Name: Macadamia integrifolia
Type: vegetation
Class: Tree
Genus: Macadamia
Species: integrifolia
Sample No.: JPL205
Owner: JPL
Wavelength Range: VSWIR
Origin: 34.12492; -118.11224; WGS84
Collection Date: 10/3/2016
Description: Samples were collected at the Huntington Garden in San Marino California as part of a JPL Subcontract studying HyTES imagery. Samples were taken to JPL and processed within 48 hours of collection. The same leaves were processed in the Nicolet and then measured using the ASD.
Measurement: Bidirectional reflectance
First Column: X
Second Column: Y
X Units: Wavelength (micrometer)
Y Units: Reflectance (percentage)
First X Value: 0.35
Last X Value: 2.5
Number of X Values: 2151
Additional Information: vegetation.tree.macadamia.integrifolia.vswir.jpl205.jpl.asd.ancillary.txt

 0.3500	 6.1910
 0.3510	 6.1550
 0.3520	 6.1090
 0.3530	 6.0060
 0.3540	 5.8780
 0.3550	 5.9470
 0.3560	 6.0540
 0.3570	 6.0290
 0.3580	 5.7750
 0.3590	 5.7810
 0.3600	 5.9040
 0.3610	 5.9590
 0.3620	 5.7970
 0.3630	 5.8050
 0.3640	 5.8570
 0.3650	 5.7800
 0.3660	 5.7180
 0.3670	 5.7040
 0.3680	 5.7360
 0.3690	 5.7850
 0.3700	 5.8050
 0.3710	 5.7800
 0.3720	 5.7190
 0.3730	 5.6580
 0.3740	 5.7290
 0.3750	 5.7930
 0.3760	 5.6990
 0.3770	 5.6880
 0.3780	 5.6380
 0.3790	 5.5960
 0.3800	 5.7420
 0.3810	 5.7430
 0.3820	 5.6730
 0.3830	 5.6340
 0.3840	 5.6350
 0.3850	 5.6240
 0.3860	 5.6270
 0.3870	 5.6760
 0.3880	 5.6740
 0.3890	 5.6580
 0.3900	 5.6520
 0.3910	 5.6530
 0.3920	 5.6300
 0.3930	 5.5980
 0.3940	 5.5790
 0.3950	 5.5830
 0.3960	 5.5970
 0.3970	 5.5980
 0.3980	 5.5690
 0.3990	 5.5550
 0.4000	 5.5660
 0.4010	 5.5800
 0.4020	 5.5440
 0.4030	 5.5450
 0.4040	 5.5560
 0.4050	 5.5380
 0.4060	 5.5190
 0.4070	 5.5210
 0.4080	 5.5310
 0.4090	 5.5200
 0.4100	 5.5240
 0.4110	 5.5160
 0.4120	 5.4930
 0.4130	 5.5000
 0.4140	 5.5150
 0.4150	 5.5260
 0.4160	 5.5270
 0.4170	 5.5200
 0.4180	 5.5250
 0.4190	 5.5400
 0.4200	 5.5470
 0.4210	 5.5450
 0.4220	 5.5300
 0.4230	 5.5070
 0.4240	 5.5190
 0.4250	 5.5290
 0.4260	 5.5310
 0.4270	 5.5300
 0.4280	 5.5330
 0.4290	 5.5320
 0.4300	 5.5260
 0.4310	 5.5290
 0.4320	 5.5330
 0.4330	 5.5330
 0.4340	 5.5270
 0.4350	 5.5150
 0.4360	 5.5010
 0.4370	 5.4990
 0.4380	 5.5280
 0.4390	 5.5420
 0.4400	 5.5480
 0.4410	 5.5540
 0.4420	 5.5540
 0.4430	 5.5530
 0.4440	 5.5570
 0.4450	 5.5670
 0.4460	 5.5710
 0.4470	 5.5730
 0.4480	 5.5780
 0.4490	 5.5850
 0.4500	 5.5940
 0.4510	 5.6000
 0.4520	 5.6020
 0.4530	 5.6070
 0.4540	 5.6130
 0.4550	 5.6170
 0.4560	 5.6170
 0.4570	 5.6190
 0.4580	 5.6240
 0.4590	 5.6330
 0.4600	 5.6390
 0.4610	 5.6420
 0.4620	 5.6420
 0.4630	 5.6370
 0.4640	 5.6350
 0.4650	 5.6410
 0.4660	 5.6480
 0.4670	 5.6450
 0.4680	 5.6490
 0.4690	 5.6510
 0.4700	 5.6450
 0.4710	 5.6450
 0.4720	 5.6440
 0.4730	 5.6430
 0.4740	 5.6480
 0.4750	 5.6540
 0.4760	 5.6570
 0.4770	 5.6540
 0.4780	 5.6500
 0.4790	 5.6520
 0.4800	 5.6590
 0.4810	 5.6660
 0.4820	 5.6640
 0.4830	 5.6660
 0.4840	 5.6720
 0.4850	 5.6700
 0.4860	 5.6660
 0.4870	 5.6720
 0.4880	 5.6880
 0.4890	 5.6990
 0.4900	 5.7130
 0.4910	 5.7320
 0.4920	 5.7540
 0.4930	 5.7710
 0.4940	 5.7950
 0.4950	 5.8310
 0.4960	 5.8680
 0.4970	 5.9050
 0.4980	 5.9480
 0.4990	 6.0010
 0.5000	 6.0570
 0.5010	 6.1190
 0.5020	 6.1900
 0.5030	 6.2720
 0.5040	 6.3580
 0.5050	 6.4570
 0.5060	 6.5740
 0.5070	 6.7060
 0.5080	 6.8460
 0.5090	 6.9970
 0.5100	 7.1670
 0.5110	 7.3520
 0.5120	 7.5500
 0.5130	 7.7630
 0.5140	 7.9900
 0.5150	 8.2310
 0.5160	 8.4860
 0.5170	 8.7520
 0.5180	 9.0300
 0.5190	 9.3180
 0.5200	 9.6120
 0.5210	 9.9090
 0.5220	10.2010
 0.5230	10.4870
 0.5240	10.7670
 0.5250	11.0370
 0.5260	11.2970
 0.5270	11.5460
 0.5280	11.7790
 0.5290	11.9990
 0.5300	12.2050
 0.5310	12.3930
 0.5320	12.5620
 0.5330	12.7120
 0.5340	12.8500
 0.5350	12.9780
 0.5360	13.0850
 0.5370	13.1830
 0.5380	13.2740
 0.5390	13.3530
 0.5400	13.4220
 0.5410	13.4840
 0.5420	13.5430
 0.5430	13.6020
 0.5440	13.6560
 0.5450	13.7060
 0.5460	13.7510
 0.5470	13.7970
 0.5480	13.8410
 0.5490	13.8790
 0.5500	13.9110
 0.5510	13.9360
 0.5520	13.9510
 0.5530	13.9520
 0.5540	13.9370
 0.5550	13.9080
 0.5560	13.8640
 0.5570	13.8030
 0.5580	13.7260
 0.5590	13.6340
 0.5600	13.5290
 0.5610	13.4180
 0.5620	13.2950
 0.5630	13.1620
 0.5640	13.0210
 0.5650	12.8780
 0.5660	12.7340
 0.5670	12.5870
 0.5680	12.4330
 0.5690	12.2710
 0.5700	12.1050
 0.5710	11.9380
 0.5720	11.7700
 0.5730	11.6050
 0.5740	11.4430
 0.5750	11.2880
 0.5760	11.1460
 0.5770	11.0150
 0.5780	10.8920
 0.5790	10.7740
 0.5800	10.6610
 0.5810	10.5540
 0.5820	10.4560
 0.5830	10.3690
 0.5840	10.2890
 0.5850	10.2110
 0.5860	10.1310
 0.5870	10.0540
 0.5880	 9.9800
 0.5890	 9.9100
 0.5900	 9.8470
 0.5910	 9.7850
 0.5920	 9.7230
 0.5930	 9.6660
 0.5940	 9.6120
 0.5950	 9.5630
 0.5960	 9.5240
 0.5970	 9.4930
 0.5980	 9.4610
 0.5990	 9.4270
 0.6000	 9.3920
 0.6010	 9.3540
 0.6020	 9.3110
 0.6030	 9.2670
 0.6040	 9.2210
 0.6050	 9.1690
 0.6060	 9.1120
 0.6070	 9.0510
 0.6080	 8.9870
 0.6090	 8.9170
 0.6100	 8.8400
 0.6110	 8.7580
 0.6120	 8.6890
 0.6130	 8.6250
 0.6140	 8.5580
 0.6150	 8.4890
 0.6160	 8.4190
 0.6170	 8.3520
 0.6180	 8.2920
 0.6190	 8.2310
 0.6200	 8.1760
 0.6210	 8.1280
 0.6220	 8.0870
 0.6230	 8.0500
 0.6240	 8.0180
 0.6250	 7.9930
 0.6260	 7.9760
 0.6270	 7.9630
 0.6280	 7.9510
 0.6290	 7.9380
 0.6300	 7.9260
 0.6310	 7.9120
 0.6320	 7.8920
 0.6330	 7.8610
 0.6340	 7.8180
 0.6350	 7.7610
 0.6360	 7.6910
 0.6370	 7.6090
 0.6380	 7.5190
 0.6390	 7.4210
 0.6400	 7.3150
 0.6410	 7.2090
 0.6420	 7.1030
 0.6430	 6.9980
 0.6440	 6.8940
 0.6450	 6.7920
 0.6460	 6.6950
 0.6470	 6.6060
 0.6480	 6.5260
 0.6490	 6.4600
 0.6500	 6.4090
 0.6510	 6.3680
 0.6520	 6.3380
 0.6530	 6.3140
 0.6540	 6.2920
 0.6550	 6.2700
 0.6560	 6.2490
 0.6570	 6.2260
 0.6580	 6.2000
 0.6590	 6.1760
 0.6600	 6.1520
 0.6610	 6.1260
 0.6620	 6.1000
 0.6630	 6.0760
 0.6640	 6.0580
 0.6650	 6.0450
 0.6660	 6.0290
 0.6670	 6.0200
 0.6680	 6.0190
 0.6690	 6.0210
 0.6700	 6.0280
 0.6710	 6.0420
 0.6720	 6.0640
 0.6730	 6.0930
 0.6740	 6.1250
 0.6750	 6.1630
 0.6760	 6.2090
 0.6770	 6.2590
 0.6780	 6.3160
 0.6790	 6.3810
 0.6800	 6.4550
 0.6810	 6.5350
 0.6820	 6.6210
 0.6830	 6.7160
 0.6840	 6.8220
 0.6850	 6.9440
 0.6860	 7.0900
 0.6870	 7.2700
 0.6880	 7.4960
 0.6890	 7.7840
 0.6900	 8.1480
 0.6910	 8.6040
 0.6920	 9.1590
 0.6930	 9.8160
 0.6940	10.5720
 0.6950	11.4280
 0.6960	12.3720
 0.6970	13.3900
 0.6980	14.4700
 0.6990	15.6010
 0.7000	16.7650
 0.7010	17.9470
 0.7020	19.1360
 0.7030	20.3230
 0.7040	21.4950
 0.7050	22.6460
 0.7060	23.7810
 0.7070	24.8910
 0.7080	25.9760
 0.7090	27.0370
 0.7100	28.0830
 0.7110	29.1110
 0.7120	30.1200
 0.7130	31.1090
 0.7140	32.0790
 0.7150	33.0310
 0.7160	33.9670
 0.7170	34.8900
 0.7180	35.7900
 0.7190	36.6680
 0.7200	37.5240
 0.7210	38.3570
 0.7220	39.1670
 0.7230	39.9530
 0.7240	40.7070
 0.7250	41.4340
 0.7260	42.1330
 0.7270	42.8030
 0.7280	43.4410
 0.7290	44.0510
 0.7300	44.6330
 0.7310	45.1810
 0.7320	45.7000
 0.7330	46.1910
 0.7340	46.6550
 0.7350	47.0890
 0.7360	47.4930
 0.7370	47.8720
 0.7380	48.2280
 0.7390	48.5590
 0.7400	48.8640
 0.7410	49.1450
 0.7420	49.4050
 0.7430	49.6380
 0.7440	49.8480
 0.7450	50.0380
 0.7460	50.2090
 0.7470	50.3600
 0.7480	50.4950
 0.7490	50.6150
 0.7500	50.7200
 0.7510	50.8110
 0.7520	50.8930
 0.7530	50.9650
 0.7540	51.0280
 0.7550	51.0810
 0.7560	51.1290
 0.7570	51.1740
 0.7580	51.2110
 0.7590	51.2420
 0.7600	51.2690
 0.7610	51.2920
 0.7620	51.3090
 0.7630	51.3210
 0.7640	51.3300
 0.7650	51.3380
 0.7660	51.3430
 0.7670	51.3440
 0.7680	51.3430
 0.7690	51.3420
 0.7700	51.3400
 0.7710	51.3380
 0.7720	51.3340
 0.7730	51.3320
 0.7740	51.3310
 0.7750	51.3270
 0.7760	51.3230
 0.7770	51.3190
 0.7780	51.3160
 0.7790	51.3140
 0.7800	51.3160
 0.7810	51.3150
 0.7820	51.3120
 0.7830	51.3130
 0.7840	51.3130
 0.7850	51.3110
 0.7860	51.3090
 0.7870	51.3100
 0.7880	51.3090
 0.7890	51.3070
 0.7900	51.3050
 0.7910	51.3020
 0.7920	51.3000
 0.7930	51.2980
 0.7940	51.2950
 0.7950	51.2920
 0.7960	51.2890
 0.7970	51.2870
 0.7980	51.2840
 0.7990	51.2760
 0.8000	51.2680
 0.8010	51.2630
 0.8020	51.2600
 0.8030	51.2530
 0.8040	51.2460
 0.8050	51.2390
 0.8060	51.2280
 0.8070	51.2160
 0.8080	51.2070
 0.8090	51.2030
 0.8100	51.1960
 0.8110	51.1860
 0.8120	51.1760
 0.8130	51.1650
 0.8140	51.1520
 0.8150	51.1400
 0.8160	51.1290
 0.8170	51.1190
 0.8180	51.1100
 0.8190	51.1000
 0.8200	51.0890
 0.8210	51.0770
 0.8220	51.0650
 0.8230	51.0540
 0.8240	51.0450
 0.8250	51.0380
 0.8260	51.0300
 0.8270	51.0180
 0.8280	51.0010
 0.8290	50.9880
 0.8300	50.9760
 0.8310	50.9630
 0.8320	50.9490
 0.8330	50.9380
 0.8340	50.9290
 0.8350	50.9200
 0.8360	50.9130
 0.8370	50.9050
 0.8380	50.8960
 0.8390	50.8900
 0.8400	50.8860
 0.8410	50.8810
 0.8420	50.8750
 0.8430	50.8750
 0.8440	50.8690
 0.8450	50.8640
 0.8460	50.8650
 0.8470	50.8570
 0.8480	50.8530
 0.8490	50.8520
 0.8500	50.8500
 0.8510	50.8480
 0.8520	50.8440
 0.8530	50.8400
 0.8540	50.8400
 0.8550	50.8430
 0.8560	50.8460
 0.8570	50.8460
 0.8580	50.8460
 0.8590	50.8450
 0.8600	50.8430
 0.8610	50.8420
 0.8620	50.8450
 0.8630	50.8480
 0.8640	50.8490
 0.8650	50.8470
 0.8660	50.8490
 0.8670	50.8510
 0.8680	50.8510
 0.8690	50.8530
 0.8700	50.8600
 0.8710	50.8640
 0.8720	50.8660
 0.8730	50.8720
 0.8740	50.8750
 0.8750	50.8760
 0.8760	50.8780
 0.8770	50.8830
 0.8780	50.8850
 0.8790	50.8870
 0.8800	50.8890
 0.8810	50.8910
 0.8820	50.8950
 0.8830	50.8980
 0.8840	50.8990
 0.8850	50.9020
 0.8860	50.9070
 0.8870	50.9080
 0.8880	50.9040
 0.8890	50.9050
 0.8900	50.9090
 0.8910	50.9120
 0.8920	50.9110
 0.8930	50.9080
 0.8940	50.9090
 0.8950	50.9130
 0.8960	50.9190
 0.8970	50.9160
 0.8980	50.9140
 0.8990	50.9140
 0.9000	50.9110
 0.9010	50.9150
 0.9020	50.9170
 0.9030	50.9140
 0.9040	50.9170
 0.9050	50.9150
 0.9060	50.9100
 0.9070	50.9070
 0.9080	50.9130
 0.9090	50.9120
 0.9100	50.9040
 0.9110	50.8960
 0.9120	50.8950
 0.9130	50.8850
 0.9140	50.8750
 0.9150	50.8790
 0.9160	50.8840
 0.9170	50.8780
 0.9180	50.8660
 0.9190	50.8560
 0.9200	50.8500
 0.9210	50.8400
 0.9220	50.8300
 0.9230	50.8230
 0.9240	50.8090
 0.9250	50.7940
 0.9260	50.7800
 0.9270	50.7690
 0.9280	50.7530
 0.9290	50.7320
 0.9300	50.7080
 0.9310	50.6840
 0.9320	50.6620
 0.9330	50.6430
 0.9340	50.6260
 0.9350	50.5970
 0.9360	50.5680
 0.9370	50.5390
 0.9380	50.5100
 0.9390	50.4860
 0.9400	50.4570
 0.9410	50.4230
 0.9420	50.3860
 0.9430	50.3490
 0.9440	50.3100
 0.9450	50.2700
 0.9460	50.2300
 0.9470	50.1750
 0.9480	50.1180
 0.9490	50.0630
 0.9500	50.0060
 0.9510	49.9390
 0.9520	49.8770
 0.9530	49.8140
 0.9540	49.7430
 0.9550	49.6740
 0.9560	49.6020
 0.9570	49.5330
 0.9580	49.4720
 0.9590	49.4130
 0.9600	49.3530
 0.9610	49.2980
 0.9620	49.2540
 0.9630	49.2180
 0.9640	49.1800
 0.9650	49.1380
 0.9660	49.0970
 0.9670	49.0640
 0.9680	49.0300
 0.9690	49.0040
 0.9700	48.9910
 0.9710	48.9730
 0.9720	48.9470
 0.9730	48.9190
 0.9740	48.9040
 0.9750	48.8920
 0.9760	48.8790
 0.9770	48.8710
 0.9780	48.8760
 0.9790	48.8650
 0.9800	48.8460
 0.9810	48.8380
 0.9820	48.8480
 0.9830	48.8400
 0.9840	48.8410
 0.9850	48.8490
 0.9860	48.8540
 0.9870	48.8620
 0.9880	48.8790
 0.9890	48.8950
 0.9900	48.8940
 0.9910	48.8990
 0.9920	48.9110
 0.9930	48.9340
 0.9940	48.9650
 0.9950	48.9580
 0.9960	48.9700
 0.9970	48.9910
 0.9980	48.9960
 0.9990	49.0270
 1.0000	49.0420
 1.0010	50.5540
 1.0020	50.5720
 1.0030	50.5920
 1.0040	50.6180
 1.0050	50.6450
 1.0060	50.6710
 1.0070	50.6950
 1.0080	50.7190
 1.0090	50.7430
 1.0100	50.7660
 1.0110	50.7870
 1.0120	50.8100
 1.0130	50.8300
 1.0140	50.8530
 1.0150	50.8780
 1.0160	50.9040
 1.0170	50.9300
 1.0180	50.9580
 1.0190	50.9810
 1.0200	51.0010
 1.0210	51.0210
 1.0220	51.0400
 1.0230	51.0630
 1.0240	51.0940
 1.0250	51.1180
 1.0260	51.1390
 1.0270	51.1620
 1.0280	51.1820
 1.0290	51.2050
 1.0300	51.2340
 1.0310	51.2570
 1.0320	51.2780
 1.0330	51.2990
 1.0340	51.3220
 1.0350	51.3420
 1.0360	51.3640
 1.0370	51.3890
 1.0380	51.4090
 1.0390	51.4270
 1.0400	51.4460
 1.0410	51.4650
 1.0420	51.4820
 1.0430	51.5010
 1.0440	51.5170
 1.0450	51.5300
 1.0460	51.5470
 1.0470	51.5690
 1.0480	51.5850
 1.0490	51.6000
 1.0500	51.6150
 1.0510	51.6260
 1.0520	51.6340
 1.0530	51.6430
 1.0540	51.6520
 1.0550	51.6600
 1.0560	51.6670
 1.0570	51.6730
 1.0580	51.6780
 1.0590	51.6830
 1.0600	51.6870
 1.0610	51.6920
 1.0620	51.6990
 1.0630	51.7030
 1.0640	51.7080
 1.0650	51.7080
 1.0660	51.7010
 1.0670	51.6970
 1.0680	51.6940
 1.0690	51.6890
 1.0700	51.6870
 1.0710	51.6890
 1.0720	51.6860
 1.0730	51.6790
 1.0740	51.6760
 1.0750	51.6750
 1.0760	51.6710
 1.0770	51.6690
 1.0780	51.6630
 1.0790	51.6500
 1.0800	51.6410
 1.0810	51.6300
 1.0820	51.6210
 1.0830	51.6130
 1.0840	51.6040
 1.0850	51.5940
 1.0860	51.5870
 1.0870	51.5780
 1.0880	51.5680
 1.0890	51.5580
 1.0900	51.5450
 1.0910	51.5340
 1.0920	51.5210
 1.0930	51.5090
 1.0940	51.4990
 1.0950	51.4870
 1.0960	51.4740
 1.0970	51.4610
 1.0980	51.4480
 1.0990	51.4330
 1.1000	51.4170
 1.1010	51.4020
 1.1020	51.3870
 1.1030	51.3710
 1.1040	51.3580
 1.1050	51.3450
 1.1060	51.3300
 1.1070	51.3140
 1.1080	51.2980
 1.1090	51.2810
 1.1100	51.2650
 1.1110	51.2500
 1.1120	51.2330
 1.1130	51.2180
 1.1140	51.1980
 1.1150	51.1750
 1.1160	51.1530
 1.1170	51.1290
 1.1180	51.1020
 1.1190	51.0740
 1.1200	51.0440
 1.1210	51.0070
 1.1220	50.9660
 1.1230	50.9220
 1.1240	50.8760
 1.1250	50.8250
 1.1260	50.7740
 1.1270	50.7140
 1.1280	50.6500
 1.1290	50.5780
 1.1300	50.4980
 1.1310	50.4120
 1.1320	50.3160
 1.1330	50.2180
 1.1340	50.1150
 1.1350	50.0040
 1.1360	49.8850
 1.1370	49.7610
 1.1380	49.6280
 1.1390	49.4880
 1.1400	49.3440
 1.1410	49.1960
 1.1420	49.0440
 1.1430	48.8900
 1.1440	48.7350
 1.1450	48.5780
 1.1460	48.4240
 1.1470	48.2680
 1.1480	48.1180
 1.1490	47.9680
 1.1500	47.8260
 1.1510	47.6850
 1.1520	47.5550
 1.1530	47.4310
 1.1540	47.3150
 1.1550	47.2080
 1.1560	47.1090
 1.1570	47.0140
 1.1580	46.9300
 1.1590	46.8530
 1.1600	46.7810
 1.1610	46.7160
 1.1620	46.6570
 1.1630	46.6020
 1.1640	46.5520
 1.1650	46.5060
 1.1660	46.4670
 1.1670	46.4290
 1.1680	46.3950
 1.1690	46.3630
 1.1700	46.3330
 1.1710	46.3040
 1.1720	46.2780
 1.1730	46.2500
 1.1740	46.2240
 1.1750	46.1960
 1.1760	46.1680
 1.1770	46.1410
 1.1780	46.1140
 1.1790	46.0870
 1.1800	46.0580
 1.1810	46.0300
 1.1820	46.0010
 1.1830	45.9710
 1.1840	45.9410
 1.1850	45.9100
 1.1860	45.8800
 1.1870	45.8510
 1.1880	45.8240
 1.1890	45.8010
 1.1900	45.7790
 1.1910	45.7620
 1.1920	45.7420
 1.1930	45.7200
 1.1940	45.7020
 1.1950	45.6820
 1.1960	45.6660
 1.1970	45.6560
 1.1980	45.6460
 1.1990	45.6370
 1.2000	45.6280
 1.2010	45.6240
 1.2020	45.6240
 1.2030	45.6270
 1.2040	45.6330
 1.2050	45.6380
 1.2060	45.6450
 1.2070	45.6550
 1.2080	45.6680
 1.2090	45.6820
 1.2100	45.6980
 1.2110	45.7180
 1.2120	45.7390
 1.2130	45.7630
 1.2140	45.7890
 1.2150	45.8180
 1.2160	45.8510
 1.2170	45.8840
 1.2180	45.9200
 1.2190	45.9570
 1.2200	45.9920
 1.2210	46.0310
 1.2220	46.0710
 1.2230	46.1120
 1.2240	46.1530
 1.2250	46.1910
 1.2260	46.2310
 1.2270	46.2710
 1.2280	46.3080
 1.2290	46.3470
 1.2300	46.3830
 1.2310	46.4150
 1.2320	46.4470
 1.2330	46.4790
 1.2340	46.5090
 1.2350	46.5380
 1.2360	46.5670
 1.2370	46.5930
 1.2380	46.6200
 1.2390	46.6470
 1.2400	46.6720
 1.2410	46.6970
 1.2420	46.7220
 1.2430	46.7450
 1.2440	46.7670
 1.2450	46.7870
 1.2460	46.8040
 1.2470	46.8220
 1.2480	46.8400
 1.2490	46.8580
 1.2500	46.8770
 1.2510	46.8940
 1.2520	46.9070
 1.2530	46.9200
 1.2540	46.9330
 1.2550	46.9440
 1.2560	46.9560
 1.2570	46.9650
 1.2580	46.9740
 1.2590	46.9820
 1.2600	46.9900
 1.2610	46.9960
 1.2620	47.0020
 1.2630	47.0060
 1.2640	47.0070
 1.2650	47.0080
 1.2660	47.0100
 1.2670	47.0120
 1.2680	47.0140
 1.2690	47.0140
 1.2700	47.0130
 1.2710	47.0090
 1.2720	47.0050
 1.2730	47.0020
 1.2740	46.9990
 1.2750	46.9940
 1.2760	46.9870
 1.2770	46.9790
 1.2780	46.9680
 1.2790	46.9560
 1.2800	46.9440
 1.2810	46.9290
 1.2820	46.9100
 1.2830	46.8920
 1.2840	46.8710
 1.2850	46.8460
 1.2860	46.8180
 1.2870	46.7870
 1.2880	46.7520
 1.2890	46.7140
 1.2900	46.6760
 1.2910	46.6350
 1.2920	46.5910
 1.2930	46.5420
 1.2940	46.4880
 1.2950	46.4310
 1.2960	46.3730
 1.2970	46.3130
 1.2980	46.2490
 1.2990	46.1830
 1.3000	46.1130
 1.3010	46.0400
 1.3020	45.9650
 1.3030	45.8860
 1.3040	45.8070
 1.3050	45.7250
 1.3060	45.6410
 1.3070	45.5560
 1.3080	45.4680
 1.3090	45.3750
 1.3100	45.2800
 1.3110	45.1820
 1.3120	45.0810
 1.3130	44.9770
 1.3140	44.8690
 1.3150	44.7580
 1.3160	44.6460
 1.3170	44.5330
 1.3180	44.4170
 1.3190	44.2970
 1.3200	44.1720
 1.3210	44.0450
 1.3220	43.9150
 1.3230	43.7840
 1.3240	43.6520
 1.3250	43.5160
 1.3260	43.3750
 1.3270	43.2310
 1.3280	43.0850
 1.3290	42.9360
 1.3300	42.7860
 1.3310	42.6350
 1.3320	42.4840
 1.3330	42.3310
 1.3340	42.1750
 1.3350	42.0190
 1.3360	41.8610
 1.3370	41.7020
 1.3380	41.5460
 1.3390	41.3890
 1.3400	41.2330
 1.3410	41.0790
 1.3420	40.9250
 1.3430	40.7730
 1.3440	40.6230
 1.3450	40.4750
 1.3460	40.3270
 1.3470	40.1840
 1.3480	40.0410
 1.3490	39.9010
 1.3500	39.7630
 1.3510	39.6250
 1.3520	39.4880
 1.3530	39.3530
 1.3540	39.2170
 1.3550	39.0810
 1.3560	38.9450
 1.3570	38.8060
 1.3580	38.6680
 1.3590	38.5280
 1.3600	38.3840
 1.3610	38.2380
 1.3620	38.0860
 1.3630	37.9300
 1.3640	37.7670
 1.3650	37.5960
 1.3660	37.4180
 1.3670	37.2290
 1.3680	37.0300
 1.3690	36.8190
 1.3700	36.5920
 1.3710	36.3510
 1.3720	36.0930
 1.3730	35.8170
 1.3740	35.5270
 1.3750	35.2160
 1.3760	34.8820
 1.3770	34.5250
 1.3780	34.1390
 1.3790	33.7280
 1.3800	33.2930
 1.3810	32.8270
 1.3820	32.3420
 1.3830	31.8350
 1.3840	31.3050
 1.3850	30.7530
 1.3860	30.1840
 1.3870	29.5900
 1.3880	28.9910
 1.3890	28.3770
 1.3900	27.7530
 1.3910	27.1310
 1.3920	26.5010
 1.3930	25.8690
 1.3940	25.2430
 1.3950	24.6160
 1.3960	23.9990
 1.3970	23.3950
 1.3980	22.8030
 1.3990	22.2330
 1.4000	21.6800
 1.4010	21.1430
 1.4020	20.6280
 1.4030	20.1310
 1.4040	19.6560
 1.4050	19.2050
 1.4060	18.7770
 1.4070	18.3750
 1.4080	17.9960
 1.4090	17.6370
 1.4100	17.3010
 1.4110	16.9830
 1.4120	16.6860
 1.4130	16.4090
 1.4140	16.1500
 1.4150	15.9100
 1.4160	15.6860
 1.4170	15.4780
 1.4180	15.2870
 1.4190	15.1070
 1.4200	14.9400
 1.4210	14.7850
 1.4220	14.6410
 1.4230	14.5080
 1.4240	14.3870
 1.4250	14.2720
 1.4260	14.1680
 1.4270	14.0700
 1.4280	13.9820
 1.4290	13.9000
 1.4300	13.8260
 1.4310	13.7570
 1.4320	13.6950
 1.4330	13.6390
 1.4340	13.5890
 1.4350	13.5430
 1.4360	13.5020
 1.4370	13.4660
 1.4380	13.4340
 1.4390	13.4060
 1.4400	13.3830
 1.4410	13.3630
 1.4420	13.3460
 1.4430	13.3320
 1.4440	13.3210
 1.4450	13.3120
 1.4460	13.3050
 1.4470	13.3010
 1.4480	13.2990
 1.4490	13.3000
 1.4500	13.3020
 1.4510	13.3080
 1.4520	13.3140
 1.4530	13.3220
 1.4540	13.3330
 1.4550	13.3450
 1.4560	13.3590
 1.4570	13.3750
 1.4580	13.3940
 1.4590	13.4170
 1.4600	13.4410
 1.4610	13.4700
 1.4620	13.5010
 1.4630	13.5350
 1.4640	13.5750
 1.4650	13.6190
 1.4660	13.6670
 1.4670	13.7190
 1.4680	13.7740
 1.4690	13.8340
 1.4700	13.8970
 1.4710	13.9660
 1.4720	14.0380
 1.4730	14.1130
 1.4740	14.1930
 1.4750	14.2740
 1.4760	14.3600
 1.4770	14.4500
 1.4780	14.5410
 1.4790	14.6350
 1.4800	14.7300
 1.4810	14.8260
 1.4820	14.9270
 1.4830	15.0280
 1.4840	15.1320
 1.4850	15.2370
 1.4860	15.3430
 1.4870	15.4500
 1.4880	15.5590
 1.4890	15.6690
 1.4900	15.7800
 1.4910	15.8930
 1.4920	16.0060
 1.4930	16.1210
 1.4940	16.2360
 1.4950	16.3530
 1.4960	16.4700
 1.4970	16.5860
 1.4980	16.7040
 1.4990	16.8220
 1.5000	16.9420
 1.5010	17.0630
 1.5020	17.1830
 1.5030	17.3040
 1.5040	17.4250
 1.5050	17.5440
 1.5060	17.6650
 1.5070	17.7860
 1.5080	17.9080
 1.5090	18.0300
 1.5100	18.1510
 1.5110	18.2730
 1.5120	18.3960
 1.5130	18.5180
 1.5140	18.6380
 1.5150	18.7580
 1.5160	18.8780
 1.5170	18.9980
 1.5180	19.1170
 1.5190	19.2370
 1.5200	19.3560
 1.5210	19.4730
 1.5220	19.5910
 1.5230	19.7080
 1.5240	19.8230
 1.5250	19.9380
 1.5260	20.0510
 1.5270	20.1640
 1.5280	20.2760
 1.5290	20.3890
 1.5300	20.5010
 1.5310	20.6120
 1.5320	20.7220
 1.5330	20.8310
 1.5340	20.9390
 1.5350	21.0480
 1.5360	21.1570
 1.5370	21.2630
 1.5380	21.3690
 1.5390	21.4750
 1.5400	21.5780
 1.5410	21.6820
 1.5420	21.7870
 1.5430	21.8890
 1.5440	21.9920
 1.5450	22.0920
 1.5460	22.1910
 1.5470	22.2910
 1.5480	22.3900
 1.5490	22.4880
 1.5500	22.5850
 1.5510	22.6810
 1.5520	22.7770
 1.5530	22.8720
 1.5540	22.9650
 1.5550	23.0590
 1.5560	23.1520
 1.5570	23.2430
 1.5580	23.3340
 1.5590	23.4250
 1.5600	23.5130
 1.5610	23.5990
 1.5620	23.6860
 1.5630	23.7710
 1.5640	23.8570
 1.5650	23.9430
 1.5660	24.0280
 1.5670	24.1120
 1.5680	24.1950
 1.5690	24.2770
 1.5700	24.3590
 1.5710	24.4410
 1.5720	24.5220
 1.5730	24.6020
 1.5740	24.6820
 1.5750	24.7620
 1.5760	24.8420
 1.5770	24.9200
 1.5780	24.9970
 1.5790	25.0750
 1.5800	25.1530
 1.5810	25.2310
 1.5820	25.3090
 1.5830	25.3860
 1.5840	25.4630
 1.5850	25.5370
 1.5860	25.6120
 1.5870	25.6870
 1.5880	25.7610
 1.5890	25.8370
 1.5900	25.9100
 1.5910	25.9820
 1.5920	26.0560
 1.5930	26.1280
 1.5940	26.2010
 1.5950	26.2750
 1.5960	26.3470
 1.5970	26.4200
 1.5980	26.4920
 1.5990	26.5640
 1.6000	26.6370
 1.6010	26.7080
 1.6020	26.7790
 1.6030	26.8500
 1.6040	26.9170
 1.6050	26.9860
 1.6060	27.0530
 1.6070	27.1200
 1.6080	27.1870
 1.6090	27.2530
 1.6100	27.3180
 1.6110	27.3840
 1.6120	27.4470
 1.6130	27.5100
 1.6140	27.5710
 1.6150	27.6310
 1.6160	27.6910
 1.6170	27.7500
 1.6180	27.8080
 1.6190	27.8640
 1.6200	27.9190
 1.6210	27.9760
 1.6220	28.0310
 1.6230	28.0860
 1.6240	28.1400
 1.6250	28.1910
 1.6260	28.2420
 1.6270	28.2910
 1.6280	28.3370
 1.6290	28.3840
 1.6300	28.4300
 1.6310	28.4760
 1.6320	28.5220
 1.6330	28.5660
 1.6340	28.6060
 1.6350	28.6450
 1.6360	28.6840
 1.6370	28.7200
 1.6380	28.7570
 1.6390	28.7900
 1.6400	28.8190
 1.6410	28.8470
 1.6420	28.8730
 1.6430	28.8980
 1.6440	28.9210
 1.6450	28.9410
 1.6460	28.9580
 1.6470	28.9720
 1.6480	28.9830
 1.6490	28.9910
 1.6500	28.9980
 1.6510	29.0020
 1.6520	29.0040
 1.6530	29.0050
 1.6540	29.0050
 1.6550	29.0040
 1.6560	29.0000
 1.6570	28.9960
 1.6580	28.9880
 1.6590	28.9800
 1.6600	28.9730
 1.6610	28.9670
 1.6620	28.9620
 1.6630	28.9580
 1.6640	28.9560
 1.6650	28.9550
 1.6660	28.9540
 1.6670	28.9540
 1.6680	28.9550
 1.6690	28.9550
 1.6700	28.9580
 1.6710	28.9600
 1.6720	28.9630
 1.6730	28.9650
 1.6740	28.9660
 1.6750	28.9680
 1.6760	28.9690
 1.6770	28.9680
 1.6780	28.9650
 1.6790	28.9590
 1.6800	28.9510
 1.6810	28.9400
 1.6820	28.9260
 1.6830	28.9100
 1.6840	28.8910
 1.6850	28.8680
 1.6860	28.8440
 1.6870	28.8160
 1.6880	28.7870
 1.6890	28.7540
 1.6900	28.7210
 1.6910	28.6850
 1.6920	28.6490
 1.6930	28.6120
 1.6940	28.5740
 1.6950	28.5370
 1.6960	28.4980
 1.6970	28.4570
 1.6980	28.4160
 1.6990	28.3730
 1.7000	28.3300
 1.7010	28.2870
 1.7020	28.2400
 1.7030	28.1900
 1.7040	28.1400
 1.7050	28.0880
 1.7060	28.0360
 1.7070	27.9850
 1.7080	27.9310
 1.7090	27.8760
 1.7100	27.8200
 1.7110	27.7620
 1.7120	27.7030
 1.7130	27.6450
 1.7140	27.5860
 1.7150	27.5270
 1.7160	27.4690
 1.7170	27.4110
 1.7180	27.3500
 1.7190	27.2900
 1.7200	27.2300
 1.7210	27.1690
 1.7220	27.1110
 1.7230	27.0510
 1.7240	26.9920
 1.7250	26.9330
 1.7260	26.8780
 1.7270	26.8270
 1.7280	26.7780
 1.7290	26.7320
 1.7300	26.6860
 1.7310	26.6440
 1.7320	26.6040
 1.7330	26.5670
 1.7340	26.5340
 1.7350	26.5000
 1.7360	26.4690
 1.7370	26.4350
 1.7380	26.4020
 1.7390	26.3630
 1.7400	26.3230
 1.7410	26.2780
 1.7420	26.2270
 1.7430	26.1780
 1.7440	26.1260
 1.7450	26.0740
 1.7460	26.0240
 1.7470	25.9680
 1.7480	25.9070
 1.7490	25.8480
 1.7500	25.7850
 1.7510	25.7250
 1.7520	25.6680
 1.7530	25.6070
 1.7540	25.5460
 1.7550	25.4850
 1.7560	25.4240
 1.7570	25.3650
 1.7580	25.3080
 1.7590	25.2510
 1.7600	25.1960
 1.7610	25.1410
 1.7620	25.0900
 1.7630	25.0400
 1.7640	24.9930
 1.7650	24.9480
 1.7660	24.9060
 1.7670	24.8650
 1.7680	24.8250
 1.7690	24.7880
 1.7700	24.7510
 1.7710	24.7140
 1.7720	24.6800
 1.7730	24.6470
 1.7740	24.6150
 1.7750	24.5870
 1.7760	24.5590
 1.7770	24.5310
 1.7780	24.5050
 1.7790	24.4800
 1.7800	24.4590
 1.7810	24.4410
 1.7820	24.4230
 1.7830	24.4070
 1.7840	24.3930
 1.7850	24.3790
 1.7860	24.3690
 1.7870	24.3630
 1.7880	24.3560
 1.7890	24.3510
 1.7900	24.3460
 1.7910	24.3440
 1.7920	24.3460
 1.7930	24.3490
 1.7940	24.3530
 1.7950	24.3600
 1.7960	24.3700
 1.7970	24.3780
 1.7980	24.3870
 1.7990	24.3970
 1.8000	24.4030
 1.8010	24.4140
 1.8020	24.4300
 1.8030	24.4440
 1.8040	24.4590
 1.8050	24.4720
 1.8060	24.4830
 1.8070	24.4940
 1.8080	24.5050
 1.8090	24.5170
 1.8100	24.5300
 1.8110	24.5430
 1.8120	24.5550
 1.8130	24.5650
 1.8140	24.5760
 1.8150	24.5880
 1.8160	24.5950
 1.8170	24.6010
 1.8180	24.6070
 1.8190	24.6120
 1.8200	24.6170
 1.8210	24.6230
 1.8220	24.6250
 1.8230	24.6250
 1.8240	24.6250
 1.8250	24.6270
 1.8260	24.6260
 1.8270	24.6240
 1.8280	24.6200
 1.8290	24.6150
 1.8300	24.6070
 1.8310	24.3160
 1.8320	24.3000
 1.8330	24.2830
 1.8340	24.2600
 1.8350	24.2300
 1.8360	24.2010
 1.8370	24.1630
 1.8380	24.1210
 1.8390	24.0780
 1.8400	24.0320
 1.8410	23.9790
 1.8420	23.9240
 1.8430	23.8630
 1.8440	23.7900
 1.8450	23.7100
 1.8460	23.6200
 1.8470	23.5200
 1.8480	23.4160
 1.8490	23.3030
 1.8500	23.1790
 1.8510	23.0460
 1.8520	22.9030
 1.8530	22.7460
 1.8540	22.5770
 1.8550	22.3960
 1.8560	22.2040
 1.8570	22.0000
 1.8580	21.7840
 1.8590	21.5520
 1.8600	21.3080
 1.8610	21.0470
 1.8620	20.7700
 1.8630	20.4810
 1.8640	20.1780
 1.8650	19.8630
 1.8660	19.5300
 1.8670	19.1760
 1.8680	18.8100
 1.8690	18.4290
 1.8700	18.0310
 1.8710	17.6180
 1.8720	17.2010
 1.8730	16.7690
 1.8740	16.3250
 1.8750	15.8810
 1.8760	15.4280
 1.8770	14.9750
 1.8780	14.5270
 1.8790	14.0790
 1.8800	13.6390
 1.8810	13.2040
 1.8820	12.7720
 1.8830	12.3490
 1.8840	11.9360
 1.8850	11.5290
 1.8860	11.1360
 1.8870	10.7600
 1.8880	10.3990
 1.8890	10.0580
 1.8900	 9.7380
 1.8910	 9.4350
 1.8920	 9.1490
 1.8930	 8.8810
 1.8940	 8.6360
 1.8950	 8.4110
 1.8960	 8.2030
 1.8970	 8.0160
 1.8980	 7.8490
 1.8990	 7.6940
 1.9000	 7.5530
 1.9010	 7.4320
 1.9020	 7.3200
 1.9030	 7.2200
 1.9040	 7.1340
 1.9050	 7.0590
 1.9060	 6.9940
 1.9070	 6.9360
 1.9080	 6.8860
 1.9090	 6.8440
 1.9100	 6.8040
 1.9110	 6.7680
 1.9120	 6.7390
 1.9130	 6.7110
 1.9140	 6.6850
 1.9150	 6.6630
 1.9160	 6.6450
 1.9170	 6.6300
 1.9180	 6.6150
 1.9190	 6.6020
 1.9200	 6.5930
 1.9210	 6.5820
 1.9220	 6.5730
 1.9230	 6.5640
 1.9240	 6.5580
 1.9250	 6.5520
 1.9260	 6.5470
 1.9270	 6.5500
 1.9280	 6.5520
 1.9290	 6.5530
 1.9300	 6.5560
 1.9310	 6.5580
 1.9320	 6.5610
 1.9330	 6.5650
 1.9340	 6.5700
 1.9350	 6.5760
 1.9360	 6.5810
 1.9370	 6.5870
 1.9380	 6.5930
 1.9390	 6.6000
 1.9400	 6.6100
 1.9410	 6.6210
 1.9420	 6.6310
 1.9430	 6.6420
 1.9440	 6.6530
 1.9450	 6.6620
 1.9460	 6.6730
 1.9470	 6.6880
 1.9480	 6.7010
 1.9490	 6.7110
 1.9500	 6.7260
 1.9510	 6.7390
 1.9520	 6.7530
 1.9530	 6.7690
 1.9540	 6.7850
 1.9550	 6.8040
 1.9560	 6.8260
 1.9570	 6.8470
 1.9580	 6.8700
 1.9590	 6.8900
 1.9600	 6.9080
 1.9610	 6.9280
 1.9620	 6.9480
 1.9630	 6.9670
 1.9640	 6.9890
 1.9650	 7.0090
 1.9660	 7.0300
 1.9670	 7.0540
 1.9680	 7.0790
 1.9690	 7.1050
 1.9700	 7.1320
 1.9710	 7.1600
 1.9720	 7.1880
 1.9730	 7.2160
 1.9740	 7.2430
 1.9750	 7.2700
 1.9760	 7.3000
 1.9770	 7.3300
 1.9780	 7.3610
 1.9790	 7.3940
 1.9800	 7.4310
 1.9810	 7.4650
 1.9820	 7.4990
 1.9830	 7.5350
 1.9840	 7.5690
 1.9850	 7.6040
 1.9860	 7.6390
 1.9870	 7.6760
 1.9880	 7.7120
 1.9890	 7.7470
 1.9900	 7.7870
 1.9910	 7.8270
 1.9920	 7.8670
 1.9930	 7.9090
 1.9940	 7.9500
 1.9950	 7.9900
 1.9960	 8.0310
 1.9970	 8.0710
 1.9980	 8.1110
 1.9990	 8.1500
 2.0000	 8.1910
 2.0010	 8.2320
 2.0020	 8.2730
 2.0030	 8.3170
 2.0040	 8.3610
 2.0050	 8.4030
 2.0060	 8.4440
 2.0070	 8.4870
 2.0080	 8.5320
 2.0090	 8.5760
 2.0100	 8.6210
 2.0110	 8.6660
 2.0120	 8.7110
 2.0130	 8.7540
 2.0140	 8.7980
 2.0150	 8.8410
 2.0160	 8.8820
 2.0170	 8.9240
 2.0180	 8.9660
 2.0190	 9.0090
 2.0200	 9.0500
 2.0210	 9.0920
 2.0220	 9.1340
 2.0230	 9.1740
 2.0240	 9.2160
 2.0250	 9.2610
 2.0260	 9.3040
 2.0270	 9.3480
 2.0280	 9.3910
 2.0290	 9.4290
 2.0300	 9.4650
 2.0310	 9.5010
 2.0320	 9.5340
 2.0330	 9.5700
 2.0340	 9.6070
 2.0350	 9.6430
 2.0360	 9.6790
 2.0370	 9.7140
 2.0380	 9.7460
 2.0390	 9.7800
 2.0400	 9.8170
 2.0410	 9.8520
 2.0420	 9.8860
 2.0430	 9.9210
 2.0440	 9.9540
 2.0450	 9.9850
 2.0460	10.0170
 2.0470	10.0510
 2.0480	10.0810
 2.0490	10.1080
 2.0500	10.1380
 2.0510	10.1680
 2.0520	10.1970
 2.0530	10.2270
 2.0540	10.2570
 2.0550	10.2870
 2.0560	10.3160
 2.0570	10.3490
 2.0580	10.3800
 2.0590	10.4110
 2.0600	10.4400
 2.0610	10.4720
 2.0620	10.5040
 2.0630	10.5350
 2.0640	10.5690
 2.0650	10.6000
 2.0660	10.6290
 2.0670	10.6600
 2.0680	10.6920
 2.0690	10.7230
 2.0700	10.7560
 2.0710	10.7870
 2.0720	10.8170
 2.0730	10.8460
 2.0740	10.8740
 2.0750	10.9010
 2.0760	10.9300
 2.0770	10.9610
 2.0780	10.9920
 2.0790	11.0260
 2.0800	11.0570
 2.0810	11.0850
 2.0820	11.1150
 2.0830	11.1460
 2.0840	11.1760
 2.0850	11.2080
 2.0860	11.2370
 2.0870	11.2630
 2.0880	11.2890
 2.0890	11.3190
 2.0900	11.3500
 2.0910	11.3800
 2.0920	11.4120
 2.0930	11.4410
 2.0940	11.4650
 2.0950	11.4940
 2.0960	11.5230
 2.0970	11.5520
 2.0980	11.5840
 2.0990	11.6140
 2.1000	11.6410
 2.1010	11.6710
 2.1020	11.7040
 2.1030	11.7330
 2.1040	11.7630
 2.1050	11.7910
 2.1060	11.8200
 2.1070	11.8460
 2.1080	11.8760
 2.1090	11.9110
 2.1100	11.9420
 2.1110	11.9730
 2.1120	12.0020
 2.1130	12.0270
 2.1140	12.0560
 2.1150	12.0850
 2.1160	12.1140
 2.1170	12.1450
 2.1180	12.1750
 2.1190	12.2040
 2.1200	12.2320
 2.1210	12.2610
 2.1220	12.2880
 2.1230	12.3150
 2.1240	12.3400
 2.1250	12.3670
 2.1260	12.3960
 2.1270	12.4230
 2.1280	12.4500
 2.1290	12.4750
 2.1300	12.4960
 2.1310	12.5220
 2.1320	12.5510
 2.1330	12.5790
 2.1340	12.6060
 2.1350	12.6360
 2.1360	12.6690
 2.1370	12.6960
 2.1380	12.7210
 2.1390	12.7490
 2.1400	12.7740
 2.1410	12.7990
 2.1420	12.8300
 2.1430	12.8680
 2.1440	12.9000
 2.1450	12.9340
 2.1460	12.9630
 2.1470	12.9860
 2.1480	13.0140
 2.1490	13.0410
 2.1500	13.0700
 2.1510	13.1020
 2.1520	13.1340
 2.1530	13.1690
 2.1540	13.2010
 2.1550	13.2330
 2.1560	13.2640
 2.1570	13.2920
 2.1580	13.3210
 2.1590	13.3530
 2.1600	13.3810
 2.1610	13.4080
 2.1620	13.4380
 2.1630	13.4640
 2.1640	13.4870
 2.1650	13.5160
 2.1660	13.5450
 2.1670	13.5740
 2.1680	13.6060
 2.1690	13.6340
 2.1700	13.6570
 2.1710	13.6830
 2.1720	13.7110
 2.1730	13.7370
 2.1740	13.7620
 2.1750	13.7880
 2.1760	13.8110
 2.1770	13.8360
 2.1780	13.8650
 2.1790	13.8930
 2.1800	13.9210
 2.1810	13.9470
 2.1820	13.9700
 2.1830	13.9920
 2.1840	14.0160
 2.1850	14.0390
 2.1860	14.0640
 2.1870	14.0910
 2.1880	14.1210
 2.1890	14.1540
 2.1900	14.1830
 2.1910	14.2170
 2.1920	14.2430
 2.1930	14.2630
 2.1940	14.2870
 2.1950	14.3090
 2.1960	14.3330
 2.1970	14.3590
 2.1980	14.3830
 2.1990	14.4020
 2.2000	14.4260
 2.2010	14.4500
 2.2020	14.4740
 2.2030	14.5020
 2.2040	14.5250
 2.2050	14.5430
 2.2060	14.5610
 2.2070	14.5790
 2.2080	14.5960
 2.2090	14.6130
 2.2100	14.6320
 2.2110	14.6510
 2.2120	14.6700
 2.2130	14.6850
 2.2140	14.7010
 2.2150	14.7130
 2.2160	14.7230
 2.2170	14.7290
 2.2180	14.7300
 2.2190	14.7330
 2.2200	14.7340
 2.2210	14.7350
 2.2220	14.7390
 2.2230	14.7380
 2.2240	14.7280
 2.2250	14.7240
 2.2260	14.7240
 2.2270	14.7170
 2.2280	14.7140
 2.2290	14.7030
 2.2300	14.6810
 2.2310	14.6600
 2.2320	14.6400
 2.2330	14.6180
 2.2340	14.5920
 2.2350	14.5670
 2.2360	14.5370
 2.2370	14.5010
 2.2380	14.4670
 2.2390	14.4340
 2.2400	14.3950
 2.2410	14.3520
 2.2420	14.3080
 2.2430	14.2610
 2.2440	14.2140
 2.2450	14.1660
 2.2460	14.1180
 2.2470	14.0700
 2.2480	14.0200
 2.2490	13.9720
 2.2500	13.9180
 2.2510	13.8560
 2.2520	13.7990
 2.2530	13.7390
 2.2540	13.6800
 2.2550	13.6220
 2.2560	13.5660
 2.2570	13.5090
 2.2580	13.4540
 2.2590	13.4050
 2.2600	13.3510
 2.2610	13.2940
 2.2620	13.2390
 2.2630	13.1880
 2.2640	13.1330
 2.2650	13.0850
 2.2660	13.0400
 2.2670	12.9940
 2.2680	12.9490
 2.2690	12.9010
 2.2700	12.8510
 2.2710	12.8040
 2.2720	12.7540
 2.2730	12.7100
 2.2740	12.6690
 2.2750	12.6290
 2.2760	12.5920
 2.2770	12.5560
 2.2780	12.5240
 2.2790	12.4900
 2.2800	12.4560
 2.2810	12.4230
 2.2820	12.3880
 2.2830	12.3540
 2.2840	12.3190
 2.2850	12.2860
 2.2860	12.2540
 2.2870	12.2220
 2.2880	12.1940
 2.2890	12.1620
 2.2900	12.1270
 2.2910	12.0950
 2.2920	12.0660
 2.2930	12.0320
 2.2940	11.9990
 2.2950	11.9630
 2.2960	11.9200
 2.2970	11.8790
 2.2980	11.8370
 2.2990	11.7950
 2.3000	11.7500
 2.3010	11.7070
 2.3020	11.6680
 2.3030	11.6270
 2.3040	11.5850
 2.3050	11.5450
 2.3060	11.5090
 2.3070	11.4740
 2.3080	11.4420
 2.3090	11.4150
 2.3100	11.3800
 2.3110	11.3520
 2.3120	11.3280
 2.3130	11.3080
 2.3140	11.2860
 2.3150	11.2660
 2.3160	11.2510
 2.3170	11.2340
 2.3180	11.2250
 2.3190	11.2280
 2.3200	11.2180
 2.3210	11.2070
 2.3220	11.1900
 2.3230	11.1650
 2.3240	11.1420
 2.3250	11.1170
 2.3260	11.0900
 2.3270	11.0620
 2.3280	11.0320
 2.3290	10.9990
 2.3300	10.9670
 2.3310	10.9360
 2.3320	10.9040
 2.3330	10.8680
 2.3340	10.8370
 2.3350	10.8120
 2.3360	10.7830
 2.3370	10.7540
 2.3380	10.7240
 2.3390	10.6860
 2.3400	10.6530
 2.3410	10.6250
 2.3420	10.5920
 2.3430	10.5550
 2.3440	10.5230
 2.3450	10.4910
 2.3460	10.4600
 2.3470	10.4340
 2.3480	10.4100
 2.3490	10.3870
 2.3500	10.3610
 2.3510	10.3380
 2.3520	10.3120
 2.3530	10.2780
 2.3540	10.2560
 2.3550	10.2340
 2.3560	10.2150
 2.3570	10.1990
 2.3580	10.1710
 2.3590	10.1470
 2.3600	10.1310
 2.3610	10.1110
 2.3620	10.0920
 2.3630	10.0660
 2.3640	10.0370
 2.3650	10.0060
 2.3660	 9.9790
 2.3670	 9.9590
 2.3680	 9.9310
 2.3690	 9.9050
 2.3700	 9.8830
 2.3710	 9.8560
 2.3720	 9.8330
 2.3730	 9.8110
 2.3740	 9.7810
 2.3750	 9.7580
 2.3760	 9.7270
 2.3770	 9.6900
 2.3780	 9.6620
 2.3790	 9.6320
 2.3800	 9.6030
 2.3810	 9.5700
 2.3820	 9.5420
 2.3830	 9.5150
 2.3840	 9.4790
 2.3850	 9.4600
 2.3860	 9.4420
 2.3870	 9.4180
 2.3880	 9.4020
 2.3890	 9.3750
 2.3900	 9.3510
 2.3910	 9.3310
 2.3920	 9.3050
 2.3930	 9.2830
 2.3940	 9.2560
 2.3950	 9.2300
 2.3960	 9.2010
 2.3970	 9.1750
 2.3980	 9.1570
 2.3990	 9.1270
 2.4000	 9.1060
 2.4010	 9.0950
 2.4020	 9.0790
 2.4030	 9.0620
 2.4040	 9.0400
 2.4050	 8.9990
 2.4060	 8.9660
 2.4070	 8.9440
 2.4080	 8.9150
 2.4090	 8.8890
 2.4100	 8.8620
 2.4110	 8.8260
 2.4120	 8.7900
 2.4130	 8.7500
 2.4140	 8.7040
 2.4150	 8.6600
 2.4160	 8.6290
 2.4170	 8.6220
 2.4180	 8.6150
 2.4190	 8.6030
 2.4200	 8.5880
 2.4210	 8.5620
 2.4220	 8.5350
 2.4230	 8.5090
 2.4240	 8.4720
 2.4250	 8.4350
 2.4260	 8.4060
 2.4270	 8.3770
 2.4280	 8.3600
 2.4290	 8.3510
 2.4300	 8.3270
 2.4310	 8.3010
 2.4320	 8.2730
 2.4330	 8.2330
 2.4340	 8.1990
 2.4350	 8.1600
 2.4360	 8.1230
 2.4370	 8.1020
 2.4380	 8.0750
 2.4390	 8.0730
 2.4400	 8.0760
 2.4410	 8.0620
 2.4420	 8.0600
 2.4430	 8.0440
 2.4440	 8.0290
 2.4450	 8.0070
 2.4460	 7.9690
 2.4470	 7.9240
 2.4480	 7.8770
 2.4490	 7.8440
 2.4500	 7.8210
 2.4510	 7.8120
 2.4520	 7.8020
 2.4530	 7.7830
 2.4540	 7.7710
 2.4550	 7.7460
 2.4560	 7.7090
 2.4570	 7.6900
 2.4580	 7.6550
 2.4590	 7.6390
 2.4600	 7.6510
 2.4610	 7.6420
 2.4620	 7.6380
 2.4630	 7.6280
 2.4640	 7.5950
 2.4650	 7.5590
 2.4660	 7.5390
 2.4670	 7.5210
 2.4680	 7.5080
 2.4690	 7.4950
 2.4700	 7.4830
 2.4710	 7.4670
 2.4720	 7.4600
 2.4730	 7.4670
 2.4740	 7.4640
 2.4750	 7.4580
 2.4760	 7.4450
 2.4770	 7.4320
 2.4780	 7.4230
 2.4790	 7.4230
 2.4800	 7.4170
 2.4810	 7.3890
 2.4820	 7.3770
 2.4830	 7.3500
 2.4840	 7.3320
 2.4850	 7.3640
 2.4860	 7.4080
 2.4870	 7.4210
 2.4880	 7.4150
 2.4890	 7.4240
 2.4900	 7.4080
 2.4910	 7.3680
 2.4920	 7.3400
 2.4930	 7.3060
 2.4940	 7.3020
 2.4950	 7.3400
 2.4960	 7.3770
 2.4970	 7.4330
 2.4980	 7.4220
 2.4990	 7.4130
 2.5000	 7.4510
