Name: Salvia leucophylla 2
Type: vegetation
Class: Shrub
Genus: Salvia
Species: leucophylla
Sample No.: VH288
Owner: UCSB
Wavelength Range: VSWIR
Origin: 34.698; -120.0477; WGS84
Collection Date: 11/2/2013
Description: Samples were collected as part of the HyspIRI Airborne Campaign. 48 individual plants were sampled in three times in 2013 - spring  summer  and fall. The name of the sample includes a 1  2  or 3 which references a different individual of the species. Samples were taken to JPL and processed within 48 hours of collection. The same leaves were processed in the Nicolet and then measured using the ASD.
Measurement: Bidirectional reflectance
First Column: X
Second Column: Y
X Units: Wavelength (micrometers)
Y Units: Reflectance (percentage)
First X Value: 0.35
Last X Value: 2.5
Number of X Values: 2151
Additional Information: vegetation.shrub.salvia.leucophylla.vswir.vh288.ucsb.asd.ancillary.txt

 0.3500	 8.7220
 0.3510	 9.0450
 0.3520	 9.1610
 0.3530	 9.0890
 0.3540	 9.0450
 0.3550	 9.3450
 0.3560	 9.3240
 0.3570	 9.1620
 0.3580	 9.3930
 0.3590	 9.6070
 0.3600	 9.6930
 0.3610	 9.6810
 0.3620	 9.7350
 0.3630	 9.9990
 0.3640	10.2280
 0.3650	10.1980
 0.3660	10.1170
 0.3670	10.2630
 0.3680	10.5180
 0.3690	10.5390
 0.3700	10.6560
 0.3710	10.8140
 0.3720	10.9580
 0.3730	11.1380
 0.3740	11.2460
 0.3750	11.3560
 0.3760	11.5520
 0.3770	11.6680
 0.3780	11.8800
 0.3790	12.1460
 0.3800	12.2480
 0.3810	12.4130
 0.3820	12.6590
 0.3830	12.9130
 0.3840	12.9850
 0.3850	13.0590
 0.3860	13.2110
 0.3870	13.4460
 0.3880	13.6350
 0.3890	13.7780
 0.3900	13.9080
 0.3910	14.0680
 0.3920	14.1670
 0.3930	14.2530
 0.3940	14.3880
 0.3950	14.6060
 0.3960	14.7670
 0.3970	14.8660
 0.3980	14.9720
 0.3990	15.1540
 0.4000	15.2850
 0.4010	15.3330
 0.4020	15.4060
 0.4030	15.5680
 0.4040	15.7200
 0.4050	15.7800
 0.4060	15.8520
 0.4070	15.9540
 0.4080	16.0620
 0.4090	16.1310
 0.4100	16.2000
 0.4110	16.3130
 0.4120	16.4460
 0.4130	16.4600
 0.4140	16.5340
 0.4150	16.6590
 0.4160	16.7660
 0.4170	16.8040
 0.4180	16.8700
 0.4190	16.9780
 0.4200	17.0540
 0.4210	17.1350
 0.4220	17.2140
 0.4230	17.2880
 0.4240	17.3870
 0.4250	17.4740
 0.4260	17.5480
 0.4270	17.6270
 0.4280	17.7060
 0.4290	17.7940
 0.4300	17.8890
 0.4310	17.9830
 0.4320	18.0730
 0.4330	18.1540
 0.4340	18.2260
 0.4350	18.3010
 0.4360	18.3750
 0.4370	18.4500
 0.4380	18.5290
 0.4390	18.6200
 0.4400	18.6950
 0.4410	18.7450
 0.4420	18.8070
 0.4430	18.8830
 0.4440	18.9650
 0.4450	19.0340
 0.4460	19.0820
 0.4470	19.1220
 0.4480	19.1700
 0.4490	19.2330
 0.4500	19.2810
 0.4510	19.3370
 0.4520	19.4150
 0.4530	19.4470
 0.4540	19.4900
 0.4550	19.5490
 0.4560	19.5950
 0.4570	19.6330
 0.4580	19.6780
 0.4590	19.7330
 0.4600	19.7760
 0.4610	19.8140
 0.4620	19.8550
 0.4630	19.8990
 0.4640	19.9480
 0.4650	19.9850
 0.4660	20.0150
 0.4670	20.0660
 0.4680	20.0920
 0.4690	20.1200
 0.4700	20.1700
 0.4710	20.2060
 0.4720	20.2390
 0.4730	20.2680
 0.4740	20.2900
 0.4750	20.3350
 0.4760	20.3680
 0.4770	20.3780
 0.4780	20.4090
 0.4790	20.4400
 0.4800	20.4660
 0.4810	20.4850
 0.4820	20.5090
 0.4830	20.5370
 0.4840	20.5680
 0.4850	20.6010
 0.4860	20.6270
 0.4870	20.6500
 0.4880	20.6750
 0.4890	20.7050
 0.4900	20.7440
 0.4910	20.7870
 0.4920	20.8260
 0.4930	20.8520
 0.4940	20.8870
 0.4950	20.9360
 0.4960	20.9780
 0.4970	21.0290
 0.4980	21.0880
 0.4990	21.1460
 0.5000	21.1890
 0.5010	21.2400
 0.5020	21.3090
 0.5030	21.3880
 0.5040	21.4480
 0.5050	21.5080
 0.5060	21.5850
 0.5070	21.6740
 0.5080	21.7670
 0.5090	21.8590
 0.5100	21.9480
 0.5110	22.0510
 0.5120	22.1610
 0.5130	22.2720
 0.5140	22.3880
 0.5150	22.5000
 0.5160	22.6110
 0.5170	22.7240
 0.5180	22.8520
 0.5190	22.9850
 0.5200	23.1170
 0.5210	23.2410
 0.5220	23.3630
 0.5230	23.4890
 0.5240	23.6190
 0.5250	23.7510
 0.5260	23.8780
 0.5270	23.9990
 0.5280	24.1180
 0.5290	24.2320
 0.5300	24.3480
 0.5310	24.4680
 0.5320	24.5840
 0.5330	24.6920
 0.5340	24.8010
 0.5350	24.9180
 0.5360	25.0230
 0.5370	25.1170
 0.5380	25.2070
 0.5390	25.3060
 0.5400	25.4100
 0.5410	25.5070
 0.5420	25.5920
 0.5430	25.6870
 0.5440	25.7720
 0.5450	25.8520
 0.5460	25.9340
 0.5470	26.0110
 0.5480	26.0910
 0.5490	26.1740
 0.5500	26.2490
 0.5510	26.3260
 0.5520	26.3990
 0.5530	26.4660
 0.5540	26.5340
 0.5550	26.6060
 0.5560	26.6770
 0.5570	26.7370
 0.5580	26.7860
 0.5590	26.8360
 0.5600	26.8860
 0.5610	26.9140
 0.5620	26.9600
 0.5630	27.0170
 0.5640	27.0620
 0.5650	27.0990
 0.5660	27.1260
 0.5670	27.1490
 0.5680	27.1850
 0.5690	27.2040
 0.5700	27.2160
 0.5710	27.2380
 0.5720	27.2640
 0.5730	27.2960
 0.5740	27.3350
 0.5750	27.3700
 0.5760	27.3990
 0.5770	27.4150
 0.5780	27.4190
 0.5790	27.4250
 0.5800	27.4250
 0.5810	27.4310
 0.5820	27.4560
 0.5830	27.4960
 0.5840	27.5350
 0.5850	27.5650
 0.5860	27.5840
 0.5870	27.5860
 0.5880	27.5880
 0.5890	27.6020
 0.5900	27.6150
 0.5910	27.6260
 0.5920	27.6420
 0.5930	27.6750
 0.5940	27.7160
 0.5950	27.7570
 0.5960	27.7930
 0.5970	27.8130
 0.5980	27.8300
 0.5990	27.8450
 0.6000	27.8570
 0.6010	27.8810
 0.6020	27.9030
 0.6030	27.9180
 0.6040	27.9270
 0.6050	27.9420
 0.6060	27.9560
 0.6070	27.9620
 0.6080	27.9650
 0.6090	27.9760
 0.6100	27.9910
 0.6110	28.0000
 0.6120	28.0010
 0.6130	28.0060
 0.6140	28.0210
 0.6150	28.0340
 0.6160	28.0420
 0.6170	28.0480
 0.6180	28.0560
 0.6190	28.0780
 0.6200	28.0920
 0.6210	28.1010
 0.6220	28.1190
 0.6230	28.1450
 0.6240	28.1730
 0.6250	28.2030
 0.6260	28.2300
 0.6270	28.2570
 0.6280	28.2920
 0.6290	28.3360
 0.6300	28.3560
 0.6310	28.3780
 0.6320	28.4050
 0.6330	28.4080
 0.6340	28.4220
 0.6350	28.4270
 0.6360	28.4030
 0.6370	28.3700
 0.6380	28.3240
 0.6390	28.2690
 0.6400	28.2100
 0.6410	28.1250
 0.6420	28.0350
 0.6430	27.9510
 0.6440	27.8600
 0.6450	27.7720
 0.6460	27.6870
 0.6470	27.6030
 0.6480	27.5410
 0.6490	27.4900
 0.6500	27.4470
 0.6510	27.4120
 0.6520	27.3930
 0.6530	27.3760
 0.6540	27.3580
 0.6550	27.3480
 0.6560	27.3290
 0.6570	27.3060
 0.6580	27.2910
 0.6590	27.2700
 0.6600	27.2320
 0.6610	27.1770
 0.6620	27.1120
 0.6630	27.0540
 0.6640	26.9870
 0.6650	26.9050
 0.6660	26.8520
 0.6670	26.8020
 0.6680	26.7490
 0.6690	26.6960
 0.6700	26.6600
 0.6710	26.6390
 0.6720	26.6270
 0.6730	26.6120
 0.6740	26.6120
 0.6750	26.6240
 0.6760	26.6450
 0.6770	26.6790
 0.6780	26.7160
 0.6790	26.7620
 0.6800	26.8370
 0.6810	26.9300
 0.6820	27.0510
 0.6830	27.2100
 0.6840	27.4090
 0.6850	27.6450
 0.6860	27.9190
 0.6870	28.2310
 0.6880	28.5890
 0.6890	28.9860
 0.6900	29.4150
 0.6910	29.8660
 0.6920	30.3320
 0.6930	30.8040
 0.6940	31.2770
 0.6950	31.7690
 0.6960	32.2570
 0.6970	32.7270
 0.6980	33.1740
 0.6990	33.6180
 0.7000	34.0470
 0.7010	34.4560
 0.7020	34.8430
 0.7030	35.2140
 0.7040	35.5660
 0.7050	35.8930
 0.7060	36.1950
 0.7070	36.4930
 0.7080	36.7770
 0.7090	37.0250
 0.7100	37.2500
 0.7110	37.4720
 0.7120	37.6900
 0.7130	37.8820
 0.7140	38.0560
 0.7150	38.2200
 0.7160	38.3800
 0.7170	38.5350
 0.7180	38.6840
 0.7190	38.8250
 0.7200	38.9550
 0.7210	39.0780
 0.7220	39.1980
 0.7230	39.3100
 0.7240	39.3990
 0.7250	39.5100
 0.7260	39.6260
 0.7270	39.7250
 0.7280	39.7950
 0.7290	39.8840
 0.7300	39.9840
 0.7310	40.0640
 0.7320	40.1470
 0.7330	40.2240
 0.7340	40.2980
 0.7350	40.3840
 0.7360	40.4500
 0.7370	40.5200
 0.7380	40.6060
 0.7390	40.6630
 0.7400	40.7270
 0.7410	40.7990
 0.7420	40.8690
 0.7430	40.9350
 0.7440	40.9970
 0.7450	41.0520
 0.7460	41.1010
 0.7470	41.1710
 0.7480	41.2450
 0.7490	41.3050
 0.7500	41.3510
 0.7510	41.4070
 0.7520	41.4640
 0.7530	41.5090
 0.7540	41.5690
 0.7550	41.6330
 0.7560	41.6920
 0.7570	41.7390
 0.7580	41.7750
 0.7590	41.8320
 0.7600	41.9060
 0.7610	41.9340
 0.7620	41.9750
 0.7630	42.0330
 0.7640	42.0940
 0.7650	42.1370
 0.7660	42.1790
 0.7670	42.2260
 0.7680	42.2730
 0.7690	42.3260
 0.7700	42.3730
 0.7710	42.4150
 0.7720	42.4720
 0.7730	42.5170
 0.7740	42.5560
 0.7750	42.5990
 0.7760	42.6440
 0.7770	42.6960
 0.7780	42.7500
 0.7790	42.7960
 0.7800	42.8390
 0.7810	42.8860
 0.7820	42.9370
 0.7830	42.9890
 0.7840	43.0400
 0.7850	43.0840
 0.7860	43.1230
 0.7870	43.1740
 0.7880	43.2170
 0.7890	43.2540
 0.7900	43.2950
 0.7910	43.3630
 0.7920	43.4180
 0.7930	43.4520
 0.7940	43.4880
 0.7950	43.5270
 0.7960	43.5840
 0.7970	43.6560
 0.7980	43.7140
 0.7990	43.7510
 0.8000	43.7830
 0.8010	43.8290
 0.8020	43.8950
 0.8030	43.9550
 0.8040	44.0040
 0.8050	44.0440
 0.8060	44.0840
 0.8070	44.1360
 0.8080	44.1890
 0.8090	44.2180
 0.8100	44.2780
 0.8110	44.3390
 0.8120	44.3830
 0.8130	44.4270
 0.8140	44.4780
 0.8150	44.5350
 0.8160	44.5890
 0.8170	44.6340
 0.8180	44.6800
 0.8190	44.7300
 0.8200	44.7840
 0.8210	44.8290
 0.8220	44.8730
 0.8230	44.9220
 0.8240	44.9720
 0.8250	45.0190
 0.8260	45.0640
 0.8270	45.1080
 0.8280	45.1530
 0.8290	45.2000
 0.8300	45.2510
 0.8310	45.3040
 0.8320	45.3470
 0.8330	45.3800
 0.8340	45.4170
 0.8350	45.4750
 0.8360	45.5370
 0.8370	45.5720
 0.8380	45.5970
 0.8390	45.6570
 0.8400	45.7190
 0.8410	45.7580
 0.8420	45.7840
 0.8430	45.8440
 0.8440	45.8960
 0.8450	45.9460
 0.8460	45.9980
 0.8470	46.0360
 0.8480	46.0700
 0.8490	46.1120
 0.8500	46.1650
 0.8510	46.2110
 0.8520	46.2630
 0.8530	46.3050
 0.8540	46.3130
 0.8550	46.3650
 0.8560	46.4300
 0.8570	46.4860
 0.8580	46.5330
 0.8590	46.5670
 0.8600	46.5920
 0.8610	46.6230
 0.8620	46.6940
 0.8630	46.7450
 0.8640	46.7790
 0.8650	46.8140
 0.8660	46.8710
 0.8670	46.9030
 0.8680	46.9290
 0.8690	46.9760
 0.8700	47.0000
 0.8710	47.0370
 0.8720	47.0920
 0.8730	47.1410
 0.8740	47.1800
 0.8750	47.2290
 0.8760	47.2840
 0.8770	47.3230
 0.8780	47.3530
 0.8790	47.3920
 0.8800	47.4470
 0.8810	47.4980
 0.8820	47.5340
 0.8830	47.5640
 0.8840	47.5970
 0.8850	47.6330
 0.8860	47.6940
 0.8870	47.7420
 0.8880	47.7480
 0.8890	47.7890
 0.8900	47.8300
 0.8910	47.8670
 0.8920	47.9100
 0.8930	47.9530
 0.8940	47.9950
 0.8950	48.0330
 0.8960	48.0630
 0.8970	48.1100
 0.8980	48.1440
 0.8990	48.1640
 0.9000	48.2030
 0.9010	48.2530
 0.9020	48.2960
 0.9030	48.3270
 0.9040	48.3600
 0.9050	48.3990
 0.9060	48.4390
 0.9070	48.4780
 0.9080	48.5190
 0.9090	48.5330
 0.9100	48.5550
 0.9110	48.6120
 0.9120	48.6670
 0.9130	48.7060
 0.9140	48.7360
 0.9150	48.7710
 0.9160	48.8130
 0.9170	48.8540
 0.9180	48.8860
 0.9190	48.9090
 0.9200	48.9520
 0.9210	49.0110
 0.9220	49.0800
 0.9230	49.1440
 0.9240	49.1630
 0.9250	49.1720
 0.9260	49.1950
 0.9270	49.2350
 0.9280	49.2780
 0.9290	49.3070
 0.9300	49.3280
 0.9310	49.3660
 0.9320	49.4190
 0.9330	49.4670
 0.9340	49.4970
 0.9350	49.5050
 0.9360	49.5180
 0.9370	49.5340
 0.9380	49.5590
 0.9390	49.6170
 0.9400	49.6660
 0.9410	49.7000
 0.9420	49.7200
 0.9430	49.7180
 0.9440	49.7270
 0.9450	49.7600
 0.9460	49.8070
 0.9470	49.8240
 0.9480	49.8400
 0.9490	49.8470
 0.9500	49.8440
 0.9510	49.8620
 0.9520	49.8710
 0.9530	49.8750
 0.9540	49.8840
 0.9550	49.9070
 0.9560	49.9050
 0.9570	49.8940
 0.9580	49.8950
 0.9590	49.9060
 0.9600	49.8910
 0.9610	49.8870
 0.9620	49.9320
 0.9630	49.9740
 0.9640	49.9760
 0.9650	49.9810
 0.9660	50.0330
 0.9670	50.0550
 0.9680	50.0690
 0.9690	50.0890
 0.9700	50.1180
 0.9710	50.1440
 0.9720	50.1540
 0.9730	50.1610
 0.9740	50.1850
 0.9750	50.2320
 0.9760	50.2630
 0.9770	50.2980
 0.9780	50.3640
 0.9790	50.3720
 0.9800	50.3780
 0.9810	50.4210
 0.9820	50.4980
 0.9830	50.5000
 0.9840	50.4870
 0.9850	50.5290
 0.9860	50.6470
 0.9870	50.6640
 0.9880	50.6930
 0.9890	50.7340
 0.9900	50.7420
 0.9910	50.7950
 0.9920	50.8460
 0.9930	50.8780
 0.9940	50.9040
 0.9950	50.9630
 0.9960	51.0110
 0.9970	51.0490
 0.9980	51.1000
 0.9990	51.1580
 1.0000	51.3170
 1.0010	51.5780
 1.0020	51.7560
 1.0030	51.7960
 1.0040	51.8360
 1.0050	51.8690
 1.0060	51.8970
 1.0070	51.9290
 1.0080	51.9660
 1.0090	52.0090
 1.0100	52.0500
 1.0110	52.0930
 1.0120	52.1360
 1.0130	52.1780
 1.0140	52.2230
 1.0150	52.2730
 1.0160	52.3170
 1.0170	52.3610
 1.0180	52.3990
 1.0190	52.4310
 1.0200	52.4640
 1.0210	52.4950
 1.0220	52.5320
 1.0230	52.5700
 1.0240	52.6110
 1.0250	52.6500
 1.0260	52.6890
 1.0270	52.7270
 1.0280	52.7640
 1.0290	52.8020
 1.0300	52.8390
 1.0310	52.8790
 1.0320	52.9220
 1.0330	52.9610
 1.0340	52.9940
 1.0350	53.0250
 1.0360	53.0540
 1.0370	53.0820
 1.0380	53.1140
 1.0390	53.1540
 1.0400	53.1830
 1.0410	53.2040
 1.0420	53.2310
 1.0430	53.2550
 1.0440	53.2830
 1.0450	53.3170
 1.0460	53.3480
 1.0470	53.3770
 1.0480	53.4060
 1.0490	53.4360
 1.0500	53.4650
 1.0510	53.4910
 1.0520	53.5200
 1.0530	53.5480
 1.0540	53.5740
 1.0550	53.6040
 1.0560	53.6360
 1.0570	53.6640
 1.0580	53.6910
 1.0590	53.7190
 1.0600	53.7420
 1.0610	53.7700
 1.0620	53.8030
 1.0630	53.8290
 1.0640	53.8460
 1.0650	53.8710
 1.0660	53.8980
 1.0670	53.9200
 1.0680	53.9410
 1.0690	53.9650
 1.0700	53.9890
 1.0710	54.0080
 1.0720	54.0310
 1.0730	54.0570
 1.0740	54.0820
 1.0750	54.1060
 1.0760	54.1270
 1.0770	54.1470
 1.0780	54.1680
 1.0790	54.1840
 1.0800	54.2050
 1.0810	54.2380
 1.0820	54.2610
 1.0830	54.2790
 1.0840	54.2950
 1.0850	54.3100
 1.0860	54.3150
 1.0870	54.3270
 1.0880	54.3380
 1.0890	54.3510
 1.0900	54.3670
 1.0910	54.3790
 1.0920	54.3940
 1.0930	54.4050
 1.0940	54.4120
 1.0950	54.4210
 1.0960	54.4310
 1.0970	54.4390
 1.0980	54.4430
 1.0990	54.4520
 1.1000	54.4650
 1.1010	54.4740
 1.1020	54.4840
 1.1030	54.4950
 1.1040	54.5020
 1.1050	54.5050
 1.1060	54.5110
 1.1070	54.5190
 1.1080	54.5240
 1.1090	54.5290
 1.1100	54.5290
 1.1110	54.5230
 1.1120	54.5240
 1.1130	54.5250
 1.1140	54.5270
 1.1150	54.5370
 1.1160	54.5390
 1.1170	54.5410
 1.1180	54.5350
 1.1190	54.5230
 1.1200	54.5080
 1.1210	54.4940
 1.1220	54.4760
 1.1230	54.4650
 1.1240	54.4540
 1.1250	54.4320
 1.1260	54.4090
 1.1270	54.3780
 1.1280	54.3360
 1.1290	54.2970
 1.1300	54.2580
 1.1310	54.2100
 1.1320	54.1610
 1.1330	54.1010
 1.1340	54.0280
 1.1350	53.9540
 1.1360	53.8740
 1.1370	53.7890
 1.1380	53.7080
 1.1390	53.6250
 1.1400	53.5370
 1.1410	53.4470
 1.1420	53.3510
 1.1430	53.2540
 1.1440	53.1580
 1.1450	53.0600
 1.1460	52.9650
 1.1470	52.8700
 1.1480	52.7790
 1.1490	52.6890
 1.1500	52.6060
 1.1510	52.5270
 1.1520	52.4500
 1.1530	52.3760
 1.1540	52.3080
 1.1550	52.2420
 1.1560	52.1790
 1.1570	52.1230
 1.1580	52.0690
 1.1590	52.0170
 1.1600	51.9710
 1.1610	51.9320
 1.1620	51.8930
 1.1630	51.8560
 1.1640	51.8200
 1.1650	51.7840
 1.1660	51.7460
 1.1670	51.7120
 1.1680	51.6800
 1.1690	51.6490
 1.1700	51.6240
 1.1710	51.5940
 1.1720	51.5620
 1.1730	51.5310
 1.1740	51.5020
 1.1750	51.4680
 1.1760	51.4310
 1.1770	51.3950
 1.1780	51.3540
 1.1790	51.3130
 1.1800	51.2780
 1.1810	51.2430
 1.1820	51.2090
 1.1830	51.1760
 1.1840	51.1440
 1.1850	51.1170
 1.1860	51.0970
 1.1870	51.0810
 1.1880	51.0700
 1.1890	51.0660
 1.1900	51.0650
 1.1910	51.0690
 1.1920	51.0770
 1.1930	51.0910
 1.1940	51.1090
 1.1950	51.1300
 1.1960	51.1540
 1.1970	51.1810
 1.1980	51.2070
 1.1990	51.2340
 1.2000	51.2650
 1.2010	51.2970
 1.2020	51.3310
 1.2030	51.3620
 1.2040	51.3960
 1.2050	51.4320
 1.2060	51.4720
 1.2070	51.5190
 1.2080	51.5650
 1.2090	51.6150
 1.2100	51.6700
 1.2110	51.7220
 1.2120	51.7740
 1.2130	51.8310
 1.2140	51.8850
 1.2150	51.9460
 1.2160	52.0140
 1.2170	52.0850
 1.2180	52.1560
 1.2190	52.2270
 1.2200	52.2990
 1.2210	52.3700
 1.2220	52.4390
 1.2230	52.5070
 1.2240	52.5770
 1.2250	52.6440
 1.2260	52.7120
 1.2270	52.7830
 1.2280	52.8480
 1.2290	52.9100
 1.2300	52.9740
 1.2310	53.0320
 1.2320	53.0910
 1.2330	53.1510
 1.2340	53.2070
 1.2350	53.2590
 1.2360	53.3090
 1.2370	53.3570
 1.2380	53.4040
 1.2390	53.4510
 1.2400	53.5000
 1.2410	53.5450
 1.2420	53.5860
 1.2430	53.6260
 1.2440	53.6630
 1.2450	53.7040
 1.2460	53.7450
 1.2470	53.7790
 1.2480	53.8120
 1.2490	53.8440
 1.2500	53.8760
 1.2510	53.9120
 1.2520	53.9440
 1.2530	53.9760
 1.2540	54.0080
 1.2550	54.0350
 1.2560	54.0660
 1.2570	54.0980
 1.2580	54.1240
 1.2590	54.1520
 1.2600	54.1820
 1.2610	54.2070
 1.2620	54.2300
 1.2630	54.2540
 1.2640	54.2730
 1.2650	54.2890
 1.2660	54.3040
 1.2670	54.3190
 1.2680	54.3350
 1.2690	54.3500
 1.2700	54.3660
 1.2710	54.3800
 1.2720	54.3930
 1.2730	54.4070
 1.2740	54.4170
 1.2750	54.4240
 1.2760	54.4280
 1.2770	54.4320
 1.2780	54.4350
 1.2790	54.4410
 1.2800	54.4500
 1.2810	54.4540
 1.2820	54.4590
 1.2830	54.4620
 1.2840	54.4630
 1.2850	54.4670
 1.2860	54.4640
 1.2870	54.4610
 1.2880	54.4580
 1.2890	54.4530
 1.2900	54.4450
 1.2910	54.4430
 1.2920	54.4380
 1.2930	54.4310
 1.2940	54.4250
 1.2950	54.4150
 1.2960	54.4050
 1.2970	54.3950
 1.2980	54.3840
 1.2990	54.3710
 1.3000	54.3570
 1.3010	54.3430
 1.3020	54.3260
 1.3030	54.3070
 1.3040	54.2870
 1.3050	54.2660
 1.3060	54.2420
 1.3070	54.2120
 1.3080	54.1790
 1.3090	54.1380
 1.3100	54.0970
 1.3110	54.0560
 1.3120	54.0130
 1.3130	53.9720
 1.3140	53.9250
 1.3150	53.8700
 1.3160	53.8140
 1.3170	53.7570
 1.3180	53.6930
 1.3190	53.6280
 1.3200	53.5640
 1.3210	53.4950
 1.3220	53.4200
 1.3230	53.3410
 1.3240	53.2560
 1.3250	53.1690
 1.3260	53.0830
 1.3270	52.9960
 1.3280	52.9080
 1.3290	52.8180
 1.3300	52.7260
 1.3310	52.6260
 1.3320	52.5250
 1.3330	52.4230
 1.3340	52.3150
 1.3350	52.2090
 1.3360	52.1040
 1.3370	51.9950
 1.3380	51.8860
 1.3390	51.7750
 1.3400	51.6610
 1.3410	51.5510
 1.3420	51.4390
 1.3430	51.3250
 1.3440	51.2140
 1.3450	51.1020
 1.3460	50.9860
 1.3470	50.8750
 1.3480	50.7660
 1.3490	50.6570
 1.3500	50.5510
 1.3510	50.4430
 1.3520	50.3330
 1.3530	50.2240
 1.3540	50.1090
 1.3550	49.9940
 1.3560	49.8800
 1.3570	49.7640
 1.3580	49.6500
 1.3590	49.5370
 1.3600	49.4220
 1.3610	49.3050
 1.3620	49.1890
 1.3630	49.0760
 1.3640	48.9610
 1.3650	48.8410
 1.3660	48.7190
 1.3670	48.5880
 1.3680	48.4490
 1.3690	48.3090
 1.3700	48.1600
 1.3710	48.0050
 1.3720	47.8430
 1.3730	47.6690
 1.3740	47.4890
 1.3750	47.2960
 1.3760	47.0900
 1.3770	46.8760
 1.3780	46.6480
 1.3790	46.4080
 1.3800	46.1570
 1.3810	45.8920
 1.3820	45.6160
 1.3830	45.3260
 1.3840	45.0250
 1.3850	44.7130
 1.3860	44.3910
 1.3870	44.0580
 1.3880	43.7210
 1.3890	43.3760
 1.3900	43.0250
 1.3910	42.6750
 1.3920	42.3210
 1.3930	41.9660
 1.3940	41.6130
 1.3950	41.2560
 1.3960	40.9010
 1.3970	40.5510
 1.3980	40.2020
 1.3990	39.8630
 1.4000	39.5270
 1.4010	39.1950
 1.4020	38.8760
 1.4030	38.5640
 1.4040	38.2620
 1.4050	37.9720
 1.4060	37.6890
 1.4070	37.4180
 1.4080	37.1600
 1.4090	36.9110
 1.4100	36.6780
 1.4110	36.4580
 1.4120	36.2510
 1.4130	36.0550
 1.4140	35.8710
 1.4150	35.6990
 1.4160	35.5380
 1.4170	35.3890
 1.4180	35.2500
 1.4190	35.1180
 1.4200	34.9970
 1.4210	34.8850
 1.4220	34.7810
 1.4230	34.6860
 1.4240	34.6000
 1.4250	34.5190
 1.4260	34.4480
 1.4270	34.3790
 1.4280	34.3160
 1.4290	34.2580
 1.4300	34.2040
 1.4310	34.1580
 1.4320	34.1200
 1.4330	34.0860
 1.4340	34.0570
 1.4350	34.0310
 1.4360	34.0100
 1.4370	33.9920
 1.4380	33.9770
 1.4390	33.9660
 1.4400	33.9590
 1.4410	33.9530
 1.4420	33.9490
 1.4430	33.9490
 1.4440	33.9480
 1.4450	33.9480
 1.4460	33.9510
 1.4470	33.9540
 1.4480	33.9610
 1.4490	33.9700
 1.4500	33.9790
 1.4510	33.9900
 1.4520	34.0020
 1.4530	34.0170
 1.4540	34.0330
 1.4550	34.0510
 1.4560	34.0710
 1.4570	34.0910
 1.4580	34.1120
 1.4590	34.1370
 1.4600	34.1640
 1.4610	34.1930
 1.4620	34.2280
 1.4630	34.2630
 1.4640	34.2980
 1.4650	34.3370
 1.4660	34.3800
 1.4670	34.4230
 1.4680	34.4720
 1.4690	34.5240
 1.4700	34.5750
 1.4710	34.6290
 1.4720	34.6890
 1.4730	34.7530
 1.4740	34.8210
 1.4750	34.8910
 1.4760	34.9620
 1.4770	35.0320
 1.4780	35.1040
 1.4790	35.1800
 1.4800	35.2550
 1.4810	35.3340
 1.4820	35.4150
 1.4830	35.4930
 1.4840	35.5720
 1.4850	35.6510
 1.4860	35.7310
 1.4870	35.8130
 1.4880	35.8960
 1.4890	35.9780
 1.4900	36.0600
 1.4910	36.1410
 1.4920	36.2250
 1.4930	36.3130
 1.4940	36.3990
 1.4950	36.4860
 1.4960	36.5710
 1.4970	36.6530
 1.4980	36.7370
 1.4990	36.8210
 1.5000	36.9040
 1.5010	36.9880
 1.5020	37.0710
 1.5030	37.1540
 1.5040	37.2370
 1.5050	37.3220
 1.5060	37.4060
 1.5070	37.4920
 1.5080	37.5770
 1.5090	37.6620
 1.5100	37.7450
 1.5110	37.8260
 1.5120	37.9070
 1.5130	37.9880
 1.5140	38.0680
 1.5150	38.1460
 1.5160	38.2230
 1.5170	38.2990
 1.5180	38.3750
 1.5190	38.4510
 1.5200	38.5260
 1.5210	38.5970
 1.5220	38.6690
 1.5230	38.7410
 1.5240	38.8110
 1.5250	38.8830
 1.5260	38.9520
 1.5270	39.0180
 1.5280	39.0850
 1.5290	39.1500
 1.5300	39.2130
 1.5310	39.2760
 1.5320	39.3390
 1.5330	39.4010
 1.5340	39.4630
 1.5350	39.5260
 1.5360	39.5870
 1.5370	39.6460
 1.5380	39.7060
 1.5390	39.7650
 1.5400	39.8230
 1.5410	39.8810
 1.5420	39.9380
 1.5430	39.9960
 1.5440	40.0550
 1.5450	40.1140
 1.5460	40.1750
 1.5470	40.2330
 1.5480	40.2910
 1.5490	40.3480
 1.5500	40.4010
 1.5510	40.4560
 1.5520	40.5090
 1.5530	40.5650
 1.5540	40.6220
 1.5550	40.6760
 1.5560	40.7270
 1.5570	40.7780
 1.5580	40.8260
 1.5590	40.8760
 1.5600	40.9280
 1.5610	40.9770
 1.5620	41.0270
 1.5630	41.0780
 1.5640	41.1270
 1.5650	41.1740
 1.5660	41.2210
 1.5670	41.2630
 1.5680	41.3100
 1.5690	41.3570
 1.5700	41.4020
 1.5710	41.4490
 1.5720	41.4940
 1.5730	41.5380
 1.5740	41.5860
 1.5750	41.6340
 1.5760	41.6830
 1.5770	41.7310
 1.5780	41.7740
 1.5790	41.8160
 1.5800	41.8560
 1.5810	41.8980
 1.5820	41.9430
 1.5830	41.9870
 1.5840	42.0330
 1.5850	42.0790
 1.5860	42.1240
 1.5870	42.1730
 1.5880	42.2210
 1.5890	42.2650
 1.5900	42.3080
 1.5910	42.3510
 1.5920	42.3950
 1.5930	42.4410
 1.5940	42.4860
 1.5950	42.5320
 1.5960	42.5800
 1.5970	42.6290
 1.5980	42.6770
 1.5990	42.7250
 1.6000	42.7690
 1.6010	42.8110
 1.6020	42.8560
 1.6030	42.9020
 1.6040	42.9460
 1.6050	42.9910
 1.6060	43.0360
 1.6070	43.0760
 1.6080	43.1150
 1.6090	43.1510
 1.6100	43.1870
 1.6110	43.2240
 1.6120	43.2580
 1.6130	43.2940
 1.6140	43.3310
 1.6150	43.3640
 1.6160	43.3990
 1.6170	43.4360
 1.6180	43.4670
 1.6190	43.4970
 1.6200	43.5270
 1.6210	43.5570
 1.6220	43.5840
 1.6230	43.6060
 1.6240	43.6270
 1.6250	43.6450
 1.6260	43.6610
 1.6270	43.6810
 1.6280	43.7000
 1.6290	43.7180
 1.6300	43.7360
 1.6310	43.7550
 1.6320	43.7710
 1.6330	43.7900
 1.6340	43.8150
 1.6350	43.8350
 1.6360	43.8520
 1.6370	43.8740
 1.6380	43.8950
 1.6390	43.9160
 1.6400	43.9450
 1.6410	43.9650
 1.6420	43.9820
 1.6430	43.9980
 1.6440	44.0100
 1.6450	44.0230
 1.6460	44.0320
 1.6470	44.0410
 1.6480	44.0470
 1.6490	44.0480
 1.6500	44.0470
 1.6510	44.0400
 1.6520	44.0280
 1.6530	44.0190
 1.6540	44.0070
 1.6550	43.9920
 1.6560	43.9750
 1.6570	43.9520
 1.6580	43.9260
 1.6590	43.8970
 1.6600	43.8650
 1.6610	43.8320
 1.6620	43.7970
 1.6630	43.7630
 1.6640	43.7250
 1.6650	43.6880
 1.6660	43.6470
 1.6670	43.5980
 1.6680	43.5430
 1.6690	43.4790
 1.6700	43.4060
 1.6710	43.3300
 1.6720	43.2540
 1.6730	43.1740
 1.6740	43.0880
 1.6750	42.9950
 1.6760	42.8940
 1.6770	42.7850
 1.6780	42.6710
 1.6790	42.5530
 1.6800	42.4330
 1.6810	42.3110
 1.6820	42.1870
 1.6830	42.0600
 1.6840	41.9330
 1.6850	41.8030
 1.6860	41.6720
 1.6870	41.5420
 1.6880	41.4130
 1.6890	41.2820
 1.6900	41.1570
 1.6910	41.0330
 1.6920	40.9130
 1.6930	40.7970
 1.6940	40.6850
 1.6950	40.5760
 1.6960	40.4740
 1.6970	40.3800
 1.6980	40.2870
 1.6990	40.1970
 1.7000	40.1140
 1.7010	40.0330
 1.7020	39.9600
 1.7030	39.8950
 1.7040	39.8320
 1.7050	39.7770
 1.7060	39.7190
 1.7070	39.6620
 1.7080	39.6070
 1.7090	39.5500
 1.7100	39.4980
 1.7110	39.4490
 1.7120	39.4010
 1.7130	39.3530
 1.7140	39.3030
 1.7150	39.2560
 1.7160	39.2120
 1.7170	39.1670
 1.7180	39.1270
 1.7190	39.0920
 1.7200	39.0550
 1.7210	39.0260
 1.7220	38.9980
 1.7230	38.9710
 1.7240	38.9490
 1.7250	38.9300
 1.7260	38.9160
 1.7270	38.9070
 1.7280	38.9000
 1.7290	38.8990
 1.7300	38.9040
 1.7310	38.9160
 1.7320	38.9390
 1.7330	38.9620
 1.7340	38.9920
 1.7350	39.0190
 1.7360	39.0500
 1.7370	39.0730
 1.7380	39.0950
 1.7390	39.1100
 1.7400	39.1210
 1.7410	39.1290
 1.7420	39.1330
 1.7430	39.1320
 1.7440	39.1260
 1.7450	39.1150
 1.7460	39.0960
 1.7470	39.0810
 1.7480	39.0640
 1.7490	39.0510
 1.7500	39.0400
 1.7510	39.0310
 1.7520	39.0230
 1.7530	39.0160
 1.7540	39.0100
 1.7550	39.0060
 1.7560	39.0020
 1.7570	39.0050
 1.7580	39.0080
 1.7590	39.0140
 1.7600	39.0250
 1.7610	39.0360
 1.7620	39.0540
 1.7630	39.0770
 1.7640	39.1030
 1.7650	39.1340
 1.7660	39.1650
 1.7670	39.1960
 1.7680	39.2290
 1.7690	39.2640
 1.7700	39.2980
 1.7710	39.3340
 1.7720	39.3670
 1.7730	39.4000
 1.7740	39.4280
 1.7750	39.4480
 1.7760	39.4730
 1.7770	39.4960
 1.7780	39.5210
 1.7790	39.5520
 1.7800	39.5760
 1.7810	39.5960
 1.7820	39.6180
 1.7830	39.6390
 1.7840	39.6560
 1.7850	39.6710
 1.7860	39.6860
 1.7870	39.6960
 1.7880	39.7060
 1.7890	39.7190
 1.7900	39.7310
 1.7910	39.7450
 1.7920	39.7650
 1.7930	39.7810
 1.7940	39.7950
 1.7950	39.8100
 1.7960	39.8260
 1.7970	39.8390
 1.7980	39.8490
 1.7990	39.8620
 1.8000	39.8710
 1.8010	39.8840
 1.8020	39.9020
 1.8030	39.9220
 1.8040	39.9450
 1.8050	39.9630
 1.8060	39.9810
 1.8070	39.9960
 1.8080	40.0030
 1.8090	40.0170
 1.8100	40.0350
 1.8110	40.0490
 1.8120	40.0640
 1.8130	40.0760
 1.8140	40.0860
 1.8150	40.0980
 1.8160	40.1130
 1.8170	40.1260
 1.8180	40.1400
 1.8190	40.1600
 1.8200	40.1760
 1.8210	40.1950
 1.8220	40.2140
 1.8230	40.2330
 1.8240	40.2480
 1.8250	40.2640
 1.8260	40.2750
 1.8270	40.2800
 1.8280	40.2840
 1.8290	40.2840
 1.8300	40.5440
 1.8310	41.0620
 1.8320	41.3160
 1.8330	41.3070
 1.8340	41.3020
 1.8350	41.2970
 1.8360	41.2890
 1.8370	41.2880
 1.8380	41.2780
 1.8390	41.2660
 1.8400	41.2560
 1.8410	41.2380
 1.8420	41.2150
 1.8430	41.1870
 1.8440	41.1610
 1.8450	41.1220
 1.8460	41.0790
 1.8470	41.0410
 1.8480	40.9880
 1.8490	40.9300
 1.8500	40.8700
 1.8510	40.8080
 1.8520	40.7380
 1.8530	40.6670
 1.8540	40.5910
 1.8550	40.5040
 1.8560	40.4080
 1.8570	40.2990
 1.8580	40.1780
 1.8590	40.0510
 1.8600	39.9160
 1.8610	39.7710
 1.8620	39.6160
 1.8630	39.4540
 1.8640	39.2770
 1.8650	39.0890
 1.8660	38.8920
 1.8670	38.6780
 1.8680	38.4520
 1.8690	38.2100
 1.8700	37.9540
 1.8710	37.6840
 1.8720	37.4080
 1.8730	37.1210
 1.8740	36.8270
 1.8750	36.5280
 1.8760	36.2150
 1.8770	35.8980
 1.8780	35.5750
 1.8790	35.2370
 1.8800	34.9010
 1.8810	34.5630
 1.8820	34.2170
 1.8830	33.8670
 1.8840	33.5190
 1.8850	33.1600
 1.8860	32.8040
 1.8870	32.4450
 1.8880	32.0790
 1.8890	31.7230
 1.8900	31.3750
 1.8910	31.0350
 1.8920	30.7010
 1.8930	30.3790
 1.8940	30.0610
 1.8950	29.7540
 1.8960	29.4640
 1.8970	29.1870
 1.8980	28.9290
 1.8990	28.6800
 1.9000	28.4360
 1.9010	28.1960
 1.9020	27.9730
 1.9030	27.7610
 1.9040	27.5640
 1.9050	27.3830
 1.9060	27.2160
 1.9070	27.0650
 1.9080	26.9230
 1.9090	26.7910
 1.9100	26.6730
 1.9110	26.5630
 1.9120	26.4600
 1.9130	26.3700
 1.9140	26.2960
 1.9150	26.2270
 1.9160	26.1660
 1.9170	26.1140
 1.9180	26.0630
 1.9190	26.0140
 1.9200	25.9720
 1.9210	25.9390
 1.9220	25.9110
 1.9230	25.8910
 1.9240	25.8770
 1.9250	25.8730
 1.9260	25.8670
 1.9270	25.8720
 1.9280	25.8810
 1.9290	25.8900
 1.9300	25.9080
 1.9310	25.9230
 1.9320	25.9370
 1.9330	25.9570
 1.9340	25.9800
 1.9350	26.0040
 1.9360	26.0300
 1.9370	26.0600
 1.9380	26.0920
 1.9390	26.1260
 1.9400	26.1680
 1.9410	26.2090
 1.9420	26.2490
 1.9430	26.2930
 1.9440	26.3390
 1.9450	26.3860
 1.9460	26.4360
 1.9470	26.4920
 1.9480	26.5450
 1.9490	26.5990
 1.9500	26.6520
 1.9510	26.7070
 1.9520	26.7660
 1.9530	26.8230
 1.9540	26.8830
 1.9550	26.9420
 1.9560	27.0000
 1.9570	27.0620
 1.9580	27.1270
 1.9590	27.1920
 1.9600	27.2600
 1.9610	27.3270
 1.9620	27.3960
 1.9630	27.4620
 1.9640	27.5300
 1.9650	27.5930
 1.9660	27.6530
 1.9670	27.7160
 1.9680	27.7800
 1.9690	27.8440
 1.9700	27.9120
 1.9710	27.9850
 1.9720	28.0570
 1.9730	28.1330
 1.9740	28.2020
 1.9750	28.2740
 1.9760	28.3470
 1.9770	28.4160
 1.9780	28.4900
 1.9790	28.5590
 1.9800	28.6250
 1.9810	28.6910
 1.9820	28.7540
 1.9830	28.8180
 1.9840	28.8820
 1.9850	28.9490
 1.9860	29.0140
 1.9870	29.0850
 1.9880	29.1560
 1.9890	29.2250
 1.9900	29.2980
 1.9910	29.3690
 1.9920	29.4380
 1.9930	29.5080
 1.9940	29.5720
 1.9950	29.6290
 1.9960	29.6900
 1.9970	29.7500
 1.9980	29.8110
 1.9990	29.8730
 2.0000	29.9330
 2.0010	29.9900
 2.0020	30.0470
 2.0030	30.1020
 2.0040	30.1610
 2.0050	30.2220
 2.0060	30.2890
 2.0070	30.3500
 2.0080	30.4130
 2.0090	30.4710
 2.0100	30.5240
 2.0110	30.5750
 2.0120	30.6250
 2.0130	30.6690
 2.0140	30.7100
 2.0150	30.7480
 2.0160	30.7840
 2.0170	30.8250
 2.0180	30.8620
 2.0190	30.8960
 2.0200	30.9310
 2.0210	30.9640
 2.0220	30.9960
 2.0230	31.0320
 2.0240	31.0620
 2.0250	31.0890
 2.0260	31.1120
 2.0270	31.1290
 2.0280	31.1440
 2.0290	31.1570
 2.0300	31.1740
 2.0310	31.1930
 2.0320	31.2190
 2.0330	31.2350
 2.0340	31.2490
 2.0350	31.2600
 2.0360	31.2640
 2.0370	31.2710
 2.0380	31.2790
 2.0390	31.2840
 2.0400	31.2890
 2.0410	31.2910
 2.0420	31.2880
 2.0430	31.2860
 2.0440	31.2850
 2.0450	31.2820
 2.0460	31.2800
 2.0470	31.2790
 2.0480	31.2770
 2.0490	31.2730
 2.0500	31.2710
 2.0510	31.2690
 2.0520	31.2660
 2.0530	31.2630
 2.0540	31.2620
 2.0550	31.2610
 2.0560	31.2600
 2.0570	31.2620
 2.0580	31.2630
 2.0590	31.2710
 2.0600	31.2830
 2.0610	31.2930
 2.0620	31.3080
 2.0630	31.3190
 2.0640	31.3270
 2.0650	31.3340
 2.0660	31.3410
 2.0670	31.3470
 2.0680	31.3490
 2.0690	31.3550
 2.0700	31.3620
 2.0710	31.3710
 2.0720	31.3840
 2.0730	31.3990
 2.0740	31.4100
 2.0750	31.4180
 2.0760	31.4310
 2.0770	31.4460
 2.0780	31.4590
 2.0790	31.4750
 2.0800	31.4910
 2.0810	31.5020
 2.0820	31.5170
 2.0830	31.5360
 2.0840	31.5560
 2.0850	31.5770
 2.0860	31.5980
 2.0870	31.6170
 2.0880	31.6420
 2.0890	31.6640
 2.0900	31.6840
 2.0910	31.7040
 2.0920	31.7260
 2.0930	31.7450
 2.0940	31.7630
 2.0950	31.7810
 2.0960	31.7970
 2.0970	31.8170
 2.0980	31.8390
 2.0990	31.8590
 2.1000	31.8790
 2.1010	31.8980
 2.1020	31.9110
 2.1030	31.9270
 2.1040	31.9460
 2.1050	31.9650
 2.1060	31.9830
 2.1070	32.0030
 2.1080	32.0210
 2.1090	32.0360
 2.1100	32.0520
 2.1110	32.0650
 2.1120	32.0850
 2.1130	32.1120
 2.1140	32.1340
 2.1150	32.1610
 2.1160	32.1840
 2.1170	32.1990
 2.1180	32.2210
 2.1190	32.2480
 2.1200	32.2720
 2.1210	32.2960
 2.1220	32.3210
 2.1230	32.3440
 2.1240	32.3640
 2.1250	32.3840
 2.1260	32.4020
 2.1270	32.4260
 2.1280	32.4530
 2.1290	32.4790
 2.1300	32.5190
 2.1310	32.5410
 2.1320	32.5480
 2.1330	32.5630
 2.1340	32.5720
 2.1350	32.5850
 2.1360	32.6030
 2.1370	32.6200
 2.1380	32.6340
 2.1390	32.6470
 2.1400	32.6580
 2.1410	32.6720
 2.1420	32.6850
 2.1430	32.6960
 2.1440	32.7110
 2.1450	32.7310
 2.1460	32.7480
 2.1470	32.7670
 2.1480	32.7820
 2.1490	32.7950
 2.1500	32.8070
 2.1510	32.8150
 2.1520	32.8290
 2.1530	32.8460
 2.1540	32.8620
 2.1550	32.8830
 2.1560	32.9010
 2.1570	32.9190
 2.1580	32.9330
 2.1590	32.9420
 2.1600	32.9530
 2.1610	32.9640
 2.1620	32.9740
 2.1630	32.9870
 2.1640	33.0040
 2.1650	33.0160
 2.1660	33.0260
 2.1670	33.0380
 2.1680	33.0470
 2.1690	33.0600
 2.1700	33.0780
 2.1710	33.0930
 2.1720	33.1110
 2.1730	33.1270
 2.1740	33.1400
 2.1750	33.1550
 2.1760	33.1700
 2.1770	33.1860
 2.1780	33.2070
 2.1790	33.2210
 2.1800	33.2280
 2.1810	33.2400
 2.1820	33.2530
 2.1830	33.2610
 2.1840	33.2730
 2.1850	33.2900
 2.1860	33.3020
 2.1870	33.3090
 2.1880	33.3210
 2.1890	33.3340
 2.1900	33.3440
 2.1910	33.3530
 2.1920	33.3640
 2.1930	33.3710
 2.1940	33.3820
 2.1950	33.3970
 2.1960	33.4120
 2.1970	33.4350
 2.1980	33.4470
 2.1990	33.4500
 2.2000	33.4590
 2.2010	33.4670
 2.2020	33.4730
 2.2030	33.4850
 2.2040	33.4950
 2.2050	33.5040
 2.2060	33.5070
 2.2070	33.5100
 2.2080	33.5150
 2.2090	33.5170
 2.2100	33.5170
 2.2110	33.5100
 2.2120	33.5000
 2.2130	33.4930
 2.2140	33.4790
 2.2150	33.4720
 2.2160	33.4800
 2.2170	33.4710
 2.2180	33.4550
 2.2190	33.4380
 2.2200	33.4130
 2.2210	33.3860
 2.2220	33.3620
 2.2230	33.3290
 2.2240	33.2890
 2.2250	33.2460
 2.2260	33.1940
 2.2270	33.1460
 2.2280	33.0990
 2.2290	33.0470
 2.2300	32.9960
 2.2310	32.9390
 2.2320	32.8780
 2.2330	32.8160
 2.2340	32.7510
 2.2350	32.6860
 2.2360	32.6150
 2.2370	32.5360
 2.2380	32.4570
 2.2390	32.3800
 2.2400	32.2900
 2.2410	32.1920
 2.2420	32.0940
 2.2430	31.9880
 2.2440	31.8790
 2.2450	31.7700
 2.2460	31.6530
 2.2470	31.5270
 2.2480	31.4000
 2.2490	31.2660
 2.2500	31.1330
 2.2510	30.9950
 2.2520	30.8570
 2.2530	30.7170
 2.2540	30.5790
 2.2550	30.4380
 2.2560	30.3000
 2.2570	30.1650
 2.2580	30.0310
 2.2590	29.8950
 2.2600	29.7680
 2.2610	29.6450
 2.2620	29.5280
 2.2630	29.4130
 2.2640	29.3030
 2.2650	29.1890
 2.2660	29.0780
 2.2670	28.9770
 2.2680	28.8860
 2.2690	28.7900
 2.2700	28.7020
 2.2710	28.6100
 2.2720	28.5120
 2.2730	28.4250
 2.2740	28.3480
 2.2750	28.2650
 2.2760	28.1800
 2.2770	28.1030
 2.2780	28.0260
 2.2790	27.9520
 2.2800	27.8910
 2.2810	27.8180
 2.2820	27.7410
 2.2830	27.6620
 2.2840	27.5770
 2.2850	27.4920
 2.2860	27.4070
 2.2870	27.3170
 2.2880	27.2200
 2.2890	27.1260
 2.2900	27.0310
 2.2910	26.9370
 2.2920	26.8470
 2.2930	26.7520
 2.2940	26.6500
 2.2950	26.5540
 2.2960	26.4450
 2.2970	26.3580
 2.2980	26.2870
 2.2990	26.2180
 2.3000	26.1570
 2.3010	26.1060
 2.3020	26.0590
 2.3030	26.0180
 2.3040	25.9940
 2.3050	25.9820
 2.3060	25.9770
 2.3070	25.9860
 2.3080	26.0150
 2.3090	26.0530
 2.3100	26.0950
 2.3110	26.1400
 2.3120	26.1890
 2.3130	26.2370
 2.3140	26.2980
 2.3150	26.3730
 2.3160	26.4380
 2.3170	26.5050
 2.3180	26.5750
 2.3190	26.6430
 2.3200	26.7110
 2.3210	26.7920
 2.3220	26.8460
 2.3230	26.8880
 2.3240	26.9210
 2.3250	26.9370
 2.3260	26.9510
 2.3270	26.9570
 2.3280	26.9570
 2.3290	26.9520
 2.3300	26.9350
 2.3310	26.9030
 2.3320	26.8760
 2.3330	26.8390
 2.3340	26.8050
 2.3350	26.7750
 2.3360	26.7380
 2.3370	26.6880
 2.3380	26.6500
 2.3390	26.6170
 2.3400	26.5790
 2.3410	26.5510
 2.3420	26.5150
 2.3430	26.4590
 2.3440	26.4230
 2.3450	26.3870
 2.3460	26.3690
 2.3470	26.3770
 2.3480	26.3770
 2.3490	26.3830
 2.3500	26.3880
 2.3510	26.3890
 2.3520	26.3930
 2.3530	26.4030
 2.3540	26.4160
 2.3550	26.4270
 2.3560	26.4480
 2.3570	26.4690
 2.3580	26.4890
 2.3590	26.5040
 2.3600	26.5250
 2.3610	26.5520
 2.3620	26.5740
 2.3630	26.5960
 2.3640	26.6140
 2.3650	26.6180
 2.3660	26.6220
 2.3670	26.6320
 2.3680	26.6280
 2.3690	26.6230
 2.3700	26.6230
 2.3710	26.6180
 2.3720	26.6140
 2.3730	26.6100
 2.3740	26.6050
 2.3750	26.5860
 2.3760	26.5650
 2.3770	26.5490
 2.3780	26.5300
 2.3790	26.5210
 2.3800	26.5270
 2.3810	26.5420
 2.3820	26.5390
 2.3830	26.5320
 2.3840	26.5280
 2.3850	26.5010
 2.3860	26.4780
 2.3870	26.4630
 2.3880	26.4380
 2.3890	26.4230
 2.3900	26.4190
 2.3910	26.4310
 2.3920	26.4370
 2.3930	26.4180
 2.3940	26.4130
 2.3950	26.3940
 2.3960	26.3510
 2.3970	26.3420
 2.3980	26.3290
 2.3990	26.3000
 2.4000	26.2960
 2.4010	26.2700
 2.4020	26.2310
 2.4030	26.2040
 2.4040	26.1600
 2.4050	26.1290
 2.4060	26.0980
 2.4070	26.0590
 2.4080	26.0370
 2.4090	26.0200
 2.4100	26.0020
 2.4110	25.9990
 2.4120	26.0050
 2.4130	26.0060
 2.4140	26.0140
 2.4150	26.0020
 2.4160	25.9710
 2.4170	25.9370
 2.4180	25.8850
 2.4190	25.8410
 2.4200	25.8110
 2.4210	25.7670
 2.4220	25.7340
 2.4230	25.7170
 2.4240	25.7100
 2.4250	25.7200
 2.4260	25.7200
 2.4270	25.7140
 2.4280	25.6850
 2.4290	25.6340
 2.4300	25.5960
 2.4310	25.5370
 2.4320	25.4770
 2.4330	25.4320
 2.4340	25.3650
 2.4350	25.3010
 2.4360	25.2510
 2.4370	25.2060
 2.4380	25.2110
 2.4390	25.2170
 2.4400	25.1910
 2.4410	25.1760
 2.4420	25.1180
 2.4430	25.0360
 2.4440	24.9950
 2.4450	24.9490
 2.4460	24.8870
 2.4470	24.8690
 2.4480	24.8390
 2.4490	24.7750
 2.4500	24.7100
 2.4510	24.6580
 2.4520	24.6180
 2.4530	24.5610
 2.4540	24.5310
 2.4550	24.4890
 2.4560	24.4300
 2.4570	24.4090
 2.4580	24.3500
 2.4590	24.2750
 2.4600	24.2370
 2.4610	24.1990
 2.4620	24.1800
 2.4630	24.1810
 2.4640	24.1600
 2.4650	24.0960
 2.4660	24.0410
 2.4670	24.0070
 2.4680	23.9200
 2.4690	23.8380
 2.4700	23.7980
 2.4710	23.7670
 2.4720	23.7450
 2.4730	23.7740
 2.4740	23.7660
 2.4750	23.7300
 2.4760	23.7310
 2.4770	23.7300
 2.4780	23.7080
 2.4790	23.7040
 2.4800	23.6890
 2.4810	23.6630
 2.4820	23.6550
 2.4830	23.6300
 2.4840	23.6070
 2.4850	23.6070
 2.4860	23.6500
 2.4870	23.7020
 2.4880	23.7220
 2.4890	23.6930
 2.4900	23.6960
 2.4910	23.6900
 2.4920	23.6440
 2.4930	23.6150
 2.4940	23.6050
 2.4950	23.5530
 2.4960	23.5150
 2.4970	23.5780
 2.4980	23.5560
 2.4990	23.5580
 2.5000	23.6270
