Name: Uvularia sessifolia
Type: Vegetation
Class: Tree
Genus: Uvularia
Species: sessifolia
Sample No.: UVSE-2-77
Owner: UCSB
Wavelength Range: VSWIR
Origin: USA; Massachusetts; Harvard Forest
Collection Date: 7/8/2013
Description: Samples were collected as part of NSF Macrosystem Biology proposal titled: Collaborative Research: Thermal controls on ecosystem metabolism and function: scaling from leaves to canopies to regions. Samples were collected and overnighted to JPL facilities for processing. The same leaves were processed in the Nicolet and then measured using the ASD.
Measurement: Bidirectional reflectance
First Column: X
Second Column: Y
X Units: Wavelength (micrometers)
Y Units: Reflectance (percentage)
First X Value: 0.35
Last X Value: 2.5
Number of X Values: 2151
Additional Information: vegetation.tree.uvularia.sessifolia.vswir.uvse-2-77.ucsb.asd.ancillary.txt

 0.3500	 2.7080
 0.3510	 2.6890
 0.3520	 2.5370
 0.3530	 2.4360
 0.3540	 2.5440
 0.3550	 2.5810
 0.3560	 2.6100
 0.3570	 2.6400
 0.3580	 2.6330
 0.3590	 2.3850
 0.3600	 2.3860
 0.3610	 2.6140
 0.3620	 2.2440
 0.3630	 2.2240
 0.3640	 2.4350
 0.3650	 2.5480
 0.3660	 2.5750
 0.3670	 2.5480
 0.3680	 2.4740
 0.3690	 2.3490
 0.3700	 2.3130
 0.3710	 2.3660
 0.3720	 2.4590
 0.3730	 2.4950
 0.3740	 2.5030
 0.3750	 2.4620
 0.3760	 2.3680
 0.3770	 2.3620
 0.3780	 2.4520
 0.3790	 2.5500
 0.3800	 2.5060
 0.3810	 2.4250
 0.3820	 2.4080
 0.3830	 2.4920
 0.3840	 2.6080
 0.3850	 2.5890
 0.3860	 2.5150
 0.3870	 2.5330
 0.3880	 2.5240
 0.3890	 2.5430
 0.3900	 2.5850
 0.3910	 2.5750
 0.3920	 2.5970
 0.3930	 2.6690
 0.3940	 2.7480
 0.3950	 2.6490
 0.3960	 2.6490
 0.3970	 2.7250
 0.3980	 2.7330
 0.3990	 2.7400
 0.4000	 2.8020
 0.4010	 2.8770
 0.4020	 2.7980
 0.4030	 2.7890
 0.4040	 2.8420
 0.4050	 2.8960
 0.4060	 2.9280
 0.4070	 2.9330
 0.4080	 2.9440
 0.4090	 3.0010
 0.4100	 3.0020
 0.4110	 2.9930
 0.4120	 3.0070
 0.4130	 3.0260
 0.4140	 3.0700
 0.4150	 3.1140
 0.4160	 3.1240
 0.4170	 3.1090
 0.4180	 3.0980
 0.4190	 3.1110
 0.4200	 3.1520
 0.4210	 3.1370
 0.4220	 3.1310
 0.4230	 3.1750
 0.4240	 3.1730
 0.4250	 3.1650
 0.4260	 3.1720
 0.4270	 3.1990
 0.4280	 3.2110
 0.4290	 3.1980
 0.4300	 3.1770
 0.4310	 3.2020
 0.4320	 3.2150
 0.4330	 3.2270
 0.4340	 3.2500
 0.4350	 3.2350
 0.4360	 3.2360
 0.4370	 3.2520
 0.4380	 3.2380
 0.4390	 3.2300
 0.4400	 3.2250
 0.4410	 3.2140
 0.4420	 3.1860
 0.4430	 3.1990
 0.4440	 3.2280
 0.4450	 3.2290
 0.4460	 3.2380
 0.4470	 3.2390
 0.4480	 3.2350
 0.4490	 3.2590
 0.4500	 3.2740
 0.4510	 3.2730
 0.4520	 3.2660
 0.4530	 3.2910
 0.4540	 3.3070
 0.4550	 3.3030
 0.4560	 3.2910
 0.4570	 3.3020
 0.4580	 3.3190
 0.4590	 3.3270
 0.4600	 3.3340
 0.4610	 3.3240
 0.4620	 3.3040
 0.4630	 3.2890
 0.4640	 3.3040
 0.4650	 3.3160
 0.4660	 3.3100
 0.4670	 3.2870
 0.4680	 3.2850
 0.4690	 3.2860
 0.4700	 3.2780
 0.4710	 3.2940
 0.4720	 3.2860
 0.4730	 3.2690
 0.4740	 3.2880
 0.4750	 3.2980
 0.4760	 3.3010
 0.4770	 3.3050
 0.4780	 3.3100
 0.4790	 3.3030
 0.4800	 3.2990
 0.4810	 3.3120
 0.4820	 3.3030
 0.4830	 3.3070
 0.4840	 3.3280
 0.4850	 3.3380
 0.4860	 3.3600
 0.4870	 3.3760
 0.4880	 3.3760
 0.4890	 3.3810
 0.4900	 3.3880
 0.4910	 3.4030
 0.4920	 3.4300
 0.4930	 3.4660
 0.4940	 3.4940
 0.4950	 3.5150
 0.4960	 3.5530
 0.4970	 3.5990
 0.4980	 3.6420
 0.4990	 3.6820
 0.5000	 3.7520
 0.5010	 3.8200
 0.5020	 3.8820
 0.5030	 3.9540
 0.5040	 4.0470
 0.5050	 4.1580
 0.5060	 4.2780
 0.5070	 4.4030
 0.5080	 4.5300
 0.5090	 4.6640
 0.5100	 4.8170
 0.5110	 4.9950
 0.5120	 5.1880
 0.5130	 5.3900
 0.5140	 5.6030
 0.5150	 5.8310
 0.5160	 6.0700
 0.5170	 6.3140
 0.5180	 6.5730
 0.5190	 6.8410
 0.5200	 7.1120
 0.5210	 7.3830
 0.5220	 7.6490
 0.5230	 7.9070
 0.5240	 8.1570
 0.5250	 8.3980
 0.5260	 8.6310
 0.5270	 8.8560
 0.5280	 9.0720
 0.5290	 9.2550
 0.5300	 9.4180
 0.5310	 9.5730
 0.5320	 9.7260
 0.5330	 9.8530
 0.5340	 9.9580
 0.5350	10.0530
 0.5360	10.1450
 0.5370	10.2190
 0.5380	10.2810
 0.5390	10.3490
 0.5400	10.4130
 0.5410	10.4810
 0.5420	10.5560
 0.5430	10.6240
 0.5440	10.6760
 0.5450	10.7100
 0.5460	10.7220
 0.5470	10.7030
 0.5480	10.6800
 0.5490	10.6740
 0.5500	10.6870
 0.5510	10.6960
 0.5520	10.6900
 0.5530	10.6680
 0.5540	10.6330
 0.5550	10.5890
 0.5560	10.5350
 0.5570	10.4690
 0.5580	10.3860
 0.5590	10.2920
 0.5600	10.1880
 0.5610	10.0720
 0.5620	 9.9480
 0.5630	 9.8130
 0.5640	 9.6640
 0.5650	 9.5150
 0.5660	 9.3570
 0.5670	 9.1880
 0.5680	 9.0190
 0.5690	 8.8490
 0.5700	 8.6810
 0.5710	 8.5170
 0.5720	 8.3530
 0.5730	 8.2050
 0.5740	 8.0690
 0.5750	 7.9340
 0.5760	 7.8080
 0.5770	 7.6940
 0.5780	 7.5900
 0.5790	 7.4940
 0.5800	 7.4010
 0.5810	 7.3060
 0.5820	 7.2090
 0.5830	 7.1230
 0.5840	 7.0450
 0.5850	 6.9700
 0.5860	 6.8950
 0.5870	 6.8280
 0.5880	 6.7620
 0.5890	 6.6890
 0.5900	 6.6260
 0.5910	 6.5710
 0.5920	 6.5200
 0.5930	 6.4660
 0.5940	 6.4260
 0.5950	 6.3890
 0.5960	 6.3470
 0.5970	 6.3110
 0.5980	 6.2760
 0.5990	 6.2420
 0.6000	 6.2080
 0.6010	 6.1670
 0.6020	 6.1250
 0.6030	 6.0830
 0.6040	 6.0330
 0.6050	 5.9860
 0.6060	 5.9350
 0.6070	 5.8770
 0.6080	 5.8280
 0.6090	 5.7800
 0.6100	 5.7380
 0.6110	 5.7050
 0.6120	 5.6330
 0.6130	 5.5440
 0.6140	 5.4610
 0.6150	 5.3930
 0.6160	 5.3220
 0.6170	 5.2510
 0.6180	 5.1910
 0.6190	 5.1430
 0.6200	 5.1030
 0.6210	 5.0650
 0.6220	 5.0280
 0.6230	 4.9930
 0.6240	 4.9660
 0.6250	 4.9480
 0.6260	 4.9230
 0.6270	 4.9100
 0.6280	 4.9040
 0.6290	 4.8920
 0.6300	 4.8810
 0.6310	 4.8640
 0.6320	 4.8390
 0.6330	 4.8060
 0.6340	 4.7710
 0.6350	 4.7280
 0.6360	 4.6730
 0.6370	 4.6120
 0.6380	 4.5350
 0.6390	 4.4490
 0.6400	 4.3660
 0.6410	 4.2790
 0.6420	 4.1870
 0.6430	 4.0920
 0.6440	 4.0090
 0.6450	 3.9240
 0.6460	 3.8440
 0.6470	 3.7810
 0.6480	 3.7210
 0.6490	 3.6680
 0.6500	 3.6230
 0.6510	 3.5860
 0.6520	 3.5630
 0.6530	 3.5420
 0.6540	 3.5140
 0.6550	 3.4910
 0.6560	 3.4630
 0.6570	 3.4320
 0.6580	 3.4010
 0.6590	 3.3670
 0.6600	 3.3270
 0.6610	 3.2850
 0.6620	 3.2460
 0.6630	 3.2100
 0.6640	 3.1770
 0.6650	 3.1470
 0.6660	 3.1200
 0.6670	 3.0990
 0.6680	 3.0850
 0.6690	 3.0800
 0.6700	 3.0740
 0.6710	 3.0720
 0.6720	 3.0800
 0.6730	 3.0860
 0.6740	 3.0980
 0.6750	 3.1180
 0.6760	 3.1410
 0.6770	 3.1620
 0.6780	 3.1920
 0.6790	 3.2310
 0.6800	 3.2690
 0.6810	 3.3170
 0.6820	 3.3690
 0.6830	 3.4250
 0.6840	 3.4940
 0.6850	 3.5850
 0.6860	 3.6930
 0.6870	 3.8160
 0.6880	 3.9760
 0.6890	 4.1800
 0.6900	 4.4320
 0.6910	 4.7390
 0.6920	 5.1050
 0.6930	 5.5300
 0.6940	 6.0170
 0.6950	 6.5740
 0.6960	 7.1890
 0.6970	 7.8520
 0.6980	 8.5560
 0.6990	 9.3080
 0.7000	10.0880
 0.7010	10.8820
 0.7020	11.6880
 0.7030	12.4890
 0.7040	13.2810
 0.7050	14.0640
 0.7060	14.8300
 0.7070	15.5930
 0.7080	16.3420
 0.7090	17.0670
 0.7100	17.7910
 0.7110	18.5070
 0.7120	19.2160
 0.7130	19.9170
 0.7140	20.6030
 0.7150	21.2860
 0.7160	21.9710
 0.7170	22.6420
 0.7180	23.3080
 0.7190	23.9670
 0.7200	24.6150
 0.7210	25.2530
 0.7220	25.8860
 0.7230	26.5050
 0.7240	27.0940
 0.7250	27.6670
 0.7260	28.2330
 0.7270	28.7880
 0.7280	29.3170
 0.7290	29.8080
 0.7300	30.2820
 0.7310	30.7620
 0.7320	31.1990
 0.7330	31.6120
 0.7340	32.0100
 0.7350	32.3880
 0.7360	32.7470
 0.7370	33.0830
 0.7380	33.3920
 0.7390	33.6790
 0.7400	33.9460
 0.7410	34.2020
 0.7420	34.4510
 0.7430	34.6620
 0.7440	34.8540
 0.7450	35.0330
 0.7460	35.1920
 0.7470	35.3370
 0.7480	35.4740
 0.7490	35.6010
 0.7500	35.6990
 0.7510	35.7890
 0.7520	35.8760
 0.7530	35.9580
 0.7540	36.0180
 0.7550	36.0740
 0.7560	36.1310
 0.7570	36.1790
 0.7580	36.2150
 0.7590	36.2410
 0.7600	36.2650
 0.7610	36.2980
 0.7620	36.3180
 0.7630	36.3300
 0.7640	36.3430
 0.7650	36.3600
 0.7660	36.3670
 0.7670	36.3670
 0.7680	36.3730
 0.7690	36.3710
 0.7700	36.3650
 0.7710	36.3610
 0.7720	36.3680
 0.7730	36.3610
 0.7740	36.3570
 0.7750	36.3620
 0.7760	36.3370
 0.7770	36.3280
 0.7780	36.3340
 0.7790	36.3350
 0.7800	36.3250
 0.7810	36.3220
 0.7820	36.3230
 0.7830	36.3020
 0.7840	36.2970
 0.7850	36.3010
 0.7860	36.3020
 0.7870	36.2920
 0.7880	36.2860
 0.7890	36.2830
 0.7900	36.2810
 0.7910	36.2770
 0.7920	36.2710
 0.7930	36.2640
 0.7940	36.2570
 0.7950	36.2550
 0.7960	36.2490
 0.7970	36.2390
 0.7980	36.2390
 0.7990	36.2270
 0.8000	36.2170
 0.8010	36.2230
 0.8020	36.2320
 0.8030	36.2180
 0.8040	36.1960
 0.8050	36.1940
 0.8060	36.1930
 0.8070	36.1840
 0.8080	36.1730
 0.8090	36.1780
 0.8100	36.1830
 0.8110	36.1850
 0.8120	36.1800
 0.8130	36.1610
 0.8140	36.1440
 0.8150	36.1460
 0.8160	36.1650
 0.8170	36.1430
 0.8180	36.1320
 0.8190	36.1380
 0.8200	36.1410
 0.8210	36.1390
 0.8220	36.1360
 0.8230	36.1340
 0.8240	36.1280
 0.8250	36.1280
 0.8260	36.1250
 0.8270	36.1200
 0.8280	36.1270
 0.8290	36.1270
 0.8300	36.1160
 0.8310	36.0990
 0.8320	36.1070
 0.8330	36.1150
 0.8340	36.1110
 0.8350	36.0960
 0.8360	36.1240
 0.8370	36.1310
 0.8380	36.1110
 0.8390	36.1060
 0.8400	36.1090
 0.8410	36.1120
 0.8420	36.1150
 0.8430	36.1310
 0.8440	36.1360
 0.8450	36.1350
 0.8460	36.1340
 0.8470	36.1210
 0.8480	36.1190
 0.8490	36.1260
 0.8500	36.1310
 0.8510	36.1410
 0.8520	36.1420
 0.8530	36.1390
 0.8540	36.1420
 0.8550	36.1420
 0.8560	36.1420
 0.8570	36.1440
 0.8580	36.1480
 0.8590	36.1580
 0.8600	36.1630
 0.8610	36.1610
 0.8620	36.1610
 0.8630	36.1680
 0.8640	36.1730
 0.8650	36.1660
 0.8660	36.1620
 0.8670	36.1660
 0.8680	36.1740
 0.8690	36.1780
 0.8700	36.1760
 0.8710	36.1770
 0.8720	36.1790
 0.8730	36.1710
 0.8740	36.1900
 0.8750	36.1960
 0.8760	36.1860
 0.8770	36.1940
 0.8780	36.2000
 0.8790	36.1980
 0.8800	36.1910
 0.8810	36.1840
 0.8820	36.2010
 0.8830	36.2070
 0.8840	36.1850
 0.8850	36.1910
 0.8860	36.1890
 0.8870	36.1920
 0.8880	36.2100
 0.8890	36.2130
 0.8900	36.1990
 0.8910	36.1850
 0.8920	36.1860
 0.8930	36.2040
 0.8940	36.2050
 0.8950	36.1950
 0.8960	36.1980
 0.8970	36.1910
 0.8980	36.1860
 0.8990	36.1920
 0.9000	36.2060
 0.9010	36.2030
 0.9020	36.1940
 0.9030	36.1910
 0.9040	36.1940
 0.9050	36.2000
 0.9060	36.2080
 0.9070	36.2130
 0.9080	36.2010
 0.9090	36.1970
 0.9100	36.1940
 0.9110	36.1880
 0.9120	36.2010
 0.9130	36.2000
 0.9140	36.1870
 0.9150	36.1760
 0.9160	36.1820
 0.9170	36.1870
 0.9180	36.1880
 0.9190	36.1880
 0.9200	36.1770
 0.9210	36.1720
 0.9220	36.1790
 0.9230	36.1900
 0.9240	36.1790
 0.9250	36.1540
 0.9260	36.1390
 0.9270	36.1550
 0.9280	36.1510
 0.9290	36.1350
 0.9300	36.1140
 0.9310	36.0950
 0.9320	36.0850
 0.9330	36.0890
 0.9340	36.0950
 0.9350	36.0780
 0.9360	36.0690
 0.9370	36.0620
 0.9380	36.0490
 0.9390	36.0290
 0.9400	36.0100
 0.9410	36.0030
 0.9420	36.0080
 0.9430	35.9980
 0.9440	35.9570
 0.9450	35.9180
 0.9460	35.9100
 0.9470	35.9370
 0.9480	35.9410
 0.9490	35.9220
 0.9500	35.8910
 0.9510	35.8270
 0.9520	35.7820
 0.9530	35.7710
 0.9540	35.7770
 0.9550	35.7540
 0.9560	35.7270
 0.9570	35.7050
 0.9580	35.6910
 0.9590	35.6710
 0.9600	35.6480
 0.9610	35.6260
 0.9620	35.6080
 0.9630	35.5960
 0.9640	35.6020
 0.9650	35.6080
 0.9660	35.5920
 0.9670	35.5820
 0.9680	35.5680
 0.9690	35.5620
 0.9700	35.5790
 0.9710	35.6010
 0.9720	35.5960
 0.9730	35.5640
 0.9740	35.5310
 0.9750	35.5470
 0.9760	35.5470
 0.9770	35.5410
 0.9780	35.5640
 0.9790	35.5780
 0.9800	35.5640
 0.9810	35.5490
 0.9820	35.5690
 0.9830	35.5740
 0.9840	35.5670
 0.9850	35.5670
 0.9860	35.5880
 0.9870	35.5780
 0.9880	35.6040
 0.9890	35.6330
 0.9900	35.6110
 0.9910	35.6170
 0.9920	35.6430
 0.9930	35.6690
 0.9940	35.6950
 0.9950	35.7210
 0.9960	35.7480
 0.9970	35.7740
 0.9980	35.8000
 0.9990	35.8260
 1.0000	35.8520
 1.0010	35.8780
 1.0020	35.9040
 1.0030	35.9300
 1.0040	35.9560
 1.0050	35.9820
 1.0060	36.0080
 1.0070	36.0350
 1.0080	36.0610
 1.0090	36.0870
 1.0100	36.0870
 1.0110	36.0850
 1.0120	36.0910
 1.0130	36.0990
 1.0140	36.1080
 1.0150	36.1210
 1.0160	36.1290
 1.0170	36.1450
 1.0180	36.1560
 1.0190	36.1630
 1.0200	36.1750
 1.0210	36.1740
 1.0220	36.1740
 1.0230	36.1790
 1.0240	36.1850
 1.0250	36.1920
 1.0260	36.2030
 1.0270	36.2100
 1.0280	36.2170
 1.0290	36.2230
 1.0300	36.2300
 1.0310	36.2340
 1.0320	36.2350
 1.0330	36.2360
 1.0340	36.2420
 1.0350	36.2460
 1.0360	36.2590
 1.0370	36.2700
 1.0380	36.2730
 1.0390	36.2670
 1.0400	36.2730
 1.0410	36.2780
 1.0420	36.2810
 1.0430	36.2930
 1.0440	36.2950
 1.0450	36.2840
 1.0460	36.2830
 1.0470	36.2860
 1.0480	36.2870
 1.0490	36.2840
 1.0500	36.2890
 1.0510	36.2980
 1.0520	36.3050
 1.0530	36.3080
 1.0540	36.3110
 1.0550	36.3140
 1.0560	36.3070
 1.0570	36.3080
 1.0580	36.3160
 1.0590	36.3180
 1.0600	36.3150
 1.0610	36.3160
 1.0620	36.3150
 1.0630	36.3180
 1.0640	36.3250
 1.0650	36.3310
 1.0660	36.3440
 1.0670	36.3480
 1.0680	36.3500
 1.0690	36.3480
 1.0700	36.3450
 1.0710	36.3370
 1.0720	36.3330
 1.0730	36.3340
 1.0740	36.3300
 1.0750	36.3260
 1.0760	36.3200
 1.0770	36.3100
 1.0780	36.3040
 1.0790	36.2960
 1.0800	36.2940
 1.0810	36.3030
 1.0820	36.3030
 1.0830	36.3030
 1.0840	36.3010
 1.0850	36.2900
 1.0860	36.2810
 1.0870	36.2790
 1.0880	36.2830
 1.0890	36.2830
 1.0900	36.2890
 1.0910	36.2880
 1.0920	36.2800
 1.0930	36.2770
 1.0940	36.2760
 1.0950	36.2700
 1.0960	36.2610
 1.0970	36.2540
 1.0980	36.2430
 1.0990	36.2350
 1.1000	36.2330
 1.1010	36.2290
 1.1020	36.2250
 1.1030	36.2180
 1.1040	36.2090
 1.1050	36.2000
 1.1060	36.1920
 1.1070	36.1820
 1.1080	36.1750
 1.1090	36.1710
 1.1100	36.1620
 1.1110	36.1500
 1.1120	36.1420
 1.1130	36.1370
 1.1140	36.1290
 1.1150	36.1240
 1.1160	36.1160
 1.1170	36.1010
 1.1180	36.0890
 1.1190	36.0790
 1.1200	36.0670
 1.1210	36.0550
 1.1220	36.0440
 1.1230	36.0320
 1.1240	36.0190
 1.1250	36.0030
 1.1260	35.9870
 1.1270	35.9670
 1.1280	35.9470
 1.1290	35.9190
 1.1300	35.8860
 1.1310	35.8530
 1.1320	35.8160
 1.1330	35.7770
 1.1340	35.7400
 1.1350	35.6970
 1.1360	35.6490
 1.1370	35.5980
 1.1380	35.5470
 1.1390	35.4940
 1.1400	35.4410
 1.1410	35.3870
 1.1420	35.3340
 1.1430	35.2790
 1.1440	35.2230
 1.1450	35.1640
 1.1460	35.1080
 1.1470	35.0490
 1.1480	34.9950
 1.1490	34.9410
 1.1500	34.8950
 1.1510	34.8550
 1.1520	34.8160
 1.1530	34.7830
 1.1540	34.7500
 1.1550	34.7170
 1.1560	34.6880
 1.1570	34.6670
 1.1580	34.6510
 1.1590	34.6360
 1.1600	34.6210
 1.1610	34.6050
 1.1620	34.5900
 1.1630	34.5790
 1.1640	34.5730
 1.1650	34.5660
 1.1660	34.5620
 1.1670	34.5560
 1.1680	34.5490
 1.1690	34.5450
 1.1700	34.5450
 1.1710	34.5420
 1.1720	34.5410
 1.1730	34.5370
 1.1740	34.5290
 1.1750	34.5240
 1.1760	34.5210
 1.1770	34.5150
 1.1780	34.5100
 1.1790	34.5040
 1.1800	34.4990
 1.1810	34.4960
 1.1820	34.4930
 1.1830	34.4880
 1.1840	34.4850
 1.1850	34.4800
 1.1860	34.4750
 1.1870	34.4740
 1.1880	34.4710
 1.1890	34.4680
 1.1900	34.4660
 1.1910	34.4640
 1.1920	34.4620
 1.1930	34.4600
 1.1940	34.4580
 1.1950	34.4550
 1.1960	34.4520
 1.1970	34.4490
 1.1980	34.4470
 1.1990	34.4470
 1.2000	34.4490
 1.2010	34.4530
 1.2020	34.4560
 1.2030	34.4590
 1.2040	34.4620
 1.2050	34.4640
 1.2060	34.4700
 1.2070	34.4750
 1.2080	34.4780
 1.2090	34.4810
 1.2100	34.4850
 1.2110	34.4900
 1.2120	34.4970
 1.2130	34.5040
 1.2140	34.5130
 1.2150	34.5210
 1.2160	34.5280
 1.2170	34.5380
 1.2180	34.5490
 1.2190	34.5620
 1.2200	34.5740
 1.2210	34.5850
 1.2220	34.5910
 1.2230	34.5950
 1.2240	34.6020
 1.2250	34.6100
 1.2260	34.6200
 1.2270	34.6310
 1.2280	34.6390
 1.2290	34.6450
 1.2300	34.6460
 1.2310	34.6510
 1.2320	34.6580
 1.2330	34.6650
 1.2340	34.6720
 1.2350	34.6800
 1.2360	34.6870
 1.2370	34.6910
 1.2380	34.6990
 1.2390	34.7060
 1.2400	34.7140
 1.2410	34.7230
 1.2420	34.7290
 1.2430	34.7350
 1.2440	34.7410
 1.2450	34.7450
 1.2460	34.7500
 1.2470	34.7540
 1.2480	34.7590
 1.2490	34.7660
 1.2500	34.7660
 1.2510	34.7650
 1.2520	34.7660
 1.2530	34.7680
 1.2540	34.7720
 1.2550	34.7780
 1.2560	34.7810
 1.2570	34.7820
 1.2580	34.7820
 1.2590	34.7820
 1.2600	34.7840
 1.2610	34.7860
 1.2620	34.7870
 1.2630	34.7880
 1.2640	34.7890
 1.2650	34.7870
 1.2660	34.7860
 1.2670	34.7860
 1.2680	34.7830
 1.2690	34.7790
 1.2700	34.7720
 1.2710	34.7660
 1.2720	34.7620
 1.2730	34.7550
 1.2740	34.7470
 1.2750	34.7400
 1.2760	34.7360
 1.2770	34.7290
 1.2780	34.7220
 1.2790	34.7150
 1.2800	34.7020
 1.2810	34.6900
 1.2820	34.6780
 1.2830	34.6650
 1.2840	34.6520
 1.2850	34.6400
 1.2860	34.6260
 1.2870	34.6130
 1.2880	34.6010
 1.2890	34.5900
 1.2900	34.5750
 1.2910	34.5590
 1.2920	34.5450
 1.2930	34.5290
 1.2940	34.5160
 1.2950	34.5040
 1.2960	34.4900
 1.2970	34.4770
 1.2980	34.4570
 1.2990	34.4330
 1.3000	34.4080
 1.3010	34.3830
 1.3020	34.3600
 1.3030	34.3400
 1.3040	34.3170
 1.3050	34.2900
 1.3060	34.2580
 1.3070	34.2260
 1.3080	34.1950
 1.3090	34.1610
 1.3100	34.1290
 1.3110	34.0940
 1.3120	34.0550
 1.3130	34.0130
 1.3140	33.9710
 1.3150	33.9280
 1.3160	33.8840
 1.3170	33.8400
 1.3180	33.7970
 1.3190	33.7510
 1.3200	33.7020
 1.3210	33.6540
 1.3220	33.6020
 1.3230	33.5490
 1.3240	33.4950
 1.3250	33.4370
 1.3260	33.3800
 1.3270	33.3240
 1.3280	33.2630
 1.3290	33.1990
 1.3300	33.1360
 1.3310	33.0680
 1.3320	33.0030
 1.3330	32.9400
 1.3340	32.8760
 1.3350	32.8130
 1.3360	32.7480
 1.3370	32.6840
 1.3380	32.6210
 1.3390	32.5570
 1.3400	32.4930
 1.3410	32.4310
 1.3420	32.3690
 1.3430	32.3040
 1.3440	32.2400
 1.3450	32.1780
 1.3460	32.1130
 1.3470	32.0530
 1.3480	31.9990
 1.3490	31.9420
 1.3500	31.8850
 1.3510	31.8310
 1.3520	31.7730
 1.3530	31.7160
 1.3540	31.6590
 1.3550	31.6000
 1.3560	31.5390
 1.3570	31.4800
 1.3580	31.4210
 1.3590	31.3590
 1.3600	31.2930
 1.3610	31.2240
 1.3620	31.1460
 1.3630	31.0660
 1.3640	30.9800
 1.3650	30.8860
 1.3660	30.7920
 1.3670	30.6890
 1.3680	30.5760
 1.3690	30.4590
 1.3700	30.3310
 1.3710	30.1950
 1.3720	30.0520
 1.3730	29.8990
 1.3740	29.7360
 1.3750	29.5590
 1.3760	29.3650
 1.3770	29.1570
 1.3780	28.9320
 1.3790	28.6930
 1.3800	28.4380
 1.3810	28.1640
 1.3820	27.8740
 1.3830	27.5690
 1.3840	27.2450
 1.3850	26.9050
 1.3860	26.5500
 1.3870	26.1740
 1.3880	25.7930
 1.3890	25.4010
 1.3900	24.9990
 1.3910	24.5930
 1.3920	24.1810
 1.3930	23.7620
 1.3940	23.3420
 1.3950	22.9170
 1.3960	22.4950
 1.3970	22.0810
 1.3980	21.6700
 1.3990	21.2700
 1.4000	20.8820
 1.4010	20.4990
 1.4020	20.1320
 1.4030	19.7770
 1.4040	19.4380
 1.4050	19.1160
 1.4060	18.8080
 1.4070	18.5190
 1.4080	18.2430
 1.4090	17.9800
 1.4100	17.7360
 1.4110	17.5070
 1.4120	17.2930
 1.4130	17.0980
 1.4140	16.9150
 1.4150	16.7460
 1.4160	16.5890
 1.4170	16.4430
 1.4180	16.3090
 1.4190	16.1870
 1.4200	16.0740
 1.4210	15.9710
 1.4220	15.8760
 1.4230	15.7900
 1.4240	15.7110
 1.4250	15.6390
 1.4260	15.5760
 1.4270	15.5160
 1.4280	15.4620
 1.4290	15.4130
 1.4300	15.3690
 1.4310	15.3290
 1.4320	15.2950
 1.4330	15.2650
 1.4340	15.2420
 1.4350	15.2200
 1.4360	15.2020
 1.4370	15.1880
 1.4380	15.1770
 1.4390	15.1690
 1.4400	15.1640
 1.4410	15.1620
 1.4420	15.1620
 1.4430	15.1630
 1.4440	15.1670
 1.4450	15.1730
 1.4460	15.1820
 1.4470	15.1940
 1.4480	15.2070
 1.4490	15.2210
 1.4500	15.2360
 1.4510	15.2530
 1.4520	15.2720
 1.4530	15.2940
 1.4540	15.3170
 1.4550	15.3410
 1.4560	15.3670
 1.4570	15.3960
 1.4580	15.4290
 1.4590	15.4670
 1.4600	15.5090
 1.4610	15.5540
 1.4620	15.6030
 1.4630	15.6570
 1.4640	15.7160
 1.4650	15.7810
 1.4660	15.8500
 1.4670	15.9230
 1.4680	16.0010
 1.4690	16.0810
 1.4700	16.1650
 1.4710	16.2540
 1.4720	16.3450
 1.4730	16.4410
 1.4740	16.5410
 1.4750	16.6430
 1.4760	16.7510
 1.4770	16.8580
 1.4780	16.9640
 1.4790	17.0720
 1.4800	17.1780
 1.4810	17.2850
 1.4820	17.3980
 1.4830	17.5090
 1.4840	17.6230
 1.4850	17.7380
 1.4860	17.8510
 1.4870	17.9650
 1.4880	18.0800
 1.4890	18.1960
 1.4900	18.3140
 1.4910	18.4340
 1.4920	18.5520
 1.4930	18.6710
 1.4940	18.7900
 1.4950	18.9070
 1.4960	19.0250
 1.4970	19.1420
 1.4980	19.2600
 1.4990	19.3790
 1.5000	19.4980
 1.5010	19.6180
 1.5020	19.7360
 1.5030	19.8560
 1.5040	19.9720
 1.5050	20.0860
 1.5060	20.2010
 1.5070	20.3150
 1.5080	20.4280
 1.5090	20.5410
 1.5100	20.6520
 1.5110	20.7610
 1.5120	20.8710
 1.5130	20.9810
 1.5140	21.0900
 1.5150	21.2020
 1.5160	21.3120
 1.5170	21.4180
 1.5180	21.5270
 1.5190	21.6330
 1.5200	21.7370
 1.5210	21.8420
 1.5220	21.9460
 1.5230	22.0490
 1.5240	22.1540
 1.5250	22.2600
 1.5260	22.3620
 1.5270	22.4630
 1.5280	22.5590
 1.5290	22.6530
 1.5300	22.7480
 1.5310	22.8420
 1.5320	22.9380
 1.5330	23.0360
 1.5340	23.1330
 1.5350	23.2260
 1.5360	23.3180
 1.5370	23.4050
 1.5380	23.4900
 1.5390	23.5770
 1.5400	23.6620
 1.5410	23.7470
 1.5420	23.8340
 1.5430	23.9190
 1.5440	24.0010
 1.5450	24.0830
 1.5460	24.1620
 1.5470	24.2390
 1.5480	24.3140
 1.5490	24.3890
 1.5500	24.4650
 1.5510	24.5370
 1.5520	24.6110
 1.5530	24.6840
 1.5540	24.7550
 1.5550	24.8280
 1.5560	24.8990
 1.5570	24.9680
 1.5580	25.0390
 1.5590	25.1090
 1.5600	25.1800
 1.5610	25.2500
 1.5620	25.3170
 1.5630	25.3820
 1.5640	25.4430
 1.5650	25.5030
 1.5660	25.5650
 1.5670	25.6240
 1.5680	25.6850
 1.5690	25.7460
 1.5700	25.8030
 1.5710	25.8610
 1.5720	25.9160
 1.5730	25.9690
 1.5740	26.0230
 1.5750	26.0770
 1.5760	26.1340
 1.5770	26.1870
 1.5780	26.2380
 1.5790	26.2890
 1.5800	26.3360
 1.5810	26.3850
 1.5820	26.4370
 1.5830	26.4890
 1.5840	26.5380
 1.5850	26.5850
 1.5860	26.6320
 1.5870	26.6800
 1.5880	26.7280
 1.5890	26.7760
 1.5900	26.8220
 1.5910	26.8630
 1.5920	26.9010
 1.5930	26.9430
 1.5940	26.9840
 1.5950	27.0260
 1.5960	27.0700
 1.5970	27.1120
 1.5980	27.1500
 1.5990	27.1900
 1.6000	27.2320
 1.6010	27.2700
 1.6020	27.3100
 1.6030	27.3500
 1.6040	27.3870
 1.6050	27.4270
 1.6060	27.4680
 1.6070	27.5050
 1.6080	27.5430
 1.6090	27.5770
 1.6100	27.6080
 1.6110	27.6390
 1.6120	27.6710
 1.6130	27.7010
 1.6140	27.7290
 1.6150	27.7580
 1.6160	27.7830
 1.6170	27.8060
 1.6180	27.8330
 1.6190	27.8630
 1.6200	27.8910
 1.6210	27.9210
 1.6220	27.9510
 1.6230	27.9770
 1.6240	28.0010
 1.6250	28.0210
 1.6260	28.0440
 1.6270	28.0670
 1.6280	28.0940
 1.6290	28.1170
 1.6300	28.1340
 1.6310	28.1560
 1.6320	28.1780
 1.6330	28.2000
 1.6340	28.2290
 1.6350	28.2500
 1.6360	28.2660
 1.6370	28.2830
 1.6380	28.2960
 1.6390	28.3100
 1.6400	28.3270
 1.6410	28.3410
 1.6420	28.3530
 1.6430	28.3690
 1.6440	28.3850
 1.6450	28.3990
 1.6460	28.4140
 1.6470	28.4270
 1.6480	28.4390
 1.6490	28.4530
 1.6500	28.4690
 1.6510	28.4820
 1.6520	28.4920
 1.6530	28.5020
 1.6540	28.5110
 1.6550	28.5160
 1.6560	28.5240
 1.6570	28.5300
 1.6580	28.5340
 1.6590	28.5400
 1.6600	28.5450
 1.6610	28.5460
 1.6620	28.5510
 1.6630	28.5550
 1.6640	28.5550
 1.6650	28.5560
 1.6660	28.5540
 1.6670	28.5480
 1.6680	28.5470
 1.6690	28.5470
 1.6700	28.5460
 1.6710	28.5460
 1.6720	28.5460
 1.6730	28.5420
 1.6740	28.5310
 1.6750	28.5210
 1.6760	28.5130
 1.6770	28.5050
 1.6780	28.4990
 1.6790	28.4890
 1.6800	28.4740
 1.6810	28.4600
 1.6820	28.4460
 1.6830	28.4340
 1.6840	28.4220
 1.6850	28.4040
 1.6860	28.3850
 1.6870	28.3630
 1.6880	28.3420
 1.6890	28.3260
 1.6900	28.3100
 1.6910	28.2950
 1.6920	28.2790
 1.6930	28.2600
 1.6940	28.2420
 1.6950	28.2230
 1.6960	28.2020
 1.6970	28.1780
 1.6980	28.1550
 1.6990	28.1320
 1.7000	28.1100
 1.7010	28.0890
 1.7020	28.0670
 1.7030	28.0450
 1.7040	28.0210
 1.7050	27.9970
 1.7060	27.9700
 1.7070	27.9390
 1.7080	27.9100
 1.7090	27.8790
 1.7100	27.8530
 1.7110	27.8330
 1.7120	27.8050
 1.7130	27.7760
 1.7140	27.7410
 1.7150	27.7050
 1.7160	27.6710
 1.7170	27.6370
 1.7180	27.6040
 1.7190	27.5700
 1.7200	27.5350
 1.7210	27.4980
 1.7220	27.4620
 1.7230	27.4270
 1.7240	27.3950
 1.7250	27.3640
 1.7260	27.3340
 1.7270	27.3040
 1.7280	27.2720
 1.7290	27.2370
 1.7300	27.1980
 1.7310	27.1650
 1.7320	27.1340
 1.7330	27.1050
 1.7340	27.0820
 1.7350	27.0550
 1.7360	27.0260
 1.7370	26.9960
 1.7380	26.9640
 1.7390	26.9320
 1.7400	26.8990
 1.7410	26.8620
 1.7420	26.8240
 1.7430	26.7830
 1.7440	26.7380
 1.7450	26.6920
 1.7460	26.6420
 1.7470	26.5950
 1.7480	26.5500
 1.7490	26.5010
 1.7500	26.4530
 1.7510	26.4040
 1.7520	26.3520
 1.7530	26.3010
 1.7540	26.2500
 1.7550	26.2010
 1.7560	26.1480
 1.7570	26.0960
 1.7580	26.0490
 1.7590	25.9980
 1.7600	25.9470
 1.7610	25.8950
 1.7620	25.8470
 1.7630	25.8010
 1.7640	25.7570
 1.7650	25.7190
 1.7660	25.6790
 1.7670	25.6410
 1.7680	25.6010
 1.7690	25.5600
 1.7700	25.5210
 1.7710	25.4830
 1.7720	25.4480
 1.7730	25.4180
 1.7740	25.3870
 1.7750	25.3590
 1.7760	25.3290
 1.7770	25.2980
 1.7780	25.2680
 1.7790	25.2360
 1.7800	25.2090
 1.7810	25.1830
 1.7820	25.1620
 1.7830	25.1440
 1.7840	25.1280
 1.7850	25.1170
 1.7860	25.1030
 1.7870	25.0920
 1.7880	25.0760
 1.7890	25.0660
 1.7900	25.0520
 1.7910	25.0420
 1.7920	25.0360
 1.7930	25.0280
 1.7940	25.0170
 1.7950	25.0110
 1.7960	25.0060
 1.7970	25.0010
 1.7980	24.9990
 1.7990	25.0010
 1.8000	25.0060
 1.8010	25.0080
 1.8020	25.0130
 1.8030	25.0160
 1.8040	25.0130
 1.8050	25.0160
 1.8060	25.0260
 1.8070	25.0300
 1.8080	25.0340
 1.8090	25.0330
 1.8100	25.0280
 1.8110	25.0230
 1.8120	25.0150
 1.8130	25.0100
 1.8140	25.0080
 1.8150	25.0130
 1.8160	25.0160
 1.8170	25.0160
 1.8180	25.0150
 1.8190	25.0040
 1.8200	24.9990
 1.8210	24.9990
 1.8220	24.9900
 1.8230	24.9770
 1.8240	24.9660
 1.8250	24.9460
 1.8260	24.9310
 1.8270	24.9260
 1.8280	24.9200
 1.8290	24.9150
 1.8300	24.9090
 1.8310	24.9040
 1.8320	24.8990
 1.8330	24.8930
 1.8340	24.8880
 1.8350	24.8880
 1.8360	24.8460
 1.8370	24.8050
 1.8380	24.7580
 1.8390	24.7060
 1.8400	24.6570
 1.8410	24.5930
 1.8420	24.5150
 1.8430	24.4360
 1.8440	24.3510
 1.8450	24.2590
 1.8460	24.1610
 1.8470	24.0610
 1.8480	23.9590
 1.8490	23.8360
 1.8500	23.7060
 1.8510	23.5680
 1.8520	23.4220
 1.8530	23.2560
 1.8540	23.0890
 1.8550	22.9140
 1.8560	22.7170
 1.8570	22.5090
 1.8580	22.2900
 1.8590	22.0570
 1.8600	21.8100
 1.8610	21.5530
 1.8620	21.2790
 1.8630	20.9920
 1.8640	20.6900
 1.8650	20.3620
 1.8660	20.0190
 1.8670	19.6520
 1.8680	19.2650
 1.8690	18.8690
 1.8700	18.4480
 1.8710	18.0100
 1.8720	17.5570
 1.8730	17.0850
 1.8740	16.5880
 1.8750	16.0830
 1.8760	15.5700
 1.8770	15.0550
 1.8780	14.5410
 1.8790	14.0230
 1.8800	13.5080
 1.8810	12.9950
 1.8820	12.4770
 1.8830	11.9590
 1.8840	11.4490
 1.8850	10.9380
 1.8860	10.4320
 1.8870	 9.9460
 1.8880	 9.4710
 1.8890	 9.0150
 1.8900	 8.5810
 1.8910	 8.1680
 1.8920	 7.7720
 1.8930	 7.4030
 1.8940	 7.0570
 1.8950	 6.7370
 1.8960	 6.4380
 1.8970	 6.1530
 1.8980	 5.8920
 1.8990	 5.6500
 1.9000	 5.4280
 1.9010	 5.2330
 1.9020	 5.0500
 1.9030	 4.8850
 1.9040	 4.7350
 1.9050	 4.6000
 1.9060	 4.4750
 1.9070	 4.3680
 1.9080	 4.2680
 1.9090	 4.1790
 1.9100	 4.1050
 1.9110	 4.0390
 1.9120	 3.9890
 1.9130	 3.9390
 1.9140	 3.8980
 1.9150	 3.8570
 1.9160	 3.8180
 1.9170	 3.7790
 1.9180	 3.7480
 1.9190	 3.7250
 1.9200	 3.7100
 1.9210	 3.6980
 1.9220	 3.6880
 1.9230	 3.6810
 1.9240	 3.6740
 1.9250	 3.6680
 1.9260	 3.6680
 1.9270	 3.6680
 1.9280	 3.6710
 1.9290	 3.6790
 1.9300	 3.6840
 1.9310	 3.6940
 1.9320	 3.7110
 1.9330	 3.7300
 1.9340	 3.7520
 1.9350	 3.7730
 1.9360	 3.7960
 1.9370	 3.8190
 1.9380	 3.8420
 1.9390	 3.8670
 1.9400	 3.8970
 1.9410	 3.9250
 1.9420	 3.9530
 1.9430	 3.9830
 1.9440	 4.0160
 1.9450	 4.0500
 1.9460	 4.0880
 1.9470	 4.1270
 1.9480	 4.1690
 1.9490	 4.2140
 1.9500	 4.2590
 1.9510	 4.3050
 1.9520	 4.3570
 1.9530	 4.4100
 1.9540	 4.4590
 1.9550	 4.5090
 1.9560	 4.5590
 1.9570	 4.6100
 1.9580	 4.6590
 1.9590	 4.7130
 1.9600	 4.7720
 1.9610	 4.8270
 1.9620	 4.8820
 1.9630	 4.9370
 1.9640	 4.9970
 1.9650	 5.0550
 1.9660	 5.1230
 1.9670	 5.1940
 1.9680	 5.2590
 1.9690	 5.3210
 1.9700	 5.3880
 1.9710	 5.4540
 1.9720	 5.5210
 1.9730	 5.5940
 1.9740	 5.6620
 1.9750	 5.7300
 1.9760	 5.8000
 1.9770	 5.8700
 1.9780	 5.9480
 1.9790	 6.0220
 1.9800	 6.0900
 1.9810	 6.1660
 1.9820	 6.2480
 1.9830	 6.3250
 1.9840	 6.4060
 1.9850	 6.4840
 1.9860	 6.5570
 1.9870	 6.6290
 1.9880	 6.7070
 1.9890	 6.7800
 1.9900	 6.8560
 1.9910	 6.9330
 1.9920	 7.0130
 1.9930	 7.0960
 1.9940	 7.1790
 1.9950	 7.2660
 1.9960	 7.3500
 1.9970	 7.4320
 1.9980	 7.5160
 1.9990	 7.6010
 2.0000	 7.6850
 2.0010	 7.7670
 2.0020	 7.8480
 2.0030	 7.9300
 2.0040	 8.0120
 2.0050	 8.0970
 2.0060	 8.1880
 2.0070	 8.2740
 2.0080	 8.3640
 2.0090	 8.4470
 2.0100	 8.5240
 2.0110	 8.6060
 2.0120	 8.6890
 2.0130	 8.7660
 2.0140	 8.8460
 2.0150	 8.9310
 2.0160	 9.0110
 2.0170	 9.0890
 2.0180	 9.1680
 2.0190	 9.2470
 2.0200	 9.3280
 2.0210	 9.4120
 2.0220	 9.4920
 2.0230	 9.5700
 2.0240	 9.6490
 2.0250	 9.7230
 2.0260	 9.8000
 2.0270	 9.8810
 2.0280	 9.9630
 2.0290	10.0420
 2.0300	10.1200
 2.0310	10.1920
 2.0320	10.2580
 2.0330	10.3300
 2.0340	10.4000
 2.0350	10.4690
 2.0360	10.5400
 2.0370	10.6110
 2.0380	10.6760
 2.0390	10.7470
 2.0400	10.8260
 2.0410	10.9000
 2.0420	10.9760
 2.0430	11.0500
 2.0440	11.1220
 2.0450	11.1920
 2.0460	11.2610
 2.0470	11.3290
 2.0480	11.3950
 2.0490	11.4560
 2.0500	11.5200
 2.0510	11.5810
 2.0520	11.6470
 2.0530	11.7190
 2.0540	11.7880
 2.0550	11.8590
 2.0560	11.9310
 2.0570	11.9950
 2.0580	12.0580
 2.0590	12.1260
 2.0600	12.1930
 2.0610	12.2590
 2.0620	12.3290
 2.0630	12.3970
 2.0640	12.4620
 2.0650	12.5280
 2.0660	12.5940
 2.0670	12.6600
 2.0680	12.7200
 2.0690	12.7870
 2.0700	12.8610
 2.0710	12.9300
 2.0720	12.9990
 2.0730	13.0640
 2.0740	13.1330
 2.0750	13.2010
 2.0760	13.2680
 2.0770	13.3420
 2.0780	13.4070
 2.0790	13.4660
 2.0800	13.5270
 2.0810	13.5870
 2.0820	13.6460
 2.0830	13.7020
 2.0840	13.7630
 2.0850	13.8260
 2.0860	13.8900
 2.0870	13.9600
 2.0880	14.0270
 2.0890	14.0930
 2.0900	14.1590
 2.0910	14.2210
 2.0920	14.2820
 2.0930	14.3400
 2.0940	14.3880
 2.0950	14.4480
 2.0960	14.5120
 2.0970	14.5760
 2.0980	14.6500
 2.0990	14.7170
 2.1000	14.7820
 2.1010	14.8440
 2.1020	14.9010
 2.1030	14.9590
 2.1040	15.0140
 2.1050	15.0690
 2.1060	15.1250
 2.1070	15.1810
 2.1080	15.2360
 2.1090	15.2930
 2.1100	15.3470
 2.1110	15.3990
 2.1120	15.4540
 2.1130	15.5120
 2.1140	15.5670
 2.1150	15.6260
 2.1160	15.6800
 2.1170	15.7260
 2.1180	15.7770
 2.1190	15.8290
 2.1200	15.8800
 2.1210	15.9340
 2.1220	15.9870
 2.1230	16.0430
 2.1240	16.1030
 2.1250	16.1550
 2.1260	16.2060
 2.1270	16.2560
 2.1280	16.3010
 2.1290	16.3440
 2.1300	16.3880
 2.1310	16.4280
 2.1320	16.4560
 2.1330	16.4930
 2.1340	16.5350
 2.1350	16.5740
 2.1360	16.6120
 2.1370	16.6520
 2.1380	16.6920
 2.1390	16.7290
 2.1400	16.7680
 2.1410	16.8040
 2.1420	16.8380
 2.1430	16.8690
 2.1440	16.8990
 2.1450	16.9270
 2.1460	16.9550
 2.1470	16.9820
 2.1480	17.0070
 2.1490	17.0290
 2.1500	17.0570
 2.1510	17.0860
 2.1520	17.1150
 2.1530	17.1550
 2.1540	17.1840
 2.1550	17.2060
 2.1560	17.2300
 2.1570	17.2530
 2.1580	17.2740
 2.1590	17.2960
 2.1600	17.3140
 2.1610	17.3320
 2.1620	17.3500
 2.1630	17.3660
 2.1640	17.3830
 2.1650	17.3950
 2.1660	17.4010
 2.1670	17.4110
 2.1680	17.4190
 2.1690	17.4300
 2.1700	17.4450
 2.1710	17.4590
 2.1720	17.4720
 2.1730	17.4890
 2.1740	17.5110
 2.1750	17.5270
 2.1760	17.5420
 2.1770	17.5570
 2.1780	17.5610
 2.1790	17.5750
 2.1800	17.5950
 2.1810	17.6160
 2.1820	17.6420
 2.1830	17.6710
 2.1840	17.6940
 2.1850	17.7190
 2.1860	17.7330
 2.1870	17.7390
 2.1880	17.7450
 2.1890	17.7380
 2.1900	17.7500
 2.1910	17.7710
 2.1920	17.7860
 2.1930	17.8100
 2.1940	17.8260
 2.1950	17.8340
 2.1960	17.8440
 2.1970	17.8590
 2.1980	17.8660
 2.1990	17.8640
 2.2000	17.8670
 2.2010	17.8670
 2.2020	17.8670
 2.2030	17.8710
 2.2040	17.8690
 2.2050	17.8550
 2.2060	17.8480
 2.2070	17.8490
 2.2080	17.8530
 2.2090	17.8590
 2.2100	17.8780
 2.2110	17.8840
 2.2120	17.8850
 2.2130	17.8850
 2.2140	17.8820
 2.2150	17.8790
 2.2160	17.8720
 2.2170	17.8660
 2.2180	17.8600
 2.2190	17.8540
 2.2200	17.8500
 2.2210	17.8420
 2.2220	17.8360
 2.2230	17.8230
 2.2240	17.7990
 2.2250	17.7820
 2.2260	17.7650
 2.2270	17.7480
 2.2280	17.7390
 2.2290	17.7200
 2.2300	17.6940
 2.2310	17.6610
 2.2320	17.6320
 2.2330	17.5990
 2.2340	17.5710
 2.2350	17.5500
 2.2360	17.5190
 2.2370	17.4820
 2.2380	17.4520
 2.2390	17.4220
 2.2400	17.3910
 2.2410	17.3680
 2.2420	17.3280
 2.2430	17.2740
 2.2440	17.2260
 2.2450	17.1690
 2.2460	17.1200
 2.2470	17.0730
 2.2480	17.0280
 2.2490	16.9910
 2.2500	16.9440
 2.2510	16.8900
 2.2520	16.8410
 2.2530	16.7810
 2.2540	16.7330
 2.2550	16.7050
 2.2560	16.6600
 2.2570	16.6100
 2.2580	16.5600
 2.2590	16.5030
 2.2600	16.4440
 2.2610	16.3840
 2.2620	16.3220
 2.2630	16.2620
 2.2640	16.2080
 2.2650	16.1630
 2.2660	16.1170
 2.2670	16.0710
 2.2680	16.0240
 2.2690	15.9740
 2.2700	15.9210
 2.2710	15.8770
 2.2720	15.8350
 2.2730	15.7900
 2.2740	15.7540
 2.2750	15.7110
 2.2760	15.6620
 2.2770	15.6160
 2.2780	15.5670
 2.2790	15.5260
 2.2800	15.4870
 2.2810	15.4480
 2.2820	15.4210
 2.2830	15.3800
 2.2840	15.3280
 2.2850	15.2800
 2.2860	15.2250
 2.2870	15.1740
 2.2880	15.1200
 2.2890	15.0750
 2.2900	15.0400
 2.2910	14.9960
 2.2920	14.9650
 2.2930	14.9170
 2.2940	14.8470
 2.2950	14.7880
 2.2960	14.7220
 2.2970	14.6580
 2.2980	14.6030
 2.2990	14.5420
 2.3000	14.4710
 2.3010	14.4080
 2.3020	14.3430
 2.3030	14.2850
 2.3040	14.2290
 2.3050	14.1770
 2.3060	14.1200
 2.3070	14.0610
 2.3080	14.0030
 2.3090	13.9460
 2.3100	13.8930
 2.3110	13.8440
 2.3120	13.8050
 2.3130	13.7740
 2.3140	13.7420
 2.3150	13.7210
 2.3160	13.6900
 2.3170	13.6550
 2.3180	13.6250
 2.3190	13.5940
 2.3200	13.5640
 2.3210	13.5380
 2.3220	13.5040
 2.3230	13.4670
 2.3240	13.4280
 2.3250	13.3840
 2.3260	13.3440
 2.3270	13.3070
 2.3280	13.2640
 2.3290	13.2220
 2.3300	13.1710
 2.3310	13.1100
 2.3320	13.0530
 2.3330	12.9910
 2.3340	12.9350
 2.3350	12.8850
 2.3360	12.8320
 2.3370	12.7800
 2.3380	12.7280
 2.3390	12.6800
 2.3400	12.6240
 2.3410	12.5680
 2.3420	12.5090
 2.3430	12.4420
 2.3440	12.3780
 2.3450	12.3130
 2.3460	12.2470
 2.3470	12.1690
 2.3480	12.1060
 2.3490	12.0500
 2.3500	12.0020
 2.3510	11.9740
 2.3520	11.9320
 2.3530	11.8920
 2.3540	11.8340
 2.3550	11.7780
 2.3560	11.7370
 2.3570	11.6950
 2.3580	11.6650
 2.3590	11.6220
 2.3600	11.5770
 2.3610	11.5460
 2.3620	11.4980
 2.3630	11.4630
 2.3640	11.4320
 2.3650	11.3710
 2.3660	11.3110
 2.3670	11.2430
 2.3680	11.1770
 2.3690	11.1340
 2.3700	11.0940
 2.3710	11.0460
 2.3720	10.9900
 2.3730	10.9170
 2.3740	10.8480
 2.3750	10.7900
 2.3760	10.7170
 2.3770	10.6560
 2.3780	10.6000
 2.3790	10.5260
 2.3800	10.4710
 2.3810	10.4240
 2.3820	10.3710
 2.3830	10.3230
 2.3840	10.2890
 2.3850	10.2590
 2.3860	10.2100
 2.3870	10.1580
 2.3880	10.0870
 2.3890	 9.9940
 2.3900	 9.9130
 2.3910	 9.8510
 2.3920	 9.7910
 2.3930	 9.7410
 2.3940	 9.6930
 2.3950	 9.6280
 2.3960	 9.5760
 2.3970	 9.5310
 2.3980	 9.4880
 2.3990	 9.4630
 2.4000	 9.4450
 2.4010	 9.4120
 2.4020	 9.3470
 2.4030	 9.3030
 2.4040	 9.2470
 2.4050	 9.1710
 2.4060	 9.1410
 2.4070	 9.0790
 2.4080	 8.9840
 2.4090	 8.9350
 2.4100	 8.8780
 2.4110	 8.8010
 2.4120	 8.7480
 2.4130	 8.6860
 2.4140	 8.6280
 2.4150	 8.6050
 2.4160	 8.5780
 2.4170	 8.5220
 2.4180	 8.4560
 2.4190	 8.3700
 2.4200	 8.2960
 2.4210	 8.2350
 2.4220	 8.1510
 2.4230	 8.1060
 2.4240	 8.0590
 2.4250	 8.0020
 2.4260	 7.9770
 2.4270	 7.9210
 2.4280	 7.8320
 2.4290	 7.7730
 2.4300	 7.7200
 2.4310	 7.6430
 2.4320	 7.5790
 2.4330	 7.4970
 2.4340	 7.4330
 2.4350	 7.3910
 2.4360	 7.3630
 2.4370	 7.3740
 2.4380	 7.3360
 2.4390	 7.2950
 2.4400	 7.2420
 2.4410	 7.1340
 2.4420	 7.0690
 2.4430	 7.0060
 2.4440	 6.9480
 2.4450	 6.8990
 2.4460	 6.8150
 2.4470	 6.7610
 2.4480	 6.7060
 2.4490	 6.6730
 2.4500	 6.6790
 2.4510	 6.6320
 2.4520	 6.5570
 2.4530	 6.4870
 2.4540	 6.4220
 2.4550	 6.3330
 2.4560	 6.2830
 2.4570	 6.2610
 2.4580	 6.1830
 2.4590	 6.1560
 2.4600	 6.1320
 2.4610	 6.0430
 2.4620	 5.9910
 2.4630	 5.9650
 2.4640	 5.9170
 2.4650	 5.9040
 2.4660	 5.9230
 2.4670	 5.8580
 2.4680	 5.8060
 2.4690	 5.8250
 2.4700	 5.7700
 2.4710	 5.7120
 2.4720	 5.6420
 2.4730	 5.4850
 2.4740	 5.3960
 2.4750	 5.3860
 2.4760	 5.3490
 2.4770	 5.2860
 2.4780	 5.2660
 2.4790	 5.2600
 2.4800	 5.2220
 2.4810	 5.2220
 2.4820	 5.1330
 2.4830	 5.0480
 2.4840	 4.9800
 2.4850	 4.9660
 2.4860	 5.0080
 2.4870	 5.0790
 2.4880	 5.1580
 2.4890	 5.1610
 2.4900	 5.1400
 2.4910	 5.1140
 2.4920	 5.0520
 2.4930	 5.0330
 2.4940	 5.0170
 2.4950	 4.9080
 2.4960	 4.8240
 2.4970	 4.7820
 2.4980	 4.6640
 2.4990	 4.6820
 2.5000	 4.7830
