Name: Heteromeles arbutifolia 1
Type: vegetation
Class: Shrub
Genus: Heteromeles
Species: arbutifolia
Sample No.: VH133
Owner: UCSB
Wavelength Range: VSWIR
Origin: 34.4907; -119.791; WGS84
Collection Date: 6/3/2013
Description: Samples were collected as part of the HyspIRI Airborne Campaign. 48 individual plants were sampled in three times in 2013 - spring  summer  and fall. The name of the sample includes a 1  2  or 3 which references a different individual of the species. Samples were taken to JPL and processed within 48 hours of collection. The same leaves were processed in the Nicolet and then measured using the ASD.
Measurement: Bidirectional reflectance
First Column: X
Second Column: Y
X Units: Wavelength (micrometers)
Y Units: Reflectance (percentage)
First X Value: 0.35
Last X Value: 2.5
Number of X Values: 2151
Additional Information: vegetation.shrub.heteromeles.arbutifolia.vswir.vh133.ucsb.asd.ancillary.txt

 0.3500	 5.3700
 0.3510	 5.2880
 0.3520	 5.2880
 0.3530	 5.2240
 0.3540	 5.0720
 0.3550	 5.2350
 0.3560	 5.2520
 0.3570	 5.1460
 0.3580	 5.1630
 0.3590	 5.1760
 0.3600	 5.0870
 0.3610	 4.9450
 0.3620	 4.9830
 0.3630	 4.9770
 0.3640	 4.9290
 0.3650	 4.8960
 0.3660	 4.9110
 0.3670	 4.9800
 0.3680	 5.0440
 0.3690	 5.0120
 0.3700	 5.0040
 0.3710	 4.9810
 0.3720	 4.9200
 0.3730	 4.8660
 0.3740	 4.9160
 0.3750	 4.9710
 0.3760	 4.9290
 0.3770	 5.0140
 0.3780	 5.0190
 0.3790	 4.9330
 0.3800	 4.9180
 0.3810	 4.9190
 0.3820	 4.9260
 0.3830	 4.9290
 0.3840	 4.8950
 0.3850	 4.8910
 0.3860	 4.9170
 0.3870	 4.9350
 0.3880	 4.8480
 0.3890	 4.8190
 0.3900	 4.8720
 0.3910	 4.8770
 0.3920	 4.9150
 0.3930	 4.9340
 0.3940	 4.9010
 0.3950	 4.8920
 0.3960	 4.9110
 0.3970	 4.9410
 0.3980	 4.9520
 0.3990	 4.9160
 0.4000	 4.9370
 0.4010	 5.0050
 0.4020	 4.9490
 0.4030	 4.9600
 0.4040	 5.0080
 0.4050	 5.0250
 0.4060	 4.9850
 0.4070	 4.9820
 0.4080	 5.0150
 0.4090	 5.0230
 0.4100	 5.0550
 0.4110	 5.0570
 0.4120	 5.0250
 0.4130	 5.0640
 0.4140	 5.0660
 0.4150	 5.0530
 0.4160	 5.0720
 0.4170	 5.0720
 0.4180	 5.0910
 0.4190	 5.1230
 0.4200	 5.1240
 0.4210	 5.1160
 0.4220	 5.1150
 0.4230	 5.1250
 0.4240	 5.1320
 0.4250	 5.1430
 0.4260	 5.1530
 0.4270	 5.1490
 0.4280	 5.1290
 0.4290	 5.1190
 0.4300	 5.1290
 0.4310	 5.1600
 0.4320	 5.1630
 0.4330	 5.1570
 0.4340	 5.1680
 0.4350	 5.1680
 0.4360	 5.1710
 0.4370	 5.1780
 0.4380	 5.1810
 0.4390	 5.1620
 0.4400	 5.1420
 0.4410	 5.1380
 0.4420	 5.1390
 0.4430	 5.1390
 0.4440	 5.1420
 0.4450	 5.1500
 0.4460	 5.1470
 0.4470	 5.1460
 0.4480	 5.1510
 0.4490	 5.1510
 0.4500	 5.1640
 0.4510	 5.1720
 0.4520	 5.1650
 0.4530	 5.1700
 0.4540	 5.1810
 0.4550	 5.1860
 0.4560	 5.1800
 0.4570	 5.1810
 0.4580	 5.1790
 0.4590	 5.1710
 0.4600	 5.1780
 0.4610	 5.1780
 0.4620	 5.1720
 0.4630	 5.1660
 0.4640	 5.1710
 0.4650	 5.1750
 0.4660	 5.1710
 0.4670	 5.1640
 0.4680	 5.1600
 0.4690	 5.1580
 0.4700	 5.1560
 0.4710	 5.1580
 0.4720	 5.1550
 0.4730	 5.1490
 0.4740	 5.1500
 0.4750	 5.1440
 0.4760	 5.1400
 0.4770	 5.1400
 0.4780	 5.1370
 0.4790	 5.1440
 0.4800	 5.1470
 0.4810	 5.1310
 0.4820	 5.1330
 0.4830	 5.1450
 0.4840	 5.1590
 0.4850	 5.1650
 0.4860	 5.1630
 0.4870	 5.1640
 0.4880	 5.1720
 0.4890	 5.1790
 0.4900	 5.1900
 0.4910	 5.2000
 0.4920	 5.2030
 0.4930	 5.2100
 0.4940	 5.2220
 0.4950	 5.2370
 0.4960	 5.2510
 0.4970	 5.2740
 0.4980	 5.2980
 0.4990	 5.3160
 0.5000	 5.3310
 0.5010	 5.3580
 0.5020	 5.3960
 0.5030	 5.4360
 0.5040	 5.4780
 0.5050	 5.5230
 0.5060	 5.5720
 0.5070	 5.6330
 0.5080	 5.7000
 0.5090	 5.7740
 0.5100	 5.8550
 0.5110	 5.9440
 0.5120	 6.0450
 0.5130	 6.1580
 0.5140	 6.2750
 0.5150	 6.4020
 0.5160	 6.5430
 0.5170	 6.6970
 0.5180	 6.8620
 0.5190	 7.0320
 0.5200	 7.2070
 0.5210	 7.3910
 0.5220	 7.5850
 0.5230	 7.7770
 0.5240	 7.9600
 0.5250	 8.1480
 0.5260	 8.3260
 0.5270	 8.4950
 0.5280	 8.6610
 0.5290	 8.8110
 0.5300	 8.9490
 0.5310	 9.0800
 0.5320	 9.2010
 0.5330	 9.3060
 0.5340	 9.3980
 0.5350	 9.4830
 0.5360	 9.5610
 0.5370	 9.6290
 0.5380	 9.6860
 0.5390	 9.7400
 0.5400	 9.7900
 0.5410	 9.8420
 0.5420	 9.8980
 0.5430	 9.9460
 0.5440	 9.9900
 0.5450	10.0270
 0.5460	10.0530
 0.5470	10.0640
 0.5480	10.0690
 0.5490	10.0770
 0.5500	10.0910
 0.5510	10.0990
 0.5520	10.0990
 0.5530	10.0890
 0.5540	10.0660
 0.5550	10.0310
 0.5560	 9.9840
 0.5570	 9.9280
 0.5580	 9.8590
 0.5590	 9.7780
 0.5600	 9.6870
 0.5610	 9.5870
 0.5620	 9.4790
 0.5630	 9.3630
 0.5640	 9.2430
 0.5650	 9.1220
 0.5660	 8.9970
 0.5670	 8.8690
 0.5680	 8.7410
 0.5690	 8.6110
 0.5700	 8.4810
 0.5710	 8.3490
 0.5720	 8.2190
 0.5730	 8.0950
 0.5740	 7.9800
 0.5750	 7.8750
 0.5760	 7.7760
 0.5770	 7.6830
 0.5780	 7.5960
 0.5790	 7.5210
 0.5800	 7.4510
 0.5810	 7.3810
 0.5820	 7.3100
 0.5830	 7.2470
 0.5840	 7.1900
 0.5850	 7.1370
 0.5860	 7.0900
 0.5870	 7.0480
 0.5880	 7.0120
 0.5890	 6.9800
 0.5900	 6.9450
 0.5910	 6.9050
 0.5920	 6.8640
 0.5930	 6.8310
 0.5940	 6.8040
 0.5950	 6.7800
 0.5960	 6.7570
 0.5970	 6.7350
 0.5980	 6.7170
 0.5990	 6.6990
 0.6000	 6.6760
 0.6010	 6.6530
 0.6020	 6.6260
 0.6030	 6.5970
 0.6040	 6.5680
 0.6050	 6.5320
 0.6060	 6.4920
 0.6070	 6.4510
 0.6080	 6.4110
 0.6090	 6.3770
 0.6100	 6.3500
 0.6110	 6.3280
 0.6120	 6.2810
 0.6130	 6.2210
 0.6140	 6.1640
 0.6150	 6.1160
 0.6160	 6.0720
 0.6170	 6.0320
 0.6180	 5.9950
 0.6190	 5.9620
 0.6200	 5.9340
 0.6210	 5.9100
 0.6220	 5.8900
 0.6230	 5.8700
 0.6240	 5.8510
 0.6250	 5.8370
 0.6260	 5.8260
 0.6270	 5.8150
 0.6280	 5.8050
 0.6290	 5.8010
 0.6300	 5.7950
 0.6310	 5.7880
 0.6320	 5.7790
 0.6330	 5.7650
 0.6340	 5.7460
 0.6350	 5.7240
 0.6360	 5.6980
 0.6370	 5.6700
 0.6380	 5.6360
 0.6390	 5.5980
 0.6400	 5.5610
 0.6410	 5.5170
 0.6420	 5.4740
 0.6430	 5.4380
 0.6440	 5.4010
 0.6450	 5.3650
 0.6460	 5.3290
 0.6470	 5.2910
 0.6480	 5.2600
 0.6490	 5.2350
 0.6500	 5.2140
 0.6510	 5.1960
 0.6520	 5.1820
 0.6530	 5.1690
 0.6540	 5.1560
 0.6550	 5.1420
 0.6560	 5.1280
 0.6570	 5.1120
 0.6580	 5.0920
 0.6590	 5.0740
 0.6600	 5.0560
 0.6610	 5.0400
 0.6620	 5.0250
 0.6630	 5.0120
 0.6640	 4.9970
 0.6650	 4.9820
 0.6660	 4.9780
 0.6670	 4.9760
 0.6680	 4.9740
 0.6690	 4.9750
 0.6700	 4.9830
 0.6710	 4.9930
 0.6720	 5.0030
 0.6730	 5.0170
 0.6740	 5.0350
 0.6750	 5.0560
 0.6760	 5.0790
 0.6770	 5.1070
 0.6780	 5.1360
 0.6790	 5.1690
 0.6800	 5.2080
 0.6810	 5.2460
 0.6820	 5.2870
 0.6830	 5.3310
 0.6840	 5.3780
 0.6850	 5.4290
 0.6860	 5.4860
 0.6870	 5.5530
 0.6880	 5.6270
 0.6890	 5.7220
 0.6900	 5.8450
 0.6910	 5.9950
 0.6920	 6.1860
 0.6930	 6.4250
 0.6940	 6.7190
 0.6950	 7.0680
 0.6960	 7.4880
 0.6970	 7.9760
 0.6980	 8.5260
 0.6990	 9.1460
 0.7000	 9.8290
 0.7010	10.5690
 0.7020	11.3600
 0.7030	12.1960
 0.7040	13.0710
 0.7050	13.9760
 0.7060	14.9020
 0.7070	15.8530
 0.7080	16.8210
 0.7090	17.8020
 0.7100	18.7970
 0.7110	19.8040
 0.7120	20.8180
 0.7130	21.8380
 0.7140	22.8600
 0.7150	23.8890
 0.7160	24.9220
 0.7170	25.9480
 0.7180	26.9650
 0.7190	27.9720
 0.7200	28.9720
 0.7210	29.9570
 0.7220	30.9220
 0.7230	31.8630
 0.7240	32.7780
 0.7250	33.6720
 0.7260	34.5330
 0.7270	35.3540
 0.7280	36.1490
 0.7290	36.9100
 0.7300	37.6360
 0.7310	38.3300
 0.7320	38.9860
 0.7330	39.6040
 0.7340	40.1870
 0.7350	40.7400
 0.7360	41.2610
 0.7370	41.7470
 0.7380	42.1950
 0.7390	42.6170
 0.7400	43.0090
 0.7410	43.3740
 0.7420	43.7190
 0.7430	44.0290
 0.7440	44.3140
 0.7450	44.5800
 0.7460	44.8230
 0.7470	45.0390
 0.7480	45.2320
 0.7490	45.4050
 0.7500	45.5720
 0.7510	45.7210
 0.7520	45.8530
 0.7530	45.9710
 0.7540	46.0720
 0.7550	46.1640
 0.7560	46.2490
 0.7570	46.3260
 0.7580	46.3910
 0.7590	46.4480
 0.7600	46.5010
 0.7610	46.5470
 0.7620	46.5880
 0.7630	46.6250
 0.7640	46.6570
 0.7650	46.6840
 0.7660	46.7050
 0.7670	46.7210
 0.7680	46.7380
 0.7690	46.7510
 0.7700	46.7620
 0.7710	46.7720
 0.7720	46.7830
 0.7730	46.7890
 0.7740	46.7980
 0.7750	46.8140
 0.7760	46.8140
 0.7770	46.8180
 0.7780	46.8240
 0.7790	46.8220
 0.7800	46.8290
 0.7810	46.8380
 0.7820	46.8450
 0.7830	46.8460
 0.7840	46.8540
 0.7850	46.8620
 0.7860	46.8650
 0.7870	46.8700
 0.7880	46.8700
 0.7890	46.8710
 0.7900	46.8780
 0.7910	46.8840
 0.7920	46.8880
 0.7930	46.8890
 0.7940	46.8880
 0.7950	46.8900
 0.7960	46.8910
 0.7970	46.8900
 0.7980	46.8980
 0.7990	46.9000
 0.8000	46.8980
 0.8010	46.8970
 0.8020	46.8970
 0.8030	46.8930
 0.8040	46.8880
 0.8050	46.8860
 0.8060	46.8840
 0.8070	46.8820
 0.8080	46.8790
 0.8090	46.8690
 0.8100	46.8640
 0.8110	46.8620
 0.8120	46.8590
 0.8130	46.8510
 0.8140	46.8510
 0.8150	46.8530
 0.8160	46.8480
 0.8170	46.8340
 0.8180	46.8250
 0.8190	46.8210
 0.8200	46.8140
 0.8210	46.8040
 0.8220	46.7950
 0.8230	46.7890
 0.8240	46.7800
 0.8250	46.7710
 0.8260	46.7650
 0.8270	46.7600
 0.8280	46.7460
 0.8290	46.7340
 0.8300	46.7240
 0.8310	46.7160
 0.8320	46.7110
 0.8330	46.7010
 0.8340	46.6900
 0.8350	46.6900
 0.8360	46.6830
 0.8370	46.6790
 0.8380	46.6770
 0.8390	46.6670
 0.8400	46.6590
 0.8410	46.6560
 0.8420	46.6540
 0.8430	46.6420
 0.8440	46.6430
 0.8450	46.6480
 0.8460	46.6470
 0.8470	46.6300
 0.8480	46.6230
 0.8490	46.6250
 0.8500	46.6250
 0.8510	46.6210
 0.8520	46.6230
 0.8530	46.6260
 0.8540	46.6180
 0.8550	46.6170
 0.8560	46.6200
 0.8570	46.6200
 0.8580	46.6100
 0.8590	46.6100
 0.8600	46.6110
 0.8610	46.6060
 0.8620	46.6050
 0.8630	46.6060
 0.8640	46.6070
 0.8650	46.6050
 0.8660	46.5950
 0.8670	46.5920
 0.8680	46.5970
 0.8690	46.6050
 0.8700	46.6080
 0.8710	46.6090
 0.8720	46.6100
 0.8730	46.6090
 0.8740	46.6080
 0.8750	46.6090
 0.8760	46.6110
 0.8770	46.6110
 0.8780	46.6040
 0.8790	46.6030
 0.8800	46.6090
 0.8810	46.6060
 0.8820	46.6070
 0.8830	46.6140
 0.8840	46.6210
 0.8850	46.6210
 0.8860	46.6170
 0.8870	46.6150
 0.8880	46.6200
 0.8890	46.6270
 0.8900	46.6250
 0.8910	46.6190
 0.8920	46.6170
 0.8930	46.6160
 0.8940	46.6180
 0.8950	46.6220
 0.8960	46.6230
 0.8970	46.6210
 0.8980	46.6240
 0.8990	46.6290
 0.9000	46.6250
 0.9010	46.6200
 0.9020	46.6170
 0.9030	46.6200
 0.9040	46.6290
 0.9050	46.6270
 0.9060	46.6190
 0.9070	46.6130
 0.9080	46.6190
 0.9090	46.6190
 0.9100	46.6220
 0.9110	46.6320
 0.9120	46.6280
 0.9130	46.6260
 0.9140	46.6230
 0.9150	46.6100
 0.9160	46.5970
 0.9170	46.6060
 0.9180	46.6190
 0.9190	46.6120
 0.9200	46.6110
 0.9210	46.6000
 0.9220	46.5870
 0.9230	46.5860
 0.9240	46.5700
 0.9250	46.5620
 0.9260	46.5630
 0.9270	46.5540
 0.9280	46.5390
 0.9290	46.5250
 0.9300	46.5130
 0.9310	46.4980
 0.9320	46.4810
 0.9330	46.4660
 0.9340	46.4550
 0.9350	46.4470
 0.9360	46.4210
 0.9370	46.3970
 0.9380	46.3800
 0.9390	46.3550
 0.9400	46.3340
 0.9410	46.3130
 0.9420	46.2910
 0.9430	46.2730
 0.9440	46.2430
 0.9450	46.2120
 0.9460	46.1820
 0.9470	46.1390
 0.9480	46.0960
 0.9490	46.0540
 0.9500	46.0110
 0.9510	45.9720
 0.9520	45.9180
 0.9530	45.8660
 0.9540	45.8280
 0.9550	45.7610
 0.9560	45.7090
 0.9570	45.6720
 0.9580	45.6340
 0.9590	45.5850
 0.9600	45.5400
 0.9610	45.5030
 0.9620	45.4710
 0.9630	45.4390
 0.9640	45.4130
 0.9650	45.3880
 0.9660	45.3610
 0.9670	45.3440
 0.9680	45.3270
 0.9690	45.3130
 0.9700	45.3070
 0.9710	45.2940
 0.9720	45.2760
 0.9730	45.2620
 0.9740	45.2590
 0.9750	45.2470
 0.9760	45.2450
 0.9770	45.2470
 0.9780	45.2400
 0.9790	45.2290
 0.9800	45.2350
 0.9810	45.2490
 0.9820	45.2480
 0.9830	45.2280
 0.9840	45.2390
 0.9850	45.2640
 0.9860	45.2600
 0.9870	45.2660
 0.9880	45.2790
 0.9890	45.2900
 0.9900	45.2920
 0.9910	45.3060
 0.9920	45.3380
 0.9930	45.3700
 0.9940	45.4020
 0.9950	45.4340
 0.9960	45.4660
 0.9970	45.4980
 0.9980	45.5300
 0.9990	45.5610
 1.0000	45.5930
 1.0010	45.6250
 1.0020	45.6570
 1.0030	45.6890
 1.0040	45.7210
 1.0050	45.7530
 1.0060	45.7840
 1.0070	45.8160
 1.0080	45.8480
 1.0090	45.8800
 1.0100	45.8800
 1.0110	45.8950
 1.0120	45.9100
 1.0130	45.9250
 1.0140	45.9420
 1.0150	45.9610
 1.0160	45.9790
 1.0170	45.9930
 1.0180	46.0110
 1.0190	46.0270
 1.0200	46.0390
 1.0210	46.0530
 1.0220	46.0640
 1.0230	46.0750
 1.0240	46.0810
 1.0250	46.0920
 1.0260	46.1070
 1.0270	46.1210
 1.0280	46.1380
 1.0290	46.1520
 1.0300	46.1660
 1.0310	46.1800
 1.0320	46.1930
 1.0330	46.2060
 1.0340	46.2200
 1.0350	46.2320
 1.0360	46.2400
 1.0370	46.2520
 1.0380	46.2610
 1.0390	46.2690
 1.0400	46.2760
 1.0410	46.2820
 1.0420	46.2890
 1.0430	46.2980
 1.0440	46.3060
 1.0450	46.3120
 1.0460	46.3200
 1.0470	46.3300
 1.0480	46.3370
 1.0490	46.3450
 1.0500	46.3520
 1.0510	46.3560
 1.0520	46.3580
 1.0530	46.3640
 1.0540	46.3750
 1.0550	46.3800
 1.0560	46.3860
 1.0570	46.3900
 1.0580	46.3880
 1.0590	46.3910
 1.0600	46.3960
 1.0610	46.4010
 1.0620	46.4070
 1.0630	46.4110
 1.0640	46.4160
 1.0650	46.4180
 1.0660	46.4130
 1.0670	46.4130
 1.0680	46.4130
 1.0690	46.4130
 1.0700	46.4130
 1.0710	46.4160
 1.0720	46.4160
 1.0730	46.4120
 1.0740	46.4120
 1.0750	46.4150
 1.0760	46.4150
 1.0770	46.4150
 1.0780	46.4150
 1.0790	46.4150
 1.0800	46.4130
 1.0810	46.4080
 1.0820	46.4050
 1.0830	46.4010
 1.0840	46.3960
 1.0850	46.3930
 1.0860	46.3900
 1.0870	46.3850
 1.0880	46.3780
 1.0890	46.3700
 1.0900	46.3620
 1.0910	46.3550
 1.0920	46.3470
 1.0930	46.3380
 1.0940	46.3310
 1.0950	46.3230
 1.0960	46.3150
 1.0970	46.3060
 1.0980	46.2980
 1.0990	46.2880
 1.1000	46.2760
 1.1010	46.2670
 1.1020	46.2610
 1.1030	46.2520
 1.1040	46.2410
 1.1050	46.2310
 1.1060	46.2200
 1.1070	46.2080
 1.1080	46.1960
 1.1090	46.1850
 1.1100	46.1710
 1.1110	46.1530
 1.1120	46.1370
 1.1130	46.1210
 1.1140	46.1040
 1.1150	46.0910
 1.1160	46.0730
 1.1170	46.0520
 1.1180	46.0310
 1.1190	46.0070
 1.1200	45.9810
 1.1210	45.9550
 1.1220	45.9280
 1.1230	45.8960
 1.1240	45.8600
 1.1250	45.8200
 1.1260	45.7770
 1.1270	45.7280
 1.1280	45.6750
 1.1290	45.6180
 1.1300	45.5560
 1.1310	45.4880
 1.1320	45.4150
 1.1330	45.3360
 1.1340	45.2500
 1.1350	45.1610
 1.1360	45.0670
 1.1370	44.9680
 1.1380	44.8660
 1.1390	44.7580
 1.1400	44.6450
 1.1410	44.5340
 1.1420	44.4210
 1.1430	44.3050
 1.1440	44.1910
 1.1450	44.0750
 1.1460	43.9630
 1.1470	43.8510
 1.1480	43.7450
 1.1490	43.6410
 1.1500	43.5450
 1.1510	43.4520
 1.1520	43.3660
 1.1530	43.2850
 1.1540	43.2100
 1.1550	43.1400
 1.1560	43.0770
 1.1570	43.0200
 1.1580	42.9680
 1.1590	42.9220
 1.1600	42.8810
 1.1610	42.8450
 1.1620	42.8130
 1.1630	42.7850
 1.1640	42.7590
 1.1650	42.7360
 1.1660	42.7160
 1.1670	42.6960
 1.1680	42.6780
 1.1690	42.6610
 1.1700	42.6460
 1.1710	42.6310
 1.1720	42.6200
 1.1730	42.6080
 1.1740	42.5940
 1.1750	42.5810
 1.1760	42.5670
 1.1770	42.5540
 1.1780	42.5380
 1.1790	42.5210
 1.1800	42.5060
 1.1810	42.4880
 1.1820	42.4700
 1.1830	42.4560
 1.1840	42.4400
 1.1850	42.4240
 1.1860	42.4100
 1.1870	42.3950
 1.1880	42.3820
 1.1890	42.3710
 1.1900	42.3610
 1.1910	42.3510
 1.1920	42.3420
 1.1930	42.3350
 1.1940	42.3280
 1.1950	42.3190
 1.1960	42.3150
 1.1970	42.3160
 1.1980	42.3170
 1.1990	42.3200
 1.2000	42.3250
 1.2010	42.3280
 1.2020	42.3330
 1.2030	42.3390
 1.2040	42.3470
 1.2050	42.3580
 1.2060	42.3680
 1.2070	42.3810
 1.2080	42.3960
 1.2090	42.4120
 1.2100	42.4300
 1.2110	42.4500
 1.2120	42.4730
 1.2130	42.4950
 1.2140	42.5180
 1.2150	42.5410
 1.2160	42.5640
 1.2170	42.5880
 1.2180	42.6140
 1.2190	42.6400
 1.2200	42.6640
 1.2210	42.6890
 1.2220	42.7160
 1.2230	42.7420
 1.2240	42.7690
 1.2250	42.7950
 1.2260	42.8180
 1.2270	42.8410
 1.2280	42.8640
 1.2290	42.8860
 1.2300	42.9100
 1.2310	42.9340
 1.2320	42.9550
 1.2330	42.9740
 1.2340	42.9920
 1.2350	43.0060
 1.2360	43.0240
 1.2370	43.0420
 1.2380	43.0590
 1.2390	43.0780
 1.2400	43.0940
 1.2410	43.1090
 1.2420	43.1230
 1.2430	43.1370
 1.2440	43.1520
 1.2450	43.1660
 1.2460	43.1790
 1.2470	43.1930
 1.2480	43.2040
 1.2490	43.2150
 1.2500	43.2250
 1.2510	43.2320
 1.2520	43.2390
 1.2530	43.2460
 1.2540	43.2540
 1.2550	43.2620
 1.2560	43.2690
 1.2570	43.2750
 1.2580	43.2790
 1.2590	43.2830
 1.2600	43.2880
 1.2610	43.2910
 1.2620	43.2930
 1.2630	43.2940
 1.2640	43.2940
 1.2650	43.2920
 1.2660	43.2900
 1.2670	43.2880
 1.2680	43.2840
 1.2690	43.2810
 1.2700	43.2770
 1.2710	43.2720
 1.2720	43.2650
 1.2730	43.2580
 1.2740	43.2510
 1.2750	43.2440
 1.2760	43.2350
 1.2770	43.2240
 1.2780	43.2100
 1.2790	43.1950
 1.2800	43.1810
 1.2810	43.1660
 1.2820	43.1510
 1.2830	43.1360
 1.2840	43.1210
 1.2850	43.1020
 1.2860	43.0800
 1.2870	43.0570
 1.2880	43.0330
 1.2890	43.0070
 1.2900	42.9800
 1.2910	42.9540
 1.2920	42.9240
 1.2930	42.8910
 1.2940	42.8590
 1.2950	42.8250
 1.2960	42.7890
 1.2970	42.7520
 1.2980	42.7110
 1.2990	42.6680
 1.3000	42.6250
 1.3010	42.5790
 1.3020	42.5320
 1.3030	42.4820
 1.3040	42.4290
 1.3050	42.3760
 1.3060	42.3170
 1.3070	42.2570
 1.3080	42.1940
 1.3090	42.1290
 1.3100	42.0630
 1.3110	41.9970
 1.3120	41.9280
 1.3130	41.8540
 1.3140	41.7770
 1.3150	41.6950
 1.3160	41.6120
 1.3170	41.5270
 1.3180	41.4390
 1.3190	41.3460
 1.3200	41.2530
 1.3210	41.1540
 1.3220	41.0530
 1.3230	40.9520
 1.3240	40.8470
 1.3250	40.7410
 1.3260	40.6330
 1.3270	40.5230
 1.3280	40.4110
 1.3290	40.2930
 1.3300	40.1760
 1.3310	40.0570
 1.3320	39.9340
 1.3330	39.8130
 1.3340	39.6910
 1.3350	39.5670
 1.3360	39.4440
 1.3370	39.3190
 1.3380	39.1920
 1.3390	39.0640
 1.3400	38.9360
 1.3410	38.8100
 1.3420	38.6870
 1.3430	38.5640
 1.3440	38.4430
 1.3450	38.3210
 1.3460	38.1980
 1.3470	38.0770
 1.3480	37.9570
 1.3490	37.8390
 1.3500	37.7240
 1.3510	37.6090
 1.3520	37.4940
 1.3530	37.3790
 1.3540	37.2620
 1.3550	37.1460
 1.3560	37.0290
 1.3570	36.9100
 1.3580	36.7900
 1.3590	36.6690
 1.3600	36.5450
 1.3610	36.4170
 1.3620	36.2830
 1.3630	36.1440
 1.3640	35.9990
 1.3650	35.8450
 1.3660	35.6860
 1.3670	35.5190
 1.3680	35.3400
 1.3690	35.1520
 1.3700	34.9530
 1.3710	34.7400
 1.3720	34.5130
 1.3730	34.2690
 1.3740	34.0120
 1.3750	33.7360
 1.3760	33.4400
 1.3770	33.1230
 1.3780	32.7810
 1.3790	32.4170
 1.3800	32.0330
 1.3810	31.6230
 1.3820	31.1950
 1.3830	30.7480
 1.3840	30.2810
 1.3850	29.7930
 1.3860	29.2920
 1.3870	28.7690
 1.3880	28.2420
 1.3890	27.7020
 1.3900	27.1520
 1.3910	26.6010
 1.3920	26.0430
 1.3930	25.4800
 1.3940	24.9190
 1.3950	24.3580
 1.3960	23.8040
 1.3970	23.2580
 1.3980	22.7230
 1.3990	22.2070
 1.4000	21.7050
 1.4010	21.2170
 1.4020	20.7510
 1.4030	20.2990
 1.4040	19.8680
 1.4050	19.4600
 1.4060	19.0720
 1.4070	18.7090
 1.4080	18.3670
 1.4090	18.0440
 1.4100	17.7430
 1.4110	17.4600
 1.4120	17.1970
 1.4130	16.9540
 1.4140	16.7290
 1.4150	16.5220
 1.4160	16.3310
 1.4170	16.1540
 1.4180	15.9920
 1.4190	15.8410
 1.4200	15.7030
 1.4210	15.5770
 1.4220	15.4620
 1.4230	15.3580
 1.4240	15.2650
 1.4250	15.1780
 1.4260	15.1020
 1.4270	15.0320
 1.4280	14.9710
 1.4290	14.9150
 1.4300	14.8680
 1.4310	14.8250
 1.4320	14.7880
 1.4330	14.7560
 1.4340	14.7300
 1.4350	14.7080
 1.4360	14.6900
 1.4370	14.6770
 1.4380	14.6690
 1.4390	14.6640
 1.4400	14.6630
 1.4410	14.6640
 1.4420	14.6680
 1.4430	14.6740
 1.4440	14.6830
 1.4450	14.6940
 1.4460	14.7060
 1.4470	14.7190
 1.4480	14.7340
 1.4490	14.7510
 1.4500	14.7700
 1.4510	14.7900
 1.4520	14.8120
 1.4530	14.8350
 1.4540	14.8600
 1.4550	14.8870
 1.4560	14.9160
 1.4570	14.9490
 1.4580	14.9830
 1.4590	15.0210
 1.4600	15.0620
 1.4610	15.1060
 1.4620	15.1550
 1.4630	15.2090
 1.4640	15.2680
 1.4650	15.3320
 1.4660	15.4000
 1.4670	15.4730
 1.4680	15.5510
 1.4690	15.6330
 1.4700	15.7200
 1.4710	15.8110
 1.4720	15.9050
 1.4730	16.0020
 1.4740	16.1030
 1.4750	16.2070
 1.4760	16.3160
 1.4770	16.4270
 1.4780	16.5390
 1.4790	16.6550
 1.4800	16.7710
 1.4810	16.8890
 1.4820	17.0090
 1.4830	17.1300
 1.4840	17.2530
 1.4850	17.3750
 1.4860	17.4980
 1.4870	17.6230
 1.4880	17.7470
 1.4890	17.8710
 1.4900	17.9970
 1.4910	18.1230
 1.4920	18.2500
 1.4930	18.3790
 1.4940	18.5080
 1.4950	18.6380
 1.4960	18.7670
 1.4970	18.8950
 1.4980	19.0250
 1.4990	19.1550
 1.5000	19.2850
 1.5010	19.4150
 1.5020	19.5440
 1.5030	19.6730
 1.5040	19.8020
 1.5050	19.9290
 1.5060	20.0570
 1.5070	20.1860
 1.5080	20.3140
 1.5090	20.4420
 1.5100	20.5700
 1.5110	20.6970
 1.5120	20.8230
 1.5130	20.9460
 1.5140	21.0700
 1.5150	21.1950
 1.5160	21.3170
 1.5170	21.4400
 1.5180	21.5610
 1.5190	21.6830
 1.5200	21.8050
 1.5210	21.9250
 1.5220	22.0430
 1.5230	22.1620
 1.5240	22.2780
 1.5250	22.3950
 1.5260	22.5110
 1.5270	22.6250
 1.5280	22.7380
 1.5290	22.8490
 1.5300	22.9590
 1.5310	23.0690
 1.5320	23.1780
 1.5330	23.2850
 1.5340	23.3920
 1.5350	23.4980
 1.5360	23.6030
 1.5370	23.7060
 1.5380	23.8090
 1.5390	23.9120
 1.5400	24.0140
 1.5410	24.1170
 1.5420	24.2180
 1.5430	24.3170
 1.5440	24.4160
 1.5450	24.5130
 1.5460	24.6090
 1.5470	24.7040
 1.5480	24.7980
 1.5490	24.8940
 1.5500	24.9880
 1.5510	25.0820
 1.5520	25.1750
 1.5530	25.2620
 1.5540	25.3490
 1.5550	25.4360
 1.5560	25.5220
 1.5570	25.6080
 1.5580	25.6950
 1.5590	25.7780
 1.5600	25.8600
 1.5610	25.9400
 1.5620	26.0200
 1.5630	26.1000
 1.5640	26.1800
 1.5650	26.2590
 1.5660	26.3380
 1.5670	26.4160
 1.5680	26.4930
 1.5690	26.5680
 1.5700	26.6420
 1.5710	26.7150
 1.5720	26.7860
 1.5730	26.8590
 1.5740	26.9310
 1.5750	27.0020
 1.5760	27.0730
 1.5770	27.1420
 1.5780	27.2120
 1.5790	27.2830
 1.5800	27.3520
 1.5810	27.4210
 1.5820	27.4900
 1.5830	27.5570
 1.5840	27.6230
 1.5850	27.6880
 1.5860	27.7540
 1.5870	27.8200
 1.5880	27.8850
 1.5890	27.9510
 1.5900	28.0160
 1.5910	28.0790
 1.5920	28.1410
 1.5930	28.2010
 1.5940	28.2620
 1.5950	28.3230
 1.5960	28.3830
 1.5970	28.4440
 1.5980	28.5030
 1.5990	28.5610
 1.6000	28.6200
 1.6010	28.6770
 1.6020	28.7320
 1.6030	28.7890
 1.6040	28.8430
 1.6050	28.8970
 1.6060	28.9510
 1.6070	29.0030
 1.6080	29.0550
 1.6090	29.1060
 1.6100	29.1570
 1.6110	29.2080
 1.6120	29.2580
 1.6130	29.3070
 1.6140	29.3540
 1.6150	29.4010
 1.6160	29.4460
 1.6170	29.4910
 1.6180	29.5360
 1.6190	29.5800
 1.6200	29.6230
 1.6210	29.6650
 1.6220	29.7060
 1.6230	29.7460
 1.6240	29.7850
 1.6250	29.8230
 1.6260	29.8610
 1.6270	29.8970
 1.6280	29.9330
 1.6290	29.9670
 1.6300	30.0000
 1.6310	30.0320
 1.6320	30.0650
 1.6330	30.0970
 1.6340	30.1290
 1.6350	30.1600
 1.6360	30.1900
 1.6370	30.2180
 1.6380	30.2460
 1.6390	30.2730
 1.6400	30.3000
 1.6410	30.3240
 1.6420	30.3470
 1.6430	30.3660
 1.6440	30.3810
 1.6450	30.3940
 1.6460	30.4070
 1.6470	30.4200
 1.6480	30.4280
 1.6490	30.4340
 1.6500	30.4360
 1.6510	30.4360
 1.6520	30.4350
 1.6530	30.4310
 1.6540	30.4260
 1.6550	30.4200
 1.6560	30.4110
 1.6570	30.3990
 1.6580	30.3860
 1.6590	30.3710
 1.6600	30.3560
 1.6610	30.3410
 1.6620	30.3260
 1.6630	30.3120
 1.6640	30.2950
 1.6650	30.2790
 1.6660	30.2650
 1.6670	30.2520
 1.6680	30.2410
 1.6690	30.2280
 1.6700	30.2120
 1.6710	30.1960
 1.6720	30.1800
 1.6730	30.1640
 1.6740	30.1490
 1.6750	30.1320
 1.6760	30.1120
 1.6770	30.0920
 1.6780	30.0680
 1.6790	30.0430
 1.6800	30.0170
 1.6810	29.9860
 1.6820	29.9540
 1.6830	29.9210
 1.6840	29.8850
 1.6850	29.8490
 1.6860	29.8120
 1.6870	29.7730
 1.6880	29.7340
 1.6890	29.6930
 1.6900	29.6500
 1.6910	29.6030
 1.6920	29.5580
 1.6930	29.5120
 1.6940	29.4670
 1.6950	29.4240
 1.6960	29.3790
 1.6970	29.3340
 1.6980	29.2850
 1.6990	29.2340
 1.7000	29.1830
 1.7010	29.1280
 1.7020	29.0740
 1.7030	29.0200
 1.7040	28.9640
 1.7050	28.9080
 1.7060	28.8510
 1.7070	28.7930
 1.7080	28.7350
 1.7090	28.6750
 1.7100	28.6180
 1.7110	28.5620
 1.7120	28.5070
 1.7130	28.4510
 1.7140	28.3970
 1.7150	28.3460
 1.7160	28.2960
 1.7170	28.2470
 1.7180	28.1990
 1.7190	28.1510
 1.7200	28.1050
 1.7210	28.0600
 1.7220	28.0130
 1.7230	27.9670
 1.7240	27.9220
 1.7250	27.8790
 1.7260	27.8390
 1.7270	27.8010
 1.7280	27.7640
 1.7290	27.7280
 1.7300	27.6940
 1.7310	27.6600
 1.7320	27.6280
 1.7330	27.5930
 1.7340	27.5570
 1.7350	27.5210
 1.7360	27.4860
 1.7370	27.4470
 1.7380	27.4070
 1.7390	27.3650
 1.7400	27.3190
 1.7410	27.2720
 1.7420	27.2240
 1.7430	27.1730
 1.7440	27.1210
 1.7450	27.0670
 1.7460	27.0110
 1.7470	26.9550
 1.7480	26.8960
 1.7490	26.8400
 1.7500	26.7850
 1.7510	26.7300
 1.7520	26.6770
 1.7530	26.6220
 1.7540	26.5680
 1.7550	26.5140
 1.7560	26.4600
 1.7570	26.4070
 1.7580	26.3580
 1.7590	26.3090
 1.7600	26.2630
 1.7610	26.2200
 1.7620	26.1760
 1.7630	26.1330
 1.7640	26.0930
 1.7650	26.0530
 1.7660	26.0160
 1.7670	25.9830
 1.7680	25.9480
 1.7690	25.9130
 1.7700	25.8790
 1.7710	25.8440
 1.7720	25.8110
 1.7730	25.7820
 1.7740	25.7520
 1.7750	25.7240
 1.7760	25.6950
 1.7770	25.6660
 1.7780	25.6390
 1.7790	25.6120
 1.7800	25.5870
 1.7810	25.5640
 1.7820	25.5420
 1.7830	25.5200
 1.7840	25.5050
 1.7850	25.4930
 1.7860	25.4800
 1.7870	25.4690
 1.7880	25.4590
 1.7890	25.4490
 1.7900	25.4450
 1.7910	25.4400
 1.7920	25.4330
 1.7930	25.4280
 1.7940	25.4240
 1.7950	25.4220
 1.7960	25.4230
 1.7970	25.4230
 1.7980	25.4230
 1.7990	25.4240
 1.8000	25.4260
 1.8010	25.4310
 1.8020	25.4390
 1.8030	25.4460
 1.8040	25.4520
 1.8050	25.4580
 1.8060	25.4630
 1.8070	25.4680
 1.8080	25.4730
 1.8090	25.4770
 1.8100	25.4810
 1.8110	25.4840
 1.8120	25.4870
 1.8130	25.4900
 1.8140	25.4940
 1.8150	25.4960
 1.8160	25.4970
 1.8170	25.5000
 1.8180	25.5010
 1.8190	25.4990
 1.8200	25.4980
 1.8210	25.4930
 1.8220	25.4880
 1.8230	25.4850
 1.8240	25.4780
 1.8250	25.4650
 1.8260	25.4550
 1.8270	25.4150
 1.8280	25.3750
 1.8290	25.3340
 1.8300	25.2940
 1.8310	25.2530
 1.8320	25.2130
 1.8330	25.1720
 1.8340	25.1320
 1.8350	25.1320
 1.8360	25.0890
 1.8370	25.0450
 1.8380	24.9960
 1.8390	24.9380
 1.8400	24.8720
 1.8410	24.8040
 1.8420	24.7320
 1.8430	24.6530
 1.8440	24.5680
 1.8450	24.4800
 1.8460	24.3790
 1.8470	24.2720
 1.8480	24.1590
 1.8490	24.0340
 1.8500	23.8980
 1.8510	23.7530
 1.8520	23.5950
 1.8530	23.4240
 1.8540	23.2450
 1.8550	23.0530
 1.8560	22.8460
 1.8570	22.6250
 1.8580	22.3870
 1.8590	22.1380
 1.8600	21.8740
 1.8610	21.5950
 1.8620	21.3000
 1.8630	20.9930
 1.8640	20.6650
 1.8650	20.3190
 1.8660	19.9590
 1.8670	19.5740
 1.8680	19.1720
 1.8690	18.7530
 1.8700	18.3150
 1.8710	17.8570
 1.8720	17.3930
 1.8730	16.9150
 1.8740	16.4240
 1.8750	15.9280
 1.8760	15.4190
 1.8770	14.9060
 1.8780	14.3960
 1.8790	13.8840
 1.8800	13.3820
 1.8810	12.8870
 1.8820	12.3950
 1.8830	11.9050
 1.8840	11.4250
 1.8850	10.9500
 1.8860	10.4850
 1.8870	10.0370
 1.8880	 9.6040
 1.8890	 9.1930
 1.8900	 8.8010
 1.8910	 8.4320
 1.8920	 8.0820
 1.8930	 7.7570
 1.8940	 7.4500
 1.8950	 7.1660
 1.8960	 6.9030
 1.8970	 6.6580
 1.8980	 6.4350
 1.8990	 6.2320
 1.9000	 6.0460
 1.9010	 5.8820
 1.9020	 5.7320
 1.9030	 5.6010
 1.9040	 5.4830
 1.9050	 5.3770
 1.9060	 5.2810
 1.9070	 5.1980
 1.9080	 5.1240
 1.9090	 5.0570
 1.9100	 4.9990
 1.9110	 4.9470
 1.9120	 4.9050
 1.9130	 4.8650
 1.9140	 4.8330
 1.9150	 4.8040
 1.9160	 4.7800
 1.9170	 4.7570
 1.9180	 4.7370
 1.9190	 4.7210
 1.9200	 4.7050
 1.9210	 4.6950
 1.9220	 4.6890
 1.9230	 4.6890
 1.9240	 4.6860
 1.9250	 4.6860
 1.9260	 4.6850
 1.9270	 4.6820
 1.9280	 4.6830
 1.9290	 4.6890
 1.9300	 4.6940
 1.9310	 4.7020
 1.9320	 4.7110
 1.9330	 4.7210
 1.9340	 4.7320
 1.9350	 4.7450
 1.9360	 4.7590
 1.9370	 4.7740
 1.9380	 4.7900
 1.9390	 4.8080
 1.9400	 4.8260
 1.9410	 4.8450
 1.9420	 4.8650
 1.9430	 4.8860
 1.9440	 4.9100
 1.9450	 4.9370
 1.9460	 4.9650
 1.9470	 4.9950
 1.9480	 5.0240
 1.9490	 5.0520
 1.9500	 5.0820
 1.9510	 5.1130
 1.9520	 5.1450
 1.9530	 5.1770
 1.9540	 5.2100
 1.9550	 5.2450
 1.9560	 5.2810
 1.9570	 5.3180
 1.9580	 5.3560
 1.9590	 5.3950
 1.9600	 5.4340
 1.9610	 5.4730
 1.9620	 5.5140
 1.9630	 5.5540
 1.9640	 5.5970
 1.9650	 5.6410
 1.9660	 5.6850
 1.9670	 5.7330
 1.9680	 5.7800
 1.9690	 5.8290
 1.9700	 5.8780
 1.9710	 5.9250
 1.9720	 5.9750
 1.9730	 6.0260
 1.9740	 6.0780
 1.9750	 6.1330
 1.9760	 6.1870
 1.9770	 6.2410
 1.9780	 6.2960
 1.9790	 6.3520
 1.9800	 6.4090
 1.9810	 6.4660
 1.9820	 6.5230
 1.9830	 6.5800
 1.9840	 6.6360
 1.9850	 6.6940
 1.9860	 6.7510
 1.9870	 6.8130
 1.9880	 6.8760
 1.9890	 6.9370
 1.9900	 6.9980
 1.9910	 7.0620
 1.9920	 7.1240
 1.9930	 7.1880
 1.9940	 7.2510
 1.9950	 7.3140
 1.9960	 7.3770
 1.9970	 7.4400
 1.9980	 7.5030
 1.9990	 7.5680
 2.0000	 7.6330
 2.0010	 7.6960
 2.0020	 7.7610
 2.0030	 7.8270
 2.0040	 7.8910
 2.0050	 7.9570
 2.0060	 8.0260
 2.0070	 8.0920
 2.0080	 8.1580
 2.0090	 8.2230
 2.0100	 8.2880
 2.0110	 8.3530
 2.0120	 8.4180
 2.0130	 8.4820
 2.0140	 8.5470
 2.0150	 8.6100
 2.0160	 8.6760
 2.0170	 8.7410
 2.0180	 8.8030
 2.0190	 8.8630
 2.0200	 8.9230
 2.0210	 8.9790
 2.0220	 9.0380
 2.0230	 9.1010
 2.0240	 9.1600
 2.0250	 9.2180
 2.0260	 9.2750
 2.0270	 9.3310
 2.0280	 9.3860
 2.0290	 9.4400
 2.0300	 9.4940
 2.0310	 9.5470
 2.0320	 9.5990
 2.0330	 9.6510
 2.0340	 9.7030
 2.0350	 9.7550
 2.0360	 9.8050
 2.0370	 9.8540
 2.0380	 9.9020
 2.0390	 9.9500
 2.0400	 9.9950
 2.0410	10.0410
 2.0420	10.0900
 2.0430	10.1350
 2.0440	10.1800
 2.0450	10.2250
 2.0460	10.2680
 2.0470	10.3090
 2.0480	10.3520
 2.0490	10.3960
 2.0500	10.4390
 2.0510	10.4830
 2.0520	10.5260
 2.0530	10.5690
 2.0540	10.6120
 2.0550	10.6540
 2.0560	10.6980
 2.0570	10.7440
 2.0580	10.7880
 2.0590	10.8340
 2.0600	10.8820
 2.0610	10.9270
 2.0620	10.9710
 2.0630	11.0150
 2.0640	11.0580
 2.0650	11.1040
 2.0660	11.1520
 2.0670	11.1980
 2.0680	11.2470
 2.0690	11.2930
 2.0700	11.3360
 2.0710	11.3810
 2.0720	11.4290
 2.0730	11.4730
 2.0740	11.5180
 2.0750	11.5630
 2.0760	11.6090
 2.0770	11.6540
 2.0780	11.6990
 2.0790	11.7430
 2.0800	11.7870
 2.0810	11.8290
 2.0820	11.8730
 2.0830	11.9180
 2.0840	11.9620
 2.0850	12.0060
 2.0860	12.0500
 2.0870	12.0920
 2.0880	12.1340
 2.0890	12.1770
 2.0900	12.2200
 2.0910	12.2630
 2.0920	12.3070
 2.0930	12.3500
 2.0940	12.3930
 2.0950	12.4330
 2.0960	12.4730
 2.0970	12.5130
 2.0980	12.5510
 2.0990	12.5920
 2.1000	12.6360
 2.1010	12.6790
 2.1020	12.7240
 2.1030	12.7670
 2.1040	12.8070
 2.1050	12.8500
 2.1060	12.8920
 2.1070	12.9310
 2.1080	12.9720
 2.1090	13.0130
 2.1100	13.0530
 2.1110	13.0930
 2.1120	13.1320
 2.1130	13.1710
 2.1140	13.2080
 2.1150	13.2440
 2.1160	13.2800
 2.1170	13.3170
 2.1180	13.3530
 2.1190	13.3900
 2.1200	13.4260
 2.1210	13.4600
 2.1220	13.4980
 2.1230	13.5330
 2.1240	13.5680
 2.1250	13.6020
 2.1260	13.6350
 2.1270	13.6670
 2.1280	13.6990
 2.1290	13.7280
 2.1300	13.7560
 2.1310	13.7840
 2.1320	13.8090
 2.1330	13.8360
 2.1340	13.8650
 2.1350	13.8930
 2.1360	13.9240
 2.1370	13.9530
 2.1380	13.9810
 2.1390	14.0080
 2.1400	14.0320
 2.1410	14.0560
 2.1420	14.0840
 2.1430	14.1140
 2.1440	14.1440
 2.1450	14.1780
 2.1460	14.2070
 2.1470	14.2340
 2.1480	14.2620
 2.1490	14.2880
 2.1500	14.3150
 2.1510	14.3400
 2.1520	14.3670
 2.1530	14.3940
 2.1540	14.4200
 2.1550	14.4460
 2.1560	14.4730
 2.1570	14.4990
 2.1580	14.5250
 2.1590	14.5500
 2.1600	14.5760
 2.1610	14.6000
 2.1620	14.6240
 2.1630	14.6520
 2.1640	14.6820
 2.1650	14.7080
 2.1660	14.7350
 2.1670	14.7600
 2.1680	14.7810
 2.1690	14.8050
 2.1700	14.8300
 2.1710	14.8550
 2.1720	14.8810
 2.1730	14.9060
 2.1740	14.9300
 2.1750	14.9550
 2.1760	14.9760
 2.1770	15.0010
 2.1780	15.0310
 2.1790	15.0580
 2.1800	15.0850
 2.1810	15.1120
 2.1820	15.1370
 2.1830	15.1610
 2.1840	15.1900
 2.1850	15.2240
 2.1860	15.2540
 2.1870	15.2860
 2.1880	15.3140
 2.1890	15.3380
 2.1900	15.3600
 2.1910	15.3800
 2.1920	15.4010
 2.1930	15.4190
 2.1940	15.4400
 2.1950	15.4660
 2.1960	15.4880
 2.1970	15.5110
 2.1980	15.5310
 2.1990	15.5490
 2.2000	15.5680
 2.2010	15.5860
 2.2020	15.6050
 2.2030	15.6260
 2.2040	15.6450
 2.2050	15.6630
 2.2060	15.6810
 2.2070	15.6970
 2.2080	15.7120
 2.2090	15.7240
 2.2100	15.7350
 2.2110	15.7460
 2.2120	15.7550
 2.2130	15.7640
 2.2140	15.7740
 2.2150	15.7790
 2.2160	15.7820
 2.2170	15.7850
 2.2180	15.7860
 2.2190	15.7880
 2.2200	15.7920
 2.2210	15.7920
 2.2220	15.7930
 2.2230	15.7870
 2.2240	15.7770
 2.2250	15.7660
 2.2260	15.7480
 2.2270	15.7310
 2.2280	15.7130
 2.2290	15.6930
 2.2300	15.6700
 2.2310	15.6440
 2.2320	15.6190
 2.2330	15.5890
 2.2340	15.5590
 2.2350	15.5280
 2.2360	15.4950
 2.2370	15.4600
 2.2380	15.4190
 2.2390	15.3740
 2.2400	15.3260
 2.2410	15.2690
 2.2420	15.2190
 2.2430	15.1700
 2.2440	15.1170
 2.2450	15.0640
 2.2460	15.0060
 2.2470	14.9400
 2.2480	14.8770
 2.2490	14.8150
 2.2500	14.7520
 2.2510	14.6900
 2.2520	14.6250
 2.2530	14.5560
 2.2540	14.4890
 2.2550	14.4210
 2.2560	14.3530
 2.2570	14.2900
 2.2580	14.2220
 2.2590	14.1490
 2.2600	14.0790
 2.2610	14.0080
 2.2620	13.9370
 2.2630	13.8710
 2.2640	13.8020
 2.2650	13.7300
 2.2660	13.6610
 2.2670	13.5920
 2.2680	13.5200
 2.2690	13.4540
 2.2700	13.3920
 2.2710	13.3290
 2.2720	13.2660
 2.2730	13.2070
 2.2740	13.1500
 2.2750	13.0930
 2.2760	13.0400
 2.2770	12.9860
 2.2780	12.9310
 2.2790	12.8770
 2.2800	12.8240
 2.2810	12.7730
 2.2820	12.7240
 2.2830	12.6740
 2.2840	12.6270
 2.2850	12.5760
 2.2860	12.5180
 2.2870	12.4650
 2.2880	12.4120
 2.2890	12.3590
 2.2900	12.3070
 2.2910	12.2530
 2.2920	12.1960
 2.2930	12.1400
 2.2940	12.0830
 2.2950	12.0270
 2.2960	11.9710
 2.2970	11.9160
 2.2980	11.8590
 2.2990	11.8090
 2.3000	11.7610
 2.3010	11.7110
 2.3020	11.6640
 2.3030	11.6220
 2.3040	11.5850
 2.3050	11.5510
 2.3060	11.5210
 2.3070	11.4960
 2.3080	11.4690
 2.3090	11.4450
 2.3100	11.4230
 2.3110	11.4040
 2.3120	11.3860
 2.3130	11.3700
 2.3140	11.3530
 2.3150	11.3390
 2.3160	11.3250
 2.3170	11.3150
 2.3180	11.2990
 2.3190	11.2860
 2.3200	11.2630
 2.3210	11.2310
 2.3220	11.2030
 2.3230	11.1720
 2.3240	11.1410
 2.3250	11.1120
 2.3260	11.0790
 2.3270	11.0480
 2.3280	11.0070
 2.3290	10.9570
 2.3300	10.9110
 2.3310	10.8570
 2.3320	10.8110
 2.3330	10.7790
 2.3340	10.7350
 2.3350	10.6830
 2.3360	10.6380
 2.3370	10.5910
 2.3380	10.5430
 2.3390	10.5000
 2.3400	10.4560
 2.3410	10.4060
 2.3420	10.3620
 2.3430	10.3270
 2.3440	10.2840
 2.3450	10.2370
 2.3460	10.1940
 2.3470	10.1410
 2.3480	10.1030
 2.3490	10.0790
 2.3500	10.0490
 2.3510	10.0230
 2.3520	 9.9940
 2.3530	 9.9590
 2.3540	 9.9270
 2.3550	 9.8950
 2.3560	 9.8620
 2.3570	 9.8300
 2.3580	 9.8000
 2.3590	 9.7750
 2.3600	 9.7490
 2.3610	 9.7240
 2.3620	 9.6900
 2.3630	 9.6440
 2.3640	 9.6080
 2.3650	 9.5720
 2.3660	 9.5340
 2.3670	 9.5010
 2.3680	 9.4620
 2.3690	 9.4280
 2.3700	 9.3960
 2.3710	 9.3580
 2.3720	 9.3300
 2.3730	 9.3020
 2.3740	 9.2680
 2.3750	 9.2340
 2.3760	 9.1990
 2.3770	 9.1560
 2.3780	 9.1150
 2.3790	 9.0810
 2.3800	 9.0390
 2.3810	 8.9970
 2.3820	 8.9600
 2.3830	 8.9270
 2.3840	 8.8980
 2.3850	 8.8620
 2.3860	 8.8230
 2.3870	 8.7760
 2.3880	 8.7300
 2.3890	 8.6920
 2.3900	 8.6530
 2.3910	 8.6160
 2.3920	 8.5790
 2.3930	 8.5350
 2.3940	 8.4850
 2.3950	 8.4400
 2.3960	 8.4010
 2.3970	 8.3620
 2.3980	 8.3230
 2.3990	 8.2800
 2.4000	 8.2280
 2.4010	 8.1810
 2.4020	 8.1420
 2.4030	 8.1040
 2.4040	 8.0690
 2.4050	 8.0330
 2.4060	 7.9980
 2.4070	 7.9520
 2.4080	 7.9090
 2.4090	 7.8720
 2.4100	 7.8330
 2.4110	 7.8060
 2.4120	 7.7750
 2.4130	 7.7360
 2.4140	 7.6980
 2.4150	 7.6550
 2.4160	 7.6110
 2.4170	 7.5670
 2.4180	 7.5230
 2.4190	 7.4790
 2.4200	 7.4450
 2.4210	 7.4190
 2.4220	 7.3760
 2.4230	 7.3290
 2.4240	 7.2790
 2.4250	 7.2230
 2.4260	 7.1790
 2.4270	 7.1430
 2.4280	 7.1060
 2.4290	 7.0700
 2.4300	 7.0420
 2.4310	 7.0150
 2.4320	 6.9850
 2.4330	 6.9500
 2.4340	 6.8940
 2.4350	 6.8390
 2.4360	 6.7920
 2.4370	 6.7420
 2.4380	 6.7040
 2.4390	 6.6740
 2.4400	 6.6400
 2.4410	 6.6040
 2.4420	 6.5740
 2.4430	 6.5370
 2.4440	 6.4810
 2.4450	 6.4280
 2.4460	 6.3790
 2.4470	 6.3230
 2.4480	 6.2760
 2.4490	 6.2550
 2.4500	 6.2260
 2.4510	 6.1800
 2.4520	 6.1590
 2.4530	 6.1330
 2.4540	 6.0970
 2.4550	 6.0880
 2.4560	 6.0720
 2.4570	 6.0320
 2.4580	 5.9990
 2.4590	 5.9490
 2.4600	 5.8880
 2.4610	 5.8400
 2.4620	 5.8020
 2.4630	 5.7980
 2.4640	 5.7850
 2.4650	 5.7510
 2.4660	 5.7210
 2.4670	 5.6820
 2.4680	 5.6520
 2.4690	 5.6380
 2.4700	 5.6170
 2.4710	 5.5830
 2.4720	 5.5510
 2.4730	 5.5240
 2.4740	 5.4900
 2.4750	 5.4460
 2.4760	 5.4230
 2.4770	 5.4130
 2.4780	 5.3960
 2.4790	 5.3820
 2.4800	 5.3700
 2.4810	 5.3530
 2.4820	 5.3480
 2.4830	 5.3330
 2.4840	 5.2970
 2.4850	 5.2730
 2.4860	 5.2320
 2.4870	 5.1980
 2.4880	 5.2040
 2.4890	 5.1900
 2.4900	 5.1910
 2.4910	 5.2090
 2.4920	 5.1710
 2.4930	 5.1330
 2.4940	 5.1110
 2.4950	 5.0920
 2.4960	 5.0870
 2.4970	 5.0810
 2.4980	 5.0720
 2.4990	 5.0420
 2.5000	 5.0300
