Name: Baccharis pilularis 3
Type: vegetation
Class: Shrub
Genus: Baccharis
Species: pilularis
Sample No.: VH126
Owner: UCSB
Wavelength Range: TIR
Origin: 34.5088; -119.7683; WGS84
Collection Date: 6/3/2013
Description: Samples were collected as part of the HyspIRI Airborne Campaign. 48 individual plants were sampled in three times in 2013 - spring  summer  and fall. The name of the sample includes a 1  2  or 3 which references a different individual of the species. Samples were taken to JPL and processed within 48 hours of collection. The same leaves were processed in the Nicolet and then measured using the ASD.
Measurement: Hemispherical reflectance
First Column: X
Second Column: Y
X Units: Wavelength (micrometers)
Y Units: Reflectance (percentage)
First X Value: 2.501
Last X Value: 15.387
Number of X Values: 1737
Additional Information: vegetation.shrub.baccharis.pilularis.tir.vh126.ucsb.nicolet.ancillary.txt

 2.5010	 5.8260
 2.5030	 5.9570
 2.5040	 5.9360
 2.5050	 5.7810
 2.5060	 5.7280
 2.5070	 5.7500
 2.5090	 5.8030
 2.5100	 5.7010
 2.5110	 5.7750
 2.5120	 5.8430
 2.5140	 5.8280
 2.5150	 5.7710
 2.5160	 5.7920
 2.5170	 5.7540
 2.5180	 5.8040
 2.5200	 5.7080
 2.5210	 5.7380
 2.5220	 5.7470
 2.5230	 5.8280
 2.5250	 5.9000
 2.5260	 5.8680
 2.5270	 5.7850
 2.5280	 5.7990
 2.5290	 5.7570
 2.5310	 5.8180
 2.5320	 5.7720
 2.5330	 5.7490
 2.5340	 5.7570
 2.5360	 5.7990
 2.5370	 5.7260
 2.5380	 5.6530
 2.5390	 5.5970
 2.5410	 5.7240
 2.5420	 5.8230
 2.5430	 5.9400
 2.5440	 5.9290
 2.5460	 5.8650
 2.5470	 5.7650
 2.5480	 5.7980
 2.5490	 5.7320
 2.5510	 5.7310
 2.5520	 5.7260
 2.5530	 5.7920
 2.5540	 5.8200
 2.5560	 5.7140
 2.5570	 5.7020
 2.5580	 5.8300
 2.5590	 5.8230
 2.5610	 5.8670
 2.5620	 5.7340
 2.5630	 5.6930
 2.5640	 5.6770
 2.5660	 5.7600
 2.5670	 5.8360
 2.5680	 5.9110
 2.5700	 5.8340
 2.5710	 5.8940
 2.5720	 5.8850
 2.5730	 5.8230
 2.5750	 5.8230
 2.5760	 5.8890
 2.5770	 5.8180
 2.5790	 5.7220
 2.5800	 5.6610
 2.5810	 5.7820
 2.5820	 5.7710
 2.5840	 5.8290
 2.5850	 5.8760
 2.5860	 5.8600
 2.5880	 5.7050
 2.5890	 5.7140
 2.5900	 5.7220
 2.5910	 5.8440
 2.5930	 5.9220
 2.5940	 5.9960
 2.5950	 5.8870
 2.5970	 5.9290
 2.5980	 5.9320
 2.5990	 5.8850
 2.6000	 5.8490
 2.6020	 5.7900
 2.6030	 5.7080
 2.6040	 5.8370
 2.6060	 5.7940
 2.6070	 5.7320
 2.6080	 5.7420
 2.6100	 5.8180
 2.6110	 5.8280
 2.6120	 5.8830
 2.6140	 5.7590
 2.6150	 5.7690
 2.6160	 5.7930
 2.6180	 5.8560
 2.6190	 5.7570
 2.6200	 5.6250
 2.6220	 5.6520
 2.6230	 5.6810
 2.6240	 5.6900
 2.6260	 5.7170
 2.6270	 5.6320
 2.6280	 5.6810
 2.6300	 5.6410
 2.6310	 5.5810
 2.6320	 5.5620
 2.6340	 5.5750
 2.6350	 5.5640
 2.6360	 5.5280
 2.6380	 5.3920
 2.6390	 5.3930
 2.6400	 5.4320
 2.6420	 5.5640
 2.6430	 5.4910
 2.6440	 5.5000
 2.6460	 5.5620
 2.6470	 5.5410
 2.6480	 5.5580
 2.6500	 5.5420
 2.6510	 5.5290
 2.6520	 5.6440
 2.6540	 5.6170
 2.6550	 5.4470
 2.6560	 5.3610
 2.6580	 5.5210
 2.6590	 5.5240
 2.6610	 5.3600
 2.6620	 5.3430
 2.6630	 5.4930
 2.6650	 5.5370
 2.6660	 5.5380
 2.6670	 5.5030
 2.6690	 5.4880
 2.6700	 5.4360
 2.6720	 5.3620
 2.6730	 5.3090
 2.6740	 5.3250
 2.6760	 5.3650
 2.6770	 5.4140
 2.6780	 5.3650
 2.6800	 5.3490
 2.6810	 5.2570
 2.6830	 5.2560
 2.6840	 5.2690
 2.6850	 5.2680
 2.6870	 5.2290
 2.6880	 5.1870
 2.6900	 5.1760
 2.6910	 5.1990
 2.6920	 5.1410
 2.6940	 5.2960
 2.6950	 5.3310
 2.6970	 5.2650
 2.6980	 5.1250
 2.6990	 5.1910
 2.7010	 5.2140
 2.7020	 5.1970
 2.7040	 5.1280
 2.7050	 5.1020
 2.7060	 5.0600
 2.7080	 5.0390
 2.7090	 5.0900
 2.7110	 5.1800
 2.7120	 5.1470
 2.7130	 5.0820
 2.7150	 5.0030
 2.7160	 5.0530
 2.7180	 5.0990
 2.7190	 4.9930
 2.7210	 4.8320
 2.7220	 4.8160
 2.7230	 4.6540
 2.7250	 4.6120
 2.7260	 4.7350
 2.7280	 4.8800
 2.7290	 4.8430
 2.7310	 4.8580
 2.7320	 4.7650
 2.7330	 4.6590
 2.7350	 4.5920
 2.7360	 4.6100
 2.7380	 4.4770
 2.7390	 4.4610
 2.7410	 4.4580
 2.7420	 4.4450
 2.7440	 4.4350
 2.7450	 4.4200
 2.7470	 4.3070
 2.7480	 4.3120
 2.7490	 4.2640
 2.7510	 4.2790
 2.7520	 4.2240
 2.7540	 4.2370
 2.7550	 4.1430
 2.7570	 4.2370
 2.7580	 4.2870
 2.7600	 4.2710
 2.7610	 4.1750
 2.7630	 4.1340
 2.7640	 4.0670
 2.7660	 4.0590
 2.7670	 4.0210
 2.7680	 4.0770
 2.7700	 4.0600
 2.7710	 4.0170
 2.7730	 4.0040
 2.7740	 4.0750
 2.7760	 4.0220
 2.7770	 3.9690
 2.7790	 3.9500
 2.7800	 3.9640
 2.7820	 3.8650
 2.7830	 3.9580
 2.7850	 3.9030
 2.7860	 3.8090
 2.7880	 3.8420
 2.7890	 3.9560
 2.7910	 3.9910
 2.7920	 3.9230
 2.7940	 3.8770
 2.7950	 3.9680
 2.7970	 3.9040
 2.7980	 3.8780
 2.8000	 3.7240
 2.8010	 3.7500
 2.8030	 3.7860
 2.8040	 3.8050
 2.8060	 3.6700
 2.8070	 3.6250
 2.8090	 3.5970
 2.8110	 3.6760
 2.8120	 3.6540
 2.8140	 3.6370
 2.8150	 3.5930
 2.8170	 3.6760
 2.8180	 3.6500
 2.8200	 3.7130
 2.8210	 3.7820
 2.8230	 3.8090
 2.8240	 3.6810
 2.8260	 3.7070
 2.8270	 3.6750
 2.8290	 3.6720
 2.8300	 3.6770
 2.8320	 3.6900
 2.8340	 3.5830
 2.8350	 3.5690
 2.8370	 3.5110
 2.8380	 3.5880
 2.8400	 3.6810
 2.8410	 3.7160
 2.8430	 3.5880
 2.8440	 3.5960
 2.8460	 3.5950
 2.8480	 3.5860
 2.8490	 3.4960
 2.8510	 3.5430
 2.8520	 3.4990
 2.8540	 3.4380
 2.8550	 3.3310
 2.8570	 3.4560
 2.8590	 3.5240
 2.8600	 3.5460
 2.8620	 3.5080
 2.8630	 3.5450
 2.8650	 3.5230
 2.8660	 3.5140
 2.8680	 3.5420
 2.8700	 3.6070
 2.8710	 3.4350
 2.8730	 3.4360
 2.8740	 3.5700
 2.8760	 3.6990
 2.8780	 3.7230
 2.8790	 3.6540
 2.8810	 3.5180
 2.8820	 3.5850
 2.8840	 3.6200
 2.8860	 3.5770
 2.8870	 3.4850
 2.8890	 3.5890
 2.8900	 3.5690
 2.8920	 3.4740
 2.8940	 3.4260
 2.8950	 3.5400
 2.8970	 3.6120
 2.8980	 3.6160
 2.9000	 3.5760
 2.9020	 3.5600
 2.9030	 3.5300
 2.9050	 3.6570
 2.9070	 3.6900
 2.9080	 3.5550
 2.9100	 3.5020
 2.9120	 3.5060
 2.9130	 3.5130
 2.9150	 3.6100
 2.9160	 3.6060
 2.9180	 3.6380
 2.9200	 3.6390
 2.9210	 3.6540
 2.9230	 3.5490
 2.9250	 3.5820
 2.9260	 3.5300
 2.9280	 3.6070
 2.9300	 3.6590
 2.9310	 3.7600
 2.9330	 3.8070
 2.9350	 3.8180
 2.9360	 3.6370
 2.9380	 3.6430
 2.9400	 3.6190
 2.9410	 3.6150
 2.9430	 3.6540
 2.9450	 3.6790
 2.9460	 3.5980
 2.9480	 3.6490
 2.9500	 3.6650
 2.9510	 3.7070
 2.9530	 3.7160
 2.9550	 3.7140
 2.9560	 3.5890
 2.9580	 3.5520
 2.9600	 3.5460
 2.9610	 3.5890
 2.9630	 3.6370
 2.9650	 3.6620
 2.9660	 3.6430
 2.9680	 3.6420
 2.9700	 3.4980
 2.9720	 3.5370
 2.9730	 3.6080
 2.9750	 3.6840
 2.9770	 3.6240
 2.9780	 3.7550
 2.9800	 3.7460
 2.9820	 3.7120
 2.9840	 3.7530
 2.9850	 3.7750
 2.9870	 3.7920
 2.9890	 3.7790
 2.9900	 3.7500
 2.9920	 3.7340
 2.9940	 3.5780
 2.9960	 3.6970
 2.9970	 3.8410
 2.9990	 3.8030
 3.0010	 3.7160
 3.0030	 3.7710
 3.0040	 3.7620
 3.0060	 3.7400
 3.0080	 3.7960
 3.0100	 3.9390
 3.0110	 3.8310
 3.0130	 3.7770
 3.0150	 3.6950
 3.0170	 3.7330
 3.0180	 3.7760
 3.0200	 3.8030
 3.0220	 3.7790
 3.0240	 3.8310
 3.0250	 3.7630
 3.0270	 3.8150
 3.0290	 3.7200
 3.0310	 3.6260
 3.0320	 3.6690
 3.0340	 3.8000
 3.0360	 3.8010
 3.0380	 3.7750
 3.0400	 3.6770
 3.0410	 3.7320
 3.0430	 3.7410
 3.0450	 3.6580
 3.0470	 3.6560
 3.0480	 3.8020
 3.0500	 3.8450
 3.0520	 3.8150
 3.0540	 3.6850
 3.0560	 3.6820
 3.0570	 3.7900
 3.0590	 3.8010
 3.0610	 3.7090
 3.0630	 3.6610
 3.0650	 3.6640
 3.0660	 3.7620
 3.0680	 3.7880
 3.0700	 3.7790
 3.0720	 3.7380
 3.0740	 3.7010
 3.0760	 3.6270
 3.0770	 3.6750
 3.0790	 3.7040
 3.0810	 3.7880
 3.0830	 3.7900
 3.0850	 3.7890
 3.0870	 3.6940
 3.0880	 3.6930
 3.0900	 3.6840
 3.0920	 3.7270
 3.0940	 3.7830
 3.0960	 3.8370
 3.0980	 3.7820
 3.0990	 3.7400
 3.1010	 3.7210
 3.1030	 3.7880
 3.1050	 3.7820
 3.1070	 3.7980
 3.1090	 3.7830
 3.1110	 3.8630
 3.1120	 3.8810
 3.1140	 3.8100
 3.1160	 3.7240
 3.1180	 3.7720
 3.1200	 3.7930
 3.1220	 3.7700
 3.1240	 3.6930
 3.1260	 3.7790
 3.1270	 3.7230
 3.1290	 3.7480
 3.1310	 3.8030
 3.1330	 3.8390
 3.1350	 3.8780
 3.1370	 3.8880
 3.1390	 3.8640
 3.1410	 3.9320
 3.1430	 3.8430
 3.1450	 3.7840
 3.1460	 3.8360
 3.1480	 4.0190
 3.1500	 4.0300
 3.1520	 3.9470
 3.1540	 3.9470
 3.1560	 3.9480
 3.1580	 3.7890
 3.1600	 3.8260
 3.1620	 3.8690
 3.1640	 3.9050
 3.1660	 3.9350
 3.1680	 3.9670
 3.1700	 3.8970
 3.1710	 3.9060
 3.1730	 3.9560
 3.1750	 4.0050
 3.1770	 3.9850
 3.1790	 4.0010
 3.1810	 3.9230
 3.1830	 3.8890
 3.1850	 3.9040
 3.1870	 3.9720
 3.1890	 3.8890
 3.1910	 3.8580
 3.1930	 3.8350
 3.1950	 3.8890
 3.1970	 3.9020
 3.1990	 4.0030
 3.2010	 4.0510
 3.2030	 4.0320
 3.2050	 3.9320
 3.2070	 3.9550
 3.2090	 4.0220
 3.2110	 4.0170
 3.2130	 3.9710
 3.2150	 4.0620
 3.2170	 4.0840
 3.2190	 4.0420
 3.2210	 3.9620
 3.2230	 4.0780
 3.2250	 4.1400
 3.2270	 4.0980
 3.2290	 4.0220
 3.2310	 4.0400
 3.2330	 4.0710
 3.2350	 4.1100
 3.2370	 4.0430
 3.2390	 4.0830
 3.2410	 4.1580
 3.2430	 4.1980
 3.2450	 4.0270
 3.2470	 4.0400
 3.2490	 4.0810
 3.2510	 4.0450
 3.2530	 3.9800
 3.2550	 3.9980
 3.2570	 4.0290
 3.2590	 4.1150
 3.2610	 4.0960
 3.2630	 4.0930
 3.2650	 4.1110
 3.2670	 4.0710
 3.2690	 4.0610
 3.2720	 4.2020
 3.2740	 4.2040
 3.2760	 4.1470
 3.2780	 4.0790
 3.2800	 4.0990
 3.2820	 4.1260
 3.2840	 4.1040
 3.2860	 4.0630
 3.2880	 4.1640
 3.2900	 4.2130
 3.2920	 4.2180
 3.2940	 4.1660
 3.2960	 4.1690
 3.2990	 4.2340
 3.3010	 4.2910
 3.3030	 4.1850
 3.3050	 4.1700
 3.3070	 4.1110
 3.3090	 4.0940
 3.3110	 4.0900
 3.3130	 4.1420
 3.3150	 4.1530
 3.3180	 4.1980
 3.3200	 4.1290
 3.3220	 4.0690
 3.3240	 4.0160
 3.3260	 4.0420
 3.3280	 4.0770
 3.3300	 4.0910
 3.3330	 4.0900
 3.3350	 4.0840
 3.3370	 4.0270
 3.3390	 3.9800
 3.3410	 3.9140
 3.3430	 3.9290
 3.3450	 3.8800
 3.3480	 3.8610
 3.3500	 3.8470
 3.3520	 3.8430
 3.3540	 3.9120
 3.3560	 3.9820
 3.3580	 3.8680
 3.3610	 3.7790
 3.3630	 3.7320
 3.3650	 3.8020
 3.3670	 3.7480
 3.3690	 3.7610
 3.3720	 3.8370
 3.3740	 3.9220
 3.3760	 3.8620
 3.3780	 3.8480
 3.3800	 3.9050
 3.3830	 3.9500
 3.3850	 3.9070
 3.3870	 3.8000
 3.3890	 3.6760
 3.3910	 3.6840
 3.3940	 3.6340
 3.3960	 3.5980
 3.3980	 3.6520
 3.4000	 3.7160
 3.4020	 3.7650
 3.4050	 3.8710
 3.4070	 3.9400
 3.4090	 4.1560
 3.4110	 4.4370
 3.4140	 4.7100
 3.4160	 4.9520
 3.4180	 5.3490
 3.4200	 5.8350
 3.4230	 6.4130
 3.4250	 7.1190
 3.4270	 7.8860
 3.4290	 8.1670
 3.4320	 7.6900
 3.4340	 6.7880
 3.4360	 6.0820
 3.4390	 5.5660
 3.4410	 5.2650
 3.4430	 5.0290
 3.4450	 5.0420
 3.4480	 5.0720
 3.4500	 5.0150
 3.4520	 4.9530
 3.4550	 4.9010
 3.4570	 4.7850
 3.4590	 4.7590
 3.4620	 4.7440
 3.4640	 4.7410
 3.4660	 4.7390
 3.4680	 4.7420
 3.4710	 4.6950
 3.4730	 4.5430
 3.4750	 4.4820
 3.4780	 4.5180
 3.4800	 4.4410
 3.4820	 4.3800
 3.4850	 4.3180
 3.4870	 4.3210
 3.4890	 4.2770
 3.4920	 4.2920
 3.4940	 4.3340
 3.4970	 4.4800
 3.4990	 4.6520
 3.5010	 4.8440
 3.5040	 5.1220
 3.5060	 5.7530
 3.5080	 6.7880
 3.5110	 7.6160
 3.5130	 7.4340
 3.5160	 6.5470
 3.5180	 5.8040
 3.5200	 5.4910
 3.5230	 5.3160
 3.5250	 5.2380
 3.5270	 5.2020
 3.5300	 5.1800
 3.5320	 5.1380
 3.5350	 5.1270
 3.5370	 5.0460
 3.5400	 4.9440
 3.5420	 4.9570
 3.5440	 5.0570
 3.5470	 5.0620
 3.5490	 5.0340
 3.5520	 4.9690
 3.5540	 5.0260
 3.5570	 5.1000
 3.5590	 5.0850
 3.5610	 5.0140
 3.5640	 5.0430
 3.5660	 5.0360
 3.5690	 4.9860
 3.5710	 4.9460
 3.5740	 4.9860
 3.5760	 5.0130
 3.5790	 5.0290
 3.5810	 5.0150
 3.5840	 5.0760
 3.5860	 5.0870
 3.5890	 5.0550
 3.5910	 5.0220
 3.5930	 5.0920
 3.5960	 5.0970
 3.5980	 5.0540
 3.6010	 5.0270
 3.6030	 5.0180
 3.6060	 5.0840
 3.6080	 5.1240
 3.6110	 5.0920
 3.6140	 5.0830
 3.6160	 4.9970
 3.6190	 4.9960
 3.6210	 4.9780
 3.6240	 4.9800
 3.6260	 4.9510
 3.6290	 4.9700
 3.6310	 4.9390
 3.6340	 4.9530
 3.6360	 4.9120
 3.6390	 4.9160
 3.6410	 4.9370
 3.6440	 4.9580
 3.6470	 4.9600
 3.6490	 4.9600
 3.6520	 4.9550
 3.6540	 5.0080
 3.6570	 5.0130
 3.6590	 5.0150
 3.6620	 5.0530
 3.6650	 4.9840
 3.6670	 4.9650
 3.6700	 5.0220
 3.6720	 5.0380
 3.6750	 5.0510
 3.6780	 4.9760
 3.6800	 4.9530
 3.6830	 5.0000
 3.6850	 5.0190
 3.6880	 5.0000
 3.6910	 5.0150
 3.6930	 4.9900
 3.6960	 5.0070
 3.6990	 5.0470
 3.7010	 5.0450
 3.7040	 5.0360
 3.7060	 5.0650
 3.7090	 5.0590
 3.7120	 5.1080
 3.7140	 5.0830
 3.7170	 5.0050
 3.7200	 4.9580
 3.7220	 4.9790
 3.7250	 4.9940
 3.7280	 5.1270
 3.7300	 5.1900
 3.7330	 5.1650
 3.7360	 5.1060
 3.7390	 5.0950
 3.7410	 5.1210
 3.7440	 5.1640
 3.7470	 5.0960
 3.7490	 5.0730
 3.7520	 5.0850
 3.7550	 5.0730
 3.7580	 5.0770
 3.7600	 5.1240
 3.7630	 5.1450
 3.7660	 5.1700
 3.7680	 5.1310
 3.7710	 5.1440
 3.7740	 5.1980
 3.7770	 5.2150
 3.7790	 5.1680
 3.7820	 5.1190
 3.7850	 5.1380
 3.7880	 5.2270
 3.7900	 5.2370
 3.7930	 5.2200
 3.7960	 5.1860
 3.7990	 5.1880
 3.8020	 5.2360
 3.8040	 5.2430
 3.8070	 5.2250
 3.8100	 5.1960
 3.8130	 5.1830
 3.8160	 5.1890
 3.8180	 5.1860
 3.8210	 5.2520
 3.8240	 5.2450
 3.8270	 5.2150
 3.8300	 5.1860
 3.8330	 5.2210
 3.8350	 5.2510
 3.8380	 5.3110
 3.8410	 5.2990
 3.8440	 5.2530
 3.8470	 5.2270
 3.8500	 5.2340
 3.8520	 5.2350
 3.8550	 5.2520
 3.8580	 5.2660
 3.8610	 5.2420
 3.8640	 5.2040
 3.8670	 5.2330
 3.8700	 5.2120
 3.8730	 5.1940
 3.8750	 5.2110
 3.8780	 5.2730
 3.8810	 5.3270
 3.8840	 5.2640
 3.8870	 5.2390
 3.8900	 5.3270
 3.8930	 5.3210
 3.8960	 5.3180
 3.8990	 5.3320
 3.9020	 5.3290
 3.9050	 5.2790
 3.9080	 5.2730
 3.9110	 5.2520
 3.9140	 5.2320
 3.9160	 5.2420
 3.9190	 5.2910
 3.9220	 5.2750
 3.9250	 5.2680
 3.9280	 5.2730
 3.9310	 5.2620
 3.9340	 5.2540
 3.9370	 5.2820
 3.9400	 5.2760
 3.9430	 5.2910
 3.9460	 5.2840
 3.9490	 5.3100
 3.9520	 5.3400
 3.9550	 5.3120
 3.9580	 5.3110
 3.9610	 5.2740
 3.9640	 5.2860
 3.9670	 5.3260
 3.9700	 5.2830
 3.9730	 5.2490
 3.9770	 5.1590
 3.9800	 5.1600
 3.9830	 5.2770
 3.9860	 5.3080
 3.9890	 5.3590
 3.9920	 5.3880
 3.9950	 5.3300
 3.9980	 5.3340
 4.0010	 5.3950
 4.0040	 5.3770
 4.0070	 5.3190
 4.0100	 5.3300
 4.0130	 5.3210
 4.0170	 5.3590
 4.0200	 5.4040
 4.0230	 5.4490
 4.0260	 5.4280
 4.0290	 5.3410
 4.0320	 5.2940
 4.0350	 5.3390
 4.0380	 5.3660
 4.0420	 5.3410
 4.0450	 5.3330
 4.0480	 5.3570
 4.0510	 5.3560
 4.0540	 5.3300
 4.0570	 5.3000
 4.0610	 5.2730
 4.0640	 5.2720
 4.0670	 5.2570
 4.0700	 5.2700
 4.0730	 5.3600
 4.0770	 5.4180
 4.0800	 5.4230
 4.0830	 5.3850
 4.0860	 5.3790
 4.0890	 5.3760
 4.0930	 5.3870
 4.0960	 5.3910
 4.0990	 5.3780
 4.1020	 5.3700
 4.1060	 5.3980
 4.1090	 5.3730
 4.1120	 5.3650
 4.1150	 5.4040
 4.1190	 5.3770
 4.1220	 5.3850
 4.1250	 5.4340
 4.1280	 5.3970
 4.1320	 5.3500
 4.1350	 5.3590
 4.1380	 5.3910
 4.1420	 5.3770
 4.1450	 5.3830
 4.1480	 5.3930
 4.1520	 5.3820
 4.1550	 5.3930
 4.1580	 5.3900
 4.1620	 5.4130
 4.1650	 5.4420
 4.1680	 5.4180
 4.1720	 5.4010
 4.1750	 5.4130
 4.1780	 5.4340
 4.1820	 5.3850
 4.1850	 5.4260
 4.1890	 5.4970
 4.1920	 5.4510
 4.1950	 5.4070
 4.1990	 5.3950
 4.2020	 5.4430
 4.2060	 5.5970
 4.2090	 5.6080
 4.2120	 5.5660
 4.2160	 5.6260
 4.2190	 5.6990
 4.2230	 5.7470
 4.2260	 5.7670
 4.2300	 5.7240
 4.2330	 5.7790
 4.2360	 5.8400
 4.2400	 5.8790
 4.2430	 5.9120
 4.2470	 5.8270
 4.2500	 5.7310
 4.2540	 5.6930
 4.2570	 5.6340
 4.2610	 5.6720
 4.2640	 5.7680
 4.2680	 5.8550
 4.2710	 5.8290
 4.2750	 5.7190
 4.2780	 5.6740
 4.2820	 5.5640
 4.2850	 5.4890
 4.2890	 5.5750
 4.2930	 5.7040
 4.2960	 5.7500
 4.3000	 5.7490
 4.3030	 5.6970
 4.3070	 5.6240
 4.3100	 5.4810
 4.3140	 5.4950
 4.3180	 5.5600
 4.3210	 5.5370
 4.3250	 5.5140
 4.3280	 5.4630
 4.3320	 5.4550
 4.3360	 5.5060
 4.3390	 5.5980
 4.3430	 5.5620
 4.3470	 5.4690
 4.3500	 5.4030
 4.3540	 5.3550
 4.3570	 5.3720
 4.3610	 5.4020
 4.3650	 5.4140
 4.3680	 5.4290
 4.3720	 5.4320
 4.3760	 5.4000
 4.3800	 5.4010
 4.3830	 5.4010
 4.3870	 5.4090
 4.3910	 5.3880
 4.3940	 5.3450
 4.3980	 5.4020
 4.4020	 5.4720
 4.4060	 5.4270
 4.4090	 5.3430
 4.4130	 5.3080
 4.4170	 5.2990
 4.4210	 5.3280
 4.4240	 5.3610
 4.4280	 5.3940
 4.4320	 5.4300
 4.4360	 5.4160
 4.4400	 5.4020
 4.4430	 5.3230
 4.4470	 5.3340
 4.4510	 5.4070
 4.4550	 5.3700
 4.4590	 5.3370
 4.4620	 5.3830
 4.4660	 5.3660
 4.4700	 5.3530
 4.4740	 5.3180
 4.4780	 5.3650
 4.4820	 5.3350
 4.4860	 5.2300
 4.4900	 5.2780
 4.4930	 5.3900
 4.4970	 5.3480
 4.5010	 5.2490
 4.5050	 5.2680
 4.5090	 5.2630
 4.5130	 5.2260
 4.5170	 5.2940
 4.5210	 5.3530
 4.5250	 5.3020
 4.5290	 5.2190
 4.5330	 5.2700
 4.5370	 5.3160
 4.5410	 5.2660
 4.5450	 5.1870
 4.5490	 5.2160
 4.5530	 5.2290
 4.5570	 5.2630
 4.5610	 5.2910
 4.5650	 5.3240
 4.5690	 5.3020
 4.5730	 5.3050
 4.5770	 5.2560
 4.5810	 5.2190
 4.5850	 5.2520
 4.5890	 5.3240
 4.5930	 5.2560
 4.5970	 5.2320
 4.6010	 5.2460
 4.6050	 5.2380
 4.6090	 5.1980
 4.6130	 5.1540
 4.6170	 5.1050
 4.6220	 5.1890
 4.6260	 5.2190
 4.6300	 5.1820
 4.6340	 5.1680
 4.6380	 5.2090
 4.6420	 5.2470
 4.6460	 5.2120
 4.6510	 5.1620
 4.6550	 5.2020
 4.6590	 5.1950
 4.6630	 5.1420
 4.6670	 5.0850
 4.6720	 5.0640
 4.6760	 5.0880
 4.6800	 5.1710
 4.6840	 5.1770
 4.6880	 5.1500
 4.6930	 5.1050
 4.6970	 5.1200
 4.7010	 5.1580
 4.7050	 5.1650
 4.7100	 5.1630
 4.7140	 5.2260
 4.7180	 5.2250
 4.7230	 5.1780
 4.7270	 5.1760
 4.7310	 5.2080
 4.7360	 5.1670
 4.7400	 5.1660
 4.7440	 5.2530
 4.7490	 5.2600
 4.7530	 5.1950
 4.7570	 5.1900
 4.7620	 5.1820
 4.7660	 5.1810
 4.7700	 5.1320
 4.7750	 5.1450
 4.7790	 5.1770
 4.7840	 5.2120
 4.7880	 5.1670
 4.7920	 5.1410
 4.7970	 5.2020
 4.8010	 5.2370
 4.8060	 5.2550
 4.8100	 5.2360
 4.8150	 5.1750
 4.8190	 5.2100
 4.8240	 5.2660
 4.8280	 5.2800
 4.8330	 5.2730
 4.8370	 5.2480
 4.8420	 5.2010
 4.8460	 5.1990
 4.8510	 5.1930
 4.8550	 5.2110
 4.8600	 5.2040
 4.8640	 5.2270
 4.8690	 5.2670
 4.8730	 5.2780
 4.8780	 5.1850
 4.8830	 5.1460
 4.8870	 5.1730
 4.8920	 5.2450
 4.8960	 5.2680
 4.9010	 5.2890
 4.9060	 5.2020
 4.9100	 5.1460
 4.9150	 5.1380
 4.9200	 5.2250
 4.9240	 5.2130
 4.9290	 5.1670
 4.9340	 5.2220
 4.9380	 5.3370
 4.9430	 5.3040
 4.9480	 5.2160
 4.9530	 5.1640
 4.9570	 5.2140
 4.9620	 5.2440
 4.9670	 5.2650
 4.9720	 5.2700
 4.9760	 5.3360
 4.9810	 5.3060
 4.9860	 5.2960
 4.9910	 5.3300
 4.9960	 5.3690
 5.0000	 5.3090
 5.0050	 5.2980
 5.0100	 5.3650
 5.0150	 5.3820
 5.0200	 5.3160
 5.0250	 5.2640
 5.0290	 5.2590
 5.0340	 5.3600
 5.0390	 5.3740
 5.0440	 5.3740
 5.0490	 5.3580
 5.0540	 5.3540
 5.0590	 5.3030
 5.0640	 5.2750
 5.0690	 5.2590
 5.0740	 5.3010
 5.0790	 5.2660
 5.0840	 5.2910
 5.0890	 5.3120
 5.0940	 5.3360
 5.0990	 5.3150
 5.1040	 5.2800
 5.1090	 5.2980
 5.1140	 5.3640
 5.1190	 5.3000
 5.1240	 5.2680
 5.1290	 5.2780
 5.1340	 5.3520
 5.1390	 5.3850
 5.1440	 5.4340
 5.1490	 5.4010
 5.1540	 5.3440
 5.1600	 5.3070
 5.1650	 5.3650
 5.1700	 5.3600
 5.1750	 5.3420
 5.1800	 5.3020
 5.1850	 5.3430
 5.1910	 5.3260
 5.1960	 5.3570
 5.2010	 5.3320
 5.2060	 5.3160
 5.2110	 5.3340
 5.2170	 5.4050
 5.2220	 5.3710
 5.2270	 5.4200
 5.2320	 5.4150
 5.2380	 5.3690
 5.2430	 5.3400
 5.2480	 5.3850
 5.2540	 5.3330
 5.2590	 5.3300
 5.2640	 5.2860
 5.2700	 5.2660
 5.2750	 5.2790
 5.2800	 5.3400
 5.2860	 5.3370
 5.2910	 5.3360
 5.2970	 5.3160
 5.3020	 5.3000
 5.3070	 5.2500
 5.3130	 5.2950
 5.3180	 5.3120
 5.3240	 5.3330
 5.3290	 5.3250
 5.3350	 5.3640
 5.3400	 5.2900
 5.3460	 5.2500
 5.3510	 5.2380
 5.3570	 5.2200
 5.3620	 5.2380
 5.3680	 5.2710
 5.3730	 5.2270
 5.3790	 5.2100
 5.3850	 5.2430
 5.3900	 5.3250
 5.3960	 5.3180
 5.4010	 5.2680
 5.4070	 5.1890
 5.4130	 5.1690
 5.4180	 5.1500
 5.4240	 5.1850
 5.4300	 5.1480
 5.4350	 5.1400
 5.4410	 5.1040
 5.4470	 5.1630
 5.4530	 5.2010
 5.4580	 5.1800
 5.4640	 5.1130
 5.4700	 5.1150
 5.4760	 5.1000
 5.4810	 5.1040
 5.4870	 5.0280
 5.4930	 5.0010
 5.4990	 4.9630
 5.5050	 4.9620
 5.5110	 4.9850
 5.5160	 4.9840
 5.5220	 4.9250
 5.5280	 4.8840
 5.5340	 4.8810
 5.5400	 5.0000
 5.5460	 5.0010
 5.5520	 4.9520
 5.5580	 4.8260
 5.5640	 4.8130
 5.5700	 4.7650
 5.5760	 4.7520
 5.5820	 4.7540
 5.5880	 4.7650
 5.5940	 4.7140
 5.6000	 4.7320
 5.6060	 4.6660
 5.6120	 4.6620
 5.6180	 4.5520
 5.6240	 4.4710
 5.6300	 4.3800
 5.6360	 4.4060
 5.6420	 4.3750
 5.6490	 4.3000
 5.6550	 4.1550
 5.6610	 4.0580
 5.6670	 3.8960
 5.6730	 3.8060
 5.6800	 3.7260
 5.6860	 3.6820
 5.6920	 3.6080
 5.6980	 3.5290
 5.7040	 3.3740
 5.7110	 3.2700
 5.7170	 3.1630
 5.7230	 3.2050
 5.7300	 3.1810
 5.7360	 3.1720
 5.7420	 3.1700
 5.7490	 3.2570
 5.7550	 3.3200
 5.7620	 3.3780
 5.7680	 3.4550
 5.7740	 3.5570
 5.7810	 3.5410
 5.7870	 3.6210
 5.7940	 3.6670
 5.8000	 3.7440
 5.8070	 3.7790
 5.8130	 3.9010
 5.8200	 3.9130
 5.8260	 4.0200
 5.8330	 4.0890
 5.8390	 4.1030
 5.8460	 4.1510
 5.8530	 4.3540
 5.8590	 4.4500
 5.8660	 4.5010
 5.8720	 4.4590
 5.8790	 4.4630
 5.8860	 4.3850
 5.8920	 4.4220
 5.8990	 4.4970
 5.9060	 4.6080
 5.9130	 4.6020
 5.9190	 4.6170
 5.9260	 4.6700
 5.9330	 4.8430
 5.9400	 4.9620
 5.9470	 5.0620
 5.9530	 5.0320
 5.9600	 4.9850
 5.9670	 4.8510
 5.9740	 4.8560
 5.9810	 4.8310
 5.9880	 4.8780
 5.9950	 4.8220
 6.0020	 4.7630
 6.0090	 4.7250
 6.0160	 4.7110
 6.0230	 4.6500
 6.0300	 4.6990
 6.0370	 4.6670
 6.0440	 4.6800
 6.0510	 4.6210
 6.0580	 4.6840
 6.0650	 4.6380
 6.0720	 4.6690
 6.0790	 4.6550
 6.0860	 4.6910
 6.0930	 4.6930
 6.1000	 4.7490
 6.1080	 4.7140
 6.1150	 4.7210
 6.1220	 4.7140
 6.1290	 4.7920
 6.1370	 4.7980
 6.1440	 4.8910
 6.1510	 4.9500
 6.1580	 5.0780
 6.1660	 5.1200
 6.1730	 5.2310
 6.1800	 5.1330
 6.1880	 5.1980
 6.1950	 5.2980
 6.2030	 5.3460
 6.2100	 5.2420
 6.2170	 5.2650
 6.2250	 5.2250
 6.2320	 5.2780
 6.2400	 5.1970
 6.2470	 5.2040
 6.2550	 5.1280
 6.2630	 5.0790
 6.2700	 4.9570
 6.2780	 4.9850
 6.2850	 4.9420
 6.2930	 4.9660
 6.3010	 4.9000
 6.3080	 4.9780
 6.3160	 4.9370
 6.3240	 4.9510
 6.3310	 4.9630
 6.3390	 5.0310
 6.3470	 4.9530
 6.3550	 4.9740
 6.3620	 4.9770
 6.3700	 5.0660
 6.3780	 5.0350
 6.3860	 4.9880
 6.3940	 4.8940
 6.4020	 4.9530
 6.4100	 4.9510
 6.4180	 4.9390
 6.4260	 4.8260
 6.4330	 4.8530
 6.4410	 4.8050
 6.4490	 4.9040
 6.4580	 4.9040
 6.4660	 4.9810
 6.4740	 4.9840
 6.4820	 4.9810
 6.4900	 4.9080
 6.4980	 4.9210
 6.5060	 4.8560
 6.5140	 4.8230
 6.5230	 4.7330
 6.5310	 4.7820
 6.5390	 4.6850
 6.5470	 4.7160
 6.5550	 4.6450
 6.5640	 4.5800
 6.5720	 4.4090
 6.5800	 4.4160
 6.5890	 4.4690
 6.5970	 4.5480
 6.6060	 4.5490
 6.6140	 4.6210
 6.6220	 4.5570
 6.6310	 4.5890
 6.6390	 4.4990
 6.6480	 4.5580
 6.6560	 4.5350
 6.6650	 4.5300
 6.6740	 4.4610
 6.6820	 4.4520
 6.6910	 4.3320
 6.6990	 4.3990
 6.7080	 4.4200
 6.7170	 4.4350
 6.7260	 4.3820
 6.7340	 4.3450
 6.7430	 4.2350
 6.7520	 4.2280
 6.7610	 4.1510
 6.7690	 4.1920
 6.7780	 4.1800
 6.7870	 4.2580
 6.7960	 4.0580
 6.8050	 3.9400
 6.8140	 3.8970
 6.8230	 3.9600
 6.8320	 4.0400
 6.8410	 4.1230
 6.8500	 3.9920
 6.8590	 3.9870
 6.8680	 3.9590
 6.8770	 4.0790
 6.8860	 4.0740
 6.8950	 4.1630
 6.9050	 4.1060
 6.9140	 4.0930
 6.9230	 4.0350
 6.9320	 4.1010
 6.9420	 4.0050
 6.9510	 3.9910
 6.9600	 3.9560
 6.9700	 4.0650
 6.9790	 3.9900
 6.9880	 3.9910
 6.9980	 3.9330
 7.0070	 3.9510
 7.0170	 3.8850
 7.0260	 3.9130
 7.0360	 3.8910
 7.0450	 4.0440
 7.0550	 4.0530
 7.0650	 4.0630
 7.0740	 3.9660
 7.0840	 3.9970
 7.0940	 3.9390
 7.1030	 4.0640
 7.1130	 4.0800
 7.1230	 4.0560
 7.1330	 3.9570
 7.1420	 3.9780
 7.1520	 3.8960
 7.1620	 3.9400
 7.1720	 3.8380
 7.1820	 3.8260
 7.1920	 3.7010
 7.2020	 3.7480
 7.2120	 3.6660
 7.2220	 3.7170
 7.2320	 3.6500
 7.2420	 3.7310
 7.2520	 3.6410
 7.2620	 3.6520
 7.2730	 3.6710
 7.2830	 3.7500
 7.2930	 3.7430
 7.3030	 3.8430
 7.3140	 3.7400
 7.3240	 3.8290
 7.3340	 3.8040
 7.3450	 3.8270
 7.3550	 3.7310
 7.3660	 3.7490
 7.3760	 3.7360
 7.3870	 3.8970
 7.3970	 3.8780
 7.4080	 3.8710
 7.4180	 3.7960
 7.4290	 3.8380
 7.4400	 3.7310
 7.4500	 3.8470
 7.4610	 3.8080
 7.4720	 3.8800
 7.4830	 3.8700
 7.4930	 3.8310
 7.5040	 3.7190
 7.5150	 3.8130
 7.5260	 3.7230
 7.5370	 3.7780
 7.5480	 3.7620
 7.5590	 3.8820
 7.5700	 3.8520
 7.5810	 3.8790
 7.5920	 3.8410
 7.6030	 3.9640
 7.6140	 3.9440
 7.6260	 4.0540
 7.6370	 3.9600
 7.6480	 3.9360
 7.6590	 3.8440
 7.6710	 3.8700
 7.6820	 3.7870
 7.6930	 3.8710
 7.7050	 3.8290
 7.7160	 3.8230
 7.7280	 3.7410
 7.7390	 3.7440
 7.7510	 3.6410
 7.7630	 3.7250
 7.7740	 3.6830
 7.7860	 3.7180
 7.7980	 3.6990
 7.8090	 3.7620
 7.8210	 3.6380
 7.8330	 3.7380
 7.8450	 3.6590
 7.8570	 3.6220
 7.8690	 3.4980
 7.8810	 3.5730
 7.8930	 3.5040
 7.9050	 3.5810
 7.9170	 3.4940
 7.9290	 3.5700
 7.9410	 3.4800
 7.9530	 3.5770
 7.9650	 3.5950
 7.9780	 3.6070
 7.9900	 3.5250
 8.0020	 3.6000
 8.0150	 3.5430
 8.0270	 3.7100
 8.0390	 3.6360
 8.0520	 3.7170
 8.0640	 3.7760
 8.0770	 3.8130
 8.0900	 3.6430
 8.1020	 3.8460
 8.1150	 3.7720
 8.1280	 3.8550
 8.1400	 3.8090
 8.1530	 3.9490
 8.1660	 3.8100
 8.1790	 3.8420
 8.1920	 3.7740
 8.2050	 3.9370
 8.2180	 3.8900
 8.2310	 3.9650
 8.2440	 3.7830
 8.2570	 3.9590
 8.2700	 4.0310
 8.2830	 4.0470
 8.2970	 3.9190
 8.3100	 4.0680
 8.3230	 3.9840
 8.3370	 3.9850
 8.3500	 3.9210
 8.3640	 4.1360
 8.3770	 4.0880
 8.3910	 4.1010
 8.4040	 3.8840
 8.4180	 3.9400
 8.4320	 3.9070
 8.4450	 4.0020
 8.4590	 3.7910
 8.4730	 3.9790
 8.4870	 3.9520
 8.5010	 4.0190
 8.5150	 3.8220
 8.5290	 3.9790
 8.5430	 4.0940
 8.5570	 4.2170
 8.5710	 4.0330
 8.5850	 4.1940
 8.5990	 4.1930
 8.6140	 4.3690
 8.6280	 4.2640
 8.6420	 4.3130
 8.6570	 4.2880
 8.6710	 4.4110
 8.6860	 4.2360
 8.7000	 4.3750
 8.7150	 4.3820
 8.7300	 4.4590
 8.7440	 4.2870
 8.7590	 4.3910
 8.7740	 4.1950
 8.7890	 4.1290
 8.8040	 3.9980
 8.8190	 4.2230
 8.8340	 4.1670
 8.8490	 4.2330
 8.8640	 4.0940
 8.8790	 4.1460
 8.8940	 3.9260
 8.9100	 4.0360
 8.9250	 4.0450
 8.9400	 4.1500
 8.9560	 3.9070
 8.9710	 4.0070
 8.9870	 3.9530
 9.0020	 4.0760
 9.0180	 3.9840
 9.0340	 4.1970
 9.0500	 4.1090
 9.0650	 4.1900
 9.0810	 4.1160
 9.0970	 4.2170
 9.1130	 4.1500
 9.1290	 4.3290
 9.1450	 4.2330
 9.1610	 4.2930
 9.1780	 4.0510
 9.1940	 4.2060
 9.2100	 4.1390
 9.2270	 4.2900
 9.2430	 4.2410
 9.2600	 4.3650
 9.2760	 4.2100
 9.2930	 4.3370
 9.3090	 4.1420
 9.3260	 4.3260
 9.3430	 4.3220
 9.3600	 4.5140
 9.3770	 4.3740
 9.3940	 4.4950
 9.4110	 4.4050
 9.4280	 4.6200
 9.4450	 4.4900
 9.4620	 4.5470
 9.4800	 4.3580
 9.4970	 4.5580
 9.5140	 4.5340
 9.5320	 4.7450
 9.5500	 4.6440
 9.5670	 4.6030
 9.5850	 4.3270
 9.6030	 4.4580
 9.6200	 4.4180
 9.6380	 4.7450
 9.6560	 4.6050
 9.6740	 4.6430
 9.6920	 4.5770
 9.7100	 4.7160
 9.7290	 4.6420
 9.7470	 4.7440
 9.7650	 4.6900
 9.7840	 4.7480
 9.8020	 4.5090
 9.8210	 4.5240
 9.8390	 4.3820
 9.8580	 4.7030
 9.8770	 4.6380
 9.8960	 4.6490
 9.9150	 4.4290
 9.9340	 4.5300
 9.9530	 4.4200
 9.9720	 4.5520
 9.9910	 4.3450
10.0100	 4.4210
10.0300	 4.4320
10.0490	 4.6200
10.0690	 4.4250
10.0880	 4.6160
10.1080	 4.6090
10.1280	 4.7300
10.1480	 4.5900
10.1670	 4.7270
10.1870	 4.4970
10.2070	 4.5740
10.2280	 4.4940
10.2480	 4.7100
10.2680	 4.6130
10.2890	 4.8150
10.3090	 4.8600
10.3300	 4.9810
10.3500	 4.8500
10.3710	 5.0340
10.3920	 4.9120
10.4120	 4.9960
10.4330	 4.9310
10.4540	 5.2270
10.4760	 5.2170
10.4970	 5.3520
10.5180	 5.2220
10.5390	 5.2820
10.5610	 5.2140
10.5820	 5.3220
10.6040	 5.0930
10.6260	 5.3480
10.6480	 5.3170
10.6700	 5.5080
10.6920	 5.3260
10.7140	 5.3050
10.7360	 5.1410
10.7580	 5.3440
10.7800	 5.2310
10.8030	 5.2180
10.8250	 5.0410
10.8480	 5.2290
10.8710	 5.0230
10.8940	 5.2320
10.9170	 5.1190
10.9400	 5.2000
10.9630	 5.0450
10.9860	 5.0340
11.0090	 4.7830
11.0330	 4.9000
11.0560	 4.7990
11.0800	 4.8770
11.1040	 4.6300
11.1270	 4.7690
11.1510	 4.6180
11.1750	 4.8050
11.2000	 4.6990
11.2240	 4.9290
11.2480	 4.8840
11.2730	 5.0930
11.2970	 5.0650
11.3220	 5.2300
11.3470	 4.9160
11.3720	 4.9620
11.3970	 4.7600
11.4220	 4.9200
11.4470	 4.7590
11.4720	 4.9970
11.4980	 4.9040
11.5230	 4.9830
11.5490	 4.8860
11.5750	 5.1230
11.6000	 4.8900
11.6260	 5.0230
11.6530	 4.9260
11.6790	 5.0640
11.7050	 4.7860
11.7320	 4.9410
11.7580	 4.8240
11.7850	 4.9890
11.8120	 4.7990
11.8390	 5.0660
11.8660	 4.9590
11.8930	 5.1120
11.9200	 4.8390
11.9480	 5.0210
11.9760	 4.8890
12.0030	 5.0670
12.0310	 4.8400
12.0590	 5.0270
12.0870	 4.8730
12.1150	 5.0930
12.1440	 4.8020
12.1720	 5.0850
12.2010	 5.0260
12.2300	 5.1630
12.2590	 4.8210
12.2880	 4.9580
12.3170	 4.7690
12.3460	 5.0150
12.3760	 4.8150
12.4050	 5.0540
12.4350	 4.9270
12.4650	 5.0640
12.4950	 4.6520
12.5250	 4.7850
12.5550	 4.6280
12.5860	 4.7440
12.6170	 4.5650
12.6470	 4.9850
12.6780	 4.8550
12.7090	 4.8820
12.7410	 4.5220
12.7720	 4.6500
12.8030	 4.4270
12.8350	 4.6750
12.8670	 4.5570
12.8990	 4.8620
12.9310	 4.5600
12.9640	 4.8050
12.9960	 4.6190
13.0290	 4.8340
13.0610	 4.6180
13.0940	 4.7020
13.1280	 4.3370
13.1610	 4.6150
13.1940	 4.3300
13.2280	 4.3510
13.2620	 4.2670
13.2960	 4.7360
13.3300	 4.4040
13.3640	 4.4800
13.3990	 4.1680
13.4340	 4.4510
13.4690	 4.4070
13.5040	 4.5510
13.5390	 4.1210
13.5740	 4.4100
13.6100	 4.2300
13.6460	 4.6740
13.6820	 4.6660
13.7180	 4.8120
13.7540	 4.2950
13.7910	 4.6450
13.8280	 4.5870
13.8650	 5.0390
13.9020	 4.7740
13.9390	 5.0740
13.9770	 4.5840
14.0150	 4.7140
14.0530	 4.1760
14.0910	 4.5030
14.1290	 4.4210
14.1680	 4.7210
14.2070	 4.3150
14.2460	 4.6300
14.2850	 4.1210
14.3240	 4.5220
14.3640	 4.3030
14.4040	 4.5260
14.4440	 4.1860
14.4840	 4.7930
14.5250	 4.5260
14.5660	 4.7830
14.6070	 4.2220
14.6480	 4.3960
14.6900	 3.9200
14.7310	 4.3250
14.7730	 4.1360
14.8150	 4.6060
14.8580	 4.0920
14.9010	 4.4810
14.9440	 3.5920
14.9870	 3.7730
15.0300	 3.4800
15.0740	 4.1880
15.1180	 3.7110
15.1620	 4.2600
15.2060	 3.6950
15.2510	 4.2190
15.2960	 3.9360
15.3410	 4.5570
15.3870	 3.8760
