Name: Melateuca lanceolata
Type: vegetation
Class: Tree
Genus: Melateuca
Species: lanceolata
Sample No.: JPL153
Owner: JPL
Wavelength Range: VSWIR
Origin: 34.12436; -118.1144; WGS84
Collection Date: 9/14/2016
Description: Samples were collected at the Huntington Garden in San Marino California as part of a JPL Subcontract studying HyTES imagery. Samples were taken to JPL and processed within 48 hours of collection. The same leaves were processed in the Nicolet and then measured using the ASD.
Measurement: Bidirectional reflectance
First Column: X
Second Column: Y
X Units: Wavelength (micrometer)
Y Units: Reflectance (percentage)
First X Value: 0.35
Last X Value: 2.5
Number of X Values: 2151
Additional Information: vegetation.tree.melateuca.lanceolata.vswir.jpl153.jpl.asd.ancillary.txt

 0.3500	 2.8480
 0.3510	 2.6960
 0.3520	 2.7030
 0.3530	 2.7380
 0.3540	 2.6830
 0.3550	 2.6640
 0.3560	 2.6860
 0.3570	 2.7570
 0.3580	 2.8570
 0.3590	 2.7010
 0.3600	 2.6060
 0.3610	 2.6600
 0.3620	 2.5490
 0.3630	 2.5300
 0.3640	 2.6050
 0.3650	 2.6880
 0.3660	 2.6090
 0.3670	 2.6260
 0.3680	 2.7200
 0.3690	 2.6870
 0.3700	 2.6200
 0.3710	 2.5700
 0.3720	 2.5780
 0.3730	 2.6930
 0.3740	 2.7000
 0.3750	 2.6400
 0.3760	 2.6160
 0.3770	 2.5950
 0.3780	 2.5860
 0.3790	 2.5860
 0.3800	 2.5820
 0.3810	 2.6080
 0.3820	 2.6280
 0.3830	 2.6220
 0.3840	 2.6090
 0.3850	 2.5840
 0.3860	 2.5710
 0.3870	 2.5930
 0.3880	 2.6240
 0.3890	 2.6280
 0.3900	 2.6130
 0.3910	 2.6340
 0.3920	 2.6400
 0.3930	 2.6610
 0.3940	 2.7010
 0.3950	 2.6760
 0.3960	 2.6410
 0.3970	 2.6290
 0.3980	 2.6520
 0.3990	 2.6650
 0.4000	 2.6600
 0.4010	 2.6490
 0.4020	 2.6610
 0.4030	 2.6540
 0.4040	 2.6480
 0.4050	 2.6680
 0.4060	 2.6850
 0.4070	 2.6960
 0.4080	 2.7020
 0.4090	 2.7100
 0.4100	 2.7180
 0.4110	 2.7360
 0.4120	 2.7600
 0.4130	 2.7570
 0.4140	 2.7550
 0.4150	 2.7680
 0.4160	 2.7960
 0.4170	 2.8030
 0.4180	 2.8100
 0.4190	 2.8190
 0.4200	 2.8180
 0.4210	 2.8430
 0.4220	 2.8620
 0.4230	 2.8540
 0.4240	 2.8660
 0.4250	 2.8800
 0.4260	 2.8920
 0.4270	 2.9050
 0.4280	 2.9230
 0.4290	 2.9360
 0.4300	 2.9440
 0.4310	 2.9570
 0.4320	 2.9670
 0.4330	 2.9780
 0.4340	 2.9960
 0.4350	 3.0080
 0.4360	 3.0160
 0.4370	 3.0260
 0.4380	 3.0480
 0.4390	 3.0690
 0.4400	 3.0810
 0.4410	 3.0870
 0.4420	 3.1060
 0.4430	 3.1240
 0.4440	 3.1420
 0.4450	 3.1660
 0.4460	 3.1860
 0.4470	 3.2030
 0.4480	 3.2200
 0.4490	 3.2430
 0.4500	 3.2610
 0.4510	 3.2810
 0.4520	 3.3090
 0.4530	 3.3330
 0.4540	 3.3510
 0.4550	 3.3670
 0.4560	 3.3870
 0.4570	 3.4090
 0.4580	 3.4250
 0.4590	 3.4330
 0.4600	 3.4410
 0.4610	 3.4540
 0.4620	 3.4690
 0.4630	 3.4850
 0.4640	 3.4930
 0.4650	 3.5000
 0.4660	 3.5090
 0.4670	 3.5210
 0.4680	 3.5310
 0.4690	 3.5440
 0.4700	 3.5570
 0.4710	 3.5650
 0.4720	 3.5660
 0.4730	 3.5700
 0.4740	 3.5910
 0.4750	 3.6080
 0.4760	 3.6150
 0.4770	 3.6150
 0.4780	 3.6290
 0.4790	 3.6410
 0.4800	 3.6500
 0.4810	 3.6570
 0.4820	 3.6670
 0.4830	 3.6770
 0.4840	 3.6890
 0.4850	 3.7080
 0.4860	 3.7220
 0.4870	 3.7350
 0.4880	 3.7500
 0.4890	 3.7690
 0.4900	 3.7950
 0.4910	 3.8200
 0.4920	 3.8350
 0.4930	 3.8590
 0.4940	 3.8900
 0.4950	 3.9240
 0.4960	 3.9550
 0.4970	 3.9900
 0.4980	 4.0310
 0.4990	 4.0740
 0.5000	 4.1250
 0.5010	 4.1760
 0.5020	 4.2290
 0.5030	 4.2920
 0.5040	 4.3680
 0.5050	 4.4470
 0.5060	 4.5250
 0.5070	 4.6100
 0.5080	 4.7000
 0.5090	 4.7990
 0.5100	 4.9080
 0.5110	 5.0250
 0.5120	 5.1490
 0.5130	 5.2810
 0.5140	 5.4190
 0.5150	 5.5630
 0.5160	 5.7170
 0.5170	 5.8810
 0.5180	 6.0490
 0.5190	 6.2220
 0.5200	 6.4000
 0.5210	 6.5810
 0.5220	 6.7630
 0.5230	 6.9430
 0.5240	 7.1200
 0.5250	 7.2930
 0.5260	 7.4600
 0.5270	 7.6190
 0.5280	 7.7670
 0.5290	 7.9080
 0.5300	 8.0350
 0.5310	 8.1490
 0.5320	 8.2570
 0.5330	 8.3580
 0.5340	 8.4490
 0.5350	 8.5280
 0.5360	 8.6060
 0.5370	 8.6710
 0.5380	 8.7270
 0.5390	 8.7830
 0.5400	 8.8400
 0.5410	 8.9020
 0.5420	 8.9670
 0.5430	 9.0230
 0.5440	 9.0590
 0.5450	 9.0780
 0.5460	 9.0890
 0.5470	 9.0890
 0.5480	 9.0890
 0.5490	 9.0950
 0.5500	 9.1040
 0.5510	 9.1090
 0.5520	 9.1060
 0.5530	 9.0920
 0.5540	 9.0690
 0.5550	 9.0360
 0.5560	 8.9920
 0.5570	 8.9390
 0.5580	 8.8790
 0.5590	 8.8100
 0.5600	 8.7350
 0.5610	 8.6570
 0.5620	 8.5710
 0.5630	 8.4800
 0.5640	 8.3900
 0.5650	 8.2970
 0.5660	 8.2000
 0.5670	 8.1010
 0.5680	 8.0000
 0.5690	 7.8960
 0.5700	 7.7890
 0.5710	 7.6810
 0.5720	 7.5770
 0.5730	 7.4790
 0.5740	 7.3850
 0.5750	 7.2970
 0.5760	 7.2100
 0.5770	 7.1290
 0.5780	 7.0550
 0.5790	 6.9880
 0.5800	 6.9250
 0.5810	 6.8650
 0.5820	 6.8100
 0.5830	 6.7610
 0.5840	 6.7130
 0.5850	 6.6630
 0.5860	 6.6160
 0.5870	 6.5740
 0.5880	 6.5350
 0.5890	 6.4940
 0.5900	 6.4600
 0.5910	 6.4270
 0.5920	 6.3950
 0.5930	 6.3660
 0.5940	 6.3430
 0.5950	 6.3220
 0.5960	 6.3010
 0.5970	 6.2840
 0.5980	 6.2680
 0.5990	 6.2510
 0.6000	 6.2290
 0.6010	 6.2050
 0.6020	 6.1780
 0.6030	 6.1480
 0.6040	 6.1160
 0.6050	 6.0810
 0.6060	 6.0410
 0.6070	 5.9990
 0.6080	 5.9540
 0.6090	 5.9130
 0.6100	 5.8790
 0.6110	 5.8510
 0.6120	 5.8010
 0.6130	 5.7390
 0.6140	 5.6770
 0.6150	 5.6250
 0.6160	 5.5770
 0.6170	 5.5320
 0.6180	 5.4910
 0.6190	 5.4520
 0.6200	 5.4210
 0.6210	 5.3950
 0.6220	 5.3690
 0.6230	 5.3450
 0.6240	 5.3260
 0.6250	 5.3110
 0.6260	 5.2990
 0.6270	 5.2890
 0.6280	 5.2800
 0.6290	 5.2720
 0.6300	 5.2700
 0.6310	 5.2660
 0.6320	 5.2560
 0.6330	 5.2380
 0.6340	 5.2190
 0.6350	 5.1980
 0.6360	 5.1700
 0.6370	 5.1340
 0.6380	 5.0950
 0.6390	 5.0530
 0.6400	 5.0060
 0.6410	 4.9550
 0.6420	 4.9030
 0.6430	 4.8510
 0.6440	 4.8000
 0.6450	 4.7510
 0.6460	 4.7030
 0.6470	 4.6570
 0.6480	 4.6190
 0.6490	 4.5870
 0.6500	 4.5590
 0.6510	 4.5340
 0.6520	 4.5150
 0.6530	 4.4980
 0.6540	 4.4820
 0.6550	 4.4630
 0.6560	 4.4410
 0.6570	 4.4180
 0.6580	 4.3910
 0.6590	 4.3620
 0.6600	 4.3330
 0.6610	 4.3030
 0.6620	 4.2730
 0.6630	 4.2440
 0.6640	 4.2190
 0.6650	 4.1970
 0.6660	 4.1800
 0.6670	 4.1700
 0.6680	 4.1650
 0.6690	 4.1650
 0.6700	 4.1730
 0.6710	 4.1850
 0.6720	 4.2000
 0.6730	 4.2220
 0.6740	 4.2490
 0.6750	 4.2800
 0.6760	 4.3170
 0.6770	 4.3590
 0.6780	 4.4080
 0.6790	 4.4630
 0.6800	 4.5210
 0.6810	 4.5850
 0.6820	 4.6540
 0.6830	 4.7280
 0.6840	 4.8070
 0.6850	 4.8930
 0.6860	 4.9870
 0.6870	 5.0900
 0.6880	 5.2100
 0.6890	 5.3500
 0.6900	 5.5160
 0.6910	 5.7200
 0.6920	 5.9660
 0.6930	 6.2560
 0.6940	 6.5940
 0.6950	 6.9820
 0.6960	 7.4200
 0.6970	 7.9050
 0.6980	 8.4330
 0.6990	 9.0020
 0.7000	 9.6040
 0.7010	10.2340
 0.7020	10.8900
 0.7030	11.5670
 0.7040	12.2630
 0.7050	12.9730
 0.7060	13.6950
 0.7070	14.4290
 0.7080	15.1740
 0.7090	15.9290
 0.7100	16.6980
 0.7110	17.4780
 0.7120	18.2690
 0.7130	19.0690
 0.7140	19.8770
 0.7150	20.6950
 0.7160	21.5220
 0.7170	22.3550
 0.7180	23.1930
 0.7190	24.0320
 0.7200	24.8710
 0.7210	25.7080
 0.7220	26.5390
 0.7230	27.3620
 0.7240	28.1740
 0.7250	28.9700
 0.7260	29.7490
 0.7270	30.5090
 0.7280	31.2460
 0.7290	31.9590
 0.7300	32.6480
 0.7310	33.3110
 0.7320	33.9470
 0.7330	34.5550
 0.7340	35.1340
 0.7350	35.6820
 0.7360	36.2040
 0.7370	36.6970
 0.7380	37.1620
 0.7390	37.5960
 0.7400	38.0020
 0.7410	38.3820
 0.7420	38.7380
 0.7430	39.0650
 0.7440	39.3660
 0.7450	39.6430
 0.7460	39.8990
 0.7470	40.1310
 0.7480	40.3420
 0.7490	40.5320
 0.7500	40.7080
 0.7510	40.8660
 0.7520	41.0080
 0.7530	41.1390
 0.7540	41.2580
 0.7550	41.3640
 0.7560	41.4590
 0.7570	41.5450
 0.7580	41.6260
 0.7590	41.7020
 0.7600	41.7710
 0.7610	41.8310
 0.7620	41.8840
 0.7630	41.9320
 0.7640	41.9770
 0.7650	42.0150
 0.7660	42.0500
 0.7670	42.0820
 0.7680	42.1110
 0.7690	42.1380
 0.7700	42.1640
 0.7710	42.1880
 0.7720	42.2070
 0.7730	42.2270
 0.7740	42.2470
 0.7750	42.2650
 0.7760	42.2850
 0.7770	42.3040
 0.7780	42.3210
 0.7790	42.3390
 0.7800	42.3550
 0.7810	42.3720
 0.7820	42.3900
 0.7830	42.4090
 0.7840	42.4250
 0.7850	42.4390
 0.7860	42.4540
 0.7870	42.4660
 0.7880	42.4780
 0.7890	42.4900
 0.7900	42.5010
 0.7910	42.5110
 0.7920	42.5200
 0.7930	42.5300
 0.7940	42.5390
 0.7950	42.5460
 0.7960	42.5540
 0.7970	42.5620
 0.7980	42.5680
 0.7990	42.5700
 0.8000	42.5710
 0.8010	42.5760
 0.8020	42.5760
 0.8030	42.5750
 0.8040	42.5740
 0.8050	42.5750
 0.8060	42.5740
 0.8070	42.5730
 0.8080	42.5710
 0.8090	42.5680
 0.8100	42.5650
 0.8110	42.5580
 0.8120	42.5510
 0.8130	42.5460
 0.8140	42.5400
 0.8150	42.5340
 0.8160	42.5300
 0.8170	42.5220
 0.8180	42.5150
 0.8190	42.5090
 0.8200	42.5050
 0.8210	42.4990
 0.8220	42.4920
 0.8230	42.4850
 0.8240	42.4770
 0.8250	42.4670
 0.8260	42.4580
 0.8270	42.4500
 0.8280	42.4430
 0.8290	42.4330
 0.8300	42.4220
 0.8310	42.4130
 0.8320	42.4060
 0.8330	42.3950
 0.8340	42.3850
 0.8350	42.3820
 0.8360	42.3810
 0.8370	42.3790
 0.8380	42.3740
 0.8390	42.3730
 0.8400	42.3730
 0.8410	42.3750
 0.8420	42.3770
 0.8430	42.3770
 0.8440	42.3800
 0.8450	42.3840
 0.8460	42.3880
 0.8470	42.3890
 0.8480	42.3930
 0.8490	42.3990
 0.8500	42.4060
 0.8510	42.4090
 0.8520	42.4150
 0.8530	42.4240
 0.8540	42.4300
 0.8550	42.4340
 0.8560	42.4400
 0.8570	42.4500
 0.8580	42.4610
 0.8590	42.4720
 0.8600	42.4810
 0.8610	42.4900
 0.8620	42.5030
 0.8630	42.5140
 0.8640	42.5220
 0.8650	42.5300
 0.8660	42.5460
 0.8670	42.5570
 0.8680	42.5650
 0.8690	42.5750
 0.8700	42.5920
 0.8710	42.6060
 0.8720	42.6160
 0.8730	42.6310
 0.8740	42.6410
 0.8750	42.6550
 0.8760	42.6710
 0.8770	42.6770
 0.8780	42.6900
 0.8790	42.7050
 0.8800	42.7180
 0.8810	42.7280
 0.8820	42.7400
 0.8830	42.7510
 0.8840	42.7620
 0.8850	42.7720
 0.8860	42.7870
 0.8870	42.8010
 0.8880	42.8110
 0.8890	42.8180
 0.8900	42.8230
 0.8910	42.8320
 0.8920	42.8480
 0.8930	42.8550
 0.8940	42.8610
 0.8950	42.8700
 0.8960	42.8790
 0.8970	42.8850
 0.8980	42.8930
 0.8990	42.9050
 0.9000	42.9130
 0.9010	42.9170
 0.9020	42.9230
 0.9030	42.9330
 0.9040	42.9450
 0.9050	42.9480
 0.9060	42.9480
 0.9070	42.9510
 0.9080	42.9620
 0.9090	42.9700
 0.9100	42.9740
 0.9110	42.9760
 0.9120	42.9840
 0.9130	42.9920
 0.9140	42.9960
 0.9150	42.9930
 0.9160	42.9950
 0.9170	43.0020
 0.9180	43.0060
 0.9190	43.0010
 0.9200	42.9960
 0.9210	42.9970
 0.9220	42.9950
 0.9230	42.9830
 0.9240	42.9770
 0.9250	42.9700
 0.9260	42.9590
 0.9270	42.9420
 0.9280	42.9230
 0.9290	42.9080
 0.9300	42.8920
 0.9310	42.8680
 0.9320	42.8440
 0.9330	42.8230
 0.9340	42.8010
 0.9350	42.7680
 0.9360	42.7400
 0.9370	42.7090
 0.9380	42.6720
 0.9390	42.6390
 0.9400	42.6020
 0.9410	42.5600
 0.9420	42.5150
 0.9430	42.4720
 0.9440	42.4270
 0.9450	42.3750
 0.9460	42.3150
 0.9470	42.2520
 0.9480	42.1810
 0.9490	42.1100
 0.9500	42.0440
 0.9510	41.9660
 0.9520	41.8840
 0.9530	41.7970
 0.9540	41.7050
 0.9550	41.6270
 0.9560	41.5430
 0.9570	41.4600
 0.9580	41.3870
 0.9590	41.3160
 0.9600	41.2410
 0.9610	41.1780
 0.9620	41.1350
 0.9630	41.0750
 0.9640	41.0190
 0.9650	40.9750
 0.9660	40.9400
 0.9670	40.9040
 0.9680	40.8780
 0.9690	40.8560
 0.9700	40.8290
 0.9710	40.8080
 0.9720	40.7870
 0.9730	40.7610
 0.9740	40.7330
 0.9750	40.7280
 0.9760	40.7270
 0.9770	40.7160
 0.9780	40.6950
 0.9790	40.6940
 0.9800	40.6900
 0.9810	40.6810
 0.9820	40.6780
 0.9830	40.6900
 0.9840	40.7050
 0.9850	40.7120
 0.9860	40.7090
 0.9870	40.7170
 0.9880	40.7290
 0.9890	40.7440
 0.9900	40.7630
 0.9910	40.7790
 0.9920	40.7970
 0.9930	40.8150
 0.9940	40.8300
 0.9950	40.8480
 0.9960	40.8800
 0.9970	40.9070
 0.9980	40.9150
 0.9990	40.9410
 1.0000	40.9680
 1.0010	40.9070
 1.0020	40.9320
 1.0030	40.9610
 1.0040	40.9950
 1.0050	41.0310
 1.0060	41.0680
 1.0070	41.1030
 1.0080	41.1320
 1.0090	41.1530
 1.0100	41.1820
 1.0110	41.2120
 1.0120	41.2440
 1.0130	41.2810
 1.0140	41.3150
 1.0150	41.3490
 1.0160	41.3790
 1.0170	41.4100
 1.0180	41.4410
 1.0190	41.4680
 1.0200	41.5000
 1.0210	41.5330
 1.0220	41.5640
 1.0230	41.5960
 1.0240	41.6280
 1.0250	41.6590
 1.0260	41.6930
 1.0270	41.7230
 1.0280	41.7510
 1.0290	41.7790
 1.0300	41.8040
 1.0310	41.8320
 1.0320	41.8620
 1.0330	41.8940
 1.0340	41.9270
 1.0350	41.9530
 1.0360	41.9760
 1.0370	42.0040
 1.0380	42.0300
 1.0390	42.0550
 1.0400	42.0810
 1.0410	42.1090
 1.0420	42.1330
 1.0430	42.1570
 1.0440	42.1800
 1.0450	42.1990
 1.0460	42.2200
 1.0470	42.2420
 1.0480	42.2620
 1.0490	42.2810
 1.0500	42.3010
 1.0510	42.3220
 1.0520	42.3380
 1.0530	42.3580
 1.0540	42.3810
 1.0550	42.4000
 1.0560	42.4180
 1.0570	42.4360
 1.0580	42.4540
 1.0590	42.4690
 1.0600	42.4830
 1.0610	42.4950
 1.0620	42.5020
 1.0630	42.5120
 1.0640	42.5240
 1.0650	42.5350
 1.0660	42.5480
 1.0670	42.5600
 1.0680	42.5700
 1.0690	42.5810
 1.0700	42.5890
 1.0710	42.5960
 1.0720	42.6030
 1.0730	42.6080
 1.0740	42.6150
 1.0750	42.6220
 1.0760	42.6280
 1.0770	42.6320
 1.0780	42.6360
 1.0790	42.6380
 1.0800	42.6430
 1.0810	42.6530
 1.0820	42.6560
 1.0830	42.6550
 1.0840	42.6540
 1.0850	42.6480
 1.0860	42.6390
 1.0870	42.6340
 1.0880	42.6310
 1.0890	42.6270
 1.0900	42.6250
 1.0910	42.6190
 1.0920	42.6140
 1.0930	42.6050
 1.0940	42.5930
 1.0950	42.5830
 1.0960	42.5730
 1.0970	42.5610
 1.0980	42.5490
 1.0990	42.5360
 1.1000	42.5210
 1.1010	42.5070
 1.1020	42.4930
 1.1030	42.4770
 1.1040	42.4610
 1.1050	42.4440
 1.1060	42.4260
 1.1070	42.4060
 1.1080	42.3860
 1.1090	42.3670
 1.1100	42.3440
 1.1110	42.3200
 1.1120	42.2940
 1.1130	42.2680
 1.1140	42.2390
 1.1150	42.2090
 1.1160	42.1780
 1.1170	42.1470
 1.1180	42.1120
 1.1190	42.0770
 1.1200	42.0360
 1.1210	41.9910
 1.1220	41.9410
 1.1230	41.8850
 1.1240	41.8250
 1.1250	41.7570
 1.1260	41.6840
 1.1270	41.6020
 1.1280	41.5170
 1.1290	41.4190
 1.1300	41.3130
 1.1310	41.1980
 1.1320	41.0750
 1.1330	40.9420
 1.1340	40.8000
 1.1350	40.6490
 1.1360	40.4900
 1.1370	40.3200
 1.1380	40.1420
 1.1390	39.9580
 1.1400	39.7650
 1.1410	39.5690
 1.1420	39.3710
 1.1430	39.1700
 1.1440	38.9710
 1.1450	38.7690
 1.1460	38.5730
 1.1470	38.3790
 1.1480	38.1920
 1.1490	38.0080
 1.1500	37.8360
 1.1510	37.6690
 1.1520	37.5120
 1.1530	37.3650
 1.1540	37.2260
 1.1550	37.0940
 1.1560	36.9730
 1.1570	36.8600
 1.1580	36.7580
 1.1590	36.6680
 1.1600	36.5840
 1.1610	36.5060
 1.1620	36.4340
 1.1630	36.3660
 1.1640	36.3020
 1.1650	36.2430
 1.1660	36.1900
 1.1670	36.1390
 1.1680	36.0920
 1.1690	36.0460
 1.1700	36.0040
 1.1710	35.9620
 1.1720	35.9210
 1.1730	35.8800
 1.1740	35.8390
 1.1750	35.7990
 1.1760	35.7590
 1.1770	35.7190
 1.1780	35.6780
 1.1790	35.6370
 1.1800	35.5980
 1.1810	35.5590
 1.1820	35.5210
 1.1830	35.4880
 1.1840	35.4560
 1.1850	35.4260
 1.1860	35.3980
 1.1870	35.3720
 1.1880	35.3490
 1.1890	35.3270
 1.1900	35.3100
 1.1910	35.2970
 1.1920	35.2860
 1.1930	35.2780
 1.1940	35.2710
 1.1950	35.2670
 1.1960	35.2660
 1.1970	35.2670
 1.1980	35.2710
 1.1990	35.2790
 1.2000	35.2900
 1.2010	35.3050
 1.2020	35.3230
 1.2030	35.3440
 1.2040	35.3650
 1.2050	35.3910
 1.2060	35.4190
 1.2070	35.4490
 1.2080	35.4820
 1.2090	35.5160
 1.2100	35.5530
 1.2110	35.5920
 1.2120	35.6340
 1.2130	35.6770
 1.2140	35.7220
 1.2150	35.7670
 1.2160	35.8130
 1.2170	35.8620
 1.2180	35.9100
 1.2190	35.9590
 1.2200	36.0080
 1.2210	36.0560
 1.2220	36.1060
 1.2230	36.1570
 1.2240	36.2070
 1.2250	36.2570
 1.2260	36.3050
 1.2270	36.3510
 1.2280	36.3980
 1.2290	36.4430
 1.2300	36.4840
 1.2310	36.5250
 1.2320	36.5650
 1.2330	36.6020
 1.2340	36.6400
 1.2350	36.6780
 1.2360	36.7140
 1.2370	36.7470
 1.2380	36.7810
 1.2390	36.8140
 1.2400	36.8450
 1.2410	36.8750
 1.2420	36.9050
 1.2430	36.9340
 1.2440	36.9620
 1.2450	36.9890
 1.2460	37.0160
 1.2470	37.0410
 1.2480	37.0640
 1.2490	37.0880
 1.2500	37.1120
 1.2510	37.1340
 1.2520	37.1540
 1.2530	37.1730
 1.2540	37.1900
 1.2550	37.2070
 1.2560	37.2240
 1.2570	37.2410
 1.2580	37.2550
 1.2590	37.2670
 1.2600	37.2790
 1.2610	37.2890
 1.2620	37.2970
 1.2630	37.3040
 1.2640	37.3110
 1.2650	37.3170
 1.2660	37.3210
 1.2670	37.3230
 1.2680	37.3250
 1.2690	37.3230
 1.2700	37.3190
 1.2710	37.3150
 1.2720	37.3080
 1.2730	37.3020
 1.2740	37.2950
 1.2750	37.2870
 1.2760	37.2770
 1.2770	37.2640
 1.2780	37.2490
 1.2790	37.2310
 1.2800	37.2140
 1.2810	37.1940
 1.2820	37.1740
 1.2830	37.1540
 1.2840	37.1300
 1.2850	37.1050
 1.2860	37.0770
 1.2870	37.0460
 1.2880	37.0130
 1.2890	36.9780
 1.2900	36.9390
 1.2910	36.8970
 1.2920	36.8520
 1.2930	36.8050
 1.2940	36.7570
 1.2950	36.7080
 1.2960	36.6560
 1.2970	36.6010
 1.2980	36.5420
 1.2990	36.4790
 1.3000	36.4150
 1.3010	36.3480
 1.3020	36.2780
 1.3030	36.2050
 1.3040	36.1260
 1.3050	36.0430
 1.3060	35.9540
 1.3070	35.8640
 1.3080	35.7740
 1.3090	35.6800
 1.3100	35.5830
 1.3110	35.4840
 1.3120	35.3770
 1.3130	35.2660
 1.3140	35.1510
 1.3150	35.0330
 1.3160	34.9100
 1.3170	34.7850
 1.3180	34.6570
 1.3190	34.5240
 1.3200	34.3880
 1.3210	34.2480
 1.3220	34.1050
 1.3230	33.9580
 1.3240	33.8080
 1.3250	33.6570
 1.3260	33.5030
 1.3270	33.3460
 1.3280	33.1860
 1.3290	33.0210
 1.3300	32.8540
 1.3310	32.6860
 1.3320	32.5170
 1.3330	32.3500
 1.3340	32.1810
 1.3350	32.0100
 1.3360	31.8400
 1.3370	31.6690
 1.3380	31.4980
 1.3390	31.3280
 1.3400	31.1580
 1.3410	30.9910
 1.3420	30.8250
 1.3430	30.6620
 1.3440	30.5000
 1.3450	30.3400
 1.3460	30.1800
 1.3470	30.0250
 1.3480	29.8710
 1.3490	29.7200
 1.3500	29.5740
 1.3510	29.4270
 1.3520	29.2800
 1.3530	29.1360
 1.3540	28.9920
 1.3550	28.8480
 1.3560	28.7050
 1.3570	28.5620
 1.3580	28.4200
 1.3590	28.2760
 1.3600	28.1310
 1.3610	27.9840
 1.3620	27.8310
 1.3630	27.6750
 1.3640	27.5140
 1.3650	27.3460
 1.3660	27.1760
 1.3670	26.9980
 1.3680	26.8120
 1.3690	26.6180
 1.3700	26.4100
 1.3710	26.1920
 1.3720	25.9630
 1.3730	25.7180
 1.3740	25.4610
 1.3750	25.1890
 1.3760	24.8980
 1.3770	24.5890
 1.3780	24.2600
 1.3790	23.9130
 1.3800	23.5490
 1.3810	23.1640
 1.3820	22.7680
 1.3830	22.3560
 1.3840	21.9330
 1.3850	21.4960
 1.3860	21.0540
 1.3870	20.5970
 1.3880	20.1430
 1.3890	19.6820
 1.3900	19.2200
 1.3910	18.7630
 1.3920	18.3060
 1.3930	17.8510
 1.3940	17.4030
 1.3950	16.9580
 1.3960	16.5250
 1.3970	16.1070
 1.3980	15.7000
 1.3990	15.3120
 1.4000	14.9390
 1.4010	14.5790
 1.4020	14.2370
 1.4030	13.9100
 1.4040	13.5990
 1.4050	13.3070
 1.4060	13.0290
 1.4070	12.7710
 1.4080	12.5280
 1.4090	12.2980
 1.4100	12.0830
 1.4110	11.8820
 1.4120	11.6930
 1.4130	11.5190
 1.4140	11.3570
 1.4150	11.2070
 1.4160	11.0690
 1.4170	10.9400
 1.4180	10.8190
 1.4190	10.7070
 1.4200	10.6030
 1.4210	10.5070
 1.4220	10.4170
 1.4230	10.3350
 1.4240	10.2580
 1.4250	10.1870
 1.4260	10.1220
 1.4270	10.0610
 1.4280	10.0050
 1.4290	 9.9530
 1.4300	 9.9050
 1.4310	 9.8620
 1.4320	 9.8230
 1.4330	 9.7870
 1.4340	 9.7550
 1.4350	 9.7250
 1.4360	 9.6980
 1.4370	 9.6740
 1.4380	 9.6530
 1.4390	 9.6340
 1.4400	 9.6190
 1.4410	 9.6060
 1.4420	 9.5950
 1.4430	 9.5870
 1.4440	 9.5790
 1.4450	 9.5730
 1.4460	 9.5680
 1.4470	 9.5650
 1.4480	 9.5630
 1.4490	 9.5620
 1.4500	 9.5620
 1.4510	 9.5640
 1.4520	 9.5680
 1.4530	 9.5730
 1.4540	 9.5780
 1.4550	 9.5850
 1.4560	 9.5940
 1.4570	 9.6040
 1.4580	 9.6160
 1.4590	 9.6290
 1.4600	 9.6450
 1.4610	 9.6630
 1.4620	 9.6830
 1.4630	 9.7070
 1.4640	 9.7310
 1.4650	 9.7590
 1.4660	 9.7900
 1.4670	 9.8240
 1.4680	 9.8600
 1.4690	 9.8980
 1.4700	 9.9390
 1.4710	 9.9830
 1.4720	10.0290
 1.4730	10.0780
 1.4740	10.1290
 1.4750	10.1820
 1.4760	10.2370
 1.4770	10.2940
 1.4780	10.3520
 1.4790	10.4130
 1.4800	10.4750
 1.4810	10.5390
 1.4820	10.6030
 1.4830	10.6680
 1.4840	10.7330
 1.4850	10.8000
 1.4860	10.8680
 1.4870	10.9390
 1.4880	11.0110
 1.4890	11.0820
 1.4900	11.1540
 1.4910	11.2270
 1.4920	11.3010
 1.4930	11.3750
 1.4940	11.4510
 1.4950	11.5270
 1.4960	11.6030
 1.4970	11.6800
 1.4980	11.7570
 1.4990	11.8340
 1.5000	11.9120
 1.5010	11.9910
 1.5020	12.0700
 1.5030	12.1500
 1.5040	12.2290
 1.5050	12.3070
 1.5060	12.3860
 1.5070	12.4670
 1.5080	12.5480
 1.5090	12.6290
 1.5100	12.7090
 1.5110	12.7900
 1.5120	12.8710
 1.5130	12.9510
 1.5140	13.0330
 1.5150	13.1150
 1.5160	13.1960
 1.5170	13.2770
 1.5180	13.3570
 1.5190	13.4370
 1.5200	13.5180
 1.5210	13.5980
 1.5220	13.6780
 1.5230	13.7590
 1.5240	13.8380
 1.5250	13.9190
 1.5260	13.9990
 1.5270	14.0770
 1.5280	14.1550
 1.5290	14.2320
 1.5300	14.3090
 1.5310	14.3870
 1.5320	14.4630
 1.5330	14.5410
 1.5340	14.6170
 1.5350	14.6930
 1.5360	14.7680
 1.5370	14.8420
 1.5380	14.9170
 1.5390	14.9920
 1.5400	15.0670
 1.5410	15.1420
 1.5420	15.2140
 1.5430	15.2870
 1.5440	15.3590
 1.5450	15.4300
 1.5460	15.5030
 1.5470	15.5760
 1.5480	15.6450
 1.5490	15.7170
 1.5500	15.7870
 1.5510	15.8550
 1.5520	15.9250
 1.5530	15.9940
 1.5540	16.0620
 1.5550	16.1300
 1.5560	16.1980
 1.5570	16.2650
 1.5580	16.3310
 1.5590	16.3970
 1.5600	16.4620
 1.5610	16.5260
 1.5620	16.5900
 1.5630	16.6530
 1.5640	16.7150
 1.5650	16.7790
 1.5660	16.8420
 1.5670	16.9050
 1.5680	16.9660
 1.5690	17.0250
 1.5700	17.0830
 1.5710	17.1420
 1.5720	17.2000
 1.5730	17.2600
 1.5740	17.3200
 1.5750	17.3790
 1.5760	17.4380
 1.5770	17.4950
 1.5780	17.5530
 1.5790	17.6100
 1.5800	17.6660
 1.5810	17.7230
 1.5820	17.7790
 1.5830	17.8350
 1.5840	17.8920
 1.5850	17.9470
 1.5860	18.0030
 1.5870	18.0600
 1.5880	18.1150
 1.5890	18.1690
 1.5900	18.2230
 1.5910	18.2750
 1.5920	18.3280
 1.5930	18.3810
 1.5940	18.4350
 1.5950	18.4890
 1.5960	18.5410
 1.5970	18.5930
 1.5980	18.6440
 1.5990	18.6960
 1.6000	18.7480
 1.6010	18.7980
 1.6020	18.8480
 1.6030	18.8970
 1.6040	18.9450
 1.6050	18.9930
 1.6060	19.0410
 1.6070	19.0880
 1.6080	19.1360
 1.6090	19.1820
 1.6100	19.2280
 1.6110	19.2720
 1.6120	19.3150
 1.6130	19.3580
 1.6140	19.4000
 1.6150	19.4410
 1.6160	19.4820
 1.6170	19.5220
 1.6180	19.5610
 1.6190	19.6000
 1.6200	19.6350
 1.6210	19.6710
 1.6220	19.7050
 1.6230	19.7370
 1.6240	19.7680
 1.6250	19.7970
 1.6260	19.8250
 1.6270	19.8530
 1.6280	19.8780
 1.6290	19.9010
 1.6300	19.9240
 1.6310	19.9450
 1.6320	19.9640
 1.6330	19.9850
 1.6340	20.0050
 1.6350	20.0260
 1.6360	20.0490
 1.6370	20.0710
 1.6380	20.0940
 1.6390	20.1170
 1.6400	20.1400
 1.6410	20.1620
 1.6420	20.1840
 1.6430	20.2040
 1.6440	20.2230
 1.6450	20.2380
 1.6460	20.2520
 1.6470	20.2640
 1.6480	20.2720
 1.6490	20.2800
 1.6500	20.2850
 1.6510	20.2850
 1.6520	20.2850
 1.6530	20.2820
 1.6540	20.2770
 1.6550	20.2700
 1.6560	20.2620
 1.6570	20.2520
 1.6580	20.2410
 1.6590	20.2290
 1.6600	20.2160
 1.6610	20.2030
 1.6620	20.1900
 1.6630	20.1760
 1.6640	20.1590
 1.6650	20.1420
 1.6660	20.1250
 1.6670	20.1060
 1.6680	20.0870
 1.6690	20.0660
 1.6700	20.0400
 1.6710	20.0120
 1.6720	19.9820
 1.6730	19.9490
 1.6740	19.9140
 1.6750	19.8770
 1.6760	19.8340
 1.6770	19.7900
 1.6780	19.7430
 1.6790	19.6920
 1.6800	19.6410
 1.6810	19.5910
 1.6820	19.5390
 1.6830	19.4870
 1.6840	19.4340
 1.6850	19.3780
 1.6860	19.3210
 1.6870	19.2640
 1.6880	19.2070
 1.6890	19.1470
 1.6900	19.0880
 1.6910	19.0280
 1.6920	18.9680
 1.6930	18.9080
 1.6940	18.8490
 1.6950	18.7900
 1.6960	18.7330
 1.6970	18.6780
 1.6980	18.6230
 1.6990	18.5700
 1.7000	18.5170
 1.7010	18.4640
 1.7020	18.4120
 1.7030	18.3620
 1.7040	18.3120
 1.7050	18.2630
 1.7060	18.2160
 1.7070	18.1700
 1.7080	18.1230
 1.7090	18.0760
 1.7100	18.0320
 1.7110	17.9870
 1.7120	17.9470
 1.7130	17.9080
 1.7140	17.8720
 1.7150	17.8350
 1.7160	17.8020
 1.7170	17.7720
 1.7180	17.7410
 1.7190	17.7130
 1.7200	17.6880
 1.7210	17.6630
 1.7220	17.6410
 1.7230	17.6210
 1.7240	17.6010
 1.7250	17.5830
 1.7260	17.5660
 1.7270	17.5490
 1.7280	17.5330
 1.7290	17.5170
 1.7300	17.5030
 1.7310	17.4880
 1.7320	17.4740
 1.7330	17.4570
 1.7340	17.4400
 1.7350	17.4200
 1.7360	17.4000
 1.7370	17.3780
 1.7380	17.3540
 1.7390	17.3270
 1.7400	17.2970
 1.7410	17.2650
 1.7420	17.2310
 1.7430	17.1950
 1.7440	17.1580
 1.7450	17.1190
 1.7460	17.0770
 1.7470	17.0380
 1.7480	17.0000
 1.7490	16.9610
 1.7500	16.9230
 1.7510	16.8850
 1.7520	16.8460
 1.7530	16.8110
 1.7540	16.7780
 1.7550	16.7450
 1.7560	16.7130
 1.7570	16.6810
 1.7580	16.6530
 1.7590	16.6270
 1.7600	16.6040
 1.7610	16.5790
 1.7620	16.5560
 1.7630	16.5300
 1.7640	16.5080
 1.7650	16.4890
 1.7660	16.4700
 1.7670	16.4550
 1.7680	16.4370
 1.7690	16.4200
 1.7700	16.4030
 1.7710	16.3880
 1.7720	16.3720
 1.7730	16.3590
 1.7740	16.3440
 1.7750	16.3290
 1.7760	16.3150
 1.7770	16.3010
 1.7780	16.2870
 1.7790	16.2730
 1.7800	16.2600
 1.7810	16.2450
 1.7820	16.2340
 1.7830	16.2240
 1.7840	16.2150
 1.7850	16.2060
 1.7860	16.2000
 1.7870	16.1950
 1.7880	16.1920
 1.7890	16.1910
 1.7900	16.1890
 1.7910	16.1890
 1.7920	16.1910
 1.7930	16.1930
 1.7940	16.1970
 1.7950	16.2020
 1.7960	16.2070
 1.7970	16.2140
 1.7980	16.2230
 1.7990	16.2310
 1.8000	16.2380
 1.8010	16.2470
 1.8020	16.2570
 1.8030	16.2650
 1.8040	16.2730
 1.8050	16.2820
 1.8060	16.2890
 1.8070	16.2990
 1.8080	16.3110
 1.8090	16.3210
 1.8100	16.3290
 1.8110	16.3370
 1.8120	16.3450
 1.8130	16.3500
 1.8140	16.3560
 1.8150	16.3610
 1.8160	16.3630
 1.8170	16.3680
 1.8180	16.3740
 1.8190	16.3810
 1.8200	16.3850
 1.8210	16.3860
 1.8220	16.3870
 1.8230	16.3880
 1.8240	16.3870
 1.8250	16.3870
 1.8260	16.3840
 1.8270	16.3800
 1.8280	16.3740
 1.8290	16.3670
 1.8300	16.3580
 1.8310	16.2180
 1.8320	16.2000
 1.8330	16.1810
 1.8340	16.1590
 1.8350	16.1400
 1.8360	16.1190
 1.8370	16.0930
 1.8380	16.0640
 1.8390	16.0300
 1.8400	15.9920
 1.8410	15.9510
 1.8420	15.9070
 1.8430	15.8590
 1.8440	15.8060
 1.8450	15.7460
 1.8460	15.6800
 1.8470	15.6090
 1.8480	15.5360
 1.8490	15.4540
 1.8500	15.3640
 1.8510	15.2690
 1.8520	15.1650
 1.8530	15.0480
 1.8540	14.9250
 1.8550	14.7940
 1.8560	14.6550
 1.8570	14.5120
 1.8580	14.3580
 1.8590	14.1940
 1.8600	14.0210
 1.8610	13.8380
 1.8620	13.6440
 1.8630	13.4440
 1.8640	13.2370
 1.8650	13.0220
 1.8660	12.7970
 1.8670	12.5590
 1.8680	12.3130
 1.8690	12.0630
 1.8700	11.8010
 1.8710	11.5290
 1.8720	11.2520
 1.8730	10.9680
 1.8740	10.6750
 1.8750	10.3880
 1.8760	10.1000
 1.8770	 9.8120
 1.8780	 9.5280
 1.8790	 9.2440
 1.8800	 8.9650
 1.8810	 8.6890
 1.8820	 8.4160
 1.8830	 8.1480
 1.8840	 7.8830
 1.8850	 7.6220
 1.8860	 7.3710
 1.8870	 7.1260
 1.8880	 6.8860
 1.8890	 6.6590
 1.8900	 6.4440
 1.8910	 6.2380
 1.8920	 6.0420
 1.8930	 5.8590
 1.8940	 5.6860
 1.8950	 5.5210
 1.8960	 5.3690
 1.8970	 5.2290
 1.8980	 5.0980
 1.8990	 4.9780
 1.9000	 4.8670
 1.9010	 4.7670
 1.9020	 4.6720
 1.9030	 4.5850
 1.9040	 4.5070
 1.9050	 4.4360
 1.9060	 4.3720
 1.9070	 4.3170
 1.9080	 4.2690
 1.9090	 4.2250
 1.9100	 4.1810
 1.9110	 4.1400
 1.9120	 4.1020
 1.9130	 4.0690
 1.9140	 4.0400
 1.9150	 4.0160
 1.9160	 3.9920
 1.9170	 3.9710
 1.9180	 3.9530
 1.9190	 3.9360
 1.9200	 3.9230
 1.9210	 3.9130
 1.9220	 3.9030
 1.9230	 3.8920
 1.9240	 3.8840
 1.9250	 3.8790
 1.9260	 3.8750
 1.9270	 3.8700
 1.9280	 3.8660
 1.9290	 3.8680
 1.9300	 3.8680
 1.9310	 3.8660
 1.9320	 3.8690
 1.9330	 3.8720
 1.9340	 3.8710
 1.9350	 3.8750
 1.9360	 3.8860
 1.9370	 3.8940
 1.9380	 3.9030
 1.9390	 3.9120
 1.9400	 3.9200
 1.9410	 3.9280
 1.9420	 3.9380
 1.9430	 3.9490
 1.9440	 3.9620
 1.9450	 3.9780
 1.9460	 3.9920
 1.9470	 4.0070
 1.9480	 4.0210
 1.9490	 4.0310
 1.9500	 4.0440
 1.9510	 4.0610
 1.9520	 4.0780
 1.9530	 4.0960
 1.9540	 4.1150
 1.9550	 4.1340
 1.9560	 4.1530
 1.9570	 4.1710
 1.9580	 4.1870
 1.9590	 4.2060
 1.9600	 4.2230
 1.9610	 4.2420
 1.9620	 4.2630
 1.9630	 4.2860
 1.9640	 4.3050
 1.9650	 4.3250
 1.9660	 4.3460
 1.9670	 4.3690
 1.9680	 4.3930
 1.9690	 4.4210
 1.9700	 4.4470
 1.9710	 4.4730
 1.9720	 4.5000
 1.9730	 4.5270
 1.9740	 4.5550
 1.9750	 4.5820
 1.9760	 4.6100
 1.9770	 4.6350
 1.9780	 4.6600
 1.9790	 4.6850
 1.9800	 4.7100
 1.9810	 4.7360
 1.9820	 4.7650
 1.9830	 4.7920
 1.9840	 4.8200
 1.9850	 4.8490
 1.9860	 4.8800
 1.9870	 4.9100
 1.9880	 4.9400
 1.9890	 4.9720
 1.9900	 5.0010
 1.9910	 5.0300
 1.9920	 5.0600
 1.9930	 5.0920
 1.9940	 5.1230
 1.9950	 5.1570
 1.9960	 5.1890
 1.9970	 5.2180
 1.9980	 5.2490
 1.9990	 5.2790
 2.0000	 5.3100
 2.0010	 5.3420
 2.0020	 5.3740
 2.0030	 5.4060
 2.0040	 5.4370
 2.0050	 5.4680
 2.0060	 5.5000
 2.0070	 5.5320
 2.0080	 5.5630
 2.0090	 5.5950
 2.0100	 5.6280
 2.0110	 5.6600
 2.0120	 5.6910
 2.0130	 5.7220
 2.0140	 5.7510
 2.0150	 5.7790
 2.0160	 5.8110
 2.0170	 5.8420
 2.0180	 5.8740
 2.0190	 5.9090
 2.0200	 5.9400
 2.0210	 5.9670
 2.0220	 5.9960
 2.0230	 6.0240
 2.0240	 6.0520
 2.0250	 6.0810
 2.0260	 6.1090
 2.0270	 6.1380
 2.0280	 6.1640
 2.0290	 6.1910
 2.0300	 6.2160
 2.0310	 6.2420
 2.0320	 6.2670
 2.0330	 6.2930
 2.0340	 6.3190
 2.0350	 6.3450
 2.0360	 6.3700
 2.0370	 6.3950
 2.0380	 6.4190
 2.0390	 6.4430
 2.0400	 6.4680
 2.0410	 6.4910
 2.0420	 6.5130
 2.0430	 6.5340
 2.0440	 6.5560
 2.0450	 6.5780
 2.0460	 6.6000
 2.0470	 6.6240
 2.0480	 6.6470
 2.0490	 6.6670
 2.0500	 6.6890
 2.0510	 6.7110
 2.0520	 6.7330
 2.0530	 6.7560
 2.0540	 6.7780
 2.0550	 6.7970
 2.0560	 6.8180
 2.0570	 6.8390
 2.0580	 6.8580
 2.0590	 6.8790
 2.0600	 6.8990
 2.0610	 6.9210
 2.0620	 6.9450
 2.0630	 6.9680
 2.0640	 6.9920
 2.0650	 7.0160
 2.0660	 7.0380
 2.0670	 7.0610
 2.0680	 7.0840
 2.0690	 7.1080
 2.0700	 7.1320
 2.0710	 7.1550
 2.0720	 7.1750
 2.0730	 7.1980
 2.0740	 7.2210
 2.0750	 7.2440
 2.0760	 7.2680
 2.0770	 7.2970
 2.0780	 7.3220
 2.0790	 7.3470
 2.0800	 7.3710
 2.0810	 7.3950
 2.0820	 7.4170
 2.0830	 7.4380
 2.0840	 7.4610
 2.0850	 7.4830
 2.0860	 7.5070
 2.0870	 7.5320
 2.0880	 7.5560
 2.0890	 7.5800
 2.0900	 7.6050
 2.0910	 7.6270
 2.0920	 7.6480
 2.0930	 7.6690
 2.0940	 7.6870
 2.0950	 7.7090
 2.0960	 7.7340
 2.0970	 7.7570
 2.0980	 7.7820
 2.0990	 7.8060
 2.1000	 7.8290
 2.1010	 7.8520
 2.1020	 7.8750
 2.1030	 7.8980
 2.1040	 7.9210
 2.1050	 7.9430
 2.1060	 7.9630
 2.1070	 7.9820
 2.1080	 8.0010
 2.1090	 8.0160
 2.1100	 8.0340
 2.1110	 8.0510
 2.1120	 8.0710
 2.1130	 8.0930
 2.1140	 8.1140
 2.1150	 8.1350
 2.1160	 8.1560
 2.1170	 8.1750
 2.1180	 8.1940
 2.1190	 8.2120
 2.1200	 8.2310
 2.1210	 8.2490
 2.1220	 8.2690
 2.1230	 8.2880
 2.1240	 8.3090
 2.1250	 8.3290
 2.1260	 8.3470
 2.1270	 8.3670
 2.1280	 8.3890
 2.1290	 8.4090
 2.1300	 8.4280
 2.1310	 8.4460
 2.1320	 8.4630
 2.1330	 8.4800
 2.1340	 8.4950
 2.1350	 8.5120
 2.1360	 8.5300
 2.1370	 8.5460
 2.1380	 8.5620
 2.1390	 8.5790
 2.1400	 8.5960
 2.1410	 8.6110
 2.1420	 8.6280
 2.1430	 8.6470
 2.1440	 8.6650
 2.1450	 8.6840
 2.1460	 8.7010
 2.1470	 8.7180
 2.1480	 8.7340
 2.1490	 8.7470
 2.1500	 8.7620
 2.1510	 8.7770
 2.1520	 8.7930
 2.1530	 8.8140
 2.1540	 8.8300
 2.1550	 8.8470
 2.1560	 8.8600
 2.1570	 8.8670
 2.1580	 8.8790
 2.1590	 8.8910
 2.1600	 8.9020
 2.1610	 8.9170
 2.1620	 8.9310
 2.1630	 8.9420
 2.1640	 8.9520
 2.1650	 8.9610
 2.1660	 8.9660
 2.1670	 8.9770
 2.1680	 8.9910
 2.1690	 9.0050
 2.1700	 9.0260
 2.1710	 9.0390
 2.1720	 9.0480
 2.1730	 9.0600
 2.1740	 9.0720
 2.1750	 9.0830
 2.1760	 9.0960
 2.1770	 9.1090
 2.1780	 9.1230
 2.1790	 9.1360
 2.1800	 9.1460
 2.1810	 9.1600
 2.1820	 9.1740
 2.1830	 9.1890
 2.1840	 9.2040
 2.1850	 9.2240
 2.1860	 9.2360
 2.1870	 9.2430
 2.1880	 9.2520
 2.1890	 9.2580
 2.1900	 9.2670
 2.1910	 9.2790
 2.1920	 9.2910
 2.1930	 9.3040
 2.1940	 9.3160
 2.1950	 9.3280
 2.1960	 9.3390
 2.1970	 9.3480
 2.1980	 9.3570
 2.1990	 9.3640
 2.2000	 9.3730
 2.2010	 9.3840
 2.2020	 9.3900
 2.2030	 9.3950
 2.2040	 9.3990
 2.2050	 9.4000
 2.2060	 9.4000
 2.2070	 9.4020
 2.2080	 9.4050
 2.2090	 9.4060
 2.2100	 9.4070
 2.2110	 9.4050
 2.2120	 9.3990
 2.2130	 9.3950
 2.2140	 9.3890
 2.2150	 9.3840
 2.2160	 9.3810
 2.2170	 9.3730
 2.2180	 9.3640
 2.2190	 9.3530
 2.2200	 9.3380
 2.2210	 9.3230
 2.2220	 9.3050
 2.2230	 9.2860
 2.2240	 9.2670
 2.2250	 9.2450
 2.2260	 9.2210
 2.2270	 9.1950
 2.2280	 9.1660
 2.2290	 9.1340
 2.2300	 9.1000
 2.2310	 9.0630
 2.2320	 9.0240
 2.2330	 8.9860
 2.2340	 8.9450
 2.2350	 8.9020
 2.2360	 8.8600
 2.2370	 8.8160
 2.2380	 8.7730
 2.2390	 8.7340
 2.2400	 8.6870
 2.2410	 8.6370
 2.2420	 8.5890
 2.2430	 8.5360
 2.2440	 8.4880
 2.2450	 8.4440
 2.2460	 8.3980
 2.2470	 8.3510
 2.2480	 8.3050
 2.2490	 8.2590
 2.2500	 8.2160
 2.2510	 8.1810
 2.2520	 8.1380
 2.2530	 8.0930
 2.2540	 8.0500
 2.2550	 8.0010
 2.2560	 7.9570
 2.2570	 7.9180
 2.2580	 7.8810
 2.2590	 7.8470
 2.2600	 7.8120
 2.2610	 7.7800
 2.2620	 7.7480
 2.2630	 7.7110
 2.2640	 7.6770
 2.2650	 7.6440
 2.2660	 7.6120
 2.2670	 7.5840
 2.2680	 7.5610
 2.2690	 7.5350
 2.2700	 7.5110
 2.2710	 7.4830
 2.2720	 7.4530
 2.2730	 7.4220
 2.2740	 7.3850
 2.2750	 7.3580
 2.2760	 7.3350
 2.2770	 7.3120
 2.2780	 7.2970
 2.2790	 7.2740
 2.2800	 7.2450
 2.2810	 7.2190
 2.2820	 7.1910
 2.2830	 7.1650
 2.2840	 7.1440
 2.2850	 7.1150
 2.2860	 7.0810
 2.2870	 7.0500
 2.2880	 7.0130
 2.2890	 6.9840
 2.2900	 6.9660
 2.2910	 6.9410
 2.2920	 6.9160
 2.2930	 6.8890
 2.2940	 6.8530
 2.2950	 6.8240
 2.2960	 6.7940
 2.2970	 6.7680
 2.2980	 6.7480
 2.2990	 6.7260
 2.3000	 6.7080
 2.3010	 6.6880
 2.3020	 6.6620
 2.3030	 6.6470
 2.3040	 6.6360
 2.3050	 6.6230
 2.3060	 6.6160
 2.3070	 6.6070
 2.3080	 6.5960
 2.3090	 6.5870
 2.3100	 6.5820
 2.3110	 6.5800
 2.3120	 6.5790
 2.3130	 6.5830
 2.3140	 6.5850
 2.3150	 6.5880
 2.3160	 6.5890
 2.3170	 6.5890
 2.3180	 6.5860
 2.3190	 6.5820
 2.3200	 6.5750
 2.3210	 6.5640
 2.3220	 6.5540
 2.3230	 6.5430
 2.3240	 6.5290
 2.3250	 6.5090
 2.3260	 6.4940
 2.3270	 6.4810
 2.3280	 6.4630
 2.3290	 6.4470
 2.3300	 6.4290
 2.3310	 6.4030
 2.3320	 6.3830
 2.3330	 6.3700
 2.3340	 6.3530
 2.3350	 6.3380
 2.3360	 6.3200
 2.3370	 6.3000
 2.3380	 6.2780
 2.3390	 6.2540
 2.3400	 6.2310
 2.3410	 6.2020
 2.3420	 6.1810
 2.3430	 6.1660
 2.3440	 6.1510
 2.3450	 6.1450
 2.3460	 6.1360
 2.3470	 6.1220
 2.3480	 6.1130
 2.3490	 6.1050
 2.3500	 6.0980
 2.3510	 6.1010
 2.3520	 6.0940
 2.3530	 6.0780
 2.3540	 6.0670
 2.3550	 6.0560
 2.3560	 6.0430
 2.3570	 6.0380
 2.3580	 6.0350
 2.3590	 6.0240
 2.3600	 6.0130
 2.3610	 5.9990
 2.3620	 5.9830
 2.3630	 5.9730
 2.3640	 5.9600
 2.3650	 5.9490
 2.3660	 5.9420
 2.3670	 5.9350
 2.3680	 5.9260
 2.3690	 5.9110
 2.3700	 5.8980
 2.3710	 5.8770
 2.3720	 5.8550
 2.3730	 5.8450
 2.3740	 5.8320
 2.3750	 5.8130
 2.3760	 5.7940
 2.3770	 5.7790
 2.3780	 5.7630
 2.3790	 5.7440
 2.3800	 5.7320
 2.3810	 5.7170
 2.3820	 5.6980
 2.3830	 5.6930
 2.3840	 5.6890
 2.3850	 5.6850
 2.3860	 5.6810
 2.3870	 5.6670
 2.3880	 5.6520
 2.3890	 5.6220
 2.3900	 5.5900
 2.3910	 5.5740
 2.3920	 5.5490
 2.3930	 5.5350
 2.3940	 5.5240
 2.3950	 5.5080
 2.3960	 5.4980
 2.3970	 5.4860
 2.3980	 5.4770
 2.3990	 5.4600
 2.4000	 5.4390
 2.4010	 5.4310
 2.4020	 5.4140
 2.4030	 5.3990
 2.4040	 5.3850
 2.4050	 5.3550
 2.4060	 5.3310
 2.4070	 5.3190
 2.4080	 5.3060
 2.4090	 5.2970
 2.4100	 5.2800
 2.4110	 5.2560
 2.4120	 5.2380
 2.4130	 5.2330
 2.4140	 5.2310
 2.4150	 5.2190
 2.4160	 5.1990
 2.4170	 5.1740
 2.4180	 5.1460
 2.4190	 5.1290
 2.4200	 5.1200
 2.4210	 5.1090
 2.4220	 5.0990
 2.4230	 5.0770
 2.4240	 5.0480
 2.4250	 5.0180
 2.4260	 4.9900
 2.4270	 4.9860
 2.4280	 4.9840
 2.4290	 4.9840
 2.4300	 4.9720
 2.4310	 4.9460
 2.4320	 4.9250
 2.4330	 4.8880
 2.4340	 4.8710
 2.4350	 4.8680
 2.4360	 4.8490
 2.4370	 4.8350
 2.4380	 4.8140
 2.4390	 4.7910
 2.4400	 4.7650
 2.4410	 4.7350
 2.4420	 4.7290
 2.4430	 4.7220
 2.4440	 4.7150
 2.4450	 4.7340
 2.4460	 4.7310
 2.4470	 4.7140
 2.4480	 4.7000
 2.4490	 4.6700
 2.4500	 4.6340
 2.4510	 4.6010
 2.4520	 4.5550
 2.4530	 4.5040
 2.4540	 4.4850
 2.4550	 4.4780
 2.4560	 4.4650
 2.4570	 4.4490
 2.4580	 4.4280
 2.4590	 4.4050
 2.4600	 4.3780
 2.4610	 4.3710
 2.4620	 4.3830
 2.4630	 4.3690
 2.4640	 4.3430
 2.4650	 4.3560
 2.4660	 4.3320
 2.4670	 4.2920
 2.4680	 4.3300
 2.4690	 4.3020
 2.4700	 4.2970
 2.4710	 4.3010
 2.4720	 4.2790
 2.4730	 4.2640
 2.4740	 4.2630
 2.4750	 4.2550
 2.4760	 4.2590
 2.4770	 4.2920
 2.4780	 4.2840
 2.4790	 4.2640
 2.4800	 4.2330
 2.4810	 4.1520
 2.4820	 4.1380
 2.4830	 4.1180
 2.4840	 4.1310
 2.4850	 4.1690
 2.4860	 4.1860
 2.4870	 4.1950
 2.4880	 4.2030
 2.4890	 4.1880
 2.4900	 4.1760
 2.4910	 4.1590
 2.4920	 4.1150
 2.4930	 4.1280
 2.4940	 4.1450
 2.4950	 4.1540
 2.4960	 4.2280
 2.4970	 4.2000
 2.4980	 4.1230
 2.4990	 4.0800
 2.5000	 4.0050
