Name: Heteromeles arbutifolia 1
Type: vegetation
Class: Shrub
Genus: Heteromeles
Species: arbutifolia
Sample No.: VH013
Owner: UCSB
Wavelength Range: VSWIR
Origin: 34.4907; -119.791; WGS84
Collection Date: 4/1/2013
Description: Samples were collected as part of the HyspIRI Airborne Campaign. 48 individual plants were sampled in three times in 2013 - spring  summer  and fall. The name of the sample includes a 1  2  or 3 which references a different individual of the species. Samples were taken to JPL and processed within 48 hours of collection. The same leaves were processed in the Nicolet and then measured using the ASD.
Measurement: Bidirectional reflectance
First Column: X
Second Column: Y
X Units: Wavelength (micrometers)
Y Units: Reflectance (percentage)
First X Value: 0.35
Last X Value: 2.5
Number of X Values: 2151
Additional Information: vegetation.shrub.heteromeles.arbutifolia.vswir.vh013.ucsb.asd.ancillary.txt

 0.3500	 3.4000
 0.3510	 3.4470
 0.3520	 3.3160
 0.3530	 3.2820
 0.3540	 3.4570
 0.3550	 3.2860
 0.3560	 3.2520
 0.3570	 3.2990
 0.3580	 3.1470
 0.3590	 3.1830
 0.3600	 3.2050
 0.3610	 3.1410
 0.3620	 3.1770
 0.3630	 3.1320
 0.3640	 3.0860
 0.3650	 3.1240
 0.3660	 3.1020
 0.3670	 3.1740
 0.3680	 3.2480
 0.3690	 3.1040
 0.3700	 3.0660
 0.3710	 3.0680
 0.3720	 3.0590
 0.3730	 3.1250
 0.3740	 3.1170
 0.3750	 3.0820
 0.3760	 3.0980
 0.3770	 3.0610
 0.3780	 3.0590
 0.3790	 3.0990
 0.3800	 3.1090
 0.3810	 3.0230
 0.3820	 2.9490
 0.3830	 2.9570
 0.3840	 2.9780
 0.3850	 2.9730
 0.3860	 2.9900
 0.3870	 3.0770
 0.3880	 3.0550
 0.3890	 3.0560
 0.3900	 3.0900
 0.3910	 3.0310
 0.3920	 3.0420
 0.3930	 3.0440
 0.3940	 2.9880
 0.3950	 3.0250
 0.3960	 3.0430
 0.3970	 3.0400
 0.3980	 3.0550
 0.3990	 3.0360
 0.4000	 2.9980
 0.4010	 2.9730
 0.4020	 3.0110
 0.4030	 3.0470
 0.4040	 3.0610
 0.4050	 3.0540
 0.4060	 3.0700
 0.4070	 3.0580
 0.4080	 3.0370
 0.4090	 3.0690
 0.4100	 3.1060
 0.4110	 3.1220
 0.4120	 3.1160
 0.4130	 3.1300
 0.4140	 3.1230
 0.4150	 3.1140
 0.4160	 3.1300
 0.4170	 3.1480
 0.4180	 3.1510
 0.4190	 3.1470
 0.4200	 3.1650
 0.4210	 3.1840
 0.4220	 3.1860
 0.4230	 3.1700
 0.4240	 3.1830
 0.4250	 3.2010
 0.4260	 3.2170
 0.4270	 3.2290
 0.4280	 3.2300
 0.4290	 3.2190
 0.4300	 3.2080
 0.4310	 3.2230
 0.4320	 3.2280
 0.4330	 3.2260
 0.4340	 3.2330
 0.4350	 3.2580
 0.4360	 3.2770
 0.4370	 3.2780
 0.4380	 3.2620
 0.4390	 3.2590
 0.4400	 3.2500
 0.4410	 3.2270
 0.4420	 3.2320
 0.4430	 3.2380
 0.4440	 3.2420
 0.4450	 3.2520
 0.4460	 3.2720
 0.4470	 3.2740
 0.4480	 3.2570
 0.4490	 3.2510
 0.4500	 3.2580
 0.4510	 3.2650
 0.4520	 3.2630
 0.4530	 3.2790
 0.4540	 3.2940
 0.4550	 3.2970
 0.4560	 3.2890
 0.4570	 3.2900
 0.4580	 3.2890
 0.4590	 3.2800
 0.4600	 3.2790
 0.4610	 3.2850
 0.4620	 3.2900
 0.4630	 3.2860
 0.4640	 3.2820
 0.4650	 3.2700
 0.4660	 3.2570
 0.4670	 3.2700
 0.4680	 3.2840
 0.4690	 3.2880
 0.4700	 3.2790
 0.4710	 3.2580
 0.4720	 3.2650
 0.4730	 3.2790
 0.4740	 3.2570
 0.4750	 3.2710
 0.4760	 3.2810
 0.4770	 3.2660
 0.4780	 3.2680
 0.4790	 3.2660
 0.4800	 3.2640
 0.4810	 3.2700
 0.4820	 3.2620
 0.4830	 3.2640
 0.4840	 3.2780
 0.4850	 3.2880
 0.4860	 3.2880
 0.4870	 3.2880
 0.4880	 3.2920
 0.4890	 3.2970
 0.4900	 3.2990
 0.4910	 3.3000
 0.4920	 3.3030
 0.4930	 3.3090
 0.4940	 3.3160
 0.4950	 3.3200
 0.4960	 3.3150
 0.4970	 3.3320
 0.4980	 3.3590
 0.4990	 3.3730
 0.5000	 3.3760
 0.5010	 3.3940
 0.5020	 3.4260
 0.5030	 3.4440
 0.5040	 3.4580
 0.5050	 3.4820
 0.5060	 3.5230
 0.5070	 3.5640
 0.5080	 3.6030
 0.5090	 3.6450
 0.5100	 3.7010
 0.5110	 3.7540
 0.5120	 3.8070
 0.5130	 3.8650
 0.5140	 3.9380
 0.5150	 4.0200
 0.5160	 4.1090
 0.5170	 4.2070
 0.5180	 4.3110
 0.5190	 4.4210
 0.5200	 4.5360
 0.5210	 4.6530
 0.5220	 4.7820
 0.5230	 4.9100
 0.5240	 5.0320
 0.5250	 5.1620
 0.5260	 5.2880
 0.5270	 5.4070
 0.5280	 5.5210
 0.5290	 5.6310
 0.5300	 5.7370
 0.5310	 5.8350
 0.5320	 5.9220
 0.5330	 5.9980
 0.5340	 6.0690
 0.5350	 6.1400
 0.5360	 6.1990
 0.5370	 6.2550
 0.5380	 6.3090
 0.5390	 6.3550
 0.5400	 6.3950
 0.5410	 6.4420
 0.5420	 6.4980
 0.5430	 6.5420
 0.5440	 6.5790
 0.5450	 6.6110
 0.5460	 6.6380
 0.5470	 6.6460
 0.5480	 6.6510
 0.5490	 6.6620
 0.5500	 6.6840
 0.5510	 6.6970
 0.5520	 6.7010
 0.5530	 6.7010
 0.5540	 6.6920
 0.5550	 6.6740
 0.5560	 6.6440
 0.5570	 6.6030
 0.5580	 6.5610
 0.5590	 6.5100
 0.5600	 6.4450
 0.5610	 6.3780
 0.5620	 6.3090
 0.5630	 6.2350
 0.5640	 6.1510
 0.5650	 6.0650
 0.5660	 5.9760
 0.5670	 5.8850
 0.5680	 5.7960
 0.5690	 5.7030
 0.5700	 5.6100
 0.5710	 5.5210
 0.5720	 5.4370
 0.5730	 5.3540
 0.5740	 5.2750
 0.5750	 5.2020
 0.5760	 5.1330
 0.5770	 5.0670
 0.5780	 5.0060
 0.5790	 4.9480
 0.5800	 4.9000
 0.5810	 4.8560
 0.5820	 4.8110
 0.5830	 4.7730
 0.5840	 4.7350
 0.5850	 4.6980
 0.5860	 4.6730
 0.5870	 4.6470
 0.5880	 4.6170
 0.5890	 4.5870
 0.5900	 4.5630
 0.5910	 4.5420
 0.5920	 4.5230
 0.5930	 4.5040
 0.5940	 4.4870
 0.5950	 4.4700
 0.5960	 4.4550
 0.5970	 4.4420
 0.5980	 4.4290
 0.5990	 4.4140
 0.6000	 4.3980
 0.6010	 4.3800
 0.6020	 4.3630
 0.6030	 4.3440
 0.6040	 4.3160
 0.6050	 4.2910
 0.6060	 4.2670
 0.6070	 4.2400
 0.6080	 4.2110
 0.6090	 4.1910
 0.6100	 4.1790
 0.6110	 4.1660
 0.6120	 4.1280
 0.6130	 4.0810
 0.6140	 4.0390
 0.6150	 4.0070
 0.6160	 3.9770
 0.6170	 3.9480
 0.6180	 3.9210
 0.6190	 3.9020
 0.6200	 3.8840
 0.6210	 3.8670
 0.6220	 3.8510
 0.6230	 3.8390
 0.6240	 3.8260
 0.6250	 3.8120
 0.6260	 3.8080
 0.6270	 3.8020
 0.6280	 3.7930
 0.6290	 3.7880
 0.6300	 3.7880
 0.6310	 3.7840
 0.6320	 3.7750
 0.6330	 3.7660
 0.6340	 3.7550
 0.6350	 3.7420
 0.6360	 3.7260
 0.6370	 3.7080
 0.6380	 3.6860
 0.6390	 3.6620
 0.6400	 3.6390
 0.6410	 3.6100
 0.6420	 3.5840
 0.6430	 3.5600
 0.6440	 3.5320
 0.6450	 3.5050
 0.6460	 3.4810
 0.6470	 3.4590
 0.6480	 3.4340
 0.6490	 3.4170
 0.6500	 3.4070
 0.6510	 3.3930
 0.6520	 3.3820
 0.6530	 3.3730
 0.6540	 3.3610
 0.6550	 3.3490
 0.6560	 3.3400
 0.6570	 3.3280
 0.6580	 3.3100
 0.6590	 3.2980
 0.6600	 3.2860
 0.6610	 3.2730
 0.6620	 3.2590
 0.6630	 3.2450
 0.6640	 3.2340
 0.6650	 3.2270
 0.6660	 3.2180
 0.6670	 3.2140
 0.6680	 3.2120
 0.6690	 3.2110
 0.6700	 3.2100
 0.6710	 3.2120
 0.6720	 3.2160
 0.6730	 3.2190
 0.6740	 3.2270
 0.6750	 3.2380
 0.6760	 3.2510
 0.6770	 3.2610
 0.6780	 3.2740
 0.6790	 3.2910
 0.6800	 3.3110
 0.6810	 3.3280
 0.6820	 3.3470
 0.6830	 3.3740
 0.6840	 3.4040
 0.6850	 3.4360
 0.6860	 3.4690
 0.6870	 3.5080
 0.6880	 3.5590
 0.6890	 3.6180
 0.6900	 3.6910
 0.6910	 3.7910
 0.6920	 3.9200
 0.6930	 4.0810
 0.6940	 4.2780
 0.6950	 4.5160
 0.6960	 4.8050
 0.6970	 5.1480
 0.6980	 5.5460
 0.6990	 5.9910
 0.7000	 6.4850
 0.7010	 7.0250
 0.7020	 7.6070
 0.7030	 8.2240
 0.7040	 8.8700
 0.7050	 9.5400
 0.7060	10.2300
 0.7070	10.9360
 0.7080	11.6560
 0.7090	12.3900
 0.7100	13.1370
 0.7110	13.8950
 0.7120	14.6610
 0.7130	15.4340
 0.7140	16.2090
 0.7150	16.9890
 0.7160	17.7740
 0.7170	18.5600
 0.7180	19.3420
 0.7190	20.1170
 0.7200	20.8840
 0.7210	21.6440
 0.7220	22.3930
 0.7230	23.1260
 0.7240	23.8410
 0.7250	24.5400
 0.7260	25.2150
 0.7270	25.8620
 0.7280	26.4880
 0.7290	27.0870
 0.7300	27.6570
 0.7310	28.1990
 0.7320	28.7200
 0.7330	29.2120
 0.7340	29.6750
 0.7350	30.1160
 0.7360	30.5300
 0.7370	30.9190
 0.7380	31.2840
 0.7390	31.6260
 0.7400	31.9440
 0.7410	32.2420
 0.7420	32.5210
 0.7430	32.7800
 0.7440	33.0160
 0.7450	33.2340
 0.7460	33.4370
 0.7470	33.6270
 0.7480	33.8000
 0.7490	33.9560
 0.7500	34.0990
 0.7510	34.2300
 0.7520	34.3490
 0.7530	34.4570
 0.7540	34.5540
 0.7550	34.6410
 0.7560	34.7220
 0.7570	34.8000
 0.7580	34.8680
 0.7590	34.9280
 0.7600	34.9820
 0.7610	35.0330
 0.7620	35.0810
 0.7630	35.1220
 0.7640	35.1570
 0.7650	35.1920
 0.7660	35.2220
 0.7670	35.2500
 0.7680	35.2760
 0.7690	35.2970
 0.7700	35.3160
 0.7710	35.3330
 0.7720	35.3540
 0.7730	35.3690
 0.7740	35.3810
 0.7750	35.3950
 0.7760	35.4080
 0.7770	35.4190
 0.7780	35.4290
 0.7790	35.4400
 0.7800	35.4510
 0.7810	35.4630
 0.7820	35.4750
 0.7830	35.4850
 0.7840	35.4910
 0.7850	35.4960
 0.7860	35.5040
 0.7870	35.5150
 0.7880	35.5240
 0.7890	35.5310
 0.7900	35.5350
 0.7910	35.5410
 0.7920	35.5460
 0.7930	35.5500
 0.7940	35.5560
 0.7950	35.5630
 0.7960	35.5660
 0.7970	35.5660
 0.7980	35.5720
 0.7990	35.5750
 0.8000	35.5760
 0.8010	35.5790
 0.8020	35.5810
 0.8030	35.5830
 0.8040	35.5840
 0.8050	35.5850
 0.8060	35.5850
 0.8070	35.5850
 0.8080	35.5870
 0.8090	35.5890
 0.8100	35.5880
 0.8110	35.5870
 0.8120	35.5900
 0.8130	35.5890
 0.8140	35.5860
 0.8150	35.5840
 0.8160	35.5840
 0.8170	35.5860
 0.8180	35.5840
 0.8190	35.5810
 0.8200	35.5810
 0.8210	35.5820
 0.8220	35.5830
 0.8230	35.5840
 0.8240	35.5820
 0.8250	35.5810
 0.8260	35.5770
 0.8270	35.5710
 0.8280	35.5710
 0.8290	35.5740
 0.8300	35.5740
 0.8310	35.5690
 0.8320	35.5710
 0.8330	35.5720
 0.8340	35.5710
 0.8350	35.5680
 0.8360	35.5640
 0.8370	35.5660
 0.8380	35.5700
 0.8390	35.5740
 0.8400	35.5760
 0.8410	35.5810
 0.8420	35.5870
 0.8430	35.5820
 0.8440	35.5840
 0.8450	35.5900
 0.8460	35.5970
 0.8470	35.5970
 0.8480	35.5990
 0.8490	35.6040
 0.8500	35.6100
 0.8510	35.6150
 0.8520	35.6180
 0.8530	35.6190
 0.8540	35.6190
 0.8550	35.6200
 0.8560	35.6240
 0.8570	35.6290
 0.8580	35.6330
 0.8590	35.6390
 0.8600	35.6430
 0.8610	35.6460
 0.8620	35.6520
 0.8630	35.6550
 0.8640	35.6540
 0.8650	35.6540
 0.8660	35.6650
 0.8670	35.6690
 0.8680	35.6660
 0.8690	35.6650
 0.8700	35.6710
 0.8710	35.6770
 0.8720	35.6790
 0.8730	35.6820
 0.8740	35.6890
 0.8750	35.6960
 0.8760	35.7010
 0.8770	35.7030
 0.8780	35.7010
 0.8790	35.7050
 0.8800	35.7120
 0.8810	35.7110
 0.8820	35.7120
 0.8830	35.7140
 0.8840	35.7160
 0.8850	35.7190
 0.8860	35.7220
 0.8870	35.7260
 0.8880	35.7310
 0.8890	35.7380
 0.8900	35.7340
 0.8910	35.7280
 0.8920	35.7370
 0.8930	35.7420
 0.8940	35.7400
 0.8950	35.7370
 0.8960	35.7430
 0.8970	35.7450
 0.8980	35.7420
 0.8990	35.7400
 0.9000	35.7470
 0.9010	35.7480
 0.9020	35.7490
 0.9030	35.7540
 0.9040	35.7520
 0.9050	35.7530
 0.9060	35.7530
 0.9070	35.7520
 0.9080	35.7540
 0.9090	35.7510
 0.9100	35.7490
 0.9110	35.7550
 0.9120	35.7530
 0.9130	35.7570
 0.9140	35.7610
 0.9150	35.7580
 0.9160	35.7510
 0.9170	35.7440
 0.9180	35.7440
 0.9190	35.7510
 0.9200	35.7500
 0.9210	35.7480
 0.9220	35.7490
 0.9230	35.7500
 0.9240	35.7380
 0.9250	35.7260
 0.9260	35.7230
 0.9270	35.7280
 0.9280	35.7240
 0.9290	35.7110
 0.9300	35.6960
 0.9310	35.6850
 0.9320	35.6850
 0.9330	35.6790
 0.9340	35.6630
 0.9350	35.6500
 0.9360	35.6420
 0.9370	35.6340
 0.9380	35.6180
 0.9390	35.5880
 0.9400	35.5780
 0.9410	35.5690
 0.9420	35.5470
 0.9430	35.5270
 0.9440	35.5120
 0.9450	35.4970
 0.9460	35.4740
 0.9470	35.4460
 0.9480	35.4180
 0.9490	35.3930
 0.9500	35.3680
 0.9510	35.3290
 0.9520	35.2930
 0.9530	35.2580
 0.9540	35.2210
 0.9550	35.1870
 0.9560	35.1540
 0.9570	35.1210
 0.9580	35.0870
 0.9590	35.0410
 0.9600	35.0040
 0.9610	34.9810
 0.9620	34.9650
 0.9630	34.9430
 0.9640	34.9060
 0.9650	34.8780
 0.9660	34.8790
 0.9670	34.8660
 0.9680	34.8500
 0.9690	34.8350
 0.9700	34.8220
 0.9710	34.8130
 0.9720	34.8040
 0.9730	34.7940
 0.9740	34.7810
 0.9750	34.7780
 0.9760	34.7930
 0.9770	34.7990
 0.9780	34.7740
 0.9790	34.7720
 0.9800	34.7770
 0.9810	34.7780
 0.9820	34.7730
 0.9830	34.7810
 0.9840	34.7760
 0.9850	34.7710
 0.9860	34.7890
 0.9870	34.8060
 0.9880	34.8110
 0.9890	34.8160
 0.9900	34.8350
 0.9910	34.8360
 0.9920	34.8760
 0.9930	34.9160
 0.9940	34.9560
 0.9950	34.9960
 0.9960	35.0360
 0.9970	35.0760
 0.9980	35.1160
 0.9990	35.1560
 1.0000	35.1960
 1.0010	35.2360
 1.0020	35.2760
 1.0030	35.3160
 1.0040	35.3560
 1.0050	35.3960
 1.0060	35.4360
 1.0070	35.4760
 1.0080	35.5160
 1.0090	35.5560
 1.0100	35.5560
 1.0110	35.5690
 1.0120	35.5830
 1.0130	35.5950
 1.0140	35.6080
 1.0150	35.6210
 1.0160	35.6400
 1.0170	35.6550
 1.0180	35.6620
 1.0190	35.6690
 1.0200	35.6800
 1.0210	35.6920
 1.0220	35.7060
 1.0230	35.7180
 1.0240	35.7300
 1.0250	35.7420
 1.0260	35.7550
 1.0270	35.7660
 1.0280	35.7780
 1.0290	35.7880
 1.0300	35.7940
 1.0310	35.8030
 1.0320	35.8120
 1.0330	35.8250
 1.0340	35.8350
 1.0350	35.8450
 1.0360	35.8520
 1.0370	35.8580
 1.0380	35.8670
 1.0390	35.8800
 1.0400	35.8890
 1.0410	35.8980
 1.0420	35.9070
 1.0430	35.9130
 1.0440	35.9200
 1.0450	35.9300
 1.0460	35.9380
 1.0470	35.9440
 1.0480	35.9500
 1.0490	35.9540
 1.0500	35.9600
 1.0510	35.9670
 1.0520	35.9740
 1.0530	35.9800
 1.0540	35.9890
 1.0550	35.9930
 1.0560	35.9920
 1.0570	35.9960
 1.0580	36.0000
 1.0590	36.0030
 1.0600	36.0100
 1.0610	36.0140
 1.0620	36.0140
 1.0630	36.0170
 1.0640	36.0190
 1.0650	36.0200
 1.0660	36.0240
 1.0670	36.0250
 1.0680	36.0240
 1.0690	36.0210
 1.0700	36.0210
 1.0710	36.0210
 1.0720	36.0220
 1.0730	36.0260
 1.0740	36.0270
 1.0750	36.0290
 1.0760	36.0290
 1.0770	36.0290
 1.0780	36.0270
 1.0790	36.0200
 1.0800	36.0180
 1.0810	36.0190
 1.0820	36.0170
 1.0830	36.0140
 1.0840	36.0120
 1.0850	36.0090
 1.0860	36.0040
 1.0870	35.9990
 1.0880	35.9940
 1.0890	35.9890
 1.0900	35.9830
 1.0910	35.9780
 1.0920	35.9760
 1.0930	35.9710
 1.0940	35.9650
 1.0950	35.9580
 1.0960	35.9490
 1.0970	35.9420
 1.0980	35.9360
 1.0990	35.9290
 1.1000	35.9240
 1.1010	35.9180
 1.1020	35.9110
 1.1030	35.9030
 1.1040	35.8950
 1.1050	35.8870
 1.1060	35.8800
 1.1070	35.8730
 1.1080	35.8650
 1.1090	35.8580
 1.1100	35.8480
 1.1110	35.8360
 1.1120	35.8240
 1.1130	35.8110
 1.1140	35.7980
 1.1150	35.7880
 1.1160	35.7730
 1.1170	35.7580
 1.1180	35.7410
 1.1190	35.7230
 1.1200	35.7030
 1.1210	35.6840
 1.1220	35.6620
 1.1230	35.6380
 1.1240	35.6110
 1.1250	35.5800
 1.1260	35.5450
 1.1270	35.5080
 1.1280	35.4680
 1.1290	35.4240
 1.1300	35.3780
 1.1310	35.3270
 1.1320	35.2720
 1.1330	35.2130
 1.1340	35.1500
 1.1350	35.0830
 1.1360	35.0110
 1.1370	34.9370
 1.1380	34.8570
 1.1390	34.7750
 1.1400	34.6920
 1.1410	34.6080
 1.1420	34.5240
 1.1430	34.4370
 1.1440	34.3490
 1.1450	34.2560
 1.1460	34.1690
 1.1470	34.0810
 1.1480	33.9990
 1.1490	33.9200
 1.1500	33.8440
 1.1510	33.7710
 1.1520	33.7020
 1.1530	33.6340
 1.1540	33.5730
 1.1550	33.5170
 1.1560	33.4650
 1.1570	33.4190
 1.1580	33.3750
 1.1590	33.3330
 1.1600	33.2950
 1.1610	33.2610
 1.1620	33.2320
 1.1630	33.2070
 1.1640	33.1850
 1.1650	33.1630
 1.1660	33.1440
 1.1670	33.1260
 1.1680	33.1110
 1.1690	33.0950
 1.1700	33.0800
 1.1710	33.0660
 1.1720	33.0530
 1.1730	33.0390
 1.1740	33.0260
 1.1750	33.0130
 1.1760	32.9990
 1.1770	32.9850
 1.1780	32.9680
 1.1790	32.9520
 1.1800	32.9350
 1.1810	32.9170
 1.1820	32.9020
 1.1830	32.8850
 1.1840	32.8710
 1.1850	32.8590
 1.1860	32.8450
 1.1870	32.8320
 1.1880	32.8200
 1.1890	32.8070
 1.1900	32.7970
 1.1910	32.7900
 1.1920	32.7830
 1.1930	32.7740
 1.1940	32.7680
 1.1950	32.7640
 1.1960	32.7590
 1.1970	32.7540
 1.1980	32.7540
 1.1990	32.7560
 1.2000	32.7580
 1.2010	32.7630
 1.2020	32.7690
 1.2030	32.7740
 1.2040	32.7810
 1.2050	32.7900
 1.2060	32.8000
 1.2070	32.8130
 1.2080	32.8270
 1.2090	32.8420
 1.2100	32.8580
 1.2110	32.8750
 1.2120	32.8930
 1.2130	32.9120
 1.2140	32.9330
 1.2150	32.9540
 1.2160	32.9770
 1.2170	32.9990
 1.2180	33.0210
 1.2190	33.0450
 1.2200	33.0690
 1.2210	33.0930
 1.2220	33.1170
 1.2230	33.1410
 1.2240	33.1630
 1.2250	33.1860
 1.2260	33.2080
 1.2270	33.2290
 1.2280	33.2510
 1.2290	33.2710
 1.2300	33.2900
 1.2310	33.3090
 1.2320	33.3290
 1.2330	33.3460
 1.2340	33.3640
 1.2350	33.3820
 1.2360	33.3980
 1.2370	33.4130
 1.2380	33.4280
 1.2390	33.4420
 1.2400	33.4530
 1.2410	33.4660
 1.2420	33.4810
 1.2430	33.4940
 1.2440	33.5090
 1.2450	33.5210
 1.2460	33.5320
 1.2470	33.5430
 1.2480	33.5530
 1.2490	33.5630
 1.2500	33.5720
 1.2510	33.5790
 1.2520	33.5870
 1.2530	33.5940
 1.2540	33.5990
 1.2550	33.6050
 1.2560	33.6130
 1.2570	33.6210
 1.2580	33.6270
 1.2590	33.6320
 1.2600	33.6360
 1.2610	33.6390
 1.2620	33.6410
 1.2630	33.6450
 1.2640	33.6470
 1.2650	33.6490
 1.2660	33.6500
 1.2670	33.6490
 1.2680	33.6460
 1.2690	33.6430
 1.2700	33.6410
 1.2710	33.6380
 1.2720	33.6370
 1.2730	33.6350
 1.2740	33.6320
 1.2750	33.6270
 1.2760	33.6210
 1.2770	33.6130
 1.2780	33.6050
 1.2790	33.5980
 1.2800	33.5880
 1.2810	33.5780
 1.2820	33.5680
 1.2830	33.5580
 1.2840	33.5460
 1.2850	33.5340
 1.2860	33.5200
 1.2870	33.5040
 1.2880	33.4850
 1.2890	33.4670
 1.2900	33.4480
 1.2910	33.4280
 1.2920	33.4060
 1.2930	33.3810
 1.2940	33.3540
 1.2950	33.3260
 1.2960	33.2980
 1.2970	33.2680
 1.2980	33.2390
 1.2990	33.2080
 1.3000	33.1750
 1.3010	33.1400
 1.3020	33.1040
 1.3030	33.0650
 1.3040	33.0240
 1.3050	32.9810
 1.3060	32.9340
 1.3070	32.8870
 1.3080	32.8390
 1.3090	32.7890
 1.3100	32.7400
 1.3110	32.6890
 1.3120	32.6350
 1.3130	32.5790
 1.3140	32.5190
 1.3150	32.4550
 1.3160	32.3890
 1.3170	32.3200
 1.3180	32.2490
 1.3190	32.1790
 1.3200	32.1080
 1.3210	32.0350
 1.3220	31.9590
 1.3230	31.8790
 1.3240	31.7960
 1.3250	31.7120
 1.3260	31.6270
 1.3270	31.5420
 1.3280	31.4540
 1.3290	31.3650
 1.3300	31.2750
 1.3310	31.1830
 1.3320	31.0910
 1.3330	30.9970
 1.3340	30.9020
 1.3350	30.8030
 1.3360	30.7040
 1.3370	30.6040
 1.3380	30.5050
 1.3390	30.4090
 1.3400	30.3110
 1.3410	30.2140
 1.3420	30.1180
 1.3430	30.0200
 1.3440	29.9230
 1.3450	29.8280
 1.3460	29.7320
 1.3470	29.6370
 1.3480	29.5430
 1.3490	29.4500
 1.3500	29.3570
 1.3510	29.2650
 1.3520	29.1730
 1.3530	29.0820
 1.3540	28.9910
 1.3550	28.9000
 1.3560	28.8080
 1.3570	28.7130
 1.3580	28.6190
 1.3590	28.5250
 1.3600	28.4280
 1.3610	28.3300
 1.3620	28.2260
 1.3630	28.1180
 1.3640	28.0050
 1.3650	27.8870
 1.3660	27.7660
 1.3670	27.6370
 1.3680	27.5010
 1.3690	27.3570
 1.3700	27.2020
 1.3710	27.0370
 1.3720	26.8630
 1.3730	26.6770
 1.3740	26.4800
 1.3750	26.2690
 1.3760	26.0420
 1.3770	25.7990
 1.3780	25.5380
 1.3790	25.2600
 1.3800	24.9650
 1.3810	24.6500
 1.3820	24.3210
 1.3830	23.9760
 1.3840	23.6150
 1.3850	23.2380
 1.3860	22.8500
 1.3870	22.4430
 1.3880	22.0330
 1.3890	21.6110
 1.3900	21.1800
 1.3910	20.7470
 1.3920	20.3070
 1.3930	19.8620
 1.3940	19.4190
 1.3950	18.9740
 1.3960	18.5330
 1.3970	18.0990
 1.3980	17.6710
 1.3990	17.2570
 1.4000	16.8520
 1.4010	16.4570
 1.4020	16.0790
 1.4030	15.7120
 1.4040	15.3600
 1.4050	15.0250
 1.4060	14.7040
 1.4070	14.4020
 1.4080	14.1180
 1.4090	13.8480
 1.4100	13.5960
 1.4110	13.3580
 1.4120	13.1360
 1.4130	12.9290
 1.4140	12.7360
 1.4150	12.5590
 1.4160	12.3940
 1.4170	12.2400
 1.4180	12.0990
 1.4190	11.9690
 1.4200	11.8490
 1.4210	11.7390
 1.4220	11.6390
 1.4230	11.5480
 1.4240	11.4650
 1.4250	11.3880
 1.4260	11.3200
 1.4270	11.2570
 1.4280	11.2000
 1.4290	11.1480
 1.4300	11.1030
 1.4310	11.0620
 1.4320	11.0270
 1.4330	10.9950
 1.4340	10.9690
 1.4350	10.9470
 1.4360	10.9290
 1.4370	10.9150
 1.4380	10.9040
 1.4390	10.8950
 1.4400	10.8900
 1.4410	10.8860
 1.4420	10.8870
 1.4430	10.8890
 1.4440	10.8930
 1.4450	10.9000
 1.4460	10.9070
 1.4470	10.9160
 1.4480	10.9270
 1.4490	10.9400
 1.4500	10.9530
 1.4510	10.9670
 1.4520	10.9820
 1.4530	10.9990
 1.4540	11.0180
 1.4550	11.0380
 1.4560	11.0590
 1.4570	11.0820
 1.4580	11.1060
 1.4590	11.1350
 1.4600	11.1670
 1.4610	11.2030
 1.4620	11.2400
 1.4630	11.2820
 1.4640	11.3250
 1.4650	11.3720
 1.4660	11.4230
 1.4670	11.4770
 1.4680	11.5360
 1.4690	11.5980
 1.4700	11.6630
 1.4710	11.7330
 1.4720	11.8040
 1.4730	11.8780
 1.4740	11.9560
 1.4750	12.0350
 1.4760	12.1170
 1.4770	12.2000
 1.4780	12.2860
 1.4790	12.3740
 1.4800	12.4630
 1.4810	12.5540
 1.4820	12.6460
 1.4830	12.7370
 1.4840	12.8320
 1.4850	12.9260
 1.4860	13.0210
 1.4870	13.1170
 1.4880	13.2120
 1.4890	13.3090
 1.4900	13.4060
 1.4910	13.5040
 1.4920	13.6020
 1.4930	13.7000
 1.4940	13.8000
 1.4950	13.9000
 1.4960	14.0000
 1.4970	14.0990
 1.4980	14.1980
 1.4990	14.2960
 1.5000	14.3940
 1.5010	14.4940
 1.5020	14.5940
 1.5030	14.6940
 1.5040	14.7930
 1.5050	14.8900
 1.5060	14.9880
 1.5070	15.0850
 1.5080	15.1820
 1.5090	15.2790
 1.5100	15.3760
 1.5110	15.4720
 1.5120	15.5680
 1.5130	15.6620
 1.5140	15.7560
 1.5150	15.8520
 1.5160	15.9450
 1.5170	16.0380
 1.5180	16.1310
 1.5190	16.2210
 1.5200	16.3110
 1.5210	16.4000
 1.5220	16.4900
 1.5230	16.5790
 1.5240	16.6670
 1.5250	16.7540
 1.5260	16.8400
 1.5270	16.9250
 1.5280	17.0100
 1.5290	17.0940
 1.5300	17.1770
 1.5310	17.2600
 1.5320	17.3410
 1.5330	17.4230
 1.5340	17.5040
 1.5350	17.5830
 1.5360	17.6620
 1.5370	17.7390
 1.5380	17.8170
 1.5390	17.8930
 1.5400	17.9670
 1.5410	18.0430
 1.5420	18.1160
 1.5430	18.1900
 1.5440	18.2650
 1.5450	18.3360
 1.5460	18.4060
 1.5470	18.4770
 1.5480	18.5460
 1.5490	18.6160
 1.5500	18.6870
 1.5510	18.7550
 1.5520	18.8230
 1.5530	18.8900
 1.5540	18.9550
 1.5550	19.0190
 1.5560	19.0820
 1.5570	19.1450
 1.5580	19.2070
 1.5590	19.2700
 1.5600	19.3330
 1.5610	19.3940
 1.5620	19.4550
 1.5630	19.5170
 1.5640	19.5760
 1.5650	19.6360
 1.5660	19.6940
 1.5670	19.7500
 1.5680	19.8070
 1.5690	19.8620
 1.5700	19.9180
 1.5710	19.9740
 1.5720	20.0270
 1.5730	20.0830
 1.5740	20.1380
 1.5750	20.1920
 1.5760	20.2480
 1.5770	20.3020
 1.5780	20.3550
 1.5790	20.4080
 1.5800	20.4600
 1.5810	20.5140
 1.5820	20.5660
 1.5830	20.6190
 1.5840	20.6720
 1.5850	20.7240
 1.5860	20.7750
 1.5870	20.8280
 1.5880	20.8790
 1.5890	20.9280
 1.5900	20.9780
 1.5910	21.0280
 1.5920	21.0760
 1.5930	21.1250
 1.5940	21.1740
 1.5950	21.2230
 1.5960	21.2710
 1.5970	21.3190
 1.5980	21.3670
 1.5990	21.4140
 1.6000	21.4600
 1.6010	21.5070
 1.6020	21.5520
 1.6030	21.5960
 1.6040	21.6420
 1.6050	21.6850
 1.6060	21.7290
 1.6070	21.7730
 1.6080	21.8150
 1.6090	21.8570
 1.6100	21.8980
 1.6110	21.9390
 1.6120	21.9800
 1.6130	22.0180
 1.6140	22.0580
 1.6150	22.0970
 1.6160	22.1340
 1.6170	22.1710
 1.6180	22.2070
 1.6190	22.2410
 1.6200	22.2750
 1.6210	22.3100
 1.6220	22.3440
 1.6230	22.3760
 1.6240	22.4090
 1.6250	22.4400
 1.6260	22.4710
 1.6270	22.5020
 1.6280	22.5310
 1.6290	22.5600
 1.6300	22.5890
 1.6310	22.6170
 1.6320	22.6440
 1.6330	22.6700
 1.6340	22.6940
 1.6350	22.7170
 1.6360	22.7400
 1.6370	22.7630
 1.6380	22.7860
 1.6390	22.8080
 1.6400	22.8290
 1.6410	22.8480
 1.6420	22.8650
 1.6430	22.8800
 1.6440	22.8940
 1.6450	22.9060
 1.6460	22.9170
 1.6470	22.9250
 1.6480	22.9310
 1.6490	22.9350
 1.6500	22.9360
 1.6510	22.9340
 1.6520	22.9310
 1.6530	22.9240
 1.6540	22.9160
 1.6550	22.9070
 1.6560	22.8960
 1.6570	22.8830
 1.6580	22.8700
 1.6590	22.8540
 1.6600	22.8380
 1.6610	22.8240
 1.6620	22.8090
 1.6630	22.7930
 1.6640	22.7770
 1.6650	22.7610
 1.6660	22.7460
 1.6670	22.7310
 1.6680	22.7170
 1.6690	22.7030
 1.6700	22.6890
 1.6710	22.6760
 1.6720	22.6630
 1.6730	22.6490
 1.6740	22.6330
 1.6750	22.6150
 1.6760	22.5970
 1.6770	22.5790
 1.6780	22.5600
 1.6790	22.5400
 1.6800	22.5180
 1.6810	22.4940
 1.6820	22.4670
 1.6830	22.4370
 1.6840	22.4080
 1.6850	22.3750
 1.6860	22.3410
 1.6870	22.3070
 1.6880	22.2730
 1.6890	22.2360
 1.6900	22.1990
 1.6910	22.1580
 1.6920	22.1190
 1.6930	22.0790
 1.6940	22.0390
 1.6950	22.0020
 1.6960	21.9620
 1.6970	21.9210
 1.6980	21.8790
 1.6990	21.8340
 1.7000	21.7910
 1.7010	21.7470
 1.7020	21.7020
 1.7030	21.6580
 1.7040	21.6120
 1.7050	21.5650
 1.7060	21.5170
 1.7070	21.4690
 1.7080	21.4210
 1.7090	21.3740
 1.7100	21.3280
 1.7110	21.2830
 1.7120	21.2390
 1.7130	21.1970
 1.7140	21.1560
 1.7150	21.1150
 1.7160	21.0750
 1.7170	21.0380
 1.7180	21.0010
 1.7190	20.9650
 1.7200	20.9310
 1.7210	20.8970
 1.7220	20.8640
 1.7230	20.8330
 1.7240	20.8030
 1.7250	20.7740
 1.7260	20.7480
 1.7270	20.7220
 1.7280	20.6970
 1.7290	20.6730
 1.7300	20.6480
 1.7310	20.6240
 1.7320	20.6020
 1.7330	20.5790
 1.7340	20.5570
 1.7350	20.5320
 1.7360	20.5050
 1.7370	20.4760
 1.7380	20.4450
 1.7390	20.4140
 1.7400	20.3840
 1.7410	20.3490
 1.7420	20.3110
 1.7430	20.2740
 1.7440	20.2340
 1.7450	20.1940
 1.7460	20.1550
 1.7470	20.1140
 1.7480	20.0710
 1.7490	20.0300
 1.7500	19.9910
 1.7510	19.9510
 1.7520	19.9110
 1.7530	19.8710
 1.7540	19.8310
 1.7550	19.7910
 1.7560	19.7550
 1.7570	19.7190
 1.7580	19.6860
 1.7590	19.6550
 1.7600	19.6230
 1.7610	19.5930
 1.7620	19.5640
 1.7630	19.5380
 1.7640	19.5120
 1.7650	19.4890
 1.7660	19.4660
 1.7670	19.4430
 1.7680	19.4200
 1.7690	19.3960
 1.7700	19.3740
 1.7710	19.3510
 1.7720	19.3290
 1.7730	19.3100
 1.7740	19.2900
 1.7750	19.2710
 1.7760	19.2520
 1.7770	19.2320
 1.7780	19.2150
 1.7790	19.1980
 1.7800	19.1840
 1.7810	19.1720
 1.7820	19.1610
 1.7830	19.1510
 1.7840	19.1440
 1.7850	19.1380
 1.7860	19.1310
 1.7870	19.1240
 1.7880	19.1180
 1.7890	19.1130
 1.7900	19.1120
 1.7910	19.1120
 1.7920	19.1140
 1.7930	19.1160
 1.7940	19.1200
 1.7950	19.1230
 1.7960	19.1250
 1.7970	19.1290
 1.7980	19.1320
 1.7990	19.1370
 1.8000	19.1440
 1.8010	19.1510
 1.8020	19.1590
 1.8030	19.1660
 1.8040	19.1730
 1.8050	19.1800
 1.8060	19.1870
 1.8070	19.1930
 1.8080	19.1980
 1.8090	19.2040
 1.8100	19.2100
 1.8110	19.2200
 1.8120	19.2280
 1.8130	19.2350
 1.8140	19.2410
 1.8150	19.2470
 1.8160	19.2520
 1.8170	19.2560
 1.8180	19.2590
 1.8190	19.2570
 1.8200	19.2580
 1.8210	19.2620
 1.8220	19.2620
 1.8230	19.2600
 1.8240	19.2590
 1.8250	19.2570
 1.8260	19.2520
 1.8270	19.2310
 1.8280	19.2100
 1.8290	19.1890
 1.8300	19.1690
 1.8310	19.1480
 1.8320	19.1270
 1.8330	19.1070
 1.8340	19.0860
 1.8350	19.0860
 1.8360	19.0590
 1.8370	19.0290
 1.8380	18.9960
 1.8390	18.9590
 1.8400	18.9180
 1.8410	18.8720
 1.8420	18.8240
 1.8430	18.7730
 1.8440	18.7150
 1.8450	18.6510
 1.8460	18.5820
 1.8470	18.5030
 1.8480	18.4200
 1.8490	18.3290
 1.8500	18.2300
 1.8510	18.1230
 1.8520	18.0100
 1.8530	17.8850
 1.8540	17.7530
 1.8550	17.6090
 1.8560	17.4540
 1.8570	17.2900
 1.8580	17.1150
 1.8590	16.9280
 1.8600	16.7300
 1.8610	16.5210
 1.8620	16.2970
 1.8630	16.0630
 1.8640	15.8170
 1.8650	15.5560
 1.8660	15.2820
 1.8670	14.9900
 1.8680	14.6850
 1.8690	14.3640
 1.8700	14.0300
 1.8710	13.6810
 1.8720	13.3250
 1.8730	12.9580
 1.8740	12.5810
 1.8750	12.1960
 1.8760	11.8020
 1.8770	11.4030
 1.8780	11.0030
 1.8790	10.6020
 1.8800	10.2070
 1.8810	 9.8150
 1.8820	 9.4220
 1.8830	 9.0330
 1.8840	 8.6480
 1.8850	 8.2660
 1.8860	 7.8940
 1.8870	 7.5330
 1.8880	 7.1820
 1.8890	 6.8480
 1.8900	 6.5290
 1.8910	 6.2270
 1.8920	 5.9380
 1.8930	 5.6700
 1.8940	 5.4160
 1.8950	 5.1810
 1.8960	 4.9620
 1.8970	 4.7590
 1.8980	 4.5740
 1.8990	 4.4070
 1.9000	 4.2520
 1.9010	 4.1150
 1.9020	 3.9870
 1.9030	 3.8740
 1.9040	 3.7720
 1.9050	 3.6800
 1.9060	 3.6000
 1.9070	 3.5310
 1.9080	 3.4680
 1.9090	 3.4130
 1.9100	 3.3650
 1.9110	 3.3200
 1.9120	 3.2820
 1.9130	 3.2460
 1.9140	 3.2140
 1.9150	 3.1880
 1.9160	 3.1660
 1.9170	 3.1460
 1.9180	 3.1300
 1.9190	 3.1160
 1.9200	 3.1030
 1.9210	 3.0930
 1.9220	 3.0850
 1.9230	 3.0790
 1.9240	 3.0750
 1.9250	 3.0750
 1.9260	 3.0740
 1.9270	 3.0740
 1.9280	 3.0760
 1.9290	 3.0790
 1.9300	 3.0820
 1.9310	 3.0880
 1.9320	 3.0970
 1.9330	 3.1050
 1.9340	 3.1160
 1.9350	 3.1270
 1.9360	 3.1370
 1.9370	 3.1490
 1.9380	 3.1610
 1.9390	 3.1730
 1.9400	 3.1870
 1.9410	 3.2040
 1.9420	 3.2200
 1.9430	 3.2400
 1.9440	 3.2600
 1.9450	 3.2810
 1.9460	 3.3020
 1.9470	 3.3250
 1.9480	 3.3470
 1.9490	 3.3700
 1.9500	 3.3930
 1.9510	 3.4160
 1.9520	 3.4410
 1.9530	 3.4670
 1.9540	 3.4960
 1.9550	 3.5240
 1.9560	 3.5520
 1.9570	 3.5810
 1.9580	 3.6120
 1.9590	 3.6420
 1.9600	 3.6730
 1.9610	 3.7040
 1.9620	 3.7350
 1.9630	 3.7670
 1.9640	 3.8000
 1.9650	 3.8340
 1.9660	 3.8730
 1.9670	 3.9110
 1.9680	 3.9500
 1.9690	 3.9890
 1.9700	 4.0290
 1.9710	 4.0670
 1.9720	 4.1070
 1.9730	 4.1480
 1.9740	 4.1890
 1.9750	 4.2310
 1.9760	 4.2720
 1.9770	 4.3140
 1.9780	 4.3550
 1.9790	 4.3970
 1.9800	 4.4410
 1.9810	 4.4850
 1.9820	 4.5290
 1.9830	 4.5750
 1.9840	 4.6240
 1.9850	 4.6720
 1.9860	 4.7200
 1.9870	 4.7700
 1.9880	 4.8180
 1.9890	 4.8640
 1.9900	 4.9120
 1.9910	 4.9630
 1.9920	 5.0130
 1.9930	 5.0640
 1.9940	 5.1140
 1.9950	 5.1620
 1.9960	 5.2120
 1.9970	 5.2620
 1.9980	 5.3120
 1.9990	 5.3630
 2.0000	 5.4140
 2.0010	 5.4640
 2.0020	 5.5140
 2.0030	 5.5640
 2.0040	 5.6130
 2.0050	 5.6630
 2.0060	 5.7110
 2.0070	 5.7600
 2.0080	 5.8090
 2.0090	 5.8580
 2.0100	 5.9100
 2.0110	 5.9600
 2.0120	 6.0090
 2.0130	 6.0580
 2.0140	 6.1030
 2.0150	 6.1470
 2.0160	 6.1920
 2.0170	 6.2360
 2.0180	 6.2800
 2.0190	 6.3260
 2.0200	 6.3710
 2.0210	 6.4160
 2.0220	 6.4600
 2.0230	 6.5040
 2.0240	 6.5470
 2.0250	 6.5900
 2.0260	 6.6300
 2.0270	 6.6690
 2.0280	 6.7080
 2.0290	 6.7500
 2.0300	 6.7870
 2.0310	 6.8250
 2.0320	 6.8640
 2.0330	 6.9010
 2.0340	 6.9360
 2.0350	 6.9710
 2.0360	 7.0040
 2.0370	 7.0360
 2.0380	 7.0660
 2.0390	 7.0960
 2.0400	 7.1270
 2.0410	 7.1570
 2.0420	 7.1860
 2.0430	 7.2150
 2.0440	 7.2440
 2.0450	 7.2740
 2.0460	 7.3030
 2.0470	 7.3330
 2.0480	 7.3610
 2.0490	 7.3870
 2.0500	 7.4140
 2.0510	 7.4400
 2.0520	 7.4670
 2.0530	 7.4950
 2.0540	 7.5220
 2.0550	 7.5490
 2.0560	 7.5770
 2.0570	 7.6070
 2.0580	 7.6340
 2.0590	 7.6610
 2.0600	 7.6900
 2.0610	 7.7170
 2.0620	 7.7430
 2.0630	 7.7710
 2.0640	 7.7980
 2.0650	 7.8260
 2.0660	 7.8550
 2.0670	 7.8840
 2.0680	 7.9120
 2.0690	 7.9410
 2.0700	 7.9700
 2.0710	 7.9990
 2.0720	 8.0300
 2.0730	 8.0610
 2.0740	 8.0890
 2.0750	 8.1160
 2.0760	 8.1440
 2.0770	 8.1700
 2.0780	 8.1980
 2.0790	 8.2280
 2.0800	 8.2560
 2.0810	 8.2830
 2.0820	 8.3100
 2.0830	 8.3350
 2.0840	 8.3620
 2.0850	 8.3920
 2.0860	 8.4200
 2.0870	 8.4460
 2.0880	 8.4740
 2.0890	 8.5010
 2.0900	 8.5270
 2.0910	 8.5540
 2.0920	 8.5820
 2.0930	 8.6090
 2.0940	 8.6360
 2.0950	 8.6620
 2.0960	 8.6850
 2.0970	 8.7100
 2.0980	 8.7330
 2.0990	 8.7580
 2.1000	 8.7870
 2.1010	 8.8140
 2.1020	 8.8420
 2.1030	 8.8680
 2.1040	 8.8910
 2.1050	 8.9150
 2.1060	 8.9400
 2.1070	 8.9640
 2.1080	 8.9900
 2.1090	 9.0180
 2.1100	 9.0450
 2.1110	 9.0760
 2.1120	 9.1010
 2.1130	 9.1220
 2.1140	 9.1460
 2.1150	 9.1670
 2.1160	 9.1900
 2.1170	 9.2170
 2.1180	 9.2430
 2.1190	 9.2700
 2.1200	 9.2950
 2.1210	 9.3180
 2.1220	 9.3420
 2.1230	 9.3640
 2.1240	 9.3830
 2.1250	 9.4030
 2.1260	 9.4210
 2.1270	 9.4410
 2.1280	 9.4610
 2.1290	 9.4820
 2.1300	 9.5050
 2.1310	 9.5260
 2.1320	 9.5450
 2.1330	 9.5660
 2.1340	 9.5870
 2.1350	 9.6070
 2.1360	 9.6260
 2.1370	 9.6450
 2.1380	 9.6630
 2.1390	 9.6820
 2.1400	 9.7000
 2.1410	 9.7190
 2.1420	 9.7380
 2.1430	 9.7550
 2.1440	 9.7750
 2.1450	 9.7970
 2.1460	 9.8200
 2.1470	 9.8480
 2.1480	 9.8720
 2.1490	 9.8970
 2.1500	 9.9210
 2.1510	 9.9440
 2.1520	 9.9670
 2.1530	 9.9890
 2.1540	10.0120
 2.1550	10.0340
 2.1560	10.0560
 2.1570	10.0800
 2.1580	10.1030
 2.1590	10.1270
 2.1600	10.1510
 2.1610	10.1750
 2.1620	10.2010
 2.1630	10.2260
 2.1640	10.2520
 2.1650	10.2760
 2.1660	10.2990
 2.1670	10.3210
 2.1680	10.3410
 2.1690	10.3630
 2.1700	10.3870
 2.1710	10.4100
 2.1720	10.4340
 2.1730	10.4580
 2.1740	10.4820
 2.1750	10.5050
 2.1760	10.5270
 2.1770	10.5500
 2.1780	10.5730
 2.1790	10.5960
 2.1800	10.6200
 2.1810	10.6440
 2.1820	10.6680
 2.1830	10.6940
 2.1840	10.7180
 2.1850	10.7430
 2.1860	10.7660
 2.1870	10.7880
 2.1880	10.8130
 2.1890	10.8370
 2.1900	10.8620
 2.1910	10.8890
 2.1920	10.9140
 2.1930	10.9390
 2.1940	10.9630
 2.1950	10.9840
 2.1960	11.0060
 2.1970	11.0270
 2.1980	11.0480
 2.1990	11.0690
 2.2000	11.0890
 2.2010	11.1060
 2.2020	11.1240
 2.2030	11.1390
 2.2040	11.1550
 2.2050	11.1730
 2.2060	11.1900
 2.2070	11.2040
 2.2080	11.2200
 2.2090	11.2330
 2.2100	11.2430
 2.2110	11.2540
 2.2120	11.2660
 2.2130	11.2750
 2.2140	11.2820
 2.2150	11.2900
 2.2160	11.2960
 2.2170	11.3030
 2.2180	11.3110
 2.2190	11.3150
 2.2200	11.3150
 2.2210	11.3150
 2.2220	11.3130
 2.2230	11.3110
 2.2240	11.3110
 2.2250	11.3080
 2.2260	11.3040
 2.2270	11.2960
 2.2280	11.2860
 2.2290	11.2730
 2.2300	11.2560
 2.2310	11.2370
 2.2320	11.2180
 2.2330	11.1940
 2.2340	11.1700
 2.2350	11.1460
 2.2360	11.1170
 2.2370	11.0870
 2.2380	11.0520
 2.2390	11.0100
 2.2400	10.9690
 2.2410	10.9250
 2.2420	10.8810
 2.2430	10.8360
 2.2440	10.7900
 2.2450	10.7430
 2.2460	10.6940
 2.2470	10.6430
 2.2480	10.5910
 2.2490	10.5370
 2.2500	10.4820
 2.2510	10.4250
 2.2520	10.3670
 2.2530	10.3080
 2.2540	10.2480
 2.2550	10.1900
 2.2560	10.1290
 2.2570	10.0640
 2.2580	10.0010
 2.2590	 9.9360
 2.2600	 9.8750
 2.2610	 9.8200
 2.2620	 9.7640
 2.2630	 9.7030
 2.2640	 9.6420
 2.2650	 9.5770
 2.2660	 9.5130
 2.2670	 9.4540
 2.2680	 9.3980
 2.2690	 9.3460
 2.2700	 9.2990
 2.2710	 9.2480
 2.2720	 9.2000
 2.2730	 9.1520
 2.2740	 9.1010
 2.2750	 9.0550
 2.2760	 9.0140
 2.2770	 8.9710
 2.2780	 8.9300
 2.2790	 8.8880
 2.2800	 8.8460
 2.2810	 8.8050
 2.2820	 8.7650
 2.2830	 8.7250
 2.2840	 8.6870
 2.2850	 8.6490
 2.2860	 8.6140
 2.2870	 8.5760
 2.2880	 8.5390
 2.2890	 8.4990
 2.2900	 8.4540
 2.2910	 8.4110
 2.2920	 8.3680
 2.2930	 8.3270
 2.2940	 8.2900
 2.2950	 8.2490
 2.2960	 8.2060
 2.2970	 8.1660
 2.2980	 8.1260
 2.2990	 8.0840
 2.3000	 8.0440
 2.3010	 8.0050
 2.3020	 7.9650
 2.3030	 7.9280
 2.3040	 7.8990
 2.3050	 7.8720
 2.3060	 7.8500
 2.3070	 7.8300
 2.3080	 7.8120
 2.3090	 7.7970
 2.3100	 7.7810
 2.3110	 7.7690
 2.3120	 7.7580
 2.3130	 7.7480
 2.3140	 7.7400
 2.3150	 7.7330
 2.3160	 7.7280
 2.3170	 7.7270
 2.3180	 7.7190
 2.3190	 7.7110
 2.3200	 7.6990
 2.3210	 7.6810
 2.3220	 7.6620
 2.3230	 7.6400
 2.3240	 7.6170
 2.3250	 7.5890
 2.3260	 7.5630
 2.3270	 7.5390
 2.3280	 7.5130
 2.3290	 7.4860
 2.3300	 7.4580
 2.3310	 7.4300
 2.3320	 7.4020
 2.3330	 7.3760
 2.3340	 7.3450
 2.3350	 7.3080
 2.3360	 7.2750
 2.3370	 7.2380
 2.3380	 7.2030
 2.3390	 7.1730
 2.3400	 7.1420
 2.3410	 7.1110
 2.3420	 7.0810
 2.3430	 7.0520
 2.3440	 7.0230
 2.3450	 6.9930
 2.3460	 6.9660
 2.3470	 6.9400
 2.3480	 6.9180
 2.3490	 6.9020
 2.3500	 6.8810
 2.3510	 6.8560
 2.3520	 6.8350
 2.3530	 6.8110
 2.3540	 6.7890
 2.3550	 6.7720
 2.3560	 6.7600
 2.3570	 6.7360
 2.3580	 6.7080
 2.3590	 6.6850
 2.3600	 6.6650
 2.3610	 6.6460
 2.3620	 6.6300
 2.3630	 6.6090
 2.3640	 6.5790
 2.3650	 6.5480
 2.3660	 6.5280
 2.3670	 6.5060
 2.3680	 6.4830
 2.3690	 6.4640
 2.3700	 6.4410
 2.3710	 6.4210
 2.3720	 6.3990
 2.3730	 6.3760
 2.3740	 6.3610
 2.3750	 6.3400
 2.3760	 6.3110
 2.3770	 6.2810
 2.3780	 6.2460
 2.3790	 6.2080
 2.3800	 6.1780
 2.3810	 6.1510
 2.3820	 6.1290
 2.3830	 6.1060
 2.3840	 6.0810
 2.3850	 6.0570
 2.3860	 6.0260
 2.3870	 5.9930
 2.3880	 5.9650
 2.3890	 5.9350
 2.3900	 5.9060
 2.3910	 5.8800
 2.3920	 5.8570
 2.3930	 5.8330
 2.3940	 5.8080
 2.3950	 5.7860
 2.3960	 5.7560
 2.3970	 5.7190
 2.3980	 5.6840
 2.3990	 5.6520
 2.4000	 5.6220
 2.4010	 5.5880
 2.4020	 5.5620
 2.4030	 5.5350
 2.4040	 5.4990
 2.4050	 5.4650
 2.4060	 5.4320
 2.4070	 5.3920
 2.4080	 5.3600
 2.4090	 5.3440
 2.4100	 5.3200
 2.4110	 5.2940
 2.4120	 5.2700
 2.4130	 5.2380
 2.4140	 5.2070
 2.4150	 5.1770
 2.4160	 5.1400
 2.4170	 5.1060
 2.4180	 5.0740
 2.4190	 5.0450
 2.4200	 5.0240
 2.4210	 5.0000
 2.4220	 4.9740
 2.4230	 4.9500
 2.4240	 4.9180
 2.4250	 4.8860
 2.4260	 4.8600
 2.4270	 4.8300
 2.4280	 4.7960
 2.4290	 4.7720
 2.4300	 4.7440
 2.4310	 4.7160
 2.4320	 4.6850
 2.4330	 4.6430
 2.4340	 4.6100
 2.4350	 4.5730
 2.4360	 4.5400
 2.4370	 4.5140
 2.4380	 4.4700
 2.4390	 4.4340
 2.4400	 4.4000
 2.4410	 4.3680
 2.4420	 4.3490
 2.4430	 4.3210
 2.4440	 4.2890
 2.4450	 4.2560
 2.4460	 4.2040
 2.4470	 4.1650
 2.4480	 4.1460
 2.4490	 4.1240
 2.4500	 4.1240
 2.4510	 4.1190
 2.4520	 4.0960
 2.4530	 4.0810
 2.4540	 4.0470
 2.4550	 4.0120
 2.4560	 3.9920
 2.4570	 3.9660
 2.4580	 3.9330
 2.4590	 3.8950
 2.4600	 3.8640
 2.4610	 3.8290
 2.4620	 3.8090
 2.4630	 3.7930
 2.4640	 3.7530
 2.4650	 3.7310
 2.4660	 3.7020
 2.4670	 3.6790
 2.4680	 3.6640
 2.4690	 3.6430
 2.4700	 3.6300
 2.4710	 3.6160
 2.4720	 3.6080
 2.4730	 3.6090
 2.4740	 3.5930
 2.4750	 3.5660
 2.4760	 3.5510
 2.4770	 3.5380
 2.4780	 3.5060
 2.4790	 3.4750
 2.4800	 3.4440
 2.4810	 3.3940
 2.4820	 3.3940
 2.4830	 3.3910
 2.4840	 3.3890
 2.4850	 3.3800
 2.4860	 3.3370
 2.4870	 3.2940
 2.4880	 3.3000
 2.4890	 3.3060
 2.4900	 3.3140
 2.4910	 3.3480
 2.4920	 3.3220
 2.4930	 3.2670
 2.4940	 3.2720
 2.4950	 3.2320
 2.4960	 3.2100
 2.4970	 3.2630
 2.4980	 3.2630
 2.4990	 3.3030
 2.5000	 3.3430
