Name: Abies concolor 2
Type: vegetation
Class: Tree
Genus: Abies
Species: concolor
Sample No.: VH256
Owner: UCSB
Wavelength Range: VSWIR
Origin: 37.0437; -119.3025; WGS84
Collection Date: 11/2/2013
Description: Samples were collected as part of the HyspIRI Airborne Campaign. 48 individual plants were sampled in three times in 2013 - spring  summer  and fall. The name of the sample includes a 1  2  or 3 which references a different individual of the species. Samples were taken to JPL and processed within 48 hours of collection. The same leaves were processed in the Nicolet and then measured using the ASD.
Measurement: Bidirectional reflectance
First Column: X
Second Column: Y
X Units: Wavelength (micrometers)
Y Units: Reflectance (percentage)
First X Value: 0.35
Last X Value: 2.5
Number of X Values: 2151
Additional Information: vegetation.tree.abies.concolor.vswir.vh256.ucsb.asd.ancillary.txt

 0.3500	 8.6840
 0.3510	 8.4950
 0.3520	 8.2550
 0.3530	 8.2080
 0.3540	 8.3650
 0.3550	 8.3420
 0.3560	 8.2760
 0.3570	 8.2340
 0.3580	 8.2340
 0.3590	 8.2720
 0.3600	 8.2680
 0.3610	 8.2070
 0.3620	 8.1730
 0.3630	 8.1280
 0.3640	 8.0690
 0.3650	 8.0240
 0.3660	 8.0850
 0.3670	 8.1250
 0.3680	 8.0940
 0.3690	 8.0140
 0.3700	 8.0550
 0.3710	 8.0570
 0.3720	 7.9710
 0.3730	 8.0370
 0.3740	 8.0340
 0.3750	 8.0020
 0.3760	 8.0320
 0.3770	 8.0440
 0.3780	 8.0610
 0.3790	 8.0570
 0.3800	 7.9740
 0.3810	 7.9650
 0.3820	 7.9660
 0.3830	 7.9480
 0.3840	 8.0590
 0.3850	 8.0520
 0.3860	 7.9780
 0.3870	 7.9830
 0.3880	 8.0330
 0.3890	 8.0250
 0.3900	 7.9700
 0.3910	 7.9990
 0.3920	 8.0170
 0.3930	 7.9890
 0.3940	 7.9410
 0.3950	 8.0170
 0.3960	 8.0410
 0.3970	 8.0140
 0.3980	 8.0190
 0.3990	 8.0490
 0.4000	 8.0800
 0.4010	 8.0930
 0.4020	 8.0790
 0.4030	 8.0830
 0.4040	 8.1260
 0.4050	 8.2000
 0.4060	 8.2240
 0.4070	 8.2450
 0.4080	 8.2890
 0.4090	 8.3590
 0.4100	 8.3920
 0.4110	 8.4350
 0.4120	 8.5080
 0.4130	 8.5510
 0.4140	 8.5970
 0.4150	 8.6470
 0.4160	 8.6960
 0.4170	 8.7590
 0.4180	 8.8140
 0.4190	 8.8620
 0.4200	 8.9240
 0.4210	 8.9880
 0.4220	 9.0520
 0.4230	 9.1170
 0.4240	 9.1740
 0.4250	 9.2330
 0.4260	 9.2830
 0.4270	 9.3090
 0.4280	 9.3730
 0.4290	 9.4330
 0.4300	 9.4720
 0.4310	 9.5140
 0.4320	 9.5550
 0.4330	 9.5820
 0.4340	 9.5890
 0.4350	 9.6020
 0.4360	 9.6380
 0.4370	 9.6930
 0.4380	 9.7490
 0.4390	 9.7890
 0.4400	 9.8350
 0.4410	 9.8930
 0.4420	 9.9200
 0.4430	 9.9500
 0.4440	 9.9870
 0.4450	10.0220
 0.4460	10.0460
 0.4470	10.0740
 0.4480	10.1100
 0.4490	10.1490
 0.4500	10.1770
 0.4510	10.1960
 0.4520	10.2150
 0.4530	10.2590
 0.4540	10.2860
 0.4550	10.2920
 0.4560	10.3030
 0.4570	10.3260
 0.4580	10.3450
 0.4590	10.3540
 0.4600	10.3700
 0.4610	10.3790
 0.4620	10.3780
 0.4630	10.3720
 0.4640	10.3860
 0.4650	10.4080
 0.4660	10.4200
 0.4670	10.4110
 0.4680	10.4080
 0.4690	10.4100
 0.4700	10.4120
 0.4710	10.4110
 0.4720	10.4130
 0.4730	10.4180
 0.4740	10.4240
 0.4750	10.4330
 0.4760	10.4360
 0.4770	10.4340
 0.4780	10.4460
 0.4790	10.4560
 0.4800	10.4630
 0.4810	10.4690
 0.4820	10.4780
 0.4830	10.4820
 0.4840	10.4830
 0.4850	10.4840
 0.4860	10.4910
 0.4870	10.5050
 0.4880	10.5260
 0.4890	10.5450
 0.4900	10.5700
 0.4910	10.5990
 0.4920	10.6280
 0.4930	10.6660
 0.4940	10.7080
 0.4950	10.7500
 0.4960	10.7980
 0.4970	10.8490
 0.4980	10.9060
 0.4990	10.9700
 0.5000	11.0340
 0.5010	11.1080
 0.5020	11.1940
 0.5030	11.2840
 0.5040	11.3820
 0.5050	11.4890
 0.5060	11.6070
 0.5070	11.7320
 0.5080	11.8620
 0.5090	12.0050
 0.5100	12.1690
 0.5110	12.3380
 0.5120	12.5160
 0.5130	12.7070
 0.5140	12.9130
 0.5150	13.1280
 0.5160	13.3510
 0.5170	13.5800
 0.5180	13.8220
 0.5190	14.0700
 0.5200	14.3210
 0.5210	14.5700
 0.5220	14.8150
 0.5230	15.0510
 0.5240	15.2790
 0.5250	15.4980
 0.5260	15.7090
 0.5270	15.9060
 0.5280	16.0840
 0.5290	16.2530
 0.5300	16.4050
 0.5310	16.5370
 0.5320	16.6620
 0.5330	16.7670
 0.5340	16.8580
 0.5350	16.9450
 0.5360	17.0100
 0.5370	17.0700
 0.5380	17.1250
 0.5390	17.1610
 0.5400	17.1890
 0.5410	17.2050
 0.5420	17.2120
 0.5430	17.2310
 0.5440	17.2590
 0.5450	17.2920
 0.5460	17.3260
 0.5470	17.3870
 0.5480	17.4490
 0.5490	17.4920
 0.5500	17.5170
 0.5510	17.5360
 0.5520	17.5480
 0.5530	17.5490
 0.5540	17.5330
 0.5550	17.5090
 0.5560	17.4730
 0.5570	17.4160
 0.5580	17.3460
 0.5590	17.2670
 0.5600	17.1800
 0.5610	17.0780
 0.5620	16.9660
 0.5630	16.8440
 0.5640	16.7120
 0.5650	16.5730
 0.5660	16.4280
 0.5670	16.2830
 0.5680	16.1420
 0.5690	15.9890
 0.5700	15.8320
 0.5710	15.6830
 0.5720	15.5390
 0.5730	15.4030
 0.5740	15.2770
 0.5750	15.1540
 0.5760	15.0270
 0.5770	14.9010
 0.5780	14.7840
 0.5790	14.6740
 0.5800	14.5820
 0.5810	14.5040
 0.5820	14.4340
 0.5830	14.3660
 0.5840	14.3000
 0.5850	14.2360
 0.5860	14.1760
 0.5870	14.1190
 0.5880	14.0680
 0.5890	14.0210
 0.5900	13.9770
 0.5910	13.9340
 0.5920	13.8940
 0.5930	13.8560
 0.5940	13.8320
 0.5950	13.8110
 0.5960	13.7860
 0.5970	13.7610
 0.5980	13.7310
 0.5990	13.6970
 0.6000	13.6600
 0.6010	13.6250
 0.6020	13.5880
 0.6030	13.5460
 0.6040	13.4970
 0.6050	13.4430
 0.6060	13.3850
 0.6070	13.3250
 0.6080	13.2530
 0.6090	13.1720
 0.6100	13.0770
 0.6110	12.9710
 0.6120	12.9070
 0.6130	12.8580
 0.6140	12.8050
 0.6150	12.7460
 0.6160	12.6900
 0.6170	12.6360
 0.6180	12.5830
 0.6190	12.5330
 0.6200	12.4880
 0.6210	12.4490
 0.6220	12.4180
 0.6230	12.3920
 0.6240	12.3700
 0.6250	12.3500
 0.6260	12.3360
 0.6270	12.3260
 0.6280	12.3180
 0.6290	12.3100
 0.6300	12.3020
 0.6310	12.2940
 0.6320	12.2860
 0.6330	12.2790
 0.6340	12.2640
 0.6350	12.2380
 0.6360	12.1980
 0.6370	12.1520
 0.6380	12.1000
 0.6390	12.0400
 0.6400	11.9730
 0.6410	11.9000
 0.6420	11.8200
 0.6430	11.7370
 0.6440	11.6600
 0.6450	11.5810
 0.6460	11.5020
 0.6470	11.4260
 0.6480	11.3590
 0.6490	11.2990
 0.6500	11.2440
 0.6510	11.1960
 0.6520	11.1540
 0.6530	11.1170
 0.6540	11.0810
 0.6550	11.0390
 0.6560	10.9970
 0.6570	10.9520
 0.6580	10.8970
 0.6590	10.8460
 0.6600	10.7910
 0.6610	10.7320
 0.6620	10.6710
 0.6630	10.6170
 0.6640	10.5680
 0.6650	10.5210
 0.6660	10.4860
 0.6670	10.4570
 0.6680	10.4330
 0.6690	10.4140
 0.6700	10.4080
 0.6710	10.4060
 0.6720	10.4050
 0.6730	10.4170
 0.6740	10.4330
 0.6750	10.4540
 0.6760	10.4800
 0.6770	10.5090
 0.6780	10.5450
 0.6790	10.5900
 0.6800	10.6420
 0.6810	10.7010
 0.6820	10.7670
 0.6830	10.8430
 0.6840	10.9310
 0.6850	11.0390
 0.6860	11.1670
 0.6870	11.3130
 0.6880	11.4970
 0.6890	11.7180
 0.6900	11.9790
 0.6910	12.2930
 0.6920	12.6650
 0.6930	13.0980
 0.6940	13.5940
 0.6950	14.1630
 0.6960	14.7950
 0.6970	15.4920
 0.6980	16.2560
 0.6990	17.0750
 0.7000	17.9410
 0.7010	18.8480
 0.7020	19.8000
 0.7030	20.7740
 0.7040	21.7700
 0.7050	22.7850
 0.7060	23.8060
 0.7070	24.8440
 0.7080	25.8880
 0.7090	26.9260
 0.7100	27.9750
 0.7110	29.0280
 0.7120	30.0780
 0.7130	31.1260
 0.7140	32.1660
 0.7150	33.2030
 0.7160	34.2350
 0.7170	35.2420
 0.7180	36.2390
 0.7190	37.2240
 0.7200	38.1880
 0.7210	39.1350
 0.7220	40.0590
 0.7230	40.9570
 0.7240	41.8310
 0.7250	42.6760
 0.7260	43.4900
 0.7270	44.2710
 0.7280	45.0150
 0.7290	45.7260
 0.7300	46.4060
 0.7310	47.0550
 0.7320	47.6760
 0.7330	48.2460
 0.7340	48.7720
 0.7350	49.2950
 0.7360	49.7810
 0.7370	50.2370
 0.7380	50.6710
 0.7390	51.0670
 0.7400	51.4380
 0.7410	51.7860
 0.7420	52.1090
 0.7430	52.4120
 0.7440	52.6830
 0.7450	52.9300
 0.7460	53.1710
 0.7470	53.3890
 0.7480	53.5800
 0.7490	53.7470
 0.7500	53.9060
 0.7510	54.0490
 0.7520	54.1710
 0.7530	54.2720
 0.7540	54.3890
 0.7550	54.4890
 0.7560	54.5620
 0.7570	54.6180
 0.7580	54.6950
 0.7590	54.7660
 0.7600	54.8140
 0.7610	54.8550
 0.7620	54.8960
 0.7630	54.9380
 0.7640	54.9750
 0.7650	54.9850
 0.7660	55.0000
 0.7670	55.0210
 0.7680	55.0240
 0.7690	55.0410
 0.7700	55.0600
 0.7710	55.0710
 0.7720	55.0810
 0.7730	55.0840
 0.7740	55.0900
 0.7750	55.1050
 0.7760	55.1130
 0.7770	55.1150
 0.7780	55.1160
 0.7790	55.1250
 0.7800	55.1310
 0.7810	55.1330
 0.7820	55.1340
 0.7830	55.1390
 0.7840	55.1400
 0.7850	55.1470
 0.7860	55.1640
 0.7870	55.1700
 0.7880	55.1750
 0.7890	55.1840
 0.7900	55.1980
 0.7910	55.2130
 0.7920	55.2120
 0.7930	55.2070
 0.7940	55.2270
 0.7950	55.2390
 0.7960	55.2410
 0.7970	55.2400
 0.7980	55.2430
 0.7990	55.2490
 0.8000	55.2550
 0.8010	55.2620
 0.8020	55.2720
 0.8030	55.2790
 0.8040	55.2850
 0.8050	55.2950
 0.8060	55.3080
 0.8070	55.3170
 0.8080	55.3170
 0.8090	55.3110
 0.8100	55.3240
 0.8110	55.3310
 0.8120	55.3240
 0.8130	55.3420
 0.8140	55.3490
 0.8150	55.3530
 0.8160	55.3670
 0.8170	55.3700
 0.8180	55.3800
 0.8190	55.3960
 0.8200	55.4030
 0.8210	55.4000
 0.8220	55.3970
 0.8230	55.4010
 0.8240	55.4150
 0.8250	55.4190
 0.8260	55.4200
 0.8270	55.4220
 0.8280	55.4280
 0.8290	55.4380
 0.8300	55.4420
 0.8310	55.4350
 0.8320	55.4460
 0.8330	55.4570
 0.8340	55.4600
 0.8350	55.4570
 0.8360	55.4620
 0.8370	55.4680
 0.8380	55.4750
 0.8390	55.4910
 0.8400	55.5050
 0.8410	55.5140
 0.8420	55.5240
 0.8430	55.5420
 0.8440	55.5510
 0.8450	55.5650
 0.8460	55.5890
 0.8470	55.5990
 0.8480	55.6080
 0.8490	55.6230
 0.8500	55.6430
 0.8510	55.6480
 0.8520	55.6470
 0.8530	55.6490
 0.8540	55.6620
 0.8550	55.6750
 0.8560	55.6910
 0.8570	55.7000
 0.8580	55.6910
 0.8590	55.7080
 0.8600	55.7310
 0.8610	55.7460
 0.8620	55.7550
 0.8630	55.7530
 0.8640	55.7520
 0.8650	55.7620
 0.8660	55.7650
 0.8670	55.7770
 0.8680	55.7910
 0.8690	55.7950
 0.8700	55.7960
 0.8710	55.7890
 0.8720	55.7850
 0.8730	55.8010
 0.8740	55.8140
 0.8750	55.8230
 0.8760	55.8240
 0.8770	55.8160
 0.8780	55.8190
 0.8790	55.8270
 0.8800	55.8300
 0.8810	55.8190
 0.8820	55.8250
 0.8830	55.8330
 0.8840	55.8320
 0.8850	55.8340
 0.8860	55.8310
 0.8870	55.8300
 0.8880	55.8340
 0.8890	55.8250
 0.8900	55.8160
 0.8910	55.8130
 0.8920	55.8160
 0.8930	55.8050
 0.8940	55.8050
 0.8950	55.8180
 0.8960	55.8240
 0.8970	55.8060
 0.8980	55.7920
 0.8990	55.7900
 0.9000	55.7890
 0.9010	55.7800
 0.9020	55.7720
 0.9030	55.7700
 0.9040	55.7700
 0.9050	55.7570
 0.9060	55.7400
 0.9070	55.7310
 0.9080	55.7340
 0.9090	55.7250
 0.9100	55.7170
 0.9110	55.7170
 0.9120	55.7030
 0.9130	55.6900
 0.9140	55.6840
 0.9150	55.6820
 0.9160	55.6720
 0.9170	55.6580
 0.9180	55.6380
 0.9190	55.6120
 0.9200	55.6060
 0.9210	55.6010
 0.9220	55.5880
 0.9230	55.5600
 0.9240	55.5380
 0.9250	55.5080
 0.9260	55.4770
 0.9270	55.4610
 0.9280	55.4230
 0.9290	55.3780
 0.9300	55.3350
 0.9310	55.2950
 0.9320	55.2710
 0.9330	55.2410
 0.9340	55.1930
 0.9350	55.1310
 0.9360	55.0850
 0.9370	55.0340
 0.9380	54.9730
 0.9390	54.9270
 0.9400	54.8790
 0.9410	54.8240
 0.9420	54.7620
 0.9430	54.7000
 0.9440	54.6300
 0.9450	54.5580
 0.9460	54.4820
 0.9470	54.3840
 0.9480	54.2900
 0.9490	54.2030
 0.9500	54.1140
 0.9510	53.9930
 0.9520	53.8780
 0.9530	53.7540
 0.9540	53.6070
 0.9550	53.4870
 0.9560	53.3660
 0.9570	53.2460
 0.9580	53.1350
 0.9590	53.0430
 0.9600	52.9430
 0.9610	52.8510
 0.9620	52.7880
 0.9630	52.7240
 0.9640	52.6630
 0.9650	52.6200
 0.9660	52.6060
 0.9670	52.5950
 0.9680	52.5490
 0.9690	52.5020
 0.9700	52.5000
 0.9710	52.4860
 0.9720	52.4750
 0.9730	52.4710
 0.9740	52.4690
 0.9750	52.4540
 0.9760	52.4460
 0.9770	52.4490
 0.9780	52.4560
 0.9790	52.4700
 0.9800	52.4790
 0.9810	52.4890
 0.9820	52.5140
 0.9830	52.5590
 0.9840	52.5880
 0.9850	52.6160
 0.9860	52.6680
 0.9870	52.6890
 0.9880	52.7120
 0.9890	52.7460
 0.9900	52.7910
 0.9910	52.8510
 0.9920	52.9000
 0.9930	52.9390
 0.9940	52.9850
 0.9950	53.0420
 0.9960	53.0940
 0.9970	53.1370
 0.9980	53.1810
 0.9990	53.2390
 1.0000	53.4230
 1.0010	53.6400
 1.0020	53.8040
 1.0030	53.8660
 1.0040	53.9250
 1.0050	53.9760
 1.0060	54.0300
 1.0070	54.0850
 1.0080	54.1390
 1.0090	54.1920
 1.0100	54.2450
 1.0110	54.2980
 1.0120	54.3510
 1.0130	54.4040
 1.0140	54.4590
 1.0150	54.5180
 1.0160	54.5720
 1.0170	54.6210
 1.0180	54.6770
 1.0190	54.7270
 1.0200	54.7730
 1.0210	54.8310
 1.0220	54.8870
 1.0230	54.9420
 1.0240	55.0030
 1.0250	55.0530
 1.0260	55.0980
 1.0270	55.1410
 1.0280	55.1750
 1.0290	55.2160
 1.0300	55.2590
 1.0310	55.3020
 1.0320	55.3500
 1.0330	55.3960
 1.0340	55.4390
 1.0350	55.4820
 1.0360	55.5180
 1.0370	55.5600
 1.0380	55.5970
 1.0390	55.6340
 1.0400	55.6660
 1.0410	55.6940
 1.0420	55.7250
 1.0430	55.7560
 1.0440	55.7850
 1.0450	55.8150
 1.0460	55.8440
 1.0470	55.8670
 1.0480	55.8960
 1.0490	55.9330
 1.0500	55.9600
 1.0510	55.9830
 1.0520	56.0100
 1.0530	56.0300
 1.0540	56.0430
 1.0550	56.0620
 1.0560	56.0830
 1.0570	56.1020
 1.0580	56.1240
 1.0590	56.1400
 1.0600	56.1510
 1.0610	56.1660
 1.0620	56.1810
 1.0630	56.1960
 1.0640	56.2130
 1.0650	56.2280
 1.0660	56.2420
 1.0670	56.2530
 1.0680	56.2630
 1.0690	56.2740
 1.0700	56.2790
 1.0710	56.2780
 1.0720	56.2810
 1.0730	56.2830
 1.0740	56.2820
 1.0750	56.2790
 1.0760	56.2780
 1.0770	56.2760
 1.0780	56.2750
 1.0790	56.2810
 1.0800	56.2800
 1.0810	56.2740
 1.0820	56.2670
 1.0830	56.2550
 1.0840	56.2460
 1.0850	56.2330
 1.0860	56.2290
 1.0870	56.2200
 1.0880	56.2140
 1.0890	56.2000
 1.0900	56.1830
 1.0910	56.1670
 1.0920	56.1440
 1.0930	56.1270
 1.0940	56.1160
 1.0950	56.0990
 1.0960	56.0810
 1.0970	56.0610
 1.0980	56.0350
 1.0990	56.0110
 1.1000	55.9860
 1.1010	55.9600
 1.1020	55.9350
 1.1030	55.9080
 1.1040	55.8790
 1.1050	55.8490
 1.1060	55.8210
 1.1070	55.7940
 1.1080	55.7630
 1.1090	55.7330
 1.1100	55.7030
 1.1110	55.6700
 1.1120	55.6350
 1.1130	55.6040
 1.1140	55.5670
 1.1150	55.5260
 1.1160	55.4810
 1.1170	55.4340
 1.1180	55.3800
 1.1190	55.3240
 1.1200	55.2580
 1.1210	55.1880
 1.1220	55.1160
 1.1230	55.0340
 1.1240	54.9460
 1.1250	54.8490
 1.1260	54.7460
 1.1270	54.6290
 1.1280	54.5040
 1.1290	54.3660
 1.1300	54.2190
 1.1310	54.0530
 1.1320	53.8740
 1.1330	53.6810
 1.1340	53.4690
 1.1350	53.2490
 1.1360	53.0170
 1.1370	52.7730
 1.1380	52.5210
 1.1390	52.2600
 1.1400	51.9880
 1.1410	51.7150
 1.1420	51.4360
 1.1430	51.1530
 1.1440	50.8770
 1.1450	50.5980
 1.1460	50.3300
 1.1470	50.0650
 1.1480	49.8140
 1.1490	49.5680
 1.1500	49.3420
 1.1510	49.1270
 1.1520	48.9310
 1.1530	48.7490
 1.1540	48.5850
 1.1550	48.4360
 1.1560	48.3030
 1.1570	48.1860
 1.1580	48.0830
 1.1590	47.9930
 1.1600	47.9130
 1.1610	47.8420
 1.1620	47.7820
 1.1630	47.7290
 1.1640	47.6820
 1.1650	47.6410
 1.1660	47.6080
 1.1670	47.5780
 1.1680	47.5550
 1.1690	47.5340
 1.1700	47.5180
 1.1710	47.5020
 1.1720	47.4910
 1.1730	47.4750
 1.1740	47.4560
 1.1750	47.4380
 1.1760	47.4190
 1.1770	47.3980
 1.1780	47.3770
 1.1790	47.3560
 1.1800	47.3350
 1.1810	47.3110
 1.1820	47.2880
 1.1830	47.2650
 1.1840	47.2380
 1.1850	47.2130
 1.1860	47.1890
 1.1870	47.1660
 1.1880	47.1450
 1.1890	47.1240
 1.1900	47.1080
 1.1910	47.0930
 1.1920	47.0820
 1.1930	47.0770
 1.1940	47.0710
 1.1950	47.0680
 1.1960	47.0640
 1.1970	47.0650
 1.1980	47.0690
 1.1990	47.0790
 1.2000	47.0950
 1.2010	47.1120
 1.2020	47.1310
 1.2030	47.1540
 1.2040	47.1800
 1.2050	47.2120
 1.2060	47.2470
 1.2070	47.2850
 1.2080	47.3250
 1.2090	47.3680
 1.2100	47.4140
 1.2110	47.4600
 1.2120	47.5080
 1.2130	47.5580
 1.2140	47.6090
 1.2150	47.6640
 1.2160	47.7220
 1.2170	47.7820
 1.2180	47.8410
 1.2190	47.8990
 1.2200	47.9570
 1.2210	48.0160
 1.2220	48.0780
 1.2230	48.1400
 1.2240	48.2030
 1.2250	48.2640
 1.2260	48.3210
 1.2270	48.3780
 1.2280	48.4350
 1.2290	48.4920
 1.2300	48.5470
 1.2310	48.6020
 1.2320	48.6560
 1.2330	48.7050
 1.2340	48.7540
 1.2350	48.8020
 1.2360	48.8500
 1.2370	48.8950
 1.2380	48.9420
 1.2390	48.9870
 1.2400	49.0310
 1.2410	49.0740
 1.2420	49.1140
 1.2430	49.1550
 1.2440	49.1930
 1.2450	49.2290
 1.2460	49.2650
 1.2470	49.2970
 1.2480	49.3290
 1.2490	49.3620
 1.2500	49.3910
 1.2510	49.4210
 1.2520	49.4510
 1.2530	49.4770
 1.2540	49.5030
 1.2550	49.5260
 1.2560	49.5440
 1.2570	49.5600
 1.2580	49.5750
 1.2590	49.5890
 1.2600	49.6000
 1.2610	49.6120
 1.2620	49.6240
 1.2630	49.6330
 1.2640	49.6410
 1.2650	49.6480
 1.2660	49.6510
 1.2670	49.6540
 1.2680	49.6560
 1.2690	49.6560
 1.2700	49.6530
 1.2710	49.6480
 1.2720	49.6390
 1.2730	49.6290
 1.2740	49.6170
 1.2750	49.6030
 1.2760	49.5830
 1.2770	49.5620
 1.2780	49.5410
 1.2790	49.5170
 1.2800	49.4910
 1.2810	49.4650
 1.2820	49.4330
 1.2830	49.3990
 1.2840	49.3640
 1.2850	49.3250
 1.2860	49.2810
 1.2870	49.2350
 1.2880	49.1870
 1.2890	49.1340
 1.2900	49.0770
 1.2910	49.0170
 1.2920	48.9540
 1.2930	48.8870
 1.2940	48.8170
 1.2950	48.7430
 1.2960	48.6610
 1.2970	48.5760
 1.2980	48.4890
 1.2990	48.3960
 1.3000	48.3010
 1.3010	48.2020
 1.3020	48.0950
 1.3030	47.9860
 1.3040	47.8720
 1.3050	47.7540
 1.3060	47.6330
 1.3070	47.5060
 1.3080	47.3750
 1.3090	47.2370
 1.3100	47.0920
 1.3110	46.9400
 1.3120	46.7800
 1.3130	46.6190
 1.3140	46.4510
 1.3150	46.2780
 1.3160	46.0990
 1.3170	45.9170
 1.3180	45.7270
 1.3190	45.5300
 1.3200	45.3320
 1.3210	45.1280
 1.3220	44.9230
 1.3230	44.7140
 1.3240	44.5010
 1.3250	44.2850
 1.3260	44.0630
 1.3270	43.8350
 1.3280	43.6070
 1.3290	43.3740
 1.3300	43.1390
 1.3310	42.9020
 1.3320	42.6630
 1.3330	42.4230
 1.3340	42.1840
 1.3350	41.9460
 1.3360	41.7080
 1.3370	41.4680
 1.3380	41.2280
 1.3390	40.9920
 1.3400	40.7570
 1.3410	40.5280
 1.3420	40.3040
 1.3430	40.0810
 1.3440	39.8610
 1.3450	39.6430
 1.3460	39.4250
 1.3470	39.2150
 1.3480	39.0080
 1.3490	38.8040
 1.3500	38.6060
 1.3510	38.4100
 1.3520	38.2130
 1.3530	38.0200
 1.3540	37.8260
 1.3550	37.6350
 1.3560	37.4440
 1.3570	37.2510
 1.3580	37.0560
 1.3590	36.8570
 1.3600	36.6510
 1.3610	36.4400
 1.3620	36.2200
 1.3630	35.9940
 1.3640	35.7620
 1.3650	35.5180
 1.3660	35.2680
 1.3670	35.0050
 1.3680	34.7240
 1.3690	34.4320
 1.3700	34.1210
 1.3710	33.7960
 1.3720	33.4550
 1.3730	33.0940
 1.3740	32.7200
 1.3750	32.3250
 1.3760	31.9070
 1.3770	31.4680
 1.3780	31.0020
 1.3790	30.5130
 1.3800	30.0050
 1.3810	29.4740
 1.3820	28.9300
 1.3830	28.3690
 1.3840	27.7950
 1.3850	27.2030
 1.3860	26.6080
 1.3870	25.9980
 1.3880	25.3960
 1.3890	24.7920
 1.3900	24.1890
 1.3910	23.5990
 1.3920	23.0130
 1.3930	22.4360
 1.3940	21.8740
 1.3950	21.3210
 1.3960	20.7860
 1.3970	20.2720
 1.3980	19.7770
 1.3990	19.3100
 1.4000	18.8630
 1.4010	18.4370
 1.4020	18.0370
 1.4030	17.6570
 1.4040	17.3010
 1.4050	16.9690
 1.4060	16.6580
 1.4070	16.3720
 1.4080	16.1040
 1.4090	15.8540
 1.4100	15.6250
 1.4110	15.4120
 1.4120	15.2170
 1.4130	15.0370
 1.4140	14.8720
 1.4150	14.7220
 1.4160	14.5850
 1.4170	14.4600
 1.4180	14.3470
 1.4190	14.2430
 1.4200	14.1480
 1.4210	14.0610
 1.4220	13.9810
 1.4230	13.9090
 1.4240	13.8440
 1.4250	13.7860
 1.4260	13.7340
 1.4270	13.6870
 1.4280	13.6470
 1.4290	13.6100
 1.4300	13.5780
 1.4310	13.5510
 1.4320	13.5290
 1.4330	13.5090
 1.4340	13.4920
 1.4350	13.4790
 1.4360	13.4700
 1.4370	13.4630
 1.4380	13.4580
 1.4390	13.4570
 1.4400	13.4560
 1.4410	13.4570
 1.4420	13.4610
 1.4430	13.4660
 1.4440	13.4740
 1.4450	13.4840
 1.4460	13.4940
 1.4470	13.5060
 1.4480	13.5170
 1.4490	13.5280
 1.4500	13.5410
 1.4510	13.5540
 1.4520	13.5690
 1.4530	13.5850
 1.4540	13.6020
 1.4550	13.6210
 1.4560	13.6400
 1.4570	13.6620
 1.4580	13.6870
 1.4590	13.7130
 1.4600	13.7430
 1.4610	13.7750
 1.4620	13.8100
 1.4630	13.8480
 1.4640	13.8880
 1.4650	13.9320
 1.4660	13.9770
 1.4670	14.0260
 1.4680	14.0790
 1.4690	14.1350
 1.4700	14.1950
 1.4710	14.2580
 1.4720	14.3240
 1.4730	14.3910
 1.4740	14.4620
 1.4750	14.5350
 1.4760	14.6110
 1.4770	14.6890
 1.4780	14.7680
 1.4790	14.8500
 1.4800	14.9330
 1.4810	15.0190
 1.4820	15.1050
 1.4830	15.1930
 1.4840	15.2850
 1.4850	15.3770
 1.4860	15.4710
 1.4870	15.5670
 1.4880	15.6600
 1.4890	15.7550
 1.4900	15.8520
 1.4910	15.9510
 1.4920	16.0510
 1.4930	16.1530
 1.4940	16.2540
 1.4950	16.3550
 1.4960	16.4570
 1.4970	16.5580
 1.4980	16.6610
 1.4990	16.7640
 1.5000	16.8690
 1.5010	16.9760
 1.5020	17.0810
 1.5030	17.1870
 1.5040	17.2940
 1.5050	17.4000
 1.5060	17.5060
 1.5070	17.6140
 1.5080	17.7210
 1.5090	17.8280
 1.5100	17.9360
 1.5110	18.0440
 1.5120	18.1520
 1.5130	18.2580
 1.5140	18.3660
 1.5150	18.4730
 1.5160	18.5800
 1.5170	18.6880
 1.5180	18.7940
 1.5190	18.9000
 1.5200	19.0060
 1.5210	19.1090
 1.5220	19.2130
 1.5230	19.3180
 1.5240	19.4200
 1.5250	19.5250
 1.5260	19.6290
 1.5270	19.7320
 1.5280	19.8380
 1.5290	19.9410
 1.5300	20.0440
 1.5310	20.1470
 1.5320	20.2470
 1.5330	20.3480
 1.5340	20.4470
 1.5350	20.5460
 1.5360	20.6460
 1.5370	20.7440
 1.5380	20.8430
 1.5390	20.9430
 1.5400	21.0410
 1.5410	21.1400
 1.5420	21.2370
 1.5430	21.3320
 1.5440	21.4290
 1.5450	21.5240
 1.5460	21.6200
 1.5470	21.7160
 1.5480	21.8100
 1.5490	21.9060
 1.5500	22.0010
 1.5510	22.0940
 1.5520	22.1890
 1.5530	22.2800
 1.5540	22.3720
 1.5550	22.4650
 1.5560	22.5570
 1.5570	22.6470
 1.5580	22.7370
 1.5590	22.8240
 1.5600	22.9110
 1.5610	22.9980
 1.5620	23.0850
 1.5630	23.1720
 1.5640	23.2590
 1.5650	23.3450
 1.5660	23.4310
 1.5670	23.5150
 1.5680	23.5980
 1.5690	23.6800
 1.5700	23.7610
 1.5710	23.8430
 1.5720	23.9240
 1.5730	24.0070
 1.5740	24.0900
 1.5750	24.1710
 1.5760	24.2520
 1.5770	24.3310
 1.5780	24.4080
 1.5790	24.4870
 1.5800	24.5650
 1.5810	24.6430
 1.5820	24.7220
 1.5830	24.8000
 1.5840	24.8780
 1.5850	24.9540
 1.5860	25.0290
 1.5870	25.1050
 1.5880	25.1830
 1.5890	25.2630
 1.5900	25.3390
 1.5910	25.4130
 1.5920	25.4870
 1.5930	25.5580
 1.5940	25.6330
 1.5950	25.7080
 1.5960	25.7820
 1.5970	25.8550
 1.5980	25.9270
 1.5990	25.9980
 1.6000	26.0700
 1.6010	26.1400
 1.6020	26.2100
 1.6030	26.2810
 1.6040	26.3490
 1.6050	26.4180
 1.6060	26.4860
 1.6070	26.5540
 1.6080	26.6230
 1.6090	26.6890
 1.6100	26.7530
 1.6110	26.8190
 1.6120	26.8810
 1.6130	26.9430
 1.6140	27.0050
 1.6150	27.0650
 1.6160	27.1240
 1.6170	27.1830
 1.6180	27.2420
 1.6190	27.2990
 1.6200	27.3530
 1.6210	27.4080
 1.6220	27.4610
 1.6230	27.5100
 1.6240	27.5600
 1.6250	27.6070
 1.6260	27.6550
 1.6270	27.7030
 1.6280	27.7480
 1.6290	27.7930
 1.6300	27.8360
 1.6310	27.8780
 1.6320	27.9210
 1.6330	27.9600
 1.6340	27.9980
 1.6350	28.0360
 1.6360	28.0720
 1.6370	28.1070
 1.6380	28.1400
 1.6390	28.1730
 1.6400	28.2060
 1.6410	28.2370
 1.6420	28.2670
 1.6430	28.2950
 1.6440	28.3210
 1.6450	28.3460
 1.6460	28.3710
 1.6470	28.3940
 1.6480	28.4120
 1.6490	28.4280
 1.6500	28.4400
 1.6510	28.4460
 1.6520	28.4510
 1.6530	28.4530
 1.6540	28.4520
 1.6550	28.4510
 1.6560	28.4450
 1.6570	28.4390
 1.6580	28.4340
 1.6590	28.4280
 1.6600	28.4220
 1.6610	28.4130
 1.6620	28.4050
 1.6630	28.3970
 1.6640	28.3890
 1.6650	28.3860
 1.6660	28.3800
 1.6670	28.3720
 1.6680	28.3660
 1.6690	28.3590
 1.6700	28.3510
 1.6710	28.3460
 1.6720	28.3380
 1.6730	28.3260
 1.6740	28.3140
 1.6750	28.2990
 1.6760	28.2820
 1.6770	28.2660
 1.6780	28.2490
 1.6790	28.2290
 1.6800	28.2060
 1.6810	28.1780
 1.6820	28.1470
 1.6830	28.1160
 1.6840	28.0830
 1.6850	28.0470
 1.6860	28.0090
 1.6870	27.9690
 1.6880	27.9270
 1.6890	27.8840
 1.6900	27.8390
 1.6910	27.7880
 1.6920	27.7390
 1.6930	27.6860
 1.6940	27.6350
 1.6950	27.5850
 1.6960	27.5320
 1.6970	27.4790
 1.6980	27.4250
 1.6990	27.3710
 1.7000	27.3160
 1.7010	27.2620
 1.7020	27.2050
 1.7030	27.1460
 1.7040	27.0870
 1.7050	27.0270
 1.7060	26.9650
 1.7070	26.9020
 1.7080	26.8370
 1.7090	26.7690
 1.7100	26.7040
 1.7110	26.6400
 1.7120	26.5760
 1.7130	26.5120
 1.7140	26.4490
 1.7150	26.3870
 1.7160	26.3280
 1.7170	26.2710
 1.7180	26.2120
 1.7190	26.1530
 1.7200	26.0940
 1.7210	26.0340
 1.7220	25.9790
 1.7230	25.9250
 1.7240	25.8720
 1.7250	25.8200
 1.7260	25.7670
 1.7270	25.7120
 1.7280	25.6590
 1.7290	25.6090
 1.7300	25.5620
 1.7310	25.5130
 1.7320	25.4660
 1.7330	25.4180
 1.7340	25.3700
 1.7350	25.3200
 1.7360	25.2710
 1.7370	25.2190
 1.7380	25.1650
 1.7390	25.1080
 1.7400	25.0440
 1.7410	24.9810
 1.7420	24.9160
 1.7430	24.8520
 1.7440	24.7880
 1.7450	24.7210
 1.7460	24.6490
 1.7470	24.5800
 1.7480	24.5090
 1.7490	24.4380
 1.7500	24.3700
 1.7510	24.2990
 1.7520	24.2270
 1.7530	24.1580
 1.7540	24.0910
 1.7550	24.0260
 1.7560	23.9630
 1.7570	23.9030
 1.7580	23.8430
 1.7590	23.7850
 1.7600	23.7290
 1.7610	23.6730
 1.7620	23.6190
 1.7630	23.5690
 1.7640	23.5200
 1.7650	23.4740
 1.7660	23.4270
 1.7670	23.3790
 1.7680	23.3340
 1.7690	23.2890
 1.7700	23.2470
 1.7710	23.2070
 1.7720	23.1690
 1.7730	23.1340
 1.7740	23.0980
 1.7750	23.0640
 1.7760	23.0300
 1.7770	22.9940
 1.7780	22.9610
 1.7790	22.9290
 1.7800	22.9000
 1.7810	22.8750
 1.7820	22.8510
 1.7830	22.8300
 1.7840	22.8100
 1.7850	22.7910
 1.7860	22.7750
 1.7870	22.7630
 1.7880	22.7510
 1.7890	22.7390
 1.7900	22.7260
 1.7910	22.7150
 1.7920	22.7050
 1.7930	22.6980
 1.7940	22.6940
 1.7950	22.6920
 1.7960	22.6930
 1.7970	22.6930
 1.7980	22.6940
 1.7990	22.6950
 1.8000	22.6950
 1.8010	22.6950
 1.8020	22.6960
 1.8030	22.6970
 1.8040	22.7000
 1.8050	22.7010
 1.8060	22.7000
 1.8070	22.7030
 1.8080	22.7070
 1.8090	22.7120
 1.8100	22.7220
 1.8110	22.7260
 1.8120	22.7290
 1.8130	22.7310
 1.8140	22.7300
 1.8150	22.7300
 1.8160	22.7300
 1.8170	22.7270
 1.8180	22.7220
 1.8190	22.7190
 1.8200	22.7140
 1.8210	22.7090
 1.8220	22.7020
 1.8230	22.6950
 1.8240	22.6840
 1.8250	22.6700
 1.8260	22.6580
 1.8270	22.6430
 1.8280	22.6290
 1.8290	22.6200
 1.8300	22.7130
 1.8310	22.9340
 1.8320	23.0160
 1.8330	22.9880
 1.8340	22.9570
 1.8350	22.9200
 1.8360	22.8790
 1.8370	22.8320
 1.8380	22.7780
 1.8390	22.7210
 1.8400	22.6600
 1.8410	22.5910
 1.8420	22.5150
 1.8430	22.4380
 1.8440	22.3530
 1.8450	22.2580
 1.8460	22.1610
 1.8470	22.0540
 1.8480	21.9350
 1.8490	21.8100
 1.8500	21.6740
 1.8510	21.5280
 1.8520	21.3730
 1.8530	21.2110
 1.8540	21.0370
 1.8550	20.8510
 1.8560	20.6560
 1.8570	20.4490
 1.8580	20.2310
 1.8590	20.0080
 1.8600	19.7760
 1.8610	19.5340
 1.8620	19.2780
 1.8630	19.0160
 1.8640	18.7390
 1.8650	18.4500
 1.8660	18.1530
 1.8670	17.8400
 1.8680	17.5180
 1.8690	17.1890
 1.8700	16.8540
 1.8710	16.5120
 1.8720	16.1720
 1.8730	15.8280
 1.8740	15.4790
 1.8750	15.1330
 1.8760	14.7830
 1.8770	14.4380
 1.8780	14.1040
 1.8790	13.7730
 1.8800	13.4540
 1.8810	13.1440
 1.8820	12.8400
 1.8830	12.5430
 1.8840	12.2590
 1.8850	11.9840
 1.8860	11.7230
 1.8870	11.4770
 1.8880	11.2430
 1.8890	11.0240
 1.8900	10.8190
 1.8910	10.6250
 1.8920	10.4430
 1.8930	10.2730
 1.8940	10.1160
 1.8950	 9.9730
 1.8960	 9.8410
 1.8970	 9.7200
 1.8980	 9.6090
 1.8990	 9.5060
 1.9000	 9.4130
 1.9010	 9.3320
 1.9020	 9.2560
 1.9030	 9.1880
 1.9040	 9.1270
 1.9050	 9.0720
 1.9060	 9.0210
 1.9070	 8.9800
 1.9080	 8.9460
 1.9090	 8.9110
 1.9100	 8.8810
 1.9110	 8.8530
 1.9120	 8.8250
 1.9130	 8.8020
 1.9140	 8.7830
 1.9150	 8.7680
 1.9160	 8.7520
 1.9170	 8.7400
 1.9180	 8.7300
 1.9190	 8.7200
 1.9200	 8.7130
 1.9210	 8.7060
 1.9220	 8.7000
 1.9230	 8.6960
 1.9240	 8.6930
 1.9250	 8.6920
 1.9260	 8.6940
 1.9270	 8.6970
 1.9280	 8.7000
 1.9290	 8.7000
 1.9300	 8.7060
 1.9310	 8.7110
 1.9320	 8.7140
 1.9330	 8.7230
 1.9340	 8.7360
 1.9350	 8.7460
 1.9360	 8.7610
 1.9370	 8.7720
 1.9380	 8.7810
 1.9390	 8.7890
 1.9400	 8.7980
 1.9410	 8.8070
 1.9420	 8.8200
 1.9430	 8.8350
 1.9440	 8.8490
 1.9450	 8.8650
 1.9460	 8.8800
 1.9470	 8.8950
 1.9480	 8.9110
 1.9490	 8.9290
 1.9500	 8.9480
 1.9510	 8.9710
 1.9520	 8.9910
 1.9530	 9.0110
 1.9540	 9.0320
 1.9550	 9.0520
 1.9560	 9.0720
 1.9570	 9.0920
 1.9580	 9.1110
 1.9590	 9.1310
 1.9600	 9.1510
 1.9610	 9.1720
 1.9620	 9.1940
 1.9630	 9.2190
 1.9640	 9.2450
 1.9650	 9.2710
 1.9660	 9.2970
 1.9670	 9.3230
 1.9680	 9.3490
 1.9690	 9.3730
 1.9700	 9.3970
 1.9710	 9.4220
 1.9720	 9.4470
 1.9730	 9.4700
 1.9740	 9.4970
 1.9750	 9.5240
 1.9760	 9.5500
 1.9770	 9.5800
 1.9780	 9.6100
 1.9790	 9.6410
 1.9800	 9.6750
 1.9810	 9.7050
 1.9820	 9.7330
 1.9830	 9.7630
 1.9840	 9.7910
 1.9850	 9.8210
 1.9860	 9.8510
 1.9870	 9.8840
 1.9880	 9.9190
 1.9890	 9.9530
 1.9900	 9.9910
 1.9910	10.0280
 1.9920	10.0600
 1.9930	10.0870
 1.9940	10.1190
 1.9950	10.1470
 1.9960	10.1810
 1.9970	10.2210
 1.9980	10.2580
 1.9990	10.2950
 2.0000	10.3320
 2.0010	10.3670
 2.0020	10.4020
 2.0030	10.4350
 2.0040	10.4680
 2.0050	10.5040
 2.0060	10.5420
 2.0070	10.5780
 2.0080	10.6160
 2.0090	10.6510
 2.0100	10.6810
 2.0110	10.7150
 2.0120	10.7490
 2.0130	10.7840
 2.0140	10.8230
 2.0150	10.8600
 2.0160	10.8920
 2.0170	10.9220
 2.0180	10.9540
 2.0190	10.9810
 2.0200	11.0130
 2.0210	11.0500
 2.0220	11.0840
 2.0230	11.1150
 2.0240	11.1480
 2.0250	11.1820
 2.0260	11.2150
 2.0270	11.2480
 2.0280	11.2790
 2.0290	11.3080
 2.0300	11.3350
 2.0310	11.3630
 2.0320	11.3900
 2.0330	11.4170
 2.0340	11.4430
 2.0350	11.4710
 2.0360	11.5000
 2.0370	11.5280
 2.0380	11.5550
 2.0390	11.5820
 2.0400	11.6090
 2.0410	11.6350
 2.0420	11.6590
 2.0430	11.6860
 2.0440	11.7100
 2.0450	11.7340
 2.0460	11.7570
 2.0470	11.7820
 2.0480	11.8030
 2.0490	11.8220
 2.0500	11.8430
 2.0510	11.8610
 2.0520	11.8830
 2.0530	11.9100
 2.0540	11.9340
 2.0550	11.9610
 2.0560	11.9860
 2.0570	12.0050
 2.0580	12.0270
 2.0590	12.0510
 2.0600	12.0750
 2.0610	12.0980
 2.0620	12.1230
 2.0630	12.1460
 2.0640	12.1660
 2.0650	12.1880
 2.0660	12.2090
 2.0670	12.2310
 2.0680	12.2530
 2.0690	12.2750
 2.0700	12.3020
 2.0710	12.3240
 2.0720	12.3430
 2.0730	12.3600
 2.0740	12.3800
 2.0750	12.3990
 2.0760	12.4200
 2.0770	12.4440
 2.0780	12.4650
 2.0790	12.4840
 2.0800	12.5050
 2.0810	12.5260
 2.0820	12.5490
 2.0830	12.5740
 2.0840	12.5980
 2.0850	12.6240
 2.0860	12.6470
 2.0870	12.6680
 2.0880	12.6880
 2.0890	12.7100
 2.0900	12.7310
 2.0910	12.7530
 2.0920	12.7770
 2.0930	12.7990
 2.0940	12.8210
 2.0950	12.8440
 2.0960	12.8680
 2.0970	12.8920
 2.0980	12.9170
 2.0990	12.9400
 2.1000	12.9620
 2.1010	12.9850
 2.1020	13.0080
 2.1030	13.0330
 2.1040	13.0620
 2.1050	13.0900
 2.1060	13.1160
 2.1070	13.1420
 2.1080	13.1670
 2.1090	13.1880
 2.1100	13.2110
 2.1110	13.2340
 2.1120	13.2580
 2.1130	13.2830
 2.1140	13.3060
 2.1150	13.3290
 2.1160	13.3520
 2.1170	13.3740
 2.1180	13.3970
 2.1190	13.4230
 2.1200	13.4480
 2.1210	13.4760
 2.1220	13.5010
 2.1230	13.5260
 2.1240	13.5520
 2.1250	13.5740
 2.1260	13.5930
 2.1270	13.6140
 2.1280	13.6320
 2.1290	13.6520
 2.1300	13.6730
 2.1310	13.6940
 2.1320	13.7140
 2.1330	13.7370
 2.1340	13.7640
 2.1350	13.7870
 2.1360	13.8080
 2.1370	13.8290
 2.1380	13.8440
 2.1390	13.8640
 2.1400	13.8870
 2.1410	13.9120
 2.1420	13.9350
 2.1430	13.9620
 2.1440	13.9830
 2.1450	14.0000
 2.1460	14.0190
 2.1470	14.0390
 2.1480	14.0570
 2.1490	14.0740
 2.1500	14.0940
 2.1510	14.1130
 2.1520	14.1330
 2.1530	14.1610
 2.1540	14.1820
 2.1550	14.1960
 2.1560	14.2150
 2.1570	14.2320
 2.1580	14.2500
 2.1590	14.2730
 2.1600	14.2950
 2.1610	14.3120
 2.1620	14.3270
 2.1630	14.3430
 2.1640	14.3590
 2.1650	14.3740
 2.1660	14.3910
 2.1670	14.4070
 2.1680	14.4210
 2.1690	14.4370
 2.1700	14.4550
 2.1710	14.4720
 2.1720	14.4910
 2.1730	14.5080
 2.1740	14.5260
 2.1750	14.5420
 2.1760	14.5520
 2.1770	14.5680
 2.1780	14.5880
 2.1790	14.6040
 2.1800	14.6220
 2.1810	14.6380
 2.1820	14.6500
 2.1830	14.6590
 2.1840	14.6720
 2.1850	14.6840
 2.1860	14.6990
 2.1870	14.7150
 2.1880	14.7320
 2.1890	14.7530
 2.1900	14.7690
 2.1910	14.7850
 2.1920	14.7980
 2.1930	14.8040
 2.1940	14.8180
 2.1950	14.8350
 2.1960	14.8480
 2.1970	14.8620
 2.1980	14.8730
 2.1990	14.8760
 2.2000	14.8850
 2.2010	14.9000
 2.2020	14.9110
 2.2030	14.9240
 2.2040	14.9360
 2.2050	14.9460
 2.2060	14.9590
 2.2070	14.9670
 2.2080	14.9760
 2.2090	14.9830
 2.2100	14.9860
 2.2110	14.9900
 2.2120	14.9950
 2.2130	14.9990
 2.2140	15.0040
 2.2150	15.0070
 2.2160	15.0100
 2.2170	15.0120
 2.2180	15.0120
 2.2190	15.0120
 2.2200	15.0140
 2.2210	15.0110
 2.2220	15.0020
 2.2230	14.9950
 2.2240	14.9890
 2.2250	14.9800
 2.2260	14.9730
 2.2270	14.9620
 2.2280	14.9450
 2.2290	14.9260
 2.2300	14.9020
 2.2310	14.8770
 2.2320	14.8500
 2.2330	14.8190
 2.2340	14.7920
 2.2350	14.7650
 2.2360	14.7380
 2.2370	14.7140
 2.2380	14.6860
 2.2390	14.6580
 2.2400	14.6260
 2.2410	14.5890
 2.2420	14.5540
 2.2430	14.5160
 2.2440	14.4800
 2.2450	14.4460
 2.2460	14.4080
 2.2470	14.3680
 2.2480	14.3270
 2.2490	14.2790
 2.2500	14.2370
 2.2510	14.1990
 2.2520	14.1580
 2.2530	14.1230
 2.2540	14.0780
 2.2550	14.0230
 2.2560	13.9720
 2.2570	13.9160
 2.2580	13.8620
 2.2590	13.8120
 2.2600	13.7610
 2.2610	13.7070
 2.2620	13.6550
 2.2630	13.6050
 2.2640	13.5580
 2.2650	13.5220
 2.2660	13.4830
 2.2670	13.4430
 2.2680	13.4080
 2.2690	13.3690
 2.2700	13.3230
 2.2710	13.2880
 2.2720	13.2590
 2.2730	13.2280
 2.2740	13.2030
 2.2750	13.1720
 2.2760	13.1350
 2.2770	13.1070
 2.2780	13.0820
 2.2790	13.0550
 2.2800	13.0340
 2.2810	13.0080
 2.2820	12.9780
 2.2830	12.9510
 2.2840	12.9310
 2.2850	12.9020
 2.2860	12.8670
 2.2870	12.8360
 2.2880	12.8010
 2.2890	12.7690
 2.2900	12.7460
 2.2910	12.7150
 2.2920	12.6790
 2.2930	12.6450
 2.2940	12.6100
 2.2950	12.5750
 2.2960	12.5350
 2.2970	12.5020
 2.2980	12.4710
 2.2990	12.4410
 2.3000	12.4130
 2.3010	12.3880
 2.3020	12.3630
 2.3030	12.3320
 2.3040	12.3030
 2.3050	12.2790
 2.3060	12.2530
 2.3070	12.2270
 2.3080	12.2060
 2.3090	12.1890
 2.3100	12.1730
 2.3110	12.1660
 2.3120	12.1600
 2.3130	12.1640
 2.3140	12.1550
 2.3150	12.1420
 2.3160	12.1310
 2.3170	12.1150
 2.3180	12.1050
 2.3190	12.1040
 2.3200	12.0950
 2.3210	12.0840
 2.3220	12.0720
 2.3230	12.0590
 2.3240	12.0420
 2.3250	12.0200
 2.3260	12.0000
 2.3270	11.9790
 2.3280	11.9570
 2.3290	11.9380
 2.3300	11.9160
 2.3310	11.8880
 2.3320	11.8660
 2.3330	11.8500
 2.3340	11.8260
 2.3350	11.8010
 2.3360	11.7740
 2.3370	11.7400
 2.3380	11.7080
 2.3390	11.6770
 2.3400	11.6470
 2.3410	11.6170
 2.3420	11.5920
 2.3430	11.5730
 2.3440	11.5510
 2.3450	11.5290
 2.3460	11.5080
 2.3470	11.4870
 2.3480	11.4710
 2.3490	11.4590
 2.3500	11.4470
 2.3510	11.4390
 2.3520	11.4260
 2.3530	11.4120
 2.3540	11.4030
 2.3550	11.3800
 2.3560	11.3580
 2.3570	11.3420
 2.3580	11.3140
 2.3590	11.2930
 2.3600	11.2840
 2.3610	11.2710
 2.3620	11.2560
 2.3630	11.2440
 2.3640	11.2240
 2.3650	11.2000
 2.3660	11.1770
 2.3670	11.1540
 2.3680	11.1310
 2.3690	11.1110
 2.3700	11.0930
 2.3710	11.0790
 2.3720	11.0610
 2.3730	11.0430
 2.3740	11.0250
 2.3750	11.0000
 2.3760	10.9830
 2.3770	10.9620
 2.3780	10.9410
 2.3790	10.9320
 2.3800	10.9110
 2.3810	10.8780
 2.3820	10.8450
 2.3830	10.8310
 2.3840	10.8210
 2.3850	10.8200
 2.3860	10.8240
 2.3870	10.7960
 2.3880	10.7720
 2.3890	10.7530
 2.3900	10.7260
 2.3910	10.7150
 2.3920	10.6990
 2.3930	10.6880
 2.3940	10.6870
 2.3950	10.6630
 2.3960	10.6420
 2.3970	10.6140
 2.3980	10.5860
 2.3990	10.5830
 2.4000	10.5700
 2.4010	10.5600
 2.4020	10.5500
 2.4030	10.5150
 2.4040	10.4950
 2.4050	10.4780
 2.4060	10.4490
 2.4070	10.4430
 2.4080	10.4280
 2.4090	10.4030
 2.4100	10.3840
 2.4110	10.3540
 2.4120	10.3300
 2.4130	10.3170
 2.4140	10.3000
 2.4150	10.2840
 2.4160	10.2650
 2.4170	10.2310
 2.4180	10.2050
 2.4190	10.1880
 2.4200	10.1640
 2.4210	10.1540
 2.4220	10.1330
 2.4230	10.1040
 2.4240	10.0980
 2.4250	10.0730
 2.4260	10.0500
 2.4270	10.0430
 2.4280	10.0110
 2.4290	 9.9830
 2.4300	 9.9610
 2.4310	 9.9360
 2.4320	 9.9120
 2.4330	 9.8900
 2.4340	 9.8760
 2.4350	 9.8510
 2.4360	 9.8280
 2.4370	 9.8120
 2.4380	 9.8020
 2.4390	 9.7950
 2.4400	 9.7760
 2.4410	 9.7630
 2.4420	 9.7330
 2.4430	 9.6890
 2.4440	 9.6660
 2.4450	 9.6490
 2.4460	 9.6370
 2.4470	 9.6260
 2.4480	 9.6020
 2.4490	 9.5740
 2.4500	 9.5370
 2.4510	 9.5000
 2.4520	 9.4860
 2.4530	 9.4610
 2.4540	 9.4390
 2.4550	 9.4350
 2.4560	 9.4250
 2.4570	 9.4110
 2.4580	 9.4020
 2.4590	 9.3910
 2.4600	 9.3790
 2.4610	 9.3860
 2.4620	 9.3790
 2.4630	 9.3650
 2.4640	 9.3510
 2.4650	 9.3160
 2.4660	 9.2960
 2.4670	 9.2580
 2.4680	 9.2140
 2.4690	 9.1790
 2.4700	 9.1650
 2.4710	 9.2100
 2.4720	 9.2200
 2.4730	 9.2230
 2.4740	 9.2150
 2.4750	 9.1700
 2.4760	 9.1340
 2.4770	 9.1090
 2.4780	 9.0850
 2.4790	 9.0470
 2.4800	 9.0420
 2.4810	 9.0490
 2.4820	 9.0640
 2.4830	 9.1050
 2.4840	 9.1120
 2.4850	 9.1110
 2.4860	 9.1090
 2.4870	 9.0720
 2.4880	 9.0360
 2.4890	 9.0010
 2.4900	 8.9600
 2.4910	 8.9540
 2.4920	 8.9720
 2.4930	 8.9830
 2.4940	 8.9810
 2.4950	 8.9580
 2.4960	 8.9060
 2.4970	 8.8510
 2.4980	 8.7970
 2.4990	 8.7580
 2.5000	 8.8180
