Name: Baccharis pilularis 3
Type: vegetation
Class: Shrub
Genus: Baccharis
Species: pilularis
Sample No.: VH233
Owner: UCSB
Wavelength Range: TIR
Origin: 34.5088; -119.7683; WGS84
Collection Date: 10/13/2013
Description: Samples were collected as part of the HyspIRI Airborne Campaign. 48 individual plants were sampled in three times in 2013 - spring  summer  and fall. The name of the sample includes a 1  2  or 3 which references a different individual of the species. Samples were taken to JPL and processed within 48 hours of collection. The same leaves were processed in the Nicolet and then measured using the ASD.
Measurement: Hemispherical reflectance
First Column: X
Second Column: Y
X Units: Wavelength (micrometers)
Y Units: Reflectance (percentage)
First X Value: 2.501
Last X Value: 15.387
Number of X Values: 1737
Additional Information: vegetation.shrub.baccharis.pilularis.tir.vh233.ucsb.nicolet.ancillary.txt

 2.5010	 6.5380
 2.5030	 6.4380
 2.5040	 6.5240
 2.5050	 6.4860
 2.5060	 6.4720
 2.5070	 6.6110
 2.5090	 6.7660
 2.5100	 6.5170
 2.5110	 6.3070
 2.5120	 6.2030
 2.5140	 6.2900
 2.5150	 6.2210
 2.5160	 6.1510
 2.5170	 6.0080
 2.5180	 6.0460
 2.5200	 6.1400
 2.5210	 6.1000
 2.5220	 6.0700
 2.5230	 6.2630
 2.5250	 6.4350
 2.5260	 6.5730
 2.5270	 6.4740
 2.5280	 6.2630
 2.5290	 6.0500
 2.5310	 6.1270
 2.5320	 6.1800
 2.5330	 6.2060
 2.5340	 6.3290
 2.5360	 6.3960
 2.5370	 6.3060
 2.5380	 6.3400
 2.5390	 6.3110
 2.5410	 6.0990
 2.5420	 6.1360
 2.5430	 6.3790
 2.5440	 6.2990
 2.5460	 6.4000
 2.5470	 6.3240
 2.5480	 6.1820
 2.5490	 6.1510
 2.5510	 6.2530
 2.5520	 6.5070
 2.5530	 6.6010
 2.5540	 6.6300
 2.5560	 6.6010
 2.5570	 6.1640
 2.5580	 6.0580
 2.5590	 6.4210
 2.5610	 6.5980
 2.5620	 6.4370
 2.5630	 6.3190
 2.5640	 6.2230
 2.5660	 6.3130
 2.5670	 6.2550
 2.5680	 6.3040
 2.5700	 6.5100
 2.5710	 6.6200
 2.5720	 6.3920
 2.5730	 6.1830
 2.5750	 6.2200
 2.5760	 6.3760
 2.5770	 6.4490
 2.5790	 6.6610
 2.5800	 6.6470
 2.5810	 6.3790
 2.5820	 6.2680
 2.5840	 6.3320
 2.5850	 6.2500
 2.5860	 6.3740
 2.5880	 6.2250
 2.5890	 6.0060
 2.5900	 6.1070
 2.5910	 6.3730
 2.5930	 6.5030
 2.5940	 6.6170
 2.5950	 6.4940
 2.5970	 6.5170
 2.5980	 6.4710
 2.5990	 6.4240
 2.6000	 6.3880
 2.6020	 6.4120
 2.6030	 6.2220
 2.6040	 6.1390
 2.6060	 6.3580
 2.6070	 6.5360
 2.6080	 6.5220
 2.6100	 6.3910
 2.6110	 6.1300
 2.6120	 6.2270
 2.6140	 6.2940
 2.6150	 6.2830
 2.6160	 6.3210
 2.6180	 6.3140
 2.6190	 6.2340
 2.6200	 6.2240
 2.6220	 6.0570
 2.6230	 6.0860
 2.6240	 6.2110
 2.6260	 6.2440
 2.6270	 6.1500
 2.6280	 6.2340
 2.6300	 6.3190
 2.6310	 6.2060
 2.6320	 5.9870
 2.6340	 6.0270
 2.6350	 6.1070
 2.6360	 6.1910
 2.6380	 6.1670
 2.6390	 6.0550
 2.6400	 6.0600
 2.6420	 6.1830
 2.6430	 6.0090
 2.6440	 5.8080
 2.6460	 5.7910
 2.6470	 5.9000
 2.6480	 5.7600
 2.6500	 5.5950
 2.6510	 5.6220
 2.6520	 5.7340
 2.6540	 5.7040
 2.6550	 5.6830
 2.6560	 5.8060
 2.6580	 5.7530
 2.6590	 5.6590
 2.6610	 5.5990
 2.6620	 5.7330
 2.6630	 5.8440
 2.6650	 5.7910
 2.6660	 5.8770
 2.6670	 5.8440
 2.6690	 5.6020
 2.6700	 5.4250
 2.6720	 5.4990
 2.6730	 5.3970
 2.6740	 5.5090
 2.6760	 5.6440
 2.6770	 5.6370
 2.6780	 5.5000
 2.6800	 5.5450
 2.6810	 5.5800
 2.6830	 5.6090
 2.6840	 5.5520
 2.6850	 5.4500
 2.6870	 5.4970
 2.6880	 5.5800
 2.6900	 5.5850
 2.6910	 5.6400
 2.6920	 5.5140
 2.6940	 5.4380
 2.6950	 5.4200
 2.6970	 5.3340
 2.6980	 5.5250
 2.6990	 5.7320
 2.7010	 5.6050
 2.7020	 5.4830
 2.7040	 5.2630
 2.7050	 5.3370
 2.7060	 5.3060
 2.7080	 5.3830
 2.7090	 5.5320
 2.7110	 5.5270
 2.7120	 5.3440
 2.7130	 5.1170
 2.7150	 5.0470
 2.7160	 5.2150
 2.7180	 5.2100
 2.7190	 5.3500
 2.7210	 5.4430
 2.7220	 5.3170
 2.7230	 5.2150
 2.7250	 5.4010
 2.7260	 5.3380
 2.7280	 4.9050
 2.7290	 4.5270
 2.7310	 4.6820
 2.7320	 4.8200
 2.7330	 5.1110
 2.7350	 5.1870
 2.7360	 4.9020
 2.7380	 4.7840
 2.7390	 4.7860
 2.7410	 4.8690
 2.7420	 4.7390
 2.7440	 4.8110
 2.7450	 5.5220
 2.7470	 5.8580
 2.7480	 5.4300
 2.7490	 5.1940
 2.7510	 5.1400
 2.7520	 4.5320
 2.7540	 4.1080
 2.7550	 4.2940
 2.7570	 4.6650
 2.7580	 4.4320
 2.7600	 4.3950
 2.7610	 4.3380
 2.7630	 4.1390
 2.7640	 4.1660
 2.7660	 4.4290
 2.7670	 4.6780
 2.7680	 5.0010
 2.7700	 5.0210
 2.7710	 4.7770
 2.7730	 4.6440
 2.7740	 4.5710
 2.7760	 4.1270
 2.7770	 4.2760
 2.7790	 4.2600
 2.7800	 4.5280
 2.7820	 4.4370
 2.7830	 4.1780
 2.7850	 4.1440
 2.7860	 4.1560
 2.7880	 4.1180
 2.7890	 4.1520
 2.7910	 4.1700
 2.7920	 4.0650
 2.7940	 3.7030
 2.7950	 3.9070
 2.7970	 3.9980
 2.7980	 3.8710
 2.8000	 4.0030
 2.8010	 4.0730
 2.8030	 4.0650
 2.8040	 4.1130
 2.8060	 3.9020
 2.8070	 3.7400
 2.8090	 3.8510
 2.8110	 3.9650
 2.8120	 3.9130
 2.8140	 4.0520
 2.8150	 3.9310
 2.8170	 3.7640
 2.8180	 3.5920
 2.8200	 3.5920
 2.8210	 3.9470
 2.8230	 4.1270
 2.8240	 3.8910
 2.8260	 4.1060
 2.8270	 4.1680
 2.8290	 3.8420
 2.8300	 3.6280
 2.8320	 3.8260
 2.8340	 3.8960
 2.8350	 3.5910
 2.8370	 3.3840
 2.8380	 3.5200
 2.8400	 3.8260
 2.8410	 3.7190
 2.8430	 3.4130
 2.8440	 3.5640
 2.8460	 3.7280
 2.8480	 3.8340
 2.8490	 3.8850
 2.8510	 3.8590
 2.8520	 3.7970
 2.8540	 3.6680
 2.8550	 3.6660
 2.8570	 3.7210
 2.8590	 3.7450
 2.8600	 3.8160
 2.8620	 3.9990
 2.8630	 3.9740
 2.8650	 3.8450
 2.8660	 3.7250
 2.8680	 3.5540
 2.8700	 3.4910
 2.8710	 3.4510
 2.8730	 3.6720
 2.8740	 3.6820
 2.8760	 3.5140
 2.8780	 3.3860
 2.8790	 3.0290
 2.8810	 2.8540
 2.8820	 3.2200
 2.8840	 4.0870
 2.8860	 4.5190
 2.8870	 3.9820
 2.8890	 3.8850
 2.8900	 4.0800
 2.8920	 4.1440
 2.8940	 4.2020
 2.8950	 4.2700
 2.8970	 4.0850
 2.8980	 3.6590
 2.9000	 3.4260
 2.9020	 3.3580
 2.9030	 3.3740
 2.9050	 3.3130
 2.9070	 3.3980
 2.9080	 3.8180
 2.9100	 3.8940
 2.9120	 3.7550
 2.9130	 3.6130
 2.9150	 3.6240
 2.9160	 3.7810
 2.9180	 3.6800
 2.9200	 3.5920
 2.9210	 3.7550
 2.9230	 3.6930
 2.9250	 3.6990
 2.9260	 3.5960
 2.9280	 3.6090
 2.9300	 3.5600
 2.9310	 3.5900
 2.9330	 3.6300
 2.9350	 3.6880
 2.9360	 3.4300
 2.9380	 3.2580
 2.9400	 3.2630
 2.9410	 3.1610
 2.9430	 3.6090
 2.9450	 4.1130
 2.9460	 3.8820
 2.9480	 3.6340
 2.9500	 3.7360
 2.9510	 4.1340
 2.9530	 3.2830
 2.9550	 2.8300
 2.9560	 2.7520
 2.9580	 3.4190
 2.9600	 4.6570
 2.9610	 5.2130
 2.9630	 4.6090
 2.9650	 4.6200
 2.9660	 4.5590
 2.9680	 5.1160
 2.9700	 3.6370
 2.9720	 1.1830
 2.9730	 3.2710
 2.9750	 5.0860
 2.9770	 2.7720
 2.9780	 1.8960
 2.9800	 4.2430
 2.9820	 5.8660
 2.9840	 4.5430
 2.9850	 3.0460
 2.9870	 2.9850
 2.9890	 5.4220
 2.9900	 5.7610
 2.9920	 4.0880
 2.9940	 4.1160
 2.9960	 3.5130
 2.9970	 0.4440
 2.9990	 -0.447
 3.0010	 2.6430
 3.0030	 3.9780
 3.0040	 2.4230
 3.0060	 1.9230
 3.0080	 2.8190
 3.0100	 2.7170
 3.0110	 4.1190
 3.0130	 4.8710
 3.0150	 3.2040
 3.0170	 2.6900
 3.0180	 2.6010
 3.0200	 3.3060
 3.0220	 4.2110
 3.0240	 4.2850
 3.0250	 3.7740
 3.0270	 3.6750
 3.0290	 2.8990
 3.0310	 2.8790
 3.0320	 2.5790
 3.0340	 1.9740
 3.0360	 2.5870
 3.0380	 3.2610
 3.0400	 2.0380
 3.0410	 1.0570
 3.0430	 2.0650
 3.0450	 1.5280
 3.0470	 2.7510
 3.0480	 2.5500
 3.0500	 2.1010
 3.0520	 3.1920
 3.0540	 2.6540
 3.0560	 2.1540
 3.0570	 4.3310
 3.0590	 6.4280
 3.0610	 5.4450
 3.0630	 3.0360
 3.0650	 2.4540
 3.0660	 3.5920
 3.0680	 4.9800
 3.0700	 4.4410
 3.0720	 2.9840
 3.0740	 3.8030
 3.0760	 4.2660
 3.0770	 3.7400
 3.0790	 3.7720
 3.0810	 3.9860
 3.0830	 4.0100
 3.0850	 3.8430
 3.0870	 3.7900
 3.0880	 3.9940
 3.0900	 4.1050
 3.0920	 4.0690
 3.0940	 3.8530
 3.0960	 4.0910
 3.0980	 4.0210
 3.0990	 3.8790
 3.1010	 4.1120
 3.1030	 4.6580
 3.1050	 4.3770
 3.1070	 3.9450
 3.1090	 4.0050
 3.1110	 4.2610
 3.1120	 4.0640
 3.1140	 4.0080
 3.1160	 4.1050
 3.1180	 4.2780
 3.1200	 4.2330
 3.1220	 4.2230
 3.1240	 3.8240
 3.1260	 3.4940
 3.1270	 3.5400
 3.1290	 4.0140
 3.1310	 4.5490
 3.1330	 4.9830
 3.1350	 4.5430
 3.1370	 3.9920
 3.1390	 3.8500
 3.1410	 2.8890
 3.1430	 2.7390
 3.1450	 3.9950
 3.1460	 4.5050
 3.1480	 3.2120
 3.1500	 2.2720
 3.1520	 2.9510
 3.1540	 2.4970
 3.1560	 3.4560
 3.1580	 5.2280
 3.1600	 6.0200
 3.1620	 5.6020
 3.1640	 5.4060
 3.1660	 3.0930
 3.1680	 1.4420
 3.1700	 5.0950
 3.1710	 7.9150
 3.1730	 4.9190
 3.1750	 2.2900
 3.1770	 2.7480
 3.1790	 3.4430
 3.1810	 4.6600
 3.1830	 4.3170
 3.1850	 4.4320
 3.1870	 4.5640
 3.1890	 3.8060
 3.1910	 3.8890
 3.1930	 4.1340
 3.1950	 4.3410
 3.1970	 4.5030
 3.1990	 4.4730
 3.2010	 3.8480
 3.2030	 4.0340
 3.2050	 4.1730
 3.2070	 4.4710
 3.2090	 4.7910
 3.2110	 4.6390
 3.2130	 4.4570
 3.2150	 4.5020
 3.2170	 4.3910
 3.2190	 4.2230
 3.2210	 4.2800
 3.2230	 4.3080
 3.2250	 4.3690
 3.2270	 4.3700
 3.2290	 4.3160
 3.2310	 4.3660
 3.2330	 4.5120
 3.2350	 4.2990
 3.2370	 3.9030
 3.2390	 4.0780
 3.2410	 4.6010
 3.2430	 4.8220
 3.2450	 5.1350
 3.2470	 5.0410
 3.2490	 4.4930
 3.2510	 4.3460
 3.2530	 4.1190
 3.2550	 4.1710
 3.2570	 4.3330
 3.2590	 3.9150
 3.2610	 3.5450
 3.2630	 3.5750
 3.2650	 3.8620
 3.2670	 4.1450
 3.2690	 4.0780
 3.2720	 4.1580
 3.2740	 4.2900
 3.2760	 4.2320
 3.2780	 4.1470
 3.2800	 4.2660
 3.2820	 4.5500
 3.2840	 4.4960
 3.2860	 4.1410
 3.2880	 4.1410
 3.2900	 4.1210
 3.2920	 4.1410
 3.2940	 3.7720
 3.2960	 3.8210
 3.2990	 4.1920
 3.3010	 4.2350
 3.3030	 4.2720
 3.3050	 4.2160
 3.3070	 4.4140
 3.3090	 4.4980
 3.3110	 4.2710
 3.3130	 4.2190
 3.3150	 3.7960
 3.3180	 3.6250
 3.3200	 3.9270
 3.3220	 4.1420
 3.3240	 4.1260
 3.3260	 4.1630
 3.3280	 4.2000
 3.3300	 4.0710
 3.3330	 4.0320
 3.3350	 3.9730
 3.3370	 3.9030
 3.3390	 4.1310
 3.3410	 4.3280
 3.3430	 4.1500
 3.3450	 3.9120
 3.3480	 3.9190
 3.3500	 3.8930
 3.3520	 3.8690
 3.3540	 4.0060
 3.3560	 3.9410
 3.3580	 3.8740
 3.3610	 3.8940
 3.3630	 3.7670
 3.3650	 3.7250
 3.3670	 3.7970
 3.3690	 3.9440
 3.3720	 3.8960
 3.3740	 3.9790
 3.3760	 3.9740
 3.3780	 3.8670
 3.3800	 3.9140
 3.3830	 4.0970
 3.3850	 4.1570
 3.3870	 4.1470
 3.3890	 3.8440
 3.3910	 3.4380
 3.3940	 3.4260
 3.3960	 3.2980
 3.3980	 3.4150
 3.4000	 3.7350
 3.4020	 3.7530
 3.4050	 3.7990
 3.4070	 3.8230
 3.4090	 4.0510
 3.4110	 4.2120
 3.4140	 4.4840
 3.4160	 4.8900
 3.4180	 5.4090
 3.4200	 6.0060
 3.4230	 7.0280
 3.4250	 8.1410
 3.4270	 9.2190
 3.4290	 9.7550
 3.4320	 9.1240
 3.4340	 7.9110
 3.4360	 7.0360
 3.4390	 6.3250
 3.4410	 5.8520
 3.4430	 5.8760
 3.4450	 5.5990
 3.4480	 5.3570
 3.4500	 5.4110
 3.4520	 5.2100
 3.4550	 5.3690
 3.4570	 5.2760
 3.4590	 4.8290
 3.4620	 4.8650
 3.4640	 5.1020
 3.4660	 5.2140
 3.4680	 5.1030
 3.4710	 4.8640
 3.4730	 4.7370
 3.4750	 4.6860
 3.4780	 4.6550
 3.4800	 4.5470
 3.4820	 4.6120
 3.4850	 4.6220
 3.4870	 4.5410
 3.4890	 4.4490
 3.4920	 4.4340
 3.4940	 4.4250
 3.4970	 4.5030
 3.4990	 4.5970
 3.5010	 4.7750
 3.5040	 5.1850
 3.5060	 6.1300
 3.5080	 7.5650
 3.5110	 8.7930
 3.5130	 8.7080
 3.5160	 7.6520
 3.5180	 6.7350
 3.5200	 6.3680
 3.5230	 6.1220
 3.5250	 5.8560
 3.5270	 5.6890
 3.5300	 5.5850
 3.5320	 5.5700
 3.5350	 5.5570
 3.5370	 5.4550
 3.5400	 5.3270
 3.5420	 5.2660
 3.5440	 5.3500
 3.5470	 5.3130
 3.5490	 5.1440
 3.5520	 5.0660
 3.5540	 5.1890
 3.5570	 5.3770
 3.5590	 5.3800
 3.5610	 5.3550
 3.5640	 5.3460
 3.5660	 5.3020
 3.5690	 5.3240
 3.5710	 5.5110
 3.5740	 5.6570
 3.5760	 5.4480
 3.5790	 5.3910
 3.5810	 5.2080
 3.5840	 5.1330
 3.5860	 5.1340
 3.5890	 5.2400
 3.5910	 5.3300
 3.5930	 5.0850
 3.5960	 4.8910
 3.5980	 5.2940
 3.6010	 5.3180
 3.6030	 5.2490
 3.6060	 5.2650
 3.6080	 4.9480
 3.6110	 4.8870
 3.6140	 5.0800
 3.6160	 5.2720
 3.6190	 5.3290
 3.6210	 5.1710
 3.6240	 5.0840
 3.6260	 5.0510
 3.6290	 4.9990
 3.6310	 5.1370
 3.6340	 5.3270
 3.6360	 5.2940
 3.6390	 5.0430
 3.6410	 4.9560
 3.6440	 5.2430
 3.6470	 5.2560
 3.6490	 5.0840
 3.6520	 5.0620
 3.6540	 5.1940
 3.6570	 5.1080
 3.6590	 4.9460
 3.6620	 4.9050
 3.6650	 4.9030
 3.6670	 4.9040
 3.6700	 4.9870
 3.6720	 5.0190
 3.6750	 5.0550
 3.6780	 5.0940
 3.6800	 5.1580
 3.6830	 5.1220
 3.6850	 5.0520
 3.6880	 5.1410
 3.6910	 5.1870
 3.6930	 5.0770
 3.6960	 5.0220
 3.6990	 5.0220
 3.7010	 5.0400
 3.7040	 5.0640
 3.7060	 5.1160
 3.7090	 5.1390
 3.7120	 5.1420
 3.7140	 5.1800
 3.7170	 5.0950
 3.7200	 5.0130
 3.7220	 5.0590
 3.7250	 5.1560
 3.7280	 5.1740
 3.7300	 5.0170
 3.7330	 5.0530
 3.7360	 5.1400
 3.7390	 5.0050
 3.7410	 4.9940
 3.7440	 5.2630
 3.7470	 5.3050
 3.7490	 5.1040
 3.7520	 5.0840
 3.7550	 5.1930
 3.7580	 5.2430
 3.7600	 5.2560
 3.7630	 5.2810
 3.7660	 5.1930
 3.7680	 5.0340
 3.7710	 5.0520
 3.7740	 5.1600
 3.7770	 5.2470
 3.7790	 5.0790
 3.7820	 4.9710
 3.7850	 5.0500
 3.7880	 5.0780
 3.7900	 5.0940
 3.7930	 5.1010
 3.7960	 5.1250
 3.7990	 5.2840
 3.8020	 5.3090
 3.8040	 5.2460
 3.8070	 5.1300
 3.8100	 5.0740
 3.8130	 5.1510
 3.8160	 5.1860
 3.8180	 5.2140
 3.8210	 5.3590
 3.8240	 5.2690
 3.8270	 5.1970
 3.8300	 5.2760
 3.8330	 5.3510
 3.8350	 5.3490
 3.8380	 5.2920
 3.8410	 5.3320
 3.8440	 5.4040
 3.8470	 5.2390
 3.8500	 5.0810
 3.8520	 5.0990
 3.8550	 5.1880
 3.8580	 5.1860
 3.8610	 5.1750
 3.8640	 5.1060
 3.8670	 5.0850
 3.8700	 5.2190
 3.8730	 5.2890
 3.8750	 5.2260
 3.8780	 5.2070
 3.8810	 5.2150
 3.8840	 5.2910
 3.8870	 5.3170
 3.8900	 5.2140
 3.8930	 5.0580
 3.8960	 5.0730
 3.8990	 5.1210
 3.9020	 5.2360
 3.9050	 5.2380
 3.9080	 5.1450
 3.9110	 5.3190
 3.9140	 5.4350
 3.9160	 5.3190
 3.9190	 5.2490
 3.9220	 5.2310
 3.9250	 5.2950
 3.9280	 5.3260
 3.9310	 5.3450
 3.9340	 5.3340
 3.9370	 5.1590
 3.9400	 5.0940
 3.9430	 5.1870
 3.9460	 5.2640
 3.9490	 5.2620
 3.9520	 5.2220
 3.9550	 5.2130
 3.9580	 5.2760
 3.9610	 5.3190
 3.9640	 5.2680
 3.9670	 5.2160
 3.9700	 5.2660
 3.9730	 5.2600
 3.9770	 5.2000
 3.9800	 5.1760
 3.9830	 5.2490
 3.9860	 5.2790
 3.9890	 5.2060
 3.9920	 5.1970
 3.9950	 5.2640
 3.9980	 5.2900
 4.0010	 5.2080
 4.0040	 5.2330
 4.0070	 5.2810
 4.0100	 5.2830
 4.0130	 5.2770
 4.0170	 5.3490
 4.0200	 5.3250
 4.0230	 5.2670
 4.0260	 5.2740
 4.0290	 5.3020
 4.0320	 5.3280
 4.0350	 5.2850
 4.0380	 5.2550
 4.0420	 5.2470
 4.0450	 5.2170
 4.0480	 5.2580
 4.0510	 5.2310
 4.0540	 5.3300
 4.0570	 5.5360
 4.0610	 5.5760
 4.0640	 5.3690
 4.0670	 5.2320
 4.0700	 5.2430
 4.0730	 5.2760
 4.0770	 5.2640
 4.0800	 5.1480
 4.0830	 5.2110
 4.0860	 5.2900
 4.0890	 5.2600
 4.0930	 5.3050
 4.0960	 5.3590
 4.0990	 5.4270
 4.1020	 5.4690
 4.1060	 5.4820
 4.1090	 5.5400
 4.1120	 5.5660
 4.1150	 5.6590
 4.1190	 5.4040
 4.1220	 5.2070
 4.1250	 5.3020
 4.1280	 5.3870
 4.1320	 5.3600
 4.1350	 5.3800
 4.1380	 5.4120
 4.1420	 5.3980
 4.1450	 5.4040
 4.1480	 5.4170
 4.1520	 5.4200
 4.1550	 5.3970
 4.1580	 5.3950
 4.1620	 5.4250
 4.1650	 5.4330
 4.1680	 5.4760
 4.1720	 5.5160
 4.1750	 5.4000
 4.1780	 5.2670
 4.1820	 5.2030
 4.1850	 5.2400
 4.1890	 5.3020
 4.1920	 5.3250
 4.1950	 5.3560
 4.1990	 5.4100
 4.2020	 5.4500
 4.2060	 5.4490
 4.2090	 5.4270
 4.2120	 5.3770
 4.2160	 5.3180
 4.2190	 5.3640
 4.2230	 5.4010
 4.2260	 5.3930
 4.2300	 4.9760
 4.2330	 4.8160
 4.2360	 5.0320
 4.2400	 5.2180
 4.2430	 5.4720
 4.2470	 5.2640
 4.2500	 5.2120
 4.2540	 5.3810
 4.2570	 5.3180
 4.2610	 5.1070
 4.2640	 5.2670
 4.2680	 5.4330
 4.2710	 5.3990
 4.2750	 5.4720
 4.2780	 5.4910
 4.2820	 5.3700
 4.2850	 5.5580
 4.2890	 5.6470
 4.2930	 5.5620
 4.2960	 5.5580
 4.3000	 5.6740
 4.3030	 5.5270
 4.3070	 5.3960
 4.3100	 5.2240
 4.3140	 5.2470
 4.3180	 5.3420
 4.3210	 5.4190
 4.3250	 5.5020
 4.3280	 5.5360
 4.3320	 5.5220
 4.3360	 5.5300
 4.3390	 5.4800
 4.3430	 5.4660
 4.3470	 5.4860
 4.3500	 5.4440
 4.3540	 5.3280
 4.3570	 5.3390
 4.3610	 5.3590
 4.3650	 5.2740
 4.3680	 5.2840
 4.3720	 5.4070
 4.3760	 5.4220
 4.3800	 5.3610
 4.3830	 5.3790
 4.3870	 5.3390
 4.3910	 5.3140
 4.3940	 5.3560
 4.3980	 5.3740
 4.4020	 5.3950
 4.4060	 5.3450
 4.4090	 5.3460
 4.4130	 5.3440
 4.4170	 5.3220
 4.4210	 5.3070
 4.4240	 5.3180
 4.4280	 5.3200
 4.4320	 5.3130
 4.4360	 5.2260
 4.4400	 5.2280
 4.4430	 5.2840
 4.4470	 5.3090
 4.4510	 5.3000
 4.4550	 5.3320
 4.4590	 5.3030
 4.4620	 5.2830
 4.4660	 5.2780
 4.4700	 5.3630
 4.4740	 5.3130
 4.4780	 5.2010
 4.4820	 5.1670
 4.4860	 5.2760
 4.4900	 5.3080
 4.4930	 5.3030
 4.4970	 5.2840
 4.5010	 5.1970
 4.5050	 5.2610
 4.5090	 5.3840
 4.5130	 5.3940
 4.5170	 5.2900
 4.5210	 5.2390
 4.5250	 5.3750
 4.5290	 5.4270
 4.5330	 5.4280
 4.5370	 5.3960
 4.5410	 5.3690
 4.5450	 5.4170
 4.5490	 5.4100
 4.5530	 5.2910
 4.5570	 5.2230
 4.5610	 5.2700
 4.5650	 5.3390
 4.5690	 5.2370
 4.5730	 5.1130
 4.5770	 5.1840
 4.5810	 5.2270
 4.5850	 5.1280
 4.5890	 5.0380
 4.5930	 5.0650
 4.5970	 5.2600
 4.6010	 5.2730
 4.6050	 5.1880
 4.6090	 5.2330
 4.6130	 5.2820
 4.6170	 5.3250
 4.6220	 5.3170
 4.6260	 5.2850
 4.6300	 5.2530
 4.6340	 5.1210
 4.6380	 5.0210
 4.6420	 5.2510
 4.6460	 5.3960
 4.6510	 5.2590
 4.6550	 5.0720
 4.6590	 5.0860
 4.6630	 5.2000
 4.6670	 5.2820
 4.6720	 5.1830
 4.6760	 5.1660
 4.6800	 5.2910
 4.6840	 5.2670
 4.6880	 5.2410
 4.6930	 5.1340
 4.6970	 5.1410
 4.7010	 5.2650
 4.7050	 5.2700
 4.7100	 5.1380
 4.7140	 5.1890
 4.7180	 5.2880
 4.7230	 5.2110
 4.7270	 5.1040
 4.7310	 5.1680
 4.7360	 5.2250
 4.7400	 5.2540
 4.7440	 5.2910
 4.7490	 5.3020
 4.7530	 5.2670
 4.7570	 5.2070
 4.7620	 5.1490
 4.7660	 5.1520
 4.7700	 5.1010
 4.7750	 5.0750
 4.7790	 5.0720
 4.7840	 5.1450
 4.7880	 5.2410
 4.7920	 5.3850
 4.7970	 5.4790
 4.8010	 5.1090
 4.8060	 4.8110
 4.8100	 4.9430
 4.8150	 5.1600
 4.8190	 5.3640
 4.8240	 5.3970
 4.8280	 5.2910
 4.8330	 5.2120
 4.8370	 5.2490
 4.8420	 5.1970
 4.8460	 5.1710
 4.8510	 5.1320
 4.8550	 5.2280
 4.8600	 5.2830
 4.8640	 5.2840
 4.8690	 5.2640
 4.8730	 5.2500
 4.8780	 5.2330
 4.8830	 5.2300
 4.8870	 5.2100
 4.8920	 5.2060
 4.8960	 5.2350
 4.9010	 5.2130
 4.9060	 5.1920
 4.9100	 5.2260
 4.9150	 5.1680
 4.9200	 5.1010
 4.9240	 5.1380
 4.9290	 5.2040
 4.9340	 5.1980
 4.9380	 5.2630
 4.9430	 5.2960
 4.9480	 5.2540
 4.9530	 5.2300
 4.9570	 5.2530
 4.9620	 5.2480
 4.9670	 5.2950
 4.9720	 5.2500
 4.9760	 5.1930
 4.9810	 5.1870
 4.9860	 5.2750
 4.9910	 5.2550
 4.9960	 5.2090
 5.0000	 5.1640
 5.0050	 5.1900
 5.0100	 5.1690
 5.0150	 5.1500
 5.0200	 5.1730
 5.0250	 5.2140
 5.0290	 5.2500
 5.0340	 5.2610
 5.0390	 5.2030
 5.0440	 5.2280
 5.0490	 5.1950
 5.0540	 5.1830
 5.0590	 5.1940
 5.0640	 5.2610
 5.0690	 5.2250
 5.0740	 5.1940
 5.0790	 5.2050
 5.0840	 5.1850
 5.0890	 5.1840
 5.0940	 5.2950
 5.0990	 5.2980
 5.1040	 5.2560
 5.1090	 5.2050
 5.1140	 5.2880
 5.1190	 5.3080
 5.1240	 5.2460
 5.1290	 5.1750
 5.1340	 5.2160
 5.1390	 5.2320
 5.1440	 5.2850
 5.1490	 5.3290
 5.1540	 5.2280
 5.1600	 5.2740
 5.1650	 5.3140
 5.1700	 5.2280
 5.1750	 5.2100
 5.1800	 5.1960
 5.1850	 5.2590
 5.1910	 5.2850
 5.1960	 5.2670
 5.2010	 5.2320
 5.2060	 5.2490
 5.2110	 5.2140
 5.2170	 5.2210
 5.2220	 5.2220
 5.2270	 5.2150
 5.2320	 5.1640
 5.2380	 5.1840
 5.2430	 5.1650
 5.2480	 5.1960
 5.2540	 5.1820
 5.2590	 5.2160
 5.2640	 5.2310
 5.2700	 5.2990
 5.2750	 5.3030
 5.2800	 5.3650
 5.2860	 5.2510
 5.2910	 5.1780
 5.2970	 5.0850
 5.3020	 5.0220
 5.3070	 5.0430
 5.3130	 5.1090
 5.3180	 5.1610
 5.3240	 5.1460
 5.3290	 5.1410
 5.3350	 5.1400
 5.3400	 5.1070
 5.3460	 5.0880
 5.3510	 5.0530
 5.3570	 5.1450
 5.3620	 5.1680
 5.3680	 5.0730
 5.3730	 4.9400
 5.3790	 5.0350
 5.3850	 5.1320
 5.3900	 5.1240
 5.3960	 5.0540
 5.4010	 5.0550
 5.4070	 5.0090
 5.4130	 4.9720
 5.4180	 4.9370
 5.4240	 5.0150
 5.4300	 5.0490
 5.4350	 5.1020
 5.4410	 5.1070
 5.4470	 5.0880
 5.4530	 5.0480
 5.4580	 4.9880
 5.4640	 4.8840
 5.4700	 4.9320
 5.4760	 4.9600
 5.4810	 4.9950
 5.4870	 4.9950
 5.4930	 5.0130
 5.4990	 5.0180
 5.5050	 5.0230
 5.5110	 4.9480
 5.5160	 4.9360
 5.5220	 4.8750
 5.5280	 4.8070
 5.5340	 4.8170
 5.5400	 4.8790
 5.5460	 4.8410
 5.5520	 4.9230
 5.5580	 4.8290
 5.5640	 4.7410
 5.5700	 4.6860
 5.5760	 4.6900
 5.5820	 4.6100
 5.5880	 4.6030
 5.5940	 4.5990
 5.6000	 4.6670
 5.6060	 4.6960
 5.6120	 4.6420
 5.6180	 4.5200
 5.6240	 4.4860
 5.6300	 4.3930
 5.6360	 4.4150
 5.6420	 4.3350
 5.6490	 4.2600
 5.6550	 4.2250
 5.6610	 4.1740
 5.6670	 4.1130
 5.6730	 4.0930
 5.6800	 3.9980
 5.6860	 3.8610
 5.6920	 3.7420
 5.6980	 3.7340
 5.7040	 3.6650
 5.7110	 3.6310
 5.7170	 3.5550
 5.7230	 3.5540
 5.7300	 3.5210
 5.7360	 3.4740
 5.7420	 3.4170
 5.7490	 3.4590
 5.7550	 3.4740
 5.7620	 3.5660
 5.7680	 3.5780
 5.7740	 3.6880
 5.7810	 3.6930
 5.7870	 3.7490
 5.7940	 3.7120
 5.8000	 3.7490
 5.8070	 3.8750
 5.8130	 4.0260
 5.8200	 4.0570
 5.8260	 4.1090
 5.8330	 4.1150
 5.8390	 4.1670
 5.8460	 4.2240
 5.8530	 4.3320
 5.8590	 4.3200
 5.8660	 4.4560
 5.8720	 4.5000
 5.8790	 4.5750
 5.8860	 4.5010
 5.8920	 4.4990
 5.8990	 4.5480
 5.9060	 4.5730
 5.9130	 4.5730
 5.9190	 4.6570
 5.9260	 4.7690
 5.9330	 5.0960
 5.9400	 5.2540
 5.9470	 5.2740
 5.9530	 5.2670
 5.9600	 5.2860
 5.9670	 5.2790
 5.9740	 5.2730
 5.9810	 5.0610
 5.9880	 4.9630
 5.9950	 4.9360
 6.0020	 4.9820
 6.0090	 4.9900
 6.0160	 5.0680
 6.0230	 5.0400
 6.0300	 5.0540
 6.0370	 5.0520
 6.0440	 5.1190
 6.0510	 5.1240
 6.0580	 5.0610
 6.0650	 5.0500
 6.0720	 5.1390
 6.0790	 5.0050
 6.0860	 4.9070
 6.0930	 4.8890
 6.1000	 4.9740
 6.1080	 4.9170
 6.1150	 5.0190
 6.1220	 5.0730
 6.1290	 5.1660
 6.1370	 5.1270
 6.1440	 5.2370
 6.1510	 5.2650
 6.1580	 5.2840
 6.1660	 5.2570
 6.1730	 5.2840
 6.1800	 5.2900
 6.1880	 5.4520
 6.1950	 5.4320
 6.2030	 5.3760
 6.2100	 5.2840
 6.2170	 5.4180
 6.2250	 5.4050
 6.2320	 5.4000
 6.2400	 5.2640
 6.2470	 5.1930
 6.2550	 5.2610
 6.2630	 5.2100
 6.2700	 5.0850
 6.2780	 5.0530
 6.2850	 5.0470
 6.2930	 5.1880
 6.3010	 5.1630
 6.3080	 5.1500
 6.3160	 5.0520
 6.3240	 5.0570
 6.3310	 4.8880
 6.3390	 4.9700
 6.3470	 5.0870
 6.3550	 5.1690
 6.3620	 5.1010
 6.3700	 5.1270
 6.3780	 5.0440
 6.3860	 5.0760
 6.3940	 5.0910
 6.4020	 5.1170
 6.4100	 5.1050
 6.4180	 5.1610
 6.4260	 5.0240
 6.4330	 5.0160
 6.4410	 4.9010
 6.4490	 4.8260
 6.4580	 4.8260
 6.4660	 4.9180
 6.4740	 4.8610
 6.4820	 4.9470
 6.4900	 5.0460
 6.4980	 5.0720
 6.5060	 4.9030
 6.5140	 4.8820
 6.5230	 4.8390
 6.5310	 4.7810
 6.5390	 4.6740
 6.5470	 4.6840
 6.5550	 4.6640
 6.5640	 4.7640
 6.5720	 4.7190
 6.5800	 4.6540
 6.5890	 4.5200
 6.5970	 4.5810
 6.6060	 4.5730
 6.6140	 4.6380
 6.6220	 4.6820
 6.6310	 4.7390
 6.6390	 4.7800
 6.6480	 4.8290
 6.6560	 4.5370
 6.6650	 4.4850
 6.6740	 4.4440
 6.6820	 4.5410
 6.6910	 4.4650
 6.6990	 4.4500
 6.7080	 4.3850
 6.7170	 4.4160
 6.7260	 4.3320
 6.7340	 4.3360
 6.7430	 4.3840
 6.7520	 4.3420
 6.7610	 4.2050
 6.7690	 4.2380
 6.7780	 4.3290
 6.7870	 4.6030
 6.7960	 4.3730
 6.8050	 4.1200
 6.8140	 4.0320
 6.8230	 4.2070
 6.8320	 4.4870
 6.8410	 4.7060
 6.8500	 4.3900
 6.8590	 4.2540
 6.8680	 4.1620
 6.8770	 4.1600
 6.8860	 4.1210
 6.8950	 4.2550
 6.9050	 4.1940
 6.9140	 4.1030
 6.9230	 4.0150
 6.9320	 4.0350
 6.9420	 4.0770
 6.9510	 4.1790
 6.9600	 4.1390
 6.9700	 4.0580
 6.9790	 3.8960
 6.9880	 3.9370
 6.9980	 3.9190
 7.0070	 4.0270
 7.0170	 4.0080
 7.0260	 4.0250
 7.0360	 3.9290
 7.0450	 4.0170
 7.0550	 3.9220
 7.0650	 4.0690
 7.0740	 4.1020
 7.0840	 4.0860
 7.0940	 4.0110
 7.1030	 4.0950
 7.1130	 4.1070
 7.1230	 4.0670
 7.1330	 3.9380
 7.1420	 4.0710
 7.1520	 3.9870
 7.1620	 3.9140
 7.1720	 3.8620
 7.1820	 3.9090
 7.1920	 3.8490
 7.2020	 4.0370
 7.2120	 3.9080
 7.2220	 3.8260
 7.2320	 3.6360
 7.2420	 3.7330
 7.2520	 3.8000
 7.2620	 3.8970
 7.2730	 3.9260
 7.2830	 4.0840
 7.2930	 4.0010
 7.3030	 3.8980
 7.3140	 3.6740
 7.3240	 3.7450
 7.3340	 3.7630
 7.3450	 3.9510
 7.3550	 3.9710
 7.3660	 3.9830
 7.3760	 3.8580
 7.3870	 3.7960
 7.3970	 3.7040
 7.4080	 3.8710
 7.4180	 3.9180
 7.4290	 3.9460
 7.4400	 3.9090
 7.4500	 3.9980
 7.4610	 3.8360
 7.4720	 3.7420
 7.4830	 3.7010
 7.4930	 3.8560
 7.5040	 3.8210
 7.5150	 3.9430
 7.5260	 3.8200
 7.5370	 3.8490
 7.5480	 3.7970
 7.5590	 3.8510
 7.5700	 3.9030
 7.5810	 3.9720
 7.5920	 3.9110
 7.6030	 3.9590
 7.6140	 3.9460
 7.6260	 3.9820
 7.6370	 3.8000
 7.6480	 3.9170
 7.6590	 3.9140
 7.6710	 3.9750
 7.6820	 3.9380
 7.6930	 3.9670
 7.7050	 3.9270
 7.7160	 3.9780
 7.7280	 3.7920
 7.7390	 3.8600
 7.7510	 3.9570
 7.7630	 3.9650
 7.7740	 3.7720
 7.7860	 3.7340
 7.7980	 3.6730
 7.8090	 3.7810
 7.8210	 3.7530
 7.8330	 3.7780
 7.8450	 3.7300
 7.8570	 3.8290
 7.8690	 3.7650
 7.8810	 3.8460
 7.8930	 3.7510
 7.9050	 3.7330
 7.9170	 3.5830
 7.9290	 3.6200
 7.9410	 3.6700
 7.9530	 3.7910
 7.9650	 3.7070
 7.9780	 3.8410
 7.9900	 3.6820
 8.0020	 3.7210
 8.0150	 3.6450
 8.0270	 3.8040
 8.0390	 3.8090
 8.0520	 3.9740
 8.0640	 3.8190
 8.0770	 3.8650
 8.0900	 3.9300
 8.1020	 4.0440
 8.1150	 3.8660
 8.1280	 4.0890
 8.1400	 3.9840
 8.1530	 3.9890
 8.1660	 4.0000
 8.1790	 4.2520
 8.1920	 4.1390
 8.2050	 4.0260
 8.2180	 3.7550
 8.2310	 3.7470
 8.2440	 3.8570
 8.2570	 4.1680
 8.2700	 3.9840
 8.2830	 3.9740
 8.2970	 3.9770
 8.3100	 4.1440
 8.3230	 3.9690
 8.3370	 4.0290
 8.3500	 4.0090
 8.3640	 4.1510
 8.3770	 4.1020
 8.3910	 4.0950
 8.4040	 3.8550
 8.4180	 3.9340
 8.4320	 4.0060
 8.4450	 4.2960
 8.4590	 4.1720
 8.4730	 4.2340
 8.4870	 4.1260
 8.5010	 4.2140
 8.5150	 4.1310
 8.5290	 4.3860
 8.5430	 4.3960
 8.5570	 4.5500
 8.5710	 4.4380
 8.5850	 4.5610
 8.5990	 4.4140
 8.6140	 4.5230
 8.6280	 4.5870
 8.6420	 4.8550
 8.6570	 4.7320
 8.6710	 4.7840
 8.6860	 4.6730
 8.7000	 4.8020
 8.7150	 4.7480
 8.7300	 4.7550
 8.7440	 4.4510
 8.7590	 4.4360
 8.7740	 4.4250
 8.7890	 4.6740
 8.8040	 4.5360
 8.8190	 4.5520
 8.8340	 4.5850
 8.8490	 4.7330
 8.8640	 4.4270
 8.8790	 4.5530
 8.8940	 4.6800
 8.9100	 4.8040
 8.9250	 4.5560
 8.9400	 4.6810
 8.9560	 4.5720
 8.9710	 4.8300
 8.9870	 4.8610
 9.0020	 4.6590
 9.0180	 4.3980
 9.0340	 4.7680
 9.0500	 4.6460
 9.0650	 4.6440
 9.0810	 4.5540
 9.0970	 4.8840
 9.1130	 4.7450
 9.1290	 4.6100
 9.1450	 4.4060
 9.1610	 4.7470
 9.1780	 4.6930
 9.1940	 4.7980
 9.2100	 4.7410
 9.2270	 4.8170
 9.2430	 4.6350
 9.2600	 4.9810
 9.2760	 5.0050
 9.2930	 5.0900
 9.3090	 4.8970
 9.3260	 4.9220
 9.3430	 4.8460
 9.3600	 5.0120
 9.3770	 4.8670
 9.3940	 5.0480
 9.4110	 5.0740
 9.4280	 5.3490
 9.4450	 5.1690
 9.4620	 5.0930
 9.4800	 4.8060
 9.4970	 5.0220
 9.5140	 4.9730
 9.5320	 5.0660
 9.5500	 5.1860
 9.5670	 5.5850
 9.5850	 5.5410
 9.6030	 5.6280
 9.6200	 5.5010
 9.6380	 5.5470
 9.6560	 5.3530
 9.6740	 5.4470
 9.6920	 5.3150
 9.7100	 5.5240
 9.7290	 5.3910
 9.7470	 5.4150
 9.7650	 5.3430
 9.7840	 5.7220
 9.8020	 5.5530
 9.8210	 5.0370
 9.8390	 4.6200
 9.8580	 5.1630
 9.8770	 4.9300
 9.8960	 5.0900
 9.9150	 5.0960
 9.9340	 5.2110
 9.9530	 5.1430
 9.9720	 5.2390
 9.9910	 4.9790
10.0100	 5.0100
10.0300	 4.8980
10.0490	 5.0350
10.0690	 4.9570
10.0880	 5.0300
10.1080	 4.9650
10.1280	 5.0920
10.1480	 4.9440
10.1670	 5.1320
10.1870	 5.1580
10.2070	 5.1600
10.2280	 4.9720
10.2480	 5.2440
10.2680	 5.1790
10.2890	 5.3090
10.3090	 5.2520
10.3300	 5.2900
10.3500	 5.0280
10.3710	 5.1220
10.3920	 5.1300
10.4120	 5.3620
10.4330	 5.3330
10.4540	 5.5030
10.4760	 5.4200
10.4970	 5.5880
10.5180	 5.4960
10.5390	 5.6380
10.5610	 5.3990
10.5820	 5.5470
10.6040	 5.4950
10.6260	 5.5660
10.6480	 5.4440
10.6700	 5.6110
10.6920	 5.4530
10.7140	 5.6940
10.7360	 5.6330
10.7580	 5.6930
10.7800	 5.4270
10.8030	 5.4290
10.8250	 5.3110
10.8480	 5.5280
10.8710	 5.4200
10.8940	 5.6320
10.9170	 5.5600
10.9400	 5.7280
10.9630	 5.5190
10.9860	 5.6100
11.0090	 5.2920
11.0330	 5.2260
11.0560	 5.1490
11.0800	 5.4680
11.1040	 5.1370
11.1270	 5.0810
11.1510	 5.0140
11.1750	 5.0530
11.2000	 4.9930
11.2240	 5.2270
11.2480	 5.0220
11.2730	 4.4650
11.2970	 3.9600
11.3220	 5.0110
11.3470	 5.1660
11.3720	 5.3460
11.3970	 5.2280
11.4220	 5.4190
11.4470	 5.2370
11.4720	 5.4430
11.4980	 5.3390
11.5230	 5.5910
11.5490	 5.4040
11.5750	 5.4180
11.6000	 5.0690
11.6260	 5.2630
11.6530	 5.2800
11.6790	 5.5510
11.7050	 5.2530
11.7320	 5.4750
11.7580	 5.2790
11.7850	 5.2200
11.8120	 5.0990
11.8390	 5.4090
11.8660	 5.0540
11.8930	 5.0490
11.9200	 5.1270
11.9480	 5.4830
11.9760	 5.1600
12.0030	 5.3450
12.0310	 5.2120
12.0590	 5.2560
12.0870	 5.0350
12.1150	 5.4360
12.1440	 5.2780
12.1720	 5.3470
12.2010	 4.9920
12.2300	 5.1960
12.2590	 4.9330
12.2880	 5.2500
12.3170	 5.1280
12.3460	 5.3890
12.3760	 5.0720
12.4050	 5.4410
12.4350	 5.4240
12.4650	 5.5030
12.4950	 5.1220
12.5250	 5.2010
12.5550	 4.8890
12.5860	 5.1150
12.6170	 5.1190
12.6470	 5.2050
12.6780	 4.7810
12.7090	 4.9440
12.7410	 4.9120
12.7720	 5.1330
12.8030	 4.8200
12.8350	 4.9460
12.8670	 4.9310
12.8990	 5.2200
12.9310	 4.9450
12.9640	 4.9890
12.9960	 4.6660
13.0290	 4.8950
13.0610	 4.8580
13.0940	 5.2230
13.1280	 4.8100
13.1610	 4.8700
13.1940	 4.6550
13.2280	 5.0430
13.2620	 4.6770
13.2960	 4.6050
13.3300	 4.3280
13.3640	 4.6330
13.3990	 4.4330
13.4340	 4.8940
13.4690	 4.9390
13.5040	 5.1470
13.5390	 4.7250
13.5740	 4.7920
13.6100	 4.5990
13.6460	 5.0890
13.6820	 4.7690
13.7180	 5.0810
13.7540	 5.0840
13.7910	 5.3210
13.8280	 4.7800
13.8650	 4.8880
13.9020	 4.5100
13.9390	 4.9330
13.9770	 4.7550
14.0150	 5.0050
14.0530	 4.6260
14.0910	 4.8110
14.1290	 4.2990
14.1680	 4.6710
14.2070	 4.4150
14.2460	 4.4300
14.2850	 4.2330
14.3240	 4.9430
14.3640	 4.7910
14.4040	 5.1140
14.4440	 4.4120
14.4840	 4.4520
14.5250	 3.9900
14.5660	 4.9190
14.6070	 4.3740
14.6480	 4.2420
14.6900	 3.5890
14.7310	 3.8620
14.7730	 3.4690
14.8150	 4.7090
14.8580	 4.4780
14.9010	 4.7970
14.9440	 4.3300
14.9870	 4.9970
15.0300	 4.1380
15.0740	 5.1750
15.1180	 4.8790
15.1620	 4.8800
15.2060	 4.2570
15.2510	 5.4240
15.2960	 4.9390
15.3410	 4.9100
15.3870	 4.2150
