Name: Quercus agrifolia
Type: vegetation
Class: Tree
Genus: Quercus
Species: agrifolia
Sample No.: JPL176
Owner: JPL
Wavelength Range: VSWIR
Origin: 34.12864; -118.11269; WGS84
Collection Date: 10/3/2016
Description: Samples were collected at the Huntington Garden in San Marino California as part of a JPL Subcontract studying HyTES imagery. Samples were taken to JPL and processed within 48 hours of collection. The same leaves were processed in the Nicolet and then measured using the ASD.
Measurement: Bidirectional reflectance
First Column: X
Second Column: Y
X Units: Wavelength (micrometer)
Y Units: Reflectance (percentage)
First X Value: 0.35
Last X Value: 2.5
Number of X Values: 2151
Additional Information: vegetation.tree.quercus.agrifolia.vswir.jpl176.jpl.asd.ancillary.txt

 0.3500	 6.7640
 0.3510	 6.9040
 0.3520	 6.7810
 0.3530	 6.6670
 0.3540	 6.7790
 0.3550	 6.7810
 0.3560	 6.7380
 0.3570	 6.7060
 0.3580	 6.7210
 0.3590	 6.6750
 0.3600	 6.6390
 0.3610	 6.6370
 0.3620	 6.6120
 0.3630	 6.5950
 0.3640	 6.5920
 0.3650	 6.5940
 0.3660	 6.5760
 0.3670	 6.5540
 0.3680	 6.5440
 0.3690	 6.5610
 0.3700	 6.5510
 0.3710	 6.5260
 0.3720	 6.5090
 0.3730	 6.5200
 0.3740	 6.5350
 0.3750	 6.5530
 0.3760	 6.5670
 0.3770	 6.5000
 0.3780	 6.4330
 0.3790	 6.4080
 0.3800	 6.4250
 0.3810	 6.4640
 0.3820	 6.4780
 0.3830	 6.4520
 0.3840	 6.4330
 0.3850	 6.4340
 0.3860	 6.4510
 0.3870	 6.4720
 0.3880	 6.4700
 0.3890	 6.4580
 0.3900	 6.4480
 0.3910	 6.4530
 0.3920	 6.4370
 0.3930	 6.4280
 0.3940	 6.4450
 0.3950	 6.4410
 0.3960	 6.4490
 0.3970	 6.4560
 0.3980	 6.4370
 0.3990	 6.4310
 0.4000	 6.4260
 0.4010	 6.4210
 0.4020	 6.4420
 0.4030	 6.4430
 0.4040	 6.4500
 0.4050	 6.4840
 0.4060	 6.4820
 0.4070	 6.4950
 0.4080	 6.5170
 0.4090	 6.5080
 0.4100	 6.5130
 0.4110	 6.5250
 0.4120	 6.5360
 0.4130	 6.5530
 0.4140	 6.5520
 0.4150	 6.5550
 0.4160	 6.5810
 0.4170	 6.5770
 0.4180	 6.5800
 0.4190	 6.5980
 0.4200	 6.6140
 0.4210	 6.6130
 0.4220	 6.6120
 0.4230	 6.6230
 0.4240	 6.6420
 0.4250	 6.6450
 0.4260	 6.6380
 0.4270	 6.6400
 0.4280	 6.6490
 0.4290	 6.6560
 0.4300	 6.6550
 0.4310	 6.6490
 0.4320	 6.6380
 0.4330	 6.6290
 0.4340	 6.6250
 0.4350	 6.6160
 0.4360	 6.6170
 0.4370	 6.6310
 0.4380	 6.6440
 0.4390	 6.6520
 0.4400	 6.6630
 0.4410	 6.6780
 0.4420	 6.6910
 0.4430	 6.6980
 0.4440	 6.7030
 0.4450	 6.7130
 0.4460	 6.7130
 0.4470	 6.7190
 0.4480	 6.7300
 0.4490	 6.7320
 0.4500	 6.7400
 0.4510	 6.7490
 0.4520	 6.7530
 0.4530	 6.7540
 0.4540	 6.7620
 0.4550	 6.7730
 0.4560	 6.7740
 0.4570	 6.7760
 0.4580	 6.7790
 0.4590	 6.7790
 0.4600	 6.7820
 0.4610	 6.7880
 0.4620	 6.7890
 0.4630	 6.7820
 0.4640	 6.7860
 0.4650	 6.7920
 0.4660	 6.7970
 0.4670	 6.7990
 0.4680	 6.7980
 0.4690	 6.7930
 0.4700	 6.7880
 0.4710	 6.7940
 0.4720	 6.7980
 0.4730	 6.7970
 0.4740	 6.7900
 0.4750	 6.7880
 0.4760	 6.7950
 0.4770	 6.8050
 0.4780	 6.8000
 0.4790	 6.8010
 0.4800	 6.8050
 0.4810	 6.8060
 0.4820	 6.7980
 0.4830	 6.7920
 0.4840	 6.7920
 0.4850	 6.7920
 0.4860	 6.7930
 0.4870	 6.7960
 0.4880	 6.8030
 0.4890	 6.8100
 0.4900	 6.8160
 0.4910	 6.8270
 0.4920	 6.8430
 0.4930	 6.8570
 0.4940	 6.8730
 0.4950	 6.8930
 0.4960	 6.9140
 0.4970	 6.9380
 0.4980	 6.9620
 0.4990	 6.9870
 0.5000	 7.0150
 0.5010	 7.0470
 0.5020	 7.0830
 0.5030	 7.1200
 0.5040	 7.1680
 0.5050	 7.2190
 0.5060	 7.2700
 0.5070	 7.3330
 0.5080	 7.4030
 0.5090	 7.4780
 0.5100	 7.5590
 0.5110	 7.6540
 0.5120	 7.7590
 0.5130	 7.8720
 0.5140	 7.9950
 0.5150	 8.1240
 0.5160	 8.2650
 0.5170	 8.4190
 0.5180	 8.5830
 0.5190	 8.7560
 0.5200	 8.9330
 0.5210	 9.1140
 0.5220	 9.3000
 0.5230	 9.4880
 0.5240	 9.6720
 0.5250	 9.8500
 0.5260	10.0240
 0.5270	10.1920
 0.5280	10.3480
 0.5290	10.4970
 0.5300	10.6370
 0.5310	10.7660
 0.5320	10.8810
 0.5330	10.9830
 0.5340	11.0770
 0.5350	11.1610
 0.5360	11.2370
 0.5370	11.3010
 0.5380	11.3540
 0.5390	11.3980
 0.5400	11.4310
 0.5410	11.4560
 0.5420	11.4780
 0.5430	11.5040
 0.5440	11.5360
 0.5450	11.5740
 0.5460	11.6180
 0.5470	11.6660
 0.5480	11.7110
 0.5490	11.7480
 0.5500	11.7760
 0.5510	11.7970
 0.5520	11.8090
 0.5530	11.8090
 0.5540	11.7970
 0.5550	11.7720
 0.5560	11.7340
 0.5570	11.6830
 0.5580	11.6210
 0.5590	11.5460
 0.5600	11.4590
 0.5610	11.3670
 0.5620	11.2730
 0.5630	11.1730
 0.5640	11.0660
 0.5650	10.9590
 0.5660	10.8440
 0.5670	10.7200
 0.5680	10.5940
 0.5690	10.4640
 0.5700	10.3350
 0.5710	10.2090
 0.5720	10.0870
 0.5730	 9.9700
 0.5740	 9.8610
 0.5750	 9.7650
 0.5760	 9.6820
 0.5770	 9.6060
 0.5780	 9.5310
 0.5790	 9.4500
 0.5800	 9.3800
 0.5810	 9.3200
 0.5820	 9.2620
 0.5830	 9.2030
 0.5840	 9.1480
 0.5850	 9.0960
 0.5860	 9.0430
 0.5870	 8.9900
 0.5880	 8.9400
 0.5890	 8.8960
 0.5900	 8.8540
 0.5910	 8.8200
 0.5920	 8.7940
 0.5930	 8.7740
 0.5940	 8.7610
 0.5950	 8.7510
 0.5960	 8.7390
 0.5970	 8.7270
 0.5980	 8.7140
 0.5990	 8.7000
 0.6000	 8.6820
 0.6010	 8.6620
 0.6020	 8.6410
 0.6030	 8.6180
 0.6040	 8.5870
 0.6050	 8.5500
 0.6060	 8.5080
 0.6070	 8.4610
 0.6080	 8.4060
 0.6090	 8.3430
 0.6100	 8.2680
 0.6110	 8.1870
 0.6120	 8.1350
 0.6130	 8.0990
 0.6140	 8.0670
 0.6150	 8.0280
 0.6160	 7.9910
 0.6170	 7.9550
 0.6180	 7.9160
 0.6190	 7.8850
 0.6200	 7.8550
 0.6210	 7.8270
 0.6220	 7.8060
 0.6230	 7.7870
 0.6240	 7.7690
 0.6250	 7.7540
 0.6260	 7.7470
 0.6270	 7.7410
 0.6280	 7.7340
 0.6290	 7.7280
 0.6300	 7.7220
 0.6310	 7.7170
 0.6320	 7.7120
 0.6330	 7.7060
 0.6340	 7.6980
 0.6350	 7.6840
 0.6360	 7.6640
 0.6370	 7.6380
 0.6380	 7.6070
 0.6390	 7.5710
 0.6400	 7.5340
 0.6410	 7.4970
 0.6420	 7.4590
 0.6430	 7.4190
 0.6440	 7.3790
 0.6450	 7.3400
 0.6460	 7.3020
 0.6470	 7.2680
 0.6480	 7.2390
 0.6490	 7.2110
 0.6500	 7.1840
 0.6510	 7.1650
 0.6520	 7.1510
 0.6530	 7.1380
 0.6540	 7.1210
 0.6550	 7.1030
 0.6560	 7.0850
 0.6570	 7.0660
 0.6580	 7.0450
 0.6590	 7.0240
 0.6600	 7.0020
 0.6610	 6.9800
 0.6620	 6.9580
 0.6630	 6.9400
 0.6640	 6.9240
 0.6650	 6.9120
 0.6660	 6.9020
 0.6670	 6.8950
 0.6680	 6.8910
 0.6690	 6.8920
 0.6700	 6.8970
 0.6710	 6.9050
 0.6720	 6.9140
 0.6730	 6.9280
 0.6740	 6.9430
 0.6750	 6.9600
 0.6760	 6.9790
 0.6770	 7.0030
 0.6780	 7.0290
 0.6790	 7.0580
 0.6800	 7.0890
 0.6810	 7.1240
 0.6820	 7.1620
 0.6830	 7.2030
 0.6840	 7.2490
 0.6850	 7.3010
 0.6860	 7.3580
 0.6870	 7.4210
 0.6880	 7.4960
 0.6890	 7.5900
 0.6900	 7.7130
 0.6910	 7.8710
 0.6920	 8.0680
 0.6930	 8.3100
 0.6940	 8.6060
 0.6950	 8.9590
 0.6960	 9.3720
 0.6970	 9.8440
 0.6980	10.3710
 0.6990	10.9530
 0.7000	11.5830
 0.7010	12.2540
 0.7020	12.9580
 0.7030	13.6880
 0.7040	14.4380
 0.7050	15.2030
 0.7060	15.9760
 0.7070	16.7540
 0.7080	17.5370
 0.7090	18.3270
 0.7100	19.1220
 0.7110	19.9190
 0.7120	20.7170
 0.7130	21.5140
 0.7140	22.3140
 0.7150	23.1130
 0.7160	23.9080
 0.7170	24.7020
 0.7180	25.4890
 0.7190	26.2670
 0.7200	27.0350
 0.7210	27.7940
 0.7220	28.5410
 0.7230	29.2720
 0.7240	29.9840
 0.7250	30.6780
 0.7260	31.3520
 0.7270	32.0030
 0.7280	32.6280
 0.7290	33.2310
 0.7300	33.8100
 0.7310	34.3580
 0.7320	34.8830
 0.7330	35.3850
 0.7340	35.8610
 0.7350	36.3070
 0.7360	36.7310
 0.7370	37.1320
 0.7380	37.5080
 0.7390	37.8630
 0.7400	38.1940
 0.7410	38.5020
 0.7420	38.7870
 0.7430	39.0540
 0.7440	39.3000
 0.7450	39.5250
 0.7460	39.7320
 0.7470	39.9240
 0.7480	40.0990
 0.7490	40.2580
 0.7500	40.4040
 0.7510	40.5380
 0.7520	40.6600
 0.7530	40.7690
 0.7540	40.8660
 0.7550	40.9550
 0.7560	41.0370
 0.7570	41.1100
 0.7580	41.1730
 0.7590	41.2320
 0.7600	41.2880
 0.7610	41.3360
 0.7620	41.3800
 0.7630	41.4190
 0.7640	41.4510
 0.7650	41.4790
 0.7660	41.5050
 0.7670	41.5300
 0.7680	41.5520
 0.7690	41.5700
 0.7700	41.5880
 0.7710	41.6050
 0.7720	41.6190
 0.7730	41.6330
 0.7740	41.6450
 0.7750	41.6540
 0.7760	41.6640
 0.7770	41.6720
 0.7780	41.6800
 0.7790	41.6890
 0.7800	41.6970
 0.7810	41.7060
 0.7820	41.7140
 0.7830	41.7200
 0.7840	41.7250
 0.7850	41.7310
 0.7860	41.7370
 0.7870	41.7400
 0.7880	41.7440
 0.7890	41.7500
 0.7900	41.7560
 0.7910	41.7600
 0.7920	41.7630
 0.7930	41.7650
 0.7940	41.7680
 0.7950	41.7710
 0.7960	41.7730
 0.7970	41.7710
 0.7980	41.7720
 0.7990	41.7720
 0.8000	41.7720
 0.8010	41.7740
 0.8020	41.7740
 0.8030	41.7750
 0.8040	41.7760
 0.8050	41.7770
 0.8060	41.7750
 0.8070	41.7730
 0.8080	41.7710
 0.8090	41.7660
 0.8100	41.7640
 0.8110	41.7620
 0.8120	41.7580
 0.8130	41.7560
 0.8140	41.7530
 0.8150	41.7480
 0.8160	41.7450
 0.8170	41.7420
 0.8180	41.7420
 0.8190	41.7430
 0.8200	41.7410
 0.8210	41.7350
 0.8220	41.7310
 0.8230	41.7280
 0.8240	41.7220
 0.8250	41.7190
 0.8260	41.7170
 0.8270	41.7140
 0.8280	41.7110
 0.8290	41.7050
 0.8300	41.7010
 0.8310	41.7000
 0.8320	41.6980
 0.8330	41.6950
 0.8340	41.6930
 0.8350	41.6910
 0.8360	41.6910
 0.8370	41.6910
 0.8380	41.6910
 0.8390	41.6950
 0.8400	41.6950
 0.8410	41.6930
 0.8420	41.6930
 0.8430	41.6960
 0.8440	41.6960
 0.8450	41.6960
 0.8460	41.7000
 0.8470	41.7020
 0.8480	41.7040
 0.8490	41.7040
 0.8500	41.7070
 0.8510	41.7120
 0.8520	41.7160
 0.8530	41.7200
 0.8540	41.7240
 0.8550	41.7260
 0.8560	41.7280
 0.8570	41.7320
 0.8580	41.7380
 0.8590	41.7420
 0.8600	41.7460
 0.8610	41.7510
 0.8620	41.7570
 0.8630	41.7620
 0.8640	41.7660
 0.8650	41.7700
 0.8660	41.7730
 0.8670	41.7790
 0.8680	41.7880
 0.8690	41.7970
 0.8700	41.8000
 0.8710	41.8030
 0.8720	41.8090
 0.8730	41.8200
 0.8740	41.8260
 0.8750	41.8300
 0.8760	41.8340
 0.8770	41.8430
 0.8780	41.8500
 0.8790	41.8540
 0.8800	41.8570
 0.8810	41.8650
 0.8820	41.8680
 0.8830	41.8730
 0.8840	41.8830
 0.8850	41.8880
 0.8860	41.8940
 0.8870	41.8980
 0.8880	41.8980
 0.8890	41.9040
 0.8900	41.9110
 0.8910	41.9140
 0.8920	41.9140
 0.8930	41.9180
 0.8940	41.9260
 0.8950	41.9330
 0.8960	41.9360
 0.8970	41.9410
 0.8980	41.9460
 0.8990	41.9510
 0.9000	41.9520
 0.9010	41.9590
 0.9020	41.9640
 0.9030	41.9650
 0.9040	41.9680
 0.9050	41.9690
 0.9060	41.9740
 0.9070	41.9840
 0.9080	41.9850
 0.9090	41.9860
 0.9100	41.9890
 0.9110	41.9930
 0.9120	41.9920
 0.9130	41.9970
 0.9140	42.0020
 0.9150	41.9990
 0.9160	41.9980
 0.9170	41.9980
 0.9180	41.9990
 0.9190	41.9990
 0.9200	41.9990
 0.9210	41.9970
 0.9220	41.9950
 0.9230	41.9920
 0.9240	41.9880
 0.9250	41.9830
 0.9260	41.9790
 0.9270	41.9730
 0.9280	41.9660
 0.9290	41.9600
 0.9300	41.9500
 0.9310	41.9350
 0.9320	41.9290
 0.9330	41.9220
 0.9340	41.9110
 0.9350	41.9050
 0.9360	41.8980
 0.9370	41.8840
 0.9380	41.8660
 0.9390	41.8640
 0.9400	41.8510
 0.9410	41.8320
 0.9420	41.8170
 0.9430	41.8040
 0.9440	41.7910
 0.9450	41.7740
 0.9460	41.7530
 0.9470	41.7250
 0.9480	41.7010
 0.9490	41.6770
 0.9500	41.6490
 0.9510	41.6130
 0.9520	41.5770
 0.9530	41.5430
 0.9540	41.5110
 0.9550	41.4810
 0.9560	41.4500
 0.9570	41.4150
 0.9580	41.3750
 0.9590	41.3390
 0.9600	41.3130
 0.9610	41.2950
 0.9620	41.2790
 0.9630	41.2530
 0.9640	41.2320
 0.9650	41.2180
 0.9660	41.2050
 0.9670	41.1820
 0.9680	41.1650
 0.9690	41.1600
 0.9700	41.1630
 0.9710	41.1470
 0.9720	41.1370
 0.9730	41.1320
 0.9740	41.1200
 0.9750	41.1200
 0.9760	41.1180
 0.9770	41.1140
 0.9780	41.1090
 0.9790	41.0980
 0.9800	41.0950
 0.9810	41.1040
 0.9820	41.1190
 0.9830	41.1220
 0.9840	41.1210
 0.9850	41.1220
 0.9860	41.1290
 0.9870	41.1390
 0.9880	41.1470
 0.9890	41.1510
 0.9900	41.1570
 0.9910	41.1670
 0.9920	41.1760
 0.9930	41.1860
 0.9940	41.2000
 0.9950	41.2060
 0.9960	41.2150
 0.9970	41.2220
 0.9980	41.2180
 0.9990	41.2330
 1.0000	41.2560
 1.0010	43.1620
 1.0020	43.1750
 1.0030	43.1860
 1.0040	43.1950
 1.0050	43.2080
 1.0060	43.2220
 1.0070	43.2320
 1.0080	43.2430
 1.0090	43.2540
 1.0100	43.2650
 1.0110	43.2760
 1.0120	43.2890
 1.0130	43.3050
 1.0140	43.3200
 1.0150	43.3360
 1.0160	43.3500
 1.0170	43.3630
 1.0180	43.3760
 1.0190	43.3870
 1.0200	43.3980
 1.0210	43.4100
 1.0220	43.4210
 1.0230	43.4330
 1.0240	43.4460
 1.0250	43.4580
 1.0260	43.4710
 1.0270	43.4840
 1.0280	43.4960
 1.0290	43.5070
 1.0300	43.5170
 1.0310	43.5260
 1.0320	43.5350
 1.0330	43.5470
 1.0340	43.5560
 1.0350	43.5640
 1.0360	43.5740
 1.0370	43.5820
 1.0380	43.5910
 1.0390	43.6040
 1.0400	43.6110
 1.0410	43.6140
 1.0420	43.6200
 1.0430	43.6270
 1.0440	43.6330
 1.0450	43.6410
 1.0460	43.6490
 1.0470	43.6570
 1.0480	43.6630
 1.0490	43.6700
 1.0500	43.6760
 1.0510	43.6810
 1.0520	43.6830
 1.0530	43.6870
 1.0540	43.6920
 1.0550	43.6960
 1.0560	43.6980
 1.0570	43.7020
 1.0580	43.7080
 1.0590	43.7100
 1.0600	43.7090
 1.0610	43.7090
 1.0620	43.7060
 1.0630	43.7050
 1.0640	43.7060
 1.0650	43.7060
 1.0660	43.7080
 1.0670	43.7070
 1.0680	43.7050
 1.0690	43.7010
 1.0700	43.7010
 1.0710	43.7010
 1.0720	43.7000
 1.0730	43.7030
 1.0740	43.7000
 1.0750	43.6910
 1.0760	43.6850
 1.0770	43.6780
 1.0780	43.6740
 1.0790	43.6750
 1.0800	43.6720
 1.0810	43.6680
 1.0820	43.6640
 1.0830	43.6560
 1.0840	43.6510
 1.0850	43.6470
 1.0860	43.6430
 1.0870	43.6380
 1.0880	43.6340
 1.0890	43.6300
 1.0900	43.6270
 1.0910	43.6220
 1.0920	43.6160
 1.0930	43.6090
 1.0940	43.5990
 1.0950	43.5930
 1.0960	43.5920
 1.0970	43.5860
 1.0980	43.5810
 1.0990	43.5740
 1.1000	43.5590
 1.1010	43.5500
 1.1020	43.5420
 1.1030	43.5340
 1.1040	43.5270
 1.1050	43.5200
 1.1060	43.5110
 1.1070	43.5000
 1.1080	43.4910
 1.1090	43.4840
 1.1100	43.4750
 1.1110	43.4660
 1.1120	43.4570
 1.1130	43.4490
 1.1140	43.4380
 1.1150	43.4240
 1.1160	43.4110
 1.1170	43.3940
 1.1180	43.3770
 1.1190	43.3590
 1.1200	43.3420
 1.1210	43.3220
 1.1220	43.3010
 1.1230	43.2780
 1.1240	43.2530
 1.1250	43.2260
 1.1260	43.1980
 1.1270	43.1660
 1.1280	43.1320
 1.1290	43.0930
 1.1300	43.0500
 1.1310	43.0030
 1.1320	42.9520
 1.1330	42.8970
 1.1340	42.8380
 1.1350	42.7730
 1.1360	42.7040
 1.1370	42.6330
 1.1380	42.5560
 1.1390	42.4750
 1.1400	42.3910
 1.1410	42.3040
 1.1420	42.2140
 1.1430	42.1230
 1.1440	42.0320
 1.1450	41.9400
 1.1460	41.8500
 1.1470	41.7590
 1.1480	41.6700
 1.1490	41.5790
 1.1500	41.4950
 1.1510	41.4150
 1.1520	41.3390
 1.1530	41.2690
 1.1540	41.2020
 1.1550	41.1390
 1.1560	41.0810
 1.1570	41.0270
 1.1580	40.9780
 1.1590	40.9350
 1.1600	40.8960
 1.1610	40.8600
 1.1620	40.8270
 1.1630	40.7980
 1.1640	40.7710
 1.1650	40.7470
 1.1660	40.7270
 1.1670	40.7080
 1.1680	40.6910
 1.1690	40.6760
 1.1700	40.6630
 1.1710	40.6490
 1.1720	40.6370
 1.1730	40.6240
 1.1740	40.6090
 1.1750	40.5950
 1.1760	40.5830
 1.1770	40.5690
 1.1780	40.5530
 1.1790	40.5400
 1.1800	40.5240
 1.1810	40.5060
 1.1820	40.4900
 1.1830	40.4730
 1.1840	40.4560
 1.1850	40.4420
 1.1860	40.4280
 1.1870	40.4120
 1.1880	40.3980
 1.1890	40.3850
 1.1900	40.3710
 1.1910	40.3580
 1.1920	40.3460
 1.1930	40.3340
 1.1940	40.3250
 1.1950	40.3180
 1.1960	40.3110
 1.1970	40.3040
 1.1980	40.2980
 1.1990	40.2900
 1.2000	40.2850
 1.2010	40.2800
 1.2020	40.2770
 1.2030	40.2760
 1.2040	40.2760
 1.2050	40.2770
 1.2060	40.2780
 1.2070	40.2790
 1.2080	40.2830
 1.2090	40.2870
 1.2100	40.2940
 1.2110	40.3030
 1.2120	40.3160
 1.2130	40.3290
 1.2140	40.3420
 1.2150	40.3590
 1.2160	40.3770
 1.2170	40.3960
 1.2180	40.4180
 1.2190	40.4430
 1.2200	40.4680
 1.2210	40.4950
 1.2220	40.5240
 1.2230	40.5530
 1.2240	40.5820
 1.2250	40.6090
 1.2260	40.6360
 1.2270	40.6630
 1.2280	40.6890
 1.2290	40.7150
 1.2300	40.7390
 1.2310	40.7620
 1.2320	40.7840
 1.2330	40.8060
 1.2340	40.8270
 1.2350	40.8470
 1.2360	40.8660
 1.2370	40.8830
 1.2380	40.9000
 1.2390	40.9180
 1.2400	40.9370
 1.2410	40.9550
 1.2420	40.9700
 1.2430	40.9830
 1.2440	40.9970
 1.2450	41.0080
 1.2460	41.0210
 1.2470	41.0340
 1.2480	41.0450
 1.2490	41.0560
 1.2500	41.0650
 1.2510	41.0760
 1.2520	41.0850
 1.2530	41.0910
 1.2540	41.0990
 1.2550	41.1040
 1.2560	41.1080
 1.2570	41.1150
 1.2580	41.1210
 1.2590	41.1260
 1.2600	41.1310
 1.2610	41.1350
 1.2620	41.1370
 1.2630	41.1380
 1.2640	41.1390
 1.2650	41.1390
 1.2660	41.1370
 1.2670	41.1360
 1.2680	41.1360
 1.2690	41.1350
 1.2700	41.1330
 1.2710	41.1300
 1.2720	41.1250
 1.2730	41.1210
 1.2740	41.1190
 1.2750	41.1150
 1.2760	41.1090
 1.2770	41.1010
 1.2780	41.0920
 1.2790	41.0810
 1.2800	41.0700
 1.2810	41.0570
 1.2820	41.0420
 1.2830	41.0280
 1.2840	41.0120
 1.2850	40.9940
 1.2860	40.9760
 1.2870	40.9570
 1.2880	40.9360
 1.2890	40.9120
 1.2900	40.8880
 1.2910	40.8620
 1.2920	40.8320
 1.2930	40.8030
 1.2940	40.7720
 1.2950	40.7390
 1.2960	40.7040
 1.2970	40.6670
 1.2980	40.6270
 1.2990	40.5870
 1.3000	40.5460
 1.3010	40.5050
 1.3020	40.4610
 1.3030	40.4160
 1.3040	40.3680
 1.3050	40.3190
 1.3060	40.2690
 1.3070	40.2170
 1.3080	40.1640
 1.3090	40.1110
 1.3100	40.0570
 1.3110	40.0000
 1.3120	39.9420
 1.3130	39.8800
 1.3140	39.8160
 1.3150	39.7500
 1.3160	39.6830
 1.3170	39.6140
 1.3180	39.5460
 1.3190	39.4750
 1.3200	39.4010
 1.3210	39.3270
 1.3220	39.2520
 1.3230	39.1740
 1.3240	39.0960
 1.3250	39.0140
 1.3260	38.9290
 1.3270	38.8410
 1.3280	38.7530
 1.3290	38.6640
 1.3300	38.5720
 1.3310	38.4820
 1.3320	38.3890
 1.3330	38.2920
 1.3340	38.1960
 1.3350	38.0960
 1.3360	37.9960
 1.3370	37.8980
 1.3380	37.7990
 1.3390	37.6990
 1.3400	37.5970
 1.3410	37.4950
 1.3420	37.3960
 1.3430	37.2990
 1.3440	37.2040
 1.3450	37.1070
 1.3460	37.0100
 1.3470	36.9140
 1.3480	36.8170
 1.3490	36.7240
 1.3500	36.6350
 1.3510	36.5470
 1.3520	36.4570
 1.3530	36.3680
 1.3540	36.2790
 1.3550	36.1880
 1.3560	36.0980
 1.3570	36.0070
 1.3580	35.9140
 1.3590	35.8190
 1.3600	35.7220
 1.3610	35.6230
 1.3620	35.5190
 1.3630	35.4120
 1.3640	35.3020
 1.3650	35.1850
 1.3660	35.0640
 1.3670	34.9370
 1.3680	34.8010
 1.3690	34.6590
 1.3700	34.5060
 1.3710	34.3420
 1.3720	34.1680
 1.3730	33.9790
 1.3740	33.7780
 1.3750	33.5630
 1.3760	33.3300
 1.3770	33.0810
 1.3780	32.8110
 1.3790	32.5220
 1.3800	32.2130
 1.3810	31.8830
 1.3820	31.5350
 1.3830	31.1700
 1.3840	30.7860
 1.3850	30.3820
 1.3860	29.9630
 1.3870	29.5240
 1.3880	29.0770
 1.3890	28.6180
 1.3900	28.1460
 1.3910	27.6710
 1.3920	27.1880
 1.3930	26.7000
 1.3940	26.2110
 1.3950	25.7160
 1.3960	25.2270
 1.3970	24.7420
 1.3980	24.2640
 1.3990	23.8010
 1.4000	23.3480
 1.4010	22.9050
 1.4020	22.4790
 1.4030	22.0650
 1.4040	21.6670
 1.4050	21.2870
 1.4060	20.9230
 1.4070	20.5810
 1.4080	20.2560
 1.4090	19.9470
 1.4100	19.6580
 1.4110	19.3840
 1.4120	19.1280
 1.4130	18.8900
 1.4140	18.6680
 1.4150	18.4650
 1.4160	18.2770
 1.4170	18.1000
 1.4180	17.9390
 1.4190	17.7880
 1.4200	17.6470
 1.4210	17.5190
 1.4220	17.4010
 1.4230	17.2930
 1.4240	17.1950
 1.4250	17.1050
 1.4260	17.0230
 1.4270	16.9480
 1.4280	16.8800
 1.4290	16.8180
 1.4300	16.7640
 1.4310	16.7140
 1.4320	16.6700
 1.4330	16.6310
 1.4340	16.5970
 1.4350	16.5670
 1.4360	16.5420
 1.4370	16.5220
 1.4380	16.5040
 1.4390	16.4910
 1.4400	16.4810
 1.4410	16.4750
 1.4420	16.4700
 1.4430	16.4690
 1.4440	16.4700
 1.4450	16.4720
 1.4460	16.4760
 1.4470	16.4830
 1.4480	16.4910
 1.4490	16.5010
 1.4500	16.5120
 1.4510	16.5240
 1.4520	16.5380
 1.4530	16.5540
 1.4540	16.5690
 1.4550	16.5870
 1.4560	16.6080
 1.4570	16.6310
 1.4580	16.6570
 1.4590	16.6860
 1.4600	16.7170
 1.4610	16.7500
 1.4620	16.7880
 1.4630	16.8300
 1.4640	16.8750
 1.4650	16.9260
 1.4660	16.9810
 1.4670	17.0390
 1.4680	17.1030
 1.4690	17.1700
 1.4700	17.2410
 1.4710	17.3160
 1.4720	17.3940
 1.4730	17.4730
 1.4740	17.5580
 1.4750	17.6450
 1.4760	17.7350
 1.4770	17.8290
 1.4780	17.9250
 1.4790	18.0220
 1.4800	18.1200
 1.4810	18.2190
 1.4820	18.3190
 1.4830	18.4210
 1.4840	18.5240
 1.4850	18.6290
 1.4860	18.7340
 1.4870	18.8410
 1.4880	18.9480
 1.4890	19.0550
 1.4900	19.1620
 1.4910	19.2710
 1.4920	19.3800
 1.4930	19.4900
 1.4940	19.5990
 1.4950	19.7100
 1.4960	19.8200
 1.4970	19.9290
 1.4980	20.0390
 1.4990	20.1500
 1.5000	20.2610
 1.5010	20.3740
 1.5020	20.4850
 1.5030	20.5950
 1.5040	20.7060
 1.5050	20.8160
 1.5060	20.9270
 1.5070	21.0380
 1.5080	21.1480
 1.5090	21.2570
 1.5100	21.3660
 1.5110	21.4740
 1.5120	21.5810
 1.5130	21.6870
 1.5140	21.7920
 1.5150	21.8980
 1.5160	22.0030
 1.5170	22.1090
 1.5180	22.2130
 1.5190	22.3170
 1.5200	22.4200
 1.5210	22.5210
 1.5220	22.6220
 1.5230	22.7220
 1.5240	22.8200
 1.5250	22.9180
 1.5260	23.0150
 1.5270	23.1110
 1.5280	23.2090
 1.5290	23.3050
 1.5300	23.4000
 1.5310	23.4930
 1.5320	23.5850
 1.5330	23.6750
 1.5340	23.7650
 1.5350	23.8540
 1.5360	23.9430
 1.5370	24.0300
 1.5380	24.1170
 1.5390	24.2040
 1.5400	24.2890
 1.5410	24.3750
 1.5420	24.4590
 1.5430	24.5420
 1.5440	24.6240
 1.5450	24.7050
 1.5460	24.7870
 1.5470	24.8690
 1.5480	24.9500
 1.5490	25.0300
 1.5500	25.1080
 1.5510	25.1840
 1.5520	25.2610
 1.5530	25.3350
 1.5540	25.4100
 1.5550	25.4850
 1.5560	25.5570
 1.5570	25.6290
 1.5580	25.7000
 1.5590	25.7700
 1.5600	25.8410
 1.5610	25.9110
 1.5620	25.9820
 1.5630	26.0520
 1.5640	26.1200
 1.5650	26.1880
 1.5660	26.2530
 1.5670	26.3180
 1.5680	26.3820
 1.5690	26.4450
 1.5700	26.5080
 1.5710	26.5710
 1.5720	26.6340
 1.5730	26.6960
 1.5740	26.7580
 1.5750	26.8190
 1.5760	26.8780
 1.5770	26.9370
 1.5780	26.9960
 1.5790	27.0560
 1.5800	27.1150
 1.5810	27.1740
 1.5820	27.2320
 1.5830	27.2880
 1.5840	27.3460
 1.5850	27.4030
 1.5860	27.4590
 1.5870	27.5180
 1.5880	27.5750
 1.5890	27.6330
 1.5900	27.6890
 1.5910	27.7460
 1.5920	27.8030
 1.5930	27.8590
 1.5940	27.9150
 1.5950	27.9720
 1.5960	28.0270
 1.5970	28.0810
 1.5980	28.1350
 1.5990	28.1890
 1.6000	28.2430
 1.6010	28.2960
 1.6020	28.3500
 1.6030	28.4040
 1.6040	28.4560
 1.6050	28.5080
 1.6060	28.5590
 1.6070	28.6090
 1.6080	28.6580
 1.6090	28.7070
 1.6100	28.7540
 1.6110	28.8010
 1.6120	28.8480
 1.6130	28.8950
 1.6140	28.9400
 1.6150	28.9840
 1.6160	29.0280
 1.6170	29.0700
 1.6180	29.1120
 1.6190	29.1530
 1.6200	29.1940
 1.6210	29.2320
 1.6220	29.2700
 1.6230	29.3080
 1.6240	29.3450
 1.6250	29.3800
 1.6260	29.4160
 1.6270	29.4490
 1.6280	29.4820
 1.6290	29.5140
 1.6300	29.5450
 1.6310	29.5760
 1.6320	29.6070
 1.6330	29.6350
 1.6340	29.6620
 1.6350	29.6880
 1.6360	29.7120
 1.6370	29.7340
 1.6380	29.7550
 1.6390	29.7740
 1.6400	29.7920
 1.6410	29.8070
 1.6420	29.8210
 1.6430	29.8340
 1.6440	29.8440
 1.6450	29.8530
 1.6460	29.8600
 1.6470	29.8660
 1.6480	29.8690
 1.6490	29.8710
 1.6500	29.8720
 1.6510	29.8710
 1.6520	29.8690
 1.6530	29.8670
 1.6540	29.8610
 1.6550	29.8550
 1.6560	29.8500
 1.6570	29.8420
 1.6580	29.8360
 1.6590	29.8310
 1.6600	29.8250
 1.6610	29.8190
 1.6620	29.8150
 1.6630	29.8100
 1.6640	29.8060
 1.6650	29.8020
 1.6660	29.7990
 1.6670	29.7970
 1.6680	29.7940
 1.6690	29.7900
 1.6700	29.7850
 1.6710	29.7800
 1.6720	29.7730
 1.6730	29.7660
 1.6740	29.7560
 1.6750	29.7440
 1.6760	29.7300
 1.6770	29.7150
 1.6780	29.6980
 1.6790	29.6790
 1.6800	29.6560
 1.6810	29.6320
 1.6820	29.6030
 1.6830	29.5720
 1.6840	29.5410
 1.6850	29.5070
 1.6860	29.4710
 1.6870	29.4360
 1.6880	29.3990
 1.6890	29.3600
 1.6900	29.3210
 1.6910	29.2820
 1.6920	29.2420
 1.6930	29.2030
 1.6940	29.1610
 1.6950	29.1180
 1.6960	29.0750
 1.6970	29.0310
 1.6980	28.9870
 1.6990	28.9460
 1.7000	28.9010
 1.7010	28.8550
 1.7020	28.8080
 1.7030	28.7610
 1.7040	28.7120
 1.7050	28.6620
 1.7060	28.6120
 1.7070	28.5580
 1.7080	28.5050
 1.7090	28.4510
 1.7100	28.3970
 1.7110	28.3420
 1.7120	28.2860
 1.7130	28.2290
 1.7140	28.1720
 1.7150	28.1150
 1.7160	28.0590
 1.7170	28.0030
 1.7180	27.9460
 1.7190	27.8890
 1.7200	27.8320
 1.7210	27.7730
 1.7220	27.7160
 1.7230	27.6610
 1.7240	27.6040
 1.7250	27.5500
 1.7260	27.4980
 1.7270	27.4490
 1.7280	27.4050
 1.7290	27.3670
 1.7300	27.3350
 1.7310	27.3110
 1.7320	27.2950
 1.7330	27.2820
 1.7340	27.2780
 1.7350	27.2730
 1.7360	27.2720
 1.7370	27.2690
 1.7380	27.2670
 1.7390	27.2590
 1.7400	27.2500
 1.7410	27.2360
 1.7420	27.2180
 1.7430	27.1960
 1.7440	27.1690
 1.7450	27.1390
 1.7460	27.1030
 1.7470	27.0670
 1.7480	27.0280
 1.7490	26.9870
 1.7500	26.9440
 1.7510	26.9000
 1.7520	26.8520
 1.7530	26.8040
 1.7540	26.7560
 1.7550	26.7040
 1.7560	26.6520
 1.7570	26.6010
 1.7580	26.5480
 1.7590	26.4970
 1.7600	26.4470
 1.7610	26.3960
 1.7620	26.3500
 1.7630	26.3060
 1.7640	26.2660
 1.7650	26.2300
 1.7660	26.1980
 1.7670	26.1700
 1.7680	26.1450
 1.7690	26.1230
 1.7700	26.1020
 1.7710	26.0840
 1.7720	26.0640
 1.7730	26.0450
 1.7740	26.0260
 1.7750	26.0070
 1.7760	25.9880
 1.7770	25.9710
 1.7780	25.9540
 1.7790	25.9370
 1.7800	25.9200
 1.7810	25.9030
 1.7820	25.8870
 1.7830	25.8730
 1.7840	25.8600
 1.7850	25.8490
 1.7860	25.8390
 1.7870	25.8290
 1.7880	25.8190
 1.7890	25.8130
 1.7900	25.8080
 1.7910	25.8040
 1.7920	25.8010
 1.7930	25.8000
 1.7940	25.7990
 1.7950	25.7990
 1.7960	25.8000
 1.7970	25.8030
 1.7980	25.8090
 1.7990	25.8130
 1.8000	25.8190
 1.8010	25.8240
 1.8020	25.8260
 1.8030	25.8310
 1.8040	25.8370
 1.8050	25.8430
 1.8060	25.8500
 1.8070	25.8580
 1.8080	25.8640
 1.8090	25.8720
 1.8100	25.8810
 1.8110	25.8880
 1.8120	25.8930
 1.8130	25.8970
 1.8140	25.9000
 1.8150	25.9050
 1.8160	25.9110
 1.8170	25.9160
 1.8180	25.9200
 1.8190	25.9210
 1.8200	25.9240
 1.8210	25.9250
 1.8220	25.9280
 1.8230	25.9360
 1.8240	25.9380
 1.8250	25.9400
 1.8260	25.9390
 1.8270	25.9310
 1.8280	25.9260
 1.8290	25.9180
 1.8300	25.9120
 1.8310	25.7030
 1.8320	25.6890
 1.8330	25.6730
 1.8340	25.6550
 1.8350	25.6310
 1.8360	25.6050
 1.8370	25.5790
 1.8380	25.5470
 1.8390	25.5100
 1.8400	25.4730
 1.8410	25.4280
 1.8420	25.3760
 1.8430	25.3220
 1.8440	25.2610
 1.8450	25.1890
 1.8460	25.1140
 1.8470	25.0310
 1.8480	24.9400
 1.8490	24.8470
 1.8500	24.7430
 1.8510	24.6310
 1.8520	24.5070
 1.8530	24.3770
 1.8540	24.2360
 1.8550	24.0820
 1.8560	23.9190
 1.8570	23.7400
 1.8580	23.5460
 1.8590	23.3430
 1.8600	23.1290
 1.8610	22.9020
 1.8620	22.6610
 1.8630	22.4120
 1.8640	22.1460
 1.8650	21.8620
 1.8660	21.5630
 1.8670	21.2460
 1.8680	20.9140
 1.8690	20.5640
 1.8700	20.1980
 1.8710	19.8180
 1.8720	19.4270
 1.8730	19.0200
 1.8740	18.6050
 1.8750	18.1880
 1.8760	17.7570
 1.8770	17.3220
 1.8780	16.8870
 1.8790	16.4460
 1.8800	16.0110
 1.8810	15.5770
 1.8820	15.1450
 1.8830	14.7150
 1.8840	14.2910
 1.8850	13.8730
 1.8860	13.4650
 1.8870	13.0720
 1.8880	12.6890
 1.8890	12.3220
 1.8900	11.9730
 1.8910	11.6440
 1.8920	11.3290
 1.8930	11.0380
 1.8940	10.7650
 1.8950	10.5120
 1.8960	10.2750
 1.8970	10.0530
 1.8980	 9.8550
 1.8990	 9.6730
 1.9000	 9.5050
 1.9010	 9.3590
 1.9020	 9.2220
 1.9030	 9.1010
 1.9040	 8.9920
 1.9050	 8.8960
 1.9060	 8.8120
 1.9070	 8.7370
 1.9080	 8.6720
 1.9090	 8.6140
 1.9100	 8.5630
 1.9110	 8.5170
 1.9120	 8.4780
 1.9130	 8.4410
 1.9140	 8.4080
 1.9150	 8.3800
 1.9160	 8.3550
 1.9170	 8.3360
 1.9180	 8.3210
 1.9190	 8.3080
 1.9200	 8.2960
 1.9210	 8.2860
 1.9220	 8.2780
 1.9230	 8.2730
 1.9240	 8.2680
 1.9250	 8.2640
 1.9260	 8.2620
 1.9270	 8.2640
 1.9280	 8.2650
 1.9290	 8.2670
 1.9300	 8.2710
 1.9310	 8.2760
 1.9320	 8.2810
 1.9330	 8.2880
 1.9340	 8.2990
 1.9350	 8.3100
 1.9360	 8.3230
 1.9370	 8.3370
 1.9380	 8.3530
 1.9390	 8.3690
 1.9400	 8.3840
 1.9410	 8.4010
 1.9420	 8.4190
 1.9430	 8.4360
 1.9440	 8.4530
 1.9450	 8.4700
 1.9460	 8.4910
 1.9470	 8.5140
 1.9480	 8.5370
 1.9490	 8.5630
 1.9500	 8.5900
 1.9510	 8.6140
 1.9520	 8.6400
 1.9530	 8.6670
 1.9540	 8.6940
 1.9550	 8.7220
 1.9560	 8.7500
 1.9570	 8.7800
 1.9580	 8.8110
 1.9590	 8.8430
 1.9600	 8.8770
 1.9610	 8.9110
 1.9620	 8.9460
 1.9630	 8.9790
 1.9640	 9.0140
 1.9650	 9.0510
 1.9660	 9.0890
 1.9670	 9.1270
 1.9680	 9.1650
 1.9690	 9.2010
 1.9700	 9.2410
 1.9710	 9.2810
 1.9720	 9.3230
 1.9730	 9.3670
 1.9740	 9.4120
 1.9750	 9.4540
 1.9760	 9.4990
 1.9770	 9.5450
 1.9780	 9.5890
 1.9790	 9.6350
 1.9800	 9.6820
 1.9810	 9.7300
 1.9820	 9.7810
 1.9830	 9.8310
 1.9840	 9.8810
 1.9850	 9.9300
 1.9860	 9.9750
 1.9870	10.0220
 1.9880	10.0720
 1.9890	10.1220
 1.9900	10.1780
 1.9910	10.2330
 1.9920	10.2860
 1.9930	10.3360
 1.9940	10.3880
 1.9950	10.4400
 1.9960	10.4930
 1.9970	10.5470
 1.9980	10.6010
 1.9990	10.6550
 2.0000	10.7090
 2.0010	10.7640
 2.0020	10.8190
 2.0030	10.8720
 2.0040	10.9240
 2.0050	10.9800
 2.0060	11.0380
 2.0070	11.0930
 2.0080	11.1490
 2.0090	11.2050
 2.0100	11.2590
 2.0110	11.3130
 2.0120	11.3700
 2.0130	11.4260
 2.0140	11.4780
 2.0150	11.5270
 2.0160	11.5770
 2.0170	11.6270
 2.0180	11.6780
 2.0190	11.7300
 2.0200	11.7800
 2.0210	11.8280
 2.0220	11.8770
 2.0230	11.9260
 2.0240	11.9750
 2.0250	12.0230
 2.0260	12.0700
 2.0270	12.1170
 2.0280	12.1610
 2.0290	12.2080
 2.0300	12.2540
 2.0310	12.2960
 2.0320	12.3380
 2.0330	12.3780
 2.0340	12.4140
 2.0350	12.4520
 2.0360	12.4910
 2.0370	12.5280
 2.0380	12.5660
 2.0390	12.6020
 2.0400	12.6350
 2.0410	12.6700
 2.0420	12.7060
 2.0430	12.7410
 2.0440	12.7730
 2.0450	12.8060
 2.0460	12.8370
 2.0470	12.8640
 2.0480	12.8940
 2.0490	12.9260
 2.0500	12.9560
 2.0510	12.9840
 2.0520	13.0140
 2.0530	13.0420
 2.0540	13.0720
 2.0550	13.1040
 2.0560	13.1360
 2.0570	13.1690
 2.0580	13.2020
 2.0590	13.2340
 2.0600	13.2660
 2.0610	13.2960
 2.0620	13.3240
 2.0630	13.3550
 2.0640	13.3870
 2.0650	13.4190
 2.0660	13.4520
 2.0670	13.4840
 2.0680	13.5130
 2.0690	13.5440
 2.0700	13.5750
 2.0710	13.6060
 2.0720	13.6380
 2.0730	13.6720
 2.0740	13.7020
 2.0750	13.7300
 2.0760	13.7610
 2.0770	13.7910
 2.0780	13.8230
 2.0790	13.8600
 2.0800	13.8930
 2.0810	13.9230
 2.0820	13.9540
 2.0830	13.9860
 2.0840	14.0160
 2.0850	14.0450
 2.0860	14.0750
 2.0870	14.1050
 2.0880	14.1340
 2.0890	14.1640
 2.0900	14.1960
 2.0910	14.2260
 2.0920	14.2540
 2.0930	14.2840
 2.0940	14.3140
 2.0950	14.3440
 2.0960	14.3750
 2.0970	14.4040
 2.0980	14.4330
 2.0990	14.4610
 2.1000	14.4880
 2.1010	14.5170
 2.1020	14.5460
 2.1030	14.5760
 2.1040	14.6070
 2.1050	14.6370
 2.1060	14.6670
 2.1070	14.6970
 2.1080	14.7270
 2.1090	14.7570
 2.1100	14.7860
 2.1110	14.8140
 2.1120	14.8450
 2.1130	14.8760
 2.1140	14.9060
 2.1150	14.9370
 2.1160	14.9660
 2.1170	14.9880
 2.1180	15.0160
 2.1190	15.0480
 2.1200	15.0760
 2.1210	15.1050
 2.1220	15.1360
 2.1230	15.1600
 2.1240	15.1780
 2.1250	15.2020
 2.1260	15.2260
 2.1270	15.2500
 2.1280	15.2760
 2.1290	15.3000
 2.1300	15.3230
 2.1310	15.3470
 2.1320	15.3720
 2.1330	15.3970
 2.1340	15.4200
 2.1350	15.4450
 2.1360	15.4740
 2.1370	15.5000
 2.1380	15.5280
 2.1390	15.5540
 2.1400	15.5760
 2.1410	15.5970
 2.1420	15.6210
 2.1430	15.6450
 2.1440	15.6690
 2.1450	15.6970
 2.1460	15.7210
 2.1470	15.7430
 2.1480	15.7660
 2.1490	15.7890
 2.1500	15.8120
 2.1510	15.8360
 2.1520	15.8590
 2.1530	15.8810
 2.1540	15.9030
 2.1550	15.9250
 2.1560	15.9460
 2.1570	15.9690
 2.1580	15.9890
 2.1590	16.0080
 2.1600	16.0270
 2.1610	16.0450
 2.1620	16.0630
 2.1630	16.0810
 2.1640	16.0990
 2.1650	16.1180
 2.1660	16.1360
 2.1670	16.1550
 2.1680	16.1740
 2.1690	16.1930
 2.1700	16.2110
 2.1710	16.2300
 2.1720	16.2520
 2.1730	16.2700
 2.1740	16.2850
 2.1750	16.3020
 2.1760	16.3160
 2.1770	16.3330
 2.1780	16.3550
 2.1790	16.3760
 2.1800	16.3970
 2.1810	16.4170
 2.1820	16.4360
 2.1830	16.4560
 2.1840	16.4740
 2.1850	16.4890
 2.1860	16.5080
 2.1870	16.5260
 2.1880	16.5470
 2.1890	16.5720
 2.1900	16.5920
 2.1910	16.6070
 2.1920	16.6280
 2.1930	16.6500
 2.1940	16.6710
 2.1950	16.6980
 2.1960	16.7190
 2.1970	16.7320
 2.1980	16.7480
 2.1990	16.7620
 2.2000	16.7780
 2.2010	16.7970
 2.2020	16.8130
 2.2030	16.8270
 2.2040	16.8430
 2.2050	16.8580
 2.2060	16.8770
 2.2070	16.8910
 2.2080	16.9080
 2.2090	16.9200
 2.2100	16.9250
 2.2110	16.9340
 2.2120	16.9420
 2.2130	16.9500
 2.2140	16.9590
 2.2150	16.9650
 2.2160	16.9660
 2.2170	16.9690
 2.2180	16.9720
 2.2190	16.9720
 2.2200	16.9740
 2.2210	16.9710
 2.2220	16.9640
 2.2230	16.9550
 2.2240	16.9400
 2.2250	16.9250
 2.2260	16.9100
 2.2270	16.8890
 2.2280	16.8640
 2.2290	16.8410
 2.2300	16.8180
 2.2310	16.7890
 2.2320	16.7630
 2.2330	16.7320
 2.2340	16.6950
 2.2350	16.6520
 2.2360	16.6090
 2.2370	16.5640
 2.2380	16.5160
 2.2390	16.4650
 2.2400	16.4160
 2.2410	16.3660
 2.2420	16.3140
 2.2430	16.2630
 2.2440	16.2120
 2.2450	16.1600
 2.2460	16.1070
 2.2470	16.0540
 2.2480	15.9990
 2.2490	15.9410
 2.2500	15.8840
 2.2510	15.8240
 2.2520	15.7690
 2.2530	15.7180
 2.2540	15.6640
 2.2550	15.6170
 2.2560	15.5620
 2.2570	15.4990
 2.2580	15.4410
 2.2590	15.3810
 2.2600	15.3250
 2.2610	15.2720
 2.2620	15.2230
 2.2630	15.1760
 2.2640	15.1330
 2.2650	15.0890
 2.2660	15.0410
 2.2670	14.9940
 2.2680	14.9440
 2.2690	14.8960
 2.2700	14.8500
 2.2710	14.8060
 2.2720	14.7650
 2.2730	14.7230
 2.2740	14.6820
 2.2750	14.6450
 2.2760	14.6070
 2.2770	14.5730
 2.2780	14.5450
 2.2790	14.5150
 2.2800	14.4840
 2.2810	14.4540
 2.2820	14.4230
 2.2830	14.3940
 2.2840	14.3680
 2.2850	14.3360
 2.2860	14.3030
 2.2870	14.2680
 2.2880	14.2250
 2.2890	14.1860
 2.2900	14.1510
 2.2910	14.1140
 2.2920	14.0790
 2.2930	14.0370
 2.2940	13.9850
 2.2950	13.9370
 2.2960	13.8870
 2.2970	13.8370
 2.2980	13.7870
 2.2990	13.7410
 2.3000	13.6960
 2.3010	13.6470
 2.3020	13.5910
 2.3030	13.5390
 2.3040	13.4840
 2.3050	13.4230
 2.3060	13.3720
 2.3070	13.3220
 2.3080	13.2720
 2.3090	13.2300
 2.3100	13.1970
 2.3110	13.1700
 2.3120	13.1500
 2.3130	13.1390
 2.3140	13.1330
 2.3150	13.1340
 2.3160	13.1380
 2.3170	13.1510
 2.3180	13.1610
 2.3190	13.1740
 2.3200	13.1810
 2.3210	13.1880
 2.3220	13.1880
 2.3230	13.1840
 2.3240	13.1800
 2.3250	13.1720
 2.3260	13.1620
 2.3270	13.1540
 2.3280	13.1400
 2.3290	13.1230
 2.3300	13.1010
 2.3310	13.0740
 2.3320	13.0450
 2.3330	13.0110
 2.3340	12.9810
 2.3350	12.9530
 2.3360	12.9230
 2.3370	12.8960
 2.3380	12.8660
 2.3390	12.8320
 2.3400	12.7990
 2.3410	12.7660
 2.3420	12.7340
 2.3430	12.7080
 2.3440	12.6740
 2.3450	12.6330
 2.3460	12.5970
 2.3470	12.5530
 2.3480	12.5190
 2.3490	12.4960
 2.3500	12.4720
 2.3510	12.4510
 2.3520	12.4320
 2.3530	12.4140
 2.3540	12.3990
 2.3550	12.3900
 2.3560	12.3820
 2.3570	12.3710
 2.3580	12.3610
 2.3590	12.3530
 2.3600	12.3350
 2.3610	12.3190
 2.3620	12.3110
 2.3630	12.2960
 2.3640	12.2780
 2.3650	12.2640
 2.3660	12.2430
 2.3670	12.2110
 2.3680	12.1840
 2.3690	12.1550
 2.3700	12.1170
 2.3710	12.0780
 2.3720	12.0470
 2.3730	12.0150
 2.3740	11.9810
 2.3750	11.9570
 2.3760	11.9380
 2.3770	11.9070
 2.3780	11.8810
 2.3790	11.8600
 2.3800	11.8280
 2.3810	11.8010
 2.3820	11.7780
 2.3830	11.7460
 2.3840	11.7100
 2.3850	11.6730
 2.3860	11.6370
 2.3870	11.6070
 2.3880	11.5870
 2.3890	11.5720
 2.3900	11.5530
 2.3910	11.5240
 2.3920	11.5030
 2.3930	11.4820
 2.3940	11.4500
 2.3950	11.4230
 2.3960	11.3840
 2.3970	11.3430
 2.3980	11.3090
 2.3990	11.2780
 2.4000	11.2600
 2.4010	11.2350
 2.4020	11.2090
 2.4030	11.1880
 2.4040	11.1590
 2.4050	11.1430
 2.4060	11.1300
 2.4070	11.1030
 2.4080	11.0670
 2.4090	11.0280
 2.4100	10.9860
 2.4110	10.9490
 2.4120	10.9270
 2.4130	10.9010
 2.4140	10.8700
 2.4150	10.8510
 2.4160	10.8280
 2.4170	10.8160
 2.4180	10.7980
 2.4190	10.7640
 2.4200	10.7260
 2.4210	10.6820
 2.4220	10.6410
 2.4230	10.5920
 2.4240	10.5480
 2.4250	10.5110
 2.4260	10.4680
 2.4270	10.4450
 2.4280	10.4240
 2.4290	10.3950
 2.4300	10.3750
 2.4310	10.3570
 2.4320	10.3330
 2.4330	10.3020
 2.4340	10.2700
 2.4350	10.2370
 2.4360	10.2070
 2.4370	10.1850
 2.4380	10.1620
 2.4390	10.1370
 2.4400	10.1130
 2.4410	10.0900
 2.4420	10.0700
 2.4430	10.0400
 2.4440	10.0180
 2.4450	10.0060
 2.4460	 9.9920
 2.4470	 9.9600
 2.4480	 9.9130
 2.4490	 9.8770
 2.4500	 9.8370
 2.4510	 9.8130
 2.4520	 9.8130
 2.4530	 9.7960
 2.4540	 9.7530
 2.4550	 9.7190
 2.4560	 9.6940
 2.4570	 9.6640
 2.4580	 9.6660
 2.4590	 9.6460
 2.4600	 9.6190
 2.4610	 9.6040
 2.4620	 9.5500
 2.4630	 9.5280
 2.4640	 9.5240
 2.4650	 9.5080
 2.4660	 9.5170
 2.4670	 9.5130
 2.4680	 9.4840
 2.4690	 9.4500
 2.4700	 9.4170
 2.4710	 9.3720
 2.4720	 9.3450
 2.4730	 9.3300
 2.4740	 9.3050
 2.4750	 9.2970
 2.4760	 9.2780
 2.4770	 9.2330
 2.4780	 9.2260
 2.4790	 9.2460
 2.4800	 9.2420
 2.4810	 9.2430
 2.4820	 9.2150
 2.4830	 9.1900
 2.4840	 9.2040
 2.4850	 9.2470
 2.4860	 9.2540
 2.4870	 9.2410
 2.4880	 9.2360
 2.4890	 9.2350
 2.4900	 9.2370
 2.4910	 9.2230
 2.4920	 9.1830
 2.4930	 9.1290
 2.4940	 9.0610
 2.4950	 9.0490
 2.4960	 9.1000
 2.4970	 9.1040
 2.4980	 9.1390
 2.4990	 9.1890
 2.5000	 9.1370
