Name: Abies concolor 2
Type: vegetation
Class: Tree
Genus: Abies
Species: concolor
Sample No.: VH159
Owner: UCSB
Wavelength Range: VSWIR
Origin: 37.0437; -119.3025; WGS84
Collection Date: 6/8/2013
Description: Samples were collected as part of the HyspIRI Airborne Campaign. 48 individual plants were sampled in three times in 2013 - spring  summer  and fall. The name of the sample includes a 1  2  or 3 which references a different individual of the species. Samples were taken to JPL and processed within 48 hours of collection. The same leaves were processed in the Nicolet and then measured using the ASD.
Measurement: Bidirectional reflectance
First Column: X
Second Column: Y
X Units: Wavelength (micrometers)
Y Units: Reflectance (percentage)
First X Value: 0.35
Last X Value: 2.5
Number of X Values: 2151
Additional Information: vegetation.tree.abies.concolor.vswir.vh159.ucsb.asd.ancillary.txt

 0.3500	 4.3150
 0.3510	 4.2840
 0.3520	 4.1710
 0.3530	 4.0580
 0.3540	 3.9920
 0.3550	 3.9640
 0.3560	 4.0230
 0.3570	 4.1110
 0.3580	 4.1230
 0.3590	 3.9800
 0.3600	 3.9150
 0.3610	 3.9940
 0.3620	 4.0070
 0.3630	 3.9290
 0.3640	 3.8520
 0.3650	 3.8600
 0.3660	 3.8950
 0.3670	 3.9560
 0.3680	 3.9930
 0.3690	 3.9170
 0.3700	 3.7940
 0.3710	 3.7740
 0.3720	 3.8810
 0.3730	 3.8710
 0.3740	 3.8100
 0.3750	 3.7990
 0.3760	 3.8950
 0.3770	 3.8510
 0.3780	 3.8480
 0.3790	 3.8870
 0.3800	 3.8260
 0.3810	 3.8160
 0.3820	 3.8300
 0.3830	 3.8320
 0.3840	 3.8360
 0.3850	 3.8440
 0.3860	 3.8380
 0.3870	 3.8070
 0.3880	 3.8140
 0.3890	 3.7970
 0.3900	 3.7620
 0.3910	 3.7860
 0.3920	 3.7690
 0.3930	 3.7590
 0.3940	 3.7860
 0.3950	 3.7750
 0.3960	 3.7960
 0.3970	 3.8440
 0.3980	 3.8680
 0.3990	 3.8920
 0.4000	 3.8910
 0.4010	 3.8770
 0.4020	 3.9100
 0.4030	 3.9430
 0.4040	 3.9720
 0.4050	 4.0010
 0.4060	 4.0300
 0.4070	 4.0620
 0.4080	 4.1020
 0.4090	 4.1580
 0.4100	 4.2000
 0.4110	 4.2260
 0.4120	 4.2550
 0.4130	 4.3150
 0.4140	 4.3550
 0.4150	 4.3940
 0.4160	 4.4600
 0.4170	 4.5130
 0.4180	 4.5750
 0.4190	 4.6460
 0.4200	 4.7080
 0.4210	 4.7640
 0.4220	 4.8130
 0.4230	 4.8600
 0.4240	 4.9420
 0.4250	 5.0070
 0.4260	 5.0530
 0.4270	 5.1030
 0.4280	 5.1690
 0.4290	 5.2300
 0.4300	 5.2880
 0.4310	 5.3530
 0.4320	 5.4330
 0.4330	 5.5050
 0.4340	 5.5560
 0.4350	 5.6120
 0.4360	 5.6590
 0.4370	 5.6990
 0.4380	 5.7340
 0.4390	 5.7790
 0.4400	 5.8310
 0.4410	 5.8840
 0.4420	 5.9170
 0.4430	 5.9530
 0.4440	 5.9940
 0.4450	 6.0540
 0.4460	 6.1080
 0.4470	 6.1570
 0.4480	 6.1980
 0.4490	 6.2270
 0.4500	 6.2640
 0.4510	 6.3060
 0.4520	 6.3400
 0.4530	 6.3810
 0.4540	 6.4210
 0.4550	 6.4530
 0.4560	 6.4710
 0.4570	 6.4840
 0.4580	 6.4940
 0.4590	 6.5110
 0.4600	 6.5420
 0.4610	 6.5600
 0.4620	 6.5730
 0.4630	 6.5910
 0.4640	 6.5970
 0.4650	 6.6070
 0.4660	 6.6210
 0.4670	 6.6350
 0.4680	 6.6410
 0.4690	 6.6520
 0.4700	 6.6650
 0.4710	 6.6640
 0.4720	 6.6540
 0.4730	 6.6590
 0.4740	 6.6910
 0.4750	 6.7020
 0.4760	 6.6970
 0.4770	 6.6880
 0.4780	 6.7030
 0.4790	 6.7170
 0.4800	 6.7250
 0.4810	 6.7280
 0.4820	 6.7330
 0.4830	 6.7480
 0.4840	 6.7690
 0.4850	 6.7810
 0.4860	 6.8000
 0.4870	 6.8120
 0.4880	 6.8190
 0.4890	 6.8590
 0.4900	 6.8940
 0.4910	 6.9220
 0.4920	 6.9540
 0.4930	 6.9920
 0.4940	 7.0280
 0.4950	 7.0680
 0.4960	 7.1230
 0.4970	 7.1780
 0.4980	 7.2350
 0.4990	 7.2970
 0.5000	 7.3610
 0.5010	 7.4330
 0.5020	 7.5160
 0.5030	 7.6020
 0.5040	 7.6960
 0.5050	 7.8010
 0.5060	 7.9140
 0.5070	 8.0260
 0.5080	 8.1510
 0.5090	 8.2910
 0.5100	 8.4330
 0.5110	 8.5750
 0.5120	 8.7300
 0.5130	 8.8960
 0.5140	 9.0680
 0.5150	 9.2460
 0.5160	 9.4330
 0.5170	 9.6180
 0.5180	 9.8160
 0.5190	10.0130
 0.5200	10.2080
 0.5210	10.4090
 0.5220	10.6010
 0.5230	10.7880
 0.5240	10.9700
 0.5250	11.1470
 0.5260	11.3100
 0.5270	11.4640
 0.5280	11.6120
 0.5290	11.7520
 0.5300	11.8790
 0.5310	11.9920
 0.5320	12.1000
 0.5330	12.1950
 0.5340	12.2810
 0.5350	12.3640
 0.5360	12.4350
 0.5370	12.5050
 0.5380	12.5740
 0.5390	12.6320
 0.5400	12.6900
 0.5410	12.7520
 0.5420	12.8180
 0.5430	12.8820
 0.5440	12.9370
 0.5450	12.9810
 0.5460	13.0180
 0.5470	13.0480
 0.5480	13.0730
 0.5490	13.0970
 0.5500	13.1250
 0.5510	13.1480
 0.5520	13.1620
 0.5530	13.1670
 0.5540	13.1640
 0.5550	13.1480
 0.5560	13.1180
 0.5570	13.0770
 0.5580	13.0300
 0.5590	12.9740
 0.5600	12.9080
 0.5610	12.8350
 0.5620	12.7640
 0.5630	12.6910
 0.5640	12.6100
 0.5650	12.5190
 0.5660	12.4260
 0.5670	12.3310
 0.5680	12.2310
 0.5690	12.1260
 0.5700	12.0170
 0.5710	11.9070
 0.5720	11.8000
 0.5730	11.6970
 0.5740	11.5970
 0.5750	11.5050
 0.5760	11.4200
 0.5770	11.3390
 0.5780	11.2610
 0.5790	11.1890
 0.5800	11.1170
 0.5810	11.0480
 0.5820	10.9880
 0.5830	10.9290
 0.5840	10.8710
 0.5850	10.8160
 0.5860	10.7600
 0.5870	10.7140
 0.5880	10.6700
 0.5890	10.6190
 0.5900	10.5770
 0.5910	10.5430
 0.5920	10.5130
 0.5930	10.4880
 0.5940	10.4640
 0.5950	10.4430
 0.5960	10.4290
 0.5970	10.4100
 0.5980	10.3890
 0.5990	10.3660
 0.6000	10.3450
 0.6010	10.3200
 0.6020	10.2920
 0.6030	10.2590
 0.6040	10.2200
 0.6050	10.1780
 0.6060	10.1260
 0.6070	10.0680
 0.6080	10.0120
 0.6090	 9.9600
 0.6100	 9.9110
 0.6110	 9.8640
 0.6120	 9.7970
 0.6130	 9.7170
 0.6140	 9.6350
 0.6150	 9.5690
 0.6160	 9.5070
 0.6170	 9.4470
 0.6180	 9.3910
 0.6190	 9.3390
 0.6200	 9.2970
 0.6210	 9.2630
 0.6220	 9.2300
 0.6230	 9.1950
 0.6240	 9.1690
 0.6250	 9.1520
 0.6260	 9.1370
 0.6270	 9.1280
 0.6280	 9.1200
 0.6290	 9.1100
 0.6300	 9.1060
 0.6310	 9.0990
 0.6320	 9.0860
 0.6330	 9.0680
 0.6340	 9.0430
 0.6350	 9.0110
 0.6360	 8.9760
 0.6370	 8.9190
 0.6380	 8.8590
 0.6390	 8.7960
 0.6400	 8.7260
 0.6410	 8.6530
 0.6420	 8.5740
 0.6430	 8.4880
 0.6440	 8.4050
 0.6450	 8.3220
 0.6460	 8.2410
 0.6470	 8.1570
 0.6480	 8.0830
 0.6490	 8.0180
 0.6500	 7.9640
 0.6510	 7.9150
 0.6520	 7.8690
 0.6530	 7.8250
 0.6540	 7.7810
 0.6550	 7.7350
 0.6560	 7.6880
 0.6570	 7.6320
 0.6580	 7.5660
 0.6590	 7.4910
 0.6600	 7.4100
 0.6610	 7.3260
 0.6620	 7.2420
 0.6630	 7.1560
 0.6640	 7.0760
 0.6650	 6.9980
 0.6660	 6.9310
 0.6670	 6.8690
 0.6680	 6.8160
 0.6690	 6.7730
 0.6700	 6.7350
 0.6710	 6.7070
 0.6720	 6.6880
 0.6730	 6.6690
 0.6740	 6.6620
 0.6750	 6.6630
 0.6760	 6.6680
 0.6770	 6.6710
 0.6780	 6.6870
 0.6790	 6.7100
 0.6800	 6.7470
 0.6810	 6.7960
 0.6820	 6.8580
 0.6830	 6.9400
 0.6840	 7.0460
 0.6850	 7.1860
 0.6860	 7.3580
 0.6870	 7.5580
 0.6880	 7.7950
 0.6890	 8.0800
 0.6900	 8.4110
 0.6910	 8.7910
 0.6920	 9.2250
 0.6930	 9.7070
 0.6940	10.2350
 0.6950	10.8080
 0.6960	11.4280
 0.6970	12.0850
 0.6980	12.7690
 0.6990	13.4830
 0.7000	14.2190
 0.7010	14.9730
 0.7020	15.7420
 0.7030	16.5100
 0.7040	17.2820
 0.7050	18.0560
 0.7060	18.8280
 0.7070	19.5990
 0.7080	20.3700
 0.7090	21.1440
 0.7100	21.9240
 0.7110	22.7090
 0.7120	23.4990
 0.7130	24.2920
 0.7140	25.0950
 0.7150	25.9080
 0.7160	26.7270
 0.7170	27.5500
 0.7180	28.3770
 0.7190	29.2120
 0.7200	30.0540
 0.7210	30.8920
 0.7220	31.7280
 0.7230	32.5620
 0.7240	33.3940
 0.7250	34.2080
 0.7260	35.0140
 0.7270	35.8170
 0.7280	36.5940
 0.7290	37.3490
 0.7300	38.0840
 0.7310	38.8030
 0.7320	39.5020
 0.7330	40.1750
 0.7340	40.8210
 0.7350	41.4460
 0.7360	42.0360
 0.7370	42.6030
 0.7380	43.1530
 0.7390	43.6700
 0.7400	44.1600
 0.7410	44.6240
 0.7420	45.0660
 0.7430	45.4790
 0.7440	45.8670
 0.7450	46.2340
 0.7460	46.5800
 0.7470	46.8980
 0.7480	47.1940
 0.7490	47.4700
 0.7500	47.7210
 0.7510	47.9520
 0.7520	48.1660
 0.7530	48.3650
 0.7540	48.5510
 0.7550	48.7250
 0.7560	48.8840
 0.7570	49.0300
 0.7580	49.1600
 0.7590	49.2830
 0.7600	49.4000
 0.7610	49.5100
 0.7620	49.6020
 0.7630	49.6850
 0.7640	49.7700
 0.7650	49.8530
 0.7660	49.9260
 0.7670	49.9930
 0.7680	50.0590
 0.7690	50.1150
 0.7700	50.1700
 0.7710	50.2260
 0.7720	50.2720
 0.7730	50.3220
 0.7740	50.3710
 0.7750	50.4120
 0.7760	50.4540
 0.7770	50.4940
 0.7780	50.5320
 0.7790	50.5720
 0.7800	50.6050
 0.7810	50.6380
 0.7820	50.6730
 0.7830	50.7070
 0.7840	50.7420
 0.7850	50.7830
 0.7860	50.8240
 0.7870	50.8490
 0.7880	50.8770
 0.7890	50.9100
 0.7900	50.9400
 0.7910	50.9630
 0.7920	50.9870
 0.7930	51.0150
 0.7940	51.0400
 0.7950	51.0630
 0.7960	51.0890
 0.7970	51.1170
 0.7980	51.1430
 0.7990	51.1670
 0.8000	51.1870
 0.8010	51.2020
 0.8020	51.2220
 0.8030	51.2450
 0.8040	51.2640
 0.8050	51.2760
 0.8060	51.2930
 0.8070	51.3120
 0.8080	51.3300
 0.8090	51.3470
 0.8100	51.3620
 0.8110	51.3770
 0.8120	51.3940
 0.8130	51.4140
 0.8140	51.4250
 0.8150	51.4340
 0.8160	51.4510
 0.8170	51.4680
 0.8180	51.4800
 0.8190	51.4900
 0.8200	51.5050
 0.8210	51.5310
 0.8220	51.5440
 0.8230	51.5460
 0.8240	51.5600
 0.8250	51.5710
 0.8260	51.5810
 0.8270	51.5930
 0.8280	51.6100
 0.8290	51.6120
 0.8300	51.6110
 0.8310	51.6200
 0.8320	51.6270
 0.8330	51.6380
 0.8340	51.6530
 0.8350	51.6680
 0.8360	51.6800
 0.8370	51.6960
 0.8380	51.7130
 0.8390	51.7300
 0.8400	51.7490
 0.8410	51.7690
 0.8420	51.7870
 0.8430	51.8010
 0.8440	51.8260
 0.8450	51.8470
 0.8460	51.8540
 0.8470	51.8710
 0.8480	51.8910
 0.8490	51.9140
 0.8500	51.9370
 0.8510	51.9500
 0.8520	51.9690
 0.8530	51.9940
 0.8540	52.0130
 0.8550	52.0290
 0.8560	52.0470
 0.8570	52.0670
 0.8580	52.0860
 0.8590	52.1030
 0.8600	52.1140
 0.8610	52.1210
 0.8620	52.1380
 0.8630	52.1550
 0.8640	52.1680
 0.8650	52.1760
 0.8660	52.1930
 0.8670	52.2110
 0.8680	52.2250
 0.8690	52.2300
 0.8700	52.2460
 0.8710	52.2630
 0.8720	52.2760
 0.8730	52.2840
 0.8740	52.2990
 0.8750	52.3090
 0.8760	52.3140
 0.8770	52.3240
 0.8780	52.3390
 0.8790	52.3530
 0.8800	52.3630
 0.8810	52.3720
 0.8820	52.3680
 0.8830	52.3630
 0.8840	52.3660
 0.8850	52.3730
 0.8860	52.3800
 0.8870	52.3870
 0.8880	52.3940
 0.8890	52.3870
 0.8900	52.3810
 0.8910	52.3810
 0.8920	52.3860
 0.8930	52.3860
 0.8940	52.3800
 0.8950	52.3720
 0.8960	52.3670
 0.8970	52.3610
 0.8980	52.3600
 0.8990	52.3600
 0.9000	52.3520
 0.9010	52.3370
 0.9020	52.3280
 0.9030	52.3290
 0.9040	52.3220
 0.9050	52.3150
 0.9060	52.3080
 0.9070	52.3040
 0.9080	52.3060
 0.9090	52.2900
 0.9100	52.2680
 0.9110	52.2550
 0.9120	52.2510
 0.9130	52.2530
 0.9140	52.2520
 0.9150	52.2470
 0.9160	52.2440
 0.9170	52.2310
 0.9180	52.2200
 0.9190	52.2210
 0.9200	52.1920
 0.9210	52.1690
 0.9220	52.1620
 0.9230	52.1620
 0.9240	52.1470
 0.9250	52.1240
 0.9260	52.0930
 0.9270	52.0580
 0.9280	52.0420
 0.9290	52.0210
 0.9300	51.9850
 0.9310	51.9470
 0.9320	51.9160
 0.9330	51.8840
 0.9340	51.8440
 0.9350	51.7990
 0.9360	51.7530
 0.9370	51.6990
 0.9380	51.6390
 0.9390	51.5810
 0.9400	51.5190
 0.9410	51.4600
 0.9420	51.4040
 0.9430	51.3350
 0.9440	51.2520
 0.9450	51.1660
 0.9460	51.0820
 0.9470	50.9860
 0.9480	50.8780
 0.9490	50.7550
 0.9500	50.6230
 0.9510	50.5060
 0.9520	50.3710
 0.9530	50.2200
 0.9540	50.0650
 0.9550	49.9170
 0.9560	49.7710
 0.9570	49.6300
 0.9580	49.5000
 0.9590	49.3690
 0.9600	49.2380
 0.9610	49.1180
 0.9620	49.0200
 0.9630	48.9230
 0.9640	48.8390
 0.9650	48.7680
 0.9660	48.7070
 0.9670	48.6420
 0.9680	48.5900
 0.9690	48.5430
 0.9700	48.4860
 0.9710	48.4470
 0.9720	48.4000
 0.9730	48.3560
 0.9740	48.3350
 0.9750	48.3040
 0.9760	48.2760
 0.9770	48.2550
 0.9780	48.2400
 0.9790	48.2360
 0.9800	48.2320
 0.9810	48.2280
 0.9820	48.2270
 0.9830	48.2330
 0.9840	48.2360
 0.9850	48.2450
 0.9860	48.2720
 0.9870	48.2920
 0.9880	48.3150
 0.9890	48.3430
 0.9900	48.3770
 0.9910	48.4290
 0.9920	48.4670
 0.9930	48.4970
 0.9940	48.5420
 0.9950	48.5950
 0.9960	48.6530
 0.9970	48.7110
 0.9980	48.7670
 0.9990	48.8150
 1.0000	49.0370
 1.0010	49.3830
 1.0020	49.6160
 1.0030	49.6790
 1.0040	49.7460
 1.0050	49.8080
 1.0060	49.8670
 1.0070	49.9270
 1.0080	49.9910
 1.0090	50.0550
 1.0100	50.1200
 1.0110	50.1880
 1.0120	50.2560
 1.0130	50.3220
 1.0140	50.3910
 1.0150	50.4620
 1.0160	50.5360
 1.0170	50.6070
 1.0180	50.6790
 1.0190	50.7450
 1.0200	50.8080
 1.0210	50.8790
 1.0220	50.9460
 1.0230	51.0110
 1.0240	51.0800
 1.0250	51.1460
 1.0260	51.2050
 1.0270	51.2700
 1.0280	51.3390
 1.0290	51.4050
 1.0300	51.4720
 1.0310	51.5360
 1.0320	51.5950
 1.0330	51.6590
 1.0340	51.7190
 1.0350	51.7800
 1.0360	51.8460
 1.0370	51.9080
 1.0380	51.9670
 1.0390	52.0260
 1.0400	52.0800
 1.0410	52.1250
 1.0420	52.1770
 1.0430	52.2320
 1.0440	52.2840
 1.0450	52.3400
 1.0460	52.3890
 1.0470	52.4280
 1.0480	52.4730
 1.0490	52.5170
 1.0500	52.5600
 1.0510	52.6060
 1.0520	52.6540
 1.0530	52.6940
 1.0540	52.7270
 1.0550	52.7660
 1.0560	52.8060
 1.0570	52.8420
 1.0580	52.8780
 1.0590	52.9130
 1.0600	52.9430
 1.0610	52.9710
 1.0620	52.9990
 1.0630	53.0250
 1.0640	53.0450
 1.0650	53.0670
 1.0660	53.0890
 1.0670	53.1110
 1.0680	53.1330
 1.0690	53.1550
 1.0700	53.1740
 1.0710	53.1930
 1.0720	53.2060
 1.0730	53.2120
 1.0740	53.2240
 1.0750	53.2390
 1.0760	53.2480
 1.0770	53.2570
 1.0780	53.2630
 1.0790	53.2620
 1.0800	53.2640
 1.0810	53.2670
 1.0820	53.2680
 1.0830	53.2690
 1.0840	53.2670
 1.0850	53.2610
 1.0860	53.2560
 1.0870	53.2500
 1.0880	53.2430
 1.0890	53.2330
 1.0900	53.2240
 1.0910	53.2110
 1.0920	53.1940
 1.0930	53.1770
 1.0940	53.1590
 1.0950	53.1390
 1.0960	53.1180
 1.0970	53.0970
 1.0980	53.0780
 1.0990	53.0550
 1.1000	53.0340
 1.1010	53.0080
 1.1020	52.9790
 1.1030	52.9470
 1.1040	52.9150
 1.1050	52.8810
 1.1060	52.8470
 1.1070	52.8150
 1.1080	52.7780
 1.1090	52.7390
 1.1100	52.7000
 1.1110	52.6580
 1.1120	52.6130
 1.1130	52.5700
 1.1140	52.5200
 1.1150	52.4630
 1.1160	52.4050
 1.1170	52.3470
 1.1180	52.2780
 1.1190	52.2070
 1.1200	52.1270
 1.1210	52.0350
 1.1220	51.9380
 1.1230	51.8330
 1.1240	51.7180
 1.1250	51.5920
 1.1260	51.4580
 1.1270	51.3080
 1.1280	51.1500
 1.1290	50.9720
 1.1300	50.7820
 1.1310	50.5720
 1.1320	50.3440
 1.1330	50.1030
 1.1340	49.8440
 1.1350	49.5750
 1.1360	49.2940
 1.1370	48.9990
 1.1380	48.6930
 1.1390	48.3770
 1.1400	48.0490
 1.1410	47.7190
 1.1420	47.3860
 1.1430	47.0500
 1.1440	46.7170
 1.1450	46.3790
 1.1460	46.0540
 1.1470	45.7310
 1.1480	45.4220
 1.1490	45.1190
 1.1500	44.8330
 1.1510	44.5550
 1.1520	44.2940
 1.1530	44.0490
 1.1540	43.8190
 1.1550	43.6040
 1.1560	43.4040
 1.1570	43.2170
 1.1580	43.0450
 1.1590	42.8870
 1.1600	42.7390
 1.1610	42.6030
 1.1620	42.4740
 1.1630	42.3540
 1.1640	42.2420
 1.1650	42.1380
 1.1660	42.0460
 1.1670	41.9560
 1.1680	41.8750
 1.1690	41.7940
 1.1700	41.7160
 1.1710	41.6400
 1.1720	41.5650
 1.1730	41.4920
 1.1740	41.4210
 1.1750	41.3520
 1.1760	41.2850
 1.1770	41.2170
 1.1780	41.1470
 1.1790	41.0750
 1.1800	41.0010
 1.1810	40.9290
 1.1820	40.8590
 1.1830	40.7900
 1.1840	40.7220
 1.1850	40.6520
 1.1860	40.5850
 1.1870	40.5220
 1.1880	40.4630
 1.1890	40.4070
 1.1900	40.3550
 1.1910	40.3070
 1.1920	40.2630
 1.1930	40.2220
 1.1940	40.1860
 1.1950	40.1540
 1.1960	40.1260
 1.1970	40.1020
 1.1980	40.0830
 1.1990	40.0710
 1.2000	40.0680
 1.2010	40.0720
 1.2020	40.0830
 1.2030	40.1010
 1.2040	40.1250
 1.2050	40.1560
 1.2060	40.1930
 1.2070	40.2370
 1.2080	40.2850
 1.2090	40.3420
 1.2100	40.4070
 1.2110	40.4740
 1.2120	40.5470
 1.2130	40.6230
 1.2140	40.7030
 1.2150	40.7860
 1.2160	40.8750
 1.2170	40.9670
 1.2180	41.0590
 1.2190	41.1530
 1.2200	41.2480
 1.2210	41.3450
 1.2220	41.4420
 1.2230	41.5400
 1.2240	41.6380
 1.2250	41.7340
 1.2260	41.8290
 1.2270	41.9250
 1.2280	42.0160
 1.2290	42.1040
 1.2300	42.1910
 1.2310	42.2730
 1.2320	42.3520
 1.2330	42.4300
 1.2340	42.5070
 1.2350	42.5840
 1.2360	42.6580
 1.2370	42.7310
 1.2380	42.8010
 1.2390	42.8670
 1.2400	42.9300
 1.2410	42.9910
 1.2420	43.0490
 1.2430	43.1060
 1.2440	43.1620
 1.2450	43.2160
 1.2460	43.2700
 1.2470	43.3210
 1.2480	43.3690
 1.2490	43.4150
 1.2500	43.4590
 1.2510	43.5030
 1.2520	43.5440
 1.2530	43.5820
 1.2540	43.6190
 1.2550	43.6530
 1.2560	43.6850
 1.2570	43.7180
 1.2580	43.7480
 1.2590	43.7760
 1.2600	43.8020
 1.2610	43.8280
 1.2620	43.8510
 1.2630	43.8730
 1.2640	43.8950
 1.2650	43.9140
 1.2660	43.9300
 1.2670	43.9440
 1.2680	43.9550
 1.2690	43.9660
 1.2700	43.9740
 1.2710	43.9800
 1.2720	43.9850
 1.2730	43.9880
 1.2740	43.9890
 1.2750	43.9880
 1.2760	43.9830
 1.2770	43.9740
 1.2780	43.9610
 1.2790	43.9480
 1.2800	43.9340
 1.2810	43.9160
 1.2820	43.8970
 1.2830	43.8730
 1.2840	43.8440
 1.2850	43.8120
 1.2860	43.7770
 1.2870	43.7390
 1.2880	43.6980
 1.2890	43.6550
 1.2900	43.6060
 1.2910	43.5510
 1.2920	43.4920
 1.2930	43.4270
 1.2940	43.3580
 1.2950	43.2890
 1.2960	43.2110
 1.2970	43.1280
 1.2980	43.0440
 1.2990	42.9540
 1.3000	42.8630
 1.3010	42.7680
 1.3020	42.6670
 1.3030	42.5600
 1.3040	42.4460
 1.3050	42.3250
 1.3060	42.2010
 1.3070	42.0700
 1.3080	41.9350
 1.3090	41.7970
 1.3100	41.6520
 1.3110	41.5050
 1.3120	41.3520
 1.3130	41.1930
 1.3140	41.0290
 1.3150	40.8600
 1.3160	40.6860
 1.3170	40.5070
 1.3180	40.3240
 1.3190	40.1350
 1.3200	39.9430
 1.3210	39.7440
 1.3220	39.5400
 1.3230	39.3320
 1.3240	39.1190
 1.3250	38.9060
 1.3260	38.6930
 1.3270	38.4750
 1.3280	38.2550
 1.3290	38.0280
 1.3300	37.8000
 1.3310	37.5730
 1.3320	37.3440
 1.3330	37.1180
 1.3340	36.8920
 1.3350	36.6640
 1.3360	36.4350
 1.3370	36.2070
 1.3380	35.9800
 1.3390	35.7560
 1.3400	35.5350
 1.3410	35.3180
 1.3420	35.1030
 1.3430	34.8910
 1.3440	34.6820
 1.3450	34.4770
 1.3460	34.2730
 1.3470	34.0750
 1.3480	33.8780
 1.3490	33.6870
 1.3500	33.5010
 1.3510	33.3160
 1.3520	33.1340
 1.3530	32.9540
 1.3540	32.7740
 1.3550	32.5960
 1.3560	32.4200
 1.3570	32.2430
 1.3580	32.0660
 1.3590	31.8870
 1.3600	31.7050
 1.3610	31.5220
 1.3620	31.3340
 1.3630	31.1410
 1.3640	30.9450
 1.3650	30.7420
 1.3660	30.5350
 1.3670	30.3210
 1.3680	30.0950
 1.3690	29.8600
 1.3700	29.6120
 1.3710	29.3540
 1.3720	29.0850
 1.3730	28.8000
 1.3740	28.5050
 1.3750	28.1930
 1.3760	27.8590
 1.3770	27.5090
 1.3780	27.1360
 1.3790	26.7440
 1.3800	26.3350
 1.3810	25.9060
 1.3820	25.4650
 1.3830	25.0080
 1.3840	24.5390
 1.3850	24.0560
 1.3860	23.5660
 1.3870	23.0600
 1.3880	22.5570
 1.3890	22.0480
 1.3900	21.5360
 1.3910	21.0300
 1.3920	20.5240
 1.3930	20.0200
 1.3940	19.5250
 1.3950	19.0330
 1.3960	18.5530
 1.3970	18.0860
 1.3980	17.6310
 1.3990	17.1940
 1.4000	16.7730
 1.4010	16.3630
 1.4020	15.9720
 1.4030	15.5960
 1.4040	15.2360
 1.4050	14.8970
 1.4060	14.5720
 1.4070	14.2670
 1.4080	13.9800
 1.4090	13.7070
 1.4100	13.4510
 1.4110	13.2100
 1.4120	12.9820
 1.4130	12.7700
 1.4140	12.5710
 1.4150	12.3860
 1.4160	12.2140
 1.4170	12.0530
 1.4180	11.9030
 1.4190	11.7620
 1.4200	11.6300
 1.4210	11.5070
 1.4220	11.3920
 1.4230	11.2870
 1.4240	11.1890
 1.4250	11.0970
 1.4260	11.0140
 1.4270	10.9350
 1.4280	10.8630
 1.4290	10.7960
 1.4300	10.7350
 1.4310	10.6780
 1.4320	10.6270
 1.4330	10.5800
 1.4340	10.5380
 1.4350	10.4980
 1.4360	10.4630
 1.4370	10.4310
 1.4380	10.4040
 1.4390	10.3800
 1.4400	10.3590
 1.4410	10.3410
 1.4420	10.3260
 1.4430	10.3130
 1.4440	10.3030
 1.4450	10.2950
 1.4460	10.2880
 1.4470	10.2830
 1.4480	10.2800
 1.4490	10.2790
 1.4500	10.2800
 1.4510	10.2820
 1.4520	10.2850
 1.4530	10.2890
 1.4540	10.2950
 1.4550	10.3040
 1.4560	10.3130
 1.4570	10.3230
 1.4580	10.3360
 1.4590	10.3500
 1.4600	10.3660
 1.4610	10.3860
 1.4620	10.4070
 1.4630	10.4320
 1.4640	10.4590
 1.4650	10.4880
 1.4660	10.5210
 1.4670	10.5560
 1.4680	10.5950
 1.4690	10.6350
 1.4700	10.6790
 1.4710	10.7260
 1.4720	10.7760
 1.4730	10.8280
 1.4740	10.8810
 1.4750	10.9360
 1.4760	10.9930
 1.4770	11.0520
 1.4780	11.1150
 1.4790	11.1800
 1.4800	11.2460
 1.4810	11.3130
 1.4820	11.3820
 1.4830	11.4510
 1.4840	11.5210
 1.4850	11.5940
 1.4860	11.6670
 1.4870	11.7410
 1.4880	11.8160
 1.4890	11.8920
 1.4900	11.9690
 1.4910	12.0470
 1.4920	12.1260
 1.4930	12.2070
 1.4940	12.2870
 1.4950	12.3680
 1.4960	12.4480
 1.4970	12.5280
 1.4980	12.6090
 1.4990	12.6900
 1.5000	12.7720
 1.5010	12.8550
 1.5020	12.9380
 1.5030	13.0210
 1.5040	13.1040
 1.5050	13.1860
 1.5060	13.2690
 1.5070	13.3520
 1.5080	13.4350
 1.5090	13.5180
 1.5100	13.6000
 1.5110	13.6830
 1.5120	13.7650
 1.5130	13.8450
 1.5140	13.9270
 1.5150	14.0070
 1.5160	14.0870
 1.5170	14.1660
 1.5180	14.2460
 1.5190	14.3250
 1.5200	14.4030
 1.5210	14.4800
 1.5220	14.5560
 1.5230	14.6320
 1.5240	14.7090
 1.5250	14.7860
 1.5260	14.8620
 1.5270	14.9370
 1.5280	15.0130
 1.5290	15.0870
 1.5300	15.1610
 1.5310	15.2340
 1.5320	15.3060
 1.5330	15.3780
 1.5340	15.4490
 1.5350	15.5180
 1.5360	15.5880
 1.5370	15.6560
 1.5380	15.7240
 1.5390	15.7940
 1.5400	15.8620
 1.5410	15.9300
 1.5420	15.9980
 1.5430	16.0640
 1.5440	16.1300
 1.5450	16.1960
 1.5460	16.2610
 1.5470	16.3260
 1.5480	16.3900
 1.5490	16.4550
 1.5500	16.5190
 1.5510	16.5830
 1.5520	16.6460
 1.5530	16.7090
 1.5540	16.7720
 1.5550	16.8350
 1.5560	16.8970
 1.5570	16.9580
 1.5580	17.0190
 1.5590	17.0800
 1.5600	17.1410
 1.5610	17.2010
 1.5620	17.2600
 1.5630	17.3190
 1.5640	17.3760
 1.5650	17.4350
 1.5660	17.4930
 1.5670	17.5500
 1.5680	17.6090
 1.5690	17.6670
 1.5700	17.7250
 1.5710	17.7820
 1.5720	17.8390
 1.5730	17.8970
 1.5740	17.9530
 1.5750	18.0100
 1.5760	18.0680
 1.5770	18.1240
 1.5780	18.1800
 1.5790	18.2370
 1.5800	18.2930
 1.5810	18.3510
 1.5820	18.4090
 1.5830	18.4660
 1.5840	18.5250
 1.5850	18.5820
 1.5860	18.6380
 1.5870	18.6950
 1.5880	18.7520
 1.5890	18.8110
 1.5900	18.8700
 1.5910	18.9280
 1.5920	18.9880
 1.5930	19.0460
 1.5940	19.1060
 1.5950	19.1660
 1.5960	19.2260
 1.5970	19.2850
 1.5980	19.3440
 1.5990	19.4020
 1.6000	19.4630
 1.6010	19.5230
 1.6020	19.5830
 1.6030	19.6430
 1.6040	19.7020
 1.6050	19.7610
 1.6060	19.8200
 1.6070	19.8790
 1.6080	19.9370
 1.6090	19.9940
 1.6100	20.0500
 1.6110	20.1070
 1.6120	20.1620
 1.6130	20.2190
 1.6140	20.2750
 1.6150	20.3290
 1.6160	20.3840
 1.6170	20.4360
 1.6180	20.4880
 1.6190	20.5400
 1.6200	20.5880
 1.6210	20.6370
 1.6220	20.6840
 1.6230	20.7310
 1.6240	20.7780
 1.6250	20.8210
 1.6260	20.8630
 1.6270	20.9050
 1.6280	20.9450
 1.6290	20.9840
 1.6300	21.0240
 1.6310	21.0620
 1.6320	21.0980
 1.6330	21.1340
 1.6340	21.1670
 1.6350	21.2020
 1.6360	21.2360
 1.6370	21.2690
 1.6380	21.3030
 1.6390	21.3350
 1.6400	21.3660
 1.6410	21.3970
 1.6420	21.4270
 1.6430	21.4550
 1.6440	21.4830
 1.6450	21.5080
 1.6460	21.5300
 1.6470	21.5510
 1.6480	21.5680
 1.6490	21.5820
 1.6500	21.5940
 1.6510	21.6030
 1.6520	21.6110
 1.6530	21.6170
 1.6540	21.6180
 1.6550	21.6190
 1.6560	21.6160
 1.6570	21.6120
 1.6580	21.6060
 1.6590	21.5980
 1.6600	21.5910
 1.6610	21.5840
 1.6620	21.5750
 1.6630	21.5680
 1.6640	21.5590
 1.6650	21.5490
 1.6660	21.5410
 1.6670	21.5320
 1.6680	21.5200
 1.6690	21.5080
 1.6700	21.4960
 1.6710	21.4830
 1.6720	21.4680
 1.6730	21.4520
 1.6740	21.4320
 1.6750	21.4070
 1.6760	21.3800
 1.6770	21.3510
 1.6780	21.3180
 1.6790	21.2830
 1.6800	21.2450
 1.6810	21.2000
 1.6820	21.1520
 1.6830	21.1010
 1.6840	21.0450
 1.6850	20.9860
 1.6860	20.9240
 1.6870	20.8580
 1.6880	20.7900
 1.6890	20.7200
 1.6900	20.6480
 1.6910	20.5740
 1.6920	20.5000
 1.6930	20.4240
 1.6940	20.3500
 1.6950	20.2760
 1.6960	20.2050
 1.6970	20.1370
 1.6980	20.0690
 1.6990	20.0010
 1.7000	19.9340
 1.7010	19.8680
 1.7020	19.8010
 1.7030	19.7350
 1.7040	19.6690
 1.7050	19.6020
 1.7060	19.5340
 1.7070	19.4660
 1.7080	19.4000
 1.7090	19.3320
 1.7100	19.2680
 1.7110	19.2060
 1.7120	19.1480
 1.7130	19.0950
 1.7140	19.0460
 1.7150	19.0010
 1.7160	18.9590
 1.7170	18.9210
 1.7180	18.8860
 1.7190	18.8540
 1.7200	18.8260
 1.7210	18.8010
 1.7220	18.7760
 1.7230	18.7530
 1.7240	18.7300
 1.7250	18.7090
 1.7260	18.6910
 1.7270	18.6740
 1.7280	18.6590
 1.7290	18.6460
 1.7300	18.6340
 1.7310	18.6220
 1.7320	18.6090
 1.7330	18.5960
 1.7340	18.5840
 1.7350	18.5680
 1.7360	18.5510
 1.7370	18.5300
 1.7380	18.5060
 1.7390	18.4780
 1.7400	18.4470
 1.7410	18.4120
 1.7420	18.3710
 1.7430	18.3290
 1.7440	18.2840
 1.7450	18.2370
 1.7460	18.1890
 1.7470	18.1390
 1.7480	18.0870
 1.7490	18.0380
 1.7500	17.9880
 1.7510	17.9420
 1.7520	17.9000
 1.7530	17.8580
 1.7540	17.8170
 1.7550	17.7790
 1.7560	17.7430
 1.7570	17.7110
 1.7580	17.6820
 1.7590	17.6540
 1.7600	17.6270
 1.7610	17.6000
 1.7620	17.5750
 1.7630	17.5530
 1.7640	17.5320
 1.7650	17.5130
 1.7660	17.4950
 1.7670	17.4790
 1.7680	17.4620
 1.7690	17.4460
 1.7700	17.4310
 1.7710	17.4150
 1.7720	17.4000
 1.7730	17.3840
 1.7740	17.3700
 1.7750	17.3560
 1.7760	17.3440
 1.7770	17.3330
 1.7780	17.3250
 1.7790	17.3200
 1.7800	17.3180
 1.7810	17.3190
 1.7820	17.3220
 1.7830	17.3270
 1.7840	17.3360
 1.7850	17.3480
 1.7860	17.3610
 1.7870	17.3750
 1.7880	17.3900
 1.7890	17.4080
 1.7900	17.4280
 1.7910	17.4460
 1.7920	17.4640
 1.7930	17.4820
 1.7940	17.4970
 1.7950	17.5150
 1.7960	17.5350
 1.7970	17.5550
 1.7980	17.5760
 1.7990	17.5950
 1.8000	17.6130
 1.8010	17.6310
 1.8020	17.6490
 1.8030	17.6670
 1.8040	17.6850
 1.8050	17.7030
 1.8060	17.7210
 1.8070	17.7370
 1.8080	17.7530
 1.8090	17.7690
 1.8100	17.7840
 1.8110	17.8000
 1.8120	17.8160
 1.8130	17.8280
 1.8140	17.8390
 1.8150	17.8500
 1.8160	17.8600
 1.8170	17.8720
 1.8180	17.8850
 1.8190	17.8930
 1.8200	17.9030
 1.8210	17.9110
 1.8220	17.9190
 1.8230	17.9290
 1.8240	17.9360
 1.8250	17.9410
 1.8260	17.9450
 1.8270	17.9480
 1.8280	17.9510
 1.8290	17.9540
 1.8300	17.9130
 1.8310	17.8290
 1.8320	17.7800
 1.8330	17.7740
 1.8340	17.7630
 1.8350	17.7460
 1.8360	17.7300
 1.8370	17.7110
 1.8380	17.6900
 1.8390	17.6640
 1.8400	17.6360
 1.8410	17.6020
 1.8420	17.5630
 1.8430	17.5170
 1.8440	17.4700
 1.8450	17.4160
 1.8460	17.3570
 1.8470	17.2930
 1.8480	17.2190
 1.8490	17.1410
 1.8500	17.0570
 1.8510	16.9680
 1.8520	16.8670
 1.8530	16.7580
 1.8540	16.6400
 1.8550	16.5090
 1.8560	16.3710
 1.8570	16.2280
 1.8580	16.0720
 1.8590	15.9060
 1.8600	15.7300
 1.8610	15.5460
 1.8620	15.3500
 1.8630	15.1430
 1.8640	14.9270
 1.8650	14.6990
 1.8660	14.4580
 1.8670	14.2060
 1.8680	13.9420
 1.8690	13.6670
 1.8700	13.3800
 1.8710	13.0820
 1.8720	12.7800
 1.8730	12.4710
 1.8740	12.1510
 1.8750	11.8280
 1.8760	11.4990
 1.8770	11.1670
 1.8780	10.8370
 1.8790	10.5070
 1.8800	10.1820
 1.8810	 9.8590
 1.8820	 9.5390
 1.8830	 9.2190
 1.8840	 8.9040
 1.8850	 8.5950
 1.8860	 8.2900
 1.8870	 7.9950
 1.8880	 7.7070
 1.8890	 7.4310
 1.8900	 7.1610
 1.8910	 6.9080
 1.8920	 6.6640
 1.8930	 6.4360
 1.8940	 6.2190
 1.8950	 6.0160
 1.8960	 5.8250
 1.8970	 5.6450
 1.8980	 5.4800
 1.8990	 5.3240
 1.9000	 5.1800
 1.9010	 5.0510
 1.9020	 4.9320
 1.9030	 4.8200
 1.9040	 4.7210
 1.9050	 4.6300
 1.9060	 4.5450
 1.9070	 4.4690
 1.9080	 4.4010
 1.9090	 4.3360
 1.9100	 4.2810
 1.9110	 4.2300
 1.9120	 4.1840
 1.9130	 4.1420
 1.9140	 4.1070
 1.9150	 4.0750
 1.9160	 4.0430
 1.9170	 4.0190
 1.9180	 3.9920
 1.9190	 3.9700
 1.9200	 3.9510
 1.9210	 3.9310
 1.9220	 3.9190
 1.9230	 3.9110
 1.9240	 3.9000
 1.9250	 3.8920
 1.9260	 3.8880
 1.9270	 3.8810
 1.9280	 3.8790
 1.9290	 3.8770
 1.9300	 3.8790
 1.9310	 3.8800
 1.9320	 3.8860
 1.9330	 3.8910
 1.9340	 3.8930
 1.9350	 3.9010
 1.9360	 3.9090
 1.9370	 3.9150
 1.9380	 3.9290
 1.9390	 3.9440
 1.9400	 3.9550
 1.9410	 3.9650
 1.9420	 3.9800
 1.9430	 3.9940
 1.9440	 4.0110
 1.9450	 4.0290
 1.9460	 4.0470
 1.9470	 4.0640
 1.9480	 4.0850
 1.9490	 4.1060
 1.9500	 4.1300
 1.9510	 4.1500
 1.9520	 4.1740
 1.9530	 4.1940
 1.9540	 4.2170
 1.9550	 4.2410
 1.9560	 4.2660
 1.9570	 4.2910
 1.9580	 4.3190
 1.9590	 4.3450
 1.9600	 4.3650
 1.9610	 4.3910
 1.9620	 4.4180
 1.9630	 4.4440
 1.9640	 4.4720
 1.9650	 4.5010
 1.9660	 4.5290
 1.9670	 4.5540
 1.9680	 4.5830
 1.9690	 4.6140
 1.9700	 4.6450
 1.9710	 4.6790
 1.9720	 4.7110
 1.9730	 4.7440
 1.9740	 4.7750
 1.9750	 4.8090
 1.9760	 4.8410
 1.9770	 4.8750
 1.9780	 4.9110
 1.9790	 4.9480
 1.9800	 4.9870
 1.9810	 5.0240
 1.9820	 5.0610
 1.9830	 5.0970
 1.9840	 5.1300
 1.9850	 5.1660
 1.9860	 5.2040
 1.9870	 5.2380
 1.9880	 5.2750
 1.9890	 5.3120
 1.9900	 5.3520
 1.9910	 5.3910
 1.9920	 5.4290
 1.9930	 5.4690
 1.9940	 5.5060
 1.9950	 5.5420
 1.9960	 5.5790
 1.9970	 5.6200
 1.9980	 5.6580
 1.9990	 5.6960
 2.0000	 5.7350
 2.0010	 5.7750
 2.0020	 5.8130
 2.0030	 5.8500
 2.0040	 5.8890
 2.0050	 5.9260
 2.0060	 5.9630
 2.0070	 5.9990
 2.0080	 6.0360
 2.0090	 6.0710
 2.0100	 6.1050
 2.0110	 6.1410
 2.0120	 6.1780
 2.0130	 6.2120
 2.0140	 6.2470
 2.0150	 6.2840
 2.0160	 6.3200
 2.0170	 6.3530
 2.0180	 6.3860
 2.0190	 6.4200
 2.0200	 6.4540
 2.0210	 6.4860
 2.0220	 6.5160
 2.0230	 6.5430
 2.0240	 6.5750
 2.0250	 6.6080
 2.0260	 6.6360
 2.0270	 6.6640
 2.0280	 6.6920
 2.0290	 6.7190
 2.0300	 6.7390
 2.0310	 6.7630
 2.0320	 6.7870
 2.0330	 6.8120
 2.0340	 6.8360
 2.0350	 6.8580
 2.0360	 6.8770
 2.0370	 6.8990
 2.0380	 6.9180
 2.0390	 6.9390
 2.0400	 6.9590
 2.0410	 6.9810
 2.0420	 6.9980
 2.0430	 7.0220
 2.0440	 7.0390
 2.0450	 7.0560
 2.0460	 7.0720
 2.0470	 7.0850
 2.0480	 7.1010
 2.0490	 7.1180
 2.0500	 7.1350
 2.0510	 7.1500
 2.0520	 7.1640
 2.0530	 7.1760
 2.0540	 7.1890
 2.0550	 7.2040
 2.0560	 7.2200
 2.0570	 7.2350
 2.0580	 7.2510
 2.0590	 7.2660
 2.0600	 7.2810
 2.0610	 7.2930
 2.0620	 7.3010
 2.0630	 7.3140
 2.0640	 7.3240
 2.0650	 7.3390
 2.0660	 7.3570
 2.0670	 7.3720
 2.0680	 7.3850
 2.0690	 7.3980
 2.0700	 7.4100
 2.0710	 7.4230
 2.0720	 7.4330
 2.0730	 7.4490
 2.0740	 7.4620
 2.0750	 7.4760
 2.0760	 7.4910
 2.0770	 7.5080
 2.0780	 7.5220
 2.0790	 7.5360
 2.0800	 7.5500
 2.0810	 7.5630
 2.0820	 7.5770
 2.0830	 7.5930
 2.0840	 7.6090
 2.0850	 7.6230
 2.0860	 7.6410
 2.0870	 7.6570
 2.0880	 7.6720
 2.0890	 7.6880
 2.0900	 7.6990
 2.0910	 7.7150
 2.0920	 7.7290
 2.0930	 7.7430
 2.0940	 7.7620
 2.0950	 7.7790
 2.0960	 7.7970
 2.0970	 7.8130
 2.0980	 7.8260
 2.0990	 7.8420
 2.1000	 7.8550
 2.1010	 7.8730
 2.1020	 7.8910
 2.1030	 7.9090
 2.1040	 7.9280
 2.1050	 7.9460
 2.1060	 7.9630
 2.1070	 7.9790
 2.1080	 7.9960
 2.1090	 8.0100
 2.1100	 8.0280
 2.1110	 8.0480
 2.1120	 8.0660
 2.1130	 8.0810
 2.1140	 8.0990
 2.1150	 8.1140
 2.1160	 8.1310
 2.1170	 8.1540
 2.1180	 8.1750
 2.1190	 8.1960
 2.1200	 8.2130
 2.1210	 8.2320
 2.1220	 8.2510
 2.1230	 8.2690
 2.1240	 8.2870
 2.1250	 8.3080
 2.1260	 8.3320
 2.1270	 8.3510
 2.1280	 8.3730
 2.1290	 8.3920
 2.1300	 8.4100
 2.1310	 8.4270
 2.1320	 8.4450
 2.1330	 8.4660
 2.1340	 8.4870
 2.1350	 8.5090
 2.1360	 8.5310
 2.1370	 8.5520
 2.1380	 8.5700
 2.1390	 8.5900
 2.1400	 8.6080
 2.1410	 8.6270
 2.1420	 8.6460
 2.1430	 8.6630
 2.1440	 8.6840
 2.1450	 8.7080
 2.1460	 8.7310
 2.1470	 8.7610
 2.1480	 8.7860
 2.1490	 8.8060
 2.1500	 8.8270
 2.1510	 8.8470
 2.1520	 8.8700
 2.1530	 8.8900
 2.1540	 8.9100
 2.1550	 8.9350
 2.1560	 8.9570
 2.1570	 8.9790
 2.1580	 9.0020
 2.1590	 9.0220
 2.1600	 9.0420
 2.1610	 9.0650
 2.1620	 9.0880
 2.1630	 9.1100
 2.1640	 9.1330
 2.1650	 9.1560
 2.1660	 9.1750
 2.1670	 9.1950
 2.1680	 9.2160
 2.1690	 9.2380
 2.1700	 9.2590
 2.1710	 9.2790
 2.1720	 9.3030
 2.1730	 9.3260
 2.1740	 9.3500
 2.1750	 9.3740
 2.1760	 9.3970
 2.1770	 9.4200
 2.1780	 9.4380
 2.1790	 9.4570
 2.1800	 9.4740
 2.1810	 9.4930
 2.1820	 9.5120
 2.1830	 9.5350
 2.1840	 9.5560
 2.1850	 9.5810
 2.1860	 9.6020
 2.1870	 9.6230
 2.1880	 9.6450
 2.1890	 9.6640
 2.1900	 9.6850
 2.1910	 9.7080
 2.1920	 9.7280
 2.1930	 9.7460
 2.1940	 9.7640
 2.1950	 9.7830
 2.1960	 9.8040
 2.1970	 9.8270
 2.1980	 9.8470
 2.1990	 9.8660
 2.2000	 9.8820
 2.2010	 9.8930
 2.2020	 9.9070
 2.2030	 9.9250
 2.2040	 9.9370
 2.2050	 9.9510
 2.2060	 9.9620
 2.2070	 9.9730
 2.2080	 9.9790
 2.2090	 9.9910
 2.2100	10.0050
 2.2110	10.0170
 2.2120	10.0300
 2.2130	10.0400
 2.2140	10.0450
 2.2150	10.0510
 2.2160	10.0580
 2.2170	10.0610
 2.2180	10.0600
 2.2190	10.0590
 2.2200	10.0570
 2.2210	10.0540
 2.2220	10.0480
 2.2230	10.0420
 2.2240	10.0370
 2.2250	10.0260
 2.2260	10.0120
 2.2270	 9.9960
 2.2280	 9.9760
 2.2290	 9.9550
 2.2300	 9.9380
 2.2310	 9.9160
 2.2320	 9.8860
 2.2330	 9.8590
 2.2340	 9.8290
 2.2350	 9.7930
 2.2360	 9.7560
 2.2370	 9.7210
 2.2380	 9.6840
 2.2390	 9.6410
 2.2400	 9.5990
 2.2410	 9.5530
 2.2420	 9.5060
 2.2430	 9.4570
 2.2440	 9.4080
 2.2450	 9.3630
 2.2460	 9.3110
 2.2470	 9.2550
 2.2480	 9.2000
 2.2490	 9.1370
 2.2500	 9.0780
 2.2510	 9.0230
 2.2520	 8.9630
 2.2530	 8.9000
 2.2540	 8.8360
 2.2550	 8.7690
 2.2560	 8.7020
 2.2570	 8.6350
 2.2580	 8.5690
 2.2590	 8.5000
 2.2600	 8.4350
 2.2610	 8.3710
 2.2620	 8.3050
 2.2630	 8.2460
 2.2640	 8.1890
 2.2650	 8.1270
 2.2660	 8.0700
 2.2670	 8.0140
 2.2680	 7.9590
 2.2690	 7.9050
 2.2700	 7.8520
 2.2710	 7.8070
 2.2720	 7.7590
 2.2730	 7.7190
 2.2740	 7.6930
 2.2750	 7.6590
 2.2760	 7.6260
 2.2770	 7.5910
 2.2780	 7.5530
 2.2790	 7.5190
 2.2800	 7.4860
 2.2810	 7.4550
 2.2820	 7.4260
 2.2830	 7.3960
 2.2840	 7.3710
 2.2850	 7.3400
 2.2860	 7.3080
 2.2870	 7.2770
 2.2880	 7.2410
 2.2890	 7.2080
 2.2900	 7.1730
 2.2910	 7.1400
 2.2920	 7.1080
 2.2930	 7.0730
 2.2940	 7.0430
 2.2950	 7.0080
 2.2960	 6.9710
 2.2970	 6.9370
 2.2980	 6.9020
 2.2990	 6.8690
 2.3000	 6.8380
 2.3010	 6.8050
 2.3020	 6.7750
 2.3030	 6.7460
 2.3040	 6.7190
 2.3050	 6.6930
 2.3060	 6.6680
 2.3070	 6.6430
 2.3080	 6.6190
 2.3090	 6.6010
 2.3100	 6.5910
 2.3110	 6.5890
 2.3120	 6.5880
 2.3130	 6.5930
 2.3140	 6.5950
 2.3150	 6.6030
 2.3160	 6.6060
 2.3170	 6.6130
 2.3180	 6.6140
 2.3190	 6.6100
 2.3200	 6.6100
 2.3210	 6.6020
 2.3220	 6.5990
 2.3230	 6.5950
 2.3240	 6.5860
 2.3250	 6.5810
 2.3260	 6.5670
 2.3270	 6.5480
 2.3280	 6.5310
 2.3290	 6.5090
 2.3300	 6.4890
 2.3310	 6.4740
 2.3320	 6.4540
 2.3330	 6.4310
 2.3340	 6.4140
 2.3350	 6.4010
 2.3360	 6.3860
 2.3370	 6.3720
 2.3380	 6.3570
 2.3390	 6.3410
 2.3400	 6.3230
 2.3410	 6.3090
 2.3420	 6.2900
 2.3430	 6.2670
 2.3440	 6.2470
 2.3450	 6.2250
 2.3460	 6.2060
 2.3470	 6.1830
 2.3480	 6.1640
 2.3490	 6.1480
 2.3500	 6.1310
 2.3510	 6.1170
 2.3520	 6.1070
 2.3530	 6.1030
 2.3540	 6.0950
 2.3550	 6.0960
 2.3560	 6.0920
 2.3570	 6.0820
 2.3580	 6.0750
 2.3590	 6.0660
 2.3600	 6.0540
 2.3610	 6.0450
 2.3620	 6.0350
 2.3630	 6.0240
 2.3640	 6.0110
 2.3650	 6.0010
 2.3660	 5.9830
 2.3670	 5.9700
 2.3680	 5.9620
 2.3690	 5.9430
 2.3700	 5.9290
 2.3710	 5.9140
 2.3720	 5.8980
 2.3730	 5.8860
 2.3740	 5.8810
 2.3750	 5.8740
 2.3760	 5.8540
 2.3770	 5.8350
 2.3780	 5.8090
 2.3790	 5.7790
 2.3800	 5.7640
 2.3810	 5.7500
 2.3820	 5.7390
 2.3830	 5.7340
 2.3840	 5.7290
 2.3850	 5.7200
 2.3860	 5.7090
 2.3870	 5.6980
 2.3880	 5.6860
 2.3890	 5.6720
 2.3900	 5.6570
 2.3910	 5.6390
 2.3920	 5.6230
 2.3930	 5.6090
 2.3940	 5.5910
 2.3950	 5.5630
 2.3960	 5.5370
 2.3970	 5.5080
 2.3980	 5.4820
 2.3990	 5.4690
 2.4000	 5.4590
 2.4010	 5.4460
 2.4020	 5.4320
 2.4030	 5.4190
 2.4040	 5.3900
 2.4050	 5.3550
 2.4060	 5.3280
 2.4070	 5.3080
 2.4080	 5.2920
 2.4090	 5.2920
 2.4100	 5.2860
 2.4110	 5.2740
 2.4120	 5.2560
 2.4130	 5.2260
 2.4140	 5.2050
 2.4150	 5.1810
 2.4160	 5.1600
 2.4170	 5.1410
 2.4180	 5.1200
 2.4190	 5.0930
 2.4200	 5.0640
 2.4210	 5.0460
 2.4220	 5.0280
 2.4230	 5.0100
 2.4240	 4.9960
 2.4250	 4.9690
 2.4260	 4.9460
 2.4270	 4.9220
 2.4280	 4.8890
 2.4290	 4.8610
 2.4300	 4.8350
 2.4310	 4.8040
 2.4320	 4.7850
 2.4330	 4.7620
 2.4340	 4.7330
 2.4350	 4.7080
 2.4360	 4.6860
 2.4370	 4.6720
 2.4380	 4.6630
 2.4390	 4.6440
 2.4400	 4.6290
 2.4410	 4.5950
 2.4420	 4.5590
 2.4430	 4.5330
 2.4440	 4.5150
 2.4450	 4.5060
 2.4460	 4.4970
 2.4470	 4.4780
 2.4480	 4.4440
 2.4490	 4.4100
 2.4500	 4.3760
 2.4510	 4.3390
 2.4520	 4.3210
 2.4530	 4.3070
 2.4540	 4.2890
 2.4550	 4.2790
 2.4560	 4.2580
 2.4570	 4.2200
 2.4580	 4.1880
 2.4590	 4.1640
 2.4600	 4.1560
 2.4610	 4.1640
 2.4620	 4.1510
 2.4630	 4.1460
 2.4640	 4.1260
 2.4650	 4.0780
 2.4660	 4.0710
 2.4670	 4.0560
 2.4680	 4.0270
 2.4690	 4.0180
 2.4700	 3.9990
 2.4710	 3.9680
 2.4720	 3.9480
 2.4730	 3.9370
 2.4740	 3.9190
 2.4750	 3.9010
 2.4760	 3.8750
 2.4770	 3.8210
 2.4780	 3.8160
 2.4790	 3.8420
 2.4800	 3.8470
 2.4810	 3.8760
 2.4820	 3.8610
 2.4830	 3.8350
 2.4840	 3.8130
 2.4850	 3.7990
 2.4860	 3.7950
 2.4870	 3.7950
 2.4880	 3.7990
 2.4890	 3.8170
 2.4900	 3.8220
 2.4910	 3.8030
 2.4920	 3.7780
 2.4930	 3.7340
 2.4940	 3.6960
 2.4950	 3.6850
 2.4960	 3.6730
 2.4970	 3.6640
 2.4980	 3.6810
 2.4990	 3.7450
 2.5000	 3.7660
