Name: Salix babylonica
Type: vegetation
Class: Tree
Genus: Salix
Species: babylonica
Sample No.: JPL185
Owner: JPL
Wavelength Range: VSWIR
Origin: 34.12829; -118.11638; WGS84
Collection Date: 10/3/2016
Description: Samples were collected at the Huntington Garden in San Marino California as part of a JPL Subcontract studying HyTES imagery. Samples were taken to JPL and processed within 48 hours of collection. The same leaves were processed in the Nicolet and then measured using the ASD.
Measurement: Bidirectional reflectance
First Column: X
Second Column: Y
X Units: Wavelength (micrometer)
Y Units: Reflectance (percentage)
First X Value: 0.35
Last X Value: 2.5
Number of X Values: 2151
Additional Information: vegetation.tree.salix.babylonica.vswir.jpl185.jpl.asd.ancillary.txt

 0.3500	 6.9280
 0.3510	 6.9130
 0.3520	 6.8440
 0.3530	 6.7930
 0.3540	 6.8130
 0.3550	 6.7750
 0.3560	 6.7120
 0.3570	 6.6840
 0.3580	 6.7430
 0.3590	 6.7370
 0.3600	 6.6690
 0.3610	 6.5970
 0.3620	 6.6210
 0.3630	 6.6890
 0.3640	 6.7150
 0.3650	 6.6610
 0.3660	 6.7170
 0.3670	 6.6910
 0.3680	 6.6170
 0.3690	 6.6650
 0.3700	 6.6440
 0.3710	 6.5870
 0.3720	 6.5570
 0.3730	 6.6240
 0.3740	 6.6480
 0.3750	 6.6350
 0.3760	 6.6280
 0.3770	 6.5790
 0.3780	 6.5310
 0.3790	 6.5180
 0.3800	 6.5590
 0.3810	 6.5750
 0.3820	 6.5620
 0.3830	 6.5380
 0.3840	 6.5390
 0.3850	 6.5300
 0.3860	 6.5240
 0.3870	 6.5410
 0.3880	 6.5290
 0.3890	 6.5140
 0.3900	 6.5070
 0.3910	 6.4940
 0.3920	 6.5520
 0.3930	 6.5660
 0.3940	 6.4780
 0.3950	 6.4680
 0.3960	 6.4840
 0.3970	 6.4970
 0.3980	 6.4940
 0.3990	 6.4910
 0.4000	 6.4810
 0.4010	 6.4720
 0.4020	 6.4890
 0.4030	 6.4910
 0.4040	 6.5000
 0.4050	 6.5230
 0.4060	 6.4580
 0.4070	 6.4410
 0.4080	 6.4730
 0.4090	 6.4680
 0.4100	 6.4740
 0.4110	 6.4880
 0.4120	 6.5000
 0.4130	 6.5010
 0.4140	 6.4930
 0.4150	 6.4900
 0.4160	 6.5030
 0.4170	 6.5130
 0.4180	 6.5240
 0.4190	 6.5320
 0.4200	 6.5300
 0.4210	 6.5250
 0.4220	 6.5240
 0.4230	 6.5300
 0.4240	 6.5360
 0.4250	 6.5370
 0.4260	 6.5370
 0.4270	 6.5380
 0.4280	 6.5310
 0.4290	 6.5270
 0.4300	 6.5280
 0.4310	 6.5220
 0.4320	 6.5100
 0.4330	 6.4980
 0.4340	 6.4930
 0.4350	 6.4910
 0.4360	 6.4830
 0.4370	 6.4770
 0.4380	 6.4890
 0.4390	 6.5010
 0.4400	 6.5120
 0.4410	 6.5230
 0.4420	 6.5410
 0.4430	 6.5450
 0.4440	 6.5390
 0.4450	 6.5370
 0.4460	 6.5460
 0.4470	 6.5530
 0.4480	 6.5540
 0.4490	 6.5550
 0.4500	 6.5580
 0.4510	 6.5630
 0.4520	 6.5690
 0.4530	 6.5670
 0.4540	 6.5710
 0.4550	 6.5770
 0.4560	 6.5740
 0.4570	 6.5790
 0.4580	 6.5830
 0.4590	 6.5830
 0.4600	 6.5890
 0.4610	 6.5880
 0.4620	 6.5860
 0.4630	 6.5920
 0.4640	 6.5940
 0.4650	 6.5950
 0.4660	 6.5960
 0.4670	 6.5970
 0.4680	 6.5980
 0.4690	 6.5990
 0.4700	 6.5990
 0.4710	 6.5950
 0.4720	 6.6020
 0.4730	 6.6110
 0.4740	 6.6070
 0.4750	 6.6100
 0.4760	 6.6100
 0.4770	 6.6030
 0.4780	 6.6070
 0.4790	 6.6060
 0.4800	 6.6070
 0.4810	 6.6170
 0.4820	 6.6140
 0.4830	 6.6070
 0.4840	 6.6030
 0.4850	 6.6030
 0.4860	 6.6040
 0.4870	 6.6080
 0.4880	 6.6130
 0.4890	 6.6120
 0.4900	 6.6170
 0.4910	 6.6270
 0.4920	 6.6310
 0.4930	 6.6370
 0.4940	 6.6470
 0.4950	 6.6590
 0.4960	 6.6700
 0.4970	 6.6790
 0.4980	 6.6910
 0.4990	 6.7080
 0.5000	 6.7210
 0.5010	 6.7370
 0.5020	 6.7580
 0.5030	 6.7790
 0.5040	 6.8040
 0.5050	 6.8300
 0.5060	 6.8540
 0.5070	 6.8800
 0.5080	 6.9150
 0.5090	 6.9550
 0.5100	 6.9930
 0.5110	 7.0340
 0.5120	 7.0860
 0.5130	 7.1500
 0.5140	 7.2140
 0.5150	 7.2790
 0.5160	 7.3540
 0.5170	 7.4450
 0.5180	 7.5420
 0.5190	 7.6400
 0.5200	 7.7440
 0.5210	 7.8570
 0.5220	 7.9720
 0.5230	 8.0900
 0.5240	 8.2110
 0.5250	 8.3310
 0.5260	 8.4490
 0.5270	 8.5630
 0.5280	 8.6740
 0.5290	 8.7790
 0.5300	 8.8770
 0.5310	 8.9670
 0.5320	 9.0540
 0.5330	 9.1300
 0.5340	 9.1990
 0.5350	 9.2660
 0.5360	 9.3200
 0.5370	 9.3670
 0.5380	 9.4090
 0.5390	 9.4430
 0.5400	 9.4690
 0.5410	 9.4870
 0.5420	 9.5030
 0.5430	 9.5240
 0.5440	 9.5470
 0.5450	 9.5740
 0.5460	 9.6070
 0.5470	 9.6420
 0.5480	 9.6740
 0.5490	 9.7000
 0.5500	 9.7190
 0.5510	 9.7320
 0.5520	 9.7390
 0.5530	 9.7410
 0.5540	 9.7270
 0.5550	 9.7040
 0.5560	 9.6730
 0.5570	 9.6330
 0.5580	 9.5820
 0.5590	 9.5250
 0.5600	 9.4630
 0.5610	 9.3950
 0.5620	 9.3240
 0.5630	 9.2500
 0.5640	 9.1750
 0.5650	 9.0990
 0.5660	 9.0250
 0.5670	 8.9540
 0.5680	 8.8750
 0.5690	 8.7940
 0.5700	 8.7120
 0.5710	 8.6310
 0.5720	 8.5520
 0.5730	 8.4780
 0.5740	 8.4100
 0.5750	 8.3430
 0.5760	 8.2770
 0.5770	 8.2130
 0.5780	 8.1540
 0.5790	 8.0980
 0.5800	 8.0480
 0.5810	 8.0030
 0.5820	 7.9630
 0.5830	 7.9290
 0.5840	 7.8990
 0.5850	 7.8700
 0.5860	 7.8460
 0.5870	 7.8280
 0.5880	 7.8130
 0.5890	 7.8000
 0.5900	 7.7870
 0.5910	 7.7700
 0.5920	 7.7530
 0.5930	 7.7420
 0.5940	 7.7340
 0.5950	 7.7260
 0.5960	 7.7160
 0.5970	 7.7030
 0.5980	 7.6870
 0.5990	 7.6680
 0.6000	 7.6490
 0.6010	 7.6360
 0.6020	 7.6220
 0.6030	 7.6050
 0.6040	 7.5840
 0.6050	 7.5660
 0.6060	 7.5470
 0.6070	 7.5230
 0.6080	 7.4970
 0.6090	 7.4660
 0.6100	 7.4240
 0.6110	 7.3720
 0.6120	 7.3460
 0.6130	 7.3360
 0.6140	 7.3280
 0.6150	 7.3050
 0.6160	 7.2840
 0.6170	 7.2670
 0.6180	 7.2480
 0.6190	 7.2280
 0.6200	 7.2100
 0.6210	 7.1940
 0.6220	 7.1820
 0.6230	 7.1720
 0.6240	 7.1630
 0.6250	 7.1540
 0.6260	 7.1510
 0.6270	 7.1460
 0.6280	 7.1420
 0.6290	 7.1430
 0.6300	 7.1350
 0.6310	 7.1290
 0.6320	 7.1260
 0.6330	 7.1240
 0.6340	 7.1170
 0.6350	 7.1050
 0.6360	 7.0910
 0.6370	 7.0780
 0.6380	 7.0610
 0.6390	 7.0410
 0.6400	 7.0220
 0.6410	 7.0000
 0.6420	 6.9770
 0.6430	 6.9560
 0.6440	 6.9370
 0.6450	 6.9180
 0.6460	 6.9000
 0.6470	 6.8850
 0.6480	 6.8710
 0.6490	 6.8590
 0.6500	 6.8500
 0.6510	 6.8450
 0.6520	 6.8410
 0.6530	 6.8380
 0.6540	 6.8350
 0.6550	 6.8330
 0.6560	 6.8290
 0.6570	 6.8230
 0.6580	 6.8160
 0.6590	 6.8090
 0.6600	 6.8040
 0.6610	 6.8010
 0.6620	 6.7920
 0.6630	 6.7840
 0.6640	 6.7790
 0.6650	 6.7770
 0.6660	 6.7800
 0.6670	 6.7840
 0.6680	 6.7880
 0.6690	 6.7930
 0.6700	 6.8040
 0.6710	 6.8170
 0.6720	 6.8310
 0.6730	 6.8460
 0.6740	 6.8660
 0.6750	 6.8880
 0.6760	 6.9110
 0.6770	 6.9330
 0.6780	 6.9610
 0.6790	 6.9950
 0.6800	 7.0310
 0.6810	 7.0650
 0.6820	 7.1020
 0.6830	 7.1430
 0.6840	 7.1840
 0.6850	 7.2230
 0.6860	 7.2660
 0.6870	 7.3160
 0.6880	 7.3710
 0.6890	 7.4350
 0.6900	 7.5130
 0.6910	 7.6070
 0.6920	 7.7260
 0.6930	 7.8770
 0.6940	 8.0630
 0.6950	 8.2910
 0.6960	 8.5650
 0.6970	 8.8890
 0.6980	 9.2630
 0.6990	 9.6890
 0.7000	10.1630
 0.7010	10.6820
 0.7020	11.2440
 0.7030	11.8440
 0.7040	12.4800
 0.7050	13.1510
 0.7060	13.8480
 0.7070	14.5740
 0.7080	15.3250
 0.7090	16.1020
 0.7100	16.9000
 0.7110	17.7260
 0.7120	18.5750
 0.7130	19.4440
 0.7140	20.3320
 0.7150	21.2390
 0.7160	22.1600
 0.7170	23.0930
 0.7180	24.0370
 0.7190	24.9900
 0.7200	25.9460
 0.7210	26.9040
 0.7220	27.8570
 0.7230	28.8010
 0.7240	29.7340
 0.7250	30.6530
 0.7260	31.5540
 0.7270	32.4320
 0.7280	33.2860
 0.7290	34.1120
 0.7300	34.9070
 0.7310	35.6710
 0.7320	36.4040
 0.7330	37.1050
 0.7340	37.7730
 0.7350	38.4040
 0.7360	39.0040
 0.7370	39.5710
 0.7380	40.1050
 0.7390	40.6060
 0.7400	41.0740
 0.7410	41.5120
 0.7420	41.9200
 0.7430	42.2980
 0.7440	42.6470
 0.7450	42.9690
 0.7460	43.2670
 0.7470	43.5410
 0.7480	43.7920
 0.7490	44.0200
 0.7500	44.2280
 0.7510	44.4180
 0.7520	44.5910
 0.7530	44.7470
 0.7540	44.8910
 0.7550	45.0210
 0.7560	45.1370
 0.7570	45.2430
 0.7580	45.3400
 0.7590	45.4290
 0.7600	45.5100
 0.7610	45.5810
 0.7620	45.6450
 0.7630	45.7030
 0.7640	45.7540
 0.7650	45.8030
 0.7660	45.8460
 0.7670	45.8820
 0.7680	45.9150
 0.7690	45.9450
 0.7700	45.9740
 0.7710	45.9990
 0.7720	46.0210
 0.7730	46.0430
 0.7740	46.0630
 0.7750	46.0780
 0.7760	46.0950
 0.7770	46.1120
 0.7780	46.1280
 0.7790	46.1420
 0.7800	46.1530
 0.7810	46.1650
 0.7820	46.1770
 0.7830	46.1850
 0.7840	46.1930
 0.7850	46.2010
 0.7860	46.2090
 0.7870	46.2150
 0.7880	46.2190
 0.7890	46.2230
 0.7900	46.2250
 0.7910	46.2240
 0.7920	46.2260
 0.7930	46.2300
 0.7940	46.2300
 0.7950	46.2290
 0.7960	46.2270
 0.7970	46.2230
 0.7980	46.2170
 0.7990	46.2130
 0.8000	46.2080
 0.8010	46.1990
 0.8020	46.1910
 0.8030	46.1830
 0.8040	46.1750
 0.8050	46.1660
 0.8060	46.1570
 0.8070	46.1460
 0.8080	46.1330
 0.8090	46.1200
 0.8100	46.1060
 0.8110	46.0940
 0.8120	46.0830
 0.8130	46.0690
 0.8140	46.0520
 0.8150	46.0370
 0.8160	46.0240
 0.8170	46.0080
 0.8180	45.9940
 0.8190	45.9810
 0.8200	45.9660
 0.8210	45.9510
 0.8220	45.9380
 0.8230	45.9240
 0.8240	45.9090
 0.8250	45.8950
 0.8260	45.8830
 0.8270	45.8690
 0.8280	45.8530
 0.8290	45.8370
 0.8300	45.8220
 0.8310	45.8070
 0.8320	45.7930
 0.8330	45.7780
 0.8340	45.7650
 0.8350	45.7570
 0.8360	45.7480
 0.8370	45.7390
 0.8380	45.7310
 0.8390	45.7260
 0.8400	45.7190
 0.8410	45.7120
 0.8420	45.7060
 0.8430	45.6980
 0.8440	45.6950
 0.8450	45.6930
 0.8460	45.6890
 0.8470	45.6810
 0.8480	45.6770
 0.8490	45.6790
 0.8500	45.6820
 0.8510	45.6790
 0.8520	45.6760
 0.8530	45.6780
 0.8540	45.6830
 0.8550	45.6830
 0.8560	45.6850
 0.8570	45.6910
 0.8580	45.6930
 0.8590	45.6940
 0.8600	45.6970
 0.8610	45.7030
 0.8620	45.7140
 0.8630	45.7210
 0.8640	45.7270
 0.8650	45.7360
 0.8660	45.7440
 0.8670	45.7500
 0.8680	45.7550
 0.8690	45.7620
 0.8700	45.7730
 0.8710	45.7850
 0.8720	45.7950
 0.8730	45.8070
 0.8740	45.8160
 0.8750	45.8250
 0.8760	45.8350
 0.8770	45.8460
 0.8780	45.8580
 0.8790	45.8720
 0.8800	45.8840
 0.8810	45.8950
 0.8820	45.9030
 0.8830	45.9130
 0.8840	45.9290
 0.8850	45.9470
 0.8860	45.9570
 0.8870	45.9630
 0.8880	45.9720
 0.8890	45.9880
 0.8900	46.0000
 0.8910	46.0100
 0.8920	46.0240
 0.8930	46.0330
 0.8940	46.0450
 0.8950	46.0590
 0.8960	46.0680
 0.8970	46.0770
 0.8980	46.0860
 0.8990	46.0960
 0.9000	46.1090
 0.9010	46.1190
 0.9020	46.1240
 0.9030	46.1280
 0.9040	46.1400
 0.9050	46.1530
 0.9060	46.1610
 0.9070	46.1630
 0.9080	46.1690
 0.9090	46.1760
 0.9100	46.1800
 0.9110	46.1810
 0.9120	46.1900
 0.9130	46.1970
 0.9140	46.2030
 0.9150	46.2070
 0.9160	46.2090
 0.9170	46.2110
 0.9180	46.2110
 0.9190	46.2100
 0.9200	46.2160
 0.9210	46.2150
 0.9220	46.2100
 0.9230	46.2070
 0.9240	46.2020
 0.9250	46.1980
 0.9260	46.1920
 0.9270	46.1810
 0.9280	46.1690
 0.9290	46.1590
 0.9300	46.1520
 0.9310	46.1390
 0.9320	46.1220
 0.9330	46.1090
 0.9340	46.0980
 0.9350	46.0750
 0.9360	46.0610
 0.9370	46.0440
 0.9380	46.0220
 0.9390	46.0070
 0.9400	45.9860
 0.9410	45.9650
 0.9420	45.9420
 0.9430	45.9060
 0.9440	45.8760
 0.9450	45.8520
 0.9460	45.8260
 0.9470	45.7840
 0.9480	45.7480
 0.9490	45.7130
 0.9500	45.6710
 0.9510	45.6370
 0.9520	45.5960
 0.9530	45.5500
 0.9540	45.5050
 0.9550	45.4560
 0.9560	45.4120
 0.9570	45.3720
 0.9580	45.3320
 0.9590	45.2970
 0.9600	45.2600
 0.9610	45.2290
 0.9620	45.2110
 0.9630	45.1700
 0.9640	45.1400
 0.9650	45.1210
 0.9660	45.1040
 0.9670	45.0820
 0.9680	45.0570
 0.9690	45.0340
 0.9700	45.0230
 0.9710	45.0210
 0.9720	45.0130
 0.9730	44.9940
 0.9740	44.9700
 0.9750	44.9570
 0.9760	44.9500
 0.9770	44.9470
 0.9780	44.9460
 0.9790	44.9450
 0.9800	44.9330
 0.9810	44.9190
 0.9820	44.9170
 0.9830	44.9220
 0.9840	44.9150
 0.9850	44.9090
 0.9860	44.9240
 0.9870	44.9250
 0.9880	44.9180
 0.9890	44.9150
 0.9900	44.9240
 0.9910	44.9280
 0.9920	44.9330
 0.9930	44.9370
 0.9940	44.9320
 0.9950	44.9230
 0.9960	44.9270
 0.9970	44.9410
 0.9980	44.9540
 0.9990	44.9660
 1.0000	44.9700
 1.0010	44.1300
 1.0020	44.1380
 1.0030	44.1460
 1.0040	44.1600
 1.0050	44.1750
 1.0060	44.1860
 1.0070	44.1960
 1.0080	44.2040
 1.0090	44.2050
 1.0100	44.2130
 1.0110	44.2280
 1.0120	44.2370
 1.0130	44.2460
 1.0140	44.2560
 1.0150	44.2660
 1.0160	44.2730
 1.0170	44.2870
 1.0180	44.3020
 1.0190	44.3100
 1.0200	44.3190
 1.0210	44.3270
 1.0220	44.3340
 1.0230	44.3410
 1.0240	44.3470
 1.0250	44.3560
 1.0260	44.3660
 1.0270	44.3760
 1.0280	44.3930
 1.0290	44.4020
 1.0300	44.4050
 1.0310	44.4110
 1.0320	44.4160
 1.0330	44.4220
 1.0340	44.4310
 1.0350	44.4410
 1.0360	44.4440
 1.0370	44.4500
 1.0380	44.4550
 1.0390	44.4570
 1.0400	44.4610
 1.0410	44.4650
 1.0420	44.4720
 1.0430	44.4820
 1.0440	44.4880
 1.0450	44.4940
 1.0460	44.5000
 1.0470	44.5050
 1.0480	44.5100
 1.0490	44.5180
 1.0500	44.5240
 1.0510	44.5280
 1.0520	44.5290
 1.0530	44.5330
 1.0540	44.5360
 1.0550	44.5420
 1.0560	44.5500
 1.0570	44.5550
 1.0580	44.5600
 1.0590	44.5660
 1.0600	44.5670
 1.0610	44.5730
 1.0620	44.5830
 1.0630	44.5900
 1.0640	44.5980
 1.0650	44.6040
 1.0660	44.6060
 1.0670	44.6100
 1.0680	44.6130
 1.0690	44.6160
 1.0700	44.6210
 1.0710	44.6290
 1.0720	44.6330
 1.0730	44.6350
 1.0740	44.6400
 1.0750	44.6450
 1.0760	44.6500
 1.0770	44.6570
 1.0780	44.6620
 1.0790	44.6660
 1.0800	44.6700
 1.0810	44.6730
 1.0820	44.6760
 1.0830	44.6750
 1.0840	44.6770
 1.0850	44.6810
 1.0860	44.6840
 1.0870	44.6850
 1.0880	44.6870
 1.0890	44.6880
 1.0900	44.6850
 1.0910	44.6860
 1.0920	44.6910
 1.0930	44.6920
 1.0940	44.6940
 1.0950	44.6930
 1.0960	44.6880
 1.0970	44.6860
 1.0980	44.6830
 1.0990	44.6810
 1.1000	44.6790
 1.1010	44.6760
 1.1020	44.6710
 1.1030	44.6670
 1.1040	44.6630
 1.1050	44.6570
 1.1060	44.6510
 1.1070	44.6450
 1.1080	44.6380
 1.1090	44.6290
 1.1100	44.6210
 1.1110	44.6120
 1.1120	44.6040
 1.1130	44.5950
 1.1140	44.5850
 1.1150	44.5730
 1.1160	44.5600
 1.1170	44.5440
 1.1180	44.5290
 1.1190	44.5130
 1.1200	44.4960
 1.1210	44.4800
 1.1220	44.4610
 1.1230	44.4380
 1.1240	44.4140
 1.1250	44.3850
 1.1260	44.3520
 1.1270	44.3160
 1.1280	44.2770
 1.1290	44.2330
 1.1300	44.1860
 1.1310	44.1350
 1.1320	44.0800
 1.1330	44.0210
 1.1340	43.9550
 1.1350	43.8860
 1.1360	43.8130
 1.1370	43.7360
 1.1380	43.6540
 1.1390	43.5690
 1.1400	43.4810
 1.1410	43.3910
 1.1420	43.3010
 1.1430	43.2110
 1.1440	43.1190
 1.1450	43.0250
 1.1460	42.9340
 1.1470	42.8410
 1.1480	42.7540
 1.1490	42.6690
 1.1500	42.5890
 1.1510	42.5130
 1.1520	42.4420
 1.1530	42.3730
 1.1540	42.3120
 1.1550	42.2580
 1.1560	42.2050
 1.1570	42.1580
 1.1580	42.1140
 1.1590	42.0720
 1.1600	42.0370
 1.1610	42.0020
 1.1620	41.9710
 1.1630	41.9450
 1.1640	41.9190
 1.1650	41.8970
 1.1660	41.8800
 1.1670	41.8630
 1.1680	41.8470
 1.1690	41.8330
 1.1700	41.8230
 1.1710	41.8100
 1.1720	41.7970
 1.1730	41.7840
 1.1740	41.7710
 1.1750	41.7570
 1.1760	41.7440
 1.1770	41.7310
 1.1780	41.7170
 1.1790	41.7030
 1.1800	41.6900
 1.1810	41.6800
 1.1820	41.6680
 1.1830	41.6550
 1.1840	41.6410
 1.1850	41.6250
 1.1860	41.6110
 1.1870	41.5970
 1.1880	41.5840
 1.1890	41.5710
 1.1900	41.5610
 1.1910	41.5500
 1.1920	41.5420
 1.1930	41.5380
 1.1940	41.5330
 1.1950	41.5280
 1.1960	41.5250
 1.1970	41.5220
 1.1980	41.5210
 1.1990	41.5200
 1.2000	41.5200
 1.2010	41.5210
 1.2020	41.5210
 1.2030	41.5230
 1.2040	41.5280
 1.2050	41.5330
 1.2060	41.5380
 1.2070	41.5440
 1.2080	41.5500
 1.2090	41.5580
 1.2100	41.5680
 1.2110	41.5780
 1.2120	41.5890
 1.2130	41.6010
 1.2140	41.6130
 1.2150	41.6250
 1.2160	41.6380
 1.2170	41.6520
 1.2180	41.6640
 1.2190	41.6770
 1.2200	41.6910
 1.2210	41.7070
 1.2220	41.7220
 1.2230	41.7380
 1.2240	41.7560
 1.2250	41.7720
 1.2260	41.7860
 1.2270	41.8000
 1.2280	41.8110
 1.2290	41.8210
 1.2300	41.8320
 1.2310	41.8450
 1.2320	41.8580
 1.2330	41.8700
 1.2340	41.8810
 1.2350	41.8940
 1.2360	41.9040
 1.2370	41.9130
 1.2380	41.9210
 1.2390	41.9290
 1.2400	41.9380
 1.2410	41.9460
 1.2420	41.9560
 1.2430	41.9650
 1.2440	41.9710
 1.2450	41.9760
 1.2460	41.9830
 1.2470	41.9880
 1.2480	41.9930
 1.2490	41.9980
 1.2500	42.0030
 1.2510	42.0080
 1.2520	42.0120
 1.2530	42.0170
 1.2540	42.0220
 1.2550	42.0240
 1.2560	42.0260
 1.2570	42.0270
 1.2580	42.0280
 1.2590	42.0290
 1.2600	42.0320
 1.2610	42.0320
 1.2620	42.0310
 1.2630	42.0280
 1.2640	42.0260
 1.2650	42.0230
 1.2660	42.0190
 1.2670	42.0140
 1.2680	42.0070
 1.2690	42.0000
 1.2700	41.9920
 1.2710	41.9820
 1.2720	41.9710
 1.2730	41.9580
 1.2740	41.9420
 1.2750	41.9280
 1.2760	41.9140
 1.2770	41.8980
 1.2780	41.8850
 1.2790	41.8700
 1.2800	41.8530
 1.2810	41.8370
 1.2820	41.8180
 1.2830	41.8000
 1.2840	41.7810
 1.2850	41.7620
 1.2860	41.7400
 1.2870	41.7190
 1.2880	41.6970
 1.2890	41.6760
 1.2900	41.6540
 1.2910	41.6310
 1.2920	41.6080
 1.2930	41.5820
 1.2940	41.5570
 1.2950	41.5330
 1.2960	41.5080
 1.2970	41.4820
 1.2980	41.4520
 1.2990	41.4220
 1.3000	41.3910
 1.3010	41.3590
 1.3020	41.3260
 1.3030	41.2910
 1.3040	41.2550
 1.3050	41.2160
 1.3060	41.1760
 1.3070	41.1330
 1.3080	41.0890
 1.3090	41.0440
 1.3100	40.9950
 1.3110	40.9450
 1.3120	40.8930
 1.3130	40.8350
 1.3140	40.7770
 1.3150	40.7180
 1.3160	40.6550
 1.3170	40.5890
 1.3180	40.5240
 1.3190	40.4540
 1.3200	40.3820
 1.3210	40.3080
 1.3220	40.2310
 1.3230	40.1510
 1.3240	40.0700
 1.3250	39.9870
 1.3260	39.9020
 1.3270	39.8140
 1.3280	39.7230
 1.3290	39.6310
 1.3300	39.5360
 1.3310	39.4400
 1.3320	39.3420
 1.3330	39.2450
 1.3340	39.1460
 1.3350	39.0470
 1.3360	38.9470
 1.3370	38.8430
 1.3380	38.7400
 1.3390	38.6360
 1.3400	38.5310
 1.3410	38.4300
 1.3420	38.3290
 1.3430	38.2280
 1.3440	38.1260
 1.3450	38.0250
 1.3460	37.9250
 1.3470	37.8260
 1.3480	37.7260
 1.3490	37.6280
 1.3500	37.5300
 1.3510	37.4330
 1.3520	37.3360
 1.3530	37.2390
 1.3540	37.1410
 1.3550	37.0420
 1.3560	36.9420
 1.3570	36.8430
 1.3580	36.7440
 1.3590	36.6420
 1.3600	36.5380
 1.3610	36.4320
 1.3620	36.3220
 1.3630	36.2090
 1.3640	36.0900
 1.3650	35.9640
 1.3660	35.8340
 1.3670	35.6960
 1.3680	35.5510
 1.3690	35.3980
 1.3700	35.2330
 1.3710	35.0560
 1.3720	34.8680
 1.3730	34.6650
 1.3740	34.4490
 1.3750	34.2160
 1.3760	33.9650
 1.3770	33.6940
 1.3780	33.4000
 1.3790	33.0890
 1.3800	32.7590
 1.3810	32.4040
 1.3820	32.0320
 1.3830	31.6400
 1.3840	31.2270
 1.3850	30.7940
 1.3860	30.3460
 1.3870	29.8760
 1.3880	29.3990
 1.3890	28.9090
 1.3900	28.4050
 1.3910	27.8990
 1.3920	27.3850
 1.3930	26.8630
 1.3940	26.3420
 1.3950	25.8160
 1.3960	25.2950
 1.3970	24.7840
 1.3980	24.2800
 1.3990	23.7920
 1.4000	23.3160
 1.4010	22.8490
 1.4020	22.4010
 1.4030	21.9660
 1.4040	21.5490
 1.4050	21.1530
 1.4060	20.7740
 1.4070	20.4180
 1.4080	20.0810
 1.4090	19.7610
 1.4100	19.4610
 1.4110	19.1770
 1.4120	18.9110
 1.4130	18.6640
 1.4140	18.4330
 1.4150	18.2200
 1.4160	18.0210
 1.4170	17.8360
 1.4180	17.6640
 1.4190	17.5040
 1.4200	17.3560
 1.4210	17.2190
 1.4220	17.0910
 1.4230	16.9770
 1.4240	16.8700
 1.4250	16.7710
 1.4260	16.6810
 1.4270	16.5970
 1.4280	16.5200
 1.4290	16.4500
 1.4300	16.3870
 1.4310	16.3300
 1.4320	16.2790
 1.4330	16.2330
 1.4340	16.1930
 1.4350	16.1570
 1.4360	16.1250
 1.4370	16.0990
 1.4380	16.0750
 1.4390	16.0560
 1.4400	16.0400
 1.4410	16.0260
 1.4420	16.0160
 1.4430	16.0100
 1.4440	16.0060
 1.4450	16.0040
 1.4460	16.0060
 1.4470	16.0080
 1.4480	16.0130
 1.4490	16.0210
 1.4500	16.0280
 1.4510	16.0370
 1.4520	16.0480
 1.4530	16.0590
 1.4540	16.0740
 1.4550	16.0910
 1.4560	16.1110
 1.4570	16.1350
 1.4580	16.1610
 1.4590	16.1910
 1.4600	16.2240
 1.4610	16.2600
 1.4620	16.3000
 1.4630	16.3460
 1.4640	16.3940
 1.4650	16.4480
 1.4660	16.5070
 1.4670	16.5710
 1.4680	16.6400
 1.4690	16.7130
 1.4700	16.7900
 1.4710	16.8700
 1.4720	16.9540
 1.4730	17.0420
 1.4740	17.1330
 1.4750	17.2270
 1.4760	17.3260
 1.4770	17.4280
 1.4780	17.5320
 1.4790	17.6380
 1.4800	17.7450
 1.4810	17.8520
 1.4820	17.9620
 1.4830	18.0730
 1.4840	18.1870
 1.4850	18.3010
 1.4860	18.4160
 1.4870	18.5330
 1.4880	18.6490
 1.4890	18.7660
 1.4900	18.8830
 1.4910	19.0010
 1.4920	19.1200
 1.4930	19.2420
 1.4940	19.3620
 1.4950	19.4840
 1.4960	19.6060
 1.4970	19.7270
 1.4980	19.8490
 1.4990	19.9700
 1.5000	20.0920
 1.5010	20.2140
 1.5020	20.3360
 1.5030	20.4600
 1.5040	20.5820
 1.5050	20.7030
 1.5060	20.8250
 1.5070	20.9470
 1.5080	21.0690
 1.5090	21.1900
 1.5100	21.3110
 1.5110	21.4330
 1.5120	21.5540
 1.5130	21.6750
 1.5140	21.7950
 1.5150	21.9140
 1.5160	22.0310
 1.5170	22.1490
 1.5180	22.2660
 1.5190	22.3830
 1.5200	22.5000
 1.5210	22.6140
 1.5220	22.7280
 1.5230	22.8410
 1.5240	22.9530
 1.5250	23.0640
 1.5260	23.1750
 1.5270	23.2850
 1.5280	23.3950
 1.5290	23.5030
 1.5300	23.6090
 1.5310	23.7150
 1.5320	23.8220
 1.5330	23.9280
 1.5340	24.0320
 1.5350	24.1360
 1.5360	24.2370
 1.5370	24.3370
 1.5380	24.4370
 1.5390	24.5360
 1.5400	24.6340
 1.5410	24.7310
 1.5420	24.8270
 1.5430	24.9230
 1.5440	25.0180
 1.5450	25.1120
 1.5460	25.2050
 1.5470	25.2980
 1.5480	25.3900
 1.5490	25.4810
 1.5500	25.5700
 1.5510	25.6570
 1.5520	25.7420
 1.5530	25.8270
 1.5540	25.9130
 1.5550	25.9970
 1.5560	26.0810
 1.5570	26.1630
 1.5580	26.2420
 1.5590	26.3200
 1.5600	26.3990
 1.5610	26.4750
 1.5620	26.5520
 1.5630	26.6280
 1.5640	26.7030
 1.5650	26.7770
 1.5660	26.8500
 1.5670	26.9220
 1.5680	26.9920
 1.5690	27.0610
 1.5700	27.1300
 1.5710	27.1990
 1.5720	27.2670
 1.5730	27.3360
 1.5740	27.4040
 1.5750	27.4710
 1.5760	27.5380
 1.5770	27.6020
 1.5780	27.6650
 1.5790	27.7300
 1.5800	27.7940
 1.5810	27.8570
 1.5820	27.9200
 1.5830	27.9830
 1.5840	28.0430
 1.5850	28.1010
 1.5860	28.1610
 1.5870	28.2190
 1.5880	28.2760
 1.5890	28.3350
 1.5900	28.3920
 1.5910	28.4490
 1.5920	28.5040
 1.5930	28.5580
 1.5940	28.6110
 1.5950	28.6640
 1.5960	28.7160
 1.5970	28.7680
 1.5980	28.8190
 1.5990	28.8700
 1.6000	28.9220
 1.6010	28.9730
 1.6020	29.0220
 1.6030	29.0700
 1.6040	29.1180
 1.6050	29.1660
 1.6060	29.2130
 1.6070	29.2600
 1.6080	29.3060
 1.6090	29.3490
 1.6100	29.3920
 1.6110	29.4350
 1.6120	29.4770
 1.6130	29.5170
 1.6140	29.5580
 1.6150	29.5990
 1.6160	29.6390
 1.6170	29.6790
 1.6180	29.7170
 1.6190	29.7530
 1.6200	29.7880
 1.6210	29.8240
 1.6220	29.8580
 1.6230	29.8930
 1.6240	29.9270
 1.6250	29.9600
 1.6260	29.9930
 1.6270	30.0250
 1.6280	30.0570
 1.6290	30.0880
 1.6300	30.1190
 1.6310	30.1490
 1.6320	30.1780
 1.6330	30.2060
 1.6340	30.2350
 1.6350	30.2620
 1.6360	30.2880
 1.6370	30.3130
 1.6380	30.3370
 1.6390	30.3590
 1.6400	30.3820
 1.6410	30.4030
 1.6420	30.4230
 1.6430	30.4420
 1.6440	30.4610
 1.6450	30.4780
 1.6460	30.4930
 1.6470	30.5060
 1.6480	30.5170
 1.6490	30.5290
 1.6500	30.5380
 1.6510	30.5450
 1.6520	30.5520
 1.6530	30.5570
 1.6540	30.5590
 1.6550	30.5620
 1.6560	30.5620
 1.6570	30.5590
 1.6580	30.5560
 1.6590	30.5530
 1.6600	30.5480
 1.6610	30.5430
 1.6620	30.5380
 1.6630	30.5300
 1.6640	30.5220
 1.6650	30.5160
 1.6660	30.5100
 1.6670	30.5050
 1.6680	30.4980
 1.6690	30.4870
 1.6700	30.4770
 1.6710	30.4670
 1.6720	30.4550
 1.6730	30.4450
 1.6740	30.4330
 1.6750	30.4170
 1.6760	30.4010
 1.6770	30.3830
 1.6780	30.3640
 1.6790	30.3450
 1.6800	30.3230
 1.6810	30.2990
 1.6820	30.2750
 1.6830	30.2500
 1.6840	30.2230
 1.6850	30.1940
 1.6860	30.1650
 1.6870	30.1320
 1.6880	30.0980
 1.6890	30.0660
 1.6900	30.0340
 1.6910	30.0040
 1.6920	29.9720
 1.6930	29.9410
 1.6940	29.9090
 1.6950	29.8770
 1.6960	29.8450
 1.6970	29.8120
 1.6980	29.7780
 1.6990	29.7420
 1.7000	29.7060
 1.7010	29.6680
 1.7020	29.6300
 1.7030	29.5930
 1.7040	29.5550
 1.7050	29.5180
 1.7060	29.4800
 1.7070	29.4420
 1.7080	29.4040
 1.7090	29.3650
 1.7100	29.3260
 1.7110	29.2870
 1.7120	29.2470
 1.7130	29.2070
 1.7140	29.1670
 1.7150	29.1270
 1.7160	29.0850
 1.7170	29.0420
 1.7180	29.0000
 1.7190	28.9560
 1.7200	28.9130
 1.7210	28.8690
 1.7220	28.8230
 1.7230	28.7750
 1.7240	28.7260
 1.7250	28.6780
 1.7260	28.6300
 1.7270	28.5840
 1.7280	28.5410
 1.7290	28.4980
 1.7300	28.4580
 1.7310	28.4180
 1.7320	28.3780
 1.7330	28.3400
 1.7340	28.3040
 1.7350	28.2680
 1.7360	28.2350
 1.7370	28.1990
 1.7380	28.1630
 1.7390	28.1240
 1.7400	28.0840
 1.7410	28.0430
 1.7420	27.9990
 1.7430	27.9550
 1.7440	27.9100
 1.7450	27.8630
 1.7460	27.8140
 1.7470	27.7650
 1.7480	27.7160
 1.7490	27.6650
 1.7500	27.6130
 1.7510	27.5600
 1.7520	27.5040
 1.7530	27.4500
 1.7540	27.3960
 1.7550	27.3420
 1.7560	27.2910
 1.7570	27.2390
 1.7580	27.1900
 1.7590	27.1420
 1.7600	27.0920
 1.7610	27.0410
 1.7620	26.9930
 1.7630	26.9480
 1.7640	26.9030
 1.7650	26.8610
 1.7660	26.8210
 1.7670	26.7810
 1.7680	26.7440
 1.7690	26.7100
 1.7700	26.6750
 1.7710	26.6400
 1.7720	26.6070
 1.7730	26.5760
 1.7740	26.5450
 1.7750	26.5160
 1.7760	26.4880
 1.7770	26.4600
 1.7780	26.4340
 1.7790	26.4090
 1.7800	26.3870
 1.7810	26.3670
 1.7820	26.3480
 1.7830	26.3300
 1.7840	26.3120
 1.7850	26.2940
 1.7860	26.2800
 1.7870	26.2670
 1.7880	26.2550
 1.7890	26.2440
 1.7900	26.2330
 1.7910	26.2260
 1.7920	26.2230
 1.7930	26.2190
 1.7940	26.2160
 1.7950	26.2150
 1.7960	26.2130
 1.7970	26.2140
 1.7980	26.2150
 1.7990	26.2180
 1.8000	26.2210
 1.8010	26.2250
 1.8020	26.2320
 1.8030	26.2350
 1.8040	26.2380
 1.8050	26.2420
 1.8060	26.2450
 1.8070	26.2500
 1.8080	26.2570
 1.8090	26.2600
 1.8100	26.2630
 1.8110	26.2660
 1.8120	26.2650
 1.8130	26.2640
 1.8140	26.2650
 1.8150	26.2650
 1.8160	26.2630
 1.8170	26.2620
 1.8180	26.2590
 1.8190	26.2580
 1.8200	26.2550
 1.8210	26.2510
 1.8220	26.2460
 1.8230	26.2400
 1.8240	26.2320
 1.8250	26.2230
 1.8260	26.2120
 1.8270	26.1980
 1.8280	26.1830
 1.8290	26.1680
 1.8300	26.1490
 1.8310	25.4330
 1.8320	25.4060
 1.8330	25.3770
 1.8340	25.3470
 1.8350	25.3110
 1.8360	25.2740
 1.8370	25.2350
 1.8380	25.1890
 1.8390	25.1390
 1.8400	25.0870
 1.8410	25.0280
 1.8420	24.9620
 1.8430	24.8920
 1.8440	24.8160
 1.8450	24.7310
 1.8460	24.6400
 1.8470	24.5400
 1.8480	24.4320
 1.8490	24.3180
 1.8500	24.1930
 1.8510	24.0590
 1.8520	23.9140
 1.8530	23.7560
 1.8540	23.5880
 1.8550	23.4070
 1.8560	23.2150
 1.8570	23.0130
 1.8580	22.7960
 1.8590	22.5670
 1.8600	22.3260
 1.8610	22.0710
 1.8620	21.7980
 1.8630	21.5130
 1.8640	21.2110
 1.8650	20.8880
 1.8660	20.5490
 1.8670	20.1900
 1.8680	19.8150
 1.8690	19.4210
 1.8700	19.0100
 1.8710	18.5830
 1.8720	18.1440
 1.8730	17.6890
 1.8740	17.2240
 1.8750	16.7510
 1.8760	16.2680
 1.8770	15.7830
 1.8780	15.2970
 1.8790	14.8050
 1.8800	14.3220
 1.8810	13.8440
 1.8820	13.3660
 1.8830	12.8870
 1.8840	12.4180
 1.8850	11.9520
 1.8860	11.4970
 1.8870	11.0590
 1.8880	10.6370
 1.8890	10.2330
 1.8900	 9.8460
 1.8910	 9.4780
 1.8920	 9.1260
 1.8930	 8.7960
 1.8940	 8.4890
 1.8950	 8.2060
 1.8960	 7.9450
 1.8970	 7.7070
 1.8980	 7.4900
 1.8990	 7.2900
 1.9000	 7.1060
 1.9010	 6.9460
 1.9020	 6.7950
 1.9030	 6.6600
 1.9040	 6.5380
 1.9050	 6.4320
 1.9060	 6.3360
 1.9070	 6.2510
 1.9080	 6.1770
 1.9090	 6.1100
 1.9100	 6.0500
 1.9110	 5.9970
 1.9120	 5.9560
 1.9130	 5.9160
 1.9140	 5.8810
 1.9150	 5.8490
 1.9160	 5.8220
 1.9170	 5.7970
 1.9180	 5.7750
 1.9190	 5.7570
 1.9200	 5.7390
 1.9210	 5.7230
 1.9220	 5.7120
 1.9230	 5.7030
 1.9240	 5.6970
 1.9250	 5.6960
 1.9260	 5.6970
 1.9270	 5.6990
 1.9280	 5.7000
 1.9290	 5.7020
 1.9300	 5.7030
 1.9310	 5.7080
 1.9320	 5.7120
 1.9330	 5.7180
 1.9340	 5.7280
 1.9350	 5.7380
 1.9360	 5.7490
 1.9370	 5.7610
 1.9380	 5.7760
 1.9390	 5.7870
 1.9400	 5.7980
 1.9410	 5.8160
 1.9420	 5.8320
 1.9430	 5.8470
 1.9440	 5.8670
 1.9450	 5.8900
 1.9460	 5.9110
 1.9470	 5.9330
 1.9480	 5.9570
 1.9490	 5.9800
 1.9500	 6.0030
 1.9510	 6.0280
 1.9520	 6.0560
 1.9530	 6.0830
 1.9540	 6.1100
 1.9550	 6.1370
 1.9560	 6.1650
 1.9570	 6.1950
 1.9580	 6.2260
 1.9590	 6.2580
 1.9600	 6.2910
 1.9610	 6.3270
 1.9620	 6.3650
 1.9630	 6.4020
 1.9640	 6.4380
 1.9650	 6.4770
 1.9660	 6.5150
 1.9670	 6.5530
 1.9680	 6.5920
 1.9690	 6.6310
 1.9700	 6.6720
 1.9710	 6.7130
 1.9720	 6.7560
 1.9730	 6.8000
 1.9740	 6.8470
 1.9750	 6.8920
 1.9760	 6.9380
 1.9770	 6.9840
 1.9780	 7.0290
 1.9790	 7.0760
 1.9800	 7.1250
 1.9810	 7.1750
 1.9820	 7.2290
 1.9830	 7.2800
 1.9840	 7.3320
 1.9850	 7.3840
 1.9860	 7.4360
 1.9870	 7.4890
 1.9880	 7.5420
 1.9890	 7.5990
 1.9900	 7.6550
 1.9910	 7.7120
 1.9920	 7.7700
 1.9930	 7.8310
 1.9940	 7.8910
 1.9950	 7.9500
 1.9960	 8.0090
 1.9970	 8.0670
 1.9980	 8.1260
 1.9990	 8.1850
 2.0000	 8.2450
 2.0010	 8.3050
 2.0020	 8.3630
 2.0030	 8.4220
 2.0040	 8.4820
 2.0050	 8.5420
 2.0060	 8.6030
 2.0070	 8.6670
 2.0080	 8.7350
 2.0090	 8.7980
 2.0100	 8.8590
 2.0110	 8.9200
 2.0120	 8.9760
 2.0130	 9.0340
 2.0140	 9.0930
 2.0150	 9.1540
 2.0160	 9.2170
 2.0170	 9.2780
 2.0180	 9.3390
 2.0190	 9.4000
 2.0200	 9.4600
 2.0210	 9.5170
 2.0220	 9.5770
 2.0230	 9.6380
 2.0240	 9.6970
 2.0250	 9.7560
 2.0260	 9.8140
 2.0270	 9.8710
 2.0280	 9.9270
 2.0290	 9.9810
 2.0300	10.0360
 2.0310	10.0910
 2.0320	10.1480
 2.0330	10.2030
 2.0340	10.2600
 2.0350	10.3140
 2.0360	10.3650
 2.0370	10.4170
 2.0380	10.4680
 2.0390	10.5210
 2.0400	10.5770
 2.0410	10.6300
 2.0420	10.6820
 2.0430	10.7330
 2.0440	10.7810
 2.0450	10.8230
 2.0460	10.8690
 2.0470	10.9130
 2.0480	10.9590
 2.0490	11.0040
 2.0500	11.0520
 2.0510	11.1030
 2.0520	11.1530
 2.0530	11.2090
 2.0540	11.2600
 2.0550	11.3080
 2.0560	11.3550
 2.0570	11.4030
 2.0580	11.4530
 2.0590	11.5040
 2.0600	11.5580
 2.0610	11.6120
 2.0620	11.6660
 2.0630	11.7200
 2.0640	11.7780
 2.0650	11.8320
 2.0660	11.8820
 2.0670	11.9350
 2.0680	11.9860
 2.0690	12.0390
 2.0700	12.0970
 2.0710	12.1510
 2.0720	12.2040
 2.0730	12.2560
 2.0740	12.3080
 2.0750	12.3570
 2.0760	12.4120
 2.0770	12.4690
 2.0780	12.5240
 2.0790	12.5830
 2.0800	12.6380
 2.0810	12.6920
 2.0820	12.7440
 2.0830	12.7950
 2.0840	12.8460
 2.0850	12.8940
 2.0860	12.9450
 2.0870	12.9990
 2.0880	13.0510
 2.0890	13.1020
 2.0900	13.1540
 2.0910	13.2050
 2.0920	13.2530
 2.0930	13.3010
 2.0940	13.3500
 2.0950	13.3980
 2.0960	13.4470
 2.0970	13.4950
 2.0980	13.5410
 2.0990	13.5890
 2.1000	13.6370
 2.1010	13.6840
 2.1020	13.7360
 2.1030	13.7830
 2.1040	13.8240
 2.1050	13.8650
 2.1060	13.9090
 2.1070	13.9510
 2.1080	13.9980
 2.1090	14.0520
 2.1100	14.0980
 2.1110	14.1420
 2.1120	14.1880
 2.1130	14.2330
 2.1140	14.2770
 2.1150	14.3230
 2.1160	14.3680
 2.1170	14.4100
 2.1180	14.4530
 2.1190	14.4980
 2.1200	14.5380
 2.1210	14.5750
 2.1220	14.6120
 2.1230	14.6490
 2.1240	14.6830
 2.1250	14.7200
 2.1260	14.7620
 2.1270	14.7990
 2.1280	14.8360
 2.1290	14.8690
 2.1300	14.8970
 2.1310	14.9280
 2.1320	14.9580
 2.1330	14.9890
 2.1340	15.0200
 2.1350	15.0510
 2.1360	15.0820
 2.1370	15.1120
 2.1380	15.1410
 2.1390	15.1690
 2.1400	15.1970
 2.1410	15.2230
 2.1420	15.2490
 2.1430	15.2750
 2.1440	15.3020
 2.1450	15.3300
 2.1460	15.3560
 2.1470	15.3840
 2.1480	15.4100
 2.1490	15.4370
 2.1500	15.4610
 2.1510	15.4850
 2.1520	15.5090
 2.1530	15.5320
 2.1540	15.5540
 2.1550	15.5760
 2.1560	15.5990
 2.1570	15.6230
 2.1580	15.6440
 2.1590	15.6670
 2.1600	15.6880
 2.1610	15.7030
 2.1620	15.7230
 2.1630	15.7420
 2.1640	15.7610
 2.1650	15.7800
 2.1660	15.7990
 2.1670	15.8180
 2.1680	15.8350
 2.1690	15.8550
 2.1700	15.8770
 2.1710	15.8970
 2.1720	15.9180
 2.1730	15.9380
 2.1740	15.9540
 2.1750	15.9740
 2.1760	15.9960
 2.1770	16.0160
 2.1780	16.0340
 2.1790	16.0570
 2.1800	16.0800
 2.1810	16.1040
 2.1820	16.1300
 2.1830	16.1570
 2.1840	16.1840
 2.1850	16.2110
 2.1860	16.2340
 2.1870	16.2560
 2.1880	16.2800
 2.1890	16.3000
 2.1900	16.3250
 2.1910	16.3580
 2.1920	16.3850
 2.1930	16.4120
 2.1940	16.4360
 2.1950	16.4590
 2.1960	16.4800
 2.1970	16.4980
 2.1980	16.5170
 2.1990	16.5360
 2.2000	16.5540
 2.2010	16.5700
 2.2020	16.5880
 2.2030	16.6060
 2.2040	16.6230
 2.2050	16.6380
 2.2060	16.6550
 2.2070	16.6710
 2.2080	16.6850
 2.2090	16.7010
 2.2100	16.7190
 2.2110	16.7350
 2.2120	16.7510
 2.2130	16.7650
 2.2140	16.7800
 2.2150	16.7910
 2.2160	16.8000
 2.2170	16.8060
 2.2180	16.8070
 2.2190	16.8110
 2.2200	16.8160
 2.2210	16.8190
 2.2220	16.8220
 2.2230	16.8230
 2.2240	16.8240
 2.2250	16.8210
 2.2260	16.8150
 2.2270	16.8080
 2.2280	16.7960
 2.2290	16.7830
 2.2300	16.7690
 2.2310	16.7590
 2.2320	16.7440
 2.2330	16.7270
 2.2340	16.7080
 2.2350	16.6900
 2.2360	16.6650
 2.2370	16.6340
 2.2380	16.6030
 2.2390	16.5650
 2.2400	16.5310
 2.2410	16.4990
 2.2420	16.4610
 2.2430	16.4190
 2.2440	16.3750
 2.2450	16.3250
 2.2460	16.2780
 2.2470	16.2330
 2.2480	16.1850
 2.2490	16.1380
 2.2500	16.0870
 2.2510	16.0330
 2.2520	15.9770
 2.2530	15.9160
 2.2540	15.8590
 2.2550	15.8050
 2.2560	15.7480
 2.2570	15.6940
 2.2580	15.6370
 2.2590	15.5730
 2.2600	15.5110
 2.2610	15.4500
 2.2620	15.3880
 2.2630	15.3310
 2.2640	15.2750
 2.2650	15.2200
 2.2660	15.1660
 2.2670	15.1110
 2.2680	15.0550
 2.2690	15.0020
 2.2700	14.9510
 2.2710	14.9000
 2.2720	14.8510
 2.2730	14.8010
 2.2740	14.7530
 2.2750	14.7060
 2.2760	14.6570
 2.2770	14.6120
 2.2780	14.5710
 2.2790	14.5260
 2.2800	14.4820
 2.2810	14.4350
 2.2820	14.3850
 2.2830	14.3370
 2.2840	14.2890
 2.2850	14.2430
 2.2860	14.1960
 2.2870	14.1520
 2.2880	14.1120
 2.2890	14.0730
 2.2900	14.0400
 2.2910	14.0000
 2.2920	13.9600
 2.2930	13.9150
 2.2940	13.8610
 2.2950	13.8090
 2.2960	13.7500
 2.2970	13.6980
 2.2980	13.6520
 2.2990	13.6070
 2.3000	13.5610
 2.3010	13.5180
 2.3020	13.4750
 2.3030	13.4280
 2.3040	13.3840
 2.3050	13.3380
 2.3060	13.2890
 2.3070	13.2480
 2.3080	13.2110
 2.3090	13.1770
 2.3100	13.1480
 2.3110	13.1120
 2.3120	13.0780
 2.3130	13.0410
 2.3140	13.0140
 2.3150	12.9920
 2.3160	12.9700
 2.3170	12.9550
 2.3180	12.9360
 2.3190	12.9160
 2.3200	12.8950
 2.3210	12.8740
 2.3220	12.8530
 2.3230	12.8330
 2.3240	12.8050
 2.3250	12.7770
 2.3260	12.7420
 2.3270	12.6960
 2.3280	12.6540
 2.3290	12.6100
 2.3300	12.5710
 2.3310	12.5400
 2.3320	12.5010
 2.3330	12.4630
 2.3340	12.4210
 2.3350	12.3750
 2.3360	12.3230
 2.3370	12.2630
 2.3380	12.2090
 2.3390	12.1460
 2.3400	12.0940
 2.3410	12.0540
 2.3420	12.0100
 2.3430	11.9650
 2.3440	11.9230
 2.3450	11.8850
 2.3460	11.8420
 2.3470	11.7960
 2.3480	11.7550
 2.3490	11.7110
 2.3500	11.6740
 2.3510	11.6480
 2.3520	11.6160
 2.3530	11.5830
 2.3540	11.5500
 2.3550	11.5130
 2.3560	11.4750
 2.3570	11.4400
 2.3580	11.4110
 2.3590	11.3770
 2.3600	11.3450
 2.3610	11.3120
 2.3620	11.2670
 2.3630	11.2200
 2.3640	11.1790
 2.3650	11.1430
 2.3660	11.1100
 2.3670	11.0840
 2.3680	11.0540
 2.3690	11.0120
 2.3700	10.9650
 2.3710	10.9210
 2.3720	10.8830
 2.3730	10.8540
 2.3740	10.8290
 2.3750	10.7900
 2.3760	10.7470
 2.3770	10.6990
 2.3780	10.6520
 2.3790	10.6180
 2.3800	10.5830
 2.3810	10.5450
 2.3820	10.5060
 2.3830	10.4660
 2.3840	10.4250
 2.3850	10.3790
 2.3860	10.3320
 2.3870	10.2830
 2.3880	10.2350
 2.3890	10.1910
 2.3900	10.1490
 2.3910	10.1110
 2.3920	10.0720
 2.3930	10.0390
 2.3940	10.0010
 2.3950	 9.9550
 2.3960	 9.9110
 2.3970	 9.8650
 2.3980	 9.8160
 2.3990	 9.7790
 2.4000	 9.7440
 2.4010	 9.7100
 2.4020	 9.6870
 2.4030	 9.6570
 2.4040	 9.6120
 2.4050	 9.5650
 2.4060	 9.5230
 2.4070	 9.4820
 2.4080	 9.4350
 2.4090	 9.3880
 2.4100	 9.3410
 2.4110	 9.2980
 2.4120	 9.2710
 2.4130	 9.2430
 2.4140	 9.1940
 2.4150	 9.1460
 2.4160	 9.1010
 2.4170	 9.0560
 2.4180	 9.0220
 2.4190	 8.9900
 2.4200	 8.9440
 2.4210	 8.9070
 2.4220	 8.8760
 2.4230	 8.8230
 2.4240	 8.7760
 2.4250	 8.7340
 2.4260	 8.6800
 2.4270	 8.6400
 2.4280	 8.6190
 2.4290	 8.5910
 2.4300	 8.5610
 2.4310	 8.5310
 2.4320	 8.4850
 2.4330	 8.4280
 2.4340	 8.3790
 2.4350	 8.3450
 2.4360	 8.3140
 2.4370	 8.2900
 2.4380	 8.2650
 2.4390	 8.2200
 2.4400	 8.1720
 2.4410	 8.1260
 2.4420	 8.0750
 2.4430	 8.0490
 2.4440	 8.0210
 2.4450	 7.9910
 2.4460	 7.9820
 2.4470	 7.9310
 2.4480	 7.8750
 2.4490	 7.8420
 2.4500	 7.7880
 2.4510	 7.7520
 2.4520	 7.7380
 2.4530	 7.7150
 2.4540	 7.6980
 2.4550	 7.6920
 2.4560	 7.6720
 2.4570	 7.6360
 2.4580	 7.5840
 2.4590	 7.5380
 2.4600	 7.4960
 2.4610	 7.4700
 2.4620	 7.4370
 2.4630	 7.3860
 2.4640	 7.3570
 2.4650	 7.3120
 2.4660	 7.2750
 2.4670	 7.2500
 2.4680	 7.2170
 2.4690	 7.1700
 2.4700	 7.1480
 2.4710	 7.1470
 2.4720	 7.1300
 2.4730	 7.1350
 2.4740	 7.1160
 2.4750	 7.0740
 2.4760	 7.0430
 2.4770	 6.9960
 2.4780	 6.9780
 2.4790	 6.9830
 2.4800	 6.9590
 2.4810	 6.9360
 2.4820	 6.9350
 2.4830	 6.9110
 2.4840	 6.9210
 2.4850	 6.9180
 2.4860	 6.8920
 2.4870	 6.9040
 2.4880	 6.9110
 2.4890	 6.9110
 2.4900	 6.9210
 2.4910	 6.8780
 2.4920	 6.8630
 2.4930	 6.8620
 2.4940	 6.8140
 2.4950	 6.8270
 2.4960	 6.8010
 2.4970	 6.7310
 2.4980	 6.7340
 2.4990	 6.7130
 2.5000	 6.7020
