Name: Quercus agrifolia
Type: vegetation
Class: Tree
Genus: Quercus
Species: agrifolia
Sample No.: JPL181
Owner: JPL
Wavelength Range: TIR
Origin: 34.12859; -118.11386; WGS84
Collection Date: 10/3/2016
Description: Samples were collected at the Huntington Garden in San Marino California as part of a JPL Subcontract studying HyTES imagery. Samples were taken to JPL and processed within 48 hours of collection. The same leaves were processed in the Nicolet and then measured using the ASD.
Measurement: Hemispherical reflectance
First Column: X
Second Column: Y
X Units: Wavelength (micrometer)
Y Units: Reflectance (percentage)
First X Value: 2.501
Last X Value: 15.387
Number of X Values: 1737
Additional Information: vegetation.tree.quercus.agrifolia.tir.jpl181.jpl.nicolet.ancillary.txt

 2.5010	 5.4390
 2.5030	 5.3950
 2.5040	 5.4040
 2.5050	 5.3930
 2.5060	 5.4280
 2.5070	 5.4520
 2.5090	 5.4670
 2.5100	 5.4540
 2.5110	 5.4780
 2.5120	 5.5040
 2.5140	 5.5160
 2.5150	 5.4280
 2.5160	 5.4450
 2.5170	 5.4170
 2.5180	 5.4240
 2.5200	 5.4110
 2.5210	 5.4230
 2.5220	 5.4080
 2.5230	 5.4920
 2.5250	 5.4720
 2.5260	 5.4210
 2.5270	 5.4510
 2.5280	 5.5020
 2.5300	 5.4450
 2.5310	 5.3730
 2.5320	 5.3500
 2.5330	 5.4180
 2.5340	 5.4020
 2.5360	 5.3990
 2.5370	 5.3980
 2.5380	 5.3870
 2.5390	 5.3810
 2.5410	 5.4450
 2.5420	 5.4550
 2.5430	 5.4420
 2.5440	 5.4230
 2.5460	 5.4810
 2.5470	 5.4290
 2.5480	 5.4360
 2.5490	 5.4350
 2.5510	 5.4350
 2.5520	 5.4570
 2.5530	 5.5300
 2.5540	 5.4810
 2.5560	 5.4850
 2.5570	 5.4760
 2.5580	 5.5040
 2.5590	 5.4920
 2.5610	 5.4780
 2.5620	 5.4460
 2.5630	 5.4900
 2.5650	 5.5440
 2.5660	 5.5140
 2.5670	 5.4620
 2.5680	 5.5350
 2.5700	 5.5450
 2.5710	 5.4870
 2.5720	 5.4620
 2.5730	 5.5200
 2.5750	 5.4430
 2.5760	 5.4200
 2.5770	 5.4100
 2.5790	 5.4390
 2.5800	 5.4310
 2.5810	 5.4420
 2.5820	 5.4770
 2.5840	 5.5950
 2.5850	 5.6080
 2.5860	 5.5760
 2.5880	 5.5570
 2.5890	 5.5670
 2.5900	 5.4800
 2.5910	 5.4140
 2.5930	 5.4230
 2.5940	 5.5810
 2.5950	 5.6760
 2.5970	 5.5720
 2.5980	 5.4350
 2.5990	 5.4100
 2.6010	 5.4060
 2.6020	 5.4370
 2.6030	 5.4210
 2.6040	 5.4490
 2.6060	 5.4400
 2.6070	 5.4020
 2.6080	 5.3320
 2.6100	 5.3380
 2.6110	 5.3200
 2.6120	 5.3040
 2.6140	 5.2580
 2.6150	 5.2690
 2.6160	 5.2740
 2.6180	 5.3200
 2.6190	 5.3020
 2.6200	 5.3500
 2.6220	 5.2980
 2.6230	 5.1820
 2.6240	 5.1440
 2.6260	 5.1780
 2.6270	 5.1100
 2.6280	 5.0300
 2.6300	 5.0460
 2.6310	 5.1380
 2.6320	 5.0400
 2.6340	 4.9900
 2.6350	 5.0070
 2.6360	 5.0240
 2.6380	 4.9460
 2.6390	 4.9730
 2.6400	 4.9820
 2.6420	 4.9710
 2.6430	 4.9410
 2.6440	 4.9710
 2.6460	 4.9240
 2.6470	 4.8720
 2.6480	 4.8750
 2.6500	 4.9340
 2.6510	 4.8900
 2.6520	 4.8510
 2.6540	 4.8010
 2.6550	 4.8460
 2.6570	 4.8350
 2.6580	 4.8150
 2.6590	 4.7920
 2.6610	 4.8070
 2.6620	 4.7770
 2.6630	 4.7930
 2.6650	 4.7900
 2.6660	 4.7830
 2.6670	 4.7390
 2.6690	 4.7440
 2.6700	 4.7730
 2.6720	 4.8190
 2.6730	 4.7480
 2.6740	 4.7120
 2.6760	 4.6590
 2.6770	 4.6920
 2.6780	 4.6720
 2.6800	 4.6640
 2.6810	 4.5870
 2.6830	 4.5710
 2.6840	 4.4920
 2.6850	 4.5230
 2.6870	 4.5760
 2.6880	 4.6010
 2.6900	 4.5590
 2.6910	 4.5090
 2.6920	 4.4670
 2.6940	 4.5140
 2.6950	 4.5240
 2.6970	 4.5090
 2.6980	 4.3870
 2.6990	 4.3900
 2.7010	 4.4070
 2.7020	 4.3980
 2.7040	 4.3570
 2.7050	 4.3470
 2.7060	 4.3480
 2.7080	 4.3410
 2.7090	 4.3270
 2.7110	 4.4200
 2.7120	 4.4010
 2.7130	 4.3310
 2.7150	 4.3260
 2.7160	 4.3740
 2.7180	 4.3930
 2.7190	 4.4250
 2.7210	 4.4130
 2.7220	 4.3910
 2.7230	 4.4070
 2.7250	 4.4480
 2.7260	 4.3840
 2.7280	 4.3350
 2.7290	 4.2840
 2.7310	 4.3080
 2.7320	 4.3020
 2.7340	 4.3420
 2.7350	 4.3550
 2.7360	 4.2860
 2.7380	 4.2180
 2.7390	 4.3020
 2.7410	 4.2850
 2.7420	 4.3160
 2.7440	 4.2470
 2.7450	 4.2590
 2.7470	 4.2820
 2.7480	 4.2720
 2.7490	 4.2500
 2.7510	 4.3320
 2.7520	 4.2930
 2.7540	 4.3100
 2.7550	 4.3470
 2.7570	 4.3410
 2.7580	 4.2350
 2.7600	 4.2700
 2.7610	 4.3080
 2.7630	 4.3520
 2.7640	 4.3050
 2.7660	 4.3480
 2.7670	 4.3100
 2.7690	 4.2630
 2.7700	 4.2590
 2.7720	 4.3270
 2.7730	 4.2970
 2.7740	 4.3210
 2.7760	 4.3210
 2.7770	 4.3420
 2.7790	 4.3310
 2.7800	 4.3500
 2.7820	 4.2920
 2.7830	 4.3350
 2.7850	 4.3050
 2.7860	 4.3290
 2.7880	 4.3100
 2.7890	 4.3350
 2.7910	 4.3560
 2.7920	 4.3360
 2.7940	 4.2820
 2.7950	 4.3070
 2.7970	 4.2720
 2.7980	 4.3690
 2.8000	 4.3610
 2.8010	 4.3410
 2.8030	 4.3560
 2.8040	 4.4140
 2.8060	 4.3430
 2.8080	 4.3370
 2.8090	 4.2980
 2.8110	 4.2650
 2.8120	 4.2360
 2.8140	 4.3330
 2.8150	 4.3720
 2.8170	 4.3770
 2.8180	 4.3410
 2.8200	 4.4110
 2.8210	 4.4010
 2.8230	 4.4190
 2.8240	 4.4270
 2.8260	 4.4040
 2.8270	 4.3080
 2.8290	 4.3840
 2.8310	 4.3650
 2.8320	 4.3900
 2.8340	 4.3350
 2.8350	 4.2660
 2.8370	 4.2220
 2.8380	 4.2940
 2.8400	 4.3400
 2.8410	 4.3950
 2.8430	 4.3230
 2.8440	 4.2450
 2.8460	 4.2480
 2.8480	 4.3060
 2.8490	 4.3000
 2.8510	 4.3460
 2.8520	 4.3550
 2.8540	 4.4260
 2.8550	 4.3700
 2.8570	 4.3530
 2.8590	 4.2860
 2.8600	 4.3460
 2.8620	 4.3870
 2.8630	 4.3680
 2.8650	 4.3770
 2.8660	 4.4040
 2.8680	 4.3230
 2.8700	 4.3670
 2.8710	 4.3540
 2.8730	 4.3810
 2.8740	 4.3810
 2.8760	 4.3600
 2.8780	 4.3550
 2.8790	 4.3680
 2.8810	 4.3060
 2.8820	 4.3140
 2.8840	 4.3060
 2.8860	 4.3240
 2.8870	 4.3060
 2.8890	 4.3560
 2.8900	 4.3860
 2.8920	 4.4140
 2.8940	 4.3230
 2.8950	 4.3440
 2.8970	 4.3290
 2.8990	 4.3020
 2.9000	 4.2930
 2.9020	 4.3600
 2.9030	 4.3110
 2.9050	 4.3290
 2.9070	 4.3260
 2.9080	 4.3660
 2.9100	 4.3650
 2.9120	 4.4000
 2.9130	 4.4110
 2.9150	 4.3510
 2.9160	 4.2850
 2.9180	 4.3620
 2.9200	 4.3510
 2.9210	 4.3170
 2.9230	 4.2800
 2.9250	 4.3190
 2.9260	 4.3550
 2.9280	 4.3830
 2.9300	 4.3400
 2.9310	 4.3620
 2.9330	 4.3550
 2.9350	 4.4140
 2.9360	 4.3900
 2.9380	 4.3530
 2.9400	 4.2840
 2.9410	 4.2900
 2.9430	 4.2950
 2.9450	 4.3240
 2.9460	 4.3430
 2.9480	 4.3800
 2.9500	 4.3150
 2.9510	 4.2930
 2.9530	 4.2680
 2.9550	 4.2990
 2.9560	 4.2750
 2.9580	 4.3530
 2.9600	 4.3820
 2.9610	 4.3820
 2.9630	 4.3450
 2.9650	 4.4020
 2.9670	 4.3510
 2.9680	 4.3520
 2.9700	 4.3500
 2.9720	 4.3660
 2.9730	 4.3270
 2.9750	 4.3440
 2.9770	 4.3440
 2.9780	 4.3850
 2.9800	 4.3640
 2.9820	 4.3620
 2.9840	 4.3440
 2.9850	 4.3490
 2.9870	 4.3410
 2.9890	 4.3800
 2.9900	 4.3860
 2.9920	 4.3910
 2.9940	 4.3250
 2.9960	 4.3810
 2.9970	 4.3620
 2.9990	 4.3280
 3.0010	 4.3000
 3.0030	 4.3360
 3.0040	 4.2970
 3.0060	 4.3150
 3.0080	 4.2820
 3.0100	 4.2940
 3.0110	 4.3000
 3.0130	 4.3570
 3.0150	 4.3810
 3.0170	 4.3610
 3.0180	 4.3360
 3.0200	 4.3840
 3.0220	 4.3720
 3.0240	 4.3310
 3.0250	 4.2840
 3.0270	 4.3350
 3.0290	 4.3090
 3.0310	 4.3350
 3.0320	 4.3320
 3.0340	 4.2910
 3.0360	 4.2820
 3.0380	 4.3090
 3.0400	 4.2470
 3.0410	 4.3060
 3.0430	 4.3050
 3.0450	 4.3190
 3.0470	 4.3550
 3.0480	 4.3770
 3.0500	 4.3000
 3.0520	 4.3210
 3.0540	 4.3420
 3.0560	 4.3460
 3.0570	 4.3010
 3.0590	 4.2940
 3.0610	 4.3090
 3.0630	 4.3140
 3.0650	 4.2560
 3.0670	 4.2540
 3.0680	 4.2310
 3.0700	 4.2510
 3.0720	 4.2760
 3.0740	 4.3330
 3.0760	 4.2970
 3.0770	 4.2870
 3.0790	 4.2790
 3.0810	 4.3150
 3.0830	 4.2820
 3.0850	 4.2950
 3.0870	 4.3130
 3.0880	 4.3370
 3.0900	 4.2830
 3.0920	 4.2810
 3.0940	 4.3020
 3.0960	 4.2980
 3.0980	 4.2430
 3.1000	 4.2470
 3.1010	 4.2400
 3.1030	 4.3240
 3.1050	 4.3510
 3.1070	 4.3690
 3.1090	 4.3280
 3.1110	 4.3420
 3.1130	 4.2790
 3.1140	 4.2780
 3.1160	 4.2880
 3.1180	 4.3120
 3.1200	 4.2770
 3.1220	 4.3050
 3.1240	 4.2620
 3.1260	 4.2810
 3.1280	 4.3340
 3.1290	 4.3200
 3.1310	 4.2910
 3.1330	 4.2920
 3.1350	 4.2510
 3.1370	 4.2560
 3.1390	 4.2500
 3.1410	 4.2680
 3.1430	 4.2450
 3.1450	 4.2650
 3.1470	 4.2730
 3.1480	 4.3090
 3.1500	 4.2820
 3.1520	 4.2540
 3.1540	 4.2140
 3.1560	 4.2730
 3.1580	 4.2530
 3.1600	 4.2700
 3.1620	 4.2870
 3.1640	 4.2960
 3.1660	 4.2370
 3.1680	 4.2250
 3.1700	 4.2330
 3.1720	 4.3040
 3.1730	 4.2950
 3.1750	 4.2850
 3.1770	 4.2670
 3.1790	 4.3060
 3.1810	 4.2470
 3.1830	 4.2450
 3.1850	 4.2530
 3.1870	 4.2620
 3.1890	 4.2510
 3.1910	 4.2500
 3.1930	 4.2190
 3.1950	 4.2600
 3.1970	 4.2810
 3.1990	 4.2670
 3.2010	 4.1940
 3.2030	 4.2380
 3.2050	 4.2700
 3.2070	 4.2670
 3.2090	 4.1890
 3.2110	 4.1510
 3.2130	 4.1730
 3.2150	 4.2200
 3.2170	 4.1810
 3.2190	 4.1990
 3.2210	 4.1950
 3.2230	 4.2220
 3.2250	 4.2050
 3.2270	 4.2570
 3.2290	 4.2610
 3.2310	 4.2050
 3.2330	 4.1520
 3.2350	 4.1850
 3.2370	 4.2200
 3.2390	 4.2590
 3.2410	 4.2610
 3.2430	 4.2050
 3.2450	 4.1400
 3.2470	 4.1680
 3.2490	 4.1700
 3.2510	 4.1620
 3.2530	 4.1370
 3.2550	 4.1290
 3.2570	 4.0950
 3.2590	 4.1580
 3.2610	 4.1800
 3.2630	 4.1810
 3.2650	 4.1670
 3.2670	 4.1640
 3.2700	 4.1460
 3.2720	 4.1780
 3.2740	 4.1580
 3.2760	 4.1440
 3.2780	 4.1050
 3.2800	 4.1240
 3.2820	 4.1170
 3.2840	 4.1080
 3.2860	 4.0990
 3.2880	 4.1280
 3.2900	 4.1150
 3.2920	 4.1480
 3.2940	 4.1530
 3.2970	 4.1260
 3.2990	 4.0400
 3.3010	 4.0250
 3.3030	 4.0180
 3.3050	 4.0400
 3.3070	 4.0710
 3.3090	 4.0910
 3.3110	 4.0480
 3.3130	 4.0400
 3.3160	 3.9970
 3.3180	 4.0190
 3.3200	 4.0330
 3.3220	 4.0390
 3.3240	 3.9750
 3.3260	 3.9840
 3.3280	 4.0130
 3.3300	 4.0290
 3.3330	 3.9710
 3.3350	 3.9350
 3.3370	 3.8790
 3.3390	 3.9080
 3.3410	 3.9110
 3.3430	 3.8910
 3.3450	 3.8590
 3.3480	 3.8750
 3.3500	 3.8620
 3.3520	 3.8430
 3.3540	 3.7940
 3.3560	 3.7790
 3.3580	 3.7470
 3.3610	 3.7550
 3.3630	 3.7340
 3.3650	 3.7190
 3.3670	 3.6860
 3.3690	 3.6740
 3.3720	 3.6550
 3.3740	 3.6540
 3.3760	 3.6200
 3.3780	 3.6580
 3.3800	 3.6780
 3.3830	 3.6970
 3.3850	 3.6860
 3.3870	 3.6570
 3.3890	 3.5720
 3.3910	 3.5820
 3.3940	 3.5710
 3.3960	 3.5180
 3.3980	 3.4850
 3.4000	 3.4960
 3.4030	 3.4720
 3.4050	 3.5040
 3.4070	 3.4760
 3.4090	 3.4550
 3.4110	 3.5040
 3.4140	 3.6140
 3.4160	 3.7170
 3.4180	 3.9210
 3.4200	 4.2810
 3.4230	 4.8730
 3.4250	 5.6490
 3.4270	 6.5930
 3.4300	 7.2770
 3.4320	 7.4240
 3.4340	 7.0100
 3.4360	 6.5080
 3.4390	 6.0850
 3.4410	 5.8580
 3.4430	 5.6720
 3.4450	 5.4940
 3.4480	 5.3410
 3.4500	 5.2530
 3.4520	 5.1900
 3.4550	 5.1670
 3.4570	 5.1480
 3.4590	 5.1470
 3.4620	 5.0790
 3.4640	 5.0470
 3.4660	 4.9710
 3.4690	 4.9150
 3.4710	 4.8520
 3.4730	 4.8300
 3.4760	 4.7570
 3.4780	 4.6710
 3.4800	 4.6010
 3.4830	 4.5750
 3.4850	 4.5280
 3.4870	 4.4560
 3.4900	 4.3770
 3.4920	 4.3080
 3.4940	 4.2100
 3.4970	 4.1550
 3.4990	 4.1050
 3.5010	 4.0930
 3.5040	 4.2160
 3.5060	 4.6640
 3.5080	 5.5860
 3.5110	 6.6820
 3.5130	 7.0570
 3.5160	 6.8170
 3.5180	 6.4090
 3.5200	 6.0610
 3.5230	 5.8340
 3.5250	 5.7050
 3.5280	 5.5720
 3.5300	 5.4810
 3.5320	 5.3640
 3.5350	 5.2910
 3.5370	 5.2340
 3.5400	 5.1610
 3.5420	 5.1150
 3.5440	 5.1380
 3.5470	 5.1090
 3.5490	 5.0980
 3.5520	 5.0720
 3.5540	 5.0140
 3.5570	 4.9790
 3.5590	 5.0080
 3.5610	 5.0080
 3.5640	 4.9700
 3.5660	 4.9100
 3.5690	 4.9530
 3.5710	 4.9460
 3.5740	 4.9130
 3.5760	 4.8920
 3.5790	 4.8770
 3.5810	 4.8550
 3.5840	 4.8820
 3.5860	 4.8520
 3.5890	 4.8160
 3.5910	 4.8050
 3.5940	 4.8380
 3.5960	 4.8360
 3.5990	 4.8240
 3.6010	 4.7940
 3.6040	 4.7860
 3.6060	 4.7790
 3.6090	 4.7930
 3.6110	 4.8040
 3.6140	 4.7980
 3.6160	 4.7660
 3.6190	 4.7580
 3.6210	 4.7590
 3.6240	 4.7590
 3.6260	 4.7590
 3.6290	 4.7910
 3.6310	 4.7810
 3.6340	 4.7570
 3.6360	 4.7120
 3.6390	 4.7060
 3.6410	 4.7110
 3.6440	 4.7370
 3.6470	 4.7280
 3.6490	 4.7510
 3.6520	 4.7400
 3.6540	 4.7390
 3.6570	 4.7420
 3.6590	 4.7390
 3.6620	 4.6980
 3.6650	 4.7010
 3.6670	 4.6700
 3.6700	 4.7180
 3.6720	 4.7180
 3.6750	 4.7240
 3.6780	 4.7220
 3.6800	 4.7330
 3.6830	 4.7010
 3.6850	 4.6600
 3.6880	 4.6330
 3.6910	 4.6660
 3.6930	 4.6950
 3.6960	 4.6820
 3.6990	 4.6760
 3.7010	 4.6880
 3.7040	 4.6680
 3.7070	 4.6700
 3.7090	 4.6670
 3.7120	 4.6820
 3.7150	 4.6910
 3.7170	 4.6920
 3.7200	 4.6430
 3.7230	 4.6640
 3.7250	 4.6440
 3.7280	 4.6700
 3.7310	 4.7010
 3.7330	 4.6950
 3.7360	 4.6600
 3.7390	 4.6500
 3.7410	 4.6340
 3.7440	 4.6470
 3.7470	 4.6510
 3.7490	 4.6790
 3.7520	 4.6720
 3.7550	 4.6600
 3.7580	 4.6490
 3.7600	 4.6810
 3.7630	 4.7140
 3.7660	 4.6860
 3.7690	 4.6520
 3.7710	 4.6760
 3.7740	 4.6580
 3.7770	 4.6800
 3.7790	 4.6780
 3.7820	 4.6450
 3.7850	 4.6290
 3.7880	 4.6510
 3.7910	 4.6530
 3.7930	 4.6460
 3.7960	 4.6150
 3.7990	 4.6180
 3.8020	 4.6240
 3.8040	 4.6390
 3.8070	 4.6460
 3.8100	 4.6490
 3.8130	 4.6310
 3.8160	 4.6460
 3.8180	 4.6650
 3.8210	 4.6720
 3.8240	 4.6690
 3.8270	 4.6700
 3.8300	 4.6580
 3.8330	 4.6650
 3.8350	 4.6540
 3.8380	 4.6480
 3.8410	 4.6490
 3.8440	 4.6830
 3.8470	 4.6790
 3.8500	 4.6900
 3.8520	 4.6920
 3.8550	 4.7210
 3.8580	 4.7020
 3.8610	 4.6800
 3.8640	 4.6670
 3.8670	 4.6530
 3.8700	 4.6640
 3.8730	 4.7040
 3.8760	 4.7060
 3.8780	 4.6910
 3.8810	 4.6590
 3.8840	 4.6480
 3.8870	 4.6880
 3.8900	 4.7240
 3.8930	 4.6760
 3.8960	 4.6760
 3.8990	 4.6810
 3.9020	 4.6820
 3.9050	 4.6710
 3.9080	 4.6800
 3.9110	 4.6790
 3.9140	 4.6830
 3.9170	 4.7090
 3.9190	 4.7480
 3.9220	 4.7160
 3.9250	 4.6970
 3.9280	 4.7010
 3.9310	 4.7230
 3.9340	 4.7080
 3.9370	 4.6670
 3.9400	 4.6560
 3.9430	 4.6740
 3.9460	 4.6720
 3.9490	 4.6790
 3.9520	 4.6890
 3.9550	 4.6850
 3.9580	 4.6540
 3.9610	 4.6570
 3.9640	 4.6790
 3.9670	 4.6810
 3.9700	 4.6330
 3.9740	 4.6510
 3.9770	 4.6770
 3.9800	 4.6800
 3.9830	 4.6450
 3.9860	 4.6470
 3.9890	 4.6630
 3.9920	 4.6630
 3.9950	 4.6380
 3.9980	 4.6490
 4.0010	 4.6700
 4.0040	 4.6800
 4.0070	 4.6670
 4.0100	 4.6730
 4.0140	 4.6890
 4.0170	 4.7070
 4.0200	 4.7100
 4.0230	 4.7150
 4.0260	 4.6880
 4.0290	 4.6690
 4.0320	 4.6640
 4.0350	 4.6870
 4.0390	 4.6760
 4.0420	 4.6920
 4.0450	 4.6830
 4.0480	 4.6670
 4.0510	 4.6470
 4.0540	 4.6610
 4.0570	 4.6660
 4.0610	 4.6580
 4.0640	 4.6770
 4.0670	 4.6870
 4.0700	 4.6820
 4.0730	 4.6840
 4.0770	 4.6870
 4.0800	 4.7120
 4.0830	 4.7040
 4.0860	 4.7070
 4.0890	 4.7110
 4.0930	 4.6880
 4.0960	 4.6650
 4.0990	 4.6970
 4.1020	 4.7210
 4.1060	 4.6880
 4.1090	 4.6530
 4.1120	 4.6740
 4.1150	 4.6790
 4.1190	 4.6810
 4.1220	 4.6710
 4.1250	 4.6840
 4.1290	 4.6920
 4.1320	 4.6760
 4.1350	 4.6660
 4.1380	 4.6640
 4.1420	 4.6640
 4.1450	 4.6650
 4.1480	 4.6490
 4.1520	 4.6620
 4.1550	 4.6730
 4.1580	 4.6590
 4.1620	 4.6640
 4.1650	 4.6600
 4.1680	 4.6740
 4.1720	 4.6790
 4.1750	 4.6830
 4.1780	 4.7000
 4.1820	 4.6930
 4.1850	 4.6780
 4.1890	 4.6730
 4.1920	 4.6820
 4.1950	 4.7030
 4.1990	 4.6940
 4.2020	 4.6360
 4.2060	 4.6470
 4.2090	 4.6400
 4.2120	 4.6530
 4.2160	 4.6750
 4.2190	 4.6540
 4.2230	 4.6030
 4.2260	 4.6430
 4.2300	 4.6270
 4.2330	 4.5660
 4.2360	 4.5160
 4.2400	 4.4610
 4.2430	 4.4470
 4.2470	 4.5060
 4.2500	 4.5630
 4.2540	 4.5980
 4.2570	 4.5830
 4.2610	 4.5690
 4.2640	 4.5410
 4.2680	 4.5250
 4.2710	 4.5320
 4.2750	 4.5720
 4.2780	 4.6070
 4.2820	 4.6150
 4.2850	 4.5750
 4.2890	 4.5230
 4.2930	 4.5280
 4.2960	 4.5510
 4.3000	 4.5690
 4.3030	 4.5490
 4.3070	 4.5320
 4.3100	 4.5580
 4.3140	 4.5840
 4.3180	 4.6000
 4.3210	 4.6330
 4.3250	 4.6600
 4.3280	 4.6480
 4.3320	 4.6550
 4.3360	 4.6690
 4.3390	 4.6710
 4.3430	 4.6880
 4.3470	 4.6750
 4.3500	 4.6560
 4.3540	 4.6550
 4.3580	 4.6430
 4.3610	 4.6580
 4.3650	 4.6740
 4.3690	 4.6470
 4.3720	 4.6130
 4.3760	 4.6220
 4.3800	 4.6430
 4.3830	 4.6370
 4.3870	 4.6550
 4.3910	 4.6640
 4.3940	 4.6450
 4.3980	 4.6550
 4.4020	 4.6930
 4.4060	 4.6890
 4.4090	 4.6610
 4.4130	 4.6370
 4.4170	 4.6670
 4.4210	 4.6890
 4.4240	 4.6730
 4.4280	 4.6510
 4.4320	 4.6490
 4.4360	 4.6440
 4.4400	 4.6390
 4.4430	 4.6550
 4.4470	 4.6620
 4.4510	 4.6440
 4.4550	 4.6360
 4.4590	 4.6340
 4.4630	 4.6470
 4.4660	 4.6610
 4.4700	 4.6760
 4.4740	 4.6830
 4.4780	 4.6400
 4.4820	 4.6320
 4.4860	 4.6280
 4.4900	 4.6100
 4.4930	 4.6160
 4.4970	 4.6470
 4.5010	 4.6390
 4.5050	 4.6230
 4.5090	 4.6170
 4.5130	 4.6180
 4.5170	 4.6120
 4.5210	 4.6130
 4.5250	 4.6430
 4.5290	 4.6520
 4.5330	 4.6240
 4.5370	 4.6210
 4.5410	 4.6350
 4.5450	 4.6340
 4.5490	 4.6170
 4.5530	 4.6130
 4.5570	 4.6260
 4.5610	 4.6420
 4.5650	 4.6600
 4.5690	 4.6720
 4.5730	 4.6410
 4.5770	 4.6020
 4.5810	 4.5960
 4.5850	 4.6080
 4.5890	 4.6080
 4.5930	 4.6110
 4.5970	 4.6170
 4.6010	 4.6060
 4.6050	 4.6010
 4.6090	 4.5930
 4.6130	 4.5980
 4.6170	 4.6250
 4.6220	 4.6400
 4.6260	 4.6260
 4.6300	 4.6140
 4.6340	 4.5980
 4.6380	 4.6160
 4.6420	 4.6130
 4.6460	 4.6090
 4.6510	 4.6180
 4.6550	 4.6120
 4.6590	 4.6100
 4.6630	 4.6070
 4.6670	 4.5810
 4.6720	 4.5750
 4.6760	 4.5890
 4.6800	 4.6080
 4.6840	 4.6180
 4.6880	 4.6130
 4.6930	 4.6250
 4.6970	 4.6430
 4.7010	 4.6220
 4.7050	 4.5990
 4.7100	 4.6210
 4.7140	 4.6430
 4.7180	 4.6070
 4.7230	 4.6000
 4.7270	 4.6100
 4.7310	 4.6010
 4.7360	 4.5920
 4.7400	 4.6240
 4.7440	 4.6230
 4.7490	 4.5930
 4.7530	 4.5810
 4.7570	 4.5890
 4.7620	 4.5850
 4.7660	 4.5900
 4.7700	 4.5920
 4.7750	 4.5750
 4.7790	 4.5760
 4.7840	 4.6160
 4.7880	 4.6330
 4.7920	 4.6340
 4.7970	 4.6310
 4.8010	 4.6640
 4.8060	 4.6430
 4.8100	 4.6250
 4.8150	 4.6520
 4.8190	 4.6570
 4.8240	 4.6390
 4.8280	 4.6450
 4.8330	 4.6200
 4.8370	 4.6200
 4.8420	 4.6320
 4.8460	 4.6340
 4.8510	 4.6130
 4.8550	 4.6140
 4.8600	 4.6150
 4.8640	 4.6260
 4.8690	 4.6170
 4.8740	 4.6210
 4.8780	 4.6290
 4.8830	 4.6370
 4.8870	 4.6140
 4.8920	 4.5940
 4.8970	 4.6010
 4.9010	 4.6310
 4.9060	 4.6530
 4.9100	 4.6690
 4.9150	 4.6440
 4.9200	 4.6290
 4.9240	 4.6330
 4.9290	 4.6590
 4.9340	 4.6680
 4.9390	 4.6760
 4.9430	 4.6620
 4.9480	 4.6790
 4.9530	 4.6750
 4.9570	 4.6610
 4.9620	 4.6340
 4.9670	 4.6460
 4.9720	 4.6700
 4.9760	 4.7020
 4.9810	 4.6920
 4.9860	 4.6760
 4.9910	 4.6750
 4.9960	 4.6810
 5.0000	 4.6620
 5.0050	 4.6680
 5.0100	 4.6680
 5.0150	 4.6610
 5.0200	 4.6480
 5.0250	 4.6560
 5.0300	 4.6590
 5.0340	 4.6720
 5.0390	 4.6780
 5.0440	 4.6620
 5.0490	 4.6460
 5.0540	 4.6670
 5.0590	 4.6860
 5.0640	 4.6710
 5.0690	 4.6400
 5.0740	 4.6560
 5.0790	 4.6630
 5.0840	 4.6750
 5.0890	 4.6710
 5.0940	 4.6730
 5.0990	 4.6830
 5.1040	 4.6970
 5.1090	 4.6900
 5.1140	 4.7020
 5.1190	 4.6970
 5.1240	 4.7190
 5.1290	 4.6960
 5.1340	 4.6970
 5.1390	 4.6940
 5.1440	 4.7130
 5.1490	 4.6980
 5.1550	 4.7100
 5.1600	 4.6960
 5.1650	 4.6640
 5.1700	 4.6780
 5.1750	 4.7060
 5.1800	 4.7040
 5.1850	 4.7010
 5.1910	 4.6880
 5.1960	 4.6790
 5.2010	 4.7120
 5.2060	 4.7250
 5.2110	 4.7080
 5.2170	 4.7230
 5.2220	 4.6820
 5.2270	 4.7000
 5.2330	 4.6900
 5.2380	 4.6680
 5.2430	 4.6480
 5.2480	 4.6730
 5.2540	 4.6760
 5.2590	 4.6810
 5.2640	 4.6620
 5.2700	 4.6740
 5.2750	 4.6430
 5.2800	 4.6740
 5.2860	 4.7040
 5.2910	 4.7130
 5.2970	 4.6860
 5.3020	 4.6710
 5.3080	 4.6830
 5.3130	 4.7380
 5.3180	 4.7100
 5.3240	 4.6780
 5.3290	 4.6650
 5.3350	 4.6830
 5.3400	 4.6640
 5.3460	 4.6780
 5.3510	 4.6770
 5.3570	 4.6730
 5.3620	 4.6620
 5.3680	 4.6850
 5.3740	 4.6690
 5.3790	 4.6730
 5.3850	 4.6700
 5.3900	 4.6910
 5.3960	 4.6660
 5.4010	 4.6390
 5.4070	 4.6380
 5.4130	 4.6560
 5.4180	 4.6640
 5.4240	 4.6950
 5.4300	 4.6580
 5.4350	 4.6620
 5.4410	 4.6490
 5.4470	 4.6620
 5.4530	 4.6320
 5.4580	 4.6180
 5.4640	 4.6160
 5.4700	 4.6400
 5.4760	 4.6460
 5.4810	 4.6370
 5.4870	 4.6070
 5.4930	 4.6050
 5.4990	 4.5930
 5.5050	 4.6100
 5.5110	 4.5890
 5.5160	 4.6100
 5.5220	 4.5990
 5.5280	 4.6150
 5.5340	 4.6170
 5.5400	 4.5710
 5.5460	 4.5210
 5.5520	 4.5770
 5.5580	 4.5850
 5.5640	 4.5760
 5.5700	 4.5650
 5.5760	 4.5790
 5.5820	 4.5540
 5.5880	 4.5360
 5.5940	 4.5150
 5.6000	 4.5400
 5.6060	 4.5230
 5.6120	 4.5320
 5.6180	 4.5260
 5.6240	 4.5010
 5.6300	 4.4640
 5.6360	 4.5280
 5.6420	 4.5590
 5.6490	 4.5200
 5.6550	 4.4820
 5.6610	 4.4470
 5.6670	 4.3950
 5.6730	 4.4180
 5.6800	 4.4110
 5.6860	 4.4350
 5.6920	 4.4280
 5.6980	 4.4280
 5.7050	 4.4020
 5.7110	 4.3930
 5.7170	 4.3640
 5.7230	 4.3760
 5.7300	 4.3460
 5.7360	 4.3610
 5.7420	 4.3750
 5.7490	 4.4860
 5.7550	 4.5340
 5.7620	 4.6120
 5.7680	 4.6880
 5.7740	 4.6980
 5.7810	 4.6810
 5.7870	 4.7190
 5.7940	 4.6430
 5.8000	 4.6060
 5.8070	 4.6260
 5.8130	 4.6890
 5.8200	 4.7320
 5.8260	 4.7720
 5.8330	 4.7170
 5.8390	 4.7210
 5.8460	 4.7240
 5.8530	 4.7490
 5.8590	 4.7680
 5.8660	 4.8270
 5.8730	 4.8030
 5.8790	 4.8980
 5.8860	 4.8960
 5.8930	 4.8800
 5.8990	 4.8330
 5.9060	 4.8100
 5.9130	 4.8200
 5.9190	 4.8490
 5.9260	 4.7990
 5.9330	 4.8810
 5.9400	 4.8680
 5.9470	 4.8270
 5.9530	 4.8030
 5.9600	 4.8020
 5.9670	 4.8190
 5.9740	 4.8400
 5.9810	 4.8040
 5.9880	 4.8290
 5.9950	 4.7980
 6.0020	 4.7760
 6.0090	 4.7390
 6.0160	 4.7970
 6.0230	 4.7690
 6.0300	 4.7540
 6.0370	 4.7490
 6.0440	 4.8830
 6.0510	 4.9160
 6.0580	 4.8500
 6.0650	 4.7800
 6.0720	 4.8290
 6.0790	 4.8220
 6.0860	 4.8140
 6.0930	 4.7890
 6.1010	 4.8380
 6.1080	 4.8690
 6.1150	 4.9200
 6.1220	 4.8180
 6.1290	 4.7990
 6.1370	 4.8040
 6.1440	 4.8390
 6.1510	 4.8290
 6.1580	 4.8510
 6.1660	 4.7970
 6.1730	 4.8100
 6.1800	 4.8370
 6.1880	 4.8810
 6.1950	 4.8030
 6.2030	 4.7760
 6.2100	 4.7540
 6.2180	 4.7570
 6.2250	 4.7240
 6.2320	 4.7780
 6.2400	 4.7740
 6.2480	 4.7750
 6.2550	 4.7610
 6.2630	 4.7840
 6.2700	 4.7530
 6.2780	 4.7630
 6.2850	 4.7370
 6.2930	 4.7550
 6.3010	 4.7340
 6.3080	 4.7720
 6.3160	 4.7340
 6.3240	 4.7170
 6.3310	 4.7060
 6.3390	 4.8040
 6.3470	 4.7690
 6.3550	 4.7500
 6.3620	 4.7340
 6.3700	 4.7840
 6.3780	 4.7530
 6.3860	 4.7300
 6.3940	 4.6800
 6.4020	 4.7270
 6.4100	 4.7810
 6.4180	 4.8260
 6.4260	 4.7340
 6.4340	 4.7170
 6.4420	 4.6360
 6.4500	 4.6470
 6.4580	 4.6450
 6.4660	 4.6430
 6.4740	 4.6450
 6.4820	 4.7370
 6.4900	 4.7460
 6.4980	 4.7240
 6.5060	 4.6250
 6.5140	 4.6520
 6.5230	 4.6300
 6.5310	 4.6050
 6.5390	 4.5500
 6.5470	 4.5470
 6.5560	 4.5420
 6.5640	 4.5840
 6.5720	 4.5880
 6.5800	 4.6210
 6.5890	 4.6030
 6.5970	 4.6010
 6.6060	 4.5410
 6.6140	 4.5540
 6.6230	 4.5340
 6.6310	 4.6050
 6.6390	 4.6410
 6.6480	 4.6150
 6.6570	 4.5030
 6.6650	 4.4980
 6.6740	 4.4900
 6.6820	 4.5120
 6.6910	 4.4450
 6.7000	 4.4820
 6.7080	 4.4890
 6.7170	 4.4930
 6.7260	 4.4080
 6.7340	 4.3940
 6.7430	 4.3130
 6.7520	 4.2970
 6.7610	 4.2120
 6.7690	 4.1810
 6.7780	 4.1480
 6.7870	 4.4510
 6.7960	 4.7440
 6.8050	 4.7010
 6.8140	 4.5200
 6.8230	 4.5150
 6.8320	 4.6140
 6.8410	 4.8870
 6.8500	 4.9430
 6.8590	 4.9820
 6.8680	 4.9080
 6.8770	 4.8370
 6.8860	 4.8030
 6.8960	 4.8160
 6.9050	 4.7750
 6.9140	 4.8090
 6.9230	 4.7520
 6.9320	 4.7590
 6.9420	 4.7540
 6.9510	 4.8290
 6.9600	 4.8280
 6.9700	 4.8150
 6.9790	 4.7320
 6.9880	 4.7650
 6.9980	 4.7090
 7.0070	 4.7330
 7.0170	 4.7170
 7.0260	 4.7490
 7.0360	 4.7180
 7.0450	 4.8100
 7.0550	 4.7970
 7.0650	 4.7600
 7.0740	 4.7130
 7.0840	 4.7730
 7.0940	 4.7200
 7.1030	 4.7290
 7.1130	 4.7050
 7.1230	 4.7320
 7.1330	 4.6930
 7.1420	 4.6760
 7.1520	 4.6610
 7.1620	 4.6980
 7.1720	 4.6050
 7.1820	 4.6130
 7.1920	 4.5990
 7.2020	 4.6370
 7.2120	 4.6130
 7.2220	 4.6360
 7.2320	 4.5880
 7.2420	 4.6200
 7.2520	 4.5960
 7.2620	 4.6800
 7.2730	 4.6770
 7.2830	 4.7130
 7.2930	 4.6850
 7.3030	 4.7230
 7.3140	 4.7200
 7.3240	 4.7240
 7.3340	 4.6760
 7.3450	 4.7320
 7.3550	 4.6680
 7.3660	 4.6860
 7.3760	 4.6840
 7.3870	 4.7580
 7.3970	 4.7020
 7.4080	 4.7020
 7.4180	 4.7090
 7.4290	 4.7410
 7.4400	 4.6450
 7.4500	 4.6770
 7.4610	 4.6580
 7.4720	 4.6840
 7.4830	 4.6450
 7.4930	 4.6630
 7.5040	 4.6320
 7.5150	 4.6730
 7.5260	 4.6340
 7.5370	 4.6730
 7.5480	 4.6370
 7.5590	 4.6850
 7.5700	 4.6360
 7.5810	 4.6790
 7.5920	 4.7080
 7.6030	 4.7450
 7.6140	 4.6720
 7.6260	 4.7230
 7.6370	 4.6420
 7.6480	 4.6380
 7.6590	 4.6180
 7.6710	 4.6170
 7.6820	 4.5700
 7.6940	 4.6120
 7.7050	 4.5810
 7.7160	 4.6160
 7.7280	 4.6080
 7.7390	 4.6610
 7.7510	 4.6110
 7.7630	 4.6100
 7.7740	 4.5510
 7.7860	 4.5870
 7.7980	 4.5500
 7.8090	 4.6060
 7.8210	 4.5810
 7.8330	 4.5960
 7.8450	 4.5500
 7.8570	 4.5880
 7.8690	 4.5220
 7.8810	 4.5450
 7.8930	 4.5090
 7.9050	 4.5840
 7.9170	 4.5470
 7.9290	 4.5680
 7.9410	 4.5380
 7.9530	 4.6280
 7.9650	 4.6060
 7.9780	 4.6410
 7.9900	 4.5980
 8.0020	 4.6480
 8.0150	 4.5890
 8.0270	 4.6670
 8.0390	 4.6220
 8.0520	 4.6600
 8.0640	 4.6020
 8.0770	 4.6610
 8.0900	 4.6610
 8.1020	 4.7090
 8.1150	 4.6200
 8.1280	 4.6660
 8.1400	 4.6060
 8.1530	 4.6800
 8.1660	 4.6620
 8.1790	 4.6980
 8.1920	 4.6210
 8.2050	 4.6790
 8.2180	 4.6650
 8.2310	 4.7800
 8.2440	 4.7320
 8.2570	 4.7430
 8.2700	 4.6700
 8.2830	 4.7050
 8.2970	 4.6660
 8.3100	 4.7950
 8.3230	 4.7640
 8.3370	 4.7960
 8.3500	 4.7480
 8.3640	 4.8420
 8.3770	 4.7500
 8.3910	 4.7300
 8.4040	 4.7020
 8.4180	 4.8010
 8.4320	 4.6990
 8.4450	 4.7560
 8.4590	 4.7460
 8.4730	 4.8630
 8.4870	 4.7600
 8.5010	 4.8400
 8.5150	 4.7570
 8.5290	 4.7900
 8.5430	 4.7410
 8.5570	 4.7820
 8.5710	 4.7330
 8.5850	 4.8340
 8.5990	 4.7920
 8.6140	 4.8320
 8.6280	 4.7460
 8.6420	 4.8110
 8.6570	 4.7510
 8.6710	 4.8200
 8.6860	 4.7270
 8.7000	 4.7330
 8.7150	 4.6280
 8.7300	 4.7540
 8.7440	 4.7180
 8.7590	 4.7420
 8.7740	 4.7080
 8.7890	 4.8210
 8.8040	 4.6820
 8.8190	 4.7390
 8.8340	 4.7040
 8.8490	 4.7830
 8.8640	 4.7270
 8.8790	 4.8050
 8.8940	 4.6850
 8.9100	 4.6920
 8.9250	 4.6380
 8.9400	 4.7420
 8.9560	 4.7200
 8.9710	 4.8540
 8.9870	 4.6910
 9.0020	 4.6850
 9.0180	 4.6920
 9.0340	 4.8030
 9.0500	 4.6920
 9.0650	 4.7840
 9.0810	 4.7490
 9.0970	 4.8860
 9.1130	 4.7970
 9.1290	 4.8270
 9.1450	 4.6950
 9.1620	 4.7890
 9.1780	 4.8280
 9.1940	 4.9540
 9.2100	 4.7870
 9.2270	 4.7630
 9.2430	 4.6460
 9.2600	 4.7090
 9.2760	 4.7060
 9.2930	 4.7800
 9.3100	 4.6330
 9.3260	 4.7970
 9.3430	 4.7220
 9.3600	 4.7040
 9.3770	 4.6120
 9.3940	 4.7190
 9.4110	 4.6820
 9.4280	 4.7880
 9.4450	 4.6910
 9.4620	 4.7670
 9.4800	 4.6450
 9.4970	 4.7310
 9.5150	 4.6920
 9.5320	 4.7520
 9.5500	 4.7350
 9.5670	 4.8120
 9.5850	 4.6740
 9.6030	 4.7560
 9.6200	 4.7210
 9.6380	 4.8350
 9.6560	 4.7770
 9.6740	 4.8880
 9.6920	 4.7930
 9.7110	 4.8670
 9.7290	 4.7920
 9.7470	 4.8760
 9.7650	 4.8100
 9.7840	 4.9540
 9.8020	 4.8580
 9.8210	 4.8690
 9.8390	 4.8070
 9.8580	 4.9400
 9.8770	 4.8580
 9.8960	 4.9420
 9.9150	 4.8580
 9.9340	 4.9050
 9.9530	 4.8410
 9.9720	 5.0050
 9.9910	 4.8590
10.0100	 4.8640
10.0300	 4.7960
10.0490	 4.8620
10.0690	 4.7980
10.0880	 4.9270
10.1080	 4.8610
10.1280	 4.9050
10.1480	 4.7930
10.1670	 4.8560
10.1870	 4.7690
10.2070	 4.8920
10.2280	 4.8440
10.2480	 4.8930
10.2680	 4.7700
10.2890	 4.8280
10.3090	 4.7840
10.3300	 4.8920
10.3500	 4.7250
10.3710	 4.7620
10.3920	 4.7670
10.4120	 4.8690
10.4330	 4.7470
10.4540	 4.8370
10.4760	 4.7460
10.4970	 4.7930
10.5180	 4.7280
10.5390	 4.9150
10.5610	 4.8140
10.5820	 4.8030
10.6040	 4.7000
10.6260	 4.8380
10.6480	 4.7620
10.6700	 4.8250
10.6920	 4.7000
10.7140	 4.7420
10.7360	 4.6300
10.7580	 4.7170
10.7800	 4.6350
10.8030	 4.7130
10.8250	 4.6110
10.8480	 4.6960
10.8710	 4.6020
10.8940	 4.6100
10.9170	 4.5140
10.9400	 4.6610
10.9630	 4.5780
10.9860	 4.7190
11.0090	 4.6450
11.0330	 4.6300
11.0560	 4.4750
11.0800	 4.6010
11.1040	 4.4880
11.1270	 4.5340
11.1510	 4.4580
11.1750	 4.5650
11.2000	 4.4740
11.2240	 4.5750
11.2480	 4.4700
11.2730	 4.5480
11.2970	 4.5150
11.3220	 4.6180
11.3470	 4.4590
11.3720	 4.5240
11.3970	 4.4640
11.4220	 4.5560
11.4470	 4.3310
11.4720	 4.3310
11.4980	 4.4120
11.5230	 4.6210
11.5490	 4.4890
11.5750	 4.5420
11.6000	 4.3670
11.6260	 4.4460
11.6530	 4.3080
11.6790	 4.4220
11.7050	 4.3590
11.7320	 4.4860
11.7580	 4.4020
11.7850	 4.5190
11.8120	 4.4000
11.8390	 4.5010
11.8660	 4.3910
11.8930	 4.4790
11.9200	 4.3840
11.9480	 4.4970
11.9760	 4.3330
12.0030	 4.4720
12.0310	 4.4020
12.0590	 4.5360
12.0870	 4.4010
12.1150	 4.5530
12.1440	 4.4340
12.1720	 4.5080
12.2010	 4.3560
12.2300	 4.4870
12.2590	 4.4280
12.2880	 4.6340
12.3170	 4.4870
12.3460	 4.5480
12.3760	 4.3920
12.4050	 4.5380
12.4350	 4.4610
12.4650	 4.6430
12.4950	 4.5590
12.5250	 4.6550
12.5550	 4.4760
12.5860	 4.6530
12.6170	 4.5460
12.6470	 4.6220
12.6780	 4.4340
12.7090	 4.5990
12.7410	 4.4700
12.7720	 4.6290
12.8030	 4.5180
12.8350	 4.6420
12.8670	 4.5120
12.8990	 4.6100
12.9310	 4.4330
12.9640	 4.7110
12.9960	 4.5670
13.0290	 4.6210
13.0610	 4.4950
13.0940	 4.6030
13.1280	 4.4360
13.1610	 4.6730
13.1940	 4.5590
13.2280	 4.6630
13.2620	 4.5040
13.2960	 4.6170
13.3300	 4.5210
13.3640	 4.7310
13.3990	 4.5640
13.4340	 4.7130
13.4690	 4.4720
13.5040	 4.4980
13.5390	 4.3140
13.5740	 4.5130
13.6100	 4.2950
13.6460	 4.3520
13.6820	 4.2630
13.7180	 4.8030
13.7540	 4.7290
13.7910	 4.7360
13.8280	 4.4900
13.8650	 4.7680
13.9020	 4.9500
13.9390	 5.4580
13.9770	 5.2240
14.0150	 5.1690
14.0530	 4.8990
14.0910	 5.1170
14.1290	 4.8340
14.1680	 5.0730
14.2070	 4.8520
14.2460	 4.9950
14.2850	 4.7990
14.3240	 5.0140
14.3640	 4.7530
14.4040	 5.0520
14.4440	 4.8620
14.4840	 4.9370
14.5250	 4.5830
14.5660	 4.8750
14.6070	 4.6350
14.6480	 4.7550
14.6900	 4.5180
14.7310	 4.9090
14.7730	 4.7240
14.8150	 5.0880
14.8580	 4.6910
14.9010	 4.8600
14.9440	 4.2680
14.9870	 4.7970
15.0300	 4.7820
15.0740	 4.9990
15.1180	 4.5850
15.1620	 5.0090
15.2060	 4.6930
15.2510	 5.0020
15.2960	 4.6630
15.3410	 5.0950
15.3870	 4.6570
