Name: Quercus suber
Type: vegetation
Class: Tree
Genus: Quercus
Species: suber
Sample No.: JPL249
Owner: JPL
Wavelength Range: TIR
Origin: 34.12831; -118.11379; WGS84
Collection Date: 10/6/2016
Description: Samples were collected at the Huntington Garden in San Marino California as part of a JPL Subcontract studying HyTES imagery. Samples were taken to JPL and processed within 48 hours of collection. The same leaves were processed in the Nicolet and then measured using the ASD.
Measurement: Hemispherical reflectance
First Column: X
Second Column: Y
X Units: Wavelength (micrometer)
Y Units: Reflectance (percentage)
First X Value: 2.501
Last X Value: 15.387
Number of X Values: 1737
Additional Information: vegetation.tree.quercus.suber.tir.jpl249.jpl.nicolet.ancillary.txt

 2.5010	 5.4760
 2.5030	 5.4470
 2.5040	 5.5040
 2.5050	 5.4780
 2.5060	 5.4930
 2.5070	 5.4690
 2.5090	 5.4210
 2.5100	 5.3050
 2.5110	 5.2700
 2.5120	 5.3300
 2.5140	 5.4370
 2.5150	 5.3650
 2.5160	 5.2580
 2.5170	 5.2810
 2.5180	 5.3660
 2.5200	 5.3080
 2.5210	 5.3610
 2.5220	 5.3800
 2.5230	 5.3460
 2.5250	 5.3490
 2.5260	 5.3170
 2.5270	 5.2480
 2.5280	 5.3050
 2.5300	 5.3070
 2.5310	 5.3210
 2.5320	 5.3280
 2.5330	 5.3250
 2.5340	 5.2510
 2.5360	 5.2900
 2.5370	 5.3040
 2.5380	 5.3300
 2.5390	 5.1990
 2.5410	 5.2130
 2.5420	 5.2790
 2.5430	 5.2900
 2.5440	 5.2740
 2.5460	 5.2960
 2.5470	 5.2570
 2.5480	 5.2710
 2.5490	 5.2730
 2.5510	 5.3160
 2.5520	 5.3030
 2.5530	 5.2970
 2.5540	 5.2540
 2.5560	 5.2970
 2.5570	 5.2810
 2.5580	 5.2570
 2.5590	 5.2530
 2.5610	 5.3080
 2.5620	 5.2270
 2.5630	 5.2120
 2.5650	 5.2540
 2.5660	 5.2940
 2.5670	 5.2760
 2.5680	 5.3320
 2.5700	 5.3340
 2.5710	 5.3220
 2.5720	 5.2850
 2.5730	 5.2670
 2.5750	 5.2930
 2.5760	 5.3230
 2.5770	 5.2960
 2.5790	 5.3390
 2.5800	 5.3060
 2.5810	 5.2750
 2.5820	 5.2520
 2.5840	 5.2130
 2.5850	 5.1560
 2.5860	 5.1680
 2.5880	 5.1610
 2.5890	 5.2140
 2.5900	 5.2030
 2.5910	 5.2030
 2.5930	 5.1890
 2.5940	 5.1710
 2.5950	 5.0630
 2.5970	 5.0310
 2.5980	 5.0300
 2.5990	 5.0810
 2.6010	 5.0640
 2.6020	 5.1170
 2.6030	 5.1040
 2.6040	 5.0560
 2.6060	 4.9580
 2.6070	 4.9040
 2.6080	 4.8700
 2.6100	 4.9020
 2.6110	 4.8550
 2.6120	 4.8060
 2.6140	 4.7950
 2.6150	 4.8700
 2.6160	 4.8310
 2.6180	 4.7260
 2.6190	 4.6440
 2.6200	 4.6260
 2.6220	 4.6250
 2.6230	 4.6730
 2.6240	 4.6160
 2.6260	 4.6270
 2.6270	 4.5540
 2.6280	 4.5370
 2.6300	 4.4940
 2.6310	 4.4420
 2.6320	 4.4120
 2.6340	 4.4110
 2.6350	 4.3660
 2.6360	 4.3560
 2.6380	 4.3080
 2.6390	 4.3590
 2.6400	 4.3290
 2.6420	 4.2580
 2.6430	 4.1620
 2.6440	 4.1970
 2.6460	 4.1860
 2.6470	 4.2200
 2.6480	 4.1400
 2.6500	 4.0720
 2.6510	 3.9840
 2.6520	 4.0230
 2.6540	 4.0110
 2.6550	 3.9440
 2.6570	 3.8660
 2.6580	 3.8830
 2.6590	 3.8250
 2.6610	 3.8640
 2.6620	 3.8590
 2.6630	 3.7980
 2.6650	 3.7080
 2.6660	 3.6860
 2.6670	 3.6470
 2.6690	 3.6800
 2.6700	 3.5800
 2.6720	 3.5580
 2.6730	 3.5670
 2.6740	 3.5760
 2.6760	 3.5570
 2.6770	 3.5480
 2.6780	 3.4960
 2.6800	 3.4880
 2.6810	 3.5130
 2.6830	 3.5030
 2.6840	 3.3830
 2.6850	 3.3830
 2.6870	 3.3890
 2.6880	 3.4150
 2.6900	 3.3490
 2.6910	 3.2160
 2.6920	 3.1790
 2.6940	 3.2210
 2.6950	 3.1600
 2.6970	 3.1640
 2.6980	 3.1640
 2.6990	 3.2040
 2.7010	 3.1580
 2.7020	 3.0810
 2.7040	 3.0710
 2.7050	 3.1280
 2.7060	 3.0890
 2.7080	 3.0700
 2.7090	 3.0540
 2.7110	 3.0280
 2.7120	 2.9500
 2.7130	 3.0160
 2.7150	 3.0530
 2.7160	 2.9990
 2.7180	 2.9510
 2.7190	 3.0060
 2.7210	 2.9300
 2.7220	 2.8890
 2.7230	 2.8150
 2.7250	 2.8290
 2.7260	 2.8800
 2.7280	 2.9530
 2.7290	 2.9100
 2.7310	 2.8900
 2.7320	 2.8880
 2.7340	 2.9050
 2.7350	 2.8170
 2.7360	 2.8220
 2.7380	 2.7970
 2.7390	 2.7500
 2.7410	 2.7040
 2.7420	 2.7770
 2.7440	 2.7920
 2.7450	 2.8020
 2.7470	 2.7650
 2.7480	 2.7350
 2.7490	 2.6980
 2.7510	 2.7560
 2.7520	 2.7410
 2.7540	 2.7940
 2.7550	 2.7300
 2.7570	 2.7630
 2.7580	 2.7880
 2.7600	 2.7660
 2.7610	 2.7240
 2.7630	 2.7400
 2.7640	 2.7790
 2.7660	 2.7950
 2.7670	 2.7200
 2.7690	 2.7770
 2.7700	 2.7130
 2.7720	 2.6260
 2.7730	 2.6310
 2.7740	 2.7030
 2.7760	 2.6630
 2.7770	 2.6630
 2.7790	 2.7090
 2.7800	 2.7630
 2.7820	 2.6630
 2.7830	 2.6420
 2.7850	 2.6500
 2.7860	 2.6450
 2.7880	 2.6030
 2.7890	 2.6220
 2.7910	 2.6220
 2.7920	 2.7020
 2.7940	 2.7400
 2.7950	 2.6890
 2.7970	 2.6430
 2.7980	 2.6630
 2.8000	 2.6690
 2.8010	 2.6740
 2.8030	 2.6440
 2.8040	 2.6860
 2.8060	 2.6960
 2.8080	 2.7250
 2.8090	 2.6470
 2.8110	 2.6780
 2.8120	 2.6950
 2.8140	 2.7090
 2.8150	 2.7100
 2.8170	 2.7300
 2.8180	 2.6950
 2.8200	 2.7320
 2.8210	 2.6820
 2.8230	 2.6920
 2.8240	 2.6950
 2.8260	 2.7030
 2.8270	 2.6120
 2.8290	 2.5660
 2.8310	 2.5430
 2.8320	 2.6480
 2.8340	 2.6290
 2.8350	 2.6360
 2.8370	 2.6250
 2.8380	 2.6670
 2.8400	 2.7060
 2.8410	 2.7210
 2.8430	 2.6520
 2.8440	 2.6480
 2.8460	 2.5850
 2.8480	 2.6370
 2.8490	 2.7320
 2.8510	 2.7690
 2.8520	 2.6740
 2.8540	 2.6520
 2.8550	 2.6150
 2.8570	 2.6090
 2.8590	 2.6160
 2.8600	 2.6760
 2.8620	 2.6560
 2.8630	 2.6900
 2.8650	 2.7210
 2.8660	 2.7490
 2.8680	 2.7070
 2.8700	 2.7230
 2.8710	 2.6750
 2.8730	 2.6650
 2.8740	 2.6650
 2.8760	 2.6500
 2.8780	 2.6070
 2.8790	 2.6390
 2.8810	 2.6440
 2.8820	 2.7640
 2.8840	 2.7590
 2.8860	 2.7440
 2.8870	 2.6480
 2.8890	 2.6440
 2.8900	 2.6990
 2.8920	 2.7730
 2.8940	 2.7100
 2.8950	 2.6790
 2.8970	 2.6530
 2.8990	 2.6920
 2.9000	 2.6990
 2.9020	 2.6980
 2.9030	 2.6360
 2.9050	 2.6460
 2.9070	 2.6570
 2.9080	 2.6960
 2.9100	 2.7050
 2.9120	 2.6960
 2.9130	 2.6700
 2.9150	 2.6600
 2.9160	 2.6270
 2.9180	 2.6770
 2.9200	 2.6890
 2.9210	 2.6890
 2.9230	 2.7120
 2.9250	 2.7850
 2.9260	 2.7220
 2.9280	 2.7690
 2.9300	 2.7370
 2.9310	 2.7000
 2.9330	 2.6850
 2.9350	 2.7560
 2.9360	 2.7070
 2.9380	 2.7590
 2.9400	 2.7370
 2.9410	 2.6900
 2.9430	 2.6110
 2.9450	 2.6830
 2.9460	 2.6740
 2.9480	 2.6960
 2.9500	 2.7500
 2.9510	 2.7650
 2.9530	 2.6710
 2.9550	 2.6580
 2.9560	 2.6810
 2.9580	 2.7690
 2.9600	 2.6900
 2.9610	 2.6930
 2.9630	 2.6630
 2.9650	 2.7190
 2.9670	 2.7350
 2.9680	 2.7190
 2.9700	 2.6800
 2.9720	 2.7010
 2.9730	 2.6940
 2.9750	 2.6780
 2.9770	 2.6060
 2.9780	 2.6070
 2.9800	 2.6280
 2.9820	 2.7180
 2.9840	 2.6950
 2.9850	 2.6910
 2.9870	 2.6720
 2.9890	 2.7620
 2.9900	 2.7450
 2.9920	 2.7170
 2.9940	 2.6890
 2.9960	 2.7630
 2.9970	 2.7340
 2.9990	 2.6610
 3.0010	 2.6570
 3.0030	 2.7280
 3.0040	 2.7250
 3.0060	 2.7520
 3.0080	 2.7260
 3.0100	 2.7440
 3.0110	 2.7050
 3.0130	 2.6940
 3.0150	 2.6970
 3.0170	 2.7960
 3.0180	 2.7540
 3.0200	 2.7800
 3.0220	 2.7800
 3.0240	 2.7840
 3.0250	 2.8050
 3.0270	 2.8290
 3.0290	 2.7610
 3.0310	 2.7080
 3.0320	 2.6630
 3.0340	 2.7590
 3.0360	 2.7690
 3.0380	 2.7360
 3.0400	 2.7210
 3.0410	 2.7600
 3.0430	 2.7740
 3.0450	 2.7930
 3.0470	 2.7220
 3.0480	 2.7210
 3.0500	 2.7500
 3.0520	 2.7890
 3.0540	 2.7240
 3.0560	 2.6990
 3.0570	 2.6890
 3.0590	 2.7710
 3.0610	 2.7720
 3.0630	 2.7120
 3.0650	 2.6610
 3.0670	 2.7200
 3.0680	 2.7400
 3.0700	 2.7720
 3.0720	 2.7670
 3.0740	 2.7830
 3.0760	 2.7620
 3.0770	 2.8130
 3.0790	 2.8220
 3.0810	 2.8230
 3.0830	 2.8000
 3.0850	 2.7680
 3.0870	 2.7120
 3.0880	 2.7910
 3.0900	 2.8180
 3.0920	 2.7950
 3.0940	 2.7640
 3.0960	 2.7410
 3.0980	 2.7330
 3.1000	 2.7950
 3.1010	 2.7880
 3.1030	 2.7750
 3.1050	 2.7480
 3.1070	 2.7590
 3.1090	 2.7070
 3.1110	 2.7430
 3.1130	 2.7560
 3.1140	 2.7370
 3.1160	 2.7190
 3.1180	 2.7810
 3.1200	 2.7920
 3.1220	 2.7930
 3.1240	 2.7970
 3.1260	 2.8400
 3.1280	 2.8170
 3.1290	 2.8020
 3.1310	 2.7260
 3.1330	 2.7450
 3.1350	 2.7460
 3.1370	 2.7850
 3.1390	 2.8000
 3.1410	 2.7720
 3.1430	 2.7630
 3.1450	 2.8340
 3.1470	 2.7900
 3.1480	 2.8190
 3.1500	 2.7990
 3.1520	 2.7270
 3.1540	 2.6930
 3.1560	 2.7430
 3.1580	 2.7600
 3.1600	 2.7710
 3.1620	 2.7200
 3.1640	 2.7330
 3.1660	 2.7650
 3.1680	 2.8000
 3.1700	 2.7690
 3.1720	 2.7730
 3.1730	 2.7720
 3.1750	 2.7820
 3.1770	 2.7700
 3.1790	 2.8040
 3.1810	 2.7550
 3.1830	 2.7450
 3.1850	 2.7530
 3.1870	 2.7990
 3.1890	 2.8100
 3.1910	 2.8320
 3.1930	 2.7600
 3.1950	 2.7890
 3.1970	 2.7840
 3.1990	 2.7590
 3.2010	 2.7080
 3.2030	 2.7310
 3.2050	 2.7080
 3.2070	 2.7530
 3.2090	 2.7430
 3.2110	 2.7570
 3.2130	 2.7400
 3.2150	 2.7280
 3.2170	 2.7010
 3.2190	 2.7350
 3.2210	 2.7250
 3.2230	 2.7400
 3.2250	 2.7760
 3.2270	 2.7790
 3.2290	 2.7010
 3.2310	 2.6770
 3.2330	 2.6570
 3.2350	 2.7040
 3.2370	 2.7190
 3.2390	 2.7100
 3.2410	 2.6990
 3.2430	 2.7260
 3.2450	 2.7150
 3.2470	 2.7390
 3.2490	 2.7310
 3.2510	 2.7330
 3.2530	 2.7190
 3.2550	 2.7050
 3.2570	 2.6990
 3.2590	 2.7350
 3.2610	 2.7110
 3.2630	 2.7350
 3.2650	 2.7010
 3.2670	 2.7000
 3.2700	 2.6950
 3.2720	 2.7020
 3.2740	 2.6800
 3.2760	 2.6750
 3.2780	 2.6640
 3.2800	 2.6920
 3.2820	 2.6580
 3.2840	 2.6520
 3.2860	 2.6310
 3.2880	 2.6530
 3.2900	 2.6420
 3.2920	 2.6680
 3.2940	 2.6540
 3.2970	 2.6580
 3.2990	 2.6610
 3.3010	 2.6560
 3.3030	 2.6540
 3.3050	 2.6690
 3.3070	 2.6440
 3.3090	 2.6620
 3.3110	 2.6260
 3.3130	 2.6110
 3.3160	 2.5920
 3.3180	 2.6060
 3.3200	 2.5960
 3.3220	 2.5920
 3.3240	 2.5510
 3.3260	 2.5280
 3.3280	 2.5070
 3.3300	 2.5660
 3.3330	 2.5860
 3.3350	 2.6050
 3.3370	 2.5800
 3.3390	 2.5570
 3.3410	 2.5120
 3.3430	 2.5010
 3.3450	 2.4600
 3.3480	 2.4750
 3.3500	 2.5070
 3.3520	 2.5160
 3.3540	 2.4770
 3.3560	 2.4520
 3.3580	 2.3810
 3.3610	 2.3980
 3.3630	 2.3940
 3.3650	 2.3510
 3.3670	 2.3280
 3.3690	 2.3230
 3.3720	 2.2750
 3.3740	 2.2650
 3.3760	 2.2650
 3.3780	 2.2990
 3.3800	 2.2790
 3.3830	 2.2510
 3.3850	 2.2570
 3.3870	 2.2790
 3.3890	 2.2210
 3.3910	 2.2150
 3.3940	 2.1690
 3.3960	 2.1080
 3.3980	 2.0610
 3.4000	 1.9940
 3.4030	 1.9120
 3.4050	 1.9080
 3.4070	 1.8950
 3.4090	 1.9470
 3.4110	 2.0170
 3.4140	 2.0990
 3.4160	 2.1750
 3.4180	 2.4070
 3.4200	 2.7760
 3.4230	 3.2780
 3.4250	 3.8650
 3.4270	 4.5690
 3.4300	 5.0850
 3.4320	 5.1440
 3.4340	 4.8050
 3.4360	 4.4460
 3.4390	 4.1450
 3.4410	 3.9550
 3.4430	 3.8190
 3.4450	 3.7300
 3.4480	 3.5570
 3.4500	 3.5000
 3.4520	 3.5100
 3.4550	 3.5030
 3.4570	 3.4250
 3.4590	 3.3900
 3.4620	 3.3520
 3.4640	 3.3200
 3.4660	 3.3170
 3.4690	 3.3150
 3.4710	 3.2500
 3.4730	 3.2300
 3.4760	 3.1860
 3.4780	 3.1380
 3.4800	 3.0450
 3.4830	 3.0140
 3.4850	 2.9650
 3.4870	 2.8950
 3.4900	 2.8130
 3.4920	 2.7650
 3.4940	 2.7060
 3.4970	 2.6500
 3.4990	 2.5750
 3.5010	 2.5340
 3.5040	 2.5820
 3.5060	 2.9380
 3.5080	 3.7120
 3.5110	 4.6590
 3.5130	 5.0580
 3.5160	 4.8900
 3.5180	 4.5540
 3.5200	 4.3240
 3.5230	 4.1320
 3.5250	 3.9690
 3.5280	 3.8740
 3.5300	 3.7990
 3.5320	 3.6720
 3.5350	 3.6560
 3.5370	 3.6390
 3.5400	 3.6300
 3.5420	 3.5890
 3.5440	 3.5230
 3.5470	 3.4840
 3.5490	 3.4810
 3.5520	 3.4410
 3.5540	 3.4420
 3.5570	 3.4160
 3.5590	 3.4040
 3.5610	 3.3490
 3.5640	 3.3510
 3.5660	 3.3730
 3.5690	 3.3750
 3.5710	 3.3720
 3.5740	 3.3930
 3.5760	 3.3660
 3.5790	 3.3790
 3.5810	 3.3650
 3.5840	 3.3320
 3.5860	 3.3070
 3.5890	 3.3280
 3.5910	 3.3440
 3.5940	 3.3370
 3.5960	 3.3090
 3.5990	 3.3030
 3.6010	 3.2990
 3.6040	 3.3290
 3.6060	 3.3270
 3.6090	 3.3120
 3.6110	 3.2670
 3.6140	 3.2470
 3.6160	 3.2210
 3.6190	 3.2570
 3.6210	 3.2550
 3.6240	 3.2680
 3.6260	 3.2820
 3.6290	 3.2790
 3.6310	 3.2590
 3.6340	 3.2710
 3.6360	 3.2400
 3.6390	 3.2530
 3.6410	 3.2500
 3.6440	 3.2230
 3.6470	 3.1930
 3.6490	 3.2050
 3.6520	 3.2170
 3.6540	 3.2380
 3.6570	 3.2400
 3.6590	 3.2490
 3.6620	 3.2280
 3.6650	 3.2080
 3.6670	 3.2040
 3.6700	 3.2190
 3.6720	 3.2010
 3.6750	 3.1960
 3.6780	 3.2120
 3.6800	 3.2410
 3.6830	 3.1990
 3.6850	 3.1520
 3.6880	 3.1700
 3.6910	 3.2210
 3.6930	 3.2070
 3.6960	 3.2070
 3.6990	 3.2030
 3.7010	 3.2120
 3.7040	 3.1710
 3.7070	 3.1820
 3.7090	 3.1890
 3.7120	 3.1840
 3.7150	 3.1740
 3.7170	 3.1690
 3.7200	 3.1630
 3.7230	 3.1930
 3.7250	 3.1680
 3.7280	 3.1670
 3.7310	 3.1620
 3.7330	 3.1790
 3.7360	 3.1810
 3.7390	 3.1820
 3.7410	 3.1650
 3.7440	 3.1890
 3.7470	 3.1780
 3.7490	 3.1770
 3.7520	 3.1570
 3.7550	 3.1780
 3.7580	 3.1910
 3.7600	 3.1610
 3.7630	 3.1460
 3.7660	 3.1790
 3.7690	 3.1740
 3.7710	 3.1780
 3.7740	 3.1820
 3.7770	 3.1910
 3.7790	 3.1750
 3.7820	 3.1910
 3.7850	 3.1770
 3.7880	 3.2110
 3.7910	 3.2290
 3.7930	 3.1940
 3.7960	 3.1750
 3.7990	 3.1970
 3.8020	 3.2330
 3.8040	 3.2700
 3.8070	 3.2700
 3.8100	 3.2630
 3.8130	 3.2610
 3.8160	 3.2690
 3.8180	 3.2470
 3.8210	 3.2340
 3.8240	 3.1930
 3.8270	 3.1840
 3.8300	 3.1770
 3.8330	 3.1950
 3.8350	 3.2050
 3.8380	 3.2100
 3.8410	 3.2010
 3.8440	 3.1970
 3.8470	 3.1960
 3.8500	 3.2180
 3.8520	 3.2210
 3.8550	 3.2230
 3.8580	 3.2130
 3.8610	 3.2160
 3.8640	 3.2230
 3.8670	 3.2430
 3.8700	 3.2430
 3.8730	 3.2280
 3.8760	 3.2350
 3.8780	 3.2650
 3.8810	 3.2530
 3.8840	 3.2290
 3.8870	 3.2480
 3.8900	 3.2340
 3.8930	 3.2080
 3.8960	 3.2560
 3.8990	 3.2770
 3.9020	 3.2660
 3.9050	 3.2050
 3.9080	 3.2050
 3.9110	 3.2290
 3.9140	 3.2180
 3.9170	 3.2170
 3.9190	 3.2300
 3.9220	 3.1950
 3.9250	 3.2170
 3.9280	 3.2410
 3.9310	 3.2430
 3.9340	 3.2330
 3.9370	 3.2330
 3.9400	 3.2570
 3.9430	 3.2790
 3.9460	 3.2430
 3.9490	 3.2580
 3.9520	 3.2400
 3.9550	 3.2050
 3.9580	 3.2080
 3.9610	 3.2430
 3.9640	 3.2620
 3.9670	 3.2750
 3.9700	 3.2430
 3.9740	 3.2500
 3.9770	 3.2480
 3.9800	 3.2530
 3.9830	 3.2730
 3.9860	 3.2880
 3.9890	 3.2820
 3.9920	 3.2730
 3.9950	 3.2550
 3.9980	 3.2880
 4.0010	 3.2980
 4.0040	 3.2620
 4.0070	 3.2430
 4.0100	 3.2800
 4.0140	 3.2770
 4.0170	 3.2820
 4.0200	 3.2770
 4.0230	 3.2740
 4.0260	 3.2370
 4.0290	 3.2140
 4.0320	 3.2300
 4.0350	 3.2480
 4.0390	 3.2700
 4.0420	 3.3170
 4.0450	 3.2590
 4.0480	 3.2070
 4.0510	 3.2260
 4.0540	 3.2720
 4.0570	 3.2770
 4.0610	 3.2820
 4.0640	 3.2840
 4.0670	 3.3060
 4.0700	 3.3050
 4.0730	 3.2710
 4.0770	 3.2620
 4.0800	 3.3040
 4.0830	 3.2950
 4.0860	 3.2920
 4.0890	 3.2910
 4.0930	 3.2540
 4.0960	 3.2430
 4.0990	 3.2670
 4.1020	 3.2500
 4.1060	 3.2640
 4.1090	 3.2660
 4.1120	 3.2570
 4.1150	 3.2280
 4.1190	 3.2130
 4.1220	 3.2220
 4.1250	 3.2180
 4.1290	 3.2180
 4.1320	 3.2360
 4.1350	 3.2530
 4.1380	 3.2620
 4.1420	 3.2600
 4.1450	 3.2610
 4.1480	 3.2460
 4.1520	 3.2640
 4.1550	 3.2520
 4.1580	 3.2420
 4.1620	 3.2370
 4.1650	 3.2330
 4.1680	 3.2090
 4.1720	 3.2030
 4.1750	 3.2040
 4.1780	 3.2130
 4.1820	 3.2200
 4.1850	 3.2040
 4.1890	 3.2040
 4.1920	 3.2280
 4.1950	 3.2320
 4.1990	 3.2380
 4.2020	 3.2470
 4.2060	 3.3050
 4.2090	 3.3210
 4.2120	 3.2610
 4.2160	 3.2780
 4.2190	 3.3240
 4.2230	 3.2240
 4.2260	 3.1650
 4.2300	 3.2260
 4.2330	 3.3260
 4.2360	 3.3170
 4.2400	 3.2150
 4.2430	 3.2280
 4.2470	 3.2690
 4.2500	 3.2230
 4.2540	 3.2070
 4.2570	 3.2150
 4.2610	 3.2190
 4.2640	 3.1980
 4.2680	 3.1620
 4.2710	 3.1430
 4.2750	 3.1400
 4.2780	 3.1710
 4.2820	 3.2170
 4.2850	 3.1690
 4.2890	 3.1240
 4.2930	 3.1300
 4.2960	 3.1480
 4.3000	 3.1600
 4.3030	 3.1780
 4.3070	 3.1680
 4.3100	 3.1610
 4.3140	 3.1620
 4.3180	 3.1490
 4.3210	 3.1420
 4.3250	 3.1230
 4.3280	 3.1230
 4.3320	 3.1250
 4.3360	 3.0960
 4.3390	 3.0760
 4.3430	 3.0470
 4.3470	 3.0500
 4.3500	 3.0460
 4.3540	 3.0710
 4.3580	 3.0970
 4.3610	 3.0770
 4.3650	 3.0620
 4.3690	 3.0380
 4.3720	 3.0570
 4.3760	 3.0770
 4.3800	 3.0640
 4.3830	 3.0410
 4.3870	 3.0350
 4.3910	 3.0130
 4.3940	 3.0210
 4.3980	 3.0430
 4.4020	 3.0310
 4.4060	 3.0220
 4.4090	 3.0360
 4.4130	 3.0480
 4.4170	 3.0480
 4.4210	 3.0260
 4.4240	 2.9970
 4.4280	 2.9990
 4.4320	 2.9950
 4.4360	 2.9700
 4.4400	 2.9790
 4.4430	 3.0220
 4.4470	 3.0230
 4.4510	 2.9940
 4.4550	 2.9750
 4.4590	 2.9690
 4.4630	 2.9800
 4.4660	 2.9840
 4.4700	 2.9970
 4.4740	 2.9860
 4.4780	 2.9910
 4.4820	 2.9890
 4.4860	 2.9670
 4.4900	 2.9600
 4.4930	 2.9740
 4.4970	 2.9550
 4.5010	 2.9560
 4.5050	 2.9520
 4.5090	 2.9750
 4.5130	 2.9810
 4.5170	 2.9700
 4.5210	 2.9800
 4.5250	 2.9980
 4.5290	 2.9950
 4.5330	 2.9820
 4.5370	 2.9830
 4.5410	 2.9780
 4.5450	 2.9340
 4.5490	 2.9450
 4.5530	 2.9580
 4.5570	 2.9490
 4.5610	 2.9450
 4.5650	 2.9430
 4.5690	 2.9590
 4.5730	 2.9660
 4.5770	 2.9550
 4.5810	 2.9490
 4.5850	 2.9620
 4.5890	 2.9930
 4.5930	 2.9870
 4.5970	 2.9820
 4.6010	 2.9430
 4.6050	 2.9390
 4.6090	 2.9450
 4.6130	 2.9650
 4.6170	 2.9710
 4.6220	 2.9490
 4.6260	 2.8970
 4.6300	 2.8880
 4.6340	 2.9220
 4.6380	 2.9660
 4.6420	 2.9430
 4.6460	 2.9180
 4.6510	 2.9070
 4.6550	 2.9350
 4.6590	 2.9360
 4.6630	 2.9220
 4.6670	 2.9260
 4.6720	 2.9510
 4.6760	 2.9580
 4.6800	 2.9500
 4.6840	 2.9340
 4.6880	 2.9470
 4.6930	 2.9550
 4.6970	 2.9650
 4.7010	 2.9600
 4.7050	 2.9620
 4.7100	 2.9380
 4.7140	 2.9290
 4.7180	 2.9120
 4.7230	 2.9290
 4.7270	 2.9620
 4.7310	 2.9390
 4.7360	 2.9060
 4.7400	 2.9050
 4.7440	 2.9210
 4.7490	 2.9070
 4.7530	 2.8920
 4.7570	 2.8950
 4.7620	 2.9040
 4.7660	 2.9530
 4.7700	 2.9110
 4.7750	 2.8930
 4.7790	 2.8960
 4.7840	 2.9140
 4.7880	 2.9390
 4.7920	 2.9560
 4.7970	 2.9520
 4.8010	 2.9630
 4.8060	 2.9350
 4.8100	 2.9210
 4.8150	 2.9000
 4.8190	 2.9260
 4.8240	 2.9510
 4.8280	 2.9270
 4.8330	 2.9250
 4.8370	 2.9310
 4.8420	 2.8920
 4.8460	 2.8710
 4.8510	 2.8740
 4.8550	 2.9100
 4.8600	 2.8860
 4.8640	 2.9040
 4.8690	 2.9140
 4.8740	 2.9260
 4.8780	 2.9490
 4.8830	 2.9560
 4.8870	 2.9160
 4.8920	 2.8860
 4.8970	 2.8950
 4.9010	 2.9120
 4.9060	 2.8970
 4.9100	 2.8900
 4.9150	 2.9120
 4.9200	 2.9380
 4.9240	 2.9140
 4.9290	 2.9310
 4.9340	 2.9240
 4.9390	 2.9300
 4.9430	 2.9190
 4.9480	 2.9240
 4.9530	 2.9130
 4.9570	 2.9190
 4.9620	 2.9120
 4.9670	 2.9240
 4.9720	 2.9320
 4.9760	 2.9500
 4.9810	 2.9390
 4.9860	 2.9170
 4.9910	 2.9130
 4.9960	 2.9150
 5.0000	 2.8760
 5.0050	 2.9080
 5.0100	 2.9230
 5.0150	 2.9560
 5.0200	 2.9280
 5.0250	 2.9010
 5.0300	 2.9140
 5.0340	 2.9330
 5.0390	 2.9410
 5.0440	 2.9550
 5.0490	 2.9370
 5.0540	 2.9170
 5.0590	 2.8960
 5.0640	 2.9250
 5.0690	 2.9540
 5.0740	 2.9360
 5.0790	 2.9200
 5.0840	 2.9420
 5.0890	 2.9420
 5.0940	 2.9330
 5.0990	 2.9400
 5.1040	 2.9940
 5.1090	 2.9990
 5.1140	 3.0060
 5.1190	 2.9850
 5.1240	 2.9880
 5.1290	 2.9550
 5.1340	 2.9520
 5.1390	 2.9490
 5.1440	 2.9600
 5.1490	 2.9710
 5.1550	 2.9850
 5.1600	 2.9810
 5.1650	 3.0180
 5.1700	 3.0250
 5.1750	 3.0450
 5.1800	 3.0010
 5.1850	 2.9850
 5.1910	 2.9910
 5.1960	 2.9920
 5.2010	 2.9590
 5.2060	 2.9830
 5.2110	 3.0170
 5.2170	 3.0230
 5.2220	 2.9800
 5.2270	 2.9630
 5.2330	 2.9490
 5.2380	 2.9550
 5.2430	 2.9670
 5.2480	 3.0300
 5.2540	 3.0160
 5.2590	 3.0010
 5.2640	 3.0020
 5.2700	 3.0250
 5.2750	 3.0030
 5.2800	 2.9940
 5.2860	 2.9600
 5.2910	 2.9810
 5.2970	 3.0040
 5.3020	 3.0150
 5.3080	 3.0080
 5.3130	 3.0360
 5.3180	 3.0090
 5.3240	 2.9850
 5.3290	 2.9990
 5.3350	 3.0360
 5.3400	 3.0210
 5.3460	 3.0020
 5.3510	 2.9490
 5.3570	 2.9470
 5.3620	 2.9210
 5.3680	 2.9430
 5.3740	 2.9500
 5.3790	 2.9820
 5.3850	 2.9820
 5.3900	 3.0090
 5.3960	 2.9850
 5.4010	 2.9870
 5.4070	 2.9550
 5.4130	 2.9170
 5.4180	 2.8970
 5.4240	 2.9380
 5.4300	 2.9470
 5.4350	 2.9660
 5.4410	 2.9650
 5.4470	 2.9640
 5.4530	 2.9220
 5.4580	 2.9110
 5.4640	 2.8850
 5.4700	 2.8870
 5.4760	 2.8930
 5.4810	 2.9220
 5.4870	 2.9120
 5.4930	 2.9040
 5.4990	 2.9070
 5.5050	 2.9370
 5.5110	 2.9150
 5.5160	 2.8710
 5.5220	 2.8340
 5.5280	 2.8840
 5.5340	 2.8790
 5.5400	 2.8530
 5.5460	 2.8020
 5.5520	 2.8270
 5.5580	 2.8420
 5.5640	 2.8440
 5.5700	 2.8220
 5.5760	 2.8140
 5.5820	 2.7890
 5.5880	 2.8000
 5.5940	 2.7620
 5.6000	 2.7550
 5.6060	 2.7470
 5.6120	 2.7720
 5.6180	 2.7230
 5.6240	 2.6960
 5.6300	 2.6920
 5.6360	 2.7410
 5.6420	 2.7120
 5.6490	 2.6920
 5.6550	 2.6550
 5.6610	 2.6310
 5.6670	 2.5980
 5.6730	 2.5950
 5.6800	 2.5710
 5.6860	 2.5810
 5.6920	 2.5460
 5.6980	 2.5280
 5.7050	 2.4820
 5.7110	 2.5110
 5.7170	 2.4670
 5.7230	 2.4670
 5.7300	 2.4450
 5.7360	 2.4120
 5.7420	 2.3190
 5.7490	 2.2560
 5.7550	 2.1690
 5.7620	 2.1490
 5.7680	 2.0800
 5.7740	 2.0920
 5.7810	 2.0890
 5.7870	 2.1310
 5.7940	 2.1670
 5.8000	 2.2180
 5.8070	 2.1890
 5.8130	 2.1770
 5.8200	 2.1650
 5.8260	 2.2150
 5.8330	 2.2510
 5.8390	 2.3450
 5.8460	 2.3660
 5.8530	 2.4000
 5.8590	 2.4410
 5.8660	 2.4750
 5.8730	 2.4330
 5.8790	 2.4560
 5.8860	 2.4990
 5.8930	 2.5260
 5.8990	 2.5070
 5.9060	 2.5760
 5.9130	 2.5860
 5.9190	 2.6460
 5.9260	 2.6580
 5.9330	 2.6410
 5.9400	 2.6290
 5.9470	 2.7250
 5.9530	 2.7030
 5.9600	 2.7360
 5.9670	 2.7200
 5.9740	 2.7220
 5.9810	 2.6820
 5.9880	 2.6870
 5.9950	 2.6770
 6.0020	 2.7310
 6.0090	 2.7290
 6.0160	 2.7200
 6.0230	 2.6440
 6.0300	 2.6460
 6.0370	 2.6180
 6.0440	 2.6000
 6.0510	 2.5160
 6.0580	 2.6300
 6.0650	 2.6640
 6.0720	 2.6480
 6.0790	 2.6360
 6.0860	 2.7420
 6.0930	 2.7520
 6.1010	 2.7820
 6.1080	 2.6870
 6.1150	 2.6890
 6.1220	 2.7190
 6.1290	 2.7560
 6.1370	 2.7080
 6.1440	 2.6940
 6.1510	 2.7110
 6.1580	 2.7650
 6.1660	 2.7250
 6.1730	 2.7390
 6.1800	 2.6730
 6.1880	 2.6740
 6.1950	 2.7020
 6.2030	 2.7080
 6.2100	 2.6710
 6.2180	 2.6680
 6.2250	 2.6390
 6.2320	 2.7010
 6.2400	 2.6720
 6.2480	 2.7410
 6.2550	 2.7780
 6.2630	 2.7730
 6.2700	 2.6850
 6.2780	 2.7010
 6.2850	 2.6970
 6.2930	 2.7470
 6.3010	 2.7440
 6.3080	 2.7580
 6.3160	 2.6990
 6.3240	 2.7520
 6.3310	 2.7590
 6.3390	 2.7700
 6.3470	 2.7090
 6.3550	 2.7570
 6.3620	 2.7250
 6.3700	 2.7500
 6.3780	 2.7220
 6.3860	 2.7260
 6.3940	 2.6880
 6.4020	 2.6990
 6.4100	 2.6150
 6.4180	 2.6600
 6.4260	 2.7160
 6.4340	 2.7570
 6.4420	 2.7180
 6.4500	 2.7330
 6.4580	 2.7030
 6.4660	 2.7150
 6.4740	 2.6790
 6.4820	 2.6610
 6.4900	 2.5730
 6.4980	 2.6110
 6.5060	 2.6280
 6.5140	 2.6780
 6.5230	 2.6460
 6.5310	 2.6810
 6.5390	 2.6340
 6.5470	 2.6730
 6.5560	 2.6300
 6.5640	 2.5740
 6.5720	 2.4660
 6.5800	 2.4820
 6.5890	 2.4490
 6.5970	 2.4470
 6.6060	 2.4470
 6.6140	 2.4890
 6.6230	 2.4560
 6.6310	 2.4600
 6.6390	 2.4260
 6.6480	 2.5010
 6.6570	 2.5280
 6.6650	 2.5440
 6.6740	 2.4940
 6.6820	 2.5290
 6.6910	 2.5140
 6.7000	 2.5460
 6.7080	 2.5040
 6.7170	 2.5220
 6.7260	 2.4610
 6.7340	 2.5000
 6.7430	 2.5020
 6.7520	 2.5020
 6.7610	 2.4320
 6.7690	 2.3990
 6.7780	 2.4080
 6.7870	 2.8230
 6.7960	 2.9880
 6.8050	 2.7810
 6.8140	 2.5400
 6.8230	 2.5870
 6.8320	 2.8580
 6.8410	 3.1960
 6.8500	 3.0430
 6.8590	 2.8250
 6.8680	 2.7010
 6.8770	 2.7800
 6.8860	 2.7420
 6.8960	 2.7550
 6.9050	 2.6860
 6.9140	 2.6840
 6.9230	 2.6850
 6.9320	 2.7720
 6.9420	 2.7390
 6.9510	 2.7480
 6.9600	 2.6890
 6.9700	 2.7470
 6.9790	 2.7340
 6.9880	 2.7570
 6.9980	 2.7370
 7.0070	 2.8000
 7.0170	 2.7320
 7.0260	 2.7340
 7.0360	 2.7150
 7.0450	 2.7520
 7.0550	 2.7060
 7.0650	 2.7910
 7.0740	 2.7880
 7.0840	 2.8040
 7.0940	 2.7410
 7.1030	 2.7550
 7.1130	 2.7270
 7.1230	 2.8000
 7.1330	 2.7560
 7.1420	 2.7580
 7.1520	 2.7000
 7.1620	 2.6850
 7.1720	 2.6250
 7.1820	 2.6710
 7.1920	 2.6400
 7.2020	 2.6410
 7.2120	 2.5850
 7.2220	 2.6410
 7.2320	 2.6020
 7.2420	 2.6490
 7.2520	 2.6240
 7.2620	 2.6990
 7.2730	 2.6870
 7.2830	 2.7290
 7.2930	 2.6890
 7.3030	 2.6850
 7.3140	 2.6010
 7.3240	 2.6110
 7.3340	 2.5710
 7.3450	 2.6220
 7.3550	 2.6070
 7.3660	 2.6740
 7.3760	 2.6480
 7.3870	 2.6930
 7.3970	 2.6960
 7.4080	 2.7880
 7.4180	 2.7480
 7.4290	 2.7340
 7.4400	 2.6450
 7.4500	 2.6930
 7.4610	 2.6760
 7.4720	 2.7140
 7.4830	 2.6710
 7.4930	 2.6950
 7.5040	 2.6550
 7.5150	 2.7210
 7.5260	 2.7190
 7.5370	 2.7620
 7.5480	 2.6950
 7.5590	 2.7230
 7.5700	 2.6900
 7.5810	 2.7410
 7.5920	 2.6850
 7.6030	 2.6790
 7.6140	 2.6030
 7.6260	 2.6150
 7.6370	 2.5280
 7.6480	 2.4890
 7.6590	 2.4710
 7.6710	 2.5500
 7.6820	 2.5010
 7.6940	 2.5670
 7.7050	 2.5010
 7.7160	 2.5170
 7.7280	 2.5170
 7.7390	 2.5630
 7.7510	 2.5060
 7.7630	 2.5420
 7.7740	 2.4790
 7.7860	 2.4850
 7.7980	 2.4140
 7.8090	 2.4710
 7.8210	 2.4320
 7.8330	 2.4690
 7.8450	 2.3940
 7.8570	 2.4290
 7.8690	 2.3820
 7.8810	 2.4470
 7.8930	 2.3830
 7.9050	 2.3910
 7.9170	 2.3200
 7.9290	 2.3970
 7.9410	 2.3730
 7.9530	 2.4340
 7.9650	 2.3830
 7.9780	 2.4130
 7.9900	 2.3760
 8.0020	 2.4260
 8.0150	 2.3540
 8.0270	 2.4060
 8.0390	 2.4000
 8.0520	 2.5080
 8.0640	 2.4510
 8.0770	 2.4660
 8.0900	 2.4530
 8.1020	 2.5830
 8.1150	 2.5060
 8.1280	 2.5770
 8.1400	 2.5330
 8.1530	 2.6290
 8.1660	 2.5570
 8.1790	 2.5790
 8.1920	 2.5850
 8.2050	 2.6850
 8.2180	 2.5710
 8.2310	 2.6650
 8.2440	 2.6050
 8.2570	 2.6560
 8.2700	 2.6120
 8.2830	 2.7020
 8.2970	 2.6320
 8.3100	 2.6850
 8.3230	 2.6460
 8.3370	 2.7720
 8.3500	 2.7720
 8.3640	 2.8100
 8.3770	 2.7120
 8.3910	 2.7680
 8.4040	 2.6900
 8.4180	 2.7150
 8.4320	 2.5900
 8.4450	 2.6600
 8.4590	 2.5770
 8.4730	 2.6950
 8.4870	 2.6940
 8.5010	 2.8310
 8.5150	 2.7700
 8.5290	 2.8440
 8.5430	 2.9030
 8.5570	 3.0840
 8.5710	 3.0820
 8.5850	 3.1750
 8.5990	 3.1380
 8.6140	 3.2590
 8.6280	 3.2310
 8.6420	 3.2980
 8.6570	 3.2650
 8.6710	 3.4710
 8.6860	 3.3620
 8.7000	 3.3790
 8.7150	 3.4090
 8.7300	 3.5490
 8.7440	 3.4330
 8.7590	 3.4960
 8.7740	 3.4700
 8.7890	 3.5510
 8.8040	 3.4850
 8.8190	 3.5810
 8.8340	 3.5320
 8.8490	 3.6520
 8.8640	 3.5750
 8.8790	 3.6410
 8.8940	 3.5740
 8.9100	 3.6330
 8.9250	 3.5600
 8.9400	 3.6790
 8.9560	 3.5760
 8.9710	 3.6060
 8.9870	 3.5600
 9.0020	 3.6500
 9.0180	 3.5040
 9.0340	 3.6000
 9.0500	 3.5540
 9.0650	 3.6730
 9.0810	 3.6410
 9.0970	 3.7330
 9.1130	 3.5860
 9.1290	 3.7210
 9.1450	 3.6790
 9.1620	 3.7410
 9.1780	 3.6370
 9.1940	 3.7090
 9.2100	 3.6130
 9.2270	 3.7050
 9.2430	 3.6590
 9.2600	 3.7760
 9.2760	 3.7450
 9.2930	 3.9020
 9.3100	 3.8100
 9.3260	 3.8600
 9.3430	 3.7120
 9.3600	 3.8280
 9.3770	 3.7590
 9.3940	 3.8340
 9.4110	 3.7620
 9.4280	 3.8990
 9.4450	 3.8160
 9.4620	 3.8940
 9.4800	 3.8140
 9.4970	 3.9240
 9.5150	 3.8680
 9.5320	 4.0190
 9.5500	 4.0160
 9.5670	 4.1110
 9.5850	 3.9920
 9.6030	 4.1420
 9.6200	 4.0810
 9.6380	 4.1480
 9.6560	 4.0580
 9.6740	 4.1010
 9.6920	 3.9610
 9.7110	 4.0440
 9.7290	 3.9400
 9.7470	 4.0470
 9.7650	 3.9800
 9.7840	 4.0810
 9.8020	 3.9710
 9.8210	 4.0210
 9.8390	 3.8740
 9.8580	 3.9480
 9.8770	 3.9090
 9.8960	 4.0470
 9.9150	 3.9120
 9.9340	 3.9240
 9.9530	 3.8340
 9.9720	 3.8960
 9.9910	 3.7670
10.0100	 3.8670
10.0300	 3.7930
10.0490	 3.8380
10.0690	 3.6800
10.0880	 3.7540
10.1080	 3.6300
10.1280	 3.7110
10.1480	 3.6340
10.1670	 3.7130
10.1870	 3.6000
10.2070	 3.6510
10.2280	 3.4990
10.2480	 3.6440
10.2680	 3.6070
10.2890	 3.6540
10.3090	 3.5240
10.3300	 3.5440
10.3500	 3.5230
10.3710	 3.7080
10.3920	 3.5840
10.4120	 3.6650
10.4330	 3.5710
10.4540	 3.6540
10.4760	 3.5430
10.4970	 3.6100
10.5180	 3.5600
10.5390	 3.6510
10.5610	 3.4620
10.5820	 3.5170
10.6040	 3.4730
10.6260	 3.6070
10.6480	 3.5380
10.6700	 3.6080
10.6920	 3.4540
10.7140	 3.5280
10.7360	 3.4280
10.7580	 3.5490
10.7800	 3.4230
10.8030	 3.5180
10.8250	 3.4330
10.8480	 3.4980
10.8710	 3.3630
10.8940	 3.4530
10.9170	 3.3380
10.9400	 3.4100
10.9630	 3.2910
10.9860	 3.4230
11.0090	 3.3920
11.0330	 3.5030
11.0560	 3.3830
11.0800	 3.4450
11.1040	 3.2880
11.1270	 3.3670
11.1510	 3.3000
11.1750	 3.4320
11.2000	 3.3080
11.2240	 3.3740
11.2480	 3.1910
11.2730	 3.2300
11.2970	 3.1650
11.3220	 3.2920
11.3470	 3.1050
11.3720	 3.2420
11.3970	 3.2190
11.4220	 3.3230
11.4470	 3.1510
11.4720	 3.3010
11.4980	 3.1910
11.5230	 3.2410
11.5490	 3.0470
11.5750	 3.1920
11.6000	 3.0910
11.6260	 3.1690
11.6530	 2.9990
11.6790	 3.0320
11.7050	 2.8850
11.7320	 3.0220
11.7580	 2.9420
11.7850	 2.9590
11.8120	 2.7590
11.8390	 2.9360
11.8660	 2.8590
11.8930	 2.9850
11.9200	 2.9100
11.9480	 2.9930
11.9760	 2.7780
12.0030	 2.9070
12.0310	 2.8000
12.0590	 2.9270
12.0870	 2.8440
12.1150	 2.9480
12.1440	 2.6710
12.1720	 2.8210
12.2010	 2.7370
12.2300	 2.9020
12.2590	 2.7240
12.2880	 2.8250
12.3170	 2.7180
12.3460	 2.9690
12.3760	 2.7890
12.4050	 2.9210
12.4350	 2.8810
12.4650	 3.0640
12.4950	 2.8900
12.5250	 3.0110
12.5550	 2.8230
12.5860	 2.9930
12.6170	 2.8870
12.6470	 2.9950
12.6780	 2.7750
12.7090	 2.9200
12.7410	 2.8560
12.7720	 3.0360
12.8030	 2.8700
12.8350	 3.0190
12.8670	 2.8580
12.8990	 3.0730
12.9310	 2.9410
12.9640	 3.0460
12.9960	 2.8720
13.0290	 3.0460
13.0610	 2.8290
13.0940	 2.9370
13.1280	 2.8350
13.1610	 2.9850
13.1940	 2.7570
13.2280	 2.9600
13.2620	 2.8360
13.2960	 3.0710
13.3300	 2.9420
13.3640	 3.0830
13.3990	 2.8550
13.4340	 3.0800
13.4690	 2.9150
13.5040	 3.0870
13.5390	 2.9300
13.5740	 3.1330
13.6100	 2.9470
13.6460	 3.1800
13.6820	 3.1720
13.7180	 3.4640
13.7540	 3.1840
13.7910	 3.2590
13.8280	 3.0800
13.8650	 3.4720
13.9020	 3.5100
13.9390	 3.6810
13.9770	 3.3210
14.0150	 3.4500
14.0530	 3.1180
14.0910	 3.3340
14.1290	 3.2560
14.1680	 3.4870
14.2070	 3.1750
14.2460	 3.3820
14.2850	 3.1970
14.3240	 3.4130
14.3640	 3.1550
14.4040	 3.3320
14.4440	 3.0700
14.4840	 3.4940
14.5250	 3.2470
14.5660	 3.4960
14.6070	 3.3510
14.6480	 3.6500
14.6900	 3.4760
14.7310	 3.7180
14.7730	 3.2430
14.8150	 3.3530
14.8580	 3.1830
14.9010	 3.7810
14.9440	 3.3210
14.9870	 3.6520
15.0300	 3.2910
15.0740	 3.5600
15.1180	 3.2140
15.1620	 3.7800
15.2060	 3.3030
15.2510	 3.5000
15.2960	 3.1080
15.3410	 3.7720
15.3870	 3.3290
