Name: Abies concolor 3
Type: vegetation
Class: Tree
Genus: Abies
Species: concolor
Sample No.: VH264
Owner: UCSB
Wavelength Range: VSWIR
Origin: 37.0439; -119.3058; WGS84
Collection Date: 11/2/2013
Description: Samples were collected as part of the HyspIRI Airborne Campaign. 48 individual plants were sampled in three times in 2013 - spring  summer  and fall. The name of the sample includes a 1  2  or 3 which references a different individual of the species. Samples were taken to JPL and processed within 48 hours of collection. The same leaves were processed in the Nicolet and then measured using the ASD.
Measurement: Bidirectional reflectance
First Column: X
Second Column: Y
X Units: Wavelength (micrometers)
Y Units: Reflectance (percentage)
First X Value: 0.35
Last X Value: 2.5
Number of X Values: 2151
Additional Information: vegetation.tree.abies.concolor.vswir.vh264.ucsb.asd.ancillary.txt

 0.3500	 6.1410
 0.3510	 6.0440
 0.3520	 5.9270
 0.3530	 5.9060
 0.3540	 6.0040
 0.3550	 5.9660
 0.3560	 6.0390
 0.3570	 6.0520
 0.3580	 5.7240
 0.3590	 5.7460
 0.3600	 5.8490
 0.3610	 5.8420
 0.3620	 5.7770
 0.3630	 5.8020
 0.3640	 5.8020
 0.3650	 5.6800
 0.3660	 5.6790
 0.3670	 5.7120
 0.3680	 5.7340
 0.3690	 5.7310
 0.3700	 5.6840
 0.3710	 5.7320
 0.3720	 5.8680
 0.3730	 5.7790
 0.3740	 5.7430
 0.3750	 5.7410
 0.3760	 5.6920
 0.3770	 5.6920
 0.3780	 5.7160
 0.3790	 5.7120
 0.3800	 5.6260
 0.3810	 5.5940
 0.3820	 5.6070
 0.3830	 5.6330
 0.3840	 5.6640
 0.3850	 5.6100
 0.3860	 5.5860
 0.3870	 5.7190
 0.3880	 5.7240
 0.3890	 5.7000
 0.3900	 5.6890
 0.3910	 5.6460
 0.3920	 5.6530
 0.3930	 5.7030
 0.3940	 5.7510
 0.3950	 5.6910
 0.3960	 5.6700
 0.3970	 5.7000
 0.3980	 5.7280
 0.3990	 5.7410
 0.4000	 5.7420
 0.4010	 5.7420
 0.4020	 5.7600
 0.4030	 5.7660
 0.4040	 5.7820
 0.4050	 5.8330
 0.4060	 5.9250
 0.4070	 5.9550
 0.4080	 5.9400
 0.4090	 5.9660
 0.4100	 6.0110
 0.4110	 6.0560
 0.4120	 6.0930
 0.4130	 6.1450
 0.4140	 6.1900
 0.4150	 6.2390
 0.4160	 6.3000
 0.4170	 6.3390
 0.4180	 6.3960
 0.4190	 6.4660
 0.4200	 6.5010
 0.4210	 6.5390
 0.4220	 6.5850
 0.4230	 6.6360
 0.4240	 6.6990
 0.4250	 6.7440
 0.4260	 6.7830
 0.4270	 6.8460
 0.4280	 6.8840
 0.4290	 6.9200
 0.4300	 6.9640
 0.4310	 6.9870
 0.4320	 7.0150
 0.4330	 7.0390
 0.4340	 7.0540
 0.4350	 7.0900
 0.4360	 7.1180
 0.4370	 7.1470
 0.4380	 7.2040
 0.4390	 7.2480
 0.4400	 7.2780
 0.4410	 7.3020
 0.4420	 7.3400
 0.4430	 7.3710
 0.4440	 7.3970
 0.4450	 7.4270
 0.4460	 7.4600
 0.4470	 7.4880
 0.4480	 7.5140
 0.4490	 7.5530
 0.4500	 7.5800
 0.4510	 7.6030
 0.4520	 7.6330
 0.4530	 7.6590
 0.4540	 7.6860
 0.4550	 7.7130
 0.4560	 7.7330
 0.4570	 7.7500
 0.4580	 7.7690
 0.4590	 7.7870
 0.4600	 7.7950
 0.4610	 7.8100
 0.4620	 7.8250
 0.4630	 7.8250
 0.4640	 7.8240
 0.4650	 7.8420
 0.4660	 7.8660
 0.4670	 7.8580
 0.4680	 7.8650
 0.4690	 7.8740
 0.4700	 7.8720
 0.4710	 7.8830
 0.4720	 7.8880
 0.4730	 7.8880
 0.4740	 7.8970
 0.4750	 7.9050
 0.4760	 7.9180
 0.4770	 7.9350
 0.4780	 7.9360
 0.4790	 7.9410
 0.4800	 7.9510
 0.4810	 7.9600
 0.4820	 7.9630
 0.4830	 7.9760
 0.4840	 7.9980
 0.4850	 8.0130
 0.4860	 8.0260
 0.4870	 8.0480
 0.4880	 8.0820
 0.4890	 8.1140
 0.4900	 8.1400
 0.4910	 8.1700
 0.4920	 8.2150
 0.4930	 8.2610
 0.4940	 8.3150
 0.4950	 8.3820
 0.4960	 8.4470
 0.4970	 8.5140
 0.4980	 8.5820
 0.4990	 8.6570
 0.5000	 8.7540
 0.5010	 8.8570
 0.5020	 8.9610
 0.5030	 9.0690
 0.5040	 9.1860
 0.5050	 9.3120
 0.5060	 9.4480
 0.5070	 9.5960
 0.5080	 9.7540
 0.5090	 9.9240
 0.5100	10.1100
 0.5110	10.3040
 0.5120	10.5100
 0.5130	10.7250
 0.5140	10.9410
 0.5150	11.1730
 0.5160	11.4150
 0.5170	11.6600
 0.5180	11.9160
 0.5190	12.1770
 0.5200	12.4360
 0.5210	12.6920
 0.5220	12.9410
 0.5230	13.1790
 0.5240	13.4050
 0.5250	13.6280
 0.5260	13.8340
 0.5270	14.0240
 0.5280	14.1990
 0.5290	14.3550
 0.5300	14.4970
 0.5310	14.6260
 0.5320	14.7420
 0.5330	14.8380
 0.5340	14.9180
 0.5350	14.9870
 0.5360	15.0510
 0.5370	15.1100
 0.5380	15.1630
 0.5390	15.2040
 0.5400	15.2360
 0.5410	15.2700
 0.5420	15.3110
 0.5430	15.3420
 0.5440	15.3750
 0.5450	15.4180
 0.5460	15.4770
 0.5470	15.5410
 0.5480	15.5990
 0.5490	15.6430
 0.5500	15.6680
 0.5510	15.6910
 0.5520	15.7070
 0.5530	15.7090
 0.5540	15.7110
 0.5550	15.6920
 0.5560	15.6500
 0.5570	15.5960
 0.5580	15.5250
 0.5590	15.4370
 0.5600	15.3360
 0.5610	15.2290
 0.5620	15.1120
 0.5630	14.9840
 0.5640	14.8500
 0.5650	14.7120
 0.5660	14.5690
 0.5670	14.4220
 0.5680	14.2750
 0.5690	14.1240
 0.5700	13.9700
 0.5710	13.8160
 0.5720	13.6700
 0.5730	13.5340
 0.5740	13.4050
 0.5750	13.2770
 0.5760	13.1440
 0.5770	13.0140
 0.5780	12.8910
 0.5790	12.7730
 0.5800	12.6630
 0.5810	12.5720
 0.5820	12.5050
 0.5830	12.4520
 0.5840	12.3930
 0.5850	12.3270
 0.5860	12.2690
 0.5870	12.2030
 0.5880	12.1380
 0.5890	12.0830
 0.5900	12.0430
 0.5910	12.0000
 0.5920	11.9550
 0.5930	11.9180
 0.5940	11.8680
 0.5950	11.8260
 0.5960	11.8030
 0.5970	11.7750
 0.5980	11.7400
 0.5990	11.6990
 0.6000	11.6550
 0.6010	11.6090
 0.6020	11.5540
 0.6030	11.4930
 0.6040	11.4330
 0.6050	11.3670
 0.6060	11.2970
 0.6070	11.2230
 0.6080	11.1410
 0.6090	11.0550
 0.6100	10.9600
 0.6110	10.8520
 0.6120	10.7800
 0.6130	10.7180
 0.6140	10.6520
 0.6150	10.5900
 0.6160	10.5270
 0.6170	10.4700
 0.6180	10.4220
 0.6190	10.3690
 0.6200	10.3220
 0.6210	10.2840
 0.6220	10.2520
 0.6230	10.2240
 0.6240	10.2000
 0.6250	10.1840
 0.6260	10.1720
 0.6270	10.1620
 0.6280	10.1550
 0.6290	10.1500
 0.6300	10.1430
 0.6310	10.1360
 0.6320	10.1310
 0.6330	10.1260
 0.6340	10.1090
 0.6350	10.0820
 0.6360	10.0490
 0.6370	10.0060
 0.6380	 9.9520
 0.6390	 9.8860
 0.6400	 9.8070
 0.6410	 9.7290
 0.6420	 9.6430
 0.6430	 9.5490
 0.6440	 9.4520
 0.6450	 9.3540
 0.6460	 9.2610
 0.6470	 9.1770
 0.6480	 9.0920
 0.6490	 9.0080
 0.6500	 8.9310
 0.6510	 8.8650
 0.6520	 8.8070
 0.6530	 8.7480
 0.6540	 8.6860
 0.6550	 8.6310
 0.6560	 8.5740
 0.6570	 8.5120
 0.6580	 8.4450
 0.6590	 8.3800
 0.6600	 8.3120
 0.6610	 8.2420
 0.6620	 8.1810
 0.6630	 8.1250
 0.6640	 8.0750
 0.6650	 8.0320
 0.6660	 7.9960
 0.6670	 7.9670
 0.6680	 7.9450
 0.6690	 7.9330
 0.6700	 7.9280
 0.6710	 7.9310
 0.6720	 7.9410
 0.6730	 7.9490
 0.6740	 7.9680
 0.6750	 7.9950
 0.6760	 8.0280
 0.6770	 8.0660
 0.6780	 8.1100
 0.6790	 8.1600
 0.6800	 8.2200
 0.6810	 8.2910
 0.6820	 8.3720
 0.6830	 8.4660
 0.6840	 8.5780
 0.6850	 8.7100
 0.6860	 8.8690
 0.6870	 9.0640
 0.6880	 9.2900
 0.6890	 9.5600
 0.6900	 9.8840
 0.6910	10.2680
 0.6920	10.7110
 0.6930	11.2180
 0.6940	11.7930
 0.6950	12.4420
 0.6960	13.1620
 0.6970	13.9530
 0.6980	14.8110
 0.6990	15.7230
 0.7000	16.6970
 0.7010	17.7280
 0.7020	18.7920
 0.7030	19.8860
 0.7040	21.0090
 0.7050	22.1530
 0.7060	23.3000
 0.7070	24.4600
 0.7080	25.6170
 0.7090	26.7600
 0.7100	27.9100
 0.7110	29.0560
 0.7120	30.1850
 0.7130	31.2910
 0.7140	32.3840
 0.7150	33.4550
 0.7160	34.4980
 0.7170	35.5370
 0.7180	36.5480
 0.7190	37.5280
 0.7200	38.4850
 0.7210	39.3960
 0.7220	40.2830
 0.7230	41.1460
 0.7240	41.9620
 0.7250	42.7540
 0.7260	43.5100
 0.7270	44.2270
 0.7280	44.9310
 0.7290	45.5870
 0.7300	46.1990
 0.7310	46.7860
 0.7320	47.3310
 0.7330	47.8650
 0.7340	48.3840
 0.7350	48.8440
 0.7360	49.2730
 0.7370	49.6830
 0.7380	50.0750
 0.7390	50.4430
 0.7400	50.8050
 0.7410	51.1410
 0.7420	51.4280
 0.7430	51.7160
 0.7440	51.9830
 0.7450	52.2220
 0.7460	52.4410
 0.7470	52.6470
 0.7480	52.8460
 0.7490	53.0360
 0.7500	53.1950
 0.7510	53.3330
 0.7520	53.4630
 0.7530	53.5940
 0.7540	53.7150
 0.7550	53.8100
 0.7560	53.8930
 0.7570	53.9940
 0.7580	54.0690
 0.7590	54.1170
 0.7600	54.1580
 0.7610	54.2240
 0.7620	54.2890
 0.7630	54.3360
 0.7640	54.3680
 0.7650	54.4230
 0.7660	54.4670
 0.7670	54.4890
 0.7680	54.5000
 0.7690	54.5140
 0.7700	54.5320
 0.7710	54.5530
 0.7720	54.5730
 0.7730	54.5840
 0.7740	54.5900
 0.7750	54.5970
 0.7760	54.6120
 0.7770	54.6310
 0.7780	54.6540
 0.7790	54.6830
 0.7800	54.7020
 0.7810	54.7070
 0.7820	54.7110
 0.7830	54.7410
 0.7840	54.7490
 0.7850	54.7460
 0.7860	54.7460
 0.7870	54.7620
 0.7880	54.7730
 0.7890	54.7900
 0.7900	54.8210
 0.7910	54.8210
 0.7920	54.8220
 0.7930	54.8340
 0.7940	54.8480
 0.7950	54.8590
 0.7960	54.8790
 0.7970	54.9000
 0.7980	54.8960
 0.7990	54.8950
 0.8000	54.8980
 0.8010	54.9060
 0.8020	54.9300
 0.8030	54.9520
 0.8040	54.9610
 0.8050	54.9600
 0.8060	54.9560
 0.8070	54.9750
 0.8080	55.0100
 0.8090	55.0240
 0.8100	55.0320
 0.8110	55.0400
 0.8120	55.0480
 0.8130	55.0470
 0.8140	55.0620
 0.8150	55.0840
 0.8160	55.0970
 0.8170	55.0890
 0.8180	55.0860
 0.8190	55.0980
 0.8200	55.1190
 0.8210	55.1360
 0.8220	55.1510
 0.8230	55.1650
 0.8240	55.1780
 0.8250	55.1800
 0.8260	55.1880
 0.8270	55.2060
 0.8280	55.2120
 0.8290	55.2170
 0.8300	55.2250
 0.8310	55.2330
 0.8320	55.2040
 0.8330	55.2040
 0.8340	55.2260
 0.8350	55.2380
 0.8360	55.2640
 0.8370	55.2810
 0.8380	55.2870
 0.8390	55.2970
 0.8400	55.3170
 0.8410	55.3420
 0.8420	55.3600
 0.8430	55.3500
 0.8440	55.3530
 0.8450	55.3820
 0.8460	55.4250
 0.8470	55.4270
 0.8480	55.4400
 0.8490	55.4570
 0.8500	55.4600
 0.8510	55.4680
 0.8520	55.4920
 0.8530	55.5220
 0.8540	55.5370
 0.8550	55.5490
 0.8560	55.5450
 0.8570	55.5410
 0.8580	55.5840
 0.8590	55.6080
 0.8600	55.6100
 0.8610	55.6070
 0.8620	55.6230
 0.8630	55.6330
 0.8640	55.6300
 0.8650	55.6170
 0.8660	55.6330
 0.8670	55.6370
 0.8680	55.6380
 0.8690	55.6530
 0.8700	55.6610
 0.8710	55.6690
 0.8720	55.6750
 0.8730	55.6690
 0.8740	55.6690
 0.8750	55.6770
 0.8760	55.6900
 0.8770	55.6980
 0.8780	55.6980
 0.8790	55.7010
 0.8800	55.7090
 0.8810	55.7090
 0.8820	55.7020
 0.8830	55.7020
 0.8840	55.7110
 0.8850	55.7100
 0.8860	55.6790
 0.8870	55.6500
 0.8880	55.6560
 0.8890	55.6740
 0.8900	55.6790
 0.8910	55.6750
 0.8920	55.6720
 0.8930	55.6620
 0.8940	55.6340
 0.8950	55.6050
 0.8960	55.6010
 0.8970	55.5990
 0.8980	55.5990
 0.8990	55.6070
 0.9000	55.6270
 0.9010	55.6140
 0.9020	55.5980
 0.9030	55.5880
 0.9040	55.5560
 0.9050	55.5500
 0.9060	55.5560
 0.9070	55.5520
 0.9080	55.5350
 0.9090	55.5150
 0.9100	55.5010
 0.9110	55.4930
 0.9120	55.4590
 0.9130	55.4590
 0.9140	55.4670
 0.9150	55.4430
 0.9160	55.4040
 0.9170	55.3930
 0.9180	55.3890
 0.9190	55.3590
 0.9200	55.3610
 0.9210	55.3440
 0.9220	55.3120
 0.9230	55.2990
 0.9240	55.2670
 0.9250	55.2270
 0.9260	55.1910
 0.9270	55.1620
 0.9280	55.1320
 0.9290	55.0960
 0.9300	55.0560
 0.9310	55.0160
 0.9320	54.9630
 0.9330	54.9050
 0.9340	54.8480
 0.9350	54.7940
 0.9360	54.7470
 0.9370	54.7010
 0.9380	54.6470
 0.9390	54.5840
 0.9400	54.5230
 0.9410	54.4660
 0.9420	54.4080
 0.9430	54.3420
 0.9440	54.2510
 0.9450	54.1500
 0.9460	54.0580
 0.9470	53.9870
 0.9480	53.8940
 0.9490	53.7890
 0.9500	53.6820
 0.9510	53.5470
 0.9520	53.4030
 0.9530	53.2640
 0.9540	53.1340
 0.9550	52.9940
 0.9560	52.8440
 0.9570	52.7000
 0.9580	52.5780
 0.9590	52.4780
 0.9600	52.3800
 0.9610	52.2930
 0.9620	52.2270
 0.9630	52.1760
 0.9640	52.1220
 0.9650	52.0650
 0.9660	52.0170
 0.9670	51.9890
 0.9680	51.9750
 0.9690	51.9650
 0.9700	51.9470
 0.9710	51.9000
 0.9720	51.8750
 0.9730	51.8860
 0.9740	51.9130
 0.9750	51.9220
 0.9760	51.9170
 0.9770	51.9240
 0.9780	51.9570
 0.9790	51.9630
 0.9800	51.9810
 0.9810	52.0130
 0.9820	52.0440
 0.9830	52.0670
 0.9840	52.0920
 0.9850	52.1380
 0.9860	52.2110
 0.9870	52.2690
 0.9880	52.3040
 0.9890	52.3400
 0.9900	52.4070
 0.9910	52.4870
 0.9920	52.5260
 0.9930	52.5500
 0.9940	52.6140
 0.9950	52.7000
 0.9960	52.7850
 0.9970	52.8450
 0.9980	52.8700
 0.9990	52.9030
 1.0000	53.1260
 1.0010	53.4800
 1.0020	53.7220
 1.0030	53.7860
 1.0040	53.8440
 1.0050	53.9010
 1.0060	53.9570
 1.0070	54.0080
 1.0080	54.0640
 1.0090	54.1220
 1.0100	54.1790
 1.0110	54.2390
 1.0120	54.2950
 1.0130	54.3500
 1.0140	54.4060
 1.0150	54.4610
 1.0160	54.5180
 1.0170	54.5750
 1.0180	54.6270
 1.0190	54.6780
 1.0200	54.7310
 1.0210	54.7830
 1.0220	54.8320
 1.0230	54.8790
 1.0240	54.9230
 1.0250	54.9690
 1.0260	55.0120
 1.0270	55.0590
 1.0280	55.1120
 1.0290	55.1580
 1.0300	55.2050
 1.0310	55.2490
 1.0320	55.2880
 1.0330	55.3250
 1.0340	55.3640
 1.0350	55.3990
 1.0360	55.4370
 1.0370	55.4730
 1.0380	55.5060
 1.0390	55.5380
 1.0400	55.5720
 1.0410	55.6050
 1.0420	55.6370
 1.0430	55.6730
 1.0440	55.7030
 1.0450	55.7330
 1.0460	55.7580
 1.0470	55.7760
 1.0480	55.7990
 1.0490	55.8210
 1.0500	55.8430
 1.0510	55.8670
 1.0520	55.8910
 1.0530	55.9100
 1.0540	55.9270
 1.0550	55.9410
 1.0560	55.9530
 1.0570	55.9650
 1.0580	55.9710
 1.0590	55.9810
 1.0600	55.9930
 1.0610	56.0010
 1.0620	56.0070
 1.0630	56.0130
 1.0640	56.0170
 1.0650	56.0220
 1.0660	56.0280
 1.0670	56.0320
 1.0680	56.0360
 1.0690	56.0380
 1.0700	56.0390
 1.0710	56.0370
 1.0720	56.0370
 1.0730	56.0360
 1.0740	56.0330
 1.0750	56.0330
 1.0760	56.0280
 1.0770	56.0190
 1.0780	56.0100
 1.0790	56.0000
 1.0800	55.9880
 1.0810	55.9760
 1.0820	55.9630
 1.0830	55.9470
 1.0840	55.9330
 1.0850	55.9190
 1.0860	55.9050
 1.0870	55.8900
 1.0880	55.8760
 1.0890	55.8580
 1.0900	55.8360
 1.0910	55.8160
 1.0920	55.7940
 1.0930	55.7720
 1.0940	55.7530
 1.0950	55.7310
 1.0960	55.7080
 1.0970	55.6830
 1.0980	55.6560
 1.0990	55.6280
 1.1000	55.6010
 1.1010	55.5700
 1.1020	55.5390
 1.1030	55.5060
 1.1040	55.4700
 1.1050	55.4330
 1.1060	55.3970
 1.1070	55.3610
 1.1080	55.3250
 1.1090	55.2910
 1.1100	55.2510
 1.1110	55.2080
 1.1120	55.1650
 1.1130	55.1210
 1.1140	55.0740
 1.1150	55.0300
 1.1160	54.9780
 1.1170	54.9240
 1.1180	54.8630
 1.1190	54.7960
 1.1200	54.7260
 1.1210	54.6500
 1.1220	54.5630
 1.1230	54.4710
 1.1240	54.3720
 1.1250	54.2630
 1.1260	54.1480
 1.1270	54.0170
 1.1280	53.8780
 1.1290	53.7220
 1.1300	53.5540
 1.1310	53.3700
 1.1320	53.1720
 1.1330	52.9590
 1.1340	52.7280
 1.1350	52.4870
 1.1360	52.2330
 1.1370	51.9640
 1.1380	51.6860
 1.1390	51.3990
 1.1400	51.0990
 1.1410	50.7960
 1.1420	50.4920
 1.1430	50.1850
 1.1440	49.8830
 1.1450	49.5770
 1.1460	49.2860
 1.1470	48.9950
 1.1480	48.7240
 1.1490	48.4620
 1.1500	48.2210
 1.1510	47.9920
 1.1520	47.7840
 1.1530	47.5950
 1.1540	47.4230
 1.1550	47.2680
 1.1560	47.1330
 1.1570	47.0190
 1.1580	46.9180
 1.1590	46.8340
 1.1600	46.7660
 1.1610	46.7030
 1.1620	46.6520
 1.1630	46.6120
 1.1640	46.5750
 1.1650	46.5460
 1.1660	46.5280
 1.1670	46.5110
 1.1680	46.5000
 1.1690	46.4880
 1.1700	46.4800
 1.1710	46.4710
 1.1720	46.4630
 1.1730	46.4550
 1.1740	46.4470
 1.1750	46.4390
 1.1760	46.4270
 1.1770	46.4120
 1.1780	46.3970
 1.1790	46.3800
 1.1800	46.3600
 1.1810	46.3420
 1.1820	46.3220
 1.1830	46.2980
 1.1840	46.2770
 1.1850	46.2550
 1.1860	46.2330
 1.1870	46.2110
 1.1880	46.1910
 1.1890	46.1700
 1.1900	46.1540
 1.1910	46.1410
 1.1920	46.1310
 1.1930	46.1260
 1.1940	46.1220
 1.1950	46.1200
 1.1960	46.1200
 1.1970	46.1240
 1.1980	46.1320
 1.1990	46.1430
 1.2000	46.1590
 1.2010	46.1760
 1.2020	46.1970
 1.2030	46.2240
 1.2040	46.2540
 1.2050	46.2910
 1.2060	46.3320
 1.2070	46.3750
 1.2080	46.4220
 1.2090	46.4700
 1.2100	46.5220
 1.2110	46.5750
 1.2120	46.6300
 1.2130	46.6870
 1.2140	46.7470
 1.2150	46.8070
 1.2160	46.8700
 1.2170	46.9330
 1.2180	46.9970
 1.2190	47.0600
 1.2200	47.1230
 1.2210	47.1890
 1.2220	47.2570
 1.2230	47.3240
 1.2240	47.3910
 1.2250	47.4580
 1.2260	47.5220
 1.2270	47.5870
 1.2280	47.6510
 1.2290	47.7110
 1.2300	47.7710
 1.2310	47.8290
 1.2320	47.8830
 1.2330	47.9350
 1.2340	47.9860
 1.2350	48.0360
 1.2360	48.0840
 1.2370	48.1300
 1.2380	48.1770
 1.2390	48.2200
 1.2400	48.2600
 1.2410	48.3010
 1.2420	48.3390
 1.2430	48.3760
 1.2440	48.4150
 1.2450	48.4470
 1.2460	48.4810
 1.2470	48.5120
 1.2480	48.5410
 1.2490	48.5740
 1.2500	48.6030
 1.2510	48.6310
 1.2520	48.6580
 1.2530	48.6820
 1.2540	48.7040
 1.2550	48.7270
 1.2560	48.7450
 1.2570	48.7610
 1.2580	48.7780
 1.2590	48.7910
 1.2600	48.8040
 1.2610	48.8130
 1.2620	48.8200
 1.2630	48.8230
 1.2640	48.8240
 1.2650	48.8250
 1.2660	48.8240
 1.2670	48.8200
 1.2680	48.8150
 1.2690	48.8070
 1.2700	48.7970
 1.2710	48.7860
 1.2720	48.7710
 1.2730	48.7550
 1.2740	48.7380
 1.2750	48.7180
 1.2760	48.6970
 1.2770	48.6730
 1.2780	48.6450
 1.2790	48.6200
 1.2800	48.5910
 1.2810	48.5570
 1.2820	48.5210
 1.2830	48.4800
 1.2840	48.4350
 1.2850	48.3900
 1.2860	48.3420
 1.2870	48.2880
 1.2880	48.2290
 1.2890	48.1670
 1.2900	48.1020
 1.2910	48.0320
 1.2920	47.9600
 1.2930	47.8860
 1.2940	47.8050
 1.2950	47.7200
 1.2960	47.6300
 1.2970	47.5360
 1.2980	47.4360
 1.2990	47.3340
 1.3000	47.2310
 1.3010	47.1250
 1.3020	47.0130
 1.3030	46.8960
 1.3040	46.7760
 1.3050	46.6500
 1.3060	46.5180
 1.3070	46.3800
 1.3080	46.2370
 1.3090	46.0860
 1.3100	45.9300
 1.3110	45.7710
 1.3120	45.6090
 1.3130	45.4410
 1.3140	45.2680
 1.3150	45.0910
 1.3160	44.9060
 1.3170	44.7160
 1.3180	44.5210
 1.3190	44.3230
 1.3200	44.1170
 1.3210	43.9030
 1.3220	43.6870
 1.3230	43.4650
 1.3240	43.2400
 1.3250	43.0160
 1.3260	42.7860
 1.3270	42.5500
 1.3280	42.3110
 1.3290	42.0650
 1.3300	41.8190
 1.3310	41.5730
 1.3320	41.3210
 1.3330	41.0730
 1.3340	40.8230
 1.3350	40.5700
 1.3360	40.3200
 1.3370	40.0670
 1.3380	39.8140
 1.3390	39.5650
 1.3400	39.3160
 1.3410	39.0710
 1.3420	38.8310
 1.3430	38.5920
 1.3440	38.3560
 1.3450	38.1210
 1.3460	37.8870
 1.3470	37.6580
 1.3480	37.4300
 1.3490	37.2060
 1.3500	36.9870
 1.3510	36.7690
 1.3520	36.5500
 1.3530	36.3350
 1.3540	36.1210
 1.3550	35.9060
 1.3560	35.6900
 1.3570	35.4730
 1.3580	35.2560
 1.3590	35.0370
 1.3600	34.8140
 1.3610	34.5860
 1.3620	34.3490
 1.3630	34.1060
 1.3640	33.8530
 1.3650	33.5900
 1.3660	33.3210
 1.3670	33.0370
 1.3680	32.7420
 1.3690	32.4350
 1.3700	32.1080
 1.3710	31.7700
 1.3720	31.4140
 1.3730	31.0360
 1.3740	30.6440
 1.3750	30.2330
 1.3760	29.7980
 1.3770	29.3420
 1.3780	28.8600
 1.3790	28.3570
 1.3800	27.8340
 1.3810	27.2880
 1.3820	26.7310
 1.3830	26.1560
 1.3840	25.5700
 1.3850	24.9660
 1.3860	24.3620
 1.3870	23.7410
 1.3880	23.1310
 1.3890	22.5190
 1.3900	21.9080
 1.3910	21.3090
 1.3920	20.7170
 1.3930	20.1310
 1.3940	19.5590
 1.3950	18.9960
 1.3960	18.4520
 1.3970	17.9290
 1.3980	17.4270
 1.3990	16.9550
 1.4000	16.5030
 1.4010	16.0720
 1.4020	15.6670
 1.4030	15.2830
 1.4040	14.9230
 1.4050	14.5870
 1.4060	14.2740
 1.4070	13.9870
 1.4080	13.7200
 1.4090	13.4740
 1.4100	13.2470
 1.4110	13.0380
 1.4120	12.8480
 1.4130	12.6750
 1.4140	12.5180
 1.4150	12.3770
 1.4160	12.2490
 1.4170	12.1330
 1.4180	12.0290
 1.4190	11.9350
 1.4200	11.8510
 1.4210	11.7770
 1.4220	11.7120
 1.4230	11.6560
 1.4240	11.6070
 1.4250	11.5640
 1.4260	11.5270
 1.4270	11.4960
 1.4280	11.4710
 1.4290	11.4490
 1.4300	11.4330
 1.4310	11.4200
 1.4320	11.4110
 1.4330	11.4060
 1.4340	11.4060
 1.4350	11.4070
 1.4360	11.4110
 1.4370	11.4180
 1.4380	11.4270
 1.4390	11.4380
 1.4400	11.4510
 1.4410	11.4660
 1.4420	11.4840
 1.4430	11.5020
 1.4440	11.5230
 1.4450	11.5440
 1.4460	11.5650
 1.4470	11.5880
 1.4480	11.6110
 1.4490	11.6350
 1.4500	11.6600
 1.4510	11.6850
 1.4520	11.7100
 1.4530	11.7360
 1.4540	11.7620
 1.4550	11.7910
 1.4560	11.8220
 1.4570	11.8540
 1.4580	11.8880
 1.4590	11.9240
 1.4600	11.9620
 1.4610	12.0030
 1.4620	12.0470
 1.4630	12.0940
 1.4640	12.1440
 1.4650	12.1990
 1.4660	12.2560
 1.4670	12.3160
 1.4680	12.3810
 1.4690	12.4500
 1.4700	12.5210
 1.4710	12.5970
 1.4720	12.6760
 1.4730	12.7560
 1.4740	12.8400
 1.4750	12.9270
 1.4760	13.0170
 1.4770	13.1100
 1.4780	13.2030
 1.4790	13.3000
 1.4800	13.3970
 1.4810	13.4960
 1.4820	13.5990
 1.4830	13.7010
 1.4840	13.8060
 1.4850	13.9130
 1.4860	14.0180
 1.4870	14.1260
 1.4880	14.2350
 1.4890	14.3430
 1.4900	14.4530
 1.4910	14.5650
 1.4920	14.6770
 1.4930	14.7890
 1.4940	14.9020
 1.4950	15.0170
 1.4960	15.1300
 1.4970	15.2420
 1.4980	15.3550
 1.4990	15.4680
 1.5000	15.5830
 1.5010	15.7000
 1.5020	15.8160
 1.5030	15.9320
 1.5040	16.0470
 1.5050	16.1620
 1.5060	16.2780
 1.5070	16.3940
 1.5080	16.5110
 1.5090	16.6290
 1.5100	16.7470
 1.5110	16.8630
 1.5120	16.9800
 1.5130	17.0940
 1.5140	17.2090
 1.5150	17.3240
 1.5160	17.4380
 1.5170	17.5530
 1.5180	17.6670
 1.5190	17.7800
 1.5200	17.8940
 1.5210	18.0050
 1.5220	18.1160
 1.5230	18.2260
 1.5240	18.3350
 1.5250	18.4430
 1.5260	18.5510
 1.5270	18.6590
 1.5280	18.7670
 1.5290	18.8720
 1.5300	18.9770
 1.5310	19.0830
 1.5320	19.1850
 1.5330	19.2890
 1.5340	19.3950
 1.5350	19.4990
 1.5360	19.6050
 1.5370	19.7090
 1.5380	19.8090
 1.5390	19.9090
 1.5400	20.0090
 1.5410	20.1080
 1.5420	20.2110
 1.5430	20.3110
 1.5440	20.4120
 1.5450	20.5120
 1.5460	20.6090
 1.5470	20.7050
 1.5480	20.8020
 1.5490	20.8970
 1.5500	20.9940
 1.5510	21.0900
 1.5520	21.1830
 1.5530	21.2750
 1.5540	21.3670
 1.5550	21.4590
 1.5560	21.5490
 1.5570	21.6400
 1.5580	21.7310
 1.5590	21.8210
 1.5600	21.9130
 1.5610	22.0010
 1.5620	22.0880
 1.5630	22.1740
 1.5640	22.2580
 1.5650	22.3440
 1.5660	22.4280
 1.5670	22.5100
 1.5680	22.5930
 1.5690	22.6750
 1.5700	22.7580
 1.5710	22.8420
 1.5720	22.9230
 1.5730	23.0050
 1.5740	23.0860
 1.5750	23.1660
 1.5760	23.2470
 1.5770	23.3250
 1.5780	23.4040
 1.5790	23.4830
 1.5800	23.5600
 1.5810	23.6360
 1.5820	23.7120
 1.5830	23.7870
 1.5840	23.8630
 1.5850	23.9400
 1.5860	24.0160
 1.5870	24.0930
 1.5880	24.1690
 1.5890	24.2450
 1.5900	24.3200
 1.5910	24.3930
 1.5920	24.4660
 1.5930	24.5390
 1.5940	24.6130
 1.5950	24.6870
 1.5960	24.7620
 1.5970	24.8370
 1.5980	24.9100
 1.5990	24.9820
 1.6000	25.0530
 1.6010	25.1210
 1.6020	25.1890
 1.6030	25.2600
 1.6040	25.3290
 1.6050	25.3970
 1.6060	25.4660
 1.6070	25.5320
 1.6080	25.5970
 1.6090	25.6620
 1.6100	25.7270
 1.6110	25.7910
 1.6120	25.8550
 1.6130	25.9170
 1.6140	25.9770
 1.6150	26.0350
 1.6160	26.0930
 1.6170	26.1490
 1.6180	26.2040
 1.6190	26.2590
 1.6200	26.3120
 1.6210	26.3630
 1.6220	26.4150
 1.6230	26.4640
 1.6240	26.5130
 1.6250	26.5590
 1.6260	26.6040
 1.6270	26.6490
 1.6280	26.6900
 1.6290	26.7310
 1.6300	26.7700
 1.6310	26.8090
 1.6320	26.8480
 1.6330	26.8850
 1.6340	26.9210
 1.6350	26.9550
 1.6360	26.9870
 1.6370	27.0200
 1.6380	27.0520
 1.6390	27.0810
 1.6400	27.1100
 1.6410	27.1360
 1.6420	27.1620
 1.6430	27.1840
 1.6440	27.2030
 1.6450	27.2200
 1.6460	27.2350
 1.6470	27.2450
 1.6480	27.2500
 1.6490	27.2520
 1.6500	27.2500
 1.6510	27.2470
 1.6520	27.2440
 1.6530	27.2380
 1.6540	27.2280
 1.6550	27.2160
 1.6560	27.2020
 1.6570	27.1890
 1.6580	27.1750
 1.6590	27.1570
 1.6600	27.1400
 1.6610	27.1190
 1.6620	27.0970
 1.6630	27.0790
 1.6640	27.0600
 1.6650	27.0420
 1.6660	27.0260
 1.6670	27.0100
 1.6680	26.9910
 1.6690	26.9730
 1.6700	26.9550
 1.6710	26.9320
 1.6720	26.9110
 1.6730	26.8880
 1.6740	26.8630
 1.6750	26.8370
 1.6760	26.8070
 1.6770	26.7760
 1.6780	26.7460
 1.6790	26.7140
 1.6800	26.6830
 1.6810	26.6500
 1.6820	26.6140
 1.6830	26.5710
 1.6840	26.5240
 1.6850	26.4740
 1.6860	26.4210
 1.6870	26.3660
 1.6880	26.3080
 1.6890	26.2480
 1.6900	26.1850
 1.6910	26.1150
 1.6920	26.0470
 1.6930	25.9780
 1.6940	25.9070
 1.6950	25.8370
 1.6960	25.7670
 1.6970	25.6960
 1.6980	25.6260
 1.6990	25.5590
 1.7000	25.4880
 1.7010	25.4140
 1.7020	25.3400
 1.7030	25.2620
 1.7040	25.1870
 1.7050	25.1140
 1.7060	25.0370
 1.7070	24.9590
 1.7080	24.8830
 1.7090	24.8050
 1.7100	24.7310
 1.7110	24.6620
 1.7120	24.5910
 1.7130	24.5210
 1.7140	24.4510
 1.7150	24.3830
 1.7160	24.3180
 1.7170	24.2570
 1.7180	24.1990
 1.7190	24.1430
 1.7200	24.0910
 1.7210	24.0410
 1.7220	23.9940
 1.7230	23.9480
 1.7240	23.9030
 1.7250	23.8580
 1.7260	23.8140
 1.7270	23.7700
 1.7280	23.7290
 1.7290	23.6890
 1.7300	23.6510
 1.7310	23.6100
 1.7320	23.5670
 1.7330	23.5230
 1.7340	23.4770
 1.7350	23.4280
 1.7360	23.3770
 1.7370	23.3230
 1.7380	23.2650
 1.7390	23.2050
 1.7400	23.1430
 1.7410	23.0780
 1.7420	23.0100
 1.7430	22.9400
 1.7440	22.8680
 1.7450	22.7960
 1.7460	22.7230
 1.7470	22.6490
 1.7480	22.5720
 1.7490	22.4980
 1.7500	22.4230
 1.7510	22.3500
 1.7520	22.2800
 1.7530	22.2090
 1.7540	22.1390
 1.7550	22.0710
 1.7560	22.0070
 1.7570	21.9450
 1.7580	21.8850
 1.7590	21.8260
 1.7600	21.7670
 1.7610	21.7110
 1.7620	21.6580
 1.7630	21.6120
 1.7640	21.5640
 1.7650	21.5190
 1.7660	21.4730
 1.7670	21.4270
 1.7680	21.3810
 1.7690	21.3360
 1.7700	21.2900
 1.7710	21.2430
 1.7720	21.1970
 1.7730	21.1510
 1.7740	21.1100
 1.7750	21.0720
 1.7760	21.0350
 1.7770	21.0010
 1.7780	20.9670
 1.7790	20.9310
 1.7800	20.9000
 1.7810	20.8700
 1.7820	20.8450
 1.7830	20.8230
 1.7840	20.8030
 1.7850	20.7880
 1.7860	20.7720
 1.7870	20.7580
 1.7880	20.7470
 1.7890	20.7380
 1.7900	20.7360
 1.7910	20.7310
 1.7920	20.7250
 1.7930	20.7210
 1.7940	20.7160
 1.7950	20.7110
 1.7960	20.7080
 1.7970	20.7050
 1.7980	20.7010
 1.7990	20.6970
 1.8000	20.6960
 1.8010	20.6930
 1.8020	20.6870
 1.8030	20.6840
 1.8040	20.6810
 1.8050	20.6790
 1.8060	20.6780
 1.8070	20.6760
 1.8080	20.6700
 1.8090	20.6670
 1.8100	20.6650
 1.8110	20.6630
 1.8120	20.6640
 1.8130	20.6630
 1.8140	20.6600
 1.8150	20.6560
 1.8160	20.6470
 1.8170	20.6380
 1.8180	20.6330
 1.8190	20.6300
 1.8200	20.6220
 1.8210	20.6120
 1.8220	20.6010
 1.8230	20.5890
 1.8240	20.5750
 1.8250	20.5640
 1.8260	20.5480
 1.8270	20.5280
 1.8280	20.5080
 1.8290	20.4860
 1.8300	20.6440
 1.8310	21.0130
 1.8320	21.1660
 1.8330	21.1290
 1.8340	21.0840
 1.8350	21.0370
 1.8360	20.9840
 1.8370	20.9280
 1.8380	20.8720
 1.8390	20.8070
 1.8400	20.7380
 1.8410	20.6630
 1.8420	20.5830
 1.8430	20.4940
 1.8440	20.4040
 1.8450	20.3070
 1.8460	20.2000
 1.8470	20.0840
 1.8480	19.9590
 1.8490	19.8240
 1.8500	19.6800
 1.8510	19.5270
 1.8520	19.3640
 1.8530	19.1910
 1.8540	19.0100
 1.8550	18.8140
 1.8560	18.6060
 1.8570	18.3880
 1.8580	18.1570
 1.8590	17.9160
 1.8600	17.6640
 1.8610	17.4040
 1.8620	17.1310
 1.8630	16.8500
 1.8640	16.5590
 1.8650	16.2540
 1.8660	15.9430
 1.8670	15.6150
 1.8680	15.2760
 1.8690	14.9340
 1.8700	14.5820
 1.8710	14.2190
 1.8720	13.8520
 1.8730	13.4830
 1.8740	13.1110
 1.8750	12.7400
 1.8760	12.3700
 1.8770	12.0100
 1.8780	11.6580
 1.8790	11.3130
 1.8800	10.9820
 1.8810	10.6640
 1.8820	10.3520
 1.8830	10.0480
 1.8840	 9.7580
 1.8850	 9.4780
 1.8860	 9.2110
 1.8870	 8.9600
 1.8880	 8.7250
 1.8890	 8.5060
 1.8900	 8.3000
 1.8910	 8.1080
 1.8920	 7.9300
 1.8930	 7.7660
 1.8940	 7.6150
 1.8950	 7.4780
 1.8960	 7.3530
 1.8970	 7.2400
 1.8980	 7.1420
 1.8990	 7.0540
 1.9000	 6.9740
 1.9010	 6.9070
 1.9020	 6.8410
 1.9030	 6.7810
 1.9040	 6.7260
 1.9050	 6.6780
 1.9060	 6.6370
 1.9070	 6.6040
 1.9080	 6.5750
 1.9090	 6.5480
 1.9100	 6.5240
 1.9110	 6.5030
 1.9120	 6.4860
 1.9130	 6.4700
 1.9140	 6.4580
 1.9150	 6.4460
 1.9160	 6.4350
 1.9170	 6.4260
 1.9180	 6.4180
 1.9190	 6.4120
 1.9200	 6.4080
 1.9210	 6.4070
 1.9220	 6.4060
 1.9230	 6.4060
 1.9240	 6.4090
 1.9250	 6.4130
 1.9260	 6.4160
 1.9270	 6.4200
 1.9280	 6.4240
 1.9290	 6.4280
 1.9300	 6.4360
 1.9310	 6.4450
 1.9320	 6.4540
 1.9330	 6.4630
 1.9340	 6.4720
 1.9350	 6.4820
 1.9360	 6.4910
 1.9370	 6.5030
 1.9380	 6.5160
 1.9390	 6.5290
 1.9400	 6.5400
 1.9410	 6.5540
 1.9420	 6.5670
 1.9430	 6.5800
 1.9440	 6.5950
 1.9450	 6.6140
 1.9460	 6.6310
 1.9470	 6.6490
 1.9480	 6.6660
 1.9490	 6.6820
 1.9500	 6.6990
 1.9510	 6.7160
 1.9520	 6.7330
 1.9530	 6.7510
 1.9540	 6.7690
 1.9550	 6.7870
 1.9560	 6.8070
 1.9570	 6.8270
 1.9580	 6.8460
 1.9590	 6.8690
 1.9600	 6.8940
 1.9610	 6.9180
 1.9620	 6.9450
 1.9630	 6.9690
 1.9640	 6.9920
 1.9650	 7.0160
 1.9660	 7.0410
 1.9670	 7.0690
 1.9680	 7.0950
 1.9690	 7.1240
 1.9700	 7.1510
 1.9710	 7.1750
 1.9720	 7.2030
 1.9730	 7.2340
 1.9740	 7.2620
 1.9750	 7.2920
 1.9760	 7.3210
 1.9770	 7.3480
 1.9780	 7.3770
 1.9790	 7.4060
 1.9800	 7.4360
 1.9810	 7.4670
 1.9820	 7.4980
 1.9830	 7.5310
 1.9840	 7.5640
 1.9850	 7.5980
 1.9860	 7.6330
 1.9870	 7.6660
 1.9880	 7.7010
 1.9890	 7.7380
 1.9900	 7.7750
 1.9910	 7.8100
 1.9920	 7.8470
 1.9930	 7.8850
 1.9940	 7.9210
 1.9950	 7.9570
 1.9960	 7.9940
 1.9970	 8.0280
 1.9980	 8.0640
 1.9990	 8.1030
 2.0000	 8.1400
 2.0010	 8.1740
 2.0020	 8.2120
 2.0030	 8.2490
 2.0040	 8.2870
 2.0050	 8.3260
 2.0060	 8.3680
 2.0070	 8.4070
 2.0080	 8.4490
 2.0090	 8.4870
 2.0100	 8.5220
 2.0110	 8.5580
 2.0120	 8.5930
 2.0130	 8.6260
 2.0140	 8.6630
 2.0150	 8.7050
 2.0160	 8.7470
 2.0170	 8.7850
 2.0180	 8.8210
 2.0190	 8.8540
 2.0200	 8.8880
 2.0210	 8.9190
 2.0220	 8.9530
 2.0230	 8.9910
 2.0240	 9.0240
 2.0250	 9.0560
 2.0260	 9.0870
 2.0270	 9.1160
 2.0280	 9.1440
 2.0290	 9.1750
 2.0300	 9.2060
 2.0310	 9.2370
 2.0320	 9.2680
 2.0330	 9.3000
 2.0340	 9.3330
 2.0350	 9.3640
 2.0360	 9.3960
 2.0370	 9.4240
 2.0380	 9.4450
 2.0390	 9.4700
 2.0400	 9.4960
 2.0410	 9.5200
 2.0420	 9.5450
 2.0430	 9.5690
 2.0440	 9.5930
 2.0450	 9.6150
 2.0460	 9.6370
 2.0470	 9.6610
 2.0480	 9.6840
 2.0490	 9.7060
 2.0500	 9.7290
 2.0510	 9.7530
 2.0520	 9.7750
 2.0530	 9.7960
 2.0540	 9.8200
 2.0550	 9.8440
 2.0560	 9.8670
 2.0570	 9.8920
 2.0580	 9.9160
 2.0590	 9.9390
 2.0600	 9.9590
 2.0610	 9.9810
 2.0620	10.0030
 2.0630	10.0240
 2.0640	10.0450
 2.0650	10.0660
 2.0660	10.0860
 2.0670	10.1070
 2.0680	10.1310
 2.0690	10.1530
 2.0700	10.1750
 2.0710	10.1960
 2.0720	10.2120
 2.0730	10.2310
 2.0740	10.2520
 2.0750	10.2750
 2.0760	10.2960
 2.0770	10.3170
 2.0780	10.3400
 2.0790	10.3620
 2.0800	10.3850
 2.0810	10.4140
 2.0820	10.4370
 2.0830	10.4530
 2.0840	10.4730
 2.0850	10.4900
 2.0860	10.5090
 2.0870	10.5310
 2.0880	10.5530
 2.0890	10.5760
 2.0900	10.6000
 2.0910	10.6250
 2.0920	10.6520
 2.0930	10.6750
 2.0940	10.6960
 2.0950	10.7170
 2.0960	10.7360
 2.0970	10.7560
 2.0980	10.7740
 2.0990	10.7960
 2.1000	10.8210
 2.1010	10.8430
 2.1020	10.8670
 2.1030	10.8900
 2.1040	10.9090
 2.1050	10.9290
 2.1060	10.9520
 2.1070	10.9770
 2.1080	11.0010
 2.1090	11.0270
 2.1100	11.0510
 2.1110	11.0740
 2.1120	11.0970
 2.1130	11.1200
 2.1140	11.1440
 2.1150	11.1710
 2.1160	11.1950
 2.1170	11.2160
 2.1180	11.2390
 2.1190	11.2610
 2.1200	11.2820
 2.1210	11.3050
 2.1220	11.3260
 2.1230	11.3460
 2.1240	11.3610
 2.1250	11.3800
 2.1260	11.3990
 2.1270	11.4180
 2.1280	11.4380
 2.1290	11.4580
 2.1300	11.4790
 2.1310	11.4990
 2.1320	11.5190
 2.1330	11.5400
 2.1340	11.5630
 2.1350	11.5830
 2.1360	11.6030
 2.1370	11.6240
 2.1380	11.6420
 2.1390	11.6610
 2.1400	11.6820
 2.1410	11.7040
 2.1420	11.7230
 2.1430	11.7420
 2.1440	11.7600
 2.1450	11.7780
 2.1460	11.7950
 2.1470	11.8100
 2.1480	11.8280
 2.1490	11.8460
 2.1500	11.8640
 2.1510	11.8860
 2.1520	11.9060
 2.1530	11.9230
 2.1540	11.9430
 2.1550	11.9660
 2.1560	11.9860
 2.1570	12.0080
 2.1580	12.0260
 2.1590	12.0420
 2.1600	12.0540
 2.1610	12.0710
 2.1620	12.0880
 2.1630	12.1050
 2.1640	12.1250
 2.1650	12.1420
 2.1660	12.1570
 2.1670	12.1720
 2.1680	12.1870
 2.1690	12.2030
 2.1700	12.2190
 2.1710	12.2360
 2.1720	12.2530
 2.1730	12.2720
 2.1740	12.2910
 2.1750	12.3090
 2.1760	12.3270
 2.1770	12.3440
 2.1780	12.3580
 2.1790	12.3730
 2.1800	12.3890
 2.1810	12.4070
 2.1820	12.4260
 2.1830	12.4470
 2.1840	12.4650
 2.1850	12.4850
 2.1860	12.4990
 2.1870	12.5080
 2.1880	12.5190
 2.1890	12.5260
 2.1900	12.5400
 2.1910	12.5590
 2.1920	12.5760
 2.1930	12.5950
 2.1940	12.6110
 2.1950	12.6240
 2.1960	12.6360
 2.1970	12.6480
 2.1980	12.6600
 2.1990	12.6730
 2.2000	12.6830
 2.2010	12.6920
 2.2020	12.7010
 2.2030	12.7090
 2.2040	12.7160
 2.2050	12.7230
 2.2060	12.7320
 2.2070	12.7410
 2.2080	12.7520
 2.2090	12.7600
 2.2100	12.7690
 2.2110	12.7760
 2.2120	12.7810
 2.2130	12.7860
 2.2140	12.7930
 2.2150	12.7930
 2.2160	12.7860
 2.2170	12.7840
 2.2180	12.7820
 2.2190	12.7780
 2.2200	12.7760
 2.2210	12.7710
 2.2220	12.7630
 2.2230	12.7530
 2.2240	12.7430
 2.2250	12.7290
 2.2260	12.7070
 2.2270	12.6890
 2.2280	12.6720
 2.2290	12.6540
 2.2300	12.6420
 2.2310	12.6270
 2.2320	12.6070
 2.2330	12.5850
 2.2340	12.5580
 2.2350	12.5250
 2.2360	12.4940
 2.2370	12.4620
 2.2380	12.4290
 2.2390	12.3980
 2.2400	12.3630
 2.2410	12.3260
 2.2420	12.2870
 2.2430	12.2460
 2.2440	12.2030
 2.2450	12.1580
 2.2460	12.1130
 2.2470	12.0660
 2.2480	12.0190
 2.2490	11.9720
 2.2500	11.9230
 2.2510	11.8710
 2.2520	11.8210
 2.2530	11.7720
 2.2540	11.7200
 2.2550	11.6650
 2.2560	11.6110
 2.2570	11.5560
 2.2580	11.5000
 2.2590	11.4420
 2.2600	11.3870
 2.2610	11.3310
 2.2620	11.2750
 2.2630	11.2240
 2.2640	11.1730
 2.2650	11.1210
 2.2660	11.0730
 2.2670	11.0270
 2.2680	10.9820
 2.2690	10.9430
 2.2700	10.9100
 2.2710	10.8720
 2.2720	10.8370
 2.2730	10.8000
 2.2740	10.7540
 2.2750	10.7200
 2.2760	10.6930
 2.2770	10.6630
 2.2780	10.6340
 2.2790	10.6060
 2.2800	10.5750
 2.2810	10.5480
 2.2820	10.5250
 2.2830	10.5000
 2.2840	10.4810
 2.2850	10.4550
 2.2860	10.4260
 2.2870	10.3960
 2.2880	10.3610
 2.2890	10.3300
 2.2900	10.3030
 2.2910	10.2730
 2.2920	10.2420
 2.2930	10.2100
 2.2940	10.1730
 2.2950	10.1380
 2.2960	10.1000
 2.2970	10.0650
 2.2980	10.0300
 2.2990	 9.9960
 2.3000	 9.9650
 2.3010	 9.9340
 2.3020	 9.9020
 2.3030	 9.8760
 2.3040	 9.8510
 2.3050	 9.8280
 2.3060	 9.8110
 2.3070	 9.7880
 2.3080	 9.7690
 2.3090	 9.7570
 2.3100	 9.7470
 2.3110	 9.7380
 2.3120	 9.7290
 2.3130	 9.7200
 2.3140	 9.7130
 2.3150	 9.7090
 2.3160	 9.7000
 2.3170	 9.6900
 2.3180	 9.6790
 2.3190	 9.6640
 2.3200	 9.6490
 2.3210	 9.6360
 2.3220	 9.6200
 2.3230	 9.6020
 2.3240	 9.5820
 2.3250	 9.5640
 2.3260	 9.5410
 2.3270	 9.5140
 2.3280	 9.4880
 2.3290	 9.4580
 2.3300	 9.4330
 2.3310	 9.4100
 2.3320	 9.3880
 2.3330	 9.3670
 2.3340	 9.3470
 2.3350	 9.3270
 2.3360	 9.3070
 2.3370	 9.2930
 2.3380	 9.2700
 2.3390	 9.2360
 2.3400	 9.2120
 2.3410	 9.1850
 2.3420	 9.1630
 2.3430	 9.1520
 2.3440	 9.1350
 2.3450	 9.1190
 2.3460	 9.0970
 2.3470	 9.0710
 2.3480	 9.0470
 2.3490	 9.0130
 2.3500	 8.9910
 2.3510	 8.9820
 2.3520	 8.9660
 2.3530	 8.9540
 2.3540	 8.9430
 2.3550	 8.9270
 2.3560	 8.9080
 2.3570	 8.8890
 2.3580	 8.8720
 2.3590	 8.8520
 2.3600	 8.8370
 2.3610	 8.8250
 2.3620	 8.8070
 2.3630	 8.7880
 2.3640	 8.7770
 2.3650	 8.7670
 2.3660	 8.7550
 2.3670	 8.7480
 2.3680	 8.7310
 2.3690	 8.7050
 2.3700	 8.6950
 2.3710	 8.6790
 2.3720	 8.6600
 2.3730	 8.6550
 2.3740	 8.6380
 2.3750	 8.6270
 2.3760	 8.6150
 2.3770	 8.5880
 2.3780	 8.5640
 2.3790	 8.5310
 2.3800	 8.5010
 2.3810	 8.4890
 2.3820	 8.4700
 2.3830	 8.4600
 2.3840	 8.4460
 2.3850	 8.4230
 2.3860	 8.4080
 2.3870	 8.3760
 2.3880	 8.3520
 2.3890	 8.3360
 2.3900	 8.3140
 2.3910	 8.3060
 2.3920	 8.2910
 2.3930	 8.2690
 2.3940	 8.2530
 2.3950	 8.2380
 2.3960	 8.2340
 2.3970	 8.2280
 2.3980	 8.2180
 2.3990	 8.2030
 2.4000	 8.1800
 2.4010	 8.1560
 2.4020	 8.1370
 2.4030	 8.1180
 2.4040	 8.0990
 2.4050	 8.0880
 2.4060	 8.0620
 2.4070	 8.0330
 2.4080	 8.0140
 2.4090	 7.9850
 2.4100	 7.9600
 2.4110	 7.9290
 2.4120	 7.8960
 2.4130	 7.8840
 2.4140	 7.8780
 2.4150	 7.8760
 2.4160	 7.8730
 2.4170	 7.8590
 2.4180	 7.8320
 2.4190	 7.7940
 2.4200	 7.7600
 2.4210	 7.7200
 2.4220	 7.6950
 2.4230	 7.7030
 2.4240	 7.6970
 2.4250	 7.6790
 2.4260	 7.6610
 2.4270	 7.6170
 2.4280	 7.5790
 2.4290	 7.5670
 2.4300	 7.5260
 2.4310	 7.5050
 2.4320	 7.5150
 2.4330	 7.5000
 2.4340	 7.5060
 2.4350	 7.5060
 2.4360	 7.4780
 2.4370	 7.4520
 2.4380	 7.4220
 2.4390	 7.3920
 2.4400	 7.3690
 2.4410	 7.3630
 2.4420	 7.3600
 2.4430	 7.3500
 2.4440	 7.3360
 2.4450	 7.3020
 2.4460	 7.2630
 2.4470	 7.2460
 2.4480	 7.2220
 2.4490	 7.1990
 2.4500	 7.2030
 2.4510	 7.2030
 2.4520	 7.1900
 2.4530	 7.1870
 2.4540	 7.1750
 2.4550	 7.1520
 2.4560	 7.1330
 2.4570	 7.1170
 2.4580	 7.1020
 2.4590	 7.0860
 2.4600	 7.0690
 2.4610	 7.0510
 2.4620	 7.0240
 2.4630	 6.9990
 2.4640	 6.9730
 2.4650	 6.9280
 2.4660	 6.8920
 2.4670	 6.8690
 2.4680	 6.8490
 2.4690	 6.8560
 2.4700	 6.8590
 2.4710	 6.8680
 2.4720	 6.8630
 2.4730	 6.8540
 2.4740	 6.8440
 2.4750	 6.8210
 2.4760	 6.8000
 2.4770	 6.7840
 2.4780	 6.7800
 2.4790	 6.7700
 2.4800	 6.7540
 2.4810	 6.7400
 2.4820	 6.7480
 2.4830	 6.7880
 2.4840	 6.8330
 2.4850	 6.8440
 2.4860	 6.7930
 2.4870	 6.7200
 2.4880	 6.6660
 2.4890	 6.6450
 2.4900	 6.6830
 2.4910	 6.7300
 2.4920	 6.7370
 2.4930	 6.7570
 2.4940	 6.7620
 2.4950	 6.7350
 2.4960	 6.7350
 2.4970	 6.7280
 2.4980	 6.7050
 2.4990	 6.7140
 2.5000	 6.7320
