Name: Umbellularia californica 1
Type: vegetation
Class: Shrub
Genus: Umbellularia
Species: californica
Sample No.: VH104
Owner: UCSB
Wavelength Range: TIR
Origin: 34.5074; -119.7634; WGS84
Collection Date: 6/3/2013
Description: Samples were collected as part of the HyspIRI Airborne Campaign. 48 individual plants were sampled in three times in 2013 - spring  summer  and fall. The name of the sample includes a 1  2  or 3 which references a different individual of the species. Samples were taken to JPL and processed within 48 hours of collection. The same leaves were processed in the Nicolet and then measured using the ASD.
Measurement: Hemispherical reflectance
First Column: X
Second Column: Y
X Units: Wavelength (micrometers)
Y Units: Reflectance (percentage)
First X Value: 2.501
Last X Value: 15.387
Number of X Values: 1737
Additional Information: vegetation.shrub.umbellularia.californica.tir.vh104.ucsb.nicolet.ancillary.txt

 2.5010	 2.6930
 2.5030	 2.6690
 2.5040	 2.6970
 2.5050	 2.6330
 2.5060	 2.6150
 2.5070	 2.6280
 2.5090	 2.6660
 2.5100	 2.6260
 2.5110	 2.6150
 2.5120	 2.5950
 2.5140	 2.5730
 2.5150	 2.5700
 2.5160	 2.6460
 2.5170	 2.6870
 2.5180	 2.7140
 2.5200	 2.6660
 2.5210	 2.6350
 2.5220	 2.6560
 2.5230	 2.6780
 2.5250	 2.6470
 2.5260	 2.6720
 2.5270	 2.6490
 2.5280	 2.6600
 2.5290	 2.6580
 2.5310	 2.7060
 2.5320	 2.6860
 2.5330	 2.6690
 2.5340	 2.6530
 2.5360	 2.6710
 2.5370	 2.7120
 2.5380	 2.7210
 2.5390	 2.7030
 2.5410	 2.7670
 2.5420	 2.7380
 2.5430	 2.7430
 2.5440	 2.7320
 2.5460	 2.7520
 2.5470	 2.7200
 2.5480	 2.7190
 2.5490	 2.7390
 2.5510	 2.7470
 2.5520	 2.7530
 2.5530	 2.7750
 2.5540	 2.7080
 2.5560	 2.7120
 2.5570	 2.6800
 2.5580	 2.6410
 2.5590	 2.6540
 2.5610	 2.7150
 2.5620	 2.6980
 2.5630	 2.7360
 2.5640	 2.8060
 2.5660	 2.8380
 2.5670	 2.8030
 2.5680	 2.8160
 2.5700	 2.7980
 2.5710	 2.7860
 2.5720	 2.7590
 2.5730	 2.7930
 2.5750	 2.7760
 2.5760	 2.7900
 2.5770	 2.8040
 2.5790	 2.8060
 2.5800	 2.8260
 2.5810	 2.8630
 2.5820	 2.8060
 2.5840	 2.8020
 2.5850	 2.7750
 2.5860	 2.7680
 2.5880	 2.7520
 2.5890	 2.7930
 2.5900	 2.8350
 2.5910	 2.8570
 2.5930	 2.8570
 2.5940	 2.8570
 2.5950	 2.7800
 2.5970	 2.8140
 2.5980	 2.8310
 2.5990	 2.8950
 2.6000	 2.8730
 2.6020	 2.8010
 2.6030	 2.7320
 2.6040	 2.7060
 2.6060	 2.7150
 2.6070	 2.7270
 2.6080	 2.6800
 2.6100	 2.7020
 2.6110	 2.7230
 2.6120	 2.7440
 2.6140	 2.7460
 2.6150	 2.7870
 2.6160	 2.7430
 2.6180	 2.7150
 2.6190	 2.6920
 2.6200	 2.6780
 2.6220	 2.6670
 2.6230	 2.6830
 2.6240	 2.6400
 2.6260	 2.6680
 2.6270	 2.6600
 2.6280	 2.6860
 2.6300	 2.6970
 2.6310	 2.7270
 2.6320	 2.7070
 2.6340	 2.6620
 2.6350	 2.6260
 2.6360	 2.6620
 2.6380	 2.6290
 2.6390	 2.6120
 2.6400	 2.6430
 2.6420	 2.6530
 2.6430	 2.6220
 2.6440	 2.6770
 2.6460	 2.6640
 2.6470	 2.6240
 2.6480	 2.5640
 2.6500	 2.6010
 2.6510	 2.6500
 2.6520	 2.6750
 2.6540	 2.6530
 2.6550	 2.6480
 2.6560	 2.6000
 2.6580	 2.6090
 2.6590	 2.5940
 2.6610	 2.5670
 2.6620	 2.5420
 2.6630	 2.5930
 2.6650	 2.5950
 2.6660	 2.5870
 2.6670	 2.5230
 2.6690	 2.4930
 2.6700	 2.4490
 2.6720	 2.4690
 2.6730	 2.4490
 2.6740	 2.4330
 2.6760	 2.4120
 2.6770	 2.4020
 2.6780	 2.3790
 2.6800	 2.3930
 2.6810	 2.3950
 2.6830	 2.4180
 2.6840	 2.3840
 2.6850	 2.3940
 2.6870	 2.4110
 2.6880	 2.4360
 2.6900	 2.4640
 2.6910	 2.4990
 2.6920	 2.4530
 2.6940	 2.4410
 2.6950	 2.4240
 2.6970	 2.4830
 2.6980	 2.4380
 2.6990	 2.3850
 2.7010	 2.3570
 2.7020	 2.3480
 2.7040	 2.3390
 2.7050	 2.3590
 2.7060	 2.3340
 2.7080	 2.3590
 2.7090	 2.3470
 2.7110	 2.3290
 2.7120	 2.2620
 2.7130	 2.2640
 2.7150	 2.2450
 2.7160	 2.2740
 2.7180	 2.2340
 2.7190	 2.2560
 2.7210	 2.2730
 2.7220	 2.3020
 2.7230	 2.2790
 2.7250	 2.2720
 2.7260	 2.2390
 2.7280	 2.2580
 2.7290	 2.2310
 2.7310	 2.2430
 2.7320	 2.2210
 2.7330	 2.2270
 2.7350	 2.2510
 2.7360	 2.3140
 2.7380	 2.2720
 2.7390	 2.2070
 2.7410	 2.1920
 2.7420	 2.2140
 2.7440	 2.1830
 2.7450	 2.2340
 2.7470	 2.2340
 2.7480	 2.2510
 2.7490	 2.1770
 2.7510	 2.2050
 2.7520	 2.2010
 2.7540	 2.1750
 2.7550	 2.1480
 2.7570	 2.1480
 2.7580	 2.1540
 2.7600	 2.1960
 2.7610	 2.1850
 2.7630	 2.1890
 2.7640	 2.1570
 2.7660	 2.1570
 2.7670	 2.1090
 2.7680	 2.1260
 2.7700	 2.1390
 2.7710	 2.1360
 2.7730	 2.0890
 2.7740	 2.1260
 2.7760	 2.1050
 2.7770	 2.1040
 2.7790	 2.0970
 2.7800	 2.0980
 2.7820	 2.0550
 2.7830	 2.1160
 2.7850	 2.1260
 2.7860	 2.0870
 2.7880	 2.0600
 2.7890	 2.0860
 2.7910	 2.0670
 2.7920	 2.0930
 2.7940	 2.0970
 2.7950	 2.1300
 2.7970	 2.1080
 2.7980	 2.0480
 2.8000	 2.0280
 2.8010	 2.0400
 2.8030	 1.9990
 2.8040	 2.0500
 2.8060	 2.0670
 2.8070	 2.0870
 2.8090	 2.0900
 2.8110	 2.0640
 2.8120	 2.0360
 2.8140	 2.0450
 2.8150	 2.0400
 2.8170	 2.0200
 2.8180	 1.9990
 2.8200	 1.9950
 2.8210	 1.9700
 2.8230	 2.0120
 2.8240	 1.9840
 2.8260	 2.0070
 2.8270	 1.9970
 2.8290	 1.9980
 2.8300	 1.9850
 2.8320	 2.0060
 2.8340	 1.9680
 2.8350	 1.9550
 2.8370	 1.9280
 2.8380	 1.9190
 2.8400	 1.9550
 2.8410	 2.0140
 2.8430	 2.0300
 2.8440	 2.0750
 2.8460	 1.9530
 2.8480	 1.8610
 2.8490	 1.8430
 2.8510	 1.9050
 2.8520	 1.9210
 2.8540	 1.9890
 2.8550	 1.9670
 2.8570	 1.9530
 2.8590	 1.9500
 2.8600	 1.9360
 2.8620	 1.8960
 2.8630	 1.9260
 2.8650	 1.9160
 2.8660	 1.9490
 2.8680	 1.9300
 2.8700	 1.9540
 2.8710	 1.9160
 2.8730	 1.9310
 2.8740	 1.9460
 2.8760	 1.9970
 2.8780	 1.9910
 2.8790	 1.9670
 2.8810	 1.9470
 2.8820	 1.9520
 2.8840	 1.9110
 2.8860	 1.9360
 2.8870	 1.9020
 2.8890	 1.9080
 2.8900	 1.9140
 2.8920	 1.9380
 2.8940	 1.8940
 2.8950	 1.8840
 2.8970	 1.8990
 2.8980	 1.9130
 2.9000	 1.9020
 2.9020	 1.9350
 2.9030	 1.9450
 2.9050	 1.9950
 2.9070	 1.9230
 2.9080	 1.8670
 2.9100	 1.8600
 2.9120	 1.8980
 2.9130	 1.8700
 2.9150	 1.8950
 2.9160	 1.9000
 2.9180	 1.8930
 2.9200	 1.8830
 2.9210	 1.9640
 2.9230	 2.0120
 2.9250	 1.9670
 2.9260	 1.9180
 2.9280	 1.9700
 2.9300	 1.9390
 2.9310	 1.9550
 2.9330	 1.9510
 2.9350	 1.9000
 2.9360	 1.8370
 2.9380	 1.8970
 2.9400	 1.9280
 2.9410	 1.9560
 2.9430	 1.9400
 2.9450	 1.9670
 2.9460	 1.9670
 2.9480	 1.9460
 2.9500	 1.9410
 2.9510	 2.0160
 2.9530	 1.9860
 2.9550	 1.9860
 2.9560	 1.9700
 2.9580	 1.9560
 2.9600	 1.9550
 2.9610	 1.9890
 2.9630	 1.9650
 2.9650	 2.0080
 2.9660	 2.0230
 2.9680	 2.0400
 2.9700	 2.0230
 2.9720	 1.9880
 2.9730	 1.9330
 2.9750	 2.0290
 2.9770	 2.0570
 2.9780	 2.0550
 2.9800	 2.0100
 2.9820	 1.9910
 2.9840	 1.9880
 2.9850	 2.0310
 2.9870	 2.0290
 2.9890	 2.0190
 2.9900	 2.0010
 2.9920	 2.0140
 2.9940	 2.0040
 2.9960	 2.0720
 2.9970	 2.0710
 2.9990	 2.0620
 3.0010	 2.0790
 3.0030	 2.0950
 3.0040	 2.0890
 3.0060	 2.1310
 3.0080	 2.0650
 3.0100	 2.0430
 3.0110	 2.0040
 3.0130	 2.0350
 3.0150	 2.0490
 3.0170	 2.1030
 3.0180	 2.1320
 3.0200	 2.1380
 3.0220	 2.0980
 3.0240	 2.0950
 3.0250	 2.0630
 3.0270	 2.1080
 3.0290	 2.1260
 3.0310	 2.1550
 3.0320	 2.1540
 3.0340	 2.1820
 3.0360	 2.1500
 3.0380	 2.1620
 3.0400	 2.1490
 3.0410	 2.1470
 3.0430	 2.1280
 3.0450	 2.1460
 3.0470	 2.1490
 3.0480	 2.1710
 3.0500	 2.1950
 3.0520	 2.2340
 3.0540	 2.2040
 3.0560	 2.2120
 3.0570	 2.1480
 3.0590	 2.1550
 3.0610	 2.1580
 3.0630	 2.2080
 3.0650	 2.2280
 3.0660	 2.2540
 3.0680	 2.2310
 3.0700	 2.2720
 3.0720	 2.2730
 3.0740	 2.2870
 3.0760	 2.2880
 3.0770	 2.2680
 3.0790	 2.2200
 3.0810	 2.2490
 3.0830	 2.2120
 3.0850	 2.2460
 3.0870	 2.2720
 3.0880	 2.2630
 3.0900	 2.2640
 3.0920	 2.3360
 3.0940	 2.3320
 3.0960	 2.3070
 3.0980	 2.2730
 3.0990	 2.3140
 3.1010	 2.2970
 3.1030	 2.3140
 3.1050	 2.2950
 3.1070	 2.2970
 3.1090	 2.2650
 3.1110	 2.3500
 3.1120	 2.3540
 3.1140	 2.3640
 3.1160	 2.3840
 3.1180	 2.4090
 3.1200	 2.3810
 3.1220	 2.3780
 3.1240	 2.3770
 3.1260	 2.3840
 3.1270	 2.3670
 3.1290	 2.3950
 3.1310	 2.3530
 3.1330	 2.3900
 3.1350	 2.4000
 3.1370	 2.4250
 3.1390	 2.4240
 3.1410	 2.4520
 3.1430	 2.4520
 3.1450	 2.4450
 3.1460	 2.3800
 3.1480	 2.3960
 3.1500	 2.3920
 3.1520	 2.4020
 3.1540	 2.4490
 3.1560	 2.5110
 3.1580	 2.5290
 3.1600	 2.5760
 3.1620	 2.5300
 3.1640	 2.5220
 3.1660	 2.4970
 3.1680	 2.4820
 3.1700	 2.4950
 3.1710	 2.5470
 3.1730	 2.5230
 3.1750	 2.5250
 3.1770	 2.5270
 3.1790	 2.5680
 3.1810	 2.5560
 3.1830	 2.5580
 3.1850	 2.4980
 3.1870	 2.5040
 3.1890	 2.5320
 3.1910	 2.6000
 3.1930	 2.6030
 3.1950	 2.6040
 3.1970	 2.5900
 3.1990	 2.5530
 3.2010	 2.5110
 3.2030	 2.5760
 3.2050	 2.5640
 3.2070	 2.5680
 3.2090	 2.5790
 3.2110	 2.6030
 3.2130	 2.5990
 3.2150	 2.6000
 3.2170	 2.5690
 3.2190	 2.5880
 3.2210	 2.5510
 3.2230	 2.5640
 3.2250	 2.5570
 3.2270	 2.5910
 3.2290	 2.5770
 3.2310	 2.6420
 3.2330	 2.6440
 3.2350	 2.6480
 3.2370	 2.6520
 3.2390	 2.6530
 3.2410	 2.6090
 3.2430	 2.6540
 3.2450	 2.6900
 3.2470	 2.6750
 3.2490	 2.6170
 3.2510	 2.6380
 3.2530	 2.6250
 3.2550	 2.6440
 3.2570	 2.6490
 3.2590	 2.6780
 3.2610	 2.6820
 3.2630	 2.7000
 3.2650	 2.6700
 3.2670	 2.6840
 3.2690	 2.6600
 3.2720	 2.6940
 3.2740	 2.7280
 3.2760	 2.7160
 3.2780	 2.6440
 3.2800	 2.6570
 3.2820	 2.7050
 3.2840	 2.7190
 3.2860	 2.6770
 3.2880	 2.6960
 3.2900	 2.7100
 3.2920	 2.7410
 3.2940	 2.7030
 3.2960	 2.6930
 3.2990	 2.6990
 3.3010	 2.7410
 3.3030	 2.7130
 3.3050	 2.7070
 3.3070	 2.6580
 3.3090	 2.6420
 3.3110	 2.6140
 3.3130	 2.6520
 3.3150	 2.6690
 3.3180	 2.6690
 3.3200	 2.6230
 3.3220	 2.6780
 3.3240	 2.6890
 3.3260	 2.6700
 3.3280	 2.6530
 3.3300	 2.6660
 3.3330	 2.6460
 3.3350	 2.6400
 3.3370	 2.6410
 3.3390	 2.6200
 3.3410	 2.5460
 3.3430	 2.5770
 3.3450	 2.5640
 3.3480	 2.5450
 3.3500	 2.5450
 3.3520	 2.5740
 3.3540	 2.5510
 3.3560	 2.5110
 3.3580	 2.4410
 3.3610	 2.4070
 3.3630	 2.3460
 3.3650	 2.3400
 3.3670	 2.3490
 3.3690	 2.3650
 3.3720	 2.3010
 3.3740	 2.3140
 3.3760	 2.2850
 3.3780	 2.3360
 3.3800	 2.3100
 3.3830	 2.2680
 3.3850	 2.2560
 3.3870	 2.2910
 3.3890	 2.2810
 3.3910	 2.2650
 3.3940	 2.2440
 3.3960	 2.2260
 3.3980	 2.1440
 3.4000	 2.1620
 3.4020	 2.2200
 3.4050	 2.2700
 3.4070	 2.2580
 3.4090	 2.3410
 3.4110	 2.4510
 3.4140	 2.5660
 3.4160	 2.7400
 3.4180	 3.0360
 3.4200	 3.4430
 3.4230	 3.9900
 3.4250	 4.5890
 3.4270	 5.2230
 3.4290	 5.7110
 3.4320	 5.7090
 3.4340	 5.2300
 3.4360	 4.7480
 3.4390	 4.3780
 3.4410	 4.1630
 3.4430	 4.0310
 3.4450	 3.9520
 3.4480	 3.8450
 3.4500	 3.8050
 3.4520	 3.7800
 3.4550	 3.7910
 3.4570	 3.7150
 3.4590	 3.6770
 3.4620	 3.6310
 3.4640	 3.6410
 3.4660	 3.5960
 3.4680	 3.5550
 3.4710	 3.5340
 3.4730	 3.5370
 3.4750	 3.4620
 3.4780	 3.4000
 3.4800	 3.2830
 3.4820	 3.2220
 3.4850	 3.1670
 3.4870	 3.1300
 3.4890	 3.0500
 3.4920	 2.9960
 3.4940	 2.9440
 3.4970	 2.9220
 3.4990	 2.9760
 3.5010	 3.1630
 3.5040	 3.3570
 3.5060	 3.8580
 3.5080	 4.7510
 3.5110	 5.6090
 3.5130	 5.6880
 3.5160	 5.2420
 3.5180	 4.7970
 3.5200	 4.5650
 3.5230	 4.4110
 3.5250	 4.2970
 3.5270	 4.1940
 3.5300	 4.1050
 3.5320	 4.0220
 3.5350	 3.9750
 3.5370	 3.9380
 3.5400	 3.8950
 3.5420	 3.7890
 3.5440	 3.8110
 3.5470	 3.8180
 3.5490	 3.8580
 3.5520	 3.8570
 3.5540	 3.8380
 3.5570	 3.7940
 3.5590	 3.7880
 3.5610	 3.7600
 3.5640	 3.7860
 3.5660	 3.7710
 3.5690	 3.7780
 3.5710	 3.7740
 3.5740	 3.8100
 3.5760	 3.7770
 3.5790	 3.7560
 3.5810	 3.6910
 3.5840	 3.6480
 3.5860	 3.6700
 3.5890	 3.7440
 3.5910	 3.7320
 3.5930	 3.7030
 3.5960	 3.6480
 3.5980	 3.6580
 3.6010	 3.6570
 3.6030	 3.6810
 3.6060	 3.6990
 3.6080	 3.7220
 3.6110	 3.7100
 3.6140	 3.7020
 3.6160	 3.6980
 3.6190	 3.7230
 3.6210	 3.6680
 3.6240	 3.6570
 3.6260	 3.6380
 3.6290	 3.6760
 3.6310	 3.6720
 3.6340	 3.6650
 3.6360	 3.6450
 3.6390	 3.6610
 3.6410	 3.6350
 3.6440	 3.6360
 3.6470	 3.6280
 3.6490	 3.6680
 3.6520	 3.6900
 3.6540	 3.7070
 3.6570	 3.6610
 3.6590	 3.6760
 3.6620	 3.6760
 3.6650	 3.6970
 3.6670	 3.6860
 3.6700	 3.7060
 3.6720	 3.6580
 3.6750	 3.6360
 3.6780	 3.6410
 3.6800	 3.6680
 3.6830	 3.6740
 3.6850	 3.6890
 3.6880	 3.6650
 3.6910	 3.6690
 3.6930	 3.6740
 3.6960	 3.7110
 3.6990	 3.7110
 3.7010	 3.6920
 3.7040	 3.6860
 3.7060	 3.7280
 3.7090	 3.7120
 3.7120	 3.7210
 3.7140	 3.7020
 3.7170	 3.6950
 3.7200	 3.6890
 3.7220	 3.6720
 3.7250	 3.6280
 3.7280	 3.6530
 3.7300	 3.6710
 3.7330	 3.7030
 3.7360	 3.7000
 3.7390	 3.7390
 3.7410	 3.7290
 3.7440	 3.7690
 3.7470	 3.8170
 3.7490	 3.8090
 3.7520	 3.7450
 3.7550	 3.7640
 3.7580	 3.7410
 3.7600	 3.7010
 3.7630	 3.7020
 3.7660	 3.7790
 3.7680	 3.8240
 3.7710	 3.8560
 3.7740	 3.8200
 3.7770	 3.7990
 3.7790	 3.7800
 3.7820	 3.7650
 3.7850	 3.7580
 3.7880	 3.7800
 3.7900	 3.7780
 3.7930	 3.8070
 3.7960	 3.7820
 3.7990	 3.8030
 3.8020	 3.8050
 3.8040	 3.8280
 3.8070	 3.8250
 3.8100	 3.8610
 3.8130	 3.8850
 3.8160	 3.8510
 3.8180	 3.8070
 3.8210	 3.8630
 3.8240	 3.8750
 3.8270	 3.8720
 3.8300	 3.8410
 3.8330	 3.8440
 3.8350	 3.8410
 3.8380	 3.8220
 3.8410	 3.7870
 3.8440	 3.8380
 3.8470	 3.8890
 3.8500	 3.8970
 3.8520	 3.8460
 3.8550	 3.8420
 3.8580	 3.8570
 3.8610	 3.8880
 3.8640	 3.8850
 3.8670	 3.8770
 3.8700	 3.8430
 3.8730	 3.8830
 3.8750	 3.9190
 3.8780	 3.9160
 3.8810	 3.8760
 3.8840	 3.9020
 3.8870	 3.9040
 3.8900	 3.8850
 3.8930	 3.8500
 3.8960	 3.8870
 3.8990	 3.9290
 3.9020	 3.9430
 3.9050	 3.9230
 3.9080	 3.9120
 3.9110	 3.8970
 3.9140	 3.9350
 3.9160	 3.9350
 3.9190	 3.9000
 3.9220	 3.9160
 3.9250	 3.9290
 3.9280	 3.8780
 3.9310	 3.9100
 3.9340	 3.9220
 3.9370	 3.8810
 3.9400	 3.8770
 3.9430	 3.9350
 3.9460	 3.9090
 3.9490	 3.8950
 3.9520	 3.8990
 3.9550	 3.9430
 3.9580	 3.9340
 3.9610	 3.9360
 3.9640	 3.9540
 3.9670	 3.9540
 3.9700	 3.9280
 3.9730	 3.9350
 3.9770	 3.9430
 3.9800	 3.9820
 3.9830	 3.9430
 3.9860	 3.9360
 3.9890	 3.9620
 3.9920	 3.9720
 3.9950	 3.9150
 3.9980	 3.8910
 4.0010	 3.8710
 4.0040	 3.8830
 4.0070	 3.8980
 4.0100	 3.8940
 4.0130	 3.8690
 4.0170	 3.9040
 4.0200	 3.9390
 4.0230	 3.9950
 4.0260	 3.9750
 4.0290	 3.9820
 4.0320	 3.9880
 4.0350	 3.9890
 4.0380	 3.9800
 4.0420	 3.9570
 4.0450	 3.8800
 4.0480	 3.9160
 4.0510	 3.9270
 4.0540	 3.9170
 4.0570	 3.9240
 4.0610	 3.9700
 4.0640	 3.9630
 4.0670	 3.9010
 4.0700	 3.8770
 4.0730	 3.9490
 4.0770	 3.9360
 4.0800	 3.9180
 4.0830	 3.9570
 4.0860	 3.9670
 4.0890	 3.9040
 4.0930	 3.8740
 4.0960	 3.8540
 4.0990	 3.8590
 4.1020	 3.8850
 4.1060	 3.9450
 4.1090	 3.9640
 4.1120	 3.9590
 4.1150	 3.9030
 4.1190	 3.9020
 4.1220	 3.9340
 4.1250	 3.9300
 4.1280	 3.9110
 4.1320	 3.9210
 4.1350	 3.9290
 4.1380	 3.9480
 4.1420	 3.9110
 4.1450	 3.9130
 4.1480	 3.9410
 4.1520	 3.9560
 4.1550	 3.9100
 4.1580	 3.8540
 4.1620	 3.8340
 4.1650	 3.8660
 4.1680	 3.8700
 4.1720	 3.8780
 4.1750	 3.8640
 4.1780	 3.8530
 4.1820	 3.8320
 4.1850	 3.8490
 4.1890	 3.8440
 4.1920	 3.8380
 4.1950	 3.7940
 4.1990	 3.6770
 4.2020	 3.4960
 4.2060	 3.2620
 4.2090	 2.9880
 4.2120	 2.7590
 4.2160	 2.5510
 4.2190	 2.3450
 4.2230	 2.1460
 4.2260	 2.0080
 4.2300	 1.9570
 4.2330	 1.9050
 4.2360	 1.8330
 4.2400	 1.8650
 4.2430	 1.9850
 4.2470	 2.1580
 4.2500	 2.4130
 4.2540	 2.7740
 4.2570	 2.9580
 4.2610	 2.7530
 4.2640	 2.4810
 4.2680	 2.3210
 4.2710	 2.2540
 4.2750	 2.2700
 4.2780	 2.2700
 4.2820	 2.3270
 4.2850	 2.3690
 4.2890	 2.3310
 4.2930	 2.3520
 4.2960	 2.4470
 4.3000	 2.5080
 4.3030	 2.5470
 4.3070	 2.6530
 4.3100	 2.7500
 4.3140	 2.8010
 4.3180	 2.8770
 4.3210	 2.9970
 4.3250	 3.1670
 4.3280	 3.2600
 4.3320	 3.2980
 4.3360	 3.3270
 4.3390	 3.3780
 4.3430	 3.4290
 4.3470	 3.4850
 4.3500	 3.5360
 4.3540	 3.5880
 4.3570	 3.6010
 4.3610	 3.5990
 4.3650	 3.6400
 4.3680	 3.6780
 4.3720	 3.6700
 4.3760	 3.6960
 4.3800	 3.7100
 4.3830	 3.6730
 4.3870	 3.6440
 4.3910	 3.6610
 4.3940	 3.6520
 4.3980	 3.6810
 4.4020	 3.6510
 4.4060	 3.6260
 4.4090	 3.6450
 4.4130	 3.6540
 4.4170	 3.6050
 4.4210	 3.6000
 4.4240	 3.6350
 4.4280	 3.6470
 4.4320	 3.6290
 4.4360	 3.6460
 4.4400	 3.6060
 4.4430	 3.6030
 4.4470	 3.6780
 4.4510	 3.6600
 4.4550	 3.6300
 4.4590	 3.6720
 4.4620	 3.6730
 4.4660	 3.6470
 4.4700	 3.6300
 4.4740	 3.6040
 4.4780	 3.5810
 4.4820	 3.6090
 4.4860	 3.6110
 4.4900	 3.6560
 4.4930	 3.7010
 4.4970	 3.6990
 4.5010	 3.6750
 4.5050	 3.6660
 4.5090	 3.6650
 4.5130	 3.6680
 4.5170	 3.6320
 4.5210	 3.5860
 4.5250	 3.6050
 4.5290	 3.6490
 4.5330	 3.6570
 4.5370	 3.6080
 4.5410	 3.5790
 4.5450	 3.5800
 4.5490	 3.6370
 4.5530	 3.6720
 4.5570	 3.6840
 4.5610	 3.6660
 4.5650	 3.6480
 4.5690	 3.6750
 4.5730	 3.6620
 4.5770	 3.6440
 4.5810	 3.6520
 4.5850	 3.6140
 4.5890	 3.5750
 4.5930	 3.5770
 4.5970	 3.6150
 4.6010	 3.6540
 4.6050	 3.6650
 4.6090	 3.6840
 4.6130	 3.6760
 4.6170	 3.6610
 4.6220	 3.6180
 4.6260	 3.5680
 4.6300	 3.5820
 4.6340	 3.6000
 4.6380	 3.5970
 4.6420	 3.6230
 4.6460	 3.6960
 4.6510	 3.7130
 4.6550	 3.6690
 4.6590	 3.6580
 4.6630	 3.6430
 4.6670	 3.6510
 4.6720	 3.6760
 4.6760	 3.6580
 4.6800	 3.6270
 4.6840	 3.5940
 4.6880	 3.6230
 4.6930	 3.6420
 4.6970	 3.6060
 4.7010	 3.5920
 4.7050	 3.6280
 4.7100	 3.6590
 4.7140	 3.6330
 4.7180	 3.6540
 4.7230	 3.6260
 4.7270	 3.5830
 4.7310	 3.5890
 4.7360	 3.6020
 4.7400	 3.6060
 4.7440	 3.6080
 4.7490	 3.6190
 4.7530	 3.6100
 4.7570	 3.6420
 4.7620	 3.6360
 4.7660	 3.5780
 4.7700	 3.5680
 4.7750	 3.5920
 4.7790	 3.5910
 4.7840	 3.5540
 4.7880	 3.5740
 4.7920	 3.5830
 4.7970	 3.5620
 4.8010	 3.5760
 4.8060	 3.6190
 4.8100	 3.6330
 4.8150	 3.6320
 4.8190	 3.6110
 4.8240	 3.5940
 4.8280	 3.5780
 4.8330	 3.5660
 4.8370	 3.5560
 4.8420	 3.5370
 4.8460	 3.5750
 4.8510	 3.5830
 4.8550	 3.5410
 4.8600	 3.5100
 4.8640	 3.5380
 4.8690	 3.5670
 4.8730	 3.5680
 4.8780	 3.5390
 4.8830	 3.5070
 4.8870	 3.5230
 4.8920	 3.5250
 4.8960	 3.5280
 4.9010	 3.5210
 4.9060	 3.4420
 4.9100	 3.4550
 4.9150	 3.5410
 4.9200	 3.5760
 4.9240	 3.5030
 4.9290	 3.4880
 4.9340	 3.4950
 4.9380	 3.5110
 4.9430	 3.5250
 4.9480	 3.5450
 4.9530	 3.5370
 4.9570	 3.5870
 4.9620	 3.5670
 4.9670	 3.5570
 4.9720	 3.5470
 4.9760	 3.5720
 4.9810	 3.5570
 4.9860	 3.5210
 4.9910	 3.5200
 4.9960	 3.4830
 5.0000	 3.4740
 5.0050	 3.5300
 5.0100	 3.5130
 5.0150	 3.5130
 5.0200	 3.5410
 5.0250	 3.5810
 5.0290	 3.5520
 5.0340	 3.4940
 5.0390	 3.4710
 5.0440	 3.5010
 5.0490	 3.5170
 5.0540	 3.5180
 5.0590	 3.4990
 5.0640	 3.5180
 5.0690	 3.4980
 5.0740	 3.4900
 5.0790	 3.5250
 5.0840	 3.5120
 5.0890	 3.4960
 5.0940	 3.5180
 5.0990	 3.4830
 5.1040	 3.4700
 5.1090	 3.5010
 5.1140	 3.5220
 5.1190	 3.5000
 5.1240	 3.5250
 5.1290	 3.5070
 5.1340	 3.4910
 5.1390	 3.5260
 5.1440	 3.5610
 5.1490	 3.5280
 5.1540	 3.5360
 5.1600	 3.5190
 5.1650	 3.4800
 5.1700	 3.4410
 5.1750	 3.5180
 5.1800	 3.5950
 5.1850	 3.6330
 5.1910	 3.5950
 5.1960	 3.5810
 5.2010	 3.5600
 5.2060	 3.5280
 5.2110	 3.5440
 5.2170	 3.5590
 5.2220	 3.4700
 5.2270	 3.4530
 5.2320	 3.4320
 5.2380	 3.4640
 5.2430	 3.4730
 5.2480	 3.4780
 5.2540	 3.4490
 5.2590	 3.5090
 5.2640	 3.5020
 5.2700	 3.4840
 5.2750	 3.4830
 5.2800	 3.5410
 5.2860	 3.5160
 5.2910	 3.5010
 5.2970	 3.5160
 5.3020	 3.5200
 5.3070	 3.4800
 5.3130	 3.4890
 5.3180	 3.5130
 5.3240	 3.5450
 5.3290	 3.5620
 5.3350	 3.5780
 5.3400	 3.5340
 5.3460	 3.4920
 5.3510	 3.4550
 5.3570	 3.4900
 5.3620	 3.5190
 5.3680	 3.5030
 5.3730	 3.4780
 5.3790	 3.4780
 5.3850	 3.4690
 5.3900	 3.5230
 5.3960	 3.5400
 5.4010	 3.5240
 5.4070	 3.5000
 5.4130	 3.5180
 5.4180	 3.5150
 5.4240	 3.5190
 5.4300	 3.4550
 5.4350	 3.4670
 5.4410	 3.4760
 5.4470	 3.4530
 5.4530	 3.4450
 5.4580	 3.4820
 5.4640	 3.4790
 5.4700	 3.4760
 5.4760	 3.4670
 5.4810	 3.4650
 5.4870	 3.4570
 5.4930	 3.4770
 5.4990	 3.4180
 5.5050	 3.4310
 5.5110	 3.4460
 5.5160	 3.4510
 5.5220	 3.4110
 5.5280	 3.3880
 5.5340	 3.3640
 5.5400	 3.3700
 5.5460	 3.3720
 5.5520	 3.3580
 5.5580	 3.3140
 5.5640	 3.3290
 5.5700	 3.2890
 5.5760	 3.3200
 5.5820	 3.3100
 5.5880	 3.2950
 5.5940	 3.2700
 5.6000	 3.2730
 5.6060	 3.2200
 5.6120	 3.2100
 5.6180	 3.1950
 5.6240	 3.1980
 5.6300	 3.1420
 5.6360	 3.1450
 5.6420	 3.1130
 5.6490	 3.1200
 5.6550	 3.1060
 5.6610	 3.0770
 5.6670	 3.0150
 5.6730	 2.9270
 5.6800	 2.9010
 5.6860	 2.9180
 5.6920	 2.8100
 5.6980	 2.7840
 5.7040	 2.7190
 5.7110	 2.6490
 5.7170	 2.6040
 5.7230	 2.4970
 5.7300	 2.3650
 5.7360	 2.3350
 5.7420	 2.3010
 5.7490	 2.3050
 5.7550	 2.3560
 5.7620	 2.5380
 5.7680	 2.6750
 5.7740	 2.8400
 5.7810	 2.9930
 5.7870	 3.1280
 5.7940	 3.1570
 5.8000	 3.2220
 5.8070	 3.2810
 5.8130	 3.3370
 5.8200	 3.3240
 5.8260	 3.3670
 5.8330	 3.4050
 5.8390	 3.4570
 5.8460	 3.4430
 5.8530	 3.4600
 5.8590	 3.4730
 5.8660	 3.5130
 5.8720	 3.5390
 5.8790	 3.5120
 5.8860	 3.4860
 5.8920	 3.5370
 5.8990	 3.5250
 5.9060	 3.5070
 5.9130	 3.4590
 5.9190	 3.4520
 5.9260	 3.4520
 5.9330	 3.4610
 5.9400	 3.4020
 5.9470	 3.3940
 5.9530	 3.3440
 5.9600	 3.3430
 5.9670	 3.3510
 5.9740	 3.3970
 5.9810	 3.2800
 5.9880	 3.2150
 5.9950	 3.2000
 6.0020	 3.2240
 6.0090	 3.2270
 6.0160	 3.2320
 6.0230	 3.1710
 6.0300	 3.1790
 6.0370	 3.1390
 6.0440	 3.1140
 6.0510	 3.0610
 6.0580	 3.1030
 6.0650	 3.0990
 6.0720	 3.1120
 6.0790	 3.1060
 6.0860	 3.1180
 6.0930	 3.0180
 6.1000	 3.0060
 6.1080	 2.9800
 6.1150	 2.9970
 6.1220	 3.0060
 6.1290	 3.0180
 6.1370	 2.9890
 6.1440	 3.0010
 6.1510	 3.0030
 6.1580	 3.0160
 6.1660	 3.0070
 6.1730	 3.0300
 6.1800	 2.9470
 6.1880	 2.9560
 6.1950	 2.9490
 6.2030	 2.9600
 6.2100	 2.9600
 6.2170	 2.9570
 6.2250	 2.8970
 6.2320	 2.9360
 6.2400	 2.9400
 6.2470	 2.9540
 6.2550	 2.9550
 6.2630	 3.0230
 6.2700	 3.0160
 6.2780	 3.0150
 6.2850	 2.9520
 6.2930	 2.9870
 6.3010	 2.9720
 6.3080	 2.9800
 6.3160	 2.9820
 6.3240	 3.0330
 6.3310	 3.0280
 6.3390	 3.0670
 6.3470	 3.0560
 6.3550	 3.0930
 6.3620	 3.0920
 6.3700	 3.1220
 6.3780	 3.0920
 6.3860	 3.1220
 6.3940	 3.1030
 6.4020	 3.1440
 6.4100	 3.0760
 6.4180	 3.0630
 6.4260	 3.0730
 6.4330	 3.1260
 6.4410	 3.1510
 6.4490	 3.1660
 6.4580	 3.1290
 6.4660	 3.1780
 6.4740	 3.1350
 6.4820	 3.1190
 6.4900	 3.0690
 6.4980	 3.0820
 6.5060	 3.0770
 6.5140	 3.1430
 6.5230	 3.1480
 6.5310	 3.1460
 6.5390	 3.0800
 6.5470	 3.1080
 6.5550	 3.0940
 6.5640	 3.0990
 6.5720	 3.0600
 6.5800	 3.0410
 6.5890	 2.9890
 6.5970	 3.0380
 6.6060	 3.0320
 6.6140	 3.0650
 6.6220	 3.0680
 6.6310	 3.0940
 6.6390	 3.0570
 6.6480	 3.1010
 6.6560	 3.1220
 6.6650	 3.1340
 6.6740	 3.0830
 6.6820	 3.1060
 6.6910	 3.0350
 6.6990	 3.0340
 6.7080	 2.9800
 6.7170	 3.0060
 6.7260	 2.9880
 6.7340	 3.0020
 6.7430	 2.9220
 6.7520	 2.8930
 6.7610	 2.8420
 6.7690	 2.8080
 6.7780	 2.8400
 6.7870	 3.0130
 6.7960	 2.9430
 6.8050	 2.8250
 6.8140	 2.7620
 6.8230	 2.8810
 6.8320	 3.0180
 6.8410	 3.1380
 6.8500	 3.0190
 6.8590	 2.9190
 6.8680	 2.8690
 6.8770	 2.9390
 6.8860	 2.9430
 6.8950	 2.9990
 6.9050	 3.0030
 6.9140	 3.0440
 6.9230	 2.9720
 6.9320	 2.9520
 6.9420	 2.9310
 6.9510	 2.9690
 6.9600	 2.9220
 6.9700	 2.9140
 6.9790	 2.9020
 6.9880	 3.0020
 6.9980	 2.9280
 7.0070	 2.8980
 7.0170	 2.8360
 7.0260	 2.8640
 7.0360	 2.8330
 7.0450	 2.8420
 7.0550	 2.8210
 7.0650	 2.8440
 7.0740	 2.7940
 7.0840	 2.8500
 7.0940	 2.8620
 7.1030	 2.8790
 7.1130	 2.8200
 7.1230	 2.8140
 7.1330	 2.7590
 7.1420	 2.7440
 7.1520	 2.7260
 7.1620	 2.7480
 7.1720	 2.7390
 7.1820	 2.8020
 7.1920	 2.7530
 7.2020	 2.7740
 7.2120	 2.7620
 7.2220	 2.7980
 7.2320	 2.7390
 7.2420	 2.7790
 7.2520	 2.7490
 7.2620	 2.7850
 7.2730	 2.6870
 7.2830	 2.6880
 7.2930	 2.6710
 7.3030	 2.6850
 7.3140	 2.6600
 7.3240	 2.7100
 7.3340	 2.6730
 7.3450	 2.7490
 7.3550	 2.7580
 7.3660	 2.7590
 7.3760	 2.7400
 7.3870	 2.7990
 7.3970	 2.7420
 7.4080	 2.8060
 7.4180	 2.7750
 7.4290	 2.8070
 7.4400	 2.7800
 7.4500	 2.7760
 7.4610	 2.7530
 7.4720	 2.8080
 7.4830	 2.7150
 7.4930	 2.7270
 7.5040	 2.6580
 7.5150	 2.6800
 7.5260	 2.6790
 7.5370	 2.7150
 7.5480	 2.7310
 7.5590	 2.7850
 7.5700	 2.6950
 7.5810	 2.6820
 7.5920	 2.6050
 7.6030	 2.6300
 7.6140	 2.6240
 7.6260	 2.6560
 7.6370	 2.6050
 7.6480	 2.7040
 7.6590	 2.6480
 7.6710	 2.6590
 7.6820	 2.6470
 7.6930	 2.6850
 7.7050	 2.6310
 7.7160	 2.6960
 7.7280	 2.6360
 7.7390	 2.6140
 7.7510	 2.5460
 7.7630	 2.5470
 7.7740	 2.4720
 7.7860	 2.4920
 7.7980	 2.4780
 7.8090	 2.5360
 7.8210	 2.5070
 7.8330	 2.5540
 7.8450	 2.5140
 7.8570	 2.5500
 7.8690	 2.4840
 7.8810	 2.4430
 7.8930	 2.3120
 7.9050	 2.3310
 7.9170	 2.2930
 7.9290	 2.3350
 7.9410	 2.2720
 7.9530	 2.3320
 7.9650	 2.3230
 7.9780	 2.3300
 7.9900	 2.2570
 8.0020	 2.3140
 8.0150	 2.2290
 8.0270	 2.1990
 8.0390	 2.1280
 8.0520	 2.1710
 8.0640	 2.0970
 8.0770	 2.1010
 8.0900	 2.0300
 8.1020	 2.0690
 8.1150	 1.9780
 8.1280	 1.9670
 8.1400	 1.9320
 8.1530	 1.9950
 8.1660	 1.9660
 8.1790	 1.9820
 8.1920	 1.8660
 8.2050	 1.8820
 8.2180	 1.8740
 8.2310	 1.9200
 8.2440	 1.9190
 8.2570	 1.9770
 8.2700	 1.9350
 8.2830	 1.9920
 8.2970	 1.9810
 8.3100	 1.9920
 8.3230	 1.9080
 8.3370	 1.9550
 8.3500	 1.9170
 8.3640	 1.9780
 8.3770	 1.9340
 8.3910	 1.9630
 8.4040	 1.9450
 8.4180	 2.0010
 8.4320	 1.9610
 8.4450	 2.0090
 8.4590	 1.9180
 8.4730	 1.9520
 8.4870	 2.0220
 8.5010	 2.1800
 8.5150	 2.1470
 8.5290	 2.1950
 8.5430	 2.1890
 8.5570	 2.2450
 8.5710	 2.1770
 8.5850	 2.2040
 8.5990	 2.2370
 8.6140	 2.3810
 8.6280	 2.3650
 8.6420	 2.3660
 8.6570	 2.2890
 8.6710	 2.3580
 8.6860	 2.3190
 8.7000	 2.3510
 8.7150	 2.2960
 8.7300	 2.3710
 8.7440	 2.2950
 8.7590	 2.3090
 8.7740	 2.2530
 8.7890	 2.2770
 8.8040	 2.2150
 8.8190	 2.2670
 8.8340	 2.1470
 8.8490	 2.1830
 8.8640	 2.1560
 8.8790	 2.1590
 8.8940	 2.0680
 8.9100	 2.0930
 8.9250	 1.9850
 8.9400	 1.9830
 8.9560	 1.9450
 8.9710	 2.0110
 8.9870	 1.9590
 9.0020	 2.0230
 9.0180	 1.9490
 9.0340	 2.0130
 9.0500	 1.9720
 9.0650	 2.0130
 9.0810	 1.9850
 9.0970	 2.0410
 9.1130	 2.0290
 9.1290	 2.1270
 9.1450	 2.0580
 9.1610	 2.0760
 9.1780	 2.0430
 9.1940	 2.0650
 9.2100	 1.9770
 9.2270	 2.0610
 9.2430	 1.9860
 9.2600	 1.9850
 9.2760	 1.9460
 9.2930	 1.9610
 9.3090	 1.8630
 9.3260	 1.9430
 9.3430	 1.9100
 9.3600	 1.9620
 9.3770	 1.9190
 9.3940	 1.9470
 9.4110	 1.8710
 9.4280	 1.9340
 9.4450	 1.8480
 9.4620	 1.9210
 9.4800	 1.8690
 9.4970	 1.8660
 9.5140	 1.8230
 9.5320	 1.9130
 9.5500	 1.8580
 9.5670	 1.9620
 9.5850	 1.9410
 9.6030	 2.0230
 9.6200	 1.9640
 9.6380	 1.9620
 9.6560	 1.9460
 9.6740	 2.0570
 9.6920	 1.9700
 9.7100	 1.9760
 9.7290	 1.9150
 9.7470	 1.9510
 9.7650	 1.8540
 9.7840	 1.9160
 9.8020	 1.8580
 9.8210	 1.9190
 9.8390	 1.9190
 9.8580	 2.0100
 9.8770	 1.9470
 9.8960	 2.0290
 9.9150	 2.0200
 9.9340	 2.1160
 9.9530	 2.0890
 9.9720	 2.1250
 9.9910	 2.0740
10.0100	 2.0820
10.0300	 2.0640
10.0490	 2.1940
10.0690	 2.1390
10.0880	 2.1980
10.1080	 2.0920
10.1280	 2.1800
10.1480	 2.1950
10.1670	 2.2680
10.1870	 2.2350
10.2070	 2.3250
10.2280	 2.2900
10.2480	 2.3390
10.2680	 2.2650
10.2890	 2.2800
10.3090	 2.2630
10.3300	 2.3600
10.3500	 2.2690
10.3710	 2.3250
10.3920	 2.2890
10.4120	 2.3660
10.4330	 2.2770
10.4540	 2.3380
10.4760	 2.3130
10.4970	 2.3640
10.5180	 2.2910
10.5390	 2.3340
10.5610	 2.2640
10.5820	 2.3600
10.6040	 2.2960
10.6260	 2.3720
10.6480	 2.3070
10.6700	 2.3420
10.6920	 2.3000
10.7140	 2.3440
10.7360	 2.2930
10.7580	 2.3130
10.7800	 2.2310
10.8030	 2.2990
10.8250	 2.2290
10.8480	 2.2850
10.8710	 2.1970
10.8940	 2.2140
10.9170	 2.1970
10.9400	 2.3360
10.9630	 2.2690
10.9860	 2.2670
11.0090	 2.1950
11.0330	 2.2780
11.0560	 2.1900
11.0800	 2.2390
11.1040	 2.1710
11.1270	 2.1910
11.1510	 2.0980
11.1750	 2.1990
11.2000	 2.1670
11.2240	 2.2290
11.2480	 2.2070
11.2730	 2.3150
11.2970	 2.2360
11.3220	 2.2910
11.3470	 2.1930
11.3720	 2.2840
11.3970	 2.1970
11.4220	 2.2140
11.4470	 2.1620
11.4720	 2.2580
11.4980	 2.2000
11.5230	 2.2230
11.5490	 2.1470
11.5750	 2.2570
11.6000	 2.1870
11.6260	 2.2290
11.6530	 2.1550
11.6790	 2.2220
11.7050	 2.1760
11.7320	 2.2750
11.7580	 2.2080
11.7850	 2.2700
11.8120	 2.2080
11.8390	 2.2630
11.8660	 2.1710
11.8930	 2.2200
11.9200	 2.0890
11.9480	 2.1270
11.9760	 2.0790
12.0030	 2.1680
12.0310	 2.0560
12.0590	 2.1130
12.0870	 2.0690
12.1150	 2.1250
12.1440	 2.0520
12.1720	 2.1190
12.2010	 2.0480
12.2300	 2.1180
12.2590	 2.0430
12.2880	 2.1270
12.3170	 2.0490
12.3460	 2.0690
12.3760	 1.9920
12.4050	 2.0690
12.4350	 2.0080
12.4650	 2.1270
12.4950	 2.0290
12.5250	 2.0760
12.5550	 1.9760
12.5860	 2.0620
12.6170	 1.9780
12.6470	 2.0490
12.6780	 2.0000
12.7090	 2.0810
12.7410	 2.0490
12.7720	 2.0820
12.8030	 1.9520
12.8350	 2.0500
12.8670	 1.9350
12.8990	 1.9940
12.9310	 1.8930
12.9640	 1.9960
12.9960	 1.9800
13.0290	 2.0200
13.0610	 1.9040
13.0940	 1.9460
13.1280	 1.7780
13.1610	 1.8540
13.1940	 1.8800
13.2280	 2.0640
13.2620	 1.8710
13.2960	 1.8230
13.3300	 1.6770
13.3640	 1.7080
13.3990	 1.6220
13.4340	 1.6750
13.4690	 1.5530
13.5040	 1.6490
13.5390	 1.6200
13.5740	 1.7280
13.6100	 1.5890
13.6460	 1.6570
13.6820	 1.5500
13.7180	 1.6280
13.7540	 1.5610
13.7910	 1.5960
13.8280	 1.4980
13.8650	 1.6100
13.9020	 1.5780
13.9390	 1.6600
13.9770	 1.5430
14.0150	 1.5540
14.0530	 1.4620
14.0910	 1.5690
14.1290	 1.4340
14.1680	 1.5020
14.2070	 1.4280
14.2460	 1.4250
14.2850	 1.2200
14.3240	 1.2550
14.3640	 1.1630
14.4040	 1.2210
14.4440	 1.1080
14.4840	 1.2170
14.5250	 1.1080
14.5660	 1.1980
14.6070	 1.1200
14.6480	 1.1780
14.6900	 0.9940
14.7310	 1.1090
14.7730	 1.0180
14.8150	 1.0340
14.8580	 0.9800
14.9010	 1.0430
14.9440	 0.7440
14.9870	 0.7450
15.0300	 0.7710
15.0740	 0.8720
15.1180	 0.7930
15.1620	 0.8600
15.2060	 0.7450
15.2510	 0.8340
15.2960	 0.7030
15.3410	 0.7080
15.3870	 0.6190
