Name: Jacaranda mimosifolia
Type: vegetation
Class: Tree
Genus: Jacaranda
Species: mimosifolia
Sample No.: JPL168
Owner: JPL
Wavelength Range: VSWIR
Origin: 34.12571; -118.11267; WGS84
Collection Date: 9/14/2016
Description: Samples were collected at the Huntington Garden in San Marino California as part of a JPL Subcontract studying HyTES imagery. Samples were taken to JPL and processed within 48 hours of collection. The same leaves were processed in the Nicolet and then measured using the ASD.
Measurement: Bidirectional reflectance
First Column: X
Second Column: Y
X Units: Wavelength (micrometer)
Y Units: Reflectance (percentage)
First X Value: 0.35
Last X Value: 2.5
Number of X Values: 2151
Additional Information: vegetation.tree.jacaranda.mimosifolia.vswir.jpl168.jpl.asd.ancillary.txt

 0.3500	 3.1120
 0.3510	 3.0460
 0.3520	 3.1410
 0.3530	 3.1720
 0.3540	 3.0030
 0.3550	 2.9940
 0.3560	 2.9520
 0.3570	 2.8860
 0.3580	 2.9030
 0.3590	 2.9700
 0.3600	 3.0260
 0.3610	 2.9980
 0.3620	 2.7860
 0.3630	 2.7960
 0.3640	 2.8930
 0.3650	 2.8700
 0.3660	 2.8130
 0.3670	 2.8310
 0.3680	 2.8950
 0.3690	 2.8920
 0.3700	 2.9220
 0.3710	 2.8880
 0.3720	 2.7850
 0.3730	 2.8190
 0.3740	 2.8890
 0.3750	 2.9160
 0.3760	 2.8610
 0.3770	 2.8540
 0.3780	 2.8570
 0.3790	 2.8480
 0.3800	 2.8290
 0.3810	 2.8160
 0.3820	 2.8060
 0.3830	 2.8010
 0.3840	 2.8160
 0.3850	 2.8370
 0.3860	 2.8450
 0.3870	 2.8270
 0.3880	 2.8130
 0.3890	 2.7690
 0.3900	 2.7250
 0.3910	 2.7710
 0.3920	 2.7780
 0.3930	 2.7800
 0.3940	 2.8080
 0.3950	 2.7790
 0.3960	 2.7550
 0.3970	 2.7500
 0.3980	 2.7580
 0.3990	 2.7750
 0.4000	 2.7850
 0.4010	 2.7820
 0.4020	 2.7750
 0.4030	 2.7530
 0.4040	 2.7460
 0.4050	 2.7690
 0.4060	 2.7650
 0.4070	 2.7610
 0.4080	 2.7620
 0.4090	 2.7590
 0.4100	 2.7520
 0.4110	 2.7450
 0.4120	 2.7430
 0.4130	 2.7600
 0.4140	 2.7720
 0.4150	 2.7820
 0.4160	 2.7970
 0.4170	 2.8170
 0.4180	 2.8250
 0.4190	 2.8240
 0.4200	 2.8360
 0.4210	 2.8520
 0.4220	 2.8620
 0.4230	 2.8630
 0.4240	 2.8720
 0.4250	 2.8810
 0.4260	 2.8960
 0.4270	 2.9240
 0.4280	 2.9340
 0.4290	 2.9460
 0.4300	 2.9650
 0.4310	 2.9670
 0.4320	 2.9790
 0.4330	 2.9950
 0.4340	 3.0080
 0.4350	 3.0260
 0.4360	 3.0350
 0.4370	 3.0390
 0.4380	 3.0530
 0.4390	 3.0640
 0.4400	 3.0770
 0.4410	 3.0940
 0.4420	 3.0920
 0.4430	 3.0980
 0.4440	 3.1100
 0.4450	 3.1200
 0.4460	 3.1360
 0.4470	 3.1490
 0.4480	 3.1560
 0.4490	 3.1640
 0.4500	 3.1710
 0.4510	 3.1780
 0.4520	 3.1880
 0.4530	 3.1970
 0.4540	 3.2050
 0.4550	 3.2130
 0.4560	 3.2230
 0.4570	 3.2340
 0.4580	 3.2410
 0.4590	 3.2400
 0.4600	 3.2380
 0.4610	 3.2400
 0.4620	 3.2470
 0.4630	 3.2530
 0.4640	 3.2530
 0.4650	 3.2560
 0.4660	 3.2600
 0.4670	 3.2560
 0.4680	 3.2610
 0.4690	 3.2690
 0.4700	 3.2720
 0.4710	 3.2730
 0.4720	 3.2750
 0.4730	 3.2800
 0.4740	 3.2850
 0.4750	 3.2820
 0.4760	 3.2780
 0.4770	 3.2790
 0.4780	 3.2840
 0.4790	 3.2910
 0.4800	 3.2960
 0.4810	 3.2950
 0.4820	 3.2950
 0.4830	 3.2980
 0.4840	 3.3060
 0.4850	 3.3150
 0.4860	 3.3250
 0.4870	 3.3370
 0.4880	 3.3510
 0.4890	 3.3530
 0.4900	 3.3580
 0.4910	 3.3700
 0.4920	 3.3900
 0.4930	 3.4090
 0.4940	 3.4260
 0.4950	 3.4440
 0.4960	 3.4730
 0.4970	 3.5000
 0.4980	 3.5240
 0.4990	 3.5530
 0.5000	 3.5930
 0.5010	 3.6370
 0.5020	 3.6820
 0.5030	 3.7310
 0.5040	 3.7850
 0.5050	 3.8470
 0.5060	 3.9190
 0.5070	 4.0020
 0.5080	 4.0940
 0.5090	 4.1930
 0.5100	 4.3010
 0.5110	 4.4220
 0.5120	 4.5520
 0.5130	 4.6900
 0.5140	 4.8390
 0.5150	 5.0020
 0.5160	 5.1790
 0.5170	 5.3680
 0.5180	 5.5620
 0.5190	 5.7660
 0.5200	 5.9810
 0.5210	 6.2040
 0.5220	 6.4300
 0.5230	 6.6570
 0.5240	 6.8860
 0.5250	 7.1110
 0.5260	 7.3310
 0.5270	 7.5420
 0.5280	 7.7390
 0.5290	 7.9300
 0.5300	 8.1130
 0.5310	 8.2830
 0.5320	 8.4370
 0.5330	 8.5840
 0.5340	 8.7180
 0.5350	 8.8360
 0.5360	 8.9460
 0.5370	 9.0490
 0.5380	 9.1440
 0.5390	 9.2330
 0.5400	 9.3240
 0.5410	 9.4180
 0.5420	 9.5100
 0.5430	 9.5940
 0.5440	 9.6570
 0.5450	 9.7000
 0.5460	 9.7260
 0.5470	 9.7440
 0.5480	 9.7610
 0.5490	 9.7810
 0.5500	 9.8050
 0.5510	 9.8190
 0.5520	 9.8250
 0.5530	 9.8200
 0.5540	 9.8010
 0.5550	 9.7680
 0.5560	 9.7200
 0.5570	 9.6580
 0.5580	 9.5870
 0.5590	 9.5070
 0.5600	 9.4190
 0.5610	 9.3270
 0.5620	 9.2260
 0.5630	 9.1200
 0.5640	 9.0120
 0.5650	 8.8990
 0.5660	 8.7790
 0.5670	 8.6520
 0.5680	 8.5170
 0.5690	 8.3800
 0.5700	 8.2430
 0.5710	 8.1060
 0.5720	 7.9730
 0.5730	 7.8420
 0.5740	 7.7140
 0.5750	 7.5950
 0.5760	 7.4850
 0.5770	 7.3810
 0.5780	 7.2810
 0.5790	 7.1910
 0.5800	 7.1090
 0.5810	 7.0320
 0.5820	 6.9590
 0.5830	 6.8920
 0.5840	 6.8300
 0.5850	 6.7710
 0.5860	 6.7180
 0.5870	 6.6680
 0.5880	 6.6190
 0.5890	 6.5690
 0.5900	 6.5230
 0.5910	 6.4820
 0.5920	 6.4460
 0.5930	 6.4160
 0.5940	 6.3900
 0.5950	 6.3660
 0.5960	 6.3440
 0.5970	 6.3260
 0.5980	 6.3060
 0.5990	 6.2860
 0.6000	 6.2660
 0.6010	 6.2400
 0.6020	 6.2080
 0.6030	 6.1710
 0.6040	 6.1320
 0.6050	 6.0870
 0.6060	 6.0360
 0.6070	 5.9790
 0.6080	 5.9190
 0.6090	 5.8640
 0.6100	 5.8160
 0.6110	 5.7700
 0.6120	 5.7060
 0.6130	 5.6270
 0.6140	 5.5440
 0.6150	 5.4750
 0.6160	 5.4100
 0.6170	 5.3490
 0.6180	 5.2950
 0.6190	 5.2470
 0.6200	 5.2050
 0.6210	 5.1680
 0.6220	 5.1350
 0.6230	 5.1060
 0.6240	 5.0820
 0.6250	 5.0610
 0.6260	 5.0460
 0.6270	 5.0330
 0.6280	 5.0230
 0.6290	 5.0130
 0.6300	 5.0080
 0.6310	 5.0010
 0.6320	 4.9870
 0.6330	 4.9680
 0.6340	 4.9470
 0.6350	 4.9200
 0.6360	 4.8850
 0.6370	 4.8430
 0.6380	 4.7940
 0.6390	 4.7410
 0.6400	 4.6860
 0.6410	 4.6280
 0.6420	 4.5680
 0.6430	 4.5070
 0.6440	 4.4420
 0.6450	 4.3790
 0.6460	 4.3190
 0.6470	 4.2630
 0.6480	 4.2140
 0.6490	 4.1700
 0.6500	 4.1320
 0.6510	 4.1010
 0.6520	 4.0770
 0.6530	 4.0540
 0.6540	 4.0280
 0.6550	 4.0000
 0.6560	 3.9700
 0.6570	 3.9380
 0.6580	 3.9010
 0.6590	 3.8620
 0.6600	 3.8200
 0.6610	 3.7780
 0.6620	 3.7390
 0.6630	 3.7010
 0.6640	 3.6670
 0.6650	 3.6370
 0.6660	 3.6150
 0.6670	 3.5970
 0.6680	 3.5820
 0.6690	 3.5730
 0.6700	 3.5690
 0.6710	 3.5720
 0.6720	 3.5800
 0.6730	 3.5910
 0.6740	 3.6040
 0.6750	 3.6190
 0.6760	 3.6380
 0.6770	 3.6650
 0.6780	 3.6950
 0.6790	 3.7260
 0.6800	 3.7640
 0.6810	 3.8080
 0.6820	 3.8570
 0.6830	 3.9120
 0.6840	 3.9740
 0.6850	 4.0490
 0.6860	 4.1400
 0.6870	 4.2490
 0.6880	 4.3840
 0.6890	 4.5540
 0.6900	 4.7640
 0.6910	 5.0220
 0.6920	 5.3390
 0.6930	 5.7160
 0.6940	 6.1540
 0.6950	 6.6570
 0.6960	 7.2150
 0.6970	 7.8250
 0.6980	 8.4850
 0.6990	 9.1880
 0.7000	 9.9240
 0.7010	10.6840
 0.7020	11.4600
 0.7030	12.2450
 0.7040	13.0360
 0.7050	13.8300
 0.7060	14.6230
 0.7070	15.4120
 0.7080	16.1950
 0.7090	16.9720
 0.7100	17.7470
 0.7110	18.5190
 0.7120	19.2880
 0.7130	20.0520
 0.7140	20.8060
 0.7150	21.5540
 0.7160	22.2980
 0.7170	23.0320
 0.7180	23.7550
 0.7190	24.4650
 0.7200	25.1610
 0.7210	25.8410
 0.7220	26.5030
 0.7230	27.1450
 0.7240	27.7670
 0.7250	28.3660
 0.7260	28.9400
 0.7270	29.4890
 0.7280	30.0150
 0.7290	30.5150
 0.7300	30.9920
 0.7310	31.4440
 0.7320	31.8700
 0.7330	32.2720
 0.7340	32.6490
 0.7350	33.0010
 0.7360	33.3340
 0.7370	33.6440
 0.7380	33.9300
 0.7390	34.1980
 0.7400	34.4470
 0.7410	34.6770
 0.7420	34.8900
 0.7430	35.0830
 0.7440	35.2590
 0.7450	35.4210
 0.7460	35.5680
 0.7470	35.7010
 0.7480	35.8210
 0.7490	35.9290
 0.7500	36.0280
 0.7510	36.1160
 0.7520	36.1950
 0.7530	36.2670
 0.7540	36.3310
 0.7550	36.3890
 0.7560	36.4420
 0.7570	36.4900
 0.7580	36.5350
 0.7590	36.5750
 0.7600	36.6120
 0.7610	36.6440
 0.7620	36.6720
 0.7630	36.6960
 0.7640	36.7190
 0.7650	36.7410
 0.7660	36.7570
 0.7670	36.7710
 0.7680	36.7870
 0.7690	36.7990
 0.7700	36.8110
 0.7710	36.8220
 0.7720	36.8320
 0.7730	36.8410
 0.7740	36.8510
 0.7750	36.8620
 0.7760	36.8660
 0.7770	36.8740
 0.7780	36.8840
 0.7790	36.8920
 0.7800	36.8990
 0.7810	36.9050
 0.7820	36.9120
 0.7830	36.9180
 0.7840	36.9240
 0.7850	36.9300
 0.7860	36.9350
 0.7870	36.9400
 0.7880	36.9450
 0.7890	36.9480
 0.7900	36.9500
 0.7910	36.9520
 0.7920	36.9540
 0.7930	36.9560
 0.7940	36.9570
 0.7950	36.9600
 0.7960	36.9600
 0.7970	36.9570
 0.7980	36.9540
 0.7990	36.9520
 0.8000	36.9470
 0.8010	36.9420
 0.8020	36.9400
 0.8030	36.9370
 0.8040	36.9330
 0.8050	36.9290
 0.8060	36.9230
 0.8070	36.9170
 0.8080	36.9090
 0.8090	36.9000
 0.8100	36.8940
 0.8110	36.8880
 0.8120	36.8810
 0.8130	36.8720
 0.8140	36.8600
 0.8150	36.8490
 0.8160	36.8430
 0.8170	36.8340
 0.8180	36.8220
 0.8190	36.8110
 0.8200	36.8040
 0.8210	36.7940
 0.8220	36.7850
 0.8230	36.7760
 0.8240	36.7670
 0.8250	36.7570
 0.8260	36.7480
 0.8270	36.7400
 0.8280	36.7300
 0.8290	36.7190
 0.8300	36.7090
 0.8310	36.7010
 0.8320	36.6940
 0.8330	36.6850
 0.8340	36.6760
 0.8350	36.6670
 0.8360	36.6620
 0.8370	36.6570
 0.8380	36.6490
 0.8390	36.6430
 0.8400	36.6400
 0.8410	36.6390
 0.8420	36.6380
 0.8430	36.6330
 0.8440	36.6270
 0.8450	36.6240
 0.8460	36.6240
 0.8470	36.6220
 0.8480	36.6180
 0.8490	36.6170
 0.8500	36.6170
 0.8510	36.6150
 0.8520	36.6170
 0.8530	36.6180
 0.8540	36.6140
 0.8550	36.6180
 0.8560	36.6230
 0.8570	36.6240
 0.8580	36.6230
 0.8590	36.6280
 0.8600	36.6330
 0.8610	36.6340
 0.8620	36.6350
 0.8630	36.6390
 0.8640	36.6450
 0.8650	36.6500
 0.8660	36.6560
 0.8670	36.6630
 0.8680	36.6690
 0.8690	36.6730
 0.8700	36.6740
 0.8710	36.6790
 0.8720	36.6860
 0.8730	36.6910
 0.8740	36.7000
 0.8750	36.7090
 0.8760	36.7170
 0.8770	36.7270
 0.8780	36.7320
 0.8790	36.7370
 0.8800	36.7470
 0.8810	36.7560
 0.8820	36.7650
 0.8830	36.7740
 0.8840	36.7820
 0.8850	36.7910
 0.8860	36.7990
 0.8870	36.8040
 0.8880	36.8050
 0.8890	36.8150
 0.8900	36.8240
 0.8910	36.8320
 0.8920	36.8380
 0.8930	36.8450
 0.8940	36.8530
 0.8950	36.8610
 0.8960	36.8700
 0.8970	36.8770
 0.8980	36.8820
 0.8990	36.8860
 0.9000	36.8920
 0.9010	36.8990
 0.9020	36.9080
 0.9030	36.9170
 0.9040	36.9230
 0.9050	36.9300
 0.9060	36.9350
 0.9070	36.9390
 0.9080	36.9430
 0.9090	36.9440
 0.9100	36.9440
 0.9110	36.9460
 0.9120	36.9520
 0.9130	36.9600
 0.9140	36.9660
 0.9150	36.9680
 0.9160	36.9680
 0.9170	36.9670
 0.9180	36.9690
 0.9190	36.9770
 0.9200	36.9810
 0.9210	36.9800
 0.9220	36.9770
 0.9230	36.9780
 0.9240	36.9800
 0.9250	36.9760
 0.9260	36.9690
 0.9270	36.9650
 0.9280	36.9540
 0.9290	36.9470
 0.9300	36.9480
 0.9310	36.9450
 0.9320	36.9390
 0.9330	36.9300
 0.9340	36.9200
 0.9350	36.9090
 0.9360	36.9000
 0.9370	36.8930
 0.9380	36.8840
 0.9390	36.8660
 0.9400	36.8520
 0.9410	36.8400
 0.9420	36.8260
 0.9430	36.8130
 0.9440	36.7980
 0.9450	36.7860
 0.9460	36.7720
 0.9470	36.7410
 0.9480	36.7130
 0.9490	36.6870
 0.9500	36.6620
 0.9510	36.6400
 0.9520	36.6200
 0.9530	36.5930
 0.9540	36.5550
 0.9550	36.5240
 0.9560	36.4940
 0.9570	36.4670
 0.9580	36.4410
 0.9590	36.4160
 0.9600	36.3940
 0.9610	36.3690
 0.9620	36.3370
 0.9630	36.3170
 0.9640	36.3030
 0.9650	36.2890
 0.9660	36.2710
 0.9670	36.2610
 0.9680	36.2470
 0.9690	36.2310
 0.9700	36.2190
 0.9710	36.2020
 0.9720	36.1950
 0.9730	36.1900
 0.9740	36.1740
 0.9750	36.1680
 0.9760	36.1600
 0.9770	36.1510
 0.9780	36.1440
 0.9790	36.1320
 0.9800	36.1240
 0.9810	36.1230
 0.9820	36.1250
 0.9830	36.1320
 0.9840	36.1320
 0.9850	36.1230
 0.9860	36.1080
 0.9870	36.1060
 0.9880	36.1150
 0.9890	36.1220
 0.9900	36.1170
 0.9910	36.1250
 0.9920	36.1330
 0.9930	36.1360
 0.9940	36.1350
 0.9950	36.1280
 0.9960	36.1380
 0.9970	36.1520
 0.9980	36.1510
 0.9990	36.1650
 1.0000	36.1840
 1.0010	36.1090
 1.0020	36.1090
 1.0030	36.1130
 1.0040	36.1190
 1.0050	36.1270
 1.0060	36.1360
 1.0070	36.1430
 1.0080	36.1510
 1.0090	36.1550
 1.0100	36.1640
 1.0110	36.1780
 1.0120	36.1870
 1.0130	36.1950
 1.0140	36.2040
 1.0150	36.2080
 1.0160	36.2160
 1.0170	36.2240
 1.0180	36.2310
 1.0190	36.2370
 1.0200	36.2420
 1.0210	36.2530
 1.0220	36.2620
 1.0230	36.2700
 1.0240	36.2760
 1.0250	36.2830
 1.0260	36.2880
 1.0270	36.2940
 1.0280	36.3050
 1.0290	36.3130
 1.0300	36.3180
 1.0310	36.3240
 1.0320	36.3310
 1.0330	36.3340
 1.0340	36.3420
 1.0350	36.3500
 1.0360	36.3540
 1.0370	36.3610
 1.0380	36.3670
 1.0390	36.3710
 1.0400	36.3760
 1.0410	36.3830
 1.0420	36.3890
 1.0430	36.3930
 1.0440	36.4000
 1.0450	36.4070
 1.0460	36.4130
 1.0470	36.4190
 1.0480	36.4260
 1.0490	36.4320
 1.0500	36.4360
 1.0510	36.4410
 1.0520	36.4420
 1.0530	36.4470
 1.0540	36.4500
 1.0550	36.4560
 1.0560	36.4670
 1.0570	36.4730
 1.0580	36.4760
 1.0590	36.4820
 1.0600	36.4890
 1.0610	36.4930
 1.0620	36.4950
 1.0630	36.4990
 1.0640	36.5030
 1.0650	36.5060
 1.0660	36.5120
 1.0670	36.5170
 1.0680	36.5220
 1.0690	36.5250
 1.0700	36.5280
 1.0710	36.5300
 1.0720	36.5340
 1.0730	36.5350
 1.0740	36.5400
 1.0750	36.5480
 1.0760	36.5540
 1.0770	36.5610
 1.0780	36.5630
 1.0790	36.5630
 1.0800	36.5640
 1.0810	36.5620
 1.0820	36.5620
 1.0830	36.5640
 1.0840	36.5650
 1.0850	36.5670
 1.0860	36.5690
 1.0870	36.5710
 1.0880	36.5720
 1.0890	36.5750
 1.0900	36.5790
 1.0910	36.5790
 1.0920	36.5770
 1.0930	36.5750
 1.0940	36.5700
 1.0950	36.5680
 1.0960	36.5680
 1.0970	36.5670
 1.0980	36.5660
 1.0990	36.5650
 1.1000	36.5630
 1.1010	36.5610
 1.1020	36.5590
 1.1030	36.5550
 1.1040	36.5540
 1.1050	36.5520
 1.1060	36.5470
 1.1070	36.5410
 1.1080	36.5350
 1.1090	36.5260
 1.1100	36.5200
 1.1110	36.5170
 1.1120	36.5090
 1.1130	36.5010
 1.1140	36.4920
 1.1150	36.4790
 1.1160	36.4670
 1.1170	36.4550
 1.1180	36.4430
 1.1190	36.4320
 1.1200	36.4180
 1.1210	36.4040
 1.1220	36.3870
 1.1230	36.3650
 1.1240	36.3420
 1.1250	36.3170
 1.1260	36.2890
 1.1270	36.2590
 1.1280	36.2270
 1.1290	36.1910
 1.1300	36.1510
 1.1310	36.1080
 1.1320	36.0630
 1.1330	36.0140
 1.1340	35.9600
 1.1350	35.9060
 1.1360	35.8500
 1.1370	35.7920
 1.1380	35.7340
 1.1390	35.6720
 1.1400	35.6090
 1.1410	35.5440
 1.1420	35.4800
 1.1430	35.4160
 1.1440	35.3520
 1.1450	35.2870
 1.1460	35.2230
 1.1470	35.1580
 1.1480	35.0960
 1.1490	35.0350
 1.1500	34.9760
 1.1510	34.9200
 1.1520	34.8670
 1.1530	34.8160
 1.1540	34.7680
 1.1550	34.7230
 1.1560	34.6780
 1.1570	34.6380
 1.1580	34.6020
 1.1590	34.5660
 1.1600	34.5360
 1.1610	34.5080
 1.1620	34.4790
 1.1630	34.4510
 1.1640	34.4250
 1.1650	34.4010
 1.1660	34.3780
 1.1670	34.3580
 1.1680	34.3430
 1.1690	34.3240
 1.1700	34.3040
 1.1710	34.2860
 1.1720	34.2660
 1.1730	34.2500
 1.1740	34.2370
 1.1750	34.2230
 1.1760	34.2090
 1.1770	34.1960
 1.1780	34.1800
 1.1790	34.1640
 1.1800	34.1480
 1.1810	34.1320
 1.1820	34.1170
 1.1830	34.1010
 1.1840	34.0860
 1.1850	34.0700
 1.1860	34.0550
 1.1870	34.0410
 1.1880	34.0290
 1.1890	34.0190
 1.1900	34.0080
 1.1910	33.9970
 1.1920	33.9870
 1.1930	33.9750
 1.1940	33.9670
 1.1950	33.9600
 1.1960	33.9540
 1.1970	33.9490
 1.1980	33.9450
 1.1990	33.9420
 1.2000	33.9400
 1.2010	33.9400
 1.2020	33.9410
 1.2030	33.9420
 1.2040	33.9450
 1.2050	33.9500
 1.2060	33.9590
 1.2070	33.9690
 1.2080	33.9800
 1.2090	33.9900
 1.2100	34.0010
 1.2110	34.0140
 1.2120	34.0270
 1.2130	34.0420
 1.2140	34.0590
 1.2150	34.0760
 1.2160	34.0940
 1.2170	34.1120
 1.2180	34.1310
 1.2190	34.1500
 1.2200	34.1700
 1.2210	34.1900
 1.2220	34.2090
 1.2230	34.2290
 1.2240	34.2500
 1.2250	34.2700
 1.2260	34.2900
 1.2270	34.3100
 1.2280	34.3280
 1.2290	34.3460
 1.2300	34.3630
 1.2310	34.3780
 1.2320	34.3920
 1.2330	34.4050
 1.2340	34.4190
 1.2350	34.4340
 1.2360	34.4470
 1.2370	34.4590
 1.2380	34.4710
 1.2390	34.4820
 1.2400	34.4920
 1.2410	34.5020
 1.2420	34.5120
 1.2430	34.5210
 1.2440	34.5310
 1.2450	34.5410
 1.2460	34.5500
 1.2470	34.5590
 1.2480	34.5670
 1.2490	34.5740
 1.2500	34.5810
 1.2510	34.5880
 1.2520	34.5930
 1.2530	34.5980
 1.2540	34.6040
 1.2550	34.6070
 1.2560	34.6110
 1.2570	34.6150
 1.2580	34.6190
 1.2590	34.6220
 1.2600	34.6270
 1.2610	34.6290
 1.2620	34.6300
 1.2630	34.6300
 1.2640	34.6310
 1.2650	34.6330
 1.2660	34.6350
 1.2670	34.6340
 1.2680	34.6300
 1.2690	34.6270
 1.2700	34.6230
 1.2710	34.6200
 1.2720	34.6170
 1.2730	34.6120
 1.2740	34.6070
 1.2750	34.6010
 1.2760	34.5940
 1.2770	34.5880
 1.2780	34.5810
 1.2790	34.5720
 1.2800	34.5640
 1.2810	34.5550
 1.2820	34.5450
 1.2830	34.5340
 1.2840	34.5220
 1.2850	34.5100
 1.2860	34.4970
 1.2870	34.4830
 1.2880	34.4690
 1.2890	34.4550
 1.2900	34.4380
 1.2910	34.4230
 1.2920	34.4080
 1.2930	34.3910
 1.2940	34.3740
 1.2950	34.3560
 1.2960	34.3350
 1.2970	34.3150
 1.2980	34.2920
 1.2990	34.2710
 1.3000	34.2500
 1.3010	34.2270
 1.3020	34.2030
 1.3030	34.1770
 1.3040	34.1480
 1.3050	34.1210
 1.3060	34.0920
 1.3070	34.0600
 1.3080	34.0270
 1.3090	33.9910
 1.3100	33.9540
 1.3110	33.9180
 1.3120	33.8770
 1.3130	33.8340
 1.3140	33.7910
 1.3150	33.7450
 1.3160	33.6980
 1.3170	33.6500
 1.3180	33.6000
 1.3190	33.5470
 1.3200	33.4910
 1.3210	33.4330
 1.3220	33.3760
 1.3230	33.3160
 1.3240	33.2540
 1.3250	33.1910
 1.3260	33.1260
 1.3270	33.0590
 1.3280	32.9910
 1.3290	32.9200
 1.3300	32.8460
 1.3310	32.7710
 1.3320	32.6940
 1.3330	32.6180
 1.3340	32.5410
 1.3350	32.4650
 1.3360	32.3890
 1.3370	32.3090
 1.3380	32.2290
 1.3390	32.1500
 1.3400	32.0700
 1.3410	31.9930
 1.3420	31.9160
 1.3430	31.8380
 1.3440	31.7610
 1.3450	31.6830
 1.3460	31.6040
 1.3470	31.5260
 1.3480	31.4490
 1.3490	31.3730
 1.3500	31.2990
 1.3510	31.2250
 1.3520	31.1520
 1.3530	31.0790
 1.3540	31.0050
 1.3550	30.9300
 1.3560	30.8550
 1.3570	30.7800
 1.3580	30.7040
 1.3590	30.6280
 1.3600	30.5510
 1.3610	30.4720
 1.3620	30.3900
 1.3630	30.3060
 1.3640	30.2200
 1.3650	30.1300
 1.3660	30.0360
 1.3670	29.9390
 1.3680	29.8340
 1.3690	29.7230
 1.3700	29.6040
 1.3710	29.4770
 1.3720	29.3410
 1.3730	29.1940
 1.3740	29.0370
 1.3750	28.8680
 1.3760	28.6860
 1.3770	28.4900
 1.3780	28.2760
 1.3790	28.0480
 1.3800	27.8040
 1.3810	27.5410
 1.3820	27.2630
 1.3830	26.9710
 1.3840	26.6630
 1.3850	26.3380
 1.3860	26.0010
 1.3870	25.6470
 1.3880	25.2860
 1.3890	24.9120
 1.3900	24.5270
 1.3910	24.1350
 1.3920	23.7350
 1.3930	23.3270
 1.3940	22.9160
 1.3950	22.5000
 1.3960	22.0820
 1.3970	21.6690
 1.3980	21.2580
 1.3990	20.8570
 1.4000	20.4630
 1.4010	20.0740
 1.4020	19.6980
 1.4030	19.3290
 1.4040	18.9730
 1.4050	18.6310
 1.4060	18.3010
 1.4070	17.9870
 1.4080	17.6870
 1.4090	17.3990
 1.4100	17.1270
 1.4110	16.8670
 1.4120	16.6240
 1.4130	16.3950
 1.4140	16.1780
 1.4150	15.9770
 1.4160	15.7870
 1.4170	15.6070
 1.4180	15.4410
 1.4190	15.2850
 1.4200	15.1380
 1.4210	15.0020
 1.4220	14.8750
 1.4230	14.7570
 1.4240	14.6480
 1.4250	14.5460
 1.4260	14.4530
 1.4270	14.3650
 1.4280	14.2840
 1.4290	14.2100
 1.4300	14.1410
 1.4310	14.0780
 1.4320	14.0230
 1.4330	13.9720
 1.4340	13.9260
 1.4350	13.8840
 1.4360	13.8470
 1.4370	13.8150
 1.4380	13.7880
 1.4390	13.7640
 1.4400	13.7450
 1.4410	13.7290
 1.4420	13.7140
 1.4430	13.7030
 1.4440	13.6940
 1.4450	13.6870
 1.4460	13.6840
 1.4470	13.6830
 1.4480	13.6850
 1.4490	13.6890
 1.4500	13.6940
 1.4510	13.6990
 1.4520	13.7060
 1.4530	13.7140
 1.4540	13.7240
 1.4550	13.7360
 1.4560	13.7510
 1.4570	13.7690
 1.4580	13.7890
 1.4590	13.8110
 1.4600	13.8370
 1.4610	13.8650
 1.4620	13.8960
 1.4630	13.9320
 1.4640	13.9710
 1.4650	14.0140
 1.4660	14.0600
 1.4670	14.1110
 1.4680	14.1660
 1.4690	14.2260
 1.4700	14.2890
 1.4710	14.3570
 1.4720	14.4270
 1.4730	14.4980
 1.4740	14.5730
 1.4750	14.6500
 1.4760	14.7300
 1.4770	14.8120
 1.4780	14.8960
 1.4790	14.9830
 1.4800	15.0710
 1.4810	15.1610
 1.4820	15.2510
 1.4830	15.3430
 1.4840	15.4360
 1.4850	15.5290
 1.4860	15.6250
 1.4870	15.7210
 1.4880	15.8170
 1.4890	15.9140
 1.4900	16.0110
 1.4910	16.1080
 1.4920	16.2060
 1.4930	16.3050
 1.4940	16.4040
 1.4950	16.5040
 1.4960	16.6030
 1.4970	16.7010
 1.4980	16.8010
 1.4990	16.9000
 1.5000	17.0000
 1.5010	17.1010
 1.5020	17.2010
 1.5030	17.3020
 1.5040	17.4020
 1.5050	17.5000
 1.5060	17.5980
 1.5070	17.6950
 1.5080	17.7920
 1.5090	17.8900
 1.5100	17.9860
 1.5110	18.0820
 1.5120	18.1780
 1.5130	18.2720
 1.5140	18.3660
 1.5150	18.4590
 1.5160	18.5510
 1.5170	18.6440
 1.5180	18.7370
 1.5190	18.8270
 1.5200	18.9170
 1.5210	19.0060
 1.5220	19.0940
 1.5230	19.1820
 1.5240	19.2700
 1.5250	19.3580
 1.5260	19.4430
 1.5270	19.5270
 1.5280	19.6100
 1.5290	19.6910
 1.5300	19.7710
 1.5310	19.8520
 1.5320	19.9310
 1.5330	20.0100
 1.5340	20.0880
 1.5350	20.1650
 1.5360	20.2410
 1.5370	20.3150
 1.5380	20.3900
 1.5390	20.4640
 1.5400	20.5370
 1.5410	20.6110
 1.5420	20.6830
 1.5430	20.7540
 1.5440	20.8260
 1.5450	20.8960
 1.5460	20.9660
 1.5470	21.0350
 1.5480	21.1030
 1.5490	21.1700
 1.5500	21.2370
 1.5510	21.3030
 1.5520	21.3680
 1.5530	21.4330
 1.5540	21.4970
 1.5550	21.5610
 1.5560	21.6240
 1.5570	21.6860
 1.5580	21.7470
 1.5590	21.8060
 1.5600	21.8660
 1.5610	21.9250
 1.5620	21.9840
 1.5630	22.0420
 1.5640	22.0990
 1.5650	22.1560
 1.5660	22.2120
 1.5670	22.2680
 1.5680	22.3240
 1.5690	22.3790
 1.5700	22.4320
 1.5710	22.4860
 1.5720	22.5390
 1.5730	22.5920
 1.5740	22.6450
 1.5750	22.6980
 1.5760	22.7520
 1.5770	22.8060
 1.5780	22.8580
 1.5790	22.9100
 1.5800	22.9600
 1.5810	23.0090
 1.5820	23.0590
 1.5830	23.1080
 1.5840	23.1580
 1.5850	23.2070
 1.5860	23.2570
 1.5870	23.3070
 1.5880	23.3560
 1.5890	23.4040
 1.5900	23.4510
 1.5910	23.4990
 1.5920	23.5460
 1.5930	23.5940
 1.5940	23.6420
 1.5950	23.6880
 1.5960	23.7340
 1.5970	23.7800
 1.5980	23.8260
 1.5990	23.8720
 1.6000	23.9170
 1.6010	23.9620
 1.6020	24.0050
 1.6030	24.0460
 1.6040	24.0870
 1.6050	24.1280
 1.6060	24.1700
 1.6070	24.2110
 1.6080	24.2520
 1.6090	24.2910
 1.6100	24.3290
 1.6110	24.3670
 1.6120	24.4040
 1.6130	24.4410
 1.6140	24.4760
 1.6150	24.5120
 1.6160	24.5470
 1.6170	24.5790
 1.6180	24.6110
 1.6190	24.6440
 1.6200	24.6750
 1.6210	24.7060
 1.6220	24.7350
 1.6230	24.7630
 1.6240	24.7920
 1.6250	24.8200
 1.6260	24.8480
 1.6270	24.8740
 1.6280	24.8970
 1.6290	24.9210
 1.6300	24.9440
 1.6310	24.9670
 1.6320	24.9910
 1.6330	25.0130
 1.6340	25.0340
 1.6350	25.0550
 1.6360	25.0760
 1.6370	25.0960
 1.6380	25.1180
 1.6390	25.1360
 1.6400	25.1520
 1.6410	25.1670
 1.6420	25.1800
 1.6430	25.1920
 1.6440	25.2040
 1.6450	25.2130
 1.6460	25.2200
 1.6470	25.2250
 1.6480	25.2290
 1.6490	25.2300
 1.6500	25.2290
 1.6510	25.2240
 1.6520	25.2170
 1.6530	25.2070
 1.6540	25.1950
 1.6550	25.1810
 1.6560	25.1630
 1.6570	25.1420
 1.6580	25.1180
 1.6590	25.0890
 1.6600	25.0570
 1.6610	25.0250
 1.6620	24.9900
 1.6630	24.9530
 1.6640	24.9150
 1.6650	24.8760
 1.6660	24.8360
 1.6670	24.7960
 1.6680	24.7570
 1.6690	24.7190
 1.6700	24.6810
 1.6710	24.6480
 1.6720	24.6180
 1.6730	24.5880
 1.6740	24.5600
 1.6750	24.5340
 1.6760	24.5110
 1.6770	24.4920
 1.6780	24.4750
 1.6790	24.4590
 1.6800	24.4450
 1.6810	24.4320
 1.6820	24.4190
 1.6830	24.4060
 1.6840	24.3920
 1.6850	24.3770
 1.6860	24.3620
 1.6870	24.3450
 1.6880	24.3270
 1.6890	24.3070
 1.6900	24.2840
 1.6910	24.2570
 1.6920	24.2320
 1.6930	24.2040
 1.6940	24.1780
 1.6950	24.1520
 1.6960	24.1240
 1.6970	24.0940
 1.6980	24.0640
 1.6990	24.0330
 1.7000	24.0020
 1.7010	23.9720
 1.7020	23.9400
 1.7030	23.9050
 1.7040	23.8700
 1.7050	23.8340
 1.7060	23.7940
 1.7070	23.7520
 1.7080	23.7090
 1.7090	23.6610
 1.7100	23.6160
 1.7110	23.5700
 1.7120	23.5270
 1.7130	23.4840
 1.7140	23.4420
 1.7150	23.4020
 1.7160	23.3630
 1.7170	23.3250
 1.7180	23.2900
 1.7190	23.2550
 1.7200	23.2220
 1.7210	23.1910
 1.7220	23.1620
 1.7230	23.1360
 1.7240	23.1120
 1.7250	23.0900
 1.7260	23.0700
 1.7270	23.0510
 1.7280	23.0350
 1.7290	23.0200
 1.7300	23.0080
 1.7310	22.9960
 1.7320	22.9840
 1.7330	22.9720
 1.7340	22.9620
 1.7350	22.9500
 1.7360	22.9400
 1.7370	22.9250
 1.7380	22.9060
 1.7390	22.8850
 1.7400	22.8600
 1.7410	22.8330
 1.7420	22.8020
 1.7430	22.7690
 1.7440	22.7330
 1.7450	22.6970
 1.7460	22.6600
 1.7470	22.6220
 1.7480	22.5850
 1.7490	22.5460
 1.7500	22.5070
 1.7510	22.4680
 1.7520	22.4290
 1.7530	22.3900
 1.7540	22.3520
 1.7550	22.3170
 1.7560	22.2840
 1.7570	22.2510
 1.7580	22.2190
 1.7590	22.1880
 1.7600	22.1580
 1.7610	22.1300
 1.7620	22.1030
 1.7630	22.0750
 1.7640	22.0520
 1.7650	22.0330
 1.7660	22.0130
 1.7670	21.9960
 1.7680	21.9780
 1.7690	21.9600
 1.7700	21.9430
 1.7710	21.9280
 1.7720	21.9130
 1.7730	21.8990
 1.7740	21.8860
 1.7750	21.8720
 1.7760	21.8600
 1.7770	21.8500
 1.7780	21.8380
 1.7790	21.8250
 1.7800	21.8160
 1.7810	21.8060
 1.7820	21.8000
 1.7830	21.7980
 1.7840	21.7950
 1.7850	21.7930
 1.7860	21.7910
 1.7870	21.7910
 1.7880	21.7900
 1.7890	21.7920
 1.7900	21.7930
 1.7910	21.7970
 1.7920	21.8030
 1.7930	21.8090
 1.7940	21.8170
 1.7950	21.8260
 1.7960	21.8370
 1.7970	21.8470
 1.7980	21.8560
 1.7990	21.8660
 1.8000	21.8740
 1.8010	21.8840
 1.8020	21.8970
 1.8030	21.9070
 1.8040	21.9170
 1.8050	21.9280
 1.8060	21.9390
 1.8070	21.9500
 1.8080	21.9610
 1.8090	21.9710
 1.8100	21.9820
 1.8110	21.9910
 1.8120	22.0020
 1.8130	22.0140
 1.8140	22.0230
 1.8150	22.0330
 1.8160	22.0420
 1.8170	22.0470
 1.8180	22.0540
 1.8190	22.0600
 1.8200	22.0650
 1.8210	22.0720
 1.8220	22.0770
 1.8230	22.0810
 1.8240	22.0840
 1.8250	22.0860
 1.8260	22.0880
 1.8270	22.0900
 1.8280	22.0900
 1.8290	22.0910
 1.8300	22.0860
 1.8310	21.6250
 1.8320	21.6160
 1.8330	21.6060
 1.8340	21.5940
 1.8350	21.5790
 1.8360	21.5580
 1.8370	21.5350
 1.8380	21.5110
 1.8390	21.4830
 1.8400	21.4520
 1.8410	21.4180
 1.8420	21.3830
 1.8430	21.3420
 1.8440	21.2960
 1.8450	21.2460
 1.8460	21.1860
 1.8470	21.1180
 1.8480	21.0460
 1.8490	20.9700
 1.8500	20.8850
 1.8510	20.7930
 1.8520	20.6960
 1.8530	20.5870
 1.8540	20.4650
 1.8550	20.3360
 1.8560	20.1990
 1.8570	20.0500
 1.8580	19.8920
 1.8590	19.7250
 1.8600	19.5500
 1.8610	19.3600
 1.8620	19.1560
 1.8630	18.9410
 1.8640	18.7100
 1.8650	18.4650
 1.8660	18.2070
 1.8670	17.9320
 1.8680	17.6410
 1.8690	17.3300
 1.8700	17.0010
 1.8710	16.6540
 1.8720	16.2990
 1.8730	15.9320
 1.8740	15.5530
 1.8750	15.1680
 1.8760	14.7650
 1.8770	14.3540
 1.8780	13.9420
 1.8790	13.5200
 1.8800	13.0990
 1.8810	12.6780
 1.8820	12.2540
 1.8830	11.8210
 1.8840	11.3920
 1.8850	10.9640
 1.8860	10.5370
 1.8870	10.1190
 1.8880	 9.7070
 1.8890	 9.3080
 1.8900	 8.9210
 1.8910	 8.5490
 1.8920	 8.1880
 1.8930	 7.8460
 1.8940	 7.5190
 1.8950	 7.2120
 1.8960	 6.9250
 1.8970	 6.6550
 1.8980	 6.4060
 1.8990	 6.1740
 1.9000	 5.9570
 1.9010	 5.7600
 1.9020	 5.5770
 1.9030	 5.4090
 1.9040	 5.2570
 1.9050	 5.1190
 1.9060	 4.9950
 1.9070	 4.8870
 1.9080	 4.7900
 1.9090	 4.7000
 1.9100	 4.6220
 1.9110	 4.5510
 1.9120	 4.4900
 1.9130	 4.4330
 1.9140	 4.3850
 1.9150	 4.3410
 1.9160	 4.3020
 1.9170	 4.2660
 1.9180	 4.2330
 1.9190	 4.2060
 1.9200	 4.1840
 1.9210	 4.1620
 1.9220	 4.1440
 1.9230	 4.1300
 1.9240	 4.1180
 1.9250	 4.1070
 1.9260	 4.1020
 1.9270	 4.0990
 1.9280	 4.0970
 1.9290	 4.0960
 1.9300	 4.0950
 1.9310	 4.0970
 1.9320	 4.1000
 1.9330	 4.1070
 1.9340	 4.1200
 1.9350	 4.1320
 1.9360	 4.1490
 1.9370	 4.1630
 1.9380	 4.1790
 1.9390	 4.1920
 1.9400	 4.2080
 1.9410	 4.2270
 1.9420	 4.2500
 1.9430	 4.2740
 1.9440	 4.2980
 1.9450	 4.3220
 1.9460	 4.3480
 1.9470	 4.3770
 1.9480	 4.4060
 1.9490	 4.4350
 1.9500	 4.4670
 1.9510	 4.4990
 1.9520	 4.5340
 1.9530	 4.5710
 1.9540	 4.6060
 1.9550	 4.6430
 1.9560	 4.6790
 1.9570	 4.7160
 1.9580	 4.7550
 1.9590	 4.7950
 1.9600	 4.8330
 1.9610	 4.8740
 1.9620	 4.9160
 1.9630	 4.9590
 1.9640	 5.0000
 1.9650	 5.0450
 1.9660	 5.0930
 1.9670	 5.1400
 1.9680	 5.1870
 1.9690	 5.2390
 1.9700	 5.2870
 1.9710	 5.3320
 1.9720	 5.3810
 1.9730	 5.4320
 1.9740	 5.4830
 1.9750	 5.5340
 1.9760	 5.5870
 1.9770	 5.6400
 1.9780	 5.6920
 1.9790	 5.7470
 1.9800	 5.8050
 1.9810	 5.8620
 1.9820	 5.9200
 1.9830	 5.9780
 1.9840	 6.0380
 1.9850	 6.0970
 1.9860	 6.1550
 1.9870	 6.2140
 1.9880	 6.2720
 1.9890	 6.3300
 1.9900	 6.3920
 1.9910	 6.4550
 1.9920	 6.5170
 1.9930	 6.5830
 1.9940	 6.6460
 1.9950	 6.7070
 1.9960	 6.7680
 1.9970	 6.8290
 1.9980	 6.8900
 1.9990	 6.9510
 2.0000	 7.0140
 2.0010	 7.0750
 2.0020	 7.1370
 2.0030	 7.1980
 2.0040	 7.2570
 2.0050	 7.3190
 2.0060	 7.3840
 2.0070	 7.4460
 2.0080	 7.5100
 2.0090	 7.5710
 2.0100	 7.6290
 2.0110	 7.6870
 2.0120	 7.7430
 2.0130	 7.8000
 2.0140	 7.8580
 2.0150	 7.9140
 2.0160	 7.9720
 2.0170	 8.0290
 2.0180	 8.0840
 2.0190	 8.1370
 2.0200	 8.1900
 2.0210	 8.2430
 2.0220	 8.2940
 2.0230	 8.3440
 2.0240	 8.3940
 2.0250	 8.4460
 2.0260	 8.4940
 2.0270	 8.5410
 2.0280	 8.5880
 2.0290	 8.6330
 2.0300	 8.6760
 2.0310	 8.7200
 2.0320	 8.7650
 2.0330	 8.8080
 2.0340	 8.8490
 2.0350	 8.8910
 2.0360	 8.9310
 2.0370	 8.9710
 2.0380	 9.0110
 2.0390	 9.0490
 2.0400	 9.0860
 2.0410	 9.1230
 2.0420	 9.1590
 2.0430	 9.1940
 2.0440	 9.2260
 2.0450	 9.2560
 2.0460	 9.2880
 2.0470	 9.3180
 2.0480	 9.3510
 2.0490	 9.3900
 2.0500	 9.4230
 2.0510	 9.4560
 2.0520	 9.4880
 2.0530	 9.5170
 2.0540	 9.5490
 2.0550	 9.5820
 2.0560	 9.6140
 2.0570	 9.6480
 2.0580	 9.6820
 2.0590	 9.7160
 2.0600	 9.7510
 2.0610	 9.7860
 2.0620	 9.8210
 2.0630	 9.8560
 2.0640	 9.8910
 2.0650	 9.9260
 2.0660	 9.9590
 2.0670	 9.9940
 2.0680	10.0310
 2.0690	10.0650
 2.0700	10.0970
 2.0710	10.1320
 2.0720	10.1680
 2.0730	10.2000
 2.0740	10.2340
 2.0750	10.2700
 2.0760	10.3020
 2.0770	10.3290
 2.0780	10.3610
 2.0790	10.3950
 2.0800	10.4280
 2.0810	10.4650
 2.0820	10.4980
 2.0830	10.5280
 2.0840	10.5590
 2.0850	10.5920
 2.0860	10.6220
 2.0870	10.6490
 2.0880	10.6790
 2.0890	10.7090
 2.0900	10.7360
 2.0910	10.7650
 2.0920	10.8000
 2.0930	10.8280
 2.0940	10.8550
 2.0950	10.8830
 2.0960	10.9090
 2.0970	10.9360
 2.0980	10.9630
 2.0990	10.9900
 2.1000	11.0170
 2.1010	11.0440
 2.1020	11.0700
 2.1030	11.0970
 2.1040	11.1250
 2.1050	11.1520
 2.1060	11.1780
 2.1070	11.2060
 2.1080	11.2300
 2.1090	11.2500
 2.1100	11.2730
 2.1110	11.2960
 2.1120	11.3200
 2.1130	11.3450
 2.1140	11.3710
 2.1150	11.3960
 2.1160	11.4220
 2.1170	11.4480
 2.1180	11.4770
 2.1190	11.5050
 2.1200	11.5360
 2.1210	11.5700
 2.1220	11.6060
 2.1230	11.6390
 2.1240	11.6730
 2.1250	11.7040
 2.1260	11.7300
 2.1270	11.7600
 2.1280	11.7900
 2.1290	11.8200
 2.1300	11.8510
 2.1310	11.8780
 2.1320	11.9020
 2.1330	11.9250
 2.1340	11.9460
 2.1350	11.9690
 2.1360	11.9910
 2.1370	12.0140
 2.1380	12.0370
 2.1390	12.0590
 2.1400	12.0800
 2.1410	12.1010
 2.1420	12.1250
 2.1430	12.1510
 2.1440	12.1770
 2.1450	12.2050
 2.1460	12.2330
 2.1470	12.2590
 2.1480	12.2870
 2.1490	12.3200
 2.1500	12.3490
 2.1510	12.3800
 2.1520	12.4070
 2.1530	12.4310
 2.1540	12.4570
 2.1550	12.4800
 2.1560	12.5050
 2.1570	12.5300
 2.1580	12.5560
 2.1590	12.5840
 2.1600	12.6100
 2.1610	12.6360
 2.1620	12.6660
 2.1630	12.6960
 2.1640	12.7290
 2.1650	12.7580
 2.1660	12.7890
 2.1670	12.8160
 2.1680	12.8370
 2.1690	12.8660
 2.1700	12.8990
 2.1710	12.9290
 2.1720	12.9640
 2.1730	12.9930
 2.1740	13.0140
 2.1750	13.0400
 2.1760	13.0670
 2.1770	13.0940
 2.1780	13.1220
 2.1790	13.1490
 2.1800	13.1750
 2.1810	13.2010
 2.1820	13.2270
 2.1830	13.2510
 2.1840	13.2760
 2.1850	13.2980
 2.1860	13.3220
 2.1870	13.3450
 2.1880	13.3710
 2.1890	13.4000
 2.1900	13.4260
 2.1910	13.4530
 2.1920	13.4800
 2.1930	13.5070
 2.1940	13.5320
 2.1950	13.5540
 2.1960	13.5780
 2.1970	13.5990
 2.1980	13.6210
 2.1990	13.6450
 2.2000	13.6680
 2.2010	13.6890
 2.2020	13.7080
 2.2030	13.7230
 2.2040	13.7400
 2.2050	13.7560
 2.2060	13.7720
 2.2070	13.7850
 2.2080	13.7990
 2.2090	13.8100
 2.2100	13.8150
 2.2110	13.8250
 2.2120	13.8370
 2.2130	13.8460
 2.2140	13.8560
 2.2150	13.8620
 2.2160	13.8630
 2.2170	13.8680
 2.2180	13.8750
 2.2190	13.8770
 2.2200	13.8810
 2.2210	13.8780
 2.2220	13.8680
 2.2230	13.8610
 2.2240	13.8540
 2.2250	13.8440
 2.2260	13.8340
 2.2270	13.8170
 2.2280	13.7960
 2.2290	13.7700
 2.2300	13.7410
 2.2310	13.7060
 2.2320	13.6690
 2.2330	13.6330
 2.2340	13.5980
 2.2350	13.5660
 2.2360	13.5240
 2.2370	13.4780
 2.2380	13.4310
 2.2390	13.3750
 2.2400	13.3250
 2.2410	13.2790
 2.2420	13.2270
 2.2430	13.1740
 2.2440	13.1180
 2.2450	13.0560
 2.2460	12.9950
 2.2470	12.9290
 2.2480	12.8670
 2.2490	12.8050
 2.2500	12.7450
 2.2510	12.6900
 2.2520	12.6300
 2.2530	12.5670
 2.2540	12.5050
 2.2550	12.4430
 2.2560	12.3810
 2.2570	12.3210
 2.2580	12.2610
 2.2590	12.2000
 2.2600	12.1390
 2.2610	12.0770
 2.2620	12.0160
 2.2630	11.9570
 2.2640	11.8950
 2.2650	11.8340
 2.2660	11.7760
 2.2670	11.7160
 2.2680	11.6550
 2.2690	11.5940
 2.2700	11.5320
 2.2710	11.4760
 2.2720	11.4210
 2.2730	11.3690
 2.2740	11.3230
 2.2750	11.2720
 2.2760	11.2180
 2.2770	11.1680
 2.2780	11.1190
 2.2790	11.0690
 2.2800	11.0230
 2.2810	10.9750
 2.2820	10.9270
 2.2830	10.8760
 2.2840	10.8240
 2.2850	10.7740
 2.2860	10.7200
 2.2870	10.6700
 2.2880	10.6260
 2.2890	10.5760
 2.2900	10.5250
 2.2910	10.4700
 2.2920	10.4090
 2.2930	10.3530
 2.2940	10.2960
 2.2950	10.2400
 2.2960	10.1900
 2.2970	10.1390
 2.2980	10.0880
 2.2990	10.0380
 2.3000	 9.9900
 2.3010	 9.9430
 2.3020	 9.8950
 2.3030	 9.8500
 2.3040	 9.8090
 2.3050	 9.7720
 2.3060	 9.7420
 2.3070	 9.7200
 2.3080	 9.7010
 2.3090	 9.6860
 2.3100	 9.6690
 2.3110	 9.6490
 2.3120	 9.6370
 2.3130	 9.6270
 2.3140	 9.6220
 2.3150	 9.6260
 2.3160	 9.6210
 2.3170	 9.6170
 2.3180	 9.6080
 2.3190	 9.5910
 2.3200	 9.5790
 2.3210	 9.5640
 2.3220	 9.5520
 2.3230	 9.5410
 2.3240	 9.5290
 2.3250	 9.5220
 2.3260	 9.5040
 2.3270	 9.4820
 2.3280	 9.4560
 2.3290	 9.4200
 2.3300	 9.3860
 2.3310	 9.3520
 2.3320	 9.3170
 2.3330	 9.2790
 2.3340	 9.2430
 2.3350	 9.2050
 2.3360	 9.1700
 2.3370	 9.1380
 2.3380	 9.1030
 2.3390	 9.0690
 2.3400	 9.0350
 2.3410	 8.9960
 2.3420	 8.9620
 2.3430	 8.9310
 2.3440	 8.9010
 2.3450	 8.8730
 2.3460	 8.8460
 2.3470	 8.8220
 2.3480	 8.7960
 2.3490	 8.7680
 2.3500	 8.7440
 2.3510	 8.7200
 2.3520	 8.6980
 2.3530	 8.6820
 2.3540	 8.6660
 2.3550	 8.6450
 2.3560	 8.6320
 2.3570	 8.6120
 2.3580	 8.5940
 2.3590	 8.5800
 2.3600	 8.5570
 2.3610	 8.5380
 2.3620	 8.5150
 2.3630	 8.4860
 2.3640	 8.4650
 2.3650	 8.4390
 2.3660	 8.4160
 2.3670	 8.4000
 2.3680	 8.3720
 2.3690	 8.3460
 2.3700	 8.3230
 2.3710	 8.2950
 2.3720	 8.2800
 2.3730	 8.2650
 2.3740	 8.2380
 2.3750	 8.2150
 2.3760	 8.1870
 2.3770	 8.1550
 2.3780	 8.1310
 2.3790	 8.1020
 2.3800	 8.0740
 2.3810	 8.0510
 2.3820	 8.0230
 2.3830	 7.9950
 2.3840	 7.9620
 2.3850	 7.9280
 2.3860	 7.9100
 2.3870	 7.8960
 2.3880	 7.8720
 2.3890	 7.8390
 2.3900	 7.7970
 2.3910	 7.7560
 2.3920	 7.7260
 2.3930	 7.7110
 2.3940	 7.6880
 2.3950	 7.6540
 2.3960	 7.6230
 2.3970	 7.5810
 2.3980	 7.5400
 2.3990	 7.5090
 2.4000	 7.4770
 2.4010	 7.4410
 2.4020	 7.4040
 2.4030	 7.3770
 2.4040	 7.3420
 2.4050	 7.3120
 2.4060	 7.2770
 2.4070	 7.2270
 2.4080	 7.1840
 2.4090	 7.1290
 2.4100	 7.0900
 2.4110	 7.0610
 2.4120	 7.0160
 2.4130	 6.9800
 2.4140	 6.9400
 2.4150	 6.8960
 2.4160	 6.8580
 2.4170	 6.8300
 2.4180	 6.8010
 2.4190	 6.7590
 2.4200	 6.7180
 2.4210	 6.6740
 2.4220	 6.6350
 2.4230	 6.6090
 2.4240	 6.5800
 2.4250	 6.5380
 2.4260	 6.5020
 2.4270	 6.4740
 2.4280	 6.4370
 2.4290	 6.4100
 2.4300	 6.3800
 2.4310	 6.3290
 2.4320	 6.2850
 2.4330	 6.2360
 2.4340	 6.1960
 2.4350	 6.1680
 2.4360	 6.1250
 2.4370	 6.0940
 2.4380	 6.0530
 2.4390	 5.9970
 2.4400	 5.9610
 2.4410	 5.9360
 2.4420	 5.8990
 2.4430	 5.8650
 2.4440	 5.8380
 2.4450	 5.8000
 2.4460	 5.7540
 2.4470	 5.7120
 2.4480	 5.6690
 2.4490	 5.6150
 2.4500	 5.5810
 2.4510	 5.5580
 2.4520	 5.5260
 2.4530	 5.4990
 2.4540	 5.4700
 2.4550	 5.4390
 2.4560	 5.4020
 2.4570	 5.3590
 2.4580	 5.3110
 2.4590	 5.2650
 2.4600	 5.2300
 2.4610	 5.2070
 2.4620	 5.2110
 2.4630	 5.2060
 2.4640	 5.1800
 2.4650	 5.1560
 2.4660	 5.1200
 2.4670	 5.0720
 2.4680	 5.0320
 2.4690	 5.0090
 2.4700	 4.9820
 2.4710	 4.9500
 2.4720	 4.9290
 2.4730	 4.9140
 2.4740	 4.8950
 2.4750	 4.8810
 2.4760	 4.8820
 2.4770	 4.9010
 2.4780	 4.8930
 2.4790	 4.8800
 2.4800	 4.8550
 2.4810	 4.8030
 2.4820	 4.7610
 2.4830	 4.7190
 2.4840	 4.6770
 2.4850	 4.6850
 2.4860	 4.7150
 2.4870	 4.7360
 2.4880	 4.7840
 2.4890	 4.7540
 2.4900	 4.6970
 2.4910	 4.6820
 2.4920	 4.6520
 2.4930	 4.6420
 2.4940	 4.6360
 2.4950	 4.5900
 2.4960	 4.5170
 2.4970	 4.4780
 2.4980	 4.4710
 2.4990	 4.4820
 2.5000	 4.5290
