Name: Baccharis pilularis 3
Type: vegetation
Class: Shrub
Genus: Baccharis
Species: pilularis
Sample No.: VH005
Owner: UCSB
Wavelength Range: VSWIR
Origin: 34.418; -119.8456; WGS84
Collection Date: 4/1/2013
Description: Samples were collected as part of the HyspIRI Airborne Campaign. 48 individual plants were sampled in three times in 2013 - spring  summer  and fall. The name of the sample includes a 1  2  or 3 which references a different individual of the species. Samples were taken to JPL and processed within 48 hours of collection. The same leaves were processed in the Nicolet and then measured using the ASD.
Measurement: Bidirectional reflectance
First Column: X
Second Column: Y
X Units: Wavelength (micrometers)
Y Units: Reflectance (percentage)
First X Value: 0.35
Last X Value: 2.5
Number of X Values: 2151
Additional Information: vegetation.shrub.baccharis.pilularis.vswir.vh005.ucsb.asd.ancillary.txt

 0.3500	 3.6000
 0.3510	 3.8630
 0.3520	 3.6580
 0.3530	 3.4500
 0.3540	 3.6060
 0.3550	 3.6840
 0.3560	 3.5940
 0.3570	 3.4530
 0.3580	 3.4570
 0.3590	 3.5270
 0.3600	 3.5980
 0.3610	 3.6260
 0.3620	 3.5880
 0.3630	 3.6070
 0.3640	 3.6140
 0.3650	 3.5380
 0.3660	 3.5200
 0.3670	 3.4770
 0.3680	 3.4280
 0.3690	 3.4580
 0.3700	 3.5230
 0.3710	 3.5450
 0.3720	 3.5190
 0.3730	 3.5790
 0.3740	 3.6190
 0.3750	 3.6120
 0.3760	 3.5640
 0.3770	 3.4990
 0.3780	 3.5420
 0.3790	 3.6430
 0.3800	 3.6190
 0.3810	 3.5890
 0.3820	 3.6100
 0.3830	 3.6720
 0.3840	 3.6440
 0.3850	 3.6090
 0.3860	 3.5880
 0.3870	 3.5880
 0.3880	 3.6790
 0.3890	 3.7370
 0.3900	 3.7070
 0.3910	 3.6300
 0.3920	 3.6610
 0.3930	 3.7140
 0.3940	 3.7040
 0.3950	 3.6820
 0.3960	 3.7090
 0.3970	 3.7750
 0.3980	 3.8350
 0.3990	 3.8650
 0.4000	 3.8610
 0.4010	 3.8520
 0.4020	 3.8900
 0.4030	 3.9300
 0.4040	 3.9650
 0.4050	 3.9970
 0.4060	 4.0200
 0.4070	 4.0300
 0.4080	 4.0420
 0.4090	 4.0820
 0.4100	 4.1420
 0.4110	 4.1930
 0.4120	 4.2240
 0.4130	 4.2440
 0.4140	 4.2830
 0.4150	 4.3340
 0.4160	 4.3780
 0.4170	 4.3980
 0.4180	 4.4350
 0.4190	 4.4900
 0.4200	 4.5260
 0.4210	 4.5770
 0.4220	 4.6180
 0.4230	 4.6360
 0.4240	 4.6730
 0.4250	 4.7030
 0.4260	 4.7370
 0.4270	 4.7930
 0.4280	 4.8160
 0.4290	 4.8460
 0.4300	 4.8930
 0.4310	 4.9180
 0.4320	 4.9380
 0.4330	 4.9650
 0.4340	 5.0040
 0.4350	 5.0320
 0.4360	 5.0560
 0.4370	 5.0790
 0.4380	 5.0930
 0.4390	 5.1090
 0.4400	 5.1280
 0.4410	 5.1530
 0.4420	 5.1780
 0.4430	 5.2050
 0.4440	 5.2320
 0.4450	 5.2580
 0.4460	 5.2750
 0.4470	 5.2960
 0.4480	 5.3240
 0.4490	 5.3460
 0.4500	 5.3620
 0.4510	 5.3830
 0.4520	 5.4180
 0.4530	 5.4510
 0.4540	 5.4720
 0.4550	 5.4840
 0.4560	 5.4980
 0.4570	 5.5120
 0.4580	 5.5260
 0.4590	 5.5380
 0.4600	 5.5390
 0.4610	 5.5430
 0.4620	 5.5560
 0.4630	 5.5750
 0.4640	 5.5780
 0.4650	 5.5790
 0.4660	 5.5880
 0.4670	 5.6100
 0.4680	 5.6020
 0.4690	 5.5960
 0.4700	 5.6130
 0.4710	 5.6070
 0.4720	 5.6110
 0.4730	 5.6230
 0.4740	 5.6240
 0.4750	 5.6220
 0.4760	 5.6250
 0.4770	 5.6320
 0.4780	 5.6330
 0.4790	 5.6460
 0.4800	 5.6580
 0.4810	 5.6570
 0.4820	 5.6680
 0.4830	 5.6810
 0.4840	 5.6910
 0.4850	 5.7020
 0.4860	 5.7200
 0.4870	 5.7380
 0.4880	 5.7550
 0.4890	 5.7850
 0.4900	 5.8060
 0.4910	 5.8230
 0.4920	 5.8510
 0.4930	 5.8950
 0.4940	 5.9340
 0.4950	 5.9620
 0.4960	 6.0080
 0.4970	 6.0530
 0.4980	 6.1010
 0.4990	 6.1580
 0.5000	 6.2280
 0.5010	 6.3050
 0.5020	 6.3840
 0.5030	 6.4640
 0.5040	 6.5610
 0.5050	 6.6660
 0.5060	 6.7740
 0.5070	 6.8960
 0.5080	 7.0270
 0.5090	 7.1680
 0.5100	 7.3240
 0.5110	 7.4840
 0.5120	 7.6580
 0.5130	 7.8480
 0.5140	 8.0540
 0.5150	 8.2660
 0.5160	 8.4860
 0.5170	 8.7180
 0.5180	 8.9580
 0.5190	 9.2050
 0.5200	 9.4560
 0.5210	 9.7130
 0.5220	 9.9670
 0.5230	10.2210
 0.5240	10.4720
 0.5250	10.7050
 0.5260	10.9300
 0.5270	11.1480
 0.5280	11.3540
 0.5290	11.5440
 0.5300	11.7170
 0.5310	11.8750
 0.5320	12.0270
 0.5330	12.1600
 0.5340	12.2780
 0.5350	12.3860
 0.5360	12.4810
 0.5370	12.5650
 0.5380	12.6410
 0.5390	12.7120
 0.5400	12.7820
 0.5410	12.8480
 0.5420	12.9100
 0.5430	12.9750
 0.5440	13.0330
 0.5450	13.0860
 0.5460	13.1370
 0.5470	13.1690
 0.5480	13.1920
 0.5490	13.2130
 0.5500	13.2250
 0.5510	13.2350
 0.5520	13.2370
 0.5530	13.2230
 0.5540	13.1940
 0.5550	13.1530
 0.5560	13.0990
 0.5570	13.0310
 0.5580	12.9490
 0.5590	12.8570
 0.5600	12.7600
 0.5610	12.6570
 0.5620	12.5460
 0.5630	12.4280
 0.5640	12.3050
 0.5650	12.1710
 0.5660	12.0290
 0.5670	11.8820
 0.5680	11.7310
 0.5690	11.5710
 0.5700	11.4100
 0.5710	11.2580
 0.5720	11.1160
 0.5730	10.9810
 0.5740	10.8570
 0.5750	10.7510
 0.5760	10.6460
 0.5770	10.5430
 0.5780	10.4430
 0.5790	10.3510
 0.5800	10.2660
 0.5810	10.1850
 0.5820	10.1040
 0.5830	10.0250
 0.5840	 9.9430
 0.5850	 9.8620
 0.5860	 9.7890
 0.5870	 9.7200
 0.5880	 9.6490
 0.5890	 9.5780
 0.5900	 9.5190
 0.5910	 9.4850
 0.5920	 9.4670
 0.5930	 9.4480
 0.5940	 9.4330
 0.5950	 9.4140
 0.5960	 9.3890
 0.5970	 9.3630
 0.5980	 9.3290
 0.5990	 9.2930
 0.6000	 9.2590
 0.6010	 9.2170
 0.6020	 9.1690
 0.6030	 9.1200
 0.6040	 9.0690
 0.6050	 9.0110
 0.6060	 8.9450
 0.6070	 8.8730
 0.6080	 8.7980
 0.6090	 8.7190
 0.6100	 8.6410
 0.6110	 8.5710
 0.6120	 8.4890
 0.6130	 8.4010
 0.6140	 8.3140
 0.6150	 8.2370
 0.6160	 8.1620
 0.6170	 8.0920
 0.6180	 8.0320
 0.6190	 7.9770
 0.6200	 7.9260
 0.6210	 7.8820
 0.6220	 7.8430
 0.6230	 7.8070
 0.6240	 7.7760
 0.6250	 7.7520
 0.6260	 7.7270
 0.6270	 7.7120
 0.6280	 7.7010
 0.6290	 7.6870
 0.6300	 7.6770
 0.6310	 7.6690
 0.6320	 7.6590
 0.6330	 7.6400
 0.6340	 7.6170
 0.6350	 7.5890
 0.6360	 7.5530
 0.6370	 7.5110
 0.6380	 7.4630
 0.6390	 7.4060
 0.6400	 7.3440
 0.6410	 7.2780
 0.6420	 7.2100
 0.6430	 7.1390
 0.6440	 7.0610
 0.6450	 6.9870
 0.6460	 6.9130
 0.6470	 6.8410
 0.6480	 6.7730
 0.6490	 6.7100
 0.6500	 6.6540
 0.6510	 6.6040
 0.6520	 6.5530
 0.6530	 6.5050
 0.6540	 6.4600
 0.6550	 6.4100
 0.6560	 6.3570
 0.6570	 6.3010
 0.6580	 6.2400
 0.6590	 6.1770
 0.6600	 6.1140
 0.6610	 6.0490
 0.6620	 5.9860
 0.6630	 5.9310
 0.6640	 5.8820
 0.6650	 5.8390
 0.6660	 5.7980
 0.6670	 5.7660
 0.6680	 5.7440
 0.6690	 5.7300
 0.6700	 5.7210
 0.6710	 5.7170
 0.6720	 5.7190
 0.6730	 5.7280
 0.6740	 5.7390
 0.6750	 5.7560
 0.6760	 5.7800
 0.6770	 5.8060
 0.6780	 5.8360
 0.6790	 5.8730
 0.6800	 5.9180
 0.6810	 5.9660
 0.6820	 6.0240
 0.6830	 6.0940
 0.6840	 6.1760
 0.6850	 6.2720
 0.6860	 6.3870
 0.6870	 6.5250
 0.6880	 6.6930
 0.6890	 6.9000
 0.6900	 7.1510
 0.6910	 7.4510
 0.6920	 7.8050
 0.6930	 8.2140
 0.6940	 8.6800
 0.6950	 9.2090
 0.6960	 9.7930
 0.6970	10.4300
 0.6980	11.1190
 0.6990	11.8530
 0.7000	12.6250
 0.7010	13.4280
 0.7020	14.2550
 0.7030	15.0940
 0.7040	15.9430
 0.7050	16.7980
 0.7060	17.6530
 0.7070	18.5100
 0.7080	19.3590
 0.7090	20.1910
 0.7100	21.0170
 0.7110	21.8360
 0.7120	22.6420
 0.7130	23.4250
 0.7140	24.2000
 0.7150	24.9650
 0.7160	25.7120
 0.7170	26.4350
 0.7180	27.1380
 0.7190	27.8210
 0.7200	28.4870
 0.7210	29.1320
 0.7220	29.7520
 0.7230	30.3480
 0.7240	30.9240
 0.7250	31.4730
 0.7260	31.9940
 0.7270	32.4900
 0.7280	32.9660
 0.7290	33.4140
 0.7300	33.8360
 0.7310	34.2340
 0.7320	34.6100
 0.7330	34.9620
 0.7340	35.2930
 0.7350	35.6090
 0.7360	35.9050
 0.7370	36.1810
 0.7380	36.4360
 0.7390	36.6750
 0.7400	36.8920
 0.7410	37.0960
 0.7420	37.2980
 0.7430	37.4740
 0.7440	37.6370
 0.7450	37.7920
 0.7460	37.9320
 0.7470	38.0580
 0.7480	38.1700
 0.7490	38.2700
 0.7500	38.3640
 0.7510	38.4590
 0.7520	38.5470
 0.7530	38.6200
 0.7540	38.6840
 0.7550	38.7470
 0.7560	38.8030
 0.7570	38.8430
 0.7580	38.8930
 0.7590	38.9400
 0.7600	38.9770
 0.7610	39.0130
 0.7620	39.0420
 0.7630	39.0670
 0.7640	39.0980
 0.7650	39.1230
 0.7660	39.1440
 0.7670	39.1640
 0.7680	39.1840
 0.7690	39.2010
 0.7700	39.2170
 0.7710	39.2340
 0.7720	39.2520
 0.7730	39.2590
 0.7740	39.2660
 0.7750	39.2840
 0.7760	39.2990
 0.7770	39.3130
 0.7780	39.3280
 0.7790	39.3430
 0.7800	39.3520
 0.7810	39.3620
 0.7820	39.3760
 0.7830	39.3920
 0.7840	39.4030
 0.7850	39.4090
 0.7860	39.4160
 0.7870	39.4250
 0.7880	39.4380
 0.7890	39.4540
 0.7900	39.4680
 0.7910	39.4700
 0.7920	39.4720
 0.7930	39.4810
 0.7940	39.4940
 0.7950	39.5020
 0.7960	39.5070
 0.7970	39.5110
 0.7980	39.5180
 0.7990	39.5240
 0.8000	39.5290
 0.8010	39.5330
 0.8020	39.5320
 0.8030	39.5320
 0.8040	39.5290
 0.8050	39.5200
 0.8060	39.5290
 0.8070	39.5290
 0.8080	39.5170
 0.8090	39.5160
 0.8100	39.5150
 0.8110	39.5160
 0.8120	39.5170
 0.8130	39.5170
 0.8140	39.5050
 0.8150	39.4930
 0.8160	39.4920
 0.8170	39.4900
 0.8180	39.4830
 0.8190	39.4730
 0.8200	39.4620
 0.8210	39.4610
 0.8220	39.4580
 0.8230	39.4450
 0.8240	39.4270
 0.8250	39.4160
 0.8260	39.4080
 0.8270	39.4000
 0.8280	39.3910
 0.8290	39.3750
 0.8300	39.3590
 0.8310	39.3510
 0.8320	39.3470
 0.8330	39.3440
 0.8340	39.3360
 0.8350	39.3210
 0.8360	39.3110
 0.8370	39.3040
 0.8380	39.2980
 0.8390	39.2910
 0.8400	39.2930
 0.8410	39.2940
 0.8420	39.2880
 0.8430	39.2830
 0.8440	39.2830
 0.8450	39.2880
 0.8460	39.2930
 0.8470	39.2860
 0.8480	39.2800
 0.8490	39.2760
 0.8500	39.2730
 0.8510	39.2760
 0.8520	39.2810
 0.8530	39.2850
 0.8540	39.2910
 0.8550	39.2860
 0.8560	39.2850
 0.8570	39.2930
 0.8580	39.3010
 0.8590	39.2970
 0.8600	39.2970
 0.8610	39.3080
 0.8620	39.3130
 0.8630	39.3110
 0.8640	39.3150
 0.8650	39.3280
 0.8660	39.3300
 0.8670	39.3370
 0.8680	39.3500
 0.8690	39.3640
 0.8700	39.3710
 0.8710	39.3720
 0.8720	39.3730
 0.8730	39.3810
 0.8740	39.3840
 0.8750	39.3900
 0.8760	39.4040
 0.8770	39.4200
 0.8780	39.4300
 0.8790	39.4410
 0.8800	39.4540
 0.8810	39.4590
 0.8820	39.4650
 0.8830	39.4730
 0.8840	39.4840
 0.8850	39.4940
 0.8860	39.5020
 0.8870	39.5120
 0.8880	39.5270
 0.8890	39.5450
 0.8900	39.5530
 0.8910	39.5570
 0.8920	39.5680
 0.8930	39.5890
 0.8940	39.6010
 0.8950	39.6060
 0.8960	39.6120
 0.8970	39.6170
 0.8980	39.6310
 0.8990	39.6490
 0.9000	39.6440
 0.9010	39.6440
 0.9020	39.6570
 0.9030	39.6780
 0.9040	39.6930
 0.9050	39.7100
 0.9060	39.7270
 0.9070	39.7370
 0.9080	39.7290
 0.9090	39.7360
 0.9100	39.7530
 0.9110	39.7670
 0.9120	39.7790
 0.9130	39.7810
 0.9140	39.7820
 0.9150	39.7910
 0.9160	39.7980
 0.9170	39.8010
 0.9180	39.8050
 0.9190	39.8150
 0.9200	39.8130
 0.9210	39.8120
 0.9220	39.8160
 0.9230	39.8190
 0.9240	39.8140
 0.9250	39.8050
 0.9260	39.7960
 0.9270	39.7870
 0.9280	39.7780
 0.9290	39.7680
 0.9300	39.7560
 0.9310	39.7390
 0.9320	39.7250
 0.9330	39.7090
 0.9340	39.6900
 0.9350	39.6740
 0.9360	39.6520
 0.9370	39.6190
 0.9380	39.5810
 0.9390	39.5580
 0.9400	39.5350
 0.9410	39.5070
 0.9420	39.4760
 0.9430	39.4540
 0.9440	39.4210
 0.9450	39.3840
 0.9460	39.3460
 0.9470	39.2910
 0.9480	39.2460
 0.9490	39.1980
 0.9500	39.1340
 0.9510	39.0710
 0.9520	39.0130
 0.9530	38.9510
 0.9540	38.8810
 0.9550	38.8120
 0.9560	38.7560
 0.9570	38.7070
 0.9580	38.6520
 0.9590	38.5890
 0.9600	38.5400
 0.9610	38.5090
 0.9620	38.4870
 0.9630	38.4570
 0.9640	38.4240
 0.9650	38.4010
 0.9660	38.3940
 0.9670	38.3910
 0.9680	38.3820
 0.9690	38.3680
 0.9700	38.3560
 0.9710	38.3540
 0.9720	38.3490
 0.9730	38.3460
 0.9740	38.3510
 0.9750	38.3540
 0.9760	38.3600
 0.9770	38.3670
 0.9780	38.3720
 0.9790	38.3770
 0.9800	38.3870
 0.9810	38.3960
 0.9820	38.3970
 0.9830	38.4080
 0.9840	38.4300
 0.9850	38.4470
 0.9860	38.4500
 0.9870	38.4850
 0.9880	38.5180
 0.9890	38.5330
 0.9900	38.5330
 0.9910	38.5410
 0.9920	38.6240
 0.9930	38.7080
 0.9940	38.7920
 0.9950	38.8760
 0.9960	38.9600
 0.9970	39.0430
 0.9980	39.1270
 0.9990	39.2110
 1.0000	39.2950
 1.0010	39.3790
 1.0020	39.4620
 1.0030	39.5460
 1.0040	39.6300
 1.0050	39.7140
 1.0060	39.7970
 1.0070	39.8810
 1.0080	39.9650
 1.0090	40.0490
 1.0100	40.0490
 1.0110	40.0710
 1.0120	40.0910
 1.0130	40.1080
 1.0140	40.1260
 1.0150	40.1430
 1.0160	40.1610
 1.0170	40.1800
 1.0180	40.1990
 1.0190	40.2220
 1.0200	40.2470
 1.0210	40.2690
 1.0220	40.2880
 1.0230	40.3090
 1.0240	40.3270
 1.0250	40.3450
 1.0260	40.3630
 1.0270	40.3820
 1.0280	40.4030
 1.0290	40.4220
 1.0300	40.4430
 1.0310	40.4600
 1.0320	40.4780
 1.0330	40.4870
 1.0340	40.4960
 1.0350	40.5100
 1.0360	40.5270
 1.0370	40.5450
 1.0380	40.5640
 1.0390	40.5900
 1.0400	40.6090
 1.0410	40.6250
 1.0420	40.6390
 1.0430	40.6500
 1.0440	40.6620
 1.0450	40.6730
 1.0460	40.6850
 1.0470	40.6980
 1.0480	40.7100
 1.0490	40.7230
 1.0500	40.7340
 1.0510	40.7430
 1.0520	40.7530
 1.0530	40.7610
 1.0540	40.7680
 1.0550	40.7760
 1.0560	40.7850
 1.0570	40.7920
 1.0580	40.7980
 1.0590	40.8020
 1.0600	40.8040
 1.0610	40.8070
 1.0620	40.8130
 1.0630	40.8150
 1.0640	40.8150
 1.0650	40.8160
 1.0660	40.8120
 1.0670	40.8090
 1.0680	40.8070
 1.0690	40.8070
 1.0700	40.8060
 1.0710	40.8050
 1.0720	40.8030
 1.0730	40.8000
 1.0740	40.7960
 1.0750	40.7930
 1.0760	40.7870
 1.0770	40.7810
 1.0780	40.7740
 1.0790	40.7640
 1.0800	40.7560
 1.0810	40.7540
 1.0820	40.7450
 1.0830	40.7320
 1.0840	40.7210
 1.0850	40.7050
 1.0860	40.6900
 1.0870	40.6790
 1.0880	40.6720
 1.0890	40.6620
 1.0900	40.6530
 1.0910	40.6420
 1.0920	40.6300
 1.0930	40.6160
 1.0940	40.6000
 1.0950	40.5850
 1.0960	40.5690
 1.0970	40.5540
 1.0980	40.5400
 1.0990	40.5260
 1.1000	40.5110
 1.1010	40.4970
 1.1020	40.4820
 1.1030	40.4690
 1.1040	40.4550
 1.1050	40.4420
 1.1060	40.4280
 1.1070	40.4130
 1.1080	40.3980
 1.1090	40.3820
 1.1100	40.3670
 1.1110	40.3530
 1.1120	40.3360
 1.1130	40.3180
 1.1140	40.2990
 1.1150	40.2800
 1.1160	40.2600
 1.1170	40.2400
 1.1180	40.2170
 1.1190	40.1940
 1.1200	40.1670
 1.1210	40.1360
 1.1220	40.1020
 1.1230	40.0620
 1.1240	40.0180
 1.1250	39.9700
 1.1260	39.9200
 1.1270	39.8600
 1.1280	39.7960
 1.1290	39.7220
 1.1300	39.6420
 1.1310	39.5540
 1.1320	39.4580
 1.1330	39.3530
 1.1340	39.2380
 1.1350	39.1180
 1.1360	38.9910
 1.1370	38.8550
 1.1380	38.7170
 1.1390	38.5740
 1.1400	38.4230
 1.1410	38.2720
 1.1420	38.1190
 1.1430	37.9650
 1.1440	37.8150
 1.1450	37.6650
 1.1460	37.5220
 1.1470	37.3790
 1.1480	37.2460
 1.1490	37.1180
 1.1500	37.0020
 1.1510	36.8930
 1.1520	36.7930
 1.1530	36.7020
 1.1540	36.6210
 1.1550	36.5480
 1.1560	36.4860
 1.1570	36.4320
 1.1580	36.3860
 1.1590	36.3460
 1.1600	36.3130
 1.1610	36.2880
 1.1620	36.2660
 1.1630	36.2480
 1.1640	36.2330
 1.1650	36.2200
 1.1660	36.2110
 1.1670	36.2040
 1.1680	36.2000
 1.1690	36.1960
 1.1700	36.1930
 1.1710	36.1890
 1.1720	36.1860
 1.1730	36.1820
 1.1740	36.1780
 1.1750	36.1740
 1.1760	36.1690
 1.1770	36.1620
 1.1780	36.1560
 1.1790	36.1500
 1.1800	36.1450
 1.1810	36.1390
 1.1820	36.1320
 1.1830	36.1230
 1.1840	36.1130
 1.1850	36.1040
 1.1860	36.0960
 1.1870	36.0900
 1.1880	36.0850
 1.1890	36.0820
 1.1900	36.0800
 1.1910	36.0790
 1.1920	36.0790
 1.1930	36.0790
 1.1940	36.0820
 1.1950	36.0880
 1.1960	36.0960
 1.1970	36.1040
 1.1980	36.1140
 1.1990	36.1240
 1.2000	36.1340
 1.2010	36.1460
 1.2020	36.1630
 1.2030	36.1800
 1.2040	36.1980
 1.2050	36.2170
 1.2060	36.2350
 1.2070	36.2540
 1.2080	36.2740
 1.2090	36.2950
 1.2100	36.3170
 1.2110	36.3390
 1.2120	36.3620
 1.2130	36.3850
 1.2140	36.4100
 1.2150	36.4350
 1.2160	36.4610
 1.2170	36.4860
 1.2180	36.5110
 1.2190	36.5370
 1.2200	36.5630
 1.2210	36.5890
 1.2220	36.6140
 1.2230	36.6380
 1.2240	36.6600
 1.2250	36.6830
 1.2260	36.7070
 1.2270	36.7300
 1.2280	36.7540
 1.2290	36.7780
 1.2300	36.7990
 1.2310	36.8220
 1.2320	36.8430
 1.2330	36.8620
 1.2340	36.8830
 1.2350	36.9040
 1.2360	36.9220
 1.2370	36.9410
 1.2380	36.9580
 1.2390	36.9730
 1.2400	36.9900
 1.2410	37.0080
 1.2420	37.0240
 1.2430	37.0400
 1.2440	37.0550
 1.2450	37.0670
 1.2460	37.0820
 1.2470	37.0980
 1.2480	37.1110
 1.2490	37.1230
 1.2500	37.1340
 1.2510	37.1430
 1.2520	37.1510
 1.2530	37.1600
 1.2540	37.1690
 1.2550	37.1750
 1.2560	37.1790
 1.2570	37.1850
 1.2580	37.1860
 1.2590	37.1880
 1.2600	37.1900
 1.2610	37.1910
 1.2620	37.1900
 1.2630	37.1890
 1.2640	37.1880
 1.2650	37.1870
 1.2660	37.1840
 1.2670	37.1780
 1.2680	37.1730
 1.2690	37.1650
 1.2700	37.1540
 1.2710	37.1460
 1.2720	37.1370
 1.2730	37.1260
 1.2740	37.1170
 1.2750	37.1040
 1.2760	37.0880
 1.2770	37.0740
 1.2780	37.0580
 1.2790	37.0410
 1.2800	37.0250
 1.2810	37.0050
 1.2820	36.9830
 1.2830	36.9600
 1.2840	36.9320
 1.2850	36.9010
 1.2860	36.8690
 1.2870	36.8350
 1.2880	36.7990
 1.2890	36.7630
 1.2900	36.7270
 1.2910	36.6880
 1.2920	36.6480
 1.2930	36.6030
 1.2940	36.5530
 1.2950	36.5000
 1.2960	36.4470
 1.2970	36.3920
 1.2980	36.3340
 1.2990	36.2740
 1.3000	36.2120
 1.3010	36.1440
 1.3020	36.0760
 1.3030	36.0070
 1.3040	35.9320
 1.3050	35.8580
 1.3060	35.7820
 1.3070	35.7010
 1.3080	35.6160
 1.3090	35.5280
 1.3100	35.4360
 1.3110	35.3430
 1.3120	35.2470
 1.3130	35.1510
 1.3140	35.0510
 1.3150	34.9490
 1.3160	34.8430
 1.3170	34.7360
 1.3180	34.6250
 1.3190	34.5110
 1.3200	34.3970
 1.3210	34.2780
 1.3220	34.1560
 1.3230	34.0320
 1.3240	33.9030
 1.3250	33.7750
 1.3260	33.6460
 1.3270	33.5140
 1.3280	33.3840
 1.3290	33.2490
 1.3300	33.1130
 1.3310	32.9750
 1.3320	32.8340
 1.3330	32.6950
 1.3340	32.5560
 1.3350	32.4170
 1.3360	32.2800
 1.3370	32.1420
 1.3380	32.0030
 1.3390	31.8650
 1.3400	31.7260
 1.3410	31.5910
 1.3420	31.4580
 1.3430	31.3260
 1.3440	31.1940
 1.3450	31.0630
 1.3460	30.9300
 1.3470	30.8000
 1.3480	30.6710
 1.3490	30.5440
 1.3500	30.4190
 1.3510	30.2940
 1.3520	30.1680
 1.3530	30.0420
 1.3540	29.9150
 1.3550	29.7860
 1.3560	29.6580
 1.3570	29.5270
 1.3580	29.3950
 1.3590	29.2620
 1.3600	29.1240
 1.3610	28.9820
 1.3620	28.8340
 1.3630	28.6780
 1.3640	28.5140
 1.3650	28.3410
 1.3660	28.1620
 1.3670	27.9730
 1.3680	27.7740
 1.3690	27.5620
 1.3700	27.3350
 1.3710	27.0940
 1.3720	26.8380
 1.3730	26.5640
 1.3740	26.2770
 1.3750	25.9690
 1.3760	25.6430
 1.3770	25.2980
 1.3780	24.9290
 1.3790	24.5410
 1.3800	24.1340
 1.3810	23.7040
 1.3820	23.2640
 1.3830	22.8080
 1.3840	22.3400
 1.3850	21.8550
 1.3860	21.3670
 1.3870	20.8630
 1.3880	20.3630
 1.3890	19.8600
 1.3900	19.3540
 1.3910	18.8560
 1.3920	18.3600
 1.3930	17.8680
 1.3940	17.3870
 1.3950	16.9140
 1.3960	16.4550
 1.3970	16.0120
 1.3980	15.5840
 1.3990	15.1810
 1.4000	14.7950
 1.4010	14.4270
 1.4020	14.0830
 1.4030	13.7560
 1.4040	13.4490
 1.4050	13.1640
 1.4060	12.8990
 1.4070	12.6540
 1.4080	12.4280
 1.4090	12.2190
 1.4100	12.0290
 1.4110	11.8520
 1.4120	11.6910
 1.4130	11.5450
 1.4140	11.4110
 1.4150	11.2920
 1.4160	11.1860
 1.4170	11.0880
 1.4180	11.0020
 1.4190	10.9230
 1.4200	10.8520
 1.4210	10.7880
 1.4220	10.7320
 1.4230	10.6820
 1.4240	10.6390
 1.4250	10.6000
 1.4260	10.5670
 1.4270	10.5380
 1.4280	10.5140
 1.4290	10.4930
 1.4300	10.4770
 1.4310	10.4630
 1.4320	10.4530
 1.4330	10.4450
 1.4340	10.4410
 1.4350	10.4390
 1.4360	10.4410
 1.4370	10.4440
 1.4380	10.4490
 1.4390	10.4560
 1.4400	10.4640
 1.4410	10.4730
 1.4420	10.4840
 1.4430	10.4970
 1.4440	10.5100
 1.4450	10.5260
 1.4460	10.5420
 1.4470	10.5590
 1.4480	10.5770
 1.4490	10.5940
 1.4500	10.6130
 1.4510	10.6320
 1.4520	10.6520
 1.4530	10.6740
 1.4540	10.6960
 1.4550	10.7210
 1.4560	10.7480
 1.4570	10.7760
 1.4580	10.8070
 1.4590	10.8400
 1.4600	10.8770
 1.4610	10.9160
 1.4620	10.9600
 1.4630	11.0070
 1.4640	11.0560
 1.4650	11.1100
 1.4660	11.1680
 1.4670	11.2280
 1.4680	11.2940
 1.4690	11.3630
 1.4700	11.4350
 1.4710	11.5110
 1.4720	11.5900
 1.4730	11.6710
 1.4740	11.7540
 1.4750	11.8410
 1.4760	11.9300
 1.4770	12.0200
 1.4780	12.1120
 1.4790	12.2050
 1.4800	12.3000
 1.4810	12.3970
 1.4820	12.4960
 1.4830	12.5950
 1.4840	12.6970
 1.4850	12.7990
 1.4860	12.9020
 1.4870	13.0070
 1.4880	13.1100
 1.4890	13.2140
 1.4900	13.3200
 1.4910	13.4270
 1.4920	13.5350
 1.4930	13.6460
 1.4940	13.7560
 1.4950	13.8650
 1.4960	13.9750
 1.4970	14.0850
 1.4980	14.1970
 1.4990	14.3100
 1.5000	14.4230
 1.5010	14.5360
 1.5020	14.6490
 1.5030	14.7630
 1.5040	14.8770
 1.5050	14.9910
 1.5060	15.1050
 1.5070	15.2200
 1.5080	15.3340
 1.5090	15.4480
 1.5100	15.5630
 1.5110	15.6770
 1.5120	15.7920
 1.5130	15.9050
 1.5140	16.0200
 1.5150	16.1340
 1.5160	16.2470
 1.5170	16.3610
 1.5180	16.4740
 1.5190	16.5870
 1.5200	16.7000
 1.5210	16.8110
 1.5220	16.9240
 1.5230	17.0360
 1.5240	17.1470
 1.5250	17.2590
 1.5260	17.3690
 1.5270	17.4780
 1.5280	17.5880
 1.5290	17.6960
 1.5300	17.8040
 1.5310	17.9110
 1.5320	18.0170
 1.5330	18.1240
 1.5340	18.2300
 1.5350	18.3350
 1.5360	18.4400
 1.5370	18.5420
 1.5380	18.6450
 1.5390	18.7480
 1.5400	18.8490
 1.5410	18.9520
 1.5420	19.0540
 1.5430	19.1570
 1.5440	19.2580
 1.5450	19.3570
 1.5460	19.4550
 1.5470	19.5520
 1.5480	19.6490
 1.5490	19.7460
 1.5500	19.8420
 1.5510	19.9360
 1.5520	20.0300
 1.5530	20.1230
 1.5540	20.2150
 1.5550	20.3070
 1.5560	20.3970
 1.5570	20.4870
 1.5580	20.5750
 1.5590	20.6610
 1.5600	20.7480
 1.5610	20.8330
 1.5620	20.9160
 1.5630	21.0010
 1.5640	21.0830
 1.5650	21.1650
 1.5660	21.2460
 1.5670	21.3260
 1.5680	21.4060
 1.5690	21.4860
 1.5700	21.5650
 1.5710	21.6450
 1.5720	21.7210
 1.5730	21.7960
 1.5740	21.8720
 1.5750	21.9460
 1.5760	22.0210
 1.5770	22.0940
 1.5780	22.1660
 1.5790	22.2370
 1.5800	22.3070
 1.5810	22.3780
 1.5820	22.4470
 1.5830	22.5150
 1.5840	22.5820
 1.5850	22.6480
 1.5860	22.7150
 1.5870	22.7830
 1.5880	22.8480
 1.5890	22.9130
 1.5900	22.9760
 1.5910	23.0380
 1.5920	23.0990
 1.5930	23.1600
 1.5940	23.2200
 1.5950	23.2800
 1.5960	23.3380
 1.5970	23.3940
 1.5980	23.4520
 1.5990	23.5090
 1.6000	23.5650
 1.6010	23.6220
 1.6020	23.6760
 1.6030	23.7280
 1.6040	23.7790
 1.6050	23.8310
 1.6060	23.8810
 1.6070	23.9300
 1.6080	23.9780
 1.6090	24.0240
 1.6100	24.0690
 1.6110	24.1160
 1.6120	24.1590
 1.6130	24.2030
 1.6140	24.2450
 1.6150	24.2850
 1.6160	24.3270
 1.6170	24.3670
 1.6180	24.4060
 1.6190	24.4440
 1.6200	24.4820
 1.6210	24.5180
 1.6220	24.5540
 1.6230	24.5920
 1.6240	24.6280
 1.6250	24.6630
 1.6260	24.6980
 1.6270	24.7320
 1.6280	24.7650
 1.6290	24.7970
 1.6300	24.8290
 1.6310	24.8600
 1.6320	24.8900
 1.6330	24.9180
 1.6340	24.9450
 1.6350	24.9730
 1.6360	24.9990
 1.6370	25.0270
 1.6380	25.0570
 1.6390	25.0850
 1.6400	25.1110
 1.6410	25.1360
 1.6420	25.1590
 1.6430	25.1810
 1.6440	25.2030
 1.6450	25.2230
 1.6460	25.2400
 1.6470	25.2570
 1.6480	25.2710
 1.6490	25.2840
 1.6500	25.2960
 1.6510	25.3070
 1.6520	25.3170
 1.6530	25.3220
 1.6540	25.3250
 1.6550	25.3260
 1.6560	25.3240
 1.6570	25.3220
 1.6580	25.3200
 1.6590	25.3160
 1.6600	25.3120
 1.6610	25.3070
 1.6620	25.3010
 1.6630	25.2950
 1.6640	25.2890
 1.6650	25.2810
 1.6660	25.2720
 1.6670	25.2610
 1.6680	25.2500
 1.6690	25.2370
 1.6700	25.2230
 1.6710	25.2070
 1.6720	25.1870
 1.6730	25.1650
 1.6740	25.1430
 1.6750	25.1200
 1.6760	25.0970
 1.6770	25.0730
 1.6780	25.0440
 1.6790	25.0110
 1.6800	24.9780
 1.6810	24.9420
 1.6820	24.9050
 1.6830	24.8670
 1.6840	24.8260
 1.6850	24.7840
 1.6860	24.7410
 1.6870	24.6960
 1.6880	24.6510
 1.6890	24.6050
 1.6900	24.5600
 1.6910	24.5180
 1.6920	24.4750
 1.6930	24.4340
 1.6940	24.3920
 1.6950	24.3510
 1.6960	24.3080
 1.6970	24.2630
 1.6980	24.2190
 1.6990	24.1760
 1.7000	24.1310
 1.7010	24.0860
 1.7020	24.0420
 1.7030	23.9960
 1.7040	23.9520
 1.7050	23.9100
 1.7060	23.8650
 1.7070	23.8190
 1.7080	23.7730
 1.7090	23.7270
 1.7100	23.6820
 1.7110	23.6370
 1.7120	23.5920
 1.7130	23.5460
 1.7140	23.5010
 1.7150	23.4550
 1.7160	23.4100
 1.7170	23.3650
 1.7180	23.3210
 1.7190	23.2780
 1.7200	23.2340
 1.7210	23.1900
 1.7220	23.1450
 1.7230	23.1000
 1.7240	23.0580
 1.7250	23.0160
 1.7260	22.9730
 1.7270	22.9300
 1.7280	22.8870
 1.7290	22.8430
 1.7300	22.8050
 1.7310	22.7630
 1.7320	22.7220
 1.7330	22.6790
 1.7340	22.6340
 1.7350	22.5880
 1.7360	22.5420
 1.7370	22.4940
 1.7380	22.4430
 1.7390	22.3930
 1.7400	22.3420
 1.7410	22.2880
 1.7420	22.2320
 1.7430	22.1750
 1.7440	22.1150
 1.7450	22.0540
 1.7460	21.9920
 1.7470	21.9290
 1.7480	21.8640
 1.7490	21.7990
 1.7500	21.7340
 1.7510	21.6670
 1.7520	21.5980
 1.7530	21.5300
 1.7540	21.4610
 1.7550	21.3930
 1.7560	21.3260
 1.7570	21.2600
 1.7580	21.1940
 1.7590	21.1280
 1.7600	21.0630
 1.7610	20.9990
 1.7620	20.9370
 1.7630	20.8800
 1.7640	20.8230
 1.7650	20.7670
 1.7660	20.7130
 1.7670	20.6590
 1.7680	20.6070
 1.7690	20.5590
 1.7700	20.5110
 1.7710	20.4660
 1.7720	20.4210
 1.7730	20.3750
 1.7740	20.3320
 1.7750	20.2920
 1.7760	20.2530
 1.7770	20.2160
 1.7780	20.1800
 1.7790	20.1450
 1.7800	20.1100
 1.7810	20.0750
 1.7820	20.0440
 1.7830	20.0130
 1.7840	19.9850
 1.7850	19.9610
 1.7860	19.9370
 1.7870	19.9140
 1.7880	19.8920
 1.7890	19.8730
 1.7900	19.8590
 1.7910	19.8440
 1.7920	19.8320
 1.7930	19.8200
 1.7940	19.8030
 1.7950	19.7920
 1.7960	19.7850
 1.7970	19.7760
 1.7980	19.7690
 1.7990	19.7620
 1.8000	19.7530
 1.8010	19.7470
 1.8020	19.7430
 1.8030	19.7390
 1.8040	19.7370
 1.8050	19.7350
 1.8060	19.7340
 1.8070	19.7310
 1.8080	19.7260
 1.8090	19.7230
 1.8100	19.7200
 1.8110	19.7160
 1.8120	19.7120
 1.8130	19.7040
 1.8140	19.6980
 1.8150	19.6930
 1.8160	19.6840
 1.8170	19.6760
 1.8180	19.6680
 1.8190	19.6570
 1.8200	19.6470
 1.8210	19.6350
 1.8220	19.6220
 1.8230	19.6080
 1.8240	19.5910
 1.8250	19.5690
 1.8260	19.5490
 1.8270	19.4920
 1.8280	19.4350
 1.8290	19.3780
 1.8300	19.3210
 1.8310	19.2640
 1.8320	19.2070
 1.8330	19.1500
 1.8340	19.0930
 1.8350	19.0930
 1.8360	19.0410
 1.8370	18.9850
 1.8380	18.9230
 1.8390	18.8550
 1.8400	18.7800
 1.8410	18.7000
 1.8420	18.6130
 1.8430	18.5220
 1.8440	18.4230
 1.8450	18.3190
 1.8460	18.2080
 1.8470	18.0930
 1.8480	17.9700
 1.8490	17.8340
 1.8500	17.6890
 1.8510	17.5330
 1.8520	17.3670
 1.8530	17.1870
 1.8540	17.0020
 1.8550	16.8080
 1.8560	16.5990
 1.8570	16.3820
 1.8580	16.1560
 1.8590	15.9180
 1.8600	15.6680
 1.8610	15.4050
 1.8620	15.1320
 1.8630	14.8510
 1.8640	14.5580
 1.8650	14.2550
 1.8660	13.9410
 1.8670	13.6110
 1.8680	13.2730
 1.8690	12.9270
 1.8700	12.5750
 1.8710	12.2160
 1.8720	11.8560
 1.8730	11.4910
 1.8740	11.1230
 1.8750	10.7580
 1.8760	10.3940
 1.8770	10.0370
 1.8780	 9.6900
 1.8790	 9.3490
 1.8800	 9.0210
 1.8810	 8.7030
 1.8820	 8.3930
 1.8830	 8.0920
 1.8840	 7.8040
 1.8850	 7.5270
 1.8860	 7.2650
 1.8870	 7.0180
 1.8880	 6.7830
 1.8890	 6.5620
 1.8900	 6.3560
 1.8910	 6.1650
 1.8920	 5.9870
 1.8930	 5.8260
 1.8940	 5.6780
 1.8950	 5.5430
 1.8960	 5.4200
 1.8970	 5.3110
 1.8980	 5.2150
 1.8990	 5.1280
 1.9000	 5.0470
 1.9010	 4.9760
 1.9020	 4.9120
 1.9030	 4.8560
 1.9040	 4.8060
 1.9050	 4.7630
 1.9060	 4.7270
 1.9070	 4.6920
 1.9080	 4.6630
 1.9090	 4.6380
 1.9100	 4.6150
 1.9110	 4.5940
 1.9120	 4.5750
 1.9130	 4.5600
 1.9140	 4.5480
 1.9150	 4.5380
 1.9160	 4.5300
 1.9170	 4.5220
 1.9180	 4.5140
 1.9190	 4.5070
 1.9200	 4.4990
 1.9210	 4.4970
 1.9220	 4.4960
 1.9230	 4.4990
 1.9240	 4.4990
 1.9250	 4.5010
 1.9260	 4.5020
 1.9270	 4.5010
 1.9280	 4.5050
 1.9290	 4.5100
 1.9300	 4.5160
 1.9310	 4.5240
 1.9320	 4.5300
 1.9330	 4.5370
 1.9340	 4.5430
 1.9350	 4.5500
 1.9360	 4.5570
 1.9370	 4.5660
 1.9380	 4.5760
 1.9390	 4.5890
 1.9400	 4.6020
 1.9410	 4.6140
 1.9420	 4.6260
 1.9430	 4.6370
 1.9440	 4.6510
 1.9450	 4.6650
 1.9460	 4.6800
 1.9470	 4.6980
 1.9480	 4.7140
 1.9490	 4.7280
 1.9500	 4.7410
 1.9510	 4.7520
 1.9520	 4.7670
 1.9530	 4.7840
 1.9540	 4.8020
 1.9550	 4.8210
 1.9560	 4.8450
 1.9570	 4.8650
 1.9580	 4.8840
 1.9590	 4.9040
 1.9600	 4.9230
 1.9610	 4.9440
 1.9620	 4.9650
 1.9630	 4.9870
 1.9640	 5.0100
 1.9650	 5.0330
 1.9660	 5.0570
 1.9670	 5.0800
 1.9680	 5.1060
 1.9690	 5.1330
 1.9700	 5.1590
 1.9710	 5.1850
 1.9720	 5.2130
 1.9730	 5.2390
 1.9740	 5.2670
 1.9750	 5.2980
 1.9760	 5.3280
 1.9770	 5.3580
 1.9780	 5.3870
 1.9790	 5.4160
 1.9800	 5.4430
 1.9810	 5.4730
 1.9820	 5.5040
 1.9830	 5.5350
 1.9840	 5.5680
 1.9850	 5.6000
 1.9860	 5.6330
 1.9870	 5.6640
 1.9880	 5.6960
 1.9890	 5.7310
 1.9900	 5.7670
 1.9910	 5.8050
 1.9920	 5.8420
 1.9930	 5.8800
 1.9940	 5.9160
 1.9950	 5.9490
 1.9960	 5.9850
 1.9970	 6.0210
 1.9980	 6.0570
 1.9990	 6.0960
 2.0000	 6.1340
 2.0010	 6.1710
 2.0020	 6.2090
 2.0030	 6.2460
 2.0040	 6.2830
 2.0050	 6.3220
 2.0060	 6.3620
 2.0070	 6.4020
 2.0080	 6.4430
 2.0090	 6.4830
 2.0100	 6.5230
 2.0110	 6.5620
 2.0120	 6.6000
 2.0130	 6.6400
 2.0140	 6.6800
 2.0150	 6.7190
 2.0160	 6.7610
 2.0170	 6.8030
 2.0180	 6.8430
 2.0190	 6.8830
 2.0200	 6.9230
 2.0210	 6.9620
 2.0220	 7.0010
 2.0230	 7.0400
 2.0240	 7.0770
 2.0250	 7.1120
 2.0260	 7.1500
 2.0270	 7.1910
 2.0280	 7.2300
 2.0290	 7.2700
 2.0300	 7.3100
 2.0310	 7.3480
 2.0320	 7.3840
 2.0330	 7.4210
 2.0340	 7.4590
 2.0350	 7.4970
 2.0360	 7.5360
 2.0370	 7.5750
 2.0380	 7.6150
 2.0390	 7.6530
 2.0400	 7.6910
 2.0410	 7.7280
 2.0420	 7.7650
 2.0430	 7.8000
 2.0440	 7.8370
 2.0450	 7.8750
 2.0460	 7.9110
 2.0470	 7.9480
 2.0480	 7.9840
 2.0490	 8.0170
 2.0500	 8.0530
 2.0510	 8.0920
 2.0520	 8.1290
 2.0530	 8.1660
 2.0540	 8.2030
 2.0550	 8.2380
 2.0560	 8.2760
 2.0570	 8.3150
 2.0580	 8.3550
 2.0590	 8.3940
 2.0600	 8.4340
 2.0610	 8.4740
 2.0620	 8.5130
 2.0630	 8.5530
 2.0640	 8.5940
 2.0650	 8.6350
 2.0660	 8.6760
 2.0670	 8.7170
 2.0680	 8.7600
 2.0690	 8.8020
 2.0700	 8.8450
 2.0710	 8.8850
 2.0720	 8.9240
 2.0730	 8.9640
 2.0740	 9.0050
 2.0750	 9.0440
 2.0760	 9.0830
 2.0770	 9.1240
 2.0780	 9.1640
 2.0790	 9.2020
 2.0800	 9.2420
 2.0810	 9.2850
 2.0820	 9.3250
 2.0830	 9.3640
 2.0840	 9.4030
 2.0850	 9.4400
 2.0860	 9.4770
 2.0870	 9.5140
 2.0880	 9.5520
 2.0890	 9.5910
 2.0900	 9.6300
 2.0910	 9.6680
 2.0920	 9.7060
 2.0930	 9.7440
 2.0940	 9.7810
 2.0950	 9.8200
 2.0960	 9.8620
 2.0970	 9.9020
 2.0980	 9.9420
 2.0990	 9.9800
 2.1000	10.0180
 2.1010	10.0550
 2.1020	10.0900
 2.1030	10.1270
 2.1040	10.1620
 2.1050	10.2000
 2.1060	10.2370
 2.1070	10.2750
 2.1080	10.3110
 2.1090	10.3470
 2.1100	10.3830
 2.1110	10.4200
 2.1120	10.4540
 2.1130	10.4880
 2.1140	10.5220
 2.1150	10.5530
 2.1160	10.5870
 2.1170	10.6240
 2.1180	10.6580
 2.1190	10.6920
 2.1200	10.7240
 2.1210	10.7540
 2.1220	10.7820
 2.1230	10.8110
 2.1240	10.8400
 2.1250	10.8690
 2.1260	10.8960
 2.1270	10.9250
 2.1280	10.9550
 2.1290	10.9810
 2.1300	11.0080
 2.1310	11.0330
 2.1320	11.0530
 2.1330	11.0760
 2.1340	11.0990
 2.1350	11.1230
 2.1360	11.1480
 2.1370	11.1720
 2.1380	11.1950
 2.1390	11.2160
 2.1400	11.2350
 2.1410	11.2520
 2.1420	11.2710
 2.1430	11.2890
 2.1440	11.3090
 2.1450	11.3290
 2.1460	11.3500
 2.1470	11.3720
 2.1480	11.3900
 2.1490	11.4070
 2.1500	11.4230
 2.1510	11.4360
 2.1520	11.4500
 2.1530	11.4630
 2.1540	11.4770
 2.1550	11.4930
 2.1560	11.5060
 2.1570	11.5180
 2.1580	11.5290
 2.1590	11.5380
 2.1600	11.5460
 2.1610	11.5570
 2.1620	11.5690
 2.1630	11.5800
 2.1640	11.5940
 2.1650	11.6050
 2.1660	11.6150
 2.1670	11.6240
 2.1680	11.6330
 2.1690	11.6410
 2.1700	11.6470
 2.1710	11.6570
 2.1720	11.6660
 2.1730	11.6770
 2.1740	11.6930
 2.1750	11.7050
 2.1760	11.7170
 2.1770	11.7280
 2.1780	11.7350
 2.1790	11.7440
 2.1800	11.7530
 2.1810	11.7620
 2.1820	11.7720
 2.1830	11.7810
 2.1840	11.7900
 2.1850	11.7980
 2.1860	11.8060
 2.1870	11.8130
 2.1880	11.8220
 2.1890	11.8310
 2.1900	11.8390
 2.1910	11.8480
 2.1920	11.8560
 2.1930	11.8620
 2.1940	11.8680
 2.1950	11.8730
 2.1960	11.8760
 2.1970	11.8760
 2.1980	11.8790
 2.1990	11.8820
 2.2000	11.8850
 2.2010	11.8920
 2.2020	11.8960
 2.2030	11.8960
 2.2040	11.8960
 2.2050	11.8950
 2.2060	11.8910
 2.2070	11.8890
 2.2080	11.8850
 2.2090	11.8830
 2.2100	11.8810
 2.2110	11.8760
 2.2120	11.8710
 2.2130	11.8640
 2.2140	11.8540
 2.2150	11.8460
 2.2160	11.8390
 2.2170	11.8310
 2.2180	11.8240
 2.2190	11.8180
 2.2200	11.8130
 2.2210	11.8040
 2.2220	11.7970
 2.2230	11.7840
 2.2240	11.7670
 2.2250	11.7500
 2.2260	11.7280
 2.2270	11.7070
 2.2280	11.6870
 2.2290	11.6640
 2.2300	11.6370
 2.2310	11.6100
 2.2320	11.5790
 2.2330	11.5440
 2.2340	11.5110
 2.2350	11.4780
 2.2360	11.4450
 2.2370	11.4100
 2.2380	11.3780
 2.2390	11.3470
 2.2400	11.3130
 2.2410	11.2800
 2.2420	11.2440
 2.2430	11.2030
 2.2440	11.1660
 2.2450	11.1270
 2.2460	11.0920
 2.2470	11.0620
 2.2480	11.0280
 2.2490	10.9960
 2.2500	10.9610
 2.2510	10.9210
 2.2520	10.8870
 2.2530	10.8570
 2.2540	10.8240
 2.2550	10.7960
 2.2560	10.7620
 2.2570	10.7250
 2.2580	10.6860
 2.2590	10.6430
 2.2600	10.6010
 2.2610	10.5570
 2.2620	10.5130
 2.2630	10.4740
 2.2640	10.4340
 2.2650	10.3890
 2.2660	10.3460
 2.2670	10.3020
 2.2680	10.2530
 2.2690	10.2110
 2.2700	10.1720
 2.2710	10.1330
 2.2720	10.0960
 2.2730	10.0610
 2.2740	10.0290
 2.2750	 9.9930
 2.2760	 9.9560
 2.2770	 9.9200
 2.2780	 9.8800
 2.2790	 9.8460
 2.2800	 9.8160
 2.2810	 9.7850
 2.2820	 9.7540
 2.2830	 9.7220
 2.2840	 9.6870
 2.2850	 9.6530
 2.2860	 9.6170
 2.2870	 9.5820
 2.2880	 9.5490
 2.2890	 9.5140
 2.2900	 9.4760
 2.2910	 9.4410
 2.2920	 9.4030
 2.2930	 9.3700
 2.2940	 9.3420
 2.2950	 9.3110
 2.2960	 9.2830
 2.2970	 9.2520
 2.2980	 9.2180
 2.2990	 9.1840
 2.3000	 9.1480
 2.3010	 9.1130
 2.3020	 9.0800
 2.3030	 9.0470
 2.3040	 9.0140
 2.3050	 8.9820
 2.3060	 8.9510
 2.3070	 8.9210
 2.3080	 8.8930
 2.3090	 8.8700
 2.3100	 8.8490
 2.3110	 8.8270
 2.3120	 8.8080
 2.3130	 8.7910
 2.3140	 8.7720
 2.3150	 8.7530
 2.3160	 8.7340
 2.3170	 8.7120
 2.3180	 8.6920
 2.3190	 8.6740
 2.3200	 8.6540
 2.3210	 8.6360
 2.3220	 8.6140
 2.3230	 8.5910
 2.3240	 8.5660
 2.3250	 8.5360
 2.3260	 8.5090
 2.3270	 8.4820
 2.3280	 8.4530
 2.3290	 8.4220
 2.3300	 8.3930
 2.3310	 8.3610
 2.3320	 8.3370
 2.3330	 8.3220
 2.3340	 8.2980
 2.3350	 8.2770
 2.3360	 8.2480
 2.3370	 8.2100
 2.3380	 8.1770
 2.3390	 8.1420
 2.3400	 8.1080
 2.3410	 8.0750
 2.3420	 8.0440
 2.3430	 8.0150
 2.3440	 7.9860
 2.3450	 7.9600
 2.3460	 7.9330
 2.3470	 7.9020
 2.3480	 7.8760
 2.3490	 7.8510
 2.3500	 7.8270
 2.3510	 7.8080
 2.3520	 7.7850
 2.3530	 7.7610
 2.3540	 7.7370
 2.3550	 7.7140
 2.3560	 7.6850
 2.3570	 7.6510
 2.3580	 7.6240
 2.3590	 7.5990
 2.3600	 7.5710
 2.3610	 7.5530
 2.3620	 7.5310
 2.3630	 7.5030
 2.3640	 7.4770
 2.3650	 7.4500
 2.3660	 7.4250
 2.3670	 7.4050
 2.3680	 7.3890
 2.3690	 7.3660
 2.3700	 7.3400
 2.3710	 7.3130
 2.3720	 7.2730
 2.3730	 7.2440
 2.3740	 7.2170
 2.3750	 7.1870
 2.3760	 7.1710
 2.3770	 7.1510
 2.3780	 7.1240
 2.3790	 7.0970
 2.3800	 7.0620
 2.3810	 7.0280
 2.3820	 6.9980
 2.3830	 6.9720
 2.3840	 6.9520
 2.3850	 6.9250
 2.3860	 6.8990
 2.3870	 6.8750
 2.3880	 6.8440
 2.3890	 6.8150
 2.3900	 6.7880
 2.3910	 6.7590
 2.3920	 6.7330
 2.3930	 6.7110
 2.3940	 6.6860
 2.3950	 6.6600
 2.3960	 6.6350
 2.3970	 6.6110
 2.3980	 6.5860
 2.3990	 6.5680
 2.4000	 6.5460
 2.4010	 6.5190
 2.4020	 6.4930
 2.4030	 6.4690
 2.4040	 6.4480
 2.4050	 6.4230
 2.4060	 6.3950
 2.4070	 6.3580
 2.4080	 6.3190
 2.4090	 6.2980
 2.4100	 6.2910
 2.4110	 6.2810
 2.4120	 6.2650
 2.4130	 6.2290
 2.4140	 6.1810
 2.4150	 6.1420
 2.4160	 6.1140
 2.4170	 6.0940
 2.4180	 6.0660
 2.4190	 6.0470
 2.4200	 6.0400
 2.4210	 6.0310
 2.4220	 6.0230
 2.4230	 6.0050
 2.4240	 5.9640
 2.4250	 5.9350
 2.4260	 5.9210
 2.4270	 5.8970
 2.4280	 5.8760
 2.4290	 5.8500
 2.4300	 5.8110
 2.4310	 5.7820
 2.4320	 5.7630
 2.4330	 5.7490
 2.4340	 5.7300
 2.4350	 5.7150
 2.4360	 5.6970
 2.4370	 5.6630
 2.4380	 5.6350
 2.4390	 5.6130
 2.4400	 5.5840
 2.4410	 5.5660
 2.4420	 5.5570
 2.4430	 5.5260
 2.4440	 5.5060
 2.4450	 5.4920
 2.4460	 5.4580
 2.4470	 5.4490
 2.4480	 5.4380
 2.4490	 5.4170
 2.4500	 5.4090
 2.4510	 5.3800
 2.4520	 5.3590
 2.4530	 5.3330
 2.4540	 5.2930
 2.4550	 5.2710
 2.4560	 5.2410
 2.4570	 5.2240
 2.4580	 5.2210
 2.4590	 5.2150
 2.4600	 5.2130
 2.4610	 5.1780
 2.4620	 5.1480
 2.4630	 5.1350
 2.4640	 5.0970
 2.4650	 5.0890
 2.4660	 5.0940
 2.4670	 5.0750
 2.4680	 5.0690
 2.4690	 5.0510
 2.4700	 5.0120
 2.4710	 4.9410
 2.4720	 4.9170
 2.4730	 4.9060
 2.4740	 4.9030
 2.4750	 4.9430
 2.4760	 4.9450
 2.4770	 4.9230
 2.4780	 4.9170
 2.4790	 4.9230
 2.4800	 4.9070
 2.4810	 4.8740
 2.4820	 4.8620
 2.4830	 4.8260
 2.4840	 4.8280
 2.4850	 4.8500
 2.4860	 4.8490
 2.4870	 4.8670
 2.4880	 4.8640
 2.4890	 4.8350
 2.4900	 4.7970
 2.4910	 4.7520
 2.4920	 4.7440
 2.4930	 4.7710
 2.4940	 4.7910
 2.4950	 4.7940
 2.4960	 4.8050
 2.4970	 4.8200
 2.4980	 4.8420
 2.4990	 4.8740
 2.5000	 4.8700
