Name: Arctostaphylos glandulosa 3
Type: vegetation
Class: Shrub
Genus: Arctostaphylos
Species: glandulosa
Sample No.: VH122
Owner: UCSB
Wavelength Range: TIR
Origin: 34.5085; -119.7682; WGS84
Collection Date: 6/3/2013
Description: Samples were collected as part of the HyspIRI Airborne Campaign. 48 individual plants were sampled in three times in 2013 - spring  summer  and fall. The name of the sample includes a 1  2  or 3 which references a different individual of the species. Samples were taken to JPL and processed within 48 hours of collection. The same leaves were processed in the Nicolet and then measured using the ASD.
Measurement: Hemispherical reflectance
First Column: X
Second Column: Y
X Units: Wavelength (micrometers)
Y Units: Reflectance (percentage)
First X Value: 2.501
Last X Value: 15.387
Number of X Values: 1737
Additional Information: vegetation.shrub.arctostaphylos.glandulosa.tir.vh122.ucsb.nicolet.ancillary.txt

 2.5010	 3.5660
 2.5030	 3.5090
 2.5040	 3.5270
 2.5050	 3.5360
 2.5060	 3.5450
 2.5070	 3.5530
 2.5090	 3.5360
 2.5100	 3.4920
 2.5110	 3.5480
 2.5120	 3.5780
 2.5140	 3.5650
 2.5150	 3.5400
 2.5160	 3.5560
 2.5170	 3.5800
 2.5180	 3.5900
 2.5200	 3.5960
 2.5210	 3.6110
 2.5220	 3.5830
 2.5230	 3.5750
 2.5250	 3.5890
 2.5260	 3.6380
 2.5270	 3.6180
 2.5280	 3.6190
 2.5290	 3.6020
 2.5310	 3.5980
 2.5320	 3.5890
 2.5330	 3.6100
 2.5340	 3.6100
 2.5360	 3.6620
 2.5370	 3.6590
 2.5380	 3.6490
 2.5390	 3.6310
 2.5410	 3.6490
 2.5420	 3.6560
 2.5430	 3.6940
 2.5440	 3.7170
 2.5460	 3.7440
 2.5470	 3.7060
 2.5480	 3.6870
 2.5490	 3.6990
 2.5510	 3.7330
 2.5520	 3.7330
 2.5530	 3.7270
 2.5540	 3.6840
 2.5560	 3.7320
 2.5570	 3.7330
 2.5580	 3.7160
 2.5590	 3.6920
 2.5610	 3.7300
 2.5620	 3.7380
 2.5630	 3.7300
 2.5640	 3.7190
 2.5660	 3.7760
 2.5670	 3.8210
 2.5680	 3.8340
 2.5700	 3.8460
 2.5710	 3.8550
 2.5720	 3.8450
 2.5730	 3.8660
 2.5750	 3.8430
 2.5760	 3.8530
 2.5770	 3.8320
 2.5790	 3.8560
 2.5800	 3.8310
 2.5810	 3.8390
 2.5820	 3.8860
 2.5840	 3.9040
 2.5850	 3.8500
 2.5860	 3.8520
 2.5880	 3.8350
 2.5890	 3.8650
 2.5900	 3.8650
 2.5910	 3.9230
 2.5930	 3.9020
 2.5940	 3.8490
 2.5950	 3.8050
 2.5970	 3.8530
 2.5980	 3.9170
 2.5990	 3.9280
 2.6000	 3.8780
 2.6020	 3.9000
 2.6030	 3.8860
 2.6040	 3.8870
 2.6060	 3.8800
 2.6070	 3.8990
 2.6080	 3.9080
 2.6100	 3.9160
 2.6110	 3.8770
 2.6120	 3.8410
 2.6140	 3.8540
 2.6150	 3.9010
 2.6160	 3.8950
 2.6180	 3.9060
 2.6190	 3.8550
 2.6200	 3.8450
 2.6220	 3.8450
 2.6230	 3.8930
 2.6240	 3.9180
 2.6260	 3.9370
 2.6270	 3.8830
 2.6280	 3.9180
 2.6300	 3.9280
 2.6310	 3.8900
 2.6320	 3.8580
 2.6340	 3.8880
 2.6350	 3.8130
 2.6360	 3.8180
 2.6380	 3.8660
 2.6390	 3.9000
 2.6400	 3.8310
 2.6420	 3.7830
 2.6430	 3.8300
 2.6440	 3.8960
 2.6460	 3.8390
 2.6470	 3.7800
 2.6480	 3.7710
 2.6500	 3.8170
 2.6510	 3.7920
 2.6520	 3.8070
 2.6540	 3.8130
 2.6550	 3.8200
 2.6560	 3.7720
 2.6580	 3.7820
 2.6590	 3.7600
 2.6610	 3.7090
 2.6620	 3.6460
 2.6630	 3.6820
 2.6650	 3.6570
 2.6660	 3.6530
 2.6670	 3.6470
 2.6690	 3.6690
 2.6700	 3.6080
 2.6720	 3.5920
 2.6730	 3.6080
 2.6740	 3.6210
 2.6760	 3.5220
 2.6770	 3.5030
 2.6780	 3.5180
 2.6800	 3.5010
 2.6810	 3.5320
 2.6830	 3.5520
 2.6840	 3.4950
 2.6850	 3.4920
 2.6870	 3.4450
 2.6880	 3.4220
 2.6900	 3.4090
 2.6910	 3.4710
 2.6920	 3.4420
 2.6940	 3.3890
 2.6950	 3.3190
 2.6970	 3.3400
 2.6980	 3.3180
 2.6990	 3.3080
 2.7010	 3.3140
 2.7020	 3.3490
 2.7040	 3.2730
 2.7050	 3.2100
 2.7060	 3.1620
 2.7080	 3.1410
 2.7090	 3.0820
 2.7110	 3.0840
 2.7120	 3.0770
 2.7130	 3.0820
 2.7150	 3.0510
 2.7160	 3.0020
 2.7180	 2.9290
 2.7190	 2.8910
 2.7210	 2.8450
 2.7220	 2.8820
 2.7230	 2.8540
 2.7250	 2.7520
 2.7260	 2.6900
 2.7280	 2.6970
 2.7290	 2.6480
 2.7310	 2.6420
 2.7320	 2.6110
 2.7330	 2.5680
 2.7350	 2.5150
 2.7360	 2.5020
 2.7380	 2.4490
 2.7390	 2.4330
 2.7410	 2.4190
 2.7420	 2.4080
 2.7440	 2.3720
 2.7450	 2.3560
 2.7470	 2.2750
 2.7480	 2.2610
 2.7490	 2.2640
 2.7510	 2.2380
 2.7520	 2.1600
 2.7540	 2.1610
 2.7550	 2.1180
 2.7570	 2.1080
 2.7580	 2.0670
 2.7600	 2.0330
 2.7610	 2.0090
 2.7630	 2.0710
 2.7640	 2.0920
 2.7660	 2.0840
 2.7670	 1.9900
 2.7680	 2.0100
 2.7700	 1.9980
 2.7710	 1.9670
 2.7730	 1.9080
 2.7740	 1.9530
 2.7760	 1.9350
 2.7770	 1.8960
 2.7790	 1.8170
 2.7800	 1.8610
 2.7820	 1.9190
 2.7830	 1.8920
 2.7850	 1.8150
 2.7860	 1.8280
 2.7880	 1.8030
 2.7890	 1.7820
 2.7910	 1.7640
 2.7920	 1.7910
 2.7940	 1.7660
 2.7950	 1.7250
 2.7970	 1.6930
 2.7980	 1.7800
 2.8000	 1.7570
 2.8010	 1.7300
 2.8030	 1.7180
 2.8040	 1.7210
 2.8060	 1.7080
 2.8070	 1.7200
 2.8090	 1.6820
 2.8110	 1.7030
 2.8120	 1.7030
 2.8140	 1.7360
 2.8150	 1.7210
 2.8170	 1.6890
 2.8180	 1.6380
 2.8200	 1.6650
 2.8210	 1.6600
 2.8230	 1.6950
 2.8240	 1.7090
 2.8260	 1.7000
 2.8270	 1.6460
 2.8290	 1.6450
 2.8300	 1.6420
 2.8320	 1.6080
 2.8340	 1.5510
 2.8350	 1.5850
 2.8370	 1.5830
 2.8380	 1.6000
 2.8400	 1.6270
 2.8410	 1.6740
 2.8430	 1.6360
 2.8440	 1.6270
 2.8460	 1.5840
 2.8480	 1.5930
 2.8490	 1.5930
 2.8510	 1.6020
 2.8520	 1.6120
 2.8540	 1.5680
 2.8550	 1.4700
 2.8570	 1.5150
 2.8590	 1.5700
 2.8600	 1.5690
 2.8620	 1.5300
 2.8630	 1.5410
 2.8650	 1.5210
 2.8660	 1.5580
 2.8680	 1.5820
 2.8700	 1.5830
 2.8710	 1.5320
 2.8730	 1.5080
 2.8740	 1.5380
 2.8760	 1.5750
 2.8780	 1.5180
 2.8790	 1.5290
 2.8810	 1.5290
 2.8820	 1.5570
 2.8840	 1.5060
 2.8860	 1.5170
 2.8870	 1.5060
 2.8890	 1.5170
 2.8900	 1.4760
 2.8920	 1.5200
 2.8940	 1.5350
 2.8950	 1.5670
 2.8970	 1.5350
 2.8980	 1.5040
 2.9000	 1.4780
 2.9020	 1.4880
 2.9030	 1.4710
 2.9050	 1.5240
 2.9070	 1.5260
 2.9080	 1.5570
 2.9100	 1.5300
 2.9120	 1.5150
 2.9130	 1.5070
 2.9150	 1.5160
 2.9160	 1.4930
 2.9180	 1.5450
 2.9200	 1.5540
 2.9210	 1.5840
 2.9230	 1.5830
 2.9250	 1.5490
 2.9260	 1.5070
 2.9280	 1.5170
 2.9300	 1.5210
 2.9310	 1.5690
 2.9330	 1.5970
 2.9350	 1.5620
 2.9360	 1.5110
 2.9380	 1.5510
 2.9400	 1.5460
 2.9410	 1.5810
 2.9430	 1.6010
 2.9450	 1.5990
 2.9460	 1.5710
 2.9480	 1.5730
 2.9500	 1.5660
 2.9510	 1.5700
 2.9530	 1.5370
 2.9550	 1.5950
 2.9560	 1.5860
 2.9580	 1.6330
 2.9600	 1.5980
 2.9610	 1.5840
 2.9630	 1.5980
 2.9650	 1.6070
 2.9660	 1.5780
 2.9680	 1.6150
 2.9700	 1.5690
 2.9720	 1.5590
 2.9730	 1.5740
 2.9750	 1.6220
 2.9770	 1.6170
 2.9780	 1.6500
 2.9800	 1.6600
 2.9820	 1.6710
 2.9840	 1.6430
 2.9850	 1.6260
 2.9870	 1.5780
 2.9890	 1.6300
 2.9900	 1.6190
 2.9920	 1.5770
 2.9940	 1.5670
 2.9960	 1.6160
 2.9970	 1.6170
 2.9990	 1.6300
 3.0010	 1.6320
 3.0030	 1.6940
 3.0040	 1.6950
 3.0060	 1.6530
 3.0080	 1.6410
 3.0100	 1.7080
 3.0110	 1.7120
 3.0130	 1.7410
 3.0150	 1.7130
 3.0170	 1.7250
 3.0180	 1.6640
 3.0200	 1.6820
 3.0220	 1.6870
 3.0240	 1.6970
 3.0250	 1.6580
 3.0270	 1.7130
 3.0290	 1.7580
 3.0310	 1.7750
 3.0320	 1.7800
 3.0340	 1.8100
 3.0360	 1.7690
 3.0380	 1.7630
 3.0400	 1.7130
 3.0410	 1.7040
 3.0430	 1.7340
 3.0450	 1.7700
 3.0470	 1.7820
 3.0480	 1.8000
 3.0500	 1.7880
 3.0520	 1.8420
 3.0540	 1.8530
 3.0560	 1.8400
 3.0570	 1.7910
 3.0590	 1.7870
 3.0610	 1.7980
 3.0630	 1.8780
 3.0650	 1.8910
 3.0660	 1.8600
 3.0680	 1.8290
 3.0700	 1.8510
 3.0720	 1.8320
 3.0740	 1.8930
 3.0760	 1.9210
 3.0770	 1.9320
 3.0790	 1.9190
 3.0810	 1.9140
 3.0830	 1.9210
 3.0850	 1.9730
 3.0870	 1.9800
 3.0880	 1.9660
 3.0900	 1.9400
 3.0920	 1.9740
 3.0940	 1.9500
 3.0960	 1.9740
 3.0980	 1.9410
 3.0990	 1.9260
 3.1010	 1.9300
 3.1030	 2.0010
 3.1050	 2.0270
 3.1070	 2.0460
 3.1090	 2.0070
 3.1110	 2.0060
 3.1120	 2.0200
 3.1140	 2.1290
 3.1160	 2.1060
 3.1180	 2.0440
 3.1200	 2.0410
 3.1220	 2.1090
 3.1240	 2.1060
 3.1260	 2.1000
 3.1270	 2.0850
 3.1290	 2.1040
 3.1310	 2.0690
 3.1330	 2.0900
 3.1350	 2.1190
 3.1370	 2.1620
 3.1390	 2.1670
 3.1410	 2.2020
 3.1430	 2.2080
 3.1450	 2.2330
 3.1460	 2.2320
 3.1480	 2.2610
 3.1500	 2.2200
 3.1520	 2.2340
 3.1540	 2.2340
 3.1560	 2.2360
 3.1580	 2.2590
 3.1600	 2.2760
 3.1620	 2.2430
 3.1640	 2.2670
 3.1660	 2.2790
 3.1680	 2.3550
 3.1700	 2.3810
 3.1710	 2.3780
 3.1730	 2.3400
 3.1750	 2.3430
 3.1770	 2.3720
 3.1790	 2.3860
 3.1810	 2.3940
 3.1830	 2.4110
 3.1850	 2.3790
 3.1870	 2.4250
 3.1890	 2.4630
 3.1910	 2.5150
 3.1930	 2.4790
 3.1950	 2.4840
 3.1970	 2.4940
 3.1990	 2.4930
 3.2010	 2.4650
 3.2030	 2.4910
 3.2050	 2.4990
 3.2070	 2.5200
 3.2090	 2.5210
 3.2110	 2.5630
 3.2130	 2.5560
 3.2150	 2.5510
 3.2170	 2.5280
 3.2190	 2.6050
 3.2210	 2.6010
 3.2230	 2.5860
 3.2250	 2.5800
 3.2270	 2.6570
 3.2290	 2.6500
 3.2310	 2.6490
 3.2330	 2.6610
 3.2350	 2.7430
 3.2370	 2.7090
 3.2390	 2.7130
 3.2410	 2.7360
 3.2430	 2.7100
 3.2450	 2.6640
 3.2470	 2.7100
 3.2490	 2.7580
 3.2510	 2.7690
 3.2530	 2.7430
 3.2550	 2.7870
 3.2570	 2.8090
 3.2590	 2.8320
 3.2610	 2.8320
 3.2630	 2.8510
 3.2650	 2.8200
 3.2670	 2.8480
 3.2690	 2.8800
 3.2720	 2.9110
 3.2740	 2.8880
 3.2760	 2.9010
 3.2780	 2.8620
 3.2800	 2.8670
 3.2820	 2.8280
 3.2840	 2.8020
 3.2860	 2.8020
 3.2880	 2.8510
 3.2900	 2.8860
 3.2920	 2.9340
 3.2940	 2.9130
 3.2960	 2.9360
 3.2990	 2.9240
 3.3010	 2.9380
 3.3030	 2.9110
 3.3050	 2.9230
 3.3070	 2.9030
 3.3090	 2.8450
 3.3110	 2.8160
 3.3130	 2.8340
 3.3150	 2.8540
 3.3180	 2.9010
 3.3200	 2.8700
 3.3220	 2.8630
 3.3240	 2.8540
 3.3260	 2.8420
 3.3280	 2.8260
 3.3300	 2.8390
 3.3330	 2.8050
 3.3350	 2.8350
 3.3370	 2.8180
 3.3390	 2.8230
 3.3410	 2.7530
 3.3430	 2.7100
 3.3450	 2.6610
 3.3480	 2.6580
 3.3500	 2.6300
 3.3520	 2.6140
 3.3540	 2.5480
 3.3560	 2.5470
 3.3580	 2.5550
 3.3610	 2.5700
 3.3630	 2.5190
 3.3650	 2.4610
 3.3670	 2.4200
 3.3690	 2.3960
 3.3720	 2.3740
 3.3740	 2.3820
 3.3760	 2.3700
 3.3780	 2.3970
 3.3800	 2.3440
 3.3830	 2.3260
 3.3850	 2.3060
 3.3870	 2.2970
 3.3890	 2.2420
 3.3910	 2.2470
 3.3940	 2.1870
 3.3960	 2.1890
 3.3980	 2.2310
 3.4000	 2.2580
 3.4020	 2.2470
 3.4050	 2.3490
 3.4070	 2.4220
 3.4090	 2.4960
 3.4110	 2.5770
 3.4140	 2.6870
 3.4160	 2.7920
 3.4180	 2.9270
 3.4200	 3.1710
 3.4230	 3.4890
 3.4250	 3.7320
 3.4270	 4.0370
 3.4290	 4.1800
 3.4320	 4.0100
 3.4340	 3.6780
 3.4360	 3.4500
 3.4390	 3.2860
 3.4410	 3.2200
 3.4430	 3.1290
 3.4450	 3.0860
 3.4480	 3.0620
 3.4500	 3.0830
 3.4520	 3.0540
 3.4550	 3.0600
 3.4570	 3.0270
 3.4590	 3.0400
 3.4620	 3.0180
 3.4640	 3.0520
 3.4660	 3.0710
 3.4680	 3.0830
 3.4710	 3.0360
 3.4730	 3.0160
 3.4750	 2.9920
 3.4780	 2.9700
 3.4800	 2.9270
 3.4820	 2.9400
 3.4850	 2.8830
 3.4870	 2.9210
 3.4890	 2.8980
 3.4920	 2.8990
 3.4940	 2.9560
 3.4970	 3.0210
 3.4990	 3.0200
 3.5010	 3.1210
 3.5040	 3.3170
 3.5060	 3.6780
 3.5080	 4.1370
 3.5110	 4.5330
 3.5130	 4.4750
 3.5160	 4.1990
 3.5180	 3.9800
 3.5200	 3.9050
 3.5230	 3.8860
 3.5250	 3.8850
 3.5270	 3.8730
 3.5300	 3.8900
 3.5320	 3.8840
 3.5350	 3.8800
 3.5370	 3.8500
 3.5400	 3.8630
 3.5420	 3.8780
 3.5440	 3.9250
 3.5470	 3.9230
 3.5490	 3.9550
 3.5520	 3.9860
 3.5540	 4.0090
 3.5570	 3.9870
 3.5590	 4.0430
 3.5610	 4.0380
 3.5640	 4.0050
 3.5660	 3.9740
 3.5690	 4.0230
 3.5710	 4.0730
 3.5740	 4.1250
 3.5760	 4.1310
 3.5790	 4.1460
 3.5810	 4.1060
 3.5840	 4.1360
 3.5860	 4.1430
 3.5890	 4.1480
 3.5910	 4.1310
 3.5930	 4.1250
 3.5960	 4.1320
 3.5980	 4.1770
 3.6010	 4.1700
 3.6030	 4.1940
 3.6060	 4.2010
 3.6080	 4.2460
 3.6110	 4.2130
 3.6140	 4.2130
 3.6160	 4.2690
 3.6190	 4.3030
 3.6210	 4.2670
 3.6240	 4.2730
 3.6260	 4.2800
 3.6290	 4.2760
 3.6310	 4.2340
 3.6340	 4.2570
 3.6360	 4.2750
 3.6390	 4.3240
 3.6410	 4.2880
 3.6440	 4.2910
 3.6470	 4.2790
 3.6490	 4.2870
 3.6520	 4.2690
 3.6540	 4.2760
 3.6570	 4.2640
 3.6590	 4.2910
 3.6620	 4.2720
 3.6650	 4.3150
 3.6670	 4.3500
 3.6700	 4.3510
 3.6720	 4.3440
 3.6750	 4.3590
 3.6780	 4.3800
 3.6800	 4.4270
 3.6830	 4.3800
 3.6850	 4.3930
 3.6880	 4.4370
 3.6910	 4.4400
 3.6930	 4.4130
 3.6960	 4.4620
 3.6990	 4.5060
 3.7010	 4.5260
 3.7040	 4.4850
 3.7060	 4.4840
 3.7090	 4.4690
 3.7120	 4.4920
 3.7140	 4.5260
 3.7170	 4.6090
 3.7200	 4.5870
 3.7220	 4.5600
 3.7250	 4.5810
 3.7280	 4.6080
 3.7300	 4.5600
 3.7330	 4.6020
 3.7360	 4.6410
 3.7390	 4.6620
 3.7410	 4.6380
 3.7440	 4.6950
 3.7470	 4.7020
 3.7490	 4.7030
 3.7520	 4.7100
 3.7550	 4.7100
 3.7580	 4.6720
 3.7600	 4.6650
 3.7630	 4.6890
 3.7660	 4.7230
 3.7680	 4.6920
 3.7710	 4.7030
 3.7740	 4.7220
 3.7770	 4.7790
 3.7790	 4.8050
 3.7820	 4.7740
 3.7850	 4.7350
 3.7880	 4.7640
 3.7900	 4.8260
 3.7930	 4.8610
 3.7960	 4.8190
 3.7990	 4.8300
 3.8020	 4.8540
 3.8040	 4.8810
 3.8070	 4.8540
 3.8100	 4.8930
 3.8130	 4.9100
 3.8160	 4.9180
 3.8180	 4.8820
 3.8210	 4.9000
 3.8240	 4.9500
 3.8270	 4.9780
 3.8300	 4.9520
 3.8330	 4.9410
 3.8350	 4.9390
 3.8380	 4.9370
 3.8410	 4.9420
 3.8440	 5.0090
 3.8470	 5.0260
 3.8500	 5.0350
 3.8520	 5.0290
 3.8550	 5.0670
 3.8580	 5.0670
 3.8610	 5.0670
 3.8640	 5.0500
 3.8670	 5.0460
 3.8700	 5.0230
 3.8730	 5.0280
 3.8750	 5.0350
 3.8780	 5.0690
 3.8810	 5.0930
 3.8840	 5.1190
 3.8870	 5.0930
 3.8900	 5.1280
 3.8930	 5.1310
 3.8960	 5.1250
 3.8990	 5.1220
 3.9020	 5.1960
 3.9050	 5.1860
 3.9080	 5.1520
 3.9110	 5.1470
 3.9140	 5.1870
 3.9160	 5.1700
 3.9190	 5.1790
 3.9220	 5.1870
 3.9250	 5.1830
 3.9280	 5.1680
 3.9310	 5.1660
 3.9340	 5.2220
 3.9370	 5.2360
 3.9400	 5.1640
 3.9430	 5.1790
 3.9460	 5.2190
 3.9490	 5.2380
 3.9520	 5.2110
 3.9550	 5.2690
 3.9580	 5.2640
 3.9610	 5.2500
 3.9640	 5.2470
 3.9670	 5.2820
 3.9700	 5.3010
 3.9730	 5.3110
 3.9770	 5.2950
 3.9800	 5.2500
 3.9830	 5.2110
 3.9860	 5.2590
 3.9890	 5.2910
 3.9920	 5.2920
 3.9950	 5.2520
 3.9980	 5.2980
 4.0010	 5.3700
 4.0040	 5.4140
 4.0070	 5.3970
 4.0100	 5.3930
 4.0130	 5.3800
 4.0170	 5.3810
 4.0200	 5.3780
 4.0230	 5.4380
 4.0260	 5.3850
 4.0290	 5.3860
 4.0320	 5.4740
 4.0350	 5.5350
 4.0380	 5.4610
 4.0420	 5.4600
 4.0450	 5.5170
 4.0480	 5.5340
 4.0510	 5.5140
 4.0540	 5.4570
 4.0570	 5.4300
 4.0610	 5.4810
 4.0640	 5.5040
 4.0670	 5.5070
 4.0700	 5.5490
 4.0730	 5.5740
 4.0770	 5.5540
 4.0800	 5.5900
 4.0830	 5.5980
 4.0860	 5.5970
 4.0890	 5.6000
 4.0930	 5.5920
 4.0960	 5.6040
 4.0990	 5.6180
 4.1020	 5.6100
 4.1060	 5.5800
 4.1090	 5.5690
 4.1120	 5.6300
 4.1150	 5.6390
 4.1190	 5.6590
 4.1220	 5.6530
 4.1250	 5.6370
 4.1280	 5.6260
 4.1320	 5.6640
 4.1350	 5.6710
 4.1380	 5.6780
 4.1420	 5.6780
 4.1450	 5.6830
 4.1480	 5.6950
 4.1520	 5.7250
 4.1550	 5.6810
 4.1580	 5.6900
 4.1620	 5.7050
 4.1650	 5.7220
 4.1680	 5.7100
 4.1720	 5.7180
 4.1750	 5.6990
 4.1780	 5.7060
 4.1820	 5.7290
 4.1850	 5.7530
 4.1890	 5.7650
 4.1920	 5.7050
 4.1950	 5.5570
 4.1990	 5.3860
 4.2020	 5.1670
 4.2060	 4.8960
 4.2090	 4.5330
 4.2120	 4.1690
 4.2160	 3.8250
 4.2190	 3.5360
 4.2230	 3.2830
 4.2260	 3.1060
 4.2300	 2.9780
 4.2330	 2.9380
 4.2360	 2.9110
 4.2400	 2.9270
 4.2430	 3.0370
 4.2470	 3.2670
 4.2500	 3.6030
 4.2540	 4.0770
 4.2570	 4.4050
 4.2610	 4.1660
 4.2640	 3.7530
 4.2680	 3.5240
 4.2710	 3.4100
 4.2750	 3.4390
 4.2780	 3.5000
 4.2820	 3.5310
 4.2850	 3.5430
 4.2890	 3.5670
 4.2930	 3.6290
 4.2960	 3.7590
 4.3000	 3.8610
 4.3030	 3.9200
 4.3070	 4.0220
 4.3100	 4.2010
 4.3140	 4.4040
 4.3180	 4.5660
 4.3210	 4.6750
 4.3250	 4.8250
 4.3280	 4.9550
 4.3320	 5.0150
 4.3360	 5.0640
 4.3390	 5.2150
 4.3430	 5.3350
 4.3470	 5.3420
 4.3500	 5.3540
 4.3540	 5.4250
 4.3570	 5.4570
 4.3610	 5.4660
 4.3650	 5.4470
 4.3680	 5.4890
 4.3720	 5.5200
 4.3760	 5.5330
 4.3800	 5.5690
 4.3830	 5.5940
 4.3870	 5.5580
 4.3910	 5.5440
 4.3940	 5.5400
 4.3980	 5.5110
 4.4020	 5.4720
 4.4060	 5.5160
 4.4090	 5.5760
 4.4130	 5.5720
 4.4170	 5.5290
 4.4210	 5.5120
 4.4240	 5.5230
 4.4280	 5.5720
 4.4320	 5.5480
 4.4360	 5.5000
 4.4400	 5.4830
 4.4430	 5.4950
 4.4470	 5.5200
 4.4510	 5.5150
 4.4550	 5.4800
 4.4590	 5.4660
 4.4620	 5.4610
 4.4660	 5.4220
 4.4700	 5.4360
 4.4740	 5.4890
 4.4780	 5.4980
 4.4820	 5.4780
 4.4860	 5.5040
 4.4900	 5.5360
 4.4930	 5.5430
 4.4970	 5.5600
 4.5010	 5.5500
 4.5050	 5.5560
 4.5090	 5.5340
 4.5130	 5.5280
 4.5170	 5.4850
 4.5210	 5.4720
 4.5250	 5.5030
 4.5290	 5.4950
 4.5330	 5.5010
 4.5370	 5.5050
 4.5410	 5.4670
 4.5450	 5.4440
 4.5490	 5.4510
 4.5530	 5.4730
 4.5570	 5.4560
 4.5610	 5.4050
 4.5650	 5.4040
 4.5690	 5.4170
 4.5730	 5.3930
 4.5770	 5.4280
 4.5810	 5.4560
 4.5850	 5.4460
 4.5890	 5.4290
 4.5930	 5.3900
 4.5970	 5.3400
 4.6010	 5.3850
 4.6050	 5.4060
 4.6090	 5.4080
 4.6130	 5.4150
 4.6170	 5.3790
 4.6220	 5.3520
 4.6260	 5.3450
 4.6300	 5.3420
 4.6340	 5.3490
 4.6380	 5.3300
 4.6420	 5.3130
 4.6460	 5.2750
 4.6510	 5.2740
 4.6550	 5.3190
 4.6590	 5.3300
 4.6630	 5.2730
 4.6670	 5.2110
 4.6720	 5.2840
 4.6760	 5.3660
 4.6800	 5.3180
 4.6840	 5.2850
 4.6880	 5.2610
 4.6930	 5.2270
 4.6970	 5.2220
 4.7010	 5.2210
 4.7050	 5.2180
 4.7100	 5.2780
 4.7140	 5.3500
 4.7180	 5.3050
 4.7230	 5.2600
 4.7270	 5.2640
 4.7310	 5.2960
 4.7360	 5.2990
 4.7400	 5.3010
 4.7440	 5.2930
 4.7490	 5.3210
 4.7530	 5.2940
 4.7570	 5.2730
 4.7620	 5.2860
 4.7660	 5.2610
 4.7700	 5.3010
 4.7750	 5.3690
 4.7790	 5.3560
 4.7840	 5.3410
 4.7880	 5.3330
 4.7920	 5.3030
 4.7970	 5.3070
 4.8010	 5.3340
 4.8060	 5.3470
 4.8100	 5.3600
 4.8150	 5.3240
 4.8190	 5.2870
 4.8240	 5.2840
 4.8280	 5.3050
 4.8330	 5.3500
 4.8370	 5.3820
 4.8420	 5.3420
 4.8460	 5.3090
 4.8510	 5.3240
 4.8550	 5.3320
 4.8600	 5.3020
 4.8640	 5.2820
 4.8690	 5.2720
 4.8730	 5.2980
 4.8780	 5.3060
 4.8830	 5.3070
 4.8870	 5.2530
 4.8920	 5.2530
 4.8960	 5.2750
 4.9010	 5.2940
 4.9060	 5.2990
 4.9100	 5.2830
 4.9150	 5.2820
 4.9200	 5.2940
 4.9240	 5.3060
 4.9290	 5.3650
 4.9340	 5.3460
 4.9380	 5.3050
 4.9430	 5.3270
 4.9480	 5.3270
 4.9530	 5.3200
 4.9570	 5.3530
 4.9620	 5.3370
 4.9670	 5.3340
 4.9720	 5.3350
 4.9760	 5.3580
 4.9810	 5.3570
 4.9860	 5.3760
 4.9910	 5.3910
 4.9960	 5.3860
 5.0000	 5.3870
 5.0050	 5.4060
 5.0100	 5.4190
 5.0150	 5.3800
 5.0200	 5.3780
 5.0250	 5.4190
 5.0290	 5.4040
 5.0340	 5.4010
 5.0390	 5.3820
 5.0440	 5.3600
 5.0490	 5.3930
 5.0540	 5.4530
 5.0590	 5.4590
 5.0640	 5.4680
 5.0690	 5.4400
 5.0740	 5.4280
 5.0790	 5.4440
 5.0840	 5.4370
 5.0890	 5.4440
 5.0940	 5.5140
 5.0990	 5.5360
 5.1040	 5.4750
 5.1090	 5.3850
 5.1140	 5.3930
 5.1190	 5.4100
 5.1240	 5.4240
 5.1290	 5.4000
 5.1340	 5.3970
 5.1390	 5.4220
 5.1440	 5.4330
 5.1490	 5.4180
 5.1540	 5.4770
 5.1600	 5.4600
 5.1650	 5.3960
 5.1700	 5.4200
 5.1750	 5.4670
 5.1800	 5.4780
 5.1850	 5.4640
 5.1910	 5.4320
 5.1960	 5.4590
 5.2010	 5.4730
 5.2060	 5.4880
 5.2110	 5.4520
 5.2170	 5.4380
 5.2220	 5.4490
 5.2270	 5.4520
 5.2320	 5.4400
 5.2380	 5.4770
 5.2430	 5.4930
 5.2480	 5.4970
 5.2540	 5.4750
 5.2590	 5.4570
 5.2640	 5.4610
 5.2700	 5.4950
 5.2750	 5.4580
 5.2800	 5.4290
 5.2860	 5.4150
 5.2910	 5.4260
 5.2970	 5.4340
 5.3020	 5.4250
 5.3070	 5.3880
 5.3130	 5.3890
 5.3180	 5.3750
 5.3240	 5.3790
 5.3290	 5.3980
 5.3350	 5.3870
 5.3400	 5.3930
 5.3460	 5.4330
 5.3510	 5.3750
 5.3570	 5.3500
 5.3620	 5.3700
 5.3680	 5.3540
 5.3730	 5.3680
 5.3790	 5.3900
 5.3850	 5.3110
 5.3900	 5.2800
 5.3960	 5.2630
 5.4010	 5.3210
 5.4070	 5.3070
 5.4130	 5.3050
 5.4180	 5.2840
 5.4240	 5.2580
 5.4300	 5.2360
 5.4350	 5.2090
 5.4410	 5.1750
 5.4470	 5.2170
 5.4530	 5.1830
 5.4580	 5.1280
 5.4640	 5.0870
 5.4700	 5.1020
 5.4760	 5.1100
 5.4810	 5.1390
 5.4870	 5.1330
 5.4930	 5.1280
 5.4990	 5.0660
 5.5050	 5.0350
 5.5110	 5.0310
 5.5160	 4.9940
 5.5220	 4.9100
 5.5280	 4.8610
 5.5340	 4.8310
 5.5400	 4.8540
 5.5460	 4.7850
 5.5520	 4.7140
 5.5580	 4.6750
 5.5640	 4.6550
 5.5700	 4.5990
 5.5760	 4.5850
 5.5820	 4.5360
 5.5880	 4.5080
 5.5940	 4.4650
 5.6000	 4.4540
 5.6060	 4.4000
 5.6120	 4.3350
 5.6180	 4.2520
 5.6240	 4.1970
 5.6300	 4.0680
 5.6360	 4.0150
 5.6420	 3.9370
 5.6490	 3.8610
 5.6550	 3.7180
 5.6610	 3.6500
 5.6670	 3.5360
 5.6730	 3.4450
 5.6800	 3.2870
 5.6860	 3.1360
 5.6920	 3.0160
 5.6980	 2.9460
 5.7040	 2.8050
 5.7110	 2.7130
 5.7170	 2.6090
 5.7230	 2.5250
 5.7300	 2.4560
 5.7360	 2.4130
 5.7420	 2.3570
 5.7490	 2.3880
 5.7550	 2.3910
 5.7620	 2.4440
 5.7680	 2.5360
 5.7740	 2.6120
 5.7810	 2.6600
 5.7870	 2.7330
 5.7940	 2.7620
 5.8000	 2.8090
 5.8070	 2.8720
 5.8130	 2.9540
 5.8200	 2.9610
 5.8260	 3.0130
 5.8330	 3.0650
 5.8390	 3.1180
 5.8460	 3.1420
 5.8530	 3.2390
 5.8590	 3.2880
 5.8660	 3.3300
 5.8720	 3.2770
 5.8790	 3.2230
 5.8860	 3.1790
 5.8920	 3.1780
 5.8990	 3.1520
 5.9060	 3.1610
 5.9130	 3.1140
 5.9190	 3.1680
 5.9260	 3.1800
 5.9330	 3.2380
 5.9400	 3.3160
 5.9470	 3.3940
 5.9530	 3.4080
 5.9600	 3.4710
 5.9670	 3.4350
 5.9740	 3.4300
 5.9810	 3.4360
 5.9880	 3.4490
 5.9950	 3.3440
 6.0020	 3.3170
 6.0090	 3.2900
 6.0160	 3.2120
 6.0230	 3.1370
 6.0300	 3.1550
 6.0370	 3.1030
 6.0440	 3.0710
 6.0510	 3.0400
 6.0580	 3.0430
 6.0650	 3.0000
 6.0720	 2.9670
 6.0790	 2.9640
 6.0860	 3.0080
 6.0930	 3.0080
 6.1000	 3.0740
 6.1080	 3.0420
 6.1150	 3.0250
 6.1220	 3.0190
 6.1290	 3.0310
 6.1370	 3.0110
 6.1440	 3.0470
 6.1510	 3.0070
 6.1580	 3.0150
 6.1660	 3.0170
 6.1730	 3.0630
 6.1800	 3.0290
 6.1880	 3.0280
 6.1950	 3.0200
 6.2030	 3.1200
 6.2100	 3.1480
 6.2170	 3.1950
 6.2250	 3.1840
 6.2320	 3.2280
 6.2400	 3.2790
 6.2470	 3.3010
 6.2550	 3.2440
 6.2630	 3.2980
 6.2700	 3.3290
 6.2780	 3.4150
 6.2850	 3.4160
 6.2930	 3.4330
 6.3010	 3.4110
 6.3080	 3.4970
 6.3160	 3.5480
 6.3240	 3.6040
 6.3310	 3.5670
 6.3390	 3.5470
 6.3470	 3.5560
 6.3550	 3.6850
 6.3620	 3.6710
 6.3700	 3.6910
 6.3780	 3.6800
 6.3860	 3.6900
 6.3940	 3.7000
 6.4020	 3.7650
 6.4100	 3.6920
 6.4180	 3.6600
 6.4260	 3.6790
 6.4330	 3.7660
 6.4410	 3.7300
 6.4490	 3.7690
 6.4580	 3.7740
 6.4660	 3.7710
 6.4740	 3.7270
 6.4820	 3.7150
 6.4900	 3.6820
 6.4980	 3.7340
 6.5060	 3.7730
 6.5140	 3.8220
 6.5230	 3.7480
 6.5310	 3.7610
 6.5390	 3.7540
 6.5470	 3.7580
 6.5550	 3.6580
 6.5640	 3.6210
 6.5720	 3.5230
 6.5800	 3.5460
 6.5890	 3.5720
 6.5970	 3.6440
 6.6060	 3.6600
 6.6140	 3.7150
 6.6220	 3.6640
 6.6310	 3.6470
 6.6390	 3.6480
 6.6480	 3.6690
 6.6560	 3.6170
 6.6650	 3.6110
 6.6740	 3.5800
 6.6820	 3.6150
 6.6910	 3.5470
 6.6990	 3.5110
 6.7080	 3.4520
 6.7170	 3.4740
 6.7260	 3.4190
 6.7340	 3.3880
 6.7430	 3.2380
 6.7520	 3.1850
 6.7610	 3.0930
 6.7690	 3.0370
 6.7780	 2.9850
 6.7870	 2.9890
 6.7960	 2.8350
 6.8050	 2.7550
 6.8140	 2.7090
 6.8230	 2.7470
 6.8320	 2.7670
 6.8410	 2.8370
 6.8500	 2.8120
 6.8590	 2.8030
 6.8680	 2.7410
 6.8770	 2.8070
 6.8860	 2.7820
 6.8950	 2.8230
 6.9050	 2.8110
 6.9140	 2.7900
 6.9230	 2.7520
 6.9320	 2.7690
 6.9420	 2.6840
 6.9510	 2.6970
 6.9600	 2.6610
 6.9700	 2.6730
 6.9790	 2.6160
 6.9880	 2.6400
 6.9980	 2.6200
 7.0070	 2.6600
 7.0170	 2.6350
 7.0260	 2.6600
 7.0360	 2.6610
 7.0450	 2.7430
 7.0550	 2.7410
 7.0650	 2.7240
 7.0740	 2.6700
 7.0840	 2.7120
 7.0940	 2.6690
 7.1030	 2.6700
 7.1130	 2.6130
 7.1230	 2.6960
 7.1330	 2.6990
 7.1420	 2.7200
 7.1520	 2.6430
 7.1620	 2.6230
 7.1720	 2.5180
 7.1820	 2.4940
 7.1920	 2.4330
 7.2020	 2.4780
 7.2120	 2.4390
 7.2220	 2.4920
 7.2320	 2.4850
 7.2420	 2.4900
 7.2520	 2.3740
 7.2620	 2.3370
 7.2730	 2.3520
 7.2830	 2.4490
 7.2930	 2.4410
 7.3030	 2.4820
 7.3140	 2.4270
 7.3240	 2.4630
 7.3340	 2.4990
 7.3450	 2.5660
 7.3550	 2.5160
 7.3660	 2.5570
 7.3760	 2.5320
 7.3870	 2.5900
 7.3970	 2.5660
 7.4080	 2.6020
 7.4180	 2.5810
 7.4290	 2.6820
 7.4400	 2.6570
 7.4500	 2.6210
 7.4610	 2.5910
 7.4720	 2.6260
 7.4830	 2.5670
 7.4930	 2.5740
 7.5040	 2.5270
 7.5150	 2.5370
 7.5260	 2.4510
 7.5370	 2.4960
 7.5480	 2.4960
 7.5590	 2.5020
 7.5700	 2.4630
 7.5810	 2.4890
 7.5920	 2.3820
 7.6030	 2.4110
 7.6140	 2.4320
 7.6260	 2.5070
 7.6370	 2.4670
 7.6480	 2.4550
 7.6590	 2.4200
 7.6710	 2.5140
 7.6820	 2.5230
 7.6930	 2.6110
 7.7050	 2.5690
 7.7160	 2.5340
 7.7280	 2.4320
 7.7390	 2.4510
 7.7510	 2.4150
 7.7630	 2.4110
 7.7740	 2.3320
 7.7860	 2.3790
 7.7980	 2.3320
 7.8090	 2.3400
 7.8210	 2.2980
 7.8330	 2.3220
 7.8450	 2.2860
 7.8570	 2.2990
 7.8690	 2.2450
 7.8810	 2.2540
 7.8930	 2.1360
 7.9050	 2.0790
 7.9170	 2.0250
 7.9290	 2.1010
 7.9410	 2.0940
 7.9530	 2.0970
 7.9650	 1.9820
 7.9780	 2.0190
 7.9900	 2.0240
 8.0020	 2.0430
 8.0150	 1.9650
 8.0270	 1.9950
 8.0390	 1.9510
 8.0520	 1.9480
 8.0640	 1.8450
 8.0770	 1.8130
 8.0900	 1.7750
 8.1020	 1.8340
 8.1150	 1.7990
 8.1280	 1.8160
 8.1400	 1.8040
 8.1530	 1.8580
 8.1660	 1.8440
 8.1790	 1.9010
 8.1920	 1.8220
 8.2050	 1.8430
 8.2180	 1.8280
 8.2310	 1.8580
 8.2440	 1.7900
 8.2570	 1.8350
 8.2700	 1.7990
 8.2830	 1.8660
 8.2970	 1.8770
 8.3100	 1.9420
 8.3230	 1.8840
 8.3370	 1.9270
 8.3500	 1.8650
 8.3640	 1.8930
 8.3770	 1.8630
 8.3910	 1.9170
 8.4040	 1.8520
 8.4180	 1.9180
 8.4320	 1.9040
 8.4450	 1.8940
 8.4590	 1.7960
 8.4730	 1.8550
 8.4870	 1.8040
 8.5010	 1.7850
 8.5150	 1.7250
 8.5290	 1.8040
 8.5430	 1.8250
 8.5570	 1.9310
 8.5710	 1.9020
 8.5850	 1.8990
 8.5990	 1.8270
 8.6140	 1.8760
 8.6280	 1.8440
 8.6420	 1.8820
 8.6570	 1.8550
 8.6710	 1.9620
 8.6860	 1.9190
 8.7000	 1.9610
 8.7150	 1.8920
 8.7300	 1.9300
 8.7440	 1.8950
 8.7590	 1.9040
 8.7740	 1.8220
 8.7890	 1.8740
 8.8040	 1.8490
 8.8190	 1.8590
 8.8340	 1.8380
 8.8490	 1.8490
 8.8640	 1.7280
 8.8790	 1.7590
 8.8940	 1.6810
 8.9100	 1.7070
 8.9250	 1.6510
 8.9400	 1.6910
 8.9560	 1.6190
 8.9710	 1.6050
 8.9870	 1.6060
 9.0020	 1.6870
 9.0180	 1.5870
 9.0340	 1.6270
 9.0500	 1.6570
 9.0650	 1.7270
 9.0810	 1.6660
 9.0970	 1.7310
 9.1130	 1.6930
 9.1290	 1.7500
 9.1450	 1.6520
 9.1610	 1.6630
 9.1780	 1.6250
 9.1940	 1.6620
 9.2100	 1.5870
 9.2270	 1.6640
 9.2430	 1.6200
 9.2600	 1.6760
 9.2760	 1.6590
 9.2930	 1.6880
 9.3090	 1.6130
 9.3260	 1.6540
 9.3430	 1.6030
 9.3600	 1.6790
 9.3770	 1.7120
 9.3940	 1.7700
 9.4110	 1.6230
 9.4280	 1.6640
 9.4450	 1.6550
 9.4620	 1.7420
 9.4800	 1.6870
 9.4970	 1.7480
 9.5140	 1.7050
 9.5320	 1.7600
 9.5500	 1.7090
 9.5670	 1.7660
 9.5850	 1.7370
 9.6030	 1.8410
 9.6200	 1.7970
 9.6380	 1.8350
 9.6560	 1.7930
 9.6740	 1.8930
 9.6920	 1.8770
 9.7100	 1.9340
 9.7290	 1.8900
 9.7470	 1.9640
 9.7650	 1.9100
 9.7840	 1.9740
 9.8020	 1.9470
 9.8210	 2.0240
 9.8390	 1.9410
 9.8580	 1.9990
 9.8770	 1.9430
 9.8960	 2.0040
 9.9150	 1.9950
 9.9340	 2.0740
 9.9530	 2.0200
 9.9720	 2.0930
 9.9910	 2.0350
10.0100	 2.0670
10.0300	 2.0200
10.0490	 2.0850
10.0690	 2.0870
10.0880	 2.1810
10.1080	 2.0650
10.1280	 2.1580
10.1480	 2.1760
10.1670	 2.2270
10.1870	 2.1870
10.2070	 2.2940
10.2280	 2.2280
10.2480	 2.2600
10.2680	 2.2250
10.2890	 2.2940
10.3090	 2.2750
10.3300	 2.3750
10.3500	 2.3210
10.3710	 2.3840
10.3920	 2.3900
10.4120	 2.5260
10.4330	 2.5130
10.4540	 2.5920
10.4760	 2.5300
10.4970	 2.6320
10.5180	 2.6300
10.5390	 2.7160
10.5610	 2.6450
10.5820	 2.6970
10.6040	 2.6430
10.6260	 2.7120
10.6480	 2.6210
10.6700	 2.6590
10.6920	 2.6480
10.7140	 2.6900
10.7360	 2.5420
10.7580	 2.5970
10.7800	 2.5420
10.8030	 2.5870
10.8250	 2.5230
10.8480	 2.5350
10.8710	 2.4250
10.8940	 2.5110
10.9170	 2.4440
10.9400	 2.4450
10.9630	 2.3540
10.9860	 2.4070
11.0090	 2.3520
11.0330	 2.4030
11.0560	 2.3170
11.0800	 2.3230
11.1040	 2.2220
11.1270	 2.2450
11.1510	 2.1400
11.1750	 2.2270
11.2000	 2.2450
11.2240	 2.3690
11.2480	 2.2820
11.2730	 2.3420
11.2970	 2.2780
11.3220	 2.3690
11.3470	 2.3440
11.3720	 2.4190
11.3970	 2.2730
11.4220	 2.2990
11.4470	 2.2520
11.4720	 2.3620
11.4980	 2.2590
11.5230	 2.3110
11.5490	 2.3050
11.5750	 2.3890
11.6000	 2.2690
11.6260	 2.3720
11.6530	 2.3370
11.6790	 2.3820
11.7050	 2.2850
11.7320	 2.3270
11.7580	 2.2310
11.7850	 2.2600
11.8120	 2.1850
11.8390	 2.2640
11.8660	 2.1730
11.8930	 2.1920
11.9200	 2.1000
11.9480	 2.1090
11.9760	 1.9790
12.0030	 2.0380
12.0310	 1.9490
12.0590	 2.0510
12.0870	 2.0260
12.1150	 2.0640
12.1440	 1.9220
12.1720	 1.9570
12.2010	 1.9190
12.2300	 2.0070
12.2590	 1.9020
12.2880	 1.9670
12.3170	 1.8600
12.3460	 1.9270
12.3760	 1.8430
12.4050	 1.9230
12.4350	 1.8770
12.4650	 1.9520
12.4950	 1.9120
12.5250	 1.9660
12.5550	 1.8560
12.5860	 1.8670
12.6170	 1.7600
12.6470	 1.8670
12.6780	 1.7960
12.7090	 1.8560
12.7410	 1.7790
12.7720	 1.8580
12.8030	 1.7680
12.8350	 1.7870
12.8670	 1.7350
12.8990	 1.8420
12.9310	 1.7310
12.9640	 1.7400
12.9960	 1.6050
13.0290	 1.6790
13.0610	 1.6110
13.0940	 1.6020
13.1280	 1.5120
13.1610	 1.6330
13.1940	 1.5490
13.2280	 1.6320
13.2620	 1.5370
13.2960	 1.5870
13.3300	 1.5020
13.3640	 1.5440
13.3990	 1.4290
13.4340	 1.5330
13.4690	 1.4700
13.5040	 1.5210
13.5390	 1.4260
13.5740	 1.4980
13.6100	 1.3810
13.6460	 1.4580
13.6820	 1.3760
13.7180	 1.4230
13.7540	 1.3010
13.7910	 1.3820
13.8280	 1.2710
13.8650	 1.3550
13.9020	 1.2820
13.9390	 1.3620
13.9770	 1.2750
14.0150	 1.3450
14.0530	 1.2260
14.0910	 1.2090
14.1290	 1.0780
14.1680	 1.1780
14.2070	 1.1330
14.2460	 1.2070
14.2850	 1.0560
14.3240	 1.1360
14.3640	 1.0770
14.4040	 1.1380
14.4440	 0.9560
14.4840	 1.0500
14.5250	 0.9420
14.5660	 0.9470
14.6070	 0.8770
14.6480	 0.9540
14.6900	 0.8120
14.7310	 0.9040
14.7730	 0.8150
14.8150	 0.8720
14.8580	 0.7570
14.9010	 0.8150
14.9440	 0.5730
14.9870	 0.6220
15.0300	 0.7090
15.0740	 0.8460
15.1180	 0.7040
15.1620	 0.7710
15.2060	 0.6750
15.2510	 0.7560
15.2960	 0.6450
15.3410	 0.7180
15.3870	 0.6020
