Name: Arctostaphylos glandulosa 2
Type: vegetation
Class: Shrub
Genus: Arctostaphylos
Species: glandulosa
Sample No.: VH227
Owner: UCSB
Wavelength Range: VSWIR
Origin: 34.5084; -119.7682; WGS84
Collection Date: 10/13/2013
Description: Samples were collected as part of the HyspIRI Airborne Campaign. 48 individual plants were sampled in three times in 2013 - spring  summer  and fall. The name of the sample includes a 1  2  or 3 which references a different individual of the species. Samples were taken to JPL and processed within 48 hours of collection. The same leaves were processed in the Nicolet and then measured using the ASD.
Measurement: Bidirectional reflectance
First Column: X
Second Column: Y
X Units: Wavelength (micrometers)
Y Units: Reflectance (percentage)
First X Value: 0.35
Last X Value: 2.5
Number of X Values: 2151
Additional Information: vegetation.shrub.arctostaphylos.glandulosa.vswir.vh227.ucsb.asd.ancillary.txt

 0.3500	 6.9100
 0.3510	 6.6410
 0.3520	 6.7640
 0.3530	 6.8550
 0.3540	 6.6300
 0.3550	 6.8200
 0.3560	 6.6960
 0.3570	 6.4680
 0.3580	 6.7230
 0.3590	 6.7790
 0.3600	 6.6870
 0.3610	 6.5770
 0.3620	 6.5900
 0.3630	 6.5220
 0.3640	 6.4600
 0.3650	 6.5190
 0.3660	 6.6730
 0.3670	 6.6800
 0.3680	 6.5430
 0.3690	 6.4410
 0.3700	 6.5230
 0.3710	 6.5330
 0.3720	 6.4020
 0.3730	 6.5100
 0.3740	 6.5300
 0.3750	 6.4990
 0.3760	 6.5230
 0.3770	 6.4360
 0.3780	 6.4100
 0.3790	 6.4810
 0.3800	 6.5450
 0.3810	 6.3520
 0.3820	 6.2280
 0.3830	 6.3630
 0.3840	 6.4630
 0.3850	 6.4260
 0.3860	 6.3280
 0.3870	 6.3110
 0.3880	 6.4570
 0.3890	 6.4710
 0.3900	 6.3530
 0.3910	 6.4120
 0.3920	 6.4850
 0.3930	 6.4860
 0.3940	 6.4030
 0.3950	 6.3570
 0.3960	 6.3410
 0.3970	 6.3560
 0.3980	 6.4010
 0.3990	 6.4240
 0.4000	 6.4120
 0.4010	 6.3960
 0.4020	 6.4570
 0.4030	 6.4050
 0.4040	 6.3380
 0.4050	 6.3650
 0.4060	 6.3850
 0.4070	 6.3870
 0.4080	 6.3700
 0.4090	 6.3440
 0.4100	 6.3930
 0.4110	 6.4260
 0.4120	 6.3900
 0.4130	 6.3360
 0.4140	 6.3560
 0.4150	 6.4100
 0.4160	 6.4230
 0.4170	 6.3740
 0.4180	 6.3600
 0.4190	 6.3940
 0.4200	 6.4100
 0.4210	 6.4260
 0.4220	 6.4320
 0.4230	 6.4290
 0.4240	 6.4590
 0.4250	 6.4850
 0.4260	 6.5150
 0.4270	 6.5690
 0.4280	 6.6130
 0.4290	 6.6550
 0.4300	 6.7020
 0.4310	 6.7480
 0.4320	 6.8080
 0.4330	 6.8720
 0.4340	 6.9270
 0.4350	 6.9770
 0.4360	 7.0620
 0.4370	 7.1640
 0.4380	 7.2280
 0.4390	 7.3060
 0.4400	 7.3940
 0.4410	 7.4840
 0.4420	 7.5770
 0.4430	 7.6620
 0.4440	 7.7480
 0.4450	 7.8470
 0.4460	 7.9280
 0.4470	 7.9970
 0.4480	 8.0660
 0.4490	 8.1580
 0.4500	 8.2210
 0.4510	 8.2760
 0.4520	 8.3530
 0.4530	 8.4340
 0.4540	 8.4920
 0.4550	 8.5360
 0.4560	 8.5960
 0.4570	 8.6540
 0.4580	 8.6970
 0.4590	 8.7240
 0.4600	 8.7500
 0.4610	 8.7980
 0.4620	 8.8420
 0.4630	 8.8580
 0.4640	 8.9040
 0.4650	 8.9320
 0.4660	 8.9380
 0.4670	 8.9710
 0.4680	 8.9940
 0.4690	 9.0150
 0.4700	 9.0410
 0.4710	 9.0380
 0.4720	 9.0580
 0.4730	 9.0930
 0.4740	 9.1050
 0.4750	 9.1150
 0.4760	 9.1280
 0.4770	 9.1430
 0.4780	 9.1520
 0.4790	 9.1600
 0.4800	 9.1720
 0.4810	 9.1900
 0.4820	 9.2110
 0.4830	 9.2190
 0.4840	 9.2240
 0.4850	 9.2550
 0.4860	 9.2820
 0.4870	 9.2990
 0.4880	 9.3150
 0.4890	 9.3590
 0.4900	 9.3980
 0.4910	 9.4330
 0.4920	 9.4760
 0.4930	 9.5250
 0.4940	 9.5750
 0.4950	 9.6280
 0.4960	 9.6920
 0.4970	 9.7580
 0.4980	 9.8270
 0.4990	 9.9060
 0.5000	 9.9890
 0.5010	10.0830
 0.5020	10.1810
 0.5030	10.2640
 0.5040	10.3780
 0.5050	10.5110
 0.5060	10.6480
 0.5070	10.7810
 0.5080	10.9160
 0.5090	11.0620
 0.5100	11.2280
 0.5110	11.4030
 0.5120	11.5860
 0.5130	11.7780
 0.5140	11.9710
 0.5150	12.1820
 0.5160	12.4000
 0.5170	12.6140
 0.5180	12.8500
 0.5190	13.0850
 0.5200	13.3160
 0.5210	13.5520
 0.5220	13.7880
 0.5230	14.0310
 0.5240	14.2790
 0.5250	14.5020
 0.5260	14.7330
 0.5270	14.9690
 0.5280	15.1920
 0.5290	15.4120
 0.5300	15.6250
 0.5310	15.8300
 0.5320	16.0360
 0.5330	16.2320
 0.5340	16.4240
 0.5350	16.6170
 0.5360	16.8030
 0.5370	16.9790
 0.5380	17.1500
 0.5390	17.3220
 0.5400	17.4880
 0.5410	17.6460
 0.5420	17.7990
 0.5430	17.9500
 0.5440	18.1080
 0.5450	18.2610
 0.5460	18.3940
 0.5470	18.5350
 0.5480	18.6710
 0.5490	18.7950
 0.5500	18.9070
 0.5510	19.0090
 0.5520	19.0970
 0.5530	19.1680
 0.5540	19.2250
 0.5550	19.2660
 0.5560	19.2890
 0.5570	19.2980
 0.5580	19.2920
 0.5590	19.2730
 0.5600	19.2400
 0.5610	19.1900
 0.5620	19.1320
 0.5630	19.0640
 0.5640	18.9780
 0.5650	18.8820
 0.5660	18.7780
 0.5670	18.6690
 0.5680	18.5560
 0.5690	18.4300
 0.5700	18.2990
 0.5710	18.1670
 0.5720	18.0280
 0.5730	17.8910
 0.5740	17.7610
 0.5750	17.6380
 0.5760	17.5190
 0.5770	17.4100
 0.5780	17.3120
 0.5790	17.2120
 0.5800	17.1260
 0.5810	17.0410
 0.5820	16.9390
 0.5830	16.8450
 0.5840	16.7650
 0.5850	16.6940
 0.5860	16.6230
 0.5870	16.5580
 0.5880	16.5000
 0.5890	16.4440
 0.5900	16.3930
 0.5910	16.3450
 0.5920	16.2970
 0.5930	16.2470
 0.5940	16.2030
 0.5950	16.1680
 0.5960	16.1400
 0.5970	16.1090
 0.5980	16.0790
 0.5990	16.0500
 0.6000	16.0200
 0.6010	15.9760
 0.6020	15.9260
 0.6030	15.8700
 0.6040	15.8050
 0.6050	15.7340
 0.6060	15.6600
 0.6070	15.5820
 0.6080	15.4890
 0.6090	15.3920
 0.6100	15.2910
 0.6110	15.1860
 0.6120	15.0860
 0.6130	14.9860
 0.6140	14.8880
 0.6150	14.7950
 0.6160	14.7010
 0.6170	14.6110
 0.6180	14.5340
 0.6190	14.4610
 0.6200	14.3920
 0.6210	14.3290
 0.6220	14.2780
 0.6230	14.2350
 0.6240	14.1980
 0.6250	14.1670
 0.6260	14.1480
 0.6270	14.1310
 0.6280	14.1160
 0.6290	14.1080
 0.6300	14.0920
 0.6310	14.0770
 0.6320	14.0650
 0.6330	14.0440
 0.6340	14.0050
 0.6350	13.9510
 0.6360	13.8860
 0.6370	13.8110
 0.6380	13.7150
 0.6390	13.6010
 0.6400	13.4800
 0.6410	13.3520
 0.6420	13.2160
 0.6430	13.0740
 0.6440	12.9280
 0.6450	12.7790
 0.6460	12.6330
 0.6470	12.4960
 0.6480	12.3670
 0.6490	12.2540
 0.6500	12.1570
 0.6510	12.0690
 0.6520	11.9880
 0.6530	11.9140
 0.6540	11.8410
 0.6550	11.7570
 0.6560	11.6620
 0.6570	11.5570
 0.6580	11.4400
 0.6590	11.3160
 0.6600	11.1780
 0.6610	11.0280
 0.6620	10.8790
 0.6630	10.7410
 0.6640	10.6080
 0.6650	10.4780
 0.6660	10.3600
 0.6670	10.2520
 0.6680	10.1540
 0.6690	10.0660
 0.6700	10.0070
 0.6710	 9.9520
 0.6720	 9.8960
 0.6730	 9.8660
 0.6740	 9.8400
 0.6750	 9.8190
 0.6760	 9.8070
 0.6770	 9.8060
 0.6780	 9.8120
 0.6790	 9.8310
 0.6800	 9.8700
 0.6810	 9.9280
 0.6820	10.0140
 0.6830	10.1330
 0.6840	10.2860
 0.6850	10.4880
 0.6860	10.7450
 0.6870	11.0570
 0.6880	11.4410
 0.6890	11.8920
 0.6900	12.4150
 0.6910	13.0260
 0.6920	13.7220
 0.6930	14.4970
 0.6940	15.3470
 0.6950	16.2720
 0.6960	17.2670
 0.6970	18.3250
 0.6980	19.4380
 0.6990	20.5910
 0.7000	21.7810
 0.7010	22.9990
 0.7020	24.2320
 0.7030	25.4590
 0.7040	26.6750
 0.7050	27.8770
 0.7060	29.0650
 0.7070	30.2330
 0.7080	31.3660
 0.7090	32.4560
 0.7100	33.5300
 0.7110	34.5630
 0.7120	35.5540
 0.7130	36.5220
 0.7140	37.4470
 0.7150	38.3370
 0.7160	39.1960
 0.7170	40.0000
 0.7180	40.7840
 0.7190	41.5400
 0.7200	42.2420
 0.7210	42.9130
 0.7220	43.5510
 0.7230	44.1570
 0.7240	44.7370
 0.7250	45.2750
 0.7260	45.7810
 0.7270	46.2600
 0.7280	46.6910
 0.7290	47.1130
 0.7300	47.5120
 0.7310	47.8630
 0.7320	48.2040
 0.7330	48.5260
 0.7340	48.8260
 0.7350	49.1120
 0.7360	49.3610
 0.7370	49.5920
 0.7380	49.8160
 0.7390	50.0150
 0.7400	50.2070
 0.7410	50.4000
 0.7420	50.5900
 0.7430	50.7490
 0.7440	50.8990
 0.7450	51.0440
 0.7460	51.1720
 0.7470	51.2740
 0.7480	51.3750
 0.7490	51.4850
 0.7500	51.5760
 0.7510	51.6760
 0.7520	51.7650
 0.7530	51.8190
 0.7540	51.8860
 0.7550	51.9530
 0.7560	52.0140
 0.7570	52.0710
 0.7580	52.1220
 0.7590	52.1630
 0.7600	52.2000
 0.7610	52.2570
 0.7620	52.3040
 0.7630	52.3330
 0.7640	52.3500
 0.7650	52.3850
 0.7660	52.4150
 0.7670	52.4400
 0.7680	52.4730
 0.7690	52.4950
 0.7700	52.5090
 0.7710	52.5260
 0.7720	52.5550
 0.7730	52.5810
 0.7740	52.5870
 0.7750	52.5770
 0.7760	52.6060
 0.7770	52.6290
 0.7780	52.6490
 0.7790	52.6870
 0.7800	52.6830
 0.7810	52.6760
 0.7820	52.6850
 0.7830	52.7040
 0.7840	52.7070
 0.7850	52.7190
 0.7860	52.7520
 0.7870	52.7790
 0.7880	52.7780
 0.7890	52.7730
 0.7900	52.7910
 0.7910	52.8080
 0.7920	52.8270
 0.7930	52.8360
 0.7940	52.8190
 0.7950	52.8370
 0.7960	52.8480
 0.7970	52.8420
 0.7980	52.8660
 0.7990	52.8770
 0.8000	52.8820
 0.8010	52.8920
 0.8020	52.9100
 0.8030	52.9210
 0.8040	52.9300
 0.8050	52.9450
 0.8060	52.9380
 0.8070	52.9430
 0.8080	52.9640
 0.8090	52.9710
 0.8100	52.9610
 0.8110	52.9570
 0.8120	52.9700
 0.8130	52.9830
 0.8140	53.0010
 0.8150	53.0140
 0.8160	53.0130
 0.8170	53.0170
 0.8180	53.0360
 0.8190	53.0530
 0.8200	53.0470
 0.8210	53.0460
 0.8220	53.0600
 0.8230	53.0820
 0.8240	53.0980
 0.8250	53.0950
 0.8260	53.0840
 0.8270	53.0750
 0.8280	53.0700
 0.8290	53.0880
 0.8300	53.1100
 0.8310	53.1160
 0.8320	53.1020
 0.8330	53.0910
 0.8340	53.0870
 0.8350	53.0860
 0.8360	53.1110
 0.8370	53.1270
 0.8380	53.1240
 0.8390	53.1130
 0.8400	53.1080
 0.8410	53.1190
 0.8420	53.1390
 0.8430	53.1490
 0.8440	53.1440
 0.8450	53.1510
 0.8460	53.1790
 0.8470	53.1810
 0.8480	53.2020
 0.8490	53.2160
 0.8500	53.1940
 0.8510	53.2040
 0.8520	53.2100
 0.8530	53.1980
 0.8540	53.1810
 0.8550	53.2080
 0.8560	53.2420
 0.8570	53.2470
 0.8580	53.2070
 0.8590	53.2090
 0.8600	53.2230
 0.8610	53.2230
 0.8620	53.2300
 0.8630	53.2440
 0.8640	53.2480
 0.8650	53.2340
 0.8660	53.2310
 0.8670	53.2420
 0.8680	53.2570
 0.8690	53.2640
 0.8700	53.2650
 0.8710	53.2630
 0.8720	53.2620
 0.8730	53.2640
 0.8740	53.2530
 0.8750	53.2510
 0.8760	53.2630
 0.8770	53.2810
 0.8780	53.2860
 0.8790	53.2710
 0.8800	53.2490
 0.8810	53.2650
 0.8820	53.2620
 0.8830	53.2630
 0.8840	53.2780
 0.8850	53.2580
 0.8860	53.2250
 0.8870	53.2000
 0.8880	53.1990
 0.8890	53.2040
 0.8900	53.2050
 0.8910	53.1950
 0.8920	53.1740
 0.8930	53.1570
 0.8940	53.1620
 0.8950	53.1770
 0.8960	53.1710
 0.8970	53.1320
 0.8980	53.1040
 0.8990	53.1080
 0.9000	53.1280
 0.9010	53.1180
 0.9020	53.0890
 0.9030	53.0590
 0.9040	53.0480
 0.9050	53.0590
 0.9060	53.0580
 0.9070	53.0270
 0.9080	52.9830
 0.9090	52.9700
 0.9100	52.9820
 0.9110	52.9910
 0.9120	52.9510
 0.9130	52.9330
 0.9140	52.9310
 0.9150	52.9250
 0.9160	52.9350
 0.9170	52.9200
 0.9180	52.8800
 0.9190	52.8420
 0.9200	52.8380
 0.9210	52.8250
 0.9220	52.8000
 0.9230	52.7790
 0.9240	52.7460
 0.9250	52.7430
 0.9260	52.7540
 0.9270	52.7260
 0.9280	52.7150
 0.9290	52.7020
 0.9300	52.6650
 0.9310	52.5970
 0.9320	52.5510
 0.9330	52.5230
 0.9340	52.4900
 0.9350	52.4280
 0.9360	52.4040
 0.9370	52.3750
 0.9380	52.3240
 0.9390	52.2970
 0.9400	52.2760
 0.9410	52.2250
 0.9420	52.1460
 0.9430	52.1120
 0.9440	52.0880
 0.9450	52.0390
 0.9460	51.9550
 0.9470	51.8630
 0.9480	51.7820
 0.9490	51.7140
 0.9500	51.6520
 0.9510	51.5850
 0.9520	51.4850
 0.9530	51.3850
 0.9540	51.3080
 0.9550	51.2050
 0.9560	51.0890
 0.9570	50.9640
 0.9580	50.8360
 0.9590	50.7280
 0.9600	50.6640
 0.9610	50.6020
 0.9620	50.5070
 0.9630	50.4500
 0.9640	50.3910
 0.9650	50.3190
 0.9660	50.2460
 0.9670	50.1980
 0.9680	50.1730
 0.9690	50.1600
 0.9700	50.1430
 0.9710	50.0910
 0.9720	50.0830
 0.9730	50.0900
 0.9740	50.0510
 0.9750	50.0310
 0.9760	50.0250
 0.9770	50.0360
 0.9780	50.0590
 0.9790	50.0560
 0.9800	50.0270
 0.9810	49.9950
 0.9820	49.9960
 0.9830	50.0650
 0.9840	50.0900
 0.9850	50.0810
 0.9860	50.0980
 0.9870	50.0980
 0.9880	50.1240
 0.9890	50.1670
 0.9900	50.2000
 0.9910	50.2360
 0.9920	50.2810
 0.9930	50.3250
 0.9940	50.3700
 0.9950	50.4140
 0.9960	50.4580
 0.9970	50.5030
 0.9980	50.5470
 0.9990	50.5920
 1.0000	50.6360
 1.0010	50.6800
 1.0020	50.7250
 1.0030	50.7690
 1.0040	50.8140
 1.0050	50.8580
 1.0060	50.9030
 1.0070	50.9470
 1.0080	50.9910
 1.0090	51.0360
 1.0100	51.0360
 1.0110	51.0830
 1.0120	51.1280
 1.0130	51.1570
 1.0140	51.1970
 1.0150	51.2430
 1.0160	51.3010
 1.0170	51.3480
 1.0180	51.3940
 1.0190	51.4450
 1.0200	51.4830
 1.0210	51.5100
 1.0220	51.5430
 1.0230	51.5740
 1.0240	51.5990
 1.0250	51.6260
 1.0260	51.6560
 1.0270	51.6850
 1.0280	51.7030
 1.0290	51.7360
 1.0300	51.7780
 1.0310	51.8200
 1.0320	51.8620
 1.0330	51.9210
 1.0340	51.9690
 1.0350	52.0050
 1.0360	52.0390
 1.0370	52.0530
 1.0380	52.0730
 1.0390	52.0800
 1.0400	52.1020
 1.0410	52.1380
 1.0420	52.1590
 1.0430	52.1780
 1.0440	52.1980
 1.0450	52.2080
 1.0460	52.2240
 1.0470	52.2510
 1.0480	52.2670
 1.0490	52.2670
 1.0500	52.2780
 1.0510	52.2860
 1.0520	52.3040
 1.0530	52.3220
 1.0540	52.3510
 1.0550	52.3690
 1.0560	52.3820
 1.0570	52.3990
 1.0580	52.4200
 1.0590	52.4350
 1.0600	52.4500
 1.0610	52.4610
 1.0620	52.4630
 1.0630	52.4710
 1.0640	52.4800
 1.0650	52.4910
 1.0660	52.5100
 1.0670	52.5210
 1.0680	52.5290
 1.0690	52.5350
 1.0700	52.5380
 1.0710	52.5380
 1.0720	52.5350
 1.0730	52.5270
 1.0740	52.5250
 1.0750	52.5210
 1.0760	52.5170
 1.0770	52.5200
 1.0780	52.5160
 1.0790	52.5070
 1.0800	52.4970
 1.0810	52.4790
 1.0820	52.4720
 1.0830	52.4740
 1.0840	52.4670
 1.0850	52.4610
 1.0860	52.4580
 1.0870	52.4500
 1.0880	52.4310
 1.0890	52.4220
 1.0900	52.4180
 1.0910	52.4090
 1.0920	52.3990
 1.0930	52.3880
 1.0940	52.3770
 1.0950	52.3630
 1.0960	52.3430
 1.0970	52.3260
 1.0980	52.3120
 1.0990	52.2900
 1.1000	52.2670
 1.1010	52.2420
 1.1020	52.2150
 1.1030	52.1790
 1.1040	52.1370
 1.1050	52.1060
 1.1060	52.0760
 1.1070	52.0470
 1.1080	52.0190
 1.1090	52.0010
 1.1100	51.9710
 1.1110	51.9380
 1.1120	51.8960
 1.1130	51.8470
 1.1140	51.7990
 1.1150	51.7450
 1.1160	51.6920
 1.1170	51.6420
 1.1180	51.5830
 1.1190	51.5150
 1.1200	51.4510
 1.1210	51.3750
 1.1220	51.2980
 1.1230	51.2210
 1.1240	51.1350
 1.1250	51.0450
 1.1260	50.9540
 1.1270	50.8480
 1.1280	50.7290
 1.1290	50.6110
 1.1300	50.4880
 1.1310	50.3590
 1.1320	50.2290
 1.1330	50.0890
 1.1340	49.9450
 1.1350	49.7830
 1.1360	49.6090
 1.1370	49.4320
 1.1380	49.2410
 1.1390	49.0370
 1.1400	48.8330
 1.1410	48.6220
 1.1420	48.3970
 1.1430	48.1740
 1.1440	47.9480
 1.1450	47.7110
 1.1460	47.4870
 1.1470	47.2680
 1.1480	47.0470
 1.1490	46.8260
 1.1500	46.6160
 1.1510	46.4020
 1.1520	46.2060
 1.1530	46.0240
 1.1540	45.8520
 1.1550	45.6880
 1.1560	45.5370
 1.1570	45.4050
 1.1580	45.2840
 1.1590	45.1790
 1.1600	45.0860
 1.1610	44.9960
 1.1620	44.9150
 1.1630	44.8400
 1.1640	44.7710
 1.1650	44.7090
 1.1660	44.6530
 1.1670	44.6070
 1.1680	44.5720
 1.1690	44.5350
 1.1700	44.5050
 1.1710	44.4750
 1.1720	44.4460
 1.1730	44.4160
 1.1740	44.3900
 1.1750	44.3610
 1.1760	44.3330
 1.1770	44.3010
 1.1780	44.2650
 1.1790	44.2270
 1.1800	44.1890
 1.1810	44.1530
 1.1820	44.1170
 1.1830	44.0840
 1.1840	44.0480
 1.1850	44.0100
 1.1860	43.9720
 1.1870	43.9380
 1.1880	43.9080
 1.1890	43.8840
 1.1900	43.8530
 1.1910	43.8200
 1.1920	43.7930
 1.1930	43.7600
 1.1940	43.7370
 1.1950	43.7260
 1.1960	43.7100
 1.1970	43.6950
 1.1980	43.6850
 1.1990	43.6760
 1.2000	43.6740
 1.2010	43.6760
 1.2020	43.6780
 1.2030	43.6860
 1.2040	43.6980
 1.2050	43.7190
 1.2060	43.7460
 1.2070	43.7780
 1.2080	43.8180
 1.2090	43.8540
 1.2100	43.8900
 1.2110	43.9340
 1.2120	43.9830
 1.2130	44.0320
 1.2140	44.0870
 1.2150	44.1450
 1.2160	44.2030
 1.2170	44.2660
 1.2180	44.3370
 1.2190	44.4150
 1.2200	44.4940
 1.2210	44.5720
 1.2220	44.6460
 1.2230	44.7200
 1.2240	44.7900
 1.2250	44.8560
 1.2260	44.9250
 1.2270	44.9890
 1.2280	45.0540
 1.2290	45.1210
 1.2300	45.1780
 1.2310	45.2350
 1.2320	45.2910
 1.2330	45.3450
 1.2340	45.3980
 1.2350	45.4540
 1.2360	45.5050
 1.2370	45.5540
 1.2380	45.5970
 1.2390	45.6400
 1.2400	45.6860
 1.2410	45.7280
 1.2420	45.7700
 1.2430	45.8130
 1.2440	45.8510
 1.2450	45.8920
 1.2460	45.9380
 1.2470	45.9790
 1.2480	46.0120
 1.2490	46.0420
 1.2500	46.0670
 1.2510	46.0900
 1.2520	46.1140
 1.2530	46.1330
 1.2540	46.1540
 1.2550	46.1740
 1.2560	46.1920
 1.2570	46.2130
 1.2580	46.2330
 1.2590	46.2500
 1.2600	46.2650
 1.2610	46.2800
 1.2620	46.2930
 1.2630	46.3050
 1.2640	46.3140
 1.2650	46.3180
 1.2660	46.3180
 1.2670	46.3200
 1.2680	46.3170
 1.2690	46.3110
 1.2700	46.3100
 1.2710	46.3040
 1.2720	46.2970
 1.2730	46.2950
 1.2740	46.2870
 1.2750	46.2760
 1.2760	46.2650
 1.2770	46.2470
 1.2780	46.2310
 1.2790	46.2140
 1.2800	46.1860
 1.2810	46.1620
 1.2820	46.1380
 1.2830	46.1110
 1.2840	46.0870
 1.2850	46.0670
 1.2860	46.0420
 1.2870	46.0120
 1.2880	45.9760
 1.2890	45.9370
 1.2900	45.8910
 1.2910	45.8400
 1.2920	45.7900
 1.2930	45.7370
 1.2940	45.6850
 1.2950	45.6310
 1.2960	45.5690
 1.2970	45.5030
 1.2980	45.4340
 1.2990	45.3620
 1.3000	45.2930
 1.3010	45.2190
 1.3020	45.1420
 1.3030	45.0630
 1.3040	44.9740
 1.3050	44.8850
 1.3060	44.7920
 1.3070	44.6900
 1.3080	44.5850
 1.3090	44.4730
 1.3100	44.3590
 1.3110	44.2390
 1.3120	44.1100
 1.3130	43.9770
 1.3140	43.8380
 1.3150	43.6890
 1.3160	43.5420
 1.3170	43.3940
 1.3180	43.2420
 1.3190	43.0880
 1.3200	42.9230
 1.3210	42.7500
 1.3220	42.5750
 1.3230	42.3950
 1.3240	42.2100
 1.3250	42.0220
 1.3260	41.8270
 1.3270	41.6230
 1.3280	41.4180
 1.3290	41.2090
 1.3300	40.9980
 1.3310	40.7860
 1.3320	40.5730
 1.3330	40.3640
 1.3340	40.1570
 1.3350	39.9490
 1.3360	39.7340
 1.3370	39.5140
 1.3380	39.2970
 1.3390	39.0770
 1.3400	38.8600
 1.3410	38.6460
 1.3420	38.4300
 1.3430	38.2170
 1.3440	38.0030
 1.3450	37.7940
 1.3460	37.5880
 1.3470	37.3870
 1.3480	37.1910
 1.3490	36.9950
 1.3500	36.8040
 1.3510	36.6080
 1.3520	36.4120
 1.3530	36.2230
 1.3540	36.0340
 1.3550	35.8460
 1.3560	35.6590
 1.3570	35.4700
 1.3580	35.2800
 1.3590	35.0890
 1.3600	34.8950
 1.3610	34.6990
 1.3620	34.4970
 1.3630	34.2870
 1.3640	34.0730
 1.3650	33.8500
 1.3660	33.6240
 1.3670	33.3910
 1.3680	33.1440
 1.3690	32.8880
 1.3700	32.6140
 1.3710	32.3240
 1.3720	32.0250
 1.3730	31.7090
 1.3740	31.3760
 1.3750	31.0290
 1.3760	30.6620
 1.3770	30.2730
 1.3780	29.8630
 1.3790	29.4300
 1.3800	28.9730
 1.3810	28.4940
 1.3820	27.9990
 1.3830	27.4850
 1.3840	26.9560
 1.3850	26.4090
 1.3860	25.8540
 1.3870	25.2800
 1.3880	24.7090
 1.3890	24.1300
 1.3900	23.5480
 1.3910	22.9720
 1.3920	22.3960
 1.3930	21.8250
 1.3940	21.2620
 1.3950	20.7040
 1.3960	20.1590
 1.3970	19.6270
 1.3980	19.1110
 1.3990	18.6160
 1.4000	18.1380
 1.4010	17.6790
 1.4020	17.2420
 1.4030	16.8220
 1.4040	16.4250
 1.4050	16.0500
 1.4060	15.6950
 1.4070	15.3640
 1.4080	15.0550
 1.4090	14.7650
 1.4100	14.4960
 1.4110	14.2460
 1.4120	14.0170
 1.4130	13.8080
 1.4140	13.6160
 1.4150	13.4440
 1.4160	13.2870
 1.4170	13.1380
 1.4180	13.0020
 1.4190	12.8790
 1.4200	12.7670
 1.4210	12.6670
 1.4220	12.5790
 1.4230	12.4990
 1.4240	12.4270
 1.4250	12.3620
 1.4260	12.3050
 1.4270	12.2520
 1.4280	12.2060
 1.4290	12.1650
 1.4300	12.1300
 1.4310	12.0990
 1.4320	12.0740
 1.4330	12.0510
 1.4340	12.0310
 1.4350	12.0160
 1.4360	12.0060
 1.4370	11.9980
 1.4380	11.9930
 1.4390	11.9910
 1.4400	11.9880
 1.4410	11.9880
 1.4420	11.9900
 1.4430	11.9960
 1.4440	12.0050
 1.4450	12.0150
 1.4460	12.0250
 1.4470	12.0340
 1.4480	12.0450
 1.4490	12.0550
 1.4500	12.0660
 1.4510	12.0800
 1.4520	12.0940
 1.4530	12.1080
 1.4540	12.1210
 1.4550	12.1350
 1.4560	12.1510
 1.4570	12.1700
 1.4580	12.1930
 1.4590	12.2170
 1.4600	12.2420
 1.4610	12.2690
 1.4620	12.2970
 1.4630	12.3300
 1.4640	12.3660
 1.4650	12.4040
 1.4660	12.4450
 1.4670	12.4880
 1.4680	12.5320
 1.4690	12.5830
 1.4700	12.6380
 1.4710	12.6940
 1.4720	12.7520
 1.4730	12.8110
 1.4740	12.8730
 1.4750	12.9360
 1.4760	13.0070
 1.4770	13.0790
 1.4780	13.1510
 1.4790	13.2280
 1.4800	13.3060
 1.4810	13.3860
 1.4820	13.4710
 1.4830	13.5570
 1.4840	13.6430
 1.4850	13.7270
 1.4860	13.8090
 1.4870	13.8940
 1.4880	13.9760
 1.4890	14.0590
 1.4900	14.1450
 1.4910	14.2330
 1.4920	14.3210
 1.4930	14.4130
 1.4940	14.5030
 1.4950	14.5930
 1.4960	14.6820
 1.4970	14.7700
 1.4980	14.8610
 1.4990	14.9510
 1.5000	15.0430
 1.5010	15.1390
 1.5020	15.2290
 1.5030	15.3170
 1.5040	15.4060
 1.5050	15.4930
 1.5060	15.5820
 1.5070	15.6730
 1.5080	15.7650
 1.5090	15.8590
 1.5100	15.9480
 1.5110	16.0370
 1.5120	16.1280
 1.5130	16.2140
 1.5140	16.3020
 1.5150	16.3940
 1.5160	16.4820
 1.5170	16.5700
 1.5180	16.6570
 1.5190	16.7420
 1.5200	16.8260
 1.5210	16.9120
 1.5220	16.9970
 1.5230	17.0800
 1.5240	17.1650
 1.5250	17.2490
 1.5260	17.3300
 1.5270	17.4130
 1.5280	17.4930
 1.5290	17.5710
 1.5300	17.6510
 1.5310	17.7290
 1.5320	17.8080
 1.5330	17.8880
 1.5340	17.9650
 1.5350	18.0420
 1.5360	18.1210
 1.5370	18.1980
 1.5380	18.2750
 1.5390	18.3510
 1.5400	18.4250
 1.5410	18.4990
 1.5420	18.5720
 1.5430	18.6430
 1.5440	18.7130
 1.5450	18.7820
 1.5460	18.8510
 1.5470	18.9230
 1.5480	18.9950
 1.5490	19.0680
 1.5500	19.1390
 1.5510	19.2070
 1.5520	19.2750
 1.5530	19.3400
 1.5540	19.4070
 1.5550	19.4770
 1.5560	19.5410
 1.5570	19.6060
 1.5580	19.6720
 1.5590	19.7340
 1.5600	19.7970
 1.5610	19.8570
 1.5620	19.9150
 1.5630	19.9750
 1.5640	20.0370
 1.5650	20.0980
 1.5660	20.1580
 1.5670	20.2160
 1.5680	20.2740
 1.5690	20.3330
 1.5700	20.3960
 1.5710	20.4570
 1.5720	20.5200
 1.5730	20.5830
 1.5740	20.6410
 1.5750	20.7010
 1.5760	20.7570
 1.5770	20.8100
 1.5780	20.8720
 1.5790	20.9310
 1.5800	20.9870
 1.5810	21.0480
 1.5820	21.1030
 1.5830	21.1570
 1.5840	21.2190
 1.5850	21.2760
 1.5860	21.3310
 1.5870	21.3850
 1.5880	21.4360
 1.5890	21.4880
 1.5900	21.5380
 1.5910	21.5920
 1.5920	21.6490
 1.5930	21.7040
 1.5940	21.7600
 1.5950	21.8150
 1.5960	21.8670
 1.5970	21.9210
 1.5980	21.9780
 1.5990	22.0330
 1.6000	22.0900
 1.6010	22.1470
 1.6020	22.2010
 1.6030	22.2580
 1.6040	22.3110
 1.6050	22.3610
 1.6060	22.4090
 1.6070	22.4540
 1.6080	22.5010
 1.6090	22.5470
 1.6100	22.5930
 1.6110	22.6420
 1.6120	22.6870
 1.6130	22.7300
 1.6140	22.7750
 1.6150	22.8190
 1.6160	22.8630
 1.6170	22.9060
 1.6180	22.9500
 1.6190	22.9930
 1.6200	23.0340
 1.6210	23.0720
 1.6220	23.1070
 1.6230	23.1410
 1.6240	23.1740
 1.6250	23.2090
 1.6260	23.2450
 1.6270	23.2780
 1.6280	23.3070
 1.6290	23.3380
 1.6300	23.3640
 1.6310	23.3900
 1.6320	23.4180
 1.6330	23.4420
 1.6340	23.4660
 1.6350	23.4850
 1.6360	23.5010
 1.6370	23.5120
 1.6380	23.5170
 1.6390	23.5210
 1.6400	23.5230
 1.6410	23.5210
 1.6420	23.5170
 1.6430	23.5060
 1.6440	23.4900
 1.6450	23.4710
 1.6460	23.4460
 1.6470	23.4200
 1.6480	23.3950
 1.6490	23.3650
 1.6500	23.3370
 1.6510	23.3030
 1.6520	23.2630
 1.6530	23.2230
 1.6540	23.1800
 1.6550	23.1400
 1.6560	23.1040
 1.6570	23.0700
 1.6580	23.0410
 1.6590	23.0130
 1.6600	22.9870
 1.6610	22.9670
 1.6620	22.9510
 1.6630	22.9420
 1.6640	22.9440
 1.6650	22.9500
 1.6660	22.9590
 1.6670	22.9710
 1.6680	22.9830
 1.6690	22.9970
 1.6700	23.0120
 1.6710	23.0260
 1.6720	23.0440
 1.6730	23.0580
 1.6740	23.0720
 1.6750	23.0840
 1.6760	23.0870
 1.6770	23.0820
 1.6780	23.0720
 1.6790	23.0620
 1.6800	23.0510
 1.6810	23.0370
 1.6820	23.0180
 1.6830	22.9890
 1.6840	22.9500
 1.6850	22.9070
 1.6860	22.8600
 1.6870	22.8080
 1.6880	22.7560
 1.6890	22.6990
 1.6900	22.6370
 1.6910	22.5680
 1.6920	22.5000
 1.6930	22.4270
 1.6940	22.3550
 1.6950	22.2820
 1.6960	22.2130
 1.6970	22.1490
 1.6980	22.0830
 1.6990	22.0190
 1.7000	21.9540
 1.7010	21.8880
 1.7020	21.8180
 1.7030	21.7500
 1.7040	21.6760
 1.7050	21.5950
 1.7060	21.5190
 1.7070	21.4430
 1.7080	21.3690
 1.7090	21.2990
 1.7100	21.2290
 1.7110	21.1570
 1.7120	21.0930
 1.7130	21.0310
 1.7140	20.9720
 1.7150	20.9170
 1.7160	20.8630
 1.7170	20.8140
 1.7180	20.7720
 1.7190	20.7360
 1.7200	20.7020
 1.7210	20.6660
 1.7220	20.6310
 1.7230	20.5970
 1.7240	20.5640
 1.7250	20.5370
 1.7260	20.5100
 1.7270	20.4870
 1.7280	20.4720
 1.7290	20.4580
 1.7300	20.4520
 1.7310	20.4440
 1.7320	20.4350
 1.7330	20.4290
 1.7340	20.4260
 1.7350	20.4200
 1.7360	20.4170
 1.7370	20.4060
 1.7380	20.3930
 1.7390	20.3710
 1.7400	20.3400
 1.7410	20.3090
 1.7420	20.2720
 1.7430	20.2340
 1.7440	20.1960
 1.7450	20.1550
 1.7460	20.1080
 1.7470	20.0650
 1.7480	20.0230
 1.7490	19.9780
 1.7500	19.9370
 1.7510	19.8900
 1.7520	19.8380
 1.7530	19.7900
 1.7540	19.7420
 1.7550	19.6930
 1.7560	19.6480
 1.7570	19.6010
 1.7580	19.5580
 1.7590	19.5240
 1.7600	19.4870
 1.7610	19.4560
 1.7620	19.4250
 1.7630	19.3920
 1.7640	19.3640
 1.7650	19.3420
 1.7660	19.3190
 1.7670	19.3000
 1.7680	19.2790
 1.7690	19.2550
 1.7700	19.2330
 1.7710	19.2140
 1.7720	19.1950
 1.7730	19.1760
 1.7740	19.1590
 1.7750	19.1440
 1.7760	19.1270
 1.7770	19.1110
 1.7780	19.0980
 1.7790	19.0850
 1.7800	19.0730
 1.7810	19.0650
 1.7820	19.0560
 1.7830	19.0460
 1.7840	19.0370
 1.7850	19.0290
 1.7860	19.0250
 1.7870	19.0230
 1.7880	19.0280
 1.7890	19.0350
 1.7900	19.0470
 1.7910	19.0530
 1.7920	19.0510
 1.7930	19.0560
 1.7940	19.0600
 1.7950	19.0670
 1.7960	19.0850
 1.7970	19.0940
 1.7980	19.0940
 1.7990	19.0990
 1.8000	19.1010
 1.8010	19.1070
 1.8020	19.1180
 1.8030	19.1250
 1.8040	19.1300
 1.8050	19.1410
 1.8060	19.1530
 1.8070	19.1660
 1.8080	19.1830
 1.8090	19.1960
 1.8100	19.2060
 1.8110	19.2150
 1.8120	19.2250
 1.8130	19.2350
 1.8140	19.2390
 1.8150	19.2410
 1.8160	19.2410
 1.8170	19.2400
 1.8180	19.2420
 1.8190	19.2480
 1.8200	19.2540
 1.8210	19.2650
 1.8220	19.2720
 1.8230	19.2790
 1.8240	19.2800
 1.8250	19.2740
 1.8260	19.2690
 1.8270	19.2650
 1.8280	19.2610
 1.8290	19.2560
 1.8300	19.2520
 1.8310	19.2470
 1.8320	19.2430
 1.8330	19.2390
 1.8340	19.2340
 1.8350	19.2340
 1.8360	19.2110
 1.8370	19.1760
 1.8380	19.1270
 1.8390	19.0890
 1.8400	19.0600
 1.8410	19.0190
 1.8420	18.9750
 1.8430	18.9360
 1.8440	18.8870
 1.8450	18.8270
 1.8460	18.7650
 1.8470	18.6980
 1.8480	18.6260
 1.8490	18.5420
 1.8500	18.4530
 1.8510	18.3600
 1.8520	18.2560
 1.8530	18.1390
 1.8540	18.0200
 1.8550	17.8880
 1.8560	17.7430
 1.8570	17.5920
 1.8580	17.4310
 1.8590	17.2620
 1.8600	17.0820
 1.8610	16.9020
 1.8620	16.7100
 1.8630	16.4900
 1.8640	16.2620
 1.8650	16.0240
 1.8660	15.7780
 1.8670	15.5350
 1.8680	15.2850
 1.8690	15.0230
 1.8700	14.7500
 1.8710	14.4640
 1.8720	14.1720
 1.8730	13.8710
 1.8740	13.5690
 1.8750	13.2680
 1.8760	12.9650
 1.8770	12.6630
 1.8780	12.3600
 1.8790	12.0540
 1.8800	11.7600
 1.8810	11.4690
 1.8820	11.1900
 1.8830	10.9220
 1.8840	10.6610
 1.8850	10.3990
 1.8860	10.1520
 1.8870	 9.9080
 1.8880	 9.6700
 1.8890	 9.4560
 1.8900	 9.2480
 1.8910	 9.0530
 1.8920	 8.8690
 1.8930	 8.7060
 1.8940	 8.5480
 1.8950	 8.4010
 1.8960	 8.2720
 1.8970	 8.1550
 1.8980	 8.0490
 1.8990	 7.9580
 1.9000	 7.8740
 1.9010	 7.8000
 1.9020	 7.7300
 1.9030	 7.6700
 1.9040	 7.6160
 1.9050	 7.5630
 1.9060	 7.5180
 1.9070	 7.4820
 1.9080	 7.4530
 1.9090	 7.4220
 1.9100	 7.3890
 1.9110	 7.3580
 1.9120	 7.3170
 1.9130	 7.2920
 1.9140	 7.2740
 1.9150	 7.2660
 1.9160	 7.2600
 1.9170	 7.2540
 1.9180	 7.2520
 1.9190	 7.2480
 1.9200	 7.2480
 1.9210	 7.2530
 1.9220	 7.2520
 1.9230	 7.2460
 1.9240	 7.2440
 1.9250	 7.2410
 1.9260	 7.2380
 1.9270	 7.2400
 1.9280	 7.2390
 1.9290	 7.2440
 1.9300	 7.2480
 1.9310	 7.2510
 1.9320	 7.2580
 1.9330	 7.2640
 1.9340	 7.2660
 1.9350	 7.2730
 1.9360	 7.2840
 1.9370	 7.2920
 1.9380	 7.2990
 1.9390	 7.3100
 1.9400	 7.3170
 1.9410	 7.3280
 1.9420	 7.3400
 1.9430	 7.3510
 1.9440	 7.3630
 1.9450	 7.3740
 1.9460	 7.3870
 1.9470	 7.4030
 1.9480	 7.4180
 1.9490	 7.4340
 1.9500	 7.4530
 1.9510	 7.4680
 1.9520	 7.4800
 1.9530	 7.4920
 1.9540	 7.5080
 1.9550	 7.5280
 1.9560	 7.5520
 1.9570	 7.5750
 1.9580	 7.6030
 1.9590	 7.6260
 1.9600	 7.6510
 1.9610	 7.6720
 1.9620	 7.6850
 1.9630	 7.7030
 1.9640	 7.7200
 1.9650	 7.7310
 1.9660	 7.7490
 1.9670	 7.7730
 1.9680	 7.7980
 1.9690	 7.8330
 1.9700	 7.8550
 1.9710	 7.8750
 1.9720	 7.8930
 1.9730	 7.9020
 1.9740	 7.9170
 1.9750	 7.9370
 1.9760	 7.9680
 1.9770	 7.9990
 1.9780	 8.0250
 1.9790	 8.0490
 1.9800	 8.0680
 1.9810	 8.0930
 1.9820	 8.1200
 1.9830	 8.1470
 1.9840	 8.1780
 1.9850	 8.2060
 1.9860	 8.2310
 1.9870	 8.2560
 1.9880	 8.2830
 1.9890	 8.3090
 1.9900	 8.3450
 1.9910	 8.3820
 1.9920	 8.4110
 1.9930	 8.4400
 1.9940	 8.4710
 1.9950	 8.4980
 1.9960	 8.5260
 1.9970	 8.5630
 1.9980	 8.5930
 1.9990	 8.6150
 2.0000	 8.6400
 2.0010	 8.6740
 2.0020	 8.7110
 2.0030	 8.7490
 2.0040	 8.7840
 2.0050	 8.8160
 2.0060	 8.8390
 2.0070	 8.8690
 2.0080	 8.9000
 2.0090	 8.9300
 2.0100	 8.9610
 2.0110	 8.9910
 2.0120	 9.0210
 2.0130	 9.0470
 2.0140	 9.0730
 2.0150	 9.0930
 2.0160	 9.1140
 2.0170	 9.1390
 2.0180	 9.1640
 2.0190	 9.1910
 2.0200	 9.2190
 2.0210	 9.2490
 2.0220	 9.2780
 2.0230	 9.3090
 2.0240	 9.3380
 2.0250	 9.3710
 2.0260	 9.3970
 2.0270	 9.4240
 2.0280	 9.4420
 2.0290	 9.4580
 2.0300	 9.4670
 2.0310	 9.4830
 2.0320	 9.5020
 2.0330	 9.5200
 2.0340	 9.5410
 2.0350	 9.5610
 2.0360	 9.5810
 2.0370	 9.5970
 2.0380	 9.6130
 2.0390	 9.6270
 2.0400	 9.6330
 2.0410	 9.6450
 2.0420	 9.6580
 2.0430	 9.6750
 2.0440	 9.6930
 2.0450	 9.7170
 2.0460	 9.7310
 2.0470	 9.7430
 2.0480	 9.7560
 2.0490	 9.7640
 2.0500	 9.7760
 2.0510	 9.7940
 2.0520	 9.8060
 2.0530	 9.8090
 2.0540	 9.8190
 2.0550	 9.8330
 2.0560	 9.8430
 2.0570	 9.8540
 2.0580	 9.8690
 2.0590	 9.8790
 2.0600	 9.8810
 2.0610	 9.8910
 2.0620	 9.9020
 2.0630	 9.9150
 2.0640	 9.9330
 2.0650	 9.9410
 2.0660	 9.9440
 2.0670	 9.9500
 2.0680	 9.9460
 2.0690	 9.9520
 2.0700	 9.9660
 2.0710	 9.9770
 2.0720	 9.9900
 2.0730	10.0020
 2.0740	10.0110
 2.0750	10.0150
 2.0760	10.0240
 2.0770	10.0290
 2.0780	10.0440
 2.0790	10.0720
 2.0800	10.0880
 2.0810	10.1070
 2.0820	10.1180
 2.0830	10.1090
 2.0840	10.1200
 2.0850	10.1470
 2.0860	10.1640
 2.0870	10.1840
 2.0880	10.2110
 2.0890	10.2200
 2.0900	10.2130
 2.0910	10.2180
 2.0920	10.2230
 2.0930	10.2290
 2.0940	10.2410
 2.0950	10.2490
 2.0960	10.2590
 2.0970	10.2640
 2.0980	10.2570
 2.0990	10.2640
 2.1000	10.2790
 2.1010	10.2880
 2.1020	10.3030
 2.1030	10.3160
 2.1040	10.3220
 2.1050	10.3270
 2.1060	10.3390
 2.1070	10.3590
 2.1080	10.3710
 2.1090	10.3820
 2.1100	10.3900
 2.1110	10.3930
 2.1120	10.4020
 2.1130	10.4120
 2.1140	10.4210
 2.1150	10.4310
 2.1160	10.4430
 2.1170	10.4610
 2.1180	10.4700
 2.1190	10.4730
 2.1200	10.4780
 2.1210	10.4780
 2.1220	10.4740
 2.1230	10.4840
 2.1240	10.5060
 2.1250	10.5160
 2.1260	10.5300
 2.1270	10.5390
 2.1280	10.5400
 2.1290	10.5470
 2.1300	10.5550
 2.1310	10.5670
 2.1320	10.5890
 2.1330	10.6020
 2.1340	10.6160
 2.1350	10.6230
 2.1360	10.6140
 2.1370	10.6170
 2.1380	10.6220
 2.1390	10.6300
 2.1400	10.6390
 2.1410	10.6570
 2.1420	10.6720
 2.1430	10.6870
 2.1440	10.7000
 2.1450	10.7100
 2.1460	10.7270
 2.1470	10.7420
 2.1480	10.7640
 2.1490	10.7980
 2.1500	10.8230
 2.1510	10.8470
 2.1520	10.8690
 2.1530	10.8860
 2.1540	10.9050
 2.1550	10.9280
 2.1560	10.9440
 2.1570	10.9570
 2.1580	10.9690
 2.1590	10.9740
 2.1600	10.9820
 2.1610	10.9940
 2.1620	10.9990
 2.1630	11.0080
 2.1640	11.0170
 2.1650	11.0280
 2.1660	11.0400
 2.1670	11.0560
 2.1680	11.0760
 2.1690	11.0960
 2.1700	11.1250
 2.1710	11.1440
 2.1720	11.1620
 2.1730	11.1780
 2.1740	11.1880
 2.1750	11.1990
 2.1760	11.2080
 2.1770	11.2180
 2.1780	11.2270
 2.1790	11.2380
 2.1800	11.2530
 2.1810	11.2680
 2.1820	11.2810
 2.1830	11.3010
 2.1840	11.3130
 2.1850	11.3210
 2.1860	11.3360
 2.1870	11.3520
 2.1880	11.3680
 2.1890	11.3930
 2.1900	11.4110
 2.1910	11.4230
 2.1920	11.4390
 2.1930	11.4540
 2.1940	11.4740
 2.1950	11.5010
 2.1960	11.5200
 2.1970	11.5400
 2.1980	11.5580
 2.1990	11.5700
 2.2000	11.5850
 2.2010	11.6080
 2.2020	11.6240
 2.2030	11.6380
 2.2040	11.6490
 2.2050	11.6470
 2.2060	11.6540
 2.2070	11.6620
 2.2080	11.6710
 2.2090	11.6790
 2.2100	11.6920
 2.2110	11.6990
 2.2120	11.6990
 2.2130	11.7050
 2.2140	11.7110
 2.2150	11.7210
 2.2160	11.7360
 2.2170	11.7490
 2.2180	11.7680
 2.2190	11.7750
 2.2200	11.7770
 2.2210	11.7770
 2.2220	11.7640
 2.2230	11.7600
 2.2240	11.7650
 2.2250	11.7630
 2.2260	11.7640
 2.2270	11.7610
 2.2280	11.7550
 2.2290	11.7460
 2.2300	11.7370
 2.2310	11.7220
 2.2320	11.7100
 2.2330	11.6930
 2.2340	11.6770
 2.2350	11.6630
 2.2360	11.6430
 2.2370	11.6190
 2.2380	11.5940
 2.2390	11.5680
 2.2400	11.5400
 2.2410	11.5060
 2.2420	11.4800
 2.2430	11.4610
 2.2440	11.4280
 2.2450	11.3910
 2.2460	11.3520
 2.2470	11.2970
 2.2480	11.2580
 2.2490	11.2330
 2.2500	11.1970
 2.2510	11.1570
 2.2520	11.1230
 2.2530	11.0910
 2.2540	11.0540
 2.2550	11.0200
 2.2560	10.9840
 2.2570	10.9410
 2.2580	10.8980
 2.2590	10.8530
 2.2600	10.8110
 2.2610	10.7680
 2.2620	10.7250
 2.2630	10.6770
 2.2640	10.6340
 2.2650	10.5910
 2.2660	10.5390
 2.2670	10.5000
 2.2680	10.4720
 2.2690	10.4350
 2.2700	10.3970
 2.2710	10.3620
 2.2720	10.3210
 2.2730	10.2970
 2.2740	10.2850
 2.2750	10.2690
 2.2760	10.2670
 2.2770	10.2510
 2.2780	10.2300
 2.2790	10.2030
 2.2800	10.1590
 2.2810	10.1330
 2.2820	10.1170
 2.2830	10.0930
 2.2840	10.0780
 2.2850	10.0530
 2.2860	10.0080
 2.2870	 9.9780
 2.2880	 9.9560
 2.2890	 9.9320
 2.2900	 9.9170
 2.2910	 9.8910
 2.2920	 9.8580
 2.2930	 9.8260
 2.2940	 9.7900
 2.2950	 9.7520
 2.2960	 9.7100
 2.2970	 9.6750
 2.2980	 9.6430
 2.2990	 9.6020
 2.3000	 9.5860
 2.3010	 9.5690
 2.3020	 9.5380
 2.3030	 9.5230
 2.3040	 9.4930
 2.3050	 9.4560
 2.3060	 9.4360
 2.3070	 9.4160
 2.3080	 9.4200
 2.3090	 9.4180
 2.3100	 9.3990
 2.3110	 9.3960
 2.3120	 9.3910
 2.3130	 9.3790
 2.3140	 9.3720
 2.3150	 9.3720
 2.3160	 9.3750
 2.3170	 9.3790
 2.3180	 9.3880
 2.3190	 9.4140
 2.3200	 9.4250
 2.3210	 9.4210
 2.3220	 9.4250
 2.3230	 9.4340
 2.3240	 9.4310
 2.3250	 9.4260
 2.3260	 9.4190
 2.3270	 9.4020
 2.3280	 9.3900
 2.3290	 9.3780
 2.3300	 9.3680
 2.3310	 9.3550
 2.3320	 9.3500
 2.3330	 9.3600
 2.3340	 9.3570
 2.3350	 9.3530
 2.3360	 9.3420
 2.3370	 9.3090
 2.3380	 9.2920
 2.3390	 9.2780
 2.3400	 9.2710
 2.3410	 9.2870
 2.3420	 9.2860
 2.3430	 9.2890
 2.3440	 9.2710
 2.3450	 9.2220
 2.3460	 9.1910
 2.3470	 9.1420
 2.3480	 9.1240
 2.3490	 9.1340
 2.3500	 9.1380
 2.3510	 9.1760
 2.3520	 9.1790
 2.3530	 9.1530
 2.3540	 9.1470
 2.3550	 9.1350
 2.3560	 9.1090
 2.3570	 9.1260
 2.3580	 9.1250
 2.3590	 9.1130
 2.3600	 9.1110
 2.3610	 9.0950
 2.3620	 9.0940
 2.3630	 9.0850
 2.3640	 9.0840
 2.3650	 9.1000
 2.3660	 9.0940
 2.3670	 9.0920
 2.3680	 9.0880
 2.3690	 9.0520
 2.3700	 9.0520
 2.3710	 9.0670
 2.3720	 9.0540
 2.3730	 9.0660
 2.3740	 9.0350
 2.3750	 8.9890
 2.3760	 8.9910
 2.3770	 8.9790
 2.3780	 8.9930
 2.3790	 9.0090
 2.3800	 8.9930
 2.3810	 8.9740
 2.3820	 8.9540
 2.3830	 8.9630
 2.3840	 8.9570
 2.3850	 8.9460
 2.3860	 8.9210
 2.3870	 8.8480
 2.3880	 8.8130
 2.3890	 8.7780
 2.3900	 8.7450
 2.3910	 8.7640
 2.3920	 8.7840
 2.3930	 8.7890
 2.3940	 8.8130
 2.3950	 8.8230
 2.3960	 8.7950
 2.3970	 8.7700
 2.3980	 8.7150
 2.3990	 8.6820
 2.4000	 8.6660
 2.4010	 8.6380
 2.4020	 8.6720
 2.4030	 8.6810
 2.4040	 8.6600
 2.4050	 8.6790
 2.4060	 8.6620
 2.4070	 8.6160
 2.4080	 8.5960
 2.4090	 8.5460
 2.4100	 8.5110
 2.4110	 8.5360
 2.4120	 8.5390
 2.4130	 8.5440
 2.4140	 8.5330
 2.4150	 8.4870
 2.4160	 8.4760
 2.4170	 8.4760
 2.4180	 8.4930
 2.4190	 8.5300
 2.4200	 8.5110
 2.4210	 8.4760
 2.4220	 8.4560
 2.4230	 8.3840
 2.4240	 8.3270
 2.4250	 8.3130
 2.4260	 8.2840
 2.4270	 8.3190
 2.4280	 8.3720
 2.4290	 8.3810
 2.4300	 8.3920
 2.4310	 8.3510
 2.4320	 8.2870
 2.4330	 8.2570
 2.4340	 8.2220
 2.4350	 8.2120
 2.4360	 8.2350
 2.4370	 8.2390
 2.4380	 8.2180
 2.4390	 8.1800
 2.4400	 8.1460
 2.4410	 8.1170
 2.4420	 8.1190
 2.4430	 8.1190
 2.4440	 8.0830
 2.4450	 8.0380
 2.4460	 7.9940
 2.4470	 7.9620
 2.4480	 7.9560
 2.4490	 7.9890
 2.4500	 8.0290
 2.4510	 8.0710
 2.4520	 8.0900
 2.4530	 8.0600
 2.4540	 8.0170
 2.4550	 7.9880
 2.4560	 7.9970
 2.4570	 8.0100
 2.4580	 8.0370
 2.4590	 8.0360
 2.4600	 8.0100
 2.4610	 8.0380
 2.4620	 8.0190
 2.4630	 8.0030
 2.4640	 7.9810
 2.4650	 7.9160
 2.4660	 7.9050
 2.4670	 7.9150
 2.4680	 7.9510
 2.4690	 7.9130
 2.4700	 7.9170
 2.4710	 7.9220
 2.4720	 7.9130
 2.4730	 7.9970
 2.4740	 7.9310
 2.4750	 7.6710
 2.4760	 7.5680
 2.4770	 7.4610
 2.4780	 7.4620
 2.4790	 7.6970
 2.4800	 7.7700
 2.4810	 7.7270
 2.4820	 7.7980
 2.4830	 7.8150
 2.4840	 7.8130
 2.4850	 7.9460
 2.4860	 7.8940
 2.4870	 7.7870
 2.4880	 7.7690
 2.4890	 7.6490
 2.4900	 7.5880
 2.4910	 7.6580
 2.4920	 7.7120
 2.4930	 7.7610
 2.4940	 7.9480
 2.4950	 8.0190
 2.4960	 7.9430
 2.4970	 8.0270
 2.4980	 7.8840
 2.4990	 7.6700
 2.5000	 7.7140
