Name: Cassia leptophylla
Type: vegetation
Class: Tree
Genus: Cassia
Species: leptophylla
Sample No.: JPL092
Owner: JPL
Wavelength Range: VSWIR
Origin: 34.1257; - 118.1138; WGS84
Collection Date: 2/2/2016
Description: Samples were collected at the Huntington Garden in San Marino California as part of a JPL Subcontract studying HyTES imagery. Samples were taken to JPL and processed within 48 hours of collection. The same leaves were processed in the Nicolet and then measured using the ASD.
Measurement: Bidirectional reflectance
First Column: X
Second Column: Y
X Units: Wavelength (micrometer)
Y Units: Reflectance (percentage)
First X Value: 0.35
Last X Value: 2.5
Number of X Values: 2151
Additional Information: 

 0.3500	 8.2300
 0.3510	 6.5970
 0.3520	 6.4310
 0.3530	 7.6320
 0.3540	 8.9170
 0.3550	 8.0770
 0.3560	 7.3550
 0.3570	 6.7840
 0.3580	 5.5340
 0.3590	 6.4340
 0.3600	 6.9220
 0.3610	 6.3100
 0.3620	 7.1710
 0.3630	 7.3940
 0.3640	 7.3760
 0.3650	 7.6280
 0.3660	 6.5740
 0.3670	 6.3150
 0.3680	 6.8860
 0.3690	 6.9280
 0.3700	 6.7360
 0.3710	 7.0220
 0.3720	 7.7460
 0.3730	 7.3760
 0.3740	 7.0930
 0.3750	 7.1120
 0.3760	 7.2630
 0.3770	 7.2030
 0.3780	 7.0220
 0.3790	 6.7230
 0.3800	 6.2440
 0.3810	 6.5240
 0.3820	 6.8380
 0.3830	 6.7130
 0.3840	 6.8630
 0.3850	 6.5960
 0.3860	 6.2810
 0.3870	 6.5180
 0.3880	 7.0470
 0.3890	 7.0600
 0.3900	 6.5090
 0.3910	 6.1410
 0.3920	 6.2470
 0.3930	 6.5730
 0.3940	 6.7810
 0.3950	 6.6480
 0.3960	 6.6810
 0.3970	 6.8610
 0.3980	 6.9070
 0.3990	 6.5690
 0.4000	 6.2940
 0.4010	 6.3360
 0.4020	 6.6360
 0.4030	 6.5940
 0.4040	 6.4060
 0.4050	 6.4210
 0.4060	 6.8150
 0.4070	 6.7350
 0.4080	 6.3260
 0.4090	 6.3370
 0.4100	 6.3920
 0.4110	 6.4230
 0.4120	 6.4350
 0.4130	 6.4790
 0.4140	 6.6680
 0.4150	 6.8170
 0.4160	 6.7070
 0.4170	 6.4070
 0.4180	 6.3830
 0.4190	 6.6320
 0.4200	 6.7170
 0.4210	 6.6930
 0.4220	 6.7050
 0.4230	 6.8070
 0.4240	 6.7650
 0.4250	 6.6590
 0.4260	 6.5850
 0.4270	 6.6220
 0.4280	 6.6530
 0.4290	 6.5740
 0.4300	 6.4460
 0.4310	 6.5550
 0.4320	 6.6220
 0.4330	 6.6200
 0.4340	 6.6020
 0.4350	 6.6610
 0.4360	 6.5970
 0.4370	 6.5050
 0.4380	 6.6620
 0.4390	 6.6710
 0.4400	 6.6490
 0.4410	 6.6950
 0.4420	 6.6760
 0.4430	 6.6000
 0.4440	 6.5570
 0.4450	 6.6290
 0.4460	 6.6520
 0.4470	 6.6800
 0.4480	 6.6860
 0.4490	 6.5420
 0.4500	 6.5290
 0.4510	 6.6120
 0.4520	 6.6820
 0.4530	 6.6640
 0.4540	 6.6110
 0.4550	 6.5930
 0.4560	 6.6660
 0.4570	 6.6200
 0.4580	 6.5680
 0.4590	 6.5880
 0.4600	 6.6320
 0.4610	 6.6030
 0.4620	 6.5660
 0.4630	 6.6090
 0.4640	 6.6450
 0.4650	 6.6350
 0.4660	 6.6100
 0.4670	 6.6710
 0.4680	 6.7300
 0.4690	 6.6950
 0.4700	 6.5670
 0.4710	 6.5850
 0.4720	 6.6770
 0.4730	 6.7310
 0.4740	 6.6410
 0.4750	 6.5760
 0.4760	 6.5690
 0.4770	 6.6120
 0.4780	 6.6730
 0.4790	 6.6830
 0.4800	 6.6830
 0.4810	 6.7110
 0.4820	 6.6020
 0.4830	 6.5470
 0.4840	 6.5970
 0.4850	 6.6650
 0.4860	 6.7120
 0.4870	 6.7510
 0.4880	 6.7780
 0.4890	 6.7270
 0.4900	 6.6780
 0.4910	 6.6750
 0.4920	 6.7280
 0.4930	 6.7370
 0.4940	 6.7320
 0.4950	 6.7560
 0.4960	 6.8440
 0.4970	 6.8810
 0.4980	 6.8710
 0.4990	 6.8570
 0.5000	 6.8690
 0.5010	 6.9390
 0.5020	 7.0320
 0.5030	 7.0660
 0.5040	 7.1370
 0.5050	 7.2290
 0.5060	 7.3070
 0.5070	 7.3460
 0.5080	 7.4070
 0.5090	 7.5200
 0.5100	 7.6880
 0.5110	 7.8110
 0.5120	 7.9700
 0.5130	 8.1800
 0.5140	 8.3620
 0.5150	 8.5230
 0.5160	 8.6930
 0.5170	 8.9070
 0.5180	 9.1750
 0.5190	 9.4250
 0.5200	 9.6550
 0.5210	 9.9140
 0.5220	10.1610
 0.5230	10.4160
 0.5240	10.6940
 0.5250	10.9700
 0.5260	11.2360
 0.5270	11.4860
 0.5280	11.7170
 0.5290	11.9500
 0.5300	12.1270
 0.5310	12.2490
 0.5320	12.4060
 0.5330	12.5910
 0.5340	12.7770
 0.5350	12.9290
 0.5360	13.0400
 0.5370	13.1290
 0.5380	13.2070
 0.5390	13.2810
 0.5400	13.3780
 0.5410	13.4820
 0.5420	13.5770
 0.5430	13.6690
 0.5440	13.7220
 0.5450	13.7520
 0.5460	13.7850
 0.5470	13.7660
 0.5480	13.7340
 0.5490	13.7200
 0.5500	13.7370
 0.5510	13.7560
 0.5520	13.7650
 0.5530	13.7550
 0.5540	13.6970
 0.5550	13.6270
 0.5560	13.5610
 0.5570	13.4910
 0.5580	13.3970
 0.5590	13.2940
 0.5600	13.1920
 0.5610	13.0760
 0.5620	12.9530
 0.5630	12.8260
 0.5640	12.6940
 0.5650	12.5550
 0.5660	12.4040
 0.5670	12.2400
 0.5680	12.0720
 0.5690	11.9180
 0.5700	11.7620
 0.5710	11.5880
 0.5720	11.4170
 0.5730	11.2610
 0.5740	11.1150
 0.5750	10.9680
 0.5760	10.8650
 0.5770	10.7760
 0.5780	10.6720
 0.5790	10.5450
 0.5800	10.4300
 0.5810	10.3290
 0.5820	10.2390
 0.5830	10.1920
 0.5840	10.1340
 0.5850	10.0480
 0.5860	 9.9600
 0.5870	 9.8960
 0.5880	 9.8450
 0.5890	 9.7890
 0.5900	 9.7250
 0.5910	 9.6640
 0.5920	 9.6170
 0.5930	 9.5870
 0.5940	 9.5420
 0.5950	 9.4890
 0.5960	 9.4410
 0.5970	 9.4170
 0.5980	 9.3820
 0.5990	 9.3470
 0.6000	 9.3280
 0.6010	 9.2890
 0.6020	 9.2490
 0.6030	 9.2140
 0.6040	 9.1780
 0.6050	 9.1190
 0.6060	 9.0610
 0.6070	 9.0160
 0.6080	 8.9470
 0.6090	 8.8700
 0.6100	 8.8110
 0.6110	 8.7880
 0.6120	 8.7410
 0.6130	 8.6650
 0.6140	 8.5710
 0.6150	 8.4870
 0.6160	 8.4340
 0.6170	 8.3800
 0.6180	 8.3020
 0.6190	 8.2730
 0.6200	 8.2260
 0.6210	 8.1620
 0.6220	 8.1330
 0.6230	 8.1170
 0.6240	 8.1000
 0.6250	 8.0720
 0.6260	 8.0260
 0.6270	 8.0020
 0.6280	 8.0010
 0.6290	 8.0050
 0.6300	 7.9990
 0.6310	 7.9920
 0.6320	 7.9810
 0.6330	 7.9510
 0.6340	 7.9250
 0.6350	 7.8950
 0.6360	 7.8530
 0.6370	 7.8090
 0.6380	 7.7560
 0.6390	 7.6950
 0.6400	 7.6280
 0.6410	 7.5400
 0.6420	 7.4600
 0.6430	 7.4000
 0.6440	 7.3360
 0.6450	 7.2940
 0.6460	 7.2530
 0.6470	 7.1910
 0.6480	 7.1390
 0.6490	 7.1120
 0.6500	 7.0990
 0.6510	 7.0720
 0.6520	 7.0540
 0.6530	 7.0420
 0.6540	 7.0290
 0.6550	 7.0030
 0.6560	 6.9920
 0.6570	 6.9810
 0.6580	 6.9510
 0.6590	 6.9580
 0.6600	 6.9510
 0.6610	 6.9140
 0.6620	 6.8750
 0.6630	 6.8710
 0.6640	 6.8810
 0.6650	 6.8730
 0.6660	 6.8410
 0.6670	 6.8600
 0.6680	 6.9010
 0.6690	 6.8910
 0.6700	 6.9030
 0.6710	 6.9190
 0.6720	 6.9310
 0.6730	 6.9580
 0.6740	 7.0080
 0.6750	 7.0650
 0.6760	 7.1140
 0.6770	 7.1560
 0.6780	 7.1980
 0.6790	 7.2480
 0.6800	 7.3180
 0.6810	 7.3730
 0.6820	 7.4420
 0.6830	 7.5320
 0.6840	 7.5950
 0.6850	 7.6650
 0.6860	 7.7540
 0.6870	 7.8600
 0.6880	 7.9740
 0.6890	 8.1110
 0.6900	 8.2880
 0.6910	 8.5150
 0.6920	 8.8050
 0.6930	 9.1630
 0.6940	 9.5990
 0.6950	10.1320
 0.6960	10.7470
 0.6970	11.4340
 0.6980	12.1880
 0.6990	13.0450
 0.7000	13.9370
 0.7010	14.8590
 0.7020	15.8550
 0.7030	16.8710
 0.7040	17.8980
 0.7050	18.9360
 0.7060	19.9870
 0.7070	21.0140
 0.7080	22.0380
 0.7090	23.0930
 0.7100	24.1330
 0.7110	25.1610
 0.7120	26.1850
 0.7130	27.2150
 0.7140	28.2470
 0.7150	29.2730
 0.7160	30.2900
 0.7170	31.3170
 0.7180	32.3050
 0.7190	33.2750
 0.7200	34.2670
 0.7210	35.2300
 0.7220	36.1570
 0.7230	37.0550
 0.7240	37.9470
 0.7250	38.7860
 0.7260	39.6040
 0.7270	40.4190
 0.7280	41.1850
 0.7290	41.9200
 0.7300	42.6230
 0.7310	43.2860
 0.7320	43.9330
 0.7330	44.5570
 0.7340	45.1390
 0.7350	45.6600
 0.7360	46.1600
 0.7370	46.6360
 0.7380	47.0800
 0.7390	47.4870
 0.7400	47.8730
 0.7410	48.2300
 0.7420	48.5500
 0.7430	48.8700
 0.7440	49.1530
 0.7450	49.3900
 0.7460	49.6040
 0.7470	49.8050
 0.7480	49.9880
 0.7490	50.1490
 0.7500	50.2930
 0.7510	50.4020
 0.7520	50.5030
 0.7530	50.6260
 0.7540	50.7190
 0.7550	50.7940
 0.7560	50.8590
 0.7570	50.9120
 0.7580	50.9590
 0.7590	51.0050
 0.7600	51.0510
 0.7610	51.0840
 0.7620	51.1250
 0.7630	51.1590
 0.7640	51.1650
 0.7650	51.1540
 0.7660	51.1440
 0.7670	51.1490
 0.7680	51.1780
 0.7690	51.1610
 0.7700	51.1420
 0.7710	51.1460
 0.7720	51.1520
 0.7730	51.1210
 0.7740	51.1100
 0.7750	51.1530
 0.7760	51.1470
 0.7770	51.1330
 0.7780	51.1160
 0.7790	51.0860
 0.7800	51.0690
 0.7810	51.0540
 0.7820	51.0390
 0.7830	51.0340
 0.7840	51.0460
 0.7850	51.0360
 0.7860	50.9970
 0.7870	50.9980
 0.7880	50.9950
 0.7890	50.9890
 0.7900	50.9910
 0.7910	50.9620
 0.7920	50.9190
 0.7930	50.9020
 0.7940	50.9460
 0.7950	50.9090
 0.7960	50.8560
 0.7970	50.8370
 0.7980	50.8400
 0.7990	50.8190
 0.8000	50.7910
 0.8010	50.7810
 0.8020	50.7760
 0.8030	50.7700
 0.8040	50.7420
 0.8050	50.6800
 0.8060	50.6460
 0.8070	50.6270
 0.8080	50.6200
 0.8090	50.6270
 0.8100	50.5810
 0.8110	50.5440
 0.8120	50.5510
 0.8130	50.5670
 0.8140	50.5040
 0.8150	50.4440
 0.8160	50.4600
 0.8170	50.4520
 0.8180	50.4340
 0.8190	50.4190
 0.8200	50.4160
 0.8210	50.3790
 0.8220	50.3600
 0.8230	50.3550
 0.8240	50.3160
 0.8250	50.2990
 0.8260	50.2800
 0.8270	50.2540
 0.8280	50.2550
 0.8290	50.2670
 0.8300	50.2790
 0.8310	50.2780
 0.8320	50.2390
 0.8330	50.2030
 0.8340	50.1830
 0.8350	50.1830
 0.8360	50.2080
 0.8370	50.2160
 0.8380	50.2000
 0.8390	50.1850
 0.8400	50.1830
 0.8410	50.1750
 0.8420	50.1610
 0.8430	50.1660
 0.8440	50.1890
 0.8450	50.2010
 0.8460	50.1900
 0.8470	50.1980
 0.8480	50.1940
 0.8490	50.1920
 0.8500	50.2080
 0.8510	50.2130
 0.8520	50.1990
 0.8530	50.1880
 0.8540	50.2090
 0.8550	50.2220
 0.8560	50.2400
 0.8570	50.2540
 0.8580	50.2360
 0.8590	50.2720
 0.8600	50.2960
 0.8610	50.2760
 0.8620	50.2750
 0.8630	50.2970
 0.8640	50.3180
 0.8650	50.3190
 0.8660	50.3110
 0.8670	50.3460
 0.8680	50.3800
 0.8690	50.3540
 0.8700	50.3310
 0.8710	50.3410
 0.8720	50.3700
 0.8730	50.3830
 0.8740	50.3980
 0.8750	50.4380
 0.8760	50.4660
 0.8770	50.4030
 0.8780	50.3890
 0.8790	50.4310
 0.8800	50.4890
 0.8810	50.4920
 0.8820	50.4860
 0.8830	50.5030
 0.8840	50.5340
 0.8850	50.5020
 0.8860	50.4930
 0.8870	50.5220
 0.8880	50.5690
 0.8890	50.5830
 0.8900	50.5920
 0.8910	50.5880
 0.8920	50.5660
 0.8930	50.5870
 0.8940	50.6130
 0.8950	50.6260
 0.8960	50.6280
 0.8970	50.6480
 0.8980	50.6390
 0.8990	50.6220
 0.9000	50.6690
 0.9010	50.6530
 0.9020	50.6480
 0.9030	50.6810
 0.9040	50.6870
 0.9050	50.6550
 0.9060	50.6370
 0.9070	50.6520
 0.9080	50.6440
 0.9090	50.6600
 0.9100	50.6870
 0.9110	50.7010
 0.9120	50.6860
 0.9130	50.6940
 0.9140	50.6900
 0.9150	50.6440
 0.9160	50.6400
 0.9170	50.6670
 0.9180	50.6960
 0.9190	50.6940
 0.9200	50.6590
 0.9210	50.6280
 0.9220	50.6200
 0.9230	50.6300
 0.9240	50.6150
 0.9250	50.5620
 0.9260	50.5290
 0.9270	50.5900
 0.9280	50.5860
 0.9290	50.5530
 0.9300	50.5350
 0.9310	50.5550
 0.9320	50.5330
 0.9330	50.4640
 0.9340	50.4030
 0.9350	50.4390
 0.9360	50.4520
 0.9370	50.4260
 0.9380	50.3780
 0.9390	50.3350
 0.9400	50.2800
 0.9410	50.2590
 0.9420	50.2840
 0.9430	50.2880
 0.9440	50.2950
 0.9450	50.3060
 0.9460	50.3050
 0.9470	50.2700
 0.9480	50.2380
 0.9490	50.2060
 0.9500	50.1720
 0.9510	50.1610
 0.9520	50.0750
 0.9530	49.9920
 0.9540	49.9780
 0.9550	49.8890
 0.9560	49.8700
 0.9570	49.8820
 0.9580	49.8520
 0.9590	49.8150
 0.9600	49.8520
 0.9610	49.8720
 0.9620	49.7860
 0.9630	49.7540
 0.9640	49.7390
 0.9650	49.7120
 0.9660	49.6640
 0.9670	49.6750
 0.9680	49.6540
 0.9690	49.5820
 0.9700	49.5050
 0.9710	49.5800
 0.9720	49.6220
 0.9730	49.6040
 0.9740	49.5760
 0.9750	49.5430
 0.9760	49.5470
 0.9770	49.5650
 0.9780	49.5570
 0.9790	49.5600
 0.9800	49.5320
 0.9810	49.4950
 0.9820	49.4810
 0.9830	49.4150
 0.9840	49.4930
 0.9850	49.5880
 0.9860	49.4930
 0.9870	49.4590
 0.9880	49.4040
 0.9890	49.3830
 0.9900	49.4610
 0.9910	49.4250
 0.9920	49.4570
 0.9930	49.4860
 0.9940	49.3930
 0.9950	49.4810
 0.9960	49.5270
 0.9970	49.4570
 0.9980	49.3360
 0.9990	49.4480
 1.0000	49.4340
 1.0010	49.7120
 1.0020	49.7310
 1.0030	49.7840
 1.0040	49.8310
 1.0050	49.8420
 1.0060	49.7900
 1.0070	49.7290
 1.0080	49.7110
 1.0090	49.6900
 1.0100	49.7120
 1.0110	49.8120
 1.0120	49.8430
 1.0130	49.8700
 1.0140	49.8780
 1.0150	49.8530
 1.0160	49.8180
 1.0170	49.8270
 1.0180	49.8680
 1.0190	49.8550
 1.0200	49.8670
 1.0210	49.8790
 1.0220	49.8330
 1.0230	49.8390
 1.0240	49.8910
 1.0250	49.9090
 1.0260	49.9380
 1.0270	49.9350
 1.0280	49.9070
 1.0290	49.8870
 1.0300	49.8090
 1.0310	49.8050
 1.0320	49.8580
 1.0330	49.8930
 1.0340	49.9180
 1.0350	49.9280
 1.0360	49.8900
 1.0370	49.8480
 1.0380	49.8610
 1.0390	49.9380
 1.0400	49.9570
 1.0410	49.9820
 1.0420	49.9840
 1.0430	49.9270
 1.0440	49.9210
 1.0450	49.9440
 1.0460	49.9480
 1.0470	49.9630
 1.0480	49.9660
 1.0490	49.9310
 1.0500	49.9370
 1.0510	49.9750
 1.0520	50.0160
 1.0530	50.0260
 1.0540	50.0440
 1.0550	50.0520
 1.0560	50.0180
 1.0570	50.0210
 1.0580	50.0530
 1.0590	50.0670
 1.0600	50.0830
 1.0610	50.0880
 1.0620	50.0930
 1.0630	50.0850
 1.0640	50.0580
 1.0650	50.0420
 1.0660	50.0150
 1.0670	50.0020
 1.0680	49.9970
 1.0690	50.0020
 1.0700	50.0100
 1.0710	50.0350
 1.0720	50.0370
 1.0730	50.0370
 1.0740	50.0310
 1.0750	50.0040
 1.0760	49.9950
 1.0770	49.9850
 1.0780	49.9930
 1.0790	50.0230
 1.0800	50.0390
 1.0810	50.0620
 1.0820	50.0810
 1.0830	50.0980
 1.0840	50.1030
 1.0850	50.0950
 1.0860	50.0930
 1.0870	50.0950
 1.0880	50.0870
 1.0890	50.0890
 1.0900	50.1140
 1.0910	50.1110
 1.0920	50.0930
 1.0930	50.0830
 1.0940	50.0660
 1.0950	50.0550
 1.0960	50.0510
 1.0970	50.0380
 1.0980	50.0140
 1.0990	50.0020
 1.1000	49.9940
 1.1010	49.9840
 1.1020	49.9760
 1.1030	49.9780
 1.1040	49.9750
 1.1050	49.9720
 1.1060	49.9610
 1.1070	49.9460
 1.1080	49.9350
 1.1090	49.9270
 1.1100	49.9100
 1.1110	49.8900
 1.1120	49.8760
 1.1130	49.8450
 1.1140	49.8300
 1.1150	49.8410
 1.1160	49.8320
 1.1170	49.8180
 1.1180	49.8070
 1.1190	49.7870
 1.1200	49.7660
 1.1210	49.7730
 1.1220	49.7520
 1.1230	49.7350
 1.1240	49.7150
 1.1250	49.6870
 1.1260	49.6470
 1.1270	49.6170
 1.1280	49.5840
 1.1290	49.5540
 1.1300	49.5280
 1.1310	49.5000
 1.1320	49.4750
 1.1330	49.4470
 1.1340	49.4280
 1.1350	49.3890
 1.1360	49.3390
 1.1370	49.2820
 1.1380	49.2090
 1.1390	49.1220
 1.1400	49.0430
 1.1410	48.9570
 1.1420	48.8800
 1.1430	48.8150
 1.1440	48.7510
 1.1450	48.6980
 1.1460	48.6370
 1.1470	48.5760
 1.1480	48.5110
 1.1490	48.4340
 1.1500	48.3680
 1.1510	48.3040
 1.1520	48.2500
 1.1530	48.2030
 1.1540	48.1560
 1.1550	48.1170
 1.1560	48.0660
 1.1570	48.0260
 1.1580	47.9990
 1.1590	47.9760
 1.1600	47.9690
 1.1610	47.9620
 1.1620	47.9420
 1.1630	47.9250
 1.1640	47.9010
 1.1650	47.8770
 1.1660	47.8460
 1.1670	47.8260
 1.1680	47.8040
 1.1690	47.7960
 1.1700	47.8050
 1.1710	47.7970
 1.1720	47.7910
 1.1730	47.7770
 1.1740	47.7480
 1.1750	47.7180
 1.1760	47.7130
 1.1770	47.7220
 1.1780	47.7220
 1.1790	47.7150
 1.1800	47.7000
 1.1810	47.6770
 1.1820	47.6660
 1.1830	47.6620
 1.1840	47.6650
 1.1850	47.6610
 1.1860	47.6500
 1.1870	47.6430
 1.1880	47.6270
 1.1890	47.5880
 1.1900	47.5780
 1.1910	47.5820
 1.1920	47.5780
 1.1930	47.5910
 1.1940	47.5840
 1.1950	47.5600
 1.1960	47.5480
 1.1970	47.5260
 1.1980	47.5190
 1.1990	47.5240
 1.2000	47.5060
 1.2010	47.5050
 1.2020	47.5080
 1.2030	47.5050
 1.2040	47.5130
 1.2050	47.5100
 1.2060	47.5110
 1.2070	47.5250
 1.2080	47.5340
 1.2090	47.5450
 1.2100	47.5550
 1.2110	47.5640
 1.2120	47.5680
 1.2130	47.5750
 1.2140	47.5860
 1.2150	47.5900
 1.2160	47.5850
 1.2170	47.5870
 1.2180	47.5950
 1.2190	47.5980
 1.2200	47.6120
 1.2210	47.6210
 1.2220	47.6270
 1.2230	47.6280
 1.2240	47.6280
 1.2250	47.6290
 1.2260	47.6140
 1.2270	47.6140
 1.2280	47.6250
 1.2290	47.6350
 1.2300	47.6550
 1.2310	47.6680
 1.2320	47.6790
 1.2330	47.6910
 1.2340	47.7000
 1.2350	47.7090
 1.2360	47.7170
 1.2370	47.7230
 1.2380	47.7170
 1.2390	47.7110
 1.2400	47.7110
 1.2410	47.7080
 1.2420	47.7090
 1.2430	47.7240
 1.2440	47.7310
 1.2450	47.7360
 1.2460	47.7550
 1.2470	47.7650
 1.2480	47.7680
 1.2490	47.7760
 1.2500	47.7750
 1.2510	47.7710
 1.2520	47.7690
 1.2530	47.7520
 1.2540	47.7360
 1.2550	47.7280
 1.2560	47.7180
 1.2570	47.7140
 1.2580	47.7150
 1.2590	47.7150
 1.2600	47.7080
 1.2610	47.7110
 1.2620	47.7220
 1.2630	47.7280
 1.2640	47.7330
 1.2650	47.7280
 1.2660	47.7120
 1.2670	47.6940
 1.2680	47.6700
 1.2690	47.6590
 1.2700	47.6590
 1.2710	47.6640
 1.2720	47.6790
 1.2730	47.6780
 1.2740	47.6670
 1.2750	47.6480
 1.2760	47.6190
 1.2770	47.6010
 1.2780	47.5900
 1.2790	47.5790
 1.2800	47.5570
 1.2810	47.5320
 1.2820	47.5130
 1.2830	47.5000
 1.2840	47.4920
 1.2850	47.4810
 1.2860	47.4800
 1.2870	47.4750
 1.2880	47.4650
 1.2890	47.4540
 1.2900	47.4520
 1.2910	47.4300
 1.2920	47.3920
 1.2930	47.3680
 1.2940	47.3450
 1.2950	47.3210
 1.2960	47.3050
 1.2970	47.2800
 1.2980	47.2440
 1.2990	47.2040
 1.3000	47.1690
 1.3010	47.1410
 1.3020	47.1120
 1.3030	47.0800
 1.3040	47.0430
 1.3050	46.9880
 1.3060	46.9360
 1.3070	46.8950
 1.3080	46.8500
 1.3090	46.8120
 1.3100	46.7760
 1.3110	46.7400
 1.3120	46.7030
 1.3130	46.6680
 1.3140	46.6270
 1.3150	46.5830
 1.3160	46.5330
 1.3170	46.4790
 1.3180	46.4160
 1.3190	46.3590
 1.3200	46.2950
 1.3210	46.2260
 1.3220	46.1800
 1.3230	46.1130
 1.3240	46.0440
 1.3250	45.9850
 1.3260	45.9100
 1.3270	45.8430
 1.3280	45.7830
 1.3290	45.7170
 1.3300	45.6490
 1.3310	45.5850
 1.3320	45.5260
 1.3330	45.4570
 1.3340	45.3820
 1.3350	45.2960
 1.3360	45.1950
 1.3370	45.1140
 1.3380	45.0420
 1.3390	44.9680
 1.3400	44.9040
 1.3410	44.8320
 1.3420	44.7550
 1.3430	44.6830
 1.3440	44.6160
 1.3450	44.5460
 1.3460	44.4770
 1.3470	44.4090
 1.3480	44.3380
 1.3490	44.2700
 1.3500	44.2050
 1.3510	44.1370
 1.3520	44.0740
 1.3530	44.0120
 1.3540	43.9440
 1.3550	43.8760
 1.3560	43.8090
 1.3570	43.7360
 1.3580	43.6610
 1.3590	43.5890
 1.3600	43.5050
 1.3610	43.4210
 1.3620	43.3330
 1.3630	43.2360
 1.3640	43.1370
 1.3650	43.0330
 1.3660	42.9280
 1.3670	42.8180
 1.3680	42.7090
 1.3690	42.5840
 1.3700	42.4460
 1.3710	42.3050
 1.3720	42.1440
 1.3730	41.9650
 1.3740	41.7780
 1.3750	41.5780
 1.3760	41.3640
 1.3770	41.1410
 1.3780	40.8980
 1.3790	40.6370
 1.3800	40.3650
 1.3810	40.0740
 1.3820	39.7600
 1.3830	39.4310
 1.3840	39.0780
 1.3850	38.6980
 1.3860	38.3080
 1.3870	37.9030
 1.3880	37.4810
 1.3890	37.0370
 1.3900	36.5860
 1.3910	36.1280
 1.3920	35.6560
 1.3930	35.1860
 1.3940	34.7040
 1.3950	34.2080
 1.3960	33.7270
 1.3970	33.2440
 1.3980	32.7610
 1.3990	32.2960
 1.4000	31.8350
 1.4010	31.3760
 1.4020	30.9370
 1.4030	30.5020
 1.4040	30.0800
 1.4050	29.6890
 1.4060	29.3140
 1.4070	28.9630
 1.4080	28.6250
 1.4090	28.3040
 1.4100	27.9990
 1.4110	27.7030
 1.4120	27.4260
 1.4130	27.1640
 1.4140	26.9170
 1.4150	26.6990
 1.4160	26.4920
 1.4170	26.2960
 1.4180	26.1130
 1.4190	25.9390
 1.4200	25.7800
 1.4210	25.6300
 1.4220	25.4950
 1.4230	25.3790
 1.4240	25.2720
 1.4250	25.1690
 1.4260	25.0810
 1.4270	24.9900
 1.4280	24.8920
 1.4290	24.8110
 1.4300	24.7370
 1.4310	24.6750
 1.4320	24.6280
 1.4330	24.5830
 1.4340	24.5510
 1.4350	24.5160
 1.4360	24.4870
 1.4370	24.4540
 1.4380	24.4210
 1.4390	24.3960
 1.4400	24.3790
 1.4410	24.3650
 1.4420	24.3570
 1.4430	24.3500
 1.4440	24.3420
 1.4450	24.3420
 1.4460	24.3480
 1.4470	24.3570
 1.4480	24.3660
 1.4490	24.3770
 1.4500	24.3900
 1.4510	24.4050
 1.4520	24.4210
 1.4530	24.4440
 1.4540	24.4640
 1.4550	24.4840
 1.4560	24.5120
 1.4570	24.5420
 1.4580	24.5780
 1.4590	24.6220
 1.4600	24.6690
 1.4610	24.7170
 1.4620	24.7680
 1.4630	24.8320
 1.4640	24.8980
 1.4650	24.9630
 1.4660	25.0430
 1.4670	25.1180
 1.4680	25.1930
 1.4690	25.2820
 1.4700	25.3690
 1.4710	25.4650
 1.4720	25.5710
 1.4730	25.6740
 1.4740	25.7830
 1.4750	25.8940
 1.4760	26.0090
 1.4770	26.1280
 1.4780	26.2470
 1.4790	26.3690
 1.4800	26.4890
 1.4810	26.6100
 1.4820	26.7410
 1.4830	26.8700
 1.4840	26.9940
 1.4850	27.1280
 1.4860	27.2510
 1.4870	27.3810
 1.4880	27.5160
 1.4890	27.6380
 1.4900	27.7690
 1.4910	27.9040
 1.4920	28.0350
 1.4930	28.1720
 1.4940	28.3040
 1.4950	28.4310
 1.4960	28.5630
 1.4970	28.6930
 1.4980	28.8270
 1.4990	28.9650
 1.5000	29.1030
 1.5010	29.2450
 1.5020	29.3790
 1.5030	29.5090
 1.5040	29.6390
 1.5050	29.7600
 1.5060	29.8880
 1.5070	30.0200
 1.5080	30.1480
 1.5090	30.2770
 1.5100	30.4030
 1.5110	30.5300
 1.5120	30.6570
 1.5130	30.7850
 1.5140	30.9140
 1.5150	31.0340
 1.5160	31.1500
 1.5170	31.2650
 1.5180	31.3750
 1.5190	31.4910
 1.5200	31.6090
 1.5210	31.7250
 1.5220	31.8420
 1.5230	31.9560
 1.5240	32.0690
 1.5250	32.1880
 1.5260	32.3060
 1.5270	32.4160
 1.5280	32.5300
 1.5290	32.6370
 1.5300	32.7370
 1.5310	32.8440
 1.5320	32.9430
 1.5330	33.0350
 1.5340	33.1400
 1.5350	33.2490
 1.5360	33.3580
 1.5370	33.4680
 1.5380	33.5700
 1.5390	33.6570
 1.5400	33.7510
 1.5410	33.8440
 1.5420	33.9300
 1.5430	34.0230
 1.5440	34.1080
 1.5450	34.1970
 1.5460	34.2990
 1.5470	34.3980
 1.5480	34.4900
 1.5490	34.5760
 1.5500	34.6550
 1.5510	34.7330
 1.5520	34.8190
 1.5530	34.9000
 1.5540	34.9820
 1.5550	35.0590
 1.5560	35.1290
 1.5570	35.2050
 1.5580	35.2810
 1.5590	35.3610
 1.5600	35.4380
 1.5610	35.5130
 1.5620	35.5850
 1.5630	35.6500
 1.5640	35.7120
 1.5650	35.7780
 1.5660	35.8480
 1.5670	35.9190
 1.5680	35.9910
 1.5690	36.0610
 1.5700	36.1170
 1.5710	36.1710
 1.5720	36.2310
 1.5730	36.2860
 1.5740	36.3450
 1.5750	36.4040
 1.5760	36.4660
 1.5770	36.5320
 1.5780	36.6030
 1.5790	36.6780
 1.5800	36.7390
 1.5810	36.7890
 1.5820	36.8320
 1.5830	36.8740
 1.5840	36.9230
 1.5850	36.9830
 1.5860	37.0490
 1.5870	37.1160
 1.5880	37.1740
 1.5890	37.2240
 1.5900	37.2710
 1.5910	37.3140
 1.5920	37.3680
 1.5930	37.4190
 1.5940	37.4680
 1.5950	37.5140
 1.5960	37.5410
 1.5970	37.5800
 1.5980	37.6320
 1.5990	37.6820
 1.6000	37.7460
 1.6010	37.8020
 1.6020	37.8360
 1.6030	37.8710
 1.6040	37.9000
 1.6050	37.9230
 1.6060	37.9650
 1.6070	38.0090
 1.6080	38.0490
 1.6090	38.0960
 1.6100	38.1360
 1.6110	38.1750
 1.6120	38.2070
 1.6130	38.2360
 1.6140	38.2660
 1.6150	38.3030
 1.6160	38.3540
 1.6170	38.4010
 1.6180	38.4450
 1.6190	38.4790
 1.6200	38.4970
 1.6210	38.5190
 1.6220	38.5450
 1.6230	38.5740
 1.6240	38.6120
 1.6250	38.6480
 1.6260	38.6730
 1.6270	38.6960
 1.6280	38.7170
 1.6290	38.7370
 1.6300	38.7610
 1.6310	38.7820
 1.6320	38.7960
 1.6330	38.8140
 1.6340	38.8380
 1.6350	38.8560
 1.6360	38.8680
 1.6370	38.8890
 1.6380	38.9110
 1.6390	38.9280
 1.6400	38.9490
 1.6410	38.9700
 1.6420	38.9890
 1.6430	39.0030
 1.6440	39.0190
 1.6450	39.0180
 1.6460	39.0180
 1.6470	39.0190
 1.6480	39.0240
 1.6490	39.0420
 1.6500	39.0600
 1.6510	39.0620
 1.6520	39.0660
 1.6530	39.0670
 1.6540	39.0510
 1.6550	39.0610
 1.6560	39.0850
 1.6570	39.0940
 1.6580	39.1090
 1.6590	39.1130
 1.6600	39.1050
 1.6610	39.1070
 1.6620	39.1070
 1.6630	39.1070
 1.6640	39.1110
 1.6650	39.0980
 1.6660	39.0870
 1.6670	39.0810
 1.6680	39.0560
 1.6690	39.0400
 1.6700	39.0300
 1.6710	39.0180
 1.6720	39.0170
 1.6730	39.0120
 1.6740	39.0030
 1.6750	38.9940
 1.6760	38.9830
 1.6770	38.9750
 1.6780	38.9710
 1.6790	38.9580
 1.6800	38.9330
 1.6810	38.9100
 1.6820	38.8820
 1.6830	38.8550
 1.6840	38.8320
 1.6850	38.8020
 1.6860	38.7720
 1.6870	38.7590
 1.6880	38.7470
 1.6890	38.7430
 1.6900	38.7260
 1.6910	38.6940
 1.6920	38.6650
 1.6930	38.6280
 1.6940	38.5980
 1.6950	38.5710
 1.6960	38.5390
 1.6970	38.5070
 1.6980	38.4750
 1.6990	38.4340
 1.7000	38.3990
 1.7010	38.3710
 1.7020	38.3390
 1.7030	38.3100
 1.7040	38.2780
 1.7050	38.2420
 1.7060	38.2080
 1.7070	38.1720
 1.7080	38.1340
 1.7090	38.0970
 1.7100	38.0620
 1.7110	38.0210
 1.7120	38.0010
 1.7130	37.9740
 1.7140	37.9460
 1.7150	37.9080
 1.7160	37.8590
 1.7170	37.8080
 1.7180	37.7620
 1.7190	37.7260
 1.7200	37.6910
 1.7210	37.6540
 1.7220	37.6010
 1.7230	37.5610
 1.7240	37.5380
 1.7250	37.5060
 1.7260	37.4800
 1.7270	37.4430
 1.7280	37.3900
 1.7290	37.3560
 1.7300	37.3270
 1.7310	37.2950
 1.7320	37.2600
 1.7330	37.2260
 1.7340	37.1960
 1.7350	37.1640
 1.7360	37.1320
 1.7370	37.0940
 1.7380	37.0510
 1.7390	37.0100
 1.7400	36.9640
 1.7410	36.9240
 1.7420	36.8830
 1.7430	36.8490
 1.7440	36.8280
 1.7450	36.7910
 1.7460	36.7630
 1.7470	36.7080
 1.7480	36.6230
 1.7490	36.5590
 1.7500	36.4870
 1.7510	36.4270
 1.7520	36.3860
 1.7530	36.3300
 1.7540	36.2700
 1.7550	36.2180
 1.7560	36.1540
 1.7570	36.1010
 1.7580	36.0520
 1.7590	36.0030
 1.7600	35.9660
 1.7610	35.9180
 1.7620	35.8670
 1.7630	35.8020
 1.7640	35.7510
 1.7650	35.7150
 1.7660	35.6700
 1.7670	35.6260
 1.7680	35.5870
 1.7690	35.5420
 1.7700	35.5050
 1.7710	35.4780
 1.7720	35.4540
 1.7730	35.4400
 1.7740	35.4090
 1.7750	35.3710
 1.7760	35.3420
 1.7770	35.3000
 1.7780	35.2760
 1.7790	35.2720
 1.7800	35.2550
 1.7810	35.2400
 1.7820	35.2130
 1.7830	35.1760
 1.7840	35.1460
 1.7850	35.1030
 1.7860	35.0870
 1.7870	35.0840
 1.7880	35.0910
 1.7890	35.0960
 1.7900	35.0720
 1.7910	35.0610
 1.7920	35.0430
 1.7930	35.0320
 1.7940	35.0400
 1.7950	35.0380
 1.7960	35.0200
 1.7970	35.0220
 1.7980	35.0450
 1.7990	35.0480
 1.8000	35.0460
 1.8010	35.0540
 1.8020	35.0470
 1.8030	35.0540
 1.8040	35.0870
 1.8050	35.0980
 1.8060	35.1000
 1.8070	35.0980
 1.8080	35.0790
 1.8090	35.0850
 1.8100	35.1020
 1.8110	35.0930
 1.8120	35.1050
 1.8130	35.1190
 1.8140	35.0990
 1.8150	35.0980
 1.8160	35.1050
 1.8170	35.0840
 1.8180	35.0870
 1.8190	35.1170
 1.8200	35.1230
 1.8210	35.1230
 1.8220	35.1200
 1.8230	35.1000
 1.8240	35.0820
 1.8250	35.0540
 1.8260	35.0440
 1.8270	35.0470
 1.8280	35.0320
 1.8290	35.0260
 1.8300	35.0110
 1.8310	35.2900
 1.8320	35.2340
 1.8330	35.1780
 1.8340	35.1040
 1.8350	35.0180
 1.8360	34.9410
 1.8370	34.8770
 1.8380	34.8500
 1.8390	34.8140
 1.8400	34.8130
 1.8410	34.7490
 1.8420	34.6540
 1.8430	34.5720
 1.8440	34.4500
 1.8450	34.3410
 1.8460	34.2700
 1.8470	34.2020
 1.8480	34.0990
 1.8490	33.9840
 1.8500	33.8600
 1.8510	33.7150
 1.8520	33.5380
 1.8530	33.4020
 1.8540	33.2690
 1.8550	33.1290
 1.8560	32.9810
 1.8570	32.7730
 1.8580	32.5280
 1.8590	32.2800
 1.8600	32.0050
 1.8610	31.7290
 1.8620	31.4410
 1.8630	31.1320
 1.8640	30.8220
 1.8650	30.4730
 1.8660	30.0920
 1.8670	29.7130
 1.8680	29.3270
 1.8690	28.9040
 1.8700	28.4590
 1.8710	28.0000
 1.8720	27.5160
 1.8730	26.9850
 1.8740	26.4350
 1.8750	25.8550
 1.8760	25.2940
 1.8770	24.7240
 1.8780	24.1360
 1.8790	23.5480
 1.8800	22.9480
 1.8810	22.3300
 1.8820	21.7170
 1.8830	21.0820
 1.8840	20.4610
 1.8850	19.8410
 1.8860	19.2030
 1.8870	18.5960
 1.8880	17.9960
 1.8890	17.3850
 1.8900	16.7990
 1.8910	16.2640
 1.8920	15.7630
 1.8930	15.2870
 1.8940	14.8330
 1.8950	14.4000
 1.8960	13.9700
 1.8970	13.5450
 1.8980	13.1490
 1.8990	12.7970
 1.9000	12.4740
 1.9010	12.1810
 1.9020	11.9070
 1.9030	11.6650
 1.9040	11.4480
 1.9050	11.2510
 1.9060	11.0680
 1.9070	10.9220
 1.9080	10.8000
 1.9090	10.6660
 1.9100	10.5490
 1.9110	10.4390
 1.9120	10.3230
 1.9130	10.2340
 1.9140	10.1670
 1.9150	10.1050
 1.9160	10.0400
 1.9170	 9.9880
 1.9180	 9.9280
 1.9190	 9.8750
 1.9200	 9.8530
 1.9210	 9.8430
 1.9220	 9.8320
 1.9230	 9.8330
 1.9240	 9.8280
 1.9250	 9.8250
 1.9260	 9.8160
 1.9270	 9.8070
 1.9280	 9.8070
 1.9290	 9.7980
 1.9300	 9.7830
 1.9310	 9.7710
 1.9320	 9.7730
 1.9330	 9.7910
 1.9340	 9.8340
 1.9350	 9.8710
 1.9360	 9.9210
 1.9370	 9.9600
 1.9380	10.0000
 1.9390	10.0250
 1.9400	10.0520
 1.9410	10.0850
 1.9420	10.1140
 1.9430	10.1580
 1.9440	10.1930
 1.9450	10.2190
 1.9460	10.2640
 1.9470	10.3140
 1.9480	10.3610
 1.9490	10.4200
 1.9500	10.4770
 1.9510	10.5370
 1.9520	10.6070
 1.9530	10.6570
 1.9540	10.7270
 1.9550	10.8060
 1.9560	10.8890
 1.9570	10.9600
 1.9580	11.0470
 1.9590	11.1220
 1.9600	11.1690
 1.9610	11.2390
 1.9620	11.3160
 1.9630	11.4140
 1.9640	11.5110
 1.9650	11.5920
 1.9660	11.6810
 1.9670	11.7580
 1.9680	11.8370
 1.9690	11.9080
 1.9700	11.9920
 1.9710	12.0840
 1.9720	12.1750
 1.9730	12.2690
 1.9740	12.3570
 1.9750	12.4620
 1.9760	12.5630
 1.9770	12.6680
 1.9780	12.7870
 1.9790	12.8930
 1.9800	12.9930
 1.9810	13.0910
 1.9820	13.1890
 1.9830	13.2780
 1.9840	13.3530
 1.9850	13.4380
 1.9860	13.5180
 1.9870	13.5970
 1.9880	13.7010
 1.9890	13.8080
 1.9900	13.9140
 1.9910	14.0260
 1.9920	14.1370
 1.9930	14.2410
 1.9940	14.3560
 1.9950	14.4900
 1.9960	14.6050
 1.9970	14.7130
 1.9980	14.8240
 1.9990	14.9300
 2.0000	15.0250
 2.0010	15.1270
 2.0020	15.2310
 2.0030	15.3430
 2.0040	15.4570
 2.0050	15.5600
 2.0060	15.6590
 2.0070	15.7640
 2.0080	15.8560
 2.0090	15.9660
 2.0100	16.1140
 2.0110	16.2270
 2.0120	16.3370
 2.0130	16.4220
 2.0140	16.4910
 2.0150	16.5810
 2.0160	16.6600
 2.0170	16.7400
 2.0180	16.8210
 2.0190	16.8870
 2.0200	16.9760
 2.0210	17.0810
 2.0220	17.1830
 2.0230	17.3050
 2.0240	17.4030
 2.0250	17.4840
 2.0260	17.5760
 2.0270	17.6560
 2.0280	17.7520
 2.0290	17.8570
 2.0300	17.9490
 2.0310	18.0420
 2.0320	18.1310
 2.0330	18.2170
 2.0340	18.3000
 2.0350	18.3860
 2.0360	18.4670
 2.0370	18.5520
 2.0380	18.6540
 2.0390	18.7310
 2.0400	18.7930
 2.0410	18.8560
 2.0420	18.8940
 2.0430	18.9410
 2.0440	19.0180
 2.0450	19.1190
 2.0460	19.2070
 2.0470	19.3170
 2.0480	19.4090
 2.0490	19.4910
 2.0500	19.5680
 2.0510	19.6470
 2.0520	19.7120
 2.0530	19.7590
 2.0540	19.8100
 2.0550	19.8490
 2.0560	19.8980
 2.0570	19.9620
 2.0580	20.0490
 2.0590	20.1390
 2.0600	20.2690
 2.0610	20.3490
 2.0620	20.4110
 2.0630	20.4790
 2.0640	20.5140
 2.0650	20.5840
 2.0660	20.6870
 2.0670	20.7660
 2.0680	20.8480
 2.0690	20.9220
 2.0700	20.9660
 2.0710	21.0360
 2.0720	21.1100
 2.0730	21.2170
 2.0740	21.2950
 2.0750	21.3760
 2.0760	21.4520
 2.0770	21.5040
 2.0780	21.5760
 2.0790	21.6720
 2.0800	21.7470
 2.0810	21.8150
 2.0820	21.8860
 2.0830	21.9480
 2.0840	22.0070
 2.0850	22.0590
 2.0860	22.1240
 2.0870	22.1800
 2.0880	22.2590
 2.0890	22.3350
 2.0900	22.4250
 2.0910	22.5040
 2.0920	22.5860
 2.0930	22.6570
 2.0940	22.7170
 2.0950	22.7830
 2.0960	22.8380
 2.0970	22.9050
 2.0980	22.9860
 2.0990	23.0620
 2.1000	23.1570
 2.1010	23.2230
 2.1020	23.2610
 2.1030	23.3120
 2.1040	23.3570
 2.1050	23.3880
 2.1060	23.4420
 2.1070	23.5100
 2.1080	23.5890
 2.1090	23.6770
 2.1100	23.7640
 2.1110	23.8840
 2.1120	23.9590
 2.1130	24.0090
 2.1140	24.0640
 2.1150	24.0910
 2.1160	24.1380
 2.1170	24.2020
 2.1180	24.2490
 2.1190	24.2800
 2.1200	24.3270
 2.1210	24.3530
 2.1220	24.4260
 2.1230	24.4760
 2.1240	24.5400
 2.1250	24.5900
 2.1260	24.6260
 2.1270	24.6710
 2.1280	24.7230
 2.1290	24.7720
 2.1300	24.8250
 2.1310	24.8640
 2.1320	24.8900
 2.1330	24.9260
 2.1340	24.9500
 2.1350	24.9860
 2.1360	25.0280
 2.1370	25.0830
 2.1380	25.1550
 2.1390	25.2180
 2.1400	25.2950
 2.1410	25.3760
 2.1420	25.4050
 2.1430	25.3910
 2.1440	25.4170
 2.1450	25.4190
 2.1460	25.4570
 2.1470	25.5490
 2.1480	25.5870
 2.1490	25.6060
 2.1500	25.6270
 2.1510	25.6140
 2.1520	25.6390
 2.1530	25.6950
 2.1540	25.7270
 2.1550	25.7730
 2.1560	25.8010
 2.1570	25.8070
 2.1580	25.8150
 2.1590	25.8170
 2.1600	25.8240
 2.1610	25.8250
 2.1620	25.8240
 2.1630	25.8200
 2.1640	25.8160
 2.1650	25.8120
 2.1660	25.7900
 2.1670	25.8070
 2.1680	25.8460
 2.1690	25.8770
 2.1700	25.9390
 2.1710	25.9690
 2.1720	25.9770
 2.1730	25.9900
 2.1740	25.9890
 2.1750	26.0040
 2.1760	26.0250
 2.1770	26.0490
 2.1780	26.0750
 2.1790	26.1130
 2.1800	26.1510
 2.1810	26.2080
 2.1820	26.3020
 2.1830	26.3880
 2.1840	26.4320
 2.1850	26.4770
 2.1860	26.4830
 2.1870	26.4270
 2.1880	26.4060
 2.1890	26.3660
 2.1900	26.3650
 2.1910	26.3860
 2.1920	26.4030
 2.1930	26.4380
 2.1940	26.4760
 2.1950	26.5250
 2.1960	26.5560
 2.1970	26.6000
 2.1980	26.6250
 2.1990	26.6120
 2.2000	26.6250
 2.2010	26.6480
 2.2020	26.6690
 2.2030	26.7010
 2.2040	26.7240
 2.2050	26.7340
 2.2060	26.7650
 2.2070	26.7780
 2.2080	26.7850
 2.2090	26.7970
 2.2100	26.8030
 2.2110	26.8180
 2.2120	26.8450
 2.2130	26.8590
 2.2140	26.8750
 2.2150	26.8780
 2.2160	26.8750
 2.2170	26.8640
 2.2180	26.8280
 2.2190	26.8190
 2.2200	26.8130
 2.2210	26.8150
 2.2220	26.8480
 2.2230	26.8600
 2.2240	26.8660
 2.2250	26.8700
 2.2260	26.8840
 2.2270	26.8600
 2.2280	26.7940
 2.2290	26.7510
 2.2300	26.6820
 2.2310	26.6360
 2.2320	26.6300
 2.2330	26.6150
 2.2340	26.5790
 2.2350	26.5300
 2.2360	26.5020
 2.2370	26.4720
 2.2380	26.4330
 2.2390	26.4080
 2.2400	26.3660
 2.2410	26.2970
 2.2420	26.2450
 2.2430	26.2110
 2.2440	26.1450
 2.2450	26.0510
 2.2460	25.9850
 2.2470	25.9090
 2.2480	25.8580
 2.2490	25.8480
 2.2500	25.8060
 2.2510	25.7640
 2.2520	25.7090
 2.2530	25.6390
 2.2540	25.5630
 2.2550	25.4670
 2.2560	25.3810
 2.2570	25.2990
 2.2580	25.2060
 2.2590	25.0970
 2.2600	25.0210
 2.2610	24.9320
 2.2620	24.8960
 2.2630	24.8580
 2.2640	24.8120
 2.2650	24.7810
 2.2660	24.6760
 2.2670	24.6080
 2.2680	24.5530
 2.2690	24.4740
 2.2700	24.3740
 2.2710	24.3120
 2.2720	24.2460
 2.2730	24.2140
 2.2740	24.2380
 2.2750	24.2080
 2.2760	24.1800
 2.2770	24.1150
 2.2780	23.9850
 2.2790	23.9220
 2.2800	23.8670
 2.2810	23.8320
 2.2820	23.8530
 2.2830	23.8370
 2.2840	23.8150
 2.2850	23.7840
 2.2860	23.7410
 2.2870	23.7030
 2.2880	23.6550
 2.2890	23.6140
 2.2900	23.5900
 2.2910	23.5400
 2.2920	23.4880
 2.2930	23.4160
 2.2940	23.3120
 2.2950	23.2170
 2.2960	23.1020
 2.2970	23.0100
 2.2980	22.9350
 2.2990	22.8570
 2.3000	22.8010
 2.3010	22.7390
 2.3020	22.6840
 2.3030	22.6590
 2.3040	22.6490
 2.3050	22.6370
 2.3060	22.5850
 2.3070	22.4920
 2.3080	22.4090
 2.3090	22.3180
 2.3100	22.2810
 2.3110	22.2740
 2.3120	22.2220
 2.3130	22.1430
 2.3140	22.1200
 2.3150	22.1020
 2.3160	22.0660
 2.3170	22.0580
 2.3180	22.0430
 2.3190	21.9920
 2.3200	21.9770
 2.3210	22.0030
 2.3220	22.0050
 2.3230	21.9990
 2.3240	21.9800
 2.3250	21.9810
 2.3260	21.9430
 2.3270	21.8480
 2.3280	21.8080
 2.3290	21.7830
 2.3300	21.7520
 2.3310	21.7570
 2.3320	21.7090
 2.3330	21.6160
 2.3340	21.5290
 2.3350	21.4200
 2.3360	21.3510
 2.3370	21.2920
 2.3380	21.2540
 2.3390	21.2760
 2.3400	21.2150
 2.3410	21.1270
 2.3420	21.0200
 2.3430	20.8280
 2.3440	20.7110
 2.3450	20.6320
 2.3460	20.5590
 2.3470	20.5130
 2.3480	20.4800
 2.3490	20.4440
 2.3500	20.4180
 2.3510	20.4410
 2.3520	20.4100
 2.3530	20.3390
 2.3540	20.3170
 2.3550	20.2360
 2.3560	20.2280
 2.3570	20.3070
 2.3580	20.2880
 2.3590	20.2480
 2.3600	20.1960
 2.3610	20.0330
 2.3620	19.9850
 2.3630	19.9670
 2.3640	19.9410
 2.3650	19.9500
 2.3660	19.8630
 2.3670	19.7860
 2.3680	19.7190
 2.3690	19.6340
 2.3700	19.5490
 2.3710	19.4640
 2.3720	19.4190
 2.3730	19.4290
 2.3740	19.4370
 2.3750	19.4320
 2.3760	19.3380
 2.3770	19.2170
 2.3780	19.1550
 2.3790	19.0370
 2.3800	19.0340
 2.3810	19.0120
 2.3820	18.8580
 2.3830	18.7580
 2.3840	18.6470
 2.3850	18.5440
 2.3860	18.4860
 2.3870	18.4930
 2.3880	18.4890
 2.3890	18.4330
 2.3900	18.4510
 2.3910	18.4330
 2.3920	18.3700
 2.3930	18.2720
 2.3940	18.1400
 2.3950	18.0760
 2.3960	18.0180
 2.3970	17.9990
 2.3980	17.9840
 2.3990	17.9220
 2.4000	17.8460
 2.4010	17.7470
 2.4020	17.6810
 2.4030	17.6120
 2.4040	17.4600
 2.4050	17.3760
 2.4060	17.3340
 2.4070	17.2980
 2.4080	17.3950
 2.4090	17.3480
 2.4100	17.2130
 2.4110	17.0700
 2.4120	16.8850
 2.4130	16.9520
 2.4140	17.0000
 2.4150	16.9800
 2.4160	16.9940
 2.4170	16.8580
 2.4180	16.7790
 2.4190	16.7330
 2.4200	16.5970
 2.4210	16.4430
 2.4220	16.3550
 2.4230	16.3540
 2.4240	16.3930
 2.4250	16.3970
 2.4260	16.3280
 2.4270	16.2560
 2.4280	16.1380
 2.4290	16.1460
 2.4300	16.1940
 2.4310	16.1580
 2.4320	16.1000
 2.4330	15.8460
 2.4340	15.6260
 2.4350	15.4360
 2.4360	15.3370
 2.4370	15.4380
 2.4380	15.4230
 2.4390	15.4990
 2.4400	15.5750
 2.4410	15.4890
 2.4420	15.4690
 2.4430	15.3160
 2.4440	15.1190
 2.4450	14.9490
 2.4460	14.8050
 2.4470	14.7460
 2.4480	14.6570
 2.4490	14.7060
 2.4500	14.8250
 2.4510	14.8500
 2.4520	14.7820
 2.4530	14.7560
 2.4540	14.6520
 2.4550	14.5270
 2.4560	14.5030
 2.4570	14.3330
 2.4580	14.2100
 2.4590	14.1680
 2.4600	14.1290
 2.4610	14.1340
 2.4620	14.1210
 2.4630	14.0380
 2.4640	13.9670
 2.4650	13.8340
 2.4660	13.6140
 2.4670	13.4260
 2.4680	13.3470
 2.4690	13.4710
 2.4700	13.5000
 2.4710	13.6770
 2.4720	13.6450
 2.4730	13.4140
 2.4740	13.3580
 2.4750	13.1970
 2.4760	13.2010
 2.4770	13.4010
 2.4780	13.5000
 2.4790	13.7050
 2.4800	13.7670
 2.4810	13.7660
 2.4820	13.4710
 2.4830	13.2160
 2.4840	12.8240
 2.4850	12.6600
 2.4860	12.8650
 2.4870	12.9780
 2.4880	12.9960
 2.4890	13.0120
 2.4900	13.1400
 2.4910	13.2900
 2.4920	13.8110
 2.4930	14.4880
 2.4940	14.4450
 2.4950	14.2200
 2.4960	13.8570
 2.4970	13.2590
 2.4980	13.0960
 2.4990	13.2100
 2.5000	13.1250
