Name: Quercus douglasii 3
Type: vegetation
Class: Tree
Genus: Quercus
Species: douglasii
Sample No.: VH278
Owner: UCSB
Wavelength Range: TIR
Origin: 34.7165; -120.0605; WGS84
Collection Date: 11/2/2013
Description: Samples were collected as part of the HyspIRI Airborne Campaign. 48 individual plants were sampled in three times in 2013 - spring  summer  and fall. The name of the sample includes a 1  2  or 3 which references a different individual of the species. Samples were taken to JPL and processed within 48 hours of collection. The same leaves were processed in the Nicolet and then measured using the ASD.
Measurement: Hemispherical reflectance
First Column: X
Second Column: Y
X Units: Wavelength (micrometers)
Y Units: Reflectance (percentage)
First X Value: 2.501
Last X Value: 15.387
Number of X Values: 1737
Additional Information: vegetation.tree.quercus.douglasii.tir.vh278.ucsb.nicolet.ancillary.txt

 2.5010	13.3010
 2.5030	13.2610
 2.5040	13.1980
 2.5050	13.2870
 2.5060	13.3030
 2.5070	13.1790
 2.5090	13.1060
 2.5100	12.9680
 2.5110	12.7810
 2.5120	12.7830
 2.5140	12.9670
 2.5150	13.1010
 2.5160	13.0610
 2.5170	13.0150
 2.5180	13.0440
 2.5200	13.1630
 2.5210	13.0340
 2.5220	12.9110
 2.5230	13.0640
 2.5250	13.1210
 2.5260	13.0190
 2.5270	12.9820
 2.5280	12.9550
 2.5290	12.8660
 2.5310	12.8790
 2.5320	12.9220
 2.5330	13.0680
 2.5340	13.1880
 2.5360	13.1650
 2.5370	13.0410
 2.5380	13.1160
 2.5390	13.2020
 2.5410	13.0840
 2.5420	12.8830
 2.5430	13.0260
 2.5440	13.1410
 2.5460	13.0570
 2.5470	13.0230
 2.5480	13.0670
 2.5490	13.1340
 2.5510	13.0450
 2.5520	13.0310
 2.5530	13.0820
 2.5540	13.1120
 2.5560	13.1040
 2.5570	13.2070
 2.5580	13.1980
 2.5590	12.9800
 2.5610	12.9760
 2.5620	12.9420
 2.5630	12.9640
 2.5640	12.9150
 2.5660	12.9200
 2.5670	13.0100
 2.5680	13.0520
 2.5700	13.1000
 2.5710	13.2630
 2.5720	13.0860
 2.5730	13.0240
 2.5750	13.2380
 2.5760	13.1860
 2.5770	12.9240
 2.5790	12.8680
 2.5800	12.9830
 2.5810	13.0320
 2.5820	13.0340
 2.5840	12.8460
 2.5850	12.7890
 2.5860	12.9620
 2.5880	12.9690
 2.5890	12.9950
 2.5900	12.9500
 2.5910	12.8390
 2.5930	12.9220
 2.5940	12.8390
 2.5950	12.4400
 2.5970	12.4880
 2.5980	12.6450
 2.5990	12.8460
 2.6000	12.9350
 2.6020	12.7780
 2.6030	12.6120
 2.6040	12.5530
 2.6060	12.4620
 2.6070	12.5370
 2.6080	12.5890
 2.6100	12.5710
 2.6110	12.5200
 2.6120	12.5970
 2.6140	12.4640
 2.6150	12.3650
 2.6160	12.2840
 2.6180	12.0710
 2.6190	12.0190
 2.6200	11.9780
 2.6220	11.9600
 2.6230	11.9850
 2.6240	11.9460
 2.6260	11.8850
 2.6270	11.7420
 2.6280	11.6990
 2.6300	11.5550
 2.6310	11.4320
 2.6320	11.4560
 2.6340	11.4540
 2.6350	11.4980
 2.6360	11.4870
 2.6380	11.3010
 2.6390	11.2510
 2.6400	11.1390
 2.6420	11.1060
 2.6430	11.1480
 2.6440	11.0630
 2.6460	10.9290
 2.6470	10.9720
 2.6480	10.7990
 2.6500	10.6790
 2.6510	10.7130
 2.6520	10.6050
 2.6540	10.5440
 2.6550	10.4520
 2.6560	10.1630
 2.6580	10.1210
 2.6590	10.1020
 2.6610	10.0120
 2.6620	 9.9350
 2.6630	 9.8430
 2.6650	 9.4400
 2.6660	 9.4400
 2.6670	 9.7050
 2.6690	 9.6130
 2.6700	 9.2930
 2.6720	 9.1400
 2.6730	 9.2340
 2.6740	 9.1500
 2.6760	 9.0140
 2.6770	 8.9550
 2.6780	 8.9280
 2.6800	 8.8530
 2.6810	 8.7290
 2.6830	 8.5780
 2.6840	 8.6270
 2.6850	 8.6660
 2.6870	 8.4840
 2.6880	 8.3480
 2.6900	 8.2660
 2.6910	 8.2310
 2.6920	 8.0140
 2.6940	 7.8000
 2.6950	 7.7270
 2.6970	 7.6320
 2.6980	 7.5660
 2.6990	 7.5190
 2.7010	 7.2310
 2.7020	 7.0380
 2.7040	 7.0240
 2.7050	 7.0600
 2.7060	 6.9910
 2.7080	 6.6970
 2.7090	 6.4360
 2.7110	 6.4980
 2.7120	 6.4540
 2.7130	 6.5070
 2.7150	 6.4700
 2.7160	 6.3310
 2.7180	 6.1510
 2.7190	 5.9600
 2.7210	 5.7720
 2.7220	 6.0230
 2.7230	 6.2250
 2.7250	 5.9130
 2.7260	 5.6000
 2.7280	 5.6690
 2.7290	 5.8380
 2.7310	 5.7900
 2.7320	 5.6410
 2.7330	 5.5920
 2.7350	 5.3360
 2.7360	 5.2640
 2.7380	 5.1060
 2.7390	 4.9280
 2.7410	 4.8990
 2.7420	 5.0220
 2.7440	 5.1150
 2.7450	 5.1010
 2.7470	 4.8180
 2.7480	 4.8800
 2.7490	 5.1010
 2.7510	 4.9220
 2.7520	 4.5580
 2.7540	 4.4270
 2.7550	 4.2280
 2.7570	 4.3300
 2.7580	 4.6200
 2.7600	 4.7000
 2.7610	 4.4600
 2.7630	 4.1430
 2.7640	 4.2370
 2.7660	 4.5540
 2.7670	 4.4940
 2.7680	 4.2760
 2.7700	 4.3360
 2.7710	 4.2960
 2.7730	 4.0960
 2.7740	 4.0980
 2.7760	 4.3460
 2.7770	 4.3360
 2.7790	 4.1960
 2.7800	 4.0340
 2.7820	 3.8910
 2.7830	 3.7540
 2.7850	 3.8610
 2.7860	 4.1750
 2.7880	 4.1090
 2.7890	 4.0060
 2.7910	 3.9740
 2.7920	 3.7150
 2.7940	 3.8470
 2.7950	 4.0120
 2.7970	 3.8160
 2.7980	 3.7620
 2.8000	 3.9580
 2.8010	 4.0870
 2.8030	 3.9430
 2.8040	 3.9760
 2.8060	 4.0830
 2.8070	 3.9120
 2.8090	 3.6740
 2.8110	 3.6520
 2.8120	 3.6340
 2.8140	 3.7650
 2.8150	 3.8400
 2.8170	 3.7680
 2.8180	 3.6170
 2.8200	 3.5620
 2.8210	 3.5510
 2.8230	 3.6510
 2.8240	 3.5220
 2.8260	 3.5960
 2.8270	 3.6610
 2.8290	 3.6760
 2.8300	 3.6350
 2.8320	 3.7530
 2.8340	 3.6120
 2.8350	 3.4430
 2.8370	 3.4390
 2.8380	 3.5120
 2.8400	 3.2980
 2.8410	 3.2000
 2.8430	 3.3540
 2.8440	 3.5630
 2.8460	 3.4330
 2.8480	 3.3730
 2.8490	 3.4160
 2.8510	 3.6410
 2.8520	 3.6440
 2.8540	 3.4690
 2.8550	 3.4420
 2.8570	 3.5190
 2.8590	 3.3850
 2.8600	 3.2550
 2.8620	 3.3220
 2.8630	 3.4170
 2.8650	 3.4550
 2.8660	 3.4840
 2.8680	 3.3810
 2.8700	 3.4280
 2.8710	 3.4190
 2.8730	 3.2980
 2.8740	 3.2250
 2.8760	 3.0820
 2.8780	 3.0470
 2.8790	 3.2440
 2.8810	 3.2550
 2.8820	 3.2060
 2.8840	 2.9230
 2.8860	 3.0830
 2.8870	 3.3680
 2.8890	 3.7670
 2.8900	 3.6450
 2.8920	 3.3420
 2.8940	 3.2450
 2.8950	 3.3870
 2.8970	 3.5250
 2.8980	 3.4370
 2.9000	 3.1670
 2.9020	 3.1670
 2.9030	 3.0690
 2.9050	 3.0400
 2.9070	 3.0630
 2.9080	 3.1370
 2.9100	 3.0210
 2.9120	 3.0820
 2.9130	 3.1230
 2.9150	 2.9590
 2.9160	 2.7580
 2.9180	 2.9110
 2.9200	 2.9220
 2.9210	 3.0950
 2.9230	 3.0940
 2.9250	 3.1140
 2.9260	 3.3530
 2.9280	 3.2510
 2.9300	 3.0830
 2.9310	 3.2290
 2.9330	 3.3860
 2.9350	 3.3150
 2.9360	 2.9950
 2.9380	 3.1830
 2.9400	 2.9740
 2.9410	 2.7940
 2.9430	 2.8410
 2.9450	 3.1360
 2.9460	 3.5510
 2.9480	 3.9440
 2.9500	 3.6750
 2.9510	 3.5860
 2.9530	 3.2090
 2.9550	 3.5050
 2.9560	 3.9890
 2.9580	 3.8270
 2.9600	 3.0770
 2.9610	 2.7860
 2.9630	 2.9180
 2.9650	 3.6230
 2.9660	 3.5230
 2.9680	 3.4030
 2.9700	 4.1930
 2.9720	 3.5020
 2.9730	 2.5070
 2.9750	 2.6010
 2.9770	 2.5630
 2.9780	 2.9630
 2.9800	 3.1040
 2.9820	 3.5620
 2.9840	 3.5190
 2.9850	 3.8600
 2.9870	 3.9640
 2.9890	 3.0900
 2.9900	 3.0600
 2.9920	 4.8080
 2.9940	 6.5210
 2.9960	 6.5280
 2.9970	 5.2260
 2.9990	 3.8000
 3.0010	 4.5210
 3.0030	 4.7150
 3.0040	 3.5040
 3.0060	 3.0760
 3.0080	 3.0210
 3.0100	 3.3340
 3.0110	 3.2320
 3.0130	 3.1150
 3.0150	 3.5700
 3.0170	 3.7880
 3.0180	 3.8550
 3.0200	 3.6230
 3.0220	 3.6700
 3.0240	 3.5410
 3.0250	 3.4230
 3.0270	 3.3380
 3.0290	 2.8750
 3.0310	 2.0990
 3.0320	 2.0470
 3.0340	 2.5620
 3.0360	 2.5500
 3.0380	 2.6790
 3.0400	 3.3420
 3.0410	 3.8510
 3.0430	 4.6630
 3.0450	 3.8410
 3.0470	 4.0160
 3.0480	 5.1100
 3.0500	 3.9030
 3.0520	 2.4370
 3.0540	 2.6110
 3.0560	 2.8800
 3.0570	 2.9580
 3.0590	 3.4920
 3.0610	 4.2730
 3.0630	 3.4970
 3.0650	 3.3000
 3.0660	 3.9960
 3.0680	 3.8910
 3.0700	 3.6850
 3.0720	 3.6440
 3.0740	 3.9300
 3.0760	 4.0950
 3.0770	 3.9130
 3.0790	 3.4360
 3.0810	 3.2610
 3.0830	 3.5720
 3.0850	 3.8330
 3.0870	 3.6730
 3.0880	 3.4810
 3.0900	 3.4710
 3.0920	 3.5690
 3.0940	 3.5880
 3.0960	 3.5320
 3.0980	 3.3890
 3.0990	 3.4790
 3.1010	 3.6010
 3.1030	 3.5830
 3.1050	 3.5710
 3.1070	 3.6580
 3.1090	 3.7580
 3.1110	 3.7920
 3.1120	 3.8710
 3.1140	 3.8580
 3.1160	 3.6030
 3.1180	 3.5630
 3.1200	 3.7010
 3.1220	 3.7280
 3.1240	 3.6220
 3.1260	 3.7550
 3.1270	 3.7910
 3.1290	 3.7690
 3.1310	 3.5990
 3.1330	 3.7830
 3.1350	 4.1460
 3.1370	 4.0830
 3.1390	 3.1380
 3.1410	 4.1400
 3.1430	 5.3540
 3.1450	 4.5030
 3.1460	 4.0640
 3.1480	 2.9230
 3.1500	 3.2000
 3.1520	 3.0730
 3.1540	 3.1320
 3.1560	 3.6380
 3.1580	 4.2320
 3.1600	 4.2590
 3.1620	 4.0680
 3.1640	 4.3220
 3.1660	 4.0360
 3.1680	 3.0090
 3.1700	 2.6360
 3.1710	 4.2190
 3.1730	 4.2770
 3.1750	 3.1310
 3.1770	 3.0720
 3.1790	 4.9010
 3.1810	 5.4550
 3.1830	 5.1560
 3.1850	 4.7210
 3.1870	 4.0560
 3.1890	 4.1490
 3.1910	 4.2610
 3.1930	 4.1120
 3.1950	 3.9070
 3.1970	 3.9450
 3.1990	 4.1970
 3.2010	 4.2650
 3.2030	 4.0680
 3.2050	 4.0250
 3.2070	 4.1230
 3.2090	 4.2600
 3.2110	 4.2420
 3.2130	 4.2030
 3.2150	 4.3290
 3.2170	 4.5150
 3.2190	 4.3700
 3.2210	 4.2320
 3.2230	 4.3000
 3.2250	 4.5010
 3.2270	 4.5590
 3.2290	 4.5440
 3.2310	 4.6150
 3.2330	 4.7400
 3.2350	 4.7340
 3.2370	 4.5550
 3.2390	 4.3510
 3.2410	 4.5080
 3.2430	 4.6230
 3.2450	 4.6140
 3.2470	 4.7630
 3.2490	 4.7080
 3.2510	 4.4350
 3.2530	 4.5310
 3.2550	 4.5760
 3.2570	 4.4960
 3.2590	 4.5540
 3.2610	 4.6490
 3.2630	 4.7580
 3.2650	 4.7110
 3.2670	 4.3670
 3.2690	 4.2940
 3.2720	 4.4600
 3.2740	 4.5310
 3.2760	 4.6240
 3.2780	 4.6380
 3.2800	 4.6310
 3.2820	 4.5650
 3.2840	 4.6340
 3.2860	 4.7580
 3.2880	 4.7250
 3.2900	 4.6250
 3.2920	 4.7040
 3.2940	 4.8530
 3.2960	 4.9320
 3.2990	 4.8940
 3.3010	 4.7790
 3.3030	 4.7750
 3.3050	 4.7490
 3.3070	 4.5990
 3.3090	 4.6800
 3.3110	 4.7300
 3.3130	 4.6260
 3.3150	 4.5270
 3.3180	 4.4260
 3.3200	 4.7360
 3.3220	 4.7890
 3.3240	 4.4330
 3.3260	 4.4440
 3.3280	 4.6710
 3.3300	 4.6980
 3.3330	 4.5070
 3.3350	 4.5300
 3.3370	 4.6560
 3.3390	 4.6690
 3.3410	 4.6680
 3.3430	 4.6310
 3.3450	 4.6240
 3.3480	 4.6220
 3.3500	 4.6500
 3.3520	 4.5820
 3.3540	 4.5180
 3.3560	 4.4130
 3.3580	 4.3420
 3.3610	 4.3020
 3.3630	 4.2080
 3.3650	 4.1350
 3.3670	 4.2800
 3.3690	 4.2730
 3.3720	 4.2170
 3.3740	 4.2390
 3.3760	 4.1280
 3.3780	 3.9400
 3.3800	 3.9180
 3.3830	 3.9150
 3.3850	 3.9690
 3.3870	 4.0180
 3.3890	 4.0220
 3.3910	 4.0270
 3.3940	 4.0080
 3.3960	 3.8530
 3.3980	 3.7470
 3.4000	 3.8900
 3.4020	 3.8650
 3.4050	 3.7570
 3.4070	 3.9810
 3.4090	 4.1340
 3.4110	 4.0690
 3.4140	 3.9950
 3.4160	 4.1820
 3.4180	 4.2090
 3.4200	 4.1730
 3.4230	 4.2380
 3.4250	 4.1500
 3.4270	 4.1730
 3.4290	 4.2140
 3.4320	 4.3940
 3.4340	 4.6130
 3.4360	 4.4800
 3.4390	 4.2040
 3.4410	 4.2920
 3.4430	 4.4870
 3.4450	 4.4430
 3.4480	 4.2790
 3.4500	 4.1090
 3.4520	 4.2410
 3.4550	 4.5510
 3.4570	 4.5780
 3.4590	 4.4050
 3.4620	 4.3070
 3.4640	 4.3080
 3.4660	 4.3350
 3.4680	 4.2970
 3.4710	 4.3670
 3.4730	 4.4240
 3.4750	 4.4370
 3.4780	 4.5350
 3.4800	 4.5110
 3.4820	 4.4150
 3.4850	 4.3930
 3.4870	 4.3710
 3.4890	 4.2990
 3.4920	 4.4030
 3.4940	 4.5470
 3.4970	 4.5830
 3.4990	 4.6270
 3.5010	 4.4960
 3.5040	 4.3690
 3.5060	 4.4810
 3.5080	 4.7120
 3.5110	 4.8910
 3.5130	 4.8500
 3.5160	 4.8460
 3.5180	 4.9820
 3.5200	 5.1900
 3.5230	 5.2850
 3.5250	 5.2770
 3.5270	 5.3640
 3.5300	 5.4550
 3.5320	 5.3860
 3.5350	 5.3320
 3.5370	 5.3050
 3.5400	 5.4360
 3.5420	 5.6100
 3.5440	 5.5910
 3.5470	 5.6660
 3.5490	 5.7190
 3.5520	 5.6760
 3.5540	 5.6420
 3.5570	 5.5810
 3.5590	 5.5440
 3.5610	 5.5560
 3.5640	 5.6360
 3.5660	 5.6270
 3.5690	 5.6250
 3.5710	 5.6710
 3.5740	 5.6260
 3.5760	 5.6410
 3.5790	 5.6750
 3.5810	 5.6930
 3.5840	 5.8440
 3.5860	 5.8930
 3.5890	 5.8330
 3.5910	 5.9180
 3.5930	 6.0330
 3.5960	 5.8590
 3.5980	 5.9180
 3.6010	 6.0700
 3.6030	 5.9560
 3.6060	 5.9800
 3.6080	 5.9160
 3.6110	 5.8090
 3.6140	 5.9590
 3.6160	 6.0140
 3.6190	 5.9120
 3.6210	 5.9950
 3.6240	 6.0510
 3.6260	 5.8600
 3.6290	 5.7780
 3.6310	 5.8920
 3.6340	 5.9580
 3.6360	 6.0120
 3.6390	 6.0900
 3.6410	 6.0810
 3.6440	 6.0070
 3.6470	 6.0260
 3.6490	 6.0760
 3.6520	 5.9710
 3.6540	 5.8850
 3.6570	 5.9710
 3.6590	 5.9640
 3.6620	 6.0050
 3.6650	 6.1760
 3.6670	 6.1790
 3.6700	 6.2020
 3.6720	 6.2510
 3.6750	 6.1850
 3.6780	 6.1820
 3.6800	 6.2230
 3.6830	 6.1350
 3.6850	 6.0910
 3.6880	 6.1380
 3.6910	 6.2050
 3.6930	 6.2630
 3.6960	 6.2010
 3.6990	 6.1260
 3.7010	 6.0610
 3.7040	 6.0680
 3.7060	 6.1840
 3.7090	 6.2870
 3.7120	 6.2710
 3.7140	 6.1920
 3.7170	 6.1750
 3.7200	 6.2470
 3.7220	 6.2570
 3.7250	 6.2230
 3.7280	 6.3120
 3.7300	 6.3070
 3.7330	 6.2710
 3.7360	 6.2850
 3.7390	 6.4080
 3.7410	 6.4240
 3.7440	 6.3870
 3.7470	 6.4260
 3.7490	 6.4070
 3.7520	 6.4610
 3.7550	 6.5540
 3.7580	 6.5580
 3.7600	 6.4800
 3.7630	 6.4580
 3.7660	 6.4710
 3.7680	 6.4430
 3.7710	 6.4560
 3.7740	 6.4830
 3.7770	 6.4990
 3.7790	 6.5280
 3.7820	 6.5940
 3.7850	 6.5800
 3.7880	 6.6530
 3.7900	 6.7300
 3.7930	 6.6770
 3.7960	 6.6220
 3.7990	 6.6640
 3.8020	 6.7240
 3.8040	 6.7410
 3.8070	 6.8210
 3.8100	 6.8050
 3.8130	 6.7460
 3.8160	 6.7920
 3.8180	 6.8770
 3.8210	 6.8260
 3.8240	 6.8120
 3.8270	 6.8220
 3.8300	 6.8500
 3.8330	 6.8220
 3.8350	 6.9290
 3.8380	 6.9730
 3.8410	 6.8800
 3.8440	 6.9110
 3.8470	 7.1110
 3.8500	 7.1340
 3.8520	 6.9960
 3.8550	 6.9300
 3.8580	 6.9320
 3.8610	 6.9790
 3.8640	 6.9720
 3.8670	 6.9650
 3.8700	 7.0860
 3.8730	 7.0750
 3.8750	 7.0420
 3.8780	 7.0640
 3.8810	 7.0220
 3.8840	 7.0540
 3.8870	 7.0550
 3.8900	 7.0370
 3.8930	 7.1250
 3.8960	 7.2110
 3.8990	 7.2200
 3.9020	 7.2510
 3.9050	 7.2230
 3.9080	 7.1320
 3.9110	 7.1290
 3.9140	 7.1680
 3.9160	 7.2080
 3.9190	 7.2810
 3.9220	 7.3270
 3.9250	 7.2090
 3.9280	 7.1760
 3.9310	 7.2600
 3.9340	 7.2720
 3.9370	 7.1950
 3.9400	 7.1600
 3.9430	 7.2250
 3.9460	 7.3910
 3.9490	 7.3900
 3.9520	 7.2980
 3.9550	 7.2270
 3.9580	 7.2770
 3.9610	 7.2610
 3.9640	 7.3350
 3.9670	 7.4370
 3.9700	 7.4160
 3.9730	 7.4620
 3.9770	 7.5070
 3.9800	 7.3910
 3.9830	 7.4050
 3.9860	 7.4760
 3.9890	 7.5170
 3.9920	 7.4460
 3.9950	 7.4270
 3.9980	 7.5560
 4.0010	 7.6090
 4.0040	 7.4790
 4.0070	 7.4110
 4.0100	 7.5230
 4.0130	 7.6140
 4.0170	 7.6140
 4.0200	 7.5430
 4.0230	 7.5060
 4.0260	 7.6070
 4.0290	 7.6320
 4.0320	 7.6560
 4.0350	 7.7180
 4.0380	 7.6970
 4.0420	 7.6110
 4.0450	 7.5630
 4.0480	 7.5560
 4.0510	 7.5960
 4.0540	 7.6060
 4.0570	 7.7280
 4.0610	 7.7490
 4.0640	 7.6130
 4.0670	 7.6170
 4.0700	 7.7640
 4.0730	 7.7180
 4.0770	 7.5870
 4.0800	 7.6650
 4.0830	 7.7460
 4.0860	 7.7390
 4.0890	 7.7350
 4.0930	 7.7320
 4.0960	 7.8180
 4.0990	 7.8520
 4.1020	 7.8280
 4.1060	 7.7330
 4.1090	 7.6830
 4.1120	 7.7560
 4.1150	 7.7900
 4.1190	 7.7910
 4.1220	 7.8900
 4.1250	 7.9570
 4.1280	 7.8800
 4.1320	 7.7600
 4.1350	 7.8360
 4.1380	 7.8460
 4.1420	 7.8690
 4.1450	 7.8920
 4.1480	 7.9590
 4.1520	 8.0090
 4.1550	 7.9550
 4.1580	 7.8300
 4.1620	 7.8090
 4.1650	 7.8670
 4.1680	 7.8780
 4.1720	 7.8360
 4.1750	 7.8660
 4.1780	 7.8500
 4.1820	 7.7760
 4.1850	 7.7700
 4.1890	 7.8840
 4.1920	 7.8920
 4.1950	 7.9440
 4.1990	 8.0870
 4.2020	 8.0500
 4.2060	 7.8770
 4.2090	 7.9600
 4.2120	 8.1260
 4.2160	 8.1410
 4.2190	 8.2480
 4.2230	 8.6110
 4.2260	 8.5510
 4.2300	 8.2650
 4.2330	 8.3490
 4.2360	 8.7210
 4.2400	 8.9220
 4.2430	 8.7110
 4.2470	 8.3140
 4.2500	 8.1580
 4.2540	 8.1480
 4.2570	 8.2150
 4.2610	 8.1180
 4.2640	 8.0470
 4.2680	 7.9960
 4.2710	 8.0050
 4.2750	 8.0550
 4.2780	 8.3640
 4.2820	 8.3080
 4.2850	 7.9770
 4.2890	 7.5630
 4.2930	 7.6250
 4.2960	 7.8020
 4.3000	 8.1140
 4.3030	 8.2200
 4.3070	 8.2790
 4.3100	 8.1240
 4.3140	 7.9130
 4.3180	 7.9250
 4.3210	 7.9890
 4.3250	 7.9340
 4.3280	 7.8890
 4.3320	 7.8750
 4.3360	 7.8000
 4.3390	 7.6830
 4.3430	 7.5700
 4.3470	 7.5220
 4.3500	 7.5600
 4.3540	 7.6030
 4.3570	 7.6250
 4.3610	 7.5800
 4.3650	 7.5430
 4.3680	 7.5020
 4.3720	 7.4800
 4.3760	 7.4930
 4.3800	 7.5490
 4.3830	 7.4910
 4.3870	 7.3790
 4.3910	 7.3460
 4.3940	 7.4660
 4.3980	 7.4200
 4.4020	 7.4760
 4.4060	 7.4960
 4.4090	 7.3880
 4.4130	 7.2620
 4.4170	 7.2710
 4.4210	 7.3170
 4.4240	 7.3260
 4.4280	 7.2670
 4.4320	 7.3110
 4.4360	 7.3910
 4.4400	 7.3060
 4.4430	 7.2030
 4.4470	 7.2580
 4.4510	 7.2060
 4.4550	 7.1610
 4.4590	 7.2740
 4.4620	 7.2910
 4.4660	 7.1600
 4.4700	 7.1590
 4.4740	 7.1150
 4.4780	 7.1040
 4.4820	 7.1130
 4.4860	 7.0380
 4.4900	 6.9700
 4.4930	 6.9990
 4.4970	 7.0350
 4.5010	 7.0670
 4.5050	 7.0950
 4.5090	 7.0250
 4.5130	 6.9410
 4.5170	 6.9660
 4.5210	 7.0520
 4.5250	 7.0130
 4.5290	 6.8920
 4.5330	 6.8930
 4.5370	 6.9350
 4.5410	 7.0090
 4.5450	 6.9720
 4.5490	 6.9340
 4.5530	 6.8420
 4.5570	 6.8530
 4.5610	 6.9460
 4.5650	 6.9100
 4.5690	 6.8160
 4.5730	 6.8600
 4.5770	 6.8130
 4.5810	 6.7850
 4.5850	 6.7310
 4.5890	 6.7320
 4.5930	 6.7800
 4.5970	 6.7670
 4.6010	 6.7170
 4.6050	 6.7830
 4.6090	 6.7500
 4.6130	 6.5310
 4.6170	 6.5300
 4.6220	 6.6340
 4.6260	 6.5840
 4.6300	 6.7020
 4.6340	 6.7870
 4.6380	 6.7880
 4.6420	 6.7080
 4.6460	 6.6040
 4.6510	 6.5120
 4.6550	 6.5850
 4.6590	 6.6280
 4.6630	 6.5890
 4.6670	 6.5820
 4.6720	 6.6030
 4.6760	 6.5950
 4.6800	 6.6310
 4.6840	 6.6550
 4.6880	 6.6720
 4.6930	 6.6240
 4.6970	 6.6200
 4.7010	 6.5240
 4.7050	 6.4040
 4.7100	 6.4210
 4.7140	 6.5440
 4.7180	 6.5440
 4.7230	 6.5430
 4.7270	 6.5660
 4.7310	 6.5950
 4.7360	 6.5170
 4.7400	 6.5090
 4.7440	 6.5440
 4.7490	 6.5150
 4.7530	 6.4770
 4.7570	 6.5690
 4.7620	 6.5690
 4.7660	 6.5530
 4.7700	 6.4420
 4.7750	 6.4680
 4.7790	 6.4890
 4.7840	 6.6610
 4.7880	 6.7590
 4.7920	 6.7180
 4.7970	 6.6080
 4.8010	 6.4390
 4.8060	 6.3630
 4.8100	 6.5210
 4.8150	 6.6510
 4.8190	 6.6510
 4.8240	 6.5240
 4.8280	 6.6100
 4.8330	 6.7110
 4.8370	 6.6140
 4.8420	 6.4530
 4.8460	 6.4720
 4.8510	 6.4740
 4.8550	 6.5730
 4.8600	 6.6140
 4.8640	 6.6650
 4.8690	 6.6340
 4.8730	 6.6920
 4.8780	 6.6300
 4.8830	 6.6150
 4.8870	 6.6490
 4.8920	 6.6960
 4.8960	 6.6900
 4.9010	 6.7560
 4.9060	 6.7340
 4.9100	 6.7500
 4.9150	 6.7380
 4.9200	 6.8070
 4.9240	 6.8120
 4.9290	 6.7860
 4.9340	 6.8220
 4.9380	 6.9000
 4.9430	 6.9100
 4.9480	 6.8530
 4.9530	 6.8010
 4.9570	 6.8000
 4.9620	 6.7970
 4.9670	 6.9520
 4.9720	 6.9290
 4.9760	 6.9150
 4.9810	 6.9190
 4.9860	 7.0130
 4.9910	 6.9880
 4.9960	 6.9040
 5.0000	 6.8280
 5.0050	 6.7950
 5.0100	 6.7740
 5.0150	 6.8840
 5.0200	 6.8640
 5.0250	 6.8650
 5.0290	 6.9640
 5.0340	 7.0920
 5.0390	 6.9820
 5.0440	 6.9270
 5.0490	 6.9040
 5.0540	 7.0050
 5.0590	 7.0780
 5.0640	 7.0980
 5.0690	 7.0910
 5.0740	 7.0990
 5.0790	 7.0560
 5.0840	 7.0930
 5.0890	 7.0500
 5.0940	 7.0360
 5.0990	 7.0300
 5.1040	 7.1380
 5.1090	 7.1320
 5.1140	 7.0890
 5.1190	 7.0340
 5.1240	 7.0920
 5.1290	 7.0930
 5.1340	 7.1330
 5.1390	 7.2290
 5.1440	 7.2910
 5.1490	 7.2720
 5.1540	 7.3520
 5.1600	 7.2930
 5.1650	 7.3430
 5.1700	 7.2590
 5.1750	 7.2140
 5.1800	 7.2530
 5.1850	 7.3200
 5.1910	 7.2630
 5.1960	 7.2450
 5.2010	 7.1800
 5.2060	 7.1710
 5.2110	 7.0740
 5.2170	 7.1410
 5.2220	 7.1630
 5.2270	 7.1150
 5.2320	 7.1190
 5.2380	 7.1840
 5.2430	 7.2180
 5.2480	 7.2410
 5.2540	 7.1000
 5.2590	 7.0820
 5.2640	 7.0750
 5.2700	 7.1800
 5.2750	 7.1410
 5.2800	 7.1150
 5.2860	 7.1120
 5.2910	 7.1020
 5.2970	 7.0930
 5.3020	 7.0660
 5.3070	 6.9250
 5.3130	 6.9810
 5.3180	 6.9740
 5.3240	 6.9440
 5.3290	 6.9320
 5.3350	 6.9610
 5.3400	 6.9420
 5.3460	 6.9440
 5.3510	 6.8850
 5.3570	 6.9330
 5.3620	 6.8120
 5.3680	 6.8010
 5.3730	 6.8310
 5.3790	 6.9640
 5.3850	 6.9890
 5.3900	 7.0300
 5.3960	 6.8970
 5.4010	 6.7900
 5.4070	 6.7510
 5.4130	 6.7470
 5.4180	 6.6620
 5.4240	 6.5570
 5.4300	 6.4940
 5.4350	 6.5750
 5.4410	 6.6120
 5.4470	 6.6780
 5.4530	 6.6630
 5.4580	 6.5830
 5.4640	 6.4180
 5.4700	 6.4250
 5.4760	 6.3570
 5.4810	 6.3590
 5.4870	 6.3410
 5.4930	 6.2880
 5.4990	 6.2910
 5.5050	 6.2480
 5.5110	 6.0940
 5.5160	 6.0930
 5.5220	 6.0420
 5.5280	 5.9790
 5.5340	 5.8740
 5.5400	 5.8540
 5.5460	 5.8260
 5.5520	 5.8290
 5.5580	 5.6930
 5.5640	 5.6480
 5.5700	 5.5300
 5.5760	 5.3570
 5.5820	 5.1700
 5.5880	 5.1480
 5.5940	 5.0880
 5.6000	 5.0950
 5.6060	 5.0420
 5.6120	 4.9140
 5.6180	 4.7610
 5.6240	 4.8030
 5.6300	 4.6350
 5.6360	 4.4610
 5.6420	 4.2810
 5.6490	 4.1910
 5.6550	 3.9840
 5.6610	 3.8760
 5.6670	 3.6840
 5.6730	 3.4490
 5.6800	 3.3430
 5.6860	 3.4260
 5.6920	 3.2930
 5.6980	 3.1650
 5.7040	 3.1000
 5.7110	 3.0310
 5.7170	 2.9680
 5.7230	 2.9500
 5.7300	 2.8430
 5.7360	 2.9130
 5.7420	 2.8800
 5.7490	 2.8630
 5.7550	 2.9810
 5.7620	 3.1130
 5.7680	 3.0260
 5.7740	 3.1880
 5.7810	 3.3600
 5.7870	 3.5630
 5.7940	 3.6360
 5.8000	 3.6060
 5.8070	 3.5650
 5.8130	 3.5790
 5.8200	 3.6280
 5.8260	 3.7690
 5.8330	 3.8670
 5.8390	 3.9850
 5.8460	 4.0290
 5.8530	 4.1120
 5.8590	 4.0260
 5.8660	 4.1570
 5.8720	 4.2190
 5.8790	 4.1670
 5.8860	 4.1450
 5.8920	 4.2260
 5.8990	 4.1130
 5.9060	 4.2490
 5.9130	 4.2060
 5.9190	 4.1880
 5.9260	 4.1660
 5.9330	 4.1200
 5.9400	 3.9800
 5.9470	 3.9990
 5.9530	 3.9650
 5.9600	 4.0850
 5.9670	 3.9400
 5.9740	 3.8190
 5.9810	 3.7680
 5.9880	 3.8390
 5.9950	 3.8010
 6.0020	 3.7900
 6.0090	 3.6260
 6.0160	 3.5470
 6.0230	 3.5150
 6.0300	 3.7570
 6.0370	 3.6720
 6.0440	 3.5610
 6.0510	 3.3510
 6.0580	 3.4610
 6.0650	 3.5650
 6.0720	 3.6700
 6.0790	 3.6120
 6.0860	 3.6880
 6.0930	 3.5940
 6.1000	 3.6010
 6.1080	 3.6320
 6.1150	 3.6730
 6.1220	 3.6410
 6.1290	 3.6960
 6.1370	 3.7630
 6.1440	 3.7620
 6.1510	 3.6500
 6.1580	 3.7340
 6.1660	 3.7380
 6.1730	 3.7530
 6.1800	 3.6350
 6.1880	 3.6040
 6.1950	 3.6110
 6.2030	 3.7370
 6.2100	 3.7220
 6.2170	 3.8180
 6.2250	 3.7750
 6.2320	 3.7190
 6.2400	 3.6720
 6.2470	 3.7730
 6.2550	 3.7620
 6.2630	 3.9600
 6.2700	 4.0140
 6.2780	 4.0740
 6.2850	 4.0470
 6.2930	 4.0420
 6.3010	 4.0730
 6.3080	 4.2110
 6.3160	 4.1280
 6.3240	 4.1670
 6.3310	 4.2510
 6.3390	 4.3490
 6.3470	 4.2740
 6.3550	 4.3800
 6.3620	 4.3330
 6.3700	 4.3100
 6.3780	 4.3230
 6.3860	 4.3880
 6.3940	 4.3590
 6.4020	 4.4750
 6.4100	 4.3040
 6.4180	 4.2490
 6.4260	 4.4080
 6.4330	 4.6020
 6.4410	 4.4430
 6.4490	 4.4150
 6.4580	 4.3720
 6.4660	 4.4870
 6.4740	 4.4990
 6.4820	 4.3720
 6.4900	 4.2530
 6.4980	 4.3690
 6.5060	 4.3280
 6.5140	 4.3210
 6.5230	 4.2020
 6.5310	 4.2960
 6.5390	 4.3030
 6.5470	 4.3250
 6.5550	 4.1700
 6.5640	 4.0230
 6.5720	 3.8750
 6.5800	 3.8760
 6.5890	 3.6640
 6.5970	 3.6850
 6.6060	 3.6820
 6.6140	 3.7150
 6.6220	 3.7510
 6.6310	 3.8800
 6.6390	 3.7230
 6.6480	 3.7810
 6.6560	 3.8320
 6.6650	 3.9430
 6.6740	 3.9310
 6.6820	 3.9220
 6.6910	 4.0290
 6.6990	 4.2430
 6.7080	 4.1270
 6.7170	 4.0670
 6.7260	 3.9830
 6.7340	 4.0240
 6.7430	 3.9320
 6.7520	 3.8790
 6.7610	 3.7400
 6.7690	 3.8290
 6.7780	 3.8110
 6.7870	 3.7520
 6.7960	 3.5330
 6.8050	 3.5580
 6.8140	 3.5030
 6.8230	 3.5420
 6.8320	 3.5540
 6.8410	 3.5990
 6.8500	 3.3590
 6.8590	 3.3260
 6.8680	 3.2750
 6.8770	 3.4800
 6.8860	 3.4810
 6.8950	 3.5180
 6.9050	 3.3580
 6.9140	 3.3410
 6.9230	 3.4080
 6.9320	 3.6260
 6.9420	 3.4970
 6.9510	 3.4510
 6.9600	 3.3420
 6.9700	 3.3850
 6.9790	 3.3810
 6.9880	 3.4180
 6.9980	 3.3090
 7.0070	 3.4050
 7.0170	 3.4850
 7.0260	 3.5320
 7.0360	 3.3160
 7.0450	 3.4370
 7.0550	 3.4670
 7.0650	 3.4500
 7.0740	 3.4690
 7.0840	 3.6680
 7.0940	 3.5680
 7.1030	 3.5580
 7.1130	 3.5050
 7.1230	 3.5160
 7.1330	 3.5200
 7.1420	 3.6060
 7.1520	 3.4150
 7.1620	 3.4370
 7.1720	 3.3290
 7.1820	 3.3210
 7.1920	 3.1920
 7.2020	 3.1930
 7.2120	 3.0180
 7.2220	 2.9880
 7.2320	 2.9080
 7.2420	 2.8920
 7.2520	 2.7290
 7.2620	 2.8800
 7.2730	 2.9590
 7.2830	 3.1230
 7.2930	 3.1180
 7.3030	 3.0430
 7.3140	 2.9630
 7.3240	 3.1460
 7.3340	 3.1080
 7.3450	 3.2260
 7.3550	 3.1670
 7.3660	 3.2320
 7.3760	 3.2000
 7.3870	 3.3550
 7.3970	 3.3700
 7.4080	 3.4430
 7.4180	 3.3450
 7.4290	 3.3870
 7.4400	 3.2940
 7.4500	 3.3480
 7.4610	 3.2480
 7.4720	 3.3080
 7.4830	 3.2240
 7.4930	 3.2780
 7.5040	 3.4150
 7.5150	 3.4680
 7.5260	 3.1710
 7.5370	 3.1750
 7.5480	 3.1180
 7.5590	 3.1110
 7.5700	 2.9450
 7.5810	 2.9390
 7.5920	 3.0750
 7.6030	 3.3620
 7.6140	 3.2890
 7.6260	 3.2870
 7.6370	 3.0440
 7.6480	 2.9860
 7.6590	 3.1130
 7.6710	 3.2890
 7.6820	 3.1580
 7.6930	 3.2070
 7.7050	 3.1390
 7.7160	 3.1750
 7.7280	 3.0460
 7.7390	 3.0610
 7.7510	 3.0930
 7.7630	 3.2320
 7.7740	 3.0540
 7.7860	 2.9980
 7.7980	 2.8940
 7.8090	 2.9650
 7.8210	 2.8360
 7.8330	 2.9080
 7.8450	 2.8790
 7.8570	 2.8970
 7.8690	 2.8060
 7.8810	 2.8080
 7.8930	 2.7620
 7.9050	 2.9430
 7.9170	 2.7840
 7.9290	 2.8750
 7.9410	 2.7630
 7.9530	 2.6890
 7.9650	 2.6490
 7.9780	 2.8180
 7.9900	 2.6870
 8.0020	 2.8760
 8.0150	 2.8940
 8.0270	 2.7990
 8.0390	 2.5980
 8.0520	 2.6850
 8.0640	 2.6230
 8.0770	 2.7730
 8.0900	 2.6910
 8.1020	 2.8170
 8.1150	 2.7350
 8.1280	 2.9400
 8.1400	 2.9340
 8.1530	 2.9100
 8.1660	 2.6680
 8.1790	 2.7600
 8.1920	 2.7830
 8.2050	 3.0390
 8.2180	 2.9840
 8.2310	 3.0430
 8.2440	 3.1010
 8.2570	 3.2770
 8.2700	 3.0980
 8.2830	 3.2130
 8.2970	 3.2060
 8.3100	 3.4420
 8.3230	 3.2360
 8.3370	 3.1720
 8.3500	 3.1220
 8.3640	 3.2460
 8.3770	 3.0690
 8.3910	 3.1790
 8.4040	 3.1050
 8.4180	 3.2060
 8.4320	 3.0530
 8.4450	 3.1940
 8.4590	 3.2440
 8.4730	 3.4190
 8.4870	 2.9480
 8.5010	 2.8870
 8.5150	 3.0230
 8.5290	 3.2520
 8.5430	 3.0830
 8.5570	 3.0670
 8.5710	 2.9790
 8.5850	 3.0730
 8.5990	 2.8620
 8.6140	 3.0650
 8.6280	 3.0610
 8.6420	 3.1370
 8.6570	 2.9920
 8.6710	 3.1350
 8.6860	 3.0690
 8.7000	 3.2180
 8.7150	 3.0980
 8.7300	 3.2120
 8.7440	 2.9710
 8.7590	 2.9070
 8.7740	 2.9290
 8.7890	 3.1050
 8.8040	 2.9020
 8.8190	 3.1120
 8.8340	 3.1120
 8.8490	 3.1260
 8.8640	 2.8810
 8.8790	 2.8850
 8.8940	 2.7050
 8.9100	 2.8350
 8.9250	 2.9320
 8.9400	 3.0670
 8.9560	 2.6970
 8.9710	 2.7970
 8.9870	 2.9200
 9.0020	 3.0390
 9.0180	 2.8710
 9.0340	 3.1860
 9.0500	 2.9810
 9.0650	 3.0290
 9.0810	 2.9750
 9.0970	 3.2780
 9.1130	 3.1960
 9.1290	 3.1150
 9.1450	 2.9710
 9.1610	 3.4020
 9.1780	 3.3590
 9.1940	 3.4930
 9.2100	 3.2210
 9.2270	 3.3030
 9.2430	 3.2470
 9.2600	 3.4520
 9.2760	 3.4000
 9.2930	 3.7290
 9.3090	 3.5560
 9.3260	 3.5270
 9.3430	 3.2460
 9.3600	 3.3510
 9.3770	 3.4310
 9.3940	 3.6470
 9.4110	 3.5390
 9.4280	 3.7340
 9.4450	 3.7170
 9.4620	 4.1010
 9.4800	 4.0780
 9.4970	 4.0480
 9.5140	 3.8590
 9.5320	 4.1800
 9.5500	 4.1590
 9.5670	 4.2550
 9.5850	 3.9690
 9.6030	 4.1080
 9.6200	 4.0790
 9.6380	 4.2570
 9.6560	 4.1900
 9.6740	 4.3390
 9.6920	 4.2040
 9.7100	 4.4770
 9.7290	 4.5290
 9.7470	 4.5750
 9.7650	 4.3720
 9.7840	 4.5730
 9.8020	 4.4900
 9.8210	 4.4580
 9.8390	 4.4400
 9.8580	 4.9490
 9.8770	 4.6850
 9.8960	 4.7550
 9.9150	 4.7650
 9.9340	 4.7950
 9.9530	 4.4940
 9.9720	 4.7870
 9.9910	 4.8180
10.0100	 4.9290
10.0300	 4.6780
10.0490	 4.6240
10.0690	 4.3590
10.0880	 4.4940
10.1080	 4.4700
10.1280	 4.8550
10.1480	 4.9030
10.1670	 4.9880
10.1870	 4.8320
10.2070	 5.0410
10.2280	 4.8720
10.2480	 5.0150
10.2680	 4.9700
10.2890	 5.0940
10.3090	 5.0110
10.3300	 5.2280
10.3500	 5.2670
10.3710	 5.4060
10.3920	 5.2720
10.4120	 5.5610
10.4330	 5.4470
10.4540	 5.6180
10.4760	 5.4670
10.4970	 5.6870
10.5180	 5.6320
10.5390	 5.7410
10.5610	 5.5880
10.5820	 5.7840
10.6040	 5.6880
10.6260	 5.8720
10.6480	 5.6670
10.6700	 5.6560
10.6920	 5.5600
10.7140	 5.7310
10.7360	 5.4790
10.7580	 5.5210
10.7800	 5.3990
10.8030	 5.4750
10.8250	 5.3930
10.8480	 5.5930
10.8710	 5.4710
10.8940	 5.6250
10.9170	 5.3640
10.9400	 5.3730
10.9630	 5.1780
10.9860	 5.4540
11.0090	 5.1310
11.0330	 5.1150
11.0560	 5.0150
11.0800	 5.1680
11.1040	 4.9120
11.1270	 5.0320
11.1510	 4.8610
11.1750	 5.1370
11.2000	 5.0560
11.2240	 5.1280
11.2480	 5.0500
11.2730	 5.2770
11.2970	 5.0230
11.3220	 5.2360
11.3470	 5.2870
11.3720	 5.4740
11.3970	 5.1870
11.4220	 5.1670
11.4470	 5.0110
11.4720	 5.3430
11.4980	 4.9220
11.5230	 5.0410
11.5490	 4.8710
11.5750	 5.0550
11.6000	 4.9600
11.6260	 4.9380
11.6530	 4.7600
11.6790	 5.0030
11.7050	 4.8170
11.7320	 4.8090
11.7580	 4.7070
11.7850	 4.9980
11.8120	 4.5630
11.8390	 4.5340
11.8660	 4.4960
11.8930	 4.8020
11.9200	 4.4920
11.9480	 4.5930
11.9760	 4.5200
12.0030	 4.8420
12.0310	 4.6750
12.0590	 4.8510
12.0870	 4.4720
12.1150	 4.7380
12.1440	 4.6730
12.1720	 4.8450
12.2010	 4.6550
12.2300	 4.9270
12.2590	 4.4980
12.2880	 4.5090
12.3170	 4.3700
12.3460	 4.5590
12.3760	 4.2500
12.4050	 4.3160
12.4350	 4.0520
12.4650	 4.5630
12.4950	 4.7120
12.5250	 4.9240
12.5550	 4.6010
12.5860	 4.6540
12.6170	 4.1630
12.6470	 4.3300
12.6780	 4.3230
12.7090	 4.4900
12.7410	 4.2050
12.7720	 4.5160
12.8030	 4.2120
12.8350	 4.4350
12.8670	 4.4110
12.8990	 4.7110
12.9310	 4.4410
12.9640	 4.5030
12.9960	 4.1210
13.0290	 4.4200
13.0610	 4.2170
13.0940	 4.4670
13.1280	 4.3720
13.1610	 4.6480
13.1940	 4.4900
13.2280	 4.6150
13.2620	 4.1780
13.2960	 4.3120
13.3300	 4.0420
13.3640	 4.4350
13.3990	 4.2690
13.4340	 4.4340
13.4690	 3.9180
13.5040	 4.2480
13.5390	 4.1710
13.5740	 4.5940
13.6100	 4.1490
13.6460	 4.5820
13.6820	 4.6110
13.7180	 4.5400
13.7540	 4.3050
13.7910	 4.7160
13.8280	 4.1190
13.8650	 4.5080
13.9020	 4.3760
13.9390	 4.2550
13.9770	 3.8520
14.0150	 4.4570
14.0530	 4.2000
14.0910	 4.3840
14.1290	 3.9770
14.1680	 4.3620
14.2070	 3.8750
14.2460	 4.1160
14.2850	 4.0510
14.3240	 4.6520
14.3640	 3.8680
14.4040	 4.1430
14.4440	 3.7170
14.4840	 3.8420
14.5250	 3.7190
14.5660	 4.7010
14.6070	 4.4520
14.6480	 4.4900
14.6900	 3.8610
14.7310	 3.9530
14.7730	 3.2380
14.8150	 3.9870
14.8580	 3.5360
14.9010	 4.2810
14.9440	 3.5090
14.9870	 3.4680
15.0300	 3.0370
15.0740	 3.9350
15.1180	 3.7510
15.1620	 4.7220
15.2060	 3.9140
15.2510	 4.4150
15.2960	 3.8030
15.3410	 4.3850
15.3870	 3.1660
