Name: Salvia leucophylla 3
Type: vegetation
Class: Shrub
Genus: Salvia
Species: leucophylla
Sample No.: VH191
Owner: UCSB
Wavelength Range: TIR
Origin: 34.698; -120.0477; WGS84
Collection Date: 6/9/2013
Description: Samples were collected as part of the HyspIRI Airborne Campaign. 48 individual plants were sampled in three times in 2013 - spring  summer  and fall. The name of the sample includes a 1  2  or 3 which references a different individual of the species. Samples were taken to JPL and processed within 48 hours of collection. The same leaves were processed in the Nicolet and then measured using the ASD.
Measurement: Hemispherical reflectance
First Column: X
Second Column: Y
X Units: Wavelength (micrometers)
Y Units: Reflectance (percentage)
First X Value: 2.501
Last X Value: 15.387
Number of X Values: 1737
Additional Information: vegetation.shrub.salvia.leucophylla.tir.vh191.ucsb.nicolet.ancillary.txt

 2.5010	19.7900
 2.5030	19.7410
 2.5040	19.7900
 2.5050	19.6940
 2.5060	19.7050
 2.5070	19.6880
 2.5090	19.6640
 2.5100	19.6400
 2.5110	19.6560
 2.5120	19.5280
 2.5140	19.4120
 2.5150	19.4770
 2.5160	19.5690
 2.5170	19.7030
 2.5180	19.8640
 2.5200	19.6270
 2.5210	19.4800
 2.5220	19.4810
 2.5230	19.6090
 2.5250	19.7280
 2.5260	19.6650
 2.5270	19.5510
 2.5280	19.5930
 2.5290	19.5930
 2.5310	19.6090
 2.5320	19.4960
 2.5330	19.5750
 2.5340	19.7610
 2.5360	19.8930
 2.5370	19.8250
 2.5380	19.7860
 2.5390	19.7530
 2.5410	19.9790
 2.5420	20.1450
 2.5430	20.1360
 2.5440	20.0660
 2.5460	20.1130
 2.5470	20.0400
 2.5480	19.9310
 2.5490	19.7210
 2.5510	19.7940
 2.5520	20.0000
 2.5530	20.0780
 2.5540	20.1130
 2.5560	20.1400
 2.5570	19.9990
 2.5580	19.9220
 2.5590	19.9740
 2.5610	20.0870
 2.5620	20.1590
 2.5630	20.2960
 2.5640	20.2390
 2.5660	20.1080
 2.5670	20.1060
 2.5680	20.1700
 2.5700	20.1280
 2.5710	20.0750
 2.5720	20.0070
 2.5730	20.0300
 2.5750	20.1460
 2.5760	20.2470
 2.5770	20.4470
 2.5790	20.3680
 2.5800	20.2540
 2.5810	20.1550
 2.5820	20.0480
 2.5840	20.0490
 2.5850	19.8640
 2.5860	19.8640
 2.5880	19.8560
 2.5890	20.0630
 2.5900	20.1460
 2.5910	20.0660
 2.5930	20.1870
 2.5940	20.0470
 2.5950	19.8450
 2.5970	19.9770
 2.5980	19.9750
 2.5990	20.0480
 2.6000	19.9590
 2.6020	19.8220
 2.6030	19.6160
 2.6040	19.5430
 2.6060	19.5360
 2.6070	19.4820
 2.6080	19.5570
 2.6100	19.6280
 2.6110	19.4910
 2.6120	19.4770
 2.6140	19.5720
 2.6150	19.5320
 2.6160	19.3840
 2.6180	19.2230
 2.6190	19.1220
 2.6200	19.1420
 2.6220	19.0250
 2.6230	19.0400
 2.6240	19.1120
 2.6260	18.9730
 2.6270	18.5910
 2.6280	18.5530
 2.6300	18.7050
 2.6310	18.7910
 2.6320	18.6850
 2.6340	18.5690
 2.6350	18.3260
 2.6360	18.1160
 2.6380	18.0780
 2.6390	18.1450
 2.6400	18.1940
 2.6420	18.2380
 2.6430	18.1030
 2.6440	17.9180
 2.6460	17.7330
 2.6470	17.7090
 2.6480	17.6010
 2.6500	17.4060
 2.6510	17.1800
 2.6520	17.0650
 2.6540	17.0420
 2.6550	17.1040
 2.6560	17.0740
 2.6580	16.9050
 2.6590	16.6670
 2.6610	16.6840
 2.6620	16.5580
 2.6630	16.5390
 2.6650	16.5420
 2.6660	16.4220
 2.6670	16.1870
 2.6690	16.2140
 2.6700	15.9320
 2.6720	15.5540
 2.6730	15.4550
 2.6740	15.2800
 2.6760	15.0670
 2.6770	15.1720
 2.6780	15.1390
 2.6800	14.9010
 2.6810	14.7720
 2.6830	14.6790
 2.6840	14.5020
 2.6850	14.3770
 2.6870	14.1750
 2.6880	13.9790
 2.6900	13.8150
 2.6910	13.7440
 2.6920	13.5340
 2.6940	13.3380
 2.6950	13.0560
 2.6970	12.9300
 2.6980	12.8120
 2.6990	12.7690
 2.7010	12.4320
 2.7020	12.1160
 2.7040	11.7930
 2.7050	11.6840
 2.7060	11.5640
 2.7080	11.4330
 2.7090	11.1940
 2.7110	11.1490
 2.7120	10.9740
 2.7130	10.7290
 2.7150	10.5500
 2.7160	10.5530
 2.7180	10.5110
 2.7190	10.4410
 2.7210	10.2620
 2.7220	10.2710
 2.7230	10.0320
 2.7250	 9.5470
 2.7260	 9.2760
 2.7280	 9.4340
 2.7290	 9.5210
 2.7310	 9.3790
 2.7320	 9.2060
 2.7330	 9.2910
 2.7350	 9.2450
 2.7360	 8.9370
 2.7380	 8.8180
 2.7390	 8.6210
 2.7410	 8.1640
 2.7420	 8.1480
 2.7440	 7.9810
 2.7450	 7.8570
 2.7470	 7.9940
 2.7480	 7.6280
 2.7490	 7.3950
 2.7510	 7.7230
 2.7520	 7.9440
 2.7540	 7.6940
 2.7550	 7.5570
 2.7570	 7.5550
 2.7580	 7.3580
 2.7600	 7.1880
 2.7610	 7.0160
 2.7630	 6.9120
 2.7640	 6.7990
 2.7660	 6.8970
 2.7670	 6.9210
 2.7680	 6.8680
 2.7700	 6.6090
 2.7710	 6.5300
 2.7730	 6.5010
 2.7740	 6.3330
 2.7760	 6.1060
 2.7770	 6.1590
 2.7790	 6.2010
 2.7800	 6.0400
 2.7820	 5.8040
 2.7830	 5.8810
 2.7850	 5.9470
 2.7860	 5.8220
 2.7880	 5.7380
 2.7890	 5.7810
 2.7910	 5.6060
 2.7920	 5.6030
 2.7940	 5.7420
 2.7950	 5.6480
 2.7970	 5.4540
 2.7980	 5.4420
 2.8000	 5.2860
 2.8010	 5.0100
 2.8030	 4.8690
 2.8040	 5.0460
 2.8060	 4.9830
 2.8070	 4.9390
 2.8090	 4.9820
 2.8110	 4.9780
 2.8120	 4.9280
 2.8140	 4.7060
 2.8150	 4.4540
 2.8170	 4.5680
 2.8180	 4.8540
 2.8200	 4.8900
 2.8210	 4.6370
 2.8230	 4.3960
 2.8240	 4.3680
 2.8260	 4.2620
 2.8270	 4.2560
 2.8290	 4.5650
 2.8300	 4.7970
 2.8320	 4.6150
 2.8340	 4.3210
 2.8350	 4.2210
 2.8370	 4.1280
 2.8380	 4.0470
 2.8400	 4.0320
 2.8410	 4.0690
 2.8430	 3.9560
 2.8440	 3.9010
 2.8460	 3.8970
 2.8480	 4.0620
 2.8490	 4.1550
 2.8510	 4.1420
 2.8520	 3.9220
 2.8540	 3.8580
 2.8550	 3.7830
 2.8570	 3.7940
 2.8590	 3.7280
 2.8600	 3.6960
 2.8620	 3.6490
 2.8630	 3.4800
 2.8650	 3.3890
 2.8660	 3.6040
 2.8680	 3.8140
 2.8700	 3.8090
 2.8710	 3.6150
 2.8730	 3.7350
 2.8740	 3.5800
 2.8760	 3.2240
 2.8780	 3.2940
 2.8790	 3.3650
 2.8810	 3.1190
 2.8820	 3.4300
 2.8840	 3.7630
 2.8860	 3.5310
 2.8870	 3.3410
 2.8890	 3.3940
 2.8900	 3.0800
 2.8920	 3.0930
 2.8940	 3.1810
 2.8950	 3.3320
 2.8970	 3.4120
 2.8980	 3.4190
 2.9000	 3.3060
 2.9020	 3.2500
 2.9030	 3.1700
 2.9050	 3.3280
 2.9070	 3.5240
 2.9080	 3.4000
 2.9100	 3.1460
 2.9120	 3.0810
 2.9130	 3.1050
 2.9150	 3.1120
 2.9160	 3.0580
 2.9180	 3.2150
 2.9200	 3.1140
 2.9210	 3.0700
 2.9230	 3.1370
 2.9250	 3.0680
 2.9260	 3.0090
 2.9280	 3.1760
 2.9300	 3.2830
 2.9310	 3.2380
 2.9330	 3.1350
 2.9350	 2.9780
 2.9360	 2.9900
 2.9380	 3.0970
 2.9400	 3.1000
 2.9410	 3.3920
 2.9430	 3.6000
 2.9450	 3.3630
 2.9460	 2.8300
 2.9480	 2.6100
 2.9500	 2.9580
 2.9510	 3.4640
 2.9530	 3.8310
 2.9550	 3.6650
 2.9560	 2.9680
 2.9580	 2.4070
 2.9600	 3.0540
 2.9610	 3.5440
 2.9630	 3.2900
 2.9650	 2.2840
 2.9660	 2.4210
 2.9680	 1.9200
 2.9700	 1.9440
 2.9720	 3.6280
 2.9730	 3.1750
 2.9750	 1.3840
 2.9770	 1.0410
 2.9780	 2.3560
 2.9800	 3.2270
 2.9820	 4.0690
 2.9840	 4.0550
 2.9850	 3.5670
 2.9870	 2.1370
 2.9890	 2.6040
 2.9900	 4.7280
 2.9920	 4.7830
 2.9940	 4.1400
 2.9960	 5.8040
 2.9970	 4.9470
 2.9990	 3.8630
 3.0010	 3.5850
 3.0030	 3.6590
 3.0040	 3.8780
 3.0060	 3.6320
 3.0080	 2.9810
 3.0100	 2.7160
 3.0110	 3.2000
 3.0130	 3.8380
 3.0150	 3.1450
 3.0170	 3.0970
 3.0180	 3.6250
 3.0200	 4.1140
 3.0220	 4.1210
 3.0240	 3.8080
 3.0250	 3.7930
 3.0270	 3.6390
 3.0290	 3.3590
 3.0310	 3.5000
 3.0320	 4.1320
 3.0340	 4.3770
 3.0360	 4.0390
 3.0380	 3.7130
 3.0400	 4.3000
 3.0410	 4.2540
 3.0430	 4.1120
 3.0450	 4.6460
 3.0470	 3.7630
 3.0480	 5.0870
 3.0500	 4.5380
 3.0520	 3.9270
 3.0540	 5.0710
 3.0560	 6.4140
 3.0570	 6.1170
 3.0590	 3.7180
 3.0610	 1.7810
 3.0630	 3.5910
 3.0650	 5.1110
 3.0660	 4.5280
 3.0680	 4.8330
 3.0700	 5.0490
 3.0720	 4.5350
 3.0740	 4.1120
 3.0760	 3.9190
 3.0770	 4.3430
 3.0790	 4.2180
 3.0810	 4.0720
 3.0830	 4.0020
 3.0850	 4.1660
 3.0870	 4.2420
 3.0880	 4.4290
 3.0900	 4.4070
 3.0920	 4.3090
 3.0940	 4.3350
 3.0960	 4.4850
 3.0980	 4.4030
 3.0990	 4.3500
 3.1010	 4.1590
 3.1030	 4.3080
 3.1050	 4.6190
 3.1070	 4.7970
 3.1090	 4.4430
 3.1110	 4.2590
 3.1120	 4.1350
 3.1140	 4.2270
 3.1160	 3.8730
 3.1180	 3.9540
 3.1200	 4.7640
 3.1220	 5.1320
 3.1240	 4.9790
 3.1260	 4.7630
 3.1270	 4.9480
 3.1290	 5.2270
 3.1310	 4.6420
 3.1330	 4.9130
 3.1350	 5.6390
 3.1370	 5.1490
 3.1390	 3.8370
 3.1410	 4.4140
 3.1430	 5.6950
 3.1450	 5.4750
 3.1460	 5.0770
 3.1480	 5.4640
 3.1500	 5.5720
 3.1520	 5.2740
 3.1540	 5.2600
 3.1560	 5.0050
 3.1580	 4.2810
 3.1600	 3.7960
 3.1620	 2.7750
 3.1640	 3.7580
 3.1660	 5.6020
 3.1680	 5.1290
 3.1700	 5.5380
 3.1710	 7.5170
 3.1730	 7.2190
 3.1750	 6.1670
 3.1770	 4.8340
 3.1790	 4.2750
 3.1810	 5.8980
 3.1830	 6.3520
 3.1850	 5.3000
 3.1870	 5.0270
 3.1890	 5.2110
 3.1910	 5.0400
 3.1930	 5.2310
 3.1950	 5.3330
 3.1970	 5.3040
 3.1990	 5.2270
 3.2010	 5.3710
 3.2030	 5.4490
 3.2050	 5.4570
 3.2070	 5.4960
 3.2090	 5.2900
 3.2110	 5.1170
 3.2130	 5.3510
 3.2150	 5.4670
 3.2170	 5.3850
 3.2190	 5.5390
 3.2210	 5.4400
 3.2230	 5.4470
 3.2250	 5.4290
 3.2270	 5.3260
 3.2290	 4.9940
 3.2310	 4.8940
 3.2330	 5.1210
 3.2350	 5.3840
 3.2370	 5.3350
 3.2390	 5.2550
 3.2410	 5.4340
 3.2430	 5.4530
 3.2450	 5.1390
 3.2470	 4.9580
 3.2490	 5.0040
 3.2510	 5.4660
 3.2530	 5.6270
 3.2550	 5.7990
 3.2570	 5.8700
 3.2590	 5.7460
 3.2610	 5.6450
 3.2630	 5.5190
 3.2650	 5.1030
 3.2670	 4.8900
 3.2690	 5.1840
 3.2720	 5.6920
 3.2740	 5.8440
 3.2760	 5.8050
 3.2780	 5.5580
 3.2800	 5.4620
 3.2820	 5.3560
 3.2840	 5.2810
 3.2860	 5.3630
 3.2880	 5.5130
 3.2900	 5.4350
 3.2920	 5.4490
 3.2940	 5.4880
 3.2960	 5.5180
 3.2990	 5.5670
 3.3010	 5.3370
 3.3030	 5.2140
 3.3050	 5.3410
 3.3070	 5.3170
 3.3090	 5.1440
 3.3110	 4.8250
 3.3130	 4.8510
 3.3150	 4.9900
 3.3180	 5.2170
 3.3200	 5.2720
 3.3220	 5.0740
 3.3240	 4.9300
 3.3260	 4.7960
 3.3280	 4.7870
 3.3300	 4.9030
 3.3330	 4.7790
 3.3350	 4.6720
 3.3370	 4.5700
 3.3390	 4.3710
 3.3410	 4.2630
 3.3430	 4.2930
 3.3450	 3.9240
 3.3480	 3.7610
 3.3500	 3.7850
 3.3520	 3.7640
 3.3540	 3.6730
 3.3560	 3.7230
 3.3580	 3.7150
 3.3610	 3.6430
 3.3630	 3.6800
 3.3650	 3.6030
 3.3670	 3.3270
 3.3690	 3.1820
 3.3720	 3.0290
 3.3740	 2.9510
 3.3760	 3.0620
 3.3780	 3.1420
 3.3800	 2.8390
 3.3830	 2.8150
 3.3850	 3.0390
 3.3870	 3.0350
 3.3890	 2.5480
 3.3910	 2.4250
 3.3940	 2.5290
 3.3960	 2.5920
 3.3980	 2.3310
 3.4000	 2.5110
 3.4020	 2.5830
 3.4050	 2.4320
 3.4070	 2.3800
 3.4090	 2.3490
 3.4110	 2.2970
 3.4140	 2.3450
 3.4160	 2.4520
 3.4180	 2.5620
 3.4200	 2.5760
 3.4230	 2.6710
 3.4250	 2.8050
 3.4270	 3.0510
 3.4290	 3.0850
 3.4320	 3.0790
 3.4340	 2.9540
 3.4360	 2.9620
 3.4390	 3.1170
 3.4410	 3.1100
 3.4430	 3.0780
 3.4450	 3.4040
 3.4480	 3.4350
 3.4500	 3.4110
 3.4520	 3.3260
 3.4550	 3.7060
 3.4570	 3.8150
 3.4590	 3.5160
 3.4620	 3.6680
 3.4640	 3.8950
 3.4660	 3.9520
 3.4680	 4.0520
 3.4710	 4.0790
 3.4730	 3.9390
 3.4750	 3.7860
 3.4780	 3.6150
 3.4800	 3.5530
 3.4820	 3.6240
 3.4850	 3.5220
 3.4870	 3.5730
 3.4890	 3.5690
 3.4920	 3.5190
 3.4940	 3.5290
 3.4970	 3.4470
 3.4990	 3.2030
 3.5010	 3.1110
 3.5040	 3.4120
 3.5060	 3.7310
 3.5080	 3.7010
 3.5110	 3.8910
 3.5130	 4.2060
 3.5160	 4.3680
 3.5180	 4.6300
 3.5200	 5.0030
 3.5230	 5.1450
 3.5250	 5.0780
 3.5270	 5.2650
 3.5300	 5.5950
 3.5320	 5.7360
 3.5350	 5.9000
 3.5370	 6.0220
 3.5400	 6.1430
 3.5420	 6.1420
 3.5440	 6.0350
 3.5470	 6.1340
 3.5490	 6.3220
 3.5520	 6.4620
 3.5540	 6.6450
 3.5570	 6.6940
 3.5590	 6.7000
 3.5610	 6.6380
 3.5640	 6.7640
 3.5660	 6.8330
 3.5690	 6.8720
 3.5710	 6.9330
 3.5740	 6.9800
 3.5760	 6.9230
 3.5790	 6.8880
 3.5810	 6.8430
 3.5840	 6.8790
 3.5860	 6.8220
 3.5890	 7.1130
 3.5910	 7.3530
 3.5930	 7.1960
 3.5960	 7.3730
 3.5980	 7.5820
 3.6010	 7.5400
 3.6030	 7.5410
 3.6060	 7.4930
 3.6080	 7.5000
 3.6110	 7.3660
 3.6140	 7.2170
 3.6160	 7.3050
 3.6190	 7.4120
 3.6210	 7.4620
 3.6240	 7.4100
 3.6260	 7.3620
 3.6290	 7.3970
 3.6310	 7.2530
 3.6340	 7.3410
 3.6360	 7.3730
 3.6390	 7.4420
 3.6410	 7.5540
 3.6440	 7.5870
 3.6470	 7.5450
 3.6490	 7.4870
 3.6520	 7.4550
 3.6540	 7.4730
 3.6570	 7.5710
 3.6590	 7.6330
 3.6620	 7.5630
 3.6650	 7.4780
 3.6670	 7.5200
 3.6700	 7.6160
 3.6720	 7.5950
 3.6750	 7.5890
 3.6780	 7.6140
 3.6800	 7.6340
 3.6830	 7.6090
 3.6850	 7.6880
 3.6880	 7.7030
 3.6910	 7.7340
 3.6930	 7.7360
 3.6960	 7.7150
 3.6990	 7.6580
 3.7010	 7.7690
 3.7040	 7.8210
 3.7060	 7.8760
 3.7090	 7.8930
 3.7120	 7.8760
 3.7140	 7.8070
 3.7170	 7.7850
 3.7200	 7.7680
 3.7220	 7.8610
 3.7250	 7.8720
 3.7280	 7.9130
 3.7300	 8.1450
 3.7330	 8.1840
 3.7360	 8.0690
 3.7390	 7.9680
 3.7410	 7.8720
 3.7440	 7.9570
 3.7470	 8.0100
 3.7490	 8.1150
 3.7520	 8.0820
 3.7550	 7.9910
 3.7580	 7.8820
 3.7600	 8.0800
 3.7630	 8.2070
 3.7660	 8.1160
 3.7680	 7.9580
 3.7710	 8.0920
 3.7740	 8.2520
 3.7770	 8.1210
 3.7790	 8.0390
 3.7820	 8.2330
 3.7850	 8.2680
 3.7880	 8.2220
 3.7900	 8.2510
 3.7930	 8.3540
 3.7960	 8.4850
 3.7990	 8.5540
 3.8020	 8.3090
 3.8040	 8.2400
 3.8070	 8.3410
 3.8100	 8.3310
 3.8130	 8.2460
 3.8160	 8.3780
 3.8180	 8.5210
 3.8210	 8.5840
 3.8240	 8.6500
 3.8270	 8.6120
 3.8300	 8.5300
 3.8330	 8.4700
 3.8350	 8.4200
 3.8380	 8.6220
 3.8410	 8.6570
 3.8440	 8.5750
 3.8470	 8.4730
 3.8500	 8.6790
 3.8520	 8.9080
 3.8550	 8.9310
 3.8580	 8.8140
 3.8610	 8.8100
 3.8640	 8.7820
 3.8670	 8.7790
 3.8700	 8.9210
 3.8730	 9.0390
 3.8750	 8.9750
 3.8780	 8.9590
 3.8810	 9.0170
 3.8840	 9.1590
 3.8870	 9.1170
 3.8900	 9.0800
 3.8930	 9.0850
 3.8960	 9.0830
 3.8990	 9.1280
 3.9020	 9.2330
 3.9050	 9.2810
 3.9080	 9.2810
 3.9110	 9.2220
 3.9140	 9.2270
 3.9160	 9.2340
 3.9190	 9.2930
 3.9220	 9.3240
 3.9250	 9.3460
 3.9280	 9.3940
 3.9310	 9.5010
 3.9340	 9.4830
 3.9370	 9.4530
 3.9400	 9.4600
 3.9430	 9.4480
 3.9460	 9.4940
 3.9490	 9.5460
 3.9520	 9.6080
 3.9550	 9.6290
 3.9580	 9.5970
 3.9610	 9.6530
 3.9640	 9.6890
 3.9670	 9.6920
 3.9700	 9.7360
 3.9730	 9.7460
 3.9770	 9.7580
 3.9800	 9.8300
 3.9830	 9.8610
 3.9860	 9.9520
 3.9890	10.0160
 3.9920	 9.9840
 3.9950	10.0120
 3.9980	10.1270
 4.0010	10.1710
 4.0040	10.1760
 4.0070	10.1820
 4.0100	10.3130
 4.0130	10.3820
 4.0170	10.3820
 4.0200	10.3430
 4.0230	10.2990
 4.0260	10.2660
 4.0290	10.3480
 4.0320	10.4240
 4.0350	10.4800
 4.0380	10.5820
 4.0420	10.6390
 4.0450	10.5880
 4.0480	10.5550
 4.0510	10.5920
 4.0540	10.6080
 4.0570	10.7080
 4.0610	10.8070
 4.0640	10.8090
 4.0670	10.8150
 4.0700	10.7620
 4.0730	10.8710
 4.0770	11.0130
 4.0800	11.0490
 4.0830	10.9560
 4.0860	10.7470
 4.0890	10.7610
 4.0930	10.9650
 4.0960	11.0420
 4.0990	11.0580
 4.1020	11.1400
 4.1060	11.1370
 4.1090	11.1390
 4.1120	11.1820
 4.1150	11.1890
 4.1190	11.2700
 4.1220	11.2510
 4.1250	11.2270
 4.1280	11.2450
 4.1320	11.2740
 4.1350	11.2400
 4.1380	11.2740
 4.1420	11.3190
 4.1450	11.3490
 4.1480	11.3530
 4.1520	11.3720
 4.1550	11.4120
 4.1580	11.4490
 4.1620	11.3800
 4.1650	11.4380
 4.1680	11.4820
 4.1720	11.4830
 4.1750	11.3840
 4.1780	11.3710
 4.1820	11.3980
 4.1850	11.5250
 4.1890	11.5800
 4.1920	11.4400
 4.1950	11.2870
 4.1990	11.2890
 4.2020	11.2340
 4.2060	11.1390
 4.2090	11.0070
 4.2120	10.9210
 4.2160	10.8010
 4.2190	10.6180
 4.2230	10.5140
 4.2260	10.2070
 4.2300	10.1130
 4.2330	10.4070
 4.2360	10.2350
 4.2400	10.0820
 4.2430	10.0790
 4.2470	10.1310
 4.2500	10.3570
 4.2540	10.7900
 4.2570	11.0300
 4.2610	11.0560
 4.2640	10.8670
 4.2680	10.5130
 4.2710	10.4640
 4.2750	10.5480
 4.2780	10.4730
 4.2820	10.5310
 4.2850	10.6610
 4.2890	10.7020
 4.2930	10.7450
 4.2960	10.8390
 4.3000	10.8670
 4.3030	10.8020
 4.3070	10.7840
 4.3100	10.8440
 4.3140	10.9060
 4.3180	11.0590
 4.3210	11.1050
 4.3250	11.1090
 4.3280	11.2360
 4.3320	11.3890
 4.3360	11.3110
 4.3390	11.2740
 4.3430	11.3000
 4.3470	11.3310
 4.3500	11.3880
 4.3540	11.3930
 4.3570	11.4000
 4.3610	11.4120
 4.3650	11.3930
 4.3680	11.4190
 4.3720	11.3930
 4.3760	11.3600
 4.3800	11.3930
 4.3830	11.4510
 4.3870	11.4260
 4.3910	11.3850
 4.3940	11.3970
 4.3980	11.3870
 4.4020	11.3960
 4.4060	11.4540
 4.4090	11.4870
 4.4130	11.4380
 4.4170	11.4380
 4.4210	11.4640
 4.4240	11.3890
 4.4280	11.3160
 4.4320	11.3670
 4.4360	11.4280
 4.4400	11.3900
 4.4430	11.3360
 4.4470	11.3060
 4.4510	11.3110
 4.4550	11.2900
 4.4590	11.3030
 4.4620	11.3240
 4.4660	11.3210
 4.4700	11.3290
 4.4740	11.3730
 4.4780	11.3800
 4.4820	11.3430
 4.4860	11.3130
 4.4900	11.3220
 4.4930	11.3180
 4.4970	11.2570
 4.5010	11.3270
 4.5050	11.3510
 4.5090	11.2550
 4.5130	11.1850
 4.5170	11.1390
 4.5210	11.1830
 4.5250	11.2170
 4.5290	11.2240
 4.5330	11.2010
 4.5370	11.2200
 4.5410	11.1960
 4.5450	11.1740
 4.5490	11.1170
 4.5530	11.0890
 4.5570	11.0070
 4.5610	10.9410
 4.5650	11.0200
 4.5690	11.0700
 4.5730	11.1000
 4.5770	11.0360
 4.5810	11.0270
 4.5850	11.1410
 4.5890	11.1540
 4.5930	11.0910
 4.5970	11.1100
 4.6010	10.9710
 4.6050	10.9110
 4.6090	10.9660
 4.6130	10.9510
 4.6170	11.1030
 4.6220	11.1400
 4.6260	10.7240
 4.6300	10.7830
 4.6340	11.0610
 4.6380	10.9140
 4.6420	10.8580
 4.6460	10.9290
 4.6510	11.0660
 4.6550	11.0780
 4.6590	11.0610
 4.6630	11.0830
 4.6670	11.0540
 4.6720	11.0000
 4.6760	10.9810
 4.6800	10.9920
 4.6840	10.9460
 4.6880	10.9550
 4.6930	10.9470
 4.6970	10.9220
 4.7010	10.9210
 4.7050	11.0310
 4.7100	11.1270
 4.7140	11.1400
 4.7180	11.0600
 4.7230	11.0200
 4.7270	11.0890
 4.7310	11.1860
 4.7360	11.1870
 4.7400	11.0970
 4.7440	11.0810
 4.7490	11.1440
 4.7530	11.2080
 4.7570	11.0860
 4.7620	11.0200
 4.7660	11.0570
 4.7700	11.0080
 4.7750	11.0930
 4.7790	11.3920
 4.7840	11.3730
 4.7880	11.0130
 4.7920	10.8380
 4.7970	10.9220
 4.8010	10.9060
 4.8060	10.7900
 4.8100	10.9270
 4.8150	11.0700
 4.8190	11.0590
 4.8240	11.0570
 4.8280	11.0980
 4.8330	11.1160
 4.8370	11.2640
 4.8420	11.3260
 4.8460	11.3020
 4.8510	11.2580
 4.8550	11.2780
 4.8600	11.3080
 4.8640	11.3100
 4.8690	11.2850
 4.8730	11.3100
 4.8780	11.2560
 4.8830	11.2470
 4.8870	11.3150
 4.8920	11.3430
 4.8960	11.2570
 4.9010	11.3320
 4.9060	11.3960
 4.9100	11.3020
 4.9150	11.2550
 4.9200	11.3000
 4.9240	11.3420
 4.9290	11.4100
 4.9340	11.4170
 4.9380	11.4130
 4.9430	11.3870
 4.9480	11.4280
 4.9530	11.4780
 4.9570	11.5500
 4.9620	11.5330
 4.9670	11.5060
 4.9720	11.5300
 4.9760	11.6000
 4.9810	11.6290
 4.9860	11.5820
 4.9910	11.5880
 4.9960	11.6510
 5.0000	11.6180
 5.0050	11.6190
 5.0100	11.7320
 5.0150	11.7350
 5.0200	11.6980
 5.0250	11.7850
 5.0290	11.7890
 5.0340	11.8300
 5.0390	11.8350
 5.0440	11.7600
 5.0490	11.7630
 5.0540	11.8480
 5.0590	11.8500
 5.0640	11.9070
 5.0690	11.8710
 5.0740	11.8500
 5.0790	11.8940
 5.0840	11.9930
 5.0890	12.0260
 5.0940	11.9860
 5.0990	11.9570
 5.1040	11.9180
 5.1090	11.8360
 5.1140	11.8470
 5.1190	11.9460
 5.1240	12.0400
 5.1290	12.0030
 5.1340	11.9120
 5.1390	11.9110
 5.1440	12.0200
 5.1490	12.0840
 5.1540	12.0770
 5.1600	11.9980
 5.1650	11.9920
 5.1700	12.0200
 5.1750	12.0000
 5.1800	11.8800
 5.1850	11.8880
 5.1910	11.9610
 5.1960	12.0110
 5.2010	12.0420
 5.2060	12.0660
 5.2110	12.0170
 5.2170	12.0460
 5.2220	12.1390
 5.2270	12.0430
 5.2320	11.8840
 5.2380	11.9330
 5.2430	11.9750
 5.2480	11.9250
 5.2540	11.8380
 5.2590	11.7810
 5.2640	11.7960
 5.2700	11.7990
 5.2750	11.7350
 5.2800	11.7840
 5.2860	11.7550
 5.2910	11.7440
 5.2970	11.7010
 5.3020	11.7880
 5.3070	11.8200
 5.3130	11.7350
 5.3180	11.6420
 5.3240	11.6670
 5.3290	11.7250
 5.3350	11.6950
 5.3400	11.6460
 5.3460	11.6820
 5.3510	11.6040
 5.3570	11.5200
 5.3620	11.4410
 5.3680	11.4090
 5.3730	11.3620
 5.3790	11.3840
 5.3850	11.3760
 5.3900	11.3280
 5.3960	11.2540
 5.4010	11.1880
 5.4070	11.1490
 5.4130	11.2480
 5.4180	11.3250
 5.4240	11.2590
 5.4300	11.1160
 5.4350	11.0660
 5.4410	10.9660
 5.4470	10.9250
 5.4530	10.9260
 5.4580	10.9700
 5.4640	10.8140
 5.4700	10.6930
 5.4760	10.5660
 5.4810	10.4920
 5.4870	10.3830
 5.4930	10.3740
 5.4990	10.3260
 5.5050	10.2510
 5.5110	10.1600
 5.5160	10.0310
 5.5220	 9.8830
 5.5280	 9.7580
 5.5340	 9.5660
 5.5400	 9.4560
 5.5460	 9.2610
 5.5520	 9.1010
 5.5580	 9.0020
 5.5640	 8.9010
 5.5700	 8.7070
 5.5760	 8.5300
 5.5820	 8.3930
 5.5880	 8.2390
 5.5940	 8.0510
 5.6000	 7.9250
 5.6060	 7.7020
 5.6120	 7.4570
 5.6180	 7.2060
 5.6240	 7.0490
 5.6300	 6.8130
 5.6360	 6.6350
 5.6420	 6.4540
 5.6490	 6.3210
 5.6550	 6.0910
 5.6610	 5.8170
 5.6670	 5.5870
 5.6730	 5.4270
 5.6800	 5.1990
 5.6860	 4.9610
 5.6920	 4.6590
 5.6980	 4.3900
 5.7040	 4.0990
 5.7110	 3.9270
 5.7170	 3.7240
 5.7230	 3.4410
 5.7300	 3.0950
 5.7360	 2.9050
 5.7420	 2.6860
 5.7490	 2.5960
 5.7550	 2.5660
 5.7620	 2.6570
 5.7680	 2.6780
 5.7740	 2.6590
 5.7810	 2.7440
 5.7870	 2.9550
 5.7940	 3.0580
 5.8000	 3.1290
 5.8070	 3.1880
 5.8130	 3.3340
 5.8200	 3.4380
 5.8260	 3.4490
 5.8330	 3.4310
 5.8390	 3.5240
 5.8460	 3.5300
 5.8530	 3.6510
 5.8590	 3.7110
 5.8660	 3.7900
 5.8720	 3.7470
 5.8790	 3.6760
 5.8860	 3.5700
 5.8920	 3.5520
 5.8990	 3.4940
 5.9060	 3.5850
 5.9130	 3.6680
 5.9190	 3.6720
 5.9260	 3.6530
 5.9330	 3.8780
 5.9400	 4.0970
 5.9470	 4.3940
 5.9530	 4.7610
 5.9600	 5.0900
 5.9670	 5.2670
 5.9740	 5.3800
 5.9810	 5.5030
 5.9880	 5.6050
 5.9950	 5.5700
 6.0020	 5.5120
 6.0090	 5.4460
 6.0160	 5.6000
 6.0230	 5.5990
 6.0300	 5.5930
 6.0370	 5.5740
 6.0440	 5.5200
 6.0510	 5.4170
 6.0580	 5.4730
 6.0650	 5.5480
 6.0720	 5.6180
 6.0790	 5.5350
 6.0860	 5.7040
 6.0930	 5.7850
 6.1000	 5.8090
 6.1080	 5.7520
 6.1150	 5.7190
 6.1220	 5.7000
 6.1290	 5.6820
 6.1370	 5.7030
 6.1440	 5.8590
 6.1510	 5.7870
 6.1580	 5.7280
 6.1660	 5.7930
 6.1730	 5.9750
 6.1800	 5.8550
 6.1880	 5.7670
 6.1950	 5.7230
 6.2030	 5.7900
 6.2100	 5.7480
 6.2170	 5.7030
 6.2250	 5.6010
 6.2320	 5.6350
 6.2400	 5.7390
 6.2470	 5.9110
 6.2550	 6.0240
 6.2630	 6.2340
 6.2700	 6.3310
 6.2780	 6.4910
 6.2850	 6.5310
 6.2930	 6.5370
 6.3010	 6.5270
 6.3080	 6.6880
 6.3160	 6.7970
 6.3240	 7.0290
 6.3310	 7.1380
 6.3390	 7.1670
 6.3470	 7.1130
 6.3550	 7.1630
 6.3620	 7.2560
 6.3700	 7.3720
 6.3780	 7.4180
 6.3860	 7.5260
 6.3940	 7.4210
 6.4020	 7.3730
 6.4100	 7.3320
 6.4180	 7.3620
 6.4260	 7.3650
 6.4330	 7.4630
 6.4410	 7.4700
 6.4490	 7.5940
 6.4580	 7.6200
 6.4660	 7.6620
 6.4740	 7.5200
 6.4820	 7.5440
 6.4900	 7.5590
 6.4980	 7.6300
 6.5060	 7.6080
 6.5140	 7.6900
 6.5230	 7.6870
 6.5310	 7.6990
 6.5390	 7.6630
 6.5470	 7.5660
 6.5550	 7.5140
 6.5640	 7.5380
 6.5720	 7.3280
 6.5800	 7.3220
 6.5890	 7.3400
 6.5970	 7.3120
 6.6060	 7.2010
 6.6140	 7.3590
 6.6220	 7.4140
 6.6310	 7.4460
 6.6390	 7.3090
 6.6480	 7.3880
 6.6560	 7.4250
 6.6650	 7.3370
 6.6740	 7.2330
 6.6820	 7.2130
 6.6910	 7.1680
 6.6990	 7.1180
 6.7080	 6.8880
 6.7170	 6.7980
 6.7260	 6.6480
 6.7340	 6.4480
 6.7430	 6.0950
 6.7520	 5.8940
 6.7610	 5.6280
 6.7690	 5.3940
 6.7780	 5.0830
 6.7870	 4.9910
 6.7960	 4.6470
 6.8050	 4.3410
 6.8140	 4.1650
 6.8230	 4.1890
 6.8320	 4.1280
 6.8410	 4.1270
 6.8500	 4.0330
 6.8590	 4.1120
 6.8680	 4.1500
 6.8770	 4.2780
 6.8860	 4.2960
 6.8950	 4.3910
 6.9050	 4.4800
 6.9140	 4.6380
 6.9230	 4.5520
 6.9320	 4.5860
 6.9420	 4.5790
 6.9510	 4.6410
 6.9600	 4.6170
 6.9700	 4.6070
 6.9790	 4.4600
 6.9880	 4.5220
 6.9980	 4.4900
 7.0070	 4.5660
 7.0170	 4.5350
 7.0260	 4.4950
 7.0360	 4.4550
 7.0450	 4.6240
 7.0550	 4.5850
 7.0650	 4.7560
 7.0740	 4.7530
 7.0840	 4.8300
 7.0940	 4.8250
 7.1030	 4.8400
 7.1130	 4.6960
 7.1230	 4.7230
 7.1330	 4.7070
 7.1420	 4.7410
 7.1520	 4.6850
 7.1620	 4.6990
 7.1720	 4.5440
 7.1820	 4.5340
 7.1920	 4.3220
 7.2020	 4.1990
 7.2120	 4.1100
 7.2220	 4.2050
 7.2320	 4.2230
 7.2420	 4.3020
 7.2520	 4.1200
 7.2620	 4.1670
 7.2730	 4.1320
 7.2830	 4.1570
 7.2930	 4.1210
 7.3030	 4.2580
 7.3140	 4.1990
 7.3240	 4.2530
 7.3340	 4.2580
 7.3450	 4.3170
 7.3550	 4.2600
 7.3660	 4.3220
 7.3760	 4.3570
 7.3870	 4.5240
 7.3970	 4.5640
 7.4080	 4.6170
 7.4180	 4.4580
 7.4290	 4.4840
 7.4400	 4.4070
 7.4500	 4.4320
 7.4610	 4.3850
 7.4720	 4.3790
 7.4830	 4.2290
 7.4930	 4.2310
 7.5040	 4.2190
 7.5150	 4.2540
 7.5260	 4.1340
 7.5370	 4.1890
 7.5480	 4.1330
 7.5590	 4.0870
 7.5700	 3.9130
 7.5810	 3.9260
 7.5920	 3.9190
 7.6030	 4.0670
 7.6140	 4.0310
 7.6260	 4.0380
 7.6370	 3.9530
 7.6480	 4.1800
 7.6590	 4.2650
 7.6710	 4.3130
 7.6820	 4.2000
 7.6930	 4.3210
 7.7050	 4.2340
 7.7160	 4.1080
 7.7280	 4.1150
 7.7390	 4.3420
 7.7510	 4.2030
 7.7630	 4.1380
 7.7740	 3.9750
 7.7860	 3.9120
 7.7980	 3.8340
 7.8090	 3.9140
 7.8210	 3.7970
 7.8330	 3.9230
 7.8450	 3.8710
 7.8570	 3.9200
 7.8690	 3.8830
 7.8810	 3.9730
 7.8930	 3.8950
 7.9050	 3.9670
 7.9170	 3.9200
 7.9290	 3.9430
 7.9410	 3.7400
 7.9530	 3.7730
 7.9650	 3.7680
 7.9780	 3.9050
 7.9900	 3.8820
 8.0020	 3.9600
 8.0150	 3.8200
 8.0270	 3.8390
 8.0390	 3.8370
 8.0520	 3.9650
 8.0640	 3.8630
 8.0770	 3.9590
 8.0900	 3.8590
 8.1020	 4.0040
 8.1150	 4.0200
 8.1280	 4.1160
 8.1400	 4.0210
 8.1530	 4.2140
 8.1660	 4.2320
 8.1790	 4.4270
 8.1920	 4.3450
 8.2050	 4.4530
 8.2180	 4.2460
 8.2310	 4.1870
 8.2440	 4.2250
 8.2570	 4.4780
 8.2700	 4.4120
 8.2830	 4.4840
 8.2970	 4.2010
 8.3100	 4.2400
 8.3230	 4.2380
 8.3370	 4.1570
 8.3500	 3.9720
 8.3640	 4.2180
 8.3770	 4.1020
 8.3910	 4.0930
 8.4040	 4.0650
 8.4180	 4.2200
 8.4320	 4.1360
 8.4450	 4.2050
 8.4590	 4.0120
 8.4730	 4.0120
 8.4870	 3.7880
 8.5010	 3.9290
 8.5150	 3.8970
 8.5290	 3.9050
 8.5430	 3.7620
 8.5570	 3.9150
 8.5710	 3.7530
 8.5850	 3.6030
 8.5990	 3.3700
 8.6140	 3.6470
 8.6280	 3.7040
 8.6420	 3.9280
 8.6570	 4.0030
 8.6710	 4.1160
 8.6860	 4.0570
 8.7000	 4.3120
 8.7150	 4.2870
 8.7300	 4.3120
 8.7440	 4.2090
 8.7590	 4.4980
 8.7740	 4.3360
 8.7890	 4.1390
 8.8040	 4.0590
 8.8190	 4.3360
 8.8340	 4.2780
 8.8490	 4.2180
 8.8640	 3.9800
 8.8790	 4.1210
 8.8940	 3.9330
 8.9100	 3.9050
 8.9250	 3.6670
 8.9400	 3.6560
 8.9560	 3.5320
 8.9710	 3.5670
 8.9870	 3.3500
 9.0020	 3.4040
 9.0180	 3.2010
 9.0340	 3.2960
 9.0500	 3.3660
 9.0650	 3.5110
 9.0810	 3.2830
 9.0970	 3.4680
 9.1130	 3.4570
 9.1290	 3.5690
 9.1450	 3.3500
 9.1610	 3.4510
 9.1780	 3.4200
 9.1940	 3.4660
 9.2100	 3.3130
 9.2270	 3.4420
 9.2430	 3.3110
 9.2600	 3.4480
 9.2760	 3.1380
 9.2930	 3.2120
 9.3090	 3.2410
 9.3260	 3.2920
 9.3430	 2.9170
 9.3600	 3.0280
 9.3770	 2.9140
 9.3940	 2.9890
 9.4110	 2.9440
 9.4280	 3.1510
 9.4450	 3.0110
 9.4620	 3.2020
 9.4800	 3.2300
 9.4970	 3.4640
 9.5140	 3.1970
 9.5320	 3.2120
 9.5500	 2.9870
 9.5670	 3.1700
 9.5850	 3.0740
 9.6030	 3.2400
 9.6200	 3.0490
 9.6380	 3.1000
 9.6560	 3.0870
 9.6740	 3.4240
 9.6920	 3.3330
 9.7100	 3.4100
 9.7290	 3.4210
 9.7470	 3.8020
 9.7650	 3.7130
 9.7840	 3.8880
 9.8020	 3.8350
 9.8210	 4.1450
 9.8390	 4.2160
 9.8580	 4.2320
 9.8770	 3.8670
 9.8960	 4.0640
 9.9150	 4.1830
 9.9340	 4.3520
 9.9530	 4.1540
 9.9720	 4.2570
 9.9910	 4.1730
10.0100	 4.1870
10.0300	 4.0950
10.0490	 4.4860
10.0690	 4.6120
10.0880	 4.8900
10.1080	 4.7740
10.1280	 4.8940
10.1480	 4.9930
10.1670	 5.5070
10.1870	 5.4970
10.2070	 5.4460
10.2280	 5.2560
10.2480	 5.4380
10.2680	 5.3150
10.2890	 5.4590
10.3090	 5.4140
10.3300	 5.5290
10.3500	 5.3770
10.3710	 5.4750
10.3920	 5.2630
10.4120	 5.4550
10.4330	 5.5220
10.4540	 5.7080
10.4760	 5.5000
10.4970	 5.7340
10.5180	 5.7500
10.5390	 5.9460
10.5610	 5.9530
10.5820	 6.1470
10.6040	 6.0660
10.6260	 6.1950
10.6480	 6.0980
10.6700	 6.2170
10.6920	 6.2000
10.7140	 6.3550
10.7360	 6.1070
10.7580	 6.3200
10.7800	 6.2510
10.8030	 6.2450
10.8250	 6.0180
10.8480	 6.2340
10.8710	 5.9920
10.8940	 6.1570
10.9170	 5.9750
10.9400	 5.9950
10.9630	 5.8510
10.9860	 6.0670
11.0090	 6.0970
11.0330	 6.2810
11.0560	 6.1410
11.0800	 6.2030
11.1040	 5.8790
11.1270	 6.1070
11.1510	 5.9650
11.1750	 6.0060
11.2000	 5.8100
11.2240	 6.1240
11.2480	 6.2020
11.2730	 6.7620
11.2970	 7.5790
11.3220	 7.1620
11.3470	 6.0890
11.3720	 6.0770
11.3970	 6.0100
11.4220	 6.2210
11.4470	 6.0700
11.4720	 6.4980
11.4980	 6.2680
11.5230	 6.2210
11.5490	 6.0320
11.5750	 6.3820
11.6000	 6.3040
11.6260	 6.3730
11.6530	 5.9990
11.6790	 6.0660
11.7050	 5.9350
11.7320	 6.2000
11.7580	 5.9120
11.7850	 6.1830
11.8120	 6.1120
11.8390	 6.1890
11.8660	 5.9160
11.8930	 6.0430
11.9200	 5.8500
11.9480	 5.9710
11.9760	 5.4690
12.0030	 5.4540
12.0310	 5.4170
12.0590	 5.6270
12.0870	 5.3670
12.1150	 5.4940
12.1440	 5.2530
12.1720	 5.4610
12.2010	 5.1820
12.2300	 5.4030
12.2590	 5.1820
12.2880	 5.3020
12.3170	 4.8550
12.3460	 5.2170
12.3760	 4.9540
12.4050	 4.8080
12.4350	 4.6990
12.4650	 5.0710
12.4950	 4.8540
12.5250	 4.9910
12.5550	 4.6240
12.5860	 4.7890
12.6170	 4.5360
12.6470	 4.7630
12.6780	 4.6030
12.7090	 4.8140
12.7410	 4.5150
12.7720	 4.8730
12.8030	 4.5020
12.8350	 4.4540
12.8670	 3.9500
12.8990	 4.2710
12.9310	 4.3240
12.9640	 4.6580
12.9960	 4.2310
13.0290	 4.2590
13.0610	 3.9930
13.0940	 4.4150
13.1280	 4.4050
13.1610	 4.7690
13.1940	 4.5270
13.2280	 4.6210
13.2620	 4.1110
13.2960	 4.2480
13.3300	 4.2280
13.3640	 4.5880
13.3990	 4.2180
13.4340	 4.5810
13.4690	 4.3930
13.5040	 4.4920
13.5390	 3.8720
13.5740	 4.1560
13.6100	 4.1140
13.6460	 4.2670
13.6820	 3.6970
13.7180	 3.9560
13.7540	 3.6810
13.7910	 3.8350
13.8280	 3.4400
13.8650	 3.8300
13.9020	 3.8240
13.9390	 3.9490
13.9770	 3.4180
14.0150	 3.8600
14.0530	 3.5600
14.0910	 3.7640
14.1290	 3.4550
14.1680	 3.8700
14.2070	 3.4010
14.2460	 3.7150
14.2850	 3.4370
14.3240	 3.7290
14.3640	 3.4220
14.4040	 3.5770
14.4440	 2.8590
14.4840	 3.2280
14.5250	 3.0200
14.5660	 3.5160
14.6070	 3.0850
14.6480	 3.7140
14.6900	 3.2170
14.7310	 3.6730
14.7730	 3.5220
14.8150	 3.6560
14.8580	 3.0180
14.9010	 3.5130
14.9440	 2.1000
14.9870	 2.8690
15.0300	 2.5660
15.0740	 2.9240
15.1180	 2.4120
15.1620	 3.1010
15.2060	 2.8040
15.2510	 3.7570
15.2960	 3.2370
15.3410	 3.5080
15.3870	 2.8470
