Name: Arctostaphylos glandulosa 1
Type: vegetation
Class: Shrub
Genus: Arctostaphylos
Species: glandulosa
Sample No.: VH035
Owner: UCSB
Wavelength Range: VSWIR
Origin: 34.5084; -119.7682; WGS84
Collection Date: 4/1/2013
Description: Samples were collected as part of the HyspIRI Airborne Campaign. 48 individual plants were sampled in three times in 2013 - spring  summer  and fall. The name of the sample includes a 1  2  or 3 which references a different individual of the species. Samples were taken to JPL and processed within 48 hours of collection. The same leaves were processed in the Nicolet and then measured using the ASD.
Measurement: Bidirectional reflectance
First Column: X
Second Column: Y
X Units: Wavelength (micrometers)
Y Units: Reflectance (percentage)
First X Value: 0.35
Last X Value: 2.5
Number of X Values: 2151
Additional Information: vegetation.shrub.arctostaphylos.glandulosa.vswir.vh035.ucsb.asd.ancillary.txt

 0.3500	 6.0850
 0.3510	 5.8880
 0.3520	 5.7650
 0.3530	 5.8770
 0.3540	 6.1580
 0.3550	 5.8700
 0.3560	 5.7450
 0.3570	 5.8890
 0.3580	 6.0390
 0.3590	 5.8260
 0.3600	 5.7330
 0.3610	 5.8820
 0.3620	 5.7770
 0.3630	 5.7150
 0.3640	 5.7360
 0.3650	 5.7880
 0.3660	 5.7540
 0.3670	 5.7560
 0.3680	 5.7760
 0.3690	 5.7110
 0.3700	 5.6950
 0.3710	 5.6580
 0.3720	 5.5940
 0.3730	 5.6790
 0.3740	 5.7000
 0.3750	 5.6650
 0.3760	 5.6500
 0.3770	 5.6560
 0.3780	 5.6430
 0.3790	 5.5880
 0.3800	 5.4980
 0.3810	 5.5150
 0.3820	 5.6100
 0.3830	 5.7050
 0.3840	 5.6910
 0.3850	 5.6490
 0.3860	 5.6190
 0.3870	 5.6230
 0.3880	 5.6800
 0.3890	 5.6710
 0.3900	 5.5970
 0.3910	 5.5870
 0.3920	 5.5840
 0.3930	 5.5820
 0.3940	 5.5760
 0.3950	 5.5440
 0.3960	 5.5460
 0.3970	 5.5620
 0.3980	 5.5430
 0.3990	 5.5460
 0.4000	 5.5290
 0.4010	 5.4920
 0.4020	 5.4910
 0.4030	 5.4860
 0.4040	 5.4750
 0.4050	 5.4720
 0.4060	 5.5290
 0.4070	 5.5400
 0.4080	 5.5180
 0.4090	 5.5480
 0.4100	 5.5490
 0.4110	 5.5480
 0.4120	 5.5590
 0.4130	 5.5570
 0.4140	 5.5680
 0.4150	 5.5950
 0.4160	 5.6270
 0.4170	 5.6370
 0.4180	 5.6430
 0.4190	 5.6590
 0.4200	 5.6880
 0.4210	 5.7210
 0.4220	 5.7610
 0.4230	 5.8060
 0.4240	 5.8520
 0.4250	 5.8680
 0.4260	 5.8970
 0.4270	 5.9970
 0.4280	 6.0540
 0.4290	 6.1030
 0.4300	 6.1710
 0.4310	 6.2470
 0.4320	 6.3110
 0.4330	 6.3730
 0.4340	 6.4430
 0.4350	 6.5090
 0.4360	 6.5880
 0.4370	 6.6690
 0.4380	 6.7270
 0.4390	 6.8060
 0.4400	 6.8850
 0.4410	 6.9540
 0.4420	 7.0410
 0.4430	 7.1110
 0.4440	 7.1760
 0.4450	 7.2600
 0.4460	 7.3340
 0.4470	 7.3960
 0.4480	 7.4580
 0.4490	 7.5430
 0.4500	 7.5960
 0.4510	 7.6460
 0.4520	 7.7200
 0.4530	 7.7720
 0.4540	 7.8270
 0.4550	 7.8820
 0.4560	 7.9190
 0.4570	 7.9550
 0.4580	 7.9900
 0.4590	 8.0240
 0.4600	 8.0570
 0.4610	 8.0780
 0.4620	 8.0920
 0.4630	 8.1140
 0.4640	 8.1340
 0.4650	 8.1490
 0.4660	 8.1620
 0.4670	 8.1850
 0.4680	 8.2000
 0.4690	 8.2090
 0.4700	 8.2190
 0.4710	 8.2330
 0.4720	 8.2510
 0.4730	 8.2720
 0.4740	 8.2910
 0.4750	 8.2950
 0.4760	 8.3020
 0.4770	 8.3170
 0.4780	 8.3240
 0.4790	 8.3300
 0.4800	 8.3410
 0.4810	 8.3590
 0.4820	 8.3670
 0.4830	 8.3810
 0.4840	 8.4030
 0.4850	 8.4220
 0.4860	 8.4420
 0.4870	 8.4620
 0.4880	 8.4850
 0.4890	 8.5160
 0.4900	 8.5490
 0.4910	 8.5850
 0.4920	 8.6260
 0.4930	 8.6840
 0.4940	 8.7410
 0.4950	 8.7930
 0.4960	 8.8610
 0.4970	 8.9340
 0.4980	 9.0100
 0.4990	 9.0910
 0.5000	 9.1880
 0.5010	 9.2890
 0.5020	 9.3920
 0.5030	 9.5080
 0.5040	 9.6380
 0.5050	 9.7820
 0.5060	 9.9370
 0.5070	10.1020
 0.5080	10.2810
 0.5090	10.4750
 0.5100	10.6820
 0.5110	10.8990
 0.5120	11.1350
 0.5130	11.3920
 0.5140	11.6590
 0.5150	11.9310
 0.5160	12.2130
 0.5170	12.5120
 0.5180	12.8250
 0.5190	13.1490
 0.5200	13.4780
 0.5210	13.8070
 0.5220	14.1370
 0.5230	14.4650
 0.5240	14.7870
 0.5250	15.0990
 0.5260	15.4030
 0.5270	15.6940
 0.5280	15.9690
 0.5290	16.2220
 0.5300	16.4590
 0.5310	16.6790
 0.5320	16.8830
 0.5330	17.0720
 0.5340	17.2490
 0.5350	17.4110
 0.5360	17.5560
 0.5370	17.6850
 0.5380	17.8020
 0.5390	17.9130
 0.5400	18.0170
 0.5410	18.1200
 0.5420	18.2210
 0.5430	18.3110
 0.5440	18.3970
 0.5450	18.4800
 0.5460	18.5570
 0.5470	18.6150
 0.5480	18.6720
 0.5490	18.7280
 0.5500	18.7710
 0.5510	18.8030
 0.5520	18.8230
 0.5530	18.8270
 0.5540	18.8080
 0.5550	18.7790
 0.5560	18.7380
 0.5570	18.6720
 0.5580	18.5930
 0.5590	18.5010
 0.5600	18.3960
 0.5610	18.2780
 0.5620	18.1450
 0.5630	18.0010
 0.5640	17.8510
 0.5650	17.6910
 0.5660	17.5230
 0.5670	17.3490
 0.5680	17.1710
 0.5690	16.9870
 0.5700	16.7950
 0.5710	16.6000
 0.5720	16.4090
 0.5730	16.2280
 0.5740	16.0560
 0.5750	15.8890
 0.5760	15.7400
 0.5770	15.6060
 0.5780	15.4810
 0.5790	15.3580
 0.5800	15.2340
 0.5810	15.1120
 0.5820	14.9980
 0.5830	14.8930
 0.5840	14.7950
 0.5850	14.7040
 0.5860	14.6170
 0.5870	14.5340
 0.5880	14.4530
 0.5890	14.3770
 0.5900	14.3140
 0.5910	14.2620
 0.5920	14.2150
 0.5930	14.1690
 0.5940	14.1300
 0.5950	14.0950
 0.5960	14.0600
 0.5970	14.0270
 0.5980	13.9960
 0.5990	13.9600
 0.6000	13.9130
 0.6010	13.8600
 0.6020	13.8010
 0.6030	13.7340
 0.6040	13.6600
 0.6050	13.5780
 0.6060	13.4860
 0.6070	13.3840
 0.6080	13.2770
 0.6090	13.1670
 0.6100	13.0560
 0.6110	12.9460
 0.6120	12.8340
 0.6130	12.7200
 0.6140	12.6070
 0.6150	12.5000
 0.6160	12.3980
 0.6170	12.3020
 0.6180	12.2150
 0.6190	12.1400
 0.6200	12.0730
 0.6210	12.0110
 0.6220	11.9520
 0.6230	11.9040
 0.6240	11.8620
 0.6250	11.8250
 0.6260	11.7960
 0.6270	11.7770
 0.6280	11.7620
 0.6290	11.7470
 0.6300	11.7340
 0.6310	11.7180
 0.6320	11.7000
 0.6330	11.6780
 0.6340	11.6490
 0.6350	11.6120
 0.6360	11.5650
 0.6370	11.5040
 0.6380	11.4290
 0.6390	11.3440
 0.6400	11.2520
 0.6410	11.1530
 0.6420	11.0460
 0.6430	10.9320
 0.6440	10.8090
 0.6450	10.6860
 0.6460	10.5630
 0.6470	10.4400
 0.6480	10.3300
 0.6490	10.2250
 0.6500	10.1250
 0.6510	10.0370
 0.6520	 9.9540
 0.6530	 9.8720
 0.6540	 9.7900
 0.6550	 9.7020
 0.6560	 9.6080
 0.6570	 9.5060
 0.6580	 9.3970
 0.6590	 9.2830
 0.6600	 9.1680
 0.6610	 9.0530
 0.6620	 8.9360
 0.6630	 8.8270
 0.6640	 8.7260
 0.6650	 8.6330
 0.6660	 8.5530
 0.6670	 8.4840
 0.6680	 8.4250
 0.6690	 8.3760
 0.6700	 8.3420
 0.6710	 8.3180
 0.6720	 8.3020
 0.6730	 8.2970
 0.6740	 8.3020
 0.6750	 8.3130
 0.6760	 8.3290
 0.6770	 8.3580
 0.6780	 8.3940
 0.6790	 8.4370
 0.6800	 8.4970
 0.6810	 8.5760
 0.6820	 8.6720
 0.6830	 8.7880
 0.6840	 8.9300
 0.6850	 9.1090
 0.6860	 9.3260
 0.6870	 9.5870
 0.6880	 9.8990
 0.6890	10.2670
 0.6900	10.6960
 0.6910	11.1910
 0.6920	11.7580
 0.6930	12.3890
 0.6940	13.0860
 0.6950	13.8580
 0.6960	14.6900
 0.6970	15.5800
 0.6980	16.5270
 0.6990	17.5170
 0.7000	18.5440
 0.7010	19.6010
 0.7020	20.6740
 0.7030	21.7590
 0.7040	22.8450
 0.7050	23.9210
 0.7060	24.9810
 0.7070	26.0260
 0.7080	27.0530
 0.7090	28.0600
 0.7100	29.0390
 0.7110	29.9960
 0.7120	30.9280
 0.7130	31.8270
 0.7140	32.6960
 0.7150	33.5420
 0.7160	34.3640
 0.7170	35.1470
 0.7180	35.8990
 0.7190	36.6250
 0.7200	37.3220
 0.7210	37.9900
 0.7220	38.6240
 0.7230	39.2260
 0.7240	39.8010
 0.7250	40.3450
 0.7260	40.8540
 0.7270	41.3300
 0.7280	41.7820
 0.7290	42.2110
 0.7300	42.6120
 0.7310	42.9760
 0.7320	43.3240
 0.7330	43.6480
 0.7340	43.9480
 0.7350	44.2340
 0.7360	44.4960
 0.7370	44.7370
 0.7380	44.9620
 0.7390	45.1710
 0.7400	45.3710
 0.7410	45.5560
 0.7420	45.7140
 0.7430	45.8690
 0.7440	46.0120
 0.7450	46.1390
 0.7460	46.2530
 0.7470	46.3580
 0.7480	46.4570
 0.7490	46.5460
 0.7500	46.6220
 0.7510	46.6940
 0.7520	46.7610
 0.7530	46.8200
 0.7540	46.8680
 0.7550	46.9150
 0.7560	46.9600
 0.7570	47.0010
 0.7580	47.0330
 0.7590	47.0640
 0.7600	47.0980
 0.7610	47.1210
 0.7620	47.1440
 0.7630	47.1660
 0.7640	47.1840
 0.7650	47.1950
 0.7660	47.2100
 0.7670	47.2280
 0.7680	47.2390
 0.7690	47.2510
 0.7700	47.2690
 0.7710	47.2860
 0.7720	47.2850
 0.7730	47.2920
 0.7740	47.3030
 0.7750	47.3110
 0.7760	47.3270
 0.7770	47.3360
 0.7780	47.3380
 0.7790	47.3450
 0.7800	47.3580
 0.7810	47.3720
 0.7820	47.3810
 0.7830	47.3880
 0.7840	47.3960
 0.7850	47.4020
 0.7860	47.4090
 0.7870	47.4260
 0.7880	47.4330
 0.7890	47.4390
 0.7900	47.4550
 0.7910	47.4560
 0.7920	47.4510
 0.7930	47.4520
 0.7940	47.4650
 0.7950	47.4750
 0.7960	47.4800
 0.7970	47.4840
 0.7980	47.4910
 0.7990	47.4910
 0.8000	47.4880
 0.8010	47.4890
 0.8020	47.4860
 0.8030	47.4900
 0.8040	47.4970
 0.8050	47.4980
 0.8060	47.4910
 0.8070	47.4850
 0.8080	47.4830
 0.8090	47.4840
 0.8100	47.4840
 0.8110	47.4820
 0.8120	47.4760
 0.8130	47.4720
 0.8140	47.4650
 0.8150	47.4560
 0.8160	47.4510
 0.8170	47.4510
 0.8180	47.4400
 0.8190	47.4270
 0.8200	47.4280
 0.8210	47.4190
 0.8220	47.4050
 0.8230	47.3930
 0.8240	47.3950
 0.8250	47.3910
 0.8260	47.3760
 0.8270	47.3570
 0.8280	47.3520
 0.8290	47.3500
 0.8300	47.3430
 0.8310	47.3250
 0.8320	47.3040
 0.8330	47.2960
 0.8340	47.2930
 0.8350	47.2790
 0.8360	47.2730
 0.8370	47.2710
 0.8380	47.2660
 0.8390	47.2500
 0.8400	47.2460
 0.8410	47.2460
 0.8420	47.2420
 0.8430	47.2260
 0.8440	47.2240
 0.8450	47.2250
 0.8460	47.2150
 0.8470	47.2090
 0.8480	47.2070
 0.8490	47.2110
 0.8500	47.2190
 0.8510	47.2160
 0.8520	47.2090
 0.8530	47.2050
 0.8540	47.2050
 0.8550	47.2000
 0.8560	47.1980
 0.8570	47.2000
 0.8580	47.2000
 0.8590	47.2010
 0.8600	47.2020
 0.8610	47.2000
 0.8620	47.1910
 0.8630	47.1920
 0.8640	47.1980
 0.8650	47.1990
 0.8660	47.2000
 0.8670	47.2000
 0.8680	47.2010
 0.8690	47.2060
 0.8700	47.2150
 0.8710	47.2170
 0.8720	47.2140
 0.8730	47.2150
 0.8740	47.2220
 0.8750	47.2320
 0.8760	47.2410
 0.8770	47.2430
 0.8780	47.2450
 0.8790	47.2460
 0.8800	47.2460
 0.8810	47.2490
 0.8820	47.2570
 0.8830	47.2640
 0.8840	47.2650
 0.8850	47.2620
 0.8860	47.2630
 0.8870	47.2690
 0.8880	47.2780
 0.8890	47.2760
 0.8900	47.2770
 0.8910	47.2780
 0.8920	47.2780
 0.8930	47.2840
 0.8940	47.2890
 0.8950	47.2910
 0.8960	47.2910
 0.8970	47.2920
 0.8980	47.2930
 0.8990	47.2920
 0.9000	47.2910
 0.9010	47.2970
 0.9020	47.3000
 0.9030	47.2990
 0.9040	47.3020
 0.9050	47.2990
 0.9060	47.2970
 0.9070	47.3020
 0.9080	47.3130
 0.9090	47.3120
 0.9100	47.3070
 0.9110	47.3090
 0.9120	47.3130
 0.9130	47.3180
 0.9140	47.3190
 0.9150	47.3110
 0.9160	47.3020
 0.9170	47.2940
 0.9180	47.2870
 0.9190	47.2850
 0.9200	47.2970
 0.9210	47.3000
 0.9220	47.2940
 0.9230	47.2890
 0.9240	47.2620
 0.9250	47.2480
 0.9260	47.2460
 0.9270	47.2340
 0.9280	47.2270
 0.9290	47.2230
 0.9300	47.2130
 0.9310	47.1850
 0.9320	47.1640
 0.9330	47.1520
 0.9340	47.1380
 0.9350	47.1080
 0.9360	47.0860
 0.9370	47.0740
 0.9380	47.0590
 0.9390	47.0210
 0.9400	46.9980
 0.9410	46.9810
 0.9420	46.9570
 0.9430	46.9290
 0.9440	46.8880
 0.9450	46.8440
 0.9460	46.8040
 0.9470	46.7640
 0.9480	46.7270
 0.9490	46.6870
 0.9500	46.6380
 0.9510	46.5810
 0.9520	46.5110
 0.9530	46.4440
 0.9540	46.3860
 0.9550	46.3000
 0.9560	46.2240
 0.9570	46.1590
 0.9580	46.0950
 0.9590	46.0400
 0.9600	45.9880
 0.9610	45.9360
 0.9620	45.8840
 0.9630	45.8380
 0.9640	45.7960
 0.9650	45.7560
 0.9660	45.7210
 0.9670	45.6990
 0.9680	45.6810
 0.9690	45.6660
 0.9700	45.6570
 0.9710	45.6360
 0.9720	45.6090
 0.9730	45.5890
 0.9740	45.5890
 0.9750	45.5840
 0.9760	45.5800
 0.9770	45.5800
 0.9780	45.5820
 0.9790	45.5620
 0.9800	45.5560
 0.9810	45.5660
 0.9820	45.5720
 0.9830	45.5740
 0.9840	45.5750
 0.9850	45.5860
 0.9860	45.6100
 0.9870	45.6050
 0.9880	45.6280
 0.9890	45.6750
 0.9900	45.7050
 0.9910	45.7000
 0.9920	45.7610
 0.9930	45.8220
 0.9940	45.8830
 0.9950	45.9440
 0.9960	46.0050
 0.9970	46.0650
 0.9980	46.1260
 0.9990	46.1870
 1.0000	46.2480
 1.0010	46.3090
 1.0020	46.3690
 1.0030	46.4300
 1.0040	46.4910
 1.0050	46.5520
 1.0060	46.6130
 1.0070	46.6730
 1.0080	46.7340
 1.0090	46.7950
 1.0100	46.7950
 1.0110	46.8130
 1.0120	46.8350
 1.0130	46.8620
 1.0140	46.8860
 1.0150	46.9160
 1.0160	46.9370
 1.0170	46.9530
 1.0180	46.9730
 1.0190	46.9930
 1.0200	47.0090
 1.0210	47.0320
 1.0220	47.0580
 1.0230	47.0790
 1.0240	47.1000
 1.0250	47.1200
 1.0260	47.1360
 1.0270	47.1530
 1.0280	47.1710
 1.0290	47.1880
 1.0300	47.2040
 1.0310	47.2210
 1.0320	47.2390
 1.0330	47.2550
 1.0340	47.2730
 1.0350	47.2890
 1.0360	47.3050
 1.0370	47.3210
 1.0380	47.3350
 1.0390	47.3460
 1.0400	47.3610
 1.0410	47.3760
 1.0420	47.3910
 1.0430	47.4070
 1.0440	47.4220
 1.0450	47.4350
 1.0460	47.4460
 1.0470	47.4580
 1.0480	47.4680
 1.0490	47.4770
 1.0500	47.4850
 1.0510	47.4930
 1.0520	47.5000
 1.0530	47.5090
 1.0540	47.5180
 1.0550	47.5240
 1.0560	47.5270
 1.0570	47.5350
 1.0580	47.5440
 1.0590	47.5510
 1.0600	47.5620
 1.0610	47.5680
 1.0620	47.5670
 1.0630	47.5710
 1.0640	47.5760
 1.0650	47.5810
 1.0660	47.5880
 1.0670	47.5920
 1.0680	47.5940
 1.0690	47.5920
 1.0700	47.5940
 1.0710	47.5960
 1.0720	47.5970
 1.0730	47.6000
 1.0740	47.6000
 1.0750	47.5970
 1.0760	47.5960
 1.0770	47.5960
 1.0780	47.5930
 1.0790	47.5880
 1.0800	47.5850
 1.0810	47.5830
 1.0820	47.5800
 1.0830	47.5810
 1.0840	47.5780
 1.0850	47.5710
 1.0860	47.5660
 1.0870	47.5590
 1.0880	47.5510
 1.0890	47.5430
 1.0900	47.5370
 1.0910	47.5280
 1.0920	47.5160
 1.0930	47.5060
 1.0940	47.4950
 1.0950	47.4850
 1.0960	47.4780
 1.0970	47.4670
 1.0980	47.4530
 1.0990	47.4420
 1.1000	47.4310
 1.1010	47.4170
 1.1020	47.4050
 1.1030	47.3910
 1.1040	47.3720
 1.1050	47.3520
 1.1060	47.3350
 1.1070	47.3180
 1.1080	47.2990
 1.1090	47.2800
 1.1100	47.2600
 1.1110	47.2360
 1.1120	47.2130
 1.1130	47.1930
 1.1140	47.1670
 1.1150	47.1380
 1.1160	47.1080
 1.1170	47.0770
 1.1180	47.0420
 1.1190	47.0060
 1.1200	46.9670
 1.1210	46.9280
 1.1220	46.8840
 1.1230	46.8360
 1.1240	46.7870
 1.1250	46.7320
 1.1260	46.6710
 1.1270	46.6060
 1.1280	46.5370
 1.1290	46.4630
 1.1300	46.3830
 1.1310	46.2980
 1.1320	46.2090
 1.1330	46.1130
 1.1340	46.0140
 1.1350	45.9050
 1.1360	45.7880
 1.1370	45.6640
 1.1380	45.5340
 1.1390	45.3970
 1.1400	45.2560
 1.1410	45.1140
 1.1420	44.9650
 1.1430	44.8140
 1.1440	44.6620
 1.1450	44.5060
 1.1460	44.3540
 1.1470	44.1980
 1.1480	44.0490
 1.1490	43.8990
 1.1500	43.7610
 1.1510	43.6270
 1.1520	43.5030
 1.1530	43.3850
 1.1540	43.2760
 1.1550	43.1740
 1.1560	43.0800
 1.1570	42.9960
 1.1580	42.9220
 1.1590	42.8550
 1.1600	42.7960
 1.1610	42.7450
 1.1620	42.6960
 1.1630	42.6530
 1.1640	42.6170
 1.1650	42.5860
 1.1660	42.5610
 1.1670	42.5370
 1.1680	42.5190
 1.1690	42.5000
 1.1700	42.4830
 1.1710	42.4650
 1.1720	42.4490
 1.1730	42.4310
 1.1740	42.4130
 1.1750	42.3930
 1.1760	42.3740
 1.1770	42.3530
 1.1780	42.3330
 1.1790	42.3140
 1.1800	42.2910
 1.1810	42.2660
 1.1820	42.2400
 1.1830	42.2140
 1.1840	42.1900
 1.1850	42.1690
 1.1860	42.1440
 1.1870	42.1180
 1.1880	42.0940
 1.1890	42.0670
 1.1900	42.0450
 1.1910	42.0260
 1.1920	42.0090
 1.1930	41.9940
 1.1940	41.9800
 1.1950	41.9660
 1.1960	41.9540
 1.1970	41.9460
 1.1980	41.9390
 1.1990	41.9330
 1.2000	41.9290
 1.2010	41.9230
 1.2020	41.9220
 1.2030	41.9260
 1.2040	41.9320
 1.2050	41.9440
 1.2060	41.9560
 1.2070	41.9690
 1.2080	41.9870
 1.2090	42.0070
 1.2100	42.0300
 1.2110	42.0570
 1.2120	42.0870
 1.2130	42.1200
 1.2140	42.1570
 1.2150	42.1960
 1.2160	42.2380
 1.2170	42.2820
 1.2180	42.3260
 1.2190	42.3730
 1.2200	42.4210
 1.2210	42.4700
 1.2220	42.5200
 1.2230	42.5700
 1.2240	42.6170
 1.2250	42.6630
 1.2260	42.7100
 1.2270	42.7570
 1.2280	42.8010
 1.2290	42.8430
 1.2300	42.8820
 1.2310	42.9190
 1.2320	42.9570
 1.2330	42.9930
 1.2340	43.0270
 1.2350	43.0600
 1.2360	43.0910
 1.2370	43.1210
 1.2380	43.1510
 1.2390	43.1790
 1.2400	43.2060
 1.2410	43.2330
 1.2420	43.2570
 1.2430	43.2800
 1.2440	43.3030
 1.2450	43.3220
 1.2460	43.3410
 1.2470	43.3620
 1.2480	43.3800
 1.2490	43.3980
 1.2500	43.4150
 1.2510	43.4300
 1.2520	43.4420
 1.2530	43.4560
 1.2540	43.4700
 1.2550	43.4840
 1.2560	43.4980
 1.2570	43.5090
 1.2580	43.5140
 1.2590	43.5200
 1.2600	43.5220
 1.2610	43.5270
 1.2620	43.5320
 1.2630	43.5390
 1.2640	43.5440
 1.2650	43.5480
 1.2660	43.5500
 1.2670	43.5480
 1.2680	43.5460
 1.2690	43.5440
 1.2700	43.5390
 1.2710	43.5350
 1.2720	43.5310
 1.2730	43.5230
 1.2740	43.5150
 1.2750	43.5060
 1.2760	43.4960
 1.2770	43.4840
 1.2780	43.4700
 1.2790	43.4560
 1.2800	43.4390
 1.2810	43.4210
 1.2820	43.4040
 1.2830	43.3860
 1.2840	43.3630
 1.2850	43.3380
 1.2860	43.3130
 1.2870	43.2860
 1.2880	43.2570
 1.2890	43.2270
 1.2900	43.1950
 1.2910	43.1580
 1.2920	43.1190
 1.2930	43.0800
 1.2940	43.0410
 1.2950	42.9990
 1.2960	42.9530
 1.2970	42.9030
 1.2980	42.8490
 1.2990	42.7910
 1.3000	42.7320
 1.3010	42.6720
 1.3020	42.6090
 1.3030	42.5430
 1.3040	42.4740
 1.3050	42.4000
 1.3060	42.3240
 1.3070	42.2440
 1.3080	42.1630
 1.3090	42.0790
 1.3100	41.9890
 1.3110	41.8980
 1.3120	41.8040
 1.3130	41.7080
 1.3140	41.6090
 1.3150	41.5090
 1.3160	41.4020
 1.3170	41.2920
 1.3180	41.1760
 1.3190	41.0570
 1.3200	40.9340
 1.3210	40.8080
 1.3220	40.6800
 1.3230	40.5490
 1.3240	40.4140
 1.3250	40.2770
 1.3260	40.1340
 1.3270	39.9900
 1.3280	39.8430
 1.3290	39.6930
 1.3300	39.5420
 1.3310	39.3890
 1.3320	39.2340
 1.3330	39.0770
 1.3340	38.9170
 1.3350	38.7560
 1.3360	38.5940
 1.3370	38.4300
 1.3380	38.2670
 1.3390	38.1040
 1.3400	37.9400
 1.3410	37.7790
 1.3420	37.6180
 1.3430	37.4590
 1.3440	37.3030
 1.3450	37.1450
 1.3460	36.9880
 1.3470	36.8330
 1.3480	36.6790
 1.3490	36.5270
 1.3500	36.3770
 1.3510	36.2260
 1.3520	36.0760
 1.3530	35.9280
 1.3540	35.7790
 1.3550	35.6310
 1.3560	35.4830
 1.3570	35.3320
 1.3580	35.1820
 1.3590	35.0290
 1.3600	34.8720
 1.3610	34.7140
 1.3620	34.5500
 1.3630	34.3810
 1.3640	34.2070
 1.3650	34.0250
 1.3660	33.8370
 1.3670	33.6390
 1.3680	33.4300
 1.3690	33.2100
 1.3700	32.9760
 1.3710	32.7300
 1.3720	32.4720
 1.3730	32.1960
 1.3740	31.9040
 1.3750	31.5930
 1.3760	31.2610
 1.3770	30.9090
 1.3780	30.5330
 1.3790	30.1370
 1.3800	29.7210
 1.3810	29.2810
 1.3820	28.8250
 1.3830	28.3520
 1.3840	27.8610
 1.3850	27.3510
 1.3860	26.8310
 1.3870	26.2920
 1.3880	25.7510
 1.3890	25.2010
 1.3900	24.6450
 1.3910	24.0910
 1.3920	23.5340
 1.3930	22.9760
 1.3940	22.4260
 1.3950	21.8750
 1.3960	21.3350
 1.3970	20.8080
 1.3980	20.2920
 1.3990	19.7960
 1.4000	19.3160
 1.4010	18.8510
 1.4020	18.4090
 1.4030	17.9820
 1.4040	17.5770
 1.4050	17.1930
 1.4060	16.8300
 1.4070	16.4920
 1.4080	16.1760
 1.4090	15.8790
 1.4100	15.6050
 1.4110	15.3480
 1.4120	15.1100
 1.4130	14.8920
 1.4140	14.6910
 1.4150	14.5090
 1.4160	14.3420
 1.4170	14.1890
 1.4180	14.0510
 1.4190	13.9240
 1.4200	13.8090
 1.4210	13.7050
 1.4220	13.6120
 1.4230	13.5310
 1.4240	13.4570
 1.4250	13.3890
 1.4260	13.3310
 1.4270	13.2770
 1.4280	13.2310
 1.4290	13.1910
 1.4300	13.1570
 1.4310	13.1280
 1.4320	13.1040
 1.4330	13.0840
 1.4340	13.0700
 1.4350	13.0590
 1.4360	13.0510
 1.4370	13.0470
 1.4380	13.0460
 1.4390	13.0480
 1.4400	13.0530
 1.4410	13.0600
 1.4420	13.0690
 1.4430	13.0790
 1.4440	13.0910
 1.4450	13.1050
 1.4460	13.1200
 1.4470	13.1370
 1.4480	13.1540
 1.4490	13.1730
 1.4500	13.1930
 1.4510	13.2130
 1.4520	13.2330
 1.4530	13.2540
 1.4540	13.2760
 1.4550	13.3010
 1.4560	13.3270
 1.4570	13.3540
 1.4580	13.3840
 1.4590	13.4140
 1.4600	13.4480
 1.4610	13.4840
 1.4620	13.5240
 1.4630	13.5680
 1.4640	13.6140
 1.4650	13.6660
 1.4660	13.7210
 1.4670	13.7800
 1.4680	13.8430
 1.4690	13.9090
 1.4700	13.9780
 1.4710	14.0530
 1.4720	14.1290
 1.4730	14.2110
 1.4740	14.2950
 1.4750	14.3810
 1.4760	14.4700
 1.4770	14.5620
 1.4780	14.6540
 1.4790	14.7510
 1.4800	14.8480
 1.4810	14.9460
 1.4820	15.0460
 1.4830	15.1470
 1.4840	15.2490
 1.4850	15.3520
 1.4860	15.4560
 1.4870	15.5610
 1.4880	15.6650
 1.4890	15.7710
 1.4900	15.8770
 1.4910	15.9840
 1.4920	16.0910
 1.4930	16.2000
 1.4940	16.3090
 1.4950	16.4190
 1.4960	16.5280
 1.4970	16.6370
 1.4980	16.7460
 1.4990	16.8560
 1.5000	16.9650
 1.5010	17.0750
 1.5020	17.1840
 1.5030	17.2920
 1.5040	17.4010
 1.5050	17.5090
 1.5060	17.6170
 1.5070	17.7250
 1.5080	17.8320
 1.5090	17.9390
 1.5100	18.0450
 1.5110	18.1520
 1.5120	18.2580
 1.5130	18.3620
 1.5140	18.4660
 1.5150	18.5700
 1.5160	18.6710
 1.5170	18.7730
 1.5180	18.8740
 1.5190	18.9740
 1.5200	19.0740
 1.5210	19.1730
 1.5220	19.2710
 1.5230	19.3690
 1.5240	19.4650
 1.5250	19.5620
 1.5260	19.6570
 1.5270	19.7520
 1.5280	19.8460
 1.5290	19.9380
 1.5300	20.0290
 1.5310	20.1200
 1.5320	20.2090
 1.5330	20.2990
 1.5340	20.3870
 1.5350	20.4750
 1.5360	20.5630
 1.5370	20.6470
 1.5380	20.7310
 1.5390	20.8150
 1.5400	20.8970
 1.5410	20.9810
 1.5420	21.0640
 1.5430	21.1460
 1.5440	21.2280
 1.5450	21.3090
 1.5460	21.3890
 1.5470	21.4700
 1.5480	21.5490
 1.5490	21.6280
 1.5500	21.7050
 1.5510	21.7800
 1.5520	21.8550
 1.5530	21.9280
 1.5540	22.0010
 1.5550	22.0740
 1.5560	22.1480
 1.5570	22.2210
 1.5580	22.2930
 1.5590	22.3650
 1.5600	22.4350
 1.5610	22.5030
 1.5620	22.5710
 1.5630	22.6400
 1.5640	22.7080
 1.5650	22.7760
 1.5660	22.8430
 1.5670	22.9100
 1.5680	22.9760
 1.5690	23.0420
 1.5700	23.1060
 1.5710	23.1700
 1.5720	23.2340
 1.5730	23.2990
 1.5740	23.3640
 1.5750	23.4280
 1.5760	23.4920
 1.5770	23.5540
 1.5780	23.6170
 1.5790	23.6790
 1.5800	23.7410
 1.5810	23.8020
 1.5820	23.8630
 1.5830	23.9240
 1.5840	23.9860
 1.5850	24.0470
 1.5860	24.1080
 1.5870	24.1700
 1.5880	24.2300
 1.5890	24.2880
 1.5900	24.3460
 1.5910	24.4050
 1.5920	24.4620
 1.5930	24.5210
 1.5940	24.5800
 1.5950	24.6390
 1.5960	24.6980
 1.5970	24.7560
 1.5980	24.8120
 1.5990	24.8700
 1.6000	24.9250
 1.6010	24.9790
 1.6020	25.0340
 1.6030	25.0880
 1.6040	25.1410
 1.6050	25.1960
 1.6060	25.2480
 1.6070	25.3000
 1.6080	25.3520
 1.6090	25.4030
 1.6100	25.4550
 1.6110	25.5060
 1.6120	25.5550
 1.6130	25.6030
 1.6140	25.6490
 1.6150	25.6960
 1.6160	25.7430
 1.6170	25.7870
 1.6180	25.8310
 1.6190	25.8750
 1.6200	25.9160
 1.6210	25.9580
 1.6220	26.0000
 1.6230	26.0390
 1.6240	26.0770
 1.6250	26.1150
 1.6260	26.1500
 1.6270	26.1850
 1.6280	26.2200
 1.6290	26.2520
 1.6300	26.2830
 1.6310	26.3130
 1.6320	26.3420
 1.6330	26.3690
 1.6340	26.3940
 1.6350	26.4170
 1.6360	26.4380
 1.6370	26.4560
 1.6380	26.4710
 1.6390	26.4820
 1.6400	26.4910
 1.6410	26.4970
 1.6420	26.5020
 1.6430	26.4990
 1.6440	26.4920
 1.6450	26.4810
 1.6460	26.4670
 1.6470	26.4520
 1.6480	26.4350
 1.6490	26.4140
 1.6500	26.3910
 1.6510	26.3660
 1.6520	26.3390
 1.6530	26.3120
 1.6540	26.2850
 1.6550	26.2570
 1.6560	26.2290
 1.6570	26.2030
 1.6580	26.1800
 1.6590	26.1590
 1.6600	26.1400
 1.6610	26.1260
 1.6620	26.1160
 1.6630	26.1120
 1.6640	26.1130
 1.6650	26.1190
 1.6660	26.1270
 1.6670	26.1390
 1.6680	26.1540
 1.6690	26.1710
 1.6700	26.1880
 1.6710	26.2040
 1.6720	26.2180
 1.6730	26.2310
 1.6740	26.2410
 1.6750	26.2470
 1.6760	26.2490
 1.6770	26.2440
 1.6780	26.2350
 1.6790	26.2230
 1.6800	26.2050
 1.6810	26.1810
 1.6820	26.1520
 1.6830	26.1180
 1.6840	26.0790
 1.6850	26.0380
 1.6860	25.9920
 1.6870	25.9430
 1.6880	25.8920
 1.6890	25.8400
 1.6900	25.7850
 1.6910	25.7280
 1.6920	25.6680
 1.6930	25.6020
 1.6940	25.5380
 1.6950	25.4750
 1.6960	25.4100
 1.6970	25.3450
 1.6980	25.2780
 1.6990	25.2090
 1.7000	25.1400
 1.7010	25.0710
 1.7020	25.0020
 1.7030	24.9320
 1.7040	24.8630
 1.7050	24.7920
 1.7060	24.7230
 1.7070	24.6550
 1.7080	24.5870
 1.7090	24.5190
 1.7100	24.4550
 1.7110	24.3930
 1.7120	24.3330
 1.7130	24.2750
 1.7140	24.2170
 1.7150	24.1590
 1.7160	24.1020
 1.7170	24.0480
 1.7180	23.9940
 1.7190	23.9420
 1.7200	23.8920
 1.7210	23.8440
 1.7220	23.7980
 1.7230	23.7540
 1.7240	23.7100
 1.7250	23.6680
 1.7260	23.6280
 1.7270	23.5920
 1.7280	23.5630
 1.7290	23.5370
 1.7300	23.5180
 1.7310	23.5000
 1.7320	23.4870
 1.7330	23.4740
 1.7340	23.4660
 1.7350	23.4530
 1.7360	23.4420
 1.7370	23.4250
 1.7380	23.4030
 1.7390	23.3790
 1.7400	23.3530
 1.7410	23.3200
 1.7420	23.2830
 1.7430	23.2400
 1.7440	23.1910
 1.7450	23.1400
 1.7460	23.0840
 1.7470	23.0290
 1.7480	22.9710
 1.7490	22.9120
 1.7500	22.8520
 1.7510	22.7920
 1.7520	22.7320
 1.7530	22.6720
 1.7540	22.6140
 1.7550	22.5550
 1.7560	22.4980
 1.7570	22.4430
 1.7580	22.3910
 1.7590	22.3410
 1.7600	22.2930
 1.7610	22.2470
 1.7620	22.2040
 1.7630	22.1640
 1.7640	22.1280
 1.7650	22.0960
 1.7660	22.0650
 1.7670	22.0370
 1.7680	22.0110
 1.7690	21.9850
 1.7700	21.9610
 1.7710	21.9410
 1.7720	21.9210
 1.7730	21.9030
 1.7740	21.8830
 1.7750	21.8610
 1.7760	21.8420
 1.7770	21.8230
 1.7780	21.8040
 1.7790	21.7860
 1.7800	21.7680
 1.7810	21.7490
 1.7820	21.7340
 1.7830	21.7210
 1.7840	21.7060
 1.7850	21.6910
 1.7860	21.6790
 1.7870	21.6670
 1.7880	21.6610
 1.7890	21.6550
 1.7900	21.6490
 1.7910	21.6440
 1.7920	21.6380
 1.7930	21.6350
 1.7940	21.6310
 1.7950	21.6310
 1.7960	21.6340
 1.7970	21.6360
 1.7980	21.6380
 1.7990	21.6400
 1.8000	21.6420
 1.8010	21.6450
 1.8020	21.6530
 1.8030	21.6580
 1.8040	21.6640
 1.8050	21.6680
 1.8060	21.6680
 1.8070	21.6720
 1.8080	21.6770
 1.8090	21.6810
 1.8100	21.6890
 1.8110	21.6930
 1.8120	21.6960
 1.8130	21.6990
 1.8140	21.7000
 1.8150	21.7040
 1.8160	21.7060
 1.8170	21.7060
 1.8180	21.7070
 1.8190	21.7080
 1.8200	21.7080
 1.8210	21.7130
 1.8220	21.7120
 1.8230	21.7080
 1.8240	21.7040
 1.8250	21.6970
 1.8260	21.6920
 1.8270	21.6510
 1.8280	21.6090
 1.8290	21.5680
 1.8300	21.5260
 1.8310	21.4850
 1.8320	21.4440
 1.8330	21.4020
 1.8340	21.3610
 1.8350	21.3610
 1.8360	21.3300
 1.8370	21.2960
 1.8380	21.2560
 1.8390	21.2130
 1.8400	21.1650
 1.8410	21.1130
 1.8420	21.0580
 1.8430	20.9990
 1.8440	20.9300
 1.8450	20.8590
 1.8460	20.7830
 1.8470	20.6980
 1.8480	20.6070
 1.8490	20.5090
 1.8500	20.4010
 1.8510	20.2850
 1.8520	20.1570
 1.8530	20.0170
 1.8540	19.8690
 1.8550	19.7070
 1.8560	19.5350
 1.8570	19.3580
 1.8580	19.1670
 1.8590	18.9640
 1.8600	18.7500
 1.8610	18.5250
 1.8620	18.2840
 1.8630	18.0320
 1.8640	17.7680
 1.8650	17.4910
 1.8660	17.2000
 1.8670	16.8930
 1.8680	16.5770
 1.8690	16.2510
 1.8700	15.9090
 1.8710	15.5550
 1.8720	15.1970
 1.8730	14.8280
 1.8740	14.4510
 1.8750	14.0730
 1.8760	13.6910
 1.8770	13.3080
 1.8780	12.9270
 1.8790	12.5480
 1.8800	12.1770
 1.8810	11.8100
 1.8820	11.4480
 1.8830	11.0910
 1.8840	10.7450
 1.8850	10.4030
 1.8860	10.0730
 1.8870	 9.7530
 1.8880	 9.4440
 1.8890	 9.1530
 1.8900	 8.8740
 1.8910	 8.6120
 1.8920	 8.3630
 1.8930	 8.1320
 1.8940	 7.9140
 1.8950	 7.7140
 1.8960	 7.5300
 1.8970	 7.3600
 1.8980	 7.2040
 1.8990	 7.0590
 1.9000	 6.9280
 1.9010	 6.8110
 1.9020	 6.7030
 1.9030	 6.6070
 1.9040	 6.5200
 1.9050	 6.4410
 1.9060	 6.3700
 1.9070	 6.3070
 1.9080	 6.2540
 1.9090	 6.2070
 1.9100	 6.1660
 1.9110	 6.1290
 1.9120	 6.0980
 1.9130	 6.0700
 1.9140	 6.0460
 1.9150	 6.0260
 1.9160	 6.0090
 1.9170	 5.9930
 1.9180	 5.9800
 1.9190	 5.9700
 1.9200	 5.9640
 1.9210	 5.9600
 1.9220	 5.9560
 1.9230	 5.9520
 1.9240	 5.9500
 1.9250	 5.9490
 1.9260	 5.9510
 1.9270	 5.9540
 1.9280	 5.9600
 1.9290	 5.9680
 1.9300	 5.9740
 1.9310	 5.9820
 1.9320	 5.9920
 1.9330	 6.0030
 1.9340	 6.0140
 1.9350	 6.0270
 1.9360	 6.0430
 1.9370	 6.0590
 1.9380	 6.0770
 1.9390	 6.0930
 1.9400	 6.1120
 1.9410	 6.1320
 1.9420	 6.1480
 1.9430	 6.1680
 1.9440	 6.1880
 1.9450	 6.2080
 1.9460	 6.2290
 1.9470	 6.2520
 1.9480	 6.2740
 1.9490	 6.2960
 1.9500	 6.3190
 1.9510	 6.3420
 1.9520	 6.3680
 1.9530	 6.3960
 1.9540	 6.4210
 1.9550	 6.4490
 1.9560	 6.4800
 1.9570	 6.5090
 1.9580	 6.5380
 1.9590	 6.5680
 1.9600	 6.5950
 1.9610	 6.6240
 1.9620	 6.6550
 1.9630	 6.6870
 1.9640	 6.7200
 1.9650	 6.7540
 1.9660	 6.7880
 1.9670	 6.8230
 1.9680	 6.8580
 1.9690	 6.8920
 1.9700	 6.9270
 1.9710	 6.9630
 1.9720	 6.9990
 1.9730	 7.0360
 1.9740	 7.0740
 1.9750	 7.1110
 1.9760	 7.1490
 1.9770	 7.1890
 1.9780	 7.2290
 1.9790	 7.2700
 1.9800	 7.3110
 1.9810	 7.3520
 1.9820	 7.3920
 1.9830	 7.4340
 1.9840	 7.4760
 1.9850	 7.5180
 1.9860	 7.5600
 1.9870	 7.6040
 1.9880	 7.6470
 1.9890	 7.6930
 1.9900	 7.7400
 1.9910	 7.7860
 1.9920	 7.8310
 1.9930	 7.8750
 1.9940	 7.9190
 1.9950	 7.9600
 1.9960	 8.0030
 1.9970	 8.0460
 1.9980	 8.0900
 1.9990	 8.1360
 2.0000	 8.1810
 2.0010	 8.2270
 2.0020	 8.2740
 2.0030	 8.3170
 2.0040	 8.3610
 2.0050	 8.4050
 2.0060	 8.4480
 2.0070	 8.4920
 2.0080	 8.5380
 2.0090	 8.5810
 2.0100	 8.6230
 2.0110	 8.6660
 2.0120	 8.7070
 2.0130	 8.7500
 2.0140	 8.7940
 2.0150	 8.8370
 2.0160	 8.8770
 2.0170	 8.9170
 2.0180	 8.9570
 2.0190	 8.9940
 2.0200	 9.0330
 2.0210	 9.0730
 2.0220	 9.1110
 2.0230	 9.1470
 2.0240	 9.1830
 2.0250	 9.2190
 2.0260	 9.2540
 2.0270	 9.2890
 2.0280	 9.3230
 2.0290	 9.3550
 2.0300	 9.3850
 2.0310	 9.4150
 2.0320	 9.4460
 2.0330	 9.4750
 2.0340	 9.5040
 2.0350	 9.5320
 2.0360	 9.5580
 2.0370	 9.5860
 2.0380	 9.6160
 2.0390	 9.6430
 2.0400	 9.6680
 2.0410	 9.6920
 2.0420	 9.7150
 2.0430	 9.7350
 2.0440	 9.7570
 2.0450	 9.7780
 2.0460	 9.7990
 2.0470	 9.8210
 2.0480	 9.8420
 2.0490	 9.8630
 2.0500	 9.8820
 2.0510	 9.9000
 2.0520	 9.9200
 2.0530	 9.9390
 2.0540	 9.9590
 2.0550	 9.9810
 2.0560	10.0030
 2.0570	10.0240
 2.0580	10.0440
 2.0590	10.0620
 2.0600	10.0770
 2.0610	10.0930
 2.0620	10.1080
 2.0630	10.1240
 2.0640	10.1390
 2.0650	10.1560
 2.0660	10.1730
 2.0670	10.1920
 2.0680	10.2120
 2.0690	10.2320
 2.0700	10.2520
 2.0710	10.2710
 2.0720	10.2900
 2.0730	10.3070
 2.0740	10.3250
 2.0750	10.3430
 2.0760	10.3610
 2.0770	10.3800
 2.0780	10.3980
 2.0790	10.4150
 2.0800	10.4320
 2.0810	10.4490
 2.0820	10.4660
 2.0830	10.4830
 2.0840	10.5000
 2.0850	10.5180
 2.0860	10.5360
 2.0870	10.5540
 2.0880	10.5740
 2.0890	10.5910
 2.0900	10.6070
 2.0910	10.6250
 2.0920	10.6410
 2.0930	10.6590
 2.0940	10.6770
 2.0950	10.6950
 2.0960	10.7110
 2.0970	10.7300
 2.0980	10.7530
 2.0990	10.7710
 2.1000	10.7890
 2.1010	10.8060
 2.1020	10.8180
 2.1030	10.8320
 2.1040	10.8490
 2.1050	10.8670
 2.1060	10.8840
 2.1070	10.9030
 2.1080	10.9180
 2.1090	10.9330
 2.1100	10.9480
 2.1110	10.9600
 2.1120	10.9750
 2.1130	10.9940
 2.1140	11.0090
 2.1150	11.0220
 2.1160	11.0360
 2.1170	11.0490
 2.1180	11.0610
 2.1190	11.0750
 2.1200	11.0870
 2.1210	11.0990
 2.1220	11.1110
 2.1230	11.1230
 2.1240	11.1360
 2.1250	11.1440
 2.1260	11.1490
 2.1270	11.1580
 2.1280	11.1660
 2.1290	11.1770
 2.1300	11.1940
 2.1310	11.2090
 2.1320	11.2250
 2.1330	11.2400
 2.1340	11.2550
 2.1350	11.2720
 2.1360	11.2910
 2.1370	11.3100
 2.1380	11.3330
 2.1390	11.3530
 2.1400	11.3720
 2.1410	11.3890
 2.1420	11.4080
 2.1430	11.4280
 2.1440	11.4480
 2.1450	11.4700
 2.1460	11.4930
 2.1470	11.5150
 2.1480	11.5380
 2.1490	11.5610
 2.1500	11.5850
 2.1510	11.6080
 2.1520	11.6320
 2.1530	11.6560
 2.1540	11.6800
 2.1550	11.7050
 2.1560	11.7280
 2.1570	11.7470
 2.1580	11.7700
 2.1590	11.7950
 2.1600	11.8180
 2.1610	11.8420
 2.1620	11.8690
 2.1630	11.8920
 2.1640	11.9120
 2.1650	11.9350
 2.1660	11.9590
 2.1670	11.9810
 2.1680	12.0050
 2.1690	12.0260
 2.1700	12.0440
 2.1710	12.0630
 2.1720	12.0830
 2.1730	12.1020
 2.1740	12.1190
 2.1750	12.1370
 2.1760	12.1520
 2.1770	12.1690
 2.1780	12.1880
 2.1790	12.2060
 2.1800	12.2240
 2.1810	12.2410
 2.1820	12.2580
 2.1830	12.2740
 2.1840	12.2930
 2.1850	12.3140
 2.1860	12.3330
 2.1870	12.3550
 2.1880	12.3730
 2.1890	12.3860
 2.1900	12.4050
 2.1910	12.4250
 2.1920	12.4440
 2.1930	12.4660
 2.1940	12.4860
 2.1950	12.5060
 2.1960	12.5240
 2.1970	12.5400
 2.1980	12.5580
 2.1990	12.5740
 2.2000	12.5910
 2.2010	12.6090
 2.2020	12.6270
 2.2030	12.6430
 2.2040	12.6590
 2.2050	12.6750
 2.2060	12.6900
 2.2070	12.7020
 2.2080	12.7100
 2.2090	12.7220
 2.2100	12.7340
 2.2110	12.7450
 2.2120	12.7600
 2.2130	12.7690
 2.2140	12.7740
 2.2150	12.7820
 2.2160	12.7880
 2.2170	12.7940
 2.2180	12.8030
 2.2190	12.8080
 2.2200	12.8110
 2.2210	12.8120
 2.2220	12.8100
 2.2230	12.8080
 2.2240	12.8050
 2.2250	12.7980
 2.2260	12.7900
 2.2270	12.7790
 2.2280	12.7640
 2.2290	12.7480
 2.2300	12.7290
 2.2310	12.7110
 2.2320	12.6920
 2.2330	12.6750
 2.2340	12.6520
 2.2350	12.6280
 2.2360	12.5990
 2.2370	12.5640
 2.2380	12.5300
 2.2390	12.4950
 2.2400	12.4580
 2.2410	12.4190
 2.2420	12.3780
 2.2430	12.3330
 2.2440	12.2870
 2.2450	12.2400
 2.2460	12.1910
 2.2470	12.1380
 2.2480	12.0860
 2.2490	12.0340
 2.2500	11.9800
 2.2510	11.9270
 2.2520	11.8710
 2.2530	11.8090
 2.2540	11.7490
 2.2550	11.6860
 2.2560	11.6260
 2.2570	11.5640
 2.2580	11.5070
 2.2590	11.4530
 2.2600	11.3970
 2.2610	11.3440
 2.2620	11.2920
 2.2630	11.2360
 2.2640	11.1810
 2.2650	11.1280
 2.2660	11.0760
 2.2670	11.0220
 2.2680	10.9680
 2.2690	10.9170
 2.2700	10.8650
 2.2710	10.8170
 2.2720	10.7750
 2.2730	10.7300
 2.2740	10.6860
 2.2750	10.6430
 2.2760	10.6000
 2.2770	10.5610
 2.2780	10.5270
 2.2790	10.4890
 2.2800	10.4510
 2.2810	10.4130
 2.2820	10.3720
 2.2830	10.3320
 2.2840	10.2950
 2.2850	10.2550
 2.2860	10.2130
 2.2870	10.1730
 2.2880	10.1340
 2.2890	10.0920
 2.2900	10.0470
 2.2910	10.0030
 2.2920	 9.9550
 2.2930	 9.9070
 2.2940	 9.8600
 2.2950	 9.8110
 2.2960	 9.7590
 2.2970	 9.7060
 2.2980	 9.6500
 2.2990	 9.5950
 2.3000	 9.5490
 2.3010	 9.5050
 2.3020	 9.4630
 2.3030	 9.4280
 2.3040	 9.3890
 2.3050	 9.3540
 2.3060	 9.3240
 2.3070	 9.2960
 2.3080	 9.2730
 2.3090	 9.2520
 2.3100	 9.2400
 2.3110	 9.2340
 2.3120	 9.2280
 2.3130	 9.2250
 2.3140	 9.2250
 2.3150	 9.2270
 2.3160	 9.2310
 2.3170	 9.2420
 2.3180	 9.2450
 2.3190	 9.2480
 2.3200	 9.2470
 2.3210	 9.2410
 2.3220	 9.2390
 2.3230	 9.2390
 2.3240	 9.2320
 2.3250	 9.2250
 2.3260	 9.2130
 2.3270	 9.1930
 2.3280	 9.1780
 2.3290	 9.1670
 2.3300	 9.1490
 2.3310	 9.1270
 2.3320	 9.1040
 2.3330	 9.0760
 2.3340	 9.0520
 2.3350	 9.0300
 2.3360	 9.0050
 2.3370	 8.9800
 2.3380	 8.9500
 2.3390	 8.9140
 2.3400	 8.8840
 2.3410	 8.8520
 2.3420	 8.8260
 2.3430	 8.8080
 2.3440	 8.7860
 2.3450	 8.7630
 2.3460	 8.7420
 2.3470	 8.7210
 2.3480	 8.7030
 2.3490	 8.6840
 2.3500	 8.6700
 2.3510	 8.6590
 2.3520	 8.6480
 2.3530	 8.6370
 2.3540	 8.6360
 2.3550	 8.6310
 2.3560	 8.6240
 2.3570	 8.6170
 2.3580	 8.6080
 2.3590	 8.6040
 2.3600	 8.5910
 2.3610	 8.5750
 2.3620	 8.5640
 2.3630	 8.5480
 2.3640	 8.5290
 2.3650	 8.5160
 2.3660	 8.4980
 2.3670	 8.4840
 2.3680	 8.4710
 2.3690	 8.4460
 2.3700	 8.4260
 2.3710	 8.4000
 2.3720	 8.3670
 2.3730	 8.3510
 2.3740	 8.3330
 2.3750	 8.3150
 2.3760	 8.3030
 2.3770	 8.2800
 2.3780	 8.2550
 2.3790	 8.2320
 2.3800	 8.2040
 2.3810	 8.1820
 2.3820	 8.1600
 2.3830	 8.1300
 2.3840	 8.1070
 2.3850	 8.0920
 2.3860	 8.0690
 2.3870	 8.0590
 2.3880	 8.0610
 2.3890	 8.0350
 2.3900	 8.0110
 2.3910	 7.9890
 2.3920	 7.9450
 2.3930	 7.9110
 2.3940	 7.8910
 2.3950	 7.8590
 2.3960	 7.8360
 2.3970	 7.8250
 2.3980	 7.8070
 2.3990	 7.7900
 2.4000	 7.7780
 2.4010	 7.7660
 2.4020	 7.7520
 2.4030	 7.7360
 2.4040	 7.7190
 2.4050	 7.6920
 2.4060	 7.6600
 2.4070	 7.6280
 2.4080	 7.5880
 2.4090	 7.5430
 2.4100	 7.4990
 2.4110	 7.4710
 2.4120	 7.4570
 2.4130	 7.4380
 2.4140	 7.4220
 2.4150	 7.4040
 2.4160	 7.3780
 2.4170	 7.3580
 2.4180	 7.3340
 2.4190	 7.3100
 2.4200	 7.2910
 2.4210	 7.2640
 2.4220	 7.2580
 2.4230	 7.2540
 2.4240	 7.2210
 2.4250	 7.1970
 2.4260	 7.1780
 2.4270	 7.1490
 2.4280	 7.1330
 2.4290	 7.1170
 2.4300	 7.0860
 2.4310	 7.0660
 2.4320	 7.0480
 2.4330	 7.0260
 2.4340	 7.0070
 2.4350	 6.9720
 2.4360	 6.9310
 2.4370	 6.9000
 2.4380	 6.8760
 2.4390	 6.8590
 2.4400	 6.8440
 2.4410	 6.8260
 2.4420	 6.7980
 2.4430	 6.7790
 2.4440	 6.7710
 2.4450	 6.7510
 2.4460	 6.7400
 2.4470	 6.7190
 2.4480	 6.6820
 2.4490	 6.6560
 2.4500	 6.6230
 2.4510	 6.5860
 2.4520	 6.5570
 2.4530	 6.5210
 2.4540	 6.4980
 2.4550	 6.4900
 2.4560	 6.4670
 2.4570	 6.4520
 2.4580	 6.4410
 2.4590	 6.4220
 2.4600	 6.4040
 2.4610	 6.3860
 2.4620	 6.3640
 2.4630	 6.3380
 2.4640	 6.3260
 2.4650	 6.3200
 2.4660	 6.3090
 2.4670	 6.3050
 2.4680	 6.3000
 2.4690	 6.2800
 2.4700	 6.2540
 2.4710	 6.2070
 2.4720	 6.1840
 2.4730	 6.1700
 2.4740	 6.1610
 2.4750	 6.1740
 2.4760	 6.1730
 2.4770	 6.1710
 2.4780	 6.1590
 2.4790	 6.1390
 2.4800	 6.1330
 2.4810	 6.1220
 2.4820	 6.1200
 2.4830	 6.1050
 2.4840	 6.0800
 2.4850	 6.0720
 2.4860	 6.0790
 2.4870	 6.0720
 2.4880	 6.0520
 2.4890	 6.0090
 2.4900	 5.9580
 2.4910	 5.9390
 2.4920	 5.9300
 2.4930	 5.9290
 2.4940	 5.9310
 2.4950	 5.9460
 2.4960	 5.9790
 2.4970	 6.0080
 2.4980	 6.0200
 2.4990	 6.0180
 2.5000	 5.9970
