Name: Salvia leucophylla 2
Type: vegetation
Class: Shrub
Genus: Salvia
Species: leucophylla
Sample No.: VH094
Owner: UCSB
Wavelength Range: TIR
Origin: 34.698; -120.0477; WGS84
Collection Date: 4/21/2013
Description: Samples were collected as part of the HyspIRI Airborne Campaign. 48 individual plants were sampled in three times in 2013 - spring  summer  and fall. The name of the sample includes a 1  2  or 3 which references a different individual of the species. Samples were taken to JPL and processed within 48 hours of collection. The same leaves were processed in the Nicolet and then measured using the ASD.
Measurement: Hemispherical reflectance
First Column: X
Second Column: Y
X Units: Wavelength (micrometers)
Y Units: Reflectance (percentage)
First X Value: 2.501
Last X Value: 15.387
Number of X Values: 1737
Additional Information: vegetation.shrub.salvia.leucophylla.tir.vh094.ucsb.nicolet.ancillary.txt

 2.5010	19.4670
 2.5030	19.4720
 2.5040	19.5950
 2.5050	19.5670
 2.5060	19.5340
 2.5070	19.4660
 2.5090	19.6140
 2.5100	19.5970
 2.5110	19.5000
 2.5120	19.3630
 2.5140	19.4260
 2.5150	19.4800
 2.5160	19.4960
 2.5170	19.4030
 2.5180	19.3700
 2.5200	19.4390
 2.5210	19.5260
 2.5220	19.5240
 2.5230	19.4990
 2.5250	19.3960
 2.5260	19.4070
 2.5270	19.3640
 2.5280	19.3570
 2.5290	19.3380
 2.5310	19.4620
 2.5320	19.4190
 2.5330	19.4980
 2.5340	19.5570
 2.5360	19.5740
 2.5370	19.4540
 2.5380	19.4270
 2.5390	19.4700
 2.5410	19.4860
 2.5420	19.5540
 2.5430	19.5500
 2.5440	19.4790
 2.5460	19.6070
 2.5470	19.6050
 2.5480	19.5720
 2.5490	19.6330
 2.5510	19.6280
 2.5520	19.4780
 2.5530	19.4730
 2.5540	19.5970
 2.5560	19.7550
 2.5570	19.6360
 2.5580	19.6520
 2.5590	19.6670
 2.5610	19.5500
 2.5620	19.4400
 2.5630	19.4850
 2.5640	19.5260
 2.5660	19.6540
 2.5670	19.6980
 2.5680	19.7470
 2.5700	19.6410
 2.5710	19.6450
 2.5720	19.6730
 2.5730	19.6510
 2.5750	19.6080
 2.5760	19.6210
 2.5770	19.5390
 2.5790	19.6470
 2.5800	19.7420
 2.5810	19.7100
 2.5820	19.6300
 2.5840	19.5650
 2.5850	19.4800
 2.5860	19.4980
 2.5880	19.4900
 2.5890	19.6180
 2.5900	19.6400
 2.5910	19.5670
 2.5930	19.4640
 2.5940	19.3840
 2.5950	19.3510
 2.5970	19.4310
 2.5980	19.4100
 2.5990	19.4490
 2.6000	19.4570
 2.6020	19.4470
 2.6030	19.3660
 2.6040	19.3780
 2.6060	19.3780
 2.6070	19.3650
 2.6080	19.2500
 2.6100	19.2460
 2.6110	19.2500
 2.6120	19.2670
 2.6140	19.1840
 2.6150	19.2510
 2.6160	19.1520
 2.6180	19.0540
 2.6190	19.0970
 2.6200	19.0260
 2.6220	18.8970
 2.6230	19.0660
 2.6240	19.0540
 2.6260	18.8810
 2.6270	18.7120
 2.6280	18.7880
 2.6300	18.7590
 2.6310	18.7190
 2.6320	18.6700
 2.6340	18.6790
 2.6350	18.6660
 2.6360	18.7050
 2.6380	18.6560
 2.6390	18.6350
 2.6400	18.4910
 2.6420	18.4490
 2.6430	18.4340
 2.6440	18.3980
 2.6460	18.2870
 2.6470	18.2290
 2.6480	18.1640
 2.6500	18.2150
 2.6510	18.1360
 2.6520	18.0960
 2.6540	18.0730
 2.6550	17.9510
 2.6560	17.8140
 2.6580	17.7960
 2.6590	17.7780
 2.6610	17.7690
 2.6620	17.6550
 2.6630	17.6650
 2.6650	17.5880
 2.6660	17.3950
 2.6670	17.2390
 2.6690	17.2910
 2.6700	17.1370
 2.6720	17.0750
 2.6730	17.1560
 2.6740	17.0970
 2.6760	17.0510
 2.6770	17.0250
 2.6780	16.9610
 2.6800	17.0580
 2.6810	16.9300
 2.6830	16.7060
 2.6840	16.5600
 2.6850	16.7030
 2.6870	16.6240
 2.6880	16.5090
 2.6900	16.3190
 2.6910	16.1430
 2.6920	16.0060
 2.6940	15.9720
 2.6950	15.8360
 2.6970	15.7610
 2.6980	15.6440
 2.6990	15.4770
 2.7010	15.2960
 2.7020	15.2900
 2.7040	15.1610
 2.7050	15.0070
 2.7060	14.8270
 2.7080	14.6530
 2.7090	14.3540
 2.7110	14.1440
 2.7120	13.9520
 2.7130	13.8060
 2.7150	13.6670
 2.7160	13.5180
 2.7180	13.2340
 2.7190	13.0870
 2.7210	12.9710
 2.7220	12.8640
 2.7230	12.6070
 2.7250	12.4350
 2.7260	12.1880
 2.7280	12.0490
 2.7290	11.9250
 2.7310	11.7870
 2.7320	11.4810
 2.7330	11.2720
 2.7350	11.0990
 2.7360	11.0570
 2.7380	10.8320
 2.7390	10.5570
 2.7410	10.3630
 2.7420	10.2920
 2.7440	10.1640
 2.7450	10.0610
 2.7470	 9.8060
 2.7480	 9.6810
 2.7490	 9.6330
 2.7510	 9.5510
 2.7520	 9.3040
 2.7540	 9.2080
 2.7550	 8.9530
 2.7570	 8.8290
 2.7580	 8.7980
 2.7600	 8.7490
 2.7610	 8.5350
 2.7630	 8.4510
 2.7640	 8.3420
 2.7660	 8.2160
 2.7670	 8.0160
 2.7680	 7.9730
 2.7700	 7.8650
 2.7710	 7.6650
 2.7730	 7.5250
 2.7740	 7.4990
 2.7760	 7.5670
 2.7770	 7.5880
 2.7790	 7.4100
 2.7800	 7.2510
 2.7820	 7.1390
 2.7830	 7.0960
 2.7850	 6.9020
 2.7860	 6.7500
 2.7880	 6.6050
 2.7890	 6.6600
 2.7910	 6.6200
 2.7920	 6.5190
 2.7940	 6.4230
 2.7950	 6.4110
 2.7970	 6.3390
 2.7980	 6.3700
 2.8000	 6.2700
 2.8010	 6.1430
 2.8030	 5.9620
 2.8040	 6.0000
 2.8060	 5.9750
 2.8070	 5.9150
 2.8090	 5.7300
 2.8110	 5.8220
 2.8120	 5.7460
 2.8140	 5.7060
 2.8150	 5.7500
 2.8170	 5.6710
 2.8180	 5.4970
 2.8200	 5.4380
 2.8210	 5.3100
 2.8230	 5.3260
 2.8240	 5.3270
 2.8260	 5.4020
 2.8270	 5.3820
 2.8290	 5.4250
 2.8300	 5.4010
 2.8320	 5.4520
 2.8340	 5.3350
 2.8350	 5.2070
 2.8370	 5.0700
 2.8380	 5.1270
 2.8400	 5.0840
 2.8410	 5.0930
 2.8430	 5.0520
 2.8440	 5.0640
 2.8460	 4.9520
 2.8480	 4.9030
 2.8490	 4.7950
 2.8510	 4.8260
 2.8520	 4.8200
 2.8540	 4.7820
 2.8550	 4.7510
 2.8570	 4.8230
 2.8590	 4.8780
 2.8600	 4.8790
 2.8620	 4.7990
 2.8630	 4.6870
 2.8650	 4.5410
 2.8660	 4.6400
 2.8680	 4.5770
 2.8700	 4.4930
 2.8710	 4.3680
 2.8730	 4.4650
 2.8740	 4.4840
 2.8760	 4.4800
 2.8780	 4.3680
 2.8790	 4.3050
 2.8810	 4.2980
 2.8820	 4.3170
 2.8840	 4.2360
 2.8860	 4.4500
 2.8870	 4.4760
 2.8890	 4.4230
 2.8900	 4.3510
 2.8920	 4.3080
 2.8940	 4.2860
 2.8950	 4.2000
 2.8970	 4.1080
 2.8980	 4.3830
 2.9000	 4.3650
 2.9020	 4.3260
 2.9030	 4.2940
 2.9050	 4.2850
 2.9070	 4.2800
 2.9080	 4.2550
 2.9100	 4.2680
 2.9120	 4.3740
 2.9130	 4.3910
 2.9150	 4.3240
 2.9160	 4.1510
 2.9180	 4.1520
 2.9200	 4.2080
 2.9210	 4.2490
 2.9230	 4.2360
 2.9250	 4.1580
 2.9260	 4.1320
 2.9280	 4.2830
 2.9300	 4.2020
 2.9310	 4.1980
 2.9330	 4.1790
 2.9350	 4.1660
 2.9360	 4.1510
 2.9380	 4.1470
 2.9400	 4.0520
 2.9410	 4.1420
 2.9430	 4.2240
 2.9450	 4.3220
 2.9460	 4.3890
 2.9480	 4.3260
 2.9500	 4.1380
 2.9510	 4.3170
 2.9530	 4.3390
 2.9550	 4.1540
 2.9560	 4.0750
 2.9580	 4.1660
 2.9600	 4.1040
 2.9610	 4.2700
 2.9630	 4.3060
 2.9650	 3.9560
 2.9660	 4.0030
 2.9680	 4.4450
 2.9700	 4.8510
 2.9720	 4.9990
 2.9730	 3.8380
 2.9750	 3.7290
 2.9770	 4.0350
 2.9780	 4.1470
 2.9800	 4.3580
 2.9820	 4.5640
 2.9840	 4.5810
 2.9850	 4.4790
 2.9870	 4.2580
 2.9890	 4.3140
 2.9900	 4.5220
 2.9920	 4.4680
 2.9940	 4.5080
 2.9960	 4.5880
 2.9970	 4.5660
 2.9990	 4.6510
 3.0010	 4.5490
 3.0030	 4.5860
 3.0040	 4.6680
 3.0060	 4.6460
 3.0080	 4.7480
 3.0100	 4.9900
 3.0110	 5.1310
 3.0130	 4.6140
 3.0150	 4.2200
 3.0170	 4.7610
 3.0180	 4.9110
 3.0200	 4.5710
 3.0220	 4.5490
 3.0240	 4.8950
 3.0250	 4.8530
 3.0270	 4.7710
 3.0290	 4.8920
 3.0310	 4.9610
 3.0320	 5.0150
 3.0340	 5.0620
 3.0360	 4.9250
 3.0380	 5.0760
 3.0400	 5.0220
 3.0410	 4.8890
 3.0430	 5.0400
 3.0450	 5.2540
 3.0470	 5.0690
 3.0480	 4.9900
 3.0500	 5.0800
 3.0520	 5.5130
 3.0540	 5.1010
 3.0560	 4.8940
 3.0570	 4.9150
 3.0590	 4.7290
 3.0610	 5.1310
 3.0630	 5.3100
 3.0650	 4.8470
 3.0660	 4.9780
 3.0680	 5.2310
 3.0700	 5.3150
 3.0720	 5.2120
 3.0740	 5.3190
 3.0760	 5.3300
 3.0770	 5.3370
 3.0790	 5.2730
 3.0810	 5.4340
 3.0830	 5.4700
 3.0850	 5.5410
 3.0870	 5.5250
 3.0880	 5.5840
 3.0900	 5.5740
 3.0920	 5.5950
 3.0940	 5.5360
 3.0960	 5.5740
 3.0980	 5.5560
 3.0990	 5.6130
 3.1010	 5.6100
 3.1030	 5.5910
 3.1050	 5.6670
 3.1070	 5.8190
 3.1090	 5.8010
 3.1110	 6.0120
 3.1120	 6.0290
 3.1140	 6.0210
 3.1160	 5.9740
 3.1180	 6.0030
 3.1200	 5.8940
 3.1220	 5.8700
 3.1240	 5.8710
 3.1260	 5.8780
 3.1270	 5.8650
 3.1290	 5.9830
 3.1310	 6.0900
 3.1330	 6.2720
 3.1350	 6.1850
 3.1370	 6.1760
 3.1390	 6.1170
 3.1410	 5.9430
 3.1430	 6.0410
 3.1450	 6.3740
 3.1460	 6.3940
 3.1480	 6.2190
 3.1500	 6.2070
 3.1520	 6.3780
 3.1540	 6.4510
 3.1560	 6.3940
 3.1580	 6.3100
 3.1600	 6.3260
 3.1620	 6.4210
 3.1640	 6.5800
 3.1660	 6.5660
 3.1680	 6.5150
 3.1700	 6.4970
 3.1710	 6.6730
 3.1730	 7.0730
 3.1750	 7.3940
 3.1770	 7.1520
 3.1790	 6.2200
 3.1810	 6.0900
 3.1830	 6.8320
 3.1850	 6.6940
 3.1870	 6.8230
 3.1890	 7.1740
 3.1910	 7.0450
 3.1930	 6.8600
 3.1950	 6.9120
 3.1970	 6.7900
 3.1990	 6.8720
 3.2010	 6.9690
 3.2030	 7.0750
 3.2050	 7.0260
 3.2070	 7.0280
 3.2090	 7.0060
 3.2110	 7.0200
 3.2130	 7.1000
 3.2150	 7.1710
 3.2170	 7.1370
 3.2190	 7.2340
 3.2210	 7.2950
 3.2230	 7.3370
 3.2250	 7.2150
 3.2270	 7.1700
 3.2290	 7.1180
 3.2310	 7.1370
 3.2330	 7.0560
 3.2350	 7.1490
 3.2370	 7.2660
 3.2390	 7.3980
 3.2410	 7.3640
 3.2430	 7.2360
 3.2450	 7.2130
 3.2470	 7.2520
 3.2490	 7.2300
 3.2510	 7.3130
 3.2530	 7.3750
 3.2550	 7.3660
 3.2570	 7.3530
 3.2590	 7.3930
 3.2610	 7.4050
 3.2630	 7.6120
 3.2650	 7.6430
 3.2670	 7.6190
 3.2690	 7.5310
 3.2720	 7.4900
 3.2740	 7.4180
 3.2760	 7.4090
 3.2780	 7.4560
 3.2800	 7.5860
 3.2820	 7.4840
 3.2840	 7.4520
 3.2860	 7.4460
 3.2880	 7.5090
 3.2900	 7.4380
 3.2920	 7.4620
 3.2940	 7.4940
 3.2960	 7.4950
 3.2990	 7.4320
 3.3010	 7.4520
 3.3030	 7.4050
 3.3050	 7.4120
 3.3070	 7.2690
 3.3090	 7.2610
 3.3110	 7.2300
 3.3130	 7.1850
 3.3150	 7.1020
 3.3180	 7.0100
 3.3200	 6.9350
 3.3220	 6.9100
 3.3240	 6.8090
 3.3260	 6.7210
 3.3280	 6.4880
 3.3300	 6.3080
 3.3330	 6.1940
 3.3350	 6.2590
 3.3370	 6.1130
 3.3390	 6.0020
 3.3410	 5.8830
 3.3430	 5.7510
 3.3450	 5.6340
 3.3480	 5.4990
 3.3500	 5.3760
 3.3520	 5.2920
 3.3540	 5.2010
 3.3560	 5.1620
 3.3580	 5.0390
 3.3610	 4.9560
 3.3630	 4.8730
 3.3650	 4.7930
 3.3670	 4.6650
 3.3690	 4.7130
 3.3720	 4.5970
 3.3740	 4.5280
 3.3760	 4.4150
 3.3780	 4.4060
 3.3800	 4.3510
 3.3830	 4.2130
 3.3850	 4.0420
 3.3870	 3.9640
 3.3890	 3.8940
 3.3910	 3.7240
 3.3940	 3.5290
 3.3960	 3.5250
 3.3980	 3.4470
 3.4000	 3.3960
 3.4020	 3.3300
 3.4050	 3.4130
 3.4070	 3.4820
 3.4090	 3.5530
 3.4110	 3.5200
 3.4140	 3.5100
 3.4160	 3.4420
 3.4180	 3.4980
 3.4200	 3.5970
 3.4230	 3.7510
 3.4250	 3.8250
 3.4270	 3.8820
 3.4290	 3.9990
 3.4320	 4.2300
 3.4340	 4.3240
 3.4360	 4.3960
 3.4390	 4.4090
 3.4410	 4.4100
 3.4430	 4.3970
 3.4450	 4.5290
 3.4480	 4.6820
 3.4500	 4.7700
 3.4520	 4.8550
 3.4550	 4.9940
 3.4570	 5.0420
 3.4590	 5.1320
 3.4620	 5.1250
 3.4640	 5.1670
 3.4660	 5.1850
 3.4680	 5.2730
 3.4710	 5.2870
 3.4730	 5.2690
 3.4750	 5.2450
 3.4780	 5.2300
 3.4800	 5.0970
 3.4820	 5.0740
 3.4850	 5.0190
 3.4870	 5.0090
 3.4890	 4.8940
 3.4920	 4.7970
 3.4940	 4.6450
 3.4970	 4.5540
 3.4990	 4.5280
 3.5010	 4.5970
 3.5040	 4.6590
 3.5060	 4.7610
 3.5080	 4.8220
 3.5110	 5.0490
 3.5130	 5.3210
 3.5160	 5.6880
 3.5180	 6.0670
 3.5200	 6.3900
 3.5230	 6.6040
 3.5250	 6.9380
 3.5270	 7.1520
 3.5300	 7.3530
 3.5320	 7.5420
 3.5350	 7.7980
 3.5370	 7.9840
 3.5400	 8.1810
 3.5420	 8.2180
 3.5440	 8.2900
 3.5470	 8.4400
 3.5490	 8.6100
 3.5520	 8.6700
 3.5540	 8.7800
 3.5570	 8.8200
 3.5590	 8.8830
 3.5610	 8.9310
 3.5640	 9.0290
 3.5660	 9.1150
 3.5690	 9.2370
 3.5710	 9.2990
 3.5740	 9.3930
 3.5760	 9.4510
 3.5790	 9.5750
 3.5810	 9.5430
 3.5840	 9.6220
 3.5860	 9.7250
 3.5890	 9.7580
 3.5910	 9.7990
 3.5930	 9.8710
 3.5960	 9.9290
 3.5980	10.0380
 3.6010	10.0760
 3.6030	10.1200
 3.6060	10.1160
 3.6080	10.1500
 3.6110	10.1680
 3.6140	10.2860
 3.6160	10.3480
 3.6190	10.2900
 3.6210	10.2570
 3.6240	10.3230
 3.6260	10.2990
 3.6290	10.3260
 3.6310	10.3530
 3.6340	10.3740
 3.6360	10.3370
 3.6390	10.4100
 3.6410	10.4100
 3.6440	10.4470
 3.6470	10.4550
 3.6490	10.4730
 3.6520	10.4770
 3.6540	10.5080
 3.6570	10.4510
 3.6590	10.4190
 3.6620	10.4510
 3.6650	10.5200
 3.6670	10.5180
 3.6700	10.5200
 3.6720	10.5390
 3.6750	10.5720
 3.6780	10.5310
 3.6800	10.5500
 3.6830	10.5800
 3.6850	10.6730
 3.6880	10.7090
 3.6910	10.7160
 3.6930	10.6340
 3.6960	10.6370
 3.6990	10.6360
 3.7010	10.7230
 3.7040	10.7520
 3.7060	10.7570
 3.7090	10.7610
 3.7120	10.8410
 3.7140	10.8310
 3.7170	10.7940
 3.7200	10.7970
 3.7220	10.8270
 3.7250	10.7870
 3.7280	10.8040
 3.7300	10.8320
 3.7330	10.9130
 3.7360	10.9690
 3.7390	10.9590
 3.7410	10.8960
 3.7440	10.8770
 3.7470	10.8730
 3.7490	10.9190
 3.7520	10.9320
 3.7550	10.9390
 3.7580	10.8960
 3.7600	10.9420
 3.7630	10.9650
 3.7660	10.9630
 3.7680	10.9110
 3.7710	10.9330
 3.7740	10.9260
 3.7770	10.9350
 3.7790	10.9460
 3.7820	11.0290
 3.7850	11.1120
 3.7880	11.1500
 3.7900	11.1290
 3.7930	11.1990
 3.7960	11.2180
 3.7990	11.1950
 3.8020	11.1950
 3.8040	11.2500
 3.8070	11.1800
 3.8100	11.1710
 3.8130	11.1850
 3.8160	11.2220
 3.8180	11.2890
 3.8210	11.4040
 3.8240	11.4180
 3.8270	11.3980
 3.8300	11.3980
 3.8330	11.4380
 3.8350	11.4490
 3.8380	11.4970
 3.8410	11.5640
 3.8440	11.6510
 3.8470	11.6730
 3.8500	11.7270
 3.8520	11.7590
 3.8550	11.7990
 3.8580	11.7230
 3.8610	11.7160
 3.8640	11.7760
 3.8670	11.8200
 3.8700	11.7550
 3.8730	11.7780
 3.8750	11.8850
 3.8780	11.9700
 3.8810	11.9860
 3.8840	12.0440
 3.8870	12.0270
 3.8900	12.0210
 3.8930	12.0670
 3.8960	12.1410
 3.8990	12.1860
 3.9020	12.1930
 3.9050	12.1730
 3.9080	12.2090
 3.9110	12.2600
 3.9140	12.3130
 3.9160	12.3170
 3.9190	12.4060
 3.9220	12.4300
 3.9250	12.4220
 3.9280	12.4400
 3.9310	12.4410
 3.9340	12.4400
 3.9370	12.4480
 3.9400	12.4230
 3.9430	12.5480
 3.9460	12.6150
 3.9490	12.6200
 3.9520	12.6020
 3.9550	12.5700
 3.9580	12.5480
 3.9610	12.6740
 3.9640	12.7740
 3.9670	12.8230
 3.9700	12.8390
 3.9730	12.8990
 3.9770	13.0180
 3.9800	13.1050
 3.9830	13.1050
 3.9860	13.1160
 3.9890	13.1530
 3.9920	13.1350
 3.9950	13.1400
 3.9980	13.2830
 4.0010	13.3160
 4.0040	13.3240
 4.0070	13.3720
 4.0100	13.4200
 4.0130	13.4680
 4.0170	13.5410
 4.0200	13.5510
 4.0230	13.5900
 4.0260	13.6390
 4.0290	13.6550
 4.0320	13.6680
 4.0350	13.7230
 4.0380	13.7590
 4.0420	13.8160
 4.0450	13.8670
 4.0480	13.9070
 4.0510	13.9860
 4.0540	14.0460
 4.0570	14.0270
 4.0610	14.1160
 4.0640	14.1560
 4.0670	14.1370
 4.0700	14.1420
 4.0730	14.2580
 4.0770	14.2890
 4.0800	14.2900
 4.0830	14.3100
 4.0860	14.2810
 4.0890	14.2740
 4.0930	14.3720
 4.0960	14.4830
 4.0990	14.5790
 4.1020	14.5350
 4.1060	14.5550
 4.1090	14.5170
 4.1120	14.5430
 4.1150	14.6100
 4.1190	14.6400
 4.1220	14.6620
 4.1250	14.6970
 4.1280	14.7070
 4.1320	14.7810
 4.1350	14.7800
 4.1380	14.7650
 4.1420	14.7480
 4.1450	14.7710
 4.1480	14.7780
 4.1520	14.8230
 4.1550	14.8550
 4.1580	14.8520
 4.1620	14.8420
 4.1650	14.8430
 4.1680	14.8910
 4.1720	15.0110
 4.1750	15.0080
 4.1780	14.9690
 4.1820	14.9690
 4.1850	14.9980
 4.1890	15.0400
 4.1920	15.0860
 4.1950	15.1060
 4.1990	15.1710
 4.2020	15.2730
 4.2060	15.4530
 4.2090	15.5760
 4.2120	15.6810
 4.2160	15.7830
 4.2190	15.8700
 4.2230	15.8800
 4.2260	16.1150
 4.2300	16.4080
 4.2330	16.4790
 4.2360	16.4990
 4.2400	16.5430
 4.2430	16.0970
 4.2470	16.0820
 4.2500	16.0010
 4.2540	15.8820
 4.2570	15.8340
 4.2610	15.9830
 4.2640	16.1490
 4.2680	16.0990
 4.2710	16.1130
 4.2750	16.1190
 4.2780	15.9480
 4.2820	15.9950
 4.2850	16.1320
 4.2890	16.0840
 4.2930	16.0080
 4.2960	16.0050
 4.3000	15.8870
 4.3030	15.8080
 4.3070	15.7600
 4.3100	15.7230
 4.3140	15.6990
 4.3180	15.6280
 4.3210	15.5480
 4.3250	15.5480
 4.3280	15.4980
 4.3320	15.5050
 4.3360	15.5230
 4.3390	15.4180
 4.3430	15.3580
 4.3470	15.3880
 4.3500	15.3760
 4.3540	15.3450
 4.3570	15.3120
 4.3610	15.3040
 4.3650	15.3260
 4.3680	15.3360
 4.3720	15.3210
 4.3760	15.3410
 4.3800	15.3170
 4.3830	15.2930
 4.3870	15.3290
 4.3910	15.3320
 4.3940	15.2750
 4.3980	15.2410
 4.4020	15.2850
 4.4060	15.3460
 4.4090	15.3120
 4.4130	15.2970
 4.4170	15.3210
 4.4210	15.2830
 4.4240	15.3110
 4.4280	15.3450
 4.4320	15.2580
 4.4360	15.2250
 4.4400	15.2680
 4.4430	15.2370
 4.4470	15.1790
 4.4510	15.1860
 4.4550	15.1930
 4.4590	15.2110
 4.4620	15.1980
 4.4660	15.1960
 4.4700	15.2280
 4.4740	15.2160
 4.4780	15.2390
 4.4820	15.2190
 4.4860	15.1900
 4.4900	15.1900
 4.4930	15.1540
 4.4970	15.1430
 4.5010	15.1260
 4.5050	15.0850
 4.5090	15.1000
 4.5130	15.1240
 4.5170	15.0710
 4.5210	15.0330
 4.5250	15.0230
 4.5290	15.0210
 4.5330	15.0140
 4.5370	14.9950
 4.5410	14.9930
 4.5450	14.9770
 4.5490	14.9460
 4.5530	14.9110
 4.5570	14.9120
 4.5610	14.9160
 4.5650	14.9540
 4.5690	14.9730
 4.5730	14.9380
 4.5770	14.9280
 4.5810	14.8750
 4.5850	14.8540
 4.5890	14.9000
 4.5930	14.9620
 4.5970	14.9810
 4.6010	14.9260
 4.6050	14.8720
 4.6090	14.9170
 4.6130	14.9710
 4.6170	14.8950
 4.6220	14.8750
 4.6260	14.9730
 4.6300	14.9680
 4.6340	15.0010
 4.6380	14.9570
 4.6420	14.9080
 4.6460	14.8800
 4.6510	14.8830
 4.6550	14.9150
 4.6590	14.9150
 4.6630	14.8990
 4.6670	14.9070
 4.6720	14.9280
 4.6760	14.9140
 4.6800	14.8880
 4.6840	14.9000
 4.6880	14.9590
 4.6930	14.9730
 4.6970	14.9880
 4.7010	15.0100
 4.7050	14.9630
 4.7100	14.9510
 4.7140	14.9710
 4.7180	14.9770
 4.7230	14.9970
 4.7270	15.0070
 4.7310	14.9810
 4.7360	14.9610
 4.7400	14.9940
 4.7440	15.0220
 4.7490	15.0050
 4.7530	14.9720
 4.7570	14.9620
 4.7620	15.0420
 4.7660	15.1510
 4.7700	15.1270
 4.7750	15.0840
 4.7790	15.1390
 4.7840	15.1300
 4.7880	15.1090
 4.7920	15.1620
 4.7970	15.1430
 4.8010	15.1530
 4.8060	15.1050
 4.8100	15.0650
 4.8150	15.1430
 4.8190	15.1760
 4.8240	15.1610
 4.8280	15.1810
 4.8330	15.1760
 4.8370	15.1740
 4.8420	15.1530
 4.8460	15.2380
 4.8510	15.3130
 4.8550	15.2890
 4.8600	15.1880
 4.8640	15.1950
 4.8690	15.2520
 4.8730	15.2840
 4.8780	15.2960
 4.8830	15.2640
 4.8870	15.2120
 4.8920	15.2630
 4.8960	15.3000
 4.9010	15.3170
 4.9060	15.3310
 4.9100	15.3130
 4.9150	15.2810
 4.9200	15.2840
 4.9240	15.3370
 4.9290	15.3780
 4.9340	15.3630
 4.9380	15.3570
 4.9430	15.3420
 4.9480	15.4170
 4.9530	15.4660
 4.9570	15.5060
 4.9620	15.5050
 4.9670	15.5250
 4.9720	15.5710
 4.9760	15.6120
 4.9810	15.5870
 4.9860	15.5540
 4.9910	15.4820
 4.9960	15.5080
 5.0000	15.5840
 5.0050	15.6620
 5.0100	15.6230
 5.0150	15.6210
 5.0200	15.6780
 5.0250	15.7390
 5.0290	15.7110
 5.0340	15.7100
 5.0390	15.7950
 5.0440	15.8270
 5.0490	15.7990
 5.0540	15.8330
 5.0590	15.8990
 5.0640	15.8880
 5.0690	15.8640
 5.0740	15.8980
 5.0790	15.9110
 5.0840	15.9410
 5.0890	15.9260
 5.0940	15.9240
 5.0990	15.9110
 5.1040	15.9210
 5.1090	15.9100
 5.1140	15.8850
 5.1190	15.9200
 5.1240	15.9800
 5.1290	16.0150
 5.1340	16.0600
 5.1390	16.0550
 5.1440	16.0100
 5.1490	15.9430
 5.1540	15.9210
 5.1600	15.9950
 5.1650	16.0870
 5.1700	16.0290
 5.1750	15.9740
 5.1800	15.9870
 5.1850	16.0340
 5.1910	15.9640
 5.1960	15.9520
 5.2010	15.9530
 5.2060	15.9310
 5.2110	15.9130
 5.2170	15.9930
 5.2220	16.0070
 5.2270	15.9300
 5.2320	15.8340
 5.2380	15.9010
 5.2430	15.9350
 5.2480	15.8890
 5.2540	15.8700
 5.2590	15.8880
 5.2640	15.8860
 5.2700	15.8630
 5.2750	15.8550
 5.2800	15.8950
 5.2860	15.8380
 5.2910	15.7940
 5.2970	15.7500
 5.3020	15.7690
 5.3070	15.8030
 5.3130	15.7800
 5.3180	15.7230
 5.3240	15.7000
 5.3290	15.6740
 5.3350	15.6630
 5.3400	15.6540
 5.3460	15.6390
 5.3510	15.6300
 5.3570	15.6690
 5.3620	15.6220
 5.3680	15.5940
 5.3730	15.5840
 5.3790	15.5480
 5.3850	15.4780
 5.3900	15.4800
 5.3960	15.4510
 5.4010	15.3990
 5.4070	15.3530
 5.4130	15.3630
 5.4180	15.3330
 5.4240	15.3030
 5.4300	15.2400
 5.4350	15.1970
 5.4410	15.1750
 5.4470	15.2130
 5.4530	15.1660
 5.4580	15.0840
 5.4640	15.0040
 5.4700	14.9620
 5.4760	14.8660
 5.4810	14.8040
 5.4870	14.7960
 5.4930	14.7830
 5.4990	14.6830
 5.5050	14.6100
 5.5110	14.5230
 5.5160	14.4440
 5.5220	14.3520
 5.5280	14.2870
 5.5340	14.1920
 5.5400	14.0960
 5.5460	13.9530
 5.5520	13.8920
 5.5580	13.8070
 5.5640	13.7160
 5.5700	13.5770
 5.5760	13.4220
 5.5820	13.2480
 5.5880	13.1490
 5.5940	12.9600
 5.6000	12.7520
 5.6060	12.5280
 5.6120	12.3810
 5.6180	12.1840
 5.6240	12.0010
 5.6300	11.7490
 5.6360	11.5150
 5.6420	11.2670
 5.6490	11.0540
 5.6550	10.6930
 5.6610	10.3280
 5.6670	 9.9390
 5.6730	 9.5610
 5.6800	 9.1520
 5.6860	 8.7280
 5.6920	 8.1420
 5.6980	 7.6670
 5.7040	 7.2870
 5.7110	 6.8400
 5.7170	 6.3080
 5.7230	 5.8110
 5.7300	 5.2620
 5.7360	 4.8440
 5.7420	 4.4430
 5.7490	 4.2060
 5.7550	 4.1920
 5.7620	 4.2150
 5.7680	 4.1990
 5.7740	 4.2800
 5.7810	 4.4310
 5.7870	 4.6880
 5.7940	 4.8350
 5.8000	 5.0130
 5.8070	 5.1140
 5.8130	 5.1740
 5.8200	 5.2840
 5.8260	 5.4010
 5.8330	 5.4980
 5.8390	 5.5460
 5.8460	 5.5690
 5.8530	 5.7470
 5.8590	 5.8340
 5.8660	 5.8910
 5.8720	 5.8120
 5.8790	 5.6480
 5.8860	 5.4770
 5.8920	 5.3390
 5.8990	 5.1970
 5.9060	 5.1190
 5.9130	 5.0270
 5.9190	 5.0550
 5.9260	 5.1020
 5.9330	 5.2240
 5.9400	 5.5190
 5.9470	 6.0250
 5.9530	 6.4750
 5.9600	 6.9190
 5.9670	 7.1590
 5.9740	 7.3410
 5.9810	 7.5960
 5.9880	 7.6820
 5.9950	 7.5580
 6.0020	 7.5840
 6.0090	 7.5580
 6.0160	 7.5920
 6.0230	 7.5430
 6.0300	 7.5110
 6.0370	 7.4560
 6.0440	 7.4050
 6.0510	 7.2690
 6.0580	 7.3690
 6.0650	 7.4320
 6.0720	 7.4140
 6.0790	 7.4730
 6.0860	 7.6600
 6.0930	 7.6620
 6.1000	 7.6420
 6.1080	 7.5940
 6.1150	 7.7250
 6.1220	 7.8570
 6.1290	 7.9250
 6.1370	 7.8310
 6.1440	 7.9170
 6.1510	 7.9510
 6.1580	 7.9760
 6.1660	 7.9170
 6.1730	 7.8890
 6.1800	 7.8160
 6.1880	 7.7780
 6.1950	 7.6750
 6.2030	 7.6820
 6.2100	 7.6680
 6.2170	 7.6230
 6.2250	 7.5900
 6.2320	 7.7070
 6.2400	 7.8930
 6.2470	 8.2500
 6.2550	 8.5830
 6.2630	 8.8780
 6.2700	 8.9370
 6.2780	 9.1080
 6.2850	 9.1960
 6.2930	 9.3860
 6.3010	 9.6080
 6.3080	 9.8360
 6.3160	 9.9490
 6.3240	10.1500
 6.3310	10.2820
 6.3390	10.3360
 6.3470	10.3830
 6.3550	10.6160
 6.3620	10.7160
 6.3700	10.8130
 6.3780	10.9600
 6.3860	11.1240
 6.3940	11.1320
 6.4020	11.2310
 6.4100	11.2290
 6.4180	11.3190
 6.4260	11.4090
 6.4330	11.4860
 6.4410	11.4760
 6.4490	11.5210
 6.4580	11.5380
 6.4660	11.5330
 6.4740	11.5810
 6.4820	11.6840
 6.4900	11.6180
 6.4980	11.6330
 6.5060	11.6760
 6.5140	11.7690
 6.5230	11.8110
 6.5310	11.8720
 6.5390	11.8700
 6.5470	11.8350
 6.5550	11.6750
 6.5640	11.6330
 6.5720	11.4670
 6.5800	11.3020
 6.5890	11.1390
 6.5970	11.1600
 6.6060	11.2240
 6.6140	11.3310
 6.6220	11.2600
 6.6310	11.1990
 6.6390	11.1300
 6.6480	11.2230
 6.6560	11.2340
 6.6650	11.2240
 6.6740	11.1440
 6.6820	11.1620
 6.6910	11.0800
 6.6990	11.0580
 6.7080	10.8140
 6.7170	10.5920
 6.7260	10.3170
 6.7340	 9.9750
 6.7430	 9.5070
 6.7520	 9.1430
 6.7610	 8.7930
 6.7690	 8.4610
 6.7780	 7.9900
 6.7870	 7.5410
 6.7960	 6.9810
 6.8050	 6.5790
 6.8140	 6.2630
 6.8230	 6.1470
 6.8320	 6.0380
 6.8410	 6.0910
 6.8500	 6.1000
 6.8590	 6.1920
 6.8680	 6.2090
 6.8770	 6.4020
 6.8860	 6.6310
 6.8950	 6.9220
 6.9050	 6.9240
 6.9140	 6.9460
 6.9230	 6.9980
 6.9320	 7.0600
 6.9420	 6.9940
 6.9510	 7.0840
 6.9600	 7.0870
 6.9700	 7.0760
 6.9790	 7.0100
 6.9880	 7.0670
 6.9980	 7.0540
 7.0070	 7.1760
 7.0170	 7.2510
 7.0260	 7.3890
 7.0360	 7.3960
 7.0450	 7.3870
 7.0550	 7.3450
 7.0650	 7.5320
 7.0740	 7.6790
 7.0840	 7.8300
 7.0940	 7.8190
 7.1030	 7.8820
 7.1130	 7.8230
 7.1230	 7.8200
 7.1330	 7.7880
 7.1420	 7.8170
 7.1520	 7.7700
 7.1620	 7.7340
 7.1720	 7.4380
 7.1820	 7.2370
 7.1920	 6.9090
 7.2020	 6.6910
 7.2120	 6.5740
 7.2220	 6.7400
 7.2320	 6.8220
 7.2420	 6.9070
 7.2520	 6.7510
 7.2620	 6.5710
 7.2730	 6.4050
 7.2830	 6.5620
 7.2930	 6.5470
 7.3030	 6.5260
 7.3140	 6.4770
 7.3240	 6.5400
 7.3340	 6.6170
 7.3450	 6.7760
 7.3550	 6.6780
 7.3660	 6.7320
 7.3760	 6.8710
 7.3870	 7.0890
 7.3970	 7.0780
 7.4080	 7.1650
 7.4180	 7.1940
 7.4290	 7.2330
 7.4400	 7.1410
 7.4500	 7.1450
 7.4610	 7.0740
 7.4720	 7.1360
 7.4830	 7.0640
 7.4930	 7.0180
 7.5040	 6.8420
 7.5150	 6.7910
 7.5260	 6.7130
 7.5370	 6.7570
 7.5480	 6.6500
 7.5590	 6.5940
 7.5700	 6.4700
 7.5810	 6.4740
 7.5920	 6.3740
 7.6030	 6.3700
 7.6140	 6.4020
 7.6260	 6.5390
 7.6370	 6.5300
 7.6480	 6.6750
 7.6590	 6.6660
 7.6710	 6.7470
 7.6820	 6.7200
 7.6930	 6.8400
 7.7050	 6.7160
 7.7160	 6.7030
 7.7280	 6.6520
 7.7390	 6.6070
 7.7510	 6.4520
 7.7630	 6.4960
 7.7740	 6.4250
 7.7860	 6.3910
 7.7980	 6.2890
 7.8090	 6.3460
 7.8210	 6.3000
 7.8330	 6.2790
 7.8450	 6.1090
 7.8570	 6.1480
 7.8690	 6.1230
 7.8810	 6.2210
 7.8930	 6.2580
 7.9050	 6.3560
 7.9170	 6.2800
 7.9290	 6.3240
 7.9410	 6.1480
 7.9530	 6.0930
 7.9650	 5.9430
 7.9780	 5.9790
 7.9900	 5.9060
 8.0020	 5.9940
 8.0150	 6.0840
 8.0270	 6.2460
 8.0390	 6.0790
 8.0520	 6.1120
 8.0640	 5.9840
 8.0770	 5.9760
 8.0900	 6.0350
 8.1020	 6.3620
 8.1150	 6.3610
 8.1280	 6.4370
 8.1400	 6.3550
 8.1530	 6.6640
 8.1660	 6.8670
 8.1790	 6.9660
 8.1920	 6.8210
 8.2050	 6.8810
 8.2180	 6.7940
 8.2310	 6.8470
 8.2440	 6.7000
 8.2570	 6.8310
 8.2700	 6.7410
 8.2830	 6.6490
 8.2970	 6.4750
 8.3100	 6.6860
 8.3230	 6.6310
 8.3370	 6.5660
 8.3500	 6.4410
 8.3640	 6.5160
 8.3770	 6.2800
 8.3910	 6.2600
 8.4040	 6.0940
 8.4180	 6.1540
 8.4320	 5.9850
 8.4450	 6.0860
 8.4590	 6.1120
 8.4730	 6.1580
 8.4870	 5.9320
 8.5010	 5.8420
 8.5150	 5.6990
 8.5290	 5.7980
 8.5430	 5.6540
 8.5570	 5.7090
 8.5710	 5.4650
 8.5850	 5.4990
 8.5990	 5.5350
 8.6140	 5.7670
 8.6280	 5.8180
 8.6420	 5.9970
 8.6570	 6.0260
 8.6710	 6.2960
 8.6860	 6.3070
 8.7000	 6.4990
 8.7150	 6.3670
 8.7300	 6.4160
 8.7440	 6.3790
 8.7590	 6.5840
 8.7740	 6.5380
 8.7890	 6.5280
 8.8040	 6.4730
 8.8190	 6.7480
 8.8340	 6.4970
 8.8490	 6.4500
 8.8640	 6.3050
 8.8790	 6.4150
 8.8940	 6.1050
 8.9100	 5.9730
 8.9250	 5.8180
 8.9400	 5.6310
 8.9560	 5.2840
 8.9710	 5.2910
 8.9870	 5.1440
 9.0020	 5.1540
 9.0180	 4.9570
 9.0340	 5.0670
 9.0500	 5.0360
 9.0650	 5.2390
 9.0810	 5.2590
 9.0970	 5.4280
 9.1130	 5.3670
 9.1290	 5.5090
 9.1450	 5.4360
 9.1610	 5.6240
 9.1780	 5.5230
 9.1940	 5.6660
 9.2100	 5.4400
 9.2270	 5.4470
 9.2430	 5.2890
 9.2600	 5.3070
 9.2760	 5.0480
 9.2930	 5.1310
 9.3090	 4.9850
 9.3260	 5.0190
 9.3430	 4.8380
 9.3600	 4.8360
 9.3770	 4.6590
 9.3940	 4.8490
 9.4110	 4.7270
 9.4280	 4.8180
 9.4450	 4.7530
 9.4620	 4.8590
 9.4800	 4.7110
 9.4970	 4.9370
 9.5140	 4.8960
 9.5320	 5.0670
 9.5500	 4.9940
 9.5670	 5.1050
 9.5850	 4.9400
 9.6030	 4.9540
 9.6200	 4.7890
 9.6380	 5.0420
 9.6560	 5.1110
 9.6740	 5.2030
 9.6920	 5.0480
 9.7100	 5.3500
 9.7290	 5.4090
 9.7470	 5.4850
 9.7650	 5.4040
 9.7840	 5.8330
 9.8020	 5.9060
 9.8210	 6.0230
 9.8390	 5.9530
 9.8580	 6.1760
 9.8770	 6.2130
 9.8960	 6.4470
 9.9150	 6.2630
 9.9340	 6.4650
 9.9530	 6.4580
 9.9720	 6.6120
 9.9910	 6.4910
10.0100	 6.5930
10.0300	 6.6220
10.0490	 6.8640
10.0690	 6.8010
10.0880	 7.1700
10.1080	 7.3200
10.1280	 7.6290
10.1480	 7.5790
10.1670	 7.8260
10.1870	 7.9210
10.2070	 8.0600
10.2280	 7.9870
10.2480	 8.1300
10.2680	 7.9880
10.2890	 8.1790
10.3090	 8.1540
10.3300	 8.3030
10.3500	 8.1440
10.3710	 8.1670
10.3920	 8.0660
10.4120	 8.2290
10.4330	 8.1610
10.4540	 8.4310
10.4760	 8.4300
10.4970	 8.6080
10.5180	 8.5420
10.5390	 8.8030
10.5610	 8.9230
10.5820	 9.2370
10.6040	 9.1560
10.6260	 9.4800
10.6480	 9.5790
10.6700	 9.8140
10.6920	 9.7580
10.7140	 9.7920
10.7360	 9.5740
10.7580	 9.6650
10.7800	 9.6000
10.8030	 9.8330
10.8250	 9.5570
10.8480	 9.4250
10.8710	 9.2370
10.8940	 9.3720
10.9170	 9.1050
10.9400	 9.2060
10.9630	 9.0560
10.9860	 9.2200
11.0090	 9.2250
11.0330	 9.4090
11.0560	 9.2360
11.0800	 9.2440
11.1040	 9.1340
11.1270	 9.3900
11.1510	 9.1600
11.1750	 9.0740
11.2000	 8.7880
11.2240	 8.9310
11.2480	 8.8290
11.2730	 9.1770
11.2970	 9.3440
11.3220	 9.3010
11.3470	 9.0250
11.3720	 9.2370
11.3970	 9.1480
11.4220	 9.2750
11.4470	 9.1050
11.4720	 9.4020
11.4980	 9.2160
11.5230	 9.3480
11.5490	 9.1570
11.5750	 9.1220
11.6000	 8.9650
11.6260	 9.1880
11.6530	 8.9340
11.6790	 8.9700
11.7050	 8.6940
11.7320	 8.6890
11.7580	 8.5150
11.7850	 8.7070
11.8120	 8.4490
11.8390	 8.4660
11.8660	 8.1150
11.8930	 8.2970
11.9200	 8.1460
11.9480	 8.2970
11.9760	 7.9980
12.0030	 8.0080
12.0310	 7.6800
12.0590	 7.9680
12.0870	 7.9440
12.1150	 7.9550
12.1440	 7.6720
12.1720	 7.9300
12.2010	 7.6740
12.2300	 7.8410
12.2590	 7.6130
12.2880	 7.7850
12.3170	 7.5050
12.3460	 7.6140
12.3760	 7.4190
12.4050	 7.5840
12.4350	 7.4370
12.4650	 7.6630
12.4950	 7.3320
12.5250	 7.4140
12.5550	 7.2090
12.5860	 7.3620
12.6170	 7.1170
12.6470	 7.2110
12.6780	 6.9710
12.7090	 7.1810
12.7410	 6.7200
12.7720	 6.7650
12.8030	 6.6650
12.8350	 6.8480
12.8670	 6.4430
12.8990	 6.6200
12.9310	 6.4620
12.9640	 6.6550
12.9960	 6.4600
13.0290	 6.5060
13.0610	 6.0880
13.0940	 6.3500
13.1280	 6.2490
13.1610	 6.3710
13.1940	 6.0910
13.2280	 6.1860
13.2620	 6.0070
13.2960	 6.4440
13.3300	 6.0630
13.3640	 6.1030
13.3990	 5.8870
13.4340	 6.0750
13.4690	 5.7840
13.5040	 6.0470
13.5390	 5.7150
13.5740	 5.9400
13.6100	 5.6840
13.6460	 5.7450
13.6820	 5.4950
13.7180	 5.7510
13.7540	 5.3410
13.7910	 5.7630
13.8280	 5.4280
13.8650	 5.6390
13.9020	 5.4170
13.9390	 5.8120
13.9770	 5.6310
14.0150	 6.0730
14.0530	 5.6770
14.0910	 5.9130
14.1290	 5.7190
14.1680	 6.0080
14.2070	 5.4600
14.2460	 5.5900
14.2850	 4.9720
14.3240	 5.1710
14.3640	 4.8890
14.4040	 5.4830
14.4440	 5.2540
14.4840	 5.4090
14.5250	 5.0500
14.5660	 5.3480
14.6070	 4.8340
14.6480	 5.4440
14.6900	 5.0950
14.7310	 5.3730
14.7730	 4.6600
14.8150	 4.9620
14.8580	 4.5460
14.9010	 5.2460
14.9440	 4.5670
14.9870	 5.2090
15.0300	 4.5160
15.0740	 4.8290
15.1180	 4.3760
15.1620	 4.9970
15.2060	 4.5030
15.2510	 5.4780
15.2960	 4.9580
15.3410	 5.6210
15.3870	 5.0230
