Name: Peltophorum africanum
Type: vegetation
Class: Tree
Genus: Peltophorum
Species: africanum
Sample No.: JPL259
Owner: JPL
Wavelength Range: VSWIR
Origin: 34.13116; -118.11242; WGS84
Collection Date: 10/6/2016
Description: Samples were collected at the Huntington Garden in San Marino California as part of a JPL Subcontract studying HyTES imagery. Samples were taken to JPL and processed within 48 hours of collection. The same leaves were processed in the Nicolet and then measured using the ASD.
Measurement: Bidirectional reflectance
First Column: X
Second Column: Y
X Units: Wavelength (micrometer)
Y Units: Reflectance (percentage)
First X Value: 0.35
Last X Value: 2.5
Number of X Values: 2151
Additional Information: vegetation.tree.peltophorum.africanum.vswir.jpl259.jpl.asd.ancillary.txt

 0.3500	 4.0090
 0.3510	 3.9700
 0.3520	 3.9160
 0.3530	 3.8240
 0.3540	 3.7030
 0.3550	 3.7720
 0.3560	 3.7970
 0.3570	 3.7810
 0.3580	 3.8380
 0.3590	 3.8820
 0.3600	 3.8230
 0.3610	 3.6980
 0.3620	 3.7110
 0.3630	 3.7710
 0.3640	 3.8100
 0.3650	 3.7860
 0.3660	 3.7260
 0.3670	 3.6670
 0.3680	 3.6520
 0.3690	 3.7100
 0.3700	 3.7530
 0.3710	 3.7290
 0.3720	 3.6590
 0.3730	 3.6840
 0.3740	 3.6880
 0.3750	 3.7040
 0.3760	 3.7700
 0.3770	 3.7200
 0.3780	 3.6560
 0.3790	 3.6360
 0.3800	 3.6730
 0.3810	 3.7090
 0.3820	 3.7180
 0.3830	 3.6990
 0.3840	 3.6880
 0.3850	 3.6680
 0.3860	 3.6570
 0.3870	 3.6720
 0.3880	 3.6800
 0.3890	 3.6710
 0.3900	 3.6610
 0.3910	 3.6840
 0.3920	 3.6990
 0.3930	 3.6840
 0.3940	 3.6460
 0.3950	 3.6550
 0.3960	 3.6670
 0.3970	 3.6690
 0.3980	 3.6650
 0.3990	 3.6690
 0.4000	 3.6760
 0.4010	 3.6800
 0.4020	 3.6800
 0.4030	 3.6680
 0.4040	 3.6590
 0.4050	 3.6630
 0.4060	 3.6790
 0.4070	 3.6700
 0.4080	 3.6500
 0.4090	 3.6610
 0.4100	 3.6890
 0.4110	 3.7030
 0.4120	 3.6930
 0.4130	 3.6970
 0.4140	 3.6920
 0.4150	 3.6920
 0.4160	 3.7110
 0.4170	 3.7150
 0.4180	 3.7150
 0.4190	 3.7210
 0.4200	 3.7340
 0.4210	 3.7390
 0.4220	 3.7380
 0.4230	 3.7390
 0.4240	 3.7600
 0.4250	 3.7660
 0.4260	 3.7640
 0.4270	 3.7770
 0.4280	 3.7880
 0.4290	 3.7920
 0.4300	 3.7960
 0.4310	 3.8080
 0.4320	 3.8180
 0.4330	 3.8280
 0.4340	 3.8400
 0.4350	 3.8410
 0.4360	 3.8460
 0.4370	 3.8540
 0.4380	 3.8530
 0.4390	 3.8630
 0.4400	 3.8740
 0.4410	 3.8780
 0.4420	 3.8810
 0.4430	 3.8820
 0.4440	 3.8850
 0.4450	 3.8930
 0.4460	 3.9000
 0.4470	 3.9080
 0.4480	 3.9150
 0.4490	 3.9120
 0.4500	 3.9200
 0.4510	 3.9340
 0.4520	 3.9430
 0.4530	 3.9400
 0.4540	 3.9480
 0.4550	 3.9630
 0.4560	 3.9620
 0.4570	 3.9620
 0.4580	 3.9640
 0.4590	 3.9690
 0.4600	 3.9770
 0.4610	 3.9760
 0.4620	 3.9730
 0.4630	 3.9760
 0.4640	 3.9840
 0.4650	 3.9860
 0.4660	 3.9800
 0.4670	 3.9770
 0.4680	 3.9790
 0.4690	 3.9860
 0.4700	 3.9930
 0.4710	 3.9900
 0.4720	 3.9850
 0.4730	 3.9850
 0.4740	 3.9910
 0.4750	 3.9970
 0.4760	 3.9980
 0.4770	 3.9960
 0.4780	 4.0020
 0.4790	 4.0050
 0.4800	 4.0060
 0.4810	 4.0090
 0.4820	 4.0120
 0.4830	 4.0160
 0.4840	 4.0200
 0.4850	 4.0250
 0.4860	 4.0280
 0.4870	 4.0330
 0.4880	 4.0420
 0.4890	 4.0380
 0.4900	 4.0410
 0.4910	 4.0490
 0.4920	 4.0550
 0.4930	 4.0630
 0.4940	 4.0730
 0.4950	 4.0830
 0.4960	 4.0830
 0.4970	 4.0930
 0.4980	 4.1090
 0.4990	 4.1220
 0.5000	 4.1270
 0.5010	 4.1410
 0.5020	 4.1620
 0.5030	 4.1780
 0.5040	 4.1980
 0.5050	 4.2190
 0.5060	 4.2390
 0.5070	 4.2720
 0.5080	 4.3060
 0.5090	 4.3390
 0.5100	 4.3760
 0.5110	 4.4180
 0.5120	 4.4660
 0.5130	 4.5190
 0.5140	 4.5770
 0.5150	 4.6410
 0.5160	 4.7100
 0.5170	 4.7860
 0.5180	 4.8690
 0.5190	 4.9600
 0.5200	 5.0590
 0.5210	 5.1630
 0.5220	 5.2690
 0.5230	 5.3770
 0.5240	 5.4870
 0.5250	 5.5910
 0.5260	 5.6990
 0.5270	 5.8100
 0.5280	 5.9120
 0.5290	 6.0100
 0.5300	 6.1010
 0.5310	 6.1850
 0.5320	 6.2630
 0.5330	 6.3360
 0.5340	 6.4030
 0.5350	 6.4610
 0.5360	 6.5140
 0.5370	 6.5620
 0.5380	 6.6040
 0.5390	 6.6410
 0.5400	 6.6780
 0.5410	 6.7150
 0.5420	 6.7520
 0.5430	 6.7860
 0.5440	 6.8130
 0.5450	 6.8330
 0.5460	 6.8470
 0.5470	 6.8540
 0.5480	 6.8610
 0.5490	 6.8700
 0.5500	 6.8800
 0.5510	 6.8860
 0.5520	 6.8860
 0.5530	 6.8780
 0.5540	 6.8640
 0.5550	 6.8440
 0.5560	 6.8150
 0.5570	 6.7750
 0.5580	 6.7350
 0.5590	 6.6900
 0.5600	 6.6360
 0.5610	 6.5780
 0.5620	 6.5200
 0.5630	 6.4610
 0.5640	 6.4000
 0.5650	 6.3330
 0.5660	 6.2640
 0.5670	 6.1950
 0.5680	 6.1230
 0.5690	 6.0520
 0.5700	 5.9790
 0.5710	 5.9070
 0.5720	 5.8370
 0.5730	 5.7700
 0.5740	 5.7080
 0.5750	 5.6530
 0.5760	 5.5990
 0.5770	 5.5480
 0.5780	 5.5010
 0.5790	 5.4570
 0.5800	 5.4150
 0.5810	 5.3780
 0.5820	 5.3460
 0.5830	 5.3200
 0.5840	 5.2960
 0.5850	 5.2720
 0.5860	 5.2480
 0.5870	 5.2270
 0.5880	 5.2060
 0.5890	 5.1840
 0.5900	 5.1670
 0.5910	 5.1520
 0.5920	 5.1380
 0.5930	 5.1250
 0.5940	 5.1130
 0.5950	 5.1020
 0.5960	 5.0930
 0.5970	 5.0830
 0.5980	 5.0730
 0.5990	 5.0630
 0.6000	 5.0520
 0.6010	 5.0420
 0.6020	 5.0310
 0.6030	 5.0180
 0.6040	 5.0040
 0.6050	 4.9860
 0.6060	 4.9680
 0.6070	 4.9510
 0.6080	 4.9300
 0.6090	 4.9120
 0.6100	 4.8990
 0.6110	 4.8860
 0.6120	 4.8660
 0.6130	 4.8380
 0.6140	 4.8060
 0.6150	 4.7810
 0.6160	 4.7600
 0.6170	 4.7400
 0.6180	 4.7200
 0.6190	 4.7040
 0.6200	 4.6930
 0.6210	 4.6830
 0.6220	 4.6720
 0.6230	 4.6630
 0.6240	 4.6550
 0.6250	 4.6480
 0.6260	 4.6430
 0.6270	 4.6390
 0.6280	 4.6360
 0.6290	 4.6350
 0.6300	 4.6330
 0.6310	 4.6320
 0.6320	 4.6290
 0.6330	 4.6240
 0.6340	 4.6180
 0.6350	 4.6110
 0.6360	 4.6030
 0.6370	 4.5890
 0.6380	 4.5720
 0.6390	 4.5560
 0.6400	 4.5400
 0.6410	 4.5220
 0.6420	 4.5050
 0.6430	 4.4900
 0.6440	 4.4720
 0.6450	 4.4600
 0.6460	 4.4490
 0.6470	 4.4360
 0.6480	 4.4250
 0.6490	 4.4180
 0.6500	 4.4150
 0.6510	 4.4110
 0.6520	 4.4090
 0.6530	 4.4090
 0.6540	 4.4080
 0.6550	 4.4100
 0.6560	 4.4090
 0.6570	 4.4070
 0.6580	 4.4040
 0.6590	 4.4030
 0.6600	 4.4030
 0.6610	 4.4020
 0.6620	 4.4050
 0.6630	 4.4060
 0.6640	 4.4080
 0.6650	 4.4150
 0.6660	 4.4230
 0.6670	 4.4330
 0.6680	 4.4470
 0.6690	 4.4640
 0.6700	 4.4810
 0.6710	 4.5030
 0.6720	 4.5280
 0.6730	 4.5550
 0.6740	 4.5810
 0.6750	 4.6110
 0.6760	 4.6470
 0.6770	 4.6840
 0.6780	 4.7240
 0.6790	 4.7670
 0.6800	 4.8110
 0.6810	 4.8560
 0.6820	 4.9010
 0.6830	 4.9440
 0.6840	 4.9840
 0.6850	 5.0190
 0.6860	 5.0530
 0.6870	 5.0870
 0.6880	 5.1230
 0.6890	 5.1630
 0.6900	 5.2110
 0.6910	 5.2760
 0.6920	 5.3640
 0.6930	 5.4810
 0.6940	 5.6310
 0.6950	 5.8210
 0.6960	 6.0530
 0.6970	 6.3270
 0.6980	 6.6440
 0.6990	 7.0090
 0.7000	 7.4130
 0.7010	 7.8540
 0.7020	 8.3330
 0.7030	 8.8430
 0.7040	 9.3830
 0.7050	 9.9480
 0.7060	10.5330
 0.7070	11.1420
 0.7080	11.7730
 0.7090	12.4230
 0.7100	13.0910
 0.7110	13.7810
 0.7120	14.4900
 0.7130	15.2140
 0.7140	15.9540
 0.7150	16.7100
 0.7160	17.4810
 0.7170	18.2630
 0.7180	19.0570
 0.7190	19.8570
 0.7200	20.6580
 0.7210	21.4630
 0.7220	22.2650
 0.7230	23.0620
 0.7240	23.8500
 0.7250	24.6290
 0.7260	25.3930
 0.7270	26.1390
 0.7280	26.8620
 0.7290	27.5650
 0.7300	28.2450
 0.7310	28.8980
 0.7320	29.5250
 0.7330	30.1260
 0.7340	30.6990
 0.7350	31.2400
 0.7360	31.7530
 0.7370	32.2370
 0.7380	32.6920
 0.7390	33.1180
 0.7400	33.5150
 0.7410	33.8840
 0.7420	34.2260
 0.7430	34.5400
 0.7440	34.8270
 0.7450	35.0900
 0.7460	35.3310
 0.7470	35.5480
 0.7480	35.7430
 0.7490	35.9200
 0.7500	36.0800
 0.7510	36.2230
 0.7520	36.3520
 0.7530	36.4660
 0.7540	36.5680
 0.7550	36.6600
 0.7560	36.7410
 0.7570	36.8150
 0.7580	36.8810
 0.7590	36.9400
 0.7600	36.9920
 0.7610	37.0360
 0.7620	37.0750
 0.7630	37.1110
 0.7640	37.1420
 0.7650	37.1690
 0.7660	37.1880
 0.7670	37.2030
 0.7680	37.2210
 0.7690	37.2360
 0.7700	37.2470
 0.7710	37.2550
 0.7720	37.2630
 0.7730	37.2730
 0.7740	37.2820
 0.7750	37.2890
 0.7760	37.2990
 0.7770	37.3070
 0.7780	37.3110
 0.7790	37.3170
 0.7800	37.3260
 0.7810	37.3330
 0.7820	37.3380
 0.7830	37.3440
 0.7840	37.3500
 0.7850	37.3560
 0.7860	37.3630
 0.7870	37.3690
 0.7880	37.3720
 0.7890	37.3740
 0.7900	37.3790
 0.7910	37.3810
 0.7920	37.3830
 0.7930	37.3850
 0.7940	37.3860
 0.7950	37.3870
 0.7960	37.3880
 0.7970	37.3870
 0.7980	37.3860
 0.7990	37.3830
 0.8000	37.3810
 0.8010	37.3800
 0.8020	37.3730
 0.8030	37.3680
 0.8040	37.3650
 0.8050	37.3620
 0.8060	37.3570
 0.8070	37.3510
 0.8080	37.3450
 0.8090	37.3390
 0.8100	37.3300
 0.8110	37.3220
 0.8120	37.3150
 0.8130	37.3070
 0.8140	37.2950
 0.8150	37.2830
 0.8160	37.2760
 0.8170	37.2670
 0.8180	37.2580
 0.8190	37.2500
 0.8200	37.2410
 0.8210	37.2290
 0.8220	37.2200
 0.8230	37.2120
 0.8240	37.2010
 0.8250	37.1910
 0.8260	37.1810
 0.8270	37.1700
 0.8280	37.1640
 0.8290	37.1530
 0.8300	37.1400
 0.8310	37.1290
 0.8320	37.1180
 0.8330	37.1110
 0.8340	37.1040
 0.8350	37.0950
 0.8360	37.0880
 0.8370	37.0820
 0.8380	37.0750
 0.8390	37.0680
 0.8400	37.0610
 0.8410	37.0580
 0.8420	37.0560
 0.8430	37.0500
 0.8440	37.0470
 0.8450	37.0460
 0.8460	37.0450
 0.8470	37.0410
 0.8480	37.0410
 0.8490	37.0420
 0.8500	37.0410
 0.8510	37.0400
 0.8520	37.0370
 0.8530	37.0350
 0.8540	37.0370
 0.8550	37.0380
 0.8560	37.0410
 0.8570	37.0440
 0.8580	37.0450
 0.8590	37.0500
 0.8600	37.0540
 0.8610	37.0570
 0.8620	37.0630
 0.8630	37.0660
 0.8640	37.0700
 0.8650	37.0800
 0.8660	37.0860
 0.8670	37.0880
 0.8680	37.0900
 0.8690	37.0960
 0.8700	37.1010
 0.8710	37.1070
 0.8720	37.1150
 0.8730	37.1240
 0.8740	37.1310
 0.8750	37.1370
 0.8760	37.1450
 0.8770	37.1550
 0.8780	37.1610
 0.8790	37.1660
 0.8800	37.1730
 0.8810	37.1800
 0.8820	37.1880
 0.8830	37.1960
 0.8840	37.2030
 0.8850	37.2110
 0.8860	37.2200
 0.8870	37.2260
 0.8880	37.2290
 0.8890	37.2390
 0.8900	37.2480
 0.8910	37.2560
 0.8920	37.2610
 0.8930	37.2620
 0.8940	37.2680
 0.8950	37.2780
 0.8960	37.2880
 0.8970	37.2960
 0.8980	37.3010
 0.8990	37.3070
 0.9000	37.3180
 0.9010	37.3230
 0.9020	37.3250
 0.9030	37.3280
 0.9040	37.3370
 0.9050	37.3450
 0.9060	37.3500
 0.9070	37.3510
 0.9080	37.3580
 0.9090	37.3630
 0.9100	37.3660
 0.9110	37.3670
 0.9120	37.3670
 0.9130	37.3650
 0.9140	37.3660
 0.9150	37.3720
 0.9160	37.3760
 0.9170	37.3740
 0.9180	37.3730
 0.9190	37.3780
 0.9200	37.3770
 0.9210	37.3700
 0.9220	37.3620
 0.9230	37.3570
 0.9240	37.3580
 0.9250	37.3560
 0.9260	37.3480
 0.9270	37.3400
 0.9280	37.3260
 0.9290	37.3120
 0.9300	37.3030
 0.9310	37.2910
 0.9320	37.2790
 0.9330	37.2680
 0.9340	37.2560
 0.9350	37.2440
 0.9360	37.2220
 0.9370	37.1970
 0.9380	37.1770
 0.9390	37.1730
 0.9400	37.1560
 0.9410	37.1340
 0.9420	37.1130
 0.9430	37.0880
 0.9440	37.0650
 0.9450	37.0430
 0.9460	37.0190
 0.9470	36.9850
 0.9480	36.9510
 0.9490	36.9110
 0.9500	36.8650
 0.9510	36.8310
 0.9520	36.7940
 0.9530	36.7550
 0.9540	36.7140
 0.9550	36.6650
 0.9560	36.6210
 0.9570	36.5830
 0.9580	36.5450
 0.9590	36.5070
 0.9600	36.4660
 0.9610	36.4290
 0.9620	36.4010
 0.9630	36.3750
 0.9640	36.3510
 0.9650	36.3320
 0.9660	36.3200
 0.9670	36.2990
 0.9680	36.2800
 0.9690	36.2620
 0.9700	36.2410
 0.9710	36.2270
 0.9720	36.2110
 0.9730	36.1970
 0.9740	36.1890
 0.9750	36.1810
 0.9760	36.1690
 0.9770	36.1580
 0.9780	36.1550
 0.9790	36.1500
 0.9800	36.1390
 0.9810	36.1350
 0.9820	36.1490
 0.9830	36.1440
 0.9840	36.1370
 0.9850	36.1290
 0.9860	36.1190
 0.9870	36.1300
 0.9880	36.1370
 0.9890	36.1380
 0.9900	36.1440
 0.9910	36.1420
 0.9920	36.1410
 0.9930	36.1470
 0.9940	36.1580
 0.9950	36.1600
 0.9960	36.1620
 0.9970	36.1660
 0.9980	36.1740
 0.9990	36.1960
 1.0000	36.2210
 1.0010	35.5490
 1.0020	35.5620
 1.0030	35.5730
 1.0040	35.5880
 1.0050	35.6030
 1.0060	35.6150
 1.0070	35.6280
 1.0080	35.6410
 1.0090	35.6570
 1.0100	35.6700
 1.0110	35.6800
 1.0120	35.6930
 1.0130	35.7050
 1.0140	35.7160
 1.0150	35.7270
 1.0160	35.7430
 1.0170	35.7560
 1.0180	35.7650
 1.0190	35.7770
 1.0200	35.7910
 1.0210	35.8030
 1.0220	35.8170
 1.0230	35.8290
 1.0240	35.8420
 1.0250	35.8530
 1.0260	35.8610
 1.0270	35.8730
 1.0280	35.8870
 1.0290	35.8980
 1.0300	35.9120
 1.0310	35.9230
 1.0320	35.9310
 1.0330	35.9370
 1.0340	35.9460
 1.0350	35.9560
 1.0360	35.9630
 1.0370	35.9720
 1.0380	35.9810
 1.0390	35.9890
 1.0400	35.9960
 1.0410	36.0030
 1.0420	36.0100
 1.0430	36.0150
 1.0440	36.0220
 1.0450	36.0310
 1.0460	36.0390
 1.0470	36.0470
 1.0480	36.0540
 1.0490	36.0600
 1.0500	36.0660
 1.0510	36.0710
 1.0520	36.0770
 1.0530	36.0830
 1.0540	36.0900
 1.0550	36.0960
 1.0560	36.1010
 1.0570	36.1080
 1.0580	36.1180
 1.0590	36.1250
 1.0600	36.1340
 1.0610	36.1410
 1.0620	36.1450
 1.0630	36.1510
 1.0640	36.1560
 1.0650	36.1620
 1.0660	36.1640
 1.0670	36.1700
 1.0680	36.1770
 1.0690	36.1850
 1.0700	36.1940
 1.0710	36.2070
 1.0720	36.2150
 1.0730	36.2210
 1.0740	36.2270
 1.0750	36.2310
 1.0760	36.2360
 1.0770	36.2400
 1.0780	36.2440
 1.0790	36.2480
 1.0800	36.2520
 1.0810	36.2580
 1.0820	36.2630
 1.0830	36.2700
 1.0840	36.2740
 1.0850	36.2750
 1.0860	36.2790
 1.0870	36.2810
 1.0880	36.2800
 1.0890	36.2810
 1.0900	36.2840
 1.0910	36.2840
 1.0920	36.2840
 1.0930	36.2840
 1.0940	36.2850
 1.0950	36.2840
 1.0960	36.2830
 1.0970	36.2800
 1.0980	36.2760
 1.0990	36.2720
 1.1000	36.2680
 1.1010	36.2640
 1.1020	36.2610
 1.1030	36.2570
 1.1040	36.2510
 1.1050	36.2440
 1.1060	36.2370
 1.1070	36.2270
 1.1080	36.2190
 1.1090	36.2130
 1.1100	36.2050
 1.1110	36.2000
 1.1120	36.1900
 1.1130	36.1800
 1.1140	36.1670
 1.1150	36.1530
 1.1160	36.1380
 1.1170	36.1210
 1.1180	36.1030
 1.1190	36.0820
 1.1200	36.0600
 1.1210	36.0400
 1.1220	36.0160
 1.1230	35.9910
 1.1240	35.9650
 1.1250	35.9350
 1.1260	35.9040
 1.1270	35.8660
 1.1280	35.8260
 1.1290	35.7810
 1.1300	35.7320
 1.1310	35.6800
 1.1320	35.6260
 1.1330	35.5680
 1.1340	35.5070
 1.1350	35.4400
 1.1360	35.3700
 1.1370	35.2960
 1.1380	35.2150
 1.1390	35.1320
 1.1400	35.0480
 1.1410	34.9590
 1.1420	34.8700
 1.1430	34.7800
 1.1440	34.6900
 1.1450	34.5960
 1.1460	34.5060
 1.1470	34.4160
 1.1480	34.3290
 1.1490	34.2420
 1.1500	34.1610
 1.1510	34.0820
 1.1520	34.0080
 1.1530	33.9390
 1.1540	33.8740
 1.1550	33.8140
 1.1560	33.7570
 1.1570	33.7050
 1.1580	33.6570
 1.1590	33.6120
 1.1600	33.5710
 1.1610	33.5350
 1.1620	33.5040
 1.1630	33.4750
 1.1640	33.4490
 1.1650	33.4260
 1.1660	33.4060
 1.1670	33.3860
 1.1680	33.3670
 1.1690	33.3500
 1.1700	33.3350
 1.1710	33.3200
 1.1720	33.3090
 1.1730	33.2960
 1.1740	33.2840
 1.1750	33.2700
 1.1760	33.2560
 1.1770	33.2420
 1.1780	33.2260
 1.1790	33.2110
 1.1800	33.1970
 1.1810	33.1840
 1.1820	33.1730
 1.1830	33.1600
 1.1840	33.1450
 1.1850	33.1320
 1.1860	33.1170
 1.1870	33.1020
 1.1880	33.0900
 1.1890	33.0770
 1.1900	33.0670
 1.1910	33.0590
 1.1920	33.0510
 1.1930	33.0430
 1.1940	33.0360
 1.1950	33.0290
 1.1960	33.0240
 1.1970	33.0210
 1.1980	33.0180
 1.1990	33.0170
 1.2000	33.0160
 1.2010	33.0150
 1.2020	33.0150
 1.2030	33.0170
 1.2040	33.0210
 1.2050	33.0260
 1.2060	33.0330
 1.2070	33.0390
 1.2080	33.0470
 1.2090	33.0560
 1.2100	33.0660
 1.2110	33.0770
 1.2120	33.0900
 1.2130	33.1020
 1.2140	33.1140
 1.2150	33.1280
 1.2160	33.1430
 1.2170	33.1600
 1.2180	33.1760
 1.2190	33.1950
 1.2200	33.2140
 1.2210	33.2330
 1.2220	33.2530
 1.2230	33.2730
 1.2240	33.2920
 1.2250	33.3100
 1.2260	33.3280
 1.2270	33.3470
 1.2280	33.3630
 1.2290	33.3800
 1.2300	33.3970
 1.2310	33.4130
 1.2320	33.4290
 1.2330	33.4450
 1.2340	33.4600
 1.2350	33.4730
 1.2360	33.4860
 1.2370	33.4980
 1.2380	33.5090
 1.2390	33.5200
 1.2400	33.5310
 1.2410	33.5440
 1.2420	33.5560
 1.2430	33.5700
 1.2440	33.5810
 1.2450	33.5900
 1.2460	33.5980
 1.2470	33.6070
 1.2480	33.6160
 1.2490	33.6230
 1.2500	33.6310
 1.2510	33.6390
 1.2520	33.6450
 1.2530	33.6530
 1.2540	33.6590
 1.2550	33.6640
 1.2560	33.6690
 1.2570	33.6750
 1.2580	33.6810
 1.2590	33.6840
 1.2600	33.6880
 1.2610	33.6890
 1.2620	33.6880
 1.2630	33.6870
 1.2640	33.6860
 1.2650	33.6840
 1.2660	33.6830
 1.2670	33.6780
 1.2680	33.6740
 1.2690	33.6710
 1.2700	33.6640
 1.2710	33.6580
 1.2720	33.6500
 1.2730	33.6410
 1.2740	33.6310
 1.2750	33.6190
 1.2760	33.6070
 1.2770	33.5950
 1.2780	33.5810
 1.2790	33.5660
 1.2800	33.5520
 1.2810	33.5360
 1.2820	33.5200
 1.2830	33.5040
 1.2840	33.4870
 1.2850	33.4700
 1.2860	33.4530
 1.2870	33.4350
 1.2880	33.4180
 1.2890	33.3990
 1.2900	33.3800
 1.2910	33.3600
 1.2920	33.3390
 1.2930	33.3170
 1.2940	33.2950
 1.2950	33.2740
 1.2960	33.2520
 1.2970	33.2290
 1.2980	33.2050
 1.2990	33.1770
 1.3000	33.1480
 1.3010	33.1180
 1.3020	33.0870
 1.3030	33.0550
 1.3040	33.0220
 1.3050	32.9870
 1.3060	32.9490
 1.3070	32.9100
 1.3080	32.8680
 1.3090	32.8250
 1.3100	32.7800
 1.3110	32.7340
 1.3120	32.6850
 1.3130	32.6330
 1.3140	32.5780
 1.3150	32.5200
 1.3160	32.4590
 1.3170	32.3950
 1.3180	32.3280
 1.3190	32.2610
 1.3200	32.1900
 1.3210	32.1160
 1.3220	32.0410
 1.3230	31.9630
 1.3240	31.8820
 1.3250	31.8010
 1.3260	31.7190
 1.3270	31.6350
 1.3280	31.5470
 1.3290	31.4580
 1.3300	31.3650
 1.3310	31.2700
 1.3320	31.1750
 1.3330	31.0780
 1.3340	30.9780
 1.3350	30.8790
 1.3360	30.7800
 1.3370	30.6790
 1.3380	30.5780
 1.3390	30.4780
 1.3400	30.3760
 1.3410	30.2750
 1.3420	30.1760
 1.3430	30.0780
 1.3440	29.9810
 1.3450	29.8840
 1.3460	29.7880
 1.3470	29.6920
 1.3480	29.5960
 1.3490	29.5020
 1.3500	29.4090
 1.3510	29.3160
 1.3520	29.2250
 1.3530	29.1340
 1.3540	29.0430
 1.3550	28.9540
 1.3560	28.8640
 1.3570	28.7720
 1.3580	28.6800
 1.3590	28.5860
 1.3600	28.4890
 1.3610	28.3920
 1.3620	28.2910
 1.3630	28.1870
 1.3640	28.0790
 1.3650	27.9660
 1.3660	27.8480
 1.3670	27.7250
 1.3680	27.5940
 1.3690	27.4550
 1.3700	27.3060
 1.3710	27.1460
 1.3720	26.9750
 1.3730	26.7910
 1.3740	26.5970
 1.3750	26.3910
 1.3760	26.1690
 1.3770	25.9320
 1.3780	25.6760
 1.3790	25.4020
 1.3800	25.1110
 1.3810	24.8010
 1.3820	24.4770
 1.3830	24.1360
 1.3840	23.7800
 1.3850	23.4080
 1.3860	23.0220
 1.3870	22.6170
 1.3880	22.2080
 1.3890	21.7880
 1.3900	21.3590
 1.3910	20.9290
 1.3920	20.4940
 1.3930	20.0550
 1.3940	19.6170
 1.3950	19.1770
 1.3960	18.7430
 1.3970	18.3160
 1.3980	17.8950
 1.3990	17.4900
 1.4000	17.0950
 1.4010	16.7100
 1.4020	16.3400
 1.4030	15.9810
 1.4040	15.6370
 1.4050	15.3100
 1.4060	14.9960
 1.4070	14.7020
 1.4080	14.4230
 1.4090	14.1570
 1.4100	13.9090
 1.4110	13.6740
 1.4120	13.4530
 1.4130	13.2480
 1.4140	13.0550
 1.4150	12.8780
 1.4160	12.7130
 1.4170	12.5590
 1.4180	12.4160
 1.4190	12.2820
 1.4200	12.1570
 1.4210	12.0410
 1.4220	11.9340
 1.4230	11.8370
 1.4240	11.7460
 1.4250	11.6610
 1.4260	11.5830
 1.4270	11.5090
 1.4280	11.4420
 1.4290	11.3790
 1.4300	11.3220
 1.4310	11.2690
 1.4320	11.2220
 1.4330	11.1780
 1.4340	11.1380
 1.4350	11.1020
 1.4360	11.0690
 1.4370	11.0390
 1.4380	11.0120
 1.4390	10.9890
 1.4400	10.9690
 1.4410	10.9520
 1.4420	10.9370
 1.4430	10.9230
 1.4440	10.9110
 1.4450	10.9000
 1.4460	10.8920
 1.4470	10.8860
 1.4480	10.8810
 1.4490	10.8790
 1.4500	10.8810
 1.4510	10.8830
 1.4520	10.8870
 1.4530	10.8920
 1.4540	10.8960
 1.4550	10.9040
 1.4560	10.9130
 1.4570	10.9240
 1.4580	10.9390
 1.4590	10.9560
 1.4600	10.9750
 1.4610	10.9980
 1.4620	11.0240
 1.4630	11.0530
 1.4640	11.0840
 1.4650	11.1190
 1.4660	11.1580
 1.4670	11.2000
 1.4680	11.2460
 1.4690	11.2940
 1.4700	11.3450
 1.4710	11.4010
 1.4720	11.4590
 1.4730	11.5200
 1.4740	11.5840
 1.4750	11.6510
 1.4760	11.7200
 1.4770	11.7910
 1.4780	11.8630
 1.4790	11.9380
 1.4800	12.0140
 1.4810	12.0910
 1.4820	12.1700
 1.4830	12.2500
 1.4840	12.3310
 1.4850	12.4130
 1.4860	12.4960
 1.4870	12.5800
 1.4880	12.6650
 1.4890	12.7500
 1.4900	12.8360
 1.4910	12.9230
 1.4920	13.0110
 1.4930	13.1000
 1.4940	13.1890
 1.4950	13.2770
 1.4960	13.3670
 1.4970	13.4550
 1.4980	13.5450
 1.4990	13.6350
 1.5000	13.7260
 1.5010	13.8180
 1.5020	13.9080
 1.5030	14.0000
 1.5040	14.0910
 1.5050	14.1820
 1.5060	14.2730
 1.5070	14.3650
 1.5080	14.4560
 1.5090	14.5480
 1.5100	14.6400
 1.5110	14.7310
 1.5120	14.8220
 1.5130	14.9110
 1.5140	15.0000
 1.5150	15.0880
 1.5160	15.1760
 1.5170	15.2660
 1.5180	15.3550
 1.5190	15.4430
 1.5200	15.5340
 1.5210	15.6210
 1.5220	15.7080
 1.5230	15.7960
 1.5240	15.8820
 1.5250	15.9680
 1.5260	16.0540
 1.5270	16.1380
 1.5280	16.2220
 1.5290	16.3040
 1.5300	16.3880
 1.5310	16.4710
 1.5320	16.5520
 1.5330	16.6350
 1.5340	16.7160
 1.5350	16.7960
 1.5360	16.8770
 1.5370	16.9540
 1.5380	17.0320
 1.5390	17.1100
 1.5400	17.1860
 1.5410	17.2630
 1.5420	17.3390
 1.5430	17.4140
 1.5440	17.4900
 1.5450	17.5650
 1.5460	17.6380
 1.5470	17.7100
 1.5480	17.7810
 1.5490	17.8530
 1.5500	17.9230
 1.5510	17.9930
 1.5520	18.0630
 1.5530	18.1310
 1.5540	18.1990
 1.5550	18.2670
 1.5560	18.3330
 1.5570	18.3980
 1.5580	18.4620
 1.5590	18.5250
 1.5600	18.5880
 1.5610	18.6490
 1.5620	18.7110
 1.5630	18.7720
 1.5640	18.8320
 1.5650	18.8910
 1.5660	18.9500
 1.5670	19.0070
 1.5680	19.0640
 1.5690	19.1200
 1.5700	19.1750
 1.5710	19.2310
 1.5720	19.2870
 1.5730	19.3430
 1.5740	19.3990
 1.5750	19.4530
 1.5760	19.5070
 1.5770	19.5590
 1.5780	19.6110
 1.5790	19.6630
 1.5800	19.7140
 1.5810	19.7650
 1.5820	19.8150
 1.5830	19.8660
 1.5840	19.9180
 1.5850	19.9690
 1.5860	20.0190
 1.5870	20.0680
 1.5880	20.1180
 1.5890	20.1660
 1.5900	20.2140
 1.5910	20.2610
 1.5920	20.3080
 1.5930	20.3550
 1.5940	20.4010
 1.5950	20.4470
 1.5960	20.4920
 1.5970	20.5370
 1.5980	20.5800
 1.5990	20.6250
 1.6000	20.6700
 1.6010	20.7130
 1.6020	20.7570
 1.6030	20.8000
 1.6040	20.8410
 1.6050	20.8820
 1.6060	20.9240
 1.6070	20.9640
 1.6080	21.0030
 1.6090	21.0410
 1.6100	21.0780
 1.6110	21.1150
 1.6120	21.1520
 1.6130	21.1890
 1.6140	21.2260
 1.6150	21.2610
 1.6160	21.2970
 1.6170	21.3310
 1.6180	21.3650
 1.6190	21.3990
 1.6200	21.4310
 1.6210	21.4630
 1.6220	21.4930
 1.6230	21.5220
 1.6240	21.5510
 1.6250	21.5800
 1.6260	21.6090
 1.6270	21.6390
 1.6280	21.6650
 1.6290	21.6920
 1.6300	21.7180
 1.6310	21.7420
 1.6320	21.7650
 1.6330	21.7870
 1.6340	21.8080
 1.6350	21.8280
 1.6360	21.8490
 1.6370	21.8670
 1.6380	21.8840
 1.6390	21.8990
 1.6400	21.9140
 1.6410	21.9260
 1.6420	21.9350
 1.6430	21.9430
 1.6440	21.9490
 1.6450	21.9530
 1.6460	21.9570
 1.6470	21.9580
 1.6480	21.9570
 1.6490	21.9560
 1.6500	21.9540
 1.6510	21.9490
 1.6520	21.9450
 1.6530	21.9390
 1.6540	21.9330
 1.6550	21.9270
 1.6560	21.9190
 1.6570	21.9100
 1.6580	21.9020
 1.6590	21.8960
 1.6600	21.8900
 1.6610	21.8870
 1.6620	21.8850
 1.6630	21.8850
 1.6640	21.8830
 1.6650	21.8860
 1.6660	21.8890
 1.6670	21.8910
 1.6680	21.8950
 1.6690	21.8970
 1.6700	21.8980
 1.6710	21.9020
 1.6720	21.9050
 1.6730	21.9070
 1.6740	21.9080
 1.6750	21.9080
 1.6760	21.9060
 1.6770	21.9040
 1.6780	21.9000
 1.6790	21.8950
 1.6800	21.8880
 1.6810	21.8790
 1.6820	21.8680
 1.6830	21.8540
 1.6840	21.8360
 1.6850	21.8170
 1.6860	21.7960
 1.6870	21.7740
 1.6880	21.7500
 1.6890	21.7270
 1.6900	21.7020
 1.6910	21.6770
 1.6920	21.6510
 1.6930	21.6250
 1.6940	21.5990
 1.6950	21.5730
 1.6960	21.5460
 1.6970	21.5180
 1.6980	21.4900
 1.6990	21.4620
 1.7000	21.4330
 1.7010	21.4030
 1.7020	21.3730
 1.7030	21.3430
 1.7040	21.3130
 1.7050	21.2850
 1.7060	21.2550
 1.7070	21.2260
 1.7080	21.1960
 1.7090	21.1650
 1.7100	21.1340
 1.7110	21.1030
 1.7120	21.0710
 1.7130	21.0390
 1.7140	21.0060
 1.7150	20.9720
 1.7160	20.9380
 1.7170	20.9050
 1.7180	20.8700
 1.7190	20.8340
 1.7200	20.7970
 1.7210	20.7600
 1.7220	20.7240
 1.7230	20.6870
 1.7240	20.6480
 1.7250	20.6090
 1.7260	20.5690
 1.7270	20.5310
 1.7280	20.4960
 1.7290	20.4630
 1.7300	20.4330
 1.7310	20.4040
 1.7320	20.3780
 1.7330	20.3540
 1.7340	20.3330
 1.7350	20.3110
 1.7360	20.2930
 1.7370	20.2710
 1.7380	20.2480
 1.7390	20.2220
 1.7400	20.1950
 1.7410	20.1660
 1.7420	20.1380
 1.7430	20.1060
 1.7440	20.0720
 1.7450	20.0380
 1.7460	20.0010
 1.7470	19.9630
 1.7480	19.9240
 1.7490	19.8830
 1.7500	19.8400
 1.7510	19.7990
 1.7520	19.7580
 1.7530	19.7170
 1.7540	19.6770
 1.7550	19.6360
 1.7560	19.5940
 1.7570	19.5520
 1.7580	19.5100
 1.7590	19.4690
 1.7600	19.4290
 1.7610	19.3910
 1.7620	19.3540
 1.7630	19.3190
 1.7640	19.2860
 1.7650	19.2530
 1.7660	19.2230
 1.7670	19.1940
 1.7680	19.1660
 1.7690	19.1400
 1.7700	19.1140
 1.7710	19.0890
 1.7720	19.0660
 1.7730	19.0450
 1.7740	19.0240
 1.7750	19.0030
 1.7760	18.9830
 1.7770	18.9620
 1.7780	18.9430
 1.7790	18.9250
 1.7800	18.9090
 1.7810	18.8930
 1.7820	18.8800
 1.7830	18.8710
 1.7840	18.8600
 1.7850	18.8510
 1.7860	18.8410
 1.7870	18.8310
 1.7880	18.8240
 1.7890	18.8190
 1.7900	18.8150
 1.7910	18.8110
 1.7920	18.8070
 1.7930	18.8040
 1.7940	18.8020
 1.7950	18.8030
 1.7960	18.8060
 1.7970	18.8100
 1.7980	18.8160
 1.7990	18.8200
 1.8000	18.8240
 1.8010	18.8290
 1.8020	18.8350
 1.8030	18.8400
 1.8040	18.8460
 1.8050	18.8530
 1.8060	18.8600
 1.8070	18.8670
 1.8080	18.8740
 1.8090	18.8810
 1.8100	18.8860
 1.8110	18.8910
 1.8120	18.8960
 1.8130	18.9010
 1.8140	18.9050
 1.8150	18.9080
 1.8160	18.9120
 1.8170	18.9150
 1.8180	18.9160
 1.8190	18.9160
 1.8200	18.9160
 1.8210	18.9160
 1.8220	18.9150
 1.8230	18.9170
 1.8240	18.9140
 1.8250	18.9080
 1.8260	18.9040
 1.8270	18.8990
 1.8280	18.8920
 1.8290	18.8860
 1.8300	18.8770
 1.8310	18.5290
 1.8320	18.5130
 1.8330	18.4960
 1.8340	18.4760
 1.8350	18.4560
 1.8360	18.4340
 1.8370	18.4080
 1.8380	18.3830
 1.8390	18.3520
 1.8400	18.3150
 1.8410	18.2740
 1.8420	18.2310
 1.8430	18.1800
 1.8440	18.1210
 1.8450	18.0640
 1.8460	17.9980
 1.8470	17.9270
 1.8480	17.8530
 1.8490	17.7670
 1.8500	17.6760
 1.8510	17.5780
 1.8520	17.4750
 1.8530	17.3650
 1.8540	17.2480
 1.8550	17.1220
 1.8560	16.9840
 1.8570	16.8330
 1.8580	16.6720
 1.8590	16.5030
 1.8600	16.3250
 1.8610	16.1360
 1.8620	15.9330
 1.8630	15.7220
 1.8640	15.4990
 1.8650	15.2620
 1.8660	15.0150
 1.8670	14.7550
 1.8680	14.4820
 1.8690	14.1970
 1.8700	13.9000
 1.8710	13.5910
 1.8720	13.2760
 1.8730	12.9500
 1.8740	12.6150
 1.8750	12.2770
 1.8760	11.9310
 1.8770	11.5810
 1.8780	11.2320
 1.8790	10.8830
 1.8800	10.5360
 1.8810	10.1920
 1.8820	 9.8480
 1.8830	 9.5050
 1.8840	 9.1670
 1.8850	 8.8350
 1.8860	 8.5150
 1.8870	 8.2070
 1.8880	 7.9080
 1.8890	 7.6250
 1.8900	 7.3550
 1.8910	 7.0990
 1.8920	 6.8570
 1.8930	 6.6340
 1.8940	 6.4210
 1.8950	 6.2240
 1.8960	 6.0450
 1.8970	 5.8790
 1.8980	 5.7300
 1.8990	 5.5960
 1.9000	 5.4730
 1.9010	 5.3620
 1.9020	 5.2620
 1.9030	 5.1740
 1.9040	 5.0960
 1.9050	 5.0240
 1.9060	 4.9620
 1.9070	 4.9080
 1.9080	 4.8570
 1.9090	 4.8160
 1.9100	 4.7770
 1.9110	 4.7440
 1.9120	 4.7170
 1.9130	 4.6920
 1.9140	 4.6680
 1.9150	 4.6500
 1.9160	 4.6350
 1.9170	 4.6150
 1.9180	 4.6000
 1.9190	 4.5890
 1.9200	 4.5780
 1.9210	 4.5710
 1.9220	 4.5660
 1.9230	 4.5650
 1.9240	 4.5630
 1.9250	 4.5650
 1.9260	 4.5630
 1.9270	 4.5600
 1.9280	 4.5580
 1.9290	 4.5570
 1.9300	 4.5590
 1.9310	 4.5620
 1.9320	 4.5670
 1.9330	 4.5710
 1.9340	 4.5730
 1.9350	 4.5760
 1.9360	 4.5800
 1.9370	 4.5850
 1.9380	 4.5930
 1.9390	 4.6020
 1.9400	 4.6100
 1.9410	 4.6210
 1.9420	 4.6290
 1.9430	 4.6350
 1.9440	 4.6450
 1.9450	 4.6540
 1.9460	 4.6660
 1.9470	 4.6820
 1.9480	 4.6950
 1.9490	 4.7090
 1.9500	 4.7210
 1.9510	 4.7340
 1.9520	 4.7490
 1.9530	 4.7650
 1.9540	 4.7850
 1.9550	 4.8030
 1.9560	 4.8200
 1.9570	 4.8380
 1.9580	 4.8550
 1.9590	 4.8730
 1.9600	 4.8900
 1.9610	 4.9090
 1.9620	 4.9300
 1.9630	 4.9510
 1.9640	 4.9720
 1.9650	 4.9950
 1.9660	 5.0160
 1.9670	 5.0380
 1.9680	 5.0610
 1.9690	 5.0850
 1.9700	 5.1100
 1.9710	 5.1380
 1.9720	 5.1640
 1.9730	 5.1900
 1.9740	 5.2170
 1.9750	 5.2410
 1.9760	 5.2650
 1.9770	 5.2910
 1.9780	 5.3160
 1.9790	 5.3440
 1.9800	 5.3730
 1.9810	 5.4030
 1.9820	 5.4330
 1.9830	 5.4640
 1.9840	 5.4960
 1.9850	 5.5280
 1.9860	 5.5600
 1.9870	 5.5950
 1.9880	 5.6310
 1.9890	 5.6660
 1.9900	 5.7010
 1.9910	 5.7380
 1.9920	 5.7740
 1.9930	 5.8100
 1.9940	 5.8470
 1.9950	 5.8860
 1.9960	 5.9220
 1.9970	 5.9550
 1.9980	 5.9910
 1.9990	 6.0260
 2.0000	 6.0600
 2.0010	 6.0980
 2.0020	 6.1400
 2.0030	 6.1810
 2.0040	 6.2220
 2.0050	 6.2620
 2.0060	 6.2990
 2.0070	 6.3380
 2.0080	 6.3770
 2.0090	 6.4150
 2.0100	 6.4550
 2.0110	 6.4930
 2.0120	 6.5290
 2.0130	 6.5660
 2.0140	 6.6040
 2.0150	 6.6430
 2.0160	 6.6840
 2.0170	 6.7210
 2.0180	 6.7590
 2.0190	 6.7960
 2.0200	 6.8350
 2.0210	 6.8780
 2.0220	 6.9180
 2.0230	 6.9600
 2.0240	 6.9980
 2.0250	 7.0310
 2.0260	 7.0670
 2.0270	 7.1030
 2.0280	 7.1390
 2.0290	 7.1750
 2.0300	 7.2110
 2.0310	 7.2450
 2.0320	 7.2760
 2.0330	 7.3090
 2.0340	 7.3420
 2.0350	 7.3760
 2.0360	 7.4110
 2.0370	 7.4450
 2.0380	 7.4810
 2.0390	 7.5130
 2.0400	 7.5410
 2.0410	 7.5690
 2.0420	 7.5960
 2.0430	 7.6200
 2.0440	 7.6470
 2.0450	 7.6760
 2.0460	 7.7050
 2.0470	 7.7340
 2.0480	 7.7640
 2.0490	 7.7950
 2.0500	 7.8250
 2.0510	 7.8530
 2.0520	 7.8830
 2.0530	 7.9140
 2.0540	 7.9450
 2.0550	 7.9770
 2.0560	 8.0110
 2.0570	 8.0430
 2.0580	 8.0720
 2.0590	 8.1020
 2.0600	 8.1290
 2.0610	 8.1580
 2.0620	 8.1870
 2.0630	 8.2180
 2.0640	 8.2510
 2.0650	 8.2840
 2.0660	 8.3180
 2.0670	 8.3510
 2.0680	 8.3850
 2.0690	 8.4170
 2.0700	 8.4490
 2.0710	 8.4800
 2.0720	 8.5080
 2.0730	 8.5350
 2.0740	 8.5650
 2.0750	 8.5950
 2.0760	 8.6260
 2.0770	 8.6610
 2.0780	 8.6920
 2.0790	 8.7210
 2.0800	 8.7500
 2.0810	 8.7760
 2.0820	 8.8030
 2.0830	 8.8280
 2.0840	 8.8560
 2.0850	 8.8870
 2.0860	 8.9150
 2.0870	 8.9440
 2.0880	 8.9730
 2.0890	 9.0000
 2.0900	 9.0240
 2.0910	 9.0500
 2.0920	 9.0760
 2.0930	 9.1030
 2.0940	 9.1330
 2.0950	 9.1590
 2.0960	 9.1840
 2.0970	 9.2090
 2.0980	 9.2320
 2.0990	 9.2550
 2.1000	 9.2770
 2.1010	 9.3010
 2.1020	 9.3260
 2.1030	 9.3490
 2.1040	 9.3720
 2.1050	 9.3960
 2.1060	 9.4180
 2.1070	 9.4380
 2.1080	 9.4590
 2.1090	 9.4800
 2.1100	 9.5000
 2.1110	 9.5180
 2.1120	 9.5370
 2.1130	 9.5550
 2.1140	 9.5740
 2.1150	 9.5950
 2.1160	 9.6140
 2.1170	 9.6330
 2.1180	 9.6510
 2.1190	 9.6690
 2.1200	 9.6850
 2.1210	 9.7000
 2.1220	 9.7170
 2.1230	 9.7330
 2.1240	 9.7490
 2.1250	 9.7650
 2.1260	 9.7810
 2.1270	 9.7960
 2.1280	 9.8090
 2.1290	 9.8230
 2.1300	 9.8380
 2.1310	 9.8510
 2.1320	 9.8630
 2.1330	 9.8760
 2.1340	 9.8860
 2.1350	 9.9010
 2.1360	 9.9170
 2.1370	 9.9340
 2.1380	 9.9540
 2.1390	 9.9720
 2.1400	 9.9890
 2.1410	10.0060
 2.1420	10.0220
 2.1430	10.0360
 2.1440	10.0540
 2.1450	10.0720
 2.1460	10.0900
 2.1470	10.1100
 2.1480	10.1270
 2.1490	10.1410
 2.1500	10.1600
 2.1510	10.1830
 2.1520	10.2040
 2.1530	10.2290
 2.1540	10.2480
 2.1550	10.2610
 2.1560	10.2760
 2.1570	10.2900
 2.1580	10.3040
 2.1590	10.3170
 2.1600	10.3310
 2.1610	10.3430
 2.1620	10.3570
 2.1630	10.3720
 2.1640	10.3900
 2.1650	10.4060
 2.1660	10.4240
 2.1670	10.4390
 2.1680	10.4520
 2.1690	10.4660
 2.1700	10.4770
 2.1710	10.4910
 2.1720	10.5050
 2.1730	10.5220
 2.1740	10.5420
 2.1750	10.5590
 2.1760	10.5760
 2.1770	10.5930
 2.1780	10.6090
 2.1790	10.6260
 2.1800	10.6460
 2.1810	10.6660
 2.1820	10.6850
 2.1830	10.7050
 2.1840	10.7240
 2.1850	10.7430
 2.1860	10.7630
 2.1870	10.7830
 2.1880	10.8040
 2.1890	10.8290
 2.1900	10.8490
 2.1910	10.8660
 2.1920	10.8850
 2.1930	10.9050
 2.1940	10.9230
 2.1950	10.9420
 2.1960	10.9600
 2.1970	10.9740
 2.1980	10.9920
 2.1990	11.0110
 2.2000	11.0300
 2.2010	11.0500
 2.2020	11.0690
 2.2030	11.0890
 2.2040	11.1060
 2.2050	11.1210
 2.2060	11.1360
 2.2070	11.1520
 2.2080	11.1670
 2.2090	11.1840
 2.2100	11.2020
 2.2110	11.2180
 2.2120	11.2330
 2.2130	11.2490
 2.2140	11.2650
 2.2150	11.2800
 2.2160	11.2940
 2.2170	11.3070
 2.2180	11.3180
 2.2190	11.3270
 2.2200	11.3340
 2.2210	11.3410
 2.2220	11.3450
 2.2230	11.3490
 2.2240	11.3550
 2.2250	11.3580
 2.2260	11.3580
 2.2270	11.3580
 2.2280	11.3570
 2.2290	11.3540
 2.2300	11.3500
 2.2310	11.3470
 2.2320	11.3420
 2.2330	11.3310
 2.2340	11.3190
 2.2350	11.3060
 2.2360	11.2890
 2.2370	11.2680
 2.2380	11.2470
 2.2390	11.2220
 2.2400	11.1980
 2.2410	11.1740
 2.2420	11.1480
 2.2430	11.1220
 2.2440	11.0910
 2.2450	11.0570
 2.2460	11.0220
 2.2470	10.9820
 2.2480	10.9460
 2.2490	10.9120
 2.2500	10.8780
 2.2510	10.8480
 2.2520	10.8130
 2.2530	10.7750
 2.2540	10.7370
 2.2550	10.6920
 2.2560	10.6510
 2.2570	10.6100
 2.2580	10.5670
 2.2590	10.5190
 2.2600	10.4790
 2.2610	10.4420
 2.2620	10.4070
 2.2630	10.3740
 2.2640	10.3440
 2.2650	10.3060
 2.2660	10.2700
 2.2670	10.2360
 2.2680	10.2020
 2.2690	10.1690
 2.2700	10.1380
 2.2710	10.1040
 2.2720	10.0710
 2.2730	10.0380
 2.2740	10.0030
 2.2750	 9.9730
 2.2760	 9.9470
 2.2770	 9.9150
 2.2780	 9.8830
 2.2790	 9.8540
 2.2800	 9.8250
 2.2810	 9.7950
 2.2820	 9.7690
 2.2830	 9.7420
 2.2840	 9.7110
 2.2850	 9.6820
 2.2860	 9.6560
 2.2870	 9.6260
 2.2880	 9.5910
 2.2890	 9.5570
 2.2900	 9.5200
 2.2910	 9.4870
 2.2920	 9.4580
 2.2930	 9.4290
 2.2940	 9.4070
 2.2950	 9.3770
 2.2960	 9.3390
 2.2970	 9.3040
 2.2980	 9.2660
 2.2990	 9.2250
 2.3000	 9.1920
 2.3010	 9.1630
 2.3020	 9.1330
 2.3030	 9.1020
 2.3040	 9.0630
 2.3050	 9.0200
 2.3060	 8.9790
 2.3070	 8.9380
 2.3080	 8.9040
 2.3090	 8.8760
 2.3100	 8.8490
 2.3110	 8.8290
 2.3120	 8.8090
 2.3130	 8.7900
 2.3140	 8.7780
 2.3150	 8.7700
 2.3160	 8.7650
 2.3170	 8.7690
 2.3180	 8.7650
 2.3190	 8.7620
 2.3200	 8.7540
 2.3210	 8.7420
 2.3220	 8.7300
 2.3230	 8.7150
 2.3240	 8.7020
 2.3250	 8.6930
 2.3260	 8.6750
 2.3270	 8.6510
 2.3280	 8.6290
 2.3290	 8.6000
 2.3300	 8.5760
 2.3310	 8.5570
 2.3320	 8.5330
 2.3330	 8.5090
 2.3340	 8.4850
 2.3350	 8.4640
 2.3360	 8.4380
 2.3370	 8.4070
 2.3380	 8.3800
 2.3390	 8.3510
 2.3400	 8.3230
 2.3410	 8.3020
 2.3420	 8.2770
 2.3430	 8.2480
 2.3440	 8.2210
 2.3450	 8.1920
 2.3460	 8.1640
 2.3470	 8.1420
 2.3480	 8.1160
 2.3490	 8.0880
 2.3500	 8.0660
 2.3510	 8.0430
 2.3520	 8.0240
 2.3530	 8.0150
 2.3540	 8.0010
 2.3550	 7.9880
 2.3560	 7.9760
 2.3570	 7.9550
 2.3580	 7.9420
 2.3590	 7.9300
 2.3600	 7.9100
 2.3610	 7.8910
 2.3620	 7.8660
 2.3630	 7.8360
 2.3640	 7.8160
 2.3650	 7.8030
 2.3660	 7.7890
 2.3670	 7.7660
 2.3680	 7.7410
 2.3690	 7.7100
 2.3700	 7.6830
 2.3710	 7.6660
 2.3720	 7.6500
 2.3730	 7.6360
 2.3740	 7.6160
 2.3750	 7.5920
 2.3760	 7.5570
 2.3770	 7.5220
 2.3780	 7.4950
 2.3790	 7.4780
 2.3800	 7.4620
 2.3810	 7.4460
 2.3820	 7.4280
 2.3830	 7.3990
 2.3840	 7.3700
 2.3850	 7.3370
 2.3860	 7.3090
 2.3870	 7.2870
 2.3880	 7.2660
 2.3890	 7.2480
 2.3900	 7.2270
 2.3910	 7.2010
 2.3920	 7.1710
 2.3930	 7.1440
 2.3940	 7.1160
 2.3950	 7.0910
 2.3960	 7.0660
 2.3970	 7.0350
 2.3980	 7.0160
 2.3990	 6.9910
 2.4000	 6.9670
 2.4010	 6.9480
 2.4020	 6.9140
 2.4030	 6.8830
 2.4040	 6.8670
 2.4050	 6.8520
 2.4060	 6.8340
 2.4070	 6.8230
 2.4080	 6.7980
 2.4090	 6.7590
 2.4100	 6.7360
 2.4110	 6.7090
 2.4120	 6.6720
 2.4130	 6.6440
 2.4140	 6.6150
 2.4150	 6.5830
 2.4160	 6.5540
 2.4170	 6.5240
 2.4180	 6.4950
 2.4190	 6.4730
 2.4200	 6.4540
 2.4210	 6.4350
 2.4220	 6.4140
 2.4230	 6.3950
 2.4240	 6.3660
 2.4250	 6.3330
 2.4260	 6.3020
 2.4270	 6.2660
 2.4280	 6.2410
 2.4290	 6.2340
 2.4300	 6.2110
 2.4310	 6.1760
 2.4320	 6.1420
 2.4330	 6.0980
 2.4340	 6.0740
 2.4350	 6.0650
 2.4360	 6.0550
 2.4370	 6.0510
 2.4380	 6.0390
 2.4390	 6.0170
 2.4400	 5.9890
 2.4410	 5.9700
 2.4420	 5.9460
 2.4430	 5.9240
 2.4440	 5.9170
 2.4450	 5.8900
 2.4460	 5.8570
 2.4470	 5.8290
 2.4480	 5.7740
 2.4490	 5.7420
 2.4500	 5.7350
 2.4510	 5.7170
 2.4520	 5.7180
 2.4530	 5.7110
 2.4540	 5.6780
 2.4550	 5.6540
 2.4560	 5.6420
 2.4570	 5.6350
 2.4580	 5.6160
 2.4590	 5.5980
 2.4600	 5.5810
 2.4610	 5.5310
 2.4620	 5.5090
 2.4630	 5.5060
 2.4640	 5.4830
 2.4650	 5.4930
 2.4660	 5.4880
 2.4670	 5.4550
 2.4680	 5.4380
 2.4690	 5.4010
 2.4700	 5.3970
 2.4710	 5.4250
 2.4720	 5.4200
 2.4730	 5.4230
 2.4740	 5.4130
 2.4750	 5.3690
 2.4760	 5.3460
 2.4770	 5.3290
 2.4780	 5.3230
 2.4790	 5.3320
 2.4800	 5.3220
 2.4810	 5.3250
 2.4820	 5.3050
 2.4830	 5.2600
 2.4840	 5.2670
 2.4850	 5.2660
 2.4860	 5.2580
 2.4870	 5.2630
 2.4880	 5.2420
 2.4890	 5.2180
 2.4900	 5.2030
 2.4910	 5.1930
 2.4920	 5.2000
 2.4930	 5.1990
 2.4940	 5.2100
 2.4950	 5.2560
 2.4960	 5.2960
 2.4970	 5.3210
 2.4980	 5.3260
 2.4990	 5.2650
 2.5000	 5.2210
