Name: Umbellularia californica 2
Type: vegetation
Class: Shrub
Genus: Umbellularia
Species: californica
Sample No.: VH237
Owner: UCSB
Wavelength Range: VSWIR
Origin: 34.5074; -119.7632; WGS84
Collection Date: 10/13/2013
Description: Samples were collected as part of the HyspIRI Airborne Campaign. 48 individual plants were sampled in three times in 2013 - spring  summer  and fall. The name of the sample includes a 1  2  or 3 which references a different individual of the species. Samples were taken to JPL and processed within 48 hours of collection. The same leaves were processed in the Nicolet and then measured using the ASD.
Measurement: Bidirectional reflectance
First Column: X
Second Column: Y
X Units: Wavelength (micrometers)
Y Units: Reflectance (percentage)
First X Value: 0.35
Last X Value: 2.5
Number of X Values: 2151
Additional Information: vegetation.shrub.umbellularia.californica.vswir.vh237.ucsb.asd.ancillary.txt

 0.3500	12.4210
 0.3510	12.1700
 0.3520	12.1190
 0.3530	12.0970
 0.3540	11.9930
 0.3550	12.2240
 0.3560	12.1530
 0.3570	11.9570
 0.3580	12.1480
 0.3590	12.2490
 0.3600	12.1650
 0.3610	11.9760
 0.3620	11.9380
 0.3630	11.9800
 0.3640	12.0220
 0.3650	12.0190
 0.3660	12.0770
 0.3670	12.0540
 0.3680	11.9500
 0.3690	11.8660
 0.3700	11.8800
 0.3710	11.7940
 0.3720	11.6110
 0.3730	11.7760
 0.3740	11.8640
 0.3750	11.8830
 0.3760	11.9310
 0.3770	11.8460
 0.3780	11.7440
 0.3790	11.7010
 0.3800	11.7370
 0.3810	11.6080
 0.3820	11.5570
 0.3830	11.7140
 0.3840	11.8040
 0.3850	11.7110
 0.3860	11.5930
 0.3870	11.6570
 0.3880	11.7190
 0.3890	11.6870
 0.3900	11.6110
 0.3910	11.6670
 0.3920	11.7490
 0.3930	11.7510
 0.3940	11.6510
 0.3950	11.6430
 0.3960	11.6220
 0.3970	11.6110
 0.3980	11.6720
 0.3990	11.6960
 0.4000	11.6870
 0.4010	11.6750
 0.4020	11.7090
 0.4030	11.7120
 0.4040	11.7110
 0.4050	11.7370
 0.4060	11.7410
 0.4070	11.7550
 0.4080	11.7770
 0.4090	11.7850
 0.4100	11.8430
 0.4110	11.8980
 0.4120	11.9030
 0.4130	11.8390
 0.4140	11.8920
 0.4150	11.9960
 0.4160	12.0290
 0.4170	12.0110
 0.4180	12.0060
 0.4190	12.0420
 0.4200	12.1180
 0.4210	12.1520
 0.4220	12.1680
 0.4230	12.1960
 0.4240	12.2240
 0.4250	12.2350
 0.4260	12.2540
 0.4270	12.3150
 0.4280	12.3630
 0.4290	12.3910
 0.4300	12.4060
 0.4310	12.4140
 0.4320	12.4160
 0.4330	12.4180
 0.4340	12.4280
 0.4350	12.4470
 0.4360	12.4870
 0.4370	12.5290
 0.4380	12.5410
 0.4390	12.5690
 0.4400	12.6170
 0.4410	12.6690
 0.4420	12.6990
 0.4430	12.7100
 0.4440	12.7200
 0.4450	12.7500
 0.4460	12.7800
 0.4470	12.7950
 0.4480	12.8060
 0.4490	12.8480
 0.4500	12.8610
 0.4510	12.8650
 0.4520	12.8910
 0.4530	12.9300
 0.4540	12.9540
 0.4550	12.9600
 0.4560	12.9680
 0.4570	12.9920
 0.4580	12.9960
 0.4590	12.9720
 0.4600	12.9760
 0.4610	13.0050
 0.4620	13.0370
 0.4630	13.0440
 0.4640	13.0470
 0.4650	13.0450
 0.4660	13.0480
 0.4670	13.0660
 0.4680	13.0720
 0.4690	13.0780
 0.4700	13.0880
 0.4710	13.0620
 0.4720	13.0710
 0.4730	13.1020
 0.4740	13.1030
 0.4750	13.1080
 0.4760	13.1180
 0.4770	13.1270
 0.4780	13.1300
 0.4790	13.1250
 0.4800	13.1270
 0.4810	13.1510
 0.4820	13.1660
 0.4830	13.1580
 0.4840	13.1460
 0.4850	13.1700
 0.4860	13.1850
 0.4870	13.1930
 0.4880	13.2060
 0.4890	13.2410
 0.4900	13.2820
 0.4910	13.3200
 0.4920	13.3550
 0.4930	13.4000
 0.4940	13.4520
 0.4950	13.5090
 0.4960	13.5760
 0.4970	13.6460
 0.4980	13.7210
 0.4990	13.8020
 0.5000	13.8820
 0.5010	13.9890
 0.5020	14.1130
 0.5030	14.2240
 0.5040	14.3640
 0.5050	14.5220
 0.5060	14.6860
 0.5070	14.8520
 0.5080	15.0340
 0.5090	15.2390
 0.5100	15.4730
 0.5110	15.7140
 0.5120	15.9680
 0.5130	16.2400
 0.5140	16.5300
 0.5150	16.8460
 0.5160	17.1750
 0.5170	17.5060
 0.5180	17.8560
 0.5190	18.2060
 0.5200	18.5570
 0.5210	18.9230
 0.5220	19.2820
 0.5230	19.6410
 0.5240	20.0020
 0.5250	20.3310
 0.5260	20.6550
 0.5270	20.9710
 0.5280	21.2670
 0.5290	21.5470
 0.5300	21.8110
 0.5310	22.0600
 0.5320	22.2910
 0.5330	22.5000
 0.5340	22.6930
 0.5350	22.8780
 0.5360	23.0490
 0.5370	23.1980
 0.5380	23.3290
 0.5390	23.4570
 0.5400	23.5660
 0.5410	23.6580
 0.5420	23.7390
 0.5430	23.8190
 0.5440	23.9120
 0.5450	24.0080
 0.5460	24.0920
 0.5470	24.2020
 0.5480	24.3170
 0.5490	24.4130
 0.5500	24.4760
 0.5510	24.5250
 0.5520	24.5590
 0.5530	24.5730
 0.5540	24.5790
 0.5550	24.5570
 0.5560	24.5090
 0.5570	24.4520
 0.5580	24.3760
 0.5590	24.2860
 0.5600	24.1840
 0.5610	24.0460
 0.5620	23.9040
 0.5630	23.7550
 0.5640	23.5850
 0.5650	23.4020
 0.5660	23.2110
 0.5670	23.0160
 0.5680	22.8130
 0.5690	22.5960
 0.5700	22.3780
 0.5710	22.1710
 0.5720	21.9540
 0.5730	21.7550
 0.5740	21.5740
 0.5750	21.3920
 0.5760	21.2210
 0.5770	21.0630
 0.5780	20.9160
 0.5790	20.7760
 0.5800	20.6470
 0.5810	20.5180
 0.5820	20.3810
 0.5830	20.2680
 0.5840	20.1610
 0.5850	20.0510
 0.5860	19.9450
 0.5870	19.8390
 0.5880	19.7380
 0.5890	19.6480
 0.5900	19.5650
 0.5910	19.4920
 0.5920	19.4250
 0.5930	19.3580
 0.5940	19.2970
 0.5950	19.2500
 0.5960	19.2120
 0.5970	19.1600
 0.5980	19.1090
 0.5990	19.0580
 0.6000	19.0030
 0.6010	18.9470
 0.6020	18.8840
 0.6030	18.8130
 0.6040	18.7370
 0.6050	18.6580
 0.6060	18.5710
 0.6070	18.4740
 0.6080	18.3690
 0.6090	18.2460
 0.6100	18.1060
 0.6110	17.9630
 0.6120	17.8550
 0.6130	17.7720
 0.6140	17.6970
 0.6150	17.6070
 0.6160	17.5130
 0.6170	17.4250
 0.6180	17.3470
 0.6190	17.2660
 0.6200	17.1890
 0.6210	17.1220
 0.6220	17.0720
 0.6230	17.0320
 0.6240	16.9930
 0.6250	16.9550
 0.6260	16.9410
 0.6270	16.9250
 0.6280	16.9090
 0.6290	16.8980
 0.6300	16.8750
 0.6310	16.8500
 0.6320	16.8300
 0.6330	16.8070
 0.6340	16.7560
 0.6350	16.6840
 0.6360	16.6000
 0.6370	16.5030
 0.6380	16.3840
 0.6390	16.2440
 0.6400	16.0930
 0.6410	15.9440
 0.6420	15.7930
 0.6430	15.6360
 0.6440	15.4840
 0.6450	15.3350
 0.6460	15.1930
 0.6470	15.0650
 0.6480	14.9510
 0.6490	14.8490
 0.6500	14.7600
 0.6510	14.6890
 0.6520	14.6340
 0.6530	14.5870
 0.6540	14.5380
 0.6550	14.4840
 0.6560	14.4310
 0.6570	14.3730
 0.6580	14.3030
 0.6590	14.2260
 0.6600	14.1400
 0.6610	14.0510
 0.6620	13.9690
 0.6630	13.8940
 0.6640	13.8230
 0.6650	13.7540
 0.6660	13.6930
 0.6670	13.6390
 0.6680	13.5950
 0.6690	13.5610
 0.6700	13.5470
 0.6710	13.5410
 0.6720	13.5350
 0.6730	13.5410
 0.6740	13.5530
 0.6750	13.5700
 0.6760	13.5970
 0.6770	13.6310
 0.6780	13.6690
 0.6790	13.7170
 0.6800	13.7790
 0.6810	13.8500
 0.6820	13.9410
 0.6830	14.0540
 0.6840	14.1790
 0.6850	14.3440
 0.6860	14.5530
 0.6870	14.8100
 0.6880	15.1350
 0.6890	15.5370
 0.6900	16.0270
 0.6910	16.6190
 0.6920	17.3300
 0.6930	18.1530
 0.6940	19.0830
 0.6950	20.1240
 0.6960	21.2690
 0.6970	22.5090
 0.6980	23.8320
 0.6990	25.2090
 0.7000	26.6330
 0.7010	28.0910
 0.7020	29.5660
 0.7030	31.0380
 0.7040	32.4850
 0.7050	33.8920
 0.7060	35.2810
 0.7070	36.6450
 0.7080	37.9650
 0.7090	39.2330
 0.7100	40.4660
 0.7110	41.6610
 0.7120	42.8140
 0.7130	43.9230
 0.7140	45.0000
 0.7150	46.0360
 0.7160	47.0260
 0.7170	47.9750
 0.7180	48.9020
 0.7190	49.7980
 0.7200	50.6460
 0.7210	51.4620
 0.7220	52.2360
 0.7230	52.9740
 0.7240	53.6970
 0.7250	54.3580
 0.7260	54.9820
 0.7270	55.5890
 0.7280	56.1550
 0.7290	56.7050
 0.7300	57.2260
 0.7310	57.6960
 0.7320	58.1530
 0.7330	58.5870
 0.7340	58.9960
 0.7350	59.3820
 0.7360	59.7210
 0.7370	60.0400
 0.7380	60.3600
 0.7390	60.6450
 0.7400	60.9150
 0.7410	61.1700
 0.7420	61.4100
 0.7430	61.6300
 0.7440	61.8270
 0.7450	62.0030
 0.7460	62.1670
 0.7470	62.3120
 0.7480	62.4490
 0.7490	62.5800
 0.7500	62.6750
 0.7510	62.7900
 0.7520	62.8960
 0.7530	62.9540
 0.7540	63.0180
 0.7550	63.0850
 0.7560	63.1510
 0.7570	63.2150
 0.7580	63.2580
 0.7590	63.2890
 0.7600	63.3230
 0.7610	63.3710
 0.7620	63.4080
 0.7630	63.4220
 0.7640	63.4190
 0.7650	63.4450
 0.7660	63.4560
 0.7670	63.4580
 0.7680	63.4850
 0.7690	63.4930
 0.7700	63.4870
 0.7710	63.4830
 0.7720	63.5010
 0.7730	63.5160
 0.7740	63.5020
 0.7750	63.4620
 0.7760	63.4840
 0.7770	63.5040
 0.7780	63.5170
 0.7790	63.5390
 0.7800	63.5090
 0.7810	63.4870
 0.7820	63.4920
 0.7830	63.4950
 0.7840	63.4650
 0.7850	63.4580
 0.7860	63.5010
 0.7870	63.5280
 0.7880	63.5120
 0.7890	63.4890
 0.7900	63.5010
 0.7910	63.4990
 0.7920	63.5080
 0.7930	63.5210
 0.7940	63.5070
 0.7950	63.4980
 0.7960	63.4840
 0.7970	63.4710
 0.7980	63.4960
 0.7990	63.5040
 0.8000	63.5000
 0.8010	63.4980
 0.8020	63.5040
 0.8030	63.5110
 0.8040	63.5150
 0.8050	63.5130
 0.8060	63.4900
 0.8070	63.4890
 0.8080	63.5120
 0.8090	63.5210
 0.8100	63.4930
 0.8110	63.4650
 0.8120	63.4640
 0.8130	63.4790
 0.8140	63.4900
 0.8150	63.4950
 0.8160	63.5010
 0.8170	63.5180
 0.8180	63.5190
 0.8190	63.5080
 0.8200	63.5010
 0.8210	63.5100
 0.8220	63.5170
 0.8230	63.5280
 0.8240	63.5710
 0.8250	63.5560
 0.8260	63.5290
 0.8270	63.5210
 0.8280	63.5010
 0.8290	63.5190
 0.8300	63.5530
 0.8310	63.5680
 0.8320	63.5450
 0.8330	63.5410
 0.8340	63.5430
 0.8350	63.5220
 0.8360	63.5400
 0.8370	63.5640
 0.8380	63.5750
 0.8390	63.5730
 0.8400	63.5650
 0.8410	63.5700
 0.8420	63.5840
 0.8430	63.5760
 0.8440	63.5770
 0.8450	63.6000
 0.8460	63.6330
 0.8470	63.6310
 0.8480	63.6350
 0.8490	63.6400
 0.8500	63.6340
 0.8510	63.6250
 0.8520	63.6310
 0.8530	63.6350
 0.8540	63.6140
 0.8550	63.6370
 0.8560	63.6630
 0.8570	63.6590
 0.8580	63.6240
 0.8590	63.6340
 0.8600	63.6590
 0.8610	63.6680
 0.8620	63.6650
 0.8630	63.6670
 0.8640	63.6640
 0.8650	63.6530
 0.8660	63.6590
 0.8670	63.6690
 0.8680	63.6760
 0.8690	63.6770
 0.8700	63.6680
 0.8710	63.6820
 0.8720	63.7000
 0.8730	63.6810
 0.8740	63.6670
 0.8750	63.6590
 0.8760	63.6630
 0.8770	63.6860
 0.8780	63.6710
 0.8790	63.6440
 0.8800	63.6400
 0.8810	63.6830
 0.8820	63.6830
 0.8830	63.6720
 0.8840	63.6830
 0.8850	63.6770
 0.8860	63.6420
 0.8870	63.6070
 0.8880	63.6050
 0.8890	63.6180
 0.8900	63.6190
 0.8910	63.6090
 0.8920	63.6060
 0.8930	63.6030
 0.8940	63.6100
 0.8950	63.6180
 0.8960	63.6120
 0.8970	63.5920
 0.8980	63.5620
 0.8990	63.5500
 0.9000	63.5940
 0.9010	63.5990
 0.9020	63.5790
 0.9030	63.5600
 0.9040	63.5610
 0.9050	63.5660
 0.9060	63.5540
 0.9070	63.5200
 0.9080	63.4970
 0.9090	63.4930
 0.9100	63.5100
 0.9110	63.5290
 0.9120	63.4770
 0.9130	63.4490
 0.9140	63.4470
 0.9150	63.4530
 0.9160	63.4790
 0.9170	63.5050
 0.9180	63.4900
 0.9190	63.4220
 0.9200	63.4270
 0.9210	63.4390
 0.9220	63.4250
 0.9230	63.3880
 0.9240	63.3570
 0.9250	63.3690
 0.9260	63.3960
 0.9270	63.3700
 0.9280	63.3680
 0.9290	63.3750
 0.9300	63.3670
 0.9310	63.3220
 0.9320	63.2980
 0.9330	63.2900
 0.9340	63.2820
 0.9350	63.2540
 0.9360	63.2460
 0.9370	63.2250
 0.9380	63.1820
 0.9390	63.1690
 0.9400	63.1790
 0.9410	63.1580
 0.9420	63.0980
 0.9430	63.0880
 0.9440	63.0950
 0.9450	63.0760
 0.9460	63.0180
 0.9470	62.9770
 0.9480	62.9360
 0.9490	62.9010
 0.9500	62.8770
 0.9510	62.8470
 0.9520	62.7900
 0.9530	62.7320
 0.9540	62.6990
 0.9550	62.6800
 0.9560	62.6230
 0.9570	62.5500
 0.9580	62.5000
 0.9590	62.4530
 0.9600	62.4310
 0.9610	62.3940
 0.9620	62.3200
 0.9630	62.3220
 0.9640	62.3120
 0.9650	62.2770
 0.9660	62.2390
 0.9670	62.2110
 0.9680	62.2090
 0.9690	62.2220
 0.9700	62.2290
 0.9710	62.2110
 0.9720	62.2230
 0.9730	62.2330
 0.9740	62.1920
 0.9750	62.1650
 0.9760	62.1620
 0.9770	62.1960
 0.9780	62.2560
 0.9790	62.2410
 0.9800	62.1770
 0.9810	62.1170
 0.9820	62.1120
 0.9830	62.1980
 0.9840	62.2240
 0.9850	62.1940
 0.9860	62.1860
 0.9870	62.1830
 0.9880	62.1970
 0.9890	62.2140
 0.9900	62.2190
 0.9910	62.2540
 0.9920	62.2960
 0.9930	62.3370
 0.9940	62.3790
 0.9950	62.4210
 0.9960	62.4620
 0.9970	62.5040
 0.9980	62.5450
 0.9990	62.5870
 1.0000	62.6280
 1.0010	62.6700
 1.0020	62.7110
 1.0030	62.7530
 1.0040	62.7950
 1.0050	62.8360
 1.0060	62.8780
 1.0070	62.9190
 1.0080	62.9610
 1.0090	63.0020
 1.0100	63.0020
 1.0110	63.0250
 1.0120	63.0430
 1.0130	63.0450
 1.0140	63.0570
 1.0150	63.0670
 1.0160	63.0970
 1.0170	63.1290
 1.0180	63.1630
 1.0190	63.1960
 1.0200	63.2120
 1.0210	63.2130
 1.0220	63.2100
 1.0230	63.2170
 1.0240	63.2270
 1.0250	63.2320
 1.0260	63.2380
 1.0270	63.2450
 1.0280	63.2340
 1.0290	63.2470
 1.0300	63.2840
 1.0310	63.3060
 1.0320	63.3270
 1.0330	63.3540
 1.0340	63.3800
 1.0350	63.3920
 1.0360	63.4050
 1.0370	63.4110
 1.0380	63.4150
 1.0390	63.4000
 1.0400	63.4010
 1.0410	63.4130
 1.0420	63.4180
 1.0430	63.4190
 1.0440	63.4250
 1.0450	63.4350
 1.0460	63.4360
 1.0470	63.4400
 1.0480	63.4400
 1.0490	63.4220
 1.0500	63.4180
 1.0510	63.4210
 1.0520	63.4240
 1.0530	63.4280
 1.0540	63.4390
 1.0550	63.4430
 1.0560	63.4350
 1.0570	63.4450
 1.0580	63.4650
 1.0590	63.4750
 1.0600	63.4950
 1.0610	63.5000
 1.0620	63.4870
 1.0630	63.4840
 1.0640	63.4790
 1.0650	63.4800
 1.0660	63.4880
 1.0670	63.4950
 1.0680	63.5040
 1.0690	63.5160
 1.0700	63.5210
 1.0710	63.5280
 1.0720	63.5260
 1.0730	63.5130
 1.0740	63.5090
 1.0750	63.4990
 1.0760	63.4970
 1.0770	63.5050
 1.0780	63.5030
 1.0790	63.4980
 1.0800	63.4910
 1.0810	63.4690
 1.0820	63.4620
 1.0830	63.4640
 1.0840	63.4610
 1.0850	63.4630
 1.0860	63.4640
 1.0870	63.4610
 1.0880	63.4510
 1.0890	63.4460
 1.0900	63.4420
 1.0910	63.4360
 1.0920	63.4250
 1.0930	63.4200
 1.0940	63.4180
 1.0950	63.4130
 1.0960	63.4100
 1.0970	63.4020
 1.0980	63.3930
 1.0990	63.3790
 1.1000	63.3560
 1.1010	63.3390
 1.1020	63.3260
 1.1030	63.3020
 1.1040	63.2730
 1.1050	63.2600
 1.1060	63.2450
 1.1070	63.2250
 1.1080	63.2130
 1.1090	63.2140
 1.1100	63.2030
 1.1110	63.1920
 1.1120	63.1740
 1.1130	63.1500
 1.1140	63.1270
 1.1150	63.0980
 1.1160	63.0720
 1.1170	63.0490
 1.1180	63.0210
 1.1190	62.9890
 1.1200	62.9610
 1.1210	62.9200
 1.1220	62.8800
 1.1230	62.8430
 1.1240	62.7970
 1.1250	62.7480
 1.1260	62.7030
 1.1270	62.6460
 1.1280	62.5760
 1.1290	62.5130
 1.1300	62.4520
 1.1310	62.3840
 1.1320	62.3190
 1.1330	62.2430
 1.1340	62.1620
 1.1350	62.0700
 1.1360	61.9690
 1.1370	61.8620
 1.1380	61.7500
 1.1390	61.6310
 1.1400	61.5160
 1.1410	61.3980
 1.1420	61.2700
 1.1430	61.1460
 1.1440	61.0200
 1.1450	60.8830
 1.1460	60.7620
 1.1470	60.6490
 1.1480	60.5330
 1.1490	60.4220
 1.1500	60.3140
 1.1510	60.2000
 1.1520	60.0980
 1.1530	60.0040
 1.1540	59.9180
 1.1550	59.8380
 1.1560	59.7690
 1.1570	59.7130
 1.1580	59.6580
 1.1590	59.6070
 1.1600	59.5600
 1.1610	59.5100
 1.1620	59.4630
 1.1630	59.4230
 1.1640	59.3870
 1.1650	59.3490
 1.1660	59.3120
 1.1670	59.2820
 1.1680	59.2520
 1.1690	59.2250
 1.1700	59.2070
 1.1710	59.1840
 1.1720	59.1600
 1.1730	59.1330
 1.1740	59.1020
 1.1750	59.0710
 1.1760	59.0450
 1.1770	59.0150
 1.1780	58.9850
 1.1790	58.9540
 1.1800	58.9210
 1.1810	58.8910
 1.1820	58.8650
 1.1830	58.8400
 1.1840	58.8090
 1.1850	58.7770
 1.1860	58.7430
 1.1870	58.7120
 1.1880	58.6870
 1.1890	58.6670
 1.1900	58.6440
 1.1910	58.6240
 1.1920	58.6070
 1.1930	58.5850
 1.1940	58.5730
 1.1950	58.5690
 1.1960	58.5620
 1.1970	58.5610
 1.1980	58.5640
 1.1990	58.5670
 1.2000	58.5770
 1.2010	58.5830
 1.2020	58.5910
 1.2030	58.6020
 1.2040	58.6150
 1.2050	58.6370
 1.2060	58.6600
 1.2070	58.6880
 1.2080	58.7160
 1.2090	58.7420
 1.2100	58.7730
 1.2110	58.8060
 1.2120	58.8390
 1.2130	58.8740
 1.2140	58.9090
 1.2150	58.9450
 1.2160	58.9790
 1.2170	59.0220
 1.2180	59.0680
 1.2190	59.1180
 1.2200	59.1710
 1.2210	59.2160
 1.2220	59.2570
 1.2230	59.2980
 1.2240	59.3360
 1.2250	59.3720
 1.2260	59.4110
 1.2270	59.4460
 1.2280	59.4880
 1.2290	59.5250
 1.2300	59.5520
 1.2310	59.5830
 1.2320	59.6120
 1.2330	59.6430
 1.2340	59.6770
 1.2350	59.7170
 1.2360	59.7520
 1.2370	59.7860
 1.2380	59.8130
 1.2390	59.8430
 1.2400	59.8740
 1.2410	59.9020
 1.2420	59.9300
 1.2430	59.9590
 1.2440	59.9830
 1.2450	60.0030
 1.2460	60.0250
 1.2470	60.0450
 1.2480	60.0550
 1.2490	60.0690
 1.2500	60.0790
 1.2510	60.0860
 1.2520	60.0950
 1.2530	60.0980
 1.2540	60.1060
 1.2550	60.1180
 1.2560	60.1290
 1.2570	60.1430
 1.2580	60.1530
 1.2590	60.1620
 1.2600	60.1650
 1.2610	60.1730
 1.2620	60.1820
 1.2630	60.1950
 1.2640	60.2030
 1.2650	60.2040
 1.2660	60.2020
 1.2670	60.2000
 1.2680	60.1930
 1.2690	60.1900
 1.2700	60.1890
 1.2710	60.1780
 1.2720	60.1710
 1.2730	60.1640
 1.2740	60.1510
 1.2750	60.1440
 1.2760	60.1370
 1.2770	60.1280
 1.2780	60.1200
 1.2790	60.1060
 1.2800	60.0800
 1.2810	60.0550
 1.2820	60.0330
 1.2830	60.0140
 1.2840	60.0030
 1.2850	59.9930
 1.2860	59.9850
 1.2870	59.9710
 1.2880	59.9530
 1.2890	59.9250
 1.2900	59.8970
 1.2910	59.8650
 1.2920	59.8330
 1.2930	59.8050
 1.2940	59.7780
 1.2950	59.7490
 1.2960	59.7100
 1.2970	59.6740
 1.2980	59.6390
 1.2990	59.6030
 1.3000	59.5760
 1.3010	59.5430
 1.3020	59.5050
 1.3030	59.4730
 1.3040	59.4280
 1.3050	59.3820
 1.3060	59.3430
 1.3070	59.2890
 1.3080	59.2300
 1.3090	59.1680
 1.3100	59.1020
 1.3110	59.0310
 1.3120	58.9590
 1.3130	58.8890
 1.3140	58.8110
 1.3150	58.7230
 1.3160	58.6400
 1.3170	58.5570
 1.3180	58.4690
 1.3190	58.3840
 1.3200	58.2960
 1.3210	58.2000
 1.3220	58.1040
 1.3230	58.0030
 1.3240	57.8950
 1.3250	57.7840
 1.3260	57.6690
 1.3270	57.5460
 1.3280	57.4230
 1.3290	57.2940
 1.3300	57.1630
 1.3310	57.0320
 1.3320	56.8990
 1.3330	56.7710
 1.3340	56.6480
 1.3350	56.5210
 1.3360	56.3870
 1.3370	56.2490
 1.3380	56.1160
 1.3390	55.9810
 1.3400	55.8470
 1.3410	55.7140
 1.3420	55.5770
 1.3430	55.4420
 1.3440	55.3050
 1.3450	55.1710
 1.3460	55.0410
 1.3470	54.9100
 1.3480	54.7790
 1.3490	54.6490
 1.3500	54.5210
 1.3510	54.3840
 1.3520	54.2470
 1.3530	54.1150
 1.3540	53.9820
 1.3550	53.8510
 1.3560	53.7200
 1.3570	53.5890
 1.3580	53.4540
 1.3590	53.3150
 1.3600	53.1750
 1.3610	53.0300
 1.3620	52.8790
 1.3630	52.7250
 1.3640	52.5650
 1.3650	52.3960
 1.3660	52.2240
 1.3670	52.0450
 1.3680	51.8550
 1.3690	51.6540
 1.3700	51.4380
 1.3710	51.2110
 1.3720	50.9740
 1.3730	50.7220
 1.3740	50.4570
 1.3750	50.1750
 1.3760	49.8720
 1.3770	49.5480
 1.3780	49.2040
 1.3790	48.8310
 1.3800	48.4310
 1.3810	48.0060
 1.3820	47.5570
 1.3830	47.0830
 1.3840	46.5880
 1.3850	46.0690
 1.3860	45.5330
 1.3870	44.9700
 1.3880	44.4020
 1.3890	43.8180
 1.3900	43.2240
 1.3910	42.6250
 1.3920	42.0140
 1.3930	41.3990
 1.3940	40.7820
 1.3950	40.1630
 1.3960	39.5510
 1.3970	38.9410
 1.3980	38.3410
 1.3990	37.7570
 1.4000	37.1820
 1.4010	36.6210
 1.4020	36.0780
 1.4030	35.5490
 1.4040	35.0390
 1.4050	34.5520
 1.4060	34.0830
 1.4070	33.6390
 1.4080	33.2190
 1.4090	32.8230
 1.4100	32.4510
 1.4110	32.1000
 1.4120	31.7700
 1.4130	31.4630
 1.4140	31.1750
 1.4150	30.9150
 1.4160	30.6780
 1.4170	30.4540
 1.4180	30.2490
 1.4190	30.0590
 1.4200	29.8860
 1.4210	29.7310
 1.4220	29.5910
 1.4230	29.4660
 1.4240	29.3520
 1.4250	29.2460
 1.4260	29.1540
 1.4270	29.0690
 1.4280	28.9900
 1.4290	28.9240
 1.4300	28.8720
 1.4310	28.8240
 1.4320	28.7860
 1.4330	28.7540
 1.4340	28.7250
 1.4350	28.7030
 1.4360	28.6870
 1.4370	28.6790
 1.4380	28.6740
 1.4390	28.6780
 1.4400	28.6860
 1.4410	28.6970
 1.4420	28.7090
 1.4430	28.7270
 1.4440	28.7480
 1.4450	28.7710
 1.4460	28.7990
 1.4470	28.8280
 1.4480	28.8590
 1.4490	28.8870
 1.4500	28.9180
 1.4510	28.9510
 1.4520	28.9840
 1.4530	29.0190
 1.4540	29.0520
 1.4550	29.0870
 1.4560	29.1260
 1.4570	29.1700
 1.4580	29.2200
 1.4590	29.2700
 1.4600	29.3240
 1.4610	29.3850
 1.4620	29.4490
 1.4630	29.5240
 1.4640	29.6040
 1.4650	29.6860
 1.4660	29.7750
 1.4670	29.8670
 1.4680	29.9610
 1.4690	30.0610
 1.4700	30.1650
 1.4710	30.2750
 1.4720	30.3910
 1.4730	30.5130
 1.4740	30.6400
 1.4750	30.7680
 1.4760	30.9000
 1.4770	31.0350
 1.4780	31.1720
 1.4790	31.3160
 1.4800	31.4610
 1.4810	31.6090
 1.4820	31.7580
 1.4830	31.9040
 1.4840	32.0520
 1.4850	32.2000
 1.4860	32.3480
 1.4870	32.4990
 1.4880	32.6490
 1.4890	32.7950
 1.4900	32.9440
 1.4910	33.0930
 1.4920	33.2440
 1.4930	33.3970
 1.4940	33.5490
 1.4950	33.7010
 1.4960	33.8520
 1.4970	34.0020
 1.4980	34.1530
 1.4990	34.3050
 1.5000	34.4570
 1.5010	34.6110
 1.5020	34.7610
 1.5030	34.9120
 1.5040	35.0600
 1.5050	35.2050
 1.5060	35.3490
 1.5070	35.4920
 1.5080	35.6360
 1.5090	35.7800
 1.5100	35.9210
 1.5110	36.0610
 1.5120	36.2010
 1.5130	36.3380
 1.5140	36.4770
 1.5150	36.6160
 1.5160	36.7520
 1.5170	36.8890
 1.5180	37.0240
 1.5190	37.1560
 1.5200	37.2870
 1.5210	37.4200
 1.5220	37.5500
 1.5230	37.6750
 1.5240	37.7970
 1.5250	37.9170
 1.5260	38.0350
 1.5270	38.1540
 1.5280	38.2760
 1.5290	38.3920
 1.5300	38.5070
 1.5310	38.6220
 1.5320	38.7340
 1.5330	38.8460
 1.5340	38.9560
 1.5350	39.0680
 1.5360	39.1810
 1.5370	39.2910
 1.5380	39.3970
 1.5390	39.5020
 1.5400	39.6020
 1.5410	39.7030
 1.5420	39.8050
 1.5430	39.9040
 1.5440	39.9980
 1.5450	40.0900
 1.5460	40.1820
 1.5470	40.2750
 1.5480	40.3720
 1.5490	40.4720
 1.5500	40.5690
 1.5510	40.6630
 1.5520	40.7550
 1.5530	40.8440
 1.5540	40.9360
 1.5550	41.0330
 1.5560	41.1300
 1.5570	41.2260
 1.5580	41.3170
 1.5590	41.4040
 1.5600	41.4870
 1.5610	41.5640
 1.5620	41.6430
 1.5630	41.7210
 1.5640	41.8010
 1.5650	41.8810
 1.5660	41.9600
 1.5670	42.0390
 1.5680	42.1160
 1.5690	42.1980
 1.5700	42.2860
 1.5710	42.3720
 1.5720	42.4550
 1.5730	42.5350
 1.5740	42.6030
 1.5750	42.6750
 1.5760	42.7460
 1.5770	42.8140
 1.5780	42.8900
 1.5790	42.9610
 1.5800	43.0310
 1.5810	43.1070
 1.5820	43.1750
 1.5830	43.2440
 1.5840	43.3180
 1.5850	43.3880
 1.5860	43.4600
 1.5870	43.5280
 1.5880	43.5910
 1.5890	43.6560
 1.5900	43.7160
 1.5910	43.7770
 1.5920	43.8460
 1.5930	43.9150
 1.5940	43.9870
 1.5950	44.0630
 1.5960	44.1340
 1.5970	44.2040
 1.5980	44.2760
 1.5990	44.3420
 1.6000	44.4130
 1.6010	44.4820
 1.6020	44.5460
 1.6030	44.6120
 1.6040	44.6760
 1.6050	44.7360
 1.6060	44.7900
 1.6070	44.8410
 1.6080	44.8890
 1.6090	44.9370
 1.6100	44.9900
 1.6110	45.0470
 1.6120	45.0980
 1.6130	45.1450
 1.6140	45.1930
 1.6150	45.2410
 1.6160	45.2910
 1.6170	45.3450
 1.6180	45.3970
 1.6190	45.4460
 1.6200	45.4940
 1.6210	45.5400
 1.6220	45.5790
 1.6230	45.6170
 1.6240	45.6530
 1.6250	45.6840
 1.6260	45.7150
 1.6270	45.7460
 1.6280	45.7710
 1.6290	45.7990
 1.6300	45.8270
 1.6310	45.8560
 1.6320	45.8860
 1.6330	45.9120
 1.6340	45.9370
 1.6350	45.9600
 1.6360	45.9770
 1.6370	45.9990
 1.6380	46.0190
 1.6390	46.0430
 1.6400	46.0690
 1.6410	46.0940
 1.6420	46.1240
 1.6430	46.1470
 1.6440	46.1690
 1.6450	46.1890
 1.6460	46.2040
 1.6470	46.2200
 1.6480	46.2360
 1.6490	46.2520
 1.6500	46.2630
 1.6510	46.2630
 1.6520	46.2590
 1.6530	46.2470
 1.6540	46.2280
 1.6550	46.2130
 1.6560	46.1950
 1.6570	46.1780
 1.6580	46.1640
 1.6590	46.1480
 1.6600	46.1270
 1.6610	46.1070
 1.6620	46.0810
 1.6630	46.0500
 1.6640	46.0250
 1.6650	45.9960
 1.6660	45.9630
 1.6670	45.9320
 1.6680	45.8910
 1.6690	45.8420
 1.6700	45.7880
 1.6710	45.7270
 1.6720	45.6620
 1.6730	45.5950
 1.6740	45.5300
 1.6750	45.4640
 1.6760	45.3920
 1.6770	45.3150
 1.6780	45.2330
 1.6790	45.1510
 1.6800	45.0750
 1.6810	45.0060
 1.6820	44.9320
 1.6830	44.8450
 1.6840	44.7510
 1.6850	44.6430
 1.6860	44.5360
 1.6870	44.4330
 1.6880	44.3230
 1.6890	44.2160
 1.6900	44.1060
 1.6910	43.9920
 1.6920	43.8810
 1.6930	43.7640
 1.6940	43.6570
 1.6950	43.5540
 1.6960	43.4560
 1.6970	43.3670
 1.6980	43.2760
 1.6990	43.1830
 1.7000	43.0970
 1.7010	43.0150
 1.7020	42.9290
 1.7030	42.8490
 1.7040	42.7600
 1.7050	42.6620
 1.7060	42.5700
 1.7070	42.4730
 1.7080	42.3860
 1.7090	42.3050
 1.7100	42.2260
 1.7110	42.1490
 1.7120	42.0790
 1.7130	42.0140
 1.7140	41.9610
 1.7150	41.9140
 1.7160	41.8710
 1.7170	41.8380
 1.7180	41.8000
 1.7190	41.7650
 1.7200	41.7340
 1.7210	41.6990
 1.7220	41.6720
 1.7230	41.6530
 1.7240	41.6250
 1.7250	41.5970
 1.7260	41.5680
 1.7270	41.5400
 1.7280	41.5250
 1.7290	41.5200
 1.7300	41.5250
 1.7310	41.5230
 1.7320	41.5180
 1.7330	41.5150
 1.7340	41.5120
 1.7350	41.5070
 1.7360	41.5100
 1.7370	41.4980
 1.7380	41.4790
 1.7390	41.4530
 1.7400	41.4170
 1.7410	41.3730
 1.7420	41.3170
 1.7430	41.2620
 1.7440	41.1940
 1.7450	41.1360
 1.7460	41.0810
 1.7470	41.0250
 1.7480	40.9720
 1.7490	40.9180
 1.7500	40.8640
 1.7510	40.8090
 1.7520	40.7530
 1.7530	40.6970
 1.7540	40.6390
 1.7550	40.5780
 1.7560	40.5240
 1.7570	40.4690
 1.7580	40.4190
 1.7590	40.3780
 1.7600	40.3390
 1.7610	40.3070
 1.7620	40.2760
 1.7630	40.2470
 1.7640	40.2210
 1.7650	40.1990
 1.7660	40.1750
 1.7670	40.1570
 1.7680	40.1320
 1.7690	40.1030
 1.7700	40.0740
 1.7710	40.0390
 1.7720	40.0100
 1.7730	39.9810
 1.7740	39.9620
 1.7750	39.9540
 1.7760	39.9420
 1.7770	39.9360
 1.7780	39.9280
 1.7790	39.9140
 1.7800	39.9100
 1.7810	39.9130
 1.7820	39.9150
 1.7830	39.9220
 1.7840	39.9300
 1.7850	39.9380
 1.7860	39.9500
 1.7870	39.9640
 1.7880	39.9870
 1.7890	40.0100
 1.7900	40.0400
 1.7910	40.0650
 1.7920	40.0840
 1.7930	40.1050
 1.7940	40.1260
 1.7950	40.1450
 1.7960	40.1650
 1.7970	40.1820
 1.7980	40.1910
 1.7990	40.2080
 1.8000	40.2260
 1.8010	40.2470
 1.8020	40.2770
 1.8030	40.3010
 1.8040	40.3220
 1.8050	40.3450
 1.8060	40.3640
 1.8070	40.3870
 1.8080	40.4160
 1.8090	40.4370
 1.8100	40.4550
 1.8110	40.4680
 1.8120	40.4730
 1.8130	40.4770
 1.8140	40.4770
 1.8150	40.4780
 1.8160	40.4760
 1.8170	40.4740
 1.8180	40.4800
 1.8190	40.4850
 1.8200	40.4950
 1.8210	40.5180
 1.8220	40.5290
 1.8230	40.5410
 1.8240	40.5390
 1.8250	40.5130
 1.8260	40.5070
 1.8270	40.4650
 1.8280	40.4230
 1.8290	40.3810
 1.8300	40.3390
 1.8310	40.2970
 1.8320	40.2550
 1.8330	40.2130
 1.8340	40.1710
 1.8350	40.1710
 1.8360	40.1360
 1.8370	40.1020
 1.8380	40.0610
 1.8390	40.0190
 1.8400	39.9770
 1.8410	39.9210
 1.8420	39.8620
 1.8430	39.7950
 1.8440	39.7080
 1.8450	39.6190
 1.8460	39.5330
 1.8470	39.4290
 1.8480	39.3180
 1.8490	39.2030
 1.8500	39.0690
 1.8510	38.9170
 1.8520	38.7520
 1.8530	38.5760
 1.8540	38.3860
 1.8550	38.1800
 1.8560	37.9580
 1.8570	37.7230
 1.8580	37.4700
 1.8590	37.2070
 1.8600	36.9300
 1.8610	36.6460
 1.8620	36.3340
 1.8630	35.9920
 1.8640	35.6370
 1.8650	35.2580
 1.8660	34.8570
 1.8670	34.4470
 1.8680	34.0120
 1.8690	33.5500
 1.8700	33.0590
 1.8710	32.5430
 1.8720	32.0070
 1.8730	31.4540
 1.8740	30.8800
 1.8750	30.3010
 1.8760	29.7100
 1.8770	29.1030
 1.8780	28.4920
 1.8790	27.8730
 1.8800	27.2580
 1.8810	26.6420
 1.8820	26.0260
 1.8830	25.4060
 1.8840	24.7940
 1.8850	24.1910
 1.8860	23.5970
 1.8870	23.0220
 1.8880	22.4670
 1.8890	21.9340
 1.8900	21.4190
 1.8910	20.9240
 1.8920	20.4430
 1.8930	19.9880
 1.8940	19.5570
 1.8950	19.1580
 1.8960	18.7910
 1.8970	18.4490
 1.8980	18.1310
 1.8990	17.8370
 1.9000	17.5710
 1.9010	17.3390
 1.9020	17.1230
 1.9030	16.9370
 1.9040	16.7670
 1.9050	16.6080
 1.9060	16.4630
 1.9070	16.3300
 1.9080	16.2060
 1.9090	16.1000
 1.9100	16.0070
 1.9110	15.9210
 1.9120	15.8510
 1.9130	15.7830
 1.9140	15.7190
 1.9150	15.6650
 1.9160	15.6250
 1.9170	15.5840
 1.9180	15.5520
 1.9190	15.5240
 1.9200	15.4990
 1.9210	15.4880
 1.9220	15.4790
 1.9230	15.4840
 1.9240	15.4800
 1.9250	15.4760
 1.9260	15.4710
 1.9270	15.4660
 1.9280	15.4640
 1.9290	15.4700
 1.9300	15.4870
 1.9310	15.5100
 1.9320	15.5320
 1.9330	15.5550
 1.9340	15.5800
 1.9350	15.6050
 1.9360	15.6250
 1.9370	15.6590
 1.9380	15.7040
 1.9390	15.7460
 1.9400	15.7860
 1.9410	15.8390
 1.9420	15.8820
 1.9430	15.9190
 1.9440	15.9690
 1.9450	16.0290
 1.9460	16.0800
 1.9470	16.1330
 1.9480	16.1880
 1.9490	16.2410
 1.9500	16.2920
 1.9510	16.3500
 1.9520	16.4100
 1.9530	16.4690
 1.9540	16.5320
 1.9550	16.5950
 1.9560	16.6570
 1.9570	16.7230
 1.9580	16.7880
 1.9590	16.8560
 1.9600	16.9310
 1.9610	17.0030
 1.9620	17.0690
 1.9630	17.1450
 1.9640	17.2260
 1.9650	17.3070
 1.9660	17.3940
 1.9670	17.4720
 1.9680	17.5490
 1.9690	17.6130
 1.9700	17.6890
 1.9710	17.7690
 1.9720	17.8490
 1.9730	17.9310
 1.9740	18.0230
 1.9750	18.1080
 1.9760	18.1920
 1.9770	18.2820
 1.9780	18.3540
 1.9790	18.4330
 1.9800	18.5050
 1.9810	18.5930
 1.9820	18.6930
 1.9830	18.7850
 1.9840	18.8810
 1.9850	18.9780
 1.9860	19.0710
 1.9870	19.1620
 1.9880	19.2650
 1.9890	19.3630
 1.9900	19.4570
 1.9910	19.5590
 1.9920	19.6610
 1.9930	19.7680
 1.9940	19.8690
 1.9950	19.9680
 1.9960	20.0650
 1.9970	20.1590
 1.9980	20.2540
 1.9990	20.3490
 2.0000	20.4450
 2.0010	20.5350
 2.0020	20.6250
 2.0030	20.7110
 2.0040	20.7970
 2.0050	20.8910
 2.0060	20.9920
 2.0070	21.0870
 2.0080	21.1890
 2.0090	21.2790
 2.0100	21.3620
 2.0110	21.4430
 2.0120	21.5150
 2.0130	21.5920
 2.0140	21.6710
 2.0150	21.7490
 2.0160	21.8420
 2.0170	21.9350
 2.0180	22.0190
 2.0190	22.1010
 2.0200	22.1810
 2.0210	22.2490
 2.0220	22.3250
 2.0230	22.4060
 2.0240	22.4860
 2.0250	22.5740
 2.0260	22.6490
 2.0270	22.7170
 2.0280	22.7820
 2.0290	22.8430
 2.0300	22.8980
 2.0310	22.9580
 2.0320	23.0190
 2.0330	23.0810
 2.0340	23.1390
 2.0350	23.2040
 2.0360	23.2790
 2.0370	23.3460
 2.0380	23.4200
 2.0390	23.4830
 2.0400	23.5400
 2.0410	23.5940
 2.0420	23.6450
 2.0430	23.6890
 2.0440	23.7310
 2.0450	23.7690
 2.0460	23.8100
 2.0470	23.8470
 2.0480	23.8890
 2.0490	23.9390
 2.0500	23.9790
 2.0510	24.0140
 2.0520	24.0510
 2.0530	24.0770
 2.0540	24.1140
 2.0550	24.1600
 2.0560	24.2030
 2.0570	24.2490
 2.0580	24.2990
 2.0590	24.3430
 2.0600	24.3830
 2.0610	24.4290
 2.0620	24.4840
 2.0630	24.5240
 2.0640	24.5630
 2.0650	24.5990
 2.0660	24.6160
 2.0670	24.6500
 2.0680	24.6940
 2.0690	24.7380
 2.0700	24.7920
 2.0710	24.8410
 2.0720	24.8900
 2.0730	24.9330
 2.0740	24.9810
 2.0750	25.0290
 2.0760	25.0800
 2.0770	25.1360
 2.0780	25.1880
 2.0790	25.2440
 2.0800	25.2920
 2.0810	25.3350
 2.0820	25.3780
 2.0830	25.4100
 2.0840	25.4510
 2.0850	25.4980
 2.0860	25.5420
 2.0870	25.5830
 2.0880	25.6340
 2.0890	25.6780
 2.0900	25.7170
 2.0910	25.7580
 2.0920	25.7970
 2.0930	25.8400
 2.0940	25.8830
 2.0950	25.9270
 2.0960	25.9720
 2.0970	26.0180
 2.0980	26.0620
 2.0990	26.1100
 2.1000	26.1640
 2.1010	26.2150
 2.1020	26.2730
 2.1030	26.3220
 2.1040	26.3630
 2.1050	26.4040
 2.1060	26.4480
 2.1070	26.4900
 2.1080	26.5340
 2.1090	26.5800
 2.1100	26.6320
 2.1110	26.6860
 2.1120	26.7400
 2.1130	26.8070
 2.1140	26.8590
 2.1150	26.8950
 2.1160	26.9420
 2.1170	26.9880
 2.1180	27.0330
 2.1190	27.0880
 2.1200	27.1340
 2.1210	27.1690
 2.1220	27.2070
 2.1230	27.2510
 2.1240	27.2960
 2.1250	27.3400
 2.1260	27.3930
 2.1270	27.4330
 2.1280	27.4630
 2.1290	27.4980
 2.1300	27.5250
 2.1310	27.5670
 2.1320	27.6210
 2.1330	27.6690
 2.1340	27.7270
 2.1350	27.7730
 2.1360	27.8110
 2.1370	27.8460
 2.1380	27.8690
 2.1390	27.8990
 2.1400	27.9280
 2.1410	27.9610
 2.1420	27.9880
 2.1430	28.0120
 2.1440	28.0480
 2.1450	28.0830
 2.1460	28.1190
 2.1470	28.1700
 2.1480	28.2090
 2.1490	28.2360
 2.1500	28.2710
 2.1510	28.3150
 2.1520	28.3450
 2.1530	28.3680
 2.1540	28.3920
 2.1550	28.4060
 2.1560	28.4240
 2.1570	28.4410
 2.1580	28.4630
 2.1590	28.4890
 2.1600	28.5120
 2.1610	28.5300
 2.1620	28.5510
 2.1630	28.5720
 2.1640	28.5840
 2.1650	28.6070
 2.1660	28.6380
 2.1670	28.6690
 2.1680	28.7050
 2.1690	28.7350
 2.1700	28.7670
 2.1710	28.7910
 2.1720	28.8010
 2.1730	28.8270
 2.1740	28.8570
 2.1750	28.8880
 2.1760	28.9320
 2.1770	28.9670
 2.1780	28.9930
 2.1790	29.0240
 2.1800	29.0560
 2.1810	29.0880
 2.1820	29.1220
 2.1830	29.1620
 2.1840	29.1860
 2.1850	29.2020
 2.1860	29.2230
 2.1870	29.2350
 2.1880	29.2560
 2.1890	29.2880
 2.1900	29.3080
 2.1910	29.3280
 2.1920	29.3400
 2.1930	29.3420
 2.1940	29.3510
 2.1950	29.3540
 2.1960	29.3650
 2.1970	29.3840
 2.1980	29.4000
 2.1990	29.4200
 2.2000	29.4360
 2.2010	29.4490
 2.2020	29.4620
 2.2030	29.4750
 2.2040	29.4840
 2.2050	29.4830
 2.2060	29.4940
 2.2070	29.4980
 2.2080	29.5010
 2.2090	29.4980
 2.2100	29.4890
 2.2110	29.4860
 2.2120	29.4810
 2.2130	29.4760
 2.2140	29.4820
 2.2150	29.4750
 2.2160	29.4630
 2.2170	29.4420
 2.2180	29.4100
 2.2190	29.3780
 2.2200	29.3310
 2.2210	29.3000
 2.2220	29.2740
 2.2230	29.2550
 2.2240	29.2640
 2.2250	29.2460
 2.2260	29.2240
 2.2270	29.1920
 2.2280	29.1240
 2.2290	29.0790
 2.2300	29.0440
 2.2310	29.0090
 2.2320	28.9880
 2.2330	28.9540
 2.2340	28.9050
 2.2350	28.8400
 2.2360	28.7770
 2.2370	28.7040
 2.2380	28.6320
 2.2390	28.5590
 2.2400	28.4800
 2.2410	28.3920
 2.2420	28.3100
 2.2430	28.2270
 2.2440	28.1430
 2.2450	28.0630
 2.2460	27.9720
 2.2470	27.8810
 2.2480	27.7760
 2.2490	27.6540
 2.2500	27.5360
 2.2510	27.4010
 2.2520	27.2810
 2.2530	27.1640
 2.2540	27.0570
 2.2550	26.9720
 2.2560	26.8630
 2.2570	26.7470
 2.2580	26.6310
 2.2590	26.4900
 2.2600	26.3680
 2.2610	26.2550
 2.2620	26.1610
 2.2630	26.0490
 2.2640	25.9320
 2.2650	25.8060
 2.2660	25.6780
 2.2670	25.5670
 2.2680	25.4670
 2.2690	25.3640
 2.2700	25.2680
 2.2710	25.1750
 2.2720	25.0810
 2.2730	25.0000
 2.2740	24.9280
 2.2750	24.8650
 2.2760	24.8180
 2.2770	24.7600
 2.2780	24.7060
 2.2790	24.6510
 2.2800	24.5870
 2.2810	24.5380
 2.2820	24.5120
 2.2830	24.4610
 2.2840	24.4090
 2.2850	24.3440
 2.2860	24.2530
 2.2870	24.1770
 2.2880	24.1010
 2.2890	24.0290
 2.2900	23.9710
 2.2910	23.8970
 2.2920	23.7980
 2.2930	23.7270
 2.2940	23.6710
 2.2950	23.6030
 2.2960	23.5610
 2.2970	23.5000
 2.2980	23.4190
 2.2990	23.3220
 2.3000	23.2600
 2.3010	23.1900
 2.3020	23.1100
 2.3030	23.0610
 2.3040	22.9860
 2.3050	22.9080
 2.3060	22.8660
 2.3070	22.8400
 2.3080	22.8410
 2.3090	22.8480
 2.3100	22.8470
 2.3110	22.8500
 2.3120	22.8510
 2.3130	22.8410
 2.3140	22.8490
 2.3150	22.8670
 2.3160	22.8800
 2.3170	22.9090
 2.3180	22.9080
 2.3190	22.8890
 2.3200	22.8750
 2.3210	22.8450
 2.3220	22.8210
 2.3230	22.7930
 2.3240	22.7800
 2.3250	22.7700
 2.3260	22.7600
 2.3270	22.7720
 2.3280	22.7580
 2.3290	22.7200
 2.3300	22.6980
 2.3310	22.6720
 2.3320	22.6470
 2.3330	22.6370
 2.3340	22.6120
 2.3350	22.5830
 2.3360	22.5470
 2.3370	22.4950
 2.3380	22.4550
 2.3390	22.4060
 2.3400	22.3830
 2.3410	22.3920
 2.3420	22.3790
 2.3430	22.3850
 2.3440	22.3550
 2.3450	22.2880
 2.3460	22.2390
 2.3470	22.1660
 2.3480	22.1170
 2.3490	22.0880
 2.3500	22.0590
 2.3510	22.0410
 2.3520	22.0180
 2.3530	21.9920
 2.3540	21.9760
 2.3550	21.9610
 2.3560	21.9740
 2.3570	21.9770
 2.3580	21.9520
 2.3590	21.9380
 2.3600	21.9160
 2.3610	21.8840
 2.3620	21.8810
 2.3630	21.8560
 2.3640	21.8200
 2.3650	21.8100
 2.3660	21.7990
 2.3670	21.7990
 2.3680	21.7840
 2.3690	21.7490
 2.3700	21.7140
 2.3710	21.6700
 2.3720	21.6400
 2.3730	21.6220
 2.3740	21.6200
 2.3750	21.6270
 2.3760	21.6070
 2.3770	21.5850
 2.3780	21.5640
 2.3790	21.5100
 2.3800	21.4890
 2.3810	21.4820
 2.3820	21.4370
 2.3830	21.3990
 2.3840	21.3500
 2.3850	21.2830
 2.3860	21.2100
 2.3870	21.1360
 2.3880	21.0880
 2.3890	21.0450
 2.3900	21.0200
 2.3910	21.0000
 2.3920	20.9620
 2.3930	20.9290
 2.3940	20.8780
 2.3950	20.8610
 2.3960	20.8520
 2.3970	20.7810
 2.3980	20.7410
 2.3990	20.6860
 2.4000	20.6110
 2.4010	20.5700
 2.4020	20.5190
 2.4030	20.4730
 2.4040	20.4070
 2.4050	20.3680
 2.4060	20.3630
 2.4070	20.3440
 2.4080	20.3170
 2.4090	20.2820
 2.4100	20.2380
 2.4110	20.1740
 2.4120	20.1300
 2.4130	20.0660
 2.4140	19.9860
 2.4150	19.9360
 2.4160	19.8840
 2.4170	19.8910
 2.4180	19.8960
 2.4190	19.8670
 2.4200	19.8280
 2.4210	19.7170
 2.4220	19.6310
 2.4230	19.5520
 2.4240	19.4870
 2.4250	19.4930
 2.4260	19.4650
 2.4270	19.4560
 2.4280	19.4490
 2.4290	19.3910
 2.4300	19.3200
 2.4310	19.2240
 2.4320	19.1500
 2.4330	19.1270
 2.4340	19.1180
 2.4350	19.1110
 2.4360	19.1010
 2.4370	19.0450
 2.4380	18.9640
 2.4390	18.9260
 2.4400	18.8770
 2.4410	18.8170
 2.4420	18.7650
 2.4430	18.6610
 2.4440	18.5590
 2.4450	18.4630
 2.4460	18.3720
 2.4470	18.3340
 2.4480	18.2960
 2.4490	18.2510
 2.4500	18.2320
 2.4510	18.1990
 2.4520	18.1290
 2.4530	18.0840
 2.4540	18.0340
 2.4550	17.9440
 2.4560	17.9280
 2.4570	17.9460
 2.4580	17.9420
 2.4590	17.9780
 2.4600	17.9480
 2.4610	17.8620
 2.4620	17.7990
 2.4630	17.7150
 2.4640	17.6540
 2.4650	17.6360
 2.4660	17.5940
 2.4670	17.5730
 2.4680	17.6020
 2.4690	17.5590
 2.4700	17.5530
 2.4710	17.5800
 2.4720	17.5460
 2.4730	17.4940
 2.4740	17.4640
 2.4750	17.3720
 2.4760	17.2830
 2.4770	17.2830
 2.4780	17.2160
 2.4790	17.0630
 2.4800	17.0270
 2.4810	17.0240
 2.4820	16.9510
 2.4830	16.9470
 2.4840	17.0410
 2.4850	17.0630
 2.4860	17.1000
 2.4870	17.1460
 2.4880	17.0550
 2.4890	17.0070
 2.4900	17.0520
 2.4910	17.1110
 2.4920	17.0810
 2.4930	17.0730
 2.4940	17.0920
 2.4950	16.9360
 2.4960	16.8640
 2.4970	16.8130
 2.4980	16.7920
 2.4990	16.9060
 2.5000	16.9150
