Name: Baccharis pilularis 1
Type: vegetation
Class: Shrub
Genus: Baccharis
Species: pilularis
Sample No.: VH001
Owner: UCSB
Wavelength Range: VSWIR
Origin: 34.418; -119.8455; WGS84
Collection Date: 4/1/2013
Description: Samples were collected as part of the HyspIRI Airborne Campaign. 48 individual plants were sampled in three times in 2013 - spring  summer  and fall. The name of the sample includes a 1  2  or 3 which references a different individual of the species. Samples were taken to JPL and processed within 48 hours of collection. The same leaves were processed in the Nicolet and then measured using the ASD.
Measurement: Bidirectional reflectance
First Column: X
Second Column: Y
X Units: Wavelength (micrometers)
Y Units: Reflectance (percentage)
First X Value: 0.35
Last X Value: 2.5
Number of X Values: 2151
Additional Information: vegetation.shrub.baccharis.pilularis.vswir.vh001.ucsb.asd.ancillary.txt

 0.3500	 2.9910
 0.3510	 3.0730
 0.3520	 3.2010
 0.3530	 3.2590
 0.3540	 3.2180
 0.3550	 3.1340
 0.3560	 3.1510
 0.3570	 3.1630
 0.3580	 2.9960
 0.3590	 3.0690
 0.3600	 3.1450
 0.3610	 3.1000
 0.3620	 3.0430
 0.3630	 3.0850
 0.3640	 3.1770
 0.3650	 3.2250
 0.3660	 3.1600
 0.3670	 3.1460
 0.3680	 3.1740
 0.3690	 3.1220
 0.3700	 3.1280
 0.3710	 3.1260
 0.3720	 3.0800
 0.3730	 3.0480
 0.3740	 3.1130
 0.3750	 3.1860
 0.3760	 3.1590
 0.3770	 3.1030
 0.3780	 3.1170
 0.3790	 3.1750
 0.3800	 3.1500
 0.3810	 3.0740
 0.3820	 3.0500
 0.3830	 3.1110
 0.3840	 3.1270
 0.3850	 3.1190
 0.3860	 3.1210
 0.3870	 3.1640
 0.3880	 3.2260
 0.3890	 3.2220
 0.3900	 3.1850
 0.3910	 3.2570
 0.3920	 3.2410
 0.3930	 3.2180
 0.3940	 3.2570
 0.3950	 3.2180
 0.3960	 3.2150
 0.3970	 3.2620
 0.3980	 3.3180
 0.3990	 3.3090
 0.4000	 3.3100
 0.4010	 3.3550
 0.4020	 3.4100
 0.4030	 3.4400
 0.4040	 3.4400
 0.4050	 3.4300
 0.4060	 3.4910
 0.4070	 3.5170
 0.4080	 3.5200
 0.4090	 3.5770
 0.4100	 3.5710
 0.4110	 3.5850
 0.4120	 3.6510
 0.4130	 3.6810
 0.4140	 3.7010
 0.4150	 3.7190
 0.4160	 3.7460
 0.4170	 3.8050
 0.4180	 3.8400
 0.4190	 3.8600
 0.4200	 3.9280
 0.4210	 3.9680
 0.4220	 3.9880
 0.4230	 4.0110
 0.4240	 4.0490
 0.4250	 4.0840
 0.4260	 4.1110
 0.4270	 4.1380
 0.4280	 4.1750
 0.4290	 4.2040
 0.4300	 4.2240
 0.4310	 4.2570
 0.4320	 4.2900
 0.4330	 4.3200
 0.4340	 4.3500
 0.4350	 4.3700
 0.4360	 4.3920
 0.4370	 4.4130
 0.4380	 4.4210
 0.4390	 4.4320
 0.4400	 4.4520
 0.4410	 4.4750
 0.4420	 4.4790
 0.4430	 4.4890
 0.4440	 4.5140
 0.4450	 4.5470
 0.4460	 4.5610
 0.4470	 4.5780
 0.4480	 4.6060
 0.4490	 4.6300
 0.4500	 4.6440
 0.4510	 4.6510
 0.4520	 4.6580
 0.4530	 4.6770
 0.4540	 4.6980
 0.4550	 4.7170
 0.4560	 4.7400
 0.4570	 4.7530
 0.4580	 4.7560
 0.4590	 4.7550
 0.4600	 4.7700
 0.4610	 4.7690
 0.4620	 4.7630
 0.4630	 4.7770
 0.4640	 4.7930
 0.4650	 4.8010
 0.4660	 4.7980
 0.4670	 4.7900
 0.4680	 4.7980
 0.4690	 4.8040
 0.4700	 4.7960
 0.4710	 4.8050
 0.4720	 4.8210
 0.4730	 4.8340
 0.4740	 4.8340
 0.4750	 4.8320
 0.4760	 4.8370
 0.4770	 4.8480
 0.4780	 4.8500
 0.4790	 4.8510
 0.4800	 4.8580
 0.4810	 4.8710
 0.4820	 4.8760
 0.4830	 4.8880
 0.4840	 4.9050
 0.4850	 4.9140
 0.4860	 4.9260
 0.4870	 4.9330
 0.4880	 4.9340
 0.4890	 4.9520
 0.4900	 4.9720
 0.4910	 4.9890
 0.4920	 5.0050
 0.4930	 5.0300
 0.4940	 5.0550
 0.4950	 5.0790
 0.4960	 5.1050
 0.4970	 5.1340
 0.4980	 5.1640
 0.4990	 5.1970
 0.5000	 5.2360
 0.5010	 5.2850
 0.5020	 5.3410
 0.5030	 5.3900
 0.5040	 5.4490
 0.5050	 5.5200
 0.5060	 5.6020
 0.5070	 5.6900
 0.5080	 5.7750
 0.5090	 5.8670
 0.5100	 5.9810
 0.5110	 6.1020
 0.5120	 6.2300
 0.5130	 6.3670
 0.5140	 6.5140
 0.5150	 6.6830
 0.5160	 6.8630
 0.5170	 7.0430
 0.5180	 7.2340
 0.5190	 7.4340
 0.5200	 7.6410
 0.5210	 7.8500
 0.5220	 8.0610
 0.5230	 8.2730
 0.5240	 8.4850
 0.5250	 8.7010
 0.5260	 8.9020
 0.5270	 9.0900
 0.5280	 9.2740
 0.5290	 9.4400
 0.5300	 9.5960
 0.5310	 9.7450
 0.5320	 9.8820
 0.5330	10.0040
 0.5340	10.1120
 0.5350	10.2080
 0.5360	10.2960
 0.5370	10.3790
 0.5380	10.4540
 0.5390	10.5180
 0.5400	10.5880
 0.5410	10.6590
 0.5420	10.7260
 0.5430	10.7860
 0.5440	10.8410
 0.5450	10.8890
 0.5460	10.9220
 0.5470	10.9370
 0.5480	10.9490
 0.5490	10.9630
 0.5500	10.9790
 0.5510	10.9970
 0.5520	11.0080
 0.5530	11.0050
 0.5540	10.9910
 0.5550	10.9670
 0.5560	10.9340
 0.5570	10.8910
 0.5580	10.8340
 0.5590	10.7690
 0.5600	10.6960
 0.5610	10.6070
 0.5620	10.5050
 0.5630	10.3950
 0.5640	10.2770
 0.5650	10.1480
 0.5660	10.0190
 0.5670	 9.8890
 0.5680	 9.7510
 0.5690	 9.6150
 0.5700	 9.4860
 0.5710	 9.3620
 0.5720	 9.2340
 0.5730	 9.1070
 0.5740	 8.9880
 0.5750	 8.8850
 0.5760	 8.7960
 0.5770	 8.7110
 0.5780	 8.6240
 0.5790	 8.5450
 0.5800	 8.4640
 0.5810	 8.3850
 0.5820	 8.3150
 0.5830	 8.2520
 0.5840	 8.1940
 0.5850	 8.1400
 0.5860	 8.0860
 0.5870	 8.0340
 0.5880	 7.9850
 0.5890	 7.9360
 0.5900	 7.8970
 0.5910	 7.8630
 0.5920	 7.8320
 0.5930	 7.8020
 0.5940	 7.7760
 0.5950	 7.7510
 0.5960	 7.7260
 0.5970	 7.7060
 0.5980	 7.6870
 0.5990	 7.6650
 0.6000	 7.6360
 0.6010	 7.6050
 0.6020	 7.5700
 0.6030	 7.5330
 0.6040	 7.4940
 0.6050	 7.4470
 0.6060	 7.3940
 0.6070	 7.3410
 0.6080	 7.2840
 0.6090	 7.2310
 0.6100	 7.1830
 0.6110	 7.1410
 0.6120	 7.0810
 0.6130	 7.0070
 0.6140	 6.9330
 0.6150	 6.8730
 0.6160	 6.8130
 0.6170	 6.7550
 0.6180	 6.7090
 0.6190	 6.6680
 0.6200	 6.6320
 0.6210	 6.6000
 0.6220	 6.5700
 0.6230	 6.5450
 0.6240	 6.5230
 0.6250	 6.5040
 0.6260	 6.4830
 0.6270	 6.4690
 0.6280	 6.4620
 0.6290	 6.4570
 0.6300	 6.4520
 0.6310	 6.4450
 0.6320	 6.4360
 0.6330	 6.4220
 0.6340	 6.4040
 0.6350	 6.3820
 0.6360	 6.3550
 0.6370	 6.3150
 0.6380	 6.2720
 0.6390	 6.2260
 0.6400	 6.1710
 0.6410	 6.1110
 0.6420	 6.0510
 0.6430	 5.9930
 0.6440	 5.9300
 0.6450	 5.8630
 0.6460	 5.8010
 0.6470	 5.7470
 0.6480	 5.6960
 0.6490	 5.6490
 0.6500	 5.6070
 0.6510	 5.5690
 0.6520	 5.5320
 0.6530	 5.4970
 0.6540	 5.4640
 0.6550	 5.4330
 0.6560	 5.3990
 0.6570	 5.3610
 0.6580	 5.3230
 0.6590	 5.2820
 0.6600	 5.2410
 0.6610	 5.2000
 0.6620	 5.1590
 0.6630	 5.1210
 0.6640	 5.0870
 0.6650	 5.0560
 0.6660	 5.0350
 0.6670	 5.0150
 0.6680	 4.9990
 0.6690	 4.9940
 0.6700	 4.9900
 0.6710	 4.9890
 0.6720	 4.9930
 0.6730	 5.0020
 0.6740	 5.0150
 0.6750	 5.0300
 0.6760	 5.0480
 0.6770	 5.0660
 0.6780	 5.0910
 0.6790	 5.1240
 0.6800	 5.1620
 0.6810	 5.2010
 0.6820	 5.2430
 0.6830	 5.2920
 0.6840	 5.3580
 0.6850	 5.4330
 0.6860	 5.5200
 0.6870	 5.6220
 0.6880	 5.7570
 0.6890	 5.9160
 0.6900	 6.1050
 0.6910	 6.3390
 0.6920	 6.6210
 0.6930	 6.9530
 0.6940	 7.3360
 0.6950	 7.7780
 0.6960	 8.2720
 0.6970	 8.8160
 0.6980	 9.4110
 0.6990	10.0570
 0.7000	10.7430
 0.7010	11.4620
 0.7020	12.2070
 0.7030	12.9770
 0.7040	13.7630
 0.7050	14.5540
 0.7060	15.3460
 0.7070	16.1370
 0.7080	16.9270
 0.7090	17.7150
 0.7100	18.4830
 0.7110	19.2430
 0.7120	19.9970
 0.7130	20.7320
 0.7140	21.4510
 0.7150	22.1550
 0.7160	22.8410
 0.7170	23.5090
 0.7180	24.1490
 0.7190	24.7700
 0.7200	25.3790
 0.7210	25.9600
 0.7220	26.5200
 0.7230	27.0600
 0.7240	27.5750
 0.7250	28.0560
 0.7260	28.5150
 0.7270	28.9580
 0.7280	29.3800
 0.7290	29.7710
 0.7300	30.1310
 0.7310	30.4680
 0.7320	30.7910
 0.7330	31.1020
 0.7340	31.3950
 0.7350	31.6610
 0.7360	31.9110
 0.7370	32.1450
 0.7380	32.3640
 0.7390	32.5710
 0.7400	32.7600
 0.7410	32.9340
 0.7420	33.0950
 0.7430	33.2460
 0.7440	33.3820
 0.7450	33.5050
 0.7460	33.6220
 0.7470	33.7330
 0.7480	33.8340
 0.7490	33.9240
 0.7500	34.0050
 0.7510	34.0800
 0.7520	34.1470
 0.7530	34.2070
 0.7540	34.2590
 0.7550	34.3110
 0.7560	34.3610
 0.7570	34.3970
 0.7580	34.4370
 0.7590	34.4720
 0.7600	34.5000
 0.7610	34.5320
 0.7620	34.5630
 0.7630	34.5900
 0.7640	34.6130
 0.7650	34.6380
 0.7660	34.6590
 0.7670	34.6750
 0.7680	34.6850
 0.7690	34.6990
 0.7700	34.7140
 0.7710	34.7300
 0.7720	34.7490
 0.7730	34.7610
 0.7740	34.7740
 0.7750	34.7900
 0.7760	34.7990
 0.7770	34.8090
 0.7780	34.8260
 0.7790	34.8490
 0.7800	34.8580
 0.7810	34.8690
 0.7820	34.8880
 0.7830	34.9030
 0.7840	34.9170
 0.7850	34.9280
 0.7860	34.9370
 0.7870	34.9520
 0.7880	34.9630
 0.7890	34.9750
 0.7900	34.9900
 0.7910	35.0060
 0.7920	35.0230
 0.7930	35.0340
 0.7940	35.0340
 0.7950	35.0450
 0.7960	35.0560
 0.7970	35.0630
 0.7980	35.0750
 0.7990	35.0850
 0.8000	35.0920
 0.8010	35.0970
 0.8020	35.1040
 0.8030	35.1110
 0.8040	35.1140
 0.8050	35.1150
 0.8060	35.1180
 0.8070	35.1220
 0.8080	35.1260
 0.8090	35.1320
 0.8100	35.1290
 0.8110	35.1280
 0.8120	35.1300
 0.8130	35.1230
 0.8140	35.1210
 0.8150	35.1210
 0.8160	35.1150
 0.8170	35.1110
 0.8180	35.1070
 0.8190	35.1050
 0.8200	35.1060
 0.8210	35.0980
 0.8220	35.0930
 0.8230	35.0940
 0.8240	35.0860
 0.8250	35.0680
 0.8260	35.0570
 0.8270	35.0560
 0.8280	35.0440
 0.8290	35.0430
 0.8300	35.0420
 0.8310	35.0300
 0.8320	35.0100
 0.8330	34.9990
 0.8340	34.9990
 0.8350	35.0040
 0.8360	34.9920
 0.8370	34.9840
 0.8380	34.9830
 0.8390	34.9760
 0.8400	34.9800
 0.8410	34.9810
 0.8420	34.9760
 0.8430	34.9750
 0.8440	34.9700
 0.8450	34.9690
 0.8460	34.9760
 0.8470	34.9670
 0.8480	34.9570
 0.8490	34.9550
 0.8500	34.9670
 0.8510	34.9740
 0.8520	34.9720
 0.8530	34.9660
 0.8540	34.9660
 0.8550	34.9690
 0.8560	34.9710
 0.8570	34.9720
 0.8580	34.9660
 0.8590	34.9780
 0.8600	34.9880
 0.8610	34.9860
 0.8620	34.9940
 0.8630	35.0070
 0.8640	35.0200
 0.8650	35.0300
 0.8660	35.0310
 0.8670	35.0350
 0.8680	35.0460
 0.8690	35.0600
 0.8700	35.0770
 0.8710	35.0850
 0.8720	35.0870
 0.8730	35.0930
 0.8740	35.0990
 0.8750	35.1100
 0.8760	35.1270
 0.8770	35.1480
 0.8780	35.1670
 0.8790	35.1790
 0.8800	35.1870
 0.8810	35.2010
 0.8820	35.2300
 0.8830	35.2490
 0.8840	35.2490
 0.8850	35.2630
 0.8860	35.2880
 0.8870	35.3120
 0.8880	35.3270
 0.8890	35.3470
 0.8900	35.3680
 0.8910	35.3850
 0.8920	35.3950
 0.8930	35.4040
 0.8940	35.4320
 0.8950	35.4650
 0.8960	35.4750
 0.8970	35.4920
 0.8980	35.5100
 0.8990	35.5240
 0.9000	35.5380
 0.9010	35.5610
 0.9020	35.5810
 0.9030	35.5940
 0.9040	35.6120
 0.9050	35.6290
 0.9060	35.6480
 0.9070	35.6690
 0.9080	35.6940
 0.9090	35.7100
 0.9100	35.7250
 0.9110	35.7460
 0.9120	35.7630
 0.9130	35.7880
 0.9140	35.8050
 0.9150	35.8030
 0.9160	35.8180
 0.9170	35.8320
 0.9180	35.8370
 0.9190	35.8390
 0.9200	35.8550
 0.9210	35.8650
 0.9220	35.8710
 0.9230	35.8840
 0.9240	35.8920
 0.9250	35.8920
 0.9260	35.8880
 0.9270	35.8860
 0.9280	35.8930
 0.9290	35.8980
 0.9300	35.8940
 0.9310	35.8890
 0.9320	35.8950
 0.9330	35.8880
 0.9340	35.8670
 0.9350	35.8610
 0.9360	35.8550
 0.9370	35.8490
 0.9380	35.8400
 0.9390	35.8240
 0.9400	35.8120
 0.9410	35.7840
 0.9420	35.7430
 0.9430	35.7370
 0.9440	35.7140
 0.9450	35.6900
 0.9460	35.6730
 0.9470	35.6400
 0.9480	35.5990
 0.9490	35.5520
 0.9500	35.5060
 0.9510	35.4740
 0.9520	35.4480
 0.9530	35.4070
 0.9540	35.3460
 0.9550	35.2990
 0.9560	35.2450
 0.9570	35.1940
 0.9580	35.1580
 0.9590	35.1480
 0.9600	35.1120
 0.9610	35.0680
 0.9620	35.0510
 0.9630	35.0370
 0.9640	35.0210
 0.9650	35.0080
 0.9660	35.0020
 0.9670	34.9890
 0.9680	34.9900
 0.9690	34.9880
 0.9700	34.9640
 0.9710	34.9690
 0.9720	34.9630
 0.9730	34.9530
 0.9740	34.9560
 0.9750	34.9590
 0.9760	34.9680
 0.9770	34.9780
 0.9780	34.9800
 0.9790	34.9850
 0.9800	34.9980
 0.9810	35.0100
 0.9820	35.0150
 0.9830	35.0360
 0.9840	35.0550
 0.9850	35.0590
 0.9860	35.0500
 0.9870	35.0640
 0.9880	35.0970
 0.9890	35.1240
 0.9900	35.1250
 0.9910	35.1540
 0.9920	35.2180
 0.9930	35.2810
 0.9940	35.3450
 0.9950	35.4090
 0.9960	35.4720
 0.9970	35.5360
 0.9980	35.5990
 0.9990	35.6630
 1.0000	35.7270
 1.0010	35.7900
 1.0020	35.8540
 1.0030	35.9180
 1.0040	35.9810
 1.0050	36.0450
 1.0060	36.1090
 1.0070	36.1720
 1.0080	36.2360
 1.0090	36.3000
 1.0100	36.3000
 1.0110	36.3150
 1.0120	36.3300
 1.0130	36.3490
 1.0140	36.3640
 1.0150	36.3740
 1.0160	36.3870
 1.0170	36.4050
 1.0180	36.4200
 1.0190	36.4350
 1.0200	36.4540
 1.0210	36.4690
 1.0220	36.4800
 1.0230	36.4910
 1.0240	36.4990
 1.0250	36.5120
 1.0260	36.5250
 1.0270	36.5390
 1.0280	36.5590
 1.0290	36.5740
 1.0300	36.5870
 1.0310	36.5980
 1.0320	36.6070
 1.0330	36.6170
 1.0340	36.6300
 1.0350	36.6400
 1.0360	36.6560
 1.0370	36.6720
 1.0380	36.6850
 1.0390	36.6980
 1.0400	36.7080
 1.0410	36.7130
 1.0420	36.7220
 1.0430	36.7300
 1.0440	36.7380
 1.0450	36.7470
 1.0460	36.7550
 1.0470	36.7590
 1.0480	36.7650
 1.0490	36.7750
 1.0500	36.7810
 1.0510	36.7860
 1.0520	36.7940
 1.0530	36.7990
 1.0540	36.8020
 1.0550	36.8050
 1.0560	36.8070
 1.0570	36.8120
 1.0580	36.8200
 1.0590	36.8240
 1.0600	36.8310
 1.0610	36.8330
 1.0620	36.8300
 1.0630	36.8310
 1.0640	36.8340
 1.0650	36.8350
 1.0660	36.8370
 1.0670	36.8380
 1.0680	36.8380
 1.0690	36.8350
 1.0700	36.8340
 1.0710	36.8330
 1.0720	36.8300
 1.0730	36.8260
 1.0740	36.8220
 1.0750	36.8160
 1.0760	36.8130
 1.0770	36.8120
 1.0780	36.8070
 1.0790	36.8010
 1.0800	36.7950
 1.0810	36.7840
 1.0820	36.7780
 1.0830	36.7770
 1.0840	36.7720
 1.0850	36.7660
 1.0860	36.7610
 1.0870	36.7550
 1.0880	36.7460
 1.0890	36.7380
 1.0900	36.7300
 1.0910	36.7230
 1.0920	36.7170
 1.0930	36.7090
 1.0940	36.7030
 1.0950	36.6930
 1.0960	36.6790
 1.0970	36.6670
 1.0980	36.6520
 1.0990	36.6410
 1.1000	36.6330
 1.1010	36.6220
 1.1020	36.6090
 1.1030	36.5980
 1.1040	36.5900
 1.1050	36.5780
 1.1060	36.5680
 1.1070	36.5630
 1.1080	36.5520
 1.1090	36.5380
 1.1100	36.5250
 1.1110	36.5100
 1.1120	36.4970
 1.1130	36.4860
 1.1140	36.4720
 1.1150	36.4580
 1.1160	36.4420
 1.1170	36.4270
 1.1180	36.4070
 1.1190	36.3860
 1.1200	36.3640
 1.1210	36.3410
 1.1220	36.3120
 1.1230	36.2840
 1.1240	36.2540
 1.1250	36.2170
 1.1260	36.1750
 1.1270	36.1300
 1.1280	36.0810
 1.1290	36.0250
 1.1300	35.9650
 1.1310	35.8970
 1.1320	35.8210
 1.1330	35.7410
 1.1340	35.6550
 1.1350	35.5630
 1.1360	35.4640
 1.1370	35.3590
 1.1380	35.2520
 1.1390	35.1400
 1.1400	35.0240
 1.1410	34.9070
 1.1420	34.7900
 1.1430	34.6700
 1.1440	34.5540
 1.1450	34.4390
 1.1460	34.3260
 1.1470	34.2120
 1.1480	34.1070
 1.1490	34.0060
 1.1500	33.9150
 1.1510	33.8330
 1.1520	33.7560
 1.1530	33.6860
 1.1540	33.6240
 1.1550	33.5700
 1.1560	33.5220
 1.1570	33.4820
 1.1580	33.4500
 1.1590	33.4200
 1.1600	33.3940
 1.1610	33.3750
 1.1620	33.3580
 1.1630	33.3450
 1.1640	33.3360
 1.1650	33.3280
 1.1660	33.3210
 1.1670	33.3160
 1.1680	33.3140
 1.1690	33.3120
 1.1700	33.3110
 1.1710	33.3100
 1.1720	33.3090
 1.1730	33.3090
 1.1740	33.3100
 1.1750	33.3080
 1.1760	33.3030
 1.1770	33.3000
 1.1780	33.2950
 1.1790	33.2910
 1.1800	33.2900
 1.1810	33.2870
 1.1820	33.2810
 1.1830	33.2750
 1.1840	33.2690
 1.1850	33.2630
 1.1860	33.2610
 1.1870	33.2590
 1.1880	33.2560
 1.1890	33.2540
 1.1900	33.2520
 1.1910	33.2480
 1.1920	33.2470
 1.1930	33.2460
 1.1940	33.2470
 1.1950	33.2510
 1.1960	33.2560
 1.1970	33.2610
 1.1980	33.2670
 1.1990	33.2750
 1.2000	33.2850
 1.2010	33.2980
 1.2020	33.3080
 1.2030	33.3180
 1.2040	33.3300
 1.2050	33.3410
 1.2060	33.3540
 1.2070	33.3690
 1.2080	33.3810
 1.2090	33.3940
 1.2100	33.4090
 1.2110	33.4250
 1.2120	33.4420
 1.2130	33.4580
 1.2140	33.4760
 1.2150	33.4930
 1.2160	33.5100
 1.2170	33.5290
 1.2180	33.5500
 1.2190	33.5690
 1.2200	33.5870
 1.2210	33.6070
 1.2220	33.6250
 1.2230	33.6430
 1.2240	33.6620
 1.2250	33.6790
 1.2260	33.6960
 1.2270	33.7120
 1.2280	33.7280
 1.2290	33.7430
 1.2300	33.7580
 1.2310	33.7710
 1.2320	33.7860
 1.2330	33.8010
 1.2340	33.8150
 1.2350	33.8300
 1.2360	33.8430
 1.2370	33.8550
 1.2380	33.8660
 1.2390	33.8780
 1.2400	33.8880
 1.2410	33.8980
 1.2420	33.9070
 1.2430	33.9150
 1.2440	33.9240
 1.2450	33.9320
 1.2460	33.9410
 1.2470	33.9500
 1.2480	33.9590
 1.2490	33.9670
 1.2500	33.9750
 1.2510	33.9810
 1.2520	33.9850
 1.2530	33.9880
 1.2540	33.9900
 1.2550	33.9940
 1.2560	33.9980
 1.2570	34.0020
 1.2580	34.0070
 1.2590	34.0090
 1.2600	34.0080
 1.2610	34.0070
 1.2620	34.0060
 1.2630	34.0010
 1.2640	33.9980
 1.2650	33.9950
 1.2660	33.9900
 1.2670	33.9850
 1.2680	33.9790
 1.2690	33.9730
 1.2700	33.9650
 1.2710	33.9570
 1.2720	33.9490
 1.2730	33.9360
 1.2740	33.9220
 1.2750	33.9090
 1.2760	33.8940
 1.2770	33.8820
 1.2780	33.8690
 1.2790	33.8500
 1.2800	33.8330
 1.2810	33.8130
 1.2820	33.7910
 1.2830	33.7720
 1.2840	33.7490
 1.2850	33.7230
 1.2860	33.6980
 1.2870	33.6690
 1.2880	33.6380
 1.2890	33.6040
 1.2900	33.5700
 1.2910	33.5330
 1.2920	33.4940
 1.2930	33.4570
 1.2940	33.4180
 1.2950	33.3760
 1.2960	33.3340
 1.2970	33.2890
 1.2980	33.2410
 1.2990	33.1880
 1.3000	33.1330
 1.3010	33.0760
 1.3020	33.0170
 1.3030	32.9590
 1.3040	32.9000
 1.3050	32.8380
 1.3060	32.7730
 1.3070	32.7070
 1.3080	32.6370
 1.3090	32.5650
 1.3100	32.4910
 1.3110	32.4150
 1.3120	32.3360
 1.3130	32.2560
 1.3140	32.1740
 1.3150	32.0890
 1.3160	32.0020
 1.3170	31.9150
 1.3180	31.8220
 1.3190	31.7260
 1.3200	31.6300
 1.3210	31.5300
 1.3220	31.4280
 1.3230	31.3290
 1.3240	31.2250
 1.3250	31.1200
 1.3260	31.0140
 1.3270	30.9020
 1.3280	30.7920
 1.3290	30.6800
 1.3300	30.5660
 1.3310	30.4530
 1.3320	30.3380
 1.3330	30.2210
 1.3340	30.1050
 1.3350	29.9880
 1.3360	29.8720
 1.3370	29.7560
 1.3380	29.6380
 1.3390	29.5200
 1.3400	29.4010
 1.3410	29.2850
 1.3420	29.1710
 1.3430	29.0560
 1.3440	28.9420
 1.3450	28.8300
 1.3460	28.7170
 1.3470	28.6060
 1.3480	28.4950
 1.3490	28.3860
 1.3500	28.2770
 1.3510	28.1690
 1.3520	28.0600
 1.3530	27.9510
 1.3540	27.8410
 1.3550	27.7300
 1.3560	27.6190
 1.3570	27.5060
 1.3580	27.3920
 1.3590	27.2750
 1.3600	27.1540
 1.3610	27.0290
 1.3620	26.8970
 1.3630	26.7620
 1.3640	26.6210
 1.3650	26.4710
 1.3660	26.3160
 1.3670	26.1520
 1.3680	25.9760
 1.3690	25.7890
 1.3700	25.5890
 1.3710	25.3770
 1.3720	25.1510
 1.3730	24.9100
 1.3740	24.6570
 1.3750	24.3870
 1.3760	24.0980
 1.3770	23.7890
 1.3780	23.4590
 1.3790	23.1110
 1.3800	22.7450
 1.3810	22.3600
 1.3820	21.9630
 1.3830	21.5500
 1.3840	21.1240
 1.3850	20.6830
 1.3860	20.2360
 1.3870	19.7720
 1.3880	19.3110
 1.3890	18.8460
 1.3900	18.3760
 1.3910	17.9110
 1.3920	17.4470
 1.3930	16.9840
 1.3940	16.5300
 1.3950	16.0820
 1.3960	15.6460
 1.3970	15.2250
 1.3980	14.8190
 1.3990	14.4340
 1.4000	14.0650
 1.4010	13.7110
 1.4020	13.3790
 1.4030	13.0630
 1.4040	12.7670
 1.4050	12.4920
 1.4060	12.2360
 1.4070	11.9990
 1.4080	11.7790
 1.4090	11.5760
 1.4100	11.3900
 1.4110	11.2190
 1.4120	11.0630
 1.4130	10.9200
 1.4140	10.7900
 1.4150	10.6730
 1.4160	10.5680
 1.4170	10.4730
 1.4180	10.3880
 1.4190	10.3110
 1.4200	10.2430
 1.4210	10.1810
 1.4220	10.1270
 1.4230	10.0800
 1.4240	10.0380
 1.4250	10.0010
 1.4260	 9.9710
 1.4270	 9.9440
 1.4280	 9.9210
 1.4290	 9.9020
 1.4300	 9.8870
 1.4310	 9.8760
 1.4320	 9.8690
 1.4330	 9.8630
 1.4340	 9.8610
 1.4350	 9.8610
 1.4360	 9.8640
 1.4370	 9.8680
 1.4380	 9.8740
 1.4390	 9.8820
 1.4400	 9.8910
 1.4410	 9.9020
 1.4420	 9.9150
 1.4430	 9.9280
 1.4440	 9.9420
 1.4450	 9.9580
 1.4460	 9.9750
 1.4470	 9.9930
 1.4480	10.0110
 1.4490	10.0290
 1.4500	10.0480
 1.4510	10.0680
 1.4520	10.0900
 1.4530	10.1130
 1.4540	10.1370
 1.4550	10.1630
 1.4560	10.1910
 1.4570	10.2200
 1.4580	10.2520
 1.4590	10.2860
 1.4600	10.3230
 1.4610	10.3640
 1.4620	10.4080
 1.4630	10.4560
 1.4640	10.5080
 1.4650	10.5620
 1.4660	10.6190
 1.4670	10.6810
 1.4680	10.7480
 1.4690	10.8180
 1.4700	10.8910
 1.4710	10.9680
 1.4720	11.0470
 1.4730	11.1280
 1.4740	11.2110
 1.4750	11.2980
 1.4760	11.3870
 1.4770	11.4770
 1.4780	11.5700
 1.4790	11.6640
 1.4800	11.7580
 1.4810	11.8540
 1.4820	11.9510
 1.4830	12.0490
 1.4840	12.1490
 1.4850	12.2510
 1.4860	12.3530
 1.4870	12.4560
 1.4880	12.5600
 1.4890	12.6650
 1.4900	12.7700
 1.4910	12.8750
 1.4920	12.9810
 1.4930	13.0880
 1.4940	13.1960
 1.4950	13.3060
 1.4960	13.4150
 1.4970	13.5230
 1.4980	13.6330
 1.4990	13.7430
 1.5000	13.8530
 1.5010	13.9650
 1.5020	14.0760
 1.5030	14.1880
 1.5040	14.2990
 1.5050	14.4090
 1.5060	14.5200
 1.5070	14.6300
 1.5080	14.7410
 1.5090	14.8530
 1.5100	14.9650
 1.5110	15.0760
 1.5120	15.1870
 1.5130	15.2960
 1.5140	15.4050
 1.5150	15.5140
 1.5160	15.6230
 1.5170	15.7320
 1.5180	15.8420
 1.5190	15.9500
 1.5200	16.0580
 1.5210	16.1650
 1.5220	16.2710
 1.5230	16.3780
 1.5240	16.4850
 1.5250	16.5910
 1.5260	16.6960
 1.5270	16.8000
 1.5280	16.9050
 1.5290	17.0070
 1.5300	17.1100
 1.5310	17.2110
 1.5320	17.3100
 1.5330	17.4100
 1.5340	17.5100
 1.5350	17.6080
 1.5360	17.7070
 1.5370	17.8050
 1.5380	17.9020
 1.5390	17.9990
 1.5400	18.0940
 1.5410	18.1890
 1.5420	18.2810
 1.5430	18.3730
 1.5440	18.4670
 1.5450	18.5590
 1.5460	18.6510
 1.5470	18.7430
 1.5480	18.8310
 1.5490	18.9180
 1.5500	19.0050
 1.5510	19.0910
 1.5520	19.1780
 1.5530	19.2620
 1.5540	19.3470
 1.5550	19.4310
 1.5560	19.5130
 1.5570	19.5970
 1.5580	19.6800
 1.5590	19.7600
 1.5600	19.8410
 1.5610	19.9200
 1.5620	19.9980
 1.5630	20.0760
 1.5640	20.1510
 1.5650	20.2270
 1.5660	20.3020
 1.5670	20.3750
 1.5680	20.4500
 1.5690	20.5210
 1.5700	20.5920
 1.5710	20.6620
 1.5720	20.7310
 1.5730	20.7990
 1.5740	20.8670
 1.5750	20.9340
 1.5760	21.0010
 1.5770	21.0660
 1.5780	21.1310
 1.5790	21.1950
 1.5800	21.2580
 1.5810	21.3210
 1.5820	21.3840
 1.5830	21.4450
 1.5840	21.5040
 1.5850	21.5630
 1.5860	21.6220
 1.5870	21.6800
 1.5880	21.7380
 1.5890	21.7960
 1.5900	21.8520
 1.5910	21.9070
 1.5920	21.9640
 1.5930	22.0190
 1.5940	22.0720
 1.5950	22.1260
 1.5960	22.1790
 1.5970	22.2300
 1.5980	22.2820
 1.5990	22.3330
 1.6000	22.3820
 1.6010	22.4310
 1.6020	22.4780
 1.6030	22.5250
 1.6040	22.5720
 1.6050	22.6180
 1.6060	22.6640
 1.6070	22.7090
 1.6080	22.7520
 1.6090	22.7940
 1.6100	22.8340
 1.6110	22.8740
 1.6120	22.9150
 1.6130	22.9570
 1.6140	22.9970
 1.6150	23.0370
 1.6160	23.0750
 1.6170	23.1100
 1.6180	23.1440
 1.6190	23.1800
 1.6200	23.2130
 1.6210	23.2480
 1.6220	23.2820
 1.6230	23.3140
 1.6240	23.3450
 1.6250	23.3760
 1.6260	23.4060
 1.6270	23.4360
 1.6280	23.4650
 1.6290	23.4930
 1.6300	23.5200
 1.6310	23.5470
 1.6320	23.5740
 1.6330	23.5990
 1.6340	23.6250
 1.6350	23.6500
 1.6360	23.6760
 1.6370	23.7010
 1.6380	23.7260
 1.6390	23.7490
 1.6400	23.7700
 1.6410	23.7910
 1.6420	23.8130
 1.6430	23.8320
 1.6440	23.8510
 1.6450	23.8680
 1.6460	23.8830
 1.6470	23.8980
 1.6480	23.9120
 1.6490	23.9250
 1.6500	23.9370
 1.6510	23.9480
 1.6520	23.9570
 1.6530	23.9630
 1.6540	23.9690
 1.6550	23.9730
 1.6560	23.9730
 1.6570	23.9720
 1.6580	23.9710
 1.6590	23.9690
 1.6600	23.9650
 1.6610	23.9620
 1.6620	23.9580
 1.6630	23.9520
 1.6640	23.9470
 1.6650	23.9410
 1.6660	23.9350
 1.6670	23.9290
 1.6680	23.9220
 1.6690	23.9130
 1.6700	23.9010
 1.6710	23.8890
 1.6720	23.8760
 1.6730	23.8640
 1.6740	23.8510
 1.6750	23.8340
 1.6760	23.8160
 1.6770	23.7960
 1.6780	23.7740
 1.6790	23.7500
 1.6800	23.7270
 1.6810	23.6990
 1.6820	23.6690
 1.6830	23.6390
 1.6840	23.6060
 1.6850	23.5720
 1.6860	23.5380
 1.6870	23.5030
 1.6880	23.4690
 1.6890	23.4360
 1.6900	23.4010
 1.6910	23.3640
 1.6920	23.3280
 1.6930	23.2920
 1.6940	23.2560
 1.6950	23.2220
 1.6960	23.1870
 1.6970	23.1520
 1.6980	23.1150
 1.6990	23.0760
 1.7000	23.0370
 1.7010	22.9970
 1.7020	22.9590
 1.7030	22.9230
 1.7040	22.8850
 1.7050	22.8450
 1.7060	22.8060
 1.7070	22.7650
 1.7080	22.7260
 1.7090	22.6890
 1.7100	22.6490
 1.7110	22.6100
 1.7120	22.5690
 1.7130	22.5280
 1.7140	22.4870
 1.7150	22.4470
 1.7160	22.4070
 1.7170	22.3670
 1.7180	22.3250
 1.7190	22.2810
 1.7200	22.2400
 1.7210	22.2010
 1.7220	22.1620
 1.7230	22.1220
 1.7240	22.0810
 1.7250	22.0380
 1.7260	21.9960
 1.7270	21.9540
 1.7280	21.9120
 1.7290	21.8700
 1.7300	21.8300
 1.7310	21.7890
 1.7320	21.7480
 1.7330	21.7070
 1.7340	21.6670
 1.7350	21.6250
 1.7360	21.5810
 1.7370	21.5360
 1.7380	21.4880
 1.7390	21.4390
 1.7400	21.3900
 1.7410	21.3380
 1.7420	21.2830
 1.7430	21.2270
 1.7440	21.1690
 1.7450	21.1100
 1.7460	21.0490
 1.7470	20.9880
 1.7480	20.9270
 1.7490	20.8660
 1.7500	20.8060
 1.7510	20.7440
 1.7520	20.6820
 1.7530	20.6180
 1.7540	20.5520
 1.7550	20.4850
 1.7560	20.4190
 1.7570	20.3550
 1.7580	20.2920
 1.7590	20.2310
 1.7600	20.1700
 1.7610	20.1140
 1.7620	20.0570
 1.7630	20.0010
 1.7640	19.9450
 1.7650	19.8880
 1.7660	19.8350
 1.7670	19.7850
 1.7680	19.7350
 1.7690	19.6880
 1.7700	19.6410
 1.7710	19.5950
 1.7720	19.5510
 1.7730	19.5070
 1.7740	19.4660
 1.7750	19.4280
 1.7760	19.3900
 1.7770	19.3530
 1.7780	19.3180
 1.7790	19.2820
 1.7800	19.2480
 1.7810	19.2170
 1.7820	19.1870
 1.7830	19.1580
 1.7840	19.1320
 1.7850	19.1080
 1.7860	19.0850
 1.7870	19.0630
 1.7880	19.0430
 1.7890	19.0240
 1.7900	19.0050
 1.7910	18.9880
 1.7920	18.9710
 1.7930	18.9570
 1.7940	18.9460
 1.7950	18.9360
 1.7960	18.9270
 1.7970	18.9190
 1.7980	18.9120
 1.7990	18.9060
 1.8000	18.8990
 1.8010	18.8940
 1.8020	18.8910
 1.8030	18.8870
 1.8040	18.8860
 1.8050	18.8830
 1.8060	18.8790
 1.8070	18.8750
 1.8080	18.8730
 1.8090	18.8690
 1.8100	18.8660
 1.8110	18.8610
 1.8120	18.8550
 1.8130	18.8490
 1.8140	18.8430
 1.8150	18.8370
 1.8160	18.8310
 1.8170	18.8220
 1.8180	18.8110
 1.8190	18.7990
 1.8200	18.7870
 1.8210	18.7760
 1.8220	18.7620
 1.8230	18.7460
 1.8240	18.7290
 1.8250	18.7110
 1.8260	18.6920
 1.8270	18.6810
 1.8280	18.6710
 1.8290	18.6600
 1.8300	18.6500
 1.8310	18.6390
 1.8320	18.6290
 1.8330	18.6180
 1.8340	18.6080
 1.8350	18.6080
 1.8360	18.5550
 1.8370	18.5000
 1.8380	18.4420
 1.8390	18.3760
 1.8400	18.3040
 1.8410	18.2270
 1.8420	18.1450
 1.8430	18.0580
 1.8440	17.9630
 1.8450	17.8610
 1.8460	17.7550
 1.8470	17.6410
 1.8480	17.5170
 1.8490	17.3880
 1.8500	17.2470
 1.8510	17.0970
 1.8520	16.9370
 1.8530	16.7690
 1.8540	16.5890
 1.8550	16.3960
 1.8560	16.1930
 1.8570	15.9780
 1.8580	15.7520
 1.8590	15.5180
 1.8600	15.2760
 1.8610	15.0190
 1.8620	14.7530
 1.8630	14.4770
 1.8640	14.1870
 1.8650	13.8860
 1.8660	13.5760
 1.8670	13.2500
 1.8680	12.9130
 1.8690	12.5710
 1.8700	12.2180
 1.8710	11.8530
 1.8720	11.4870
 1.8730	11.1190
 1.8740	10.7480
 1.8750	10.3810
 1.8760	10.0140
 1.8770	 9.6510
 1.8780	 9.2950
 1.8790	 8.9450
 1.8800	 8.6090
 1.8810	 8.2840
 1.8820	 7.9690
 1.8830	 7.6620
 1.8840	 7.3670
 1.8850	 7.0810
 1.8860	 6.8070
 1.8870	 6.5480
 1.8880	 6.3050
 1.8890	 6.0800
 1.8900	 5.8710
 1.8910	 5.6750
 1.8920	 5.4940
 1.8930	 5.3280
 1.8940	 5.1730
 1.8950	 5.0350
 1.8960	 4.9120
 1.8970	 4.7990
 1.8980	 4.7010
 1.8990	 4.6140
 1.9000	 4.5330
 1.9010	 4.4620
 1.9020	 4.3960
 1.9030	 4.3380
 1.9040	 4.2850
 1.9050	 4.2380
 1.9060	 4.1960
 1.9070	 4.1610
 1.9080	 4.1320
 1.9090	 4.1080
 1.9100	 4.0870
 1.9110	 4.0690
 1.9120	 4.0540
 1.9130	 4.0400
 1.9140	 4.0270
 1.9150	 4.0160
 1.9160	 4.0080
 1.9170	 3.9980
 1.9180	 3.9910
 1.9190	 3.9850
 1.9200	 3.9810
 1.9210	 3.9790
 1.9220	 3.9790
 1.9230	 3.9830
 1.9240	 3.9840
 1.9250	 3.9850
 1.9260	 3.9890
 1.9270	 3.9920
 1.9280	 3.9960
 1.9290	 4.0010
 1.9300	 4.0060
 1.9310	 4.0100
 1.9320	 4.0170
 1.9330	 4.0250
 1.9340	 4.0370
 1.9350	 4.0450
 1.9360	 4.0520
 1.9370	 4.0620
 1.9380	 4.0720
 1.9390	 4.0820
 1.9400	 4.0950
 1.9410	 4.1080
 1.9420	 4.1180
 1.9430	 4.1310
 1.9440	 4.1450
 1.9450	 4.1610
 1.9460	 4.1750
 1.9470	 4.1880
 1.9480	 4.2020
 1.9490	 4.2160
 1.9500	 4.2320
 1.9510	 4.2500
 1.9520	 4.2690
 1.9530	 4.2890
 1.9540	 4.3070
 1.9550	 4.3270
 1.9560	 4.3470
 1.9570	 4.3670
 1.9580	 4.3890
 1.9590	 4.4100
 1.9600	 4.4300
 1.9610	 4.4520
 1.9620	 4.4740
 1.9630	 4.4960
 1.9640	 4.5200
 1.9650	 4.5440
 1.9660	 4.5700
 1.9670	 4.5950
 1.9680	 4.6190
 1.9690	 4.6440
 1.9700	 4.6700
 1.9710	 4.6940
 1.9720	 4.7210
 1.9730	 4.7480
 1.9740	 4.7790
 1.9750	 4.8120
 1.9760	 4.8420
 1.9770	 4.8740
 1.9780	 4.9060
 1.9790	 4.9360
 1.9800	 4.9630
 1.9810	 4.9950
 1.9820	 5.0290
 1.9830	 5.0620
 1.9840	 5.0970
 1.9850	 5.1310
 1.9860	 5.1650
 1.9870	 5.1990
 1.9880	 5.2320
 1.9890	 5.2640
 1.9900	 5.3010
 1.9910	 5.3380
 1.9920	 5.3760
 1.9930	 5.4210
 1.9940	 5.4600
 1.9950	 5.4940
 1.9960	 5.5330
 1.9970	 5.5710
 1.9980	 5.6100
 1.9990	 5.6500
 2.0000	 5.6920
 2.0010	 5.7360
 2.0020	 5.7790
 2.0030	 5.8230
 2.0040	 5.8650
 2.0050	 5.9070
 2.0060	 5.9480
 2.0070	 5.9880
 2.0080	 6.0270
 2.0090	 6.0680
 2.0100	 6.1080
 2.0110	 6.1490
 2.0120	 6.1910
 2.0130	 6.2330
 2.0140	 6.2770
 2.0150	 6.3170
 2.0160	 6.3590
 2.0170	 6.4020
 2.0180	 6.4420
 2.0190	 6.4810
 2.0200	 6.5220
 2.0210	 6.5630
 2.0220	 6.6050
 2.0230	 6.6480
 2.0240	 6.6900
 2.0250	 6.7340
 2.0260	 6.7760
 2.0270	 6.8150
 2.0280	 6.8580
 2.0290	 6.8980
 2.0300	 6.9370
 2.0310	 6.9780
 2.0320	 7.0210
 2.0330	 7.0620
 2.0340	 7.1040
 2.0350	 7.1440
 2.0360	 7.1820
 2.0370	 7.2210
 2.0380	 7.2600
 2.0390	 7.3000
 2.0400	 7.3430
 2.0410	 7.3830
 2.0420	 7.4230
 2.0430	 7.4610
 2.0440	 7.4990
 2.0450	 7.5320
 2.0460	 7.5700
 2.0470	 7.6080
 2.0480	 7.6480
 2.0490	 7.6890
 2.0500	 7.7290
 2.0510	 7.7710
 2.0520	 7.8100
 2.0530	 7.8490
 2.0540	 7.8870
 2.0550	 7.9250
 2.0560	 7.9630
 2.0570	 8.0040
 2.0580	 8.0460
 2.0590	 8.0880
 2.0600	 8.1300
 2.0610	 8.1720
 2.0620	 8.2130
 2.0630	 8.2550
 2.0640	 8.3000
 2.0650	 8.3430
 2.0660	 8.3870
 2.0670	 8.4290
 2.0680	 8.4700
 2.0690	 8.5100
 2.0700	 8.5480
 2.0710	 8.5880
 2.0720	 8.6280
 2.0730	 8.6690
 2.0740	 8.7110
 2.0750	 8.7560
 2.0760	 8.7980
 2.0770	 8.8380
 2.0780	 8.8800
 2.0790	 8.9220
 2.0800	 8.9630
 2.0810	 9.0040
 2.0820	 9.0460
 2.0830	 9.0860
 2.0840	 9.1280
 2.0850	 9.1730
 2.0860	 9.2150
 2.0870	 9.2560
 2.0880	 9.2990
 2.0890	 9.3400
 2.0900	 9.3800
 2.0910	 9.4190
 2.0920	 9.4550
 2.0930	 9.4940
 2.0940	 9.5340
 2.0950	 9.5740
 2.0960	 9.6160
 2.0970	 9.6570
 2.0980	 9.6940
 2.0990	 9.7340
 2.1000	 9.7770
 2.1010	 9.8180
 2.1020	 9.8610
 2.1030	 9.9010
 2.1040	 9.9410
 2.1050	 9.9780
 2.1060	10.0140
 2.1070	10.0490
 2.1080	10.0860
 2.1090	10.1230
 2.1100	10.1600
 2.1110	10.2000
 2.1120	10.2360
 2.1130	10.2710
 2.1140	10.3060
 2.1150	10.3370
 2.1160	10.3700
 2.1170	10.4060
 2.1180	10.4400
 2.1190	10.4740
 2.1200	10.5090
 2.1210	10.5440
 2.1220	10.5780
 2.1230	10.6120
 2.1240	10.6470
 2.1250	10.6800
 2.1260	10.7120
 2.1270	10.7420
 2.1280	10.7730
 2.1290	10.8010
 2.1300	10.8270
 2.1310	10.8530
 2.1320	10.8760
 2.1330	10.9010
 2.1340	10.9260
 2.1350	10.9500
 2.1360	10.9760
 2.1370	11.0000
 2.1380	11.0230
 2.1390	11.0450
 2.1400	11.0660
 2.1410	11.0850
 2.1420	11.1040
 2.1430	11.1210
 2.1440	11.1410
 2.1450	11.1600
 2.1460	11.1800
 2.1470	11.2030
 2.1480	11.2220
 2.1490	11.2400
 2.1500	11.2580
 2.1510	11.2760
 2.1520	11.2910
 2.1530	11.3030
 2.1540	11.3170
 2.1550	11.3290
 2.1560	11.3420
 2.1570	11.3610
 2.1580	11.3760
 2.1590	11.3880
 2.1600	11.3990
 2.1610	11.4130
 2.1620	11.4250
 2.1630	11.4360
 2.1640	11.4480
 2.1650	11.4590
 2.1660	11.4670
 2.1670	11.4780
 2.1680	11.4910
 2.1690	11.5040
 2.1700	11.5180
 2.1710	11.5310
 2.1720	11.5440
 2.1730	11.5560
 2.1740	11.5670
 2.1750	11.5780
 2.1760	11.5900
 2.1770	11.5990
 2.1780	11.6060
 2.1790	11.6160
 2.1800	11.6240
 2.1810	11.6340
 2.1820	11.6460
 2.1830	11.6630
 2.1840	11.6750
 2.1850	11.6880
 2.1860	11.6980
 2.1870	11.7050
 2.1880	11.7140
 2.1890	11.7240
 2.1900	11.7330
 2.1910	11.7430
 2.1920	11.7500
 2.1930	11.7520
 2.1940	11.7570
 2.1950	11.7610
 2.1960	11.7660
 2.1970	11.7740
 2.1980	11.7800
 2.1990	11.7900
 2.2000	11.7950
 2.2010	11.8000
 2.2020	11.8020
 2.2030	11.7970
 2.2040	11.7960
 2.2050	11.7960
 2.2060	11.7920
 2.2070	11.7880
 2.2080	11.7860
 2.2090	11.7820
 2.2100	11.7750
 2.2110	11.7710
 2.2120	11.7730
 2.2130	11.7660
 2.2140	11.7570
 2.2150	11.7470
 2.2160	11.7320
 2.2170	11.7230
 2.2180	11.7160
 2.2190	11.7070
 2.2200	11.7000
 2.2210	11.6900
 2.2220	11.6750
 2.2230	11.6620
 2.2240	11.6480
 2.2250	11.6320
 2.2260	11.6160
 2.2270	11.5980
 2.2280	11.5760
 2.2290	11.5550
 2.2300	11.5360
 2.2310	11.5130
 2.2320	11.4860
 2.2330	11.4600
 2.2340	11.4300
 2.2350	11.3960
 2.2360	11.3610
 2.2370	11.3210
 2.2380	11.2870
 2.2390	11.2530
 2.2400	11.2180
 2.2410	11.1860
 2.2420	11.1530
 2.2430	11.1170
 2.2440	11.0830
 2.2450	11.0500
 2.2460	11.0190
 2.2470	10.9890
 2.2480	10.9580
 2.2490	10.9310
 2.2500	10.8990
 2.2510	10.8620
 2.2520	10.8280
 2.2530	10.7930
 2.2540	10.7600
 2.2550	10.7330
 2.2560	10.6990
 2.2570	10.6650
 2.2580	10.6270
 2.2590	10.5780
 2.2600	10.5360
 2.2610	10.4960
 2.2620	10.4570
 2.2630	10.4170
 2.2640	10.3810
 2.2650	10.3400
 2.2660	10.2950
 2.2670	10.2530
 2.2680	10.2140
 2.2690	10.1690
 2.2700	10.1200
 2.2710	10.0780
 2.2720	10.0350
 2.2730	 9.9950
 2.2740	 9.9630
 2.2750	 9.9270
 2.2760	 9.8900
 2.2770	 9.8510
 2.2780	 9.8110
 2.2790	 9.7730
 2.2800	 9.7320
 2.2810	 9.6950
 2.2820	 9.6610
 2.2830	 9.6260
 2.2840	 9.5920
 2.2850	 9.5540
 2.2860	 9.5100
 2.2870	 9.4720
 2.2880	 9.4330
 2.2890	 9.3970
 2.2900	 9.3710
 2.2910	 9.3380
 2.2920	 9.3020
 2.2930	 9.2660
 2.2940	 9.2250
 2.2950	 9.1850
 2.2960	 9.1450
 2.2970	 9.1060
 2.2980	 9.0670
 2.2990	 9.0310
 2.3000	 8.9960
 2.3010	 8.9620
 2.3020	 8.9290
 2.3030	 8.8960
 2.3040	 8.8660
 2.3050	 8.8330
 2.3060	 8.8020
 2.3070	 8.7730
 2.3080	 8.7460
 2.3090	 8.7230
 2.3100	 8.7000
 2.3110	 8.6810
 2.3120	 8.6620
 2.3130	 8.6450
 2.3140	 8.6220
 2.3150	 8.5950
 2.3160	 8.5740
 2.3170	 8.5530
 2.3180	 8.5310
 2.3190	 8.5150
 2.3200	 8.4930
 2.3210	 8.4650
 2.3220	 8.4400
 2.3230	 8.4190
 2.3240	 8.3930
 2.3250	 8.3640
 2.3260	 8.3360
 2.3270	 8.3120
 2.3280	 8.2780
 2.3290	 8.2410
 2.3300	 8.2060
 2.3310	 8.1610
 2.3320	 8.1260
 2.3330	 8.0970
 2.3340	 8.0680
 2.3350	 8.0480
 2.3360	 8.0180
 2.3370	 7.9860
 2.3380	 7.9570
 2.3390	 7.9250
 2.3400	 7.8930
 2.3410	 7.8630
 2.3420	 7.8290
 2.3430	 7.7900
 2.3440	 7.7520
 2.3450	 7.7110
 2.3460	 7.6770
 2.3470	 7.6450
 2.3480	 7.6120
 2.3490	 7.5830
 2.3500	 7.5540
 2.3510	 7.5220
 2.3520	 7.4950
 2.3530	 7.4730
 2.3540	 7.4520
 2.3550	 7.4370
 2.3560	 7.4190
 2.3570	 7.3930
 2.3580	 7.3710
 2.3590	 7.3450
 2.3600	 7.3140
 2.3610	 7.2920
 2.3620	 7.2620
 2.3630	 7.2280
 2.3640	 7.2030
 2.3650	 7.1720
 2.3660	 7.1360
 2.3670	 7.1120
 2.3680	 7.0810
 2.3690	 7.0470
 2.3700	 7.0240
 2.3710	 6.9950
 2.3720	 6.9650
 2.3730	 6.9380
 2.3740	 6.9130
 2.3750	 6.8900
 2.3760	 6.8630
 2.3770	 6.8360
 2.3780	 6.8040
 2.3790	 6.7770
 2.3800	 6.7590
 2.3810	 6.7320
 2.3820	 6.7020
 2.3830	 6.6650
 2.3840	 6.6210
 2.3850	 6.5890
 2.3860	 6.5620
 2.3870	 6.5400
 2.3880	 6.5210
 2.3890	 6.4880
 2.3900	 6.4590
 2.3910	 6.4320
 2.3920	 6.3970
 2.3930	 6.3650
 2.3940	 6.3390
 2.3950	 6.2930
 2.3960	 6.2580
 2.3970	 6.2440
 2.3980	 6.2150
 2.3990	 6.2020
 2.4000	 6.1990
 2.4010	 6.1760
 2.4020	 6.1460
 2.4030	 6.1100
 2.4040	 6.0620
 2.4050	 6.0210
 2.4060	 5.9920
 2.4070	 5.9710
 2.4080	 5.9500
 2.4090	 5.9250
 2.4100	 5.8980
 2.4110	 5.8790
 2.4120	 5.8620
 2.4130	 5.8320
 2.4140	 5.7960
 2.4150	 5.7550
 2.4160	 5.7200
 2.4170	 5.7020
 2.4180	 5.6810
 2.4190	 5.6610
 2.4200	 5.6320
 2.4210	 5.5950
 2.4220	 5.5770
 2.4230	 5.5550
 2.4240	 5.5310
 2.4250	 5.5020
 2.4260	 5.4700
 2.4270	 5.4570
 2.4280	 5.4340
 2.4290	 5.4020
 2.4300	 5.3700
 2.4310	 5.3300
 2.4320	 5.2910
 2.4330	 5.2700
 2.4340	 5.2570
 2.4350	 5.2330
 2.4360	 5.2150
 2.4370	 5.2060
 2.4380	 5.1930
 2.4390	 5.1660
 2.4400	 5.1470
 2.4410	 5.1310
 2.4420	 5.1030
 2.4430	 5.0830
 2.4440	 5.0530
 2.4450	 5.0290
 2.4460	 5.0050
 2.4470	 4.9670
 2.4480	 4.9400
 2.4490	 4.8970
 2.4500	 4.8680
 2.4510	 4.8590
 2.4520	 4.8610
 2.4530	 4.8780
 2.4540	 4.8640
 2.4550	 4.8480
 2.4560	 4.8330
 2.4570	 4.7760
 2.4580	 4.7390
 2.4590	 4.7170
 2.4600	 4.6770
 2.4610	 4.6540
 2.4620	 4.6340
 2.4630	 4.6160
 2.4640	 4.6060
 2.4650	 4.5980
 2.4660	 4.5840
 2.4670	 4.5490
 2.4680	 4.5090
 2.4690	 4.4900
 2.4700	 4.4790
 2.4710	 4.4820
 2.4720	 4.4760
 2.4730	 4.4670
 2.4740	 4.4630
 2.4750	 4.4730
 2.4760	 4.4610
 2.4770	 4.4350
 2.4780	 4.4190
 2.4790	 4.3930
 2.4800	 4.3660
 2.4810	 4.3470
 2.4820	 4.3070
 2.4830	 4.2610
 2.4840	 4.2310
 2.4850	 4.2300
 2.4860	 4.2520
 2.4870	 4.2810
 2.4880	 4.2920
 2.4890	 4.2780
 2.4900	 4.2280
 2.4910	 4.2120
 2.4920	 4.2060
 2.4930	 4.1540
 2.4940	 4.1600
 2.4950	 4.1660
 2.4960	 4.1210
 2.4970	 4.1500
 2.4980	 4.1820
 2.4990	 4.1520
 2.5000	 4.1570
