Name: Quercus agrifolia 3
Type: vegetation
Class: Tree
Genus: Quercus
Species: agrifolia
Sample No.: VH083
Owner: UCSB
Wavelength Range: TIR
Origin: 34.7165; -120.0603; WGS84
Collection Date: 4/21/2013
Description: Samples were collected as part of the HyspIRI Airborne Campaign. 48 individual plants were sampled in three times in 2013 - spring  summer  and fall. The name of the sample includes a 1  2  or 3 which references a different individual of the species. Samples were taken to JPL and processed within 48 hours of collection. The same leaves were processed in the Nicolet and then measured using the ASD.
Measurement: Hemispherical reflectance
First Column: X
Second Column: Y
X Units: Wavelength (micrometers)
Y Units: Reflectance (percentage)
First X Value: 2.501
Last X Value: 15.387
Number of X Values: 1737
Additional Information: vegetation.tree.quercus.agrifolia.tir.vh083.ucsb.nicolet.ancillary.txt

 2.5010	 8.3460
 2.5030	 8.3310
 2.5040	 8.3260
 2.5050	 8.2960
 2.5060	 8.0820
 2.5070	 8.0110
 2.5090	 8.2940
 2.5100	 8.3750
 2.5110	 8.4290
 2.5120	 8.3670
 2.5140	 8.1960
 2.5150	 8.0540
 2.5160	 8.0430
 2.5170	 8.0000
 2.5180	 8.0240
 2.5200	 8.0690
 2.5210	 8.1740
 2.5220	 8.2300
 2.5230	 8.3330
 2.5250	 8.3270
 2.5260	 8.3190
 2.5270	 8.3100
 2.5280	 8.2140
 2.5290	 8.0900
 2.5310	 8.1630
 2.5320	 8.2020
 2.5330	 8.2600
 2.5340	 8.2400
 2.5360	 8.1570
 2.5370	 8.0060
 2.5380	 8.0200
 2.5390	 8.0710
 2.5410	 8.0800
 2.5420	 8.1500
 2.5430	 8.2640
 2.5440	 8.2760
 2.5460	 8.2250
 2.5470	 8.1160
 2.5480	 8.1000
 2.5490	 8.1420
 2.5510	 8.2020
 2.5520	 8.2120
 2.5530	 8.2750
 2.5540	 8.1800
 2.5560	 8.1100
 2.5570	 8.1730
 2.5580	 8.3480
 2.5590	 8.2910
 2.5610	 8.3000
 2.5620	 8.3260
 2.5630	 8.3930
 2.5640	 8.3700
 2.5660	 8.3420
 2.5670	 8.1950
 2.5680	 8.1580
 2.5700	 8.2300
 2.5710	 8.4100
 2.5720	 8.3530
 2.5730	 8.2810
 2.5750	 8.2960
 2.5760	 8.2710
 2.5770	 8.2210
 2.5790	 8.2540
 2.5800	 8.1920
 2.5810	 8.1940
 2.5820	 8.2020
 2.5840	 8.4110
 2.5850	 8.4540
 2.5860	 8.4160
 2.5880	 8.3110
 2.5890	 8.1600
 2.5900	 8.1070
 2.5910	 8.1260
 2.5930	 8.1100
 2.5940	 8.2570
 2.5950	 8.2670
 2.5970	 8.3130
 2.5980	 8.1600
 2.5990	 8.0650
 2.6000	 8.1590
 2.6020	 8.3770
 2.6030	 8.2510
 2.6040	 8.1760
 2.6060	 8.1600
 2.6070	 8.0540
 2.6080	 7.9680
 2.6100	 7.9660
 2.6110	 7.9970
 2.6120	 8.0740
 2.6140	 8.0510
 2.6150	 8.0330
 2.6160	 7.8690
 2.6180	 7.8670
 2.6190	 7.9770
 2.6200	 8.1270
 2.6220	 7.9570
 2.6230	 7.8040
 2.6240	 7.7140
 2.6260	 7.8880
 2.6270	 7.8550
 2.6280	 7.6640
 2.6300	 7.6000
 2.6310	 7.6420
 2.6320	 7.6890
 2.6340	 7.7550
 2.6350	 7.7110
 2.6360	 7.6930
 2.6380	 7.5560
 2.6390	 7.4730
 2.6400	 7.4950
 2.6420	 7.6010
 2.6430	 7.5880
 2.6440	 7.7180
 2.6460	 7.6990
 2.6470	 7.6310
 2.6480	 7.5090
 2.6500	 7.5890
 2.6510	 7.6030
 2.6520	 7.6390
 2.6540	 7.5580
 2.6550	 7.5010
 2.6560	 7.4100
 2.6580	 7.3800
 2.6590	 7.3010
 2.6610	 7.1850
 2.6620	 7.1330
 2.6630	 7.3270
 2.6650	 7.3490
 2.6660	 7.2000
 2.6670	 7.1830
 2.6690	 7.2600
 2.6700	 7.1830
 2.6720	 7.0730
 2.6730	 7.0280
 2.6740	 7.2200
 2.6760	 7.0740
 2.6770	 7.1010
 2.6780	 7.1890
 2.6800	 7.2040
 2.6810	 7.0450
 2.6830	 7.0230
 2.6840	 7.0590
 2.6850	 6.9630
 2.6870	 6.8980
 2.6880	 6.9730
 2.6900	 6.9610
 2.6910	 6.9700
 2.6920	 7.0100
 2.6940	 6.9650
 2.6950	 6.7110
 2.6970	 6.7850
 2.6980	 6.7510
 2.6990	 6.7850
 2.7010	 6.8930
 2.7020	 6.9620
 2.7040	 6.7910
 2.7050	 6.6940
 2.7060	 6.6670
 2.7080	 6.7630
 2.7090	 6.8610
 2.7110	 6.8190
 2.7120	 6.6900
 2.7130	 6.8240
 2.7150	 6.8080
 2.7160	 6.8000
 2.7180	 6.7170
 2.7190	 6.5630
 2.7210	 6.5560
 2.7220	 6.5830
 2.7230	 6.6130
 2.7250	 6.8370
 2.7260	 6.8390
 2.7280	 6.7590
 2.7290	 6.6310
 2.7310	 6.6790
 2.7320	 6.7280
 2.7330	 6.7880
 2.7350	 6.5510
 2.7360	 6.4450
 2.7380	 6.4730
 2.7390	 6.4850
 2.7410	 6.4230
 2.7420	 6.7510
 2.7440	 6.7710
 2.7450	 6.6400
 2.7470	 6.4410
 2.7480	 6.4700
 2.7490	 6.5800
 2.7510	 6.5500
 2.7520	 6.3940
 2.7540	 6.4790
 2.7550	 6.5390
 2.7570	 6.5830
 2.7580	 6.6090
 2.7600	 6.6360
 2.7610	 6.5540
 2.7630	 6.6170
 2.7640	 6.7330
 2.7660	 6.7590
 2.7670	 6.6200
 2.7680	 6.5850
 2.7700	 6.6050
 2.7710	 6.6700
 2.7730	 6.5690
 2.7740	 6.4950
 2.7760	 6.4900
 2.7770	 6.7100
 2.7790	 6.6810
 2.7800	 6.6110
 2.7820	 6.5100
 2.7830	 6.5920
 2.7850	 6.7080
 2.7860	 6.7160
 2.7880	 6.6140
 2.7890	 6.6670
 2.7910	 6.5900
 2.7920	 6.6360
 2.7940	 6.7250
 2.7950	 6.6470
 2.7970	 6.4390
 2.7980	 6.4420
 2.8000	 6.5070
 2.8010	 6.6040
 2.8030	 6.5720
 2.8040	 6.5610
 2.8060	 6.5740
 2.8070	 6.6510
 2.8090	 6.5370
 2.8110	 6.5840
 2.8120	 6.6430
 2.8140	 6.7130
 2.8150	 6.5780
 2.8170	 6.7410
 2.8180	 6.7170
 2.8200	 6.6170
 2.8210	 6.5200
 2.8230	 6.5700
 2.8240	 6.5180
 2.8260	 6.6020
 2.8270	 6.5440
 2.8290	 6.5770
 2.8300	 6.5130
 2.8320	 6.4640
 2.8340	 6.3380
 2.8350	 6.4920
 2.8370	 6.5550
 2.8380	 6.6310
 2.8400	 6.5670
 2.8410	 6.5700
 2.8430	 6.7440
 2.8440	 6.8530
 2.8460	 6.5440
 2.8480	 6.5210
 2.8490	 6.4310
 2.8510	 6.3750
 2.8520	 6.3690
 2.8540	 6.4660
 2.8550	 6.5840
 2.8570	 6.6240
 2.8590	 6.5970
 2.8600	 6.7310
 2.8620	 6.7330
 2.8630	 6.7290
 2.8650	 6.5060
 2.8660	 6.5270
 2.8680	 6.7540
 2.8700	 6.7630
 2.8710	 6.5180
 2.8730	 6.5200
 2.8740	 6.4960
 2.8760	 6.6600
 2.8780	 6.6140
 2.8790	 6.6070
 2.8810	 6.6590
 2.8820	 6.5600
 2.8840	 6.4110
 2.8860	 6.3170
 2.8870	 6.4010
 2.8890	 6.5720
 2.8900	 6.3960
 2.8920	 6.5310
 2.8940	 6.6280
 2.8950	 6.6810
 2.8970	 6.5820
 2.8980	 6.6300
 2.9000	 6.6160
 2.9020	 6.6690
 2.9030	 6.6350
 2.9050	 6.7400
 2.9070	 6.8410
 2.9080	 6.8970
 2.9100	 6.8210
 2.9120	 6.7680
 2.9130	 6.5490
 2.9150	 6.4870
 2.9160	 6.4550
 2.9180	 6.5610
 2.9200	 6.5840
 2.9210	 6.6710
 2.9230	 6.6410
 2.9250	 6.5330
 2.9260	 6.4590
 2.9280	 6.5510
 2.9300	 6.6220
 2.9310	 6.7250
 2.9330	 6.7320
 2.9350	 6.6840
 2.9360	 6.6150
 2.9380	 6.5110
 2.9400	 6.6120
 2.9410	 6.7020
 2.9430	 6.5950
 2.9450	 6.7330
 2.9460	 6.7970
 2.9480	 6.7730
 2.9500	 6.5820
 2.9510	 6.7820
 2.9530	 6.9560
 2.9550	 6.9230
 2.9560	 6.7950
 2.9580	 7.0050
 2.9600	 7.1230
 2.9610	 6.9800
 2.9630	 6.8380
 2.9650	 7.1270
 2.9660	 6.9770
 2.9680	 6.6390
 2.9700	 6.8690
 2.9720	 7.0400
 2.9730	 6.8610
 2.9750	 6.8120
 2.9770	 6.5450
 2.9780	 6.4690
 2.9800	 6.9280
 2.9820	 7.5850
 2.9840	 7.2030
 2.9850	 6.8190
 2.9870	 6.9560
 2.9890	 6.9590
 2.9900	 6.9010
 2.9920	 7.1160
 2.9940	 6.9780
 2.9960	 6.4920
 2.9970	 6.6000
 2.9990	 6.7180
 3.0010	 6.6730
 3.0030	 6.7590
 3.0040	 6.7430
 3.0060	 6.8000
 3.0080	 6.6830
 3.0100	 6.5560
 3.0110	 6.5400
 3.0130	 6.9120
 3.0150	 7.0600
 3.0170	 7.1610
 3.0180	 6.9360
 3.0200	 6.8060
 3.0220	 6.6960
 3.0240	 6.5250
 3.0250	 6.4980
 3.0270	 6.5890
 3.0290	 6.6510
 3.0310	 6.6820
 3.0320	 6.4660
 3.0340	 6.7820
 3.0360	 7.5000
 3.0380	 7.8830
 3.0400	 7.6540
 3.0410	 7.4660
 3.0430	 7.0420
 3.0450	 7.3700
 3.0470	 7.3410
 3.0480	 6.4480
 3.0500	 6.1470
 3.0520	 6.4940
 3.0540	 6.3050
 3.0560	 6.4490
 3.0570	 6.8610
 3.0590	 6.6720
 3.0610	 6.1910
 3.0630	 6.8690
 3.0650	 7.1880
 3.0660	 6.8300
 3.0680	 6.7860
 3.0700	 6.6920
 3.0720	 6.5440
 3.0740	 6.7530
 3.0760	 6.8350
 3.0770	 6.7410
 3.0790	 6.6230
 3.0810	 6.6910
 3.0830	 6.7310
 3.0850	 6.8270
 3.0870	 6.7780
 3.0880	 6.6170
 3.0900	 6.4840
 3.0920	 6.5030
 3.0940	 6.5880
 3.0960	 6.7030
 3.0980	 6.6510
 3.0990	 6.7590
 3.1010	 6.6650
 3.1030	 6.6710
 3.1050	 6.6850
 3.1070	 6.5350
 3.1090	 6.4960
 3.1110	 6.6830
 3.1120	 6.6950
 3.1140	 6.7180
 3.1160	 6.6580
 3.1180	 6.9330
 3.1200	 6.9320
 3.1220	 6.8520
 3.1240	 6.7580
 3.1260	 6.7380
 3.1270	 6.5750
 3.1290	 6.5830
 3.1310	 6.5920
 3.1330	 6.7480
 3.1350	 6.7070
 3.1370	 6.6390
 3.1390	 6.3280
 3.1410	 6.3390
 3.1430	 6.5430
 3.1450	 6.7370
 3.1460	 6.7830
 3.1480	 6.9470
 3.1500	 6.8090
 3.1520	 6.6850
 3.1540	 6.7840
 3.1560	 6.7360
 3.1580	 6.6220
 3.1600	 6.5850
 3.1620	 6.3590
 3.1640	 6.4820
 3.1660	 6.7650
 3.1680	 6.7080
 3.1700	 6.2200
 3.1710	 6.0370
 3.1730	 6.1970
 3.1750	 6.5830
 3.1770	 7.1730
 3.1790	 7.3130
 3.1810	 6.5120
 3.1830	 6.4720
 3.1850	 7.1520
 3.1870	 7.0530
 3.1890	 6.8540
 3.1910	 6.8340
 3.1930	 6.7480
 3.1950	 6.5710
 3.1970	 6.5500
 3.1990	 6.5820
 3.2010	 6.5360
 3.2030	 6.5740
 3.2050	 6.5170
 3.2070	 6.4790
 3.2090	 6.3500
 3.2110	 6.4010
 3.2130	 6.5870
 3.2150	 6.5290
 3.2170	 6.4080
 3.2190	 6.4920
 3.2210	 6.5710
 3.2230	 6.6640
 3.2250	 6.6570
 3.2270	 6.6410
 3.2290	 6.5750
 3.2310	 6.5970
 3.2330	 6.5710
 3.2350	 6.4690
 3.2370	 6.4130
 3.2390	 6.3620
 3.2410	 6.3740
 3.2430	 6.4260
 3.2450	 6.4920
 3.2470	 6.6090
 3.2490	 6.6390
 3.2510	 6.6530
 3.2530	 6.5740
 3.2550	 6.4860
 3.2570	 6.3700
 3.2590	 6.3660
 3.2610	 6.3200
 3.2630	 6.4770
 3.2650	 6.5280
 3.2670	 6.5240
 3.2690	 6.5850
 3.2720	 6.5390
 3.2740	 6.3500
 3.2760	 6.3300
 3.2780	 6.3140
 3.2800	 6.3180
 3.2820	 6.4270
 3.2840	 6.4140
 3.2860	 6.3990
 3.2880	 6.4630
 3.2900	 6.3980
 3.2920	 6.4300
 3.2940	 6.4720
 3.2960	 6.4870
 3.2990	 6.4450
 3.3010	 6.3420
 3.3030	 6.3800
 3.3050	 6.4490
 3.3070	 6.4870
 3.3090	 6.3870
 3.3110	 6.1880
 3.3130	 6.1560
 3.3150	 6.1550
 3.3180	 6.2130
 3.3200	 6.2280
 3.3220	 6.2530
 3.3240	 6.2740
 3.3260	 6.3050
 3.3280	 6.2410
 3.3300	 6.2850
 3.3330	 6.1510
 3.3350	 6.0210
 3.3370	 6.1030
 3.3390	 6.2170
 3.3410	 6.2270
 3.3430	 6.3320
 3.3450	 6.2250
 3.3480	 6.1600
 3.3500	 6.1890
 3.3520	 6.1100
 3.3540	 6.0420
 3.3560	 6.0750
 3.3580	 5.9370
 3.3610	 5.8550
 3.3630	 5.8970
 3.3650	 5.9700
 3.3670	 5.9430
 3.3690	 6.0410
 3.3720	 5.8910
 3.3740	 5.8110
 3.3760	 5.9560
 3.3780	 6.1270
 3.3800	 6.0870
 3.3830	 6.0440
 3.3850	 5.9650
 3.3870	 5.9390
 3.3890	 5.8680
 3.3910	 5.8870
 3.3940	 5.9050
 3.3960	 5.8890
 3.3980	 5.8110
 3.4000	 5.7360
 3.4020	 5.6160
 3.4050	 5.6740
 3.4070	 5.7660
 3.4090	 5.7730
 3.4110	 5.6320
 3.4140	 5.6230
 3.4160	 5.6820
 3.4180	 5.8390
 3.4200	 6.2300
 3.4230	 7.1210
 3.4250	 8.1520
 3.4270	 9.2500
 3.4290	 9.9790
 3.4320	10.0420
 3.4340	 9.5680
 3.4360	 9.0240
 3.4390	 8.6230
 3.4410	 8.3810
 3.4430	 8.0960
 3.4450	 7.9170
 3.4480	 7.6620
 3.4500	 7.6850
 3.4520	 7.7690
 3.4550	 7.7740
 3.4570	 7.7440
 3.4590	 7.6570
 3.4620	 7.4860
 3.4640	 7.4360
 3.4660	 7.4480
 3.4680	 7.3630
 3.4710	 7.3290
 3.4730	 7.3150
 3.4750	 7.1670
 3.4780	 7.0720
 3.4800	 7.0380
 3.4820	 6.9270
 3.4850	 6.7420
 3.4870	 6.7220
 3.4890	 6.7440
 3.4920	 6.5900
 3.4940	 6.4270
 3.4970	 6.4050
 3.4990	 6.3690
 3.5010	 6.4070
 3.5040	 6.3860
 3.5060	 6.8570
 3.5080	 7.9390
 3.5110	 9.2490
 3.5130	 9.7340
 3.5160	 9.3310
 3.5180	 8.8240
 3.5200	 8.4110
 3.5230	 8.1580
 3.5250	 8.1030
 3.5270	 7.9770
 3.5300	 7.8070
 3.5320	 7.6160
 3.5350	 7.5580
 3.5370	 7.5480
 3.5400	 7.5220
 3.5420	 7.5310
 3.5440	 7.5550
 3.5470	 7.4200
 3.5490	 7.3290
 3.5520	 7.3210
 3.5540	 7.3950
 3.5570	 7.3840
 3.5590	 7.3520
 3.5610	 7.3650
 3.5640	 7.4050
 3.5660	 7.3380
 3.5690	 7.3270
 3.5710	 7.2930
 3.5740	 7.3000
 3.5760	 7.3030
 3.5790	 7.2000
 3.5810	 7.0490
 3.5840	 7.1500
 3.5860	 7.1440
 3.5890	 7.0460
 3.5910	 7.1080
 3.5930	 7.2860
 3.5960	 7.2340
 3.5980	 7.1710
 3.6010	 7.2050
 3.6030	 7.1500
 3.6060	 6.9630
 3.6080	 7.0430
 3.6110	 7.0830
 3.6140	 7.1010
 3.6160	 7.0780
 3.6190	 7.0650
 3.6210	 7.1130
 3.6240	 7.0820
 3.6260	 7.0400
 3.6290	 7.0870
 3.6310	 7.1290
 3.6340	 7.2210
 3.6360	 7.0940
 3.6390	 7.0460
 3.6410	 6.9710
 3.6440	 6.9560
 3.6470	 7.0380
 3.6490	 7.0570
 3.6520	 6.9630
 3.6540	 7.0280
 3.6570	 7.0730
 3.6590	 7.0660
 3.6620	 7.0160
 3.6650	 7.0220
 3.6670	 7.0230
 3.6700	 7.0450
 3.6720	 7.0920
 3.6750	 7.0970
 3.6780	 6.9670
 3.6800	 6.9600
 3.6830	 6.9800
 3.6850	 6.9660
 3.6880	 6.9490
 3.6910	 6.9630
 3.6930	 6.9480
 3.6960	 6.9730
 3.6990	 7.0040
 3.7010	 7.0390
 3.7040	 7.0420
 3.7060	 7.0450
 3.7090	 6.9900
 3.7120	 7.0110
 3.7140	 6.9160
 3.7170	 6.8510
 3.7200	 6.8860
 3.7220	 6.9390
 3.7250	 6.9580
 3.7280	 7.0790
 3.7300	 7.0820
 3.7330	 7.1520
 3.7360	 7.1250
 3.7390	 7.0460
 3.7410	 7.0410
 3.7440	 7.0430
 3.7470	 7.0720
 3.7490	 7.1010
 3.7520	 7.0400
 3.7550	 6.9520
 3.7580	 6.9870
 3.7600	 7.0210
 3.7630	 6.8990
 3.7660	 6.8770
 3.7680	 6.9340
 3.7710	 7.0300
 3.7740	 7.0170
 3.7770	 6.9420
 3.7790	 6.9110
 3.7820	 6.9820
 3.7850	 6.8760
 3.7880	 6.9240
 3.7900	 7.0290
 3.7930	 7.0210
 3.7960	 6.9500
 3.7990	 6.9470
 3.8020	 6.9840
 3.8040	 7.0630
 3.8070	 6.9910
 3.8100	 6.9940
 3.8130	 7.0380
 3.8160	 7.0290
 3.8180	 7.0060
 3.8210	 6.9620
 3.8240	 6.9990
 3.8270	 6.9820
 3.8300	 6.8780
 3.8330	 6.9700
 3.8350	 7.0920
 3.8380	 7.0930
 3.8410	 7.0330
 3.8440	 6.9480
 3.8470	 6.8890
 3.8500	 6.9230
 3.8520	 6.9910
 3.8550	 7.0490
 3.8580	 7.0060
 3.8610	 6.9470
 3.8640	 6.8470
 3.8670	 6.8780
 3.8700	 7.0010
 3.8730	 7.0100
 3.8750	 6.9130
 3.8780	 6.9110
 3.8810	 6.9510
 3.8840	 6.9460
 3.8870	 6.9380
 3.8900	 6.9660
 3.8930	 6.9330
 3.8960	 6.9840
 3.8990	 7.0390
 3.9020	 6.8980
 3.9050	 6.9240
 3.9080	 7.0220
 3.9110	 6.9710
 3.9140	 6.9950
 3.9160	 6.9650
 3.9190	 6.9840
 3.9220	 7.0100
 3.9250	 7.0240
 3.9280	 7.0230
 3.9310	 7.0150
 3.9340	 6.9130
 3.9370	 6.8950
 3.9400	 6.9740
 3.9430	 7.1230
 3.9460	 7.1230
 3.9490	 7.0720
 3.9520	 7.0520
 3.9550	 7.0460
 3.9580	 7.0820
 3.9610	 7.1090
 3.9640	 7.0600
 3.9670	 7.0420
 3.9700	 6.9830
 3.9730	 7.0240
 3.9770	 7.0370
 3.9800	 7.0920
 3.9830	 7.1290
 3.9860	 7.0350
 3.9890	 7.0000
 3.9920	 7.0490
 3.9950	 7.0650
 3.9980	 7.0480
 4.0010	 6.9770
 4.0040	 7.0050
 4.0070	 7.0590
 4.0100	 7.0680
 4.0130	 7.0120
 4.0170	 6.9570
 4.0200	 6.9730
 4.0230	 6.9900
 4.0260	 6.9200
 4.0290	 6.9310
 4.0320	 6.9250
 4.0350	 6.9090
 4.0380	 6.9030
 4.0420	 6.9380
 4.0450	 6.9760
 4.0480	 7.0200
 4.0510	 6.9660
 4.0540	 6.9440
 4.0570	 6.9580
 4.0610	 6.9640
 4.0640	 6.9830
 4.0670	 7.0050
 4.0700	 7.0700
 4.0730	 7.0330
 4.0770	 6.8920
 4.0800	 6.9190
 4.0830	 6.9880
 4.0860	 7.0310
 4.0890	 7.0500
 4.0930	 7.0390
 4.0960	 6.9590
 4.0990	 6.9640
 4.1020	 6.9740
 4.1060	 6.9340
 4.1090	 6.9750
 4.1120	 6.9260
 4.1150	 6.8070
 4.1190	 6.8570
 4.1220	 7.0310
 4.1250	 7.0800
 4.1280	 7.0710
 4.1320	 7.0580
 4.1350	 6.9840
 4.1380	 6.9980
 4.1420	 6.9900
 4.1450	 6.9760
 4.1480	 7.0330
 4.1520	 7.0070
 4.1550	 6.8790
 4.1580	 6.7570
 4.1620	 6.7850
 4.1650	 6.9150
 4.1680	 6.9270
 4.1720	 6.9010
 4.1750	 6.9400
 4.1780	 7.0010
 4.1820	 6.9850
 4.1850	 6.9850
 4.1890	 6.9790
 4.1920	 7.0230
 4.1950	 7.0720
 4.1990	 7.0900
 4.2020	 7.0110
 4.2060	 6.8850
 4.2090	 6.8430
 4.2120	 6.9720
 4.2160	 6.9250
 4.2190	 7.0820
 4.2230	 7.2900
 4.2260	 7.1280
 4.2300	 7.1420
 4.2330	 7.1800
 4.2360	 6.9450
 4.2400	 6.8510
 4.2430	 6.7970
 4.2470	 6.8730
 4.2500	 6.9410
 4.2540	 7.0330
 4.2570	 6.9680
 4.2610	 6.9630
 4.2640	 6.9410
 4.2680	 6.9540
 4.2710	 7.0350
 4.2750	 7.0070
 4.2780	 6.9800
 4.2820	 7.0030
 4.2850	 6.9190
 4.2890	 6.9890
 4.2930	 6.9200
 4.2960	 6.8860
 4.3000	 6.8510
 4.3030	 6.9390
 4.3070	 7.0050
 4.3100	 7.0330
 4.3140	 7.0720
 4.3180	 7.0720
 4.3210	 7.0420
 4.3250	 7.0010
 4.3280	 6.9560
 4.3320	 6.8510
 4.3360	 6.7970
 4.3390	 6.8360
 4.3430	 6.9330
 4.3470	 7.0620
 4.3500	 7.0660
 4.3540	 7.0270
 4.3570	 6.9770
 4.3610	 7.0660
 4.3650	 7.0240
 4.3680	 6.9190
 4.3720	 6.8660
 4.3760	 6.8380
 4.3800	 6.8920
 4.3830	 7.0120
 4.3870	 7.0060
 4.3910	 7.0060
 4.3940	 7.0330
 4.3980	 6.9340
 4.4020	 6.7890
 4.4060	 6.8110
 4.4090	 6.8560
 4.4130	 6.8100
 4.4170	 6.8240
 4.4210	 6.8730
 4.4240	 6.8460
 4.4280	 6.8820
 4.4320	 6.9280
 4.4360	 6.9540
 4.4400	 6.9060
 4.4430	 6.8790
 4.4470	 6.9290
 4.4510	 6.9080
 4.4550	 6.8420
 4.4590	 6.8360
 4.4620	 6.8400
 4.4660	 6.8010
 4.4700	 6.8170
 4.4740	 6.8630
 4.4780	 6.9040
 4.4820	 6.8890
 4.4860	 6.7770
 4.4900	 6.7780
 4.4930	 6.8500
 4.4970	 6.8450
 4.5010	 6.7680
 4.5050	 6.8080
 4.5090	 6.8710
 4.5130	 6.8580
 4.5170	 6.8530
 4.5210	 6.8020
 4.5250	 6.7980
 4.5290	 6.8030
 4.5330	 6.7730
 4.5370	 6.8250
 4.5410	 6.9630
 4.5450	 6.9250
 4.5490	 6.8370
 4.5530	 6.8340
 4.5570	 6.8850
 4.5610	 6.8490
 4.5650	 6.7820
 4.5690	 6.7770
 4.5730	 6.7900
 4.5770	 6.8100
 4.5810	 6.7670
 4.5850	 6.7490
 4.5890	 6.7730
 4.5930	 6.7760
 4.5970	 6.7580
 4.6010	 6.7300
 4.6050	 6.7790
 4.6090	 6.9320
 4.6130	 6.9370
 4.6170	 6.8300
 4.6220	 6.7740
 4.6260	 6.7850
 4.6300	 6.8770
 4.6340	 6.8580
 4.6380	 6.8740
 4.6420	 6.8450
 4.6460	 6.8520
 4.6510	 6.8340
 4.6550	 6.7480
 4.6590	 6.7540
 4.6630	 6.7950
 4.6670	 6.8150
 4.6720	 6.8120
 4.6760	 6.7190
 4.6800	 6.6560
 4.6840	 6.6320
 4.6880	 6.6730
 4.6930	 6.7270
 4.6970	 6.7710
 4.7010	 6.7640
 4.7050	 6.7530
 4.7100	 6.7350
 4.7140	 6.7690
 4.7180	 6.8310
 4.7230	 6.8960
 4.7270	 6.8770
 4.7310	 6.8550
 4.7360	 6.8250
 4.7400	 6.7610
 4.7440	 6.7380
 4.7490	 6.7180
 4.7530	 6.7480
 4.7570	 6.7830
 4.7620	 6.7190
 4.7660	 6.6520
 4.7700	 6.7160
 4.7750	 6.7340
 4.7790	 6.6730
 4.7840	 6.7000
 4.7880	 6.7400
 4.7920	 6.7320
 4.7970	 6.7390
 4.8010	 6.8280
 4.8060	 6.8200
 4.8100	 6.8040
 4.8150	 6.8150
 4.8190	 6.7960
 4.8240	 6.7340
 4.8280	 6.7040
 4.8330	 6.6940
 4.8370	 6.7380
 4.8420	 6.7780
 4.8460	 6.8010
 4.8510	 6.8220
 4.8550	 6.8830
 4.8600	 6.9030
 4.8640	 6.8840
 4.8690	 6.7860
 4.8730	 6.7550
 4.8780	 6.7950
 4.8830	 6.7660
 4.8870	 6.7800
 4.8920	 6.7990
 4.8960	 6.7730
 4.9010	 6.8150
 4.9060	 6.8060
 4.9100	 6.7970
 4.9150	 6.7780
 4.9200	 6.7840
 4.9240	 6.7580
 4.9290	 6.7810
 4.9340	 6.8020
 4.9380	 6.7340
 4.9430	 6.7290
 4.9480	 6.7540
 4.9530	 6.7370
 4.9570	 6.7900
 4.9620	 6.8220
 4.9670	 6.7710
 4.9720	 6.7460
 4.9760	 6.7410
 4.9810	 6.6960
 4.9860	 6.7440
 4.9910	 6.7180
 4.9960	 6.6450
 5.0000	 6.7360
 5.0050	 6.8270
 5.0100	 6.7800
 5.0150	 6.7210
 5.0200	 6.8330
 5.0250	 6.8710
 5.0290	 6.8410
 5.0340	 6.9080
 5.0390	 6.8580
 5.0440	 6.7910
 5.0490	 6.8030
 5.0540	 6.7730
 5.0590	 6.7430
 5.0640	 6.7640
 5.0690	 6.7450
 5.0740	 6.7910
 5.0790	 6.8210
 5.0840	 6.7340
 5.0890	 6.7750
 5.0940	 6.9210
 5.0990	 7.0060
 5.1040	 6.9770
 5.1090	 6.8650
 5.1140	 6.7570
 5.1190	 6.6760
 5.1240	 6.7380
 5.1290	 6.8000
 5.1340	 6.7560
 5.1390	 6.7400
 5.1440	 6.8080
 5.1490	 6.8190
 5.1540	 6.7990
 5.1600	 6.7210
 5.1650	 6.7260
 5.1700	 6.8310
 5.1750	 6.8880
 5.1800	 6.8510
 5.1850	 6.8720
 5.1910	 6.8210
 5.1960	 6.7960
 5.2010	 6.7340
 5.2060	 6.6960
 5.2110	 6.7260
 5.2170	 6.8280
 5.2220	 6.8670
 5.2270	 6.8310
 5.2320	 6.7640
 5.2380	 6.7830
 5.2430	 6.8670
 5.2480	 6.8460
 5.2540	 6.7420
 5.2590	 6.8030
 5.2640	 6.8430
 5.2700	 6.8650
 5.2750	 6.8750
 5.2800	 6.8280
 5.2860	 6.7920
 5.2910	 6.8560
 5.2970	 6.8460
 5.3020	 6.8230
 5.3070	 6.7810
 5.3130	 6.7700
 5.3180	 6.7170
 5.3240	 6.7850
 5.3290	 6.8460
 5.3350	 6.8640
 5.3400	 6.8040
 5.3460	 6.7430
 5.3510	 6.7730
 5.3570	 6.7510
 5.3620	 6.7350
 5.3680	 6.8220
 5.3730	 6.8290
 5.3790	 6.8210
 5.3850	 6.7360
 5.3900	 6.7380
 5.3960	 6.7440
 5.4010	 6.7950
 5.4070	 6.7970
 5.4130	 6.7230
 5.4180	 6.7120
 5.4240	 6.7580
 5.4300	 6.7540
 5.4350	 6.7790
 5.4410	 6.7670
 5.4470	 6.7010
 5.4530	 6.6210
 5.4580	 6.6880
 5.4640	 6.7270
 5.4700	 6.7640
 5.4760	 6.7460
 5.4810	 6.6770
 5.4870	 6.6650
 5.4930	 6.7130
 5.4990	 6.6410
 5.5050	 6.7140
 5.5110	 6.7140
 5.5160	 6.6370
 5.5220	 6.5970
 5.5280	 6.6390
 5.5340	 6.7000
 5.5400	 6.7770
 5.5460	 6.7180
 5.5520	 6.6650
 5.5580	 6.6440
 5.5640	 6.5620
 5.5700	 6.5520
 5.5760	 6.6780
 5.5820	 6.6670
 5.5880	 6.6410
 5.5940	 6.5900
 5.6000	 6.6310
 5.6060	 6.6100
 5.6120	 6.6240
 5.6180	 6.5750
 5.6240	 6.5780
 5.6300	 6.5080
 5.6360	 6.5390
 5.6420	 6.6220
 5.6490	 6.5920
 5.6550	 6.5680
 5.6610	 6.5670
 5.6670	 6.5200
 5.6730	 6.5680
 5.6800	 6.5450
 5.6860	 6.5420
 5.6920	 6.5130
 5.6980	 6.4880
 5.7040	 6.3620
 5.7110	 6.3320
 5.7170	 6.3890
 5.7230	 6.4880
 5.7300	 6.4440
 5.7360	 6.4130
 5.7420	 6.3950
 5.7490	 6.5390
 5.7550	 6.5970
 5.7620	 6.6370
 5.7680	 6.6660
 5.7740	 6.7430
 5.7810	 6.6860
 5.7870	 6.7070
 5.7940	 6.6920
 5.8000	 6.6610
 5.8070	 6.5540
 5.8130	 6.6090
 5.8200	 6.6700
 5.8260	 6.6660
 5.8330	 6.6340
 5.8390	 6.7350
 5.8460	 6.7130
 5.8530	 6.6940
 5.8590	 6.7760
 5.8660	 6.8720
 5.8720	 6.9010
 5.8790	 6.9320
 5.8860	 6.8480
 5.8920	 6.8230
 5.8990	 6.8240
 5.9060	 6.8730
 5.9130	 6.9780
 5.9190	 7.0200
 5.9260	 6.8940
 5.9330	 6.8290
 5.9400	 6.8250
 5.9470	 6.9040
 5.9530	 6.9260
 5.9600	 6.9490
 5.9670	 6.9090
 5.9740	 6.8960
 5.9810	 6.8710
 5.9880	 6.9520
 5.9950	 6.9290
 6.0020	 6.9090
 6.0090	 6.7870
 6.0160	 6.8050
 6.0230	 6.8170
 6.0300	 6.9030
 6.0370	 6.9110
 6.0440	 6.9470
 6.0510	 6.9080
 6.0580	 6.9970
 6.0650	 6.9500
 6.0720	 6.9520
 6.0790	 6.9560
 6.0860	 6.8840
 6.0930	 6.8810
 6.1000	 6.9310
 6.1080	 6.9650
 6.1150	 7.0140
 6.1220	 6.8930
 6.1290	 6.9610
 6.1370	 6.9380
 6.1440	 6.8880
 6.1510	 6.9160
 6.1580	 7.1040
 6.1660	 7.1390
 6.1730	 7.0430
 6.1800	 6.8170
 6.1880	 6.7670
 6.1950	 6.7530
 6.2030	 6.7860
 6.2100	 6.8390
 6.2170	 6.8330
 6.2250	 6.7800
 6.2320	 6.8790
 6.2400	 6.8750
 6.2470	 6.9110
 6.2550	 6.9620
 6.2630	 6.9800
 6.2700	 6.8270
 6.2780	 6.8040
 6.2850	 6.8550
 6.2930	 6.9680
 6.3010	 6.8370
 6.3080	 6.9140
 6.3160	 6.9800
 6.3240	 6.9000
 6.3310	 6.7390
 6.3390	 6.7470
 6.3470	 6.7030
 6.3550	 6.8010
 6.3620	 6.8260
 6.3700	 6.8320
 6.3780	 6.7950
 6.3860	 6.8470
 6.3940	 6.8290
 6.4020	 6.8130
 6.4100	 6.7560
 6.4180	 6.7890
 6.4260	 6.7630
 6.4330	 6.8020
 6.4410	 6.7060
 6.4490	 6.7960
 6.4580	 6.8670
 6.4660	 6.8320
 6.4740	 6.7330
 6.4820	 6.7930
 6.4900	 6.8170
 6.4980	 6.8170
 6.5060	 6.6970
 6.5140	 6.7460
 6.5230	 6.6990
 6.5310	 6.6930
 6.5390	 6.7440
 6.5470	 6.7690
 6.5550	 6.6830
 6.5640	 6.7320
 6.5720	 6.7360
 6.5800	 6.7800
 6.5890	 6.7730
 6.5970	 6.8250
 6.6060	 6.8070
 6.6140	 6.7460
 6.6220	 6.6080
 6.6310	 6.6170
 6.6390	 6.6830
 6.6480	 6.8010
 6.6560	 6.7320
 6.6650	 6.6980
 6.6740	 6.6130
 6.6820	 6.5820
 6.6910	 6.5070
 6.6990	 6.5470
 6.7080	 6.4510
 6.7170	 6.4610
 6.7260	 6.4450
 6.7340	 6.4810
 6.7430	 6.4110
 6.7520	 6.3910
 6.7610	 6.3190
 6.7690	 6.1370
 6.7780	 5.9780
 6.7870	 6.5100
 6.7960	 6.9570
 6.8050	 6.9490
 6.8140	 6.7010
 6.8230	 6.5420
 6.8320	 6.7930
 6.8410	 7.3310
 6.8500	 7.3580
 6.8590	 7.2640
 6.8680	 7.1150
 6.8770	 6.9920
 6.8860	 7.0090
 6.8950	 7.1540
 6.9050	 7.1310
 6.9140	 7.1200
 6.9230	 7.0230
 6.9320	 7.0120
 6.9420	 6.9330
 6.9510	 7.0030
 6.9600	 7.0490
 6.9700	 7.0760
 6.9790	 6.8890
 6.9880	 6.9200
 6.9980	 6.9240
 7.0070	 6.9190
 7.0170	 6.7820
 7.0260	 6.9210
 7.0360	 6.8850
 7.0450	 6.9570
 7.0550	 6.9080
 7.0650	 6.9400
 7.0740	 6.9190
 7.0840	 7.0170
 7.0940	 7.0320
 7.1030	 7.0770
 7.1130	 6.9730
 7.1230	 6.9330
 7.1330	 6.8770
 7.1420	 6.9380
 7.1520	 6.9600
 7.1620	 7.0390
 7.1720	 6.9750
 7.1820	 6.9020
 7.1920	 6.7850
 7.2020	 6.9090
 7.2120	 6.9600
 7.2220	 7.0410
 7.2320	 6.8970
 7.2420	 6.8690
 7.2520	 6.7920
 7.2620	 6.8800
 7.2730	 6.9150
 7.2830	 6.9540
 7.2930	 6.8520
 7.3030	 6.8760
 7.3140	 6.9460
 7.3240	 6.9170
 7.3340	 6.6970
 7.3450	 6.7200
 7.3550	 6.7980
 7.3660	 6.9380
 7.3760	 6.8590
 7.3870	 6.8640
 7.3970	 6.7830
 7.4080	 6.7580
 7.4180	 6.7160
 7.4290	 6.7810
 7.4400	 6.7790
 7.4500	 6.8980
 7.4610	 6.8270
 7.4720	 6.8650
 7.4830	 6.7740
 7.4930	 6.6640
 7.5040	 6.5570
 7.5150	 6.6440
 7.5260	 6.7330
 7.5370	 6.8850
 7.5480	 6.8920
 7.5590	 6.9270
 7.5700	 6.7870
 7.5810	 6.7610
 7.5920	 6.7640
 7.6030	 6.9270
 7.6140	 6.8080
 7.6260	 6.7310
 7.6370	 6.6840
 7.6480	 6.8030
 7.6590	 6.7690
 7.6710	 6.7230
 7.6820	 6.6250
 7.6930	 6.7240
 7.7050	 6.6370
 7.7160	 6.7370
 7.7280	 6.7400
 7.7390	 6.7030
 7.7510	 6.5240
 7.7630	 6.5900
 7.7740	 6.6280
 7.7860	 6.7530
 7.7980	 6.6890
 7.8090	 6.6600
 7.8210	 6.6700
 7.8330	 6.8270
 7.8450	 6.6930
 7.8570	 6.6530
 7.8690	 6.6190
 7.8810	 6.7330
 7.8930	 6.6610
 7.9050	 6.6950
 7.9170	 6.6780
 7.9290	 6.7660
 7.9410	 6.7480
 7.9530	 6.7780
 7.9650	 6.5210
 7.9780	 6.5520
 7.9900	 6.6390
 8.0020	 6.6780
 8.0150	 6.6380
 8.0270	 6.7580
 8.0390	 6.5950
 8.0520	 6.6080
 8.0640	 6.5940
 8.0770	 6.6870
 8.0900	 6.7090
 8.1020	 6.8730
 8.1150	 6.7540
 8.1280	 6.7340
 8.1400	 6.6230
 8.1530	 6.7300
 8.1660	 6.5700
 8.1790	 6.6930
 8.1920	 6.6810
 8.2050	 6.7400
 8.2180	 6.6930
 8.2310	 6.8190
 8.2440	 6.6870
 8.2570	 6.7610
 8.2700	 6.7850
 8.2830	 6.8050
 8.2970	 6.7130
 8.3100	 6.8440
 8.3230	 6.8140
 8.3370	 6.8350
 8.3500	 6.7590
 8.3640	 6.7640
 8.3770	 6.6480
 8.3910	 6.7100
 8.4040	 6.6270
 8.4180	 6.8160
 8.4320	 6.7990
 8.4450	 6.8680
 8.4590	 6.7000
 8.4730	 6.7260
 8.4870	 6.6380
 8.5010	 6.7230
 8.5150	 6.7780
 8.5290	 6.8350
 8.5430	 6.7430
 8.5570	 6.8940
 8.5710	 6.8500
 8.5850	 7.0490
 8.5990	 7.1840
 8.6140	 7.0020
 8.6280	 6.7410
 8.6420	 6.8620
 8.6570	 6.6510
 8.6710	 6.6540
 8.6860	 6.5240
 8.7000	 6.6250
 8.7150	 6.7040
 8.7300	 6.9810
 8.7440	 6.8470
 8.7590	 6.9270
 8.7740	 6.7710
 8.7890	 6.7610
 8.8040	 6.6330
 8.8190	 6.7320
 8.8340	 6.6140
 8.8490	 6.6880
 8.8640	 6.7460
 8.8790	 6.9000
 8.8940	 6.8230
 8.9100	 6.8590
 8.9250	 6.6820
 8.9400	 6.9040
 8.9560	 6.7220
 8.9710	 6.8770
 8.9870	 7.0130
 9.0020	 7.2630
 9.0180	 6.9510
 9.0340	 6.8460
 9.0500	 6.7760
 9.0650	 6.9690
 9.0810	 6.8650
 9.0970	 6.9840
 9.1130	 6.9800
 9.1290	 7.1200
 9.1450	 6.9920
 9.1610	 6.9720
 9.1780	 6.8430
 9.1940	 7.0600
 9.2100	 6.8570
 9.2270	 6.8760
 9.2430	 6.8610
 9.2600	 7.0740
 9.2760	 6.9520
 9.2930	 7.1670
 9.3090	 7.0610
 9.3260	 7.1410
 9.3430	 6.9970
 9.3600	 7.0170
 9.3770	 6.9330
 9.3940	 7.0790
 9.4110	 7.1040
 9.4280	 7.1160
 9.4450	 6.9080
 9.4620	 6.9730
 9.4800	 6.9240
 9.4970	 7.2040
 9.5140	 7.1410
 9.5320	 7.2410
 9.5500	 7.2580
 9.5670	 7.3720
 9.5850	 7.0820
 9.6030	 7.0490
 9.6200	 7.0260
 9.6380	 7.3440
 9.6560	 7.1980
 9.6740	 7.0410
 9.6920	 6.8690
 9.7100	 6.9680
 9.7290	 6.8910
 9.7470	 7.0570
 9.7650	 6.8650
 9.7840	 6.9620
 9.8020	 6.7970
 9.8210	 6.7430
 9.8390	 6.7180
 9.8580	 7.1900
 9.8770	 7.1450
 9.8960	 7.1460
 9.9150	 7.0000
 9.9340	 7.0980
 9.9530	 6.9700
 9.9720	 7.1580
 9.9910	 7.0660
10.0100	 7.1040
10.0300	 6.9110
10.0490	 7.1240
10.0690	 7.0370
10.0880	 7.0600
10.1080	 6.9990
10.1280	 7.1800
10.1480	 7.0790
10.1670	 7.0990
10.1870	 6.8990
10.2070	 6.9630
10.2280	 6.8740
10.2480	 6.9510
10.2680	 6.8720
10.2890	 6.8890
10.3090	 6.6250
10.3300	 6.6960
10.3500	 6.6250
10.3710	 6.7610
10.3920	 6.6330
10.4120	 6.7170
10.4330	 6.5370
10.4540	 6.7000
10.4760	 6.6660
10.4970	 6.7700
10.5180	 6.6760
10.5390	 6.8190
10.5610	 6.7290
10.5820	 6.8460
10.6040	 6.6730
10.6260	 6.9250
10.6480	 6.8620
10.6700	 6.9050
10.6920	 6.7980
10.7140	 6.9560
10.7360	 6.8180
10.7580	 6.9070
10.7800	 6.6340
10.8030	 6.6040
10.8250	 6.6190
10.8480	 6.8030
10.8710	 6.5240
10.8940	 6.6210
10.9170	 6.6360
10.9400	 6.9690
10.9630	 6.9460
10.9860	 6.9490
11.0090	 6.7180
11.0330	 6.9810
11.0560	 6.9560
11.0800	 6.9250
11.1040	 6.8430
11.1270	 7.0930
11.1510	 6.7760
11.1750	 6.7060
11.2000	 6.6800
11.2240	 6.9670
11.2480	 6.7600
11.2730	 6.6420
11.2970	 6.0560
11.3220	 6.4710
11.3470	 6.6960
11.3720	 6.7510
11.3970	 6.5320
11.4220	 6.6800
11.4470	 6.4140
11.4720	 6.3110
11.4980	 6.4830
11.5230	 6.8010
11.5490	 6.5660
11.5750	 6.7300
11.6000	 6.5830
11.6260	 6.7620
11.6530	 6.5800
11.6790	 6.6870
11.7050	 6.5850
11.7320	 6.8240
11.7580	 6.6920
11.7850	 6.8860
11.8120	 6.6770
11.8390	 6.7300
11.8660	 6.6930
11.8930	 6.6180
11.9200	 6.4410
11.9480	 6.7840
11.9760	 6.5400
12.0030	 6.6740
12.0310	 6.5140
12.0590	 6.6780
12.0870	 6.6270
12.1150	 6.8780
12.1440	 6.7950
12.1720	 6.9840
12.2010	 6.6030
12.2300	 6.3990
12.2590	 6.4180
12.2880	 6.8810
12.3170	 6.4930
12.3460	 6.6450
12.3760	 6.6400
12.4050	 6.8380
12.4350	 6.5610
12.4650	 6.6280
12.4950	 6.5030
12.5250	 6.7790
12.5550	 6.5540
12.5860	 6.6730
12.6170	 6.6140
12.6470	 6.8050
12.6780	 6.4880
12.7090	 6.4360
12.7410	 6.1770
12.7720	 6.6040
12.8030	 6.6710
12.8350	 6.8990
12.8670	 6.5460
12.8990	 6.7230
12.9310	 6.3950
12.9640	 6.4560
12.9960	 6.2750
13.0290	 6.6110
13.0610	 6.5170
13.0940	 6.8850
13.1280	 6.5610
13.1610	 6.5680
13.1940	 6.2760
13.2280	 6.7970
13.2620	 6.5870
13.2960	 6.6210
13.3300	 6.5220
13.3640	 6.8370
13.3990	 6.5050
13.4340	 6.5020
13.4690	 6.0240
13.5040	 6.2730
13.5390	 6.2200
13.5740	 6.4190
13.6100	 5.9390
13.6460	 6.2220
13.6820	 6.4500
13.7180	 7.0480
13.7540	 6.7630
13.7910	 6.7480
13.8280	 6.3350
13.8650	 6.8760
13.9020	 7.2610
13.9390	 7.8530
13.9770	 7.3130
14.0150	 7.3720
14.0530	 6.8770
14.0910	 6.9460
14.1290	 6.4480
14.1680	 6.7460
14.2070	 6.5810
14.2460	 6.7850
14.2850	 6.5090
14.3240	 6.9660
14.3640	 6.7160
14.4040	 6.9150
14.4440	 6.5550
14.4840	 6.6440
14.5250	 6.2550
14.5660	 6.9240
14.6070	 6.4860
14.6480	 7.0290
14.6900	 6.7900
14.7310	 7.0420
14.7730	 6.4160
14.8150	 6.8430
14.8580	 6.6110
14.9010	 7.4750
14.9440	 7.2320
14.9870	 7.8560
15.0300	 7.3020
15.0740	 7.1800
15.1180	 6.1570
15.1620	 6.6660
15.2060	 6.6060
15.2510	 7.6290
15.2960	 6.8800
15.3410	 7.0140
15.3870	 6.1090
