Name: Prosopis articulata
Type: vegetation
Class: Tree
Genus: Prosopis
Species: articulata
Sample No.: JPL142
Owner: JPL
Wavelength Range: VSWIR
Origin: 34.12538; -118.10978; WGS84
Collection Date: 9/14/2016
Description: Samples were collected at the Huntington Garden in San Marino California as part of a JPL Subcontract studying HyTES imagery. Samples were taken to JPL and processed within 48 hours of collection. The same leaves were processed in the Nicolet and then measured using the ASD.
Measurement: Bidirectional reflectance
First Column: X
Second Column: Y
X Units: Wavelength (micrometer)
Y Units: Reflectance (percentage)
First X Value: 0.35
Last X Value: 2.5
Number of X Values: 2151
Additional Information: vegetation.tree.prosopis.articulata.vswir.jpl142.jpl.asd.ancillary.txt

 0.3500	 1.8180
 0.3510	 1.7350
 0.3520	 1.8290
 0.3530	 1.9160
 0.3540	 1.8580
 0.3550	 1.8900
 0.3560	 1.9140
 0.3570	 1.8730
 0.3580	 1.7630
 0.3590	 1.7530
 0.3600	 1.7760
 0.3610	 1.7770
 0.3620	 1.7500
 0.3630	 1.8210
 0.3640	 1.8620
 0.3650	 1.7670
 0.3660	 1.7480
 0.3670	 1.7580
 0.3680	 1.7710
 0.3690	 1.7790
 0.3700	 1.7810
 0.3710	 1.7710
 0.3720	 1.7540
 0.3730	 1.7570
 0.3740	 1.7880
 0.3750	 1.7980
 0.3760	 1.7490
 0.3770	 1.7250
 0.3780	 1.7330
 0.3790	 1.7520
 0.3800	 1.7390
 0.3810	 1.7480
 0.3820	 1.7800
 0.3830	 1.8070
 0.3840	 1.7700
 0.3850	 1.7450
 0.3860	 1.7410
 0.3870	 1.7440
 0.3880	 1.7580
 0.3890	 1.7670
 0.3900	 1.7670
 0.3910	 1.7690
 0.3920	 1.8030
 0.3930	 1.8270
 0.3940	 1.8130
 0.3950	 1.8010
 0.3960	 1.7900
 0.3970	 1.8000
 0.3980	 1.8480
 0.3990	 1.8860
 0.4000	 1.9060
 0.4010	 1.9140
 0.4020	 1.9260
 0.4030	 1.9050
 0.4040	 1.8830
 0.4050	 1.9000
 0.4060	 1.9440
 0.4070	 1.9850
 0.4080	 2.0100
 0.4090	 2.0220
 0.4100	 2.0490
 0.4110	 2.0720
 0.4120	 2.0840
 0.4130	 2.1060
 0.4140	 2.1360
 0.4150	 2.1720
 0.4160	 2.2120
 0.4170	 2.2420
 0.4180	 2.2790
 0.4190	 2.3190
 0.4200	 2.3450
 0.4210	 2.3670
 0.4220	 2.3940
 0.4230	 2.4290
 0.4240	 2.4670
 0.4250	 2.5000
 0.4260	 2.5290
 0.4270	 2.5580
 0.4280	 2.5860
 0.4290	 2.6210
 0.4300	 2.6620
 0.4310	 2.6910
 0.4320	 2.7160
 0.4330	 2.7410
 0.4340	 2.7680
 0.4350	 2.7960
 0.4360	 2.8180
 0.4370	 2.8320
 0.4380	 2.8390
 0.4390	 2.8510
 0.4400	 2.8600
 0.4410	 2.8620
 0.4420	 2.8710
 0.4430	 2.8860
 0.4440	 2.8980
 0.4450	 2.9010
 0.4460	 2.9150
 0.4470	 2.9290
 0.4480	 2.9400
 0.4490	 2.9600
 0.4500	 2.9740
 0.4510	 2.9820
 0.4520	 2.9870
 0.4530	 2.9950
 0.4540	 3.0010
 0.4550	 3.0060
 0.4560	 3.0140
 0.4570	 3.0190
 0.4580	 3.0200
 0.4590	 3.0230
 0.4600	 3.0310
 0.4610	 3.0370
 0.4620	 3.0380
 0.4630	 3.0350
 0.4640	 3.0320
 0.4650	 3.0250
 0.4660	 3.0190
 0.4670	 3.0290
 0.4680	 3.0320
 0.4690	 3.0280
 0.4700	 3.0250
 0.4710	 3.0250
 0.4720	 3.0230
 0.4730	 3.0210
 0.4740	 3.0230
 0.4750	 3.0270
 0.4760	 3.0250
 0.4770	 3.0170
 0.4780	 3.0110
 0.4790	 3.0080
 0.4800	 3.0110
 0.4810	 3.0180
 0.4820	 3.0230
 0.4830	 3.0250
 0.4840	 3.0280
 0.4850	 3.0350
 0.4860	 3.0410
 0.4870	 3.0470
 0.4880	 3.0540
 0.4890	 3.0570
 0.4900	 3.0630
 0.4910	 3.0720
 0.4920	 3.0790
 0.4930	 3.0810
 0.4940	 3.0820
 0.4950	 3.0880
 0.4960	 3.1030
 0.4970	 3.1190
 0.4980	 3.1320
 0.4990	 3.1400
 0.5000	 3.1530
 0.5010	 3.1710
 0.5020	 3.1940
 0.5030	 3.2220
 0.5040	 3.2470
 0.5050	 3.2750
 0.5060	 3.3090
 0.5070	 3.3440
 0.5080	 3.3840
 0.5090	 3.4290
 0.5100	 3.4770
 0.5110	 3.5240
 0.5120	 3.5790
 0.5130	 3.6410
 0.5140	 3.7040
 0.5150	 3.7740
 0.5160	 3.8490
 0.5170	 3.9250
 0.5180	 4.0100
 0.5190	 4.0990
 0.5200	 4.1910
 0.5210	 4.2840
 0.5220	 4.3730
 0.5230	 4.4640
 0.5240	 4.5630
 0.5250	 4.6580
 0.5260	 4.7450
 0.5270	 4.8280
 0.5280	 4.9110
 0.5290	 4.9880
 0.5300	 5.0570
 0.5310	 5.1200
 0.5320	 5.1770
 0.5330	 5.2300
 0.5340	 5.2760
 0.5350	 5.3170
 0.5360	 5.3560
 0.5370	 5.3940
 0.5380	 5.4300
 0.5390	 5.4680
 0.5400	 5.5180
 0.5410	 5.5790
 0.5420	 5.6400
 0.5430	 5.6860
 0.5440	 5.7100
 0.5450	 5.7130
 0.5460	 5.6970
 0.5470	 5.6720
 0.5480	 5.6450
 0.5490	 5.6260
 0.5500	 5.6190
 0.5510	 5.6140
 0.5520	 5.6040
 0.5530	 5.5860
 0.5540	 5.5600
 0.5550	 5.5300
 0.5560	 5.4950
 0.5570	 5.4570
 0.5580	 5.4160
 0.5590	 5.3730
 0.5600	 5.3300
 0.5610	 5.2850
 0.5620	 5.2360
 0.5630	 5.1850
 0.5640	 5.1330
 0.5650	 5.0760
 0.5660	 5.0180
 0.5670	 4.9590
 0.5680	 4.8960
 0.5690	 4.8290
 0.5700	 4.7620
 0.5710	 4.6990
 0.5720	 4.6350
 0.5730	 4.5760
 0.5740	 4.5190
 0.5750	 4.4630
 0.5760	 4.4120
 0.5770	 4.3660
 0.5780	 4.3290
 0.5790	 4.2980
 0.5800	 4.2680
 0.5810	 4.2360
 0.5820	 4.2000
 0.5830	 4.1660
 0.5840	 4.1330
 0.5850	 4.1020
 0.5860	 4.0760
 0.5870	 4.0570
 0.5880	 4.0370
 0.5890	 4.0130
 0.5900	 3.9880
 0.5910	 3.9650
 0.5920	 3.9450
 0.5930	 3.9270
 0.5940	 3.9110
 0.5950	 3.8970
 0.5960	 3.8840
 0.5970	 3.8730
 0.5980	 3.8640
 0.5990	 3.8530
 0.6000	 3.8380
 0.6010	 3.8220
 0.6020	 3.8040
 0.6030	 3.7840
 0.6040	 3.7650
 0.6050	 3.7440
 0.6060	 3.7190
 0.6070	 3.6950
 0.6080	 3.6720
 0.6090	 3.6560
 0.6100	 3.6510
 0.6110	 3.6570
 0.6120	 3.6290
 0.6130	 3.5790
 0.6140	 3.5260
 0.6150	 3.4920
 0.6160	 3.4580
 0.6170	 3.4270
 0.6180	 3.4020
 0.6190	 3.3850
 0.6200	 3.3670
 0.6210	 3.3490
 0.6220	 3.3320
 0.6230	 3.3170
 0.6240	 3.3050
 0.6250	 3.2950
 0.6260	 3.2810
 0.6270	 3.2720
 0.6280	 3.2670
 0.6290	 3.2650
 0.6300	 3.2630
 0.6310	 3.2600
 0.6320	 3.2540
 0.6330	 3.2440
 0.6340	 3.2330
 0.6350	 3.2210
 0.6360	 3.2080
 0.6370	 3.1910
 0.6380	 3.1710
 0.6390	 3.1490
 0.6400	 3.1290
 0.6410	 3.1050
 0.6420	 3.0810
 0.6430	 3.0590
 0.6440	 3.0340
 0.6450	 3.0070
 0.6460	 2.9820
 0.6470	 2.9610
 0.6480	 2.9380
 0.6490	 2.9190
 0.6500	 2.9030
 0.6510	 2.8860
 0.6520	 2.8740
 0.6530	 2.8610
 0.6540	 2.8460
 0.6550	 2.8340
 0.6560	 2.8210
 0.6570	 2.8050
 0.6580	 2.7870
 0.6590	 2.7680
 0.6600	 2.7470
 0.6610	 2.7260
 0.6620	 2.7090
 0.6630	 2.6930
 0.6640	 2.6760
 0.6650	 2.6610
 0.6660	 2.6490
 0.6670	 2.6400
 0.6680	 2.6350
 0.6690	 2.6320
 0.6700	 2.6310
 0.6710	 2.6320
 0.6720	 2.6360
 0.6730	 2.6450
 0.6740	 2.6550
 0.6750	 2.6660
 0.6760	 2.6820
 0.6770	 2.7010
 0.6780	 2.7240
 0.6790	 2.7480
 0.6800	 2.7710
 0.6810	 2.7980
 0.6820	 2.8290
 0.6830	 2.8630
 0.6840	 2.8970
 0.6850	 2.9360
 0.6860	 2.9790
 0.6870	 3.0220
 0.6880	 3.0740
 0.6890	 3.1370
 0.6900	 3.2120
 0.6910	 3.3000
 0.6920	 3.4100
 0.6930	 3.5430
 0.6940	 3.7010
 0.6950	 3.8830
 0.6960	 4.0900
 0.6970	 4.3220
 0.6980	 4.5780
 0.6990	 4.8570
 0.7000	 5.1610
 0.7010	 5.4900
 0.7020	 5.8370
 0.7030	 6.2030
 0.7040	 6.5870
 0.7050	 6.9870
 0.7060	 7.4010
 0.7070	 7.8320
 0.7080	 8.2770
 0.7090	 8.7360
 0.7100	 9.2050
 0.7110	 9.6920
 0.7120	10.1970
 0.7130	10.7120
 0.7140	11.2420
 0.7150	11.7870
 0.7160	12.3470
 0.7170	12.9190
 0.7180	13.5020
 0.7190	14.0940
 0.7200	14.6920
 0.7210	15.2970
 0.7220	15.9050
 0.7230	16.5140
 0.7240	17.1220
 0.7250	17.7260
 0.7260	18.3240
 0.7270	18.9110
 0.7280	19.4870
 0.7290	20.0490
 0.7300	20.5960
 0.7310	21.1230
 0.7320	21.6360
 0.7330	22.1300
 0.7340	22.6040
 0.7350	23.0530
 0.7360	23.4810
 0.7370	23.8870
 0.7380	24.2710
 0.7390	24.6350
 0.7400	24.9730
 0.7410	25.2880
 0.7420	25.5840
 0.7430	25.8570
 0.7440	26.1090
 0.7450	26.3400
 0.7460	26.5540
 0.7470	26.7460
 0.7480	26.9220
 0.7490	27.0860
 0.7500	27.2310
 0.7510	27.3600
 0.7520	27.4770
 0.7530	27.5850
 0.7540	27.6810
 0.7550	27.7660
 0.7560	27.8420
 0.7570	27.9120
 0.7580	27.9770
 0.7590	28.0360
 0.7600	28.0860
 0.7610	28.1290
 0.7620	28.1660
 0.7630	28.1980
 0.7640	28.2260
 0.7650	28.2510
 0.7660	28.2750
 0.7670	28.2980
 0.7680	28.3160
 0.7690	28.3300
 0.7700	28.3430
 0.7710	28.3560
 0.7720	28.3650
 0.7730	28.3720
 0.7740	28.3800
 0.7750	28.3890
 0.7760	28.3950
 0.7770	28.4000
 0.7780	28.4080
 0.7790	28.4170
 0.7800	28.4270
 0.7810	28.4340
 0.7820	28.4380
 0.7830	28.4420
 0.7840	28.4470
 0.7850	28.4530
 0.7860	28.4570
 0.7870	28.4610
 0.7880	28.4660
 0.7890	28.4710
 0.7900	28.4730
 0.7910	28.4760
 0.7920	28.4780
 0.7930	28.4790
 0.7940	28.4820
 0.7950	28.4870
 0.7960	28.4910
 0.7970	28.4920
 0.7980	28.4920
 0.7990	28.4930
 0.8000	28.4950
 0.8010	28.4960
 0.8020	28.4940
 0.8030	28.4940
 0.8040	28.4930
 0.8050	28.4910
 0.8060	28.4900
 0.8070	28.4900
 0.8080	28.4900
 0.8090	28.4870
 0.8100	28.4830
 0.8110	28.4800
 0.8120	28.4790
 0.8130	28.4780
 0.8140	28.4720
 0.8150	28.4660
 0.8160	28.4650
 0.8170	28.4590
 0.8180	28.4570
 0.8190	28.4560
 0.8200	28.4500
 0.8210	28.4470
 0.8220	28.4430
 0.8230	28.4390
 0.8240	28.4380
 0.8250	28.4330
 0.8260	28.4270
 0.8270	28.4210
 0.8280	28.4180
 0.8290	28.4120
 0.8300	28.4070
 0.8310	28.4040
 0.8320	28.3980
 0.8330	28.3920
 0.8340	28.3860
 0.8350	28.3800
 0.8360	28.3800
 0.8370	28.3800
 0.8380	28.3790
 0.8390	28.3780
 0.8400	28.3700
 0.8410	28.3650
 0.8420	28.3660
 0.8430	28.3650
 0.8440	28.3620
 0.8450	28.3630
 0.8460	28.3680
 0.8470	28.3650
 0.8480	28.3660
 0.8490	28.3680
 0.8500	28.3690
 0.8510	28.3680
 0.8520	28.3670
 0.8530	28.3670
 0.8540	28.3670
 0.8550	28.3690
 0.8560	28.3710
 0.8570	28.3710
 0.8580	28.3720
 0.8590	28.3750
 0.8600	28.3770
 0.8610	28.3750
 0.8620	28.3760
 0.8630	28.3820
 0.8640	28.3890
 0.8650	28.3920
 0.8660	28.3940
 0.8670	28.3940
 0.8680	28.3960
 0.8690	28.3990
 0.8700	28.4070
 0.8710	28.4150
 0.8720	28.4200
 0.8730	28.4200
 0.8740	28.4210
 0.8750	28.4240
 0.8760	28.4270
 0.8770	28.4310
 0.8780	28.4370
 0.8790	28.4440
 0.8800	28.4490
 0.8810	28.4480
 0.8820	28.4500
 0.8830	28.4550
 0.8840	28.4590
 0.8850	28.4600
 0.8860	28.4600
 0.8870	28.4620
 0.8880	28.4670
 0.8890	28.4750
 0.8900	28.4810
 0.8910	28.4820
 0.8920	28.4820
 0.8930	28.4890
 0.8940	28.4920
 0.8950	28.4920
 0.8960	28.4990
 0.8970	28.5000
 0.8980	28.5010
 0.8990	28.5040
 0.9000	28.5080
 0.9010	28.5130
 0.9020	28.5150
 0.9030	28.5150
 0.9040	28.5140
 0.9050	28.5170
 0.9060	28.5200
 0.9070	28.5190
 0.9080	28.5150
 0.9090	28.5160
 0.9100	28.5170
 0.9110	28.5160
 0.9120	28.5170
 0.9130	28.5230
 0.9140	28.5250
 0.9150	28.5150
 0.9160	28.5130
 0.9170	28.5130
 0.9180	28.5140
 0.9190	28.5130
 0.9200	28.5070
 0.9210	28.5020
 0.9220	28.4990
 0.9230	28.4950
 0.9240	28.4820
 0.9250	28.4740
 0.9260	28.4720
 0.9270	28.4640
 0.9280	28.4540
 0.9290	28.4440
 0.9300	28.4320
 0.9310	28.4180
 0.9320	28.4030
 0.9330	28.3910
 0.9340	28.3820
 0.9350	28.3640
 0.9360	28.3520
 0.9370	28.3370
 0.9380	28.3140
 0.9390	28.2990
 0.9400	28.2850
 0.9410	28.2670
 0.9420	28.2460
 0.9430	28.2270
 0.9440	28.1980
 0.9450	28.1660
 0.9460	28.1410
 0.9470	28.1220
 0.9480	28.0920
 0.9490	28.0530
 0.9500	28.0150
 0.9510	27.9860
 0.9520	27.9450
 0.9530	27.8980
 0.9540	27.8550
 0.9550	27.8220
 0.9560	27.7860
 0.9570	27.7460
 0.9580	27.7050
 0.9590	27.6680
 0.9600	27.6390
 0.9610	27.6110
 0.9620	27.5780
 0.9630	27.5540
 0.9640	27.5420
 0.9650	27.5320
 0.9660	27.5170
 0.9670	27.5050
 0.9680	27.4880
 0.9690	27.4740
 0.9700	27.4710
 0.9710	27.4560
 0.9720	27.4420
 0.9730	27.4330
 0.9740	27.4290
 0.9750	27.4260
 0.9760	27.4220
 0.9770	27.4150
 0.9780	27.4070
 0.9790	27.4010
 0.9800	27.4030
 0.9810	27.4030
 0.9820	27.3940
 0.9830	27.4080
 0.9840	27.4240
 0.9850	27.4280
 0.9860	27.4180
 0.9870	27.4210
 0.9880	27.4240
 0.9890	27.4280
 0.9900	27.4420
 0.9910	27.4600
 0.9920	27.4690
 0.9930	27.4730
 0.9940	27.4780
 0.9950	27.4840
 0.9960	27.4950
 0.9970	27.5140
 0.9980	27.5390
 0.9990	27.5300
 1.0000	27.5320
 1.0010	27.8040
 1.0020	27.8150
 1.0030	27.8320
 1.0040	27.8480
 1.0050	27.8630
 1.0060	27.8790
 1.0070	27.8900
 1.0080	27.9050
 1.0090	27.9210
 1.0100	27.9370
 1.0110	27.9560
 1.0120	27.9730
 1.0130	27.9860
 1.0140	28.0010
 1.0150	28.0200
 1.0160	28.0340
 1.0170	28.0490
 1.0180	28.0640
 1.0190	28.0770
 1.0200	28.0940
 1.0210	28.1120
 1.0220	28.1290
 1.0230	28.1430
 1.0240	28.1510
 1.0250	28.1650
 1.0260	28.1790
 1.0270	28.1940
 1.0280	28.2130
 1.0290	28.2270
 1.0300	28.2380
 1.0310	28.2510
 1.0320	28.2640
 1.0330	28.2760
 1.0340	28.2890
 1.0350	28.3000
 1.0360	28.3090
 1.0370	28.3200
 1.0380	28.3320
 1.0390	28.3460
 1.0400	28.3580
 1.0410	28.3700
 1.0420	28.3810
 1.0430	28.3910
 1.0440	28.4010
 1.0450	28.4090
 1.0460	28.4190
 1.0470	28.4310
 1.0480	28.4410
 1.0490	28.4490
 1.0500	28.4580
 1.0510	28.4650
 1.0520	28.4720
 1.0530	28.4810
 1.0540	28.4910
 1.0550	28.5000
 1.0560	28.5090
 1.0570	28.5160
 1.0580	28.5210
 1.0590	28.5290
 1.0600	28.5400
 1.0610	28.5470
 1.0620	28.5540
 1.0630	28.5610
 1.0640	28.5650
 1.0650	28.5690
 1.0660	28.5780
 1.0670	28.5830
 1.0680	28.5870
 1.0690	28.5880
 1.0700	28.5890
 1.0710	28.5890
 1.0720	28.5920
 1.0730	28.5980
 1.0740	28.6000
 1.0750	28.6030
 1.0760	28.6050
 1.0770	28.6030
 1.0780	28.6040
 1.0790	28.6050
 1.0800	28.6050
 1.0810	28.6050
 1.0820	28.6040
 1.0830	28.6010
 1.0840	28.5990
 1.0850	28.5970
 1.0860	28.5920
 1.0870	28.5900
 1.0880	28.5890
 1.0890	28.5860
 1.0900	28.5840
 1.0910	28.5780
 1.0920	28.5690
 1.0930	28.5610
 1.0940	28.5520
 1.0950	28.5440
 1.0960	28.5380
 1.0970	28.5320
 1.0980	28.5260
 1.0990	28.5200
 1.1000	28.5140
 1.1010	28.5070
 1.1020	28.4990
 1.1030	28.4920
 1.1040	28.4830
 1.1050	28.4730
 1.1060	28.4640
 1.1070	28.4540
 1.1080	28.4440
 1.1090	28.4360
 1.1100	28.4260
 1.1110	28.4150
 1.1120	28.4030
 1.1130	28.3910
 1.1140	28.3780
 1.1150	28.3630
 1.1160	28.3490
 1.1170	28.3330
 1.1180	28.3170
 1.1190	28.3020
 1.1200	28.2840
 1.1210	28.2640
 1.1220	28.2410
 1.1230	28.2160
 1.1240	28.1890
 1.1250	28.1580
 1.1260	28.1280
 1.1270	28.0900
 1.1280	28.0480
 1.1290	28.0010
 1.1300	27.9510
 1.1310	27.8940
 1.1320	27.8310
 1.1330	27.7660
 1.1340	27.6940
 1.1350	27.6200
 1.1360	27.5440
 1.1370	27.4610
 1.1380	27.3730
 1.1390	27.2800
 1.1400	27.1830
 1.1410	27.0850
 1.1420	26.9870
 1.1430	26.8890
 1.1440	26.7930
 1.1450	26.6960
 1.1460	26.6000
 1.1470	26.5040
 1.1480	26.4130
 1.1490	26.3240
 1.1500	26.2410
 1.1510	26.1620
 1.1520	26.0870
 1.1530	26.0140
 1.1540	25.9460
 1.1550	25.8820
 1.1560	25.8240
 1.1570	25.7710
 1.1580	25.7210
 1.1590	25.6750
 1.1600	25.6350
 1.1610	25.5960
 1.1620	25.5610
 1.1630	25.5310
 1.1640	25.5000
 1.1650	25.4730
 1.1660	25.4500
 1.1670	25.4270
 1.1680	25.4070
 1.1690	25.3870
 1.1700	25.3670
 1.1710	25.3490
 1.1720	25.3340
 1.1730	25.3170
 1.1740	25.3010
 1.1750	25.2850
 1.1760	25.2690
 1.1770	25.2530
 1.1780	25.2360
 1.1790	25.2200
 1.1800	25.2020
 1.1810	25.1830
 1.1820	25.1650
 1.1830	25.1480
 1.1840	25.1290
 1.1850	25.1120
 1.1860	25.0950
 1.1870	25.0770
 1.1880	25.0620
 1.1890	25.0480
 1.1900	25.0340
 1.1910	25.0210
 1.1920	25.0100
 1.1930	24.9990
 1.1940	24.9890
 1.1950	24.9820
 1.1960	24.9750
 1.1970	24.9690
 1.1980	24.9630
 1.1990	24.9580
 1.2000	24.9560
 1.2010	24.9550
 1.2020	24.9560
 1.2030	24.9570
 1.2040	24.9580
 1.2050	24.9600
 1.2060	24.9640
 1.2070	24.9710
 1.2080	24.9790
 1.2090	24.9880
 1.2100	24.9990
 1.2110	25.0110
 1.2120	25.0240
 1.2130	25.0400
 1.2140	25.0570
 1.2150	25.0770
 1.2160	25.0990
 1.2170	25.1200
 1.2180	25.1440
 1.2190	25.1700
 1.2200	25.1960
 1.2210	25.2240
 1.2220	25.2520
 1.2230	25.2810
 1.2240	25.3110
 1.2250	25.3410
 1.2260	25.3700
 1.2270	25.3980
 1.2280	25.4250
 1.2290	25.4510
 1.2300	25.4760
 1.2310	25.5010
 1.2320	25.5240
 1.2330	25.5470
 1.2340	25.5680
 1.2350	25.5890
 1.2360	25.6090
 1.2370	25.6280
 1.2380	25.6470
 1.2390	25.6620
 1.2400	25.6780
 1.2410	25.6940
 1.2420	25.7100
 1.2430	25.7270
 1.2440	25.7440
 1.2450	25.7600
 1.2460	25.7740
 1.2470	25.7880
 1.2480	25.8020
 1.2490	25.8150
 1.2500	25.8280
 1.2510	25.8400
 1.2520	25.8510
 1.2530	25.8610
 1.2540	25.8700
 1.2550	25.8790
 1.2560	25.8890
 1.2570	25.8980
 1.2580	25.9080
 1.2590	25.9150
 1.2600	25.9210
 1.2610	25.9260
 1.2620	25.9290
 1.2630	25.9320
 1.2640	25.9350
 1.2650	25.9370
 1.2660	25.9380
 1.2670	25.9390
 1.2680	25.9380
 1.2690	25.9380
 1.2700	25.9370
 1.2710	25.9340
 1.2720	25.9320
 1.2730	25.9280
 1.2740	25.9230
 1.2750	25.9180
 1.2760	25.9100
 1.2770	25.9040
 1.2780	25.8960
 1.2790	25.8880
 1.2800	25.8790
 1.2810	25.8690
 1.2820	25.8590
 1.2830	25.8470
 1.2840	25.8360
 1.2850	25.8250
 1.2860	25.8100
 1.2870	25.7950
 1.2880	25.7790
 1.2890	25.7600
 1.2900	25.7390
 1.2910	25.7190
 1.2920	25.6970
 1.2930	25.6750
 1.2940	25.6500
 1.2950	25.6240
 1.2960	25.5970
 1.2970	25.5670
 1.2980	25.5350
 1.2990	25.5010
 1.3000	25.4660
 1.3010	25.4300
 1.3020	25.3910
 1.3030	25.3530
 1.3040	25.3100
 1.3050	25.2640
 1.3060	25.2180
 1.3070	25.1680
 1.3080	25.1150
 1.3090	25.0620
 1.3100	25.0070
 1.3110	24.9480
 1.3120	24.8890
 1.3130	24.8280
 1.3140	24.7640
 1.3150	24.7000
 1.3160	24.6330
 1.3170	24.5650
 1.3180	24.4940
 1.3190	24.4200
 1.3200	24.3450
 1.3210	24.2670
 1.3220	24.1870
 1.3230	24.1050
 1.3240	24.0200
 1.3250	23.9360
 1.3260	23.8510
 1.3270	23.7640
 1.3280	23.6760
 1.3290	23.5850
 1.3300	23.4940
 1.3310	23.4010
 1.3320	23.3040
 1.3330	23.2100
 1.3340	23.1150
 1.3350	23.0180
 1.3360	22.9230
 1.3370	22.8270
 1.3380	22.7320
 1.3390	22.6380
 1.3400	22.5440
 1.3410	22.4500
 1.3420	22.3580
 1.3430	22.2660
 1.3440	22.1750
 1.3450	22.0850
 1.3460	21.9970
 1.3470	21.9100
 1.3480	21.8240
 1.3490	21.7390
 1.3500	21.6570
 1.3510	21.5740
 1.3520	21.4910
 1.3530	21.4080
 1.3540	21.3250
 1.3550	21.2410
 1.3560	21.1570
 1.3570	21.0740
 1.3580	20.9900
 1.3590	20.9060
 1.3600	20.8200
 1.3610	20.7310
 1.3620	20.6400
 1.3630	20.5430
 1.3640	20.4430
 1.3650	20.3370
 1.3660	20.2270
 1.3670	20.1110
 1.3680	19.9900
 1.3690	19.8610
 1.3700	19.7230
 1.3710	19.5760
 1.3720	19.4200
 1.3730	19.2520
 1.3740	19.0750
 1.3750	18.8850
 1.3760	18.6820
 1.3770	18.4680
 1.3780	18.2360
 1.3790	17.9900
 1.3800	17.7310
 1.3810	17.4550
 1.3820	17.1680
 1.3830	16.8670
 1.3840	16.5550
 1.3850	16.2300
 1.3860	15.8990
 1.3870	15.5550
 1.3880	15.2100
 1.3890	14.8600
 1.3900	14.5040
 1.3910	14.1500
 1.3920	13.7960
 1.3930	13.4400
 1.3940	13.0900
 1.3950	12.7420
 1.3960	12.4010
 1.3970	12.0700
 1.3980	11.7480
 1.3990	11.4380
 1.4000	11.1400
 1.4010	10.8510
 1.4020	10.5750
 1.4030	10.3100
 1.4040	10.0580
 1.4050	 9.8200
 1.4060	 9.5930
 1.4070	 9.3820
 1.4080	 9.1830
 1.4090	 8.9950
 1.4100	 8.8200
 1.4110	 8.6550
 1.4120	 8.5010
 1.4130	 8.3580
 1.4140	 8.2240
 1.4150	 8.1010
 1.4160	 7.9870
 1.4170	 7.8790
 1.4180	 7.7790
 1.4190	 7.6850
 1.4200	 7.5980
 1.4210	 7.5160
 1.4220	 7.4410
 1.4230	 7.3720
 1.4240	 7.3070
 1.4250	 7.2470
 1.4260	 7.1920
 1.4270	 7.1390
 1.4280	 7.0900
 1.4290	 7.0450
 1.4300	 7.0050
 1.4310	 6.9670
 1.4320	 6.9340
 1.4330	 6.9020
 1.4340	 6.8740
 1.4350	 6.8470
 1.4360	 6.8240
 1.4370	 6.8030
 1.4380	 6.7850
 1.4390	 6.7680
 1.4400	 6.7540
 1.4410	 6.7420
 1.4420	 6.7310
 1.4430	 6.7220
 1.4440	 6.7140
 1.4450	 6.7080
 1.4460	 6.7030
 1.4470	 6.7000
 1.4480	 6.6990
 1.4490	 6.6980
 1.4500	 6.6970
 1.4510	 6.6980
 1.4520	 6.7000
 1.4530	 6.7040
 1.4540	 6.7090
 1.4550	 6.7160
 1.4560	 6.7230
 1.4570	 6.7310
 1.4580	 6.7420
 1.4590	 6.7550
 1.4600	 6.7700
 1.4610	 6.7870
 1.4620	 6.8060
 1.4630	 6.8290
 1.4640	 6.8530
 1.4650	 6.8800
 1.4660	 6.9100
 1.4670	 6.9410
 1.4680	 6.9760
 1.4690	 7.0120
 1.4700	 7.0510
 1.4710	 7.0920
 1.4720	 7.1350
 1.4730	 7.1800
 1.4740	 7.2270
 1.4750	 7.2760
 1.4760	 7.3260
 1.4770	 7.3780
 1.4780	 7.4300
 1.4790	 7.4850
 1.4800	 7.5400
 1.4810	 7.5980
 1.4820	 7.6570
 1.4830	 7.7170
 1.4840	 7.7770
 1.4850	 7.8380
 1.4860	 7.9010
 1.4870	 7.9650
 1.4880	 8.0290
 1.4890	 8.0940
 1.4900	 8.1590
 1.4910	 8.2220
 1.4920	 8.2880
 1.4930	 8.3560
 1.4940	 8.4230
 1.4950	 8.4930
 1.4960	 8.5620
 1.4970	 8.6290
 1.4980	 8.6990
 1.4990	 8.7690
 1.5000	 8.8390
 1.5010	 8.9120
 1.5020	 8.9840
 1.5030	 9.0560
 1.5040	 9.1270
 1.5050	 9.1980
 1.5060	 9.2700
 1.5070	 9.3430
 1.5080	 9.4160
 1.5090	 9.4900
 1.5100	 9.5630
 1.5110	 9.6350
 1.5120	 9.7090
 1.5130	 9.7810
 1.5140	 9.8540
 1.5150	 9.9280
 1.5160	10.0000
 1.5170	10.0730
 1.5180	10.1460
 1.5190	10.2180
 1.5200	10.2910
 1.5210	10.3630
 1.5220	10.4350
 1.5230	10.5070
 1.5240	10.5780
 1.5250	10.6500
 1.5260	10.7210
 1.5270	10.7910
 1.5280	10.8620
 1.5290	10.9310
 1.5300	11.0000
 1.5310	11.0690
 1.5320	11.1380
 1.5330	11.2070
 1.5340	11.2750
 1.5350	11.3430
 1.5360	11.4110
 1.5370	11.4770
 1.5380	11.5440
 1.5390	11.6110
 1.5400	11.6770
 1.5410	11.7440
 1.5420	11.8090
 1.5430	11.8740
 1.5440	11.9400
 1.5450	12.0030
 1.5460	12.0680
 1.5470	12.1320
 1.5480	12.1940
 1.5490	12.2560
 1.5500	12.3180
 1.5510	12.3800
 1.5520	12.4430
 1.5530	12.5050
 1.5540	12.5650
 1.5550	12.6260
 1.5560	12.6850
 1.5570	12.7430
 1.5580	12.8020
 1.5590	12.8590
 1.5600	12.9160
 1.5610	12.9730
 1.5620	13.0280
 1.5630	13.0840
 1.5640	13.1390
 1.5650	13.1930
 1.5660	13.2480
 1.5670	13.3020
 1.5680	13.3560
 1.5690	13.4110
 1.5700	13.4630
 1.5710	13.5150
 1.5720	13.5650
 1.5730	13.6150
 1.5740	13.6660
 1.5750	13.7170
 1.5760	13.7690
 1.5770	13.8200
 1.5780	13.8710
 1.5790	13.9210
 1.5800	13.9690
 1.5810	14.0190
 1.5820	14.0670
 1.5830	14.1140
 1.5840	14.1620
 1.5850	14.2090
 1.5860	14.2560
 1.5870	14.3030
 1.5880	14.3500
 1.5890	14.3970
 1.5900	14.4420
 1.5910	14.4870
 1.5920	14.5320
 1.5930	14.5760
 1.5940	14.6210
 1.5950	14.6660
 1.5960	14.7100
 1.5970	14.7550
 1.5980	14.7990
 1.5990	14.8430
 1.6000	14.8870
 1.6010	14.9300
 1.6020	14.9710
 1.6030	15.0130
 1.6040	15.0550
 1.6050	15.0960
 1.6060	15.1380
 1.6070	15.1800
 1.6080	15.2200
 1.6090	15.2590
 1.6100	15.2990
 1.6110	15.3380
 1.6120	15.3760
 1.6130	15.4130
 1.6140	15.4490
 1.6150	15.4840
 1.6160	15.5190
 1.6170	15.5540
 1.6180	15.5880
 1.6190	15.6210
 1.6200	15.6530
 1.6210	15.6860
 1.6220	15.7190
 1.6230	15.7520
 1.6240	15.7830
 1.6250	15.8120
 1.6260	15.8410
 1.6270	15.8700
 1.6280	15.9000
 1.6290	15.9280
 1.6300	15.9560
 1.6310	15.9830
 1.6320	16.0110
 1.6330	16.0370
 1.6340	16.0630
 1.6350	16.0870
 1.6360	16.1110
 1.6370	16.1340
 1.6380	16.1580
 1.6390	16.1800
 1.6400	16.2010
 1.6410	16.2210
 1.6420	16.2410
 1.6430	16.2620
 1.6440	16.2820
 1.6450	16.3000
 1.6460	16.3170
 1.6470	16.3330
 1.6480	16.3470
 1.6490	16.3610
 1.6500	16.3730
 1.6510	16.3840
 1.6520	16.3930
 1.6530	16.4010
 1.6540	16.4060
 1.6550	16.4110
 1.6560	16.4150
 1.6570	16.4190
 1.6580	16.4220
 1.6590	16.4210
 1.6600	16.4180
 1.6610	16.4130
 1.6620	16.4070
 1.6630	16.4010
 1.6640	16.3950
 1.6650	16.3880
 1.6660	16.3810
 1.6670	16.3730
 1.6680	16.3630
 1.6690	16.3510
 1.6700	16.3380
 1.6710	16.3240
 1.6720	16.3090
 1.6730	16.2950
 1.6740	16.2800
 1.6750	16.2620
 1.6760	16.2450
 1.6770	16.2270
 1.6780	16.2070
 1.6790	16.1880
 1.6800	16.1680
 1.6810	16.1470
 1.6820	16.1250
 1.6830	16.0990
 1.6840	16.0730
 1.6850	16.0470
 1.6860	16.0190
 1.6870	15.9910
 1.6880	15.9630
 1.6890	15.9330
 1.6900	15.9020
 1.6910	15.8710
 1.6920	15.8390
 1.6930	15.8050
 1.6940	15.7720
 1.6950	15.7390
 1.6960	15.7030
 1.6970	15.6670
 1.6980	15.6300
 1.6990	15.5910
 1.7000	15.5520
 1.7010	15.5120
 1.7020	15.4720
 1.7030	15.4300
 1.7040	15.3880
 1.7050	15.3460
 1.7060	15.3030
 1.7070	15.2580
 1.7080	15.2130
 1.7090	15.1680
 1.7100	15.1250
 1.7110	15.0830
 1.7120	15.0380
 1.7130	14.9950
 1.7140	14.9520
 1.7150	14.9080
 1.7160	14.8660
 1.7170	14.8230
 1.7180	14.7790
 1.7190	14.7370
 1.7200	14.6970
 1.7210	14.6580
 1.7220	14.6170
 1.7230	14.5760
 1.7240	14.5370
 1.7250	14.4980
 1.7260	14.4610
 1.7270	14.4260
 1.7280	14.3930
 1.7290	14.3640
 1.7300	14.3420
 1.7310	14.3240
 1.7320	14.3120
 1.7330	14.3020
 1.7340	14.2970
 1.7350	14.2910
 1.7360	14.2900
 1.7370	14.2860
 1.7380	14.2820
 1.7390	14.2730
 1.7400	14.2610
 1.7410	14.2470
 1.7420	14.2280
 1.7430	14.2070
 1.7440	14.1850
 1.7450	14.1580
 1.7460	14.1260
 1.7470	14.0940
 1.7480	14.0580
 1.7490	14.0220
 1.7500	13.9870
 1.7510	13.9490
 1.7520	13.9080
 1.7530	13.8670
 1.7540	13.8230
 1.7550	13.7820
 1.7560	13.7430
 1.7570	13.7040
 1.7580	13.6660
 1.7590	13.6290
 1.7600	13.5930
 1.7610	13.5590
 1.7620	13.5270
 1.7630	13.4970
 1.7640	13.4700
 1.7650	13.4450
 1.7660	13.4220
 1.7670	13.4020
 1.7680	13.3830
 1.7690	13.3640
 1.7700	13.3470
 1.7710	13.3310
 1.7720	13.3160
 1.7730	13.3020
 1.7740	13.2890
 1.7750	13.2770
 1.7760	13.2640
 1.7770	13.2510
 1.7780	13.2380
 1.7790	13.2240
 1.7800	13.2110
 1.7810	13.1990
 1.7820	13.1870
 1.7830	13.1740
 1.7840	13.1630
 1.7850	13.1530
 1.7860	13.1450
 1.7870	13.1380
 1.7880	13.1320
 1.7890	13.1260
 1.7900	13.1260
 1.7910	13.1250
 1.7920	13.1230
 1.7930	13.1230
 1.7940	13.1220
 1.7950	13.1230
 1.7960	13.1260
 1.7970	13.1290
 1.7980	13.1330
 1.7990	13.1360
 1.8000	13.1390
 1.8010	13.1440
 1.8020	13.1510
 1.8030	13.1570
 1.8040	13.1660
 1.8050	13.1720
 1.8060	13.1780
 1.8070	13.1820
 1.8080	13.1860
 1.8090	13.1910
 1.8100	13.1960
 1.8110	13.2010
 1.8120	13.2090
 1.8130	13.2160
 1.8140	13.2220
 1.8150	13.2270
 1.8160	13.2310
 1.8170	13.2320
 1.8180	13.2330
 1.8190	13.2370
 1.8200	13.2390
 1.8210	13.2410
 1.8220	13.2420
 1.8230	13.2430
 1.8240	13.2430
 1.8250	13.2430
 1.8260	13.2410
 1.8270	13.2370
 1.8280	13.2310
 1.8290	13.2230
 1.8300	13.2160
 1.8310	12.8790
 1.8320	12.8650
 1.8330	12.8490
 1.8340	12.8300
 1.8350	12.8120
 1.8360	12.7900
 1.8370	12.7620
 1.8380	12.7340
 1.8390	12.7030
 1.8400	12.6680
 1.8410	12.6310
 1.8420	12.5940
 1.8430	12.5470
 1.8440	12.4920
 1.8450	12.4390
 1.8460	12.3780
 1.8470	12.3150
 1.8480	12.2520
 1.8490	12.1780
 1.8500	12.0970
 1.8510	12.0090
 1.8520	11.9150
 1.8530	11.8120
 1.8540	11.7030
 1.8550	11.5880
 1.8560	11.4660
 1.8570	11.3350
 1.8580	11.1950
 1.8590	11.0500
 1.8600	10.8970
 1.8610	10.7360
 1.8620	10.5680
 1.8630	10.3920
 1.8640	10.2050
 1.8650	10.0100
 1.8660	 9.8030
 1.8670	 9.5830
 1.8680	 9.3560
 1.8690	 9.1170
 1.8700	 8.8730
 1.8710	 8.6200
 1.8720	 8.3620
 1.8730	 8.0990
 1.8740	 7.8360
 1.8750	 7.5690
 1.8760	 7.2980
 1.8770	 7.0300
 1.8780	 6.7600
 1.8790	 6.4900
 1.8800	 6.2270
 1.8810	 5.9690
 1.8820	 5.7120
 1.8830	 5.4600
 1.8840	 5.2140
 1.8850	 4.9710
 1.8860	 4.7360
 1.8870	 4.5100
 1.8880	 4.2890
 1.8890	 4.0800
 1.8900	 3.8820
 1.8910	 3.6940
 1.8920	 3.5150
 1.8930	 3.3490
 1.8940	 3.1930
 1.8950	 3.0460
 1.8960	 2.9090
 1.8970	 2.7830
 1.8980	 2.6700
 1.8990	 2.5700
 1.9000	 2.4770
 1.9010	 2.3980
 1.9020	 2.3210
 1.9030	 2.2520
 1.9040	 2.1860
 1.9050	 2.1250
 1.9060	 2.0700
 1.9070	 2.0210
 1.9080	 1.9790
 1.9090	 1.9420
 1.9100	 1.9090
 1.9110	 1.8790
 1.9120	 1.8520
 1.9130	 1.8270
 1.9140	 1.8070
 1.9150	 1.7880
 1.9160	 1.7680
 1.9170	 1.7520
 1.9180	 1.7390
 1.9190	 1.7250
 1.9200	 1.7140
 1.9210	 1.7040
 1.9220	 1.6940
 1.9230	 1.6850
 1.9240	 1.6760
 1.9250	 1.6680
 1.9260	 1.6600
 1.9270	 1.6530
 1.9280	 1.6490
 1.9290	 1.6490
 1.9300	 1.6520
 1.9310	 1.6530
 1.9320	 1.6540
 1.9330	 1.6570
 1.9340	 1.6590
 1.9350	 1.6640
 1.9360	 1.6700
 1.9370	 1.6770
 1.9380	 1.6840
 1.9390	 1.6890
 1.9400	 1.6970
 1.9410	 1.7050
 1.9420	 1.7090
 1.9430	 1.7170
 1.9440	 1.7260
 1.9450	 1.7360
 1.9460	 1.7470
 1.9470	 1.7620
 1.9480	 1.7750
 1.9490	 1.7870
 1.9500	 1.8020
 1.9510	 1.8150
 1.9520	 1.8290
 1.9530	 1.8430
 1.9540	 1.8560
 1.9550	 1.8690
 1.9560	 1.8800
 1.9570	 1.8940
 1.9580	 1.9080
 1.9590	 1.9230
 1.9600	 1.9420
 1.9610	 1.9600
 1.9620	 1.9770
 1.9630	 1.9970
 1.9640	 2.0150
 1.9650	 2.0310
 1.9660	 2.0500
 1.9670	 2.0670
 1.9680	 2.0870
 1.9690	 2.1120
 1.9700	 2.1320
 1.9710	 2.1510
 1.9720	 2.1710
 1.9730	 2.1910
 1.9740	 2.2120
 1.9750	 2.2340
 1.9760	 2.2570
 1.9770	 2.2790
 1.9780	 2.3030
 1.9790	 2.3280
 1.9800	 2.3540
 1.9810	 2.3800
 1.9820	 2.4050
 1.9830	 2.4310
 1.9840	 2.4590
 1.9850	 2.4840
 1.9860	 2.5100
 1.9870	 2.5360
 1.9880	 2.5630
 1.9890	 2.5890
 1.9900	 2.6160
 1.9910	 2.6410
 1.9920	 2.6680
 1.9930	 2.6920
 1.9940	 2.7200
 1.9950	 2.7530
 1.9960	 2.7820
 1.9970	 2.8140
 1.9980	 2.8420
 1.9990	 2.8680
 2.0000	 2.8930
 2.0010	 2.9190
 2.0020	 2.9440
 2.0030	 2.9710
 2.0040	 2.9990
 2.0050	 3.0270
 2.0060	 3.0570
 2.0070	 3.0850
 2.0080	 3.1110
 2.0090	 3.1410
 2.0100	 3.1720
 2.0110	 3.2010
 2.0120	 3.2290
 2.0130	 3.2620
 2.0140	 3.2930
 2.0150	 3.3240
 2.0160	 3.3590
 2.0170	 3.3900
 2.0180	 3.4200
 2.0190	 3.4460
 2.0200	 3.4730
 2.0210	 3.4970
 2.0220	 3.5250
 2.0230	 3.5560
 2.0240	 3.5850
 2.0250	 3.6140
 2.0260	 3.6420
 2.0270	 3.6670
 2.0280	 3.6940
 2.0290	 3.7190
 2.0300	 3.7460
 2.0310	 3.7730
 2.0320	 3.8010
 2.0330	 3.8270
 2.0340	 3.8530
 2.0350	 3.8790
 2.0360	 3.9040
 2.0370	 3.9280
 2.0380	 3.9530
 2.0390	 3.9770
 2.0400	 4.0010
 2.0410	 4.0250
 2.0420	 4.0520
 2.0430	 4.0730
 2.0440	 4.0960
 2.0450	 4.1180
 2.0460	 4.1420
 2.0470	 4.1680
 2.0480	 4.1910
 2.0490	 4.2140
 2.0500	 4.2370
 2.0510	 4.2580
 2.0520	 4.2810
 2.0530	 4.3060
 2.0540	 4.3290
 2.0550	 4.3530
 2.0560	 4.3750
 2.0570	 4.3990
 2.0580	 4.4240
 2.0590	 4.4480
 2.0600	 4.4710
 2.0610	 4.4970
 2.0620	 4.5240
 2.0630	 4.5510
 2.0640	 4.5820
 2.0650	 4.6090
 2.0660	 4.6350
 2.0670	 4.6620
 2.0680	 4.6880
 2.0690	 4.7150
 2.0700	 4.7440
 2.0710	 4.7710
 2.0720	 4.8000
 2.0730	 4.8260
 2.0740	 4.8520
 2.0750	 4.8760
 2.0760	 4.9030
 2.0770	 4.9300
 2.0780	 4.9560
 2.0790	 4.9830
 2.0800	 5.0090
 2.0810	 5.0330
 2.0820	 5.0590
 2.0830	 5.0880
 2.0840	 5.1150
 2.0850	 5.1430
 2.0860	 5.1690
 2.0870	 5.1920
 2.0880	 5.2180
 2.0890	 5.2430
 2.0900	 5.2680
 2.0910	 5.2960
 2.0920	 5.3260
 2.0930	 5.3520
 2.0940	 5.3780
 2.0950	 5.4040
 2.0960	 5.4260
 2.0970	 5.4510
 2.0980	 5.4770
 2.0990	 5.5020
 2.1000	 5.5260
 2.1010	 5.5520
 2.1020	 5.5810
 2.1030	 5.6080
 2.1040	 5.6330
 2.1050	 5.6620
 2.1060	 5.6850
 2.1070	 5.7030
 2.1080	 5.7270
 2.1090	 5.7510
 2.1100	 5.7770
 2.1110	 5.8090
 2.1120	 5.8370
 2.1130	 5.8640
 2.1140	 5.8890
 2.1150	 5.9120
 2.1160	 5.9330
 2.1170	 5.9510
 2.1180	 5.9710
 2.1190	 5.9920
 2.1200	 6.0120
 2.1210	 6.0330
 2.1220	 6.0570
 2.1230	 6.0790
 2.1240	 6.1000
 2.1250	 6.1230
 2.1260	 6.1490
 2.1270	 6.1710
 2.1280	 6.1930
 2.1290	 6.2120
 2.1300	 6.2290
 2.1310	 6.2460
 2.1320	 6.2610
 2.1330	 6.2760
 2.1340	 6.2880
 2.1350	 6.3040
 2.1360	 6.3210
 2.1370	 6.3390
 2.1380	 6.3620
 2.1390	 6.3810
 2.1400	 6.4010
 2.1410	 6.4190
 2.1420	 6.4350
 2.1430	 6.4480
 2.1440	 6.4620
 2.1450	 6.4750
 2.1460	 6.4890
 2.1470	 6.5040
 2.1480	 6.5180
 2.1490	 6.5320
 2.1500	 6.5470
 2.1510	 6.5620
 2.1520	 6.5760
 2.1530	 6.5920
 2.1540	 6.6060
 2.1550	 6.6180
 2.1560	 6.6300
 2.1570	 6.6400
 2.1580	 6.6520
 2.1590	 6.6660
 2.1600	 6.6780
 2.1610	 6.6910
 2.1620	 6.7060
 2.1630	 6.7180
 2.1640	 6.7280
 2.1650	 6.7380
 2.1660	 6.7490
 2.1670	 6.7590
 2.1680	 6.7690
 2.1690	 6.7790
 2.1700	 6.7900
 2.1710	 6.8010
 2.1720	 6.8120
 2.1730	 6.8250
 2.1740	 6.8390
 2.1750	 6.8530
 2.1760	 6.8700
 2.1770	 6.8840
 2.1780	 6.8930
 2.1790	 6.9060
 2.1800	 6.9180
 2.1810	 6.9300
 2.1820	 6.9440
 2.1830	 6.9590
 2.1840	 6.9720
 2.1850	 6.9840
 2.1860	 6.9980
 2.1870	 7.0150
 2.1880	 7.0290
 2.1890	 7.0440
 2.1900	 7.0560
 2.1910	 7.0620
 2.1920	 7.0750
 2.1930	 7.0900
 2.1940	 7.1040
 2.1950	 7.1210
 2.1960	 7.1330
 2.1970	 7.1370
 2.1980	 7.1460
 2.1990	 7.1510
 2.2000	 7.1600
 2.2010	 7.1710
 2.2020	 7.1820
 2.2030	 7.1960
 2.2040	 7.2080
 2.2050	 7.2220
 2.2060	 7.2340
 2.2070	 7.2400
 2.2080	 7.2420
 2.2090	 7.2480
 2.2100	 7.2500
 2.2110	 7.2550
 2.2120	 7.2640
 2.2130	 7.2680
 2.2140	 7.2710
 2.2150	 7.2710
 2.2160	 7.2690
 2.2170	 7.2660
 2.2180	 7.2560
 2.2190	 7.2510
 2.2200	 7.2470
 2.2210	 7.2460
 2.2220	 7.2530
 2.2230	 7.2520
 2.2240	 7.2520
 2.2250	 7.2460
 2.2260	 7.2340
 2.2270	 7.2210
 2.2280	 7.2020
 2.2290	 7.1860
 2.2300	 7.1710
 2.2310	 7.1520
 2.2320	 7.1310
 2.2330	 7.1130
 2.2340	 7.0910
 2.2350	 7.0630
 2.2360	 7.0400
 2.2370	 7.0200
 2.2380	 6.9960
 2.2390	 6.9710
 2.2400	 6.9430
 2.2410	 6.9120
 2.2420	 6.8830
 2.2430	 6.8570
 2.2440	 6.8260
 2.2450	 6.7960
 2.2460	 6.7640
 2.2470	 6.7310
 2.2480	 6.6950
 2.2490	 6.6540
 2.2500	 6.6180
 2.2510	 6.5800
 2.2520	 6.5460
 2.2530	 6.5210
 2.2540	 6.4900
 2.2550	 6.4550
 2.2560	 6.4220
 2.2570	 6.3900
 2.2580	 6.3540
 2.2590	 6.3150
 2.2600	 6.2790
 2.2610	 6.2420
 2.2620	 6.2000
 2.2630	 6.1660
 2.2640	 6.1330
 2.2650	 6.1010
 2.2660	 6.0750
 2.2670	 6.0440
 2.2680	 6.0170
 2.2690	 5.9820
 2.2700	 5.9400
 2.2710	 5.9060
 2.2720	 5.8710
 2.2730	 5.8430
 2.2740	 5.8240
 2.2750	 5.7980
 2.2760	 5.7740
 2.2770	 5.7460
 2.2780	 5.7110
 2.2790	 5.6820
 2.2800	 5.6530
 2.2810	 5.6250
 2.2820	 5.5990
 2.2830	 5.5710
 2.2840	 5.5420
 2.2850	 5.5150
 2.2860	 5.4890
 2.2870	 5.4610
 2.2880	 5.4340
 2.2890	 5.4040
 2.2900	 5.3670
 2.2910	 5.3340
 2.2920	 5.3000
 2.2930	 5.2680
 2.2940	 5.2420
 2.2950	 5.2120
 2.2960	 5.1800
 2.2970	 5.1470
 2.2980	 5.1090
 2.2990	 5.0750
 2.3000	 5.0390
 2.3010	 5.0010
 2.3020	 4.9690
 2.3030	 4.9320
 2.3040	 4.8960
 2.3050	 4.8670
 2.3060	 4.8370
 2.3070	 4.8090
 2.3080	 4.7860
 2.3090	 4.7690
 2.3100	 4.7550
 2.3110	 4.7390
 2.3120	 4.7290
 2.3130	 4.7230
 2.3140	 4.7150
 2.3150	 4.7100
 2.3160	 4.7060
 2.3170	 4.6980
 2.3180	 4.7020
 2.3190	 4.7170
 2.3200	 4.7250
 2.3210	 4.7420
 2.3220	 4.7460
 2.3230	 4.7380
 2.3240	 4.7330
 2.3250	 4.7260
 2.3260	 4.7180
 2.3270	 4.7090
 2.3280	 4.6980
 2.3290	 4.6840
 2.3300	 4.6670
 2.3310	 4.6500
 2.3320	 4.6280
 2.3330	 4.5970
 2.3340	 4.5730
 2.3350	 4.5500
 2.3360	 4.5240
 2.3370	 4.5010
 2.3380	 4.4740
 2.3390	 4.4420
 2.3400	 4.4090
 2.3410	 4.3700
 2.3420	 4.3390
 2.3430	 4.3150
 2.3440	 4.2860
 2.3450	 4.2630
 2.3460	 4.2390
 2.3470	 4.2060
 2.3480	 4.1820
 2.3490	 4.1680
 2.3500	 4.1510
 2.3510	 4.1390
 2.3520	 4.1220
 2.3530	 4.0970
 2.3540	 4.0820
 2.3550	 4.0660
 2.3560	 4.0590
 2.3570	 4.0640
 2.3580	 4.0670
 2.3590	 4.0600
 2.3600	 4.0430
 2.3610	 4.0290
 2.3620	 4.0040
 2.3630	 3.9810
 2.3640	 3.9800
 2.3650	 3.9770
 2.3660	 3.9670
 2.3670	 3.9550
 2.3680	 3.9400
 2.3690	 3.9130
 2.3700	 3.8810
 2.3710	 3.8590
 2.3720	 3.8350
 2.3730	 3.8150
 2.3740	 3.8110
 2.3750	 3.8030
 2.3760	 3.7810
 2.3770	 3.7520
 2.3780	 3.7280
 2.3790	 3.7090
 2.3800	 3.7020
 2.3810	 3.6990
 2.3820	 3.6810
 2.3830	 3.6620
 2.3840	 3.6330
 2.3850	 3.5990
 2.3860	 3.5730
 2.3870	 3.5510
 2.3880	 3.5310
 2.3890	 3.5100
 2.3900	 3.4960
 2.3910	 3.4790
 2.3920	 3.4580
 2.3930	 3.4570
 2.3940	 3.4610
 2.3950	 3.4530
 2.3960	 3.4320
 2.3970	 3.4040
 2.3980	 3.3760
 2.3990	 3.3520
 2.4000	 3.3370
 2.4010	 3.3280
 2.4020	 3.3110
 2.4030	 3.2880
 2.4040	 3.2730
 2.4050	 3.2620
 2.4060	 3.2510
 2.4070	 3.2330
 2.4080	 3.2160
 2.4090	 3.2000
 2.4100	 3.1700
 2.4110	 3.1410
 2.4120	 3.1260
 2.4130	 3.0990
 2.4140	 3.0650
 2.4150	 3.0570
 2.4160	 3.0430
 2.4170	 3.0170
 2.4180	 3.0130
 2.4190	 2.9940
 2.4200	 2.9470
 2.4210	 2.9220
 2.4220	 2.9060
 2.4230	 2.8770
 2.4240	 2.8800
 2.4250	 2.9050
 2.4260	 2.9020
 2.4270	 2.9010
 2.4280	 2.9010
 2.4290	 2.8480
 2.4300	 2.8000
 2.4310	 2.7850
 2.4320	 2.7460
 2.4330	 2.7180
 2.4340	 2.7100
 2.4350	 2.6710
 2.4360	 2.6470
 2.4370	 2.6520
 2.4380	 2.6430
 2.4390	 2.6240
 2.4400	 2.6070
 2.4410	 2.5850
 2.4420	 2.5660
 2.4430	 2.5550
 2.4440	 2.5370
 2.4450	 2.5190
 2.4460	 2.4800
 2.4470	 2.4350
 2.4480	 2.4100
 2.4490	 2.3830
 2.4500	 2.3780
 2.4510	 2.3780
 2.4520	 2.3750
 2.4530	 2.3780
 2.4540	 2.3520
 2.4550	 2.3410
 2.4560	 2.3450
 2.4570	 2.3230
 2.4580	 2.3130
 2.4590	 2.3030
 2.4600	 2.2790
 2.4610	 2.2790
 2.4620	 2.2660
 2.4630	 2.2400
 2.4640	 2.2290
 2.4650	 2.1880
 2.4660	 2.1490
 2.4670	 2.1500
 2.4680	 2.1250
 2.4690	 2.1570
 2.4700	 2.1610
 2.4710	 2.1450
 2.4720	 2.1350
 2.4730	 2.0940
 2.4740	 2.0780
 2.4750	 2.1000
 2.4760	 2.0910
 2.4770	 2.0730
 2.4780	 2.0670
 2.4790	 2.0350
 2.4800	 2.0210
 2.4810	 2.0440
 2.4820	 1.9910
 2.4830	 1.9590
 2.4840	 1.9430
 2.4850	 1.9110
 2.4860	 1.9160
 2.4870	 1.9430
 2.4880	 1.9560
 2.4890	 1.9880
 2.4900	 2.0000
 2.4910	 1.9880
 2.4920	 1.9620
 2.4930	 1.9190
 2.4940	 1.9170
 2.4950	 1.9380
 2.4960	 1.9570
 2.4970	 2.0050
 2.4980	 2.0500
 2.4990	 2.0430
 2.5000	 2.0260
