Name: Ceanothus spinosus 2
Type: vegetation
Class: Shrub
Genus: Ceanothus
Species: spinosus
Sample No.: VH129
Owner: UCSB
Wavelength Range: VSWIR
Origin: 34.4906; -119.7908; WGS84
Collection Date: 6/3/2013
Description: Samples were collected as part of the HyspIRI Airborne Campaign. 48 individual plants were sampled in three times in 2013 - spring  summer  and fall. The name of the sample includes a 1  2  or 3 which references a different individual of the species. Samples were taken to JPL and processed within 48 hours of collection. The same leaves were processed in the Nicolet and then measured using the ASD.
Measurement: Bidirectional reflectance
First Column: X
Second Column: Y
X Units: Wavelength (micrometers)
Y Units: Reflectance (percentage)
First X Value: 0.35
Last X Value: 2.5
Number of X Values: 2151
Additional Information: vegetation.shrub.ceanothus.spinosus.vswir.vh129.ucsb.asd.ancillary.txt

 0.3500	 6.1680
 0.3510	 6.2140
 0.3520	 6.1440
 0.3530	 5.9680
 0.3540	 5.8130
 0.3550	 5.9180
 0.3560	 6.0120
 0.3570	 5.9910
 0.3580	 5.8750
 0.3590	 5.9260
 0.3600	 5.9230
 0.3610	 5.8000
 0.3620	 5.7660
 0.3630	 5.8790
 0.3640	 5.9500
 0.3650	 5.8210
 0.3660	 5.6840
 0.3670	 5.7060
 0.3680	 5.8200
 0.3690	 5.8100
 0.3700	 5.8060
 0.3710	 5.8110
 0.3720	 5.8180
 0.3730	 5.8260
 0.3740	 5.8200
 0.3750	 5.7840
 0.3760	 5.7350
 0.3770	 5.8060
 0.3780	 5.8740
 0.3790	 5.8740
 0.3800	 5.8120
 0.3810	 5.7850
 0.3820	 5.7750
 0.3830	 5.7620
 0.3840	 5.7910
 0.3850	 5.7800
 0.3860	 5.7480
 0.3870	 5.7440
 0.3880	 5.7590
 0.3890	 5.7320
 0.3900	 5.6700
 0.3910	 5.6500
 0.3920	 5.6440
 0.3930	 5.6620
 0.3940	 5.6960
 0.3950	 5.6610
 0.3960	 5.6710
 0.3970	 5.6930
 0.3980	 5.6410
 0.3990	 5.6200
 0.4000	 5.6500
 0.4010	 5.6990
 0.4020	 5.6810
 0.4030	 5.6640
 0.4040	 5.6590
 0.4050	 5.6630
 0.4060	 5.6820
 0.4070	 5.6850
 0.4080	 5.6770
 0.4090	 5.6860
 0.4100	 5.6830
 0.4110	 5.6840
 0.4120	 5.6980
 0.4130	 5.7030
 0.4140	 5.7300
 0.4150	 5.7580
 0.4160	 5.7640
 0.4170	 5.7830
 0.4180	 5.7970
 0.4190	 5.8090
 0.4200	 5.8400
 0.4210	 5.8480
 0.4220	 5.8580
 0.4230	 5.8920
 0.4240	 5.9180
 0.4250	 5.9440
 0.4260	 5.9660
 0.4270	 5.9770
 0.4280	 5.9960
 0.4290	 6.0110
 0.4300	 6.0240
 0.4310	 6.0590
 0.4320	 6.0660
 0.4330	 6.0690
 0.4340	 6.0990
 0.4350	 6.1230
 0.4360	 6.1270
 0.4370	 6.1250
 0.4380	 6.1510
 0.4390	 6.1630
 0.4400	 6.1720
 0.4410	 6.1830
 0.4420	 6.1840
 0.4430	 6.1970
 0.4440	 6.2130
 0.4450	 6.2180
 0.4460	 6.2240
 0.4470	 6.2360
 0.4480	 6.2520
 0.4490	 6.2740
 0.4500	 6.2880
 0.4510	 6.2990
 0.4520	 6.3110
 0.4530	 6.3120
 0.4540	 6.3290
 0.4550	 6.3520
 0.4560	 6.3510
 0.4570	 6.3580
 0.4580	 6.3680
 0.4590	 6.3770
 0.4600	 6.3860
 0.4610	 6.3840
 0.4620	 6.3800
 0.4630	 6.3860
 0.4640	 6.3960
 0.4650	 6.4040
 0.4660	 6.4070
 0.4670	 6.4130
 0.4680	 6.3990
 0.4690	 6.3860
 0.4700	 6.3920
 0.4710	 6.4060
 0.4720	 6.4080
 0.4730	 6.4040
 0.4740	 6.4110
 0.4750	 6.4180
 0.4760	 6.4170
 0.4770	 6.4130
 0.4780	 6.4170
 0.4790	 6.4180
 0.4800	 6.4180
 0.4810	 6.4260
 0.4820	 6.4410
 0.4830	 6.4470
 0.4840	 6.4440
 0.4850	 6.4460
 0.4860	 6.4630
 0.4870	 6.4790
 0.4880	 6.4840
 0.4890	 6.5030
 0.4900	 6.5280
 0.4910	 6.5510
 0.4920	 6.5680
 0.4930	 6.5910
 0.4940	 6.6180
 0.4950	 6.6490
 0.4960	 6.6820
 0.4970	 6.7100
 0.4980	 6.7450
 0.4990	 6.7940
 0.5000	 6.8340
 0.5010	 6.8820
 0.5020	 6.9420
 0.5030	 7.0050
 0.5040	 7.0670
 0.5050	 7.1360
 0.5060	 7.2170
 0.5070	 7.2960
 0.5080	 7.3870
 0.5090	 7.4880
 0.5100	 7.5900
 0.5110	 7.7060
 0.5120	 7.8360
 0.5130	 7.9770
 0.5140	 8.1250
 0.5150	 8.2790
 0.5160	 8.4420
 0.5170	 8.6180
 0.5180	 8.8060
 0.5190	 8.9980
 0.5200	 9.1920
 0.5210	 9.3920
 0.5220	 9.5940
 0.5230	 9.8000
 0.5240	10.0080
 0.5250	10.2080
 0.5260	10.3970
 0.5270	10.5780
 0.5280	10.7560
 0.5290	10.9200
 0.5300	11.0730
 0.5310	11.2190
 0.5320	11.3560
 0.5330	11.4780
 0.5340	11.5900
 0.5350	11.6940
 0.5360	11.7830
 0.5370	11.8660
 0.5380	11.9440
 0.5390	12.0120
 0.5400	12.0790
 0.5410	12.1440
 0.5420	12.2040
 0.5430	12.2570
 0.5440	12.3090
 0.5450	12.3600
 0.5460	12.4080
 0.5470	12.4470
 0.5480	12.4830
 0.5490	12.5190
 0.5500	12.5500
 0.5510	12.5740
 0.5520	12.5890
 0.5530	12.5930
 0.5540	12.5880
 0.5550	12.5660
 0.5560	12.5300
 0.5570	12.4890
 0.5580	12.4350
 0.5590	12.3650
 0.5600	12.2840
 0.5610	12.2040
 0.5620	12.1150
 0.5630	12.0150
 0.5640	11.9100
 0.5650	11.7990
 0.5660	11.6800
 0.5670	11.5550
 0.5680	11.4270
 0.5690	11.2940
 0.5700	11.1610
 0.5710	11.0340
 0.5720	10.9080
 0.5730	10.7880
 0.5740	10.6750
 0.5750	10.5700
 0.5760	10.4780
 0.5770	10.3890
 0.5780	10.3010
 0.5790	10.2220
 0.5800	10.1440
 0.5810	10.0690
 0.5820	10.0010
 0.5830	 9.9380
 0.5840	 9.8790
 0.5850	 9.8240
 0.5860	 9.7740
 0.5870	 9.7240
 0.5880	 9.6750
 0.5890	 9.6320
 0.5900	 9.6050
 0.5910	 9.5850
 0.5920	 9.5690
 0.5930	 9.5550
 0.5940	 9.5350
 0.5950	 9.5090
 0.5960	 9.4820
 0.5970	 9.4580
 0.5980	 9.4370
 0.5990	 9.4180
 0.6000	 9.4000
 0.6010	 9.3790
 0.6020	 9.3500
 0.6030	 9.3140
 0.6040	 9.2760
 0.6050	 9.2320
 0.6060	 9.1800
 0.6070	 9.1220
 0.6080	 9.0650
 0.6090	 9.0080
 0.6100	 8.9490
 0.6110	 8.8910
 0.6120	 8.8260
 0.6130	 8.7600
 0.6140	 8.6960
 0.6150	 8.6410
 0.6160	 8.5860
 0.6170	 8.5330
 0.6180	 8.4860
 0.6190	 8.4430
 0.6200	 8.4030
 0.6210	 8.3680
 0.6220	 8.3400
 0.6230	 8.3160
 0.6240	 8.2940
 0.6250	 8.2760
 0.6260	 8.2630
 0.6270	 8.2530
 0.6280	 8.2460
 0.6290	 8.2400
 0.6300	 8.2350
 0.6310	 8.2280
 0.6320	 8.2200
 0.6330	 8.2080
 0.6340	 8.1910
 0.6350	 8.1690
 0.6360	 8.1450
 0.6370	 8.1130
 0.6380	 8.0720
 0.6390	 8.0220
 0.6400	 7.9690
 0.6410	 7.9130
 0.6420	 7.8540
 0.6430	 7.7950
 0.6440	 7.7330
 0.6450	 7.6720
 0.6460	 7.6120
 0.6470	 7.5520
 0.6480	 7.4990
 0.6490	 7.4500
 0.6500	 7.4050
 0.6510	 7.3690
 0.6520	 7.3320
 0.6530	 7.2970
 0.6540	 7.2620
 0.6550	 7.2240
 0.6560	 7.1830
 0.6570	 7.1410
 0.6580	 7.0990
 0.6590	 7.0500
 0.6600	 6.9980
 0.6610	 6.9470
 0.6620	 6.8980
 0.6630	 6.8540
 0.6640	 6.8120
 0.6650	 6.7710
 0.6660	 6.7430
 0.6670	 6.7180
 0.6680	 6.6980
 0.6690	 6.6860
 0.6700	 6.6800
 0.6710	 6.6820
 0.6720	 6.6890
 0.6730	 6.6960
 0.6740	 6.7100
 0.6750	 6.7280
 0.6760	 6.7500
 0.6770	 6.7770
 0.6780	 6.8110
 0.6790	 6.8480
 0.6800	 6.8850
 0.6810	 6.9320
 0.6820	 6.9890
 0.6830	 7.0520
 0.6840	 7.1260
 0.6850	 7.2150
 0.6860	 7.3220
 0.6870	 7.4460
 0.6880	 7.5960
 0.6890	 7.7770
 0.6900	 7.9960
 0.6910	 8.2620
 0.6920	 8.5780
 0.6930	 8.9540
 0.6940	 9.3950
 0.6950	 9.8970
 0.6960	10.4620
 0.6970	11.0910
 0.6980	11.7850
 0.6990	12.5340
 0.7000	13.3320
 0.7010	14.1740
 0.7020	15.0520
 0.7030	15.9610
 0.7040	16.8910
 0.7050	17.8330
 0.7060	18.7870
 0.7070	19.7490
 0.7080	20.7140
 0.7090	21.6860
 0.7100	22.6590
 0.7110	23.6360
 0.7120	24.6160
 0.7130	25.5920
 0.7140	26.5670
 0.7150	27.5400
 0.7160	28.5070
 0.7170	29.4690
 0.7180	30.4240
 0.7190	31.3670
 0.7200	32.2960
 0.7210	33.2170
 0.7220	34.1230
 0.7230	35.0100
 0.7240	35.8720
 0.7250	36.7090
 0.7260	37.5230
 0.7270	38.3130
 0.7280	39.0730
 0.7290	39.8030
 0.7300	40.5040
 0.7310	41.1780
 0.7320	41.8130
 0.7330	42.4250
 0.7340	43.0130
 0.7350	43.5570
 0.7360	44.0740
 0.7370	44.5700
 0.7380	45.0430
 0.7390	45.4820
 0.7400	45.8960
 0.7410	46.2850
 0.7420	46.6440
 0.7430	46.9890
 0.7440	47.3080
 0.7450	47.5980
 0.7460	47.8650
 0.7470	48.1170
 0.7480	48.3520
 0.7490	48.5670
 0.7500	48.7690
 0.7510	48.9540
 0.7520	49.1210
 0.7530	49.2700
 0.7540	49.4120
 0.7550	49.5450
 0.7560	49.6660
 0.7570	49.7750
 0.7580	49.8770
 0.7590	49.9740
 0.7600	50.0640
 0.7610	50.1410
 0.7620	50.2100
 0.7630	50.2770
 0.7640	50.3460
 0.7650	50.4050
 0.7660	50.4600
 0.7670	50.5100
 0.7680	50.5570
 0.7690	50.6040
 0.7700	50.6470
 0.7710	50.6840
 0.7720	50.7210
 0.7730	50.7600
 0.7740	50.7980
 0.7750	50.8290
 0.7760	50.8630
 0.7770	50.9000
 0.7780	50.9340
 0.7790	50.9620
 0.7800	50.9930
 0.7810	51.0270
 0.7820	51.0600
 0.7830	51.0900
 0.7840	51.1220
 0.7850	51.1470
 0.7860	51.1660
 0.7870	51.2010
 0.7880	51.2310
 0.7890	51.2560
 0.7900	51.2790
 0.7910	51.3020
 0.7920	51.3290
 0.7930	51.3550
 0.7940	51.3740
 0.7950	51.3950
 0.7960	51.4150
 0.7970	51.4340
 0.7980	51.4600
 0.7990	51.4770
 0.8000	51.4920
 0.8010	51.5130
 0.8020	51.5220
 0.8030	51.5320
 0.8040	51.5470
 0.8050	51.5620
 0.8060	51.5720
 0.8070	51.5860
 0.8080	51.6000
 0.8090	51.5990
 0.8100	51.6110
 0.8110	51.6250
 0.8120	51.6320
 0.8130	51.6400
 0.8140	51.6440
 0.8150	51.6500
 0.8160	51.6600
 0.8170	51.6620
 0.8180	51.6620
 0.8190	51.6660
 0.8200	51.6780
 0.8210	51.6800
 0.8220	51.6810
 0.8230	51.6840
 0.8240	51.6870
 0.8250	51.6880
 0.8260	51.6860
 0.8270	51.6820
 0.8280	51.6790
 0.8290	51.6780
 0.8300	51.6790
 0.8310	51.6760
 0.8320	51.6780
 0.8330	51.6810
 0.8340	51.6800
 0.8350	51.6720
 0.8360	51.6750
 0.8370	51.6840
 0.8380	51.6910
 0.8390	51.6850
 0.8400	51.6920
 0.8410	51.6970
 0.8420	51.6970
 0.8430	51.7050
 0.8440	51.7110
 0.8450	51.7170
 0.8460	51.7260
 0.8470	51.7320
 0.8480	51.7400
 0.8490	51.7490
 0.8500	51.7550
 0.8510	51.7580
 0.8520	51.7710
 0.8530	51.7870
 0.8540	51.7900
 0.8550	51.7910
 0.8560	51.7970
 0.8570	51.8070
 0.8580	51.8160
 0.8590	51.8260
 0.8600	51.8320
 0.8610	51.8380
 0.8620	51.8510
 0.8630	51.8660
 0.8640	51.8760
 0.8650	51.8770
 0.8660	51.8850
 0.8670	51.8970
 0.8680	51.9120
 0.8690	51.9300
 0.8700	51.9360
 0.8710	51.9350
 0.8720	51.9400
 0.8730	51.9620
 0.8740	51.9760
 0.8750	51.9840
 0.8760	51.9930
 0.8770	52.0090
 0.8780	52.0120
 0.8790	52.0200
 0.8800	52.0400
 0.8810	52.0560
 0.8820	52.0570
 0.8830	52.0640
 0.8840	52.0850
 0.8850	52.0920
 0.8860	52.0940
 0.8870	52.1000
 0.8880	52.1150
 0.8890	52.1260
 0.8900	52.1280
 0.8910	52.1300
 0.8920	52.1390
 0.8930	52.1410
 0.8940	52.1510
 0.8950	52.1670
 0.8960	52.1780
 0.8970	52.1830
 0.8980	52.1870
 0.8990	52.1930
 0.9000	52.1990
 0.9010	52.2080
 0.9020	52.2150
 0.9030	52.2180
 0.9040	52.2250
 0.9050	52.2330
 0.9060	52.2440
 0.9070	52.2550
 0.9080	52.2560
 0.9090	52.2660
 0.9100	52.2760
 0.9110	52.2780
 0.9120	52.2830
 0.9130	52.2870
 0.9140	52.2890
 0.9150	52.2930
 0.9160	52.3020
 0.9170	52.3070
 0.9180	52.3110
 0.9190	52.3190
 0.9200	52.3120
 0.9210	52.3030
 0.9220	52.3010
 0.9230	52.3050
 0.9240	52.2890
 0.9250	52.2720
 0.9260	52.2630
 0.9270	52.2600
 0.9280	52.2510
 0.9290	52.2280
 0.9300	52.2000
 0.9310	52.1830
 0.9320	52.1690
 0.9330	52.1460
 0.9340	52.1120
 0.9350	52.0840
 0.9360	52.0550
 0.9370	52.0280
 0.9380	52.0030
 0.9390	51.9660
 0.9400	51.9200
 0.9410	51.8770
 0.9420	51.8400
 0.9430	51.7910
 0.9440	51.7390
 0.9450	51.6930
 0.9460	51.6490
 0.9470	51.5800
 0.9480	51.5110
 0.9490	51.4450
 0.9500	51.3750
 0.9510	51.2960
 0.9520	51.2150
 0.9530	51.1280
 0.9540	51.0310
 0.9550	50.9260
 0.9560	50.8360
 0.9570	50.7500
 0.9580	50.6600
 0.9590	50.6000
 0.9600	50.5270
 0.9610	50.4530
 0.9620	50.4000
 0.9630	50.3450
 0.9640	50.3100
 0.9650	50.2730
 0.9660	50.2130
 0.9670	50.1700
 0.9680	50.1390
 0.9690	50.1170
 0.9700	50.1030
 0.9710	50.0840
 0.9720	50.0580
 0.9730	50.0340
 0.9740	50.0190
 0.9750	49.9970
 0.9760	49.9840
 0.9770	49.9850
 0.9780	49.9970
 0.9790	50.0010
 0.9800	49.9960
 0.9810	49.9870
 0.9820	49.9850
 0.9830	50.0010
 0.9840	50.0240
 0.9850	50.0400
 0.9860	50.0440
 0.9870	50.0500
 0.9880	50.0820
 0.9890	50.1190
 0.9900	50.1280
 0.9910	50.1560
 0.9920	50.1860
 0.9930	50.2170
 0.9940	50.2480
 0.9950	50.2790
 0.9960	50.3100
 0.9970	50.3410
 0.9980	50.3720
 0.9990	50.4020
 1.0000	50.4330
 1.0010	50.4640
 1.0020	50.4950
 1.0030	50.5260
 1.0040	50.5570
 1.0050	50.5880
 1.0060	50.6180
 1.0070	50.6490
 1.0080	50.6800
 1.0090	50.7110
 1.0100	50.7110
 1.0110	50.7410
 1.0120	50.7750
 1.0130	50.8120
 1.0140	50.8470
 1.0150	50.8850
 1.0160	50.9220
 1.0170	50.9540
 1.0180	50.9840
 1.0190	51.0180
 1.0200	51.0500
 1.0210	51.0780
 1.0220	51.1090
 1.0230	51.1400
 1.0240	51.1710
 1.0250	51.2000
 1.0260	51.2300
 1.0270	51.2600
 1.0280	51.2880
 1.0290	51.3170
 1.0300	51.3530
 1.0310	51.3810
 1.0320	51.4000
 1.0330	51.4240
 1.0340	51.4460
 1.0350	51.4700
 1.0360	51.5000
 1.0370	51.5250
 1.0380	51.5490
 1.0390	51.5710
 1.0400	51.5930
 1.0410	51.6170
 1.0420	51.6380
 1.0430	51.6580
 1.0440	51.6770
 1.0450	51.6960
 1.0460	51.7130
 1.0470	51.7270
 1.0480	51.7440
 1.0490	51.7620
 1.0500	51.7780
 1.0510	51.7930
 1.0520	51.8120
 1.0530	51.8240
 1.0540	51.8310
 1.0550	51.8420
 1.0560	51.8540
 1.0570	51.8660
 1.0580	51.8810
 1.0590	51.8910
 1.0600	51.8970
 1.0610	51.9060
 1.0620	51.9150
 1.0630	51.9240
 1.0640	51.9330
 1.0650	51.9420
 1.0660	51.9500
 1.0670	51.9560
 1.0680	51.9630
 1.0690	51.9710
 1.0700	51.9750
 1.0710	51.9760
 1.0720	51.9810
 1.0730	51.9880
 1.0740	51.9910
 1.0750	51.9950
 1.0760	51.9960
 1.0770	51.9920
 1.0780	51.9890
 1.0790	51.9880
 1.0800	51.9840
 1.0810	51.9760
 1.0820	51.9710
 1.0830	51.9670
 1.0840	51.9630
 1.0850	51.9630
 1.0860	51.9600
 1.0870	51.9540
 1.0880	51.9450
 1.0890	51.9370
 1.0900	51.9250
 1.0910	51.9160
 1.0920	51.9100
 1.0930	51.8990
 1.0940	51.8860
 1.0950	51.8730
 1.0960	51.8550
 1.0970	51.8390
 1.0980	51.8250
 1.0990	51.8110
 1.1000	51.7980
 1.1010	51.7820
 1.1020	51.7650
 1.1030	51.7460
 1.1040	51.7270
 1.1050	51.7080
 1.1060	51.6890
 1.1070	51.6730
 1.1080	51.6540
 1.1090	51.6340
 1.1100	51.6130
 1.1110	51.5920
 1.1120	51.5690
 1.1130	51.5470
 1.1140	51.5190
 1.1150	51.4860
 1.1160	51.4530
 1.1170	51.4170
 1.1180	51.3790
 1.1190	51.3400
 1.1200	51.3020
 1.1210	51.2560
 1.1220	51.2020
 1.1230	51.1430
 1.1240	51.0810
 1.1250	51.0130
 1.1260	50.9430
 1.1270	50.8610
 1.1280	50.7730
 1.1290	50.6760
 1.1300	50.5700
 1.1310	50.4560
 1.1320	50.3350
 1.1330	50.2040
 1.1340	50.0640
 1.1350	49.9160
 1.1360	49.7580
 1.1370	49.5920
 1.1380	49.4180
 1.1390	49.2380
 1.1400	49.0510
 1.1410	48.8610
 1.1420	48.6630
 1.1430	48.4630
 1.1440	48.2640
 1.1450	48.0600
 1.1460	47.8650
 1.1470	47.6710
 1.1480	47.4850
 1.1490	47.3000
 1.1500	47.1280
 1.1510	46.9630
 1.1520	46.8080
 1.1530	46.6620
 1.1540	46.5270
 1.1550	46.4020
 1.1560	46.2870
 1.1570	46.1850
 1.1580	46.0930
 1.1590	46.0110
 1.1600	45.9360
 1.1610	45.8700
 1.1620	45.8150
 1.1630	45.7660
 1.1640	45.7220
 1.1650	45.6830
 1.1660	45.6520
 1.1670	45.6230
 1.1680	45.6000
 1.1690	45.5770
 1.1700	45.5590
 1.1710	45.5400
 1.1720	45.5210
 1.1730	45.5030
 1.1740	45.4850
 1.1750	45.4690
 1.1760	45.4540
 1.1770	45.4370
 1.1780	45.4220
 1.1790	45.4050
 1.1800	45.3870
 1.1810	45.3680
 1.1820	45.3500
 1.1830	45.3330
 1.1840	45.3170
 1.1850	45.3030
 1.1860	45.2870
 1.1870	45.2720
 1.1880	45.2590
 1.1890	45.2450
 1.1900	45.2350
 1.1910	45.2270
 1.1920	45.2210
 1.1930	45.2190
 1.1940	45.2190
 1.1950	45.2220
 1.1960	45.2240
 1.1970	45.2300
 1.1980	45.2370
 1.1990	45.2450
 1.2000	45.2570
 1.2010	45.2700
 1.2020	45.2820
 1.2030	45.3000
 1.2040	45.3190
 1.2050	45.3400
 1.2060	45.3610
 1.2070	45.3810
 1.2080	45.4040
 1.2090	45.4310
 1.2100	45.4580
 1.2110	45.4860
 1.2120	45.5180
 1.2130	45.5490
 1.2140	45.5780
 1.2150	45.6100
 1.2160	45.6430
 1.2170	45.6760
 1.2180	45.7100
 1.2190	45.7430
 1.2200	45.7770
 1.2210	45.8110
 1.2220	45.8450
 1.2230	45.8790
 1.2240	45.9120
 1.2250	45.9440
 1.2260	45.9760
 1.2270	46.0080
 1.2280	46.0390
 1.2290	46.0700
 1.2300	46.1000
 1.2310	46.1280
 1.2320	46.1560
 1.2330	46.1820
 1.2340	46.2080
 1.2350	46.2330
 1.2360	46.2580
 1.2370	46.2830
 1.2380	46.3080
 1.2390	46.3320
 1.2400	46.3560
 1.2410	46.3810
 1.2420	46.4020
 1.2430	46.4230
 1.2440	46.4440
 1.2450	46.4620
 1.2460	46.4800
 1.2470	46.4980
 1.2480	46.5140
 1.2490	46.5310
 1.2500	46.5470
 1.2510	46.5610
 1.2520	46.5740
 1.2530	46.5830
 1.2540	46.5920
 1.2550	46.6000
 1.2560	46.6080
 1.2570	46.6170
 1.2580	46.6250
 1.2590	46.6310
 1.2600	46.6350
 1.2610	46.6390
 1.2620	46.6420
 1.2630	46.6440
 1.2640	46.6430
 1.2650	46.6410
 1.2660	46.6380
 1.2670	46.6330
 1.2680	46.6270
 1.2690	46.6210
 1.2700	46.6130
 1.2710	46.6010
 1.2720	46.5910
 1.2730	46.5790
 1.2740	46.5640
 1.2750	46.5490
 1.2760	46.5330
 1.2770	46.5150
 1.2780	46.4950
 1.2790	46.4740
 1.2800	46.4530
 1.2810	46.4280
 1.2820	46.4000
 1.2830	46.3720
 1.2840	46.3400
 1.2850	46.3040
 1.2860	46.2690
 1.2870	46.2310
 1.2880	46.1900
 1.2890	46.1470
 1.2900	46.1040
 1.2910	46.0550
 1.2920	46.0070
 1.2930	45.9550
 1.2940	45.9000
 1.2950	45.8430
 1.2960	45.7820
 1.2970	45.7190
 1.2980	45.6550
 1.2990	45.5870
 1.3000	45.5180
 1.3010	45.4420
 1.3020	45.3620
 1.3030	45.2800
 1.3040	45.1920
 1.3050	45.1020
 1.3060	45.0110
 1.3070	44.9160
 1.3080	44.8170
 1.3090	44.7140
 1.3100	44.6060
 1.3110	44.4950
 1.3120	44.3800
 1.3130	44.2610
 1.3140	44.1390
 1.3150	44.0120
 1.3160	43.8810
 1.3170	43.7470
 1.3180	43.6070
 1.3190	43.4610
 1.3200	43.3140
 1.3210	43.1610
 1.3220	43.0080
 1.3230	42.8490
 1.3240	42.6850
 1.3250	42.5210
 1.3260	42.3530
 1.3270	42.1820
 1.3280	42.0090
 1.3290	41.8300
 1.3300	41.6490
 1.3310	41.4670
 1.3320	41.2830
 1.3330	41.1000
 1.3340	40.9150
 1.3350	40.7300
 1.3360	40.5440
 1.3370	40.3550
 1.3380	40.1670
 1.3390	39.9820
 1.3400	39.7950
 1.3410	39.6110
 1.3420	39.4290
 1.3430	39.2470
 1.3440	39.0680
 1.3450	38.8910
 1.3460	38.7140
 1.3470	38.5410
 1.3480	38.3690
 1.3490	38.2000
 1.3500	38.0340
 1.3510	37.8700
 1.3520	37.7050
 1.3530	37.5420
 1.3540	37.3790
 1.3550	37.2150
 1.3560	37.0520
 1.3570	36.8880
 1.3580	36.7250
 1.3590	36.5610
 1.3600	36.3910
 1.3610	36.2180
 1.3620	36.0410
 1.3630	35.8580
 1.3640	35.6690
 1.3650	35.4750
 1.3660	35.2720
 1.3670	35.0590
 1.3680	34.8380
 1.3690	34.6040
 1.3700	34.3540
 1.3710	34.0920
 1.3720	33.8140
 1.3730	33.5170
 1.3740	33.2060
 1.3750	32.8740
 1.3760	32.5190
 1.3770	32.1430
 1.3780	31.7430
 1.3790	31.3200
 1.3800	30.8750
 1.3810	30.4050
 1.3820	29.9180
 1.3830	29.4110
 1.3840	28.8870
 1.3850	28.3440
 1.3860	27.7910
 1.3870	27.2160
 1.3880	26.6420
 1.3890	26.0570
 1.3900	25.4650
 1.3910	24.8760
 1.3920	24.2850
 1.3930	23.6920
 1.3940	23.1050
 1.3950	22.5190
 1.3960	21.9440
 1.3970	21.3840
 1.3980	20.8370
 1.3990	20.3130
 1.4000	19.8050
 1.4010	19.3130
 1.4020	18.8450
 1.4030	18.3930
 1.4040	17.9630
 1.4050	17.5570
 1.4060	17.1690
 1.4070	16.8080
 1.4080	16.4680
 1.4090	16.1470
 1.4100	15.8490
 1.4110	15.5670
 1.4120	15.3050
 1.4130	15.0630
 1.4140	14.8380
 1.4150	14.6320
 1.4160	14.4420
 1.4170	14.2660
 1.4180	14.1040
 1.4190	13.9540
 1.4200	13.8170
 1.4210	13.6920
 1.4220	13.5770
 1.4230	13.4730
 1.4240	13.3790
 1.4250	13.2920
 1.4260	13.2140
 1.4270	13.1440
 1.4280	13.0810
 1.4290	13.0240
 1.4300	12.9740
 1.4310	12.9300
 1.4320	12.8920
 1.4330	12.8590
 1.4340	12.8320
 1.4350	12.8090
 1.4360	12.7890
 1.4370	12.7730
 1.4380	12.7620
 1.4390	12.7530
 1.4400	12.7480
 1.4410	12.7460
 1.4420	12.7460
 1.4430	12.7480
 1.4440	12.7540
 1.4450	12.7610
 1.4460	12.7700
 1.4470	12.7800
 1.4480	12.7920
 1.4490	12.8050
 1.4500	12.8190
 1.4510	12.8350
 1.4520	12.8510
 1.4530	12.8690
 1.4540	12.8880
 1.4550	12.9100
 1.4560	12.9330
 1.4570	12.9580
 1.4580	12.9850
 1.4590	13.0140
 1.4600	13.0470
 1.4610	13.0830
 1.4620	13.1220
 1.4630	13.1650
 1.4640	13.2120
 1.4650	13.2620
 1.4660	13.3170
 1.4670	13.3750
 1.4680	13.4370
 1.4690	13.5030
 1.4700	13.5720
 1.4710	13.6460
 1.4720	13.7240
 1.4730	13.8050
 1.4740	13.8900
 1.4750	13.9770
 1.4760	14.0660
 1.4770	14.1580
 1.4780	14.2520
 1.4790	14.3490
 1.4800	14.4470
 1.4810	14.5460
 1.4820	14.6480
 1.4830	14.7510
 1.4840	14.8550
 1.4850	14.9600
 1.4860	15.0660
 1.4870	15.1750
 1.4880	15.2830
 1.4890	15.3910
 1.4900	15.5000
 1.4910	15.6080
 1.4920	15.7180
 1.4930	15.8290
 1.4940	15.9400
 1.4950	16.0530
 1.4960	16.1650
 1.4970	16.2760
 1.4980	16.3880
 1.4990	16.5010
 1.5000	16.6140
 1.5010	16.7270
 1.5020	16.8400
 1.5030	16.9530
 1.5040	17.0650
 1.5050	17.1750
 1.5060	17.2870
 1.5070	17.3980
 1.5080	17.5090
 1.5090	17.6200
 1.5100	17.7320
 1.5110	17.8430
 1.5120	17.9530
 1.5130	18.0610
 1.5140	18.1700
 1.5150	18.2780
 1.5160	18.3840
 1.5170	18.4930
 1.5180	18.6010
 1.5190	18.7060
 1.5200	18.8130
 1.5210	18.9170
 1.5220	19.0190
 1.5230	19.1230
 1.5240	19.2260
 1.5250	19.3290
 1.5260	19.4300
 1.5270	19.5310
 1.5280	19.6310
 1.5290	19.7280
 1.5300	19.8270
 1.5310	19.9260
 1.5320	20.0240
 1.5330	20.1200
 1.5340	20.2170
 1.5350	20.3110
 1.5360	20.4040
 1.5370	20.4970
 1.5380	20.5890
 1.5390	20.6790
 1.5400	20.7690
 1.5410	20.8600
 1.5420	20.9500
 1.5430	21.0390
 1.5440	21.1280
 1.5450	21.2150
 1.5460	21.3010
 1.5470	21.3870
 1.5480	21.4720
 1.5490	21.5570
 1.5500	21.6390
 1.5510	21.7210
 1.5520	21.8030
 1.5530	21.8840
 1.5540	21.9660
 1.5550	22.0470
 1.5560	22.1250
 1.5570	22.2040
 1.5580	22.2790
 1.5590	22.3540
 1.5600	22.4310
 1.5610	22.5040
 1.5620	22.5770
 1.5630	22.6490
 1.5640	22.7200
 1.5650	22.7920
 1.5660	22.8640
 1.5670	22.9360
 1.5680	23.0070
 1.5690	23.0780
 1.5700	23.1480
 1.5710	23.2180
 1.5720	23.2870
 1.5730	23.3560
 1.5740	23.4250
 1.5750	23.4930
 1.5760	23.5610
 1.5770	23.6280
 1.5780	23.6930
 1.5790	23.7570
 1.5800	23.8210
 1.5810	23.8860
 1.5820	23.9510
 1.5830	24.0170
 1.5840	24.0820
 1.5850	24.1450
 1.5860	24.2080
 1.5870	24.2700
 1.5880	24.3310
 1.5890	24.3930
 1.5900	24.4550
 1.5910	24.5160
 1.5920	24.5780
 1.5930	24.6390
 1.5940	24.7000
 1.5950	24.7590
 1.5960	24.8180
 1.5970	24.8760
 1.5980	24.9330
 1.5990	24.9900
 1.6000	25.0480
 1.6010	25.1040
 1.6020	25.1610
 1.6030	25.2150
 1.6040	25.2680
 1.6050	25.3230
 1.6060	25.3760
 1.6070	25.4280
 1.6080	25.4810
 1.6090	25.5320
 1.6100	25.5820
 1.6110	25.6330
 1.6120	25.6830
 1.6130	25.7320
 1.6140	25.7800
 1.6150	25.8270
 1.6160	25.8740
 1.6170	25.9200
 1.6180	25.9650
 1.6190	26.0100
 1.6200	26.0530
 1.6210	26.0960
 1.6220	26.1370
 1.6230	26.1780
 1.6240	26.2190
 1.6250	26.2580
 1.6260	26.2980
 1.6270	26.3370
 1.6280	26.3750
 1.6290	26.4120
 1.6300	26.4490
 1.6310	26.4840
 1.6320	26.5180
 1.6330	26.5500
 1.6340	26.5790
 1.6350	26.6090
 1.6360	26.6380
 1.6370	26.6640
 1.6380	26.6890
 1.6390	26.7110
 1.6400	26.7300
 1.6410	26.7490
 1.6420	26.7660
 1.6430	26.7810
 1.6440	26.7940
 1.6450	26.8030
 1.6460	26.8100
 1.6470	26.8140
 1.6480	26.8170
 1.6490	26.8170
 1.6500	26.8160
 1.6510	26.8120
 1.6520	26.8060
 1.6530	26.7990
 1.6540	26.7910
 1.6550	26.7820
 1.6560	26.7740
 1.6570	26.7670
 1.6580	26.7580
 1.6590	26.7460
 1.6600	26.7360
 1.6610	26.7260
 1.6620	26.7170
 1.6630	26.7110
 1.6640	26.7050
 1.6650	26.6990
 1.6660	26.6950
 1.6670	26.6920
 1.6680	26.6880
 1.6690	26.6830
 1.6700	26.6780
 1.6710	26.6740
 1.6720	26.6690
 1.6730	26.6630
 1.6740	26.6570
 1.6750	26.6470
 1.6760	26.6360
 1.6770	26.6230
 1.6780	26.6080
 1.6790	26.5910
 1.6800	26.5740
 1.6810	26.5550
 1.6820	26.5310
 1.6830	26.5060
 1.6840	26.4790
 1.6850	26.4480
 1.6860	26.4180
 1.6870	26.3860
 1.6880	26.3530
 1.6890	26.3170
 1.6900	26.2830
 1.6910	26.2460
 1.6920	26.2110
 1.6930	26.1770
 1.6940	26.1420
 1.6950	26.1070
 1.6960	26.0740
 1.6970	26.0430
 1.6980	26.0110
 1.6990	25.9790
 1.7000	25.9450
 1.7010	25.9070
 1.7020	25.8700
 1.7030	25.8330
 1.7040	25.7950
 1.7050	25.7560
 1.7060	25.7160
 1.7070	25.6760
 1.7080	25.6340
 1.7090	25.5920
 1.7100	25.5490
 1.7110	25.5050
 1.7120	25.4620
 1.7130	25.4190
 1.7140	25.3750
 1.7150	25.3290
 1.7160	25.2830
 1.7170	25.2360
 1.7180	25.1900
 1.7190	25.1440
 1.7200	25.0960
 1.7210	25.0460
 1.7220	24.9940
 1.7230	24.9410
 1.7240	24.8870
 1.7250	24.8350
 1.7260	24.7840
 1.7270	24.7320
 1.7280	24.6810
 1.7290	24.6300
 1.7300	24.5790
 1.7310	24.5280
 1.7320	24.4770
 1.7330	24.4270
 1.7340	24.3790
 1.7350	24.3310
 1.7360	24.2860
 1.7370	24.2390
 1.7380	24.1910
 1.7390	24.1420
 1.7400	24.0920
 1.7410	24.0420
 1.7420	23.9940
 1.7430	23.9430
 1.7440	23.8930
 1.7450	23.8410
 1.7460	23.7870
 1.7470	23.7340
 1.7480	23.6800
 1.7490	23.6270
 1.7500	23.5740
 1.7510	23.5220
 1.7520	23.4710
 1.7530	23.4200
 1.7540	23.3710
 1.7550	23.3220
 1.7560	23.2720
 1.7570	23.2230
 1.7580	23.1760
 1.7590	23.1270
 1.7600	23.0800
 1.7610	23.0320
 1.7620	22.9860
 1.7630	22.9420
 1.7640	22.8980
 1.7650	22.8550
 1.7660	22.8140
 1.7670	22.7740
 1.7680	22.7350
 1.7690	22.6980
 1.7700	22.6600
 1.7710	22.6200
 1.7720	22.5840
 1.7730	22.5500
 1.7740	22.5150
 1.7750	22.4810
 1.7760	22.4480
 1.7770	22.4130
 1.7780	22.3830
 1.7790	22.3550
 1.7800	22.3290
 1.7810	22.3070
 1.7820	22.2850
 1.7830	22.2650
 1.7840	22.2470
 1.7850	22.2280
 1.7860	22.2150
 1.7870	22.2050
 1.7880	22.1960
 1.7890	22.1880
 1.7900	22.1800
 1.7910	22.1720
 1.7920	22.1650
 1.7930	22.1610
 1.7940	22.1580
 1.7950	22.1550
 1.7960	22.1540
 1.7970	22.1550
 1.7980	22.1560
 1.7990	22.1580
 1.8000	22.1630
 1.8010	22.1670
 1.8020	22.1710
 1.8030	22.1760
 1.8040	22.1820
 1.8050	22.1880
 1.8060	22.1960
 1.8070	22.2020
 1.8080	22.2080
 1.8090	22.2110
 1.8100	22.2130
 1.8110	22.2150
 1.8120	22.2180
 1.8130	22.2240
 1.8140	22.2280
 1.8150	22.2280
 1.8160	22.2260
 1.8170	22.2230
 1.8180	22.2210
 1.8190	22.2240
 1.8200	22.2250
 1.8210	22.2250
 1.8220	22.2230
 1.8230	22.2140
 1.8240	22.2080
 1.8250	22.2040
 1.8260	22.1980
 1.8270	22.2100
 1.8280	22.2230
 1.8290	22.2350
 1.8300	22.2480
 1.8310	22.2610
 1.8320	22.2730
 1.8330	22.2860
 1.8340	22.2980
 1.8350	22.2980
 1.8360	22.2610
 1.8370	22.2180
 1.8380	22.1760
 1.8390	22.1270
 1.8400	22.0710
 1.8410	22.0100
 1.8420	21.9460
 1.8430	21.8740
 1.8440	21.7970
 1.8450	21.7120
 1.8460	21.6220
 1.8470	21.5250
 1.8480	21.4180
 1.8490	21.3040
 1.8500	21.1790
 1.8510	21.0440
 1.8520	20.8970
 1.8530	20.7390
 1.8540	20.5700
 1.8550	20.3870
 1.8560	20.1950
 1.8570	19.9920
 1.8580	19.7750
 1.8590	19.5470
 1.8600	19.3100
 1.8610	19.0600
 1.8620	18.7910
 1.8630	18.5120
 1.8640	18.2190
 1.8650	17.9080
 1.8660	17.5840
 1.8670	17.2410
 1.8680	16.8830
 1.8690	16.5100
 1.8700	16.1230
 1.8710	15.7200
 1.8720	15.3110
 1.8730	14.8920
 1.8740	14.4640
 1.8750	14.0350
 1.8760	13.5990
 1.8770	13.1620
 1.8780	12.7270
 1.8790	12.2920
 1.8800	11.8670
 1.8810	11.4490
 1.8820	11.0350
 1.8830	10.6230
 1.8840	10.2190
 1.8850	 9.8190
 1.8860	 9.4320
 1.8870	 9.0620
 1.8880	 8.7080
 1.8890	 8.3740
 1.8900	 8.0570
 1.8910	 7.7570
 1.8920	 7.4710
 1.8930	 7.2090
 1.8940	 6.9620
 1.8950	 6.7350
 1.8960	 6.5300
 1.8970	 6.3410
 1.8980	 6.1710
 1.8990	 6.0180
 1.9000	 5.8770
 1.9010	 5.7530
 1.9020	 5.6370
 1.9030	 5.5350
 1.9040	 5.4420
 1.9050	 5.3620
 1.9060	 5.2930
 1.9070	 5.2320
 1.9080	 5.1780
 1.9090	 5.1280
 1.9100	 5.0850
 1.9110	 5.0470
 1.9120	 5.0180
 1.9130	 4.9900
 1.9140	 4.9660
 1.9150	 4.9460
 1.9160	 4.9260
 1.9170	 4.9080
 1.9180	 4.8940
 1.9190	 4.8830
 1.9200	 4.8740
 1.9210	 4.8680
 1.9220	 4.8630
 1.9230	 4.8610
 1.9240	 4.8600
 1.9250	 4.8580
 1.9260	 4.8590
 1.9270	 4.8620
 1.9280	 4.8630
 1.9290	 4.8630
 1.9300	 4.8650
 1.9310	 4.8690
 1.9320	 4.8740
 1.9330	 4.8800
 1.9340	 4.8880
 1.9350	 4.8970
 1.9360	 4.9060
 1.9370	 4.9170
 1.9380	 4.9310
 1.9390	 4.9440
 1.9400	 4.9560
 1.9410	 4.9670
 1.9420	 4.9790
 1.9430	 4.9940
 1.9440	 5.0080
 1.9450	 5.0250
 1.9460	 5.0410
 1.9470	 5.0560
 1.9480	 5.0730
 1.9490	 5.0920
 1.9500	 5.1110
 1.9510	 5.1310
 1.9520	 5.1540
 1.9530	 5.1750
 1.9540	 5.1950
 1.9550	 5.2170
 1.9560	 5.2360
 1.9570	 5.2590
 1.9580	 5.2850
 1.9590	 5.3100
 1.9600	 5.3360
 1.9610	 5.3620
 1.9620	 5.3880
 1.9630	 5.4160
 1.9640	 5.4470
 1.9650	 5.4780
 1.9660	 5.5090
 1.9670	 5.5390
 1.9680	 5.5700
 1.9690	 5.6010
 1.9700	 5.6320
 1.9710	 5.6630
 1.9720	 5.6950
 1.9730	 5.7260
 1.9740	 5.7580
 1.9750	 5.7940
 1.9760	 5.8290
 1.9770	 5.8670
 1.9780	 5.9050
 1.9790	 5.9430
 1.9800	 5.9810
 1.9810	 6.0190
 1.9820	 6.0580
 1.9830	 6.0990
 1.9840	 6.1410
 1.9850	 6.1830
 1.9860	 6.2250
 1.9870	 6.2670
 1.9880	 6.3100
 1.9890	 6.3530
 1.9900	 6.3980
 1.9910	 6.4440
 1.9920	 6.4900
 1.9930	 6.5370
 1.9940	 6.5840
 1.9950	 6.6320
 1.9960	 6.6780
 1.9970	 6.7240
 1.9980	 6.7700
 1.9990	 6.8150
 2.0000	 6.8600
 2.0010	 6.9070
 2.0020	 6.9550
 2.0030	 7.0040
 2.0040	 7.0540
 2.0050	 7.1020
 2.0060	 7.1490
 2.0070	 7.1980
 2.0080	 7.2480
 2.0090	 7.2960
 2.0100	 7.3450
 2.0110	 7.3930
 2.0120	 7.4380
 2.0130	 7.4830
 2.0140	 7.5300
 2.0150	 7.5770
 2.0160	 7.6220
 2.0170	 7.6650
 2.0180	 7.7090
 2.0190	 7.7510
 2.0200	 7.7960
 2.0210	 7.8440
 2.0220	 7.8890
 2.0230	 7.9350
 2.0240	 7.9790
 2.0250	 8.0180
 2.0260	 8.0580
 2.0270	 8.0980
 2.0280	 8.1370
 2.0290	 8.1740
 2.0300	 8.2120
 2.0310	 8.2490
 2.0320	 8.2850
 2.0330	 8.3210
 2.0340	 8.3600
 2.0350	 8.3950
 2.0360	 8.4290
 2.0370	 8.4620
 2.0380	 8.4920
 2.0390	 8.5230
 2.0400	 8.5550
 2.0410	 8.5860
 2.0420	 8.6150
 2.0430	 8.6450
 2.0440	 8.6750
 2.0450	 8.7030
 2.0460	 8.7320
 2.0470	 8.7600
 2.0480	 8.7880
 2.0490	 8.8140
 2.0500	 8.8420
 2.0510	 8.8700
 2.0520	 8.8970
 2.0530	 8.9270
 2.0540	 8.9540
 2.0550	 8.9780
 2.0560	 9.0040
 2.0570	 9.0320
 2.0580	 9.0580
 2.0590	 9.0860
 2.0600	 9.1180
 2.0610	 9.1460
 2.0620	 9.1730
 2.0630	 9.2010
 2.0640	 9.2290
 2.0650	 9.2560
 2.0660	 9.2810
 2.0670	 9.3090
 2.0680	 9.3370
 2.0690	 9.3650
 2.0700	 9.3940
 2.0710	 9.4220
 2.0720	 9.4490
 2.0730	 9.4750
 2.0740	 9.5020
 2.0750	 9.5290
 2.0760	 9.5550
 2.0770	 9.5800
 2.0780	 9.6060
 2.0790	 9.6310
 2.0800	 9.6560
 2.0810	 9.6810
 2.0820	 9.7070
 2.0830	 9.7320
 2.0840	 9.7560
 2.0850	 9.7800
 2.0860	 9.8050
 2.0870	 9.8270
 2.0880	 9.8530
 2.0890	 9.8790
 2.0900	 9.9070
 2.0910	 9.9330
 2.0920	 9.9600
 2.0930	 9.9840
 2.0940	10.0060
 2.0950	10.0280
 2.0960	10.0480
 2.0970	10.0690
 2.0980	10.0880
 2.0990	10.1100
 2.1000	10.1340
 2.1010	10.1570
 2.1020	10.1820
 2.1030	10.2060
 2.1040	10.2280
 2.1050	10.2520
 2.1060	10.2760
 2.1070	10.2990
 2.1080	10.3210
 2.1090	10.3430
 2.1100	10.3640
 2.1110	10.3850
 2.1120	10.4060
 2.1130	10.4260
 2.1140	10.4470
 2.1150	10.4660
 2.1160	10.4870
 2.1170	10.5080
 2.1180	10.5290
 2.1190	10.5490
 2.1200	10.5690
 2.1210	10.5910
 2.1220	10.6130
 2.1230	10.6320
 2.1240	10.6510
 2.1250	10.6690
 2.1260	10.6840
 2.1270	10.7030
 2.1280	10.7230
 2.1290	10.7430
 2.1300	10.7660
 2.1310	10.7850
 2.1320	10.8040
 2.1330	10.8210
 2.1340	10.8310
 2.1350	10.8480
 2.1360	10.8660
 2.1370	10.8860
 2.1380	10.9150
 2.1390	10.9370
 2.1400	10.9590
 2.1410	10.9790
 2.1420	10.9980
 2.1430	11.0120
 2.1440	11.0310
 2.1450	11.0540
 2.1460	11.0750
 2.1470	11.0970
 2.1480	11.1190
 2.1490	11.1390
 2.1500	11.1610
 2.1510	11.1840
 2.1520	11.2070
 2.1530	11.2270
 2.1540	11.2500
 2.1550	11.2730
 2.1560	11.2970
 2.1570	11.3220
 2.1580	11.3460
 2.1590	11.3690
 2.1600	11.3880
 2.1610	11.4080
 2.1620	11.4290
 2.1630	11.4490
 2.1640	11.4710
 2.1650	11.4900
 2.1660	11.5070
 2.1670	11.5260
 2.1680	11.5450
 2.1690	11.5660
 2.1700	11.5900
 2.1710	11.6130
 2.1720	11.6380
 2.1730	11.6600
 2.1740	11.6780
 2.1750	11.6980
 2.1760	11.7140
 2.1770	11.7340
 2.1780	11.7610
 2.1790	11.7850
 2.1800	11.8110
 2.1810	11.8350
 2.1820	11.8560
 2.1830	11.8780
 2.1840	11.9020
 2.1850	11.9260
 2.1860	11.9500
 2.1870	11.9780
 2.1880	12.0020
 2.1890	12.0260
 2.1900	12.0490
 2.1910	12.0690
 2.1920	12.0920
 2.1930	12.1170
 2.1940	12.1400
 2.1950	12.1650
 2.1960	12.1880
 2.1970	12.2090
 2.1980	12.2310
 2.1990	12.2550
 2.2000	12.2780
 2.2010	12.3020
 2.2020	12.3250
 2.2030	12.3460
 2.2040	12.3660
 2.2050	12.3840
 2.2060	12.4040
 2.2070	12.4220
 2.2080	12.4370
 2.2090	12.4550
 2.2100	12.4720
 2.2110	12.4870
 2.2120	12.5030
 2.2130	12.5170
 2.2140	12.5290
 2.2150	12.5400
 2.2160	12.5520
 2.2170	12.5610
 2.2180	12.5670
 2.2190	12.5720
 2.2200	12.5750
 2.2210	12.5790
 2.2220	12.5840
 2.2230	12.5850
 2.2240	12.5840
 2.2250	12.5820
 2.2260	12.5790
 2.2270	12.5730
 2.2280	12.5670
 2.2290	12.5590
 2.2300	12.5490
 2.2310	12.5360
 2.2320	12.5200
 2.2330	12.5010
 2.2340	12.4780
 2.2350	12.4510
 2.2360	12.4240
 2.2370	12.3960
 2.2380	12.3670
 2.2390	12.3370
 2.2400	12.3050
 2.2410	12.2720
 2.2420	12.2330
 2.2430	12.1910
 2.2440	12.1480
 2.2450	12.1000
 2.2460	12.0560
 2.2470	12.0150
 2.2480	11.9710
 2.2490	11.9260
 2.2500	11.8780
 2.2510	11.8240
 2.2520	11.7730
 2.2530	11.7190
 2.2540	11.6680
 2.2550	11.6220
 2.2560	11.5700
 2.2570	11.5160
 2.2580	11.4630
 2.2590	11.4060
 2.2600	11.3530
 2.2610	11.3040
 2.2620	11.2560
 2.2630	11.2080
 2.2640	11.1630
 2.2650	11.1160
 2.2660	11.0680
 2.2670	11.0230
 2.2680	10.9770
 2.2690	10.9350
 2.2700	10.8950
 2.2710	10.8570
 2.2720	10.8200
 2.2730	10.7820
 2.2740	10.7460
 2.2750	10.7090
 2.2760	10.6730
 2.2770	10.6370
 2.2780	10.6040
 2.2790	10.5700
 2.2800	10.5340
 2.2810	10.5020
 2.2820	10.4730
 2.2830	10.4410
 2.2840	10.4090
 2.2850	10.3790
 2.2860	10.3460
 2.2870	10.3140
 2.2880	10.2840
 2.2890	10.2530
 2.2900	10.2200
 2.2910	10.1880
 2.2920	10.1560
 2.2930	10.1230
 2.2940	10.0860
 2.2950	10.0520
 2.2960	10.0200
 2.2970	 9.9860
 2.2980	 9.9520
 2.2990	 9.9210
 2.3000	 9.8850
 2.3010	 9.8490
 2.3020	 9.8170
 2.3030	 9.7860
 2.3040	 9.7560
 2.3050	 9.7220
 2.3060	 9.6870
 2.3070	 9.6550
 2.3080	 9.6240
 2.3090	 9.6000
 2.3100	 9.5810
 2.3110	 9.5620
 2.3120	 9.5410
 2.3130	 9.5230
 2.3140	 9.4990
 2.3150	 9.4710
 2.3160	 9.4460
 2.3170	 9.4210
 2.3180	 9.3960
 2.3190	 9.3740
 2.3200	 9.3500
 2.3210	 9.3240
 2.3220	 9.3020
 2.3230	 9.2840
 2.3240	 9.2620
 2.3250	 9.2420
 2.3260	 9.2170
 2.3270	 9.1900
 2.3280	 9.1580
 2.3290	 9.1210
 2.3300	 9.0870
 2.3310	 9.0460
 2.3320	 9.0130
 2.3330	 8.9860
 2.3340	 8.9580
 2.3350	 8.9320
 2.3360	 8.9060
 2.3370	 8.8850
 2.3380	 8.8560
 2.3390	 8.8260
 2.3400	 8.7940
 2.3410	 8.7540
 2.3420	 8.7170
 2.3430	 8.6800
 2.3440	 8.6490
 2.3450	 8.6220
 2.3460	 8.5950
 2.3470	 8.5720
 2.3480	 8.5480
 2.3490	 8.5220
 2.3500	 8.4960
 2.3510	 8.4700
 2.3520	 8.4430
 2.3530	 8.4120
 2.3540	 8.3830
 2.3550	 8.3520
 2.3560	 8.3160
 2.3570	 8.2820
 2.3580	 8.2560
 2.3590	 8.2410
 2.3600	 8.2220
 2.3610	 8.1970
 2.3620	 8.1740
 2.3630	 8.1470
 2.3640	 8.1170
 2.3650	 8.0920
 2.3660	 8.0590
 2.3670	 8.0250
 2.3680	 8.0000
 2.3690	 7.9800
 2.3700	 7.9630
 2.3710	 7.9440
 2.3720	 7.9160
 2.3730	 7.8820
 2.3740	 7.8470
 2.3750	 7.8200
 2.3760	 7.7920
 2.3770	 7.7660
 2.3780	 7.7470
 2.3790	 7.7110
 2.3800	 7.6800
 2.3810	 7.6550
 2.3820	 7.6210
 2.3830	 7.5890
 2.3840	 7.5560
 2.3850	 7.5230
 2.3860	 7.4890
 2.3870	 7.4560
 2.3880	 7.4380
 2.3890	 7.4110
 2.3900	 7.3770
 2.3910	 7.3480
 2.3920	 7.3060
 2.3930	 7.2680
 2.3940	 7.2420
 2.3950	 7.2160
 2.3960	 7.1850
 2.3970	 7.1510
 2.3980	 7.1180
 2.3990	 7.0850
 2.4000	 7.0570
 2.4010	 7.0330
 2.4020	 7.0020
 2.4030	 6.9610
 2.4040	 6.9200
 2.4050	 6.8780
 2.4060	 6.8380
 2.4070	 6.8200
 2.4080	 6.8030
 2.4090	 6.7810
 2.4100	 6.7600
 2.4110	 6.7210
 2.4120	 6.6770
 2.4130	 6.6440
 2.4140	 6.6130
 2.4150	 6.5820
 2.4160	 6.5530
 2.4170	 6.5310
 2.4180	 6.5100
 2.4190	 6.4780
 2.4200	 6.4670
 2.4210	 6.4460
 2.4220	 6.4000
 2.4230	 6.3710
 2.4240	 6.3340
 2.4250	 6.2870
 2.4260	 6.2570
 2.4270	 6.2310
 2.4280	 6.1970
 2.4290	 6.1620
 2.4300	 6.1400
 2.4310	 6.1180
 2.4320	 6.0860
 2.4330	 6.0630
 2.4340	 6.0360
 2.4350	 6.0090
 2.4360	 6.0000
 2.4370	 5.9790
 2.4380	 5.9470
 2.4390	 5.9230
 2.4400	 5.8780
 2.4410	 5.8490
 2.4420	 5.8360
 2.4430	 5.8080
 2.4440	 5.7910
 2.4450	 5.7700
 2.4460	 5.7290
 2.4470	 5.6870
 2.4480	 5.6520
 2.4490	 5.6230
 2.4500	 5.5950
 2.4510	 5.5780
 2.4520	 5.5520
 2.4530	 5.5200
 2.4540	 5.4970
 2.4550	 5.4650
 2.4560	 5.4320
 2.4570	 5.4180
 2.4580	 5.3860
 2.4590	 5.3530
 2.4600	 5.3360
 2.4610	 5.3050
 2.4620	 5.2840
 2.4630	 5.2850
 2.4640	 5.2930
 2.4650	 5.2800
 2.4660	 5.2730
 2.4670	 5.2640
 2.4680	 5.2200
 2.4690	 5.2060
 2.4700	 5.1840
 2.4710	 5.1420
 2.4720	 5.1300
 2.4730	 5.1350
 2.4740	 5.1300
 2.4750	 5.1540
 2.4760	 5.1500
 2.4770	 5.1070
 2.4780	 5.1010
 2.4790	 5.1070
 2.4800	 5.0930
 2.4810	 5.1000
 2.4820	 5.0640
 2.4830	 5.0280
 2.4840	 5.0300
 2.4850	 5.0160
 2.4860	 5.0060
 2.4870	 5.0130
 2.4880	 4.9990
 2.4890	 4.9820
 2.4900	 4.9830
 2.4910	 4.9740
 2.4920	 4.9730
 2.4930	 4.9990
 2.4940	 5.0270
 2.4950	 5.0390
 2.4960	 5.0370
 2.4970	 5.0290
 2.4980	 5.0200
 2.4990	 5.0040
 2.5000	 4.9820
