Name: Quercus robur
Type: vegetation
Class: Tree
Genus: Quercus
Species: robur
Sample No.: JPL110
Owner: JPL
Wavelength Range: VSWIR
Origin: 34.12873; -118.11324;; WGS84
Collection Date: 9/7/2016
Description: Samples were collected at the Huntington Garden in San Marino California as part of a JPL Subcontract studying HyTES imagery. Samples were taken to JPL and processed within 48 hours of collection. The same leaves were processed in the Nicolet and then measured using the ASD.
Measurement: Bidirectional reflectance
First Column: X
Second Column: Y
X Units: Wavelength (micrometer)
Y Units: Reflectance (percentage)
First X Value: 0.35
Last X Value: 2.5
Number of X Values: 2151
Additional Information: vegetation.tree.quercus.robur.vswir.jpl110.jpl.asd.ancillary.txt

 0.3500	 4.8090
 0.3510	 4.7520
 0.3520	 4.7870
 0.3530	 4.8070
 0.3540	 4.7420
 0.3550	 4.7240
 0.3560	 4.6950
 0.3570	 4.6870
 0.3580	 4.7470
 0.3590	 4.6770
 0.3600	 4.6250
 0.3610	 4.6470
 0.3620	 4.6270
 0.3630	 4.6090
 0.3640	 4.6100
 0.3650	 4.6370
 0.3660	 4.6820
 0.3670	 4.6620
 0.3680	 4.5980
 0.3690	 4.5810
 0.3700	 4.5980
 0.3710	 4.6010
 0.3720	 4.5790
 0.3730	 4.6040
 0.3740	 4.5920
 0.3750	 4.5790
 0.3760	 4.6160
 0.3770	 4.6090
 0.3780	 4.5900
 0.3790	 4.5750
 0.3800	 4.5620
 0.3810	 4.5860
 0.3820	 4.6080
 0.3830	 4.5990
 0.3840	 4.5660
 0.3850	 4.5440
 0.3860	 4.5420
 0.3870	 4.5570
 0.3880	 4.5770
 0.3890	 4.5950
 0.3900	 4.6030
 0.3910	 4.5890
 0.3920	 4.5690
 0.3930	 4.5660
 0.3940	 4.5900
 0.3950	 4.6040
 0.3960	 4.5940
 0.3970	 4.5760
 0.3980	 4.5800
 0.3990	 4.6120
 0.4000	 4.6410
 0.4010	 4.6530
 0.4020	 4.6660
 0.4030	 4.6600
 0.4040	 4.6460
 0.4050	 4.6420
 0.4060	 4.6740
 0.4070	 4.7120
 0.4080	 4.7330
 0.4090	 4.7230
 0.4100	 4.7200
 0.4110	 4.7300
 0.4120	 4.7510
 0.4130	 4.7670
 0.4140	 4.7840
 0.4150	 4.7990
 0.4160	 4.8100
 0.4170	 4.8220
 0.4180	 4.8320
 0.4190	 4.8410
 0.4200	 4.8570
 0.4210	 4.8690
 0.4220	 4.8800
 0.4230	 4.8920
 0.4240	 4.9010
 0.4250	 4.9220
 0.4260	 4.9440
 0.4270	 4.9460
 0.4280	 4.9530
 0.4290	 4.9710
 0.4300	 4.9940
 0.4310	 4.9990
 0.4320	 5.0070
 0.4330	 5.0230
 0.4340	 5.0400
 0.4350	 5.0480
 0.4360	 5.0530
 0.4370	 5.0570
 0.4380	 5.0580
 0.4390	 5.0610
 0.4400	 5.0610
 0.4410	 5.0580
 0.4420	 5.0660
 0.4430	 5.0710
 0.4440	 5.0720
 0.4450	 5.0700
 0.4460	 5.0790
 0.4470	 5.0850
 0.4480	 5.0840
 0.4490	 5.0950
 0.4500	 5.1040
 0.4510	 5.1090
 0.4520	 5.1110
 0.4530	 5.1170
 0.4540	 5.1250
 0.4550	 5.1290
 0.4560	 5.1230
 0.4570	 5.1230
 0.4580	 5.1260
 0.4590	 5.1280
 0.4600	 5.1280
 0.4610	 5.1310
 0.4620	 5.1350
 0.4630	 5.1350
 0.4640	 5.1340
 0.4650	 5.1360
 0.4660	 5.1410
 0.4670	 5.1400
 0.4680	 5.1460
 0.4690	 5.1490
 0.4700	 5.1420
 0.4710	 5.1420
 0.4720	 5.1450
 0.4730	 5.1490
 0.4740	 5.1530
 0.4750	 5.1500
 0.4760	 5.1450
 0.4770	 5.1430
 0.4780	 5.1460
 0.4790	 5.1450
 0.4800	 5.1450
 0.4810	 5.1520
 0.4820	 5.1500
 0.4830	 5.1510
 0.4840	 5.1580
 0.4850	 5.1590
 0.4860	 5.1630
 0.4870	 5.1710
 0.4880	 5.1800
 0.4890	 5.1770
 0.4900	 5.1770
 0.4910	 5.1810
 0.4920	 5.1890
 0.4930	 5.1920
 0.4940	 5.1980
 0.4950	 5.2080
 0.4960	 5.2150
 0.4970	 5.2200
 0.4980	 5.2280
 0.4990	 5.2420
 0.5000	 5.2540
 0.5010	 5.2670
 0.5020	 5.2810
 0.5030	 5.2990
 0.5040	 5.3220
 0.5050	 5.3460
 0.5060	 5.3710
 0.5070	 5.4000
 0.5080	 5.4340
 0.5090	 5.4710
 0.5100	 5.5100
 0.5110	 5.5510
 0.5120	 5.5970
 0.5130	 5.6500
 0.5140	 5.7120
 0.5150	 5.7760
 0.5160	 5.8440
 0.5170	 5.9180
 0.5180	 5.9990
 0.5190	 6.0870
 0.5200	 6.1800
 0.5210	 6.2790
 0.5220	 6.3760
 0.5230	 6.4760
 0.5240	 6.5840
 0.5250	 6.6890
 0.5260	 6.7870
 0.5270	 6.8810
 0.5280	 6.9790
 0.5290	 7.0730
 0.5300	 7.1590
 0.5310	 7.2360
 0.5320	 7.3130
 0.5330	 7.3850
 0.5340	 7.4500
 0.5350	 7.5070
 0.5360	 7.5570
 0.5370	 7.6050
 0.5380	 7.6530
 0.5390	 7.7000
 0.5400	 7.7520
 0.5410	 7.8060
 0.5420	 7.8600
 0.5430	 7.9060
 0.5440	 7.9400
 0.5450	 7.9620
 0.5460	 7.9730
 0.5470	 7.9770
 0.5480	 7.9810
 0.5490	 7.9890
 0.5500	 8.0000
 0.5510	 8.0080
 0.5520	 8.0110
 0.5530	 8.0070
 0.5540	 7.9920
 0.5550	 7.9670
 0.5560	 7.9370
 0.5570	 7.9020
 0.5580	 7.8610
 0.5590	 7.8140
 0.5600	 7.7640
 0.5610	 7.7130
 0.5620	 7.6560
 0.5630	 7.5970
 0.5640	 7.5360
 0.5650	 7.4730
 0.5660	 7.4060
 0.5670	 7.3330
 0.5680	 7.2590
 0.5690	 7.1840
 0.5700	 7.1070
 0.5710	 7.0290
 0.5720	 6.9570
 0.5730	 6.8910
 0.5740	 6.8290
 0.5750	 6.7680
 0.5760	 6.7120
 0.5770	 6.6630
 0.5780	 6.6170
 0.5790	 6.5760
 0.5800	 6.5360
 0.5810	 6.4980
 0.5820	 6.4650
 0.5830	 6.4340
 0.5840	 6.4050
 0.5850	 6.3780
 0.5860	 6.3530
 0.5870	 6.3330
 0.5880	 6.3100
 0.5890	 6.2810
 0.5900	 6.2560
 0.5910	 6.2370
 0.5920	 6.2240
 0.5930	 6.2140
 0.5940	 6.1990
 0.5950	 6.1860
 0.5960	 6.1760
 0.5970	 6.1700
 0.5980	 6.1610
 0.5990	 6.1510
 0.6000	 6.1410
 0.6010	 6.1310
 0.6020	 6.1160
 0.6030	 6.0970
 0.6040	 6.0780
 0.6050	 6.0580
 0.6060	 6.0380
 0.6070	 6.0180
 0.6080	 5.9920
 0.6090	 5.9720
 0.6100	 5.9600
 0.6110	 5.9500
 0.6120	 5.9250
 0.6130	 5.8870
 0.6140	 5.8470
 0.6150	 5.8180
 0.6160	 5.7930
 0.6170	 5.7700
 0.6180	 5.7480
 0.6190	 5.7320
 0.6200	 5.7170
 0.6210	 5.7030
 0.6220	 5.6890
 0.6230	 5.6790
 0.6240	 5.6700
 0.6250	 5.6610
 0.6260	 5.6560
 0.6270	 5.6520
 0.6280	 5.6480
 0.6290	 5.6450
 0.6300	 5.6460
 0.6310	 5.6450
 0.6320	 5.6390
 0.6330	 5.6350
 0.6340	 5.6260
 0.6350	 5.6170
 0.6360	 5.6120
 0.6370	 5.6000
 0.6380	 5.5870
 0.6390	 5.5730
 0.6400	 5.5530
 0.6410	 5.5360
 0.6420	 5.5200
 0.6430	 5.5040
 0.6440	 5.4860
 0.6450	 5.4670
 0.6460	 5.4500
 0.6470	 5.4360
 0.6480	 5.4200
 0.6490	 5.4070
 0.6500	 5.3970
 0.6510	 5.3880
 0.6520	 5.3800
 0.6530	 5.3710
 0.6540	 5.3600
 0.6550	 5.3530
 0.6560	 5.3450
 0.6570	 5.3340
 0.6580	 5.3230
 0.6590	 5.3110
 0.6600	 5.2980
 0.6610	 5.2860
 0.6620	 5.2730
 0.6630	 5.2620
 0.6640	 5.2550
 0.6650	 5.2510
 0.6660	 5.2460
 0.6670	 5.2430
 0.6680	 5.2420
 0.6690	 5.2420
 0.6700	 5.2470
 0.6710	 5.2540
 0.6720	 5.2630
 0.6730	 5.2750
 0.6740	 5.2880
 0.6750	 5.3040
 0.6760	 5.3200
 0.6770	 5.3380
 0.6780	 5.3590
 0.6790	 5.3840
 0.6800	 5.4130
 0.6810	 5.4420
 0.6820	 5.4730
 0.6830	 5.5070
 0.6840	 5.5420
 0.6850	 5.5800
 0.6860	 5.6210
 0.6870	 5.6670
 0.6880	 5.7140
 0.6890	 5.7670
 0.6900	 5.8310
 0.6910	 5.9110
 0.6920	 6.0130
 0.6930	 6.1400
 0.6940	 6.3000
 0.6950	 6.4960
 0.6960	 6.7380
 0.6970	 7.0280
 0.6980	 7.3680
 0.6990	 7.7590
 0.7000	 8.2010
 0.7010	 8.6930
 0.7020	 9.2280
 0.7030	 9.8020
 0.7040	10.4110
 0.7050	11.0500
 0.7060	11.7150
 0.7070	12.4040
 0.7080	13.1120
 0.7090	13.8380
 0.7100	14.5820
 0.7110	15.3470
 0.7120	16.1290
 0.7130	16.9210
 0.7140	17.7270
 0.7150	18.5460
 0.7160	19.3740
 0.7170	20.2110
 0.7180	21.0550
 0.7190	21.9030
 0.7200	22.7510
 0.7210	23.6000
 0.7220	24.4440
 0.7230	25.2790
 0.7240	26.1030
 0.7250	26.9150
 0.7260	27.7110
 0.7270	28.4860
 0.7280	29.2400
 0.7290	29.9710
 0.7300	30.6780
 0.7310	31.3590
 0.7320	32.0110
 0.7330	32.6370
 0.7340	33.2370
 0.7350	33.8100
 0.7360	34.3540
 0.7370	34.8700
 0.7380	35.3570
 0.7390	35.8170
 0.7400	36.2510
 0.7410	36.6580
 0.7420	37.0380
 0.7430	37.3970
 0.7440	37.7300
 0.7450	38.0370
 0.7460	38.3240
 0.7470	38.5890
 0.7480	38.8350
 0.7490	39.0630
 0.7500	39.2690
 0.7510	39.4570
 0.7520	39.6290
 0.7530	39.7830
 0.7540	39.9250
 0.7550	40.0570
 0.7560	40.1790
 0.7570	40.2900
 0.7580	40.3910
 0.7590	40.4820
 0.7600	40.5640
 0.7610	40.6370
 0.7620	40.7000
 0.7630	40.7580
 0.7640	40.8130
 0.7650	40.8590
 0.7660	40.9010
 0.7670	40.9410
 0.7680	40.9780
 0.7690	41.0120
 0.7700	41.0420
 0.7710	41.0670
 0.7720	41.0890
 0.7730	41.1110
 0.7740	41.1320
 0.7750	41.1500
 0.7760	41.1680
 0.7770	41.1830
 0.7780	41.1970
 0.7790	41.2110
 0.7800	41.2260
 0.7810	41.2380
 0.7820	41.2470
 0.7830	41.2560
 0.7840	41.2670
 0.7850	41.2780
 0.7860	41.2870
 0.7870	41.2960
 0.7880	41.3040
 0.7890	41.3120
 0.7900	41.3190
 0.7910	41.3230
 0.7920	41.3270
 0.7930	41.3330
 0.7940	41.3380
 0.7950	41.3430
 0.7960	41.3470
 0.7970	41.3500
 0.7980	41.3530
 0.7990	41.3560
 0.8000	41.3600
 0.8010	41.3630
 0.8020	41.3670
 0.8030	41.3670
 0.8040	41.3650
 0.8050	41.3650
 0.8060	41.3670
 0.8070	41.3680
 0.8080	41.3690
 0.8090	41.3720
 0.8100	41.3760
 0.8110	41.3770
 0.8120	41.3730
 0.8130	41.3720
 0.8140	41.3730
 0.8150	41.3750
 0.8160	41.3740
 0.8170	41.3730
 0.8180	41.3740
 0.8190	41.3760
 0.8200	41.3760
 0.8210	41.3770
 0.8220	41.3800
 0.8230	41.3820
 0.8240	41.3800
 0.8250	41.3850
 0.8260	41.3870
 0.8270	41.3840
 0.8280	41.3860
 0.8290	41.3890
 0.8300	41.3910
 0.8310	41.3910
 0.8320	41.3890
 0.8330	41.3910
 0.8340	41.3940
 0.8350	41.3940
 0.8360	41.3970
 0.8370	41.4040
 0.8380	41.4100
 0.8390	41.4120
 0.8400	41.4150
 0.8410	41.4200
 0.8420	41.4250
 0.8430	41.4300
 0.8440	41.4340
 0.8450	41.4390
 0.8460	41.4450
 0.8470	41.4490
 0.8480	41.4530
 0.8490	41.4570
 0.8500	41.4630
 0.8510	41.4670
 0.8520	41.4740
 0.8530	41.4810
 0.8540	41.4850
 0.8550	41.4900
 0.8560	41.4950
 0.8570	41.4990
 0.8580	41.5010
 0.8590	41.5060
 0.8600	41.5120
 0.8610	41.5170
 0.8620	41.5200
 0.8630	41.5240
 0.8640	41.5280
 0.8650	41.5300
 0.8660	41.5370
 0.8670	41.5430
 0.8680	41.5480
 0.8690	41.5530
 0.8700	41.5550
 0.8710	41.5580
 0.8720	41.5630
 0.8730	41.5670
 0.8740	41.5700
 0.8750	41.5760
 0.8760	41.5840
 0.8770	41.5870
 0.8780	41.5860
 0.8790	41.5850
 0.8800	41.5880
 0.8810	41.5950
 0.8820	41.5950
 0.8830	41.5940
 0.8840	41.5970
 0.8850	41.6000
 0.8860	41.6020
 0.8870	41.6040
 0.8880	41.6060
 0.8890	41.6110
 0.8900	41.6120
 0.8910	41.6100
 0.8920	41.6090
 0.8930	41.6110
 0.8940	41.6140
 0.8950	41.6160
 0.8960	41.6110
 0.8970	41.6070
 0.8980	41.6120
 0.8990	41.6220
 0.9000	41.6160
 0.9010	41.6150
 0.9020	41.6160
 0.9030	41.6180
 0.9040	41.6170
 0.9050	41.6160
 0.9060	41.6160
 0.9070	41.6140
 0.9080	41.6170
 0.9090	41.6160
 0.9100	41.6130
 0.9110	41.6110
 0.9120	41.6140
 0.9130	41.6140
 0.9140	41.6090
 0.9150	41.6010
 0.9160	41.5960
 0.9170	41.5950
 0.9180	41.5950
 0.9190	41.5940
 0.9200	41.5910
 0.9210	41.5810
 0.9220	41.5710
 0.9230	41.5690
 0.9240	41.5630
 0.9250	41.5540
 0.9260	41.5450
 0.9270	41.5380
 0.9280	41.5260
 0.9290	41.5150
 0.9300	41.5070
 0.9310	41.4970
 0.9320	41.4800
 0.9330	41.4640
 0.9340	41.4500
 0.9350	41.4340
 0.9360	41.4260
 0.9370	41.4100
 0.9380	41.3840
 0.9390	41.3760
 0.9400	41.3550
 0.9410	41.3330
 0.9420	41.3180
 0.9430	41.2980
 0.9440	41.2690
 0.9450	41.2460
 0.9460	41.2330
 0.9470	41.2010
 0.9480	41.1660
 0.9490	41.1350
 0.9500	41.1070
 0.9510	41.0760
 0.9520	41.0350
 0.9530	40.9920
 0.9540	40.9550
 0.9550	40.9110
 0.9560	40.8680
 0.9570	40.8270
 0.9580	40.7870
 0.9590	40.7510
 0.9600	40.7230
 0.9610	40.6970
 0.9620	40.6680
 0.9630	40.6430
 0.9640	40.6180
 0.9650	40.5990
 0.9660	40.5890
 0.9670	40.5700
 0.9680	40.5620
 0.9690	40.5520
 0.9700	40.5230
 0.9710	40.5080
 0.9720	40.5100
 0.9730	40.5190
 0.9740	40.5190
 0.9750	40.4980
 0.9760	40.4850
 0.9770	40.4820
 0.9780	40.4770
 0.9790	40.4730
 0.9800	40.4690
 0.9810	40.4670
 0.9820	40.4680
 0.9830	40.4640
 0.9840	40.4700
 0.9850	40.4850
 0.9860	40.4980
 0.9870	40.4980
 0.9880	40.4900
 0.9890	40.4890
 0.9900	40.5060
 0.9910	40.5160
 0.9920	40.5210
 0.9930	40.5230
 0.9940	40.5270
 0.9950	40.5330
 0.9960	40.5390
 0.9970	40.5500
 0.9980	40.5670
 0.9990	40.5690
 1.0000	40.5770
 1.0010	40.8790
 1.0020	40.8930
 1.0030	40.9060
 1.0040	40.9190
 1.0050	40.9360
 1.0060	40.9500
 1.0070	40.9590
 1.0080	40.9720
 1.0090	40.9840
 1.0100	40.9960
 1.0110	41.0090
 1.0120	41.0230
 1.0130	41.0400
 1.0140	41.0530
 1.0150	41.0640
 1.0160	41.0810
 1.0170	41.0920
 1.0180	41.1030
 1.0190	41.1180
 1.0200	41.1290
 1.0210	41.1400
 1.0220	41.1560
 1.0230	41.1690
 1.0240	41.1850
 1.0250	41.1970
 1.0260	41.2050
 1.0270	41.2160
 1.0280	41.2300
 1.0290	41.2410
 1.0300	41.2530
 1.0310	41.2640
 1.0320	41.2710
 1.0330	41.2780
 1.0340	41.2850
 1.0350	41.2940
 1.0360	41.3040
 1.0370	41.3140
 1.0380	41.3240
 1.0390	41.3380
 1.0400	41.3480
 1.0410	41.3580
 1.0420	41.3670
 1.0430	41.3740
 1.0440	41.3820
 1.0450	41.3910
 1.0460	41.3990
 1.0470	41.4090
 1.0480	41.4160
 1.0490	41.4210
 1.0500	41.4270
 1.0510	41.4310
 1.0520	41.4340
 1.0530	41.4400
 1.0540	41.4490
 1.0550	41.4540
 1.0560	41.4600
 1.0570	41.4640
 1.0580	41.4650
 1.0590	41.4680
 1.0600	41.4700
 1.0610	41.4710
 1.0620	41.4720
 1.0630	41.4730
 1.0640	41.4760
 1.0650	41.4780
 1.0660	41.4770
 1.0670	41.4780
 1.0680	41.4790
 1.0690	41.4800
 1.0700	41.4800
 1.0710	41.4800
 1.0720	41.4800
 1.0730	41.4800
 1.0740	41.4780
 1.0750	41.4760
 1.0760	41.4720
 1.0770	41.4650
 1.0780	41.4620
 1.0790	41.4610
 1.0800	41.4590
 1.0810	41.4560
 1.0820	41.4530
 1.0830	41.4490
 1.0840	41.4450
 1.0850	41.4410
 1.0860	41.4380
 1.0870	41.4330
 1.0880	41.4280
 1.0890	41.4230
 1.0900	41.4180
 1.0910	41.4120
 1.0920	41.4040
 1.0930	41.3970
 1.0940	41.3880
 1.0950	41.3810
 1.0960	41.3740
 1.0970	41.3670
 1.0980	41.3580
 1.0990	41.3500
 1.1000	41.3440
 1.1010	41.3340
 1.1020	41.3240
 1.1030	41.3120
 1.1040	41.3000
 1.1050	41.2890
 1.1060	41.2790
 1.1070	41.2730
 1.1080	41.2640
 1.1090	41.2540
 1.1100	41.2440
 1.1110	41.2340
 1.1120	41.2240
 1.1130	41.2140
 1.1140	41.2020
 1.1150	41.1900
 1.1160	41.1760
 1.1170	41.1630
 1.1180	41.1480
 1.1190	41.1330
 1.1200	41.1140
 1.1210	41.0930
 1.1220	41.0710
 1.1230	41.0470
 1.1240	41.0210
 1.1250	40.9920
 1.1260	40.9640
 1.1270	40.9290
 1.1280	40.8900
 1.1290	40.8470
 1.1300	40.8000
 1.1310	40.7480
 1.1320	40.6940
 1.1330	40.6350
 1.1340	40.5720
 1.1350	40.5030
 1.1360	40.4300
 1.1370	40.3520
 1.1380	40.2700
 1.1390	40.1850
 1.1400	40.0940
 1.1410	40.0010
 1.1420	39.9080
 1.1430	39.8130
 1.1440	39.7190
 1.1450	39.6250
 1.1460	39.5320
 1.1470	39.4360
 1.1480	39.3450
 1.1490	39.2560
 1.1500	39.1730
 1.1510	39.0910
 1.1520	39.0160
 1.1530	38.9440
 1.1540	38.8770
 1.1550	38.8140
 1.1560	38.7570
 1.1570	38.7030
 1.1580	38.6560
 1.1590	38.6120
 1.1600	38.5720
 1.1610	38.5360
 1.1620	38.5020
 1.1630	38.4720
 1.1640	38.4450
 1.1650	38.4210
 1.1660	38.4010
 1.1670	38.3810
 1.1680	38.3640
 1.1690	38.3470
 1.1700	38.3320
 1.1710	38.3170
 1.1720	38.3040
 1.1730	38.2890
 1.1740	38.2750
 1.1750	38.2610
 1.1760	38.2460
 1.1770	38.2310
 1.1780	38.2160
 1.1790	38.2000
 1.1800	38.1860
 1.1810	38.1700
 1.1820	38.1540
 1.1830	38.1390
 1.1840	38.1230
 1.1850	38.1060
 1.1860	38.0920
 1.1870	38.0790
 1.1880	38.0660
 1.1890	38.0550
 1.1900	38.0440
 1.1910	38.0350
 1.1920	38.0270
 1.1930	38.0210
 1.1940	38.0140
 1.1950	38.0090
 1.1960	38.0040
 1.1970	38.0010
 1.1980	38.0000
 1.1990	38.0000
 1.2000	38.0010
 1.2010	38.0040
 1.2020	38.0070
 1.2030	38.0110
 1.2040	38.0180
 1.2050	38.0250
 1.2060	38.0340
 1.2070	38.0440
 1.2080	38.0540
 1.2090	38.0660
 1.2100	38.0810
 1.2110	38.0960
 1.2120	38.1110
 1.2130	38.1260
 1.2140	38.1410
 1.2150	38.1590
 1.2160	38.1760
 1.2170	38.1970
 1.2180	38.2180
 1.2190	38.2380
 1.2200	38.2600
 1.2210	38.2820
 1.2220	38.3050
 1.2230	38.3290
 1.2240	38.3510
 1.2250	38.3720
 1.2260	38.3920
 1.2270	38.4130
 1.2280	38.4340
 1.2290	38.4540
 1.2300	38.4750
 1.2310	38.4950
 1.2320	38.5140
 1.2330	38.5330
 1.2340	38.5500
 1.2350	38.5650
 1.2360	38.5800
 1.2370	38.5950
 1.2380	38.6100
 1.2390	38.6260
 1.2400	38.6400
 1.2410	38.6540
 1.2420	38.6670
 1.2430	38.6770
 1.2440	38.6890
 1.2450	38.7000
 1.2460	38.7110
 1.2470	38.7220
 1.2480	38.7310
 1.2490	38.7390
 1.2500	38.7480
 1.2510	38.7590
 1.2520	38.7680
 1.2530	38.7770
 1.2540	38.7840
 1.2550	38.7900
 1.2560	38.7950
 1.2570	38.8000
 1.2580	38.8060
 1.2590	38.8110
 1.2600	38.8130
 1.2610	38.8150
 1.2620	38.8160
 1.2630	38.8150
 1.2640	38.8150
 1.2650	38.8130
 1.2660	38.8100
 1.2670	38.8070
 1.2680	38.8050
 1.2690	38.8020
 1.2700	38.7980
 1.2710	38.7950
 1.2720	38.7900
 1.2730	38.7830
 1.2740	38.7770
 1.2750	38.7690
 1.2760	38.7610
 1.2770	38.7540
 1.2780	38.7460
 1.2790	38.7370
 1.2800	38.7280
 1.2810	38.7170
 1.2820	38.7050
 1.2830	38.6920
 1.2840	38.6790
 1.2850	38.6630
 1.2860	38.6450
 1.2870	38.6270
 1.2880	38.6090
 1.2890	38.5880
 1.2900	38.5650
 1.2910	38.5420
 1.2920	38.5170
 1.2930	38.4900
 1.2940	38.4620
 1.2950	38.4330
 1.2960	38.4010
 1.2970	38.3690
 1.2980	38.3350
 1.2990	38.2970
 1.3000	38.2580
 1.3010	38.2160
 1.3020	38.1720
 1.3030	38.1290
 1.3040	38.0850
 1.3050	38.0400
 1.3060	37.9930
 1.3070	37.9420
 1.3080	37.8880
 1.3090	37.8320
 1.3100	37.7750
 1.3110	37.7170
 1.3120	37.6560
 1.3130	37.5920
 1.3140	37.5270
 1.3150	37.4600
 1.3160	37.3910
 1.3170	37.3200
 1.3180	37.2470
 1.3190	37.1710
 1.3200	37.0930
 1.3210	37.0120
 1.3220	36.9310
 1.3230	36.8500
 1.3240	36.7660
 1.3250	36.6810
 1.3260	36.5930
 1.3270	36.5020
 1.3280	36.4100
 1.3290	36.3150
 1.3300	36.2190
 1.3310	36.1200
 1.3320	36.0210
 1.3330	35.9210
 1.3340	35.8210
 1.3350	35.7190
 1.3360	35.6180
 1.3370	35.5160
 1.3380	35.4120
 1.3390	35.3070
 1.3400	35.2020
 1.3410	35.0970
 1.3420	34.9950
 1.3430	34.8930
 1.3440	34.7900
 1.3450	34.6880
 1.3460	34.5860
 1.3470	34.4860
 1.3480	34.3860
 1.3490	34.2880
 1.3500	34.1910
 1.3510	34.0950
 1.3520	34.0000
 1.3530	33.9060
 1.3540	33.8100
 1.3550	33.7150
 1.3560	33.6190
 1.3570	33.5210
 1.3580	33.4230
 1.3590	33.3240
 1.3600	33.2220
 1.3610	33.1180
 1.3620	33.0090
 1.3630	32.8960
 1.3640	32.7770
 1.3650	32.6520
 1.3660	32.5230
 1.3670	32.3870
 1.3680	32.2430
 1.3690	32.0900
 1.3700	31.9260
 1.3710	31.7510
 1.3720	31.5660
 1.3730	31.3670
 1.3740	31.1560
 1.3750	30.9300
 1.3760	30.6870
 1.3770	30.4270
 1.3780	30.1450
 1.3790	29.8450
 1.3800	29.5260
 1.3810	29.1850
 1.3820	28.8260
 1.3830	28.4490
 1.3840	28.0520
 1.3850	27.6340
 1.3860	27.2030
 1.3870	26.7520
 1.3880	26.2940
 1.3890	25.8230
 1.3900	25.3410
 1.3910	24.8550
 1.3920	24.3620
 1.3930	23.8630
 1.3940	23.3640
 1.3950	22.8610
 1.3960	22.3610
 1.3970	21.8690
 1.3980	21.3830
 1.3990	20.9120
 1.4000	20.4510
 1.4010	20.0010
 1.4020	19.5670
 1.4030	19.1460
 1.4040	18.7410
 1.4050	18.3560
 1.4060	17.9880
 1.4070	17.6410
 1.4080	17.3120
 1.4090	17.0000
 1.4100	16.7080
 1.4110	16.4320
 1.4120	16.1730
 1.4130	15.9330
 1.4140	15.7080
 1.4150	15.5010
 1.4160	15.3090
 1.4170	15.1310
 1.4180	14.9660
 1.4190	14.8120
 1.4200	14.6700
 1.4210	14.5390
 1.4220	14.4190
 1.4230	14.3100
 1.4240	14.2100
 1.4250	14.1170
 1.4260	14.0330
 1.4270	13.9550
 1.4280	13.8860
 1.4290	13.8220
 1.4300	13.7650
 1.4310	13.7140
 1.4320	13.6680
 1.4330	13.6270
 1.4340	13.5930
 1.4350	13.5620
 1.4360	13.5360
 1.4370	13.5140
 1.4380	13.4950
 1.4390	13.4800
 1.4400	13.4680
 1.4410	13.4580
 1.4420	13.4510
 1.4430	13.4480
 1.4440	13.4480
 1.4450	13.4500
 1.4460	13.4540
 1.4470	13.4590
 1.4480	13.4650
 1.4490	13.4740
 1.4500	13.4840
 1.4510	13.4960
 1.4520	13.5090
 1.4530	13.5230
 1.4540	13.5390
 1.4550	13.5570
 1.4560	13.5770
 1.4570	13.5990
 1.4580	13.6240
 1.4590	13.6520
 1.4600	13.6840
 1.4610	13.7190
 1.4620	13.7580
 1.4630	13.8010
 1.4640	13.8470
 1.4650	13.8980
 1.4660	13.9540
 1.4670	14.0140
 1.4680	14.0790
 1.4690	14.1480
 1.4700	14.2200
 1.4710	14.2970
 1.4720	14.3770
 1.4730	14.4600
 1.4740	14.5460
 1.4750	14.6350
 1.4760	14.7260
 1.4770	14.8190
 1.4780	14.9150
 1.4790	15.0120
 1.4800	15.1100
 1.4810	15.2100
 1.4820	15.3130
 1.4830	15.4150
 1.4840	15.5210
 1.4850	15.6260
 1.4860	15.7320
 1.4870	15.8390
 1.4880	15.9450
 1.4890	16.0530
 1.4900	16.1620
 1.4910	16.2720
 1.4920	16.3830
 1.4930	16.4950
 1.4940	16.6060
 1.4950	16.7180
 1.4960	16.8300
 1.4970	16.9410
 1.4980	17.0530
 1.4990	17.1670
 1.5000	17.2790
 1.5010	17.3920
 1.5020	17.5050
 1.5030	17.6180
 1.5040	17.7320
 1.5050	17.8450
 1.5060	17.9580
 1.5070	18.0690
 1.5080	18.1810
 1.5090	18.2930
 1.5100	18.4050
 1.5110	18.5150
 1.5120	18.6260
 1.5130	18.7350
 1.5140	18.8430
 1.5150	18.9520
 1.5160	19.0590
 1.5170	19.1670
 1.5180	19.2750
 1.5190	19.3820
 1.5200	19.4890
 1.5210	19.5940
 1.5220	19.6990
 1.5230	19.8040
 1.5240	19.9070
 1.5250	20.0100
 1.5260	20.1110
 1.5270	20.2110
 1.5280	20.3110
 1.5290	20.4090
 1.5300	20.5080
 1.5310	20.6060
 1.5320	20.7020
 1.5330	20.7990
 1.5340	20.8940
 1.5350	20.9880
 1.5360	21.0820
 1.5370	21.1750
 1.5380	21.2660
 1.5390	21.3560
 1.5400	21.4460
 1.5410	21.5350
 1.5420	21.6240
 1.5430	21.7130
 1.5440	21.8010
 1.5450	21.8870
 1.5460	21.9730
 1.5470	22.0580
 1.5480	22.1420
 1.5490	22.2260
 1.5500	22.3080
 1.5510	22.3880
 1.5520	22.4690
 1.5530	22.5460
 1.5540	22.6240
 1.5550	22.7030
 1.5560	22.7800
 1.5570	22.8570
 1.5580	22.9320
 1.5590	23.0040
 1.5600	23.0770
 1.5610	23.1470
 1.5620	23.2180
 1.5630	23.2890
 1.5640	23.3580
 1.5650	23.4270
 1.5660	23.4950
 1.5670	23.5630
 1.5680	23.6300
 1.5690	23.6960
 1.5700	23.7610
 1.5710	23.8260
 1.5720	23.8890
 1.5730	23.9530
 1.5740	24.0160
 1.5750	24.0800
 1.5760	24.1440
 1.5770	24.2060
 1.5780	24.2690
 1.5790	24.3310
 1.5800	24.3920
 1.5810	24.4530
 1.5820	24.5130
 1.5830	24.5740
 1.5840	24.6350
 1.5850	24.6940
 1.5860	24.7540
 1.5870	24.8130
 1.5880	24.8720
 1.5890	24.9310
 1.5900	24.9890
 1.5910	25.0460
 1.5920	25.1020
 1.5930	25.1570
 1.5940	25.2120
 1.5950	25.2680
 1.5960	25.3220
 1.5970	25.3760
 1.5980	25.4300
 1.5990	25.4830
 1.6000	25.5360
 1.6010	25.5880
 1.6020	25.6400
 1.6030	25.6920
 1.6040	25.7420
 1.6050	25.7920
 1.6060	25.8410
 1.6070	25.8890
 1.6080	25.9370
 1.6090	25.9850
 1.6100	26.0320
 1.6110	26.0780
 1.6120	26.1240
 1.6130	26.1680
 1.6140	26.2110
 1.6150	26.2540
 1.6160	26.2970
 1.6170	26.3390
 1.6180	26.3810
 1.6190	26.4220
 1.6200	26.4600
 1.6210	26.4980
 1.6220	26.5350
 1.6230	26.5700
 1.6240	26.6060
 1.6250	26.6420
 1.6260	26.6790
 1.6270	26.7150
 1.6280	26.7510
 1.6290	26.7850
 1.6300	26.8170
 1.6310	26.8490
 1.6320	26.8790
 1.6330	26.9090
 1.6340	26.9420
 1.6350	26.9710
 1.6360	26.9990
 1.6370	27.0270
 1.6380	27.0540
 1.6390	27.0800
 1.6400	27.1050
 1.6410	27.1280
 1.6420	27.1500
 1.6430	27.1700
 1.6440	27.1880
 1.6450	27.2050
 1.6460	27.2190
 1.6470	27.2320
 1.6480	27.2430
 1.6490	27.2520
 1.6500	27.2600
 1.6510	27.2650
 1.6520	27.2680
 1.6530	27.2700
 1.6540	27.2710
 1.6550	27.2720
 1.6560	27.2710
 1.6570	27.2690
 1.6580	27.2650
 1.6590	27.2600
 1.6600	27.2520
 1.6610	27.2430
 1.6620	27.2360
 1.6630	27.2290
 1.6640	27.2210
 1.6650	27.2130
 1.6660	27.2030
 1.6670	27.1920
 1.6680	27.1820
 1.6690	27.1710
 1.6700	27.1580
 1.6710	27.1450
 1.6720	27.1300
 1.6730	27.1130
 1.6740	27.0960
 1.6750	27.0780
 1.6760	27.0570
 1.6770	27.0340
 1.6780	27.0090
 1.6790	26.9810
 1.6800	26.9500
 1.6810	26.9180
 1.6820	26.8840
 1.6830	26.8470
 1.6840	26.8080
 1.6850	26.7680
 1.6860	26.7270
 1.6870	26.6840
 1.6880	26.6410
 1.6890	26.5970
 1.6900	26.5530
 1.6910	26.5100
 1.6920	26.4670
 1.6930	26.4240
 1.6940	26.3820
 1.6950	26.3390
 1.6960	26.2970
 1.6970	26.2560
 1.6980	26.2140
 1.6990	26.1730
 1.7000	26.1310
 1.7010	26.0890
 1.7020	26.0460
 1.7030	26.0050
 1.7040	25.9620
 1.7050	25.9170
 1.7060	25.8730
 1.7070	25.8280
 1.7080	25.7830
 1.7090	25.7390
 1.7100	25.6950
 1.7110	25.6500
 1.7120	25.6060
 1.7130	25.5620
 1.7140	25.5190
 1.7150	25.4740
 1.7160	25.4300
 1.7170	25.3880
 1.7180	25.3450
 1.7190	25.3020
 1.7200	25.2570
 1.7210	25.2110
 1.7220	25.1650
 1.7230	25.1200
 1.7240	25.0760
 1.7250	25.0330
 1.7260	24.9920
 1.7270	24.9520
 1.7280	24.9140
 1.7290	24.8760
 1.7300	24.8410
 1.7310	24.8080
 1.7320	24.7800
 1.7330	24.7520
 1.7340	24.7270
 1.7350	24.7010
 1.7360	24.6770
 1.7370	24.6510
 1.7380	24.6230
 1.7390	24.5940
 1.7400	24.5630
 1.7410	24.5300
 1.7420	24.4940
 1.7430	24.4570
 1.7440	24.4170
 1.7450	24.3760
 1.7460	24.3330
 1.7470	24.2890
 1.7480	24.2440
 1.7490	24.1980
 1.7500	24.1500
 1.7510	24.1030
 1.7520	24.0550
 1.7530	24.0070
 1.7540	23.9610
 1.7550	23.9110
 1.7560	23.8630
 1.7570	23.8150
 1.7580	23.7680
 1.7590	23.7230
 1.7600	23.6780
 1.7610	23.6340
 1.7620	23.5930
 1.7630	23.5520
 1.7640	23.5150
 1.7650	23.4800
 1.7660	23.4470
 1.7670	23.4170
 1.7680	23.3880
 1.7690	23.3600
 1.7700	23.3330
 1.7710	23.3060
 1.7720	23.2800
 1.7730	23.2560
 1.7740	23.2310
 1.7750	23.2070
 1.7760	23.1840
 1.7770	23.1610
 1.7780	23.1390
 1.7790	23.1180
 1.7800	23.0990
 1.7810	23.0820
 1.7820	23.0660
 1.7830	23.0510
 1.7840	23.0380
 1.7850	23.0260
 1.7860	23.0150
 1.7870	23.0070
 1.7880	23.0010
 1.7890	22.9960
 1.7900	22.9920
 1.7910	22.9890
 1.7920	22.9860
 1.7930	22.9840
 1.7940	22.9820
 1.7950	22.9820
 1.7960	22.9850
 1.7970	22.9890
 1.7980	22.9960
 1.7990	23.0020
 1.8000	23.0070
 1.8010	23.0130
 1.8020	23.0190
 1.8030	23.0260
 1.8040	23.0340
 1.8050	23.0410
 1.8060	23.0460
 1.8070	23.0520
 1.8080	23.0570
 1.8090	23.0630
 1.8100	23.0720
 1.8110	23.0790
 1.8120	23.0860
 1.8130	23.0910
 1.8140	23.0950
 1.8150	23.0990
 1.8160	23.1020
 1.8170	23.1050
 1.8180	23.1070
 1.8190	23.1120
 1.8200	23.1140
 1.8210	23.1130
 1.8220	23.1120
 1.8230	23.1050
 1.8240	23.1010
 1.8250	23.1010
 1.8260	23.0970
 1.8270	23.0920
 1.8280	23.0840
 1.8290	23.0720
 1.8300	23.0610
 1.8310	23.0020
 1.8320	22.9870
 1.8330	22.9690
 1.8340	22.9440
 1.8350	22.9170
 1.8360	22.8890
 1.8370	22.8530
 1.8380	22.8170
 1.8390	22.7750
 1.8400	22.7310
 1.8410	22.6790
 1.8420	22.6240
 1.8430	22.5610
 1.8440	22.4910
 1.8450	22.4130
 1.8460	22.3280
 1.8470	22.2400
 1.8480	22.1430
 1.8490	22.0360
 1.8500	21.9220
 1.8510	21.8020
 1.8520	21.6700
 1.8530	21.5280
 1.8540	21.3790
 1.8550	21.2160
 1.8560	21.0440
 1.8570	20.8580
 1.8580	20.6580
 1.8590	20.4480
 1.8600	20.2260
 1.8610	19.9900
 1.8620	19.7400
 1.8630	19.4790
 1.8640	19.2010
 1.8650	18.9070
 1.8660	18.5950
 1.8670	18.2620
 1.8680	17.9120
 1.8690	17.5450
 1.8700	17.1630
 1.8710	16.7650
 1.8720	16.3590
 1.8730	15.9380
 1.8740	15.5040
 1.8750	15.0630
 1.8760	14.6090
 1.8770	14.1530
 1.8780	13.7000
 1.8790	13.2420
 1.8800	12.7910
 1.8810	12.3440
 1.8820	11.9000
 1.8830	11.4560
 1.8840	11.0230
 1.8850	10.5950
 1.8860	10.1760
 1.8870	 9.7710
 1.8880	 9.3770
 1.8890	 9.0030
 1.8900	 8.6470
 1.8910	 8.3100
 1.8920	 7.9880
 1.8930	 7.6920
 1.8940	 7.4150
 1.8950	 7.1560
 1.8960	 6.9210
 1.8970	 6.7040
 1.8980	 6.5060
 1.8990	 6.3270
 1.9000	 6.1610
 1.9010	 6.0140
 1.9020	 5.8800
 1.9030	 5.7610
 1.9040	 5.6560
 1.9050	 5.5650
 1.9060	 5.4830
 1.9070	 5.4110
 1.9080	 5.3480
 1.9090	 5.2910
 1.9100	 5.2420
 1.9110	 5.1980
 1.9120	 5.1620
 1.9130	 5.1280
 1.9140	 5.0970
 1.9150	 5.0720
 1.9160	 5.0490
 1.9170	 5.0290
 1.9180	 5.0130
 1.9190	 5.0000
 1.9200	 4.9870
 1.9210	 4.9770
 1.9220	 4.9670
 1.9230	 4.9580
 1.9240	 4.9530
 1.9250	 4.9500
 1.9260	 4.9500
 1.9270	 4.9510
 1.9280	 4.9520
 1.9290	 4.9530
 1.9300	 4.9570
 1.9310	 4.9620
 1.9320	 4.9680
 1.9330	 4.9750
 1.9340	 4.9810
 1.9350	 4.9890
 1.9360	 4.9980
 1.9370	 5.0080
 1.9380	 5.0180
 1.9390	 5.0300
 1.9400	 5.0440
 1.9410	 5.0590
 1.9420	 5.0740
 1.9430	 5.0900
 1.9440	 5.1070
 1.9450	 5.1230
 1.9460	 5.1400
 1.9470	 5.1590
 1.9480	 5.1780
 1.9490	 5.1960
 1.9500	 5.2170
 1.9510	 5.2380
 1.9520	 5.2610
 1.9530	 5.2850
 1.9540	 5.3110
 1.9550	 5.3380
 1.9560	 5.3670
 1.9570	 5.3950
 1.9580	 5.4260
 1.9590	 5.4540
 1.9600	 5.4800
 1.9610	 5.5090
 1.9620	 5.5390
 1.9630	 5.5690
 1.9640	 5.6020
 1.9650	 5.6370
 1.9660	 5.6710
 1.9670	 5.7060
 1.9680	 5.7410
 1.9690	 5.7760
 1.9700	 5.8120
 1.9710	 5.8470
 1.9720	 5.8840
 1.9730	 5.9220
 1.9740	 5.9610
 1.9750	 6.0020
 1.9760	 6.0430
 1.9770	 6.0860
 1.9780	 6.1290
 1.9790	 6.1730
 1.9800	 6.2180
 1.9810	 6.2640
 1.9820	 6.3100
 1.9830	 6.3570
 1.9840	 6.4050
 1.9850	 6.4530
 1.9860	 6.5020
 1.9870	 6.5510
 1.9880	 6.6020
 1.9890	 6.6540
 1.9900	 6.7050
 1.9910	 6.7550
 1.9920	 6.8060
 1.9930	 6.8560
 1.9940	 6.9080
 1.9950	 6.9600
 1.9960	 7.0130
 1.9970	 7.0690
 1.9980	 7.1230
 1.9990	 7.1770
 2.0000	 7.2300
 2.0010	 7.2850
 2.0020	 7.3380
 2.0030	 7.3900
 2.0040	 7.4440
 2.0050	 7.4980
 2.0060	 7.5510
 2.0070	 7.6050
 2.0080	 7.6610
 2.0090	 7.7150
 2.0100	 7.7690
 2.0110	 7.8220
 2.0120	 7.8730
 2.0130	 7.9250
 2.0140	 7.9770
 2.0150	 8.0300
 2.0160	 8.0840
 2.0170	 8.1360
 2.0180	 8.1880
 2.0190	 8.2380
 2.0200	 8.2890
 2.0210	 8.3380
 2.0220	 8.3870
 2.0230	 8.4350
 2.0240	 8.4830
 2.0250	 8.5310
 2.0260	 8.5780
 2.0270	 8.6250
 2.0280	 8.6700
 2.0290	 8.7130
 2.0300	 8.7550
 2.0310	 8.7980
 2.0320	 8.8400
 2.0330	 8.8810
 2.0340	 8.9240
 2.0350	 8.9650
 2.0360	 9.0050
 2.0370	 9.0430
 2.0380	 9.0800
 2.0390	 9.1160
 2.0400	 9.1500
 2.0410	 9.1840
 2.0420	 9.2170
 2.0430	 9.2500
 2.0440	 9.2830
 2.0450	 9.3160
 2.0460	 9.3500
 2.0470	 9.3840
 2.0480	 9.4170
 2.0490	 9.4490
 2.0500	 9.4820
 2.0510	 9.5150
 2.0520	 9.5480
 2.0530	 9.5800
 2.0540	 9.6130
 2.0550	 9.6470
 2.0560	 9.6810
 2.0570	 9.7160
 2.0580	 9.7550
 2.0590	 9.7930
 2.0600	 9.8320
 2.0610	 9.8710
 2.0620	 9.9120
 2.0630	 9.9510
 2.0640	 9.9890
 2.0650	10.0280
 2.0660	10.0670
 2.0670	10.1070
 2.0680	10.1490
 2.0690	10.1900
 2.0700	10.2320
 2.0710	10.2720
 2.0720	10.3110
 2.0730	10.3500
 2.0740	10.3900
 2.0750	10.4290
 2.0760	10.4670
 2.0770	10.5050
 2.0780	10.5430
 2.0790	10.5790
 2.0800	10.6170
 2.0810	10.6550
 2.0820	10.6930
 2.0830	10.7310
 2.0840	10.7690
 2.0850	10.8080
 2.0860	10.8450
 2.0870	10.8830
 2.0880	10.9200
 2.0890	10.9560
 2.0900	10.9920
 2.0910	11.0270
 2.0920	11.0630
 2.0930	11.0970
 2.0940	11.1290
 2.0950	11.1630
 2.0960	11.1980
 2.0970	11.2320
 2.0980	11.2670
 2.0990	11.3020
 2.1000	11.3350
 2.1010	11.3690
 2.1020	11.4040
 2.1030	11.4380
 2.1040	11.4720
 2.1050	11.5050
 2.1060	11.5380
 2.1070	11.5710
 2.1080	11.6040
 2.1090	11.6360
 2.1100	11.6680
 2.1110	11.7010
 2.1120	11.7320
 2.1130	11.7610
 2.1140	11.7910
 2.1150	11.8190
 2.1160	11.8480
 2.1170	11.8800
 2.1180	11.9090
 2.1190	11.9380
 2.1200	11.9660
 2.1210	11.9940
 2.1220	12.0200
 2.1230	12.0470
 2.1240	12.0760
 2.1250	12.1040
 2.1260	12.1320
 2.1270	12.1570
 2.1280	12.1800
 2.1290	12.2020
 2.1300	12.2220
 2.1310	12.2440
 2.1320	12.2660
 2.1330	12.2880
 2.1340	12.3120
 2.1350	12.3340
 2.1360	12.3530
 2.1370	12.3730
 2.1380	12.3930
 2.1390	12.4120
 2.1400	12.4290
 2.1410	12.4470
 2.1420	12.4640
 2.1430	12.4770
 2.1440	12.4940
 2.1450	12.5110
 2.1460	12.5280
 2.1470	12.5450
 2.1480	12.5630
 2.1490	12.5800
 2.1500	12.5970
 2.1510	12.6160
 2.1520	12.6340
 2.1530	12.6510
 2.1540	12.6670
 2.1550	12.6820
 2.1560	12.6960
 2.1570	12.7080
 2.1580	12.7210
 2.1590	12.7340
 2.1600	12.7470
 2.1610	12.7600
 2.1620	12.7740
 2.1630	12.7880
 2.1640	12.8020
 2.1650	12.8170
 2.1660	12.8330
 2.1670	12.8490
 2.1680	12.8670
 2.1690	12.8830
 2.1700	12.8970
 2.1710	12.9110
 2.1720	12.9230
 2.1730	12.9380
 2.1740	12.9540
 2.1750	12.9730
 2.1760	12.9960
 2.1770	13.0170
 2.1780	13.0390
 2.1790	13.0610
 2.1800	13.0810
 2.1810	13.1020
 2.1820	13.1230
 2.1830	13.1440
 2.1840	13.1690
 2.1850	13.1960
 2.1860	13.2220
 2.1870	13.2520
 2.1880	13.2760
 2.1890	13.2980
 2.1900	13.3220
 2.1910	13.3450
 2.1920	13.3680
 2.1930	13.3910
 2.1940	13.4140
 2.1950	13.4360
 2.1960	13.4580
 2.1970	13.4820
 2.1980	13.5060
 2.1990	13.5310
 2.2000	13.5550
 2.2010	13.5790
 2.2020	13.6030
 2.2030	13.6240
 2.2040	13.6450
 2.2050	13.6650
 2.2060	13.6870
 2.2070	13.7070
 2.2080	13.7260
 2.2090	13.7430
 2.2100	13.7590
 2.2110	13.7730
 2.2120	13.7830
 2.2130	13.7970
 2.2140	13.8120
 2.2150	13.8250
 2.2160	13.8400
 2.2170	13.8510
 2.2180	13.8590
 2.2190	13.8660
 2.2200	13.8710
 2.2210	13.8740
 2.2220	13.8770
 2.2230	13.8760
 2.2240	13.8740
 2.2250	13.8700
 2.2260	13.8650
 2.2270	13.8580
 2.2280	13.8520
 2.2290	13.8410
 2.2300	13.8260
 2.2310	13.8060
 2.2320	13.7860
 2.2330	13.7590
 2.2340	13.7330
 2.2350	13.7060
 2.2360	13.6770
 2.2370	13.6460
 2.2380	13.6150
 2.2390	13.5820
 2.2400	13.5460
 2.2410	13.5110
 2.2420	13.4680
 2.2430	13.4190
 2.2440	13.3710
 2.2450	13.3180
 2.2460	13.2650
 2.2470	13.2130
 2.2480	13.1590
 2.2490	13.1030
 2.2500	13.0470
 2.2510	12.9920
 2.2520	12.9340
 2.2530	12.8740
 2.2540	12.8140
 2.2550	12.7520
 2.2560	12.6910
 2.2570	12.6310
 2.2580	12.5700
 2.2590	12.5080
 2.2600	12.4480
 2.2610	12.3880
 2.2620	12.3320
 2.2630	12.2740
 2.2640	12.2160
 2.2650	12.1590
 2.2660	12.1020
 2.2670	12.0500
 2.2680	12.0030
 2.2690	11.9550
 2.2700	11.9100
 2.2710	11.8630
 2.2720	11.8150
 2.2730	11.7720
 2.2740	11.7320
 2.2750	11.6910
 2.2760	11.6500
 2.2770	11.6120
 2.2780	11.5740
 2.2790	11.5380
 2.2800	11.5080
 2.2810	11.4730
 2.2820	11.4370
 2.2830	11.4000
 2.2840	11.3590
 2.2850	11.3200
 2.2860	11.2790
 2.2870	11.2410
 2.2880	11.2060
 2.2890	11.1700
 2.2900	11.1400
 2.2910	11.1030
 2.2920	11.0600
 2.2930	11.0210
 2.2940	10.9840
 2.2950	10.9420
 2.2960	10.9010
 2.2970	10.8600
 2.2980	10.8160
 2.2990	10.7680
 2.3000	10.7230
 2.3010	10.6830
 2.3020	10.6430
 2.3030	10.6040
 2.3040	10.5660
 2.3050	10.5290
 2.3060	10.4950
 2.3070	10.4590
 2.3080	10.4250
 2.3090	10.3960
 2.3100	10.3660
 2.3110	10.3370
 2.3120	10.3120
 2.3130	10.2910
 2.3140	10.2740
 2.3150	10.2610
 2.3160	10.2490
 2.3170	10.2440
 2.3180	10.2350
 2.3190	10.2270
 2.3200	10.2160
 2.3210	10.2070
 2.3220	10.1930
 2.3230	10.1750
 2.3240	10.1560
 2.3250	10.1350
 2.3260	10.1130
 2.3270	10.0910
 2.3280	10.0650
 2.3290	10.0360
 2.3300	10.0090
 2.3310	 9.9820
 2.3320	 9.9530
 2.3330	 9.9240
 2.3340	 9.8940
 2.3350	 9.8610
 2.3360	 9.8270
 2.3370	 9.7920
 2.3380	 9.7550
 2.3390	 9.7130
 2.3400	 9.6740
 2.3410	 9.6350
 2.3420	 9.5980
 2.3430	 9.5610
 2.3440	 9.5270
 2.3450	 9.4980
 2.3460	 9.4650
 2.3470	 9.4290
 2.3480	 9.3980
 2.3490	 9.3640
 2.3500	 9.3350
 2.3510	 9.3130
 2.3520	 9.2890
 2.3530	 9.2660
 2.3540	 9.2430
 2.3550	 9.2200
 2.3560	 9.2010
 2.3570	 9.1860
 2.3580	 9.1680
 2.3590	 9.1480
 2.3600	 9.1260
 2.3610	 9.1040
 2.3620	 9.0820
 2.3630	 9.0600
 2.3640	 9.0360
 2.3650	 9.0100
 2.3660	 8.9820
 2.3670	 8.9590
 2.3680	 8.9360
 2.3690	 8.9030
 2.3700	 8.8740
 2.3710	 8.8420
 2.3720	 8.8090
 2.3730	 8.7880
 2.3740	 8.7620
 2.3750	 8.7310
 2.3760	 8.7040
 2.3770	 8.6700
 2.3780	 8.6350
 2.3790	 8.6060
 2.3800	 8.5730
 2.3810	 8.5420
 2.3820	 8.5120
 2.3830	 8.4740
 2.3840	 8.4330
 2.3850	 8.3950
 2.3860	 8.3640
 2.3870	 8.3350
 2.3880	 8.3170
 2.3890	 8.2980
 2.3900	 8.2610
 2.3910	 8.2260
 2.3920	 8.1920
 2.3930	 8.1530
 2.3940	 8.1230
 2.3950	 8.1000
 2.3960	 8.0720
 2.3970	 8.0340
 2.3980	 7.9970
 2.3990	 7.9580
 2.4000	 7.9160
 2.4010	 7.8860
 2.4020	 7.8610
 2.4030	 7.8280
 2.4040	 7.7930
 2.4050	 7.7630
 2.4060	 7.7330
 2.4070	 7.7010
 2.4080	 7.6740
 2.4090	 7.6390
 2.4100	 7.5970
 2.4110	 7.5620
 2.4120	 7.5280
 2.4130	 7.4960
 2.4140	 7.4720
 2.4150	 7.4460
 2.4160	 7.4120
 2.4170	 7.3770
 2.4180	 7.3350
 2.4190	 7.2880
 2.4200	 7.2470
 2.4210	 7.2090
 2.4220	 7.1750
 2.4230	 7.1510
 2.4240	 7.1320
 2.4250	 7.1050
 2.4260	 7.0780
 2.4270	 7.0380
 2.4280	 6.9890
 2.4290	 6.9480
 2.4300	 6.8990
 2.4310	 6.8600
 2.4320	 6.8340
 2.4330	 6.8090
 2.4340	 6.7920
 2.4350	 6.7660
 2.4360	 6.7370
 2.4370	 6.7100
 2.4380	 6.6780
 2.4390	 6.6500
 2.4400	 6.6200
 2.4410	 6.5910
 2.4420	 6.5530
 2.4430	 6.5150
 2.4440	 6.4870
 2.4450	 6.4480
 2.4460	 6.4240
 2.4470	 6.4100
 2.4480	 6.3830
 2.4490	 6.3600
 2.4500	 6.3250
 2.4510	 6.2740
 2.4520	 6.2260
 2.4530	 6.1880
 2.4540	 6.1600
 2.4550	 6.1510
 2.4560	 6.1590
 2.4570	 6.1550
 2.4580	 6.1410
 2.4590	 6.1190
 2.4600	 6.0680
 2.4610	 6.0100
 2.4620	 5.9770
 2.4630	 5.9500
 2.4640	 5.9280
 2.4650	 5.9280
 2.4660	 5.9180
 2.4670	 5.8880
 2.4680	 5.8680
 2.4690	 5.8420
 2.4700	 5.8190
 2.4710	 5.8120
 2.4720	 5.7980
 2.4730	 5.7860
 2.4740	 5.7690
 2.4750	 5.7370
 2.4760	 5.7150
 2.4770	 5.6950
 2.4780	 5.6730
 2.4790	 5.6650
 2.4800	 5.6480
 2.4810	 5.6140
 2.4820	 5.6050
 2.4830	 5.6000
 2.4840	 5.6060
 2.4850	 5.6030
 2.4860	 5.5870
 2.4870	 5.5610
 2.4880	 5.5230
 2.4890	 5.5010
 2.4900	 5.4860
 2.4910	 5.4830
 2.4920	 5.5050
 2.4930	 5.5060
 2.4940	 5.5030
 2.4950	 5.5130
 2.4960	 5.5000
 2.4970	 5.4660
 2.4980	 5.4350
 2.4990	 5.3970
 2.5000	 5.4230
