Name: Abies concolor 1
Type: vegetation
Class: Tree
Genus: Abies
Species: concolor
Sample No.: VH149
Owner: UCSB
Wavelength Range: VSWIR
Origin: 37.044; -119.3035; WGS84
Collection Date: 6/8/2013
Description: Samples were collected as part of the HyspIRI Airborne Campaign. 48 individual plants were sampled in three times in 2013 - spring  summer  and fall. The name of the sample includes a 1  2  or 3 which references a different individual of the species. Samples were taken to JPL and processed within 48 hours of collection. The same leaves were processed in the Nicolet and then measured using the ASD.
Measurement: Bidirectional reflectance
First Column: X
Second Column: Y
X Units: Wavelength (micrometers)
Y Units: Reflectance (percentage)
First X Value: 0.35
Last X Value: 2.5
Number of X Values: 2151
Additional Information: vegetation.tree.abies.concolor.vswir.vh149.ucsb.asd.ancillary.txt

 0.3500	 5.1700
 0.3510	 5.0070
 0.3520	 5.0780
 0.3530	 5.2310
 0.3540	 5.2630
 0.3550	 5.1500
 0.3560	 5.0940
 0.3570	 5.0650
 0.3580	 4.9510
 0.3590	 5.1620
 0.3600	 5.2050
 0.3610	 4.9890
 0.3620	 5.0870
 0.3630	 5.0360
 0.3640	 4.8880
 0.3650	 4.8190
 0.3660	 4.9470
 0.3670	 5.0620
 0.3680	 5.0680
 0.3690	 4.9830
 0.3700	 4.9920
 0.3710	 5.0520
 0.3720	 5.0980
 0.3730	 5.0640
 0.3740	 5.0430
 0.3750	 5.0100
 0.3760	 4.9360
 0.3770	 4.9490
 0.3780	 4.9400
 0.3790	 4.9240
 0.3800	 5.0190
 0.3810	 4.9790
 0.3820	 4.9040
 0.3830	 4.8940
 0.3840	 4.9200
 0.3850	 4.9590
 0.3860	 4.9700
 0.3870	 4.9320
 0.3880	 4.9640
 0.3890	 4.9690
 0.3900	 4.9380
 0.3910	 4.9740
 0.3920	 4.9330
 0.3930	 4.9110
 0.3940	 4.9760
 0.3950	 4.9910
 0.3960	 5.0110
 0.3970	 5.0300
 0.3980	 5.0220
 0.3990	 5.0720
 0.4000	 5.0890
 0.4010	 5.0590
 0.4020	 5.0620
 0.4030	 5.0570
 0.4040	 5.0690
 0.4050	 5.1140
 0.4060	 5.1820
 0.4070	 5.2110
 0.4080	 5.2010
 0.4090	 5.1990
 0.4100	 5.2630
 0.4110	 5.3200
 0.4120	 5.3380
 0.4130	 5.4110
 0.4140	 5.4460
 0.4150	 5.4740
 0.4160	 5.5460
 0.4170	 5.5940
 0.4180	 5.6190
 0.4190	 5.6470
 0.4200	 5.7310
 0.4210	 5.8020
 0.4220	 5.8620
 0.4230	 5.9150
 0.4240	 5.9730
 0.4250	 6.0300
 0.4260	 6.0730
 0.4270	 6.0880
 0.4280	 6.1460
 0.4290	 6.2140
 0.4300	 6.2670
 0.4310	 6.3040
 0.4320	 6.3510
 0.4330	 6.3980
 0.4340	 6.4350
 0.4350	 6.4790
 0.4360	 6.5240
 0.4370	 6.5710
 0.4380	 6.6160
 0.4390	 6.6410
 0.4400	 6.6750
 0.4410	 6.7260
 0.4420	 6.7560
 0.4430	 6.7950
 0.4440	 6.8360
 0.4450	 6.8580
 0.4460	 6.8940
 0.4470	 6.9380
 0.4480	 6.9810
 0.4490	 7.0200
 0.4500	 7.0480
 0.4510	 7.0790
 0.4520	 7.1220
 0.4530	 7.1530
 0.4540	 7.1810
 0.4550	 7.2100
 0.4560	 7.2330
 0.4570	 7.2510
 0.4580	 7.2650
 0.4590	 7.2850
 0.4600	 7.2990
 0.4610	 7.3090
 0.4620	 7.3240
 0.4630	 7.3410
 0.4640	 7.3480
 0.4650	 7.3500
 0.4660	 7.3550
 0.4670	 7.3630
 0.4680	 7.3720
 0.4690	 7.3820
 0.4700	 7.3940
 0.4710	 7.3970
 0.4720	 7.4040
 0.4730	 7.4170
 0.4740	 7.4310
 0.4750	 7.4390
 0.4760	 7.4480
 0.4770	 7.4600
 0.4780	 7.4660
 0.4790	 7.4690
 0.4800	 7.4730
 0.4810	 7.4810
 0.4820	 7.5000
 0.4830	 7.5160
 0.4840	 7.5240
 0.4850	 7.5370
 0.4860	 7.5540
 0.4870	 7.5740
 0.4880	 7.6000
 0.4890	 7.6340
 0.4900	 7.6590
 0.4910	 7.6820
 0.4920	 7.7250
 0.4930	 7.7600
 0.4940	 7.7990
 0.4950	 7.8470
 0.4960	 7.9020
 0.4970	 7.9610
 0.4980	 8.0220
 0.4990	 8.0980
 0.5000	 8.1800
 0.5010	 8.2670
 0.5020	 8.3540
 0.5030	 8.4470
 0.5040	 8.5490
 0.5050	 8.6640
 0.5060	 8.7860
 0.5070	 8.9100
 0.5080	 9.0450
 0.5090	 9.1910
 0.5100	 9.3440
 0.5110	 9.5070
 0.5120	 9.6800
 0.5130	 9.8570
 0.5140	10.0490
 0.5150	10.2480
 0.5160	10.4480
 0.5170	10.6510
 0.5180	10.8570
 0.5190	11.0690
 0.5200	11.2830
 0.5210	11.5000
 0.5220	11.7040
 0.5230	11.9040
 0.5240	12.1030
 0.5250	12.2890
 0.5260	12.4640
 0.5270	12.6260
 0.5280	12.7790
 0.5290	12.9170
 0.5300	13.0450
 0.5310	13.1650
 0.5320	13.2790
 0.5330	13.3820
 0.5340	13.4740
 0.5350	13.5560
 0.5360	13.6300
 0.5370	13.7030
 0.5380	13.7730
 0.5390	13.8280
 0.5400	13.8810
 0.5410	13.9380
 0.5420	13.9980
 0.5430	14.0500
 0.5440	14.0990
 0.5450	14.1470
 0.5460	14.1960
 0.5470	14.2350
 0.5480	14.2710
 0.5490	14.3080
 0.5500	14.3450
 0.5510	14.3750
 0.5520	14.3950
 0.5530	14.4030
 0.5540	14.4010
 0.5550	14.3860
 0.5560	14.3580
 0.5570	14.3210
 0.5580	14.2750
 0.5590	14.2190
 0.5600	14.1530
 0.5610	14.0790
 0.5620	14.0030
 0.5630	13.9220
 0.5640	13.8290
 0.5650	13.7310
 0.5660	13.6270
 0.5670	13.5180
 0.5680	13.4030
 0.5690	13.2810
 0.5700	13.1580
 0.5710	13.0390
 0.5720	12.9270
 0.5730	12.8190
 0.5740	12.7160
 0.5750	12.6230
 0.5760	12.5370
 0.5770	12.4590
 0.5780	12.3870
 0.5790	12.3100
 0.5800	12.2430
 0.5810	12.1780
 0.5820	12.1140
 0.5830	12.0570
 0.5840	11.9990
 0.5850	11.9380
 0.5860	11.8780
 0.5870	11.8210
 0.5880	11.7670
 0.5890	11.7160
 0.5900	11.6750
 0.5910	11.6450
 0.5920	11.6230
 0.5930	11.6040
 0.5940	11.5830
 0.5950	11.5630
 0.5960	11.5440
 0.5970	11.5230
 0.5980	11.5100
 0.5990	11.4940
 0.6000	11.4680
 0.6010	11.4450
 0.6020	11.4160
 0.6030	11.3830
 0.6040	11.3490
 0.6050	11.3080
 0.6060	11.2590
 0.6070	11.1990
 0.6080	11.1430
 0.6090	11.0850
 0.6100	11.0260
 0.6110	10.9660
 0.6120	10.8980
 0.6130	10.8270
 0.6140	10.7590
 0.6150	10.6970
 0.6160	10.6350
 0.6170	10.5760
 0.6180	10.5200
 0.6190	10.4760
 0.6200	10.4350
 0.6210	10.3940
 0.6220	10.3590
 0.6230	10.3300
 0.6240	10.3070
 0.6250	10.2930
 0.6260	10.2800
 0.6270	10.2690
 0.6280	10.2620
 0.6290	10.2580
 0.6300	10.2530
 0.6310	10.2450
 0.6320	10.2350
 0.6330	10.2190
 0.6340	10.1920
 0.6350	10.1560
 0.6360	10.1150
 0.6370	10.0590
 0.6380	 9.9940
 0.6390	 9.9210
 0.6400	 9.8410
 0.6410	 9.7570
 0.6420	 9.6720
 0.6430	 9.5870
 0.6440	 9.4990
 0.6450	 9.4070
 0.6460	 9.3160
 0.6470	 9.2320
 0.6480	 9.1600
 0.6490	 9.0930
 0.6500	 9.0360
 0.6510	 8.9880
 0.6520	 8.9460
 0.6530	 8.9040
 0.6540	 8.8630
 0.6550	 8.8250
 0.6560	 8.7770
 0.6570	 8.7220
 0.6580	 8.6580
 0.6590	 8.5870
 0.6600	 8.5130
 0.6610	 8.4370
 0.6620	 8.3540
 0.6630	 8.2770
 0.6640	 8.1990
 0.6650	 8.1260
 0.6660	 8.0610
 0.6670	 8.0030
 0.6680	 7.9530
 0.6690	 7.9120
 0.6700	 7.8870
 0.6710	 7.8660
 0.6720	 7.8470
 0.6730	 7.8380
 0.6740	 7.8380
 0.6750	 7.8440
 0.6760	 7.8550
 0.6770	 7.8730
 0.6780	 7.8970
 0.6790	 7.9290
 0.6800	 7.9770
 0.6810	 8.0360
 0.6820	 8.1100
 0.6830	 8.2050
 0.6840	 8.3220
 0.6850	 8.4700
 0.6860	 8.6490
 0.6870	 8.8690
 0.6880	 9.1250
 0.6890	 9.4320
 0.6900	 9.7960
 0.6910	10.2090
 0.6920	10.6780
 0.6930	11.2060
 0.6940	11.7880
 0.6950	12.4230
 0.6960	13.1110
 0.6970	13.8450
 0.6980	14.6160
 0.6990	15.4230
 0.7000	16.2600
 0.7010	17.1170
 0.7020	17.9850
 0.7030	18.8620
 0.7040	19.7450
 0.7050	20.6300
 0.7060	21.5130
 0.7070	22.4010
 0.7080	23.2890
 0.7090	24.1790
 0.7100	25.0700
 0.7110	25.9680
 0.7120	26.8720
 0.7130	27.7790
 0.7140	28.6960
 0.7150	29.6200
 0.7160	30.5460
 0.7170	31.4770
 0.7180	32.4100
 0.7190	33.3470
 0.7200	34.2890
 0.7210	35.2220
 0.7220	36.1530
 0.7230	37.0810
 0.7240	37.9930
 0.7250	38.8970
 0.7260	39.7850
 0.7270	40.6500
 0.7280	41.5010
 0.7290	42.3250
 0.7300	43.1260
 0.7310	43.9070
 0.7320	44.6550
 0.7330	45.3760
 0.7340	46.0720
 0.7350	46.7400
 0.7360	47.3760
 0.7370	47.9850
 0.7380	48.5710
 0.7390	49.1230
 0.7400	49.6430
 0.7410	50.1360
 0.7420	50.6060
 0.7430	51.0440
 0.7440	51.4580
 0.7450	51.8470
 0.7460	52.2060
 0.7470	52.5370
 0.7480	52.8470
 0.7490	53.1390
 0.7500	53.4090
 0.7510	53.6550
 0.7520	53.8800
 0.7530	54.0940
 0.7540	54.2910
 0.7550	54.4670
 0.7560	54.6280
 0.7570	54.7820
 0.7580	54.9220
 0.7590	55.0510
 0.7600	55.1710
 0.7610	55.2820
 0.7620	55.3860
 0.7630	55.4810
 0.7640	55.5640
 0.7650	55.6490
 0.7660	55.7250
 0.7670	55.7930
 0.7680	55.8600
 0.7690	55.9240
 0.7700	55.9800
 0.7710	56.0310
 0.7720	56.0870
 0.7730	56.1360
 0.7740	56.1840
 0.7750	56.2380
 0.7760	56.2800
 0.7770	56.3220
 0.7780	56.3670
 0.7790	56.4090
 0.7800	56.4440
 0.7810	56.4840
 0.7820	56.5290
 0.7830	56.5690
 0.7840	56.6010
 0.7850	56.6330
 0.7860	56.6690
 0.7870	56.7050
 0.7880	56.7370
 0.7890	56.7700
 0.7900	56.8030
 0.7910	56.8280
 0.7920	56.8550
 0.7930	56.8860
 0.7940	56.9150
 0.7950	56.9420
 0.7960	56.9670
 0.7970	56.9910
 0.7980	57.0180
 0.7990	57.0410
 0.8000	57.0590
 0.8010	57.0770
 0.8020	57.1020
 0.8030	57.1240
 0.8040	57.1390
 0.8050	57.1520
 0.8060	57.1690
 0.8070	57.1860
 0.8080	57.2020
 0.8090	57.2170
 0.8100	57.2350
 0.8110	57.2460
 0.8120	57.2510
 0.8130	57.2670
 0.8140	57.2770
 0.8150	57.2870
 0.8160	57.3010
 0.8170	57.3190
 0.8180	57.3290
 0.8190	57.3360
 0.8200	57.3490
 0.8210	57.3550
 0.8220	57.3650
 0.8230	57.3790
 0.8240	57.3910
 0.8250	57.3910
 0.8260	57.3920
 0.8270	57.4010
 0.8280	57.4010
 0.8290	57.4070
 0.8300	57.4150
 0.8310	57.4180
 0.8320	57.4170
 0.8330	57.4250
 0.8340	57.4370
 0.8350	57.4410
 0.8360	57.4500
 0.8370	57.4600
 0.8380	57.4700
 0.8390	57.4820
 0.8400	57.5000
 0.8410	57.5200
 0.8420	57.5370
 0.8430	57.5530
 0.8440	57.5630
 0.8450	57.5750
 0.8460	57.5930
 0.8470	57.6060
 0.8480	57.6230
 0.8490	57.6410
 0.8500	57.6550
 0.8510	57.6690
 0.8520	57.6870
 0.8530	57.7070
 0.8540	57.7270
 0.8550	57.7410
 0.8560	57.7550
 0.8570	57.7710
 0.8580	57.7890
 0.8590	57.8020
 0.8600	57.8200
 0.8610	57.8420
 0.8620	57.8530
 0.8630	57.8590
 0.8640	57.8690
 0.8650	57.8830
 0.8660	57.8980
 0.8670	57.9110
 0.8680	57.9220
 0.8690	57.9360
 0.8700	57.9480
 0.8710	57.9610
 0.8720	57.9770
 0.8730	57.9950
 0.8740	58.0090
 0.8750	58.0170
 0.8760	58.0250
 0.8770	58.0400
 0.8780	58.0490
 0.8790	58.0590
 0.8800	58.0730
 0.8810	58.0760
 0.8820	58.0830
 0.8830	58.0940
 0.8840	58.1050
 0.8850	58.1160
 0.8860	58.1160
 0.8870	58.1150
 0.8880	58.1250
 0.8890	58.1290
 0.8900	58.1280
 0.8910	58.1280
 0.8920	58.1330
 0.8930	58.1310
 0.8940	58.1310
 0.8950	58.1330
 0.8960	58.1320
 0.8970	58.1340
 0.8980	58.1350
 0.8990	58.1330
 0.9000	58.1280
 0.9010	58.1210
 0.9020	58.1140
 0.9030	58.1090
 0.9040	58.1120
 0.9050	58.1170
 0.9060	58.1200
 0.9070	58.1180
 0.9080	58.1050
 0.9090	58.0960
 0.9100	58.0920
 0.9110	58.0890
 0.9120	58.0890
 0.9130	58.0850
 0.9140	58.0790
 0.9150	58.0720
 0.9160	58.0620
 0.9170	58.0530
 0.9180	58.0480
 0.9190	58.0460
 0.9200	58.0370
 0.9210	58.0210
 0.9220	58.0070
 0.9230	58.0030
 0.9240	57.9790
 0.9250	57.9470
 0.9260	57.9210
 0.9270	57.9080
 0.9280	57.8780
 0.9290	57.8440
 0.9300	57.8090
 0.9310	57.7650
 0.9320	57.7240
 0.9330	57.6850
 0.9340	57.6430
 0.9350	57.5980
 0.9360	57.5420
 0.9370	57.4860
 0.9380	57.4310
 0.9390	57.3750
 0.9400	57.3110
 0.9410	57.2390
 0.9420	57.1630
 0.9430	57.0900
 0.9440	57.0130
 0.9450	56.9290
 0.9460	56.8350
 0.9470	56.7250
 0.9480	56.6010
 0.9490	56.4760
 0.9500	56.3570
 0.9510	56.2290
 0.9520	56.0830
 0.9530	55.9280
 0.9540	55.7760
 0.9550	55.6180
 0.9560	55.4690
 0.9570	55.3320
 0.9580	55.2020
 0.9590	55.0660
 0.9600	54.9380
 0.9610	54.8190
 0.9620	54.7120
 0.9630	54.6410
 0.9640	54.5650
 0.9650	54.4870
 0.9660	54.4240
 0.9670	54.3810
 0.9680	54.3250
 0.9690	54.2660
 0.9700	54.2260
 0.9710	54.1780
 0.9720	54.1410
 0.9730	54.1140
 0.9740	54.0850
 0.9750	54.0600
 0.9760	54.0420
 0.9770	54.0270
 0.9780	54.0110
 0.9790	53.9940
 0.9800	53.9940
 0.9810	54.0080
 0.9820	54.0230
 0.9830	54.0390
 0.9840	54.0430
 0.9850	54.0420
 0.9860	54.0530
 0.9870	54.1020
 0.9880	54.1330
 0.9890	54.1500
 0.9900	54.1850
 0.9910	54.2370
 0.9920	54.2960
 0.9930	54.3460
 0.9940	54.3830
 0.9950	54.4280
 0.9960	54.4580
 0.9970	54.4930
 0.9980	54.5590
 0.9990	54.6280
 1.0000	54.9850
 1.0010	55.5910
 1.0020	55.9500
 1.0030	56.0050
 1.0040	56.0680
 1.0050	56.1380
 1.0060	56.2060
 1.0070	56.2740
 1.0080	56.3380
 1.0090	56.3970
 1.0100	56.4590
 1.0110	56.5220
 1.0120	56.5860
 1.0130	56.6520
 1.0140	56.7170
 1.0150	56.7810
 1.0160	56.8450
 1.0170	56.9100
 1.0180	56.9710
 1.0190	57.0370
 1.0200	57.1040
 1.0210	57.1700
 1.0220	57.2390
 1.0230	57.3060
 1.0240	57.3750
 1.0250	57.4370
 1.0260	57.4940
 1.0270	57.5550
 1.0280	57.6100
 1.0290	57.6690
 1.0300	57.7370
 1.0310	57.7980
 1.0320	57.8570
 1.0330	57.9120
 1.0340	57.9680
 1.0350	58.0200
 1.0360	58.0730
 1.0370	58.1310
 1.0380	58.1870
 1.0390	58.2440
 1.0400	58.2990
 1.0410	58.3560
 1.0420	58.4070
 1.0430	58.4510
 1.0440	58.4990
 1.0450	58.5490
 1.0460	58.5930
 1.0470	58.6340
 1.0480	58.6780
 1.0490	58.7220
 1.0500	58.7630
 1.0510	58.8050
 1.0520	58.8490
 1.0530	58.8860
 1.0540	58.9160
 1.0550	58.9490
 1.0560	58.9830
 1.0570	59.0120
 1.0580	59.0370
 1.0590	59.0640
 1.0600	59.0870
 1.0610	59.1120
 1.0620	59.1410
 1.0630	59.1660
 1.0640	59.1880
 1.0650	59.2080
 1.0660	59.2270
 1.0670	59.2430
 1.0680	59.2570
 1.0690	59.2690
 1.0700	59.2780
 1.0710	59.2830
 1.0720	59.2890
 1.0730	59.2940
 1.0740	59.3000
 1.0750	59.3080
 1.0760	59.3110
 1.0770	59.3120
 1.0780	59.3140
 1.0790	59.3140
 1.0800	59.3120
 1.0810	59.3080
 1.0820	59.3040
 1.0830	59.2940
 1.0840	59.2850
 1.0850	59.2770
 1.0860	59.2680
 1.0870	59.2550
 1.0880	59.2420
 1.0890	59.2260
 1.0900	59.2080
 1.0910	59.1880
 1.0920	59.1670
 1.0930	59.1450
 1.0940	59.1210
 1.0950	59.0960
 1.0960	59.0720
 1.0970	59.0460
 1.0980	59.0210
 1.0990	58.9930
 1.1000	58.9630
 1.1010	58.9320
 1.1020	58.9000
 1.1030	58.8650
 1.1040	58.8320
 1.1050	58.7980
 1.1060	58.7620
 1.1070	58.7270
 1.1080	58.6890
 1.1090	58.6510
 1.1100	58.6080
 1.1110	58.5620
 1.1120	58.5130
 1.1130	58.4610
 1.1140	58.4070
 1.1150	58.3520
 1.1160	58.2910
 1.1170	58.2270
 1.1180	58.1570
 1.1190	58.0860
 1.1200	58.0030
 1.1210	57.9130
 1.1220	57.8180
 1.1230	57.7120
 1.1240	57.6000
 1.1250	57.4730
 1.1260	57.3380
 1.1270	57.1870
 1.1280	57.0240
 1.1290	56.8440
 1.1300	56.6550
 1.1310	56.4460
 1.1320	56.2200
 1.1330	55.9810
 1.1340	55.7280
 1.1350	55.4580
 1.1360	55.1740
 1.1370	54.8750
 1.1380	54.5620
 1.1390	54.2410
 1.1400	53.9090
 1.1410	53.5760
 1.1420	53.2420
 1.1430	52.9040
 1.1440	52.5710
 1.1450	52.2340
 1.1460	51.9090
 1.1470	51.5810
 1.1480	51.2730
 1.1490	50.9730
 1.1500	50.6920
 1.1510	50.4210
 1.1520	50.1660
 1.1530	49.9240
 1.1540	49.7000
 1.1550	49.4910
 1.1560	49.2990
 1.1570	49.1220
 1.1580	48.9630
 1.1590	48.8160
 1.1600	48.6780
 1.1610	48.5530
 1.1620	48.4350
 1.1630	48.3250
 1.1640	48.2250
 1.1650	48.1330
 1.1660	48.0510
 1.1670	47.9720
 1.1680	47.9020
 1.1690	47.8320
 1.1700	47.7640
 1.1710	47.6990
 1.1720	47.6420
 1.1730	47.5810
 1.1740	47.5210
 1.1750	47.4610
 1.1760	47.4000
 1.1770	47.3360
 1.1780	47.2740
 1.1790	47.2130
 1.1800	47.1480
 1.1810	47.0830
 1.1820	47.0160
 1.1830	46.9490
 1.1840	46.8850
 1.1850	46.8230
 1.1860	46.7650
 1.1870	46.7100
 1.1880	46.6570
 1.1890	46.6070
 1.1900	46.5610
 1.1910	46.5150
 1.1920	46.4770
 1.1930	46.4450
 1.1940	46.4140
 1.1950	46.3880
 1.1960	46.3680
 1.1970	46.3510
 1.1980	46.3390
 1.1990	46.3390
 1.2000	46.3430
 1.2010	46.3510
 1.2020	46.3660
 1.2030	46.3840
 1.2040	46.4060
 1.2050	46.4370
 1.2060	46.4750
 1.2070	46.5180
 1.2080	46.5660
 1.2090	46.6160
 1.2100	46.6690
 1.2110	46.7280
 1.2120	46.7940
 1.2130	46.8600
 1.2140	46.9310
 1.2150	47.0050
 1.2160	47.0800
 1.2170	47.1580
 1.2180	47.2410
 1.2190	47.3240
 1.2200	47.4070
 1.2210	47.4930
 1.2220	47.5790
 1.2230	47.6660
 1.2240	47.7530
 1.2250	47.8370
 1.2260	47.9200
 1.2270	48.0020
 1.2280	48.0810
 1.2290	48.1600
 1.2300	48.2360
 1.2310	48.3090
 1.2320	48.3810
 1.2330	48.4520
 1.2340	48.5200
 1.2350	48.5840
 1.2360	48.6480
 1.2370	48.7110
 1.2380	48.7700
 1.2390	48.8250
 1.2400	48.8820
 1.2410	48.9390
 1.2420	48.9920
 1.2430	49.0470
 1.2440	49.1000
 1.2450	49.1510
 1.2460	49.2000
 1.2470	49.2480
 1.2480	49.2910
 1.2490	49.3330
 1.2500	49.3720
 1.2510	49.4090
 1.2520	49.4450
 1.2530	49.4790
 1.2540	49.5120
 1.2550	49.5410
 1.2560	49.5710
 1.2570	49.6000
 1.2580	49.6250
 1.2590	49.6480
 1.2600	49.6690
 1.2610	49.6890
 1.2620	49.7060
 1.2630	49.7240
 1.2640	49.7400
 1.2650	49.7520
 1.2660	49.7630
 1.2670	49.7700
 1.2680	49.7750
 1.2690	49.7820
 1.2700	49.7850
 1.2710	49.7870
 1.2720	49.7880
 1.2730	49.7820
 1.2740	49.7740
 1.2750	49.7670
 1.2760	49.7580
 1.2770	49.7480
 1.2780	49.7360
 1.2790	49.7180
 1.2800	49.6990
 1.2810	49.6790
 1.2820	49.6520
 1.2830	49.6230
 1.2840	49.5900
 1.2850	49.5500
 1.2860	49.5070
 1.2870	49.4620
 1.2880	49.4130
 1.2890	49.3600
 1.2900	49.3030
 1.2910	49.2420
 1.2920	49.1760
 1.2930	49.1050
 1.2940	49.0310
 1.2950	48.9510
 1.2960	48.8650
 1.2970	48.7740
 1.2980	48.6780
 1.2990	48.5780
 1.3000	48.4740
 1.3010	48.3640
 1.3020	48.2500
 1.3030	48.1290
 1.3040	48.0020
 1.3050	47.8730
 1.3060	47.7400
 1.3070	47.6000
 1.3080	47.4560
 1.3090	47.3070
 1.3100	47.1490
 1.3110	46.9870
 1.3120	46.8210
 1.3130	46.6500
 1.3140	46.4740
 1.3150	46.2930
 1.3160	46.1060
 1.3170	45.9150
 1.3180	45.7190
 1.3190	45.5170
 1.3200	45.3130
 1.3210	45.1000
 1.3220	44.8810
 1.3230	44.6590
 1.3240	44.4320
 1.3250	44.2080
 1.3260	43.9820
 1.3270	43.7510
 1.3280	43.5170
 1.3290	43.2770
 1.3300	43.0370
 1.3310	42.7960
 1.3320	42.5550
 1.3330	42.3170
 1.3340	42.0770
 1.3350	41.8370
 1.3360	41.5990
 1.3370	41.3590
 1.3380	41.1220
 1.3390	40.8880
 1.3400	40.6550
 1.3410	40.4270
 1.3420	40.2020
 1.3430	39.9800
 1.3440	39.7630
 1.3450	39.5480
 1.3460	39.3340
 1.3470	39.1260
 1.3480	38.9210
 1.3490	38.7190
 1.3500	38.5230
 1.3510	38.3270
 1.3520	38.1320
 1.3530	37.9410
 1.3540	37.7510
 1.3550	37.5620
 1.3560	37.3750
 1.3570	37.1860
 1.3580	36.9970
 1.3590	36.8050
 1.3600	36.6100
 1.3610	36.4120
 1.3620	36.2100
 1.3630	36.0030
 1.3640	35.7900
 1.3650	35.5690
 1.3660	35.3420
 1.3670	35.1050
 1.3680	34.8600
 1.3690	34.6040
 1.3700	34.3330
 1.3710	34.0510
 1.3720	33.7520
 1.3730	33.4350
 1.3740	33.1050
 1.3750	32.7560
 1.3760	32.3830
 1.3770	31.9920
 1.3780	31.5760
 1.3790	31.1380
 1.3800	30.6800
 1.3810	30.1980
 1.3820	29.7040
 1.3830	29.1910
 1.3840	28.6650
 1.3850	28.1230
 1.3860	27.5730
 1.3870	27.0050
 1.3880	26.4420
 1.3890	25.8730
 1.3900	25.3010
 1.3910	24.7360
 1.3920	24.1710
 1.3930	23.6070
 1.3940	23.0530
 1.3950	22.5020
 1.3960	21.9650
 1.3970	21.4430
 1.3980	20.9350
 1.3990	20.4500
 1.4000	19.9810
 1.4010	19.5270
 1.4020	19.0960
 1.4030	18.6810
 1.4040	18.2850
 1.4050	17.9120
 1.4060	17.5560
 1.4070	17.2220
 1.4080	16.9080
 1.4090	16.6090
 1.4100	16.3310
 1.4110	16.0690
 1.4120	15.8230
 1.4130	15.5940
 1.4140	15.3810
 1.4150	15.1820
 1.4160	14.9970
 1.4170	14.8240
 1.4180	14.6640
 1.4190	14.5140
 1.4200	14.3750
 1.4210	14.2460
 1.4220	14.1270
 1.4230	14.0170
 1.4240	13.9150
 1.4250	13.8200
 1.4260	13.7340
 1.4270	13.6530
 1.4280	13.5800
 1.4290	13.5120
 1.4300	13.4500
 1.4310	13.3930
 1.4320	13.3420
 1.4330	13.2950
 1.4340	13.2540
 1.4350	13.2160
 1.4360	13.1820
 1.4370	13.1530
 1.4380	13.1270
 1.4390	13.1040
 1.4400	13.0850
 1.4410	13.0690
 1.4420	13.0560
 1.4430	13.0450
 1.4440	13.0380
 1.4450	13.0330
 1.4460	13.0300
 1.4470	13.0280
 1.4480	13.0290
 1.4490	13.0310
 1.4500	13.0340
 1.4510	13.0390
 1.4520	13.0460
 1.4530	13.0540
 1.4540	13.0630
 1.4550	13.0740
 1.4560	13.0880
 1.4570	13.1030
 1.4580	13.1200
 1.4590	13.1390
 1.4600	13.1600
 1.4610	13.1840
 1.4620	13.2100
 1.4630	13.2410
 1.4640	13.2740
 1.4650	13.3120
 1.4660	13.3530
 1.4670	13.3960
 1.4680	13.4430
 1.4690	13.4930
 1.4700	13.5460
 1.4710	13.6040
 1.4720	13.6630
 1.4730	13.7250
 1.4740	13.7910
 1.4750	13.8580
 1.4760	13.9290
 1.4770	14.0030
 1.4780	14.0770
 1.4790	14.1530
 1.4800	14.2310
 1.4810	14.3100
 1.4820	14.3920
 1.4830	14.4760
 1.4840	14.5610
 1.4850	14.6470
 1.4860	14.7330
 1.4870	14.8220
 1.4880	14.9100
 1.4890	15.0000
 1.4900	15.0910
 1.4910	15.1820
 1.4920	15.2750
 1.4930	15.3680
 1.4940	15.4620
 1.4950	15.5570
 1.4960	15.6520
 1.4970	15.7470
 1.4980	15.8420
 1.4990	15.9380
 1.5000	16.0340
 1.5010	16.1300
 1.5020	16.2260
 1.5030	16.3240
 1.5040	16.4210
 1.5050	16.5170
 1.5060	16.6150
 1.5070	16.7120
 1.5080	16.8090
 1.5090	16.9060
 1.5100	17.0040
 1.5110	17.1010
 1.5120	17.1970
 1.5130	17.2910
 1.5140	17.3850
 1.5150	17.4790
 1.5160	17.5720
 1.5170	17.6680
 1.5180	17.7630
 1.5190	17.8570
 1.5200	17.9520
 1.5210	18.0450
 1.5220	18.1370
 1.5230	18.2290
 1.5240	18.3210
 1.5250	18.4120
 1.5260	18.5010
 1.5270	18.5910
 1.5280	18.6800
 1.5290	18.7670
 1.5300	18.8550
 1.5310	18.9430
 1.5320	19.0290
 1.5330	19.1150
 1.5340	19.2010
 1.5350	19.2860
 1.5360	19.3720
 1.5370	19.4560
 1.5380	19.5400
 1.5390	19.6230
 1.5400	19.7040
 1.5410	19.7860
 1.5420	19.8670
 1.5430	19.9490
 1.5440	20.0300
 1.5450	20.1110
 1.5460	20.1890
 1.5470	20.2670
 1.5480	20.3450
 1.5490	20.4230
 1.5500	20.5000
 1.5510	20.5760
 1.5520	20.6510
 1.5530	20.7250
 1.5540	20.8000
 1.5550	20.8770
 1.5560	20.9520
 1.5570	21.0260
 1.5580	21.0990
 1.5590	21.1720
 1.5600	21.2440
 1.5610	21.3150
 1.5620	21.3860
 1.5630	21.4570
 1.5640	21.5270
 1.5650	21.5980
 1.5660	21.6680
 1.5670	21.7370
 1.5680	21.8050
 1.5690	21.8700
 1.5700	21.9370
 1.5710	22.0050
 1.5720	22.0740
 1.5730	22.1450
 1.5740	22.2140
 1.5750	22.2810
 1.5760	22.3490
 1.5770	22.4150
 1.5780	22.4810
 1.5790	22.5480
 1.5800	22.6120
 1.5810	22.6780
 1.5820	22.7430
 1.5830	22.8070
 1.5840	22.8720
 1.5850	22.9360
 1.5860	23.0000
 1.5870	23.0660
 1.5880	23.1320
 1.5890	23.1970
 1.5900	23.2630
 1.5910	23.3290
 1.5920	23.3960
 1.5930	23.4640
 1.5940	23.5310
 1.5950	23.5980
 1.5960	23.6640
 1.5970	23.7290
 1.5980	23.7940
 1.5990	23.8590
 1.6000	23.9250
 1.6010	23.9900
 1.6020	24.0550
 1.6030	24.1190
 1.6040	24.1820
 1.6050	24.2460
 1.6060	24.3100
 1.6070	24.3730
 1.6080	24.4360
 1.6090	24.4980
 1.6100	24.5590
 1.6110	24.6210
 1.6120	24.6810
 1.6130	24.7420
 1.6140	24.8020
 1.6150	24.8620
 1.6160	24.9210
 1.6170	24.9770
 1.6180	25.0340
 1.6190	25.0880
 1.6200	25.1420
 1.6210	25.1960
 1.6220	25.2450
 1.6230	25.2950
 1.6240	25.3430
 1.6250	25.3880
 1.6260	25.4350
 1.6270	25.4790
 1.6280	25.5210
 1.6290	25.5610
 1.6300	25.6000
 1.6310	25.6380
 1.6320	25.6750
 1.6330	25.7120
 1.6340	25.7460
 1.6350	25.7810
 1.6360	25.8170
 1.6370	25.8520
 1.6380	25.8870
 1.6390	25.9210
 1.6400	25.9550
 1.6410	25.9880
 1.6420	26.0200
 1.6430	26.0500
 1.6440	26.0780
 1.6450	26.1030
 1.6460	26.1260
 1.6470	26.1470
 1.6480	26.1660
 1.6490	26.1800
 1.6500	26.1910
 1.6510	26.1990
 1.6520	26.2060
 1.6530	26.2110
 1.6540	26.2120
 1.6550	26.2090
 1.6560	26.2050
 1.6570	26.1990
 1.6580	26.1930
 1.6590	26.1860
 1.6600	26.1800
 1.6610	26.1710
 1.6620	26.1610
 1.6630	26.1540
 1.6640	26.1440
 1.6650	26.1330
 1.6660	26.1250
 1.6670	26.1150
 1.6680	26.1060
 1.6690	26.0960
 1.6700	26.0840
 1.6710	26.0720
 1.6720	26.0580
 1.6730	26.0420
 1.6740	26.0240
 1.6750	26.0030
 1.6760	25.9790
 1.6770	25.9520
 1.6780	25.9210
 1.6790	25.8880
 1.6800	25.8510
 1.6810	25.8100
 1.6820	25.7670
 1.6830	25.7210
 1.6840	25.6700
 1.6850	25.6160
 1.6860	25.5590
 1.6870	25.4960
 1.6880	25.4320
 1.6890	25.3650
 1.6900	25.2980
 1.6910	25.2290
 1.6920	25.1610
 1.6930	25.0920
 1.6940	25.0230
 1.6950	24.9520
 1.6960	24.8840
 1.6970	24.8170
 1.6980	24.7510
 1.6990	24.6870
 1.7000	24.6220
 1.7010	24.5560
 1.7020	24.4910
 1.7030	24.4260
 1.7040	24.3620
 1.7050	24.2980
 1.7060	24.2340
 1.7070	24.1690
 1.7080	24.1050
 1.7090	24.0380
 1.7100	23.9760
 1.7110	23.9160
 1.7120	23.8590
 1.7130	23.8050
 1.7140	23.7530
 1.7150	23.7030
 1.7160	23.6550
 1.7170	23.6100
 1.7180	23.5680
 1.7190	23.5270
 1.7200	23.4890
 1.7210	23.4530
 1.7220	23.4160
 1.7230	23.3830
 1.7240	23.3530
 1.7250	23.3230
 1.7260	23.2950
 1.7270	23.2700
 1.7280	23.2420
 1.7290	23.2160
 1.7300	23.1910
 1.7310	23.1660
 1.7320	23.1420
 1.7330	23.1180
 1.7340	23.0960
 1.7350	23.0700
 1.7360	23.0430
 1.7370	23.0120
 1.7380	22.9770
 1.7390	22.9390
 1.7400	22.8990
 1.7410	22.8540
 1.7420	22.8050
 1.7430	22.7540
 1.7440	22.6980
 1.7450	22.6430
 1.7460	22.5860
 1.7470	22.5290
 1.7480	22.4700
 1.7490	22.4140
 1.7500	22.3580
 1.7510	22.3050
 1.7520	22.2550
 1.7530	22.2060
 1.7540	22.1570
 1.7550	22.1110
 1.7560	22.0670
 1.7570	22.0260
 1.7580	21.9860
 1.7590	21.9480
 1.7600	21.9110
 1.7610	21.8770
 1.7620	21.8440
 1.7630	21.8140
 1.7640	21.7840
 1.7650	21.7540
 1.7660	21.7270
 1.7670	21.7030
 1.7680	21.6770
 1.7690	21.6530
 1.7700	21.6290
 1.7710	21.6030
 1.7720	21.5800
 1.7730	21.5580
 1.7740	21.5380
 1.7750	21.5190
 1.7760	21.5030
 1.7770	21.4900
 1.7780	21.4770
 1.7790	21.4650
 1.7800	21.4560
 1.7810	21.4480
 1.7820	21.4440
 1.7830	21.4450
 1.7840	21.4460
 1.7850	21.4480
 1.7860	21.4520
 1.7870	21.4580
 1.7880	21.4660
 1.7890	21.4770
 1.7900	21.4910
 1.7910	21.5030
 1.7920	21.5130
 1.7930	21.5260
 1.7940	21.5390
 1.7950	21.5530
 1.7960	21.5700
 1.7970	21.5860
 1.7980	21.6010
 1.7990	21.6170
 1.8000	21.6330
 1.8010	21.6490
 1.8020	21.6660
 1.8030	21.6830
 1.8040	21.6990
 1.8050	21.7150
 1.8060	21.7290
 1.8070	21.7440
 1.8080	21.7600
 1.8090	21.7750
 1.8100	21.7900
 1.8110	21.8030
 1.8120	21.8170
 1.8130	21.8320
 1.8140	21.8420
 1.8150	21.8520
 1.8160	21.8610
 1.8170	21.8650
 1.8180	21.8730
 1.8190	21.8820
 1.8200	21.8890
 1.8210	21.8990
 1.8220	21.9050
 1.8230	21.9070
 1.8240	21.9110
 1.8250	21.9170
 1.8260	21.9190
 1.8270	21.9210
 1.8280	21.9220
 1.8290	21.9190
 1.8300	21.8950
 1.8310	21.8550
 1.8320	21.8220
 1.8330	21.8080
 1.8340	21.7920
 1.8350	21.7740
 1.8360	21.7550
 1.8370	21.7290
 1.8380	21.6980
 1.8390	21.6620
 1.8400	21.6190
 1.8410	21.5710
 1.8420	21.5160
 1.8430	21.4600
 1.8440	21.3970
 1.8450	21.3270
 1.8460	21.2530
 1.8470	21.1690
 1.8480	21.0770
 1.8490	20.9790
 1.8500	20.8720
 1.8510	20.7560
 1.8520	20.6310
 1.8530	20.4950
 1.8540	20.3480
 1.8550	20.1900
 1.8560	20.0240
 1.8570	19.8500
 1.8580	19.6630
 1.8590	19.4650
 1.8600	19.2570
 1.8610	19.0360
 1.8620	18.8030
 1.8630	18.5620
 1.8640	18.3030
 1.8650	18.0340
 1.8660	17.7540
 1.8670	17.4530
 1.8680	17.1430
 1.8690	16.8200
 1.8700	16.4820
 1.8710	16.1270
 1.8720	15.7710
 1.8730	15.4090
 1.8740	15.0360
 1.8750	14.6630
 1.8760	14.2840
 1.8770	13.9020
 1.8780	13.5230
 1.8790	13.1450
 1.8800	12.7720
 1.8810	12.4020
 1.8820	12.0330
 1.8830	11.6660
 1.8840	11.3040
 1.8850	10.9460
 1.8860	10.5970
 1.8870	10.2580
 1.8880	 9.9260
 1.8890	 9.6100
 1.8900	 9.3080
 1.8910	 9.0200
 1.8920	 8.7420
 1.8930	 8.4850
 1.8940	 8.2390
 1.8950	 8.0060
 1.8960	 7.7930
 1.8970	 7.5930
 1.8980	 7.4100
 1.8990	 7.2400
 1.9000	 7.0790
 1.9010	 6.9350
 1.9020	 6.7980
 1.9030	 6.6730
 1.9040	 6.5640
 1.9050	 6.4620
 1.9060	 6.3730
 1.9070	 6.2940
 1.9080	 6.2170
 1.9090	 6.1480
 1.9100	 6.0920
 1.9110	 6.0380
 1.9120	 5.9900
 1.9130	 5.9460
 1.9140	 5.9070
 1.9150	 5.8680
 1.9160	 5.8350
 1.9170	 5.8070
 1.9180	 5.7830
 1.9190	 5.7590
 1.9200	 5.7410
 1.9210	 5.7250
 1.9220	 5.7090
 1.9230	 5.6950
 1.9240	 5.6850
 1.9250	 5.6800
 1.9260	 5.6710
 1.9270	 5.6690
 1.9280	 5.6710
 1.9290	 5.6690
 1.9300	 5.6680
 1.9310	 5.6670
 1.9320	 5.6700
 1.9330	 5.6760
 1.9340	 5.6830
 1.9350	 5.6930
 1.9360	 5.7020
 1.9370	 5.7120
 1.9380	 5.7240
 1.9390	 5.7380
 1.9400	 5.7520
 1.9410	 5.7670
 1.9420	 5.7870
 1.9430	 5.8040
 1.9440	 5.8230
 1.9450	 5.8450
 1.9460	 5.8650
 1.9470	 5.8860
 1.9480	 5.9090
 1.9490	 5.9330
 1.9500	 5.9570
 1.9510	 5.9820
 1.9520	 6.0060
 1.9530	 6.0340
 1.9540	 6.0590
 1.9550	 6.0850
 1.9560	 6.1180
 1.9570	 6.1460
 1.9580	 6.1740
 1.9590	 6.2050
 1.9600	 6.2380
 1.9610	 6.2670
 1.9620	 6.3020
 1.9630	 6.3340
 1.9640	 6.3670
 1.9650	 6.4000
 1.9660	 6.4380
 1.9670	 6.4710
 1.9680	 6.5080
 1.9690	 6.5450
 1.9700	 6.5810
 1.9710	 6.6160
 1.9720	 6.6550
 1.9730	 6.6920
 1.9740	 6.7310
 1.9750	 6.7690
 1.9760	 6.8090
 1.9770	 6.8450
 1.9780	 6.8850
 1.9790	 6.9270
 1.9800	 6.9670
 1.9810	 7.0090
 1.9820	 7.0520
 1.9830	 7.0960
 1.9840	 7.1380
 1.9850	 7.1790
 1.9860	 7.2220
 1.9870	 7.2650
 1.9880	 7.3070
 1.9890	 7.3520
 1.9900	 7.3940
 1.9910	 7.4370
 1.9920	 7.4810
 1.9930	 7.5220
 1.9940	 7.5650
 1.9950	 7.6120
 1.9960	 7.6570
 1.9970	 7.7050
 1.9980	 7.7520
 1.9990	 7.7940
 2.0000	 7.8380
 2.0010	 7.8790
 2.0020	 7.9220
 2.0030	 7.9670
 2.0040	 8.0110
 2.0050	 8.0540
 2.0060	 8.0990
 2.0070	 8.1460
 2.0080	 8.1930
 2.0090	 8.2370
 2.0100	 8.2790
 2.0110	 8.3210
 2.0120	 8.3620
 2.0130	 8.4030
 2.0140	 8.4470
 2.0150	 8.4910
 2.0160	 8.5320
 2.0170	 8.5740
 2.0180	 8.6130
 2.0190	 8.6510
 2.0200	 8.6910
 2.0210	 8.7300
 2.0220	 8.7690
 2.0230	 8.8080
 2.0240	 8.8460
 2.0250	 8.8850
 2.0260	 8.9220
 2.0270	 8.9580
 2.0280	 8.9930
 2.0290	 9.0260
 2.0300	 9.0560
 2.0310	 9.0890
 2.0320	 9.1220
 2.0330	 9.1530
 2.0340	 9.1840
 2.0350	 9.2150
 2.0360	 9.2400
 2.0370	 9.2680
 2.0380	 9.2940
 2.0390	 9.3220
 2.0400	 9.3540
 2.0410	 9.3820
 2.0420	 9.4130
 2.0430	 9.4380
 2.0440	 9.4640
 2.0450	 9.4860
 2.0460	 9.5060
 2.0470	 9.5230
 2.0480	 9.5460
 2.0490	 9.5700
 2.0500	 9.5930
 2.0510	 9.6180
 2.0520	 9.6410
 2.0530	 9.6600
 2.0540	 9.6800
 2.0550	 9.7010
 2.0560	 9.7220
 2.0570	 9.7430
 2.0580	 9.7610
 2.0590	 9.7820
 2.0600	 9.8010
 2.0610	 9.8220
 2.0620	 9.8410
 2.0630	 9.8630
 2.0640	 9.8860
 2.0650	 9.9090
 2.0660	 9.9300
 2.0670	 9.9500
 2.0680	 9.9680
 2.0690	 9.9870
 2.0700	10.0060
 2.0710	10.0260
 2.0720	10.0460
 2.0730	10.0640
 2.0740	10.0850
 2.0750	10.1050
 2.0760	10.1260
 2.0770	10.1450
 2.0780	10.1670
 2.0790	10.1890
 2.0800	10.2090
 2.0810	10.2280
 2.0820	10.2470
 2.0830	10.2630
 2.0840	10.2810
 2.0850	10.3030
 2.0860	10.3240
 2.0870	10.3460
 2.0880	10.3690
 2.0890	10.3920
 2.0900	10.4160
 2.0910	10.4370
 2.0920	10.4580
 2.0930	10.4790
 2.0940	10.5010
 2.0950	10.5240
 2.0960	10.5510
 2.0970	10.5730
 2.0980	10.5930
 2.0990	10.6130
 2.1000	10.6320
 2.1010	10.6530
 2.1020	10.6720
 2.1030	10.6950
 2.1040	10.7180
 2.1050	10.7420
 2.1060	10.7680
 2.1070	10.7970
 2.1080	10.8210
 2.1090	10.8420
 2.1100	10.8650
 2.1110	10.8870
 2.1120	10.9090
 2.1130	10.9350
 2.1140	10.9580
 2.1150	10.9820
 2.1160	11.0050
 2.1170	11.0290
 2.1180	11.0540
 2.1190	11.0780
 2.1200	11.1010
 2.1210	11.1230
 2.1220	11.1460
 2.1230	11.1680
 2.1240	11.1910
 2.1250	11.2140
 2.1260	11.2370
 2.1270	11.2610
 2.1280	11.2860
 2.1290	11.3100
 2.1300	11.3360
 2.1310	11.3600
 2.1320	11.3800
 2.1330	11.4030
 2.1340	11.4240
 2.1350	11.4480
 2.1360	11.4740
 2.1370	11.4990
 2.1380	11.5220
 2.1390	11.5470
 2.1400	11.5700
 2.1410	11.5900
 2.1420	11.6140
 2.1430	11.6360
 2.1440	11.6600
 2.1450	11.6860
 2.1460	11.7110
 2.1470	11.7370
 2.1480	11.7630
 2.1490	11.7870
 2.1500	11.8120
 2.1510	11.8370
 2.1520	11.8620
 2.1530	11.8880
 2.1540	11.9110
 2.1550	11.9330
 2.1560	11.9570
 2.1570	11.9820
 2.1580	12.0050
 2.1590	12.0290
 2.1600	12.0560
 2.1610	12.0790
 2.1620	12.1040
 2.1630	12.1290
 2.1640	12.1590
 2.1650	12.1810
 2.1660	12.2030
 2.1670	12.2240
 2.1680	12.2410
 2.1690	12.2630
 2.1700	12.2870
 2.1710	12.3080
 2.1720	12.3300
 2.1730	12.3530
 2.1740	12.3740
 2.1750	12.3970
 2.1760	12.4230
 2.1770	12.4470
 2.1780	12.4740
 2.1790	12.4990
 2.1800	12.5200
 2.1810	12.5400
 2.1820	12.5580
 2.1830	12.5780
 2.1840	12.6000
 2.1850	12.6230
 2.1860	12.6460
 2.1870	12.6700
 2.1880	12.6910
 2.1890	12.7090
 2.1900	12.7300
 2.1910	12.7500
 2.1920	12.7710
 2.1930	12.7950
 2.1940	12.8150
 2.1950	12.8380
 2.1960	12.8580
 2.1970	12.8760
 2.1980	12.8970
 2.1990	12.9190
 2.2000	12.9400
 2.2010	12.9640
 2.2020	12.9820
 2.2030	12.9930
 2.2040	13.0060
 2.2050	13.0180
 2.2060	13.0290
 2.2070	13.0420
 2.2080	13.0570
 2.2090	13.0690
 2.2100	13.0800
 2.2110	13.0900
 2.2120	13.0990
 2.2130	13.1080
 2.2140	13.1170
 2.2150	13.1260
 2.2160	13.1350
 2.2170	13.1400
 2.2180	13.1430
 2.2190	13.1430
 2.2200	13.1400
 2.2210	13.1350
 2.2220	13.1260
 2.2230	13.1190
 2.2240	13.1120
 2.2250	13.1020
 2.2260	13.0930
 2.2270	13.0790
 2.2280	13.0580
 2.2290	13.0380
 2.2300	13.0170
 2.2310	12.9940
 2.2320	12.9720
 2.2330	12.9470
 2.2340	12.9140
 2.2350	12.8730
 2.2360	12.8340
 2.2370	12.7860
 2.2380	12.7420
 2.2390	12.7000
 2.2400	12.6550
 2.2410	12.6080
 2.2420	12.5600
 2.2430	12.5120
 2.2440	12.4610
 2.2450	12.4090
 2.2460	12.3540
 2.2470	12.2970
 2.2480	12.2360
 2.2490	12.1730
 2.2500	12.1100
 2.2510	12.0430
 2.2520	11.9780
 2.2530	11.9130
 2.2540	11.8480
 2.2550	11.7820
 2.2560	11.7160
 2.2570	11.6510
 2.2580	11.5830
 2.2590	11.5120
 2.2600	11.4430
 2.2610	11.3720
 2.2620	11.3010
 2.2630	11.2310
 2.2640	11.1640
 2.2650	11.1000
 2.2660	11.0390
 2.2670	10.9800
 2.2680	10.9240
 2.2690	10.8700
 2.2700	10.8160
 2.2710	10.7660
 2.2720	10.7210
 2.2730	10.6750
 2.2740	10.6310
 2.2750	10.5890
 2.2760	10.5500
 2.2770	10.5100
 2.2780	10.4740
 2.2790	10.4390
 2.2800	10.4010
 2.2810	10.3700
 2.2820	10.3460
 2.2830	10.3150
 2.2840	10.2860
 2.2850	10.2530
 2.2860	10.2140
 2.2870	10.1800
 2.2880	10.1490
 2.2890	10.1130
 2.2900	10.0730
 2.2910	10.0330
 2.2920	 9.9880
 2.2930	 9.9470
 2.2940	 9.9080
 2.2950	 9.8690
 2.2960	 9.8320
 2.2970	 9.7950
 2.2980	 9.7590
 2.2990	 9.7220
 2.3000	 9.6850
 2.3010	 9.6480
 2.3020	 9.6130
 2.3030	 9.5780
 2.3040	 9.5460
 2.3050	 9.5150
 2.3060	 9.4840
 2.3070	 9.4530
 2.3080	 9.4300
 2.3090	 9.4140
 2.3100	 9.4000
 2.3110	 9.3960
 2.3120	 9.3900
 2.3130	 9.3910
 2.3140	 9.3880
 2.3150	 9.3860
 2.3160	 9.3840
 2.3170	 9.3840
 2.3180	 9.3800
 2.3190	 9.3790
 2.3200	 9.3730
 2.3210	 9.3590
 2.3220	 9.3500
 2.3230	 9.3420
 2.3240	 9.3270
 2.3250	 9.3120
 2.3260	 9.2940
 2.3270	 9.2690
 2.3280	 9.2450
 2.3290	 9.2230
 2.3300	 9.1970
 2.3310	 9.1650
 2.3320	 9.1410
 2.3330	 9.1200
 2.3340	 9.0960
 2.3350	 9.0760
 2.3360	 9.0510
 2.3370	 9.0200
 2.3380	 8.9950
 2.3390	 8.9660
 2.3400	 8.9390
 2.3410	 8.9130
 2.3420	 8.8870
 2.3430	 8.8650
 2.3440	 8.8440
 2.3450	 8.8280
 2.3460	 8.8100
 2.3470	 8.7950
 2.3480	 8.7760
 2.3490	 8.7490
 2.3500	 8.7300
 2.3510	 8.7080
 2.3520	 8.6910
 2.3530	 8.6820
 2.3540	 8.6690
 2.3550	 8.6550
 2.3560	 8.6460
 2.3570	 8.6270
 2.3580	 8.6130
 2.3590	 8.6000
 2.3600	 8.5840
 2.3610	 8.5680
 2.3620	 8.5570
 2.3630	 8.5530
 2.3640	 8.5430
 2.3650	 8.5240
 2.3660	 8.5060
 2.3670	 8.4740
 2.3680	 8.4440
 2.3690	 8.4300
 2.3700	 8.4130
 2.3710	 8.3980
 2.3720	 8.3790
 2.3730	 8.3580
 2.3740	 8.3360
 2.3750	 8.3220
 2.3760	 8.3080
 2.3770	 8.2830
 2.3780	 8.2540
 2.3790	 8.2300
 2.3800	 8.2070
 2.3810	 8.1960
 2.3820	 8.1860
 2.3830	 8.1720
 2.3840	 8.1440
 2.3850	 8.1240
 2.3860	 8.1150
 2.3870	 8.0980
 2.3880	 8.0800
 2.3890	 8.0550
 2.3900	 8.0210
 2.3910	 8.0040
 2.3920	 7.9860
 2.3930	 7.9640
 2.3940	 7.9430
 2.3950	 7.9170
 2.3960	 7.8830
 2.3970	 7.8630
 2.3980	 7.8410
 2.3990	 7.8110
 2.4000	 7.7950
 2.4010	 7.7670
 2.4020	 7.7290
 2.4030	 7.7080
 2.4040	 7.6760
 2.4050	 7.6560
 2.4060	 7.6490
 2.4070	 7.6280
 2.4080	 7.5960
 2.4090	 7.5630
 2.4100	 7.5190
 2.4110	 7.4850
 2.4120	 7.4640
 2.4130	 7.4400
 2.4140	 7.4130
 2.4150	 7.3880
 2.4160	 7.3570
 2.4170	 7.3300
 2.4180	 7.3170
 2.4190	 7.3070
 2.4200	 7.2890
 2.4210	 7.2760
 2.4220	 7.2540
 2.4230	 7.2240
 2.4240	 7.1950
 2.4250	 7.1510
 2.4260	 7.1110
 2.4270	 7.0800
 2.4280	 7.0540
 2.4290	 7.0290
 2.4300	 6.9960
 2.4310	 6.9700
 2.4320	 6.9410
 2.4330	 6.9080
 2.4340	 6.8940
 2.4350	 6.8760
 2.4360	 6.8520
 2.4370	 6.8440
 2.4380	 6.8210
 2.4390	 6.7800
 2.4400	 6.7420
 2.4410	 6.6990
 2.4420	 6.6630
 2.4430	 6.6260
 2.4440	 6.5940
 2.4450	 6.5690
 2.4460	 6.5340
 2.4470	 6.5060
 2.4480	 6.4870
 2.4490	 6.4600
 2.4500	 6.4360
 2.4510	 6.4120
 2.4520	 6.3750
 2.4530	 6.3370
 2.4540	 6.3140
 2.4550	 6.2960
 2.4560	 6.2750
 2.4570	 6.2480
 2.4580	 6.2150
 2.4590	 6.1970
 2.4600	 6.1850
 2.4610	 6.1820
 2.4620	 6.1820
 2.4630	 6.1630
 2.4640	 6.1400
 2.4650	 6.1250
 2.4660	 6.1050
 2.4670	 6.0770
 2.4680	 6.0410
 2.4690	 6.0080
 2.4700	 5.9880
 2.4710	 5.9820
 2.4720	 5.9720
 2.4730	 5.9740
 2.4740	 5.9500
 2.4750	 5.9150
 2.4760	 5.8860
 2.4770	 5.8350
 2.4780	 5.8130
 2.4790	 5.8170
 2.4800	 5.7920
 2.4810	 5.7650
 2.4820	 5.7470
 2.4830	 5.7340
 2.4840	 5.7450
 2.4850	 5.7370
 2.4860	 5.7380
 2.4870	 5.7060
 2.4880	 5.6840
 2.4890	 5.7100
 2.4900	 5.6920
 2.4910	 5.7080
 2.4920	 5.7510
 2.4930	 5.7340
 2.4940	 5.7440
 2.4950	 5.7710
 2.4960	 5.7290
 2.4970	 5.7010
 2.4980	 5.6790
 2.4990	 5.5940
 2.5000	 5.5520
