Name: Bambusa beecheyana
Type: vegetation
Class: Tree
Genus: Bambusa
Species: beecheyana
Sample No.: JPL237
Owner: JPL
Wavelength Range: VSWIR
Origin: 34.12719; -118.11127; WGS84
Collection Date: 10/6/2016
Description: Samples were collected at the Huntington Garden in San Marino California as part of a JPL Subcontract studying HyTES imagery. Samples were taken to JPL and processed within 48 hours of collection. The same leaves were processed in the Nicolet and then measured using the ASD.
Measurement: Bidirectional reflectance
First Column: X
Second Column: Y
X Units: Wavelength (micrometer)
Y Units: Reflectance (percentage)
First X Value: 0.35
Last X Value: 2.5
Number of X Values: 2151
Additional Information: vegetation.tree.bambusa.beecheyana.vswir.jpl237.jpl.asd.ancillary.txt

 0.3500	 6.6130
 0.3510	 6.4550
 0.3520	 6.6570
 0.3530	 6.8030
 0.3540	 6.5950
 0.3550	 6.4990
 0.3560	 6.5580
 0.3570	 6.6300
 0.3580	 6.5230
 0.3590	 6.4300
 0.3600	 6.4590
 0.3610	 6.5580
 0.3620	 6.4740
 0.3630	 6.4820
 0.3640	 6.5040
 0.3650	 6.4360
 0.3660	 6.4230
 0.3670	 6.4510
 0.3680	 6.4640
 0.3690	 6.3950
 0.3700	 6.4090
 0.3710	 6.4540
 0.3720	 6.4750
 0.3730	 6.4710
 0.3740	 6.3960
 0.3750	 6.3540
 0.3760	 6.4340
 0.3770	 6.4170
 0.3780	 6.3770
 0.3790	 6.3640
 0.3800	 6.3890
 0.3810	 6.3380
 0.3820	 6.2890
 0.3830	 6.3120
 0.3840	 6.4020
 0.3850	 6.4300
 0.3860	 6.3940
 0.3870	 6.3570
 0.3880	 6.4170
 0.3890	 6.4100
 0.3900	 6.3250
 0.3910	 6.3260
 0.3920	 6.3540
 0.3930	 6.3690
 0.3940	 6.3580
 0.3950	 6.3700
 0.3960	 6.4010
 0.3970	 6.4060
 0.3980	 6.3440
 0.3990	 6.3830
 0.4000	 6.4070
 0.4010	 6.3720
 0.4020	 6.3550
 0.4030	 6.4020
 0.4040	 6.4440
 0.4050	 6.4230
 0.4060	 6.4190
 0.4070	 6.4410
 0.4080	 6.4700
 0.4090	 6.4730
 0.4100	 6.4850
 0.4110	 6.5080
 0.4120	 6.5280
 0.4130	 6.5150
 0.4140	 6.5160
 0.4150	 6.5340
 0.4160	 6.5510
 0.4170	 6.5540
 0.4180	 6.5590
 0.4190	 6.5790
 0.4200	 6.6200
 0.4210	 6.6120
 0.4220	 6.5960
 0.4230	 6.6120
 0.4240	 6.6400
 0.4250	 6.6390
 0.4260	 6.6280
 0.4270	 6.6430
 0.4280	 6.6530
 0.4290	 6.6560
 0.4300	 6.6560
 0.4310	 6.6560
 0.4320	 6.6460
 0.4330	 6.6290
 0.4340	 6.6130
 0.4350	 6.6340
 0.4360	 6.6420
 0.4370	 6.6330
 0.4380	 6.6400
 0.4390	 6.6570
 0.4400	 6.6760
 0.4410	 6.6880
 0.4420	 6.6820
 0.4430	 6.6900
 0.4440	 6.7080
 0.4450	 6.7170
 0.4460	 6.7120
 0.4470	 6.7140
 0.4480	 6.7280
 0.4490	 6.7300
 0.4500	 6.7350
 0.4510	 6.7430
 0.4520	 6.7520
 0.4530	 6.7500
 0.4540	 6.7490
 0.4550	 6.7550
 0.4560	 6.7690
 0.4570	 6.7610
 0.4580	 6.7540
 0.4590	 6.7620
 0.4600	 6.7710
 0.4610	 6.7690
 0.4620	 6.7630
 0.4630	 6.7670
 0.4640	 6.7770
 0.4650	 6.7760
 0.4660	 6.7650
 0.4670	 6.7650
 0.4680	 6.7770
 0.4690	 6.7800
 0.4700	 6.7670
 0.4710	 6.7610
 0.4720	 6.7700
 0.4730	 6.7790
 0.4740	 6.7710
 0.4750	 6.7810
 0.4760	 6.7880
 0.4770	 6.7820
 0.4780	 6.7830
 0.4790	 6.7850
 0.4800	 6.7880
 0.4810	 6.7900
 0.4820	 6.7820
 0.4830	 6.7860
 0.4840	 6.7940
 0.4850	 6.7790
 0.4860	 6.7730
 0.4870	 6.7830
 0.4880	 6.8020
 0.4890	 6.8050
 0.4900	 6.8130
 0.4910	 6.8290
 0.4920	 6.8480
 0.4930	 6.8620
 0.4940	 6.8780
 0.4950	 6.9000
 0.4960	 6.9260
 0.4970	 6.9510
 0.4980	 6.9760
 0.4990	 7.0050
 0.5000	 7.0390
 0.5010	 7.0800
 0.5020	 7.1260
 0.5030	 7.1760
 0.5040	 7.2380
 0.5050	 7.3050
 0.5060	 7.3720
 0.5070	 7.4560
 0.5080	 7.5450
 0.5090	 7.6400
 0.5100	 7.7460
 0.5110	 7.8650
 0.5120	 7.9980
 0.5130	 8.1460
 0.5140	 8.3030
 0.5150	 8.4780
 0.5160	 8.6640
 0.5170	 8.8550
 0.5180	 9.0660
 0.5190	 9.2900
 0.5200	 9.5200
 0.5210	 9.7480
 0.5220	 9.9810
 0.5230	10.2210
 0.5240	10.4640
 0.5250	10.6910
 0.5260	10.9140
 0.5270	11.1290
 0.5280	11.3340
 0.5290	11.5230
 0.5300	11.6930
 0.5310	11.8480
 0.5320	12.0010
 0.5330	12.1360
 0.5340	12.2520
 0.5350	12.3560
 0.5360	12.4550
 0.5370	12.5380
 0.5380	12.6050
 0.5390	12.6630
 0.5400	12.7150
 0.5410	12.7560
 0.5420	12.7880
 0.5430	12.8230
 0.5440	12.8620
 0.5450	12.9020
 0.5460	12.9400
 0.5470	12.9830
 0.5480	13.0190
 0.5490	13.0450
 0.5500	13.0670
 0.5510	13.0820
 0.5520	13.0850
 0.5530	13.0730
 0.5540	13.0480
 0.5550	13.0100
 0.5560	12.9580
 0.5570	12.8890
 0.5580	12.8090
 0.5590	12.7150
 0.5600	12.6070
 0.5610	12.4910
 0.5620	12.3680
 0.5630	12.2410
 0.5640	12.1110
 0.5650	11.9710
 0.5660	11.8250
 0.5670	11.6790
 0.5680	11.5280
 0.5690	11.3740
 0.5700	11.2180
 0.5710	11.0670
 0.5720	10.9270
 0.5730	10.7850
 0.5740	10.6460
 0.5750	10.5260
 0.5760	10.4080
 0.5770	10.2950
 0.5780	10.1910
 0.5790	10.0950
 0.5800	10.0030
 0.5810	 9.9160
 0.5820	 9.8350
 0.5830	 9.7670
 0.5840	 9.7040
 0.5850	 9.6420
 0.5860	 9.5810
 0.5870	 9.5210
 0.5880	 9.4620
 0.5890	 9.4080
 0.5900	 9.3570
 0.5910	 9.3140
 0.5920	 9.2770
 0.5930	 9.2420
 0.5940	 9.2130
 0.5950	 9.1890
 0.5960	 9.1670
 0.5970	 9.1400
 0.5980	 9.1110
 0.5990	 9.0850
 0.6000	 9.0640
 0.6010	 9.0350
 0.6020	 9.0000
 0.6030	 8.9640
 0.6040	 8.9280
 0.6050	 8.8810
 0.6060	 8.8270
 0.6070	 8.7700
 0.6080	 8.7140
 0.6090	 8.6480
 0.6100	 8.5670
 0.6110	 8.4800
 0.6120	 8.4170
 0.6130	 8.3690
 0.6140	 8.3250
 0.6150	 8.2730
 0.6160	 8.2230
 0.6170	 8.1740
 0.6180	 8.1240
 0.6190	 8.0780
 0.6200	 8.0370
 0.6210	 8.0000
 0.6220	 7.9680
 0.6230	 7.9410
 0.6240	 7.9190
 0.6250	 7.9000
 0.6260	 7.8840
 0.6270	 7.8730
 0.6280	 7.8630
 0.6290	 7.8490
 0.6300	 7.8380
 0.6310	 7.8300
 0.6320	 7.8200
 0.6330	 7.8050
 0.6340	 7.7820
 0.6350	 7.7550
 0.6360	 7.7250
 0.6370	 7.6810
 0.6380	 7.6350
 0.6390	 7.5880
 0.6400	 7.5380
 0.6410	 7.4860
 0.6420	 7.4300
 0.6430	 7.3740
 0.6440	 7.3270
 0.6450	 7.2780
 0.6460	 7.2270
 0.6470	 7.1790
 0.6480	 7.1400
 0.6490	 7.1070
 0.6500	 7.0770
 0.6510	 7.0500
 0.6520	 7.0320
 0.6530	 7.0170
 0.6540	 6.9980
 0.6550	 6.9830
 0.6560	 6.9660
 0.6570	 6.9450
 0.6580	 6.9220
 0.6590	 6.8970
 0.6600	 6.8720
 0.6610	 6.8460
 0.6620	 6.8180
 0.6630	 6.7980
 0.6640	 6.7810
 0.6650	 6.7640
 0.6660	 6.7510
 0.6670	 6.7450
 0.6680	 6.7430
 0.6690	 6.7420
 0.6700	 6.7460
 0.6710	 6.7580
 0.6720	 6.7750
 0.6730	 6.7900
 0.6740	 6.8090
 0.6750	 6.8330
 0.6760	 6.8620
 0.6770	 6.8920
 0.6780	 6.9230
 0.6790	 6.9600
 0.6800	 7.0060
 0.6810	 7.0530
 0.6820	 7.1020
 0.6830	 7.1540
 0.6840	 7.2170
 0.6850	 7.2830
 0.6860	 7.3570
 0.6870	 7.4450
 0.6880	 7.5530
 0.6890	 7.6870
 0.6900	 7.8530
 0.6910	 8.0620
 0.6920	 8.3240
 0.6930	 8.6440
 0.6940	 9.0290
 0.6950	 9.4860
 0.6960	10.0110
 0.6970	10.6000
 0.6980	11.2480
 0.6990	11.9510
 0.7000	12.6990
 0.7010	13.4800
 0.7020	14.2830
 0.7030	15.1020
 0.7040	15.9270
 0.7050	16.7510
 0.7060	17.5710
 0.7070	18.3860
 0.7080	19.1950
 0.7090	19.9960
 0.7100	20.7920
 0.7110	21.5860
 0.7120	22.3760
 0.7130	23.1590
 0.7140	23.9400
 0.7150	24.7180
 0.7160	25.4910
 0.7170	26.2640
 0.7180	27.0320
 0.7190	27.7930
 0.7200	28.5490
 0.7210	29.2970
 0.7220	30.0350
 0.7230	30.7640
 0.7240	31.4790
 0.7250	32.1800
 0.7260	32.8660
 0.7270	33.5380
 0.7280	34.1850
 0.7290	34.8170
 0.7300	35.4290
 0.7310	36.0150
 0.7320	36.5790
 0.7330	37.1220
 0.7340	37.6420
 0.7350	38.1380
 0.7360	38.6100
 0.7370	39.0570
 0.7380	39.4790
 0.7390	39.8800
 0.7400	40.2560
 0.7410	40.6080
 0.7420	40.9370
 0.7430	41.2410
 0.7440	41.5240
 0.7450	41.7860
 0.7460	42.0230
 0.7470	42.2440
 0.7480	42.4460
 0.7490	42.6280
 0.7500	42.7910
 0.7510	42.9430
 0.7520	43.0820
 0.7530	43.2050
 0.7540	43.3170
 0.7550	43.4180
 0.7560	43.5080
 0.7570	43.5870
 0.7580	43.6610
 0.7590	43.7280
 0.7600	43.7880
 0.7610	43.8360
 0.7620	43.8810
 0.7630	43.9210
 0.7640	43.9560
 0.7650	43.9870
 0.7660	44.0130
 0.7670	44.0330
 0.7680	44.0510
 0.7690	44.0660
 0.7700	44.0800
 0.7710	44.0930
 0.7720	44.0990
 0.7730	44.1070
 0.7740	44.1160
 0.7750	44.1220
 0.7760	44.1250
 0.7770	44.1290
 0.7780	44.1320
 0.7790	44.1340
 0.7800	44.1370
 0.7810	44.1370
 0.7820	44.1360
 0.7830	44.1380
 0.7840	44.1380
 0.7850	44.1360
 0.7860	44.1340
 0.7870	44.1340
 0.7880	44.1300
 0.7890	44.1240
 0.7900	44.1200
 0.7910	44.1160
 0.7920	44.1100
 0.7930	44.1030
 0.7940	44.0950
 0.7950	44.0900
 0.7960	44.0810
 0.7970	44.0700
 0.7980	44.0600
 0.7990	44.0490
 0.8000	44.0380
 0.8010	44.0240
 0.8020	44.0090
 0.8030	43.9980
 0.8040	43.9860
 0.8050	43.9690
 0.8060	43.9540
 0.8070	43.9380
 0.8080	43.9220
 0.8090	43.9060
 0.8100	43.8880
 0.8110	43.8700
 0.8120	43.8510
 0.8130	43.8340
 0.8140	43.8160
 0.8150	43.7970
 0.8160	43.7770
 0.8170	43.7570
 0.8180	43.7380
 0.8190	43.7210
 0.8200	43.7030
 0.8210	43.6800
 0.8220	43.6620
 0.8230	43.6470
 0.8240	43.6270
 0.8250	43.6090
 0.8260	43.5930
 0.8270	43.5770
 0.8280	43.5540
 0.8290	43.5370
 0.8300	43.5220
 0.8310	43.5050
 0.8320	43.4840
 0.8330	43.4680
 0.8340	43.4540
 0.8350	43.4380
 0.8360	43.4240
 0.8370	43.4090
 0.8380	43.3940
 0.8390	43.3830
 0.8400	43.3690
 0.8410	43.3580
 0.8420	43.3500
 0.8430	43.3380
 0.8440	43.3300
 0.8450	43.3210
 0.8460	43.3110
 0.8470	43.2980
 0.8480	43.2910
 0.8490	43.2870
 0.8500	43.2780
 0.8510	43.2740
 0.8520	43.2650
 0.8530	43.2570
 0.8540	43.2570
 0.8550	43.2530
 0.8560	43.2480
 0.8570	43.2450
 0.8580	43.2460
 0.8590	43.2430
 0.8600	43.2390
 0.8610	43.2360
 0.8620	43.2370
 0.8630	43.2380
 0.8640	43.2400
 0.8650	43.2450
 0.8660	43.2440
 0.8670	43.2410
 0.8680	43.2400
 0.8690	43.2430
 0.8700	43.2480
 0.8710	43.2510
 0.8720	43.2540
 0.8730	43.2580
 0.8740	43.2650
 0.8750	43.2690
 0.8760	43.2710
 0.8770	43.2760
 0.8780	43.2810
 0.8790	43.2860
 0.8800	43.2890
 0.8810	43.2960
 0.8820	43.3030
 0.8830	43.3070
 0.8840	43.3100
 0.8850	43.3190
 0.8860	43.3240
 0.8870	43.3260
 0.8880	43.3280
 0.8890	43.3350
 0.8900	43.3450
 0.8910	43.3520
 0.8920	43.3520
 0.8930	43.3620
 0.8940	43.3690
 0.8950	43.3720
 0.8960	43.3790
 0.8970	43.3860
 0.8980	43.3910
 0.8990	43.3910
 0.9000	43.3920
 0.9010	43.4020
 0.9020	43.4090
 0.9030	43.4090
 0.9040	43.4150
 0.9050	43.4190
 0.9060	43.4270
 0.9070	43.4390
 0.9080	43.4350
 0.9090	43.4360
 0.9100	43.4400
 0.9110	43.4430
 0.9120	43.4490
 0.9130	43.4530
 0.9140	43.4530
 0.9150	43.4490
 0.9160	43.4520
 0.9170	43.4550
 0.9180	43.4530
 0.9190	43.4430
 0.9200	43.4480
 0.9210	43.4540
 0.9220	43.4510
 0.9230	43.4360
 0.9240	43.4330
 0.9250	43.4300
 0.9260	43.4260
 0.9270	43.4230
 0.9280	43.4180
 0.9290	43.4080
 0.9300	43.3970
 0.9310	43.3950
 0.9320	43.3820
 0.9330	43.3670
 0.9340	43.3600
 0.9350	43.3570
 0.9360	43.3410
 0.9370	43.3210
 0.9380	43.3070
 0.9390	43.2940
 0.9400	43.2860
 0.9410	43.2770
 0.9420	43.2640
 0.9430	43.2520
 0.9440	43.2360
 0.9450	43.2190
 0.9460	43.2010
 0.9470	43.1740
 0.9480	43.1550
 0.9490	43.1370
 0.9500	43.1150
 0.9510	43.1010
 0.9520	43.0730
 0.9530	43.0410
 0.9540	43.0190
 0.9550	42.9970
 0.9560	42.9700
 0.9570	42.9430
 0.9580	42.9220
 0.9590	42.9070
 0.9600	42.8820
 0.9610	42.8550
 0.9620	42.8380
 0.9630	42.8300
 0.9640	42.8120
 0.9650	42.7890
 0.9660	42.7700
 0.9670	42.7540
 0.9680	42.7440
 0.9690	42.7280
 0.9700	42.7030
 0.9710	42.7110
 0.9720	42.7170
 0.9730	42.7100
 0.9740	42.6940
 0.9750	42.6940
 0.9760	42.6650
 0.9770	42.6370
 0.9780	42.6560
 0.9790	42.6540
 0.9800	42.6420
 0.9810	42.6270
 0.9820	42.6130
 0.9830	42.6040
 0.9840	42.6040
 0.9850	42.6070
 0.9860	42.6040
 0.9870	42.5930
 0.9880	42.5860
 0.9890	42.5810
 0.9900	42.5720
 0.9910	42.5640
 0.9920	42.5670
 0.9930	42.5730
 0.9940	42.5690
 0.9950	42.5670
 0.9960	42.5670
 0.9970	42.5690
 0.9980	42.5720
 0.9990	42.5620
 1.0000	42.5560
 1.0010	42.6870
 1.0020	42.6880
 1.0030	42.6920
 1.0040	42.6890
 1.0050	42.6890
 1.0060	42.6930
 1.0070	42.6920
 1.0080	42.6920
 1.0090	42.6940
 1.0100	42.6930
 1.0110	42.6880
 1.0120	42.6870
 1.0130	42.6890
 1.0140	42.6900
 1.0150	42.6920
 1.0160	42.6920
 1.0170	42.6900
 1.0180	42.6870
 1.0190	42.6830
 1.0200	42.6810
 1.0210	42.6850
 1.0220	42.6910
 1.0230	42.6940
 1.0240	42.7010
 1.0250	42.7020
 1.0260	42.6950
 1.0270	42.6940
 1.0280	42.6950
 1.0290	42.6950
 1.0300	42.6980
 1.0310	42.6990
 1.0320	42.6980
 1.0330	42.6980
 1.0340	42.7020
 1.0350	42.7010
 1.0360	42.7000
 1.0370	42.6990
 1.0380	42.7020
 1.0390	42.7060
 1.0400	42.7070
 1.0410	42.7080
 1.0420	42.7110
 1.0430	42.7110
 1.0440	42.7120
 1.0450	42.7170
 1.0460	42.7180
 1.0470	42.7160
 1.0480	42.7150
 1.0490	42.7150
 1.0500	42.7140
 1.0510	42.7170
 1.0520	42.7150
 1.0530	42.7120
 1.0540	42.7080
 1.0550	42.7060
 1.0560	42.7020
 1.0570	42.6990
 1.0580	42.6960
 1.0590	42.6950
 1.0600	42.6940
 1.0610	42.6930
 1.0620	42.6950
 1.0630	42.6950
 1.0640	42.6940
 1.0650	42.6940
 1.0660	42.6980
 1.0670	42.6980
 1.0680	42.6960
 1.0690	42.6920
 1.0700	42.6890
 1.0710	42.6810
 1.0720	42.6790
 1.0730	42.6800
 1.0740	42.6790
 1.0750	42.6780
 1.0760	42.6770
 1.0770	42.6760
 1.0780	42.6750
 1.0790	42.6740
 1.0800	42.6720
 1.0810	42.6690
 1.0820	42.6680
 1.0830	42.6680
 1.0840	42.6670
 1.0850	42.6670
 1.0860	42.6680
 1.0870	42.6670
 1.0880	42.6650
 1.0890	42.6620
 1.0900	42.6570
 1.0910	42.6550
 1.0920	42.6530
 1.0930	42.6500
 1.0940	42.6490
 1.0950	42.6470
 1.0960	42.6450
 1.0970	42.6430
 1.0980	42.6430
 1.0990	42.6410
 1.1000	42.6370
 1.1010	42.6340
 1.1020	42.6300
 1.1030	42.6290
 1.1040	42.6280
 1.1050	42.6250
 1.1060	42.6200
 1.1070	42.6130
 1.1080	42.6080
 1.1090	42.6040
 1.1100	42.6000
 1.1110	42.5990
 1.1120	42.5950
 1.1130	42.5900
 1.1140	42.5860
 1.1150	42.5830
 1.1160	42.5790
 1.1170	42.5750
 1.1180	42.5690
 1.1190	42.5600
 1.1200	42.5520
 1.1210	42.5400
 1.1220	42.5260
 1.1230	42.5130
 1.1240	42.5000
 1.1250	42.4860
 1.1260	42.4740
 1.1270	42.4590
 1.1280	42.4430
 1.1290	42.4240
 1.1300	42.4030
 1.1310	42.3780
 1.1320	42.3500
 1.1330	42.3190
 1.1340	42.2860
 1.1350	42.2520
 1.1360	42.2160
 1.1370	42.1780
 1.1380	42.1380
 1.1390	42.0940
 1.1400	42.0490
 1.1410	42.0030
 1.1420	41.9580
 1.1430	41.9120
 1.1440	41.8660
 1.1450	41.8180
 1.1460	41.7720
 1.1470	41.7250
 1.1480	41.6790
 1.1490	41.6330
 1.1500	41.5900
 1.1510	41.5490
 1.1520	41.5100
 1.1530	41.4750
 1.1540	41.4420
 1.1550	41.4110
 1.1560	41.3810
 1.1570	41.3560
 1.1580	41.3320
 1.1590	41.3080
 1.1600	41.2870
 1.1610	41.2680
 1.1620	41.2510
 1.1630	41.2370
 1.1640	41.2230
 1.1650	41.2090
 1.1660	41.1940
 1.1670	41.1820
 1.1680	41.1710
 1.1690	41.1600
 1.1700	41.1500
 1.1710	41.1420
 1.1720	41.1340
 1.1730	41.1270
 1.1740	41.1210
 1.1750	41.1140
 1.1760	41.1060
 1.1770	41.0960
 1.1780	41.0830
 1.1790	41.0720
 1.1800	41.0600
 1.1810	41.0470
 1.1820	41.0370
 1.1830	41.0280
 1.1840	41.0190
 1.1850	41.0110
 1.1860	41.0020
 1.1870	40.9930
 1.1880	40.9830
 1.1890	40.9750
 1.1900	40.9660
 1.1910	40.9570
 1.1920	40.9490
 1.1930	40.9430
 1.1940	40.9370
 1.1950	40.9320
 1.1960	40.9280
 1.1970	40.9230
 1.1980	40.9200
 1.1990	40.9160
 1.2000	40.9120
 1.2010	40.9110
 1.2020	40.9090
 1.2030	40.9080
 1.2040	40.9090
 1.2050	40.9070
 1.2060	40.9050
 1.2070	40.9030
 1.2080	40.9010
 1.2090	40.9020
 1.2100	40.9050
 1.2110	40.9080
 1.2120	40.9130
 1.2130	40.9160
 1.2140	40.9160
 1.2150	40.9180
 1.2160	40.9210
 1.2170	40.9230
 1.2180	40.9260
 1.2190	40.9310
 1.2200	40.9350
 1.2210	40.9380
 1.2220	40.9440
 1.2230	40.9510
 1.2240	40.9570
 1.2250	40.9620
 1.2260	40.9670
 1.2270	40.9700
 1.2280	40.9740
 1.2290	40.9800
 1.2300	40.9860
 1.2310	40.9910
 1.2320	40.9960
 1.2330	41.0000
 1.2340	41.0030
 1.2350	41.0060
 1.2360	41.0090
 1.2370	41.0110
 1.2380	41.0140
 1.2390	41.0160
 1.2400	41.0180
 1.2410	41.0210
 1.2420	41.0230
 1.2430	41.0230
 1.2440	41.0250
 1.2450	41.0270
 1.2460	41.0280
 1.2470	41.0280
 1.2480	41.0300
 1.2490	41.0310
 1.2500	41.0320
 1.2510	41.0330
 1.2520	41.0330
 1.2530	41.0320
 1.2540	41.0300
 1.2550	41.0280
 1.2560	41.0260
 1.2570	41.0240
 1.2580	41.0220
 1.2590	41.0190
 1.2600	41.0170
 1.2610	41.0130
 1.2620	41.0080
 1.2630	41.0050
 1.2640	41.0000
 1.2650	40.9940
 1.2660	40.9900
 1.2670	40.9830
 1.2680	40.9760
 1.2690	40.9730
 1.2700	40.9680
 1.2710	40.9620
 1.2720	40.9570
 1.2730	40.9480
 1.2740	40.9400
 1.2750	40.9320
 1.2760	40.9250
 1.2770	40.9190
 1.2780	40.9100
 1.2790	40.9010
 1.2800	40.8920
 1.2810	40.8800
 1.2820	40.8670
 1.2830	40.8530
 1.2840	40.8390
 1.2850	40.8250
 1.2860	40.8130
 1.2870	40.8000
 1.2880	40.7860
 1.2890	40.7720
 1.2900	40.7560
 1.2910	40.7380
 1.2920	40.7200
 1.2930	40.7020
 1.2940	40.6820
 1.2950	40.6610
 1.2960	40.6410
 1.2970	40.6220
 1.2980	40.6010
 1.2990	40.5800
 1.3000	40.5560
 1.3010	40.5300
 1.3020	40.5050
 1.3030	40.4810
 1.3040	40.4560
 1.3050	40.4330
 1.3060	40.4060
 1.3070	40.3780
 1.3080	40.3500
 1.3090	40.3210
 1.3100	40.2930
 1.3110	40.2650
 1.3120	40.2340
 1.3130	40.2030
 1.3140	40.1690
 1.3150	40.1340
 1.3160	40.0980
 1.3170	40.0620
 1.3180	40.0250
 1.3190	39.9870
 1.3200	39.9470
 1.3210	39.9080
 1.3220	39.8670
 1.3230	39.8250
 1.3240	39.7830
 1.3250	39.7390
 1.3260	39.6920
 1.3270	39.6470
 1.3280	39.5990
 1.3290	39.5510
 1.3300	39.5030
 1.3310	39.4530
 1.3320	39.4020
 1.3330	39.3510
 1.3340	39.2990
 1.3350	39.2470
 1.3360	39.1950
 1.3370	39.1420
 1.3380	39.0880
 1.3390	39.0360
 1.3400	38.9820
 1.3410	38.9280
 1.3420	38.8740
 1.3430	38.8190
 1.3440	38.7640
 1.3450	38.7090
 1.3460	38.6550
 1.3470	38.6020
 1.3480	38.5480
 1.3490	38.4940
 1.3500	38.4410
 1.3510	38.3880
 1.3520	38.3330
 1.3530	38.2810
 1.3540	38.2280
 1.3550	38.1740
 1.3560	38.1190
 1.3570	38.0620
 1.3580	38.0050
 1.3590	37.9460
 1.3600	37.8870
 1.3610	37.8280
 1.3620	37.7670
 1.3630	37.7040
 1.3640	37.6390
 1.3650	37.5670
 1.3660	37.4930
 1.3670	37.4160
 1.3680	37.3350
 1.3690	37.2500
 1.3700	37.1580
 1.3710	37.0590
 1.3720	36.9510
 1.3730	36.8340
 1.3740	36.7080
 1.3750	36.5720
 1.3760	36.4230
 1.3770	36.2640
 1.3780	36.0890
 1.3790	35.9010
 1.3800	35.7000
 1.3810	35.4820
 1.3820	35.2510
 1.3830	35.0060
 1.3840	34.7460
 1.3850	34.4720
 1.3860	34.1830
 1.3870	33.8780
 1.3880	33.5630
 1.3890	33.2350
 1.3900	32.8940
 1.3910	32.5460
 1.3920	32.1880
 1.3930	31.8190
 1.3940	31.4460
 1.3950	31.0660
 1.3960	30.6850
 1.3970	30.3040
 1.3980	29.9240
 1.3990	29.5510
 1.4000	29.1820
 1.4010	28.8180
 1.4020	28.4620
 1.4030	28.1130
 1.4040	27.7760
 1.4050	27.4510
 1.4060	27.1370
 1.4070	26.8370
 1.4080	26.5500
 1.4090	26.2750
 1.4100	26.0160
 1.4110	25.7690
 1.4120	25.5350
 1.4130	25.3140
 1.4140	25.1060
 1.4150	24.9130
 1.4160	24.7320
 1.4170	24.5620
 1.4180	24.4060
 1.4190	24.2580
 1.4200	24.1210
 1.4210	23.9950
 1.4220	23.8780
 1.4230	23.7710
 1.4240	23.6730
 1.4250	23.5820
 1.4260	23.4990
 1.4270	23.4220
 1.4280	23.3520
 1.4290	23.2870
 1.4300	23.2300
 1.4310	23.1780
 1.4320	23.1330
 1.4330	23.0920
 1.4340	23.0570
 1.4350	23.0260
 1.4360	22.9990
 1.4370	22.9760
 1.4380	22.9570
 1.4390	22.9420
 1.4400	22.9290
 1.4410	22.9210
 1.4420	22.9170
 1.4430	22.9150
 1.4440	22.9160
 1.4450	22.9180
 1.4460	22.9210
 1.4470	22.9270
 1.4480	22.9340
 1.4490	22.9420
 1.4500	22.9520
 1.4510	22.9640
 1.4520	22.9770
 1.4530	22.9920
 1.4540	23.0090
 1.4550	23.0270
 1.4560	23.0480
 1.4570	23.0720
 1.4580	23.0980
 1.4590	23.1280
 1.4600	23.1600
 1.4610	23.1960
 1.4620	23.2360
 1.4630	23.2790
 1.4640	23.3260
 1.4650	23.3790
 1.4660	23.4350
 1.4670	23.4960
 1.4680	23.5630
 1.4690	23.6330
 1.4700	23.7060
 1.4710	23.7820
 1.4720	23.8610
 1.4730	23.9450
 1.4740	24.0320
 1.4750	24.1220
 1.4760	24.2140
 1.4770	24.3070
 1.4780	24.4000
 1.4790	24.4960
 1.4800	24.5930
 1.4810	24.6920
 1.4820	24.7930
 1.4830	24.8930
 1.4840	24.9940
 1.4850	25.0950
 1.4860	25.1970
 1.4870	25.2990
 1.4880	25.4000
 1.4890	25.5020
 1.4900	25.6040
 1.4910	25.7060
 1.4920	25.8090
 1.4930	25.9130
 1.4940	26.0160
 1.4950	26.1200
 1.4960	26.2230
 1.4970	26.3250
 1.4980	26.4280
 1.4990	26.5300
 1.5000	26.6320
 1.5010	26.7350
 1.5020	26.8370
 1.5030	26.9380
 1.5040	27.0380
 1.5050	27.1380
 1.5060	27.2370
 1.5070	27.3360
 1.5080	27.4350
 1.5090	27.5340
 1.5100	27.6320
 1.5110	27.7300
 1.5120	27.8270
 1.5130	27.9220
 1.5140	28.0160
 1.5150	28.1090
 1.5160	28.2020
 1.5170	28.2960
 1.5180	28.3890
 1.5190	28.4810
 1.5200	28.5730
 1.5210	28.6610
 1.5220	28.7490
 1.5230	28.8370
 1.5240	28.9230
 1.5250	29.0100
 1.5260	29.0970
 1.5270	29.1810
 1.5280	29.2640
 1.5290	29.3460
 1.5300	29.4280
 1.5310	29.5070
 1.5320	29.5830
 1.5330	29.6600
 1.5340	29.7340
 1.5350	29.8080
 1.5360	29.8840
 1.5370	29.9580
 1.5380	30.0300
 1.5390	30.0990
 1.5400	30.1680
 1.5410	30.2370
 1.5420	30.3060
 1.5430	30.3760
 1.5440	30.4440
 1.5450	30.5100
 1.5460	30.5760
 1.5470	30.6420
 1.5480	30.7050
 1.5490	30.7680
 1.5500	30.8310
 1.5510	30.8920
 1.5520	30.9530
 1.5530	31.0130
 1.5540	31.0710
 1.5550	31.1290
 1.5560	31.1860
 1.5570	31.2420
 1.5580	31.2980
 1.5590	31.3520
 1.5600	31.4050
 1.5610	31.4570
 1.5620	31.5080
 1.5630	31.5590
 1.5640	31.6090
 1.5650	31.6580
 1.5660	31.7060
 1.5670	31.7540
 1.5680	31.8010
 1.5690	31.8460
 1.5700	31.8910
 1.5710	31.9370
 1.5720	31.9810
 1.5730	32.0270
 1.5740	32.0710
 1.5750	32.1130
 1.5760	32.1550
 1.5770	32.1970
 1.5780	32.2400
 1.5790	32.2830
 1.5800	32.3230
 1.5810	32.3630
 1.5820	32.4040
 1.5830	32.4450
 1.5840	32.4870
 1.5850	32.5280
 1.5860	32.5680
 1.5870	32.6070
 1.5880	32.6470
 1.5890	32.6870
 1.5900	32.7270
 1.5910	32.7670
 1.5920	32.8080
 1.5930	32.8460
 1.5940	32.8830
 1.5950	32.9210
 1.5960	32.9570
 1.5970	32.9930
 1.5980	33.0280
 1.5990	33.0630
 1.6000	33.0980
 1.6010	33.1330
 1.6020	33.1690
 1.6030	33.2050
 1.6040	33.2390
 1.6050	33.2730
 1.6060	33.3070
 1.6070	33.3380
 1.6080	33.3700
 1.6090	33.4020
 1.6100	33.4350
 1.6110	33.4670
 1.6120	33.4980
 1.6130	33.5280
 1.6140	33.5560
 1.6150	33.5830
 1.6160	33.6100
 1.6170	33.6390
 1.6180	33.6670
 1.6190	33.6940
 1.6200	33.7200
 1.6210	33.7460
 1.6220	33.7690
 1.6230	33.7920
 1.6240	33.8160
 1.6250	33.8380
 1.6260	33.8610
 1.6270	33.8840
 1.6280	33.9040
 1.6290	33.9250
 1.6300	33.9450
 1.6310	33.9630
 1.6320	33.9810
 1.6330	33.9980
 1.6340	34.0140
 1.6350	34.0310
 1.6360	34.0470
 1.6370	34.0620
 1.6380	34.0750
 1.6390	34.0880
 1.6400	34.1000
 1.6410	34.1110
 1.6420	34.1210
 1.6430	34.1310
 1.6440	34.1400
 1.6450	34.1490
 1.6460	34.1570
 1.6470	34.1650
 1.6480	34.1720
 1.6490	34.1790
 1.6500	34.1850
 1.6510	34.1890
 1.6520	34.1900
 1.6530	34.1910
 1.6540	34.1910
 1.6550	34.1900
 1.6560	34.1870
 1.6570	34.1840
 1.6580	34.1790
 1.6590	34.1740
 1.6600	34.1700
 1.6610	34.1650
 1.6620	34.1630
 1.6630	34.1590
 1.6640	34.1550
 1.6650	34.1520
 1.6660	34.1470
 1.6670	34.1430
 1.6680	34.1380
 1.6690	34.1300
 1.6700	34.1200
 1.6710	34.1080
 1.6720	34.0950
 1.6730	34.0810
 1.6740	34.0660
 1.6750	34.0470
 1.6760	34.0280
 1.6770	34.0080
 1.6780	33.9860
 1.6790	33.9660
 1.6800	33.9450
 1.6810	33.9210
 1.6820	33.8970
 1.6830	33.8700
 1.6840	33.8420
 1.6850	33.8120
 1.6860	33.7800
 1.6870	33.7500
 1.6880	33.7200
 1.6890	33.6910
 1.6900	33.6620
 1.6910	33.6300
 1.6920	33.6010
 1.6930	33.5730
 1.6940	33.5450
 1.6950	33.5180
 1.6960	33.4910
 1.6970	33.4630
 1.6980	33.4350
 1.6990	33.4100
 1.7000	33.3820
 1.7010	33.3540
 1.7020	33.3270
 1.7030	33.3000
 1.7040	33.2720
 1.7050	33.2460
 1.7060	33.2190
 1.7070	33.1900
 1.7080	33.1610
 1.7090	33.1320
 1.7100	33.1030
 1.7110	33.0730
 1.7120	33.0430
 1.7130	33.0140
 1.7140	32.9850
 1.7150	32.9560
 1.7160	32.9260
 1.7170	32.8970
 1.7180	32.8670
 1.7190	32.8360
 1.7200	32.8050
 1.7210	32.7740
 1.7220	32.7450
 1.7230	32.7160
 1.7240	32.6870
 1.7250	32.6580
 1.7260	32.6270
 1.7270	32.5970
 1.7280	32.5690
 1.7290	32.5410
 1.7300	32.5150
 1.7310	32.4910
 1.7320	32.4670
 1.7330	32.4460
 1.7340	32.4280
 1.7350	32.4100
 1.7360	32.3950
 1.7370	32.3760
 1.7380	32.3550
 1.7390	32.3330
 1.7400	32.3090
 1.7410	32.2830
 1.7420	32.2570
 1.7430	32.2280
 1.7440	32.1950
 1.7450	32.1630
 1.7460	32.1300
 1.7470	32.0970
 1.7480	32.0650
 1.7490	32.0300
 1.7500	31.9900
 1.7510	31.9530
 1.7520	31.9140
 1.7530	31.8750
 1.7540	31.8370
 1.7550	31.7960
 1.7560	31.7540
 1.7570	31.7130
 1.7580	31.6720
 1.7590	31.6340
 1.7600	31.5970
 1.7610	31.5620
 1.7620	31.5270
 1.7630	31.4910
 1.7640	31.4570
 1.7650	31.4230
 1.7660	31.3920
 1.7670	31.3650
 1.7680	31.3370
 1.7690	31.3110
 1.7700	31.2840
 1.7710	31.2570
 1.7720	31.2320
 1.7730	31.2110
 1.7740	31.1890
 1.7750	31.1670
 1.7760	31.1460
 1.7770	31.1250
 1.7780	31.1050
 1.7790	31.0880
 1.7800	31.0710
 1.7810	31.0520
 1.7820	31.0370
 1.7830	31.0230
 1.7840	31.0110
 1.7850	31.0010
 1.7860	30.9930
 1.7870	30.9850
 1.7880	30.9780
 1.7890	30.9730
 1.7900	30.9670
 1.7910	30.9620
 1.7920	30.9600
 1.7930	30.9580
 1.7940	30.9570
 1.7950	30.9560
 1.7960	30.9540
 1.7970	30.9550
 1.7980	30.9580
 1.7990	30.9590
 1.8000	30.9610
 1.8010	30.9640
 1.8020	30.9650
 1.8030	30.9670
 1.8040	30.9720
 1.8050	30.9750
 1.8060	30.9770
 1.8070	30.9810
 1.8080	30.9860
 1.8090	30.9890
 1.8100	30.9920
 1.8110	30.9890
 1.8120	30.9870
 1.8130	30.9870
 1.8140	30.9860
 1.8150	30.9900
 1.8160	30.9920
 1.8170	30.9890
 1.8180	30.9870
 1.8190	30.9840
 1.8200	30.9810
 1.8210	30.9820
 1.8220	30.9800
 1.8230	30.9750
 1.8240	30.9700
 1.8250	30.9640
 1.8260	30.9560
 1.8270	30.9460
 1.8280	30.9370
 1.8290	30.9290
 1.8300	30.9170
 1.8310	30.5430
 1.8320	30.5250
 1.8330	30.5030
 1.8340	30.4860
 1.8350	30.4680
 1.8360	30.4430
 1.8370	30.4180
 1.8380	30.3900
 1.8390	30.3570
 1.8400	30.3190
 1.8410	30.2800
 1.8420	30.2380
 1.8430	30.1900
 1.8440	30.1380
 1.8450	30.0810
 1.8460	30.0210
 1.8470	29.9520
 1.8480	29.8740
 1.8490	29.7950
 1.8500	29.7080
 1.8510	29.6140
 1.8520	29.5130
 1.8530	29.4090
 1.8540	29.2920
 1.8550	29.1630
 1.8560	29.0230
 1.8570	28.8720
 1.8580	28.7080
 1.8590	28.5330
 1.8600	28.3470
 1.8610	28.1510
 1.8620	27.9390
 1.8630	27.7140
 1.8640	27.4740
 1.8650	27.2140
 1.8660	26.9380
 1.8670	26.6400
 1.8680	26.3280
 1.8690	26.0010
 1.8700	25.6520
 1.8710	25.2860
 1.8720	24.9070
 1.8730	24.5070
 1.8740	24.0850
 1.8750	23.6480
 1.8760	23.1930
 1.8770	22.7260
 1.8780	22.2490
 1.8790	21.7580
 1.8800	21.2620
 1.8810	20.7590
 1.8820	20.2450
 1.8830	19.7260
 1.8840	19.2060
 1.8850	18.6750
 1.8860	18.1420
 1.8870	17.6140
 1.8880	17.0850
 1.8890	16.5740
 1.8900	16.0750
 1.8910	15.5910
 1.8920	15.1170
 1.8930	14.6650
 1.8940	14.2250
 1.8950	13.8080
 1.8960	13.4140
 1.8970	13.0420
 1.8980	12.7000
 1.8990	12.3790
 1.9000	12.0790
 1.9010	11.8040
 1.9020	11.5450
 1.9030	11.3040
 1.9040	11.0880
 1.9050	10.8900
 1.9060	10.7110
 1.9070	10.5540
 1.9080	10.4100
 1.9090	10.2810
 1.9100	10.1650
 1.9110	10.0580
 1.9120	 9.9620
 1.9130	 9.8770
 1.9140	 9.8030
 1.9150	 9.7380
 1.9160	 9.6820
 1.9170	 9.6320
 1.9180	 9.5870
 1.9190	 9.5480
 1.9200	 9.5120
 1.9210	 9.4840
 1.9220	 9.4600
 1.9230	 9.4430
 1.9240	 9.4280
 1.9250	 9.4210
 1.9260	 9.4140
 1.9270	 9.4090
 1.9280	 9.4100
 1.9290	 9.4120
 1.9300	 9.4170
 1.9310	 9.4260
 1.9320	 9.4420
 1.9330	 9.4600
 1.9340	 9.4810
 1.9350	 9.5070
 1.9360	 9.5380
 1.9370	 9.5690
 1.9380	 9.6010
 1.9390	 9.6360
 1.9400	 9.6710
 1.9410	 9.7060
 1.9420	 9.7450
 1.9430	 9.7880
 1.9440	 9.8340
 1.9450	 9.8850
 1.9460	 9.9370
 1.9470	 9.9920
 1.9480	10.0450
 1.9490	10.0980
 1.9500	10.1520
 1.9510	10.2070
 1.9520	10.2640
 1.9530	10.3270
 1.9540	10.3890
 1.9550	10.4530
 1.9560	10.5180
 1.9570	10.5850
 1.9580	10.6550
 1.9590	10.7250
 1.9600	10.7960
 1.9610	10.8670
 1.9620	10.9390
 1.9630	11.0120
 1.9640	11.0870
 1.9650	11.1640
 1.9660	11.2440
 1.9670	11.3210
 1.9680	11.4000
 1.9690	11.4790
 1.9700	11.5590
 1.9710	11.6360
 1.9720	11.7180
 1.9730	11.8020
 1.9740	11.8870
 1.9750	11.9710
 1.9760	12.0590
 1.9770	12.1470
 1.9780	12.2340
 1.9790	12.3240
 1.9800	12.4180
 1.9810	12.5100
 1.9820	12.6050
 1.9830	12.6970
 1.9840	12.7880
 1.9850	12.8810
 1.9860	12.9750
 1.9870	13.0670
 1.9880	13.1620
 1.9890	13.2560
 1.9900	13.3490
 1.9910	13.4430
 1.9920	13.5360
 1.9930	13.6270
 1.9940	13.7210
 1.9950	13.8170
 1.9960	13.9110
 1.9970	14.0040
 1.9980	14.0980
 1.9990	14.1910
 2.0000	14.2850
 2.0010	14.3800
 2.0020	14.4740
 2.0030	14.5650
 2.0040	14.6540
 2.0050	14.7440
 2.0060	14.8350
 2.0070	14.9260
 2.0080	15.0190
 2.0090	15.1100
 2.0100	15.2030
 2.0110	15.2920
 2.0120	15.3790
 2.0130	15.4630
 2.0140	15.5460
 2.0150	15.6290
 2.0160	15.7120
 2.0170	15.8000
 2.0180	15.8840
 2.0190	15.9710
 2.0200	16.0520
 2.0210	16.1270
 2.0220	16.2040
 2.0230	16.2800
 2.0240	16.3540
 2.0250	16.4280
 2.0260	16.5010
 2.0270	16.5710
 2.0280	16.6400
 2.0290	16.7110
 2.0300	16.7790
 2.0310	16.8450
 2.0320	16.9090
 2.0330	16.9710
 2.0340	17.0300
 2.0350	17.0890
 2.0360	17.1450
 2.0370	17.2020
 2.0380	17.2590
 2.0390	17.3150
 2.0400	17.3700
 2.0410	17.4250
 2.0420	17.4770
 2.0430	17.5290
 2.0440	17.5800
 2.0450	17.6300
 2.0460	17.6800
 2.0470	17.7300
 2.0480	17.7780
 2.0490	17.8240
 2.0500	17.8710
 2.0510	17.9160
 2.0520	17.9630
 2.0530	18.0110
 2.0540	18.0590
 2.0550	18.1050
 2.0560	18.1560
 2.0570	18.2050
 2.0580	18.2550
 2.0590	18.3060
 2.0600	18.3600
 2.0610	18.4130
 2.0620	18.4680
 2.0630	18.5230
 2.0640	18.5800
 2.0650	18.6350
 2.0660	18.6910
 2.0670	18.7470
 2.0680	18.8030
 2.0690	18.8580
 2.0700	18.9140
 2.0710	18.9690
 2.0720	19.0230
 2.0730	19.0780
 2.0740	19.1310
 2.0750	19.1810
 2.0760	19.2360
 2.0770	19.2920
 2.0780	19.3470
 2.0790	19.4090
 2.0800	19.4630
 2.0810	19.5110
 2.0820	19.5630
 2.0830	19.6130
 2.0840	19.6650
 2.0850	19.7190
 2.0860	19.7720
 2.0870	19.8260
 2.0880	19.8790
 2.0890	19.9300
 2.0900	19.9780
 2.0910	20.0270
 2.0920	20.0740
 2.0930	20.1230
 2.0940	20.1710
 2.0950	20.2210
 2.0960	20.2740
 2.0970	20.3220
 2.0980	20.3700
 2.0990	20.4180
 2.1000	20.4640
 2.1010	20.5100
 2.1020	20.5580
 2.1030	20.6050
 2.1040	20.6520
 2.1050	20.6940
 2.1060	20.7390
 2.1070	20.7840
 2.1080	20.8280
 2.1090	20.8730
 2.1100	20.9190
 2.1110	20.9660
 2.1120	21.0100
 2.1130	21.0530
 2.1140	21.0970
 2.1150	21.1440
 2.1160	21.1870
 2.1170	21.2290
 2.1180	21.2720
 2.1190	21.3130
 2.1200	21.3530
 2.1210	21.3950
 2.1220	21.4390
 2.1230	21.4800
 2.1240	21.5200
 2.1250	21.5600
 2.1260	21.6020
 2.1270	21.6390
 2.1280	21.6730
 2.1290	21.7070
 2.1300	21.7380
 2.1310	21.7710
 2.1320	21.8040
 2.1330	21.8360
 2.1340	21.8700
 2.1350	21.9010
 2.1360	21.9320
 2.1370	21.9600
 2.1380	21.9810
 2.1390	22.0070
 2.1400	22.0330
 2.1410	22.0590
 2.1420	22.0830
 2.1430	22.1080
 2.1440	22.1290
 2.1450	22.1410
 2.1460	22.1620
 2.1470	22.1850
 2.1480	22.2060
 2.1490	22.2300
 2.1500	22.2480
 2.1510	22.2600
 2.1520	22.2750
 2.1530	22.2910
 2.1540	22.3030
 2.1550	22.3160
 2.1560	22.3280
 2.1570	22.3380
 2.1580	22.3470
 2.1590	22.3580
 2.1600	22.3670
 2.1610	22.3710
 2.1620	22.3810
 2.1630	22.3900
 2.1640	22.4020
 2.1650	22.4110
 2.1660	22.4210
 2.1670	22.4290
 2.1680	22.4350
 2.1690	22.4430
 2.1700	22.4520
 2.1710	22.4610
 2.1720	22.4720
 2.1730	22.4820
 2.1740	22.4900
 2.1750	22.5020
 2.1760	22.5170
 2.1770	22.5290
 2.1780	22.5410
 2.1790	22.5540
 2.1800	22.5660
 2.1810	22.5780
 2.1820	22.5900
 2.1830	22.6060
 2.1840	22.6220
 2.1850	22.6390
 2.1860	22.6550
 2.1870	22.6770
 2.1880	22.6910
 2.1890	22.7010
 2.1900	22.7130
 2.1910	22.7250
 2.1920	22.7360
 2.1930	22.7470
 2.1940	22.7590
 2.1950	22.7680
 2.1960	22.7790
 2.1970	22.7940
 2.1980	22.8040
 2.1990	22.8120
 2.2000	22.8180
 2.2010	22.8210
 2.2020	22.8240
 2.2030	22.8270
 2.2040	22.8280
 2.2050	22.8260
 2.2060	22.8270
 2.2070	22.8270
 2.2080	22.8260
 2.2090	22.8220
 2.2100	22.8160
 2.2110	22.8080
 2.2120	22.7950
 2.2130	22.7840
 2.2140	22.7730
 2.2150	22.7630
 2.2160	22.7530
 2.2170	22.7410
 2.2180	22.7320
 2.2190	22.7180
 2.2200	22.6980
 2.2210	22.6810
 2.2220	22.6640
 2.2230	22.6460
 2.2240	22.6300
 2.2250	22.6100
 2.2260	22.5860
 2.2270	22.5580
 2.2280	22.5270
 2.2290	22.4910
 2.2300	22.4480
 2.2310	22.4030
 2.2320	22.3510
 2.2330	22.2980
 2.2340	22.2390
 2.2350	22.1750
 2.2360	22.1100
 2.2370	22.0400
 2.2380	21.9720
 2.2390	21.9010
 2.2400	21.8340
 2.2410	21.7670
 2.2420	21.7040
 2.2430	21.6430
 2.2440	21.5850
 2.2450	21.5280
 2.2460	21.4800
 2.2470	21.4410
 2.2480	21.4030
 2.2490	21.3760
 2.2500	21.3440
 2.2510	21.3130
 2.2520	21.2810
 2.2530	21.2480
 2.2540	21.2160
 2.2550	21.1850
 2.2560	21.1520
 2.2570	21.1160
 2.2580	21.0790
 2.2590	21.0380
 2.2600	20.9990
 2.2610	20.9630
 2.2620	20.9240
 2.2630	20.8800
 2.2640	20.8340
 2.2650	20.7830
 2.2660	20.7310
 2.2670	20.6820
 2.2680	20.6360
 2.2690	20.5880
 2.2700	20.5380
 2.2710	20.4910
 2.2720	20.4420
 2.2730	20.3990
 2.2740	20.3590
 2.2750	20.3210
 2.2760	20.2890
 2.2770	20.2530
 2.2780	20.2160
 2.2790	20.1830
 2.2800	20.1490
 2.2810	20.1170
 2.2820	20.0910
 2.2830	20.0590
 2.2840	20.0250
 2.2850	19.9920
 2.2860	19.9560
 2.2870	19.9220
 2.2880	19.8870
 2.2890	19.8540
 2.2900	19.8270
 2.2910	19.7910
 2.2920	19.7530
 2.2930	19.7110
 2.2940	19.6590
 2.2950	19.6090
 2.2960	19.5550
 2.2970	19.5050
 2.2980	19.4570
 2.2990	19.4090
 2.3000	19.3580
 2.3010	19.3090
 2.3020	19.2530
 2.3030	19.1920
 2.3040	19.1340
 2.3050	19.0720
 2.3060	19.0090
 2.3070	18.9540
 2.3080	18.9020
 2.3090	18.8500
 2.3100	18.7970
 2.3110	18.7490
 2.3120	18.7080
 2.3130	18.6690
 2.3140	18.6350
 2.3150	18.6120
 2.3160	18.5830
 2.3170	18.5510
 2.3180	18.5310
 2.3190	18.5190
 2.3200	18.5010
 2.3210	18.4880
 2.3220	18.4670
 2.3230	18.4350
 2.3240	18.4070
 2.3250	18.3770
 2.3260	18.3520
 2.3270	18.3310
 2.3280	18.3050
 2.3290	18.2810
 2.3300	18.2530
 2.3310	18.2150
 2.3320	18.1830
 2.3330	18.1560
 2.3340	18.1210
 2.3350	18.0850
 2.3360	18.0450
 2.3370	17.9950
 2.3380	17.9520
 2.3390	17.9110
 2.3400	17.8670
 2.3410	17.8260
 2.3420	17.7800
 2.3430	17.7280
 2.3440	17.6790
 2.3450	17.6260
 2.3460	17.5780
 2.3470	17.5310
 2.3480	17.4920
 2.3490	17.4620
 2.3500	17.4310
 2.3510	17.4110
 2.3520	17.3800
 2.3530	17.3410
 2.3540	17.3070
 2.3550	17.2780
 2.3560	17.2490
 2.3570	17.2220
 2.3580	17.2030
 2.3590	17.1760
 2.3600	17.1460
 2.3610	17.1150
 2.3620	17.0820
 2.3630	17.0490
 2.3640	17.0200
 2.3650	16.9930
 2.3660	16.9620
 2.3670	16.9350
 2.3680	16.9060
 2.3690	16.8720
 2.3700	16.8420
 2.3710	16.8140
 2.3720	16.7720
 2.3730	16.7140
 2.3740	16.6590
 2.3750	16.6030
 2.3760	16.5480
 2.3770	16.5150
 2.3780	16.4850
 2.3790	16.4390
 2.3800	16.3920
 2.3810	16.3450
 2.3820	16.2900
 2.3830	16.2370
 2.3840	16.1880
 2.3850	16.1400
 2.3860	16.0890
 2.3870	16.0480
 2.3880	15.9980
 2.3890	15.9350
 2.3900	15.8840
 2.3910	15.8350
 2.3920	15.7870
 2.3930	15.7550
 2.3940	15.7200
 2.3950	15.6750
 2.3960	15.6250
 2.3970	15.5630
 2.3980	15.4980
 2.3990	15.4350
 2.4000	15.3800
 2.4010	15.3310
 2.4020	15.2900
 2.4030	15.2550
 2.4040	15.2060
 2.4050	15.1600
 2.4060	15.1130
 2.4070	15.0580
 2.4080	15.0050
 2.4090	14.9510
 2.4100	14.8900
 2.4110	14.8410
 2.4120	14.7960
 2.4130	14.7470
 2.4140	14.7130
 2.4150	14.6680
 2.4160	14.6180
 2.4170	14.5790
 2.4180	14.5250
 2.4190	14.4720
 2.4200	14.4210
 2.4210	14.3550
 2.4220	14.2900
 2.4230	14.2260
 2.4240	14.1660
 2.4250	14.1090
 2.4260	14.0560
 2.4270	14.0100
 2.4280	13.9490
 2.4290	13.8920
 2.4300	13.8310
 2.4310	13.7600
 2.4320	13.7070
 2.4330	13.6610
 2.4340	13.6100
 2.4350	13.5650
 2.4360	13.5210
 2.4370	13.4660
 2.4380	13.4140
 2.4390	13.3620
 2.4400	13.3010
 2.4410	13.2260
 2.4420	13.1590
 2.4430	13.0880
 2.4440	13.0050
 2.4450	12.9450
 2.4460	12.8950
 2.4470	12.8430
 2.4480	12.7910
 2.4490	12.7200
 2.4500	12.6510
 2.4510	12.5850
 2.4520	12.5030
 2.4530	12.4400
 2.4540	12.3940
 2.4550	12.3550
 2.4560	12.3420
 2.4570	12.3120
 2.4580	12.2560
 2.4590	12.2020
 2.4600	12.1440
 2.4610	12.0780
 2.4620	12.0280
 2.4630	11.9670
 2.4640	11.8930
 2.4650	11.8570
 2.4660	11.8330
 2.4670	11.7930
 2.4680	11.7580
 2.4690	11.7000
 2.4700	11.6350
 2.4710	11.5420
 2.4720	11.4830
 2.4730	11.4340
 2.4740	11.4020
 2.4750	11.4150
 2.4760	11.4020
 2.4770	11.3910
 2.4780	11.3560
 2.4790	11.2740
 2.4800	11.2280
 2.4810	11.1930
 2.4820	11.1680
 2.4830	11.1470
 2.4840	11.1200
 2.4850	11.0690
 2.4860	10.9960
 2.4870	10.9780
 2.4880	10.9750
 2.4890	10.9420
 2.4900	10.9340
 2.4910	10.9040
 2.4920	10.8500
 2.4930	10.8290
 2.4940	10.8430
 2.4950	10.8620
 2.4960	10.8700
 2.4970	10.8410
 2.4980	10.8260
 2.4990	10.8020
 2.5000	10.7490
