Name: Ceanothus megacarpus 1
Type: vegetation
Class: Shrub
Genus: Ceanothus
Species: megacarpus
Sample No.: VH140
Owner: UCSB
Wavelength Range: VSWIR
Origin: 34.4908; -119.7914; WGS84
Collection Date: 6/3/2013
Description: Samples were collected as part of the HyspIRI Airborne Campaign. 48 individual plants were sampled in three times in 2013 - spring  summer  and fall. The name of the sample includes a 1  2  or 3 which references a different individual of the species. Samples were taken to JPL and processed within 48 hours of collection. The same leaves were processed in the Nicolet and then measured using the ASD.
Measurement: Bidirectional reflectance
First Column: X
Second Column: Y
X Units: Wavelength (micrometers)
Y Units: Reflectance (percentage)
First X Value: 0.35
Last X Value: 2.5
Number of X Values: 2151
Additional Information: vegetation.shrub.ceanothus.megacarpus.vswir.vh140.ucsb.asd.ancillary.txt

 0.3500	 5.8610
 0.3510	 5.6800
 0.3520	 5.6810
 0.3530	 5.7780
 0.3540	 5.8450
 0.3550	 5.8940
 0.3560	 5.8060
 0.3570	 5.6560
 0.3580	 5.6150
 0.3590	 5.7350
 0.3600	 5.7920
 0.3610	 5.7190
 0.3620	 5.6980
 0.3630	 5.6840
 0.3640	 5.6890
 0.3650	 5.7140
 0.3660	 5.6660
 0.3670	 5.6200
 0.3680	 5.6190
 0.3690	 5.6670
 0.3700	 5.6540
 0.3710	 5.5870
 0.3720	 5.5190
 0.3730	 5.5510
 0.3740	 5.5110
 0.3750	 5.4950
 0.3760	 5.6100
 0.3770	 5.6060
 0.3780	 5.5520
 0.3790	 5.5200
 0.3800	 5.5630
 0.3810	 5.5850
 0.3820	 5.5810
 0.3830	 5.5680
 0.3840	 5.5740
 0.3850	 5.5850
 0.3860	 5.5750
 0.3870	 5.5330
 0.3880	 5.5200
 0.3890	 5.5040
 0.3900	 5.4730
 0.3910	 5.4440
 0.3920	 5.5020
 0.3930	 5.5540
 0.3940	 5.5270
 0.3950	 5.5060
 0.3960	 5.4820
 0.3970	 5.4700
 0.3980	 5.4900
 0.3990	 5.4880
 0.4000	 5.5040
 0.4010	 5.5270
 0.4020	 5.4610
 0.4030	 5.4300
 0.4040	 5.4140
 0.4050	 5.3870
 0.4060	 5.4170
 0.4070	 5.4680
 0.4080	 5.5020
 0.4090	 5.4890
 0.4100	 5.4850
 0.4110	 5.4900
 0.4120	 5.4940
 0.4130	 5.4790
 0.4140	 5.4630
 0.4150	 5.4710
 0.4160	 5.5120
 0.4170	 5.5370
 0.4180	 5.5430
 0.4190	 5.5360
 0.4200	 5.5300
 0.4210	 5.5650
 0.4220	 5.6070
 0.4230	 5.6310
 0.4240	 5.6780
 0.4250	 5.7100
 0.4260	 5.7300
 0.4270	 5.7600
 0.4280	 5.7900
 0.4290	 5.8240
 0.4300	 5.8660
 0.4310	 5.9060
 0.4320	 5.9280
 0.4330	 5.9480
 0.4340	 5.9840
 0.4350	 6.0150
 0.4360	 6.0330
 0.4370	 6.0490
 0.4380	 6.0850
 0.4390	 6.1180
 0.4400	 6.1430
 0.4410	 6.1640
 0.4420	 6.1850
 0.4430	 6.2060
 0.4440	 6.2330
 0.4450	 6.2630
 0.4460	 6.2710
 0.4470	 6.2870
 0.4480	 6.3170
 0.4490	 6.3290
 0.4500	 6.3510
 0.4510	 6.3780
 0.4520	 6.3970
 0.4530	 6.4110
 0.4540	 6.4260
 0.4550	 6.4440
 0.4560	 6.4620
 0.4570	 6.4740
 0.4580	 6.4820
 0.4590	 6.4910
 0.4600	 6.5040
 0.4610	 6.5170
 0.4620	 6.5270
 0.4630	 6.5340
 0.4640	 6.5430
 0.4650	 6.5470
 0.4660	 6.5470
 0.4670	 6.5480
 0.4680	 6.5550
 0.4690	 6.5580
 0.4700	 6.5520
 0.4710	 6.5590
 0.4720	 6.5700
 0.4730	 6.5730
 0.4740	 6.5530
 0.4750	 6.5500
 0.4760	 6.5550
 0.4770	 6.5580
 0.4780	 6.5630
 0.4790	 6.5630
 0.4800	 6.5620
 0.4810	 6.5660
 0.4820	 6.5710
 0.4830	 6.5810
 0.4840	 6.5910
 0.4850	 6.6000
 0.4860	 6.6140
 0.4870	 6.6280
 0.4880	 6.6390
 0.4890	 6.6540
 0.4900	 6.6790
 0.4910	 6.7070
 0.4920	 6.7310
 0.4930	 6.7500
 0.4940	 6.7740
 0.4950	 6.8050
 0.4960	 6.8330
 0.4970	 6.8690
 0.4980	 6.9100
 0.4990	 6.9540
 0.5000	 7.0010
 0.5010	 7.0490
 0.5020	 7.0990
 0.5030	 7.1540
 0.5040	 7.2180
 0.5050	 7.2910
 0.5060	 7.3700
 0.5070	 7.4540
 0.5080	 7.5420
 0.5090	 7.6390
 0.5100	 7.7440
 0.5110	 7.8560
 0.5120	 7.9800
 0.5130	 8.1170
 0.5140	 8.2590
 0.5150	 8.4080
 0.5160	 8.5690
 0.5170	 8.7440
 0.5180	 8.9270
 0.5190	 9.1130
 0.5200	 9.3000
 0.5210	 9.4910
 0.5220	 9.6930
 0.5230	 9.8990
 0.5240	10.1020
 0.5250	10.2990
 0.5260	10.4840
 0.5270	10.6600
 0.5280	10.8360
 0.5290	11.0010
 0.5300	11.1600
 0.5310	11.3090
 0.5320	11.4390
 0.5330	11.5650
 0.5340	11.6830
 0.5350	11.7910
 0.5360	11.8860
 0.5370	11.9710
 0.5380	12.0500
 0.5390	12.1290
 0.5400	12.1990
 0.5410	12.2620
 0.5420	12.3230
 0.5430	12.3830
 0.5440	12.4360
 0.5450	12.4830
 0.5460	12.5270
 0.5470	12.5730
 0.5480	12.6160
 0.5490	12.6500
 0.5500	12.6760
 0.5510	12.6960
 0.5520	12.7080
 0.5530	12.7080
 0.5540	12.6930
 0.5550	12.6700
 0.5560	12.6350
 0.5570	12.5830
 0.5580	12.5210
 0.5590	12.4520
 0.5600	12.3760
 0.5610	12.2910
 0.5620	12.2020
 0.5630	12.1070
 0.5640	12.0030
 0.5650	11.8930
 0.5660	11.7770
 0.5670	11.6590
 0.5680	11.5390
 0.5690	11.4170
 0.5700	11.2890
 0.5710	11.1580
 0.5720	11.0300
 0.5730	10.9100
 0.5740	10.7950
 0.5750	10.6870
 0.5760	10.5840
 0.5770	10.4860
 0.5780	10.3920
 0.5790	10.3020
 0.5800	10.2240
 0.5810	10.1530
 0.5820	10.0820
 0.5830	10.0190
 0.5840	 9.9630
 0.5850	 9.9120
 0.5860	 9.8590
 0.5870	 9.8130
 0.5880	 9.7700
 0.5890	 9.7320
 0.5900	 9.7090
 0.5910	 9.6860
 0.5920	 9.6590
 0.5930	 9.6330
 0.5940	 9.6060
 0.5950	 9.5810
 0.5960	 9.5610
 0.5970	 9.5410
 0.5980	 9.5200
 0.5990	 9.4990
 0.6000	 9.4760
 0.6010	 9.4480
 0.6020	 9.4180
 0.6030	 9.3850
 0.6040	 9.3420
 0.6050	 9.2930
 0.6060	 9.2410
 0.6070	 9.1880
 0.6080	 9.1310
 0.6090	 9.0710
 0.6100	 9.0090
 0.6110	 8.9500
 0.6120	 8.8860
 0.6130	 8.8200
 0.6140	 8.7540
 0.6150	 8.6950
 0.6160	 8.6400
 0.6170	 8.5870
 0.6180	 8.5360
 0.6190	 8.4920
 0.6200	 8.4530
 0.6210	 8.4180
 0.6220	 8.3870
 0.6230	 8.3610
 0.6240	 8.3390
 0.6250	 8.3220
 0.6260	 8.3070
 0.6270	 8.2930
 0.6280	 8.2820
 0.6290	 8.2750
 0.6300	 8.2700
 0.6310	 8.2620
 0.6320	 8.2520
 0.6330	 8.2400
 0.6340	 8.2230
 0.6350	 8.1970
 0.6360	 8.1640
 0.6370	 8.1270
 0.6380	 8.0840
 0.6390	 8.0330
 0.6400	 7.9760
 0.6410	 7.9170
 0.6420	 7.8580
 0.6430	 7.7980
 0.6440	 7.7370
 0.6450	 7.6720
 0.6460	 7.6050
 0.6470	 7.5420
 0.6480	 7.4910
 0.6490	 7.4450
 0.6500	 7.4020
 0.6510	 7.3570
 0.6520	 7.3220
 0.6530	 7.2900
 0.6540	 7.2570
 0.6550	 7.2190
 0.6560	 7.1800
 0.6570	 7.1400
 0.6580	 7.0950
 0.6590	 7.0480
 0.6600	 6.9980
 0.6610	 6.9470
 0.6620	 6.8960
 0.6630	 6.8470
 0.6640	 6.8030
 0.6650	 6.7650
 0.6660	 6.7280
 0.6670	 6.6970
 0.6680	 6.6730
 0.6690	 6.6550
 0.6700	 6.6390
 0.6710	 6.6300
 0.6720	 6.6270
 0.6730	 6.6270
 0.6740	 6.6300
 0.6750	 6.6360
 0.6760	 6.6450
 0.6770	 6.6590
 0.6780	 6.6740
 0.6790	 6.6920
 0.6800	 6.7180
 0.6810	 6.7500
 0.6820	 6.7900
 0.6830	 6.8380
 0.6840	 6.8960
 0.6850	 6.9710
 0.6860	 7.0650
 0.6870	 7.1820
 0.6880	 7.3250
 0.6890	 7.5010
 0.6900	 7.7160
 0.6910	 7.9800
 0.6920	 8.2990
 0.6930	 8.6750
 0.6940	 9.1110
 0.6950	 9.6100
 0.6960	10.1660
 0.6970	10.7810
 0.6980	11.4540
 0.6990	12.1770
 0.7000	12.9500
 0.7010	13.7640
 0.7020	14.6100
 0.7030	15.4820
 0.7040	16.3760
 0.7050	17.2870
 0.7060	18.2130
 0.7070	19.1500
 0.7080	20.0960
 0.7090	21.0510
 0.7100	22.0090
 0.7110	22.9750
 0.7120	23.9510
 0.7130	24.9320
 0.7140	25.9140
 0.7150	26.8980
 0.7160	27.8820
 0.7170	28.8660
 0.7180	29.8480
 0.7190	30.8230
 0.7200	31.7890
 0.7210	32.7530
 0.7220	33.7050
 0.7230	34.6380
 0.7240	35.5540
 0.7250	36.4500
 0.7260	37.3210
 0.7270	38.1660
 0.7280	38.9830
 0.7290	39.7750
 0.7300	40.5350
 0.7310	41.2560
 0.7320	41.9550
 0.7330	42.6200
 0.7340	43.2490
 0.7350	43.8580
 0.7360	44.4290
 0.7370	44.9710
 0.7380	45.4900
 0.7390	45.9700
 0.7400	46.4250
 0.7410	46.8540
 0.7420	47.2550
 0.7430	47.6280
 0.7440	47.9810
 0.7450	48.3120
 0.7460	48.6120
 0.7470	48.8920
 0.7480	49.1530
 0.7490	49.3950
 0.7500	49.6180
 0.7510	49.8270
 0.7520	50.0180
 0.7530	50.1870
 0.7540	50.3480
 0.7550	50.4960
 0.7560	50.6320
 0.7570	50.7610
 0.7580	50.8740
 0.7590	50.9740
 0.7600	51.0680
 0.7610	51.1610
 0.7620	51.2440
 0.7630	51.3200
 0.7640	51.3950
 0.7650	51.4590
 0.7660	51.5210
 0.7670	51.5790
 0.7680	51.6250
 0.7690	51.6720
 0.7700	51.7230
 0.7710	51.7730
 0.7720	51.8070
 0.7730	51.8460
 0.7740	51.8870
 0.7750	51.9260
 0.7760	51.9670
 0.7770	51.9970
 0.7780	52.0250
 0.7790	52.0620
 0.7800	52.0960
 0.7810	52.1290
 0.7820	52.1600
 0.7830	52.1840
 0.7840	52.2090
 0.7850	52.2330
 0.7860	52.2570
 0.7870	52.2870
 0.7880	52.3140
 0.7890	52.3390
 0.7900	52.3650
 0.7910	52.3820
 0.7920	52.4030
 0.7930	52.4280
 0.7940	52.4450
 0.7950	52.4630
 0.7960	52.4820
 0.7970	52.5020
 0.7980	52.5180
 0.7990	52.5240
 0.8000	52.5350
 0.8010	52.5580
 0.8020	52.5720
 0.8030	52.5790
 0.8040	52.5840
 0.8050	52.5930
 0.8060	52.6030
 0.8070	52.6140
 0.8080	52.6210
 0.8090	52.6210
 0.8100	52.6250
 0.8110	52.6280
 0.8120	52.6300
 0.8130	52.6290
 0.8140	52.6320
 0.8150	52.6320
 0.8160	52.6250
 0.8170	52.6280
 0.8180	52.6300
 0.8190	52.6270
 0.8200	52.6220
 0.8210	52.6230
 0.8220	52.6190
 0.8230	52.6110
 0.8240	52.6080
 0.8250	52.6040
 0.8260	52.5980
 0.8270	52.5890
 0.8280	52.5730
 0.8290	52.5630
 0.8300	52.5530
 0.8310	52.5400
 0.8320	52.5340
 0.8330	52.5270
 0.8340	52.5180
 0.8350	52.5080
 0.8360	52.5000
 0.8370	52.4940
 0.8380	52.4910
 0.8390	52.4880
 0.8400	52.4790
 0.8410	52.4770
 0.8420	52.4850
 0.8430	52.4840
 0.8440	52.4830
 0.8450	52.4810
 0.8460	52.4800
 0.8470	52.4810
 0.8480	52.4880
 0.8490	52.4960
 0.8500	52.4990
 0.8510	52.5050
 0.8520	52.5050
 0.8530	52.5060
 0.8540	52.5140
 0.8550	52.5180
 0.8560	52.5190
 0.8570	52.5220
 0.8580	52.5260
 0.8590	52.5220
 0.8600	52.5230
 0.8610	52.5340
 0.8620	52.5410
 0.8630	52.5460
 0.8640	52.5490
 0.8650	52.5520
 0.8660	52.5580
 0.8670	52.5640
 0.8680	52.5740
 0.8690	52.5910
 0.8700	52.5930
 0.8710	52.6050
 0.8720	52.6220
 0.8730	52.6240
 0.8740	52.6220
 0.8750	52.6270
 0.8760	52.6400
 0.8770	52.6550
 0.8780	52.6600
 0.8790	52.6610
 0.8800	52.6640
 0.8810	52.6780
 0.8820	52.6880
 0.8830	52.6940
 0.8840	52.7000
 0.8850	52.7040
 0.8860	52.7100
 0.8870	52.7120
 0.8880	52.7070
 0.8890	52.7170
 0.8900	52.7180
 0.8910	52.7140
 0.8920	52.7200
 0.8930	52.7230
 0.8940	52.7260
 0.8950	52.7260
 0.8960	52.7270
 0.8970	52.7380
 0.8980	52.7440
 0.8990	52.7390
 0.9000	52.7360
 0.9010	52.7410
 0.9020	52.7420
 0.9030	52.7370
 0.9040	52.7350
 0.9050	52.7430
 0.9060	52.7500
 0.9070	52.7490
 0.9080	52.7420
 0.9090	52.7450
 0.9100	52.7520
 0.9110	52.7550
 0.9120	52.7550
 0.9130	52.7500
 0.9140	52.7440
 0.9150	52.7390
 0.9160	52.7220
 0.9170	52.7180
 0.9180	52.7230
 0.9190	52.7230
 0.9200	52.7230
 0.9210	52.7070
 0.9220	52.6830
 0.9230	52.6690
 0.9240	52.6520
 0.9250	52.6300
 0.9260	52.6070
 0.9270	52.5860
 0.9280	52.5640
 0.9290	52.5360
 0.9300	52.5020
 0.9310	52.4630
 0.9320	52.4260
 0.9330	52.3840
 0.9340	52.3400
 0.9350	52.3080
 0.9360	52.2630
 0.9370	52.2160
 0.9380	52.1700
 0.9390	52.1060
 0.9400	52.0540
 0.9410	51.9990
 0.9420	51.9270
 0.9430	51.8490
 0.9440	51.7790
 0.9450	51.7180
 0.9460	51.6490
 0.9470	51.5330
 0.9480	51.4340
 0.9490	51.3470
 0.9500	51.2460
 0.9510	51.1140
 0.9520	50.9850
 0.9530	50.8580
 0.9540	50.7220
 0.9550	50.5940
 0.9560	50.4540
 0.9570	50.3160
 0.9580	50.1960
 0.9590	50.0730
 0.9600	49.9540
 0.9610	49.8490
 0.9620	49.7580
 0.9630	49.6770
 0.9640	49.6030
 0.9650	49.5320
 0.9660	49.4610
 0.9670	49.4030
 0.9680	49.3480
 0.9690	49.3030
 0.9700	49.2680
 0.9710	49.2110
 0.9720	49.1800
 0.9730	49.1680
 0.9740	49.1470
 0.9750	49.1220
 0.9760	49.0850
 0.9770	49.0570
 0.9780	49.0650
 0.9790	49.0750
 0.9800	49.0720
 0.9810	49.0580
 0.9820	49.0510
 0.9830	49.0710
 0.9840	49.0970
 0.9850	49.1130
 0.9860	49.1200
 0.9870	49.1550
 0.9880	49.1800
 0.9890	49.1930
 0.9900	49.2120
 0.9910	49.2580
 0.9920	49.2930
 0.9930	49.3280
 0.9940	49.3640
 0.9950	49.3990
 0.9960	49.4350
 0.9970	49.4700
 0.9980	49.5050
 0.9990	49.5410
 1.0000	49.5760
 1.0010	49.6120
 1.0020	49.6470
 1.0030	49.6820
 1.0040	49.7180
 1.0050	49.7530
 1.0060	49.7890
 1.0070	49.8240
 1.0080	49.8590
 1.0090	49.8950
 1.0100	49.8950
 1.0110	49.9430
 1.0120	49.9920
 1.0130	50.0410
 1.0140	50.0910
 1.0150	50.1420
 1.0160	50.1930
 1.0170	50.2420
 1.0180	50.2930
 1.0190	50.3460
 1.0200	50.3980
 1.0210	50.4510
 1.0220	50.5050
 1.0230	50.5530
 1.0240	50.5980
 1.0250	50.6410
 1.0260	50.6780
 1.0270	50.7200
 1.0280	50.7620
 1.0290	50.8040
 1.0300	50.8480
 1.0310	50.8930
 1.0320	50.9360
 1.0330	50.9790
 1.0340	51.0230
 1.0350	51.0630
 1.0360	51.0950
 1.0370	51.1260
 1.0380	51.1600
 1.0390	51.1950
 1.0400	51.2270
 1.0410	51.2640
 1.0420	51.2960
 1.0430	51.3200
 1.0440	51.3490
 1.0450	51.3800
 1.0460	51.4080
 1.0470	51.4400
 1.0480	51.4650
 1.0490	51.4820
 1.0500	51.5050
 1.0510	51.5280
 1.0520	51.5510
 1.0530	51.5770
 1.0540	51.6090
 1.0550	51.6340
 1.0560	51.6560
 1.0570	51.6790
 1.0580	51.7010
 1.0590	51.7190
 1.0600	51.7330
 1.0610	51.7480
 1.0620	51.7620
 1.0630	51.7740
 1.0640	51.7850
 1.0650	51.7980
 1.0660	51.8090
 1.0670	51.8210
 1.0680	51.8340
 1.0690	51.8510
 1.0700	51.8610
 1.0710	51.8690
 1.0720	51.8770
 1.0730	51.8810
 1.0740	51.8880
 1.0750	51.8980
 1.0760	51.9030
 1.0770	51.9070
 1.0780	51.9080
 1.0790	51.9060
 1.0800	51.9040
 1.0810	51.9000
 1.0820	51.8970
 1.0830	51.8950
 1.0840	51.8900
 1.0850	51.8840
 1.0860	51.8790
 1.0870	51.8730
 1.0880	51.8660
 1.0890	51.8570
 1.0900	51.8490
 1.0910	51.8370
 1.0920	51.8220
 1.0930	51.8060
 1.0940	51.7880
 1.0950	51.7690
 1.0960	51.7460
 1.0970	51.7240
 1.0980	51.7020
 1.0990	51.6800
 1.1000	51.6590
 1.1010	51.6360
 1.1020	51.6110
 1.1030	51.5850
 1.1040	51.5580
 1.1050	51.5280
 1.1060	51.4950
 1.1070	51.4610
 1.1080	51.4250
 1.1090	51.3860
 1.1100	51.3450
 1.1110	51.3050
 1.1120	51.2610
 1.1130	51.2160
 1.1140	51.1660
 1.1150	51.1140
 1.1160	51.0550
 1.1170	50.9930
 1.1180	50.9250
 1.1190	50.8540
 1.1200	50.7750
 1.1210	50.6930
 1.1220	50.6070
 1.1230	50.5140
 1.1240	50.4160
 1.1250	50.3080
 1.1260	50.1930
 1.1270	50.0670
 1.1280	49.9330
 1.1290	49.7890
 1.1300	49.6350
 1.1310	49.4710
 1.1320	49.2970
 1.1330	49.1130
 1.1340	48.9180
 1.1350	48.7120
 1.1360	48.4950
 1.1370	48.2670
 1.1380	48.0310
 1.1390	47.7860
 1.1400	47.5290
 1.1410	47.2690
 1.1420	47.0030
 1.1430	46.7280
 1.1440	46.4570
 1.1450	46.1830
 1.1460	45.9140
 1.1470	45.6400
 1.1480	45.3780
 1.1490	45.1150
 1.1500	44.8710
 1.1510	44.6370
 1.1520	44.4150
 1.1530	44.2050
 1.1540	44.0100
 1.1550	43.8260
 1.1560	43.6580
 1.1570	43.5070
 1.1580	43.3730
 1.1590	43.2520
 1.1600	43.1430
 1.1610	43.0470
 1.1620	42.9590
 1.1630	42.8820
 1.1640	42.8170
 1.1650	42.7550
 1.1660	42.7020
 1.1670	42.6540
 1.1680	42.6100
 1.1690	42.5710
 1.1700	42.5390
 1.1710	42.5080
 1.1720	42.4810
 1.1730	42.4530
 1.1740	42.4270
 1.1750	42.4000
 1.1760	42.3720
 1.1770	42.3450
 1.1780	42.3160
 1.1790	42.2870
 1.1800	42.2550
 1.1810	42.2220
 1.1820	42.1880
 1.1830	42.1550
 1.1840	42.1230
 1.1850	42.0940
 1.1860	42.0660
 1.1870	42.0370
 1.1880	42.0110
 1.1890	41.9850
 1.1900	41.9610
 1.1910	41.9370
 1.1920	41.9180
 1.1930	41.9030
 1.1940	41.8880
 1.1950	41.8740
 1.1960	41.8660
 1.1970	41.8590
 1.1980	41.8550
 1.1990	41.8560
 1.2000	41.8610
 1.2010	41.8680
 1.2020	41.8770
 1.2030	41.8900
 1.2040	41.9090
 1.2050	41.9300
 1.2060	41.9570
 1.2070	41.9870
 1.2080	42.0190
 1.2090	42.0540
 1.2100	42.0940
 1.2110	42.1350
 1.2120	42.1800
 1.2130	42.2270
 1.2140	42.2750
 1.2150	42.3250
 1.2160	42.3780
 1.2170	42.4310
 1.2180	42.4860
 1.2190	42.5450
 1.2200	42.6070
 1.2210	42.6660
 1.2220	42.7240
 1.2230	42.7810
 1.2240	42.8340
 1.2250	42.8890
 1.2260	42.9440
 1.2270	42.9980
 1.2280	43.0520
 1.2290	43.1060
 1.2300	43.1540
 1.2310	43.2040
 1.2320	43.2530
 1.2330	43.3000
 1.2340	43.3450
 1.2350	43.3910
 1.2360	43.4330
 1.2370	43.4720
 1.2380	43.5100
 1.2390	43.5490
 1.2400	43.5860
 1.2410	43.6240
 1.2420	43.6600
 1.2430	43.6920
 1.2440	43.7240
 1.2450	43.7540
 1.2460	43.7830
 1.2470	43.8120
 1.2480	43.8400
 1.2490	43.8670
 1.2500	43.8930
 1.2510	43.9170
 1.2520	43.9400
 1.2530	43.9610
 1.2540	43.9810
 1.2550	43.9990
 1.2560	44.0170
 1.2570	44.0320
 1.2580	44.0450
 1.2590	44.0580
 1.2600	44.0700
 1.2610	44.0780
 1.2620	44.0830
 1.2630	44.0880
 1.2640	44.0890
 1.2650	44.0880
 1.2660	44.0900
 1.2670	44.0880
 1.2680	44.0850
 1.2690	44.0800
 1.2700	44.0700
 1.2710	44.0610
 1.2720	44.0500
 1.2730	44.0350
 1.2740	44.0190
 1.2750	44.0030
 1.2760	43.9840
 1.2770	43.9630
 1.2780	43.9420
 1.2790	43.9160
 1.2800	43.8890
 1.2810	43.8620
 1.2820	43.8300
 1.2830	43.7980
 1.2840	43.7630
 1.2850	43.7240
 1.2860	43.6830
 1.2870	43.6390
 1.2880	43.5890
 1.2890	43.5380
 1.2900	43.4850
 1.2910	43.4290
 1.2920	43.3710
 1.2930	43.3080
 1.2940	43.2440
 1.2950	43.1770
 1.2960	43.1030
 1.2970	43.0280
 1.2980	42.9480
 1.2990	42.8630
 1.3000	42.7790
 1.3010	42.6900
 1.3020	42.5950
 1.3030	42.4940
 1.3040	42.3880
 1.3050	42.2760
 1.3060	42.1600
 1.3070	42.0410
 1.3080	41.9180
 1.3090	41.7890
 1.3100	41.6550
 1.3110	41.5140
 1.3120	41.3640
 1.3130	41.2120
 1.3140	41.0550
 1.3150	40.8950
 1.3160	40.7280
 1.3170	40.5570
 1.3180	40.3780
 1.3190	40.1920
 1.3200	40.0040
 1.3210	39.8100
 1.3220	39.6100
 1.3230	39.4070
 1.3240	39.1970
 1.3250	38.9860
 1.3260	38.7720
 1.3270	38.5520
 1.3280	38.3290
 1.3290	38.1000
 1.3300	37.8680
 1.3310	37.6360
 1.3320	37.4020
 1.3330	37.1710
 1.3340	36.9370
 1.3350	36.7010
 1.3360	36.4660
 1.3370	36.2280
 1.3380	35.9910
 1.3390	35.7560
 1.3400	35.5220
 1.3410	35.2920
 1.3420	35.0650
 1.3430	34.8410
 1.3440	34.6190
 1.3450	34.4000
 1.3460	34.1800
 1.3470	33.9670
 1.3480	33.7570
 1.3490	33.5510
 1.3500	33.3510
 1.3510	33.1520
 1.3520	32.9540
 1.3530	32.7590
 1.3540	32.5630
 1.3550	32.3700
 1.3560	32.1770
 1.3570	31.9840
 1.3580	31.7920
 1.3590	31.5990
 1.3600	31.4030
 1.3610	31.2050
 1.3620	31.0020
 1.3630	30.7960
 1.3640	30.5840
 1.3650	30.3630
 1.3660	30.1380
 1.3670	29.9030
 1.3680	29.6550
 1.3690	29.3980
 1.3700	29.1250
 1.3710	28.8380
 1.3720	28.5390
 1.3730	28.2210
 1.3740	27.8900
 1.3750	27.5380
 1.3760	27.1630
 1.3770	26.7700
 1.3780	26.3520
 1.3790	25.9120
 1.3800	25.4540
 1.3810	24.9710
 1.3820	24.4760
 1.3830	23.9630
 1.3840	23.4380
 1.3850	22.8960
 1.3860	22.3490
 1.3870	21.7850
 1.3880	21.2260
 1.3890	20.6620
 1.3900	20.0970
 1.3910	19.5400
 1.3920	18.9830
 1.3930	18.4290
 1.3940	17.8850
 1.3950	17.3470
 1.3960	16.8250
 1.3970	16.3200
 1.3980	15.8310
 1.3990	15.3660
 1.4000	14.9180
 1.4010	14.4880
 1.4020	14.0820
 1.4030	13.6940
 1.4040	13.3270
 1.4050	12.9830
 1.4060	12.6590
 1.4070	12.3580
 1.4080	12.0770
 1.4090	11.8140
 1.4100	11.5710
 1.4110	11.3440
 1.4120	11.1350
 1.4130	10.9430
 1.4140	10.7640
 1.4150	10.6020
 1.4160	10.4530
 1.4170	10.3160
 1.4180	10.1910
 1.4190	10.0750
 1.4200	 9.9690
 1.4210	 9.8730
 1.4220	 9.7840
 1.4230	 9.7040
 1.4240	 9.6310
 1.4250	 9.5650
 1.4260	 9.5050
 1.4270	 9.4510
 1.4280	 9.4040
 1.4290	 9.3600
 1.4300	 9.3230
 1.4310	 9.2880
 1.4320	 9.2590
 1.4330	 9.2330
 1.4340	 9.2110
 1.4350	 9.1910
 1.4360	 9.1740
 1.4370	 9.1600
 1.4380	 9.1480
 1.4390	 9.1390
 1.4400	 9.1340
 1.4410	 9.1300
 1.4420	 9.1280
 1.4430	 9.1280
 1.4440	 9.1290
 1.4450	 9.1320
 1.4460	 9.1360
 1.4470	 9.1420
 1.4480	 9.1480
 1.4490	 9.1550
 1.4500	 9.1640
 1.4510	 9.1730
 1.4520	 9.1830
 1.4530	 9.1950
 1.4540	 9.2080
 1.4550	 9.2210
 1.4560	 9.2350
 1.4570	 9.2500
 1.4580	 9.2660
 1.4590	 9.2840
 1.4600	 9.3050
 1.4610	 9.3280
 1.4620	 9.3520
 1.4630	 9.3780
 1.4640	 9.4070
 1.4650	 9.4380
 1.4660	 9.4730
 1.4670	 9.5100
 1.4680	 9.5500
 1.4690	 9.5930
 1.4700	 9.6390
 1.4710	 9.6870
 1.4720	 9.7370
 1.4730	 9.7890
 1.4740	 9.8450
 1.4750	 9.9030
 1.4760	 9.9640
 1.4770	10.0270
 1.4780	10.0910
 1.4790	10.1570
 1.4800	10.2240
 1.4810	10.2930
 1.4820	10.3640
 1.4830	10.4340
 1.4840	10.5070
 1.4850	10.5810
 1.4860	10.6550
 1.4870	10.7310
 1.4880	10.8080
 1.4890	10.8850
 1.4900	10.9630
 1.4910	11.0410
 1.4920	11.1200
 1.4930	11.2010
 1.4940	11.2810
 1.4950	11.3620
 1.4960	11.4430
 1.4970	11.5220
 1.4980	11.6050
 1.4990	11.6890
 1.5000	11.7720
 1.5010	11.8560
 1.5020	11.9400
 1.5030	12.0230
 1.5040	12.1060
 1.5050	12.1900
 1.5060	12.2730
 1.5070	12.3580
 1.5080	12.4420
 1.5090	12.5260
 1.5100	12.6100
 1.5110	12.6930
 1.5120	12.7760
 1.5130	12.8590
 1.5140	12.9430
 1.5150	13.0280
 1.5160	13.1120
 1.5170	13.1950
 1.5180	13.2780
 1.5190	13.3610
 1.5200	13.4430
 1.5210	13.5250
 1.5220	13.6070
 1.5230	13.6880
 1.5240	13.7680
 1.5250	13.8490
 1.5260	13.9290
 1.5270	14.0080
 1.5280	14.0870
 1.5290	14.1640
 1.5300	14.2420
 1.5310	14.3210
 1.5320	14.4000
 1.5330	14.4780
 1.5340	14.5550
 1.5350	14.6310
 1.5360	14.7080
 1.5370	14.7830
 1.5380	14.8580
 1.5390	14.9330
 1.5400	15.0070
 1.5410	15.0810
 1.5420	15.1550
 1.5430	15.2280
 1.5440	15.3000
 1.5450	15.3730
 1.5460	15.4440
 1.5470	15.5160
 1.5480	15.5860
 1.5490	15.6560
 1.5500	15.7260
 1.5510	15.7930
 1.5520	15.8610
 1.5530	15.9280
 1.5540	15.9950
 1.5550	16.0620
 1.5560	16.1270
 1.5570	16.1940
 1.5580	16.2590
 1.5590	16.3230
 1.5600	16.3890
 1.5610	16.4520
 1.5620	16.5160
 1.5630	16.5780
 1.5640	16.6390
 1.5650	16.7020
 1.5660	16.7630
 1.5670	16.8240
 1.5680	16.8860
 1.5690	16.9460
 1.5700	17.0050
 1.5710	17.0660
 1.5720	17.1240
 1.5730	17.1840
 1.5740	17.2420
 1.5750	17.3010
 1.5760	17.3600
 1.5770	17.4190
 1.5780	17.4770
 1.5790	17.5360
 1.5800	17.5940
 1.5810	17.6510
 1.5820	17.7100
 1.5830	17.7680
 1.5840	17.8250
 1.5850	17.8830
 1.5860	17.9390
 1.5870	17.9950
 1.5880	18.0510
 1.5890	18.1070
 1.5900	18.1620
 1.5910	18.2180
 1.5920	18.2750
 1.5930	18.3290
 1.5940	18.3830
 1.5950	18.4380
 1.5960	18.4930
 1.5970	18.5470
 1.5980	18.6020
 1.5990	18.6550
 1.6000	18.7080
 1.6010	18.7610
 1.6020	18.8130
 1.6030	18.8650
 1.6040	18.9160
 1.6050	18.9670
 1.6060	19.0180
 1.6070	19.0680
 1.6080	19.1180
 1.6090	19.1660
 1.6100	19.2140
 1.6110	19.2620
 1.6120	19.3090
 1.6130	19.3560
 1.6140	19.4030
 1.6150	19.4490
 1.6160	19.4930
 1.6170	19.5380
 1.6180	19.5810
 1.6190	19.6240
 1.6200	19.6650
 1.6210	19.7060
 1.6220	19.7460
 1.6230	19.7860
 1.6240	19.8240
 1.6250	19.8620
 1.6260	19.9010
 1.6270	19.9380
 1.6280	19.9730
 1.6290	20.0070
 1.6300	20.0390
 1.6310	20.0710
 1.6320	20.1030
 1.6330	20.1310
 1.6340	20.1580
 1.6350	20.1830
 1.6360	20.2070
 1.6370	20.2290
 1.6380	20.2500
 1.6390	20.2680
 1.6400	20.2830
 1.6410	20.2950
 1.6420	20.3040
 1.6430	20.3100
 1.6440	20.3120
 1.6450	20.3120
 1.6460	20.3080
 1.6470	20.3030
 1.6480	20.2950
 1.6490	20.2830
 1.6500	20.2690
 1.6510	20.2530
 1.6520	20.2350
 1.6530	20.2150
 1.6540	20.1930
 1.6550	20.1710
 1.6560	20.1480
 1.6570	20.1270
 1.6580	20.1070
 1.6590	20.0860
 1.6600	20.0680
 1.6610	20.0530
 1.6620	20.0400
 1.6630	20.0330
 1.6640	20.0280
 1.6650	20.0280
 1.6660	20.0310
 1.6670	20.0380
 1.6680	20.0490
 1.6690	20.0600
 1.6700	20.0720
 1.6710	20.0870
 1.6720	20.1010
 1.6730	20.1160
 1.6740	20.1310
 1.6750	20.1430
 1.6760	20.1530
 1.6770	20.1620
 1.6780	20.1660
 1.6790	20.1690
 1.6800	20.1700
 1.6810	20.1680
 1.6820	20.1640
 1.6830	20.1540
 1.6840	20.1420
 1.6850	20.1260
 1.6860	20.1080
 1.6870	20.0880
 1.6880	20.0660
 1.6890	20.0410
 1.6900	20.0140
 1.6910	19.9840
 1.6920	19.9540
 1.6930	19.9210
 1.6940	19.8890
 1.6950	19.8560
 1.6960	19.8220
 1.6970	19.7880
 1.6980	19.7520
 1.6990	19.7150
 1.7000	19.6770
 1.7010	19.6370
 1.7020	19.5950
 1.7030	19.5500
 1.7040	19.5060
 1.7050	19.4590
 1.7060	19.4120
 1.7070	19.3650
 1.7080	19.3170
 1.7090	19.2670
 1.7100	19.2180
 1.7110	19.1680
 1.7120	19.1180
 1.7130	19.0710
 1.7140	19.0240
 1.7150	18.9760
 1.7160	18.9290
 1.7170	18.8810
 1.7180	18.8330
 1.7190	18.7880
 1.7200	18.7410
 1.7210	18.6960
 1.7220	18.6500
 1.7230	18.6050
 1.7240	18.5620
 1.7250	18.5190
 1.7260	18.4780
 1.7270	18.4380
 1.7280	18.3990
 1.7290	18.3610
 1.7300	18.3260
 1.7310	18.2910
 1.7320	18.2580
 1.7330	18.2240
 1.7340	18.1900
 1.7350	18.1570
 1.7360	18.1250
 1.7370	18.0910
 1.7380	18.0560
 1.7390	18.0190
 1.7400	17.9800
 1.7410	17.9400
 1.7420	17.8990
 1.7430	17.8560
 1.7440	17.8120
 1.7450	17.7680
 1.7460	17.7240
 1.7470	17.6790
 1.7480	17.6350
 1.7490	17.5910
 1.7500	17.5460
 1.7510	17.5020
 1.7520	17.4590
 1.7530	17.4160
 1.7540	17.3730
 1.7550	17.3310
 1.7560	17.2890
 1.7570	17.2470
 1.7580	17.2060
 1.7590	17.1660
 1.7600	17.1270
 1.7610	17.0890
 1.7620	17.0530
 1.7630	17.0190
 1.7640	16.9850
 1.7650	16.9530
 1.7660	16.9210
 1.7670	16.8880
 1.7680	16.8570
 1.7690	16.8280
 1.7700	16.8000
 1.7710	16.7720
 1.7720	16.7450
 1.7730	16.7170
 1.7740	16.6920
 1.7750	16.6680
 1.7760	16.6430
 1.7770	16.6180
 1.7780	16.5950
 1.7790	16.5690
 1.7800	16.5480
 1.7810	16.5310
 1.7820	16.5140
 1.7830	16.5000
 1.7840	16.4860
 1.7850	16.4740
 1.7860	16.4620
 1.7870	16.4530
 1.7880	16.4430
 1.7890	16.4350
 1.7900	16.4310
 1.7910	16.4270
 1.7920	16.4260
 1.7930	16.4250
 1.7940	16.4230
 1.7950	16.4230
 1.7960	16.4240
 1.7970	16.4260
 1.7980	16.4320
 1.7990	16.4370
 1.8000	16.4420
 1.8010	16.4480
 1.8020	16.4550
 1.8030	16.4610
 1.8040	16.4670
 1.8050	16.4730
 1.8060	16.4800
 1.8070	16.4860
 1.8080	16.4930
 1.8090	16.4990
 1.8100	16.5050
 1.8110	16.5120
 1.8120	16.5170
 1.8130	16.5220
 1.8140	16.5250
 1.8150	16.5300
 1.8160	16.5350
 1.8170	16.5390
 1.8180	16.5440
 1.8190	16.5450
 1.8200	16.5450
 1.8210	16.5440
 1.8220	16.5430
 1.8230	16.5410
 1.8240	16.5390
 1.8250	16.5390
 1.8260	16.5370
 1.8270	16.5580
 1.8280	16.5780
 1.8290	16.5990
 1.8300	16.6200
 1.8310	16.6410
 1.8320	16.6610
 1.8330	16.6820
 1.8340	16.7030
 1.8350	16.7030
 1.8360	16.6730
 1.8370	16.6410
 1.8380	16.6070
 1.8390	16.5710
 1.8400	16.5350
 1.8410	16.4900
 1.8420	16.4410
 1.8430	16.3880
 1.8440	16.3280
 1.8450	16.2660
 1.8460	16.2000
 1.8470	16.1270
 1.8480	16.0470
 1.8490	15.9580
 1.8500	15.8620
 1.8510	15.7560
 1.8520	15.6440
 1.8530	15.5230
 1.8540	15.3940
 1.8550	15.2550
 1.8560	15.1060
 1.8570	14.9490
 1.8580	14.7810
 1.8590	14.6050
 1.8600	14.4190
 1.8610	14.2240
 1.8620	14.0200
 1.8630	13.8080
 1.8640	13.5830
 1.8650	13.3480
 1.8660	13.1060
 1.8670	12.8490
 1.8680	12.5830
 1.8690	12.3100
 1.8700	12.0280
 1.8710	11.7340
 1.8720	11.4400
 1.8730	11.1430
 1.8740	10.8430
 1.8750	10.5470
 1.8760	10.2460
 1.8770	 9.9480
 1.8780	 9.6550
 1.8790	 9.3650
 1.8800	 9.0870
 1.8810	 8.8170
 1.8820	 8.5540
 1.8830	 8.2980
 1.8840	 8.0510
 1.8850	 7.8090
 1.8860	 7.5780
 1.8870	 7.3580
 1.8880	 7.1520
 1.8890	 6.9610
 1.8900	 6.7840
 1.8910	 6.6200
 1.8920	 6.4690
 1.8930	 6.3290
 1.8940	 6.1970
 1.8950	 6.0790
 1.8960	 5.9730
 1.8970	 5.8770
 1.8980	 5.7960
 1.8990	 5.7220
 1.9000	 5.6550
 1.9010	 5.5960
 1.9020	 5.5420
 1.9030	 5.4930
 1.9040	 5.4510
 1.9050	 5.4150
 1.9060	 5.3850
 1.9070	 5.3610
 1.9080	 5.3410
 1.9090	 5.3210
 1.9100	 5.3030
 1.9110	 5.2880
 1.9120	 5.2760
 1.9130	 5.2640
 1.9140	 5.2570
 1.9150	 5.2500
 1.9160	 5.2390
 1.9170	 5.2300
 1.9180	 5.2220
 1.9190	 5.2160
 1.9200	 5.2140
 1.9210	 5.2120
 1.9220	 5.2100
 1.9230	 5.2080
 1.9240	 5.2070
 1.9250	 5.2050
 1.9260	 5.2050
 1.9270	 5.2060
 1.9280	 5.2080
 1.9290	 5.2100
 1.9300	 5.2120
 1.9310	 5.2150
 1.9320	 5.2170
 1.9330	 5.2190
 1.9340	 5.2190
 1.9350	 5.2210
 1.9360	 5.2210
 1.9370	 5.2230
 1.9380	 5.2260
 1.9390	 5.2310
 1.9400	 5.2360
 1.9410	 5.2390
 1.9420	 5.2440
 1.9430	 5.2470
 1.9440	 5.2530
 1.9450	 5.2600
 1.9460	 5.2670
 1.9470	 5.2770
 1.9480	 5.2850
 1.9490	 5.2900
 1.9500	 5.2960
 1.9510	 5.3040
 1.9520	 5.3090
 1.9530	 5.3180
 1.9540	 5.3280
 1.9550	 5.3370
 1.9560	 5.3450
 1.9570	 5.3540
 1.9580	 5.3630
 1.9590	 5.3720
 1.9600	 5.3820
 1.9610	 5.3920
 1.9620	 5.4040
 1.9630	 5.4160
 1.9640	 5.4260
 1.9650	 5.4380
 1.9660	 5.4520
 1.9670	 5.4650
 1.9680	 5.4790
 1.9690	 5.4950
 1.9700	 5.5080
 1.9710	 5.5210
 1.9720	 5.5330
 1.9730	 5.5450
 1.9740	 5.5580
 1.9750	 5.5690
 1.9760	 5.5830
 1.9770	 5.6010
 1.9780	 5.6200
 1.9790	 5.6380
 1.9800	 5.6600
 1.9810	 5.6780
 1.9820	 5.6930
 1.9830	 5.7110
 1.9840	 5.7260
 1.9850	 5.7440
 1.9860	 5.7640
 1.9870	 5.7850
 1.9880	 5.8050
 1.9890	 5.8250
 1.9900	 5.8460
 1.9910	 5.8650
 1.9920	 5.8860
 1.9930	 5.9080
 1.9940	 5.9300
 1.9950	 5.9520
 1.9960	 5.9740
 1.9970	 5.9960
 1.9980	 6.0170
 1.9990	 6.0370
 2.0000	 6.0580
 2.0010	 6.0810
 2.0020	 6.1030
 2.0030	 6.1260
 2.0040	 6.1500
 2.0050	 6.1740
 2.0060	 6.1970
 2.0070	 6.2200
 2.0080	 6.2430
 2.0090	 6.2650
 2.0100	 6.2860
 2.0110	 6.3090
 2.0120	 6.3350
 2.0130	 6.3600
 2.0140	 6.3850
 2.0150	 6.4110
 2.0160	 6.4350
 2.0170	 6.4570
 2.0180	 6.4800
 2.0190	 6.5020
 2.0200	 6.5230
 2.0210	 6.5420
 2.0220	 6.5630
 2.0230	 6.5850
 2.0240	 6.6060
 2.0250	 6.6290
 2.0260	 6.6500
 2.0270	 6.6680
 2.0280	 6.6880
 2.0290	 6.7070
 2.0300	 6.7260
 2.0310	 6.7450
 2.0320	 6.7630
 2.0330	 6.7820
 2.0340	 6.8020
 2.0350	 6.8200
 2.0360	 6.8360
 2.0370	 6.8530
 2.0380	 6.8680
 2.0390	 6.8850
 2.0400	 6.9050
 2.0410	 6.9220
 2.0420	 6.9380
 2.0430	 6.9540
 2.0440	 6.9690
 2.0450	 6.9810
 2.0460	 6.9960
 2.0470	 7.0100
 2.0480	 7.0240
 2.0490	 7.0380
 2.0500	 7.0520
 2.0510	 7.0640
 2.0520	 7.0780
 2.0530	 7.0920
 2.0540	 7.1060
 2.0550	 7.1200
 2.0560	 7.1350
 2.0570	 7.1480
 2.0580	 7.1620
 2.0590	 7.1750
 2.0600	 7.1880
 2.0610	 7.2010
 2.0620	 7.2130
 2.0630	 7.2260
 2.0640	 7.2380
 2.0650	 7.2510
 2.0660	 7.2650
 2.0670	 7.2780
 2.0680	 7.2900
 2.0690	 7.3020
 2.0700	 7.3140
 2.0710	 7.3250
 2.0720	 7.3360
 2.0730	 7.3460
 2.0740	 7.3580
 2.0750	 7.3690
 2.0760	 7.3810
 2.0770	 7.3950
 2.0780	 7.4060
 2.0790	 7.4150
 2.0800	 7.4260
 2.0810	 7.4350
 2.0820	 7.4470
 2.0830	 7.4640
 2.0840	 7.4780
 2.0850	 7.4940
 2.0860	 7.5080
 2.0870	 7.5200
 2.0880	 7.5310
 2.0890	 7.5420
 2.0900	 7.5520
 2.0910	 7.5640
 2.0920	 7.5750
 2.0930	 7.5870
 2.0940	 7.6000
 2.0950	 7.6100
 2.0960	 7.6170
 2.0970	 7.6270
 2.0980	 7.6370
 2.0990	 7.6470
 2.1000	 7.6590
 2.1010	 7.6700
 2.1020	 7.6800
 2.1030	 7.6910
 2.1040	 7.7020
 2.1050	 7.7140
 2.1060	 7.7250
 2.1070	 7.7360
 2.1080	 7.7480
 2.1090	 7.7590
 2.1100	 7.7690
 2.1110	 7.7790
 2.1120	 7.7900
 2.1130	 7.8010
 2.1140	 7.8120
 2.1150	 7.8250
 2.1160	 7.8350
 2.1170	 7.8450
 2.1180	 7.8540
 2.1190	 7.8580
 2.1200	 7.8660
 2.1210	 7.8760
 2.1220	 7.8860
 2.1230	 7.8960
 2.1240	 7.9120
 2.1250	 7.9220
 2.1260	 7.9290
 2.1270	 7.9360
 2.1280	 7.9390
 2.1290	 7.9470
 2.1300	 7.9580
 2.1310	 7.9690
 2.1320	 7.9840
 2.1330	 7.9970
 2.1340	 8.0080
 2.1350	 8.0200
 2.1360	 8.0340
 2.1370	 8.0470
 2.1380	 8.0590
 2.1390	 8.0710
 2.1400	 8.0820
 2.1410	 8.0910
 2.1420	 8.1030
 2.1430	 8.1160
 2.1440	 8.1280
 2.1450	 8.1410
 2.1460	 8.1540
 2.1470	 8.1650
 2.1480	 8.1790
 2.1490	 8.1930
 2.1500	 8.2090
 2.1510	 8.2290
 2.1520	 8.2450
 2.1530	 8.2620
 2.1540	 8.2780
 2.1550	 8.2900
 2.1560	 8.3060
 2.1570	 8.3250
 2.1580	 8.3420
 2.1590	 8.3590
 2.1600	 8.3770
 2.1610	 8.3900
 2.1620	 8.4020
 2.1630	 8.4190
 2.1640	 8.4370
 2.1650	 8.4530
 2.1660	 8.4700
 2.1670	 8.4850
 2.1680	 8.4940
 2.1690	 8.5080
 2.1700	 8.5220
 2.1710	 8.5360
 2.1720	 8.5530
 2.1730	 8.5670
 2.1740	 8.5790
 2.1750	 8.5930
 2.1760	 8.6080
 2.1770	 8.6210
 2.1780	 8.6350
 2.1790	 8.6480
 2.1800	 8.6590
 2.1810	 8.6720
 2.1820	 8.6860
 2.1830	 8.7030
 2.1840	 8.7190
 2.1850	 8.7360
 2.1860	 8.7530
 2.1870	 8.7700
 2.1880	 8.7850
 2.1890	 8.7980
 2.1900	 8.8140
 2.1910	 8.8310
 2.1920	 8.8470
 2.1930	 8.8630
 2.1940	 8.8790
 2.1950	 8.8960
 2.1960	 8.9120
 2.1970	 8.9300
 2.1980	 8.9460
 2.1990	 8.9570
 2.2000	 8.9710
 2.2010	 8.9870
 2.2020	 9.0040
 2.2030	 9.0250
 2.2040	 9.0430
 2.2050	 9.0600
 2.2060	 9.0760
 2.2070	 9.0900
 2.2080	 9.1020
 2.2090	 9.1120
 2.2100	 9.1210
 2.2110	 9.1310
 2.2120	 9.1400
 2.2130	 9.1510
 2.2140	 9.1660
 2.2150	 9.1770
 2.2160	 9.1870
 2.2170	 9.1950
 2.2180	 9.2010
 2.2190	 9.2060
 2.2200	 9.2100
 2.2210	 9.2140
 2.2220	 9.2160
 2.2230	 9.2170
 2.2240	 9.2140
 2.2250	 9.2130
 2.2260	 9.2150
 2.2270	 9.2120
 2.2280	 9.2060
 2.2290	 9.2000
 2.2300	 9.1940
 2.2310	 9.1820
 2.2320	 9.1710
 2.2330	 9.1610
 2.2340	 9.1480
 2.2350	 9.1280
 2.2360	 9.1120
 2.2370	 9.0980
 2.2380	 9.0790
 2.2390	 9.0590
 2.2400	 9.0390
 2.2410	 9.0190
 2.2420	 8.9950
 2.2430	 8.9710
 2.2440	 8.9440
 2.2450	 8.9090
 2.2460	 8.8800
 2.2470	 8.8540
 2.2480	 8.8260
 2.2490	 8.8030
 2.2500	 8.7760
 2.2510	 8.7460
 2.2520	 8.7130
 2.2530	 8.6740
 2.2540	 8.6410
 2.2550	 8.6070
 2.2560	 8.5750
 2.2570	 8.5500
 2.2580	 8.5230
 2.2590	 8.4960
 2.2600	 8.4680
 2.2610	 8.4370
 2.2620	 8.4070
 2.2630	 8.3790
 2.2640	 8.3490
 2.2650	 8.3210
 2.2660	 8.2960
 2.2670	 8.2680
 2.2680	 8.2380
 2.2690	 8.2120
 2.2700	 8.1870
 2.2710	 8.1600
 2.2720	 8.1360
 2.2730	 8.1100
 2.2740	 8.0820
 2.2750	 8.0580
 2.2760	 8.0350
 2.2770	 8.0130
 2.2780	 7.9930
 2.2790	 7.9730
 2.2800	 7.9530
 2.2810	 7.9340
 2.2820	 7.9150
 2.2830	 7.8970
 2.2840	 7.8770
 2.2850	 7.8590
 2.2860	 7.8430
 2.2870	 7.8250
 2.2880	 7.8070
 2.2890	 7.7890
 2.2900	 7.7700
 2.2910	 7.7500
 2.2920	 7.7300
 2.2930	 7.7070
 2.2940	 7.6800
 2.2950	 7.6550
 2.2960	 7.6280
 2.2970	 7.6030
 2.2980	 7.5830
 2.2990	 7.5600
 2.3000	 7.5390
 2.3010	 7.5190
 2.3020	 7.4950
 2.3030	 7.4690
 2.3040	 7.4500
 2.3050	 7.4310
 2.3060	 7.4160
 2.3070	 7.4040
 2.3080	 7.3880
 2.3090	 7.3730
 2.3100	 7.3600
 2.3110	 7.3550
 2.3120	 7.3450
 2.3130	 7.3360
 2.3140	 7.3290
 2.3150	 7.3230
 2.3160	 7.3140
 2.3170	 7.3070
 2.3180	 7.2980
 2.3190	 7.2870
 2.3200	 7.2740
 2.3210	 7.2630
 2.3220	 7.2480
 2.3230	 7.2290
 2.3240	 7.2110
 2.3250	 7.1910
 2.3260	 7.1720
 2.3270	 7.1520
 2.3280	 7.1350
 2.3290	 7.1200
 2.3300	 7.1070
 2.3310	 7.1010
 2.3320	 7.0860
 2.3330	 7.0680
 2.3340	 7.0510
 2.3350	 7.0290
 2.3360	 7.0110
 2.3370	 6.9990
 2.3380	 6.9840
 2.3390	 6.9660
 2.3400	 6.9500
 2.3410	 6.9340
 2.3420	 6.9200
 2.3430	 6.9070
 2.3440	 6.8940
 2.3450	 6.8840
 2.3460	 6.8720
 2.3470	 6.8560
 2.3480	 6.8480
 2.3490	 6.8440
 2.3500	 6.8380
 2.3510	 6.8390
 2.3520	 6.8330
 2.3530	 6.8220
 2.3540	 6.8090
 2.3550	 6.7900
 2.3560	 6.7800
 2.3570	 6.7670
 2.3580	 6.7550
 2.3590	 6.7440
 2.3600	 6.7310
 2.3610	 6.7180
 2.3620	 6.7000
 2.3630	 6.6830
 2.3640	 6.6700
 2.3650	 6.6570
 2.3660	 6.6470
 2.3670	 6.6340
 2.3680	 6.6190
 2.3690	 6.6060
 2.3700	 6.5900
 2.3710	 6.5800
 2.3720	 6.5690
 2.3730	 6.5550
 2.3740	 6.5440
 2.3750	 6.5280
 2.3760	 6.5150
 2.3770	 6.5110
 2.3780	 6.5070
 2.3790	 6.5000
 2.3800	 6.4920
 2.3810	 6.4800
 2.3820	 6.4570
 2.3830	 6.4360
 2.3840	 6.4250
 2.3850	 6.4070
 2.3860	 6.3920
 2.3870	 6.3840
 2.3880	 6.3700
 2.3890	 6.3590
 2.3900	 6.3500
 2.3910	 6.3330
 2.3920	 6.3140
 2.3930	 6.3020
 2.3940	 6.2880
 2.3950	 6.2710
 2.3960	 6.2600
 2.3970	 6.2450
 2.3980	 6.2320
 2.3990	 6.2250
 2.4000	 6.2190
 2.4010	 6.2140
 2.4020	 6.1990
 2.4030	 6.1770
 2.4040	 6.1640
 2.4050	 6.1430
 2.4060	 6.1120
 2.4070	 6.1000
 2.4080	 6.0920
 2.4090	 6.0810
 2.4100	 6.0740
 2.4110	 6.0620
 2.4120	 6.0530
 2.4130	 6.0270
 2.4140	 6.0040
 2.4150	 5.9980
 2.4160	 5.9770
 2.4170	 5.9810
 2.4180	 5.9990
 2.4190	 5.9800
 2.4200	 5.9580
 2.4210	 5.9330
 2.4220	 5.9070
 2.4230	 5.8970
 2.4240	 5.8860
 2.4250	 5.8750
 2.4260	 5.8500
 2.4270	 5.8270
 2.4280	 5.8170
 2.4290	 5.8040
 2.4300	 5.7980
 2.4310	 5.7910
 2.4320	 5.7800
 2.4330	 5.7650
 2.4340	 5.7480
 2.4350	 5.7390
 2.4360	 5.7330
 2.4370	 5.7210
 2.4380	 5.7110
 2.4390	 5.6960
 2.4400	 5.6750
 2.4410	 5.6560
 2.4420	 5.6390
 2.4430	 5.6300
 2.4440	 5.6250
 2.4450	 5.6260
 2.4460	 5.6340
 2.4470	 5.6330
 2.4480	 5.6200
 2.4490	 5.6080
 2.4500	 5.5890
 2.4510	 5.5610
 2.4520	 5.5420
 2.4530	 5.5150
 2.4540	 5.4940
 2.4550	 5.4870
 2.4560	 5.4820
 2.4570	 5.4950
 2.4580	 5.5050
 2.4590	 5.5210
 2.4600	 5.5350
 2.4610	 5.5360
 2.4620	 5.5300
 2.4630	 5.5050
 2.4640	 5.4620
 2.4650	 5.4250
 2.4660	 5.4100
 2.4670	 5.4070
 2.4680	 5.4330
 2.4690	 5.4380
 2.4700	 5.4260
 2.4710	 5.3870
 2.4720	 5.3700
 2.4730	 5.3600
 2.4740	 5.3650
 2.4750	 5.4070
 2.4760	 5.4150
 2.4770	 5.3920
 2.4780	 5.3880
 2.4790	 5.3860
 2.4800	 5.3880
 2.4810	 5.4240
 2.4820	 5.4240
 2.4830	 5.3810
 2.4840	 5.3460
 2.4850	 5.2950
 2.4860	 5.2650
 2.4870	 5.2860
 2.4880	 5.2930
 2.4890	 5.3300
 2.4900	 5.3730
 2.4910	 5.3720
 2.4920	 5.3600
 2.4930	 5.3490
 2.4940	 5.3580
 2.4950	 5.3560
 2.4960	 5.3690
 2.4970	 5.3640
 2.4980	 5.3300
 2.4990	 5.3000
 2.5000	 5.2800
