Name: Umbellularia californica 1
Type: vegetation
Class: Shrub
Genus: Umbellularia
Species: californica
Sample No.: VH103
Owner: UCSB
Wavelength Range: VSWIR
Origin: 34.5074; -119.7634; WGS84
Collection Date: 6/3/2013
Description: Samples were collected as part of the HyspIRI Airborne Campaign. 48 individual plants were sampled in three times in 2013 - spring  summer  and fall. The name of the sample includes a 1  2  or 3 which references a different individual of the species. Samples were taken to JPL and processed within 48 hours of collection. The same leaves were processed in the Nicolet and then measured using the ASD.
Measurement: Bidirectional reflectance
First Column: X
Second Column: Y
X Units: Wavelength (micrometers)
Y Units: Reflectance (percentage)
First X Value: 0.35
Last X Value: 2.5
Number of X Values: 2151
Additional Information: vegetation.shrub.umbellularia.californica.vswir.vh103.ucsb.asd.ancillary.txt

 0.3500	 8.1230
 0.3510	 8.0220
 0.3520	 7.9340
 0.3530	 7.9480
 0.3540	 8.0680
 0.3550	 8.0810
 0.3560	 8.0630
 0.3570	 7.9930
 0.3580	 7.8310
 0.3590	 7.8590
 0.3600	 7.9310
 0.3610	 7.9400
 0.3620	 7.9000
 0.3630	 7.8380
 0.3640	 7.7620
 0.3650	 7.7030
 0.3660	 7.8310
 0.3670	 7.9060
 0.3680	 7.8740
 0.3690	 7.8190
 0.3700	 7.8140
 0.3710	 7.7830
 0.3720	 7.7030
 0.3730	 7.6860
 0.3740	 7.7180
 0.3750	 7.7690
 0.3760	 7.7950
 0.3770	 7.7220
 0.3780	 7.6840
 0.3790	 7.7070
 0.3800	 7.7130
 0.3810	 7.6700
 0.3820	 7.6700
 0.3830	 7.7500
 0.3840	 7.7980
 0.3850	 7.7440
 0.3860	 7.6730
 0.3870	 7.6970
 0.3880	 7.7000
 0.3890	 7.6730
 0.3900	 7.6520
 0.3910	 7.7110
 0.3920	 7.7270
 0.3930	 7.6830
 0.3940	 7.6090
 0.3950	 7.5780
 0.3960	 7.6150
 0.3970	 7.6810
 0.3980	 7.7100
 0.3990	 7.6810
 0.4000	 7.6510
 0.4010	 7.6490
 0.4020	 7.6550
 0.4030	 7.7030
 0.4040	 7.7380
 0.4050	 7.7170
 0.4060	 7.7250
 0.4070	 7.7180
 0.4080	 7.6980
 0.4090	 7.6950
 0.4100	 7.7310
 0.4110	 7.7620
 0.4120	 7.7670
 0.4130	 7.7780
 0.4140	 7.8090
 0.4150	 7.8490
 0.4160	 7.8810
 0.4170	 7.9080
 0.4180	 7.9430
 0.4190	 7.9780
 0.4200	 7.9830
 0.4210	 8.0180
 0.4220	 8.0540
 0.4230	 8.0670
 0.4240	 8.0960
 0.4250	 8.1300
 0.4260	 8.1550
 0.4270	 8.1610
 0.4280	 8.1960
 0.4290	 8.2300
 0.4300	 8.2500
 0.4310	 8.2760
 0.4320	 8.2870
 0.4330	 8.2880
 0.4340	 8.2900
 0.4350	 8.3100
 0.4360	 8.3260
 0.4370	 8.3350
 0.4380	 8.3470
 0.4390	 8.3820
 0.4400	 8.4120
 0.4410	 8.4220
 0.4420	 8.4400
 0.4430	 8.4480
 0.4440	 8.4610
 0.4450	 8.4970
 0.4460	 8.5140
 0.4470	 8.5300
 0.4480	 8.5520
 0.4490	 8.5710
 0.4500	 8.5940
 0.4510	 8.6160
 0.4520	 8.6330
 0.4530	 8.6530
 0.4540	 8.6610
 0.4550	 8.6680
 0.4560	 8.6950
 0.4570	 8.7050
 0.4580	 8.7070
 0.4590	 8.7110
 0.4600	 8.7220
 0.4610	 8.7240
 0.4620	 8.7250
 0.4630	 8.7370
 0.4640	 8.7530
 0.4650	 8.7450
 0.4660	 8.7230
 0.4670	 8.7320
 0.4680	 8.7410
 0.4690	 8.7480
 0.4700	 8.7560
 0.4710	 8.7630
 0.4720	 8.7650
 0.4730	 8.7620
 0.4740	 8.7590
 0.4750	 8.7710
 0.4760	 8.7780
 0.4770	 8.7720
 0.4780	 8.7720
 0.4790	 8.7780
 0.4800	 8.7850
 0.4810	 8.7880
 0.4820	 8.7950
 0.4830	 8.8030
 0.4840	 8.8120
 0.4850	 8.8260
 0.4860	 8.8320
 0.4870	 8.8400
 0.4880	 8.8570
 0.4890	 8.8770
 0.4900	 8.9020
 0.4910	 8.9300
 0.4920	 8.9560
 0.4930	 8.9830
 0.4940	 9.0170
 0.4950	 9.0610
 0.4960	 9.1080
 0.4970	 9.1530
 0.4980	 9.2000
 0.4990	 9.2560
 0.5000	 9.3150
 0.5010	 9.3840
 0.5020	 9.4640
 0.5030	 9.5500
 0.5040	 9.6370
 0.5050	 9.7350
 0.5060	 9.8480
 0.5070	 9.9740
 0.5080	10.1050
 0.5090	10.2450
 0.5100	10.4010
 0.5110	10.5670
 0.5120	10.7470
 0.5130	10.9440
 0.5140	11.1530
 0.5150	11.3780
 0.5160	11.6100
 0.5170	11.8470
 0.5180	12.1090
 0.5190	12.3830
 0.5200	12.6590
 0.5210	12.9320
 0.5220	13.2090
 0.5230	13.4890
 0.5240	13.7640
 0.5250	14.0280
 0.5260	14.2830
 0.5270	14.5270
 0.5280	14.7520
 0.5290	14.9660
 0.5300	15.1690
 0.5310	15.3600
 0.5320	15.5350
 0.5330	15.6940
 0.5340	15.8400
 0.5350	15.9750
 0.5360	16.0990
 0.5370	16.2080
 0.5380	16.3060
 0.5390	16.3990
 0.5400	16.4840
 0.5410	16.5610
 0.5420	16.6290
 0.5430	16.6950
 0.5440	16.7610
 0.5450	16.8270
 0.5460	16.8910
 0.5470	16.9650
 0.5480	17.0340
 0.5490	17.0890
 0.5500	17.1300
 0.5510	17.1570
 0.5520	17.1740
 0.5530	17.1770
 0.5540	17.1630
 0.5550	17.1320
 0.5560	17.0840
 0.5570	17.0190
 0.5580	16.9340
 0.5590	16.8360
 0.5600	16.7300
 0.5610	16.6120
 0.5620	16.4880
 0.5630	16.3580
 0.5640	16.2160
 0.5650	16.0650
 0.5660	15.9020
 0.5670	15.7300
 0.5680	15.5530
 0.5690	15.3730
 0.5700	15.1900
 0.5710	15.0050
 0.5720	14.8270
 0.5730	14.6590
 0.5740	14.5020
 0.5750	14.3530
 0.5760	14.2120
 0.5770	14.0840
 0.5780	13.9670
 0.5790	13.8530
 0.5800	13.7460
 0.5810	13.6490
 0.5820	13.5600
 0.5830	13.4670
 0.5840	13.3750
 0.5850	13.2880
 0.5860	13.2080
 0.5870	13.1300
 0.5880	13.0560
 0.5890	12.9900
 0.5900	12.9450
 0.5910	12.9050
 0.5920	12.8640
 0.5930	12.8170
 0.5940	12.7800
 0.5950	12.7450
 0.5960	12.7070
 0.5970	12.6700
 0.5980	12.6350
 0.5990	12.5990
 0.6000	12.5590
 0.6010	12.5120
 0.6020	12.4640
 0.6030	12.4150
 0.6040	12.3620
 0.6050	12.3030
 0.6060	12.2370
 0.6070	12.1660
 0.6080	12.0940
 0.6090	12.0110
 0.6100	11.9150
 0.6110	11.8160
 0.6120	11.7390
 0.6130	11.6690
 0.6140	11.5960
 0.6150	11.5200
 0.6160	11.4490
 0.6170	11.3800
 0.6180	11.3120
 0.6190	11.2550
 0.6200	11.2030
 0.6210	11.1530
 0.6220	11.1110
 0.6230	11.0730
 0.6240	11.0410
 0.6250	11.0170
 0.6260	10.9930
 0.6270	10.9770
 0.6280	10.9620
 0.6290	10.9430
 0.6300	10.9280
 0.6310	10.9140
 0.6320	10.8970
 0.6330	10.8720
 0.6340	10.8420
 0.6350	10.8030
 0.6360	10.7510
 0.6370	10.6910
 0.6380	10.6190
 0.6390	10.5370
 0.6400	10.4510
 0.6410	10.3650
 0.6420	10.2770
 0.6430	10.1850
 0.6440	10.0870
 0.6450	 9.9940
 0.6460	 9.9080
 0.6470	 9.8300
 0.6480	 9.7560
 0.6490	 9.6910
 0.6500	 9.6360
 0.6510	 9.5890
 0.6520	 9.5480
 0.6530	 9.5100
 0.6540	 9.4730
 0.6550	 9.4350
 0.6560	 9.3970
 0.6570	 9.3540
 0.6580	 9.3050
 0.6590	 9.2500
 0.6600	 9.1930
 0.6610	 9.1360
 0.6620	 9.0770
 0.6630	 9.0240
 0.6640	 8.9770
 0.6650	 8.9320
 0.6660	 8.8940
 0.6670	 8.8630
 0.6680	 8.8390
 0.6690	 8.8210
 0.6700	 8.8090
 0.6710	 8.8010
 0.6720	 8.7980
 0.6730	 8.8070
 0.6740	 8.8140
 0.6750	 8.8250
 0.6760	 8.8440
 0.6770	 8.8650
 0.6780	 8.8910
 0.6790	 8.9250
 0.6800	 8.9630
 0.6810	 9.0070
 0.6820	 9.0590
 0.6830	 9.1220
 0.6840	 9.1980
 0.6850	 9.2930
 0.6860	 9.4090
 0.6870	 9.5480
 0.6880	 9.7230
 0.6890	 9.9410
 0.6900	10.2100
 0.6910	10.5380
 0.6920	10.9340
 0.6930	11.4020
 0.6940	11.9480
 0.6950	12.5790
 0.6960	13.2950
 0.6970	14.0930
 0.6980	14.9670
 0.6990	15.9120
 0.7000	16.9210
 0.7010	17.9810
 0.7020	19.0820
 0.7030	20.2160
 0.7040	21.3730
 0.7050	22.5430
 0.7060	23.7230
 0.7070	24.9020
 0.7080	26.0800
 0.7090	27.2610
 0.7100	28.4380
 0.7110	29.6120
 0.7120	30.7820
 0.7130	31.9400
 0.7140	33.0920
 0.7150	34.2370
 0.7160	35.3710
 0.7170	36.4960
 0.7180	37.6090
 0.7190	38.7080
 0.7200	39.7930
 0.7210	40.8650
 0.7220	41.9230
 0.7230	42.9610
 0.7240	43.9700
 0.7250	44.9620
 0.7260	45.9310
 0.7270	46.8690
 0.7280	47.7730
 0.7290	48.6510
 0.7300	49.5030
 0.7310	50.3230
 0.7320	51.1090
 0.7330	51.8620
 0.7340	52.5870
 0.7350	53.2830
 0.7360	53.9450
 0.7370	54.5770
 0.7380	55.1790
 0.7390	55.7490
 0.7400	56.2900
 0.7410	56.8030
 0.7420	57.2910
 0.7430	57.7440
 0.7440	58.1670
 0.7450	58.5660
 0.7460	58.9490
 0.7470	59.3020
 0.7480	59.6260
 0.7490	59.9280
 0.7500	60.2110
 0.7510	60.4700
 0.7520	60.7090
 0.7530	60.9350
 0.7540	61.1390
 0.7550	61.3210
 0.7560	61.4860
 0.7570	61.6460
 0.7580	61.7930
 0.7590	61.9260
 0.7600	62.0480
 0.7610	62.1630
 0.7620	62.2640
 0.7630	62.3560
 0.7640	62.4460
 0.7650	62.5300
 0.7660	62.6010
 0.7670	62.6610
 0.7680	62.7190
 0.7690	62.7830
 0.7700	62.8360
 0.7710	62.8760
 0.7720	62.9220
 0.7730	62.9620
 0.7740	62.9990
 0.7750	63.0380
 0.7760	63.0720
 0.7770	63.1070
 0.7780	63.1420
 0.7790	63.1720
 0.7800	63.2000
 0.7810	63.2230
 0.7820	63.2470
 0.7830	63.2760
 0.7840	63.2980
 0.7850	63.3200
 0.7860	63.3460
 0.7870	63.3630
 0.7880	63.3860
 0.7890	63.4080
 0.7900	63.4230
 0.7910	63.4440
 0.7920	63.4590
 0.7930	63.4710
 0.7940	63.4870
 0.7950	63.5000
 0.7960	63.5080
 0.7970	63.5130
 0.7980	63.5240
 0.7990	63.5330
 0.8000	63.5410
 0.8010	63.5480
 0.8020	63.5520
 0.8030	63.5570
 0.8040	63.5610
 0.8050	63.5630
 0.8060	63.5690
 0.8070	63.5740
 0.8080	63.5740
 0.8090	63.5640
 0.8100	63.5570
 0.8110	63.5520
 0.8120	63.5490
 0.8130	63.5530
 0.8140	63.5440
 0.8150	63.5320
 0.8160	63.5280
 0.8170	63.5250
 0.8180	63.5160
 0.8190	63.5050
 0.8200	63.5020
 0.8210	63.4920
 0.8220	63.4880
 0.8230	63.4860
 0.8240	63.4740
 0.8250	63.4630
 0.8260	63.4540
 0.8270	63.4470
 0.8280	63.4290
 0.8290	63.4190
 0.8300	63.4140
 0.8310	63.4030
 0.8320	63.3920
 0.8330	63.3850
 0.8340	63.3780
 0.8350	63.3660
 0.8360	63.3630
 0.8370	63.3650
 0.8380	63.3660
 0.8390	63.3580
 0.8400	63.3560
 0.8410	63.3540
 0.8420	63.3500
 0.8430	63.3550
 0.8440	63.3610
 0.8450	63.3610
 0.8460	63.3550
 0.8470	63.3580
 0.8480	63.3630
 0.8490	63.3670
 0.8500	63.3680
 0.8510	63.3650
 0.8520	63.3730
 0.8530	63.3820
 0.8540	63.3750
 0.8550	63.3800
 0.8560	63.3880
 0.8570	63.3960
 0.8580	63.4000
 0.8590	63.4060
 0.8600	63.4120
 0.8610	63.4170
 0.8620	63.4200
 0.8630	63.4200
 0.8640	63.4230
 0.8650	63.4320
 0.8660	63.4440
 0.8670	63.4560
 0.8680	63.4620
 0.8690	63.4610
 0.8700	63.4650
 0.8710	63.4710
 0.8720	63.4790
 0.8730	63.4860
 0.8740	63.4890
 0.8750	63.4960
 0.8760	63.5060
 0.8770	63.5110
 0.8780	63.5190
 0.8790	63.5250
 0.8800	63.5310
 0.8810	63.5480
 0.8820	63.5560
 0.8830	63.5550
 0.8840	63.5520
 0.8850	63.5620
 0.8860	63.5760
 0.8870	63.5880
 0.8880	63.5960
 0.8890	63.6020
 0.8900	63.6020
 0.8910	63.5990
 0.8920	63.6030
 0.8930	63.6080
 0.8940	63.6150
 0.8950	63.6200
 0.8960	63.6240
 0.8970	63.6280
 0.8980	63.6310
 0.8990	63.6340
 0.9000	63.6370
 0.9010	63.6430
 0.9020	63.6470
 0.9030	63.6500
 0.9040	63.6640
 0.9050	63.6710
 0.9060	63.6680
 0.9070	63.6640
 0.9080	63.6780
 0.9090	63.6780
 0.9100	63.6760
 0.9110	63.6850
 0.9120	63.6970
 0.9130	63.7020
 0.9140	63.7030
 0.9150	63.7050
 0.9160	63.7110
 0.9170	63.7110
 0.9180	63.7050
 0.9190	63.6960
 0.9200	63.6870
 0.9210	63.6810
 0.9220	63.6780
 0.9230	63.6720
 0.9240	63.6700
 0.9250	63.6620
 0.9260	63.6480
 0.9270	63.6390
 0.9280	63.6240
 0.9290	63.6150
 0.9300	63.6090
 0.9310	63.5860
 0.9320	63.5560
 0.9330	63.5330
 0.9340	63.5180
 0.9350	63.4960
 0.9360	63.4720
 0.9370	63.4410
 0.9380	63.4050
 0.9390	63.3750
 0.9400	63.3410
 0.9410	63.3080
 0.9420	63.2760
 0.9430	63.2380
 0.9440	63.1930
 0.9450	63.1450
 0.9460	63.0950
 0.9470	63.0380
 0.9480	62.9690
 0.9490	62.8990
 0.9500	62.8320
 0.9510	62.7530
 0.9520	62.6720
 0.9530	62.5890
 0.9540	62.5030
 0.9550	62.4200
 0.9560	62.3390
 0.9570	62.2590
 0.9580	62.1810
 0.9590	62.0990
 0.9600	62.0280
 0.9610	61.9690
 0.9620	61.9190
 0.9630	61.8740
 0.9640	61.8220
 0.9650	61.7790
 0.9660	61.7590
 0.9670	61.7350
 0.9680	61.7070
 0.9690	61.6840
 0.9700	61.6710
 0.9710	61.6510
 0.9720	61.6310
 0.9730	61.6220
 0.9740	61.6260
 0.9750	61.6050
 0.9760	61.5970
 0.9770	61.5920
 0.9780	61.5690
 0.9790	61.5770
 0.9800	61.5930
 0.9810	61.6060
 0.9820	61.6190
 0.9830	61.6240
 0.9840	61.6190
 0.9850	61.6200
 0.9860	61.6470
 0.9870	61.6740
 0.9880	61.6790
 0.9890	61.6750
 0.9900	61.6860
 0.9910	61.7220
 0.9920	61.7730
 0.9930	61.8240
 0.9940	61.8740
 0.9950	61.9250
 0.9960	61.9760
 0.9970	62.0270
 0.9980	62.0780
 0.9990	62.1290
 1.0000	62.1800
 1.0010	62.2310
 1.0020	62.2810
 1.0030	62.3320
 1.0040	62.3830
 1.0050	62.4340
 1.0060	62.4850
 1.0070	62.5360
 1.0080	62.5870
 1.0090	62.6370
 1.0100	62.6370
 1.0110	62.6570
 1.0120	62.6840
 1.0130	62.7180
 1.0140	62.7450
 1.0150	62.7670
 1.0160	62.7960
 1.0170	62.8230
 1.0180	62.8460
 1.0190	62.8680
 1.0200	62.8900
 1.0210	62.9110
 1.0220	62.9380
 1.0230	62.9630
 1.0240	62.9930
 1.0250	63.0170
 1.0260	63.0340
 1.0270	63.0570
 1.0280	63.0820
 1.0290	63.1060
 1.0300	63.1320
 1.0310	63.1550
 1.0320	63.1770
 1.0330	63.1960
 1.0340	63.2110
 1.0350	63.2270
 1.0360	63.2450
 1.0370	63.2650
 1.0380	63.2810
 1.0390	63.2990
 1.0400	63.3150
 1.0410	63.3250
 1.0420	63.3390
 1.0430	63.3550
 1.0440	63.3700
 1.0450	63.3880
 1.0460	63.4030
 1.0470	63.4200
 1.0480	63.4340
 1.0490	63.4450
 1.0500	63.4570
 1.0510	63.4690
 1.0520	63.4790
 1.0530	63.4910
 1.0540	63.5060
 1.0550	63.5160
 1.0560	63.5240
 1.0570	63.5320
 1.0580	63.5370
 1.0590	63.5440
 1.0600	63.5540
 1.0610	63.5630
 1.0620	63.5730
 1.0630	63.5800
 1.0640	63.5850
 1.0650	63.5890
 1.0660	63.5860
 1.0670	63.5890
 1.0680	63.5940
 1.0690	63.6030
 1.0700	63.6070
 1.0710	63.6140
 1.0720	63.6160
 1.0730	63.6120
 1.0740	63.6110
 1.0750	63.6110
 1.0760	63.6090
 1.0770	63.6040
 1.0780	63.5990
 1.0790	63.5930
 1.0800	63.5880
 1.0810	63.5840
 1.0820	63.5790
 1.0830	63.5720
 1.0840	63.5660
 1.0850	63.5610
 1.0860	63.5550
 1.0870	63.5470
 1.0880	63.5380
 1.0890	63.5300
 1.0900	63.5190
 1.0910	63.5090
 1.0920	63.5000
 1.0930	63.4890
 1.0940	63.4760
 1.0950	63.4620
 1.0960	63.4440
 1.0970	63.4300
 1.0980	63.4140
 1.0990	63.3990
 1.1000	63.3880
 1.1010	63.3750
 1.1020	63.3630
 1.1030	63.3480
 1.1040	63.3300
 1.1050	63.3110
 1.1060	63.2920
 1.1070	63.2710
 1.1080	63.2480
 1.1090	63.2240
 1.1100	63.2010
 1.1110	63.1730
 1.1120	63.1480
 1.1130	63.1280
 1.1140	63.1020
 1.1150	63.0730
 1.1160	63.0430
 1.1170	63.0110
 1.1180	62.9750
 1.1190	62.9360
 1.1200	62.8950
 1.1210	62.8510
 1.1220	62.8010
 1.1230	62.7450
 1.1240	62.6830
 1.1250	62.6150
 1.1260	62.5400
 1.1270	62.4560
 1.1280	62.3690
 1.1290	62.2690
 1.1300	62.1580
 1.1310	62.0370
 1.1320	61.9070
 1.1330	61.7680
 1.1340	61.6200
 1.1350	61.4630
 1.1360	61.2960
 1.1370	61.1210
 1.1380	60.9400
 1.1390	60.7480
 1.1400	60.5490
 1.1410	60.3500
 1.1420	60.1430
 1.1430	59.9360
 1.1440	59.7310
 1.1450	59.5220
 1.1460	59.3210
 1.1470	59.1220
 1.1480	58.9340
 1.1490	58.7490
 1.1500	58.5780
 1.1510	58.4160
 1.1520	58.2640
 1.1530	58.1230
 1.1540	57.9940
 1.1550	57.8720
 1.1560	57.7630
 1.1570	57.6660
 1.1580	57.5770
 1.1590	57.4980
 1.1600	57.4250
 1.1610	57.3580
 1.1620	57.2990
 1.1630	57.2430
 1.1640	57.1930
 1.1650	57.1480
 1.1660	57.1090
 1.1670	57.0720
 1.1680	57.0420
 1.1690	57.0090
 1.1700	56.9780
 1.1710	56.9480
 1.1720	56.9180
 1.1730	56.8890
 1.1740	56.8630
 1.1750	56.8380
 1.1760	56.8120
 1.1770	56.7830
 1.1780	56.7510
 1.1790	56.7150
 1.1800	56.6770
 1.1810	56.6410
 1.1820	56.6020
 1.1830	56.5620
 1.1840	56.5240
 1.1850	56.4880
 1.1860	56.4550
 1.1870	56.4240
 1.1880	56.3950
 1.1890	56.3660
 1.1900	56.3400
 1.1910	56.3170
 1.1920	56.2950
 1.1930	56.2740
 1.1940	56.2560
 1.1950	56.2380
 1.1960	56.2260
 1.1970	56.2170
 1.1980	56.2140
 1.1990	56.2180
 1.2000	56.2220
 1.2010	56.2310
 1.2020	56.2470
 1.2030	56.2630
 1.2040	56.2840
 1.2050	56.3100
 1.2060	56.3390
 1.2070	56.3730
 1.2080	56.4110
 1.2090	56.4530
 1.2100	56.4990
 1.2110	56.5440
 1.2120	56.5930
 1.2130	56.6430
 1.2140	56.6930
 1.2150	56.7460
 1.2160	56.8030
 1.2170	56.8630
 1.2180	56.9230
 1.2190	56.9840
 1.2200	57.0480
 1.2210	57.1110
 1.2220	57.1750
 1.2230	57.2400
 1.2240	57.3010
 1.2250	57.3610
 1.2260	57.4180
 1.2270	57.4730
 1.2280	57.5250
 1.2290	57.5780
 1.2300	57.6300
 1.2310	57.6830
 1.2320	57.7330
 1.2330	57.7770
 1.2340	57.8210
 1.2350	57.8610
 1.2360	57.9020
 1.2370	57.9410
 1.2380	57.9820
 1.2390	58.0210
 1.2400	58.0580
 1.2410	58.0950
 1.2420	58.1290
 1.2430	58.1590
 1.2440	58.1880
 1.2450	58.2170
 1.2460	58.2430
 1.2470	58.2730
 1.2480	58.3010
 1.2490	58.3220
 1.2500	58.3450
 1.2510	58.3650
 1.2520	58.3810
 1.2530	58.4010
 1.2540	58.4180
 1.2550	58.4310
 1.2560	58.4440
 1.2570	58.4520
 1.2580	58.4600
 1.2590	58.4680
 1.2600	58.4770
 1.2610	58.4850
 1.2620	58.4930
 1.2630	58.4980
 1.2640	58.5020
 1.2650	58.5040
 1.2660	58.5040
 1.2670	58.5010
 1.2680	58.4980
 1.2690	58.4910
 1.2700	58.4820
 1.2710	58.4740
 1.2720	58.4660
 1.2730	58.4580
 1.2740	58.4470
 1.2750	58.4340
 1.2760	58.4170
 1.2770	58.3980
 1.2780	58.3780
 1.2790	58.3580
 1.2800	58.3370
 1.2810	58.3120
 1.2820	58.2870
 1.2830	58.2640
 1.2840	58.2400
 1.2850	58.2080
 1.2860	58.1740
 1.2870	58.1390
 1.2880	58.1000
 1.2890	58.0570
 1.2900	58.0160
 1.2910	57.9730
 1.2920	57.9240
 1.2930	57.8710
 1.2940	57.8200
 1.2950	57.7660
 1.2960	57.7080
 1.2970	57.6480
 1.2980	57.5820
 1.2990	57.5110
 1.3000	57.4420
 1.3010	57.3680
 1.3020	57.2890
 1.3030	57.2090
 1.3040	57.1260
 1.3050	57.0360
 1.3060	56.9440
 1.3070	56.8460
 1.3080	56.7400
 1.3090	56.6330
 1.3100	56.5230
 1.3110	56.4080
 1.3120	56.2950
 1.3130	56.1770
 1.3140	56.0520
 1.3150	55.9220
 1.3160	55.7890
 1.3170	55.6510
 1.3180	55.5070
 1.3190	55.3600
 1.3200	55.2110
 1.3210	55.0530
 1.3220	54.8920
 1.3230	54.7280
 1.3240	54.5570
 1.3250	54.3850
 1.3260	54.2100
 1.3270	54.0320
 1.3280	53.8540
 1.3290	53.6700
 1.3300	53.4840
 1.3310	53.2950
 1.3320	53.1010
 1.3330	52.9080
 1.3340	52.7140
 1.3350	52.5190
 1.3360	52.3220
 1.3370	52.1240
 1.3380	51.9260
 1.3390	51.7280
 1.3400	51.5290
 1.3410	51.3330
 1.3420	51.1380
 1.3430	50.9440
 1.3440	50.7500
 1.3450	50.5570
 1.3460	50.3620
 1.3470	50.1700
 1.3480	49.9790
 1.3490	49.7900
 1.3500	49.6050
 1.3510	49.4160
 1.3520	49.2290
 1.3530	49.0440
 1.3540	48.8560
 1.3550	48.6700
 1.3560	48.4810
 1.3570	48.2870
 1.3580	48.0940
 1.3590	47.8990
 1.3600	47.6980
 1.3610	47.4930
 1.3620	47.2820
 1.3630	47.0650
 1.3640	46.8410
 1.3650	46.6070
 1.3660	46.3650
 1.3670	46.1140
 1.3680	45.8480
 1.3690	45.5690
 1.3700	45.2710
 1.3710	44.9560
 1.3720	44.6220
 1.3730	44.2660
 1.3740	43.8930
 1.3750	43.4960
 1.3760	43.0720
 1.3770	42.6250
 1.3780	42.1460
 1.3790	41.6410
 1.3800	41.1090
 1.3810	40.5440
 1.3820	39.9610
 1.3830	39.3550
 1.3840	38.7290
 1.3850	38.0800
 1.3860	37.4180
 1.3870	36.7310
 1.3880	36.0440
 1.3890	35.3450
 1.3900	34.6400
 1.3910	33.9380
 1.3920	33.2320
 1.3930	32.5240
 1.3940	31.8240
 1.3950	31.1250
 1.3960	30.4390
 1.3970	29.7690
 1.3980	29.1150
 1.3990	28.4880
 1.4000	27.8800
 1.4010	27.2900
 1.4020	26.7290
 1.4030	26.1860
 1.4040	25.6710
 1.4050	25.1860
 1.4060	24.7240
 1.4070	24.2950
 1.4080	23.8910
 1.4090	23.5110
 1.4100	23.1610
 1.4110	22.8330
 1.4120	22.5310
 1.4130	22.2540
 1.4140	21.9970
 1.4150	21.7640
 1.4160	21.5500
 1.4170	21.3560
 1.4180	21.1790
 1.4190	21.0180
 1.4200	20.8730
 1.4210	20.7410
 1.4220	20.6210
 1.4230	20.5150
 1.4240	20.4220
 1.4250	20.3370
 1.4260	20.2650
 1.4270	20.2000
 1.4280	20.1430
 1.4290	20.0950
 1.4300	20.0550
 1.4310	20.0210
 1.4320	19.9960
 1.4330	19.9750
 1.4340	19.9610
 1.4350	19.9500
 1.4360	19.9460
 1.4370	19.9460
 1.4380	19.9500
 1.4390	19.9570
 1.4400	19.9690
 1.4410	19.9850
 1.4420	20.0040
 1.4430	20.0250
 1.4440	20.0480
 1.4450	20.0740
 1.4460	20.1000
 1.4470	20.1300
 1.4480	20.1600
 1.4490	20.1910
 1.4500	20.2230
 1.4510	20.2570
 1.4520	20.2930
 1.4530	20.3300
 1.4540	20.3680
 1.4550	20.4080
 1.4560	20.4500
 1.4570	20.4970
 1.4580	20.5480
 1.4590	20.6020
 1.4600	20.6610
 1.4610	20.7240
 1.4620	20.7910
 1.4630	20.8640
 1.4640	20.9420
 1.4650	21.0260
 1.4660	21.1150
 1.4670	21.2100
 1.4680	21.3120
 1.4690	21.4170
 1.4700	21.5280
 1.4710	21.6460
 1.4720	21.7660
 1.4730	21.8900
 1.4740	22.0190
 1.4750	22.1500
 1.4760	22.2860
 1.4770	22.4240
 1.4780	22.5650
 1.4790	22.7090
 1.4800	22.8540
 1.4810	23.0000
 1.4820	23.1500
 1.4830	23.2990
 1.4840	23.4510
 1.4850	23.6050
 1.4860	23.7590
 1.4870	23.9150
 1.4880	24.0710
 1.4890	24.2270
 1.4900	24.3840
 1.4910	24.5410
 1.4920	24.6990
 1.4930	24.8600
 1.4940	25.0190
 1.4950	25.1800
 1.4960	25.3400
 1.4970	25.4990
 1.4980	25.6590
 1.4990	25.8190
 1.5000	25.9790
 1.5010	26.1410
 1.5020	26.3010
 1.5030	26.4600
 1.5040	26.6200
 1.5050	26.7770
 1.5060	26.9350
 1.5070	27.0940
 1.5080	27.2510
 1.5090	27.4090
 1.5100	27.5660
 1.5110	27.7220
 1.5120	27.8760
 1.5130	28.0280
 1.5140	28.1790
 1.5150	28.3310
 1.5160	28.4810
 1.5170	28.6330
 1.5180	28.7830
 1.5190	28.9310
 1.5200	29.0780
 1.5210	29.2220
 1.5220	29.3650
 1.5230	29.5080
 1.5240	29.6480
 1.5250	29.7880
 1.5260	29.9250
 1.5270	30.0610
 1.5280	30.1970
 1.5290	30.3320
 1.5300	30.4660
 1.5310	30.6000
 1.5320	30.7310
 1.5330	30.8630
 1.5340	30.9930
 1.5350	31.1220
 1.5360	31.2490
 1.5370	31.3750
 1.5380	31.5000
 1.5390	31.6250
 1.5400	31.7470
 1.5410	31.8700
 1.5420	31.9910
 1.5430	32.1100
 1.5440	32.2310
 1.5450	32.3490
 1.5460	32.4660
 1.5470	32.5830
 1.5480	32.6970
 1.5490	32.8110
 1.5500	32.9240
 1.5510	33.0350
 1.5520	33.1470
 1.5530	33.2560
 1.5540	33.3660
 1.5550	33.4750
 1.5560	33.5820
 1.5570	33.6880
 1.5580	33.7920
 1.5590	33.8960
 1.5600	33.9990
 1.5610	34.1000
 1.5620	34.2000
 1.5630	34.2980
 1.5640	34.3970
 1.5650	34.4970
 1.5660	34.5960
 1.5670	34.6930
 1.5680	34.7900
 1.5690	34.8820
 1.5700	34.9740
 1.5710	35.0670
 1.5720	35.1590
 1.5730	35.2530
 1.5740	35.3470
 1.5750	35.4380
 1.5760	35.5310
 1.5770	35.6210
 1.5780	35.7130
 1.5790	35.8040
 1.5800	35.8920
 1.5810	35.9820
 1.5820	36.0710
 1.5830	36.1570
 1.5840	36.2450
 1.5850	36.3300
 1.5860	36.4140
 1.5870	36.4990
 1.5880	36.5840
 1.5890	36.6680
 1.5900	36.7490
 1.5910	36.8300
 1.5920	36.9110
 1.5930	36.9900
 1.5940	37.0720
 1.5950	37.1550
 1.5960	37.2370
 1.5970	37.3170
 1.5980	37.3970
 1.5990	37.4760
 1.6000	37.5530
 1.6010	37.6300
 1.6020	37.7050
 1.6030	37.7790
 1.6040	37.8510
 1.6050	37.9230
 1.6060	37.9950
 1.6070	38.0670
 1.6080	38.1360
 1.6090	38.2040
 1.6100	38.2710
 1.6110	38.3370
 1.6120	38.4030
 1.6130	38.4690
 1.6140	38.5320
 1.6150	38.5940
 1.6160	38.6560
 1.6170	38.7130
 1.6180	38.7690
 1.6190	38.8260
 1.6200	38.8790
 1.6210	38.9330
 1.6220	38.9890
 1.6230	39.0420
 1.6240	39.0900
 1.6250	39.1350
 1.6260	39.1780
 1.6270	39.2200
 1.6280	39.2660
 1.6290	39.3090
 1.6300	39.3510
 1.6310	39.3920
 1.6320	39.4310
 1.6330	39.4710
 1.6340	39.5110
 1.6350	39.5490
 1.6360	39.5860
 1.6370	39.6220
 1.6380	39.6570
 1.6390	39.6910
 1.6400	39.7250
 1.6410	39.7560
 1.6420	39.7850
 1.6430	39.8120
 1.6440	39.8390
 1.6450	39.8620
 1.6460	39.8820
 1.6470	39.8970
 1.6480	39.9080
 1.6490	39.9170
 1.6500	39.9220
 1.6510	39.9270
 1.6520	39.9290
 1.6530	39.9260
 1.6540	39.9200
 1.6550	39.9090
 1.6560	39.8970
 1.6570	39.8840
 1.6580	39.8680
 1.6590	39.8510
 1.6600	39.8300
 1.6610	39.8050
 1.6620	39.7790
 1.6630	39.7520
 1.6640	39.7220
 1.6650	39.6900
 1.6660	39.6550
 1.6670	39.6160
 1.6680	39.5710
 1.6690	39.5230
 1.6700	39.4740
 1.6710	39.4220
 1.6720	39.3690
 1.6730	39.3110
 1.6740	39.2460
 1.6750	39.1780
 1.6760	39.1050
 1.6770	39.0290
 1.6780	38.9500
 1.6790	38.8650
 1.6800	38.7750
 1.6810	38.6830
 1.6820	38.5860
 1.6830	38.4840
 1.6840	38.3790
 1.6850	38.2690
 1.6860	38.1540
 1.6870	38.0360
 1.6880	37.9160
 1.6890	37.7970
 1.6900	37.6760
 1.6910	37.5530
 1.6920	37.4350
 1.6930	37.3160
 1.6940	37.2010
 1.6950	37.0900
 1.6960	36.9800
 1.6970	36.8720
 1.6980	36.7660
 1.6990	36.6640
 1.7000	36.5610
 1.7010	36.4580
 1.7020	36.3540
 1.7030	36.2500
 1.7040	36.1440
 1.7050	36.0360
 1.7060	35.9280
 1.7070	35.8180
 1.7080	35.7120
 1.7090	35.6060
 1.7100	35.5060
 1.7110	35.4080
 1.7120	35.3180
 1.7130	35.2350
 1.7140	35.1590
 1.7150	35.0900
 1.7160	35.0260
 1.7170	34.9670
 1.7180	34.9150
 1.7190	34.8660
 1.7200	34.8220
 1.7210	34.7830
 1.7220	34.7450
 1.7230	34.7120
 1.7240	34.6860
 1.7250	34.6600
 1.7260	34.6390
 1.7270	34.6190
 1.7280	34.6020
 1.7290	34.5890
 1.7300	34.5790
 1.7310	34.5690
 1.7320	34.5600
 1.7330	34.5470
 1.7340	34.5360
 1.7350	34.5190
 1.7360	34.4980
 1.7370	34.4720
 1.7380	34.4420
 1.7390	34.4060
 1.7400	34.3640
 1.7410	34.3150
 1.7420	34.2600
 1.7430	34.1980
 1.7440	34.1270
 1.7450	34.0550
 1.7460	33.9760
 1.7470	33.8980
 1.7480	33.8170
 1.7490	33.7370
 1.7500	33.6540
 1.7510	33.5750
 1.7520	33.4950
 1.7530	33.4190
 1.7540	33.3460
 1.7550	33.2770
 1.7560	33.2100
 1.7570	33.1440
 1.7580	33.0820
 1.7590	33.0250
 1.7600	32.9690
 1.7610	32.9170
 1.7620	32.8670
 1.7630	32.8200
 1.7640	32.7750
 1.7650	32.7340
 1.7660	32.6930
 1.7670	32.6550
 1.7680	32.6170
 1.7690	32.5800
 1.7700	32.5430
 1.7710	32.5050
 1.7720	32.4700
 1.7730	32.4350
 1.7740	32.4030
 1.7750	32.3750
 1.7760	32.3460
 1.7770	32.3190
 1.7780	32.2960
 1.7790	32.2730
 1.7800	32.2580
 1.7810	32.2500
 1.7820	32.2430
 1.7830	32.2410
 1.7840	32.2410
 1.7850	32.2430
 1.7860	32.2490
 1.7870	32.2590
 1.7880	32.2690
 1.7890	32.2800
 1.7900	32.2920
 1.7910	32.3060
 1.7920	32.3220
 1.7930	32.3380
 1.7940	32.3530
 1.7950	32.3700
 1.7960	32.3870
 1.7970	32.4020
 1.7980	32.4150
 1.7990	32.4300
 1.8000	32.4450
 1.8010	32.4590
 1.8020	32.4740
 1.8030	32.4880
 1.8040	32.4990
 1.8050	32.5110
 1.8060	32.5230
 1.8070	32.5350
 1.8080	32.5470
 1.8090	32.5580
 1.8100	32.5710
 1.8110	32.5830
 1.8120	32.5910
 1.8130	32.5970
 1.8140	32.6040
 1.8150	32.6110
 1.8160	32.6190
 1.8170	32.6220
 1.8180	32.6220
 1.8190	32.6200
 1.8200	32.6200
 1.8210	32.6230
 1.8220	32.6210
 1.8230	32.6160
 1.8240	32.6080
 1.8250	32.5940
 1.8260	32.5830
 1.8270	32.5550
 1.8280	32.5270
 1.8290	32.5000
 1.8300	32.4720
 1.8310	32.4440
 1.8320	32.4160
 1.8330	32.3880
 1.8340	32.3610
 1.8350	32.3610
 1.8360	32.3080
 1.8370	32.2480
 1.8380	32.1830
 1.8390	32.1120
 1.8400	32.0390
 1.8410	31.9540
 1.8420	31.8620
 1.8430	31.7600
 1.8440	31.6500
 1.8450	31.5320
 1.8460	31.4010
 1.8470	31.2610
 1.8480	31.1100
 1.8490	30.9430
 1.8500	30.7660
 1.8510	30.5810
 1.8520	30.3830
 1.8530	30.1660
 1.8540	29.9360
 1.8550	29.6880
 1.8560	29.4230
 1.8570	29.1420
 1.8580	28.8450
 1.8590	28.5320
 1.8600	28.2030
 1.8610	27.8550
 1.8620	27.4900
 1.8630	27.1100
 1.8640	26.7040
 1.8650	26.2790
 1.8660	25.8350
 1.8670	25.3600
 1.8680	24.8680
 1.8690	24.3590
 1.8700	23.8280
 1.8710	23.2770
 1.8720	22.7180
 1.8730	22.1440
 1.8740	21.5590
 1.8750	20.9690
 1.8760	20.3710
 1.8770	19.7750
 1.8780	19.1810
 1.8790	18.5870
 1.8800	18.0060
 1.8810	17.4330
 1.8820	16.8650
 1.8830	16.2990
 1.8840	15.7470
 1.8850	15.2040
 1.8860	14.6750
 1.8870	14.1680
 1.8880	13.6840
 1.8890	13.2260
 1.8900	12.7890
 1.8910	12.3790
 1.8920	11.9910
 1.8930	11.6310
 1.8940	11.2920
 1.8950	10.9830
 1.8960	10.6990
 1.8970	10.4370
 1.8980	10.2020
 1.8990	 9.9860
 1.9000	 9.7880
 1.9010	 9.6140
 1.9020	 9.4520
 1.9030	 9.3100
 1.9040	 9.1830
 1.9050	 9.0700
 1.9060	 8.9720
 1.9070	 8.8850
 1.9080	 8.8060
 1.9090	 8.7390
 1.9100	 8.6790
 1.9110	 8.6260
 1.9120	 8.5850
 1.9130	 8.5450
 1.9140	 8.5110
 1.9150	 8.4810
 1.9160	 8.4540
 1.9170	 8.4320
 1.9180	 8.4150
 1.9190	 8.4000
 1.9200	 8.3880
 1.9210	 8.3810
 1.9220	 8.3760
 1.9230	 8.3730
 1.9240	 8.3720
 1.9250	 8.3750
 1.9260	 8.3780
 1.9270	 8.3810
 1.9280	 8.3850
 1.9290	 8.3940
 1.9300	 8.4040
 1.9310	 8.4160
 1.9320	 8.4310
 1.9330	 8.4460
 1.9340	 8.4610
 1.9350	 8.4800
 1.9360	 8.5020
 1.9370	 8.5240
 1.9380	 8.5470
 1.9390	 8.5710
 1.9400	 8.5940
 1.9410	 8.6190
 1.9420	 8.6450
 1.9430	 8.6770
 1.9440	 8.7080
 1.9450	 8.7390
 1.9460	 8.7730
 1.9470	 8.8090
 1.9480	 8.8450
 1.9490	 8.8820
 1.9500	 8.9230
 1.9510	 8.9610
 1.9520	 9.0010
 1.9530	 9.0420
 1.9540	 9.0840
 1.9550	 9.1270
 1.9560	 9.1710
 1.9570	 9.2180
 1.9580	 9.2660
 1.9590	 9.3140
 1.9600	 9.3650
 1.9610	 9.4160
 1.9620	 9.4650
 1.9630	 9.5170
 1.9640	 9.5720
 1.9650	 9.6250
 1.9660	 9.6800
 1.9670	 9.7380
 1.9680	 9.7970
 1.9690	 9.8560
 1.9700	 9.9170
 1.9710	 9.9790
 1.9720	10.0410
 1.9730	10.1030
 1.9740	10.1630
 1.9750	10.2250
 1.9760	10.2890
 1.9770	10.3530
 1.9780	10.4190
 1.9790	10.4870
 1.9800	10.5570
 1.9810	10.6270
 1.9820	10.6990
 1.9830	10.7710
 1.9840	10.8430
 1.9850	10.9160
 1.9860	10.9910
 1.9870	11.0640
 1.9880	11.1350
 1.9890	11.2080
 1.9900	11.2820
 1.9910	11.3570
 1.9920	11.4330
 1.9930	11.5130
 1.9940	11.5900
 1.9950	11.6660
 1.9960	11.7430
 1.9970	11.8190
 1.9980	11.8970
 1.9990	11.9740
 2.0000	12.0530
 2.0010	12.1320
 2.0020	12.2100
 2.0030	12.2860
 2.0040	12.3610
 2.0050	12.4380
 2.0060	12.5160
 2.0070	12.5920
 2.0080	12.6710
 2.0090	12.7480
 2.0100	12.8230
 2.0110	12.8990
 2.0120	12.9750
 2.0130	13.0520
 2.0140	13.1300
 2.0150	13.2040
 2.0160	13.2780
 2.0170	13.3520
 2.0180	13.4240
 2.0190	13.4950
 2.0200	13.5640
 2.0210	13.6300
 2.0220	13.6970
 2.0230	13.7620
 2.0240	13.8280
 2.0250	13.8940
 2.0260	13.9590
 2.0270	14.0250
 2.0280	14.0890
 2.0290	14.1500
 2.0300	14.2110
 2.0310	14.2710
 2.0320	14.3300
 2.0330	14.3890
 2.0340	14.4500
 2.0350	14.5070
 2.0360	14.5620
 2.0370	14.6150
 2.0380	14.6660
 2.0390	14.7170
 2.0400	14.7660
 2.0410	14.8160
 2.0420	14.8660
 2.0430	14.9170
 2.0440	14.9640
 2.0450	15.0080
 2.0460	15.0560
 2.0470	15.1010
 2.0480	15.1480
 2.0490	15.2000
 2.0500	15.2470
 2.0510	15.2890
 2.0520	15.3330
 2.0530	15.3750
 2.0540	15.4190
 2.0550	15.4680
 2.0560	15.5140
 2.0570	15.5580
 2.0580	15.6030
 2.0590	15.6490
 2.0600	15.6920
 2.0610	15.7400
 2.0620	15.7900
 2.0630	15.8380
 2.0640	15.8860
 2.0650	15.9330
 2.0660	15.9790
 2.0670	16.0270
 2.0680	16.0770
 2.0690	16.1260
 2.0700	16.1740
 2.0710	16.2220
 2.0720	16.2680
 2.0730	16.3150
 2.0740	16.3630
 2.0750	16.4120
 2.0760	16.4610
 2.0770	16.5120
 2.0780	16.5600
 2.0790	16.6080
 2.0800	16.6560
 2.0810	16.7000
 2.0820	16.7470
 2.0830	16.7950
 2.0840	16.8420
 2.0850	16.8900
 2.0860	16.9360
 2.0870	16.9820
 2.0880	17.0270
 2.0890	17.0720
 2.0900	17.1170
 2.0910	17.1640
 2.0920	17.2140
 2.0930	17.2610
 2.0940	17.3090
 2.0950	17.3560
 2.0960	17.4000
 2.0970	17.4460
 2.0980	17.4910
 2.0990	17.5400
 2.1000	17.5940
 2.1010	17.6440
 2.1020	17.6980
 2.1030	17.7480
 2.1040	17.7940
 2.1050	17.8400
 2.1060	17.8880
 2.1070	17.9330
 2.1080	17.9830
 2.1090	18.0360
 2.1100	18.0850
 2.1110	18.1370
 2.1120	18.1860
 2.1130	18.2340
 2.1140	18.2800
 2.1150	18.3240
 2.1160	18.3700
 2.1170	18.4150
 2.1180	18.4610
 2.1190	18.5080
 2.1200	18.5550
 2.1210	18.5990
 2.1220	18.6430
 2.1230	18.6860
 2.1240	18.7280
 2.1250	18.7700
 2.1260	18.8110
 2.1270	18.8520
 2.1280	18.8950
 2.1290	18.9350
 2.1300	18.9740
 2.1310	19.0120
 2.1320	19.0510
 2.1330	19.0860
 2.1340	19.1180
 2.1350	19.1510
 2.1360	19.1820
 2.1370	19.2140
 2.1380	19.2480
 2.1390	19.2820
 2.1400	19.3160
 2.1410	19.3510
 2.1420	19.3830
 2.1430	19.4170
 2.1440	19.4470
 2.1450	19.4740
 2.1460	19.5040
 2.1470	19.5370
 2.1480	19.5640
 2.1490	19.5900
 2.1500	19.6150
 2.1510	19.6380
 2.1520	19.6610
 2.1530	19.6860
 2.1540	19.7100
 2.1550	19.7290
 2.1560	19.7510
 2.1570	19.7780
 2.1580	19.8000
 2.1590	19.8220
 2.1600	19.8440
 2.1610	19.8610
 2.1620	19.8820
 2.1630	19.9060
 2.1640	19.9350
 2.1650	19.9580
 2.1660	19.9800
 2.1670	20.0040
 2.1680	20.0250
 2.1690	20.0470
 2.1700	20.0740
 2.1710	20.0970
 2.1720	20.1150
 2.1730	20.1350
 2.1740	20.1520
 2.1750	20.1730
 2.1760	20.1940
 2.1770	20.2190
 2.1780	20.2490
 2.1790	20.2760
 2.1800	20.3040
 2.1810	20.3300
 2.1820	20.3520
 2.1830	20.3720
 2.1840	20.3960
 2.1850	20.4200
 2.1860	20.4440
 2.1870	20.4700
 2.1880	20.4950
 2.1890	20.5180
 2.1900	20.5420
 2.1910	20.5650
 2.1920	20.5900
 2.1930	20.6180
 2.1940	20.6420
 2.1950	20.6690
 2.1960	20.6880
 2.1970	20.6990
 2.1980	20.7150
 2.1990	20.7330
 2.2000	20.7470
 2.2010	20.7620
 2.2020	20.7740
 2.2030	20.7780
 2.2040	20.7840
 2.2050	20.7910
 2.2060	20.7980
 2.2070	20.8040
 2.2080	20.8120
 2.2090	20.8130
 2.2100	20.8100
 2.2110	20.8070
 2.2120	20.7990
 2.2130	20.7950
 2.2140	20.7950
 2.2150	20.7900
 2.2160	20.7860
 2.2170	20.7770
 2.2180	20.7650
 2.2190	20.7510
 2.2200	20.7350
 2.2210	20.7180
 2.2220	20.7010
 2.2230	20.6790
 2.2240	20.6530
 2.2250	20.6250
 2.2260	20.5940
 2.2270	20.5610
 2.2280	20.5260
 2.2290	20.4890
 2.2300	20.4510
 2.2310	20.4070
 2.2320	20.3600
 2.2330	20.3090
 2.2340	20.2510
 2.2350	20.1840
 2.2360	20.1190
 2.2370	20.0500
 2.2380	19.9820
 2.2390	19.9180
 2.2400	19.8420
 2.2410	19.7630
 2.2420	19.6780
 2.2430	19.5830
 2.2440	19.4930
 2.2450	19.4030
 2.2460	19.3120
 2.2470	19.2210
 2.2480	19.1270
 2.2490	19.0310
 2.2500	18.9330
 2.2510	18.8330
 2.2520	18.7310
 2.2530	18.6270
 2.2540	18.5230
 2.2550	18.4220
 2.2560	18.3160
 2.2570	18.2080
 2.2580	18.1000
 2.2590	17.9850
 2.2600	17.8780
 2.2610	17.7770
 2.2620	17.6750
 2.2630	17.5760
 2.2640	17.4790
 2.2650	17.3760
 2.2660	17.2770
 2.2670	17.1860
 2.2680	17.0970
 2.2690	17.0130
 2.2700	16.9390
 2.2710	16.8600
 2.2720	16.7800
 2.2730	16.7060
 2.2740	16.6310
 2.2750	16.5640
 2.2760	16.5060
 2.2770	16.4450
 2.2780	16.3880
 2.2790	16.3290
 2.2800	16.2700
 2.2810	16.2100
 2.2820	16.1500
 2.2830	16.0910
 2.2840	16.0320
 2.2850	15.9720
 2.2860	15.9140
 2.2870	15.8530
 2.2880	15.7940
 2.2890	15.7280
 2.2900	15.6600
 2.2910	15.5890
 2.2920	15.5040
 2.2930	15.4310
 2.2940	15.3660
 2.2950	15.2960
 2.2960	15.2290
 2.2970	15.1600
 2.2980	15.0860
 2.2990	15.0090
 2.3000	14.9370
 2.3010	14.8750
 2.3020	14.8150
 2.3030	14.7610
 2.3040	14.7130
 2.3050	14.6660
 2.3060	14.6280
 2.3070	14.5960
 2.3080	14.5720
 2.3090	14.5510
 2.3100	14.5350
 2.3110	14.5260
 2.3120	14.5170
 2.3130	14.5140
 2.3140	14.5090
 2.3150	14.5060
 2.3160	14.5000
 2.3170	14.4940
 2.3180	14.4880
 2.3190	14.4820
 2.3200	14.4710
 2.3210	14.4600
 2.3220	14.4460
 2.3230	14.4300
 2.3240	14.4100
 2.3250	14.3890
 2.3260	14.3640
 2.3270	14.3330
 2.3280	14.3010
 2.3290	14.2630
 2.3300	14.2280
 2.3310	14.1890
 2.3320	14.1580
 2.3330	14.1360
 2.3340	14.1060
 2.3350	14.0750
 2.3360	14.0430
 2.3370	14.0100
 2.3380	13.9700
 2.3390	13.9220
 2.3400	13.8810
 2.3410	13.8340
 2.3420	13.7950
 2.3430	13.7690
 2.3440	13.7370
 2.3450	13.7030
 2.3460	13.6690
 2.3470	13.6300
 2.3480	13.5940
 2.3490	13.5580
 2.3500	13.5270
 2.3510	13.4970
 2.3520	13.4750
 2.3530	13.4630
 2.3540	13.4460
 2.3550	13.4310
 2.3560	13.4180
 2.3570	13.3990
 2.3580	13.3800
 2.3590	13.3570
 2.3600	13.3300
 2.3610	13.2960
 2.3620	13.2640
 2.3630	13.2390
 2.3640	13.2180
 2.3650	13.1920
 2.3660	13.1640
 2.3670	13.1340
 2.3680	13.1080
 2.3690	13.0830
 2.3700	13.0560
 2.3710	13.0300
 2.3720	12.9990
 2.3730	12.9650
 2.3740	12.9410
 2.3750	12.9130
 2.3760	12.8860
 2.3770	12.8690
 2.3780	12.8420
 2.3790	12.8150
 2.3800	12.7870
 2.3810	12.7620
 2.3820	12.7360
 2.3830	12.6940
 2.3840	12.6490
 2.3850	12.5980
 2.3860	12.5400
 2.3870	12.5010
 2.3880	12.4680
 2.3890	12.4370
 2.3900	12.4190
 2.3910	12.3890
 2.3920	12.3540
 2.3930	12.3160
 2.3940	12.2740
 2.3950	12.2410
 2.3960	12.2060
 2.3970	12.1760
 2.3980	12.1400
 2.3990	12.0910
 2.4000	12.0430
 2.4010	11.9910
 2.4020	11.9450
 2.4030	11.9100
 2.4040	11.8760
 2.4050	11.8440
 2.4060	11.8090
 2.4070	11.7570
 2.4080	11.7140
 2.4090	11.6850
 2.4100	11.6500
 2.4110	11.6270
 2.4120	11.6050
 2.4130	11.5630
 2.4140	11.5190
 2.4150	11.4800
 2.4160	11.4320
 2.4170	11.3820
 2.4180	11.3370
 2.4190	11.2980
 2.4200	11.2690
 2.4210	11.2430
 2.4220	11.2070
 2.4230	11.1590
 2.4240	11.1080
 2.4250	11.0500
 2.4260	11.0050
 2.4270	10.9720
 2.4280	10.9290
 2.4290	10.8970
 2.4300	10.8570
 2.4310	10.8160
 2.4320	10.7790
 2.4330	10.7200
 2.4340	10.6790
 2.4350	10.6390
 2.4360	10.5840
 2.4370	10.5460
 2.4380	10.5080
 2.4390	10.4560
 2.4400	10.4040
 2.4410	10.3630
 2.4420	10.3220
 2.4430	10.2820
 2.4440	10.2580
 2.4450	10.2290
 2.4460	10.1880
 2.4470	10.1410
 2.4480	10.0820
 2.4490	10.0240
 2.4500	 9.9630
 2.4510	 9.9040
 2.4520	 9.8610
 2.4530	 9.8260
 2.4540	 9.7980
 2.4550	 9.7800
 2.4560	 9.7530
 2.4570	 9.7100
 2.4580	 9.6500
 2.4590	 9.5900
 2.4600	 9.5470
 2.4610	 9.5220
 2.4620	 9.5140
 2.4630	 9.5170
 2.4640	 9.5050
 2.4650	 9.4710
 2.4660	 9.4230
 2.4670	 9.3640
 2.4680	 9.3170
 2.4690	 9.3050
 2.4700	 9.2930
 2.4710	 9.3140
 2.4720	 9.2980
 2.4730	 9.2520
 2.4740	 9.2210
 2.4750	 9.1760
 2.4760	 9.1480
 2.4770	 9.1360
 2.4780	 9.1100
 2.4790	 9.0940
 2.4800	 9.0770
 2.4810	 9.0520
 2.4820	 9.0440
 2.4830	 8.9860
 2.4840	 8.9270
 2.4850	 8.9110
 2.4860	 8.9110
 2.4870	 8.9510
 2.4880	 8.9590
 2.4890	 8.9270
 2.4900	 8.9180
 2.4910	 8.9040
 2.4920	 8.9220
 2.4930	 8.9700
 2.4940	 8.9420
 2.4950	 8.8920
 2.4960	 8.8520
 2.4970	 8.7830
 2.4980	 8.7680
 2.4990	 8.7980
 2.5000	 8.8110
