Name: Arctostaphylos glandulosa 3
Type: vegetation
Class: Shrub
Genus: Arctostaphylos
Species: glandulosa
Sample No.: VH122
Owner: UCSB
Wavelength Range: VSWIR
Origin: 34.5085; -119.7682; WGS84
Collection Date: 6/3/2013
Description: Samples were collected as part of the HyspIRI Airborne Campaign. 48 individual plants were sampled in three times in 2013 - spring  summer  and fall. The name of the sample includes a 1  2  or 3 which references a different individual of the species. Samples were taken to JPL and processed within 48 hours of collection. The same leaves were processed in the Nicolet and then measured using the ASD.
Measurement: Bidirectional reflectance
First Column: X
Second Column: Y
X Units: Wavelength (micrometers)
Y Units: Reflectance (percentage)
First X Value: 0.35
Last X Value: 2.5
Number of X Values: 2151
Additional Information: vegetation.shrub.arctostaphylos.glandulosa.vswir.vh122.ucsb.asd.ancillary.txt

 0.3500	 7.2580
 0.3510	 7.2840
 0.3520	 7.3380
 0.3530	 7.2730
 0.3540	 7.0740
 0.3550	 7.1330
 0.3560	 7.1300
 0.3570	 7.0450
 0.3580	 7.0140
 0.3590	 7.1130
 0.3600	 7.2100
 0.3610	 7.2190
 0.3620	 7.1320
 0.3630	 7.1040
 0.3640	 7.1330
 0.3650	 7.1690
 0.3660	 7.1740
 0.3670	 7.1610
 0.3680	 7.1250
 0.3690	 7.0660
 0.3700	 7.1180
 0.3710	 7.1830
 0.3720	 7.2000
 0.3730	 7.2360
 0.3740	 7.2480
 0.3750	 7.2440
 0.3760	 7.2460
 0.3770	 7.2640
 0.3780	 7.2830
 0.3790	 7.2890
 0.3800	 7.2740
 0.3810	 7.3350
 0.3820	 7.3760
 0.3830	 7.3520
 0.3840	 7.3930
 0.3850	 7.4210
 0.3860	 7.4310
 0.3870	 7.4480
 0.3880	 7.4910
 0.3890	 7.5410
 0.3900	 7.5780
 0.3910	 7.5850
 0.3920	 7.5850
 0.3930	 7.5860
 0.3940	 7.5970
 0.3950	 7.6390
 0.3960	 7.6520
 0.3970	 7.6590
 0.3980	 7.7100
 0.3990	 7.7300
 0.4000	 7.7410
 0.4010	 7.7560
 0.4020	 7.7740
 0.4030	 7.7970
 0.4040	 7.8220
 0.4050	 7.8420
 0.4060	 7.8470
 0.4070	 7.8710
 0.4080	 7.9130
 0.4090	 7.9510
 0.4100	 8.0100
 0.4110	 8.0480
 0.4120	 8.0540
 0.4130	 8.0880
 0.4140	 8.1180
 0.4150	 8.1430
 0.4160	 8.1690
 0.4170	 8.2140
 0.4180	 8.2730
 0.4190	 8.3400
 0.4200	 8.4100
 0.4210	 8.4540
 0.4220	 8.4930
 0.4230	 8.5470
 0.4240	 8.6080
 0.4250	 8.6700
 0.4260	 8.7300
 0.4270	 8.7900
 0.4280	 8.8540
 0.4290	 8.9270
 0.4300	 9.0040
 0.4310	 9.0740
 0.4320	 9.1400
 0.4330	 9.2030
 0.4340	 9.2600
 0.4350	 9.3180
 0.4360	 9.3870
 0.4370	 9.4640
 0.4380	 9.5380
 0.4390	 9.6090
 0.4400	 9.6700
 0.4410	 9.7240
 0.4420	 9.7870
 0.4430	 9.8500
 0.4440	 9.9120
 0.4450	 9.9770
 0.4460	10.0580
 0.4470	10.1290
 0.4480	10.1820
 0.4490	10.2380
 0.4500	10.3050
 0.4510	10.3690
 0.4520	10.4200
 0.4530	10.4730
 0.4540	10.5130
 0.4550	10.5480
 0.4560	10.5980
 0.4570	10.6410
 0.4580	10.6630
 0.4590	10.6680
 0.4600	10.6960
 0.4610	10.7160
 0.4620	10.7320
 0.4630	10.7560
 0.4640	10.7720
 0.4650	10.7880
 0.4660	10.8050
 0.4670	10.8110
 0.4680	10.8100
 0.4690	10.8180
 0.4700	10.8430
 0.4710	10.8540
 0.4720	10.8630
 0.4730	10.8740
 0.4740	10.8850
 0.4750	10.8890
 0.4760	10.9010
 0.4770	10.9200
 0.4780	10.9230
 0.4790	10.9220
 0.4800	10.9240
 0.4810	10.9330
 0.4820	10.9440
 0.4830	10.9510
 0.4840	10.9620
 0.4850	10.9890
 0.4860	11.0090
 0.4870	11.0310
 0.4880	11.0620
 0.4890	11.0920
 0.4900	11.1290
 0.4910	11.1700
 0.4920	11.2070
 0.4930	11.2610
 0.4940	11.3180
 0.4950	11.3710
 0.4960	11.4300
 0.4970	11.4960
 0.4980	11.5710
 0.4990	11.6560
 0.5000	11.7430
 0.5010	11.8340
 0.5020	11.9340
 0.5030	12.0490
 0.5040	12.1730
 0.5050	12.3000
 0.5060	12.4290
 0.5070	12.5640
 0.5080	12.7140
 0.5090	12.8750
 0.5100	13.0420
 0.5110	13.2180
 0.5120	13.3960
 0.5130	13.5770
 0.5140	13.7710
 0.5150	13.9670
 0.5160	14.1610
 0.5170	14.3540
 0.5180	14.5580
 0.5190	14.7630
 0.5200	14.9650
 0.5210	15.1580
 0.5220	15.3450
 0.5230	15.5270
 0.5240	15.7020
 0.5250	15.8660
 0.5260	16.0190
 0.5270	16.1630
 0.5280	16.2980
 0.5290	16.4240
 0.5300	16.5440
 0.5310	16.6570
 0.5320	16.7530
 0.5330	16.8460
 0.5340	16.9320
 0.5350	17.0100
 0.5360	17.0840
 0.5370	17.1550
 0.5380	17.2210
 0.5390	17.2810
 0.5400	17.3440
 0.5410	17.4100
 0.5420	17.4750
 0.5430	17.5330
 0.5440	17.5990
 0.5450	17.6710
 0.5460	17.7380
 0.5470	17.8080
 0.5480	17.8780
 0.5490	17.9470
 0.5500	18.0150
 0.5510	18.0840
 0.5520	18.1520
 0.5530	18.2170
 0.5540	18.2740
 0.5550	18.3310
 0.5560	18.3860
 0.5570	18.4300
 0.5580	18.4720
 0.5590	18.5090
 0.5600	18.5410
 0.5610	18.5710
 0.5620	18.6060
 0.5630	18.6420
 0.5640	18.6750
 0.5650	18.7000
 0.5660	18.7180
 0.5670	18.7290
 0.5680	18.7310
 0.5690	18.7280
 0.5700	18.7230
 0.5710	18.7180
 0.5720	18.7090
 0.5730	18.7060
 0.5740	18.7130
 0.5750	18.7280
 0.5760	18.7370
 0.5770	18.7400
 0.5780	18.7390
 0.5790	18.7270
 0.5800	18.7200
 0.5810	18.7230
 0.5820	18.7400
 0.5830	18.7730
 0.5840	18.8070
 0.5850	18.8350
 0.5860	18.8600
 0.5870	18.8710
 0.5880	18.8840
 0.5890	18.9130
 0.5900	18.9650
 0.5910	19.0250
 0.5920	19.0880
 0.5930	19.1470
 0.5940	19.1980
 0.5950	19.2370
 0.5960	19.2670
 0.5970	19.2980
 0.5980	19.3300
 0.5990	19.3600
 0.6000	19.3840
 0.6010	19.4000
 0.6020	19.4060
 0.6030	19.4010
 0.6040	19.3830
 0.6050	19.3550
 0.6060	19.3140
 0.6070	19.2570
 0.6080	19.1900
 0.6090	19.1130
 0.6100	19.0280
 0.6110	18.9390
 0.6120	18.8430
 0.6130	18.7370
 0.6140	18.6260
 0.6150	18.5290
 0.6160	18.4260
 0.6170	18.3250
 0.6180	18.2370
 0.6190	18.1580
 0.6200	18.0860
 0.6210	18.0220
 0.6220	17.9670
 0.6230	17.9180
 0.6240	17.8770
 0.6250	17.8450
 0.6260	17.8280
 0.6270	17.8110
 0.6280	17.7970
 0.6290	17.7910
 0.6300	17.7820
 0.6310	17.7680
 0.6320	17.7440
 0.6330	17.7100
 0.6340	17.6590
 0.6350	17.5920
 0.6360	17.5090
 0.6370	17.3990
 0.6380	17.2660
 0.6390	17.1160
 0.6400	16.9520
 0.6410	16.7680
 0.6420	16.5760
 0.6430	16.3780
 0.6440	16.1650
 0.6450	15.9560
 0.6460	15.7530
 0.6470	15.5550
 0.6480	15.3750
 0.6490	15.2140
 0.6500	15.0740
 0.6510	14.9520
 0.6520	14.8440
 0.6530	14.7400
 0.6540	14.6320
 0.6550	14.5210
 0.6560	14.3970
 0.6570	14.2550
 0.6580	14.0980
 0.6590	13.9250
 0.6600	13.7400
 0.6610	13.5470
 0.6620	13.3490
 0.6630	13.1560
 0.6640	12.9700
 0.6650	12.7930
 0.6660	12.6350
 0.6670	12.4950
 0.6680	12.3720
 0.6690	12.2650
 0.6700	12.1730
 0.6710	12.0990
 0.6720	12.0440
 0.6730	12.0060
 0.6740	11.9810
 0.6750	11.9660
 0.6760	11.9620
 0.6770	11.9710
 0.6780	11.9950
 0.6790	12.0390
 0.6800	12.1060
 0.6810	12.2050
 0.6820	12.3420
 0.6830	12.5270
 0.6840	12.7650
 0.6850	13.0660
 0.6860	13.4430
 0.6870	13.9070
 0.6880	14.4580
 0.6890	15.1010
 0.6900	15.8390
 0.6910	16.6730
 0.6920	17.5980
 0.6930	18.6040
 0.6940	19.6840
 0.6950	20.8270
 0.6960	22.0260
 0.6970	23.2700
 0.6980	24.5460
 0.6990	25.8450
 0.7000	27.1530
 0.7010	28.4600
 0.7020	29.7580
 0.7030	31.0340
 0.7040	32.2810
 0.7050	33.4960
 0.7060	34.6710
 0.7070	35.8070
 0.7080	36.9060
 0.7090	37.9700
 0.7100	38.9980
 0.7110	39.9950
 0.7120	40.9570
 0.7130	41.8810
 0.7140	42.7700
 0.7150	43.6310
 0.7160	44.4620
 0.7170	45.2600
 0.7180	46.0300
 0.7190	46.7670
 0.7200	47.4670
 0.7210	48.1460
 0.7220	48.7980
 0.7230	49.4170
 0.7240	49.9950
 0.7250	50.5480
 0.7260	51.0700
 0.7270	51.5580
 0.7280	52.0220
 0.7290	52.4550
 0.7300	52.8600
 0.7310	53.2380
 0.7320	53.5960
 0.7330	53.9270
 0.7340	54.2320
 0.7350	54.5230
 0.7360	54.7930
 0.7370	55.0440
 0.7380	55.2770
 0.7390	55.4950
 0.7400	55.6970
 0.7410	55.8840
 0.7420	56.0580
 0.7430	56.2230
 0.7440	56.3750
 0.7450	56.5130
 0.7460	56.6430
 0.7470	56.7620
 0.7480	56.8690
 0.7490	56.9650
 0.7500	57.0600
 0.7510	57.1460
 0.7520	57.2240
 0.7530	57.2970
 0.7540	57.3630
 0.7550	57.4200
 0.7560	57.4720
 0.7570	57.5280
 0.7580	57.5770
 0.7590	57.6250
 0.7600	57.6730
 0.7610	57.7140
 0.7620	57.7520
 0.7630	57.7870
 0.7640	57.8170
 0.7650	57.8480
 0.7660	57.8800
 0.7670	57.9100
 0.7680	57.9370
 0.7690	57.9640
 0.7700	57.9890
 0.7710	58.0140
 0.7720	58.0400
 0.7730	58.0630
 0.7740	58.0870
 0.7750	58.1150
 0.7760	58.1360
 0.7770	58.1540
 0.7780	58.1730
 0.7790	58.1980
 0.7800	58.2220
 0.7810	58.2470
 0.7820	58.2690
 0.7830	58.2880
 0.7840	58.3050
 0.7850	58.3240
 0.7860	58.3430
 0.7870	58.3620
 0.7880	58.3810
 0.7890	58.3980
 0.7900	58.4110
 0.7910	58.4310
 0.7920	58.4500
 0.7930	58.4640
 0.7940	58.4780
 0.7950	58.4890
 0.7960	58.5010
 0.7970	58.5150
 0.7980	58.5250
 0.7990	58.5330
 0.8000	58.5420
 0.8010	58.5540
 0.8020	58.5610
 0.8030	58.5670
 0.8040	58.5730
 0.8050	58.5740
 0.8060	58.5720
 0.8070	58.5740
 0.8080	58.5800
 0.8090	58.5780
 0.8100	58.5740
 0.8110	58.5700
 0.8120	58.5680
 0.8130	58.5700
 0.8140	58.5630
 0.8150	58.5530
 0.8160	58.5480
 0.8170	58.5430
 0.8180	58.5360
 0.8190	58.5300
 0.8200	58.5310
 0.8210	58.5220
 0.8220	58.5110
 0.8230	58.5030
 0.8240	58.4920
 0.8250	58.4730
 0.8260	58.4540
 0.8270	58.4400
 0.8280	58.4230
 0.8290	58.4060
 0.8300	58.3890
 0.8310	58.3710
 0.8320	58.3530
 0.8330	58.3380
 0.8340	58.3250
 0.8350	58.3110
 0.8360	58.2950
 0.8370	58.2820
 0.8380	58.2740
 0.8390	58.2650
 0.8400	58.2640
 0.8410	58.2600
 0.8420	58.2510
 0.8430	58.2500
 0.8440	58.2470
 0.8450	58.2450
 0.8460	58.2450
 0.8470	58.2300
 0.8480	58.2250
 0.8490	58.2280
 0.8500	58.2320
 0.8510	58.2260
 0.8520	58.2250
 0.8530	58.2280
 0.8540	58.2260
 0.8550	58.2200
 0.8560	58.2190
 0.8570	58.2220
 0.8580	58.2220
 0.8590	58.2150
 0.8600	58.2140
 0.8610	58.2200
 0.8620	58.2180
 0.8630	58.2190
 0.8640	58.2210
 0.8650	58.2240
 0.8660	58.2240
 0.8670	58.2300
 0.8680	58.2390
 0.8690	58.2400
 0.8700	58.2340
 0.8710	58.2380
 0.8720	58.2480
 0.8730	58.2530
 0.8740	58.2570
 0.8750	58.2620
 0.8760	58.2700
 0.8770	58.2780
 0.8780	58.2800
 0.8790	58.2800
 0.8800	58.2830
 0.8810	58.2850
 0.8820	58.2890
 0.8830	58.2920
 0.8840	58.2920
 0.8850	58.2960
 0.8860	58.2970
 0.8870	58.3010
 0.8880	58.3100
 0.8890	58.3030
 0.8900	58.2990
 0.8910	58.3020
 0.8920	58.3020
 0.8930	58.2980
 0.8940	58.3050
 0.8950	58.3140
 0.8960	58.3070
 0.8970	58.3040
 0.8980	58.3060
 0.8990	58.3090
 0.9000	58.3100
 0.9010	58.3080
 0.9020	58.3070
 0.9030	58.3080
 0.9040	58.3070
 0.9050	58.2970
 0.9060	58.2880
 0.9070	58.2870
 0.9080	58.2930
 0.9090	58.2890
 0.9100	58.2820
 0.9110	58.2790
 0.9120	58.2780
 0.9130	58.2740
 0.9140	58.2700
 0.9150	58.2670
 0.9160	58.2460
 0.9170	58.2320
 0.9180	58.2260
 0.9190	58.2180
 0.9200	58.2060
 0.9210	58.1880
 0.9220	58.1660
 0.9230	58.1430
 0.9240	58.1220
 0.9250	58.1000
 0.9260	58.0700
 0.9270	58.0260
 0.9280	57.9910
 0.9290	57.9610
 0.9300	57.9280
 0.9310	57.8840
 0.9320	57.8440
 0.9330	57.8020
 0.9340	57.7580
 0.9350	57.7180
 0.9360	57.6570
 0.9370	57.5990
 0.9380	57.5530
 0.9390	57.4930
 0.9400	57.4330
 0.9410	57.3700
 0.9420	57.3020
 0.9430	57.2340
 0.9440	57.1490
 0.9450	57.0630
 0.9460	56.9810
 0.9470	56.8820
 0.9480	56.7710
 0.9490	56.6590
 0.9500	56.5440
 0.9510	56.4070
 0.9520	56.2670
 0.9530	56.1310
 0.9540	55.9960
 0.9550	55.8490
 0.9560	55.7040
 0.9570	55.5670
 0.9580	55.4440
 0.9590	55.3310
 0.9600	55.2130
 0.9610	55.1030
 0.9620	55.0160
 0.9630	54.9310
 0.9640	54.8720
 0.9650	54.8210
 0.9660	54.7610
 0.9670	54.7300
 0.9680	54.7040
 0.9690	54.6800
 0.9700	54.6570
 0.9710	54.6130
 0.9720	54.5880
 0.9730	54.5770
 0.9740	54.5610
 0.9750	54.5450
 0.9760	54.5520
 0.9770	54.5640
 0.9780	54.5570
 0.9790	54.5580
 0.9800	54.5650
 0.9810	54.5710
 0.9820	54.5740
 0.9830	54.5980
 0.9840	54.6230
 0.9850	54.6460
 0.9860	54.6670
 0.9870	54.6780
 0.9880	54.7000
 0.9890	54.7420
 0.9900	54.8030
 0.9910	54.8750
 0.9920	54.9100
 0.9930	54.9460
 0.9940	54.9810
 0.9950	55.0160
 0.9960	55.0520
 0.9970	55.0870
 0.9980	55.1220
 0.9990	55.1580
 1.0000	55.1930
 1.0010	55.2280
 1.0020	55.2630
 1.0030	55.2990
 1.0040	55.3340
 1.0050	55.3690
 1.0060	55.4050
 1.0070	55.4400
 1.0080	55.4750
 1.0090	55.5110
 1.0100	55.5110
 1.0110	55.5510
 1.0120	55.5980
 1.0130	55.6490
 1.0140	55.7030
 1.0150	55.7630
 1.0160	55.8180
 1.0170	55.8630
 1.0180	55.9100
 1.0190	55.9530
 1.0200	55.9950
 1.0210	56.0450
 1.0220	56.1010
 1.0230	56.1470
 1.0240	56.1870
 1.0250	56.2300
 1.0260	56.2730
 1.0270	56.3130
 1.0280	56.3530
 1.0290	56.3930
 1.0300	56.4300
 1.0310	56.4680
 1.0320	56.5090
 1.0330	56.5490
 1.0340	56.5850
 1.0350	56.6240
 1.0360	56.6660
 1.0370	56.7030
 1.0380	56.7350
 1.0390	56.7630
 1.0400	56.7930
 1.0410	56.8200
 1.0420	56.8490
 1.0430	56.8850
 1.0440	56.9130
 1.0450	56.9350
 1.0460	56.9600
 1.0470	56.9820
 1.0480	57.0060
 1.0490	57.0330
 1.0500	57.0560
 1.0510	57.0780
 1.0520	57.0990
 1.0530	57.1210
 1.0540	57.1430
 1.0550	57.1630
 1.0560	57.1850
 1.0570	57.2050
 1.0580	57.2220
 1.0590	57.2400
 1.0600	57.2600
 1.0610	57.2740
 1.0620	57.2840
 1.0630	57.2960
 1.0640	57.3030
 1.0650	57.3130
 1.0660	57.3250
 1.0670	57.3350
 1.0680	57.3430
 1.0690	57.3510
 1.0700	57.3560
 1.0710	57.3580
 1.0720	57.3610
 1.0730	57.3620
 1.0740	57.3630
 1.0750	57.3620
 1.0760	57.3620
 1.0770	57.3620
 1.0780	57.3600
 1.0790	57.3580
 1.0800	57.3540
 1.0810	57.3480
 1.0820	57.3410
 1.0830	57.3320
 1.0840	57.3230
 1.0850	57.3120
 1.0860	57.3010
 1.0870	57.2890
 1.0880	57.2780
 1.0890	57.2640
 1.0900	57.2480
 1.0910	57.2310
 1.0920	57.2130
 1.0930	57.1930
 1.0940	57.1720
 1.0950	57.1500
 1.0960	57.1260
 1.0970	57.1020
 1.0980	57.0780
 1.0990	57.0520
 1.1000	57.0230
 1.1010	56.9950
 1.1020	56.9660
 1.1030	56.9380
 1.1040	56.9100
 1.1050	56.8810
 1.1060	56.8470
 1.1070	56.8080
 1.1080	56.7720
 1.1090	56.7340
 1.1100	56.6960
 1.1110	56.6630
 1.1120	56.6210
 1.1130	56.5730
 1.1140	56.5230
 1.1150	56.4710
 1.1160	56.4120
 1.1170	56.3490
 1.1180	56.2830
 1.1190	56.2130
 1.1200	56.1380
 1.1210	56.0600
 1.1220	55.9770
 1.1230	55.8830
 1.1240	55.7830
 1.1250	55.6730
 1.1260	55.5570
 1.1270	55.4300
 1.1280	55.2960
 1.1290	55.1480
 1.1300	54.9930
 1.1310	54.8240
 1.1320	54.6450
 1.1330	54.4510
 1.1340	54.2470
 1.1350	54.0280
 1.1360	53.7930
 1.1370	53.5480
 1.1380	53.2950
 1.1390	53.0330
 1.1400	52.7620
 1.1410	52.4880
 1.1420	52.2070
 1.1430	51.9200
 1.1440	51.6370
 1.1450	51.3500
 1.1460	51.0740
 1.1470	50.7970
 1.1480	50.5350
 1.1490	50.2770
 1.1500	50.0390
 1.1510	49.8120
 1.1520	49.6020
 1.1530	49.4070
 1.1540	49.2290
 1.1550	49.0660
 1.1560	48.9210
 1.1570	48.7930
 1.1580	48.6800
 1.1590	48.5790
 1.1600	48.4930
 1.1610	48.4200
 1.1620	48.3550
 1.1630	48.3020
 1.1640	48.2550
 1.1650	48.2130
 1.1660	48.1780
 1.1670	48.1470
 1.1680	48.1230
 1.1690	48.0990
 1.1700	48.0810
 1.1710	48.0620
 1.1720	48.0460
 1.1730	48.0280
 1.1740	48.0100
 1.1750	47.9910
 1.1760	47.9670
 1.1770	47.9440
 1.1780	47.9200
 1.1790	47.8930
 1.1800	47.8680
 1.1810	47.8420
 1.1820	47.8160
 1.1830	47.7900
 1.1840	47.7610
 1.1850	47.7330
 1.1860	47.7040
 1.1870	47.6770
 1.1880	47.6520
 1.1890	47.6280
 1.1900	47.6060
 1.1910	47.5850
 1.1920	47.5670
 1.1930	47.5500
 1.1940	47.5370
 1.1950	47.5280
 1.1960	47.5200
 1.1970	47.5150
 1.1980	47.5090
 1.1990	47.5060
 1.2000	47.5050
 1.2010	47.5100
 1.2020	47.5190
 1.2030	47.5310
 1.2040	47.5470
 1.2050	47.5670
 1.2060	47.5900
 1.2070	47.6200
 1.2080	47.6520
 1.2090	47.6830
 1.2100	47.7200
 1.2110	47.7600
 1.2120	47.8020
 1.2130	47.8490
 1.2140	47.9010
 1.2150	47.9550
 1.2160	48.0120
 1.2170	48.0720
 1.2180	48.1340
 1.2190	48.2000
 1.2200	48.2650
 1.2210	48.3290
 1.2220	48.3930
 1.2230	48.4530
 1.2240	48.5110
 1.2250	48.5730
 1.2260	48.6320
 1.2270	48.6920
 1.2280	48.7510
 1.2290	48.8070
 1.2300	48.8580
 1.2310	48.9080
 1.2320	48.9570
 1.2330	49.0040
 1.2340	49.0500
 1.2350	49.0950
 1.2360	49.1400
 1.2370	49.1840
 1.2380	49.2240
 1.2390	49.2640
 1.2400	49.2990
 1.2410	49.3330
 1.2420	49.3650
 1.2430	49.3980
 1.2440	49.4340
 1.2450	49.4650
 1.2460	49.4950
 1.2470	49.5270
 1.2480	49.5560
 1.2490	49.5830
 1.2500	49.6100
 1.2510	49.6350
 1.2520	49.6550
 1.2530	49.6730
 1.2540	49.6920
 1.2550	49.7080
 1.2560	49.7220
 1.2570	49.7390
 1.2580	49.7540
 1.2590	49.7660
 1.2600	49.7790
 1.2610	49.7870
 1.2620	49.7930
 1.2630	49.7950
 1.2640	49.7950
 1.2650	49.7910
 1.2660	49.7850
 1.2670	49.7800
 1.2680	49.7720
 1.2690	49.7650
 1.2700	49.7550
 1.2710	49.7420
 1.2720	49.7290
 1.2730	49.7110
 1.2740	49.6920
 1.2750	49.6710
 1.2760	49.6440
 1.2770	49.6160
 1.2780	49.5850
 1.2790	49.5520
 1.2800	49.5200
 1.2810	49.4850
 1.2820	49.4480
 1.2830	49.4100
 1.2840	49.3650
 1.2850	49.3170
 1.2860	49.2690
 1.2870	49.2160
 1.2880	49.1590
 1.2890	49.1010
 1.2900	49.0430
 1.2910	48.9790
 1.2920	48.9160
 1.2930	48.8500
 1.2940	48.7790
 1.2950	48.7030
 1.2960	48.6220
 1.2970	48.5370
 1.2980	48.4490
 1.2990	48.3590
 1.3000	48.2630
 1.3010	48.1630
 1.3020	48.0600
 1.3030	47.9510
 1.3040	47.8370
 1.3050	47.7190
 1.3060	47.5950
 1.3070	47.4670
 1.3080	47.3380
 1.3090	47.2040
 1.3100	47.0650
 1.3110	46.9190
 1.3120	46.7640
 1.3130	46.6070
 1.3140	46.4420
 1.3150	46.2710
 1.3160	46.0980
 1.3170	45.9220
 1.3180	45.7360
 1.3190	45.5460
 1.3200	45.3530
 1.3210	45.1490
 1.3220	44.9430
 1.3230	44.7330
 1.3240	44.5180
 1.3250	44.3020
 1.3260	44.0830
 1.3270	43.8590
 1.3280	43.6350
 1.3290	43.4050
 1.3300	43.1730
 1.3310	42.9410
 1.3320	42.7060
 1.3330	42.4720
 1.3340	42.2370
 1.3350	42.0010
 1.3360	41.7660
 1.3370	41.5280
 1.3380	41.2920
 1.3390	41.0580
 1.3400	40.8250
 1.3410	40.5980
 1.3420	40.3760
 1.3430	40.1550
 1.3440	39.9390
 1.3450	39.7230
 1.3460	39.5050
 1.3470	39.2940
 1.3480	39.0850
 1.3490	38.8810
 1.3500	38.6820
 1.3510	38.4850
 1.3520	38.2880
 1.3530	38.0930
 1.3540	37.8990
 1.3550	37.7060
 1.3560	37.5120
 1.3570	37.3160
 1.3580	37.1210
 1.3590	36.9210
 1.3600	36.7170
 1.3610	36.5100
 1.3620	36.2950
 1.3630	36.0750
 1.3640	35.8480
 1.3650	35.6090
 1.3660	35.3630
 1.3670	35.1050
 1.3680	34.8330
 1.3690	34.5510
 1.3700	34.2510
 1.3710	33.9360
 1.3720	33.6040
 1.3730	33.2500
 1.3740	32.8790
 1.3750	32.4890
 1.3760	32.0750
 1.3770	31.6410
 1.3780	31.1810
 1.3790	30.6980
 1.3800	30.1950
 1.3810	29.6680
 1.3820	29.1290
 1.3830	28.5720
 1.3840	28.0050
 1.3850	27.4240
 1.3860	26.8380
 1.3870	26.2360
 1.3880	25.6420
 1.3890	25.0450
 1.3900	24.4490
 1.3910	23.8640
 1.3920	23.2840
 1.3930	22.7110
 1.3940	22.1510
 1.3950	21.6000
 1.3960	21.0660
 1.3970	20.5520
 1.3980	20.0570
 1.3990	19.5890
 1.4000	19.1410
 1.4010	18.7130
 1.4020	18.3110
 1.4030	17.9270
 1.4040	17.5670
 1.4050	17.2310
 1.4060	16.9160
 1.4070	16.6270
 1.4080	16.3570
 1.4090	16.1070
 1.4100	15.8780
 1.4110	15.6650
 1.4120	15.4690
 1.4130	15.2900
 1.4140	15.1260
 1.4150	14.9790
 1.4160	14.8450
 1.4170	14.7220
 1.4180	14.6120
 1.4190	14.5110
 1.4200	14.4190
 1.4210	14.3370
 1.4220	14.2630
 1.4230	14.1970
 1.4240	14.1370
 1.4250	14.0830
 1.4260	14.0370
 1.4270	13.9950
 1.4280	13.9600
 1.4290	13.9280
 1.4300	13.9000
 1.4310	13.8760
 1.4320	13.8560
 1.4330	13.8400
 1.4340	13.8300
 1.4350	13.8200
 1.4360	13.8130
 1.4370	13.8080
 1.4380	13.8060
 1.4390	13.8040
 1.4400	13.8050
 1.4410	13.8090
 1.4420	13.8140
 1.4430	13.8210
 1.4440	13.8300
 1.4450	13.8380
 1.4460	13.8470
 1.4470	13.8590
 1.4480	13.8700
 1.4490	13.8820
 1.4500	13.8970
 1.4510	13.9120
 1.4520	13.9280
 1.4530	13.9450
 1.4540	13.9610
 1.4550	13.9800
 1.4560	13.9990
 1.4570	14.0200
 1.4580	14.0430
 1.4590	14.0690
 1.4600	14.0970
 1.4610	14.1280
 1.4620	14.1620
 1.4630	14.2000
 1.4640	14.2390
 1.4650	14.2820
 1.4660	14.3300
 1.4670	14.3800
 1.4680	14.4350
 1.4690	14.4930
 1.4700	14.5530
 1.4710	14.6180
 1.4720	14.6840
 1.4730	14.7530
 1.4740	14.8260
 1.4750	14.9000
 1.4760	14.9790
 1.4770	15.0580
 1.4780	15.1410
 1.4790	15.2250
 1.4800	15.3100
 1.4810	15.3970
 1.4820	15.4860
 1.4830	15.5750
 1.4840	15.6670
 1.4850	15.7590
 1.4860	15.8530
 1.4870	15.9470
 1.4880	16.0430
 1.4890	16.1390
 1.4900	16.2370
 1.4910	16.3350
 1.4920	16.4340
 1.4930	16.5360
 1.4940	16.6370
 1.4950	16.7390
 1.4960	16.8400
 1.4970	16.9390
 1.4980	17.0410
 1.4990	17.1440
 1.5000	17.2480
 1.5010	17.3530
 1.5020	17.4570
 1.5030	17.5600
 1.5040	17.6640
 1.5050	17.7680
 1.5060	17.8720
 1.5070	17.9770
 1.5080	18.0830
 1.5090	18.1900
 1.5100	18.2970
 1.5110	18.4020
 1.5120	18.5080
 1.5130	18.6110
 1.5140	18.7150
 1.5150	18.8200
 1.5160	18.9240
 1.5170	19.0300
 1.5180	19.1350
 1.5190	19.2400
 1.5200	19.3450
 1.5210	19.4480
 1.5220	19.5510
 1.5230	19.6550
 1.5240	19.7560
 1.5250	19.8580
 1.5260	19.9580
 1.5270	20.0580
 1.5280	20.1580
 1.5290	20.2560
 1.5300	20.3550
 1.5310	20.4530
 1.5320	20.5510
 1.5330	20.6490
 1.5340	20.7460
 1.5350	20.8420
 1.5360	20.9380
 1.5370	21.0330
 1.5380	21.1300
 1.5390	21.2250
 1.5400	21.3180
 1.5410	21.4110
 1.5420	21.5030
 1.5430	21.5960
 1.5440	21.6880
 1.5450	21.7800
 1.5460	21.8710
 1.5470	21.9610
 1.5480	22.0510
 1.5490	22.1410
 1.5500	22.2290
 1.5510	22.3160
 1.5520	22.4020
 1.5530	22.4870
 1.5540	22.5710
 1.5550	22.6560
 1.5560	22.7400
 1.5570	22.8230
 1.5580	22.9050
 1.5590	22.9880
 1.5600	23.0700
 1.5610	23.1490
 1.5620	23.2280
 1.5630	23.3080
 1.5640	23.3850
 1.5650	23.4640
 1.5660	23.5420
 1.5670	23.6180
 1.5680	23.6940
 1.5690	23.7690
 1.5700	23.8430
 1.5710	23.9170
 1.5720	23.9900
 1.5730	24.0650
 1.5740	24.1380
 1.5750	24.2090
 1.5760	24.2810
 1.5770	24.3510
 1.5780	24.4200
 1.5790	24.4910
 1.5800	24.5610
 1.5810	24.6290
 1.5820	24.6980
 1.5830	24.7640
 1.5840	24.8310
 1.5850	24.8980
 1.5860	24.9650
 1.5870	25.0320
 1.5880	25.0970
 1.5890	25.1620
 1.5900	25.2260
 1.5910	25.2890
 1.5920	25.3520
 1.5930	25.4160
 1.5940	25.4790
 1.5950	25.5420
 1.5960	25.6030
 1.5970	25.6630
 1.5980	25.7240
 1.5990	25.7830
 1.6000	25.8430
 1.6010	25.9020
 1.6020	25.9600
 1.6030	26.0190
 1.6040	26.0750
 1.6050	26.1300
 1.6060	26.1860
 1.6070	26.2410
 1.6080	26.2950
 1.6090	26.3470
 1.6100	26.3970
 1.6110	26.4460
 1.6120	26.4970
 1.6130	26.5460
 1.6140	26.5960
 1.6150	26.6450
 1.6160	26.6930
 1.6170	26.7400
 1.6180	26.7860
 1.6190	26.8310
 1.6200	26.8720
 1.6210	26.9140
 1.6220	26.9540
 1.6230	26.9950
 1.6240	27.0370
 1.6250	27.0750
 1.6260	27.1130
 1.6270	27.1510
 1.6280	27.1850
 1.6290	27.2190
 1.6300	27.2550
 1.6310	27.2860
 1.6320	27.3160
 1.6330	27.3430
 1.6340	27.3680
 1.6350	27.3910
 1.6360	27.4100
 1.6370	27.4280
 1.6380	27.4440
 1.6390	27.4560
 1.6400	27.4680
 1.6410	27.4750
 1.6420	27.4790
 1.6430	27.4800
 1.6440	27.4790
 1.6450	27.4730
 1.6460	27.4630
 1.6470	27.4510
 1.6480	27.4360
 1.6490	27.4200
 1.6500	27.4030
 1.6510	27.3810
 1.6520	27.3570
 1.6530	27.3330
 1.6540	27.3090
 1.6550	27.2870
 1.6560	27.2670
 1.6570	27.2490
 1.6580	27.2320
 1.6590	27.2180
 1.6600	27.2070
 1.6610	27.2000
 1.6620	27.1990
 1.6630	27.2030
 1.6640	27.2100
 1.6650	27.2210
 1.6660	27.2340
 1.6670	27.2520
 1.6680	27.2720
 1.6690	27.2930
 1.6700	27.3150
 1.6710	27.3360
 1.6720	27.3520
 1.6730	27.3660
 1.6740	27.3800
 1.6750	27.3850
 1.6760	27.3880
 1.6770	27.3890
 1.6780	27.3810
 1.6790	27.3690
 1.6800	27.3560
 1.6810	27.3370
 1.6820	27.3130
 1.6830	27.2860
 1.6840	27.2540
 1.6850	27.2190
 1.6860	27.1830
 1.6870	27.1420
 1.6880	27.0990
 1.6890	27.0530
 1.6900	27.0050
 1.6910	26.9560
 1.6920	26.9060
 1.6930	26.8520
 1.6940	26.7980
 1.6950	26.7430
 1.6960	26.6870
 1.6970	26.6280
 1.6980	26.5670
 1.6990	26.5030
 1.7000	26.4390
 1.7010	26.3730
 1.7020	26.3090
 1.7030	26.2450
 1.7040	26.1820
 1.7050	26.1200
 1.7060	26.0570
 1.7070	25.9930
 1.7080	25.9310
 1.7090	25.8680
 1.7100	25.8080
 1.7110	25.7500
 1.7120	25.6930
 1.7130	25.6360
 1.7140	25.5810
 1.7150	25.5280
 1.7160	25.4750
 1.7170	25.4230
 1.7180	25.3710
 1.7190	25.3190
 1.7200	25.2690
 1.7210	25.2210
 1.7220	25.1740
 1.7230	25.1270
 1.7240	25.0810
 1.7250	25.0380
 1.7260	24.9980
 1.7270	24.9620
 1.7280	24.9290
 1.7290	24.8970
 1.7300	24.8670
 1.7310	24.8360
 1.7320	24.8070
 1.7330	24.7770
 1.7340	24.7490
 1.7350	24.7180
 1.7360	24.6860
 1.7370	24.6480
 1.7380	24.6070
 1.7390	24.5610
 1.7400	24.5100
 1.7410	24.4590
 1.7420	24.4050
 1.7430	24.3490
 1.7440	24.2910
 1.7450	24.2300
 1.7460	24.1650
 1.7470	24.0990
 1.7480	24.0300
 1.7490	23.9630
 1.7500	23.8960
 1.7510	23.8300
 1.7520	23.7640
 1.7530	23.6990
 1.7540	23.6360
 1.7550	23.5720
 1.7560	23.5090
 1.7570	23.4480
 1.7580	23.3880
 1.7590	23.3310
 1.7600	23.2790
 1.7610	23.2290
 1.7620	23.1810
 1.7630	23.1340
 1.7640	23.0900
 1.7650	23.0460
 1.7660	23.0060
 1.7670	22.9700
 1.7680	22.9330
 1.7690	22.8960
 1.7700	22.8610
 1.7710	22.8260
 1.7720	22.7920
 1.7730	22.7610
 1.7740	22.7290
 1.7750	22.6950
 1.7760	22.6630
 1.7770	22.6320
 1.7780	22.6030
 1.7790	22.5760
 1.7800	22.5500
 1.7810	22.5250
 1.7820	22.5000
 1.7830	22.4740
 1.7840	22.4510
 1.7850	22.4280
 1.7860	22.4080
 1.7870	22.3910
 1.7880	22.3750
 1.7890	22.3590
 1.7900	22.3430
 1.7910	22.3290
 1.7920	22.3160
 1.7930	22.3040
 1.7940	22.2940
 1.7950	22.2860
 1.7960	22.2810
 1.7970	22.2760
 1.7980	22.2730
 1.7990	22.2700
 1.8000	22.2680
 1.8010	22.2660
 1.8020	22.2640
 1.8030	22.2630
 1.8040	22.2630
 1.8050	22.2640
 1.8060	22.2660
 1.8070	22.2680
 1.8080	22.2700
 1.8090	22.2720
 1.8100	22.2760
 1.8110	22.2780
 1.8120	22.2780
 1.8130	22.2770
 1.8140	22.2760
 1.8150	22.2740
 1.8160	22.2740
 1.8170	22.2750
 1.8180	22.2740
 1.8190	22.2740
 1.8200	22.2730
 1.8210	22.2700
 1.8220	22.2650
 1.8230	22.2540
 1.8240	22.2450
 1.8250	22.2350
 1.8260	22.2240
 1.8270	22.2550
 1.8280	22.2850
 1.8290	22.3160
 1.8300	22.3460
 1.8310	22.3770
 1.8320	22.4070
 1.8330	22.4380
 1.8340	22.4680
 1.8350	22.4680
 1.8360	22.4290
 1.8370	22.3820
 1.8380	22.3270
 1.8390	22.2710
 1.8400	22.2120
 1.8410	22.1460
 1.8420	22.0790
 1.8430	22.0060
 1.8440	21.9210
 1.8450	21.8280
 1.8460	21.7320
 1.8470	21.6280
 1.8480	21.5180
 1.8490	21.4010
 1.8500	21.2730
 1.8510	21.1340
 1.8520	20.9880
 1.8530	20.8330
 1.8540	20.6680
 1.8550	20.4910
 1.8560	20.3020
 1.8570	20.1050
 1.8580	19.8960
 1.8590	19.6780
 1.8600	19.4500
 1.8610	19.2160
 1.8620	18.9700
 1.8630	18.7150
 1.8640	18.4500
 1.8650	18.1710
 1.8660	17.8790
 1.8670	17.5760
 1.8680	17.2630
 1.8690	16.9460
 1.8700	16.6200
 1.8710	16.2840
 1.8720	15.9490
 1.8730	15.6110
 1.8740	15.2690
 1.8750	14.9310
 1.8760	14.5910
 1.8770	14.2550
 1.8780	13.9260
 1.8790	13.6020
 1.8800	13.2880
 1.8810	12.9840
 1.8820	12.6870
 1.8830	12.3950
 1.8840	12.1140
 1.8850	11.8410
 1.8860	11.5790
 1.8870	11.3320
 1.8880	11.0950
 1.8890	10.8750
 1.8900	10.6670
 1.8910	10.4730
 1.8920	10.2900
 1.8930	10.1240
 1.8940	 9.9700
 1.8950	 9.8280
 1.8960	 9.6980
 1.8970	 9.5790
 1.8980	 9.4700
 1.8990	 9.3680
 1.9000	 9.2760
 1.9010	 9.1950
 1.9020	 9.1200
 1.9030	 9.0530
 1.9040	 8.9940
 1.9050	 8.9410
 1.9060	 8.8930
 1.9070	 8.8510
 1.9080	 8.8150
 1.9090	 8.7840
 1.9100	 8.7550
 1.9110	 8.7280
 1.9120	 8.7060
 1.9130	 8.6860
 1.9140	 8.6680
 1.9150	 8.6550
 1.9160	 8.6420
 1.9170	 8.6310
 1.9180	 8.6200
 1.9190	 8.6110
 1.9200	 8.6080
 1.9210	 8.6050
 1.9220	 8.6030
 1.9230	 8.6040
 1.9240	 8.6050
 1.9250	 8.6050
 1.9260	 8.6080
 1.9270	 8.6110
 1.9280	 8.6130
 1.9290	 8.6190
 1.9300	 8.6220
 1.9310	 8.6280
 1.9320	 8.6370
 1.9330	 8.6430
 1.9340	 8.6480
 1.9350	 8.6550
 1.9360	 8.6650
 1.9370	 8.6740
 1.9380	 8.6840
 1.9390	 8.6980
 1.9400	 8.7120
 1.9410	 8.7240
 1.9420	 8.7370
 1.9430	 8.7510
 1.9440	 8.7660
 1.9450	 8.7810
 1.9460	 8.7970
 1.9470	 8.8140
 1.9480	 8.8300
 1.9490	 8.8470
 1.9500	 8.8640
 1.9510	 8.8790
 1.9520	 8.8950
 1.9530	 8.9130
 1.9540	 8.9310
 1.9550	 8.9500
 1.9560	 8.9730
 1.9570	 8.9940
 1.9580	 9.0140
 1.9590	 9.0350
 1.9600	 9.0540
 1.9610	 9.0750
 1.9620	 9.0950
 1.9630	 9.1160
 1.9640	 9.1360
 1.9650	 9.1610
 1.9660	 9.1860
 1.9670	 9.2100
 1.9680	 9.2340
 1.9690	 9.2580
 1.9700	 9.2830
 1.9710	 9.3080
 1.9720	 9.3330
 1.9730	 9.3610
 1.9740	 9.3870
 1.9750	 9.4110
 1.9760	 9.4370
 1.9770	 9.4640
 1.9780	 9.4940
 1.9790	 9.5220
 1.9800	 9.5530
 1.9810	 9.5830
 1.9820	 9.6110
 1.9830	 9.6400
 1.9840	 9.6720
 1.9850	 9.7020
 1.9860	 9.7330
 1.9870	 9.7650
 1.9880	 9.7960
 1.9890	 9.8280
 1.9900	 9.8610
 1.9910	 9.8940
 1.9920	 9.9260
 1.9930	 9.9580
 1.9940	 9.9890
 1.9950	10.0190
 1.9960	10.0510
 1.9970	10.0830
 1.9980	10.1160
 1.9990	10.1510
 2.0000	10.1860
 2.0010	10.2190
 2.0020	10.2570
 2.0030	10.2910
 2.0040	10.3240
 2.0050	10.3570
 2.0060	10.3890
 2.0070	10.4220
 2.0080	10.4550
 2.0090	10.4890
 2.0100	10.5240
 2.0110	10.5590
 2.0120	10.5930
 2.0130	10.6280
 2.0140	10.6630
 2.0150	10.6950
 2.0160	10.7300
 2.0170	10.7630
 2.0180	10.7960
 2.0190	10.8300
 2.0200	10.8630
 2.0210	10.8930
 2.0220	10.9250
 2.0230	10.9550
 2.0240	10.9860
 2.0250	11.0190
 2.0260	11.0500
 2.0270	11.0780
 2.0280	11.1100
 2.0290	11.1390
 2.0300	11.1680
 2.0310	11.1970
 2.0320	11.2280
 2.0330	11.2550
 2.0340	11.2800
 2.0350	11.3060
 2.0360	11.3300
 2.0370	11.3550
 2.0380	11.3810
 2.0390	11.4060
 2.0400	11.4310
 2.0410	11.4550
 2.0420	11.4810
 2.0430	11.5050
 2.0440	11.5300
 2.0450	11.5560
 2.0460	11.5800
 2.0470	11.6040
 2.0480	11.6280
 2.0490	11.6510
 2.0500	11.6740
 2.0510	11.6950
 2.0520	11.7170
 2.0530	11.7380
 2.0540	11.7590
 2.0550	11.7800
 2.0560	11.8020
 2.0570	11.8240
 2.0580	11.8450
 2.0590	11.8660
 2.0600	11.8870
 2.0610	11.9080
 2.0620	11.9300
 2.0630	11.9520
 2.0640	11.9750
 2.0650	11.9970
 2.0660	12.0170
 2.0670	12.0390
 2.0680	12.0590
 2.0690	12.0820
 2.0700	12.1080
 2.0710	12.1310
 2.0720	12.1520
 2.0730	12.1760
 2.0740	12.1970
 2.0750	12.2150
 2.0760	12.2340
 2.0770	12.2500
 2.0780	12.2690
 2.0790	12.2880
 2.0800	12.3100
 2.0810	12.3350
 2.0820	12.3570
 2.0830	12.3800
 2.0840	12.4010
 2.0850	12.4200
 2.0860	12.4410
 2.0870	12.4630
 2.0880	12.4840
 2.0890	12.5040
 2.0900	12.5240
 2.0910	12.5460
 2.0920	12.5670
 2.0930	12.5890
 2.0940	12.6130
 2.0950	12.6360
 2.0960	12.6600
 2.0970	12.6800
 2.0980	12.6970
 2.0990	12.7150
 2.1000	12.7300
 2.1010	12.7480
 2.1020	12.7670
 2.1030	12.7880
 2.1040	12.8090
 2.1050	12.8310
 2.1060	12.8530
 2.1070	12.8800
 2.1080	12.9000
 2.1090	12.9180
 2.1100	12.9360
 2.1110	12.9500
 2.1120	12.9680
 2.1130	12.9900
 2.1140	13.0080
 2.1150	13.0260
 2.1160	13.0420
 2.1170	13.0560
 2.1180	13.0720
 2.1190	13.0890
 2.1200	13.1040
 2.1210	13.1190
 2.1220	13.1330
 2.1230	13.1470
 2.1240	13.1600
 2.1250	13.1730
 2.1260	13.1870
 2.1270	13.2010
 2.1280	13.2150
 2.1290	13.2300
 2.1300	13.2470
 2.1310	13.2630
 2.1320	13.2820
 2.1330	13.2990
 2.1340	13.3140
 2.1350	13.3310
 2.1360	13.3490
 2.1370	13.3670
 2.1380	13.3880
 2.1390	13.4080
 2.1400	13.4290
 2.1410	13.4460
 2.1420	13.4630
 2.1430	13.4790
 2.1440	13.4970
 2.1450	13.5160
 2.1460	13.5360
 2.1470	13.5620
 2.1480	13.5810
 2.1490	13.5980
 2.1500	13.6160
 2.1510	13.6290
 2.1520	13.6450
 2.1530	13.6630
 2.1540	13.6820
 2.1550	13.7030
 2.1560	13.7210
 2.1570	13.7390
 2.1580	13.7580
 2.1590	13.7760
 2.1600	13.7950
 2.1610	13.8150
 2.1620	13.8330
 2.1630	13.8520
 2.1640	13.8700
 2.1650	13.8870
 2.1660	13.9040
 2.1670	13.9190
 2.1680	13.9310
 2.1690	13.9440
 2.1700	13.9560
 2.1710	13.9680
 2.1720	13.9770
 2.1730	13.9880
 2.1740	13.9990
 2.1750	14.0110
 2.1760	14.0240
 2.1770	14.0370
 2.1780	14.0520
 2.1790	14.0650
 2.1800	14.0770
 2.1810	14.0880
 2.1820	14.0970
 2.1830	14.1090
 2.1840	14.1190
 2.1850	14.1280
 2.1860	14.1400
 2.1870	14.1530
 2.1880	14.1660
 2.1890	14.1820
 2.1900	14.1950
 2.1910	14.2050
 2.1920	14.2190
 2.1930	14.2350
 2.1940	14.2500
 2.1950	14.2680
 2.1960	14.2830
 2.1970	14.2980
 2.1980	14.3100
 2.1990	14.3180
 2.2000	14.3260
 2.2010	14.3310
 2.2020	14.3380
 2.2030	14.3480
 2.2040	14.3560
 2.2050	14.3620
 2.2060	14.3730
 2.2070	14.3830
 2.2080	14.3950
 2.2090	14.4040
 2.2100	14.4130
 2.2110	14.4210
 2.2120	14.4250
 2.2130	14.4320
 2.2140	14.4390
 2.2150	14.4440
 2.2160	14.4500
 2.2170	14.4530
 2.2180	14.4570
 2.2190	14.4570
 2.2200	14.4550
 2.2210	14.4530
 2.2220	14.4500
 2.2230	14.4450
 2.2240	14.4360
 2.2250	14.4290
 2.2260	14.4240
 2.2270	14.4160
 2.2280	14.4090
 2.2290	14.4010
 2.2300	14.3880
 2.2310	14.3750
 2.2320	14.3650
 2.2330	14.3500
 2.2340	14.3320
 2.2350	14.3100
 2.2360	14.2900
 2.2370	14.2670
 2.2380	14.2440
 2.2390	14.2230
 2.2400	14.1970
 2.2410	14.1650
 2.2420	14.1340
 2.2430	14.1000
 2.2440	14.0670
 2.2450	14.0360
 2.2460	14.0010
 2.2470	13.9620
 2.2480	13.9260
 2.2490	13.8900
 2.2500	13.8520
 2.2510	13.8150
 2.2520	13.7770
 2.2530	13.7340
 2.2540	13.6950
 2.2550	13.6600
 2.2560	13.6220
 2.2570	13.5880
 2.2580	13.5470
 2.2590	13.5000
 2.2600	13.4560
 2.2610	13.4100
 2.2620	13.3620
 2.2630	13.3230
 2.2640	13.2830
 2.2650	13.2420
 2.2660	13.2050
 2.2670	13.1670
 2.2680	13.1290
 2.2690	13.0920
 2.2700	13.0590
 2.2710	13.0210
 2.2720	12.9840
 2.2730	12.9450
 2.2740	12.9020
 2.2750	12.8640
 2.2760	12.8300
 2.2770	12.7920
 2.2780	12.7550
 2.2790	12.7200
 2.2800	12.6830
 2.2810	12.6510
 2.2820	12.6270
 2.2830	12.5970
 2.2840	12.5690
 2.2850	12.5360
 2.2860	12.4980
 2.2870	12.4620
 2.2880	12.4260
 2.2890	12.3840
 2.2900	12.3400
 2.2910	12.2960
 2.2920	12.2420
 2.2930	12.1970
 2.2940	12.1630
 2.2950	12.1210
 2.2960	12.0790
 2.2970	12.0390
 2.2980	11.9980
 2.2990	11.9550
 2.3000	11.9210
 2.3010	11.8930
 2.3020	11.8650
 2.3030	11.8390
 2.3040	11.8180
 2.3050	11.7980
 2.3060	11.7720
 2.3070	11.7510
 2.3080	11.7290
 2.3090	11.7100
 2.3100	11.7090
 2.3110	11.7070
 2.3120	11.7010
 2.3130	11.6970
 2.3140	11.6930
 2.3150	11.6850
 2.3160	11.6770
 2.3170	11.6720
 2.3180	11.6630
 2.3190	11.6480
 2.3200	11.6350
 2.3210	11.6240
 2.3220	11.6070
 2.3230	11.5840
 2.3240	11.5640
 2.3250	11.5390
 2.3260	11.5190
 2.3270	11.5050
 2.3280	11.4860
 2.3290	11.4670
 2.3300	11.4460
 2.3310	11.4210
 2.3320	11.3960
 2.3330	11.3660
 2.3340	11.3440
 2.3350	11.3260
 2.3360	11.3070
 2.3370	11.2960
 2.3380	11.2790
 2.3390	11.2540
 2.3400	11.2300
 2.3410	11.2060
 2.3420	11.1820
 2.3430	11.1560
 2.3440	11.1340
 2.3450	11.1120
 2.3460	11.0930
 2.3470	11.0780
 2.3480	11.0600
 2.3490	11.0400
 2.3500	11.0240
 2.3510	11.0080
 2.3520	10.9960
 2.3530	10.9910
 2.3540	10.9800
 2.3550	10.9720
 2.3560	10.9610
 2.3570	10.9450
 2.3580	10.9280
 2.3590	10.9080
 2.3600	10.8910
 2.3610	10.8840
 2.3620	10.8710
 2.3630	10.8540
 2.3640	10.8400
 2.3650	10.8140
 2.3660	10.7920
 2.3670	10.7740
 2.3680	10.7580
 2.3690	10.7450
 2.3700	10.7240
 2.3710	10.7050
 2.3720	10.6820
 2.3730	10.6560
 2.3740	10.6360
 2.3750	10.6160
 2.3760	10.6000
 2.3770	10.5860
 2.3780	10.5680
 2.3790	10.5490
 2.3800	10.5310
 2.3810	10.5190
 2.3820	10.5110
 2.3830	10.4910
 2.3840	10.4670
 2.3850	10.4280
 2.3860	10.3880
 2.3870	10.3750
 2.3880	10.3690
 2.3890	10.3600
 2.3900	10.3450
 2.3910	10.3190
 2.3920	10.2880
 2.3930	10.2680
 2.3940	10.2570
 2.3950	10.2410
 2.3960	10.2250
 2.3970	10.2060
 2.3980	10.1800
 2.3990	10.1540
 2.4000	10.1290
 2.4010	10.1000
 2.4020	10.0730
 2.4030	10.0570
 2.4040	10.0380
 2.4050	10.0200
 2.4060	10.0010
 2.4070	 9.9780
 2.4080	 9.9610
 2.4090	 9.9470
 2.4100	 9.9370
 2.4110	 9.9240
 2.4120	 9.9030
 2.4130	 9.8850
 2.4140	 9.8690
 2.4150	 9.8490
 2.4160	 9.8310
 2.4170	 9.8120
 2.4180	 9.7860
 2.4190	 9.7650
 2.4200	 9.7480
 2.4210	 9.7270
 2.4220	 9.7190
 2.4230	 9.7200
 2.4240	 9.7210
 2.4250	 9.7120
 2.4260	 9.6800
 2.4270	 9.6420
 2.4280	 9.6030
 2.4290	 9.5650
 2.4300	 9.5480
 2.4310	 9.5300
 2.4320	 9.4930
 2.4330	 9.4700
 2.4340	 9.4420
 2.4350	 9.4190
 2.4360	 9.4120
 2.4370	 9.3960
 2.4380	 9.3730
 2.4390	 9.3440
 2.4400	 9.3190
 2.4410	 9.3060
 2.4420	 9.2960
 2.4430	 9.2820
 2.4440	 9.2700
 2.4450	 9.2460
 2.4460	 9.2150
 2.4470	 9.2090
 2.4480	 9.1850
 2.4490	 9.1510
 2.4500	 9.1490
 2.4510	 9.1250
 2.4520	 9.0980
 2.4530	 9.0870
 2.4540	 9.0540
 2.4550	 9.0350
 2.4560	 9.0320
 2.4570	 9.0220
 2.4580	 9.0170
 2.4590	 8.9970
 2.4600	 8.9570
 2.4610	 8.9450
 2.4620	 8.9320
 2.4630	 8.8910
 2.4640	 8.8860
 2.4650	 8.8700
 2.4660	 8.8460
 2.4670	 8.8630
 2.4680	 8.8550
 2.4690	 8.8400
 2.4700	 8.8240
 2.4710	 8.7880
 2.4720	 8.7670
 2.4730	 8.7540
 2.4740	 8.7380
 2.4750	 8.7430
 2.4760	 8.7380
 2.4770	 8.7060
 2.4780	 8.7030
 2.4790	 8.7140
 2.4800	 8.7120
 2.4810	 8.7340
 2.4820	 8.7010
 2.4830	 8.6710
 2.4840	 8.6460
 2.4850	 8.6300
 2.4860	 8.6320
 2.4870	 8.6460
 2.4880	 8.6700
 2.4890	 8.6500
 2.4900	 8.6390
 2.4910	 8.6570
 2.4920	 8.6170
 2.4930	 8.6140
 2.4940	 8.6440
 2.4950	 8.6140
 2.4960	 8.6580
 2.4970	 8.6960
 2.4980	 8.6400
 2.4990	 8.6410
 2.5000	 8.5900
