Name: Acer rubrum
Type: Vegetation
Class: Tree
Genus: Acer
Species: rubrum
Sample No.: ACRU-3-21
Owner: UCSB
Wavelength Range: VSWIR
Origin: USA; Massachusetts; Harvard Forest
Collection Date: 7/8/2013
Description: Samples were collected as part of NSF Macrosystem Biology proposal titled: Collaborative Research: Thermal controls on ecosystem metabolism and function: scaling from leaves to canopies to regions. Samples were collected and overnighted to JPL facilities for processing. The same leaves were processed in the Nicolet and then measured using the ASD.
Measurement: Bidirectional reflectance
First Column: X
Second Column: Y
X Units: Wavelength (micrometers)
Y Units: Reflectance (percentage)
First X Value: 0.35
Last X Value: 2.5
Number of X Values: 2151
Additional Information: vegetation.tree.acer.rubrum.vswir.acru-3-21.ucsb.asd.ancillary.txt

 0.3500	 8.3880
 0.3510	 8.4100
 0.3520	 8.3210
 0.3530	 8.2190
 0.3540	 8.1890
 0.3550	 8.0540
 0.3560	 7.9590
 0.3570	 8.0110
 0.3580	 8.2250
 0.3590	 8.0290
 0.3600	 7.9130
 0.3610	 8.0530
 0.3620	 8.0640
 0.3630	 8.0630
 0.3640	 8.0320
 0.3650	 7.9540
 0.3660	 7.8950
 0.3670	 7.9140
 0.3680	 7.9950
 0.3690	 8.0630
 0.3700	 8.0680
 0.3710	 8.0370
 0.3720	 8.0120
 0.3730	 8.0580
 0.3740	 7.9810
 0.3750	 7.9250
 0.3760	 8.0440
 0.3770	 7.9850
 0.3780	 7.8760
 0.3790	 7.8310
 0.3800	 7.9150
 0.3810	 7.9510
 0.3820	 7.8720
 0.3830	 7.7430
 0.3840	 7.8700
 0.3850	 7.9010
 0.3860	 7.8680
 0.3870	 7.9020
 0.3880	 7.8460
 0.3890	 7.8180
 0.3900	 7.8360
 0.3910	 7.8070
 0.3920	 7.8510
 0.3930	 7.9000
 0.3940	 7.8870
 0.3950	 7.8510
 0.3960	 7.8060
 0.3970	 7.8110
 0.3980	 7.9140
 0.3990	 7.9470
 0.4000	 7.9150
 0.4010	 7.8520
 0.4020	 7.7960
 0.4030	 7.7940
 0.4040	 7.8410
 0.4050	 7.8960
 0.4060	 7.8360
 0.4070	 7.8160
 0.4080	 7.8560
 0.4090	 7.8820
 0.4100	 7.8580
 0.4110	 7.8680
 0.4120	 7.9310
 0.4130	 7.9260
 0.4140	 7.9310
 0.4150	 7.9560
 0.4160	 7.9860
 0.4170	 7.9920
 0.4180	 7.9890
 0.4190	 7.9910
 0.4200	 8.0100
 0.4210	 8.0350
 0.4220	 8.0560
 0.4230	 8.0660
 0.4240	 8.0700
 0.4250	 8.0690
 0.4260	 8.0790
 0.4270	 8.1150
 0.4280	 8.1040
 0.4290	 8.1040
 0.4300	 8.1330
 0.4310	 8.1400
 0.4320	 8.1390
 0.4330	 8.1430
 0.4340	 8.1570
 0.4350	 8.1400
 0.4360	 8.1270
 0.4370	 8.1300
 0.4380	 8.1420
 0.4390	 8.1260
 0.4400	 8.1240
 0.4410	 8.1530
 0.4420	 8.1610
 0.4430	 8.1530
 0.4440	 8.1450
 0.4450	 8.1540
 0.4460	 8.1540
 0.4470	 8.1570
 0.4480	 8.1700
 0.4490	 8.1920
 0.4500	 8.2040
 0.4510	 8.2070
 0.4520	 8.2090
 0.4530	 8.2200
 0.4540	 8.2200
 0.4550	 8.2160
 0.4560	 8.2330
 0.4570	 8.2320
 0.4580	 8.2390
 0.4590	 8.2600
 0.4600	 8.2430
 0.4610	 8.2370
 0.4620	 8.2410
 0.4630	 8.2440
 0.4640	 8.2440
 0.4650	 8.2440
 0.4660	 8.2430
 0.4670	 8.2400
 0.4680	 8.2350
 0.4690	 8.2380
 0.4700	 8.2480
 0.4710	 8.2460
 0.4720	 8.2420
 0.4730	 8.2380
 0.4740	 8.2330
 0.4750	 8.2230
 0.4760	 8.2280
 0.4770	 8.2460
 0.4780	 8.2340
 0.4790	 8.2410
 0.4800	 8.2530
 0.4810	 8.2470
 0.4820	 8.2380
 0.4830	 8.2360
 0.4840	 8.2440
 0.4850	 8.2530
 0.4860	 8.2560
 0.4870	 8.2620
 0.4880	 8.2740
 0.4890	 8.2710
 0.4900	 8.2760
 0.4910	 8.2900
 0.4920	 8.3020
 0.4930	 8.3260
 0.4940	 8.3500
 0.4950	 8.3710
 0.4960	 8.3960
 0.4970	 8.4090
 0.4980	 8.4290
 0.4990	 8.4720
 0.5000	 8.5030
 0.5010	 8.5360
 0.5020	 8.5720
 0.5030	 8.6080
 0.5040	 8.6500
 0.5050	 8.7070
 0.5060	 8.7770
 0.5070	 8.8390
 0.5080	 8.9120
 0.5090	 8.9980
 0.5100	 9.0910
 0.5110	 9.1880
 0.5120	 9.2980
 0.5130	 9.4260
 0.5140	 9.5780
 0.5150	 9.7230
 0.5160	 9.8820
 0.5170	10.0730
 0.5180	10.2640
 0.5190	10.4680
 0.5200	10.6850
 0.5210	10.9070
 0.5220	11.1360
 0.5230	11.3680
 0.5240	11.5990
 0.5250	11.8320
 0.5260	12.0610
 0.5270	12.2810
 0.5280	12.4890
 0.5290	12.6820
 0.5300	12.8580
 0.5310	13.0220
 0.5320	13.1800
 0.5330	13.3220
 0.5340	13.4540
 0.5350	13.5790
 0.5360	13.6710
 0.5370	13.7650
 0.5380	13.8580
 0.5390	13.9170
 0.5400	13.9690
 0.5410	14.0200
 0.5420	14.0740
 0.5430	14.1330
 0.5440	14.1910
 0.5450	14.2490
 0.5460	14.3110
 0.5470	14.3580
 0.5480	14.3990
 0.5490	14.4380
 0.5500	14.4720
 0.5510	14.4950
 0.5520	14.5070
 0.5530	14.5070
 0.5540	14.5020
 0.5550	14.4740
 0.5560	14.4260
 0.5570	14.3680
 0.5580	14.2890
 0.5590	14.1900
 0.5600	14.0780
 0.5610	13.9600
 0.5620	13.8330
 0.5630	13.6940
 0.5640	13.5380
 0.5650	13.3870
 0.5660	13.2340
 0.5670	13.0750
 0.5680	12.9100
 0.5690	12.7440
 0.5700	12.5780
 0.5710	12.4150
 0.5720	12.2600
 0.5730	12.1120
 0.5740	11.9710
 0.5750	11.8410
 0.5760	11.7210
 0.5770	11.6080
 0.5780	11.4990
 0.5790	11.3890
 0.5800	11.2870
 0.5810	11.1930
 0.5820	11.1090
 0.5830	11.0410
 0.5840	10.9810
 0.5850	10.9220
 0.5860	10.8630
 0.5870	10.8120
 0.5880	10.7670
 0.5890	10.7230
 0.5900	10.6770
 0.5910	10.6380
 0.5920	10.6060
 0.5930	10.5710
 0.5940	10.5470
 0.5950	10.5260
 0.5960	10.5020
 0.5970	10.4780
 0.5980	10.4530
 0.5990	10.4300
 0.6000	10.4090
 0.6010	10.3800
 0.6020	10.3460
 0.6030	10.3080
 0.6040	10.2680
 0.6050	10.2260
 0.6060	10.1760
 0.6070	10.1190
 0.6080	10.0630
 0.6090	10.0030
 0.6100	 9.9330
 0.6110	 9.8540
 0.6120	 9.8020
 0.6130	 9.7550
 0.6140	 9.7020
 0.6150	 9.6530
 0.6160	 9.6050
 0.6170	 9.5620
 0.6180	 9.5280
 0.6190	 9.4840
 0.6200	 9.4430
 0.6210	 9.4110
 0.6220	 9.3820
 0.6230	 9.3660
 0.6240	 9.3500
 0.6250	 9.3270
 0.6260	 9.3180
 0.6270	 9.3090
 0.6280	 9.2970
 0.6290	 9.2890
 0.6300	 9.2810
 0.6310	 9.2730
 0.6320	 9.2630
 0.6330	 9.2540
 0.6340	 9.2390
 0.6350	 9.2140
 0.6360	 9.1820
 0.6370	 9.1550
 0.6380	 9.1200
 0.6390	 9.0780
 0.6400	 9.0310
 0.6410	 8.9830
 0.6420	 8.9350
 0.6430	 8.8870
 0.6440	 8.8390
 0.6450	 8.7950
 0.6460	 8.7510
 0.6470	 8.7080
 0.6480	 8.6770
 0.6490	 8.6480
 0.6500	 8.6190
 0.6510	 8.5940
 0.6520	 8.5730
 0.6530	 8.5550
 0.6540	 8.5380
 0.6550	 8.5130
 0.6560	 8.4920
 0.6570	 8.4730
 0.6580	 8.4500
 0.6590	 8.4240
 0.6600	 8.3980
 0.6610	 8.3730
 0.6620	 8.3520
 0.6630	 8.3270
 0.6640	 8.3060
 0.6650	 8.2940
 0.6660	 8.2770
 0.6670	 8.2670
 0.6680	 8.2650
 0.6690	 8.2690
 0.6700	 8.2650
 0.6710	 8.2630
 0.6720	 8.2690
 0.6730	 8.2810
 0.6740	 8.2910
 0.6750	 8.3020
 0.6760	 8.3190
 0.6770	 8.3430
 0.6780	 8.3670
 0.6790	 8.3900
 0.6800	 8.4170
 0.6810	 8.4470
 0.6820	 8.4830
 0.6830	 8.5250
 0.6840	 8.5730
 0.6850	 8.6260
 0.6860	 8.6860
 0.6870	 8.7570
 0.6880	 8.8460
 0.6890	 8.9570
 0.6900	 9.0970
 0.6910	 9.2780
 0.6920	 9.5090
 0.6930	 9.7940
 0.6940	10.1410
 0.6950	10.5730
 0.6960	11.0820
 0.6970	11.6760
 0.6980	12.3630
 0.6990	13.1240
 0.7000	13.9570
 0.7010	14.8550
 0.7020	15.8120
 0.7030	16.7950
 0.7040	17.8100
 0.7050	18.8540
 0.7060	19.8940
 0.7070	20.9390
 0.7080	21.9880
 0.7090	23.0350
 0.7100	24.0730
 0.7110	25.1100
 0.7120	26.1440
 0.7130	27.1510
 0.7140	28.1610
 0.7150	29.1620
 0.7160	30.1400
 0.7170	31.1030
 0.7180	32.0570
 0.7190	32.9960
 0.7200	33.9090
 0.7210	34.8020
 0.7220	35.6770
 0.7230	36.5320
 0.7240	37.3660
 0.7250	38.1650
 0.7260	38.9340
 0.7270	39.6770
 0.7280	40.3830
 0.7290	41.0720
 0.7300	41.7310
 0.7310	42.3380
 0.7320	42.9330
 0.7330	43.5050
 0.7340	44.0400
 0.7350	44.5310
 0.7360	45.0090
 0.7370	45.4570
 0.7380	45.8700
 0.7390	46.2800
 0.7400	46.6500
 0.7410	46.9840
 0.7420	47.3070
 0.7430	47.6070
 0.7440	47.8820
 0.7450	48.1390
 0.7460	48.3850
 0.7470	48.5890
 0.7480	48.7810
 0.7490	48.9760
 0.7500	49.1330
 0.7510	49.2740
 0.7520	49.4070
 0.7530	49.5380
 0.7540	49.6580
 0.7550	49.7570
 0.7560	49.8410
 0.7570	49.9280
 0.7580	50.0060
 0.7590	50.0690
 0.7600	50.1190
 0.7610	50.1670
 0.7620	50.2210
 0.7630	50.2730
 0.7640	50.3100
 0.7650	50.3520
 0.7660	50.3750
 0.7670	50.3910
 0.7680	50.4250
 0.7690	50.4500
 0.7700	50.4570
 0.7710	50.4600
 0.7720	50.4910
 0.7730	50.5080
 0.7740	50.5110
 0.7750	50.5150
 0.7760	50.5270
 0.7770	50.5490
 0.7780	50.5710
 0.7790	50.5810
 0.7800	50.5860
 0.7810	50.5860
 0.7820	50.5900
 0.7830	50.6170
 0.7840	50.6180
 0.7850	50.6210
 0.7860	50.6410
 0.7870	50.6360
 0.7880	50.6250
 0.7890	50.6290
 0.7900	50.6580
 0.7910	50.6670
 0.7920	50.6680
 0.7930	50.6670
 0.7940	50.6680
 0.7950	50.6760
 0.7960	50.6840
 0.7970	50.6850
 0.7980	50.6800
 0.7990	50.6850
 0.8000	50.6890
 0.8010	50.6800
 0.8020	50.6750
 0.8030	50.6780
 0.8040	50.6840
 0.8050	50.6830
 0.8060	50.6850
 0.8070	50.6870
 0.8080	50.6830
 0.8090	50.6650
 0.8100	50.6640
 0.8110	50.6650
 0.8120	50.6600
 0.8130	50.6610
 0.8140	50.6480
 0.8150	50.6370
 0.8160	50.6410
 0.8170	50.6450
 0.8180	50.6400
 0.8190	50.6280
 0.8200	50.6170
 0.8210	50.6050
 0.8220	50.5990
 0.8230	50.6020
 0.8240	50.6100
 0.8250	50.6080
 0.8260	50.5970
 0.8270	50.5830
 0.8280	50.5700
 0.8290	50.5670
 0.8300	50.5620
 0.8310	50.5500
 0.8320	50.5600
 0.8330	50.5570
 0.8340	50.5440
 0.8350	50.5380
 0.8360	50.5400
 0.8370	50.5420
 0.8380	50.5340
 0.8390	50.5120
 0.8400	50.5240
 0.8410	50.5390
 0.8420	50.5360
 0.8430	50.5260
 0.8440	50.5280
 0.8450	50.5240
 0.8460	50.5070
 0.8470	50.5180
 0.8480	50.5270
 0.8490	50.5300
 0.8500	50.5310
 0.8510	50.5320
 0.8520	50.5220
 0.8530	50.5100
 0.8540	50.5150
 0.8550	50.5180
 0.8560	50.5110
 0.8570	50.5040
 0.8580	50.5240
 0.8590	50.5260
 0.8600	50.5250
 0.8610	50.5290
 0.8620	50.5180
 0.8630	50.5200
 0.8640	50.5240
 0.8650	50.5200
 0.8660	50.5240
 0.8670	50.5320
 0.8680	50.5390
 0.8690	50.5390
 0.8700	50.5190
 0.8710	50.5140
 0.8720	50.5290
 0.8730	50.5470
 0.8740	50.5480
 0.8750	50.5390
 0.8760	50.5340
 0.8770	50.5420
 0.8780	50.5490
 0.8790	50.5520
 0.8800	50.5480
 0.8810	50.5300
 0.8820	50.5330
 0.8830	50.5450
 0.8840	50.5500
 0.8850	50.5440
 0.8860	50.5500
 0.8870	50.5520
 0.8880	50.5390
 0.8890	50.5580
 0.8900	50.5600
 0.8910	50.5550
 0.8920	50.5680
 0.8930	50.5650
 0.8940	50.5570
 0.8950	50.5540
 0.8960	50.5600
 0.8970	50.5560
 0.8980	50.5490
 0.8990	50.5470
 0.9000	50.5490
 0.9010	50.5570
 0.9020	50.5580
 0.9030	50.5540
 0.9040	50.5670
 0.9050	50.5690
 0.9060	50.5620
 0.9070	50.5550
 0.9080	50.5540
 0.9090	50.5530
 0.9100	50.5590
 0.9110	50.5710
 0.9120	50.5530
 0.9130	50.5390
 0.9140	50.5380
 0.9150	50.5460
 0.9160	50.5430
 0.9170	50.5380
 0.9180	50.5380
 0.9190	50.5440
 0.9200	50.5520
 0.9210	50.5350
 0.9220	50.5150
 0.9230	50.5310
 0.9240	50.5290
 0.9250	50.5390
 0.9260	50.5350
 0.9270	50.4670
 0.9280	50.4530
 0.9290	50.4630
 0.9300	50.4630
 0.9310	50.4340
 0.9320	50.4380
 0.9330	50.4300
 0.9340	50.3950
 0.9350	50.3670
 0.9360	50.3670
 0.9370	50.3540
 0.9380	50.3200
 0.9390	50.3110
 0.9400	50.3060
 0.9410	50.2860
 0.9420	50.2510
 0.9430	50.2330
 0.9440	50.2160
 0.9450	50.1920
 0.9460	50.1630
 0.9470	50.1550
 0.9480	50.1060
 0.9490	50.0460
 0.9500	50.0110
 0.9510	49.9940
 0.9520	49.9650
 0.9530	49.9230
 0.9540	49.8750
 0.9550	49.8020
 0.9560	49.7420
 0.9570	49.7070
 0.9580	49.6880
 0.9590	49.6370
 0.9600	49.6040
 0.9610	49.5830
 0.9620	49.5470
 0.9630	49.5040
 0.9640	49.4900
 0.9650	49.4780
 0.9660	49.4350
 0.9670	49.4330
 0.9680	49.4110
 0.9690	49.3830
 0.9700	49.3820
 0.9710	49.3740
 0.9720	49.3610
 0.9730	49.3560
 0.9740	49.3620
 0.9750	49.3380
 0.9760	49.3230
 0.9770	49.3240
 0.9780	49.3290
 0.9790	49.3400
 0.9800	49.3310
 0.9810	49.3090
 0.9820	49.3000
 0.9830	49.3310
 0.9840	49.3260
 0.9850	49.3070
 0.9860	49.3250
 0.9870	49.2880
 0.9880	49.2800
 0.9890	49.3200
 0.9900	49.3700
 0.9910	49.3490
 0.9920	49.3650
 0.9930	49.3810
 0.9940	49.3970
 0.9950	49.4130
 0.9960	49.4300
 0.9970	49.4460
 0.9980	49.4620
 0.9990	49.4780
 1.0000	49.4940
 1.0010	49.5100
 1.0020	49.5260
 1.0030	49.5420
 1.0040	49.5580
 1.0050	49.5740
 1.0060	49.5900
 1.0070	49.6070
 1.0080	49.6230
 1.0090	49.6390
 1.0100	49.6390
 1.0110	49.6480
 1.0120	49.6570
 1.0130	49.6670
 1.0140	49.6780
 1.0150	49.6860
 1.0160	49.7000
 1.0170	49.7100
 1.0180	49.7110
 1.0190	49.7110
 1.0200	49.7120
 1.0210	49.7200
 1.0220	49.7400
 1.0230	49.7530
 1.0240	49.7720
 1.0250	49.7810
 1.0260	49.7800
 1.0270	49.7860
 1.0280	49.7960
 1.0290	49.8000
 1.0300	49.8010
 1.0310	49.8100
 1.0320	49.8170
 1.0330	49.8250
 1.0340	49.8410
 1.0350	49.8530
 1.0360	49.8570
 1.0370	49.8570
 1.0380	49.8570
 1.0390	49.8540
 1.0400	49.8520
 1.0410	49.8480
 1.0420	49.8490
 1.0430	49.8550
 1.0440	49.8570
 1.0450	49.8600
 1.0460	49.8640
 1.0470	49.8630
 1.0480	49.8660
 1.0490	49.8760
 1.0500	49.8790
 1.0510	49.8800
 1.0520	49.8790
 1.0530	49.8810
 1.0540	49.8810
 1.0550	49.8830
 1.0560	49.8900
 1.0570	49.8920
 1.0580	49.8880
 1.0590	49.8920
 1.0600	49.9020
 1.0610	49.9050
 1.0620	49.9120
 1.0630	49.9120
 1.0640	49.9010
 1.0650	49.8970
 1.0660	49.8980
 1.0670	49.8970
 1.0680	49.8970
 1.0690	49.9000
 1.0700	49.9020
 1.0710	49.9050
 1.0720	49.9050
 1.0730	49.9080
 1.0740	49.9050
 1.0750	49.8940
 1.0760	49.8900
 1.0770	49.8880
 1.0780	49.8840
 1.0790	49.8800
 1.0800	49.8780
 1.0810	49.8760
 1.0820	49.8720
 1.0830	49.8720
 1.0840	49.8690
 1.0850	49.8680
 1.0860	49.8600
 1.0870	49.8540
 1.0880	49.8470
 1.0890	49.8390
 1.0900	49.8270
 1.0910	49.8170
 1.0920	49.8060
 1.0930	49.7970
 1.0940	49.7890
 1.0950	49.7800
 1.0960	49.7700
 1.0970	49.7630
 1.0980	49.7590
 1.0990	49.7480
 1.1000	49.7340
 1.1010	49.7200
 1.1020	49.7010
 1.1030	49.6800
 1.1040	49.6670
 1.1050	49.6490
 1.1060	49.6330
 1.1070	49.6180
 1.1080	49.6010
 1.1090	49.5870
 1.1100	49.5680
 1.1110	49.5450
 1.1120	49.5240
 1.1130	49.4990
 1.1140	49.4780
 1.1150	49.4660
 1.1160	49.4450
 1.1170	49.4230
 1.1180	49.3970
 1.1190	49.3640
 1.1200	49.3310
 1.1210	49.2970
 1.1220	49.2610
 1.1230	49.2280
 1.1240	49.1950
 1.1250	49.1580
 1.1260	49.1250
 1.1270	49.0850
 1.1280	49.0390
 1.1290	48.9930
 1.1300	48.9480
 1.1310	48.8960
 1.1320	48.8450
 1.1330	48.7830
 1.1340	48.7090
 1.1350	48.6380
 1.1360	48.5610
 1.1370	48.4810
 1.1380	48.4020
 1.1390	48.3160
 1.1400	48.2250
 1.1410	48.1310
 1.1420	48.0340
 1.1430	47.9340
 1.1440	47.8350
 1.1450	47.7330
 1.1460	47.6350
 1.1470	47.5350
 1.1480	47.4410
 1.1490	47.3460
 1.1500	47.2600
 1.1510	47.1800
 1.1520	47.1050
 1.1530	47.0380
 1.1540	46.9730
 1.1550	46.9130
 1.1560	46.8580
 1.1570	46.8070
 1.1580	46.7610
 1.1590	46.7210
 1.1600	46.6870
 1.1610	46.6550
 1.1620	46.6270
 1.1630	46.6000
 1.1640	46.5740
 1.1650	46.5520
 1.1660	46.5330
 1.1670	46.5200
 1.1680	46.5150
 1.1690	46.5080
 1.1700	46.5050
 1.1710	46.4990
 1.1720	46.4890
 1.1730	46.4830
 1.1740	46.4790
 1.1750	46.4770
 1.1760	46.4690
 1.1770	46.4610
 1.1780	46.4500
 1.1790	46.4410
 1.1800	46.4410
 1.1810	46.4350
 1.1820	46.4300
 1.1830	46.4260
 1.1840	46.4140
 1.1850	46.4050
 1.1860	46.4010
 1.1870	46.3900
 1.1880	46.3840
 1.1890	46.3850
 1.1900	46.3790
 1.1910	46.3700
 1.1920	46.3630
 1.1930	46.3510
 1.1940	46.3420
 1.1950	46.3360
 1.1960	46.3310
 1.1970	46.3260
 1.1980	46.3220
 1.1990	46.3250
 1.2000	46.3270
 1.2010	46.3270
 1.2020	46.3280
 1.2030	46.3270
 1.2040	46.3280
 1.2050	46.3330
 1.2060	46.3400
 1.2070	46.3480
 1.2080	46.3570
 1.2090	46.3670
 1.2100	46.3750
 1.2110	46.3840
 1.2120	46.3950
 1.2130	46.4050
 1.2140	46.4180
 1.2150	46.4300
 1.2160	46.4410
 1.2170	46.4510
 1.2180	46.4640
 1.2190	46.4720
 1.2200	46.4840
 1.2210	46.5000
 1.2220	46.5120
 1.2230	46.5290
 1.2240	46.5480
 1.2250	46.5600
 1.2260	46.5740
 1.2270	46.5870
 1.2280	46.5950
 1.2290	46.6080
 1.2300	46.6200
 1.2310	46.6320
 1.2320	46.6480
 1.2330	46.6600
 1.2340	46.6700
 1.2350	46.6790
 1.2360	46.6860
 1.2370	46.6890
 1.2380	46.6940
 1.2390	46.7010
 1.2400	46.7100
 1.2410	46.7170
 1.2420	46.7240
 1.2430	46.7310
 1.2440	46.7370
 1.2450	46.7440
 1.2460	46.7520
 1.2470	46.7600
 1.2480	46.7680
 1.2490	46.7730
 1.2500	46.7800
 1.2510	46.7860
 1.2520	46.7880
 1.2530	46.7880
 1.2540	46.7880
 1.2550	46.7860
 1.2560	46.7860
 1.2570	46.7860
 1.2580	46.7840
 1.2590	46.7820
 1.2600	46.7790
 1.2610	46.7730
 1.2620	46.7650
 1.2630	46.7640
 1.2640	46.7600
 1.2650	46.7540
 1.2660	46.7520
 1.2670	46.7440
 1.2680	46.7330
 1.2690	46.7240
 1.2700	46.7200
 1.2710	46.7110
 1.2720	46.6920
 1.2730	46.6790
 1.2740	46.6640
 1.2750	46.6500
 1.2760	46.6420
 1.2770	46.6280
 1.2780	46.6140
 1.2790	46.6000
 1.2800	46.5850
 1.2810	46.5710
 1.2820	46.5550
 1.2830	46.5340
 1.2840	46.5140
 1.2850	46.4930
 1.2860	46.4700
 1.2870	46.4510
 1.2880	46.4360
 1.2890	46.4210
 1.2900	46.4030
 1.2910	46.3820
 1.2920	46.3610
 1.2930	46.3320
 1.2940	46.3010
 1.2950	46.2770
 1.2960	46.2460
 1.2970	46.2140
 1.2980	46.1850
 1.2990	46.1510
 1.3000	46.1190
 1.3010	46.0840
 1.3020	46.0460
 1.3030	46.0090
 1.3040	45.9640
 1.3050	45.9170
 1.3060	45.8710
 1.3070	45.8240
 1.3080	45.7720
 1.3090	45.7180
 1.3100	45.6630
 1.3110	45.6030
 1.3120	45.5410
 1.3130	45.4820
 1.3140	45.4190
 1.3150	45.3560
 1.3160	45.2860
 1.3170	45.2110
 1.3180	45.1310
 1.3190	45.0490
 1.3200	44.9620
 1.3210	44.8760
 1.3220	44.7860
 1.3230	44.6880
 1.3240	44.5870
 1.3250	44.4890
 1.3260	44.3900
 1.3270	44.2900
 1.3280	44.1900
 1.3290	44.0830
 1.3300	43.9720
 1.3310	43.8620
 1.3320	43.7500
 1.3330	43.6390
 1.3340	43.5250
 1.3350	43.4080
 1.3360	43.2900
 1.3370	43.1720
 1.3380	43.0580
 1.3390	42.9470
 1.3400	42.8360
 1.3410	42.7230
 1.3420	42.6070
 1.3430	42.4900
 1.3440	42.3730
 1.3450	42.2570
 1.3460	42.1430
 1.3470	42.0300
 1.3480	41.9170
 1.3490	41.8050
 1.3500	41.6940
 1.3510	41.5840
 1.3520	41.4740
 1.3530	41.3680
 1.3540	41.2610
 1.3550	41.1500
 1.3560	41.0400
 1.3570	40.9260
 1.3580	40.8130
 1.3590	40.7020
 1.3600	40.5870
 1.3610	40.4700
 1.3620	40.3480
 1.3630	40.2190
 1.3640	40.0850
 1.3650	39.9440
 1.3660	39.7950
 1.3670	39.6430
 1.3680	39.4820
 1.3690	39.3120
 1.3700	39.1310
 1.3710	38.9350
 1.3720	38.7260
 1.3730	38.5030
 1.3740	38.2670
 1.3750	38.0160
 1.3760	37.7470
 1.3770	37.4570
 1.3780	37.1440
 1.3790	36.8110
 1.3800	36.4570
 1.3810	36.0800
 1.3820	35.6820
 1.3830	35.2630
 1.3840	34.8240
 1.3850	34.3650
 1.3860	33.8890
 1.3870	33.3910
 1.3880	32.8840
 1.3890	32.3620
 1.3900	31.8260
 1.3910	31.2880
 1.3920	30.7400
 1.3930	30.1810
 1.3940	29.6240
 1.3950	29.0600
 1.3960	28.5010
 1.3970	27.9520
 1.3980	27.4070
 1.3990	26.8780
 1.4000	26.3610
 1.4010	25.8550
 1.4020	25.3690
 1.4030	24.8960
 1.4040	24.4410
 1.4050	24.0080
 1.4060	23.5930
 1.4070	23.2030
 1.4080	22.8360
 1.4090	22.4890
 1.4100	22.1660
 1.4110	21.8640
 1.4120	21.5830
 1.4130	21.3240
 1.4140	21.0850
 1.4150	20.8660
 1.4160	20.6670
 1.4170	20.4840
 1.4180	20.3170
 1.4190	20.1630
 1.4200	20.0230
 1.4210	19.8980
 1.4220	19.7850
 1.4230	19.6830
 1.4240	19.5900
 1.4250	19.5070
 1.4260	19.4320
 1.4270	19.3660
 1.4280	19.3110
 1.4290	19.2610
 1.4300	19.2190
 1.4310	19.1820
 1.4320	19.1500
 1.4330	19.1240
 1.4340	19.1050
 1.4350	19.0890
 1.4360	19.0780
 1.4370	19.0690
 1.4380	19.0630
 1.4390	19.0620
 1.4400	19.0620
 1.4410	19.0660
 1.4420	19.0740
 1.4430	19.0820
 1.4440	19.0930
 1.4450	19.1070
 1.4460	19.1240
 1.4470	19.1420
 1.4480	19.1630
 1.4490	19.1840
 1.4500	19.2030
 1.4510	19.2240
 1.4520	19.2490
 1.4530	19.2750
 1.4540	19.3040
 1.4550	19.3330
 1.4560	19.3640
 1.4570	19.3990
 1.4580	19.4380
 1.4590	19.4790
 1.4600	19.5250
 1.4610	19.5750
 1.4620	19.6310
 1.4630	19.6940
 1.4640	19.7590
 1.4650	19.8280
 1.4660	19.9040
 1.4670	19.9850
 1.4680	20.0710
 1.4690	20.1630
 1.4700	20.2580
 1.4710	20.3570
 1.4720	20.4620
 1.4730	20.5730
 1.4740	20.6890
 1.4750	20.8060
 1.4760	20.9260
 1.4770	21.0480
 1.4780	21.1700
 1.4790	21.2940
 1.4800	21.4200
 1.4810	21.5470
 1.4820	21.6770
 1.4830	21.8070
 1.4840	21.9370
 1.4850	22.0680
 1.4860	22.1980
 1.4870	22.3280
 1.4880	22.4600
 1.4890	22.5920
 1.4900	22.7260
 1.4910	22.8610
 1.4920	22.9970
 1.4930	23.1360
 1.4940	23.2710
 1.4950	23.4060
 1.4960	23.5390
 1.4970	23.6670
 1.4980	23.7990
 1.4990	23.9320
 1.5000	24.0640
 1.5010	24.1950
 1.5020	24.3260
 1.5030	24.4560
 1.5040	24.5850
 1.5050	24.7150
 1.5060	24.8430
 1.5070	24.9710
 1.5080	25.0970
 1.5090	25.2220
 1.5100	25.3460
 1.5110	25.4720
 1.5120	25.5960
 1.5130	25.7160
 1.5140	25.8390
 1.5150	25.9600
 1.5160	26.0800
 1.5170	26.2030
 1.5180	26.3210
 1.5190	26.4360
 1.5200	26.5500
 1.5210	26.6650
 1.5220	26.7800
 1.5230	26.8960
 1.5240	27.0080
 1.5250	27.1180
 1.5260	27.2260
 1.5270	27.3300
 1.5280	27.4350
 1.5290	27.5390
 1.5300	27.6430
 1.5310	27.7490
 1.5320	27.8500
 1.5330	27.9500
 1.5340	28.0510
 1.5350	28.1500
 1.5360	28.2490
 1.5370	28.3470
 1.5380	28.4420
 1.5390	28.5370
 1.5400	28.6310
 1.5410	28.7260
 1.5420	28.8180
 1.5430	28.9090
 1.5440	28.9990
 1.5450	29.0860
 1.5460	29.1710
 1.5470	29.2570
 1.5480	29.3400
 1.5490	29.4230
 1.5500	29.5060
 1.5510	29.5860
 1.5520	29.6650
 1.5530	29.7420
 1.5540	29.8200
 1.5550	29.8970
 1.5560	29.9710
 1.5570	30.0440
 1.5580	30.1160
 1.5590	30.1880
 1.5600	30.2600
 1.5610	30.3300
 1.5620	30.4000
 1.5630	30.4690
 1.5640	30.5360
 1.5650	30.6030
 1.5660	30.6680
 1.5670	30.7320
 1.5680	30.7970
 1.5690	30.8600
 1.5700	30.9240
 1.5710	30.9920
 1.5720	31.0550
 1.5730	31.1160
 1.5740	31.1760
 1.5750	31.2310
 1.5760	31.2900
 1.5770	31.3520
 1.5780	31.4130
 1.5790	31.4700
 1.5800	31.5240
 1.5810	31.5770
 1.5820	31.6310
 1.5830	31.6840
 1.5840	31.7360
 1.5850	31.7880
 1.5860	31.8400
 1.5870	31.8930
 1.5880	31.9460
 1.5890	31.9990
 1.5900	32.0500
 1.5910	32.0990
 1.5920	32.1490
 1.5930	32.1950
 1.5940	32.2410
 1.5950	32.2880
 1.5960	32.3310
 1.5970	32.3740
 1.5980	32.4170
 1.5990	32.4610
 1.6000	32.5080
 1.6010	32.5540
 1.6020	32.5950
 1.6030	32.6350
 1.6040	32.6730
 1.6050	32.7100
 1.6060	32.7500
 1.6070	32.7920
 1.6080	32.8330
 1.6090	32.8710
 1.6100	32.9090
 1.6110	32.9470
 1.6120	32.9790
 1.6130	33.0140
 1.6140	33.0480
 1.6150	33.0790
 1.6160	33.1130
 1.6170	33.1460
 1.6180	33.1750
 1.6190	33.2040
 1.6200	33.2340
 1.6210	33.2620
 1.6220	33.2880
 1.6230	33.3160
 1.6240	33.3400
 1.6250	33.3650
 1.6260	33.3920
 1.6270	33.4140
 1.6280	33.4350
 1.6290	33.4520
 1.6300	33.4650
 1.6310	33.4770
 1.6320	33.4870
 1.6330	33.4970
 1.6340	33.5100
 1.6350	33.5150
 1.6360	33.5160
 1.6370	33.5150
 1.6380	33.5070
 1.6390	33.5000
 1.6400	33.4920
 1.6410	33.4810
 1.6420	33.4660
 1.6430	33.4510
 1.6440	33.4360
 1.6450	33.4150
 1.6460	33.3950
 1.6470	33.3700
 1.6480	33.3400
 1.6490	33.3090
 1.6500	33.2760
 1.6510	33.2470
 1.6520	33.2250
 1.6530	33.2040
 1.6540	33.1890
 1.6550	33.1790
 1.6560	33.1700
 1.6570	33.1650
 1.6580	33.1660
 1.6590	33.1700
 1.6600	33.1790
 1.6610	33.1960
 1.6620	33.2170
 1.6630	33.2410
 1.6640	33.2650
 1.6650	33.2880
 1.6660	33.3120
 1.6670	33.3340
 1.6680	33.3560
 1.6690	33.3770
 1.6700	33.3940
 1.6710	33.4060
 1.6720	33.4120
 1.6730	33.4160
 1.6740	33.4180
 1.6750	33.4180
 1.6760	33.4190
 1.6770	33.4160
 1.6780	33.4080
 1.6790	33.4000
 1.6800	33.3890
 1.6810	33.3740
 1.6820	33.3560
 1.6830	33.3350
 1.6840	33.3080
 1.6850	33.2790
 1.6860	33.2470
 1.6870	33.2120
 1.6880	33.1770
 1.6890	33.1450
 1.6900	33.1090
 1.6910	33.0740
 1.6920	33.0360
 1.6930	32.9930
 1.6940	32.9540
 1.6950	32.9190
 1.6960	32.8820
 1.6970	32.8470
 1.6980	32.8120
 1.6990	32.7770
 1.7000	32.7410
 1.7010	32.7100
 1.7020	32.6710
 1.7030	32.6260
 1.7040	32.5820
 1.7050	32.5340
 1.7060	32.4880
 1.7070	32.4450
 1.7080	32.3970
 1.7090	32.3480
 1.7100	32.2960
 1.7110	32.2400
 1.7120	32.1920
 1.7130	32.1410
 1.7140	32.0950
 1.7150	32.0520
 1.7160	32.0060
 1.7170	31.9630
 1.7180	31.9190
 1.7190	31.8770
 1.7200	31.8360
 1.7210	31.7960
 1.7220	31.7620
 1.7230	31.7230
 1.7240	31.6800
 1.7250	31.6390
 1.7260	31.5960
 1.7270	31.5560
 1.7280	31.5250
 1.7290	31.4910
 1.7300	31.4600
 1.7310	31.4280
 1.7320	31.3940
 1.7330	31.3630
 1.7340	31.3360
 1.7350	31.3060
 1.7360	31.2800
 1.7370	31.2480
 1.7380	31.2110
 1.7390	31.1750
 1.7400	31.1370
 1.7410	31.0970
 1.7420	31.0570
 1.7430	31.0130
 1.7440	30.9680
 1.7450	30.9180
 1.7460	30.8650
 1.7470	30.8120
 1.7480	30.7560
 1.7490	30.7000
 1.7500	30.6450
 1.7510	30.5900
 1.7520	30.5330
 1.7530	30.4760
 1.7540	30.4190
 1.7550	30.3600
 1.7560	30.3010
 1.7570	30.2410
 1.7580	30.1800
 1.7590	30.1220
 1.7600	30.0660
 1.7610	30.0180
 1.7620	29.9650
 1.7630	29.9050
 1.7640	29.8530
 1.7650	29.8000
 1.7660	29.7500
 1.7670	29.7090
 1.7680	29.6630
 1.7690	29.6150
 1.7700	29.5670
 1.7710	29.5150
 1.7720	29.4710
 1.7730	29.4330
 1.7740	29.3950
 1.7750	29.3630
 1.7760	29.3290
 1.7770	29.2930
 1.7780	29.2620
 1.7790	29.2350
 1.7800	29.2060
 1.7810	29.1790
 1.7820	29.1540
 1.7830	29.1290
 1.7840	29.1040
 1.7850	29.0840
 1.7860	29.0600
 1.7870	29.0320
 1.7880	29.0090
 1.7890	28.9900
 1.7900	28.9770
 1.7910	28.9630
 1.7920	28.9520
 1.7930	28.9420
 1.7940	28.9270
 1.7950	28.9200
 1.7960	28.9210
 1.7970	28.9170
 1.7980	28.9170
 1.7990	28.9130
 1.8000	28.9030
 1.8010	28.8990
 1.8020	28.9000
 1.8030	28.8990
 1.8040	28.9010
 1.8050	28.9000
 1.8060	28.8990
 1.8070	28.8950
 1.8080	28.8890
 1.8090	28.8850
 1.8100	28.8790
 1.8110	28.8800
 1.8120	28.8800
 1.8130	28.8820
 1.8140	28.8780
 1.8150	28.8720
 1.8160	28.8660
 1.8170	28.8630
 1.8180	28.8610
 1.8190	28.8600
 1.8200	28.8590
 1.8210	28.8570
 1.8220	28.8510
 1.8230	28.8430
 1.8240	28.8350
 1.8250	28.8210
 1.8260	28.8110
 1.8270	28.7980
 1.8280	28.7840
 1.8290	28.7700
 1.8300	28.7560
 1.8310	28.7420
 1.8320	28.7280
 1.8330	28.7140
 1.8340	28.7000
 1.8350	28.7000
 1.8360	28.6710
 1.8370	28.6350
 1.8380	28.5910
 1.8390	28.5390
 1.8400	28.4820
 1.8410	28.4150
 1.8420	28.3390
 1.8430	28.2570
 1.8440	28.1660
 1.8450	28.0720
 1.8460	27.9750
 1.8470	27.8680
 1.8480	27.7530
 1.8490	27.6340
 1.8500	27.5050
 1.8510	27.3660
 1.8520	27.2190
 1.8530	27.0640
 1.8540	26.8930
 1.8550	26.7140
 1.8560	26.5180
 1.8570	26.3060
 1.8580	26.0930
 1.8590	25.8640
 1.8600	25.6210
 1.8610	25.3650
 1.8620	25.0950
 1.8630	24.7940
 1.8640	24.4670
 1.8650	24.1260
 1.8660	23.7670
 1.8670	23.3840
 1.8680	22.9840
 1.8690	22.5660
 1.8700	22.1310
 1.8710	21.6740
 1.8720	21.2120
 1.8730	20.7410
 1.8740	20.2510
 1.8750	19.7520
 1.8760	19.2350
 1.8770	18.7090
 1.8780	18.1880
 1.8790	17.6570
 1.8800	17.1320
 1.8810	16.6090
 1.8820	16.0900
 1.8830	15.5650
 1.8840	15.0530
 1.8850	14.5480
 1.8860	14.0420
 1.8870	13.5540
 1.8880	13.0820
 1.8890	12.6300
 1.8900	12.2030
 1.8910	11.8000
 1.8920	11.4200
 1.8930	11.0610
 1.8940	10.7180
 1.8950	10.4040
 1.8960	10.1170
 1.8970	 9.8510
 1.8980	 9.6110
 1.8990	 9.3920
 1.9000	 9.1900
 1.9010	 9.0060
 1.9020	 8.8410
 1.9030	 8.6980
 1.9040	 8.5680
 1.9050	 8.4550
 1.9060	 8.3550
 1.9070	 8.2650
 1.9080	 8.1850
 1.9090	 8.1130
 1.9100	 8.0490
 1.9110	 7.9930
 1.9120	 7.9500
 1.9130	 7.9100
 1.9140	 7.8780
 1.9150	 7.8510
 1.9160	 7.8340
 1.9170	 7.8200
 1.9180	 7.8050
 1.9190	 7.7960
 1.9200	 7.7840
 1.9210	 7.7720
 1.9220	 7.7660
 1.9230	 7.7630
 1.9240	 7.7650
 1.9250	 7.7730
 1.9260	 7.7840
 1.9270	 7.7980
 1.9280	 7.8090
 1.9290	 7.8140
 1.9300	 7.8180
 1.9310	 7.8270
 1.9320	 7.8410
 1.9330	 7.8570
 1.9340	 7.8790
 1.9350	 7.8980
 1.9360	 7.9170
 1.9370	 7.9370
 1.9380	 7.9570
 1.9390	 7.9800
 1.9400	 8.0060
 1.9410	 8.0330
 1.9420	 8.0620
 1.9430	 8.0930
 1.9440	 8.1240
 1.9450	 8.1560
 1.9460	 8.1870
 1.9470	 8.2180
 1.9480	 8.2510
 1.9490	 8.2820
 1.9500	 8.3170
 1.9510	 8.3570
 1.9520	 8.3960
 1.9530	 8.4400
 1.9540	 8.4820
 1.9550	 8.5260
 1.9560	 8.5720
 1.9570	 8.6170
 1.9580	 8.6610
 1.9590	 8.7060
 1.9600	 8.7470
 1.9610	 8.7930
 1.9620	 8.8410
 1.9630	 8.8900
 1.9640	 8.9420
 1.9650	 8.9930
 1.9660	 9.0450
 1.9670	 9.1000
 1.9680	 9.1560
 1.9690	 9.2150
 1.9700	 9.2760
 1.9710	 9.3390
 1.9720	 9.4020
 1.9730	 9.4670
 1.9740	 9.5300
 1.9750	 9.5920
 1.9760	 9.6570
 1.9770	 9.7170
 1.9780	 9.7790
 1.9790	 9.8430
 1.9800	 9.9070
 1.9810	 9.9740
 1.9820	10.0450
 1.9830	10.1140
 1.9840	10.1850
 1.9850	10.2560
 1.9860	10.3260
 1.9870	10.3980
 1.9880	10.4770
 1.9890	10.5480
 1.9900	10.6210
 1.9910	10.6990
 1.9920	10.7750
 1.9930	10.8510
 1.9940	10.9300
 1.9950	11.0160
 1.9960	11.0940
 1.9970	11.1700
 1.9980	11.2450
 1.9990	11.3140
 2.0000	11.3860
 2.0010	11.4560
 2.0020	11.5340
 2.0030	11.6160
 2.0040	11.6930
 2.0050	11.7690
 2.0060	11.8440
 2.0070	11.9190
 2.0080	11.9920
 2.0090	12.0640
 2.0100	12.1380
 2.0110	12.2120
 2.0120	12.2840
 2.0130	12.3570
 2.0140	12.4380
 2.0150	12.5180
 2.0160	12.5940
 2.0170	12.6670
 2.0180	12.7380
 2.0190	12.8030
 2.0200	12.8680
 2.0210	12.9320
 2.0220	12.9960
 2.0230	13.0600
 2.0240	13.1230
 2.0250	13.1890
 2.0260	13.2510
 2.0270	13.3110
 2.0280	13.3710
 2.0290	13.4300
 2.0300	13.4840
 2.0310	13.5410
 2.0320	13.5970
 2.0330	13.6520
 2.0340	13.7050
 2.0350	13.7570
 2.0360	13.8070
 2.0370	13.8590
 2.0380	13.9150
 2.0390	13.9660
 2.0400	14.0190
 2.0410	14.0640
 2.0420	14.0990
 2.0430	14.1360
 2.0440	14.1740
 2.0450	14.2100
 2.0460	14.2470
 2.0470	14.2840
 2.0480	14.3260
 2.0490	14.3690
 2.0500	14.4120
 2.0510	14.4630
 2.0520	14.5090
 2.0530	14.5510
 2.0540	14.5910
 2.0550	14.6300
 2.0560	14.6660
 2.0570	14.7040
 2.0580	14.7420
 2.0590	14.7850
 2.0600	14.8350
 2.0610	14.8790
 2.0620	14.9220
 2.0630	14.9670
 2.0640	15.0110
 2.0650	15.0560
 2.0660	15.1060
 2.0670	15.1500
 2.0680	15.1890
 2.0690	15.2300
 2.0700	15.2660
 2.0710	15.3040
 2.0720	15.3460
 2.0730	15.3840
 2.0740	15.4250
 2.0750	15.4710
 2.0760	15.5100
 2.0770	15.5440
 2.0780	15.5830
 2.0790	15.6170
 2.0800	15.6540
 2.0810	15.6960
 2.0820	15.7310
 2.0830	15.7570
 2.0840	15.7890
 2.0850	15.8210
 2.0860	15.8520
 2.0870	15.8820
 2.0880	15.9180
 2.0890	15.9500
 2.0900	15.9780
 2.0910	16.0120
 2.0920	16.0490
 2.0930	16.0830
 2.0940	16.1180
 2.0950	16.1480
 2.0960	16.1700
 2.0970	16.1970
 2.0980	16.2270
 2.0990	16.2500
 2.1000	16.2660
 2.1010	16.2920
 2.1020	16.3240
 2.1030	16.3470
 2.1040	16.3690
 2.1050	16.4000
 2.1060	16.4230
 2.1070	16.4360
 2.1080	16.4530
 2.1090	16.4750
 2.1100	16.4930
 2.1110	16.5040
 2.1120	16.5180
 2.1130	16.5360
 2.1140	16.5500
 2.1150	16.5660
 2.1160	16.5760
 2.1170	16.5800
 2.1180	16.5880
 2.1190	16.5940
 2.1200	16.6020
 2.1210	16.6140
 2.1220	16.6240
 2.1230	16.6370
 2.1240	16.6510
 2.1250	16.6590
 2.1260	16.6680
 2.1270	16.6770
 2.1280	16.6750
 2.1290	16.6900
 2.1300	16.7160
 2.1310	16.7390
 2.1320	16.7760
 2.1330	16.8000
 2.1340	16.8170
 2.1350	16.8370
 2.1360	16.8540
 2.1370	16.8710
 2.1380	16.8910
 2.1390	16.9100
 2.1400	16.9240
 2.1410	16.9440
 2.1420	16.9670
 2.1430	16.9930
 2.1440	17.0150
 2.1450	17.0400
 2.1460	17.0610
 2.1470	17.0780
 2.1480	17.0960
 2.1490	17.1140
 2.1500	17.1320
 2.1510	17.1500
 2.1520	17.1680
 2.1530	17.1850
 2.1540	17.2020
 2.1550	17.2190
 2.1560	17.2360
 2.1570	17.2570
 2.1580	17.2730
 2.1590	17.2880
 2.1600	17.3020
 2.1610	17.3120
 2.1620	17.3260
 2.1630	17.3410
 2.1640	17.3560
 2.1650	17.3710
 2.1660	17.3850
 2.1670	17.4020
 2.1680	17.4210
 2.1690	17.4380
 2.1700	17.4590
 2.1710	17.4760
 2.1720	17.4870
 2.1730	17.5030
 2.1740	17.5230
 2.1750	17.5380
 2.1760	17.5500
 2.1770	17.5640
 2.1780	17.5700
 2.1790	17.5850
 2.1800	17.6100
 2.1810	17.6290
 2.1820	17.6470
 2.1830	17.6670
 2.1840	17.6850
 2.1850	17.6950
 2.1860	17.7190
 2.1870	17.7500
 2.1880	17.7760
 2.1890	17.8120
 2.1900	17.8330
 2.1910	17.8420
 2.1920	17.8580
 2.1930	17.8680
 2.1940	17.8830
 2.1950	17.9050
 2.1960	17.9250
 2.1970	17.9470
 2.1980	17.9670
 2.1990	17.9880
 2.2000	18.0060
 2.2010	18.0180
 2.2020	18.0370
 2.2030	18.0600
 2.2040	18.0790
 2.2050	18.1000
 2.2060	18.1230
 2.2070	18.1390
 2.2080	18.1480
 2.2090	18.1630
 2.2100	18.1790
 2.2110	18.1970
 2.2120	18.2190
 2.2130	18.2380
 2.2140	18.2570
 2.2150	18.2780
 2.2160	18.3030
 2.2170	18.3200
 2.2180	18.3380
 2.2190	18.3490
 2.2200	18.3550
 2.2210	18.3550
 2.2220	18.3500
 2.2230	18.3400
 2.2240	18.3150
 2.2250	18.3000
 2.2260	18.2840
 2.2270	18.2730
 2.2280	18.2760
 2.2290	18.2670
 2.2300	18.2490
 2.2310	18.2390
 2.2320	18.2160
 2.2330	18.1890
 2.2340	18.1670
 2.2350	18.1510
 2.2360	18.1200
 2.2370	18.0840
 2.2380	18.0440
 2.2390	17.9900
 2.2400	17.9450
 2.2410	17.9050
 2.2420	17.8580
 2.2430	17.8120
 2.2440	17.7590
 2.2450	17.6980
 2.2460	17.6430
 2.2470	17.5860
 2.2480	17.5290
 2.2490	17.4720
 2.2500	17.4180
 2.2510	17.3600
 2.2520	17.3090
 2.2530	17.2680
 2.2540	17.2240
 2.2550	17.1780
 2.2560	17.1350
 2.2570	17.0940
 2.2580	17.0530
 2.2590	17.0170
 2.2600	16.9780
 2.2610	16.9390
 2.2620	16.8950
 2.2630	16.8550
 2.2640	16.8200
 2.2650	16.7810
 2.2660	16.7530
 2.2670	16.7160
 2.2680	16.6740
 2.2690	16.6320
 2.2700	16.5870
 2.2710	16.5500
 2.2720	16.5150
 2.2730	16.4840
 2.2740	16.4640
 2.2750	16.4280
 2.2760	16.3840
 2.2770	16.3430
 2.2780	16.2890
 2.2790	16.2480
 2.2800	16.2150
 2.2810	16.1830
 2.2820	16.1630
 2.2830	16.1290
 2.2840	16.0910
 2.2850	16.0470
 2.2860	15.9860
 2.2870	15.9370
 2.2880	15.8930
 2.2890	15.8460
 2.2900	15.7990
 2.2910	15.7500
 2.2920	15.6980
 2.2930	15.6450
 2.2940	15.5930
 2.2950	15.5410
 2.2960	15.4840
 2.2970	15.4300
 2.2980	15.3800
 2.2990	15.3250
 2.3000	15.2720
 2.3010	15.2180
 2.3020	15.1560
 2.3030	15.0880
 2.3040	15.0380
 2.3050	14.9960
 2.3060	14.9560
 2.3070	14.9220
 2.3080	14.8650
 2.3090	14.8030
 2.3100	14.7450
 2.3110	14.6940
 2.3120	14.6550
 2.3130	14.6290
 2.3140	14.6030
 2.3150	14.5900
 2.3160	14.5710
 2.3170	14.5520
 2.3180	14.5290
 2.3190	14.4980
 2.3200	14.4800
 2.3210	14.4750
 2.3220	14.4480
 2.3230	14.4220
 2.3240	14.3830
 2.3250	14.3160
 2.3260	14.2700
 2.3270	14.2260
 2.3280	14.1890
 2.3290	14.1640
 2.3300	14.1320
 2.3310	14.1080
 2.3320	14.0760
 2.3330	14.0380
 2.3340	13.9980
 2.3350	13.9530
 2.3360	13.9110
 2.3370	13.8690
 2.3380	13.8300
 2.3390	13.7930
 2.3400	13.7550
 2.3410	13.7180
 2.3420	13.6810
 2.3430	13.6470
 2.3440	13.6080
 2.3450	13.5640
 2.3460	13.5210
 2.3470	13.4660
 2.3480	13.4270
 2.3490	13.3990
 2.3500	13.3700
 2.3510	13.3560
 2.3520	13.3320
 2.3530	13.3040
 2.3540	13.2700
 2.3550	13.2390
 2.3560	13.2110
 2.3570	13.1840
 2.3580	13.1610
 2.3590	13.1440
 2.3600	13.1140
 2.3610	13.0930
 2.3620	13.0780
 2.3630	13.0400
 2.3640	13.0160
 2.3650	12.9740
 2.3660	12.9240
 2.3670	12.9000
 2.3680	12.8410
 2.3690	12.7900
 2.3700	12.7650
 2.3710	12.7240
 2.3720	12.7080
 2.3730	12.6910
 2.3740	12.6480
 2.3750	12.6230
 2.3760	12.5840
 2.3770	12.5380
 2.3780	12.4940
 2.3790	12.4260
 2.3800	12.3730
 2.3810	12.3260
 2.3820	12.2740
 2.3830	12.2360
 2.3840	12.1830
 2.3850	12.1140
 2.3860	12.0640
 2.3870	12.0160
 2.3880	11.9690
 2.3890	11.9430
 2.3900	11.9110
 2.3910	11.8780
 2.3920	11.8370
 2.3930	11.7980
 2.3940	11.7830
 2.3950	11.7450
 2.3960	11.7000
 2.3970	11.6710
 2.3980	11.6130
 2.3990	11.5390
 2.4000	11.4850
 2.4010	11.4170
 2.4020	11.3360
 2.4030	11.2980
 2.4040	11.2620
 2.4050	11.2250
 2.4060	11.2040
 2.4070	11.1650
 2.4080	11.1170
 2.4090	11.0610
 2.4100	11.0070
 2.4110	10.9530
 2.4120	10.9130
 2.4130	10.8820
 2.4140	10.8330
 2.4150	10.8020
 2.4160	10.7750
 2.4170	10.7390
 2.4180	10.7060
 2.4190	10.6380
 2.4200	10.5910
 2.4210	10.5560
 2.4220	10.5070
 2.4230	10.4760
 2.4240	10.4180
 2.4250	10.3430
 2.4260	10.2940
 2.4270	10.2580
 2.4280	10.2020
 2.4290	10.1620
 2.4300	10.1130
 2.4310	10.0190
 2.4320	 9.9670
 2.4330	 9.9100
 2.4340	 9.8370
 2.4350	 9.8070
 2.4360	 9.7830
 2.4370	 9.7470
 2.4380	 9.7180
 2.4390	 9.7330
 2.4400	 9.7070
 2.4410	 9.6540
 2.4420	 9.6290
 2.4430	 9.5550
 2.4440	 9.5110
 2.4450	 9.4890
 2.4460	 9.4500
 2.4470	 9.4180
 2.4480	 9.3580
 2.4490	 9.2960
 2.4500	 9.2370
 2.4510	 9.1680
 2.4520	 9.1010
 2.4530	 9.0530
 2.4540	 9.0100
 2.4550	 8.9840
 2.4560	 8.9770
 2.4570	 8.9390
 2.4580	 8.9090
 2.4590	 8.8700
 2.4600	 8.8040
 2.4610	 8.7940
 2.4620	 8.7890
 2.4630	 8.7710
 2.4640	 8.7670
 2.4650	 8.7340
 2.4660	 8.6930
 2.4670	 8.6340
 2.4680	 8.5780
 2.4690	 8.5350
 2.4700	 8.5040
 2.4710	 8.5250
 2.4720	 8.5040
 2.4730	 8.4480
 2.4740	 8.4140
 2.4750	 8.3560
 2.4760	 8.3430
 2.4770	 8.3790
 2.4780	 8.3940
 2.4790	 8.4390
 2.4800	 8.4470
 2.4810	 8.4280
 2.4820	 8.3650
 2.4830	 8.3040
 2.4840	 8.2380
 2.4850	 8.1930
 2.4860	 8.1980
 2.4870	 8.2130
 2.4880	 8.2200
 2.4890	 8.1790
 2.4900	 8.1740
 2.4910	 8.1900
 2.4920	 8.1820
 2.4930	 8.2250
 2.4940	 8.1830
 2.4950	 8.0910
 2.4960	 8.0390
 2.4970	 7.9930
 2.4980	 8.0180
 2.4990	 8.0810
 2.5000	 8.0830
