Name: Macadamia integrifolia
Type: vegetation
Class: Tree
Genus: Macadamia
Species: integrifolia
Sample No.: JPL165
Owner: JPL
Wavelength Range: VSWIR
Origin: 34.12554; -118.11224; WGS84
Collection Date: 9/14/2016
Description: Samples were collected at the Huntington Garden in San Marino California as part of a JPL Subcontract studying HyTES imagery. Samples were taken to JPL and processed within 48 hours of collection. The same leaves were processed in the Nicolet and then measured using the ASD.
Measurement: Bidirectional reflectance
First Column: X
Second Column: Y
X Units: Wavelength (micrometer)
Y Units: Reflectance (percentage)
First X Value: 0.35
Last X Value: 2.5
Number of X Values: 2151
Additional Information: vegetation.tree.macadamia.integrifolia.vswir.jpl165.jpl.asd.ancillary.txt

 0.3500	11.7050
 0.3510	11.6910
 0.3520	11.6130
 0.3530	11.5580
 0.3540	11.5770
 0.3550	11.5990
 0.3560	11.5540
 0.3570	11.4810
 0.3580	11.4610
 0.3590	11.4390
 0.3600	11.4250
 0.3610	11.4190
 0.3620	11.3880
 0.3630	11.3620
 0.3640	11.3230
 0.3650	11.2680
 0.3660	11.2790
 0.3670	11.3330
 0.3680	11.3530
 0.3690	11.2520
 0.3700	11.2490
 0.3710	11.2910
 0.3720	11.3020
 0.3730	11.2450
 0.3740	11.2220
 0.3750	11.2230
 0.3760	11.2110
 0.3770	11.1980
 0.3780	11.1850
 0.3790	11.1870
 0.3800	11.2300
 0.3810	11.2410
 0.3820	11.2140
 0.3830	11.1740
 0.3840	11.1840
 0.3850	11.1870
 0.3860	11.1550
 0.3870	11.0940
 0.3880	11.1270
 0.3890	11.1810
 0.3900	11.1970
 0.3910	11.1550
 0.3920	11.1240
 0.3930	11.1220
 0.3940	11.1370
 0.3950	11.1230
 0.3960	11.1010
 0.3970	11.0840
 0.3980	11.0770
 0.3990	11.0870
 0.4000	11.0670
 0.4010	11.0160
 0.4020	11.0020
 0.4030	11.0100
 0.4040	11.0140
 0.4050	10.9960
 0.4060	10.9900
 0.4070	10.9970
 0.4080	11.0110
 0.4090	11.0200
 0.4100	11.0340
 0.4110	11.0400
 0.4120	11.0340
 0.4130	11.0370
 0.4140	11.0310
 0.4150	11.0180
 0.4160	11.0080
 0.4170	11.0340
 0.4180	11.0430
 0.4190	11.0250
 0.4200	11.0160
 0.4210	11.0000
 0.4220	11.0020
 0.4230	11.0270
 0.4240	11.0090
 0.4250	10.9940
 0.4260	10.9870
 0.4270	10.9780
 0.4280	10.9800
 0.4290	10.9790
 0.4300	10.9620
 0.4310	10.9210
 0.4320	10.8840
 0.4330	10.8460
 0.4340	10.8010
 0.4350	10.7740
 0.4360	10.7690
 0.4370	10.7870
 0.4380	10.8290
 0.4390	10.8740
 0.4400	10.9180
 0.4410	10.9570
 0.4420	10.9890
 0.4430	11.0040
 0.4440	11.0110
 0.4450	11.0230
 0.4460	11.0210
 0.4470	11.0310
 0.4480	11.0520
 0.4490	11.0470
 0.4500	11.0440
 0.4510	11.0530
 0.4520	11.0710
 0.4530	11.0720
 0.4540	11.0740
 0.4550	11.0850
 0.4560	11.0960
 0.4570	11.0930
 0.4580	11.0940
 0.4590	11.1090
 0.4600	11.1190
 0.4610	11.1220
 0.4620	11.1230
 0.4630	11.1270
 0.4640	11.1340
 0.4650	11.1420
 0.4660	11.1490
 0.4670	11.1520
 0.4680	11.1550
 0.4690	11.1590
 0.4700	11.1640
 0.4710	11.1770
 0.4720	11.1840
 0.4730	11.1860
 0.4740	11.1910
 0.4750	11.1890
 0.4760	11.1910
 0.4770	11.2000
 0.4780	11.2070
 0.4790	11.2060
 0.4800	11.2020
 0.4810	11.2000
 0.4820	11.1920
 0.4830	11.1760
 0.4840	11.1550
 0.4850	11.1400
 0.4860	11.1310
 0.4870	11.1250
 0.4880	11.1200
 0.4890	11.1330
 0.4900	11.1570
 0.4910	11.1860
 0.4920	11.2090
 0.4930	11.2430
 0.4940	11.2800
 0.4950	11.3160
 0.4960	11.3560
 0.4970	11.3990
 0.4980	11.4480
 0.4990	11.5050
 0.5000	11.5710
 0.5010	11.6360
 0.5020	11.7040
 0.5030	11.7850
 0.5040	11.8790
 0.5050	11.9840
 0.5060	12.0990
 0.5070	12.2160
 0.5080	12.3520
 0.5090	12.5090
 0.5100	12.6810
 0.5110	12.8670
 0.5120	13.0720
 0.5130	13.2950
 0.5140	13.5370
 0.5150	13.7930
 0.5160	14.0650
 0.5170	14.3550
 0.5180	14.6560
 0.5190	14.9670
 0.5200	15.2820
 0.5210	15.5940
 0.5220	15.9070
 0.5230	16.2170
 0.5240	16.5180
 0.5250	16.8010
 0.5260	17.0750
 0.5270	17.3360
 0.5280	17.5780
 0.5290	17.7960
 0.5300	17.9960
 0.5310	18.1790
 0.5320	18.3380
 0.5330	18.4830
 0.5340	18.6130
 0.5350	18.7270
 0.5360	18.8140
 0.5370	18.8840
 0.5380	18.9340
 0.5390	18.9550
 0.5400	18.9380
 0.5410	18.8840
 0.5420	18.8120
 0.5430	18.7750
 0.5440	18.7890
 0.5450	18.8580
 0.5460	18.9710
 0.5470	19.1060
 0.5480	19.2310
 0.5490	19.3230
 0.5500	19.3730
 0.5510	19.4090
 0.5520	19.4350
 0.5530	19.4500
 0.5540	19.4510
 0.5550	19.4270
 0.5560	19.3790
 0.5570	19.3090
 0.5580	19.2180
 0.5590	19.1110
 0.5600	18.9940
 0.5610	18.8670
 0.5620	18.7320
 0.5630	18.5890
 0.5640	18.4340
 0.5650	18.2760
 0.5660	18.1070
 0.5670	17.9280
 0.5680	17.7450
 0.5690	17.5570
 0.5700	17.3660
 0.5710	17.1750
 0.5720	16.9930
 0.5730	16.8270
 0.5740	16.6720
 0.5750	16.5200
 0.5760	16.3650
 0.5770	16.2130
 0.5780	16.0700
 0.5790	15.9390
 0.5800	15.8230
 0.5810	15.7170
 0.5820	15.6140
 0.5830	15.5100
 0.5840	15.4120
 0.5850	15.3240
 0.5860	15.2450
 0.5870	15.1700
 0.5880	15.1070
 0.5890	15.0580
 0.5900	15.0100
 0.5910	14.9540
 0.5920	14.8970
 0.5930	14.8500
 0.5940	14.8260
 0.5950	14.8130
 0.5960	14.8000
 0.5970	14.7780
 0.5980	14.7440
 0.5990	14.7070
 0.6000	14.6770
 0.6010	14.6470
 0.6020	14.6150
 0.6030	14.5780
 0.6040	14.5310
 0.6050	14.4750
 0.6060	14.4110
 0.6070	14.3380
 0.6080	14.2650
 0.6090	14.1470
 0.6100	13.9660
 0.6110	13.7460
 0.6120	13.6720
 0.6130	13.6840
 0.6140	13.7060
 0.6150	13.6770
 0.6160	13.6380
 0.6170	13.5940
 0.6180	13.5400
 0.6190	13.4830
 0.6200	13.4260
 0.6210	13.3790
 0.6220	13.3490
 0.6230	13.3270
 0.6240	13.3080
 0.6250	13.2920
 0.6260	13.2840
 0.6270	13.2790
 0.6280	13.2710
 0.6290	13.2570
 0.6300	13.2420
 0.6310	13.2290
 0.6320	13.2200
 0.6330	13.2150
 0.6340	13.1920
 0.6350	13.1530
 0.6360	13.1040
 0.6370	13.0440
 0.6380	12.9740
 0.6390	12.8980
 0.6400	12.8150
 0.6410	12.7300
 0.6420	12.6490
 0.6430	12.5720
 0.6440	12.4930
 0.6450	12.4130
 0.6460	12.3380
 0.6470	12.2730
 0.6480	12.2180
 0.6490	12.1690
 0.6500	12.1270
 0.6510	12.0990
 0.6520	12.0830
 0.6530	12.0730
 0.6540	12.0610
 0.6550	12.0510
 0.6560	12.0400
 0.6570	12.0290
 0.6580	12.0190
 0.6590	12.0090
 0.6600	11.9990
 0.6610	11.9880
 0.6620	11.9760
 0.6630	11.9700
 0.6640	11.9680
 0.6650	11.9690
 0.6660	11.9730
 0.6670	11.9840
 0.6680	12.0020
 0.6690	12.0220
 0.6700	12.0490
 0.6710	12.0810
 0.6720	12.1160
 0.6730	12.1630
 0.6740	12.2130
 0.6750	12.2670
 0.6760	12.3290
 0.6770	12.3970
 0.6780	12.4700
 0.6790	12.5480
 0.6800	12.6350
 0.6810	12.7270
 0.6820	12.8220
 0.6830	12.9200
 0.6840	13.0260
 0.6850	13.1370
 0.6860	13.2590
 0.6870	13.3990
 0.6880	13.5780
 0.6890	13.8060
 0.6900	14.0990
 0.6910	14.4780
 0.6920	14.9530
 0.6930	15.5280
 0.6940	16.2100
 0.6950	17.0100
 0.6960	17.9090
 0.6970	18.8920
 0.6980	19.9460
 0.6990	21.0680
 0.7000	22.2390
 0.7010	23.4440
 0.7020	24.6690
 0.7030	25.9020
 0.7040	27.1290
 0.7050	28.3450
 0.7060	29.5470
 0.7070	30.7360
 0.7080	31.9090
 0.7090	33.0670
 0.7100	34.2160
 0.7110	35.3500
 0.7120	36.4640
 0.7130	37.5630
 0.7140	38.6540
 0.7150	39.7300
 0.7160	40.7840
 0.7170	41.8220
 0.7180	42.8400
 0.7190	43.8360
 0.7200	44.8120
 0.7210	45.7630
 0.7220	46.6890
 0.7230	47.5880
 0.7240	48.4580
 0.7250	49.2950
 0.7260	50.0990
 0.7270	50.8730
 0.7280	51.6150
 0.7290	52.3240
 0.7300	53.0000
 0.7310	53.6420
 0.7320	54.2500
 0.7330	54.8250
 0.7340	55.3660
 0.7350	55.8720
 0.7360	56.3490
 0.7370	56.7970
 0.7380	57.2140
 0.7390	57.6010
 0.7400	57.9590
 0.7410	58.2890
 0.7420	58.5930
 0.7430	58.8660
 0.7440	59.1120
 0.7450	59.3350
 0.7460	59.5350
 0.7470	59.7110
 0.7480	59.8680
 0.7490	60.0080
 0.7500	60.1330
 0.7510	60.2390
 0.7520	60.3310
 0.7530	60.4140
 0.7540	60.4840
 0.7550	60.5450
 0.7560	60.5980
 0.7570	60.6460
 0.7580	60.6860
 0.7590	60.7210
 0.7600	60.7510
 0.7610	60.7760
 0.7620	60.7980
 0.7630	60.8150
 0.7640	60.8240
 0.7650	60.8290
 0.7660	60.8320
 0.7670	60.8330
 0.7680	60.8310
 0.7690	60.8250
 0.7700	60.8180
 0.7710	60.8130
 0.7720	60.8100
 0.7730	60.8040
 0.7740	60.7970
 0.7750	60.7920
 0.7760	60.7880
 0.7770	60.7850
 0.7780	60.7810
 0.7790	60.7770
 0.7800	60.7760
 0.7810	60.7780
 0.7820	60.7780
 0.7830	60.7770
 0.7840	60.7750
 0.7850	60.7720
 0.7860	60.7700
 0.7870	60.7740
 0.7880	60.7760
 0.7890	60.7730
 0.7900	60.7670
 0.7910	60.7660
 0.7920	60.7660
 0.7930	60.7650
 0.7940	60.7600
 0.7950	60.7580
 0.7960	60.7550
 0.7970	60.7520
 0.7980	60.7470
 0.7990	60.7420
 0.8000	60.7360
 0.8010	60.7330
 0.8020	60.7260
 0.8030	60.7200
 0.8040	60.7150
 0.8050	60.7060
 0.8060	60.7000
 0.8070	60.6930
 0.8080	60.6840
 0.8090	60.6730
 0.8100	60.6650
 0.8110	60.6560
 0.8120	60.6450
 0.8130	60.6380
 0.8140	60.6280
 0.8150	60.6180
 0.8160	60.6090
 0.8170	60.5980
 0.8180	60.5880
 0.8190	60.5790
 0.8200	60.5680
 0.8210	60.5590
 0.8220	60.5480
 0.8230	60.5330
 0.8240	60.5180
 0.8250	60.5100
 0.8260	60.5020
 0.8270	60.4900
 0.8280	60.4750
 0.8290	60.4630
 0.8300	60.4500
 0.8310	60.4350
 0.8320	60.4260
 0.8330	60.4160
 0.8340	60.4040
 0.8350	60.3930
 0.8360	60.3840
 0.8370	60.3790
 0.8380	60.3730
 0.8390	60.3610
 0.8400	60.3510
 0.8410	60.3470
 0.8420	60.3460
 0.8430	60.3400
 0.8440	60.3330
 0.8450	60.3290
 0.8460	60.3270
 0.8470	60.3270
 0.8480	60.3240
 0.8490	60.3180
 0.8500	60.3120
 0.8510	60.3080
 0.8520	60.3050
 0.8530	60.3050
 0.8540	60.3110
 0.8550	60.3080
 0.8560	60.3070
 0.8570	60.3110
 0.8580	60.3140
 0.8590	60.3140
 0.8600	60.3140
 0.8610	60.3160
 0.8620	60.3150
 0.8630	60.3180
 0.8640	60.3240
 0.8650	60.3280
 0.8660	60.3350
 0.8670	60.3420
 0.8680	60.3480
 0.8690	60.3520
 0.8700	60.3590
 0.8710	60.3640
 0.8720	60.3670
 0.8730	60.3770
 0.8740	60.3870
 0.8750	60.3970
 0.8760	60.4050
 0.8770	60.4070
 0.8780	60.4130
 0.8790	60.4220
 0.8800	60.4320
 0.8810	60.4380
 0.8820	60.4430
 0.8830	60.4510
 0.8840	60.4610
 0.8850	60.4700
 0.8860	60.4780
 0.8870	60.4850
 0.8880	60.4940
 0.8890	60.5020
 0.8900	60.5070
 0.8910	60.5100
 0.8920	60.5120
 0.8930	60.5240
 0.8940	60.5330
 0.8950	60.5370
 0.8960	60.5450
 0.8970	60.5470
 0.8980	60.5560
 0.8990	60.5680
 0.9000	60.5660
 0.9010	60.5690
 0.9020	60.5750
 0.9030	60.5830
 0.9040	60.5910
 0.9050	60.5980
 0.9060	60.6040
 0.9070	60.6100
 0.9080	60.6070
 0.9090	60.6060
 0.9100	60.6120
 0.9110	60.6200
 0.9120	60.6200
 0.9130	60.6200
 0.9140	60.6200
 0.9150	60.6200
 0.9160	60.6120
 0.9170	60.6080
 0.9180	60.6070
 0.9190	60.6050
 0.9200	60.6070
 0.9210	60.6040
 0.9220	60.5970
 0.9230	60.5900
 0.9240	60.5820
 0.9250	60.5760
 0.9260	60.5710
 0.9270	60.5610
 0.9280	60.5410
 0.9290	60.5280
 0.9300	60.5180
 0.9310	60.4920
 0.9320	60.4830
 0.9330	60.4700
 0.9340	60.4480
 0.9350	60.4370
 0.9360	60.4180
 0.9370	60.3940
 0.9380	60.3680
 0.9390	60.3460
 0.9400	60.3180
 0.9410	60.2930
 0.9420	60.2730
 0.9430	60.2400
 0.9440	60.2030
 0.9450	60.1670
 0.9460	60.1320
 0.9470	60.0940
 0.9480	60.0470
 0.9490	59.9990
 0.9500	59.9540
 0.9510	59.8990
 0.9520	59.8410
 0.9530	59.7830
 0.9540	59.7240
 0.9550	59.6590
 0.9560	59.6020
 0.9570	59.5550
 0.9580	59.5090
 0.9590	59.4510
 0.9600	59.3960
 0.9610	59.3530
 0.9620	59.3210
 0.9630	59.2990
 0.9640	59.2600
 0.9650	59.2130
 0.9660	59.1820
 0.9670	59.1700
 0.9680	59.1530
 0.9690	59.1210
 0.9700	59.0810
 0.9710	59.0710
 0.9720	59.0600
 0.9730	59.0450
 0.9740	59.0320
 0.9750	59.0210
 0.9760	59.0080
 0.9770	58.9990
 0.9780	58.9940
 0.9790	58.9730
 0.9800	58.9720
 0.9810	58.9800
 0.9820	58.9710
 0.9830	58.9590
 0.9840	58.9600
 0.9850	58.9780
 0.9860	59.0000
 0.9870	58.9830
 0.9880	58.9870
 0.9890	59.0180
 0.9900	59.0450
 0.9910	59.0260
 0.9920	59.0340
 0.9930	59.0610
 0.9940	59.0720
 0.9950	59.0960
 0.9960	59.1170
 0.9970	59.1250
 0.9980	59.1200
 0.9990	59.1330
 1.0000	59.1520
 1.0010	60.4310
 1.0020	60.4530
 1.0030	60.4740
 1.0040	60.4950
 1.0050	60.5080
 1.0060	60.5220
 1.0070	60.5420
 1.0080	60.5630
 1.0090	60.5910
 1.0100	60.6130
 1.0110	60.6340
 1.0120	60.6530
 1.0130	60.6690
 1.0140	60.6870
 1.0150	60.7010
 1.0160	60.7250
 1.0170	60.7480
 1.0180	60.7660
 1.0190	60.7910
 1.0200	60.8120
 1.0210	60.8300
 1.0220	60.8540
 1.0230	60.8750
 1.0240	60.8950
 1.0250	60.9140
 1.0260	60.9330
 1.0270	60.9510
 1.0280	60.9650
 1.0290	60.9820
 1.0300	61.0000
 1.0310	61.0190
 1.0320	61.0360
 1.0330	61.0590
 1.0340	61.0820
 1.0350	61.0970
 1.0360	61.1140
 1.0370	61.1300
 1.0380	61.1470
 1.0390	61.1640
 1.0400	61.1800
 1.0410	61.1980
 1.0420	61.2140
 1.0430	61.2290
 1.0440	61.2430
 1.0450	61.2560
 1.0460	61.2690
 1.0470	61.2810
 1.0480	61.2920
 1.0490	61.3020
 1.0500	61.3120
 1.0510	61.3210
 1.0520	61.3300
 1.0530	61.3400
 1.0540	61.3520
 1.0550	61.3620
 1.0560	61.3730
 1.0570	61.3810
 1.0580	61.3850
 1.0590	61.3910
 1.0600	61.3960
 1.0610	61.4000
 1.0620	61.4040
 1.0630	61.4100
 1.0640	61.4180
 1.0650	61.4230
 1.0660	61.4300
 1.0670	61.4340
 1.0680	61.4360
 1.0690	61.4320
 1.0700	61.4330
 1.0710	61.4350
 1.0720	61.4330
 1.0730	61.4290
 1.0740	61.4300
 1.0750	61.4320
 1.0760	61.4330
 1.0770	61.4390
 1.0780	61.4390
 1.0790	61.4330
 1.0800	61.4310
 1.0810	61.4290
 1.0820	61.4280
 1.0830	61.4290
 1.0840	61.4270
 1.0850	61.4250
 1.0860	61.4220
 1.0870	61.4170
 1.0880	61.4090
 1.0890	61.4070
 1.0900	61.4080
 1.0910	61.4040
 1.0920	61.4010
 1.0930	61.3970
 1.0940	61.3870
 1.0950	61.3800
 1.0960	61.3760
 1.0970	61.3700
 1.0980	61.3600
 1.0990	61.3530
 1.1000	61.3460
 1.1010	61.3380
 1.1020	61.3300
 1.1030	61.3200
 1.1040	61.3070
 1.1050	61.2960
 1.1060	61.2850
 1.1070	61.2730
 1.1080	61.2640
 1.1090	61.2580
 1.1100	61.2460
 1.1110	61.2330
 1.1120	61.2200
 1.1130	61.2040
 1.1140	61.1880
 1.1150	61.1740
 1.1160	61.1570
 1.1170	61.1370
 1.1180	61.1160
 1.1190	61.0960
 1.1200	61.0730
 1.1210	61.0450
 1.1220	61.0160
 1.1230	60.9830
 1.1240	60.9480
 1.1250	60.9060
 1.1260	60.8620
 1.1270	60.8120
 1.1280	60.7570
 1.1290	60.6950
 1.1300	60.6310
 1.1310	60.5590
 1.1320	60.4780
 1.1330	60.3920
 1.1340	60.3020
 1.1350	60.2050
 1.1360	60.1010
 1.1370	59.9920
 1.1380	59.8770
 1.1390	59.7590
 1.1400	59.6350
 1.1410	59.5070
 1.1420	59.3750
 1.1430	59.2390
 1.1440	59.1060
 1.1450	58.9720
 1.1460	58.8400
 1.1470	58.7070
 1.1480	58.5770
 1.1490	58.4450
 1.1500	58.3210
 1.1510	58.1990
 1.1520	58.0870
 1.1530	57.9830
 1.1540	57.8830
 1.1550	57.7890
 1.1560	57.7000
 1.1570	57.6170
 1.1580	57.5420
 1.1590	57.4750
 1.1600	57.4140
 1.1610	57.3570
 1.1620	57.3050
 1.1630	57.2560
 1.1640	57.2130
 1.1650	57.1730
 1.1660	57.1380
 1.1670	57.1050
 1.1680	57.0770
 1.1690	57.0470
 1.1700	57.0190
 1.1710	56.9920
 1.1720	56.9650
 1.1730	56.9400
 1.1740	56.9170
 1.1750	56.8960
 1.1760	56.8750
 1.1770	56.8540
 1.1780	56.8300
 1.1790	56.8050
 1.1800	56.7790
 1.1810	56.7530
 1.1820	56.7280
 1.1830	56.7050
 1.1840	56.6820
 1.1850	56.6570
 1.1860	56.6310
 1.1870	56.6070
 1.1880	56.5830
 1.1890	56.5560
 1.1900	56.5330
 1.1910	56.5140
 1.1920	56.4960
 1.1930	56.4790
 1.1940	56.4630
 1.1950	56.4500
 1.1960	56.4360
 1.1970	56.4260
 1.1980	56.4170
 1.1990	56.4100
 1.2000	56.4070
 1.2010	56.4050
 1.2020	56.4030
 1.2030	56.4050
 1.2040	56.4110
 1.2050	56.4170
 1.2060	56.4260
 1.2070	56.4370
 1.2080	56.4480
 1.2090	56.4610
 1.2100	56.4800
 1.2110	56.5000
 1.2120	56.5240
 1.2130	56.5460
 1.2140	56.5680
 1.2150	56.5930
 1.2160	56.6200
 1.2170	56.6500
 1.2180	56.6850
 1.2190	56.7230
 1.2200	56.7590
 1.2210	56.7950
 1.2220	56.8300
 1.2230	56.8650
 1.2240	56.9010
 1.2250	56.9370
 1.2260	56.9710
 1.2270	57.0030
 1.2280	57.0360
 1.2290	57.0700
 1.2300	57.1000
 1.2310	57.1290
 1.2320	57.1590
 1.2330	57.1860
 1.2340	57.2120
 1.2350	57.2400
 1.2360	57.2660
 1.2370	57.2890
 1.2380	57.3120
 1.2390	57.3370
 1.2400	57.3600
 1.2410	57.3820
 1.2420	57.4050
 1.2430	57.4250
 1.2440	57.4460
 1.2450	57.4680
 1.2460	57.4860
 1.2470	57.5040
 1.2480	57.5200
 1.2490	57.5350
 1.2500	57.5510
 1.2510	57.5670
 1.2520	57.5810
 1.2530	57.5960
 1.2540	57.6090
 1.2550	57.6170
 1.2560	57.6260
 1.2570	57.6360
 1.2580	57.6440
 1.2590	57.6500
 1.2600	57.6560
 1.2610	57.6620
 1.2620	57.6650
 1.2630	57.6690
 1.2640	57.6740
 1.2650	57.6780
 1.2660	57.6790
 1.2670	57.6790
 1.2680	57.6800
 1.2690	57.6810
 1.2700	57.6780
 1.2710	57.6720
 1.2720	57.6660
 1.2730	57.6590
 1.2740	57.6520
 1.2750	57.6460
 1.2760	57.6370
 1.2770	57.6260
 1.2780	57.6140
 1.2790	57.6010
 1.2800	57.5880
 1.2810	57.5760
 1.2820	57.5620
 1.2830	57.5440
 1.2840	57.5240
 1.2850	57.5030
 1.2860	57.4790
 1.2870	57.4500
 1.2880	57.4180
 1.2890	57.3850
 1.2900	57.3490
 1.2910	57.3110
 1.2920	57.2740
 1.2930	57.2350
 1.2940	57.1920
 1.2950	57.1480
 1.2960	57.1010
 1.2970	57.0510
 1.2980	57.0000
 1.2990	56.9440
 1.3000	56.8870
 1.3010	56.8280
 1.3020	56.7680
 1.3030	56.7070
 1.3040	56.6410
 1.3050	56.5750
 1.3060	56.5050
 1.3070	56.4300
 1.3080	56.3560
 1.3090	56.2780
 1.3100	56.1970
 1.3110	56.1160
 1.3120	56.0300
 1.3130	55.9420
 1.3140	55.8510
 1.3150	55.7560
 1.3160	55.6580
 1.3170	55.5590
 1.3180	55.4560
 1.3190	55.3490
 1.3200	55.2400
 1.3210	55.1280
 1.3220	55.0140
 1.3230	54.8990
 1.3240	54.7820
 1.3250	54.6600
 1.3260	54.5360
 1.3270	54.4100
 1.3280	54.2800
 1.3290	54.1480
 1.3300	54.0120
 1.3310	53.8740
 1.3320	53.7350
 1.3330	53.5930
 1.3340	53.4510
 1.3350	53.3080
 1.3360	53.1630
 1.3370	53.0190
 1.3380	52.8750
 1.3390	52.7310
 1.3400	52.5890
 1.3410	52.4470
 1.3420	52.3080
 1.3430	52.1690
 1.3440	52.0310
 1.3450	51.8930
 1.3460	51.7550
 1.3470	51.6210
 1.3480	51.4870
 1.3490	51.3570
 1.3500	51.2310
 1.3510	51.1040
 1.3520	50.9780
 1.3530	50.8510
 1.3540	50.7220
 1.3550	50.5940
 1.3560	50.4660
 1.3570	50.3370
 1.3580	50.2090
 1.3590	50.0780
 1.3600	49.9430
 1.3610	49.8040
 1.3620	49.6610
 1.3630	49.5120
 1.3640	49.3570
 1.3650	49.1970
 1.3660	49.0290
 1.3670	48.8520
 1.3680	48.6660
 1.3690	48.4670
 1.3700	48.2510
 1.3710	48.0230
 1.3720	47.7780
 1.3730	47.5160
 1.3740	47.2390
 1.3750	46.9430
 1.3760	46.6220
 1.3770	46.2790
 1.3780	45.9080
 1.3790	45.5100
 1.3800	45.0870
 1.3810	44.6340
 1.3820	44.1590
 1.3830	43.6600
 1.3840	43.1340
 1.3850	42.5820
 1.3860	42.0110
 1.3870	41.4120
 1.3880	40.8050
 1.3890	40.1810
 1.3900	39.5440
 1.3910	38.9040
 1.3920	38.2540
 1.3930	37.5950
 1.3940	36.9370
 1.3950	36.2740
 1.3960	35.6170
 1.3970	34.9730
 1.3980	34.3380
 1.3990	33.7240
 1.4000	33.1260
 1.4010	32.5400
 1.4020	31.9780
 1.4030	31.4320
 1.4040	30.9070
 1.4050	30.4080
 1.4060	29.9300
 1.4070	29.4790
 1.4080	29.0500
 1.4090	28.6420
 1.4100	28.2590
 1.4110	27.8960
 1.4120	27.5540
 1.4130	27.2360
 1.4140	26.9370
 1.4150	26.6600
 1.4160	26.4010
 1.4170	26.1590
 1.4180	25.9340
 1.4190	25.7240
 1.4200	25.5280
 1.4210	25.3460
 1.4220	25.1760
 1.4230	25.0190
 1.4240	24.8730
 1.4250	24.7360
 1.4260	24.6100
 1.4270	24.4940
 1.4280	24.3880
 1.4290	24.2900
 1.4300	24.2020
 1.4310	24.1200
 1.4320	24.0460
 1.4330	23.9780
 1.4340	23.9160
 1.4350	23.8610
 1.4360	23.8110
 1.4370	23.7680
 1.4380	23.7300
 1.4390	23.6960
 1.4400	23.6680
 1.4410	23.6440
 1.4420	23.6250
 1.4430	23.6100
 1.4440	23.5960
 1.4450	23.5850
 1.4460	23.5770
 1.4470	23.5730
 1.4480	23.5710
 1.4490	23.5720
 1.4500	23.5760
 1.4510	23.5820
 1.4520	23.5890
 1.4530	23.5990
 1.4540	23.6120
 1.4550	23.6270
 1.4560	23.6430
 1.4570	23.6630
 1.4580	23.6880
 1.4590	23.7140
 1.4600	23.7460
 1.4610	23.7800
 1.4620	23.8190
 1.4630	23.8630
 1.4640	23.9120
 1.4650	23.9650
 1.4660	24.0240
 1.4670	24.0870
 1.4680	24.1570
 1.4690	24.2310
 1.4700	24.3100
 1.4710	24.3930
 1.4720	24.4770
 1.4730	24.5690
 1.4740	24.6650
 1.4750	24.7630
 1.4760	24.8680
 1.4770	24.9750
 1.4780	25.0830
 1.4790	25.1940
 1.4800	25.3070
 1.4810	25.4220
 1.4820	25.5400
 1.4830	25.6590
 1.4840	25.7820
 1.4850	25.9060
 1.4860	26.0310
 1.4870	26.1610
 1.4880	26.2890
 1.4890	26.4180
 1.4900	26.5480
 1.4910	26.6770
 1.4920	26.8090
 1.4930	26.9440
 1.4940	27.0780
 1.4950	27.2140
 1.4960	27.3500
 1.4970	27.4850
 1.4980	27.6210
 1.4990	27.7580
 1.5000	27.8950
 1.5010	28.0330
 1.5020	28.1720
 1.5030	28.3110
 1.5040	28.4510
 1.5050	28.5900
 1.5060	28.7290
 1.5070	28.8680
 1.5080	29.0060
 1.5090	29.1440
 1.5100	29.2810
 1.5110	29.4180
 1.5120	29.5560
 1.5130	29.6910
 1.5140	29.8270
 1.5150	29.9620
 1.5160	30.0970
 1.5170	30.2310
 1.5180	30.3660
 1.5190	30.4990
 1.5200	30.6310
 1.5210	30.7610
 1.5220	30.8920
 1.5230	31.0220
 1.5240	31.1500
 1.5250	31.2800
 1.5260	31.4070
 1.5270	31.5330
 1.5280	31.6590
 1.5290	31.7810
 1.5300	31.9030
 1.5310	32.0250
 1.5320	32.1470
 1.5330	32.2690
 1.5340	32.3900
 1.5350	32.5080
 1.5360	32.6230
 1.5370	32.7370
 1.5380	32.8510
 1.5390	32.9660
 1.5400	33.0800
 1.5410	33.1910
 1.5420	33.3020
 1.5430	33.4120
 1.5440	33.5230
 1.5450	33.6330
 1.5460	33.7420
 1.5470	33.8500
 1.5480	33.9560
 1.5490	34.0610
 1.5500	34.1650
 1.5510	34.2700
 1.5520	34.3750
 1.5530	34.4770
 1.5540	34.5780
 1.5550	34.6760
 1.5560	34.7710
 1.5570	34.8680
 1.5580	34.9650
 1.5590	35.0630
 1.5600	35.1590
 1.5610	35.2550
 1.5620	35.3470
 1.5630	35.4380
 1.5640	35.5310
 1.5650	35.6220
 1.5660	35.7130
 1.5670	35.8020
 1.5680	35.8890
 1.5690	35.9750
 1.5700	36.0610
 1.5710	36.1490
 1.5720	36.2340
 1.5730	36.3200
 1.5740	36.4040
 1.5750	36.4880
 1.5760	36.5730
 1.5770	36.6540
 1.5780	36.7360
 1.5790	36.8180
 1.5800	36.8990
 1.5810	36.9810
 1.5820	37.0620
 1.5830	37.1420
 1.5840	37.2230
 1.5850	37.3030
 1.5860	37.3840
 1.5870	37.4650
 1.5880	37.5430
 1.5890	37.6220
 1.5900	37.7000
 1.5910	37.7760
 1.5920	37.8530
 1.5930	37.9300
 1.5940	38.0090
 1.5950	38.0880
 1.5960	38.1650
 1.5970	38.2430
 1.5980	38.3180
 1.5990	38.3920
 1.6000	38.4680
 1.6010	38.5430
 1.6020	38.6160
 1.6030	38.6890
 1.6040	38.7600
 1.6050	38.8330
 1.6060	38.9050
 1.6070	38.9780
 1.6080	39.0500
 1.6090	39.1170
 1.6100	39.1830
 1.6110	39.2490
 1.6120	39.3140
 1.6130	39.3810
 1.6140	39.4470
 1.6150	39.5120
 1.6160	39.5780
 1.6170	39.6400
 1.6180	39.7010
 1.6190	39.7630
 1.6200	39.8230
 1.6210	39.8810
 1.6220	39.9400
 1.6230	39.9960
 1.6240	40.0510
 1.6250	40.1070
 1.6260	40.1590
 1.6270	40.2110
 1.6280	40.2600
 1.6290	40.3090
 1.6300	40.3570
 1.6310	40.4050
 1.6320	40.4520
 1.6330	40.4980
 1.6340	40.5420
 1.6350	40.5870
 1.6360	40.6310
 1.6370	40.6720
 1.6380	40.7120
 1.6390	40.7480
 1.6400	40.7800
 1.6410	40.8100
 1.6420	40.8370
 1.6430	40.8620
 1.6440	40.8860
 1.6450	40.9080
 1.6460	40.9260
 1.6470	40.9410
 1.6480	40.9560
 1.6490	40.9650
 1.6500	40.9740
 1.6510	40.9810
 1.6520	40.9830
 1.6530	40.9870
 1.6540	40.9890
 1.6550	40.9880
 1.6560	40.9850
 1.6570	40.9820
 1.6580	40.9770
 1.6590	40.9740
 1.6600	40.9710
 1.6610	40.9690
 1.6620	40.9670
 1.6630	40.9660
 1.6640	40.9640
 1.6650	40.9630
 1.6660	40.9610
 1.6670	40.9610
 1.6680	40.9590
 1.6690	40.9570
 1.6700	40.9570
 1.6710	40.9560
 1.6720	40.9550
 1.6730	40.9550
 1.6740	40.9560
 1.6750	40.9580
 1.6760	40.9570
 1.6770	40.9540
 1.6780	40.9480
 1.6790	40.9390
 1.6800	40.9290
 1.6810	40.9160
 1.6820	40.9000
 1.6830	40.8810
 1.6840	40.8580
 1.6850	40.8310
 1.6860	40.8020
 1.6870	40.7700
 1.6880	40.7370
 1.6890	40.7020
 1.6900	40.6660
 1.6910	40.6300
 1.6920	40.5910
 1.6930	40.5520
 1.6940	40.5120
 1.6950	40.4690
 1.6960	40.4290
 1.6970	40.3880
 1.6980	40.3480
 1.6990	40.3100
 1.7000	40.2680
 1.7010	40.2230
 1.7020	40.1760
 1.7030	40.1260
 1.7040	40.0760
 1.7050	40.0240
 1.7060	39.9720
 1.7070	39.9190
 1.7080	39.8660
 1.7090	39.8130
 1.7100	39.7580
 1.7110	39.7000
 1.7120	39.6440
 1.7130	39.5870
 1.7140	39.5300
 1.7150	39.4720
 1.7160	39.4110
 1.7170	39.3500
 1.7180	39.2880
 1.7190	39.2260
 1.7200	39.1660
 1.7210	39.1050
 1.7220	39.0440
 1.7230	38.9850
 1.7240	38.9240
 1.7250	38.8640
 1.7260	38.8070
 1.7270	38.7490
 1.7280	38.6990
 1.7290	38.6520
 1.7300	38.6110
 1.7310	38.5700
 1.7320	38.5300
 1.7330	38.4910
 1.7340	38.4550
 1.7350	38.4200
 1.7360	38.3880
 1.7370	38.3510
 1.7380	38.3140
 1.7390	38.2730
 1.7400	38.2270
 1.7410	38.1790
 1.7420	38.1280
 1.7430	38.0750
 1.7440	38.0190
 1.7450	37.9620
 1.7460	37.9030
 1.7470	37.8450
 1.7480	37.7870
 1.7490	37.7260
 1.7500	37.6640
 1.7510	37.6000
 1.7520	37.5330
 1.7530	37.4680
 1.7540	37.4020
 1.7550	37.3400
 1.7560	37.2790
 1.7570	37.2180
 1.7580	37.1590
 1.7590	37.1020
 1.7600	37.0440
 1.7610	36.9870
 1.7620	36.9340
 1.7630	36.8820
 1.7640	36.8340
 1.7650	36.7910
 1.7660	36.7470
 1.7670	36.7050
 1.7680	36.6650
 1.7690	36.6270
 1.7700	36.5900
 1.7710	36.5540
 1.7720	36.5190
 1.7730	36.4830
 1.7740	36.4510
 1.7750	36.4200
 1.7760	36.3910
 1.7770	36.3640
 1.7780	36.3370
 1.7790	36.3100
 1.7800	36.2870
 1.7810	36.2660
 1.7820	36.2460
 1.7830	36.2300
 1.7840	36.2150
 1.7850	36.2000
 1.7860	36.1910
 1.7870	36.1880
 1.7880	36.1860
 1.7890	36.1830
 1.7900	36.1810
 1.7910	36.1820
 1.7920	36.1850
 1.7930	36.1910
 1.7940	36.1990
 1.7950	36.2080
 1.7960	36.2220
 1.7970	36.2330
 1.7980	36.2440
 1.7990	36.2560
 1.8000	36.2660
 1.8010	36.2790
 1.8020	36.2950
 1.8030	36.3110
 1.8040	36.3290
 1.8050	36.3460
 1.8060	36.3620
 1.8070	36.3780
 1.8080	36.3910
 1.8090	36.4060
 1.8100	36.4200
 1.8110	36.4360
 1.8120	36.4500
 1.8130	36.4630
 1.8140	36.4750
 1.8150	36.4850
 1.8160	36.4930
 1.8170	36.5020
 1.8180	36.5100
 1.8190	36.5220
 1.8200	36.5290
 1.8210	36.5340
 1.8220	36.5390
 1.8230	36.5400
 1.8240	36.5420
 1.8250	36.5450
 1.8260	36.5470
 1.8270	36.5510
 1.8280	36.5490
 1.8290	36.5430
 1.8300	36.5370
 1.8310	36.3670
 1.8320	36.3550
 1.8330	36.3350
 1.8340	36.3140
 1.8350	36.2910
 1.8360	36.2610
 1.8370	36.2270
 1.8380	36.1920
 1.8390	36.1500
 1.8400	36.1040
 1.8410	36.0510
 1.8420	35.9950
 1.8430	35.9260
 1.8440	35.8460
 1.8450	35.7630
 1.8460	35.6720
 1.8470	35.5710
 1.8480	35.4600
 1.8490	35.3420
 1.8500	35.2120
 1.8510	35.0710
 1.8520	34.9190
 1.8530	34.7550
 1.8540	34.5780
 1.8550	34.3870
 1.8560	34.1830
 1.8570	33.9620
 1.8580	33.7210
 1.8590	33.4650
 1.8600	33.1890
 1.8610	32.9010
 1.8620	32.6010
 1.8630	32.2870
 1.8640	31.9560
 1.8650	31.6050
 1.8660	31.2300
 1.8670	30.8330
 1.8680	30.4220
 1.8690	29.9900
 1.8700	29.5370
 1.8710	29.0650
 1.8720	28.5840
 1.8730	28.0840
 1.8740	27.5710
 1.8750	27.0540
 1.8760	26.5240
 1.8770	25.9940
 1.8780	25.4590
 1.8790	24.9180
 1.8800	24.3880
 1.8810	23.8610
 1.8820	23.3340
 1.8830	22.8140
 1.8840	22.3080
 1.8850	21.8030
 1.8860	21.3110
 1.8870	20.8370
 1.8880	20.3740
 1.8890	19.9340
 1.8900	19.5160
 1.8910	19.1190
 1.8920	18.7390
 1.8930	18.3910
 1.8940	18.0650
 1.8950	17.7590
 1.8960	17.4790
 1.8970	17.2230
 1.8980	16.9880
 1.8990	16.7770
 1.9000	16.5820
 1.9010	16.4100
 1.9020	16.2500
 1.9030	16.1060
 1.9040	15.9770
 1.9050	15.8630
 1.9060	15.7600
 1.9070	15.6750
 1.9080	15.5990
 1.9090	15.5320
 1.9100	15.4730
 1.9110	15.4200
 1.9120	15.3730
 1.9130	15.3310
 1.9140	15.2970
 1.9150	15.2650
 1.9160	15.2400
 1.9170	15.2160
 1.9180	15.1940
 1.9190	15.1780
 1.9200	15.1610
 1.9210	15.1450
 1.9220	15.1320
 1.9230	15.1200
 1.9240	15.1130
 1.9250	15.1110
 1.9260	15.1110
 1.9270	15.1130
 1.9280	15.1170
 1.9290	15.1190
 1.9300	15.1220
 1.9310	15.1250
 1.9320	15.1300
 1.9330	15.1370
 1.9340	15.1470
 1.9350	15.1560
 1.9360	15.1670
 1.9370	15.1800
 1.9380	15.1940
 1.9390	15.2080
 1.9400	15.2250
 1.9410	15.2430
 1.9420	15.2570
 1.9430	15.2720
 1.9440	15.2900
 1.9450	15.3060
 1.9460	15.3250
 1.9470	15.3480
 1.9480	15.3710
 1.9490	15.3960
 1.9500	15.4210
 1.9510	15.4460
 1.9520	15.4730
 1.9530	15.5030
 1.9540	15.5360
 1.9550	15.5660
 1.9560	15.5980
 1.9570	15.6310
 1.9580	15.6640
 1.9590	15.6970
 1.9600	15.7340
 1.9610	15.7690
 1.9620	15.8040
 1.9630	15.8370
 1.9640	15.8720
 1.9650	15.9080
 1.9660	15.9480
 1.9670	15.9890
 1.9680	16.0320
 1.9690	16.0790
 1.9700	16.1230
 1.9710	16.1650
 1.9720	16.2090
 1.9730	16.2540
 1.9740	16.3000
 1.9750	16.3470
 1.9760	16.3940
 1.9770	16.4420
 1.9780	16.4890
 1.9790	16.5380
 1.9800	16.5890
 1.9810	16.6410
 1.9820	16.6930
 1.9830	16.7450
 1.9840	16.7990
 1.9850	16.8520
 1.9860	16.9040
 1.9870	16.9570
 1.9880	17.0110
 1.9890	17.0680
 1.9900	17.1290
 1.9910	17.1880
 1.9920	17.2470
 1.9930	17.3080
 1.9940	17.3690
 1.9950	17.4290
 1.9960	17.4890
 1.9970	17.5490
 1.9980	17.6110
 1.9990	17.6730
 2.0000	17.7350
 2.0010	17.8010
 2.0020	17.8640
 2.0030	17.9260
 2.0040	17.9890
 2.0050	18.0530
 2.0060	18.1160
 2.0070	18.1790
 2.0080	18.2400
 2.0090	18.3020
 2.0100	18.3650
 2.0110	18.4280
 2.0120	18.4910
 2.0130	18.5540
 2.0140	18.6190
 2.0150	18.6830
 2.0160	18.7460
 2.0170	18.8080
 2.0180	18.8690
 2.0190	18.9270
 2.0200	18.9850
 2.0210	19.0440
 2.0220	19.1010
 2.0230	19.1560
 2.0240	19.2120
 2.0250	19.2680
 2.0260	19.3240
 2.0270	19.3780
 2.0280	19.4350
 2.0290	19.4910
 2.0300	19.5480
 2.0310	19.6050
 2.0320	19.6640
 2.0330	19.7170
 2.0340	19.7670
 2.0350	19.8170
 2.0360	19.8640
 2.0370	19.9120
 2.0380	19.9620
 2.0390	20.0090
 2.0400	20.0550
 2.0410	20.0990
 2.0420	20.1400
 2.0430	20.1810
 2.0440	20.2240
 2.0450	20.2670
 2.0460	20.3100
 2.0470	20.3550
 2.0480	20.3990
 2.0490	20.4410
 2.0500	20.4850
 2.0510	20.5310
 2.0520	20.5730
 2.0530	20.6130
 2.0540	20.6530
 2.0550	20.6890
 2.0560	20.7280
 2.0570	20.7720
 2.0580	20.8120
 2.0590	20.8550
 2.0600	20.9010
 2.0610	20.9450
 2.0620	20.9900
 2.0630	21.0310
 2.0640	21.0690
 2.0650	21.1090
 2.0660	21.1480
 2.0670	21.1890
 2.0680	21.2330
 2.0690	21.2750
 2.0700	21.3180
 2.0710	21.3590
 2.0720	21.4000
 2.0730	21.4420
 2.0740	21.4840
 2.0750	21.5250
 2.0760	21.5640
 2.0770	21.6010
 2.0780	21.6400
 2.0790	21.6740
 2.0800	21.7130
 2.0810	21.7560
 2.0820	21.7970
 2.0830	21.8400
 2.0840	21.8800
 2.0850	21.9170
 2.0860	21.9560
 2.0870	21.9960
 2.0880	22.0370
 2.0890	22.0760
 2.0900	22.1160
 2.0910	22.1560
 2.0920	22.1930
 2.0930	22.2340
 2.0940	22.2800
 2.0950	22.3210
 2.0960	22.3620
 2.0970	22.4030
 2.0980	22.4410
 2.0990	22.4810
 2.1000	22.5230
 2.1010	22.5630
 2.1020	22.6050
 2.1030	22.6460
 2.1040	22.6840
 2.1050	22.7240
 2.1060	22.7660
 2.1070	22.8110
 2.1080	22.8530
 2.1090	22.8950
 2.1100	22.9370
 2.1110	22.9760
 2.1120	23.0180
 2.1130	23.0620
 2.1140	23.1050
 2.1150	23.1500
 2.1160	23.1920
 2.1170	23.2350
 2.1180	23.2760
 2.1190	23.3100
 2.1200	23.3480
 2.1210	23.3880
 2.1220	23.4270
 2.1230	23.4660
 2.1240	23.5080
 2.1250	23.5450
 2.1260	23.5780
 2.1270	23.6140
 2.1280	23.6480
 2.1290	23.6840
 2.1300	23.7210
 2.1310	23.7560
 2.1320	23.7900
 2.1330	23.8260
 2.1340	23.8660
 2.1350	23.9030
 2.1360	23.9420
 2.1370	23.9780
 2.1380	24.0080
 2.1390	24.0420
 2.1400	24.0760
 2.1410	24.1100
 2.1420	24.1450
 2.1430	24.1810
 2.1440	24.2170
 2.1450	24.2530
 2.1460	24.2870
 2.1470	24.3200
 2.1480	24.3540
 2.1490	24.3840
 2.1500	24.4200
 2.1510	24.4630
 2.1520	24.5000
 2.1530	24.5390
 2.1540	24.5750
 2.1550	24.6080
 2.1560	24.6420
 2.1570	24.6780
 2.1580	24.7130
 2.1590	24.7490
 2.1600	24.7810
 2.1610	24.8120
 2.1620	24.8440
 2.1630	24.8750
 2.1640	24.9030
 2.1650	24.9330
 2.1660	24.9650
 2.1670	24.9920
 2.1680	25.0150
 2.1690	25.0430
 2.1700	25.0690
 2.1710	25.0990
 2.1720	25.1370
 2.1730	25.1690
 2.1740	25.1980
 2.1750	25.2300
 2.1760	25.2640
 2.1770	25.2930
 2.1780	25.3210
 2.1790	25.3490
 2.1800	25.3690
 2.1810	25.3960
 2.1820	25.4260
 2.1830	25.4620
 2.1840	25.4930
 2.1850	25.5240
 2.1860	25.5530
 2.1870	25.5770
 2.1880	25.6050
 2.1890	25.6340
 2.1900	25.6650
 2.1910	25.6990
 2.1920	25.7290
 2.1930	25.7620
 2.1940	25.7900
 2.1950	25.8140
 2.1960	25.8380
 2.1970	25.8580
 2.1980	25.8830
 2.1990	25.9080
 2.2000	25.9350
 2.2010	25.9720
 2.2020	26.0010
 2.2030	26.0280
 2.2040	26.0540
 2.2050	26.0770
 2.2060	26.0980
 2.2070	26.1210
 2.2080	26.1450
 2.2090	26.1640
 2.2100	26.1790
 2.2110	26.1980
 2.2120	26.2150
 2.2130	26.2330
 2.2140	26.2550
 2.2150	26.2670
 2.2160	26.2700
 2.2170	26.2770
 2.2180	26.2810
 2.2190	26.2860
 2.2200	26.2950
 2.2210	26.3000
 2.2220	26.3000
 2.2230	26.3010
 2.2240	26.3030
 2.2250	26.3010
 2.2260	26.2980
 2.2270	26.2890
 2.2280	26.2720
 2.2290	26.2550
 2.2300	26.2380
 2.2310	26.2140
 2.2320	26.1850
 2.2330	26.1570
 2.2340	26.1270
 2.2350	26.0910
 2.2360	26.0570
 2.2370	26.0270
 2.2380	25.9900
 2.2390	25.9490
 2.2400	25.9050
 2.2410	25.8590
 2.2420	25.8060
 2.2430	25.7450
 2.2440	25.6860
 2.2450	25.6230
 2.2460	25.5620
 2.2470	25.5050
 2.2480	25.4430
 2.2490	25.3790
 2.2500	25.3130
 2.2510	25.2400
 2.2520	25.1720
 2.2530	25.1070
 2.2540	25.0400
 2.2550	24.9740
 2.2560	24.9060
 2.2570	24.8360
 2.2580	24.7640
 2.2590	24.6900
 2.2600	24.6180
 2.2610	24.5450
 2.2620	24.4740
 2.2630	24.4080
 2.2640	24.3430
 2.2650	24.2830
 2.2660	24.2260
 2.2670	24.1680
 2.2680	24.1130
 2.2690	24.0560
 2.2700	23.9990
 2.2710	23.9390
 2.2720	23.8710
 2.2730	23.8190
 2.2740	23.7720
 2.2750	23.7250
 2.2760	23.6910
 2.2770	23.6500
 2.2780	23.6030
 2.2790	23.5630
 2.2800	23.5280
 2.2810	23.4910
 2.2820	23.4520
 2.2830	23.4200
 2.2840	23.3940
 2.2850	23.3610
 2.2860	23.3250
 2.2870	23.2930
 2.2880	23.2590
 2.2890	23.2240
 2.2900	23.1980
 2.2910	23.1630
 2.2920	23.1180
 2.2930	23.0760
 2.2940	23.0300
 2.2950	22.9860
 2.2960	22.9460
 2.2970	22.9000
 2.2980	22.8530
 2.2990	22.8050
 2.3000	22.7520
 2.3010	22.6960
 2.3020	22.6510
 2.3030	22.6110
 2.3040	22.5740
 2.3050	22.5360
 2.3060	22.4830
 2.3070	22.4300
 2.3080	22.3910
 2.3090	22.3560
 2.3100	22.3360
 2.3110	22.3200
 2.3120	22.2960
 2.3130	22.2640
 2.3140	22.2450
 2.3150	22.2290
 2.3160	22.2120
 2.3170	22.2070
 2.3180	22.1910
 2.3190	22.1660
 2.3200	22.1500
 2.3210	22.1350
 2.3220	22.1190
 2.3230	22.1070
 2.3240	22.0880
 2.3250	22.0650
 2.3260	22.0390
 2.3270	22.0050
 2.3280	21.9740
 2.3290	21.9410
 2.3300	21.9090
 2.3310	21.8790
 2.3320	21.8470
 2.3330	21.8130
 2.3340	21.7770
 2.3350	21.7410
 2.3360	21.7010
 2.3370	21.6550
 2.3380	21.6140
 2.3390	21.5720
 2.3400	21.5290
 2.3410	21.4860
 2.3420	21.4450
 2.3430	21.4040
 2.3440	21.3630
 2.3450	21.3220
 2.3460	21.2880
 2.3470	21.2570
 2.3480	21.2230
 2.3490	21.1910
 2.3500	21.1650
 2.3510	21.1400
 2.3520	21.1160
 2.3530	21.1010
 2.3540	21.0820
 2.3550	21.0500
 2.3560	21.0270
 2.3570	21.0070
 2.3580	20.9850
 2.3590	20.9700
 2.3600	20.9490
 2.3610	20.9190
 2.3620	20.8970
 2.3630	20.8670
 2.3640	20.8210
 2.3650	20.7860
 2.3660	20.7460
 2.3670	20.7130
 2.3680	20.6960
 2.3690	20.6640
 2.3700	20.6350
 2.3710	20.5960
 2.3720	20.5460
 2.3730	20.5040
 2.3740	20.4640
 2.3750	20.4340
 2.3760	20.4160
 2.3770	20.4030
 2.3780	20.3740
 2.3790	20.3270
 2.3800	20.2910
 2.3810	20.2610
 2.3820	20.2300
 2.3830	20.2030
 2.3840	20.1660
 2.3850	20.1190
 2.3860	20.0800
 2.3870	20.0580
 2.3880	20.0410
 2.3890	20.0160
 2.3900	19.9880
 2.3910	19.9450
 2.3920	19.8930
 2.3930	19.8450
 2.3940	19.8080
 2.3950	19.7840
 2.3960	19.7550
 2.3970	19.7300
 2.3980	19.6950
 2.3990	19.6580
 2.4000	19.6290
 2.4010	19.5930
 2.4020	19.5600
 2.4030	19.5190
 2.4040	19.4770
 2.4050	19.4470
 2.4060	19.4150
 2.4070	19.3870
 2.4080	19.3600
 2.4090	19.3190
 2.4100	19.2710
 2.4110	19.2340
 2.4120	19.1900
 2.4130	19.1500
 2.4140	19.1280
 2.4150	19.0940
 2.4160	19.0670
 2.4170	19.0470
 2.4180	18.9990
 2.4190	18.9400
 2.4200	18.8870
 2.4210	18.8450
 2.4220	18.8140
 2.4230	18.8020
 2.4240	18.7820
 2.4250	18.7310
 2.4260	18.6860
 2.4270	18.6400
 2.4280	18.6000
 2.4290	18.5710
 2.4300	18.5360
 2.4310	18.4900
 2.4320	18.4450
 2.4330	18.4110
 2.4340	18.3700
 2.4350	18.3430
 2.4360	18.3150
 2.4370	18.2810
 2.4380	18.2530
 2.4390	18.2210
 2.4400	18.1820
 2.4410	18.1330
 2.4420	18.1050
 2.4430	18.0650
 2.4440	18.0270
 2.4450	18.0180
 2.4460	17.9790
 2.4470	17.9550
 2.4480	17.9460
 2.4490	17.9110
 2.4500	17.8780
 2.4510	17.8480
 2.4520	17.8170
 2.4530	17.8010
 2.4540	17.7830
 2.4550	17.7510
 2.4560	17.7060
 2.4570	17.6530
 2.4580	17.6150
 2.4590	17.6070
 2.4600	17.5870
 2.4610	17.5630
 2.4620	17.5490
 2.4630	17.5230
 2.4640	17.5210
 2.4650	17.5250
 2.4660	17.5030
 2.4670	17.4710
 2.4680	17.4340
 2.4690	17.3930
 2.4700	17.3600
 2.4710	17.3290
 2.4720	17.3080
 2.4730	17.2890
 2.4740	17.2840
 2.4750	17.3020
 2.4760	17.3010
 2.4770	17.3130
 2.4780	17.2980
 2.4790	17.2500
 2.4800	17.2170
 2.4810	17.1700
 2.4820	17.1460
 2.4830	17.1310
 2.4840	17.1130
 2.4850	17.1000
 2.4860	17.0660
 2.4870	17.0230
 2.4880	17.0320
 2.4890	17.0370
 2.4900	17.0500
 2.4910	17.1030
 2.4920	17.1030
 2.4930	17.0760
 2.4940	17.0850
 2.4950	17.0740
 2.4960	17.0800
 2.4970	17.1220
 2.4980	17.0900
 2.4990	17.0710
 2.5000	17.1000
