Name: Puya venusta
Type: vegetation
Class: Shrub
Genus: Puya
Species: venusta
Sample No.: JPL078
Owner: JPL
Wavelength Range: VSWIR
Origin: 34.12502; - 118.11037; WGS84
Collection Date: 2/2/2016
Description: Samples were collected at the Huntington Garden in San Marino California as part of a JPL Subcontract studying HyTES imagery. Samples were taken to JPL and processed within 48 hours of collection. The same leaves were processed in the Nicolet and then measured using the ASD.
Measurement: Bidirectional reflectance
First Column: X
Second Column: Y
X Units: Wavelength (micrometer)
Y Units: Reflectance (percentage)
First X Value: 0.35
Last X Value: 2.5
Number of X Values: 2151
Additional Information: 

 0.3500	11.6120
 0.3510	10.7840
 0.3520	10.1270
 0.3530	10.6890
 0.3540	12.3090
 0.3550	11.7510
 0.3560	11.0730
 0.3570	10.8180
 0.3580	10.6650
 0.3590	10.7040
 0.3600	10.8320
 0.3610	11.0030
 0.3620	11.2860
 0.3630	11.3780
 0.3640	11.2810
 0.3650	11.1530
 0.3660	11.4270
 0.3670	11.2810
 0.3680	10.8190
 0.3690	10.7800
 0.3700	10.9740
 0.3710	11.4790
 0.3720	12.0190
 0.3730	11.5210
 0.3740	11.3740
 0.3750	11.5510
 0.3760	11.6580
 0.3770	11.9090
 0.3780	12.1170
 0.3790	12.2440
 0.3800	12.3680
 0.3810	12.2730
 0.3820	11.8690
 0.3830	11.3460
 0.3840	11.4330
 0.3850	11.6180
 0.3860	11.9050
 0.3870	12.3230
 0.3880	11.9390
 0.3890	11.7330
 0.3900	11.9620
 0.3910	12.0290
 0.3920	11.9080
 0.3930	11.9670
 0.3940	12.3830
 0.3950	12.6740
 0.3960	12.7080
 0.3970	12.5070
 0.3980	12.2340
 0.3990	12.3760
 0.4000	12.6040
 0.4010	12.7070
 0.4020	12.7260
 0.4030	12.9710
 0.4040	13.2030
 0.4050	13.1650
 0.4060	12.9730
 0.4070	12.9300
 0.4080	13.0520
 0.4090	13.1700
 0.4100	13.3700
 0.4110	13.5270
 0.4120	13.5880
 0.4130	13.6480
 0.4140	13.8270
 0.4150	13.9400
 0.4160	13.8410
 0.4170	14.0680
 0.4180	14.3190
 0.4190	14.4140
 0.4200	14.3320
 0.4210	14.4610
 0.4220	14.7470
 0.4230	15.0500
 0.4240	15.2640
 0.4250	15.2780
 0.4260	15.2680
 0.4270	15.4890
 0.4280	15.6720
 0.4290	15.7790
 0.4300	15.8430
 0.4310	15.9570
 0.4320	16.0580
 0.4330	16.2360
 0.4340	16.5140
 0.4350	16.5300
 0.4360	16.5420
 0.4370	16.6280
 0.4380	16.7230
 0.4390	16.7840
 0.4400	16.8630
 0.4410	16.9690
 0.4420	16.9530
 0.4430	17.0080
 0.4440	17.1290
 0.4450	17.2400
 0.4460	17.3760
 0.4470	17.4360
 0.4480	17.4340
 0.4490	17.5160
 0.4500	17.5830
 0.4510	17.5990
 0.4520	17.5900
 0.4530	17.7480
 0.4540	17.8460
 0.4550	17.8470
 0.4560	17.8370
 0.4570	17.8070
 0.4580	17.8310
 0.4590	17.9160
 0.4600	17.9310
 0.4610	17.9780
 0.4620	18.0170
 0.4630	17.9900
 0.4640	17.9670
 0.4650	17.9720
 0.4660	18.0020
 0.4670	18.0240
 0.4680	17.9920
 0.4690	17.9800
 0.4700	18.0200
 0.4710	17.9340
 0.4720	18.0100
 0.4730	18.1460
 0.4740	18.0710
 0.4750	18.0430
 0.4760	18.0770
 0.4770	18.1320
 0.4780	18.1180
 0.4790	18.1480
 0.4800	18.1680
 0.4810	18.1210
 0.4820	18.1550
 0.4830	18.1670
 0.4840	18.1530
 0.4850	18.1900
 0.4860	18.2080
 0.4870	18.2190
 0.4880	18.2370
 0.4890	18.2260
 0.4900	18.2640
 0.4910	18.3170
 0.4920	18.3090
 0.4930	18.2870
 0.4940	18.3340
 0.4950	18.4300
 0.4960	18.4020
 0.4970	18.4230
 0.4980	18.4980
 0.4990	18.5790
 0.5000	18.6080
 0.5010	18.6450
 0.5020	18.7050
 0.5030	18.7580
 0.5040	18.7990
 0.5050	18.8720
 0.5060	18.9920
 0.5070	19.0970
 0.5080	19.2240
 0.5090	19.3390
 0.5100	19.3960
 0.5110	19.5160
 0.5120	19.6540
 0.5130	19.7870
 0.5140	19.9380
 0.5150	20.0840
 0.5160	20.2840
 0.5170	20.5520
 0.5180	20.6580
 0.5190	20.7710
 0.5200	20.9520
 0.5210	21.1630
 0.5220	21.3670
 0.5230	21.5530
 0.5240	21.7220
 0.5250	21.8880
 0.5260	22.0340
 0.5270	22.1680
 0.5280	22.3090
 0.5290	22.4780
 0.5300	22.6420
 0.5310	22.7750
 0.5320	22.8610
 0.5330	22.9530
 0.5340	23.0470
 0.5350	23.1270
 0.5360	23.1710
 0.5370	23.2320
 0.5380	23.3170
 0.5390	23.3980
 0.5400	23.4680
 0.5410	23.5600
 0.5420	23.6740
 0.5430	23.7360
 0.5440	23.7580
 0.5450	23.7660
 0.5460	23.7810
 0.5470	23.7260
 0.5480	23.6870
 0.5490	23.6940
 0.5500	23.6910
 0.5510	23.6940
 0.5520	23.6900
 0.5530	23.6690
 0.5540	23.6520
 0.5550	23.6160
 0.5560	23.5740
 0.5570	23.5640
 0.5580	23.5020
 0.5590	23.4270
 0.5600	23.3670
 0.5610	23.2970
 0.5620	23.2300
 0.5630	23.1440
 0.5640	23.0180
 0.5650	22.9270
 0.5660	22.8560
 0.5670	22.7830
 0.5680	22.6820
 0.5690	22.5780
 0.5700	22.4820
 0.5710	22.3940
 0.5720	22.2970
 0.5730	22.1760
 0.5740	22.0460
 0.5750	21.9380
 0.5760	21.8500
 0.5770	21.7660
 0.5780	21.6750
 0.5790	21.5930
 0.5800	21.5100
 0.5810	21.4360
 0.5820	21.3810
 0.5830	21.3460
 0.5840	21.3180
 0.5850	21.2860
 0.5860	21.2400
 0.5870	21.1920
 0.5880	21.1600
 0.5890	21.1420
 0.5900	21.0690
 0.5910	21.0250
 0.5920	21.0130
 0.5930	20.9850
 0.5940	20.9480
 0.5950	20.8970
 0.5960	20.8520
 0.5970	20.8700
 0.5980	20.8790
 0.5990	20.8700
 0.6000	20.8500
 0.6010	20.8030
 0.6020	20.7550
 0.6030	20.7130
 0.6040	20.6640
 0.6050	20.6250
 0.6060	20.5810
 0.6070	20.5210
 0.6080	20.4560
 0.6090	20.3840
 0.6100	20.3470
 0.6110	20.3770
 0.6120	20.3110
 0.6130	20.2070
 0.6140	20.1090
 0.6150	20.0240
 0.6160	19.9640
 0.6170	19.9120
 0.6180	19.8520
 0.6190	19.8090
 0.6200	19.7680
 0.6210	19.7160
 0.6220	19.6490
 0.6230	19.6160
 0.6240	19.5970
 0.6250	19.5760
 0.6260	19.5660
 0.6270	19.5500
 0.6280	19.5300
 0.6290	19.5160
 0.6300	19.5290
 0.6310	19.5270
 0.6320	19.5010
 0.6330	19.4840
 0.6340	19.4540
 0.6350	19.4190
 0.6360	19.3890
 0.6370	19.3470
 0.6380	19.3110
 0.6390	19.2730
 0.6400	19.2150
 0.6410	19.1840
 0.6420	19.1410
 0.6430	19.0730
 0.6440	19.0250
 0.6450	18.9570
 0.6460	18.8900
 0.6470	18.8470
 0.6480	18.7950
 0.6490	18.7450
 0.6500	18.7000
 0.6510	18.6590
 0.6520	18.6210
 0.6530	18.5950
 0.6540	18.5760
 0.6550	18.5340
 0.6560	18.4880
 0.6570	18.4430
 0.6580	18.3960
 0.6590	18.3380
 0.6600	18.2780
 0.6610	18.2200
 0.6620	18.1610
 0.6630	18.1050
 0.6640	18.0490
 0.6650	17.9940
 0.6660	17.9700
 0.6670	17.9210
 0.6680	17.8670
 0.6690	17.8590
 0.6700	17.8450
 0.6710	17.8270
 0.6720	17.8140
 0.6730	17.8160
 0.6740	17.8160
 0.6750	17.8340
 0.6760	17.8720
 0.6770	17.8480
 0.6780	17.8430
 0.6790	17.8790
 0.6800	17.9340
 0.6810	17.9980
 0.6820	18.0530
 0.6830	18.1010
 0.6840	18.1700
 0.6850	18.2500
 0.6860	18.3570
 0.6870	18.5020
 0.6880	18.6620
 0.6890	18.8250
 0.6900	19.0150
 0.6910	19.2740
 0.6920	19.5480
 0.6930	19.8710
 0.6940	20.2590
 0.6950	20.6670
 0.6960	21.0980
 0.6970	21.5730
 0.6980	22.1020
 0.6990	22.6260
 0.7000	23.1690
 0.7010	23.7490
 0.7020	24.3700
 0.7030	24.9730
 0.7040	25.5740
 0.7050	26.1910
 0.7060	26.8220
 0.7070	27.4650
 0.7080	28.1070
 0.7090	28.7410
 0.7100	29.3830
 0.7110	30.0330
 0.7120	30.6940
 0.7130	31.3790
 0.7140	32.0390
 0.7150	32.6800
 0.7160	33.3240
 0.7170	33.9930
 0.7180	34.6670
 0.7190	35.3380
 0.7200	35.9970
 0.7210	36.6280
 0.7220	37.2550
 0.7230	37.8840
 0.7240	38.5010
 0.7250	39.1030
 0.7260	39.6750
 0.7270	40.2110
 0.7280	40.7270
 0.7290	41.2300
 0.7300	41.7180
 0.7310	42.1800
 0.7320	42.5980
 0.7330	43.0050
 0.7340	43.4050
 0.7350	43.7720
 0.7360	44.0940
 0.7370	44.3940
 0.7380	44.6900
 0.7390	44.9910
 0.7400	45.2620
 0.7410	45.4970
 0.7420	45.7060
 0.7430	45.9140
 0.7440	46.1120
 0.7450	46.2900
 0.7460	46.4340
 0.7470	46.5620
 0.7480	46.6880
 0.7490	46.8150
 0.7500	46.9220
 0.7510	47.0180
 0.7520	47.1040
 0.7530	47.1790
 0.7540	47.2340
 0.7550	47.2880
 0.7560	47.3450
 0.7570	47.3880
 0.7580	47.4300
 0.7590	47.4830
 0.7600	47.5420
 0.7610	47.5700
 0.7620	47.5820
 0.7630	47.5970
 0.7640	47.6270
 0.7650	47.6480
 0.7660	47.6550
 0.7670	47.6650
 0.7680	47.7100
 0.7690	47.7190
 0.7700	47.7150
 0.7710	47.7200
 0.7720	47.7380
 0.7730	47.7430
 0.7740	47.7470
 0.7750	47.7600
 0.7760	47.7470
 0.7770	47.7660
 0.7780	47.7920
 0.7790	47.7750
 0.7800	47.7820
 0.7810	47.7970
 0.7820	47.8020
 0.7830	47.7910
 0.7840	47.7880
 0.7850	47.7970
 0.7860	47.8180
 0.7870	47.8450
 0.7880	47.8590
 0.7890	47.8470
 0.7900	47.8160
 0.7910	47.8430
 0.7920	47.8610
 0.7930	47.8630
 0.7940	47.8780
 0.7950	47.8650
 0.7960	47.8370
 0.7970	47.8210
 0.7980	47.8500
 0.7990	47.8770
 0.8000	47.8720
 0.8010	47.8380
 0.8020	47.8310
 0.8030	47.8350
 0.8040	47.8400
 0.8050	47.8370
 0.8060	47.8250
 0.8070	47.8000
 0.8080	47.7830
 0.8090	47.8020
 0.8100	47.8110
 0.8110	47.7930
 0.8120	47.7560
 0.8130	47.7380
 0.8140	47.7180
 0.8150	47.7070
 0.8160	47.7130
 0.8170	47.7090
 0.8180	47.7010
 0.8190	47.6850
 0.8200	47.6580
 0.8210	47.6520
 0.8220	47.6360
 0.8230	47.6030
 0.8240	47.5670
 0.8250	47.5330
 0.8260	47.5110
 0.8270	47.4920
 0.8280	47.4430
 0.8290	47.4100
 0.8300	47.3930
 0.8310	47.3790
 0.8320	47.3580
 0.8330	47.3300
 0.8340	47.2920
 0.8350	47.2490
 0.8360	47.2240
 0.8370	47.2120
 0.8380	47.2110
 0.8390	47.2210
 0.8400	47.2180
 0.8410	47.2080
 0.8420	47.1940
 0.8430	47.1730
 0.8440	47.1740
 0.8450	47.1740
 0.8460	47.1550
 0.8470	47.1500
 0.8480	47.1750
 0.8490	47.1910
 0.8500	47.1600
 0.8510	47.1580
 0.8520	47.1630
 0.8530	47.1630
 0.8540	47.1560
 0.8550	47.1590
 0.8560	47.1770
 0.8570	47.1920
 0.8580	47.1700
 0.8590	47.1640
 0.8600	47.1600
 0.8610	47.1490
 0.8620	47.1440
 0.8630	47.1390
 0.8640	47.1440
 0.8650	47.1650
 0.8660	47.2000
 0.8670	47.1850
 0.8680	47.1530
 0.8690	47.1530
 0.8700	47.1590
 0.8710	47.1610
 0.8720	47.1640
 0.8730	47.1800
 0.8740	47.1760
 0.8750	47.1750
 0.8760	47.1790
 0.8770	47.1740
 0.8780	47.1580
 0.8790	47.1370
 0.8800	47.1340
 0.8810	47.1940
 0.8820	47.1520
 0.8830	47.1150
 0.8840	47.1580
 0.8850	47.1560
 0.8860	47.1530
 0.8870	47.1500
 0.8880	47.1370
 0.8890	47.1100
 0.8900	47.1120
 0.8910	47.1260
 0.8920	47.1110
 0.8930	47.0850
 0.8940	47.0830
 0.8950	47.0880
 0.8960	47.0570
 0.8970	47.0540
 0.8980	47.0300
 0.8990	46.9980
 0.9000	47.0270
 0.9010	47.0050
 0.9020	46.9910
 0.9030	46.9980
 0.9040	46.9580
 0.9050	46.9460
 0.9060	46.9290
 0.9070	46.8910
 0.9080	46.8770
 0.9090	46.8710
 0.9100	46.8640
 0.9110	46.8500
 0.9120	46.8320
 0.9130	46.7820
 0.9140	46.7560
 0.9150	46.7860
 0.9160	46.7360
 0.9170	46.6930
 0.9180	46.6670
 0.9190	46.6320
 0.9200	46.5670
 0.9210	46.5140
 0.9220	46.4550
 0.9230	46.3540
 0.9240	46.2790
 0.9250	46.2070
 0.9260	46.1270
 0.9270	46.0440
 0.9280	45.9470
 0.9290	45.8630
 0.9300	45.7700
 0.9310	45.6190
 0.9320	45.5190
 0.9330	45.3970
 0.9340	45.2460
 0.9350	45.1530
 0.9360	45.0860
 0.9370	44.9620
 0.9380	44.7760
 0.9390	44.6450
 0.9400	44.4920
 0.9410	44.3360
 0.9420	44.1890
 0.9430	44.0240
 0.9440	43.8300
 0.9450	43.6180
 0.9460	43.4140
 0.9470	43.2590
 0.9480	43.0040
 0.9490	42.7800
 0.9500	42.6470
 0.9510	42.2980
 0.9520	41.9490
 0.9530	41.7150
 0.9540	41.5790
 0.9550	41.2300
 0.9560	40.9910
 0.9570	40.8400
 0.9580	40.6620
 0.9590	40.4640
 0.9600	40.2390
 0.9610	40.0530
 0.9620	39.9570
 0.9630	39.8520
 0.9640	39.7730
 0.9650	39.7130
 0.9660	39.6560
 0.9670	39.6010
 0.9680	39.5460
 0.9690	39.4800
 0.9700	39.4060
 0.9710	39.3980
 0.9720	39.4410
 0.9730	39.4380
 0.9740	39.3260
 0.9750	39.3560
 0.9760	39.3760
 0.9770	39.3770
 0.9780	39.4130
 0.9790	39.4110
 0.9800	39.4050
 0.9810	39.4210
 0.9820	39.4640
 0.9830	39.5000
 0.9840	39.5140
 0.9850	39.5280
 0.9860	39.5830
 0.9870	39.7220
 0.9880	39.7650
 0.9890	39.7390
 0.9900	39.7650
 0.9910	39.8190
 0.9920	39.8830
 0.9930	39.9710
 0.9940	40.0820
 0.9950	40.1120
 0.9960	40.1090
 0.9970	40.1630
 0.9980	40.3290
 0.9990	40.4490
 1.0000	40.5110
 1.0010	41.5750
 1.0020	41.6520
 1.0030	41.7370
 1.0040	41.8240
 1.0050	41.9210
 1.0060	42.0230
 1.0070	42.1210
 1.0080	42.2110
 1.0090	42.2850
 1.0100	42.3670
 1.0110	42.4550
 1.0120	42.5410
 1.0130	42.6290
 1.0140	42.7190
 1.0150	42.8050
 1.0160	42.8930
 1.0170	43.0100
 1.0180	43.1220
 1.0190	43.2250
 1.0200	43.3260
 1.0210	43.4110
 1.0220	43.4900
 1.0230	43.5810
 1.0240	43.6820
 1.0250	43.7790
 1.0260	43.8890
 1.0270	43.9820
 1.0280	44.0640
 1.0290	44.1470
 1.0300	44.2020
 1.0310	44.2880
 1.0320	44.4070
 1.0330	44.5080
 1.0340	44.5630
 1.0350	44.6370
 1.0360	44.7230
 1.0370	44.8150
 1.0380	44.8960
 1.0390	45.0220
 1.0400	45.1000
 1.0410	45.1220
 1.0420	45.1730
 1.0430	45.2400
 1.0440	45.2950
 1.0450	45.3190
 1.0460	45.3890
 1.0470	45.5030
 1.0480	45.5760
 1.0490	45.6600
 1.0500	45.7260
 1.0510	45.7530
 1.0520	45.7850
 1.0530	45.8180
 1.0540	45.8600
 1.0550	45.8890
 1.0560	45.8960
 1.0570	45.9310
 1.0580	45.9830
 1.0590	46.0170
 1.0600	46.0680
 1.0610	46.0920
 1.0620	46.0820
 1.0630	46.0890
 1.0640	46.0940
 1.0650	46.0980
 1.0660	46.1080
 1.0670	46.1150
 1.0680	46.1210
 1.0690	46.1250
 1.0700	46.1240
 1.0710	46.1190
 1.0720	46.1140
 1.0730	46.1110
 1.0740	46.0870
 1.0750	46.0490
 1.0760	46.0180
 1.0770	45.9620
 1.0780	45.9340
 1.0790	45.9330
 1.0800	45.9160
 1.0810	45.9100
 1.0820	45.8880
 1.0830	45.8510
 1.0840	45.8160
 1.0850	45.7770
 1.0860	45.7320
 1.0870	45.6920
 1.0880	45.6510
 1.0890	45.6160
 1.0900	45.5890
 1.0910	45.5470
 1.0920	45.5100
 1.0930	45.4550
 1.0940	45.3830
 1.0950	45.3200
 1.0960	45.2400
 1.0970	45.1870
 1.0980	45.1570
 1.0990	45.1110
 1.1000	45.0760
 1.1010	45.0340
 1.1020	44.9880
 1.1030	44.9230
 1.1040	44.8710
 1.1050	44.8190
 1.1060	44.7560
 1.1070	44.6860
 1.1080	44.6160
 1.1090	44.5340
 1.1100	44.4680
 1.1110	44.4120
 1.1120	44.3450
 1.1130	44.2830
 1.1140	44.2150
 1.1150	44.1480
 1.1160	44.0650
 1.1170	43.9820
 1.1180	43.8830
 1.1190	43.7690
 1.1200	43.6330
 1.1210	43.4990
 1.1220	43.3660
 1.1230	43.2360
 1.1240	43.0900
 1.1250	42.9120
 1.1260	42.7280
 1.1270	42.4960
 1.1280	42.2150
 1.1290	41.9430
 1.1300	41.6550
 1.1310	41.3450
 1.1320	41.0330
 1.1330	40.6820
 1.1340	40.2910
 1.1350	39.8990
 1.1360	39.4870
 1.1370	39.0600
 1.1380	38.6450
 1.1390	38.2140
 1.1400	37.7860
 1.1410	37.3550
 1.1420	36.9040
 1.1430	36.4620
 1.1440	36.0390
 1.1450	35.6070
 1.1460	35.2200
 1.1470	34.8590
 1.1480	34.5110
 1.1490	34.1830
 1.1500	33.8790
 1.1510	33.5920
 1.1520	33.3330
 1.1530	33.1000
 1.1540	32.8910
 1.1550	32.7050
 1.1560	32.5430
 1.1570	32.4120
 1.1580	32.2950
 1.1590	32.1910
 1.1600	32.0980
 1.1610	32.0100
 1.1620	31.9300
 1.1630	31.8520
 1.1640	31.7890
 1.1650	31.7370
 1.1660	31.6950
 1.1670	31.6540
 1.1680	31.6260
 1.1690	31.5980
 1.1700	31.5700
 1.1710	31.5440
 1.1720	31.5240
 1.1730	31.5030
 1.1740	31.4800
 1.1750	31.4630
 1.1760	31.4520
 1.1770	31.4360
 1.1780	31.4100
 1.1790	31.3830
 1.1800	31.3550
 1.1810	31.3190
 1.1820	31.2920
 1.1830	31.2690
 1.1840	31.2380
 1.1850	31.2200
 1.1860	31.2030
 1.1870	31.1650
 1.1880	31.1370
 1.1890	31.1030
 1.1900	31.0850
 1.1910	31.0780
 1.1920	31.0740
 1.1930	31.0910
 1.1940	31.0840
 1.1950	31.0640
 1.1960	31.0490
 1.1970	31.0370
 1.1980	31.0370
 1.1990	31.0570
 1.2000	31.0800
 1.2010	31.0960
 1.2020	31.1040
 1.2030	31.1030
 1.2040	31.1040
 1.2050	31.1100
 1.2060	31.1270
 1.2070	31.1550
 1.2080	31.1800
 1.2090	31.2030
 1.2100	31.2260
 1.2110	31.2520
 1.2120	31.2760
 1.2130	31.3060
 1.2140	31.3460
 1.2150	31.3820
 1.2160	31.4190
 1.2170	31.4570
 1.2180	31.4950
 1.2190	31.5230
 1.2200	31.5490
 1.2210	31.5820
 1.2220	31.6260
 1.2230	31.6770
 1.2240	31.7330
 1.2250	31.7930
 1.2260	31.8430
 1.2270	31.8840
 1.2280	31.9210
 1.2290	31.9570
 1.2300	31.9910
 1.2310	32.0260
 1.2320	32.0600
 1.2330	32.0950
 1.2340	32.1360
 1.2350	32.1850
 1.2360	32.2270
 1.2370	32.2700
 1.2380	32.3090
 1.2390	32.3510
 1.2400	32.3840
 1.2410	32.4150
 1.2420	32.4540
 1.2430	32.4860
 1.2440	32.5100
 1.2450	32.5490
 1.2460	32.5900
 1.2470	32.6200
 1.2480	32.6540
 1.2490	32.6900
 1.2500	32.7210
 1.2510	32.7510
 1.2520	32.7750
 1.2530	32.7900
 1.2540	32.8080
 1.2550	32.8210
 1.2560	32.8360
 1.2570	32.8670
 1.2580	32.8860
 1.2590	32.9020
 1.2600	32.9260
 1.2610	32.9340
 1.2620	32.9270
 1.2630	32.9180
 1.2640	32.9110
 1.2650	32.9060
 1.2660	32.9090
 1.2670	32.9090
 1.2680	32.9090
 1.2690	32.9060
 1.2700	32.8910
 1.2710	32.8720
 1.2720	32.8550
 1.2730	32.8310
 1.2740	32.7990
 1.2750	32.7790
 1.2760	32.7520
 1.2770	32.7110
 1.2780	32.6720
 1.2790	32.6240
 1.2800	32.5660
 1.2810	32.5050
 1.2820	32.4440
 1.2830	32.3790
 1.2840	32.3150
 1.2850	32.2450
 1.2860	32.1700
 1.2870	32.0920
 1.2880	32.0120
 1.2890	31.9160
 1.2900	31.8250
 1.2910	31.7350
 1.2920	31.6420
 1.2930	31.5460
 1.2940	31.4420
 1.2950	31.3310
 1.2960	31.2130
 1.2970	31.0850
 1.2980	30.9540
 1.2990	30.8260
 1.3000	30.6910
 1.3010	30.5570
 1.3020	30.4230
 1.3030	30.2700
 1.3040	30.1120
 1.3050	29.9540
 1.3060	29.7930
 1.3070	29.6310
 1.3080	29.4630
 1.3090	29.2810
 1.3100	29.0960
 1.3110	28.9150
 1.3120	28.7310
 1.3130	28.5470
 1.3140	28.3610
 1.3150	28.1750
 1.3160	27.9810
 1.3170	27.7850
 1.3180	27.5850
 1.3190	27.3810
 1.3200	27.1670
 1.3210	26.9550
 1.3220	26.7480
 1.3230	26.5360
 1.3240	26.3310
 1.3250	26.1250
 1.3260	25.9160
 1.3270	25.7120
 1.3280	25.5040
 1.3290	25.2960
 1.3300	25.0900
 1.3310	24.8820
 1.3320	24.6750
 1.3330	24.4780
 1.3340	24.2850
 1.3350	24.0950
 1.3360	23.9080
 1.3370	23.7170
 1.3380	23.5320
 1.3390	23.3560
 1.3400	23.1820
 1.3410	23.0150
 1.3420	22.8510
 1.3430	22.6870
 1.3440	22.5380
 1.3450	22.3910
 1.3460	22.2520
 1.3470	22.1100
 1.3480	21.9680
 1.3490	21.8290
 1.3500	21.6900
 1.3510	21.5600
 1.3520	21.4350
 1.3530	21.3090
 1.3540	21.1810
 1.3550	21.0570
 1.3560	20.9320
 1.3570	20.8090
 1.3580	20.6930
 1.3590	20.5720
 1.3600	20.4450
 1.3610	20.3110
 1.3620	20.1710
 1.3630	20.0280
 1.3640	19.8800
 1.3650	19.7330
 1.3660	19.5780
 1.3670	19.4210
 1.3680	19.2550
 1.3690	19.0780
 1.3700	18.8990
 1.3710	18.7090
 1.3720	18.5130
 1.3730	18.3130
 1.3740	18.1050
 1.3750	17.8870
 1.3760	17.6590
 1.3770	17.4250
 1.3780	17.1820
 1.3790	16.9380
 1.3800	16.6930
 1.3810	16.4430
 1.3820	16.1960
 1.3830	15.9460
 1.3840	15.7000
 1.3850	15.4550
 1.3860	15.2190
 1.3870	14.9830
 1.3880	14.7600
 1.3890	14.5440
 1.3900	14.3430
 1.3910	14.1520
 1.3920	13.9670
 1.3930	13.7960
 1.3940	13.6370
 1.3950	13.4900
 1.3960	13.3580
 1.3970	13.2380
 1.3980	13.1260
 1.3990	13.0230
 1.4000	12.9300
 1.4010	12.8430
 1.4020	12.7570
 1.4030	12.6810
 1.4040	12.6090
 1.4050	12.5420
 1.4060	12.4900
 1.4070	12.4390
 1.4080	12.3910
 1.4090	12.3470
 1.4100	12.3020
 1.4110	12.2630
 1.4120	12.2290
 1.4130	12.1980
 1.4140	12.1700
 1.4150	12.1450
 1.4160	12.1210
 1.4170	12.1000
 1.4180	12.0780
 1.4190	12.0530
 1.4200	12.0320
 1.4210	12.0110
 1.4220	11.9950
 1.4230	11.9810
 1.4240	11.9650
 1.4250	11.9520
 1.4260	11.9400
 1.4270	11.9280
 1.4280	11.9180
 1.4290	11.9090
 1.4300	11.9020
 1.4310	11.8950
 1.4320	11.8890
 1.4330	11.8820
 1.4340	11.8720
 1.4350	11.8640
 1.4360	11.8560
 1.4370	11.8510
 1.4380	11.8480
 1.4390	11.8470
 1.4400	11.8440
 1.4410	11.8400
 1.4420	11.8360
 1.4430	11.8300
 1.4440	11.8280
 1.4450	11.8260
 1.4460	11.8190
 1.4470	11.8170
 1.4480	11.8160
 1.4490	11.8160
 1.4500	11.8210
 1.4510	11.8180
 1.4520	11.8140
 1.4530	11.8100
 1.4540	11.8080
 1.4550	11.8130
 1.4560	11.8160
 1.4570	11.8180
 1.4580	11.8200
 1.4590	11.8190
 1.4600	11.8160
 1.4610	11.8190
 1.4620	11.8200
 1.4630	11.8220
 1.4640	11.8320
 1.4650	11.8420
 1.4660	11.8520
 1.4670	11.8580
 1.4680	11.8610
 1.4690	11.8630
 1.4700	11.8650
 1.4710	11.8750
 1.4720	11.8870
 1.4730	11.8960
 1.4740	11.9070
 1.4750	11.9140
 1.4760	11.9180
 1.4770	11.9280
 1.4780	11.9320
 1.4790	11.9390
 1.4800	11.9530
 1.4810	11.9670
 1.4820	11.9860
 1.4830	11.9990
 1.4840	12.0070
 1.4850	12.0180
 1.4860	12.0250
 1.4870	12.0410
 1.4880	12.0600
 1.4890	12.0740
 1.4900	12.0900
 1.4910	12.1070
 1.4920	12.1210
 1.4930	12.1350
 1.4940	12.1510
 1.4950	12.1690
 1.4960	12.1870
 1.4970	12.2040
 1.4980	12.2210
 1.4990	12.2380
 1.5000	12.2520
 1.5010	12.2640
 1.5020	12.2810
 1.5030	12.2980
 1.5040	12.3170
 1.5050	12.3400
 1.5060	12.3600
 1.5070	12.3790
 1.5080	12.3960
 1.5090	12.4130
 1.5100	12.4310
 1.5110	12.4460
 1.5120	12.4680
 1.5130	12.4940
 1.5140	12.5150
 1.5150	12.5380
 1.5160	12.5590
 1.5170	12.5770
 1.5180	12.5990
 1.5190	12.6220
 1.5200	12.6470
 1.5210	12.6740
 1.5220	12.7000
 1.5230	12.7260
 1.5240	12.7490
 1.5250	12.7710
 1.5260	12.7990
 1.5270	12.8240
 1.5280	12.8530
 1.5290	12.8830
 1.5300	12.9060
 1.5310	12.9300
 1.5320	12.9540
 1.5330	12.9760
 1.5340	13.0000
 1.5350	13.0300
 1.5360	13.0620
 1.5370	13.0930
 1.5380	13.1240
 1.5390	13.1520
 1.5400	13.1770
 1.5410	13.2050
 1.5420	13.2340
 1.5430	13.2610
 1.5440	13.2910
 1.5450	13.3210
 1.5460	13.3490
 1.5470	13.3800
 1.5480	13.4160
 1.5490	13.4500
 1.5500	13.4790
 1.5510	13.5090
 1.5520	13.5430
 1.5530	13.5730
 1.5540	13.6100
 1.5550	13.6440
 1.5560	13.6710
 1.5570	13.7030
 1.5580	13.7350
 1.5590	13.7680
 1.5600	13.8020
 1.5610	13.8340
 1.5620	13.8640
 1.5630	13.8950
 1.5640	13.9260
 1.5650	13.9550
 1.5660	13.9870
 1.5670	14.0210
 1.5680	14.0600
 1.5690	14.1020
 1.5700	14.1380
 1.5710	14.1750
 1.5720	14.2030
 1.5730	14.2280
 1.5740	14.2550
 1.5750	14.2860
 1.5760	14.3210
 1.5770	14.3540
 1.5780	14.3920
 1.5790	14.4280
 1.5800	14.4610
 1.5810	14.4970
 1.5820	14.5320
 1.5830	14.5640
 1.5840	14.5960
 1.5850	14.6290
 1.5860	14.6600
 1.5870	14.6940
 1.5880	14.7260
 1.5890	14.7550
 1.5900	14.7860
 1.5910	14.8150
 1.5920	14.8490
 1.5930	14.8850
 1.5940	14.9220
 1.5950	14.9610
 1.5960	14.9910
 1.5970	15.0210
 1.5980	15.0530
 1.5990	15.0790
 1.6000	15.1160
 1.6010	15.1600
 1.6020	15.1900
 1.6030	15.2260
 1.6040	15.2570
 1.6050	15.2770
 1.6060	15.3060
 1.6070	15.3340
 1.6080	15.3630
 1.6090	15.3940
 1.6100	15.4220
 1.6110	15.4540
 1.6120	15.4840
 1.6130	15.5110
 1.6140	15.5390
 1.6150	15.5640
 1.6160	15.5900
 1.6170	15.6190
 1.6180	15.6500
 1.6190	15.6790
 1.6200	15.7030
 1.6210	15.7230
 1.6220	15.7420
 1.6230	15.7640
 1.6240	15.7950
 1.6250	15.8240
 1.6260	15.8560
 1.6270	15.8930
 1.6280	15.9110
 1.6290	15.9330
 1.6300	15.9440
 1.6310	15.9640
 1.6320	15.9940
 1.6330	16.0200
 1.6340	16.0520
 1.6350	16.0780
 1.6360	16.1000
 1.6370	16.1230
 1.6380	16.1410
 1.6390	16.1640
 1.6400	16.1900
 1.6410	16.2120
 1.6420	16.2370
 1.6430	16.2570
 1.6440	16.2720
 1.6450	16.2850
 1.6460	16.3010
 1.6470	16.3190
 1.6480	16.3320
 1.6490	16.3490
 1.6500	16.3650
 1.6510	16.3700
 1.6520	16.3780
 1.6530	16.3840
 1.6540	16.3860
 1.6550	16.3960
 1.6560	16.4080
 1.6570	16.4210
 1.6580	16.4340
 1.6590	16.4400
 1.6600	16.4460
 1.6610	16.4530
 1.6620	16.4600
 1.6630	16.4710
 1.6640	16.4830
 1.6650	16.4900
 1.6660	16.4980
 1.6670	16.4950
 1.6680	16.4900
 1.6690	16.4910
 1.6700	16.4900
 1.6710	16.4940
 1.6720	16.5040
 1.6730	16.5070
 1.6740	16.5020
 1.6750	16.4970
 1.6760	16.4920
 1.6770	16.4820
 1.6780	16.4780
 1.6790	16.4820
 1.6800	16.4740
 1.6810	16.4690
 1.6820	16.4650
 1.6830	16.4430
 1.6840	16.4350
 1.6850	16.4290
 1.6860	16.4210
 1.6870	16.4290
 1.6880	16.4260
 1.6890	16.4240
 1.6900	16.4170
 1.6910	16.4070
 1.6920	16.3960
 1.6930	16.3730
 1.6940	16.3590
 1.6950	16.3450
 1.6960	16.3300
 1.6970	16.3230
 1.6980	16.3110
 1.6990	16.2990
 1.7000	16.2840
 1.7010	16.2670
 1.7020	16.2460
 1.7030	16.2160
 1.7040	16.1930
 1.7050	16.1700
 1.7060	16.1480
 1.7070	16.1310
 1.7080	16.1050
 1.7090	16.0710
 1.7100	16.0450
 1.7110	16.0170
 1.7120	16.0030
 1.7130	15.9920
 1.7140	15.9610
 1.7150	15.9290
 1.7160	15.8960
 1.7170	15.8570
 1.7180	15.8370
 1.7190	15.8180
 1.7200	15.7930
 1.7210	15.7640
 1.7220	15.7330
 1.7230	15.7040
 1.7240	15.6700
 1.7250	15.6370
 1.7260	15.6040
 1.7270	15.5730
 1.7280	15.5440
 1.7290	15.5220
 1.7300	15.4950
 1.7310	15.4710
 1.7320	15.4460
 1.7330	15.4250
 1.7340	15.4110
 1.7350	15.3930
 1.7360	15.3770
 1.7370	15.3560
 1.7380	15.3260
 1.7390	15.3030
 1.7400	15.2820
 1.7410	15.2540
 1.7420	15.2250
 1.7430	15.1910
 1.7440	15.1500
 1.7450	15.1110
 1.7460	15.0690
 1.7470	15.0340
 1.7480	15.0010
 1.7490	14.9690
 1.7500	14.9420
 1.7510	14.9140
 1.7520	14.8850
 1.7530	14.8540
 1.7540	14.8270
 1.7550	14.7840
 1.7560	14.7330
 1.7570	14.6870
 1.7580	14.6430
 1.7590	14.6090
 1.7600	14.5850
 1.7610	14.5460
 1.7620	14.5130
 1.7630	14.4750
 1.7640	14.4450
 1.7650	14.4300
 1.7660	14.4070
 1.7670	14.3800
 1.7680	14.3600
 1.7690	14.3390
 1.7700	14.3190
 1.7710	14.3060
 1.7720	14.2900
 1.7730	14.2680
 1.7740	14.2540
 1.7750	14.2460
 1.7760	14.2360
 1.7770	14.2290
 1.7780	14.2210
 1.7790	14.2150
 1.7800	14.2030
 1.7810	14.1900
 1.7820	14.1750
 1.7830	14.1550
 1.7840	14.1410
 1.7850	14.1270
 1.7860	14.1220
 1.7870	14.1240
 1.7880	14.1210
 1.7890	14.1260
 1.7900	14.1200
 1.7910	14.1180
 1.7920	14.1220
 1.7930	14.1240
 1.7940	14.1260
 1.7950	14.1270
 1.7960	14.1250
 1.7970	14.1250
 1.7980	14.1240
 1.7990	14.1230
 1.8000	14.1220
 1.8010	14.1170
 1.8020	14.1050
 1.8030	14.1040
 1.8040	14.1060
 1.8050	14.1120
 1.8060	14.1320
 1.8070	14.1380
 1.8080	14.1350
 1.8090	14.1370
 1.8100	14.1350
 1.8110	14.1360
 1.8120	14.1630
 1.8130	14.1770
 1.8140	14.1750
 1.8150	14.1750
 1.8160	14.1630
 1.8170	14.1490
 1.8180	14.1480
 1.8190	14.1500
 1.8200	14.1500
 1.8210	14.1620
 1.8220	14.1610
 1.8230	14.1450
 1.8240	14.1380
 1.8250	14.1320
 1.8260	14.1270
 1.8270	14.1340
 1.8280	14.1320
 1.8290	14.1190
 1.8300	14.1150
 1.8310	14.7810
 1.8320	14.7580
 1.8330	14.7290
 1.8340	14.7300
 1.8350	14.7320
 1.8360	14.7340
 1.8370	14.7300
 1.8380	14.7020
 1.8390	14.6840
 1.8400	14.6700
 1.8410	14.6490
 1.8420	14.6200
 1.8430	14.6010
 1.8440	14.5810
 1.8450	14.5390
 1.8460	14.4960
 1.8470	14.4600
 1.8480	14.4080
 1.8490	14.3850
 1.8500	14.3500
 1.8510	14.3210
 1.8520	14.2700
 1.8530	14.2200
 1.8540	14.1440
 1.8550	14.0760
 1.8560	14.0020
 1.8570	13.9290
 1.8580	13.8770
 1.8590	13.8180
 1.8600	13.7560
 1.8610	13.7090
 1.8620	13.6480
 1.8630	13.5660
 1.8640	13.4880
 1.8650	13.3900
 1.8660	13.2920
 1.8670	13.1990
 1.8680	13.1060
 1.8690	13.0410
 1.8700	12.9880
 1.8710	12.9570
 1.8720	12.9350
 1.8730	12.8970
 1.8740	12.8500
 1.8750	12.8100
 1.8760	12.7640
 1.8770	12.7120
 1.8780	12.6520
 1.8790	12.5730
 1.8800	12.5020
 1.8810	12.4160
 1.8820	12.3520
 1.8830	12.3170
 1.8840	12.2950
 1.8850	12.2590
 1.8860	12.2200
 1.8870	12.1680
 1.8880	12.1100
 1.8890	12.0690
 1.8900	12.0220
 1.8910	11.9870
 1.8920	11.9640
 1.8930	11.9370
 1.8940	11.8970
 1.8950	11.8640
 1.8960	11.8160
 1.8970	11.7580
 1.8980	11.7100
 1.8990	11.6880
 1.9000	11.6700
 1.9010	11.6760
 1.9020	11.6560
 1.9030	11.6350
 1.9040	11.5980
 1.9050	11.5670
 1.9060	11.5390
 1.9070	11.5420
 1.9080	11.5690
 1.9090	11.5690
 1.9100	11.5640
 1.9110	11.5540
 1.9120	11.5180
 1.9130	11.5060
 1.9140	11.5060
 1.9150	11.5000
 1.9160	11.4950
 1.9170	11.4940
 1.9180	11.4780
 1.9190	11.4640
 1.9200	11.4520
 1.9210	11.4400
 1.9220	11.4400
 1.9230	11.4530
 1.9240	11.4570
 1.9250	11.4670
 1.9260	11.4810
 1.9270	11.4790
 1.9280	11.4680
 1.9290	11.4770
 1.9300	11.4750
 1.9310	11.4650
 1.9320	11.4600
 1.9330	11.4510
 1.9340	11.4230
 1.9350	11.4260
 1.9360	11.4530
 1.9370	11.4630
 1.9380	11.4810
 1.9390	11.4930
 1.9400	11.4890
 1.9410	11.4870
 1.9420	11.4930
 1.9430	11.5080
 1.9440	11.5170
 1.9450	11.5190
 1.9460	11.5200
 1.9470	11.5180
 1.9480	11.5260
 1.9490	11.5350
 1.9500	11.5580
 1.9510	11.5620
 1.9520	11.5600
 1.9530	11.5520
 1.9540	11.5470
 1.9550	11.5500
 1.9560	11.5610
 1.9570	11.5740
 1.9580	11.5900
 1.9590	11.6060
 1.9600	11.6420
 1.9610	11.6550
 1.9620	11.6560
 1.9630	11.6460
 1.9640	11.6330
 1.9650	11.6430
 1.9660	11.6770
 1.9670	11.7100
 1.9680	11.7310
 1.9690	11.7590
 1.9700	11.7650
 1.9710	11.7450
 1.9720	11.7390
 1.9730	11.7320
 1.9740	11.7140
 1.9750	11.7190
 1.9760	11.7320
 1.9770	11.7460
 1.9780	11.7730
 1.9790	11.7850
 1.9800	11.7890
 1.9810	11.7940
 1.9820	11.7910
 1.9830	11.7960
 1.9840	11.8020
 1.9850	11.8150
 1.9860	11.8380
 1.9870	11.8510
 1.9880	11.8660
 1.9890	11.8750
 1.9900	11.8730
 1.9910	11.8800
 1.9920	11.8920
 1.9930	11.9140
 1.9940	11.9260
 1.9950	11.9440
 1.9960	11.9480
 1.9970	11.9360
 1.9980	11.9310
 1.9990	11.9100
 2.0000	11.9130
 2.0010	11.9310
 2.0020	11.9530
 2.0030	11.9910
 2.0040	12.0110
 2.0050	12.0270
 2.0060	12.0320
 2.0070	12.0420
 2.0080	12.0460
 2.0090	12.0550
 2.0100	12.0660
 2.0110	12.0750
 2.0120	12.0770
 2.0130	12.0980
 2.0140	12.1100
 2.0150	12.1230
 2.0160	12.1380
 2.0170	12.1360
 2.0180	12.1390
 2.0190	12.1380
 2.0200	12.1420
 2.0210	12.1430
 2.0220	12.1500
 2.0230	12.1600
 2.0240	12.1740
 2.0250	12.1970
 2.0260	12.2170
 2.0270	12.2430
 2.0280	12.2630
 2.0290	12.2650
 2.0300	12.2410
 2.0310	12.2390
 2.0320	12.2300
 2.0330	12.2300
 2.0340	12.2500
 2.0350	12.2630
 2.0360	12.2680
 2.0370	12.2770
 2.0380	12.2870
 2.0390	12.3040
 2.0400	12.3380
 2.0410	12.3510
 2.0420	12.3600
 2.0430	12.3660
 2.0440	12.3680
 2.0450	12.3540
 2.0460	12.3450
 2.0470	12.3340
 2.0480	12.3350
 2.0490	12.3360
 2.0500	12.3380
 2.0510	12.3490
 2.0520	12.3630
 2.0530	12.3830
 2.0540	12.3900
 2.0550	12.3780
 2.0560	12.4100
 2.0570	12.4230
 2.0580	12.3930
 2.0590	12.3980
 2.0600	12.4190
 2.0610	12.4200
 2.0620	12.4200
 2.0630	12.4210
 2.0640	12.4040
 2.0650	12.4070
 2.0660	12.4220
 2.0670	12.4340
 2.0680	12.4630
 2.0690	12.4740
 2.0700	12.4670
 2.0710	12.4770
 2.0720	12.4870
 2.0730	12.4960
 2.0740	12.5100
 2.0750	12.5450
 2.0760	12.5490
 2.0770	12.5290
 2.0780	12.5310
 2.0790	12.5260
 2.0800	12.5370
 2.0810	12.5740
 2.0820	12.5960
 2.0830	12.6300
 2.0840	12.6420
 2.0850	12.6380
 2.0860	12.6320
 2.0870	12.6170
 2.0880	12.5780
 2.0890	12.5810
 2.0900	12.6000
 2.0910	12.6200
 2.0920	12.6680
 2.0930	12.6930
 2.0940	12.7140
 2.0950	12.7220
 2.0960	12.7190
 2.0970	12.7170
 2.0980	12.7020
 2.0990	12.6940
 2.1000	12.6750
 2.1010	12.6800
 2.1020	12.7120
 2.1030	12.7250
 2.1040	12.7460
 2.1050	12.7590
 2.1060	12.7770
 2.1070	12.7780
 2.1080	12.7950
 2.1090	12.8410
 2.1100	12.8480
 2.1110	12.8310
 2.1120	12.8250
 2.1130	12.7950
 2.1140	12.7950
 2.1150	12.8160
 2.1160	12.8340
 2.1170	12.8660
 2.1180	12.8890
 2.1190	12.9150
 2.1200	12.9310
 2.1210	12.9410
 2.1220	12.9500
 2.1230	12.9510
 2.1240	12.9410
 2.1250	12.9390
 2.1260	12.9370
 2.1270	12.9340
 2.1280	12.9260
 2.1290	12.9340
 2.1300	12.9440
 2.1310	12.9660
 2.1320	13.0180
 2.1330	13.0440
 2.1340	13.0720
 2.1350	13.0800
 2.1360	13.0560
 2.1370	13.0500
 2.1380	13.0270
 2.1390	13.0290
 2.1400	13.0470
 2.1410	13.0850
 2.1420	13.1050
 2.1430	13.1380
 2.1440	13.1490
 2.1450	13.1350
 2.1460	13.1440
 2.1470	13.1560
 2.1480	13.1680
 2.1490	13.1990
 2.1500	13.2060
 2.1510	13.2010
 2.1520	13.1950
 2.1530	13.1660
 2.1540	13.1620
 2.1550	13.1660
 2.1560	13.1780
 2.1570	13.2230
 2.1580	13.2380
 2.1590	13.2360
 2.1600	13.2440
 2.1610	13.2160
 2.1620	13.1950
 2.1630	13.1890
 2.1640	13.1920
 2.1650	13.1900
 2.1660	13.2040
 2.1670	13.2010
 2.1680	13.1840
 2.1690	13.1780
 2.1700	13.1720
 2.1710	13.1690
 2.1720	13.1720
 2.1730	13.1760
 2.1740	13.1860
 2.1750	13.1890
 2.1760	13.1920
 2.1770	13.1920
 2.1780	13.1960
 2.1790	13.1850
 2.1800	13.1560
 2.1810	13.1410
 2.1820	13.1220
 2.1830	13.1010
 2.1840	13.0980
 2.1850	13.1100
 2.1860	13.1260
 2.1870	13.1630
 2.1880	13.1650
 2.1890	13.1600
 2.1900	13.1540
 2.1910	13.1080
 2.1920	13.1090
 2.1930	13.1460
 2.1940	13.1620
 2.1950	13.1940
 2.1960	13.2060
 2.1970	13.2000
 2.1980	13.1960
 2.1990	13.1890
 2.2000	13.1790
 2.2010	13.1580
 2.2020	13.1450
 2.2030	13.1370
 2.2040	13.1260
 2.2050	13.1100
 2.2060	13.1140
 2.2070	13.1240
 2.2080	13.1500
 2.2090	13.1420
 2.2100	13.1350
 2.2110	13.1230
 2.2120	13.0650
 2.2130	13.0670
 2.2140	13.1130
 2.2150	13.1270
 2.2160	13.1540
 2.2170	13.1650
 2.2180	13.1540
 2.2190	13.1470
 2.2200	13.1350
 2.2210	13.1290
 2.2220	13.1200
 2.2230	13.1170
 2.2240	13.1240
 2.2250	13.1270
 2.2260	13.1290
 2.2270	13.1300
 2.2280	13.1370
 2.2290	13.1340
 2.2300	13.1210
 2.2310	13.1060
 2.2320	13.1090
 2.2330	13.1120
 2.2340	13.1110
 2.2350	13.1290
 2.2360	13.1180
 2.2370	13.0770
 2.2380	13.0630
 2.2390	13.0520
 2.2400	13.0420
 2.2410	13.0490
 2.2420	13.0370
 2.2430	13.0110
 2.2440	12.9910
 2.2450	12.9600
 2.2460	12.9480
 2.2470	12.9630
 2.2480	12.9430
 2.2490	12.9170
 2.2500	12.8880
 2.2510	12.8210
 2.2520	12.7900
 2.2530	12.7970
 2.2540	12.7750
 2.2550	12.7350
 2.2560	12.7270
 2.2570	12.7180
 2.2580	12.7200
 2.2590	12.7710
 2.2600	12.7930
 2.2610	12.8000
 2.2620	12.8130
 2.2630	12.7890
 2.2640	12.7560
 2.2650	12.7350
 2.2660	12.7140
 2.2670	12.6960
 2.2680	12.6970
 2.2690	12.6860
 2.2700	12.6620
 2.2710	12.6440
 2.2720	12.6270
 2.2730	12.6280
 2.2740	12.6340
 2.2750	12.6340
 2.2760	12.6530
 2.2770	12.6550
 2.2780	12.6310
 2.2790	12.6340
 2.2800	12.6500
 2.2810	12.6610
 2.2820	12.6900
 2.2830	12.6970
 2.2840	12.6830
 2.2850	12.6870
 2.2860	12.6780
 2.2870	12.6830
 2.2880	12.7330
 2.2890	12.7340
 2.2900	12.7090
 2.2910	12.6930
 2.2920	12.6430
 2.2930	12.6080
 2.2940	12.5970
 2.2950	12.5680
 2.2960	12.5190
 2.2970	12.4930
 2.2980	12.4560
 2.2990	12.4580
 2.3000	12.4980
 2.3010	12.5120
 2.3020	12.5070
 2.3030	12.5030
 2.3040	12.4380
 2.3050	12.3890
 2.3060	12.4070
 2.3070	12.3920
 2.3080	12.4210
 2.3090	12.4620
 2.3100	12.4100
 2.3110	12.4090
 2.3120	12.4000
 2.3130	12.3710
 2.3140	12.3730
 2.3150	12.4090
 2.3160	12.4150
 2.3170	12.4060
 2.3180	12.4220
 2.3190	12.4600
 2.3200	12.4660
 2.3210	12.4780
 2.3220	12.4700
 2.3230	12.4020
 2.3240	12.3900
 2.3250	12.4140
 2.3260	12.4230
 2.3270	12.4480
 2.3280	12.4520
 2.3290	12.4360
 2.3300	12.4270
 2.3310	12.4140
 2.3320	12.4160
 2.3330	12.4210
 2.3340	12.4150
 2.3350	12.4090
 2.3360	12.4220
 2.3370	12.4500
 2.3380	12.4660
 2.3390	12.5040
 2.3400	12.5110
 2.3410	12.4690
 2.3420	12.4650
 2.3430	12.4860
 2.3440	12.4820
 2.3450	12.4730
 2.3460	12.4730
 2.3470	12.4580
 2.3480	12.4410
 2.3490	12.4420
 2.3500	12.4300
 2.3510	12.3890
 2.3520	12.3700
 2.3530	12.3490
 2.3540	12.3630
 2.3550	12.3750
 2.3560	12.4330
 2.3570	12.4770
 2.3580	12.4750
 2.3590	12.5000
 2.3600	12.4590
 2.3610	12.3950
 2.3620	12.3840
 2.3630	12.3310
 2.3640	12.3120
 2.3650	12.3590
 2.3660	12.3690
 2.3670	12.3860
 2.3680	12.4310
 2.3690	12.4380
 2.3700	12.4340
 2.3710	12.4610
 2.3720	12.4820
 2.3730	12.5440
 2.3740	12.6200
 2.3750	12.6610
 2.3760	12.6370
 2.3770	12.5430
 2.3780	12.4920
 2.3790	12.4940
 2.3800	12.4890
 2.3810	12.4460
 2.3820	12.4320
 2.3830	12.3870
 2.3840	12.3130
 2.3850	12.3410
 2.3860	12.3320
 2.3870	12.2740
 2.3880	12.3160
 2.3890	12.3940
 2.3900	12.4240
 2.3910	12.4620
 2.3920	12.4580
 2.3930	12.4240
 2.3940	12.4060
 2.3950	12.3700
 2.3960	12.3730
 2.3970	12.3730
 2.3980	12.3660
 2.3990	12.4370
 2.4000	12.4970
 2.4010	12.4850
 2.4020	12.4110
 2.4030	12.3190
 2.4040	12.2970
 2.4050	12.2960
 2.4060	12.3230
 2.4070	12.3870
 2.4080	12.3510
 2.4090	12.2410
 2.4100	12.1940
 2.4110	12.1020
 2.4120	12.0230
 2.4130	12.1370
 2.4140	12.2080
 2.4150	12.2480
 2.4160	12.3190
 2.4170	12.3000
 2.4180	12.3490
 2.4190	12.4640
 2.4200	12.5550
 2.4210	12.5240
 2.4220	12.4450
 2.4230	12.4120
 2.4240	12.3130
 2.4250	12.2980
 2.4260	12.3410
 2.4270	12.2930
 2.4280	12.2400
 2.4290	12.2230
 2.4300	12.1760
 2.4310	12.1470
 2.4320	12.2300
 2.4330	12.2640
 2.4340	12.2670
 2.4350	12.2510
 2.4360	12.1540
 2.4370	12.0890
 2.4380	12.0170
 2.4390	12.0060
 2.4400	11.9700
 2.4410	11.9200
 2.4420	11.9600
 2.4430	12.0130
 2.4440	12.1630
 2.4450	12.3320
 2.4460	12.4670
 2.4470	12.4340
 2.4480	12.2060
 2.4490	11.9940
 2.4500	11.8030
 2.4510	11.7540
 2.4520	11.9510
 2.4530	12.1700
 2.4540	12.3070
 2.4550	12.3640
 2.4560	12.2220
 2.4570	12.0640
 2.4580	12.0340
 2.4590	11.9920
 2.4600	12.0840
 2.4610	12.2780
 2.4620	12.2610
 2.4630	12.1850
 2.4640	12.1400
 2.4650	11.9830
 2.4660	11.9620
 2.4670	12.0820
 2.4680	12.1080
 2.4690	12.2200
 2.4700	12.1860
 2.4710	12.0770
 2.4720	12.0250
 2.4730	11.8330
 2.4740	11.7840
 2.4750	11.8040
 2.4760	11.7890
 2.4770	11.8870
 2.4780	11.8880
 2.4790	11.9570
 2.4800	11.9130
 2.4810	11.5870
 2.4820	11.7370
 2.4830	11.6750
 2.4840	11.6670
 2.4850	12.0050
 2.4860	11.9720
 2.4870	11.9870
 2.4880	12.2350
 2.4890	12.2360
 2.4900	12.2340
 2.4910	12.1230
 2.4920	12.0110
 2.4930	12.1240
 2.4940	12.5370
 2.4950	13.0280
 2.4960	13.2500
 2.4970	13.3100
 2.4980	13.0120
 2.4990	12.6740
 2.5000	12.6340
