Name: Ceanothus megacarpus 3
Type: vegetation
Class: Shrub
Genus: Ceanothus
Species: megacarpus
Sample No.: VH216
Owner: UCSB
Wavelength Range: VSWIR
Origin: 34.4909; -119.7914; WGS84
Collection Date: 10/13/2013
Description: Samples were collected as part of the HyspIRI Airborne Campaign. 48 individual plants were sampled in three times in 2013 - spring  summer  and fall. The name of the sample includes a 1  2  or 3 which references a different individual of the species. Samples were taken to JPL and processed within 48 hours of collection. The same leaves were processed in the Nicolet and then measured using the ASD.
Measurement: Bidirectional reflectance
First Column: X
Second Column: Y
X Units: Wavelength (micrometers)
Y Units: Reflectance (percentage)
First X Value: 0.35
Last X Value: 2.5
Number of X Values: 2151
Additional Information: vegetation.shrub.ceanothus.megacarpus.vswir.vh216.ucsb.asd.ancillary.txt

 0.3500	 7.5410
 0.3510	 7.2270
 0.3520	 7.4070
 0.3530	 7.5630
 0.3540	 7.3120
 0.3550	 7.3220
 0.3560	 7.3440
 0.3570	 7.4060
 0.3580	 7.6250
 0.3590	 7.6030
 0.3600	 7.4580
 0.3610	 7.3500
 0.3620	 7.4190
 0.3630	 7.4140
 0.3640	 7.3820
 0.3650	 7.4120
 0.3660	 7.4490
 0.3670	 7.4660
 0.3680	 7.4340
 0.3690	 7.3330
 0.3700	 7.3190
 0.3710	 7.2510
 0.3720	 7.1280
 0.3730	 7.2930
 0.3740	 7.3670
 0.3750	 7.3730
 0.3760	 7.4150
 0.3770	 7.3580
 0.3780	 7.3020
 0.3790	 7.2930
 0.3800	 7.3100
 0.3810	 7.1520
 0.3820	 7.0630
 0.3830	 7.1860
 0.3840	 7.3210
 0.3850	 7.2340
 0.3860	 7.0960
 0.3870	 7.1730
 0.3880	 7.2590
 0.3890	 7.2570
 0.3900	 7.1960
 0.3910	 7.2190
 0.3920	 7.2880
 0.3930	 7.3170
 0.3940	 7.2600
 0.3950	 7.1810
 0.3960	 7.1190
 0.3970	 7.1140
 0.3980	 7.1860
 0.3990	 7.2370
 0.4000	 7.2290
 0.4010	 7.1960
 0.4020	 7.2510
 0.4030	 7.2080
 0.4040	 7.1470
 0.4050	 7.1640
 0.4060	 7.1960
 0.4070	 7.1880
 0.4080	 7.1610
 0.4090	 7.1800
 0.4100	 7.2330
 0.4110	 7.2610
 0.4120	 7.2350
 0.4130	 7.1730
 0.4140	 7.2040
 0.4150	 7.2710
 0.4160	 7.2740
 0.4170	 7.2440
 0.4180	 7.2420
 0.4190	 7.2710
 0.4200	 7.2850
 0.4210	 7.3060
 0.4220	 7.3290
 0.4230	 7.3490
 0.4240	 7.3790
 0.4250	 7.3890
 0.4260	 7.4020
 0.4270	 7.4570
 0.4280	 7.5030
 0.4290	 7.5300
 0.4300	 7.5430
 0.4310	 7.5620
 0.4320	 7.5680
 0.4330	 7.5830
 0.4340	 7.6210
 0.4350	 7.6360
 0.4360	 7.6730
 0.4370	 7.7220
 0.4380	 7.7340
 0.4390	 7.7580
 0.4400	 7.8040
 0.4410	 7.8630
 0.4420	 7.8960
 0.4430	 7.9080
 0.4440	 7.9220
 0.4450	 7.9610
 0.4460	 7.9870
 0.4470	 7.9930
 0.4480	 7.9980
 0.4490	 8.0490
 0.4500	 8.0570
 0.4510	 8.0540
 0.4520	 8.0790
 0.4530	 8.1120
 0.4540	 8.1330
 0.4550	 8.1380
 0.4560	 8.1440
 0.4570	 8.1770
 0.4580	 8.2000
 0.4590	 8.1930
 0.4600	 8.1870
 0.4610	 8.2140
 0.4620	 8.2500
 0.4630	 8.2600
 0.4640	 8.2800
 0.4650	 8.2880
 0.4660	 8.2870
 0.4670	 8.3010
 0.4680	 8.3130
 0.4690	 8.3280
 0.4700	 8.3430
 0.4710	 8.3280
 0.4720	 8.3400
 0.4730	 8.3710
 0.4740	 8.3820
 0.4750	 8.3870
 0.4760	 8.3880
 0.4770	 8.3910
 0.4780	 8.4050
 0.4790	 8.4010
 0.4800	 8.3980
 0.4810	 8.4180
 0.4820	 8.4370
 0.4830	 8.4310
 0.4840	 8.4170
 0.4850	 8.4450
 0.4860	 8.4680
 0.4870	 8.4800
 0.4880	 8.4870
 0.4890	 8.5090
 0.4900	 8.5320
 0.4910	 8.5570
 0.4920	 8.5870
 0.4930	 8.6200
 0.4940	 8.6520
 0.4950	 8.6840
 0.4960	 8.7310
 0.4970	 8.7750
 0.4980	 8.8150
 0.4990	 8.8550
 0.5000	 8.9060
 0.5010	 8.9730
 0.5020	 9.0430
 0.5030	 9.0990
 0.5040	 9.1770
 0.5050	 9.2650
 0.5060	 9.3530
 0.5070	 9.4470
 0.5080	 9.5460
 0.5090	 9.6560
 0.5100	 9.7810
 0.5110	 9.9110
 0.5120	10.0460
 0.5130	10.1860
 0.5140	10.3310
 0.5150	10.5000
 0.5160	10.6790
 0.5170	10.8550
 0.5180	11.0440
 0.5190	11.2380
 0.5200	11.4340
 0.5210	11.6360
 0.5220	11.8440
 0.5230	12.0570
 0.5240	12.2720
 0.5250	12.4770
 0.5260	12.6860
 0.5270	12.8990
 0.5280	13.1080
 0.5290	13.3070
 0.5300	13.5070
 0.5310	13.7100
 0.5320	13.9070
 0.5330	14.0940
 0.5340	14.2760
 0.5350	14.4560
 0.5360	14.6270
 0.5370	14.7950
 0.5380	14.9600
 0.5390	15.1130
 0.5400	15.2660
 0.5410	15.4150
 0.5420	15.5540
 0.5430	15.6870
 0.5440	15.8220
 0.5450	15.9570
 0.5460	16.0860
 0.5470	16.2270
 0.5480	16.3680
 0.5490	16.4950
 0.5500	16.5980
 0.5510	16.6890
 0.5520	16.7710
 0.5530	16.8420
 0.5540	16.8960
 0.5550	16.9370
 0.5560	16.9660
 0.5570	16.9850
 0.5580	16.9880
 0.5590	16.9840
 0.5600	16.9780
 0.5610	16.9580
 0.5620	16.9390
 0.5630	16.9170
 0.5640	16.8870
 0.5650	16.8500
 0.5660	16.8180
 0.5670	16.7950
 0.5680	16.7740
 0.5690	16.7270
 0.5700	16.6620
 0.5710	16.5950
 0.5720	16.5310
 0.5730	16.4740
 0.5740	16.4240
 0.5750	16.3730
 0.5760	16.3170
 0.5770	16.2680
 0.5780	16.2320
 0.5790	16.1960
 0.5800	16.1660
 0.5810	16.1350
 0.5820	16.0950
 0.5830	16.0590
 0.5840	16.0130
 0.5850	15.9510
 0.5860	15.8750
 0.5870	15.8080
 0.5880	15.7540
 0.5890	15.7130
 0.5900	15.6910
 0.5910	15.6780
 0.5920	15.6720
 0.5930	15.6700
 0.5940	15.6750
 0.5950	15.6840
 0.5960	15.6890
 0.5970	15.6810
 0.5980	15.6730
 0.5990	15.6680
 0.6000	15.6640
 0.6010	15.6540
 0.6020	15.6410
 0.6030	15.6230
 0.6040	15.5970
 0.6050	15.5700
 0.6060	15.5370
 0.6070	15.4930
 0.6080	15.4370
 0.6090	15.3760
 0.6100	15.3090
 0.6110	15.2330
 0.6120	15.1690
 0.6130	15.1180
 0.6140	15.0740
 0.6150	15.0260
 0.6160	14.9700
 0.6170	14.9150
 0.6180	14.8700
 0.6190	14.8240
 0.6200	14.7780
 0.6210	14.7410
 0.6220	14.7200
 0.6230	14.7050
 0.6240	14.6900
 0.6250	14.6780
 0.6260	14.6800
 0.6270	14.6870
 0.6280	14.6970
 0.6290	14.7080
 0.6300	14.7090
 0.6310	14.7100
 0.6320	14.7130
 0.6330	14.7090
 0.6340	14.6780
 0.6350	14.6260
 0.6360	14.5600
 0.6370	14.4820
 0.6380	14.3710
 0.6390	14.2340
 0.6400	14.0890
 0.6410	13.9370
 0.6420	13.7730
 0.6430	13.5990
 0.6440	13.4250
 0.6450	13.2530
 0.6460	13.0860
 0.6470	12.9300
 0.6480	12.7970
 0.6490	12.6790
 0.6500	12.5740
 0.6510	12.4900
 0.6520	12.4210
 0.6530	12.3640
 0.6540	12.3090
 0.6550	12.2400
 0.6560	12.1680
 0.6570	12.0870
 0.6580	11.9910
 0.6590	11.8850
 0.6600	11.7650
 0.6610	11.6330
 0.6620	11.5000
 0.6630	11.3710
 0.6640	11.2430
 0.6650	11.1140
 0.6660	10.9960
 0.6670	10.8900
 0.6680	10.7940
 0.6690	10.7090
 0.6700	10.6480
 0.6710	10.5930
 0.6720	10.5430
 0.6730	10.5180
 0.6740	10.4980
 0.6750	10.4840
 0.6760	10.4810
 0.6770	10.4850
 0.6780	10.4990
 0.6790	10.5300
 0.6800	10.5850
 0.6810	10.6610
 0.6820	10.7680
 0.6830	10.9160
 0.6840	11.1140
 0.6850	11.3660
 0.6860	11.6810
 0.6870	12.0700
 0.6880	12.5410
 0.6890	13.0950
 0.6900	13.7350
 0.6910	14.4690
 0.6920	15.2940
 0.6930	16.1990
 0.6940	17.1740
 0.6950	18.2170
 0.6960	19.3190
 0.6970	20.4680
 0.6980	21.6480
 0.6990	22.8610
 0.7000	24.0920
 0.7010	25.3260
 0.7020	26.5490
 0.7030	27.7590
 0.7040	28.9450
 0.7050	30.0920
 0.7060	31.2030
 0.7070	32.2830
 0.7080	33.3190
 0.7090	34.3050
 0.7100	35.2680
 0.7110	36.1920
 0.7120	37.0670
 0.7130	37.9020
 0.7140	38.7040
 0.7150	39.4750
 0.7160	40.2090
 0.7170	40.8870
 0.7180	41.5520
 0.7190	42.1950
 0.7200	42.7930
 0.7210	43.3600
 0.7220	43.8960
 0.7230	44.4050
 0.7240	44.9010
 0.7250	45.3530
 0.7260	45.7780
 0.7270	46.1880
 0.7280	46.5550
 0.7290	46.9130
 0.7300	47.2550
 0.7310	47.5650
 0.7320	47.8560
 0.7330	48.1270
 0.7340	48.3830
 0.7350	48.6400
 0.7360	48.8600
 0.7370	49.0660
 0.7380	49.2730
 0.7390	49.4560
 0.7400	49.6310
 0.7410	49.8020
 0.7420	49.9660
 0.7430	50.1030
 0.7440	50.2450
 0.7450	50.3910
 0.7460	50.5120
 0.7470	50.6120
 0.7480	50.7160
 0.7490	50.8280
 0.7500	50.9160
 0.7510	51.0030
 0.7520	51.0860
 0.7530	51.1570
 0.7540	51.2290
 0.7550	51.3040
 0.7560	51.3730
 0.7570	51.4220
 0.7580	51.4840
 0.7590	51.5410
 0.7600	51.5860
 0.7610	51.6510
 0.7620	51.6920
 0.7630	51.7250
 0.7640	51.7730
 0.7650	51.8190
 0.7660	51.8520
 0.7670	51.8810
 0.7680	51.9210
 0.7690	51.9570
 0.7700	51.9870
 0.7710	52.0150
 0.7720	52.0550
 0.7730	52.0880
 0.7740	52.1110
 0.7750	52.1250
 0.7760	52.1550
 0.7770	52.1800
 0.7780	52.2180
 0.7790	52.2870
 0.7800	52.2910
 0.7810	52.2890
 0.7820	52.3130
 0.7830	52.3490
 0.7840	52.3530
 0.7850	52.3690
 0.7860	52.4210
 0.7870	52.4610
 0.7880	52.4700
 0.7890	52.4700
 0.7900	52.4890
 0.7910	52.5140
 0.7920	52.5480
 0.7930	52.5760
 0.7940	52.5810
 0.7950	52.6040
 0.7960	52.6170
 0.7970	52.6210
 0.7980	52.6590
 0.7990	52.6910
 0.8000	52.7080
 0.8010	52.7140
 0.8020	52.7300
 0.8030	52.7530
 0.8040	52.7770
 0.8050	52.7940
 0.8060	52.8050
 0.8070	52.8170
 0.8080	52.8370
 0.8090	52.8610
 0.8100	52.8570
 0.8110	52.8510
 0.8120	52.8680
 0.8130	52.9170
 0.8140	52.9300
 0.8150	52.9320
 0.8160	52.9520
 0.8170	52.9580
 0.8180	52.9790
 0.8190	53.0030
 0.8200	53.0040
 0.8210	53.0100
 0.8220	53.0270
 0.8230	53.0560
 0.8240	53.0870
 0.8250	53.0890
 0.8260	53.0750
 0.8270	53.0650
 0.8280	53.0740
 0.8290	53.1040
 0.8300	53.1290
 0.8310	53.1270
 0.8320	53.1120
 0.8330	53.1170
 0.8340	53.1260
 0.8350	53.1170
 0.8360	53.1430
 0.8370	53.1740
 0.8380	53.1860
 0.8390	53.1740
 0.8400	53.1750
 0.8410	53.1970
 0.8420	53.2270
 0.8430	53.2330
 0.8440	53.2390
 0.8450	53.2570
 0.8460	53.2870
 0.8470	53.2910
 0.8480	53.3130
 0.8490	53.3320
 0.8500	53.3220
 0.8510	53.3310
 0.8520	53.3390
 0.8530	53.3430
 0.8540	53.3550
 0.8550	53.3740
 0.8560	53.3990
 0.8570	53.4160
 0.8580	53.4000
 0.8590	53.4030
 0.8600	53.4080
 0.8610	53.4120
 0.8620	53.4450
 0.8630	53.4790
 0.8640	53.4810
 0.8650	53.4470
 0.8660	53.4510
 0.8670	53.4760
 0.8680	53.5030
 0.8690	53.5170
 0.8700	53.5220
 0.8710	53.5330
 0.8720	53.5500
 0.8730	53.5610
 0.8740	53.5700
 0.8750	53.5720
 0.8760	53.5720
 0.8770	53.5890
 0.8780	53.6100
 0.8790	53.6180
 0.8800	53.6160
 0.8810	53.6330
 0.8820	53.6310
 0.8830	53.6350
 0.8840	53.6630
 0.8850	53.6730
 0.8860	53.6320
 0.8870	53.6010
 0.8880	53.6340
 0.8890	53.6480
 0.8900	53.6330
 0.8910	53.6180
 0.8920	53.6320
 0.8930	53.6310
 0.8940	53.6280
 0.8950	53.6350
 0.8960	53.6500
 0.8970	53.6350
 0.8980	53.6140
 0.8990	53.6070
 0.9000	53.6200
 0.9010	53.6170
 0.9020	53.6090
 0.9030	53.6010
 0.9040	53.5910
 0.9050	53.5870
 0.9060	53.5890
 0.9070	53.5890
 0.9080	53.5630
 0.9090	53.5440
 0.9100	53.5480
 0.9110	53.5650
 0.9120	53.5370
 0.9130	53.5230
 0.9140	53.5240
 0.9150	53.5230
 0.9160	53.5360
 0.9170	53.5360
 0.9180	53.5120
 0.9190	53.4720
 0.9200	53.4770
 0.9210	53.4530
 0.9220	53.4080
 0.9230	53.3920
 0.9240	53.3960
 0.9250	53.4000
 0.9260	53.3940
 0.9270	53.3690
 0.9280	53.3410
 0.9290	53.3280
 0.9300	53.3070
 0.9310	53.2290
 0.9320	53.1830
 0.9330	53.1540
 0.9340	53.1230
 0.9350	53.0810
 0.9360	53.0450
 0.9370	52.9910
 0.9380	52.9240
 0.9390	52.8940
 0.9400	52.8680
 0.9410	52.8220
 0.9420	52.7520
 0.9430	52.6900
 0.9440	52.6430
 0.9450	52.5850
 0.9460	52.4990
 0.9470	52.4210
 0.9480	52.3480
 0.9490	52.2700
 0.9500	52.1800
 0.9510	52.0820
 0.9520	51.9740
 0.9530	51.8630
 0.9540	51.7570
 0.9550	51.6460
 0.9560	51.5330
 0.9570	51.4090
 0.9580	51.2720
 0.9590	51.1370
 0.9600	51.0310
 0.9610	50.9370
 0.9620	50.8360
 0.9630	50.7610
 0.9640	50.6950
 0.9650	50.6240
 0.9660	50.5440
 0.9670	50.4710
 0.9680	50.4020
 0.9690	50.3640
 0.9700	50.3700
 0.9710	50.3130
 0.9720	50.2840
 0.9730	50.2550
 0.9740	50.1730
 0.9750	50.1480
 0.9760	50.1490
 0.9770	50.1600
 0.9780	50.1730
 0.9790	50.1740
 0.9800	50.1430
 0.9810	50.1040
 0.9820	50.0970
 0.9830	50.1500
 0.9840	50.1600
 0.9850	50.1480
 0.9860	50.1780
 0.9870	50.1830
 0.9880	50.2060
 0.9890	50.2490
 0.9900	50.2950
 0.9910	50.3320
 0.9920	50.4400
 0.9930	50.5470
 0.9940	50.6550
 0.9950	50.7620
 0.9960	50.8700
 0.9970	50.9780
 0.9980	51.0850
 0.9990	51.1930
 1.0000	51.3000
 1.0010	51.4080
 1.0020	51.5150
 1.0030	51.6230
 1.0040	51.7310
 1.0050	51.8380
 1.0060	51.9460
 1.0070	52.0530
 1.0080	52.1610
 1.0090	52.2690
 1.0100	52.2690
 1.0110	52.3290
 1.0120	52.3840
 1.0130	52.4230
 1.0140	52.4800
 1.0150	52.5380
 1.0160	52.6150
 1.0170	52.6930
 1.0180	52.7600
 1.0190	52.8240
 1.0200	52.8710
 1.0210	52.9070
 1.0220	52.9490
 1.0230	52.9930
 1.0240	53.0370
 1.0250	53.0790
 1.0260	53.1250
 1.0270	53.1670
 1.0280	53.1970
 1.0290	53.2420
 1.0300	53.2970
 1.0310	53.3480
 1.0320	53.3990
 1.0330	53.4630
 1.0340	53.5120
 1.0350	53.5540
 1.0360	53.5990
 1.0370	53.6270
 1.0380	53.6650
 1.0390	53.7020
 1.0400	53.7380
 1.0410	53.7770
 1.0420	53.8120
 1.0430	53.8400
 1.0440	53.8710
 1.0450	53.9020
 1.0460	53.9310
 1.0470	53.9610
 1.0480	53.9880
 1.0490	54.0130
 1.0500	54.0370
 1.0510	54.0580
 1.0520	54.0780
 1.0530	54.0970
 1.0540	54.1120
 1.0550	54.1330
 1.0560	54.1550
 1.0570	54.1800
 1.0580	54.2180
 1.0590	54.2400
 1.0600	54.2590
 1.0610	54.2730
 1.0620	54.2710
 1.0630	54.2790
 1.0640	54.2870
 1.0650	54.3000
 1.0660	54.3200
 1.0670	54.3370
 1.0680	54.3550
 1.0690	54.3760
 1.0700	54.3900
 1.0710	54.4050
 1.0720	54.4080
 1.0730	54.4020
 1.0740	54.4020
 1.0750	54.3970
 1.0760	54.3970
 1.0770	54.4100
 1.0780	54.4070
 1.0790	54.3950
 1.0800	54.3870
 1.0810	54.3690
 1.0820	54.3600
 1.0830	54.3600
 1.0840	54.3560
 1.0850	54.3540
 1.0860	54.3520
 1.0870	54.3460
 1.0880	54.3390
 1.0890	54.3280
 1.0900	54.3130
 1.0910	54.2990
 1.0920	54.2850
 1.0930	54.2690
 1.0940	54.2550
 1.0950	54.2390
 1.0960	54.2190
 1.0970	54.2010
 1.0980	54.1840
 1.0990	54.1620
 1.1000	54.1370
 1.1010	54.1130
 1.1020	54.0920
 1.1030	54.0610
 1.1040	54.0220
 1.1050	53.9960
 1.1060	53.9660
 1.1070	53.9300
 1.1080	53.9000
 1.1090	53.8770
 1.1100	53.8430
 1.1110	53.8100
 1.1120	53.7630
 1.1130	53.7050
 1.1140	53.6490
 1.1150	53.5830
 1.1160	53.5210
 1.1170	53.4630
 1.1180	53.3960
 1.1190	53.3240
 1.1200	53.2520
 1.1210	53.1690
 1.1220	53.0780
 1.1230	52.9830
 1.1240	52.8780
 1.1250	52.7670
 1.1260	52.6510
 1.1270	52.5240
 1.1280	52.3820
 1.1290	52.2430
 1.1300	52.0980
 1.1310	51.9500
 1.1320	51.8040
 1.1330	51.6450
 1.1340	51.4810
 1.1350	51.3040
 1.1360	51.1160
 1.1370	50.9220
 1.1380	50.7200
 1.1390	50.5050
 1.1400	50.2880
 1.1410	50.0650
 1.1420	49.8280
 1.1430	49.5890
 1.1440	49.3440
 1.1450	49.0830
 1.1460	48.8340
 1.1470	48.5880
 1.1480	48.3420
 1.1490	48.0940
 1.1500	47.8570
 1.1510	47.6140
 1.1520	47.3900
 1.1530	47.1770
 1.1540	46.9820
 1.1550	46.7990
 1.1560	46.6340
 1.1570	46.4860
 1.1580	46.3470
 1.1590	46.2190
 1.1600	46.1010
 1.1610	45.9940
 1.1620	45.9000
 1.1630	45.8170
 1.1640	45.7460
 1.1650	45.6820
 1.1660	45.6260
 1.1670	45.5810
 1.1680	45.5480
 1.1690	45.5140
 1.1700	45.4890
 1.1710	45.4630
 1.1720	45.4410
 1.1730	45.4190
 1.1740	45.3970
 1.1750	45.3770
 1.1760	45.3610
 1.1770	45.3360
 1.1780	45.3070
 1.1790	45.2750
 1.1800	45.2400
 1.1810	45.2110
 1.1820	45.1870
 1.1830	45.1660
 1.1840	45.1440
 1.1850	45.1190
 1.1860	45.0920
 1.1870	45.0660
 1.1880	45.0430
 1.1890	45.0170
 1.1900	44.9950
 1.1910	44.9740
 1.1920	44.9570
 1.1930	44.9400
 1.1940	44.9300
 1.1950	44.9270
 1.1960	44.9230
 1.1970	44.9220
 1.1980	44.9210
 1.1990	44.9200
 1.2000	44.9260
 1.2010	44.9330
 1.2020	44.9450
 1.2030	44.9600
 1.2040	44.9780
 1.2050	45.0030
 1.2060	45.0320
 1.2070	45.0690
 1.2080	45.1080
 1.2090	45.1440
 1.2100	45.1820
 1.2110	45.2220
 1.2120	45.2610
 1.2130	45.3040
 1.2140	45.3480
 1.2150	45.3960
 1.2160	45.4460
 1.2170	45.5010
 1.2180	45.5590
 1.2190	45.6220
 1.2200	45.6880
 1.2210	45.7510
 1.2220	45.8090
 1.2230	45.8660
 1.2240	45.9210
 1.2250	45.9740
 1.2260	46.0330
 1.2270	46.0920
 1.2280	46.1530
 1.2290	46.2070
 1.2300	46.2510
 1.2310	46.2960
 1.2320	46.3370
 1.2330	46.3810
 1.2340	46.4280
 1.2350	46.4850
 1.2360	46.5340
 1.2370	46.5820
 1.2380	46.6240
 1.2390	46.6630
 1.2400	46.7020
 1.2410	46.7440
 1.2420	46.7830
 1.2430	46.8240
 1.2440	46.8650
 1.2450	46.9030
 1.2460	46.9460
 1.2470	46.9890
 1.2480	47.0190
 1.2490	47.0450
 1.2500	47.0650
 1.2510	47.0840
 1.2520	47.1080
 1.2530	47.1300
 1.2540	47.1540
 1.2550	47.1750
 1.2560	47.1910
 1.2570	47.2100
 1.2580	47.2270
 1.2590	47.2440
 1.2600	47.2600
 1.2610	47.2760
 1.2620	47.2910
 1.2630	47.3070
 1.2640	47.3190
 1.2650	47.3280
 1.2660	47.3370
 1.2670	47.3400
 1.2680	47.3360
 1.2690	47.3350
 1.2700	47.3320
 1.2710	47.3250
 1.2720	47.3250
 1.2730	47.3220
 1.2740	47.3140
 1.2750	47.3070
 1.2760	47.2950
 1.2770	47.2800
 1.2780	47.2680
 1.2790	47.2520
 1.2800	47.2280
 1.2810	47.2040
 1.2820	47.1780
 1.2830	47.1500
 1.2840	47.1260
 1.2850	47.1030
 1.2860	47.0790
 1.2870	47.0490
 1.2880	47.0180
 1.2890	46.9780
 1.2900	46.9290
 1.2910	46.8750
 1.2920	46.8140
 1.2930	46.7510
 1.2940	46.6910
 1.2950	46.6260
 1.2960	46.5540
 1.2970	46.4810
 1.2980	46.4020
 1.2990	46.3220
 1.3000	46.2460
 1.3010	46.1630
 1.3020	46.0750
 1.3030	45.9840
 1.3040	45.8790
 1.3050	45.7730
 1.3060	45.6730
 1.3070	45.5630
 1.3080	45.4460
 1.3090	45.3250
 1.3100	45.1950
 1.3110	45.0530
 1.3120	44.9070
 1.3130	44.7630
 1.3140	44.6100
 1.3150	44.4500
 1.3160	44.2880
 1.3170	44.1240
 1.3180	43.9480
 1.3190	43.7720
 1.3200	43.5900
 1.3210	43.4030
 1.3220	43.2140
 1.3230	43.0210
 1.3240	42.8220
 1.3250	42.6170
 1.3260	42.4070
 1.3270	42.1850
 1.3280	41.9620
 1.3290	41.7360
 1.3300	41.5050
 1.3310	41.2730
 1.3320	41.0360
 1.3330	40.8020
 1.3340	40.5710
 1.3350	40.3400
 1.3360	40.1040
 1.3370	39.8610
 1.3380	39.6220
 1.3390	39.3820
 1.3400	39.1420
 1.3410	38.9080
 1.3420	38.6750
 1.3430	38.4400
 1.3440	38.2080
 1.3450	37.9830
 1.3460	37.7610
 1.3470	37.5430
 1.3480	37.3300
 1.3490	37.1170
 1.3500	36.9080
 1.3510	36.6970
 1.3520	36.4870
 1.3530	36.2850
 1.3540	36.0850
 1.3550	35.8880
 1.3560	35.6950
 1.3570	35.5020
 1.3580	35.3040
 1.3590	35.1030
 1.3600	34.9020
 1.3610	34.6980
 1.3620	34.4910
 1.3630	34.2840
 1.3640	34.0680
 1.3650	33.8440
 1.3660	33.6190
 1.3670	33.3870
 1.3680	33.1450
 1.3690	32.8930
 1.3700	32.6260
 1.3710	32.3450
 1.3720	32.0510
 1.3730	31.7410
 1.3740	31.4190
 1.3750	31.0800
 1.3760	30.7200
 1.3770	30.3420
 1.3780	29.9390
 1.3790	29.5110
 1.3800	29.0640
 1.3810	28.5940
 1.3820	28.1100
 1.3830	27.6110
 1.3840	27.0950
 1.3850	26.5620
 1.3860	26.0200
 1.3870	25.4560
 1.3880	24.8990
 1.3890	24.3350
 1.3900	23.7680
 1.3910	23.2070
 1.3920	22.6470
 1.3930	22.0900
 1.3940	21.5430
 1.3950	21.0040
 1.3960	20.4760
 1.3970	19.9600
 1.3980	19.4600
 1.3990	18.9820
 1.4000	18.5190
 1.4010	18.0770
 1.4020	17.6590
 1.4030	17.2570
 1.4040	16.8790
 1.4050	16.5240
 1.4060	16.1860
 1.4070	15.8760
 1.4080	15.5860
 1.4090	15.3130
 1.4100	15.0630
 1.4110	14.8280
 1.4120	14.6100
 1.4130	14.4100
 1.4140	14.2240
 1.4150	14.0590
 1.4160	13.9070
 1.4170	13.7660
 1.4180	13.6380
 1.4190	13.5190
 1.4200	13.4130
 1.4210	13.3210
 1.4220	13.2370
 1.4230	13.1620
 1.4240	13.0930
 1.4250	13.0300
 1.4260	12.9730
 1.4270	12.9220
 1.4280	12.8770
 1.4290	12.8370
 1.4300	12.8020
 1.4310	12.7720
 1.4320	12.7500
 1.4330	12.7290
 1.4340	12.7110
 1.4350	12.6960
 1.4360	12.6830
 1.4370	12.6760
 1.4380	12.6710
 1.4390	12.6690
 1.4400	12.6700
 1.4410	12.6690
 1.4420	12.6700
 1.4430	12.6730
 1.4440	12.6800
 1.4450	12.6890
 1.4460	12.6980
 1.4470	12.7110
 1.4480	12.7190
 1.4490	12.7270
 1.4500	12.7400
 1.4510	12.7530
 1.4520	12.7660
 1.4530	12.7820
 1.4540	12.7940
 1.4550	12.8070
 1.4560	12.8210
 1.4570	12.8360
 1.4580	12.8530
 1.4590	12.8690
 1.4600	12.8890
 1.4610	12.9140
 1.4620	12.9400
 1.4630	12.9690
 1.4640	12.9980
 1.4650	13.0300
 1.4660	13.0620
 1.4670	13.0930
 1.4680	13.1300
 1.4690	13.1710
 1.4700	13.2120
 1.4710	13.2560
 1.4720	13.3020
 1.4730	13.3480
 1.4740	13.3980
 1.4750	13.4540
 1.4760	13.5110
 1.4770	13.5680
 1.4780	13.6300
 1.4790	13.6950
 1.4800	13.7600
 1.4810	13.8280
 1.4820	13.8960
 1.4830	13.9620
 1.4840	14.0310
 1.4850	14.1010
 1.4860	14.1700
 1.4870	14.2430
 1.4880	14.3140
 1.4890	14.3860
 1.4900	14.4580
 1.4910	14.5300
 1.4920	14.6020
 1.4930	14.6760
 1.4940	14.7490
 1.4950	14.8230
 1.4960	14.8970
 1.4970	14.9730
 1.4980	15.0490
 1.4990	15.1260
 1.5000	15.2030
 1.5010	15.2820
 1.5020	15.3580
 1.5030	15.4340
 1.5040	15.5080
 1.5050	15.5800
 1.5060	15.6530
 1.5070	15.7240
 1.5080	15.7990
 1.5090	15.8770
 1.5100	15.9550
 1.5110	16.0310
 1.5120	16.1080
 1.5130	16.1800
 1.5140	16.2520
 1.5150	16.3280
 1.5160	16.4030
 1.5170	16.4790
 1.5180	16.5560
 1.5190	16.6280
 1.5200	16.7000
 1.5210	16.7730
 1.5220	16.8430
 1.5230	16.9140
 1.5240	16.9860
 1.5250	17.0580
 1.5260	17.1270
 1.5270	17.1980
 1.5280	17.2670
 1.5290	17.3330
 1.5300	17.3990
 1.5310	17.4650
 1.5320	17.5310
 1.5330	17.5980
 1.5340	17.6640
 1.5350	17.7320
 1.5360	17.8020
 1.5370	17.8680
 1.5380	17.9350
 1.5390	18.0000
 1.5400	18.0620
 1.5410	18.1240
 1.5420	18.1870
 1.5430	18.2490
 1.5440	18.3110
 1.5450	18.3710
 1.5460	18.4280
 1.5470	18.4870
 1.5480	18.5460
 1.5490	18.6080
 1.5500	18.6690
 1.5510	18.7270
 1.5520	18.7860
 1.5530	18.8420
 1.5540	18.9010
 1.5550	18.9640
 1.5560	19.0230
 1.5570	19.0820
 1.5580	19.1410
 1.5590	19.1950
 1.5600	19.2480
 1.5610	19.3010
 1.5620	19.3530
 1.5630	19.4040
 1.5640	19.4590
 1.5650	19.5140
 1.5660	19.5680
 1.5670	19.6210
 1.5680	19.6720
 1.5690	19.7210
 1.5700	19.7750
 1.5710	19.8310
 1.5720	19.8860
 1.5730	19.9420
 1.5740	19.9900
 1.5750	20.0390
 1.5760	20.0870
 1.5770	20.1330
 1.5780	20.1850
 1.5790	20.2360
 1.5800	20.2860
 1.5810	20.3400
 1.5820	20.3880
 1.5830	20.4400
 1.5840	20.4960
 1.5850	20.5460
 1.5860	20.6000
 1.5870	20.6500
 1.5880	20.6930
 1.5890	20.7430
 1.5900	20.7910
 1.5910	20.8370
 1.5920	20.8880
 1.5930	20.9370
 1.5940	20.9830
 1.5950	21.0330
 1.5960	21.0830
 1.5970	21.1330
 1.5980	21.1840
 1.5990	21.2330
 1.6000	21.2800
 1.6010	21.3310
 1.6020	21.3810
 1.6030	21.4340
 1.6040	21.4860
 1.6050	21.5320
 1.6060	21.5730
 1.6070	21.6110
 1.6080	21.6500
 1.6090	21.6920
 1.6100	21.7370
 1.6110	21.7810
 1.6120	21.8190
 1.6130	21.8540
 1.6140	21.8930
 1.6150	21.9360
 1.6160	21.9800
 1.6170	22.0230
 1.6180	22.0650
 1.6190	22.1020
 1.6200	22.1400
 1.6210	22.1790
 1.6220	22.2140
 1.6230	22.2510
 1.6240	22.2850
 1.6250	22.3160
 1.6260	22.3500
 1.6270	22.3800
 1.6280	22.4090
 1.6290	22.4390
 1.6300	22.4690
 1.6310	22.4950
 1.6320	22.5230
 1.6330	22.5470
 1.6340	22.5690
 1.6350	22.5880
 1.6360	22.6050
 1.6370	22.6190
 1.6380	22.6300
 1.6390	22.6390
 1.6400	22.6470
 1.6410	22.6480
 1.6420	22.6440
 1.6430	22.6410
 1.6440	22.6340
 1.6450	22.6290
 1.6460	22.6160
 1.6470	22.5990
 1.6480	22.5810
 1.6490	22.5560
 1.6500	22.5310
 1.6510	22.5030
 1.6520	22.4690
 1.6530	22.4320
 1.6540	22.3910
 1.6550	22.3510
 1.6560	22.3110
 1.6570	22.2740
 1.6580	22.2410
 1.6590	22.2080
 1.6600	22.1800
 1.6610	22.1570
 1.6620	22.1370
 1.6630	22.1220
 1.6640	22.1140
 1.6650	22.1090
 1.6660	22.1090
 1.6670	22.1180
 1.6680	22.1320
 1.6690	22.1480
 1.6700	22.1680
 1.6710	22.1870
 1.6720	22.2050
 1.6730	22.2270
 1.6740	22.2530
 1.6750	22.2840
 1.6760	22.3150
 1.6770	22.3410
 1.6780	22.3610
 1.6790	22.3730
 1.6800	22.3820
 1.6810	22.3960
 1.6820	22.4080
 1.6830	22.4150
 1.6840	22.4170
 1.6850	22.4120
 1.6860	22.4040
 1.6870	22.3920
 1.6880	22.3760
 1.6890	22.3610
 1.6900	22.3430
 1.6910	22.3230
 1.6920	22.3010
 1.6930	22.2730
 1.6940	22.2490
 1.6950	22.2250
 1.6960	22.2010
 1.6970	22.1820
 1.6980	22.1550
 1.6990	22.1200
 1.7000	22.0910
 1.7010	22.0610
 1.7020	22.0290
 1.7030	22.0030
 1.7040	21.9670
 1.7050	21.9210
 1.7060	21.8800
 1.7070	21.8350
 1.7080	21.7930
 1.7090	21.7560
 1.7100	21.7130
 1.7110	21.6670
 1.7120	21.6200
 1.7130	21.5730
 1.7140	21.5250
 1.7150	21.4780
 1.7160	21.4330
 1.7170	21.3900
 1.7180	21.3460
 1.7190	21.3040
 1.7200	21.2610
 1.7210	21.2150
 1.7220	21.1700
 1.7230	21.1250
 1.7240	21.0800
 1.7250	21.0330
 1.7260	20.9880
 1.7270	20.9450
 1.7280	20.9040
 1.7290	20.8670
 1.7300	20.8340
 1.7310	20.8020
 1.7320	20.7750
 1.7330	20.7460
 1.7340	20.7160
 1.7350	20.6880
 1.7360	20.6600
 1.7370	20.6310
 1.7380	20.6040
 1.7390	20.5740
 1.7400	20.5420
 1.7410	20.5090
 1.7420	20.4740
 1.7430	20.4400
 1.7440	20.4050
 1.7450	20.3710
 1.7460	20.3360
 1.7470	20.3020
 1.7480	20.2670
 1.7490	20.2340
 1.7500	20.2020
 1.7510	20.1670
 1.7520	20.1280
 1.7530	20.0930
 1.7540	20.0570
 1.7550	20.0160
 1.7560	19.9770
 1.7570	19.9390
 1.7580	19.9010
 1.7590	19.8700
 1.7600	19.8380
 1.7610	19.8060
 1.7620	19.7760
 1.7630	19.7470
 1.7640	19.7220
 1.7650	19.7020
 1.7660	19.6780
 1.7670	19.6530
 1.7680	19.6280
 1.7690	19.5980
 1.7700	19.5720
 1.7710	19.5510
 1.7720	19.5270
 1.7730	19.5010
 1.7740	19.4800
 1.7750	19.4610
 1.7760	19.4410
 1.7770	19.4260
 1.7780	19.4100
 1.7790	19.3930
 1.7800	19.3760
 1.7810	19.3610
 1.7820	19.3450
 1.7830	19.3260
 1.7840	19.3100
 1.7850	19.2950
 1.7860	19.2840
 1.7870	19.2740
 1.7880	19.2690
 1.7890	19.2700
 1.7900	19.2840
 1.7910	19.2880
 1.7920	19.2890
 1.7930	19.2890
 1.7940	19.2790
 1.7950	19.2740
 1.7960	19.2730
 1.7970	19.2730
 1.7980	19.2720
 1.7990	19.2740
 1.8000	19.2790
 1.8010	19.2850
 1.8020	19.2930
 1.8030	19.2990
 1.8040	19.3050
 1.8050	19.3130
 1.8060	19.3200
 1.8070	19.3310
 1.8080	19.3480
 1.8090	19.3580
 1.8100	19.3700
 1.8110	19.3760
 1.8120	19.3790
 1.8130	19.3840
 1.8140	19.3820
 1.8150	19.3790
 1.8160	19.3790
 1.8170	19.3810
 1.8180	19.3850
 1.8190	19.3900
 1.8200	19.3960
 1.8210	19.4040
 1.8220	19.4060
 1.8230	19.4040
 1.8240	19.4040
 1.8250	19.4000
 1.8260	19.4000
 1.8270	19.2990
 1.8280	19.1980
 1.8290	19.0970
 1.8300	18.9960
 1.8310	18.8950
 1.8320	18.7940
 1.8330	18.6940
 1.8340	18.5930
 1.8350	18.5930
 1.8360	18.5690
 1.8370	18.5510
 1.8380	18.5300
 1.8390	18.5050
 1.8400	18.4830
 1.8410	18.4510
 1.8420	18.4090
 1.8430	18.3700
 1.8440	18.3270
 1.8450	18.2960
 1.8460	18.2670
 1.8470	18.2290
 1.8480	18.1820
 1.8490	18.1180
 1.8500	18.0500
 1.8510	17.9710
 1.8520	17.8790
 1.8530	17.7840
 1.8540	17.6950
 1.8550	17.5840
 1.8560	17.4670
 1.8570	17.3480
 1.8580	17.2140
 1.8590	17.0770
 1.8600	16.9340
 1.8610	16.7930
 1.8620	16.6320
 1.8630	16.4630
 1.8640	16.3000
 1.8650	16.1110
 1.8660	15.9190
 1.8670	15.7290
 1.8680	15.5190
 1.8690	15.3070
 1.8700	15.0840
 1.8710	14.8520
 1.8720	14.6130
 1.8730	14.3730
 1.8740	14.1290
 1.8750	13.8900
 1.8760	13.6470
 1.8770	13.3980
 1.8780	13.1460
 1.8790	12.8980
 1.8800	12.6660
 1.8810	12.4430
 1.8820	12.2290
 1.8830	12.0200
 1.8840	11.8200
 1.8850	11.6210
 1.8860	11.4260
 1.8870	11.2490
 1.8880	11.0940
 1.8890	10.9460
 1.8900	10.8120
 1.8910	10.6780
 1.8920	10.5480
 1.8930	10.4190
 1.8940	10.3090
 1.8950	10.2020
 1.8960	10.1120
 1.8970	10.0330
 1.8980	 9.9490
 1.8990	 9.8840
 1.9000	 9.8270
 1.9010	 9.7820
 1.9020	 9.7400
 1.9030	 9.7150
 1.9040	 9.6780
 1.9050	 9.6340
 1.9060	 9.5960
 1.9070	 9.5640
 1.9080	 9.5380
 1.9090	 9.5200
 1.9100	 9.5140
 1.9110	 9.5030
 1.9120	 9.4930
 1.9130	 9.4800
 1.9140	 9.4690
 1.9150	 9.4540
 1.9160	 9.4370
 1.9170	 9.4310
 1.9180	 9.4340
 1.9190	 9.4300
 1.9200	 9.4270
 1.9210	 9.4310
 1.9220	 9.4320
 1.9230	 9.4280
 1.9240	 9.4330
 1.9250	 9.4460
 1.9260	 9.4500
 1.9270	 9.4550
 1.9280	 9.4600
 1.9290	 9.4610
 1.9300	 9.4600
 1.9310	 9.4510
 1.9320	 9.4540
 1.9330	 9.4570
 1.9340	 9.4540
 1.9350	 9.4610
 1.9360	 9.4800
 1.9370	 9.4890
 1.9380	 9.4950
 1.9390	 9.5070
 1.9400	 9.5060
 1.9410	 9.5080
 1.9420	 9.5170
 1.9430	 9.5220
 1.9440	 9.5250
 1.9450	 9.5250
 1.9460	 9.5300
 1.9470	 9.5320
 1.9480	 9.5390
 1.9490	 9.5490
 1.9500	 9.5700
 1.9510	 9.5850
 1.9520	 9.6000
 1.9530	 9.6190
 1.9540	 9.6330
 1.9550	 9.6430
 1.9560	 9.6480
 1.9570	 9.6570
 1.9580	 9.6600
 1.9590	 9.6700
 1.9600	 9.6870
 1.9610	 9.7010
 1.9620	 9.7150
 1.9630	 9.7280
 1.9640	 9.7410
 1.9650	 9.7490
 1.9660	 9.7530
 1.9670	 9.7580
 1.9680	 9.7700
 1.9690	 9.7860
 1.9700	 9.8020
 1.9710	 9.8280
 1.9720	 9.8470
 1.9730	 9.8620
 1.9740	 9.8740
 1.9750	 9.8900
 1.9760	 9.9040
 1.9770	 9.9190
 1.9780	 9.9340
 1.9790	 9.9450
 1.9800	 9.9520
 1.9810	 9.9640
 1.9820	 9.9700
 1.9830	 9.9860
 1.9840	10.0110
 1.9850	10.0330
 1.9860	10.0630
 1.9870	10.0900
 1.9880	10.1110
 1.9890	10.1240
 1.9900	10.1360
 1.9910	10.1530
 1.9920	10.1710
 1.9930	10.1910
 1.9940	10.2160
 1.9950	10.2480
 1.9960	10.2730
 1.9970	10.2970
 1.9980	10.3220
 1.9990	10.3450
 2.0000	10.3650
 2.0010	10.3790
 2.0020	10.3960
 2.0030	10.4090
 2.0040	10.4210
 2.0050	10.4440
 2.0060	10.4790
 2.0070	10.5060
 2.0080	10.5410
 2.0090	10.5670
 2.0100	10.5890
 2.0110	10.6080
 2.0120	10.6230
 2.0130	10.6310
 2.0140	10.6380
 2.0150	10.6470
 2.0160	10.6660
 2.0170	10.6860
 2.0180	10.7070
 2.0190	10.7370
 2.0200	10.7600
 2.0210	10.7810
 2.0220	10.8030
 2.0230	10.8220
 2.0240	10.8420
 2.0250	10.8590
 2.0260	10.8790
 2.0270	10.9020
 2.0280	10.9240
 2.0290	10.9390
 2.0300	10.9520
 2.0310	10.9590
 2.0320	10.9520
 2.0330	10.9600
 2.0340	10.9680
 2.0350	10.9830
 2.0360	11.0110
 2.0370	11.0330
 2.0380	11.0580
 2.0390	11.0800
 2.0400	11.1060
 2.0410	11.1210
 2.0420	11.1280
 2.0430	11.1320
 2.0440	11.1380
 2.0450	11.1340
 2.0460	11.1380
 2.0470	11.1470
 2.0480	11.1520
 2.0490	11.1510
 2.0500	11.1560
 2.0510	11.1620
 2.0520	11.1710
 2.0530	11.1890
 2.0540	11.1990
 2.0550	11.2060
 2.0560	11.2100
 2.0570	11.2150
 2.0580	11.2180
 2.0590	11.2240
 2.0600	11.2320
 2.0610	11.2410
 2.0620	11.2480
 2.0630	11.2550
 2.0640	11.2660
 2.0650	11.2730
 2.0660	11.2780
 2.0670	11.2850
 2.0680	11.2940
 2.0690	11.3020
 2.0700	11.3070
 2.0710	11.3150
 2.0720	11.3250
 2.0730	11.3350
 2.0740	11.3400
 2.0750	11.3430
 2.0760	11.3490
 2.0770	11.3500
 2.0780	11.3560
 2.0790	11.3680
 2.0800	11.3760
 2.0810	11.3790
 2.0820	11.3850
 2.0830	11.3860
 2.0840	11.3950
 2.0850	11.4140
 2.0860	11.4240
 2.0870	11.4360
 2.0880	11.4440
 2.0890	11.4530
 2.0900	11.4540
 2.0910	11.4620
 2.0920	11.4800
 2.0930	11.4880
 2.0940	11.4910
 2.0950	11.4970
 2.0960	11.5020
 2.0970	11.5040
 2.0980	11.5040
 2.0990	11.5090
 2.1000	11.5090
 2.1010	11.5150
 2.1020	11.5350
 2.1030	11.5440
 2.1040	11.5520
 2.1050	11.5530
 2.1060	11.5590
 2.1070	11.5600
 2.1080	11.5670
 2.1090	11.5820
 2.1100	11.5940
 2.1110	11.6090
 2.1120	11.6170
 2.1130	11.6210
 2.1140	11.6270
 2.1150	11.6270
 2.1160	11.6330
 2.1170	11.6490
 2.1180	11.6560
 2.1190	11.6610
 2.1200	11.6620
 2.1210	11.6550
 2.1220	11.6500
 2.1230	11.6540
 2.1240	11.6600
 2.1250	11.6670
 2.1260	11.6810
 2.1270	11.6930
 2.1280	11.7060
 2.1290	11.7160
 2.1300	11.7300
 2.1310	11.7360
 2.1320	11.7300
 2.1330	11.7340
 2.1340	11.7410
 2.1350	11.7470
 2.1360	11.7600
 2.1370	11.7670
 2.1380	11.7680
 2.1390	11.7730
 2.1400	11.7730
 2.1410	11.7830
 2.1420	11.7970
 2.1430	11.8190
 2.1440	11.8340
 2.1450	11.8580
 2.1460	11.8640
 2.1470	11.8530
 2.1480	11.8590
 2.1490	11.8630
 2.1500	11.8740
 2.1510	11.9020
 2.1520	11.9190
 2.1530	11.9320
 2.1540	11.9460
 2.1550	11.9610
 2.1560	11.9700
 2.1570	11.9750
 2.1580	11.9830
 2.1590	11.9910
 2.1600	11.9940
 2.1610	12.0040
 2.1620	12.0170
 2.1630	12.0290
 2.1640	12.0440
 2.1650	12.0550
 2.1660	12.0640
 2.1670	12.0750
 2.1680	12.0830
 2.1690	12.0900
 2.1700	12.0930
 2.1710	12.1040
 2.1720	12.1160
 2.1730	12.1280
 2.1740	12.1500
 2.1750	12.1640
 2.1760	12.1690
 2.1770	12.1810
 2.1780	12.2000
 2.1790	12.2140
 2.1800	12.2290
 2.1810	12.2410
 2.1820	12.2450
 2.1830	12.2480
 2.1840	12.2530
 2.1850	12.2580
 2.1860	12.2630
 2.1870	12.2670
 2.1880	12.2780
 2.1890	12.2970
 2.1900	12.3090
 2.1910	12.3250
 2.1920	12.3390
 2.1930	12.3470
 2.1940	12.3560
 2.1950	12.3630
 2.1960	12.3750
 2.1970	12.3880
 2.1980	12.3990
 2.1990	12.4070
 2.2000	12.4260
 2.2010	12.4540
 2.2020	12.4720
 2.2030	12.4970
 2.2040	12.5170
 2.2050	12.5200
 2.2060	12.5310
 2.2070	12.5380
 2.2080	12.5470
 2.2090	12.5540
 2.2100	12.5540
 2.2110	12.5590
 2.2120	12.5680
 2.2130	12.5770
 2.2140	12.5830
 2.2150	12.5950
 2.2160	12.6100
 2.2170	12.6270
 2.2180	12.6520
 2.2190	12.6680
 2.2200	12.6860
 2.2210	12.6930
 2.2220	12.6840
 2.2230	12.6790
 2.2240	12.6640
 2.2250	12.6590
 2.2260	12.6650
 2.2270	12.6630
 2.2280	12.6530
 2.2290	12.6530
 2.2300	12.6550
 2.2310	12.6520
 2.2320	12.6500
 2.2330	12.6570
 2.2340	12.6520
 2.2350	12.6350
 2.2360	12.6270
 2.2370	12.6230
 2.2380	12.6130
 2.2390	12.6020
 2.2400	12.5860
 2.2410	12.5620
 2.2420	12.5420
 2.2430	12.5210
 2.2440	12.5030
 2.2450	12.4920
 2.2460	12.4750
 2.2470	12.4570
 2.2480	12.4390
 2.2490	12.4140
 2.2500	12.3960
 2.2510	12.3890
 2.2520	12.3690
 2.2530	12.3440
 2.2540	12.3220
 2.2550	12.2970
 2.2560	12.2690
 2.2570	12.2440
 2.2580	12.2200
 2.2590	12.1920
 2.2600	12.1680
 2.2610	12.1520
 2.2620	12.1330
 2.2630	12.1040
 2.2640	12.0720
 2.2650	12.0450
 2.2660	12.0270
 2.2670	12.0140
 2.2680	12.0180
 2.2690	12.0050
 2.2700	11.9890
 2.2710	11.9680
 2.2720	11.9380
 2.2730	11.9110
 2.2740	11.8770
 2.2750	11.8610
 2.2760	11.8460
 2.2770	11.8430
 2.2780	11.8620
 2.2790	11.8620
 2.2800	11.8640
 2.2810	11.8550
 2.2820	11.8290
 2.2830	11.8150
 2.2840	11.7980
 2.2850	11.7870
 2.2860	11.7910
 2.2870	11.7820
 2.2880	11.7660
 2.2890	11.7570
 2.2900	11.7520
 2.2910	11.7360
 2.2920	11.7140
 2.2930	11.6990
 2.2940	11.6750
 2.2950	11.6580
 2.2960	11.6520
 2.2970	11.6440
 2.2980	11.6300
 2.2990	11.6280
 2.3000	11.6240
 2.3010	11.6290
 2.3020	11.6390
 2.3030	11.6320
 2.3040	11.6170
 2.3050	11.5980
 2.3060	11.5670
 2.3070	11.5500
 2.3080	11.5460
 2.3090	11.5510
 2.3100	11.5530
 2.3110	11.5380
 2.3120	11.5330
 2.3130	11.5200
 2.3140	11.5180
 2.3150	11.5290
 2.3160	11.5300
 2.3170	11.5340
 2.3180	11.5220
 2.3190	11.4940
 2.3200	11.4800
 2.3210	11.4540
 2.3220	11.4460
 2.3230	11.4570
 2.3240	11.4610
 2.3250	11.4720
 2.3260	11.4720
 2.3270	11.4720
 2.3280	11.4630
 2.3290	11.4420
 2.3300	11.4240
 2.3310	11.3950
 2.3320	11.3790
 2.3330	11.3720
 2.3340	11.3630
 2.3350	11.3600
 2.3360	11.3540
 2.3370	11.3410
 2.3380	11.3330
 2.3390	11.3180
 2.3400	11.3230
 2.3410	11.3450
 2.3420	11.3570
 2.3430	11.3940
 2.3440	11.3960
 2.3450	11.3590
 2.3460	11.3410
 2.3470	11.3040
 2.3480	11.2890
 2.3490	11.2960
 2.3500	11.3010
 2.3510	11.3310
 2.3520	11.3300
 2.3530	11.3010
 2.3540	11.2960
 2.3550	11.2770
 2.3560	11.2700
 2.3570	11.2920
 2.3580	11.2910
 2.3590	11.2900
 2.3600	11.2820
 2.3610	11.2640
 2.3620	11.2620
 2.3630	11.2400
 2.3640	11.2160
 2.3650	11.1990
 2.3660	11.1780
 2.3670	11.1850
 2.3680	11.1740
 2.3690	11.1710
 2.3700	11.1930
 2.3710	11.1860
 2.3720	11.1940
 2.3730	11.2140
 2.3740	11.2030
 2.3750	11.2060
 2.3760	11.2340
 2.3770	11.2550
 2.3780	11.2730
 2.3790	11.2660
 2.3800	11.2260
 2.3810	11.1930
 2.3820	11.1740
 2.3830	11.1670
 2.3840	11.1790
 2.3850	11.1890
 2.3860	11.1600
 2.3870	11.1380
 2.3880	11.1360
 2.3890	11.1170
 2.3900	11.1030
 2.3910	11.1000
 2.3920	11.0930
 2.3930	11.0950
 2.3940	11.1020
 2.3950	11.0920
 2.3960	11.0850
 2.3970	11.0860
 2.3980	11.0720
 2.3990	11.0560
 2.4000	11.0330
 2.4010	10.9810
 2.4020	10.9460
 2.4030	10.9330
 2.4040	10.9120
 2.4050	10.9190
 2.4060	10.9260
 2.4070	10.9440
 2.4080	10.9830
 2.4090	11.0180
 2.4100	11.0350
 2.4110	11.0440
 2.4120	11.0630
 2.4130	11.0270
 2.4140	11.0060
 2.4150	10.9780
 2.4160	10.9040
 2.4170	10.8910
 2.4180	10.8950
 2.4190	10.8790
 2.4200	10.8710
 2.4210	10.8730
 2.4220	10.8330
 2.4230	10.8070
 2.4240	10.8530
 2.4250	10.8580
 2.4260	10.8360
 2.4270	10.8530
 2.4280	10.8320
 2.4290	10.7820
 2.4300	10.7840
 2.4310	10.7940
 2.4320	10.8060
 2.4330	10.8190
 2.4340	10.8430
 2.4350	10.8860
 2.4360	10.8780
 2.4370	10.8460
 2.4380	10.8330
 2.4390	10.7860
 2.4400	10.7440
 2.4410	10.7530
 2.4420	10.7830
 2.4430	10.7960
 2.4440	10.7300
 2.4450	10.6850
 2.4460	10.6600
 2.4470	10.6200
 2.4480	10.6840
 2.4490	10.7340
 2.4500	10.7320
 2.4510	10.7580
 2.4520	10.7320
 2.4530	10.6690
 2.4540	10.6610
 2.4550	10.6290
 2.4560	10.5720
 2.4570	10.5500
 2.4580	10.5300
 2.4590	10.4890
 2.4600	10.4550
 2.4610	10.4940
 2.4620	10.5270
 2.4630	10.5660
 2.4640	10.6260
 2.4650	10.6350
 2.4660	10.6390
 2.4670	10.6610
 2.4680	10.7240
 2.4690	10.7310
 2.4700	10.7050
 2.4710	10.5740
 2.4720	10.5390
 2.4730	10.5710
 2.4740	10.6060
 2.4750	10.7040
 2.4760	10.7150
 2.4770	10.6970
 2.4780	10.6530
 2.4790	10.5210
 2.4800	10.5100
 2.4810	10.5340
 2.4820	10.6020
 2.4830	10.6750
 2.4840	10.8060
 2.4850	10.8650
 2.4860	10.7800
 2.4870	10.7790
 2.4880	10.7080
 2.4890	10.5690
 2.4900	10.5870
 2.4910	10.5960
 2.4920	10.6130
 2.4930	10.6450
 2.4940	10.6510
 2.4950	10.6560
 2.4960	10.5390
 2.4970	10.5340
 2.4980	10.6600
 2.4990	10.6550
 2.5000	10.6010
