Name: Heteromeles arbutifolia 2
Type: vegetation
Class: Shrub
Genus: Heteromeles
Species: arbutifolia
Sample No.: VH135
Owner: UCSB
Wavelength Range: TIR
Origin: 34.4907; -119.7912; WGS84
Collection Date: 6/3/2013
Description: Samples were collected as part of the HyspIRI Airborne Campaign. 48 individual plants were sampled in three times in 2013 - spring  summer  and fall. The name of the sample includes a 1  2  or 3 which references a different individual of the species. Samples were taken to JPL and processed within 48 hours of collection. The same leaves were processed in the Nicolet and then measured using the ASD.
Measurement: Hemispherical reflectance
First Column: X
Second Column: Y
X Units: Wavelength (micrometers)
Y Units: Reflectance (percentage)
First X Value: 2.501
Last X Value: 15.387
Number of X Values: 1737
Additional Information: vegetation.shrub.heteromeles.arbutifolia.tir.vh135.ucsb.nicolet.ancillary.txt

 2.5010	 6.4270
 2.5030	 6.4480
 2.5040	 6.5860
 2.5050	 6.5490
 2.5060	 6.5130
 2.5070	 6.5060
 2.5090	 6.5820
 2.5100	 6.4950
 2.5110	 6.4280
 2.5120	 6.4330
 2.5140	 6.4830
 2.5150	 6.3620
 2.5160	 6.2710
 2.5170	 6.2090
 2.5180	 6.3310
 2.5200	 6.3720
 2.5210	 6.5100
 2.5220	 6.4040
 2.5230	 6.3380
 2.5250	 6.2290
 2.5260	 6.3210
 2.5270	 6.4540
 2.5280	 6.4710
 2.5290	 6.3460
 2.5310	 6.4140
 2.5320	 6.3250
 2.5330	 6.2990
 2.5340	 6.3420
 2.5360	 6.4190
 2.5370	 6.4270
 2.5380	 6.4520
 2.5390	 6.3830
 2.5410	 6.3620
 2.5420	 6.3470
 2.5430	 6.5000
 2.5440	 6.4420
 2.5460	 6.4020
 2.5470	 6.4720
 2.5480	 6.5750
 2.5490	 6.5360
 2.5510	 6.5240
 2.5520	 6.3920
 2.5530	 6.3040
 2.5540	 6.2070
 2.5560	 6.3090
 2.5570	 6.3180
 2.5580	 6.4060
 2.5590	 6.4830
 2.5610	 6.4000
 2.5620	 6.3800
 2.5630	 6.5490
 2.5640	 6.4900
 2.5660	 6.5160
 2.5670	 6.5570
 2.5680	 6.5800
 2.5700	 6.5410
 2.5710	 6.5830
 2.5720	 6.4650
 2.5730	 6.4460
 2.5750	 6.5330
 2.5760	 6.5530
 2.5770	 6.5120
 2.5790	 6.5600
 2.5800	 6.4260
 2.5810	 6.4090
 2.5820	 6.4050
 2.5840	 6.4460
 2.5850	 6.2520
 2.5860	 6.2500
 2.5880	 6.4630
 2.5890	 6.5640
 2.5900	 6.3980
 2.5910	 6.3170
 2.5930	 6.2470
 2.5940	 6.3570
 2.5950	 6.3050
 2.5970	 6.3480
 2.5980	 6.4290
 2.5990	 6.4250
 2.6000	 6.3020
 2.6020	 6.4010
 2.6030	 6.3820
 2.6040	 6.2680
 2.6060	 6.2470
 2.6070	 6.1820
 2.6080	 6.0980
 2.6100	 6.1470
 2.6110	 6.0920
 2.6120	 6.1300
 2.6140	 6.1100
 2.6150	 6.2200
 2.6160	 6.2540
 2.6180	 6.2400
 2.6190	 6.1160
 2.6200	 6.0200
 2.6220	 5.8860
 2.6230	 5.9360
 2.6240	 6.0430
 2.6260	 6.0700
 2.6270	 5.9500
 2.6280	 5.9020
 2.6300	 5.8650
 2.6310	 5.8980
 2.6320	 5.8610
 2.6340	 5.9430
 2.6350	 5.9380
 2.6360	 5.8990
 2.6380	 5.9250
 2.6390	 6.0090
 2.6400	 5.9350
 2.6420	 5.9120
 2.6430	 5.7990
 2.6440	 5.8490
 2.6460	 5.8610
 2.6470	 5.9440
 2.6480	 5.8720
 2.6500	 5.7820
 2.6510	 5.7870
 2.6520	 5.8090
 2.6540	 5.7230
 2.6550	 5.6700
 2.6560	 5.6850
 2.6580	 5.7610
 2.6590	 5.5960
 2.6610	 5.5190
 2.6620	 5.6040
 2.6630	 5.7440
 2.6650	 5.6850
 2.6660	 5.5570
 2.6670	 5.5110
 2.6690	 5.6050
 2.6700	 5.6740
 2.6720	 5.6970
 2.6730	 5.6250
 2.6740	 5.5930
 2.6760	 5.4910
 2.6770	 5.5000
 2.6780	 5.4680
 2.6800	 5.5020
 2.6810	 5.4580
 2.6830	 5.5180
 2.6840	 5.4690
 2.6850	 5.5600
 2.6870	 5.5950
 2.6880	 5.5180
 2.6900	 5.4840
 2.6910	 5.5410
 2.6920	 5.4730
 2.6940	 5.4970
 2.6950	 5.5170
 2.6970	 5.6010
 2.6980	 5.5740
 2.6990	 5.5540
 2.7010	 5.4320
 2.7020	 5.4010
 2.7040	 5.4840
 2.7050	 5.5280
 2.7060	 5.3920
 2.7080	 5.3750
 2.7090	 5.2960
 2.7110	 5.3680
 2.7120	 5.4420
 2.7130	 5.4720
 2.7150	 5.4430
 2.7160	 5.4740
 2.7180	 5.3350
 2.7190	 5.3660
 2.7210	 5.4480
 2.7220	 5.4380
 2.7230	 5.3890
 2.7250	 5.4110
 2.7260	 5.3800
 2.7280	 5.4920
 2.7290	 5.4420
 2.7310	 5.3820
 2.7320	 5.3090
 2.7330	 5.4300
 2.7350	 5.4230
 2.7360	 5.3710
 2.7380	 5.3530
 2.7390	 5.3840
 2.7410	 5.2670
 2.7420	 5.3470
 2.7440	 5.3540
 2.7450	 5.3120
 2.7470	 5.3570
 2.7480	 5.5190
 2.7490	 5.3420
 2.7510	 5.2500
 2.7520	 5.2160
 2.7540	 5.2380
 2.7550	 5.3060
 2.7570	 5.4180
 2.7580	 5.3110
 2.7600	 5.2460
 2.7610	 5.2500
 2.7630	 5.2040
 2.7640	 5.1200
 2.7660	 5.2550
 2.7670	 5.2300
 2.7680	 5.2340
 2.7700	 5.2760
 2.7710	 5.2880
 2.7730	 5.2120
 2.7740	 5.3970
 2.7760	 5.3840
 2.7770	 5.3090
 2.7790	 5.3720
 2.7800	 5.4080
 2.7820	 5.3100
 2.7830	 5.2590
 2.7850	 5.2380
 2.7860	 5.4150
 2.7880	 5.4480
 2.7890	 5.3580
 2.7910	 5.1890
 2.7920	 5.2860
 2.7940	 5.2220
 2.7950	 5.1660
 2.7970	 5.1660
 2.7980	 5.3120
 2.8000	 5.1920
 2.8010	 5.1550
 2.8030	 5.1250
 2.8040	 5.1280
 2.8060	 5.0610
 2.8070	 5.0900
 2.8090	 5.0990
 2.8110	 5.2010
 2.8120	 5.1600
 2.8140	 5.1330
 2.8150	 5.1130
 2.8170	 5.1600
 2.8180	 5.2080
 2.8200	 5.2610
 2.8210	 5.2270
 2.8230	 5.3030
 2.8240	 5.1790
 2.8260	 5.1960
 2.8270	 5.2080
 2.8290	 5.0840
 2.8300	 4.9910
 2.8320	 5.0530
 2.8340	 5.0740
 2.8350	 5.1830
 2.8370	 5.1080
 2.8380	 5.2420
 2.8400	 5.2150
 2.8410	 5.1300
 2.8430	 5.0680
 2.8440	 5.2200
 2.8460	 5.1430
 2.8480	 5.1850
 2.8490	 5.2690
 2.8510	 5.2820
 2.8520	 5.2030
 2.8540	 5.1910
 2.8550	 5.1870
 2.8570	 5.1990
 2.8590	 5.1000
 2.8600	 5.1900
 2.8620	 5.1930
 2.8630	 5.2260
 2.8650	 5.2500
 2.8660	 5.3230
 2.8680	 5.1840
 2.8700	 5.2270
 2.8710	 5.2220
 2.8730	 5.2000
 2.8740	 5.1290
 2.8760	 5.2130
 2.8780	 5.2350
 2.8790	 5.2290
 2.8810	 5.1620
 2.8820	 5.1550
 2.8840	 5.1770
 2.8860	 5.1560
 2.8870	 4.9740
 2.8890	 4.9960
 2.8900	 5.0860
 2.8920	 5.2100
 2.8940	 5.2830
 2.8950	 5.3590
 2.8970	 5.1860
 2.8980	 5.2100
 2.9000	 5.1710
 2.9020	 5.2310
 2.9030	 5.2210
 2.9050	 5.2840
 2.9070	 5.1910
 2.9080	 5.2000
 2.9100	 5.1530
 2.9120	 5.2210
 2.9130	 5.1240
 2.9150	 5.1200
 2.9160	 5.1310
 2.9180	 5.1720
 2.9200	 5.1590
 2.9210	 5.1850
 2.9230	 5.1550
 2.9250	 5.2450
 2.9260	 5.2440
 2.9280	 5.0740
 2.9300	 5.0050
 2.9310	 5.1190
 2.9330	 5.1570
 2.9350	 5.2550
 2.9360	 5.2130
 2.9380	 5.2740
 2.9400	 5.2820
 2.9410	 5.1990
 2.9430	 5.0890
 2.9450	 5.2100
 2.9460	 5.2370
 2.9480	 5.2380
 2.9500	 5.1360
 2.9510	 5.1760
 2.9530	 5.1940
 2.9550	 5.2600
 2.9560	 5.2330
 2.9580	 5.2960
 2.9600	 5.3200
 2.9610	 5.3220
 2.9630	 5.2390
 2.9650	 5.2710
 2.9660	 5.2410
 2.9680	 5.2930
 2.9700	 5.3280
 2.9720	 5.3660
 2.9730	 5.2400
 2.9750	 5.2500
 2.9770	 5.2050
 2.9780	 5.3190
 2.9800	 5.4400
 2.9820	 5.3540
 2.9840	 5.2780
 2.9850	 5.3990
 2.9870	 5.3810
 2.9890	 5.4050
 2.9900	 5.3820
 2.9920	 5.3440
 2.9940	 5.3070
 2.9960	 5.3080
 2.9970	 5.2600
 2.9990	 5.3230
 3.0010	 5.2100
 3.0030	 5.2730
 3.0040	 5.3310
 3.0060	 5.3150
 3.0080	 5.2950
 3.0100	 5.3260
 3.0110	 5.1970
 3.0130	 5.3000
 3.0150	 5.2740
 3.0170	 5.2670
 3.0180	 5.2290
 3.0200	 5.3300
 3.0220	 5.2960
 3.0240	 5.2640
 3.0250	 5.2070
 3.0270	 5.3440
 3.0290	 5.3410
 3.0310	 5.4140
 3.0320	 5.3860
 3.0340	 5.3960
 3.0360	 5.4270
 3.0380	 5.4240
 3.0400	 5.2190
 3.0410	 5.2430
 3.0430	 5.2820
 3.0450	 5.2950
 3.0470	 5.2290
 3.0480	 5.2640
 3.0500	 5.2080
 3.0520	 5.2050
 3.0540	 5.2130
 3.0560	 5.3220
 3.0570	 5.3360
 3.0590	 5.3500
 3.0610	 5.2380
 3.0630	 5.3150
 3.0650	 5.4060
 3.0660	 5.3940
 3.0680	 5.2480
 3.0700	 5.1810
 3.0720	 5.1200
 3.0740	 5.2230
 3.0760	 5.2570
 3.0770	 5.2630
 3.0790	 5.2010
 3.0810	 5.2800
 3.0830	 5.2440
 3.0850	 5.2710
 3.0870	 5.3500
 3.0880	 5.4050
 3.0900	 5.2930
 3.0920	 5.2670
 3.0940	 5.2510
 3.0960	 5.2460
 3.0980	 5.1630
 3.0990	 5.2490
 3.1010	 5.2930
 3.1030	 5.3150
 3.1050	 5.2510
 3.1070	 5.3230
 3.1090	 5.2830
 3.1110	 5.1960
 3.1120	 5.1320
 3.1140	 5.2080
 3.1160	 5.1970
 3.1180	 5.2580
 3.1200	 5.2200
 3.1220	 5.3140
 3.1240	 5.2220
 3.1260	 5.1980
 3.1270	 5.1900
 3.1290	 5.2090
 3.1310	 5.1750
 3.1330	 5.1860
 3.1350	 5.2370
 3.1370	 5.3950
 3.1390	 5.3630
 3.1410	 5.3340
 3.1430	 5.2220
 3.1450	 5.2900
 3.1460	 5.2990
 3.1480	 5.2020
 3.1500	 5.1540
 3.1520	 5.2890
 3.1540	 5.2520
 3.1560	 5.2150
 3.1580	 5.1900
 3.1600	 5.2030
 3.1620	 5.1700
 3.1640	 5.2650
 3.1660	 5.2370
 3.1680	 5.2140
 3.1700	 5.1520
 3.1710	 5.1710
 3.1730	 5.2240
 3.1750	 5.2820
 3.1770	 5.2220
 3.1790	 5.2200
 3.1810	 5.1510
 3.1830	 5.1500
 3.1850	 5.1550
 3.1870	 5.1410
 3.1890	 5.0920
 3.1910	 5.1420
 3.1930	 5.1580
 3.1950	 5.2330
 3.1970	 5.1570
 3.1990	 5.0850
 3.2010	 5.0220
 3.2030	 5.0810
 3.2050	 5.1360
 3.2070	 5.1570
 3.2090	 5.1400
 3.2110	 5.2600
 3.2130	 5.2100
 3.2150	 5.1370
 3.2170	 5.1590
 3.2190	 5.2160
 3.2210	 5.1690
 3.2230	 5.1520
 3.2250	 5.0450
 3.2270	 5.0880
 3.2290	 5.1330
 3.2310	 5.1640
 3.2330	 5.1610
 3.2350	 5.1850
 3.2370	 5.0860
 3.2390	 5.1030
 3.2410	 5.1610
 3.2430	 5.1650
 3.2450	 5.0440
 3.2470	 5.0230
 3.2490	 5.0270
 3.2510	 5.0520
 3.2530	 5.0160
 3.2550	 5.0250
 3.2570	 5.0480
 3.2590	 5.1000
 3.2610	 5.0840
 3.2630	 5.0870
 3.2650	 5.0850
 3.2670	 5.1230
 3.2690	 5.0610
 3.2720	 5.0150
 3.2740	 4.9630
 3.2760	 4.9670
 3.2780	 5.0100
 3.2800	 5.0720
 3.2820	 5.0850
 3.2840	 5.1440
 3.2860	 5.0480
 3.2880	 4.9960
 3.2900	 4.9630
 3.2920	 4.9820
 3.2940	 4.8890
 3.2960	 4.7950
 3.2990	 4.8290
 3.3010	 4.9660
 3.3030	 4.9280
 3.3050	 4.9430
 3.3070	 4.8590
 3.3090	 4.8590
 3.3110	 4.7990
 3.3130	 4.8240
 3.3150	 4.8040
 3.3180	 4.8750
 3.3200	 4.8680
 3.3220	 4.8370
 3.3240	 4.7950
 3.3260	 4.8550
 3.3280	 4.8990
 3.3300	 4.8950
 3.3330	 4.7250
 3.3350	 4.6610
 3.3370	 4.6630
 3.3390	 4.7370
 3.3410	 4.7550
 3.3430	 4.7430
 3.3450	 4.7040
 3.3480	 4.7070
 3.3500	 4.5720
 3.3520	 4.5180
 3.3540	 4.4750
 3.3560	 4.5440
 3.3580	 4.4980
 3.3610	 4.4590
 3.3630	 4.3830
 3.3650	 4.4370
 3.3670	 4.4430
 3.3690	 4.4780
 3.3720	 4.5020
 3.3740	 4.5440
 3.3760	 4.5360
 3.3780	 4.5610
 3.3800	 4.5790
 3.3830	 4.6100
 3.3850	 4.5960
 3.3870	 4.7000
 3.3890	 4.5900
 3.3910	 4.5040
 3.3940	 4.4190
 3.3960	 4.4020
 3.3980	 4.4480
 3.4000	 4.6020
 3.4020	 4.7040
 3.4050	 4.7630
 3.4070	 4.8500
 3.4090	 5.1700
 3.4110	 5.4360
 3.4140	 5.7190
 3.4160	 6.1140
 3.4180	 6.6970
 3.4200	 7.3720
 3.4230	 8.2390
 3.4250	 9.2150
 3.4270	10.3600
 3.4290	10.9210
 3.4320	10.4760
 3.4340	 9.3150
 3.4360	 8.3730
 3.4390	 7.7400
 3.4410	 7.3240
 3.4430	 7.0380
 3.4450	 6.9390
 3.4480	 6.8470
 3.4500	 6.8250
 3.4520	 6.7670
 3.4550	 6.6540
 3.4570	 6.5020
 3.4590	 6.4610
 3.4620	 6.3880
 3.4640	 6.3130
 3.4660	 6.1520
 3.4680	 6.0230
 3.4710	 5.8970
 3.4730	 5.9330
 3.4750	 5.9660
 3.4780	 5.8890
 3.4800	 5.7140
 3.4820	 5.6890
 3.4850	 5.6620
 3.4870	 5.6020
 3.4890	 5.5630
 3.4920	 5.5680
 3.4940	 5.5520
 3.4970	 5.6450
 3.4990	 5.8140
 3.5010	 6.2010
 3.5040	 6.5230
 3.5060	 7.2460
 3.5080	 8.6720
 3.5110	 9.9770
 3.5130	 9.7740
 3.5160	 8.6910
 3.5180	 7.7730
 3.5200	 7.2890
 3.5230	 6.9490
 3.5250	 6.7420
 3.5270	 6.5570
 3.5300	 6.5050
 3.5320	 6.3970
 3.5350	 6.2840
 3.5370	 6.2190
 3.5400	 6.2780
 3.5420	 6.1860
 3.5440	 6.1240
 3.5470	 6.0900
 3.5490	 6.1100
 3.5520	 6.1110
 3.5540	 6.1950
 3.5570	 6.0860
 3.5590	 5.9390
 3.5610	 5.9840
 3.5640	 6.0810
 3.5660	 5.9560
 3.5690	 5.9500
 3.5710	 6.0110
 3.5740	 5.9460
 3.5760	 5.9270
 3.5790	 6.0230
 3.5810	 5.9330
 3.5840	 5.9110
 3.5860	 5.9000
 3.5890	 5.9240
 3.5910	 5.8800
 3.5930	 5.8260
 3.5960	 5.7840
 3.5980	 5.7430
 3.6010	 5.7190
 3.6030	 5.7980
 3.6060	 5.7870
 3.6080	 5.7690
 3.6110	 5.7750
 3.6140	 5.8700
 3.6160	 5.9080
 3.6190	 5.8760
 3.6210	 5.7380
 3.6240	 5.7120
 3.6260	 5.7470
 3.6290	 5.8370
 3.6310	 5.8500
 3.6340	 5.8130
 3.6360	 5.6810
 3.6390	 5.6050
 3.6410	 5.6180
 3.6440	 5.6970
 3.6470	 5.6570
 3.6490	 5.7040
 3.6520	 5.7490
 3.6540	 5.7150
 3.6570	 5.6180
 3.6590	 5.5560
 3.6620	 5.5350
 3.6650	 5.6380
 3.6670	 5.7070
 3.6700	 5.7370
 3.6720	 5.6540
 3.6750	 5.6660
 3.6780	 5.6780
 3.6800	 5.6370
 3.6830	 5.6040
 3.6850	 5.7110
 3.6880	 5.7190
 3.6910	 5.6940
 3.6930	 5.5770
 3.6960	 5.5430
 3.6990	 5.5670
 3.7010	 5.6080
 3.7040	 5.6070
 3.7060	 5.6570
 3.7090	 5.6420
 3.7120	 5.6330
 3.7140	 5.5540
 3.7170	 5.5640
 3.7200	 5.6040
 3.7220	 5.6820
 3.7250	 5.6530
 3.7280	 5.6220
 3.7300	 5.6170
 3.7330	 5.6020
 3.7360	 5.6240
 3.7390	 5.7020
 3.7410	 5.6590
 3.7440	 5.6000
 3.7470	 5.6020
 3.7490	 5.6630
 3.7520	 5.6130
 3.7550	 5.5910
 3.7580	 5.5390
 3.7600	 5.5840
 3.7630	 5.6180
 3.7660	 5.6620
 3.7680	 5.6500
 3.7710	 5.6240
 3.7740	 5.5730
 3.7770	 5.5950
 3.7790	 5.6130
 3.7820	 5.6460
 3.7850	 5.6020
 3.7880	 5.5990
 3.7900	 5.5900
 3.7930	 5.5880
 3.7960	 5.5420
 3.7990	 5.5630
 3.8020	 5.5460
 3.8040	 5.5480
 3.8070	 5.5790
 3.8100	 5.6650
 3.8130	 5.6900
 3.8160	 5.6420
 3.8180	 5.5340
 3.8210	 5.5510
 3.8240	 5.5920
 3.8270	 5.6130
 3.8300	 5.6010
 3.8330	 5.5820
 3.8350	 5.5760
 3.8380	 5.6430
 3.8410	 5.6570
 3.8440	 5.6360
 3.8470	 5.5860
 3.8500	 5.5420
 3.8520	 5.5090
 3.8550	 5.6160
 3.8580	 5.6100
 3.8610	 5.5720
 3.8640	 5.5790
 3.8670	 5.6740
 3.8700	 5.6200
 3.8730	 5.5850
 3.8750	 5.5820
 3.8780	 5.5870
 3.8810	 5.5840
 3.8840	 5.6150
 3.8870	 5.5910
 3.8900	 5.5930
 3.8930	 5.5600
 3.8960	 5.6290
 3.8990	 5.6250
 3.9020	 5.5820
 3.9050	 5.5770
 3.9080	 5.6300
 3.9110	 5.5920
 3.9140	 5.5490
 3.9160	 5.5410
 3.9190	 5.5880
 3.9220	 5.5820
 3.9250	 5.5170
 3.9280	 5.4610
 3.9310	 5.5320
 3.9340	 5.5670
 3.9370	 5.5710
 3.9400	 5.5610
 3.9430	 5.5870
 3.9460	 5.6420
 3.9490	 5.6560
 3.9520	 5.6000
 3.9550	 5.6150
 3.9580	 5.6500
 3.9610	 5.7280
 3.9640	 5.6670
 3.9670	 5.6050
 3.9700	 5.5460
 3.9730	 5.5330
 3.9770	 5.5930
 3.9800	 5.6600
 3.9830	 5.6010
 3.9860	 5.5980
 3.9890	 5.6460
 3.9920	 5.6560
 3.9950	 5.5580
 3.9980	 5.5630
 4.0010	 5.5450
 4.0040	 5.5640
 4.0070	 5.5620
 4.0100	 5.5700
 4.0130	 5.5960
 4.0170	 5.6450
 4.0200	 5.6770
 4.0230	 5.6500
 4.0260	 5.5540
 4.0290	 5.5750
 4.0320	 5.6100
 4.0350	 5.5620
 4.0380	 5.4970
 4.0420	 5.5410
 4.0450	 5.5590
 4.0480	 5.6280
 4.0510	 5.6270
 4.0540	 5.5480
 4.0570	 5.5740
 4.0610	 5.6530
 4.0640	 5.6880
 4.0670	 5.6400
 4.0700	 5.5680
 4.0730	 5.6110
 4.0770	 5.6040
 4.0800	 5.5870
 4.0830	 5.5600
 4.0860	 5.5950
 4.0890	 5.6090
 4.0930	 5.6180
 4.0960	 5.5980
 4.0990	 5.5860
 4.1020	 5.6110
 4.1060	 5.6590
 4.1090	 5.6370
 4.1120	 5.5850
 4.1150	 5.5360
 4.1190	 5.5980
 4.1220	 5.6090
 4.1250	 5.6300
 4.1280	 5.6210
 4.1320	 5.6020
 4.1350	 5.5550
 4.1380	 5.5390
 4.1420	 5.5470
 4.1450	 5.5600
 4.1480	 5.5980
 4.1520	 5.5900
 4.1550	 5.5240
 4.1580	 5.5680
 4.1620	 5.5820
 4.1650	 5.5710
 4.1680	 5.5400
 4.1720	 5.4920
 4.1750	 5.4880
 4.1780	 5.5160
 4.1820	 5.5300
 4.1850	 5.5720
 4.1890	 5.5820
 4.1920	 5.5850
 4.1950	 5.5960
 4.1990	 5.7010
 4.2020	 5.7140
 4.2060	 5.6910
 4.2090	 5.6870
 4.2120	 5.7630
 4.2160	 5.7710
 4.2190	 5.7810
 4.2230	 5.7930
 4.2260	 5.8850
 4.2300	 5.9230
 4.2330	 5.9990
 4.2360	 6.0270
 4.2400	 5.9790
 4.2430	 5.9870
 4.2470	 5.8940
 4.2500	 5.7570
 4.2540	 5.7320
 4.2570	 5.6960
 4.2610	 5.6900
 4.2640	 5.7220
 4.2680	 5.7830
 4.2710	 5.8920
 4.2750	 5.9380
 4.2780	 5.8630
 4.2820	 5.8740
 4.2850	 5.8350
 4.2890	 5.7570
 4.2930	 5.8090
 4.2960	 5.8540
 4.3000	 5.7020
 4.3030	 5.6610
 4.3070	 5.6940
 4.3100	 5.7610
 4.3140	 5.7490
 4.3180	 5.6150
 4.3210	 5.5320
 4.3250	 5.5470
 4.3280	 5.5880
 4.3320	 5.5730
 4.3360	 5.5310
 4.3390	 5.5090
 4.3430	 5.4930
 4.3470	 5.4580
 4.3500	 5.5010
 4.3540	 5.5280
 4.3570	 5.4950
 4.3610	 5.4960
 4.3650	 5.5110
 4.3680	 5.4890
 4.3720	 5.4830
 4.3760	 5.5000
 4.3800	 5.5140
 4.3830	 5.5040
 4.3870	 5.5150
 4.3910	 5.5660
 4.3940	 5.5430
 4.3980	 5.5110
 4.4020	 5.4570
 4.4060	 5.4220
 4.4090	 5.4270
 4.4130	 5.4930
 4.4170	 5.4720
 4.4210	 5.4300
 4.4240	 5.4620
 4.4280	 5.5110
 4.4320	 5.4630
 4.4360	 5.4530
 4.4400	 5.4500
 4.4430	 5.4860
 4.4470	 5.4500
 4.4510	 5.3520
 4.4550	 5.3970
 4.4590	 5.5430
 4.4620	 5.5610
 4.4660	 5.4520
 4.4700	 5.3980
 4.4740	 5.3980
 4.4780	 5.4230
 4.4820	 5.4370
 4.4860	 5.4170
 4.4900	 5.4290
 4.4930	 5.4290
 4.4970	 5.4200
 4.5010	 5.4760
 4.5050	 5.4930
 4.5090	 5.4460
 4.5130	 5.4490
 4.5170	 5.4470
 4.5210	 5.3770
 4.5250	 5.3700
 4.5290	 5.4580
 4.5330	 5.4080
 4.5370	 5.3560
 4.5410	 5.3670
 4.5450	 5.3540
 4.5490	 5.3480
 4.5530	 5.3650
 4.5570	 5.4310
 4.5610	 5.4640
 4.5650	 5.4370
 4.5690	 5.3760
 4.5730	 5.3680
 4.5770	 5.3660
 4.5810	 5.3710
 4.5850	 5.3930
 4.5890	 5.4460
 4.5930	 5.4280
 4.5970	 5.4380
 4.6010	 5.4560
 4.6050	 5.4350
 4.6090	 5.4040
 4.6130	 5.3960
 4.6170	 5.4130
 4.6220	 5.4520
 4.6260	 5.4370
 4.6300	 5.4260
 4.6340	 5.4070
 4.6380	 5.4240
 4.6420	 5.4280
 4.6460	 5.4230
 4.6510	 5.3980
 4.6550	 5.4310
 4.6590	 5.4330
 4.6630	 5.4010
 4.6670	 5.3940
 4.6720	 5.4610
 4.6760	 5.4520
 4.6800	 5.4070
 4.6840	 5.4050
 4.6880	 5.3970
 4.6930	 5.3560
 4.6970	 5.2980
 4.7010	 5.3340
 4.7050	 5.4070
 4.7100	 5.4570
 4.7140	 5.4990
 4.7180	 5.4360
 4.7230	 5.3300
 4.7270	 5.2910
 4.7310	 5.3230
 4.7360	 5.3770
 4.7400	 5.3750
 4.7440	 5.3370
 4.7490	 5.3530
 4.7530	 5.4100
 4.7570	 5.3850
 4.7620	 5.3280
 4.7660	 5.3350
 4.7700	 5.3560
 4.7750	 5.3540
 4.7790	 5.3300
 4.7840	 5.3200
 4.7880	 5.3030
 4.7920	 5.3280
 4.7970	 5.3720
 4.8010	 5.4000
 4.8060	 5.3270
 4.8100	 5.3090
 4.8150	 5.3580
 4.8190	 5.4050
 4.8240	 5.4110
 4.8280	 5.4340
 4.8330	 5.4450
 4.8370	 5.3700
 4.8420	 5.3260
 4.8460	 5.3850
 4.8510	 5.3470
 4.8550	 5.3970
 4.8600	 5.4490
 4.8640	 5.3860
 4.8690	 5.2960
 4.8730	 5.2530
 4.8780	 5.3150
 4.8830	 5.4070
 4.8870	 5.4320
 4.8920	 5.3630
 4.8960	 5.3230
 4.9010	 5.3840
 4.9060	 5.4110
 4.9100	 5.3590
 4.9150	 5.2740
 4.9200	 5.3370
 4.9240	 5.3610
 4.9290	 5.3410
 4.9340	 5.3050
 4.9380	 5.2830
 4.9430	 5.3160
 4.9480	 5.4210
 4.9530	 5.4320
 4.9570	 5.4360
 4.9620	 5.3530
 4.9670	 5.3780
 4.9720	 5.3770
 4.9760	 5.3550
 4.9810	 5.3570
 4.9860	 5.3190
 4.9910	 5.2560
 4.9960	 5.3380
 5.0000	 5.4100
 5.0050	 5.4170
 5.0100	 5.3810
 5.0150	 5.3970
 5.0200	 5.3410
 5.0250	 5.3530
 5.0290	 5.3230
 5.0340	 5.2940
 5.0390	 5.2790
 5.0440	 5.3330
 5.0490	 5.3750
 5.0540	 5.3940
 5.0590	 5.4220
 5.0640	 5.4240
 5.0690	 5.4330
 5.0740	 5.4390
 5.0790	 5.3550
 5.0840	 5.3370
 5.0890	 5.3350
 5.0940	 5.3380
 5.0990	 5.3530
 5.1040	 5.3250
 5.1090	 5.3410
 5.1140	 5.3900
 5.1190	 5.3700
 5.1240	 5.3580
 5.1290	 5.3650
 5.1340	 5.3610
 5.1390	 5.3220
 5.1440	 5.3600
 5.1490	 5.3660
 5.1540	 5.3040
 5.1600	 5.2690
 5.1650	 5.2630
 5.1700	 5.2760
 5.1750	 5.3210
 5.1800	 5.3110
 5.1850	 5.3410
 5.1910	 5.3530
 5.1960	 5.3460
 5.2010	 5.3170
 5.2060	 5.2640
 5.2110	 5.2080
 5.2170	 5.2520
 5.2220	 5.2750
 5.2270	 5.3440
 5.2320	 5.3400
 5.2380	 5.3300
 5.2430	 5.2740
 5.2480	 5.3040
 5.2540	 5.2910
 5.2590	 5.3130
 5.2640	 5.2710
 5.2700	 5.2640
 5.2750	 5.2830
 5.2800	 5.2230
 5.2860	 5.2280
 5.2910	 5.3380
 5.2970	 5.3220
 5.3020	 5.2820
 5.3070	 5.2110
 5.3130	 5.2120
 5.3180	 5.1990
 5.3240	 5.2300
 5.3290	 5.2220
 5.3350	 5.2190
 5.3400	 5.2000
 5.3460	 5.2330
 5.3510	 5.2430
 5.3570	 5.2760
 5.3620	 5.2640
 5.3680	 5.2480
 5.3730	 5.2270
 5.3790	 5.2290
 5.3850	 5.2760
 5.3900	 5.2320
 5.3960	 5.1470
 5.4010	 5.1830
 5.4070	 5.2380
 5.4130	 5.1980
 5.4180	 5.0960
 5.4240	 5.1370
 5.4300	 5.1710
 5.4350	 5.1660
 5.4410	 5.1640
 5.4470	 5.1570
 5.4530	 5.1240
 5.4580	 5.1570
 5.4640	 5.1260
 5.4700	 5.1530
 5.4760	 5.1110
 5.4810	 5.1400
 5.4870	 5.1260
 5.4930	 5.1460
 5.4990	 5.1360
 5.5050	 5.1890
 5.5110	 5.1880
 5.5160	 5.1400
 5.5220	 5.0240
 5.5280	 4.9820
 5.5340	 5.0170
 5.5400	 5.1180
 5.5460	 5.0730
 5.5520	 5.0450
 5.5580	 5.0030
 5.5640	 5.0360
 5.5700	 5.0360
 5.5760	 5.0380
 5.5820	 4.9560
 5.5880	 4.9410
 5.5940	 4.9670
 5.6000	 5.0060
 5.6060	 4.9080
 5.6120	 4.8540
 5.6180	 4.7780
 5.6240	 4.7800
 5.6300	 4.8260
 5.6360	 4.8560
 5.6420	 4.7930
 5.6490	 4.8130
 5.6550	 4.7390
 5.6610	 4.6660
 5.6670	 4.6720
 5.6730	 4.7200
 5.6800	 4.6250
 5.6860	 4.6120
 5.6920	 4.6170
 5.6980	 4.5850
 5.7040	 4.4470
 5.7110	 4.3430
 5.7170	 4.3190
 5.7230	 4.3620
 5.7300	 4.3350
 5.7360	 4.3690
 5.7420	 4.4470
 5.7490	 4.5480
 5.7550	 4.5970
 5.7620	 4.6680
 5.7680	 4.6050
 5.7740	 4.6530
 5.7810	 4.7710
 5.7870	 4.9110
 5.7940	 4.9690
 5.8000	 5.1000
 5.8070	 5.1400
 5.8130	 5.2340
 5.8200	 5.2360
 5.8260	 5.2390
 5.8330	 5.2760
 5.8390	 5.4240
 5.8460	 5.4490
 5.8530	 5.5060
 5.8590	 5.3600
 5.8660	 5.3230
 5.8720	 5.2700
 5.8790	 5.2570
 5.8860	 5.2230
 5.8920	 5.2380
 5.8990	 5.2220
 5.9060	 5.2950
 5.9130	 5.3100
 5.9190	 5.3880
 5.9260	 5.4940
 5.9330	 5.6880
 5.9400	 5.8010
 5.9470	 5.9100
 5.9530	 5.9900
 5.9600	 6.1160
 5.9670	 6.0660
 5.9740	 5.9420
 5.9810	 5.8130
 5.9880	 5.9030
 5.9950	 5.9460
 6.0020	 6.0140
 6.0090	 6.0380
 6.0160	 6.0210
 6.0230	 5.8740
 6.0300	 5.8840
 6.0370	 5.8380
 6.0440	 5.9170
 6.0510	 5.9100
 6.0580	 5.9320
 6.0650	 5.8450
 6.0720	 5.8280
 6.0790	 5.7860
 6.0860	 5.8210
 6.0930	 5.8300
 6.1000	 5.8700
 6.1080	 5.8420
 6.1150	 5.9210
 6.1220	 5.8460
 6.1290	 5.7690
 6.1370	 5.6790
 6.1440	 5.8070
 6.1510	 5.7790
 6.1580	 5.7500
 6.1660	 5.7260
 6.1730	 5.7450
 6.1800	 5.6360
 6.1880	 5.6790
 6.1950	 5.7550
 6.2030	 5.8400
 6.2100	 5.7580
 6.2170	 5.7060
 6.2250	 5.7300
 6.2320	 5.8500
 6.2400	 5.7710
 6.2470	 5.7210
 6.2550	 5.6670
 6.2630	 5.7590
 6.2700	 5.7360
 6.2780	 5.8180
 6.2850	 5.7390
 6.2930	 5.6940
 6.3010	 5.7100
 6.3080	 5.7970
 6.3160	 5.7070
 6.3240	 5.7200
 6.3310	 5.6750
 6.3390	 5.7180
 6.3470	 5.6560
 6.3550	 5.6090
 6.3620	 5.5130
 6.3700	 5.5290
 6.3780	 5.4420
 6.3860	 5.4690
 6.3940	 5.5100
 6.4020	 5.6420
 6.4100	 5.5710
 6.4180	 5.5080
 6.4260	 5.4240
 6.4330	 5.4320
 6.4410	 5.4720
 6.4490	 5.5270
 6.4580	 5.4100
 6.4660	 5.4270
 6.4740	 5.3480
 6.4820	 5.4190
 6.4900	 5.4220
 6.4980	 5.4470
 6.5060	 5.3450
 6.5140	 5.3340
 6.5230	 5.3090
 6.5310	 5.3820
 6.5390	 5.3260
 6.5470	 5.2590
 6.5550	 5.1830
 6.5640	 5.1710
 6.5720	 5.1090
 6.5800	 5.1790
 6.5890	 5.1450
 6.5970	 5.2690
 6.6060	 5.2550
 6.6140	 5.2580
 6.6220	 5.1840
 6.6310	 5.2420
 6.6390	 5.1930
 6.6480	 5.2480
 6.6560	 5.2130
 6.6650	 5.2640
 6.6740	 5.2270
 6.6820	 5.1970
 6.6910	 5.1220
 6.6990	 5.1570
 6.7080	 5.0720
 6.7170	 5.0360
 6.7260	 4.9210
 6.7340	 4.9380
 6.7430	 4.9200
 6.7520	 4.9850
 6.7610	 4.9000
 6.7690	 4.9160
 6.7780	 5.0580
 6.7870	 5.3480
 6.7960	 5.2700
 6.8050	 5.1190
 6.8140	 5.0160
 6.8230	 5.1910
 6.8320	 5.4550
 6.8410	 5.6330
 6.8500	 5.4020
 6.8590	 5.3290
 6.8680	 5.3580
 6.8770	 5.4760
 6.8860	 5.4330
 6.8950	 5.3640
 6.9050	 5.2880
 6.9140	 5.3890
 6.9230	 5.3640
 6.9320	 5.4340
 6.9420	 5.4330
 6.9510	 5.4760
 6.9600	 5.4260
 6.9700	 5.4430
 6.9790	 5.3870
 6.9880	 5.4540
 6.9980	 5.3700
 7.0070	 5.4620
 7.0170	 5.4750
 7.0260	 5.5000
 7.0360	 5.3830
 7.0450	 5.3750
 7.0550	 5.3490
 7.0650	 5.4020
 7.0740	 5.3820
 7.0840	 5.5180
 7.0940	 5.4490
 7.1030	 5.4210
 7.1130	 5.3120
 7.1230	 5.3850
 7.1330	 5.3040
 7.1420	 5.2460
 7.1520	 5.1060
 7.1620	 5.1910
 7.1720	 5.1120
 7.1820	 5.0920
 7.1920	 5.0850
 7.2020	 5.1860
 7.2120	 5.1480
 7.2220	 5.2880
 7.2320	 5.2480
 7.2420	 5.2140
 7.2520	 5.1560
 7.2620	 5.2800
 7.2730	 5.3160
 7.2830	 5.3540
 7.2930	 5.2450
 7.3030	 5.2660
 7.3140	 5.2060
 7.3240	 5.2480
 7.3340	 5.1500
 7.3450	 5.1740
 7.3550	 5.2280
 7.3660	 5.4440
 7.3760	 5.3830
 7.3870	 5.4030
 7.3970	 5.2790
 7.4080	 5.2140
 7.4180	 5.1680
 7.4290	 5.2510
 7.4400	 5.2560
 7.4500	 5.3040
 7.4610	 5.2350
 7.4720	 5.2820
 7.4830	 5.2890
 7.4930	 5.3210
 7.5040	 5.2130
 7.5150	 5.2890
 7.5260	 5.2370
 7.5370	 5.3000
 7.5480	 5.2210
 7.5590	 5.2320
 7.5700	 5.1450
 7.5810	 5.1490
 7.5920	 5.1140
 7.6030	 5.2100
 7.6140	 5.1010
 7.6260	 5.1340
 7.6370	 5.1550
 7.6480	 5.1900
 7.6590	 5.0510
 7.6710	 5.1190
 7.6820	 5.0600
 7.6930	 5.2160
 7.7050	 5.1690
 7.7160	 5.1600
 7.7280	 5.0990
 7.7390	 5.0890
 7.7510	 4.9850
 7.7630	 5.1500
 7.7740	 5.0640
 7.7860	 5.0470
 7.7980	 4.9770
 7.8090	 5.0420
 7.8210	 5.0580
 7.8330	 5.2280
 7.8450	 5.1680
 7.8570	 5.2510
 7.8690	 5.2230
 7.8810	 5.2590
 7.8930	 5.1180
 7.9050	 5.2260
 7.9170	 5.2070
 7.9290	 5.2500
 7.9410	 5.0420
 7.9530	 5.0890
 7.9650	 5.1180
 7.9780	 5.2860
 7.9900	 5.2310
 8.0020	 5.3130
 8.0150	 5.2650
 8.0270	 5.3220
 8.0390	 5.1120
 8.0520	 5.1750
 8.0640	 5.1240
 8.0770	 5.2820
 8.0900	 5.3650
 8.1020	 5.5820
 8.1150	 5.4750
 8.1280	 5.4970
 8.1400	 5.4020
 8.1530	 5.4740
 8.1660	 5.3460
 8.1790	 5.4800
 8.1920	 5.3630
 8.2050	 5.4340
 8.2180	 5.4310
 8.2310	 5.5590
 8.2440	 5.3760
 8.2570	 5.4730
 8.2700	 5.4270
 8.2830	 5.5950
 8.2970	 5.4470
 8.3100	 5.5240
 8.3230	 5.4360
 8.3370	 5.4620
 8.3500	 5.3490
 8.3640	 5.4550
 8.3770	 5.4130
 8.3910	 5.5570
 8.4040	 5.4590
 8.4180	 5.6520
 8.4320	 5.6070
 8.4450	 5.7290
 8.4590	 5.6380
 8.4730	 5.7470
 8.4870	 5.6320
 8.5010	 5.7800
 8.5150	 5.7360
 8.5290	 5.9460
 8.5430	 5.9730
 8.5570	 6.1330
 8.5710	 6.0570
 8.5850	 6.2640
 8.5990	 6.2090
 8.6140	 6.2470
 8.6280	 6.1570
 8.6420	 6.2450
 8.6570	 6.1230
 8.6710	 6.2400
 8.6860	 6.0260
 8.7000	 6.0710
 8.7150	 6.1320
 8.7300	 6.3510
 8.7440	 6.1010
 8.7590	 6.0460
 8.7740	 6.0180
 8.7890	 6.1790
 8.8040	 6.0060
 8.8190	 6.1930
 8.8340	 6.1940
 8.8490	 6.3200
 8.8640	 6.1210
 8.8790	 6.0920
 8.8940	 6.0020
 8.9100	 6.1340
 8.9250	 6.0170
 8.9400	 6.1320
 8.9560	 5.8660
 8.9710	 5.9510
 8.9870	 5.8710
 9.0020	 5.9850
 9.0180	 5.9110
 9.0340	 6.0360
 9.0500	 5.8380
 9.0650	 6.0210
 9.0810	 5.9540
 9.0970	 6.0630
 9.1130	 5.9420
 9.1290	 6.0920
 9.1450	 5.8830
 9.1610	 5.8990
 9.1780	 5.7570
 9.1940	 5.9610
 9.2100	 5.8380
 9.2270	 5.7930
 9.2430	 5.6640
 9.2600	 5.9180
 9.2760	 5.8640
 9.2930	 6.0140
 9.3090	 5.9130
 9.3260	 6.0430
 9.3430	 5.9300
 9.3600	 6.0060
 9.3770	 5.8000
 9.3940	 5.9140
 9.4110	 5.7490
 9.4280	 5.9600
 9.4450	 5.7990
 9.4620	 5.8560
 9.4800	 5.7590
 9.4970	 5.8660
 9.5140	 5.7360
 9.5320	 5.7600
 9.5500	 5.6710
 9.5670	 5.7470
 9.5850	 5.5150
 9.6030	 5.8870
 9.6200	 5.9060
 9.6380	 6.0360
 9.6560	 5.9310
 9.6740	 6.0710
 9.6920	 5.9730
 9.7100	 6.2080
 9.7290	 6.0770
 9.7470	 6.1350
 9.7650	 6.0330
 9.7840	 6.1660
 9.8020	 5.9610
 9.8210	 6.0620
 9.8390	 5.8760
 9.8580	 6.0090
 9.8770	 5.9540
 9.8960	 6.1330
 9.9150	 5.9770
 9.9340	 6.0250
 9.9530	 5.8830
 9.9720	 5.9570
 9.9910	 5.7110
10.0100	 5.8960
10.0300	 5.8200
10.0490	 5.8790
10.0690	 5.7790
10.0880	 6.0330
10.1080	 5.8330
10.1280	 5.8540
10.1480	 5.7340
10.1670	 5.8880
10.1870	 5.7180
10.2070	 5.9460
10.2280	 5.8320
10.2480	 5.8370
10.2680	 5.6310
10.2890	 5.8350
10.3090	 5.7790
10.3300	 6.0140
10.3500	 5.8130
10.3710	 5.8530
10.3920	 5.7350
10.4120	 5.8570
10.4330	 5.8360
10.4540	 5.9840
10.4760	 5.7460
10.4970	 5.8920
10.5180	 5.7510
10.5390	 5.9480
10.5610	 5.8940
10.5820	 5.9810
10.6040	 5.8450
10.6260	 6.0840
10.6480	 6.0250
10.6700	 6.0740
10.6920	 5.8980
10.7140	 6.0560
10.7360	 5.9080
10.7580	 6.0730
10.7800	 5.9860
10.8030	 6.2390
10.8250	 5.9030
10.8480	 5.8390
10.8710	 5.7800
10.8940	 5.9900
10.9170	 5.6770
10.9400	 5.8130
10.9630	 5.7240
10.9860	 5.8760
11.0090	 5.7980
11.0330	 5.9580
11.0560	 5.7880
11.0800	 5.8640
11.1040	 5.5970
11.1270	 5.6970
11.1510	 5.6020
11.1750	 5.7150
11.2000	 5.5080
11.2240	 5.7230
11.2480	 5.5320
11.2730	 5.8740
11.2970	 5.7510
11.3220	 5.7600
11.3470	 5.6170
11.3720	 5.9000
11.3970	 5.7300
11.4220	 5.8300
11.4470	 5.6780
11.4720	 5.7760
11.4980	 5.4970
11.5230	 5.7540
11.5490	 5.6220
11.5750	 5.7230
11.6000	 5.5520
11.6260	 5.6110
11.6530	 5.3890
11.6790	 5.6920
11.7050	 5.4540
11.7320	 5.5610
11.7580	 5.4700
11.7850	 5.8160
11.8120	 5.4840
11.8390	 5.5370
11.8660	 5.3420
11.8930	 5.5090
11.9200	 5.3170
11.9480	 5.4930
11.9760	 5.4810
12.0030	 5.8200
12.0310	 5.5580
12.0590	 5.7140
12.0870	 5.5890
12.1150	 5.8330
12.1440	 5.5770
12.1720	 5.7860
12.2010	 5.5160
12.2300	 5.7270
12.2590	 5.6580
12.2880	 5.8320
12.3170	 5.5560
12.3460	 5.8810
12.3760	 5.5230
12.4050	 5.5660
12.4350	 5.4310
12.4650	 5.8140
12.4950	 5.5180
12.5250	 5.7360
12.5550	 5.6380
12.5860	 5.9930
12.6170	 5.6940
12.6470	 5.9580
12.6780	 5.7100
12.7090	 5.7790
12.7410	 5.3760
12.7720	 5.7660
12.8030	 5.6850
12.8350	 5.7960
12.8670	 5.4280
12.8990	 5.7920
12.9310	 5.6310
12.9640	 5.8430
12.9960	 5.5050
13.0290	 5.7790
13.0610	 5.5020
13.0940	 5.8660
13.1280	 5.7100
13.1610	 5.9010
13.1940	 5.5880
13.2280	 5.6630
13.2620	 5.4740
13.2960	 5.7900
13.3300	 5.4930
13.3640	 5.7310
13.3990	 5.4750
13.4340	 5.8190
13.4690	 5.7620
13.5040	 6.1580
13.5390	 5.8260
13.5740	 6.1210
13.6100	 5.8760
13.6460	 6.2570
13.6820	 6.1930
13.7180	 6.3960
13.7540	 5.8170
13.7910	 6.2150
13.8280	 5.8460
13.8650	 6.2410
13.9020	 6.0930
13.9390	 6.3430
13.9770	 6.0620
14.0150	 6.4320
14.0530	 5.9640
14.0910	 6.0830
14.1290	 5.7270
14.1680	 6.2240
14.2070	 5.8120
14.2460	 6.1770
14.2850	 5.9370
14.3240	 6.5280
14.3640	 6.2010
14.4040	 6.4330
14.4440	 5.8250
14.4840	 6.1670
14.5250	 5.9890
14.5660	 6.8040
14.6070	 6.6140
14.6480	 6.9380
14.6900	 6.0180
14.7310	 6.5390
14.7730	 6.2020
14.8150	 6.5060
14.8580	 6.2260
14.9010	 6.7080
14.9440	 6.0760
14.9870	 6.7820
15.0300	 5.9560
15.0740	 6.2470
15.1180	 5.5770
15.1620	 6.6340
15.2060	 6.1260
15.2510	 6.4580
15.2960	 5.5410
15.3410	 6.2150
15.3870	 5.9820
