Name: Arctostaphylos glandulosa 3
Type: vegetation
Class: Shrub
Genus: Arctostaphylos
Species: glandulosa
Sample No.: VH253
Owner: UCSB
Wavelength Range: VSWIR
Origin: 37.0443; -119.3026; WGS84
Collection Date: 11/2/2013
Description: Samples were collected as part of the HyspIRI Airborne Campaign. 48 individual plants were sampled in three times in 2013 - spring  summer  and fall. The name of the sample includes a 1  2  or 3 which references a different individual of the species. Samples were taken to JPL and processed within 48 hours of collection. The same leaves were processed in the Nicolet and then measured using the ASD.
Measurement: Bidirectional reflectance
First Column: X
Second Column: Y
X Units: Wavelength (micrometers)
Y Units: Reflectance (percentage)
First X Value: 0.35
Last X Value: 2.5
Number of X Values: 2151
Additional Information: vegetation.shrub.arctostaphylos.glandulosa.vswir.vh253.ucsb.asd.ancillary.txt

 0.3500	 4.2150
 0.3510	 4.4430
 0.3520	 4.3100
 0.3530	 4.0760
 0.3540	 4.0340
 0.3550	 4.0190
 0.3560	 4.0830
 0.3570	 4.1530
 0.3580	 4.1190
 0.3590	 4.0940
 0.3600	 4.0750
 0.3610	 4.0560
 0.3620	 4.0540
 0.3630	 4.0550
 0.3640	 4.0730
 0.3650	 4.1170
 0.3660	 4.1430
 0.3670	 4.1520
 0.3680	 4.1520
 0.3690	 4.1520
 0.3700	 4.1400
 0.3710	 4.0870
 0.3720	 4.0210
 0.3730	 4.0720
 0.3740	 4.1090
 0.3750	 4.1220
 0.3760	 4.1370
 0.3770	 4.1490
 0.3780	 4.1280
 0.3790	 4.1070
 0.3800	 4.1650
 0.3810	 4.1520
 0.3820	 4.1140
 0.3830	 4.1030
 0.3840	 4.1140
 0.3850	 4.1230
 0.3860	 4.1260
 0.3870	 4.1280
 0.3880	 4.1000
 0.3890	 4.1160
 0.3900	 4.1690
 0.3910	 4.1760
 0.3920	 4.1590
 0.3930	 4.1460
 0.3940	 4.1470
 0.3950	 4.1150
 0.3960	 4.1480
 0.3970	 4.2020
 0.3980	 4.1870
 0.3990	 4.2120
 0.4000	 4.2400
 0.4010	 4.2520
 0.4020	 4.2720
 0.4030	 4.2840
 0.4040	 4.3090
 0.4050	 4.3610
 0.4060	 4.4050
 0.4070	 4.4280
 0.4080	 4.4400
 0.4090	 4.4700
 0.4100	 4.5090
 0.4110	 4.5520
 0.4120	 4.5930
 0.4130	 4.6180
 0.4140	 4.6500
 0.4150	 4.7020
 0.4160	 4.7770
 0.4170	 4.8310
 0.4180	 4.8660
 0.4190	 4.9010
 0.4200	 4.9650
 0.4210	 5.0050
 0.4220	 5.0450
 0.4230	 5.1020
 0.4240	 5.1440
 0.4250	 5.2010
 0.4260	 5.2670
 0.4270	 5.3220
 0.4280	 5.3820
 0.4290	 5.4320
 0.4300	 5.4740
 0.4310	 5.5370
 0.4320	 5.6010
 0.4330	 5.6620
 0.4340	 5.7170
 0.4350	 5.7540
 0.4360	 5.8110
 0.4370	 5.8870
 0.4380	 5.9440
 0.4390	 6.0080
 0.4400	 6.0750
 0.4410	 6.1380
 0.4420	 6.1900
 0.4430	 6.2530
 0.4440	 6.3200
 0.4450	 6.3760
 0.4460	 6.4380
 0.4470	 6.5020
 0.4480	 6.5630
 0.4490	 6.6250
 0.4500	 6.6850
 0.4510	 6.7540
 0.4520	 6.8350
 0.4530	 6.9020
 0.4540	 6.9630
 0.4550	 7.0220
 0.4560	 7.0860
 0.4570	 7.1630
 0.4580	 7.2310
 0.4590	 7.2850
 0.4600	 7.3460
 0.4610	 7.4050
 0.4620	 7.4640
 0.4630	 7.5300
 0.4640	 7.5970
 0.4650	 7.6550
 0.4660	 7.7050
 0.4670	 7.7650
 0.4680	 7.8130
 0.4690	 7.8600
 0.4700	 7.9140
 0.4710	 7.9550
 0.4720	 7.9880
 0.4730	 8.0170
 0.4740	 8.0490
 0.4750	 8.0800
 0.4760	 8.1160
 0.4770	 8.1530
 0.4780	 8.1670
 0.4790	 8.1730
 0.4800	 8.1940
 0.4810	 8.2410
 0.4820	 8.2770
 0.4830	 8.3110
 0.4840	 8.3500
 0.4850	 8.3920
 0.4860	 8.4250
 0.4870	 8.4690
 0.4880	 8.5340
 0.4890	 8.5910
 0.4900	 8.6500
 0.4910	 8.7160
 0.4920	 8.7870
 0.4930	 8.8610
 0.4940	 8.9430
 0.4950	 9.0370
 0.4960	 9.1380
 0.4970	 9.2380
 0.4980	 9.3400
 0.4990	 9.4520
 0.5000	 9.5720
 0.5010	 9.7050
 0.5020	 9.8470
 0.5030	 9.9890
 0.5040	10.1400
 0.5050	10.2990
 0.5060	10.4680
 0.5070	10.6550
 0.5080	10.8460
 0.5090	11.0370
 0.5100	11.2320
 0.5110	11.4470
 0.5120	11.6730
 0.5130	11.9040
 0.5140	12.1390
 0.5150	12.3770
 0.5160	12.6230
 0.5170	12.8830
 0.5180	13.1530
 0.5190	13.4340
 0.5200	13.7210
 0.5210	14.0070
 0.5220	14.3140
 0.5230	14.6240
 0.5240	14.9260
 0.5250	15.2370
 0.5260	15.5480
 0.5270	15.8600
 0.5280	16.1750
 0.5290	16.4820
 0.5300	16.7850
 0.5310	17.0890
 0.5320	17.3970
 0.5330	17.6920
 0.5340	17.9760
 0.5350	18.2530
 0.5360	18.5170
 0.5370	18.7740
 0.5380	19.0250
 0.5390	19.2700
 0.5400	19.5040
 0.5410	19.7260
 0.5420	19.9390
 0.5430	20.1530
 0.5440	20.3600
 0.5450	20.5630
 0.5460	20.7670
 0.5470	20.9670
 0.5480	21.1650
 0.5490	21.3540
 0.5500	21.5200
 0.5510	21.6760
 0.5520	21.8180
 0.5530	21.9440
 0.5540	22.0610
 0.5550	22.1550
 0.5560	22.2270
 0.5570	22.2850
 0.5580	22.3250
 0.5590	22.3520
 0.5600	22.3700
 0.5610	22.3760
 0.5620	22.3730
 0.5630	22.3650
 0.5640	22.3510
 0.5650	22.3110
 0.5660	22.2570
 0.5670	22.1970
 0.5680	22.1370
 0.5690	22.0610
 0.5700	21.9630
 0.5710	21.8500
 0.5720	21.7540
 0.5730	21.6790
 0.5740	21.6150
 0.5750	21.5410
 0.5760	21.4520
 0.5770	21.3620
 0.5780	21.2830
 0.5790	21.2230
 0.5800	21.1710
 0.5810	21.1270
 0.5820	21.0920
 0.5830	21.0580
 0.5840	21.0280
 0.5850	20.9980
 0.5860	20.9530
 0.5870	20.9230
 0.5880	20.9250
 0.5890	20.9560
 0.5900	20.9640
 0.5910	20.9570
 0.5920	20.9500
 0.5930	20.9630
 0.5940	20.9920
 0.5950	21.0220
 0.5960	21.0440
 0.5970	21.0600
 0.5980	21.0660
 0.5990	21.0660
 0.6000	21.0690
 0.6010	21.0820
 0.6020	21.0850
 0.6030	21.0710
 0.6040	21.0470
 0.6050	21.0160
 0.6060	20.9770
 0.6070	20.9300
 0.6080	20.8780
 0.6090	20.8080
 0.6100	20.7180
 0.6110	20.6190
 0.6120	20.5380
 0.6130	20.4710
 0.6140	20.4070
 0.6150	20.3280
 0.6160	20.2530
 0.6170	20.1830
 0.6180	20.1180
 0.6190	20.0620
 0.6200	20.0130
 0.6210	19.9750
 0.6220	19.9510
 0.6230	19.9350
 0.6240	19.9330
 0.6250	19.9450
 0.6260	19.9600
 0.6270	19.9810
 0.6280	20.0090
 0.6290	20.0450
 0.6300	20.0780
 0.6310	20.1100
 0.6320	20.1430
 0.6330	20.1700
 0.6340	20.1790
 0.6350	20.1710
 0.6360	20.1490
 0.6370	20.1080
 0.6380	20.0520
 0.6390	19.9790
 0.6400	19.8810
 0.6410	19.7670
 0.6420	19.6440
 0.6430	19.5120
 0.6440	19.3630
 0.6450	19.2140
 0.6460	19.0630
 0.6470	18.9100
 0.6480	18.7730
 0.6490	18.6540
 0.6500	18.5520
 0.6510	18.4610
 0.6520	18.3870
 0.6530	18.3140
 0.6540	18.2300
 0.6550	18.1380
 0.6560	18.0290
 0.6570	17.8980
 0.6580	17.7390
 0.6590	17.5560
 0.6600	17.3550
 0.6610	17.1390
 0.6620	16.9060
 0.6630	16.6710
 0.6640	16.4400
 0.6650	16.2170
 0.6660	16.0210
 0.6670	15.8320
 0.6680	15.6540
 0.6690	15.4980
 0.6700	15.3680
 0.6710	15.2620
 0.6720	15.1730
 0.6730	15.0960
 0.6740	15.0420
 0.6750	15.0030
 0.6760	14.9710
 0.6770	14.9540
 0.6780	14.9540
 0.6790	14.9750
 0.6800	15.0210
 0.6810	15.0950
 0.6820	15.2140
 0.6830	15.3890
 0.6840	15.6170
 0.6850	15.9140
 0.6860	16.2840
 0.6870	16.7280
 0.6880	17.2600
 0.6890	17.8860
 0.6900	18.6090
 0.6910	19.4280
 0.6920	20.3410
 0.6930	21.3450
 0.6940	22.4390
 0.6950	23.6080
 0.6960	24.8510
 0.6970	26.1590
 0.6980	27.5230
 0.6990	28.9380
 0.7000	30.3820
 0.7010	31.8460
 0.7020	33.3280
 0.7030	34.8050
 0.7040	36.2770
 0.7050	37.7390
 0.7060	39.1770
 0.7070	40.5870
 0.7080	41.9690
 0.7090	43.3320
 0.7100	44.6650
 0.7110	45.9630
 0.7120	47.2290
 0.7130	48.4700
 0.7140	49.6720
 0.7150	50.8360
 0.7160	51.9630
 0.7170	53.0620
 0.7180	54.1250
 0.7190	55.1500
 0.7200	56.1420
 0.7210	57.1040
 0.7220	58.0280
 0.7230	58.9080
 0.7240	59.7440
 0.7250	60.5490
 0.7260	61.3110
 0.7270	62.0250
 0.7280	62.7110
 0.7290	63.3610
 0.7300	63.9720
 0.7310	64.5420
 0.7320	65.0810
 0.7330	65.5820
 0.7340	66.0450
 0.7350	66.4880
 0.7360	66.8950
 0.7370	67.2820
 0.7380	67.6580
 0.7390	67.9940
 0.7400	68.3130
 0.7410	68.6150
 0.7420	68.8910
 0.7430	69.1480
 0.7440	69.3900
 0.7450	69.6170
 0.7460	69.8190
 0.7470	70.0020
 0.7480	70.1750
 0.7490	70.3440
 0.7500	70.5030
 0.7510	70.6380
 0.7520	70.7570
 0.7530	70.8750
 0.7540	70.9820
 0.7550	71.0780
 0.7560	71.1680
 0.7570	71.2670
 0.7580	71.3450
 0.7590	71.4130
 0.7600	71.4780
 0.7610	71.5390
 0.7620	71.6030
 0.7630	71.6600
 0.7640	71.7010
 0.7650	71.7560
 0.7660	71.8080
 0.7670	71.8500
 0.7680	71.8850
 0.7690	71.9170
 0.7700	71.9490
 0.7710	71.9810
 0.7720	72.0150
 0.7730	72.0460
 0.7740	72.0790
 0.7750	72.1150
 0.7760	72.1400
 0.7770	72.1560
 0.7780	72.1760
 0.7790	72.2130
 0.7800	72.2440
 0.7810	72.2720
 0.7820	72.2990
 0.7830	72.3250
 0.7840	72.3460
 0.7850	72.3680
 0.7860	72.3980
 0.7870	72.4280
 0.7880	72.4500
 0.7890	72.4680
 0.7900	72.4940
 0.7910	72.5320
 0.7920	72.5710
 0.7930	72.6000
 0.7940	72.6190
 0.7950	72.6430
 0.7960	72.6770
 0.7970	72.7140
 0.7980	72.7450
 0.7990	72.7650
 0.8000	72.7890
 0.8010	72.8280
 0.8020	72.8590
 0.8030	72.8940
 0.8040	72.9270
 0.8050	72.9540
 0.8060	72.9950
 0.8070	73.0290
 0.8080	73.0570
 0.8090	73.0950
 0.8100	73.1180
 0.8110	73.1440
 0.8120	73.1810
 0.8130	73.2180
 0.8140	73.2570
 0.8150	73.2900
 0.8160	73.3130
 0.8170	73.3470
 0.8180	73.3820
 0.8190	73.4160
 0.8200	73.4490
 0.8210	73.4740
 0.8220	73.4990
 0.8230	73.5250
 0.8240	73.5520
 0.8250	73.5810
 0.8260	73.6010
 0.8270	73.6080
 0.8280	73.6140
 0.8290	73.6350
 0.8300	73.6540
 0.8310	73.6550
 0.8320	73.6510
 0.8330	73.6630
 0.8340	73.6840
 0.8350	73.6950
 0.8360	73.7200
 0.8370	73.7350
 0.8380	73.7400
 0.8390	73.7560
 0.8400	73.7810
 0.8410	73.8060
 0.8420	73.8250
 0.8430	73.8340
 0.8440	73.8460
 0.8450	73.8580
 0.8460	73.8690
 0.8470	73.8860
 0.8480	73.9140
 0.8490	73.9350
 0.8500	73.9320
 0.8510	73.9380
 0.8520	73.9540
 0.8530	73.9700
 0.8540	73.9700
 0.8550	73.9690
 0.8560	73.9670
 0.8570	73.9680
 0.8580	73.9770
 0.8590	73.9900
 0.8600	73.9890
 0.8610	73.9770
 0.8620	73.9740
 0.8630	73.9800
 0.8640	73.9860
 0.8650	73.9850
 0.8660	73.9720
 0.8670	73.9550
 0.8680	73.9390
 0.8690	73.9250
 0.8700	73.9150
 0.8710	73.9040
 0.8720	73.8880
 0.8730	73.8690
 0.8740	73.8510
 0.8750	73.8430
 0.8760	73.8360
 0.8770	73.8090
 0.8780	73.7780
 0.8790	73.7500
 0.8800	73.7250
 0.8810	73.6960
 0.8820	73.6700
 0.8830	73.6400
 0.8840	73.6040
 0.8850	73.5800
 0.8860	73.5460
 0.8870	73.5030
 0.8880	73.4620
 0.8890	73.4270
 0.8900	73.3940
 0.8910	73.3580
 0.8920	73.3170
 0.8930	73.2890
 0.8940	73.2560
 0.8950	73.2130
 0.8960	73.1660
 0.8970	73.1320
 0.8980	73.0930
 0.8990	73.0480
 0.9000	73.0110
 0.9010	72.9680
 0.9020	72.9170
 0.9030	72.8660
 0.9040	72.8330
 0.9050	72.7920
 0.9060	72.7460
 0.9070	72.7010
 0.9080	72.6560
 0.9090	72.6090
 0.9100	72.5660
 0.9110	72.5260
 0.9120	72.4670
 0.9130	72.4100
 0.9140	72.3640
 0.9150	72.3290
 0.9160	72.2750
 0.9170	72.2290
 0.9180	72.1870
 0.9190	72.1360
 0.9200	72.0800
 0.9210	72.0180
 0.9220	71.9520
 0.9230	71.8860
 0.9240	71.8340
 0.9250	71.7680
 0.9260	71.6900
 0.9270	71.6210
 0.9280	71.5510
 0.9290	71.4840
 0.9300	71.4150
 0.9310	71.3340
 0.9320	71.2590
 0.9330	71.1710
 0.9340	71.0720
 0.9350	70.9930
 0.9360	70.9080
 0.9370	70.8150
 0.9380	70.7160
 0.9390	70.6090
 0.9400	70.5120
 0.9410	70.4040
 0.9420	70.2790
 0.9430	70.1620
 0.9440	70.0470
 0.9450	69.9190
 0.9460	69.7680
 0.9470	69.6050
 0.9480	69.4410
 0.9490	69.2700
 0.9500	69.0800
 0.9510	68.8830
 0.9520	68.6590
 0.9530	68.4290
 0.9540	68.2080
 0.9550	67.9720
 0.9560	67.7580
 0.9570	67.5670
 0.9580	67.3900
 0.9590	67.2150
 0.9600	67.0540
 0.9610	66.9120
 0.9620	66.7850
 0.9630	66.6500
 0.9640	66.5500
 0.9650	66.4680
 0.9660	66.3760
 0.9670	66.3080
 0.9680	66.2290
 0.9690	66.1590
 0.9700	66.1290
 0.9710	66.0830
 0.9720	66.0410
 0.9730	66.0060
 0.9740	65.9780
 0.9750	65.9680
 0.9760	65.9540
 0.9770	65.9260
 0.9780	65.8890
 0.9790	65.8830
 0.9800	65.8940
 0.9810	65.9060
 0.9820	65.9170
 0.9830	65.9710
 0.9840	66.0110
 0.9850	66.0300
 0.9860	66.0550
 0.9870	66.1070
 0.9880	66.1530
 0.9890	66.1910
 0.9900	66.2410
 0.9910	66.3190
 0.9920	66.3840
 0.9930	66.4410
 0.9940	66.5090
 0.9950	66.5680
 0.9960	66.6410
 0.9970	66.7210
 0.9980	66.7930
 0.9990	66.8710
 1.0000	66.9980
 1.0010	67.1110
 1.0020	67.2540
 1.0030	67.3440
 1.0040	67.4370
 1.0050	67.5210
 1.0060	67.6110
 1.0070	67.7090
 1.0080	67.8000
 1.0090	67.8880
 1.0100	67.9790
 1.0110	68.0640
 1.0120	68.1590
 1.0130	68.2640
 1.0140	68.3640
 1.0150	68.4680
 1.0160	68.5680
 1.0170	68.6590
 1.0180	68.7530
 1.0190	68.8530
 1.0200	68.9520
 1.0210	69.0460
 1.0220	69.1410
 1.0230	69.2330
 1.0240	69.3210
 1.0250	69.4080
 1.0260	69.4960
 1.0270	69.5840
 1.0280	69.6680
 1.0290	69.7520
 1.0300	69.8370
 1.0310	69.9200
 1.0320	70.0020
 1.0330	70.0820
 1.0340	70.1550
 1.0350	70.2240
 1.0360	70.2870
 1.0370	70.3520
 1.0380	70.4240
 1.0390	70.5080
 1.0400	70.5780
 1.0410	70.6520
 1.0420	70.7160
 1.0430	70.7660
 1.0440	70.8240
 1.0450	70.8840
 1.0460	70.9400
 1.0470	70.9990
 1.0480	71.0520
 1.0490	71.1000
 1.0500	71.1480
 1.0510	71.1960
 1.0520	71.2390
 1.0530	71.2880
 1.0540	71.3410
 1.0550	71.3860
 1.0560	71.4330
 1.0570	71.4730
 1.0580	71.5050
 1.0590	71.5370
 1.0600	71.5670
 1.0610	71.5940
 1.0620	71.6160
 1.0630	71.6410
 1.0640	71.6710
 1.0650	71.6920
 1.0660	71.7130
 1.0670	71.7280
 1.0680	71.7380
 1.0690	71.7370
 1.0700	71.7450
 1.0710	71.7550
 1.0720	71.7640
 1.0730	71.7790
 1.0740	71.7830
 1.0750	71.7810
 1.0760	71.7770
 1.0770	71.7630
 1.0780	71.7540
 1.0790	71.7450
 1.0800	71.7330
 1.0810	71.7260
 1.0820	71.7120
 1.0830	71.6900
 1.0840	71.6710
 1.0850	71.6540
 1.0860	71.6290
 1.0870	71.6000
 1.0880	71.5690
 1.0890	71.5330
 1.0900	71.4850
 1.0910	71.4460
 1.0920	71.4110
 1.0930	71.3690
 1.0940	71.3240
 1.0950	71.2780
 1.0960	71.2270
 1.0970	71.1760
 1.0980	71.1220
 1.0990	71.0700
 1.1000	71.0200
 1.1010	70.9640
 1.1020	70.9060
 1.1030	70.8450
 1.1040	70.7840
 1.1050	70.7190
 1.1060	70.6580
 1.1070	70.6060
 1.1080	70.5420
 1.1090	70.4750
 1.1100	70.4050
 1.1110	70.3290
 1.1120	70.2530
 1.1130	70.1780
 1.1140	70.0960
 1.1150	70.0110
 1.1160	69.9210
 1.1170	69.8320
 1.1180	69.7300
 1.1190	69.6250
 1.1200	69.5110
 1.1210	69.3820
 1.1220	69.2410
 1.1230	69.0880
 1.1240	68.9260
 1.1250	68.7470
 1.1260	68.5580
 1.1270	68.3450
 1.1280	68.1180
 1.1290	67.8670
 1.1300	67.5980
 1.1310	67.3050
 1.1320	66.9900
 1.1330	66.6560
 1.1340	66.2980
 1.1350	65.9260
 1.1360	65.5370
 1.1370	65.1290
 1.1380	64.7090
 1.1390	64.2780
 1.1400	63.8310
 1.1410	63.3830
 1.1420	62.9400
 1.1430	62.4930
 1.1440	62.0550
 1.1450	61.6200
 1.1460	61.1970
 1.1470	60.7740
 1.1480	60.3750
 1.1490	59.9850
 1.1500	59.6240
 1.1510	59.2800
 1.1520	58.9580
 1.1530	58.6610
 1.1540	58.3790
 1.1550	58.1140
 1.1560	57.8700
 1.1570	57.6470
 1.1580	57.4450
 1.1590	57.2620
 1.1600	57.0950
 1.1610	56.9440
 1.1620	56.8060
 1.1630	56.6790
 1.1640	56.5660
 1.1650	56.4590
 1.1660	56.3630
 1.1670	56.2720
 1.1680	56.1910
 1.1690	56.1110
 1.1700	56.0380
 1.1710	55.9660
 1.1720	55.8970
 1.1730	55.8270
 1.1740	55.7570
 1.1750	55.6920
 1.1760	55.6210
 1.1770	55.5490
 1.1780	55.4790
 1.1790	55.4070
 1.1800	55.3340
 1.1810	55.2650
 1.1820	55.1910
 1.1830	55.1130
 1.1840	55.0400
 1.1850	54.9680
 1.1860	54.8920
 1.1870	54.8200
 1.1880	54.7510
 1.1890	54.6800
 1.1900	54.6140
 1.1910	54.5520
 1.1920	54.4930
 1.1930	54.4340
 1.1940	54.3840
 1.1950	54.3390
 1.1960	54.2980
 1.1970	54.2650
 1.1980	54.2340
 1.1990	54.2070
 1.2000	54.1890
 1.2010	54.1780
 1.2020	54.1730
 1.2030	54.1760
 1.2040	54.1860
 1.2050	54.2020
 1.2060	54.2260
 1.2070	54.2610
 1.2080	54.3030
 1.2090	54.3520
 1.2100	54.4080
 1.2110	54.4700
 1.2120	54.5360
 1.2130	54.6110
 1.2140	54.6960
 1.2150	54.7860
 1.2160	54.8830
 1.2170	54.9850
 1.2180	55.0890
 1.2190	55.1960
 1.2200	55.3050
 1.2210	55.4200
 1.2220	55.5400
 1.2230	55.6570
 1.2240	55.7740
 1.2250	55.8900
 1.2260	56.0020
 1.2270	56.1120
 1.2280	56.2210
 1.2290	56.3290
 1.2300	56.4330
 1.2310	56.5350
 1.2320	56.6330
 1.2330	56.7220
 1.2340	56.8110
 1.2350	56.8940
 1.2360	56.9790
 1.2370	57.0630
 1.2380	57.1480
 1.2390	57.2250
 1.2400	57.2980
 1.2410	57.3680
 1.2420	57.4350
 1.2430	57.5050
 1.2440	57.5720
 1.2450	57.6330
 1.2460	57.6920
 1.2470	57.7490
 1.2480	57.8040
 1.2490	57.8610
 1.2500	57.9160
 1.2510	57.9690
 1.2520	58.0200
 1.2530	58.0690
 1.2540	58.1140
 1.2550	58.1530
 1.2560	58.1910
 1.2570	58.2270
 1.2580	58.2580
 1.2590	58.2890
 1.2600	58.3190
 1.2610	58.3470
 1.2620	58.3740
 1.2630	58.3990
 1.2640	58.4170
 1.2650	58.4310
 1.2660	58.4410
 1.2670	58.4510
 1.2680	58.4590
 1.2690	58.4650
 1.2700	58.4660
 1.2710	58.4610
 1.2720	58.4530
 1.2730	58.4450
 1.2740	58.4350
 1.2750	58.4220
 1.2760	58.4050
 1.2770	58.3850
 1.2780	58.3600
 1.2790	58.3310
 1.2800	58.3000
 1.2810	58.2650
 1.2820	58.2270
 1.2830	58.1880
 1.2840	58.1440
 1.2850	58.0950
 1.2860	58.0460
 1.2870	57.9920
 1.2880	57.9340
 1.2890	57.8700
 1.2900	57.8010
 1.2910	57.7240
 1.2920	57.6430
 1.2930	57.5560
 1.2940	57.4670
 1.2950	57.3760
 1.2960	57.2750
 1.2970	57.1700
 1.2980	57.0610
 1.2990	56.9460
 1.3000	56.8250
 1.3010	56.7010
 1.3020	56.5700
 1.3030	56.4340
 1.3040	56.2900
 1.3050	56.1380
 1.3060	55.9810
 1.3070	55.8160
 1.3080	55.6460
 1.3090	55.4720
 1.3100	55.2930
 1.3110	55.1030
 1.3120	54.9080
 1.3130	54.7130
 1.3140	54.5090
 1.3150	54.3000
 1.3160	54.0830
 1.3170	53.8630
 1.3180	53.6310
 1.3190	53.3920
 1.3200	53.1500
 1.3210	52.9050
 1.3220	52.6520
 1.3230	52.3950
 1.3240	52.1320
 1.3250	51.8640
 1.3260	51.5930
 1.3270	51.3180
 1.3280	51.0420
 1.3290	50.7630
 1.3300	50.4870
 1.3310	50.2100
 1.3320	49.9290
 1.3330	49.6530
 1.3340	49.3740
 1.3350	49.0930
 1.3360	48.8170
 1.3370	48.5390
 1.3380	48.2630
 1.3390	47.9920
 1.3400	47.7180
 1.3410	47.4510
 1.3420	47.1900
 1.3430	46.9330
 1.3440	46.6840
 1.3450	46.4400
 1.3460	46.2000
 1.3470	45.9660
 1.3480	45.7380
 1.3490	45.5150
 1.3500	45.2980
 1.3510	45.0840
 1.3520	44.8740
 1.3530	44.6660
 1.3540	44.4590
 1.3550	44.2540
 1.3560	44.0480
 1.3570	43.8410
 1.3580	43.6330
 1.3590	43.4210
 1.3600	43.2020
 1.3610	42.9800
 1.3620	42.7500
 1.3630	42.5130
 1.3640	42.2670
 1.3650	42.0120
 1.3660	41.7470
 1.3670	41.4700
 1.3680	41.1790
 1.3690	40.8740
 1.3700	40.5520
 1.3710	40.2130
 1.3720	39.8590
 1.3730	39.4850
 1.3740	39.0940
 1.3750	38.6800
 1.3760	38.2420
 1.3770	37.7820
 1.3780	37.2940
 1.3790	36.7820
 1.3800	36.2460
 1.3810	35.6770
 1.3820	35.0920
 1.3830	34.4840
 1.3840	33.8590
 1.3850	33.2130
 1.3860	32.5590
 1.3870	31.8820
 1.3880	31.2090
 1.3890	30.5290
 1.3900	29.8450
 1.3910	29.1720
 1.3920	28.5010
 1.3930	27.8320
 1.3940	27.1740
 1.3950	26.5160
 1.3960	25.8730
 1.3970	25.2480
 1.3980	24.6410
 1.3990	24.0590
 1.4000	23.4950
 1.4010	22.9480
 1.4020	22.4240
 1.4030	21.9180
 1.4040	21.4360
 1.4050	20.9780
 1.4060	20.5420
 1.4070	20.1340
 1.4080	19.7460
 1.4090	19.3780
 1.4100	19.0360
 1.4110	18.7120
 1.4120	18.4080
 1.4130	18.1250
 1.4140	17.8580
 1.4150	17.6120
 1.4160	17.3830
 1.4170	17.1690
 1.4180	16.9700
 1.4190	16.7830
 1.4200	16.6090
 1.4210	16.4470
 1.4220	16.2960
 1.4230	16.1570
 1.4240	16.0290
 1.4250	15.9080
 1.4260	15.7980
 1.4270	15.6950
 1.4280	15.6000
 1.4290	15.5130
 1.4300	15.4340
 1.4310	15.3620
 1.4320	15.2990
 1.4330	15.2400
 1.4340	15.1870
 1.4350	15.1380
 1.4360	15.0940
 1.4370	15.0550
 1.4380	15.0200
 1.4390	14.9920
 1.4400	14.9670
 1.4410	14.9470
 1.4420	14.9300
 1.4430	14.9160
 1.4440	14.9040
 1.4450	14.8940
 1.4460	14.8890
 1.4470	14.8860
 1.4480	14.8850
 1.4490	14.8870
 1.4500	14.8920
 1.4510	14.8970
 1.4520	14.9060
 1.4530	14.9160
 1.4540	14.9260
 1.4550	14.9400
 1.4560	14.9560
 1.4570	14.9760
 1.4580	15.0000
 1.4590	15.0260
 1.4600	15.0550
 1.4610	15.0870
 1.4620	15.1250
 1.4630	15.1660
 1.4640	15.2120
 1.4650	15.2620
 1.4660	15.3140
 1.4670	15.3720
 1.4680	15.4360
 1.4690	15.5040
 1.4700	15.5760
 1.4710	15.6540
 1.4720	15.7350
 1.4730	15.8170
 1.4740	15.9040
 1.4750	15.9950
 1.4760	16.0890
 1.4770	16.1870
 1.4780	16.2870
 1.4790	16.3900
 1.4800	16.4940
 1.4810	16.6000
 1.4820	16.7090
 1.4830	16.8180
 1.4840	16.9290
 1.4850	17.0410
 1.4860	17.1540
 1.4870	17.2700
 1.4880	17.3860
 1.4890	17.5050
 1.4900	17.6230
 1.4910	17.7420
 1.4920	17.8610
 1.4930	17.9810
 1.4940	18.1030
 1.4950	18.2270
 1.4960	18.3520
 1.4970	18.4790
 1.4980	18.6060
 1.4990	18.7320
 1.5000	18.8600
 1.5010	18.9880
 1.5020	19.1150
 1.5030	19.2440
 1.5040	19.3710
 1.5050	19.4940
 1.5060	19.6200
 1.5070	19.7470
 1.5080	19.8730
 1.5090	20.0010
 1.5100	20.1290
 1.5110	20.2550
 1.5120	20.3810
 1.5130	20.5080
 1.5140	20.6340
 1.5150	20.7590
 1.5160	20.8820
 1.5170	21.0040
 1.5180	21.1250
 1.5190	21.2450
 1.5200	21.3680
 1.5210	21.4890
 1.5220	21.6090
 1.5230	21.7280
 1.5240	21.8450
 1.5250	21.9610
 1.5260	22.0780
 1.5270	22.1930
 1.5280	22.3070
 1.5290	22.4190
 1.5300	22.5300
 1.5310	22.6430
 1.5320	22.7560
 1.5330	22.8680
 1.5340	22.9800
 1.5350	23.0910
 1.5360	23.2010
 1.5370	23.3090
 1.5380	23.4180
 1.5390	23.5260
 1.5400	23.6320
 1.5410	23.7390
 1.5420	23.8450
 1.5430	23.9460
 1.5440	24.0480
 1.5450	24.1490
 1.5460	24.2490
 1.5470	24.3520
 1.5480	24.4530
 1.5490	24.5550
 1.5500	24.6570
 1.5510	24.7560
 1.5520	24.8540
 1.5530	24.9530
 1.5540	25.0510
 1.5550	25.1490
 1.5560	25.2470
 1.5570	25.3450
 1.5580	25.4410
 1.5590	25.5340
 1.5600	25.6270
 1.5610	25.7170
 1.5620	25.8070
 1.5630	25.9000
 1.5640	25.9910
 1.5650	26.0830
 1.5660	26.1740
 1.5670	26.2620
 1.5680	26.3510
 1.5690	26.4400
 1.5700	26.5280
 1.5710	26.6170
 1.5720	26.7060
 1.5730	26.7930
 1.5740	26.8790
 1.5750	26.9660
 1.5760	27.0540
 1.5770	27.1400
 1.5780	27.2270
 1.5790	27.3140
 1.5800	27.3990
 1.5810	27.4830
 1.5820	27.5660
 1.5830	27.6480
 1.5840	27.7320
 1.5850	27.8160
 1.5860	27.8990
 1.5870	27.9830
 1.5880	28.0650
 1.5890	28.1460
 1.5900	28.2280
 1.5910	28.3080
 1.5920	28.3890
 1.5930	28.4680
 1.5940	28.5480
 1.5950	28.6280
 1.5960	28.7070
 1.5970	28.7880
 1.5980	28.8700
 1.5990	28.9510
 1.6000	29.0320
 1.6010	29.1080
 1.6020	29.1840
 1.6030	29.2620
 1.6040	29.3380
 1.6050	29.4150
 1.6060	29.4920
 1.6070	29.5680
 1.6080	29.6430
 1.6090	29.7180
 1.6100	29.7940
 1.6110	29.8670
 1.6120	29.9400
 1.6130	30.0130
 1.6140	30.0800
 1.6150	30.1480
 1.6160	30.2170
 1.6170	30.2800
 1.6180	30.3440
 1.6190	30.4060
 1.6200	30.4630
 1.6210	30.5220
 1.6220	30.5800
 1.6230	30.6360
 1.6240	30.6930
 1.6250	30.7500
 1.6260	30.8050
 1.6270	30.8580
 1.6280	30.9110
 1.6290	30.9630
 1.6300	31.0140
 1.6310	31.0670
 1.6320	31.1200
 1.6330	31.1710
 1.6340	31.2230
 1.6350	31.2720
 1.6360	31.3190
 1.6370	31.3650
 1.6380	31.4110
 1.6390	31.4530
 1.6400	31.4930
 1.6410	31.5320
 1.6420	31.5690
 1.6430	31.6030
 1.6440	31.6340
 1.6450	31.6630
 1.6460	31.6860
 1.6470	31.7110
 1.6480	31.7310
 1.6490	31.7450
 1.6500	31.7610
 1.6510	31.7710
 1.6520	31.7770
 1.6530	31.7860
 1.6540	31.7890
 1.6550	31.7910
 1.6560	31.7940
 1.6570	31.7920
 1.6580	31.7880
 1.6590	31.7830
 1.6600	31.7770
 1.6610	31.7720
 1.6620	31.7680
 1.6630	31.7590
 1.6640	31.7470
 1.6650	31.7340
 1.6660	31.7200
 1.6670	31.7070
 1.6680	31.6960
 1.6690	31.6850
 1.6700	31.6720
 1.6710	31.6600
 1.6720	31.6470
 1.6730	31.6330
 1.6740	31.6160
 1.6750	31.5940
 1.6760	31.5740
 1.6770	31.5520
 1.6780	31.5250
 1.6790	31.4980
 1.6800	31.4630
 1.6810	31.4240
 1.6820	31.3860
 1.6830	31.3400
 1.6840	31.2930
 1.6850	31.2440
 1.6860	31.1850
 1.6870	31.1240
 1.6880	31.0590
 1.6890	30.9870
 1.6900	30.9120
 1.6910	30.8340
 1.6920	30.7540
 1.6930	30.6720
 1.6940	30.5850
 1.6950	30.4950
 1.6960	30.4040
 1.6970	30.3070
 1.6980	30.2090
 1.6990	30.1090
 1.7000	30.0060
 1.7010	29.8970
 1.7020	29.7900
 1.7030	29.6820
 1.7040	29.5740
 1.7050	29.4650
 1.7060	29.3540
 1.7070	29.2380
 1.7080	29.1320
 1.7090	29.0300
 1.7100	28.9300
 1.7110	28.8370
 1.7120	28.7460
 1.7130	28.6540
 1.7140	28.5660
 1.7150	28.4830
 1.7160	28.4030
 1.7170	28.3270
 1.7180	28.2570
 1.7190	28.1860
 1.7200	28.1160
 1.7210	28.0500
 1.7220	27.9830
 1.7230	27.9210
 1.7240	27.8650
 1.7250	27.8100
 1.7260	27.7650
 1.7270	27.7250
 1.7280	27.6910
 1.7290	27.6640
 1.7300	27.6450
 1.7310	27.6290
 1.7320	27.6190
 1.7330	27.6100
 1.7340	27.6060
 1.7350	27.6000
 1.7360	27.6000
 1.7370	27.5900
 1.7380	27.5770
 1.7390	27.5580
 1.7400	27.5340
 1.7410	27.5000
 1.7420	27.4570
 1.7430	27.4090
 1.7440	27.3500
 1.7450	27.2890
 1.7460	27.2230
 1.7470	27.1550
 1.7480	27.0790
 1.7490	27.0060
 1.7500	26.9300
 1.7510	26.8550
 1.7520	26.7800
 1.7530	26.7080
 1.7540	26.6360
 1.7550	26.5690
 1.7560	26.5080
 1.7570	26.4500
 1.7580	26.3930
 1.7590	26.3400
 1.7600	26.2900
 1.7610	26.2430
 1.7620	26.2000
 1.7630	26.1610
 1.7640	26.1240
 1.7650	26.0900
 1.7660	26.0600
 1.7670	26.0350
 1.7680	26.0100
 1.7690	25.9910
 1.7700	25.9690
 1.7710	25.9450
 1.7720	25.9220
 1.7730	25.8960
 1.7740	25.8740
 1.7750	25.8570
 1.7760	25.8380
 1.7770	25.8200
 1.7780	25.8030
 1.7790	25.7860
 1.7800	25.7720
 1.7810	25.7600
 1.7820	25.7490
 1.7830	25.7360
 1.7840	25.7280
 1.7850	25.7210
 1.7860	25.7190
 1.7870	25.7220
 1.7880	25.7280
 1.7890	25.7320
 1.7900	25.7320
 1.7910	25.7350
 1.7920	25.7390
 1.7930	25.7440
 1.7940	25.7490
 1.7950	25.7590
 1.7960	25.7710
 1.7970	25.7840
 1.7980	25.8050
 1.7990	25.8220
 1.8000	25.8360
 1.8010	25.8530
 1.8020	25.8710
 1.8030	25.8900
 1.8040	25.9130
 1.8050	25.9320
 1.8060	25.9490
 1.8070	25.9650
 1.8080	25.9780
 1.8090	25.9930
 1.8100	26.0080
 1.8110	26.0260
 1.8120	26.0460
 1.8130	26.0660
 1.8140	26.0840
 1.8150	26.1000
 1.8160	26.1120
 1.8170	26.1270
 1.8180	26.1410
 1.8190	26.1480
 1.8200	26.1600
 1.8210	26.1720
 1.8220	26.1810
 1.8230	26.1940
 1.8240	26.2010
 1.8250	26.2010
 1.8260	26.2020
 1.8270	26.2000
 1.8280	26.2010
 1.8290	26.2010
 1.8300	26.2680
 1.8310	26.4030
 1.8320	26.4530
 1.8330	26.4350
 1.8340	26.4150
 1.8350	26.3880
 1.8360	26.3550
 1.8370	26.3180
 1.8380	26.2700
 1.8390	26.2200
 1.8400	26.1660
 1.8410	26.1040
 1.8420	26.0370
 1.8430	25.9640
 1.8440	25.8800
 1.8450	25.7870
 1.8460	25.6940
 1.8470	25.5920
 1.8480	25.4800
 1.8490	25.3580
 1.8500	25.2180
 1.8510	25.0620
 1.8520	24.8920
 1.8530	24.7080
 1.8540	24.5130
 1.8550	24.3160
 1.8560	24.1040
 1.8570	23.8820
 1.8580	23.6460
 1.8590	23.3930
 1.8600	23.1210
 1.8610	22.8350
 1.8620	22.5340
 1.8630	22.2210
 1.8640	21.8910
 1.8650	21.5460
 1.8660	21.1900
 1.8670	20.8090
 1.8680	20.4150
 1.8690	20.0030
 1.8700	19.5670
 1.8710	19.1060
 1.8720	18.6400
 1.8730	18.1600
 1.8740	17.6670
 1.8750	17.1760
 1.8760	16.6720
 1.8770	16.1630
 1.8780	15.6580
 1.8790	15.1510
 1.8800	14.6510
 1.8810	14.1560
 1.8820	13.6600
 1.8830	13.1640
 1.8840	12.6730
 1.8850	12.1860
 1.8860	11.7130
 1.8870	11.2530
 1.8880	10.8020
 1.8890	10.3710
 1.8900	 9.9580
 1.8910	 9.5630
 1.8920	 9.1830
 1.8930	 8.8280
 1.8940	 8.4900
 1.8950	 8.1730
 1.8960	 7.8780
 1.8970	 7.6040
 1.8980	 7.3530
 1.8990	 7.1180
 1.9000	 6.9000
 1.9010	 6.7020
 1.9020	 6.5160
 1.9030	 6.3470
 1.9040	 6.1940
 1.9050	 6.0530
 1.9060	 5.9240
 1.9070	 5.8120
 1.9080	 5.7120
 1.9090	 5.6200
 1.9100	 5.5370
 1.9110	 5.4620
 1.9120	 5.3980
 1.9130	 5.3370
 1.9140	 5.2830
 1.9150	 5.2350
 1.9160	 5.1920
 1.9170	 5.1490
 1.9180	 5.1150
 1.9190	 5.0910
 1.9200	 5.0690
 1.9210	 5.0470
 1.9220	 5.0270
 1.9230	 5.0050
 1.9240	 4.9880
 1.9250	 4.9740
 1.9260	 4.9660
 1.9270	 4.9620
 1.9280	 4.9600
 1.9290	 4.9620
 1.9300	 4.9650
 1.9310	 4.9700
 1.9320	 4.9780
 1.9330	 4.9840
 1.9340	 4.9890
 1.9350	 4.9990
 1.9360	 5.0120
 1.9370	 5.0270
 1.9380	 5.0490
 1.9390	 5.0720
 1.9400	 5.0900
 1.9410	 5.1120
 1.9420	 5.1380
 1.9430	 5.1610
 1.9440	 5.1870
 1.9450	 5.2170
 1.9460	 5.2450
 1.9470	 5.2730
 1.9480	 5.3040
 1.9490	 5.3370
 1.9500	 5.3710
 1.9510	 5.4060
 1.9520	 5.4420
 1.9530	 5.4790
 1.9540	 5.5180
 1.9550	 5.5590
 1.9560	 5.6020
 1.9570	 5.6440
 1.9580	 5.6900
 1.9590	 5.7320
 1.9600	 5.7710
 1.9610	 5.8130
 1.9620	 5.8550
 1.9630	 5.8980
 1.9640	 5.9460
 1.9650	 5.9950
 1.9660	 6.0440
 1.9670	 6.0940
 1.9680	 6.1470
 1.9690	 6.2010
 1.9700	 6.2550
 1.9710	 6.3130
 1.9720	 6.3660
 1.9730	 6.4170
 1.9740	 6.4650
 1.9750	 6.5150
 1.9760	 6.5700
 1.9770	 6.6250
 1.9780	 6.6820
 1.9790	 6.7380
 1.9800	 6.7950
 1.9810	 6.8520
 1.9820	 6.9110
 1.9830	 6.9710
 1.9840	 7.0330
 1.9850	 7.0930
 1.9860	 7.1540
 1.9870	 7.2160
 1.9880	 7.2760
 1.9890	 7.3380
 1.9900	 7.4020
 1.9910	 7.4640
 1.9920	 7.5280
 1.9930	 7.5910
 1.9940	 7.6540
 1.9950	 7.7190
 1.9960	 7.7820
 1.9970	 7.8440
 1.9980	 7.9090
 1.9990	 7.9750
 2.0000	 8.0410
 2.0010	 8.1080
 2.0020	 8.1760
 2.0030	 8.2390
 2.0040	 8.3000
 2.0050	 8.3610
 2.0060	 8.4190
 2.0070	 8.4790
 2.0080	 8.5380
 2.0090	 8.6010
 2.0100	 8.6680
 2.0110	 8.7320
 2.0120	 8.7980
 2.0130	 8.8610
 2.0140	 8.9220
 2.0150	 8.9820
 2.0160	 9.0410
 2.0170	 9.1010
 2.0180	 9.1600
 2.0190	 9.2160
 2.0200	 9.2740
 2.0210	 9.3310
 2.0220	 9.3870
 2.0230	 9.4460
 2.0240	 9.5010
 2.0250	 9.5530
 2.0260	 9.6060
 2.0270	 9.6570
 2.0280	 9.7070
 2.0290	 9.7560
 2.0300	 9.8060
 2.0310	 9.8560
 2.0320	 9.9040
 2.0330	 9.9530
 2.0340	10.0020
 2.0350	10.0510
 2.0360	10.1020
 2.0370	10.1480
 2.0380	10.1890
 2.0390	10.2310
 2.0400	10.2680
 2.0410	10.3070
 2.0420	10.3470
 2.0430	10.3880
 2.0440	10.4260
 2.0450	10.4620
 2.0460	10.5020
 2.0470	10.5430
 2.0480	10.5830
 2.0490	10.6250
 2.0500	10.6660
 2.0510	10.7050
 2.0520	10.7440
 2.0530	10.7830
 2.0540	10.8200
 2.0550	10.8520
 2.0560	10.8870
 2.0570	10.9250
 2.0580	10.9630
 2.0590	11.0000
 2.0600	11.0390
 2.0610	11.0740
 2.0620	11.1030
 2.0630	11.1360
 2.0640	11.1670
 2.0650	11.2020
 2.0660	11.2400
 2.0670	11.2780
 2.0680	11.3220
 2.0690	11.3620
 2.0700	11.3970
 2.0710	11.4340
 2.0720	11.4720
 2.0730	11.5060
 2.0740	11.5390
 2.0750	11.5730
 2.0760	11.6070
 2.0770	11.6350
 2.0780	11.6710
 2.0790	11.7100
 2.0800	11.7480
 2.0810	11.7910
 2.0820	11.8290
 2.0830	11.8660
 2.0840	11.9030
 2.0850	11.9410
 2.0860	11.9770
 2.0870	12.0100
 2.0880	12.0470
 2.0890	12.0800
 2.0900	12.1070
 2.0910	12.1450
 2.0920	12.1870
 2.0930	12.2280
 2.0940	12.2760
 2.0950	12.3170
 2.0960	12.3530
 2.0970	12.3890
 2.0980	12.4220
 2.0990	12.4560
 2.1000	12.4870
 2.1010	12.5240
 2.1020	12.5640
 2.1030	12.6030
 2.1040	12.6430
 2.1050	12.6870
 2.1060	12.7270
 2.1070	12.7650
 2.1080	12.8040
 2.1090	12.8400
 2.1100	12.8810
 2.1110	12.9270
 2.1120	12.9670
 2.1130	13.0060
 2.1140	13.0440
 2.1150	13.0760
 2.1160	13.1120
 2.1170	13.1520
 2.1180	13.1900
 2.1190	13.2290
 2.1200	13.2640
 2.1210	13.2980
 2.1220	13.3290
 2.1230	13.3620
 2.1240	13.3920
 2.1250	13.4260
 2.1260	13.4640
 2.1270	13.4990
 2.1280	13.5350
 2.1290	13.5700
 2.1300	13.6020
 2.1310	13.6370
 2.1320	13.6780
 2.1330	13.7110
 2.1340	13.7410
 2.1350	13.7740
 2.1360	13.8040
 2.1370	13.8350
 2.1380	13.8700
 2.1390	13.9050
 2.1400	13.9380
 2.1410	13.9690
 2.1420	14.0050
 2.1430	14.0450
 2.1440	14.0810
 2.1450	14.1160
 2.1460	14.1520
 2.1470	14.1850
 2.1480	14.2190
 2.1490	14.2560
 2.1500	14.2910
 2.1510	14.3260
 2.1520	14.3590
 2.1530	14.3860
 2.1540	14.4200
 2.1550	14.4550
 2.1560	14.4890
 2.1570	14.5280
 2.1580	14.5640
 2.1590	14.5980
 2.1600	14.6300
 2.1610	14.6650
 2.1620	14.6980
 2.1630	14.7310
 2.1640	14.7610
 2.1650	14.7930
 2.1660	14.8260
 2.1670	14.8590
 2.1680	14.8940
 2.1690	14.9270
 2.1700	14.9590
 2.1710	14.9930
 2.1720	15.0300
 2.1730	15.0630
 2.1740	15.0970
 2.1750	15.1290
 2.1760	15.1580
 2.1770	15.1880
 2.1780	15.2200
 2.1790	15.2500
 2.1800	15.2780
 2.1810	15.3070
 2.1820	15.3340
 2.1830	15.3630
 2.1840	15.3900
 2.1850	15.4160
 2.1860	15.4420
 2.1870	15.4660
 2.1880	15.4890
 2.1890	15.5120
 2.1900	15.5370
 2.1910	15.5610
 2.1920	15.5880
 2.1930	15.6210
 2.1940	15.6480
 2.1950	15.6750
 2.1960	15.6990
 2.1970	15.7170
 2.1980	15.7370
 2.1990	15.7560
 2.2000	15.7750
 2.2010	15.7940
 2.2020	15.8110
 2.2030	15.8260
 2.2040	15.8400
 2.2050	15.8510
 2.2060	15.8620
 2.2070	15.8750
 2.2080	15.8900
 2.2090	15.9030
 2.2100	15.9180
 2.2110	15.9280
 2.2120	15.9340
 2.2130	15.9400
 2.2140	15.9480
 2.2150	15.9500
 2.2160	15.9480
 2.2170	15.9450
 2.2180	15.9380
 2.2190	15.9280
 2.2200	15.9150
 2.2210	15.9060
 2.2220	15.8970
 2.2230	15.8830
 2.2240	15.8740
 2.2250	15.8570
 2.2260	15.8340
 2.2270	15.8080
 2.2280	15.7790
 2.2290	15.7490
 2.2300	15.7170
 2.2310	15.6810
 2.2320	15.6440
 2.2330	15.6040
 2.2340	15.5580
 2.2350	15.5070
 2.2360	15.4530
 2.2370	15.3930
 2.2380	15.3360
 2.2390	15.2760
 2.2400	15.2190
 2.2410	15.1680
 2.2420	15.1040
 2.2430	15.0340
 2.2440	14.9650
 2.2450	14.8830
 2.2460	14.8130
 2.2470	14.7560
 2.2480	14.6880
 2.2490	14.6190
 2.2500	14.5480
 2.2510	14.4670
 2.2520	14.3900
 2.2530	14.3180
 2.2540	14.2380
 2.2550	14.1510
 2.2560	14.0670
 2.2570	13.9740
 2.2580	13.8890
 2.2590	13.8170
 2.2600	13.7350
 2.2610	13.6490
 2.2620	13.5640
 2.2630	13.4720
 2.2640	13.3850
 2.2650	13.3060
 2.2660	13.2280
 2.2670	13.1500
 2.2680	13.0730
 2.2690	13.0000
 2.2700	12.9280
 2.2710	12.8600
 2.2720	12.7970
 2.2730	12.7360
 2.2740	12.6780
 2.2750	12.6220
 2.2760	12.5700
 2.2770	12.5140
 2.2780	12.4580
 2.2790	12.4020
 2.2800	12.3410
 2.2810	12.2870
 2.2820	12.2360
 2.2830	12.1860
 2.2840	12.1460
 2.2850	12.0940
 2.2860	12.0410
 2.2870	11.9820
 2.2880	11.9090
 2.2890	11.8430
 2.2900	11.7790
 2.2910	11.7120
 2.2920	11.6490
 2.2930	11.5790
 2.2940	11.5010
 2.2950	11.4250
 2.2960	11.3450
 2.2970	11.2670
 2.2980	11.1860
 2.2990	11.1130
 2.3000	11.0380
 2.3010	10.9650
 2.3020	10.9010
 2.3030	10.8420
 2.3040	10.7910
 2.3050	10.7450
 2.3060	10.7040
 2.3070	10.6670
 2.3080	10.6440
 2.3090	10.6250
 2.3100	10.6130
 2.3110	10.6120
 2.3120	10.6040
 2.3130	10.5920
 2.3140	10.5950
 2.3150	10.6020
 2.3160	10.6110
 2.3170	10.6320
 2.3180	10.6440
 2.3190	10.6490
 2.3200	10.6600
 2.3210	10.6760
 2.3220	10.6790
 2.3230	10.6800
 2.3240	10.6700
 2.3250	10.6410
 2.3260	10.6210
 2.3270	10.6040
 2.3280	10.5730
 2.3290	10.5370
 2.3300	10.4990
 2.3310	10.4450
 2.3320	10.3960
 2.3330	10.3500
 2.3340	10.3030
 2.3350	10.2530
 2.3360	10.2060
 2.3370	10.1610
 2.3380	10.1150
 2.3390	10.0690
 2.3400	10.0190
 2.3410	 9.9600
 2.3420	 9.9120
 2.3430	 9.8690
 2.3440	 9.8230
 2.3450	 9.7860
 2.3460	 9.7440
 2.3470	 9.6880
 2.3480	 9.6480
 2.3490	 9.6130
 2.3500	 9.5830
 2.3510	 9.5690
 2.3520	 9.5460
 2.3530	 9.5210
 2.3540	 9.5000
 2.3550	 9.4770
 2.3560	 9.4620
 2.3570	 9.4410
 2.3580	 9.4380
 2.3590	 9.4320
 2.3600	 9.4050
 2.3610	 9.3900
 2.3620	 9.3630
 2.3630	 9.3320
 2.3640	 9.3110
 2.3650	 9.2830
 2.3660	 9.2500
 2.3670	 9.2120
 2.3680	 9.1720
 2.3690	 9.1370
 2.3700	 9.1040
 2.3710	 9.0730
 2.3720	 9.0370
 2.3730	 9.0000
 2.3740	 8.9760
 2.3750	 8.9540
 2.3760	 8.9360
 2.3770	 8.9140
 2.3780	 8.8670
 2.3790	 8.8190
 2.3800	 8.7880
 2.3810	 8.7560
 2.3820	 8.7260
 2.3830	 8.7030
 2.3840	 8.6660
 2.3850	 8.6310
 2.3860	 8.6180
 2.3870	 8.5970
 2.3880	 8.5700
 2.3890	 8.5540
 2.3900	 8.5110
 2.3910	 8.4640
 2.3920	 8.4330
 2.3930	 8.3930
 2.3940	 8.3500
 2.3950	 8.3120
 2.3960	 8.2730
 2.3970	 8.2370
 2.3980	 8.2170
 2.3990	 8.1880
 2.4000	 8.1670
 2.4010	 8.1480
 2.4020	 8.1100
 2.4030	 8.0780
 2.4040	 8.0290
 2.4050	 7.9810
 2.4060	 7.9550
 2.4070	 7.9330
 2.4080	 7.9220
 2.4090	 7.8830
 2.4100	 7.8290
 2.4110	 7.7910
 2.4120	 7.7450
 2.4130	 7.7180
 2.4140	 7.6850
 2.4150	 7.6260
 2.4160	 7.5890
 2.4170	 7.5690
 2.4180	 7.5340
 2.4190	 7.5010
 2.4200	 7.4510
 2.4210	 7.3830
 2.4220	 7.3480
 2.4230	 7.3210
 2.4240	 7.2920
 2.4250	 7.2610
 2.4260	 7.2160
 2.4270	 7.1770
 2.4280	 7.1350
 2.4290	 7.0900
 2.4300	 7.0480
 2.4310	 7.0100
 2.4320	 6.9810
 2.4330	 6.9360
 2.4340	 6.8690
 2.4350	 6.7820
 2.4360	 6.7110
 2.4370	 6.6880
 2.4380	 6.6690
 2.4390	 6.6830
 2.4400	 6.6780
 2.4410	 6.6310
 2.4420	 6.6180
 2.4430	 6.5520
 2.4440	 6.4810
 2.4450	 6.4520
 2.4460	 6.4080
 2.4470	 6.3940
 2.4480	 6.3870
 2.4490	 6.3600
 2.4500	 6.3240
 2.4510	 6.2950
 2.4520	 6.2660
 2.4530	 6.2100
 2.4540	 6.1850
 2.4550	 6.1490
 2.4560	 6.0950
 2.4570	 6.0620
 2.4580	 6.0210
 2.4590	 5.9810
 2.4600	 5.9490
 2.4610	 5.9390
 2.4620	 5.8910
 2.4630	 5.8450
 2.4640	 5.8440
 2.4650	 5.7860
 2.4660	 5.7270
 2.4670	 5.6560
 2.4680	 5.5750
 2.4690	 5.5720
 2.4700	 5.5610
 2.4710	 5.5990
 2.4720	 5.6020
 2.4730	 5.5740
 2.4740	 5.5630
 2.4750	 5.5510
 2.4760	 5.5150
 2.4770	 5.4910
 2.4780	 5.4600
 2.4790	 5.3760
 2.4800	 5.3440
 2.4810	 5.3430
 2.4820	 5.2990
 2.4830	 5.2990
 2.4840	 5.3010
 2.4850	 5.2870
 2.4860	 5.2490
 2.4870	 5.2450
 2.4880	 5.2330
 2.4890	 5.1860
 2.4900	 5.1950
 2.4910	 5.2170
 2.4920	 5.2140
 2.4930	 5.1850
 2.4940	 5.1700
 2.4950	 5.1980
 2.4960	 5.2140
 2.4970	 5.2140
 2.4980	 5.2580
 2.4990	 5.1960
 2.5000	 5.0370
