Name: Tsuga canadensis
Type: Vegetation
Class: Tree
Genus: Tsuga
Species: canadensis
Sample No.: TSCA-2-51
Owner: UCSB
Wavelength Range: VSWIR
Origin: USA; Massachusetts; Harvard Forest
Collection Date: 7/8/2013
Description: Samples were collected as part of NSF Macrosystem Biology proposal titled: Collaborative Research: Thermal controls on ecosystem metabolism and function: scaling from leaves to canopies to regions. Samples were collected and overnighted to JPL facilities for processing. The same leaves were processed in the Nicolet and then measured using the ASD.
Measurement: Bidirectional reflectance
First Column: X
Second Column: Y
X Units: Wavelength (micrometers)
Y Units: Reflectance (percentage)
First X Value: 0.35
Last X Value: 2.5
Number of X Values: 2151
Additional Information: vegetation.tree.tsuga.canadensis.vswir.tsca-2-51.ucsb.asd.ancillary.txt

 0.3500	 3.5610
 0.3510	 3.1220
 0.3520	 3.0000
 0.3530	 3.2850
 0.3540	 3.7060
 0.3550	 3.3780
 0.3560	 3.3450
 0.3570	 3.5050
 0.3580	 3.2570
 0.3590	 3.3310
 0.3600	 3.3340
 0.3610	 3.1620
 0.3620	 3.2640
 0.3630	 3.2240
 0.3640	 3.2030
 0.3650	 3.3620
 0.3660	 3.2790
 0.3670	 3.2350
 0.3680	 3.3020
 0.3690	 3.3910
 0.3700	 3.4160
 0.3710	 3.3510
 0.3720	 3.2430
 0.3730	 3.2440
 0.3740	 3.2650
 0.3750	 3.2350
 0.3760	 3.1430
 0.3770	 3.2310
 0.3780	 3.2260
 0.3790	 3.1370
 0.3800	 3.2070
 0.3810	 3.2680
 0.3820	 3.2920
 0.3830	 3.2810
 0.3840	 3.2230
 0.3850	 3.2200
 0.3860	 3.2450
 0.3870	 3.2410
 0.3880	 3.3460
 0.3890	 3.3150
 0.3900	 3.1650
 0.3910	 3.1820
 0.3920	 3.2580
 0.3930	 3.2860
 0.3940	 3.2370
 0.3950	 3.2830
 0.3960	 3.2990
 0.3970	 3.2790
 0.3980	 3.2680
 0.3990	 3.2560
 0.4000	 3.2790
 0.4010	 3.3320
 0.4020	 3.3560
 0.4030	 3.3440
 0.4040	 3.3320
 0.4050	 3.3500
 0.4060	 3.3680
 0.4070	 3.4000
 0.4080	 3.4360
 0.4090	 3.4530
 0.4100	 3.4050
 0.4110	 3.4070
 0.4120	 3.4850
 0.4130	 3.4810
 0.4140	 3.4780
 0.4150	 3.5140
 0.4160	 3.5820
 0.4170	 3.5390
 0.4180	 3.5320
 0.4190	 3.5860
 0.4200	 3.6040
 0.4210	 3.6120
 0.4220	 3.6160
 0.4230	 3.6200
 0.4240	 3.6230
 0.4250	 3.6420
 0.4260	 3.6580
 0.4270	 3.6470
 0.4280	 3.6780
 0.4290	 3.6880
 0.4300	 3.6650
 0.4310	 3.6810
 0.4320	 3.6910
 0.4330	 3.6890
 0.4340	 3.6830
 0.4350	 3.6940
 0.4360	 3.7090
 0.4370	 3.7230
 0.4380	 3.7450
 0.4390	 3.7490
 0.4400	 3.7330
 0.4410	 3.7110
 0.4420	 3.7350
 0.4430	 3.7440
 0.4440	 3.7420
 0.4450	 3.7490
 0.4460	 3.7450
 0.4470	 3.7460
 0.4480	 3.7550
 0.4490	 3.7570
 0.4500	 3.7660
 0.4510	 3.7780
 0.4520	 3.7900
 0.4530	 3.8090
 0.4540	 3.8080
 0.4550	 3.7990
 0.4560	 3.8190
 0.4570	 3.8250
 0.4580	 3.8150
 0.4590	 3.8020
 0.4600	 3.8260
 0.4610	 3.8330
 0.4620	 3.8300
 0.4630	 3.8390
 0.4640	 3.8350
 0.4650	 3.8420
 0.4660	 3.8570
 0.4670	 3.8500
 0.4680	 3.8570
 0.4690	 3.8700
 0.4700	 3.8740
 0.4710	 3.8640
 0.4720	 3.8530
 0.4730	 3.8460
 0.4740	 3.8430
 0.4750	 3.8560
 0.4760	 3.8630
 0.4770	 3.8580
 0.4780	 3.8580
 0.4790	 3.8630
 0.4800	 3.8760
 0.4810	 3.8930
 0.4820	 3.8900
 0.4830	 3.8900
 0.4840	 3.9010
 0.4850	 3.9120
 0.4860	 3.9030
 0.4870	 3.9000
 0.4880	 3.9170
 0.4890	 3.9220
 0.4900	 3.9310
 0.4910	 3.9480
 0.4920	 3.9680
 0.4930	 3.9730
 0.4940	 3.9770
 0.4950	 3.9910
 0.4960	 4.0120
 0.4970	 4.0360
 0.4980	 4.0550
 0.4990	 4.0680
 0.5000	 4.0920
 0.5010	 4.1240
 0.5020	 4.1640
 0.5030	 4.2120
 0.5040	 4.2510
 0.5050	 4.2910
 0.5060	 4.3420
 0.5070	 4.4100
 0.5080	 4.4850
 0.5090	 4.5600
 0.5100	 4.6330
 0.5110	 4.7260
 0.5120	 4.8360
 0.5130	 4.9540
 0.5140	 5.0720
 0.5150	 5.2050
 0.5160	 5.3460
 0.5170	 5.4890
 0.5180	 5.6470
 0.5190	 5.8110
 0.5200	 5.9780
 0.5210	 6.1450
 0.5220	 6.3150
 0.5230	 6.4760
 0.5240	 6.6250
 0.5250	 6.7770
 0.5260	 6.9240
 0.5270	 7.0590
 0.5280	 7.1740
 0.5290	 7.2830
 0.5300	 7.3840
 0.5310	 7.4740
 0.5320	 7.5450
 0.5330	 7.6110
 0.5340	 7.6740
 0.5350	 7.7330
 0.5360	 7.7680
 0.5370	 7.7990
 0.5380	 7.8350
 0.5390	 7.8680
 0.5400	 7.8930
 0.5410	 7.9160
 0.5420	 7.9420
 0.5430	 7.9740
 0.5440	 8.0040
 0.5450	 8.0300
 0.5460	 8.0520
 0.5470	 8.0630
 0.5480	 8.0740
 0.5490	 8.0900
 0.5500	 8.1010
 0.5510	 8.1110
 0.5520	 8.1130
 0.5530	 8.1050
 0.5540	 8.0920
 0.5550	 8.0630
 0.5560	 8.0180
 0.5570	 7.9680
 0.5580	 7.9070
 0.5590	 7.8390
 0.5600	 7.7650
 0.5610	 7.6840
 0.5620	 7.6010
 0.5630	 7.5150
 0.5640	 7.4240
 0.5650	 7.3310
 0.5660	 7.2270
 0.5670	 7.1160
 0.5680	 7.0160
 0.5690	 6.9000
 0.5700	 6.7830
 0.5710	 6.6780
 0.5720	 6.5740
 0.5730	 6.4830
 0.5740	 6.4020
 0.5750	 6.3220
 0.5760	 6.2540
 0.5770	 6.1940
 0.5780	 6.1350
 0.5790	 6.0800
 0.5800	 6.0290
 0.5810	 5.9800
 0.5820	 5.9310
 0.5830	 5.8800
 0.5840	 5.8320
 0.5850	 5.7890
 0.5860	 5.7480
 0.5870	 5.7030
 0.5880	 5.6630
 0.5890	 5.6360
 0.5900	 5.6090
 0.5910	 5.5930
 0.5920	 5.5820
 0.5930	 5.5670
 0.5940	 5.5520
 0.5950	 5.5380
 0.5960	 5.5260
 0.5970	 5.5110
 0.5980	 5.4940
 0.5990	 5.4750
 0.6000	 5.4540
 0.6010	 5.4380
 0.6020	 5.4210
 0.6030	 5.4010
 0.6040	 5.3800
 0.6050	 5.3500
 0.6060	 5.3200
 0.6070	 5.2950
 0.6080	 5.2640
 0.6090	 5.2310
 0.6100	 5.2010
 0.6110	 5.1750
 0.6120	 5.1380
 0.6130	 5.1000
 0.6140	 5.0670
 0.6150	 5.0340
 0.6160	 5.0030
 0.6170	 4.9760
 0.6180	 4.9500
 0.6190	 4.9270
 0.6200	 4.9060
 0.6210	 4.8890
 0.6220	 4.8770
 0.6230	 4.8610
 0.6240	 4.8490
 0.6250	 4.8450
 0.6260	 4.8370
 0.6270	 4.8330
 0.6280	 4.8300
 0.6290	 4.8270
 0.6300	 4.8230
 0.6310	 4.8200
 0.6320	 4.8150
 0.6330	 4.8090
 0.6340	 4.7980
 0.6350	 4.7840
 0.6360	 4.7650
 0.6370	 4.7390
 0.6380	 4.7090
 0.6390	 4.6790
 0.6400	 4.6530
 0.6410	 4.6200
 0.6420	 4.5850
 0.6430	 4.5540
 0.6440	 4.5260
 0.6450	 4.4970
 0.6460	 4.4680
 0.6470	 4.4440
 0.6480	 4.4250
 0.6490	 4.4080
 0.6500	 4.3930
 0.6510	 4.3780
 0.6520	 4.3680
 0.6530	 4.3590
 0.6540	 4.3490
 0.6550	 4.3430
 0.6560	 4.3390
 0.6570	 4.3310
 0.6580	 4.3140
 0.6590	 4.3000
 0.6600	 4.2900
 0.6610	 4.2810
 0.6620	 4.2690
 0.6630	 4.2550
 0.6640	 4.2460
 0.6650	 4.2440
 0.6660	 4.2370
 0.6670	 4.2310
 0.6680	 4.2300
 0.6690	 4.2350
 0.6700	 4.2420
 0.6710	 4.2520
 0.6720	 4.2620
 0.6730	 4.2760
 0.6740	 4.2900
 0.6750	 4.3070
 0.6760	 4.3310
 0.6770	 4.3510
 0.6780	 4.3730
 0.6790	 4.4020
 0.6800	 4.4380
 0.6810	 4.4670
 0.6820	 4.5020
 0.6830	 4.5480
 0.6840	 4.5870
 0.6850	 4.6330
 0.6860	 4.6870
 0.6870	 4.7480
 0.6880	 4.8200
 0.6890	 4.9110
 0.6900	 5.0270
 0.6910	 5.1710
 0.6920	 5.3550
 0.6930	 5.5780
 0.6940	 5.8440
 0.6950	 6.1720
 0.6960	 6.5570
 0.6970	 7.0010
 0.6980	 7.5020
 0.6990	 8.0600
 0.7000	 8.6740
 0.7010	 9.3380
 0.7020	10.0450
 0.7030	10.7920
 0.7040	11.5770
 0.7050	12.3950
 0.7060	13.2400
 0.7070	14.1170
 0.7080	15.0150
 0.7090	15.9260
 0.7100	16.8720
 0.7110	17.8310
 0.7120	18.8010
 0.7130	19.7990
 0.7140	20.7940
 0.7150	21.8010
 0.7160	22.8290
 0.7170	23.8520
 0.7180	24.8800
 0.7190	25.9110
 0.7200	26.9400
 0.7210	27.9630
 0.7220	28.9740
 0.7230	29.9740
 0.7240	30.9590
 0.7250	31.9250
 0.7260	32.8690
 0.7270	33.7880
 0.7280	34.6770
 0.7290	35.5330
 0.7300	36.3610
 0.7310	37.1630
 0.7320	37.9260
 0.7330	38.6540
 0.7340	39.3500
 0.7350	40.0160
 0.7360	40.6410
 0.7370	41.2330
 0.7380	41.7970
 0.7390	42.3280
 0.7400	42.8300
 0.7410	43.2950
 0.7420	43.7200
 0.7430	44.1430
 0.7440	44.5220
 0.7450	44.8540
 0.7460	45.1710
 0.7470	45.4830
 0.7480	45.7660
 0.7490	46.0080
 0.7500	46.2410
 0.7510	46.4470
 0.7520	46.6380
 0.7530	46.8300
 0.7540	46.9920
 0.7550	47.1240
 0.7560	47.2390
 0.7570	47.3620
 0.7580	47.4760
 0.7590	47.5750
 0.7600	47.6610
 0.7610	47.7380
 0.7620	47.8170
 0.7630	47.8920
 0.7640	47.9510
 0.7650	47.9860
 0.7660	48.0310
 0.7670	48.0830
 0.7680	48.1170
 0.7690	48.1430
 0.7700	48.1740
 0.7710	48.2140
 0.7720	48.2490
 0.7730	48.2830
 0.7740	48.3080
 0.7750	48.3230
 0.7760	48.3510
 0.7770	48.3570
 0.7780	48.3600
 0.7790	48.3970
 0.7800	48.4310
 0.7810	48.4490
 0.7820	48.4590
 0.7830	48.4850
 0.7840	48.5110
 0.7850	48.5290
 0.7860	48.5400
 0.7870	48.5580
 0.7880	48.5750
 0.7890	48.5900
 0.7900	48.6060
 0.7910	48.6420
 0.7920	48.6490
 0.7930	48.6410
 0.7940	48.6740
 0.7950	48.6950
 0.7960	48.7010
 0.7970	48.7070
 0.7980	48.7370
 0.7990	48.7600
 0.8000	48.7650
 0.8010	48.7620
 0.8020	48.7920
 0.8030	48.8170
 0.8040	48.8310
 0.8050	48.8410
 0.8060	48.8420
 0.8070	48.8400
 0.8080	48.8440
 0.8090	48.8570
 0.8100	48.8630
 0.8110	48.8710
 0.8120	48.8850
 0.8130	48.9020
 0.8140	48.9250
 0.8150	48.9390
 0.8160	48.9380
 0.8170	48.9490
 0.8180	48.9700
 0.8190	48.9820
 0.8200	48.9700
 0.8210	48.9790
 0.8220	49.0010
 0.8230	49.0200
 0.8240	49.0180
 0.8250	49.0070
 0.8260	49.0220
 0.8270	49.0600
 0.8280	49.0570
 0.8290	49.0500
 0.8300	49.0470
 0.8310	49.0490
 0.8320	49.0700
 0.8330	49.0840
 0.8340	49.0880
 0.8350	49.0940
 0.8360	49.1120
 0.8370	49.1340
 0.8380	49.1560
 0.8390	49.1740
 0.8400	49.1640
 0.8410	49.1720
 0.8420	49.2040
 0.8430	49.1990
 0.8440	49.2270
 0.8450	49.2650
 0.8460	49.2840
 0.8470	49.2850
 0.8480	49.2920
 0.8490	49.3050
 0.8500	49.3170
 0.8510	49.3480
 0.8520	49.3660
 0.8530	49.3760
 0.8540	49.4000
 0.8550	49.3960
 0.8560	49.4020
 0.8570	49.4300
 0.8580	49.4560
 0.8590	49.4670
 0.8600	49.4610
 0.8610	49.4610
 0.8620	49.5120
 0.8630	49.5160
 0.8640	49.5030
 0.8650	49.5160
 0.8660	49.5470
 0.8670	49.5640
 0.8680	49.5780
 0.8690	49.6060
 0.8700	49.6010
 0.8710	49.6010
 0.8720	49.6220
 0.8730	49.6580
 0.8740	49.6550
 0.8750	49.6580
 0.8760	49.6810
 0.8770	49.6950
 0.8780	49.6980
 0.8790	49.7000
 0.8800	49.7120
 0.8810	49.7340
 0.8820	49.7260
 0.8830	49.7270
 0.8840	49.7600
 0.8850	49.7650
 0.8860	49.7740
 0.8870	49.7870
 0.8880	49.7950
 0.8890	49.7980
 0.8900	49.7980
 0.8910	49.7950
 0.8920	49.7940
 0.8930	49.8230
 0.8940	49.8420
 0.8950	49.8340
 0.8960	49.8060
 0.8970	49.8320
 0.8980	49.8620
 0.8990	49.8730
 0.9000	49.8780
 0.9010	49.8800
 0.9020	49.8710
 0.9030	49.8650
 0.9040	49.8910
 0.9050	49.9040
 0.9060	49.9020
 0.9070	49.8960
 0.9080	49.9080
 0.9090	49.9270
 0.9100	49.9260
 0.9110	49.9040
 0.9120	49.9380
 0.9130	49.9590
 0.9140	49.9560
 0.9150	49.9420
 0.9160	49.9350
 0.9170	49.9290
 0.9180	49.9330
 0.9190	49.9480
 0.9200	49.9480
 0.9210	49.9230
 0.9220	49.8960
 0.9230	49.8990
 0.9240	49.9310
 0.9250	49.9260
 0.9260	49.8860
 0.9270	49.8660
 0.9280	49.8520
 0.9290	49.8450
 0.9300	49.8390
 0.9310	49.8170
 0.9320	49.7720
 0.9330	49.7490
 0.9340	49.7450
 0.9350	49.6980
 0.9360	49.6730
 0.9370	49.6520
 0.9380	49.6210
 0.9390	49.5940
 0.9400	49.5470
 0.9410	49.4990
 0.9420	49.4650
 0.9430	49.4430
 0.9440	49.3900
 0.9450	49.3280
 0.9460	49.2800
 0.9470	49.2300
 0.9480	49.1600
 0.9490	49.0720
 0.9500	48.9780
 0.9510	48.9010
 0.9520	48.8390
 0.9530	48.7690
 0.9540	48.6750
 0.9550	48.5650
 0.9560	48.4690
 0.9570	48.3840
 0.9580	48.3040
 0.9590	48.2530
 0.9600	48.2110
 0.9610	48.1450
 0.9620	48.0550
 0.9630	48.0690
 0.9640	48.0480
 0.9650	47.9990
 0.9660	47.9780
 0.9670	47.9750
 0.9680	47.9570
 0.9690	47.9330
 0.9700	47.9250
 0.9710	47.9370
 0.9720	47.9110
 0.9730	47.8690
 0.9740	47.8640
 0.9750	47.8950
 0.9760	47.9040
 0.9770	47.8930
 0.9780	47.8950
 0.9790	47.9230
 0.9800	47.9100
 0.9810	47.8950
 0.9820	47.9470
 0.9830	47.9940
 0.9840	48.0140
 0.9850	48.0340
 0.9860	48.0880
 0.9870	48.1120
 0.9880	48.1290
 0.9890	48.1470
 0.9900	48.1640
 0.9910	48.1760
 0.9920	48.2180
 0.9930	48.2590
 0.9940	48.3010
 0.9950	48.3430
 0.9960	48.3850
 0.9970	48.4260
 0.9980	48.4680
 0.9990	48.5100
 1.0000	48.5520
 1.0010	48.5930
 1.0020	48.6350
 1.0030	48.6770
 1.0040	48.7190
 1.0050	48.7610
 1.0060	48.8020
 1.0070	48.8440
 1.0080	48.8860
 1.0090	48.9280
 1.0100	48.9280
 1.0110	48.9610
 1.0120	48.9980
 1.0130	49.0280
 1.0140	49.0690
 1.0150	49.1180
 1.0160	49.1660
 1.0170	49.2170
 1.0180	49.2600
 1.0190	49.3010
 1.0200	49.3460
 1.0210	49.3840
 1.0220	49.4280
 1.0230	49.4680
 1.0240	49.5030
 1.0250	49.5400
 1.0260	49.5800
 1.0270	49.6150
 1.0280	49.6430
 1.0290	49.6790
 1.0300	49.7180
 1.0310	49.7500
 1.0320	49.7810
 1.0330	49.8150
 1.0340	49.8440
 1.0350	49.8790
 1.0360	49.9170
 1.0370	49.9510
 1.0380	49.9840
 1.0390	50.0120
 1.0400	50.0430
 1.0410	50.0750
 1.0420	50.1070
 1.0430	50.1470
 1.0440	50.1700
 1.0450	50.1790
 1.0460	50.2030
 1.0470	50.2230
 1.0480	50.2430
 1.0490	50.2760
 1.0500	50.3030
 1.0510	50.3210
 1.0520	50.3400
 1.0530	50.3600
 1.0540	50.3830
 1.0550	50.4020
 1.0560	50.4220
 1.0570	50.4350
 1.0580	50.4450
 1.0590	50.4550
 1.0600	50.4550
 1.0610	50.4680
 1.0620	50.4900
 1.0630	50.5070
 1.0640	50.5280
 1.0650	50.5440
 1.0660	50.5520
 1.0670	50.5630
 1.0680	50.5760
 1.0690	50.5900
 1.0700	50.6010
 1.0710	50.6120
 1.0720	50.6230
 1.0730	50.6340
 1.0740	50.6440
 1.0750	50.6600
 1.0760	50.6660
 1.0770	50.6640
 1.0780	50.6670
 1.0790	50.6690
 1.0800	50.6720
 1.0810	50.6800
 1.0820	50.6830
 1.0830	50.6780
 1.0840	50.6770
 1.0850	50.6720
 1.0860	50.6700
 1.0870	50.6690
 1.0880	50.6700
 1.0890	50.6660
 1.0900	50.6620
 1.0910	50.6530
 1.0920	50.6380
 1.0930	50.6270
 1.0940	50.6150
 1.0950	50.6020
 1.0960	50.5880
 1.0970	50.5780
 1.0980	50.5680
 1.0990	50.5580
 1.1000	50.5490
 1.1010	50.5400
 1.1020	50.5340
 1.1030	50.5200
 1.1040	50.5020
 1.1050	50.4840
 1.1060	50.4660
 1.1070	50.4420
 1.1080	50.4210
 1.1090	50.4050
 1.1100	50.3840
 1.1110	50.3590
 1.1120	50.3360
 1.1130	50.3150
 1.1140	50.2900
 1.1150	50.2610
 1.1160	50.2320
 1.1170	50.2020
 1.1180	50.1670
 1.1190	50.1340
 1.1200	50.0920
 1.1210	50.0420
 1.1220	49.9920
 1.1230	49.9320
 1.1240	49.8670
 1.1250	49.7970
 1.1260	49.7260
 1.1270	49.6390
 1.1280	49.5460
 1.1290	49.4390
 1.1300	49.3220
 1.1310	49.1930
 1.1320	49.0560
 1.1330	48.9070
 1.1340	48.7450
 1.1350	48.5750
 1.1360	48.3940
 1.1370	48.2030
 1.1380	48.0090
 1.1390	47.8040
 1.1400	47.5900
 1.1410	47.3750
 1.1420	47.1530
 1.1430	46.9320
 1.1440	46.7120
 1.1450	46.4880
 1.1460	46.2760
 1.1470	46.0640
 1.1480	45.8660
 1.1490	45.6790
 1.1500	45.5010
 1.1510	45.3270
 1.1520	45.1700
 1.1530	45.0260
 1.1540	44.8940
 1.1550	44.7700
 1.1560	44.6680
 1.1570	44.5740
 1.1580	44.4910
 1.1590	44.4220
 1.1600	44.3570
 1.1610	44.2960
 1.1620	44.2420
 1.1630	44.1920
 1.1640	44.1510
 1.1650	44.1170
 1.1660	44.0920
 1.1670	44.0660
 1.1680	44.0480
 1.1690	44.0280
 1.1700	44.0100
 1.1710	43.9950
 1.1720	43.9830
 1.1730	43.9690
 1.1740	43.9560
 1.1750	43.9390
 1.1760	43.9220
 1.1770	43.9040
 1.1780	43.8850
 1.1790	43.8660
 1.1800	43.8450
 1.1810	43.8250
 1.1820	43.8050
 1.1830	43.7820
 1.1840	43.7630
 1.1850	43.7460
 1.1860	43.7300
 1.1870	43.7160
 1.1880	43.7010
 1.1890	43.6830
 1.1900	43.6700
 1.1910	43.6540
 1.1920	43.6460
 1.1930	43.6420
 1.1940	43.6400
 1.1950	43.6400
 1.1960	43.6450
 1.1970	43.6480
 1.1980	43.6590
 1.1990	43.6700
 1.2000	43.6840
 1.2010	43.7030
 1.2020	43.7220
 1.2030	43.7430
 1.2040	43.7660
 1.2050	43.7890
 1.2060	43.8150
 1.2070	43.8430
 1.2080	43.8730
 1.2090	43.9040
 1.2100	43.9400
 1.2110	43.9770
 1.2120	44.0140
 1.2130	44.0560
 1.2140	44.1010
 1.2150	44.1480
 1.2160	44.1970
 1.2170	44.2500
 1.2180	44.2990
 1.2190	44.3470
 1.2200	44.3970
 1.2210	44.4480
 1.2220	44.4990
 1.2230	44.5500
 1.2240	44.6030
 1.2250	44.6550
 1.2260	44.7050
 1.2270	44.7570
 1.2280	44.8060
 1.2290	44.8530
 1.2300	44.9000
 1.2310	44.9470
 1.2320	44.9930
 1.2330	45.0380
 1.2340	45.0820
 1.2350	45.1240
 1.2360	45.1630
 1.2370	45.2000
 1.2380	45.2370
 1.2390	45.2720
 1.2400	45.3100
 1.2410	45.3480
 1.2420	45.3800
 1.2430	45.4140
 1.2440	45.4490
 1.2450	45.4820
 1.2460	45.5190
 1.2470	45.5560
 1.2480	45.5890
 1.2490	45.6170
 1.2500	45.6420
 1.2510	45.6660
 1.2520	45.6850
 1.2530	45.7040
 1.2540	45.7220
 1.2550	45.7380
 1.2560	45.7570
 1.2570	45.7790
 1.2580	45.7960
 1.2590	45.8110
 1.2600	45.8240
 1.2610	45.8350
 1.2620	45.8430
 1.2630	45.8510
 1.2640	45.8610
 1.2650	45.8670
 1.2660	45.8690
 1.2670	45.8720
 1.2680	45.8750
 1.2690	45.8760
 1.2700	45.8750
 1.2710	45.8700
 1.2720	45.8640
 1.2730	45.8540
 1.2740	45.8420
 1.2750	45.8330
 1.2760	45.8140
 1.2770	45.7930
 1.2780	45.7760
 1.2790	45.7550
 1.2800	45.7360
 1.2810	45.7160
 1.2820	45.6900
 1.2830	45.6630
 1.2840	45.6300
 1.2850	45.5950
 1.2860	45.5590
 1.2870	45.5200
 1.2880	45.4770
 1.2890	45.4350
 1.2900	45.3900
 1.2910	45.3440
 1.2920	45.2970
 1.2930	45.2460
 1.2940	45.1920
 1.2950	45.1320
 1.2960	45.0690
 1.2970	45.0050
 1.2980	44.9360
 1.2990	44.8630
 1.3000	44.7860
 1.3010	44.7040
 1.3020	44.6170
 1.3030	44.5260
 1.3040	44.4330
 1.3050	44.3360
 1.3060	44.2380
 1.3070	44.1410
 1.3080	44.0390
 1.3090	43.9310
 1.3100	43.8160
 1.3110	43.6950
 1.3120	43.5710
 1.3130	43.4410
 1.3140	43.3060
 1.3150	43.1680
 1.3160	43.0230
 1.3170	42.8730
 1.3180	42.7180
 1.3190	42.5560
 1.3200	42.3880
 1.3210	42.2130
 1.3220	42.0340
 1.3230	41.8540
 1.3240	41.6690
 1.3250	41.4820
 1.3260	41.2940
 1.3270	41.1020
 1.3280	40.9050
 1.3290	40.7080
 1.3300	40.5070
 1.3310	40.3010
 1.3320	40.0920
 1.3330	39.8850
 1.3340	39.6790
 1.3350	39.4730
 1.3360	39.2680
 1.3370	39.0590
 1.3380	38.8530
 1.3390	38.6490
 1.3400	38.4430
 1.3410	38.2420
 1.3420	38.0440
 1.3430	37.8480
 1.3440	37.6560
 1.3450	37.4650
 1.3460	37.2770
 1.3470	37.0900
 1.3480	36.9050
 1.3490	36.7240
 1.3500	36.5470
 1.3510	36.3710
 1.3520	36.1970
 1.3530	36.0210
 1.3540	35.8420
 1.3550	35.6670
 1.3560	35.4900
 1.3570	35.3110
 1.3580	35.1360
 1.3590	34.9570
 1.3600	34.7700
 1.3610	34.5800
 1.3620	34.3830
 1.3630	34.1770
 1.3640	33.9640
 1.3650	33.7420
 1.3660	33.5120
 1.3670	33.2690
 1.3680	33.0140
 1.3690	32.7440
 1.3700	32.4540
 1.3710	32.1510
 1.3720	31.8290
 1.3730	31.4840
 1.3740	31.1260
 1.3750	30.7460
 1.3760	30.3380
 1.3770	29.9100
 1.3780	29.4510
 1.3790	28.9670
 1.3800	28.4620
 1.3810	27.9280
 1.3820	27.3790
 1.3830	26.8090
 1.3840	26.2240
 1.3850	25.6210
 1.3860	25.0110
 1.3870	24.3790
 1.3880	23.7540
 1.3890	23.1220
 1.3900	22.4880
 1.3910	21.8640
 1.3920	21.2440
 1.3930	20.6280
 1.3940	20.0260
 1.3950	19.4300
 1.3960	18.8510
 1.3970	18.2930
 1.3980	17.7510
 1.3990	17.2370
 1.4000	16.7420
 1.4010	16.2660
 1.4020	15.8200
 1.4030	15.3960
 1.4040	14.9960
 1.4050	14.6240
 1.4060	14.2730
 1.4070	13.9480
 1.4080	13.6460
 1.4090	13.3630
 1.4100	13.1030
 1.4110	12.8610
 1.4120	12.6350
 1.4130	12.4290
 1.4140	12.2400
 1.4150	12.0660
 1.4160	11.9070
 1.4170	11.7610
 1.4180	11.6270
 1.4190	11.5040
 1.4200	11.3920
 1.4210	11.2900
 1.4220	11.1970
 1.4230	11.1130
 1.4240	11.0380
 1.4250	10.9690
 1.4260	10.9100
 1.4270	10.8540
 1.4280	10.8040
 1.4290	10.7590
 1.4300	10.7190
 1.4310	10.6830
 1.4320	10.6540
 1.4330	10.6280
 1.4340	10.6060
 1.4350	10.5870
 1.4360	10.5710
 1.4370	10.5580
 1.4380	10.5480
 1.4390	10.5420
 1.4400	10.5390
 1.4410	10.5390
 1.4420	10.5420
 1.4430	10.5460
 1.4440	10.5520
 1.4450	10.5600
 1.4460	10.5690
 1.4470	10.5810
 1.4480	10.5930
 1.4490	10.6060
 1.4500	10.6220
 1.4510	10.6360
 1.4520	10.6530
 1.4530	10.6700
 1.4540	10.6900
 1.4550	10.7120
 1.4560	10.7330
 1.4570	10.7580
 1.4580	10.7850
 1.4590	10.8150
 1.4600	10.8490
 1.4610	10.8870
 1.4620	10.9280
 1.4630	10.9730
 1.4640	11.0220
 1.4650	11.0760
 1.4660	11.1330
 1.4670	11.1960
 1.4680	11.2630
 1.4690	11.3330
 1.4700	11.4060
 1.4710	11.4840
 1.4720	11.5630
 1.4730	11.6450
 1.4740	11.7310
 1.4750	11.8190
 1.4760	11.9110
 1.4770	12.0080
 1.4780	12.1050
 1.4790	12.2040
 1.4800	12.3040
 1.4810	12.4040
 1.4820	12.5070
 1.4830	12.6110
 1.4840	12.7190
 1.4850	12.8260
 1.4860	12.9370
 1.4870	13.0480
 1.4880	13.1600
 1.4890	13.2760
 1.4900	13.3910
 1.4910	13.5070
 1.4920	13.6240
 1.4930	13.7420
 1.4940	13.8610
 1.4950	13.9810
 1.4960	14.1020
 1.4970	14.2230
 1.4980	14.3460
 1.4990	14.4690
 1.5000	14.5920
 1.5010	14.7160
 1.5020	14.8400
 1.5030	14.9650
 1.5040	15.0900
 1.5050	15.2150
 1.5060	15.3420
 1.5070	15.4690
 1.5080	15.5950
 1.5090	15.7230
 1.5100	15.8500
 1.5110	15.9740
 1.5120	16.0990
 1.5130	16.2220
 1.5140	16.3460
 1.5150	16.4700
 1.5160	16.5960
 1.5170	16.7210
 1.5180	16.8450
 1.5190	16.9680
 1.5200	17.0910
 1.5210	17.2120
 1.5220	17.3350
 1.5230	17.4590
 1.5240	17.5820
 1.5250	17.7050
 1.5260	17.8250
 1.5270	17.9440
 1.5280	18.0620
 1.5290	18.1790
 1.5300	18.2980
 1.5310	18.4160
 1.5320	18.5310
 1.5330	18.6470
 1.5340	18.7630
 1.5350	18.8760
 1.5360	18.9900
 1.5370	19.1040
 1.5380	19.2160
 1.5390	19.3260
 1.5400	19.4380
 1.5410	19.5500
 1.5420	19.6590
 1.5430	19.7710
 1.5440	19.8820
 1.5450	19.9880
 1.5460	20.0960
 1.5470	20.2050
 1.5480	20.3110
 1.5490	20.4200
 1.5500	20.5270
 1.5510	20.6320
 1.5520	20.7370
 1.5530	20.8410
 1.5540	20.9440
 1.5550	21.0470
 1.5560	21.1490
 1.5570	21.2530
 1.5580	21.3560
 1.5590	21.4590
 1.5600	21.5620
 1.5610	21.6580
 1.5620	21.7510
 1.5630	21.8470
 1.5640	21.9400
 1.5650	22.0370
 1.5660	22.1360
 1.5670	22.2320
 1.5680	22.3260
 1.5690	22.4160
 1.5700	22.5050
 1.5710	22.5960
 1.5720	22.6850
 1.5730	22.7780
 1.5740	22.8690
 1.5750	22.9580
 1.5760	23.0480
 1.5770	23.1350
 1.5780	23.2230
 1.5790	23.3100
 1.5800	23.3960
 1.5810	23.4830
 1.5820	23.5700
 1.5830	23.6570
 1.5840	23.7440
 1.5850	23.8300
 1.5860	23.9150
 1.5870	23.9990
 1.5880	24.0800
 1.5890	24.1610
 1.5900	24.2410
 1.5910	24.3200
 1.5920	24.4020
 1.5930	24.4820
 1.5940	24.5620
 1.5950	24.6420
 1.5960	24.7210
 1.5970	24.7990
 1.5980	24.8790
 1.5990	24.9580
 1.6000	25.0340
 1.6010	25.1070
 1.6020	25.1810
 1.6030	25.2540
 1.6040	25.3270
 1.6050	25.4010
 1.6060	25.4730
 1.6070	25.5450
 1.6080	25.6150
 1.6090	25.6860
 1.6100	25.7570
 1.6110	25.8270
 1.6120	25.8990
 1.6130	25.9690
 1.6140	26.0400
 1.6150	26.1070
 1.6160	26.1680
 1.6170	26.2300
 1.6180	26.2880
 1.6190	26.3420
 1.6200	26.4000
 1.6210	26.4540
 1.6220	26.5060
 1.6230	26.5600
 1.6240	26.6140
 1.6250	26.6670
 1.6260	26.7210
 1.6270	26.7730
 1.6280	26.8270
 1.6290	26.8780
 1.6300	26.9280
 1.6310	26.9770
 1.6320	27.0240
 1.6330	27.0700
 1.6340	27.1150
 1.6350	27.1600
 1.6360	27.2060
 1.6370	27.2480
 1.6380	27.2900
 1.6390	27.3300
 1.6400	27.3670
 1.6410	27.4030
 1.6420	27.4400
 1.6430	27.4710
 1.6440	27.4980
 1.6450	27.5240
 1.6460	27.5460
 1.6470	27.5660
 1.6480	27.5870
 1.6490	27.6070
 1.6500	27.6240
 1.6510	27.6400
 1.6520	27.6520
 1.6530	27.6620
 1.6540	27.6710
 1.6550	27.6770
 1.6560	27.6780
 1.6570	27.6750
 1.6580	27.6720
 1.6590	27.6650
 1.6600	27.6600
 1.6610	27.6530
 1.6620	27.6380
 1.6630	27.6240
 1.6640	27.6090
 1.6650	27.5900
 1.6660	27.5750
 1.6670	27.5610
 1.6680	27.5460
 1.6690	27.5310
 1.6700	27.5160
 1.6710	27.5000
 1.6720	27.4830
 1.6730	27.4680
 1.6740	27.4550
 1.6750	27.4340
 1.6760	27.4120
 1.6770	27.3920
 1.6780	27.3630
 1.6790	27.3330
 1.6800	27.3070
 1.6810	27.2730
 1.6820	27.2350
 1.6830	27.1980
 1.6840	27.1570
 1.6850	27.1130
 1.6860	27.0700
 1.6870	27.0230
 1.6880	26.9730
 1.6890	26.9230
 1.6900	26.8720
 1.6910	26.8210
 1.6920	26.7710
 1.6930	26.7170
 1.6940	26.6660
 1.6950	26.6170
 1.6960	26.5660
 1.6970	26.5150
 1.6980	26.4620
 1.6990	26.4090
 1.7000	26.3550
 1.7010	26.3020
 1.7020	26.2460
 1.7030	26.1860
 1.7040	26.1280
 1.7050	26.0700
 1.7060	26.0120
 1.7070	25.9550
 1.7080	25.8960
 1.7090	25.8330
 1.7100	25.7730
 1.7110	25.7120
 1.7120	25.6560
 1.7130	25.6000
 1.7140	25.5430
 1.7150	25.4850
 1.7160	25.4280
 1.7170	25.3700
 1.7180	25.3110
 1.7190	25.2540
 1.7200	25.1990
 1.7210	25.1410
 1.7220	25.0830
 1.7230	25.0270
 1.7240	24.9680
 1.7250	24.9120
 1.7260	24.8610
 1.7270	24.8100
 1.7280	24.7610
 1.7290	24.7130
 1.7300	24.6630
 1.7310	24.6160
 1.7320	24.5670
 1.7330	24.5220
 1.7340	24.4830
 1.7350	24.4390
 1.7360	24.3940
 1.7370	24.3480
 1.7380	24.2980
 1.7390	24.2470
 1.7400	24.2000
 1.7410	24.1450
 1.7420	24.0820
 1.7430	24.0210
 1.7440	23.9550
 1.7450	23.8910
 1.7460	23.8290
 1.7470	23.7630
 1.7480	23.6950
 1.7490	23.6250
 1.7500	23.5540
 1.7510	23.4810
 1.7520	23.4060
 1.7530	23.3290
 1.7540	23.2490
 1.7550	23.1710
 1.7560	23.0930
 1.7570	23.0130
 1.7580	22.9370
 1.7590	22.8670
 1.7600	22.7970
 1.7610	22.7360
 1.7620	22.6740
 1.7630	22.6110
 1.7640	22.5510
 1.7650	22.4940
 1.7660	22.4380
 1.7670	22.3820
 1.7680	22.3290
 1.7690	22.2760
 1.7700	22.2270
 1.7710	22.1800
 1.7720	22.1350
 1.7730	22.0940
 1.7740	22.0530
 1.7750	22.0140
 1.7760	21.9760
 1.7770	21.9380
 1.7780	21.9020
 1.7790	21.8660
 1.7800	21.8330
 1.7810	21.8010
 1.7820	21.7720
 1.7830	21.7450
 1.7840	21.7200
 1.7850	21.6970
 1.7860	21.6800
 1.7870	21.6670
 1.7880	21.6560
 1.7890	21.6520
 1.7900	21.6450
 1.7910	21.6390
 1.7920	21.6310
 1.7930	21.6270
 1.7940	21.6260
 1.7950	21.6260
 1.7960	21.6300
 1.7970	21.6310
 1.7980	21.6280
 1.7990	21.6310
 1.8000	21.6410
 1.8010	21.6450
 1.8020	21.6530
 1.8030	21.6570
 1.8040	21.6550
 1.8050	21.6600
 1.8060	21.6690
 1.8070	21.6730
 1.8080	21.6780
 1.8090	21.6800
 1.8100	21.6800
 1.8110	21.6820
 1.8120	21.6840
 1.8130	21.6890
 1.8140	21.6940
 1.8150	21.7020
 1.8160	21.7070
 1.8170	21.7100
 1.8180	21.7100
 1.8190	21.7040
 1.8200	21.7000
 1.8210	21.6950
 1.8220	21.6890
 1.8230	21.6820
 1.8240	21.6730
 1.8250	21.6600
 1.8260	21.6490
 1.8270	21.6140
 1.8280	21.5780
 1.8290	21.5430
 1.8300	21.5070
 1.8310	21.4720
 1.8320	21.4360
 1.8330	21.4010
 1.8340	21.3660
 1.8350	21.3660
 1.8360	21.3120
 1.8370	21.2560
 1.8380	21.1930
 1.8390	21.1270
 1.8400	21.0610
 1.8410	20.9820
 1.8420	20.8960
 1.8430	20.8090
 1.8440	20.7090
 1.8450	20.5980
 1.8460	20.4830
 1.8470	20.3590
 1.8480	20.2240
 1.8490	20.0730
 1.8500	19.9100
 1.8510	19.7340
 1.8520	19.5450
 1.8530	19.3410
 1.8540	19.1340
 1.8550	18.9260
 1.8560	18.6980
 1.8570	18.4540
 1.8580	18.1970
 1.8590	17.9250
 1.8600	17.6360
 1.8610	17.3320
 1.8620	17.0200
 1.8630	16.6940
 1.8640	16.3530
 1.8650	15.9970
 1.8660	15.6330
 1.8670	15.2550
 1.8680	14.8630
 1.8690	14.4610
 1.8700	14.0450
 1.8710	13.6140
 1.8720	13.1780
 1.8730	12.7420
 1.8740	12.2990
 1.8750	11.8580
 1.8760	11.4190
 1.8770	10.9860
 1.8780	10.5640
 1.8790	10.1490
 1.8800	 9.7460
 1.8810	 9.3530
 1.8820	 8.9650
 1.8830	 8.5860
 1.8840	 8.2270
 1.8850	 7.8770
 1.8860	 7.5380
 1.8870	 7.2180
 1.8880	 6.9130
 1.8890	 6.6260
 1.8900	 6.3630
 1.8910	 6.1140
 1.8920	 5.8800
 1.8930	 5.6630
 1.8940	 5.4700
 1.8950	 5.2940
 1.8960	 5.1360
 1.8970	 4.9960
 1.8980	 4.8630
 1.8990	 4.7410
 1.9000	 4.6320
 1.9010	 4.5380
 1.9020	 4.4490
 1.9030	 4.3730
 1.9040	 4.3020
 1.9050	 4.2340
 1.9060	 4.1780
 1.9070	 4.1310
 1.9080	 4.0880
 1.9090	 4.0510
 1.9100	 4.0180
 1.9110	 3.9870
 1.9120	 3.9580
 1.9130	 3.9330
 1.9140	 3.9140
 1.9150	 3.8940
 1.9160	 3.8760
 1.9170	 3.8660
 1.9180	 3.8530
 1.9190	 3.8440
 1.9200	 3.8380
 1.9210	 3.8300
 1.9220	 3.8230
 1.9230	 3.8170
 1.9240	 3.8140
 1.9250	 3.8120
 1.9260	 3.8150
 1.9270	 3.8200
 1.9280	 3.8260
 1.9290	 3.8360
 1.9300	 3.8380
 1.9310	 3.8420
 1.9320	 3.8510
 1.9330	 3.8560
 1.9340	 3.8620
 1.9350	 3.8700
 1.9360	 3.8770
 1.9370	 3.8870
 1.9380	 3.9020
 1.9390	 3.9130
 1.9400	 3.9260
 1.9410	 3.9380
 1.9420	 3.9480
 1.9430	 3.9620
 1.9440	 3.9760
 1.9450	 3.9900
 1.9460	 4.0070
 1.9470	 4.0280
 1.9480	 4.0470
 1.9490	 4.0660
 1.9500	 4.0860
 1.9510	 4.1050
 1.9520	 4.1210
 1.9530	 4.1410
 1.9540	 4.1600
 1.9550	 4.1790
 1.9560	 4.1970
 1.9570	 4.2180
 1.9580	 4.2390
 1.9590	 4.2630
 1.9600	 4.2940
 1.9610	 4.3210
 1.9620	 4.3490
 1.9630	 4.3780
 1.9640	 4.4030
 1.9650	 4.4260
 1.9660	 4.4480
 1.9670	 4.4780
 1.9680	 4.5070
 1.9690	 4.5410
 1.9700	 4.5710
 1.9710	 4.6000
 1.9720	 4.6290
 1.9730	 4.6550
 1.9740	 4.6850
 1.9750	 4.7160
 1.9760	 4.7540
 1.9770	 4.7890
 1.9780	 4.8250
 1.9790	 4.8620
 1.9800	 4.8980
 1.9810	 4.9360
 1.9820	 4.9780
 1.9830	 5.0160
 1.9840	 5.0560
 1.9850	 5.0930
 1.9860	 5.1270
 1.9870	 5.1630
 1.9880	 5.2000
 1.9890	 5.2370
 1.9900	 5.2780
 1.9910	 5.3170
 1.9920	 5.3580
 1.9930	 5.4010
 1.9940	 5.4440
 1.9950	 5.4870
 1.9960	 5.5300
 1.9970	 5.5730
 1.9980	 5.6160
 1.9990	 5.6600
 2.0000	 5.7060
 2.0010	 5.7520
 2.0020	 5.7990
 2.0030	 5.8410
 2.0040	 5.8820
 2.0050	 5.9240
 2.0060	 5.9620
 2.0070	 6.0040
 2.0080	 6.0480
 2.0090	 6.0910
 2.0100	 6.1340
 2.0110	 6.1790
 2.0120	 6.2250
 2.0130	 6.2720
 2.0140	 6.3190
 2.0150	 6.3640
 2.0160	 6.4110
 2.0170	 6.4560
 2.0180	 6.4990
 2.0190	 6.5410
 2.0200	 6.5820
 2.0210	 6.6150
 2.0220	 6.6550
 2.0230	 6.6990
 2.0240	 6.7410
 2.0250	 6.7860
 2.0260	 6.8290
 2.0270	 6.8700
 2.0280	 6.9090
 2.0290	 6.9470
 2.0300	 6.9860
 2.0310	 7.0250
 2.0320	 7.0650
 2.0330	 7.1060
 2.0340	 7.1500
 2.0350	 7.1900
 2.0360	 7.2310
 2.0370	 7.2680
 2.0380	 7.3000
 2.0390	 7.3340
 2.0400	 7.3680
 2.0410	 7.4030
 2.0420	 7.4370
 2.0430	 7.4750
 2.0440	 7.5110
 2.0450	 7.5490
 2.0460	 7.5830
 2.0470	 7.6150
 2.0480	 7.6490
 2.0490	 7.6810
 2.0500	 7.7130
 2.0510	 7.7450
 2.0520	 7.7780
 2.0530	 7.8080
 2.0540	 7.8430
 2.0550	 7.8840
 2.0560	 7.9240
 2.0570	 7.9650
 2.0580	 8.0010
 2.0590	 8.0390
 2.0600	 8.0740
 2.0610	 8.1110
 2.0620	 8.1510
 2.0630	 8.1870
 2.0640	 8.2220
 2.0650	 8.2560
 2.0660	 8.2860
 2.0670	 8.3200
 2.0680	 8.3520
 2.0690	 8.3860
 2.0700	 8.4260
 2.0710	 8.4610
 2.0720	 8.4950
 2.0730	 8.5270
 2.0740	 8.5620
 2.0750	 8.5970
 2.0760	 8.6340
 2.0770	 8.6780
 2.0780	 8.7170
 2.0790	 8.7560
 2.0800	 8.7920
 2.0810	 8.8240
 2.0820	 8.8570
 2.0830	 8.8870
 2.0840	 8.9210
 2.0850	 8.9620
 2.0860	 8.9980
 2.0870	 9.0300
 2.0880	 9.0660
 2.0890	 9.1030
 2.0900	 9.1340
 2.0910	 9.1730
 2.0920	 9.2220
 2.0930	 9.2600
 2.0940	 9.2940
 2.0950	 9.3320
 2.0960	 9.3660
 2.0970	 9.4010
 2.0980	 9.4450
 2.0990	 9.4810
 2.1000	 9.5080
 2.1010	 9.5400
 2.1020	 9.5700
 2.1030	 9.6020
 2.1040	 9.6380
 2.1050	 9.6760
 2.1060	 9.7110
 2.1070	 9.7430
 2.1080	 9.7800
 2.1090	 9.8200
 2.1100	 9.8580
 2.1110	 9.9010
 2.1120	 9.9380
 2.1130	 9.9690
 2.1140	10.0060
 2.1150	10.0460
 2.1160	10.0830
 2.1170	10.1200
 2.1180	10.1570
 2.1190	10.1910
 2.1200	10.2270
 2.1210	10.2660
 2.1220	10.3040
 2.1230	10.3380
 2.1240	10.3690
 2.1250	10.4000
 2.1260	10.4270
 2.1270	10.4570
 2.1280	10.4870
 2.1290	10.5180
 2.1300	10.5480
 2.1310	10.5790
 2.1320	10.6110
 2.1330	10.6410
 2.1340	10.6690
 2.1350	10.6980
 2.1360	10.7250
 2.1370	10.7540
 2.1380	10.7850
 2.1390	10.8140
 2.1400	10.8430
 2.1410	10.8720
 2.1420	10.8980
 2.1430	10.9190
 2.1440	10.9460
 2.1450	10.9720
 2.1460	11.0010
 2.1470	11.0360
 2.1480	11.0670
 2.1490	11.0980
 2.1500	11.1250
 2.1510	11.1490
 2.1520	11.1740
 2.1530	11.1960
 2.1540	11.2210
 2.1550	11.2510
 2.1560	11.2760
 2.1570	11.2970
 2.1580	11.3220
 2.1590	11.3470
 2.1600	11.3700
 2.1610	11.3950
 2.1620	11.4260
 2.1630	11.4490
 2.1640	11.4680
 2.1650	11.4920
 2.1660	11.5160
 2.1670	11.5390
 2.1680	11.5680
 2.1690	11.5890
 2.1700	11.6040
 2.1710	11.6230
 2.1720	11.6400
 2.1730	11.6620
 2.1740	11.6850
 2.1750	11.7110
 2.1760	11.7420
 2.1770	11.7700
 2.1780	11.8000
 2.1790	11.8240
 2.1800	11.8390
 2.1810	11.8580
 2.1820	11.8750
 2.1830	11.8970
 2.1840	11.9150
 2.1850	11.9360
 2.1860	11.9570
 2.1870	11.9740
 2.1880	11.9950
 2.1890	12.0260
 2.1900	12.0420
 2.1910	12.0520
 2.1920	12.0660
 2.1930	12.0700
 2.1940	12.0820
 2.1950	12.0990
 2.1960	12.1150
 2.1970	12.1280
 2.1980	12.1440
 2.1990	12.1610
 2.2000	12.1780
 2.2010	12.2020
 2.2020	12.2160
 2.2030	12.2230
 2.2040	12.2340
 2.2050	12.2400
 2.2060	12.2460
 2.2070	12.2570
 2.2080	12.2740
 2.2090	12.2830
 2.2100	12.2880
 2.2110	12.2920
 2.2120	12.2950
 2.2130	12.2960
 2.2140	12.2940
 2.2150	12.2940
 2.2160	12.2950
 2.2170	12.2910
 2.2180	12.2870
 2.2190	12.2800
 2.2200	12.2640
 2.2210	12.2540
 2.2220	12.2490
 2.2230	12.2370
 2.2240	12.2250
 2.2250	12.2100
 2.2260	12.1880
 2.2270	12.1670
 2.2280	12.1440
 2.2290	12.1200
 2.2300	12.0930
 2.2310	12.0680
 2.2320	12.0400
 2.2330	12.0110
 2.2340	11.9780
 2.2350	11.9430
 2.2360	11.9060
 2.2370	11.8670
 2.2380	11.8260
 2.2390	11.7830
 2.2400	11.7380
 2.2410	11.6880
 2.2420	11.6390
 2.2430	11.5900
 2.2440	11.5400
 2.2450	11.4890
 2.2460	11.4380
 2.2470	11.3860
 2.2480	11.3320
 2.2490	11.2770
 2.2500	11.2240
 2.2510	11.1720
 2.2520	11.1180
 2.2530	11.0650
 2.2540	11.0120
 2.2550	10.9600
 2.2560	10.9040
 2.2570	10.8460
 2.2580	10.7880
 2.2590	10.7260
 2.2600	10.6640
 2.2610	10.6010
 2.2620	10.5440
 2.2630	10.4800
 2.2640	10.4120
 2.2650	10.3430
 2.2660	10.2830
 2.2670	10.2320
 2.2680	10.1900
 2.2690	10.1420
 2.2700	10.1020
 2.2710	10.0580
 2.2720	10.0100
 2.2730	 9.9660
 2.2740	 9.9280
 2.2750	 9.8860
 2.2760	 9.8370
 2.2770	 9.7970
 2.2780	 9.7620
 2.2790	 9.7270
 2.2800	 9.6970
 2.2810	 9.6670
 2.2820	 9.6420
 2.2830	 9.6110
 2.2840	 9.5820
 2.2850	 9.5480
 2.2860	 9.5030
 2.2870	 9.4650
 2.2880	 9.4280
 2.2890	 9.3940
 2.2900	 9.3670
 2.2910	 9.3300
 2.2920	 9.2870
 2.2930	 9.2490
 2.2940	 9.2080
 2.2950	 9.1700
 2.2960	 9.1440
 2.2970	 9.1070
 2.2980	 9.0650
 2.2990	 9.0200
 2.3000	 8.9630
 2.3010	 8.9160
 2.3020	 8.8700
 2.3030	 8.8220
 2.3040	 8.7920
 2.3050	 8.7580
 2.3060	 8.7220
 2.3070	 8.6920
 2.3080	 8.6580
 2.3090	 8.6290
 2.3100	 8.6070
 2.3110	 8.5890
 2.3120	 8.5660
 2.3130	 8.5390
 2.3140	 8.5220
 2.3150	 8.5050
 2.3160	 8.4910
 2.3170	 8.4910
 2.3180	 8.4740
 2.3190	 8.4470
 2.3200	 8.4280
 2.3210	 8.4030
 2.3220	 8.3820
 2.3230	 8.3710
 2.3240	 8.3480
 2.3250	 8.3190
 2.3260	 8.2880
 2.3270	 8.2490
 2.3280	 8.2130
 2.3290	 8.1740
 2.3300	 8.1410
 2.3310	 8.1120
 2.3320	 8.0800
 2.3330	 8.0470
 2.3340	 8.0160
 2.3350	 7.9800
 2.3360	 7.9510
 2.3370	 7.9340
 2.3380	 7.9070
 2.3390	 7.8790
 2.3400	 7.8460
 2.3410	 7.8050
 2.3420	 7.7690
 2.3430	 7.7330
 2.3440	 7.6990
 2.3450	 7.6620
 2.3460	 7.6290
 2.3470	 7.5960
 2.3480	 7.5660
 2.3490	 7.5420
 2.3500	 7.5220
 2.3510	 7.5100
 2.3520	 7.4890
 2.3530	 7.4670
 2.3540	 7.4360
 2.3550	 7.4110
 2.3560	 7.3880
 2.3570	 7.3590
 2.3580	 7.3450
 2.3590	 7.3090
 2.3600	 7.2700
 2.3610	 7.2560
 2.3620	 7.2240
 2.3630	 7.2040
 2.3640	 7.1900
 2.3650	 7.1500
 2.3660	 7.1120
 2.3670	 7.0760
 2.3680	 7.0340
 2.3690	 6.9970
 2.3700	 6.9640
 2.3710	 6.9240
 2.3720	 6.8910
 2.3730	 6.8700
 2.3740	 6.8550
 2.3750	 6.8460
 2.3760	 6.8290
 2.3770	 6.7990
 2.3780	 6.7790
 2.3790	 6.7620
 2.3800	 6.7300
 2.3810	 6.7170
 2.3820	 6.6960
 2.3830	 6.6510
 2.3840	 6.6170
 2.3850	 6.5720
 2.3860	 6.5320
 2.3870	 6.4970
 2.3880	 6.4650
 2.3890	 6.4440
 2.3900	 6.4120
 2.3910	 6.3870
 2.3920	 6.3610
 2.3930	 6.3200
 2.3940	 6.2850
 2.3950	 6.2600
 2.3960	 6.2340
 2.3970	 6.2050
 2.3980	 6.1690
 2.3990	 6.1350
 2.4000	 6.1080
 2.4010	 6.0800
 2.4020	 6.0730
 2.4030	 6.0620
 2.4040	 6.0280
 2.4050	 6.0010
 2.4060	 5.9760
 2.4070	 5.9430
 2.4080	 5.9200
 2.4090	 5.9070
 2.4100	 5.8700
 2.4110	 5.8290
 2.4120	 5.7900
 2.4130	 5.7410
 2.4140	 5.6890
 2.4150	 5.6530
 2.4160	 5.6400
 2.4170	 5.6010
 2.4180	 5.5670
 2.4190	 5.5460
 2.4200	 5.4950
 2.4210	 5.4600
 2.4220	 5.4360
 2.4230	 5.3880
 2.4240	 5.3540
 2.4250	 5.3400
 2.4260	 5.3290
 2.4270	 5.3490
 2.4280	 5.3580
 2.4290	 5.3250
 2.4300	 5.2970
 2.4310	 5.2510
 2.4320	 5.2060
 2.4330	 5.2090
 2.4340	 5.2150
 2.4350	 5.1990
 2.4360	 5.1650
 2.4370	 5.1250
 2.4380	 5.0670
 2.4390	 4.9960
 2.4400	 4.9560
 2.4410	 4.9280
 2.4420	 4.8930
 2.4430	 4.8760
 2.4440	 4.8770
 2.4450	 4.8300
 2.4460	 4.7750
 2.4470	 4.7840
 2.4480	 4.7540
 2.4490	 4.7190
 2.4500	 4.7130
 2.4510	 4.6560
 2.4520	 4.6140
 2.4530	 4.6000
 2.4540	 4.5950
 2.4550	 4.6030
 2.4560	 4.6050
 2.4570	 4.6150
 2.4580	 4.6070
 2.4590	 4.6080
 2.4600	 4.5930
 2.4610	 4.5590
 2.4620	 4.5520
 2.4630	 4.4800
 2.4640	 4.4190
 2.4650	 4.3930
 2.4660	 4.3280
 2.4670	 4.3120
 2.4680	 4.3510
 2.4690	 4.3610
 2.4700	 4.3390
 2.4710	 4.3080
 2.4720	 4.2710
 2.4730	 4.2040
 2.4740	 4.1610
 2.4750	 4.1090
 2.4760	 4.0680
 2.4770	 4.0350
 2.4780	 4.0260
 2.4790	 4.0750
 2.4800	 4.0970
 2.4810	 4.1000
 2.4820	 4.1180
 2.4830	 4.0870
 2.4840	 4.0820
 2.4850	 4.0960
 2.4860	 4.0450
 2.4870	 4.0070
 2.4880	 3.9090
 2.4890	 3.8520
 2.4900	 3.8500
 2.4910	 3.8690
 2.4920	 3.9710
 2.4930	 4.0410
 2.4940	 4.1090
 2.4950	 4.0550
 2.4960	 3.9740
 2.4970	 3.9510
 2.4980	 3.7760
 2.4990	 3.7730
 2.5000	 3.8900
