Name: Baccharis pilularis 2
Type: vegetation
Class: Shrub
Genus: Baccharis
Species: pilularis
Sample No.: VH124
Owner: UCSB
Wavelength Range: VSWIR
Origin: 34.5084; -119.7683; WGS84
Collection Date: 6/3/2013
Description: Samples were collected as part of the HyspIRI Airborne Campaign. 48 individual plants were sampled in three times in 2013 - spring  summer  and fall. The name of the sample includes a 1  2  or 3 which references a different individual of the species. Samples were taken to JPL and processed within 48 hours of collection. The same leaves were processed in the Nicolet and then measured using the ASD.
Measurement: Bidirectional reflectance
First Column: X
Second Column: Y
X Units: Wavelength (micrometers)
Y Units: Reflectance (percentage)
First X Value: 0.35
Last X Value: 2.5
Number of X Values: 2151
Additional Information: vegetation.shrub.baccharis.pilularis.vswir.vh124.ucsb.asd.ancillary.txt

 0.3500	 4.3940
 0.3510	 4.1930
 0.3520	 4.1040
 0.3530	 4.1160
 0.3540	 4.1610
 0.3550	 4.2330
 0.3560	 4.2300
 0.3570	 4.1770
 0.3580	 4.1570
 0.3590	 4.1190
 0.3600	 4.0960
 0.3610	 4.0990
 0.3620	 4.1000
 0.3630	 4.1820
 0.3640	 4.1820
 0.3650	 3.9960
 0.3660	 3.9460
 0.3670	 3.9800
 0.3680	 4.0260
 0.3690	 4.0170
 0.3700	 4.0480
 0.3710	 4.0260
 0.3720	 3.9430
 0.3730	 3.9890
 0.3740	 4.0290
 0.3750	 4.0130
 0.3760	 3.9440
 0.3770	 3.9170
 0.3780	 3.9630
 0.3790	 4.0370
 0.3800	 4.0420
 0.3810	 4.0340
 0.3820	 4.0430
 0.3830	 4.0670
 0.3840	 4.0270
 0.3850	 4.0280
 0.3860	 4.0380
 0.3870	 4.0000
 0.3880	 4.0370
 0.3890	 4.0470
 0.3900	 4.0240
 0.3910	 4.0700
 0.3920	 4.1410
 0.3930	 4.1800
 0.3940	 4.1670
 0.3950	 4.1860
 0.3960	 4.1860
 0.3970	 4.1810
 0.3980	 4.2080
 0.3990	 4.2430
 0.4000	 4.2830
 0.4010	 4.3110
 0.4020	 4.2960
 0.4030	 4.3120
 0.4040	 4.3430
 0.4050	 4.3660
 0.4060	 4.4140
 0.4070	 4.4400
 0.4080	 4.4490
 0.4090	 4.4760
 0.4100	 4.5020
 0.4110	 4.5130
 0.4120	 4.5160
 0.4130	 4.5470
 0.4140	 4.5610
 0.4150	 4.5800
 0.4160	 4.6270
 0.4170	 4.6230
 0.4180	 4.6360
 0.4190	 4.6740
 0.4200	 4.6790
 0.4210	 4.6890
 0.4220	 4.7230
 0.4230	 4.7750
 0.4240	 4.7910
 0.4250	 4.8160
 0.4260	 4.8490
 0.4270	 4.8690
 0.4280	 4.8610
 0.4290	 4.8690
 0.4300	 4.9030
 0.4310	 4.9310
 0.4320	 4.9380
 0.4330	 4.9540
 0.4340	 4.9980
 0.4350	 4.9960
 0.4360	 5.0140
 0.4370	 5.0460
 0.4380	 5.0410
 0.4390	 5.0630
 0.4400	 5.0810
 0.4410	 5.0750
 0.4420	 5.0820
 0.4430	 5.0930
 0.4440	 5.1090
 0.4450	 5.1310
 0.4460	 5.1620
 0.4470	 5.1780
 0.4480	 5.1800
 0.4490	 5.1940
 0.4500	 5.2120
 0.4510	 5.2310
 0.4520	 5.2500
 0.4530	 5.2660
 0.4540	 5.2790
 0.4550	 5.2850
 0.4560	 5.2830
 0.4570	 5.2940
 0.4580	 5.3140
 0.4590	 5.3320
 0.4600	 5.3290
 0.4610	 5.3400
 0.4620	 5.3580
 0.4630	 5.3670
 0.4640	 5.3700
 0.4650	 5.3710
 0.4660	 5.3740
 0.4670	 5.3830
 0.4680	 5.3790
 0.4690	 5.3770
 0.4700	 5.3870
 0.4710	 5.3850
 0.4720	 5.3960
 0.4730	 5.4110
 0.4740	 5.4080
 0.4750	 5.4090
 0.4760	 5.4080
 0.4770	 5.4050
 0.4780	 5.4200
 0.4790	 5.4240
 0.4800	 5.4200
 0.4810	 5.4230
 0.4820	 5.4390
 0.4830	 5.4470
 0.4840	 5.4440
 0.4850	 5.4530
 0.4860	 5.4750
 0.4870	 5.4900
 0.4880	 5.4870
 0.4890	 5.4880
 0.4900	 5.5090
 0.4910	 5.5340
 0.4920	 5.5370
 0.4930	 5.5590
 0.4940	 5.5800
 0.4950	 5.5930
 0.4960	 5.6240
 0.4970	 5.6540
 0.4980	 5.6810
 0.4990	 5.7070
 0.5000	 5.7370
 0.5010	 5.7770
 0.5020	 5.8260
 0.5030	 5.8780
 0.5040	 5.9220
 0.5050	 5.9730
 0.5060	 6.0440
 0.5070	 6.1230
 0.5080	 6.2140
 0.5090	 6.3110
 0.5100	 6.4040
 0.5110	 6.5230
 0.5120	 6.6490
 0.5130	 6.7790
 0.5140	 6.9300
 0.5150	 7.0910
 0.5160	 7.2600
 0.5170	 7.4420
 0.5180	 7.6430
 0.5190	 7.8540
 0.5200	 8.0700
 0.5210	 8.2890
 0.5220	 8.5210
 0.5230	 8.7520
 0.5240	 8.9780
 0.5250	 9.2140
 0.5260	 9.4360
 0.5270	 9.6450
 0.5280	 9.8500
 0.5290	10.0470
 0.5300	10.2320
 0.5310	10.4000
 0.5320	10.5540
 0.5330	10.7000
 0.5340	10.8390
 0.5350	10.9650
 0.5360	11.0730
 0.5370	11.1730
 0.5380	11.2680
 0.5390	11.3510
 0.5400	11.4360
 0.5410	11.5200
 0.5420	11.6000
 0.5430	11.6760
 0.5440	11.7440
 0.5450	11.8040
 0.5460	11.8590
 0.5470	11.9010
 0.5480	11.9430
 0.5490	11.9860
 0.5500	12.0200
 0.5510	12.0470
 0.5520	12.0620
 0.5530	12.0610
 0.5540	12.0450
 0.5550	12.0160
 0.5560	11.9720
 0.5570	11.9080
 0.5580	11.8330
 0.5590	11.7450
 0.5600	11.6490
 0.5610	11.5520
 0.5620	11.4480
 0.5630	11.3350
 0.5640	11.2170
 0.5650	11.0900
 0.5660	10.9560
 0.5670	10.8150
 0.5680	10.6650
 0.5690	10.5110
 0.5700	10.3530
 0.5710	10.1930
 0.5720	10.0440
 0.5730	 9.9030
 0.5740	 9.7700
 0.5750	 9.6460
 0.5760	 9.5320
 0.5770	 9.4230
 0.5780	 9.3160
 0.5790	 9.2080
 0.5800	 9.1110
 0.5810	 9.0260
 0.5820	 8.9490
 0.5830	 8.8830
 0.5840	 8.8150
 0.5850	 8.7420
 0.5860	 8.6710
 0.5870	 8.6080
 0.5880	 8.5510
 0.5890	 8.4990
 0.5900	 8.4660
 0.5910	 8.4450
 0.5920	 8.4270
 0.5930	 8.3980
 0.5940	 8.3760
 0.5950	 8.3520
 0.5960	 8.3240
 0.5970	 8.3020
 0.5980	 8.2770
 0.5990	 8.2490
 0.6000	 8.2200
 0.6010	 8.1920
 0.6020	 8.1570
 0.6030	 8.1120
 0.6040	 8.0640
 0.6050	 8.0160
 0.6060	 7.9630
 0.6070	 7.9020
 0.6080	 7.8330
 0.6090	 7.7680
 0.6100	 7.7100
 0.6110	 7.6520
 0.6120	 7.5800
 0.6130	 7.4990
 0.6140	 7.4200
 0.6150	 7.3510
 0.6160	 7.2870
 0.6170	 7.2290
 0.6180	 7.1810
 0.6190	 7.1340
 0.6200	 7.0910
 0.6210	 7.0530
 0.6220	 7.0160
 0.6230	 6.9870
 0.6240	 6.9640
 0.6250	 6.9440
 0.6260	 6.9260
 0.6270	 6.9130
 0.6280	 6.9040
 0.6290	 6.8940
 0.6300	 6.8860
 0.6310	 6.8780
 0.6320	 6.8700
 0.6330	 6.8590
 0.6340	 6.8380
 0.6350	 6.8150
 0.6360	 6.7940
 0.6370	 6.7590
 0.6380	 6.7210
 0.6390	 6.6790
 0.6400	 6.6300
 0.6410	 6.5770
 0.6420	 6.5240
 0.6430	 6.4720
 0.6440	 6.4140
 0.6450	 6.3560
 0.6460	 6.2990
 0.6470	 6.2440
 0.6480	 6.1930
 0.6490	 6.1500
 0.6500	 6.1130
 0.6510	 6.0770
 0.6520	 6.0430
 0.6530	 6.0110
 0.6540	 5.9790
 0.6550	 5.9460
 0.6560	 5.9110
 0.6570	 5.8720
 0.6580	 5.8280
 0.6590	 5.7860
 0.6600	 5.7420
 0.6610	 5.6970
 0.6620	 5.6590
 0.6630	 5.6210
 0.6640	 5.5830
 0.6650	 5.5490
 0.6660	 5.5270
 0.6670	 5.5080
 0.6680	 5.4930
 0.6690	 5.4860
 0.6700	 5.4770
 0.6710	 5.4710
 0.6720	 5.4700
 0.6730	 5.4740
 0.6740	 5.4800
 0.6750	 5.4880
 0.6760	 5.5000
 0.6770	 5.5120
 0.6780	 5.5260
 0.6790	 5.5440
 0.6800	 5.5680
 0.6810	 5.5960
 0.6820	 5.6290
 0.6830	 5.6670
 0.6840	 5.7140
 0.6850	 5.7710
 0.6860	 5.8410
 0.6870	 5.9260
 0.6880	 6.0410
 0.6890	 6.1870
 0.6900	 6.3660
 0.6910	 6.5860
 0.6920	 6.8630
 0.6930	 7.1990
 0.6940	 7.5990
 0.6950	 8.0690
 0.6960	 8.6030
 0.6970	 9.2040
 0.6980	 9.8740
 0.6990	10.6030
 0.7000	11.3880
 0.7010	12.2240
 0.7020	13.1020
 0.7030	14.0140
 0.7040	14.9540
 0.7050	15.9160
 0.7060	16.8960
 0.7070	17.8900
 0.7080	18.8960
 0.7090	19.9150
 0.7100	20.9410
 0.7110	21.9780
 0.7120	23.0260
 0.7130	24.0790
 0.7140	25.1350
 0.7150	26.1970
 0.7160	27.2600
 0.7170	28.3120
 0.7180	29.3640
 0.7190	30.4130
 0.7200	31.4470
 0.7210	32.4680
 0.7220	33.4740
 0.7230	34.4590
 0.7240	35.4170
 0.7250	36.3520
 0.7260	37.2540
 0.7270	38.1200
 0.7280	38.9610
 0.7290	39.7670
 0.7300	40.5370
 0.7310	41.2720
 0.7320	41.9620
 0.7330	42.6170
 0.7340	43.2440
 0.7350	43.8390
 0.7360	44.3950
 0.7370	44.9130
 0.7380	45.3990
 0.7390	45.8590
 0.7400	46.2910
 0.7410	46.6920
 0.7420	47.0620
 0.7430	47.4100
 0.7440	47.7330
 0.7450	48.0300
 0.7460	48.3010
 0.7470	48.5560
 0.7480	48.7900
 0.7490	48.9990
 0.7500	49.1980
 0.7510	49.3840
 0.7520	49.5510
 0.7530	49.6970
 0.7540	49.8350
 0.7550	49.9630
 0.7560	50.0820
 0.7570	50.1900
 0.7580	50.2840
 0.7590	50.3710
 0.7600	50.4540
 0.7610	50.5310
 0.7620	50.6040
 0.7630	50.6690
 0.7640	50.7250
 0.7650	50.7740
 0.7660	50.8220
 0.7670	50.8700
 0.7680	50.9190
 0.7690	50.9580
 0.7700	50.9960
 0.7710	51.0360
 0.7720	51.0690
 0.7730	51.0960
 0.7740	51.1250
 0.7750	51.1590
 0.7760	51.1880
 0.7770	51.2130
 0.7780	51.2380
 0.7790	51.2660
 0.7800	51.2880
 0.7810	51.3140
 0.7820	51.3450
 0.7830	51.3630
 0.7840	51.3830
 0.7850	51.4020
 0.7860	51.4170
 0.7870	51.4410
 0.7880	51.4640
 0.7890	51.4850
 0.7900	51.5020
 0.7910	51.5190
 0.7920	51.5360
 0.7930	51.5510
 0.7940	51.5620
 0.7950	51.5760
 0.7960	51.5930
 0.7970	51.6090
 0.7980	51.6180
 0.7990	51.6260
 0.8000	51.6370
 0.8010	51.6500
 0.8020	51.6590
 0.8030	51.6650
 0.8040	51.6690
 0.8050	51.6720
 0.8060	51.6770
 0.8070	51.6870
 0.8080	51.6950
 0.8090	51.6920
 0.8100	51.6960
 0.8110	51.7040
 0.8120	51.7100
 0.8130	51.7090
 0.8140	51.7070
 0.8150	51.7070
 0.8160	51.7070
 0.8170	51.7010
 0.8180	51.6970
 0.8190	51.6990
 0.8200	51.7070
 0.8210	51.7020
 0.8220	51.7010
 0.8230	51.7040
 0.8240	51.6970
 0.8250	51.6930
 0.8260	51.6920
 0.8270	51.6900
 0.8280	51.6760
 0.8290	51.6710
 0.8300	51.6700
 0.8310	51.6630
 0.8320	51.6560
 0.8330	51.6520
 0.8340	51.6480
 0.8350	51.6430
 0.8360	51.6410
 0.8370	51.6400
 0.8380	51.6410
 0.8390	51.6460
 0.8400	51.6460
 0.8410	51.6470
 0.8420	51.6510
 0.8430	51.6540
 0.8440	51.6620
 0.8450	51.6660
 0.8460	51.6630
 0.8470	51.6680
 0.8480	51.6710
 0.8490	51.6750
 0.8500	51.6840
 0.8510	51.6930
 0.8520	51.6960
 0.8530	51.6960
 0.8540	51.7030
 0.8550	51.7160
 0.8560	51.7230
 0.8570	51.7260
 0.8580	51.7340
 0.8590	51.7370
 0.8600	51.7420
 0.8610	51.7520
 0.8620	51.7570
 0.8630	51.7600
 0.8640	51.7670
 0.8650	51.7780
 0.8660	51.7880
 0.8670	51.7890
 0.8680	51.7900
 0.8690	51.8020
 0.8700	51.8060
 0.8710	51.8130
 0.8720	51.8210
 0.8730	51.8280
 0.8740	51.8360
 0.8750	51.8430
 0.8760	51.8520
 0.8770	51.8730
 0.8780	51.8830
 0.8790	51.8890
 0.8800	51.8960
 0.8810	51.9050
 0.8820	51.9130
 0.8830	51.9220
 0.8840	51.9330
 0.8850	51.9410
 0.8860	51.9480
 0.8870	51.9500
 0.8880	51.9450
 0.8890	51.9440
 0.8900	51.9570
 0.8910	51.9730
 0.8920	51.9740
 0.8930	51.9730
 0.8940	51.9790
 0.8950	51.9860
 0.8960	51.9830
 0.8970	51.9860
 0.8980	51.9890
 0.8990	51.9900
 0.9000	51.9960
 0.9010	51.9970
 0.9020	51.9940
 0.9030	51.9930
 0.9040	52.0060
 0.9050	52.0100
 0.9060	52.0110
 0.9070	52.0140
 0.9080	52.0090
 0.9090	52.0070
 0.9100	52.0100
 0.9110	52.0170
 0.9120	52.0240
 0.9130	52.0290
 0.9140	52.0290
 0.9150	52.0220
 0.9160	52.0130
 0.9170	52.0100
 0.9180	52.0140
 0.9190	52.0180
 0.9200	52.0110
 0.9210	52.0010
 0.9220	51.9930
 0.9230	51.9870
 0.9240	51.9830
 0.9250	51.9660
 0.9260	51.9360
 0.9270	51.9120
 0.9280	51.8900
 0.9290	51.8800
 0.9300	51.8690
 0.9310	51.8330
 0.9320	51.8080
 0.9330	51.7840
 0.9340	51.7530
 0.9350	51.7120
 0.9360	51.6830
 0.9370	51.6440
 0.9380	51.5930
 0.9390	51.5610
 0.9400	51.5410
 0.9410	51.5020
 0.9420	51.4350
 0.9430	51.3750
 0.9440	51.3230
 0.9450	51.2690
 0.9460	51.2080
 0.9470	51.1440
 0.9480	51.0700
 0.9490	50.9900
 0.9500	50.9090
 0.9510	50.8150
 0.9520	50.7150
 0.9530	50.6150
 0.9540	50.5150
 0.9550	50.4060
 0.9560	50.2990
 0.9570	50.1960
 0.9580	50.0960
 0.9590	50.0060
 0.9600	49.9320
 0.9610	49.8630
 0.9620	49.7900
 0.9630	49.7280
 0.9640	49.6830
 0.9650	49.6420
 0.9660	49.5920
 0.9670	49.5450
 0.9680	49.5160
 0.9690	49.4890
 0.9700	49.4490
 0.9710	49.4400
 0.9720	49.4290
 0.9730	49.4110
 0.9740	49.3970
 0.9750	49.3700
 0.9760	49.3540
 0.9770	49.3480
 0.9780	49.3420
 0.9790	49.3530
 0.9800	49.3580
 0.9810	49.3520
 0.9820	49.3450
 0.9830	49.3730
 0.9840	49.4000
 0.9850	49.4030
 0.9860	49.3880
 0.9870	49.4410
 0.9880	49.4760
 0.9890	49.4860
 0.9900	49.5090
 0.9910	49.5500
 0.9920	49.5990
 0.9930	49.6480
 0.9940	49.6960
 0.9950	49.7450
 0.9960	49.7940
 0.9970	49.8420
 0.9980	49.8910
 0.9990	49.9400
 1.0000	49.9880
 1.0010	50.0370
 1.0020	50.0860
 1.0030	50.1340
 1.0040	50.1830
 1.0050	50.2320
 1.0060	50.2800
 1.0070	50.3290
 1.0080	50.3770
 1.0090	50.4260
 1.0100	50.4260
 1.0110	50.4630
 1.0120	50.5020
 1.0130	50.5420
 1.0140	50.5790
 1.0150	50.6140
 1.0160	50.6490
 1.0170	50.6840
 1.0180	50.7170
 1.0190	50.7570
 1.0200	50.7970
 1.0210	50.8350
 1.0220	50.8740
 1.0230	50.9140
 1.0240	50.9520
 1.0250	50.9910
 1.0260	51.0320
 1.0270	51.0680
 1.0280	51.0990
 1.0290	51.1320
 1.0300	51.1640
 1.0310	51.1960
 1.0320	51.2280
 1.0330	51.2590
 1.0340	51.2960
 1.0350	51.3270
 1.0360	51.3580
 1.0370	51.3910
 1.0380	51.4190
 1.0390	51.4420
 1.0400	51.4670
 1.0410	51.4910
 1.0420	51.5160
 1.0430	51.5440
 1.0440	51.5680
 1.0450	51.5910
 1.0460	51.6150
 1.0470	51.6370
 1.0480	51.6570
 1.0490	51.6790
 1.0500	51.6990
 1.0510	51.7200
 1.0520	51.7370
 1.0530	51.7540
 1.0540	51.7710
 1.0550	51.7860
 1.0560	51.7990
 1.0570	51.8120
 1.0580	51.8260
 1.0590	51.8380
 1.0600	51.8470
 1.0610	51.8600
 1.0620	51.8760
 1.0630	51.8880
 1.0640	51.9030
 1.0650	51.9120
 1.0660	51.9110
 1.0670	51.9150
 1.0680	51.9190
 1.0690	51.9220
 1.0700	51.9250
 1.0710	51.9300
 1.0720	51.9340
 1.0730	51.9370
 1.0740	51.9390
 1.0750	51.9430
 1.0760	51.9430
 1.0770	51.9400
 1.0780	51.9370
 1.0790	51.9330
 1.0800	51.9300
 1.0810	51.9290
 1.0820	51.9230
 1.0830	51.9130
 1.0840	51.9080
 1.0850	51.9030
 1.0860	51.8960
 1.0870	51.8870
 1.0880	51.8820
 1.0890	51.8710
 1.0900	51.8540
 1.0910	51.8420
 1.0920	51.8330
 1.0930	51.8180
 1.0940	51.8000
 1.0950	51.7830
 1.0960	51.7640
 1.0970	51.7450
 1.0980	51.7270
 1.0990	51.7090
 1.1000	51.6920
 1.1010	51.6730
 1.1020	51.6530
 1.1030	51.6340
 1.1040	51.6140
 1.1050	51.5900
 1.1060	51.5660
 1.1070	51.5400
 1.1080	51.5140
 1.1090	51.4860
 1.1100	51.4570
 1.1110	51.4270
 1.1120	51.3950
 1.1130	51.3650
 1.1140	51.3290
 1.1150	51.2920
 1.1160	51.2510
 1.1170	51.2030
 1.1180	51.1530
 1.1190	51.1040
 1.1200	51.0470
 1.1210	50.9880
 1.1220	50.9260
 1.1230	50.8540
 1.1240	50.7760
 1.1250	50.6890
 1.1260	50.5950
 1.1270	50.4920
 1.1280	50.3830
 1.1290	50.2620
 1.1300	50.1320
 1.1310	49.9920
 1.1320	49.8420
 1.1330	49.6820
 1.1340	49.5110
 1.1350	49.3320
 1.1360	49.1430
 1.1370	48.9430
 1.1380	48.7400
 1.1390	48.5280
 1.1400	48.3070
 1.1410	48.0860
 1.1420	47.8610
 1.1430	47.6330
 1.1440	47.4070
 1.1450	47.1790
 1.1460	46.9570
 1.1470	46.7320
 1.1480	46.5190
 1.1490	46.3090
 1.1500	46.1140
 1.1510	45.9240
 1.1520	45.7480
 1.1530	45.5830
 1.1540	45.4290
 1.1550	45.2860
 1.1560	45.1550
 1.1570	45.0370
 1.1580	44.9320
 1.1590	44.8370
 1.1600	44.7530
 1.1610	44.6790
 1.1620	44.6100
 1.1630	44.5480
 1.1640	44.4950
 1.1650	44.4470
 1.1660	44.4060
 1.1670	44.3670
 1.1680	44.3350
 1.1690	44.3020
 1.1700	44.2730
 1.1710	44.2450
 1.1720	44.2200
 1.1730	44.1950
 1.1740	44.1710
 1.1750	44.1470
 1.1760	44.1220
 1.1770	44.0940
 1.1780	44.0620
 1.1790	44.0310
 1.1800	44.0000
 1.1810	43.9700
 1.1820	43.9410
 1.1830	43.9100
 1.1840	43.8790
 1.1850	43.8480
 1.1860	43.8190
 1.1870	43.7900
 1.1880	43.7620
 1.1890	43.7360
 1.1900	43.7130
 1.1910	43.6920
 1.1920	43.6740
 1.1930	43.6570
 1.1940	43.6430
 1.1950	43.6300
 1.1960	43.6200
 1.1970	43.6120
 1.1980	43.6090
 1.1990	43.6080
 1.2000	43.6090
 1.2010	43.6150
 1.2020	43.6240
 1.2030	43.6380
 1.2040	43.6550
 1.2050	43.6750
 1.2060	43.6960
 1.2070	43.7190
 1.2080	43.7450
 1.2090	43.7740
 1.2100	43.8070
 1.2110	43.8440
 1.2120	43.8850
 1.2130	43.9280
 1.2140	43.9730
 1.2150	44.0190
 1.2160	44.0670
 1.2170	44.1170
 1.2180	44.1670
 1.2190	44.2180
 1.2200	44.2730
 1.2210	44.3280
 1.2220	44.3860
 1.2230	44.4420
 1.2240	44.4960
 1.2250	44.5480
 1.2260	44.5960
 1.2270	44.6440
 1.2280	44.6910
 1.2290	44.7380
 1.2300	44.7850
 1.2310	44.8300
 1.2320	44.8740
 1.2330	44.9180
 1.2340	44.9590
 1.2350	44.9970
 1.2360	45.0350
 1.2370	45.0720
 1.2380	45.1060
 1.2390	45.1400
 1.2400	45.1740
 1.2410	45.2060
 1.2420	45.2370
 1.2430	45.2660
 1.2440	45.2950
 1.2450	45.3230
 1.2460	45.3490
 1.2470	45.3730
 1.2480	45.3970
 1.2490	45.4200
 1.2500	45.4420
 1.2510	45.4630
 1.2520	45.4820
 1.2530	45.4990
 1.2540	45.5140
 1.2550	45.5290
 1.2560	45.5450
 1.2570	45.5590
 1.2580	45.5700
 1.2590	45.5810
 1.2600	45.5910
 1.2610	45.5970
 1.2620	45.6010
 1.2630	45.6060
 1.2640	45.6080
 1.2650	45.6100
 1.2660	45.6090
 1.2670	45.6060
 1.2680	45.6030
 1.2690	45.5960
 1.2700	45.5890
 1.2710	45.5840
 1.2720	45.5750
 1.2730	45.5650
 1.2740	45.5540
 1.2750	45.5410
 1.2760	45.5270
 1.2770	45.5100
 1.2780	45.4900
 1.2790	45.4660
 1.2800	45.4400
 1.2810	45.4160
 1.2820	45.3900
 1.2830	45.3610
 1.2840	45.3320
 1.2850	45.2950
 1.2860	45.2550
 1.2870	45.2140
 1.2880	45.1710
 1.2890	45.1230
 1.2900	45.0730
 1.2910	45.0200
 1.2920	44.9670
 1.2930	44.9100
 1.2940	44.8520
 1.2950	44.7920
 1.2960	44.7250
 1.2970	44.6550
 1.2980	44.5830
 1.2990	44.5070
 1.3000	44.4290
 1.3010	44.3480
 1.3020	44.2590
 1.3030	44.1680
 1.3040	44.0740
 1.3050	43.9750
 1.3060	43.8740
 1.3070	43.7670
 1.3080	43.6520
 1.3090	43.5350
 1.3100	43.4140
 1.3110	43.2900
 1.3120	43.1640
 1.3130	43.0320
 1.3140	42.8950
 1.3150	42.7530
 1.3160	42.6060
 1.3170	42.4540
 1.3180	42.2980
 1.3190	42.1390
 1.3200	41.9740
 1.3210	41.8040
 1.3220	41.6310
 1.3230	41.4540
 1.3240	41.2690
 1.3250	41.0830
 1.3260	40.8940
 1.3270	40.7000
 1.3280	40.5070
 1.3290	40.3090
 1.3300	40.1080
 1.3310	39.9050
 1.3320	39.6990
 1.3330	39.4950
 1.3340	39.2890
 1.3350	39.0810
 1.3360	38.8740
 1.3370	38.6640
 1.3380	38.4570
 1.3390	38.2500
 1.3400	38.0430
 1.3410	37.8400
 1.3420	37.6390
 1.3430	37.4390
 1.3440	37.2430
 1.3450	37.0490
 1.3460	36.8540
 1.3470	36.6630
 1.3480	36.4750
 1.3490	36.2900
 1.3500	36.1070
 1.3510	35.9270
 1.3520	35.7470
 1.3530	35.5680
 1.3540	35.3900
 1.3550	35.2120
 1.3560	35.0330
 1.3570	34.8540
 1.3580	34.6760
 1.3590	34.4960
 1.3600	34.3150
 1.3610	34.1300
 1.3620	33.9380
 1.3630	33.7420
 1.3640	33.5400
 1.3650	33.3300
 1.3660	33.1130
 1.3670	32.8870
 1.3680	32.6480
 1.3690	32.3970
 1.3700	32.1270
 1.3710	31.8430
 1.3720	31.5450
 1.3730	31.2280
 1.3740	30.8970
 1.3750	30.5450
 1.3760	30.1680
 1.3770	29.7700
 1.3780	29.3450
 1.3790	28.8980
 1.3800	28.4290
 1.3810	27.9320
 1.3820	27.4200
 1.3830	26.8880
 1.3840	26.3420
 1.3850	25.7760
 1.3860	25.2020
 1.3870	24.6090
 1.3880	24.0180
 1.3890	23.4200
 1.3900	22.8190
 1.3910	22.2240
 1.3920	21.6280
 1.3930	21.0350
 1.3940	20.4520
 1.3950	19.8700
 1.3960	19.3050
 1.3970	18.7560
 1.3980	18.2200
 1.3990	17.7110
 1.4000	17.2190
 1.4010	16.7440
 1.4020	16.2950
 1.4030	15.8620
 1.4040	15.4530
 1.4050	15.0690
 1.4060	14.7060
 1.4070	14.3690
 1.4080	14.0520
 1.4090	13.7550
 1.4100	13.4780
 1.4110	13.2200
 1.4120	12.9800
 1.4130	12.7590
 1.4140	12.5540
 1.4150	12.3670
 1.4160	12.1950
 1.4170	12.0360
 1.4180	11.8910
 1.4190	11.7560
 1.4200	11.6330
 1.4210	11.5210
 1.4220	11.4170
 1.4230	11.3240
 1.4240	11.2380
 1.4250	11.1600
 1.4260	11.0890
 1.4270	11.0240
 1.4280	10.9680
 1.4290	10.9160
 1.4300	10.8710
 1.4310	10.8300
 1.4320	10.7950
 1.4330	10.7630
 1.4340	10.7350
 1.4350	10.7120
 1.4360	10.6930
 1.4370	10.6770
 1.4380	10.6640
 1.4390	10.6550
 1.4400	10.6480
 1.4410	10.6440
 1.4420	10.6430
 1.4430	10.6430
 1.4440	10.6450
 1.4450	10.6490
 1.4460	10.6550
 1.4470	10.6620
 1.4480	10.6710
 1.4490	10.6810
 1.4500	10.6920
 1.4510	10.7050
 1.4520	10.7180
 1.4530	10.7320
 1.4540	10.7480
 1.4550	10.7650
 1.4560	10.7840
 1.4570	10.8050
 1.4580	10.8280
 1.4590	10.8520
 1.4600	10.8800
 1.4610	10.9100
 1.4620	10.9440
 1.4630	10.9800
 1.4640	11.0200
 1.4650	11.0620
 1.4660	11.1080
 1.4670	11.1580
 1.4680	11.2130
 1.4690	11.2700
 1.4700	11.3320
 1.4710	11.3970
 1.4720	11.4640
 1.4730	11.5340
 1.4740	11.6080
 1.4750	11.6830
 1.4760	11.7630
 1.4770	11.8440
 1.4780	11.9270
 1.4790	12.0130
 1.4800	12.0990
 1.4810	12.1870
 1.4820	12.2770
 1.4830	12.3690
 1.4840	12.4620
 1.4850	12.5560
 1.4860	12.6510
 1.4870	12.7470
 1.4880	12.8430
 1.4890	12.9400
 1.4900	13.0380
 1.4910	13.1370
 1.4920	13.2370
 1.4930	13.3390
 1.4940	13.4410
 1.4950	13.5440
 1.4960	13.6460
 1.4970	13.7480
 1.4980	13.8510
 1.4990	13.9540
 1.5000	14.0590
 1.5010	14.1640
 1.5020	14.2700
 1.5030	14.3770
 1.5040	14.4820
 1.5050	14.5870
 1.5060	14.6920
 1.5070	14.7970
 1.5080	14.9030
 1.5090	15.0100
 1.5100	15.1160
 1.5110	15.2220
 1.5120	15.3280
 1.5130	15.4330
 1.5140	15.5370
 1.5150	15.6420
 1.5160	15.7450
 1.5170	15.8510
 1.5180	15.9550
 1.5190	16.0590
 1.5200	16.1640
 1.5210	16.2660
 1.5220	16.3680
 1.5230	16.4700
 1.5240	16.5710
 1.5250	16.6720
 1.5260	16.7730
 1.5270	16.8740
 1.5280	16.9750
 1.5290	17.0740
 1.5300	17.1730
 1.5310	17.2730
 1.5320	17.3690
 1.5330	17.4660
 1.5340	17.5620
 1.5350	17.6560
 1.5360	17.7520
 1.5370	17.8460
 1.5380	17.9410
 1.5390	18.0360
 1.5400	18.1280
 1.5410	18.2200
 1.5420	18.3120
 1.5430	18.4030
 1.5440	18.4930
 1.5450	18.5820
 1.5460	18.6710
 1.5470	18.7610
 1.5480	18.8490
 1.5490	18.9390
 1.5500	19.0260
 1.5510	19.1120
 1.5520	19.1980
 1.5530	19.2820
 1.5540	19.3650
 1.5550	19.4490
 1.5560	19.5330
 1.5570	19.6170
 1.5580	19.7000
 1.5590	19.7810
 1.5600	19.8600
 1.5610	19.9370
 1.5620	20.0140
 1.5630	20.0920
 1.5640	20.1690
 1.5650	20.2450
 1.5660	20.3210
 1.5670	20.3960
 1.5680	20.4700
 1.5690	20.5440
 1.5700	20.6180
 1.5710	20.6910
 1.5720	20.7640
 1.5730	20.8390
 1.5740	20.9110
 1.5750	20.9810
 1.5760	21.0530
 1.5770	21.1230
 1.5780	21.1930
 1.5790	21.2650
 1.5800	21.3350
 1.5810	21.4060
 1.5820	21.4760
 1.5830	21.5450
 1.5840	21.6140
 1.5850	21.6800
 1.5860	21.7470
 1.5870	21.8160
 1.5880	21.8840
 1.5890	21.9530
 1.5900	22.0200
 1.5910	22.0870
 1.5920	22.1540
 1.5930	22.2190
 1.5940	22.2870
 1.5950	22.3510
 1.5960	22.4160
 1.5970	22.4820
 1.5980	22.5460
 1.5990	22.6100
 1.6000	22.6740
 1.6010	22.7360
 1.6020	22.7980
 1.6030	22.8620
 1.6040	22.9250
 1.6050	22.9880
 1.6060	23.0490
 1.6070	23.1090
 1.6080	23.1670
 1.6090	23.2240
 1.6100	23.2810
 1.6110	23.3380
 1.6120	23.3940
 1.6130	23.4510
 1.6140	23.5050
 1.6150	23.5590
 1.6160	23.6130
 1.6170	23.6660
 1.6180	23.7170
 1.6190	23.7680
 1.6200	23.8180
 1.6210	23.8660
 1.6220	23.9140
 1.6230	23.9620
 1.6240	24.0080
 1.6250	24.0530
 1.6260	24.0970
 1.6270	24.1410
 1.6280	24.1830
 1.6290	24.2250
 1.6300	24.2660
 1.6310	24.3050
 1.6320	24.3440
 1.6330	24.3810
 1.6340	24.4160
 1.6350	24.4500
 1.6360	24.4820
 1.6370	24.5120
 1.6380	24.5420
 1.6390	24.5700
 1.6400	24.5970
 1.6410	24.6200
 1.6420	24.6410
 1.6430	24.6590
 1.6440	24.6740
 1.6450	24.6880
 1.6460	24.6990
 1.6470	24.7070
 1.6480	24.7120
 1.6490	24.7120
 1.6500	24.7090
 1.6510	24.7050
 1.6520	24.6960
 1.6530	24.6840
 1.6540	24.6690
 1.6550	24.6500
 1.6560	24.6320
 1.6570	24.6120
 1.6580	24.5910
 1.6590	24.5690
 1.6600	24.5450
 1.6610	24.5240
 1.6620	24.5020
 1.6630	24.4810
 1.6640	24.4620
 1.6650	24.4430
 1.6660	24.4290
 1.6670	24.4160
 1.6680	24.4040
 1.6690	24.3950
 1.6700	24.3850
 1.6710	24.3770
 1.6720	24.3700
 1.6730	24.3630
 1.6740	24.3570
 1.6750	24.3520
 1.6760	24.3460
 1.6770	24.3390
 1.6780	24.3310
 1.6790	24.3210
 1.6800	24.3100
 1.6810	24.2990
 1.6820	24.2860
 1.6830	24.2730
 1.6840	24.2580
 1.6850	24.2380
 1.6860	24.2170
 1.6870	24.1920
 1.6880	24.1650
 1.6890	24.1400
 1.6900	24.1110
 1.6910	24.0820
 1.6920	24.0490
 1.6930	24.0120
 1.6940	23.9740
 1.6950	23.9360
 1.6960	23.8940
 1.6970	23.8490
 1.6980	23.8030
 1.6990	23.7540
 1.7000	23.7040
 1.7010	23.6520
 1.7020	23.6000
 1.7030	23.5460
 1.7040	23.4910
 1.7050	23.4360
 1.7060	23.3790
 1.7070	23.3210
 1.7080	23.2630
 1.7090	23.2050
 1.7100	23.1480
 1.7110	23.0930
 1.7120	23.0380
 1.7130	22.9830
 1.7140	22.9280
 1.7150	22.8730
 1.7160	22.8190
 1.7170	22.7660
 1.7180	22.7120
 1.7190	22.6590
 1.7200	22.6060
 1.7210	22.5520
 1.7220	22.4990
 1.7230	22.4470
 1.7240	22.3960
 1.7250	22.3470
 1.7260	22.3000
 1.7270	22.2560
 1.7280	22.2130
 1.7290	22.1720
 1.7300	22.1340
 1.7310	22.0950
 1.7320	22.0590
 1.7330	22.0230
 1.7340	21.9880
 1.7350	21.9490
 1.7360	21.9120
 1.7370	21.8690
 1.7380	21.8230
 1.7390	21.7760
 1.7400	21.7270
 1.7410	21.6770
 1.7420	21.6250
 1.7430	21.5710
 1.7440	21.5130
 1.7450	21.4560
 1.7460	21.3970
 1.7470	21.3390
 1.7480	21.2810
 1.7490	21.2230
 1.7500	21.1650
 1.7510	21.1080
 1.7520	21.0510
 1.7530	20.9960
 1.7540	20.9430
 1.7550	20.8870
 1.7560	20.8350
 1.7570	20.7820
 1.7580	20.7310
 1.7590	20.6830
 1.7600	20.6360
 1.7610	20.5940
 1.7620	20.5500
 1.7630	20.5060
 1.7640	20.4650
 1.7650	20.4250
 1.7660	20.3880
 1.7670	20.3550
 1.7680	20.3220
 1.7690	20.2910
 1.7700	20.2590
 1.7710	20.2250
 1.7720	20.1940
 1.7730	20.1650
 1.7740	20.1360
 1.7750	20.1090
 1.7760	20.0820
 1.7770	20.0530
 1.7780	20.0270
 1.7790	20.0020
 1.7800	19.9790
 1.7810	19.9560
 1.7820	19.9360
 1.7830	19.9190
 1.7840	19.9020
 1.7850	19.8860
 1.7860	19.8730
 1.7870	19.8610
 1.7880	19.8510
 1.7890	19.8440
 1.7900	19.8360
 1.7910	19.8300
 1.7920	19.8240
 1.7930	19.8200
 1.7940	19.8190
 1.7950	19.8190
 1.7960	19.8210
 1.7970	19.8250
 1.7980	19.8300
 1.7990	19.8350
 1.8000	19.8420
 1.8010	19.8470
 1.8020	19.8510
 1.8030	19.8570
 1.8040	19.8650
 1.8050	19.8730
 1.8060	19.8830
 1.8070	19.8900
 1.8080	19.8950
 1.8090	19.9010
 1.8100	19.9050
 1.8110	19.9120
 1.8120	19.9210
 1.8130	19.9270
 1.8140	19.9310
 1.8150	19.9330
 1.8160	19.9340
 1.8170	19.9370
 1.8180	19.9400
 1.8190	19.9440
 1.8200	19.9460
 1.8210	19.9480
 1.8220	19.9470
 1.8230	19.9430
 1.8240	19.9380
 1.8250	19.9310
 1.8260	19.9230
 1.8270	19.9400
 1.8280	19.9570
 1.8290	19.9730
 1.8300	19.9900
 1.8310	20.0070
 1.8320	20.0230
 1.8330	20.0400
 1.8340	20.0560
 1.8350	20.0560
 1.8360	20.0210
 1.8370	19.9830
 1.8380	19.9440
 1.8390	19.8980
 1.8400	19.8500
 1.8410	19.7940
 1.8420	19.7310
 1.8430	19.6620
 1.8440	19.5890
 1.8450	19.5090
 1.8460	19.4210
 1.8470	19.3250
 1.8480	19.2250
 1.8490	19.1130
 1.8500	18.9900
 1.8510	18.8600
 1.8520	18.7210
 1.8530	18.5670
 1.8540	18.4070
 1.8550	18.2380
 1.8560	18.0560
 1.8570	17.8620
 1.8580	17.6540
 1.8590	17.4340
 1.8600	17.2020
 1.8610	16.9590
 1.8620	16.7020
 1.8630	16.4360
 1.8640	16.1570
 1.8650	15.8640
 1.8660	15.5570
 1.8670	15.2350
 1.8680	14.9000
 1.8690	14.5520
 1.8700	14.1940
 1.8710	13.8240
 1.8720	13.4490
 1.8730	13.0640
 1.8740	12.6750
 1.8750	12.2830
 1.8760	11.8870
 1.8770	11.4970
 1.8780	11.1130
 1.8790	10.7320
 1.8800	10.3610
 1.8810	 9.9990
 1.8820	 9.6420
 1.8830	 9.2870
 1.8840	 8.9450
 1.8850	 8.6130
 1.8860	 8.2920
 1.8870	 7.9880
 1.8880	 7.6980
 1.8890	 7.4230
 1.8900	 7.1650
 1.8910	 6.9240
 1.8920	 6.6980
 1.8930	 6.4930
 1.8940	 6.3030
 1.8950	 6.1300
 1.8960	 5.9710
 1.8970	 5.8260
 1.8980	 5.6980
 1.8990	 5.5810
 1.9000	 5.4740
 1.9010	 5.3830
 1.9020	 5.2970
 1.9030	 5.2220
 1.9040	 5.1570
 1.9050	 5.1000
 1.9060	 5.0480
 1.9070	 5.0030
 1.9080	 4.9660
 1.9090	 4.9330
 1.9100	 4.9030
 1.9110	 4.8770
 1.9120	 4.8560
 1.9130	 4.8350
 1.9140	 4.8170
 1.9150	 4.8030
 1.9160	 4.7910
 1.9170	 4.7810
 1.9180	 4.7710
 1.9190	 4.7610
 1.9200	 4.7530
 1.9210	 4.7490
 1.9220	 4.7440
 1.9230	 4.7420
 1.9240	 4.7410
 1.9250	 4.7390
 1.9260	 4.7370
 1.9270	 4.7380
 1.9280	 4.7420
 1.9290	 4.7460
 1.9300	 4.7500
 1.9310	 4.7550
 1.9320	 4.7570
 1.9330	 4.7610
 1.9340	 4.7640
 1.9350	 4.7700
 1.9360	 4.7770
 1.9370	 4.7840
 1.9380	 4.7940
 1.9390	 4.8030
 1.9400	 4.8110
 1.9410	 4.8200
 1.9420	 4.8310
 1.9430	 4.8420
 1.9440	 4.8530
 1.9450	 4.8650
 1.9460	 4.8770
 1.9470	 4.8890
 1.9480	 4.9020
 1.9490	 4.9150
 1.9500	 4.9300
 1.9510	 4.9460
 1.9520	 4.9600
 1.9530	 4.9750
 1.9540	 4.9900
 1.9550	 5.0060
 1.9560	 5.0210
 1.9570	 5.0380
 1.9580	 5.0570
 1.9590	 5.0740
 1.9600	 5.0920
 1.9610	 5.1100
 1.9620	 5.1270
 1.9630	 5.1440
 1.9640	 5.1630
 1.9650	 5.1840
 1.9660	 5.2050
 1.9670	 5.2290
 1.9680	 5.2530
 1.9690	 5.2800
 1.9700	 5.3030
 1.9710	 5.3260
 1.9720	 5.3500
 1.9730	 5.3710
 1.9740	 5.3950
 1.9750	 5.4210
 1.9760	 5.4470
 1.9770	 5.4720
 1.9780	 5.4970
 1.9790	 5.5240
 1.9800	 5.5520
 1.9810	 5.5820
 1.9820	 5.6160
 1.9830	 5.6470
 1.9840	 5.6780
 1.9850	 5.7090
 1.9860	 5.7390
 1.9870	 5.7690
 1.9880	 5.8010
 1.9890	 5.8340
 1.9900	 5.8670
 1.9910	 5.9020
 1.9920	 5.9340
 1.9930	 5.9630
 1.9940	 5.9970
 1.9950	 6.0320
 1.9960	 6.0660
 1.9970	 6.1020
 1.9980	 6.1390
 1.9990	 6.1740
 2.0000	 6.2090
 2.0010	 6.2480
 2.0020	 6.2870
 2.0030	 6.3230
 2.0040	 6.3590
 2.0050	 6.3960
 2.0060	 6.4320
 2.0070	 6.4680
 2.0080	 6.5060
 2.0090	 6.5440
 2.0100	 6.5830
 2.0110	 6.6200
 2.0120	 6.6550
 2.0130	 6.6920
 2.0140	 6.7310
 2.0150	 6.7670
 2.0160	 6.8030
 2.0170	 6.8390
 2.0180	 6.8730
 2.0190	 6.9030
 2.0200	 6.9360
 2.0210	 6.9690
 2.0220	 7.0030
 2.0230	 7.0390
 2.0240	 7.0730
 2.0250	 7.1080
 2.0260	 7.1410
 2.0270	 7.1710
 2.0280	 7.1990
 2.0290	 7.2250
 2.0300	 7.2520
 2.0310	 7.2810
 2.0320	 7.3110
 2.0330	 7.3410
 2.0340	 7.3760
 2.0350	 7.4050
 2.0360	 7.4340
 2.0370	 7.4600
 2.0380	 7.4820
 2.0390	 7.5070
 2.0400	 7.5340
 2.0410	 7.5610
 2.0420	 7.5880
 2.0430	 7.6150
 2.0440	 7.6420
 2.0450	 7.6670
 2.0460	 7.6910
 2.0470	 7.7150
 2.0480	 7.7370
 2.0490	 7.7570
 2.0500	 7.7770
 2.0510	 7.7950
 2.0520	 7.8160
 2.0530	 7.8400
 2.0540	 7.8620
 2.0550	 7.8870
 2.0560	 7.9110
 2.0570	 7.9350
 2.0580	 7.9570
 2.0590	 7.9790
 2.0600	 7.9990
 2.0610	 8.0230
 2.0620	 8.0470
 2.0630	 8.0720
 2.0640	 8.0990
 2.0650	 8.1240
 2.0660	 8.1480
 2.0670	 8.1720
 2.0680	 8.1930
 2.0690	 8.2160
 2.0700	 8.2400
 2.0710	 8.2640
 2.0720	 8.2890
 2.0730	 8.3160
 2.0740	 8.3410
 2.0750	 8.3660
 2.0760	 8.3900
 2.0770	 8.4140
 2.0780	 8.4370
 2.0790	 8.4570
 2.0800	 8.4800
 2.0810	 8.5050
 2.0820	 8.5290
 2.0830	 8.5520
 2.0840	 8.5770
 2.0850	 8.6010
 2.0860	 8.6250
 2.0870	 8.6500
 2.0880	 8.6770
 2.0890	 8.7000
 2.0900	 8.7200
 2.0910	 8.7420
 2.0920	 8.7630
 2.0930	 8.7850
 2.0940	 8.8080
 2.0950	 8.8300
 2.0960	 8.8540
 2.0970	 8.8760
 2.0980	 8.8960
 2.0990	 8.9170
 2.1000	 8.9370
 2.1010	 8.9580
 2.1020	 8.9790
 2.1030	 9.0010
 2.1040	 9.0240
 2.1050	 9.0480
 2.1060	 9.0700
 2.1070	 9.0940
 2.1080	 9.1150
 2.1090	 9.1310
 2.1100	 9.1520
 2.1110	 9.1740
 2.1120	 9.1960
 2.1130	 9.2220
 2.1140	 9.2450
 2.1150	 9.2670
 2.1160	 9.2870
 2.1170	 9.3050
 2.1180	 9.3220
 2.1190	 9.3370
 2.1200	 9.3530
 2.1210	 9.3700
 2.1220	 9.3870
 2.1230	 9.4030
 2.1240	 9.4190
 2.1250	 9.4350
 2.1260	 9.4490
 2.1270	 9.4660
 2.1280	 9.4850
 2.1290	 9.5030
 2.1300	 9.5240
 2.1310	 9.5410
 2.1320	 9.5550
 2.1330	 9.5710
 2.1340	 9.5850
 2.1350	 9.6010
 2.1360	 9.6190
 2.1370	 9.6360
 2.1380	 9.6530
 2.1390	 9.6700
 2.1400	 9.6860
 2.1410	 9.7000
 2.1420	 9.7170
 2.1430	 9.7340
 2.1440	 9.7520
 2.1450	 9.7710
 2.1460	 9.7910
 2.1470	 9.8120
 2.1480	 9.8320
 2.1490	 9.8540
 2.1500	 9.8760
 2.1510	 9.8970
 2.1520	 9.9170
 2.1530	 9.9380
 2.1540	 9.9590
 2.1550	 9.9790
 2.1560	10.0000
 2.1570	10.0220
 2.1580	10.0450
 2.1590	10.0710
 2.1600	10.0940
 2.1610	10.1190
 2.1620	10.1440
 2.1630	10.1680
 2.1640	10.1900
 2.1650	10.2140
 2.1660	10.2380
 2.1670	10.2600
 2.1680	10.2800
 2.1690	10.3000
 2.1700	10.3190
 2.1710	10.3390
 2.1720	10.3620
 2.1730	10.3840
 2.1740	10.4060
 2.1750	10.4290
 2.1760	10.4550
 2.1770	10.4780
 2.1780	10.5020
 2.1790	10.5230
 2.1800	10.5390
 2.1810	10.5570
 2.1820	10.5780
 2.1830	10.5960
 2.1840	10.6170
 2.1850	10.6410
 2.1860	10.6650
 2.1870	10.6880
 2.1880	10.7120
 2.1890	10.7380
 2.1900	10.7620
 2.1910	10.7830
 2.1920	10.8060
 2.1930	10.8290
 2.1940	10.8500
 2.1950	10.8740
 2.1960	10.8950
 2.1970	10.9130
 2.1980	10.9320
 2.1990	10.9520
 2.2000	10.9720
 2.2010	10.9940
 2.2020	11.0130
 2.2030	11.0270
 2.2040	11.0450
 2.2050	11.0630
 2.2060	11.0830
 2.2070	11.1010
 2.2080	11.1220
 2.2090	11.1380
 2.2100	11.1490
 2.2110	11.1630
 2.2120	11.1790
 2.2130	11.1900
 2.2140	11.1980
 2.2150	11.2080
 2.2160	11.2160
 2.2170	11.2240
 2.2180	11.2340
 2.2190	11.2400
 2.2200	11.2410
 2.2210	11.2460
 2.2220	11.2520
 2.2230	11.2530
 2.2240	11.2560
 2.2250	11.2540
 2.2260	11.2440
 2.2270	11.2360
 2.2280	11.2250
 2.2290	11.2130
 2.2300	11.1990
 2.2310	11.1860
 2.2320	11.1690
 2.2330	11.1460
 2.2340	11.1250
 2.2350	11.1010
 2.2360	11.0760
 2.2370	11.0510
 2.2380	11.0210
 2.2390	10.9890
 2.2400	10.9540
 2.2410	10.9180
 2.2420	10.8800
 2.2430	10.8380
 2.2440	10.7990
 2.2450	10.7620
 2.2460	10.7230
 2.2470	10.6850
 2.2480	10.6430
 2.2490	10.5940
 2.2500	10.5480
 2.2510	10.5020
 2.2520	10.4540
 2.2530	10.4060
 2.2540	10.3580
 2.2550	10.3100
 2.2560	10.2610
 2.2570	10.2100
 2.2580	10.1620
 2.2590	10.1110
 2.2600	10.0640
 2.2610	10.0230
 2.2620	 9.9810
 2.2630	 9.9380
 2.2640	 9.8960
 2.2650	 9.8480
 2.2660	 9.8010
 2.2670	 9.7580
 2.2680	 9.7150
 2.2690	 9.6740
 2.2700	 9.6390
 2.2710	 9.6020
 2.2720	 9.5660
 2.2730	 9.5290
 2.2740	 9.4890
 2.2750	 9.4530
 2.2760	 9.4150
 2.2770	 9.3810
 2.2780	 9.3490
 2.2790	 9.3180
 2.2800	 9.2890
 2.2810	 9.2570
 2.2820	 9.2270
 2.2830	 9.1950
 2.2840	 9.1610
 2.2850	 9.1280
 2.2860	 9.0960
 2.2870	 9.0620
 2.2880	 9.0270
 2.2890	 8.9910
 2.2900	 8.9530
 2.2910	 8.9160
 2.2920	 8.8820
 2.2930	 8.8450
 2.2940	 8.8100
 2.2950	 8.7740
 2.2960	 8.7340
 2.2970	 8.6970
 2.2980	 8.6610
 2.2990	 8.6220
 2.3000	 8.5810
 2.3010	 8.5430
 2.3020	 8.5070
 2.3030	 8.4770
 2.3040	 8.4550
 2.3050	 8.4340
 2.3060	 8.4110
 2.3070	 8.3900
 2.3080	 8.3730
 2.3090	 8.3540
 2.3100	 8.3370
 2.3110	 8.3220
 2.3120	 8.3060
 2.3130	 8.2870
 2.3140	 8.2750
 2.3150	 8.2680
 2.3160	 8.2590
 2.3170	 8.2530
 2.3180	 8.2440
 2.3190	 8.2350
 2.3200	 8.2190
 2.3210	 8.1990
 2.3220	 8.1800
 2.3230	 8.1540
 2.3240	 8.1330
 2.3250	 8.1180
 2.3260	 8.0990
 2.3270	 8.0820
 2.3280	 8.0590
 2.3290	 8.0330
 2.3300	 8.0040
 2.3310	 7.9690
 2.3320	 7.9410
 2.3330	 7.9160
 2.3340	 7.8900
 2.3350	 7.8680
 2.3360	 7.8430
 2.3370	 7.8170
 2.3380	 7.7890
 2.3390	 7.7610
 2.3400	 7.7310
 2.3410	 7.6960
 2.3420	 7.6660
 2.3430	 7.6370
 2.3440	 7.6090
 2.3450	 7.5840
 2.3460	 7.5600
 2.3470	 7.5390
 2.3480	 7.5170
 2.3490	 7.5000
 2.3500	 7.4830
 2.3510	 7.4670
 2.3520	 7.4500
 2.3530	 7.4370
 2.3540	 7.4160
 2.3550	 7.3910
 2.3560	 7.3700
 2.3570	 7.3550
 2.3580	 7.3420
 2.3590	 7.3360
 2.3600	 7.3300
 2.3610	 7.3070
 2.3620	 7.2790
 2.3630	 7.2530
 2.3640	 7.2210
 2.3650	 7.1980
 2.3660	 7.1860
 2.3670	 7.1710
 2.3680	 7.1530
 2.3690	 7.1360
 2.3700	 7.1190
 2.3710	 7.0990
 2.3720	 7.0800
 2.3730	 7.0660
 2.3740	 7.0440
 2.3750	 7.0140
 2.3760	 6.9870
 2.3770	 6.9550
 2.3780	 6.9280
 2.3790	 6.9080
 2.3800	 6.8810
 2.3810	 6.8590
 2.3820	 6.8340
 2.3830	 6.8100
 2.3840	 6.8030
 2.3850	 6.7900
 2.3860	 6.7690
 2.3870	 6.7500
 2.3880	 6.7180
 2.3890	 6.6840
 2.3900	 6.6620
 2.3910	 6.6480
 2.3920	 6.6290
 2.3930	 6.6070
 2.3940	 6.5880
 2.3950	 6.5610
 2.3960	 6.5330
 2.3970	 6.5210
 2.3980	 6.5000
 2.3990	 6.4680
 2.4000	 6.4380
 2.4010	 6.4120
 2.4020	 6.3960
 2.4030	 6.3930
 2.4040	 6.3870
 2.4050	 6.3620
 2.4060	 6.3240
 2.4070	 6.2830
 2.4080	 6.2560
 2.4090	 6.2400
 2.4100	 6.2300
 2.4110	 6.2090
 2.4120	 6.1820
 2.4130	 6.1620
 2.4140	 6.1290
 2.4150	 6.1050
 2.4160	 6.0870
 2.4170	 6.0490
 2.4180	 6.0190
 2.4190	 6.0040
 2.4200	 5.9900
 2.4210	 5.9750
 2.4220	 5.9580
 2.4230	 5.9350
 2.4240	 5.8990
 2.4250	 5.8790
 2.4260	 5.8690
 2.4270	 5.8510
 2.4280	 5.8310
 2.4290	 5.7950
 2.4300	 5.7690
 2.4310	 5.7560
 2.4320	 5.7390
 2.4330	 5.7300
 2.4340	 5.7160
 2.4350	 5.6850
 2.4360	 5.6600
 2.4370	 5.6430
 2.4380	 5.6100
 2.4390	 5.5860
 2.4400	 5.5710
 2.4410	 5.5530
 2.4420	 5.5450
 2.4430	 5.5290
 2.4440	 5.5050
 2.4450	 5.4890
 2.4460	 5.4660
 2.4470	 5.4500
 2.4480	 5.4390
 2.4490	 5.4110
 2.4500	 5.3810
 2.4510	 5.3620
 2.4520	 5.3340
 2.4530	 5.3020
 2.4540	 5.2820
 2.4550	 5.2570
 2.4560	 5.2260
 2.4570	 5.1940
 2.4580	 5.1770
 2.4590	 5.1700
 2.4600	 5.1690
 2.4610	 5.1860
 2.4620	 5.1870
 2.4630	 5.1630
 2.4640	 5.1430
 2.4650	 5.1180
 2.4660	 5.0910
 2.4670	 5.0940
 2.4680	 5.0930
 2.4690	 5.1050
 2.4700	 5.1030
 2.4710	 5.0700
 2.4720	 5.0510
 2.4730	 5.0360
 2.4740	 5.0080
 2.4750	 4.9830
 2.4760	 4.9640
 2.4770	 4.9210
 2.4780	 4.9160
 2.4790	 4.9510
 2.4800	 4.9590
 2.4810	 4.9840
 2.4820	 4.9740
 2.4830	 4.9430
 2.4840	 4.9310
 2.4850	 4.9150
 2.4860	 4.9020
 2.4870	 4.9060
 2.4880	 4.8670
 2.4890	 4.8520
 2.4900	 4.8630
 2.4910	 4.8640
 2.4920	 4.8950
 2.4930	 4.8870
 2.4940	 4.8700
 2.4950	 4.8760
 2.4960	 4.8590
 2.4970	 4.8650
 2.4980	 4.8730
 2.4990	 4.8530
 2.5000	 4.8320
