Name: Fagus grandifolia
Type: Vegetation
Class: Tree
Genus: Fagus
Species: grandifolia
Sample No.: FAGR-1-39
Owner: UCSB
Wavelength Range: VSWIR
Origin: USA; Massachusetts; Harvard Forest
Collection Date: 7/8/2013
Description: Samples were collected as part of NSF Macrosystem Biology proposal titled: Collaborative Research: Thermal controls on ecosystem metabolism and function: scaling from leaves to canopies to regions. Samples were collected and overnighted to JPL facilities for processing. The same leaves were processed in the Nicolet and then measured using the ASD.
Measurement: Bidirectional reflectance
First Column: X
Second Column: Y
X Units: Wavelength (micrometers)
Y Units: Reflectance (percentage)
First X Value: 0.35
Last X Value: 2.5
Number of X Values: 2151
Additional Information: vegetation.tree.fagus.grandifolia.vswir.fagr-1-39.ucsb.asd.ancillary.txt

 0.3500	 5.5880
 0.3510	 5.6000
 0.3520	 5.6340
 0.3530	 5.6760
 0.3540	 5.7260
 0.3550	 5.6770
 0.3560	 5.7100
 0.3570	 5.7590
 0.3580	 5.6530
 0.3590	 5.4770
 0.3600	 5.4690
 0.3610	 5.6330
 0.3620	 5.6510
 0.3630	 5.6390
 0.3640	 5.6660
 0.3650	 5.7190
 0.3660	 5.4880
 0.3670	 5.3790
 0.3680	 5.4900
 0.3690	 5.6710
 0.3700	 5.7230
 0.3710	 5.6750
 0.3720	 5.5820
 0.3730	 5.4700
 0.3740	 5.5770
 0.3750	 5.7040
 0.3760	 5.6100
 0.3770	 5.5580
 0.3780	 5.5300
 0.3790	 5.5280
 0.3800	 5.5820
 0.3810	 5.6320
 0.3820	 5.6550
 0.3830	 5.6520
 0.3840	 5.6490
 0.3850	 5.6610
 0.3860	 5.6440
 0.3870	 5.5690
 0.3880	 5.6120
 0.3890	 5.6810
 0.3900	 5.7030
 0.3910	 5.6420
 0.3920	 5.6220
 0.3930	 5.6710
 0.3940	 5.7590
 0.3950	 5.7670
 0.3960	 5.7510
 0.3970	 5.7390
 0.3980	 5.7410
 0.3990	 5.7430
 0.4000	 5.7400
 0.4010	 5.7310
 0.4020	 5.7150
 0.4030	 5.7180
 0.4040	 5.7330
 0.4050	 5.7560
 0.4060	 5.8250
 0.4070	 5.8650
 0.4080	 5.8540
 0.4090	 5.8110
 0.4100	 5.8210
 0.4110	 5.8510
 0.4120	 5.8650
 0.4130	 5.8470
 0.4140	 5.8600
 0.4150	 5.8770
 0.4160	 5.8570
 0.4170	 5.8510
 0.4180	 5.8610
 0.4190	 5.8750
 0.4200	 5.8680
 0.4210	 5.8760
 0.4220	 5.8970
 0.4230	 5.9140
 0.4240	 5.9000
 0.4250	 5.8960
 0.4260	 5.9010
 0.4270	 5.8980
 0.4280	 5.9030
 0.4290	 5.9080
 0.4300	 5.9090
 0.4310	 5.9050
 0.4320	 5.9040
 0.4330	 5.9000
 0.4340	 5.8910
 0.4350	 5.8980
 0.4360	 5.9010
 0.4370	 5.8970
 0.4380	 5.8960
 0.4390	 5.9220
 0.4400	 5.9310
 0.4410	 5.9080
 0.4420	 5.9160
 0.4430	 5.9060
 0.4440	 5.8970
 0.4450	 5.9230
 0.4460	 5.9450
 0.4470	 5.9470
 0.4480	 5.9390
 0.4490	 5.9640
 0.4500	 5.9650
 0.4510	 5.9600
 0.4520	 5.9720
 0.4530	 5.9850
 0.4540	 5.9840
 0.4550	 5.9830
 0.4560	 6.0060
 0.4570	 6.0050
 0.4580	 5.9930
 0.4590	 5.9860
 0.4600	 5.9890
 0.4610	 5.9940
 0.4620	 6.0010
 0.4630	 6.0100
 0.4640	 5.9960
 0.4650	 5.9860
 0.4660	 5.9890
 0.4670	 5.9900
 0.4680	 5.9880
 0.4690	 5.9880
 0.4700	 5.9920
 0.4710	 5.9970
 0.4720	 5.9900
 0.4730	 5.9830
 0.4740	 5.9900
 0.4750	 5.9880
 0.4760	 5.9800
 0.4770	 5.9740
 0.4780	 5.9800
 0.4790	 5.9820
 0.4800	 5.9810
 0.4810	 5.9850
 0.4820	 5.9970
 0.4830	 5.9990
 0.4840	 5.9920
 0.4850	 5.9880
 0.4860	 5.9940
 0.4870	 6.0060
 0.4880	 6.0210
 0.4890	 6.0180
 0.4900	 6.0270
 0.4910	 6.0450
 0.4920	 6.0540
 0.4930	 6.0650
 0.4940	 6.0750
 0.4950	 6.0880
 0.4960	 6.1210
 0.4970	 6.1360
 0.4980	 6.1530
 0.4990	 6.1900
 0.5000	 6.2130
 0.5010	 6.2440
 0.5020	 6.2860
 0.5030	 6.3290
 0.5040	 6.3710
 0.5050	 6.4210
 0.5060	 6.4870
 0.5070	 6.5660
 0.5080	 6.6480
 0.5090	 6.7440
 0.5100	 6.8640
 0.5110	 6.9700
 0.5120	 7.0930
 0.5130	 7.2490
 0.5140	 7.4180
 0.5150	 7.5990
 0.5160	 7.7960
 0.5170	 8.0100
 0.5180	 8.2280
 0.5190	 8.4580
 0.5200	 8.7040
 0.5210	 8.9590
 0.5220	 9.2150
 0.5230	 9.4720
 0.5240	 9.7270
 0.5250	 9.9580
 0.5260	10.1900
 0.5270	10.4180
 0.5280	10.6270
 0.5290	10.8270
 0.5300	11.0050
 0.5310	11.1620
 0.5320	11.3200
 0.5330	11.4450
 0.5340	11.5530
 0.5350	11.6600
 0.5360	11.7480
 0.5370	11.8330
 0.5380	11.9130
 0.5390	11.9770
 0.5400	12.0310
 0.5410	12.0800
 0.5420	12.1290
 0.5430	12.1760
 0.5440	12.2310
 0.5450	12.2890
 0.5460	12.3400
 0.5470	12.3800
 0.5480	12.4110
 0.5490	12.4370
 0.5500	12.4620
 0.5510	12.4820
 0.5520	12.4890
 0.5530	12.4820
 0.5540	12.4660
 0.5550	12.4300
 0.5560	12.3740
 0.5570	12.3050
 0.5580	12.2240
 0.5590	12.1310
 0.5600	12.0250
 0.5610	11.9040
 0.5620	11.7710
 0.5630	11.6280
 0.5640	11.4760
 0.5650	11.3150
 0.5660	11.1430
 0.5670	10.9660
 0.5680	10.7890
 0.5690	10.6090
 0.5700	10.4320
 0.5710	10.2630
 0.5720	10.1000
 0.5730	 9.9380
 0.5740	 9.7840
 0.5750	 9.6500
 0.5760	 9.5280
 0.5770	 9.4160
 0.5780	 9.3130
 0.5790	 9.2110
 0.5800	 9.1100
 0.5810	 9.0120
 0.5820	 8.9200
 0.5830	 8.8400
 0.5840	 8.7700
 0.5850	 8.7050
 0.5860	 8.6410
 0.5870	 8.5760
 0.5880	 8.5080
 0.5890	 8.4440
 0.5900	 8.3940
 0.5910	 8.3500
 0.5920	 8.3110
 0.5930	 8.2870
 0.5940	 8.2640
 0.5950	 8.2370
 0.5960	 8.2060
 0.5970	 8.1790
 0.5980	 8.1490
 0.5990	 8.1200
 0.6000	 8.0930
 0.6010	 8.0660
 0.6020	 8.0350
 0.6030	 8.0000
 0.6040	 7.9630
 0.6050	 7.9180
 0.6060	 7.8650
 0.6070	 7.8080
 0.6080	 7.7550
 0.6090	 7.7000
 0.6100	 7.6360
 0.6110	 7.5610
 0.6120	 7.4990
 0.6130	 7.4450
 0.6140	 7.3930
 0.6150	 7.3390
 0.6160	 7.2890
 0.6170	 7.2420
 0.6180	 7.1970
 0.6190	 7.1510
 0.6200	 7.1130
 0.6210	 7.0860
 0.6220	 7.0610
 0.6230	 7.0330
 0.6240	 7.0100
 0.6250	 6.9980
 0.6260	 6.9850
 0.6270	 6.9750
 0.6280	 6.9640
 0.6290	 6.9500
 0.6300	 6.9400
 0.6310	 6.9320
 0.6320	 6.9230
 0.6330	 6.9140
 0.6340	 6.8870
 0.6350	 6.8570
 0.6360	 6.8340
 0.6370	 6.7980
 0.6380	 6.7530
 0.6390	 6.7050
 0.6400	 6.6590
 0.6410	 6.6120
 0.6420	 6.5580
 0.6430	 6.5010
 0.6440	 6.4560
 0.6450	 6.4150
 0.6460	 6.3750
 0.6470	 6.3340
 0.6480	 6.2940
 0.6490	 6.2640
 0.6500	 6.2430
 0.6510	 6.2260
 0.6520	 6.2070
 0.6530	 6.1890
 0.6540	 6.1770
 0.6550	 6.1630
 0.6560	 6.1480
 0.6570	 6.1310
 0.6580	 6.1120
 0.6590	 6.0970
 0.6600	 6.0790
 0.6610	 6.0570
 0.6620	 6.0390
 0.6630	 6.0230
 0.6640	 6.0110
 0.6650	 6.0070
 0.6660	 6.0030
 0.6670	 6.0020
 0.6680	 6.0040
 0.6690	 6.0080
 0.6700	 6.0230
 0.6710	 6.0390
 0.6720	 6.0510
 0.6730	 6.0660
 0.6740	 6.0900
 0.6750	 6.1190
 0.6760	 6.1470
 0.6770	 6.1760
 0.6780	 6.2080
 0.6790	 6.2440
 0.6800	 6.2880
 0.6810	 6.3300
 0.6820	 6.3720
 0.6830	 6.4170
 0.6840	 6.4670
 0.6850	 6.5240
 0.6860	 6.5860
 0.6870	 6.6530
 0.6880	 6.7380
 0.6890	 6.8430
 0.6900	 6.9790
 0.6910	 7.1620
 0.6920	 7.3930
 0.6930	 7.6900
 0.6940	 8.0650
 0.6950	 8.5130
 0.6960	 9.0530
 0.6970	 9.6850
 0.6980	10.4010
 0.6990	11.1840
 0.7000	12.0350
 0.7010	12.9480
 0.7020	13.9040
 0.7030	14.8910
 0.7040	15.9010
 0.7050	16.9250
 0.7060	17.9390
 0.7070	18.9640
 0.7080	19.9860
 0.7090	20.9900
 0.7100	21.9920
 0.7110	22.9880
 0.7120	23.9730
 0.7130	24.9390
 0.7140	25.8990
 0.7150	26.8390
 0.7160	27.7490
 0.7170	28.6590
 0.7180	29.5390
 0.7190	30.3900
 0.7200	31.2230
 0.7210	32.0320
 0.7220	32.8220
 0.7230	33.5900
 0.7240	34.3190
 0.7250	35.0100
 0.7260	35.6800
 0.7270	36.3350
 0.7280	36.9410
 0.7290	37.5300
 0.7300	38.0930
 0.7310	38.6050
 0.7320	39.1120
 0.7330	39.5830
 0.7340	40.0160
 0.7350	40.4400
 0.7360	40.8300
 0.7370	41.1940
 0.7380	41.5400
 0.7390	41.8560
 0.7400	42.1650
 0.7410	42.4560
 0.7420	42.7060
 0.7430	42.9230
 0.7440	43.1370
 0.7450	43.3540
 0.7460	43.5480
 0.7470	43.7200
 0.7480	43.8610
 0.7490	43.9820
 0.7500	44.1380
 0.7510	44.2510
 0.7520	44.3380
 0.7530	44.4390
 0.7540	44.5150
 0.7550	44.5930
 0.7560	44.6750
 0.7570	44.7440
 0.7580	44.7920
 0.7590	44.8400
 0.7600	44.8930
 0.7610	44.9190
 0.7620	44.9610
 0.7630	45.0080
 0.7640	45.0360
 0.7650	45.0660
 0.7660	45.0810
 0.7670	45.0930
 0.7680	45.1270
 0.7690	45.1300
 0.7700	45.1350
 0.7710	45.1610
 0.7720	45.1920
 0.7730	45.1870
 0.7740	45.1850
 0.7750	45.2140
 0.7760	45.2300
 0.7770	45.2370
 0.7780	45.2400
 0.7790	45.2480
 0.7800	45.2680
 0.7810	45.2840
 0.7820	45.2900
 0.7830	45.2910
 0.7840	45.2960
 0.7850	45.2980
 0.7860	45.2990
 0.7870	45.3280
 0.7880	45.3370
 0.7890	45.3410
 0.7900	45.3640
 0.7910	45.3610
 0.7920	45.3620
 0.7930	45.3740
 0.7940	45.3820
 0.7950	45.3970
 0.7960	45.4040
 0.7970	45.4000
 0.7980	45.4070
 0.7990	45.4150
 0.8000	45.4260
 0.8010	45.4360
 0.8020	45.4230
 0.8030	45.4220
 0.8040	45.4260
 0.8050	45.4140
 0.8060	45.4110
 0.8070	45.4180
 0.8080	45.4270
 0.8090	45.4260
 0.8100	45.4380
 0.8110	45.4370
 0.8120	45.4160
 0.8130	45.4040
 0.8140	45.4080
 0.8150	45.4190
 0.8160	45.4260
 0.8170	45.4250
 0.8180	45.4050
 0.8190	45.3820
 0.8200	45.3850
 0.8210	45.3990
 0.8220	45.3930
 0.8230	45.3760
 0.8240	45.3870
 0.8250	45.3890
 0.8260	45.3830
 0.8270	45.3750
 0.8280	45.3650
 0.8290	45.3620
 0.8300	45.3560
 0.8310	45.3410
 0.8320	45.3260
 0.8330	45.3310
 0.8340	45.3460
 0.8350	45.3450
 0.8360	45.3240
 0.8370	45.3210
 0.8380	45.3320
 0.8390	45.3170
 0.8400	45.3060
 0.8410	45.3120
 0.8420	45.3230
 0.8430	45.3050
 0.8440	45.3000
 0.8450	45.3040
 0.8460	45.3020
 0.8470	45.2970
 0.8480	45.2950
 0.8490	45.2990
 0.8500	45.3050
 0.8510	45.3050
 0.8520	45.2840
 0.8530	45.2700
 0.8540	45.3020
 0.8550	45.3100
 0.8560	45.3060
 0.8570	45.3030
 0.8580	45.3060
 0.8590	45.3070
 0.8600	45.3070
 0.8610	45.3070
 0.8620	45.3050
 0.8630	45.2940
 0.8640	45.2850
 0.8650	45.2860
 0.8660	45.2880
 0.8670	45.2990
 0.8680	45.3160
 0.8690	45.3290
 0.8700	45.3240
 0.8710	45.3210
 0.8720	45.3180
 0.8730	45.3130
 0.8740	45.3410
 0.8750	45.3630
 0.8760	45.3600
 0.8770	45.3470
 0.8780	45.3540
 0.8790	45.3600
 0.8800	45.3570
 0.8810	45.3590
 0.8820	45.3380
 0.8830	45.3350
 0.8840	45.3650
 0.8850	45.3540
 0.8860	45.3710
 0.8870	45.3920
 0.8880	45.3830
 0.8890	45.3870
 0.8900	45.3880
 0.8910	45.3920
 0.8920	45.4070
 0.8930	45.4120
 0.8940	45.4200
 0.8950	45.4320
 0.8960	45.4460
 0.8970	45.4370
 0.8980	45.4300
 0.8990	45.4320
 0.9000	45.4300
 0.9010	45.4200
 0.9020	45.4330
 0.9030	45.4660
 0.9040	45.4710
 0.9050	45.4610
 0.9060	45.4640
 0.9070	45.4810
 0.9080	45.4720
 0.9090	45.4770
 0.9100	45.4880
 0.9110	45.4950
 0.9120	45.5160
 0.9130	45.5230
 0.9140	45.5110
 0.9150	45.4940
 0.9160	45.5220
 0.9170	45.5260
 0.9180	45.5230
 0.9190	45.5470
 0.9200	45.5390
 0.9210	45.5260
 0.9220	45.5290
 0.9230	45.5560
 0.9240	45.5590
 0.9250	45.5510
 0.9260	45.5390
 0.9270	45.5230
 0.9280	45.5380
 0.9290	45.5550
 0.9300	45.5550
 0.9310	45.5400
 0.9320	45.5220
 0.9330	45.5230
 0.9340	45.5290
 0.9350	45.5000
 0.9360	45.5100
 0.9370	45.5220
 0.9380	45.5170
 0.9390	45.5220
 0.9400	45.5110
 0.9410	45.5080
 0.9420	45.5180
 0.9430	45.4970
 0.9440	45.4940
 0.9450	45.4830
 0.9460	45.4510
 0.9470	45.4530
 0.9480	45.4370
 0.9490	45.4160
 0.9500	45.4060
 0.9510	45.4050
 0.9520	45.3910
 0.9530	45.3590
 0.9540	45.3180
 0.9550	45.3100
 0.9560	45.3060
 0.9570	45.3000
 0.9580	45.2900
 0.9590	45.2550
 0.9600	45.2230
 0.9610	45.2080
 0.9620	45.2080
 0.9630	45.1970
 0.9640	45.1710
 0.9650	45.1590
 0.9660	45.1850
 0.9670	45.1700
 0.9680	45.1360
 0.9690	45.1130
 0.9700	45.1230
 0.9710	45.1330
 0.9720	45.1210
 0.9730	45.1000
 0.9740	45.0980
 0.9750	45.1100
 0.9760	45.1370
 0.9770	45.1440
 0.9780	45.1080
 0.9790	45.0990
 0.9800	45.1010
 0.9810	45.0950
 0.9820	45.0750
 0.9830	45.0670
 0.9840	45.0600
 0.9850	45.0680
 0.9860	45.1060
 0.9870	45.1050
 0.9880	45.1200
 0.9890	45.1270
 0.9900	45.0850
 0.9910	45.0650
 0.9920	45.0460
 0.9930	45.0270
 0.9940	45.0080
 0.9950	44.9890
 0.9960	44.9700
 0.9970	44.9510
 0.9980	44.9320
 0.9990	44.9130
 1.0000	44.8940
 1.0010	44.8740
 1.0020	44.8550
 1.0030	44.8360
 1.0040	44.8170
 1.0050	44.7980
 1.0060	44.7790
 1.0070	44.7600
 1.0080	44.7410
 1.0090	44.7220
 1.0100	44.7220
 1.0110	44.7340
 1.0120	44.7420
 1.0130	44.7420
 1.0140	44.7440
 1.0150	44.7500
 1.0160	44.7510
 1.0170	44.7470
 1.0180	44.7500
 1.0190	44.7530
 1.0200	44.7620
 1.0210	44.7710
 1.0220	44.7770
 1.0230	44.7810
 1.0240	44.7810
 1.0250	44.7840
 1.0260	44.7840
 1.0270	44.7890
 1.0280	44.7960
 1.0290	44.8030
 1.0300	44.8160
 1.0310	44.8210
 1.0320	44.8190
 1.0330	44.8230
 1.0340	44.8290
 1.0350	44.8270
 1.0360	44.8320
 1.0370	44.8320
 1.0380	44.8360
 1.0390	44.8350
 1.0400	44.8420
 1.0410	44.8590
 1.0420	44.8650
 1.0430	44.8680
 1.0440	44.8690
 1.0450	44.8610
 1.0460	44.8600
 1.0470	44.8640
 1.0480	44.8650
 1.0490	44.8670
 1.0500	44.8690
 1.0510	44.8730
 1.0520	44.8750
 1.0530	44.8780
 1.0540	44.8800
 1.0550	44.8870
 1.0560	44.8960
 1.0570	44.9020
 1.0580	44.9100
 1.0590	44.9150
 1.0600	44.9140
 1.0610	44.9160
 1.0620	44.9200
 1.0630	44.9250
 1.0640	44.9320
 1.0650	44.9370
 1.0660	44.9430
 1.0670	44.9470
 1.0680	44.9520
 1.0690	44.9530
 1.0700	44.9590
 1.0710	44.9670
 1.0720	44.9700
 1.0730	44.9720
 1.0740	44.9740
 1.0750	44.9720
 1.0760	44.9720
 1.0770	44.9730
 1.0780	44.9750
 1.0790	44.9810
 1.0800	44.9830
 1.0810	44.9840
 1.0820	44.9880
 1.0830	44.9930
 1.0840	44.9960
 1.0850	45.0030
 1.0860	45.0040
 1.0870	45.0030
 1.0880	44.9970
 1.0890	44.9930
 1.0900	44.9890
 1.0910	44.9840
 1.0920	44.9760
 1.0930	44.9730
 1.0940	44.9710
 1.0950	44.9700
 1.0960	44.9740
 1.0970	44.9750
 1.0980	44.9750
 1.0990	44.9750
 1.1000	44.9800
 1.1010	44.9790
 1.1020	44.9760
 1.1030	44.9690
 1.1040	44.9590
 1.1050	44.9520
 1.1060	44.9440
 1.1070	44.9360
 1.1080	44.9310
 1.1090	44.9280
 1.1100	44.9240
 1.1110	44.9230
 1.1120	44.9190
 1.1130	44.9110
 1.1140	44.9030
 1.1150	44.8940
 1.1160	44.8880
 1.1170	44.8810
 1.1180	44.8750
 1.1190	44.8710
 1.1200	44.8690
 1.1210	44.8640
 1.1220	44.8570
 1.1230	44.8450
 1.1240	44.8320
 1.1250	44.8160
 1.1260	44.7980
 1.1270	44.7770
 1.1280	44.7510
 1.1290	44.7290
 1.1300	44.7070
 1.1310	44.6820
 1.1320	44.6590
 1.1330	44.6320
 1.1340	44.5990
 1.1350	44.5650
 1.1360	44.5300
 1.1370	44.4940
 1.1380	44.4510
 1.1390	44.4080
 1.1400	44.3650
 1.1410	44.3190
 1.1420	44.2700
 1.1430	44.2210
 1.1440	44.1770
 1.1450	44.1330
 1.1460	44.0900
 1.1470	44.0490
 1.1480	44.0090
 1.1490	43.9660
 1.1500	43.9280
 1.1510	43.8980
 1.1520	43.8660
 1.1530	43.8330
 1.1540	43.8030
 1.1550	43.7750
 1.1560	43.7510
 1.1570	43.7290
 1.1580	43.7110
 1.1590	43.6930
 1.1600	43.6760
 1.1610	43.6640
 1.1620	43.6570
 1.1630	43.6530
 1.1640	43.6460
 1.1650	43.6390
 1.1660	43.6280
 1.1670	43.6230
 1.1680	43.6200
 1.1690	43.6200
 1.1700	43.6250
 1.1710	43.6230
 1.1720	43.6190
 1.1730	43.6160
 1.1740	43.6090
 1.1750	43.6040
 1.1760	43.6060
 1.1770	43.6050
 1.1780	43.6030
 1.1790	43.6020
 1.1800	43.5970
 1.1810	43.5910
 1.1820	43.5850
 1.1830	43.5780
 1.1840	43.5720
 1.1850	43.5660
 1.1860	43.5630
 1.1870	43.5620
 1.1880	43.5600
 1.1890	43.5600
 1.1900	43.5600
 1.1910	43.5620
 1.1920	43.5620
 1.1930	43.5600
 1.1940	43.5590
 1.1950	43.5560
 1.1960	43.5570
 1.1970	43.5580
 1.1980	43.5610
 1.1990	43.5640
 1.2000	43.5660
 1.2010	43.5690
 1.2020	43.5720
 1.2030	43.5760
 1.2040	43.5800
 1.2050	43.5850
 1.2060	43.5910
 1.2070	43.5950
 1.2080	43.5980
 1.2090	43.6050
 1.2100	43.6120
 1.2110	43.6190
 1.2120	43.6300
 1.2130	43.6360
 1.2140	43.6370
 1.2150	43.6420
 1.2160	43.6470
 1.2170	43.6520
 1.2180	43.6630
 1.2190	43.6740
 1.2200	43.6820
 1.2210	43.6890
 1.2220	43.6950
 1.2230	43.7020
 1.2240	43.7120
 1.2250	43.7210
 1.2260	43.7330
 1.2270	43.7430
 1.2280	43.7520
 1.2290	43.7610
 1.2300	43.7730
 1.2310	43.7840
 1.2320	43.7920
 1.2330	43.7990
 1.2340	43.8060
 1.2350	43.8100
 1.2360	43.8170
 1.2370	43.8270
 1.2380	43.8360
 1.2390	43.8400
 1.2400	43.8440
 1.2410	43.8460
 1.2420	43.8480
 1.2430	43.8520
 1.2440	43.8560
 1.2450	43.8620
 1.2460	43.8680
 1.2470	43.8740
 1.2480	43.8830
 1.2490	43.8890
 1.2500	43.8940
 1.2510	43.9030
 1.2520	43.9060
 1.2530	43.9090
 1.2540	43.9160
 1.2550	43.9140
 1.2560	43.9150
 1.2570	43.9200
 1.2580	43.9170
 1.2590	43.9170
 1.2600	43.9220
 1.2610	43.9210
 1.2620	43.9160
 1.2630	43.9150
 1.2640	43.9150
 1.2650	43.9090
 1.2660	43.9070
 1.2670	43.9060
 1.2680	43.8990
 1.2690	43.8960
 1.2700	43.8910
 1.2710	43.8860
 1.2720	43.8830
 1.2730	43.8780
 1.2740	43.8760
 1.2750	43.8760
 1.2760	43.8750
 1.2770	43.8730
 1.2780	43.8680
 1.2790	43.8570
 1.2800	43.8490
 1.2810	43.8420
 1.2820	43.8330
 1.2830	43.8260
 1.2840	43.8200
 1.2850	43.8140
 1.2860	43.8070
 1.2870	43.8010
 1.2880	43.7960
 1.2890	43.7920
 1.2900	43.7880
 1.2910	43.7890
 1.2920	43.7850
 1.2930	43.7770
 1.2940	43.7670
 1.2950	43.7570
 1.2960	43.7470
 1.2970	43.7380
 1.2980	43.7280
 1.2990	43.7150
 1.3000	43.7030
 1.3010	43.6930
 1.3020	43.6780
 1.3030	43.6620
 1.3040	43.6420
 1.3050	43.6190
 1.3060	43.5950
 1.3070	43.5690
 1.3080	43.5440
 1.3090	43.5190
 1.3100	43.4950
 1.3110	43.4740
 1.3120	43.4480
 1.3130	43.4160
 1.3140	43.3850
 1.3150	43.3550
 1.3160	43.3180
 1.3170	43.2780
 1.3180	43.2390
 1.3190	43.1980
 1.3200	43.1540
 1.3210	43.1140
 1.3220	43.0760
 1.3230	43.0310
 1.3240	42.9840
 1.3250	42.9360
 1.3260	42.8830
 1.3270	42.8310
 1.3280	42.7770
 1.3290	42.7220
 1.3300	42.6700
 1.3310	42.6120
 1.3320	42.5530
 1.3330	42.4960
 1.3340	42.4370
 1.3350	42.3790
 1.3360	42.3190
 1.3370	42.2560
 1.3380	42.1930
 1.3390	42.1300
 1.3400	42.0680
 1.3410	42.0050
 1.3420	41.9410
 1.3430	41.8770
 1.3440	41.8110
 1.3450	41.7480
 1.3460	41.6870
 1.3470	41.6270
 1.3480	41.5690
 1.3490	41.5120
 1.3500	41.4570
 1.3510	41.4000
 1.3520	41.3450
 1.3530	41.2880
 1.3540	41.2320
 1.3550	41.1750
 1.3560	41.1180
 1.3570	41.0600
 1.3580	41.0030
 1.3590	40.9450
 1.3600	40.8830
 1.3610	40.8140
 1.3620	40.7440
 1.3630	40.6730
 1.3640	40.5990
 1.3650	40.5240
 1.3660	40.4460
 1.3670	40.3600
 1.3680	40.2690
 1.3690	40.1710
 1.3700	40.0640
 1.3710	39.9500
 1.3720	39.8270
 1.3730	39.6950
 1.3740	39.5550
 1.3750	39.4080
 1.3760	39.2490
 1.3770	39.0760
 1.3780	38.8880
 1.3790	38.6840
 1.3800	38.4650
 1.3810	38.2290
 1.3820	37.9780
 1.3830	37.7130
 1.3840	37.4310
 1.3850	37.1330
 1.3860	36.8220
 1.3870	36.4940
 1.3880	36.1590
 1.3890	35.8120
 1.3900	35.4560
 1.3910	35.0930
 1.3920	34.7170
 1.3930	34.3330
 1.3940	33.9420
 1.3950	33.5420
 1.3960	33.1410
 1.3970	32.7420
 1.3980	32.3410
 1.3990	31.9510
 1.4000	31.5670
 1.4010	31.1870
 1.4020	30.8170
 1.4030	30.4510
 1.4040	30.0970
 1.4050	29.7590
 1.4060	29.4350
 1.4070	29.1330
 1.4080	28.8460
 1.4090	28.5690
 1.4100	28.3070
 1.4110	28.0580
 1.4120	27.8260
 1.4130	27.6090
 1.4140	27.4060
 1.4150	27.2190
 1.4160	27.0460
 1.4170	26.8880
 1.4180	26.7430
 1.4190	26.6100
 1.4200	26.4880
 1.4210	26.3770
 1.4220	26.2770
 1.4230	26.1880
 1.4240	26.1080
 1.4250	26.0370
 1.4260	25.9750
 1.4270	25.9180
 1.4280	25.8700
 1.4290	25.8280
 1.4300	25.7910
 1.4310	25.7630
 1.4320	25.7450
 1.4330	25.7290
 1.4340	25.7190
 1.4350	25.7110
 1.4360	25.7050
 1.4370	25.7040
 1.4380	25.7090
 1.4390	25.7170
 1.4400	25.7270
 1.4410	25.7400
 1.4420	25.7550
 1.4430	25.7720
 1.4440	25.7930
 1.4450	25.8170
 1.4460	25.8410
 1.4470	25.8680
 1.4480	25.8960
 1.4490	25.9230
 1.4500	25.9510
 1.4510	25.9780
 1.4520	26.0070
 1.4530	26.0370
 1.4540	26.0700
 1.4550	26.1060
 1.4560	26.1430
 1.4570	26.1840
 1.4580	26.2260
 1.4590	26.2700
 1.4600	26.3190
 1.4610	26.3730
 1.4620	26.4300
 1.4630	26.4920
 1.4640	26.5590
 1.4650	26.6310
 1.4660	26.7080
 1.4670	26.7920
 1.4680	26.8800
 1.4690	26.9700
 1.4700	27.0650
 1.4710	27.1640
 1.4720	27.2660
 1.4730	27.3720
 1.4740	27.4800
 1.4750	27.5890
 1.4760	27.7000
 1.4770	27.8110
 1.4780	27.9210
 1.4790	28.0340
 1.4800	28.1490
 1.4810	28.2650
 1.4820	28.3850
 1.4830	28.5030
 1.4840	28.6200
 1.4850	28.7390
 1.4860	28.8560
 1.4870	28.9760
 1.4880	29.0950
 1.4890	29.2130
 1.4900	29.3310
 1.4910	29.4480
 1.4920	29.5650
 1.4930	29.6810
 1.4940	29.7970
 1.4950	29.9140
 1.4960	30.0300
 1.4970	30.1430
 1.4980	30.2590
 1.4990	30.3750
 1.5000	30.4900
 1.5010	30.6080
 1.5020	30.7230
 1.5030	30.8350
 1.5040	30.9450
 1.5050	31.0540
 1.5060	31.1610
 1.5070	31.2670
 1.5080	31.3710
 1.5090	31.4730
 1.5100	31.5770
 1.5110	31.6800
 1.5120	31.7820
 1.5130	31.8820
 1.5140	31.9810
 1.5150	32.0790
 1.5160	32.1750
 1.5170	32.2750
 1.5180	32.3710
 1.5190	32.4660
 1.5200	32.5620
 1.5210	32.6520
 1.5220	32.7440
 1.5230	32.8370
 1.5240	32.9280
 1.5250	33.0180
 1.5260	33.1060
 1.5270	33.1910
 1.5280	33.2750
 1.5290	33.3580
 1.5300	33.4440
 1.5310	33.5290
 1.5320	33.6100
 1.5330	33.6890
 1.5340	33.7660
 1.5350	33.8450
 1.5360	33.9220
 1.5370	33.9960
 1.5380	34.0690
 1.5390	34.1400
 1.5400	34.2090
 1.5410	34.2790
 1.5420	34.3480
 1.5430	34.4160
 1.5440	34.4860
 1.5450	34.5550
 1.5460	34.6220
 1.5470	34.6880
 1.5480	34.7520
 1.5490	34.8150
 1.5500	34.8790
 1.5510	34.9390
 1.5520	34.9990
 1.5530	35.0600
 1.5540	35.1200
 1.5550	35.1790
 1.5560	35.2360
 1.5570	35.2900
 1.5580	35.3460
 1.5590	35.4020
 1.5600	35.4610
 1.5610	35.5190
 1.5620	35.5750
 1.5630	35.6270
 1.5640	35.6780
 1.5650	35.7290
 1.5660	35.7800
 1.5670	35.8310
 1.5680	35.8810
 1.5690	35.9280
 1.5700	35.9750
 1.5710	36.0220
 1.5720	36.0700
 1.5730	36.1160
 1.5740	36.1600
 1.5750	36.2040
 1.5760	36.2480
 1.5770	36.2910
 1.5780	36.3350
 1.5790	36.3770
 1.5800	36.4150
 1.5810	36.4550
 1.5820	36.4960
 1.5830	36.5390
 1.5840	36.5870
 1.5850	36.6320
 1.5860	36.6740
 1.5870	36.7160
 1.5880	36.7590
 1.5890	36.8020
 1.5900	36.8420
 1.5910	36.8790
 1.5920	36.9130
 1.5930	36.9460
 1.5940	36.9830
 1.5950	37.0220
 1.5960	37.0610
 1.5970	37.1030
 1.5980	37.1400
 1.5990	37.1780
 1.6000	37.2160
 1.6010	37.2450
 1.6020	37.2770
 1.6030	37.3100
 1.6040	37.3380
 1.6050	37.3690
 1.6060	37.3990
 1.6070	37.4260
 1.6080	37.4550
 1.6090	37.4860
 1.6100	37.5170
 1.6110	37.5480
 1.6120	37.5810
 1.6130	37.6110
 1.6140	37.6400
 1.6150	37.6690
 1.6160	37.6970
 1.6170	37.7240
 1.6180	37.7510
 1.6190	37.7770
 1.6200	37.8010
 1.6210	37.8240
 1.6220	37.8450
 1.6230	37.8630
 1.6240	37.8820
 1.6250	37.9010
 1.6260	37.9220
 1.6270	37.9460
 1.6280	37.9730
 1.6290	37.9970
 1.6300	38.0230
 1.6310	38.0440
 1.6320	38.0630
 1.6330	38.0810
 1.6340	38.0950
 1.6350	38.1110
 1.6360	38.1270
 1.6370	38.1400
 1.6380	38.1510
 1.6390	38.1620
 1.6400	38.1700
 1.6410	38.1800
 1.6420	38.1910
 1.6430	38.2020
 1.6440	38.2130
 1.6450	38.2200
 1.6460	38.2260
 1.6470	38.2290
 1.6480	38.2320
 1.6490	38.2330
 1.6500	38.2350
 1.6510	38.2350
 1.6520	38.2340
 1.6530	38.2350
 1.6540	38.2320
 1.6550	38.2300
 1.6560	38.2280
 1.6570	38.2200
 1.6580	38.2120
 1.6590	38.2020
 1.6600	38.1910
 1.6610	38.1850
 1.6620	38.1780
 1.6630	38.1680
 1.6640	38.1570
 1.6650	38.1420
 1.6660	38.1270
 1.6670	38.1170
 1.6680	38.1070
 1.6690	38.0980
 1.6700	38.0860
 1.6710	38.0700
 1.6720	38.0540
 1.6730	38.0400
 1.6740	38.0250
 1.6750	38.0120
 1.6760	38.0010
 1.6770	37.9910
 1.6780	37.9830
 1.6790	37.9750
 1.6800	37.9620
 1.6810	37.9440
 1.6820	37.9260
 1.6830	37.9070
 1.6840	37.8890
 1.6850	37.8730
 1.6860	37.8540
 1.6870	37.8390
 1.6880	37.8270
 1.6890	37.8120
 1.6900	37.7930
 1.6910	37.7690
 1.6920	37.7450
 1.6930	37.7200
 1.6940	37.6960
 1.6950	37.6710
 1.6960	37.6480
 1.6970	37.6260
 1.6980	37.6040
 1.6990	37.5840
 1.7000	37.5610
 1.7010	37.5350
 1.7020	37.5120
 1.7030	37.4860
 1.7040	37.4630
 1.7050	37.4460
 1.7060	37.4230
 1.7070	37.3990
 1.7080	37.3740
 1.7090	37.3440
 1.7100	37.3160
 1.7110	37.2890
 1.7120	37.2590
 1.7130	37.2300
 1.7140	37.1990
 1.7150	37.1670
 1.7160	37.1360
 1.7170	37.1040
 1.7180	37.0720
 1.7190	37.0420
 1.7200	37.0130
 1.7210	36.9850
 1.7220	36.9610
 1.7230	36.9420
 1.7240	36.9210
 1.7250	36.9000
 1.7260	36.8780
 1.7270	36.8510
 1.7280	36.8300
 1.7290	36.8070
 1.7300	36.7800
 1.7310	36.7560
 1.7320	36.7340
 1.7330	36.7080
 1.7340	36.6810
 1.7350	36.6510
 1.7360	36.6160
 1.7370	36.5840
 1.7380	36.5540
 1.7390	36.5240
 1.7400	36.4970
 1.7410	36.4660
 1.7420	36.4370
 1.7430	36.4040
 1.7440	36.3660
 1.7450	36.3300
 1.7460	36.2930
 1.7470	36.2560
 1.7480	36.2220
 1.7490	36.1840
 1.7500	36.1430
 1.7510	36.1050
 1.7520	36.0660
 1.7530	36.0260
 1.7540	35.9870
 1.7550	35.9450
 1.7560	35.9020
 1.7570	35.8620
 1.7580	35.8220
 1.7590	35.7820
 1.7600	35.7410
 1.7610	35.7010
 1.7620	35.6610
 1.7630	35.6210
 1.7640	35.5840
 1.7650	35.5490
 1.7660	35.5160
 1.7670	35.4870
 1.7680	35.4580
 1.7690	35.4290
 1.7700	35.4000
 1.7710	35.3690
 1.7720	35.3430
 1.7730	35.3210
 1.7740	35.2970
 1.7750	35.2780
 1.7760	35.2540
 1.7770	35.2240
 1.7780	35.2000
 1.7790	35.1750
 1.7800	35.1530
 1.7810	35.1360
 1.7820	35.1170
 1.7830	35.1000
 1.7840	35.0820
 1.7850	35.0650
 1.7860	35.0470
 1.7870	35.0270
 1.7880	35.0090
 1.7890	34.9950
 1.7900	34.9860
 1.7910	34.9780
 1.7920	34.9720
 1.7930	34.9700
 1.7940	34.9700
 1.7950	34.9690
 1.7960	34.9740
 1.7970	34.9740
 1.7980	34.9680
 1.7990	34.9660
 1.8000	34.9630
 1.8010	34.9610
 1.8020	34.9600
 1.8030	34.9610
 1.8040	34.9620
 1.8050	34.9670
 1.8060	34.9790
 1.8070	34.9820
 1.8080	34.9810
 1.8090	34.9800
 1.8100	34.9690
 1.8110	34.9710
 1.8120	34.9750
 1.8130	34.9710
 1.8140	34.9730
 1.8150	34.9720
 1.8160	34.9630
 1.8170	34.9690
 1.8180	34.9740
 1.8190	34.9690
 1.8200	34.9670
 1.8210	34.9570
 1.8220	34.9520
 1.8230	34.9570
 1.8240	34.9520
 1.8250	34.9380
 1.8260	34.9310
 1.8270	34.8650
 1.8280	34.8000
 1.8290	34.7340
 1.8300	34.6680
 1.8310	34.6030
 1.8320	34.5370
 1.8330	34.4720
 1.8340	34.4060
 1.8350	34.4060
 1.8360	34.3750
 1.8370	34.3410
 1.8380	34.3040
 1.8390	34.2610
 1.8400	34.2130
 1.8410	34.1620
 1.8420	34.1060
 1.8430	34.0500
 1.8440	33.9970
 1.8450	33.9360
 1.8460	33.8740
 1.8470	33.7990
 1.8480	33.7100
 1.8490	33.6150
 1.8500	33.5100
 1.8510	33.3940
 1.8520	33.2760
 1.8530	33.1480
 1.8540	33.0100
 1.8550	32.8590
 1.8560	32.6950
 1.8570	32.5210
 1.8580	32.3320
 1.8590	32.1330
 1.8600	31.9250
 1.8610	31.7030
 1.8620	31.4600
 1.8630	31.2060
 1.8640	30.9290
 1.8650	30.6310
 1.8660	30.3170
 1.8670	29.9790
 1.8680	29.6170
 1.8690	29.2300
 1.8700	28.8200
 1.8710	28.3870
 1.8720	27.9330
 1.8730	27.4560
 1.8740	26.9630
 1.8750	26.4520
 1.8760	25.9150
 1.8770	25.3720
 1.8780	24.8190
 1.8790	24.2460
 1.8800	23.6670
 1.8810	23.0800
 1.8820	22.4810
 1.8830	21.8700
 1.8840	21.2550
 1.8850	20.6370
 1.8860	20.0220
 1.8870	19.4120
 1.8880	18.8050
 1.8890	18.2150
 1.8900	17.6360
 1.8910	17.0740
 1.8920	16.5220
 1.8930	15.9980
 1.8940	15.4920
 1.8950	15.0120
 1.8960	14.5630
 1.8970	14.1420
 1.8980	13.7500
 1.8990	13.3830
 1.9000	13.0400
 1.9010	12.7250
 1.9020	12.4320
 1.9030	12.1620
 1.9040	11.9210
 1.9050	11.7070
 1.9060	11.5120
 1.9070	11.3410
 1.9080	11.1880
 1.9090	11.0500
 1.9100	10.9290
 1.9110	10.8200
 1.9120	10.7280
 1.9130	10.6440
 1.9140	10.5730
 1.9150	10.5100
 1.9160	10.4570
 1.9170	10.4130
 1.9180	10.3760
 1.9190	10.3490
 1.9200	10.3300
 1.9210	10.3160
 1.9220	10.3060
 1.9230	10.3040
 1.9240	10.3010
 1.9250	10.2980
 1.9260	10.3060
 1.9270	10.3220
 1.9280	10.3410
 1.9290	10.3680
 1.9300	10.3980
 1.9310	10.4280
 1.9320	10.4610
 1.9330	10.4980
 1.9340	10.5390
 1.9350	10.5850
 1.9360	10.6370
 1.9370	10.6890
 1.9380	10.7460
 1.9390	10.8030
 1.9400	10.8640
 1.9410	10.9260
 1.9420	10.9870
 1.9430	11.0570
 1.9440	11.1280
 1.9450	11.1990
 1.9460	11.2750
 1.9470	11.3580
 1.9480	11.4370
 1.9490	11.5160
 1.9500	11.6000
 1.9510	11.6810
 1.9520	11.7710
 1.9530	11.8630
 1.9540	11.9500
 1.9550	12.0420
 1.9560	12.1360
 1.9570	12.2300
 1.9580	12.3280
 1.9590	12.4250
 1.9600	12.5180
 1.9610	12.6160
 1.9620	12.7160
 1.9630	12.8160
 1.9640	12.9190
 1.9650	13.0250
 1.9660	13.1320
 1.9670	13.2410
 1.9680	13.3490
 1.9690	13.4580
 1.9700	13.5670
 1.9710	13.6730
 1.9720	13.7830
 1.9730	13.8930
 1.9740	14.0050
 1.9750	14.1180
 1.9760	14.2370
 1.9770	14.3550
 1.9780	14.4760
 1.9790	14.5960
 1.9800	14.7160
 1.9810	14.8350
 1.9820	14.9510
 1.9830	15.0690
 1.9840	15.1850
 1.9850	15.3030
 1.9860	15.4200
 1.9870	15.5390
 1.9880	15.6590
 1.9890	15.7810
 1.9900	15.9040
 1.9910	16.0260
 1.9920	16.1460
 1.9930	16.2650
 1.9940	16.3840
 1.9950	16.5030
 1.9960	16.6200
 1.9970	16.7360
 1.9980	16.8540
 1.9990	16.9670
 2.0000	17.0880
 2.0010	17.2110
 2.0020	17.3330
 2.0030	17.4510
 2.0040	17.5610
 2.0050	17.6700
 2.0060	17.7700
 2.0070	17.8760
 2.0080	17.9830
 2.0090	18.0940
 2.0100	18.2120
 2.0110	18.3240
 2.0120	18.4330
 2.0130	18.5430
 2.0140	18.6500
 2.0150	18.7520
 2.0160	18.8580
 2.0170	18.9660
 2.0180	19.0690
 2.0190	19.1710
 2.0200	19.2690
 2.0210	19.3640
 2.0220	19.4580
 2.0230	19.5500
 2.0240	19.6390
 2.0250	19.7250
 2.0260	19.8100
 2.0270	19.8910
 2.0280	19.9740
 2.0290	20.0510
 2.0300	20.1270
 2.0310	20.2010
 2.0320	20.2710
 2.0330	20.3400
 2.0340	20.4060
 2.0350	20.4770
 2.0360	20.5510
 2.0370	20.6200
 2.0380	20.6920
 2.0390	20.7600
 2.0400	20.8200
 2.0410	20.8820
 2.0420	20.9460
 2.0430	21.0110
 2.0440	21.0730
 2.0450	21.1330
 2.0460	21.1930
 2.0470	21.2500
 2.0480	21.3090
 2.0490	21.3700
 2.0500	21.4290
 2.0510	21.4880
 2.0520	21.5480
 2.0530	21.6090
 2.0540	21.6690
 2.0550	21.7280
 2.0560	21.7900
 2.0570	21.8540
 2.0580	21.9090
 2.0590	21.9670
 2.0600	22.0260
 2.0610	22.0840
 2.0620	22.1380
 2.0630	22.1980
 2.0640	22.2610
 2.0650	22.3240
 2.0660	22.3910
 2.0670	22.4540
 2.0680	22.5170
 2.0690	22.5790
 2.0700	22.6410
 2.0710	22.7010
 2.0720	22.7580
 2.0730	22.8200
 2.0740	22.8850
 2.0750	22.9510
 2.0760	23.0140
 2.0770	23.0820
 2.0780	23.1460
 2.0790	23.2060
 2.0800	23.2630
 2.0810	23.3200
 2.0820	23.3730
 2.0830	23.4180
 2.0840	23.4680
 2.0850	23.5180
 2.0860	23.5710
 2.0870	23.6270
 2.0880	23.6840
 2.0890	23.7400
 2.0900	23.7980
 2.0910	23.8520
 2.0920	23.9040
 2.0930	23.9560
 2.0940	24.0040
 2.0950	24.0540
 2.0960	24.1040
 2.0970	24.1560
 2.0980	24.2110
 2.0990	24.2620
 2.1000	24.3120
 2.1010	24.3590
 2.1020	24.4000
 2.1030	24.4450
 2.1040	24.4880
 2.1050	24.5350
 2.1060	24.5830
 2.1070	24.6330
 2.1080	24.6810
 2.1090	24.7290
 2.1100	24.7810
 2.1110	24.8340
 2.1120	24.8860
 2.1130	24.9450
 2.1140	24.9940
 2.1150	25.0360
 2.1160	25.0800
 2.1170	25.1180
 2.1180	25.1590
 2.1190	25.2050
 2.1200	25.2470
 2.1210	25.2870
 2.1220	25.3280
 2.1230	25.3690
 2.1240	25.4100
 2.1250	25.4490
 2.1260	25.4900
 2.1270	25.5250
 2.1280	25.5540
 2.1290	25.5840
 2.1300	25.6110
 2.1310	25.6400
 2.1320	25.6690
 2.1330	25.6990
 2.1340	25.7320
 2.1350	25.7600
 2.1360	25.7800
 2.1370	25.8080
 2.1380	25.8370
 2.1390	25.8640
 2.1400	25.8910
 2.1410	25.9230
 2.1420	25.9490
 2.1430	25.9680
 2.1440	25.9930
 2.1450	26.0220
 2.1460	26.0420
 2.1470	26.0570
 2.1480	26.0750
 2.1490	26.0880
 2.1500	26.1060
 2.1510	26.1280
 2.1520	26.1480
 2.1530	26.1700
 2.1540	26.1880
 2.1550	26.2060
 2.1560	26.2200
 2.1570	26.2280
 2.1580	26.2380
 2.1590	26.2450
 2.1600	26.2520
 2.1610	26.2690
 2.1620	26.2900
 2.1630	26.3070
 2.1640	26.3290
 2.1650	26.3450
 2.1660	26.3530
 2.1670	26.3650
 2.1680	26.3740
 2.1690	26.3870
 2.1700	26.4020
 2.1710	26.4140
 2.1720	26.4270
 2.1730	26.4380
 2.1740	26.4430
 2.1750	26.4530
 2.1760	26.4630
 2.1770	26.4750
 2.1780	26.4910
 2.1790	26.5060
 2.1800	26.5240
 2.1810	26.5410
 2.1820	26.5580
 2.1830	26.5710
 2.1840	26.5850
 2.1850	26.5990
 2.1860	26.6120
 2.1870	26.6210
 2.1880	26.6340
 2.1890	26.6470
 2.1900	26.6590
 2.1910	26.6710
 2.1920	26.6870
 2.1930	26.7030
 2.1940	26.7210
 2.1950	26.7450
 2.1960	26.7650
 2.1970	26.7810
 2.1980	26.8010
 2.1990	26.8270
 2.2000	26.8440
 2.2010	26.8570
 2.2020	26.8680
 2.2030	26.8680
 2.2040	26.8760
 2.2050	26.8900
 2.2060	26.9020
 2.2070	26.9140
 2.2080	26.9290
 2.2090	26.9380
 2.2100	26.9460
 2.2110	26.9470
 2.2120	26.9400
 2.2130	26.9370
 2.2140	26.9280
 2.2150	26.9250
 2.2160	26.9300
 2.2170	26.9270
 2.2180	26.9250
 2.2190	26.9160
 2.2200	26.9020
 2.2210	26.8860
 2.2220	26.8680
 2.2230	26.8460
 2.2240	26.8220
 2.2250	26.7960
 2.2260	26.7670
 2.2270	26.7380
 2.2280	26.7100
 2.2290	26.6790
 2.2300	26.6550
 2.2310	26.6140
 2.2320	26.5670
 2.2330	26.5260
 2.2340	26.4750
 2.2350	26.4110
 2.2360	26.3600
 2.2370	26.3080
 2.2380	26.2550
 2.2390	26.2080
 2.2400	26.1530
 2.2410	26.0920
 2.2420	26.0330
 2.2430	25.9750
 2.2440	25.9130
 2.2450	25.8510
 2.2460	25.7840
 2.2470	25.7140
 2.2480	25.6420
 2.2490	25.5630
 2.2500	25.4890
 2.2510	25.4130
 2.2520	25.3410
 2.2530	25.2750
 2.2540	25.2030
 2.2550	25.1230
 2.2560	25.0540
 2.2570	24.9890
 2.2580	24.9240
 2.2590	24.8670
 2.2600	24.8050
 2.2610	24.7370
 2.2620	24.6700
 2.2630	24.6150
 2.2640	24.5560
 2.2650	24.4910
 2.2660	24.4310
 2.2670	24.3730
 2.2680	24.3120
 2.2690	24.2590
 2.2700	24.2200
 2.2710	24.1670
 2.2720	24.1040
 2.2730	24.0590
 2.2740	24.0230
 2.2750	23.9800
 2.2760	23.9470
 2.2770	23.9070
 2.2780	23.8530
 2.2790	23.8150
 2.2800	23.7900
 2.2810	23.7580
 2.2820	23.7310
 2.2830	23.6970
 2.2840	23.6590
 2.2850	23.6160
 2.2860	23.5610
 2.2870	23.5170
 2.2880	23.4730
 2.2890	23.4290
 2.2900	23.3970
 2.2910	23.3560
 2.2920	23.3100
 2.2930	23.2630
 2.2940	23.2090
 2.2950	23.1560
 2.2960	23.0960
 2.2970	23.0460
 2.2980	23.0010
 2.2990	22.9640
 2.3000	22.9260
 2.3010	22.8730
 2.3020	22.8130
 2.3030	22.7470
 2.3040	22.6820
 2.3050	22.6290
 2.3060	22.5710
 2.3070	22.5180
 2.3080	22.4690
 2.3090	22.4210
 2.3100	22.3830
 2.3110	22.3440
 2.3120	22.3060
 2.3130	22.2680
 2.3140	22.2330
 2.3150	22.1970
 2.3160	22.1690
 2.3170	22.1530
 2.3180	22.1230
 2.3190	22.0930
 2.3200	22.0580
 2.3210	22.0090
 2.3220	21.9720
 2.3230	21.9440
 2.3240	21.9100
 2.3250	21.8800
 2.3260	21.8460
 2.3270	21.8100
 2.3280	21.7670
 2.3290	21.7240
 2.3300	21.6730
 2.3310	21.6070
 2.3320	21.5510
 2.3330	21.4920
 2.3340	21.4370
 2.3350	21.3910
 2.3360	21.3380
 2.3370	21.2800
 2.3380	21.2280
 2.3390	21.1770
 2.3400	21.1260
 2.3410	21.0810
 2.3420	21.0320
 2.3430	20.9770
 2.3440	20.9280
 2.3450	20.8810
 2.3460	20.8350
 2.3470	20.7950
 2.3480	20.7510
 2.3490	20.7030
 2.3500	20.6610
 2.3510	20.6230
 2.3520	20.5810
 2.3530	20.5330
 2.3540	20.5000
 2.3550	20.4700
 2.3560	20.4310
 2.3570	20.4190
 2.3580	20.3940
 2.3590	20.3530
 2.3600	20.3120
 2.3610	20.2480
 2.3620	20.1930
 2.3630	20.1380
 2.3640	20.0780
 2.3650	20.0410
 2.3660	20.0020
 2.3670	19.9600
 2.3680	19.9180
 2.3690	19.8640
 2.3700	19.8050
 2.3710	19.7350
 2.3720	19.6660
 2.3730	19.6140
 2.3740	19.5510
 2.3750	19.5120
 2.3760	19.4980
 2.3770	19.4380
 2.3780	19.3730
 2.3790	19.3160
 2.3800	19.2470
 2.3810	19.2030
 2.3820	19.1650
 2.3830	19.1200
 2.3840	19.0650
 2.3850	19.0120
 2.3860	18.9620
 2.3870	18.8910
 2.3880	18.8270
 2.3890	18.7680
 2.3900	18.7220
 2.3910	18.6900
 2.3920	18.6350
 2.3930	18.5700
 2.3940	18.4990
 2.3950	18.4230
 2.3960	18.3620
 2.3970	18.2940
 2.3980	18.2320
 2.3990	18.1850
 2.4000	18.1330
 2.4010	18.0870
 2.4020	18.0310
 2.4030	17.9560
 2.4040	17.8770
 2.4050	17.8100
 2.4060	17.7490
 2.4070	17.6890
 2.4080	17.6290
 2.4090	17.5490
 2.4100	17.4470
 2.4110	17.3460
 2.4120	17.2580
 2.4130	17.1940
 2.4140	17.1540
 2.4150	17.1070
 2.4160	17.0270
 2.4170	16.9400
 2.4180	16.8590
 2.4190	16.7540
 2.4200	16.6830
 2.4210	16.6390
 2.4220	16.5550
 2.4230	16.4640
 2.4240	16.3780
 2.4250	16.2810
 2.4260	16.1990
 2.4270	16.1510
 2.4280	16.1030
 2.4290	16.0270
 2.4300	15.9260
 2.4310	15.8320
 2.4320	15.7490
 2.4330	15.6720
 2.4340	15.6240
 2.4350	15.5670
 2.4360	15.4890
 2.4370	15.4000
 2.4380	15.2920
 2.4390	15.1920
 2.4400	15.1020
 2.4410	15.0220
 2.4420	14.9410
 2.4430	14.8630
 2.4440	14.7890
 2.4450	14.7120
 2.4460	14.6410
 2.4470	14.5640
 2.4480	14.4730
 2.4490	14.3660
 2.4500	14.3090
 2.4510	14.2490
 2.4520	14.1510
 2.4530	14.1040
 2.4540	14.0310
 2.4550	13.9210
 2.4560	13.8550
 2.4570	13.7870
 2.4580	13.6900
 2.4590	13.6370
 2.4600	13.6080
 2.4610	13.5410
 2.4620	13.4600
 2.4630	13.3830
 2.4640	13.2890
 2.4650	13.1970
 2.4660	13.1250
 2.4670	13.0640
 2.4680	13.0200
 2.4690	12.9970
 2.4700	12.9460
 2.4710	12.8460
 2.4720	12.7740
 2.4730	12.7390
 2.4740	12.6700
 2.4750	12.5840
 2.4760	12.5450
 2.4770	12.4860
 2.4780	12.4280
 2.4790	12.4420
 2.4800	12.3870
 2.4810	12.2790
 2.4820	12.2120
 2.4830	12.1430
 2.4840	12.1010
 2.4850	12.0430
 2.4860	12.0020
 2.4870	11.9610
 2.4880	11.9450
 2.4890	11.9310
 2.4900	11.9100
 2.4910	11.9360
 2.4920	11.8910
 2.4930	11.8640
 2.4940	11.8480
 2.4950	11.7160
 2.4960	11.6080
 2.4970	11.5100
 2.4980	11.3800
 2.4990	11.3830
 2.5000	11.4670
