Name: Ceanothus spinosus 2
Type: vegetation
Class: Shrub
Genus: Ceanothus
Species: spinosus
Sample No.: VH009
Owner: UCSB
Wavelength Range: VSWIR
Origin: 34.4906; -119.7908; WGS84
Collection Date: 4/1/2013
Description: Samples were collected as part of the HyspIRI Airborne Campaign. 48 individual plants were sampled in three times in 2013 - spring  summer  and fall. The name of the sample includes a 1  2  or 3 which references a different individual of the species. Samples were taken to JPL and processed within 48 hours of collection. The same leaves were processed in the Nicolet and then measured using the ASD.
Measurement: Bidirectional reflectance
First Column: X
Second Column: Y
X Units: Wavelength (micrometers)
Y Units: Reflectance (percentage)
First X Value: 0.35
Last X Value: 2.5
Number of X Values: 2151
Additional Information: vegetation.shrub.ceanothus.spinosus.vswir.vh009.ucsb.asd.ancillary.txt

 0.3500	 7.8230
 0.3510	 7.7710
 0.3520	 7.5620
 0.3530	 7.3740
 0.3540	 7.3130
 0.3550	 7.1800
 0.3560	 7.2100
 0.3570	 7.3590
 0.3580	 7.4440
 0.3590	 7.3930
 0.3600	 7.2970
 0.3610	 7.2470
 0.3620	 7.3140
 0.3630	 7.3050
 0.3640	 7.2950
 0.3650	 7.3590
 0.3660	 7.3060
 0.3670	 7.2680
 0.3680	 7.2590
 0.3690	 7.2180
 0.3700	 7.2430
 0.3710	 7.2450
 0.3720	 7.2060
 0.3730	 7.2960
 0.3740	 7.2660
 0.3750	 7.1780
 0.3760	 7.1670
 0.3770	 7.1660
 0.3780	 7.2230
 0.3790	 7.2750
 0.3800	 7.1850
 0.3810	 7.2710
 0.3820	 7.2990
 0.3830	 7.1530
 0.3840	 7.1690
 0.3850	 7.2220
 0.3860	 7.2340
 0.3870	 7.1710
 0.3880	 7.1480
 0.3890	 7.1450
 0.3900	 7.1450
 0.3910	 7.1410
 0.3920	 7.1510
 0.3930	 7.1550
 0.3940	 7.1390
 0.3950	 7.1140
 0.3960	 7.1430
 0.3970	 7.1810
 0.3980	 7.1450
 0.3990	 7.0750
 0.4000	 7.0480
 0.4010	 7.0610
 0.4020	 7.0070
 0.4030	 6.9940
 0.4040	 7.0040
 0.4050	 7.0020
 0.4060	 7.0060
 0.4070	 7.0180
 0.4080	 7.0350
 0.4090	 7.0480
 0.4100	 7.0560
 0.4110	 7.0590
 0.4120	 7.0620
 0.4130	 7.0800
 0.4140	 7.0840
 0.4150	 7.0860
 0.4160	 7.1060
 0.4170	 7.1130
 0.4180	 7.1140
 0.4190	 7.1280
 0.4200	 7.1780
 0.4210	 7.1920
 0.4220	 7.1900
 0.4230	 7.1980
 0.4240	 7.2300
 0.4250	 7.2490
 0.4260	 7.2590
 0.4270	 7.2850
 0.4280	 7.3140
 0.4290	 7.3360
 0.4300	 7.3450
 0.4310	 7.3470
 0.4320	 7.3500
 0.4330	 7.3550
 0.4340	 7.3640
 0.4350	 7.3790
 0.4360	 7.3990
 0.4370	 7.4160
 0.4380	 7.4170
 0.4390	 7.4220
 0.4400	 7.4320
 0.4410	 7.4450
 0.4420	 7.4540
 0.4430	 7.4660
 0.4440	 7.4780
 0.4450	 7.4870
 0.4460	 7.5210
 0.4470	 7.5370
 0.4480	 7.5290
 0.4490	 7.5380
 0.4500	 7.5440
 0.4510	 7.5470
 0.4520	 7.5510
 0.4530	 7.5560
 0.4540	 7.5700
 0.4550	 7.5850
 0.4560	 7.5870
 0.4570	 7.5900
 0.4580	 7.5860
 0.4590	 7.5780
 0.4600	 7.5870
 0.4610	 7.5990
 0.4620	 7.6060
 0.4630	 7.6060
 0.4640	 7.6090
 0.4650	 7.6100
 0.4660	 7.6050
 0.4670	 7.6000
 0.4680	 7.6020
 0.4690	 7.6030
 0.4700	 7.5980
 0.4710	 7.6050
 0.4720	 7.6030
 0.4730	 7.5970
 0.4740	 7.6030
 0.4750	 7.6070
 0.4760	 7.6060
 0.4770	 7.6040
 0.4780	 7.6060
 0.4790	 7.6080
 0.4800	 7.6090
 0.4810	 7.6090
 0.4820	 7.6120
 0.4830	 7.6180
 0.4840	 7.6220
 0.4850	 7.6210
 0.4860	 7.6210
 0.4870	 7.6240
 0.4880	 7.6310
 0.4890	 7.6410
 0.4900	 7.6550
 0.4910	 7.6720
 0.4920	 7.6900
 0.4930	 7.7030
 0.4940	 7.7110
 0.4950	 7.7210
 0.4960	 7.7520
 0.4970	 7.7730
 0.4980	 7.7900
 0.4990	 7.8140
 0.5000	 7.8490
 0.5010	 7.8740
 0.5020	 7.8930
 0.5030	 7.9310
 0.5040	 7.9700
 0.5050	 8.0060
 0.5060	 8.0440
 0.5070	 8.0940
 0.5080	 8.1510
 0.5090	 8.2110
 0.5100	 8.2700
 0.5110	 8.3370
 0.5120	 8.4190
 0.5130	 8.5110
 0.5140	 8.6010
 0.5150	 8.6970
 0.5160	 8.8020
 0.5170	 8.9180
 0.5180	 9.0400
 0.5190	 9.1680
 0.5200	 9.2990
 0.5210	 9.4310
 0.5220	 9.5690
 0.5230	 9.7080
 0.5240	 9.8440
 0.5250	 9.9890
 0.5260	10.1300
 0.5270	10.2580
 0.5280	10.3710
 0.5290	10.4870
 0.5300	10.5970
 0.5310	10.6960
 0.5320	10.7860
 0.5330	10.8720
 0.5340	10.9480
 0.5350	11.0110
 0.5360	11.0730
 0.5370	11.1280
 0.5380	11.1740
 0.5390	11.2090
 0.5400	11.2450
 0.5410	11.2760
 0.5420	11.2980
 0.5430	11.3250
 0.5440	11.3550
 0.5450	11.3840
 0.5460	11.4090
 0.5470	11.4380
 0.5480	11.4660
 0.5490	11.4890
 0.5500	11.5060
 0.5510	11.5170
 0.5520	11.5200
 0.5530	11.5170
 0.5540	11.5070
 0.5550	11.4910
 0.5560	11.4670
 0.5570	11.4340
 0.5580	11.3890
 0.5590	11.3340
 0.5600	11.2730
 0.5610	11.2050
 0.5620	11.1270
 0.5630	11.0420
 0.5640	10.9560
 0.5650	10.8660
 0.5660	10.7690
 0.5670	10.6700
 0.5680	10.5740
 0.5690	10.4790
 0.5700	10.3840
 0.5710	10.2900
 0.5720	10.2020
 0.5730	10.1130
 0.5740	10.0240
 0.5750	 9.9410
 0.5760	 9.8670
 0.5770	 9.7930
 0.5780	 9.7180
 0.5790	 9.6550
 0.5800	 9.5960
 0.5810	 9.5440
 0.5820	 9.5000
 0.5830	 9.4580
 0.5840	 9.4220
 0.5850	 9.3930
 0.5860	 9.3670
 0.5870	 9.3410
 0.5880	 9.3160
 0.5890	 9.2920
 0.5900	 9.2700
 0.5910	 9.2470
 0.5920	 9.2250
 0.5930	 9.2030
 0.5940	 9.1900
 0.5950	 9.1790
 0.5960	 9.1670
 0.5970	 9.1620
 0.5980	 9.1520
 0.5990	 9.1390
 0.6000	 9.1270
 0.6010	 9.1140
 0.6020	 9.0990
 0.6030	 9.0790
 0.6040	 9.0500
 0.6050	 9.0200
 0.6060	 8.9890
 0.6070	 8.9550
 0.6080	 8.9210
 0.6090	 8.8800
 0.6100	 8.8310
 0.6110	 8.7800
 0.6120	 8.7430
 0.6130	 8.7140
 0.6140	 8.6870
 0.6150	 8.6560
 0.6160	 8.6250
 0.6170	 8.5950
 0.6180	 8.5640
 0.6190	 8.5400
 0.6200	 8.5200
 0.6210	 8.5010
 0.6220	 8.4820
 0.6230	 8.4630
 0.6240	 8.4460
 0.6250	 8.4340
 0.6260	 8.4220
 0.6270	 8.4130
 0.6280	 8.4070
 0.6290	 8.4010
 0.6300	 8.3980
 0.6310	 8.3930
 0.6320	 8.3850
 0.6330	 8.3730
 0.6340	 8.3620
 0.6350	 8.3480
 0.6360	 8.3300
 0.6370	 8.3120
 0.6380	 8.2900
 0.6390	 8.2640
 0.6400	 8.2330
 0.6410	 8.1990
 0.6420	 8.1650
 0.6430	 8.1300
 0.6440	 8.0980
 0.6450	 8.0640
 0.6460	 8.0320
 0.6470	 8.0060
 0.6480	 7.9800
 0.6490	 7.9530
 0.6500	 7.9270
 0.6510	 7.9070
 0.6520	 7.8900
 0.6530	 7.8740
 0.6540	 7.8560
 0.6550	 7.8380
 0.6560	 7.8160
 0.6570	 7.7960
 0.6580	 7.7820
 0.6590	 7.7570
 0.6600	 7.7330
 0.6610	 7.7140
 0.6620	 7.6930
 0.6630	 7.6730
 0.6640	 7.6580
 0.6650	 7.6490
 0.6660	 7.6370
 0.6670	 7.6300
 0.6680	 7.6290
 0.6690	 7.6330
 0.6700	 7.6360
 0.6710	 7.6410
 0.6720	 7.6490
 0.6730	 7.6580
 0.6740	 7.6730
 0.6750	 7.6920
 0.6760	 7.7100
 0.6770	 7.7350
 0.6780	 7.7610
 0.6790	 7.7890
 0.6800	 7.8200
 0.6810	 7.8550
 0.6820	 7.8950
 0.6830	 7.9360
 0.6840	 7.9810
 0.6850	 8.0310
 0.6860	 8.0900
 0.6870	 8.1600
 0.6880	 8.2380
 0.6890	 8.3300
 0.6900	 8.4440
 0.6910	 8.5830
 0.6920	 8.7450
 0.6930	 8.9430
 0.6940	 9.1810
 0.6950	 9.4570
 0.6960	 9.7830
 0.6970	10.1620
 0.6980	10.5900
 0.6990	11.0740
 0.7000	11.6130
 0.7010	12.2010
 0.7020	12.8370
 0.7030	13.5170
 0.7040	14.2330
 0.7050	14.9780
 0.7060	15.7480
 0.7070	16.5430
 0.7080	17.3560
 0.7090	18.1840
 0.7100	19.0220
 0.7110	19.8680
 0.7120	20.7210
 0.7130	21.5820
 0.7140	22.4370
 0.7150	23.2860
 0.7160	24.1340
 0.7170	24.9750
 0.7180	25.8060
 0.7190	26.6240
 0.7200	27.4290
 0.7210	28.2160
 0.7220	28.9860
 0.7230	29.7370
 0.7240	30.4650
 0.7250	31.1650
 0.7260	31.8400
 0.7270	32.4910
 0.7280	33.1170
 0.7290	33.7090
 0.7300	34.2740
 0.7310	34.8190
 0.7320	35.3370
 0.7330	35.8260
 0.7340	36.2860
 0.7350	36.7180
 0.7360	37.1310
 0.7370	37.5180
 0.7380	37.8780
 0.7390	38.2180
 0.7400	38.5430
 0.7410	38.8450
 0.7420	39.1190
 0.7430	39.3770
 0.7440	39.6230
 0.7450	39.8520
 0.7460	40.0530
 0.7470	40.2430
 0.7480	40.4210
 0.7490	40.5830
 0.7500	40.7270
 0.7510	40.8610
 0.7520	40.9850
 0.7530	41.0950
 0.7540	41.1950
 0.7550	41.2850
 0.7560	41.3670
 0.7570	41.4450
 0.7580	41.5140
 0.7590	41.5790
 0.7600	41.6410
 0.7610	41.6950
 0.7620	41.7420
 0.7630	41.7870
 0.7640	41.8310
 0.7650	41.8650
 0.7660	41.8880
 0.7670	41.9110
 0.7680	41.9460
 0.7690	41.9760
 0.7700	41.9970
 0.7710	42.0130
 0.7720	42.0350
 0.7730	42.0560
 0.7740	42.0770
 0.7750	42.0970
 0.7760	42.1120
 0.7770	42.1270
 0.7780	42.1420
 0.7790	42.1510
 0.7800	42.1710
 0.7810	42.1900
 0.7820	42.2040
 0.7830	42.2190
 0.7840	42.2300
 0.7850	42.2410
 0.7860	42.2570
 0.7870	42.2780
 0.7880	42.2910
 0.7890	42.2970
 0.7900	42.3070
 0.7910	42.3130
 0.7920	42.3200
 0.7930	42.3320
 0.7940	42.3460
 0.7950	42.3540
 0.7960	42.3540
 0.7970	42.3520
 0.7980	42.3620
 0.7990	42.3720
 0.8000	42.3740
 0.8010	42.3700
 0.8020	42.3760
 0.8030	42.3780
 0.8040	42.3760
 0.8050	42.3790
 0.8060	42.3740
 0.8070	42.3740
 0.8080	42.3770
 0.8090	42.3670
 0.8100	42.3620
 0.8110	42.3560
 0.8120	42.3480
 0.8130	42.3430
 0.8140	42.3330
 0.8150	42.3220
 0.8160	42.3150
 0.8170	42.3070
 0.8180	42.2940
 0.8190	42.2820
 0.8200	42.2760
 0.8210	42.2620
 0.8220	42.2440
 0.8230	42.2300
 0.8240	42.2270
 0.8250	42.2110
 0.8260	42.1900
 0.8270	42.1730
 0.8280	42.1640
 0.8290	42.1540
 0.8300	42.1420
 0.8310	42.1270
 0.8320	42.1070
 0.8330	42.0880
 0.8340	42.0730
 0.8350	42.0570
 0.8360	42.0490
 0.8370	42.0380
 0.8380	42.0230
 0.8390	42.0100
 0.8400	42.0010
 0.8410	41.9890
 0.8420	41.9760
 0.8430	41.9740
 0.8440	41.9650
 0.8450	41.9540
 0.8460	41.9470
 0.8470	41.9390
 0.8480	41.9350
 0.8490	41.9300
 0.8500	41.9200
 0.8510	41.9210
 0.8520	41.9170
 0.8530	41.9080
 0.8540	41.9040
 0.8550	41.9020
 0.8560	41.9020
 0.8570	41.9010
 0.8580	41.8980
 0.8590	41.8930
 0.8600	41.8870
 0.8610	41.8820
 0.8620	41.8850
 0.8630	41.8830
 0.8640	41.8780
 0.8650	41.8750
 0.8660	41.8840
 0.8670	41.8920
 0.8680	41.8910
 0.8690	41.8830
 0.8700	41.8890
 0.8710	41.8940
 0.8720	41.8970
 0.8730	41.9040
 0.8740	41.9130
 0.8750	41.9180
 0.8760	41.9190
 0.8770	41.9220
 0.8780	41.9260
 0.8790	41.9300
 0.8800	41.9350
 0.8810	41.9440
 0.8820	41.9450
 0.8830	41.9490
 0.8840	41.9590
 0.8850	41.9650
 0.8860	41.9680
 0.8870	41.9730
 0.8880	41.9860
 0.8890	41.9840
 0.8900	41.9860
 0.8910	41.9930
 0.8920	41.9960
 0.8930	42.0100
 0.8940	42.0220
 0.8950	42.0250
 0.8960	42.0170
 0.8970	42.0310
 0.8980	42.0430
 0.8990	42.0460
 0.9000	42.0510
 0.9010	42.0600
 0.9020	42.0630
 0.9030	42.0610
 0.9040	42.0690
 0.9050	42.0790
 0.9060	42.0860
 0.9070	42.0870
 0.9080	42.0930
 0.9090	42.1030
 0.9100	42.1140
 0.9110	42.1200
 0.9120	42.1150
 0.9130	42.1100
 0.9140	42.1140
 0.9150	42.1300
 0.9160	42.1280
 0.9170	42.1320
 0.9180	42.1420
 0.9190	42.1440
 0.9200	42.1450
 0.9210	42.1430
 0.9220	42.1400
 0.9230	42.1380
 0.9240	42.1240
 0.9250	42.1170
 0.9260	42.1170
 0.9270	42.1090
 0.9280	42.0980
 0.9290	42.0840
 0.9300	42.0700
 0.9310	42.0600
 0.9320	42.0430
 0.9330	42.0260
 0.9340	42.0110
 0.9350	41.9870
 0.9360	41.9680
 0.9370	41.9540
 0.9380	41.9390
 0.9390	41.9050
 0.9400	41.8810
 0.9410	41.8640
 0.9420	41.8430
 0.9430	41.8060
 0.9440	41.7780
 0.9450	41.7480
 0.9460	41.7060
 0.9470	41.6650
 0.9480	41.6220
 0.9490	41.5770
 0.9500	41.5270
 0.9510	41.4750
 0.9520	41.4190
 0.9530	41.3550
 0.9540	41.2880
 0.9550	41.2340
 0.9560	41.1810
 0.9570	41.1310
 0.9580	41.0860
 0.9590	41.0190
 0.9600	40.9680
 0.9610	40.9280
 0.9620	40.8870
 0.9630	40.8500
 0.9640	40.8330
 0.9650	40.8150
 0.9660	40.7740
 0.9670	40.7560
 0.9680	40.7360
 0.9690	40.7150
 0.9700	40.7000
 0.9710	40.6870
 0.9720	40.6800
 0.9730	40.6720
 0.9740	40.6570
 0.9750	40.6460
 0.9760	40.6340
 0.9770	40.6230
 0.9780	40.6200
 0.9790	40.6250
 0.9800	40.6350
 0.9810	40.6360
 0.9820	40.6190
 0.9830	40.6200
 0.9840	40.6250
 0.9850	40.6390
 0.9860	40.6670
 0.9870	40.6700
 0.9880	40.6760
 0.9890	40.6890
 0.9900	40.6990
 0.9910	40.7280
 0.9920	40.7880
 0.9930	40.8490
 0.9940	40.9090
 0.9950	40.9690
 0.9960	41.0290
 0.9970	41.0890
 0.9980	41.1490
 0.9990	41.2090
 1.0000	41.2690
 1.0010	41.3290
 1.0020	41.3890
 1.0030	41.4490
 1.0040	41.5100
 1.0050	41.5700
 1.0060	41.6300
 1.0070	41.6900
 1.0080	41.7500
 1.0090	41.8100
 1.0100	41.8100
 1.0110	41.8210
 1.0120	41.8340
 1.0130	41.8440
 1.0140	41.8550
 1.0150	41.8630
 1.0160	41.8770
 1.0170	41.8920
 1.0180	41.9090
 1.0190	41.9300
 1.0200	41.9490
 1.0210	41.9620
 1.0220	41.9760
 1.0230	41.9900
 1.0240	42.0040
 1.0250	42.0180
 1.0260	42.0320
 1.0270	42.0440
 1.0280	42.0520
 1.0290	42.0640
 1.0300	42.0760
 1.0310	42.0900
 1.0320	42.1090
 1.0330	42.1240
 1.0340	42.1360
 1.0350	42.1480
 1.0360	42.1590
 1.0370	42.1700
 1.0380	42.1840
 1.0390	42.2030
 1.0400	42.2170
 1.0410	42.2270
 1.0420	42.2400
 1.0430	42.2520
 1.0440	42.2630
 1.0450	42.2740
 1.0460	42.2830
 1.0470	42.2860
 1.0480	42.2930
 1.0490	42.3010
 1.0500	42.3090
 1.0510	42.3170
 1.0520	42.3260
 1.0530	42.3340
 1.0540	42.3400
 1.0550	42.3470
 1.0560	42.3550
 1.0570	42.3580
 1.0580	42.3560
 1.0590	42.3560
 1.0600	42.3510
 1.0610	42.3510
 1.0620	42.3540
 1.0630	42.3560
 1.0640	42.3610
 1.0650	42.3620
 1.0660	42.3590
 1.0670	42.3580
 1.0680	42.3570
 1.0690	42.3550
 1.0700	42.3530
 1.0710	42.3530
 1.0720	42.3480
 1.0730	42.3380
 1.0740	42.3320
 1.0750	42.3250
 1.0760	42.3200
 1.0770	42.3170
 1.0780	42.3130
 1.0790	42.3090
 1.0800	42.3040
 1.0810	42.2990
 1.0820	42.2930
 1.0830	42.2850
 1.0840	42.2760
 1.0850	42.2670
 1.0860	42.2570
 1.0870	42.2470
 1.0880	42.2360
 1.0890	42.2260
 1.0900	42.2160
 1.0910	42.2060
 1.0920	42.1970
 1.0930	42.1870
 1.0940	42.1740
 1.0950	42.1630
 1.0960	42.1510
 1.0970	42.1410
 1.0980	42.1330
 1.0990	42.1230
 1.1000	42.1140
 1.1010	42.1030
 1.1020	42.0920
 1.1030	42.0800
 1.1040	42.0680
 1.1050	42.0580
 1.1060	42.0470
 1.1070	42.0360
 1.1080	42.0240
 1.1090	42.0120
 1.1100	42.0010
 1.1110	41.9900
 1.1120	41.9770
 1.1130	41.9640
 1.1140	41.9480
 1.1150	41.9290
 1.1160	41.9100
 1.1170	41.8930
 1.1180	41.8710
 1.1190	41.8490
 1.1200	41.8240
 1.1210	41.7960
 1.1220	41.7650
 1.1230	41.7310
 1.1240	41.6950
 1.1250	41.6540
 1.1260	41.6100
 1.1270	41.5620
 1.1280	41.5110
 1.1290	41.4520
 1.1300	41.3900
 1.1310	41.3210
 1.1320	41.2460
 1.1330	41.1650
 1.1340	41.0780
 1.1350	40.9860
 1.1360	40.8880
 1.1370	40.7830
 1.1380	40.6740
 1.1390	40.5590
 1.1400	40.4400
 1.1410	40.3170
 1.1420	40.1920
 1.1430	40.0650
 1.1440	39.9380
 1.1450	39.8070
 1.1460	39.6820
 1.1470	39.5580
 1.1480	39.4400
 1.1490	39.3260
 1.1500	39.2190
 1.1510	39.1130
 1.1520	39.0180
 1.1530	38.9310
 1.1540	38.8500
 1.1550	38.7760
 1.1560	38.7090
 1.1570	38.6500
 1.1580	38.5990
 1.1590	38.5540
 1.1600	38.5160
 1.1610	38.4820
 1.1620	38.4530
 1.1630	38.4300
 1.1640	38.4090
 1.1650	38.3900
 1.1660	38.3750
 1.1670	38.3630
 1.1680	38.3550
 1.1690	38.3470
 1.1700	38.3420
 1.1710	38.3360
 1.1720	38.3300
 1.1730	38.3240
 1.1740	38.3190
 1.1750	38.3130
 1.1760	38.3080
 1.1770	38.3000
 1.1780	38.2920
 1.1790	38.2850
 1.1800	38.2750
 1.1810	38.2660
 1.1820	38.2570
 1.1830	38.2490
 1.1840	38.2430
 1.1850	38.2370
 1.1860	38.2310
 1.1870	38.2240
 1.1880	38.2180
 1.1890	38.2110
 1.1900	38.2060
 1.1910	38.2000
 1.1920	38.1970
 1.1930	38.1940
 1.1940	38.1940
 1.1950	38.1960
 1.1960	38.1990
 1.1970	38.2040
 1.1980	38.2100
 1.1990	38.2170
 1.2000	38.2240
 1.2010	38.2330
 1.2020	38.2420
 1.2030	38.2500
 1.2040	38.2610
 1.2050	38.2740
 1.2060	38.2870
 1.2070	38.3000
 1.2080	38.3170
 1.2090	38.3330
 1.2100	38.3480
 1.2110	38.3640
 1.2120	38.3800
 1.2130	38.3960
 1.2140	38.4120
 1.2150	38.4300
 1.2160	38.4510
 1.2170	38.4700
 1.2180	38.4890
 1.2190	38.5090
 1.2200	38.5260
 1.2210	38.5450
 1.2220	38.5630
 1.2230	38.5790
 1.2240	38.5970
 1.2250	38.6140
 1.2260	38.6310
 1.2270	38.6500
 1.2280	38.6650
 1.2290	38.6800
 1.2300	38.6960
 1.2310	38.7120
 1.2320	38.7280
 1.2330	38.7420
 1.2340	38.7550
 1.2350	38.7670
 1.2360	38.7800
 1.2370	38.7920
 1.2380	38.8060
 1.2390	38.8190
 1.2400	38.8320
 1.2410	38.8440
 1.2420	38.8550
 1.2430	38.8650
 1.2440	38.8740
 1.2450	38.8820
 1.2460	38.8900
 1.2470	38.8990
 1.2480	38.9060
 1.2490	38.9120
 1.2500	38.9200
 1.2510	38.9260
 1.2520	38.9320
 1.2530	38.9380
 1.2540	38.9410
 1.2550	38.9430
 1.2560	38.9450
 1.2570	38.9460
 1.2580	38.9480
 1.2590	38.9480
 1.2600	38.9470
 1.2610	38.9470
 1.2620	38.9460
 1.2630	38.9430
 1.2640	38.9390
 1.2650	38.9340
 1.2660	38.9290
 1.2670	38.9220
 1.2680	38.9180
 1.2690	38.9130
 1.2700	38.9050
 1.2710	38.8970
 1.2720	38.8870
 1.2730	38.8770
 1.2740	38.8690
 1.2750	38.8600
 1.2760	38.8500
 1.2770	38.8380
 1.2780	38.8250
 1.2790	38.8110
 1.2800	38.7960
 1.2810	38.7810
 1.2820	38.7650
 1.2830	38.7450
 1.2840	38.7230
 1.2850	38.7000
 1.2860	38.6750
 1.2870	38.6480
 1.2880	38.6190
 1.2890	38.5900
 1.2900	38.5580
 1.2910	38.5230
 1.2920	38.4880
 1.2930	38.4510
 1.2940	38.4100
 1.2950	38.3690
 1.2960	38.3230
 1.2970	38.2710
 1.2980	38.2170
 1.2990	38.1620
 1.3000	38.1070
 1.3010	38.0510
 1.3020	37.9920
 1.3030	37.9300
 1.3040	37.8640
 1.3050	37.7950
 1.3060	37.7280
 1.3070	37.6570
 1.3080	37.5840
 1.3090	37.5100
 1.3100	37.4330
 1.3110	37.3540
 1.3120	37.2730
 1.3130	37.1900
 1.3140	37.1030
 1.3150	37.0140
 1.3160	36.9220
 1.3170	36.8280
 1.3180	36.7310
 1.3190	36.6320
 1.3200	36.5300
 1.3210	36.4270
 1.3220	36.3220
 1.3230	36.2140
 1.3240	36.1060
 1.3250	35.9980
 1.3260	35.8860
 1.3270	35.7720
 1.3280	35.6540
 1.3290	35.5340
 1.3300	35.4120
 1.3310	35.2900
 1.3320	35.1680
 1.3330	35.0470
 1.3340	34.9250
 1.3350	34.8010
 1.3360	34.6760
 1.3370	34.5490
 1.3380	34.4230
 1.3390	34.2960
 1.3400	34.1690
 1.3410	34.0430
 1.3420	33.9170
 1.3430	33.7930
 1.3440	33.6690
 1.3450	33.5470
 1.3460	33.4250
 1.3470	33.3050
 1.3480	33.1840
 1.3490	33.0660
 1.3500	32.9500
 1.3510	32.8330
 1.3520	32.7160
 1.3530	32.5990
 1.3540	32.4810
 1.3550	32.3610
 1.3560	32.2420
 1.3570	32.1230
 1.3580	32.0010
 1.3590	31.8770
 1.3600	31.7500
 1.3610	31.6190
 1.3620	31.4840
 1.3630	31.3460
 1.3640	31.2030
 1.3650	31.0530
 1.3660	30.8970
 1.3670	30.7320
 1.3680	30.5570
 1.3690	30.3720
 1.3700	30.1750
 1.3710	29.9680
 1.3720	29.7490
 1.3730	29.5160
 1.3740	29.2680
 1.3750	29.0040
 1.3760	28.7200
 1.3770	28.4190
 1.3780	28.0970
 1.3790	27.7580
 1.3800	27.4010
 1.3810	27.0220
 1.3820	26.6290
 1.3830	26.2210
 1.3840	25.7980
 1.3850	25.3610
 1.3860	24.9110
 1.3870	24.4430
 1.3880	23.9730
 1.3890	23.4920
 1.3900	23.0050
 1.3910	22.5200
 1.3920	22.0340
 1.3930	21.5440
 1.3940	21.0610
 1.3950	20.5780
 1.3960	20.1040
 1.3970	19.6410
 1.3980	19.1890
 1.3990	18.7550
 1.4000	18.3370
 1.4010	17.9330
 1.4020	17.5480
 1.4030	17.1770
 1.4040	16.8250
 1.4050	16.4930
 1.4060	16.1800
 1.4070	15.8890
 1.4080	15.6160
 1.4090	15.3600
 1.4100	15.1240
 1.4110	14.9030
 1.4120	14.6990
 1.4130	14.5120
 1.4140	14.3390
 1.4150	14.1830
 1.4160	14.0410
 1.4170	13.9100
 1.4180	13.7910
 1.4190	13.6820
 1.4200	13.5830
 1.4210	13.4950
 1.4220	13.4160
 1.4230	13.3460
 1.4240	13.2850
 1.4250	13.2290
 1.4260	13.1810
 1.4270	13.1380
 1.4280	13.1010
 1.4290	13.0690
 1.4300	13.0430
 1.4310	13.0200
 1.4320	13.0040
 1.4330	12.9910
 1.4340	12.9830
 1.4350	12.9770
 1.4360	12.9760
 1.4370	12.9770
 1.4380	12.9800
 1.4390	12.9870
 1.4400	12.9960
 1.4410	13.0070
 1.4420	13.0210
 1.4430	13.0350
 1.4440	13.0510
 1.4450	13.0690
 1.4460	13.0870
 1.4470	13.1060
 1.4480	13.1260
 1.4490	13.1460
 1.4500	13.1660
 1.4510	13.1880
 1.4520	13.2110
 1.4530	13.2340
 1.4540	13.2600
 1.4550	13.2870
 1.4560	13.3140
 1.4570	13.3430
 1.4580	13.3750
 1.4590	13.4080
 1.4600	13.4460
 1.4610	13.4860
 1.4620	13.5300
 1.4630	13.5770
 1.4640	13.6260
 1.4650	13.6780
 1.4660	13.7340
 1.4670	13.7930
 1.4680	13.8570
 1.4690	13.9250
 1.4700	13.9960
 1.4710	14.0710
 1.4720	14.1480
 1.4730	14.2270
 1.4740	14.3090
 1.4750	14.3940
 1.4760	14.4820
 1.4770	14.5710
 1.4780	14.6630
 1.4790	14.7580
 1.4800	14.8520
 1.4810	14.9480
 1.4820	15.0450
 1.4830	15.1420
 1.4840	15.2410
 1.4850	15.3410
 1.4860	15.4430
 1.4870	15.5460
 1.4880	15.6480
 1.4890	15.7500
 1.4900	15.8510
 1.4910	15.9520
 1.4920	16.0540
 1.4930	16.1590
 1.4940	16.2630
 1.4950	16.3680
 1.4960	16.4720
 1.4970	16.5750
 1.4980	16.6780
 1.4990	16.7820
 1.5000	16.8860
 1.5010	16.9900
 1.5020	17.0940
 1.5030	17.1970
 1.5040	17.3000
 1.5050	17.4030
 1.5060	17.5060
 1.5070	17.6100
 1.5080	17.7120
 1.5090	17.8150
 1.5100	17.9170
 1.5110	18.0170
 1.5120	18.1170
 1.5130	18.2150
 1.5140	18.3140
 1.5150	18.4130
 1.5160	18.5110
 1.5170	18.6090
 1.5180	18.7060
 1.5190	18.8020
 1.5200	18.8980
 1.5210	18.9920
 1.5220	19.0860
 1.5230	19.1800
 1.5240	19.2710
 1.5250	19.3640
 1.5260	19.4540
 1.5270	19.5440
 1.5280	19.6350
 1.5290	19.7220
 1.5300	19.8090
 1.5310	19.8950
 1.5320	19.9800
 1.5330	20.0670
 1.5340	20.1530
 1.5350	20.2380
 1.5360	20.3240
 1.5370	20.4060
 1.5380	20.4880
 1.5390	20.5690
 1.5400	20.6490
 1.5410	20.7290
 1.5420	20.8080
 1.5430	20.8860
 1.5440	20.9630
 1.5450	21.0400
 1.5460	21.1160
 1.5470	21.1920
 1.5480	21.2670
 1.5490	21.3410
 1.5500	21.4150
 1.5510	21.4860
 1.5520	21.5590
 1.5530	21.6300
 1.5540	21.7000
 1.5550	21.7710
 1.5560	21.8390
 1.5570	21.9070
 1.5580	21.9740
 1.5590	22.0410
 1.5600	22.1070
 1.5610	22.1720
 1.5620	22.2370
 1.5630	22.3010
 1.5640	22.3640
 1.5650	22.4260
 1.5660	22.4880
 1.5670	22.5480
 1.5680	22.6090
 1.5690	22.6680
 1.5700	22.7280
 1.5710	22.7860
 1.5720	22.8430
 1.5730	22.9010
 1.5740	22.9580
 1.5750	23.0140
 1.5760	23.0720
 1.5770	23.1280
 1.5780	23.1850
 1.5790	23.2420
 1.5800	23.2970
 1.5810	23.3510
 1.5820	23.4050
 1.5830	23.4570
 1.5840	23.5100
 1.5850	23.5630
 1.5860	23.6170
 1.5870	23.6710
 1.5880	23.7230
 1.5890	23.7730
 1.5900	23.8240
 1.5910	23.8730
 1.5920	23.9210
 1.5930	23.9710
 1.5940	24.0190
 1.5950	24.0660
 1.5960	24.1150
 1.5970	24.1620
 1.5980	24.2080
 1.5990	24.2560
 1.6000	24.3010
 1.6010	24.3460
 1.6020	24.3910
 1.6030	24.4330
 1.6040	24.4750
 1.6050	24.5180
 1.6060	24.5620
 1.6070	24.6040
 1.6080	24.6450
 1.6090	24.6850
 1.6100	24.7240
 1.6110	24.7640
 1.6120	24.8040
 1.6130	24.8420
 1.6140	24.8800
 1.6150	24.9160
 1.6160	24.9530
 1.6170	24.9900
 1.6180	25.0240
 1.6190	25.0570
 1.6200	25.0910
 1.6210	25.1250
 1.6220	25.1590
 1.6230	25.1920
 1.6240	25.2240
 1.6250	25.2540
 1.6260	25.2840
 1.6270	25.3130
 1.6280	25.3440
 1.6290	25.3710
 1.6300	25.3960
 1.6310	25.4220
 1.6320	25.4460
 1.6330	25.4710
 1.6340	25.4980
 1.6350	25.5220
 1.6360	25.5460
 1.6370	25.5670
 1.6380	25.5830
 1.6390	25.6000
 1.6400	25.6140
 1.6410	25.6280
 1.6420	25.6420
 1.6430	25.6540
 1.6440	25.6640
 1.6450	25.6720
 1.6460	25.6800
 1.6470	25.6850
 1.6480	25.6870
 1.6490	25.6880
 1.6500	25.6870
 1.6510	25.6860
 1.6520	25.6830
 1.6530	25.6790
 1.6540	25.6750
 1.6550	25.6680
 1.6560	25.6600
 1.6570	25.6530
 1.6580	25.6450
 1.6590	25.6370
 1.6600	25.6290
 1.6610	25.6240
 1.6620	25.6180
 1.6630	25.6120
 1.6640	25.6090
 1.6650	25.6040
 1.6660	25.6000
 1.6670	25.5960
 1.6680	25.5900
 1.6690	25.5820
 1.6700	25.5750
 1.6710	25.5680
 1.6720	25.5610
 1.6730	25.5540
 1.6740	25.5460
 1.6750	25.5350
 1.6760	25.5230
 1.6770	25.5110
 1.6780	25.4950
 1.6790	25.4780
 1.6800	25.4590
 1.6810	25.4370
 1.6820	25.4140
 1.6830	25.3880
 1.6840	25.3630
 1.6850	25.3380
 1.6860	25.3110
 1.6870	25.2850
 1.6880	25.2560
 1.6890	25.2250
 1.6900	25.1950
 1.6910	25.1670
 1.6920	25.1390
 1.6930	25.1110
 1.6940	25.0810
 1.6950	25.0490
 1.6960	25.0180
 1.6970	24.9860
 1.6980	24.9550
 1.6990	24.9230
 1.7000	24.8910
 1.7010	24.8600
 1.7020	24.8290
 1.7030	24.7980
 1.7040	24.7650
 1.7050	24.7310
 1.7060	24.6970
 1.7070	24.6600
 1.7080	24.6250
 1.7090	24.5900
 1.7100	24.5550
 1.7110	24.5190
 1.7120	24.4840
 1.7130	24.4460
 1.7140	24.4070
 1.7150	24.3680
 1.7160	24.3290
 1.7170	24.2900
 1.7180	24.2510
 1.7190	24.2120
 1.7200	24.1690
 1.7210	24.1260
 1.7220	24.0800
 1.7230	24.0350
 1.7240	23.9910
 1.7250	23.9460
 1.7260	23.9020
 1.7270	23.8580
 1.7280	23.8110
 1.7290	23.7660
 1.7300	23.7210
 1.7310	23.6770
 1.7320	23.6350
 1.7330	23.5920
 1.7340	23.5510
 1.7350	23.5070
 1.7360	23.4620
 1.7370	23.4170
 1.7380	23.3720
 1.7390	23.3270
 1.7400	23.2820
 1.7410	23.2360
 1.7420	23.1900
 1.7430	23.1430
 1.7440	23.0970
 1.7450	23.0490
 1.7460	22.9990
 1.7470	22.9480
 1.7480	22.8950
 1.7490	22.8440
 1.7500	22.7940
 1.7510	22.7430
 1.7520	22.6930
 1.7530	22.6440
 1.7540	22.5930
 1.7550	22.5460
 1.7560	22.4980
 1.7570	22.4530
 1.7580	22.4070
 1.7590	22.3580
 1.7600	22.3140
 1.7610	22.2670
 1.7620	22.2220
 1.7630	22.1770
 1.7640	22.1340
 1.7650	22.0930
 1.7660	22.0520
 1.7670	22.0120
 1.7680	21.9710
 1.7690	21.9290
 1.7700	21.8900
 1.7710	21.8530
 1.7720	21.8160
 1.7730	21.7800
 1.7740	21.7460
 1.7750	21.7100
 1.7760	21.6770
 1.7770	21.6460
 1.7780	21.6160
 1.7790	21.5880
 1.7800	21.5620
 1.7810	21.5410
 1.7820	21.5180
 1.7830	21.4960
 1.7840	21.4750
 1.7850	21.4550
 1.7860	21.4370
 1.7870	21.4200
 1.7880	21.4040
 1.7890	21.3890
 1.7900	21.3770
 1.7910	21.3660
 1.7920	21.3560
 1.7930	21.3480
 1.7940	21.3420
 1.7950	21.3360
 1.7960	21.3330
 1.7970	21.3280
 1.7980	21.3190
 1.7990	21.3160
 1.8000	21.3150
 1.8010	21.3120
 1.8020	21.3120
 1.8030	21.3110
 1.8040	21.3070
 1.8050	21.3050
 1.8060	21.3030
 1.8070	21.3020
 1.8080	21.3000
 1.8090	21.2990
 1.8100	21.2990
 1.8110	21.2990
 1.8120	21.2970
 1.8130	21.2940
 1.8140	21.2890
 1.8150	21.2840
 1.8160	21.2810
 1.8170	21.2770
 1.8180	21.2740
 1.8190	21.2690
 1.8200	21.2620
 1.8210	21.2530
 1.8220	21.2450
 1.8230	21.2370
 1.8240	21.2260
 1.8250	21.2140
 1.8260	21.2000
 1.8270	21.2160
 1.8280	21.2330
 1.8290	21.2490
 1.8300	21.2650
 1.8310	21.2810
 1.8320	21.2970
 1.8330	21.3130
 1.8340	21.3290
 1.8350	21.3290
 1.8360	21.2910
 1.8370	21.2480
 1.8380	21.2030
 1.8390	21.1510
 1.8400	21.0960
 1.8410	21.0330
 1.8420	20.9660
 1.8430	20.8900
 1.8440	20.8090
 1.8450	20.7270
 1.8460	20.6400
 1.8470	20.5490
 1.8480	20.4490
 1.8490	20.3380
 1.8500	20.2180
 1.8510	20.0870
 1.8520	19.9460
 1.8530	19.7990
 1.8540	19.6450
 1.8550	19.4780
 1.8560	19.3030
 1.8570	19.1170
 1.8580	18.9180
 1.8590	18.7090
 1.8600	18.4910
 1.8610	18.2610
 1.8620	18.0180
 1.8630	17.7650
 1.8640	17.4990
 1.8650	17.2170
 1.8660	16.9200
 1.8670	16.6070
 1.8680	16.2820
 1.8690	15.9440
 1.8700	15.5960
 1.8710	15.2360
 1.8720	14.8720
 1.8730	14.4980
 1.8740	14.1200
 1.8750	13.7420
 1.8760	13.3560
 1.8770	12.9720
 1.8780	12.5910
 1.8790	12.2110
 1.8800	11.8410
 1.8810	11.4800
 1.8820	11.1240
 1.8830	10.7760
 1.8840	10.4400
 1.8850	10.1130
 1.8860	 9.7990
 1.8870	 9.5020
 1.8880	 9.2180
 1.8890	 8.9520
 1.8900	 8.7020
 1.8910	 8.4700
 1.8920	 8.2540
 1.8930	 8.0590
 1.8940	 7.8800
 1.8950	 7.7180
 1.8960	 7.5730
 1.8970	 7.4420
 1.8980	 7.3250
 1.8990	 7.2200
 1.9000	 7.1250
 1.9010	 7.0430
 1.9020	 6.9680
 1.9030	 6.9030
 1.9040	 6.8460
 1.9050	 6.7960
 1.9060	 6.7540
 1.9070	 6.7170
 1.9080	 6.6870
 1.9090	 6.6610
 1.9100	 6.6380
 1.9110	 6.6180
 1.9120	 6.6020
 1.9130	 6.5860
 1.9140	 6.5720
 1.9150	 6.5610
 1.9160	 6.5520
 1.9170	 6.5460
 1.9180	 6.5410
 1.9190	 6.5350
 1.9200	 6.5310
 1.9210	 6.5280
 1.9220	 6.5260
 1.9230	 6.5250
 1.9240	 6.5250
 1.9250	 6.5260
 1.9260	 6.5260
 1.9270	 6.5280
 1.9280	 6.5310
 1.9290	 6.5360
 1.9300	 6.5410
 1.9310	 6.5460
 1.9320	 6.5510
 1.9330	 6.5550
 1.9340	 6.5570
 1.9350	 6.5620
 1.9360	 6.5680
 1.9370	 6.5740
 1.9380	 6.5820
 1.9390	 6.5890
 1.9400	 6.5980
 1.9410	 6.6070
 1.9420	 6.6170
 1.9430	 6.6280
 1.9440	 6.6390
 1.9450	 6.6500
 1.9460	 6.6620
 1.9470	 6.6750
 1.9480	 6.6880
 1.9490	 6.6990
 1.9500	 6.7130
 1.9510	 6.7270
 1.9520	 6.7400
 1.9530	 6.7570
 1.9540	 6.7750
 1.9550	 6.7920
 1.9560	 6.8090
 1.9570	 6.8260
 1.9580	 6.8420
 1.9590	 6.8600
 1.9600	 6.8790
 1.9610	 6.8990
 1.9620	 6.9190
 1.9630	 6.9410
 1.9640	 6.9630
 1.9650	 6.9840
 1.9660	 7.0070
 1.9670	 7.0310
 1.9680	 7.0540
 1.9690	 7.0750
 1.9700	 7.1000
 1.9710	 7.1240
 1.9720	 7.1500
 1.9730	 7.1780
 1.9740	 7.2090
 1.9750	 7.2390
 1.9760	 7.2710
 1.9770	 7.3030
 1.9780	 7.3340
 1.9790	 7.3650
 1.9800	 7.3960
 1.9810	 7.4280
 1.9820	 7.4610
 1.9830	 7.4930
 1.9840	 7.5270
 1.9850	 7.5610
 1.9860	 7.5950
 1.9870	 7.6310
 1.9880	 7.6640
 1.9890	 7.6990
 1.9900	 7.7380
 1.9910	 7.7740
 1.9920	 7.8120
 1.9930	 7.8530
 1.9940	 7.8940
 1.9950	 7.9330
 1.9960	 7.9730
 1.9970	 8.0150
 1.9980	 8.0570
 1.9990	 8.0980
 2.0000	 8.1380
 2.0010	 8.1830
 2.0020	 8.2250
 2.0030	 8.2660
 2.0040	 8.3090
 2.0050	 8.3500
 2.0060	 8.3870
 2.0070	 8.4300
 2.0080	 8.4770
 2.0090	 8.5210
 2.0100	 8.5680
 2.0110	 8.6110
 2.0120	 8.6490
 2.0130	 8.6880
 2.0140	 8.7290
 2.0150	 8.7680
 2.0160	 8.8100
 2.0170	 8.8510
 2.0180	 8.8920
 2.0190	 8.9330
 2.0200	 8.9730
 2.0210	 9.0120
 2.0220	 9.0520
 2.0230	 9.0910
 2.0240	 9.1290
 2.0250	 9.1680
 2.0260	 9.2060
 2.0270	 9.2420
 2.0280	 9.2780
 2.0290	 9.3130
 2.0300	 9.3480
 2.0310	 9.3830
 2.0320	 9.4160
 2.0330	 9.4510
 2.0340	 9.4890
 2.0350	 9.5240
 2.0360	 9.5600
 2.0370	 9.5930
 2.0380	 9.6250
 2.0390	 9.6550
 2.0400	 9.6810
 2.0410	 9.7100
 2.0420	 9.7410
 2.0430	 9.7700
 2.0440	 9.7990
 2.0450	 9.8300
 2.0460	 9.8580
 2.0470	 9.8840
 2.0480	 9.9120
 2.0490	 9.9420
 2.0500	 9.9710
 2.0510	10.0020
 2.0520	10.0300
 2.0530	10.0570
 2.0540	10.0830
 2.0550	10.1060
 2.0560	10.1290
 2.0570	10.1560
 2.0580	10.1830
 2.0590	10.2110
 2.0600	10.2440
 2.0610	10.2710
 2.0620	10.2940
 2.0630	10.3180
 2.0640	10.3380
 2.0650	10.3630
 2.0660	10.3910
 2.0670	10.4190
 2.0680	10.4480
 2.0690	10.4770
 2.0700	10.5050
 2.0710	10.5330
 2.0720	10.5620
 2.0730	10.5920
 2.0740	10.6200
 2.0750	10.6480
 2.0760	10.6740
 2.0770	10.6970
 2.0780	10.7230
 2.0790	10.7510
 2.0800	10.7770
 2.0810	10.8040
 2.0820	10.8310
 2.0830	10.8580
 2.0840	10.8840
 2.0850	10.9110
 2.0860	10.9360
 2.0870	10.9600
 2.0880	10.9810
 2.0890	11.0040
 2.0900	11.0270
 2.0910	11.0510
 2.0920	11.0750
 2.0930	11.1000
 2.0940	11.1260
 2.0950	11.1500
 2.0960	11.1710
 2.0970	11.1950
 2.0980	11.2160
 2.0990	11.2400
 2.1000	11.2680
 2.1010	11.2930
 2.1020	11.3180
 2.1030	11.3420
 2.1040	11.3640
 2.1050	11.3840
 2.1060	11.4060
 2.1070	11.4300
 2.1080	11.4540
 2.1090	11.4810
 2.1100	11.5030
 2.1110	11.5230
 2.1120	11.5440
 2.1130	11.5610
 2.1140	11.5820
 2.1150	11.6060
 2.1160	11.6290
 2.1170	11.6520
 2.1180	11.6740
 2.1190	11.6930
 2.1200	11.7130
 2.1210	11.7330
 2.1220	11.7520
 2.1230	11.7730
 2.1240	11.7960
 2.1250	11.8160
 2.1260	11.8360
 2.1270	11.8530
 2.1280	11.8670
 2.1290	11.8830
 2.1300	11.8980
 2.1310	11.9150
 2.1320	11.9340
 2.1330	11.9500
 2.1340	11.9660
 2.1350	11.9810
 2.1360	11.9930
 2.1370	12.0060
 2.1380	12.0180
 2.1390	12.0330
 2.1400	12.0510
 2.1410	12.0680
 2.1420	12.0870
 2.1430	12.1080
 2.1440	12.1270
 2.1450	12.1470
 2.1460	12.1660
 2.1470	12.1830
 2.1480	12.2010
 2.1490	12.2190
 2.1500	12.2370
 2.1510	12.2530
 2.1520	12.2710
 2.1530	12.2880
 2.1540	12.3060
 2.1550	12.3260
 2.1560	12.3450
 2.1570	12.3640
 2.1580	12.3820
 2.1590	12.3980
 2.1600	12.4130
 2.1610	12.4280
 2.1620	12.4410
 2.1630	12.4550
 2.1640	12.4690
 2.1650	12.4830
 2.1660	12.4960
 2.1670	12.5110
 2.1680	12.5270
 2.1690	12.5440
 2.1700	12.5630
 2.1710	12.5790
 2.1720	12.5960
 2.1730	12.6110
 2.1740	12.6240
 2.1750	12.6370
 2.1760	12.6480
 2.1770	12.6610
 2.1780	12.6730
 2.1790	12.6870
 2.1800	12.7030
 2.1810	12.7190
 2.1820	12.7360
 2.1830	12.7510
 2.1840	12.7680
 2.1850	12.7860
 2.1860	12.8030
 2.1870	12.8230
 2.1880	12.8400
 2.1890	12.8550
 2.1900	12.8710
 2.1910	12.8850
 2.1920	12.9020
 2.1930	12.9190
 2.1940	12.9370
 2.1950	12.9570
 2.1960	12.9760
 2.1970	12.9950
 2.1980	13.0130
 2.1990	13.0300
 2.2000	13.0460
 2.2010	13.0630
 2.2020	13.0770
 2.2030	13.0870
 2.2040	13.0990
 2.2050	13.1110
 2.2060	13.1230
 2.2070	13.1350
 2.2080	13.1480
 2.2090	13.1620
 2.2100	13.1770
 2.2110	13.1860
 2.2120	13.1950
 2.2130	13.2020
 2.2140	13.2020
 2.2150	13.2070
 2.2160	13.2130
 2.2170	13.2180
 2.2180	13.2240
 2.2190	13.2290
 2.2200	13.2350
 2.2210	13.2380
 2.2220	13.2410
 2.2230	13.2410
 2.2240	13.2390
 2.2250	13.2350
 2.2260	13.2280
 2.2270	13.2210
 2.2280	13.2130
 2.2290	13.2030
 2.2300	13.1940
 2.2310	13.1790
 2.2320	13.1620
 2.2330	13.1410
 2.2340	13.1200
 2.2350	13.0950
 2.2360	13.0700
 2.2370	13.0450
 2.2380	13.0190
 2.2390	12.9930
 2.2400	12.9650
 2.2410	12.9370
 2.2420	12.9040
 2.2430	12.8660
 2.2440	12.8280
 2.2450	12.7870
 2.2460	12.7470
 2.2470	12.7080
 2.2480	12.6670
 2.2490	12.6280
 2.2500	12.5870
 2.2510	12.5440
 2.2520	12.4990
 2.2530	12.4520
 2.2540	12.4040
 2.2550	12.3480
 2.2560	12.3010
 2.2570	12.2590
 2.2580	12.2140
 2.2590	12.1720
 2.2600	12.1290
 2.2610	12.0810
 2.2620	12.0350
 2.2630	11.9950
 2.2640	11.9560
 2.2650	11.9170
 2.2660	11.8800
 2.2670	11.8410
 2.2680	11.7990
 2.2690	11.7640
 2.2700	11.7330
 2.2710	11.6990
 2.2720	11.6670
 2.2730	11.6340
 2.2740	11.5990
 2.2750	11.5670
 2.2760	11.5400
 2.2770	11.5100
 2.2780	11.4790
 2.2790	11.4490
 2.2800	11.4170
 2.2810	11.3870
 2.2820	11.3540
 2.2830	11.3260
 2.2840	11.3050
 2.2850	11.2770
 2.2860	11.2480
 2.2870	11.2180
 2.2880	11.1820
 2.2890	11.1520
 2.2900	11.1240
 2.2910	11.0970
 2.2920	11.0770
 2.2930	11.0490
 2.2940	11.0220
 2.2950	10.9900
 2.2960	10.9450
 2.2970	10.9090
 2.2980	10.8780
 2.2990	10.8430
 2.3000	10.8180
 2.3010	10.7920
 2.3020	10.7570
 2.3030	10.7280
 2.3040	10.6950
 2.3050	10.6640
 2.3060	10.6440
 2.3070	10.6220
 2.3080	10.6010
 2.3090	10.5810
 2.3100	10.5530
 2.3110	10.5220
 2.3120	10.4980
 2.3130	10.4760
 2.3140	10.4560
 2.3150	10.4410
 2.3160	10.4250
 2.3170	10.4080
 2.3180	10.3910
 2.3190	10.3790
 2.3200	10.3570
 2.3210	10.3290
 2.3220	10.3050
 2.3230	10.2790
 2.3240	10.2530
 2.3250	10.2320
 2.3260	10.2070
 2.3270	10.1790
 2.3280	10.1520
 2.3290	10.1230
 2.3300	10.0980
 2.3310	10.0780
 2.3320	10.0500
 2.3330	10.0200
 2.3340	 9.9930
 2.3350	 9.9590
 2.3360	 9.9310
 2.3370	 9.9160
 2.3380	 9.8880
 2.3390	 9.8510
 2.3400	 9.8190
 2.3410	 9.7800
 2.3420	 9.7480
 2.3430	 9.7220
 2.3440	 9.6980
 2.3450	 9.6790
 2.3460	 9.6570
 2.3470	 9.6370
 2.3480	 9.6170
 2.3490	 9.5940
 2.3500	 9.5710
 2.3510	 9.5480
 2.3520	 9.5220
 2.3530	 9.4920
 2.3540	 9.4660
 2.3550	 9.4400
 2.3560	 9.4090
 2.3570	 9.3840
 2.3580	 9.3590
 2.3590	 9.3350
 2.3600	 9.3180
 2.3610	 9.3010
 2.3620	 9.2820
 2.3630	 9.2630
 2.3640	 9.2420
 2.3650	 9.2120
 2.3660	 9.1790
 2.3670	 9.1510
 2.3680	 9.1180
 2.3690	 9.0930
 2.3700	 9.0720
 2.3710	 9.0440
 2.3720	 9.0190
 2.3730	 8.9860
 2.3740	 8.9520
 2.3750	 8.9280
 2.3760	 8.8960
 2.3770	 8.8700
 2.3780	 8.8480
 2.3790	 8.8250
 2.3800	 8.8120
 2.3810	 8.7930
 2.3820	 8.7710
 2.3830	 8.7530
 2.3840	 8.7280
 2.3850	 8.7080
 2.3860	 8.6920
 2.3870	 8.6720
 2.3880	 8.6410
 2.3890	 8.6010
 2.3900	 8.5660
 2.3910	 8.5330
 2.3920	 8.5080
 2.3930	 8.4940
 2.3940	 8.4730
 2.3950	 8.4400
 2.3960	 8.4110
 2.3970	 8.3830
 2.3980	 8.3490
 2.3990	 8.3250
 2.4000	 8.3050
 2.4010	 8.2750
 2.4020	 8.2470
 2.4030	 8.2160
 2.4040	 8.1810
 2.4050	 8.1530
 2.4060	 8.1270
 2.4070	 8.1040
 2.4080	 8.0860
 2.4090	 8.0630
 2.4100	 8.0410
 2.4110	 8.0220
 2.4120	 7.9900
 2.4130	 7.9530
 2.4140	 7.9210
 2.4150	 7.8860
 2.4160	 7.8500
 2.4170	 7.8170
 2.4180	 7.7930
 2.4190	 7.7750
 2.4200	 7.7620
 2.4210	 7.7430
 2.4220	 7.7070
 2.4230	 7.6750
 2.4240	 7.6430
 2.4250	 7.6200
 2.4260	 7.6180
 2.4270	 7.6140
 2.4280	 7.5940
 2.4290	 7.5600
 2.4300	 7.5210
 2.4310	 7.4770
 2.4320	 7.4370
 2.4330	 7.4180
 2.4340	 7.4010
 2.4350	 7.3720
 2.4360	 7.3460
 2.4370	 7.3330
 2.4380	 7.3210
 2.4390	 7.3140
 2.4400	 7.3150
 2.4410	 7.2940
 2.4420	 7.2690
 2.4430	 7.2500
 2.4440	 7.2280
 2.4450	 7.2100
 2.4460	 7.1880
 2.4470	 7.1730
 2.4480	 7.1570
 2.4490	 7.1400
 2.4500	 7.1380
 2.4510	 7.1050
 2.4520	 7.0610
 2.4530	 7.0330
 2.4540	 6.9940
 2.4550	 6.9840
 2.4560	 6.9910
 2.4570	 6.9890
 2.4580	 6.9780
 2.4590	 6.9690
 2.4600	 6.9720
 2.4610	 6.9580
 2.4620	 6.9460
 2.4630	 6.9310
 2.4640	 6.8940
 2.4650	 6.8770
 2.4660	 6.8600
 2.4670	 6.8350
 2.4680	 6.8060
 2.4690	 6.7730
 2.4700	 6.7600
 2.4710	 6.7720
 2.4720	 6.7790
 2.4730	 6.7980
 2.4740	 6.7860
 2.4750	 6.7520
 2.4760	 6.7290
 2.4770	 6.6890
 2.4780	 6.6790
 2.4790	 6.6970
 2.4800	 6.6900
 2.4810	 6.6780
 2.4820	 6.6880
 2.4830	 6.6950
 2.4840	 6.7070
 2.4850	 6.7160
 2.4860	 6.6920
 2.4870	 6.6660
 2.4880	 6.6560
 2.4890	 6.6540
 2.4900	 6.6210
 2.4910	 6.5830
 2.4920	 6.6060
 2.4930	 6.5850
 2.4940	 6.5730
 2.4950	 6.6440
 2.4960	 6.6550
 2.4970	 6.6710
 2.4980	 6.7050
 2.4990	 6.6460
 2.5000	 6.5850
