Name: Quercus douglasii 2
Type: vegetation
Class: Tree
Genus: Quercus
Species: douglasii
Sample No.: VH077
Owner: UCSB
Wavelength Range: VSWIR
Origin: 34.7157; -120.0601; WGS84
Collection Date: 4/21/2013
Description: Samples were collected as part of the HyspIRI Airborne Campaign. 48 individual plants were sampled in three times in 2013 - spring  summer  and fall. The name of the sample includes a 1  2  or 3 which references a different individual of the species. Samples were taken to JPL and processed within 48 hours of collection. The same leaves were processed in the Nicolet and then measured using the ASD.
Measurement: Bidirectional reflectance
First Column: X
Second Column: Y
X Units: Wavelength (micrometers)
Y Units: Reflectance (percentage)
First X Value: 0.35
Last X Value: 2.5
Number of X Values: 2151
Additional Information: vegetation.tree.quercus.douglasii.vswir.vh077.ucsb.asd.ancillary.txt

 0.3500	 5.9510
 0.3510	 5.5590
 0.3520	 5.6890
 0.3530	 5.9740
 0.3540	 5.9810
 0.3550	 5.8200
 0.3560	 5.7340
 0.3570	 5.7510
 0.3580	 5.7800
 0.3590	 5.8350
 0.3600	 5.8110
 0.3610	 5.7140
 0.3620	 5.7170
 0.3630	 5.7500
 0.3640	 5.7480
 0.3650	 5.6920
 0.3660	 5.7340
 0.3670	 5.7460
 0.3680	 5.7030
 0.3690	 5.6600
 0.3700	 5.6860
 0.3710	 5.7210
 0.3720	 5.7370
 0.3730	 5.7950
 0.3740	 5.8320
 0.3750	 5.7710
 0.3760	 5.6100
 0.3770	 5.6640
 0.3780	 5.7230
 0.3790	 5.7380
 0.3800	 5.8110
 0.3810	 5.8280
 0.3820	 5.8610
 0.3830	 5.9320
 0.3840	 5.8930
 0.3850	 5.8350
 0.3860	 5.7720
 0.3870	 5.7100
 0.3880	 5.7730
 0.3890	 5.8520
 0.3900	 5.8810
 0.3910	 5.8570
 0.3920	 5.8550
 0.3930	 5.8710
 0.3940	 5.8950
 0.3950	 5.9550
 0.3960	 5.9570
 0.3970	 5.9440
 0.3980	 6.0020
 0.3990	 6.0260
 0.4000	 6.0260
 0.4010	 6.0290
 0.4020	 6.0690
 0.4030	 6.1180
 0.4040	 6.1460
 0.4050	 6.1420
 0.4060	 6.1560
 0.4070	 6.1780
 0.4080	 6.2050
 0.4090	 6.2410
 0.4100	 6.2680
 0.4110	 6.2980
 0.4120	 6.3340
 0.4130	 6.3650
 0.4140	 6.4180
 0.4150	 6.4680
 0.4160	 6.4830
 0.4170	 6.4810
 0.4180	 6.5010
 0.4190	 6.5490
 0.4200	 6.6050
 0.4210	 6.6570
 0.4220	 6.6920
 0.4230	 6.7110
 0.4240	 6.7460
 0.4250	 6.7880
 0.4260	 6.8190
 0.4270	 6.8230
 0.4280	 6.8510
 0.4290	 6.8890
 0.4300	 6.9200
 0.4310	 6.9360
 0.4320	 6.9580
 0.4330	 6.9890
 0.4340	 7.0240
 0.4350	 7.0440
 0.4360	 7.0450
 0.4370	 7.0440
 0.4380	 7.0750
 0.4390	 7.0990
 0.4400	 7.1140
 0.4410	 7.1240
 0.4420	 7.1430
 0.4430	 7.1510
 0.4440	 7.1570
 0.4450	 7.1780
 0.4460	 7.1890
 0.4470	 7.1970
 0.4480	 7.2050
 0.4490	 7.2120
 0.4500	 7.2290
 0.4510	 7.2460
 0.4520	 7.2510
 0.4530	 7.2560
 0.4540	 7.2590
 0.4550	 7.2680
 0.4560	 7.2930
 0.4570	 7.2980
 0.4580	 7.2940
 0.4590	 7.2920
 0.4600	 7.2920
 0.4610	 7.3040
 0.4620	 7.3160
 0.4630	 7.3140
 0.4640	 7.3190
 0.4650	 7.3220
 0.4660	 7.3190
 0.4670	 7.3160
 0.4680	 7.3200
 0.4690	 7.3230
 0.4700	 7.3250
 0.4710	 7.3450
 0.4720	 7.3440
 0.4730	 7.3310
 0.4740	 7.3370
 0.4750	 7.3350
 0.4760	 7.3360
 0.4770	 7.3430
 0.4780	 7.3380
 0.4790	 7.3490
 0.4800	 7.3550
 0.4810	 7.3390
 0.4820	 7.3430
 0.4830	 7.3610
 0.4840	 7.3730
 0.4850	 7.3590
 0.4860	 7.3600
 0.4870	 7.3670
 0.4880	 7.3720
 0.4890	 7.3890
 0.4900	 7.3970
 0.4910	 7.4010
 0.4920	 7.4100
 0.4930	 7.4200
 0.4940	 7.4300
 0.4950	 7.4380
 0.4960	 7.4460
 0.4970	 7.4610
 0.4980	 7.4840
 0.4990	 7.5090
 0.5000	 7.5200
 0.5010	 7.5360
 0.5020	 7.5610
 0.5030	 7.5820
 0.5040	 7.6150
 0.5050	 7.6540
 0.5060	 7.6920
 0.5070	 7.7330
 0.5080	 7.7820
 0.5090	 7.8370
 0.5100	 7.8960
 0.5110	 7.9630
 0.5120	 8.0400
 0.5130	 8.1280
 0.5140	 8.2250
 0.5150	 8.3320
 0.5160	 8.4490
 0.5170	 8.5750
 0.5180	 8.7070
 0.5190	 8.8500
 0.5200	 9.0050
 0.5210	 9.1680
 0.5220	 9.3280
 0.5230	 9.4900
 0.5240	 9.6590
 0.5250	 9.8290
 0.5260	 9.9920
 0.5270	10.1490
 0.5280	10.2990
 0.5290	10.4350
 0.5300	10.5640
 0.5310	10.6870
 0.5320	10.8020
 0.5330	10.9030
 0.5340	10.9950
 0.5350	11.0760
 0.5360	11.1470
 0.5370	11.2110
 0.5380	11.2700
 0.5390	11.3250
 0.5400	11.3770
 0.5410	11.4290
 0.5420	11.4810
 0.5430	11.5220
 0.5440	11.5670
 0.5450	11.6090
 0.5460	11.6380
 0.5470	11.6680
 0.5480	11.6930
 0.5490	11.7080
 0.5500	11.7190
 0.5510	11.7280
 0.5520	11.7300
 0.5530	11.7210
 0.5540	11.7000
 0.5550	11.6680
 0.5560	11.6240
 0.5570	11.5660
 0.5580	11.5010
 0.5590	11.4270
 0.5600	11.3460
 0.5610	11.2580
 0.5620	11.1640
 0.5630	11.0640
 0.5640	10.9640
 0.5650	10.8640
 0.5660	10.7540
 0.5670	10.6320
 0.5680	10.5050
 0.5690	10.3860
 0.5700	10.2710
 0.5710	10.1500
 0.5720	10.0340
 0.5730	 9.9290
 0.5740	 9.8370
 0.5750	 9.7600
 0.5760	 9.6920
 0.5770	 9.6270
 0.5780	 9.5600
 0.5790	 9.4920
 0.5800	 9.4250
 0.5810	 9.3650
 0.5820	 9.3120
 0.5830	 9.2630
 0.5840	 9.2150
 0.5850	 9.1680
 0.5860	 9.1240
 0.5870	 9.0770
 0.5880	 9.0300
 0.5890	 8.9870
 0.5900	 8.9600
 0.5910	 8.9480
 0.5920	 8.9430
 0.5930	 8.9360
 0.5940	 8.9200
 0.5950	 8.8980
 0.5960	 8.8750
 0.5970	 8.8570
 0.5980	 8.8380
 0.5990	 8.8170
 0.6000	 8.7970
 0.6010	 8.7760
 0.6020	 8.7500
 0.6030	 8.7200
 0.6040	 8.6900
 0.6050	 8.6600
 0.6060	 8.6250
 0.6070	 8.5850
 0.6080	 8.5430
 0.6090	 8.5040
 0.6100	 8.4700
 0.6110	 8.4340
 0.6120	 8.3890
 0.6130	 8.3400
 0.6140	 8.2950
 0.6150	 8.2560
 0.6160	 8.2160
 0.6170	 8.1780
 0.6180	 8.1470
 0.6190	 8.1200
 0.6200	 8.0940
 0.6210	 8.0690
 0.6220	 8.0510
 0.6230	 8.0350
 0.6240	 8.0190
 0.6250	 8.0050
 0.6260	 7.9960
 0.6270	 7.9890
 0.6280	 7.9810
 0.6290	 7.9700
 0.6300	 7.9670
 0.6310	 7.9640
 0.6320	 7.9570
 0.6330	 7.9490
 0.6340	 7.9390
 0.6350	 7.9280
 0.6360	 7.9160
 0.6370	 7.8990
 0.6380	 7.8760
 0.6390	 7.8500
 0.6400	 7.8220
 0.6410	 7.7940
 0.6420	 7.7630
 0.6430	 7.7310
 0.6440	 7.7030
 0.6450	 7.6710
 0.6460	 7.6390
 0.6470	 7.6130
 0.6480	 7.5830
 0.6490	 7.5590
 0.6500	 7.5430
 0.6510	 7.5300
 0.6520	 7.5100
 0.6530	 7.4900
 0.6540	 7.4760
 0.6550	 7.4610
 0.6560	 7.4440
 0.6570	 7.4260
 0.6580	 7.4060
 0.6590	 7.3860
 0.6600	 7.3670
 0.6610	 7.3510
 0.6620	 7.3340
 0.6630	 7.3190
 0.6640	 7.3070
 0.6650	 7.2990
 0.6660	 7.2940
 0.6670	 7.2900
 0.6680	 7.2880
 0.6690	 7.2870
 0.6700	 7.2900
 0.6710	 7.2970
 0.6720	 7.3050
 0.6730	 7.3140
 0.6740	 7.3270
 0.6750	 7.3430
 0.6760	 7.3620
 0.6770	 7.3810
 0.6780	 7.4020
 0.6790	 7.4270
 0.6800	 7.4510
 0.6810	 7.4810
 0.6820	 7.5130
 0.6830	 7.5440
 0.6840	 7.5770
 0.6850	 7.6170
 0.6860	 7.6630
 0.6870	 7.7110
 0.6880	 7.7690
 0.6890	 7.8420
 0.6900	 7.9340
 0.6910	 8.0470
 0.6920	 8.1910
 0.6930	 8.3750
 0.6940	 8.6050
 0.6950	 8.8850
 0.6960	 9.2210
 0.6970	 9.6160
 0.6980	10.0730
 0.6990	10.5980
 0.7000	11.1870
 0.7010	11.8340
 0.7020	12.5360
 0.7030	13.2850
 0.7040	14.0770
 0.7050	14.9050
 0.7060	15.7610
 0.7070	16.6430
 0.7080	17.5470
 0.7090	18.4680
 0.7100	19.3950
 0.7110	20.3330
 0.7120	21.2820
 0.7130	22.2400
 0.7140	23.1940
 0.7150	24.1490
 0.7160	25.1060
 0.7170	26.0550
 0.7180	26.9960
 0.7190	27.9290
 0.7200	28.8500
 0.7210	29.7610
 0.7220	30.6580
 0.7230	31.5340
 0.7240	32.3890
 0.7250	33.2250
 0.7260	34.0390
 0.7270	34.8260
 0.7280	35.5860
 0.7290	36.3170
 0.7300	37.0180
 0.7310	37.6900
 0.7320	38.3380
 0.7330	38.9570
 0.7340	39.5460
 0.7350	40.1070
 0.7360	40.6390
 0.7370	41.1420
 0.7380	41.6160
 0.7390	42.0700
 0.7400	42.5020
 0.7410	42.9100
 0.7420	43.2910
 0.7430	43.6470
 0.7440	43.9790
 0.7450	44.2870
 0.7460	44.5780
 0.7470	44.8530
 0.7480	45.1060
 0.7490	45.3330
 0.7500	45.5450
 0.7510	45.7430
 0.7520	45.9240
 0.7530	46.0890
 0.7540	46.2410
 0.7550	46.3790
 0.7560	46.5060
 0.7570	46.6250
 0.7580	46.7310
 0.7590	46.8240
 0.7600	46.9100
 0.7610	46.9970
 0.7620	47.0740
 0.7630	47.1390
 0.7640	47.1960
 0.7650	47.2500
 0.7660	47.3030
 0.7670	47.3520
 0.7680	47.3920
 0.7690	47.4320
 0.7700	47.4680
 0.7710	47.4990
 0.7720	47.5260
 0.7730	47.5520
 0.7740	47.5780
 0.7750	47.6050
 0.7760	47.6230
 0.7770	47.6470
 0.7780	47.6730
 0.7790	47.6910
 0.7800	47.7060
 0.7810	47.7240
 0.7820	47.7430
 0.7830	47.7560
 0.7840	47.7730
 0.7850	47.7890
 0.7860	47.8000
 0.7870	47.8140
 0.7880	47.8250
 0.7890	47.8380
 0.7900	47.8530
 0.7910	47.8620
 0.7920	47.8700
 0.7930	47.8800
 0.7940	47.8900
 0.7950	47.9010
 0.7960	47.9100
 0.7970	47.9170
 0.7980	47.9180
 0.7990	47.9240
 0.8000	47.9280
 0.8010	47.9280
 0.8020	47.9320
 0.8030	47.9360
 0.8040	47.9370
 0.8050	47.9340
 0.8060	47.9380
 0.8070	47.9350
 0.8080	47.9300
 0.8090	47.9340
 0.8100	47.9380
 0.8110	47.9380
 0.8120	47.9340
 0.8130	47.9250
 0.8140	47.9180
 0.8150	47.9140
 0.8160	47.9100
 0.8170	47.9070
 0.8180	47.9010
 0.8190	47.8970
 0.8200	47.8960
 0.8210	47.8940
 0.8220	47.8870
 0.8230	47.8790
 0.8240	47.8770
 0.8250	47.8720
 0.8260	47.8660
 0.8270	47.8580
 0.8280	47.8550
 0.8290	47.8510
 0.8300	47.8450
 0.8310	47.8400
 0.8320	47.8310
 0.8330	47.8260
 0.8340	47.8230
 0.8350	47.8190
 0.8360	47.8150
 0.8370	47.8120
 0.8380	47.8100
 0.8390	47.8110
 0.8400	47.8140
 0.8410	47.8170
 0.8420	47.8190
 0.8430	47.8220
 0.8440	47.8270
 0.8450	47.8330
 0.8460	47.8360
 0.8470	47.8340
 0.8480	47.8360
 0.8490	47.8410
 0.8500	47.8460
 0.8510	47.8540
 0.8520	47.8620
 0.8530	47.8690
 0.8540	47.8760
 0.8550	47.8820
 0.8560	47.8840
 0.8570	47.8860
 0.8580	47.8960
 0.8590	47.9060
 0.8600	47.9110
 0.8610	47.9110
 0.8620	47.9110
 0.8630	47.9160
 0.8640	47.9260
 0.8650	47.9400
 0.8660	47.9450
 0.8670	47.9530
 0.8680	47.9630
 0.8690	47.9690
 0.8700	47.9730
 0.8710	47.9810
 0.8720	47.9940
 0.8730	48.0090
 0.8740	48.0140
 0.8750	48.0160
 0.8760	48.0220
 0.8770	48.0320
 0.8780	48.0430
 0.8790	48.0510
 0.8800	48.0560
 0.8810	48.0680
 0.8820	48.0740
 0.8830	48.0770
 0.8840	48.0830
 0.8850	48.0930
 0.8860	48.1030
 0.8870	48.1170
 0.8880	48.1360
 0.8890	48.1350
 0.8900	48.1440
 0.8910	48.1600
 0.8920	48.1660
 0.8930	48.1690
 0.8940	48.1740
 0.8950	48.1800
 0.8960	48.1810
 0.8970	48.1770
 0.8980	48.1870
 0.8990	48.2100
 0.9000	48.2200
 0.9010	48.2170
 0.9020	48.2170
 0.9030	48.2260
 0.9040	48.2360
 0.9050	48.2450
 0.9060	48.2590
 0.9070	48.2710
 0.9080	48.2610
 0.9090	48.2690
 0.9100	48.2820
 0.9110	48.2860
 0.9120	48.2940
 0.9130	48.3000
 0.9140	48.3040
 0.9150	48.3040
 0.9160	48.3030
 0.9170	48.3020
 0.9180	48.2990
 0.9190	48.2960
 0.9200	48.3070
 0.9210	48.3080
 0.9220	48.2980
 0.9230	48.2880
 0.9240	48.2800
 0.9250	48.2740
 0.9260	48.2730
 0.9270	48.2720
 0.9280	48.2540
 0.9290	48.2370
 0.9300	48.2270
 0.9310	48.2140
 0.9320	48.1900
 0.9330	48.1720
 0.9340	48.1590
 0.9350	48.1330
 0.9360	48.1150
 0.9370	48.0930
 0.9380	48.0640
 0.9390	48.0410
 0.9400	48.0130
 0.9410	47.9900
 0.9420	47.9730
 0.9430	47.9350
 0.9440	47.9030
 0.9450	47.8740
 0.9460	47.8390
 0.9470	47.8050
 0.9480	47.7630
 0.9490	47.7130
 0.9500	47.6580
 0.9510	47.6040
 0.9520	47.5480
 0.9530	47.4840
 0.9540	47.4130
 0.9550	47.3500
 0.9560	47.2990
 0.9570	47.2500
 0.9580	47.1920
 0.9590	47.1300
 0.9600	47.0770
 0.9610	47.0280
 0.9620	46.9780
 0.9630	46.9690
 0.9640	46.9400
 0.9650	46.8990
 0.9660	46.8750
 0.9670	46.8510
 0.9680	46.8430
 0.9690	46.8440
 0.9700	46.8400
 0.9710	46.8190
 0.9720	46.7980
 0.9730	46.7930
 0.9740	46.8070
 0.9750	46.7860
 0.9760	46.7730
 0.9770	46.7810
 0.9780	46.8020
 0.9790	46.8170
 0.9800	46.8130
 0.9810	46.8020
 0.9820	46.8030
 0.9830	46.8140
 0.9840	46.8170
 0.9850	46.8270
 0.9860	46.8600
 0.9870	46.8600
 0.9880	46.8700
 0.9890	46.8980
 0.9900	46.9280
 0.9910	46.9370
 0.9920	47.0090
 0.9930	47.0800
 0.9940	47.1510
 0.9950	47.2230
 0.9960	47.2940
 0.9970	47.3660
 0.9980	47.4370
 0.9990	47.5080
 1.0000	47.5800
 1.0010	47.6510
 1.0020	47.7220
 1.0030	47.7940
 1.0040	47.8650
 1.0050	47.9360
 1.0060	48.0080
 1.0070	48.0790
 1.0080	48.1500
 1.0090	48.2220
 1.0100	48.2220
 1.0110	48.2370
 1.0120	48.2560
 1.0130	48.2780
 1.0140	48.2980
 1.0150	48.3170
 1.0160	48.3390
 1.0170	48.3610
 1.0180	48.3770
 1.0190	48.3960
 1.0200	48.4120
 1.0210	48.4250
 1.0220	48.4390
 1.0230	48.4570
 1.0240	48.4790
 1.0250	48.4980
 1.0260	48.5220
 1.0270	48.5400
 1.0280	48.5510
 1.0290	48.5650
 1.0300	48.5780
 1.0310	48.5920
 1.0320	48.6080
 1.0330	48.6200
 1.0340	48.6350
 1.0350	48.6500
 1.0360	48.6610
 1.0370	48.6760
 1.0380	48.6900
 1.0390	48.7030
 1.0400	48.7140
 1.0410	48.7230
 1.0420	48.7340
 1.0430	48.7430
 1.0440	48.7520
 1.0450	48.7670
 1.0460	48.7770
 1.0470	48.7790
 1.0480	48.7880
 1.0490	48.8010
 1.0500	48.8090
 1.0510	48.8190
 1.0520	48.8270
 1.0530	48.8320
 1.0540	48.8320
 1.0550	48.8350
 1.0560	48.8380
 1.0570	48.8450
 1.0580	48.8560
 1.0590	48.8630
 1.0600	48.8730
 1.0610	48.8780
 1.0620	48.8770
 1.0630	48.8780
 1.0640	48.8760
 1.0650	48.8780
 1.0660	48.8840
 1.0670	48.8870
 1.0680	48.8890
 1.0690	48.8940
 1.0700	48.8940
 1.0710	48.8890
 1.0720	48.8880
 1.0730	48.8880
 1.0740	48.8890
 1.0750	48.8940
 1.0760	48.8930
 1.0770	48.8890
 1.0780	48.8860
 1.0790	48.8790
 1.0800	48.8750
 1.0810	48.8740
 1.0820	48.8700
 1.0830	48.8640
 1.0840	48.8590
 1.0850	48.8550
 1.0860	48.8480
 1.0870	48.8420
 1.0880	48.8370
 1.0890	48.8300
 1.0900	48.8210
 1.0910	48.8150
 1.0920	48.8130
 1.0930	48.8040
 1.0940	48.7930
 1.0950	48.7840
 1.0960	48.7720
 1.0970	48.7600
 1.0980	48.7500
 1.0990	48.7390
 1.1000	48.7270
 1.1010	48.7150
 1.1020	48.7020
 1.1030	48.6920
 1.1040	48.6780
 1.1050	48.6630
 1.1060	48.6500
 1.1070	48.6380
 1.1080	48.6220
 1.1090	48.6040
 1.1100	48.5880
 1.1110	48.5690
 1.1120	48.5500
 1.1130	48.5340
 1.1140	48.5140
 1.1150	48.4910
 1.1160	48.4690
 1.1170	48.4470
 1.1180	48.4220
 1.1190	48.3970
 1.1200	48.3710
 1.1210	48.3380
 1.1220	48.3020
 1.1230	48.2630
 1.1240	48.2190
 1.1250	48.1740
 1.1260	48.1310
 1.1270	48.0760
 1.1280	48.0200
 1.1290	47.9530
 1.1300	47.8780
 1.1310	47.7950
 1.1320	47.7060
 1.1330	47.6100
 1.1340	47.5070
 1.1350	47.3990
 1.1360	47.2870
 1.1370	47.1650
 1.1380	47.0380
 1.1390	46.9040
 1.1400	46.7660
 1.1410	46.6280
 1.1420	46.4840
 1.1430	46.3400
 1.1440	46.1960
 1.1450	46.0470
 1.1460	45.9060
 1.1470	45.7670
 1.1480	45.6360
 1.1490	45.5090
 1.1500	45.3900
 1.1510	45.2760
 1.1520	45.1710
 1.1530	45.0730
 1.1540	44.9840
 1.1550	44.9040
 1.1560	44.8330
 1.1570	44.7710
 1.1580	44.7170
 1.1590	44.6710
 1.1600	44.6350
 1.1610	44.6050
 1.1620	44.5810
 1.1630	44.5600
 1.1640	44.5410
 1.1650	44.5250
 1.1660	44.5100
 1.1670	44.4990
 1.1680	44.4920
 1.1690	44.4860
 1.1700	44.4850
 1.1710	44.4820
 1.1720	44.4810
 1.1730	44.4770
 1.1740	44.4720
 1.1750	44.4640
 1.1760	44.4560
 1.1770	44.4500
 1.1780	44.4420
 1.1790	44.4350
 1.1800	44.4270
 1.1810	44.4180
 1.1820	44.4110
 1.1830	44.4060
 1.1840	44.4000
 1.1850	44.3910
 1.1860	44.3820
 1.1870	44.3720
 1.1880	44.3650
 1.1890	44.3590
 1.1900	44.3550
 1.1910	44.3540
 1.1920	44.3530
 1.1930	44.3520
 1.1940	44.3540
 1.1950	44.3570
 1.1960	44.3600
 1.1970	44.3650
 1.1980	44.3740
 1.1990	44.3820
 1.2000	44.3900
 1.2010	44.4000
 1.2020	44.4090
 1.2030	44.4180
 1.2040	44.4310
 1.2050	44.4430
 1.2060	44.4570
 1.2070	44.4740
 1.2080	44.4890
 1.2090	44.5070
 1.2100	44.5260
 1.2110	44.5430
 1.2120	44.5590
 1.2130	44.5770
 1.2140	44.5930
 1.2150	44.6130
 1.2160	44.6360
 1.2170	44.6600
 1.2180	44.6820
 1.2190	44.7040
 1.2200	44.7240
 1.2210	44.7430
 1.2220	44.7660
 1.2230	44.7910
 1.2240	44.8150
 1.2250	44.8410
 1.2260	44.8630
 1.2270	44.8850
 1.2280	44.9060
 1.2290	44.9250
 1.2300	44.9450
 1.2310	44.9660
 1.2320	44.9850
 1.2330	45.0020
 1.2340	45.0200
 1.2350	45.0370
 1.2360	45.0540
 1.2370	45.0730
 1.2380	45.0910
 1.2390	45.1070
 1.2400	45.1230
 1.2410	45.1360
 1.2420	45.1500
 1.2430	45.1670
 1.2440	45.1790
 1.2450	45.1920
 1.2460	45.2050
 1.2470	45.2160
 1.2480	45.2270
 1.2490	45.2390
 1.2500	45.2500
 1.2510	45.2600
 1.2520	45.2670
 1.2530	45.2760
 1.2540	45.2830
 1.2550	45.2870
 1.2560	45.2930
 1.2570	45.2990
 1.2580	45.3030
 1.2590	45.3070
 1.2600	45.3120
 1.2610	45.3130
 1.2620	45.3120
 1.2630	45.3090
 1.2640	45.3050
 1.2650	45.3000
 1.2660	45.2960
 1.2670	45.2920
 1.2680	45.2860
 1.2690	45.2820
 1.2700	45.2750
 1.2710	45.2650
 1.2720	45.2560
 1.2730	45.2450
 1.2740	45.2330
 1.2750	45.2200
 1.2760	45.2060
 1.2770	45.1910
 1.2780	45.1740
 1.2790	45.1580
 1.2800	45.1390
 1.2810	45.1190
 1.2820	45.0970
 1.2830	45.0760
 1.2840	45.0530
 1.2850	45.0280
 1.2860	45.0010
 1.2870	44.9710
 1.2880	44.9380
 1.2890	44.9050
 1.2900	44.8710
 1.2910	44.8350
 1.2920	44.7990
 1.2930	44.7600
 1.2940	44.7180
 1.2950	44.6750
 1.2960	44.6290
 1.2970	44.5830
 1.2980	44.5350
 1.2990	44.4830
 1.3000	44.4300
 1.3010	44.3720
 1.3020	44.3080
 1.3030	44.2450
 1.3040	44.1780
 1.3050	44.1100
 1.3060	44.0430
 1.3070	43.9700
 1.3080	43.8940
 1.3090	43.8170
 1.3100	43.7350
 1.3110	43.6530
 1.3120	43.5680
 1.3130	43.4790
 1.3140	43.3850
 1.3150	43.2860
 1.3160	43.1840
 1.3170	43.0790
 1.3180	42.9710
 1.3190	42.8600
 1.3200	42.7470
 1.3210	42.6310
 1.3220	42.5120
 1.3230	42.3920
 1.3240	42.2670
 1.3250	42.1400
 1.3260	42.0110
 1.3270	41.8790
 1.3280	41.7450
 1.3290	41.6090
 1.3300	41.4720
 1.3310	41.3300
 1.3320	41.1870
 1.3330	41.0460
 1.3340	40.9030
 1.3350	40.7590
 1.3360	40.6150
 1.3370	40.4670
 1.3380	40.3190
 1.3390	40.1710
 1.3400	40.0220
 1.3410	39.8760
 1.3420	39.7310
 1.3430	39.5880
 1.3440	39.4460
 1.3450	39.3040
 1.3460	39.1630
 1.3470	39.0230
 1.3480	38.8810
 1.3490	38.7420
 1.3500	38.6060
 1.3510	38.4710
 1.3520	38.3360
 1.3530	38.2000
 1.3540	38.0650
 1.3550	37.9270
 1.3560	37.7900
 1.3570	37.6530
 1.3580	37.5120
 1.3590	37.3690
 1.3600	37.2220
 1.3610	37.0700
 1.3620	36.9150
 1.3630	36.7570
 1.3640	36.5920
 1.3650	36.4190
 1.3660	36.2400
 1.3670	36.0510
 1.3680	35.8490
 1.3690	35.6360
 1.3700	35.4070
 1.3710	35.1650
 1.3720	34.9080
 1.3730	34.6320
 1.3740	34.3410
 1.3750	34.0300
 1.3760	33.6980
 1.3770	33.3440
 1.3780	32.9640
 1.3790	32.5630
 1.3800	32.1400
 1.3810	31.6920
 1.3820	31.2280
 1.3830	30.7430
 1.3840	30.2410
 1.3850	29.7190
 1.3860	29.1850
 1.3870	28.6320
 1.3880	28.0760
 1.3890	27.5090
 1.3900	26.9330
 1.3910	26.3590
 1.3920	25.7820
 1.3930	25.2030
 1.3940	24.6300
 1.3950	24.0570
 1.3960	23.4950
 1.3970	22.9460
 1.3980	22.4100
 1.3990	21.8980
 1.4000	21.4020
 1.4010	20.9230
 1.4020	20.4670
 1.4030	20.0290
 1.4040	19.6140
 1.4050	19.2240
 1.4060	18.8550
 1.4070	18.5130
 1.4080	18.1930
 1.4090	17.8940
 1.4100	17.6180
 1.4110	17.3610
 1.4120	17.1250
 1.4130	16.9080
 1.4140	16.7090
 1.4150	16.5300
 1.4160	16.3670
 1.4170	16.2190
 1.4180	16.0860
 1.4190	15.9650
 1.4200	15.8560
 1.4210	15.7590
 1.4220	15.6730
 1.4230	15.5970
 1.4240	15.5300
 1.4250	15.4710
 1.4260	15.4210
 1.4270	15.3780
 1.4280	15.3420
 1.4290	15.3110
 1.4300	15.2870
 1.4310	15.2670
 1.4320	15.2530
 1.4330	15.2430
 1.4340	15.2380
 1.4350	15.2360
 1.4360	15.2390
 1.4370	15.2440
 1.4380	15.2520
 1.4390	15.2630
 1.4400	15.2770
 1.4410	15.2920
 1.4420	15.3100
 1.4430	15.3280
 1.4440	15.3480
 1.4450	15.3690
 1.4460	15.3900
 1.4470	15.4140
 1.4480	15.4370
 1.4490	15.4630
 1.4500	15.4890
 1.4510	15.5150
 1.4520	15.5430
 1.4530	15.5730
 1.4540	15.6030
 1.4550	15.6340
 1.4560	15.6660
 1.4570	15.7010
 1.4580	15.7410
 1.4590	15.7840
 1.4600	15.8310
 1.4610	15.8810
 1.4620	15.9340
 1.4630	15.9930
 1.4640	16.0560
 1.4650	16.1240
 1.4660	16.1970
 1.4670	16.2740
 1.4680	16.3550
 1.4690	16.4420
 1.4700	16.5320
 1.4710	16.6280
 1.4720	16.7270
 1.4730	16.8290
 1.4740	16.9350
 1.4750	17.0420
 1.4760	17.1540
 1.4770	17.2680
 1.4780	17.3850
 1.4790	17.5040
 1.4800	17.6230
 1.4810	17.7420
 1.4820	17.8640
 1.4830	17.9860
 1.4840	18.1110
 1.4850	18.2370
 1.4860	18.3620
 1.4870	18.4880
 1.4880	18.6130
 1.4890	18.7380
 1.4900	18.8650
 1.4910	18.9920
 1.4920	19.1200
 1.4930	19.2520
 1.4940	19.3820
 1.4950	19.5120
 1.4960	19.6410
 1.4970	19.7690
 1.4980	19.8990
 1.4990	20.0270
 1.5000	20.1570
 1.5010	20.2870
 1.5020	20.4170
 1.5030	20.5460
 1.5040	20.6760
 1.5050	20.8040
 1.5060	20.9330
 1.5070	21.0630
 1.5080	21.1910
 1.5090	21.3200
 1.5100	21.4460
 1.5110	21.5730
 1.5120	21.6980
 1.5130	21.8230
 1.5140	21.9480
 1.5150	22.0710
 1.5160	22.1930
 1.5170	22.3160
 1.5180	22.4390
 1.5190	22.5600
 1.5200	22.6810
 1.5210	22.7990
 1.5220	22.9150
 1.5230	23.0330
 1.5240	23.1500
 1.5250	23.2670
 1.5260	23.3820
 1.5270	23.4970
 1.5280	23.6100
 1.5290	23.7210
 1.5300	23.8320
 1.5310	23.9420
 1.5320	24.0500
 1.5330	24.1580
 1.5340	24.2650
 1.5350	24.3720
 1.5360	24.4790
 1.5370	24.5850
 1.5380	24.6900
 1.5390	24.7930
 1.5400	24.8950
 1.5410	24.9980
 1.5420	25.1000
 1.5430	25.2010
 1.5440	25.3020
 1.5450	25.3990
 1.5460	25.4960
 1.5470	25.5930
 1.5480	25.6880
 1.5490	25.7850
 1.5500	25.8780
 1.5510	25.9710
 1.5520	26.0630
 1.5530	26.1520
 1.5540	26.2410
 1.5550	26.3300
 1.5560	26.4170
 1.5570	26.5040
 1.5580	26.5910
 1.5590	26.6750
 1.5600	26.7590
 1.5610	26.8400
 1.5620	26.9220
 1.5630	27.0030
 1.5640	27.0820
 1.5650	27.1610
 1.5660	27.2380
 1.5670	27.3140
 1.5680	27.3910
 1.5690	27.4660
 1.5700	27.5420
 1.5710	27.6170
 1.5720	27.6910
 1.5730	27.7650
 1.5740	27.8380
 1.5750	27.9100
 1.5760	27.9830
 1.5770	28.0540
 1.5780	28.1240
 1.5790	28.1940
 1.5800	28.2630
 1.5810	28.3310
 1.5820	28.4010
 1.5830	28.4690
 1.5840	28.5370
 1.5850	28.6050
 1.5860	28.6720
 1.5870	28.7380
 1.5880	28.8020
 1.5890	28.8660
 1.5900	28.9300
 1.5910	28.9950
 1.5920	29.0590
 1.5930	29.1240
 1.5940	29.1870
 1.5950	29.2480
 1.5960	29.3090
 1.5970	29.3690
 1.5980	29.4290
 1.5990	29.4890
 1.6000	29.5490
 1.6010	29.6080
 1.6020	29.6660
 1.6030	29.7230
 1.6040	29.7790
 1.6050	29.8340
 1.6060	29.8880
 1.6070	29.9420
 1.6080	29.9960
 1.6090	30.0480
 1.6100	30.0990
 1.6110	30.1510
 1.6120	30.2020
 1.6130	30.2520
 1.6140	30.3000
 1.6150	30.3470
 1.6160	30.3930
 1.6170	30.4370
 1.6180	30.4810
 1.6190	30.5260
 1.6200	30.5680
 1.6210	30.6090
 1.6220	30.6500
 1.6230	30.6870
 1.6240	30.7260
 1.6250	30.7650
 1.6260	30.8030
 1.6270	30.8410
 1.6280	30.8780
 1.6290	30.9140
 1.6300	30.9490
 1.6310	30.9840
 1.6320	31.0180
 1.6330	31.0510
 1.6340	31.0840
 1.6350	31.1150
 1.6360	31.1450
 1.6370	31.1740
 1.6380	31.2020
 1.6390	31.2280
 1.6400	31.2520
 1.6410	31.2730
 1.6420	31.2920
 1.6430	31.3100
 1.6440	31.3260
 1.6450	31.3410
 1.6460	31.3520
 1.6470	31.3620
 1.6480	31.3720
 1.6490	31.3800
 1.6500	31.3860
 1.6510	31.3910
 1.6520	31.3940
 1.6530	31.3950
 1.6540	31.3960
 1.6550	31.3930
 1.6560	31.3900
 1.6570	31.3870
 1.6580	31.3830
 1.6590	31.3790
 1.6600	31.3750
 1.6610	31.3690
 1.6620	31.3630
 1.6630	31.3600
 1.6640	31.3560
 1.6650	31.3530
 1.6660	31.3500
 1.6670	31.3450
 1.6680	31.3410
 1.6690	31.3330
 1.6700	31.3240
 1.6710	31.3150
 1.6720	31.3010
 1.6730	31.2870
 1.6740	31.2740
 1.6750	31.2570
 1.6760	31.2390
 1.6770	31.2170
 1.6780	31.1930
 1.6790	31.1660
 1.6800	31.1370
 1.6810	31.1060
 1.6820	31.0720
 1.6830	31.0360
 1.6840	30.9980
 1.6850	30.9570
 1.6860	30.9140
 1.6870	30.8700
 1.6880	30.8250
 1.6890	30.7800
 1.6900	30.7350
 1.6910	30.6880
 1.6920	30.6430
 1.6930	30.5980
 1.6940	30.5540
 1.6950	30.5120
 1.6960	30.4680
 1.6970	30.4240
 1.6980	30.3790
 1.6990	30.3310
 1.7000	30.2840
 1.7010	30.2390
 1.7020	30.1930
 1.7030	30.1460
 1.7040	30.0990
 1.7050	30.0510
 1.7060	30.0040
 1.7070	29.9570
 1.7080	29.9090
 1.7090	29.8600
 1.7100	29.8110
 1.7110	29.7600
 1.7120	29.7130
 1.7130	29.6640
 1.7140	29.6150
 1.7150	29.5640
 1.7160	29.5110
 1.7170	29.4610
 1.7180	29.4110
 1.7190	29.3610
 1.7200	29.3120
 1.7210	29.2620
 1.7220	29.2130
 1.7230	29.1640
 1.7240	29.1150
 1.7250	29.0670
 1.7260	29.0180
 1.7270	28.9700
 1.7280	28.9230
 1.7290	28.8750
 1.7300	28.8290
 1.7310	28.7830
 1.7320	28.7380
 1.7330	28.6920
 1.7340	28.6450
 1.7350	28.5980
 1.7360	28.5500
 1.7370	28.5010
 1.7380	28.4520
 1.7390	28.4010
 1.7400	28.3500
 1.7410	28.2970
 1.7420	28.2440
 1.7430	28.1890
 1.7440	28.1320
 1.7450	28.0740
 1.7460	28.0160
 1.7470	27.9570
 1.7480	27.8950
 1.7490	27.8340
 1.7500	27.7710
 1.7510	27.7090
 1.7520	27.6480
 1.7530	27.5850
 1.7540	27.5210
 1.7550	27.4550
 1.7560	27.3890
 1.7570	27.3270
 1.7580	27.2640
 1.7590	27.2030
 1.7600	27.1460
 1.7610	27.0860
 1.7620	27.0280
 1.7630	26.9720
 1.7640	26.9170
 1.7650	26.8610
 1.7660	26.8080
 1.7670	26.7560
 1.7680	26.7060
 1.7690	26.6570
 1.7700	26.6100
 1.7710	26.5630
 1.7720	26.5180
 1.7730	26.4740
 1.7740	26.4310
 1.7750	26.3910
 1.7760	26.3500
 1.7770	26.3090
 1.7780	26.2700
 1.7790	26.2330
 1.7800	26.1970
 1.7810	26.1650
 1.7820	26.1320
 1.7830	26.1000
 1.7840	26.0710
 1.7850	26.0440
 1.7860	26.0200
 1.7870	26.0010
 1.7880	25.9800
 1.7890	25.9610
 1.7900	25.9410
 1.7910	25.9240
 1.7920	25.9090
 1.7930	25.8950
 1.7940	25.8820
 1.7950	25.8710
 1.7960	25.8610
 1.7970	25.8520
 1.7980	25.8440
 1.7990	25.8380
 1.8000	25.8360
 1.8010	25.8310
 1.8020	25.8250
 1.8030	25.8220
 1.8040	25.8170
 1.8050	25.8150
 1.8060	25.8150
 1.8070	25.8130
 1.8080	25.8080
 1.8090	25.8050
 1.8100	25.8020
 1.8110	25.8010
 1.8120	25.7980
 1.8130	25.7960
 1.8140	25.7930
 1.8150	25.7900
 1.8160	25.7890
 1.8170	25.7840
 1.8180	25.7770
 1.8190	25.7660
 1.8200	25.7570
 1.8210	25.7510
 1.8220	25.7410
 1.8230	25.7300
 1.8240	25.7170
 1.8250	25.6990
 1.8260	25.6840
 1.8270	25.6400
 1.8280	25.5960
 1.8290	25.5520
 1.8300	25.5080
 1.8310	25.4640
 1.8320	25.4200
 1.8330	25.3750
 1.8340	25.3310
 1.8350	25.3310
 1.8360	25.2830
 1.8370	25.2270
 1.8380	25.1670
 1.8390	25.1010
 1.8400	25.0280
 1.8410	24.9520
 1.8420	24.8740
 1.8430	24.7890
 1.8440	24.6950
 1.8450	24.5960
 1.8460	24.4900
 1.8470	24.3710
 1.8480	24.2450
 1.8490	24.1090
 1.8500	23.9600
 1.8510	23.7990
 1.8520	23.6280
 1.8530	23.4460
 1.8540	23.2530
 1.8550	23.0490
 1.8560	22.8360
 1.8570	22.6080
 1.8580	22.3630
 1.8590	22.1060
 1.8600	21.8360
 1.8610	21.5490
 1.8620	21.2440
 1.8630	20.9270
 1.8640	20.5920
 1.8650	20.2430
 1.8660	19.8810
 1.8670	19.4990
 1.8680	19.1030
 1.8690	18.6910
 1.8700	18.2650
 1.8710	17.8210
 1.8720	17.3730
 1.8730	16.9150
 1.8740	16.4510
 1.8750	15.9860
 1.8760	15.5150
 1.8770	15.0460
 1.8780	14.5760
 1.8790	14.1060
 1.8800	13.6490
 1.8810	13.1990
 1.8820	12.7540
 1.8830	12.3150
 1.8840	11.8890
 1.8850	11.4700
 1.8860	11.0660
 1.8870	10.6830
 1.8880	10.3160
 1.8890	 9.9690
 1.8900	 9.6390
 1.8910	 9.3300
 1.8920	 9.0400
 1.8930	 8.7760
 1.8940	 8.5310
 1.8950	 8.3080
 1.8960	 8.1040
 1.8970	 7.9150
 1.8980	 7.7440
 1.8990	 7.5900
 1.9000	 7.4490
 1.9010	 7.3250
 1.9020	 7.2130
 1.9030	 7.1150
 1.9040	 7.0290
 1.9050	 6.9540
 1.9060	 6.8860
 1.9070	 6.8280
 1.9080	 6.7780
 1.9090	 6.7360
 1.9100	 6.6990
 1.9110	 6.6660
 1.9120	 6.6410
 1.9130	 6.6160
 1.9140	 6.5920
 1.9150	 6.5750
 1.9160	 6.5610
 1.9170	 6.5470
 1.9180	 6.5410
 1.9190	 6.5360
 1.9200	 6.5320
 1.9210	 6.5330
 1.9220	 6.5320
 1.9230	 6.5290
 1.9240	 6.5300
 1.9250	 6.5320
 1.9260	 6.5350
 1.9270	 6.5410
 1.9280	 6.5480
 1.9290	 6.5560
 1.9300	 6.5640
 1.9310	 6.5710
 1.9320	 6.5810
 1.9330	 6.5940
 1.9340	 6.6090
 1.9350	 6.6240
 1.9360	 6.6420
 1.9370	 6.6590
 1.9380	 6.6730
 1.9390	 6.6920
 1.9400	 6.7120
 1.9410	 6.7300
 1.9420	 6.7490
 1.9430	 6.7720
 1.9440	 6.7940
 1.9450	 6.8180
 1.9460	 6.8410
 1.9470	 6.8640
 1.9480	 6.8870
 1.9490	 6.9100
 1.9500	 6.9340
 1.9510	 6.9610
 1.9520	 6.9890
 1.9530	 7.0190
 1.9540	 7.0500
 1.9550	 7.0800
 1.9560	 7.1120
 1.9570	 7.1440
 1.9580	 7.1750
 1.9590	 7.2070
 1.9600	 7.2430
 1.9610	 7.2770
 1.9620	 7.3110
 1.9630	 7.3470
 1.9640	 7.3820
 1.9650	 7.4180
 1.9660	 7.4580
 1.9670	 7.4990
 1.9680	 7.5390
 1.9690	 7.5810
 1.9700	 7.6240
 1.9710	 7.6670
 1.9720	 7.7100
 1.9730	 7.7530
 1.9740	 7.7990
 1.9750	 7.8440
 1.9760	 7.8890
 1.9770	 7.9370
 1.9780	 7.9840
 1.9790	 8.0320
 1.9800	 8.0820
 1.9810	 8.1320
 1.9820	 8.1840
 1.9830	 8.2360
 1.9840	 8.2910
 1.9850	 8.3450
 1.9860	 8.4000
 1.9870	 8.4560
 1.9880	 8.5110
 1.9890	 8.5670
 1.9900	 8.6220
 1.9910	 8.6760
 1.9920	 8.7320
 1.9930	 8.7890
 1.9940	 8.8470
 1.9950	 8.9080
 1.9960	 8.9660
 1.9970	 9.0210
 1.9980	 9.0780
 1.9990	 9.1340
 2.0000	 9.1910
 2.0010	 9.2500
 2.0020	 9.3110
 2.0030	 9.3700
 2.0040	 9.4300
 2.0050	 9.4890
 2.0060	 9.5470
 2.0070	 9.6060
 2.0080	 9.6650
 2.0090	 9.7230
 2.0100	 9.7810
 2.0110	 9.8380
 2.0120	 9.8950
 2.0130	 9.9510
 2.0140	10.0070
 2.0150	10.0630
 2.0160	10.1190
 2.0170	10.1760
 2.0180	10.2310
 2.0190	10.2860
 2.0200	10.3410
 2.0210	10.3930
 2.0220	10.4470
 2.0230	10.5040
 2.0240	10.5570
 2.0250	10.6100
 2.0260	10.6610
 2.0270	10.7100
 2.0280	10.7570
 2.0290	10.8040
 2.0300	10.8490
 2.0310	10.8940
 2.0320	10.9380
 2.0330	10.9820
 2.0340	11.0270
 2.0350	11.0700
 2.0360	11.1130
 2.0370	11.1550
 2.0380	11.1950
 2.0390	11.2360
 2.0400	11.2780
 2.0410	11.3170
 2.0420	11.3550
 2.0430	11.3930
 2.0440	11.4300
 2.0450	11.4640
 2.0460	11.5000
 2.0470	11.5360
 2.0480	11.5730
 2.0490	11.6090
 2.0500	11.6450
 2.0510	11.6800
 2.0520	11.7170
 2.0530	11.7510
 2.0540	11.7870
 2.0550	11.8230
 2.0560	11.8610
 2.0570	11.8990
 2.0580	11.9360
 2.0590	11.9740
 2.0600	12.0120
 2.0610	12.0510
 2.0620	12.0900
 2.0630	12.1290
 2.0640	12.1690
 2.0650	12.2080
 2.0660	12.2460
 2.0670	12.2850
 2.0680	12.3270
 2.0690	12.3670
 2.0700	12.4070
 2.0710	12.4460
 2.0720	12.4810
 2.0730	12.5160
 2.0740	12.5530
 2.0750	12.5920
 2.0760	12.6300
 2.0770	12.6730
 2.0780	12.7120
 2.0790	12.7500
 2.0800	12.7870
 2.0810	12.8190
 2.0820	12.8570
 2.0830	12.8970
 2.0840	12.9350
 2.0850	12.9770
 2.0860	13.0160
 2.0870	13.0510
 2.0880	13.0850
 2.0890	13.1190
 2.0900	13.1520
 2.0910	13.1870
 2.0920	13.2230
 2.0930	13.2580
 2.0940	13.2930
 2.0950	13.3270
 2.0960	13.3590
 2.0970	13.3920
 2.0980	13.4250
 2.0990	13.4590
 2.1000	13.4960
 2.1010	13.5300
 2.1020	13.5630
 2.1030	13.5960
 2.1040	13.6280
 2.1050	13.6590
 2.1060	13.6920
 2.1070	13.7260
 2.1080	13.7570
 2.1090	13.7870
 2.1100	13.8180
 2.1110	13.8480
 2.1120	13.8770
 2.1130	13.9070
 2.1140	13.9370
 2.1150	13.9650
 2.1160	13.9950
 2.1170	14.0280
 2.1180	14.0580
 2.1190	14.0880
 2.1200	14.1160
 2.1210	14.1410
 2.1220	14.1660
 2.1230	14.1900
 2.1240	14.2120
 2.1250	14.2370
 2.1260	14.2620
 2.1270	14.2870
 2.1280	14.3140
 2.1290	14.3400
 2.1300	14.3650
 2.1310	14.3880
 2.1320	14.4090
 2.1330	14.4300
 2.1340	14.4480
 2.1350	14.4670
 2.1360	14.4850
 2.1370	14.5040
 2.1380	14.5260
 2.1390	14.5450
 2.1400	14.5610
 2.1410	14.5770
 2.1420	14.5930
 2.1430	14.6060
 2.1440	14.6220
 2.1450	14.6400
 2.1460	14.6570
 2.1470	14.6750
 2.1480	14.6920
 2.1490	14.7130
 2.1500	14.7280
 2.1510	14.7400
 2.1520	14.7520
 2.1530	14.7590
 2.1540	14.7710
 2.1550	14.7870
 2.1560	14.7990
 2.1570	14.8090
 2.1580	14.8210
 2.1590	14.8340
 2.1600	14.8450
 2.1610	14.8570
 2.1620	14.8720
 2.1630	14.8820
 2.1640	14.8890
 2.1650	14.8970
 2.1660	14.9030
 2.1670	14.9130
 2.1680	14.9220
 2.1690	14.9350
 2.1700	14.9510
 2.1710	14.9660
 2.1720	14.9800
 2.1730	14.9950
 2.1740	15.0110
 2.1750	15.0250
 2.1760	15.0370
 2.1770	15.0510
 2.1780	15.0640
 2.1790	15.0770
 2.1800	15.0940
 2.1810	15.1110
 2.1820	15.1260
 2.1830	15.1440
 2.1840	15.1630
 2.1850	15.1830
 2.1860	15.2040
 2.1870	15.2280
 2.1880	15.2480
 2.1890	15.2700
 2.1900	15.2880
 2.1910	15.3010
 2.1920	15.3180
 2.1930	15.3350
 2.1940	15.3540
 2.1950	15.3790
 2.1960	15.3980
 2.1970	15.4160
 2.1980	15.4330
 2.1990	15.4470
 2.2000	15.4620
 2.2010	15.4760
 2.2020	15.4900
 2.2030	15.5020
 2.2040	15.5150
 2.2050	15.5270
 2.2060	15.5400
 2.2070	15.5540
 2.2080	15.5710
 2.2090	15.5840
 2.2100	15.5970
 2.2110	15.6090
 2.2120	15.6190
 2.2130	15.6300
 2.2140	15.6410
 2.2150	15.6500
 2.2160	15.6580
 2.2170	15.6630
 2.2180	15.6650
 2.2190	15.6660
 2.2200	15.6660
 2.2210	15.6630
 2.2220	15.6600
 2.2230	15.6540
 2.2240	15.6430
 2.2250	15.6350
 2.2260	15.6270
 2.2270	15.6170
 2.2280	15.6080
 2.2290	15.5940
 2.2300	15.5770
 2.2310	15.5560
 2.2320	15.5290
 2.2330	15.5050
 2.2340	15.4790
 2.2350	15.4510
 2.2360	15.4200
 2.2370	15.3890
 2.2380	15.3560
 2.2390	15.3180
 2.2400	15.2820
 2.2410	15.2480
 2.2420	15.2110
 2.2430	15.1730
 2.2440	15.1320
 2.2450	15.0890
 2.2460	15.0470
 2.2470	15.0020
 2.2480	14.9560
 2.2490	14.9130
 2.2500	14.8640
 2.2510	14.8070
 2.2520	14.7560
 2.2530	14.7030
 2.2540	14.6540
 2.2550	14.6120
 2.2560	14.5660
 2.2570	14.5200
 2.2580	14.4740
 2.2590	14.4280
 2.2600	14.3800
 2.2610	14.3320
 2.2620	14.2820
 2.2630	14.2270
 2.2640	14.1750
 2.2650	14.1250
 2.2660	14.0760
 2.2670	14.0280
 2.2680	13.9820
 2.2690	13.9350
 2.2700	13.8850
 2.2710	13.8380
 2.2720	13.7900
 2.2730	13.7470
 2.2740	13.7060
 2.2750	13.6670
 2.2760	13.6330
 2.2770	13.5970
 2.2780	13.5590
 2.2790	13.5260
 2.2800	13.4970
 2.2810	13.4650
 2.2820	13.4350
 2.2830	13.4000
 2.2840	13.3600
 2.2850	13.3190
 2.2860	13.2710
 2.2870	13.2280
 2.2880	13.1800
 2.2890	13.1420
 2.2900	13.1180
 2.2910	13.0840
 2.2920	13.0530
 2.2930	13.0170
 2.2940	12.9700
 2.2950	12.9270
 2.2960	12.8810
 2.2970	12.8400
 2.2980	12.8010
 2.2990	12.7640
 2.3000	12.7320
 2.3010	12.7000
 2.3020	12.6600
 2.3030	12.6180
 2.3040	12.5760
 2.3050	12.5370
 2.3060	12.4980
 2.3070	12.4660
 2.3080	12.4400
 2.3090	12.4080
 2.3100	12.3800
 2.3110	12.3570
 2.3120	12.3310
 2.3130	12.3010
 2.3140	12.2780
 2.3150	12.2610
 2.3160	12.2390
 2.3170	12.2190
 2.3180	12.1960
 2.3190	12.1690
 2.3200	12.1440
 2.3210	12.1190
 2.3220	12.0910
 2.3230	12.0630
 2.3240	12.0330
 2.3250	11.9980
 2.3260	11.9670
 2.3270	11.9370
 2.3280	11.9080
 2.3290	11.8830
 2.3300	11.8510
 2.3310	11.8120
 2.3320	11.7750
 2.3330	11.7360
 2.3340	11.6960
 2.3350	11.6560
 2.3360	11.6180
 2.3370	11.5790
 2.3380	11.5400
 2.3390	11.5020
 2.3400	11.4670
 2.3410	11.4340
 2.3420	11.4000
 2.3430	11.3730
 2.3440	11.3400
 2.3450	11.2980
 2.3460	11.2610
 2.3470	11.2230
 2.3480	11.1880
 2.3490	11.1580
 2.3500	11.1280
 2.3510	11.1010
 2.3520	11.0740
 2.3530	11.0440
 2.3540	11.0230
 2.3550	11.0040
 2.3560	10.9720
 2.3570	10.9440
 2.3580	10.9190
 2.3590	10.8930
 2.3600	10.8740
 2.3610	10.8530
 2.3620	10.8220
 2.3630	10.7840
 2.3640	10.7460
 2.3650	10.7100
 2.3660	10.6850
 2.3670	10.6610
 2.3680	10.6330
 2.3690	10.6050
 2.3700	10.5700
 2.3710	10.5400
 2.3720	10.5160
 2.3730	10.4880
 2.3740	10.4640
 2.3750	10.4340
 2.3760	10.3990
 2.3770	10.3660
 2.3780	10.3230
 2.3790	10.2880
 2.3800	10.2550
 2.3810	10.2180
 2.3820	10.1890
 2.3830	10.1500
 2.3840	10.1070
 2.3850	10.0750
 2.3860	10.0440
 2.3870	10.0080
 2.3880	 9.9770
 2.3890	 9.9480
 2.3900	 9.9070
 2.3910	 9.8710
 2.3920	 9.8340
 2.3930	 9.7770
 2.3940	 9.7340
 2.3950	 9.7080
 2.3960	 9.6690
 2.3970	 9.6370
 2.3980	 9.6050
 2.3990	 9.5600
 2.4000	 9.5290
 2.4010	 9.5040
 2.4020	 9.4710
 2.4030	 9.4430
 2.4040	 9.4150
 2.4050	 9.3790
 2.4060	 9.3390
 2.4070	 9.2910
 2.4080	 9.2370
 2.4090	 9.1910
 2.4100	 9.1630
 2.4110	 9.1450
 2.4120	 9.1170
 2.4130	 9.0810
 2.4140	 9.0440
 2.4150	 9.0080
 2.4160	 8.9720
 2.4170	 8.9330
 2.4180	 8.8990
 2.4190	 8.8490
 2.4200	 8.8020
 2.4210	 8.7710
 2.4220	 8.7320
 2.4230	 8.7060
 2.4240	 8.6720
 2.4250	 8.6340
 2.4260	 8.6050
 2.4270	 8.5550
 2.4280	 8.5140
 2.4290	 8.4790
 2.4300	 8.4400
 2.4310	 8.4280
 2.4320	 8.4050
 2.4330	 8.3740
 2.4340	 8.3410
 2.4350	 8.2820
 2.4360	 8.2390
 2.4370	 8.2030
 2.4380	 8.1720
 2.4390	 8.1550
 2.4400	 8.1150
 2.4410	 8.0720
 2.4420	 8.0360
 2.4430	 7.9970
 2.4440	 7.9610
 2.4450	 7.9280
 2.4460	 7.8760
 2.4470	 7.8260
 2.4480	 7.7940
 2.4490	 7.7650
 2.4500	 7.7420
 2.4510	 7.7200
 2.4520	 7.6950
 2.4530	 7.6610
 2.4540	 7.6310
 2.4550	 7.6040
 2.4560	 7.5730
 2.4570	 7.5470
 2.4580	 7.5260
 2.4590	 7.5010
 2.4600	 7.4750
 2.4610	 7.4500
 2.4620	 7.4220
 2.4630	 7.4010
 2.4640	 7.3720
 2.4650	 7.3540
 2.4660	 7.3460
 2.4670	 7.3200
 2.4680	 7.2990
 2.4690	 7.2640
 2.4700	 7.2410
 2.4710	 7.2310
 2.4720	 7.2230
 2.4730	 7.2380
 2.4740	 7.2240
 2.4750	 7.1980
 2.4760	 7.1770
 2.4770	 7.1150
 2.4780	 7.0950
 2.4790	 7.1130
 2.4800	 7.0970
 2.4810	 7.0930
 2.4820	 7.0600
 2.4830	 7.0110
 2.4840	 6.9490
 2.4850	 6.9290
 2.4860	 6.9360
 2.4870	 6.9330
 2.4880	 6.9380
 2.4890	 6.9450
 2.4900	 6.9270
 2.4910	 6.9060
 2.4920	 6.9010
 2.4930	 6.8790
 2.4940	 6.8580
 2.4950	 6.8510
 2.4960	 6.8470
 2.4970	 6.8380
 2.4980	 6.8070
 2.4990	 6.7900
 2.5000	 6.7990
