Name: Bambusa beecheyana
Type: vegetation
Class: Tree
Genus: Bambusa
Species: beecheyana
Sample No.: JPL244
Owner: JPL
Wavelength Range: VSWIR
Origin: 34.12536; -118.11136; WGS84
Collection Date: 10/6/2016
Description: Samples were collected at the Huntington Garden in San Marino California as part of a JPL Subcontract studying HyTES imagery. Samples were taken to JPL and processed within 48 hours of collection. The same leaves were processed in the Nicolet and then measured using the ASD.
Measurement: Bidirectional reflectance
First Column: X
Second Column: Y
X Units: Wavelength (micrometer)
Y Units: Reflectance (percentage)
First X Value: 0.35
Last X Value: 2.5
Number of X Values: 2151
Additional Information: vegetation.tree.bambusa.beecheyana.vswir.jpl244.jpl.asd.ancillary.txt

 0.3500	 7.9760
 0.3510	 7.7240
 0.3520	 7.7470
 0.3530	 7.8610
 0.3540	 7.8580
 0.3550	 7.9030
 0.3560	 7.8960
 0.3570	 7.8240
 0.3580	 7.7280
 0.3590	 7.6370
 0.3600	 7.6180
 0.3610	 7.6600
 0.3620	 7.6590
 0.3630	 7.6580
 0.3640	 7.7050
 0.3650	 7.7960
 0.3660	 7.7420
 0.3670	 7.6650
 0.3680	 7.6170
 0.3690	 7.5980
 0.3700	 7.5700
 0.3710	 7.5770
 0.3720	 7.6280
 0.3730	 7.6600
 0.3740	 7.6600
 0.3750	 7.6510
 0.3760	 7.6540
 0.3770	 7.5950
 0.3780	 7.5750
 0.3790	 7.6050
 0.3800	 7.6130
 0.3810	 7.6170
 0.3820	 7.6330
 0.3830	 7.6580
 0.3840	 7.6260
 0.3850	 7.6360
 0.3860	 7.6560
 0.3870	 7.6300
 0.3880	 7.6650
 0.3890	 7.6880
 0.3900	 7.6810
 0.3910	 7.6900
 0.3920	 7.6830
 0.3930	 7.6710
 0.3940	 7.6750
 0.3950	 7.7240
 0.3960	 7.7480
 0.3970	 7.7410
 0.3980	 7.7290
 0.3990	 7.7240
 0.4000	 7.7280
 0.4010	 7.7380
 0.4020	 7.7530
 0.4030	 7.7520
 0.4040	 7.7380
 0.4050	 7.7220
 0.4060	 7.7370
 0.4070	 7.7740
 0.4080	 7.8040
 0.4090	 7.7970
 0.4100	 7.7990
 0.4110	 7.8110
 0.4120	 7.8250
 0.4130	 7.8240
 0.4140	 7.8260
 0.4150	 7.8370
 0.4160	 7.8510
 0.4170	 7.8490
 0.4180	 7.8430
 0.4190	 7.8440
 0.4200	 7.8590
 0.4210	 7.8570
 0.4220	 7.8570
 0.4230	 7.8710
 0.4240	 7.8640
 0.4250	 7.8570
 0.4260	 7.8580
 0.4270	 7.8640
 0.4280	 7.8510
 0.4290	 7.8440
 0.4300	 7.8470
 0.4310	 7.8200
 0.4320	 7.7910
 0.4330	 7.7710
 0.4340	 7.7620
 0.4350	 7.7490
 0.4360	 7.7420
 0.4370	 7.7460
 0.4380	 7.7630
 0.4390	 7.7790
 0.4400	 7.7930
 0.4410	 7.8070
 0.4420	 7.8170
 0.4430	 7.8240
 0.4440	 7.8270
 0.4450	 7.8300
 0.4460	 7.8280
 0.4470	 7.8340
 0.4480	 7.8460
 0.4490	 7.8510
 0.4500	 7.8540
 0.4510	 7.8560
 0.4520	 7.8580
 0.4530	 7.8600
 0.4540	 7.8680
 0.4550	 7.8790
 0.4560	 7.8780
 0.4570	 7.8760
 0.4580	 7.8750
 0.4590	 7.8720
 0.4600	 7.8690
 0.4610	 7.8750
 0.4620	 7.8790
 0.4630	 7.8710
 0.4640	 7.8690
 0.4650	 7.8720
 0.4660	 7.8740
 0.4670	 7.8690
 0.4680	 7.8670
 0.4690	 7.8640
 0.4700	 7.8580
 0.4710	 7.8650
 0.4720	 7.8680
 0.4730	 7.8670
 0.4740	 7.8630
 0.4750	 7.8630
 0.4760	 7.8650
 0.4770	 7.8670
 0.4780	 7.8730
 0.4790	 7.8760
 0.4800	 7.8730
 0.4810	 7.8620
 0.4820	 7.8580
 0.4830	 7.8570
 0.4840	 7.8530
 0.4850	 7.8380
 0.4860	 7.8310
 0.4870	 7.8330
 0.4880	 7.8400
 0.4890	 7.8440
 0.4900	 7.8460
 0.4910	 7.8530
 0.4920	 7.8700
 0.4930	 7.8870
 0.4940	 7.9050
 0.4950	 7.9220
 0.4960	 7.9360
 0.4970	 7.9550
 0.4980	 7.9790
 0.4990	 8.0050
 0.5000	 8.0370
 0.5010	 8.0660
 0.5020	 8.0960
 0.5030	 8.1350
 0.5040	 8.1810
 0.5050	 8.2310
 0.5060	 8.2830
 0.5070	 8.3400
 0.5080	 8.4080
 0.5090	 8.4840
 0.5100	 8.5630
 0.5110	 8.6540
 0.5120	 8.7540
 0.5130	 8.8640
 0.5140	 8.9890
 0.5150	 9.1270
 0.5160	 9.2720
 0.5170	 9.4230
 0.5180	 9.5920
 0.5190	 9.7690
 0.5200	 9.9510
 0.5210	10.1400
 0.5220	10.3280
 0.5230	10.5170
 0.5240	10.7080
 0.5250	10.8960
 0.5260	11.0760
 0.5270	11.2460
 0.5280	11.4050
 0.5290	11.5570
 0.5300	11.6920
 0.5310	11.8110
 0.5320	11.9190
 0.5330	12.0170
 0.5340	12.1040
 0.5350	12.1780
 0.5360	12.2440
 0.5370	12.2970
 0.5380	12.3370
 0.5390	12.3660
 0.5400	12.3840
 0.5410	12.3860
 0.5420	12.3780
 0.5430	12.3810
 0.5440	12.3970
 0.5450	12.4240
 0.5460	12.4590
 0.5470	12.5010
 0.5480	12.5350
 0.5490	12.5530
 0.5500	12.5620
 0.5510	12.5610
 0.5520	12.5490
 0.5530	12.5280
 0.5540	12.4990
 0.5550	12.4600
 0.5560	12.4100
 0.5570	12.3460
 0.5580	12.2760
 0.5590	12.1990
 0.5600	12.1130
 0.5610	12.0240
 0.5620	11.9300
 0.5630	11.8300
 0.5640	11.7230
 0.5650	11.6090
 0.5660	11.4860
 0.5670	11.3560
 0.5680	11.2220
 0.5690	11.0840
 0.5700	10.9480
 0.5710	10.8200
 0.5720	10.6940
 0.5730	10.5750
 0.5740	10.4660
 0.5750	10.3680
 0.5760	10.2810
 0.5770	10.2050
 0.5780	10.1360
 0.5790	10.0610
 0.5800	 9.9880
 0.5810	 9.9190
 0.5820	 9.8540
 0.5830	 9.7890
 0.5840	 9.7320
 0.5850	 9.6820
 0.5860	 9.6330
 0.5870	 9.5770
 0.5880	 9.5210
 0.5890	 9.4740
 0.5900	 9.4380
 0.5910	 9.4130
 0.5920	 9.3930
 0.5930	 9.3740
 0.5940	 9.3590
 0.5950	 9.3430
 0.5960	 9.3260
 0.5970	 9.3090
 0.5980	 9.2910
 0.5990	 9.2710
 0.6000	 9.2480
 0.6010	 9.2270
 0.6020	 9.2040
 0.6030	 9.1780
 0.6040	 9.1500
 0.6050	 9.1220
 0.6060	 9.0870
 0.6070	 9.0420
 0.6080	 8.9970
 0.6090	 8.9400
 0.6100	 8.8650
 0.6110	 8.7760
 0.6120	 8.7320
 0.6130	 8.7160
 0.6140	 8.7040
 0.6150	 8.6730
 0.6160	 8.6390
 0.6170	 8.6060
 0.6180	 8.5740
 0.6190	 8.5420
 0.6200	 8.5120
 0.6210	 8.4870
 0.6220	 8.4660
 0.6230	 8.4480
 0.6240	 8.4320
 0.6250	 8.4190
 0.6260	 8.4140
 0.6270	 8.4080
 0.6280	 8.4000
 0.6290	 8.3910
 0.6300	 8.3790
 0.6310	 8.3710
 0.6320	 8.3670
 0.6330	 8.3600
 0.6340	 8.3490
 0.6350	 8.3330
 0.6360	 8.3120
 0.6370	 8.2850
 0.6380	 8.2570
 0.6390	 8.2260
 0.6400	 8.1930
 0.6410	 8.1630
 0.6420	 8.1350
 0.6430	 8.1070
 0.6440	 8.0770
 0.6450	 8.0490
 0.6460	 8.0230
 0.6470	 7.9990
 0.6480	 7.9770
 0.6490	 7.9590
 0.6500	 7.9440
 0.6510	 7.9350
 0.6520	 7.9270
 0.6530	 7.9220
 0.6540	 7.9180
 0.6550	 7.9130
 0.6560	 7.9090
 0.6570	 7.9030
 0.6580	 7.8930
 0.6590	 7.8850
 0.6600	 7.8790
 0.6610	 7.8760
 0.6620	 7.8720
 0.6630	 7.8700
 0.6640	 7.8730
 0.6650	 7.8810
 0.6660	 7.8910
 0.6670	 7.9050
 0.6680	 7.9230
 0.6690	 7.9490
 0.6700	 7.9780
 0.6710	 8.0110
 0.6720	 8.0490
 0.6730	 8.0940
 0.6740	 8.1400
 0.6750	 8.1910
 0.6760	 8.2500
 0.6770	 8.3150
 0.6780	 8.3820
 0.6790	 8.4520
 0.6800	 8.5280
 0.6810	 8.6060
 0.6820	 8.6830
 0.6830	 8.7590
 0.6840	 8.8320
 0.6850	 8.9030
 0.6860	 8.9710
 0.6870	 9.0360
 0.6880	 9.1020
 0.6890	 9.1810
 0.6900	 9.2780
 0.6910	 9.3990
 0.6920	 9.5590
 0.6930	 9.7660
 0.6940	10.0280
 0.6950	10.3520
 0.6960	10.7420
 0.6970	11.1980
 0.6980	11.7170
 0.6990	12.2960
 0.7000	12.9280
 0.7010	13.6060
 0.7020	14.3220
 0.7030	15.0620
 0.7040	15.8210
 0.7050	16.5930
 0.7060	17.3720
 0.7070	18.1620
 0.7080	18.9610
 0.7090	19.7690
 0.7100	20.5860
 0.7110	21.4090
 0.7120	22.2380
 0.7130	23.0780
 0.7140	23.9280
 0.7150	24.7900
 0.7160	25.6600
 0.7170	26.5390
 0.7180	27.4260
 0.7190	28.3180
 0.7200	29.2170
 0.7210	30.1160
 0.7220	31.0180
 0.7230	31.9180
 0.7240	32.8120
 0.7250	33.7000
 0.7260	34.5780
 0.7270	35.4430
 0.7280	36.2970
 0.7290	37.1330
 0.7300	37.9500
 0.7310	38.7460
 0.7320	39.5220
 0.7330	40.2700
 0.7340	40.9880
 0.7350	41.6800
 0.7360	42.3430
 0.7370	42.9730
 0.7380	43.5720
 0.7390	44.1450
 0.7400	44.6810
 0.7410	45.1800
 0.7420	45.6480
 0.7430	46.0810
 0.7440	46.4810
 0.7450	46.8490
 0.7460	47.1860
 0.7470	47.4900
 0.7480	47.7660
 0.7490	48.0170
 0.7500	48.2420
 0.7510	48.4430
 0.7520	48.6220
 0.7530	48.7800
 0.7540	48.9230
 0.7550	49.0480
 0.7560	49.1600
 0.7570	49.2620
 0.7580	49.3510
 0.7590	49.4280
 0.7600	49.4940
 0.7610	49.5520
 0.7620	49.5980
 0.7630	49.6350
 0.7640	49.6660
 0.7650	49.6910
 0.7660	49.7100
 0.7670	49.7240
 0.7680	49.7310
 0.7690	49.7360
 0.7700	49.7370
 0.7710	49.7350
 0.7720	49.7340
 0.7730	49.7330
 0.7740	49.7300
 0.7750	49.7240
 0.7760	49.7210
 0.7770	49.7170
 0.7780	49.7120
 0.7790	49.7060
 0.7800	49.7030
 0.7810	49.7010
 0.7820	49.6960
 0.7830	49.6900
 0.7840	49.6830
 0.7850	49.6760
 0.7860	49.6700
 0.7870	49.6670
 0.7880	49.6620
 0.7890	49.6550
 0.7900	49.6480
 0.7910	49.6400
 0.7920	49.6320
 0.7930	49.6220
 0.7940	49.6100
 0.7950	49.5980
 0.7960	49.5870
 0.7970	49.5770
 0.7980	49.5640
 0.7990	49.5520
 0.8000	49.5400
 0.8010	49.5260
 0.8020	49.5110
 0.8030	49.4980
 0.8040	49.4850
 0.8050	49.4660
 0.8060	49.4480
 0.8070	49.4280
 0.8080	49.4080
 0.8090	49.3940
 0.8100	49.3780
 0.8110	49.3570
 0.8120	49.3350
 0.8130	49.3170
 0.8140	49.2980
 0.8150	49.2760
 0.8160	49.2510
 0.8170	49.2320
 0.8180	49.2120
 0.8190	49.1910
 0.8200	49.1700
 0.8210	49.1480
 0.8220	49.1250
 0.8230	49.1030
 0.8240	49.0860
 0.8250	49.0590
 0.8260	49.0340
 0.8270	49.0150
 0.8280	48.9930
 0.8290	48.9760
 0.8300	48.9580
 0.8310	48.9360
 0.8320	48.9120
 0.8330	48.8900
 0.8340	48.8700
 0.8350	48.8490
 0.8360	48.8340
 0.8370	48.8170
 0.8380	48.7980
 0.8390	48.7800
 0.8400	48.7650
 0.8410	48.7490
 0.8420	48.7310
 0.8430	48.7190
 0.8440	48.7040
 0.8450	48.6890
 0.8460	48.6760
 0.8470	48.6640
 0.8480	48.6510
 0.8490	48.6370
 0.8500	48.6240
 0.8510	48.6190
 0.8520	48.6130
 0.8530	48.6020
 0.8540	48.5910
 0.8550	48.5880
 0.8560	48.5830
 0.8570	48.5710
 0.8580	48.5600
 0.8590	48.5540
 0.8600	48.5500
 0.8610	48.5450
 0.8620	48.5420
 0.8630	48.5370
 0.8640	48.5310
 0.8650	48.5270
 0.8660	48.5260
 0.8670	48.5260
 0.8680	48.5260
 0.8690	48.5230
 0.8700	48.5220
 0.8710	48.5220
 0.8720	48.5210
 0.8730	48.5220
 0.8740	48.5240
 0.8750	48.5260
 0.8760	48.5250
 0.8770	48.5210
 0.8780	48.5270
 0.8790	48.5310
 0.8800	48.5290
 0.8810	48.5280
 0.8820	48.5300
 0.8830	48.5350
 0.8840	48.5400
 0.8850	48.5440
 0.8860	48.5450
 0.8870	48.5460
 0.8880	48.5480
 0.8890	48.5570
 0.8900	48.5620
 0.8910	48.5610
 0.8920	48.5580
 0.8930	48.5630
 0.8940	48.5710
 0.8950	48.5750
 0.8960	48.5730
 0.8970	48.5750
 0.8980	48.5820
 0.8990	48.5880
 0.9000	48.5830
 0.9010	48.5850
 0.9020	48.5860
 0.9030	48.5830
 0.9040	48.5880
 0.9050	48.5920
 0.9060	48.5930
 0.9070	48.5930
 0.9080	48.5900
 0.9090	48.5920
 0.9100	48.5950
 0.9110	48.5950
 0.9120	48.5960
 0.9130	48.5980
 0.9140	48.5990
 0.9150	48.5960
 0.9160	48.5910
 0.9170	48.5930
 0.9180	48.5960
 0.9190	48.5900
 0.9200	48.5840
 0.9210	48.5800
 0.9220	48.5760
 0.9230	48.5660
 0.9240	48.5610
 0.9250	48.5550
 0.9260	48.5460
 0.9270	48.5340
 0.9280	48.5250
 0.9290	48.5160
 0.9300	48.5070
 0.9310	48.5010
 0.9320	48.4860
 0.9330	48.4720
 0.9340	48.4610
 0.9350	48.4470
 0.9360	48.4340
 0.9370	48.4210
 0.9380	48.4060
 0.9390	48.3900
 0.9400	48.3750
 0.9410	48.3540
 0.9420	48.3280
 0.9430	48.3170
 0.9440	48.2990
 0.9450	48.2770
 0.9460	48.2550
 0.9470	48.2340
 0.9480	48.2120
 0.9490	48.1860
 0.9500	48.1590
 0.9510	48.1340
 0.9520	48.1010
 0.9530	48.0660
 0.9540	48.0390
 0.9550	48.0120
 0.9560	47.9890
 0.9570	47.9610
 0.9580	47.9250
 0.9590	47.9060
 0.9600	47.8770
 0.9610	47.8470
 0.9620	47.8320
 0.9630	47.8080
 0.9640	47.7900
 0.9650	47.7730
 0.9660	47.7500
 0.9670	47.7420
 0.9680	47.7300
 0.9690	47.7140
 0.9700	47.7020
 0.9710	47.6880
 0.9720	47.6710
 0.9730	47.6540
 0.9740	47.6410
 0.9750	47.6310
 0.9760	47.6190
 0.9770	47.6090
 0.9780	47.6030
 0.9790	47.5930
 0.9800	47.5960
 0.9810	47.5980
 0.9820	47.5810
 0.9830	47.5760
 0.9840	47.5710
 0.9850	47.5620
 0.9860	47.5520
 0.9870	47.5510
 0.9880	47.5500
 0.9890	47.5400
 0.9900	47.5190
 0.9910	47.5170
 0.9920	47.5260
 0.9930	47.5350
 0.9940	47.5300
 0.9950	47.5230
 0.9960	47.5190
 0.9970	47.5190
 0.9980	47.5170
 0.9990	47.5100
 1.0000	47.5060
 1.0010	47.9500
 1.0020	47.9540
 1.0030	47.9540
 1.0040	47.9520
 1.0050	47.9530
 1.0060	47.9520
 1.0070	47.9500
 1.0080	47.9520
 1.0090	47.9590
 1.0100	47.9600
 1.0110	47.9570
 1.0120	47.9590
 1.0130	47.9630
 1.0140	47.9650
 1.0150	47.9680
 1.0160	47.9730
 1.0170	47.9710
 1.0180	47.9670
 1.0190	47.9670
 1.0200	47.9740
 1.0210	47.9750
 1.0220	47.9750
 1.0230	47.9790
 1.0240	47.9810
 1.0250	47.9850
 1.0260	47.9970
 1.0270	48.0010
 1.0280	47.9970
 1.0290	48.0000
 1.0300	48.0050
 1.0310	48.0060
 1.0320	48.0090
 1.0330	48.0130
 1.0340	48.0140
 1.0350	48.0180
 1.0360	48.0270
 1.0370	48.0330
 1.0380	48.0350
 1.0390	48.0330
 1.0400	48.0340
 1.0410	48.0340
 1.0420	48.0370
 1.0430	48.0450
 1.0440	48.0480
 1.0450	48.0480
 1.0460	48.0490
 1.0470	48.0470
 1.0480	48.0460
 1.0490	48.0440
 1.0500	48.0440
 1.0510	48.0440
 1.0520	48.0450
 1.0530	48.0470
 1.0540	48.0520
 1.0550	48.0530
 1.0560	48.0510
 1.0570	48.0510
 1.0580	48.0480
 1.0590	48.0460
 1.0600	48.0450
 1.0610	48.0440
 1.0620	48.0420
 1.0630	48.0410
 1.0640	48.0420
 1.0650	48.0420
 1.0660	48.0420
 1.0670	48.0400
 1.0680	48.0380
 1.0690	48.0350
 1.0700	48.0310
 1.0710	48.0260
 1.0720	48.0220
 1.0730	48.0200
 1.0740	48.0160
 1.0750	48.0130
 1.0760	48.0100
 1.0770	48.0050
 1.0780	48.0000
 1.0790	47.9950
 1.0800	47.9910
 1.0810	47.9850
 1.0820	47.9810
 1.0830	47.9790
 1.0840	47.9760
 1.0850	47.9740
 1.0860	47.9700
 1.0870	47.9670
 1.0880	47.9620
 1.0890	47.9580
 1.0900	47.9540
 1.0910	47.9500
 1.0920	47.9470
 1.0930	47.9430
 1.0940	47.9400
 1.0950	47.9360
 1.0960	47.9330
 1.0970	47.9280
 1.0980	47.9220
 1.0990	47.9170
 1.1000	47.9110
 1.1010	47.9060
 1.1020	47.9030
 1.1030	47.9000
 1.1040	47.8930
 1.1050	47.8890
 1.1060	47.8870
 1.1070	47.8850
 1.1080	47.8820
 1.1090	47.8810
 1.1100	47.8780
 1.1110	47.8710
 1.1120	47.8670
 1.1130	47.8650
 1.1140	47.8610
 1.1150	47.8550
 1.1160	47.8500
 1.1170	47.8420
 1.1180	47.8340
 1.1190	47.8250
 1.1200	47.8170
 1.1210	47.8060
 1.1220	47.7920
 1.1230	47.7770
 1.1240	47.7650
 1.1250	47.7500
 1.1260	47.7350
 1.1270	47.7160
 1.1280	47.6960
 1.1290	47.6730
 1.1300	47.6480
 1.1310	47.6190
 1.1320	47.5880
 1.1330	47.5540
 1.1340	47.5160
 1.1350	47.4770
 1.1360	47.4360
 1.1370	47.3930
 1.1380	47.3460
 1.1390	47.2990
 1.1400	47.2490
 1.1410	47.1940
 1.1420	47.1420
 1.1430	47.0890
 1.1440	47.0340
 1.1450	46.9790
 1.1460	46.9250
 1.1470	46.8690
 1.1480	46.8180
 1.1490	46.7700
 1.1500	46.7230
 1.1510	46.6780
 1.1520	46.6340
 1.1530	46.5900
 1.1540	46.5500
 1.1550	46.5120
 1.1560	46.4790
 1.1570	46.4500
 1.1580	46.4240
 1.1590	46.3990
 1.1600	46.3750
 1.1610	46.3520
 1.1620	46.3330
 1.1630	46.3170
 1.1640	46.3020
 1.1650	46.2880
 1.1660	46.2770
 1.1670	46.2650
 1.1680	46.2540
 1.1690	46.2430
 1.1700	46.2310
 1.1710	46.2200
 1.1720	46.2100
 1.1730	46.1990
 1.1740	46.1890
 1.1750	46.1780
 1.1760	46.1670
 1.1770	46.1570
 1.1780	46.1480
 1.1790	46.1380
 1.1800	46.1250
 1.1810	46.1140
 1.1820	46.1020
 1.1830	46.0910
 1.1840	46.0800
 1.1850	46.0690
 1.1860	46.0570
 1.1870	46.0470
 1.1880	46.0360
 1.1890	46.0260
 1.1900	46.0180
 1.1910	46.0100
 1.1920	46.0020
 1.1930	45.9960
 1.1940	45.9890
 1.1950	45.9820
 1.1960	45.9760
 1.1970	45.9700
 1.1980	45.9650
 1.1990	45.9620
 1.2000	45.9620
 1.2010	45.9590
 1.2020	45.9590
 1.2030	45.9600
 1.2040	45.9590
 1.2050	45.9600
 1.2060	45.9620
 1.2070	45.9620
 1.2080	45.9630
 1.2090	45.9660
 1.2100	45.9690
 1.2110	45.9740
 1.2120	45.9810
 1.2130	45.9860
 1.2140	45.9890
 1.2150	45.9930
 1.2160	45.9950
 1.2170	45.9990
 1.2180	46.0060
 1.2190	46.0120
 1.2200	46.0190
 1.2210	46.0250
 1.2220	46.0290
 1.2230	46.0330
 1.2240	46.0380
 1.2250	46.0440
 1.2260	46.0520
 1.2270	46.0590
 1.2280	46.0640
 1.2290	46.0680
 1.2300	46.0730
 1.2310	46.0770
 1.2320	46.0830
 1.2330	46.0900
 1.2340	46.0960
 1.2350	46.0990
 1.2360	46.1030
 1.2370	46.1080
 1.2380	46.1100
 1.2390	46.1140
 1.2400	46.1190
 1.2410	46.1230
 1.2420	46.1270
 1.2430	46.1300
 1.2440	46.1320
 1.2450	46.1340
 1.2460	46.1380
 1.2470	46.1420
 1.2480	46.1430
 1.2490	46.1450
 1.2500	46.1460
 1.2510	46.1450
 1.2520	46.1470
 1.2530	46.1480
 1.2540	46.1480
 1.2550	46.1490
 1.2560	46.1470
 1.2570	46.1450
 1.2580	46.1430
 1.2590	46.1410
 1.2600	46.1390
 1.2610	46.1370
 1.2620	46.1350
 1.2630	46.1330
 1.2640	46.1280
 1.2650	46.1230
 1.2660	46.1190
 1.2670	46.1140
 1.2680	46.1110
 1.2690	46.1070
 1.2700	46.1000
 1.2710	46.0940
 1.2720	46.0880
 1.2730	46.0810
 1.2740	46.0760
 1.2750	46.0690
 1.2760	46.0610
 1.2770	46.0540
 1.2780	46.0470
 1.2790	46.0400
 1.2800	46.0320
 1.2810	46.0190
 1.2820	46.0040
 1.2830	45.9890
 1.2840	45.9740
 1.2850	45.9590
 1.2860	45.9460
 1.2870	45.9300
 1.2880	45.9140
 1.2890	45.8970
 1.2900	45.8770
 1.2910	45.8570
 1.2920	45.8370
 1.2930	45.8150
 1.2940	45.7910
 1.2950	45.7670
 1.2960	45.7410
 1.2970	45.7150
 1.2980	45.6890
 1.2990	45.6610
 1.3000	45.6300
 1.3010	45.5980
 1.3020	45.5650
 1.3030	45.5320
 1.3040	45.4990
 1.3050	45.4640
 1.3060	45.4290
 1.3070	45.3920
 1.3080	45.3550
 1.3090	45.3170
 1.3100	45.2770
 1.3110	45.2380
 1.3120	45.1970
 1.3130	45.1580
 1.3140	45.1160
 1.3150	45.0720
 1.3160	45.0280
 1.3170	44.9830
 1.3180	44.9360
 1.3190	44.8900
 1.3200	44.8430
 1.3210	44.7930
 1.3220	44.7420
 1.3230	44.6900
 1.3240	44.6380
 1.3250	44.5870
 1.3260	44.5330
 1.3270	44.4790
 1.3280	44.4230
 1.3290	44.3660
 1.3300	44.3080
 1.3310	44.2480
 1.3320	44.1880
 1.3330	44.1290
 1.3340	44.0680
 1.3350	44.0080
 1.3360	43.9460
 1.3370	43.8830
 1.3380	43.8210
 1.3390	43.7600
 1.3400	43.6970
 1.3410	43.6360
 1.3420	43.5740
 1.3430	43.5120
 1.3440	43.4510
 1.3450	43.3900
 1.3460	43.3290
 1.3470	43.2690
 1.3480	43.2080
 1.3490	43.1480
 1.3500	43.0890
 1.3510	43.0300
 1.3520	42.9700
 1.3530	42.9100
 1.3540	42.8490
 1.3550	42.7870
 1.3560	42.7260
 1.3570	42.6640
 1.3580	42.6000
 1.3590	42.5350
 1.3600	42.4680
 1.3610	42.3990
 1.3620	42.3320
 1.3630	42.2610
 1.3640	42.1860
 1.3650	42.1050
 1.3660	42.0200
 1.3670	41.9290
 1.3680	41.8330
 1.3690	41.7320
 1.3700	41.6250
 1.3710	41.5090
 1.3720	41.3840
 1.3730	41.2480
 1.3740	41.1020
 1.3750	40.9420
 1.3760	40.7670
 1.3770	40.5820
 1.3780	40.3780
 1.3790	40.1580
 1.3800	39.9240
 1.3810	39.6700
 1.3820	39.4010
 1.3830	39.1180
 1.3840	38.8140
 1.3850	38.4930
 1.3860	38.1550
 1.3870	37.7950
 1.3880	37.4280
 1.3890	37.0460
 1.3900	36.6490
 1.3910	36.2460
 1.3920	35.8310
 1.3930	35.4040
 1.3940	34.9760
 1.3950	34.5400
 1.3960	34.1040
 1.3970	33.6710
 1.3980	33.2390
 1.3990	32.8170
 1.4000	32.4000
 1.4010	31.9880
 1.4020	31.5890
 1.4030	31.1960
 1.4040	30.8170
 1.4050	30.4540
 1.4060	30.1030
 1.4070	29.7690
 1.4080	29.4510
 1.4090	29.1470
 1.4100	28.8600
 1.4110	28.5860
 1.4120	28.3290
 1.4130	28.0850
 1.4140	27.8550
 1.4150	27.6420
 1.4160	27.4410
 1.4170	27.2540
 1.4180	27.0790
 1.4190	26.9160
 1.4200	26.7630
 1.4210	26.6210
 1.4220	26.4880
 1.4230	26.3660
 1.4240	26.2520
 1.4250	26.1460
 1.4260	26.0490
 1.4270	25.9590
 1.4280	25.8770
 1.4290	25.8010
 1.4300	25.7330
 1.4310	25.6700
 1.4320	25.6150
 1.4330	25.5640
 1.4340	25.5190
 1.4350	25.4780
 1.4360	25.4420
 1.4370	25.4110
 1.4380	25.3840
 1.4390	25.3640
 1.4400	25.3460
 1.4410	25.3320
 1.4420	25.3210
 1.4430	25.3120
 1.4440	25.3050
 1.4450	25.3020
 1.4460	25.3000
 1.4470	25.3020
 1.4480	25.3060
 1.4490	25.3110
 1.4500	25.3190
 1.4510	25.3290
 1.4520	25.3410
 1.4530	25.3540
 1.4540	25.3700
 1.4550	25.3890
 1.4560	25.4090
 1.4570	25.4330
 1.4580	25.4600
 1.4590	25.4900
 1.4600	25.5250
 1.4610	25.5640
 1.4620	25.6080
 1.4630	25.6570
 1.4640	25.7100
 1.4650	25.7690
 1.4660	25.8320
 1.4670	25.9000
 1.4680	25.9730
 1.4690	26.0500
 1.4700	26.1310
 1.4710	26.2180
 1.4720	26.3070
 1.4730	26.4010
 1.4740	26.4980
 1.4750	26.5960
 1.4760	26.6990
 1.4770	26.8030
 1.4780	26.9090
 1.4790	27.0180
 1.4800	27.1270
 1.4810	27.2370
 1.4820	27.3490
 1.4830	27.4590
 1.4840	27.5730
 1.4850	27.6870
 1.4860	27.8020
 1.4870	27.9190
 1.4880	28.0350
 1.4890	28.1510
 1.4900	28.2670
 1.4910	28.3830
 1.4920	28.5000
 1.4930	28.6180
 1.4940	28.7360
 1.4950	28.8560
 1.4960	28.9740
 1.4970	29.0900
 1.4980	29.2070
 1.4990	29.3250
 1.5000	29.4430
 1.5010	29.5620
 1.5020	29.6800
 1.5030	29.7970
 1.5040	29.9140
 1.5050	30.0310
 1.5060	30.1470
 1.5070	30.2620
 1.5080	30.3780
 1.5090	30.4950
 1.5100	30.6100
 1.5110	30.7240
 1.5120	30.8390
 1.5130	30.9500
 1.5140	31.0610
 1.5150	31.1740
 1.5160	31.2850
 1.5170	31.3980
 1.5180	31.5090
 1.5190	31.6180
 1.5200	31.7270
 1.5210	31.8330
 1.5220	31.9390
 1.5230	32.0450
 1.5240	32.1480
 1.5250	32.2530
 1.5260	32.3560
 1.5270	32.4560
 1.5280	32.5560
 1.5290	32.6540
 1.5300	32.7500
 1.5310	32.8470
 1.5320	32.9420
 1.5330	33.0380
 1.5340	33.1320
 1.5350	33.2240
 1.5360	33.3170
 1.5370	33.4080
 1.5380	33.4970
 1.5390	33.5860
 1.5400	33.6720
 1.5410	33.7590
 1.5420	33.8440
 1.5430	33.9300
 1.5440	34.0140
 1.5450	34.0980
 1.5460	34.1820
 1.5470	34.2630
 1.5480	34.3430
 1.5490	34.4220
 1.5500	34.4990
 1.5510	34.5780
 1.5520	34.6550
 1.5530	34.7290
 1.5540	34.8030
 1.5550	34.8760
 1.5560	34.9480
 1.5570	35.0200
 1.5580	35.0900
 1.5590	35.1580
 1.5600	35.2250
 1.5610	35.2890
 1.5620	35.3540
 1.5630	35.4180
 1.5640	35.4810
 1.5650	35.5430
 1.5660	35.6030
 1.5670	35.6630
 1.5680	35.7220
 1.5690	35.7790
 1.5700	35.8350
 1.5710	35.8910
 1.5720	35.9460
 1.5730	36.0010
 1.5740	36.0580
 1.5750	36.1140
 1.5760	36.1690
 1.5770	36.2210
 1.5780	36.2730
 1.5790	36.3250
 1.5800	36.3770
 1.5810	36.4280
 1.5820	36.4810
 1.5830	36.5310
 1.5840	36.5810
 1.5850	36.6320
 1.5860	36.6820
 1.5870	36.7340
 1.5880	36.7840
 1.5890	36.8340
 1.5900	36.8830
 1.5910	36.9310
 1.5920	36.9820
 1.5930	37.0310
 1.5940	37.0810
 1.5950	37.1310
 1.5960	37.1780
 1.5970	37.2260
 1.5980	37.2730
 1.5990	37.3190
 1.6000	37.3640
 1.6010	37.4090
 1.6020	37.4550
 1.6030	37.5000
 1.6040	37.5460
 1.6050	37.5900
 1.6060	37.6320
 1.6070	37.6740
 1.6080	37.7160
 1.6090	37.7550
 1.6100	37.7940
 1.6110	37.8330
 1.6120	37.8710
 1.6130	37.9110
 1.6140	37.9500
 1.6150	37.9860
 1.6160	38.0220
 1.6170	38.0560
 1.6180	38.0870
 1.6190	38.1200
 1.6200	38.1520
 1.6210	38.1830
 1.6220	38.2140
 1.6230	38.2440
 1.6240	38.2730
 1.6250	38.3020
 1.6260	38.3330
 1.6270	38.3630
 1.6280	38.3890
 1.6290	38.4160
 1.6300	38.4400
 1.6310	38.4650
 1.6320	38.4920
 1.6330	38.5160
 1.6340	38.5400
 1.6350	38.5620
 1.6360	38.5820
 1.6370	38.6000
 1.6380	38.6170
 1.6390	38.6340
 1.6400	38.6520
 1.6410	38.6690
 1.6420	38.6870
 1.6430	38.7020
 1.6440	38.7170
 1.6450	38.7320
 1.6460	38.7450
 1.6470	38.7570
 1.6480	38.7690
 1.6490	38.7790
 1.6500	38.7880
 1.6510	38.7960
 1.6520	38.8010
 1.6530	38.8070
 1.6540	38.8110
 1.6550	38.8100
 1.6560	38.8100
 1.6570	38.8080
 1.6580	38.8040
 1.6590	38.8000
 1.6600	38.7960
 1.6610	38.7910
 1.6620	38.7860
 1.6630	38.7820
 1.6640	38.7770
 1.6650	38.7730
 1.6660	38.7690
 1.6670	38.7650
 1.6680	38.7590
 1.6690	38.7500
 1.6700	38.7400
 1.6710	38.7270
 1.6720	38.7130
 1.6730	38.6980
 1.6740	38.6810
 1.6750	38.6650
 1.6760	38.6440
 1.6770	38.6230
 1.6780	38.6000
 1.6790	38.5730
 1.6800	38.5450
 1.6810	38.5190
 1.6820	38.4890
 1.6830	38.4580
 1.6840	38.4270
 1.6850	38.3930
 1.6860	38.3610
 1.6870	38.3300
 1.6880	38.2990
 1.6890	38.2650
 1.6900	38.2320
 1.6910	38.2000
 1.6920	38.1690
 1.6930	38.1380
 1.6940	38.1070
 1.6950	38.0760
 1.6960	38.0470
 1.6970	38.0190
 1.6980	37.9890
 1.6990	37.9590
 1.7000	37.9290
 1.7010	37.8990
 1.7020	37.8680
 1.7030	37.8370
 1.7040	37.8070
 1.7050	37.7760
 1.7060	37.7460
 1.7070	37.7180
 1.7080	37.6890
 1.7090	37.6590
 1.7100	37.6270
 1.7110	37.5950
 1.7120	37.5640
 1.7130	37.5320
 1.7140	37.4980
 1.7150	37.4660
 1.7160	37.4350
 1.7170	37.4030
 1.7180	37.3740
 1.7190	37.3460
 1.7200	37.3150
 1.7210	37.2830
 1.7220	37.2510
 1.7230	37.2200
 1.7240	37.1900
 1.7250	37.1600
 1.7260	37.1280
 1.7270	37.0970
 1.7280	37.0660
 1.7290	37.0350
 1.7300	37.0080
 1.7310	36.9820
 1.7320	36.9570
 1.7330	36.9320
 1.7340	36.9070
 1.7350	36.8820
 1.7360	36.8560
 1.7370	36.8290
 1.7380	36.8020
 1.7390	36.7730
 1.7400	36.7400
 1.7410	36.7070
 1.7420	36.6710
 1.7430	36.6340
 1.7440	36.5960
 1.7450	36.5560
 1.7460	36.5140
 1.7470	36.4720
 1.7480	36.4290
 1.7490	36.3860
 1.7500	36.3400
 1.7510	36.2960
 1.7520	36.2510
 1.7530	36.2060
 1.7540	36.1620
 1.7550	36.1170
 1.7560	36.0720
 1.7570	36.0240
 1.7580	35.9770
 1.7590	35.9300
 1.7600	35.8820
 1.7610	35.8400
 1.7620	35.7970
 1.7630	35.7540
 1.7640	35.7140
 1.7650	35.6770
 1.7660	35.6400
 1.7670	35.6070
 1.7680	35.5740
 1.7690	35.5410
 1.7700	35.5090
 1.7710	35.4780
 1.7720	35.4480
 1.7730	35.4170
 1.7740	35.3890
 1.7750	35.3620
 1.7760	35.3370
 1.7770	35.3140
 1.7780	35.2910
 1.7790	35.2700
 1.7800	35.2510
 1.7810	35.2340
 1.7820	35.2180
 1.7830	35.2050
 1.7840	35.1930
 1.7850	35.1840
 1.7860	35.1730
 1.7870	35.1650
 1.7880	35.1560
 1.7890	35.1470
 1.7900	35.1400
 1.7910	35.1350
 1.7920	35.1320
 1.7930	35.1300
 1.7940	35.1290
 1.7950	35.1280
 1.7960	35.1280
 1.7970	35.1300
 1.7980	35.1360
 1.7990	35.1380
 1.8000	35.1380
 1.8010	35.1410
 1.8020	35.1440
 1.8030	35.1500
 1.8040	35.1610
 1.8050	35.1680
 1.8060	35.1740
 1.8070	35.1780
 1.8080	35.1800
 1.8090	35.1830
 1.8100	35.1840
 1.8110	35.1850
 1.8120	35.1900
 1.8130	35.1940
 1.8140	35.1970
 1.8150	35.1990
 1.8160	35.2010
 1.8170	35.2000
 1.8180	35.1980
 1.8190	35.1940
 1.8200	35.1920
 1.8210	35.1910
 1.8220	35.1900
 1.8230	35.1920
 1.8240	35.1880
 1.8250	35.1810
 1.8260	35.1710
 1.8270	35.1540
 1.8280	35.1430
 1.8290	35.1350
 1.8300	35.1220
 1.8310	35.4260
 1.8320	35.4060
 1.8330	35.3800
 1.8340	35.3570
 1.8350	35.3360
 1.8360	35.3080
 1.8370	35.2760
 1.8380	35.2370
 1.8390	35.1960
 1.8400	35.1510
 1.8410	35.1040
 1.8420	35.0570
 1.8430	35.0070
 1.8440	34.9490
 1.8450	34.8780
 1.8460	34.8050
 1.8470	34.7200
 1.8480	34.6260
 1.8490	34.5310
 1.8500	34.4260
 1.8510	34.3140
 1.8520	34.1930
 1.8530	34.0630
 1.8540	33.9210
 1.8550	33.7690
 1.8560	33.6050
 1.8570	33.4300
 1.8580	33.2410
 1.8590	33.0350
 1.8600	32.8120
 1.8610	32.5730
 1.8620	32.3160
 1.8630	32.0460
 1.8640	31.7600
 1.8650	31.4520
 1.8660	31.1310
 1.8670	30.7880
 1.8680	30.4250
 1.8690	30.0440
 1.8700	29.6390
 1.8710	29.2110
 1.8720	28.7640
 1.8730	28.2990
 1.8740	27.8160
 1.8750	27.3180
 1.8760	26.7990
 1.8770	26.2660
 1.8780	25.7210
 1.8790	25.1610
 1.8800	24.5990
 1.8810	24.0310
 1.8820	23.4530
 1.8830	22.8660
 1.8840	22.2780
 1.8850	21.6840
 1.8860	21.0930
 1.8870	20.5140
 1.8880	19.9400
 1.8890	19.3790
 1.8900	18.8360
 1.8910	18.3120
 1.8920	17.8010
 1.8930	17.3150
 1.8940	16.8520
 1.8950	16.4130
 1.8960	15.9980
 1.8970	15.6050
 1.8980	15.2410
 1.8990	14.9040
 1.9000	14.5900
 1.9010	14.3060
 1.9020	14.0420
 1.9030	13.8040
 1.9040	13.5850
 1.9050	13.3820
 1.9060	13.1930
 1.9070	13.0280
 1.9080	12.8800
 1.9090	12.7470
 1.9100	12.6300
 1.9110	12.5210
 1.9120	12.4240
 1.9130	12.3360
 1.9140	12.2610
 1.9150	12.1950
 1.9160	12.1350
 1.9170	12.0800
 1.9180	12.0310
 1.9190	11.9880
 1.9200	11.9500
 1.9210	11.9180
 1.9220	11.8910
 1.9230	11.8680
 1.9240	11.8500
 1.9250	11.8380
 1.9260	11.8290
 1.9270	11.8230
 1.9280	11.8210
 1.9290	11.8230
 1.9300	11.8280
 1.9310	11.8390
 1.9320	11.8540
 1.9330	11.8700
 1.9340	11.8880
 1.9350	11.9100
 1.9360	11.9330
 1.9370	11.9590
 1.9380	11.9890
 1.9390	12.0200
 1.9400	12.0520
 1.9410	12.0870
 1.9420	12.1260
 1.9430	12.1680
 1.9440	12.2110
 1.9450	12.2580
 1.9460	12.3060
 1.9470	12.3570
 1.9480	12.4100
 1.9490	12.4660
 1.9500	12.5210
 1.9510	12.5750
 1.9520	12.6340
 1.9530	12.6930
 1.9540	12.7530
 1.9550	12.8180
 1.9560	12.8860
 1.9570	12.9540
 1.9580	13.0290
 1.9590	13.0990
 1.9600	13.1660
 1.9610	13.2370
 1.9620	13.3090
 1.9630	13.3810
 1.9640	13.4580
 1.9650	13.5370
 1.9660	13.6130
 1.9670	13.6920
 1.9680	13.7730
 1.9690	13.8560
 1.9700	13.9400
 1.9710	14.0260
 1.9720	14.1110
 1.9730	14.1940
 1.9740	14.2820
 1.9750	14.3730
 1.9760	14.4630
 1.9770	14.5550
 1.9780	14.6450
 1.9790	14.7370
 1.9800	14.8290
 1.9810	14.9220
 1.9820	15.0150
 1.9830	15.1100
 1.9840	15.2050
 1.9850	15.3020
 1.9860	15.3990
 1.9870	15.4990
 1.9880	15.5980
 1.9890	15.6970
 1.9900	15.7950
 1.9910	15.8920
 1.9920	15.9900
 1.9930	16.0870
 1.9940	16.1860
 1.9950	16.2860
 1.9960	16.3860
 1.9970	16.4880
 1.9980	16.5870
 1.9990	16.6860
 2.0000	16.7870
 2.0010	16.8850
 2.0020	16.9850
 2.0030	17.0880
 2.0040	17.1880
 2.0050	17.2890
 2.0060	17.3920
 2.0070	17.4910
 2.0080	17.5870
 2.0090	17.6840
 2.0100	17.7790
 2.0110	17.8730
 2.0120	17.9650
 2.0130	18.0560
 2.0140	18.1490
 2.0150	18.2390
 2.0160	18.3330
 2.0170	18.4240
 2.0180	18.5130
 2.0190	18.6000
 2.0200	18.6880
 2.0210	18.7760
 2.0220	18.8610
 2.0230	18.9430
 2.0240	19.0270
 2.0250	19.1100
 2.0260	19.1900
 2.0270	19.2690
 2.0280	19.3500
 2.0290	19.4260
 2.0300	19.4990
 2.0310	19.5740
 2.0320	19.6500
 2.0330	19.7220
 2.0340	19.7910
 2.0350	19.8600
 2.0360	19.9270
 2.0370	19.9940
 2.0380	20.0610
 2.0390	20.1240
 2.0400	20.1840
 2.0410	20.2440
 2.0420	20.3020
 2.0430	20.3600
 2.0440	20.4190
 2.0450	20.4780
 2.0460	20.5360
 2.0470	20.5920
 2.0480	20.6490
 2.0490	20.7050
 2.0500	20.7610
 2.0510	20.8170
 2.0520	20.8730
 2.0530	20.9250
 2.0540	20.9810
 2.0550	21.0400
 2.0560	21.0950
 2.0570	21.1550
 2.0580	21.2170
 2.0590	21.2770
 2.0600	21.3360
 2.0610	21.3980
 2.0620	21.4580
 2.0630	21.5220
 2.0640	21.5890
 2.0650	21.6550
 2.0660	21.7240
 2.0670	21.7900
 2.0680	21.8540
 2.0690	21.9190
 2.0700	21.9860
 2.0710	22.0510
 2.0720	22.1180
 2.0730	22.1810
 2.0740	22.2450
 2.0750	22.3060
 2.0760	22.3690
 2.0770	22.4330
 2.0780	22.4970
 2.0790	22.5620
 2.0800	22.6270
 2.0810	22.6940
 2.0820	22.7590
 2.0830	22.8240
 2.0840	22.8880
 2.0850	22.9490
 2.0860	23.0110
 2.0870	23.0740
 2.0880	23.1360
 2.0890	23.1980
 2.0900	23.2620
 2.0910	23.3210
 2.0920	23.3780
 2.0930	23.4370
 2.0940	23.4940
 2.0950	23.5510
 2.0960	23.6110
 2.0970	23.6690
 2.0980	23.7270
 2.0990	23.7820
 2.1000	23.8340
 2.1010	23.8890
 2.1020	23.9440
 2.1030	23.9980
 2.1040	24.0530
 2.1050	24.1100
 2.1060	24.1630
 2.1070	24.2110
 2.1080	24.2620
 2.1090	24.3110
 2.1100	24.3630
 2.1110	24.4190
 2.1120	24.4720
 2.1130	24.5250
 2.1140	24.5770
 2.1150	24.6250
 2.1160	24.6740
 2.1170	24.7240
 2.1180	24.7750
 2.1190	24.8260
 2.1200	24.8760
 2.1210	24.9250
 2.1220	24.9740
 2.1230	25.0200
 2.1240	25.0650
 2.1250	25.1100
 2.1260	25.1520
 2.1270	25.1990
 2.1280	25.2510
 2.1290	25.2960
 2.1300	25.3450
 2.1310	25.3850
 2.1320	25.4140
 2.1330	25.4500
 2.1340	25.4880
 2.1350	25.5230
 2.1360	25.5580
 2.1370	25.5920
 2.1380	25.6250
 2.1390	25.6570
 2.1400	25.6890
 2.1410	25.7200
 2.1420	25.7490
 2.1430	25.7720
 2.1440	25.8010
 2.1450	25.8310
 2.1460	25.8590
 2.1470	25.8910
 2.1480	25.9160
 2.1490	25.9410
 2.1500	25.9590
 2.1510	25.9700
 2.1520	25.9830
 2.1530	25.9900
 2.1540	26.0010
 2.1550	26.0140
 2.1560	26.0250
 2.1570	26.0330
 2.1580	26.0430
 2.1590	26.0550
 2.1600	26.0630
 2.1610	26.0730
 2.1620	26.0820
 2.1630	26.0930
 2.1640	26.1030
 2.1650	26.1140
 2.1660	26.1260
 2.1670	26.1370
 2.1680	26.1470
 2.1690	26.1580
 2.1700	26.1690
 2.1710	26.1810
 2.1720	26.1930
 2.1730	26.2040
 2.1740	26.2150
 2.1750	26.2280
 2.1760	26.2410
 2.1770	26.2550
 2.1780	26.2700
 2.1790	26.2860
 2.1800	26.3040
 2.1810	26.3210
 2.1820	26.3380
 2.1830	26.3530
 2.1840	26.3720
 2.1850	26.3890
 2.1860	26.4080
 2.1870	26.4300
 2.1880	26.4490
 2.1890	26.4670
 2.1900	26.4840
 2.1910	26.5010
 2.1920	26.5170
 2.1930	26.5320
 2.1940	26.5470
 2.1950	26.5640
 2.1960	26.5760
 2.1970	26.5860
 2.1980	26.5960
 2.1990	26.6020
 2.2000	26.6090
 2.2010	26.6150
 2.2020	26.6210
 2.2030	26.6290
 2.2040	26.6330
 2.2050	26.6370
 2.2060	26.6390
 2.2070	26.6400
 2.2080	26.6380
 2.2090	26.6340
 2.2100	26.6310
 2.2110	26.6240
 2.2120	26.6110
 2.2130	26.6020
 2.2140	26.5900
 2.2150	26.5800
 2.2160	26.5750
 2.2170	26.5640
 2.2180	26.5500
 2.2190	26.5360
 2.2200	26.5200
 2.2210	26.5030
 2.2220	26.4890
 2.2230	26.4710
 2.2240	26.4530
 2.2250	26.4310
 2.2260	26.4090
 2.2270	26.3790
 2.2280	26.3400
 2.2290	26.2990
 2.2300	26.2550
 2.2310	26.2040
 2.2320	26.1500
 2.2330	26.0940
 2.2340	26.0320
 2.2350	25.9610
 2.2360	25.8930
 2.2370	25.8230
 2.2380	25.7560
 2.2390	25.6880
 2.2400	25.6210
 2.2410	25.5530
 2.2420	25.4870
 2.2430	25.4160
 2.2440	25.3560
 2.2450	25.2980
 2.2460	25.2470
 2.2470	25.2050
 2.2480	25.1590
 2.2490	25.1160
 2.2500	25.0730
 2.2510	25.0320
 2.2520	24.9900
 2.2530	24.9480
 2.2540	24.9070
 2.2550	24.8660
 2.2560	24.8240
 2.2570	24.7850
 2.2580	24.7410
 2.2590	24.6940
 2.2600	24.6450
 2.2610	24.5940
 2.2620	24.5360
 2.2630	24.4760
 2.2640	24.4240
 2.2650	24.3690
 2.2660	24.3160
 2.2670	24.2610
 2.2680	24.2050
 2.2690	24.1490
 2.2700	24.0880
 2.2710	24.0360
 2.2720	23.9890
 2.2730	23.9430
 2.2740	23.9030
 2.2750	23.8600
 2.2760	23.8120
 2.2770	23.7720
 2.2780	23.7380
 2.2790	23.7020
 2.2800	23.6700
 2.2810	23.6360
 2.2820	23.6010
 2.2830	23.5670
 2.2840	23.5350
 2.2850	23.5010
 2.2860	23.4670
 2.2870	23.4320
 2.2880	23.3970
 2.2890	23.3590
 2.2900	23.3210
 2.2910	23.2770
 2.2920	23.2250
 2.2930	23.1770
 2.2940	23.1270
 2.2950	23.0780
 2.2960	23.0330
 2.2970	22.9820
 2.2980	22.9270
 2.2990	22.8700
 2.3000	22.8010
 2.3010	22.7380
 2.3020	22.6830
 2.3030	22.6220
 2.3040	22.5640
 2.3050	22.5080
 2.3060	22.4460
 2.3070	22.3840
 2.3080	22.3280
 2.3090	22.2750
 2.3100	22.2150
 2.3110	22.1600
 2.3120	22.1150
 2.3130	22.0760
 2.3140	22.0400
 2.3150	22.0150
 2.3160	21.9840
 2.3170	21.9510
 2.3180	21.9190
 2.3190	21.8900
 2.3200	21.8610
 2.3210	21.8350
 2.3220	21.8030
 2.3230	21.7700
 2.3240	21.7360
 2.3250	21.6950
 2.3260	21.6600
 2.3270	21.6300
 2.3280	21.5940
 2.3290	21.5630
 2.3300	21.5230
 2.3310	21.4740
 2.3320	21.4320
 2.3330	21.3890
 2.3340	21.3460
 2.3350	21.3070
 2.3360	21.2630
 2.3370	21.2150
 2.3380	21.1680
 2.3390	21.1220
 2.3400	21.0740
 2.3410	21.0250
 2.3420	20.9770
 2.3430	20.9310
 2.3440	20.8840
 2.3450	20.8370
 2.3460	20.7940
 2.3470	20.7530
 2.3480	20.7100
 2.3490	20.6660
 2.3500	20.6280
 2.3510	20.5940
 2.3520	20.5590
 2.3530	20.5310
 2.3540	20.5070
 2.3550	20.4740
 2.3560	20.4380
 2.3570	20.4020
 2.3580	20.3660
 2.3590	20.3320
 2.3600	20.2950
 2.3610	20.2640
 2.3620	20.2350
 2.3630	20.2020
 2.3640	20.1780
 2.3650	20.1450
 2.3660	20.0960
 2.3670	20.0550
 2.3680	20.0070
 2.3690	19.9670
 2.3700	19.9370
 2.3710	19.8900
 2.3720	19.8510
 2.3730	19.8060
 2.3740	19.7500
 2.3750	19.7090
 2.3760	19.6600
 2.3770	19.6110
 2.3780	19.5670
 2.3790	19.5190
 2.3800	19.4800
 2.3810	19.4370
 2.3820	19.3880
 2.3830	19.3360
 2.3840	19.2750
 2.3850	19.2150
 2.3860	19.1610
 2.3870	19.1120
 2.3880	19.0610
 2.3890	19.0140
 2.3900	18.9700
 2.3910	18.9210
 2.3920	18.8700
 2.3930	18.8180
 2.3940	18.7600
 2.3950	18.7100
 2.3960	18.6660
 2.3970	18.6180
 2.3980	18.5680
 2.3990	18.5100
 2.4000	18.4490
 2.4010	18.3850
 2.4020	18.3230
 2.4030	18.2740
 2.4040	18.2220
 2.4050	18.1660
 2.4060	18.1100
 2.4070	18.0570
 2.4080	18.0000
 2.4090	17.9470
 2.4100	17.8980
 2.4110	17.8440
 2.4120	17.8060
 2.4130	17.7750
 2.4140	17.7300
 2.4150	17.6770
 2.4160	17.6090
 2.4170	17.5310
 2.4180	17.4690
 2.4190	17.4160
 2.4200	17.3500
 2.4210	17.2920
 2.4220	17.2460
 2.4230	17.1830
 2.4240	17.1260
 2.4250	17.0650
 2.4260	16.9920
 2.4270	16.9340
 2.4280	16.8780
 2.4290	16.8140
 2.4300	16.7530
 2.4310	16.6930
 2.4320	16.6320
 2.4330	16.5840
 2.4340	16.5390
 2.4350	16.4690
 2.4360	16.4070
 2.4370	16.3340
 2.4380	16.2480
 2.4390	16.1880
 2.4400	16.1230
 2.4410	16.0670
 2.4420	16.0110
 2.4430	15.9550
 2.4440	15.8910
 2.4450	15.8010
 2.4460	15.7150
 2.4470	15.6310
 2.4480	15.5550
 2.4490	15.4860
 2.4500	15.4280
 2.4510	15.3550
 2.4520	15.2840
 2.4530	15.2510
 2.4540	15.2110
 2.4550	15.1710
 2.4560	15.1190
 2.4570	15.0550
 2.4580	14.9980
 2.4590	14.9320
 2.4600	14.8850
 2.4610	14.8280
 2.4620	14.7580
 2.4630	14.7230
 2.4640	14.6770
 2.4650	14.6150
 2.4660	14.5710
 2.4670	14.5180
 2.4680	14.4580
 2.4690	14.4530
 2.4700	14.4100
 2.4710	14.3510
 2.4720	14.3010
 2.4730	14.2240
 2.4740	14.1760
 2.4750	14.1500
 2.4760	14.1210
 2.4770	14.1090
 2.4780	14.0730
 2.4790	14.0270
 2.4800	13.9990
 2.4810	13.9730
 2.4820	13.9240
 2.4830	13.8870
 2.4840	13.8450
 2.4850	13.7900
 2.4860	13.7500
 2.4870	13.7370
 2.4880	13.7330
 2.4890	13.7160
 2.4900	13.6900
 2.4910	13.6530
 2.4920	13.6250
 2.4930	13.6290
 2.4940	13.6710
 2.4950	13.7250
 2.4960	13.7050
 2.4970	13.6370
 2.4980	13.5820
 2.4990	13.5170
 2.5000	13.4760
