Name: Umbellularia californica 2
Type: vegetation
Class: Shrub
Genus: Umbellularia
Species: californica
Sample No.: VH106
Owner: UCSB
Wavelength Range: TIR
Origin: 34.5074; -119.7632; WGS84
Collection Date: 6/3/2013
Description: Samples were collected as part of the HyspIRI Airborne Campaign. 48 individual plants were sampled in three times in 2013 - spring  summer  and fall. The name of the sample includes a 1  2  or 3 which references a different individual of the species. Samples were taken to JPL and processed within 48 hours of collection. The same leaves were processed in the Nicolet and then measured using the ASD.
Measurement: Hemispherical reflectance
First Column: X
Second Column: Y
X Units: Wavelength (micrometers)
Y Units: Reflectance (percentage)
First X Value: 2.501
Last X Value: 15.387
Number of X Values: 1737
Additional Information: vegetation.shrub.umbellularia.californica.tir.vh106.ucsb.nicolet.ancillary.txt

 2.5010	 2.4140
 2.5030	 2.4080
 2.5040	 2.4290
 2.5050	 2.4210
 2.5060	 2.4580
 2.5070	 2.4370
 2.5090	 2.4580
 2.5100	 2.4460
 2.5110	 2.4140
 2.5120	 2.4230
 2.5140	 2.4310
 2.5150	 2.3700
 2.5160	 2.3650
 2.5170	 2.3710
 2.5180	 2.4120
 2.5200	 2.4180
 2.5210	 2.4250
 2.5220	 2.4180
 2.5230	 2.4500
 2.5250	 2.4230
 2.5260	 2.4240
 2.5270	 2.3990
 2.5280	 2.4170
 2.5290	 2.4190
 2.5310	 2.4610
 2.5320	 2.4240
 2.5330	 2.4230
 2.5340	 2.4400
 2.5360	 2.4500
 2.5370	 2.4040
 2.5380	 2.4210
 2.5390	 2.4320
 2.5410	 2.4470
 2.5420	 2.4200
 2.5430	 2.4010
 2.5440	 2.4140
 2.5460	 2.5110
 2.5470	 2.5150
 2.5480	 2.4480
 2.5490	 2.4110
 2.5510	 2.4420
 2.5520	 2.4170
 2.5530	 2.4330
 2.5540	 2.4390
 2.5560	 2.4770
 2.5570	 2.4820
 2.5580	 2.5130
 2.5590	 2.4680
 2.5610	 2.4660
 2.5620	 2.4500
 2.5630	 2.4370
 2.5640	 2.4300
 2.5660	 2.5050
 2.5670	 2.5150
 2.5680	 2.5020
 2.5700	 2.5130
 2.5710	 2.5790
 2.5720	 2.5090
 2.5730	 2.4560
 2.5750	 2.4760
 2.5760	 2.5340
 2.5770	 2.4400
 2.5790	 2.4360
 2.5800	 2.4880
 2.5810	 2.5290
 2.5820	 2.5240
 2.5840	 2.5370
 2.5850	 2.5000
 2.5860	 2.5340
 2.5880	 2.4960
 2.5890	 2.4960
 2.5900	 2.5200
 2.5910	 2.5330
 2.5930	 2.4690
 2.5940	 2.4740
 2.5950	 2.4810
 2.5970	 2.4900
 2.5980	 2.4700
 2.5990	 2.5240
 2.6000	 2.5120
 2.6020	 2.4810
 2.6030	 2.4480
 2.6040	 2.4750
 2.6060	 2.4560
 2.6070	 2.4700
 2.6080	 2.4740
 2.6100	 2.4760
 2.6110	 2.4280
 2.6120	 2.4140
 2.6140	 2.3960
 2.6150	 2.4430
 2.6160	 2.4350
 2.6180	 2.3950
 2.6190	 2.3530
 2.6200	 2.3600
 2.6220	 2.3990
 2.6230	 2.4360
 2.6240	 2.3620
 2.6260	 2.3680
 2.6270	 2.3620
 2.6280	 2.3610
 2.6300	 2.3160
 2.6310	 2.3050
 2.6320	 2.3270
 2.6340	 2.3830
 2.6350	 2.3610
 2.6360	 2.3000
 2.6380	 2.2950
 2.6390	 2.3780
 2.6400	 2.3240
 2.6420	 2.2630
 2.6430	 2.2290
 2.6440	 2.2430
 2.6460	 2.2330
 2.6470	 2.2000
 2.6480	 2.2180
 2.6500	 2.2870
 2.6510	 2.2300
 2.6520	 2.2130
 2.6540	 2.1830
 2.6550	 2.1500
 2.6560	 2.1350
 2.6580	 2.1710
 2.6590	 2.1710
 2.6610	 2.2160
 2.6620	 2.1810
 2.6630	 2.1380
 2.6650	 2.1000
 2.6660	 2.1110
 2.6670	 2.1350
 2.6690	 2.2040
 2.6700	 2.1570
 2.6720	 2.0940
 2.6730	 2.0520
 2.6740	 2.0450
 2.6760	 2.0060
 2.6770	 2.0080
 2.6780	 2.0020
 2.6800	 2.0160
 2.6810	 1.9930
 2.6830	 2.0230
 2.6840	 2.0300
 2.6850	 2.0140
 2.6870	 1.9890
 2.6880	 1.9890
 2.6900	 1.9550
 2.6910	 1.9920
 2.6920	 1.9330
 2.6940	 1.9350
 2.6950	 1.9810
 2.6970	 2.0050
 2.6980	 1.9360
 2.6990	 1.9100
 2.7010	 1.8810
 2.7020	 1.9050
 2.7040	 1.8870
 2.7050	 1.8990
 2.7060	 1.9270
 2.7080	 1.9740
 2.7090	 1.9440
 2.7110	 1.9090
 2.7120	 1.8550
 2.7130	 1.8600
 2.7150	 1.8500
 2.7160	 1.8710
 2.7180	 1.8460
 2.7190	 1.8460
 2.7210	 1.8090
 2.7220	 1.7970
 2.7230	 1.7680
 2.7250	 1.7920
 2.7260	 1.7660
 2.7280	 1.7790
 2.7290	 1.8320
 2.7310	 1.8780
 2.7320	 1.8310
 2.7330	 1.8280
 2.7350	 1.7970
 2.7360	 1.8150
 2.7380	 1.7920
 2.7390	 1.7710
 2.7410	 1.7190
 2.7420	 1.7280
 2.7440	 1.7340
 2.7450	 1.7370
 2.7470	 1.7250
 2.7480	 1.7530
 2.7490	 1.7340
 2.7510	 1.7360
 2.7520	 1.7250
 2.7540	 1.7430
 2.7550	 1.6680
 2.7570	 1.6640
 2.7580	 1.6940
 2.7600	 1.7440
 2.7610	 1.7240
 2.7630	 1.7110
 2.7640	 1.6620
 2.7660	 1.6930
 2.7670	 1.6820
 2.7680	 1.7030
 2.7700	 1.7210
 2.7710	 1.7210
 2.7730	 1.6760
 2.7740	 1.6590
 2.7760	 1.6300
 2.7770	 1.6890
 2.7790	 1.6630
 2.7800	 1.6580
 2.7820	 1.6480
 2.7830	 1.6400
 2.7850	 1.6020
 2.7860	 1.6430
 2.7880	 1.6760
 2.7890	 1.6580
 2.7910	 1.5860
 2.7920	 1.6120
 2.7940	 1.5600
 2.7950	 1.5580
 2.7970	 1.5600
 2.7980	 1.5650
 2.8000	 1.5860
 2.8010	 1.6440
 2.8030	 1.6200
 2.8040	 1.6390
 2.8060	 1.5880
 2.8070	 1.5800
 2.8090	 1.5730
 2.8110	 1.5550
 2.8120	 1.5330
 2.8140	 1.5690
 2.8150	 1.5690
 2.8170	 1.5780
 2.8180	 1.6070
 2.8200	 1.6580
 2.8210	 1.6030
 2.8230	 1.5630
 2.8240	 1.5280
 2.8260	 1.5220
 2.8270	 1.5290
 2.8290	 1.5780
 2.8300	 1.6210
 2.8320	 1.6330
 2.8340	 1.5560
 2.8350	 1.5300
 2.8370	 1.5170
 2.8380	 1.5490
 2.8400	 1.4910
 2.8410	 1.4870
 2.8430	 1.5130
 2.8440	 1.5500
 2.8460	 1.5480
 2.8480	 1.5430
 2.8490	 1.5120
 2.8510	 1.5720
 2.8520	 1.5930
 2.8540	 1.6050
 2.8550	 1.5670
 2.8570	 1.5500
 2.8590	 1.4910
 2.8600	 1.4960
 2.8620	 1.4770
 2.8630	 1.5070
 2.8650	 1.5290
 2.8660	 1.5530
 2.8680	 1.5110
 2.8700	 1.4950
 2.8710	 1.4680
 2.8730	 1.5290
 2.8740	 1.5970
 2.8760	 1.5960
 2.8780	 1.5120
 2.8790	 1.5330
 2.8810	 1.5310
 2.8820	 1.5330
 2.8840	 1.5280
 2.8860	 1.5560
 2.8870	 1.5410
 2.8890	 1.5350
 2.8900	 1.5530
 2.8920	 1.5990
 2.8940	 1.5280
 2.8950	 1.5090
 2.8970	 1.4980
 2.8980	 1.5090
 2.9000	 1.5310
 2.9020	 1.5760
 2.9030	 1.5460
 2.9050	 1.5110
 2.9070	 1.4670
 2.9080	 1.5370
 2.9100	 1.5480
 2.9120	 1.4980
 2.9130	 1.4640
 2.9150	 1.5150
 2.9160	 1.5600
 2.9180	 1.5850
 2.9200	 1.4910
 2.9210	 1.4890
 2.9230	 1.5520
 2.9250	 1.6200
 2.9260	 1.5810
 2.9280	 1.5490
 2.9300	 1.5430
 2.9310	 1.5780
 2.9330	 1.5370
 2.9350	 1.5300
 2.9360	 1.5200
 2.9380	 1.5530
 2.9400	 1.5450
 2.9410	 1.5610
 2.9430	 1.5690
 2.9450	 1.5900
 2.9460	 1.5760
 2.9480	 1.6030
 2.9500	 1.5710
 2.9510	 1.5990
 2.9530	 1.5970
 2.9550	 1.5930
 2.9560	 1.5840
 2.9580	 1.6070
 2.9600	 1.6460
 2.9610	 1.6710
 2.9630	 1.6310
 2.9650	 1.6320
 2.9660	 1.6080
 2.9680	 1.6180
 2.9700	 1.5940
 2.9720	 1.6170
 2.9730	 1.6010
 2.9750	 1.6000
 2.9770	 1.5690
 2.9780	 1.6190
 2.9800	 1.6210
 2.9820	 1.6180
 2.9840	 1.6270
 2.9850	 1.6730
 2.9870	 1.6300
 2.9890	 1.6040
 2.9900	 1.5740
 2.9920	 1.6200
 2.9940	 1.6080
 2.9960	 1.6520
 2.9970	 1.6530
 2.9990	 1.6760
 3.0010	 1.6950
 3.0030	 1.7160
 3.0040	 1.7030
 3.0060	 1.7110
 3.0080	 1.6790
 3.0100	 1.7200
 3.0110	 1.7490
 3.0130	 1.7630
 3.0150	 1.6860
 3.0170	 1.6250
 3.0180	 1.6230
 3.0200	 1.6850
 3.0220	 1.7300
 3.0240	 1.7790
 3.0250	 1.7380
 3.0270	 1.7010
 3.0290	 1.6880
 3.0310	 1.7600
 3.0320	 1.7700
 3.0340	 1.7570
 3.0360	 1.6970
 3.0380	 1.7190
 3.0400	 1.7540
 3.0410	 1.7390
 3.0430	 1.7010
 3.0450	 1.7460
 3.0470	 1.7390
 3.0480	 1.7200
 3.0500	 1.6890
 3.0520	 1.7310
 3.0540	 1.7480
 3.0560	 1.7910
 3.0570	 1.8230
 3.0590	 1.8390
 3.0610	 1.7990
 3.0630	 1.8250
 3.0650	 1.7500
 3.0660	 1.7330
 3.0680	 1.7730
 3.0700	 1.8450
 3.0720	 1.8330
 3.0740	 1.8190
 3.0760	 1.7960
 3.0770	 1.8510
 3.0790	 1.8780
 3.0810	 1.8510
 3.0830	 1.7570
 3.0850	 1.8110
 3.0870	 1.8430
 3.0880	 1.8800
 3.0900	 1.8980
 3.0920	 1.8830
 3.0940	 1.7980
 3.0960	 1.7780
 3.0980	 1.7760
 3.0990	 1.8130
 3.1010	 1.8180
 3.1030	 1.8300
 3.1050	 1.8580
 3.1070	 1.9390
 3.1090	 1.8910
 3.1110	 1.8660
 3.1120	 1.8710
 3.1140	 1.9520
 3.1160	 1.9640
 3.1180	 1.9770
 3.1200	 1.9180
 3.1220	 1.9050
 3.1240	 1.9310
 3.1260	 1.9490
 3.1270	 1.9240
 3.1290	 1.9140
 3.1310	 1.9070
 3.1330	 1.9320
 3.1350	 1.9160
 3.1370	 1.9590
 3.1390	 1.9780
 3.1410	 2.0230
 3.1430	 1.9900
 3.1450	 2.0000
 3.1460	 1.9600
 3.1480	 1.9590
 3.1500	 1.9740
 3.1520	 1.9930
 3.1540	 1.9410
 3.1560	 1.9860
 3.1580	 2.0020
 3.1600	 2.0160
 3.1620	 2.0380
 3.1640	 2.0680
 3.1660	 2.0050
 3.1680	 2.0050
 3.1700	 2.0040
 3.1710	 2.0490
 3.1730	 2.0350
 3.1750	 2.0150
 3.1770	 2.0350
 3.1790	 2.0700
 3.1810	 2.0460
 3.1830	 2.0740
 3.1850	 2.0750
 3.1870	 2.1120
 3.1890	 2.1100
 3.1910	 2.1190
 3.1930	 2.0720
 3.1950	 2.0830
 3.1970	 2.0720
 3.1990	 2.1000
 3.2010	 2.1490
 3.2030	 2.1420
 3.2050	 2.0760
 3.2070	 2.0890
 3.2090	 2.0540
 3.2110	 2.0730
 3.2130	 2.1140
 3.2150	 2.1230
 3.2170	 2.0880
 3.2190	 2.1280
 3.2210	 2.0990
 3.2230	 2.1600
 3.2250	 2.1680
 3.2270	 2.1620
 3.2290	 2.1340
 3.2310	 2.1330
 3.2330	 2.1000
 3.2350	 2.1420
 3.2370	 2.1330
 3.2390	 2.1750
 3.2410	 2.1820
 3.2430	 2.1940
 3.2450	 2.1920
 3.2470	 2.2170
 3.2490	 2.1740
 3.2510	 2.1480
 3.2530	 2.1220
 3.2550	 2.1690
 3.2570	 2.1840
 3.2590	 2.1450
 3.2610	 2.1150
 3.2630	 2.1990
 3.2650	 2.2380
 3.2670	 2.2180
 3.2690	 2.1460
 3.2720	 2.1250
 3.2740	 2.1470
 3.2760	 2.1940
 3.2780	 2.1820
 3.2800	 2.2540
 3.2820	 2.2550
 3.2840	 2.2220
 3.2860	 2.2000
 3.2880	 2.2000
 3.2900	 2.2260
 3.2920	 2.2570
 3.2940	 2.2030
 3.2960	 2.2030
 3.2990	 2.1990
 3.3010	 2.2020
 3.3030	 2.1910
 3.3050	 2.1950
 3.3070	 2.1510
 3.3090	 2.1700
 3.3110	 2.2160
 3.3130	 2.2340
 3.3150	 2.1790
 3.3180	 2.1700
 3.3200	 2.1500
 3.3220	 2.1800
 3.3240	 2.1960
 3.3260	 2.1570
 3.3280	 2.1440
 3.3300	 2.1770
 3.3330	 2.1540
 3.3350	 2.1790
 3.3370	 2.1230
 3.3390	 2.1410
 3.3410	 2.1520
 3.3430	 2.1390
 3.3450	 2.0870
 3.3480	 2.0880
 3.3500	 2.0880
 3.3520	 2.1160
 3.3540	 2.1120
 3.3560	 2.1010
 3.3580	 1.9970
 3.3610	 1.9120
 3.3630	 1.8850
 3.3650	 1.9540
 3.3670	 1.9830
 3.3690	 1.9780
 3.3720	 1.9180
 3.3740	 1.8770
 3.3760	 1.8560
 3.3780	 1.8860
 3.3800	 1.8890
 3.3830	 1.9200
 3.3850	 1.9030
 3.3870	 1.9110
 3.3890	 1.9090
 3.3910	 1.8860
 3.3940	 1.8310
 3.3960	 1.8260
 3.3980	 1.7680
 3.4000	 1.7390
 3.4020	 1.7860
 3.4050	 1.8230
 3.4070	 1.7890
 3.4090	 1.8240
 3.4110	 1.9310
 3.4140	 2.1340
 3.4160	 2.2750
 3.4180	 2.4860
 3.4200	 2.7760
 3.4230	 3.1530
 3.4250	 3.5950
 3.4270	 4.1090
 3.4290	 4.4530
 3.4320	 4.4520
 3.4340	 4.0720
 3.4360	 3.7160
 3.4390	 3.4610
 3.4410	 3.3140
 3.4430	 3.2160
 3.4450	 3.1620
 3.4480	 3.0110
 3.4500	 3.0040
 3.4520	 3.0200
 3.4550	 3.0530
 3.4570	 3.0170
 3.4590	 3.0010
 3.4620	 2.9810
 3.4640	 2.9990
 3.4660	 2.9820
 3.4680	 2.9180
 3.4710	 2.8470
 3.4730	 2.8140
 3.4750	 2.7290
 3.4780	 2.7110
 3.4800	 2.6360
 3.4820	 2.5830
 3.4850	 2.5420
 3.4870	 2.5350
 3.4890	 2.4870
 3.4920	 2.4620
 3.4940	 2.3910
 3.4970	 2.3610
 3.4990	 2.4060
 3.5010	 2.5450
 3.5040	 2.7210
 3.5060	 3.1500
 3.5080	 3.8330
 3.5110	 4.4870
 3.5130	 4.6010
 3.5160	 4.2900
 3.5180	 3.8860
 3.5200	 3.6230
 3.5230	 3.4870
 3.5250	 3.4150
 3.5270	 3.3380
 3.5300	 3.3120
 3.5320	 3.2870
 3.5350	 3.2720
 3.5370	 3.1900
 3.5400	 3.2570
 3.5420	 3.2850
 3.5440	 3.2290
 3.5470	 3.1370
 3.5490	 3.1700
 3.5520	 3.1690
 3.5540	 3.1390
 3.5570	 3.0760
 3.5590	 3.0930
 3.5610	 3.0980
 3.5640	 3.1180
 3.5660	 3.1060
 3.5690	 3.1040
 3.5710	 3.0710
 3.5740	 3.0660
 3.5760	 3.0270
 3.5790	 3.0800
 3.5810	 3.1020
 3.5840	 3.1120
 3.5860	 3.0970
 3.5890	 3.0880
 3.5910	 3.0930
 3.5930	 3.1010
 3.5960	 3.0660
 3.5980	 3.0720
 3.6010	 3.0480
 3.6030	 3.0060
 3.6060	 2.9900
 3.6080	 3.0660
 3.6110	 3.0660
 3.6140	 3.0640
 3.6160	 3.0040
 3.6190	 3.0170
 3.6210	 3.0550
 3.6240	 3.0560
 3.6260	 3.0180
 3.6290	 3.0490
 3.6310	 3.0310
 3.6340	 3.0290
 3.6360	 3.0290
 3.6390	 3.0410
 3.6410	 3.0230
 3.6440	 3.0740
 3.6470	 3.1030
 3.6490	 3.1180
 3.6520	 3.0860
 3.6540	 3.0440
 3.6570	 3.0150
 3.6590	 3.0770
 3.6620	 3.0910
 3.6650	 3.1300
 3.6670	 3.1140
 3.6700	 3.0640
 3.6720	 3.0540
 3.6750	 3.0360
 3.6780	 2.9720
 3.6800	 3.0060
 3.6830	 3.0090
 3.6850	 3.0810
 3.6880	 3.1000
 3.6910	 3.0680
 3.6930	 3.0850
 3.6960	 3.1340
 3.6990	 3.1190
 3.7010	 3.1590
 3.7040	 3.1130
 3.7060	 3.0710
 3.7090	 3.0860
 3.7120	 3.1220
 3.7140	 3.1410
 3.7170	 3.1590
 3.7200	 3.1240
 3.7220	 3.1520
 3.7250	 3.1280
 3.7280	 3.1410
 3.7300	 3.1750
 3.7330	 3.2230
 3.7360	 3.1740
 3.7390	 3.1650
 3.7410	 3.1730
 3.7440	 3.2000
 3.7470	 3.1750
 3.7490	 3.1640
 3.7520	 3.1560
 3.7550	 3.1830
 3.7580	 3.1790
 3.7600	 3.1960
 3.7630	 3.1910
 3.7660	 3.2450
 3.7680	 3.2140
 3.7710	 3.1520
 3.7740	 3.1790
 3.7770	 3.2350
 3.7790	 3.2490
 3.7820	 3.2340
 3.7850	 3.2150
 3.7880	 3.2770
 3.7900	 3.2750
 3.7930	 3.2420
 3.7960	 3.2460
 3.7990	 3.2790
 3.8020	 3.2560
 3.8040	 3.2730
 3.8070	 3.3090
 3.8100	 3.3120
 3.8130	 3.2810
 3.8160	 3.2760
 3.8180	 3.2800
 3.8210	 3.2910
 3.8240	 3.2690
 3.8270	 3.2680
 3.8300	 3.2880
 3.8330	 3.3190
 3.8350	 3.2950
 3.8380	 3.2960
 3.8410	 3.2550
 3.8440	 3.2730
 3.8470	 3.3450
 3.8500	 3.3760
 3.8520	 3.3280
 3.8550	 3.3100
 3.8580	 3.3120
 3.8610	 3.3580
 3.8640	 3.3640
 3.8670	 3.3820
 3.8700	 3.3760
 3.8730	 3.3680
 3.8750	 3.3470
 3.8780	 3.3380
 3.8810	 3.3070
 3.8840	 3.3610
 3.8870	 3.3390
 3.8900	 3.3050
 3.8930	 3.3220
 3.8960	 3.3590
 3.8990	 3.3810
 3.9020	 3.4470
 3.9050	 3.4400
 3.9080	 3.3980
 3.9110	 3.4100
 3.9140	 3.4170
 3.9160	 3.4050
 3.9190	 3.4420
 3.9220	 3.4340
 3.9250	 3.4200
 3.9280	 3.3920
 3.9310	 3.3630
 3.9340	 3.3430
 3.9370	 3.3860
 3.9400	 3.3900
 3.9430	 3.3970
 3.9460	 3.3630
 3.9490	 3.3810
 3.9520	 3.3800
 3.9550	 3.3850
 3.9580	 3.3560
 3.9610	 3.3460
 3.9640	 3.3820
 3.9670	 3.4270
 3.9700	 3.4370
 3.9730	 3.4440
 3.9770	 3.4090
 3.9800	 3.3830
 3.9830	 3.3490
 3.9860	 3.3920
 3.9890	 3.4520
 3.9920	 3.4940
 3.9950	 3.4900
 3.9980	 3.4850
 4.0010	 3.4190
 4.0040	 3.3830
 4.0070	 3.3930
 4.0100	 3.4360
 4.0130	 3.4240
 4.0170	 3.4480
 4.0200	 3.4470
 4.0230	 3.4110
 4.0260	 3.3790
 4.0290	 3.3970
 4.0320	 3.4030
 4.0350	 3.4290
 4.0380	 3.4280
 4.0420	 3.4540
 4.0450	 3.4710
 4.0480	 3.4490
 4.0510	 3.4060
 4.0540	 3.4070
 4.0570	 3.4120
 4.0610	 3.4120
 4.0640	 3.4030
 4.0670	 3.4340
 4.0700	 3.4230
 4.0730	 3.4200
 4.0770	 3.3740
 4.0800	 3.3680
 4.0830	 3.4030
 4.0860	 3.4600
 4.0890	 3.4740
 4.0930	 3.4730
 4.0960	 3.4300
 4.0990	 3.4140
 4.1020	 3.4270
 4.1060	 3.4270
 4.1090	 3.3910
 4.1120	 3.4260
 4.1150	 3.4740
 4.1190	 3.4620
 4.1220	 3.3740
 4.1250	 3.3570
 4.1280	 3.3680
 4.1320	 3.3880
 4.1350	 3.3930
 4.1380	 3.4230
 4.1420	 3.4260
 4.1450	 3.3680
 4.1480	 3.3240
 4.1520	 3.3750
 4.1550	 3.4160
 4.1580	 3.4260
 4.1620	 3.3660
 4.1650	 3.3120
 4.1680	 3.3220
 4.1720	 3.3330
 4.1750	 3.3420
 4.1780	 3.3650
 4.1820	 3.3730
 4.1850	 3.3990
 4.1890	 3.3500
 4.1920	 3.2930
 4.1950	 3.2540
 4.1990	 3.1900
 4.2020	 3.0440
 4.2060	 2.8670
 4.2090	 2.6340
 4.2120	 2.3800
 4.2160	 2.1380
 4.2190	 1.9910
 4.2230	 1.8860
 4.2260	 1.7930
 4.2300	 1.7060
 4.2330	 1.6100
 4.2360	 1.5550
 4.2400	 1.6180
 4.2430	 1.6620
 4.2470	 1.7260
 4.2500	 1.9360
 4.2540	 2.2780
 4.2570	 2.5070
 4.2610	 2.3550
 4.2640	 2.0410
 4.2680	 1.8950
 4.2710	 1.8990
 4.2750	 1.9510
 4.2780	 1.9400
 4.2820	 1.9990
 4.2850	 2.0150
 4.2890	 1.9930
 4.2930	 2.0070
 4.2960	 2.0810
 4.3000	 2.1550
 4.3030	 2.2140
 4.3070	 2.2620
 4.3100	 2.3340
 4.3140	 2.4220
 4.3180	 2.5250
 4.3210	 2.5920
 4.3250	 2.6470
 4.3280	 2.7430
 4.3320	 2.8450
 4.3360	 2.9100
 4.3390	 2.9960
 4.3430	 3.0490
 4.3470	 3.0770
 4.3500	 3.0920
 4.3540	 3.1170
 4.3570	 3.1580
 4.3610	 3.1930
 4.3650	 3.1430
 4.3680	 3.1430
 4.3720	 3.1340
 4.3760	 3.1590
 4.3800	 3.2040
 4.3830	 3.1810
 4.3870	 3.1410
 4.3910	 3.1490
 4.3940	 3.1430
 4.3980	 3.1030
 4.4020	 3.1060
 4.4060	 3.1260
 4.4090	 3.1360
 4.4130	 3.1300
 4.4170	 3.1050
 4.4210	 3.1240
 4.4240	 3.1140
 4.4280	 3.1480
 4.4320	 3.2020
 4.4360	 3.1970
 4.4400	 3.1590
 4.4430	 3.1710
 4.4470	 3.1650
 4.4510	 3.1370
 4.4550	 3.1300
 4.4590	 3.1530
 4.4620	 3.1130
 4.4660	 3.0970
 4.4700	 3.1380
 4.4740	 3.1650
 4.4780	 3.1680
 4.4820	 3.1880
 4.4860	 3.2000
 4.4900	 3.1840
 4.4930	 3.1430
 4.4970	 3.1570
 4.5010	 3.2100
 4.5050	 3.2260
 4.5090	 3.2050
 4.5130	 3.1740
 4.5170	 3.1580
 4.5210	 3.1340
 4.5250	 3.1360
 4.5290	 3.1200
 4.5330	 3.1080
 4.5370	 3.1220
 4.5410	 3.1720
 4.5450	 3.1790
 4.5490	 3.1330
 4.5530	 3.1550
 4.5570	 3.1510
 4.5610	 3.1070
 4.5650	 3.1100
 4.5690	 3.1380
 4.5730	 3.0970
 4.5770	 3.0910
 4.5810	 3.1140
 4.5850	 3.1140
 4.5890	 3.0740
 4.5930	 3.0700
 4.5970	 3.0910
 4.6010	 3.1210
 4.6050	 3.1710
 4.6090	 3.1440
 4.6130	 3.1170
 4.6170	 3.1350
 4.6220	 3.0960
 4.6260	 3.0720
 4.6300	 3.1100
 4.6340	 3.0930
 4.6380	 3.0970
 4.6420	 3.1380
 4.6460	 3.1890
 4.6510	 3.1300
 4.6550	 3.0670
 4.6590	 3.1070
 4.6630	 3.1640
 4.6670	 3.1470
 4.6720	 3.1310
 4.6760	 3.1270
 4.6800	 3.0900
 4.6840	 3.1100
 4.6880	 3.1470
 4.6930	 3.1590
 4.6970	 3.1330
 4.7010	 3.0810
 4.7050	 3.0740
 4.7100	 3.0720
 4.7140	 3.1220
 4.7180	 3.1020
 4.7230	 3.0790
 4.7270	 3.0840
 4.7310	 3.1030
 4.7360	 3.1380
 4.7400	 3.1800
 4.7440	 3.1620
 4.7490	 3.1230
 4.7530	 3.0810
 4.7570	 3.0020
 4.7620	 3.0160
 4.7660	 3.0790
 4.7700	 3.1300
 4.7750	 3.1760
 4.7790	 3.1210
 4.7840	 3.0750
 4.7880	 3.0690
 4.7920	 3.0910
 4.7970	 3.0900
 4.8010	 3.0720
 4.8060	 3.0270
 4.8100	 3.0290
 4.8150	 3.0710
 4.8190	 3.0870
 4.8240	 3.0610
 4.8280	 3.0500
 4.8330	 3.0480
 4.8370	 3.0690
 4.8420	 3.0510
 4.8460	 3.0480
 4.8510	 3.0530
 4.8550	 3.0550
 4.8600	 3.0610
 4.8640	 3.0880
 4.8690	 3.1020
 4.8730	 3.0660
 4.8780	 3.0560
 4.8830	 3.0680
 4.8870	 3.0320
 4.8920	 2.9780
 4.8960	 2.9870
 4.9010	 3.0540
 4.9060	 3.0610
 4.9100	 3.0930
 4.9150	 3.0770
 4.9200	 3.0830
 4.9240	 3.0990
 4.9290	 3.0950
 4.9340	 3.0730
 4.9380	 3.0470
 4.9430	 3.0600
 4.9480	 3.0600
 4.9530	 3.0680
 4.9570	 3.0730
 4.9620	 3.0630
 4.9670	 3.0500
 4.9720	 2.9810
 4.9760	 2.9850
 4.9810	 2.9820
 4.9860	 2.9740
 4.9910	 2.9650
 4.9960	 3.0040
 5.0000	 3.0270
 5.0050	 3.0400
 5.0100	 3.0500
 5.0150	 3.0810
 5.0200	 3.0470
 5.0250	 3.0490
 5.0290	 3.0370
 5.0340	 3.0350
 5.0390	 3.0340
 5.0440	 3.0160
 5.0490	 3.0180
 5.0540	 3.0270
 5.0590	 3.0200
 5.0640	 3.0580
 5.0690	 3.0490
 5.0740	 3.1030
 5.0790	 3.0610
 5.0840	 3.0280
 5.0890	 3.0050
 5.0940	 3.0300
 5.0990	 3.0500
 5.1040	 3.0380
 5.1090	 3.0400
 5.1140	 3.0450
 5.1190	 2.9900
 5.1240	 2.9880
 5.1290	 3.0180
 5.1340	 3.0410
 5.1390	 3.0840
 5.1440	 3.0770
 5.1490	 3.0230
 5.1540	 3.0440
 5.1600	 3.0420
 5.1650	 3.0660
 5.1700	 3.0920
 5.1750	 3.1130
 5.1800	 3.0970
 5.1850	 3.0700
 5.1910	 3.0490
 5.1960	 3.0390
 5.2010	 3.0210
 5.2060	 3.0540
 5.2110	 3.0920
 5.2170	 3.0940
 5.2220	 3.0750
 5.2270	 3.1100
 5.2320	 3.1000
 5.2380	 3.0650
 5.2430	 3.0230
 5.2480	 3.0410
 5.2540	 3.0590
 5.2590	 3.0640
 5.2640	 3.0510
 5.2700	 3.0890
 5.2750	 3.1040
 5.2800	 3.0920
 5.2860	 3.0630
 5.2910	 3.0930
 5.2970	 3.0690
 5.3020	 3.0600
 5.3070	 3.0740
 5.3130	 3.0490
 5.3180	 3.0210
 5.3240	 3.0630
 5.3290	 3.0630
 5.3350	 3.0900
 5.3400	 3.0570
 5.3460	 3.0270
 5.3510	 3.0050
 5.3570	 3.0200
 5.3620	 3.0300
 5.3680	 3.0230
 5.3730	 3.0050
 5.3790	 3.0390
 5.3850	 3.0340
 5.3900	 3.0120
 5.3960	 2.9880
 5.4010	 2.9870
 5.4070	 2.9920
 5.4130	 3.0090
 5.4180	 3.0100
 5.4240	 3.0200
 5.4300	 3.0050
 5.4350	 2.9930
 5.4410	 2.9850
 5.4470	 2.9860
 5.4530	 2.9690
 5.4580	 3.0040
 5.4640	 3.0110
 5.4700	 2.9980
 5.4760	 2.9520
 5.4810	 2.9140
 5.4870	 2.8910
 5.4930	 2.9280
 5.4990	 2.9110
 5.5050	 2.9210
 5.5110	 2.9460
 5.5160	 2.9540
 5.5220	 2.9160
 5.5280	 2.9130
 5.5340	 2.8650
 5.5400	 2.8310
 5.5460	 2.8300
 5.5520	 2.8870
 5.5580	 2.8600
 5.5640	 2.8220
 5.5700	 2.8340
 5.5760	 2.8770
 5.5820	 2.8120
 5.5880	 2.7560
 5.5940	 2.7410
 5.6000	 2.7740
 5.6060	 2.7700
 5.6120	 2.7870
 5.6180	 2.7080
 5.6240	 2.6720
 5.6300	 2.7000
 5.6360	 2.7390
 5.6420	 2.6960
 5.6490	 2.6320
 5.6550	 2.5800
 5.6610	 2.5570
 5.6670	 2.5460
 5.6730	 2.5790
 5.6800	 2.5150
 5.6860	 2.4550
 5.6920	 2.4170
 5.6980	 2.3700
 5.7040	 2.2890
 5.7110	 2.2370
 5.7170	 2.1500
 5.7230	 2.1620
 5.7300	 2.0940
 5.7360	 2.0150
 5.7420	 1.9340
 5.7490	 1.9350
 5.7550	 1.9510
 5.7620	 2.0660
 5.7680	 2.2180
 5.7740	 2.3640
 5.7810	 2.4540
 5.7870	 2.5340
 5.7940	 2.5960
 5.8000	 2.7000
 5.8070	 2.7170
 5.8130	 2.7240
 5.8200	 2.7050
 5.8260	 2.7490
 5.8330	 2.7860
 5.8390	 2.8480
 5.8460	 2.8750
 5.8530	 2.8840
 5.8590	 2.8810
 5.8660	 2.8840
 5.8720	 2.8370
 5.8790	 2.8350
 5.8860	 2.8260
 5.8920	 2.8120
 5.8990	 2.7780
 5.9060	 2.8010
 5.9130	 2.7580
 5.9190	 2.7660
 5.9260	 2.7380
 5.9330	 2.7560
 5.9400	 2.7140
 5.9470	 2.7130
 5.9530	 2.6280
 5.9600	 2.5950
 5.9670	 2.5830
 5.9740	 2.6160
 5.9810	 2.5940
 5.9880	 2.5570
 5.9950	 2.4950
 6.0020	 2.5220
 6.0090	 2.5150
 6.0160	 2.5280
 6.0230	 2.4750
 6.0300	 2.4830
 6.0370	 2.5030
 6.0440	 2.4850
 6.0510	 2.3830
 6.0580	 2.4090
 6.0650	 2.3740
 6.0720	 2.3630
 6.0790	 2.3360
 6.0860	 2.3420
 6.0930	 2.3570
 6.1000	 2.4130
 6.1080	 2.3570
 6.1150	 2.3600
 6.1220	 2.3480
 6.1290	 2.3480
 6.1370	 2.3180
 6.1440	 2.3690
 6.1510	 2.3490
 6.1580	 2.3380
 6.1660	 2.3480
 6.1730	 2.4080
 6.1800	 2.3920
 6.1880	 2.3510
 6.1950	 2.3140
 6.2030	 2.3720
 6.2100	 2.3620
 6.2170	 2.3650
 6.2250	 2.3740
 6.2320	 2.3840
 6.2400	 2.2860
 6.2470	 2.2800
 6.2550	 2.3250
 6.2630	 2.3930
 6.2700	 2.3780
 6.2780	 2.4260
 6.2850	 2.4250
 6.2930	 2.4740
 6.3010	 2.4600
 6.3080	 2.4070
 6.3160	 2.3540
 6.3240	 2.4140
 6.3310	 2.4340
 6.3390	 2.4630
 6.3470	 2.4250
 6.3550	 2.4640
 6.3620	 2.4340
 6.3700	 2.4560
 6.3780	 2.4210
 6.3860	 2.4200
 6.3940	 2.4070
 6.4020	 2.4590
 6.4100	 2.4480
 6.4180	 2.4720
 6.4260	 2.4730
 6.4330	 2.5350
 6.4410	 2.5360
 6.4490	 2.5930
 6.4580	 2.5310
 6.4660	 2.5010
 6.4740	 2.5010
 6.4820	 2.5420
 6.4900	 2.4920
 6.4980	 2.5170
 6.5060	 2.5280
 6.5140	 2.5230
 6.5230	 2.5060
 6.5310	 2.5710
 6.5390	 2.4930
 6.5470	 2.4800
 6.5550	 2.4870
 6.5640	 2.5140
 6.5720	 2.4600
 6.5800	 2.4470
 6.5890	 2.3940
 6.5970	 2.4250
 6.6060	 2.4590
 6.6140	 2.5130
 6.6220	 2.4560
 6.6310	 2.4760
 6.6390	 2.4050
 6.6480	 2.4370
 6.6560	 2.4550
 6.6650	 2.5060
 6.6740	 2.5010
 6.6820	 2.4780
 6.6910	 2.4410
 6.6990	 2.5090
 6.7080	 2.4370
 6.7170	 2.4570
 6.7260	 2.4010
 6.7340	 2.3860
 6.7430	 2.3890
 6.7520	 2.4070
 6.7610	 2.2890
 6.7690	 2.2880
 6.7780	 2.2690
 6.7870	 2.3980
 6.7960	 2.4110
 6.8050	 2.3300
 6.8140	 2.2770
 6.8230	 2.3260
 6.8320	 2.3810
 6.8410	 2.4760
 6.8500	 2.3970
 6.8590	 2.3900
 6.8680	 2.3430
 6.8770	 2.3510
 6.8860	 2.3450
 6.8950	 2.3870
 6.9050	 2.3450
 6.9140	 2.3680
 6.9230	 2.3210
 6.9320	 2.3210
 6.9420	 2.3130
 6.9510	 2.3800
 6.9600	 2.3370
 6.9700	 2.3310
 6.9790	 2.3120
 6.9880	 2.3770
 6.9980	 2.3610
 7.0070	 2.3720
 7.0170	 2.2990
 7.0260	 2.2720
 7.0360	 2.2840
 7.0450	 2.3390
 7.0550	 2.2800
 7.0650	 2.2880
 7.0740	 2.2690
 7.0840	 2.2910
 7.0940	 2.2410
 7.1030	 2.2410
 7.1130	 2.1990
 7.1230	 2.1870
 7.1330	 2.1800
 7.1420	 2.2780
 7.1520	 2.1920
 7.1620	 2.1750
 7.1720	 2.1430
 7.1820	 2.2060
 7.1920	 2.1940
 7.2020	 2.2360
 7.2120	 2.1830
 7.2220	 2.1440
 7.2320	 2.1040
 7.2420	 2.1980
 7.2520	 2.1550
 7.2620	 2.1660
 7.2730	 2.1630
 7.2830	 2.1890
 7.2930	 2.1310
 7.3030	 2.1520
 7.3140	 2.1460
 7.3240	 2.1850
 7.3340	 2.1640
 7.3450	 2.2520
 7.3550	 2.2570
 7.3660	 2.2880
 7.3760	 2.2130
 7.3870	 2.2230
 7.3970	 2.1990
 7.4080	 2.2900
 7.4180	 2.2810
 7.4290	 2.2400
 7.4400	 2.1880
 7.4500	 2.3100
 7.4610	 2.3030
 7.4720	 2.2730
 7.4830	 2.1970
 7.4930	 2.2750
 7.5040	 2.2340
 7.5150	 2.2510
 7.5260	 2.2160
 7.5370	 2.2300
 7.5480	 2.1840
 7.5590	 2.2090
 7.5700	 2.1840
 7.5810	 2.2070
 7.5920	 2.1850
 7.6030	 2.1950
 7.6140	 2.1280
 7.6260	 2.1550
 7.6370	 2.1510
 7.6480	 2.2280
 7.6590	 2.1640
 7.6710	 2.1630
 7.6820	 2.1000
 7.6930	 2.1060
 7.7050	 2.0550
 7.7160	 2.1480
 7.7280	 2.1020
 7.7390	 2.1380
 7.7510	 2.1050
 7.7630	 2.1210
 7.7740	 2.0490
 7.7860	 2.0610
 7.7980	 2.0120
 7.8090	 2.0640
 7.8210	 2.0360
 7.8330	 2.0910
 7.8450	 2.0360
 7.8570	 2.0620
 7.8690	 1.9880
 7.8810	 1.9780
 7.8930	 1.9100
 7.9050	 1.9280
 7.9170	 1.8370
 7.9290	 1.9180
 7.9410	 1.9230
 7.9530	 1.9350
 7.9650	 1.8670
 7.9780	 1.9260
 7.9900	 1.8780
 8.0020	 1.8570
 8.0150	 1.7770
 8.0270	 1.8180
 8.0390	 1.8260
 8.0520	 1.8700
 8.0640	 1.7350
 8.0770	 1.7110
 8.0900	 1.6480
 8.1020	 1.6670
 8.1150	 1.6540
 8.1280	 1.6470
 8.1400	 1.5880
 8.1530	 1.6710
 8.1660	 1.5940
 8.1790	 1.5790
 8.1920	 1.5480
 8.2050	 1.6320
 8.2180	 1.5760
 8.2310	 1.5860
 8.2440	 1.5560
 8.2570	 1.5900
 8.2700	 1.5570
 8.2830	 1.5830
 8.2970	 1.5220
 8.3100	 1.6570
 8.3230	 1.6880
 8.3370	 1.6640
 8.3500	 1.5770
 8.3640	 1.5990
 8.3770	 1.5550
 8.3910	 1.6440
 8.4040	 1.6050
 8.4180	 1.5940
 8.4320	 1.5320
 8.4450	 1.6140
 8.4590	 1.5570
 8.4730	 1.6020
 8.4870	 1.6310
 8.5010	 1.7210
 8.5150	 1.6880
 8.5290	 1.7750
 8.5430	 1.7550
 8.5570	 1.8500
 8.5710	 1.8550
 8.5850	 1.8760
 8.5990	 1.8140
 8.6140	 1.8960
 8.6280	 1.8630
 8.6420	 1.9220
 8.6570	 1.8960
 8.6710	 1.9670
 8.6860	 1.8910
 8.7000	 1.8870
 8.7150	 1.8290
 8.7300	 1.8450
 8.7440	 1.8320
 8.7590	 1.9190
 8.7740	 1.8490
 8.7890	 1.8640
 8.8040	 1.8020
 8.8190	 1.8310
 8.8340	 1.8190
 8.8490	 1.8800
 8.8640	 1.7870
 8.8790	 1.8010
 8.8940	 1.7580
 8.9100	 1.8020
 8.9250	 1.7230
 8.9400	 1.7530
 8.9560	 1.7290
 8.9710	 1.7440
 8.9870	 1.6170
 9.0020	 1.6540
 9.0180	 1.6340
 9.0340	 1.6750
 9.0500	 1.6100
 9.0650	 1.6910
 9.0810	 1.6830
 9.0970	 1.7280
 9.1130	 1.6570
 9.1290	 1.6720
 9.1450	 1.5890
 9.1610	 1.6650
 9.1780	 1.6110
 9.1940	 1.6990
 9.2100	 1.6850
 9.2270	 1.6970
 9.2430	 1.6360
 9.2600	 1.6690
 9.2760	 1.5950
 9.2930	 1.6750
 9.3090	 1.6240
 9.3260	 1.6230
 9.3430	 1.5690
 9.3600	 1.6280
 9.3770	 1.5430
 9.3940	 1.6000
 9.4110	 1.5430
 9.4280	 1.6360
 9.4450	 1.6020
 9.4620	 1.6480
 9.4800	 1.5910
 9.4970	 1.6500
 9.5140	 1.6180
 9.5320	 1.6520
 9.5500	 1.5020
 9.5670	 1.5270
 9.5850	 1.5320
 9.6030	 1.6380
 9.6200	 1.5600
 9.6380	 1.6030
 9.6560	 1.5300
 9.6740	 1.6220
 9.6920	 1.5930
 9.7100	 1.6450
 9.7290	 1.6240
 9.7470	 1.6940
 9.7650	 1.5730
 9.7840	 1.5870
 9.8020	 1.5110
 9.8210	 1.5860
 9.8390	 1.6400
 9.8580	 1.7330
 9.8770	 1.6470
 9.8960	 1.6980
 9.9150	 1.6670
 9.9340	 1.7480
 9.9530	 1.6750
 9.9720	 1.6900
 9.9910	 1.6970
10.0100	 1.8060
10.0300	 1.7670
10.0490	 1.8150
10.0690	 1.7480
10.0880	 1.8070
10.1080	 1.7560
10.1280	 1.8650
10.1480	 1.8410
10.1670	 1.8880
10.1870	 1.8300
10.2070	 1.9270
10.2280	 1.8550
10.2480	 1.9040
10.2680	 1.8610
10.2890	 1.9520
10.3090	 1.9010
10.3300	 1.9160
10.3500	 1.8520
10.3710	 1.9670
10.3920	 1.9600
10.4120	 2.0470
10.4330	 1.9700
10.4540	 2.0190
10.4760	 1.9810
10.4970	 2.0310
10.5180	 1.9280
10.5390	 1.9800
10.5610	 1.9590
10.5820	 2.0480
10.6040	 2.0130
10.6260	 2.0710
10.6480	 1.9920
10.6700	 2.0430
10.6920	 1.9950
10.7140	 2.0660
10.7360	 1.9970
10.7580	 2.0120
10.7800	 1.9330
10.8030	 2.0260
10.8250	 1.9880
10.8480	 2.0630
10.8710	 1.9650
10.8940	 2.0260
10.9170	 1.9210
10.9400	 1.9210
10.9630	 1.8710
10.9860	 1.9770
11.0090	 1.9390
11.0330	 2.0120
11.0560	 1.9470
11.0800	 1.9770
11.1040	 1.8740
11.1270	 1.9110
11.1510	 1.8600
11.1750	 1.9340
11.2000	 1.8710
11.2240	 1.9500
11.2480	 1.8690
11.2730	 1.8990
11.2970	 1.8430
11.3220	 1.9510
11.3470	 1.9160
11.3720	 1.9700
11.3970	 1.8590
11.4220	 1.8580
11.4470	 1.8200
11.4720	 2.0020
11.4980	 1.8900
11.5230	 1.9070
11.5490	 1.8360
11.5750	 1.8640
11.6000	 1.7440
11.6260	 1.8690
11.6530	 1.8380
11.6790	 1.8480
11.7050	 1.7480
11.7320	 1.8650
11.7580	 1.7890
11.7850	 1.8390
11.8120	 1.7590
11.8390	 1.8000
11.8660	 1.7240
11.8930	 1.8310
11.9200	 1.7790
11.9480	 1.8090
11.9760	 1.7300
12.0030	 1.7890
12.0310	 1.6810
12.0590	 1.7480
12.0870	 1.6640
12.1150	 1.7250
12.1440	 1.6840
12.1720	 1.7740
12.2010	 1.6580
12.2300	 1.6960
12.2590	 1.6920
12.2880	 1.7730
12.3170	 1.6000
12.3460	 1.6330
12.3760	 1.5590
12.4050	 1.6260
12.4350	 1.5480
12.4650	 1.6010
12.4950	 1.5280
12.5250	 1.6130
12.5550	 1.5510
12.5860	 1.6290
12.6170	 1.5330
12.6470	 1.5850
12.6780	 1.5360
12.7090	 1.5990
12.7410	 1.5050
12.7720	 1.5700
12.8030	 1.5060
12.8350	 1.6100
12.8670	 1.4840
12.8990	 1.5180
12.9310	 1.3820
12.9640	 1.4120
12.9960	 1.3490
13.0290	 1.4550
13.0610	 1.3770
13.0940	 1.4500
13.1280	 1.3910
13.1610	 1.4330
13.1940	 1.2710
13.2280	 1.2990
13.2620	 1.2480
13.2960	 1.3150
13.3300	 1.2290
13.3640	 1.2940
13.3990	 1.1580
13.4340	 1.2170
13.4690	 1.1490
13.5040	 1.2590
13.5390	 1.1690
13.5740	 1.2110
13.6100	 1.1580
13.6460	 1.2300
13.6820	 1.1500
13.7180	 1.2580
13.7540	 1.1360
13.7910	 1.1350
13.8280	 1.0660
13.8650	 1.1790
13.9020	 1.1010
13.9390	 1.2200
13.9770	 1.1060
14.0150	 1.1670
14.0530	 1.0440
14.0910	 1.0660
14.1290	 0.9540
14.1680	 1.0240
14.2070	 0.9410
14.2460	 1.0300
14.2850	 0.9450
14.3240	 0.9990
14.3640	 0.8250
14.4040	 0.8700
14.4440	 0.8250
14.4840	 0.9210
14.5250	 0.7680
14.5660	 0.7900
14.6070	 0.6710
14.6480	 0.7950
14.6900	 0.7260
14.7310	 0.8360
14.7730	 0.7460
14.8150	 0.7970
14.8580	 0.6420
14.9010	 0.6640
14.9440	 0.4290
14.9870	 0.5250
15.0300	 0.6230
15.0740	 0.7660
15.1180	 0.5910
15.1620	 0.6320
15.2060	 0.5300
15.2510	 0.6250
15.2960	 0.5230
15.3410	 0.5620
15.3870	 0.4500
