Name: Quercus lobata 1
Type: vegetation
Class: Tree
Genus: Quercus
Species: lobata
Sample No.: VH282
Owner: UCSB
Wavelength Range: VSWIR
Origin: 34.7139; -120.0598; WGS84
Collection Date: 11/2/2013
Description: Samples were collected as part of the HyspIRI Airborne Campaign. 48 individual plants were sampled in three times in 2013 - spring  summer  and fall. The name of the sample includes a 1  2  or 3 which references a different individual of the species. Samples were taken to JPL and processed within 48 hours of collection. The same leaves were processed in the Nicolet and then measured using the ASD.
Measurement: Bidirectional reflectance
First Column: X
Second Column: Y
X Units: Wavelength (micrometers)
Y Units: Reflectance (percentage)
First X Value: 0.35
Last X Value: 2.5
Number of X Values: 2151
Additional Information: vegetation.tree.quercus.lobata.vswir.vh282.ucsb.asd.ancillary.txt

 0.3500	 7.8510
 0.3510	 7.8240
 0.3520	 7.7880
 0.3530	 7.7850
 0.3540	 7.8120
 0.3550	 7.7890
 0.3560	 7.6580
 0.3570	 7.5710
 0.3580	 7.7080
 0.3590	 7.5490
 0.3600	 7.4620
 0.3610	 7.5690
 0.3620	 7.5330
 0.3630	 7.5330
 0.3640	 7.5900
 0.3650	 7.6700
 0.3660	 7.6810
 0.3670	 7.6560
 0.3680	 7.6140
 0.3690	 7.5680
 0.3700	 7.6480
 0.3710	 7.7250
 0.3720	 7.7280
 0.3730	 7.7400
 0.3740	 7.8280
 0.3750	 7.8910
 0.3760	 7.8280
 0.3770	 7.8010
 0.3780	 7.8210
 0.3790	 7.8650
 0.3800	 7.8900
 0.3810	 7.9300
 0.3820	 7.9910
 0.3830	 8.0540
 0.3840	 8.0620
 0.3850	 8.0540
 0.3860	 8.0990
 0.3870	 8.2330
 0.3880	 8.2750
 0.3890	 8.3020
 0.3900	 8.3470
 0.3910	 8.3870
 0.3920	 8.4820
 0.3930	 8.5830
 0.3940	 8.6450
 0.3950	 8.7010
 0.3960	 8.7680
 0.3970	 8.8290
 0.3980	 8.8680
 0.3990	 8.9730
 0.4000	 9.0640
 0.4010	 9.1220
 0.4020	 9.2310
 0.4030	 9.3640
 0.4040	 9.4710
 0.4050	 9.5280
 0.4060	 9.6080
 0.4070	 9.7160
 0.4080	 9.8310
 0.4090	 9.9220
 0.4100	10.0330
 0.4110	10.1400
 0.4120	10.2320
 0.4130	10.3280
 0.4140	10.4290
 0.4150	10.5220
 0.4160	10.6040
 0.4170	10.7160
 0.4180	10.8100
 0.4190	10.8830
 0.4200	10.9820
 0.4210	11.0570
 0.4220	11.1240
 0.4230	11.2010
 0.4240	11.2820
 0.4250	11.3480
 0.4260	11.4120
 0.4270	11.4920
 0.4280	11.5650
 0.4290	11.6190
 0.4300	11.6650
 0.4310	11.7350
 0.4320	11.7800
 0.4330	11.8120
 0.4340	11.8520
 0.4350	11.8900
 0.4360	11.9310
 0.4370	11.9790
 0.4380	12.0330
 0.4390	12.0780
 0.4400	12.1220
 0.4410	12.1680
 0.4420	12.2060
 0.4430	12.2410
 0.4440	12.2740
 0.4450	12.3020
 0.4460	12.3340
 0.4470	12.3730
 0.4480	12.4130
 0.4490	12.4370
 0.4500	12.4500
 0.4510	12.4720
 0.4520	12.5120
 0.4530	12.5390
 0.4540	12.5630
 0.4550	12.5940
 0.4560	12.6380
 0.4570	12.6590
 0.4580	12.6810
 0.4590	12.7160
 0.4600	12.7410
 0.4610	12.7610
 0.4620	12.7910
 0.4630	12.8400
 0.4640	12.8680
 0.4650	12.8950
 0.4660	12.9240
 0.4670	12.9420
 0.4680	12.9770
 0.4690	13.0030
 0.4700	13.0070
 0.4710	13.0390
 0.4720	13.0680
 0.4730	13.0870
 0.4740	13.1000
 0.4750	13.1110
 0.4760	13.1230
 0.4770	13.1400
 0.4780	13.1640
 0.4790	13.1730
 0.4800	13.1800
 0.4810	13.2010
 0.4820	13.2260
 0.4830	13.2460
 0.4840	13.2650
 0.4850	13.2970
 0.4860	13.3240
 0.4870	13.3550
 0.4880	13.3970
 0.4890	13.4490
 0.4900	13.5010
 0.4910	13.5530
 0.4920	13.6110
 0.4930	13.6750
 0.4940	13.7500
 0.4950	13.8340
 0.4960	13.9260
 0.4970	14.0280
 0.4980	14.1400
 0.4990	14.2620
 0.5000	14.3990
 0.5010	14.5530
 0.5020	14.7250
 0.5030	14.9080
 0.5040	15.1100
 0.5050	15.3350
 0.5060	15.5820
 0.5070	15.8480
 0.5080	16.1400
 0.5090	16.4610
 0.5100	16.8120
 0.5110	17.1820
 0.5120	17.5770
 0.5130	18.0000
 0.5140	18.4410
 0.5150	18.9040
 0.5160	19.3870
 0.5170	19.8850
 0.5180	20.3940
 0.5190	20.9130
 0.5200	21.4370
 0.5210	21.9620
 0.5220	22.4820
 0.5230	22.9920
 0.5240	23.4940
 0.5250	23.9880
 0.5260	24.4660
 0.5270	24.9240
 0.5280	25.3620
 0.5290	25.7860
 0.5300	26.1930
 0.5310	26.5810
 0.5320	26.9460
 0.5330	27.2950
 0.5340	27.6260
 0.5350	27.9390
 0.5360	28.2360
 0.5370	28.5200
 0.5380	28.7900
 0.5390	29.0420
 0.5400	29.2790
 0.5410	29.4990
 0.5420	29.7080
 0.5430	29.9170
 0.5440	30.1330
 0.5450	30.3510
 0.5460	30.5650
 0.5470	30.7930
 0.5480	31.0140
 0.5490	31.2120
 0.5500	31.3860
 0.5510	31.5560
 0.5520	31.7150
 0.5530	31.8540
 0.5540	31.9870
 0.5550	32.1090
 0.5560	32.2200
 0.5570	32.3180
 0.5580	32.4130
 0.5590	32.4960
 0.5600	32.5630
 0.5610	32.6280
 0.5620	32.6830
 0.5630	32.7290
 0.5640	32.7710
 0.5650	32.8030
 0.5660	32.8300
 0.5670	32.8480
 0.5680	32.8460
 0.5690	32.8410
 0.5700	32.8360
 0.5710	32.8270
 0.5720	32.8130
 0.5730	32.7940
 0.5740	32.7760
 0.5750	32.7680
 0.5760	32.7710
 0.5770	32.7700
 0.5780	32.7560
 0.5790	32.7390
 0.5800	32.7280
 0.5810	32.7260
 0.5820	32.7350
 0.5830	32.7610
 0.5840	32.7760
 0.5850	32.7760
 0.5860	32.7840
 0.5870	32.7860
 0.5880	32.7890
 0.5890	32.8040
 0.5900	32.8390
 0.5910	32.8910
 0.5920	32.9520
 0.5930	33.0070
 0.5940	33.0590
 0.5950	33.1030
 0.5960	33.1350
 0.5970	33.1610
 0.5980	33.1810
 0.5990	33.1960
 0.6000	33.2070
 0.6010	33.2230
 0.6020	33.2260
 0.6030	33.2100
 0.6040	33.1850
 0.6050	33.1510
 0.6060	33.1040
 0.6070	33.0440
 0.6080	32.9810
 0.6090	32.8990
 0.6100	32.7930
 0.6110	32.6720
 0.6120	32.6000
 0.6130	32.5570
 0.6140	32.5200
 0.6150	32.4730
 0.6160	32.4270
 0.6170	32.3800
 0.6180	32.3320
 0.6190	32.3010
 0.6200	32.2780
 0.6210	32.2650
 0.6220	32.2660
 0.6230	32.2740
 0.6240	32.2890
 0.6250	32.3110
 0.6260	32.3530
 0.6270	32.3990
 0.6280	32.4450
 0.6290	32.4920
 0.6300	32.5440
 0.6310	32.5940
 0.6320	32.6440
 0.6330	32.6990
 0.6340	32.7290
 0.6350	32.7380
 0.6360	32.7330
 0.6370	32.7010
 0.6380	32.6460
 0.6390	32.5680
 0.6400	32.4650
 0.6410	32.3400
 0.6420	32.1880
 0.6430	32.0160
 0.6440	31.8430
 0.6450	31.6440
 0.6460	31.4340
 0.6470	31.2290
 0.6480	31.0160
 0.6490	30.8130
 0.6500	30.6210
 0.6510	30.4230
 0.6520	30.2210
 0.6530	30.0170
 0.6540	29.8060
 0.6550	29.5730
 0.6560	29.3200
 0.6570	29.0460
 0.6580	28.7490
 0.6590	28.4290
 0.6600	28.0990
 0.6610	27.7620
 0.6620	27.4160
 0.6630	27.0710
 0.6640	26.7490
 0.6650	26.4670
 0.6660	26.2140
 0.6670	25.9850
 0.6680	25.7890
 0.6690	25.6360
 0.6700	25.5270
 0.6710	25.4630
 0.6720	25.4430
 0.6730	25.4580
 0.6740	25.5120
 0.6750	25.6000
 0.6760	25.7200
 0.6770	25.8830
 0.6780	26.0890
 0.6790	26.3360
 0.6800	26.6250
 0.6810	26.9840
 0.6820	27.4040
 0.6830	27.8910
 0.6840	28.4800
 0.6850	29.1540
 0.6860	29.9140
 0.6870	30.7610
 0.6880	31.6770
 0.6890	32.6680
 0.6900	33.7250
 0.6910	34.8230
 0.6920	35.9350
 0.6930	37.0670
 0.6940	38.2170
 0.6950	39.3410
 0.6960	40.4490
 0.6970	41.5360
 0.6980	42.5870
 0.6990	43.5830
 0.7000	44.5400
 0.7010	45.4550
 0.7020	46.3040
 0.7030	47.0950
 0.7040	47.8330
 0.7050	48.5180
 0.7060	49.1510
 0.7070	49.7370
 0.7080	50.2820
 0.7090	50.7960
 0.7100	51.2690
 0.7110	51.7060
 0.7120	52.1170
 0.7130	52.5140
 0.7140	52.8860
 0.7150	53.2320
 0.7160	53.5500
 0.7170	53.8510
 0.7180	54.1350
 0.7190	54.4020
 0.7200	54.6570
 0.7210	54.9050
 0.7220	55.1350
 0.7230	55.3500
 0.7240	55.5620
 0.7250	55.7570
 0.7260	55.9430
 0.7270	56.1270
 0.7280	56.2820
 0.7290	56.4330
 0.7300	56.5880
 0.7310	56.7440
 0.7320	56.8770
 0.7330	57.0040
 0.7340	57.1310
 0.7350	57.2430
 0.7360	57.3610
 0.7370	57.4780
 0.7380	57.5820
 0.7390	57.6650
 0.7400	57.7600
 0.7410	57.8600
 0.7420	57.9450
 0.7430	58.0170
 0.7440	58.0910
 0.7450	58.1650
 0.7460	58.2260
 0.7470	58.3030
 0.7480	58.3750
 0.7490	58.4280
 0.7500	58.4870
 0.7510	58.5430
 0.7520	58.5950
 0.7530	58.6450
 0.7540	58.6950
 0.7550	58.7440
 0.7560	58.7890
 0.7570	58.8230
 0.7580	58.8550
 0.7590	58.8950
 0.7600	58.9420
 0.7610	58.9750
 0.7620	59.0210
 0.7630	59.0670
 0.7640	59.0960
 0.7650	59.1260
 0.7660	59.1570
 0.7670	59.1930
 0.7680	59.2330
 0.7690	59.2480
 0.7700	59.2700
 0.7710	59.3110
 0.7720	59.3550
 0.7730	59.3870
 0.7740	59.4110
 0.7750	59.4370
 0.7760	59.4570
 0.7770	59.5000
 0.7780	59.5480
 0.7790	59.5660
 0.7800	59.5860
 0.7810	59.6100
 0.7820	59.6410
 0.7830	59.6810
 0.7840	59.7240
 0.7850	59.7580
 0.7860	59.7820
 0.7870	59.8200
 0.7880	59.8620
 0.7890	59.8940
 0.7900	59.9090
 0.7910	59.9340
 0.7920	59.9580
 0.7930	59.9850
 0.7940	60.0250
 0.7950	60.0760
 0.7960	60.1170
 0.7970	60.1430
 0.7980	60.1810
 0.7990	60.2100
 0.8000	60.2400
 0.8010	60.2790
 0.8020	60.3190
 0.8030	60.3550
 0.8040	60.3840
 0.8050	60.4050
 0.8060	60.4380
 0.8070	60.4800
 0.8080	60.5200
 0.8090	60.5470
 0.8100	60.5840
 0.8110	60.6210
 0.8120	60.6580
 0.8130	60.7140
 0.8140	60.7450
 0.8150	60.7650
 0.8160	60.7950
 0.8170	60.8310
 0.8180	60.8810
 0.8190	60.9270
 0.8200	60.9510
 0.8210	60.9810
 0.8220	61.0140
 0.8230	61.0440
 0.8240	61.0640
 0.8250	61.1060
 0.8260	61.1560
 0.8270	61.1960
 0.8280	61.2110
 0.8290	61.2470
 0.8300	61.2780
 0.8310	61.2820
 0.8320	61.3230
 0.8330	61.3560
 0.8340	61.3800
 0.8350	61.4120
 0.8360	61.4360
 0.8370	61.4650
 0.8380	61.5030
 0.8390	61.5450
 0.8400	61.5730
 0.8410	61.5980
 0.8420	61.6260
 0.8430	61.6540
 0.8440	61.6930
 0.8450	61.7240
 0.8460	61.7390
 0.8470	61.7720
 0.8480	61.8130
 0.8490	61.8390
 0.8500	61.8420
 0.8510	61.8820
 0.8520	61.9170
 0.8530	61.9390
 0.8540	61.9670
 0.8550	61.9910
 0.8560	62.0170
 0.8570	62.0430
 0.8580	62.0580
 0.8590	62.0650
 0.8600	62.0740
 0.8610	62.0940
 0.8620	62.1190
 0.8630	62.1460
 0.8640	62.1760
 0.8650	62.2050
 0.8660	62.2260
 0.8670	62.2310
 0.8680	62.2390
 0.8690	62.2650
 0.8700	62.2720
 0.8710	62.2770
 0.8720	62.2900
 0.8730	62.3100
 0.8740	62.3310
 0.8750	62.3530
 0.8760	62.3720
 0.8770	62.3830
 0.8780	62.3850
 0.8790	62.3850
 0.8800	62.3940
 0.8810	62.4310
 0.8820	62.4440
 0.8830	62.4430
 0.8840	62.4450
 0.8850	62.4560
 0.8860	62.4600
 0.8870	62.4590
 0.8880	62.4580
 0.8890	62.4670
 0.8900	62.4600
 0.8910	62.4520
 0.8920	62.4680
 0.8930	62.4990
 0.8940	62.5070
 0.8950	62.4950
 0.8960	62.4960
 0.8970	62.5110
 0.8980	62.5190
 0.8990	62.5190
 0.9000	62.5240
 0.9010	62.5370
 0.9020	62.5360
 0.9030	62.5230
 0.9040	62.5240
 0.9050	62.5100
 0.9060	62.5060
 0.9070	62.5250
 0.9080	62.5410
 0.9090	62.5470
 0.9100	62.5340
 0.9110	62.5120
 0.9120	62.5270
 0.9130	62.5300
 0.9140	62.5250
 0.9150	62.5260
 0.9160	62.5260
 0.9170	62.5140
 0.9180	62.5100
 0.9190	62.5330
 0.9200	62.5260
 0.9210	62.5190
 0.9220	62.5190
 0.9230	62.5180
 0.9240	62.5100
 0.9250	62.4970
 0.9260	62.4760
 0.9270	62.4510
 0.9280	62.4360
 0.9290	62.4230
 0.9300	62.4140
 0.9310	62.4140
 0.9320	62.4030
 0.9330	62.3920
 0.9340	62.3780
 0.9350	62.3380
 0.9360	62.3120
 0.9370	62.2920
 0.9380	62.2710
 0.9390	62.2560
 0.9400	62.2270
 0.9410	62.2150
 0.9420	62.2220
 0.9430	62.1820
 0.9440	62.1560
 0.9450	62.1300
 0.9460	62.0870
 0.9470	62.0390
 0.9480	62.0030
 0.9490	61.9740
 0.9500	61.9380
 0.9510	61.8870
 0.9520	61.8290
 0.9530	61.7620
 0.9540	61.6910
 0.9550	61.6380
 0.9560	61.5970
 0.9570	61.5590
 0.9580	61.5140
 0.9590	61.4330
 0.9600	61.3690
 0.9610	61.3310
 0.9620	61.3080
 0.9630	61.2980
 0.9640	61.2660
 0.9650	61.2310
 0.9660	61.2260
 0.9670	61.2230
 0.9680	61.2280
 0.9690	61.2320
 0.9700	61.2320
 0.9710	61.2590
 0.9720	61.2450
 0.9730	61.2110
 0.9740	61.2150
 0.9750	61.2360
 0.9760	61.2540
 0.9770	61.2680
 0.9780	61.2850
 0.9790	61.3070
 0.9800	61.3240
 0.9810	61.3550
 0.9820	61.4150
 0.9830	61.4130
 0.9840	61.4280
 0.9850	61.4540
 0.9860	61.4460
 0.9870	61.4510
 0.9880	61.4940
 0.9890	61.5490
 0.9900	61.5770
 0.9910	61.6120
 0.9920	61.6500
 0.9930	61.6870
 0.9940	61.7210
 0.9950	61.7690
 0.9960	61.7880
 0.9970	61.7970
 0.9980	61.8330
 0.9990	61.8460
 1.0000	61.8280
 1.0010	61.6930
 1.0020	61.6560
 1.0030	61.6890
 1.0040	61.7350
 1.0050	61.7820
 1.0060	61.8260
 1.0070	61.8700
 1.0080	61.9090
 1.0090	61.9390
 1.0100	61.9710
 1.0110	62.0010
 1.0120	62.0350
 1.0130	62.0750
 1.0140	62.1060
 1.0150	62.1340
 1.0160	62.1660
 1.0170	62.1930
 1.0180	62.2210
 1.0190	62.2550
 1.0200	62.2890
 1.0210	62.3210
 1.0220	62.3500
 1.0230	62.3840
 1.0240	62.4240
 1.0250	62.4550
 1.0260	62.4840
 1.0270	62.5120
 1.0280	62.5320
 1.0290	62.5550
 1.0300	62.5790
 1.0310	62.6020
 1.0320	62.6250
 1.0330	62.6490
 1.0340	62.6680
 1.0350	62.6860
 1.0360	62.7080
 1.0370	62.7270
 1.0380	62.7490
 1.0390	62.7780
 1.0400	62.7990
 1.0410	62.8170
 1.0420	62.8350
 1.0430	62.8480
 1.0440	62.8630
 1.0450	62.8750
 1.0460	62.8900
 1.0470	62.9080
 1.0480	62.9230
 1.0490	62.9420
 1.0500	62.9560
 1.0510	62.9630
 1.0520	62.9700
 1.0530	62.9830
 1.0540	62.9970
 1.0550	63.0110
 1.0560	63.0350
 1.0570	63.0470
 1.0580	63.0510
 1.0590	63.0620
 1.0600	63.0700
 1.0610	63.0810
 1.0620	63.0950
 1.0630	63.1090
 1.0640	63.1260
 1.0650	63.1370
 1.0660	63.1490
 1.0670	63.1580
 1.0680	63.1630
 1.0690	63.1600
 1.0700	63.1650
 1.0710	63.1710
 1.0720	63.1770
 1.0730	63.1870
 1.0740	63.1910
 1.0750	63.1910
 1.0760	63.1920
 1.0770	63.1910
 1.0780	63.1920
 1.0790	63.1950
 1.0800	63.1960
 1.0810	63.1960
 1.0820	63.1970
 1.0830	63.2000
 1.0840	63.1990
 1.0850	63.1950
 1.0860	63.1930
 1.0870	63.1880
 1.0880	63.1810
 1.0890	63.1720
 1.0900	63.1640
 1.0910	63.1530
 1.0920	63.1370
 1.0930	63.1260
 1.0940	63.1180
 1.0950	63.1090
 1.0960	63.1060
 1.0970	63.0930
 1.0980	63.0700
 1.0990	63.0520
 1.1000	63.0250
 1.1010	63.0070
 1.1020	62.9960
 1.1030	62.9860
 1.1040	62.9750
 1.1050	62.9590
 1.1060	62.9430
 1.1070	62.9210
 1.1080	62.9020
 1.1090	62.8870
 1.1100	62.8670
 1.1110	62.8430
 1.1120	62.8230
 1.1130	62.8030
 1.1140	62.7790
 1.1150	62.7580
 1.1160	62.7300
 1.1170	62.6940
 1.1180	62.6600
 1.1190	62.6240
 1.1200	62.5850
 1.1210	62.5450
 1.1220	62.5040
 1.1230	62.4560
 1.1240	62.4080
 1.1250	62.3560
 1.1260	62.3020
 1.1270	62.2400
 1.1280	62.1740
 1.1290	62.0980
 1.1300	62.0160
 1.1310	61.9250
 1.1320	61.8290
 1.1330	61.7250
 1.1340	61.6110
 1.1350	61.4930
 1.1360	61.3690
 1.1370	61.2390
 1.1380	61.1030
 1.1390	60.9630
 1.1400	60.8160
 1.1410	60.6640
 1.1420	60.5060
 1.1430	60.3420
 1.1440	60.1810
 1.1450	60.0140
 1.1460	59.8560
 1.1470	59.6980
 1.1480	59.5490
 1.1490	59.4010
 1.1500	59.2650
 1.1510	59.1370
 1.1520	59.0170
 1.1530	58.9040
 1.1540	58.8030
 1.1550	58.7100
 1.1560	58.6280
 1.1570	58.5590
 1.1580	58.4980
 1.1590	58.4480
 1.1600	58.4070
 1.1610	58.3730
 1.1620	58.3510
 1.1630	58.3310
 1.1640	58.3120
 1.1650	58.3010
 1.1660	58.2980
 1.1670	58.2930
 1.1680	58.2940
 1.1690	58.2960
 1.1700	58.3000
 1.1710	58.3030
 1.1720	58.3090
 1.1730	58.3140
 1.1740	58.3170
 1.1750	58.3170
 1.1760	58.3160
 1.1770	58.3140
 1.1780	58.3110
 1.1790	58.3070
 1.1800	58.3030
 1.1810	58.3010
 1.1820	58.2950
 1.1830	58.2880
 1.1840	58.2850
 1.1850	58.2820
 1.1860	58.2770
 1.1870	58.2730
 1.1880	58.2690
 1.1890	58.2620
 1.1900	58.2600
 1.1910	58.2600
 1.1920	58.2630
 1.1930	58.2700
 1.1940	58.2750
 1.1950	58.2800
 1.1960	58.2870
 1.1970	58.2930
 1.1980	58.3010
 1.1990	58.3120
 1.2000	58.3230
 1.2010	58.3330
 1.2020	58.3480
 1.2030	58.3630
 1.2040	58.3790
 1.2050	58.4000
 1.2060	58.4210
 1.2070	58.4410
 1.2080	58.4640
 1.2090	58.4880
 1.2100	58.5140
 1.2110	58.5390
 1.2120	58.5660
 1.2130	58.5940
 1.2140	58.6200
 1.2150	58.6470
 1.2160	58.6750
 1.2170	58.7050
 1.2180	58.7340
 1.2190	58.7630
 1.2200	58.7950
 1.2210	58.8260
 1.2220	58.8560
 1.2230	58.8890
 1.2240	58.9220
 1.2250	58.9550
 1.2260	58.9860
 1.2270	59.0150
 1.2280	59.0470
 1.2290	59.0760
 1.2300	59.1030
 1.2310	59.1300
 1.2320	59.1560
 1.2330	59.1810
 1.2340	59.2080
 1.2350	59.2400
 1.2360	59.2680
 1.2370	59.2960
 1.2380	59.3240
 1.2390	59.3520
 1.2400	59.3770
 1.2410	59.4010
 1.2420	59.4210
 1.2430	59.4370
 1.2440	59.4580
 1.2450	59.4800
 1.2460	59.5000
 1.2470	59.5210
 1.2480	59.5370
 1.2490	59.5530
 1.2500	59.5700
 1.2510	59.5850
 1.2520	59.5980
 1.2530	59.6120
 1.2540	59.6250
 1.2550	59.6370
 1.2560	59.6510
 1.2570	59.6630
 1.2580	59.6710
 1.2590	59.6800
 1.2600	59.6900
 1.2610	59.6970
 1.2620	59.7040
 1.2630	59.7110
 1.2640	59.7160
 1.2650	59.7170
 1.2660	59.7170
 1.2670	59.7180
 1.2680	59.7140
 1.2690	59.7090
 1.2700	59.7070
 1.2710	59.6990
 1.2720	59.6900
 1.2730	59.6820
 1.2740	59.6700
 1.2750	59.6570
 1.2760	59.6460
 1.2770	59.6340
 1.2780	59.6170
 1.2790	59.6000
 1.2800	59.5820
 1.2810	59.5570
 1.2820	59.5370
 1.2830	59.5170
 1.2840	59.4910
 1.2850	59.4690
 1.2860	59.4500
 1.2870	59.4260
 1.2880	59.3980
 1.2890	59.3730
 1.2900	59.3440
 1.2910	59.3100
 1.2920	59.2770
 1.2930	59.2410
 1.2940	59.2050
 1.2950	59.1640
 1.2960	59.1200
 1.2970	59.0780
 1.2980	59.0330
 1.2990	58.9880
 1.3000	58.9400
 1.3010	58.8840
 1.3020	58.8270
 1.3030	58.7680
 1.3040	58.7060
 1.3050	58.6430
 1.3060	58.5730
 1.3070	58.4940
 1.3080	58.4170
 1.3090	58.3320
 1.3100	58.2480
 1.3110	58.1610
 1.3120	58.0640
 1.3130	57.9670
 1.3140	57.8640
 1.3150	57.7530
 1.3160	57.6400
 1.3170	57.5250
 1.3180	57.4030
 1.3190	57.2810
 1.3200	57.1560
 1.3210	57.0240
 1.3220	56.8870
 1.3230	56.7450
 1.3240	56.5970
 1.3250	56.4490
 1.3260	56.2970
 1.3270	56.1430
 1.3280	55.9850
 1.3290	55.8240
 1.3300	55.6640
 1.3310	55.4990
 1.3320	55.3320
 1.3330	55.1650
 1.3340	54.9920
 1.3350	54.8140
 1.3360	54.6380
 1.3370	54.4590
 1.3380	54.2800
 1.3390	54.1010
 1.3400	53.9220
 1.3410	53.7440
 1.3420	53.5690
 1.3430	53.3930
 1.3440	53.2190
 1.3450	53.0460
 1.3460	52.8710
 1.3470	52.7000
 1.3480	52.5320
 1.3490	52.3660
 1.3500	52.2020
 1.3510	52.0410
 1.3520	51.8800
 1.3530	51.7200
 1.3540	51.5590
 1.3550	51.3950
 1.3560	51.2340
 1.3570	51.0720
 1.3580	50.9090
 1.3590	50.7400
 1.3600	50.5690
 1.3610	50.3920
 1.3620	50.2040
 1.3630	50.0130
 1.3640	49.8120
 1.3650	49.5980
 1.3660	49.3800
 1.3670	49.1510
 1.3680	48.9080
 1.3690	48.6530
 1.3700	48.3820
 1.3710	48.0950
 1.3720	47.7930
 1.3730	47.4720
 1.3740	47.1370
 1.3750	46.7830
 1.3760	46.4020
 1.3770	45.9970
 1.3780	45.5610
 1.3790	45.0960
 1.3800	44.6080
 1.3810	44.0890
 1.3820	43.5480
 1.3830	42.9820
 1.3840	42.3950
 1.3850	41.7830
 1.3860	41.1560
 1.3870	40.5030
 1.3880	39.8460
 1.3890	39.1750
 1.3900	38.4920
 1.3910	37.8110
 1.3920	37.1270
 1.3930	36.4390
 1.3940	35.7580
 1.3950	35.0750
 1.3960	34.4010
 1.3970	33.7400
 1.3980	33.0920
 1.3990	32.4670
 1.4000	31.8610
 1.4010	31.2750
 1.4020	30.7160
 1.4030	30.1780
 1.4040	29.6680
 1.4050	29.1880
 1.4060	28.7290
 1.4070	28.3020
 1.4080	27.9030
 1.4090	27.5290
 1.4100	27.1840
 1.4110	26.8620
 1.4120	26.5660
 1.4130	26.2930
 1.4140	26.0420
 1.4150	25.8170
 1.4160	25.6120
 1.4170	25.4260
 1.4180	25.2590
 1.4190	25.1040
 1.4200	24.9660
 1.4210	24.8420
 1.4220	24.7320
 1.4230	24.6390
 1.4240	24.5570
 1.4250	24.4830
 1.4260	24.4220
 1.4270	24.3670
 1.4280	24.3210
 1.4290	24.2840
 1.4300	24.2580
 1.4310	24.2360
 1.4320	24.2230
 1.4330	24.2140
 1.4340	24.2110
 1.4350	24.2110
 1.4360	24.2180
 1.4370	24.2270
 1.4380	24.2380
 1.4390	24.2540
 1.4400	24.2720
 1.4410	24.2930
 1.4420	24.3170
 1.4430	24.3440
 1.4440	24.3730
 1.4450	24.4020
 1.4460	24.4330
 1.4470	24.4640
 1.4480	24.4950
 1.4490	24.5260
 1.4500	24.5570
 1.4510	24.5900
 1.4520	24.6250
 1.4530	24.6620
 1.4540	24.7010
 1.4550	24.7420
 1.4560	24.7820
 1.4570	24.8260
 1.4580	24.8720
 1.4590	24.9220
 1.4600	24.9780
 1.4610	25.0380
 1.4620	25.1010
 1.4630	25.1710
 1.4640	25.2440
 1.4650	25.3240
 1.4660	25.4120
 1.4670	25.5030
 1.4680	25.6020
 1.4690	25.7060
 1.4700	25.8140
 1.4710	25.9300
 1.4720	26.0480
 1.4730	26.1710
 1.4740	26.2990
 1.4750	26.4300
 1.4760	26.5660
 1.4770	26.7030
 1.4780	26.8420
 1.4790	26.9840
 1.4800	27.1260
 1.4810	27.2720
 1.4820	27.4200
 1.4830	27.5690
 1.4840	27.7200
 1.4850	27.8720
 1.4860	28.0230
 1.4870	28.1750
 1.4880	28.3260
 1.4890	28.4790
 1.4900	28.6320
 1.4910	28.7870
 1.4920	28.9430
 1.4930	29.1010
 1.4940	29.2570
 1.4950	29.4160
 1.4960	29.5720
 1.4970	29.7270
 1.4980	29.8830
 1.4990	30.0390
 1.5000	30.1950
 1.5010	30.3500
 1.5020	30.5040
 1.5030	30.6570
 1.5040	30.8100
 1.5050	30.9620
 1.5060	31.1150
 1.5070	31.2670
 1.5080	31.4190
 1.5090	31.5710
 1.5100	31.7220
 1.5110	31.8710
 1.5120	32.0180
 1.5130	32.1640
 1.5140	32.3070
 1.5150	32.4510
 1.5160	32.5970
 1.5170	32.7400
 1.5180	32.8820
 1.5190	33.0220
 1.5200	33.1600
 1.5210	33.2950
 1.5220	33.4310
 1.5230	33.5670
 1.5240	33.6990
 1.5250	33.8310
 1.5260	33.9600
 1.5270	34.0890
 1.5280	34.2180
 1.5290	34.3440
 1.5300	34.4710
 1.5310	34.5960
 1.5320	34.7190
 1.5330	34.8460
 1.5340	34.9700
 1.5350	35.0920
 1.5360	35.2130
 1.5370	35.3310
 1.5380	35.4470
 1.5390	35.5640
 1.5400	35.6770
 1.5410	35.7900
 1.5420	35.9000
 1.5430	36.0090
 1.5440	36.1200
 1.5450	36.2260
 1.5460	36.3320
 1.5470	36.4390
 1.5480	36.5430
 1.5490	36.6500
 1.5500	36.7560
 1.5510	36.8580
 1.5520	36.9620
 1.5530	37.0620
 1.5540	37.1600
 1.5550	37.2590
 1.5560	37.3560
 1.5570	37.4510
 1.5580	37.5470
 1.5590	37.6410
 1.5600	37.7350
 1.5610	37.8270
 1.5620	37.9180
 1.5630	38.0110
 1.5640	38.1030
 1.5650	38.1930
 1.5660	38.2820
 1.5670	38.3680
 1.5680	38.4550
 1.5690	38.5420
 1.5700	38.6280
 1.5710	38.7150
 1.5720	38.7980
 1.5730	38.8800
 1.5740	38.9630
 1.5750	39.0440
 1.5760	39.1250
 1.5770	39.2050
 1.5780	39.2820
 1.5790	39.3600
 1.5800	39.4350
 1.5810	39.5110
 1.5820	39.5870
 1.5830	39.6610
 1.5840	39.7370
 1.5850	39.8110
 1.5860	39.8850
 1.5870	39.9590
 1.5880	40.0300
 1.5890	40.0990
 1.5900	40.1680
 1.5910	40.2380
 1.5920	40.3080
 1.5930	40.3780
 1.5940	40.4460
 1.5950	40.5140
 1.5960	40.5820
 1.5970	40.6500
 1.5980	40.7150
 1.5990	40.7810
 1.6000	40.8490
 1.6010	40.9150
 1.6020	40.9830
 1.6030	41.0530
 1.6040	41.1160
 1.6050	41.1740
 1.6060	41.2340
 1.6070	41.2930
 1.6080	41.3520
 1.6090	41.4130
 1.6100	41.4720
 1.6110	41.5290
 1.6120	41.5860
 1.6130	41.6410
 1.6140	41.6930
 1.6150	41.7430
 1.6160	41.7930
 1.6170	41.8420
 1.6180	41.8920
 1.6190	41.9440
 1.6200	41.9910
 1.6210	42.0360
 1.6220	42.0830
 1.6230	42.1270
 1.6240	42.1720
 1.6250	42.2190
 1.6260	42.2630
 1.6270	42.3040
 1.6280	42.3470
 1.6290	42.3880
 1.6300	42.4320
 1.6310	42.4700
 1.6320	42.5030
 1.6330	42.5370
 1.6340	42.5690
 1.6350	42.6010
 1.6360	42.6360
 1.6370	42.6640
 1.6380	42.6890
 1.6390	42.7110
 1.6400	42.7270
 1.6410	42.7460
 1.6420	42.7660
 1.6430	42.7820
 1.6440	42.8010
 1.6450	42.8080
 1.6460	42.8120
 1.6470	42.8160
 1.6480	42.8170
 1.6490	42.8200
 1.6500	42.8210
 1.6510	42.8180
 1.6520	42.8150
 1.6530	42.8060
 1.6540	42.7970
 1.6550	42.7890
 1.6560	42.7760
 1.6570	42.7640
 1.6580	42.7510
 1.6590	42.7350
 1.6600	42.7240
 1.6610	42.7120
 1.6620	42.7020
 1.6630	42.6970
 1.6640	42.6880
 1.6650	42.6810
 1.6660	42.6750
 1.6670	42.6700
 1.6680	42.6660
 1.6690	42.6650
 1.6700	42.6650
 1.6710	42.6640
 1.6720	42.6620
 1.6730	42.6570
 1.6740	42.6520
 1.6750	42.6440
 1.6760	42.6370
 1.6770	42.6290
 1.6780	42.6200
 1.6790	42.6070
 1.6800	42.5900
 1.6810	42.5640
 1.6820	42.5350
 1.6830	42.5040
 1.6840	42.4700
 1.6850	42.4380
 1.6860	42.4030
 1.6870	42.3650
 1.6880	42.3290
 1.6890	42.2840
 1.6900	42.2410
 1.6910	42.1960
 1.6920	42.1490
 1.6930	42.1020
 1.6940	42.0540
 1.6950	42.0050
 1.6960	41.9540
 1.6970	41.9010
 1.6980	41.8480
 1.6990	41.7920
 1.7000	41.7360
 1.7010	41.6810
 1.7020	41.6240
 1.7030	41.5660
 1.7040	41.5050
 1.7050	41.4430
 1.7060	41.3790
 1.7070	41.3100
 1.7080	41.2430
 1.7090	41.1740
 1.7100	41.1070
 1.7110	41.0400
 1.7120	40.9750
 1.7130	40.9130
 1.7140	40.8470
 1.7150	40.7840
 1.7160	40.7240
 1.7170	40.6600
 1.7180	40.6040
 1.7190	40.5470
 1.7200	40.4870
 1.7210	40.4310
 1.7220	40.3780
 1.7230	40.3250
 1.7240	40.2750
 1.7250	40.2220
 1.7260	40.1720
 1.7270	40.1240
 1.7280	40.0780
 1.7290	40.0360
 1.7300	39.9940
 1.7310	39.9520
 1.7320	39.9130
 1.7330	39.8730
 1.7340	39.8350
 1.7350	39.7900
 1.7360	39.7420
 1.7370	39.6920
 1.7380	39.6340
 1.7390	39.5760
 1.7400	39.5160
 1.7410	39.4540
 1.7420	39.3880
 1.7430	39.3220
 1.7440	39.2590
 1.7450	39.1890
 1.7460	39.1170
 1.7470	39.0420
 1.7480	38.9600
 1.7490	38.8820
 1.7500	38.8030
 1.7510	38.7260
 1.7520	38.6490
 1.7530	38.5720
 1.7540	38.4940
 1.7550	38.4140
 1.7560	38.3380
 1.7570	38.2690
 1.7580	38.2000
 1.7590	38.1350
 1.7600	38.0710
 1.7610	38.0000
 1.7620	37.9320
 1.7630	37.8640
 1.7640	37.7970
 1.7650	37.7320
 1.7660	37.6680
 1.7670	37.6050
 1.7680	37.5460
 1.7690	37.4900
 1.7700	37.4340
 1.7710	37.3810
 1.7720	37.3290
 1.7730	37.2810
 1.7740	37.2320
 1.7750	37.1830
 1.7760	37.1380
 1.7770	37.0960
 1.7780	37.0540
 1.7790	37.0180
 1.7800	36.9800
 1.7810	36.9390
 1.7820	36.9040
 1.7830	36.8740
 1.7840	36.8420
 1.7850	36.8130
 1.7860	36.7860
 1.7870	36.7590
 1.7880	36.7350
 1.7890	36.7130
 1.7900	36.6880
 1.7910	36.6660
 1.7920	36.6480
 1.7930	36.6310
 1.7940	36.6160
 1.7950	36.6030
 1.7960	36.5910
 1.7970	36.5830
 1.7980	36.5810
 1.7990	36.5760
 1.8000	36.5720
 1.8010	36.5670
 1.8020	36.5580
 1.8030	36.5540
 1.8040	36.5530
 1.8050	36.5520
 1.8060	36.5540
 1.8070	36.5550
 1.8080	36.5560
 1.8090	36.5570
 1.8100	36.5590
 1.8110	36.5560
 1.8120	36.5550
 1.8130	36.5510
 1.8140	36.5440
 1.8150	36.5390
 1.8160	36.5330
 1.8170	36.5240
 1.8180	36.5210
 1.8190	36.5140
 1.8200	36.5080
 1.8210	36.5020
 1.8220	36.4900
 1.8230	36.4720
 1.8240	36.4570
 1.8250	36.4400
 1.8260	36.4210
 1.8270	36.4030
 1.8280	36.3840
 1.8290	36.3600
 1.8300	36.5530
 1.8310	36.9850
 1.8320	37.1620
 1.8330	37.1240
 1.8340	37.0810
 1.8350	37.0300
 1.8360	36.9760
 1.8370	36.9200
 1.8380	36.8570
 1.8390	36.7850
 1.8400	36.7110
 1.8410	36.6260
 1.8420	36.5280
 1.8430	36.4250
 1.8440	36.3200
 1.8450	36.2050
 1.8460	36.0860
 1.8470	35.9590
 1.8480	35.8190
 1.8490	35.6660
 1.8500	35.5000
 1.8510	35.3200
 1.8520	35.1290
 1.8530	34.9230
 1.8540	34.7020
 1.8550	34.4670
 1.8560	34.2140
 1.8570	33.9490
 1.8580	33.6660
 1.8590	33.3670
 1.8600	33.0510
 1.8610	32.7150
 1.8620	32.3610
 1.8630	31.9960
 1.8640	31.6120
 1.8650	31.2120
 1.8660	30.7930
 1.8670	30.3480
 1.8680	29.8850
 1.8690	29.4020
 1.8700	28.8990
 1.8710	28.3760
 1.8720	27.8440
 1.8730	27.2980
 1.8740	26.7440
 1.8750	26.1860
 1.8760	25.6150
 1.8770	25.0440
 1.8780	24.4740
 1.8790	23.9020
 1.8800	23.3430
 1.8810	22.7940
 1.8820	22.2490
 1.8830	21.7070
 1.8840	21.1800
 1.8850	20.6610
 1.8860	20.1530
 1.8870	19.6660
 1.8880	19.1970
 1.8890	18.7540
 1.8900	18.3330
 1.8910	17.9350
 1.8920	17.5570
 1.8930	17.2060
 1.8940	16.8750
 1.8950	16.5670
 1.8960	16.2820
 1.8970	16.0240
 1.8980	15.7900
 1.8990	15.5750
 1.9000	15.3760
 1.9010	15.2020
 1.9020	15.0390
 1.9030	14.8910
 1.9040	14.7600
 1.9050	14.6420
 1.9060	14.5350
 1.9070	14.4450
 1.9080	14.3660
 1.9090	14.2980
 1.9100	14.2420
 1.9110	14.1910
 1.9120	14.1460
 1.9130	14.1080
 1.9140	14.0790
 1.9150	14.0550
 1.9160	14.0360
 1.9170	14.0200
 1.9180	14.0040
 1.9190	13.9920
 1.9200	13.9830
 1.9210	13.9780
 1.9220	13.9780
 1.9230	13.9850
 1.9240	13.9900
 1.9250	13.9970
 1.9260	14.0060
 1.9270	14.0160
 1.9280	14.0280
 1.9290	14.0470
 1.9300	14.0650
 1.9310	14.0850
 1.9320	14.1060
 1.9330	14.1290
 1.9340	14.1520
 1.9350	14.1800
 1.9360	14.2140
 1.9370	14.2450
 1.9380	14.2780
 1.9390	14.3080
 1.9400	14.3390
 1.9410	14.3730
 1.9420	14.4070
 1.9430	14.4440
 1.9440	14.4820
 1.9450	14.5210
 1.9460	14.5600
 1.9470	14.6010
 1.9480	14.6410
 1.9490	14.6780
 1.9500	14.7200
 1.9510	14.7670
 1.9520	14.8140
 1.9530	14.8630
 1.9540	14.9130
 1.9550	14.9630
 1.9560	15.0110
 1.9570	15.0610
 1.9580	15.1100
 1.9590	15.1630
 1.9600	15.2200
 1.9610	15.2740
 1.9620	15.3290
 1.9630	15.3850
 1.9640	15.4410
 1.9650	15.4970
 1.9660	15.5560
 1.9670	15.6170
 1.9680	15.6770
 1.9690	15.7340
 1.9700	15.7950
 1.9710	15.8570
 1.9720	15.9220
 1.9730	15.9900
 1.9740	16.0560
 1.9750	16.1250
 1.9760	16.1940
 1.9770	16.2590
 1.9780	16.3270
 1.9790	16.3970
 1.9800	16.4710
 1.9810	16.5410
 1.9820	16.6130
 1.9830	16.6850
 1.9840	16.7560
 1.9850	16.8280
 1.9860	16.9020
 1.9870	16.9760
 1.9880	17.0490
 1.9890	17.1230
 1.9900	17.2000
 1.9910	17.2790
 1.9920	17.3600
 1.9930	17.4470
 1.9940	17.5280
 1.9950	17.6070
 1.9960	17.6860
 1.9970	17.7590
 1.9980	17.8380
 1.9990	17.9210
 2.0000	18.0050
 2.0010	18.0870
 2.0020	18.1680
 2.0030	18.2470
 2.0040	18.3250
 2.0050	18.4050
 2.0060	18.4870
 2.0070	18.5660
 2.0080	18.6450
 2.0090	18.7230
 2.0100	18.7990
 2.0110	18.8750
 2.0120	18.9500
 2.0130	19.0270
 2.0140	19.0990
 2.0150	19.1700
 2.0160	19.2430
 2.0170	19.3170
 2.0180	19.3890
 2.0190	19.4670
 2.0200	19.5360
 2.0210	19.5970
 2.0220	19.6630
 2.0230	19.7260
 2.0240	19.7920
 2.0250	19.8630
 2.0260	19.9310
 2.0270	20.0000
 2.0280	20.0650
 2.0290	20.1290
 2.0300	20.1950
 2.0310	20.2580
 2.0320	20.3190
 2.0330	20.3780
 2.0340	20.4360
 2.0350	20.4920
 2.0360	20.5470
 2.0370	20.6000
 2.0380	20.6510
 2.0390	20.7020
 2.0400	20.7520
 2.0410	20.8010
 2.0420	20.8510
 2.0430	20.8980
 2.0440	20.9460
 2.0450	20.9950
 2.0460	21.0420
 2.0470	21.0890
 2.0480	21.1360
 2.0490	21.1820
 2.0500	21.2280
 2.0510	21.2770
 2.0520	21.3210
 2.0530	21.3610
 2.0540	21.4030
 2.0550	21.4460
 2.0560	21.4870
 2.0570	21.5290
 2.0580	21.5730
 2.0590	21.6110
 2.0600	21.6440
 2.0610	21.6800
 2.0620	21.7120
 2.0630	21.7490
 2.0640	21.7910
 2.0650	21.8310
 2.0660	21.8720
 2.0670	21.9130
 2.0680	21.9520
 2.0690	21.9890
 2.0700	22.0260
 2.0710	22.0610
 2.0720	22.0940
 2.0730	22.1270
 2.0740	22.1620
 2.0750	22.1980
 2.0760	22.2360
 2.0770	22.2770
 2.0780	22.3160
 2.0790	22.3580
 2.0800	22.3970
 2.0810	22.4350
 2.0820	22.4720
 2.0830	22.5080
 2.0840	22.5430
 2.0850	22.5770
 2.0860	22.6120
 2.0870	22.6490
 2.0880	22.6830
 2.0890	22.7180
 2.0900	22.7550
 2.0910	22.7890
 2.0920	22.8210
 2.0930	22.8560
 2.0940	22.8930
 2.0950	22.9280
 2.0960	22.9640
 2.0970	23.0020
 2.0980	23.0390
 2.0990	23.0760
 2.1000	23.1150
 2.1010	23.1510
 2.1020	23.1850
 2.1030	23.2200
 2.1040	23.2570
 2.1050	23.2910
 2.1060	23.3260
 2.1070	23.3620
 2.1080	23.3970
 2.1090	23.4330
 2.1100	23.4670
 2.1110	23.4990
 2.1120	23.5330
 2.1130	23.5640
 2.1140	23.6000
 2.1150	23.6400
 2.1160	23.6780
 2.1170	23.7170
 2.1180	23.7540
 2.1190	23.7870
 2.1200	23.8210
 2.1210	23.8550
 2.1220	23.8900
 2.1230	23.9230
 2.1240	23.9540
 2.1250	23.9860
 2.1260	24.0170
 2.1270	24.0470
 2.1280	24.0750
 2.1290	24.1030
 2.1300	24.1270
 2.1310	24.1560
 2.1320	24.1890
 2.1330	24.2180
 2.1340	24.2470
 2.1350	24.2760
 2.1360	24.3010
 2.1370	24.3270
 2.1380	24.3510
 2.1390	24.3780
 2.1400	24.4040
 2.1410	24.4330
 2.1420	24.4640
 2.1430	24.4990
 2.1440	24.5300
 2.1450	24.5620
 2.1460	24.5910
 2.1470	24.6160
 2.1480	24.6420
 2.1490	24.6660
 2.1500	24.6920
 2.1510	24.7180
 2.1520	24.7440
 2.1530	24.7740
 2.1540	24.7990
 2.1550	24.8190
 2.1560	24.8430
 2.1570	24.8650
 2.1580	24.8880
 2.1590	24.9140
 2.1600	24.9400
 2.1610	24.9650
 2.1620	24.9900
 2.1630	25.0120
 2.1640	25.0340
 2.1650	25.0530
 2.1660	25.0670
 2.1670	25.0850
 2.1680	25.1050
 2.1690	25.1240
 2.1700	25.1460
 2.1710	25.1660
 2.1720	25.1870
 2.1730	25.2050
 2.1740	25.2190
 2.1750	25.2360
 2.1760	25.2530
 2.1770	25.2700
 2.1780	25.2890
 2.1790	25.3090
 2.1800	25.3320
 2.1810	25.3530
 2.1820	25.3770
 2.1830	25.4000
 2.1840	25.4210
 2.1850	25.4380
 2.1860	25.4550
 2.1870	25.4700
 2.1880	25.4860
 2.1890	25.5010
 2.1900	25.5170
 2.1910	25.5360
 2.1920	25.5520
 2.1930	25.5680
 2.1940	25.5840
 2.1950	25.6020
 2.1960	25.6180
 2.1970	25.6310
 2.1980	25.6470
 2.1990	25.6620
 2.2000	25.6780
 2.2010	25.6980
 2.2020	25.7160
 2.2030	25.7340
 2.2040	25.7520
 2.2050	25.7720
 2.2060	25.7870
 2.2070	25.8000
 2.2080	25.8100
 2.2090	25.8200
 2.2100	25.8280
 2.2110	25.8370
 2.2120	25.8500
 2.2130	25.8570
 2.2140	25.8620
 2.2150	25.8670
 2.2160	25.8710
 2.2170	25.8740
 2.2180	25.8800
 2.2190	25.8820
 2.2200	25.8820
 2.2210	25.8800
 2.2220	25.8740
 2.2230	25.8690
 2.2240	25.8650
 2.2250	25.8570
 2.2260	25.8520
 2.2270	25.8390
 2.2280	25.8210
 2.2290	25.7970
 2.2300	25.7650
 2.2310	25.7340
 2.2320	25.7010
 2.2330	25.6640
 2.2340	25.6260
 2.2350	25.5900
 2.2360	25.5450
 2.2370	25.4920
 2.2380	25.4430
 2.2390	25.3910
 2.2400	25.3380
 2.2410	25.2840
 2.2420	25.2300
 2.2430	25.1740
 2.2440	25.1170
 2.2450	25.0650
 2.2460	25.0070
 2.2470	24.9420
 2.2480	24.8810
 2.2490	24.8210
 2.2500	24.7580
 2.2510	24.6930
 2.2520	24.6310
 2.2530	24.5650
 2.2540	24.5020
 2.2550	24.4450
 2.2560	24.3860
 2.2570	24.3280
 2.2580	24.2700
 2.2590	24.2140
 2.2600	24.1570
 2.2610	24.1010
 2.2620	24.0400
 2.2630	23.9800
 2.2640	23.9150
 2.2650	23.8480
 2.2660	23.7900
 2.2670	23.7380
 2.2680	23.6930
 2.2690	23.6450
 2.2700	23.6030
 2.2710	23.5570
 2.2720	23.5050
 2.2730	23.4600
 2.2740	23.4210
 2.2750	23.3780
 2.2760	23.3370
 2.2770	23.2940
 2.2780	23.2480
 2.2790	23.2040
 2.2800	23.1590
 2.2810	23.1150
 2.2820	23.0730
 2.2830	23.0300
 2.2840	22.9910
 2.2850	22.9470
 2.2860	22.9030
 2.2870	22.8570
 2.2880	22.8060
 2.2890	22.7600
 2.2900	22.7220
 2.2910	22.6730
 2.2920	22.6240
 2.2930	22.5710
 2.2940	22.5030
 2.2950	22.4450
 2.2960	22.3910
 2.2970	22.3370
 2.2980	22.2860
 2.2990	22.2390
 2.3000	22.1880
 2.3010	22.1360
 2.3020	22.0830
 2.3030	22.0260
 2.3040	21.9700
 2.3050	21.9220
 2.3060	21.8790
 2.3070	21.8350
 2.3080	21.7940
 2.3090	21.7510
 2.3100	21.7130
 2.3110	21.6820
 2.3120	21.6510
 2.3130	21.6270
 2.3140	21.6020
 2.3150	21.5780
 2.3160	21.5530
 2.3170	21.5300
 2.3180	21.5030
 2.3190	21.4710
 2.3200	21.4430
 2.3210	21.4200
 2.3220	21.3920
 2.3230	21.3650
 2.3240	21.3330
 2.3250	21.2980
 2.3260	21.2560
 2.3270	21.2090
 2.3280	21.1630
 2.3290	21.1030
 2.3300	21.0630
 2.3310	21.0390
 2.3320	21.0030
 2.3330	20.9780
 2.3340	20.9390
 2.3350	20.8840
 2.3360	20.8320
 2.3370	20.7720
 2.3380	20.7190
 2.3390	20.6690
 2.3400	20.6180
 2.3410	20.5730
 2.3420	20.5290
 2.3430	20.4830
 2.3440	20.4380
 2.3450	20.3940
 2.3460	20.3540
 2.3470	20.3150
 2.3480	20.2800
 2.3490	20.2550
 2.3500	20.2220
 2.3510	20.1830
 2.3520	20.1480
 2.3530	20.1100
 2.3540	20.0780
 2.3550	20.0510
 2.3560	20.0140
 2.3570	19.9770
 2.3580	19.9490
 2.3590	19.9200
 2.3600	19.8920
 2.3610	19.8670
 2.3620	19.8360
 2.3630	19.8050
 2.3640	19.7750
 2.3650	19.7460
 2.3660	19.7080
 2.3670	19.6610
 2.3680	19.6190
 2.3690	19.5680
 2.3700	19.5140
 2.3710	19.4740
 2.3720	19.4310
 2.3730	19.3940
 2.3740	19.3570
 2.3750	19.3140
 2.3760	19.2870
 2.3770	19.2480
 2.3780	19.2080
 2.3790	19.1780
 2.3800	19.1280
 2.3810	19.0790
 2.3820	19.0420
 2.3830	18.9910
 2.3840	18.9380
 2.3850	18.8910
 2.3860	18.8440
 2.3870	18.8040
 2.3880	18.7670
 2.3890	18.7190
 2.3900	18.6720
 2.3910	18.6460
 2.3920	18.6200
 2.3930	18.5980
 2.3940	18.5750
 2.3950	18.5260
 2.3960	18.4710
 2.3970	18.4010
 2.3980	18.3420
 2.3990	18.3040
 2.4000	18.2510
 2.4010	18.2260
 2.4020	18.2040
 2.4030	18.1520
 2.4040	18.1050
 2.4050	18.0500
 2.4060	17.9870
 2.4070	17.9340
 2.4080	17.8830
 2.4090	17.8560
 2.4100	17.8260
 2.4110	17.7870
 2.4120	17.7470
 2.4130	17.6740
 2.4140	17.6090
 2.4150	17.5620
 2.4160	17.5000
 2.4170	17.4520
 2.4180	17.4060
 2.4190	17.3530
 2.4200	17.3350
 2.4210	17.3070
 2.4220	17.2570
 2.4230	17.2130
 2.4240	17.1450
 2.4250	17.0800
 2.4260	17.0320
 2.4270	16.9700
 2.4280	16.9140
 2.4290	16.8700
 2.4300	16.8280
 2.4310	16.7800
 2.4320	16.7220
 2.4330	16.6780
 2.4340	16.6340
 2.4350	16.5870
 2.4360	16.5510
 2.4370	16.5010
 2.4380	16.4410
 2.4390	16.3980
 2.4400	16.3530
 2.4410	16.3050
 2.4420	16.2580
 2.4430	16.1970
 2.4440	16.1390
 2.4450	16.0930
 2.4460	16.0470
 2.4470	16.0200
 2.4480	16.0000
 2.4490	15.9590
 2.4500	15.9200
 2.4510	15.8790
 2.4520	15.8320
 2.4530	15.7920
 2.4540	15.7380
 2.4550	15.6800
 2.4560	15.6280
 2.4570	15.5750
 2.4580	15.5410
 2.4590	15.5150
 2.4600	15.4730
 2.4610	15.4510
 2.4620	15.4190
 2.4630	15.3580
 2.4640	15.3070
 2.4650	15.2650
 2.4660	15.2400
 2.4670	15.2100
 2.4680	15.2030
 2.4690	15.1910
 2.4700	15.1560
 2.4710	15.1240
 2.4720	15.0930
 2.4730	15.0500
 2.4740	15.0130
 2.4750	14.9920
 2.4760	14.9700
 2.4770	14.9310
 2.4780	14.8880
 2.4790	14.8530
 2.4800	14.8230
 2.4810	14.7900
 2.4820	14.7800
 2.4830	14.7450
 2.4840	14.7340
 2.4850	14.7440
 2.4860	14.7360
 2.4870	14.7550
 2.4880	14.7230
 2.4890	14.6460
 2.4900	14.6330
 2.4910	14.6260
 2.4920	14.6040
 2.4930	14.6180
 2.4940	14.6010
 2.4950	14.5610
 2.4960	14.5590
 2.4970	14.5420
 2.4980	14.5480
 2.4990	14.5110
 2.5000	14.4910
