Name: Quercus agrifolia
Type: vegetation
Class: Tree
Genus: Quercus
Species: agrifolia
Sample No.: JPL111
Owner: JPL
Wavelength Range: VSWIR
Origin: 34.12881; -118.11349;; WGS84
Collection Date: 9/7/2016
Description: Samples were collected at the Huntington Garden in San Marino California as part of a JPL Subcontract studying HyTES imagery. Samples were taken to JPL and processed within 48 hours of collection. The same leaves were processed in the Nicolet and then measured using the ASD.
Measurement: Bidirectional reflectance
First Column: X
Second Column: Y
X Units: Wavelength (micrometer)
Y Units: Reflectance (percentage)
First X Value: 0.35
Last X Value: 2.5
Number of X Values: 2151
Additional Information: vegetation.tree.quercus.agrifolia.vswir.jpl111.jpl.asd.ancillary.txt

 0.3500	 5.3220
 0.3510	 5.2650
 0.3520	 5.1550
 0.3530	 5.0680
 0.3540	 5.0630
 0.3550	 5.1940
 0.3560	 5.1360
 0.3570	 4.9690
 0.3580	 4.9570
 0.3590	 5.0010
 0.3600	 5.0510
 0.3610	 5.0850
 0.3620	 5.1170
 0.3630	 5.0250
 0.3640	 4.9260
 0.3650	 4.9410
 0.3660	 4.9800
 0.3670	 4.9920
 0.3680	 4.9650
 0.3690	 4.9210
 0.3700	 4.9430
 0.3710	 4.9840
 0.3720	 4.9990
 0.3730	 4.9770
 0.3740	 4.9580
 0.3750	 4.9620
 0.3760	 4.9780
 0.3770	 4.9080
 0.3780	 4.8770
 0.3790	 4.9010
 0.3800	 4.8950
 0.3810	 4.8870
 0.3820	 4.9300
 0.3830	 5.0070
 0.3840	 4.9330
 0.3850	 4.9330
 0.3860	 4.9680
 0.3870	 4.9260
 0.3880	 4.8980
 0.3890	 4.8870
 0.3900	 4.8910
 0.3910	 4.9130
 0.3920	 4.9020
 0.3930	 4.9140
 0.3940	 4.9710
 0.3950	 4.9590
 0.3960	 4.9370
 0.3970	 4.9230
 0.3980	 4.9180
 0.3990	 4.9090
 0.4000	 4.9090
 0.4010	 4.9310
 0.4020	 4.9860
 0.4030	 4.9760
 0.4040	 4.9450
 0.4050	 4.9520
 0.4060	 4.9880
 0.4070	 5.0060
 0.4080	 5.0100
 0.4090	 5.0340
 0.4100	 5.0390
 0.4110	 5.0540
 0.4120	 5.0890
 0.4130	 5.1150
 0.4140	 5.1340
 0.4150	 5.1410
 0.4160	 5.1340
 0.4170	 5.1530
 0.4180	 5.1650
 0.4190	 5.1700
 0.4200	 5.1990
 0.4210	 5.2240
 0.4220	 5.2430
 0.4230	 5.2580
 0.4240	 5.2740
 0.4250	 5.2940
 0.4260	 5.3160
 0.4270	 5.3360
 0.4280	 5.3510
 0.4290	 5.3630
 0.4300	 5.3710
 0.4310	 5.3700
 0.4320	 5.3750
 0.4330	 5.3850
 0.4340	 5.3920
 0.4350	 5.3950
 0.4360	 5.4070
 0.4370	 5.4240
 0.4380	 5.4320
 0.4390	 5.4440
 0.4400	 5.4610
 0.4410	 5.4800
 0.4420	 5.5010
 0.4430	 5.5090
 0.4440	 5.5060
 0.4450	 5.5070
 0.4460	 5.5210
 0.4470	 5.5350
 0.4480	 5.5430
 0.4490	 5.5510
 0.4500	 5.5650
 0.4510	 5.5770
 0.4520	 5.5800
 0.4530	 5.5820
 0.4540	 5.5870
 0.4550	 5.5950
 0.4560	 5.6010
 0.4570	 5.6110
 0.4580	 5.6190
 0.4590	 5.6220
 0.4600	 5.6170
 0.4610	 5.6190
 0.4620	 5.6240
 0.4630	 5.6250
 0.4640	 5.6320
 0.4650	 5.6350
 0.4660	 5.6360
 0.4670	 5.6400
 0.4680	 5.6370
 0.4690	 5.6320
 0.4700	 5.6340
 0.4710	 5.6420
 0.4720	 5.6480
 0.4730	 5.6500
 0.4740	 5.6470
 0.4750	 5.6460
 0.4760	 5.6440
 0.4770	 5.6430
 0.4780	 5.6450
 0.4790	 5.6480
 0.4800	 5.6520
 0.4810	 5.6530
 0.4820	 5.6440
 0.4830	 5.6390
 0.4840	 5.6440
 0.4850	 5.6480
 0.4860	 5.6490
 0.4870	 5.6490
 0.4880	 5.6520
 0.4890	 5.6660
 0.4900	 5.6780
 0.4910	 5.6830
 0.4920	 5.6880
 0.4930	 5.7020
 0.4940	 5.7180
 0.4950	 5.7330
 0.4960	 5.7540
 0.4970	 5.7650
 0.4980	 5.7770
 0.4990	 5.7980
 0.5000	 5.8170
 0.5010	 5.8400
 0.5020	 5.8670
 0.5030	 5.8900
 0.5040	 5.9210
 0.5050	 5.9550
 0.5060	 5.9900
 0.5070	 6.0300
 0.5080	 6.0700
 0.5090	 6.1140
 0.5100	 6.1650
 0.5110	 6.2240
 0.5120	 6.2870
 0.5130	 6.3540
 0.5140	 6.4290
 0.5150	 6.5110
 0.5160	 6.5980
 0.5170	 6.6900
 0.5180	 6.7910
 0.5190	 6.8970
 0.5200	 7.0080
 0.5210	 7.1240
 0.5220	 7.2460
 0.5230	 7.3690
 0.5240	 7.4900
 0.5250	 7.6080
 0.5260	 7.7250
 0.5270	 7.8400
 0.5280	 7.9470
 0.5290	 8.0450
 0.5300	 8.1380
 0.5310	 8.2260
 0.5320	 8.3080
 0.5330	 8.3820
 0.5340	 8.4470
 0.5350	 8.5050
 0.5360	 8.5560
 0.5370	 8.6020
 0.5380	 8.6410
 0.5390	 8.6730
 0.5400	 8.6940
 0.5410	 8.7090
 0.5420	 8.7230
 0.5430	 8.7400
 0.5440	 8.7620
 0.5450	 8.7900
 0.5460	 8.8210
 0.5470	 8.8530
 0.5480	 8.8830
 0.5490	 8.9090
 0.5500	 8.9300
 0.5510	 8.9410
 0.5520	 8.9430
 0.5530	 8.9400
 0.5540	 8.9290
 0.5550	 8.9100
 0.5560	 8.8800
 0.5570	 8.8390
 0.5580	 8.7880
 0.5590	 8.7310
 0.5600	 8.6690
 0.5610	 8.6010
 0.5620	 8.5330
 0.5630	 8.4660
 0.5640	 8.3950
 0.5650	 8.3230
 0.5660	 8.2460
 0.5670	 8.1640
 0.5680	 8.0830
 0.5690	 7.9980
 0.5700	 7.9090
 0.5710	 7.8210
 0.5720	 7.7410
 0.5730	 7.6690
 0.5740	 7.6060
 0.5750	 7.5500
 0.5760	 7.4970
 0.5770	 7.4380
 0.5780	 7.3730
 0.5790	 7.3130
 0.5800	 7.2590
 0.5810	 7.2140
 0.5820	 7.1750
 0.5830	 7.1410
 0.5840	 7.1050
 0.5850	 7.0650
 0.5860	 7.0240
 0.5870	 6.9880
 0.5880	 6.9580
 0.5890	 6.9360
 0.5900	 6.9220
 0.5910	 6.9140
 0.5920	 6.9100
 0.5930	 6.9060
 0.5940	 6.8990
 0.5950	 6.8900
 0.5960	 6.8780
 0.5970	 6.8590
 0.5980	 6.8400
 0.5990	 6.8230
 0.6000	 6.8050
 0.6010	 6.7920
 0.6020	 6.7780
 0.6030	 6.7610
 0.6040	 6.7380
 0.6050	 6.7150
 0.6060	 6.6910
 0.6070	 6.6630
 0.6080	 6.6300
 0.6090	 6.5940
 0.6100	 6.5530
 0.6110	 6.5050
 0.6120	 6.4740
 0.6130	 6.4540
 0.6140	 6.4350
 0.6150	 6.4110
 0.6160	 6.3890
 0.6170	 6.3660
 0.6180	 6.3390
 0.6190	 6.3200
 0.6200	 6.3020
 0.6210	 6.2850
 0.6220	 6.2690
 0.6230	 6.2580
 0.6240	 6.2480
 0.6250	 6.2390
 0.6260	 6.2340
 0.6270	 6.2300
 0.6280	 6.2260
 0.6290	 6.2200
 0.6300	 6.2140
 0.6310	 6.2090
 0.6320	 6.2060
 0.6330	 6.2040
 0.6340	 6.1990
 0.6350	 6.1900
 0.6360	 6.1760
 0.6370	 6.1620
 0.6380	 6.1450
 0.6390	 6.1240
 0.6400	 6.1000
 0.6410	 6.0790
 0.6420	 6.0570
 0.6430	 6.0350
 0.6440	 6.0110
 0.6450	 5.9890
 0.6460	 5.9670
 0.6470	 5.9460
 0.6480	 5.9280
 0.6490	 5.9120
 0.6500	 5.8980
 0.6510	 5.8860
 0.6520	 5.8780
 0.6530	 5.8720
 0.6540	 5.8620
 0.6550	 5.8530
 0.6560	 5.8410
 0.6570	 5.8280
 0.6580	 5.8160
 0.6590	 5.8030
 0.6600	 5.7880
 0.6610	 5.7720
 0.6620	 5.7590
 0.6630	 5.7470
 0.6640	 5.7380
 0.6650	 5.7310
 0.6660	 5.7260
 0.6670	 5.7220
 0.6680	 5.7210
 0.6690	 5.7250
 0.6700	 5.7290
 0.6710	 5.7370
 0.6720	 5.7490
 0.6730	 5.7600
 0.6740	 5.7740
 0.6750	 5.7900
 0.6760	 5.8080
 0.6770	 5.8290
 0.6780	 5.8540
 0.6790	 5.8810
 0.6800	 5.9090
 0.6810	 5.9390
 0.6820	 5.9720
 0.6830	 6.0090
 0.6840	 6.0460
 0.6850	 6.0850
 0.6860	 6.1260
 0.6870	 6.1700
 0.6880	 6.2230
 0.6890	 6.2860
 0.6900	 6.3620
 0.6910	 6.4580
 0.6920	 6.5740
 0.6930	 6.7190
 0.6940	 6.9000
 0.6950	 7.1230
 0.6960	 7.3890
 0.6970	 7.6990
 0.6980	 8.0570
 0.6990	 8.4660
 0.7000	 8.9220
 0.7010	 9.4210
 0.7020	 9.9590
 0.7030	10.5320
 0.7040	11.1370
 0.7050	11.7710
 0.7060	12.4290
 0.7070	13.1060
 0.7080	13.8030
 0.7090	14.5210
 0.7100	15.2580
 0.7110	16.0140
 0.7120	16.7850
 0.7130	17.5700
 0.7140	18.3720
 0.7150	19.1890
 0.7160	20.0180
 0.7170	20.8560
 0.7180	21.7000
 0.7190	22.5520
 0.7200	23.4100
 0.7210	24.2710
 0.7220	25.1290
 0.7230	25.9820
 0.7240	26.8280
 0.7250	27.6630
 0.7260	28.4860
 0.7270	29.2940
 0.7280	30.0800
 0.7290	30.8470
 0.7300	31.5930
 0.7310	32.3120
 0.7320	33.0070
 0.7330	33.6760
 0.7340	34.3190
 0.7350	34.9330
 0.7360	35.5170
 0.7370	36.0730
 0.7380	36.6030
 0.7390	37.1050
 0.7400	37.5780
 0.7410	38.0220
 0.7420	38.4430
 0.7430	38.8360
 0.7440	39.2010
 0.7450	39.5410
 0.7460	39.8590
 0.7470	40.1530
 0.7480	40.4230
 0.7490	40.6720
 0.7500	40.9030
 0.7510	41.1130
 0.7520	41.3060
 0.7530	41.4860
 0.7540	41.6490
 0.7550	41.7950
 0.7560	41.9260
 0.7570	42.0470
 0.7580	42.1550
 0.7590	42.2550
 0.7600	42.3470
 0.7610	42.4280
 0.7620	42.5060
 0.7630	42.5780
 0.7640	42.6410
 0.7650	42.6970
 0.7660	42.7450
 0.7670	42.7900
 0.7680	42.8340
 0.7690	42.8690
 0.7700	42.9020
 0.7710	42.9340
 0.7720	42.9640
 0.7730	42.9910
 0.7740	43.0140
 0.7750	43.0370
 0.7760	43.0600
 0.7770	43.0810
 0.7780	43.1010
 0.7790	43.1190
 0.7800	43.1380
 0.7810	43.1540
 0.7820	43.1690
 0.7830	43.1840
 0.7840	43.1980
 0.7850	43.2120
 0.7860	43.2260
 0.7870	43.2360
 0.7880	43.2480
 0.7890	43.2600
 0.7900	43.2690
 0.7910	43.2800
 0.7920	43.2930
 0.7930	43.3060
 0.7940	43.3130
 0.7950	43.3150
 0.7960	43.3220
 0.7970	43.3350
 0.7980	43.3420
 0.7990	43.3500
 0.8000	43.3560
 0.8010	43.3600
 0.8020	43.3630
 0.8030	43.3690
 0.8040	43.3740
 0.8050	43.3770
 0.8060	43.3840
 0.8070	43.3900
 0.8080	43.3920
 0.8090	43.3930
 0.8100	43.3980
 0.8110	43.4020
 0.8120	43.4050
 0.8130	43.4070
 0.8140	43.4100
 0.8150	43.4120
 0.8160	43.4130
 0.8170	43.4150
 0.8180	43.4190
 0.8190	43.4220
 0.8200	43.4250
 0.8210	43.4280
 0.8220	43.4300
 0.8230	43.4300
 0.8240	43.4280
 0.8250	43.4300
 0.8260	43.4330
 0.8270	43.4330
 0.8280	43.4390
 0.8290	43.4410
 0.8300	43.4410
 0.8310	43.4410
 0.8320	43.4430
 0.8330	43.4470
 0.8340	43.4500
 0.8350	43.4500
 0.8360	43.4540
 0.8370	43.4590
 0.8380	43.4640
 0.8390	43.4700
 0.8400	43.4720
 0.8410	43.4780
 0.8420	43.4870
 0.8430	43.4910
 0.8440	43.4970
 0.8450	43.5060
 0.8460	43.5140
 0.8470	43.5170
 0.8480	43.5210
 0.8490	43.5280
 0.8500	43.5380
 0.8510	43.5440
 0.8520	43.5500
 0.8530	43.5560
 0.8540	43.5630
 0.8550	43.5670
 0.8560	43.5720
 0.8570	43.5800
 0.8580	43.5920
 0.8590	43.6030
 0.8600	43.6120
 0.8610	43.6190
 0.8620	43.6300
 0.8630	43.6370
 0.8640	43.6410
 0.8650	43.6460
 0.8660	43.6490
 0.8670	43.6580
 0.8680	43.6710
 0.8690	43.6810
 0.8700	43.6880
 0.8710	43.6950
 0.8720	43.7060
 0.8730	43.7160
 0.8740	43.7230
 0.8750	43.7320
 0.8760	43.7440
 0.8770	43.7490
 0.8780	43.7610
 0.8790	43.7720
 0.8800	43.7770
 0.8810	43.7830
 0.8820	43.7930
 0.8830	43.8020
 0.8840	43.8070
 0.8850	43.8140
 0.8860	43.8210
 0.8870	43.8300
 0.8880	43.8390
 0.8890	43.8460
 0.8900	43.8540
 0.8910	43.8610
 0.8920	43.8660
 0.8930	43.8720
 0.8940	43.8790
 0.8950	43.8870
 0.8960	43.8950
 0.8970	43.9040
 0.8980	43.9100
 0.8990	43.9120
 0.9000	43.9210
 0.9010	43.9260
 0.9020	43.9290
 0.9030	43.9340
 0.9040	43.9440
 0.9050	43.9540
 0.9060	43.9620
 0.9070	43.9650
 0.9080	43.9690
 0.9090	43.9780
 0.9100	43.9880
 0.9110	43.9950
 0.9120	43.9950
 0.9130	43.9980
 0.9140	44.0040
 0.9150	44.0090
 0.9160	44.0070
 0.9170	44.0090
 0.9180	44.0120
 0.9190	44.0130
 0.9200	44.0220
 0.9210	44.0260
 0.9220	44.0250
 0.9230	44.0270
 0.9240	44.0330
 0.9250	44.0270
 0.9260	44.0140
 0.9270	44.0090
 0.9280	44.0070
 0.9290	44.0030
 0.9300	43.9960
 0.9310	43.9890
 0.9320	43.9780
 0.9330	43.9630
 0.9340	43.9510
 0.9350	43.9520
 0.9360	43.9400
 0.9370	43.9320
 0.9380	43.9320
 0.9390	43.9190
 0.9400	43.9000
 0.9410	43.8810
 0.9420	43.8660
 0.9430	43.8530
 0.9440	43.8390
 0.9450	43.8220
 0.9460	43.7970
 0.9470	43.7690
 0.9480	43.7440
 0.9490	43.7210
 0.9500	43.6920
 0.9510	43.6550
 0.9520	43.6190
 0.9530	43.5800
 0.9540	43.5370
 0.9550	43.5050
 0.9560	43.4690
 0.9570	43.4330
 0.9580	43.4000
 0.9590	43.3590
 0.9600	43.3230
 0.9610	43.2950
 0.9620	43.2730
 0.9630	43.2480
 0.9640	43.2300
 0.9650	43.2150
 0.9660	43.2020
 0.9670	43.2010
 0.9680	43.1830
 0.9690	43.1590
 0.9700	43.1510
 0.9710	43.1460
 0.9720	43.1500
 0.9730	43.1500
 0.9740	43.1340
 0.9750	43.1300
 0.9760	43.1240
 0.9770	43.1200
 0.9780	43.1310
 0.9790	43.1460
 0.9800	43.1470
 0.9810	43.1390
 0.9820	43.1370
 0.9830	43.1480
 0.9840	43.1640
 0.9850	43.1720
 0.9860	43.1730
 0.9870	43.1970
 0.9880	43.2110
 0.9890	43.2130
 0.9900	43.2160
 0.9910	43.2230
 0.9920	43.2460
 0.9930	43.2680
 0.9940	43.2730
 0.9950	43.3000
 0.9960	43.3170
 0.9970	43.3250
 0.9980	43.3400
 0.9990	43.3660
 1.0000	43.3810
 1.0010	46.1710
 1.0020	46.1900
 1.0030	46.2080
 1.0040	46.2250
 1.0050	46.2440
 1.0060	46.2600
 1.0070	46.2740
 1.0080	46.2900
 1.0090	46.3050
 1.0100	46.3210
 1.0110	46.3380
 1.0120	46.3540
 1.0130	46.3720
 1.0140	46.3870
 1.0150	46.4010
 1.0160	46.4120
 1.0170	46.4250
 1.0180	46.4390
 1.0190	46.4530
 1.0200	46.4710
 1.0210	46.4880
 1.0220	46.5030
 1.0230	46.5190
 1.0240	46.5370
 1.0250	46.5540
 1.0260	46.5720
 1.0270	46.5900
 1.0280	46.6090
 1.0290	46.6260
 1.0300	46.6410
 1.0310	46.6570
 1.0320	46.6730
 1.0330	46.6890
 1.0340	46.7100
 1.0350	46.7280
 1.0360	46.7450
 1.0370	46.7620
 1.0380	46.7790
 1.0390	46.7940
 1.0400	46.8090
 1.0410	46.8240
 1.0420	46.8380
 1.0430	46.8520
 1.0440	46.8650
 1.0450	46.8760
 1.0460	46.8890
 1.0470	46.8990
 1.0480	46.9110
 1.0490	46.9270
 1.0500	46.9380
 1.0510	46.9480
 1.0520	46.9550
 1.0530	46.9620
 1.0540	46.9640
 1.0550	46.9690
 1.0560	46.9760
 1.0570	46.9820
 1.0580	46.9860
 1.0590	46.9920
 1.0600	47.0010
 1.0610	47.0050
 1.0620	47.0070
 1.0630	47.0070
 1.0640	47.0010
 1.0650	46.9980
 1.0660	46.9960
 1.0670	46.9920
 1.0680	46.9870
 1.0690	46.9820
 1.0700	46.9750
 1.0710	46.9650
 1.0720	46.9590
 1.0730	46.9540
 1.0740	46.9470
 1.0750	46.9430
 1.0760	46.9350
 1.0770	46.9240
 1.0780	46.9150
 1.0790	46.9060
 1.0800	46.8950
 1.0810	46.8840
 1.0820	46.8730
 1.0830	46.8600
 1.0840	46.8490
 1.0850	46.8390
 1.0860	46.8300
 1.0870	46.8190
 1.0880	46.8090
 1.0890	46.7970
 1.0900	46.7820
 1.0910	46.7700
 1.0920	46.7560
 1.0930	46.7450
 1.0940	46.7340
 1.0950	46.7240
 1.0960	46.7160
 1.0970	46.7060
 1.0980	46.6950
 1.0990	46.6840
 1.1000	46.6730
 1.1010	46.6610
 1.1020	46.6480
 1.1030	46.6340
 1.1040	46.6210
 1.1050	46.6080
 1.1060	46.5970
 1.1070	46.5890
 1.1080	46.5780
 1.1090	46.5660
 1.1100	46.5540
 1.1110	46.5410
 1.1120	46.5280
 1.1130	46.5160
 1.1140	46.5030
 1.1150	46.4890
 1.1160	46.4740
 1.1170	46.4610
 1.1180	46.4430
 1.1190	46.4230
 1.1200	46.4030
 1.1210	46.3800
 1.1220	46.3570
 1.1230	46.3320
 1.1240	46.3040
 1.1250	46.2710
 1.1260	46.2340
 1.1270	46.1940
 1.1280	46.1530
 1.1290	46.1050
 1.1300	46.0560
 1.1310	46.0000
 1.1320	45.9390
 1.1330	45.8730
 1.1340	45.8020
 1.1350	45.7260
 1.1360	45.6440
 1.1370	45.5550
 1.1380	45.4610
 1.1390	45.3650
 1.1400	45.2630
 1.1410	45.1580
 1.1420	45.0500
 1.1430	44.9400
 1.1440	44.8300
 1.1450	44.7180
 1.1460	44.6080
 1.1470	44.4970
 1.1480	44.3900
 1.1490	44.2840
 1.1500	44.1830
 1.1510	44.0850
 1.1520	43.9910
 1.1530	43.8980
 1.1540	43.8140
 1.1550	43.7360
 1.1560	43.6640
 1.1570	43.6010
 1.1580	43.5420
 1.1590	43.4870
 1.1600	43.4380
 1.1610	43.3930
 1.1620	43.3510
 1.1630	43.3130
 1.1640	43.2800
 1.1650	43.2500
 1.1660	43.2250
 1.1670	43.2010
 1.1680	43.1820
 1.1690	43.1620
 1.1700	43.1430
 1.1710	43.1250
 1.1720	43.1070
 1.1730	43.0900
 1.1740	43.0750
 1.1750	43.0600
 1.1760	43.0420
 1.1770	43.0230
 1.1780	43.0040
 1.1790	42.9840
 1.1800	42.9650
 1.1810	42.9470
 1.1820	42.9270
 1.1830	42.9050
 1.1840	42.8850
 1.1850	42.8650
 1.1860	42.8460
 1.1870	42.8290
 1.1880	42.8130
 1.1890	42.7980
 1.1900	42.7840
 1.1910	42.7720
 1.1920	42.7610
 1.1930	42.7510
 1.1940	42.7420
 1.1950	42.7350
 1.1960	42.7270
 1.1970	42.7210
 1.1980	42.7160
 1.1990	42.7110
 1.2000	42.7090
 1.2010	42.7090
 1.2020	42.7100
 1.2030	42.7140
 1.2040	42.7180
 1.2050	42.7230
 1.2060	42.7290
 1.2070	42.7350
 1.2080	42.7430
 1.2090	42.7530
 1.2100	42.7640
 1.2110	42.7780
 1.2120	42.7950
 1.2130	42.8130
 1.2140	42.8330
 1.2150	42.8550
 1.2160	42.8790
 1.2170	42.9050
 1.2180	42.9330
 1.2190	42.9620
 1.2200	42.9940
 1.2210	43.0280
 1.2220	43.0610
 1.2230	43.0940
 1.2240	43.1260
 1.2250	43.1580
 1.2260	43.1880
 1.2270	43.2190
 1.2280	43.2510
 1.2290	43.2800
 1.2300	43.3100
 1.2310	43.3390
 1.2320	43.3670
 1.2330	43.3940
 1.2340	43.4190
 1.2350	43.4430
 1.2360	43.4660
 1.2370	43.4870
 1.2380	43.5060
 1.2390	43.5250
 1.2400	43.5430
 1.2410	43.5610
 1.2420	43.5790
 1.2430	43.5970
 1.2440	43.6140
 1.2450	43.6320
 1.2460	43.6470
 1.2470	43.6620
 1.2480	43.6770
 1.2490	43.6900
 1.2500	43.7040
 1.2510	43.7180
 1.2520	43.7300
 1.2530	43.7400
 1.2540	43.7490
 1.2550	43.7580
 1.2560	43.7660
 1.2570	43.7750
 1.2580	43.7820
 1.2590	43.7880
 1.2600	43.7900
 1.2610	43.7930
 1.2620	43.7960
 1.2630	43.7980
 1.2640	43.7990
 1.2650	43.8020
 1.2660	43.8030
 1.2670	43.8030
 1.2680	43.8040
 1.2690	43.8050
 1.2700	43.8060
 1.2710	43.8050
 1.2720	43.8050
 1.2730	43.8060
 1.2740	43.8050
 1.2750	43.8050
 1.2760	43.8030
 1.2770	43.7970
 1.2780	43.7910
 1.2790	43.7830
 1.2800	43.7750
 1.2810	43.7680
 1.2820	43.7580
 1.2830	43.7450
 1.2840	43.7300
 1.2850	43.7110
 1.2860	43.6920
 1.2870	43.6700
 1.2880	43.6480
 1.2890	43.6210
 1.2900	43.5920
 1.2910	43.5590
 1.2920	43.5230
 1.2930	43.4850
 1.2940	43.4450
 1.2950	43.4030
 1.2960	43.3570
 1.2970	43.3080
 1.2980	43.2570
 1.2990	43.2030
 1.3000	43.1470
 1.3010	43.0880
 1.3020	43.0280
 1.3030	42.9650
 1.3040	42.9010
 1.3050	42.8370
 1.3060	42.7680
 1.3070	42.6970
 1.3080	42.6270
 1.3090	42.5550
 1.3100	42.4800
 1.3110	42.4060
 1.3120	42.3280
 1.3130	42.2490
 1.3140	42.1690
 1.3150	42.0880
 1.3160	42.0050
 1.3170	41.9210
 1.3180	41.8350
 1.3190	41.7460
 1.3200	41.6560
 1.3210	41.5630
 1.3220	41.4690
 1.3230	41.3740
 1.3240	41.2780
 1.3250	41.1790
 1.3260	41.0790
 1.3270	40.9750
 1.3280	40.8700
 1.3290	40.7650
 1.3300	40.6590
 1.3310	40.5500
 1.3320	40.4400
 1.3330	40.3280
 1.3340	40.2150
 1.3350	40.1020
 1.3360	39.9900
 1.3370	39.8750
 1.3380	39.7600
 1.3390	39.6450
 1.3400	39.5280
 1.3410	39.4120
 1.3420	39.2970
 1.3430	39.1820
 1.3440	39.0700
 1.3450	38.9590
 1.3460	38.8490
 1.3470	38.7410
 1.3480	38.6330
 1.3490	38.5280
 1.3500	38.4250
 1.3510	38.3210
 1.3520	38.2170
 1.3530	38.1140
 1.3540	38.0080
 1.3550	37.9040
 1.3560	37.8000
 1.3570	37.6940
 1.3580	37.5870
 1.3590	37.4780
 1.3600	37.3650
 1.3610	37.2490
 1.3620	37.1270
 1.3630	37.0010
 1.3640	36.8700
 1.3650	36.7340
 1.3660	36.5920
 1.3670	36.4410
 1.3680	36.2820
 1.3690	36.1130
 1.3700	35.9320
 1.3710	35.7400
 1.3720	35.5350
 1.3730	35.3140
 1.3740	35.0790
 1.3750	34.8290
 1.3760	34.5580
 1.3770	34.2670
 1.3780	33.9530
 1.3790	33.6160
 1.3800	33.2590
 1.3810	32.8770
 1.3820	32.4740
 1.3830	32.0510
 1.3840	31.6060
 1.3850	31.1400
 1.3860	30.6570
 1.3870	30.1500
 1.3880	29.6370
 1.3890	29.1090
 1.3900	28.5700
 1.3910	28.0290
 1.3920	27.4790
 1.3930	26.9210
 1.3940	26.3640
 1.3950	25.8000
 1.3960	25.2430
 1.3970	24.6950
 1.3980	24.1550
 1.3990	23.6330
 1.4000	23.1240
 1.4010	22.6260
 1.4020	22.1460
 1.4030	21.6790
 1.4040	21.2300
 1.4050	20.8060
 1.4060	20.3990
 1.4070	20.0170
 1.4080	19.6550
 1.4090	19.3090
 1.4100	18.9850
 1.4110	18.6810
 1.4120	18.3960
 1.4130	18.1320
 1.4140	17.8850
 1.4150	17.6580
 1.4160	17.4480
 1.4170	17.2530
 1.4180	17.0730
 1.4190	16.9050
 1.4200	16.7500
 1.4210	16.6080
 1.4220	16.4780
 1.4230	16.3590
 1.4240	16.2510
 1.4250	16.1500
 1.4260	16.0590
 1.4270	15.9750
 1.4280	15.8980
 1.4290	15.8290
 1.4300	15.7680
 1.4310	15.7120
 1.4320	15.6640
 1.4330	15.6200
 1.4340	15.5830
 1.4350	15.5500
 1.4360	15.5220
 1.4370	15.4990
 1.4380	15.4790
 1.4390	15.4630
 1.4400	15.4500
 1.4410	15.4410
 1.4420	15.4340
 1.4430	15.4300
 1.4440	15.4290
 1.4450	15.4300
 1.4460	15.4330
 1.4470	15.4380
 1.4480	15.4450
 1.4490	15.4530
 1.4500	15.4630
 1.4510	15.4730
 1.4520	15.4860
 1.4530	15.5010
 1.4540	15.5180
 1.4550	15.5360
 1.4560	15.5570
 1.4570	15.5790
 1.4580	15.6040
 1.4590	15.6320
 1.4600	15.6620
 1.4610	15.6970
 1.4620	15.7360
 1.4630	15.7790
 1.4640	15.8270
 1.4650	15.8780
 1.4660	15.9350
 1.4670	15.9960
 1.4680	16.0620
 1.4690	16.1320
 1.4700	16.2070
 1.4710	16.2860
 1.4720	16.3680
 1.4730	16.4540
 1.4740	16.5430
 1.4750	16.6350
 1.4760	16.7310
 1.4770	16.8300
 1.4780	16.9300
 1.4790	17.0330
 1.4800	17.1370
 1.4810	17.2420
 1.4820	17.3490
 1.4830	17.4580
 1.4840	17.5680
 1.4850	17.6790
 1.4860	17.7910
 1.4870	17.9050
 1.4880	18.0190
 1.4890	18.1320
 1.4900	18.2470
 1.4910	18.3630
 1.4920	18.4800
 1.4930	18.5990
 1.4940	18.7160
 1.4950	18.8350
 1.4960	18.9530
 1.4970	19.0690
 1.4980	19.1870
 1.4990	19.3060
 1.5000	19.4250
 1.5010	19.5450
 1.5020	19.6640
 1.5030	19.7830
 1.5040	19.9020
 1.5050	20.0200
 1.5060	20.1380
 1.5070	20.2570
 1.5080	20.3760
 1.5090	20.4950
 1.5100	20.6130
 1.5110	20.7300
 1.5120	20.8470
 1.5130	20.9620
 1.5140	21.0780
 1.5150	21.1930
 1.5160	21.3080
 1.5170	21.4240
 1.5180	21.5380
 1.5190	21.6510
 1.5200	21.7640
 1.5210	21.8750
 1.5220	21.9870
 1.5230	22.0980
 1.5240	22.2070
 1.5250	22.3170
 1.5260	22.4250
 1.5270	22.5320
 1.5280	22.6390
 1.5290	22.7440
 1.5300	22.8480
 1.5310	22.9530
 1.5320	23.0560
 1.5330	23.1580
 1.5340	23.2600
 1.5350	23.3590
 1.5360	23.4590
 1.5370	23.5570
 1.5380	23.6550
 1.5390	23.7530
 1.5400	23.8480
 1.5410	23.9430
 1.5420	24.0380
 1.5430	24.1310
 1.5440	24.2240
 1.5450	24.3170
 1.5460	24.4080
 1.5470	24.4990
 1.5480	24.5880
 1.5490	24.6770
 1.5500	24.7640
 1.5510	24.8490
 1.5520	24.9350
 1.5530	25.0200
 1.5540	25.1040
 1.5550	25.1880
 1.5560	25.2710
 1.5570	25.3520
 1.5580	25.4330
 1.5590	25.5110
 1.5600	25.5890
 1.5610	25.6650
 1.5620	25.7400
 1.5630	25.8150
 1.5640	25.8890
 1.5650	25.9630
 1.5660	26.0360
 1.5670	26.1080
 1.5680	26.1800
 1.5690	26.2480
 1.5700	26.3180
 1.5710	26.3870
 1.5720	26.4550
 1.5730	26.5240
 1.5740	26.5920
 1.5750	26.6590
 1.5760	26.7270
 1.5770	26.7930
 1.5780	26.8590
 1.5790	26.9260
 1.5800	26.9920
 1.5810	27.0580
 1.5820	27.1240
 1.5830	27.1890
 1.5840	27.2530
 1.5850	27.3170
 1.5860	27.3810
 1.5870	27.4440
 1.5880	27.5070
 1.5890	27.5700
 1.5900	27.6330
 1.5910	27.6950
 1.5920	27.7570
 1.5930	27.8180
 1.5940	27.8800
 1.5950	27.9420
 1.5960	28.0030
 1.5970	28.0650
 1.5980	28.1250
 1.5990	28.1850
 1.6000	28.2450
 1.6010	28.3030
 1.6020	28.3610
 1.6030	28.4190
 1.6040	28.4750
 1.6050	28.5310
 1.6060	28.5870
 1.6070	28.6420
 1.6080	28.6970
 1.6090	28.7510
 1.6100	28.8040
 1.6110	28.8560
 1.6120	28.9050
 1.6130	28.9550
 1.6140	29.0040
 1.6150	29.0500
 1.6160	29.0980
 1.6170	29.1450
 1.6180	29.1900
 1.6190	29.2350
 1.6200	29.2780
 1.6210	29.3200
 1.6220	29.3620
 1.6230	29.4030
 1.6240	29.4440
 1.6250	29.4830
 1.6260	29.5220
 1.6270	29.5590
 1.6280	29.5950
 1.6290	29.6300
 1.6300	29.6650
 1.6310	29.6980
 1.6320	29.7290
 1.6330	29.7590
 1.6340	29.7880
 1.6350	29.8160
 1.6360	29.8420
 1.6370	29.8660
 1.6380	29.8890
 1.6390	29.9090
 1.6400	29.9260
 1.6410	29.9430
 1.6420	29.9570
 1.6430	29.9700
 1.6440	29.9800
 1.6450	29.9860
 1.6460	29.9910
 1.6470	29.9940
 1.6480	29.9950
 1.6490	29.9950
 1.6500	29.9930
 1.6510	29.9890
 1.6520	29.9830
 1.6530	29.9770
 1.6540	29.9680
 1.6550	29.9600
 1.6560	29.9520
 1.6570	29.9430
 1.6580	29.9360
 1.6590	29.9280
 1.6600	29.9200
 1.6610	29.9130
 1.6620	29.9050
 1.6630	29.8980
 1.6640	29.8920
 1.6650	29.8870
 1.6660	29.8820
 1.6670	29.8770
 1.6680	29.8720
 1.6690	29.8660
 1.6700	29.8590
 1.6710	29.8500
 1.6720	29.8380
 1.6730	29.8240
 1.6740	29.8080
 1.6750	29.7910
 1.6760	29.7710
 1.6770	29.7490
 1.6780	29.7250
 1.6790	29.6990
 1.6800	29.6700
 1.6810	29.6380
 1.6820	29.6030
 1.6830	29.5660
 1.6840	29.5260
 1.6850	29.4830
 1.6860	29.4370
 1.6870	29.3890
 1.6880	29.3390
 1.6890	29.2880
 1.6900	29.2370
 1.6910	29.1860
 1.6920	29.1360
 1.6930	29.0860
 1.6940	29.0370
 1.6950	28.9890
 1.6960	28.9390
 1.6970	28.8880
 1.6980	28.8370
 1.6990	28.7840
 1.7000	28.7320
 1.7010	28.6810
 1.7020	28.6280
 1.7030	28.5750
 1.7040	28.5200
 1.7050	28.4640
 1.7060	28.4070
 1.7070	28.3470
 1.7080	28.2890
 1.7090	28.2300
 1.7100	28.1700
 1.7110	28.1090
 1.7120	28.0470
 1.7130	27.9850
 1.7140	27.9250
 1.7150	27.8650
 1.7160	27.8080
 1.7170	27.7520
 1.7180	27.6970
 1.7190	27.6420
 1.7200	27.5880
 1.7210	27.5350
 1.7220	27.4810
 1.7230	27.4280
 1.7240	27.3770
 1.7250	27.3280
 1.7260	27.2830
 1.7270	27.2430
 1.7280	27.2050
 1.7290	27.1730
 1.7300	27.1450
 1.7310	27.1230
 1.7320	27.1090
 1.7330	27.0950
 1.7340	27.0870
 1.7350	27.0790
 1.7360	27.0720
 1.7370	27.0640
 1.7380	27.0570
 1.7390	27.0440
 1.7400	27.0300
 1.7410	27.0100
 1.7420	26.9850
 1.7430	26.9550
 1.7440	26.9200
 1.7450	26.8830
 1.7460	26.8420
 1.7470	26.8000
 1.7480	26.7540
 1.7490	26.7070
 1.7500	26.6580
 1.7510	26.6080
 1.7520	26.5580
 1.7530	26.5070
 1.7540	26.4550
 1.7550	26.4020
 1.7560	26.3490
 1.7570	26.2970
 1.7580	26.2470
 1.7590	26.1970
 1.7600	26.1490
 1.7610	26.1010
 1.7620	26.0570
 1.7630	26.0170
 1.7640	25.9800
 1.7650	25.9470
 1.7660	25.9160
 1.7670	25.8860
 1.7680	25.8590
 1.7690	25.8360
 1.7700	25.8140
 1.7710	25.7950
 1.7720	25.7740
 1.7730	25.7530
 1.7740	25.7330
 1.7750	25.7140
 1.7760	25.6950
 1.7770	25.6770
 1.7780	25.6590
 1.7790	25.6430
 1.7800	25.6260
 1.7810	25.6100
 1.7820	25.5950
 1.7830	25.5800
 1.7840	25.5680
 1.7850	25.5580
 1.7860	25.5480
 1.7870	25.5400
 1.7880	25.5330
 1.7890	25.5280
 1.7900	25.5240
 1.7910	25.5210
 1.7920	25.5180
 1.7930	25.5170
 1.7940	25.5190
 1.7950	25.5220
 1.7960	25.5260
 1.7970	25.5310
 1.7980	25.5350
 1.7990	25.5410
 1.8000	25.5470
 1.8010	25.5550
 1.8020	25.5660
 1.8030	25.5760
 1.8040	25.5880
 1.8050	25.5990
 1.8060	25.6100
 1.8070	25.6200
 1.8080	25.6300
 1.8090	25.6390
 1.8100	25.6460
 1.8110	25.6550
 1.8120	25.6640
 1.8130	25.6720
 1.8140	25.6780
 1.8150	25.6850
 1.8160	25.6930
 1.8170	25.6980
 1.8180	25.7050
 1.8190	25.7120
 1.8200	25.7180
 1.8210	25.7250
 1.8220	25.7290
 1.8230	25.7290
 1.8240	25.7290
 1.8250	25.7280
 1.8260	25.7270
 1.8270	25.7260
 1.8280	25.7230
 1.8290	25.7190
 1.8300	25.7120
 1.8310	26.3740
 1.8320	26.3550
 1.8330	26.3360
 1.8340	26.3160
 1.8350	26.2930
 1.8360	26.2660
 1.8370	26.2330
 1.8380	26.1950
 1.8390	26.1530
 1.8400	26.1060
 1.8410	26.0530
 1.8420	25.9960
 1.8430	25.9320
 1.8440	25.8610
 1.8450	25.7840
 1.8460	25.7010
 1.8470	25.6110
 1.8480	25.5130
 1.8490	25.4050
 1.8500	25.2860
 1.8510	25.1560
 1.8520	25.0140
 1.8530	24.8580
 1.8540	24.6930
 1.8550	24.5170
 1.8560	24.3270
 1.8570	24.1260
 1.8580	23.9120
 1.8590	23.6830
 1.8600	23.4410
 1.8610	23.1850
 1.8620	22.9130
 1.8630	22.6290
 1.8640	22.3300
 1.8650	22.0110
 1.8660	21.6750
 1.8670	21.3180
 1.8680	20.9430
 1.8690	20.5540
 1.8700	20.1450
 1.8710	19.7200
 1.8720	19.2810
 1.8730	18.8270
 1.8740	18.3610
 1.8750	17.8890
 1.8760	17.4080
 1.8770	16.9260
 1.8780	16.4440
 1.8790	15.9580
 1.8800	15.4780
 1.8810	15.0020
 1.8820	14.5240
 1.8830	14.0470
 1.8840	13.5770
 1.8850	13.1130
 1.8860	12.6590
 1.8870	12.2240
 1.8880	11.8010
 1.8890	11.3960
 1.8900	11.0110
 1.8910	10.6450
 1.8920	10.2920
 1.8930	 9.9650
 1.8940	 9.6570
 1.8950	 9.3720
 1.8960	 9.1080
 1.8970	 8.8640
 1.8980	 8.6430
 1.8990	 8.4380
 1.9000	 8.2490
 1.9010	 8.0800
 1.9020	 7.9250
 1.9030	 7.7870
 1.9040	 7.6640
 1.9050	 7.5550
 1.9060	 7.4580
 1.9070	 7.3740
 1.9080	 7.2970
 1.9090	 7.2280
 1.9100	 7.1690
 1.9110	 7.1160
 1.9120	 7.0710
 1.9130	 7.0310
 1.9140	 6.9970
 1.9150	 6.9680
 1.9160	 6.9390
 1.9170	 6.9120
 1.9180	 6.8890
 1.9190	 6.8690
 1.9200	 6.8540
 1.9210	 6.8430
 1.9220	 6.8330
 1.9230	 6.8270
 1.9240	 6.8210
 1.9250	 6.8180
 1.9260	 6.8160
 1.9270	 6.8150
 1.9280	 6.8160
 1.9290	 6.8180
 1.9300	 6.8220
 1.9310	 6.8280
 1.9320	 6.8350
 1.9330	 6.8440
 1.9340	 6.8550
 1.9350	 6.8660
 1.9360	 6.8770
 1.9370	 6.8900
 1.9380	 6.9050
 1.9390	 6.9210
 1.9400	 6.9390
 1.9410	 6.9570
 1.9420	 6.9730
 1.9430	 6.9910
 1.9440	 7.0110
 1.9450	 7.0320
 1.9460	 7.0550
 1.9470	 7.0810
 1.9480	 7.1050
 1.9490	 7.1290
 1.9500	 7.1540
 1.9510	 7.1800
 1.9520	 7.2090
 1.9530	 7.2370
 1.9540	 7.2660
 1.9550	 7.2970
 1.9560	 7.3280
 1.9570	 7.3610
 1.9580	 7.3960
 1.9590	 7.4300
 1.9600	 7.4630
 1.9610	 7.4990
 1.9620	 7.5370
 1.9630	 7.5760
 1.9640	 7.6170
 1.9650	 7.6590
 1.9660	 7.7000
 1.9670	 7.7400
 1.9680	 7.7810
 1.9690	 7.8210
 1.9700	 7.8630
 1.9710	 7.9070
 1.9720	 7.9510
 1.9730	 7.9970
 1.9740	 8.0430
 1.9750	 8.0890
 1.9760	 8.1370
 1.9770	 8.1840
 1.9780	 8.2330
 1.9790	 8.2820
 1.9800	 8.3320
 1.9810	 8.3830
 1.9820	 8.4350
 1.9830	 8.4870
 1.9840	 8.5390
 1.9850	 8.5920
 1.9860	 8.6450
 1.9870	 8.6990
 1.9880	 8.7520
 1.9890	 8.8070
 1.9900	 8.8620
 1.9910	 8.9160
 1.9920	 8.9710
 1.9930	 9.0280
 1.9940	 9.0830
 1.9950	 9.1370
 1.9960	 9.1930
 1.9970	 9.2490
 1.9980	 9.3060
 1.9990	 9.3650
 2.0000	 9.4240
 2.0010	 9.4830
 2.0020	 9.5420
 2.0030	 9.6000
 2.0040	 9.6570
 2.0050	 9.7140
 2.0060	 9.7710
 2.0070	 9.8280
 2.0080	 9.8870
 2.0090	 9.9450
 2.0100	10.0060
 2.0110	10.0640
 2.0120	10.1210
 2.0130	10.1780
 2.0140	10.2330
 2.0150	10.2870
 2.0160	10.3440
 2.0170	10.4010
 2.0180	10.4570
 2.0190	10.5160
 2.0200	10.5710
 2.0210	10.6240
 2.0220	10.6780
 2.0230	10.7300
 2.0240	10.7820
 2.0250	10.8340
 2.0260	10.8850
 2.0270	10.9340
 2.0280	10.9840
 2.0290	11.0310
 2.0300	11.0780
 2.0310	11.1230
 2.0320	11.1680
 2.0330	11.2100
 2.0340	11.2510
 2.0350	11.2920
 2.0360	11.3330
 2.0370	11.3700
 2.0380	11.4070
 2.0390	11.4420
 2.0400	11.4730
 2.0410	11.5070
 2.0420	11.5430
 2.0430	11.5790
 2.0440	11.6120
 2.0450	11.6440
 2.0460	11.6760
 2.0470	11.7030
 2.0480	11.7330
 2.0490	11.7630
 2.0500	11.7940
 2.0510	11.8260
 2.0520	11.8580
 2.0530	11.8900
 2.0540	11.9220
 2.0550	11.9510
 2.0560	11.9840
 2.0570	12.0160
 2.0580	12.0470
 2.0590	12.0810
 2.0600	12.1160
 2.0610	12.1500
 2.0620	12.1850
 2.0630	12.2210
 2.0640	12.2570
 2.0650	12.2930
 2.0660	12.3300
 2.0670	12.3670
 2.0680	12.4040
 2.0690	12.4400
 2.0700	12.4740
 2.0710	12.5090
 2.0720	12.5450
 2.0730	12.5800
 2.0740	12.6160
 2.0750	12.6530
 2.0760	12.6900
 2.0770	12.7270
 2.0780	12.7630
 2.0790	12.7970
 2.0800	12.8330
 2.0810	12.8660
 2.0820	12.9000
 2.0830	12.9370
 2.0840	12.9720
 2.0850	13.0060
 2.0860	13.0400
 2.0870	13.0730
 2.0880	13.1040
 2.0890	13.1380
 2.0900	13.1720
 2.0910	13.2050
 2.0920	13.2390
 2.0930	13.2700
 2.0940	13.2980
 2.0950	13.3300
 2.0960	13.3620
 2.0970	13.3950
 2.0980	13.4310
 2.0990	13.4640
 2.1000	13.4940
 2.1010	13.5260
 2.1020	13.5550
 2.1030	13.5870
 2.1040	13.6210
 2.1050	13.6540
 2.1060	13.6830
 2.1070	13.7120
 2.1080	13.7400
 2.1090	13.7640
 2.1100	13.7900
 2.1110	13.8190
 2.1120	13.8460
 2.1130	13.8740
 2.1140	13.9020
 2.1150	13.9300
 2.1160	13.9570
 2.1170	13.9830
 2.1180	14.0080
 2.1190	14.0330
 2.1200	14.0580
 2.1210	14.0830
 2.1220	14.1070
 2.1230	14.1310
 2.1240	14.1550
 2.1250	14.1780
 2.1260	14.2020
 2.1270	14.2240
 2.1280	14.2450
 2.1290	14.2670
 2.1300	14.2870
 2.1310	14.3090
 2.1320	14.3310
 2.1330	14.3530
 2.1340	14.3720
 2.1350	14.3930
 2.1360	14.4140
 2.1370	14.4350
 2.1380	14.4550
 2.1390	14.4770
 2.1400	14.4990
 2.1410	14.5220
 2.1420	14.5440
 2.1430	14.5680
 2.1440	14.5910
 2.1450	14.6120
 2.1460	14.6350
 2.1470	14.6600
 2.1480	14.6820
 2.1490	14.7050
 2.1500	14.7270
 2.1510	14.7460
 2.1520	14.7670
 2.1530	14.7900
 2.1540	14.8110
 2.1550	14.8300
 2.1560	14.8500
 2.1570	14.8680
 2.1580	14.8860
 2.1590	14.9020
 2.1600	14.9180
 2.1610	14.9350
 2.1620	14.9500
 2.1630	14.9660
 2.1640	14.9830
 2.1650	15.0000
 2.1660	15.0160
 2.1670	15.0340
 2.1680	15.0540
 2.1690	15.0730
 2.1700	15.0920
 2.1710	15.1100
 2.1720	15.1240
 2.1730	15.1410
 2.1740	15.1580
 2.1750	15.1770
 2.1760	15.1990
 2.1770	15.2190
 2.1780	15.2390
 2.1790	15.2600
 2.1800	15.2800
 2.1810	15.3020
 2.1820	15.3260
 2.1830	15.3510
 2.1840	15.3740
 2.1850	15.3970
 2.1860	15.4200
 2.1870	15.4390
 2.1880	15.4630
 2.1890	15.4890
 2.1900	15.5130
 2.1910	15.5370
 2.1920	15.5610
 2.1930	15.5850
 2.1940	15.6090
 2.1950	15.6350
 2.1960	15.6590
 2.1970	15.6820
 2.1980	15.7040
 2.1990	15.7230
 2.2000	15.7450
 2.2010	15.7660
 2.2020	15.7890
 2.2030	15.8150
 2.2040	15.8390
 2.2050	15.8610
 2.2060	15.8820
 2.2070	15.9000
 2.2080	15.9140
 2.2090	15.9290
 2.2100	15.9420
 2.2110	15.9550
 2.2120	15.9690
 2.2130	15.9810
 2.2140	15.9930
 2.2150	16.0030
 2.2160	16.0110
 2.2170	16.0170
 2.2180	16.0200
 2.2190	16.0240
 2.2200	16.0290
 2.2210	16.0280
 2.2220	16.0250
 2.2230	16.0200
 2.2240	16.0130
 2.2250	16.0020
 2.2260	15.9900
 2.2270	15.9730
 2.2280	15.9500
 2.2290	15.9250
 2.2300	15.8980
 2.2310	15.8700
 2.2320	15.8390
 2.2330	15.8050
 2.2340	15.7660
 2.2350	15.7230
 2.2360	15.6770
 2.2370	15.6280
 2.2380	15.5770
 2.2390	15.5230
 2.2400	15.4680
 2.2410	15.4100
 2.2420	15.3520
 2.2430	15.2940
 2.2440	15.2330
 2.2450	15.1710
 2.2460	15.1080
 2.2470	15.0440
 2.2480	14.9800
 2.2490	14.9170
 2.2500	14.8510
 2.2510	14.7840
 2.2520	14.7170
 2.2530	14.6430
 2.2540	14.5790
 2.2550	14.5200
 2.2560	14.4590
 2.2570	14.4020
 2.2580	14.3440
 2.2590	14.2810
 2.2600	14.2220
 2.2610	14.1660
 2.2620	14.1100
 2.2630	14.0560
 2.2640	14.0030
 2.2650	13.9480
 2.2660	13.8950
 2.2670	13.8400
 2.2680	13.7830
 2.2690	13.7300
 2.2700	13.6780
 2.2710	13.6310
 2.2720	13.5860
 2.2730	13.5450
 2.2740	13.5090
 2.2750	13.4700
 2.2760	13.4300
 2.2770	13.3930
 2.2780	13.3570
 2.2790	13.3190
 2.2800	13.2810
 2.2810	13.2450
 2.2820	13.2060
 2.2830	13.1710
 2.2840	13.1430
 2.2850	13.1090
 2.2860	13.0740
 2.2870	13.0370
 2.2880	12.9930
 2.2890	12.9530
 2.2900	12.9160
 2.2910	12.8760
 2.2920	12.8360
 2.2930	12.7920
 2.2940	12.7440
 2.2950	12.6950
 2.2960	12.6390
 2.2970	12.5880
 2.2980	12.5420
 2.2990	12.4930
 2.3000	12.4420
 2.3010	12.3960
 2.3020	12.3420
 2.3030	12.2900
 2.3040	12.2420
 2.3050	12.1940
 2.3060	12.1520
 2.3070	12.1090
 2.3080	12.0720
 2.3090	12.0400
 2.3100	12.0100
 2.3110	11.9860
 2.3120	11.9650
 2.3130	11.9470
 2.3140	11.9350
 2.3150	11.9300
 2.3160	11.9280
 2.3170	11.9380
 2.3180	11.9400
 2.3190	11.9440
 2.3200	11.9410
 2.3210	11.9330
 2.3220	11.9270
 2.3230	11.9200
 2.3240	11.9110
 2.3250	11.9040
 2.3260	11.8900
 2.3270	11.8700
 2.3280	11.8460
 2.3290	11.8120
 2.3300	11.7830
 2.3310	11.7530
 2.3320	11.7240
 2.3330	11.6980
 2.3340	11.6700
 2.3350	11.6440
 2.3360	11.6110
 2.3370	11.5760
 2.3380	11.5410
 2.3390	11.5000
 2.3400	11.4630
 2.3410	11.4260
 2.3420	11.3930
 2.3430	11.3630
 2.3440	11.3320
 2.3450	11.3030
 2.3460	11.2730
 2.3470	11.2380
 2.3480	11.2050
 2.3490	11.1700
 2.3500	11.1420
 2.3510	11.1180
 2.3520	11.0990
 2.3530	11.0880
 2.3540	11.0790
 2.3550	11.0650
 2.3560	11.0490
 2.3570	11.0310
 2.3580	11.0150
 2.3590	11.0060
 2.3600	10.9960
 2.3610	10.9810
 2.3620	10.9640
 2.3630	10.9470
 2.3640	10.9240
 2.3650	10.9020
 2.3660	10.8780
 2.3670	10.8460
 2.3680	10.8150
 2.3690	10.7870
 2.3700	10.7600
 2.3710	10.7400
 2.3720	10.7170
 2.3730	10.6910
 2.3740	10.6670
 2.3750	10.6420
 2.3760	10.6160
 2.3770	10.5870
 2.3780	10.5530
 2.3790	10.5180
 2.3800	10.4850
 2.3810	10.4550
 2.3820	10.4290
 2.3830	10.4040
 2.3840	10.3740
 2.3850	10.3340
 2.3860	10.3000
 2.3870	10.2690
 2.3880	10.2400
 2.3890	10.2260
 2.3900	10.2060
 2.3910	10.1760
 2.3920	10.1470
 2.3930	10.1140
 2.3940	10.0760
 2.3950	10.0360
 2.3960	10.0070
 2.3970	 9.9840
 2.3980	 9.9580
 2.3990	 9.9290
 2.4000	 9.8930
 2.4010	 9.8530
 2.4020	 9.8230
 2.4030	 9.8010
 2.4040	 9.7760
 2.4050	 9.7460
 2.4060	 9.7150
 2.4070	 9.6810
 2.4080	 9.6460
 2.4090	 9.6130
 2.4100	 9.5710
 2.4110	 9.5310
 2.4120	 9.5000
 2.4130	 9.4700
 2.4140	 9.4440
 2.4150	 9.4130
 2.4160	 9.3820
 2.4170	 9.3570
 2.4180	 9.3300
 2.4190	 9.3030
 2.4200	 9.2800
 2.4210	 9.2450
 2.4220	 9.2000
 2.4230	 9.1650
 2.4240	 9.1260
 2.4250	 9.0790
 2.4260	 9.0480
 2.4270	 9.0210
 2.4280	 8.9810
 2.4290	 8.9500
 2.4300	 8.9280
 2.4310	 8.8970
 2.4320	 8.8820
 2.4330	 8.8680
 2.4340	 8.8360
 2.4350	 8.8060
 2.4360	 8.7730
 2.4370	 8.7350
 2.4380	 8.7020
 2.4390	 8.6680
 2.4400	 8.6290
 2.4410	 8.5910
 2.4420	 8.5640
 2.4430	 8.5410
 2.4440	 8.5070
 2.4450	 8.4780
 2.4460	 8.4490
 2.4470	 8.4060
 2.4480	 8.3760
 2.4490	 8.3640
 2.4500	 8.3400
 2.4510	 8.3170
 2.4520	 8.2880
 2.4530	 8.2530
 2.4540	 8.2330
 2.4550	 8.2110
 2.4560	 8.1950
 2.4570	 8.1690
 2.4580	 8.1180
 2.4590	 8.0850
 2.4600	 8.0600
 2.4610	 8.0430
 2.4620	 8.0380
 2.4630	 8.0110
 2.4640	 7.9760
 2.4650	 7.9360
 2.4660	 7.9030
 2.4670	 7.8970
 2.4680	 7.8830
 2.4690	 7.8880
 2.4700	 7.8840
 2.4710	 7.8750
 2.4720	 7.8520
 2.4730	 7.8070
 2.4740	 7.7740
 2.4750	 7.7380
 2.4760	 7.7170
 2.4770	 7.7170
 2.4780	 7.7050
 2.4790	 7.6780
 2.4800	 7.6640
 2.4810	 7.6580
 2.4820	 7.6540
 2.4830	 7.6620
 2.4840	 7.6420
 2.4850	 7.6340
 2.4860	 7.6370
 2.4870	 7.6280
 2.4880	 7.6340
 2.4890	 7.6180
 2.4900	 7.5950
 2.4910	 7.5620
 2.4920	 7.5400
 2.4930	 7.5560
 2.4940	 7.5520
 2.4950	 7.5390
 2.4960	 7.5410
 2.4970	 7.5380
 2.4980	 7.5080
 2.4990	 7.4950
 2.5000	 7.5060
