Name: Aloe arborescens
Type: vegetation
Class: Shrub
Genus: Aloe
Species: arborescens
Sample No.: JPL077
Owner: JPL
Wavelength Range: VSWIR
Origin: 34.12593; - 118.10983; WGS84
Collection Date: 2/2/2016
Description: Samples were collected at the Huntington Garden in San Marino California as part of a JPL Subcontract studying HyTES imagery. Samples were taken to JPL and processed within 48 hours of collection. The same leaves were processed in the Nicolet and then measured using the ASD.
Measurement: Bidirectional reflectance
First Column: X
Second Column: Y
X Units: Wavelength (micrometer)
Y Units: Reflectance (percentage)
First X Value: 0.35
Last X Value: 2.5
Number of X Values: 2151
Additional Information: 

 0.3500	 9.3140
 0.3510	 9.7730
 0.3520	 9.4480
 0.3530	 9.6940
 0.3540	11.1710
 0.3550	10.8220
 0.3560	10.8750
 0.3570	11.0720
 0.3580	10.1600
 0.3590	 9.7620
 0.3600	 9.8780
 0.3610	10.1480
 0.3620	 9.9730
 0.3630	 9.7630
 0.3640	 9.9430
 0.3650	10.6090
 0.3660	10.8070
 0.3670	10.7540
 0.3680	10.5350
 0.3690	10.1700
 0.3700	10.0310
 0.3710	 9.8860
 0.3720	 9.7130
 0.3730	10.0670
 0.3740	10.1170
 0.3750	 9.9560
 0.3760	 9.9280
 0.3770	10.0160
 0.3780	 9.6960
 0.3790	 9.2920
 0.3800	 9.7710
 0.3810	10.3160
 0.3820	10.1590
 0.3830	 9.4690
 0.3840	10.3830
 0.3850	10.9690
 0.3860	10.9030
 0.3870	10.5650
 0.3880	10.4750
 0.3890	10.3240
 0.3900	10.0800
 0.3910	10.0580
 0.3920	10.5080
 0.3930	10.7560
 0.3940	10.3950
 0.3950	10.1470
 0.3960	10.2900
 0.3970	10.4340
 0.3980	10.0170
 0.3990	 9.9070
 0.4000	10.1780
 0.4010	10.5760
 0.4020	10.5350
 0.4030	10.3940
 0.4040	10.3280
 0.4050	10.3860
 0.4060	10.3370
 0.4070	10.3510
 0.4080	10.3810
 0.4090	10.2760
 0.4100	10.3910
 0.4110	10.5770
 0.4120	10.6820
 0.4130	10.6510
 0.4140	10.6760
 0.4150	10.7220
 0.4160	10.7010
 0.4170	10.6150
 0.4180	10.6080
 0.4190	10.6240
 0.4200	10.4390
 0.4210	10.4950
 0.4220	10.6590
 0.4230	10.7530
 0.4240	10.7600
 0.4250	10.7190
 0.4260	10.6750
 0.4270	10.6850
 0.4280	10.8980
 0.4290	10.9770
 0.4300	10.8320
 0.4310	10.7660
 0.4320	10.6990
 0.4330	10.6620
 0.4340	10.6970
 0.4350	10.8090
 0.4360	10.9530
 0.4370	11.0180
 0.4380	10.8760
 0.4390	10.8750
 0.4400	10.9380
 0.4410	10.9690
 0.4420	10.9870
 0.4430	11.0000
 0.4440	11.0010
 0.4450	10.9850
 0.4460	10.9800
 0.4470	10.9980
 0.4480	11.0410
 0.4490	11.1040
 0.4500	11.1620
 0.4510	11.1370
 0.4520	11.0270
 0.4530	11.1230
 0.4540	11.0980
 0.4550	11.0000
 0.4560	11.0920
 0.4570	11.1210
 0.4580	11.1610
 0.4590	11.2400
 0.4600	11.2290
 0.4610	11.1810
 0.4620	11.1530
 0.4630	11.1780
 0.4640	11.1580
 0.4650	11.1930
 0.4660	11.2580
 0.4670	11.1980
 0.4680	11.1970
 0.4690	11.2030
 0.4700	11.1710
 0.4710	11.2080
 0.4720	11.1950
 0.4730	11.1490
 0.4740	11.1570
 0.4750	11.2300
 0.4760	11.2630
 0.4770	11.2200
 0.4780	11.1870
 0.4790	11.1170
 0.4800	11.0630
 0.4810	11.0820
 0.4820	11.1110
 0.4830	11.1290
 0.4840	11.1490
 0.4850	11.2100
 0.4860	11.1560
 0.4870	11.1140
 0.4880	11.1680
 0.4890	11.1660
 0.4900	11.1540
 0.4910	11.1530
 0.4920	11.1620
 0.4930	11.1290
 0.4940	11.1620
 0.4950	11.2760
 0.4960	11.3320
 0.4970	11.3170
 0.4980	11.2890
 0.4990	11.3140
 0.5000	11.4120
 0.5010	11.4910
 0.5020	11.5380
 0.5030	11.6090
 0.5040	11.6640
 0.5050	11.7420
 0.5060	11.8570
 0.5070	11.9370
 0.5080	12.0220
 0.5090	12.1310
 0.5100	12.2680
 0.5110	12.3840
 0.5120	12.4900
 0.5130	12.6130
 0.5140	12.7900
 0.5150	12.9960
 0.5160	13.1920
 0.5170	13.3490
 0.5180	13.4720
 0.5190	13.6880
 0.5200	13.9700
 0.5210	14.1710
 0.5220	14.3490
 0.5230	14.5340
 0.5240	14.7360
 0.5250	14.9390
 0.5260	15.1370
 0.5270	15.3200
 0.5280	15.4770
 0.5290	15.6420
 0.5300	15.7860
 0.5310	15.9120
 0.5320	16.0660
 0.5330	16.2080
 0.5340	16.3150
 0.5350	16.3940
 0.5360	16.5260
 0.5370	16.6070
 0.5380	16.6350
 0.5390	16.6810
 0.5400	16.7590
 0.5410	16.8240
 0.5420	16.8540
 0.5430	16.8950
 0.5440	16.9400
 0.5450	16.9850
 0.5460	17.0250
 0.5470	17.0600
 0.5480	17.0810
 0.5490	17.0880
 0.5500	17.1020
 0.5510	17.1200
 0.5520	17.1290
 0.5530	17.1190
 0.5540	17.1060
 0.5550	17.0630
 0.5560	16.9850
 0.5570	16.8950
 0.5580	16.8590
 0.5590	16.8210
 0.5600	16.7380
 0.5610	16.6420
 0.5620	16.5660
 0.5630	16.4890
 0.5640	16.3770
 0.5650	16.2920
 0.5660	16.2070
 0.5670	16.0940
 0.5680	15.9290
 0.5690	15.7920
 0.5700	15.6820
 0.5710	15.5700
 0.5720	15.4050
 0.5730	15.2540
 0.5740	15.1440
 0.5750	15.0720
 0.5760	14.9840
 0.5770	14.8980
 0.5780	14.8250
 0.5790	14.7490
 0.5800	14.6810
 0.5810	14.6030
 0.5820	14.4950
 0.5830	14.4220
 0.5840	14.3600
 0.5850	14.2840
 0.5860	14.1750
 0.5870	14.1010
 0.5880	14.0460
 0.5890	13.9890
 0.5900	13.9530
 0.5910	13.9330
 0.5920	13.9120
 0.5930	13.8700
 0.5940	13.8350
 0.5950	13.8100
 0.5960	13.7890
 0.5970	13.7480
 0.5980	13.7050
 0.5990	13.6810
 0.6000	13.6800
 0.6010	13.6220
 0.6020	13.5470
 0.6030	13.4860
 0.6040	13.4570
 0.6050	13.4110
 0.6060	13.3520
 0.6070	13.2880
 0.6080	13.2110
 0.6090	13.1500
 0.6100	13.0820
 0.6110	12.9720
 0.6120	12.8680
 0.6130	12.8050
 0.6140	12.7720
 0.6150	12.6910
 0.6160	12.6110
 0.6170	12.5410
 0.6180	12.4750
 0.6190	12.4120
 0.6200	12.3510
 0.6210	12.3020
 0.6220	12.2770
 0.6230	12.2390
 0.6240	12.1980
 0.6250	12.1670
 0.6260	12.1540
 0.6270	12.1490
 0.6280	12.1380
 0.6290	12.1140
 0.6300	12.0990
 0.6310	12.0900
 0.6320	12.0820
 0.6330	12.0780
 0.6340	12.0620
 0.6350	12.0280
 0.6360	11.9750
 0.6370	11.9080
 0.6380	11.8350
 0.6390	11.7690
 0.6400	11.7220
 0.6410	11.6630
 0.6420	11.5900
 0.6430	11.5070
 0.6440	11.4260
 0.6450	11.3400
 0.6460	11.2680
 0.6470	11.2240
 0.6480	11.1490
 0.6490	11.0860
 0.6500	11.0340
 0.6510	10.9610
 0.6520	10.9270
 0.6530	10.9130
 0.6540	10.8930
 0.6550	10.8560
 0.6560	10.8050
 0.6570	10.7450
 0.6580	10.6810
 0.6590	10.6380
 0.6600	10.5920
 0.6610	10.5290
 0.6620	10.4490
 0.6630	10.3770
 0.6640	10.3320
 0.6650	10.3110
 0.6660	10.2620
 0.6670	10.2150
 0.6680	10.1800
 0.6690	10.1550
 0.6700	10.1350
 0.6710	10.1330
 0.6720	10.1460
 0.6730	10.1530
 0.6740	10.1640
 0.6750	10.1810
 0.6760	10.2020
 0.6770	10.2130
 0.6780	10.2490
 0.6790	10.3080
 0.6800	10.3660
 0.6810	10.4150
 0.6820	10.4710
 0.6830	10.5450
 0.6840	10.6420
 0.6850	10.7540
 0.6860	10.8930
 0.6870	11.0650
 0.6880	11.2360
 0.6890	11.4400
 0.6900	11.6910
 0.6910	11.9870
 0.6920	12.3470
 0.6930	12.7480
 0.6940	13.1770
 0.6950	13.6530
 0.6960	14.2000
 0.6970	14.7900
 0.6980	15.3910
 0.6990	16.0610
 0.7000	16.7650
 0.7010	17.4720
 0.7020	18.1680
 0.7030	18.8790
 0.7040	19.6180
 0.7050	20.3790
 0.7060	21.1210
 0.7070	21.8620
 0.7080	22.5960
 0.7090	23.3250
 0.7100	24.1000
 0.7110	24.8820
 0.7120	25.6530
 0.7130	26.4300
 0.7140	27.1990
 0.7150	27.9820
 0.7160	28.7930
 0.7170	29.6160
 0.7180	30.4260
 0.7190	31.2270
 0.7200	32.0390
 0.7210	32.8460
 0.7220	33.6370
 0.7230	34.4180
 0.7240	35.2070
 0.7250	35.9500
 0.7260	36.6530
 0.7270	37.3330
 0.7280	38.0070
 0.7290	38.6540
 0.7300	39.2670
 0.7310	39.8400
 0.7320	40.3530
 0.7330	40.8460
 0.7340	41.3280
 0.7350	41.7710
 0.7360	42.2000
 0.7370	42.6070
 0.7380	42.9780
 0.7390	43.3140
 0.7400	43.6420
 0.7410	43.9500
 0.7420	44.2210
 0.7430	44.4790
 0.7440	44.7220
 0.7450	44.9350
 0.7460	45.1020
 0.7470	45.2910
 0.7480	45.4700
 0.7490	45.6130
 0.7500	45.7420
 0.7510	45.8420
 0.7520	45.9250
 0.7530	46.0070
 0.7540	46.0890
 0.7550	46.1490
 0.7560	46.1960
 0.7570	46.2570
 0.7580	46.3040
 0.7590	46.3440
 0.7600	46.3810
 0.7610	46.3970
 0.7620	46.3950
 0.7630	46.4090
 0.7640	46.4600
 0.7650	46.4860
 0.7660	46.5000
 0.7670	46.5110
 0.7680	46.5240
 0.7690	46.5080
 0.7700	46.4880
 0.7710	46.4880
 0.7720	46.5170
 0.7730	46.5220
 0.7740	46.5200
 0.7750	46.5310
 0.7760	46.5210
 0.7770	46.5210
 0.7780	46.5290
 0.7790	46.5280
 0.7800	46.5260
 0.7810	46.5350
 0.7820	46.5580
 0.7830	46.5910
 0.7840	46.5970
 0.7850	46.5920
 0.7860	46.5940
 0.7870	46.5920
 0.7880	46.5890
 0.7890	46.6010
 0.7900	46.6360
 0.7910	46.6410
 0.7920	46.6300
 0.7930	46.6280
 0.7940	46.6600
 0.7950	46.6880
 0.7960	46.6930
 0.7970	46.6740
 0.7980	46.6530
 0.7990	46.6620
 0.8000	46.6750
 0.8010	46.6690
 0.8020	46.6780
 0.8030	46.6760
 0.8040	46.6700
 0.8050	46.6740
 0.8060	46.6740
 0.8070	46.6630
 0.8080	46.6470
 0.8090	46.6400
 0.8100	46.6340
 0.8110	46.6250
 0.8120	46.6120
 0.8130	46.5900
 0.8140	46.5560
 0.8150	46.5290
 0.8160	46.5170
 0.8170	46.4800
 0.8180	46.4460
 0.8190	46.4220
 0.8200	46.3990
 0.8210	46.3850
 0.8220	46.3510
 0.8230	46.2990
 0.8240	46.2570
 0.8250	46.1680
 0.8260	46.0900
 0.8270	46.0450
 0.8280	45.9670
 0.8290	45.8610
 0.8300	45.7620
 0.8310	45.6920
 0.8320	45.5980
 0.8330	45.5290
 0.8340	45.4730
 0.8350	45.4060
 0.8360	45.4060
 0.8370	45.3750
 0.8380	45.3090
 0.8390	45.2840
 0.8400	45.2870
 0.8410	45.2690
 0.8420	45.2200
 0.8430	45.1930
 0.8440	45.1820
 0.8450	45.1760
 0.8460	45.1630
 0.8470	45.1430
 0.8480	45.0870
 0.8490	45.0440
 0.8500	45.0620
 0.8510	45.0650
 0.8520	45.0510
 0.8530	45.0340
 0.8540	45.0340
 0.8550	45.0260
 0.8560	45.0030
 0.8570	44.9760
 0.8580	44.9720
 0.8590	44.9980
 0.8600	44.9930
 0.8610	44.9400
 0.8620	44.8970
 0.8630	44.8700
 0.8640	44.8750
 0.8650	44.9110
 0.8660	44.9420
 0.8670	44.9160
 0.8680	44.8610
 0.8690	44.8320
 0.8700	44.8400
 0.8710	44.8130
 0.8720	44.7640
 0.8730	44.7430
 0.8740	44.7170
 0.8750	44.7190
 0.8760	44.7270
 0.8770	44.6760
 0.8780	44.6640
 0.8790	44.6380
 0.8800	44.5810
 0.8810	44.5560
 0.8820	44.5410
 0.8830	44.5280
 0.8840	44.5010
 0.8850	44.4140
 0.8860	44.3650
 0.8870	44.3590
 0.8880	44.3630
 0.8890	44.3460
 0.8900	44.3070
 0.8910	44.2680
 0.8920	44.2510
 0.8930	44.1960
 0.8940	44.1510
 0.8950	44.1500
 0.8960	44.1890
 0.8970	44.1170
 0.8980	44.0560
 0.8990	44.0450
 0.9000	44.0160
 0.9010	43.9870
 0.9020	43.9500
 0.9030	43.9030
 0.9040	43.8530
 0.9050	43.8130
 0.9060	43.7790
 0.9070	43.7440
 0.9080	43.6980
 0.9090	43.6410
 0.9100	43.5780
 0.9110	43.5170
 0.9120	43.4720
 0.9130	43.4250
 0.9140	43.3560
 0.9150	43.2610
 0.9160	43.1720
 0.9170	43.0950
 0.9180	43.0210
 0.9190	42.9310
 0.9200	42.7960
 0.9210	42.6530
 0.9220	42.5100
 0.9230	42.3590
 0.9240	42.2330
 0.9250	42.0610
 0.9260	41.8460
 0.9270	41.6450
 0.9280	41.4710
 0.9290	41.2830
 0.9300	41.0520
 0.9310	40.7810
 0.9320	40.5660
 0.9330	40.3620
 0.9340	40.1360
 0.9350	39.8860
 0.9360	39.5920
 0.9370	39.3290
 0.9380	39.1130
 0.9390	38.8520
 0.9400	38.5580
 0.9410	38.2610
 0.9420	37.9780
 0.9430	37.7030
 0.9440	37.4000
 0.9450	37.0800
 0.9460	36.7690
 0.9470	36.4880
 0.9480	36.1740
 0.9490	35.8060
 0.9500	35.4140
 0.9510	35.1150
 0.9520	34.7500
 0.9530	34.3740
 0.9540	34.0500
 0.9550	33.6630
 0.9560	33.3480
 0.9570	33.0920
 0.9580	32.8510
 0.9590	32.6590
 0.9600	32.4590
 0.9610	32.2690
 0.9620	32.1350
 0.9630	32.0830
 0.9640	31.9820
 0.9650	31.8470
 0.9660	31.7510
 0.9670	31.6860
 0.9680	31.6540
 0.9690	31.6270
 0.9700	31.5720
 0.9710	31.4850
 0.9720	31.4770
 0.9730	31.4990
 0.9740	31.4560
 0.9750	31.4430
 0.9760	31.4160
 0.9770	31.3880
 0.9780	31.3980
 0.9790	31.4590
 0.9800	31.4180
 0.9810	31.3490
 0.9820	31.3990
 0.9830	31.4430
 0.9840	31.4570
 0.9850	31.4690
 0.9860	31.5160
 0.9870	31.5300
 0.9880	31.6370
 0.9890	31.7150
 0.9900	31.6170
 0.9910	31.6930
 0.9920	31.8160
 0.9930	31.8780
 0.9940	31.8410
 0.9950	31.8590
 0.9960	32.0210
 0.9970	32.2130
 0.9980	32.2770
 0.9990	32.3140
 1.0000	32.3330
 1.0010	32.2650
 1.0020	32.3840
 1.0030	32.4970
 1.0040	32.6160
 1.0050	32.7500
 1.0060	32.8580
 1.0070	32.9720
 1.0080	33.0850
 1.0090	33.1900
 1.0100	33.3020
 1.0110	33.4100
 1.0120	33.5330
 1.0130	33.6780
 1.0140	33.8050
 1.0150	33.9290
 1.0160	34.0590
 1.0170	34.2000
 1.0180	34.3190
 1.0190	34.4450
 1.0200	34.5870
 1.0210	34.7170
 1.0220	34.8620
 1.0230	35.0170
 1.0240	35.2000
 1.0250	35.3570
 1.0260	35.5180
 1.0270	35.6560
 1.0280	35.7670
 1.0290	35.8970
 1.0300	36.0140
 1.0310	36.1420
 1.0320	36.2850
 1.0330	36.4240
 1.0340	36.5590
 1.0350	36.7100
 1.0360	36.8300
 1.0370	36.9580
 1.0380	37.0910
 1.0390	37.2150
 1.0400	37.3460
 1.0410	37.4980
 1.0420	37.6320
 1.0430	37.7600
 1.0440	37.8810
 1.0450	38.0000
 1.0460	38.1050
 1.0470	38.1880
 1.0480	38.2850
 1.0490	38.3910
 1.0500	38.4790
 1.0510	38.5630
 1.0520	38.6470
 1.0530	38.7220
 1.0540	38.7740
 1.0550	38.8470
 1.0560	38.9330
 1.0570	39.0060
 1.0580	39.0860
 1.0590	39.1450
 1.0600	39.1850
 1.0610	39.2340
 1.0620	39.2820
 1.0630	39.3170
 1.0640	39.3400
 1.0650	39.3730
 1.0660	39.4040
 1.0670	39.4250
 1.0680	39.4450
 1.0690	39.4800
 1.0700	39.4850
 1.0710	39.4640
 1.0720	39.4600
 1.0730	39.4580
 1.0740	39.4450
 1.0750	39.4400
 1.0760	39.4100
 1.0770	39.3600
 1.0780	39.3110
 1.0790	39.2350
 1.0800	39.1860
 1.0810	39.1530
 1.0820	39.1080
 1.0830	39.0800
 1.0840	39.0330
 1.0850	38.9650
 1.0860	38.8980
 1.0870	38.8220
 1.0880	38.7360
 1.0890	38.6550
 1.0900	38.5710
 1.0910	38.4820
 1.0920	38.3930
 1.0930	38.2980
 1.0940	38.1890
 1.0950	38.0940
 1.0960	38.0020
 1.0970	37.9100
 1.0980	37.8330
 1.0990	37.7380
 1.1000	37.6300
 1.1010	37.5260
 1.1020	37.4110
 1.1030	37.3010
 1.1040	37.2040
 1.1050	37.0960
 1.1060	36.9930
 1.1070	36.8950
 1.1080	36.7840
 1.1090	36.6710
 1.1100	36.5510
 1.1110	36.4140
 1.1120	36.2940
 1.1130	36.1850
 1.1140	36.0620
 1.1150	35.9500
 1.1160	35.8180
 1.1170	35.6730
 1.1180	35.5200
 1.1190	35.3640
 1.1200	35.1890
 1.1210	35.0030
 1.1220	34.8110
 1.1230	34.6120
 1.1240	34.3980
 1.1250	34.1700
 1.1260	33.9470
 1.1270	33.6690
 1.1280	33.3580
 1.1290	33.0370
 1.1300	32.6780
 1.1310	32.3170
 1.1320	31.9530
 1.1330	31.5660
 1.1340	31.1520
 1.1350	30.7370
 1.1360	30.3070
 1.1370	29.8760
 1.1380	29.4400
 1.1390	29.0190
 1.1400	28.6060
 1.1410	28.2080
 1.1420	27.8290
 1.1430	27.4580
 1.1440	27.1040
 1.1450	26.7550
 1.1460	26.4360
 1.1470	26.1340
 1.1480	25.8560
 1.1490	25.6030
 1.1500	25.3750
 1.1510	25.1720
 1.1520	24.9830
 1.1530	24.8180
 1.1540	24.6640
 1.1550	24.5220
 1.1560	24.3960
 1.1570	24.2970
 1.1580	24.2110
 1.1590	24.1350
 1.1600	24.0720
 1.1610	24.0000
 1.1620	23.9300
 1.1630	23.8740
 1.1640	23.8250
 1.1650	23.7770
 1.1660	23.7360
 1.1670	23.6980
 1.1680	23.6600
 1.1690	23.6290
 1.1700	23.6080
 1.1710	23.5860
 1.1720	23.5670
 1.1730	23.5450
 1.1740	23.5260
 1.1750	23.4970
 1.1760	23.4680
 1.1770	23.4400
 1.1780	23.4070
 1.1790	23.3840
 1.1800	23.3660
 1.1810	23.3520
 1.1820	23.3410
 1.1830	23.3230
 1.1840	23.2960
 1.1850	23.2710
 1.1860	23.2490
 1.1870	23.2240
 1.1880	23.2010
 1.1890	23.1810
 1.1900	23.1590
 1.1910	23.1310
 1.1920	23.1160
 1.1930	23.1070
 1.1940	23.0990
 1.1950	23.1010
 1.1960	23.0970
 1.1970	23.0880
 1.1980	23.0890
 1.1990	23.0870
 1.2000	23.0820
 1.2010	23.0860
 1.2020	23.0910
 1.2030	23.0940
 1.2040	23.1050
 1.2050	23.1130
 1.2060	23.1140
 1.2070	23.1220
 1.2080	23.1260
 1.2090	23.1320
 1.2100	23.1490
 1.2110	23.1630
 1.2120	23.1770
 1.2130	23.1920
 1.2140	23.2060
 1.2150	23.2230
 1.2160	23.2480
 1.2170	23.2640
 1.2180	23.2750
 1.2190	23.2870
 1.2200	23.2940
 1.2210	23.3170
 1.2220	23.3530
 1.2230	23.3870
 1.2240	23.4200
 1.2250	23.4390
 1.2260	23.4520
 1.2270	23.4700
 1.2280	23.4840
 1.2290	23.5080
 1.2300	23.5400
 1.2310	23.5670
 1.2320	23.5900
 1.2330	23.6040
 1.2340	23.6190
 1.2350	23.6230
 1.2360	23.6360
 1.2370	23.6490
 1.2380	23.6710
 1.2390	23.6970
 1.2400	23.7220
 1.2410	23.7450
 1.2420	23.7700
 1.2430	23.7930
 1.2440	23.8050
 1.2450	23.8220
 1.2460	23.8440
 1.2470	23.8570
 1.2480	23.8830
 1.2490	23.9100
 1.2500	23.9270
 1.2510	23.9410
 1.2520	23.9470
 1.2530	23.9580
 1.2540	23.9730
 1.2550	23.9900
 1.2560	24.0060
 1.2570	24.0220
 1.2580	24.0310
 1.2590	24.0410
 1.2600	24.0550
 1.2610	24.0570
 1.2620	24.0510
 1.2630	24.0470
 1.2640	24.0440
 1.2650	24.0360
 1.2660	24.0370
 1.2670	24.0390
 1.2680	24.0310
 1.2690	24.0260
 1.2700	24.0240
 1.2710	24.0090
 1.2720	23.9910
 1.2730	23.9740
 1.2740	23.9470
 1.2750	23.9250
 1.2760	23.9090
 1.2770	23.8770
 1.2780	23.8390
 1.2790	23.8020
 1.2800	23.7670
 1.2810	23.7370
 1.2820	23.7090
 1.2830	23.6710
 1.2840	23.6250
 1.2850	23.5780
 1.2860	23.5270
 1.2870	23.4760
 1.2880	23.4300
 1.2890	23.3810
 1.2900	23.3240
 1.2910	23.2700
 1.2920	23.2140
 1.2930	23.1480
 1.2940	23.0730
 1.2950	22.9960
 1.2960	22.9170
 1.2970	22.8400
 1.2980	22.7730
 1.2990	22.7040
 1.3000	22.6270
 1.3010	22.5510
 1.3020	22.4720
 1.3030	22.3850
 1.3040	22.3010
 1.3050	22.2220
 1.3060	22.1360
 1.3070	22.0510
 1.3080	21.9620
 1.3090	21.8610
 1.3100	21.7600
 1.3110	21.6590
 1.3120	21.5560
 1.3130	21.4440
 1.3140	21.3340
 1.3150	21.2250
 1.3160	21.1120
 1.3170	20.9970
 1.3180	20.8850
 1.3190	20.7630
 1.3200	20.6350
 1.3210	20.5100
 1.3220	20.3910
 1.3230	20.2840
 1.3240	20.1720
 1.3250	20.0520
 1.3260	19.9290
 1.3270	19.8030
 1.3280	19.6770
 1.3290	19.5480
 1.3300	19.4250
 1.3310	19.3040
 1.3320	19.1810
 1.3330	19.0700
 1.3340	18.9650
 1.3350	18.8520
 1.3360	18.7410
 1.3370	18.6310
 1.3380	18.5140
 1.3390	18.4040
 1.3400	18.2970
 1.3410	18.1960
 1.3420	18.1030
 1.3430	18.0030
 1.3440	17.9070
 1.3450	17.8090
 1.3460	17.7050
 1.3470	17.6090
 1.3480	17.5150
 1.3490	17.4260
 1.3500	17.3420
 1.3510	17.2640
 1.3520	17.1860
 1.3530	17.1100
 1.3540	17.0330
 1.3550	16.9500
 1.3560	16.8690
 1.3570	16.7900
 1.3580	16.7120
 1.3590	16.6360
 1.3600	16.5530
 1.3610	16.4630
 1.3620	16.3670
 1.3630	16.2680
 1.3640	16.1700
 1.3650	16.0740
 1.3660	15.9800
 1.3670	15.8820
 1.3680	15.7750
 1.3690	15.6580
 1.3700	15.5300
 1.3710	15.3910
 1.3720	15.2460
 1.3730	15.0990
 1.3740	14.9440
 1.3750	14.7810
 1.3760	14.6070
 1.3770	14.4190
 1.3780	14.2230
 1.3790	14.0220
 1.3800	13.8120
 1.3810	13.5990
 1.3820	13.3820
 1.3830	13.1570
 1.3840	12.9310
 1.3850	12.7000
 1.3860	12.4720
 1.3870	12.2430
 1.3880	12.0140
 1.3890	11.7830
 1.3900	11.5600
 1.3910	11.3380
 1.3920	11.1240
 1.3930	10.9230
 1.3940	10.7270
 1.3950	10.5350
 1.3960	10.3500
 1.3970	10.1710
 1.3980	 9.9990
 1.3990	 9.8410
 1.4000	 9.6940
 1.4010	 9.5570
 1.4020	 9.4300
 1.4030	 9.3120
 1.4040	 9.2000
 1.4050	 9.0950
 1.4060	 8.9990
 1.4070	 8.9120
 1.4080	 8.8320
 1.4090	 8.7580
 1.4100	 8.6890
 1.4110	 8.6230
 1.4120	 8.5650
 1.4130	 8.5110
 1.4140	 8.4650
 1.4150	 8.4250
 1.4160	 8.3880
 1.4170	 8.3550
 1.4180	 8.3200
 1.4190	 8.2850
 1.4200	 8.2500
 1.4210	 8.2160
 1.4220	 8.1860
 1.4230	 8.1570
 1.4240	 8.1380
 1.4250	 8.1170
 1.4260	 8.0970
 1.4270	 8.0760
 1.4280	 8.0540
 1.4290	 8.0360
 1.4300	 8.0190
 1.4310	 8.0060
 1.4320	 7.9970
 1.4330	 7.9860
 1.4340	 7.9730
 1.4350	 7.9610
 1.4360	 7.9480
 1.4370	 7.9390
 1.4380	 7.9300
 1.4390	 7.9240
 1.4400	 7.9180
 1.4410	 7.9100
 1.4420	 7.9030
 1.4430	 7.8960
 1.4440	 7.8900
 1.4450	 7.8870
 1.4460	 7.8830
 1.4470	 7.8800
 1.4480	 7.8800
 1.4490	 7.8800
 1.4500	 7.8780
 1.4510	 7.8750
 1.4520	 7.8710
 1.4530	 7.8660
 1.4540	 7.8630
 1.4550	 7.8670
 1.4560	 7.8700
 1.4570	 7.8720
 1.4580	 7.8770
 1.4590	 7.8800
 1.4600	 7.8820
 1.4610	 7.8880
 1.4620	 7.8970
 1.4630	 7.9050
 1.4640	 7.9150
 1.4650	 7.9240
 1.4660	 7.9320
 1.4670	 7.9400
 1.4680	 7.9460
 1.4690	 7.9530
 1.4700	 7.9620
 1.4710	 7.9750
 1.4720	 7.9910
 1.4730	 8.0090
 1.4740	 8.0280
 1.4750	 8.0450
 1.4760	 8.0640
 1.4770	 8.0830
 1.4780	 8.0970
 1.4790	 8.1140
 1.4800	 8.1310
 1.4810	 8.1470
 1.4820	 8.1700
 1.4830	 8.1970
 1.4840	 8.2180
 1.4850	 8.2390
 1.4860	 8.2570
 1.4870	 8.2710
 1.4880	 8.2910
 1.4890	 8.3130
 1.4900	 8.3380
 1.4910	 8.3680
 1.4920	 8.3940
 1.4930	 8.4200
 1.4940	 8.4450
 1.4950	 8.4660
 1.4960	 8.4930
 1.4970	 8.5230
 1.4980	 8.5520
 1.4990	 8.5820
 1.5000	 8.6100
 1.5010	 8.6340
 1.5020	 8.6610
 1.5030	 8.6890
 1.5040	 8.7210
 1.5050	 8.7590
 1.5060	 8.7890
 1.5070	 8.8180
 1.5080	 8.8470
 1.5090	 8.8700
 1.5100	 8.8970
 1.5110	 8.9320
 1.5120	 8.9670
 1.5130	 8.9990
 1.5140	 9.0300
 1.5150	 9.0600
 1.5160	 9.0880
 1.5170	 9.1220
 1.5180	 9.1610
 1.5190	 9.1930
 1.5200	 9.2260
 1.5210	 9.2580
 1.5220	 9.2890
 1.5230	 9.3220
 1.5240	 9.3560
 1.5250	 9.3900
 1.5260	 9.4230
 1.5270	 9.4590
 1.5280	 9.5000
 1.5290	 9.5410
 1.5300	 9.5740
 1.5310	 9.6080
 1.5320	 9.6410
 1.5330	 9.6730
 1.5340	 9.7110
 1.5350	 9.7480
 1.5360	 9.7860
 1.5370	 9.8250
 1.5380	 9.8610
 1.5390	 9.8970
 1.5400	 9.9290
 1.5410	 9.9630
 1.5420	 9.9960
 1.5430	10.0310
 1.5440	10.0710
 1.5450	10.1040
 1.5460	10.1400
 1.5470	10.1810
 1.5480	10.2150
 1.5490	10.2490
 1.5500	10.2810
 1.5510	10.3070
 1.5520	10.3400
 1.5530	10.3790
 1.5540	10.4170
 1.5550	10.4590
 1.5560	10.4990
 1.5570	10.5340
 1.5580	10.5700
 1.5590	10.6070
 1.5600	10.6440
 1.5610	10.6790
 1.5620	10.7130
 1.5630	10.7480
 1.5640	10.7800
 1.5650	10.8150
 1.5660	10.8510
 1.5670	10.8830
 1.5680	10.9180
 1.5690	10.9530
 1.5700	10.9840
 1.5710	11.0180
 1.5720	11.0490
 1.5730	11.0740
 1.5740	11.1010
 1.5750	11.1320
 1.5760	11.1640
 1.5770	11.1990
 1.5780	11.2410
 1.5790	11.2750
 1.5800	11.3050
 1.5810	11.3360
 1.5820	11.3610
 1.5830	11.3890
 1.5840	11.4220
 1.5850	11.4510
 1.5860	11.4800
 1.5870	11.5050
 1.5880	11.5290
 1.5890	11.5560
 1.5900	11.5840
 1.5910	11.6150
 1.5920	11.6430
 1.5930	11.6690
 1.5940	11.6960
 1.5950	11.7220
 1.5960	11.7520
 1.5970	11.7790
 1.5980	11.8030
 1.5990	11.8240
 1.6000	11.8440
 1.6010	11.8620
 1.6020	11.8840
 1.6030	11.9110
 1.6040	11.9340
 1.6050	11.9600
 1.6060	11.9860
 1.6070	12.0090
 1.6080	12.0360
 1.6090	12.0600
 1.6100	12.0830
 1.6110	12.1060
 1.6120	12.1290
 1.6130	12.1540
 1.6140	12.1740
 1.6150	12.1940
 1.6160	12.2130
 1.6170	12.2270
 1.6180	12.2430
 1.6190	12.2560
 1.6200	12.2710
 1.6210	12.2920
 1.6220	12.3100
 1.6230	12.3350
 1.6240	12.3620
 1.6250	12.3810
 1.6260	12.4020
 1.6270	12.4190
 1.6280	12.4350
 1.6290	12.4510
 1.6300	12.4650
 1.6310	12.4790
 1.6320	12.4860
 1.6330	12.4990
 1.6340	12.5150
 1.6350	12.5290
 1.6360	12.5450
 1.6370	12.5640
 1.6380	12.5840
 1.6390	12.6030
 1.6400	12.6260
 1.6410	12.6400
 1.6420	12.6470
 1.6430	12.6570
 1.6440	12.6640
 1.6450	12.6780
 1.6460	12.6890
 1.6470	12.7020
 1.6480	12.7110
 1.6490	12.7190
 1.6500	12.7310
 1.6510	12.7390
 1.6520	12.7500
 1.6530	12.7580
 1.6540	12.7640
 1.6550	12.7760
 1.6560	12.7880
 1.6570	12.7970
 1.6580	12.8030
 1.6590	12.8070
 1.6600	12.8080
 1.6610	12.8100
 1.6620	12.8160
 1.6630	12.8210
 1.6640	12.8250
 1.6650	12.8260
 1.6660	12.8220
 1.6670	12.8210
 1.6680	12.8260
 1.6690	12.8310
 1.6700	12.8380
 1.6710	12.8450
 1.6720	12.8440
 1.6730	12.8510
 1.6740	12.8590
 1.6750	12.8590
 1.6760	12.8610
 1.6770	12.8600
 1.6780	12.8560
 1.6790	12.8540
 1.6800	12.8490
 1.6810	12.8410
 1.6820	12.8340
 1.6830	12.8270
 1.6840	12.8190
 1.6850	12.8070
 1.6860	12.8000
 1.6870	12.7940
 1.6880	12.7820
 1.6890	12.7730
 1.6900	12.7630
 1.6910	12.7560
 1.6920	12.7460
 1.6930	12.7350
 1.6940	12.7220
 1.6950	12.7040
 1.6960	12.6920
 1.6970	12.6850
 1.6980	12.6750
 1.6990	12.6670
 1.7000	12.6540
 1.7010	12.6370
 1.7020	12.6210
 1.7030	12.6010
 1.7040	12.5850
 1.7050	12.5720
 1.7060	12.5540
 1.7070	12.5350
 1.7080	12.5160
 1.7090	12.4920
 1.7100	12.4740
 1.7110	12.4600
 1.7120	12.4530
 1.7130	12.4420
 1.7140	12.4260
 1.7150	12.4070
 1.7160	12.3770
 1.7170	12.3450
 1.7180	12.3170
 1.7190	12.2910
 1.7200	12.2680
 1.7210	12.2450
 1.7220	12.2230
 1.7230	12.1990
 1.7240	12.1670
 1.7250	12.1370
 1.7260	12.1160
 1.7270	12.0970
 1.7280	12.0830
 1.7290	12.0720
 1.7300	12.0410
 1.7310	12.0120
 1.7320	11.9750
 1.7330	11.9490
 1.7340	11.9310
 1.7350	11.9080
 1.7360	11.8890
 1.7370	11.8650
 1.7380	11.8310
 1.7390	11.8030
 1.7400	11.7740
 1.7410	11.7490
 1.7420	11.7260
 1.7430	11.7000
 1.7440	11.6730
 1.7450	11.6490
 1.7460	11.6250
 1.7470	11.5980
 1.7480	11.5730
 1.7490	11.5430
 1.7500	11.5050
 1.7510	11.4690
 1.7520	11.4330
 1.7530	11.3960
 1.7540	11.3560
 1.7550	11.3200
 1.7560	11.2900
 1.7570	11.2710
 1.7580	11.2460
 1.7590	11.2220
 1.7600	11.1950
 1.7610	11.1630
 1.7620	11.1300
 1.7630	11.0860
 1.7640	11.0550
 1.7650	11.0270
 1.7660	11.0040
 1.7670	10.9970
 1.7680	10.9810
 1.7690	10.9600
 1.7700	10.9390
 1.7710	10.9130
 1.7720	10.8920
 1.7730	10.8740
 1.7740	10.8560
 1.7750	10.8430
 1.7760	10.8240
 1.7770	10.7990
 1.7780	10.7800
 1.7790	10.7580
 1.7800	10.7450
 1.7810	10.7400
 1.7820	10.7330
 1.7830	10.7290
 1.7840	10.7200
 1.7850	10.7100
 1.7860	10.7000
 1.7870	10.6890
 1.7880	10.6740
 1.7890	10.6670
 1.7900	10.6660
 1.7910	10.6610
 1.7920	10.6580
 1.7930	10.6540
 1.7940	10.6400
 1.7950	10.6370
 1.7960	10.6430
 1.7970	10.6450
 1.7980	10.6490
 1.7990	10.6540
 1.8000	10.6580
 1.8010	10.6610
 1.8020	10.6660
 1.8030	10.6680
 1.8040	10.6650
 1.8050	10.6640
 1.8060	10.6650
 1.8070	10.6630
 1.8080	10.6610
 1.8090	10.6550
 1.8100	10.6420
 1.8110	10.6450
 1.8120	10.6530
 1.8130	10.6760
 1.8140	10.6930
 1.8150	10.6850
 1.8160	10.6650
 1.8170	10.6410
 1.8180	10.6270
 1.8190	10.6310
 1.8200	10.6370
 1.8210	10.6560
 1.8220	10.6610
 1.8230	10.6720
 1.8240	10.6620
 1.8250	10.6140
 1.8260	10.6030
 1.8270	10.6050
 1.8280	10.5980
 1.8290	10.6140
 1.8300	10.6050
 1.8310	10.1410
 1.8320	10.1360
 1.8330	10.1390
 1.8340	10.1270
 1.8350	10.1330
 1.8360	10.1150
 1.8370	10.0860
 1.8380	10.0670
 1.8390	10.0310
 1.8400	 9.9790
 1.8410	 9.9320
 1.8420	 9.8730
 1.8430	 9.8260
 1.8440	 9.7970
 1.8450	 9.7620
 1.8460	 9.7380
 1.8470	 9.7120
 1.8480	 9.6670
 1.8490	 9.6230
 1.8500	 9.5770
 1.8510	 9.5310
 1.8520	 9.4740
 1.8530	 9.4100
 1.8540	 9.3480
 1.8550	 9.2720
 1.8560	 9.1890
 1.8570	 9.1130
 1.8580	 9.0400
 1.8590	 8.9640
 1.8600	 8.8860
 1.8610	 8.8070
 1.8620	 8.7300
 1.8630	 8.6440
 1.8640	 8.5520
 1.8650	 8.4770
 1.8660	 8.3900
 1.8670	 8.2720
 1.8680	 8.1670
 1.8690	 8.0680
 1.8700	 7.9600
 1.8710	 7.8490
 1.8720	 7.7520
 1.8730	 7.6460
 1.8740	 7.5310
 1.8750	 7.4100
 1.8760	 7.3070
 1.8770	 7.2240
 1.8780	 7.1370
 1.8790	 7.0670
 1.8800	 6.9960
 1.8810	 6.9380
 1.8820	 6.8620
 1.8830	 6.7840
 1.8840	 6.7120
 1.8850	 6.6380
 1.8860	 6.5660
 1.8870	 6.5060
 1.8880	 6.4570
 1.8890	 6.4110
 1.8900	 6.3550
 1.8910	 6.3080
 1.8920	 6.2680
 1.8930	 6.2190
 1.8940	 6.1740
 1.8950	 6.1680
 1.8960	 6.1580
 1.8970	 6.1360
 1.8980	 6.1190
 1.8990	 6.0950
 1.9000	 6.0760
 1.9010	 6.0600
 1.9020	 6.0430
 1.9030	 6.0260
 1.9040	 6.0160
 1.9050	 6.0010
 1.9060	 5.9710
 1.9070	 5.9560
 1.9080	 5.9330
 1.9090	 5.9180
 1.9100	 5.9330
 1.9110	 5.9330
 1.9120	 5.9390
 1.9130	 5.9410
 1.9140	 5.9390
 1.9150	 5.9200
 1.9160	 5.9180
 1.9170	 5.9260
 1.9180	 5.9230
 1.9190	 5.9130
 1.9200	 5.9050
 1.9210	 5.8760
 1.9220	 5.8610
 1.9230	 5.8460
 1.9240	 5.8440
 1.9250	 5.8450
 1.9260	 5.8630
 1.9270	 5.8740
 1.9280	 5.8710
 1.9290	 5.8690
 1.9300	 5.8650
 1.9310	 5.8690
 1.9320	 5.8620
 1.9330	 5.8650
 1.9340	 5.8750
 1.9350	 5.8810
 1.9360	 5.8940
 1.9370	 5.8950
 1.9380	 5.8890
 1.9390	 5.8730
 1.9400	 5.8550
 1.9410	 5.8590
 1.9420	 5.8700
 1.9430	 5.8660
 1.9440	 5.8690
 1.9450	 5.8710
 1.9460	 5.8760
 1.9470	 5.8900
 1.9480	 5.9010
 1.9490	 5.9060
 1.9500	 5.9250
 1.9510	 5.9510
 1.9520	 5.9590
 1.9530	 5.9660
 1.9540	 5.9560
 1.9550	 5.9510
 1.9560	 5.9300
 1.9570	 5.9280
 1.9580	 5.9380
 1.9590	 5.9450
 1.9600	 5.9550
 1.9610	 5.9580
 1.9620	 5.9650
 1.9630	 5.9560
 1.9640	 5.9540
 1.9650	 5.9690
 1.9660	 5.9620
 1.9670	 5.9650
 1.9680	 5.9670
 1.9690	 5.9520
 1.9700	 5.9520
 1.9710	 5.9680
 1.9720	 5.9770
 1.9730	 5.9810
 1.9740	 6.0080
 1.9750	 6.0200
 1.9760	 6.0170
 1.9770	 6.0170
 1.9780	 6.0090
 1.9790	 6.0060
 1.9800	 5.9960
 1.9810	 5.9980
 1.9820	 6.0120
 1.9830	 6.0160
 1.9840	 6.0210
 1.9850	 6.0320
 1.9860	 6.0420
 1.9870	 6.0450
 1.9880	 6.0630
 1.9890	 6.0790
 1.9900	 6.0900
 1.9910	 6.0880
 1.9920	 6.0920
 1.9930	 6.0970
 1.9940	 6.0950
 1.9950	 6.0820
 1.9960	 6.0850
 1.9970	 6.0870
 1.9980	 6.0930
 1.9990	 6.0980
 2.0000	 6.1330
 2.0010	 6.1580
 2.0020	 6.1810
 2.0030	 6.2030
 2.0040	 6.2080
 2.0050	 6.2100
 2.0060	 6.1810
 2.0070	 6.1860
 2.0080	 6.2020
 2.0090	 6.2180
 2.0100	 6.2680
 2.0110	 6.2830
 2.0120	 6.2730
 2.0130	 6.2760
 2.0140	 6.2720
 2.0150	 6.2460
 2.0160	 6.2840
 2.0170	 6.3070
 2.0180	 6.3200
 2.0190	 6.3480
 2.0200	 6.3520
 2.0210	 6.3220
 2.0220	 6.3190
 2.0230	 6.3160
 2.0240	 6.3200
 2.0250	 6.3400
 2.0260	 6.3510
 2.0270	 6.3580
 2.0280	 6.3690
 2.0290	 6.3780
 2.0300	 6.3830
 2.0310	 6.3960
 2.0320	 6.4180
 2.0330	 6.4320
 2.0340	 6.4500
 2.0350	 6.4610
 2.0360	 6.4660
 2.0370	 6.4730
 2.0380	 6.4840
 2.0390	 6.4860
 2.0400	 6.4750
 2.0410	 6.4710
 2.0420	 6.4530
 2.0430	 6.4550
 2.0440	 6.4650
 2.0450	 6.4920
 2.0460	 6.5080
 2.0470	 6.5350
 2.0480	 6.5430
 2.0490	 6.5310
 2.0500	 6.5320
 2.0510	 6.5240
 2.0520	 6.5320
 2.0530	 6.5500
 2.0540	 6.5690
 2.0550	 6.6010
 2.0560	 6.6310
 2.0570	 6.6300
 2.0580	 6.6380
 2.0590	 6.6410
 2.0600	 6.6210
 2.0610	 6.6270
 2.0620	 6.6560
 2.0630	 6.6640
 2.0640	 6.6750
 2.0650	 6.6760
 2.0660	 6.6520
 2.0670	 6.6510
 2.0680	 6.6520
 2.0690	 6.6650
 2.0700	 6.7130
 2.0710	 6.7350
 2.0720	 6.7440
 2.0730	 6.7620
 2.0740	 6.7810
 2.0750	 6.7870
 2.0760	 6.8070
 2.0770	 6.8560
 2.0780	 6.8690
 2.0790	 6.8550
 2.0800	 6.8640
 2.0810	 6.8750
 2.0820	 6.8790
 2.0830	 6.8920
 2.0840	 6.9060
 2.0850	 6.9070
 2.0860	 6.9160
 2.0870	 6.9380
 2.0880	 6.9630
 2.0890	 6.9740
 2.0900	 6.9720
 2.0910	 6.9880
 2.0920	 7.0100
 2.0930	 7.0220
 2.0940	 7.0420
 2.0950	 7.0510
 2.0960	 7.0390
 2.0970	 7.0460
 2.0980	 7.0650
 2.0990	 7.0760
 2.1000	 7.0990
 2.1010	 7.1070
 2.1020	 7.0920
 2.1030	 7.0950
 2.1040	 7.1060
 2.1050	 7.1080
 2.1060	 7.1120
 2.1070	 7.1230
 2.1080	 7.1330
 2.1090	 7.1310
 2.1100	 7.1460
 2.1110	 7.1830
 2.1120	 7.2040
 2.1130	 7.2210
 2.1140	 7.2430
 2.1150	 7.2640
 2.1160	 7.2810
 2.1170	 7.3100
 2.1180	 7.3210
 2.1190	 7.3090
 2.1200	 7.3130
 2.1210	 7.3190
 2.1220	 7.3250
 2.1230	 7.3370
 2.1240	 7.3640
 2.1250	 7.3850
 2.1260	 7.4040
 2.1270	 7.4190
 2.1280	 7.4450
 2.1290	 7.4460
 2.1300	 7.4190
 2.1310	 7.4220
 2.1320	 7.4260
 2.1330	 7.4360
 2.1340	 7.4740
 2.1350	 7.4930
 2.1360	 7.5070
 2.1370	 7.5120
 2.1380	 7.4980
 2.1390	 7.4970
 2.1400	 7.4920
 2.1410	 7.4860
 2.1420	 7.4990
 2.1430	 7.5380
 2.1440	 7.5480
 2.1450	 7.5540
 2.1460	 7.5580
 2.1470	 7.5450
 2.1480	 7.5410
 2.1490	 7.5410
 2.1500	 7.5430
 2.1510	 7.5470
 2.1520	 7.5480
 2.1530	 7.5520
 2.1540	 7.5540
 2.1550	 7.5330
 2.1560	 7.5410
 2.1570	 7.5740
 2.1580	 7.5960
 2.1590	 7.6410
 2.1600	 7.6750
 2.1610	 7.6580
 2.1620	 7.6420
 2.1630	 7.6380
 2.1640	 7.6170
 2.1650	 7.6220
 2.1660	 7.6540
 2.1670	 7.6690
 2.1680	 7.6830
 2.1690	 7.6970
 2.1700	 7.7210
 2.1710	 7.7230
 2.1720	 7.7060
 2.1730	 7.7030
 2.1740	 7.6870
 2.1750	 7.6830
 2.1760	 7.7040
 2.1770	 7.7070
 2.1780	 7.6960
 2.1790	 7.6990
 2.1800	 7.7080
 2.1810	 7.7100
 2.1820	 7.7170
 2.1830	 7.7340
 2.1840	 7.7190
 2.1850	 7.6760
 2.1860	 7.6630
 2.1870	 7.6390
 2.1880	 7.6410
 2.1890	 7.6730
 2.1900	 7.6850
 2.1910	 7.7020
 2.1920	 7.7100
 2.1930	 7.7100
 2.1940	 7.7120
 2.1950	 7.7100
 2.1960	 7.7130
 2.1970	 7.7160
 2.1980	 7.7240
 2.1990	 7.7520
 2.2000	 7.7530
 2.2010	 7.7440
 2.2020	 7.7290
 2.2030	 7.6600
 2.2040	 7.6440
 2.2050	 7.6550
 2.2060	 7.6900
 2.2070	 7.7110
 2.2080	 7.7710
 2.2090	 7.7840
 2.2100	 7.7640
 2.2110	 7.7530
 2.2120	 7.7240
 2.2130	 7.7260
 2.2140	 7.7440
 2.2150	 7.7420
 2.2160	 7.7520
 2.2170	 7.7510
 2.2180	 7.7150
 2.2190	 7.7100
 2.2200	 7.7350
 2.2210	 7.7380
 2.2220	 7.7390
 2.2230	 7.7400
 2.2240	 7.7220
 2.2250	 7.7210
 2.2260	 7.7320
 2.2270	 7.7380
 2.2280	 7.7520
 2.2290	 7.7570
 2.2300	 7.7480
 2.2310	 7.7550
 2.2320	 7.7410
 2.2330	 7.7150
 2.2340	 7.6900
 2.2350	 7.6410
 2.2360	 7.6370
 2.2370	 7.6610
 2.2380	 7.6600
 2.2390	 7.6800
 2.2400	 7.6810
 2.2410	 7.6470
 2.2420	 7.6430
 2.2430	 7.6610
 2.2440	 7.6620
 2.2450	 7.6660
 2.2460	 7.6570
 2.2470	 7.6260
 2.2480	 7.6160
 2.2490	 7.6160
 2.2500	 7.6020
 2.2510	 7.5880
 2.2520	 7.5760
 2.2530	 7.5510
 2.2540	 7.5290
 2.2550	 7.5110
 2.2560	 7.4970
 2.2570	 7.4700
 2.2580	 7.4650
 2.2590	 7.4970
 2.2600	 7.5020
 2.2610	 7.5080
 2.2620	 7.5050
 2.2630	 7.4680
 2.2640	 7.4540
 2.2650	 7.4380
 2.2660	 7.4400
 2.2670	 7.4500
 2.2680	 7.4830
 2.2690	 7.4870
 2.2700	 7.4920
 2.2710	 7.4840
 2.2720	 7.4530
 2.2730	 7.4390
 2.2740	 7.4320
 2.2750	 7.4180
 2.2760	 7.4150
 2.2770	 7.3810
 2.2780	 7.3240
 2.2790	 7.2810
 2.2800	 7.2120
 2.2810	 7.1810
 2.2820	 7.1710
 2.2830	 7.1680
 2.2840	 7.1920
 2.2850	 7.2010
 2.2860	 7.2100
 2.2870	 7.2230
 2.2880	 7.2350
 2.2890	 7.2470
 2.2900	 7.2880
 2.2910	 7.2900
 2.2920	 7.2500
 2.2930	 7.2340
 2.2940	 7.2020
 2.2950	 7.1820
 2.2960	 7.1920
 2.2970	 7.1900
 2.2980	 7.1870
 2.2990	 7.1670
 2.3000	 7.1610
 2.3010	 7.1730
 2.3020	 7.1760
 2.3030	 7.1670
 2.3040	 7.1430
 2.3050	 7.1080
 2.3060	 7.0740
 2.3070	 7.0300
 2.3080	 6.9960
 2.3090	 6.9810
 2.3100	 6.9670
 2.3110	 7.0020
 2.3120	 7.0280
 2.3130	 7.0770
 2.3140	 7.1000
 2.3150	 7.1200
 2.3160	 7.1210
 2.3170	 7.1040
 2.3180	 7.0880
 2.3190	 7.0580
 2.3200	 7.0460
 2.3210	 7.0410
 2.3220	 7.0360
 2.3230	 7.0530
 2.3240	 7.0370
 2.3250	 6.9840
 2.3260	 6.9670
 2.3270	 6.9400
 2.3280	 6.9290
 2.3290	 6.9570
 2.3300	 6.9660
 2.3310	 6.9600
 2.3320	 6.9800
 2.3330	 7.0290
 2.3340	 7.0380
 2.3350	 7.0390
 2.3360	 7.0370
 2.3370	 7.0010
 2.3380	 6.9870
 2.3390	 7.0030
 2.3400	 6.9820
 2.3410	 6.9130
 2.3420	 6.8810
 2.3430	 6.8390
 2.3440	 6.8280
 2.3450	 6.8920
 2.3460	 6.9020
 2.3470	 6.8930
 2.3480	 6.8870
 2.3490	 6.8290
 2.3500	 6.8150
 2.3510	 6.8420
 2.3520	 6.8440
 2.3530	 6.8450
 2.3540	 6.8700
 2.3550	 6.8540
 2.3560	 6.8560
 2.3570	 6.8720
 2.3580	 6.8400
 2.3590	 6.8190
 2.3600	 6.7770
 2.3610	 6.7260
 2.3620	 6.7180
 2.3630	 6.6910
 2.3640	 6.7220
 2.3650	 6.8140
 2.3660	 6.8390
 2.3670	 6.8450
 2.3680	 6.8520
 2.3690	 6.7680
 2.3700	 6.7080
 2.3710	 6.6840
 2.3720	 6.6530
 2.3730	 6.6900
 2.3740	 6.7710
 2.3750	 6.8370
 2.3760	 6.8480
 2.3770	 6.8400
 2.3780	 6.7780
 2.3790	 6.7230
 2.3800	 6.7470
 2.3810	 6.7340
 2.3820	 6.7020
 2.3830	 6.6910
 2.3840	 6.6530
 2.3850	 6.6090
 2.3860	 6.6380
 2.3870	 6.6770
 2.3880	 6.6850
 2.3890	 6.7510
 2.3900	 6.7570
 2.3910	 6.7200
 2.3920	 6.7510
 2.3930	 6.6830
 2.3940	 6.6160
 2.3950	 6.6270
 2.3960	 6.6160
 2.3970	 6.6830
 2.3980	 6.7170
 2.3990	 6.6790
 2.4000	 6.6760
 2.4010	 6.6490
 2.4020	 6.6330
 2.4030	 6.6250
 2.4040	 6.5770
 2.4050	 6.5030
 2.4060	 6.4570
 2.4070	 6.4350
 2.4080	 6.3430
 2.4090	 6.2310
 2.4100	 6.2020
 2.4110	 6.2420
 2.4120	 6.3080
 2.4130	 6.3820
 2.4140	 6.4030
 2.4150	 6.3350
 2.4160	 6.3250
 2.4170	 6.4090
 2.4180	 6.4480
 2.4190	 6.4760
 2.4200	 6.4290
 2.4210	 6.2860
 2.4220	 6.2040
 2.4230	 6.1860
 2.4240	 6.2040
 2.4250	 6.2450
 2.4260	 6.3040
 2.4270	 6.2920
 2.4280	 6.2390
 2.4290	 6.2830
 2.4300	 6.2700
 2.4310	 6.2830
 2.4320	 6.4160
 2.4330	 6.4970
 2.4340	 6.5850
 2.4350	 6.6650
 2.4360	 6.6280
 2.4370	 6.5830
 2.4380	 6.6100
 2.4390	 6.5260
 2.4400	 6.4550
 2.4410	 6.4510
 2.4420	 6.3530
 2.4430	 6.3830
 2.4440	 6.4640
 2.4450	 6.4160
 2.4460	 6.3140
 2.4470	 6.2080
 2.4480	 6.1420
 2.4490	 6.1250
 2.4500	 6.2050
 2.4510	 6.3290
 2.4520	 6.4300
 2.4530	 6.5330
 2.4540	 6.5650
 2.4550	 6.5790
 2.4560	 6.5350
 2.4570	 6.4640
 2.4580	 6.5390
 2.4590	 6.5120
 2.4600	 6.4170
 2.4610	 6.4640
 2.4620	 6.4260
 2.4630	 6.3170
 2.4640	 6.3440
 2.4650	 6.3380
 2.4660	 6.2250
 2.4670	 6.2220
 2.4680	 6.3080
 2.4690	 6.3370
 2.4700	 6.4480
 2.4710	 6.6810
 2.4720	 6.7150
 2.4730	 6.6910
 2.4740	 6.6240
 2.4750	 6.3310
 2.4760	 6.3100
 2.4770	 6.4620
 2.4780	 6.4700
 2.4790	 6.5080
 2.4800	 6.4830
 2.4810	 6.4550
 2.4820	 6.5620
 2.4830	 6.5290
 2.4840	 6.4900
 2.4850	 6.0070
 2.4860	 5.7320
 2.4870	 5.8520
 2.4880	 6.0380
 2.4890	 6.4040
 2.4900	 6.5790
 2.4910	 6.4740
 2.4920	 6.4940
 2.4930	 6.5750
 2.4940	 6.7120
 2.4950	 6.7430
 2.4960	 6.5990
 2.4970	 6.6470
 2.4980	 6.6970
 2.4990	 6.6580
 2.5000	 6.5820
