Name: Baccharis pilularis 3
Type: vegetation
Class: Shrub
Genus: Baccharis
Species: pilularis
Sample No.: VH047
Owner: UCSB
Wavelength Range: VSWIR
Origin: 34.5088; -119.7683; WGS84
Collection Date: 4/1/2013
Description: Samples were collected as part of the HyspIRI Airborne Campaign. 48 individual plants were sampled in three times in 2013 - spring  summer  and fall. The name of the sample includes a 1  2  or 3 which references a different individual of the species. Samples were taken to JPL and processed within 48 hours of collection. The same leaves were processed in the Nicolet and then measured using the ASD.
Measurement: Bidirectional reflectance
First Column: X
Second Column: Y
X Units: Wavelength (micrometers)
Y Units: Reflectance (percentage)
First X Value: 0.35
Last X Value: 2.5
Number of X Values: 2151
Additional Information: vegetation.shrub.baccharis.pilularis.vswir.vh047.ucsb.asd.ancillary.txt

 0.3500	 7.2770
 0.3510	 7.6620
 0.3520	 7.7230
 0.3530	 7.5670
 0.3540	 7.4390
 0.3550	 7.3710
 0.3560	 7.4210
 0.3570	 7.4650
 0.3580	 7.3430
 0.3590	 7.3870
 0.3600	 7.4420
 0.3610	 7.4320
 0.3620	 7.4540
 0.3630	 7.4120
 0.3640	 7.4040
 0.3650	 7.4900
 0.3660	 7.4230
 0.3670	 7.4490
 0.3680	 7.5110
 0.3690	 7.3750
 0.3700	 7.3340
 0.3710	 7.4050
 0.3720	 7.4970
 0.3730	 7.3880
 0.3740	 7.3600
 0.3750	 7.3990
 0.3760	 7.4060
 0.3770	 7.3560
 0.3780	 7.3190
 0.3790	 7.3110
 0.3800	 7.2960
 0.3810	 7.2790
 0.3820	 7.2550
 0.3830	 7.2380
 0.3840	 7.2890
 0.3850	 7.3060
 0.3860	 7.2820
 0.3870	 7.2490
 0.3880	 7.2490
 0.3890	 7.2820
 0.3900	 7.3100
 0.3910	 7.2700
 0.3920	 7.2970
 0.3930	 7.3100
 0.3940	 7.2580
 0.3950	 7.2790
 0.3960	 7.3170
 0.3970	 7.3310
 0.3980	 7.2930
 0.3990	 7.2360
 0.4000	 7.2190
 0.4010	 7.2410
 0.4020	 7.2300
 0.4030	 7.1840
 0.4040	 7.1670
 0.4050	 7.2150
 0.4060	 7.2420
 0.4070	 7.2390
 0.4080	 7.2160
 0.4090	 7.1940
 0.4100	 7.2030
 0.4110	 7.2060
 0.4120	 7.1890
 0.4130	 7.1920
 0.4140	 7.2170
 0.4150	 7.2310
 0.4160	 7.2120
 0.4170	 7.2420
 0.4180	 7.2620
 0.4190	 7.2570
 0.4200	 7.2550
 0.4210	 7.2760
 0.4220	 7.3020
 0.4230	 7.3160
 0.4240	 7.3360
 0.4250	 7.3640
 0.4260	 7.3940
 0.4270	 7.4190
 0.4280	 7.4390
 0.4290	 7.4730
 0.4300	 7.5180
 0.4310	 7.5410
 0.4320	 7.5620
 0.4330	 7.5820
 0.4340	 7.6010
 0.4350	 7.6330
 0.4360	 7.6670
 0.4370	 7.7050
 0.4380	 7.7580
 0.4390	 7.8050
 0.4400	 7.8460
 0.4410	 7.8820
 0.4420	 7.9080
 0.4430	 7.9400
 0.4440	 7.9740
 0.4450	 8.0030
 0.4460	 8.0400
 0.4470	 8.0730
 0.4480	 8.0980
 0.4490	 8.1230
 0.4500	 8.1450
 0.4510	 8.1680
 0.4520	 8.1970
 0.4530	 8.2340
 0.4540	 8.2570
 0.4550	 8.2700
 0.4560	 8.2900
 0.4570	 8.3100
 0.4580	 8.3300
 0.4590	 8.3480
 0.4600	 8.3460
 0.4610	 8.3560
 0.4620	 8.3710
 0.4630	 8.3760
 0.4640	 8.3790
 0.4650	 8.3930
 0.4660	 8.4140
 0.4670	 8.4140
 0.4680	 8.4210
 0.4690	 8.4230
 0.4700	 8.4110
 0.4710	 8.4250
 0.4720	 8.4380
 0.4730	 8.4400
 0.4740	 8.4340
 0.4750	 8.4410
 0.4760	 8.4490
 0.4770	 8.4510
 0.4780	 8.4480
 0.4790	 8.4590
 0.4800	 8.4720
 0.4810	 8.4700
 0.4820	 8.4710
 0.4830	 8.4720
 0.4840	 8.4710
 0.4850	 8.4680
 0.4860	 8.4730
 0.4870	 8.4820
 0.4880	 8.4940
 0.4890	 8.5120
 0.4900	 8.5220
 0.4910	 8.5270
 0.4920	 8.5350
 0.4930	 8.5480
 0.4940	 8.5680
 0.4950	 8.5920
 0.4960	 8.6040
 0.4970	 8.6180
 0.4980	 8.6400
 0.4990	 8.6690
 0.5000	 8.6970
 0.5010	 8.7250
 0.5020	 8.7520
 0.5030	 8.7820
 0.5040	 8.8190
 0.5050	 8.8650
 0.5060	 8.9170
 0.5070	 8.9550
 0.5080	 9.0000
 0.5090	 9.0550
 0.5100	 9.1170
 0.5110	 9.1930
 0.5120	 9.2680
 0.5130	 9.3380
 0.5140	 9.4170
 0.5150	 9.5110
 0.5160	 9.6110
 0.5170	 9.7110
 0.5180	 9.8240
 0.5190	 9.9440
 0.5200	10.0680
 0.5210	10.1980
 0.5220	10.3340
 0.5230	10.4640
 0.5240	10.5850
 0.5250	10.7140
 0.5260	10.8400
 0.5270	10.9610
 0.5280	11.0790
 0.5290	11.1940
 0.5300	11.3000
 0.5310	11.3960
 0.5320	11.4810
 0.5330	11.5610
 0.5340	11.6370
 0.5350	11.7080
 0.5360	11.7670
 0.5370	11.8210
 0.5380	11.8700
 0.5390	11.9090
 0.5400	11.9460
 0.5410	11.9800
 0.5420	12.0090
 0.5430	12.0350
 0.5440	12.0650
 0.5450	12.0980
 0.5460	12.1350
 0.5470	12.1780
 0.5480	12.2210
 0.5490	12.2550
 0.5500	12.2770
 0.5510	12.2890
 0.5520	12.2950
 0.5530	12.2960
 0.5540	12.2870
 0.5550	12.2660
 0.5560	12.2340
 0.5570	12.1950
 0.5580	12.1450
 0.5590	12.0890
 0.5600	12.0280
 0.5610	11.9580
 0.5620	11.8880
 0.5630	11.8190
 0.5640	11.7490
 0.5650	11.6650
 0.5660	11.5720
 0.5670	11.4770
 0.5680	11.3880
 0.5690	11.2880
 0.5700	11.1870
 0.5710	11.0940
 0.5720	11.0030
 0.5730	10.9200
 0.5740	10.8440
 0.5750	10.7700
 0.5760	10.7040
 0.5770	10.6410
 0.5780	10.5800
 0.5790	10.5180
 0.5800	10.4620
 0.5810	10.4120
 0.5820	10.3650
 0.5830	10.3250
 0.5840	10.2850
 0.5850	10.2450
 0.5860	10.2080
 0.5870	10.1690
 0.5880	10.1330
 0.5890	10.1050
 0.5900	10.0920
 0.5910	10.0860
 0.5920	10.0810
 0.5930	10.0780
 0.5940	10.0700
 0.5950	10.0610
 0.5960	10.0510
 0.5970	10.0350
 0.5980	10.0200
 0.5990	10.0050
 0.6000	 9.9890
 0.6010	 9.9670
 0.6020	 9.9470
 0.6030	 9.9280
 0.6040	 9.9000
 0.6050	 9.8730
 0.6060	 9.8410
 0.6070	 9.8020
 0.6080	 9.7630
 0.6090	 9.7210
 0.6100	 9.6680
 0.6110	 9.6000
 0.6120	 9.5590
 0.6130	 9.5300
 0.6140	 9.5000
 0.6150	 9.4660
 0.6160	 9.4320
 0.6170	 9.4000
 0.6180	 9.3700
 0.6190	 9.3440
 0.6200	 9.3190
 0.6210	 9.2960
 0.6220	 9.2810
 0.6230	 9.2640
 0.6240	 9.2450
 0.6250	 9.2280
 0.6260	 9.2200
 0.6270	 9.2140
 0.6280	 9.2070
 0.6290	 9.1950
 0.6300	 9.1870
 0.6310	 9.1820
 0.6320	 9.1760
 0.6330	 9.1690
 0.6340	 9.1640
 0.6350	 9.1560
 0.6360	 9.1420
 0.6370	 9.1230
 0.6380	 9.1020
 0.6390	 9.0790
 0.6400	 9.0550
 0.6410	 9.0310
 0.6420	 9.0050
 0.6430	 8.9780
 0.6440	 8.9470
 0.6450	 8.9170
 0.6460	 8.8870
 0.6470	 8.8560
 0.6480	 8.8240
 0.6490	 8.7950
 0.6500	 8.7700
 0.6510	 8.7500
 0.6520	 8.7240
 0.6530	 8.6960
 0.6540	 8.6680
 0.6550	 8.6450
 0.6560	 8.6200
 0.6570	 8.5910
 0.6580	 8.5600
 0.6590	 8.5250
 0.6600	 8.4910
 0.6610	 8.4600
 0.6620	 8.4310
 0.6630	 8.4020
 0.6640	 8.3760
 0.6650	 8.3540
 0.6660	 8.3320
 0.6670	 8.3140
 0.6680	 8.3010
 0.6690	 8.2900
 0.6700	 8.2810
 0.6710	 8.2750
 0.6720	 8.2700
 0.6730	 8.2690
 0.6740	 8.2730
 0.6750	 8.2800
 0.6760	 8.2880
 0.6770	 8.2980
 0.6780	 8.3100
 0.6790	 8.3230
 0.6800	 8.3370
 0.6810	 8.3570
 0.6820	 8.3830
 0.6830	 8.4140
 0.6840	 8.4480
 0.6850	 8.4920
 0.6860	 8.5450
 0.6870	 8.6040
 0.6880	 8.6770
 0.6890	 8.7640
 0.6900	 8.8690
 0.6910	 8.9970
 0.6920	 9.1490
 0.6930	 9.3290
 0.6940	 9.5400
 0.6950	 9.7850
 0.6960	10.0690
 0.6970	10.3940
 0.6980	10.7580
 0.6990	11.1630
 0.7000	11.6100
 0.7010	12.0960
 0.7020	12.6190
 0.7030	13.1780
 0.7040	13.7710
 0.7050	14.3940
 0.7060	15.0380
 0.7070	15.7110
 0.7080	16.4120
 0.7090	17.1370
 0.7100	17.8910
 0.7110	18.6700
 0.7120	19.4730
 0.7130	20.3000
 0.7140	21.1490
 0.7150	22.0190
 0.7160	22.9110
 0.7170	23.8160
 0.7180	24.7380
 0.7190	25.6780
 0.7200	26.6310
 0.7210	27.5960
 0.7220	28.5670
 0.7230	29.5410
 0.7240	30.5140
 0.7250	31.4850
 0.7260	32.4490
 0.7270	33.4010
 0.7280	34.3370
 0.7290	35.2500
 0.7300	36.1410
 0.7310	37.0140
 0.7320	37.8610
 0.7330	38.6820
 0.7340	39.4740
 0.7350	40.2360
 0.7360	40.9740
 0.7370	41.6810
 0.7380	42.3530
 0.7390	42.9920
 0.7400	43.6060
 0.7410	44.1890
 0.7420	44.7310
 0.7430	45.2530
 0.7440	45.7410
 0.7450	46.1940
 0.7460	46.6270
 0.7470	47.0300
 0.7480	47.4040
 0.7490	47.7530
 0.7500	48.0760
 0.7510	48.3820
 0.7520	48.6660
 0.7530	48.9210
 0.7540	49.1610
 0.7550	49.3810
 0.7560	49.5770
 0.7570	49.7540
 0.7580	49.9220
 0.7590	50.0800
 0.7600	50.2250
 0.7610	50.3570
 0.7620	50.4800
 0.7630	50.5940
 0.7640	50.6980
 0.7650	50.7960
 0.7660	50.8890
 0.7670	50.9720
 0.7680	51.0400
 0.7690	51.1010
 0.7700	51.1650
 0.7710	51.2330
 0.7720	51.2920
 0.7730	51.3430
 0.7740	51.3900
 0.7750	51.4350
 0.7760	51.4820
 0.7770	51.5270
 0.7780	51.5700
 0.7790	51.6130
 0.7800	51.6460
 0.7810	51.6790
 0.7820	51.7180
 0.7830	51.7550
 0.7840	51.7850
 0.7850	51.8120
 0.7860	51.8360
 0.7870	51.8540
 0.7880	51.8750
 0.7890	51.9030
 0.7900	51.9350
 0.7910	51.9620
 0.7920	51.9860
 0.7930	52.0070
 0.7940	52.0250
 0.7950	52.0400
 0.7960	52.0560
 0.7970	52.0750
 0.7980	52.0880
 0.7990	52.1010
 0.8000	52.1130
 0.8010	52.1240
 0.8020	52.1400
 0.8030	52.1480
 0.8040	52.1490
 0.8050	52.1540
 0.8060	52.1570
 0.8070	52.1590
 0.8080	52.1640
 0.8090	52.1780
 0.8100	52.1830
 0.8110	52.1860
 0.8120	52.1870
 0.8130	52.1730
 0.8140	52.1730
 0.8150	52.1770
 0.8160	52.1690
 0.8170	52.1650
 0.8180	52.1640
 0.8190	52.1610
 0.8200	52.1560
 0.8210	52.1500
 0.8220	52.1490
 0.8230	52.1480
 0.8240	52.1330
 0.8250	52.1200
 0.8260	52.1090
 0.8270	52.0980
 0.8280	52.0840
 0.8290	52.0730
 0.8300	52.0580
 0.8310	52.0350
 0.8320	52.0200
 0.8330	52.0150
 0.8340	52.0110
 0.8350	51.9980
 0.8360	51.9880
 0.8370	51.9880
 0.8380	51.9890
 0.8390	51.9720
 0.8400	51.9690
 0.8410	51.9700
 0.8420	51.9690
 0.8430	51.9700
 0.8440	51.9770
 0.8450	51.9860
 0.8460	51.9900
 0.8470	51.9860
 0.8480	51.9890
 0.8490	51.9980
 0.8500	52.0100
 0.8510	52.0110
 0.8520	52.0160
 0.8530	52.0230
 0.8540	52.0250
 0.8550	52.0240
 0.8560	52.0270
 0.8570	52.0310
 0.8580	52.0290
 0.8590	52.0330
 0.8600	52.0410
 0.8610	52.0520
 0.8620	52.0640
 0.8630	52.0710
 0.8640	52.0770
 0.8650	52.0830
 0.8660	52.0850
 0.8670	52.0910
 0.8680	52.1000
 0.8690	52.1120
 0.8700	52.1190
 0.8710	52.1200
 0.8720	52.1200
 0.8730	52.1280
 0.8740	52.1340
 0.8750	52.1410
 0.8760	52.1530
 0.8770	52.1720
 0.8780	52.1840
 0.8790	52.1920
 0.8800	52.1990
 0.8810	52.2120
 0.8820	52.2170
 0.8830	52.2200
 0.8840	52.2270
 0.8850	52.2360
 0.8860	52.2460
 0.8870	52.2530
 0.8880	52.2560
 0.8890	52.2570
 0.8900	52.2520
 0.8910	52.2510
 0.8920	52.2640
 0.8930	52.2570
 0.8940	52.2600
 0.8950	52.2690
 0.8960	52.2650
 0.8970	52.2640
 0.8980	52.2660
 0.8990	52.2640
 0.9000	52.2520
 0.9010	52.2540
 0.9020	52.2580
 0.9030	52.2580
 0.9040	52.2530
 0.9050	52.2490
 0.9060	52.2510
 0.9070	52.2550
 0.9080	52.2430
 0.9090	52.2370
 0.9100	52.2360
 0.9110	52.2380
 0.9120	52.2450
 0.9130	52.2410
 0.9140	52.2300
 0.9150	52.2210
 0.9160	52.2210
 0.9170	52.2180
 0.9180	52.2050
 0.9190	52.1830
 0.9200	52.1650
 0.9210	52.1520
 0.9220	52.1440
 0.9230	52.1360
 0.9240	52.1050
 0.9250	52.0660
 0.9260	52.0300
 0.9270	52.0070
 0.9280	51.9760
 0.9290	51.9370
 0.9300	51.8950
 0.9310	51.8600
 0.9320	51.8180
 0.9330	51.7740
 0.9340	51.7240
 0.9350	51.6590
 0.9360	51.5890
 0.9370	51.5200
 0.9380	51.4540
 0.9390	51.3890
 0.9400	51.3400
 0.9410	51.2720
 0.9420	51.1750
 0.9430	51.1010
 0.9440	51.0100
 0.9450	50.9140
 0.9460	50.8210
 0.9470	50.7100
 0.9480	50.5780
 0.9490	50.4380
 0.9500	50.3060
 0.9510	50.1780
 0.9520	50.0330
 0.9530	49.8710
 0.9540	49.6970
 0.9550	49.5220
 0.9560	49.3580
 0.9570	49.2060
 0.9580	49.0600
 0.9590	48.9060
 0.9600	48.7630
 0.9610	48.6390
 0.9620	48.5300
 0.9630	48.4230
 0.9640	48.3430
 0.9650	48.2740
 0.9660	48.1970
 0.9670	48.1350
 0.9680	48.0750
 0.9690	48.0190
 0.9700	47.9730
 0.9710	47.9350
 0.9720	47.8970
 0.9730	47.8650
 0.9740	47.8430
 0.9750	47.8090
 0.9760	47.7780
 0.9770	47.7670
 0.9780	47.7800
 0.9790	47.7490
 0.9800	47.7540
 0.9810	47.7760
 0.9820	47.7690
 0.9830	47.7980
 0.9840	47.8210
 0.9850	47.8330
 0.9860	47.8500
 0.9870	47.8820
 0.9880	47.9320
 0.9890	47.9880
 0.9900	48.0340
 0.9910	48.0620
 0.9920	48.1520
 0.9930	48.2430
 0.9940	48.3340
 0.9950	48.4250
 0.9960	48.5160
 0.9970	48.6070
 0.9980	48.6980
 0.9990	48.7890
 1.0000	48.8800
 1.0010	48.9710
 1.0020	49.0620
 1.0030	49.1530
 1.0040	49.2440
 1.0050	49.3350
 1.0060	49.4260
 1.0070	49.5160
 1.0080	49.6070
 1.0090	49.6980
 1.0100	49.6980
 1.0110	49.7580
 1.0120	49.8200
 1.0130	49.8790
 1.0140	49.9420
 1.0150	50.0090
 1.0160	50.0800
 1.0170	50.1480
 1.0180	50.2090
 1.0190	50.2670
 1.0200	50.3230
 1.0210	50.3780
 1.0220	50.4340
 1.0230	50.4930
 1.0240	50.5570
 1.0250	50.6150
 1.0260	50.6730
 1.0270	50.7260
 1.0280	50.7710
 1.0290	50.8220
 1.0300	50.8750
 1.0310	50.9270
 1.0320	50.9820
 1.0330	51.0320
 1.0340	51.0800
 1.0350	51.1260
 1.0360	51.1720
 1.0370	51.2150
 1.0380	51.2580
 1.0390	51.3000
 1.0400	51.3450
 1.0410	51.3910
 1.0420	51.4340
 1.0430	51.4810
 1.0440	51.5220
 1.0450	51.5590
 1.0460	51.5950
 1.0470	51.6300
 1.0480	51.6630
 1.0490	51.6930
 1.0500	51.7220
 1.0510	51.7480
 1.0520	51.7770
 1.0530	51.8040
 1.0540	51.8310
 1.0550	51.8580
 1.0560	51.8850
 1.0570	51.9100
 1.0580	51.9350
 1.0590	51.9570
 1.0600	51.9780
 1.0610	51.9970
 1.0620	52.0170
 1.0630	52.0320
 1.0640	52.0430
 1.0650	52.0550
 1.0660	52.0620
 1.0670	52.0710
 1.0680	52.0810
 1.0690	52.0950
 1.0700	52.1020
 1.0710	52.1070
 1.0720	52.1120
 1.0730	52.1130
 1.0740	52.1160
 1.0750	52.1190
 1.0760	52.1200
 1.0770	52.1190
 1.0780	52.1150
 1.0790	52.1070
 1.0800	52.1010
 1.0810	52.0950
 1.0820	52.0850
 1.0830	52.0750
 1.0840	52.0640
 1.0850	52.0500
 1.0860	52.0370
 1.0870	52.0230
 1.0880	52.0110
 1.0890	51.9930
 1.0900	51.9720
 1.0910	51.9510
 1.0920	51.9290
 1.0930	51.9060
 1.0940	51.8840
 1.0950	51.8580
 1.0960	51.8280
 1.0970	51.7980
 1.0980	51.7670
 1.0990	51.7350
 1.1000	51.7040
 1.1010	51.6710
 1.1020	51.6390
 1.1030	51.6060
 1.1040	51.5710
 1.1050	51.5350
 1.1060	51.4950
 1.1070	51.4520
 1.1080	51.4090
 1.1090	51.3650
 1.1100	51.3180
 1.1110	51.2680
 1.1120	51.2150
 1.1130	51.1620
 1.1140	51.1040
 1.1150	51.0440
 1.1160	50.9760
 1.1170	50.9050
 1.1180	50.8260
 1.1190	50.7440
 1.1200	50.6520
 1.1210	50.5580
 1.1220	50.4530
 1.1230	50.3360
 1.1240	50.2120
 1.1250	50.0750
 1.1260	49.9260
 1.1270	49.7650
 1.1280	49.5960
 1.1290	49.4100
 1.1300	49.2150
 1.1310	49.0010
 1.1320	48.7710
 1.1330	48.5290
 1.1340	48.2700
 1.1350	47.9990
 1.1360	47.7170
 1.1370	47.4220
 1.1380	47.1160
 1.1390	46.8000
 1.1400	46.4720
 1.1410	46.1440
 1.1420	45.8110
 1.1430	45.4780
 1.1440	45.1490
 1.1450	44.8170
 1.1460	44.4970
 1.1470	44.1780
 1.1480	43.8760
 1.1490	43.5800
 1.1500	43.3040
 1.1510	43.0410
 1.1520	42.7960
 1.1530	42.5670
 1.1540	42.3560
 1.1550	42.1600
 1.1560	41.9830
 1.1570	41.8220
 1.1580	41.6780
 1.1590	41.5520
 1.1600	41.4380
 1.1610	41.3390
 1.1620	41.2530
 1.1630	41.1750
 1.1640	41.1070
 1.1650	41.0450
 1.1660	40.9930
 1.1670	40.9450
 1.1680	40.9050
 1.1690	40.8640
 1.1700	40.8300
 1.1710	40.7950
 1.1720	40.7610
 1.1730	40.7280
 1.1740	40.6990
 1.1750	40.6670
 1.1760	40.6340
 1.1770	40.5990
 1.1780	40.5610
 1.1790	40.5220
 1.1800	40.4830
 1.1810	40.4440
 1.1820	40.4060
 1.1830	40.3690
 1.1840	40.3340
 1.1850	40.2980
 1.1860	40.2650
 1.1870	40.2350
 1.1880	40.2070
 1.1890	40.1810
 1.1900	40.1590
 1.1910	40.1390
 1.1920	40.1220
 1.1930	40.1100
 1.1940	40.1000
 1.1950	40.0920
 1.1960	40.0880
 1.1970	40.0890
 1.1980	40.0930
 1.1990	40.1010
 1.2000	40.1140
 1.2010	40.1300
 1.2020	40.1480
 1.2030	40.1720
 1.2040	40.2000
 1.2050	40.2300
 1.2060	40.2650
 1.2070	40.3060
 1.2080	40.3490
 1.2090	40.3970
 1.2100	40.4490
 1.2110	40.5050
 1.2120	40.5640
 1.2130	40.6240
 1.2140	40.6880
 1.2150	40.7530
 1.2160	40.8200
 1.2170	40.8890
 1.2180	40.9630
 1.2190	41.0370
 1.2200	41.1110
 1.2210	41.1860
 1.2220	41.2590
 1.2230	41.3310
 1.2240	41.4030
 1.2250	41.4710
 1.2260	41.5380
 1.2270	41.6030
 1.2280	41.6660
 1.2290	41.7300
 1.2300	41.7920
 1.2310	41.8520
 1.2320	41.9100
 1.2330	41.9650
 1.2340	42.0200
 1.2350	42.0720
 1.2360	42.1230
 1.2370	42.1740
 1.2380	42.2240
 1.2390	42.2700
 1.2400	42.3170
 1.2410	42.3640
 1.2420	42.4080
 1.2430	42.4510
 1.2440	42.4950
 1.2450	42.5340
 1.2460	42.5730
 1.2470	42.6090
 1.2480	42.6420
 1.2490	42.6760
 1.2500	42.7060
 1.2510	42.7350
 1.2520	42.7630
 1.2530	42.7890
 1.2540	42.8170
 1.2550	42.8430
 1.2560	42.8670
 1.2570	42.8890
 1.2580	42.9060
 1.2590	42.9210
 1.2600	42.9330
 1.2610	42.9430
 1.2620	42.9510
 1.2630	42.9600
 1.2640	42.9660
 1.2650	42.9710
 1.2660	42.9730
 1.2670	42.9700
 1.2680	42.9660
 1.2690	42.9600
 1.2700	42.9540
 1.2710	42.9460
 1.2720	42.9350
 1.2730	42.9230
 1.2740	42.9070
 1.2750	42.8910
 1.2760	42.8720
 1.2770	42.8490
 1.2780	42.8240
 1.2790	42.7960
 1.2800	42.7650
 1.2810	42.7320
 1.2820	42.6980
 1.2830	42.6590
 1.2840	42.6170
 1.2850	42.5750
 1.2860	42.5300
 1.2870	42.4800
 1.2880	42.4260
 1.2890	42.3700
 1.2900	42.3060
 1.2910	42.2360
 1.2920	42.1650
 1.2930	42.0900
 1.2940	42.0100
 1.2950	41.9280
 1.2960	41.8390
 1.2970	41.7460
 1.2980	41.6490
 1.2990	41.5450
 1.3000	41.4360
 1.3010	41.3210
 1.3020	41.2010
 1.3030	41.0770
 1.3040	40.9450
 1.3050	40.8100
 1.3060	40.6730
 1.3070	40.5270
 1.3080	40.3760
 1.3090	40.2180
 1.3100	40.0560
 1.3110	39.8850
 1.3120	39.7110
 1.3130	39.5330
 1.3140	39.3490
 1.3150	39.1570
 1.3160	38.9620
 1.3170	38.7650
 1.3180	38.5580
 1.3190	38.3460
 1.3200	38.1290
 1.3210	37.9020
 1.3220	37.6740
 1.3230	37.4410
 1.3240	37.2020
 1.3250	36.9630
 1.3260	36.7190
 1.3270	36.4740
 1.3280	36.2260
 1.3290	35.9740
 1.3300	35.7220
 1.3310	35.4660
 1.3320	35.2070
 1.3330	34.9510
 1.3340	34.6920
 1.3350	34.4320
 1.3360	34.1760
 1.3370	33.9180
 1.3380	33.6610
 1.3390	33.4070
 1.3400	33.1530
 1.3410	32.9040
 1.3420	32.6620
 1.3430	32.4230
 1.3440	32.1870
 1.3450	31.9540
 1.3460	31.7220
 1.3470	31.4950
 1.3480	31.2690
 1.3490	31.0490
 1.3500	30.8340
 1.3510	30.6230
 1.3520	30.4150
 1.3530	30.2100
 1.3540	30.0060
 1.3550	29.8030
 1.3560	29.6000
 1.3570	29.3980
 1.3580	29.1970
 1.3590	28.9940
 1.3600	28.7890
 1.3610	28.5820
 1.3620	28.3680
 1.3630	28.1500
 1.3640	27.9250
 1.3650	27.6910
 1.3660	27.4510
 1.3670	27.2020
 1.3680	26.9410
 1.3690	26.6700
 1.3700	26.3850
 1.3710	26.0870
 1.3720	25.7760
 1.3730	25.4480
 1.3740	25.1050
 1.3750	24.7450
 1.3760	24.3660
 1.3770	23.9690
 1.3780	23.5490
 1.3790	23.1140
 1.3800	22.6620
 1.3810	22.1900
 1.3820	21.7110
 1.3830	21.2180
 1.3840	20.7200
 1.3850	20.2090
 1.3860	19.7000
 1.3870	19.1820
 1.3880	18.6730
 1.3890	18.1640
 1.3900	17.6590
 1.3910	17.1670
 1.3920	16.6820
 1.3930	16.2080
 1.3940	15.7490
 1.3950	15.3000
 1.3960	14.8680
 1.3970	14.4550
 1.3980	14.0610
 1.3990	13.6920
 1.4000	13.3420
 1.4010	13.0110
 1.4020	12.7020
 1.4030	12.4110
 1.4040	12.1390
 1.4050	11.8880
 1.4060	11.6540
 1.4070	11.4400
 1.4080	11.2430
 1.4090	11.0610
 1.4100	10.8960
 1.4110	10.7430
 1.4120	10.6030
 1.4130	10.4750
 1.4140	10.3590
 1.4150	10.2530
 1.4160	10.1570
 1.4170	10.0700
 1.4180	 9.9920
 1.4190	 9.9200
 1.4200	 9.8550
 1.4210	 9.7960
 1.4220	 9.7430
 1.4230	 9.6950
 1.4240	 9.6520
 1.4250	 9.6130
 1.4260	 9.5780
 1.4270	 9.5470
 1.4280	 9.5200
 1.4290	 9.4950
 1.4300	 9.4750
 1.4310	 9.4570
 1.4320	 9.4410
 1.4330	 9.4280
 1.4340	 9.4180
 1.4350	 9.4090
 1.4360	 9.4030
 1.4370	 9.3980
 1.4380	 9.3940
 1.4390	 9.3920
 1.4400	 9.3920
 1.4410	 9.3940
 1.4420	 9.3970
 1.4430	 9.4000
 1.4440	 9.4040
 1.4450	 9.4090
 1.4460	 9.4150
 1.4470	 9.4230
 1.4480	 9.4310
 1.4490	 9.4400
 1.4500	 9.4490
 1.4510	 9.4580
 1.4520	 9.4670
 1.4530	 9.4770
 1.4540	 9.4880
 1.4550	 9.5000
 1.4560	 9.5130
 1.4570	 9.5270
 1.4580	 9.5420
 1.4590	 9.5570
 1.4600	 9.5730
 1.4610	 9.5910
 1.4620	 9.6100
 1.4630	 9.6330
 1.4640	 9.6570
 1.4650	 9.6840
 1.4660	 9.7120
 1.4670	 9.7410
 1.4680	 9.7730
 1.4690	 9.8070
 1.4700	 9.8420
 1.4710	 9.8820
 1.4720	 9.9220
 1.4730	 9.9630
 1.4740	10.0070
 1.4750	10.0510
 1.4760	10.0990
 1.4770	10.1470
 1.4780	10.1950
 1.4790	10.2460
 1.4800	10.2970
 1.4810	10.3480
 1.4820	10.4030
 1.4830	10.4580
 1.4840	10.5140
 1.4850	10.5710
 1.4860	10.6290
 1.4870	10.6880
 1.4880	10.7460
 1.4890	10.8060
 1.4900	10.8670
 1.4910	10.9280
 1.4920	10.9890
 1.4930	11.0520
 1.4940	11.1150
 1.4950	11.1790
 1.4960	11.2430
 1.4970	11.3080
 1.4980	11.3730
 1.4990	11.4390
 1.5000	11.5060
 1.5010	11.5740
 1.5020	11.6410
 1.5030	11.7070
 1.5040	11.7750
 1.5050	11.8420
 1.5060	11.9100
 1.5070	11.9810
 1.5080	12.0500
 1.5090	12.1190
 1.5100	12.1890
 1.5110	12.2570
 1.5120	12.3270
 1.5130	12.3960
 1.5140	12.4640
 1.5150	12.5320
 1.5160	12.6010
 1.5170	12.6710
 1.5180	12.7400
 1.5190	12.8090
 1.5200	12.8780
 1.5210	12.9470
 1.5220	13.0160
 1.5230	13.0850
 1.5240	13.1530
 1.5250	13.2220
 1.5260	13.2910
 1.5270	13.3600
 1.5280	13.4290
 1.5290	13.4960
 1.5300	13.5620
 1.5310	13.6290
 1.5320	13.6960
 1.5330	13.7630
 1.5340	13.8300
 1.5350	13.8960
 1.5360	13.9620
 1.5370	14.0270
 1.5380	14.0910
 1.5390	14.1570
 1.5400	14.2220
 1.5410	14.2880
 1.5420	14.3540
 1.5430	14.4180
 1.5440	14.4810
 1.5450	14.5440
 1.5460	14.6050
 1.5470	14.6680
 1.5480	14.7310
 1.5490	14.7930
 1.5500	14.8570
 1.5510	14.9200
 1.5520	14.9820
 1.5530	15.0440
 1.5540	15.1060
 1.5550	15.1680
 1.5560	15.2280
 1.5570	15.2890
 1.5580	15.3490
 1.5590	15.4080
 1.5600	15.4670
 1.5610	15.5250
 1.5620	15.5830
 1.5630	15.6410
 1.5640	15.6980
 1.5650	15.7540
 1.5660	15.8110
 1.5670	15.8670
 1.5680	15.9230
 1.5690	15.9790
 1.5700	16.0350
 1.5710	16.0910
 1.5720	16.1470
 1.5730	16.2030
 1.5740	16.2580
 1.5750	16.3140
 1.5760	16.3690
 1.5770	16.4240
 1.5780	16.4790
 1.5790	16.5330
 1.5800	16.5870
 1.5810	16.6420
 1.5820	16.6960
 1.5830	16.7490
 1.5840	16.8030
 1.5850	16.8570
 1.5860	16.9110
 1.5870	16.9650
 1.5880	17.0180
 1.5890	17.0710
 1.5900	17.1240
 1.5910	17.1770
 1.5920	17.2310
 1.5930	17.2840
 1.5940	17.3370
 1.5950	17.3900
 1.5960	17.4410
 1.5970	17.4930
 1.5980	17.5440
 1.5990	17.5950
 1.6000	17.6470
 1.6010	17.6970
 1.6020	17.7480
 1.6030	17.7990
 1.6040	17.8480
 1.6050	17.8960
 1.6060	17.9420
 1.6070	17.9880
 1.6080	18.0350
 1.6090	18.0810
 1.6100	18.1270
 1.6110	18.1730
 1.6120	18.2170
 1.6130	18.2630
 1.6140	18.3070
 1.6150	18.3510
 1.6160	18.3950
 1.6170	18.4370
 1.6180	18.4790
 1.6190	18.5200
 1.6200	18.5600
 1.6210	18.6000
 1.6220	18.6390
 1.6230	18.6770
 1.6240	18.7140
 1.6250	18.7470
 1.6260	18.7800
 1.6270	18.8150
 1.6280	18.8470
 1.6290	18.8790
 1.6300	18.9090
 1.6310	18.9390
 1.6320	18.9680
 1.6330	18.9960
 1.6340	19.0240
 1.6350	19.0500
 1.6360	19.0740
 1.6370	19.0980
 1.6380	19.1210
 1.6390	19.1410
 1.6400	19.1600
 1.6410	19.1770
 1.6420	19.1910
 1.6430	19.2040
 1.6440	19.2140
 1.6450	19.2220
 1.6460	19.2260
 1.6470	19.2280
 1.6480	19.2250
 1.6490	19.2200
 1.6500	19.2130
 1.6510	19.2050
 1.6520	19.1960
 1.6530	19.1830
 1.6540	19.1690
 1.6550	19.1520
 1.6560	19.1350
 1.6570	19.1180
 1.6580	19.1010
 1.6590	19.0820
 1.6600	19.0630
 1.6610	19.0450
 1.6620	19.0270
 1.6630	19.0110
 1.6640	18.9950
 1.6650	18.9820
 1.6660	18.9700
 1.6670	18.9600
 1.6680	18.9520
 1.6690	18.9440
 1.6700	18.9360
 1.6710	18.9270
 1.6720	18.9180
 1.6730	18.9090
 1.6740	18.8990
 1.6750	18.8900
 1.6760	18.8790
 1.6770	18.8670
 1.6780	18.8570
 1.6790	18.8440
 1.6800	18.8280
 1.6810	18.8130
 1.6820	18.7950
 1.6830	18.7760
 1.6840	18.7570
 1.6850	18.7370
 1.6860	18.7150
 1.6870	18.6910
 1.6880	18.6650
 1.6890	18.6370
 1.6900	18.6090
 1.6910	18.5800
 1.6920	18.5510
 1.6930	18.5220
 1.6940	18.4910
 1.6950	18.4590
 1.6960	18.4260
 1.6970	18.3900
 1.6980	18.3540
 1.6990	18.3180
 1.7000	18.2810
 1.7010	18.2450
 1.7020	18.2080
 1.7030	18.1680
 1.7040	18.1290
 1.7050	18.0880
 1.7060	18.0480
 1.7070	18.0070
 1.7080	17.9650
 1.7090	17.9230
 1.7100	17.8820
 1.7110	17.8410
 1.7120	17.8020
 1.7130	17.7640
 1.7140	17.7250
 1.7150	17.6850
 1.7160	17.6480
 1.7170	17.6090
 1.7180	17.5700
 1.7190	17.5320
 1.7200	17.4930
 1.7210	17.4540
 1.7220	17.4160
 1.7230	17.3770
 1.7240	17.3400
 1.7250	17.3030
 1.7260	17.2680
 1.7270	17.2330
 1.7280	17.2010
 1.7290	17.1690
 1.7300	17.1390
 1.7310	17.1080
 1.7320	17.0770
 1.7330	17.0450
 1.7340	17.0120
 1.7350	16.9790
 1.7360	16.9450
 1.7370	16.9100
 1.7380	16.8760
 1.7390	16.8380
 1.7400	16.7990
 1.7410	16.7580
 1.7420	16.7150
 1.7430	16.6720
 1.7440	16.6260
 1.7450	16.5820
 1.7460	16.5370
 1.7470	16.4920
 1.7480	16.4470
 1.7490	16.4030
 1.7500	16.3580
 1.7510	16.3150
 1.7520	16.2720
 1.7530	16.2300
 1.7540	16.1890
 1.7550	16.1490
 1.7560	16.1090
 1.7570	16.0710
 1.7580	16.0340
 1.7590	15.9990
 1.7600	15.9660
 1.7610	15.9360
 1.7620	15.9050
 1.7630	15.8730
 1.7640	15.8440
 1.7650	15.8160
 1.7660	15.7890
 1.7670	15.7670
 1.7680	15.7420
 1.7690	15.7150
 1.7700	15.6900
 1.7710	15.6650
 1.7720	15.6420
 1.7730	15.6220
 1.7740	15.6010
 1.7750	15.5800
 1.7760	15.5590
 1.7770	15.5380
 1.7780	15.5180
 1.7790	15.4970
 1.7800	15.4800
 1.7810	15.4650
 1.7820	15.4500
 1.7830	15.4380
 1.7840	15.4250
 1.7850	15.4120
 1.7860	15.4010
 1.7870	15.3900
 1.7880	15.3830
 1.7890	15.3780
 1.7900	15.3720
 1.7910	15.3670
 1.7920	15.3600
 1.7930	15.3560
 1.7940	15.3530
 1.7950	15.3520
 1.7960	15.3540
 1.7970	15.3540
 1.7980	15.3550
 1.7990	15.3560
 1.8000	15.3580
 1.8010	15.3620
 1.8020	15.3690
 1.8030	15.3750
 1.8040	15.3830
 1.8050	15.3880
 1.8060	15.3910
 1.8070	15.3950
 1.8080	15.3990
 1.8090	15.4040
 1.8100	15.4100
 1.8110	15.4150
 1.8120	15.4190
 1.8130	15.4220
 1.8140	15.4260
 1.8150	15.4290
 1.8160	15.4320
 1.8170	15.4360
 1.8180	15.4380
 1.8190	15.4420
 1.8200	15.4430
 1.8210	15.4410
 1.8220	15.4400
 1.8230	15.4360
 1.8240	15.4330
 1.8250	15.4300
 1.8260	15.4270
 1.8270	15.4270
 1.8280	15.4280
 1.8290	15.4280
 1.8300	15.4290
 1.8310	15.4290
 1.8320	15.4300
 1.8330	15.4300
 1.8340	15.4310
 1.8350	15.4310
 1.8360	15.4070
 1.8370	15.3800
 1.8380	15.3480
 1.8390	15.3130
 1.8400	15.2740
 1.8410	15.2320
 1.8420	15.1880
 1.8430	15.1400
 1.8440	15.0860
 1.8450	15.0290
 1.8460	14.9650
 1.8470	14.8960
 1.8480	14.8250
 1.8490	14.7450
 1.8500	14.6580
 1.8510	14.5650
 1.8520	14.4650
 1.8530	14.3580
 1.8540	14.2440
 1.8550	14.1240
 1.8560	13.9960
 1.8570	13.8580
 1.8580	13.7150
 1.8590	13.5680
 1.8600	13.4130
 1.8610	13.2530
 1.8620	13.0860
 1.8630	12.9120
 1.8640	12.7320
 1.8650	12.5420
 1.8660	12.3480
 1.8670	12.1460
 1.8680	11.9370
 1.8690	11.7250
 1.8700	11.5090
 1.8710	11.2880
 1.8720	11.0690
 1.8730	10.8490
 1.8740	10.6300
 1.8750	10.4170
 1.8760	10.2070
 1.8770	10.0000
 1.8780	 9.7990
 1.8790	 9.6040
 1.8800	 9.4180
 1.8810	 9.2380
 1.8820	 9.0630
 1.8830	 8.8960
 1.8840	 8.7410
 1.8850	 8.5900
 1.8860	 8.4500
 1.8870	 8.3210
 1.8880	 8.1960
 1.8890	 8.0820
 1.8900	 7.9800
 1.8910	 7.8840
 1.8920	 7.7950
 1.8930	 7.7160
 1.8940	 7.6450
 1.8950	 7.5810
 1.8960	 7.5260
 1.8970	 7.4770
 1.8980	 7.4340
 1.8990	 7.3960
 1.9000	 7.3620
 1.9010	 7.3340
 1.9020	 7.3070
 1.9030	 7.2840
 1.9040	 7.2620
 1.9050	 7.2440
 1.9060	 7.2290
 1.9070	 7.2170
 1.9080	 7.2090
 1.9090	 7.1990
 1.9100	 7.1900
 1.9110	 7.1820
 1.9120	 7.1750
 1.9130	 7.1680
 1.9140	 7.1630
 1.9150	 7.1590
 1.9160	 7.1540
 1.9170	 7.1500
 1.9180	 7.1470
 1.9190	 7.1450
 1.9200	 7.1440
 1.9210	 7.1440
 1.9220	 7.1430
 1.9230	 7.1430
 1.9240	 7.1420
 1.9250	 7.1420
 1.9260	 7.1410
 1.9270	 7.1410
 1.9280	 7.1430
 1.9290	 7.1420
 1.9300	 7.1430
 1.9310	 7.1450
 1.9320	 7.1450
 1.9330	 7.1450
 1.9340	 7.1470
 1.9350	 7.1490
 1.9360	 7.1480
 1.9370	 7.1510
 1.9380	 7.1560
 1.9390	 7.1610
 1.9400	 7.1660
 1.9410	 7.1710
 1.9420	 7.1740
 1.9430	 7.1760
 1.9440	 7.1790
 1.9450	 7.1830
 1.9460	 7.1870
 1.9470	 7.1920
 1.9480	 7.1960
 1.9490	 7.2010
 1.9500	 7.2040
 1.9510	 7.2070
 1.9520	 7.2120
 1.9530	 7.2180
 1.9540	 7.2250
 1.9550	 7.2300
 1.9560	 7.2350
 1.9570	 7.2410
 1.9580	 7.2470
 1.9590	 7.2530
 1.9600	 7.2620
 1.9610	 7.2690
 1.9620	 7.2750
 1.9630	 7.2810
 1.9640	 7.2890
 1.9650	 7.2960
 1.9660	 7.3040
 1.9670	 7.3130
 1.9680	 7.3210
 1.9690	 7.3290
 1.9700	 7.3380
 1.9710	 7.3450
 1.9720	 7.3530
 1.9730	 7.3630
 1.9740	 7.3730
 1.9750	 7.3840
 1.9760	 7.3980
 1.9770	 7.4110
 1.9780	 7.4220
 1.9790	 7.4340
 1.9800	 7.4450
 1.9810	 7.4570
 1.9820	 7.4690
 1.9830	 7.4800
 1.9840	 7.4920
 1.9850	 7.5040
 1.9860	 7.5160
 1.9870	 7.5280
 1.9880	 7.5410
 1.9890	 7.5550
 1.9900	 7.5690
 1.9910	 7.5820
 1.9920	 7.5960
 1.9930	 7.6080
 1.9940	 7.6220
 1.9950	 7.6400
 1.9960	 7.6550
 1.9970	 7.6690
 1.9980	 7.6840
 1.9990	 7.6980
 2.0000	 7.7100
 2.0010	 7.7270
 2.0020	 7.7430
 2.0030	 7.7570
 2.0040	 7.7720
 2.0050	 7.7870
 2.0060	 7.8010
 2.0070	 7.8160
 2.0080	 7.8320
 2.0090	 7.8470
 2.0100	 7.8600
 2.0110	 7.8740
 2.0120	 7.8900
 2.0130	 7.9050
 2.0140	 7.9230
 2.0150	 7.9420
 2.0160	 7.9600
 2.0170	 7.9780
 2.0180	 7.9940
 2.0190	 8.0080
 2.0200	 8.0240
 2.0210	 8.0410
 2.0220	 8.0570
 2.0230	 8.0740
 2.0240	 8.0890
 2.0250	 8.0990
 2.0260	 8.1120
 2.0270	 8.1250
 2.0280	 8.1390
 2.0290	 8.1540
 2.0300	 8.1700
 2.0310	 8.1840
 2.0320	 8.1960
 2.0330	 8.2090
 2.0340	 8.2210
 2.0350	 8.2340
 2.0360	 8.2460
 2.0370	 8.2600
 2.0380	 8.2760
 2.0390	 8.2890
 2.0400	 8.3010
 2.0410	 8.3130
 2.0420	 8.3230
 2.0430	 8.3320
 2.0440	 8.3440
 2.0450	 8.3590
 2.0460	 8.3710
 2.0470	 8.3840
 2.0480	 8.3960
 2.0490	 8.4050
 2.0500	 8.4150
 2.0510	 8.4240
 2.0520	 8.4330
 2.0530	 8.4400
 2.0540	 8.4500
 2.0550	 8.4610
 2.0560	 8.4710
 2.0570	 8.4820
 2.0580	 8.4930
 2.0590	 8.5050
 2.0600	 8.5180
 2.0610	 8.5290
 2.0620	 8.5390
 2.0630	 8.5490
 2.0640	 8.5540
 2.0650	 8.5640
 2.0660	 8.5760
 2.0670	 8.5870
 2.0680	 8.5990
 2.0690	 8.6110
 2.0700	 8.6260
 2.0710	 8.6380
 2.0720	 8.6490
 2.0730	 8.6590
 2.0740	 8.6690
 2.0750	 8.6750
 2.0760	 8.6850
 2.0770	 8.6970
 2.0780	 8.7070
 2.0790	 8.7170
 2.0800	 8.7280
 2.0810	 8.7360
 2.0820	 8.7480
 2.0830	 8.7620
 2.0840	 8.7750
 2.0850	 8.7890
 2.0860	 8.8010
 2.0870	 8.8100
 2.0880	 8.8190
 2.0890	 8.8280
 2.0900	 8.8360
 2.0910	 8.8470
 2.0920	 8.8580
 2.0930	 8.8690
 2.0940	 8.8810
 2.0950	 8.8910
 2.0960	 8.9000
 2.0970	 8.9110
 2.0980	 8.9220
 2.0990	 8.9330
 2.1000	 8.9440
 2.1010	 8.9560
 2.1020	 8.9700
 2.1030	 8.9810
 2.1040	 8.9910
 2.1050	 9.0020
 2.1060	 9.0100
 2.1070	 9.0150
 2.1080	 9.0240
 2.1090	 9.0330
 2.1100	 9.0450
 2.1110	 9.0610
 2.1120	 9.0720
 2.1130	 9.0830
 2.1140	 9.0930
 2.1150	 9.1020
 2.1160	 9.1120
 2.1170	 9.1260
 2.1180	 9.1360
 2.1190	 9.1450
 2.1200	 9.1530
 2.1210	 9.1600
 2.1220	 9.1630
 2.1230	 9.1710
 2.1240	 9.1780
 2.1250	 9.1870
 2.1260	 9.1990
 2.1270	 9.2090
 2.1280	 9.2180
 2.1290	 9.2270
 2.1300	 9.2370
 2.1310	 9.2440
 2.1320	 9.2510
 2.1330	 9.2590
 2.1340	 9.2640
 2.1350	 9.2710
 2.1360	 9.2820
 2.1370	 9.2900
 2.1380	 9.2980
 2.1390	 9.3050
 2.1400	 9.3110
 2.1410	 9.3180
 2.1420	 9.3230
 2.1430	 9.3270
 2.1440	 9.3350
 2.1450	 9.3430
 2.1460	 9.3510
 2.1470	 9.3620
 2.1480	 9.3690
 2.1490	 9.3750
 2.1500	 9.3820
 2.1510	 9.3890
 2.1520	 9.3960
 2.1530	 9.4060
 2.1540	 9.4140
 2.1550	 9.4240
 2.1560	 9.4330
 2.1570	 9.4390
 2.1580	 9.4460
 2.1590	 9.4520
 2.1600	 9.4570
 2.1610	 9.4630
 2.1620	 9.4690
 2.1630	 9.4770
 2.1640	 9.4860
 2.1650	 9.4930
 2.1660	 9.5010
 2.1670	 9.5070
 2.1680	 9.5100
 2.1690	 9.5180
 2.1700	 9.5300
 2.1710	 9.5380
 2.1720	 9.5480
 2.1730	 9.5560
 2.1740	 9.5590
 2.1750	 9.5660
 2.1760	 9.5760
 2.1770	 9.5840
 2.1780	 9.5940
 2.1790	 9.6020
 2.1800	 9.6100
 2.1810	 9.6170
 2.1820	 9.6260
 2.1830	 9.6320
 2.1840	 9.6400
 2.1850	 9.6480
 2.1860	 9.6550
 2.1870	 9.6640
 2.1880	 9.6710
 2.1890	 9.6760
 2.1900	 9.6830
 2.1910	 9.6890
 2.1920	 9.6980
 2.1930	 9.7100
 2.1940	 9.7210
 2.1950	 9.7320
 2.1960	 9.7430
 2.1970	 9.7510
 2.1980	 9.7610
 2.1990	 9.7720
 2.2000	 9.7810
 2.2010	 9.7880
 2.2020	 9.7970
 2.2030	 9.8070
 2.2040	 9.8150
 2.2050	 9.8220
 2.2060	 9.8310
 2.2070	 9.8370
 2.2080	 9.8390
 2.2090	 9.8450
 2.2100	 9.8520
 2.2110	 9.8590
 2.2120	 9.8690
 2.2130	 9.8750
 2.2140	 9.8790
 2.2150	 9.8830
 2.2160	 9.8830
 2.2170	 9.8870
 2.2180	 9.8920
 2.2190	 9.8950
 2.2200	 9.8990
 2.2210	 9.8990
 2.2220	 9.8940
 2.2230	 9.8910
 2.2240	 9.8890
 2.2250	 9.8840
 2.2260	 9.8770
 2.2270	 9.8720
 2.2280	 9.8650
 2.2290	 9.8590
 2.2300	 9.8530
 2.2310	 9.8490
 2.2320	 9.8410
 2.2330	 9.8290
 2.2340	 9.8200
 2.2350	 9.8110
 2.2360	 9.8000
 2.2370	 9.7900
 2.2380	 9.7730
 2.2390	 9.7480
 2.2400	 9.7270
 2.2410	 9.7040
 2.2420	 9.6820
 2.2430	 9.6630
 2.2440	 9.6410
 2.2450	 9.6160
 2.2460	 9.5930
 2.2470	 9.5720
 2.2480	 9.5490
 2.2490	 9.5260
 2.2500	 9.5010
 2.2510	 9.4730
 2.2520	 9.4470
 2.2530	 9.4230
 2.2540	 9.3980
 2.2550	 9.3760
 2.2560	 9.3510
 2.2570	 9.3230
 2.2580	 9.2960
 2.2590	 9.2680
 2.2600	 9.2410
 2.2610	 9.2160
 2.2620	 9.1920
 2.2630	 9.1720
 2.2640	 9.1490
 2.2650	 9.1280
 2.2660	 9.1100
 2.2670	 9.0910
 2.2680	 9.0710
 2.2690	 9.0520
 2.2700	 9.0330
 2.2710	 9.0170
 2.2720	 9.0020
 2.2730	 8.9840
 2.2740	 8.9690
 2.2750	 8.9510
 2.2760	 8.9280
 2.2770	 8.9110
 2.2780	 8.8980
 2.2790	 8.8820
 2.2800	 8.8680
 2.2810	 8.8530
 2.2820	 8.8350
 2.2830	 8.8200
 2.2840	 8.8070
 2.2850	 8.7930
 2.2860	 8.7800
 2.2870	 8.7650
 2.2880	 8.7470
 2.2890	 8.7300
 2.2900	 8.7110
 2.2910	 8.6950
 2.2920	 8.6830
 2.2930	 8.6670
 2.2940	 8.6470
 2.2950	 8.6320
 2.2960	 8.6190
 2.2970	 8.6040
 2.2980	 8.5930
 2.2990	 8.5800
 2.3000	 8.5620
 2.3010	 8.5440
 2.3020	 8.5350
 2.3030	 8.5240
 2.3040	 8.5180
 2.3050	 8.5160
 2.3060	 8.5110
 2.3070	 8.5140
 2.3080	 8.5120
 2.3090	 8.5030
 2.3100	 8.4960
 2.3110	 8.4860
 2.3120	 8.4850
 2.3130	 8.4920
 2.3140	 8.4930
 2.3150	 8.5000
 2.3160	 8.4960
 2.3170	 8.4830
 2.3180	 8.4750
 2.3190	 8.4630
 2.3200	 8.4570
 2.3210	 8.4540
 2.3220	 8.4490
 2.3230	 8.4460
 2.3240	 8.4390
 2.3250	 8.4310
 2.3260	 8.4240
 2.3270	 8.4150
 2.3280	 8.4050
 2.3290	 8.3940
 2.3300	 8.3830
 2.3310	 8.3680
 2.3320	 8.3550
 2.3330	 8.3430
 2.3340	 8.3330
 2.3350	 8.3260
 2.3360	 8.3160
 2.3370	 8.3070
 2.3380	 8.2970
 2.3390	 8.2830
 2.3400	 8.2730
 2.3410	 8.2630
 2.3420	 8.2540
 2.3430	 8.2450
 2.3440	 8.2390
 2.3450	 8.2410
 2.3460	 8.2350
 2.3470	 8.2260
 2.3480	 8.2210
 2.3490	 8.2100
 2.3500	 8.2040
 2.3510	 8.2130
 2.3520	 8.2090
 2.3530	 8.1980
 2.3540	 8.1900
 2.3550	 8.1830
 2.3560	 8.1740
 2.3570	 8.1740
 2.3580	 8.1770
 2.3590	 8.1680
 2.3600	 8.1550
 2.3610	 8.1490
 2.3620	 8.1400
 2.3630	 8.1310
 2.3640	 8.1230
 2.3650	 8.1080
 2.3660	 8.0940
 2.3670	 8.0920
 2.3680	 8.0930
 2.3690	 8.0990
 2.3700	 8.1030
 2.3710	 8.0980
 2.3720	 8.0880
 2.3730	 8.0690
 2.3740	 8.0510
 2.3750	 8.0410
 2.3760	 8.0360
 2.3770	 8.0430
 2.3780	 8.0460
 2.3790	 8.0430
 2.3800	 8.0350
 2.3810	 8.0150
 2.3820	 8.0010
 2.3830	 7.9930
 2.3840	 7.9860
 2.3850	 7.9860
 2.3860	 7.9870
 2.3870	 7.9800
 2.3880	 7.9710
 2.3890	 7.9630
 2.3900	 7.9530
 2.3910	 7.9450
 2.3920	 7.9450
 2.3930	 7.9420
 2.3940	 7.9320
 2.3950	 7.9200
 2.3960	 7.9090
 2.3970	 7.9010
 2.3980	 7.8970
 2.3990	 7.8920
 2.4000	 7.8800
 2.4010	 7.8610
 2.4020	 7.8460
 2.4030	 7.8410
 2.4040	 7.8390
 2.4050	 7.8480
 2.4060	 7.8600
 2.4070	 7.8600
 2.4080	 7.8540
 2.4090	 7.8290
 2.4100	 7.8020
 2.4110	 7.7860
 2.4120	 7.7680
 2.4130	 7.7610
 2.4140	 7.7460
 2.4150	 7.7350
 2.4160	 7.7350
 2.4170	 7.7310
 2.4180	 7.7420
 2.4190	 7.7470
 2.4200	 7.7390
 2.4210	 7.7380
 2.4220	 7.7260
 2.4230	 7.7180
 2.4240	 7.7190
 2.4250	 7.7120
 2.4260	 7.7070
 2.4270	 7.7090
 2.4280	 7.7020
 2.4290	 7.6980
 2.4300	 7.7050
 2.4310	 7.6980
 2.4320	 7.6790
 2.4330	 7.6550
 2.4340	 7.6370
 2.4350	 7.6280
 2.4360	 7.6300
 2.4370	 7.6410
 2.4380	 7.6400
 2.4390	 7.6220
 2.4400	 7.6120
 2.4410	 7.6070
 2.4420	 7.5950
 2.4430	 7.5990
 2.4440	 7.5840
 2.4450	 7.5620
 2.4460	 7.5540
 2.4470	 7.5480
 2.4480	 7.5450
 2.4490	 7.5320
 2.4500	 7.5250
 2.4510	 7.5130
 2.4520	 7.4930
 2.4530	 7.4790
 2.4540	 7.4860
 2.4550	 7.4840
 2.4560	 7.4630
 2.4570	 7.4550
 2.4580	 7.4360
 2.4590	 7.4390
 2.4600	 7.4780
 2.4610	 7.5050
 2.4620	 7.5010
 2.4630	 7.4690
 2.4640	 7.4330
 2.4650	 7.4010
 2.4660	 7.3870
 2.4670	 7.3840
 2.4680	 7.3790
 2.4690	 7.3990
 2.4700	 7.4060
 2.4710	 7.4150
 2.4720	 7.4250
 2.4730	 7.4340
 2.4740	 7.4330
 2.4750	 7.4360
 2.4760	 7.4270
 2.4770	 7.3920
 2.4780	 7.3750
 2.4790	 7.3600
 2.4800	 7.3550
 2.4810	 7.3630
 2.4820	 7.3650
 2.4830	 7.3740
 2.4840	 7.3690
 2.4850	 7.3830
 2.4860	 7.3960
 2.4870	 7.4040
 2.4880	 7.4100
 2.4890	 7.3820
 2.4900	 7.3890
 2.4910	 7.4010
 2.4920	 7.3790
 2.4930	 7.4120
 2.4940	 7.4290
 2.4950	 7.4070
 2.4960	 7.4170
 2.4970	 7.3860
 2.4980	 7.3820
 2.4990	 7.4430
 2.5000	 7.4810
