Name: Baccharis pilularis 2
Type: vegetation
Class: Shrub
Genus: Baccharis
Species: pilularis
Sample No.: VH100
Owner: UCSB
Wavelength Range: TIR
Origin: 34.418; -119.8455; WGS84
Collection Date: 6/3/2013
Description: Samples were collected as part of the HyspIRI Airborne Campaign. 48 individual plants were sampled in three times in 2013 - spring  summer  and fall. The name of the sample includes a 1  2  or 3 which references a different individual of the species. Samples were taken to JPL and processed within 48 hours of collection. The same leaves were processed in the Nicolet and then measured using the ASD.
Measurement: Hemispherical reflectance
First Column: X
Second Column: Y
X Units: Wavelength (micrometers)
Y Units: Reflectance (percentage)
First X Value: 2.501
Last X Value: 15.387
Number of X Values: 1737
Additional Information: vegetation.shrub.baccharis.pilularis.tir.vh100.ucsb.nicolet.ancillary.txt

 2.5010	 3.5790
 2.5030	 3.6080
 2.5040	 3.6760
 2.5050	 3.6390
 2.5060	 3.6280
 2.5070	 3.6120
 2.5090	 3.6560
 2.5100	 3.6360
 2.5110	 3.6380
 2.5120	 3.6370
 2.5140	 3.6450
 2.5150	 3.6260
 2.5160	 3.6100
 2.5170	 3.6100
 2.5180	 3.6890
 2.5200	 3.6640
 2.5210	 3.6350
 2.5220	 3.6230
 2.5230	 3.6270
 2.5250	 3.6140
 2.5260	 3.6520
 2.5270	 3.6640
 2.5280	 3.6930
 2.5290	 3.6290
 2.5310	 3.6050
 2.5320	 3.6130
 2.5330	 3.7030
 2.5340	 3.7290
 2.5360	 3.7320
 2.5370	 3.7350
 2.5380	 3.7400
 2.5390	 3.7120
 2.5410	 3.7440
 2.5420	 3.7270
 2.5430	 3.7340
 2.5440	 3.7260
 2.5460	 3.7640
 2.5470	 3.7920
 2.5480	 3.8350
 2.5490	 3.8040
 2.5510	 3.7500
 2.5520	 3.7040
 2.5530	 3.7260
 2.5540	 3.7310
 2.5560	 3.8010
 2.5570	 3.8290
 2.5580	 3.8350
 2.5590	 3.8150
 2.5610	 3.8210
 2.5620	 3.7960
 2.5630	 3.7860
 2.5640	 3.7800
 2.5660	 3.8460
 2.5670	 3.8810
 2.5680	 3.8830
 2.5700	 3.8570
 2.5710	 3.8560
 2.5720	 3.8590
 2.5730	 3.8530
 2.5750	 3.8170
 2.5760	 3.8500
 2.5770	 3.8220
 2.5790	 3.8460
 2.5800	 3.8720
 2.5810	 3.8900
 2.5820	 3.8710
 2.5840	 3.8700
 2.5850	 3.8390
 2.5860	 3.8370
 2.5880	 3.8280
 2.5890	 3.8740
 2.5900	 3.8760
 2.5910	 3.8790
 2.5930	 3.8590
 2.5940	 3.8620
 2.5950	 3.8150
 2.5970	 3.8250
 2.5980	 3.8730
 2.5990	 3.8850
 2.6000	 3.8410
 2.6020	 3.9250
 2.6030	 3.9300
 2.6040	 3.8890
 2.6060	 3.8530
 2.6070	 3.9070
 2.6080	 3.8990
 2.6100	 3.8690
 2.6110	 3.8730
 2.6120	 3.8750
 2.6140	 3.8460
 2.6150	 3.8680
 2.6160	 3.8360
 2.6180	 3.8630
 2.6190	 3.8940
 2.6200	 3.9030
 2.6220	 3.8960
 2.6230	 3.9530
 2.6240	 3.9490
 2.6260	 3.9020
 2.6270	 3.8240
 2.6280	 3.8220
 2.6300	 3.8070
 2.6310	 3.8700
 2.6320	 3.9080
 2.6340	 3.9190
 2.6350	 3.8850
 2.6360	 3.8370
 2.6380	 3.8100
 2.6390	 3.8520
 2.6400	 3.8250
 2.6420	 3.8160
 2.6430	 3.8520
 2.6440	 3.9310
 2.6460	 3.8580
 2.6470	 3.8000
 2.6480	 3.7970
 2.6500	 3.7890
 2.6510	 3.7510
 2.6520	 3.7970
 2.6540	 3.8000
 2.6550	 3.8340
 2.6560	 3.7980
 2.6580	 3.7980
 2.6590	 3.7910
 2.6610	 3.7740
 2.6620	 3.7690
 2.6630	 3.7920
 2.6650	 3.7340
 2.6660	 3.6640
 2.6670	 3.6250
 2.6690	 3.6960
 2.6700	 3.6710
 2.6720	 3.6560
 2.6730	 3.6260
 2.6740	 3.6200
 2.6760	 3.5740
 2.6770	 3.5700
 2.6780	 3.5720
 2.6800	 3.5740
 2.6810	 3.6070
 2.6830	 3.6220
 2.6840	 3.5900
 2.6850	 3.6000
 2.6870	 3.5470
 2.6880	 3.5990
 2.6900	 3.6500
 2.6910	 3.6690
 2.6920	 3.6210
 2.6940	 3.5880
 2.6950	 3.5720
 2.6970	 3.5700
 2.6980	 3.4940
 2.6990	 3.4460
 2.7010	 3.4210
 2.7020	 3.4460
 2.7040	 3.3930
 2.7050	 3.3870
 2.7060	 3.4080
 2.7080	 3.4260
 2.7090	 3.4380
 2.7110	 3.4430
 2.7120	 3.4070
 2.7130	 3.4290
 2.7150	 3.3770
 2.7160	 3.3920
 2.7180	 3.4010
 2.7190	 3.3980
 2.7210	 3.3430
 2.7220	 3.3490
 2.7230	 3.3320
 2.7250	 3.3160
 2.7260	 3.2900
 2.7280	 3.3340
 2.7290	 3.2930
 2.7310	 3.2660
 2.7320	 3.2070
 2.7330	 3.2190
 2.7350	 3.2620
 2.7360	 3.2710
 2.7380	 3.2120
 2.7390	 3.2030
 2.7410	 3.1860
 2.7420	 3.2220
 2.7440	 3.2190
 2.7450	 3.2090
 2.7470	 3.1620
 2.7480	 3.1350
 2.7490	 3.0870
 2.7510	 3.1050
 2.7520	 3.1170
 2.7540	 3.0990
 2.7550	 3.0380
 2.7570	 3.0530
 2.7580	 3.0930
 2.7600	 3.0950
 2.7610	 3.0510
 2.7630	 3.0300
 2.7640	 3.0450
 2.7660	 3.0780
 2.7670	 3.0580
 2.7680	 3.0330
 2.7700	 2.9970
 2.7710	 3.0430
 2.7730	 3.0570
 2.7740	 3.0660
 2.7760	 3.0190
 2.7770	 2.9970
 2.7790	 2.9610
 2.7800	 2.9980
 2.7820	 2.9830
 2.7830	 2.9810
 2.7850	 2.9870
 2.7860	 3.0250
 2.7880	 3.0170
 2.7890	 2.9670
 2.7910	 2.9490
 2.7920	 2.9840
 2.7940	 2.9820
 2.7950	 2.9950
 2.7970	 2.9490
 2.7980	 2.9220
 2.8000	 2.8970
 2.8010	 2.9450
 2.8030	 2.9610
 2.8040	 2.9570
 2.8060	 2.9110
 2.8070	 2.9370
 2.8090	 2.9600
 2.8110	 2.9310
 2.8120	 2.9190
 2.8140	 2.9580
 2.8150	 2.8950
 2.8170	 2.8720
 2.8180	 2.8930
 2.8200	 2.9140
 2.8210	 2.8910
 2.8230	 2.9250
 2.8240	 2.8750
 2.8260	 2.8560
 2.8270	 2.8720
 2.8290	 2.8940
 2.8300	 2.8350
 2.8320	 2.8270
 2.8340	 2.8400
 2.8350	 2.8740
 2.8370	 2.8670
 2.8380	 2.8680
 2.8400	 2.8350
 2.8410	 2.8690
 2.8430	 2.8790
 2.8440	 2.8830
 2.8460	 2.8920
 2.8480	 2.9210
 2.8490	 2.8560
 2.8510	 2.8480
 2.8520	 2.8030
 2.8540	 2.8270
 2.8550	 2.8200
 2.8570	 2.8100
 2.8590	 2.7990
 2.8600	 2.8370
 2.8620	 2.8020
 2.8630	 2.8120
 2.8650	 2.7850
 2.8660	 2.7550
 2.8680	 2.7430
 2.8700	 2.7740
 2.8710	 2.7620
 2.8730	 2.7770
 2.8740	 2.7310
 2.8760	 2.7490
 2.8780	 2.7640
 2.8790	 2.8230
 2.8810	 2.8180
 2.8820	 2.8020
 2.8840	 2.7780
 2.8860	 2.7940
 2.8870	 2.7750
 2.8890	 2.7940
 2.8900	 2.8050
 2.8920	 2.8580
 2.8940	 2.8180
 2.8950	 2.7340
 2.8970	 2.7200
 2.8980	 2.7390
 2.9000	 2.7360
 2.9020	 2.8180
 2.9030	 2.8330
 2.9050	 2.8370
 2.9070	 2.7870
 2.9080	 2.7740
 2.9100	 2.7210
 2.9120	 2.7390
 2.9130	 2.7800
 2.9150	 2.8010
 2.9160	 2.7760
 2.9180	 2.8070
 2.9200	 2.8330
 2.9210	 2.8790
 2.9230	 2.8170
 2.9250	 2.8350
 2.9260	 2.8470
 2.9280	 2.8420
 2.9300	 2.8450
 2.9310	 2.8770
 2.9330	 2.8770
 2.9350	 2.8680
 2.9360	 2.8420
 2.9380	 2.8800
 2.9400	 2.8580
 2.9410	 2.8680
 2.9430	 2.9130
 2.9450	 2.9370
 2.9460	 2.8890
 2.9480	 2.9200
 2.9500	 2.9040
 2.9510	 2.9000
 2.9530	 2.9150
 2.9550	 2.9240
 2.9560	 2.9000
 2.9580	 2.8890
 2.9600	 2.8920
 2.9610	 2.9120
 2.9630	 2.8960
 2.9650	 2.9180
 2.9660	 2.9070
 2.9680	 2.9150
 2.9700	 2.9220
 2.9720	 2.9530
 2.9730	 2.9330
 2.9750	 2.9240
 2.9770	 2.9260
 2.9780	 2.9770
 2.9800	 2.9840
 2.9820	 3.0070
 2.9840	 2.9340
 2.9850	 2.9470
 2.9870	 2.9980
 2.9890	 3.0010
 2.9900	 2.9930
 2.9920	 3.0570
 2.9940	 3.0570
 2.9960	 3.0620
 2.9970	 3.0170
 2.9990	 3.0500
 3.0010	 3.0360
 3.0030	 3.0650
 3.0040	 3.0680
 3.0060	 3.0520
 3.0080	 3.0350
 3.0100	 3.0930
 3.0110	 3.0550
 3.0130	 3.0440
 3.0150	 3.0600
 3.0170	 3.0790
 3.0180	 3.0350
 3.0200	 3.0420
 3.0220	 3.0880
 3.0240	 3.1210
 3.0250	 3.0900
 3.0270	 3.1240
 3.0290	 3.1140
 3.0310	 3.1250
 3.0320	 3.1260
 3.0340	 3.1880
 3.0360	 3.2000
 3.0380	 3.2090
 3.0400	 3.1780
 3.0410	 3.1730
 3.0430	 3.1390
 3.0450	 3.1820
 3.0470	 3.1990
 3.0480	 3.2050
 3.0500	 3.1960
 3.0520	 3.2210
 3.0540	 3.2120
 3.0560	 3.2680
 3.0570	 3.2510
 3.0590	 3.2350
 3.0610	 3.2330
 3.0630	 3.2710
 3.0650	 3.2590
 3.0660	 3.2830
 3.0680	 3.2620
 3.0700	 3.2620
 3.0720	 3.2660
 3.0740	 3.2870
 3.0760	 3.2670
 3.0770	 3.3230
 3.0790	 3.3460
 3.0810	 3.3730
 3.0830	 3.3610
 3.0850	 3.3320
 3.0870	 3.3430
 3.0880	 3.3470
 3.0900	 3.3100
 3.0920	 3.3040
 3.0940	 3.3000
 3.0960	 3.3610
 3.0980	 3.3820
 3.0990	 3.4380
 3.1010	 3.4300
 3.1030	 3.4260
 3.1050	 3.4410
 3.1070	 3.4880
 3.1090	 3.4390
 3.1110	 3.3830
 3.1120	 3.3940
 3.1140	 3.4590
 3.1160	 3.4470
 3.1180	 3.4670
 3.1200	 3.4730
 3.1220	 3.5000
 3.1240	 3.4670
 3.1260	 3.4850
 3.1270	 3.4510
 3.1290	 3.4540
 3.1310	 3.4830
 3.1330	 3.5250
 3.1350	 3.4920
 3.1370	 3.4770
 3.1390	 3.4810
 3.1410	 3.5580
 3.1430	 3.5680
 3.1450	 3.5740
 3.1460	 3.5450
 3.1480	 3.5640
 3.1500	 3.5640
 3.1520	 3.5750
 3.1540	 3.5930
 3.1560	 3.6620
 3.1580	 3.6790
 3.1600	 3.6510
 3.1620	 3.6060
 3.1640	 3.6010
 3.1660	 3.5880
 3.1680	 3.6380
 3.1700	 3.6780
 3.1710	 3.7130
 3.1730	 3.7250
 3.1750	 3.7280
 3.1770	 3.6780
 3.1790	 3.6730
 3.1810	 3.6490
 3.1830	 3.6830
 3.1850	 3.7080
 3.1870	 3.6970
 3.1890	 3.6770
 3.1910	 3.7180
 3.1930	 3.6950
 3.1950	 3.7370
 3.1970	 3.7730
 3.1990	 3.7710
 3.2010	 3.7620
 3.2030	 3.7950
 3.2050	 3.7770
 3.2070	 3.8150
 3.2090	 3.8150
 3.2110	 3.7960
 3.2130	 3.7490
 3.2150	 3.7510
 3.2170	 3.7860
 3.2190	 3.8280
 3.2210	 3.7990
 3.2230	 3.8120
 3.2250	 3.8530
 3.2270	 3.8830
 3.2290	 3.8220
 3.2310	 3.8190
 3.2330	 3.8120
 3.2350	 3.8760
 3.2370	 3.8740
 3.2390	 3.8440
 3.2410	 3.8110
 3.2430	 3.8610
 3.2450	 3.8740
 3.2470	 3.8720
 3.2490	 3.8700
 3.2510	 3.8540
 3.2530	 3.7930
 3.2550	 3.8160
 3.2570	 3.8900
 3.2590	 3.8810
 3.2610	 3.8700
 3.2630	 3.9600
 3.2650	 3.9470
 3.2670	 3.9090
 3.2690	 3.8720
 3.2720	 3.8930
 3.2740	 3.8930
 3.2760	 3.9080
 3.2780	 3.9230
 3.2800	 3.9560
 3.2820	 3.9800
 3.2840	 4.0360
 3.2860	 3.9660
 3.2880	 3.9210
 3.2900	 3.9150
 3.2920	 3.9620
 3.2940	 3.9400
 3.2960	 3.9620
 3.2990	 3.9380
 3.3010	 3.9560
 3.3030	 3.9920
 3.3050	 4.0280
 3.3070	 4.0050
 3.3090	 4.0580
 3.3110	 4.0530
 3.3130	 4.0110
 3.3150	 3.9610
 3.3180	 3.9740
 3.3200	 3.9550
 3.3220	 3.9670
 3.3240	 3.9630
 3.3260	 3.9690
 3.3280	 3.9610
 3.3300	 3.9660
 3.3330	 3.9140
 3.3350	 3.8900
 3.3370	 3.8760
 3.3390	 3.8840
 3.3410	 3.8880
 3.3430	 3.8750
 3.3450	 3.8610
 3.3480	 3.9540
 3.3500	 3.9640
 3.3520	 3.9400
 3.3540	 3.8940
 3.3560	 3.8450
 3.3580	 3.7870
 3.3610	 3.7890
 3.3630	 3.7750
 3.3650	 3.7950
 3.3670	 3.7530
 3.3690	 3.7530
 3.3720	 3.7750
 3.3740	 3.7670
 3.3760	 3.7230
 3.3780	 3.7150
 3.3800	 3.6760
 3.3830	 3.7210
 3.3850	 3.7770
 3.3870	 3.8250
 3.3890	 3.8050
 3.3910	 3.7800
 3.3940	 3.7200
 3.3960	 3.7680
 3.3980	 3.7840
 3.4000	 3.7860
 3.4020	 3.7750
 3.4050	 3.7990
 3.4070	 3.7820
 3.4090	 3.7630
 3.4110	 3.7560
 3.4140	 3.8150
 3.4160	 3.8530
 3.4180	 3.8550
 3.4200	 3.9090
 3.4230	 4.0370
 3.4250	 4.0540
 3.4270	 4.1210
 3.4290	 4.2390
 3.4320	 4.2530
 3.4340	 4.1680
 3.4360	 4.1750
 3.4390	 4.1730
 3.4410	 4.1590
 3.4430	 4.1470
 3.4450	 4.2000
 3.4480	 4.1800
 3.4500	 4.1890
 3.4520	 4.1880
 3.4550	 4.1900
 3.4570	 4.2080
 3.4590	 4.2640
 3.4620	 4.2550
 3.4640	 4.2570
 3.4660	 4.1920
 3.4680	 4.2090
 3.4710	 4.2450
 3.4730	 4.2640
 3.4750	 4.2760
 3.4780	 4.2980
 3.4800	 4.2140
 3.4820	 4.2250
 3.4850	 4.2490
 3.4870	 4.2650
 3.4890	 4.2280
 3.4920	 4.2570
 3.4940	 4.2570
 3.4970	 4.2170
 3.4990	 4.1990
 3.5010	 4.2640
 3.5040	 4.2870
 3.5060	 4.3560
 3.5080	 4.4940
 3.5110	 4.6320
 3.5130	 4.6600
 3.5160	 4.6630
 3.5180	 4.6480
 3.5200	 4.6810
 3.5230	 4.6490
 3.5250	 4.6660
 3.5270	 4.7040
 3.5300	 4.6980
 3.5320	 4.6550
 3.5350	 4.7310
 3.5370	 4.7590
 3.5400	 4.7640
 3.5420	 4.7610
 3.5440	 4.7900
 3.5470	 4.7580
 3.5490	 4.7360
 3.5520	 4.7410
 3.5540	 4.7860
 3.5570	 4.8010
 3.5590	 4.7920
 3.5610	 4.7790
 3.5640	 4.8210
 3.5660	 4.8010
 3.5690	 4.8640
 3.5710	 4.8780
 3.5740	 4.8330
 3.5760	 4.8070
 3.5790	 4.8240
 3.5810	 4.8520
 3.5840	 4.9310
 3.5860	 4.9250
 3.5890	 4.9150
 3.5910	 4.8880
 3.5930	 4.8620
 3.5960	 4.8530
 3.5980	 4.9080
 3.6010	 4.8970
 3.6030	 4.9350
 3.6060	 4.9390
 3.6080	 4.9200
 3.6110	 4.9160
 3.6140	 4.9540
 3.6160	 4.9400
 3.6190	 4.9390
 3.6210	 4.9150
 3.6240	 4.9400
 3.6260	 4.9770
 3.6290	 4.9590
 3.6310	 4.8940
 3.6340	 4.9230
 3.6360	 4.9110
 3.6390	 4.9360
 3.6410	 4.9560
 3.6440	 4.9670
 3.6470	 4.9880
 3.6490	 5.0570
 3.6520	 5.0070
 3.6540	 4.9920
 3.6570	 4.9900
 3.6590	 5.0210
 3.6620	 5.0100
 3.6650	 5.0590
 3.6670	 5.0620
 3.6700	 5.0670
 3.6720	 5.0700
 3.6750	 5.0840
 3.6780	 5.0400
 3.6800	 5.0800
 3.6830	 5.0820
 3.6850	 5.0640
 3.6880	 5.0720
 3.6910	 5.1030
 3.6930	 5.1020
 3.6960	 5.1250
 3.6990	 5.1180
 3.7010	 5.1470
 3.7040	 5.1150
 3.7060	 5.1200
 3.7090	 5.1160
 3.7120	 5.1570
 3.7140	 5.1440
 3.7170	 5.1540
 3.7200	 5.1510
 3.7220	 5.1610
 3.7250	 5.1540
 3.7280	 5.1990
 3.7300	 5.1970
 3.7330	 5.2000
 3.7360	 5.2210
 3.7390	 5.2320
 3.7410	 5.2170
 3.7440	 5.2610
 3.7470	 5.2720
 3.7490	 5.2740
 3.7520	 5.2470
 3.7550	 5.2390
 3.7580	 5.2590
 3.7600	 5.2620
 3.7630	 5.2490
 3.7660	 5.2930
 3.7680	 5.2600
 3.7710	 5.2580
 3.7740	 5.2710
 3.7770	 5.2870
 3.7790	 5.2600
 3.7820	 5.2710
 3.7850	 5.3230
 3.7880	 5.3630
 3.7900	 5.3280
 3.7930	 5.3940
 3.7960	 5.4360
 3.7990	 5.4030
 3.8020	 5.3540
 3.8040	 5.3640
 3.8070	 5.3270
 3.8100	 5.3630
 3.8130	 5.4270
 3.8160	 5.4660
 3.8180	 5.4590
 3.8210	 5.4640
 3.8240	 5.4040
 3.8270	 5.4450
 3.8300	 5.4860
 3.8330	 5.4450
 3.8350	 5.3950
 3.8380	 5.4430
 3.8410	 5.4570
 3.8440	 5.4960
 3.8470	 5.4820
 3.8500	 5.4160
 3.8520	 5.4230
 3.8550	 5.4890
 3.8580	 5.5210
 3.8610	 5.5340
 3.8640	 5.5380
 3.8670	 5.5700
 3.8700	 5.5680
 3.8730	 5.5610
 3.8750	 5.5440
 3.8780	 5.5430
 3.8810	 5.5290
 3.8840	 5.5850
 3.8870	 5.6330
 3.8900	 5.6290
 3.8930	 5.5870
 3.8960	 5.5920
 3.8990	 5.6000
 3.9020	 5.6390
 3.9050	 5.6160
 3.9080	 5.6220
 3.9110	 5.6390
 3.9140	 5.6620
 3.9160	 5.6140
 3.9190	 5.6170
 3.9220	 5.5610
 3.9250	 5.5570
 3.9280	 5.5750
 3.9310	 5.6270
 3.9340	 5.6540
 3.9370	 5.6730
 3.9400	 5.6540
 3.9430	 5.6620
 3.9460	 5.6080
 3.9490	 5.5890
 3.9520	 5.6410
 3.9550	 5.7200
 3.9580	 5.6650
 3.9610	 5.6390
 3.9640	 5.6510
 3.9670	 5.6750
 3.9700	 5.6470
 3.9730	 5.6600
 3.9770	 5.6690
 3.9800	 5.6650
 3.9830	 5.6910
 3.9860	 5.7210
 3.9890	 5.7080
 3.9920	 5.6780
 3.9950	 5.6220
 3.9980	 5.6490
 4.0010	 5.6980
 4.0040	 5.7300
 4.0070	 5.7000
 4.0100	 5.6640
 4.0130	 5.7030
 4.0170	 5.7930
 4.0200	 5.7680
 4.0230	 5.7270
 4.0260	 5.7380
 4.0290	 5.7630
 4.0320	 5.7900
 4.0350	 5.7910
 4.0380	 5.7610
 4.0420	 5.7660
 4.0450	 5.7810
 4.0480	 5.8380
 4.0510	 5.8210
 4.0540	 5.8090
 4.0570	 5.8490
 4.0610	 5.8400
 4.0640	 5.7870
 4.0670	 5.8370
 4.0700	 5.8700
 4.0730	 5.8550
 4.0770	 5.8300
 4.0800	 5.8480
 4.0830	 5.8170
 4.0860	 5.7800
 4.0890	 5.8230
 4.0930	 5.8890
 4.0960	 5.8810
 4.0990	 5.8850
 4.1020	 5.8580
 4.1060	 5.8460
 4.1090	 5.8130
 4.1120	 5.8270
 4.1150	 5.8700
 4.1190	 5.8850
 4.1220	 5.8820
 4.1250	 5.9020
 4.1280	 5.8890
 4.1320	 5.8430
 4.1350	 5.8280
 4.1380	 5.8760
 4.1420	 5.8630
 4.1450	 5.8590
 4.1480	 5.8480
 4.1520	 5.8460
 4.1550	 5.8520
 4.1580	 5.8600
 4.1620	 5.8250
 4.1650	 5.8230
 4.1680	 5.8690
 4.1720	 5.8810
 4.1750	 5.8920
 4.1780	 5.9230
 4.1820	 5.9110
 4.1850	 5.8740
 4.1890	 5.8460
 4.1920	 5.8140
 4.1950	 5.7410
 4.1990	 5.5950
 4.2020	 5.3740
 4.2060	 5.0520
 4.2090	 4.6430
 4.2120	 4.2600
 4.2160	 3.9100
 4.2190	 3.6190
 4.2230	 3.3540
 4.2260	 3.1980
 4.2300	 3.0320
 4.2330	 2.9200
 4.2360	 2.8770
 4.2400	 2.9180
 4.2430	 3.0270
 4.2470	 3.2340
 4.2500	 3.5670
 4.2540	 4.1030
 4.2570	 4.5270
 4.2610	 4.2780
 4.2640	 3.8220
 4.2680	 3.6370
 4.2710	 3.5650
 4.2750	 3.5470
 4.2780	 3.5150
 4.2820	 3.5650
 4.2850	 3.6080
 4.2890	 3.6490
 4.2930	 3.6960
 4.2960	 3.8200
 4.3000	 3.9180
 4.3030	 3.9660
 4.3070	 4.0410
 4.3100	 4.2250
 4.3140	 4.4370
 4.3180	 4.6120
 4.3210	 4.7280
 4.3250	 4.8640
 4.3280	 5.0250
 4.3320	 5.1670
 4.3360	 5.2700
 4.3390	 5.3800
 4.3430	 5.4630
 4.3470	 5.5150
 4.3500	 5.5530
 4.3540	 5.5570
 4.3570	 5.5870
 4.3610	 5.6830
 4.3650	 5.7330
 4.3680	 5.7370
 4.3720	 5.7170
 4.3760	 5.7230
 4.3800	 5.7620
 4.3830	 5.7880
 4.3870	 5.7950
 4.3910	 5.7580
 4.3940	 5.7610
 4.3980	 5.7540
 4.4020	 5.6930
 4.4060	 5.6850
 4.4090	 5.7340
 4.4130	 5.7110
 4.4170	 5.6950
 4.4210	 5.7110
 4.4240	 5.7280
 4.4280	 5.7550
 4.4320	 5.7100
 4.4360	 5.6910
 4.4400	 5.7370
 4.4430	 5.7790
 4.4470	 5.7520
 4.4510	 5.7430
 4.4550	 5.7130
 4.4590	 5.7130
 4.4620	 5.7410
 4.4660	 5.7700
 4.4700	 5.7870
 4.4740	 5.8250
 4.4780	 5.8080
 4.4820	 5.7520
 4.4860	 5.7960
 4.4900	 5.8450
 4.4930	 5.8240
 4.4970	 5.8020
 4.5010	 5.7890
 4.5050	 5.7790
 4.5090	 5.7660
 4.5130	 5.7700
 4.5170	 5.7690
 4.5210	 5.7780
 4.5250	 5.7870
 4.5290	 5.7980
 4.5330	 5.7890
 4.5370	 5.7810
 4.5410	 5.8110
 4.5450	 5.8040
 4.5490	 5.7420
 4.5530	 5.7610
 4.5570	 5.8210
 4.5610	 5.8190
 4.5650	 5.7890
 4.5690	 5.7930
 4.5730	 5.7890
 4.5770	 5.7870
 4.5810	 5.7840
 4.5850	 5.7780
 4.5890	 5.8200
 4.5930	 5.8460
 4.5970	 5.7930
 4.6010	 5.7470
 4.6050	 5.7690
 4.6090	 5.7760
 4.6130	 5.7670
 4.6170	 5.8070
 4.6220	 5.8220
 4.6260	 5.7930
 4.6300	 5.7840
 4.6340	 5.7960
 4.6380	 5.7930
 4.6420	 5.7760
 4.6460	 5.8240
 4.6510	 5.8440
 4.6550	 5.8180
 4.6590	 5.8250
 4.6630	 5.7730
 4.6670	 5.7460
 4.6720	 5.7780
 4.6760	 5.7940
 4.6800	 5.7810
 4.6840	 5.7770
 4.6880	 5.8070
 4.6930	 5.8110
 4.6970	 5.7890
 4.7010	 5.7380
 4.7050	 5.7160
 4.7100	 5.7410
 4.7140	 5.7680
 4.7180	 5.7720
 4.7230	 5.7730
 4.7270	 5.7900
 4.7310	 5.7580
 4.7360	 5.7250
 4.7400	 5.7630
 4.7440	 5.7710
 4.7490	 5.7860
 4.7530	 5.7630
 4.7570	 5.7560
 4.7620	 5.7910
 4.7660	 5.7650
 4.7700	 5.7200
 4.7750	 5.7070
 4.7790	 5.7160
 4.7840	 5.7510
 4.7880	 5.7600
 4.7920	 5.7490
 4.7970	 5.7520
 4.8010	 5.7460
 4.8060	 5.7540
 4.8100	 5.7480
 4.8150	 5.7480
 4.8190	 5.7850
 4.8240	 5.7630
 4.8280	 5.7310
 4.8330	 5.7130
 4.8370	 5.7140
 4.8420	 5.6990
 4.8460	 5.7230
 4.8510	 5.7490
 4.8550	 5.7180
 4.8600	 5.7150
 4.8640	 5.7410
 4.8690	 5.7110
 4.8730	 5.7040
 4.8780	 5.7060
 4.8830	 5.6840
 4.8870	 5.6620
 4.8920	 5.7240
 4.8960	 5.7780
 4.9010	 5.7930
 4.9060	 5.7500
 4.9100	 5.6530
 4.9150	 5.6330
 4.9200	 5.7040
 4.9240	 5.6640
 4.9290	 5.6440
 4.9340	 5.6760
 4.9380	 5.6660
 4.9430	 5.6070
 4.9480	 5.6410
 4.9530	 5.7110
 4.9570	 5.7070
 4.9620	 5.6700
 4.9670	 5.6710
 4.9720	 5.6770
 4.9760	 5.7250
 4.9810	 5.6930
 4.9860	 5.6410
 4.9910	 5.6440
 4.9960	 5.6950
 5.0000	 5.7330
 5.0050	 5.6830
 5.0100	 5.6410
 5.0150	 5.6860
 5.0200	 5.6820
 5.0250	 5.6480
 5.0290	 5.6750
 5.0340	 5.7150
 5.0390	 5.6730
 5.0440	 5.7080
 5.0490	 5.7210
 5.0540	 5.7010
 5.0590	 5.6300
 5.0640	 5.6190
 5.0690	 5.6360
 5.0740	 5.6500
 5.0790	 5.6650
 5.0840	 5.6770
 5.0890	 5.6840
 5.0940	 5.7030
 5.0990	 5.7020
 5.1040	 5.7000
 5.1090	 5.6810
 5.1140	 5.7030
 5.1190	 5.7030
 5.1240	 5.6570
 5.1290	 5.6670
 5.1340	 5.7070
 5.1390	 5.7100
 5.1440	 5.6910
 5.1490	 5.6540
 5.1540	 5.6860
 5.1600	 5.7160
 5.1650	 5.6980
 5.1700	 5.7250
 5.1750	 5.7760
 5.1800	 5.7190
 5.1850	 5.6750
 5.1910	 5.6760
 5.1960	 5.7140
 5.2010	 5.7150
 5.2060	 5.7050
 5.2110	 5.7080
 5.2170	 5.6900
 5.2220	 5.6630
 5.2270	 5.6550
 5.2320	 5.6620
 5.2380	 5.6990
 5.2430	 5.6940
 5.2480	 5.7150
 5.2540	 5.6890
 5.2590	 5.6880
 5.2640	 5.7010
 5.2700	 5.7200
 5.2750	 5.6450
 5.2800	 5.6500
 5.2860	 5.6500
 5.2910	 5.6190
 5.2970	 5.6510
 5.3020	 5.6860
 5.3070	 5.6140
 5.3130	 5.6160
 5.3180	 5.6390
 5.3240	 5.6360
 5.3290	 5.6070
 5.3350	 5.6630
 5.3400	 5.7090
 5.3460	 5.6760
 5.3510	 5.5840
 5.3570	 5.5800
 5.3620	 5.6090
 5.3680	 5.6940
 5.3730	 5.6610
 5.3790	 5.5930
 5.3850	 5.6260
 5.3900	 5.6860
 5.3960	 5.6420
 5.4010	 5.6260
 5.4070	 5.5890
 5.4130	 5.5920
 5.4180	 5.5920
 5.4240	 5.5860
 5.4300	 5.5570
 5.4350	 5.5950
 5.4410	 5.5540
 5.4470	 5.5500
 5.4530	 5.5920
 5.4580	 5.6060
 5.4640	 5.5750
 5.4700	 5.5700
 5.4760	 5.5140
 5.4810	 5.5180
 5.4870	 5.4960
 5.4930	 5.4900
 5.4990	 5.4620
 5.5050	 5.4710
 5.5110	 5.4510
 5.5160	 5.4260
 5.5220	 5.3880
 5.5280	 5.4260
 5.5340	 5.4170
 5.5400	 5.3970
 5.5460	 5.3790
 5.5520	 5.3210
 5.5580	 5.2550
 5.5640	 5.2440
 5.5700	 5.2150
 5.5760	 5.2350
 5.5820	 5.2130
 5.5880	 5.2220
 5.5940	 5.1820
 5.6000	 5.1740
 5.6060	 5.1700
 5.6120	 5.1410
 5.6180	 5.0970
 5.6240	 5.1090
 5.6300	 5.0520
 5.6360	 4.9740
 5.6420	 4.9220
 5.6490	 4.9510
 5.6550	 4.9810
 5.6610	 5.0310
 5.6670	 4.9010
 5.6730	 4.8310
 5.6800	 4.7930
 5.6860	 4.8180
 5.6920	 4.7780
 5.6980	 4.7570
 5.7040	 4.7200
 5.7110	 4.7290
 5.7170	 4.6680
 5.7230	 4.6500
 5.7300	 4.5910
 5.7360	 4.5640
 5.7420	 4.5870
 5.7490	 4.6210
 5.7550	 4.6010
 5.7620	 4.6250
 5.7680	 4.6640
 5.7740	 4.7360
 5.7810	 4.7500
 5.7870	 4.8250
 5.7940	 4.8250
 5.8000	 4.8040
 5.8070	 4.7360
 5.8130	 4.7300
 5.8200	 4.7360
 5.8260	 4.8190
 5.8330	 4.8290
 5.8390	 4.8370
 5.8460	 4.8270
 5.8530	 4.8310
 5.8590	 4.8110
 5.8660	 4.8160
 5.8720	 4.8140
 5.8790	 4.7810
 5.8860	 4.7290
 5.8920	 4.7580
 5.8990	 4.7290
 5.9060	 4.7530
 5.9130	 4.7750
 5.9190	 4.7500
 5.9260	 4.6580
 5.9330	 4.6510
 5.9400	 4.6740
 5.9470	 4.7300
 5.9530	 4.7040
 5.9600	 4.7000
 5.9670	 4.6640
 5.9740	 4.6300
 5.9810	 4.5600
 5.9880	 4.5400
 5.9950	 4.5050
 6.0020	 4.5340
 6.0090	 4.5390
 6.0160	 4.5820
 6.0230	 4.5630
 6.0300	 4.5640
 6.0370	 4.5310
 6.0440	 4.4620
 6.0510	 4.3570
 6.0580	 4.4250
 6.0650	 4.4720
 6.0720	 4.4600
 6.0790	 4.4310
 6.0860	 4.4810
 6.0930	 4.4620
 6.1000	 4.4880
 6.1080	 4.4450
 6.1150	 4.4260
 6.1220	 4.4100
 6.1290	 4.4510
 6.1370	 4.3970
 6.1440	 4.4180
 6.1510	 4.3970
 6.1580	 4.3860
 6.1660	 4.3700
 6.1730	 4.3910
 6.1800	 4.3420
 6.1880	 4.3260
 6.1950	 4.2890
 6.2030	 4.3570
 6.2100	 4.3760
 6.2170	 4.3930
 6.2250	 4.3900
 6.2320	 4.3950
 6.2400	 4.3890
 6.2470	 4.4360
 6.2550	 4.3830
 6.2630	 4.4050
 6.2700	 4.4460
 6.2780	 4.5090
 6.2850	 4.4650
 6.2930	 4.4650
 6.3010	 4.4640
 6.3080	 4.5520
 6.3160	 4.5530
 6.3240	 4.5460
 6.3310	 4.5060
 6.3390	 4.5230
 6.3470	 4.5180
 6.3550	 4.5640
 6.3620	 4.5200
 6.3700	 4.5430
 6.3780	 4.5720
 6.3860	 4.6120
 6.3940	 4.5670
 6.4020	 4.5910
 6.4100	 4.5250
 6.4180	 4.5450
 6.4260	 4.5640
 6.4330	 4.6150
 6.4410	 4.6400
 6.4490	 4.7050
 6.4580	 4.6830
 6.4660	 4.6980
 6.4740	 4.6580
 6.4820	 4.7090
 6.4900	 4.6210
 6.4980	 4.6100
 6.5060	 4.6780
 6.5140	 4.7660
 6.5230	 4.7420
 6.5310	 4.7780
 6.5390	 4.7400
 6.5470	 4.7520
 6.5550	 4.7490
 6.5640	 4.7370
 6.5720	 4.6630
 6.5800	 4.7130
 6.5890	 4.7130
 6.5970	 4.7210
 6.6060	 4.6770
 6.6140	 4.6710
 6.6220	 4.6670
 6.6310	 4.6550
 6.6390	 4.6250
 6.6480	 4.7130
 6.6560	 4.7120
 6.6650	 4.7030
 6.6740	 4.6630
 6.6820	 4.6560
 6.6910	 4.5990
 6.6990	 4.6080
 6.7080	 4.5580
 6.7170	 4.5710
 6.7260	 4.5600
 6.7340	 4.6150
 6.7430	 4.5420
 6.7520	 4.5030
 6.7610	 4.4150
 6.7690	 4.4200
 6.7780	 4.3600
 6.7870	 4.3150
 6.7960	 4.2550
 6.8050	 4.3000
 6.8140	 4.3130
 6.8230	 4.3700
 6.8320	 4.3720
 6.8410	 4.4140
 6.8500	 4.3630
 6.8590	 4.3390
 6.8680	 4.3090
 6.8770	 4.3350
 6.8860	 4.3120
 6.8950	 4.3550
 6.9050	 4.3200
 6.9140	 4.3710
 6.9230	 4.3760
 6.9320	 4.3680
 6.9420	 4.3580
 6.9510	 4.4150
 6.9600	 4.3280
 6.9700	 4.3620
 6.9790	 4.3660
 6.9880	 4.3800
 6.9980	 4.2880
 7.0070	 4.3170
 7.0170	 4.3260
 7.0260	 4.3340
 7.0360	 4.2870
 7.0450	 4.2970
 7.0550	 4.3000
 7.0650	 4.3870
 7.0740	 4.3360
 7.0840	 4.3080
 7.0940	 4.2480
 7.1030	 4.2860
 7.1130	 4.2870
 7.1230	 4.3160
 7.1330	 4.2560
 7.1420	 4.3190
 7.1520	 4.2950
 7.1620	 4.3010
 7.1720	 4.2550
 7.1820	 4.2570
 7.1920	 4.1560
 7.2020	 4.1760
 7.2120	 4.2650
 7.2220	 4.3260
 7.2320	 4.2670
 7.2420	 4.3210
 7.2520	 4.2920
 7.2620	 4.3130
 7.2730	 4.3040
 7.2830	 4.3350
 7.2930	 4.2770
 7.3030	 4.2990
 7.3140	 4.2660
 7.3240	 4.3430
 7.3340	 4.3370
 7.3450	 4.2970
 7.3550	 4.2510
 7.3660	 4.3190
 7.3760	 4.3030
 7.3870	 4.3640
 7.3970	 4.3430
 7.4080	 4.3860
 7.4180	 4.3580
 7.4290	 4.3820
 7.4400	 4.3540
 7.4500	 4.4150
 7.4610	 4.3950
 7.4720	 4.4220
 7.4830	 4.3780
 7.4930	 4.4150
 7.5040	 4.3470
 7.5150	 4.3790
 7.5260	 4.3590
 7.5370	 4.3030
 7.5480	 4.2500
 7.5590	 4.3540
 7.5700	 4.3060
 7.5810	 4.3180
 7.5920	 4.2840
 7.6030	 4.3000
 7.6140	 4.2260
 7.6260	 4.2430
 7.6370	 4.2230
 7.6480	 4.2690
 7.6590	 4.2150
 7.6710	 4.2540
 7.6820	 4.2150
 7.6930	 4.2520
 7.7050	 4.2250
 7.7160	 4.2450
 7.7280	 4.1780
 7.7390	 4.1420
 7.7510	 4.1160
 7.7630	 4.2050
 7.7740	 4.1580
 7.7860	 4.1480
 7.7980	 4.0880
 7.8090	 4.1040
 7.8210	 4.0890
 7.8330	 4.1360
 7.8450	 4.0610
 7.8570	 4.0260
 7.8690	 3.9730
 7.8810	 3.9970
 7.8930	 3.8660
 7.9050	 3.8320
 7.9170	 3.7760
 7.9290	 3.8280
 7.9410	 3.7300
 7.9530	 3.7150
 7.9650	 3.6990
 7.9780	 3.7610
 7.9900	 3.6820
 8.0020	 3.6520
 8.0150	 3.5500
 8.0270	 3.5560
 8.0390	 3.4700
 8.0520	 3.4060
 8.0640	 3.2740
 8.0770	 3.2570
 8.0900	 3.1820
 8.1020	 3.1730
 8.1150	 3.0990
 8.1280	 3.1120
 8.1400	 3.0160
 8.1530	 3.0490
 8.1660	 3.0070
 8.1790	 3.0760
 8.1920	 3.0240
 8.2050	 3.0110
 8.2180	 2.9610
 8.2310	 3.0090
 8.2440	 3.0050
 8.2570	 3.0840
 8.2700	 3.0420
 8.2830	 3.0660
 8.2970	 3.0180
 8.3100	 3.0530
 8.3230	 3.0360
 8.3370	 3.0720
 8.3500	 3.0160
 8.3640	 3.1200
 8.3770	 3.1130
 8.3910	 3.1640
 8.4040	 3.0850
 8.4180	 3.0580
 8.4320	 3.0050
 8.4450	 3.0190
 8.4590	 2.9450
 8.4730	 2.9960
 8.4870	 3.0300
 8.5010	 3.1690
 8.5150	 3.1730
 8.5290	 3.2000
 8.5430	 3.1190
 8.5570	 3.1690
 8.5710	 3.1880
 8.5850	 3.2430
 8.5990	 3.1440
 8.6140	 3.1510
 8.6280	 3.1050
 8.6420	 3.1380
 8.6570	 3.0900
 8.6710	 3.1560
 8.6860	 3.1220
 8.7000	 3.1870
 8.7150	 3.1250
 8.7300	 3.1160
 8.7440	 3.0790
 8.7590	 3.1390
 8.7740	 3.1090
 8.7890	 3.1440
 8.8040	 3.0290
 8.8190	 3.0600
 8.8340	 3.0010
 8.8490	 3.0970
 8.8640	 3.0750
 8.8790	 3.1480
 8.8940	 3.1000
 8.9100	 3.0630
 8.9250	 3.0170
 8.9400	 3.1320
 8.9560	 3.0800
 8.9710	 3.0520
 8.9870	 2.9400
 9.0020	 2.9770
 9.0180	 2.9170
 9.0340	 2.9580
 9.0500	 2.9370
 9.0650	 2.9810
 9.0810	 2.9150
 9.0970	 2.9660
 9.1130	 2.9500
 9.1290	 2.9870
 9.1450	 2.9000
 9.1610	 2.9560
 9.1780	 2.9450
 9.1940	 2.9800
 9.2100	 2.8690
 9.2270	 2.9300
 9.2430	 2.9030
 9.2600	 2.9510
 9.2760	 2.9110
 9.2930	 2.9600
 9.3090	 2.9110
 9.3260	 2.9550
 9.3430	 2.8790
 9.3600	 2.9440
 9.3770	 2.9030
 9.3940	 2.9540
 9.4110	 2.8920
 9.4280	 2.8880
 9.4450	 2.8470
 9.4620	 2.9190
 9.4800	 2.8730
 9.4970	 2.9290
 9.5140	 2.8720
 9.5320	 2.9080
 9.5500	 2.8910
 9.5670	 3.0030
 9.5850	 2.9450
 9.6030	 3.0220
 9.6200	 2.9920
 9.6380	 3.0990
 9.6560	 3.0740
 9.6740	 3.1240
 9.6920	 3.0590
 9.7100	 3.0950
 9.7290	 3.0400
 9.7470	 3.1040
 9.7650	 3.0810
 9.7840	 3.1780
 9.8020	 3.1110
 9.8210	 3.1620
 9.8390	 3.1120
 9.8580	 3.2360
 9.8770	 3.2740
 9.8960	 3.2620
 9.9150	 3.1380
 9.9340	 3.2080
 9.9530	 3.2080
 9.9720	 3.2580
 9.9910	 3.2230
10.0100	 3.3160
10.0300	 3.2880
10.0490	 3.3990
10.0690	 3.3640
10.0880	 3.4020
10.1080	 3.3390
10.1280	 3.4290
10.1480	 3.4290
10.1670	 3.4990
10.1870	 3.4180
10.2070	 3.4310
10.2280	 3.3050
10.2480	 3.3500
10.2680	 3.3070
10.2890	 3.3560
10.3090	 3.3350
10.3300	 3.3970
10.3500	 3.2980
10.3710	 3.3870
10.3920	 3.3570
10.4120	 3.3660
10.4330	 3.2470
10.4540	 3.2960
10.4760	 3.2790
10.4970	 3.3220
10.5180	 3.2400
10.5390	 3.2690
10.5610	 3.1960
10.5820	 3.2950
10.6040	 3.2280
10.6260	 3.2490
10.6480	 3.2000
10.6700	 3.2160
10.6920	 3.1220
10.7140	 3.2150
10.7360	 3.1880
10.7580	 3.2070
10.7800	 3.0730
10.8030	 3.1570
10.8250	 3.1020
10.8480	 3.1640
10.8710	 3.1100
10.8940	 3.1200
10.9170	 2.9850
10.9400	 3.0640
10.9630	 3.0460
10.9860	 3.1370
11.0090	 3.0470
11.0330	 3.0870
11.0560	 3.0370
11.0800	 3.0510
11.1040	 2.9800
11.1270	 3.0870
11.1510	 3.0140
11.1750	 3.0480
11.2000	 2.9370
11.2240	 2.9810
11.2480	 2.9140
11.2730	 2.9590
11.2970	 2.8430
11.3220	 2.9250
11.3470	 2.8260
11.3720	 2.8160
11.3970	 2.7770
11.4220	 2.9360
11.4470	 2.8870
11.4720	 2.9680
11.4980	 2.9220
11.5230	 2.9370
11.5490	 2.8050
11.5750	 2.8410
11.6000	 2.7260
11.6260	 2.7770
11.6530	 2.7620
11.6790	 2.8270
11.7050	 2.7660
11.7320	 2.8420
11.7580	 2.7520
11.7850	 2.8250
11.8120	 2.7410
11.8390	 2.7570
11.8660	 2.6790
11.8930	 2.7790
11.9200	 2.7030
11.9480	 2.7130
11.9760	 2.5960
12.0030	 2.6510
12.0310	 2.5390
12.0590	 2.6170
12.0870	 2.5280
12.1150	 2.6050
12.1440	 2.5290
12.1720	 2.5550
12.2010	 2.4210
12.2300	 2.4790
12.2590	 2.3810
12.2880	 2.4510
12.3170	 2.4430
12.3460	 2.5070
12.3760	 2.4030
12.4050	 2.4110
12.4350	 2.2900
12.4650	 2.3840
12.4950	 2.3730
12.5250	 2.4770
12.5550	 2.3620
12.5860	 2.4350
12.6170	 2.3970
12.6470	 2.5110
12.6780	 2.4300
12.7090	 2.4590
12.7410	 2.3610
12.7720	 2.4100
12.8030	 2.3510
12.8350	 2.4330
12.8670	 2.3560
12.8990	 2.3920
12.9310	 2.3030
12.9640	 2.3790
12.9960	 2.3140
13.0290	 2.3820
13.0610	 2.2270
13.0940	 2.3030
13.1280	 2.2520
13.1610	 2.3440
13.1940	 2.2330
13.2280	 2.2280
13.2620	 2.1420
13.2960	 2.2580
13.3300	 2.1820
13.3640	 2.2580
13.3990	 2.1070
13.4340	 2.1070
13.4690	 2.0480
13.5040	 2.1250
13.5390	 2.0420
13.5740	 2.0960
13.6100	 1.9950
13.6460	 2.0390
13.6820	 1.9110
13.7180	 2.0220
13.7540	 1.9790
13.7910	 2.0260
13.8280	 1.8950
13.8650	 1.9480
13.9020	 1.8220
13.9390	 1.9220
13.9770	 1.8220
14.0150	 1.8690
14.0530	 1.7530
14.0910	 1.7730
14.1290	 1.6710
14.1680	 1.7580
14.2070	 1.6640
14.2460	 1.7490
14.2850	 1.6220
14.3240	 1.6530
14.3640	 1.5150
14.4040	 1.5790
14.4440	 1.4650
14.4840	 1.5380
14.5250	 1.4530
14.5660	 1.5220
14.6070	 1.3910
14.6480	 1.4590
14.6900	 1.3430
14.7310	 1.4210
14.7730	 1.2640
14.8150	 1.3350
14.8580	 1.2500
14.9010	 1.3060
14.9440	 0.9360
14.9870	 0.9330
15.0300	 1.0380
15.0740	 1.1250
15.1180	 1.0510
15.1620	 1.1950
15.2060	 1.0880
15.2510	 1.1540
15.2960	 1.0570
15.3410	 1.1170
15.3870	 0.9740
