Name: Baccharis pilularis 1
Type: vegetation
Class: Shrub
Genus: Baccharis
Species: pilularis
Sample No.: VH194
Owner: UCSB
Wavelength Range: VSWIR
Origin: 34.4186; -119.8458; WGS84
Collection Date: 10/13/2013
Description: Samples were collected as part of the HyspIRI Airborne Campaign. 48 individual plants were sampled in three times in 2013 - spring  summer  and fall. The name of the sample includes a 1  2  or 3 which references a different individual of the species. Samples were taken to JPL and processed within 48 hours of collection. The same leaves were processed in the Nicolet and then measured using the ASD.
Measurement: Bidirectional reflectance
First Column: X
Second Column: Y
X Units: Wavelength (micrometers)
Y Units: Reflectance (percentage)
First X Value: 0.35
Last X Value: 2.5
Number of X Values: 2151
Additional Information: vegetation.shrub.baccharis.pilularis.vswir.vh194.ucsb.asd.ancillary.txt

 0.3500	 5.5000
 0.3510	 5.8100
 0.3520	 5.8980
 0.3530	 5.9470
 0.3540	 6.1100
 0.3550	 5.9890
 0.3560	 5.9000
 0.3570	 5.9310
 0.3580	 6.0170
 0.3590	 5.9140
 0.3600	 5.7840
 0.3610	 5.7690
 0.3620	 5.9260
 0.3630	 6.1430
 0.3640	 6.1690
 0.3650	 5.9120
 0.3660	 5.9170
 0.3670	 5.9660
 0.3680	 5.9770
 0.3690	 5.9790
 0.3700	 6.0750
 0.3710	 6.1540
 0.3720	 6.1430
 0.3730	 6.0790
 0.3740	 6.0000
 0.3750	 5.9760
 0.3760	 6.0450
 0.3770	 6.0760
 0.3780	 6.0690
 0.3790	 6.0480
 0.3800	 6.0530
 0.3810	 6.0990
 0.3820	 6.1340
 0.3830	 6.1010
 0.3840	 5.9190
 0.3850	 6.0100
 0.3860	 6.2580
 0.3870	 6.3640
 0.3880	 6.2750
 0.3890	 6.1940
 0.3900	 6.1950
 0.3910	 6.2080
 0.3920	 6.2660
 0.3930	 6.3580
 0.3940	 6.4470
 0.3950	 6.4440
 0.3960	 6.4960
 0.3970	 6.5860
 0.3980	 6.6250
 0.3990	 6.5810
 0.4000	 6.5490
 0.4010	 6.5870
 0.4020	 6.6910
 0.4030	 6.7080
 0.4040	 6.7000
 0.4050	 6.7500
 0.4060	 6.8280
 0.4070	 6.8760
 0.4080	 6.8930
 0.4090	 6.9150
 0.4100	 6.9390
 0.4110	 6.9900
 0.4120	 7.0590
 0.4130	 7.0670
 0.4140	 7.1080
 0.4150	 7.1640
 0.4160	 7.1940
 0.4170	 7.2170
 0.4180	 7.2470
 0.4190	 7.2830
 0.4200	 7.3150
 0.4210	 7.3650
 0.4220	 7.4220
 0.4230	 7.4720
 0.4240	 7.5080
 0.4250	 7.5360
 0.4260	 7.5590
 0.4270	 7.5780
 0.4280	 7.5940
 0.4290	 7.6290
 0.4300	 7.6790
 0.4310	 7.6940
 0.4320	 7.7170
 0.4330	 7.7410
 0.4340	 7.7600
 0.4350	 7.7930
 0.4360	 7.8290
 0.4370	 7.8550
 0.4380	 7.8640
 0.4390	 7.8910
 0.4400	 7.9160
 0.4410	 7.9280
 0.4420	 7.9400
 0.4430	 7.9830
 0.4440	 8.0360
 0.4450	 8.0610
 0.4460	 8.0820
 0.4470	 8.0970
 0.4480	 8.1130
 0.4490	 8.1460
 0.4500	 8.1690
 0.4510	 8.1790
 0.4520	 8.1870
 0.4530	 8.2100
 0.4540	 8.2440
 0.4550	 8.2690
 0.4560	 8.2680
 0.4570	 8.2860
 0.4580	 8.3050
 0.4590	 8.3170
 0.4600	 8.3560
 0.4610	 8.3600
 0.4620	 8.3580
 0.4630	 8.3930
 0.4640	 8.3960
 0.4650	 8.3970
 0.4660	 8.4160
 0.4670	 8.4530
 0.4680	 8.4520
 0.4690	 8.4420
 0.4700	 8.4530
 0.4710	 8.4730
 0.4720	 8.4830
 0.4730	 8.4910
 0.4740	 8.5120
 0.4750	 8.5260
 0.4760	 8.5440
 0.4770	 8.5630
 0.4780	 8.5460
 0.4790	 8.5530
 0.4800	 8.5760
 0.4810	 8.5920
 0.4820	 8.6020
 0.4830	 8.6140
 0.4840	 8.6280
 0.4850	 8.6330
 0.4860	 8.6600
 0.4870	 8.6830
 0.4880	 8.6880
 0.4890	 8.6980
 0.4900	 8.7300
 0.4910	 8.7680
 0.4920	 8.7850
 0.4930	 8.7840
 0.4940	 8.8110
 0.4950	 8.8700
 0.4960	 8.9140
 0.4970	 8.9650
 0.4980	 9.0110
 0.4990	 9.0410
 0.5000	 9.0860
 0.5010	 9.1350
 0.5020	 9.1900
 0.5030	 9.2650
 0.5040	 9.3370
 0.5050	 9.4130
 0.5060	 9.5000
 0.5070	 9.5950
 0.5080	 9.6860
 0.5090	 9.7800
 0.5100	 9.8910
 0.5110	10.0230
 0.5120	10.1620
 0.5130	10.3050
 0.5140	10.4640
 0.5150	10.6180
 0.5160	10.7780
 0.5170	10.9580
 0.5180	11.1470
 0.5190	11.3420
 0.5200	11.5420
 0.5210	11.7430
 0.5220	11.9520
 0.5230	12.1560
 0.5240	12.3480
 0.5250	12.5370
 0.5260	12.7240
 0.5270	12.9050
 0.5280	13.0720
 0.5290	13.2260
 0.5300	13.3780
 0.5310	13.5250
 0.5320	13.6460
 0.5330	13.7530
 0.5340	13.8560
 0.5350	13.9610
 0.5360	14.0470
 0.5370	14.1280
 0.5380	14.2040
 0.5390	14.2660
 0.5400	14.3190
 0.5410	14.3660
 0.5420	14.4110
 0.5430	14.4600
 0.5440	14.5110
 0.5450	14.5650
 0.5460	14.6210
 0.5470	14.6730
 0.5480	14.7240
 0.5490	14.7710
 0.5500	14.8080
 0.5510	14.8380
 0.5520	14.8640
 0.5530	14.8860
 0.5540	14.8900
 0.5550	14.8850
 0.5560	14.8670
 0.5570	14.8280
 0.5580	14.7860
 0.5590	14.7390
 0.5600	14.6830
 0.5610	14.6070
 0.5620	14.5260
 0.5630	14.4400
 0.5640	14.3420
 0.5650	14.2380
 0.5660	14.1320
 0.5670	14.0220
 0.5680	13.9040
 0.5690	13.7860
 0.5700	13.6630
 0.5710	13.5390
 0.5720	13.4280
 0.5730	13.3240
 0.5740	13.2230
 0.5750	13.1240
 0.5760	13.0380
 0.5770	12.9590
 0.5780	12.8810
 0.5790	12.8110
 0.5800	12.7380
 0.5810	12.6670
 0.5820	12.6060
 0.5830	12.5410
 0.5840	12.4810
 0.5850	12.4330
 0.5860	12.3940
 0.5870	12.3470
 0.5880	12.3020
 0.5890	12.2640
 0.5900	12.2270
 0.5910	12.1960
 0.5920	12.1680
 0.5930	12.1380
 0.5940	12.1210
 0.5950	12.1110
 0.5960	12.1020
 0.5970	12.0860
 0.5980	12.0680
 0.5990	12.0500
 0.6000	12.0320
 0.6010	12.0110
 0.6020	11.9830
 0.6030	11.9500
 0.6040	11.9150
 0.6050	11.8760
 0.6060	11.8320
 0.6070	11.7820
 0.6080	11.7280
 0.6090	11.6680
 0.6100	11.6010
 0.6110	11.5330
 0.6120	11.4730
 0.6130	11.4200
 0.6140	11.3710
 0.6150	11.3230
 0.6160	11.2710
 0.6170	11.2240
 0.6180	11.1870
 0.6190	11.1510
 0.6200	11.1160
 0.6210	11.0870
 0.6220	11.0660
 0.6230	11.0420
 0.6240	11.0240
 0.6250	11.0180
 0.6260	11.0100
 0.6270	11.0030
 0.6280	10.9990
 0.6290	10.9950
 0.6300	10.9860
 0.6310	10.9840
 0.6320	10.9890
 0.6330	10.9810
 0.6340	10.9660
 0.6350	10.9450
 0.6360	10.9200
 0.6370	10.8910
 0.6380	10.8480
 0.6390	10.7990
 0.6400	10.7570
 0.6410	10.7050
 0.6420	10.6480
 0.6430	10.5910
 0.6440	10.5400
 0.6450	10.4850
 0.6460	10.4300
 0.6470	10.3770
 0.6480	10.3210
 0.6490	10.2740
 0.6500	10.2380
 0.6510	10.2090
 0.6520	10.1800
 0.6530	10.1480
 0.6540	10.1150
 0.6550	10.0900
 0.6560	10.0570
 0.6570	10.0170
 0.6580	 9.9760
 0.6590	 9.9350
 0.6600	 9.8930
 0.6610	 9.8520
 0.6620	 9.8130
 0.6630	 9.7740
 0.6640	 9.7390
 0.6650	 9.7090
 0.6660	 9.6780
 0.6670	 9.6580
 0.6680	 9.6470
 0.6690	 9.6350
 0.6700	 9.6290
 0.6710	 9.6270
 0.6720	 9.6290
 0.6730	 9.6400
 0.6740	 9.6470
 0.6750	 9.6590
 0.6760	 9.6830
 0.6770	 9.7100
 0.6780	 9.7360
 0.6790	 9.7660
 0.6800	 9.8060
 0.6810	 9.8510
 0.6820	 9.9010
 0.6830	 9.9580
 0.6840	10.0270
 0.6850	10.1080
 0.6860	10.2010
 0.6870	10.3090
 0.6880	10.4590
 0.6890	10.6310
 0.6900	10.8300
 0.6910	11.0800
 0.6920	11.3820
 0.6930	11.7360
 0.6940	12.1400
 0.6950	12.5990
 0.6960	13.1170
 0.6970	13.6880
 0.6980	14.3090
 0.6990	14.9770
 0.7000	15.6870
 0.7010	16.4350
 0.7020	17.2150
 0.7030	18.0090
 0.7040	18.8200
 0.7050	19.6470
 0.7060	20.4820
 0.7070	21.3150
 0.7080	22.1530
 0.7090	23.0090
 0.7100	23.8500
 0.7110	24.6820
 0.7120	25.5080
 0.7130	26.3280
 0.7140	27.1460
 0.7150	27.9540
 0.7160	28.7460
 0.7170	29.5240
 0.7180	30.2920
 0.7190	31.0420
 0.7200	31.7710
 0.7210	32.4860
 0.7220	33.1780
 0.7230	33.8470
 0.7240	34.4970
 0.7250	35.1180
 0.7260	35.7150
 0.7270	36.2930
 0.7280	36.8300
 0.7290	37.3510
 0.7300	37.8490
 0.7310	38.3110
 0.7320	38.7650
 0.7330	39.1900
 0.7340	39.5810
 0.7350	39.9500
 0.7360	40.2960
 0.7370	40.6250
 0.7380	40.9390
 0.7390	41.2340
 0.7400	41.5050
 0.7410	41.7570
 0.7420	41.9930
 0.7430	42.2190
 0.7440	42.4270
 0.7450	42.6170
 0.7460	42.7940
 0.7470	42.9520
 0.7480	43.1070
 0.7490	43.2610
 0.7500	43.3790
 0.7510	43.5020
 0.7520	43.6160
 0.7530	43.7000
 0.7540	43.8100
 0.7550	43.9020
 0.7560	43.9720
 0.7570	44.0430
 0.7580	44.1200
 0.7590	44.1880
 0.7600	44.2440
 0.7610	44.3030
 0.7620	44.3490
 0.7630	44.3940
 0.7640	44.4520
 0.7650	44.4910
 0.7660	44.5330
 0.7670	44.5780
 0.7680	44.6130
 0.7690	44.6270
 0.7700	44.6490
 0.7710	44.6910
 0.7720	44.7300
 0.7730	44.7550
 0.7740	44.7810
 0.7750	44.8170
 0.7760	44.8420
 0.7770	44.8760
 0.7780	44.9090
 0.7790	44.9230
 0.7800	44.9500
 0.7810	44.9710
 0.7820	44.9880
 0.7830	45.0290
 0.7840	45.0500
 0.7850	45.0840
 0.7860	45.1370
 0.7870	45.1420
 0.7880	45.1520
 0.7890	45.1780
 0.7900	45.2180
 0.7910	45.2460
 0.7920	45.2780
 0.7930	45.3120
 0.7940	45.3310
 0.7950	45.3520
 0.7960	45.3740
 0.7970	45.3990
 0.7980	45.4310
 0.7990	45.4620
 0.8000	45.4840
 0.8010	45.5010
 0.8020	45.5300
 0.8030	45.5620
 0.8040	45.5850
 0.8050	45.5970
 0.8060	45.6470
 0.8070	45.6820
 0.8080	45.6910
 0.8090	45.7110
 0.8100	45.7430
 0.8110	45.7810
 0.8120	45.8160
 0.8130	45.8280
 0.8140	45.8500
 0.8150	45.8780
 0.8160	45.9050
 0.8170	45.9370
 0.8180	45.9640
 0.8190	45.9840
 0.8200	46.0040
 0.8210	46.0350
 0.8220	46.0650
 0.8230	46.0940
 0.8240	46.1300
 0.8250	46.1580
 0.8260	46.1770
 0.8270	46.1910
 0.8280	46.2080
 0.8290	46.2290
 0.8300	46.2490
 0.8310	46.2630
 0.8320	46.2890
 0.8330	46.3220
 0.8340	46.3590
 0.8350	46.3970
 0.8360	46.4180
 0.8370	46.4340
 0.8380	46.4500
 0.8390	46.4650
 0.8400	46.4900
 0.8410	46.5190
 0.8420	46.5500
 0.8430	46.5910
 0.8440	46.5940
 0.8450	46.6020
 0.8460	46.6460
 0.8470	46.6780
 0.8480	46.6950
 0.8490	46.7110
 0.8500	46.7410
 0.8510	46.7830
 0.8520	46.7980
 0.8530	46.8030
 0.8540	46.8370
 0.8550	46.8710
 0.8560	46.8820
 0.8570	46.8880
 0.8580	46.9350
 0.8590	46.9560
 0.8600	46.9630
 0.8610	46.9740
 0.8620	47.0010
 0.8630	47.0340
 0.8640	47.0570
 0.8650	47.0660
 0.8660	47.0920
 0.8670	47.1230
 0.8680	47.1410
 0.8690	47.1400
 0.8700	47.1660
 0.8710	47.1910
 0.8720	47.2170
 0.8730	47.2550
 0.8740	47.2620
 0.8750	47.2690
 0.8760	47.2860
 0.8770	47.3010
 0.8780	47.3180
 0.8790	47.3420
 0.8800	47.3710
 0.8810	47.3940
 0.8820	47.4000
 0.8830	47.4030
 0.8840	47.4190
 0.8850	47.4580
 0.8860	47.4760
 0.8870	47.4860
 0.8880	47.5060
 0.8890	47.5210
 0.8900	47.5350
 0.8910	47.5530
 0.8920	47.5800
 0.8930	47.5900
 0.8940	47.5990
 0.8950	47.6170
 0.8960	47.6490
 0.8970	47.6690
 0.8980	47.6680
 0.8990	47.6700
 0.9000	47.7110
 0.9010	47.7090
 0.9020	47.7240
 0.9030	47.7720
 0.9040	47.7870
 0.9050	47.7860
 0.9060	47.7910
 0.9070	47.8110
 0.9080	47.8330
 0.9090	47.8370
 0.9100	47.8430
 0.9110	47.8650
 0.9120	47.8840
 0.9130	47.9050
 0.9140	47.9260
 0.9150	47.9400
 0.9160	47.9410
 0.9170	47.9510
 0.9180	47.9590
 0.9190	47.9500
 0.9200	47.9670
 0.9210	47.9930
 0.9220	48.0070
 0.9230	47.9970
 0.9240	47.9980
 0.9250	48.0110
 0.9260	48.0310
 0.9270	48.0510
 0.9280	48.0300
 0.9290	48.0270
 0.9300	48.0410
 0.9310	48.0130
 0.9320	48.0160
 0.9330	48.0150
 0.9340	47.9970
 0.9350	47.9950
 0.9360	48.0000
 0.9370	48.0050
 0.9380	47.9980
 0.9390	47.9710
 0.9400	47.9470
 0.9410	47.9400
 0.9420	47.9400
 0.9430	47.9130
 0.9440	47.9190
 0.9450	47.9090
 0.9460	47.8570
 0.9470	47.8300
 0.9480	47.8140
 0.9490	47.7930
 0.9500	47.7530
 0.9510	47.7080
 0.9520	47.6730
 0.9530	47.6390
 0.9540	47.5950
 0.9550	47.5450
 0.9560	47.4880
 0.9570	47.4480
 0.9580	47.4320
 0.9590	47.3730
 0.9600	47.3390
 0.9610	47.3300
 0.9620	47.3240
 0.9630	47.3140
 0.9640	47.2880
 0.9650	47.2720
 0.9660	47.2880
 0.9670	47.2760
 0.9680	47.2840
 0.9690	47.3070
 0.9700	47.3180
 0.9710	47.3420
 0.9720	47.3310
 0.9730	47.3170
 0.9740	47.3470
 0.9750	47.3540
 0.9760	47.3730
 0.9770	47.4070
 0.9780	47.4380
 0.9790	47.4670
 0.9800	47.4560
 0.9810	47.4390
 0.9820	47.4700
 0.9830	47.5350
 0.9840	47.5430
 0.9850	47.5480
 0.9860	47.6370
 0.9870	47.6480
 0.9880	47.6680
 0.9890	47.7150
 0.9900	47.7580
 0.9910	47.7520
 0.9920	47.7940
 0.9930	47.8350
 0.9940	47.8770
 0.9950	47.9180
 0.9960	47.9600
 0.9970	48.0020
 0.9980	48.0430
 0.9990	48.0850
 1.0000	48.1260
 1.0010	48.1680
 1.0020	48.2100
 1.0030	48.2510
 1.0040	48.2930
 1.0050	48.3340
 1.0060	48.3760
 1.0070	48.4180
 1.0080	48.4590
 1.0090	48.5010
 1.0100	48.5010
 1.0110	48.5430
 1.0120	48.5750
 1.0130	48.5990
 1.0140	48.6360
 1.0150	48.6730
 1.0160	48.7200
 1.0170	48.7760
 1.0180	48.8080
 1.0190	48.8480
 1.0200	48.8840
 1.0210	48.8960
 1.0220	48.9240
 1.0230	48.9570
 1.0240	48.9890
 1.0250	49.0190
 1.0260	49.0580
 1.0270	49.0950
 1.0280	49.1240
 1.0290	49.1540
 1.0300	49.1940
 1.0310	49.2270
 1.0320	49.2550
 1.0330	49.2670
 1.0340	49.3020
 1.0350	49.3410
 1.0360	49.3710
 1.0370	49.4070
 1.0380	49.4330
 1.0390	49.4430
 1.0400	49.4680
 1.0410	49.4990
 1.0420	49.5240
 1.0430	49.5490
 1.0440	49.5720
 1.0450	49.5960
 1.0460	49.6140
 1.0470	49.6240
 1.0480	49.6410
 1.0490	49.6580
 1.0500	49.6720
 1.0510	49.6870
 1.0520	49.7100
 1.0530	49.7270
 1.0540	49.7370
 1.0550	49.7570
 1.0560	49.7910
 1.0570	49.8040
 1.0580	49.8040
 1.0590	49.8170
 1.0600	49.8240
 1.0610	49.8350
 1.0620	49.8580
 1.0630	49.8790
 1.0640	49.8930
 1.0650	49.9110
 1.0660	49.9440
 1.0670	49.9610
 1.0680	49.9720
 1.0690	49.9720
 1.0700	49.9810
 1.0710	49.9850
 1.0720	49.9910
 1.0730	50.0040
 1.0740	50.0140
 1.0750	50.0180
 1.0760	50.0260
 1.0770	50.0390
 1.0780	50.0480
 1.0790	50.0550
 1.0800	50.0610
 1.0810	50.0670
 1.0820	50.0720
 1.0830	50.0800
 1.0840	50.0840
 1.0850	50.0870
 1.0860	50.0830
 1.0870	50.0830
 1.0880	50.0780
 1.0890	50.0820
 1.0900	50.0950
 1.0910	50.0980
 1.0920	50.0980
 1.0930	50.0990
 1.0940	50.0960
 1.0950	50.0930
 1.0960	50.0910
 1.0970	50.0890
 1.0980	50.0820
 1.0990	50.0780
 1.1000	50.0770
 1.1010	50.0750
 1.1020	50.0670
 1.1030	50.0700
 1.1040	50.0650
 1.1050	50.0560
 1.1060	50.0520
 1.1070	50.0470
 1.1080	50.0410
 1.1090	50.0390
 1.1100	50.0300
 1.1110	50.0160
 1.1120	50.0040
 1.1130	49.9940
 1.1140	49.9790
 1.1150	49.9570
 1.1160	49.9400
 1.1170	49.9220
 1.1180	49.9040
 1.1190	49.8900
 1.1200	49.8800
 1.1210	49.8610
 1.1220	49.8380
 1.1230	49.8090
 1.1240	49.7740
 1.1250	49.7350
 1.1260	49.6940
 1.1270	49.6450
 1.1280	49.5910
 1.1290	49.5310
 1.1300	49.4640
 1.1310	49.3890
 1.1320	49.3120
 1.1330	49.2190
 1.1340	49.1080
 1.1350	48.9980
 1.1360	48.8790
 1.1370	48.7590
 1.1380	48.6390
 1.1390	48.5110
 1.1400	48.3800
 1.1410	48.2470
 1.1420	48.1090
 1.1430	47.9690
 1.1440	47.8300
 1.1450	47.6840
 1.1460	47.5490
 1.1470	47.4170
 1.1480	47.2900
 1.1490	47.1660
 1.1500	47.0510
 1.1510	46.9390
 1.1520	46.8390
 1.1530	46.7470
 1.1540	46.6670
 1.1550	46.6010
 1.1560	46.5380
 1.1570	46.4810
 1.1580	46.4280
 1.1590	46.3830
 1.1600	46.3530
 1.1610	46.3330
 1.1620	46.3190
 1.1630	46.3070
 1.1640	46.2960
 1.1650	46.2840
 1.1660	46.2740
 1.1670	46.2680
 1.1680	46.2630
 1.1690	46.2580
 1.1700	46.2590
 1.1710	46.2540
 1.1720	46.2430
 1.1730	46.2410
 1.1740	46.2420
 1.1750	46.2410
 1.1760	46.2450
 1.1770	46.2460
 1.1780	46.2420
 1.1790	46.2450
 1.1800	46.2470
 1.1810	46.2480
 1.1820	46.2500
 1.1830	46.2450
 1.1840	46.2410
 1.1850	46.2430
 1.1860	46.2440
 1.1870	46.2490
 1.1880	46.2530
 1.1890	46.2560
 1.1900	46.2600
 1.1910	46.2660
 1.1920	46.2720
 1.1930	46.2790
 1.1940	46.2870
 1.1950	46.2940
 1.1960	46.3040
 1.1970	46.3130
 1.1980	46.3260
 1.1990	46.3510
 1.2000	46.3740
 1.2010	46.4010
 1.2020	46.4340
 1.2030	46.4590
 1.2040	46.4810
 1.2050	46.5150
 1.2060	46.5430
 1.2070	46.5750
 1.2080	46.6140
 1.2090	46.6470
 1.2100	46.6830
 1.2110	46.7170
 1.2120	46.7460
 1.2130	46.7820
 1.2140	46.8200
 1.2150	46.8550
 1.2160	46.8920
 1.2170	46.9280
 1.2180	46.9600
 1.2190	46.9960
 1.2200	47.0370
 1.2210	47.0800
 1.2220	47.1240
 1.2230	47.1630
 1.2240	47.2000
 1.2250	47.2350
 1.2260	47.2660
 1.2270	47.3030
 1.2280	47.3400
 1.2290	47.3730
 1.2300	47.4110
 1.2310	47.4490
 1.2320	47.4820
 1.2330	47.5160
 1.2340	47.5510
 1.2350	47.5850
 1.2360	47.6160
 1.2370	47.6460
 1.2380	47.6820
 1.2390	47.7080
 1.2400	47.7280
 1.2410	47.7590
 1.2420	47.7870
 1.2430	47.8130
 1.2440	47.8390
 1.2450	47.8570
 1.2460	47.8800
 1.2470	47.9030
 1.2480	47.9310
 1.2490	47.9640
 1.2500	47.9880
 1.2510	48.0100
 1.2520	48.0280
 1.2530	48.0420
 1.2540	48.0610
 1.2550	48.0780
 1.2560	48.0960
 1.2570	48.1190
 1.2580	48.1380
 1.2590	48.1530
 1.2600	48.1620
 1.2610	48.1710
 1.2620	48.1780
 1.2630	48.1830
 1.2640	48.1890
 1.2650	48.2000
 1.2660	48.2040
 1.2670	48.2050
 1.2680	48.2090
 1.2690	48.2130
 1.2700	48.2150
 1.2710	48.2180
 1.2720	48.2230
 1.2730	48.2250
 1.2740	48.2290
 1.2750	48.2290
 1.2760	48.2210
 1.2770	48.2070
 1.2780	48.1880
 1.2790	48.1680
 1.2800	48.1510
 1.2810	48.1350
 1.2820	48.1200
 1.2830	48.1040
 1.2840	48.0830
 1.2850	48.0620
 1.2860	48.0330
 1.2870	48.0060
 1.2880	47.9800
 1.2890	47.9540
 1.2900	47.9200
 1.2910	47.8900
 1.2920	47.8560
 1.2930	47.8150
 1.2940	47.7810
 1.2950	47.7500
 1.2960	47.7160
 1.2970	47.6800
 1.2980	47.6380
 1.2990	47.5870
 1.3000	47.5290
 1.3010	47.4690
 1.3020	47.4100
 1.3030	47.3530
 1.3040	47.2940
 1.3050	47.2290
 1.3060	47.1590
 1.3070	47.0860
 1.3080	47.0100
 1.3090	46.9360
 1.3100	46.8580
 1.3110	46.7680
 1.3120	46.6770
 1.3130	46.5870
 1.3140	46.4940
 1.3150	46.4000
 1.3160	46.3040
 1.3170	46.2070
 1.3180	46.1040
 1.3190	45.9970
 1.3200	45.8860
 1.3210	45.7700
 1.3220	45.6520
 1.3230	45.5280
 1.3240	45.4040
 1.3250	45.2790
 1.3260	45.1480
 1.3270	45.0170
 1.3280	44.8780
 1.3290	44.7340
 1.3300	44.5870
 1.3310	44.4360
 1.3320	44.2900
 1.3330	44.1440
 1.3340	43.9940
 1.3350	43.8510
 1.3360	43.7070
 1.3370	43.5570
 1.3380	43.4100
 1.3390	43.2600
 1.3400	43.1090
 1.3410	42.9640
 1.3420	42.8170
 1.3430	42.6710
 1.3440	42.5260
 1.3450	42.3830
 1.3460	42.2440
 1.3470	42.1080
 1.3480	41.9720
 1.3490	41.8380
 1.3500	41.7080
 1.3510	41.5740
 1.3520	41.4400
 1.3530	41.3110
 1.3540	41.1780
 1.3550	41.0420
 1.3560	40.9080
 1.3570	40.7700
 1.3580	40.6320
 1.3590	40.4910
 1.3600	40.3480
 1.3610	40.2050
 1.3620	40.0510
 1.3630	39.8920
 1.3640	39.7250
 1.3650	39.5440
 1.3660	39.3580
 1.3670	39.1630
 1.3680	38.9570
 1.3690	38.7390
 1.3700	38.5050
 1.3710	38.2580
 1.3720	37.9960
 1.3730	37.7110
 1.3740	37.4090
 1.3750	37.0930
 1.3760	36.7510
 1.3770	36.3880
 1.3780	36.0040
 1.3790	35.5930
 1.3800	35.1610
 1.3810	34.7050
 1.3820	34.2320
 1.3830	33.7400
 1.3840	33.2310
 1.3850	32.7020
 1.3860	32.1630
 1.3870	31.6020
 1.3880	31.0430
 1.3890	30.4750
 1.3900	29.9030
 1.3910	29.3340
 1.3920	28.7670
 1.3930	28.1980
 1.3940	27.6380
 1.3950	27.0850
 1.3960	26.5420
 1.3970	26.0170
 1.3980	25.5100
 1.3990	25.0270
 1.4000	24.5670
 1.4010	24.1240
 1.4020	23.6990
 1.4030	23.2920
 1.4040	22.9050
 1.4050	22.5440
 1.4060	22.2040
 1.4070	21.8910
 1.4080	21.5990
 1.4090	21.3240
 1.4100	21.0710
 1.4110	20.8370
 1.4120	20.6230
 1.4130	20.4260
 1.4140	20.2470
 1.4150	20.0840
 1.4160	19.9320
 1.4170	19.7910
 1.4180	19.6600
 1.4190	19.5420
 1.4200	19.4380
 1.4210	19.3440
 1.4220	19.2610
 1.4230	19.1840
 1.4240	19.1110
 1.4250	19.0460
 1.4260	18.9880
 1.4270	18.9380
 1.4280	18.8970
 1.4290	18.8610
 1.4300	18.8330
 1.4310	18.8080
 1.4320	18.7870
 1.4330	18.7680
 1.4340	18.7520
 1.4350	18.7410
 1.4360	18.7340
 1.4370	18.7290
 1.4380	18.7310
 1.4390	18.7370
 1.4400	18.7420
 1.4410	18.7510
 1.4420	18.7590
 1.4430	18.7680
 1.4440	18.7790
 1.4450	18.7960
 1.4460	18.8110
 1.4470	18.8270
 1.4480	18.8480
 1.4490	18.8670
 1.4500	18.8890
 1.4510	18.9140
 1.4520	18.9340
 1.4530	18.9570
 1.4540	18.9810
 1.4550	19.0060
 1.4560	19.0360
 1.4570	19.0700
 1.4580	19.1070
 1.4590	19.1460
 1.4600	19.1880
 1.4610	19.2320
 1.4620	19.2790
 1.4630	19.3290
 1.4640	19.3850
 1.4650	19.4470
 1.4660	19.5140
 1.4670	19.5860
 1.4680	19.6620
 1.4690	19.7450
 1.4700	19.8320
 1.4710	19.9220
 1.4720	20.0120
 1.4730	20.1030
 1.4740	20.1970
 1.4750	20.2940
 1.4760	20.3980
 1.4770	20.5050
 1.4780	20.6100
 1.4790	20.7180
 1.4800	20.8300
 1.4810	20.9450
 1.4820	21.0620
 1.4830	21.1790
 1.4840	21.2930
 1.4850	21.4080
 1.4860	21.5270
 1.4870	21.6490
 1.4880	21.7710
 1.4890	21.8920
 1.4900	22.0140
 1.4910	22.1320
 1.4920	22.2560
 1.4930	22.3820
 1.4940	22.5090
 1.4950	22.6410
 1.4960	22.7710
 1.4970	22.9010
 1.4980	23.0320
 1.4990	23.1650
 1.5000	23.2950
 1.5010	23.4270
 1.5020	23.5590
 1.5030	23.6860
 1.5040	23.8160
 1.5050	23.9480
 1.5060	24.0790
 1.5070	24.2140
 1.5080	24.3440
 1.5090	24.4720
 1.5100	24.6010
 1.5110	24.7300
 1.5120	24.8580
 1.5130	24.9880
 1.5140	25.1180
 1.5150	25.2430
 1.5160	25.3650
 1.5170	25.4890
 1.5180	25.6130
 1.5190	25.7420
 1.5200	25.8740
 1.5210	26.0010
 1.5220	26.1290
 1.5230	26.2580
 1.5240	26.3810
 1.5250	26.5020
 1.5260	26.6240
 1.5270	26.7410
 1.5280	26.8560
 1.5290	26.9760
 1.5300	27.0950
 1.5310	27.2110
 1.5320	27.3310
 1.5330	27.4510
 1.5340	27.5710
 1.5350	27.6900
 1.5360	27.8080
 1.5370	27.9210
 1.5380	28.0310
 1.5390	28.1440
 1.5400	28.2560
 1.5410	28.3670
 1.5420	28.4770
 1.5430	28.5850
 1.5440	28.6910
 1.5450	28.8030
 1.5460	28.9210
 1.5470	29.0370
 1.5480	29.1490
 1.5490	29.2600
 1.5500	29.3650
 1.5510	29.4670
 1.5520	29.5690
 1.5530	29.6670
 1.5540	29.7590
 1.5550	29.8550
 1.5560	29.9510
 1.5570	30.0480
 1.5580	30.1440
 1.5590	30.2350
 1.5600	30.3290
 1.5610	30.4240
 1.5620	30.5210
 1.5630	30.6180
 1.5640	30.7100
 1.5650	30.7990
 1.5660	30.8860
 1.5670	30.9730
 1.5680	31.0580
 1.5690	31.1420
 1.5700	31.2240
 1.5710	31.3050
 1.5720	31.3850
 1.5730	31.4690
 1.5740	31.5550
 1.5750	31.6390
 1.5760	31.7260
 1.5770	31.8100
 1.5780	31.8900
 1.5790	31.9750
 1.5800	32.0570
 1.5810	32.1350
 1.5820	32.2110
 1.5830	32.2850
 1.5840	32.3550
 1.5850	32.4300
 1.5860	32.5070
 1.5870	32.5850
 1.5880	32.6650
 1.5890	32.7360
 1.5900	32.8040
 1.5910	32.8710
 1.5920	32.9390
 1.5930	33.0130
 1.5940	33.0850
 1.5950	33.1560
 1.5960	33.2280
 1.5970	33.2940
 1.5980	33.3600
 1.5990	33.4240
 1.6000	33.4820
 1.6010	33.5480
 1.6020	33.6140
 1.6030	33.6790
 1.6040	33.7470
 1.6050	33.8080
 1.6060	33.8690
 1.6070	33.9310
 1.6080	33.9900
 1.6090	34.0500
 1.6100	34.1110
 1.6110	34.1670
 1.6120	34.2220
 1.6130	34.2770
 1.6140	34.3320
 1.6150	34.3830
 1.6160	34.4360
 1.6170	34.4880
 1.6180	34.5340
 1.6190	34.5820
 1.6200	34.6300
 1.6210	34.6760
 1.6220	34.7240
 1.6230	34.7690
 1.6240	34.8110
 1.6250	34.8480
 1.6260	34.8800
 1.6270	34.9160
 1.6280	34.9510
 1.6290	34.9870
 1.6300	35.0230
 1.6310	35.0580
 1.6320	35.0890
 1.6330	35.1240
 1.6340	35.1620
 1.6350	35.1970
 1.6360	35.2330
 1.6370	35.2660
 1.6380	35.2940
 1.6390	35.3220
 1.6400	35.3450
 1.6410	35.3730
 1.6420	35.4030
 1.6430	35.4320
 1.6440	35.4690
 1.6450	35.4950
 1.6460	35.5130
 1.6470	35.5250
 1.6480	35.5330
 1.6490	35.5450
 1.6500	35.5570
 1.6510	35.5670
 1.6520	35.5740
 1.6530	35.5750
 1.6540	35.5700
 1.6550	35.5640
 1.6560	35.5600
 1.6570	35.5530
 1.6580	35.5410
 1.6590	35.5300
 1.6600	35.5190
 1.6610	35.5050
 1.6620	35.4880
 1.6630	35.4680
 1.6640	35.4490
 1.6650	35.4290
 1.6660	35.4150
 1.6670	35.4040
 1.6680	35.3880
 1.6690	35.3670
 1.6700	35.3490
 1.6710	35.3300
 1.6720	35.3080
 1.6730	35.2880
 1.6740	35.2620
 1.6750	35.2280
 1.6760	35.1930
 1.6770	35.1520
 1.6780	35.1080
 1.6790	35.0680
 1.6800	35.0260
 1.6810	34.9840
 1.6820	34.9420
 1.6830	34.8960
 1.6840	34.8430
 1.6850	34.7890
 1.6860	34.7360
 1.6870	34.6790
 1.6880	34.6240
 1.6890	34.5700
 1.6900	34.5170
 1.6910	34.4710
 1.6920	34.4180
 1.6930	34.3590
 1.6940	34.3050
 1.6950	34.2480
 1.6960	34.1940
 1.6970	34.1440
 1.6980	34.0970
 1.6990	34.0550
 1.7000	34.0100
 1.7010	33.9690
 1.7020	33.9200
 1.7030	33.8640
 1.7040	33.8100
 1.7050	33.7550
 1.7060	33.7000
 1.7070	33.6440
 1.7080	33.5870
 1.7090	33.5280
 1.7100	33.4740
 1.7110	33.4240
 1.7120	33.3700
 1.7130	33.3170
 1.7140	33.2600
 1.7150	33.2020
 1.7160	33.1490
 1.7170	33.0950
 1.7180	33.0480
 1.7190	32.9980
 1.7200	32.9500
 1.7210	32.9060
 1.7220	32.8580
 1.7230	32.8140
 1.7240	32.7730
 1.7250	32.7330
 1.7260	32.6950
 1.7270	32.6580
 1.7280	32.6190
 1.7290	32.5830
 1.7300	32.5540
 1.7310	32.5180
 1.7320	32.4770
 1.7330	32.4410
 1.7340	32.4080
 1.7350	32.3670
 1.7360	32.3260
 1.7370	32.2840
 1.7380	32.2330
 1.7390	32.1890
 1.7400	32.1580
 1.7410	32.1130
 1.7420	32.0650
 1.7430	32.0110
 1.7440	31.9480
 1.7450	31.8840
 1.7460	31.8150
 1.7470	31.7480
 1.7480	31.6750
 1.7490	31.6090
 1.7500	31.5490
 1.7510	31.4820
 1.7520	31.4170
 1.7530	31.3470
 1.7540	31.2690
 1.7550	31.1960
 1.7560	31.1270
 1.7570	31.0630
 1.7580	31.0030
 1.7590	30.9550
 1.7600	30.9020
 1.7610	30.8440
 1.7620	30.7850
 1.7630	30.7110
 1.7640	30.6500
 1.7650	30.5970
 1.7660	30.5430
 1.7670	30.4940
 1.7680	30.4440
 1.7690	30.3930
 1.7700	30.3430
 1.7710	30.2910
 1.7720	30.2480
 1.7730	30.2110
 1.7740	30.1760
 1.7750	30.1500
 1.7760	30.1180
 1.7770	30.0820
 1.7780	30.0500
 1.7790	30.0150
 1.7800	29.9900
 1.7810	29.9720
 1.7820	29.9520
 1.7830	29.9390
 1.7840	29.9230
 1.7850	29.9050
 1.7860	29.8880
 1.7870	29.8710
 1.7880	29.8510
 1.7890	29.8330
 1.7900	29.8280
 1.7910	29.8160
 1.7920	29.7980
 1.7930	29.7870
 1.7940	29.7670
 1.7950	29.7600
 1.7960	29.7710
 1.7970	29.7760
 1.7980	29.7880
 1.7990	29.7940
 1.8000	29.7940
 1.8010	29.7990
 1.8020	29.8040
 1.8030	29.8060
 1.8040	29.8110
 1.8050	29.8110
 1.8060	29.8030
 1.8070	29.8040
 1.8080	29.8080
 1.8090	29.8120
 1.8100	29.8210
 1.8110	29.8250
 1.8120	29.8240
 1.8130	29.8210
 1.8140	29.8300
 1.8150	29.8340
 1.8160	29.8380
 1.8170	29.8450
 1.8180	29.8400
 1.8190	29.8290
 1.8200	29.8210
 1.8210	29.8060
 1.8220	29.7990
 1.8230	29.8050
 1.8240	29.8000
 1.8250	29.7930
 1.8260	29.7880
 1.8270	29.8090
 1.8280	29.8290
 1.8290	29.8490
 1.8300	29.8700
 1.8310	29.8900
 1.8320	29.9110
 1.8330	29.9310
 1.8340	29.9510
 1.8350	29.9510
 1.8360	29.8960
 1.8370	29.8450
 1.8380	29.8000
 1.8390	29.7360
 1.8400	29.6650
 1.8410	29.5870
 1.8420	29.4970
 1.8430	29.3940
 1.8440	29.3060
 1.8450	29.2110
 1.8460	29.1060
 1.8470	28.9910
 1.8480	28.8640
 1.8490	28.7250
 1.8500	28.5760
 1.8510	28.4220
 1.8520	28.2490
 1.8530	28.0490
 1.8540	27.8420
 1.8550	27.6200
 1.8560	27.3890
 1.8570	27.1630
 1.8580	26.9240
 1.8590	26.6610
 1.8600	26.3760
 1.8610	26.0930
 1.8620	25.8050
 1.8630	25.4900
 1.8640	25.1750
 1.8650	24.8450
 1.8660	24.4860
 1.8670	24.1150
 1.8680	23.7380
 1.8690	23.3360
 1.8700	22.9300
 1.8710	22.5110
 1.8720	22.0940
 1.8730	21.6680
 1.8740	21.2430
 1.8750	20.8140
 1.8760	20.3770
 1.8770	19.9510
 1.8780	19.5270
 1.8790	19.1050
 1.8800	18.6950
 1.8810	18.2940
 1.8820	17.8910
 1.8830	17.4980
 1.8840	17.1220
 1.8850	16.7570
 1.8860	16.4060
 1.8870	16.0680
 1.8880	15.7590
 1.8890	15.4630
 1.8900	15.1880
 1.8910	14.9280
 1.8920	14.6890
 1.8930	14.4550
 1.8940	14.2340
 1.8950	14.0230
 1.8960	13.8290
 1.8970	13.6490
 1.8980	13.4950
 1.8990	13.3580
 1.9000	13.2220
 1.9010	13.1030
 1.9020	12.9880
 1.9030	12.8750
 1.9040	12.7670
 1.9050	12.6880
 1.9060	12.6090
 1.9070	12.5300
 1.9080	12.4670
 1.9090	12.4180
 1.9100	12.3770
 1.9110	12.3360
 1.9120	12.3120
 1.9130	12.2820
 1.9140	12.2470
 1.9150	12.2140
 1.9160	12.1900
 1.9170	12.1660
 1.9180	12.1530
 1.9190	12.1350
 1.9200	12.1250
 1.9210	12.1260
 1.9220	12.1220
 1.9230	12.1160
 1.9240	12.1160
 1.9250	12.1230
 1.9260	12.1180
 1.9270	12.1270
 1.9280	12.1330
 1.9290	12.1290
 1.9300	12.1340
 1.9310	12.1370
 1.9320	12.1410
 1.9330	12.1550
 1.9340	12.1850
 1.9350	12.2030
 1.9360	12.2230
 1.9370	12.2390
 1.9380	12.2450
 1.9390	12.2640
 1.9400	12.2800
 1.9410	12.3000
 1.9420	12.3220
 1.9430	12.3340
 1.9440	12.3540
 1.9450	12.3760
 1.9460	12.4000
 1.9470	12.4280
 1.9480	12.4580
 1.9490	12.4900
 1.9500	12.5170
 1.9510	12.5550
 1.9520	12.5850
 1.9530	12.5990
 1.9540	12.6290
 1.9550	12.6570
 1.9560	12.6790
 1.9570	12.7070
 1.9580	12.7440
 1.9590	12.7760
 1.9600	12.8080
 1.9610	12.8440
 1.9620	12.8830
 1.9630	12.9200
 1.9640	12.9620
 1.9650	13.0080
 1.9660	13.0450
 1.9670	13.0840
 1.9680	13.1180
 1.9690	13.1400
 1.9700	13.1700
 1.9710	13.2000
 1.9720	13.2330
 1.9730	13.2720
 1.9740	13.3110
 1.9750	13.3420
 1.9760	13.3740
 1.9770	13.4020
 1.9780	13.4330
 1.9790	13.4680
 1.9800	13.5070
 1.9810	13.5470
 1.9820	13.5890
 1.9830	13.6330
 1.9840	13.6860
 1.9850	13.7330
 1.9860	13.7820
 1.9870	13.8240
 1.9880	13.8600
 1.9890	13.8980
 1.9900	13.9470
 1.9910	14.0070
 1.9920	14.0700
 1.9930	14.1520
 1.9940	14.2170
 1.9950	14.2790
 1.9960	14.3370
 1.9970	14.3890
 1.9980	14.4390
 1.9990	14.4860
 2.0000	14.5320
 2.0010	14.5750
 2.0020	14.6280
 2.0030	14.6810
 2.0040	14.7340
 2.0050	14.7800
 2.0060	14.8180
 2.0070	14.8640
 2.0080	14.9070
 2.0090	14.9540
 2.0100	15.0090
 2.0110	15.0600
 2.0120	15.1040
 2.0130	15.1570
 2.0140	15.2120
 2.0150	15.2600
 2.0160	15.3040
 2.0170	15.3500
 2.0180	15.3940
 2.0190	15.4300
 2.0200	15.4730
 2.0210	15.5180
 2.0220	15.5660
 2.0230	15.6230
 2.0240	15.6720
 2.0250	15.7200
 2.0260	15.7620
 2.0270	15.7990
 2.0280	15.8320
 2.0290	15.8540
 2.0300	15.8930
 2.0310	15.9340
 2.0320	15.9780
 2.0330	16.0230
 2.0340	16.0790
 2.0350	16.1240
 2.0360	16.1620
 2.0370	16.1980
 2.0380	16.2280
 2.0390	16.2590
 2.0400	16.2830
 2.0410	16.3130
 2.0420	16.3450
 2.0430	16.3750
 2.0440	16.4150
 2.0450	16.4620
 2.0460	16.5020
 2.0470	16.5510
 2.0480	16.5860
 2.0490	16.6070
 2.0500	16.6380
 2.0510	16.6650
 2.0520	16.6980
 2.0530	16.7370
 2.0540	16.7790
 2.0550	16.8290
 2.0560	16.8710
 2.0570	16.9160
 2.0580	16.9620
 2.0590	17.0050
 2.0600	17.0460
 2.0610	17.0870
 2.0620	17.1240
 2.0630	17.1670
 2.0640	17.2090
 2.0650	17.2550
 2.0660	17.3100
 2.0670	17.3570
 2.0680	17.4010
 2.0690	17.4470
 2.0700	17.4970
 2.0710	17.5390
 2.0720	17.5770
 2.0730	17.6130
 2.0740	17.6490
 2.0750	17.6760
 2.0760	17.7160
 2.0770	17.7640
 2.0780	17.8130
 2.0790	17.8710
 2.0800	17.9180
 2.0810	17.9620
 2.0820	18.0080
 2.0830	18.0550
 2.0840	18.0960
 2.0850	18.1390
 2.0860	18.1740
 2.0870	18.1950
 2.0880	18.2190
 2.0890	18.2490
 2.0900	18.2780
 2.0910	18.3130
 2.0920	18.3580
 2.0930	18.3920
 2.0940	18.4180
 2.0950	18.4580
 2.0960	18.5040
 2.0970	18.5460
 2.0980	18.5980
 2.0990	18.6430
 2.1000	18.6740
 2.1010	18.7150
 2.1020	18.7670
 2.1030	18.8130
 2.1040	18.8590
 2.1050	18.9080
 2.1060	18.9440
 2.1070	18.9700
 2.1080	19.0050
 2.1090	19.0380
 2.1100	19.0710
 2.1110	19.1080
 2.1120	19.1420
 2.1130	19.1660
 2.1140	19.2010
 2.1150	19.2500
 2.1160	19.2860
 2.1170	19.3150
 2.1180	19.3510
 2.1190	19.3840
 2.1200	19.4200
 2.1210	19.4650
 2.1220	19.5080
 2.1230	19.5420
 2.1240	19.5670
 2.1250	19.5940
 2.1260	19.6170
 2.1270	19.6390
 2.1280	19.6540
 2.1290	19.6800
 2.1300	19.7100
 2.1310	19.7380
 2.1320	19.7740
 2.1330	19.8060
 2.1340	19.8280
 2.1350	19.8580
 2.1360	19.8980
 2.1370	19.9280
 2.1380	19.9650
 2.1390	19.9860
 2.1400	19.9890
 2.1410	19.9920
 2.1420	20.0080
 2.1430	20.0210
 2.1440	20.0400
 2.1450	20.0770
 2.1460	20.0940
 2.1470	20.0960
 2.1480	20.1120
 2.1490	20.1300
 2.1500	20.1490
 2.1510	20.1740
 2.1520	20.2000
 2.1530	20.2320
 2.1540	20.2530
 2.1550	20.2680
 2.1560	20.2900
 2.1570	20.3030
 2.1580	20.3240
 2.1590	20.3590
 2.1600	20.3940
 2.1610	20.4210
 2.1620	20.4260
 2.1630	20.4370
 2.1640	20.4330
 2.1650	20.4450
 2.1660	20.4620
 2.1670	20.4790
 2.1680	20.5080
 2.1690	20.5210
 2.1700	20.5260
 2.1710	20.5340
 2.1720	20.5340
 2.1730	20.5410
 2.1740	20.5550
 2.1750	20.5660
 2.1760	20.5750
 2.1770	20.5870
 2.1780	20.6010
 2.1790	20.6170
 2.1800	20.6320
 2.1810	20.6520
 2.1820	20.6750
 2.1830	20.7000
 2.1840	20.7270
 2.1850	20.7650
 2.1860	20.7830
 2.1870	20.7910
 2.1880	20.8050
 2.1890	20.8050
 2.1900	20.8240
 2.1910	20.8580
 2.1920	20.8850
 2.1930	20.9220
 2.1940	20.9390
 2.1950	20.9480
 2.1960	20.9520
 2.1970	20.9370
 2.1980	20.9340
 2.1990	20.9340
 2.2000	20.9320
 2.2010	20.9300
 2.2020	20.9290
 2.2030	20.9340
 2.2040	20.9290
 2.2050	20.9130
 2.2060	20.9040
 2.2070	20.9010
 2.2080	20.8930
 2.2090	20.8940
 2.2100	20.9130
 2.2110	20.9150
 2.2120	20.9090
 2.2130	20.9060
 2.2140	20.9030
 2.2150	20.8920
 2.2160	20.8750
 2.2170	20.8620
 2.2180	20.8450
 2.2190	20.8290
 2.2200	20.8230
 2.2210	20.8050
 2.2220	20.7770
 2.2230	20.7510
 2.2240	20.7180
 2.2250	20.6870
 2.2260	20.6550
 2.2270	20.6270
 2.2280	20.6040
 2.2290	20.5810
 2.2300	20.5590
 2.2310	20.5430
 2.2320	20.5160
 2.2330	20.4690
 2.2340	20.4240
 2.2350	20.3640
 2.2360	20.3140
 2.2370	20.2680
 2.2380	20.2140
 2.2390	20.1570
 2.2400	20.1020
 2.2410	20.0430
 2.2420	19.9850
 2.2430	19.9280
 2.2440	19.8700
 2.2450	19.8060
 2.2460	19.7490
 2.2470	19.6970
 2.2480	19.6400
 2.2490	19.5820
 2.2500	19.5230
 2.2510	19.4570
 2.2520	19.3990
 2.2530	19.3450
 2.2540	19.2930
 2.2550	19.2430
 2.2560	19.1920
 2.2570	19.1490
 2.2580	19.0930
 2.2590	19.0230
 2.2600	18.9670
 2.2610	18.9140
 2.2620	18.8530
 2.2630	18.8180
 2.2640	18.7760
 2.2650	18.7240
 2.2660	18.6550
 2.2670	18.5890
 2.2680	18.5170
 2.2690	18.4410
 2.2700	18.3560
 2.2710	18.2920
 2.2720	18.2250
 2.2730	18.1740
 2.2740	18.1470
 2.2750	18.1110
 2.2760	18.0780
 2.2770	18.0410
 2.2780	18.0150
 2.2790	17.9660
 2.2800	17.8970
 2.2810	17.8390
 2.2820	17.7650
 2.2830	17.7100
 2.2840	17.6760
 2.2850	17.6290
 2.2860	17.5690
 2.2870	17.5300
 2.2880	17.5040
 2.2890	17.4680
 2.2900	17.4550
 2.2910	17.4210
 2.2920	17.3590
 2.2930	17.3040
 2.2940	17.2400
 2.2950	17.1900
 2.2960	17.1560
 2.2970	17.1160
 2.2980	17.0850
 2.2990	17.0440
 2.3000	17.0070
 2.3010	16.9490
 2.3020	16.8990
 2.3030	16.8620
 2.3040	16.8060
 2.3050	16.7630
 2.3060	16.7320
 2.3070	16.7100
 2.3080	16.7040
 2.3090	16.6770
 2.3100	16.6330
 2.3110	16.5980
 2.3120	16.5780
 2.3130	16.5630
 2.3140	16.5500
 2.3150	16.5550
 2.3160	16.5520
 2.3170	16.5350
 2.3180	16.5400
 2.3190	16.5710
 2.3200	16.5760
 2.3210	16.5770
 2.3220	16.5690
 2.3230	16.5510
 2.3240	16.5230
 2.3250	16.4740
 2.3260	16.4520
 2.3270	16.4370
 2.3280	16.4150
 2.3290	16.4210
 2.3300	16.3870
 2.3310	16.3110
 2.3320	16.2620
 2.3330	16.2130
 2.3340	16.1700
 2.3350	16.1350
 2.3360	16.1000
 2.3370	16.0660
 2.3380	16.0270
 2.3390	15.9840
 2.3400	15.9590
 2.3410	15.9410
 2.3420	15.9190
 2.3430	15.9090
 2.3440	15.8890
 2.3450	15.8540
 2.3460	15.8250
 2.3470	15.7980
 2.3480	15.7780
 2.3490	15.7650
 2.3500	15.7430
 2.3510	15.7200
 2.3520	15.6910
 2.3530	15.6610
 2.3540	15.6090
 2.3550	15.5690
 2.3560	15.5440
 2.3570	15.5050
 2.3580	15.5010
 2.3590	15.5090
 2.3600	15.5150
 2.3610	15.5090
 2.3620	15.4850
 2.3630	15.4600
 2.3640	15.4200
 2.3650	15.4260
 2.3660	15.4500
 2.3670	15.4250
 2.3680	15.4030
 2.3690	15.3530
 2.3700	15.2950
 2.3710	15.2600
 2.3720	15.2170
 2.3730	15.1750
 2.3740	15.1250
 2.3750	15.0900
 2.3760	15.0830
 2.3770	15.0430
 2.3780	15.0180
 2.3790	15.0160
 2.3800	14.9650
 2.3810	14.9830
 2.3820	15.0040
 2.3830	14.9670
 2.3840	14.9460
 2.3850	14.8910
 2.3860	14.8370
 2.3870	14.7630
 2.3880	14.7060
 2.3890	14.7020
 2.3900	14.6640
 2.3910	14.6570
 2.3920	14.6510
 2.3930	14.5710
 2.3940	14.5030
 2.3950	14.4800
 2.3960	14.4840
 2.3970	14.4880
 2.3980	14.4720
 2.3990	14.3970
 2.4000	14.2960
 2.4010	14.2490
 2.4020	14.2280
 2.4030	14.2190
 2.4040	14.2070
 2.4050	14.1860
 2.4060	14.1650
 2.4070	14.1640
 2.4080	14.1780
 2.4090	14.1470
 2.4100	14.1380
 2.4110	14.1010
 2.4120	14.0510
 2.4130	14.0290
 2.4140	13.9880
 2.4150	13.9370
 2.4160	13.8340
 2.4170	13.7170
 2.4180	13.6130
 2.4190	13.6030
 2.4200	13.6690
 2.4210	13.7290
 2.4220	13.7550
 2.4230	13.6840
 2.4240	13.6350
 2.4250	13.5340
 2.4260	13.4500
 2.4270	13.4980
 2.4280	13.4490
 2.4290	13.4690
 2.4300	13.5000
 2.4310	13.3820
 2.4320	13.3130
 2.4330	13.2440
 2.4340	13.2160
 2.4350	13.2170
 2.4360	13.1690
 2.4370	13.1630
 2.4380	13.1060
 2.4390	13.0150
 2.4400	12.9690
 2.4410	12.8550
 2.4420	12.7680
 2.4430	12.7630
 2.4440	12.7350
 2.4450	12.7100
 2.4460	12.7200
 2.4470	12.7800
 2.4480	12.7750
 2.4490	12.7900
 2.4500	12.8280
 2.4510	12.7060
 2.4520	12.6710
 2.4530	12.6760
 2.4540	12.6060
 2.4550	12.6130
 2.4560	12.5330
 2.4570	12.3720
 2.4580	12.2740
 2.4590	12.1780
 2.4600	12.1540
 2.4610	12.2030
 2.4620	12.2420
 2.4630	12.2420
 2.4640	12.1810
 2.4650	12.1760
 2.4660	12.1860
 2.4670	12.1880
 2.4680	12.3100
 2.4690	12.3110
 2.4700	12.2700
 2.4710	12.1660
 2.4720	12.0970
 2.4730	12.0090
 2.4740	11.9720
 2.4750	11.9880
 2.4760	11.9380
 2.4770	11.8920
 2.4780	11.8640
 2.4790	11.7620
 2.4800	11.8350
 2.4810	12.1270
 2.4820	12.1710
 2.4830	12.0680
 2.4840	11.8380
 2.4850	11.5310
 2.4860	11.5410
 2.4870	11.7000
 2.4880	11.6990
 2.4890	11.7380
 2.4900	11.6540
 2.4910	11.4930
 2.4920	11.5180
 2.4930	11.5170
 2.4940	11.5290
 2.4950	11.5460
 2.4960	11.5710
 2.4970	11.6280
 2.4980	11.4710
 2.4990	11.4810
 2.5000	11.6180
