Name: Quercus lobata 2
Type: vegetation
Class: Tree
Genus: Quercus
Species: lobata
Sample No.: VH087
Owner: UCSB
Wavelength Range: VSWIR
Origin: 34.7146; -120.0588; WGS84
Collection Date: 4/21/2013
Description: Samples were collected as part of the HyspIRI Airborne Campaign. 48 individual plants were sampled in three times in 2013 - spring  summer  and fall. The name of the sample includes a 1  2  or 3 which references a different individual of the species. Samples were taken to JPL and processed within 48 hours of collection. The same leaves were processed in the Nicolet and then measured using the ASD.
Measurement: Bidirectional reflectance
First Column: X
Second Column: Y
X Units: Wavelength (micrometers)
Y Units: Reflectance (percentage)
First X Value: 0.35
Last X Value: 2.5
Number of X Values: 2151
Additional Information: vegetation.tree.quercus.lobata.vswir.vh087.ucsb.asd.ancillary.txt

 0.3500	 7.1590
 0.3510	 7.4260
 0.3520	 7.4190
 0.3530	 7.3700
 0.3540	 7.4900
 0.3550	 7.2160
 0.3560	 7.0640
 0.3570	 7.1290
 0.3580	 7.2540
 0.3590	 7.2920
 0.3600	 7.2530
 0.3610	 7.1880
 0.3620	 7.1880
 0.3630	 7.1890
 0.3640	 7.1890
 0.3650	 7.1970
 0.3660	 7.2320
 0.3670	 7.2090
 0.3680	 7.1890
 0.3690	 7.3040
 0.3700	 7.3580
 0.3710	 7.3550
 0.3720	 7.3180
 0.3730	 7.2400
 0.3740	 7.3060
 0.3750	 7.3790
 0.3760	 7.2930
 0.3770	 7.2770
 0.3780	 7.3170
 0.3790	 7.3770
 0.3800	 7.4170
 0.3810	 7.4020
 0.3820	 7.3750
 0.3830	 7.3820
 0.3840	 7.4410
 0.3850	 7.4260
 0.3860	 7.4130
 0.3870	 7.5130
 0.3880	 7.5640
 0.3890	 7.5980
 0.3900	 7.6270
 0.3910	 7.6350
 0.3920	 7.7070
 0.3930	 7.7850
 0.3940	 7.8250
 0.3950	 7.9070
 0.3960	 7.9220
 0.3970	 7.9160
 0.3980	 7.9900
 0.3990	 8.0550
 0.4000	 8.1030
 0.4010	 8.1360
 0.4020	 8.1660
 0.4030	 8.2230
 0.4040	 8.2930
 0.4050	 8.3500
 0.4060	 8.3810
 0.4070	 8.4560
 0.4080	 8.5510
 0.4090	 8.5920
 0.4100	 8.6460
 0.4110	 8.7040
 0.4120	 8.7590
 0.4130	 8.8360
 0.4140	 8.9050
 0.4150	 8.9660
 0.4160	 9.0320
 0.4170	 9.1000
 0.4180	 9.1710
 0.4190	 9.2310
 0.4200	 9.2590
 0.4210	 9.3050
 0.4220	 9.3600
 0.4230	 9.4080
 0.4240	 9.4430
 0.4250	 9.4730
 0.4260	 9.5110
 0.4270	 9.5670
 0.4280	 9.5890
 0.4290	 9.6210
 0.4300	 9.6710
 0.4310	 9.6830
 0.4320	 9.6900
 0.4330	 9.7070
 0.4340	 9.7350
 0.4350	 9.7410
 0.4360	 9.7580
 0.4370	 9.7870
 0.4380	 9.8100
 0.4390	 9.8290
 0.4400	 9.8470
 0.4410	 9.8650
 0.4420	 9.8730
 0.4430	 9.8890
 0.4440	 9.9120
 0.4450	 9.9290
 0.4460	 9.9330
 0.4470	 9.9440
 0.4480	 9.9700
 0.4490	 9.9960
 0.4500	10.0100
 0.4510	10.0180
 0.4520	10.0270
 0.4530	10.0280
 0.4540	10.0410
 0.4550	10.0550
 0.4560	10.0470
 0.4570	10.0470
 0.4580	10.0610
 0.4590	10.0820
 0.4600	10.0830
 0.4610	10.0790
 0.4620	10.0780
 0.4630	10.0820
 0.4640	10.0840
 0.4650	10.0840
 0.4660	10.0830
 0.4670	10.0790
 0.4680	10.0870
 0.4690	10.0920
 0.4700	10.0830
 0.4710	10.0740
 0.4720	10.0710
 0.4730	10.0760
 0.4740	10.0830
 0.4750	10.0930
 0.4760	10.0930
 0.4770	10.0830
 0.4780	10.0870
 0.4790	10.0890
 0.4800	10.0920
 0.4810	10.1010
 0.4820	10.1010
 0.4830	10.0980
 0.4840	10.0980
 0.4850	10.1050
 0.4860	10.1110
 0.4870	10.1170
 0.4880	10.1270
 0.4890	10.1470
 0.4900	10.1600
 0.4910	10.1690
 0.4920	10.1830
 0.4930	10.1870
 0.4940	10.2040
 0.4950	10.2390
 0.4960	10.2610
 0.4970	10.2920
 0.4980	10.3290
 0.4990	10.3670
 0.5000	10.4010
 0.5010	10.4420
 0.5020	10.4920
 0.5030	10.5420
 0.5040	10.6080
 0.5050	10.6890
 0.5060	10.7780
 0.5070	10.8620
 0.5080	10.9610
 0.5090	11.0780
 0.5100	11.2110
 0.5110	11.3500
 0.5120	11.5020
 0.5130	11.6710
 0.5140	11.8460
 0.5150	12.0460
 0.5160	12.2670
 0.5170	12.5010
 0.5180	12.7400
 0.5190	12.9880
 0.5200	13.2440
 0.5210	13.5060
 0.5220	13.7650
 0.5230	14.0240
 0.5240	14.2860
 0.5250	14.5390
 0.5260	14.7840
 0.5270	15.0160
 0.5280	15.2280
 0.5290	15.4310
 0.5300	15.6180
 0.5310	15.7900
 0.5320	15.9520
 0.5330	16.1050
 0.5340	16.2460
 0.5350	16.3720
 0.5360	16.4870
 0.5370	16.5880
 0.5380	16.6800
 0.5390	16.7680
 0.5400	16.8510
 0.5410	16.9290
 0.5420	17.0010
 0.5430	17.0690
 0.5440	17.1420
 0.5450	17.2130
 0.5460	17.2750
 0.5470	17.3340
 0.5480	17.3930
 0.5490	17.4490
 0.5500	17.4900
 0.5510	17.5220
 0.5520	17.5400
 0.5530	17.5420
 0.5540	17.5340
 0.5550	17.5080
 0.5560	17.4620
 0.5570	17.4040
 0.5580	17.3270
 0.5590	17.2310
 0.5600	17.1190
 0.5610	16.9970
 0.5620	16.8680
 0.5630	16.7330
 0.5640	16.5940
 0.5650	16.4520
 0.5660	16.2990
 0.5670	16.1360
 0.5680	15.9700
 0.5690	15.8030
 0.5700	15.6320
 0.5710	15.4570
 0.5720	15.2800
 0.5730	15.1080
 0.5740	14.9500
 0.5750	14.8120
 0.5760	14.6840
 0.5770	14.5620
 0.5780	14.4440
 0.5790	14.3300
 0.5800	14.2240
 0.5810	14.1250
 0.5820	14.0310
 0.5830	13.9460
 0.5840	13.8660
 0.5850	13.7890
 0.5860	13.7150
 0.5870	13.6390
 0.5880	13.5680
 0.5890	13.5090
 0.5900	13.4520
 0.5910	13.4020
 0.5920	13.3580
 0.5930	13.3190
 0.5940	13.2860
 0.5950	13.2590
 0.5960	13.2350
 0.5970	13.2100
 0.5980	13.1890
 0.5990	13.1670
 0.6000	13.1340
 0.6010	13.1010
 0.6020	13.0670
 0.6030	13.0280
 0.6040	12.9820
 0.6050	12.9290
 0.6060	12.8690
 0.6070	12.8030
 0.6080	12.7350
 0.6090	12.6550
 0.6100	12.5680
 0.6110	12.4830
 0.6120	12.4060
 0.6130	12.3340
 0.6140	12.2610
 0.6150	12.1900
 0.6160	12.1260
 0.6170	12.0670
 0.6180	12.0080
 0.6190	11.9500
 0.6200	11.8990
 0.6210	11.8570
 0.6220	11.8190
 0.6230	11.7860
 0.6240	11.7580
 0.6250	11.7350
 0.6260	11.7160
 0.6270	11.7020
 0.6280	11.6910
 0.6290	11.6780
 0.6300	11.6670
 0.6310	11.6540
 0.6320	11.6380
 0.6330	11.6230
 0.6340	11.6010
 0.6350	11.5710
 0.6360	11.5340
 0.6370	11.4860
 0.6380	11.4280
 0.6390	11.3640
 0.6400	11.2970
 0.6410	11.2260
 0.6420	11.1520
 0.6430	11.0760
 0.6440	11.0000
 0.6450	10.9300
 0.6460	10.8640
 0.6470	10.8010
 0.6480	10.7480
 0.6490	10.7000
 0.6500	10.6560
 0.6510	10.6220
 0.6520	10.5930
 0.6530	10.5680
 0.6540	10.5410
 0.6550	10.5170
 0.6560	10.4860
 0.6570	10.4500
 0.6580	10.4110
 0.6590	10.3790
 0.6600	10.3430
 0.6610	10.3010
 0.6620	10.2650
 0.6630	10.2300
 0.6640	10.1990
 0.6650	10.1720
 0.6660	10.1470
 0.6670	10.1280
 0.6680	10.1160
 0.6690	10.1080
 0.6700	10.1010
 0.6710	10.0950
 0.6720	10.0920
 0.6730	10.0980
 0.6740	10.1060
 0.6750	10.1130
 0.6760	10.1200
 0.6770	10.1320
 0.6780	10.1500
 0.6790	10.1700
 0.6800	10.1870
 0.6810	10.2110
 0.6820	10.2420
 0.6830	10.2790
 0.6840	10.3280
 0.6850	10.3870
 0.6860	10.4600
 0.6870	10.5500
 0.6880	10.6730
 0.6890	10.8320
 0.6900	11.0350
 0.6910	11.2970
 0.6920	11.6230
 0.6930	12.0200
 0.6940	12.4940
 0.6950	13.0500
 0.6960	13.6810
 0.6970	14.3840
 0.6980	15.1510
 0.6990	15.9750
 0.7000	16.8440
 0.7010	17.7440
 0.7020	18.6650
 0.7030	19.6050
 0.7040	20.5500
 0.7050	21.4850
 0.7060	22.4170
 0.7070	23.3390
 0.7080	24.2500
 0.7090	25.1470
 0.7100	26.0280
 0.7110	26.9010
 0.7120	27.7670
 0.7130	28.6100
 0.7140	29.4410
 0.7150	30.2630
 0.7160	31.0720
 0.7170	31.8550
 0.7180	32.6280
 0.7190	33.3870
 0.7200	34.1200
 0.7210	34.8360
 0.7220	35.5300
 0.7230	36.2010
 0.7240	36.8490
 0.7250	37.4780
 0.7260	38.0790
 0.7270	38.6460
 0.7280	39.1870
 0.7290	39.7040
 0.7300	40.2010
 0.7310	40.6770
 0.7320	41.1150
 0.7330	41.5280
 0.7340	41.9210
 0.7350	42.2950
 0.7360	42.6420
 0.7370	42.9640
 0.7380	43.2680
 0.7390	43.5610
 0.7400	43.8270
 0.7410	44.0700
 0.7420	44.3020
 0.7430	44.5160
 0.7440	44.7200
 0.7450	44.9140
 0.7460	45.0850
 0.7470	45.2380
 0.7480	45.3810
 0.7490	45.5190
 0.7500	45.6430
 0.7510	45.7530
 0.7520	45.8540
 0.7530	45.9540
 0.7540	46.0430
 0.7550	46.1240
 0.7560	46.1970
 0.7570	46.2650
 0.7580	46.3290
 0.7590	46.3840
 0.7600	46.4320
 0.7610	46.4830
 0.7620	46.5280
 0.7630	46.5690
 0.7640	46.6110
 0.7650	46.6460
 0.7660	46.6800
 0.7670	46.7150
 0.7680	46.7460
 0.7690	46.7660
 0.7700	46.7880
 0.7710	46.8160
 0.7720	46.8390
 0.7730	46.8640
 0.7740	46.8850
 0.7750	46.8990
 0.7760	46.9130
 0.7770	46.9320
 0.7780	46.9530
 0.7790	46.9710
 0.7800	46.9880
 0.7810	47.0020
 0.7820	47.0150
 0.7830	47.0310
 0.7840	47.0520
 0.7850	47.0680
 0.7860	47.0750
 0.7870	47.0830
 0.7880	47.0930
 0.7890	47.1060
 0.7900	47.1240
 0.7910	47.1300
 0.7920	47.1360
 0.7930	47.1430
 0.7940	47.1460
 0.7950	47.1530
 0.7960	47.1600
 0.7970	47.1650
 0.7980	47.1700
 0.7990	47.1720
 0.8000	47.1720
 0.8010	47.1720
 0.8020	47.1750
 0.8030	47.1760
 0.8040	47.1740
 0.8050	47.1710
 0.8060	47.1690
 0.8070	47.1650
 0.8080	47.1590
 0.8090	47.1510
 0.8100	47.1470
 0.8110	47.1440
 0.8120	47.1360
 0.8130	47.1260
 0.8140	47.1160
 0.8150	47.1040
 0.8160	47.0880
 0.8170	47.0860
 0.8180	47.0780
 0.8190	47.0690
 0.8200	47.0700
 0.8210	47.0570
 0.8220	47.0410
 0.8230	47.0280
 0.8240	47.0190
 0.8250	47.0080
 0.8260	46.9910
 0.8270	46.9730
 0.8280	46.9690
 0.8290	46.9620
 0.8300	46.9480
 0.8310	46.9300
 0.8320	46.9240
 0.8330	46.9080
 0.8340	46.8920
 0.8350	46.8940
 0.8360	46.8870
 0.8370	46.8720
 0.8380	46.8580
 0.8390	46.8550
 0.8400	46.8440
 0.8410	46.8390
 0.8420	46.8410
 0.8430	46.8340
 0.8440	46.8280
 0.8450	46.8250
 0.8460	46.8230
 0.8470	46.8150
 0.8480	46.8110
 0.8490	46.8060
 0.8500	46.7970
 0.8510	46.7950
 0.8520	46.7920
 0.8530	46.7900
 0.8540	46.7970
 0.8550	46.8010
 0.8560	46.8000
 0.8570	46.7980
 0.8580	46.7970
 0.8590	46.7970
 0.8600	46.7980
 0.8610	46.7980
 0.8620	46.7960
 0.8630	46.8020
 0.8640	46.8090
 0.8650	46.8100
 0.8660	46.8140
 0.8670	46.8130
 0.8680	46.8110
 0.8690	46.8170
 0.8700	46.8190
 0.8710	46.8250
 0.8720	46.8360
 0.8730	46.8460
 0.8740	46.8440
 0.8750	46.8480
 0.8760	46.8620
 0.8770	46.8750
 0.8780	46.8750
 0.8790	46.8750
 0.8800	46.8790
 0.8810	46.8820
 0.8820	46.8960
 0.8830	46.9080
 0.8840	46.9110
 0.8850	46.9260
 0.8860	46.9330
 0.8870	46.9360
 0.8880	46.9430
 0.8890	46.9460
 0.8900	46.9500
 0.8910	46.9600
 0.8920	46.9760
 0.8930	46.9860
 0.8940	46.9830
 0.8950	46.9830
 0.8960	47.0080
 0.8970	47.0200
 0.8980	47.0250
 0.8990	47.0300
 0.9000	47.0400
 0.9010	47.0520
 0.9020	47.0600
 0.9030	47.0640
 0.9040	47.0720
 0.9050	47.0770
 0.9060	47.0800
 0.9070	47.0840
 0.9080	47.0980
 0.9090	47.1050
 0.9100	47.1120
 0.9110	47.1230
 0.9120	47.1260
 0.9130	47.1270
 0.9140	47.1340
 0.9150	47.1480
 0.9160	47.1580
 0.9170	47.1570
 0.9180	47.1530
 0.9190	47.1580
 0.9200	47.1520
 0.9210	47.1530
 0.9220	47.1620
 0.9230	47.1660
 0.9240	47.1670
 0.9250	47.1630
 0.9260	47.1550
 0.9270	47.1480
 0.9280	47.1460
 0.9290	47.1420
 0.9300	47.1340
 0.9310	47.1230
 0.9320	47.1170
 0.9330	47.1040
 0.9340	47.0870
 0.9350	47.0900
 0.9360	47.0730
 0.9370	47.0560
 0.9380	47.0480
 0.9390	47.0360
 0.9400	47.0210
 0.9410	46.9990
 0.9420	46.9750
 0.9430	46.9610
 0.9440	46.9350
 0.9450	46.9140
 0.9460	46.9030
 0.9470	46.8640
 0.9480	46.8220
 0.9490	46.7810
 0.9500	46.7460
 0.9510	46.7340
 0.9520	46.6970
 0.9530	46.6540
 0.9540	46.6250
 0.9550	46.5700
 0.9560	46.5200
 0.9570	46.4780
 0.9580	46.4370
 0.9590	46.3970
 0.9600	46.3660
 0.9610	46.3350
 0.9620	46.2950
 0.9630	46.2760
 0.9640	46.2420
 0.9650	46.2140
 0.9660	46.2160
 0.9670	46.1880
 0.9680	46.1740
 0.9690	46.1750
 0.9700	46.1690
 0.9710	46.1330
 0.9720	46.1250
 0.9730	46.1210
 0.9740	46.0850
 0.9750	46.0960
 0.9760	46.1100
 0.9770	46.1080
 0.9780	46.0950
 0.9790	46.1000
 0.9800	46.1040
 0.9810	46.0940
 0.9820	46.0690
 0.9830	46.0790
 0.9840	46.0910
 0.9850	46.0930
 0.9860	46.0880
 0.9870	46.0880
 0.9880	46.0940
 0.9890	46.1000
 0.9900	46.1020
 0.9910	46.1340
 0.9920	46.2020
 0.9930	46.2710
 0.9940	46.3390
 0.9950	46.4080
 0.9960	46.4760
 0.9970	46.5450
 0.9980	46.6140
 0.9990	46.6820
 1.0000	46.7510
 1.0010	46.8190
 1.0020	46.8880
 1.0030	46.9560
 1.0040	47.0250
 1.0050	47.0940
 1.0060	47.1620
 1.0070	47.2310
 1.0080	47.2990
 1.0090	47.3680
 1.0100	47.3680
 1.0110	47.3760
 1.0120	47.3840
 1.0130	47.3920
 1.0140	47.4000
 1.0150	47.4090
 1.0160	47.4140
 1.0170	47.4220
 1.0180	47.4320
 1.0190	47.4440
 1.0200	47.4540
 1.0210	47.4640
 1.0220	47.4730
 1.0230	47.4810
 1.0240	47.4870
 1.0250	47.4950
 1.0260	47.5060
 1.0270	47.5150
 1.0280	47.5260
 1.0290	47.5340
 1.0300	47.5370
 1.0310	47.5440
 1.0320	47.5510
 1.0330	47.5590
 1.0340	47.5720
 1.0350	47.5850
 1.0360	47.5920
 1.0370	47.6030
 1.0380	47.6110
 1.0390	47.6150
 1.0400	47.6210
 1.0410	47.6270
 1.0420	47.6330
 1.0430	47.6370
 1.0440	47.6410
 1.0450	47.6460
 1.0460	47.6500
 1.0470	47.6520
 1.0480	47.6560
 1.0490	47.6590
 1.0500	47.6640
 1.0510	47.6700
 1.0520	47.6790
 1.0530	47.6850
 1.0540	47.6940
 1.0550	47.6980
 1.0560	47.6970
 1.0570	47.7030
 1.0580	47.7100
 1.0590	47.7160
 1.0600	47.7250
 1.0610	47.7310
 1.0620	47.7360
 1.0630	47.7380
 1.0640	47.7360
 1.0650	47.7370
 1.0660	47.7370
 1.0670	47.7370
 1.0680	47.7380
 1.0690	47.7420
 1.0700	47.7440
 1.0710	47.7460
 1.0720	47.7480
 1.0730	47.7510
 1.0740	47.7530
 1.0750	47.7550
 1.0760	47.7540
 1.0770	47.7530
 1.0780	47.7510
 1.0790	47.7470
 1.0800	47.7450
 1.0810	47.7470
 1.0820	47.7460
 1.0830	47.7430
 1.0840	47.7410
 1.0850	47.7360
 1.0860	47.7320
 1.0870	47.7290
 1.0880	47.7250
 1.0890	47.7220
 1.0900	47.7200
 1.0910	47.7170
 1.0920	47.7140
 1.0930	47.7090
 1.0940	47.7040
 1.0950	47.6970
 1.0960	47.6870
 1.0970	47.6800
 1.0980	47.6740
 1.0990	47.6680
 1.1000	47.6640
 1.1010	47.6590
 1.1020	47.6510
 1.1030	47.6440
 1.1040	47.6360
 1.1050	47.6260
 1.1060	47.6170
 1.1070	47.6070
 1.1080	47.5970
 1.1090	47.5880
 1.1100	47.5760
 1.1110	47.5610
 1.1120	47.5480
 1.1130	47.5340
 1.1140	47.5210
 1.1150	47.5130
 1.1160	47.4990
 1.1170	47.4810
 1.1180	47.4640
 1.1190	47.4460
 1.1200	47.4270
 1.1210	47.4100
 1.1220	47.3910
 1.1230	47.3680
 1.1240	47.3420
 1.1250	47.3130
 1.1260	47.2820
 1.1270	47.2460
 1.1280	47.2040
 1.1290	47.1610
 1.1300	47.1170
 1.1310	47.0660
 1.1320	47.0130
 1.1330	46.9530
 1.1340	46.8870
 1.1350	46.8180
 1.1360	46.7440
 1.1370	46.6670
 1.1380	46.5880
 1.1390	46.5050
 1.1400	46.4190
 1.1410	46.3300
 1.1420	46.2380
 1.1430	46.1450
 1.1440	46.0520
 1.1450	45.9580
 1.1460	45.8660
 1.1470	45.7710
 1.1480	45.6820
 1.1490	45.5960
 1.1500	45.5170
 1.1510	45.4410
 1.1520	45.3700
 1.1530	45.3030
 1.1540	45.2410
 1.1550	45.1850
 1.1560	45.1330
 1.1570	45.0860
 1.1580	45.0490
 1.1590	45.0140
 1.1600	44.9850
 1.1610	44.9590
 1.1620	44.9360
 1.1630	44.9150
 1.1640	44.8960
 1.1650	44.8810
 1.1660	44.8720
 1.1670	44.8610
 1.1680	44.8530
 1.1690	44.8440
 1.1700	44.8320
 1.1710	44.8240
 1.1720	44.8190
 1.1730	44.8130
 1.1740	44.8090
 1.1750	44.8040
 1.1760	44.7990
 1.1770	44.7900
 1.1780	44.7810
 1.1790	44.7730
 1.1800	44.7640
 1.1810	44.7560
 1.1820	44.7480
 1.1830	44.7400
 1.1840	44.7350
 1.1850	44.7290
 1.1860	44.7220
 1.1870	44.7170
 1.1880	44.7110
 1.1890	44.7050
 1.1900	44.6990
 1.1910	44.6910
 1.1920	44.6860
 1.1930	44.6820
 1.1940	44.6790
 1.1950	44.6780
 1.1960	44.6780
 1.1970	44.6760
 1.1980	44.6740
 1.1990	44.6740
 1.2000	44.6760
 1.2010	44.6770
 1.2020	44.6800
 1.2030	44.6840
 1.2040	44.6870
 1.2050	44.6930
 1.2060	44.7020
 1.2070	44.7090
 1.2080	44.7160
 1.2090	44.7220
 1.2100	44.7300
 1.2110	44.7380
 1.2120	44.7450
 1.2130	44.7540
 1.2140	44.7650
 1.2150	44.7750
 1.2160	44.7860
 1.2170	44.7980
 1.2180	44.8100
 1.2190	44.8210
 1.2200	44.8350
 1.2210	44.8510
 1.2220	44.8650
 1.2230	44.8790
 1.2240	44.8900
 1.2250	44.8990
 1.2260	44.9090
 1.2270	44.9200
 1.2280	44.9310
 1.2290	44.9420
 1.2300	44.9530
 1.2310	44.9610
 1.2320	44.9690
 1.2330	44.9780
 1.2340	44.9880
 1.2350	44.9980
 1.2360	45.0070
 1.2370	45.0170
 1.2380	45.0260
 1.2390	45.0340
 1.2400	45.0420
 1.2410	45.0500
 1.2420	45.0590
 1.2430	45.0660
 1.2440	45.0720
 1.2450	45.0800
 1.2460	45.0880
 1.2470	45.0950
 1.2480	45.1030
 1.2490	45.1090
 1.2500	45.1110
 1.2510	45.1130
 1.2520	45.1180
 1.2530	45.1230
 1.2540	45.1270
 1.2550	45.1280
 1.2560	45.1290
 1.2570	45.1270
 1.2580	45.1250
 1.2590	45.1250
 1.2600	45.1300
 1.2610	45.1300
 1.2620	45.1310
 1.2630	45.1310
 1.2640	45.1290
 1.2650	45.1270
 1.2660	45.1240
 1.2670	45.1220
 1.2680	45.1190
 1.2690	45.1150
 1.2700	45.1080
 1.2710	45.0990
 1.2720	45.0910
 1.2730	45.0810
 1.2740	45.0710
 1.2750	45.0640
 1.2760	45.0540
 1.2770	45.0420
 1.2780	45.0300
 1.2790	45.0160
 1.2800	45.0010
 1.2810	44.9860
 1.2820	44.9710
 1.2830	44.9530
 1.2840	44.9350
 1.2850	44.9180
 1.2860	44.9000
 1.2870	44.8810
 1.2880	44.8640
 1.2890	44.8440
 1.2900	44.8200
 1.2910	44.7950
 1.2920	44.7660
 1.2930	44.7380
 1.2940	44.7100
 1.2950	44.6790
 1.2960	44.6490
 1.2970	44.6180
 1.2980	44.5850
 1.2990	44.5490
 1.3000	44.5090
 1.3010	44.4690
 1.3020	44.4280
 1.3030	44.3850
 1.3040	44.3450
 1.3050	44.3000
 1.3060	44.2500
 1.3070	44.1980
 1.3080	44.1440
 1.3090	44.0870
 1.3100	44.0310
 1.3110	43.9740
 1.3120	43.9110
 1.3130	43.8470
 1.3140	43.7810
 1.3150	43.7100
 1.3160	43.6380
 1.3170	43.5660
 1.3180	43.4900
 1.3190	43.4130
 1.3200	43.3330
 1.3210	43.2500
 1.3220	43.1640
 1.3230	43.0770
 1.3240	42.9860
 1.3250	42.8940
 1.3260	42.8010
 1.3270	42.7070
 1.3280	42.6110
 1.3290	42.5140
 1.3300	42.4140
 1.3310	42.3130
 1.3320	42.2110
 1.3330	42.1080
 1.3340	42.0060
 1.3350	41.9010
 1.3360	41.7950
 1.3370	41.6880
 1.3380	41.5810
 1.3390	41.4720
 1.3400	41.3640
 1.3410	41.2590
 1.3420	41.1550
 1.3430	41.0510
 1.3440	40.9480
 1.3450	40.8460
 1.3460	40.7420
 1.3470	40.6420
 1.3480	40.5450
 1.3490	40.4470
 1.3500	40.3510
 1.3510	40.2540
 1.3520	40.1570
 1.3530	40.0590
 1.3540	39.9610
 1.3550	39.8640
 1.3560	39.7670
 1.3570	39.6670
 1.3580	39.5670
 1.3590	39.4640
 1.3600	39.3580
 1.3610	39.2500
 1.3620	39.1390
 1.3630	39.0240
 1.3640	38.9040
 1.3650	38.7790
 1.3660	38.6470
 1.3670	38.5050
 1.3680	38.3570
 1.3690	38.2010
 1.3700	38.0330
 1.3710	37.8540
 1.3720	37.6620
 1.3730	37.4540
 1.3740	37.2340
 1.3750	36.9990
 1.3760	36.7450
 1.3770	36.4720
 1.3780	36.1770
 1.3790	35.8650
 1.3800	35.5340
 1.3810	35.1790
 1.3820	34.8090
 1.3830	34.4210
 1.3840	34.0160
 1.3850	33.5940
 1.3860	33.1570
 1.3870	32.6990
 1.3880	32.2340
 1.3890	31.7560
 1.3900	31.2650
 1.3910	30.7710
 1.3920	30.2700
 1.3930	29.7640
 1.3940	29.2590
 1.3950	28.7520
 1.3960	28.2520
 1.3970	27.7580
 1.3980	27.2730
 1.3990	26.8040
 1.4000	26.3460
 1.4010	25.9000
 1.4020	25.4720
 1.4030	25.0560
 1.4040	24.6600
 1.4050	24.2840
 1.4060	23.9260
 1.4070	23.5910
 1.4080	23.2740
 1.4090	22.9760
 1.4100	22.6980
 1.4110	22.4350
 1.4120	22.1930
 1.4130	21.9670
 1.4140	21.7580
 1.4150	21.5680
 1.4160	21.3930
 1.4170	21.2330
 1.4180	21.0860
 1.4190	20.9500
 1.4200	20.8260
 1.4210	20.7130
 1.4220	20.6120
 1.4230	20.5210
 1.4240	20.4390
 1.4250	20.3650
 1.4260	20.3000
 1.4270	20.2410
 1.4280	20.1890
 1.4290	20.1420
 1.4300	20.1010
 1.4310	20.0650
 1.4320	20.0360
 1.4330	20.0100
 1.4340	19.9900
 1.4350	19.9730
 1.4360	19.9600
 1.4370	19.9500
 1.4380	19.9440
 1.4390	19.9420
 1.4400	19.9410
 1.4410	19.9420
 1.4420	19.9460
 1.4430	19.9510
 1.4440	19.9600
 1.4450	19.9700
 1.4460	19.9810
 1.4470	19.9940
 1.4480	20.0080
 1.4490	20.0230
 1.4500	20.0410
 1.4510	20.0580
 1.4520	20.0770
 1.4530	20.0980
 1.4540	20.1200
 1.4550	20.1440
 1.4560	20.1710
 1.4570	20.2000
 1.4580	20.2310
 1.4590	20.2640
 1.4600	20.3020
 1.4610	20.3420
 1.4620	20.3880
 1.4630	20.4390
 1.4640	20.4930
 1.4650	20.5520
 1.4660	20.6160
 1.4670	20.6840
 1.4680	20.7580
 1.4690	20.8360
 1.4700	20.9180
 1.4710	21.0050
 1.4720	21.0960
 1.4730	21.1900
 1.4740	21.2880
 1.4750	21.3890
 1.4760	21.4920
 1.4770	21.5960
 1.4780	21.7010
 1.4790	21.8100
 1.4800	21.9190
 1.4810	22.0300
 1.4820	22.1430
 1.4830	22.2570
 1.4840	22.3730
 1.4850	22.4880
 1.4860	22.6040
 1.4870	22.7210
 1.4880	22.8360
 1.4890	22.9540
 1.4900	23.0730
 1.4910	23.1920
 1.4920	23.3100
 1.4930	23.4280
 1.4940	23.5460
 1.4950	23.6650
 1.4960	23.7850
 1.4970	23.9050
 1.4980	24.0240
 1.4990	24.1430
 1.5000	24.2630
 1.5010	24.3840
 1.5020	24.5030
 1.5030	24.6240
 1.5040	24.7420
 1.5050	24.8550
 1.5060	24.9720
 1.5070	25.0890
 1.5080	25.2060
 1.5090	25.3230
 1.5100	25.4400
 1.5110	25.5540
 1.5120	25.6680
 1.5130	25.7820
 1.5140	25.8940
 1.5150	26.0050
 1.5160	26.1160
 1.5170	26.2270
 1.5180	26.3370
 1.5190	26.4470
 1.5200	26.5570
 1.5210	26.6630
 1.5220	26.7690
 1.5230	26.8750
 1.5240	26.9800
 1.5250	27.0840
 1.5260	27.1880
 1.5270	27.2890
 1.5280	27.3910
 1.5290	27.4900
 1.5300	27.5890
 1.5310	27.6870
 1.5320	27.7840
 1.5330	27.8820
 1.5340	27.9770
 1.5350	28.0710
 1.5360	28.1650
 1.5370	28.2570
 1.5380	28.3480
 1.5390	28.4400
 1.5400	28.5300
 1.5410	28.6190
 1.5420	28.7070
 1.5430	28.7920
 1.5440	28.8780
 1.5450	28.9610
 1.5460	29.0450
 1.5470	29.1310
 1.5480	29.2140
 1.5490	29.2970
 1.5500	29.3790
 1.5510	29.4580
 1.5520	29.5370
 1.5530	29.6140
 1.5540	29.6900
 1.5550	29.7670
 1.5560	29.8430
 1.5570	29.9190
 1.5580	29.9950
 1.5590	30.0690
 1.5600	30.1410
 1.5610	30.2110
 1.5620	30.2800
 1.5630	30.3480
 1.5640	30.4170
 1.5650	30.4860
 1.5660	30.5540
 1.5670	30.6210
 1.5680	30.6870
 1.5690	30.7500
 1.5700	30.8130
 1.5710	30.8760
 1.5720	30.9380
 1.5730	31.0000
 1.5740	31.0630
 1.5750	31.1240
 1.5760	31.1860
 1.5770	31.2460
 1.5780	31.3050
 1.5790	31.3640
 1.5800	31.4210
 1.5810	31.4790
 1.5820	31.5380
 1.5830	31.5930
 1.5840	31.6490
 1.5850	31.7030
 1.5860	31.7570
 1.5870	31.8110
 1.5880	31.8630
 1.5890	31.9170
 1.5900	31.9690
 1.5910	32.0210
 1.5920	32.0720
 1.5930	32.1210
 1.5940	32.1720
 1.5950	32.2240
 1.5960	32.2750
 1.5970	32.3270
 1.5980	32.3760
 1.5990	32.4230
 1.6000	32.4690
 1.6010	32.5140
 1.6020	32.5590
 1.6030	32.6030
 1.6040	32.6490
 1.6050	32.6920
 1.6060	32.7360
 1.6070	32.7780
 1.6080	32.8200
 1.6090	32.8600
 1.6100	32.9020
 1.6110	32.9430
 1.6120	32.9810
 1.6130	33.0180
 1.6140	33.0540
 1.6150	33.0920
 1.6160	33.1300
 1.6170	33.1670
 1.6180	33.2030
 1.6190	33.2370
 1.6200	33.2690
 1.6210	33.3020
 1.6220	33.3330
 1.6230	33.3650
 1.6240	33.3960
 1.6250	33.4260
 1.6260	33.4580
 1.6270	33.4890
 1.6280	33.5200
 1.6290	33.5490
 1.6300	33.5770
 1.6310	33.6050
 1.6320	33.6310
 1.6330	33.6570
 1.6340	33.6830
 1.6350	33.7060
 1.6360	33.7280
 1.6370	33.7490
 1.6380	33.7670
 1.6390	33.7850
 1.6400	33.8030
 1.6410	33.8190
 1.6420	33.8340
 1.6430	33.8480
 1.6440	33.8610
 1.6450	33.8710
 1.6460	33.8820
 1.6470	33.8920
 1.6480	33.9000
 1.6490	33.9060
 1.6500	33.9110
 1.6510	33.9120
 1.6520	33.9110
 1.6530	33.9140
 1.6540	33.9150
 1.6550	33.9150
 1.6560	33.9150
 1.6570	33.9140
 1.6580	33.9120
 1.6590	33.9110
 1.6600	33.9100
 1.6610	33.9090
 1.6620	33.9090
 1.6630	33.9090
 1.6640	33.9100
 1.6650	33.9110
 1.6660	33.9110
 1.6670	33.9140
 1.6680	33.9180
 1.6690	33.9210
 1.6700	33.9220
 1.6710	33.9210
 1.6720	33.9180
 1.6730	33.9140
 1.6740	33.9110
 1.6750	33.9050
 1.6760	33.8940
 1.6770	33.8810
 1.6780	33.8680
 1.6790	33.8540
 1.6800	33.8400
 1.6810	33.8230
 1.6820	33.8010
 1.6830	33.7770
 1.6840	33.7530
 1.6850	33.7260
 1.6860	33.6970
 1.6870	33.6700
 1.6880	33.6380
 1.6890	33.6010
 1.6900	33.5670
 1.6910	33.5310
 1.6920	33.4990
 1.6930	33.4700
 1.6940	33.4380
 1.6950	33.4060
 1.6960	33.3740
 1.6970	33.3400
 1.6980	33.3080
 1.6990	33.2780
 1.7000	33.2450
 1.7010	33.2110
 1.7020	33.1760
 1.7030	33.1400
 1.7040	33.1030
 1.7050	33.0670
 1.7060	33.0300
 1.7070	32.9910
 1.7080	32.9520
 1.7090	32.9160
 1.7100	32.8770
 1.7110	32.8370
 1.7120	32.7990
 1.7130	32.7600
 1.7140	32.7210
 1.7150	32.6850
 1.7160	32.6460
 1.7170	32.6070
 1.7180	32.5680
 1.7190	32.5290
 1.7200	32.4890
 1.7210	32.4480
 1.7220	32.4070
 1.7230	32.3680
 1.7240	32.3260
 1.7250	32.2850
 1.7260	32.2440
 1.7270	32.2020
 1.7280	32.1630
 1.7290	32.1240
 1.7300	32.0840
 1.7310	32.0440
 1.7320	32.0050
 1.7330	31.9650
 1.7340	31.9260
 1.7350	31.8840
 1.7360	31.8410
 1.7370	31.7970
 1.7380	31.7510
 1.7390	31.7070
 1.7400	31.6630
 1.7410	31.6180
 1.7420	31.5750
 1.7430	31.5280
 1.7440	31.4800
 1.7450	31.4320
 1.7460	31.3830
 1.7470	31.3310
 1.7480	31.2780
 1.7490	31.2260
 1.7500	31.1730
 1.7510	31.1210
 1.7520	31.0710
 1.7530	31.0190
 1.7540	30.9660
 1.7550	30.9120
 1.7560	30.8580
 1.7570	30.8060
 1.7580	30.7530
 1.7590	30.6990
 1.7600	30.6460
 1.7610	30.5910
 1.7620	30.5390
 1.7630	30.4890
 1.7640	30.4400
 1.7650	30.3910
 1.7660	30.3440
 1.7670	30.3000
 1.7680	30.2560
 1.7690	30.2160
 1.7700	30.1750
 1.7710	30.1340
 1.7720	30.0960
 1.7730	30.0600
 1.7740	30.0250
 1.7750	29.9940
 1.7760	29.9610
 1.7770	29.9280
 1.7780	29.8960
 1.7790	29.8640
 1.7800	29.8320
 1.7810	29.8000
 1.7820	29.7720
 1.7830	29.7460
 1.7840	29.7220
 1.7850	29.7010
 1.7860	29.6800
 1.7870	29.6590
 1.7880	29.6400
 1.7890	29.6250
 1.7900	29.6110
 1.7910	29.5990
 1.7920	29.5910
 1.7930	29.5820
 1.7940	29.5740
 1.7950	29.5660
 1.7960	29.5580
 1.7970	29.5510
 1.7980	29.5460
 1.7990	29.5400
 1.8000	29.5360
 1.8010	29.5320
 1.8020	29.5270
 1.8030	29.5270
 1.8040	29.5300
 1.8050	29.5330
 1.8060	29.5390
 1.8070	29.5400
 1.8080	29.5380
 1.8090	29.5380
 1.8100	29.5360
 1.8110	29.5350
 1.8120	29.5360
 1.8130	29.5370
 1.8140	29.5360
 1.8150	29.5290
 1.8160	29.5240
 1.8170	29.5180
 1.8180	29.5140
 1.8190	29.5160
 1.8200	29.5130
 1.8210	29.5040
 1.8220	29.4960
 1.8230	29.4890
 1.8240	29.4810
 1.8250	29.4730
 1.8260	29.4610
 1.8270	29.3880
 1.8280	29.3140
 1.8290	29.2400
 1.8300	29.1660
 1.8310	29.0930
 1.8320	29.0190
 1.8330	28.9450
 1.8340	28.8710
 1.8350	28.8710
 1.8360	28.8350
 1.8370	28.7870
 1.8380	28.7400
 1.8390	28.6900
 1.8400	28.6430
 1.8410	28.5850
 1.8420	28.5260
 1.8430	28.4520
 1.8440	28.3720
 1.8450	28.2890
 1.8460	28.1980
 1.8470	28.1060
 1.8480	28.0030
 1.8490	27.8880
 1.8500	27.7650
 1.8510	27.6310
 1.8520	27.4890
 1.8530	27.3400
 1.8540	27.1810
 1.8550	27.0090
 1.8560	26.8210
 1.8570	26.6220
 1.8580	26.4110
 1.8590	26.1890
 1.8600	25.9560
 1.8610	25.7120
 1.8620	25.4520
 1.8630	25.1770
 1.8640	24.8840
 1.8650	24.5750
 1.8660	24.2480
 1.8670	23.9030
 1.8680	23.5390
 1.8690	23.1590
 1.8700	22.7650
 1.8710	22.3570
 1.8720	21.9360
 1.8730	21.5020
 1.8740	21.0600
 1.8750	20.6080
 1.8760	20.1490
 1.8770	19.6910
 1.8780	19.2290
 1.8790	18.7590
 1.8800	18.2990
 1.8810	17.8410
 1.8820	17.3840
 1.8830	16.9320
 1.8840	16.4890
 1.8850	16.0470
 1.8860	15.6160
 1.8870	15.1980
 1.8880	14.7930
 1.8890	14.4100
 1.8900	14.0430
 1.8910	13.6960
 1.8920	13.3660
 1.8930	13.0600
 1.8940	12.7700
 1.8950	12.5020
 1.8960	12.2530
 1.8970	12.0210
 1.8980	11.8090
 1.8990	11.6130
 1.9000	11.4360
 1.9010	11.2790
 1.9020	11.1350
 1.9030	11.0080
 1.9040	10.8960
 1.9050	10.7980
 1.9060	10.7100
 1.9070	10.6310
 1.9080	10.5620
 1.9090	10.5020
 1.9100	10.4460
 1.9110	10.3960
 1.9120	10.3570
 1.9130	10.3200
 1.9140	10.2850
 1.9150	10.2580
 1.9160	10.2360
 1.9170	10.2170
 1.9180	10.2030
 1.9190	10.1920
 1.9200	10.1840
 1.9210	10.1780
 1.9220	10.1730
 1.9230	10.1670
 1.9240	10.1660
 1.9250	10.1680
 1.9260	10.1710
 1.9270	10.1760
 1.9280	10.1820
 1.9290	10.1880
 1.9300	10.1930
 1.9310	10.2020
 1.9320	10.2160
 1.9330	10.2300
 1.9340	10.2490
 1.9350	10.2660
 1.9360	10.2830
 1.9370	10.3020
 1.9380	10.3200
 1.9390	10.3390
 1.9400	10.3620
 1.9410	10.3850
 1.9420	10.4080
 1.9430	10.4330
 1.9440	10.4590
 1.9450	10.4850
 1.9460	10.5140
 1.9470	10.5460
 1.9480	10.5750
 1.9490	10.6040
 1.9500	10.6360
 1.9510	10.6640
 1.9520	10.6940
 1.9530	10.7280
 1.9540	10.7630
 1.9550	10.7970
 1.9560	10.8300
 1.9570	10.8670
 1.9580	10.9030
 1.9590	10.9410
 1.9600	10.9830
 1.9610	11.0250
 1.9620	11.0680
 1.9630	11.1100
 1.9640	11.1520
 1.9650	11.1960
 1.9660	11.2400
 1.9670	11.2830
 1.9680	11.3270
 1.9690	11.3740
 1.9700	11.4210
 1.9710	11.4680
 1.9720	11.5160
 1.9730	11.5650
 1.9740	11.6140
 1.9750	11.6640
 1.9760	11.7150
 1.9770	11.7680
 1.9780	11.8230
 1.9790	11.8780
 1.9800	11.9340
 1.9810	11.9910
 1.9820	12.0470
 1.9830	12.1040
 1.9840	12.1610
 1.9850	12.2200
 1.9860	12.2790
 1.9870	12.3380
 1.9880	12.3980
 1.9890	12.4610
 1.9900	12.5240
 1.9910	12.5850
 1.9920	12.6460
 1.9930	12.7070
 1.9940	12.7690
 1.9950	12.8300
 1.9960	12.8930
 1.9970	12.9590
 1.9980	13.0230
 1.9990	13.0850
 2.0000	13.1510
 2.0010	13.2150
 2.0020	13.2790
 2.0030	13.3460
 2.0040	13.4120
 2.0050	13.4770
 2.0060	13.5440
 2.0070	13.6080
 2.0080	13.6710
 2.0090	13.7340
 2.0100	13.7950
 2.0110	13.8560
 2.0120	13.9170
 2.0130	13.9790
 2.0140	14.0400
 2.0150	14.1000
 2.0160	14.1620
 2.0170	14.2230
 2.0180	14.2840
 2.0190	14.3460
 2.0200	14.4070
 2.0210	14.4670
 2.0220	14.5250
 2.0230	14.5820
 2.0240	14.6390
 2.0250	14.6960
 2.0260	14.7520
 2.0270	14.8060
 2.0280	14.8630
 2.0290	14.9150
 2.0300	14.9680
 2.0310	15.0190
 2.0320	15.0700
 2.0330	15.1190
 2.0340	15.1680
 2.0350	15.2160
 2.0360	15.2660
 2.0370	15.3140
 2.0380	15.3590
 2.0390	15.4060
 2.0400	15.4500
 2.0410	15.4950
 2.0420	15.5420
 2.0430	15.5880
 2.0440	15.6330
 2.0450	15.6790
 2.0460	15.7220
 2.0470	15.7630
 2.0480	15.8030
 2.0490	15.8380
 2.0500	15.8770
 2.0510	15.9150
 2.0520	15.9540
 2.0530	15.9920
 2.0540	16.0330
 2.0550	16.0750
 2.0560	16.1150
 2.0570	16.1560
 2.0580	16.1980
 2.0590	16.2380
 2.0600	16.2750
 2.0610	16.3160
 2.0620	16.3590
 2.0630	16.4010
 2.0640	16.4450
 2.0650	16.4880
 2.0660	16.5280
 2.0670	16.5690
 2.0680	16.6090
 2.0690	16.6480
 2.0700	16.6880
 2.0710	16.7270
 2.0720	16.7640
 2.0730	16.8030
 2.0740	16.8410
 2.0750	16.8770
 2.0760	16.9160
 2.0770	16.9560
 2.0780	16.9970
 2.0790	17.0410
 2.0800	17.0820
 2.0810	17.1220
 2.0820	17.1620
 2.0830	17.2030
 2.0840	17.2410
 2.0850	17.2790
 2.0860	17.3170
 2.0870	17.3550
 2.0880	17.3890
 2.0890	17.4230
 2.0900	17.4570
 2.0910	17.4920
 2.0920	17.5250
 2.0930	17.5600
 2.0940	17.5970
 2.0950	17.6330
 2.0960	17.6700
 2.0970	17.7060
 2.0980	17.7400
 2.0990	17.7740
 2.1000	17.8070
 2.1010	17.8410
 2.1020	17.8740
 2.1030	17.9080
 2.1040	17.9400
 2.1050	17.9750
 2.1060	18.0090
 2.1070	18.0430
 2.1080	18.0770
 2.1090	18.1120
 2.1100	18.1440
 2.1110	18.1760
 2.1120	18.2060
 2.1130	18.2300
 2.1140	18.2600
 2.1150	18.2920
 2.1160	18.3220
 2.1170	18.3530
 2.1180	18.3850
 2.1190	18.4140
 2.1200	18.4440
 2.1210	18.4730
 2.1220	18.5070
 2.1230	18.5370
 2.1240	18.5690
 2.1250	18.5950
 2.1260	18.6190
 2.1270	18.6450
 2.1280	18.6700
 2.1290	18.6940
 2.1300	18.7210
 2.1310	18.7440
 2.1320	18.7620
 2.1330	18.7840
 2.1340	18.8090
 2.1350	18.8310
 2.1360	18.8540
 2.1370	18.8740
 2.1380	18.8890
 2.1390	18.9070
 2.1400	18.9260
 2.1410	18.9430
 2.1420	18.9620
 2.1430	18.9830
 2.1440	19.0020
 2.1450	19.0200
 2.1460	19.0390
 2.1470	19.0610
 2.1480	19.0780
 2.1490	19.0920
 2.1500	19.1080
 2.1510	19.1210
 2.1520	19.1380
 2.1530	19.1600
 2.1540	19.1770
 2.1550	19.1920
 2.1560	19.2060
 2.1570	19.2160
 2.1580	19.2260
 2.1590	19.2340
 2.1600	19.2440
 2.1610	19.2540
 2.1620	19.2630
 2.1630	19.2750
 2.1640	19.2910
 2.1650	19.3060
 2.1660	19.3230
 2.1670	19.3360
 2.1680	19.3460
 2.1690	19.3570
 2.1700	19.3680
 2.1710	19.3790
 2.1720	19.3900
 2.1730	19.4020
 2.1740	19.4140
 2.1750	19.4270
 2.1760	19.4440
 2.1770	19.4570
 2.1780	19.4690
 2.1790	19.4820
 2.1800	19.4920
 2.1810	19.5050
 2.1820	19.5230
 2.1830	19.5380
 2.1840	19.5550
 2.1850	19.5760
 2.1860	19.5910
 2.1870	19.6030
 2.1880	19.6170
 2.1890	19.6270
 2.1900	19.6430
 2.1910	19.6630
 2.1920	19.6820
 2.1930	19.7040
 2.1940	19.7220
 2.1950	19.7390
 2.1960	19.7540
 2.1970	19.7650
 2.1980	19.7790
 2.1990	19.7940
 2.2000	19.8080
 2.2010	19.8250
 2.2020	19.8390
 2.2030	19.8510
 2.2040	19.8640
 2.2050	19.8790
 2.2060	19.8890
 2.2070	19.9020
 2.2080	19.9160
 2.2090	19.9280
 2.2100	19.9390
 2.2110	19.9500
 2.2120	19.9620
 2.2130	19.9710
 2.2140	19.9790
 2.2150	19.9860
 2.2160	19.9900
 2.2170	19.9940
 2.2180	20.0000
 2.2190	20.0020
 2.2200	20.0000
 2.2210	20.0000
 2.2220	19.9960
 2.2230	19.9940
 2.2240	19.9980
 2.2250	19.9970
 2.2260	19.9970
 2.2270	19.9900
 2.2280	19.9720
 2.2290	19.9580
 2.2300	19.9410
 2.2310	19.9240
 2.2320	19.9120
 2.2330	19.8950
 2.2340	19.8750
 2.2350	19.8500
 2.2360	19.8260
 2.2370	19.8000
 2.2380	19.7720
 2.2390	19.7460
 2.2400	19.7130
 2.2410	19.6740
 2.2420	19.6370
 2.2430	19.5970
 2.2440	19.5600
 2.2450	19.5240
 2.2460	19.4870
 2.2470	19.4520
 2.2480	19.4140
 2.2490	19.3750
 2.2500	19.3360
 2.2510	19.2950
 2.2520	19.2550
 2.2530	19.2150
 2.2540	19.1770
 2.2550	19.1410
 2.2560	19.1040
 2.2570	19.0700
 2.2580	19.0310
 2.2590	18.9900
 2.2600	18.9480
 2.2610	18.9020
 2.2620	18.8550
 2.2630	18.8120
 2.2640	18.7690
 2.2650	18.7270
 2.2660	18.6840
 2.2670	18.6400
 2.2680	18.5950
 2.2690	18.5520
 2.2700	18.5090
 2.2710	18.4660
 2.2720	18.4220
 2.2730	18.3800
 2.2740	18.3380
 2.2750	18.2980
 2.2760	18.2610
 2.2770	18.2220
 2.2780	18.1830
 2.2790	18.1450
 2.2800	18.1080
 2.2810	18.0690
 2.2820	18.0310
 2.2830	17.9920
 2.2840	17.9490
 2.2850	17.9110
 2.2860	17.8760
 2.2870	17.8400
 2.2880	17.8080
 2.2890	17.7710
 2.2900	17.7300
 2.2910	17.6890
 2.2920	17.6440
 2.2930	17.6010
 2.2940	17.5590
 2.2950	17.5150
 2.2960	17.4680
 2.2970	17.4250
 2.2980	17.3820
 2.2990	17.3410
 2.3000	17.3040
 2.3010	17.2660
 2.3020	17.2240
 2.3030	17.1820
 2.3040	17.1390
 2.3050	17.0950
 2.3060	17.0590
 2.3070	17.0200
 2.3080	16.9790
 2.3090	16.9540
 2.3100	16.9260
 2.3110	16.8940
 2.3120	16.8690
 2.3130	16.8470
 2.3140	16.8220
 2.3150	16.8010
 2.3160	16.7770
 2.3170	16.7490
 2.3180	16.7210
 2.3190	16.6870
 2.3200	16.6580
 2.3210	16.6320
 2.3220	16.6010
 2.3230	16.5710
 2.3240	16.5400
 2.3250	16.5040
 2.3260	16.4720
 2.3270	16.4450
 2.3280	16.4100
 2.3290	16.3690
 2.3300	16.3300
 2.3310	16.2850
 2.3320	16.2460
 2.3330	16.2150
 2.3340	16.1770
 2.3350	16.1400
 2.3360	16.0980
 2.3370	16.0460
 2.3380	16.0060
 2.3390	15.9720
 2.3400	15.9350
 2.3410	15.9060
 2.3420	15.8680
 2.3430	15.8190
 2.3440	15.7770
 2.3450	15.7380
 2.3460	15.6970
 2.3470	15.6590
 2.3480	15.6210
 2.3490	15.5770
 2.3500	15.5440
 2.3510	15.5240
 2.3520	15.4970
 2.3530	15.4720
 2.3540	15.4430
 2.3550	15.4110
 2.3560	15.3750
 2.3570	15.3430
 2.3580	15.3150
 2.3590	15.2870
 2.3600	15.2610
 2.3610	15.2330
 2.3620	15.2020
 2.3630	15.1760
 2.3640	15.1460
 2.3650	15.1030
 2.3660	15.0630
 2.3670	15.0200
 2.3680	14.9710
 2.3690	14.9400
 2.3700	14.9130
 2.3710	14.8790
 2.3720	14.8440
 2.3730	14.8020
 2.3740	14.7630
 2.3750	14.7270
 2.3760	14.6950
 2.3770	14.6620
 2.3780	14.6260
 2.3790	14.5890
 2.3800	14.5450
 2.3810	14.5100
 2.3820	14.4730
 2.3830	14.4270
 2.3840	14.3880
 2.3850	14.3410
 2.3860	14.2930
 2.3870	14.2560
 2.3880	14.2170
 2.3890	14.1780
 2.3900	14.1450
 2.3910	14.1130
 2.3920	14.0740
 2.3930	14.0380
 2.3940	14.0110
 2.3950	13.9720
 2.3960	13.9310
 2.3970	13.8890
 2.3980	13.8340
 2.3990	13.7850
 2.4000	13.7530
 2.4010	13.7250
 2.4020	13.6960
 2.4030	13.6680
 2.4040	13.6260
 2.4050	13.5700
 2.4060	13.5170
 2.4070	13.4700
 2.4080	13.4250
 2.4090	13.3770
 2.4100	13.3300
 2.4110	13.2750
 2.4120	13.2210
 2.4130	13.1840
 2.4140	13.1440
 2.4150	13.1060
 2.4160	13.0690
 2.4170	13.0110
 2.4180	12.9600
 2.4190	12.9200
 2.4200	12.8730
 2.4210	12.8300
 2.4220	12.7920
 2.4230	12.7440
 2.4240	12.6920
 2.4250	12.6570
 2.4260	12.6110
 2.4270	12.5600
 2.4280	12.5180
 2.4290	12.4590
 2.4300	12.4170
 2.4310	12.3820
 2.4320	12.3500
 2.4330	12.3250
 2.4340	12.2810
 2.4350	12.2430
 2.4360	12.1900
 2.4370	12.1380
 2.4380	12.1090
 2.4390	12.0710
 2.4400	12.0360
 2.4410	12.0120
 2.4420	11.9790
 2.4430	11.9410
 2.4440	11.9090
 2.4450	11.8720
 2.4460	11.8280
 2.4470	11.7840
 2.4480	11.7410
 2.4490	11.6720
 2.4500	11.6080
 2.4510	11.5780
 2.4520	11.5460
 2.4530	11.5220
 2.4540	11.5010
 2.4550	11.4480
 2.4560	11.3980
 2.4570	11.3660
 2.4580	11.3380
 2.4590	11.3170
 2.4600	11.2910
 2.4610	11.2600
 2.4620	11.2090
 2.4630	11.1530
 2.4640	11.1140
 2.4650	11.0840
 2.4660	11.0630
 2.4670	11.0580
 2.4680	11.0580
 2.4690	11.0450
 2.4700	11.0230
 2.4710	10.9830
 2.4720	10.9530
 2.4730	10.9190
 2.4740	10.8920
 2.4750	10.8840
 2.4760	10.8700
 2.4770	10.8440
 2.4780	10.8160
 2.4790	10.7980
 2.4800	10.7740
 2.4810	10.7370
 2.4820	10.7500
 2.4830	10.7150
 2.4840	10.6590
 2.4850	10.6200
 2.4860	10.5740
 2.4870	10.5640
 2.4880	10.5760
 2.4890	10.5860
 2.4900	10.5810
 2.4910	10.5470
 2.4920	10.5240
 2.4930	10.5180
 2.4940	10.5160
 2.4950	10.5110
 2.4960	10.4950
 2.4970	10.5040
 2.4980	10.5130
 2.4990	10.4860
 2.5000	10.4850
