Name: Betula lenta
Type: Vegetation
Class: Tree
Genus: Betula
Species: lenta
Sample No.: BELE-1-57
Owner: UCSB
Wavelength Range: TIR
Origin: USA; Massachusetts; Harvard Forest
Collection Date: 7/8/2013
Description: Samples were collected as part of NSF Macrosystem Biology proposal titled: Collaborative Research: Thermal controls on ecosystem metabolism and function: scaling from leaves to canopies to regions. Samples were collected and overnighted to JPL facilities for processing. The same leaves were processed in the Nicolet and then measured using the ASD.
Measurement: Hemispherical reflectance
First Column: X
Second Column: Y
X Units: Wavelength (micrometers)
Y Units: Reflectance (percentage)
First X Value: 2.501
Last X Value: 15.387
Number of X Values: 1737
Additional Information: vegetation.tree.betula.lenta.tir.bele-1-57.ucsb.nicolet.ancillary.txt

 2.5010	15.0190
 2.5030	15.1440
 2.5040	15.0560
 2.5050	14.9160
 2.5060	14.8220
 2.5070	14.7610
 2.5090	14.8930
 2.5100	14.7450
 2.5110	14.6640
 2.5120	14.3750
 2.5140	14.2760
 2.5150	14.2260
 2.5160	14.4610
 2.5170	14.4920
 2.5180	14.3330
 2.5200	14.3450
 2.5210	14.4910
 2.5220	14.3610
 2.5230	14.2840
 2.5250	14.2370
 2.5260	14.3510
 2.5270	14.4470
 2.5280	14.4340
 2.5290	14.3940
 2.5310	14.4630
 2.5320	14.3380
 2.5330	14.3620
 2.5340	14.2920
 2.5360	14.3400
 2.5370	14.2980
 2.5380	14.3450
 2.5390	14.2590
 2.5410	14.2210
 2.5420	14.1900
 2.5430	14.0810
 2.5440	14.0220
 2.5460	14.3660
 2.5470	14.6580
 2.5480	14.6620
 2.5490	14.4680
 2.5510	14.3350
 2.5520	14.2080
 2.5530	14.3040
 2.5540	14.3890
 2.5560	14.4000
 2.5570	14.4230
 2.5580	14.3550
 2.5590	14.2890
 2.5610	14.3690
 2.5620	14.3880
 2.5630	14.5010
 2.5640	14.3050
 2.5660	14.2070
 2.5670	14.1190
 2.5680	14.3040
 2.5700	14.4760
 2.5710	14.5610
 2.5720	14.4600
 2.5730	14.4290
 2.5750	14.4730
 2.5760	14.4730
 2.5770	14.3790
 2.5790	14.2980
 2.5800	14.1780
 2.5810	14.3480
 2.5820	14.3820
 2.5840	14.2470
 2.5850	13.9730
 2.5860	13.8000
 2.5880	13.7480
 2.5890	13.9700
 2.5900	13.9020
 2.5910	13.8650
 2.5930	13.9290
 2.5940	13.8760
 2.5950	13.6680
 2.5970	13.5670
 2.5980	13.6030
 2.5990	13.7070
 2.6000	13.6160
 2.6020	13.5650
 2.6030	13.4270
 2.6040	13.2960
 2.6060	13.2800
 2.6070	13.2710
 2.6080	13.0660
 2.6100	13.0160
 2.6110	12.8470
 2.6120	12.9000
 2.6140	12.9170
 2.6150	12.9770
 2.6160	12.6130
 2.6180	12.3010
 2.6190	12.1460
 2.6200	11.9440
 2.6220	12.0170
 2.6230	12.0800
 2.6240	11.8790
 2.6260	12.0120
 2.6270	11.9040
 2.6280	11.7520
 2.6300	11.6450
 2.6310	11.5670
 2.6320	11.4200
 2.6340	11.3220
 2.6350	11.2170
 2.6360	11.1060
 2.6380	10.9540
 2.6390	10.9930
 2.6400	10.8700
 2.6420	10.5910
 2.6430	10.4030
 2.6440	10.2610
 2.6460	10.0920
 2.6470	10.0860
 2.6480	10.1740
 2.6500	10.0410
 2.6510	 9.8130
 2.6520	 9.8090
 2.6540	 9.9090
 2.6550	 9.8610
 2.6560	 9.4890
 2.6580	 9.2200
 2.6590	 9.0650
 2.6610	 8.9970
 2.6620	 8.7530
 2.6630	 8.7340
 2.6650	 8.6360
 2.6660	 8.4510
 2.6670	 8.5240
 2.6690	 8.7410
 2.6700	 8.5360
 2.6720	 8.1800
 2.6730	 8.0060
 2.6740	 8.1020
 2.6760	 8.1080
 2.6770	 8.0400
 2.6780	 7.9000
 2.6800	 7.8510
 2.6810	 7.7490
 2.6830	 7.6170
 2.6840	 7.4230
 2.6850	 7.5580
 2.6870	 7.6600
 2.6880	 7.5550
 2.6900	 7.1450
 2.6910	 7.0360
 2.6920	 7.0750
 2.6940	 7.1430
 2.6950	 7.1510
 2.6970	 7.1810
 2.6980	 6.9210
 2.6990	 6.9620
 2.7010	 6.9780
 2.7020	 6.9740
 2.7040	 6.9980
 2.7050	 7.0220
 2.7060	 6.8090
 2.7080	 6.8220
 2.7090	 7.1090
 2.7110	 7.1060
 2.7120	 6.8380
 2.7130	 6.7240
 2.7150	 6.6550
 2.7160	 6.9150
 2.7180	 6.8790
 2.7190	 6.8140
 2.7210	 6.7540
 2.7220	 6.8040
 2.7230	 6.8420
 2.7250	 7.0070
 2.7260	 6.8120
 2.7280	 6.9140
 2.7290	 6.9310
 2.7310	 6.9620
 2.7320	 7.0390
 2.7330	 7.0060
 2.7350	 7.0410
 2.7360	 7.2940
 2.7380	 7.4390
 2.7390	 7.5540
 2.7410	 7.2970
 2.7420	 7.1180
 2.7440	 7.0310
 2.7450	 6.8350
 2.7470	 6.4000
 2.7480	 6.7630
 2.7490	 6.8210
 2.7510	 6.8790
 2.7520	 6.7620
 2.7540	 6.7910
 2.7550	 6.3460
 2.7570	 6.8330
 2.7580	 7.7780
 2.7600	 7.7600
 2.7610	 7.6780
 2.7630	 7.5130
 2.7640	 7.5640
 2.7660	 7.6700
 2.7670	 7.7530
 2.7680	 7.5520
 2.7700	 7.1890
 2.7710	 7.1400
 2.7730	 7.2890
 2.7740	 7.8490
 2.7760	 7.8980
 2.7770	 7.6960
 2.7790	 7.6710
 2.7800	 7.6870
 2.7820	 7.6380
 2.7830	 7.5980
 2.7850	 7.6930
 2.7860	 7.8200
 2.7880	 7.4370
 2.7890	 7.4530
 2.7910	 7.6070
 2.7920	 7.5750
 2.7940	 7.5960
 2.7950	 7.6240
 2.7970	 7.8430
 2.7980	 8.0920
 2.8000	 7.8230
 2.8010	 8.0030
 2.8030	 8.0560
 2.8040	 8.0170
 2.8060	 7.8390
 2.8070	 7.9080
 2.8090	 7.8470
 2.8110	 7.7370
 2.8120	 7.7470
 2.8140	 7.9730
 2.8150	 7.9200
 2.8170	 7.6730
 2.8180	 7.6560
 2.8200	 8.0300
 2.8210	 8.0950
 2.8230	 7.8890
 2.8240	 7.7950
 2.8260	 7.7520
 2.8270	 7.6120
 2.8290	 7.7590
 2.8300	 8.1720
 2.8320	 8.5400
 2.8340	 8.3450
 2.8350	 8.2500
 2.8370	 8.2730
 2.8380	 8.3300
 2.8400	 8.1950
 2.8410	 8.1470
 2.8430	 8.0870
 2.8440	 8.1010
 2.8460	 8.1240
 2.8480	 8.2130
 2.8490	 8.2920
 2.8510	 8.1360
 2.8520	 7.9500
 2.8540	 8.0520
 2.8550	 7.9710
 2.8570	 8.0860
 2.8590	 8.1380
 2.8600	 7.9490
 2.8620	 7.7760
 2.8630	 8.0100
 2.8650	 8.4710
 2.8660	 8.7640
 2.8680	 8.7750
 2.8700	 8.5520
 2.8710	 8.1600
 2.8730	 8.1450
 2.8740	 8.2200
 2.8760	 8.1610
 2.8780	 7.7650
 2.8790	 8.1480
 2.8810	 8.4820
 2.8820	 8.6360
 2.8840	 8.2800
 2.8860	 7.9710
 2.8870	 8.1160
 2.8890	 8.2230
 2.8900	 8.4620
 2.8920	 8.6040
 2.8940	 8.1860
 2.8950	 8.0170
 2.8970	 7.9860
 2.8980	 8.2520
 2.9000	 8.4090
 2.9020	 8.4390
 2.9030	 8.5680
 2.9050	 8.5200
 2.9070	 8.3560
 2.9080	 8.1020
 2.9100	 8.2690
 2.9120	 8.6030
 2.9130	 8.4640
 2.9150	 8.6530
 2.9160	 8.4520
 2.9180	 8.3010
 2.9200	 8.3330
 2.9210	 8.4840
 2.9230	 8.1390
 2.9250	 8.0240
 2.9260	 8.4220
 2.9280	 8.5100
 2.9300	 8.1470
 2.9310	 8.0140
 2.9330	 7.9770
 2.9350	 8.4190
 2.9360	 8.4670
 2.9380	 8.2020
 2.9400	 8.0560
 2.9410	 8.1180
 2.9430	 8.0650
 2.9450	 8.0040
 2.9460	 8.1110
 2.9480	 8.4890
 2.9500	 8.0610
 2.9510	 7.4860
 2.9530	 7.3270
 2.9550	 7.8220
 2.9560	 7.7800
 2.9580	 7.6730
 2.9600	 7.7270
 2.9610	 7.9840
 2.9630	 8.0760
 2.9650	 6.5580
 2.9660	 6.0640
 2.9680	 7.7330
 2.9700	 7.2710
 2.9720	 8.2090
 2.9730	10.6550
 2.9750	11.1850
 2.9770	 9.6060
 2.9780	 8.0310
 2.9800	 6.9300
 2.9820	 7.9530
 2.9840	 8.7210
 2.9850	 8.1980
 2.9870	 8.0570
 2.9890	 8.3420
 2.9900	 6.5930
 2.9920	 5.7830
 2.9940	 7.1560
 2.9960	 5.8200
 2.9970	 6.0290
 2.9990	 8.4360
 3.0010	 7.6620
 3.0030	 6.4200
 3.0040	 6.4060
 3.0060	 7.3300
 3.0080	 7.3940
 3.0100	 8.1710
 3.0110	 7.1620
 3.0130	 6.1560
 3.0150	 6.6210
 3.0170	 7.4490
 3.0180	 7.5820
 3.0200	 7.4360
 3.0220	 7.8980
 3.0240	 8.2770
 3.0250	 7.6450
 3.0270	 7.5410
 3.0290	 7.3910
 3.0310	 6.9660
 3.0320	 6.6790
 3.0340	 7.4020
 3.0360	 6.9070
 3.0380	 5.3920
 3.0400	 5.5460
 3.0410	 6.5740
 3.0430	 4.9960
 3.0450	 3.1810
 3.0470	 5.7860
 3.0480	 9.2210
 3.0500	 7.6660
 3.0520	 8.3480
 3.0540	 8.6740
 3.0560	 7.4100
 3.0570	 7.6600
 3.0590	 6.7220
 3.0610	 5.8990
 3.0630	 5.0270
 3.0650	 5.8980
 3.0660	 6.7860
 3.0680	 7.0870
 3.0700	 7.8610
 3.0720	 8.2110
 3.0740	 7.1330
 3.0760	 6.8840
 3.0770	 6.8660
 3.0790	 6.6940
 3.0810	 6.5920
 3.0830	 6.7860
 3.0850	 6.9120
 3.0870	 7.1220
 3.0880	 6.9750
 3.0900	 6.7660
 3.0920	 6.6790
 3.0940	 6.8030
 3.0960	 6.8350
 3.0980	 6.4580
 3.0990	 6.2510
 3.1010	 6.4910
 3.1030	 6.4650
 3.1050	 6.1370
 3.1070	 5.9150
 3.1090	 5.7550
 3.1110	 6.1650
 3.1120	 6.3290
 3.1140	 6.3770
 3.1160	 6.6420
 3.1180	 6.5520
 3.1200	 6.9880
 3.1220	 7.1110
 3.1240	 6.8910
 3.1260	 6.4210
 3.1270	 6.1700
 3.1290	 6.5200
 3.1310	 6.7420
 3.1330	 6.7170
 3.1350	 7.0490
 3.1370	 6.7100
 3.1390	 6.4640
 3.1410	 6.4980
 3.1430	 6.1720
 3.1450	 5.1690
 3.1460	 4.7820
 3.1480	 5.7770
 3.1500	 5.7190
 3.1520	 5.9250
 3.1540	 6.2510
 3.1560	 5.4640
 3.1580	 5.6560
 3.1600	 5.6310
 3.1620	 5.6680
 3.1640	 7.0820
 3.1660	 8.9510
 3.1680	 7.5620
 3.1700	 6.3800
 3.1710	 5.6540
 3.1730	 5.7200
 3.1750	 5.7680
 3.1770	 3.2610
 3.1790	 1.6310
 3.1810	 4.3590
 3.1830	 6.6790
 3.1850	 7.0950
 3.1870	 7.4430
 3.1890	 6.5510
 3.1910	 5.7340
 3.1930	 5.8370
 3.1950	 5.9520
 3.1970	 5.4440
 3.1990	 5.4540
 3.2010	 5.7900
 3.2030	 5.8340
 3.2050	 5.7460
 3.2070	 5.9240
 3.2090	 5.8440
 3.2110	 5.7800
 3.2130	 5.7220
 3.2150	 5.8190
 3.2170	 5.7210
 3.2190	 5.4910
 3.2210	 5.5790
 3.2230	 5.4830
 3.2250	 5.2350
 3.2270	 5.6610
 3.2290	 5.8080
 3.2310	 6.0790
 3.2330	 6.4940
 3.2350	 6.4170
 3.2370	 6.2350
 3.2390	 6.1360
 3.2410	 5.8700
 3.2430	 5.9290
 3.2450	 5.8490
 3.2470	 5.6890
 3.2490	 5.8060
 3.2510	 6.0990
 3.2530	 5.7730
 3.2550	 5.5560
 3.2570	 5.5910
 3.2590	 5.6260
 3.2610	 5.4440
 3.2630	 5.5850
 3.2650	 5.8110
 3.2670	 5.8720
 3.2690	 5.5810
 3.2720	 5.5620
 3.2740	 5.4440
 3.2760	 5.2280
 3.2780	 5.3040
 3.2800	 5.6940
 3.2820	 5.7450
 3.2840	 5.4840
 3.2860	 5.1730
 3.2880	 5.2020
 3.2900	 5.3950
 3.2920	 5.6000
 3.2940	 5.5760
 3.2960	 5.5510
 3.2990	 5.3340
 3.3010	 5.0930
 3.3030	 5.1700
 3.3050	 5.3140
 3.3070	 5.1620
 3.3090	 5.3390
 3.3110	 5.6510
 3.3130	 5.6850
 3.3150	 5.2230
 3.3180	 5.1320
 3.3200	 4.9530
 3.3220	 4.8370
 3.3240	 5.0750
 3.3260	 5.2870
 3.3280	 5.3360
 3.3300	 5.4800
 3.3330	 5.2420
 3.3350	 5.1500
 3.3370	 5.2140
 3.3390	 5.3370
 3.3410	 5.2840
 3.3430	 5.2410
 3.3450	 5.1190
 3.3480	 4.8860
 3.3500	 4.7950
 3.3520	 4.8480
 3.3540	 5.0530
 3.3560	 5.2700
 3.3580	 5.1910
 3.3610	 4.9830
 3.3630	 4.8550
 3.3650	 4.8150
 3.3670	 4.7360
 3.3690	 4.5760
 3.3720	 4.4860
 3.3740	 4.4800
 3.3760	 4.4040
 3.3780	 4.6920
 3.3800	 4.8470
 3.3830	 4.7790
 3.3850	 4.6360
 3.3870	 4.8080
 3.3890	 4.8770
 3.3910	 4.7270
 3.3940	 4.4660
 3.3960	 4.4640
 3.3980	 4.6470
 3.4000	 4.6070
 3.4020	 4.4510
 3.4050	 4.4810
 3.4070	 4.5930
 3.4090	 4.7360
 3.4110	 4.8930
 3.4140	 5.1370
 3.4160	 5.3670
 3.4180	 5.8640
 3.4200	 6.7330
 3.4230	 7.8220
 3.4250	 8.9160
 3.4270	 9.9050
 3.4290	10.3830
 3.4320	10.2250
 3.4340	 9.5110
 3.4360	 8.9630
 3.4390	 8.5180
 3.4410	 8.1240
 3.4430	 7.7770
 3.4450	 7.6790
 3.4480	 7.7290
 3.4500	 7.8590
 3.4520	 7.7210
 3.4550	 7.6680
 3.4570	 7.6910
 3.4590	 7.5380
 3.4620	 7.3980
 3.4640	 7.4400
 3.4660	 7.1840
 3.4680	 7.0230
 3.4710	 7.1140
 3.4730	 7.0010
 3.4750	 6.6620
 3.4780	 6.5930
 3.4800	 6.5440
 3.4820	 6.4350
 3.4850	 6.2920
 3.4870	 6.2770
 3.4890	 6.1970
 3.4920	 6.0640
 3.4940	 5.9810
 3.4970	 6.0310
 3.4990	 5.8980
 3.5010	 5.7780
 3.5040	 6.1130
 3.5060	 7.0460
 3.5080	 8.4460
 3.5110	 9.9190
 3.5130	10.2250
 3.5160	 9.7230
 3.5180	 9.1050
 3.5200	 8.7250
 3.5230	 8.4710
 3.5250	 8.2970
 3.5270	 8.1500
 3.5300	 8.1100
 3.5320	 8.1090
 3.5350	 8.0620
 3.5370	 7.8230
 3.5400	 7.7400
 3.5420	 7.7700
 3.5440	 7.7370
 3.5470	 7.6960
 3.5490	 7.5740
 3.5520	 7.4120
 3.5540	 7.4390
 3.5570	 7.5940
 3.5590	 7.6010
 3.5610	 7.4390
 3.5640	 7.4370
 3.5660	 7.4640
 3.5690	 7.5120
 3.5710	 7.4630
 3.5740	 7.4750
 3.5760	 7.5150
 3.5790	 7.4610
 3.5810	 7.5030
 3.5840	 7.7460
 3.5860	 7.5460
 3.5890	 7.1770
 3.5910	 7.4220
 3.5930	 7.9360
 3.5960	 8.0620
 3.5980	 8.0370
 3.6010	 7.5870
 3.6030	 7.6880
 3.6060	 7.9710
 3.6080	 7.6800
 3.6110	 7.4320
 3.6140	 7.6680
 3.6160	 7.7540
 3.6190	 7.6760
 3.6210	 7.8120
 3.6240	 8.0020
 3.6260	 8.1010
 3.6290	 8.0420
 3.6310	 7.8510
 3.6340	 7.7910
 3.6360	 7.7350
 3.6390	 7.7910
 3.6410	 7.8530
 3.6440	 7.7860
 3.6470	 7.8210
 3.6490	 7.8830
 3.6520	 7.8230
 3.6540	 7.8700
 3.6570	 7.9830
 3.6590	 8.0750
 3.6620	 8.1420
 3.6650	 8.1710
 3.6670	 8.2730
 3.6700	 8.2470
 3.6720	 8.1390
 3.6750	 8.2820
 3.6780	 8.2700
 3.6800	 8.2330
 3.6830	 8.2320
 3.6850	 8.2060
 3.6880	 8.1290
 3.6910	 8.2600
 3.6930	 8.4810
 3.6960	 8.5750
 3.6990	 8.5290
 3.7010	 8.4720
 3.7040	 8.4750
 3.7060	 8.6500
 3.7090	 8.6530
 3.7120	 8.6690
 3.7140	 8.6980
 3.7170	 8.7240
 3.7200	 8.7100
 3.7220	 8.6950
 3.7250	 8.8120
 3.7280	 8.8150
 3.7300	 8.5860
 3.7330	 8.5980
 3.7360	 8.8060
 3.7390	 9.0530
 3.7410	 9.0080
 3.7440	 9.0530
 3.7470	 9.2920
 3.7490	 9.3010
 3.7520	 9.0650
 3.7550	 9.0610
 3.7580	 9.1000
 3.7600	 9.0210
 3.7630	 9.0170
 3.7660	 9.2580
 3.7680	 9.2990
 3.7710	 9.3970
 3.7740	 9.3250
 3.7770	 9.3740
 3.7790	 9.6120
 3.7820	 9.5580
 3.7850	 9.5290
 3.7880	 9.5910
 3.7900	 9.6200
 3.7930	 9.7060
 3.7960	 9.7600
 3.7990	 9.7630
 3.8020	 9.7050
 3.8040	 9.7470
 3.8070	 9.7130
 3.8100	 9.7010
 3.8130	 9.8800
 3.8160	 9.9710
 3.8180	 9.9690
 3.8210	10.0220
 3.8240	 9.7830
 3.8270	 9.7150
 3.8300	 9.8250
 3.8330	10.0400
 3.8350	10.2480
 3.8380	10.1530
 3.8410	10.0660
 3.8440	10.1080
 3.8470	 9.9520
 3.8500	 9.8370
 3.8520	 9.9840
 3.8550	10.0940
 3.8580	10.1190
 3.8610	10.1290
 3.8640	10.1760
 3.8670	10.2890
 3.8700	10.2110
 3.8730	10.2050
 3.8750	10.0460
 3.8780	10.0100
 3.8810	10.0690
 3.8840	10.1470
 3.8870	10.2470
 3.8900	10.3140
 3.8930	10.2350
 3.8960	10.2380
 3.8990	10.2330
 3.9020	10.2360
 3.9050	10.2090
 3.9080	10.1550
 3.9110	10.1660
 3.9140	10.1300
 3.9160	10.0400
 3.9190	10.2130
 3.9220	10.2650
 3.9250	10.1830
 3.9280	10.1060
 3.9310	10.0690
 3.9340	10.1530
 3.9370	10.2340
 3.9400	10.1500
 3.9430	10.0400
 3.9460	 9.9880
 3.9490	10.0350
 3.9520	10.0370
 3.9550	10.1030
 3.9580	10.0210
 3.9610	 9.9080
 3.9640	 9.8510
 3.9670	 9.9280
 3.9700	 9.8930
 3.9730	 9.8370
 3.9770	 9.8770
 3.9800	 9.8990
 3.9830	 9.8560
 3.9860	 9.9090
 3.9890	 9.9340
 3.9920	 9.8460
 3.9950	 9.7950
 3.9980	 9.8310
 4.0010	 9.8270
 4.0040	 9.7400
 4.0070	 9.7420
 4.0100	 9.8320
 4.0130	 9.8650
 4.0170	 9.8710
 4.0200	 9.8010
 4.0230	 9.6590
 4.0260	 9.5820
 4.0290	 9.7040
 4.0320	 9.7640
 4.0350	 9.7690
 4.0380	 9.7150
 4.0420	 9.5900
 4.0450	 9.5940
 4.0480	 9.7020
 4.0510	 9.6380
 4.0540	 9.5010
 4.0570	 9.4280
 4.0610	 9.5000
 4.0640	 9.5320
 4.0670	 9.5010
 4.0700	 9.5020
 4.0730	 9.3980
 4.0770	 9.2940
 4.0800	 9.4330
 4.0830	 9.5280
 4.0860	 9.5010
 4.0890	 9.3300
 4.0930	 9.3630
 4.0960	 9.4450
 4.0990	 9.4180
 4.1020	 9.3180
 4.1060	 9.3210
 4.1090	 9.2990
 4.1120	 9.4080
 4.1150	 9.5930
 4.1190	 9.4270
 4.1220	 9.1720
 4.1250	 9.0280
 4.1280	 9.0290
 4.1320	 9.0520
 4.1350	 9.0730
 4.1380	 9.0640
 4.1420	 9.0500
 4.1450	 8.9500
 4.1480	 8.7930
 4.1520	 8.8180
 4.1550	 8.9510
 4.1580	 8.9640
 4.1620	 8.9370
 4.1650	 8.8570
 4.1680	 8.7360
 4.1720	 8.6280
 4.1750	 8.6440
 4.1780	 8.7530
 4.1820	 8.6950
 4.1850	 8.6570
 4.1890	 8.7120
 4.1920	 8.7750
 4.1950	 8.8000
 4.1990	 8.8400
 4.2020	 9.0140
 4.2060	 9.1610
 4.2090	 9.2710
 4.2120	 9.3440
 4.2160	 9.3960
 4.2190	 9.3300
 4.2230	 8.9080
 4.2260	 8.9610
 4.2300	 9.5030
 4.2330	10.0580
 4.2360	10.2680
 4.2400	10.2760
 4.2430	10.1810
 4.2470	 9.8600
 4.2500	 9.4950
 4.2540	 9.4100
 4.2570	 9.1750
 4.2610	 9.1670
 4.2640	 9.4110
 4.2680	 9.4000
 4.2710	 9.2390
 4.2750	 9.1450
 4.2780	 9.2280
 4.2820	 9.0010
 4.2850	 8.8780
 4.2890	 8.9730
 4.2930	 8.9190
 4.2960	 8.7630
 4.3000	 8.6080
 4.3030	 8.6580
 4.3070	 8.7990
 4.3100	 8.7240
 4.3140	 8.5360
 4.3180	 8.4480
 4.3210	 8.3220
 4.3250	 8.1980
 4.3280	 8.2920
 4.3320	 8.3390
 4.3360	 8.2440
 4.3390	 8.0880
 4.3430	 7.9240
 4.3470	 7.7250
 4.3500	 7.6640
 4.3540	 7.7090
 4.3570	 7.7710
 4.3610	 7.7170
 4.3650	 7.6930
 4.3680	 7.7140
 4.3720	 7.7010
 4.3760	 7.6690
 4.3800	 7.6240
 4.3830	 7.5660
 4.3870	 7.5640
 4.3910	 7.6090
 4.3940	 7.6380
 4.3980	 7.6870
 4.4020	 7.6420
 4.4060	 7.5840
 4.4090	 7.4960
 4.4130	 7.4500
 4.4170	 7.4470
 4.4210	 7.3850
 4.4240	 7.3820
 4.4280	 7.3610
 4.4320	 7.3750
 4.4360	 7.3560
 4.4400	 7.2640
 4.4430	 7.2840
 4.4470	 7.3360
 4.4510	 7.3770
 4.4550	 7.4280
 4.4590	 7.3120
 4.4620	 7.2250
 4.4660	 7.2730
 4.4700	 7.3310
 4.4740	 7.4190
 4.4780	 7.3780
 4.4820	 7.2290
 4.4860	 7.2290
 4.4900	 7.2460
 4.4930	 7.2000
 4.4970	 7.2830
 4.5010	 7.4080
 4.5050	 7.3810
 4.5090	 7.3070
 4.5130	 7.2110
 4.5170	 7.1290
 4.5210	 7.1000
 4.5250	 7.1390
 4.5290	 7.2160
 4.5330	 7.1740
 4.5370	 7.0770
 4.5410	 7.0640
 4.5450	 7.0260
 4.5490	 7.0520
 4.5530	 7.1450
 4.5570	 7.0860
 4.5610	 7.0620
 4.5650	 7.1090
 4.5690	 7.0370
 4.5730	 7.0730
 4.5770	 7.1690
 4.5810	 7.1470
 4.5850	 7.0580
 4.5890	 7.0020
 4.5930	 7.1380
 4.5970	 7.1620
 4.6010	 6.9800
 4.6050	 6.7020
 4.6090	 6.6240
 4.6130	 6.8720
 4.6170	 6.9400
 4.6220	 7.0250
 4.6260	 6.8920
 4.6300	 6.7780
 4.6340	 6.8190
 4.6380	 6.9210
 4.6420	 7.0240
 4.6460	 7.1000
 4.6510	 7.0130
 4.6550	 7.0190
 4.6590	 6.9460
 4.6630	 6.8100
 4.6670	 6.8470
 4.6720	 6.9990
 4.6760	 6.9980
 4.6800	 7.0080
 4.6840	 6.9910
 4.6880	 6.9870
 4.6930	 6.9960
 4.6970	 7.0350
 4.7010	 6.9570
 4.7050	 6.9150
 4.7100	 7.0350
 4.7140	 6.9830
 4.7180	 6.8880
 4.7230	 6.9240
 4.7270	 6.9310
 4.7310	 6.9460
 4.7360	 6.9740
 4.7400	 7.0300
 4.7440	 6.9990
 4.7490	 6.9750
 4.7530	 7.0220
 4.7570	 7.0030
 4.7620	 6.9720
 4.7660	 6.9650
 4.7700	 7.0700
 4.7750	 7.1350
 4.7790	 6.8730
 4.7840	 6.9960
 4.7880	 6.8910
 4.7920	 6.6640
 4.7970	 6.7220
 4.8010	 7.1610
 4.8060	 7.2240
 4.8100	 6.9030
 4.8150	 6.9130
 4.8190	 6.9390
 4.8240	 6.9180
 4.8280	 7.0050
 4.8330	 6.9510
 4.8370	 6.9190
 4.8420	 7.0510
 4.8460	 7.0670
 4.8510	 7.0040
 4.8550	 6.9700
 4.8600	 7.0180
 4.8640	 7.0260
 4.8690	 6.9720
 4.8730	 7.0600
 4.8780	 7.0620
 4.8830	 7.0060
 4.8870	 6.9970
 4.8920	 7.0960
 4.8960	 7.2410
 4.9010	 7.1550
 4.9060	 7.0550
 4.9100	 7.1210
 4.9150	 7.1040
 4.9200	 7.0980
 4.9240	 7.0950
 4.9290	 7.1800
 4.9340	 7.1820
 4.9380	 7.2560
 4.9430	 7.3860
 4.9480	 7.3620
 4.9530	 7.3070
 4.9570	 7.3450
 4.9620	 7.3530
 4.9670	 7.4500
 4.9720	 7.4000
 4.9760	 7.2680
 4.9810	 7.2520
 4.9860	 7.3460
 4.9910	 7.3510
 4.9960	 7.3810
 5.0000	 7.3360
 5.0050	 7.3250
 5.0100	 7.4780
 5.0150	 7.5650
 5.0200	 7.5310
 5.0250	 7.5930
 5.0290	 7.5480
 5.0340	 7.5480
 5.0390	 7.5280
 5.0440	 7.5230
 5.0490	 7.6110
 5.0540	 7.7270
 5.0590	 7.7200
 5.0640	 7.6440
 5.0690	 7.5950
 5.0740	 7.6770
 5.0790	 7.7020
 5.0840	 7.8230
 5.0890	 7.7630
 5.0940	 7.6490
 5.0990	 7.6660
 5.1040	 7.8030
 5.1090	 7.7900
 5.1140	 7.7980
 5.1190	 7.8490
 5.1240	 7.9670
 5.1290	 7.9060
 5.1340	 7.9080
 5.1390	 7.9650
 5.1440	 7.9960
 5.1490	 7.9230
 5.1540	 7.8870
 5.1600	 7.9520
 5.1650	 7.9680
 5.1700	 8.0020
 5.1750	 8.0830
 5.1800	 8.0670
 5.1850	 8.0630
 5.1910	 8.0230
 5.1960	 8.0790
 5.2010	 8.1780
 5.2060	 8.1770
 5.2110	 8.2110
 5.2170	 8.3120
 5.2220	 8.2060
 5.2270	 8.1580
 5.2320	 8.2090
 5.2380	 8.2010
 5.2430	 8.1680
 5.2480	 8.1970
 5.2540	 8.2050
 5.2590	 8.1990
 5.2640	 8.2030
 5.2700	 8.2470
 5.2750	 8.2270
 5.2800	 8.2310
 5.2860	 8.2660
 5.2910	 8.2610
 5.2970	 8.2550
 5.3020	 8.2720
 5.3070	 8.2690
 5.3130	 8.3500
 5.3180	 8.2750
 5.3240	 8.2530
 5.3290	 8.2200
 5.3350	 8.1790
 5.3400	 8.2730
 5.3460	 8.3830
 5.3510	 8.2980
 5.3570	 8.2990
 5.3620	 8.2670
 5.3680	 8.2020
 5.3730	 8.1280
 5.3790	 8.1660
 5.3850	 8.1870
 5.3900	 8.2220
 5.3960	 8.2070
 5.4010	 8.1450
 5.4070	 8.1360
 5.4130	 8.1830
 5.4180	 8.0710
 5.4240	 8.0220
 5.4300	 7.9730
 5.4350	 7.9310
 5.4410	 7.8690
 5.4470	 7.8890
 5.4530	 7.8910
 5.4580	 7.8210
 5.4640	 7.8230
 5.4700	 7.8540
 5.4760	 7.7870
 5.4810	 7.8200
 5.4870	 7.8200
 5.4930	 7.8020
 5.4990	 7.6640
 5.5050	 7.6050
 5.5110	 7.6420
 5.5160	 7.7190
 5.5220	 7.7580
 5.5280	 7.6160
 5.5340	 7.3370
 5.5400	 7.3610
 5.5460	 7.4910
 5.5520	 7.6120
 5.5580	 7.4960
 5.5640	 7.4890
 5.5700	 7.4590
 5.5760	 7.3570
 5.5820	 7.2090
 5.5880	 7.1880
 5.5940	 7.1940
 5.6000	 7.1660
 5.6060	 7.0960
 5.6120	 7.1000
 5.6180	 7.0580
 5.6240	 6.9770
 5.6300	 6.9140
 5.6360	 6.9000
 5.6420	 6.8880
 5.6490	 6.9250
 5.6550	 6.9340
 5.6610	 6.8650
 5.6670	 6.7450
 5.6730	 6.7130
 5.6800	 6.5840
 5.6860	 6.5100
 5.6920	 6.3810
 5.6980	 6.3240
 5.7040	 6.3920
 5.7110	 6.4580
 5.7170	 6.2880
 5.7230	 6.1370
 5.7300	 5.8730
 5.7360	 5.8870
 5.7420	 6.0040
 5.7490	 6.1610
 5.7550	 6.2990
 5.7620	 6.5820
 5.7680	 6.9030
 5.7740	 7.0590
 5.7810	 7.0040
 5.7870	 7.0610
 5.7940	 7.0960
 5.8000	 7.1670
 5.8070	 7.1860
 5.8130	 7.2280
 5.8200	 7.2370
 5.8260	 7.2030
 5.8330	 7.1260
 5.8390	 7.0400
 5.8460	 6.9970
 5.8530	 7.1080
 5.8590	 7.0640
 5.8660	 7.0500
 5.8720	 7.1610
 5.8790	 7.3040
 5.8860	 7.1780
 5.8920	 7.1030
 5.8990	 6.9280
 5.9060	 6.9220
 5.9130	 6.9800
 5.9190	 7.1110
 5.9260	 7.1210
 5.9330	 7.1510
 5.9400	 7.0490
 5.9470	 6.9800
 5.9530	 6.9120
 5.9600	 6.9900
 5.9670	 6.8880
 5.9740	 6.7560
 5.9810	 6.7340
 5.9880	 6.6740
 5.9950	 6.5630
 6.0020	 6.5560
 6.0090	 6.4050
 6.0160	 6.2770
 6.0230	 6.2870
 6.0300	 6.2910
 6.0370	 6.2670
 6.0440	 6.3560
 6.0510	 6.1800
 6.0580	 6.1850
 6.0650	 6.2010
 6.0720	 6.1530
 6.0790	 5.9950
 6.0860	 5.9860
 6.0930	 5.9350
 6.1000	 5.8250
 6.1080	 5.8880
 6.1150	 6.0730
 6.1220	 6.0170
 6.1290	 5.9620
 6.1370	 5.9310
 6.1440	 5.9380
 6.1510	 5.8900
 6.1580	 6.0090
 6.1660	 5.9560
 6.1730	 6.0330
 6.1800	 6.1030
 6.1880	 6.1970
 6.1950	 6.1120
 6.2030	 6.0710
 6.2100	 6.0370
 6.2170	 6.0810
 6.2250	 6.0350
 6.2320	 6.1370
 6.2400	 6.1250
 6.2470	 6.1500
 6.2550	 6.0960
 6.2630	 6.1770
 6.2700	 6.1100
 6.2780	 6.1820
 6.2850	 6.1920
 6.2930	 6.2560
 6.3010	 6.2880
 6.3080	 6.3970
 6.3160	 6.3030
 6.3240	 6.2220
 6.3310	 6.2540
 6.3390	 6.3990
 6.3470	 6.3710
 6.3550	 6.4420
 6.3620	 6.3000
 6.3700	 6.3810
 6.3780	 6.2800
 6.3860	 6.3120
 6.3940	 6.3380
 6.4020	 6.4280
 6.4100	 6.4360
 6.4180	 6.4550
 6.4260	 6.3810
 6.4330	 6.4280
 6.4410	 6.3450
 6.4490	 6.3060
 6.4580	 6.2340
 6.4660	 6.4060
 6.4740	 6.4150
 6.4820	 6.3520
 6.4900	 6.3060
 6.4980	 6.3470
 6.5060	 6.2660
 6.5140	 6.3190
 6.5230	 6.1910
 6.5310	 6.2620
 6.5390	 6.3170
 6.5470	 6.3340
 6.5550	 6.2810
 6.5640	 6.3820
 6.5720	 6.4030
 6.5800	 6.4080
 6.5890	 6.3060
 6.5970	 6.3450
 6.6060	 6.3190
 6.6140	 6.2570
 6.6220	 6.1760
 6.6310	 6.2980
 6.6390	 6.3540
 6.6480	 6.4020
 6.6560	 6.2580
 6.6650	 6.3780
 6.6740	 6.4110
 6.6820	 6.3300
 6.6910	 6.1910
 6.6990	 6.2790
 6.7080	 6.2330
 6.7170	 6.2130
 6.7260	 6.1050
 6.7340	 6.1650
 6.7430	 6.0920
 6.7520	 6.0720
 6.7610	 5.9650
 6.7690	 5.9210
 6.7780	 5.9550
 6.7870	 6.5230
 6.7960	 6.7520
 6.8050	 6.5180
 6.8140	 6.3770
 6.8230	 6.5450
 6.8320	 6.8100
 6.8410	 7.1450
 6.8500	 6.9200
 6.8590	 6.8270
 6.8680	 6.9090
 6.8770	 6.9740
 6.8860	 6.7960
 6.8950	 6.7860
 6.9050	 6.7060
 6.9140	 6.7170
 6.9230	 6.4940
 6.9320	 6.4050
 6.9420	 6.4360
 6.9510	 6.5230
 6.9600	 6.3500
 6.9700	 6.3480
 6.9790	 6.4160
 6.9880	 6.4800
 6.9980	 6.2820
 7.0070	 6.1030
 7.0170	 6.1550
 7.0260	 6.3850
 7.0360	 6.3130
 7.0450	 6.2790
 7.0550	 6.3550
 7.0650	 6.4430
 7.0740	 6.3320
 7.0840	 6.5080
 7.0940	 6.4900
 7.1030	 6.4400
 7.1130	 6.3730
 7.1230	 6.4390
 7.1330	 6.2460
 7.1420	 6.3250
 7.1520	 6.3520
 7.1620	 6.3710
 7.1720	 6.2860
 7.1820	 6.2400
 7.1920	 6.1100
 7.2020	 6.1720
 7.2120	 6.1380
 7.2220	 6.3520
 7.2320	 6.4400
 7.2420	 6.3960
 7.2520	 6.2620
 7.2620	 6.3820
 7.2730	 6.1980
 7.2830	 6.0960
 7.2930	 6.0760
 7.3030	 6.2750
 7.3140	 6.1660
 7.3240	 6.1890
 7.3340	 6.2410
 7.3450	 6.3160
 7.3550	 6.2470
 7.3660	 6.2070
 7.3760	 5.9760
 7.3870	 6.0830
 7.3970	 6.1270
 7.4080	 6.1940
 7.4180	 6.1130
 7.4290	 6.1990
 7.4400	 6.2150
 7.4500	 6.1830
 7.4610	 5.9930
 7.4720	 6.0660
 7.4830	 6.0540
 7.4930	 6.1530
 7.5040	 6.0530
 7.5150	 6.1560
 7.5260	 6.2130
 7.5370	 6.1570
 7.5480	 6.0900
 7.5590	 6.1030
 7.5700	 5.9250
 7.5810	 6.0580
 7.5920	 6.0790
 7.6030	 6.2020
 7.6140	 6.2360
 7.6260	 6.3340
 7.6370	 6.2530
 7.6480	 6.2310
 7.6590	 6.0300
 7.6710	 6.1980
 7.6820	 6.2590
 7.6930	 6.2300
 7.7050	 6.1790
 7.7160	 6.2550
 7.7280	 6.1190
 7.7390	 6.3090
 7.7510	 6.2850
 7.7630	 6.1480
 7.7740	 6.0020
 7.7860	 6.1250
 7.7980	 6.0190
 7.8090	 6.1720
 7.8210	 6.1640
 7.8330	 6.1040
 7.8450	 5.8580
 7.8570	 5.9560
 7.8690	 6.0390
 7.8810	 6.1230
 7.8930	 6.0390
 7.9050	 5.8960
 7.9170	 5.6480
 7.9290	 5.9280
 7.9410	 6.0290
 7.9530	 6.1140
 7.9650	 6.0190
 7.9780	 6.0630
 7.9900	 6.0680
 8.0020	 6.0780
 8.0150	 5.9340
 8.0270	 5.9470
 8.0390	 5.9270
 8.0520	 6.1980
 8.0640	 6.1450
 8.0770	 6.2590
 8.0900	 6.2650
 8.1020	 6.3900
 8.1150	 6.2010
 8.1280	 6.1530
 8.1400	 6.1530
 8.1530	 6.3600
 8.1660	 6.0810
 8.1790	 5.9880
 8.1920	 5.9400
 8.2050	 6.3700
 8.2180	 6.3860
 8.2310	 6.2860
 8.2440	 6.2480
 8.2570	 6.4810
 8.2700	 6.3600
 8.2830	 6.3760
 8.2970	 6.1190
 8.3100	 6.1030
 8.3230	 6.1510
 8.3370	 6.4110
 8.3500	 6.3600
 8.3640	 6.4460
 8.3770	 6.1990
 8.3910	 6.0880
 8.4040	 6.0050
 8.4180	 6.1680
 8.4320	 5.8970
 8.4450	 6.0130
 8.4590	 6.0990
 8.4730	 6.1600
 8.4870	 5.8640
 8.5010	 5.8740
 8.5150	 5.9410
 8.5290	 6.1520
 8.5430	 5.9660
 8.5570	 5.9700
 8.5710	 5.9770
 8.5850	 6.0270
 8.5990	 5.8350
 8.6140	 5.7030
 8.6280	 5.5640
 8.6420	 5.8880
 8.6570	 5.7340
 8.6710	 5.8360
 8.6860	 5.8570
 8.7000	 5.8350
 8.7150	 5.5840
 8.7300	 5.6590
 8.7440	 5.6500
 8.7590	 5.8310
 8.7740	 5.5870
 8.7890	 5.7770
 8.8040	 5.5890
 8.8190	 5.6970
 8.8340	 5.6320
 8.8490	 5.7090
 8.8640	 5.4140
 8.8790	 5.4880
 8.8940	 5.2970
 8.9100	 5.3190
 8.9250	 5.2200
 8.9400	 5.3860
 8.9560	 5.1720
 8.9710	 5.2520
 8.9870	 5.0830
 9.0020	 5.1950
 9.0180	 5.0730
 9.0340	 5.1560
 9.0500	 5.1250
 9.0650	 5.4640
 9.0810	 5.3850
 9.0970	 5.3880
 9.1130	 5.2430
 9.1290	 5.3750
 9.1450	 5.1750
 9.1610	 5.1780
 9.1780	 4.9950
 9.1940	 5.2590
 9.2100	 4.9430
 9.2270	 5.0070
 9.2430	 4.9950
 9.2600	 5.3370
 9.2760	 5.0160
 9.2930	 4.7780
 9.3090	 4.6050
 9.3260	 4.8170
 9.3430	 4.6270
 9.3600	 4.8270
 9.3770	 4.8500
 9.3940	 5.0140
 9.4110	 4.9650
 9.4280	 5.2040
 9.4450	 5.1510
 9.4620	 5.2430
 9.4800	 5.0330
 9.4970	 5.1440
 9.5140	 5.0610
 9.5320	 5.2900
 9.5500	 5.1520
 9.5670	 5.2920
 9.5850	 5.3080
 9.6030	 5.5140
 9.6200	 5.3240
 9.6380	 5.3710
 9.6560	 5.2100
 9.6740	 5.3700
 9.6920	 5.2790
 9.7100	 5.4870
 9.7290	 5.6710
 9.7470	 6.0560
 9.7650	 5.8020
 9.7840	 5.5710
 9.8020	 5.4920
 9.8210	 5.9380
 9.8390	 5.8690
 9.8580	 5.8730
 9.8770	 5.8550
 9.8960	 6.2960
 9.9150	 6.1470
 9.9340	 6.1790
 9.9530	 6.0350
 9.9720	 6.2420
 9.9910	 6.2660
10.0100	 6.3920
10.0300	 6.2110
10.0490	 6.4610
10.0690	 6.4600
10.0880	 6.6280
10.1080	 6.4120
10.1280	 6.5020
10.1480	 6.3670
10.1670	 6.4830
10.1870	 6.4360
10.2070	 6.7060
10.2280	 6.4570
10.2480	 6.3350
10.2680	 6.0400
10.2890	 6.2820
10.3090	 6.3150
10.3300	 6.3690
10.3500	 6.0610
10.3710	 6.2570
10.3920	 6.1010
10.4120	 6.1980
10.4330	 6.3210
10.4540	 6.5430
10.4760	 6.3280
10.4970	 6.5570
10.5180	 6.4010
10.5390	 6.4980
10.5610	 6.4200
10.5820	 6.5600
10.6040	 6.4520
10.6260	 6.5080
10.6480	 6.1800
10.6700	 6.3190
10.6920	 6.0480
10.7140	 6.1980
10.7360	 6.1790
10.7580	 6.5740
10.7800	 6.2720
10.8030	 6.0630
10.8250	 5.9200
10.8480	 6.2740
10.8710	 6.0140
10.8940	 6.0480
10.9170	 5.8350
10.9400	 5.8960
10.9630	 5.8490
10.9860	 6.0270
11.0090	 5.6860
11.0330	 5.7120
11.0560	 5.5530
11.0800	 5.6660
11.1040	 5.1500
11.1270	 5.2550
11.1510	 5.5120
11.1750	 5.8070
11.2000	 5.4750
11.2240	 5.4810
11.2480	 5.3750
11.2730	 5.7140
11.2970	 5.4060
11.3220	 5.7490
11.3470	 5.8720
11.3720	 5.7050
11.3970	 5.4200
11.4220	 5.6940
11.4470	 5.4690
11.4720	 5.5910
11.4980	 5.4320
11.5230	 5.4550
11.5490	 5.1790
11.5750	 5.3060
11.6000	 4.9820
11.6260	 5.0170
11.6530	 4.7030
11.6790	 4.7830
11.7050	 4.8190
11.7320	 5.0690
11.7580	 4.7640
11.7850	 5.0050
11.8120	 4.7730
11.8390	 4.8920
11.8660	 4.6570
11.8930	 4.6900
11.9200	 4.3490
11.9480	 4.6170
11.9760	 4.5890
12.0030	 4.7460
12.0310	 4.2710
12.0590	 4.1050
12.0870	 3.9870
12.1150	 4.3990
12.1440	 4.2520
12.1720	 4.3400
12.2010	 4.0890
12.2300	 3.9690
12.2590	 3.6380
12.2880	 3.9480
12.3170	 3.9190
12.3460	 4.2540
12.3760	 3.9530
12.4050	 4.2960
12.4350	 4.0050
12.4650	 4.0440
12.4950	 3.5780
12.5250	 3.8160
12.5550	 3.6360
12.5860	 3.7700
12.6170	 3.4280
12.6470	 3.7230
12.6780	 3.6230
12.7090	 4.0550
12.7410	 3.7370
12.7720	 3.8100
12.8030	 3.4750
12.8350	 3.6450
12.8670	 3.2730
12.8990	 3.6220
12.9310	 3.5000
12.9640	 3.7300
12.9960	 3.6820
13.0290	 4.1930
13.0610	 3.8440
13.0940	 3.8600
13.1280	 3.4330
13.1610	 3.3350
13.1940	 2.8710
13.2280	 3.4940
13.2620	 3.3600
13.2960	 3.4160
13.3300	 3.2670
13.3640	 3.5270
13.3990	 3.3070
13.4340	 3.6200
13.4690	 3.1250
13.5040	 3.2260
13.5390	 3.0660
13.5740	 3.3910
13.6100	 2.9250
13.6460	 3.2220
13.6820	 3.3910
13.7180	 4.0750
13.7540	 4.2920
13.7910	 4.6370
13.8280	 3.7910
13.8650	 3.9910
13.9020	 3.6620
13.9390	 3.6350
13.9770	 3.3350
14.0150	 3.9100
14.0530	 3.6420
14.0910	 3.8240
14.1290	 3.0410
14.1680	 3.2920
14.2070	 2.9620
14.2460	 3.4910
14.2850	 3.5210
14.3240	 4.0680
14.3640	 3.4630
14.4040	 3.9210
14.4440	 3.4210
14.4840	 3.6800
14.5250	 3.6520
14.5660	 4.3750
14.6070	 3.6640
14.6480	 4.0890
14.6900	 3.2710
14.7310	 3.9340
14.7730	 3.5340
14.8150	 4.1300
14.8580	 3.3770
14.9010	 4.0050
14.9440	 5.7580
14.9870	 6.6830
15.0300	 3.4630
15.0740	 3.8930
15.1180	 3.9170
15.1620	 4.6140
15.2060	 3.7890
15.2510	 4.9710
15.2960	 3.8830
15.3410	 3.7100
15.3870	 3.4380
