Name: Quercus douglasii 1
Type: vegetation
Class: Tree
Genus: Quercus
Species: douglasii
Sample No.: VH170
Owner: UCSB
Wavelength Range: TIR
Origin: 34.7153; -120.0598; WGS84
Collection Date: 6/9/2013
Description: Samples were collected as part of the HyspIRI Airborne Campaign. 48 individual plants were sampled in three times in 2013 - spring  summer  and fall. The name of the sample includes a 1  2  or 3 which references a different individual of the species. Samples were taken to JPL and processed within 48 hours of collection. The same leaves were processed in the Nicolet and then measured using the ASD.
Measurement: Hemispherical reflectance
First Column: X
Second Column: Y
X Units: Wavelength (micrometers)
Y Units: Reflectance (percentage)
First X Value: 2.501
Last X Value: 15.387
Number of X Values: 1737
Additional Information: vegetation.tree.quercus.douglasii.tir.vh170.ucsb.nicolet.ancillary.txt

 2.5010	 7.1700
 2.5030	 7.0740
 2.5040	 6.7070
 2.5050	 6.7520
 2.5060	 7.0690
 2.5070	 6.9570
 2.5090	 6.7340
 2.5100	 6.7830
 2.5110	 6.8840
 2.5120	 6.6990
 2.5140	 6.7590
 2.5150	 6.7590
 2.5160	 6.8440
 2.5170	 6.8670
 2.5180	 6.8320
 2.5200	 6.8350
 2.5210	 7.0130
 2.5220	 7.0680
 2.5230	 7.0520
 2.5250	 6.9560
 2.5260	 6.9470
 2.5270	 6.7420
 2.5280	 6.7740
 2.5290	 6.8620
 2.5310	 6.8810
 2.5320	 6.8920
 2.5330	 6.9520
 2.5340	 6.8760
 2.5360	 6.7770
 2.5370	 6.8500
 2.5380	 6.9300
 2.5390	 6.8050
 2.5410	 6.9590
 2.5420	 6.9650
 2.5430	 6.8000
 2.5440	 6.7010
 2.5460	 6.8130
 2.5470	 6.9600
 2.5480	 7.1040
 2.5490	 6.9740
 2.5510	 6.8060
 2.5520	 6.7230
 2.5530	 6.8100
 2.5540	 6.8120
 2.5560	 6.8790
 2.5570	 6.9120
 2.5580	 6.9440
 2.5590	 6.9510
 2.5610	 7.0110
 2.5620	 7.0120
 2.5630	 7.0820
 2.5640	 7.0240
 2.5660	 6.8940
 2.5670	 6.9040
 2.5680	 6.9990
 2.5700	 6.9760
 2.5710	 7.0210
 2.5720	 6.9290
 2.5730	 6.8800
 2.5750	 6.8770
 2.5760	 6.9400
 2.5770	 6.6950
 2.5790	 6.6280
 2.5800	 6.6850
 2.5810	 6.8580
 2.5820	 6.8790
 2.5840	 6.8660
 2.5850	 6.9050
 2.5860	 6.9220
 2.5880	 6.8750
 2.5890	 7.1540
 2.5900	 7.1460
 2.5910	 6.9210
 2.5930	 7.0550
 2.5940	 7.0190
 2.5950	 6.8330
 2.5970	 6.9770
 2.5980	 7.0260
 2.5990	 6.9720
 2.6000	 6.8670
 2.6020	 6.7840
 2.6030	 6.7880
 2.6040	 6.8170
 2.6060	 6.8070
 2.6070	 6.7820
 2.6080	 6.5590
 2.6100	 6.6140
 2.6110	 6.7160
 2.6120	 6.6690
 2.6140	 6.6710
 2.6150	 6.8530
 2.6160	 6.7610
 2.6180	 6.5400
 2.6190	 6.2810
 2.6200	 6.4410
 2.6220	 6.4470
 2.6230	 6.3540
 2.6240	 6.2790
 2.6260	 6.3350
 2.6270	 6.3200
 2.6280	 6.3530
 2.6300	 6.2170
 2.6310	 6.1510
 2.6320	 6.2280
 2.6340	 6.2240
 2.6350	 6.1090
 2.6360	 6.0950
 2.6380	 6.1620
 2.6390	 6.2290
 2.6400	 6.0850
 2.6420	 6.1010
 2.6430	 6.0700
 2.6440	 6.0870
 2.6460	 6.0440
 2.6470	 5.9770
 2.6480	 5.8440
 2.6500	 5.8650
 2.6510	 5.7840
 2.6520	 5.8840
 2.6540	 5.8760
 2.6550	 5.7520
 2.6560	 5.6680
 2.6580	 5.7660
 2.6590	 5.9400
 2.6610	 5.8610
 2.6620	 5.7530
 2.6630	 5.8430
 2.6650	 5.9650
 2.6660	 5.8460
 2.6670	 5.5980
 2.6690	 5.6210
 2.6700	 5.6880
 2.6720	 5.6380
 2.6730	 5.4260
 2.6740	 5.5140
 2.6760	 5.5430
 2.6770	 5.3540
 2.6780	 5.3680
 2.6800	 5.6010
 2.6810	 5.5380
 2.6830	 5.4040
 2.6840	 5.2080
 2.6850	 5.3460
 2.6870	 5.3930
 2.6880	 5.4320
 2.6900	 5.3080
 2.6910	 5.1550
 2.6920	 5.1220
 2.6940	 5.3250
 2.6950	 5.1090
 2.6970	 4.9880
 2.6980	 4.9740
 2.6990	 5.0630
 2.7010	 5.1870
 2.7020	 5.1600
 2.7040	 4.8680
 2.7050	 4.7350
 2.7060	 4.6420
 2.7080	 4.6630
 2.7090	 4.7100
 2.7110	 4.7840
 2.7120	 4.6560
 2.7130	 4.5580
 2.7150	 4.4350
 2.7160	 4.4100
 2.7180	 4.3700
 2.7190	 4.5540
 2.7210	 4.5780
 2.7220	 4.4470
 2.7230	 4.2090
 2.7250	 4.0920
 2.7260	 4.0820
 2.7280	 4.1860
 2.7290	 3.9950
 2.7310	 3.7130
 2.7320	 3.6200
 2.7330	 3.8860
 2.7350	 3.7850
 2.7360	 3.7200
 2.7380	 3.8090
 2.7390	 3.8090
 2.7410	 3.9420
 2.7420	 3.9460
 2.7440	 3.6580
 2.7450	 3.5960
 2.7470	 3.2640
 2.7480	 3.1820
 2.7490	 3.4740
 2.7510	 3.7000
 2.7520	 3.4810
 2.7540	 3.3340
 2.7550	 3.1790
 2.7570	 3.4670
 2.7580	 3.5210
 2.7600	 3.1980
 2.7610	 3.2810
 2.7630	 3.3380
 2.7640	 3.2560
 2.7660	 3.2690
 2.7670	 3.2690
 2.7680	 3.4390
 2.7700	 3.2460
 2.7710	 3.0200
 2.7730	 3.1120
 2.7740	 3.2870
 2.7760	 3.2080
 2.7770	 3.1230
 2.7790	 2.9200
 2.7800	 2.8800
 2.7820	 2.9590
 2.7830	 2.9720
 2.7850	 3.0530
 2.7860	 3.2140
 2.7880	 3.0160
 2.7890	 2.7170
 2.7910	 2.6910
 2.7920	 2.9300
 2.7940	 3.2130
 2.7950	 3.5100
 2.7970	 3.1020
 2.7980	 2.6700
 2.8000	 2.7900
 2.8010	 3.0680
 2.8030	 2.9000
 2.8040	 2.7330
 2.8060	 2.4710
 2.8070	 2.3290
 2.8090	 2.4100
 2.8110	 2.5520
 2.8120	 2.4830
 2.8140	 2.6570
 2.8150	 2.6390
 2.8170	 2.5630
 2.8180	 2.4900
 2.8200	 2.6830
 2.8210	 2.8640
 2.8230	 2.6530
 2.8240	 2.4410
 2.8260	 2.5910
 2.8270	 2.6150
 2.8290	 2.4910
 2.8300	 2.4290
 2.8320	 2.7640
 2.8340	 2.9540
 2.8350	 2.8100
 2.8370	 2.5540
 2.8380	 2.6420
 2.8400	 2.6290
 2.8410	 2.4980
 2.8430	 2.4670
 2.8440	 2.5800
 2.8460	 2.6100
 2.8480	 2.8020
 2.8490	 2.7640
 2.8510	 2.7420
 2.8520	 2.5120
 2.8540	 2.5250
 2.8550	 2.7130
 2.8570	 2.6570
 2.8590	 2.4690
 2.8600	 2.5690
 2.8620	 2.6530
 2.8630	 2.6990
 2.8650	 2.7420
 2.8660	 2.9020
 2.8680	 2.7230
 2.8700	 2.5700
 2.8710	 2.6970
 2.8730	 2.7630
 2.8740	 2.6570
 2.8760	 2.4020
 2.8780	 2.2360
 2.8790	 2.0640
 2.8810	 2.2460
 2.8820	 2.7390
 2.8840	 2.5920
 2.8860	 2.7290
 2.8870	 2.5600
 2.8890	 2.4860
 2.8900	 2.6470
 2.8920	 2.6410
 2.8940	 2.4100
 2.8950	 2.5090
 2.8970	 2.5060
 2.8980	 2.4790
 2.9000	 2.4060
 2.9020	 2.3350
 2.9030	 2.5600
 2.9050	 2.7960
 2.9070	 2.6940
 2.9080	 2.7040
 2.9100	 2.7170
 2.9120	 2.6600
 2.9130	 2.5010
 2.9150	 2.4850
 2.9160	 2.4280
 2.9180	 2.4280
 2.9200	 2.5620
 2.9210	 2.7370
 2.9230	 2.6940
 2.9250	 2.5610
 2.9260	 2.5390
 2.9280	 2.6600
 2.9300	 2.5400
 2.9310	 2.5040
 2.9330	 2.6030
 2.9350	 2.6670
 2.9360	 2.6280
 2.9380	 2.8280
 2.9400	 2.7170
 2.9410	 2.3760
 2.9430	 2.3640
 2.9450	 2.5440
 2.9460	 2.5670
 2.9480	 2.9260
 2.9500	 2.9970
 2.9510	 2.7610
 2.9530	 2.7190
 2.9550	 3.2370
 2.9560	 3.3170
 2.9580	 2.9360
 2.9600	 2.7830
 2.9610	 2.6760
 2.9630	 2.7310
 2.9650	 2.1710
 2.9660	 2.4060
 2.9680	 3.5350
 2.9700	 3.8910
 2.9720	 2.7360
 2.9730	 1.0600
 2.9750	 2.3530
 2.9770	 4.0880
 2.9780	 3.3670
 2.9800	 2.7030
 2.9820	 3.4870
 2.9840	 4.0510
 2.9850	 4.3960
 2.9870	 3.7370
 2.9890	 2.6520
 2.9900	 0.9920
 2.9920	 -0.509
 2.9940	 0.3880
 2.9960	 0.7120
 2.9970	 0.2300
 2.9990	 1.4870
 3.0010	 2.0160
 3.0030	 2.0980
 3.0040	 2.3930
 3.0060	 2.4540
 3.0080	 2.4560
 3.0100	 3.3780
 3.0110	 3.2610
 3.0130	 1.9520
 3.0150	 2.0630
 3.0170	 3.0500
 3.0180	 3.1170
 3.0200	 2.4830
 3.0220	 2.3430
 3.0240	 2.4520
 3.0250	 2.5720
 3.0270	 2.5800
 3.0290	 2.3930
 3.0310	 2.1350
 3.0320	 2.1730
 3.0340	 2.5090
 3.0360	 3.6880
 3.0380	 3.6610
 3.0400	 1.9370
 3.0410	 -0.489
 3.0430	 -1.379
 3.0450	 0.1750
 3.0470	 -0.224
 3.0480	 -0.252
 3.0500	 3.6450
 3.0520	 2.5750
 3.0540	 2.8510
 3.0560	 3.9750
 3.0570	 2.8870
 3.0590	 1.5640
 3.0610	 2.0200
 3.0630	 3.8020
 3.0650	 4.2650
 3.0660	 2.6310
 3.0680	 1.8760
 3.0700	 3.4080
 3.0720	 3.2530
 3.0740	 2.8280
 3.0760	 2.8900
 3.0770	 3.2590
 3.0790	 2.8460
 3.0810	 2.7260
 3.0830	 2.7030
 3.0850	 2.6830
 3.0870	 2.7320
 3.0880	 3.1060
 3.0900	 3.0360
 3.0920	 2.8840
 3.0940	 2.7780
 3.0960	 2.6820
 3.0980	 2.6390
 3.0990	 2.9830
 3.1010	 3.2350
 3.1030	 3.1200
 3.1050	 2.6950
 3.1070	 2.4040
 3.1090	 2.4390
 3.1110	 3.0460
 3.1120	 3.3900
 3.1140	 3.3170
 3.1160	 2.9510
 3.1180	 3.1430
 3.1200	 3.6230
 3.1220	 3.4600
 3.1240	 2.9630
 3.1260	 2.6000
 3.1270	 2.6340
 3.1290	 2.7040
 3.1310	 2.5620
 3.1330	 2.7190
 3.1350	 2.9040
 3.1370	 3.7870
 3.1390	 3.9210
 3.1410	 3.9050
 3.1430	 3.5140
 3.1450	 2.8440
 3.1460	 3.0040
 3.1480	 3.5680
 3.1500	 2.6350
 3.1520	 2.5280
 3.1540	 3.4750
 3.1560	 3.8110
 3.1580	 2.9570
 3.1600	 2.7450
 3.1620	 2.7780
 3.1640	 2.8770
 3.1660	 2.6390
 3.1680	 3.3940
 3.1700	 2.4940
 3.1710	 1.9660
 3.1730	 2.0600
 3.1750	 1.9400
 3.1770	 1.8330
 3.1790	 2.3830
 3.1810	 2.7550
 3.1830	 2.5910
 3.1850	 3.0770
 3.1870	 3.3420
 3.1890	 3.2000
 3.1910	 3.1590
 3.1930	 3.1970
 3.1950	 3.3070
 3.1970	 3.0680
 3.1990	 2.9280
 3.2010	 3.0420
 3.2030	 3.1280
 3.2050	 3.0500
 3.2070	 3.2010
 3.2090	 3.2010
 3.2110	 3.1460
 3.2130	 3.1800
 3.2150	 3.2450
 3.2170	 3.0910
 3.2190	 3.1530
 3.2210	 3.2870
 3.2230	 3.2000
 3.2250	 3.2020
 3.2270	 3.2970
 3.2290	 3.2740
 3.2310	 3.0500
 3.2330	 3.1640
 3.2350	 3.5500
 3.2370	 3.7570
 3.2390	 3.6370
 3.2410	 3.1650
 3.2430	 3.0900
 3.2450	 3.0400
 3.2470	 3.1080
 3.2490	 3.2470
 3.2510	 3.5370
 3.2530	 3.6710
 3.2550	 3.4120
 3.2570	 3.1870
 3.2590	 3.0310
 3.2610	 2.9800
 3.2630	 3.2340
 3.2650	 3.3430
 3.2670	 3.6010
 3.2690	 3.2860
 3.2720	 3.2630
 3.2740	 3.5000
 3.2760	 3.4880
 3.2780	 3.5370
 3.2800	 3.4070
 3.2820	 3.3340
 3.2840	 3.3760
 3.2860	 3.5470
 3.2880	 3.7420
 3.2900	 3.6120
 3.2920	 3.5170
 3.2940	 3.3660
 3.2960	 3.2560
 3.2990	 3.2340
 3.3010	 3.3570
 3.3030	 3.4620
 3.3050	 3.5940
 3.3070	 3.6280
 3.3090	 4.0200
 3.3110	 3.9410
 3.3130	 3.7020
 3.3150	 3.3900
 3.3180	 3.4980
 3.3200	 3.8910
 3.3220	 3.9270
 3.3240	 3.7450
 3.3260	 3.7640
 3.3280	 3.6030
 3.3300	 3.5740
 3.3330	 3.5890
 3.3350	 3.4870
 3.3370	 3.3350
 3.3390	 3.4300
 3.3410	 3.2660
 3.3430	 3.2990
 3.3450	 3.5270
 3.3480	 3.6010
 3.3500	 3.3400
 3.3520	 3.3570
 3.3540	 3.4700
 3.3560	 3.5660
 3.3580	 3.5720
 3.3610	 3.5450
 3.3630	 3.4270
 3.3650	 3.3040
 3.3670	 3.2990
 3.3690	 3.2460
 3.3720	 3.3540
 3.3740	 3.5580
 3.3760	 3.7030
 3.3780	 3.6240
 3.3800	 3.2430
 3.3830	 3.0940
 3.3850	 2.9540
 3.3870	 3.0000
 3.3890	 3.1730
 3.3910	 3.3010
 3.3940	 3.0310
 3.3960	 2.7210
 3.3980	 2.8780
 3.4000	 3.1710
 3.4020	 2.9520
 3.4050	 2.9740
 3.4070	 3.0710
 3.4090	 3.1030
 3.4110	 3.2630
 3.4140	 3.5090
 3.4160	 3.5990
 3.4180	 3.7450
 3.4200	 3.8860
 3.4230	 4.1200
 3.4250	 4.2630
 3.4270	 4.3020
 3.4290	 4.1870
 3.4320	 3.9090
 3.4340	 3.8520
 3.4360	 3.9850
 3.4390	 3.8520
 3.4410	 3.7400
 3.4430	 3.7950
 3.4450	 3.6630
 3.4480	 3.5090
 3.4500	 3.4220
 3.4520	 2.8170
 3.4550	 2.7650
 3.4570	 3.2670
 3.4590	 3.6210
 3.4620	 3.5380
 3.4640	 3.6220
 3.4660	 3.6210
 3.4680	 3.4290
 3.4710	 3.3730
 3.4730	 3.5540
 3.4750	 3.5750
 3.4780	 3.5680
 3.4800	 3.4820
 3.4820	 3.4800
 3.4850	 3.3520
 3.4870	 3.3220
 3.4890	 3.4250
 3.4920	 3.4350
 3.4940	 3.4030
 3.4970	 3.3230
 3.4990	 3.3380
 3.5010	 3.6920
 3.5040	 3.7600
 3.5060	 3.8780
 3.5080	 4.2020
 3.5110	 4.4680
 3.5130	 4.6350
 3.5160	 4.6170
 3.5180	 4.2190
 3.5200	 3.9920
 3.5230	 4.0440
 3.5250	 4.3120
 3.5270	 4.4350
 3.5300	 4.2950
 3.5320	 4.1200
 3.5350	 4.2200
 3.5370	 4.2800
 3.5400	 4.3950
 3.5420	 4.3600
 3.5440	 4.2640
 3.5470	 4.1120
 3.5490	 4.1790
 3.5520	 4.3890
 3.5540	 4.4610
 3.5570	 4.3390
 3.5590	 4.2530
 3.5610	 4.2930
 3.5640	 4.4260
 3.5660	 4.4320
 3.5690	 4.4020
 3.5710	 4.4450
 3.5740	 4.4950
 3.5760	 4.3760
 3.5790	 4.3330
 3.5810	 4.3540
 3.5840	 4.5820
 3.5860	 4.5220
 3.5890	 4.4640
 3.5910	 4.3610
 3.5930	 4.4930
 3.5960	 4.5570
 3.5980	 4.3480
 3.6010	 4.1960
 3.6030	 4.2010
 3.6060	 4.1700
 3.6080	 4.2850
 3.6110	 4.4570
 3.6140	 4.4090
 3.6160	 4.3720
 3.6190	 4.4660
 3.6210	 4.4950
 3.6240	 4.4020
 3.6260	 4.3190
 3.6290	 4.1950
 3.6310	 4.1190
 3.6340	 4.4750
 3.6360	 4.6330
 3.6390	 4.4420
 3.6410	 4.3100
 3.6440	 4.3020
 3.6470	 4.4200
 3.6490	 4.5550
 3.6520	 4.4780
 3.6540	 4.4300
 3.6570	 4.4990
 3.6590	 4.5320
 3.6620	 4.5390
 3.6650	 4.5530
 3.6670	 4.5180
 3.6700	 4.5500
 3.6720	 4.5920
 3.6750	 4.5520
 3.6780	 4.4760
 3.6800	 4.4900
 3.6830	 4.5040
 3.6850	 4.5100
 3.6880	 4.5240
 3.6910	 4.5920
 3.6930	 4.5650
 3.6960	 4.6090
 3.6990	 4.5850
 3.7010	 4.6000
 3.7040	 4.5250
 3.7060	 4.5050
 3.7090	 4.4950
 3.7120	 4.6230
 3.7140	 4.6000
 3.7170	 4.4840
 3.7200	 4.5180
 3.7220	 4.6250
 3.7250	 4.7820
 3.7280	 4.9370
 3.7300	 4.8300
 3.7330	 4.6980
 3.7360	 4.7320
 3.7390	 4.8060
 3.7410	 4.7780
 3.7440	 4.8130
 3.7470	 4.7490
 3.7490	 4.6620
 3.7520	 4.5460
 3.7550	 4.6210
 3.7580	 4.6650
 3.7600	 4.6440
 3.7630	 4.6100
 3.7660	 4.6300
 3.7680	 4.5230
 3.7710	 4.5890
 3.7740	 4.6050
 3.7770	 4.6130
 3.7790	 4.7180
 3.7820	 4.7220
 3.7850	 4.6810
 3.7880	 4.7940
 3.7900	 4.8610
 3.7930	 4.8990
 3.7960	 4.8230
 3.7990	 4.7250
 3.8020	 4.7220
 3.8040	 4.8160
 3.8070	 4.6850
 3.8100	 4.7010
 3.8130	 4.7440
 3.8160	 4.7800
 3.8180	 4.6890
 3.8210	 4.7500
 3.8240	 4.6850
 3.8270	 4.7070
 3.8300	 4.9110
 3.8330	 5.0080
 3.8350	 4.8950
 3.8380	 4.6770
 3.8410	 4.5960
 3.8440	 4.8280
 3.8470	 5.0090
 3.8500	 5.0150
 3.8520	 4.8930
 3.8550	 4.8920
 3.8580	 4.9650
 3.8610	 4.9810
 3.8640	 4.9160
 3.8670	 4.8750
 3.8700	 4.8060
 3.8730	 4.8780
 3.8750	 4.8870
 3.8780	 4.9110
 3.8810	 4.9250
 3.8840	 4.8770
 3.8870	 4.7770
 3.8900	 4.8680
 3.8930	 4.9210
 3.8960	 4.8080
 3.8990	 4.6990
 3.9020	 4.7510
 3.9050	 4.8060
 3.9080	 4.9170
 3.9110	 4.9060
 3.9140	 4.9450
 3.9160	 4.9560
 3.9190	 4.9040
 3.9220	 4.8300
 3.9250	 4.8560
 3.9280	 4.9420
 3.9310	 4.9800
 3.9340	 4.8880
 3.9370	 4.9040
 3.9400	 4.9300
 3.9430	 4.9840
 3.9460	 5.0120
 3.9490	 4.9180
 3.9520	 4.8300
 3.9550	 4.9150
 3.9580	 4.9450
 3.9610	 4.9950
 3.9640	 4.9910
 3.9670	 5.0320
 3.9700	 5.0850
 3.9730	 5.0580
 3.9770	 4.9820
 3.9800	 5.0110
 3.9830	 4.9660
 3.9860	 5.0150
 3.9890	 5.1620
 3.9920	 5.1290
 3.9950	 4.9100
 3.9980	 4.8960
 4.0010	 4.8800
 4.0040	 4.9690
 4.0070	 4.9380
 4.0100	 4.8890
 4.0130	 4.9850
 4.0170	 5.1200
 4.0200	 5.1060
 4.0230	 5.0290
 4.0260	 5.0210
 4.0290	 5.1630
 4.0320	 5.2110
 4.0350	 5.0860
 4.0380	 4.9960
 4.0420	 5.0890
 4.0450	 5.1710
 4.0480	 5.0940
 4.0510	 5.0920
 4.0540	 5.1890
 4.0570	 5.1800
 4.0610	 5.2120
 4.0640	 5.2270
 4.0670	 5.2190
 4.0700	 5.1720
 4.0730	 5.1310
 4.0770	 5.0500
 4.0800	 5.0550
 4.0830	 5.1060
 4.0860	 5.0620
 4.0890	 4.9480
 4.0930	 5.0150
 4.0960	 5.0860
 4.0990	 5.0690
 4.1020	 5.0050
 4.1060	 5.1570
 4.1090	 5.1830
 4.1120	 5.0390
 4.1150	 5.0180
 4.1190	 5.0930
 4.1220	 5.1860
 4.1250	 5.2110
 4.1280	 5.1850
 4.1320	 5.1820
 4.1350	 5.2890
 4.1380	 5.2870
 4.1420	 5.1910
 4.1450	 5.1210
 4.1480	 5.1440
 4.1520	 5.1830
 4.1550	 5.1380
 4.1580	 5.1500
 4.1620	 5.2100
 4.1650	 5.2130
 4.1680	 5.1830
 4.1720	 5.2650
 4.1750	 5.2600
 4.1780	 5.1680
 4.1820	 5.1690
 4.1850	 5.1540
 4.1890	 5.1020
 4.1920	 5.0680
 4.1950	 5.1450
 4.1990	 5.2830
 4.2020	 5.3440
 4.2060	 5.4970
 4.2090	 5.7300
 4.2120	 5.9420
 4.2160	 5.7150
 4.2190	 5.5900
 4.2230	 5.9320
 4.2260	 6.6230
 4.2300	 6.4740
 4.2330	 6.1250
 4.2360	 5.7800
 4.2400	 5.5140
 4.2430	 5.6010
 4.2470	 5.8130
 4.2500	 5.7770
 4.2540	 5.5870
 4.2570	 5.5150
 4.2610	 5.5200
 4.2640	 5.2480
 4.2680	 5.1050
 4.2710	 5.1630
 4.2750	 5.4190
 4.2780	 5.4890
 4.2820	 5.4490
 4.2850	 5.5740
 4.2890	 5.5820
 4.2930	 5.5470
 4.2960	 5.6420
 4.3000	 5.4620
 4.3030	 5.2840
 4.3070	 5.4490
 4.3100	 5.6080
 4.3140	 5.5310
 4.3180	 5.4620
 4.3210	 5.3510
 4.3250	 5.3150
 4.3280	 5.3330
 4.3320	 5.3310
 4.3360	 5.3020
 4.3390	 5.3150
 4.3430	 5.1980
 4.3470	 5.1710
 4.3500	 5.2240
 4.3540	 5.1020
 4.3570	 5.0630
 4.3610	 5.1650
 4.3650	 5.1740
 4.3680	 5.1430
 4.3720	 5.0480
 4.3760	 5.0710
 4.3800	 5.1070
 4.3830	 5.0140
 4.3870	 4.9480
 4.3910	 5.0520
 4.3940	 5.1480
 4.3980	 5.0890
 4.4020	 4.9820
 4.4060	 5.0240
 4.4090	 4.9730
 4.4130	 4.8970
 4.4170	 5.0040
 4.4210	 5.0040
 4.4240	 4.9300
 4.4280	 4.9430
 4.4320	 4.8780
 4.4360	 4.8710
 4.4400	 4.8960
 4.4430	 4.9370
 4.4470	 5.0830
 4.4510	 5.1170
 4.4550	 5.0020
 4.4590	 4.9420
 4.4620	 4.9570
 4.4660	 5.0310
 4.4700	 5.0620
 4.4740	 5.0730
 4.4780	 5.0080
 4.4820	 4.9480
 4.4860	 4.9160
 4.4900	 4.9340
 4.4930	 4.9240
 4.4970	 4.9720
 4.5010	 5.0350
 4.5050	 4.9810
 4.5090	 4.9340
 4.5130	 5.0180
 4.5170	 5.0120
 4.5210	 5.0010
 4.5250	 4.8940
 4.5290	 4.8750
 4.5330	 5.0170
 4.5370	 4.9920
 4.5410	 4.8910
 4.5450	 4.9230
 4.5490	 4.9270
 4.5530	 4.8420
 4.5570	 4.8970
 4.5610	 4.9240
 4.5650	 4.8550
 4.5690	 4.8800
 4.5730	 4.8120
 4.5770	 4.8270
 4.5810	 4.8970
 4.5850	 4.8540
 4.5890	 4.7500
 4.5930	 4.7520
 4.5970	 4.8050
 4.6010	 4.7100
 4.6050	 4.7910
 4.6090	 4.9900
 4.6130	 4.8100
 4.6170	 4.7080
 4.6220	 4.8180
 4.6260	 4.7090
 4.6300	 4.6800
 4.6340	 4.7740
 4.6380	 4.7480
 4.6420	 4.8310
 4.6460	 4.8790
 4.6510	 4.8390
 4.6550	 4.7490
 4.6590	 4.6300
 4.6630	 4.6210
 4.6670	 4.6850
 4.6720	 4.7180
 4.6760	 4.6920
 4.6800	 4.7180
 4.6840	 4.7750
 4.6880	 4.7490
 4.6930	 4.7580
 4.6970	 4.8070
 4.7010	 4.7870
 4.7050	 4.7180
 4.7100	 4.7620
 4.7140	 4.7390
 4.7180	 4.7280
 4.7230	 4.7530
 4.7270	 4.8450
 4.7310	 4.8820
 4.7360	 4.8600
 4.7400	 4.8570
 4.7440	 4.8310
 4.7490	 4.7800
 4.7530	 4.7770
 4.7570	 4.8410
 4.7620	 4.8510
 4.7660	 4.8870
 4.7700	 4.8760
 4.7750	 4.8340
 4.7790	 5.0140
 4.7840	 5.1200
 4.7880	 4.8000
 4.7920	 4.4640
 4.7970	 4.7650
 4.8010	 4.9760
 4.8060	 4.7270
 4.8100	 4.6850
 4.8150	 4.8110
 4.8190	 4.7910
 4.8240	 4.7880
 4.8280	 4.7960
 4.8330	 4.7690
 4.8370	 4.7490
 4.8420	 4.6740
 4.8460	 4.6220
 4.8510	 4.7390
 4.8550	 4.8260
 4.8600	 4.8390
 4.8640	 4.7950
 4.8690	 4.7230
 4.8730	 4.8030
 4.8780	 4.8660
 4.8830	 4.9120
 4.8870	 4.8450
 4.8920	 4.7510
 4.8960	 4.7410
 4.9010	 4.7600
 4.9060	 4.7970
 4.9100	 4.8950
 4.9150	 4.8480
 4.9200	 4.7930
 4.9240	 4.8240
 4.9290	 4.7740
 4.9340	 4.7240
 4.9380	 4.7530
 4.9430	 4.8090
 4.9480	 4.8310
 4.9530	 4.8760
 4.9570	 4.8540
 4.9620	 4.7760
 4.9670	 4.7850
 4.9720	 4.8190
 4.9760	 4.8370
 4.9810	 4.8460
 4.9860	 4.8830
 4.9910	 4.8550
 4.9960	 4.7340
 5.0000	 4.7070
 5.0050	 4.8460
 5.0100	 4.9130
 5.0150	 4.8130
 5.0200	 4.8150
 5.0250	 4.7800
 5.0290	 4.8580
 5.0340	 4.9630
 5.0390	 4.9720
 5.0440	 5.0520
 5.0490	 4.9940
 5.0540	 4.9470
 5.0590	 4.8740
 5.0640	 4.8620
 5.0690	 4.9010
 5.0740	 4.9110
 5.0790	 4.8660
 5.0840	 4.8500
 5.0890	 4.8360
 5.0940	 4.8690
 5.0990	 4.9650
 5.1040	 4.8980
 5.1090	 4.6950
 5.1140	 4.7160
 5.1190	 4.7630
 5.1240	 4.8230
 5.1290	 4.8710
 5.1340	 4.7630
 5.1390	 4.7240
 5.1440	 4.8500
 5.1490	 4.9030
 5.1540	 4.8720
 5.1600	 4.7680
 5.1650	 4.8500
 5.1700	 4.9050
 5.1750	 4.8760
 5.1800	 4.8490
 5.1850	 4.8690
 5.1910	 4.8810
 5.1960	 4.9110
 5.2010	 4.9700
 5.2060	 5.0240
 5.2110	 4.9280
 5.2170	 4.8330
 5.2220	 4.8040
 5.2270	 4.8090
 5.2320	 4.8020
 5.2380	 4.8430
 5.2430	 4.8760
 5.2480	 4.8680
 5.2540	 4.7550
 5.2590	 4.7120
 5.2640	 4.7610
 5.2700	 4.8500
 5.2750	 4.8760
 5.2800	 4.8050
 5.2860	 4.7890
 5.2910	 4.7740
 5.2970	 4.7160
 5.3020	 4.7930
 5.3070	 4.7170
 5.3130	 4.6530
 5.3180	 4.6550
 5.3240	 4.6230
 5.3290	 4.6010
 5.3350	 4.7790
 5.3400	 4.8570
 5.3460	 4.8140
 5.3510	 4.8010
 5.3570	 4.8610
 5.3620	 4.7370
 5.3680	 4.6520
 5.3730	 4.7010
 5.3790	 4.6970
 5.3850	 4.7240
 5.3900	 4.7700
 5.3960	 4.7840
 5.4010	 4.7820
 5.4070	 4.6910
 5.4130	 4.6850
 5.4180	 4.7610
 5.4240	 4.7170
 5.4300	 4.5460
 5.4350	 4.5750
 5.4410	 4.5680
 5.4470	 4.4690
 5.4530	 4.4780
 5.4580	 4.6130
 5.4640	 4.5570
 5.4700	 4.4940
 5.4760	 4.4820
 5.4810	 4.4990
 5.4870	 4.4270
 5.4930	 4.3730
 5.4990	 4.4060
 5.5050	 4.3950
 5.5110	 4.3180
 5.5160	 4.2480
 5.5220	 4.2450
 5.5280	 4.3510
 5.5340	 4.2480
 5.5400	 4.0970
 5.5460	 4.1690
 5.5520	 4.2550
 5.5580	 4.1270
 5.5640	 4.1000
 5.5700	 4.1690
 5.5760	 4.1250
 5.5820	 3.9750
 5.5880	 3.8890
 5.5940	 3.8300
 5.6000	 3.8110
 5.6060	 3.7410
 5.6120	 3.6840
 5.6180	 3.6360
 5.6240	 3.5790
 5.6300	 3.5430
 5.6360	 3.5310
 5.6420	 3.4210
 5.6490	 3.2580
 5.6550	 3.1460
 5.6610	 3.0660
 5.6670	 3.0400
 5.6730	 3.0160
 5.6800	 2.7590
 5.6860	 2.6220
 5.6920	 2.5370
 5.6980	 2.5310
 5.7040	 2.4950
 5.7110	 2.3880
 5.7170	 2.3390
 5.7230	 2.4250
 5.7300	 2.4250
 5.7360	 2.2880
 5.7420	 2.1920
 5.7490	 2.2620
 5.7550	 2.2950
 5.7620	 2.4130
 5.7680	 2.3650
 5.7740	 2.4420
 5.7810	 2.5260
 5.7870	 2.5780
 5.7940	 2.6560
 5.8000	 2.6910
 5.8070	 2.6970
 5.8130	 2.7660
 5.8200	 2.7370
 5.8260	 2.8670
 5.8330	 3.0080
 5.8390	 3.0560
 5.8460	 3.0500
 5.8530	 3.1120
 5.8590	 3.1020
 5.8660	 3.2160
 5.8720	 3.3460
 5.8790	 3.4250
 5.8860	 3.3550
 5.8920	 3.3760
 5.8990	 3.4290
 5.9060	 3.5250
 5.9130	 3.5600
 5.9190	 3.5250
 5.9260	 3.4810
 5.9330	 3.5300
 5.9400	 3.4300
 5.9470	 3.4290
 5.9530	 3.4540
 5.9600	 3.3960
 5.9670	 3.2920
 5.9740	 3.4060
 5.9810	 3.3130
 5.9880	 3.2170
 5.9950	 3.0980
 6.0020	 3.0200
 6.0090	 2.9240
 6.0160	 2.9140
 6.0230	 2.9140
 6.0300	 2.9790
 6.0370	 3.0150
 6.0440	 3.0850
 6.0510	 3.0820
 6.0580	 3.1190
 6.0650	 3.1610
 6.0720	 3.2840
 6.0790	 3.2210
 6.0860	 3.1760
 6.0930	 3.2170
 6.1000	 3.2840
 6.1080	 3.0820
 6.1150	 2.9860
 6.1220	 3.0500
 6.1290	 3.2090
 6.1370	 3.1720
 6.1440	 3.1080
 6.1510	 3.1220
 6.1580	 3.2580
 6.1660	 3.1980
 6.1730	 3.0840
 6.1800	 3.1100
 6.1880	 3.2950
 6.1950	 3.1910
 6.2030	 3.1680
 6.2100	 3.1490
 6.2170	 3.2100
 6.2250	 3.2000
 6.2320	 3.1410
 6.2400	 3.0300
 6.2470	 3.1770
 6.2550	 3.3010
 6.2630	 3.4830
 6.2700	 3.4770
 6.2780	 3.4600
 6.2850	 3.3520
 6.2930	 3.4800
 6.3010	 3.5980
 6.3080	 3.5360
 6.3160	 3.3370
 6.3240	 3.4700
 6.3310	 3.6040
 6.3390	 3.6190
 6.3470	 3.6600
 6.3550	 3.7200
 6.3620	 3.6530
 6.3700	 3.6940
 6.3780	 3.7870
 6.3860	 3.8490
 6.3940	 3.7260
 6.4020	 3.7700
 6.4100	 3.9120
 6.4180	 4.0730
 6.4260	 3.9060
 6.4330	 3.8070
 6.4410	 3.8390
 6.4490	 4.0050
 6.4580	 4.0290
 6.4660	 4.0090
 6.4740	 3.8390
 6.4820	 3.8910
 6.4900	 3.8130
 6.4980	 3.8340
 6.5060	 3.8400
 6.5140	 3.8890
 6.5230	 3.8010
 6.5310	 3.6650
 6.5390	 3.5210
 6.5470	 3.4940
 6.5550	 3.4270
 6.5640	 3.4860
 6.5720	 3.2900
 6.5800	 3.1590
 6.5890	 3.1060
 6.5970	 3.2430
 6.6060	 3.3390
 6.6140	 3.3650
 6.6220	 3.3080
 6.6310	 3.3910
 6.6390	 3.4240
 6.6480	 3.5030
 6.6560	 3.5230
 6.6650	 3.6700
 6.6740	 3.6350
 6.6820	 3.6670
 6.6910	 3.6420
 6.6990	 3.6220
 6.7080	 3.5880
 6.7170	 3.7020
 6.7260	 3.7100
 6.7340	 3.7330
 6.7430	 3.6460
 6.7520	 3.5800
 6.7610	 3.4980
 6.7690	 3.5590
 6.7780	 3.5210
 6.7870	 3.5650
 6.7960	 3.3630
 6.8050	 3.2040
 6.8140	 3.0630
 6.8230	 3.1510
 6.8320	 3.2370
 6.8410	 3.2550
 6.8500	 3.1170
 6.8590	 3.1510
 6.8680	 3.0630
 6.8770	 3.0800
 6.8860	 3.0970
 6.8950	 3.2670
 6.9050	 3.2060
 6.9140	 3.1080
 6.9230	 3.1350
 6.9320	 3.2680
 6.9420	 3.2420
 6.9510	 3.2680
 6.9600	 3.2480
 6.9700	 3.3310
 6.9790	 3.2230
 6.9880	 3.2380
 6.9980	 3.2540
 7.0070	 3.3770
 7.0170	 3.2250
 7.0260	 3.1930
 7.0360	 3.1460
 7.0450	 3.2280
 7.0550	 3.2540
 7.0650	 3.2590
 7.0740	 3.1560
 7.0840	 3.3140
 7.0940	 3.3060
 7.1030	 3.3500
 7.1130	 3.2610
 7.1230	 3.1780
 7.1330	 3.1200
 7.1420	 3.2120
 7.1520	 3.1160
 7.1620	 3.0410
 7.1720	 2.7960
 7.1820	 2.8260
 7.1920	 2.8850
 7.2020	 2.7920
 7.2120	 2.6970
 7.2220	 2.8520
 7.2320	 2.8650
 7.2420	 3.0010
 7.2520	 2.8980
 7.2620	 2.8720
 7.2730	 2.7930
 7.2830	 2.8570
 7.2930	 2.8790
 7.3030	 3.0460
 7.3140	 2.9460
 7.3240	 3.0020
 7.3340	 2.9600
 7.3450	 2.9990
 7.3550	 3.0960
 7.3660	 3.2040
 7.3760	 3.1240
 7.3870	 3.1610
 7.3970	 3.1780
 7.4080	 3.3300
 7.4180	 3.2760
 7.4290	 3.4050
 7.4400	 3.3880
 7.4500	 3.3790
 7.4610	 3.3250
 7.4720	 3.3690
 7.4830	 3.3570
 7.4930	 3.3040
 7.5040	 3.0290
 7.5150	 3.0280
 7.5260	 3.0260
 7.5370	 3.0770
 7.5480	 2.9960
 7.5590	 3.0650
 7.5700	 2.9670
 7.5810	 2.9890
 7.5920	 2.9320
 7.6030	 3.0080
 7.6140	 2.9260
 7.6260	 3.0450
 7.6370	 2.8540
 7.6480	 2.6190
 7.6590	 2.7050
 7.6710	 2.9650
 7.6820	 3.0430
 7.6930	 3.1860
 7.7050	 3.0680
 7.7160	 3.0390
 7.7280	 2.8540
 7.7390	 2.9110
 7.7510	 2.9090
 7.7630	 2.8350
 7.7740	 2.6890
 7.7860	 2.8220
 7.7980	 2.7870
 7.8090	 2.8610
 7.8210	 2.8230
 7.8330	 2.8430
 7.8450	 2.6800
 7.8570	 2.8590
 7.8690	 2.9150
 7.8810	 2.8950
 7.8930	 2.7860
 7.9050	 2.9070
 7.9170	 2.8370
 7.9290	 2.8580
 7.9410	 2.9010
 7.9530	 3.0200
 7.9650	 3.0330
 7.9780	 3.1150
 7.9900	 2.9840
 8.0020	 2.9020
 8.0150	 2.7400
 8.0270	 2.8930
 8.0390	 3.0470
 8.0520	 3.2620
 8.0640	 3.1720
 8.0770	 3.2400
 8.0900	 3.1710
 8.1020	 3.1220
 8.1150	 3.0480
 8.1280	 3.3820
 8.1400	 3.3340
 8.1530	 3.3680
 8.1660	 3.1440
 8.1790	 3.3290
 8.1920	 3.4110
 8.2050	 3.2850
 8.2180	 3.0900
 8.2310	 3.1250
 8.2440	 2.9870
 8.2570	 3.3360
 8.2700	 3.4210
 8.2830	 3.4940
 8.2970	 3.4570
 8.3100	 3.4290
 8.3230	 3.1960
 8.3370	 3.3370
 8.3500	 3.3710
 8.3640	 3.5500
 8.3770	 3.4940
 8.3910	 3.6620
 8.4040	 3.6130
 8.4180	 3.5070
 8.4320	 3.2290
 8.4450	 3.3350
 8.4590	 3.2400
 8.4730	 3.2830
 8.4870	 3.2290
 8.5010	 3.4450
 8.5150	 3.4430
 8.5290	 3.5650
 8.5430	 3.4780
 8.5570	 3.7050
 8.5710	 3.6870
 8.5850	 3.9020
 8.5990	 3.6610
 8.6140	 3.6650
 8.6280	 3.6490
 8.6420	 3.7310
 8.6570	 3.6990
 8.6710	 4.0030
 8.6860	 3.9620
 8.7000	 4.0850
 8.7150	 3.8840
 8.7300	 4.0080
 8.7440	 3.9980
 8.7590	 3.8840
 8.7740	 3.6640
 8.7890	 3.8330
 8.8040	 3.6270
 8.8190	 3.5380
 8.8340	 3.5370
 8.8490	 3.9680
 8.8640	 3.8570
 8.8790	 3.7530
 8.8940	 3.3980
 8.9100	 3.4310
 8.9250	 3.4710
 8.9400	 3.6540
 8.9560	 3.5500
 8.9710	 3.5790
 8.9870	 3.2650
 9.0020	 3.2840
 9.0180	 3.1810
 9.0340	 3.2090
 9.0500	 3.0500
 9.0650	 3.2970
 9.0810	 3.1310
 9.0970	 3.1430
 9.1130	 2.9960
 9.1290	 3.2950
 9.1450	 3.1370
 9.1610	 3.0160
 9.1780	 2.8100
 9.1940	 2.9200
 9.2100	 2.7690
 9.2270	 2.8530
 9.2430	 2.8520
 9.2600	 3.0180
 9.2760	 2.9640
 9.2930	 3.2970
 9.3090	 3.0680
 9.3260	 3.0540
 9.3430	 2.8870
 9.3600	 2.9690
 9.3770	 2.9700
 9.3940	 3.0440
 9.4110	 2.9430
 9.4280	 3.1560
 9.4450	 3.1550
 9.4620	 3.3760
 9.4800	 3.2940
 9.4970	 3.4750
 9.5140	 3.2570
 9.5320	 3.4400
 9.5500	 3.3950
 9.5670	 3.5100
 9.5850	 3.3650
 9.6030	 3.5840
 9.6200	 3.4740
 9.6380	 3.5430
 9.6560	 3.4560
 9.6740	 3.6740
 9.6920	 3.6300
 9.7100	 3.8650
 9.7290	 3.7340
 9.7470	 3.6830
 9.7650	 3.5430
 9.7840	 3.8730
 9.8020	 3.9030
 9.8210	 3.9180
 9.8390	 3.5710
 9.8580	 3.8180
 9.8770	 3.9270
 9.8960	 4.2970
 9.9150	 4.1240
 9.9340	 4.0310
 9.9530	 3.8690
 9.9720	 4.0480
 9.9910	 3.9320
10.0100	 3.9990
10.0300	 4.0210
10.0490	 4.3150
10.0690	 4.1900
10.0880	 4.2340
10.1080	 4.1150
10.1280	 4.3120
10.1480	 4.0950
10.1670	 4.2580
10.1870	 4.2690
10.2070	 4.4830
10.2280	 4.3630
10.2480	 4.3850
10.2680	 4.3580
10.2890	 4.5720
10.3090	 4.2410
10.3300	 4.2870
10.3500	 4.2640
10.3710	 4.5340
10.3920	 4.4620
10.4120	 4.6500
10.4330	 4.6390
10.4540	 4.8410
10.4760	 4.5790
10.4970	 4.6880
10.5180	 4.6660
10.5390	 4.6470
10.5610	 4.4400
10.5820	 4.7310
10.6040	 4.6400
10.6260	 4.7390
10.6480	 4.6710
10.6700	 4.7070
10.6920	 4.6190
10.7140	 4.8610
10.7360	 4.6690
10.7580	 4.7850
10.7800	 4.5650
10.8030	 4.7540
10.8250	 4.5180
10.8480	 4.5120
10.8710	 4.3720
10.8940	 4.6250
10.9170	 4.3230
10.9400	 4.3920
10.9630	 4.2560
10.9860	 4.4020
11.0090	 4.3340
11.0330	 4.3420
11.0560	 4.0290
11.0800	 4.2980
11.1040	 3.9180
11.1270	 4.1160
11.1510	 4.2070
11.1750	 4.4320
11.2000	 4.1970
11.2240	 4.3380
11.2480	 4.1250
11.2730	 4.5410
11.2970	 4.5280
11.3220	 4.1490
11.3470	 4.0770
11.3720	 4.4680
11.3970	 4.5730
11.4220	 4.6850
11.4470	 4.2940
11.4720	 4.2970
11.4980	 4.1700
11.5230	 4.3710
11.5490	 4.2840
11.5750	 4.5140
11.6000	 4.3480
11.6260	 4.5010
11.6530	 4.1430
11.6790	 4.2560
11.7050	 4.2840
11.7320	 4.4750
11.7580	 4.2820
11.7850	 4.3670
11.8120	 3.9430
11.8390	 4.0100
11.8660	 4.0190
11.8930	 4.2560
11.9200	 3.9370
11.9480	 4.1020
11.9760	 4.0370
12.0030	 4.3380
12.0310	 3.9770
12.0590	 4.2010
12.0870	 4.2220
12.1150	 4.4910
12.1440	 4.1460
12.1720	 4.4320
12.2010	 4.1280
12.2300	 4.2880
12.2590	 4.2380
12.2880	 4.5430
12.3170	 4.3670
12.3460	 4.4930
12.3760	 4.0660
12.4050	 4.4280
12.4350	 4.2990
12.4650	 4.4450
12.4950	 4.2100
12.5250	 4.3190
12.5550	 4.0750
12.5860	 4.3450
12.6170	 4.1500
12.6470	 4.2200
12.6780	 3.9340
12.7090	 4.1770
12.7410	 3.8180
12.7720	 3.9250
12.8030	 3.9710
12.8350	 4.4380
12.8670	 4.1030
12.8990	 4.0560
12.9310	 3.8360
12.9640	 4.2810
12.9960	 4.1580
13.0290	 4.1820
13.0610	 3.8860
13.0940	 4.0650
13.1280	 3.7290
13.1610	 4.0560
13.1940	 3.9490
13.2280	 4.1690
13.2620	 3.8140
13.2960	 4.0340
13.3300	 3.8090
13.3640	 4.1780
13.3990	 3.8530
13.4340	 3.8690
13.4690	 3.5810
13.5040	 3.9460
13.5390	 3.4460
13.5740	 3.7490
13.6100	 3.8480
13.6460	 4.3270
13.6820	 4.0250
13.7180	 4.1840
13.7540	 3.9330
13.7910	 4.3290
13.8280	 4.1180
13.8650	 4.3990
13.9020	 4.0160
13.9390	 4.0940
13.9770	 3.6850
14.0150	 3.9340
14.0530	 3.5760
14.0910	 3.9920
14.1290	 3.9320
14.1680	 4.3950
14.2070	 3.7900
14.2460	 3.9620
14.2850	 3.4870
14.3240	 3.8870
14.3640	 3.7690
14.4040	 4.2210
14.4440	 3.8340
14.4840	 4.4750
14.5250	 4.2220
14.5660	 4.4230
14.6070	 3.7820
14.6480	 4.0460
14.6900	 3.8210
14.7310	 4.4190
14.7730	 3.4820
14.8150	 3.7020
14.8580	 3.2430
14.9010	 3.7760
14.9440	 3.0020
14.9870	 3.8970
15.0300	 3.3930
15.0740	 3.8330
15.1180	 3.2830
15.1620	 3.9500
15.2060	 2.6840
15.2510	 3.3190
15.2960	 3.7350
15.3410	 4.6780
15.3870	 3.5850
