Name: Quercus lobata 1
Type: vegetation
Class: Tree
Genus: Quercus
Species: lobata
Sample No.: VH086
Owner: UCSB
Wavelength Range: VSWIR
Origin: 34.7139; -120.0598; WGS84
Collection Date: 4/21/2013
Description: Samples were collected as part of the HyspIRI Airborne Campaign. 48 individual plants were sampled in three times in 2013 - spring  summer  and fall. The name of the sample includes a 1  2  or 3 which references a different individual of the species. Samples were taken to JPL and processed within 48 hours of collection. The same leaves were processed in the Nicolet and then measured using the ASD.
Measurement: Bidirectional reflectance
First Column: X
Second Column: Y
X Units: Wavelength (micrometers)
Y Units: Reflectance (percentage)
First X Value: 0.35
Last X Value: 2.5
Number of X Values: 2151
Additional Information: vegetation.tree.quercus.lobata.vswir.vh086.ucsb.asd.ancillary.txt

 0.3500	 3.5340
 0.3510	 3.4120
 0.3520	 3.3740
 0.3530	 3.3750
 0.3540	 3.3340
 0.3550	 3.1950
 0.3560	 3.2010
 0.3570	 3.2580
 0.3580	 3.1410
 0.3590	 3.1450
 0.3600	 3.1620
 0.3610	 3.1590
 0.3620	 3.2780
 0.3630	 3.2470
 0.3640	 3.2160
 0.3650	 3.3230
 0.3660	 3.2260
 0.3670	 3.1350
 0.3680	 3.1700
 0.3690	 3.3430
 0.3700	 3.2770
 0.3710	 3.2250
 0.3720	 3.3110
 0.3730	 3.2510
 0.3740	 3.2570
 0.3750	 3.2960
 0.3760	 3.2860
 0.3770	 3.2600
 0.3780	 3.2510
 0.3790	 3.2530
 0.3800	 3.2360
 0.3810	 3.2560
 0.3820	 3.2840
 0.3830	 3.2880
 0.3840	 3.2590
 0.3850	 3.2860
 0.3860	 3.3260
 0.3870	 3.3100
 0.3880	 3.3320
 0.3890	 3.3680
 0.3900	 3.4000
 0.3910	 3.4290
 0.3920	 3.4480
 0.3930	 3.4370
 0.3940	 3.3980
 0.3950	 3.3880
 0.3960	 3.4620
 0.3970	 3.5650
 0.3980	 3.6020
 0.3990	 3.6580
 0.4000	 3.6910
 0.4010	 3.7000
 0.4020	 3.7490
 0.4030	 3.7660
 0.4040	 3.7920
 0.4050	 3.8690
 0.4060	 3.9300
 0.4070	 3.9620
 0.4080	 3.9830
 0.4090	 4.0240
 0.4100	 4.0900
 0.4110	 4.1610
 0.4120	 4.2300
 0.4130	 4.3240
 0.4140	 4.3750
 0.4150	 4.3950
 0.4160	 4.4270
 0.4170	 4.4900
 0.4180	 4.5640
 0.4190	 4.6330
 0.4200	 4.6810
 0.4210	 4.7250
 0.4220	 4.7800
 0.4230	 4.8420
 0.4240	 4.8670
 0.4250	 4.9090
 0.4260	 4.9640
 0.4270	 4.9960
 0.4280	 5.0080
 0.4290	 5.0320
 0.4300	 5.0770
 0.4310	 5.1160
 0.4320	 5.1580
 0.4330	 5.1970
 0.4340	 5.2260
 0.4350	 5.2370
 0.4360	 5.2500
 0.4370	 5.2720
 0.4380	 5.3010
 0.4390	 5.3210
 0.4400	 5.3280
 0.4410	 5.3270
 0.4420	 5.3280
 0.4430	 5.3310
 0.4440	 5.3400
 0.4450	 5.3580
 0.4460	 5.3730
 0.4470	 5.3820
 0.4480	 5.3920
 0.4490	 5.4150
 0.4500	 5.4320
 0.4510	 5.4410
 0.4520	 5.4460
 0.4530	 5.4550
 0.4540	 5.4700
 0.4550	 5.4840
 0.4560	 5.4900
 0.4570	 5.4820
 0.4580	 5.4900
 0.4590	 5.5160
 0.4600	 5.5080
 0.4610	 5.5100
 0.4620	 5.5210
 0.4630	 5.5290
 0.4640	 5.5340
 0.4650	 5.5420
 0.4660	 5.5490
 0.4670	 5.5430
 0.4680	 5.5510
 0.4690	 5.5580
 0.4700	 5.5510
 0.4710	 5.5510
 0.4720	 5.5520
 0.4730	 5.5550
 0.4740	 5.5590
 0.4750	 5.5660
 0.4760	 5.5660
 0.4770	 5.5600
 0.4780	 5.5650
 0.4790	 5.5700
 0.4800	 5.5750
 0.4810	 5.5790
 0.4820	 5.5770
 0.4830	 5.5870
 0.4840	 5.6040
 0.4850	 5.6060
 0.4860	 5.6160
 0.4870	 5.6310
 0.4880	 5.6410
 0.4890	 5.6360
 0.4900	 5.6560
 0.4910	 5.6890
 0.4920	 5.7040
 0.4930	 5.7150
 0.4940	 5.7240
 0.4950	 5.7390
 0.4960	 5.7730
 0.4970	 5.8030
 0.4980	 5.8330
 0.4990	 5.8730
 0.5000	 5.9140
 0.5010	 5.9560
 0.5020	 6.0030
 0.5030	 6.0610
 0.5040	 6.1350
 0.5050	 6.2130
 0.5060	 6.2900
 0.5070	 6.3870
 0.5080	 6.4900
 0.5090	 6.6030
 0.5100	 6.7350
 0.5110	 6.8720
 0.5120	 7.0220
 0.5130	 7.1900
 0.5140	 7.3680
 0.5150	 7.5620
 0.5160	 7.7740
 0.5170	 8.0010
 0.5180	 8.2250
 0.5190	 8.4580
 0.5200	 8.7040
 0.5210	 8.9630
 0.5220	 9.2250
 0.5230	 9.4830
 0.5240	 9.7370
 0.5250	 9.9900
 0.5260	10.2330
 0.5270	10.4650
 0.5280	10.6880
 0.5290	10.8960
 0.5300	11.0910
 0.5310	11.2790
 0.5320	11.4620
 0.5330	11.6240
 0.5340	11.7750
 0.5350	11.9200
 0.5360	12.0450
 0.5370	12.1660
 0.5380	12.2830
 0.5390	12.3900
 0.5400	12.4930
 0.5410	12.6020
 0.5420	12.7160
 0.5430	12.8170
 0.5440	12.9040
 0.5450	12.9830
 0.5460	13.0590
 0.5470	13.1100
 0.5480	13.1540
 0.5490	13.2010
 0.5500	13.2520
 0.5510	13.2880
 0.5520	13.3110
 0.5530	13.3220
 0.5540	13.3130
 0.5550	13.2910
 0.5560	13.2540
 0.5570	13.2000
 0.5580	13.1280
 0.5590	13.0440
 0.5600	12.9500
 0.5610	12.8530
 0.5620	12.7440
 0.5630	12.6250
 0.5640	12.5010
 0.5650	12.3680
 0.5660	12.2310
 0.5670	12.0910
 0.5680	11.9410
 0.5690	11.7830
 0.5700	11.6220
 0.5710	11.4640
 0.5720	11.3110
 0.5730	11.1610
 0.5740	11.0170
 0.5750	10.8840
 0.5760	10.7630
 0.5770	10.6490
 0.5780	10.5400
 0.5790	10.4340
 0.5800	10.3290
 0.5810	10.2310
 0.5820	10.1450
 0.5830	10.0590
 0.5840	 9.9760
 0.5850	 9.8980
 0.5860	 9.8230
 0.5870	 9.7560
 0.5880	 9.6930
 0.5890	 9.6330
 0.5900	 9.5800
 0.5910	 9.5370
 0.5920	 9.5030
 0.5930	 9.4720
 0.5940	 9.4420
 0.5950	 9.4140
 0.5960	 9.3870
 0.5970	 9.3600
 0.5980	 9.3290
 0.5990	 9.2950
 0.6000	 9.2570
 0.6010	 9.2130
 0.6020	 9.1710
 0.6030	 9.1280
 0.6040	 9.0750
 0.6050	 9.0170
 0.6060	 8.9540
 0.6070	 8.8850
 0.6080	 8.8130
 0.6090	 8.7380
 0.6100	 8.6700
 0.6110	 8.6150
 0.6120	 8.5350
 0.6130	 8.4410
 0.6140	 8.3460
 0.6150	 8.2580
 0.6160	 8.1790
 0.6170	 8.1070
 0.6180	 8.0400
 0.6190	 7.9840
 0.6200	 7.9320
 0.6210	 7.8850
 0.6220	 7.8460
 0.6230	 7.8130
 0.6240	 7.7810
 0.6250	 7.7520
 0.6260	 7.7350
 0.6270	 7.7220
 0.6280	 7.7110
 0.6290	 7.7000
 0.6300	 7.6910
 0.6310	 7.6820
 0.6320	 7.6710
 0.6330	 7.6530
 0.6340	 7.6310
 0.6350	 7.5990
 0.6360	 7.5540
 0.6370	 7.5050
 0.6380	 7.4450
 0.6390	 7.3740
 0.6400	 7.2990
 0.6410	 7.2210
 0.6420	 7.1390
 0.6430	 7.0550
 0.6440	 6.9710
 0.6450	 6.8860
 0.6460	 6.8040
 0.6470	 6.7320
 0.6480	 6.6650
 0.6490	 6.6060
 0.6500	 6.5550
 0.6510	 6.5130
 0.6520	 6.4760
 0.6530	 6.4410
 0.6540	 6.4040
 0.6550	 6.3650
 0.6560	 6.3230
 0.6570	 6.2760
 0.6580	 6.2280
 0.6590	 6.1800
 0.6600	 6.1290
 0.6610	 6.0750
 0.6620	 6.0180
 0.6630	 5.9680
 0.6640	 5.9230
 0.6650	 5.8810
 0.6660	 5.8460
 0.6670	 5.8190
 0.6680	 5.7990
 0.6690	 5.7800
 0.6700	 5.7640
 0.6710	 5.7510
 0.6720	 5.7440
 0.6730	 5.7470
 0.6740	 5.7510
 0.6750	 5.7580
 0.6760	 5.7670
 0.6770	 5.7760
 0.6780	 5.7920
 0.6790	 5.8130
 0.6800	 5.8340
 0.6810	 5.8620
 0.6820	 5.8990
 0.6830	 5.9490
 0.6840	 6.0090
 0.6850	 6.0860
 0.6860	 6.1820
 0.6870	 6.3000
 0.6880	 6.4540
 0.6890	 6.6510
 0.6900	 6.9030
 0.6910	 7.2240
 0.6920	 7.6090
 0.6930	 8.0700
 0.6940	 8.6140
 0.6950	 9.2300
 0.6960	 9.9180
 0.6970	10.6750
 0.6980	11.4940
 0.6990	12.3610
 0.7000	13.2720
 0.7010	14.2150
 0.7020	15.1720
 0.7030	16.1430
 0.7040	17.1190
 0.7050	18.0920
 0.7060	19.0600
 0.7070	20.0240
 0.7080	20.9790
 0.7090	21.9200
 0.7100	22.8520
 0.7110	23.7820
 0.7120	24.7070
 0.7130	25.6190
 0.7140	26.5260
 0.7150	27.4300
 0.7160	28.3250
 0.7170	29.2020
 0.7180	30.0690
 0.7190	30.9280
 0.7200	31.7740
 0.7210	32.6060
 0.7220	33.4190
 0.7230	34.2110
 0.7240	34.9810
 0.7250	35.7280
 0.7260	36.4490
 0.7270	37.1440
 0.7280	37.8130
 0.7290	38.4530
 0.7300	39.0650
 0.7310	39.6520
 0.7320	40.2080
 0.7330	40.7380
 0.7340	41.2400
 0.7350	41.7110
 0.7360	42.1650
 0.7370	42.5940
 0.7380	42.9910
 0.7390	43.3670
 0.7400	43.7160
 0.7410	44.0430
 0.7420	44.3570
 0.7430	44.6440
 0.7440	44.9100
 0.7450	45.1580
 0.7460	45.3890
 0.7470	45.6080
 0.7480	45.8060
 0.7490	45.9810
 0.7500	46.1530
 0.7510	46.3140
 0.7520	46.4600
 0.7530	46.5940
 0.7540	46.7270
 0.7550	46.8450
 0.7560	46.9430
 0.7570	47.0310
 0.7580	47.1220
 0.7590	47.2080
 0.7600	47.2830
 0.7610	47.3600
 0.7620	47.4280
 0.7630	47.4900
 0.7640	47.5530
 0.7650	47.6050
 0.7660	47.6570
 0.7670	47.7080
 0.7680	47.7560
 0.7690	47.7960
 0.7700	47.8330
 0.7710	47.8720
 0.7720	47.9110
 0.7730	47.9510
 0.7740	47.9840
 0.7750	48.0100
 0.7760	48.0400
 0.7770	48.0790
 0.7780	48.1180
 0.7790	48.1470
 0.7800	48.1720
 0.7810	48.1960
 0.7820	48.2190
 0.7830	48.2500
 0.7840	48.2820
 0.7850	48.3110
 0.7860	48.3350
 0.7870	48.3670
 0.7880	48.3910
 0.7890	48.4110
 0.7900	48.4350
 0.7910	48.4560
 0.7920	48.4780
 0.7930	48.5000
 0.7940	48.5170
 0.7950	48.5360
 0.7960	48.5510
 0.7970	48.5670
 0.7980	48.5920
 0.7990	48.6130
 0.8000	48.6250
 0.8010	48.6300
 0.8020	48.6410
 0.8030	48.6570
 0.8040	48.6710
 0.8050	48.6780
 0.8060	48.6900
 0.8070	48.6980
 0.8080	48.7040
 0.8090	48.7140
 0.8100	48.7230
 0.8110	48.7300
 0.8120	48.7370
 0.8130	48.7400
 0.8140	48.7390
 0.8150	48.7390
 0.8160	48.7430
 0.8170	48.7540
 0.8180	48.7540
 0.8190	48.7470
 0.8200	48.7490
 0.8210	48.7570
 0.8220	48.7600
 0.8230	48.7550
 0.8240	48.7500
 0.8250	48.7490
 0.8260	48.7450
 0.8270	48.7390
 0.8280	48.7440
 0.8290	48.7410
 0.8300	48.7350
 0.8310	48.7310
 0.8320	48.7240
 0.8330	48.7150
 0.8340	48.7100
 0.8350	48.7100
 0.8360	48.7150
 0.8370	48.7040
 0.8380	48.6870
 0.8390	48.6910
 0.8400	48.6980
 0.8410	48.6970
 0.8420	48.6890
 0.8430	48.6960
 0.8440	48.6990
 0.8450	48.6970
 0.8460	48.6940
 0.8470	48.6950
 0.8480	48.6930
 0.8490	48.6930
 0.8500	48.7000
 0.8510	48.7080
 0.8520	48.7070
 0.8530	48.7030
 0.8540	48.7100
 0.8550	48.7110
 0.8560	48.7050
 0.8570	48.6980
 0.8580	48.7060
 0.8590	48.7190
 0.8600	48.7270
 0.8610	48.7240
 0.8620	48.7160
 0.8630	48.7160
 0.8640	48.7180
 0.8650	48.7160
 0.8660	48.7250
 0.8670	48.7330
 0.8680	48.7380
 0.8690	48.7440
 0.8700	48.7450
 0.8710	48.7490
 0.8720	48.7540
 0.8730	48.7570
 0.8740	48.7690
 0.8750	48.7730
 0.8760	48.7700
 0.8770	48.7710
 0.8780	48.7760
 0.8790	48.7870
 0.8800	48.7960
 0.8810	48.7890
 0.8820	48.7980
 0.8830	48.8110
 0.8840	48.8160
 0.8850	48.8170
 0.8860	48.8150
 0.8870	48.8140
 0.8880	48.8190
 0.8890	48.8300
 0.8900	48.8360
 0.8910	48.8380
 0.8920	48.8410
 0.8930	48.8510
 0.8940	48.8610
 0.8950	48.8650
 0.8960	48.8610
 0.8970	48.8570
 0.8980	48.8610
 0.8990	48.8710
 0.9000	48.8770
 0.9010	48.8830
 0.9020	48.8910
 0.9030	48.8990
 0.9040	48.8990
 0.9050	48.9130
 0.9060	48.9190
 0.9070	48.9070
 0.9080	48.9030
 0.9090	48.9140
 0.9100	48.9260
 0.9110	48.9280
 0.9120	48.9260
 0.9130	48.9330
 0.9140	48.9360
 0.9150	48.9290
 0.9160	48.9380
 0.9170	48.9420
 0.9180	48.9380
 0.9190	48.9330
 0.9200	48.9340
 0.9210	48.9350
 0.9220	48.9340
 0.9230	48.9290
 0.9240	48.9240
 0.9250	48.9160
 0.9260	48.9100
 0.9270	48.9130
 0.9280	48.8950
 0.9290	48.8820
 0.9300	48.8800
 0.9310	48.8660
 0.9320	48.8380
 0.9330	48.8130
 0.9340	48.7970
 0.9350	48.7720
 0.9360	48.7670
 0.9370	48.7500
 0.9380	48.7170
 0.9390	48.7100
 0.9400	48.6870
 0.9410	48.6510
 0.9420	48.6160
 0.9430	48.5980
 0.9440	48.5770
 0.9450	48.5380
 0.9460	48.4810
 0.9470	48.4460
 0.9480	48.4100
 0.9490	48.3610
 0.9500	48.3030
 0.9510	48.2710
 0.9520	48.2280
 0.9530	48.1570
 0.9540	48.0670
 0.9550	48.0170
 0.9560	47.9670
 0.9570	47.9110
 0.9580	47.8500
 0.9590	47.7890
 0.9600	47.7410
 0.9610	47.7030
 0.9620	47.6650
 0.9630	47.6360
 0.9640	47.6120
 0.9650	47.5820
 0.9660	47.5440
 0.9670	47.5370
 0.9680	47.5270
 0.9690	47.5120
 0.9700	47.5010
 0.9710	47.4980
 0.9720	47.4720
 0.9730	47.4450
 0.9740	47.4500
 0.9750	47.4340
 0.9760	47.4340
 0.9770	47.4430
 0.9780	47.4380
 0.9790	47.4320
 0.9800	47.4360
 0.9810	47.4420
 0.9820	47.4360
 0.9830	47.4460
 0.9840	47.4510
 0.9850	47.4480
 0.9860	47.4500
 0.9870	47.4620
 0.9880	47.4920
 0.9890	47.5200
 0.9900	47.5240
 0.9910	47.5270
 0.9920	47.5810
 0.9930	47.6340
 0.9940	47.6880
 0.9950	47.7420
 0.9960	47.7960
 0.9970	47.8500
 0.9980	47.9040
 0.9990	47.9570
 1.0000	48.0110
 1.0010	48.0650
 1.0020	48.1190
 1.0030	48.1730
 1.0040	48.2270
 1.0050	48.2800
 1.0060	48.3340
 1.0070	48.3880
 1.0080	48.4420
 1.0090	48.4960
 1.0100	48.4960
 1.0110	48.5230
 1.0120	48.5450
 1.0130	48.5630
 1.0140	48.5840
 1.0150	48.6060
 1.0160	48.6270
 1.0170	48.6450
 1.0180	48.6650
 1.0190	48.6810
 1.0200	48.6970
 1.0210	48.7210
 1.0220	48.7420
 1.0230	48.7610
 1.0240	48.7790
 1.0250	48.7990
 1.0260	48.8150
 1.0270	48.8320
 1.0280	48.8520
 1.0290	48.8700
 1.0300	48.8840
 1.0310	48.9020
 1.0320	48.9220
 1.0330	48.9400
 1.0340	48.9590
 1.0350	48.9730
 1.0360	48.9830
 1.0370	48.9980
 1.0380	49.0150
 1.0390	49.0340
 1.0400	49.0510
 1.0410	49.0700
 1.0420	49.0850
 1.0430	49.0970
 1.0440	49.1100
 1.0450	49.1250
 1.0460	49.1380
 1.0470	49.1500
 1.0480	49.1610
 1.0490	49.1700
 1.0500	49.1800
 1.0510	49.1890
 1.0520	49.2040
 1.0530	49.2150
 1.0540	49.2280
 1.0550	49.2360
 1.0560	49.2390
 1.0570	49.2450
 1.0580	49.2480
 1.0590	49.2520
 1.0600	49.2540
 1.0610	49.2610
 1.0620	49.2710
 1.0630	49.2790
 1.0640	49.2940
 1.0650	49.3010
 1.0660	49.3000
 1.0670	49.3020
 1.0680	49.3030
 1.0690	49.3020
 1.0700	49.3030
 1.0710	49.3050
 1.0720	49.3070
 1.0730	49.3080
 1.0740	49.3100
 1.0750	49.3150
 1.0760	49.3140
 1.0770	49.3090
 1.0780	49.3060
 1.0790	49.2960
 1.0800	49.2920
 1.0810	49.2930
 1.0820	49.2900
 1.0830	49.2860
 1.0840	49.2820
 1.0850	49.2750
 1.0860	49.2690
 1.0870	49.2650
 1.0880	49.2620
 1.0890	49.2560
 1.0900	49.2490
 1.0910	49.2430
 1.0920	49.2370
 1.0930	49.2280
 1.0940	49.2180
 1.0950	49.2080
 1.0960	49.1930
 1.0970	49.1840
 1.0980	49.1810
 1.0990	49.1730
 1.1000	49.1650
 1.1010	49.1550
 1.1020	49.1410
 1.1030	49.1280
 1.1040	49.1160
 1.1050	49.1040
 1.1060	49.0910
 1.1070	49.0770
 1.1080	49.0630
 1.1090	49.0450
 1.1100	49.0300
 1.1110	49.0160
 1.1120	49.0000
 1.1130	48.9810
 1.1140	48.9630
 1.1150	48.9450
 1.1160	48.9250
 1.1170	48.9040
 1.1180	48.8820
 1.1190	48.8590
 1.1200	48.8310
 1.1210	48.8020
 1.1220	48.7710
 1.1230	48.7360
 1.1240	48.6980
 1.1250	48.6550
 1.1260	48.6110
 1.1270	48.5580
 1.1280	48.5000
 1.1290	48.4340
 1.1300	48.3620
 1.1310	48.2830
 1.1320	48.1970
 1.1330	48.1050
 1.1340	48.0070
 1.1350	47.9030
 1.1360	47.7920
 1.1370	47.6750
 1.1380	47.5520
 1.1390	47.4230
 1.1400	47.2880
 1.1410	47.1510
 1.1420	47.0110
 1.1430	46.8660
 1.1440	46.7210
 1.1450	46.5710
 1.1460	46.4280
 1.1470	46.2860
 1.1480	46.1500
 1.1490	46.0150
 1.1500	45.8900
 1.1510	45.7650
 1.1520	45.6530
 1.1530	45.5500
 1.1540	45.4550
 1.1550	45.3690
 1.1560	45.2920
 1.1570	45.2210
 1.1580	45.1600
 1.1590	45.1050
 1.1600	45.0550
 1.1610	45.0150
 1.1620	44.9770
 1.1630	44.9430
 1.1640	44.9170
 1.1650	44.8930
 1.1660	44.8720
 1.1670	44.8550
 1.1680	44.8440
 1.1690	44.8300
 1.1700	44.8180
 1.1710	44.8070
 1.1720	44.7960
 1.1730	44.7850
 1.1740	44.7750
 1.1750	44.7670
 1.1760	44.7560
 1.1770	44.7460
 1.1780	44.7340
 1.1790	44.7210
 1.1800	44.7100
 1.1810	44.6970
 1.1820	44.6850
 1.1830	44.6700
 1.1840	44.6550
 1.1850	44.6420
 1.1860	44.6280
 1.1870	44.6170
 1.1880	44.6070
 1.1890	44.5970
 1.1900	44.5880
 1.1910	44.5820
 1.1920	44.5760
 1.1930	44.5690
 1.1940	44.5640
 1.1950	44.5610
 1.1960	44.5600
 1.1970	44.5590
 1.1980	44.5620
 1.1990	44.5660
 1.2000	44.5690
 1.2010	44.5740
 1.2020	44.5820
 1.2030	44.5910
 1.2040	44.6020
 1.2050	44.6150
 1.2060	44.6310
 1.2070	44.6480
 1.2080	44.6650
 1.2090	44.6830
 1.2100	44.7010
 1.2110	44.7210
 1.2120	44.7410
 1.2130	44.7630
 1.2140	44.7860
 1.2150	44.8090
 1.2160	44.8330
 1.2170	44.8550
 1.2180	44.8780
 1.2190	44.9030
 1.2200	44.9260
 1.2210	44.9520
 1.2220	44.9780
 1.2230	45.0030
 1.2240	45.0320
 1.2250	45.0600
 1.2260	45.0860
 1.2270	45.1120
 1.2280	45.1330
 1.2290	45.1540
 1.2300	45.1760
 1.2310	45.1980
 1.2320	45.2210
 1.2330	45.2420
 1.2340	45.2630
 1.2350	45.2810
 1.2360	45.2990
 1.2370	45.3170
 1.2380	45.3350
 1.2390	45.3520
 1.2400	45.3690
 1.2410	45.3850
 1.2420	45.4010
 1.2430	45.4170
 1.2440	45.4350
 1.2450	45.4520
 1.2460	45.4650
 1.2470	45.4810
 1.2480	45.4940
 1.2490	45.5060
 1.2500	45.5200
 1.2510	45.5320
 1.2520	45.5420
 1.2530	45.5520
 1.2540	45.5590
 1.2550	45.5660
 1.2560	45.5720
 1.2570	45.5770
 1.2580	45.5820
 1.2590	45.5880
 1.2600	45.5940
 1.2610	45.5980
 1.2620	45.6030
 1.2630	45.6040
 1.2640	45.6030
 1.2650	45.6010
 1.2660	45.5990
 1.2670	45.5960
 1.2680	45.5920
 1.2690	45.5860
 1.2700	45.5800
 1.2710	45.5730
 1.2720	45.5630
 1.2730	45.5530
 1.2740	45.5430
 1.2750	45.5310
 1.2760	45.5190
 1.2770	45.5070
 1.2780	45.4910
 1.2790	45.4730
 1.2800	45.4540
 1.2810	45.4320
 1.2820	45.4110
 1.2830	45.3910
 1.2840	45.3690
 1.2850	45.3470
 1.2860	45.3240
 1.2870	45.2970
 1.2880	45.2660
 1.2890	45.2350
 1.2900	45.2020
 1.2910	45.1660
 1.2920	45.1290
 1.2930	45.0890
 1.2940	45.0480
 1.2950	45.0060
 1.2960	44.9620
 1.2970	44.9160
 1.2980	44.8690
 1.2990	44.8180
 1.3000	44.7640
 1.3010	44.7050
 1.3020	44.6410
 1.3030	44.5760
 1.3040	44.5090
 1.3050	44.4410
 1.3060	44.3740
 1.3070	44.3010
 1.3080	44.2260
 1.3090	44.1470
 1.3100	44.0640
 1.3110	43.9780
 1.3120	43.8870
 1.3130	43.7960
 1.3140	43.7010
 1.3150	43.6020
 1.3160	43.5000
 1.3170	43.3970
 1.3180	43.2870
 1.3190	43.1760
 1.3200	43.0650
 1.3210	42.9460
 1.3220	42.8240
 1.3230	42.7000
 1.3240	42.5720
 1.3250	42.4440
 1.3260	42.3140
 1.3270	42.1780
 1.3280	42.0420
 1.3290	41.9060
 1.3300	41.7680
 1.3310	41.6300
 1.3320	41.4900
 1.3330	41.3450
 1.3340	41.1980
 1.3350	41.0490
 1.3360	40.9000
 1.3370	40.7540
 1.3380	40.6080
 1.3390	40.4620
 1.3400	40.3170
 1.3410	40.1730
 1.3420	40.0290
 1.3430	39.8860
 1.3440	39.7450
 1.3450	39.6040
 1.3460	39.4620
 1.3470	39.3260
 1.3480	39.1910
 1.3490	39.0580
 1.3500	38.9270
 1.3510	38.7950
 1.3520	38.6620
 1.3530	38.5300
 1.3540	38.3960
 1.3550	38.2640
 1.3560	38.1310
 1.3570	37.9980
 1.3580	37.8650
 1.3590	37.7280
 1.3600	37.5890
 1.3610	37.4470
 1.3620	37.3010
 1.3630	37.1480
 1.3640	36.9880
 1.3650	36.8180
 1.3660	36.6410
 1.3670	36.4540
 1.3680	36.2570
 1.3690	36.0480
 1.3700	35.8230
 1.3710	35.5830
 1.3720	35.3280
 1.3730	35.0550
 1.3740	34.7670
 1.3750	34.4600
 1.3760	34.1300
 1.3770	33.7760
 1.3780	33.3940
 1.3790	32.9900
 1.3800	32.5640
 1.3810	32.1130
 1.3820	31.6440
 1.3830	31.1550
 1.3840	30.6460
 1.3850	30.1160
 1.3860	29.5710
 1.3870	29.0030
 1.3880	28.4330
 1.3890	27.8490
 1.3900	27.2580
 1.3910	26.6700
 1.3920	26.0760
 1.3930	25.4800
 1.3940	24.8900
 1.3950	24.2980
 1.3960	23.7170
 1.3970	23.1480
 1.3980	22.5900
 1.3990	22.0540
 1.4000	21.5350
 1.4010	21.0310
 1.4020	20.5520
 1.4030	20.0880
 1.4040	19.6470
 1.4050	19.2300
 1.4060	18.8340
 1.4070	18.4650
 1.4080	18.1190
 1.4090	17.7920
 1.4100	17.4870
 1.4110	17.2020
 1.4120	16.9370
 1.4130	16.6920
 1.4140	16.4650
 1.4150	16.2570
 1.4160	16.0660
 1.4170	15.8900
 1.4180	15.7290
 1.4190	15.5800
 1.4200	15.4440
 1.4210	15.3200
 1.4220	15.2070
 1.4230	15.1060
 1.4240	15.0140
 1.4250	14.9300
 1.4260	14.8550
 1.4270	14.7870
 1.4280	14.7290
 1.4290	14.6740
 1.4300	14.6270
 1.4310	14.5840
 1.4320	14.5480
 1.4330	14.5160
 1.4340	14.4900
 1.4350	14.4670
 1.4360	14.4480
 1.4370	14.4320
 1.4380	14.4190
 1.4390	14.4100
 1.4400	14.4040
 1.4410	14.4010
 1.4420	14.4000
 1.4430	14.4020
 1.4440	14.4050
 1.4450	14.4100
 1.4460	14.4150
 1.4470	14.4230
 1.4480	14.4320
 1.4490	14.4430
 1.4500	14.4570
 1.4510	14.4710
 1.4520	14.4870
 1.4530	14.5030
 1.4540	14.5220
 1.4550	14.5430
 1.4560	14.5650
 1.4570	14.5890
 1.4580	14.6180
 1.4590	14.6490
 1.4600	14.6830
 1.4610	14.7220
 1.4620	14.7640
 1.4630	14.8110
 1.4640	14.8620
 1.4650	14.9190
 1.4660	14.9800
 1.4670	15.0450
 1.4680	15.1180
 1.4690	15.1940
 1.4700	15.2730
 1.4710	15.3570
 1.4720	15.4440
 1.4730	15.5330
 1.4740	15.6280
 1.4750	15.7260
 1.4760	15.8270
 1.4770	15.9310
 1.4780	16.0360
 1.4790	16.1450
 1.4800	16.2540
 1.4810	16.3650
 1.4820	16.4780
 1.4830	16.5920
 1.4840	16.7080
 1.4850	16.8250
 1.4860	16.9430
 1.4870	17.0630
 1.4880	17.1810
 1.4890	17.2990
 1.4900	17.4190
 1.4910	17.5400
 1.4920	17.6620
 1.4930	17.7870
 1.4940	17.9100
 1.4950	18.0360
 1.4960	18.1600
 1.4970	18.2830
 1.4980	18.4070
 1.4990	18.5310
 1.5000	18.6560
 1.5010	18.7820
 1.5020	18.9070
 1.5030	19.0340
 1.5040	19.1590
 1.5050	19.2830
 1.5060	19.4070
 1.5070	19.5300
 1.5080	19.6540
 1.5090	19.7780
 1.5100	19.9020
 1.5110	20.0270
 1.5120	20.1500
 1.5130	20.2710
 1.5140	20.3940
 1.5150	20.5150
 1.5160	20.6330
 1.5170	20.7540
 1.5180	20.8730
 1.5190	20.9910
 1.5200	21.1100
 1.5210	21.2260
 1.5220	21.3430
 1.5230	21.4600
 1.5240	21.5760
 1.5250	21.6920
 1.5260	21.8060
 1.5270	21.9180
 1.5280	22.0300
 1.5290	22.1400
 1.5300	22.2500
 1.5310	22.3600
 1.5320	22.4680
 1.5330	22.5760
 1.5340	22.6830
 1.5350	22.7890
 1.5360	22.8940
 1.5370	22.9980
 1.5380	23.1020
 1.5390	23.2050
 1.5400	23.3060
 1.5410	23.4090
 1.5420	23.5090
 1.5430	23.6080
 1.5440	23.7070
 1.5450	23.8030
 1.5460	23.8980
 1.5470	23.9940
 1.5480	24.0880
 1.5490	24.1820
 1.5500	24.2760
 1.5510	24.3690
 1.5520	24.4600
 1.5530	24.5520
 1.5540	24.6430
 1.5550	24.7330
 1.5560	24.8220
 1.5570	24.9080
 1.5580	24.9930
 1.5590	25.0780
 1.5600	25.1640
 1.5610	25.2480
 1.5620	25.3310
 1.5630	25.4120
 1.5640	25.4910
 1.5650	25.5710
 1.5660	25.6510
 1.5670	25.7300
 1.5680	25.8090
 1.5690	25.8860
 1.5700	25.9610
 1.5710	26.0370
 1.5720	26.1110
 1.5730	26.1840
 1.5740	26.2570
 1.5750	26.3290
 1.5760	26.4030
 1.5770	26.4750
 1.5780	26.5460
 1.5790	26.6160
 1.5800	26.6850
 1.5810	26.7540
 1.5820	26.8230
 1.5830	26.8910
 1.5840	26.9590
 1.5850	27.0250
 1.5860	27.0910
 1.5870	27.1560
 1.5880	27.2210
 1.5890	27.2860
 1.5900	27.3500
 1.5910	27.4120
 1.5920	27.4750
 1.5930	27.5370
 1.5940	27.5990
 1.5950	27.6610
 1.5960	27.7220
 1.5970	27.7810
 1.5980	27.8410
 1.5990	27.9000
 1.6000	27.9570
 1.6010	28.0150
 1.6020	28.0730
 1.6030	28.1300
 1.6040	28.1860
 1.6050	28.2430
 1.6060	28.2980
 1.6070	28.3520
 1.6080	28.4080
 1.6090	28.4600
 1.6100	28.5100
 1.6110	28.5590
 1.6120	28.6060
 1.6130	28.6550
 1.6140	28.7040
 1.6150	28.7520
 1.6160	28.7970
 1.6170	28.8410
 1.6180	28.8840
 1.6190	28.9260
 1.6200	28.9710
 1.6210	29.0150
 1.6220	29.0560
 1.6230	29.0960
 1.6240	29.1370
 1.6250	29.1750
 1.6260	29.2140
 1.6270	29.2520
 1.6280	29.2870
 1.6290	29.3220
 1.6300	29.3570
 1.6310	29.3920
 1.6320	29.4280
 1.6330	29.4600
 1.6340	29.4920
 1.6350	29.5220
 1.6360	29.5480
 1.6370	29.5740
 1.6380	29.6020
 1.6390	29.6260
 1.6400	29.6500
 1.6410	29.6710
 1.6420	29.6890
 1.6430	29.7060
 1.6440	29.7210
 1.6450	29.7340
 1.6460	29.7450
 1.6470	29.7550
 1.6480	29.7640
 1.6490	29.7710
 1.6500	29.7750
 1.6510	29.7780
 1.6520	29.7780
 1.6530	29.7770
 1.6540	29.7760
 1.6550	29.7750
 1.6560	29.7730
 1.6570	29.7710
 1.6580	29.7700
 1.6590	29.7690
 1.6600	29.7670
 1.6610	29.7680
 1.6620	29.7690
 1.6630	29.7680
 1.6640	29.7710
 1.6650	29.7760
 1.6660	29.7820
 1.6670	29.7900
 1.6680	29.7970
 1.6690	29.8010
 1.6700	29.8040
 1.6710	29.8050
 1.6720	29.8050
 1.6730	29.8030
 1.6740	29.8010
 1.6750	29.7960
 1.6760	29.7880
 1.6770	29.7770
 1.6780	29.7630
 1.6790	29.7460
 1.6800	29.7270
 1.6810	29.7050
 1.6820	29.6790
 1.6830	29.6500
 1.6840	29.6190
 1.6850	29.5840
 1.6860	29.5470
 1.6870	29.5070
 1.6880	29.4660
 1.6890	29.4230
 1.6900	29.3810
 1.6910	29.3400
 1.6920	29.2980
 1.6930	29.2560
 1.6940	29.2130
 1.6950	29.1700
 1.6960	29.1250
 1.6970	29.0810
 1.6980	29.0350
 1.6990	28.9870
 1.7000	28.9400
 1.7010	28.8930
 1.7020	28.8450
 1.7030	28.7980
 1.7040	28.7490
 1.7050	28.6990
 1.7060	28.6480
 1.7070	28.5960
 1.7080	28.5450
 1.7090	28.4940
 1.7100	28.4440
 1.7110	28.3930
 1.7120	28.3470
 1.7130	28.2970
 1.7140	28.2500
 1.7150	28.2030
 1.7160	28.1530
 1.7170	28.1050
 1.7180	28.0580
 1.7190	28.0110
 1.7200	27.9660
 1.7210	27.9210
 1.7220	27.8760
 1.7230	27.8320
 1.7240	27.7860
 1.7250	27.7410
 1.7260	27.6990
 1.7270	27.6560
 1.7280	27.6170
 1.7290	27.5780
 1.7300	27.5390
 1.7310	27.5000
 1.7320	27.4600
 1.7330	27.4210
 1.7340	27.3830
 1.7350	27.3430
 1.7360	27.3060
 1.7370	27.2640
 1.7380	27.2180
 1.7390	27.1720
 1.7400	27.1230
 1.7410	27.0730
 1.7420	27.0220
 1.7430	26.9690
 1.7440	26.9130
 1.7450	26.8570
 1.7460	26.7990
 1.7470	26.7410
 1.7480	26.6840
 1.7490	26.6250
 1.7500	26.5660
 1.7510	26.5050
 1.7520	26.4400
 1.7530	26.3780
 1.7540	26.3150
 1.7550	26.2530
 1.7560	26.1910
 1.7570	26.1300
 1.7580	26.0700
 1.7590	26.0110
 1.7600	25.9540
 1.7610	25.8960
 1.7620	25.8410
 1.7630	25.7900
 1.7640	25.7390
 1.7650	25.6890
 1.7660	25.6400
 1.7670	25.5920
 1.7680	25.5460
 1.7690	25.5060
 1.7700	25.4630
 1.7710	25.4200
 1.7720	25.3770
 1.7730	25.3330
 1.7740	25.2920
 1.7750	25.2540
 1.7760	25.2180
 1.7770	25.1840
 1.7780	25.1500
 1.7790	25.1180
 1.7800	25.0880
 1.7810	25.0600
 1.7820	25.0340
 1.7830	25.0100
 1.7840	24.9860
 1.7850	24.9620
 1.7860	24.9400
 1.7870	24.9200
 1.7880	24.9040
 1.7890	24.8920
 1.7900	24.8810
 1.7910	24.8700
 1.7920	24.8560
 1.7930	24.8460
 1.7940	24.8360
 1.7950	24.8290
 1.7960	24.8260
 1.7970	24.8230
 1.7980	24.8210
 1.7990	24.8200
 1.8000	24.8200
 1.8010	24.8220
 1.8020	24.8270
 1.8030	24.8310
 1.8040	24.8350
 1.8050	24.8380
 1.8060	24.8400
 1.8070	24.8420
 1.8080	24.8420
 1.8090	24.8440
 1.8100	24.8460
 1.8110	24.8480
 1.8120	24.8530
 1.8130	24.8570
 1.8140	24.8570
 1.8150	24.8580
 1.8160	24.8600
 1.8170	24.8570
 1.8180	24.8570
 1.8190	24.8520
 1.8200	24.8490
 1.8210	24.8480
 1.8220	24.8430
 1.8230	24.8370
 1.8240	24.8300
 1.8250	24.8200
 1.8260	24.8120
 1.8270	24.7450
 1.8280	24.6790
 1.8290	24.6120
 1.8300	24.5460
 1.8310	24.4790
 1.8320	24.4130
 1.8330	24.3460
 1.8340	24.2800
 1.8350	24.2800
 1.8360	24.2440
 1.8370	24.2020
 1.8380	24.1570
 1.8390	24.1040
 1.8400	24.0430
 1.8410	23.9770
 1.8420	23.9070
 1.8430	23.8280
 1.8440	23.7440
 1.8450	23.6570
 1.8460	23.5560
 1.8470	23.4470
 1.8480	23.3320
 1.8490	23.2040
 1.8500	23.0670
 1.8510	22.9220
 1.8520	22.7680
 1.8530	22.5960
 1.8540	22.4150
 1.8550	22.2270
 1.8560	22.0250
 1.8570	21.8090
 1.8580	21.5770
 1.8590	21.3340
 1.8600	21.0780
 1.8610	20.8070
 1.8620	20.5200
 1.8630	20.2230
 1.8640	19.9090
 1.8650	19.5760
 1.8660	19.2310
 1.8670	18.8660
 1.8680	18.4870
 1.8690	18.0910
 1.8700	17.6800
 1.8710	17.2530
 1.8720	16.8210
 1.8730	16.3760
 1.8740	15.9220
 1.8750	15.4660
 1.8760	14.9990
 1.8770	14.5340
 1.8780	14.0690
 1.8790	13.6010
 1.8800	13.1430
 1.8810	12.6910
 1.8820	12.2410
 1.8830	11.7970
 1.8840	11.3630
 1.8850	10.9320
 1.8860	10.5110
 1.8870	10.1070
 1.8880	 9.7170
 1.8890	 9.3480
 1.8900	 8.9960
 1.8910	 8.6640
 1.8920	 8.3470
 1.8930	 8.0520
 1.8940	 7.7750
 1.8950	 7.5210
 1.8960	 7.2880
 1.8970	 7.0710
 1.8980	 6.8760
 1.8990	 6.6970
 1.9000	 6.5330
 1.9010	 6.3880
 1.9020	 6.2540
 1.9030	 6.1350
 1.9040	 6.0310
 1.9050	 5.9400
 1.9060	 5.8570
 1.9070	 5.7840
 1.9080	 5.7180
 1.9090	 5.6600
 1.9100	 5.6090
 1.9110	 5.5630
 1.9120	 5.5280
 1.9130	 5.4950
 1.9140	 5.4660
 1.9150	 5.4380
 1.9160	 5.4170
 1.9170	 5.3980
 1.9180	 5.3820
 1.9190	 5.3720
 1.9200	 5.3610
 1.9210	 5.3500
 1.9220	 5.3420
 1.9230	 5.3360
 1.9240	 5.3330
 1.9250	 5.3320
 1.9260	 5.3370
 1.9270	 5.3420
 1.9280	 5.3460
 1.9290	 5.3530
 1.9300	 5.3620
 1.9310	 5.3690
 1.9320	 5.3790
 1.9330	 5.3890
 1.9340	 5.3990
 1.9350	 5.4110
 1.9360	 5.4250
 1.9370	 5.4380
 1.9380	 5.4530
 1.9390	 5.4700
 1.9400	 5.4870
 1.9410	 5.5040
 1.9420	 5.5250
 1.9430	 5.5460
 1.9440	 5.5680
 1.9450	 5.5910
 1.9460	 5.6150
 1.9470	 5.6430
 1.9480	 5.6680
 1.9490	 5.6910
 1.9500	 5.7170
 1.9510	 5.7430
 1.9520	 5.7680
 1.9530	 5.7970
 1.9540	 5.8290
 1.9550	 5.8590
 1.9560	 5.8890
 1.9570	 5.9200
 1.9580	 5.9520
 1.9590	 5.9840
 1.9600	 6.0170
 1.9610	 6.0520
 1.9620	 6.0870
 1.9630	 6.1230
 1.9640	 6.1610
 1.9650	 6.1980
 1.9660	 6.2370
 1.9670	 6.2760
 1.9680	 6.3160
 1.9690	 6.3560
 1.9700	 6.3970
 1.9710	 6.4350
 1.9720	 6.4760
 1.9730	 6.5170
 1.9740	 6.5610
 1.9750	 6.6030
 1.9760	 6.6460
 1.9770	 6.6910
 1.9780	 6.7360
 1.9790	 6.7840
 1.9800	 6.8350
 1.9810	 6.8840
 1.9820	 6.9340
 1.9830	 6.9840
 1.9840	 7.0310
 1.9850	 7.0820
 1.9860	 7.1330
 1.9870	 7.1850
 1.9880	 7.2360
 1.9890	 7.2890
 1.9900	 7.3410
 1.9910	 7.3940
 1.9920	 7.4480
 1.9930	 7.5050
 1.9940	 7.5600
 1.9950	 7.6140
 1.9960	 7.6700
 1.9970	 7.7280
 1.9980	 7.7850
 1.9990	 7.8420
 2.0000	 7.9000
 2.0010	 7.9570
 2.0020	 8.0120
 2.0030	 8.0690
 2.0040	 8.1250
 2.0050	 8.1820
 2.0060	 8.2400
 2.0070	 8.2970
 2.0080	 8.3530
 2.0090	 8.4100
 2.0100	 8.4650
 2.0110	 8.5200
 2.0120	 8.5730
 2.0130	 8.6290
 2.0140	 8.6840
 2.0150	 8.7390
 2.0160	 8.7960
 2.0170	 8.8500
 2.0180	 8.9030
 2.0190	 8.9550
 2.0200	 9.0080
 2.0210	 9.0600
 2.0220	 9.1130
 2.0230	 9.1670
 2.0240	 9.2190
 2.0250	 9.2700
 2.0260	 9.3190
 2.0270	 9.3660
 2.0280	 9.4150
 2.0290	 9.4620
 2.0300	 9.5080
 2.0310	 9.5550
 2.0320	 9.6000
 2.0330	 9.6450
 2.0340	 9.6920
 2.0350	 9.7360
 2.0360	 9.7780
 2.0370	 9.8200
 2.0380	 9.8590
 2.0390	 9.8990
 2.0400	 9.9400
 2.0410	 9.9800
 2.0420	10.0190
 2.0430	10.0600
 2.0440	10.0990
 2.0450	10.1360
 2.0460	10.1740
 2.0470	10.2110
 2.0480	10.2480
 2.0490	10.2840
 2.0500	10.3210
 2.0510	10.3570
 2.0520	10.3930
 2.0530	10.4270
 2.0540	10.4640
 2.0550	10.5020
 2.0560	10.5400
 2.0570	10.5800
 2.0580	10.6200
 2.0590	10.6590
 2.0600	10.6980
 2.0610	10.7360
 2.0620	10.7730
 2.0630	10.8120
 2.0640	10.8500
 2.0650	10.8880
 2.0660	10.9250
 2.0670	10.9620
 2.0680	10.9940
 2.0690	11.0310
 2.0700	11.0710
 2.0710	11.1100
 2.0720	11.1500
 2.0730	11.1910
 2.0740	11.2310
 2.0750	11.2700
 2.0760	11.3080
 2.0770	11.3460
 2.0780	11.3820
 2.0790	11.4160
 2.0800	11.4500
 2.0810	11.4860
 2.0820	11.5200
 2.0830	11.5520
 2.0840	11.5850
 2.0850	11.6150
 2.0860	11.6480
 2.0870	11.6810
 2.0880	11.7140
 2.0890	11.7480
 2.0900	11.7830
 2.0910	11.8170
 2.0920	11.8520
 2.0930	11.8860
 2.0940	11.9190
 2.0950	11.9510
 2.0960	11.9810
 2.0970	12.0130
 2.0980	12.0450
 2.0990	12.0760
 2.1000	12.1060
 2.1010	12.1360
 2.1020	12.1660
 2.1030	12.1950
 2.1040	12.2240
 2.1050	12.2540
 2.1060	12.2830
 2.1070	12.3110
 2.1080	12.3390
 2.1090	12.3640
 2.1100	12.3930
 2.1110	12.4220
 2.1120	12.4500
 2.1130	12.4790
 2.1140	12.5070
 2.1150	12.5310
 2.1160	12.5570
 2.1170	12.5860
 2.1180	12.6130
 2.1190	12.6390
 2.1200	12.6640
 2.1210	12.6870
 2.1220	12.7110
 2.1230	12.7350
 2.1240	12.7590
 2.1250	12.7850
 2.1260	12.8140
 2.1270	12.8370
 2.1280	12.8610
 2.1290	12.8830
 2.1300	12.8980
 2.1310	12.9170
 2.1320	12.9390
 2.1330	12.9590
 2.1340	12.9770
 2.1350	12.9960
 2.1360	13.0120
 2.1370	13.0290
 2.1380	13.0470
 2.1390	13.0650
 2.1400	13.0840
 2.1410	13.1030
 2.1420	13.1220
 2.1430	13.1430
 2.1440	13.1620
 2.1450	13.1790
 2.1460	13.1980
 2.1470	13.2170
 2.1480	13.2370
 2.1490	13.2610
 2.1500	13.2810
 2.1510	13.2990
 2.1520	13.3170
 2.1530	13.3330
 2.1540	13.3500
 2.1550	13.3710
 2.1560	13.3860
 2.1570	13.3970
 2.1580	13.4100
 2.1590	13.4210
 2.1600	13.4340
 2.1610	13.4490
 2.1620	13.4650
 2.1630	13.4800
 2.1640	13.4950
 2.1650	13.5100
 2.1660	13.5250
 2.1670	13.5410
 2.1680	13.5580
 2.1690	13.5750
 2.1700	13.5920
 2.1710	13.6080
 2.1720	13.6220
 2.1730	13.6380
 2.1740	13.6520
 2.1750	13.6680
 2.1760	13.6860
 2.1770	13.7020
 2.1780	13.7150
 2.1790	13.7300
 2.1800	13.7430
 2.1810	13.7600
 2.1820	13.7820
 2.1830	13.8030
 2.1840	13.8230
 2.1850	13.8460
 2.1860	13.8660
 2.1870	13.8840
 2.1880	13.9050
 2.1890	13.9270
 2.1900	13.9490
 2.1910	13.9720
 2.1920	13.9940
 2.1930	14.0160
 2.1940	14.0380
 2.1950	14.0620
 2.1960	14.0850
 2.1970	14.1090
 2.1980	14.1300
 2.1990	14.1500
 2.2000	14.1680
 2.2010	14.1820
 2.2020	14.1980
 2.2030	14.2140
 2.2040	14.2300
 2.2050	14.2490
 2.2060	14.2650
 2.2070	14.2800
 2.2080	14.2940
 2.2090	14.3090
 2.2100	14.3210
 2.2110	14.3350
 2.2120	14.3500
 2.2130	14.3630
 2.2140	14.3740
 2.2150	14.3880
 2.2160	14.4040
 2.2170	14.4140
 2.2180	14.4200
 2.2190	14.4260
 2.2200	14.4280
 2.2210	14.4310
 2.2220	14.4340
 2.2230	14.4350
 2.2240	14.4360
 2.2250	14.4320
 2.2260	14.4220
 2.2270	14.4160
 2.2280	14.4090
 2.2290	14.4010
 2.2300	14.3950
 2.2310	14.3870
 2.2320	14.3720
 2.2330	14.3490
 2.2340	14.3250
 2.2350	14.2960
 2.2360	14.2700
 2.2370	14.2450
 2.2380	14.2170
 2.2390	14.1880
 2.2400	14.1610
 2.2410	14.1340
 2.2420	14.1030
 2.2430	14.0730
 2.2440	14.0380
 2.2450	13.9950
 2.2460	13.9570
 2.2470	13.9190
 2.2480	13.8790
 2.2490	13.8410
 2.2500	13.8010
 2.2510	13.7610
 2.2520	13.7200
 2.2530	13.6800
 2.2540	13.6370
 2.2550	13.5910
 2.2560	13.5480
 2.2570	13.5060
 2.2580	13.4620
 2.2590	13.4200
 2.2600	13.3780
 2.2610	13.3330
 2.2620	13.2910
 2.2630	13.2450
 2.2640	13.1960
 2.2650	13.1490
 2.2660	13.1040
 2.2670	13.0610
 2.2680	13.0240
 2.2690	12.9810
 2.2700	12.9350
 2.2710	12.8950
 2.2720	12.8550
 2.2730	12.8160
 2.2740	12.7830
 2.2750	12.7430
 2.2760	12.7000
 2.2770	12.6600
 2.2780	12.6200
 2.2790	12.5800
 2.2800	12.5430
 2.2810	12.5040
 2.2820	12.4630
 2.2830	12.4230
 2.2840	12.3840
 2.2850	12.3440
 2.2860	12.3050
 2.2870	12.2640
 2.2880	12.2210
 2.2890	12.1800
 2.2900	12.1400
 2.2910	12.1000
 2.2920	12.0630
 2.2930	12.0220
 2.2940	11.9750
 2.2950	11.9310
 2.2960	11.8810
 2.2970	11.8370
 2.2980	11.7970
 2.2990	11.7580
 2.3000	11.7190
 2.3010	11.6790
 2.3020	11.6360
 2.3030	11.5940
 2.3040	11.5560
 2.3050	11.5160
 2.3060	11.4780
 2.3070	11.4450
 2.3080	11.4160
 2.3090	11.3910
 2.3100	11.3670
 2.3110	11.3430
 2.3120	11.3180
 2.3130	11.2920
 2.3140	11.2720
 2.3150	11.2580
 2.3160	11.2360
 2.3170	11.2150
 2.3180	11.1920
 2.3190	11.1660
 2.3200	11.1400
 2.3210	11.1160
 2.3220	11.0900
 2.3230	11.0590
 2.3240	11.0290
 2.3250	11.0000
 2.3260	10.9700
 2.3270	10.9360
 2.3280	10.9050
 2.3290	10.8760
 2.3300	10.8430
 2.3310	10.8080
 2.3320	10.7730
 2.3330	10.7330
 2.3340	10.6940
 2.3350	10.6580
 2.3360	10.6170
 2.3370	10.5730
 2.3380	10.5320
 2.3390	10.4890
 2.3400	10.4490
 2.3410	10.4130
 2.3420	10.3760
 2.3430	10.3380
 2.3440	10.3040
 2.3450	10.2730
 2.3460	10.2410
 2.3470	10.2140
 2.3480	10.1860
 2.3490	10.1550
 2.3500	10.1260
 2.3510	10.0980
 2.3520	10.0710
 2.3530	10.0430
 2.3540	10.0230
 2.3550	10.0000
 2.3560	 9.9660
 2.3570	 9.9390
 2.3580	 9.9130
 2.3590	 9.8850
 2.3600	 9.8670
 2.3610	 9.8450
 2.3620	 9.8130
 2.3630	 9.7860
 2.3640	 9.7550
 2.3650	 9.7250
 2.3660	 9.6980
 2.3670	 9.6670
 2.3680	 9.6400
 2.3690	 9.6090
 2.3700	 9.5720
 2.3710	 9.5370
 2.3720	 9.5030
 2.3730	 9.4630
 2.3740	 9.4330
 2.3750	 9.4160
 2.3760	 9.3850
 2.3770	 9.3490
 2.3780	 9.3120
 2.3790	 9.2630
 2.3800	 9.2230
 2.3810	 9.1980
 2.3820	 9.1720
 2.3830	 9.1440
 2.3840	 9.1120
 2.3850	 9.0730
 2.3860	 9.0400
 2.3870	 9.0090
 2.3880	 8.9840
 2.3890	 8.9610
 2.3900	 8.9280
 2.3910	 8.8890
 2.3920	 8.8420
 2.3930	 8.7990
 2.3940	 8.7580
 2.3950	 8.7150
 2.3960	 8.6860
 2.3970	 8.6560
 2.3980	 8.6110
 2.3990	 8.5660
 2.4000	 8.5220
 2.4010	 8.4660
 2.4020	 8.4320
 2.4030	 8.4060
 2.4040	 8.3670
 2.4050	 8.3330
 2.4060	 8.2880
 2.4070	 8.2540
 2.4080	 8.2270
 2.4090	 8.1860
 2.4100	 8.1480
 2.4110	 8.1010
 2.4120	 8.0470
 2.4130	 8.0150
 2.4140	 7.9880
 2.4150	 7.9470
 2.4160	 7.9060
 2.4170	 7.8650
 2.4180	 7.8260
 2.4190	 7.7910
 2.4200	 7.7540
 2.4210	 7.7160
 2.4220	 7.6700
 2.4230	 7.6200
 2.4240	 7.5850
 2.4250	 7.5580
 2.4260	 7.5290
 2.4270	 7.5020
 2.4280	 7.4700
 2.4290	 7.4250
 2.4300	 7.3850
 2.4310	 7.3500
 2.4320	 7.3230
 2.4330	 7.2910
 2.4340	 7.2380
 2.4350	 7.1840
 2.4360	 7.1380
 2.4370	 7.1000
 2.4380	 7.0670
 2.4390	 7.0460
 2.4400	 7.0140
 2.4410	 6.9750
 2.4420	 6.9420
 2.4430	 6.8930
 2.4440	 6.8390
 2.4450	 6.7920
 2.4460	 6.7560
 2.4470	 6.7370
 2.4480	 6.7270
 2.4490	 6.7130
 2.4500	 6.6910
 2.4510	 6.6590
 2.4520	 6.6250
 2.4530	 6.5830
 2.4540	 6.5280
 2.4550	 6.4810
 2.4560	 6.4490
 2.4570	 6.4390
 2.4580	 6.4290
 2.4590	 6.4120
 2.4600	 6.3950
 2.4610	 6.3460
 2.4620	 6.3120
 2.4630	 6.3010
 2.4640	 6.2670
 2.4650	 6.2310
 2.4660	 6.2010
 2.4670	 6.1690
 2.4680	 6.1380
 2.4690	 6.1370
 2.4700	 6.1250
 2.4710	 6.1140
 2.4720	 6.0970
 2.4730	 6.0770
 2.4740	 6.0530
 2.4750	 6.0160
 2.4760	 5.9900
 2.4770	 5.9700
 2.4780	 5.9410
 2.4790	 5.9150
 2.4800	 5.8880
 2.4810	 5.8520
 2.4820	 5.8440
 2.4830	 5.8260
 2.4840	 5.8170
 2.4850	 5.8050
 2.4860	 5.7890
 2.4870	 5.7890
 2.4880	 5.7700
 2.4890	 5.7510
 2.4900	 5.7460
 2.4910	 5.7350
 2.4920	 5.7460
 2.4930	 5.7350
 2.4940	 5.7100
 2.4950	 5.7300
 2.4960	 5.7360
 2.4970	 5.7500
 2.4980	 5.7880
 2.4990	 5.7780
 2.5000	 5.7270
