Name: Tsuga canadensis
Type: Vegetation
Class: Tree
Genus: Tsuga
Species: canadensis
Sample No.: TSCA-1-49
Owner: UCSB
Wavelength Range: VSWIR
Origin: USA; Massachusetts; Harvard Forest
Collection Date: 7/8/2013
Description: Samples were collected as part of NSF Macrosystem Biology proposal titled: Collaborative Research: Thermal controls on ecosystem metabolism and function: scaling from leaves to canopies to regions. Samples were collected and overnighted to JPL facilities for processing. The same leaves were processed in the Nicolet and then measured using the ASD.
Measurement: Bidirectional reflectance
First Column: X
Second Column: Y
X Units: Wavelength (micrometers)
Y Units: Reflectance (percentage)
First X Value: 0.35
Last X Value: 2.5
Number of X Values: 2151
Additional Information: vegetation.tree.tsuga.canadensis.vswir.tsca-1-49.ucsb.asd.ancillary.txt

 0.3500	 3.8070
 0.3510	 3.6520
 0.3520	 3.7900
 0.3530	 3.8470
 0.3540	 3.6030
 0.3550	 3.8200
 0.3560	 3.7200
 0.3570	 3.4580
 0.3580	 3.5870
 0.3590	 3.5500
 0.3600	 3.4880
 0.3610	 3.4980
 0.3620	 3.5120
 0.3630	 3.5470
 0.3640	 3.5950
 0.3650	 3.6360
 0.3660	 3.6290
 0.3670	 3.5550
 0.3680	 3.4850
 0.3690	 3.5270
 0.3700	 3.4640
 0.3710	 3.4330
 0.3720	 3.5090
 0.3730	 3.5690
 0.3740	 3.5240
 0.3750	 3.4640
 0.3760	 3.4980
 0.3770	 3.4980
 0.3780	 3.5290
 0.3790	 3.5910
 0.3800	 3.6170
 0.3810	 3.5730
 0.3820	 3.5100
 0.3830	 3.4690
 0.3840	 3.4220
 0.3850	 3.4700
 0.3860	 3.5460
 0.3870	 3.5470
 0.3880	 3.5470
 0.3890	 3.5310
 0.3900	 3.5400
 0.3910	 3.6760
 0.3920	 3.6770
 0.3930	 3.6370
 0.3940	 3.6580
 0.3950	 3.6710
 0.3960	 3.6580
 0.3970	 3.6350
 0.3980	 3.6330
 0.3990	 3.6590
 0.4000	 3.6910
 0.4010	 3.7070
 0.4020	 3.7000
 0.4030	 3.7220
 0.4040	 3.7610
 0.4050	 3.7970
 0.4060	 3.8250
 0.4070	 3.8190
 0.4080	 3.8070
 0.4090	 3.8400
 0.4100	 3.8650
 0.4110	 3.8810
 0.4120	 3.8820
 0.4130	 3.8260
 0.4140	 3.8420
 0.4150	 3.8880
 0.4160	 3.8900
 0.4170	 3.9080
 0.4180	 3.9460
 0.4190	 3.9690
 0.4200	 3.9130
 0.4210	 3.9410
 0.4220	 3.9720
 0.4230	 3.9470
 0.4240	 3.9720
 0.4250	 3.9920
 0.4260	 4.0020
 0.4270	 4.0180
 0.4280	 4.0200
 0.4290	 4.0150
 0.4300	 4.0110
 0.4310	 4.0080
 0.4320	 4.0150
 0.4330	 4.0240
 0.4340	 4.0270
 0.4350	 4.0470
 0.4360	 4.0510
 0.4370	 4.0350
 0.4380	 4.0210
 0.4390	 4.0270
 0.4400	 4.0380
 0.4410	 4.0410
 0.4420	 4.0340
 0.4430	 4.0520
 0.4440	 4.0670
 0.4450	 4.0430
 0.4460	 4.0350
 0.4470	 4.0450
 0.4480	 4.0660
 0.4490	 4.0820
 0.4500	 4.0760
 0.4510	 4.0760
 0.4520	 4.1030
 0.4530	 4.1120
 0.4540	 4.1060
 0.4550	 4.1000
 0.4560	 4.1170
 0.4570	 4.1130
 0.4580	 4.1140
 0.4590	 4.1320
 0.4600	 4.1260
 0.4610	 4.1220
 0.4620	 4.1300
 0.4630	 4.1480
 0.4640	 4.1380
 0.4650	 4.1290
 0.4660	 4.1310
 0.4670	 4.1290
 0.4680	 4.1270
 0.4690	 4.1200
 0.4700	 4.1120
 0.4710	 4.1310
 0.4720	 4.1470
 0.4730	 4.1470
 0.4740	 4.1300
 0.4750	 4.1400
 0.4760	 4.1450
 0.4770	 4.1310
 0.4780	 4.1300
 0.4790	 4.1400
 0.4800	 4.1480
 0.4810	 4.1460
 0.4820	 4.1510
 0.4830	 4.1590
 0.4840	 4.1670
 0.4850	 4.1760
 0.4860	 4.1700
 0.4870	 4.1690
 0.4880	 4.1830
 0.4890	 4.1940
 0.4900	 4.1980
 0.4910	 4.2000
 0.4920	 4.2050
 0.4930	 4.2310
 0.4940	 4.2590
 0.4950	 4.2750
 0.4960	 4.2800
 0.4970	 4.2940
 0.4980	 4.3110
 0.4990	 4.3250
 0.5000	 4.3670
 0.5010	 4.4090
 0.5020	 4.4440
 0.5030	 4.4840
 0.5040	 4.5330
 0.5050	 4.5840
 0.5060	 4.6360
 0.5070	 4.7050
 0.5080	 4.7830
 0.5090	 4.8700
 0.5100	 4.9690
 0.5110	 5.0780
 0.5120	 5.1990
 0.5130	 5.3330
 0.5140	 5.4760
 0.5150	 5.6260
 0.5160	 5.7920
 0.5170	 5.9770
 0.5180	 6.1540
 0.5190	 6.3430
 0.5200	 6.5410
 0.5210	 6.7300
 0.5220	 6.9240
 0.5230	 7.1160
 0.5240	 7.2990
 0.5250	 7.4720
 0.5260	 7.6330
 0.5270	 7.7790
 0.5280	 7.9120
 0.5290	 8.0290
 0.5300	 8.1360
 0.5310	 8.2330
 0.5320	 8.3150
 0.5330	 8.3900
 0.5340	 8.4540
 0.5350	 8.5040
 0.5360	 8.5450
 0.5370	 8.5820
 0.5380	 8.6160
 0.5390	 8.6440
 0.5400	 8.6760
 0.5410	 8.7070
 0.5420	 8.7360
 0.5430	 8.7720
 0.5440	 8.8030
 0.5450	 8.8260
 0.5460	 8.8420
 0.5470	 8.8550
 0.5480	 8.8620
 0.5490	 8.8660
 0.5500	 8.8760
 0.5510	 8.8810
 0.5520	 8.8790
 0.5530	 8.8680
 0.5540	 8.8490
 0.5550	 8.8180
 0.5560	 8.7750
 0.5570	 8.7190
 0.5580	 8.6490
 0.5590	 8.5710
 0.5600	 8.4860
 0.5610	 8.4020
 0.5620	 8.2990
 0.5630	 8.1850
 0.5640	 8.0780
 0.5650	 7.9650
 0.5660	 7.8420
 0.5670	 7.7100
 0.5680	 7.5800
 0.5690	 7.4500
 0.5700	 7.3250
 0.5710	 7.2070
 0.5720	 7.0880
 0.5730	 6.9750
 0.5740	 6.8700
 0.5750	 6.7750
 0.5760	 6.6980
 0.5770	 6.6280
 0.5780	 6.5580
 0.5790	 6.4910
 0.5800	 6.4270
 0.5810	 6.3680
 0.5820	 6.3140
 0.5830	 6.2540
 0.5840	 6.2000
 0.5850	 6.1550
 0.5860	 6.1080
 0.5870	 6.0630
 0.5880	 6.0210
 0.5890	 5.9820
 0.5900	 5.9490
 0.5910	 5.9260
 0.5920	 5.9090
 0.5930	 5.8940
 0.5940	 5.8740
 0.5950	 5.8510
 0.5960	 5.8270
 0.5970	 5.8040
 0.5980	 5.7870
 0.5990	 5.7670
 0.6000	 5.7390
 0.6010	 5.7130
 0.6020	 5.6900
 0.6030	 5.6640
 0.6040	 5.6320
 0.6050	 5.6010
 0.6060	 5.5670
 0.6070	 5.5300
 0.6080	 5.4980
 0.6090	 5.4640
 0.6100	 5.4280
 0.6110	 5.3920
 0.6120	 5.3550
 0.6130	 5.3110
 0.6140	 5.2630
 0.6150	 5.2290
 0.6160	 5.1920
 0.6170	 5.1580
 0.6180	 5.1320
 0.6190	 5.1070
 0.6200	 5.0850
 0.6210	 5.0630
 0.6220	 5.0370
 0.6230	 5.0210
 0.6240	 5.0110
 0.6250	 5.0020
 0.6260	 4.9940
 0.6270	 4.9870
 0.6280	 4.9810
 0.6290	 4.9770
 0.6300	 4.9750
 0.6310	 4.9740
 0.6320	 4.9690
 0.6330	 4.9540
 0.6340	 4.9380
 0.6350	 4.9200
 0.6360	 4.8990
 0.6370	 4.8760
 0.6380	 4.8470
 0.6390	 4.8120
 0.6400	 4.7700
 0.6410	 4.7280
 0.6420	 4.6890
 0.6430	 4.6520
 0.6440	 4.6180
 0.6450	 4.5800
 0.6460	 4.5470
 0.6470	 4.5240
 0.6480	 4.5000
 0.6490	 4.4740
 0.6500	 4.4510
 0.6510	 4.4390
 0.6520	 4.4250
 0.6530	 4.4120
 0.6540	 4.3990
 0.6550	 4.3850
 0.6560	 4.3710
 0.6570	 4.3580
 0.6580	 4.3460
 0.6590	 4.3340
 0.6600	 4.3180
 0.6610	 4.3010
 0.6620	 4.2880
 0.6630	 4.2720
 0.6640	 4.2610
 0.6650	 4.2610
 0.6660	 4.2530
 0.6670	 4.2480
 0.6680	 4.2480
 0.6690	 4.2490
 0.6700	 4.2510
 0.6710	 4.2600
 0.6720	 4.2750
 0.6730	 4.2800
 0.6740	 4.2950
 0.6750	 4.3120
 0.6760	 4.3240
 0.6770	 4.3490
 0.6780	 4.3710
 0.6790	 4.3910
 0.6800	 4.4180
 0.6810	 4.4510
 0.6820	 4.4820
 0.6830	 4.5110
 0.6840	 4.5480
 0.6850	 4.5910
 0.6860	 4.6390
 0.6870	 4.6940
 0.6880	 4.7660
 0.6890	 4.8550
 0.6900	 4.9670
 0.6910	 5.1120
 0.6920	 5.2950
 0.6930	 5.5200
 0.6940	 5.7920
 0.6950	 6.1230
 0.6960	 6.5160
 0.6970	 6.9700
 0.6980	 7.4820
 0.6990	 8.0630
 0.7000	 8.7030
 0.7010	 9.4000
 0.7020	10.1560
 0.7030	10.9560
 0.7040	11.7960
 0.7050	12.6720
 0.7060	13.5830
 0.7070	14.5240
 0.7080	15.4890
 0.7090	16.4770
 0.7100	17.4790
 0.7110	18.4950
 0.7120	19.5220
 0.7130	20.5560
 0.7140	21.5960
 0.7150	22.6390
 0.7160	23.6810
 0.7170	24.7150
 0.7180	25.7460
 0.7190	26.7680
 0.7200	27.7760
 0.7210	28.7600
 0.7220	29.7320
 0.7230	30.6910
 0.7240	31.6240
 0.7250	32.5230
 0.7260	33.3880
 0.7270	34.2250
 0.7280	35.0330
 0.7290	35.8060
 0.7300	36.5490
 0.7310	37.2670
 0.7320	37.9370
 0.7330	38.5660
 0.7340	39.1680
 0.7350	39.7520
 0.7360	40.2950
 0.7370	40.8030
 0.7380	41.2860
 0.7390	41.7520
 0.7400	42.1770
 0.7410	42.5710
 0.7420	42.9490
 0.7430	43.2990
 0.7440	43.6080
 0.7450	43.8920
 0.7460	44.1810
 0.7470	44.4540
 0.7480	44.6870
 0.7490	44.8790
 0.7500	45.0780
 0.7510	45.2640
 0.7520	45.4240
 0.7530	45.5580
 0.7540	45.7040
 0.7550	45.8290
 0.7560	45.9300
 0.7570	46.0330
 0.7580	46.1230
 0.7590	46.2050
 0.7600	46.2830
 0.7610	46.3430
 0.7620	46.3950
 0.7630	46.4470
 0.7640	46.4960
 0.7650	46.5350
 0.7660	46.5720
 0.7670	46.6060
 0.7680	46.6330
 0.7690	46.6540
 0.7700	46.6820
 0.7710	46.7140
 0.7720	46.7300
 0.7730	46.7390
 0.7740	46.7470
 0.7750	46.7610
 0.7760	46.7910
 0.7770	46.8070
 0.7780	46.8100
 0.7790	46.8160
 0.7800	46.8380
 0.7810	46.8500
 0.7820	46.8550
 0.7830	46.8800
 0.7840	46.8900
 0.7850	46.8960
 0.7860	46.9100
 0.7870	46.9210
 0.7880	46.9320
 0.7890	46.9450
 0.7900	46.9580
 0.7910	46.9610
 0.7920	46.9700
 0.7930	46.9840
 0.7940	46.9910
 0.7950	47.0010
 0.7960	47.0110
 0.7970	47.0170
 0.7980	47.0090
 0.7990	47.0130
 0.8000	47.0250
 0.8010	47.0390
 0.8020	47.0680
 0.8030	47.0710
 0.8040	47.0640
 0.8050	47.0780
 0.8060	47.0770
 0.8070	47.0740
 0.8080	47.0750
 0.8090	47.0810
 0.8100	47.1010
 0.8110	47.1180
 0.8120	47.1150
 0.8130	47.0980
 0.8140	47.1000
 0.8150	47.1130
 0.8160	47.1250
 0.8170	47.1310
 0.8180	47.1270
 0.8190	47.1280
 0.8200	47.1500
 0.8210	47.1490
 0.8220	47.1480
 0.8230	47.1530
 0.8240	47.1560
 0.8250	47.1620
 0.8260	47.1640
 0.8270	47.1590
 0.8280	47.1510
 0.8290	47.1600
 0.8300	47.1730
 0.8310	47.1760
 0.8320	47.1660
 0.8330	47.1500
 0.8340	47.1510
 0.8350	47.1790
 0.8360	47.1760
 0.8370	47.1720
 0.8380	47.1800
 0.8390	47.1910
 0.8400	47.1920
 0.8410	47.1870
 0.8420	47.1910
 0.8430	47.2300
 0.8440	47.2290
 0.8450	47.2130
 0.8460	47.2120
 0.8470	47.2240
 0.8480	47.2350
 0.8490	47.2450
 0.8500	47.2570
 0.8510	47.2720
 0.8520	47.2680
 0.8530	47.2510
 0.8540	47.2430
 0.8550	47.2640
 0.8560	47.2870
 0.8570	47.2940
 0.8580	47.2930
 0.8590	47.2910
 0.8600	47.2900
 0.8610	47.2930
 0.8620	47.3050
 0.8630	47.3140
 0.8640	47.3100
 0.8650	47.2940
 0.8660	47.2900
 0.8670	47.3100
 0.8680	47.3270
 0.8690	47.3120
 0.8700	47.3020
 0.8710	47.2980
 0.8720	47.3070
 0.8730	47.3340
 0.8740	47.3380
 0.8750	47.3260
 0.8760	47.3160
 0.8770	47.3240
 0.8780	47.3250
 0.8790	47.3250
 0.8800	47.3280
 0.8810	47.3290
 0.8820	47.3180
 0.8830	47.3130
 0.8840	47.3230
 0.8850	47.3360
 0.8860	47.3380
 0.8870	47.3250
 0.8880	47.3010
 0.8890	47.3010
 0.8900	47.3090
 0.8910	47.3150
 0.8920	47.3170
 0.8930	47.3190
 0.8940	47.3130
 0.8950	47.2960
 0.8960	47.2740
 0.8970	47.2970
 0.8980	47.3060
 0.8990	47.2960
 0.9000	47.3080
 0.9010	47.3010
 0.9020	47.2930
 0.9030	47.2980
 0.9040	47.3100
 0.9050	47.2820
 0.9060	47.2500
 0.9070	47.2480
 0.9080	47.2760
 0.9090	47.2760
 0.9100	47.2690
 0.9110	47.2760
 0.9120	47.2790
 0.9130	47.2860
 0.9140	47.2810
 0.9150	47.2510
 0.9160	47.2300
 0.9170	47.2340
 0.9180	47.2470
 0.9190	47.2460
 0.9200	47.2200
 0.9210	47.2180
 0.9220	47.2260
 0.9230	47.2040
 0.9240	47.1820
 0.9250	47.1700
 0.9260	47.1570
 0.9270	47.1240
 0.9280	47.1060
 0.9290	47.0940
 0.9300	47.0840
 0.9310	47.0750
 0.9320	47.0540
 0.9330	47.0220
 0.9340	46.9830
 0.9350	46.9520
 0.9360	46.9320
 0.9370	46.9050
 0.9380	46.8680
 0.9390	46.8450
 0.9400	46.8250
 0.9410	46.7940
 0.9420	46.7540
 0.9430	46.7290
 0.9440	46.6840
 0.9450	46.6340
 0.9460	46.5890
 0.9470	46.5230
 0.9480	46.4650
 0.9490	46.4260
 0.9500	46.3960
 0.9510	46.3170
 0.9520	46.2280
 0.9530	46.1500
 0.9540	46.0840
 0.9550	45.9810
 0.9560	45.9210
 0.9570	45.8860
 0.9580	45.8350
 0.9590	45.7680
 0.9600	45.7080
 0.9610	45.6490
 0.9620	45.5880
 0.9630	45.5630
 0.9640	45.5340
 0.9650	45.5170
 0.9660	45.5250
 0.9670	45.5010
 0.9680	45.4900
 0.9690	45.4960
 0.9700	45.5020
 0.9710	45.4870
 0.9720	45.4660
 0.9730	45.4530
 0.9740	45.4560
 0.9750	45.4720
 0.9760	45.4840
 0.9770	45.4850
 0.9780	45.4840
 0.9790	45.5150
 0.9800	45.5250
 0.9810	45.5120
 0.9820	45.5080
 0.9830	45.5570
 0.9840	45.5830
 0.9850	45.5950
 0.9860	45.6330
 0.9870	45.6340
 0.9880	45.6550
 0.9890	45.6980
 0.9900	45.7370
 0.9910	45.7650
 0.9920	45.8680
 0.9930	45.9710
 0.9940	46.0750
 0.9950	46.1780
 0.9960	46.2810
 0.9970	46.3840
 0.9980	46.4870
 0.9990	46.5900
 1.0000	46.6930
 1.0010	46.7960
 1.0020	46.8990
 1.0030	47.0020
 1.0040	47.1050
 1.0050	47.2080
 1.0060	47.3110
 1.0070	47.4140
 1.0080	47.5180
 1.0090	47.6210
 1.0100	47.6210
 1.0110	47.6430
 1.0120	47.6660
 1.0130	47.6820
 1.0140	47.7070
 1.0150	47.7360
 1.0160	47.7640
 1.0170	47.8000
 1.0180	47.8320
 1.0190	47.8610
 1.0200	47.8930
 1.0210	47.9150
 1.0220	47.9430
 1.0230	47.9710
 1.0240	47.9980
 1.0250	48.0210
 1.0260	48.0450
 1.0270	48.0660
 1.0280	48.0780
 1.0290	48.0980
 1.0300	48.1240
 1.0310	48.1480
 1.0320	48.1770
 1.0330	48.1970
 1.0340	48.2200
 1.0350	48.2390
 1.0360	48.2530
 1.0370	48.2770
 1.0380	48.2950
 1.0390	48.3070
 1.0400	48.3300
 1.0410	48.3670
 1.0420	48.3870
 1.0430	48.4060
 1.0440	48.4260
 1.0450	48.4370
 1.0460	48.4480
 1.0470	48.4630
 1.0480	48.4770
 1.0490	48.4850
 1.0500	48.4970
 1.0510	48.5180
 1.0520	48.5330
 1.0530	48.5430
 1.0540	48.5480
 1.0550	48.5540
 1.0560	48.5530
 1.0570	48.5610
 1.0580	48.5740
 1.0590	48.5800
 1.0600	48.5870
 1.0610	48.5930
 1.0620	48.5940
 1.0630	48.5980
 1.0640	48.6060
 1.0650	48.6100
 1.0660	48.6080
 1.0670	48.6090
 1.0680	48.6090
 1.0690	48.6080
 1.0700	48.6080
 1.0710	48.6110
 1.0720	48.6110
 1.0730	48.6110
 1.0740	48.6080
 1.0750	48.6040
 1.0760	48.5990
 1.0770	48.5930
 1.0780	48.5870
 1.0790	48.5790
 1.0800	48.5730
 1.0810	48.5700
 1.0820	48.5620
 1.0830	48.5530
 1.0840	48.5430
 1.0850	48.5280
 1.0860	48.5110
 1.0870	48.5010
 1.0880	48.4950
 1.0890	48.4900
 1.0900	48.4900
 1.0910	48.4840
 1.0920	48.4770
 1.0930	48.4670
 1.0940	48.4520
 1.0950	48.4370
 1.0960	48.4160
 1.0970	48.3990
 1.0980	48.3810
 1.0990	48.3660
 1.1000	48.3570
 1.1010	48.3430
 1.1020	48.3270
 1.1030	48.3120
 1.1040	48.2940
 1.1050	48.2720
 1.1060	48.2550
 1.1070	48.2400
 1.1080	48.2190
 1.1090	48.1990
 1.1100	48.1760
 1.1110	48.1470
 1.1120	48.1220
 1.1130	48.0990
 1.1140	48.0760
 1.1150	48.0580
 1.1160	48.0340
 1.1170	48.0090
 1.1180	47.9810
 1.1190	47.9510
 1.1200	47.9150
 1.1210	47.8760
 1.1220	47.8350
 1.1230	47.7890
 1.1240	47.7380
 1.1250	47.6800
 1.1260	47.6210
 1.1270	47.5500
 1.1280	47.4720
 1.1290	47.3870
 1.1300	47.2960
 1.1310	47.1940
 1.1320	47.0860
 1.1330	46.9650
 1.1340	46.8350
 1.1350	46.6940
 1.1360	46.5420
 1.1370	46.3840
 1.1380	46.2210
 1.1390	46.0520
 1.1400	45.8780
 1.1410	45.7020
 1.1420	45.5230
 1.1430	45.3430
 1.1440	45.1660
 1.1450	44.9880
 1.1460	44.8180
 1.1470	44.6490
 1.1480	44.4870
 1.1490	44.3290
 1.1500	44.1830
 1.1510	44.0410
 1.1520	43.9150
 1.1530	43.8030
 1.1540	43.7010
 1.1550	43.6070
 1.1560	43.5270
 1.1570	43.4610
 1.1580	43.4060
 1.1590	43.3600
 1.1600	43.3240
 1.1610	43.2890
 1.1620	43.2580
 1.1630	43.2320
 1.1640	43.2110
 1.1650	43.1940
 1.1660	43.1830
 1.1670	43.1720
 1.1680	43.1660
 1.1690	43.1590
 1.1700	43.1550
 1.1710	43.1480
 1.1720	43.1410
 1.1730	43.1320
 1.1740	43.1220
 1.1750	43.1120
 1.1760	43.1050
 1.1770	43.1000
 1.1780	43.0930
 1.1790	43.0820
 1.1800	43.0700
 1.1810	43.0570
 1.1820	43.0490
 1.1830	43.0440
 1.1840	43.0300
 1.1850	43.0110
 1.1860	42.9930
 1.1870	42.9760
 1.1880	42.9640
 1.1890	42.9570
 1.1900	42.9510
 1.1910	42.9460
 1.1920	42.9430
 1.1930	42.9440
 1.1940	42.9440
 1.1950	42.9490
 1.1960	42.9480
 1.1970	42.9490
 1.1980	42.9590
 1.1990	42.9680
 1.2000	42.9790
 1.2010	42.9920
 1.2020	43.0040
 1.2030	43.0180
 1.2040	43.0320
 1.2050	43.0480
 1.2060	43.0700
 1.2070	43.0950
 1.2080	43.1190
 1.2090	43.1470
 1.2100	43.1750
 1.2110	43.2020
 1.2120	43.2270
 1.2130	43.2570
 1.2140	43.2840
 1.2150	43.3160
 1.2160	43.3530
 1.2170	43.3890
 1.2180	43.4270
 1.2190	43.4670
 1.2200	43.5040
 1.2210	43.5470
 1.2220	43.5870
 1.2230	43.6220
 1.2240	43.6580
 1.2250	43.6910
 1.2260	43.7200
 1.2270	43.7550
 1.2280	43.7870
 1.2290	43.8170
 1.2300	43.8470
 1.2310	43.8760
 1.2320	43.9070
 1.2330	43.9340
 1.2340	43.9620
 1.2350	43.9940
 1.2360	44.0210
 1.2370	44.0430
 1.2380	44.0710
 1.2390	44.0980
 1.2400	44.1190
 1.2410	44.1460
 1.2420	44.1720
 1.2430	44.1940
 1.2440	44.2160
 1.2450	44.2360
 1.2460	44.2540
 1.2470	44.2670
 1.2480	44.2810
 1.2490	44.2990
 1.2500	44.3130
 1.2510	44.3290
 1.2520	44.3490
 1.2530	44.3630
 1.2540	44.3770
 1.2550	44.3940
 1.2560	44.4040
 1.2570	44.4120
 1.2580	44.4210
 1.2590	44.4270
 1.2600	44.4320
 1.2610	44.4370
 1.2620	44.4410
 1.2630	44.4430
 1.2640	44.4410
 1.2650	44.4370
 1.2660	44.4350
 1.2670	44.4310
 1.2680	44.4310
 1.2690	44.4260
 1.2700	44.4190
 1.2710	44.4110
 1.2720	44.3980
 1.2730	44.3860
 1.2740	44.3750
 1.2750	44.3650
 1.2760	44.3570
 1.2770	44.3420
 1.2780	44.3250
 1.2790	44.3050
 1.2800	44.2800
 1.2810	44.2580
 1.2820	44.2330
 1.2830	44.2030
 1.2840	44.1730
 1.2850	44.1400
 1.2860	44.1060
 1.2870	44.0710
 1.2880	44.0380
 1.2890	44.0000
 1.2900	43.9580
 1.2910	43.9180
 1.2920	43.8710
 1.2930	43.8160
 1.2940	43.7620
 1.2950	43.7060
 1.2960	43.6440
 1.2970	43.5830
 1.2980	43.5230
 1.2990	43.4520
 1.3000	43.3810
 1.3010	43.3130
 1.3020	43.2370
 1.3030	43.1540
 1.3040	43.0670
 1.3050	42.9780
 1.3060	42.8850
 1.3070	42.7930
 1.3080	42.6980
 1.3090	42.5960
 1.3100	42.4950
 1.3110	42.3900
 1.3120	42.2820
 1.3130	42.1730
 1.3140	42.0590
 1.3150	41.9410
 1.3160	41.8200
 1.3170	41.6980
 1.3180	41.5690
 1.3190	41.4350
 1.3200	41.2970
 1.3210	41.1540
 1.3220	41.0110
 1.3230	40.8650
 1.3240	40.7120
 1.3250	40.5580
 1.3260	40.4020
 1.3270	40.2440
 1.3280	40.0850
 1.3290	39.9220
 1.3300	39.7580
 1.3310	39.5920
 1.3320	39.4240
 1.3330	39.2560
 1.3340	39.0860
 1.3350	38.9150
 1.3360	38.7460
 1.3370	38.5720
 1.3380	38.4010
 1.3390	38.2290
 1.3400	38.0530
 1.3410	37.8820
 1.3420	37.7130
 1.3430	37.5460
 1.3440	37.3820
 1.3450	37.2190
 1.3460	37.0570
 1.3470	36.8950
 1.3480	36.7320
 1.3490	36.5730
 1.3500	36.4150
 1.3510	36.2590
 1.3520	36.1040
 1.3530	35.9460
 1.3540	35.7910
 1.3550	35.6350
 1.3560	35.4770
 1.3570	35.3220
 1.3580	35.1640
 1.3590	35.0010
 1.3600	34.8350
 1.3610	34.6650
 1.3620	34.4880
 1.3630	34.3050
 1.3640	34.1100
 1.3650	33.9040
 1.3660	33.6880
 1.3670	33.4590
 1.3680	33.2200
 1.3690	32.9660
 1.3700	32.6960
 1.3710	32.4140
 1.3720	32.1150
 1.3730	31.7970
 1.3740	31.4630
 1.3750	31.1050
 1.3760	30.7240
 1.3770	30.3190
 1.3780	29.8860
 1.3790	29.4310
 1.3800	28.9530
 1.3810	28.4480
 1.3820	27.9260
 1.3830	27.3830
 1.3840	26.8240
 1.3850	26.2460
 1.3860	25.6600
 1.3870	25.0550
 1.3880	24.4540
 1.3890	23.8460
 1.3900	23.2340
 1.3910	22.6270
 1.3920	22.0220
 1.3930	21.4190
 1.3940	20.8270
 1.3950	20.2420
 1.3960	19.6710
 1.3970	19.1170
 1.3980	18.5810
 1.3990	18.0700
 1.4000	17.5790
 1.4010	17.1080
 1.4020	16.6640
 1.4030	16.2410
 1.4040	15.8440
 1.4050	15.4730
 1.4060	15.1240
 1.4070	14.8020
 1.4080	14.4990
 1.4090	14.2180
 1.4100	13.9610
 1.4110	13.7220
 1.4120	13.5030
 1.4130	13.3000
 1.4140	13.1120
 1.4150	12.9440
 1.4160	12.7920
 1.4170	12.6540
 1.4180	12.5300
 1.4190	12.4160
 1.4200	12.3130
 1.4210	12.2210
 1.4220	12.1390
 1.4230	12.0650
 1.4240	12.0010
 1.4250	11.9430
 1.4260	11.8930
 1.4270	11.8490
 1.4280	11.8130
 1.4290	11.7810
 1.4300	11.7560
 1.4310	11.7340
 1.4320	11.7170
 1.4330	11.7030
 1.4340	11.6940
 1.4350	11.6890
 1.4360	11.6870
 1.4370	11.6890
 1.4380	11.6940
 1.4390	11.7020
 1.4400	11.7120
 1.4410	11.7250
 1.4420	11.7380
 1.4430	11.7530
 1.4440	11.7700
 1.4450	11.7890
 1.4460	11.8100
 1.4470	11.8320
 1.4480	11.8540
 1.4490	11.8760
 1.4500	11.8970
 1.4510	11.9210
 1.4520	11.9480
 1.4530	11.9760
 1.4540	12.0060
 1.4550	12.0380
 1.4560	12.0700
 1.4570	12.1050
 1.4580	12.1440
 1.4590	12.1850
 1.4600	12.2300
 1.4610	12.2790
 1.4620	12.3330
 1.4630	12.3930
 1.4640	12.4550
 1.4650	12.5210
 1.4660	12.5920
 1.4670	12.6670
 1.4680	12.7490
 1.4690	12.8360
 1.4700	12.9250
 1.4710	13.0180
 1.4720	13.1140
 1.4730	13.2140
 1.4740	13.3170
 1.4750	13.4230
 1.4760	13.5320
 1.4770	13.6420
 1.4780	13.7540
 1.4790	13.8700
 1.4800	13.9870
 1.4810	14.1070
 1.4820	14.2290
 1.4830	14.3520
 1.4840	14.4770
 1.4850	14.6030
 1.4860	14.7290
 1.4870	14.8580
 1.4880	14.9870
 1.4890	15.1150
 1.4900	15.2440
 1.4910	15.3740
 1.4920	15.5050
 1.4930	15.6390
 1.4940	15.7730
 1.4950	15.9090
 1.4960	16.0450
 1.4970	16.1790
 1.4980	16.3150
 1.4990	16.4500
 1.5000	16.5870
 1.5010	16.7250
 1.5020	16.8610
 1.5030	16.9990
 1.5040	17.1360
 1.5050	17.2710
 1.5060	17.4080
 1.5070	17.5460
 1.5080	17.6830
 1.5090	17.8210
 1.5100	17.9570
 1.5110	18.0940
 1.5120	18.2330
 1.5130	18.3690
 1.5140	18.5050
 1.5150	18.6410
 1.5160	18.7740
 1.5170	18.9070
 1.5180	19.0400
 1.5190	19.1720
 1.5200	19.3020
 1.5210	19.4310
 1.5220	19.5600
 1.5230	19.6890
 1.5240	19.8180
 1.5250	19.9470
 1.5260	20.0740
 1.5270	20.2000
 1.5280	20.3250
 1.5290	20.4480
 1.5300	20.5700
 1.5310	20.6930
 1.5320	20.8160
 1.5330	20.9400
 1.5340	21.0620
 1.5350	21.1820
 1.5360	21.3000
 1.5370	21.4150
 1.5380	21.5320
 1.5390	21.6480
 1.5400	21.7630
 1.5410	21.8800
 1.5420	21.9940
 1.5430	22.1080
 1.5440	22.2230
 1.5450	22.3350
 1.5460	22.4490
 1.5470	22.5640
 1.5480	22.6760
 1.5490	22.7880
 1.5500	22.8990
 1.5510	23.0090
 1.5520	23.1190
 1.5530	23.2250
 1.5540	23.3300
 1.5550	23.4350
 1.5560	23.5400
 1.5570	23.6460
 1.5580	23.7510
 1.5590	23.8520
 1.5600	23.9530
 1.5610	24.0520
 1.5620	24.1490
 1.5630	24.2490
 1.5640	24.3450
 1.5650	24.4390
 1.5660	24.5330
 1.5670	24.6240
 1.5680	24.7140
 1.5690	24.8060
 1.5700	24.8980
 1.5710	24.9880
 1.5720	25.0750
 1.5730	25.1600
 1.5740	25.2460
 1.5750	25.3310
 1.5760	25.4160
 1.5770	25.5010
 1.5780	25.5860
 1.5790	25.6690
 1.5800	25.7530
 1.5810	25.8400
 1.5820	25.9210
 1.5830	26.0010
 1.5840	26.0840
 1.5850	26.1630
 1.5860	26.2420
 1.5870	26.3230
 1.5880	26.4000
 1.5890	26.4770
 1.5900	26.5550
 1.5910	26.6330
 1.5920	26.7140
 1.5930	26.7930
 1.5940	26.8710
 1.5950	26.9510
 1.5960	27.0270
 1.5970	27.1040
 1.5980	27.1790
 1.5990	27.2520
 1.6000	27.3300
 1.6010	27.4010
 1.6020	27.4710
 1.6030	27.5420
 1.6040	27.6080
 1.6050	27.6760
 1.6060	27.7490
 1.6070	27.8170
 1.6080	27.8830
 1.6090	27.9470
 1.6100	28.0090
 1.6110	28.0730
 1.6120	28.1350
 1.6130	28.1960
 1.6140	28.2530
 1.6150	28.3090
 1.6160	28.3670
 1.6170	28.4200
 1.6180	28.4750
 1.6190	28.5300
 1.6200	28.5810
 1.6210	28.6370
 1.6220	28.6940
 1.6230	28.7450
 1.6240	28.7970
 1.6250	28.8470
 1.6260	28.8960
 1.6270	28.9470
 1.6280	29.0000
 1.6290	29.0480
 1.6300	29.0930
 1.6310	29.1380
 1.6320	29.1770
 1.6330	29.2190
 1.6340	29.2650
 1.6350	29.3060
 1.6360	29.3470
 1.6370	29.3860
 1.6380	29.4200
 1.6390	29.4550
 1.6400	29.4910
 1.6410	29.5270
 1.6420	29.5650
 1.6430	29.5980
 1.6440	29.6300
 1.6450	29.6570
 1.6460	29.6780
 1.6470	29.7000
 1.6480	29.7200
 1.6490	29.7390
 1.6500	29.7560
 1.6510	29.7670
 1.6520	29.7770
 1.6530	29.7850
 1.6540	29.7910
 1.6550	29.7980
 1.6560	29.8060
 1.6570	29.8070
 1.6580	29.8030
 1.6590	29.7970
 1.6600	29.7880
 1.6610	29.7800
 1.6620	29.7770
 1.6630	29.7720
 1.6640	29.7650
 1.6650	29.7610
 1.6660	29.7510
 1.6670	29.7390
 1.6680	29.7270
 1.6690	29.7100
 1.6700	29.6910
 1.6710	29.6750
 1.6720	29.6570
 1.6730	29.6390
 1.6740	29.6210
 1.6750	29.5960
 1.6760	29.5720
 1.6770	29.5510
 1.6780	29.5240
 1.6790	29.4940
 1.6800	29.4620
 1.6810	29.4230
 1.6820	29.3850
 1.6830	29.3500
 1.6840	29.3120
 1.6850	29.2720
 1.6860	29.2290
 1.6870	29.1820
 1.6880	29.1360
 1.6890	29.0860
 1.6900	29.0380
 1.6910	28.9900
 1.6920	28.9420
 1.6930	28.8950
 1.6940	28.8490
 1.6950	28.8030
 1.6960	28.7540
 1.6970	28.7050
 1.6980	28.6540
 1.6990	28.6010
 1.7000	28.5490
 1.7010	28.4970
 1.7020	28.4430
 1.7030	28.3860
 1.7040	28.3300
 1.7050	28.2720
 1.7060	28.2180
 1.7070	28.1660
 1.7080	28.1110
 1.7090	28.0570
 1.7100	28.0010
 1.7110	27.9390
 1.7120	27.8830
 1.7130	27.8290
 1.7140	27.7730
 1.7150	27.7180
 1.7160	27.6600
 1.7170	27.5980
 1.7180	27.5380
 1.7190	27.4770
 1.7200	27.4190
 1.7210	27.3590
 1.7220	27.3020
 1.7230	27.2460
 1.7240	27.1860
 1.7250	27.1290
 1.7260	27.0700
 1.7270	27.0100
 1.7280	26.9540
 1.7290	26.8980
 1.7300	26.8420
 1.7310	26.7860
 1.7320	26.7270
 1.7330	26.6720
 1.7340	26.6190
 1.7350	26.5660
 1.7360	26.5150
 1.7370	26.4610
 1.7380	26.4040
 1.7390	26.3470
 1.7400	26.2910
 1.7410	26.2300
 1.7420	26.1660
 1.7430	26.1030
 1.7440	26.0390
 1.7450	25.9710
 1.7460	25.9010
 1.7470	25.8320
 1.7480	25.7580
 1.7490	25.6840
 1.7500	25.6130
 1.7510	25.5380
 1.7520	25.4590
 1.7530	25.3840
 1.7540	25.3080
 1.7550	25.2310
 1.7560	25.1580
 1.7570	25.0870
 1.7580	25.0150
 1.7590	24.9400
 1.7600	24.8640
 1.7610	24.7910
 1.7620	24.7190
 1.7630	24.6520
 1.7640	24.5870
 1.7650	24.5190
 1.7660	24.4570
 1.7670	24.4020
 1.7680	24.3460
 1.7690	24.2930
 1.7700	24.2400
 1.7710	24.1840
 1.7720	24.1330
 1.7730	24.0870
 1.7740	24.0390
 1.7750	23.9930
 1.7760	23.9480
 1.7770	23.9030
 1.7780	23.8590
 1.7790	23.8190
 1.7800	23.7810
 1.7810	23.7410
 1.7820	23.7080
 1.7830	23.6830
 1.7840	23.6540
 1.7850	23.6280
 1.7860	23.5990
 1.7870	23.5680
 1.7880	23.5430
 1.7890	23.5230
 1.7900	23.5060
 1.7910	23.4920
 1.7920	23.4820
 1.7930	23.4720
 1.7940	23.4650
 1.7950	23.4590
 1.7960	23.4540
 1.7970	23.4500
 1.7980	23.4480
 1.7990	23.4450
 1.8000	23.4420
 1.8010	23.4390
 1.8020	23.4340
 1.8030	23.4300
 1.8040	23.4250
 1.8050	23.4200
 1.8060	23.4140
 1.8070	23.4110
 1.8080	23.4090
 1.8090	23.4090
 1.8100	23.4110
 1.8110	23.4100
 1.8120	23.4100
 1.8130	23.4010
 1.8140	23.3960
 1.8150	23.3930
 1.8160	23.3840
 1.8170	23.3760
 1.8180	23.3680
 1.8190	23.3600
 1.8200	23.3530
 1.8210	23.3500
 1.8220	23.3420
 1.8230	23.3290
 1.8240	23.3160
 1.8250	23.3010
 1.8260	23.2830
 1.8270	23.2220
 1.8280	23.1610
 1.8290	23.1000
 1.8300	23.0390
 1.8310	22.9780
 1.8320	22.9170
 1.8330	22.8560
 1.8340	22.7950
 1.8350	22.7950
 1.8360	22.7430
 1.8370	22.6800
 1.8380	22.6130
 1.8390	22.5390
 1.8400	22.4610
 1.8410	22.3730
 1.8420	22.2790
 1.8430	22.1730
 1.8440	22.0600
 1.8450	21.9380
 1.8460	21.8060
 1.8470	21.6690
 1.8480	21.5230
 1.8490	21.3620
 1.8500	21.1890
 1.8510	21.0050
 1.8520	20.8060
 1.8530	20.5960
 1.8540	20.3780
 1.8550	20.1500
 1.8560	19.9090
 1.8570	19.6540
 1.8580	19.3880
 1.8590	19.1080
 1.8600	18.8140
 1.8610	18.5040
 1.8620	18.1790
 1.8630	17.8430
 1.8640	17.4890
 1.8650	17.1230
 1.8660	16.7470
 1.8670	16.3380
 1.8680	15.9190
 1.8690	15.4930
 1.8700	15.0500
 1.8710	14.5920
 1.8720	14.1320
 1.8730	13.6590
 1.8740	13.1780
 1.8750	12.7020
 1.8760	12.2280
 1.8770	11.7610
 1.8780	11.2990
 1.8790	10.8370
 1.8800	10.3910
 1.8810	 9.9540
 1.8820	 9.5300
 1.8830	 9.1160
 1.8840	 8.7180
 1.8850	 8.3320
 1.8860	 7.9550
 1.8870	 7.5970
 1.8880	 7.2530
 1.8890	 6.9320
 1.8900	 6.6390
 1.8910	 6.3640
 1.8920	 6.1090
 1.8930	 5.8760
 1.8940	 5.6600
 1.8950	 5.4600
 1.8960	 5.2760
 1.8970	 5.1100
 1.8980	 4.9630
 1.8990	 4.8250
 1.9000	 4.7030
 1.9010	 4.5970
 1.9020	 4.5010
 1.9030	 4.4180
 1.9040	 4.3460
 1.9050	 4.2810
 1.9060	 4.2220
 1.9070	 4.1680
 1.9080	 4.1190
 1.9090	 4.0760
 1.9100	 4.0390
 1.9110	 4.0080
 1.9120	 3.9840
 1.9130	 3.9650
 1.9140	 3.9550
 1.9150	 3.9430
 1.9160	 3.9280
 1.9170	 3.9140
 1.9180	 3.8940
 1.9190	 3.8790
 1.9200	 3.8740
 1.9210	 3.8730
 1.9220	 3.8720
 1.9230	 3.8760
 1.9240	 3.8780
 1.9250	 3.8800
 1.9260	 3.8810
 1.9270	 3.8820
 1.9280	 3.8860
 1.9290	 3.8910
 1.9300	 3.8990
 1.9310	 3.9090
 1.9320	 3.9190
 1.9330	 3.9290
 1.9340	 3.9350
 1.9350	 3.9470
 1.9360	 3.9620
 1.9370	 3.9770
 1.9380	 3.9960
 1.9390	 4.0160
 1.9400	 4.0280
 1.9410	 4.0440
 1.9420	 4.0620
 1.9430	 4.0750
 1.9440	 4.0940
 1.9450	 4.1200
 1.9460	 4.1420
 1.9470	 4.1620
 1.9480	 4.1850
 1.9490	 4.2070
 1.9500	 4.2300
 1.9510	 4.2580
 1.9520	 4.2850
 1.9530	 4.3170
 1.9540	 4.3460
 1.9550	 4.3750
 1.9560	 4.4040
 1.9570	 4.4340
 1.9580	 4.4630
 1.9590	 4.4930
 1.9600	 4.5240
 1.9610	 4.5560
 1.9620	 4.5900
 1.9630	 4.6270
 1.9640	 4.6670
 1.9650	 4.7060
 1.9660	 4.7440
 1.9670	 4.7810
 1.9680	 4.8170
 1.9690	 4.8490
 1.9700	 4.8870
 1.9710	 4.9270
 1.9720	 4.9680
 1.9730	 5.0120
 1.9740	 5.0570
 1.9750	 5.0930
 1.9760	 5.1350
 1.9770	 5.1750
 1.9780	 5.2140
 1.9790	 5.2590
 1.9800	 5.3100
 1.9810	 5.3590
 1.9820	 5.4120
 1.9830	 5.4620
 1.9840	 5.5100
 1.9850	 5.5590
 1.9860	 5.6060
 1.9870	 5.6550
 1.9880	 5.7050
 1.9890	 5.7570
 1.9900	 5.8110
 1.9910	 5.8630
 1.9920	 5.9170
 1.9930	 5.9730
 1.9940	 6.0290
 1.9950	 6.0870
 1.9960	 6.1420
 1.9970	 6.1960
 1.9980	 6.2510
 1.9990	 6.3050
 2.0000	 6.3590
 2.0010	 6.4170
 2.0020	 6.4750
 2.0030	 6.5310
 2.0040	 6.5850
 2.0050	 6.6430
 2.0060	 6.7050
 2.0070	 6.7630
 2.0080	 6.8240
 2.0090	 6.8800
 2.0100	 6.9300
 2.0110	 6.9840
 2.0120	 7.0360
 2.0130	 7.0920
 2.0140	 7.1470
 2.0150	 7.2030
 2.0160	 7.2600
 2.0170	 7.3170
 2.0180	 7.3740
 2.0190	 7.4330
 2.0200	 7.4880
 2.0210	 7.5390
 2.0220	 7.5910
 2.0230	 7.6430
 2.0240	 7.6950
 2.0250	 7.7450
 2.0260	 7.7960
 2.0270	 7.8470
 2.0280	 7.8980
 2.0290	 7.9490
 2.0300	 8.0010
 2.0310	 8.0510
 2.0320	 8.0980
 2.0330	 8.1470
 2.0340	 8.1960
 2.0350	 8.2460
 2.0360	 8.2990
 2.0370	 8.3480
 2.0380	 8.3930
 2.0390	 8.4390
 2.0400	 8.4800
 2.0410	 8.5250
 2.0420	 8.5730
 2.0430	 8.6200
 2.0440	 8.6650
 2.0450	 8.7100
 2.0460	 8.7550
 2.0470	 8.7960
 2.0480	 8.8410
 2.0490	 8.8890
 2.0500	 8.9340
 2.0510	 8.9770
 2.0520	 9.0200
 2.0530	 9.0580
 2.0540	 9.0990
 2.0550	 9.1400
 2.0560	 9.1820
 2.0570	 9.2280
 2.0580	 9.2740
 2.0590	 9.3210
 2.0600	 9.3720
 2.0610	 9.4170
 2.0620	 9.4610
 2.0630	 9.5050
 2.0640	 9.5440
 2.0650	 9.5860
 2.0660	 9.6310
 2.0670	 9.6730
 2.0680	 9.7140
 2.0690	 9.7550
 2.0700	 9.7910
 2.0710	 9.8320
 2.0720	 9.8760
 2.0730	 9.9220
 2.0740	 9.9670
 2.0750	10.0140
 2.0760	10.0600
 2.0770	10.1050
 2.0780	10.1510
 2.0790	10.1990
 2.0800	10.2450
 2.0810	10.2890
 2.0820	10.3330
 2.0830	10.3740
 2.0840	10.4180
 2.0850	10.4660
 2.0860	10.5100
 2.0870	10.5540
 2.0880	10.6020
 2.0890	10.6470
 2.0900	10.6880
 2.0910	10.7330
 2.0920	10.7810
 2.0930	10.8270
 2.0940	10.8740
 2.0950	10.9160
 2.0960	10.9560
 2.0970	10.9960
 2.0980	11.0280
 2.0990	11.0690
 2.1000	11.1170
 2.1010	11.1630
 2.1020	11.2180
 2.1030	11.2660
 2.1040	11.3100
 2.1050	11.3510
 2.1060	11.3930
 2.1070	11.4300
 2.1080	11.4710
 2.1090	11.5120
 2.1100	11.5540
 2.1110	11.5970
 2.1120	11.6400
 2.1130	11.6840
 2.1140	11.7270
 2.1150	11.7700
 2.1160	11.8140
 2.1170	11.8570
 2.1180	11.9010
 2.1190	11.9490
 2.1200	11.9940
 2.1210	12.0380
 2.1220	12.0810
 2.1230	12.1210
 2.1240	12.1580
 2.1250	12.1940
 2.1260	12.2270
 2.1270	12.2660
 2.1280	12.3080
 2.1290	12.3470
 2.1300	12.3910
 2.1310	12.4260
 2.1320	12.4510
 2.1330	12.4860
 2.1340	12.5210
 2.1350	12.5560
 2.1360	12.5960
 2.1370	12.6330
 2.1380	12.6670
 2.1390	12.6990
 2.1400	12.7290
 2.1410	12.7570
 2.1420	12.7900
 2.1430	12.8240
 2.1440	12.8520
 2.1450	12.8780
 2.1460	12.9080
 2.1470	12.9300
 2.1480	12.9600
 2.1490	13.0000
 2.1500	13.0330
 2.1510	13.0640
 2.1520	13.0940
 2.1530	13.1230
 2.1540	13.1490
 2.1550	13.1680
 2.1560	13.1930
 2.1570	13.2180
 2.1580	13.2420
 2.1590	13.2680
 2.1600	13.2950
 2.1610	13.3110
 2.1620	13.3290
 2.1630	13.3500
 2.1640	13.3690
 2.1650	13.3880
 2.1660	13.4100
 2.1670	13.4310
 2.1680	13.4520
 2.1690	13.4740
 2.1700	13.5030
 2.1710	13.5240
 2.1720	13.5380
 2.1730	13.5580
 2.1740	13.5760
 2.1750	13.5990
 2.1760	13.6320
 2.1770	13.6560
 2.1780	13.6770
 2.1790	13.6970
 2.1800	13.7080
 2.1810	13.7250
 2.1820	13.7490
 2.1830	13.7680
 2.1840	13.7870
 2.1850	13.8080
 2.1860	13.8260
 2.1870	13.8380
 2.1880	13.8560
 2.1890	13.8770
 2.1900	13.8920
 2.1910	13.9040
 2.1920	13.9170
 2.1930	13.9230
 2.1940	13.9350
 2.1950	13.9520
 2.1960	13.9670
 2.1970	13.9850
 2.1980	14.0000
 2.1990	14.0190
 2.2000	14.0280
 2.2010	14.0260
 2.2020	14.0310
 2.2030	14.0330
 2.2040	14.0370
 2.2050	14.0510
 2.2060	14.0630
 2.2070	14.0690
 2.2080	14.0730
 2.2090	14.0740
 2.2100	14.0700
 2.2110	14.0690
 2.2120	14.0690
 2.2130	14.0640
 2.2140	14.0560
 2.2150	14.0530
 2.2160	14.0500
 2.2170	14.0440
 2.2180	14.0410
 2.2190	14.0340
 2.2200	14.0210
 2.2210	14.0060
 2.2220	13.9880
 2.2230	13.9730
 2.2240	13.9530
 2.2250	13.9360
 2.2260	13.9300
 2.2270	13.9110
 2.2280	13.8840
 2.2290	13.8590
 2.2300	13.8280
 2.2310	13.7970
 2.2320	13.7610
 2.2330	13.7300
 2.2340	13.6920
 2.2350	13.6470
 2.2360	13.6060
 2.2370	13.5660
 2.2380	13.5250
 2.2390	13.4840
 2.2400	13.4430
 2.2410	13.4040
 2.2420	13.3580
 2.2430	13.3060
 2.2440	13.2590
 2.2450	13.2090
 2.2460	13.1620
 2.2470	13.1250
 2.2480	13.0760
 2.2490	13.0230
 2.2500	12.9670
 2.2510	12.9000
 2.2520	12.8390
 2.2530	12.7770
 2.2540	12.7190
 2.2550	12.6720
 2.2560	12.6150
 2.2570	12.5510
 2.2580	12.4940
 2.2590	12.4350
 2.2600	12.3740
 2.2610	12.3200
 2.2620	12.2650
 2.2630	12.1950
 2.2640	12.1300
 2.2650	12.0680
 2.2660	12.0030
 2.2670	11.9380
 2.2680	11.8720
 2.2690	11.8120
 2.2700	11.7510
 2.2710	11.6970
 2.2720	11.6540
 2.2730	11.6080
 2.2740	11.5640
 2.2750	11.5240
 2.2760	11.4860
 2.2770	11.4510
 2.2780	11.4220
 2.2790	11.3880
 2.2800	11.3560
 2.2810	11.3190
 2.2820	11.2740
 2.2830	11.2350
 2.2840	11.1970
 2.2850	11.1600
 2.2860	11.1250
 2.2870	11.0900
 2.2880	11.0560
 2.2890	11.0190
 2.2900	10.9810
 2.2910	10.9430
 2.2920	10.9040
 2.2930	10.8640
 2.2940	10.8300
 2.2950	10.7840
 2.2960	10.7220
 2.2970	10.6710
 2.2980	10.6210
 2.2990	10.5720
 2.3000	10.5300
 2.3010	10.4920
 2.3020	10.4360
 2.3030	10.3820
 2.3040	10.3410
 2.3050	10.2990
 2.3060	10.2610
 2.3070	10.2320
 2.3080	10.1940
 2.3090	10.1530
 2.3100	10.1320
 2.3110	10.1060
 2.3120	10.0760
 2.3130	10.0520
 2.3140	10.0240
 2.3150	 9.9860
 2.3160	 9.9630
 2.3170	 9.9540
 2.3180	 9.9350
 2.3190	 9.9180
 2.3200	 9.8920
 2.3210	 9.8580
 2.3220	 9.8260
 2.3230	 9.7870
 2.3240	 9.7540
 2.3250	 9.7230
 2.3260	 9.6910
 2.3270	 9.6690
 2.3280	 9.6320
 2.3290	 9.5850
 2.3300	 9.5440
 2.3310	 9.4990
 2.3320	 9.4550
 2.3330	 9.4130
 2.3340	 9.3750
 2.3350	 9.3370
 2.3360	 9.3030
 2.3370	 9.2870
 2.3380	 9.2510
 2.3390	 9.2040
 2.3400	 9.1580
 2.3410	 9.0950
 2.3420	 9.0450
 2.3430	 8.9980
 2.3440	 8.9600
 2.3450	 8.9350
 2.3460	 8.9030
 2.3470	 8.8790
 2.3480	 8.8460
 2.3490	 8.7970
 2.3500	 8.7550
 2.3510	 8.7110
 2.3520	 8.6710
 2.3530	 8.6300
 2.3540	 8.6110
 2.3550	 8.5840
 2.3560	 8.5670
 2.3570	 8.5470
 2.3580	 8.5060
 2.3590	 8.4660
 2.3600	 8.4150
 2.3610	 8.3720
 2.3620	 8.3450
 2.3630	 8.3150
 2.3640	 8.2960
 2.3650	 8.2600
 2.3660	 8.2150
 2.3670	 8.1800
 2.3680	 8.1280
 2.3690	 8.0810
 2.3700	 8.0480
 2.3710	 8.0070
 2.3720	 7.9650
 2.3730	 7.9360
 2.3740	 7.9040
 2.3750	 7.8630
 2.3760	 7.8410
 2.3770	 7.8220
 2.3780	 7.7890
 2.3790	 7.7670
 2.3800	 7.7430
 2.3810	 7.7140
 2.3820	 7.7040
 2.3830	 7.6730
 2.3840	 7.6240
 2.3850	 7.5810
 2.3860	 7.5160
 2.3870	 7.4730
 2.3880	 7.4530
 2.3890	 7.4170
 2.3900	 7.3890
 2.3910	 7.3650
 2.3920	 7.3230
 2.3930	 7.2920
 2.3940	 7.2650
 2.3950	 7.2060
 2.3960	 7.1610
 2.3970	 7.1330
 2.3980	 7.0940
 2.3990	 7.0660
 2.4000	 7.0400
 2.4010	 7.0050
 2.4020	 6.9670
 2.4030	 6.9410
 2.4040	 6.9200
 2.4050	 6.8640
 2.4060	 6.8070
 2.4070	 6.7710
 2.4080	 6.7230
 2.4090	 6.7030
 2.4100	 6.6950
 2.4110	 6.6560
 2.4120	 6.6190
 2.4130	 6.5720
 2.4140	 6.5250
 2.4150	 6.5030
 2.4160	 6.4740
 2.4170	 6.4650
 2.4180	 6.4470
 2.4190	 6.4000
 2.4200	 6.3580
 2.4210	 6.2940
 2.4220	 6.2450
 2.4230	 6.2170
 2.4240	 6.1810
 2.4250	 6.1340
 2.4260	 6.0950
 2.4270	 6.0640
 2.4280	 6.0300
 2.4290	 6.0200
 2.4300	 6.0060
 2.4310	 5.9690
 2.4320	 5.9240
 2.4330	 5.8770
 2.4340	 5.8370
 2.4350	 5.8090
 2.4360	 5.7890
 2.4370	 5.7770
 2.4380	 5.7620
 2.4390	 5.7250
 2.4400	 5.6840
 2.4410	 5.6330
 2.4420	 5.5690
 2.4430	 5.5240
 2.4440	 5.4910
 2.4450	 5.4530
 2.4460	 5.4170
 2.4470	 5.3830
 2.4480	 5.3420
 2.4490	 5.3100
 2.4500	 5.3010
 2.4510	 5.2530
 2.4520	 5.1990
 2.4530	 5.1700
 2.4540	 5.1000
 2.4550	 5.0620
 2.4560	 5.0460
 2.4570	 5.0040
 2.4580	 4.9920
 2.4590	 4.9770
 2.4600	 4.9580
 2.4610	 4.9210
 2.4620	 4.8970
 2.4630	 4.8910
 2.4640	 4.8420
 2.4650	 4.8410
 2.4660	 4.8560
 2.4670	 4.8050
 2.4680	 4.7810
 2.4690	 4.7550
 2.4700	 4.7100
 2.4710	 4.6710
 2.4720	 4.6510
 2.4730	 4.6330
 2.4740	 4.6340
 2.4750	 4.6690
 2.4760	 4.6740
 2.4770	 4.6590
 2.4780	 4.6260
 2.4790	 4.5620
 2.4800	 4.5490
 2.4810	 4.5580
 2.4820	 4.5570
 2.4830	 4.5880
 2.4840	 4.6330
 2.4850	 4.6380
 2.4860	 4.6330
 2.4870	 4.5980
 2.4880	 4.4870
 2.4890	 4.3680
 2.4900	 4.3130
 2.4910	 4.2990
 2.4920	 4.3170
 2.4930	 4.3450
 2.4940	 4.4390
 2.4950	 4.5290
 2.4960	 4.5600
 2.4970	 4.6240
 2.4980	 4.5990
 2.4990	 4.5260
 2.5000	 4.5080
