Name: Quercus lobata 2
Type: vegetation
Class: Tree
Genus: Quercus
Species: lobata
Sample No.: VH088
Owner: UCSB
Wavelength Range: TIR
Origin: 34.7146; -120.0588; WGS84
Collection Date: 4/21/2013
Description: Samples were collected as part of the HyspIRI Airborne Campaign. 48 individual plants were sampled in three times in 2013 - spring  summer  and fall. The name of the sample includes a 1  2  or 3 which references a different individual of the species. Samples were taken to JPL and processed within 48 hours of collection. The same leaves were processed in the Nicolet and then measured using the ASD.
Measurement: Hemispherical reflectance
First Column: X
Second Column: Y
X Units: Wavelength (micrometers)
Y Units: Reflectance (percentage)
First X Value: 2.501
Last X Value: 15.387
Number of X Values: 1737
Additional Information: vegetation.tree.quercus.lobata.tir.vh088.ucsb.nicolet.ancillary.txt

 2.5010	 7.5210
 2.5030	 7.5330
 2.5040	 7.6210
 2.5050	 7.6400
 2.5060	 7.6420
 2.5070	 7.5540
 2.5090	 7.5380
 2.5100	 7.5790
 2.5110	 7.5590
 2.5120	 7.4720
 2.5140	 7.5480
 2.5150	 7.6490
 2.5160	 7.7420
 2.5170	 7.7920
 2.5180	 7.7440
 2.5200	 7.5630
 2.5210	 7.4620
 2.5220	 7.4220
 2.5230	 7.5400
 2.5250	 7.7550
 2.5260	 7.8600
 2.5270	 7.5530
 2.5280	 7.4660
 2.5290	 7.4170
 2.5310	 7.3530
 2.5320	 7.3170
 2.5330	 7.4680
 2.5340	 7.4870
 2.5360	 7.6030
 2.5370	 7.5140
 2.5380	 7.5470
 2.5390	 7.5690
 2.5410	 7.4670
 2.5420	 7.3580
 2.5430	 7.3300
 2.5440	 7.3430
 2.5460	 7.3610
 2.5470	 7.4270
 2.5480	 7.5420
 2.5490	 7.5810
 2.5510	 7.6130
 2.5520	 7.3500
 2.5530	 7.3790
 2.5540	 7.4580
 2.5560	 7.5790
 2.5570	 7.4880
 2.5580	 7.3570
 2.5590	 7.3790
 2.5610	 7.3860
 2.5620	 7.3560
 2.5630	 7.5530
 2.5640	 7.7000
 2.5660	 7.7540
 2.5670	 7.6470
 2.5680	 7.6730
 2.5700	 7.6980
 2.5710	 7.4970
 2.5720	 7.3670
 2.5730	 7.4830
 2.5750	 7.4600
 2.5760	 7.6480
 2.5770	 7.7760
 2.5790	 7.6190
 2.5800	 7.4210
 2.5810	 7.5590
 2.5820	 7.5020
 2.5840	 7.4790
 2.5850	 7.4720
 2.5860	 7.5140
 2.5880	 7.4240
 2.5890	 7.3750
 2.5900	 7.3680
 2.5910	 7.5250
 2.5930	 7.5370
 2.5940	 7.5060
 2.5950	 7.4410
 2.5970	 7.3980
 2.5980	 7.3860
 2.5990	 7.4030
 2.6000	 7.4260
 2.6020	 7.5910
 2.6030	 7.5290
 2.6040	 7.5610
 2.6060	 7.4650
 2.6070	 7.4280
 2.6080	 7.3920
 2.6100	 7.3760
 2.6110	 7.3370
 2.6120	 7.3990
 2.6140	 7.2970
 2.6150	 7.2180
 2.6160	 7.1400
 2.6180	 7.0420
 2.6190	 7.0050
 2.6200	 7.1290
 2.6220	 7.0430
 2.6230	 7.0340
 2.6240	 7.0700
 2.6260	 7.0310
 2.6270	 6.9700
 2.6280	 7.0060
 2.6300	 6.9860
 2.6310	 6.9130
 2.6320	 6.6680
 2.6340	 6.7070
 2.6350	 6.8470
 2.6360	 6.8680
 2.6380	 6.8740
 2.6390	 6.8880
 2.6400	 6.8600
 2.6420	 6.8190
 2.6430	 6.8250
 2.6440	 6.7770
 2.6460	 6.7680
 2.6470	 6.8190
 2.6480	 6.6750
 2.6500	 6.6650
 2.6510	 6.6930
 2.6520	 6.7850
 2.6540	 6.6880
 2.6550	 6.7050
 2.6560	 6.6170
 2.6580	 6.4990
 2.6590	 6.5330
 2.6610	 6.5890
 2.6620	 6.6220
 2.6630	 6.5950
 2.6650	 6.5730
 2.6660	 6.5730
 2.6670	 6.5690
 2.6690	 6.6100
 2.6700	 6.5180
 2.6720	 6.5370
 2.6730	 6.4700
 2.6740	 6.4340
 2.6760	 6.3440
 2.6770	 6.3730
 2.6780	 6.3900
 2.6800	 6.3250
 2.6810	 6.0410
 2.6830	 6.0340
 2.6840	 6.1730
 2.6850	 6.2930
 2.6870	 6.2290
 2.6880	 6.1870
 2.6900	 6.0320
 2.6910	 5.9720
 2.6920	 6.0180
 2.6940	 6.0980
 2.6950	 5.9890
 2.6970	 5.8880
 2.6980	 5.7940
 2.6990	 5.8230
 2.7010	 5.8280
 2.7020	 5.9120
 2.7040	 5.7890
 2.7050	 5.6650
 2.7060	 5.6700
 2.7080	 5.6350
 2.7090	 5.2980
 2.7110	 5.4030
 2.7120	 5.4820
 2.7130	 5.5000
 2.7150	 5.3800
 2.7160	 5.2200
 2.7180	 5.0210
 2.7190	 5.0430
 2.7210	 5.1080
 2.7220	 5.1820
 2.7230	 5.1920
 2.7250	 5.1060
 2.7260	 4.9050
 2.7280	 4.9650
 2.7290	 4.7900
 2.7310	 4.5470
 2.7320	 4.3340
 2.7330	 4.3170
 2.7350	 4.2790
 2.7360	 4.3170
 2.7380	 4.3290
 2.7390	 4.2320
 2.7410	 4.0000
 2.7420	 3.9360
 2.7440	 4.0570
 2.7450	 4.1570
 2.7470	 3.9370
 2.7480	 3.8440
 2.7490	 3.9340
 2.7510	 4.0350
 2.7520	 3.8170
 2.7540	 3.6800
 2.7550	 3.6530
 2.7570	 3.6240
 2.7580	 3.6220
 2.7600	 3.6410
 2.7610	 3.5360
 2.7630	 3.5630
 2.7640	 3.5500
 2.7660	 3.5300
 2.7670	 3.4090
 2.7680	 3.5570
 2.7700	 3.6140
 2.7710	 3.6340
 2.7730	 3.5840
 2.7740	 3.5540
 2.7760	 3.4680
 2.7770	 3.4050
 2.7790	 3.2910
 2.7800	 3.3350
 2.7820	 3.2940
 2.7830	 3.2940
 2.7850	 3.3050
 2.7860	 3.1260
 2.7880	 3.0240
 2.7890	 3.2210
 2.7910	 3.2730
 2.7920	 3.3560
 2.7940	 3.2520
 2.7950	 3.1650
 2.7970	 3.0460
 2.7980	 3.0000
 2.8000	 2.9580
 2.8010	 3.0490
 2.8030	 3.2030
 2.8040	 3.2920
 2.8060	 3.0260
 2.8070	 2.8820
 2.8090	 2.9370
 2.8110	 3.0590
 2.8120	 2.9990
 2.8140	 3.0450
 2.8150	 3.0490
 2.8170	 3.0410
 2.8180	 2.9610
 2.8200	 3.1010
 2.8210	 3.0900
 2.8230	 3.0520
 2.8240	 3.0040
 2.8260	 2.9890
 2.8270	 2.9070
 2.8290	 2.9520
 2.8300	 3.0230
 2.8320	 3.0670
 2.8340	 2.9950
 2.8350	 3.0850
 2.8370	 3.1220
 2.8380	 3.0150
 2.8400	 2.8780
 2.8410	 2.8690
 2.8430	 2.8120
 2.8440	 2.9430
 2.8460	 3.0870
 2.8480	 3.1240
 2.8490	 2.9350
 2.8510	 2.8810
 2.8520	 2.8540
 2.8540	 2.9370
 2.8550	 2.9470
 2.8570	 2.8570
 2.8590	 2.8680
 2.8600	 2.9830
 2.8620	 2.9690
 2.8630	 2.9650
 2.8650	 2.8420
 2.8660	 2.7700
 2.8680	 2.7410
 2.8700	 2.6470
 2.8710	 2.5050
 2.8730	 2.5840
 2.8740	 2.7130
 2.8760	 2.6920
 2.8780	 2.6500
 2.8790	 2.9000
 2.8810	 3.0490
 2.8820	 3.1270
 2.8840	 2.9410
 2.8860	 2.7820
 2.8870	 2.8370
 2.8890	 3.0140
 2.8900	 2.8690
 2.8920	 2.9320
 2.8940	 2.9300
 2.8950	 2.9080
 2.8970	 2.9740
 2.8980	 2.9190
 2.9000	 2.6890
 2.9020	 2.6990
 2.9030	 2.7280
 2.9050	 2.8020
 2.9070	 2.8120
 2.9080	 2.9130
 2.9100	 2.9240
 2.9120	 2.8770
 2.9130	 2.6760
 2.9150	 2.5660
 2.9160	 2.6290
 2.9180	 2.8450
 2.9200	 2.8560
 2.9210	 2.8160
 2.9230	 2.6930
 2.9250	 2.7180
 2.9260	 2.8840
 2.9280	 3.0950
 2.9300	 3.0930
 2.9310	 3.0140
 2.9330	 2.8660
 2.9350	 2.7830
 2.9360	 2.6900
 2.9380	 2.4930
 2.9400	 2.5720
 2.9410	 2.9650
 2.9430	 3.0760
 2.9450	 2.9250
 2.9460	 2.9860
 2.9480	 3.0540
 2.9500	 3.0090
 2.9510	 2.9290
 2.9530	 2.7610
 2.9550	 2.9600
 2.9560	 3.3380
 2.9580	 3.3500
 2.9600	 2.9640
 2.9610	 2.9600
 2.9630	 2.9960
 2.9650	 2.7590
 2.9660	 2.5740
 2.9680	 2.4390
 2.9700	 2.6640
 2.9720	 2.7670
 2.9730	 2.5500
 2.9750	 2.8190
 2.9770	 3.5950
 2.9780	 3.4030
 2.9800	 2.6570
 2.9820	 2.5200
 2.9840	 2.8930
 2.9850	 3.3420
 2.9870	 3.0090
 2.9890	 2.8090
 2.9900	 2.4610
 2.9920	 2.4530
 2.9940	 2.6570
 2.9960	 2.6520
 2.9970	 2.2580
 2.9990	 2.3030
 3.0010	 2.5750
 3.0030	 2.8450
 3.0040	 3.1490
 3.0060	 3.3250
 3.0080	 3.2180
 3.0100	 2.8710
 3.0110	 3.3740
 3.0130	 3.9370
 3.0150	 3.4060
 3.0170	 2.8540
 3.0180	 2.7810
 3.0200	 3.2110
 3.0220	 3.0640
 3.0240	 2.9600
 3.0250	 2.9470
 3.0270	 3.1080
 3.0290	 3.1300
 3.0310	 3.0230
 3.0320	 2.9360
 3.0340	 3.3080
 3.0360	 3.2900
 3.0380	 3.3660
 3.0400	 3.4560
 3.0410	 3.7380
 3.0430	 3.6190
 3.0450	 2.8220
 3.0470	 2.5210
 3.0480	 2.5980
 3.0500	 2.6130
 3.0520	 3.2270
 3.0540	 3.5100
 3.0560	 3.6420
 3.0570	 3.7610
 3.0590	 2.9370
 3.0610	 2.7560
 3.0630	 3.4570
 3.0650	 3.2320
 3.0660	 2.9710
 3.0680	 2.8480
 3.0700	 2.9490
 3.0720	 3.0050
 3.0740	 3.1080
 3.0760	 3.0250
 3.0770	 3.1900
 3.0790	 3.2880
 3.0810	 3.3130
 3.0830	 3.2000
 3.0850	 3.1760
 3.0870	 3.0880
 3.0880	 3.0170
 3.0900	 3.0120
 3.0920	 3.1590
 3.0940	 3.0100
 3.0960	 3.0590
 3.0980	 3.0980
 3.0990	 3.0870
 3.1010	 3.1850
 3.1030	 3.1620
 3.1050	 3.0780
 3.1070	 3.2540
 3.1090	 3.3280
 3.1110	 3.2760
 3.1120	 3.1930
 3.1140	 3.2030
 3.1160	 3.1620
 3.1180	 3.1800
 3.1200	 3.2120
 3.1220	 3.2350
 3.1240	 3.1490
 3.1260	 3.2410
 3.1270	 3.2340
 3.1290	 3.3100
 3.1310	 3.3380
 3.1330	 3.3610
 3.1350	 3.3300
 3.1370	 3.2900
 3.1390	 3.1810
 3.1410	 3.4820
 3.1430	 3.5530
 3.1450	 3.4330
 3.1460	 3.5040
 3.1480	 3.7240
 3.1500	 3.7210
 3.1520	 3.6330
 3.1540	 3.5860
 3.1560	 3.6550
 3.1580	 3.4550
 3.1600	 3.1190
 3.1620	 3.3120
 3.1640	 3.7700
 3.1660	 3.7110
 3.1680	 3.8210
 3.1700	 3.9800
 3.1710	 4.2110
 3.1730	 3.7160
 3.1750	 3.2970
 3.1770	 3.4500
 3.1790	 3.6880
 3.1810	 3.6960
 3.1830	 3.7120
 3.1850	 3.8120
 3.1870	 3.7970
 3.1890	 3.6140
 3.1910	 3.4810
 3.1930	 3.3570
 3.1950	 3.5370
 3.1970	 3.4220
 3.1990	 3.5220
 3.2010	 3.5810
 3.2030	 3.6430
 3.2050	 3.4670
 3.2070	 3.4300
 3.2090	 3.4960
 3.2110	 3.6010
 3.2130	 3.5910
 3.2150	 3.6260
 3.2170	 3.6800
 3.2190	 3.7620
 3.2210	 3.8150
 3.2230	 3.8790
 3.2250	 3.9750
 3.2270	 3.9040
 3.2290	 3.6550
 3.2310	 3.7260
 3.2330	 3.6990
 3.2350	 3.6760
 3.2370	 3.7220
 3.2390	 3.8770
 3.2410	 3.9590
 3.2430	 3.9770
 3.2450	 3.8710
 3.2470	 3.9120
 3.2490	 3.8560
 3.2510	 3.7980
 3.2530	 3.6810
 3.2550	 3.6860
 3.2570	 3.8550
 3.2590	 3.9370
 3.2610	 3.8590
 3.2630	 3.8530
 3.2650	 3.8930
 3.2670	 4.1650
 3.2690	 4.2820
 3.2720	 4.1490
 3.2740	 3.9350
 3.2760	 3.9540
 3.2780	 3.9350
 3.2800	 4.0170
 3.2820	 4.0740
 3.2840	 4.1710
 3.2860	 4.1160
 3.2880	 4.1470
 3.2900	 4.0580
 3.2920	 4.0110
 3.2940	 3.8820
 3.2960	 4.0480
 3.2990	 4.1730
 3.3010	 4.0990
 3.3030	 3.9720
 3.3050	 4.0470
 3.3070	 4.0150
 3.3090	 4.0780
 3.3110	 4.1220
 3.3130	 4.1810
 3.3150	 4.1010
 3.3180	 4.1150
 3.3200	 4.1550
 3.3220	 4.2500
 3.3240	 4.2740
 3.3260	 4.2370
 3.3280	 4.1910
 3.3300	 4.3040
 3.3330	 4.3950
 3.3350	 4.4320
 3.3370	 4.2970
 3.3390	 4.1910
 3.3410	 4.0710
 3.3430	 4.1360
 3.3450	 4.2720
 3.3480	 4.3040
 3.3500	 4.1810
 3.3520	 4.1720
 3.3540	 4.1880
 3.3560	 4.2390
 3.3580	 4.1620
 3.3610	 4.1530
 3.3630	 4.0630
 3.3650	 4.0300
 3.3670	 4.1230
 3.3690	 4.1340
 3.3720	 4.0280
 3.3740	 3.9280
 3.3760	 3.8430
 3.3780	 3.9740
 3.3800	 3.9840
 3.3830	 3.8440
 3.3850	 3.6650
 3.3870	 3.7780
 3.3890	 3.7750
 3.3910	 3.6990
 3.3940	 3.6600
 3.3960	 3.6990
 3.3980	 3.5740
 3.4000	 3.6090
 3.4020	 3.6850
 3.4050	 3.7520
 3.4070	 3.7470
 3.4090	 3.8860
 3.4110	 3.9350
 3.4140	 3.9990
 3.4160	 4.1990
 3.4180	 4.3710
 3.4200	 4.4140
 3.4230	 4.5910
 3.4250	 4.7440
 3.4270	 4.8820
 3.4290	 4.8950
 3.4320	 4.9170
 3.4340	 4.7730
 3.4360	 4.5840
 3.4390	 4.5300
 3.4410	 4.5850
 3.4430	 4.5260
 3.4450	 4.4520
 3.4480	 4.3740
 3.4500	 4.5090
 3.4520	 4.5430
 3.4550	 4.5460
 3.4570	 4.4570
 3.4590	 4.5350
 3.4620	 4.6050
 3.4640	 4.5140
 3.4660	 4.4780
 3.4680	 4.5490
 3.4710	 4.5650
 3.4730	 4.5750
 3.4750	 4.4500
 3.4780	 4.4430
 3.4800	 4.5330
 3.4820	 4.5020
 3.4850	 4.3590
 3.4870	 4.3820
 3.4890	 4.3990
 3.4920	 4.4720
 3.4940	 4.4610
 3.4970	 4.5090
 3.4990	 4.5280
 3.5010	 4.5410
 3.5040	 4.6040
 3.5060	 4.8230
 3.5080	 5.0290
 3.5110	 5.2310
 3.5130	 5.1770
 3.5160	 5.0920
 3.5180	 5.0210
 3.5200	 5.1280
 3.5230	 5.1470
 3.5250	 5.1690
 3.5270	 5.1830
 3.5300	 5.2070
 3.5320	 5.1550
 3.5350	 5.1700
 3.5370	 5.2600
 3.5400	 5.2910
 3.5420	 5.2030
 3.5440	 5.1950
 3.5470	 5.1800
 3.5490	 5.2660
 3.5520	 5.3460
 3.5540	 5.3640
 3.5570	 5.4050
 3.5590	 5.4700
 3.5610	 5.4380
 3.5640	 5.4190
 3.5660	 5.3850
 3.5690	 5.4440
 3.5710	 5.4490
 3.5740	 5.4640
 3.5760	 5.3820
 3.5790	 5.3530
 3.5810	 5.4030
 3.5840	 5.4650
 3.5860	 5.4670
 3.5890	 5.5080
 3.5910	 5.4930
 3.5930	 5.5210
 3.5960	 5.5010
 3.5980	 5.5400
 3.6010	 5.4990
 3.6030	 5.5170
 3.6060	 5.5000
 3.6080	 5.4850
 3.6110	 5.4860
 3.6140	 5.5960
 3.6160	 5.6440
 3.6190	 5.5940
 3.6210	 5.5800
 3.6240	 5.6230
 3.6260	 5.5480
 3.6290	 5.4930
 3.6310	 5.5410
 3.6340	 5.5570
 3.6360	 5.5550
 3.6390	 5.5290
 3.6410	 5.5340
 3.6440	 5.5530
 3.6470	 5.4890
 3.6490	 5.5530
 3.6520	 5.5870
 3.6540	 5.6230
 3.6570	 5.6070
 3.6590	 5.5750
 3.6620	 5.5520
 3.6650	 5.6260
 3.6670	 5.5580
 3.6700	 5.5650
 3.6720	 5.7180
 3.6750	 5.8050
 3.6780	 5.6960
 3.6800	 5.6330
 3.6830	 5.7270
 3.6850	 5.7470
 3.6880	 5.7450
 3.6910	 5.8330
 3.6930	 5.7980
 3.6960	 5.7910
 3.6990	 5.7370
 3.7010	 5.7150
 3.7040	 5.7700
 3.7060	 5.8030
 3.7090	 5.7540
 3.7120	 5.7570
 3.7140	 5.7740
 3.7170	 5.8540
 3.7200	 5.8890
 3.7220	 5.8710
 3.7250	 5.8570
 3.7280	 5.8520
 3.7300	 5.7440
 3.7330	 5.7720
 3.7360	 5.7890
 3.7390	 5.7630
 3.7410	 5.7110
 3.7440	 5.7920
 3.7470	 5.7870
 3.7490	 5.8610
 3.7520	 5.9410
 3.7550	 5.9850
 3.7580	 5.9070
 3.7600	 5.8780
 3.7630	 5.8580
 3.7660	 5.8990
 3.7680	 5.8980
 3.7710	 5.9000
 3.7740	 5.9560
 3.7770	 6.0090
 3.7790	 5.9730
 3.7820	 5.9800
 3.7850	 5.9590
 3.7880	 5.9460
 3.7900	 5.9750
 3.7930	 5.9630
 3.7960	 5.8610
 3.7990	 5.7710
 3.8020	 5.7650
 3.8040	 5.8590
 3.8070	 5.9470
 3.8100	 6.0330
 3.8130	 6.0270
 3.8160	 6.0170
 3.8180	 6.0210
 3.8210	 5.9740
 3.8240	 5.9870
 3.8270	 6.0200
 3.8300	 6.0030
 3.8330	 6.0130
 3.8350	 5.9550
 3.8380	 6.0070
 3.8410	 6.1530
 3.8440	 6.1520
 3.8470	 6.0140
 3.8500	 5.9920
 3.8520	 6.0710
 3.8550	 6.1470
 3.8580	 6.1180
 3.8610	 6.1100
 3.8640	 6.1370
 3.8670	 6.1610
 3.8700	 6.2080
 3.8730	 6.2470
 3.8750	 6.1610
 3.8780	 6.1180
 3.8810	 6.1120
 3.8840	 6.1160
 3.8870	 6.0750
 3.8900	 6.1490
 3.8930	 6.1690
 3.8960	 6.1900
 3.8990	 6.1690
 3.9020	 6.1470
 3.9050	 6.1320
 3.9080	 6.1910
 3.9110	 6.1520
 3.9140	 6.1540
 3.9160	 6.2040
 3.9190	 6.2380
 3.9220	 6.2180
 3.9250	 6.2260
 3.9280	 6.1970
 3.9310	 6.1840
 3.9340	 6.2100
 3.9370	 6.2230
 3.9400	 6.1580
 3.9430	 6.2070
 3.9460	 6.1990
 3.9490	 6.2120
 3.9520	 6.1900
 3.9550	 6.1910
 3.9580	 6.2420
 3.9610	 6.2660
 3.9640	 6.2370
 3.9670	 6.2380
 3.9700	 6.2150
 3.9730	 6.2010
 3.9770	 6.1610
 3.9800	 6.1920
 3.9830	 6.2160
 3.9860	 6.2950
 3.9890	 6.3630
 3.9920	 6.3650
 3.9950	 6.3030
 3.9980	 6.2840
 4.0010	 6.1850
 4.0040	 6.1630
 4.0070	 6.2310
 4.0100	 6.2340
 4.0130	 6.2450
 4.0170	 6.2970
 4.0200	 6.2970
 4.0230	 6.2580
 4.0260	 6.2070
 4.0290	 6.1960
 4.0320	 6.2980
 4.0350	 6.4050
 4.0380	 6.3650
 4.0420	 6.3030
 4.0450	 6.3100
 4.0480	 6.3050
 4.0510	 6.3060
 4.0540	 6.3920
 4.0570	 6.4020
 4.0610	 6.3240
 4.0640	 6.2910
 4.0670	 6.3240
 4.0700	 6.2990
 4.0730	 6.2390
 4.0770	 6.2540
 4.0800	 6.2440
 4.0830	 6.2410
 4.0860	 6.3670
 4.0890	 6.3220
 4.0930	 6.2810
 4.0960	 6.3020
 4.0990	 6.2490
 4.1020	 6.3060
 4.1060	 6.3610
 4.1090	 6.2790
 4.1120	 6.2940
 4.1150	 6.2850
 4.1190	 6.2650
 4.1220	 6.3630
 4.1250	 6.3840
 4.1280	 6.3180
 4.1320	 6.3700
 4.1350	 6.3690
 4.1380	 6.4200
 4.1420	 6.4140
 4.1450	 6.4010
 4.1480	 6.3900
 4.1520	 6.3550
 4.1550	 6.3180
 4.1580	 6.4390
 4.1620	 6.4330
 4.1650	 6.3020
 4.1680	 6.2880
 4.1720	 6.3800
 4.1750	 6.3480
 4.1780	 6.3140
 4.1820	 6.2710
 4.1850	 6.2740
 4.1890	 6.3620
 4.1920	 6.4210
 4.1950	 6.3700
 4.1990	 6.3450
 4.2020	 6.2660
 4.2060	 6.1480
 4.2090	 6.1460
 4.2120	 6.1040
 4.2160	 6.0210
 4.2190	 6.0830
 4.2230	 6.0130
 4.2260	 5.7740
 4.2300	 5.5420
 4.2330	 5.6330
 4.2360	 5.8880
 4.2400	 5.7410
 4.2430	 5.5900
 4.2470	 5.7800
 4.2500	 5.8830
 4.2540	 6.0080
 4.2570	 6.1620
 4.2610	 6.2150
 4.2640	 6.1500
 4.2680	 6.0520
 4.2710	 5.9190
 4.2750	 5.8860
 4.2780	 5.8630
 4.2820	 5.8360
 4.2850	 5.9670
 4.2890	 5.9270
 4.2930	 5.8670
 4.2960	 5.9410
 4.3000	 5.9650
 4.3030	 6.1030
 4.3070	 6.1310
 4.3100	 6.1590
 4.3140	 6.1070
 4.3180	 6.0190
 4.3210	 5.9710
 4.3250	 6.0490
 4.3280	 6.0910
 4.3320	 6.1140
 4.3360	 6.0900
 4.3390	 6.1410
 4.3430	 6.1760
 4.3470	 6.2270
 4.3500	 6.2110
 4.3540	 6.1880
 4.3570	 6.1750
 4.3610	 6.1790
 4.3650	 6.1910
 4.3680	 6.2320
 4.3720	 6.2040
 4.3760	 6.1710
 4.3800	 6.2440
 4.3830	 6.2530
 4.3870	 6.2410
 4.3910	 6.2450
 4.3940	 6.1350
 4.3980	 6.0680
 4.4020	 6.1450
 4.4060	 6.3220
 4.4090	 6.3550
 4.4130	 6.3160
 4.4170	 6.1850
 4.4210	 6.0980
 4.4240	 6.1210
 4.4280	 6.1590
 4.4320	 6.1000
 4.4360	 6.1420
 4.4400	 6.1250
 4.4430	 6.1550
 4.4470	 6.2010
 4.4510	 6.1710
 4.4550	 6.1150
 4.4590	 6.1910
 4.4620	 6.2520
 4.4660	 6.2120
 4.4700	 6.2270
 4.4740	 6.1970
 4.4780	 6.1080
 4.4820	 6.1750
 4.4860	 6.2050
 4.4900	 6.1310
 4.4930	 6.1460
 4.4970	 6.1740
 4.5010	 6.1640
 4.5050	 6.1180
 4.5090	 6.0810
 4.5130	 6.0800
 4.5170	 6.1020
 4.5210	 6.0880
 4.5250	 6.1140
 4.5290	 6.1210
 4.5330	 6.0530
 4.5370	 6.0250
 4.5410	 6.0510
 4.5450	 6.0600
 4.5490	 6.0870
 4.5530	 6.0850
 4.5570	 6.1150
 4.5610	 6.1050
 4.5650	 6.0460
 4.5690	 6.0220
 4.5730	 6.0500
 4.5770	 6.0240
 4.5810	 5.9540
 4.5850	 6.0170
 4.5890	 6.0960
 4.5930	 6.0380
 4.5970	 6.0030
 4.6010	 6.0430
 4.6050	 6.0620
 4.6090	 6.0250
 4.6130	 5.9830
 4.6170	 5.9320
 4.6220	 6.0030
 4.6260	 6.0860
 4.6300	 6.0370
 4.6340	 6.0840
 4.6380	 6.0830
 4.6420	 5.9730
 4.6460	 5.8910
 4.6510	 5.8530
 4.6550	 5.8620
 4.6590	 5.9210
 4.6630	 5.9060
 4.6670	 5.8990
 4.6720	 5.8830
 4.6760	 5.8750
 4.6800	 5.8830
 4.6840	 5.8690
 4.6880	 5.8480
 4.6930	 5.8370
 4.6970	 5.8480
 4.7010	 5.9190
 4.7050	 5.9450
 4.7100	 5.9150
 4.7140	 5.9660
 4.7180	 5.9340
 4.7230	 5.9120
 4.7270	 5.9950
 4.7310	 6.0430
 4.7360	 5.9390
 4.7400	 5.8720
 4.7440	 5.9240
 4.7490	 5.9820
 4.7530	 6.0010
 4.7570	 5.9780
 4.7620	 5.8870
 4.7660	 5.9710
 4.7700	 6.0150
 4.7750	 5.9200
 4.7790	 5.8560
 4.7840	 5.8430
 4.7880	 5.7930
 4.7920	 5.9040
 4.7970	 6.0320
 4.8010	 5.9090
 4.8060	 5.9170
 4.8100	 5.9690
 4.8150	 5.9310
 4.8190	 5.9240
 4.8240	 5.9840
 4.8280	 6.0090
 4.8330	 6.0320
 4.8370	 5.9800
 4.8420	 5.9270
 4.8460	 5.8940
 4.8510	 5.9240
 4.8550	 5.9750
 4.8600	 5.9980
 4.8640	 6.0050
 4.8690	 5.9470
 4.8730	 5.9300
 4.8780	 5.9950
 4.8830	 5.9910
 4.8870	 5.9380
 4.8920	 5.9460
 4.8960	 5.9710
 4.9010	 6.0280
 4.9060	 6.0560
 4.9100	 6.0740
 4.9150	 6.0900
 4.9200	 6.0810
 4.9240	 6.0540
 4.9290	 6.0320
 4.9340	 6.0450
 4.9380	 6.1170
 4.9430	 6.1500
 4.9480	 6.1400
 4.9530	 6.1070
 4.9570	 6.1280
 4.9620	 6.1010
 4.9670	 6.0890
 4.9720	 6.1440
 4.9760	 6.1750
 4.9810	 6.1200
 4.9860	 6.1060
 4.9910	 6.1880
 4.9960	 6.2120
 5.0000	 6.1360
 5.0050	 6.1360
 5.0100	 6.2200
 5.0150	 6.2010
 5.0200	 6.1850
 5.0250	 6.2660
 5.0290	 6.2660
 5.0340	 6.2300
 5.0390	 6.1830
 5.0440	 6.1500
 5.0490	 6.1770
 5.0540	 6.2510
 5.0590	 6.2820
 5.0640	 6.2080
 5.0690	 6.1690
 5.0740	 6.2000
 5.0790	 6.1840
 5.0840	 6.1330
 5.0890	 6.1300
 5.0940	 6.1670
 5.0990	 6.1660
 5.1040	 6.2140
 5.1090	 6.2310
 5.1140	 6.2070
 5.1190	 6.1650
 5.1240	 6.1630
 5.1290	 6.2000
 5.1340	 6.2660
 5.1390	 6.2240
 5.1440	 6.1140
 5.1490	 6.0700
 5.1540	 6.1130
 5.1600	 6.1320
 5.1650	 6.1840
 5.1700	 6.1480
 5.1750	 6.1650
 5.1800	 6.1850
 5.1850	 6.2480
 5.1910	 6.2980
 5.1960	 6.3120
 5.2010	 6.2490
 5.2060	 6.2180
 5.2110	 6.2500
 5.2170	 6.2150
 5.2220	 6.2240
 5.2270	 6.3090
 5.2320	 6.2970
 5.2380	 6.2720
 5.2430	 6.2020
 5.2480	 6.1090
 5.2540	 6.1330
 5.2590	 6.2610
 5.2640	 6.2150
 5.2700	 6.1360
 5.2750	 6.1400
 5.2800	 6.1390
 5.2860	 6.0480
 5.2910	 6.1310
 5.2970	 6.2040
 5.3020	 6.1800
 5.3070	 6.1580
 5.3130	 6.2080
 5.3180	 6.2040
 5.3240	 6.0910
 5.3290	 6.0540
 5.3350	 6.1480
 5.3400	 6.1650
 5.3460	 6.1420
 5.3510	 6.0960
 5.3570	 6.1460
 5.3620	 6.1210
 5.3680	 6.0740
 5.3730	 5.9900
 5.3790	 6.0180
 5.3850	 6.0050
 5.3900	 5.9750
 5.3960	 5.9050
 5.4010	 5.9630
 5.4070	 6.0780
 5.4130	 6.0640
 5.4180	 5.9510
 5.4240	 5.8920
 5.4300	 5.9920
 5.4350	 6.0290
 5.4410	 5.9390
 5.4470	 5.8380
 5.4530	 5.8330
 5.4580	 5.9670
 5.4640	 5.9510
 5.4700	 5.8630
 5.4760	 5.7830
 5.4810	 5.7400
 5.4870	 5.7030
 5.4930	 5.7560
 5.4990	 5.7430
 5.5050	 5.6850
 5.5110	 5.7240
 5.5160	 5.7190
 5.5220	 5.6230
 5.5280	 5.6000
 5.5340	 5.5640
 5.5400	 5.5590
 5.5460	 5.4930
 5.5520	 5.4740
 5.5580	 5.4580
 5.5640	 5.4650
 5.5700	 5.4130
 5.5760	 5.4410
 5.5820	 5.4170
 5.5880	 5.3590
 5.5940	 5.2020
 5.6000	 5.1830
 5.6060	 5.1190
 5.6120	 5.0610
 5.6180	 5.0240
 5.6240	 4.9980
 5.6300	 4.8950
 5.6360	 4.8460
 5.6420	 4.8160
 5.6490	 4.7150
 5.6550	 4.4620
 5.6610	 4.3850
 5.6670	 4.2520
 5.6730	 4.1260
 5.6800	 4.0200
 5.6860	 3.9400
 5.6920	 3.8770
 5.6980	 3.8130
 5.7040	 3.5500
 5.7110	 3.3400
 5.7170	 3.2000
 5.7230	 3.1640
 5.7300	 3.0740
 5.7360	 2.8910
 5.7420	 2.7480
 5.7490	 2.8060
 5.7550	 2.9390
 5.7620	 3.1590
 5.7680	 3.2220
 5.7740	 3.3080
 5.7810	 3.3880
 5.7870	 3.5650
 5.7940	 3.7240
 5.8000	 3.8870
 5.8070	 3.9890
 5.8130	 4.1440
 5.8200	 4.1230
 5.8260	 4.1910
 5.8330	 4.2200
 5.8390	 4.2850
 5.8460	 4.3130
 5.8530	 4.4510
 5.8590	 4.5460
 5.8660	 4.6630
 5.8720	 4.7800
 5.8790	 4.8250
 5.8860	 4.7290
 5.8920	 4.6540
 5.8990	 4.6630
 5.9060	 4.7390
 5.9130	 4.7850
 5.9190	 4.8190
 5.9260	 4.6750
 5.9330	 4.5970
 5.9400	 4.4570
 5.9470	 4.4060
 5.9530	 4.2770
 5.9600	 4.1950
 5.9670	 4.0470
 5.9740	 4.1050
 5.9810	 4.1520
 5.9880	 4.1710
 5.9950	 4.0590
 6.0020	 3.9470
 6.0090	 3.8050
 6.0160	 3.7530
 6.0230	 3.7620
 6.0300	 3.8470
 6.0370	 3.8940
 6.0440	 3.9820
 6.0510	 3.9110
 6.0580	 3.7790
 6.0650	 3.6820
 6.0720	 3.7000
 6.0790	 3.5920
 6.0860	 3.5330
 6.0930	 3.5890
 6.1000	 3.7420
 6.1080	 3.7990
 6.1150	 3.8630
 6.1220	 3.7340
 6.1290	 3.7050
 6.1370	 3.7400
 6.1440	 3.8090
 6.1510	 3.8120
 6.1580	 3.8430
 6.1660	 3.7830
 6.1730	 3.7510
 6.1800	 3.5800
 6.1880	 3.6510
 6.1950	 3.6190
 6.2030	 3.6790
 6.2100	 3.7520
 6.2170	 3.8430
 6.2250	 3.8330
 6.2320	 3.9280
 6.2400	 3.8430
 6.2470	 3.8390
 6.2550	 3.8520
 6.2630	 3.9720
 6.2700	 4.0320
 6.2780	 4.1080
 6.2850	 4.0760
 6.2930	 4.1890
 6.3010	 4.1970
 6.3080	 4.2510
 6.3160	 4.2100
 6.3240	 4.3050
 6.3310	 4.3710
 6.3390	 4.4460
 6.3470	 4.4080
 6.3550	 4.4140
 6.3620	 4.3640
 6.3700	 4.4230
 6.3780	 4.4530
 6.3860	 4.5230
 6.3940	 4.4620
 6.4020	 4.4840
 6.4100	 4.5210
 6.4180	 4.5930
 6.4260	 4.5730
 6.4330	 4.6410
 6.4410	 4.6310
 6.4490	 4.6540
 6.4580	 4.5420
 6.4660	 4.5780
 6.4740	 4.6690
 6.4820	 4.7190
 6.4900	 4.6050
 6.4980	 4.6550
 6.5060	 4.6590
 6.5140	 4.6010
 6.5230	 4.4180
 6.5310	 4.3550
 6.5390	 4.2740
 6.5470	 4.2610
 6.5550	 4.1890
 6.5640	 4.0910
 6.5720	 3.8600
 6.5800	 3.8300
 6.5890	 3.9060
 6.5970	 4.0380
 6.6060	 4.0280
 6.6140	 4.0930
 6.6220	 4.1040
 6.6310	 4.2460
 6.6390	 4.2260
 6.6480	 4.2890
 6.6560	 4.2360
 6.6650	 4.1880
 6.6740	 4.1910
 6.6820	 4.3050
 6.6910	 4.2610
 6.6990	 4.3070
 6.7080	 4.2860
 6.7170	 4.2610
 6.7260	 4.2980
 6.7340	 4.4380
 6.7430	 4.3030
 6.7520	 4.1930
 6.7610	 4.0700
 6.7690	 4.1060
 6.7780	 3.9800
 6.7870	 3.7770
 6.7960	 3.6340
 6.8050	 3.6750
 6.8140	 3.6410
 6.8230	 3.7260
 6.8320	 3.7760
 6.8410	 3.9100
 6.8500	 3.9490
 6.8590	 3.9370
 6.8680	 3.8340
 6.8770	 3.8860
 6.8860	 3.8880
 6.8950	 3.9910
 6.9050	 3.9090
 6.9140	 3.9140
 6.9230	 3.8500
 6.9320	 3.9160
 6.9420	 3.9290
 6.9510	 3.9560
 6.9600	 4.0270
 6.9700	 4.0720
 6.9790	 3.8970
 6.9880	 3.9470
 6.9980	 3.9250
 7.0070	 3.9260
 7.0170	 3.8290
 7.0260	 3.9160
 7.0360	 4.0010
 7.0450	 4.0610
 7.0550	 3.9450
 7.0650	 4.0470
 7.0740	 4.0020
 7.0840	 4.0450
 7.0940	 4.0530
 7.1030	 4.0850
 7.1130	 3.9950
 7.1230	 3.9960
 7.1330	 3.8840
 7.1420	 3.9050
 7.1520	 3.7820
 7.1620	 3.7870
 7.1720	 3.7550
 7.1820	 3.7680
 7.1920	 3.6260
 7.2020	 3.6090
 7.2120	 3.5980
 7.2220	 3.6340
 7.2320	 3.4740
 7.2420	 3.4650
 7.2520	 3.3880
 7.2620	 3.3010
 7.2730	 3.2160
 7.2830	 3.3640
 7.2930	 3.4300
 7.3030	 3.6310
 7.3140	 3.6120
 7.3240	 3.4940
 7.3340	 3.3290
 7.3450	 3.4790
 7.3550	 3.6150
 7.3660	 3.7610
 7.3760	 3.7390
 7.3870	 3.7780
 7.3970	 3.7830
 7.4080	 3.9130
 7.4180	 3.8420
 7.4290	 3.8900
 7.4400	 3.9120
 7.4500	 3.9870
 7.4610	 3.8280
 7.4720	 3.7960
 7.4830	 3.7250
 7.4930	 3.7410
 7.5040	 3.6860
 7.5150	 3.6340
 7.5260	 3.5400
 7.5370	 3.6170
 7.5480	 3.5840
 7.5590	 3.5750
 7.5700	 3.4290
 7.5810	 3.5210
 7.5920	 3.4860
 7.6030	 3.5250
 7.6140	 3.5160
 7.6260	 3.6450
 7.6370	 3.5780
 7.6480	 3.5310
 7.6590	 3.5260
 7.6710	 3.6380
 7.6820	 3.5880
 7.6930	 3.6150
 7.7050	 3.5200
 7.7160	 3.5680
 7.7280	 3.4790
 7.7390	 3.5000
 7.7510	 3.3880
 7.7630	 3.3360
 7.7740	 3.3050
 7.7860	 3.5370
 7.7980	 3.4830
 7.8090	 3.4130
 7.8210	 3.2980
 7.8330	 3.4170
 7.8450	 3.4250
 7.8570	 3.5430
 7.8690	 3.4200
 7.8810	 3.3650
 7.8930	 3.3330
 7.9050	 3.3580
 7.9170	 3.2840
 7.9290	 3.3460
 7.9410	 3.2020
 7.9530	 3.3720
 7.9650	 3.4070
 7.9780	 3.5050
 7.9900	 3.4550
 8.0020	 3.4640
 8.0150	 3.3800
 8.0270	 3.5430
 8.0390	 3.5220
 8.0520	 3.6610
 8.0640	 3.6500
 8.0770	 3.6640
 8.0900	 3.5080
 8.1020	 3.5530
 8.1150	 3.5420
 8.1280	 3.7170
 8.1400	 3.8000
 8.1530	 3.7980
 8.1660	 3.6540
 8.1790	 3.6700
 8.1920	 3.4690
 8.2050	 3.6970
 8.2180	 3.7030
 8.2310	 3.7810
 8.2440	 3.7990
 8.2570	 3.9380
 8.2700	 3.9980
 8.2830	 4.0960
 8.2970	 3.8680
 8.3100	 4.0850
 8.3230	 4.0890
 8.3370	 4.0790
 8.3500	 3.9240
 8.3640	 4.0070
 8.3770	 4.0710
 8.3910	 4.1180
 8.4040	 3.9650
 8.4180	 4.0970
 8.4320	 4.0330
 8.4450	 4.0910
 8.4590	 4.0460
 8.4730	 4.2320
 8.4870	 4.0910
 8.5010	 4.1430
 8.5150	 4.1960
 8.5290	 4.3600
 8.5430	 4.3980
 8.5570	 4.5570
 8.5710	 4.3880
 8.5850	 4.3580
 8.5990	 4.1220
 8.6140	 4.3090
 8.6280	 4.3800
 8.6420	 4.5270
 8.6570	 4.2880
 8.6710	 4.2200
 8.6860	 4.2910
 8.7000	 4.5090
 8.7150	 4.3900
 8.7300	 4.3970
 8.7440	 4.3770
 8.7590	 4.4640
 8.7740	 4.2610
 8.7890	 4.5230
 8.8040	 4.3450
 8.8190	 4.2160
 8.8340	 3.9900
 8.8490	 4.0010
 8.8640	 3.8000
 8.8790	 3.8690
 8.8940	 3.8700
 8.9100	 4.0380
 8.9250	 3.7940
 8.9400	 3.7780
 8.9560	 3.5960
 8.9710	 3.6950
 8.9870	 3.5370
 9.0020	 3.7150
 9.0180	 3.7800
 9.0340	 3.8570
 9.0500	 3.5640
 9.0650	 3.5360
 9.0810	 3.4740
 9.0970	 3.6690
 9.1130	 3.7550
 9.1290	 3.9960
 9.1450	 3.8360
 9.1610	 3.8160
 9.1780	 3.6210
 9.1940	 3.9300
 9.2100	 3.8010
 9.2270	 3.6400
 9.2430	 3.4030
 9.2600	 3.6510
 9.2760	 3.5240
 9.2930	 3.5630
 9.3090	 3.4680
 9.3260	 3.6080
 9.3430	 3.4660
 9.3600	 3.5160
 9.3770	 3.4180
 9.3940	 3.5200
 9.4110	 3.3120
 9.4280	 3.3940
 9.4450	 3.2860
 9.4620	 3.3250
 9.4800	 3.1970
 9.4970	 3.3100
 9.5140	 3.2000
 9.5320	 3.4330
 9.5500	 3.2980
 9.5670	 3.3740
 9.5850	 3.3030
 9.6030	 3.5000
 9.6200	 3.4150
 9.6380	 3.5190
 9.6560	 3.4910
 9.6740	 3.5610
 9.6920	 3.3660
 9.7100	 3.5220
 9.7290	 3.3370
 9.7470	 3.5510
 9.7650	 3.5860
 9.7840	 3.7410
 9.8020	 3.5920
 9.8210	 3.7000
 9.8390	 3.6400
 9.8580	 3.8960
 9.8770	 3.7950
 9.8960	 3.8860
 9.9150	 3.8620
 9.9340	 3.9840
 9.9530	 3.9400
 9.9720	 4.0550
 9.9910	 3.8070
10.0100	 3.8890
10.0300	 3.7830
10.0490	 3.9140
10.0690	 4.0550
10.0880	 4.3140
10.1080	 4.0400
10.1280	 4.1820
10.1480	 4.1250
10.1670	 4.2620
10.1870	 4.2430
10.2070	 4.5700
10.2280	 4.6630
10.2480	 4.8100
10.2680	 4.5400
10.2890	 4.7130
10.3090	 4.6650
10.3300	 4.7910
10.3500	 4.7380
10.3710	 4.9260
10.3920	 4.8310
10.4120	 4.9600
10.4330	 4.9920
10.4540	 5.3070
10.4760	 5.1010
10.4970	 5.2010
10.5180	 5.1370
10.5390	 5.4920
10.5610	 5.4770
10.5820	 5.4170
10.6040	 5.1520
10.6260	 5.2390
10.6480	 5.1140
10.6700	 5.2970
10.6920	 5.2260
10.7140	 5.3810
10.7360	 5.1910
10.7580	 5.3210
10.7800	 5.2040
10.8030	 5.2020
10.8250	 4.8710
10.8480	 4.9380
10.8710	 4.8430
10.8940	 4.9990
10.9170	 4.8760
10.9400	 5.0770
10.9630	 5.0340
10.9860	 4.9510
11.0090	 4.5150
11.0330	 4.7390
11.0560	 4.7520
11.0800	 4.7670
11.1040	 4.6110
11.1270	 4.6880
11.1510	 4.4450
11.1750	 4.7270
11.2000	 4.6930
11.2240	 4.7820
11.2480	 4.6910
11.2730	 4.7760
11.2970	 4.6360
11.3220	 4.9920
11.3470	 4.7960
11.3720	 4.8150
11.3970	 4.5430
11.4220	 4.6260
11.4470	 4.2670
11.4720	 4.1800
11.4980	 4.3200
11.5230	 4.6730
11.5490	 4.5210
11.5750	 4.7450
11.6000	 4.6620
11.6260	 4.8970
11.6530	 4.6100
11.6790	 4.7160
11.7050	 4.3280
11.7320	 4.3750
11.7580	 4.2860
11.7850	 4.5520
11.8120	 4.4160
11.8390	 4.5210
11.8660	 4.2340
11.8930	 4.2820
11.9200	 4.3170
11.9480	 4.5000
11.9760	 4.3010
12.0030	 4.5000
12.0310	 4.2620
12.0590	 4.3260
12.0870	 4.1940
12.1150	 4.2780
12.1440	 3.9960
12.1720	 4.3330
12.2010	 4.2780
12.2300	 4.4880
12.2590	 4.2930
12.2880	 4.4650
12.3170	 4.1790
12.3460	 4.2860
12.3760	 4.1040
12.4050	 4.4560
12.4350	 4.2700
12.4650	 4.4550
12.4950	 4.1730
12.5250	 4.2430
12.5550	 3.9550
12.5860	 4.2130
12.6170	 3.8450
12.6470	 3.8340
12.6780	 3.5650
12.7090	 3.8330
12.7410	 3.8050
12.7720	 4.0780
12.8030	 3.8360
12.8350	 3.9540
12.8670	 3.7940
12.8990	 4.0610
12.9310	 3.9190
12.9640	 4.0980
12.9960	 3.5500
13.0290	 3.5780
13.0610	 3.5210
13.0940	 3.8610
13.1280	 3.6450
13.1610	 3.9120
13.1940	 3.4910
13.2280	 3.7040
13.2620	 3.5710
13.2960	 3.7170
13.3300	 3.3240
13.3640	 3.6630
13.3990	 3.4070
13.4340	 3.6270
13.4690	 3.5080
13.5040	 3.6470
13.5390	 3.1130
13.5740	 3.3440
13.6100	 3.1520
13.6460	 3.5960
13.6820	 3.3980
13.7180	 3.4680
13.7540	 3.1790
13.7910	 3.7680
13.8280	 3.6150
13.8650	 3.7260
13.9020	 3.3840
13.9390	 3.5320
13.9770	 3.4100
14.0150	 3.6640
14.0530	 3.2190
14.0910	 3.4410
14.1290	 2.9140
14.1680	 3.1240
14.2070	 3.1060
14.2460	 3.7470
14.2850	 2.9460
14.3240	 3.2530
14.3640	 3.0240
14.4040	 3.4840
14.4440	 3.3940
14.4840	 3.5910
14.5250	 2.9460
14.5660	 2.9590
14.6070	 2.2630
14.6480	 3.1180
14.6900	 2.4650
14.7310	 2.5230
14.7730	 2.1580
14.8150	 3.2160
14.8580	 2.7650
14.9010	 2.6230
14.9440	 1.7710
14.9870	 2.8020
15.0300	 2.2800
15.0740	 2.8760
15.1180	 2.7710
15.1620	 3.4870
15.2060	 2.5280
15.2510	 3.2010
15.2960	 3.1920
15.3410	 3.6550
15.3870	 2.3200
