Name: Pinus lambertiana 3
Type: vegetation
Class: Tree
Genus: Pinus
Species: lambertiana
Sample No.: VH262
Owner: UCSB
Wavelength Range: VSWIR
Origin: 37.0433; -119.3048; WGS84
Collection Date: 11/2/2013
Description: Samples were collected as part of the HyspIRI Airborne Campaign. 48 individual plants were sampled in three times in 2013 - spring  summer  and fall. The name of the sample includes a 1  2  or 3 which references a different individual of the species. Samples were taken to JPL and processed within 48 hours of collection. The same leaves were processed in the Nicolet and then measured using the ASD.
Measurement: Bidirectional reflectance
First Column: X
Second Column: Y
X Units: Wavelength (micrometers)
Y Units: Reflectance (percentage)
First X Value: 0.35
Last X Value: 2.5
Number of X Values: 2151
Additional Information: vegetation.tree.pinus.lambertiana.vswir.vh262.ucsb.asd.ancillary.txt

 0.3500	 5.3650
 0.3510	 5.4430
 0.3520	 5.3980
 0.3530	 5.2730
 0.3540	 5.1630
 0.3550	 5.2320
 0.3560	 5.2720
 0.3570	 5.2490
 0.3580	 5.2190
 0.3590	 5.2030
 0.3600	 5.1770
 0.3610	 5.1360
 0.3620	 5.1080
 0.3630	 5.0140
 0.3640	 4.9680
 0.3650	 5.0450
 0.3660	 4.9940
 0.3670	 5.0300
 0.3680	 5.1040
 0.3690	 5.0130
 0.3700	 4.9840
 0.3710	 4.9820
 0.3720	 4.9780
 0.3730	 5.0200
 0.3740	 5.0310
 0.3750	 5.0180
 0.3760	 5.0140
 0.3770	 5.0040
 0.3780	 5.0090
 0.3790	 5.0290
 0.3800	 5.0440
 0.3810	 5.0370
 0.3820	 5.0100
 0.3830	 4.9760
 0.3840	 4.9560
 0.3850	 4.9600
 0.3860	 4.9710
 0.3870	 4.9590
 0.3880	 4.9100
 0.3890	 4.9150
 0.3900	 4.9670
 0.3910	 4.9670
 0.3920	 4.9560
 0.3930	 4.9610
 0.3940	 4.9860
 0.3950	 4.9810
 0.3960	 4.9650
 0.3970	 4.9410
 0.3980	 4.9130
 0.3990	 4.9330
 0.4000	 4.9550
 0.4010	 4.9520
 0.4020	 4.9360
 0.4030	 4.9580
 0.4040	 4.9810
 0.4050	 4.9720
 0.4060	 4.9900
 0.4070	 5.0230
 0.4080	 5.0550
 0.4090	 5.0720
 0.4100	 5.0920
 0.4110	 5.1190
 0.4120	 5.1450
 0.4130	 5.1460
 0.4140	 5.1870
 0.4150	 5.2520
 0.4160	 5.3030
 0.4170	 5.3150
 0.4180	 5.3620
 0.4190	 5.4460
 0.4200	 5.5090
 0.4210	 5.5470
 0.4220	 5.5910
 0.4230	 5.6510
 0.4240	 5.6610
 0.4250	 5.6970
 0.4260	 5.7550
 0.4270	 5.7980
 0.4280	 5.8400
 0.4290	 5.8840
 0.4300	 5.9240
 0.4310	 5.9500
 0.4320	 5.9900
 0.4330	 6.0310
 0.4340	 6.0560
 0.4350	 6.0710
 0.4360	 6.0980
 0.4370	 6.1340
 0.4380	 6.1620
 0.4390	 6.1810
 0.4400	 6.2040
 0.4410	 6.2360
 0.4420	 6.2710
 0.4430	 6.2830
 0.4440	 6.2920
 0.4450	 6.3280
 0.4460	 6.3540
 0.4470	 6.3730
 0.4480	 6.3890
 0.4490	 6.3980
 0.4500	 6.4240
 0.4510	 6.4490
 0.4520	 6.4560
 0.4530	 6.4740
 0.4540	 6.4880
 0.4550	 6.4980
 0.4560	 6.5110
 0.4570	 6.5180
 0.4580	 6.5280
 0.4590	 6.5390
 0.4600	 6.5310
 0.4610	 6.5340
 0.4620	 6.5510
 0.4630	 6.5720
 0.4640	 6.5860
 0.4650	 6.5850
 0.4660	 6.5760
 0.4670	 6.5810
 0.4680	 6.5950
 0.4690	 6.6070
 0.4700	 6.6100
 0.4710	 6.6070
 0.4720	 6.6180
 0.4730	 6.6330
 0.4740	 6.6270
 0.4750	 6.6270
 0.4760	 6.6260
 0.4770	 6.6250
 0.4780	 6.6380
 0.4790	 6.6440
 0.4800	 6.6470
 0.4810	 6.6550
 0.4820	 6.6620
 0.4830	 6.6670
 0.4840	 6.6680
 0.4850	 6.6710
 0.4860	 6.6710
 0.4870	 6.6800
 0.4880	 6.7000
 0.4890	 6.7140
 0.4900	 6.7280
 0.4910	 6.7440
 0.4920	 6.7630
 0.4930	 6.7770
 0.4940	 6.8050
 0.4950	 6.8460
 0.4960	 6.8690
 0.4970	 6.8980
 0.4980	 6.9350
 0.4990	 6.9780
 0.5000	 7.0370
 0.5010	 7.0930
 0.5020	 7.1490
 0.5030	 7.2180
 0.5040	 7.2820
 0.5050	 7.3440
 0.5060	 7.4180
 0.5070	 7.5180
 0.5080	 7.6190
 0.5090	 7.7210
 0.5100	 7.8340
 0.5110	 7.9570
 0.5120	 8.0900
 0.5130	 8.2320
 0.5140	 8.3870
 0.5150	 8.5490
 0.5160	 8.7170
 0.5170	 8.8940
 0.5180	 9.0740
 0.5190	 9.2560
 0.5200	 9.4410
 0.5210	 9.6310
 0.5220	 9.8260
 0.5230	10.0190
 0.5240	10.2040
 0.5250	10.3760
 0.5260	10.5450
 0.5270	10.7080
 0.5280	10.8620
 0.5290	11.0060
 0.5300	11.1400
 0.5310	11.2610
 0.5320	11.3640
 0.5330	11.4660
 0.5340	11.5630
 0.5350	11.6500
 0.5360	11.7330
 0.5370	11.8020
 0.5380	11.8600
 0.5390	11.9150
 0.5400	11.9670
 0.5410	12.0130
 0.5420	12.0520
 0.5430	12.0950
 0.5440	12.1390
 0.5450	12.1840
 0.5460	12.2290
 0.5470	12.2900
 0.5480	12.3460
 0.5490	12.3890
 0.5500	12.4230
 0.5510	12.4540
 0.5520	12.4770
 0.5530	12.4900
 0.5540	12.4970
 0.5550	12.4920
 0.5560	12.4740
 0.5570	12.4430
 0.5580	12.4000
 0.5590	12.3490
 0.5600	12.2910
 0.5610	12.2280
 0.5620	12.1600
 0.5630	12.0820
 0.5640	11.9950
 0.5650	11.9040
 0.5660	11.8120
 0.5670	11.7190
 0.5680	11.6160
 0.5690	11.5150
 0.5700	11.4120
 0.5710	11.3020
 0.5720	11.1960
 0.5730	11.0930
 0.5740	10.9960
 0.5750	10.9080
 0.5760	10.8240
 0.5770	10.7420
 0.5780	10.6620
 0.5790	10.5950
 0.5800	10.5290
 0.5810	10.4660
 0.5820	10.4100
 0.5830	10.3560
 0.5840	10.3060
 0.5850	10.2580
 0.5860	10.2080
 0.5870	10.1630
 0.5880	10.1220
 0.5890	10.0820
 0.5900	10.0440
 0.5910	10.0110
 0.5920	 9.9810
 0.5930	 9.9490
 0.5940	 9.9200
 0.5950	 9.8960
 0.5960	 9.8750
 0.5970	 9.8550
 0.5980	 9.8330
 0.5990	 9.8090
 0.6000	 9.7830
 0.6010	 9.7570
 0.6020	 9.7290
 0.6030	 9.7000
 0.6040	 9.6650
 0.6050	 9.6280
 0.6060	 9.5870
 0.6070	 9.5420
 0.6080	 9.4920
 0.6090	 9.4380
 0.6100	 9.3790
 0.6110	 9.3170
 0.6120	 9.2670
 0.6130	 9.2220
 0.6140	 9.1760
 0.6150	 9.1250
 0.6160	 9.0790
 0.6170	 9.0370
 0.6180	 8.9970
 0.6190	 8.9620
 0.6200	 8.9290
 0.6210	 8.8980
 0.6220	 8.8730
 0.6230	 8.8540
 0.6240	 8.8390
 0.6250	 8.8270
 0.6260	 8.8230
 0.6270	 8.8160
 0.6280	 8.8110
 0.6290	 8.8140
 0.6300	 8.8100
 0.6310	 8.8050
 0.6320	 8.8000
 0.6330	 8.7870
 0.6340	 8.7630
 0.6350	 8.7300
 0.6360	 8.6880
 0.6370	 8.6330
 0.6380	 8.5700
 0.6390	 8.4990
 0.6400	 8.4210
 0.6410	 8.3390
 0.6420	 8.2550
 0.6430	 8.1710
 0.6440	 8.0870
 0.6450	 8.0060
 0.6460	 7.9270
 0.6470	 7.8540
 0.6480	 7.7930
 0.6490	 7.7410
 0.6500	 7.6970
 0.6510	 7.6600
 0.6520	 7.6330
 0.6530	 7.6080
 0.6540	 7.5790
 0.6550	 7.5570
 0.6560	 7.5310
 0.6570	 7.4980
 0.6580	 7.4590
 0.6590	 7.4200
 0.6600	 7.3760
 0.6610	 7.3280
 0.6620	 7.2810
 0.6630	 7.2350
 0.6640	 7.1890
 0.6650	 7.1450
 0.6660	 7.1100
 0.6670	 7.0820
 0.6680	 7.0590
 0.6690	 7.0410
 0.6700	 7.0290
 0.6710	 7.0220
 0.6720	 7.0220
 0.6730	 7.0300
 0.6740	 7.0380
 0.6750	 7.0510
 0.6760	 7.0730
 0.6770	 7.0980
 0.6780	 7.1260
 0.6790	 7.1590
 0.6800	 7.2060
 0.6810	 7.2560
 0.6820	 7.3140
 0.6830	 7.3870
 0.6840	 7.4720
 0.6850	 7.5820
 0.6860	 7.7170
 0.6870	 7.8790
 0.6880	 8.0800
 0.6890	 8.3250
 0.6900	 8.6220
 0.6910	 8.9790
 0.6920	 9.3940
 0.6930	 9.8720
 0.6940	10.4160
 0.6950	11.0150
 0.6960	11.6620
 0.6970	12.3580
 0.6980	13.1040
 0.6990	13.8780
 0.7000	14.6760
 0.7010	15.4980
 0.7020	16.3400
 0.7030	17.1990
 0.7040	18.0620
 0.7050	18.9210
 0.7060	19.7810
 0.7070	20.6430
 0.7080	21.5040
 0.7090	22.3660
 0.7100	23.2320
 0.7110	24.0910
 0.7120	24.9440
 0.7130	25.8030
 0.7140	26.6530
 0.7150	27.4980
 0.7160	28.3450
 0.7170	29.1880
 0.7180	30.0230
 0.7190	30.8490
 0.7200	31.6690
 0.7210	32.4710
 0.7220	33.2610
 0.7230	34.0380
 0.7240	34.7900
 0.7250	35.5210
 0.7260	36.2320
 0.7270	36.9220
 0.7280	37.5830
 0.7290	38.2180
 0.7300	38.8270
 0.7310	39.4090
 0.7320	39.9570
 0.7330	40.4760
 0.7340	40.9730
 0.7350	41.4610
 0.7360	41.9180
 0.7370	42.3390
 0.7380	42.7300
 0.7390	43.1080
 0.7400	43.4550
 0.7410	43.7780
 0.7420	44.0880
 0.7430	44.3570
 0.7440	44.6180
 0.7450	44.8750
 0.7460	45.1010
 0.7470	45.3130
 0.7480	45.5060
 0.7490	45.6730
 0.7500	45.8260
 0.7510	45.9710
 0.7520	46.1050
 0.7530	46.2250
 0.7540	46.3420
 0.7550	46.4470
 0.7560	46.5400
 0.7570	46.6230
 0.7580	46.6970
 0.7590	46.7610
 0.7600	46.8190
 0.7610	46.8790
 0.7620	46.9340
 0.7630	46.9880
 0.7640	47.0420
 0.7650	47.0790
 0.7660	47.1040
 0.7670	47.1220
 0.7680	47.1380
 0.7690	47.1780
 0.7700	47.2170
 0.7710	47.2430
 0.7720	47.2650
 0.7730	47.2860
 0.7740	47.3090
 0.7750	47.3330
 0.7760	47.3430
 0.7770	47.3620
 0.7780	47.3840
 0.7790	47.3900
 0.7800	47.4100
 0.7810	47.4340
 0.7820	47.4540
 0.7830	47.4660
 0.7840	47.4850
 0.7850	47.5060
 0.7860	47.5210
 0.7870	47.5360
 0.7880	47.5590
 0.7890	47.5820
 0.7900	47.5980
 0.7910	47.6120
 0.7920	47.6240
 0.7930	47.6390
 0.7940	47.6640
 0.7950	47.6720
 0.7960	47.6930
 0.7970	47.7280
 0.7980	47.7280
 0.7990	47.7450
 0.8000	47.7640
 0.8010	47.7710
 0.8020	47.7870
 0.8030	47.8100
 0.8040	47.8340
 0.8050	47.8540
 0.8060	47.8590
 0.8070	47.8680
 0.8080	47.8840
 0.8090	47.8980
 0.8100	47.9170
 0.8110	47.9500
 0.8120	47.9870
 0.8130	47.9920
 0.8140	47.9920
 0.8150	48.0000
 0.8160	48.0210
 0.8170	48.0550
 0.8180	48.0740
 0.8190	48.0830
 0.8200	48.1000
 0.8210	48.1290
 0.8220	48.1460
 0.8230	48.1530
 0.8240	48.1780
 0.8250	48.1800
 0.8260	48.1890
 0.8270	48.2190
 0.8280	48.2410
 0.8290	48.2420
 0.8300	48.2450
 0.8310	48.2670
 0.8320	48.2850
 0.8330	48.2930
 0.8340	48.3050
 0.8350	48.3360
 0.8360	48.3540
 0.8370	48.3580
 0.8380	48.3620
 0.8390	48.3850
 0.8400	48.4100
 0.8410	48.4360
 0.8420	48.4590
 0.8430	48.4710
 0.8440	48.4880
 0.8450	48.5110
 0.8460	48.5340
 0.8470	48.5370
 0.8480	48.5560
 0.8490	48.5840
 0.8500	48.6030
 0.8510	48.6070
 0.8520	48.6240
 0.8530	48.6490
 0.8540	48.6640
 0.8550	48.6870
 0.8560	48.7060
 0.8570	48.7190
 0.8580	48.7290
 0.8590	48.7410
 0.8600	48.7570
 0.8610	48.7760
 0.8620	48.7820
 0.8630	48.7960
 0.8640	48.8090
 0.8650	48.8170
 0.8660	48.8280
 0.8670	48.8420
 0.8680	48.8510
 0.8690	48.8500
 0.8700	48.8570
 0.8710	48.8680
 0.8720	48.8820
 0.8730	48.8960
 0.8740	48.9070
 0.8750	48.9140
 0.8760	48.9170
 0.8770	48.9210
 0.8780	48.9300
 0.8790	48.9310
 0.8800	48.9280
 0.8810	48.9450
 0.8820	48.9510
 0.8830	48.9500
 0.8840	48.9500
 0.8850	48.9500
 0.8860	48.9550
 0.8870	48.9600
 0.8880	48.9610
 0.8890	48.9650
 0.8900	48.9660
 0.8910	48.9620
 0.8920	48.9530
 0.8930	48.9410
 0.8940	48.9260
 0.8950	48.9180
 0.8960	48.9250
 0.8970	48.9280
 0.8980	48.9280
 0.8990	48.9260
 0.9000	48.9220
 0.9010	48.9090
 0.9020	48.8990
 0.9030	48.8970
 0.9040	48.9010
 0.9050	48.8970
 0.9060	48.8850
 0.9070	48.8720
 0.9080	48.8670
 0.9090	48.8580
 0.9100	48.8500
 0.9110	48.8480
 0.9120	48.8370
 0.9130	48.8280
 0.9140	48.8220
 0.9150	48.8150
 0.9160	48.8020
 0.9170	48.7950
 0.9180	48.7910
 0.9190	48.7790
 0.9200	48.7590
 0.9210	48.7410
 0.9220	48.7240
 0.9230	48.7000
 0.9240	48.6950
 0.9250	48.6690
 0.9260	48.6260
 0.9270	48.6060
 0.9280	48.5850
 0.9290	48.5590
 0.9300	48.5300
 0.9310	48.4990
 0.9320	48.4570
 0.9330	48.4000
 0.9340	48.3450
 0.9350	48.3200
 0.9360	48.3050
 0.9370	48.2670
 0.9380	48.2050
 0.9390	48.1670
 0.9400	48.1190
 0.9410	48.0650
 0.9420	48.0110
 0.9430	47.9540
 0.9440	47.8970
 0.9450	47.8410
 0.9460	47.7770
 0.9470	47.6790
 0.9480	47.5870
 0.9490	47.5000
 0.9500	47.4050
 0.9510	47.3010
 0.9520	47.1960
 0.9530	47.0910
 0.9540	46.9840
 0.9550	46.8800
 0.9560	46.7710
 0.9570	46.6570
 0.9580	46.5470
 0.9590	46.4670
 0.9600	46.3820
 0.9610	46.2900
 0.9620	46.2060
 0.9630	46.1540
 0.9640	46.1050
 0.9650	46.0620
 0.9660	46.0330
 0.9670	46.0050
 0.9680	45.9770
 0.9690	45.9450
 0.9700	45.9110
 0.9710	45.8990
 0.9720	45.8900
 0.9730	45.8730
 0.9740	45.8510
 0.9750	45.8490
 0.9760	45.8440
 0.9770	45.8320
 0.9780	45.8230
 0.9790	45.8370
 0.9800	45.8660
 0.9810	45.8860
 0.9820	45.8790
 0.9830	45.9070
 0.9840	45.9370
 0.9850	45.9600
 0.9860	45.9800
 0.9870	45.9910
 0.9880	46.0140
 0.9890	46.0480
 0.9900	46.0810
 0.9910	46.1210
 0.9920	46.1790
 0.9930	46.2340
 0.9940	46.2620
 0.9950	46.2930
 0.9960	46.3550
 0.9970	46.4310
 0.9980	46.4850
 0.9990	46.5040
 1.0000	46.5160
 1.0010	46.4800
 1.0020	46.5150
 1.0030	46.5640
 1.0040	46.6160
 1.0050	46.6680
 1.0060	46.7180
 1.0070	46.7660
 1.0080	46.8200
 1.0090	46.8780
 1.0100	46.9350
 1.0110	46.9950
 1.0120	47.0510
 1.0130	47.1010
 1.0140	47.1540
 1.0150	47.2060
 1.0160	47.2610
 1.0170	47.3130
 1.0180	47.3640
 1.0190	47.4130
 1.0200	47.4670
 1.0210	47.5240
 1.0220	47.5780
 1.0230	47.6260
 1.0240	47.6710
 1.0250	47.7150
 1.0260	47.7530
 1.0270	47.7970
 1.0280	47.8460
 1.0290	47.8920
 1.0300	47.9410
 1.0310	47.9850
 1.0320	48.0260
 1.0330	48.0660
 1.0340	48.1090
 1.0350	48.1480
 1.0360	48.1880
 1.0370	48.2250
 1.0380	48.2630
 1.0390	48.3000
 1.0400	48.3360
 1.0410	48.3730
 1.0420	48.4090
 1.0430	48.4410
 1.0440	48.4730
 1.0450	48.5090
 1.0460	48.5390
 1.0470	48.5630
 1.0480	48.5910
 1.0490	48.6200
 1.0500	48.6460
 1.0510	48.6720
 1.0520	48.7020
 1.0530	48.7260
 1.0540	48.7430
 1.0550	48.7660
 1.0560	48.7890
 1.0570	48.8110
 1.0580	48.8330
 1.0590	48.8540
 1.0600	48.8730
 1.0610	48.8910
 1.0620	48.9060
 1.0630	48.9230
 1.0640	48.9400
 1.0650	48.9550
 1.0660	48.9700
 1.0670	48.9850
 1.0680	48.9980
 1.0690	49.0090
 1.0700	49.0190
 1.0710	49.0290
 1.0720	49.0360
 1.0730	49.0380
 1.0740	49.0450
 1.0750	49.0550
 1.0760	49.0590
 1.0770	49.0610
 1.0780	49.0630
 1.0790	49.0620
 1.0800	49.0610
 1.0810	49.0630
 1.0820	49.0600
 1.0830	49.0500
 1.0840	49.0440
 1.0850	49.0360
 1.0860	49.0300
 1.0870	49.0200
 1.0880	49.0100
 1.0890	49.0000
 1.0900	48.9880
 1.0910	48.9780
 1.0920	48.9710
 1.0930	48.9570
 1.0940	48.9410
 1.0950	48.9230
 1.0960	48.9000
 1.0970	48.8800
 1.0980	48.8590
 1.0990	48.8380
 1.1000	48.8170
 1.1010	48.7960
 1.1020	48.7740
 1.1030	48.7520
 1.1040	48.7270
 1.1050	48.6980
 1.1060	48.6680
 1.1070	48.6350
 1.1080	48.6040
 1.1090	48.5730
 1.1100	48.5400
 1.1110	48.5080
 1.1120	48.4720
 1.1130	48.4350
 1.1140	48.3960
 1.1150	48.3550
 1.1160	48.3100
 1.1170	48.2630
 1.1180	48.2120
 1.1190	48.1600
 1.1200	48.1010
 1.1210	48.0370
 1.1220	47.9670
 1.1230	47.8880
 1.1240	47.8030
 1.1250	47.7090
 1.1260	47.6100
 1.1270	47.4970
 1.1280	47.3760
 1.1290	47.2440
 1.1300	47.1030
 1.1310	46.9480
 1.1320	46.7810
 1.1330	46.6040
 1.1340	46.4140
 1.1350	46.2140
 1.1360	46.0040
 1.1370	45.7840
 1.1380	45.5530
 1.1390	45.3160
 1.1400	45.0720
 1.1410	44.8250
 1.1420	44.5730
 1.1430	44.3200
 1.1440	44.0700
 1.1450	43.8150
 1.1460	43.5740
 1.1470	43.3340
 1.1480	43.1060
 1.1490	42.8830
 1.1500	42.6750
 1.1510	42.4730
 1.1520	42.2860
 1.1530	42.1120
 1.1540	41.9500
 1.1550	41.8010
 1.1560	41.6660
 1.1570	41.5390
 1.1580	41.4290
 1.1590	41.3320
 1.1600	41.2430
 1.1610	41.1640
 1.1620	41.0930
 1.1630	41.0270
 1.1640	40.9690
 1.1650	40.9180
 1.1660	40.8770
 1.1670	40.8360
 1.1680	40.8010
 1.1690	40.7690
 1.1700	40.7390
 1.1710	40.7110
 1.1720	40.6890
 1.1730	40.6620
 1.1740	40.6360
 1.1750	40.6100
 1.1760	40.5830
 1.1770	40.5550
 1.1780	40.5270
 1.1790	40.4980
 1.1800	40.4670
 1.1810	40.4370
 1.1820	40.4070
 1.1830	40.3760
 1.1840	40.3450
 1.1850	40.3170
 1.1860	40.2890
 1.1870	40.2620
 1.1880	40.2370
 1.1890	40.2120
 1.1900	40.1890
 1.1910	40.1690
 1.1920	40.1510
 1.1930	40.1350
 1.1940	40.1220
 1.1950	40.1110
 1.1960	40.1030
 1.1970	40.1000
 1.1980	40.1000
 1.1990	40.1040
 1.2000	40.1100
 1.2010	40.1200
 1.2020	40.1340
 1.2030	40.1490
 1.2040	40.1690
 1.2050	40.1930
 1.2060	40.2170
 1.2070	40.2460
 1.2080	40.2760
 1.2090	40.3060
 1.2100	40.3400
 1.2110	40.3780
 1.2120	40.4180
 1.2130	40.4620
 1.2140	40.5100
 1.2150	40.5590
 1.2160	40.6100
 1.2170	40.6620
 1.2180	40.7130
 1.2190	40.7690
 1.2200	40.8230
 1.2210	40.8760
 1.2220	40.9320
 1.2230	40.9880
 1.2240	41.0440
 1.2250	41.1020
 1.2260	41.1570
 1.2270	41.2120
 1.2280	41.2670
 1.2290	41.3200
 1.2300	41.3740
 1.2310	41.4270
 1.2320	41.4780
 1.2330	41.5280
 1.2340	41.5770
 1.2350	41.6250
 1.2360	41.6720
 1.2370	41.7190
 1.2380	41.7650
 1.2390	41.8080
 1.2400	41.8490
 1.2410	41.8880
 1.2420	41.9260
 1.2430	41.9670
 1.2440	42.0060
 1.2450	42.0420
 1.2460	42.0770
 1.2470	42.1080
 1.2480	42.1390
 1.2490	42.1720
 1.2500	42.2040
 1.2510	42.2370
 1.2520	42.2680
 1.2530	42.2970
 1.2540	42.3220
 1.2550	42.3430
 1.2560	42.3640
 1.2570	42.3850
 1.2580	42.4050
 1.2590	42.4240
 1.2600	42.4460
 1.2610	42.4620
 1.2620	42.4740
 1.2630	42.4840
 1.2640	42.4930
 1.2650	42.4980
 1.2660	42.5030
 1.2670	42.5090
 1.2680	42.5130
 1.2690	42.5170
 1.2700	42.5170
 1.2710	42.5120
 1.2720	42.5050
 1.2730	42.4960
 1.2740	42.4870
 1.2750	42.4790
 1.2760	42.4700
 1.2770	42.4570
 1.2780	42.4430
 1.2790	42.4260
 1.2800	42.4080
 1.2810	42.3890
 1.2820	42.3660
 1.2830	42.3390
 1.2840	42.3090
 1.2850	42.2790
 1.2860	42.2480
 1.2870	42.2140
 1.2880	42.1760
 1.2890	42.1370
 1.2900	42.0940
 1.2910	42.0460
 1.2920	41.9960
 1.2930	41.9430
 1.2940	41.8850
 1.2950	41.8260
 1.2960	41.7670
 1.2970	41.7010
 1.2980	41.6310
 1.2990	41.5580
 1.3000	41.4790
 1.3010	41.3980
 1.3020	41.3120
 1.3030	41.2200
 1.3040	41.1210
 1.3050	41.0190
 1.3060	40.9140
 1.3070	40.8050
 1.3080	40.6940
 1.3090	40.5760
 1.3100	40.4510
 1.3110	40.3230
 1.3120	40.1900
 1.3130	40.0550
 1.3140	39.9120
 1.3150	39.7630
 1.3160	39.6090
 1.3170	39.4520
 1.3180	39.2870
 1.3190	39.1200
 1.3200	38.9490
 1.3210	38.7710
 1.3220	38.5900
 1.3230	38.4060
 1.3240	38.2190
 1.3250	38.0300
 1.3260	37.8380
 1.3270	37.6430
 1.3280	37.4440
 1.3290	37.2390
 1.3300	37.0360
 1.3310	36.8300
 1.3320	36.6200
 1.3330	36.4140
 1.3340	36.2030
 1.3350	35.9910
 1.3360	35.7820
 1.3370	35.5720
 1.3380	35.3650
 1.3390	35.1600
 1.3400	34.9540
 1.3410	34.7520
 1.3420	34.5530
 1.3430	34.3580
 1.3440	34.1670
 1.3450	33.9790
 1.3460	33.7920
 1.3470	33.6110
 1.3480	33.4330
 1.3490	33.2590
 1.3500	33.0880
 1.3510	32.9200
 1.3520	32.7520
 1.3530	32.5870
 1.3540	32.4220
 1.3550	32.2590
 1.3560	32.0950
 1.3570	31.9280
 1.3580	31.7630
 1.3590	31.5960
 1.3600	31.4250
 1.3610	31.2500
 1.3620	31.0680
 1.3630	30.8830
 1.3640	30.6900
 1.3650	30.4910
 1.3660	30.2860
 1.3670	30.0710
 1.3680	29.8460
 1.3690	29.6110
 1.3700	29.3610
 1.3710	29.1000
 1.3720	28.8280
 1.3730	28.5380
 1.3740	28.2370
 1.3750	27.9210
 1.3760	27.5850
 1.3770	27.2320
 1.3780	26.8560
 1.3790	26.4610
 1.3800	26.0470
 1.3810	25.6120
 1.3820	25.1650
 1.3830	24.7010
 1.3840	24.2260
 1.3850	23.7360
 1.3860	23.2420
 1.3870	22.7340
 1.3880	22.2290
 1.3890	21.7190
 1.3900	21.2090
 1.3910	20.7070
 1.3920	20.2050
 1.3930	19.7070
 1.3940	19.2210
 1.3950	18.7380
 1.3960	18.2680
 1.3970	17.8140
 1.3980	17.3740
 1.3990	16.9560
 1.4000	16.5540
 1.4010	16.1680
 1.4020	15.8020
 1.4030	15.4510
 1.4040	15.1190
 1.4050	14.8070
 1.4060	14.5120
 1.4070	14.2360
 1.4080	13.9770
 1.4090	13.7330
 1.4100	13.5060
 1.4110	13.2940
 1.4120	13.0970
 1.4130	12.9150
 1.4140	12.7460
 1.4150	12.5900
 1.4160	12.4450
 1.4170	12.3120
 1.4180	12.1890
 1.4190	12.0750
 1.4200	11.9700
 1.4210	11.8740
 1.4220	11.7850
 1.4230	11.7050
 1.4240	11.6300
 1.4250	11.5610
 1.4260	11.4980
 1.4270	11.4400
 1.4280	11.3880
 1.4290	11.3400
 1.4300	11.2990
 1.4310	11.2610
 1.4320	11.2270
 1.4330	11.1970
 1.4340	11.1700
 1.4350	11.1470
 1.4360	11.1260
 1.4370	11.1080
 1.4380	11.0940
 1.4390	11.0820
 1.4400	11.0720
 1.4410	11.0650
 1.4420	11.0600
 1.4430	11.0560
 1.4440	11.0540
 1.4450	11.0540
 1.4460	11.0560
 1.4470	11.0600
 1.4480	11.0640
 1.4490	11.0700
 1.4500	11.0770
 1.4510	11.0850
 1.4520	11.0940
 1.4530	11.1030
 1.4540	11.1130
 1.4550	11.1240
 1.4560	11.1380
 1.4570	11.1530
 1.4580	11.1690
 1.4590	11.1870
 1.4600	11.2070
 1.4610	11.2290
 1.4620	11.2540
 1.4630	11.2820
 1.4640	11.3120
 1.4650	11.3450
 1.4660	11.3800
 1.4670	11.4190
 1.4680	11.4600
 1.4690	11.5060
 1.4700	11.5530
 1.4710	11.6040
 1.4720	11.6570
 1.4730	11.7130
 1.4740	11.7720
 1.4750	11.8310
 1.4760	11.8930
 1.4770	11.9560
 1.4780	12.0230
 1.4790	12.0910
 1.4800	12.1590
 1.4810	12.2290
 1.4820	12.3000
 1.4830	12.3720
 1.4840	12.4460
 1.4850	12.5200
 1.4860	12.5960
 1.4870	12.6740
 1.4880	12.7500
 1.4890	12.8280
 1.4900	12.9080
 1.4910	12.9870
 1.4920	13.0680
 1.4930	13.1500
 1.4940	13.2320
 1.4950	13.3160
 1.4960	13.3990
 1.4970	13.4820
 1.4980	13.5670
 1.4990	13.6520
 1.5000	13.7380
 1.5010	13.8260
 1.5020	13.9120
 1.5030	13.9980
 1.5040	14.0840
 1.5050	14.1690
 1.5060	14.2540
 1.5070	14.3400
 1.5080	14.4260
 1.5090	14.5120
 1.5100	14.5990
 1.5110	14.6850
 1.5120	14.7720
 1.5130	14.8570
 1.5140	14.9410
 1.5150	15.0260
 1.5160	15.1090
 1.5170	15.1950
 1.5180	15.2800
 1.5190	15.3640
 1.5200	15.4490
 1.5210	15.5320
 1.5220	15.6150
 1.5230	15.6980
 1.5240	15.7810
 1.5250	15.8640
 1.5260	15.9460
 1.5270	16.0270
 1.5280	16.1080
 1.5290	16.1880
 1.5300	16.2670
 1.5310	16.3480
 1.5320	16.4260
 1.5330	16.5040
 1.5340	16.5820
 1.5350	16.6580
 1.5360	16.7340
 1.5370	16.8100
 1.5380	16.8870
 1.5390	16.9650
 1.5400	17.0420
 1.5410	17.1190
 1.5420	17.1940
 1.5430	17.2680
 1.5440	17.3440
 1.5450	17.4190
 1.5460	17.4930
 1.5470	17.5680
 1.5480	17.6400
 1.5490	17.7130
 1.5500	17.7850
 1.5510	17.8550
 1.5520	17.9270
 1.5530	18.0000
 1.5540	18.0720
 1.5550	18.1430
 1.5560	18.2120
 1.5570	18.2780
 1.5580	18.3460
 1.5590	18.4140
 1.5600	18.4830
 1.5610	18.5510
 1.5620	18.6180
 1.5630	18.6840
 1.5640	18.7500
 1.5650	18.8170
 1.5660	18.8830
 1.5670	18.9490
 1.5680	19.0140
 1.5690	19.0780
 1.5700	19.1410
 1.5710	19.2040
 1.5720	19.2660
 1.5730	19.3280
 1.5740	19.3900
 1.5750	19.4530
 1.5760	19.5150
 1.5770	19.5750
 1.5780	19.6350
 1.5790	19.6950
 1.5800	19.7550
 1.5810	19.8160
 1.5820	19.8770
 1.5830	19.9360
 1.5840	19.9960
 1.5850	20.0550
 1.5860	20.1140
 1.5870	20.1740
 1.5880	20.2330
 1.5890	20.2920
 1.5900	20.3510
 1.5910	20.4090
 1.5920	20.4680
 1.5930	20.5270
 1.5940	20.5880
 1.5950	20.6480
 1.5960	20.7070
 1.5970	20.7660
 1.5980	20.8230
 1.5990	20.8810
 1.6000	20.9400
 1.6010	20.9980
 1.6020	21.0560
 1.6030	21.1120
 1.6040	21.1660
 1.6050	21.2210
 1.6060	21.2760
 1.6070	21.3300
 1.6080	21.3850
 1.6090	21.4400
 1.6100	21.4910
 1.6110	21.5420
 1.6120	21.5930
 1.6130	21.6430
 1.6140	21.6910
 1.6150	21.7400
 1.6160	21.7870
 1.6170	21.8320
 1.6180	21.8780
 1.6190	21.9230
 1.6200	21.9650
 1.6210	22.0080
 1.6220	22.0480
 1.6230	22.0850
 1.6240	22.1240
 1.6250	22.1590
 1.6260	22.1960
 1.6270	22.2320
 1.6280	22.2640
 1.6290	22.2970
 1.6300	22.3270
 1.6310	22.3600
 1.6320	22.3940
 1.6330	22.4280
 1.6340	22.4620
 1.6350	22.4950
 1.6360	22.5270
 1.6370	22.5590
 1.6380	22.5930
 1.6390	22.6240
 1.6400	22.6550
 1.6410	22.6830
 1.6420	22.7080
 1.6430	22.7310
 1.6440	22.7520
 1.6450	22.7710
 1.6460	22.7860
 1.6470	22.7990
 1.6480	22.8080
 1.6490	22.8140
 1.6500	22.8170
 1.6510	22.8160
 1.6520	22.8150
 1.6530	22.8100
 1.6540	22.8040
 1.6550	22.7950
 1.6560	22.7860
 1.6570	22.7770
 1.6580	22.7650
 1.6590	22.7550
 1.6600	22.7450
 1.6610	22.7350
 1.6620	22.7270
 1.6630	22.7170
 1.6640	22.7080
 1.6650	22.7030
 1.6660	22.6960
 1.6670	22.6880
 1.6680	22.6820
 1.6690	22.6770
 1.6700	22.6720
 1.6710	22.6690
 1.6720	22.6660
 1.6730	22.6600
 1.6740	22.6530
 1.6750	22.6480
 1.6760	22.6420
 1.6770	22.6350
 1.6780	22.6280
 1.6790	22.6200
 1.6800	22.6100
 1.6810	22.6000
 1.6820	22.5880
 1.6830	22.5710
 1.6840	22.5520
 1.6850	22.5310
 1.6860	22.5060
 1.6870	22.4790
 1.6880	22.4520
 1.6890	22.4180
 1.6900	22.3850
 1.6910	22.3490
 1.6920	22.3120
 1.6930	22.2750
 1.6940	22.2380
 1.6950	22.2010
 1.6960	22.1620
 1.6970	22.1220
 1.6980	22.0820
 1.6990	22.0410
 1.7000	22.0000
 1.7010	21.9590
 1.7020	21.9160
 1.7030	21.8730
 1.7040	21.8280
 1.7050	21.7820
 1.7060	21.7360
 1.7070	21.6870
 1.7080	21.6400
 1.7090	21.5930
 1.7100	21.5460
 1.7110	21.4990
 1.7120	21.4520
 1.7130	21.4040
 1.7140	21.3580
 1.7150	21.3110
 1.7160	21.2650
 1.7170	21.2220
 1.7180	21.1780
 1.7190	21.1350
 1.7200	21.0900
 1.7210	21.0460
 1.7220	21.0010
 1.7230	20.9570
 1.7240	20.9150
 1.7250	20.8730
 1.7260	20.8320
 1.7270	20.7930
 1.7280	20.7550
 1.7290	20.7170
 1.7300	20.6830
 1.7310	20.6480
 1.7320	20.6130
 1.7330	20.5780
 1.7340	20.5430
 1.7350	20.5070
 1.7360	20.4710
 1.7370	20.4340
 1.7380	20.3960
 1.7390	20.3550
 1.7400	20.3110
 1.7410	20.2670
 1.7420	20.2210
 1.7430	20.1750
 1.7440	20.1300
 1.7450	20.0820
 1.7460	20.0330
 1.7470	19.9840
 1.7480	19.9340
 1.7490	19.8840
 1.7500	19.8330
 1.7510	19.7840
 1.7520	19.7350
 1.7530	19.6870
 1.7540	19.6400
 1.7550	19.5910
 1.7560	19.5430
 1.7570	19.4990
 1.7580	19.4550
 1.7590	19.4140
 1.7600	19.3730
 1.7610	19.3290
 1.7620	19.2870
 1.7630	19.2460
 1.7640	19.2070
 1.7650	19.1730
 1.7660	19.1390
 1.7670	19.1050
 1.7680	19.0730
 1.7690	19.0380
 1.7700	19.0070
 1.7710	18.9780
 1.7720	18.9510
 1.7730	18.9290
 1.7740	18.9050
 1.7750	18.8820
 1.7760	18.8590
 1.7770	18.8340
 1.7780	18.8140
 1.7790	18.7950
 1.7800	18.7790
 1.7810	18.7660
 1.7820	18.7520
 1.7830	18.7390
 1.7840	18.7270
 1.7850	18.7150
 1.7860	18.7070
 1.7870	18.6990
 1.7880	18.6930
 1.7890	18.6910
 1.7900	18.6900
 1.7910	18.6890
 1.7920	18.6910
 1.7930	18.6920
 1.7940	18.6930
 1.7950	18.6950
 1.7960	18.6960
 1.7970	18.7000
 1.7980	18.7060
 1.7990	18.7100
 1.8000	18.7140
 1.8010	18.7190
 1.8020	18.7230
 1.8030	18.7290
 1.8040	18.7380
 1.8050	18.7450
 1.8060	18.7510
 1.8070	18.7580
 1.8080	18.7650
 1.8090	18.7720
 1.8100	18.7780
 1.8110	18.7840
 1.8120	18.7880
 1.8130	18.7940
 1.8140	18.8000
 1.8150	18.8020
 1.8160	18.8040
 1.8170	18.8040
 1.8180	18.8030
 1.8190	18.8050
 1.8200	18.8070
 1.8210	18.8120
 1.8220	18.8140
 1.8230	18.8160
 1.8240	18.8150
 1.8250	18.8110
 1.8260	18.8070
 1.8270	18.7990
 1.8280	18.7920
 1.8290	18.7840
 1.8300	18.8180
 1.8310	18.9100
 1.8320	18.9360
 1.8330	18.9170
 1.8340	18.8940
 1.8350	18.8760
 1.8360	18.8550
 1.8370	18.8270
 1.8380	18.7930
 1.8390	18.7540
 1.8400	18.7070
 1.8410	18.6590
 1.8420	18.6080
 1.8430	18.5540
 1.8440	18.4940
 1.8450	18.4280
 1.8460	18.3570
 1.8470	18.2750
 1.8480	18.1880
 1.8490	18.0960
 1.8500	17.9950
 1.8510	17.8860
 1.8520	17.7690
 1.8530	17.6440
 1.8540	17.5120
 1.8550	17.3710
 1.8560	17.2230
 1.8570	17.0630
 1.8580	16.8910
 1.8590	16.7130
 1.8600	16.5270
 1.8610	16.3290
 1.8620	16.1210
 1.8630	15.9080
 1.8640	15.6780
 1.8650	15.4390
 1.8660	15.1950
 1.8670	14.9340
 1.8680	14.6660
 1.8690	14.3900
 1.8700	14.1030
 1.8710	13.8040
 1.8720	13.5010
 1.8730	13.1920
 1.8740	12.8760
 1.8750	12.5590
 1.8760	12.2390
 1.8770	11.9210
 1.8780	11.6080
 1.8790	11.2940
 1.8800	10.9870
 1.8810	10.6860
 1.8820	10.3880
 1.8830	10.0910
 1.8840	 9.8000
 1.8850	 9.5170
 1.8860	 9.2400
 1.8870	 8.9760
 1.8880	 8.7210
 1.8890	 8.4770
 1.8900	 8.2470
 1.8910	 8.0280
 1.8920	 7.8170
 1.8930	 7.6220
 1.8940	 7.4410
 1.8950	 7.2700
 1.8960	 7.1150
 1.8970	 6.9730
 1.8980	 6.8400
 1.8990	 6.7180
 1.9000	 6.6040
 1.9010	 6.4990
 1.9020	 6.4020
 1.9030	 6.3150
 1.9040	 6.2380
 1.9050	 6.1660
 1.9060	 6.1040
 1.9070	 6.0520
 1.9080	 6.0030
 1.9090	 5.9580
 1.9100	 5.9170
 1.9110	 5.8790
 1.9120	 5.8430
 1.9130	 5.8120
 1.9140	 5.7850
 1.9150	 5.7630
 1.9160	 5.7450
 1.9170	 5.7290
 1.9180	 5.7160
 1.9190	 5.7030
 1.9200	 5.6900
 1.9210	 5.6790
 1.9220	 5.6700
 1.9230	 5.6640
 1.9240	 5.6590
 1.9250	 5.6570
 1.9260	 5.6560
 1.9270	 5.6550
 1.9280	 5.6550
 1.9290	 5.6550
 1.9300	 5.6570
 1.9310	 5.6630
 1.9320	 5.6690
 1.9330	 5.6760
 1.9340	 5.6840
 1.9350	 5.6930
 1.9360	 5.7030
 1.9370	 5.7130
 1.9380	 5.7240
 1.9390	 5.7360
 1.9400	 5.7470
 1.9410	 5.7600
 1.9420	 5.7720
 1.9430	 5.7850
 1.9440	 5.7990
 1.9450	 5.8130
 1.9460	 5.8290
 1.9470	 5.8470
 1.9480	 5.8650
 1.9490	 5.8860
 1.9500	 5.9070
 1.9510	 5.9260
 1.9520	 5.9460
 1.9530	 5.9660
 1.9540	 5.9830
 1.9550	 6.0030
 1.9560	 6.0230
 1.9570	 6.0440
 1.9580	 6.0660
 1.9590	 6.0880
 1.9600	 6.1100
 1.9610	 6.1340
 1.9620	 6.1590
 1.9630	 6.1840
 1.9640	 6.2120
 1.9650	 6.2390
 1.9660	 6.2630
 1.9670	 6.2890
 1.9680	 6.3160
 1.9690	 6.3430
 1.9700	 6.3710
 1.9710	 6.4040
 1.9720	 6.4340
 1.9730	 6.4640
 1.9740	 6.4940
 1.9750	 6.5250
 1.9760	 6.5560
 1.9770	 6.5860
 1.9780	 6.6170
 1.9790	 6.6470
 1.9800	 6.6780
 1.9810	 6.7080
 1.9820	 6.7370
 1.9830	 6.7690
 1.9840	 6.8030
 1.9850	 6.8360
 1.9860	 6.8700
 1.9870	 6.9060
 1.9880	 6.9390
 1.9890	 6.9720
 1.9900	 7.0100
 1.9910	 7.0470
 1.9920	 7.0830
 1.9930	 7.1210
 1.9940	 7.1560
 1.9950	 7.1890
 1.9960	 7.2240
 1.9970	 7.2560
 1.9980	 7.2910
 1.9990	 7.3270
 2.0000	 7.3640
 2.0010	 7.4000
 2.0020	 7.4340
 2.0030	 7.4680
 2.0040	 7.5020
 2.0050	 7.5370
 2.0060	 7.5740
 2.0070	 7.6110
 2.0080	 7.6490
 2.0090	 7.6860
 2.0100	 7.7240
 2.0110	 7.7590
 2.0120	 7.7920
 2.0130	 7.8250
 2.0140	 7.8590
 2.0150	 7.8920
 2.0160	 7.9270
 2.0170	 7.9610
 2.0180	 7.9960
 2.0190	 8.0300
 2.0200	 8.0630
 2.0210	 8.0950
 2.0220	 8.1270
 2.0230	 8.1580
 2.0240	 8.1900
 2.0250	 8.2220
 2.0260	 8.2520
 2.0270	 8.2800
 2.0280	 8.3060
 2.0290	 8.3340
 2.0300	 8.3620
 2.0310	 8.3900
 2.0320	 8.4190
 2.0330	 8.4470
 2.0340	 8.4740
 2.0350	 8.5000
 2.0360	 8.5260
 2.0370	 8.5500
 2.0380	 8.5730
 2.0390	 8.5950
 2.0400	 8.6160
 2.0410	 8.6380
 2.0420	 8.6590
 2.0430	 8.6820
 2.0440	 8.7060
 2.0450	 8.7320
 2.0460	 8.7550
 2.0470	 8.7780
 2.0480	 8.8000
 2.0490	 8.8200
 2.0500	 8.8410
 2.0510	 8.8640
 2.0520	 8.8840
 2.0530	 8.9050
 2.0540	 8.9250
 2.0550	 8.9450
 2.0560	 8.9650
 2.0570	 8.9870
 2.0580	 9.0080
 2.0590	 9.0300
 2.0600	 9.0520
 2.0610	 9.0720
 2.0620	 9.0920
 2.0630	 9.1110
 2.0640	 9.1250
 2.0650	 9.1430
 2.0660	 9.1630
 2.0670	 9.1820
 2.0680	 9.2000
 2.0690	 9.2190
 2.0700	 9.2400
 2.0710	 9.2590
 2.0720	 9.2800
 2.0730	 9.2990
 2.0740	 9.3180
 2.0750	 9.3330
 2.0760	 9.3520
 2.0770	 9.3740
 2.0780	 9.3950
 2.0790	 9.4180
 2.0800	 9.4380
 2.0810	 9.4560
 2.0820	 9.4750
 2.0830	 9.4900
 2.0840	 9.5080
 2.0850	 9.5270
 2.0860	 9.5450
 2.0870	 9.5640
 2.0880	 9.5850
 2.0890	 9.6030
 2.0900	 9.6200
 2.0910	 9.6390
 2.0920	 9.6580
 2.0930	 9.6770
 2.0940	 9.6980
 2.0950	 9.7180
 2.0960	 9.7360
 2.0970	 9.7550
 2.0980	 9.7740
 2.0990	 9.7930
 2.1000	 9.8140
 2.1010	 9.8330
 2.1020	 9.8510
 2.1030	 9.8700
 2.1040	 9.8890
 2.1050	 9.9050
 2.1060	 9.9240
 2.1070	 9.9450
 2.1080	 9.9650
 2.1090	 9.9850
 2.1100	10.0060
 2.1110	10.0270
 2.1120	10.0480
 2.1130	10.0710
 2.1140	10.0910
 2.1150	10.1090
 2.1160	10.1280
 2.1170	10.1460
 2.1180	10.1650
 2.1190	10.1850
 2.1200	10.2040
 2.1210	10.2240
 2.1220	10.2410
 2.1230	10.2600
 2.1240	10.2800
 2.1250	10.2990
 2.1260	10.3170
 2.1270	10.3360
 2.1280	10.3550
 2.1290	10.3740
 2.1300	10.3970
 2.1310	10.4160
 2.1320	10.4320
 2.1330	10.4490
 2.1340	10.4620
 2.1350	10.4780
 2.1360	10.4930
 2.1370	10.5100
 2.1380	10.5290
 2.1390	10.5470
 2.1400	10.5670
 2.1410	10.5850
 2.1420	10.6050
 2.1430	10.6230
 2.1440	10.6430
 2.1450	10.6640
 2.1460	10.6850
 2.1470	10.7060
 2.1480	10.7260
 2.1490	10.7450
 2.1500	10.7650
 2.1510	10.7810
 2.1520	10.8020
 2.1530	10.8250
 2.1540	10.8470
 2.1550	10.8700
 2.1560	10.8900
 2.1570	10.9060
 2.1580	10.9240
 2.1590	10.9390
 2.1600	10.9570
 2.1610	10.9780
 2.1620	10.9950
 2.1630	11.0150
 2.1640	11.0390
 2.1650	11.0560
 2.1660	11.0710
 2.1670	11.0870
 2.1680	11.0970
 2.1690	11.1140
 2.1700	11.1350
 2.1710	11.1540
 2.1720	11.1760
 2.1730	11.1960
 2.1740	11.2150
 2.1750	11.2320
 2.1760	11.2480
 2.1770	11.2650
 2.1780	11.2830
 2.1790	11.2990
 2.1800	11.3140
 2.1810	11.3310
 2.1820	11.3480
 2.1830	11.3620
 2.1840	11.3800
 2.1850	11.4000
 2.1860	11.4170
 2.1870	11.4330
 2.1880	11.4460
 2.1890	11.4550
 2.1900	11.4690
 2.1910	11.4840
 2.1920	11.5000
 2.1930	11.5230
 2.1940	11.5410
 2.1950	11.5580
 2.1960	11.5750
 2.1970	11.5920
 2.1980	11.6060
 2.1990	11.6210
 2.2000	11.6340
 2.2010	11.6430
 2.2020	11.6530
 2.2030	11.6640
 2.2040	11.6750
 2.2050	11.6840
 2.2060	11.6980
 2.2070	11.7080
 2.2080	11.7170
 2.2090	11.7250
 2.2100	11.7320
 2.2110	11.7400
 2.2120	11.7490
 2.2130	11.7570
 2.2140	11.7650
 2.2150	11.7710
 2.2160	11.7740
 2.2170	11.7780
 2.2180	11.7810
 2.2190	11.7830
 2.2200	11.7850
 2.2210	11.7850
 2.2220	11.7850
 2.2230	11.7810
 2.2240	11.7770
 2.2250	11.7690
 2.2260	11.7560
 2.2270	11.7430
 2.2280	11.7240
 2.2290	11.7080
 2.2300	11.6940
 2.2310	11.6780
 2.2320	11.6580
 2.2330	11.6420
 2.2340	11.6220
 2.2350	11.5970
 2.2360	11.5760
 2.2370	11.5590
 2.2380	11.5340
 2.2390	11.5070
 2.2400	11.4770
 2.2410	11.4400
 2.2420	11.4050
 2.2430	11.3700
 2.2440	11.3320
 2.2450	11.2930
 2.2460	11.2540
 2.2470	11.2140
 2.2480	11.1740
 2.2490	11.1350
 2.2500	11.0940
 2.2510	11.0510
 2.2520	11.0070
 2.2530	10.9590
 2.2540	10.9140
 2.2550	10.8700
 2.2560	10.8250
 2.2570	10.7820
 2.2580	10.7390
 2.2590	10.6960
 2.2600	10.6520
 2.2610	10.6080
 2.2620	10.5640
 2.2630	10.5180
 2.2640	10.4730
 2.2650	10.4310
 2.2660	10.3880
 2.2670	10.3470
 2.2680	10.3050
 2.2690	10.2680
 2.2700	10.2320
 2.2710	10.2000
 2.2720	10.1730
 2.2730	10.1460
 2.2740	10.1200
 2.2750	10.0960
 2.2760	10.0730
 2.2770	10.0510
 2.2780	10.0320
 2.2790	10.0120
 2.2800	 9.9930
 2.2810	 9.9750
 2.2820	 9.9590
 2.2830	 9.9420
 2.2840	 9.9270
 2.2850	 9.9080
 2.2860	 9.8860
 2.2870	 9.8640
 2.2880	 9.8400
 2.2890	 9.8170
 2.2900	 9.7940
 2.2910	 9.7690
 2.2920	 9.7450
 2.2930	 9.7160
 2.2940	 9.6820
 2.2950	 9.6500
 2.2960	 9.6130
 2.2970	 9.5800
 2.2980	 9.5490
 2.2990	 9.5240
 2.3000	 9.4950
 2.3010	 9.4630
 2.3020	 9.4370
 2.3030	 9.4070
 2.3040	 9.3750
 2.3050	 9.3480
 2.3060	 9.3140
 2.3070	 9.2830
 2.3080	 9.2660
 2.3090	 9.2460
 2.3100	 9.2310
 2.3110	 9.2200
 2.3120	 9.2100
 2.3130	 9.2010
 2.3140	 9.1960
 2.3150	 9.1960
 2.3160	 9.1930
 2.3170	 9.1930
 2.3180	 9.1880
 2.3190	 9.1830
 2.3200	 9.1750
 2.3210	 9.1650
 2.3220	 9.1540
 2.3230	 9.1380
 2.3240	 9.1220
 2.3250	 9.1050
 2.3260	 9.0870
 2.3270	 9.0700
 2.3280	 9.0480
 2.3290	 9.0200
 2.3300	 8.9970
 2.3310	 8.9740
 2.3320	 8.9500
 2.3330	 8.9280
 2.3340	 8.9080
 2.3350	 8.8910
 2.3360	 8.8710
 2.3370	 8.8550
 2.3380	 8.8350
 2.3390	 8.8060
 2.3400	 8.7810
 2.3410	 8.7580
 2.3420	 8.7330
 2.3430	 8.7060
 2.3440	 8.6860
 2.3450	 8.6710
 2.3460	 8.6530
 2.3470	 8.6390
 2.3480	 8.6220
 2.3490	 8.5980
 2.3500	 8.5810
 2.3510	 8.5710
 2.3520	 8.5580
 2.3530	 8.5500
 2.3540	 8.5400
 2.3550	 8.5150
 2.3560	 8.4990
 2.3570	 8.4760
 2.3580	 8.4570
 2.3590	 8.4510
 2.3600	 8.4310
 2.3610	 8.4150
 2.3620	 8.4010
 2.3630	 8.3820
 2.3640	 8.3640
 2.3650	 8.3470
 2.3660	 8.3310
 2.3670	 8.3140
 2.3680	 8.3010
 2.3690	 8.2850
 2.3700	 8.2610
 2.3710	 8.2310
 2.3720	 8.2050
 2.3730	 8.1920
 2.3740	 8.1770
 2.3750	 8.1660
 2.3760	 8.1610
 2.3770	 8.1390
 2.3780	 8.1140
 2.3790	 8.0990
 2.3800	 8.0750
 2.3810	 8.0540
 2.3820	 8.0380
 2.3830	 8.0190
 2.3840	 8.0000
 2.3850	 7.9880
 2.3860	 7.9750
 2.3870	 7.9520
 2.3880	 7.9350
 2.3890	 7.9140
 2.3900	 7.8860
 2.3910	 7.8640
 2.3920	 7.8330
 2.3930	 7.8030
 2.3940	 7.7890
 2.3950	 7.7790
 2.3960	 7.7670
 2.3970	 7.7670
 2.3980	 7.7510
 2.3990	 7.7320
 2.4000	 7.7160
 2.4010	 7.6940
 2.4020	 7.6840
 2.4030	 7.6680
 2.4040	 7.6470
 2.4050	 7.6220
 2.4060	 7.5900
 2.4070	 7.5590
 2.4080	 7.5380
 2.4090	 7.5180
 2.4100	 7.4980
 2.4110	 7.4840
 2.4120	 7.4660
 2.4130	 7.4480
 2.4140	 7.4270
 2.4150	 7.4150
 2.4160	 7.4160
 2.4170	 7.4030
 2.4180	 7.3850
 2.4190	 7.3660
 2.4200	 7.3320
 2.4210	 7.3080
 2.4220	 7.2960
 2.4230	 7.2710
 2.4240	 7.2380
 2.4250	 7.1940
 2.4260	 7.1590
 2.4270	 7.1320
 2.4280	 7.1100
 2.4290	 7.1090
 2.4300	 7.1010
 2.4310	 7.0770
 2.4320	 7.0510
 2.4330	 7.0210
 2.4340	 6.9920
 2.4350	 6.9760
 2.4360	 6.9510
 2.4370	 6.9260
 2.4380	 6.9070
 2.4390	 6.8830
 2.4400	 6.8680
 2.4410	 6.8530
 2.4420	 6.8390
 2.4430	 6.8320
 2.4440	 6.8210
 2.4450	 6.7950
 2.4460	 6.7520
 2.4470	 6.7140
 2.4480	 6.6850
 2.4490	 6.6710
 2.4500	 6.6640
 2.4510	 6.6410
 2.4520	 6.6120
 2.4530	 6.5660
 2.4540	 6.5250
 2.4550	 6.5020
 2.4560	 6.4750
 2.4570	 6.4650
 2.4580	 6.4620
 2.4590	 6.4470
 2.4600	 6.4280
 2.4610	 6.4070
 2.4620	 6.4000
 2.4630	 6.3890
 2.4640	 6.3680
 2.4650	 6.3710
 2.4660	 6.3600
 2.4670	 6.3480
 2.4680	 6.3590
 2.4690	 6.3350
 2.4700	 6.3120
 2.4710	 6.2680
 2.4720	 6.2330
 2.4730	 6.2020
 2.4740	 6.1780
 2.4750	 6.1490
 2.4760	 6.1380
 2.4770	 6.1450
 2.4780	 6.1450
 2.4790	 6.1590
 2.4800	 6.1720
 2.4810	 6.1920
 2.4820	 6.1860
 2.4830	 6.1450
 2.4840	 6.1020
 2.4850	 6.0660
 2.4860	 6.0660
 2.4870	 6.1020
 2.4880	 6.1070
 2.4890	 6.0670
 2.4900	 6.0600
 2.4910	 6.0780
 2.4920	 6.0810
 2.4930	 6.1120
 2.4940	 6.0930
 2.4950	 6.0280
 2.4960	 5.9920
 2.4970	 5.9540
 2.4980	 5.9620
 2.4990	 5.9770
 2.5000	 5.9540
