Name: Fagus grandifolia
Type: Vegetation
Class: Tree
Genus: Fagus
Species: grandifolia
Sample No.: FAGR-2-43
Owner: UCSB
Wavelength Range: VSWIR
Origin: USA; Massachusetts; Harvard Forest
Collection Date: 7/8/2013
Description: Samples were collected as part of NSF Macrosystem Biology proposal titled: Collaborative Research: Thermal controls on ecosystem metabolism and function: scaling from leaves to canopies to regions. Samples were collected and overnighted to JPL facilities for processing. The same leaves were processed in the Nicolet and then measured using the ASD.
Measurement: Bidirectional reflectance
First Column: X
Second Column: Y
X Units: Wavelength (micrometers)
Y Units: Reflectance (percentage)
First X Value: 0.35
Last X Value: 2.5
Number of X Values: 2151
Additional Information: vegetation.tree.fagus.grandifolia.vswir.fagr-2-43.ucsb.asd.ancillary.txt

 0.3500	12.3270
 0.3510	12.1900
 0.3520	12.2060
 0.3530	12.2390
 0.3540	12.2130
 0.3550	12.4380
 0.3560	12.5370
 0.3570	12.4800
 0.3580	12.4050
 0.3590	12.1250
 0.3600	12.1130
 0.3610	12.3810
 0.3620	12.2410
 0.3630	12.1170
 0.3640	12.0440
 0.3650	12.0010
 0.3660	12.1380
 0.3670	12.2410
 0.3680	12.2140
 0.3690	12.0700
 0.3700	12.0570
 0.3710	12.0850
 0.3720	12.0730
 0.3730	12.0500
 0.3740	11.9080
 0.3750	11.7990
 0.3760	11.8780
 0.3770	11.9120
 0.3780	11.9400
 0.3790	12.0000
 0.3800	12.1010
 0.3810	11.9790
 0.3820	11.8080
 0.3830	11.7580
 0.3840	11.8350
 0.3850	11.9160
 0.3860	11.9290
 0.3870	11.8580
 0.3880	11.8500
 0.3890	11.9100
 0.3900	11.9750
 0.3910	11.9320
 0.3920	11.9140
 0.3930	11.9270
 0.3940	11.9390
 0.3950	11.9060
 0.3960	11.8280
 0.3970	11.7950
 0.3980	11.8940
 0.3990	11.8990
 0.4000	11.8510
 0.4010	11.8000
 0.4020	11.7790
 0.4030	11.8080
 0.4040	11.8180
 0.4050	11.7650
 0.4060	11.7710
 0.4070	11.7690
 0.4080	11.7640
 0.4090	11.8040
 0.4100	11.8090
 0.4110	11.8000
 0.4120	11.8050
 0.4130	11.8360
 0.4140	11.8670
 0.4150	11.8850
 0.4160	11.8880
 0.4170	11.8710
 0.4180	11.8640
 0.4190	11.8630
 0.4200	11.8400
 0.4210	11.8580
 0.4220	11.8760
 0.4230	11.8620
 0.4240	11.8420
 0.4250	11.8380
 0.4260	11.8430
 0.4270	11.8400
 0.4280	11.8410
 0.4290	11.8260
 0.4300	11.7980
 0.4310	11.7910
 0.4320	11.7570
 0.4330	11.7130
 0.4340	11.6860
 0.4350	11.6670
 0.4360	11.6660
 0.4370	11.6800
 0.4380	11.7000
 0.4390	11.7470
 0.4400	11.7770
 0.4410	11.7660
 0.4420	11.7660
 0.4430	11.7610
 0.4440	11.7650
 0.4450	11.7880
 0.4460	11.7650
 0.4470	11.7520
 0.4480	11.7670
 0.4490	11.7690
 0.4500	11.7730
 0.4510	11.7870
 0.4520	11.8040
 0.4530	11.7750
 0.4540	11.7640
 0.4550	11.7790
 0.4560	11.7910
 0.4570	11.7890
 0.4580	11.7890
 0.4590	11.7970
 0.4600	11.7840
 0.4610	11.7850
 0.4620	11.7960
 0.4630	11.7950
 0.4640	11.7740
 0.4650	11.7630
 0.4660	11.7670
 0.4670	11.7660
 0.4680	11.7620
 0.4690	11.7550
 0.4700	11.7500
 0.4710	11.7540
 0.4720	11.7440
 0.4730	11.7280
 0.4740	11.7330
 0.4750	11.7360
 0.4760	11.7360
 0.4770	11.7340
 0.4780	11.7220
 0.4790	11.7260
 0.4800	11.7320
 0.4810	11.7220
 0.4820	11.7060
 0.4830	11.7020
 0.4840	11.7020
 0.4850	11.6840
 0.4860	11.6800
 0.4870	11.6840
 0.4880	11.6890
 0.4890	11.7060
 0.4900	11.7130
 0.4910	11.7110
 0.4920	11.7130
 0.4930	11.7340
 0.4940	11.7540
 0.4950	11.7590
 0.4960	11.7570
 0.4970	11.7700
 0.4980	11.7920
 0.4990	11.8140
 0.5000	11.8350
 0.5010	11.8550
 0.5020	11.8750
 0.5030	11.8960
 0.5040	11.9250
 0.5050	11.9590
 0.5060	11.9960
 0.5070	12.0480
 0.5080	12.0960
 0.5090	12.1460
 0.5100	12.2100
 0.5110	12.2810
 0.5120	12.3660
 0.5130	12.4630
 0.5140	12.5570
 0.5150	12.6760
 0.5160	12.8140
 0.5170	12.9570
 0.5180	13.1080
 0.5190	13.2690
 0.5200	13.4420
 0.5210	13.6220
 0.5220	13.8100
 0.5230	13.9980
 0.5240	14.1820
 0.5250	14.3670
 0.5260	14.5530
 0.5270	14.7280
 0.5280	14.8820
 0.5290	15.0360
 0.5300	15.1800
 0.5310	15.3100
 0.5320	15.4220
 0.5330	15.5240
 0.5340	15.6170
 0.5350	15.6990
 0.5360	15.7760
 0.5370	15.8310
 0.5380	15.8680
 0.5390	15.9050
 0.5400	15.9240
 0.5410	15.9290
 0.5420	15.9280
 0.5430	15.9370
 0.5440	15.9560
 0.5450	15.9880
 0.5460	16.0380
 0.5470	16.1140
 0.5480	16.1850
 0.5490	16.2300
 0.5500	16.2500
 0.5510	16.2620
 0.5520	16.2710
 0.5530	16.2740
 0.5540	16.2600
 0.5550	16.2260
 0.5560	16.1750
 0.5570	16.1160
 0.5580	16.0470
 0.5590	15.9640
 0.5600	15.8680
 0.5610	15.7640
 0.5620	15.6540
 0.5630	15.5380
 0.5640	15.4140
 0.5650	15.2850
 0.5660	15.1560
 0.5670	15.0280
 0.5680	14.8870
 0.5690	14.7430
 0.5700	14.5990
 0.5710	14.4570
 0.5720	14.3220
 0.5730	14.2020
 0.5740	14.0970
 0.5750	13.9990
 0.5760	13.8990
 0.5770	13.8120
 0.5780	13.7450
 0.5790	13.6720
 0.5800	13.6020
 0.5810	13.5390
 0.5820	13.4850
 0.5830	13.4200
 0.5840	13.3590
 0.5850	13.3070
 0.5860	13.2540
 0.5870	13.2000
 0.5880	13.1530
 0.5890	13.1180
 0.5900	13.0870
 0.5910	13.0640
 0.5920	13.0470
 0.5930	13.0340
 0.5940	13.0160
 0.5950	13.0060
 0.5960	13.0050
 0.5970	12.9940
 0.5980	12.9730
 0.5990	12.9500
 0.6000	12.9360
 0.6010	12.9250
 0.6020	12.9110
 0.6030	12.8880
 0.6040	12.8560
 0.6050	12.8250
 0.6060	12.7960
 0.6070	12.7630
 0.6080	12.7200
 0.6090	12.6560
 0.6100	12.5670
 0.6110	12.4640
 0.6120	12.4350
 0.6130	12.4430
 0.6140	12.4500
 0.6150	12.4310
 0.6160	12.4130
 0.6170	12.3940
 0.6180	12.3710
 0.6190	12.3430
 0.6200	12.3180
 0.6210	12.2980
 0.6220	12.2840
 0.6230	12.2680
 0.6240	12.2540
 0.6250	12.2430
 0.6260	12.2340
 0.6270	12.2260
 0.6280	12.2200
 0.6290	12.2150
 0.6300	12.2040
 0.6310	12.1930
 0.6320	12.1850
 0.6330	12.1840
 0.6340	12.1770
 0.6350	12.1600
 0.6360	12.1380
 0.6370	12.1200
 0.6380	12.0980
 0.6390	12.0710
 0.6400	12.0400
 0.6410	12.0090
 0.6420	11.9800
 0.6430	11.9530
 0.6440	11.9210
 0.6450	11.8940
 0.6460	11.8700
 0.6470	11.8480
 0.6480	11.8390
 0.6490	11.8250
 0.6500	11.8060
 0.6510	11.7940
 0.6520	11.7910
 0.6530	11.7910
 0.6540	11.7880
 0.6550	11.7810
 0.6560	11.7760
 0.6570	11.7720
 0.6580	11.7680
 0.6590	11.7610
 0.6600	11.7560
 0.6610	11.7530
 0.6620	11.7450
 0.6630	11.7460
 0.6640	11.7530
 0.6650	11.7580
 0.6660	11.7570
 0.6670	11.7670
 0.6680	11.7840
 0.6690	11.7970
 0.6700	11.8120
 0.6710	11.8330
 0.6720	11.8580
 0.6730	11.8780
 0.6740	11.9020
 0.6750	11.9320
 0.6760	11.9640
 0.6770	11.9920
 0.6780	12.0260
 0.6790	12.0670
 0.6800	12.1060
 0.6810	12.1460
 0.6820	12.1900
 0.6830	12.2340
 0.6840	12.2720
 0.6850	12.3130
 0.6860	12.3560
 0.6870	12.4010
 0.6880	12.4480
 0.6890	12.5110
 0.6900	12.5960
 0.6910	12.7000
 0.6920	12.8400
 0.6930	13.0280
 0.6940	13.2740
 0.6950	13.5850
 0.6960	13.9690
 0.6970	14.4350
 0.6980	14.9890
 0.6990	15.6190
 0.7000	16.3250
 0.7010	17.1020
 0.7020	17.9390
 0.7030	18.8290
 0.7040	19.7550
 0.7050	20.7040
 0.7060	21.6760
 0.7070	22.6720
 0.7080	23.6830
 0.7090	24.7050
 0.7100	25.7310
 0.7110	26.7610
 0.7120	27.7950
 0.7130	28.8240
 0.7140	29.8510
 0.7150	30.8700
 0.7160	31.8790
 0.7170	32.8810
 0.7180	33.8740
 0.7190	34.8520
 0.7200	35.8110
 0.7210	36.7470
 0.7220	37.6660
 0.7230	38.5680
 0.7240	39.4510
 0.7250	40.2860
 0.7260	41.0920
 0.7270	41.8850
 0.7280	42.6510
 0.7290	43.3780
 0.7300	44.0640
 0.7310	44.7150
 0.7320	45.3530
 0.7330	45.9520
 0.7340	46.5080
 0.7350	47.0430
 0.7360	47.5640
 0.7370	48.0510
 0.7380	48.4900
 0.7390	48.9050
 0.7400	49.3020
 0.7410	49.6710
 0.7420	50.0030
 0.7430	50.3110
 0.7440	50.6130
 0.7450	50.8990
 0.7460	51.1360
 0.7470	51.3540
 0.7480	51.5610
 0.7490	51.7580
 0.7500	51.9440
 0.7510	52.1000
 0.7520	52.2310
 0.7530	52.3510
 0.7540	52.4840
 0.7550	52.5920
 0.7560	52.6700
 0.7570	52.7460
 0.7580	52.8370
 0.7590	52.9180
 0.7600	52.9770
 0.7610	53.0340
 0.7620	53.0820
 0.7630	53.1260
 0.7640	53.1680
 0.7650	53.1930
 0.7660	53.2300
 0.7670	53.2770
 0.7680	53.3090
 0.7690	53.3210
 0.7700	53.3370
 0.7710	53.3610
 0.7720	53.3690
 0.7730	53.3810
 0.7740	53.3950
 0.7750	53.4070
 0.7760	53.4270
 0.7770	53.4580
 0.7780	53.4850
 0.7790	53.4870
 0.7800	53.4810
 0.7810	53.4960
 0.7820	53.5300
 0.7830	53.5450
 0.7840	53.5540
 0.7850	53.5610
 0.7860	53.5680
 0.7870	53.5840
 0.7880	53.5970
 0.7890	53.6090
 0.7900	53.6220
 0.7910	53.6130
 0.7920	53.6200
 0.7930	53.6400
 0.7940	53.6410
 0.7950	53.6580
 0.7960	53.6710
 0.7970	53.6730
 0.7980	53.6790
 0.7990	53.6840
 0.8000	53.6890
 0.8010	53.6920
 0.8020	53.6930
 0.8030	53.6880
 0.8040	53.6830
 0.8050	53.6860
 0.8060	53.6870
 0.8070	53.6860
 0.8080	53.6870
 0.8090	53.6930
 0.8100	53.6770
 0.8110	53.6690
 0.8120	53.6800
 0.8130	53.6750
 0.8140	53.6590
 0.8150	53.6460
 0.8160	53.6440
 0.8170	53.6450
 0.8180	53.6290
 0.8190	53.6120
 0.8200	53.6240
 0.8210	53.6280
 0.8220	53.6260
 0.8230	53.6170
 0.8240	53.5980
 0.8250	53.6000
 0.8260	53.5960
 0.8270	53.5730
 0.8280	53.5540
 0.8290	53.5570
 0.8300	53.5620
 0.8310	53.5540
 0.8320	53.5500
 0.8330	53.5370
 0.8340	53.5260
 0.8350	53.5280
 0.8360	53.5220
 0.8370	53.5220
 0.8380	53.5240
 0.8390	53.5110
 0.8400	53.5050
 0.8410	53.5040
 0.8420	53.5070
 0.8430	53.5130
 0.8440	53.5050
 0.8450	53.4910
 0.8460	53.4840
 0.8470	53.4970
 0.8480	53.5020
 0.8490	53.4920
 0.8500	53.4780
 0.8510	53.4870
 0.8520	53.4870
 0.8530	53.4820
 0.8540	53.4960
 0.8550	53.5190
 0.8560	53.5090
 0.8570	53.4820
 0.8580	53.5050
 0.8590	53.5280
 0.8600	53.5260
 0.8610	53.5040
 0.8620	53.5040
 0.8630	53.5170
 0.8640	53.5300
 0.8650	53.5340
 0.8660	53.5270
 0.8670	53.5290
 0.8680	53.5400
 0.8690	53.5490
 0.8700	53.5480
 0.8710	53.5530
 0.8720	53.5670
 0.8730	53.5780
 0.8740	53.5910
 0.8750	53.5890
 0.8760	53.5800
 0.8770	53.5970
 0.8780	53.6100
 0.8790	53.6140
 0.8800	53.6090
 0.8810	53.5950
 0.8820	53.6200
 0.8830	53.6450
 0.8840	53.6450
 0.8850	53.6510
 0.8860	53.6530
 0.8870	53.6650
 0.8880	53.6930
 0.8890	53.6870
 0.8900	53.6700
 0.8910	53.6700
 0.8920	53.7010
 0.8930	53.7240
 0.8940	53.7270
 0.8950	53.7240
 0.8960	53.7370
 0.8970	53.7550
 0.8980	53.7640
 0.8990	53.7610
 0.9000	53.7510
 0.9010	53.7630
 0.9020	53.7770
 0.9030	53.7830
 0.9040	53.7930
 0.9050	53.8090
 0.9060	53.8230
 0.9070	53.8290
 0.9080	53.8340
 0.9090	53.8440
 0.9100	53.8460
 0.9110	53.8370
 0.9120	53.8390
 0.9130	53.8540
 0.9140	53.8750
 0.9150	53.8920
 0.9160	53.8890
 0.9170	53.8720
 0.9180	53.8770
 0.9190	53.9220
 0.9200	53.9150
 0.9210	53.9050
 0.9220	53.9090
 0.9230	53.9160
 0.9240	53.8990
 0.9250	53.9000
 0.9260	53.9240
 0.9270	53.9450
 0.9280	53.9540
 0.9290	53.9360
 0.9300	53.9140
 0.9310	53.9440
 0.9320	53.9550
 0.9330	53.9430
 0.9340	53.9140
 0.9350	53.8700
 0.9360	53.8510
 0.9370	53.8560
 0.9380	53.8730
 0.9390	53.8850
 0.9400	53.8800
 0.9410	53.8650
 0.9420	53.8540
 0.9430	53.8550
 0.9440	53.8140
 0.9450	53.7840
 0.9460	53.7980
 0.9470	53.7870
 0.9480	53.7830
 0.9490	53.7530
 0.9500	53.6920
 0.9510	53.6950
 0.9520	53.6790
 0.9530	53.6570
 0.9540	53.6490
 0.9550	53.6120
 0.9560	53.5720
 0.9570	53.5450
 0.9580	53.5360
 0.9590	53.5290
 0.9600	53.5170
 0.9610	53.4930
 0.9620	53.4580
 0.9630	53.4160
 0.9640	53.3930
 0.9650	53.3800
 0.9660	53.3630
 0.9670	53.3820
 0.9680	53.3690
 0.9690	53.3450
 0.9700	53.3580
 0.9710	53.3500
 0.9720	53.3620
 0.9730	53.3620
 0.9740	53.3110
 0.9750	53.2910
 0.9760	53.2880
 0.9770	53.2970
 0.9780	53.3100
 0.9790	53.2660
 0.9800	53.2690
 0.9810	53.3020
 0.9820	53.3000
 0.9830	53.2800
 0.9840	53.2660
 0.9850	53.2720
 0.9860	53.2970
 0.9870	53.3080
 0.9880	53.3040
 0.9890	53.2960
 0.9900	53.2940
 0.9910	53.2670
 0.9920	53.3340
 0.9930	53.4000
 0.9940	53.4670
 0.9950	53.5330
 0.9960	53.6000
 0.9970	53.6660
 0.9980	53.7330
 0.9990	53.7990
 1.0000	53.8650
 1.0010	53.9320
 1.0020	53.9980
 1.0030	54.0650
 1.0040	54.1310
 1.0050	54.1980
 1.0060	54.2640
 1.0070	54.3310
 1.0080	54.3970
 1.0090	54.4640
 1.0100	54.4640
 1.0110	54.4630
 1.0120	54.4690
 1.0130	54.4730
 1.0140	54.4810
 1.0150	54.4960
 1.0160	54.5040
 1.0170	54.5080
 1.0180	54.5150
 1.0190	54.5140
 1.0200	54.5200
 1.0210	54.5250
 1.0220	54.5190
 1.0230	54.5180
 1.0240	54.5120
 1.0250	54.5150
 1.0260	54.5210
 1.0270	54.5280
 1.0280	54.5430
 1.0290	54.5510
 1.0300	54.5550
 1.0310	54.5610
 1.0320	54.5630
 1.0330	54.5690
 1.0340	54.5680
 1.0350	54.5680
 1.0360	54.5840
 1.0370	54.5910
 1.0380	54.5980
 1.0390	54.6120
 1.0400	54.6160
 1.0410	54.6070
 1.0420	54.6070
 1.0430	54.6070
 1.0440	54.6110
 1.0450	54.6190
 1.0460	54.6270
 1.0470	54.6420
 1.0480	54.6520
 1.0490	54.6600
 1.0500	54.6670
 1.0510	54.6740
 1.0520	54.6770
 1.0530	54.6810
 1.0540	54.6830
 1.0550	54.6920
 1.0560	54.7070
 1.0570	54.7130
 1.0580	54.7210
 1.0590	54.7250
 1.0600	54.7170
 1.0610	54.7210
 1.0620	54.7340
 1.0630	54.7410
 1.0640	54.7490
 1.0650	54.7570
 1.0660	54.7610
 1.0670	54.7670
 1.0680	54.7750
 1.0690	54.7870
 1.0700	54.7930
 1.0710	54.7970
 1.0720	54.8010
 1.0730	54.8010
 1.0740	54.8040
 1.0750	54.8090
 1.0760	54.8090
 1.0770	54.8050
 1.0780	54.8020
 1.0790	54.7930
 1.0800	54.7920
 1.0810	54.7990
 1.0820	54.8010
 1.0830	54.8110
 1.0840	54.8100
 1.0850	54.8000
 1.0860	54.7890
 1.0870	54.7850
 1.0880	54.7790
 1.0890	54.7730
 1.0900	54.7740
 1.0910	54.7700
 1.0920	54.7620
 1.0930	54.7560
 1.0940	54.7520
 1.0950	54.7470
 1.0960	54.7400
 1.0970	54.7330
 1.0980	54.7290
 1.0990	54.7230
 1.1000	54.7150
 1.1010	54.7070
 1.1020	54.7000
 1.1030	54.6890
 1.1040	54.6790
 1.1050	54.6640
 1.1060	54.6490
 1.1070	54.6320
 1.1080	54.6170
 1.1090	54.6040
 1.1100	54.5880
 1.1110	54.5700
 1.1120	54.5550
 1.1130	54.5390
 1.1140	54.5240
 1.1150	54.5080
 1.1160	54.4950
 1.1170	54.4830
 1.1180	54.4700
 1.1190	54.4610
 1.1200	54.4480
 1.1210	54.4300
 1.1220	54.4120
 1.1230	54.3850
 1.1240	54.3640
 1.1250	54.3410
 1.1260	54.3150
 1.1270	54.2860
 1.1280	54.2580
 1.1290	54.2250
 1.1300	54.1880
 1.1310	54.1510
 1.1320	54.1150
 1.1330	54.0710
 1.1340	54.0240
 1.1350	53.9740
 1.1360	53.9180
 1.1370	53.8630
 1.1380	53.8110
 1.1390	53.7530
 1.1400	53.6900
 1.1410	53.6310
 1.1420	53.5750
 1.1430	53.5130
 1.1440	53.4530
 1.1450	53.3920
 1.1460	53.3350
 1.1470	53.2760
 1.1480	53.2220
 1.1490	53.1750
 1.1500	53.1260
 1.1510	53.0740
 1.1520	53.0270
 1.1530	52.9830
 1.1540	52.9410
 1.1550	52.9020
 1.1560	52.8650
 1.1570	52.8320
 1.1580	52.8000
 1.1590	52.7740
 1.1600	52.7530
 1.1610	52.7320
 1.1620	52.7150
 1.1630	52.7010
 1.1640	52.6870
 1.1650	52.6780
 1.1660	52.6750
 1.1670	52.6710
 1.1680	52.6710
 1.1690	52.6670
 1.1700	52.6600
 1.1710	52.6540
 1.1720	52.6420
 1.1730	52.6360
 1.1740	52.6320
 1.1750	52.6270
 1.1760	52.6230
 1.1770	52.6220
 1.1780	52.6200
 1.1790	52.6190
 1.1800	52.6170
 1.1810	52.6130
 1.1820	52.6020
 1.1830	52.5890
 1.1840	52.5790
 1.1850	52.5730
 1.1860	52.5690
 1.1870	52.5640
 1.1880	52.5610
 1.1890	52.5550
 1.1900	52.5540
 1.1910	52.5610
 1.1920	52.5620
 1.1930	52.5620
 1.1940	52.5630
 1.1950	52.5610
 1.1960	52.5620
 1.1970	52.5690
 1.1980	52.5750
 1.1990	52.5750
 1.2000	52.5750
 1.2010	52.5800
 1.2020	52.5820
 1.2030	52.5860
 1.2040	52.5940
 1.2050	52.5950
 1.2060	52.5970
 1.2070	52.6030
 1.2080	52.6090
 1.2090	52.6190
 1.2100	52.6210
 1.2110	52.6250
 1.2120	52.6260
 1.2130	52.6340
 1.2140	52.6450
 1.2150	52.6560
 1.2160	52.6740
 1.2170	52.6880
 1.2180	52.6980
 1.2190	52.7120
 1.2200	52.7270
 1.2210	52.7420
 1.2220	52.7520
 1.2230	52.7630
 1.2240	52.7720
 1.2250	52.7790
 1.2260	52.7900
 1.2270	52.8010
 1.2280	52.8100
 1.2290	52.8200
 1.2300	52.8330
 1.2310	52.8440
 1.2320	52.8500
 1.2330	52.8530
 1.2340	52.8600
 1.2350	52.8610
 1.2360	52.8680
 1.2370	52.8810
 1.2380	52.8980
 1.2390	52.9090
 1.2400	52.9170
 1.2410	52.9280
 1.2420	52.9390
 1.2430	52.9450
 1.2440	52.9530
 1.2450	52.9650
 1.2460	52.9700
 1.2470	52.9760
 1.2480	52.9870
 1.2490	52.9940
 1.2500	52.9960
 1.2510	53.0010
 1.2520	53.0030
 1.2530	53.0040
 1.2540	53.0060
 1.2550	53.0060
 1.2560	53.0080
 1.2570	53.0120
 1.2580	53.0120
 1.2590	53.0150
 1.2600	53.0230
 1.2610	53.0280
 1.2620	53.0320
 1.2630	53.0370
 1.2640	53.0420
 1.2650	53.0420
 1.2660	53.0410
 1.2670	53.0390
 1.2680	53.0400
 1.2690	53.0410
 1.2700	53.0380
 1.2710	53.0380
 1.2720	53.0370
 1.2730	53.0320
 1.2740	53.0340
 1.2750	53.0310
 1.2760	53.0250
 1.2770	53.0240
 1.2780	53.0210
 1.2790	53.0210
 1.2800	53.0230
 1.2810	53.0180
 1.2820	53.0150
 1.2830	53.0140
 1.2840	53.0090
 1.2850	53.0090
 1.2860	53.0060
 1.2870	52.9990
 1.2880	52.9880
 1.2890	52.9790
 1.2900	52.9700
 1.2910	52.9630
 1.2920	52.9560
 1.2930	52.9480
 1.2940	52.9370
 1.2950	52.9200
 1.2960	52.9080
 1.2970	52.8940
 1.2980	52.8780
 1.2990	52.8630
 1.3000	52.8410
 1.3010	52.8160
 1.3020	52.7920
 1.3030	52.7690
 1.3040	52.7470
 1.3050	52.7260
 1.3060	52.7050
 1.3070	52.6760
 1.3080	52.6450
 1.3090	52.6120
 1.3100	52.5720
 1.3110	52.5340
 1.3120	52.4930
 1.3130	52.4430
 1.3140	52.3930
 1.3150	52.3410
 1.3160	52.2870
 1.3170	52.2300
 1.3180	52.1750
 1.3190	52.1180
 1.3200	52.0630
 1.3210	52.0050
 1.3220	51.9450
 1.3230	51.8850
 1.3240	51.8190
 1.3250	51.7530
 1.3260	51.6860
 1.3270	51.6140
 1.3280	51.5430
 1.3290	51.4700
 1.3300	51.3940
 1.3310	51.3180
 1.3320	51.2370
 1.3330	51.1530
 1.3340	51.0730
 1.3350	50.9930
 1.3360	50.9150
 1.3370	50.8400
 1.3380	50.7640
 1.3390	50.6860
 1.3400	50.6010
 1.3410	50.5170
 1.3420	50.4350
 1.3430	50.3480
 1.3440	50.2640
 1.3450	50.1810
 1.3460	50.0980
 1.3470	50.0150
 1.3480	49.9340
 1.3490	49.8520
 1.3500	49.7700
 1.3510	49.6860
 1.3520	49.6040
 1.3530	49.5280
 1.3540	49.4490
 1.3550	49.3710
 1.3560	49.2950
 1.3570	49.2140
 1.3580	49.1330
 1.3590	49.0500
 1.3600	48.9630
 1.3610	48.8730
 1.3620	48.7840
 1.3630	48.6940
 1.3640	48.6000
 1.3650	48.4990
 1.3660	48.3960
 1.3670	48.2870
 1.3680	48.1700
 1.3690	48.0490
 1.3700	47.9170
 1.3710	47.7730
 1.3720	47.6250
 1.3730	47.4640
 1.3740	47.2900
 1.3750	47.1040
 1.3760	46.9040
 1.3770	46.6880
 1.3780	46.4540
 1.3790	46.2020
 1.3800	45.9300
 1.3810	45.6390
 1.3820	45.3310
 1.3830	45.0070
 1.3840	44.6650
 1.3850	44.3060
 1.3860	43.9300
 1.3870	43.5330
 1.3880	43.1280
 1.3890	42.7090
 1.3900	42.2740
 1.3910	41.8340
 1.3920	41.3810
 1.3930	40.9160
 1.3940	40.4520
 1.3950	39.9750
 1.3960	39.5010
 1.3970	39.0300
 1.3980	38.5550
 1.3990	38.0930
 1.4000	37.6360
 1.4010	37.1860
 1.4020	36.7570
 1.4030	36.3340
 1.4040	35.9270
 1.4050	35.5370
 1.4060	35.1560
 1.4070	34.8000
 1.4080	34.4620
 1.4090	34.1380
 1.4100	33.8410
 1.4110	33.5610
 1.4120	33.2980
 1.4130	33.0580
 1.4140	32.8320
 1.4150	32.6200
 1.4160	32.4260
 1.4170	32.2470
 1.4180	32.0820
 1.4190	31.9330
 1.4200	31.7980
 1.4210	31.6740
 1.4220	31.5610
 1.4230	31.4620
 1.4240	31.3720
 1.4250	31.2910
 1.4260	31.2230
 1.4270	31.1610
 1.4280	31.1090
 1.4290	31.0630
 1.4300	31.0260
 1.4310	30.9930
 1.4320	30.9660
 1.4330	30.9440
 1.4340	30.9300
 1.4350	30.9190
 1.4360	30.9150
 1.4370	30.9170
 1.4380	30.9230
 1.4390	30.9300
 1.4400	30.9430
 1.4410	30.9570
 1.4420	30.9730
 1.4430	30.9950
 1.4440	31.0190
 1.4450	31.0440
 1.4460	31.0700
 1.4470	31.0950
 1.4480	31.1210
 1.4490	31.1470
 1.4500	31.1750
 1.4510	31.2080
 1.4520	31.2450
 1.4530	31.2840
 1.4540	31.3260
 1.4550	31.3710
 1.4560	31.4150
 1.4570	31.4610
 1.4580	31.5140
 1.4590	31.5680
 1.4600	31.6250
 1.4610	31.6880
 1.4620	31.7530
 1.4630	31.8240
 1.4640	31.9010
 1.4650	31.9820
 1.4660	32.0680
 1.4670	32.1590
 1.4680	32.2570
 1.4690	32.3620
 1.4700	32.4710
 1.4710	32.5820
 1.4720	32.6970
 1.4730	32.8150
 1.4740	32.9360
 1.4750	33.0640
 1.4760	33.1920
 1.4770	33.3200
 1.4780	33.4510
 1.4790	33.5830
 1.4800	33.7170
 1.4810	33.8540
 1.4820	33.9890
 1.4830	34.1270
 1.4840	34.2650
 1.4850	34.4020
 1.4860	34.5400
 1.4870	34.6770
 1.4880	34.8080
 1.4890	34.9390
 1.4900	35.0720
 1.4910	35.2030
 1.4920	35.3360
 1.4930	35.4710
 1.4940	35.6050
 1.4950	35.7390
 1.4960	35.8730
 1.4970	36.0070
 1.4980	36.1400
 1.4990	36.2700
 1.5000	36.4030
 1.5010	36.5380
 1.5020	36.6700
 1.5030	36.8030
 1.5040	36.9320
 1.5050	37.0540
 1.5060	37.1790
 1.5070	37.3040
 1.5080	37.4270
 1.5090	37.5500
 1.5100	37.6730
 1.5110	37.7930
 1.5120	37.9170
 1.5130	38.0380
 1.5140	38.1580
 1.5150	38.2810
 1.5160	38.4000
 1.5170	38.5190
 1.5180	38.6370
 1.5190	38.7540
 1.5200	38.8690
 1.5210	38.9800
 1.5220	39.0880
 1.5230	39.1930
 1.5240	39.2940
 1.5250	39.3980
 1.5260	39.5010
 1.5270	39.6030
 1.5280	39.7070
 1.5290	39.8070
 1.5300	39.9060
 1.5310	40.0070
 1.5320	40.1040
 1.5330	40.2010
 1.5340	40.2960
 1.5350	40.3880
 1.5360	40.4810
 1.5370	40.5720
 1.5380	40.6630
 1.5390	40.7550
 1.5400	40.8460
 1.5410	40.9370
 1.5420	41.0250
 1.5430	41.1090
 1.5440	41.1900
 1.5450	41.2680
 1.5460	41.3460
 1.5470	41.4230
 1.5480	41.5010
 1.5490	41.5820
 1.5500	41.6600
 1.5510	41.7380
 1.5520	41.8140
 1.5530	41.8840
 1.5540	41.9580
 1.5550	42.0310
 1.5560	42.1010
 1.5570	42.1730
 1.5580	42.2390
 1.5590	42.3070
 1.5600	42.3760
 1.5610	42.4420
 1.5620	42.5110
 1.5630	42.5800
 1.5640	42.6470
 1.5650	42.7160
 1.5660	42.7840
 1.5670	42.8480
 1.5680	42.9070
 1.5690	42.9640
 1.5700	43.0180
 1.5710	43.0700
 1.5720	43.1260
 1.5730	43.1850
 1.5740	43.2410
 1.5750	43.2990
 1.5760	43.3540
 1.5770	43.4040
 1.5780	43.4600
 1.5790	43.5140
 1.5800	43.5680
 1.5810	43.6230
 1.5820	43.6720
 1.5830	43.7210
 1.5840	43.7740
 1.5850	43.8240
 1.5860	43.8750
 1.5870	43.9230
 1.5880	43.9640
 1.5890	44.0060
 1.5900	44.0540
 1.5910	44.1030
 1.5920	44.1520
 1.5930	44.1990
 1.5940	44.2390
 1.5950	44.2820
 1.5960	44.3260
 1.5970	44.3750
 1.5980	44.4250
 1.5990	44.4730
 1.6000	44.5160
 1.6010	44.5560
 1.6020	44.5960
 1.6030	44.6370
 1.6040	44.6800
 1.6050	44.7210
 1.6060	44.7620
 1.6070	44.8040
 1.6080	44.8460
 1.6090	44.8870
 1.6100	44.9280
 1.6110	44.9670
 1.6120	45.0020
 1.6130	45.0390
 1.6140	45.0730
 1.6150	45.1040
 1.6160	45.1370
 1.6170	45.1700
 1.6180	45.2010
 1.6190	45.2340
 1.6200	45.2610
 1.6210	45.2890
 1.6220	45.3210
 1.6230	45.3500
 1.6240	45.3790
 1.6250	45.4100
 1.6260	45.4350
 1.6270	45.4610
 1.6280	45.4860
 1.6290	45.5100
 1.6300	45.5360
 1.6310	45.5610
 1.6320	45.5870
 1.6330	45.6110
 1.6340	45.6360
 1.6350	45.6570
 1.6360	45.6730
 1.6370	45.6890
 1.6380	45.7010
 1.6390	45.7150
 1.6400	45.7330
 1.6410	45.7470
 1.6420	45.7590
 1.6430	45.7700
 1.6440	45.7790
 1.6450	45.7900
 1.6460	45.7970
 1.6470	45.8020
 1.6480	45.8090
 1.6490	45.8110
 1.6500	45.8080
 1.6510	45.8050
 1.6520	45.7990
 1.6530	45.7920
 1.6540	45.7910
 1.6550	45.7870
 1.6560	45.7750
 1.6570	45.7650
 1.6580	45.7570
 1.6590	45.7460
 1.6600	45.7340
 1.6610	45.7210
 1.6620	45.7040
 1.6630	45.6920
 1.6640	45.6840
 1.6650	45.6740
 1.6660	45.6630
 1.6670	45.6470
 1.6680	45.6340
 1.6690	45.6200
 1.6700	45.6100
 1.6710	45.6080
 1.6720	45.5970
 1.6730	45.5860
 1.6740	45.5750
 1.6750	45.5540
 1.6760	45.5370
 1.6770	45.5220
 1.6780	45.5070
 1.6790	45.4950
 1.6800	45.4760
 1.6810	45.4530
 1.6820	45.4300
 1.6830	45.4040
 1.6840	45.3820
 1.6850	45.3670
 1.6860	45.3490
 1.6870	45.3270
 1.6880	45.3040
 1.6890	45.2710
 1.6900	45.2430
 1.6910	45.2190
 1.6920	45.1920
 1.6930	45.1660
 1.6940	45.1390
 1.6950	45.1060
 1.6960	45.0760
 1.6970	45.0450
 1.6980	45.0180
 1.6990	44.9970
 1.7000	44.9690
 1.7010	44.9410
 1.7020	44.9100
 1.7030	44.8680
 1.7040	44.8350
 1.7050	44.8070
 1.7060	44.7740
 1.7070	44.7430
 1.7080	44.7080
 1.7090	44.6670
 1.7100	44.6310
 1.7110	44.5990
 1.7120	44.5650
 1.7130	44.5280
 1.7140	44.4920
 1.7150	44.4570
 1.7160	44.4210
 1.7170	44.3860
 1.7180	44.3480
 1.7190	44.3090
 1.7200	44.2750
 1.7210	44.2470
 1.7220	44.2180
 1.7230	44.1900
 1.7240	44.1610
 1.7250	44.1270
 1.7260	44.0970
 1.7270	44.0660
 1.7280	44.0330
 1.7290	44.0010
 1.7300	43.9660
 1.7310	43.9340
 1.7320	43.9030
 1.7330	43.8720
 1.7340	43.8470
 1.7350	43.8150
 1.7360	43.7790
 1.7370	43.7450
 1.7380	43.7050
 1.7390	43.6690
 1.7400	43.6390
 1.7410	43.6030
 1.7420	43.5690
 1.7430	43.5290
 1.7440	43.4850
 1.7450	43.4400
 1.7460	43.3940
 1.7470	43.3450
 1.7480	43.2940
 1.7490	43.2460
 1.7500	43.1980
 1.7510	43.1450
 1.7520	43.0910
 1.7530	43.0400
 1.7540	42.9830
 1.7550	42.9420
 1.7560	42.9040
 1.7570	42.8580
 1.7580	42.8150
 1.7590	42.7730
 1.7600	42.7290
 1.7610	42.6850
 1.7620	42.6390
 1.7630	42.5830
 1.7640	42.5330
 1.7650	42.4840
 1.7660	42.4400
 1.7670	42.4020
 1.7680	42.3670
 1.7690	42.3380
 1.7700	42.3070
 1.7710	42.2770
 1.7720	42.2460
 1.7730	42.2120
 1.7740	42.1820
 1.7750	42.1560
 1.7760	42.1270
 1.7770	42.1000
 1.7780	42.0700
 1.7790	42.0350
 1.7800	42.0070
 1.7810	41.9810
 1.7820	41.9570
 1.7830	41.9360
 1.7840	41.9150
 1.7850	41.8920
 1.7860	41.8780
 1.7870	41.8670
 1.7880	41.8610
 1.7890	41.8560
 1.7900	41.8430
 1.7910	41.8350
 1.7920	41.8270
 1.7930	41.8200
 1.7940	41.8190
 1.7950	41.8170
 1.7960	41.8100
 1.7970	41.8090
 1.7980	41.8130
 1.7990	41.8140
 1.8000	41.8130
 1.8010	41.8150
 1.8020	41.8170
 1.8030	41.8170
 1.8040	41.8220
 1.8050	41.8220
 1.8060	41.8160
 1.8070	41.8110
 1.8080	41.8050
 1.8090	41.8030
 1.8100	41.8020
 1.8110	41.8070
 1.8120	41.8120
 1.8130	41.8100
 1.8140	41.8110
 1.8150	41.8090
 1.8160	41.8080
 1.8170	41.8180
 1.8180	41.8170
 1.8190	41.8030
 1.8200	41.7950
 1.8210	41.7770
 1.8220	41.7640
 1.8230	41.7600
 1.8240	41.7510
 1.8250	41.7420
 1.8260	41.7280
 1.8270	41.7370
 1.8280	41.7450
 1.8290	41.7540
 1.8300	41.7630
 1.8310	41.7720
 1.8320	41.7810
 1.8330	41.7900
 1.8340	41.7990
 1.8350	41.7990
 1.8360	41.7600
 1.8370	41.7280
 1.8380	41.6940
 1.8390	41.6530
 1.8400	41.6120
 1.8410	41.5610
 1.8420	41.5020
 1.8430	41.4370
 1.8440	41.3630
 1.8450	41.2850
 1.8460	41.2010
 1.8470	41.1080
 1.8480	41.0070
 1.8490	40.8930
 1.8500	40.7670
 1.8510	40.6300
 1.8520	40.4790
 1.8530	40.3140
 1.8540	40.1360
 1.8550	39.9400
 1.8560	39.7340
 1.8570	39.5210
 1.8580	39.2930
 1.8590	39.0530
 1.8600	38.8010
 1.8610	38.5350
 1.8620	38.2480
 1.8630	37.9460
 1.8640	37.6160
 1.8650	37.2640
 1.8660	36.8990
 1.8670	36.4980
 1.8680	36.0720
 1.8690	35.6260
 1.8700	35.1490
 1.8710	34.6390
 1.8720	34.1180
 1.8730	33.5800
 1.8740	33.0220
 1.8750	32.4500
 1.8760	31.8530
 1.8770	31.2470
 1.8780	30.6310
 1.8790	30.0020
 1.8800	29.3750
 1.8810	28.7500
 1.8820	28.1140
 1.8830	27.4610
 1.8840	26.8070
 1.8850	26.1490
 1.8860	25.4970
 1.8870	24.8550
 1.8880	24.2260
 1.8890	23.6150
 1.8900	23.0150
 1.8910	22.4410
 1.8920	21.8860
 1.8930	21.3560
 1.8940	20.8500
 1.8950	20.3790
 1.8960	19.9390
 1.8970	19.5290
 1.8980	19.1520
 1.8990	18.8010
 1.9000	18.4740
 1.9010	18.1760
 1.9020	17.8990
 1.9030	17.6460
 1.9040	17.4200
 1.9050	17.2180
 1.9060	17.0410
 1.9070	16.8840
 1.9080	16.7410
 1.9090	16.6170
 1.9100	16.5070
 1.9110	16.4100
 1.9120	16.3350
 1.9130	16.2620
 1.9140	16.1980
 1.9150	16.1420
 1.9160	16.0910
 1.9170	16.0500
 1.9180	16.0180
 1.9190	15.9880
 1.9200	15.9690
 1.9210	15.9520
 1.9220	15.9420
 1.9230	15.9410
 1.9240	15.9430
 1.9250	15.9460
 1.9260	15.9580
 1.9270	15.9690
 1.9280	15.9820
 1.9290	16.0080
 1.9300	16.0350
 1.9310	16.0670
 1.9320	16.1050
 1.9330	16.1430
 1.9340	16.1790
 1.9350	16.2210
 1.9360	16.2680
 1.9370	16.3150
 1.9380	16.3640
 1.9390	16.4170
 1.9400	16.4710
 1.9410	16.5240
 1.9420	16.5820
 1.9430	16.6430
 1.9440	16.7040
 1.9450	16.7660
 1.9460	16.8350
 1.9470	16.9070
 1.9480	16.9790
 1.9490	17.0520
 1.9500	17.1310
 1.9510	17.2070
 1.9520	17.2820
 1.9530	17.3670
 1.9540	17.4450
 1.9550	17.5290
 1.9560	17.6180
 1.9570	17.7050
 1.9580	17.7930
 1.9590	17.8830
 1.9600	17.9740
 1.9610	18.0640
 1.9620	18.1560
 1.9630	18.2470
 1.9640	18.3390
 1.9650	18.4320
 1.9660	18.5250
 1.9670	18.6230
 1.9680	18.7240
 1.9690	18.8280
 1.9700	18.9330
 1.9710	19.0410
 1.9720	19.1480
 1.9730	19.2560
 1.9740	19.3630
 1.9750	19.4720
 1.9760	19.5890
 1.9770	19.7020
 1.9780	19.8140
 1.9790	19.9270
 1.9800	20.0370
 1.9810	20.1510
 1.9820	20.2660
 1.9830	20.3830
 1.9840	20.5020
 1.9850	20.6210
 1.9860	20.7370
 1.9870	20.8620
 1.9880	20.9870
 1.9890	21.1120
 1.9900	21.2450
 1.9910	21.3710
 1.9920	21.4930
 1.9930	21.6100
 1.9940	21.7280
 1.9950	21.8360
 1.9960	21.9560
 1.9970	22.0820
 1.9980	22.2050
 1.9990	22.3320
 2.0000	22.4600
 2.0010	22.5780
 2.0020	22.6940
 2.0030	22.8150
 2.0040	22.9310
 2.0050	23.0500
 2.0060	23.1730
 2.0070	23.2940
 2.0080	23.4120
 2.0090	23.5290
 2.0100	23.6500
 2.0110	23.7630
 2.0120	23.8700
 2.0130	23.9770
 2.0140	24.0840
 2.0150	24.1850
 2.0160	24.2900
 2.0170	24.3950
 2.0180	24.4980
 2.0190	24.6020
 2.0200	24.7030
 2.0210	24.8030
 2.0220	24.9010
 2.0230	24.9950
 2.0240	25.0920
 2.0250	25.1910
 2.0260	25.2850
 2.0270	25.3770
 2.0280	25.4690
 2.0290	25.5530
 2.0300	25.6370
 2.0310	25.7240
 2.0320	25.8130
 2.0330	25.8940
 2.0340	25.9760
 2.0350	26.0540
 2.0360	26.1250
 2.0370	26.1980
 2.0380	26.2700
 2.0390	26.3410
 2.0400	26.4100
 2.0410	26.4810
 2.0420	26.5520
 2.0430	26.6280
 2.0440	26.6980
 2.0450	26.7640
 2.0460	26.8320
 2.0470	26.8980
 2.0480	26.9630
 2.0490	27.0280
 2.0500	27.0930
 2.0510	27.1560
 2.0520	27.2190
 2.0530	27.2790
 2.0540	27.3460
 2.0550	27.4170
 2.0560	27.4870
 2.0570	27.5570
 2.0580	27.6310
 2.0590	27.6990
 2.0600	27.7610
 2.0610	27.8260
 2.0620	27.8930
 2.0630	27.9570
 2.0640	28.0130
 2.0650	28.0820
 2.0660	28.1600
 2.0670	28.2320
 2.0680	28.3130
 2.0690	28.3840
 2.0700	28.4400
 2.0710	28.5030
 2.0720	28.5660
 2.0730	28.6270
 2.0740	28.6900
 2.0750	28.7550
 2.0760	28.8170
 2.0770	28.8780
 2.0780	28.9400
 2.0790	29.0040
 2.0800	29.0660
 2.0810	29.1290
 2.0820	29.1910
 2.0830	29.2500
 2.0840	29.3130
 2.0850	29.3820
 2.0860	29.4440
 2.0870	29.5040
 2.0880	29.5620
 2.0890	29.6220
 2.0900	29.6780
 2.0910	29.7400
 2.0920	29.8110
 2.0930	29.8680
 2.0940	29.9170
 2.0950	29.9730
 2.0960	30.0240
 2.0970	30.0810
 2.0980	30.1480
 2.0990	30.2100
 2.1000	30.2690
 2.1010	30.3310
 2.1020	30.3990
 2.1030	30.4580
 2.1040	30.5180
 2.1050	30.5710
 2.1060	30.6210
 2.1070	30.6610
 2.1080	30.7070
 2.1090	30.7540
 2.1100	30.8010
 2.1110	30.8460
 2.1120	30.8980
 2.1130	30.9580
 2.1140	31.0120
 2.1150	31.0730
 2.1160	31.1230
 2.1170	31.1620
 2.1180	31.2050
 2.1190	31.2430
 2.1200	31.2860
 2.1210	31.3380
 2.1220	31.3850
 2.1230	31.4270
 2.1240	31.4670
 2.1250	31.5100
 2.1260	31.5480
 2.1270	31.5910
 2.1280	31.6410
 2.1290	31.6860
 2.1300	31.7290
 2.1310	31.7680
 2.1320	31.8060
 2.1330	31.8410
 2.1340	31.8680
 2.1350	31.9000
 2.1360	31.9300
 2.1370	31.9630
 2.1380	32.0030
 2.1390	32.0350
 2.1400	32.0640
 2.1410	32.0920
 2.1420	32.1220
 2.1430	32.1480
 2.1440	32.1820
 2.1450	32.2250
 2.1460	32.2580
 2.1470	32.2890
 2.1480	32.3170
 2.1490	32.3380
 2.1500	32.3620
 2.1510	32.3900
 2.1520	32.4110
 2.1530	32.4310
 2.1540	32.4490
 2.1550	32.4640
 2.1560	32.4770
 2.1570	32.4900
 2.1580	32.5020
 2.1590	32.5100
 2.1600	32.5160
 2.1610	32.5240
 2.1620	32.5350
 2.1630	32.5470
 2.1640	32.5600
 2.1650	32.5720
 2.1660	32.5860
 2.1670	32.5980
 2.1680	32.6050
 2.1690	32.6200
 2.1700	32.6380
 2.1710	32.6530
 2.1720	32.6720
 2.1730	32.6880
 2.1740	32.6940
 2.1750	32.7100
 2.1760	32.7330
 2.1770	32.7530
 2.1780	32.7770
 2.1790	32.7990
 2.1800	32.8170
 2.1810	32.8360
 2.1820	32.8550
 2.1830	32.8770
 2.1840	32.8940
 2.1850	32.9050
 2.1860	32.9260
 2.1870	32.9480
 2.1880	32.9710
 2.1890	33.0070
 2.1900	33.0250
 2.1910	33.0330
 2.1920	33.0430
 2.1930	33.0410
 2.1940	33.0500
 2.1950	33.0640
 2.1960	33.0810
 2.1970	33.1050
 2.1980	33.1250
 2.1990	33.1490
 2.2000	33.1670
 2.2010	33.1730
 2.2020	33.1880
 2.2030	33.2080
 2.2040	33.2190
 2.2050	33.2330
 2.2060	33.2390
 2.2070	33.2420
 2.2080	33.2320
 2.2090	33.2310
 2.2100	33.2300
 2.2110	33.2340
 2.2120	33.2380
 2.2130	33.2440
 2.2140	33.2570
 2.2150	33.2620
 2.2160	33.2670
 2.2170	33.2640
 2.2180	33.2520
 2.2190	33.2400
 2.2200	33.2230
 2.2210	33.2040
 2.2220	33.1820
 2.2230	33.1620
 2.2240	33.1440
 2.2250	33.1190
 2.2260	33.0920
 2.2270	33.0610
 2.2280	33.0170
 2.2290	32.9800
 2.2300	32.9460
 2.2310	32.9120
 2.2320	32.8730
 2.2330	32.8220
 2.2340	32.7690
 2.2350	32.7040
 2.2360	32.6450
 2.2370	32.5870
 2.2380	32.5240
 2.2390	32.4600
 2.2400	32.3880
 2.2410	32.3090
 2.2420	32.2280
 2.2430	32.1340
 2.2440	32.0560
 2.2450	31.9850
 2.2460	31.9120
 2.2470	31.8520
 2.2480	31.7770
 2.2490	31.6920
 2.2500	31.6090
 2.2510	31.5150
 2.2520	31.4340
 2.2530	31.3640
 2.2540	31.2840
 2.2550	31.2010
 2.2560	31.1220
 2.2570	31.0320
 2.2580	30.9510
 2.2590	30.8790
 2.2600	30.8090
 2.2610	30.7370
 2.2620	30.6750
 2.2630	30.6150
 2.2640	30.5600
 2.2650	30.4990
 2.2660	30.4320
 2.2670	30.3710
 2.2680	30.3070
 2.2690	30.2480
 2.2700	30.1930
 2.2710	30.1390
 2.2720	30.0840
 2.2730	30.0310
 2.2740	29.9790
 2.2750	29.9320
 2.2760	29.8890
 2.2770	29.8420
 2.2780	29.7970
 2.2790	29.7550
 2.2800	29.7130
 2.2810	29.6720
 2.2820	29.6400
 2.2830	29.6010
 2.2840	29.5500
 2.2850	29.5140
 2.2860	29.4920
 2.2870	29.4560
 2.2880	29.4230
 2.2890	29.3810
 2.2900	29.3190
 2.2910	29.2650
 2.2920	29.2110
 2.2930	29.1600
 2.2940	29.1170
 2.2950	29.0640
 2.2960	29.0060
 2.2970	28.9500
 2.2980	28.8900
 2.2990	28.8270
 2.3000	28.7680
 2.3010	28.7140
 2.3020	28.6550
 2.3030	28.6000
 2.3040	28.5450
 2.3050	28.4900
 2.3060	28.4380
 2.3070	28.3870
 2.3080	28.3340
 2.3090	28.2890
 2.3100	28.2480
 2.3110	28.2000
 2.3120	28.1590
 2.3130	28.1250
 2.3140	28.0890
 2.3150	28.0580
 2.3160	28.0230
 2.3170	27.9890
 2.3180	27.9480
 2.3190	27.8980
 2.3200	27.8550
 2.3210	27.8070
 2.3220	27.7640
 2.3230	27.7240
 2.3240	27.6860
 2.3250	27.6570
 2.3260	27.6150
 2.3270	27.5690
 2.3280	27.5220
 2.3290	27.4630
 2.3300	27.4160
 2.3310	27.3840
 2.3320	27.3330
 2.3330	27.2700
 2.3340	27.2140
 2.3350	27.1540
 2.3360	27.0970
 2.3370	27.0550
 2.3380	26.9970
 2.3390	26.9180
 2.3400	26.8570
 2.3410	26.7960
 2.3420	26.7400
 2.3430	26.6990
 2.3440	26.6480
 2.3450	26.5870
 2.3460	26.5390
 2.3470	26.4950
 2.3480	26.4560
 2.3490	26.4300
 2.3500	26.3970
 2.3510	26.3640
 2.3520	26.3250
 2.3530	26.2780
 2.3540	26.2410
 2.3550	26.1960
 2.3560	26.1530
 2.3570	26.1150
 2.3580	26.0710
 2.3590	26.0200
 2.3600	25.9630
 2.3610	25.9080
 2.3620	25.8500
 2.3630	25.7910
 2.3640	25.7460
 2.3650	25.7040
 2.3660	25.6490
 2.3670	25.5910
 2.3680	25.5260
 2.3690	25.4570
 2.3700	25.4090
 2.3710	25.3810
 2.3720	25.3460
 2.3730	25.2870
 2.3740	25.2260
 2.3750	25.1520
 2.3760	25.0820
 2.3770	25.0470
 2.3780	24.9920
 2.3790	24.9180
 2.3800	24.8670
 2.3810	24.7920
 2.3820	24.7190
 2.3830	24.6930
 2.3840	24.6420
 2.3850	24.5940
 2.3860	24.5630
 2.3870	24.4920
 2.3880	24.4290
 2.3890	24.3860
 2.3900	24.3260
 2.3910	24.2670
 2.3920	24.2150
 2.3930	24.1570
 2.3940	24.0890
 2.3950	24.0170
 2.3960	23.9670
 2.3970	23.8910
 2.3980	23.8150
 2.3990	23.7790
 2.4000	23.7110
 2.4010	23.6420
 2.4020	23.5790
 2.4030	23.5010
 2.4040	23.4220
 2.4050	23.3360
 2.4060	23.2560
 2.4070	23.1690
 2.4080	23.0880
 2.4090	23.0300
 2.4100	22.9790
 2.4110	22.9270
 2.4120	22.8630
 2.4130	22.7970
 2.4140	22.7300
 2.4150	22.6650
 2.4160	22.6070
 2.4170	22.5530
 2.4180	22.4900
 2.4190	22.4030
 2.4200	22.3210
 2.4210	22.2290
 2.4220	22.1380
 2.4230	22.0320
 2.4240	21.9080
 2.4250	21.8130
 2.4260	21.7170
 2.4270	21.6640
 2.4280	21.6420
 2.4290	21.6000
 2.4300	21.5380
 2.4310	21.4400
 2.4320	21.3560
 2.4330	21.2650
 2.4340	21.1550
 2.4350	21.0920
 2.4360	21.0150
 2.4370	20.9400
 2.4380	20.8890
 2.4390	20.8010
 2.4400	20.7120
 2.4410	20.6050
 2.4420	20.5220
 2.4430	20.4750
 2.4440	20.4100
 2.4450	20.3610
 2.4460	20.2960
 2.4470	20.1960
 2.4480	20.0950
 2.4490	20.0210
 2.4500	19.9510
 2.4510	19.8790
 2.4520	19.8390
 2.4530	19.7760
 2.4540	19.6820
 2.4550	19.6020
 2.4560	19.5310
 2.4570	19.4380
 2.4580	19.3600
 2.4590	19.3390
 2.4600	19.2550
 2.4610	19.1290
 2.4620	19.0650
 2.4630	18.9790
 2.4640	18.9010
 2.4650	18.8690
 2.4660	18.7940
 2.4670	18.6940
 2.4680	18.6080
 2.4690	18.5630
 2.4700	18.5130
 2.4710	18.4760
 2.4720	18.4150
 2.4730	18.3190
 2.4740	18.2690
 2.4750	18.2170
 2.4760	18.1920
 2.4770	18.2290
 2.4780	18.1900
 2.4790	18.1530
 2.4800	18.1130
 2.4810	18.0180
 2.4820	18.0350
 2.4830	17.9700
 2.4840	17.9120
 2.4850	17.8990
 2.4860	17.8560
 2.4870	17.7900
 2.4880	17.7390
 2.4890	17.6970
 2.4900	17.6810
 2.4910	17.7270
 2.4920	17.7980
 2.4930	17.7650
 2.4940	17.6570
 2.4950	17.5710
 2.4960	17.4670
 2.4970	17.4890
 2.4980	17.4890
 2.4990	17.3550
 2.5000	17.3180
