Name: Baccharis pilularis 2
Type: vegetation
Class: Shrub
Genus: Baccharis
Species: pilularis
Sample No.: VH231
Owner: UCSB
Wavelength Range: VSWIR
Origin: 34.5084; -119.7683; WGS84
Collection Date: 10/13/2013
Description: Samples were collected as part of the HyspIRI Airborne Campaign. 48 individual plants were sampled in three times in 2013 - spring  summer  and fall. The name of the sample includes a 1  2  or 3 which references a different individual of the species. Samples were taken to JPL and processed within 48 hours of collection. The same leaves were processed in the Nicolet and then measured using the ASD.
Measurement: Bidirectional reflectance
First Column: X
Second Column: Y
X Units: Wavelength (micrometers)
Y Units: Reflectance (percentage)
First X Value: 0.35
Last X Value: 2.5
Number of X Values: 2151
Additional Information: vegetation.shrub.baccharis.pilularis.vswir.vh231.ucsb.asd.ancillary.txt

 0.3500	 3.3990
 0.3510	 3.4160
 0.3520	 3.4090
 0.3530	 3.4360
 0.3540	 3.5180
 0.3550	 3.3490
 0.3560	 3.3490
 0.3570	 3.4670
 0.3580	 3.4330
 0.3590	 3.4310
 0.3600	 3.4950
 0.3610	 3.5460
 0.3620	 3.3520
 0.3630	 3.3010
 0.3640	 3.4030
 0.3650	 3.5390
 0.3660	 3.5350
 0.3670	 3.4130
 0.3680	 3.3360
 0.3690	 3.4990
 0.3700	 3.3620
 0.3710	 3.3470
 0.3720	 3.5750
 0.3730	 3.3880
 0.3740	 3.2610
 0.3750	 3.3020
 0.3760	 3.4560
 0.3770	 3.5480
 0.3780	 3.5230
 0.3790	 3.4090
 0.3800	 3.3080
 0.3810	 3.4110
 0.3820	 3.4670
 0.3830	 3.3590
 0.3840	 3.4330
 0.3850	 3.5350
 0.3860	 3.5380
 0.3870	 3.3920
 0.3880	 3.4440
 0.3890	 3.5160
 0.3900	 3.5150
 0.3910	 3.4700
 0.3920	 3.4350
 0.3930	 3.4810
 0.3940	 3.5930
 0.3950	 3.5570
 0.3960	 3.5210
 0.3970	 3.5100
 0.3980	 3.4930
 0.3990	 3.4820
 0.4000	 3.5080
 0.4010	 3.5610
 0.4020	 3.5810
 0.4030	 3.5180
 0.4040	 3.4820
 0.4050	 3.5540
 0.4060	 3.5760
 0.4070	 3.5680
 0.4080	 3.5620
 0.4090	 3.5910
 0.4100	 3.5840
 0.4110	 3.5870
 0.4120	 3.6180
 0.4130	 3.6170
 0.4140	 3.5930
 0.4150	 3.5920
 0.4160	 3.6470
 0.4170	 3.6810
 0.4180	 3.6780
 0.4190	 3.6640
 0.4200	 3.6920
 0.4210	 3.7130
 0.4220	 3.7150
 0.4230	 3.7060
 0.4240	 3.7230
 0.4250	 3.7370
 0.4260	 3.7470
 0.4270	 3.7600
 0.4280	 3.7590
 0.4290	 3.7790
 0.4300	 3.8170
 0.4310	 3.8070
 0.4320	 3.7990
 0.4330	 3.8170
 0.4340	 3.8600
 0.4350	 3.8440
 0.4360	 3.8410
 0.4370	 3.8630
 0.4380	 3.8740
 0.4390	 3.8970
 0.4400	 3.9220
 0.4410	 3.9360
 0.4420	 3.9150
 0.4430	 3.9300
 0.4440	 3.9680
 0.4450	 3.9890
 0.4460	 3.9810
 0.4470	 3.9840
 0.4480	 4.0050
 0.4490	 4.0060
 0.4500	 4.0270
 0.4510	 4.0470
 0.4520	 4.0490
 0.4530	 4.0670
 0.4540	 4.0800
 0.4550	 4.0830
 0.4560	 4.0830
 0.4570	 4.0910
 0.4580	 4.1040
 0.4590	 4.1180
 0.4600	 4.1280
 0.4610	 4.1430
 0.4620	 4.1540
 0.4630	 4.1550
 0.4640	 4.1710
 0.4650	 4.1850
 0.4660	 4.1860
 0.4670	 4.1710
 0.4680	 4.1810
 0.4690	 4.1970
 0.4700	 4.1970
 0.4710	 4.1960
 0.4720	 4.2010
 0.4730	 4.2120
 0.4740	 4.2240
 0.4750	 4.2410
 0.4760	 4.2290
 0.4770	 4.1930
 0.4780	 4.2070
 0.4790	 4.2430
 0.4800	 4.2630
 0.4810	 4.2430
 0.4820	 4.2260
 0.4830	 4.2390
 0.4840	 4.2680
 0.4850	 4.2620
 0.4860	 4.2610
 0.4870	 4.2640
 0.4880	 4.2650
 0.4890	 4.2680
 0.4900	 4.2800
 0.4910	 4.2990
 0.4920	 4.3190
 0.4930	 4.3240
 0.4940	 4.3210
 0.4950	 4.3220
 0.4960	 4.3470
 0.4970	 4.3620
 0.4980	 4.3720
 0.4990	 4.3920
 0.5000	 4.4170
 0.5010	 4.4290
 0.5020	 4.4360
 0.5030	 4.4600
 0.5040	 4.4870
 0.5050	 4.5210
 0.5060	 4.5580
 0.5070	 4.5760
 0.5080	 4.6130
 0.5090	 4.6590
 0.5100	 4.6920
 0.5110	 4.7470
 0.5120	 4.8110
 0.5130	 4.8710
 0.5140	 4.9170
 0.5150	 4.9900
 0.5160	 5.0770
 0.5170	 5.1560
 0.5180	 5.2370
 0.5190	 5.3290
 0.5200	 5.4290
 0.5210	 5.5270
 0.5220	 5.6350
 0.5230	 5.7480
 0.5240	 5.8590
 0.5250	 5.9650
 0.5260	 6.0660
 0.5270	 6.1680
 0.5280	 6.2750
 0.5290	 6.3720
 0.5300	 6.4660
 0.5310	 6.5590
 0.5320	 6.6510
 0.5330	 6.7240
 0.5340	 6.7880
 0.5350	 6.8580
 0.5360	 6.9240
 0.5370	 6.9820
 0.5380	 7.0310
 0.5390	 7.0750
 0.5400	 7.1250
 0.5410	 7.1710
 0.5420	 7.2070
 0.5430	 7.2440
 0.5440	 7.2800
 0.5450	 7.3160
 0.5460	 7.3520
 0.5470	 7.3890
 0.5480	 7.4260
 0.5490	 7.4590
 0.5500	 7.4800
 0.5510	 7.5030
 0.5520	 7.5180
 0.5530	 7.5190
 0.5540	 7.5150
 0.5550	 7.5080
 0.5560	 7.4980
 0.5570	 7.4810
 0.5580	 7.4510
 0.5590	 7.4180
 0.5600	 7.3830
 0.5610	 7.3310
 0.5620	 7.2670
 0.5630	 7.1990
 0.5640	 7.1380
 0.5650	 7.0690
 0.5660	 6.9880
 0.5670	 6.9020
 0.5680	 6.8310
 0.5690	 6.7550
 0.5700	 6.6740
 0.5710	 6.5960
 0.5720	 6.5210
 0.5730	 6.4490
 0.5740	 6.3800
 0.5750	 6.3160
 0.5760	 6.2620
 0.5770	 6.2170
 0.5780	 6.1780
 0.5790	 6.1370
 0.5800	 6.0960
 0.5810	 6.0540
 0.5820	 6.0140
 0.5830	 5.9750
 0.5840	 5.9430
 0.5850	 5.9180
 0.5860	 5.8840
 0.5870	 5.8530
 0.5880	 5.8300
 0.5890	 5.8150
 0.5900	 5.7920
 0.5910	 5.7790
 0.5920	 5.7730
 0.5930	 5.7620
 0.5940	 5.7490
 0.5950	 5.7330
 0.5960	 5.7180
 0.5970	 5.7120
 0.5980	 5.7050
 0.5990	 5.6950
 0.6000	 5.6830
 0.6010	 5.6680
 0.6020	 5.6510
 0.6030	 5.6330
 0.6040	 5.6140
 0.6050	 5.5860
 0.6060	 5.5560
 0.6070	 5.5290
 0.6080	 5.4980
 0.6090	 5.4600
 0.6100	 5.4210
 0.6110	 5.3910
 0.6120	 5.3660
 0.6130	 5.3400
 0.6140	 5.3120
 0.6150	 5.2880
 0.6160	 5.2630
 0.6170	 5.2400
 0.6180	 5.2220
 0.6190	 5.2060
 0.6200	 5.1880
 0.6210	 5.1680
 0.6220	 5.1550
 0.6230	 5.1500
 0.6240	 5.1480
 0.6250	 5.1430
 0.6260	 5.1340
 0.6270	 5.1250
 0.6280	 5.1230
 0.6290	 5.1310
 0.6300	 5.1350
 0.6310	 5.1330
 0.6320	 5.1280
 0.6330	 5.1260
 0.6340	 5.1230
 0.6350	 5.1170
 0.6360	 5.1040
 0.6370	 5.0880
 0.6380	 5.0680
 0.6390	 5.0480
 0.6400	 5.0330
 0.6410	 5.0090
 0.6420	 4.9820
 0.6430	 4.9550
 0.6440	 4.9230
 0.6450	 4.8920
 0.6460	 4.8630
 0.6470	 4.8360
 0.6480	 4.8180
 0.6490	 4.7960
 0.6500	 4.7720
 0.6510	 4.7540
 0.6520	 4.7400
 0.6530	 4.7280
 0.6540	 4.7170
 0.6550	 4.6930
 0.6560	 4.6790
 0.6570	 4.6690
 0.6580	 4.6490
 0.6590	 4.6220
 0.6600	 4.6020
 0.6610	 4.5910
 0.6620	 4.5830
 0.6630	 4.5640
 0.6640	 4.5470
 0.6650	 4.5390
 0.6660	 4.5280
 0.6670	 4.5210
 0.6680	 4.5190
 0.6690	 4.5200
 0.6700	 4.5200
 0.6710	 4.5190
 0.6720	 4.5200
 0.6730	 4.5300
 0.6740	 4.5440
 0.6750	 4.5570
 0.6760	 4.5670
 0.6770	 4.5830
 0.6780	 4.6000
 0.6790	 4.6170
 0.6800	 4.6390
 0.6810	 4.6640
 0.6820	 4.6930
 0.6830	 4.7250
 0.6840	 4.7610
 0.6850	 4.8000
 0.6860	 4.8470
 0.6870	 4.9090
 0.6880	 4.9850
 0.6890	 5.0680
 0.6900	 5.1640
 0.6910	 5.2890
 0.6920	 5.4400
 0.6930	 5.6210
 0.6940	 5.8380
 0.6950	 6.0980
 0.6960	 6.4050
 0.6970	 6.7620
 0.6980	 7.1730
 0.6990	 7.6310
 0.7000	 8.1450
 0.7010	 8.7160
 0.7020	 9.3310
 0.7030	 9.9920
 0.7040	10.7000
 0.7050	11.4490
 0.7060	12.2250
 0.7070	13.0320
 0.7080	13.8660
 0.7090	14.7290
 0.7100	15.6220
 0.7110	16.5250
 0.7120	17.4390
 0.7130	18.3830
 0.7140	19.3350
 0.7150	20.2930
 0.7160	21.2580
 0.7170	22.2300
 0.7180	23.2030
 0.7190	24.1690
 0.7200	25.1230
 0.7210	26.0660
 0.7220	27.0100
 0.7230	27.9510
 0.7240	28.8630
 0.7250	29.7560
 0.7260	30.6260
 0.7270	31.4720
 0.7280	32.2920
 0.7290	33.0750
 0.7300	33.8240
 0.7310	34.5460
 0.7320	35.2570
 0.7330	35.9320
 0.7340	36.5620
 0.7350	37.1670
 0.7360	37.7540
 0.7370	38.3030
 0.7380	38.8070
 0.7390	39.3040
 0.7400	39.7790
 0.7410	40.2200
 0.7420	40.6220
 0.7430	41.0160
 0.7440	41.3760
 0.7450	41.7050
 0.7460	42.0300
 0.7470	42.3330
 0.7480	42.6080
 0.7490	42.8580
 0.7500	43.0870
 0.7510	43.3050
 0.7520	43.5120
 0.7530	43.7020
 0.7540	43.8630
 0.7550	44.0210
 0.7560	44.1740
 0.7570	44.2930
 0.7580	44.4000
 0.7590	44.5160
 0.7600	44.6360
 0.7610	44.7170
 0.7620	44.8010
 0.7630	44.8850
 0.7640	44.9570
 0.7650	45.0180
 0.7660	45.0670
 0.7670	45.1140
 0.7680	45.1680
 0.7690	45.2250
 0.7700	45.2780
 0.7710	45.3220
 0.7720	45.3580
 0.7730	45.4010
 0.7740	45.4400
 0.7750	45.4620
 0.7760	45.4870
 0.7770	45.5070
 0.7780	45.5300
 0.7790	45.5700
 0.7800	45.5980
 0.7810	45.6190
 0.7820	45.6460
 0.7830	45.6920
 0.7840	45.7100
 0.7850	45.7180
 0.7860	45.7410
 0.7870	45.7880
 0.7880	45.8160
 0.7890	45.8280
 0.7900	45.8420
 0.7910	45.8590
 0.7920	45.8780
 0.7930	45.9090
 0.7940	45.9610
 0.7950	45.9800
 0.7960	45.9920
 0.7970	46.0160
 0.7980	46.0420
 0.7990	46.0630
 0.8000	46.0860
 0.8010	46.1160
 0.8020	46.1500
 0.8030	46.1800
 0.8040	46.1990
 0.8050	46.2100
 0.8060	46.2540
 0.8070	46.2870
 0.8080	46.3020
 0.8090	46.3250
 0.8100	46.3460
 0.8110	46.3730
 0.8120	46.4100
 0.8130	46.4420
 0.8140	46.4700
 0.8150	46.4890
 0.8160	46.5050
 0.8170	46.5440
 0.8180	46.5820
 0.8190	46.6100
 0.8200	46.6340
 0.8210	46.6670
 0.8220	46.6880
 0.8230	46.7030
 0.8240	46.7350
 0.8250	46.7740
 0.8260	46.8000
 0.8270	46.8070
 0.8280	46.8230
 0.8290	46.8450
 0.8300	46.8720
 0.8310	46.9010
 0.8320	46.9310
 0.8330	46.9740
 0.8340	47.0120
 0.8350	47.0250
 0.8360	47.0440
 0.8370	47.0630
 0.8380	47.0830
 0.8390	47.1080
 0.8400	47.1350
 0.8410	47.1590
 0.8420	47.1750
 0.8430	47.1830
 0.8440	47.2140
 0.8450	47.2530
 0.8460	47.2800
 0.8470	47.3050
 0.8480	47.3280
 0.8490	47.3520
 0.8500	47.3750
 0.8510	47.3960
 0.8520	47.4090
 0.8530	47.4210
 0.8540	47.4470
 0.8550	47.4810
 0.8560	47.4950
 0.8570	47.4980
 0.8580	47.5330
 0.8590	47.5480
 0.8600	47.5620
 0.8610	47.5800
 0.8620	47.5680
 0.8630	47.5900
 0.8640	47.6130
 0.8650	47.6080
 0.8660	47.6420
 0.8670	47.6400
 0.8680	47.6270
 0.8690	47.6520
 0.8700	47.6800
 0.8710	47.6760
 0.8720	47.6630
 0.8730	47.6900
 0.8740	47.7110
 0.8750	47.7170
 0.8760	47.7250
 0.8770	47.7670
 0.8780	47.7680
 0.8790	47.7630
 0.8800	47.7690
 0.8810	47.7490
 0.8820	47.7320
 0.8830	47.7420
 0.8840	47.7800
 0.8850	47.7900
 0.8860	47.7820
 0.8870	47.7740
 0.8880	47.7840
 0.8890	47.8040
 0.8900	47.7950
 0.8910	47.7830
 0.8920	47.8030
 0.8930	47.7890
 0.8940	47.7870
 0.8950	47.8010
 0.8960	47.7990
 0.8970	47.7990
 0.8980	47.7920
 0.8990	47.7800
 0.9000	47.7780
 0.9010	47.7670
 0.9020	47.7580
 0.9030	47.7560
 0.9040	47.7580
 0.9050	47.7550
 0.9060	47.7540
 0.9070	47.7570
 0.9080	47.7530
 0.9090	47.7820
 0.9100	47.7930
 0.9110	47.7550
 0.9120	47.7620
 0.9130	47.7560
 0.9140	47.7480
 0.9150	47.7570
 0.9160	47.7660
 0.9170	47.7580
 0.9180	47.7570
 0.9190	47.7790
 0.9200	47.7300
 0.9210	47.7100
 0.9220	47.7160
 0.9230	47.6930
 0.9240	47.6970
 0.9250	47.6910
 0.9260	47.6720
 0.9270	47.6660
 0.9280	47.7000
 0.9290	47.6970
 0.9300	47.6590
 0.9310	47.6550
 0.9320	47.6200
 0.9330	47.6030
 0.9340	47.6070
 0.9350	47.5780
 0.9360	47.5510
 0.9370	47.5470
 0.9380	47.5560
 0.9390	47.5380
 0.9400	47.5010
 0.9410	47.4570
 0.9420	47.4170
 0.9430	47.3870
 0.9440	47.3670
 0.9450	47.3620
 0.9460	47.3550
 0.9470	47.2840
 0.9480	47.2460
 0.9490	47.2210
 0.9500	47.1680
 0.9510	47.0850
 0.9520	47.0130
 0.9530	46.9580
 0.9540	46.9090
 0.9550	46.8570
 0.9560	46.7880
 0.9570	46.7070
 0.9580	46.6320
 0.9590	46.5870
 0.9600	46.5450
 0.9610	46.4890
 0.9620	46.4210
 0.9630	46.3790
 0.9640	46.3700
 0.9650	46.3470
 0.9660	46.2750
 0.9670	46.2520
 0.9680	46.2540
 0.9690	46.2520
 0.9700	46.2310
 0.9710	46.2510
 0.9720	46.2520
 0.9730	46.2210
 0.9740	46.1840
 0.9750	46.2110
 0.9760	46.2180
 0.9770	46.2140
 0.9780	46.2400
 0.9790	46.2470
 0.9800	46.2180
 0.9810	46.2180
 0.9820	46.3020
 0.9830	46.3070
 0.9840	46.2900
 0.9850	46.2940
 0.9860	46.3400
 0.9870	46.3910
 0.9880	46.4150
 0.9890	46.4220
 0.9900	46.4410
 0.9910	46.4670
 0.9920	46.5810
 0.9930	46.6950
 0.9940	46.8090
 0.9950	46.9230
 0.9960	47.0370
 0.9970	47.1510
 0.9980	47.2650
 0.9990	47.3790
 1.0000	47.4930
 1.0010	47.6070
 1.0020	47.7210
 1.0030	47.8350
 1.0040	47.9490
 1.0050	48.0630
 1.0060	48.1770
 1.0070	48.2910
 1.0080	48.4050
 1.0090	48.5200
 1.0100	48.5200
 1.0110	48.5640
 1.0120	48.6000
 1.0130	48.6370
 1.0140	48.6710
 1.0150	48.6970
 1.0160	48.7220
 1.0170	48.7500
 1.0180	48.7780
 1.0190	48.8060
 1.0200	48.8270
 1.0210	48.8610
 1.0220	48.9010
 1.0230	48.9340
 1.0240	48.9680
 1.0250	49.0020
 1.0260	49.0300
 1.0270	49.0610
 1.0280	49.0970
 1.0290	49.1230
 1.0300	49.1370
 1.0310	49.1630
 1.0320	49.1850
 1.0330	49.2270
 1.0340	49.2490
 1.0350	49.2710
 1.0360	49.2960
 1.0370	49.3030
 1.0380	49.3220
 1.0390	49.3520
 1.0400	49.3760
 1.0410	49.3950
 1.0420	49.4180
 1.0430	49.4510
 1.0440	49.4720
 1.0450	49.4830
 1.0460	49.5010
 1.0470	49.5190
 1.0480	49.5340
 1.0490	49.5560
 1.0500	49.5690
 1.0510	49.5660
 1.0520	49.5800
 1.0530	49.5850
 1.0540	49.5830
 1.0550	49.5950
 1.0560	49.6140
 1.0570	49.6260
 1.0580	49.6430
 1.0590	49.6570
 1.0600	49.6710
 1.0610	49.6760
 1.0620	49.6750
 1.0630	49.6790
 1.0640	49.6780
 1.0650	49.6770
 1.0660	49.6820
 1.0670	49.6860
 1.0680	49.6890
 1.0690	49.6860
 1.0700	49.6900
 1.0710	49.7050
 1.0720	49.7040
 1.0730	49.6970
 1.0740	49.6910
 1.0750	49.6710
 1.0760	49.6660
 1.0770	49.6690
 1.0780	49.6670
 1.0790	49.6720
 1.0800	49.6700
 1.0810	49.6630
 1.0820	49.6570
 1.0830	49.6550
 1.0840	49.6470
 1.0850	49.6390
 1.0860	49.6210
 1.0870	49.6060
 1.0880	49.5820
 1.0890	49.5730
 1.0900	49.5710
 1.0910	49.5630
 1.0920	49.5620
 1.0930	49.5520
 1.0940	49.5350
 1.0950	49.5200
 1.0960	49.5000
 1.0970	49.4820
 1.0980	49.4650
 1.0990	49.4460
 1.1000	49.4250
 1.1010	49.4060
 1.1020	49.3840
 1.1030	49.3680
 1.1040	49.3540
 1.1050	49.3390
 1.1060	49.3190
 1.1070	49.3000
 1.1080	49.2750
 1.1090	49.2430
 1.1100	49.2170
 1.1110	49.1940
 1.1120	49.1640
 1.1130	49.1360
 1.1140	49.1020
 1.1150	49.0600
 1.1160	49.0210
 1.1170	48.9810
 1.1180	48.9420
 1.1190	48.9030
 1.1200	48.8610
 1.1210	48.8170
 1.1220	48.7640
 1.1230	48.7010
 1.1240	48.6320
 1.1250	48.5580
 1.1260	48.4810
 1.1270	48.3920
 1.1280	48.2930
 1.1290	48.1910
 1.1300	48.0790
 1.1310	47.9630
 1.1320	47.8470
 1.1330	47.7190
 1.1340	47.5820
 1.1350	47.4420
 1.1360	47.2960
 1.1370	47.1400
 1.1380	46.9830
 1.1390	46.8200
 1.1400	46.6470
 1.1410	46.4690
 1.1420	46.2870
 1.1430	46.1050
 1.1440	45.9260
 1.1450	45.7470
 1.1460	45.5680
 1.1470	45.3860
 1.1480	45.2120
 1.1490	45.0330
 1.1500	44.8720
 1.1510	44.7180
 1.1520	44.5710
 1.1530	44.4360
 1.1540	44.3070
 1.1550	44.1830
 1.1560	44.0720
 1.1570	43.9700
 1.1580	43.8680
 1.1590	43.7750
 1.1600	43.6930
 1.1610	43.6250
 1.1620	43.5680
 1.1630	43.5160
 1.1640	43.4710
 1.1650	43.4260
 1.1660	43.3820
 1.1670	43.3450
 1.1680	43.3140
 1.1690	43.2860
 1.1700	43.2670
 1.1710	43.2420
 1.1720	43.2160
 1.1730	43.1900
 1.1740	43.1660
 1.1750	43.1350
 1.1760	43.1030
 1.1770	43.0760
 1.1780	43.0470
 1.1790	43.0160
 1.1800	42.9810
 1.1810	42.9460
 1.1820	42.9090
 1.1830	42.8720
 1.1840	42.8430
 1.1850	42.8120
 1.1860	42.7820
 1.1870	42.7570
 1.1880	42.7310
 1.1890	42.7040
 1.1900	42.6820
 1.1910	42.6610
 1.1920	42.6420
 1.1930	42.6240
 1.1940	42.6120
 1.1950	42.6050
 1.1960	42.5980
 1.1970	42.5950
 1.1980	42.5990
 1.1990	42.6000
 1.2000	42.6010
 1.2010	42.6060
 1.2020	42.6120
 1.2030	42.6200
 1.2040	42.6330
 1.2050	42.6510
 1.2060	42.6750
 1.2070	42.7060
 1.2080	42.7390
 1.2090	42.7760
 1.2100	42.8130
 1.2110	42.8530
 1.2120	42.8990
 1.2130	42.9460
 1.2140	42.9930
 1.2150	43.0470
 1.2160	43.1050
 1.2170	43.1620
 1.2180	43.2230
 1.2190	43.2860
 1.2200	43.3490
 1.2210	43.4110
 1.2220	43.4710
 1.2230	43.5310
 1.2240	43.5940
 1.2250	43.6510
 1.2260	43.7070
 1.2270	43.7670
 1.2280	43.8240
 1.2290	43.8790
 1.2300	43.9330
 1.2310	43.9850
 1.2320	44.0340
 1.2330	44.0770
 1.2340	44.1200
 1.2350	44.1620
 1.2360	44.2010
 1.2370	44.2340
 1.2380	44.2710
 1.2390	44.3120
 1.2400	44.3470
 1.2410	44.3820
 1.2420	44.4180
 1.2430	44.4450
 1.2440	44.4720
 1.2450	44.4990
 1.2460	44.5240
 1.2470	44.5490
 1.2480	44.5730
 1.2490	44.5970
 1.2500	44.6190
 1.2510	44.6400
 1.2520	44.6590
 1.2530	44.6780
 1.2540	44.6980
 1.2550	44.7180
 1.2560	44.7340
 1.2570	44.7450
 1.2580	44.7530
 1.2590	44.7610
 1.2600	44.7660
 1.2610	44.7710
 1.2620	44.7740
 1.2630	44.7780
 1.2640	44.7850
 1.2650	44.7870
 1.2660	44.7930
 1.2670	44.7990
 1.2680	44.7940
 1.2690	44.7900
 1.2700	44.7890
 1.2710	44.7850
 1.2720	44.7840
 1.2730	44.7820
 1.2740	44.7730
 1.2750	44.7680
 1.2760	44.7580
 1.2770	44.7410
 1.2780	44.7300
 1.2790	44.7150
 1.2800	44.6960
 1.2810	44.6820
 1.2820	44.6660
 1.2830	44.6420
 1.2840	44.6150
 1.2850	44.5860
 1.2860	44.5500
 1.2870	44.5130
 1.2880	44.4720
 1.2890	44.4300
 1.2900	44.3840
 1.2910	44.3390
 1.2920	44.2920
 1.2930	44.2420
 1.2940	44.1930
 1.2950	44.1450
 1.2960	44.0890
 1.2970	44.0320
 1.2980	43.9730
 1.2990	43.9060
 1.3000	43.8390
 1.3010	43.7670
 1.3020	43.6920
 1.3030	43.6140
 1.3040	43.5310
 1.3050	43.4460
 1.3060	43.3630
 1.3070	43.2760
 1.3080	43.1830
 1.3090	43.0930
 1.3100	42.9990
 1.3110	42.8970
 1.3120	42.7970
 1.3130	42.6920
 1.3140	42.5790
 1.3150	42.4610
 1.3160	42.3380
 1.3170	42.2090
 1.3180	42.0750
 1.3190	41.9420
 1.3200	41.8040
 1.3210	41.6640
 1.3220	41.5240
 1.3230	41.3770
 1.3240	41.2180
 1.3250	41.0580
 1.3260	40.9020
 1.3270	40.7390
 1.3280	40.5780
 1.3290	40.4180
 1.3300	40.2470
 1.3310	40.0740
 1.3320	39.8960
 1.3330	39.7130
 1.3340	39.5310
 1.3350	39.3470
 1.3360	39.1630
 1.3370	38.9740
 1.3380	38.7820
 1.3390	38.5910
 1.3400	38.3980
 1.3410	38.2080
 1.3420	38.0240
 1.3430	37.8430
 1.3440	37.6660
 1.3450	37.4870
 1.3460	37.3100
 1.3470	37.1330
 1.3480	36.9520
 1.3490	36.7770
 1.3500	36.6060
 1.3510	36.4330
 1.3520	36.2600
 1.3530	36.0940
 1.3540	35.9230
 1.3550	35.7530
 1.3560	35.5850
 1.3570	35.4170
 1.3580	35.2520
 1.3590	35.0850
 1.3600	34.9140
 1.3610	34.7400
 1.3620	34.5570
 1.3630	34.3730
 1.3640	34.1860
 1.3650	33.9900
 1.3660	33.7910
 1.3670	33.5790
 1.3680	33.3520
 1.3690	33.1160
 1.3700	32.8660
 1.3710	32.6040
 1.3720	32.3330
 1.3730	32.0400
 1.3740	31.7320
 1.3750	31.4110
 1.3760	31.0690
 1.3770	30.7100
 1.3780	30.3250
 1.3790	29.9150
 1.3800	29.4830
 1.3810	29.0240
 1.3820	28.5510
 1.3830	28.0600
 1.3840	27.5510
 1.3850	27.0220
 1.3860	26.4820
 1.3870	25.9190
 1.3880	25.3570
 1.3890	24.7840
 1.3900	24.2050
 1.3910	23.6270
 1.3920	23.0460
 1.3930	22.4600
 1.3940	21.8780
 1.3950	21.2950
 1.3960	20.7230
 1.3970	20.1640
 1.3980	19.6170
 1.3990	19.0890
 1.4000	18.5740
 1.4010	18.0730
 1.4020	17.5940
 1.4030	17.1340
 1.4040	16.6970
 1.4050	16.2830
 1.4060	15.8890
 1.4070	15.5200
 1.4080	15.1700
 1.4090	14.8410
 1.4100	14.5360
 1.4110	14.2480
 1.4120	13.9820
 1.4130	13.7360
 1.4140	13.5090
 1.4150	13.3040
 1.4160	13.1140
 1.4170	12.9390
 1.4180	12.7810
 1.4190	12.6330
 1.4200	12.5000
 1.4210	12.3820
 1.4220	12.2740
 1.4230	12.1760
 1.4240	12.0900
 1.4250	12.0110
 1.4260	11.9420
 1.4270	11.8770
 1.4280	11.8210
 1.4290	11.7710
 1.4300	11.7280
 1.4310	11.6910
 1.4320	11.6620
 1.4330	11.6380
 1.4340	11.6190
 1.4350	11.6030
 1.4360	11.5910
 1.4370	11.5840
 1.4380	11.5810
 1.4390	11.5820
 1.4400	11.5870
 1.4410	11.5950
 1.4420	11.6050
 1.4430	11.6170
 1.4440	11.6310
 1.4450	11.6470
 1.4460	11.6640
 1.4470	11.6840
 1.4480	11.7050
 1.4490	11.7260
 1.4500	11.7480
 1.4510	11.7690
 1.4520	11.7900
 1.4530	11.8110
 1.4540	11.8330
 1.4550	11.8570
 1.4560	11.8820
 1.4570	11.9090
 1.4580	11.9390
 1.4590	11.9710
 1.4600	12.0080
 1.4610	12.0460
 1.4620	12.0860
 1.4630	12.1300
 1.4640	12.1780
 1.4650	12.2320
 1.4660	12.2880
 1.4670	12.3480
 1.4680	12.4130
 1.4690	12.4770
 1.4700	12.5440
 1.4710	12.6160
 1.4720	12.6880
 1.4730	12.7660
 1.4740	12.8490
 1.4750	12.9350
 1.4760	13.0240
 1.4770	13.1150
 1.4780	13.2080
 1.4790	13.3040
 1.4800	13.4010
 1.4810	13.4980
 1.4820	13.5950
 1.4830	13.6920
 1.4840	13.7910
 1.4850	13.8920
 1.4860	13.9950
 1.4870	14.0980
 1.4880	14.2010
 1.4890	14.3050
 1.4900	14.4100
 1.4910	14.5160
 1.4920	14.6220
 1.4930	14.7300
 1.4940	14.8340
 1.4950	14.9370
 1.4960	15.0420
 1.4970	15.1450
 1.4980	15.2510
 1.4990	15.3590
 1.5000	15.4690
 1.5010	15.5810
 1.5020	15.6880
 1.5030	15.7940
 1.5040	15.9000
 1.5050	16.0010
 1.5060	16.1050
 1.5070	16.2130
 1.5080	16.3180
 1.5090	16.4230
 1.5100	16.5270
 1.5110	16.6290
 1.5120	16.7340
 1.5130	16.8370
 1.5140	16.9400
 1.5150	17.0420
 1.5160	17.1410
 1.5170	17.2410
 1.5180	17.3390
 1.5190	17.4360
 1.5200	17.5350
 1.5210	17.6330
 1.5220	17.7300
 1.5230	17.8290
 1.5240	17.9230
 1.5250	18.0170
 1.5260	18.1110
 1.5270	18.2030
 1.5280	18.2970
 1.5290	18.3900
 1.5300	18.4800
 1.5310	18.5700
 1.5320	18.6580
 1.5330	18.7460
 1.5340	18.8350
 1.5350	18.9250
 1.5360	19.0130
 1.5370	19.0990
 1.5380	19.1860
 1.5390	19.2710
 1.5400	19.3560
 1.5410	19.4390
 1.5420	19.5200
 1.5430	19.6000
 1.5440	19.6800
 1.5450	19.7610
 1.5460	19.8420
 1.5470	19.9230
 1.5480	20.0030
 1.5490	20.0830
 1.5500	20.1610
 1.5510	20.2380
 1.5520	20.3150
 1.5530	20.3890
 1.5540	20.4640
 1.5550	20.5400
 1.5560	20.6120
 1.5570	20.6840
 1.5580	20.7540
 1.5590	20.8210
 1.5600	20.8920
 1.5610	20.9600
 1.5620	21.0260
 1.5630	21.0940
 1.5640	21.1590
 1.5650	21.2270
 1.5660	21.2950
 1.5670	21.3620
 1.5680	21.4300
 1.5690	21.4940
 1.5700	21.5580
 1.5710	21.6230
 1.5720	21.6870
 1.5730	21.7490
 1.5740	21.8120
 1.5750	21.8750
 1.5760	21.9370
 1.5770	21.9990
 1.5780	22.0620
 1.5790	22.1250
 1.5800	22.1910
 1.5810	22.2590
 1.5820	22.3230
 1.5830	22.3860
 1.5840	22.4450
 1.5850	22.4990
 1.5860	22.5580
 1.5870	22.6150
 1.5880	22.6730
 1.5890	22.7350
 1.5900	22.7960
 1.5910	22.8580
 1.5920	22.9190
 1.5930	22.9790
 1.5940	23.0380
 1.5950	23.0960
 1.5960	23.1550
 1.5970	23.2180
 1.5980	23.2790
 1.5990	23.3390
 1.6000	23.3980
 1.6010	23.4510
 1.6020	23.5040
 1.6030	23.5600
 1.6040	23.6150
 1.6050	23.6700
 1.6060	23.7280
 1.6070	23.7820
 1.6080	23.8360
 1.6090	23.8910
 1.6100	23.9420
 1.6110	23.9900
 1.6120	24.0360
 1.6130	24.0820
 1.6140	24.1280
 1.6150	24.1750
 1.6160	24.2200
 1.6170	24.2640
 1.6180	24.3060
 1.6190	24.3490
 1.6200	24.3950
 1.6210	24.4390
 1.6220	24.4810
 1.6230	24.5250
 1.6240	24.5690
 1.6250	24.6080
 1.6260	24.6510
 1.6270	24.6950
 1.6280	24.7290
 1.6290	24.7630
 1.6300	24.7920
 1.6310	24.8210
 1.6320	24.8510
 1.6330	24.8780
 1.6340	24.9060
 1.6350	24.9310
 1.6360	24.9470
 1.6370	24.9680
 1.6380	24.9900
 1.6390	25.0110
 1.6400	25.0350
 1.6410	25.0530
 1.6420	25.0690
 1.6430	25.0810
 1.6440	25.0920
 1.6450	25.0970
 1.6460	25.0990
 1.6470	25.0960
 1.6480	25.0840
 1.6490	25.0710
 1.6500	25.0550
 1.6510	25.0350
 1.6520	25.0120
 1.6530	24.9790
 1.6540	24.9390
 1.6550	24.8960
 1.6560	24.8490
 1.6570	24.8010
 1.6580	24.7550
 1.6590	24.7110
 1.6600	24.6650
 1.6610	24.6210
 1.6620	24.5770
 1.6630	24.5310
 1.6640	24.4880
 1.6650	24.4490
 1.6660	24.4100
 1.6670	24.3730
 1.6680	24.3360
 1.6690	24.2980
 1.6700	24.2610
 1.6710	24.2280
 1.6720	24.1990
 1.6730	24.1720
 1.6740	24.1460
 1.6750	24.1190
 1.6760	24.0910
 1.6770	24.0650
 1.6780	24.0380
 1.6790	24.0110
 1.6800	23.9830
 1.6810	23.9520
 1.6820	23.9180
 1.6830	23.8850
 1.6840	23.8500
 1.6850	23.8150
 1.6860	23.7760
 1.6870	23.7330
 1.6880	23.6880
 1.6890	23.6430
 1.6900	23.5970
 1.6910	23.5550
 1.6920	23.5050
 1.6930	23.4480
 1.6940	23.3930
 1.6950	23.3350
 1.6960	23.2770
 1.6970	23.2210
 1.6980	23.1600
 1.6990	23.0950
 1.7000	23.0280
 1.7010	22.9590
 1.7020	22.8900
 1.7030	22.8190
 1.7040	22.7480
 1.7050	22.6770
 1.7060	22.6070
 1.7070	22.5340
 1.7080	22.4680
 1.7090	22.4060
 1.7100	22.3420
 1.7110	22.2770
 1.7120	22.2200
 1.7130	22.1580
 1.7140	22.1000
 1.7150	22.0490
 1.7160	21.9940
 1.7170	21.9430
 1.7180	21.8940
 1.7190	21.8460
 1.7200	21.8020
 1.7210	21.7590
 1.7220	21.7190
 1.7230	21.6840
 1.7240	21.6470
 1.7250	21.6140
 1.7260	21.5840
 1.7270	21.5550
 1.7280	21.5270
 1.7290	21.5000
 1.7300	21.4710
 1.7310	21.4470
 1.7320	21.4280
 1.7330	21.4070
 1.7340	21.3880
 1.7350	21.3690
 1.7360	21.3510
 1.7370	21.3270
 1.7380	21.3040
 1.7390	21.2730
 1.7400	21.2320
 1.7410	21.1920
 1.7420	21.1480
 1.7430	21.1030
 1.7440	21.0560
 1.7450	21.0100
 1.7460	20.9630
 1.7470	20.9180
 1.7480	20.8740
 1.7490	20.8300
 1.7500	20.7830
 1.7510	20.7430
 1.7520	20.7060
 1.7530	20.6680
 1.7540	20.6350
 1.7550	20.5960
 1.7560	20.5580
 1.7570	20.5290
 1.7580	20.4980
 1.7590	20.4660
 1.7600	20.4400
 1.7610	20.4030
 1.7620	20.3740
 1.7630	20.3480
 1.7640	20.3260
 1.7650	20.3120
 1.7660	20.2960
 1.7670	20.2820
 1.7680	20.2660
 1.7690	20.2500
 1.7700	20.2330
 1.7710	20.2160
 1.7720	20.1990
 1.7730	20.1820
 1.7740	20.1660
 1.7750	20.1520
 1.7760	20.1350
 1.7770	20.1160
 1.7780	20.1000
 1.7790	20.0810
 1.7800	20.0680
 1.7810	20.0590
 1.7820	20.0480
 1.7830	20.0360
 1.7840	20.0290
 1.7850	20.0250
 1.7860	20.0190
 1.7870	20.0160
 1.7880	20.0110
 1.7890	20.0080
 1.7900	20.0160
 1.7910	20.0200
 1.7920	20.0260
 1.7930	20.0320
 1.7940	20.0370
 1.7950	20.0390
 1.7960	20.0370
 1.7970	20.0400
 1.7980	20.0420
 1.7990	20.0480
 1.8000	20.0640
 1.8010	20.0730
 1.8020	20.0810
 1.8030	20.0880
 1.8040	20.0900
 1.8050	20.0980
 1.8060	20.1110
 1.8070	20.1200
 1.8080	20.1310
 1.8090	20.1370
 1.8100	20.1370
 1.8110	20.1470
 1.8120	20.1530
 1.8130	20.1630
 1.8140	20.1770
 1.8150	20.1840
 1.8160	20.1940
 1.8170	20.2020
 1.8180	20.2110
 1.8190	20.2200
 1.8200	20.2280
 1.8210	20.2370
 1.8220	20.2390
 1.8230	20.2350
 1.8240	20.2370
 1.8250	20.2410
 1.8260	20.2390
 1.8270	20.2710
 1.8280	20.3030
 1.8290	20.3350
 1.8300	20.3670
 1.8310	20.3980
 1.8320	20.4300
 1.8330	20.4620
 1.8340	20.4940
 1.8350	20.4940
 1.8360	20.4640
 1.8370	20.4250
 1.8380	20.3970
 1.8390	20.3610
 1.8400	20.3260
 1.8410	20.2830
 1.8420	20.2390
 1.8430	20.1750
 1.8440	20.1060
 1.8450	20.0390
 1.8460	19.9640
 1.8470	19.8790
 1.8480	19.7890
 1.8490	19.6890
 1.8500	19.5780
 1.8510	19.4540
 1.8520	19.3300
 1.8530	19.1890
 1.8540	19.0330
 1.8550	18.8780
 1.8560	18.7120
 1.8570	18.5350
 1.8580	18.3510
 1.8590	18.1520
 1.8600	17.9410
 1.8610	17.7060
 1.8620	17.4610
 1.8630	17.2040
 1.8640	16.9220
 1.8650	16.6320
 1.8660	16.3280
 1.8670	16.0060
 1.8680	15.6810
 1.8690	15.3370
 1.8700	14.9800
 1.8710	14.6080
 1.8720	14.2310
 1.8730	13.8410
 1.8740	13.4520
 1.8750	13.0580
 1.8760	12.6520
 1.8770	12.2450
 1.8780	11.8330
 1.8790	11.4170
 1.8800	11.0120
 1.8810	10.6130
 1.8820	10.2180
 1.8830	 9.8250
 1.8840	 9.4470
 1.8850	 9.0780
 1.8860	 8.7140
 1.8870	 8.3640
 1.8880	 8.0230
 1.8890	 7.6940
 1.8900	 7.3880
 1.8910	 7.1030
 1.8920	 6.8360
 1.8930	 6.5930
 1.8940	 6.3650
 1.8950	 6.1520
 1.8960	 5.9580
 1.8970	 5.7770
 1.8980	 5.6100
 1.8990	 5.4560
 1.9000	 5.3170
 1.9010	 5.1930
 1.9020	 5.0820
 1.9030	 4.9890
 1.9040	 4.9090
 1.9050	 4.8280
 1.9060	 4.7580
 1.9070	 4.7060
 1.9080	 4.6580
 1.9090	 4.6180
 1.9100	 4.5840
 1.9110	 4.5510
 1.9120	 4.5090
 1.9130	 4.4820
 1.9140	 4.4650
 1.9150	 4.4500
 1.9160	 4.4370
 1.9170	 4.4340
 1.9180	 4.4330
 1.9190	 4.4300
 1.9200	 4.4220
 1.9210	 4.4160
 1.9220	 4.4110
 1.9230	 4.3980
 1.9240	 4.3970
 1.9250	 4.4040
 1.9260	 4.4090
 1.9270	 4.4130
 1.9280	 4.4200
 1.9290	 4.4230
 1.9300	 4.4260
 1.9310	 4.4350
 1.9320	 4.4470
 1.9330	 4.4590
 1.9340	 4.4760
 1.9350	 4.4880
 1.9360	 4.4980
 1.9370	 4.5100
 1.9380	 4.5200
 1.9390	 4.5330
 1.9400	 4.5550
 1.9410	 4.5740
 1.9420	 4.5920
 1.9430	 4.6100
 1.9440	 4.6260
 1.9450	 4.6350
 1.9460	 4.6520
 1.9470	 4.6760
 1.9480	 4.6940
 1.9490	 4.7100
 1.9500	 4.7280
 1.9510	 4.7500
 1.9520	 4.7680
 1.9530	 4.7950
 1.9540	 4.8260
 1.9550	 4.8510
 1.9560	 4.8720
 1.9570	 4.8950
 1.9580	 4.9110
 1.9590	 4.9350
 1.9600	 4.9620
 1.9610	 4.9920
 1.9620	 5.0250
 1.9630	 5.0660
 1.9640	 5.1030
 1.9650	 5.1350
 1.9660	 5.1660
 1.9670	 5.1990
 1.9680	 5.2310
 1.9690	 5.2660
 1.9700	 5.2990
 1.9710	 5.3280
 1.9720	 5.3610
 1.9730	 5.3970
 1.9740	 5.4270
 1.9750	 5.4650
 1.9760	 5.5020
 1.9770	 5.5380
 1.9780	 5.5830
 1.9790	 5.6230
 1.9800	 5.6660
 1.9810	 5.7060
 1.9820	 5.7420
 1.9830	 5.7810
 1.9840	 5.8230
 1.9850	 5.8630
 1.9860	 5.9040
 1.9870	 5.9480
 1.9880	 5.9830
 1.9890	 6.0250
 1.9900	 6.0650
 1.9910	 6.1020
 1.9920	 6.1450
 1.9930	 6.1930
 1.9940	 6.2390
 1.9950	 6.2870
 1.9960	 6.3360
 1.9970	 6.3860
 1.9980	 6.4350
 1.9990	 6.4850
 2.0000	 6.5300
 2.0010	 6.5740
 2.0020	 6.6150
 2.0030	 6.6530
 2.0040	 6.6950
 2.0050	 6.7380
 2.0060	 6.7810
 2.0070	 6.8240
 2.0080	 6.8680
 2.0090	 6.9120
 2.0100	 6.9520
 2.0110	 6.9970
 2.0120	 7.0510
 2.0130	 7.0920
 2.0140	 7.1340
 2.0150	 7.1720
 2.0160	 7.2080
 2.0170	 7.2480
 2.0180	 7.2860
 2.0190	 7.3320
 2.0200	 7.3660
 2.0210	 7.3880
 2.0220	 7.4190
 2.0230	 7.4480
 2.0240	 7.4800
 2.0250	 7.5180
 2.0260	 7.5550
 2.0270	 7.5950
 2.0280	 7.6300
 2.0290	 7.6610
 2.0300	 7.6940
 2.0310	 7.7220
 2.0320	 7.7440
 2.0330	 7.7680
 2.0340	 7.7920
 2.0350	 7.8140
 2.0360	 7.8320
 2.0370	 7.8550
 2.0380	 7.8850
 2.0390	 7.9050
 2.0400	 7.9200
 2.0410	 7.9380
 2.0420	 7.9530
 2.0430	 7.9650
 2.0440	 7.9830
 2.0450	 8.0110
 2.0460	 8.0300
 2.0470	 8.0410
 2.0480	 8.0610
 2.0490	 8.0870
 2.0500	 8.1020
 2.0510	 8.1180
 2.0520	 8.1310
 2.0530	 8.1250
 2.0540	 8.1340
 2.0550	 8.1500
 2.0560	 8.1700
 2.0570	 8.2010
 2.0580	 8.2250
 2.0590	 8.2470
 2.0600	 8.2690
 2.0610	 8.2850
 2.0620	 8.2950
 2.0630	 8.3070
 2.0640	 8.3150
 2.0650	 8.3280
 2.0660	 8.3410
 2.0670	 8.3590
 2.0680	 8.3830
 2.0690	 8.4030
 2.0700	 8.4270
 2.0710	 8.4450
 2.0720	 8.4550
 2.0730	 8.4690
 2.0740	 8.4860
 2.0750	 8.5020
 2.0760	 8.5180
 2.0770	 8.5360
 2.0780	 8.5560
 2.0790	 8.5790
 2.0800	 8.5960
 2.0810	 8.6130
 2.0820	 8.6300
 2.0830	 8.6350
 2.0840	 8.6480
 2.0850	 8.6710
 2.0860	 8.6890
 2.0870	 8.7050
 2.0880	 8.7260
 2.0890	 8.7470
 2.0900	 8.7680
 2.0910	 8.7870
 2.0920	 8.8120
 2.0930	 8.8270
 2.0940	 8.8340
 2.0950	 8.8440
 2.0960	 8.8470
 2.0970	 8.8560
 2.0980	 8.8690
 2.0990	 8.8830
 2.1000	 8.9010
 2.1010	 8.9190
 2.1020	 8.9420
 2.1030	 8.9600
 2.1040	 8.9750
 2.1050	 8.9920
 2.1060	 9.0070
 2.1070	 9.0170
 2.1080	 9.0300
 2.1090	 9.0460
 2.1100	 9.0570
 2.1110	 9.0650
 2.1120	 9.0760
 2.1130	 9.0870
 2.1140	 9.0960
 2.1150	 9.1040
 2.1160	 9.1160
 2.1170	 9.1330
 2.1180	 9.1450
 2.1190	 9.1620
 2.1200	 9.1740
 2.1210	 9.1770
 2.1220	 9.1820
 2.1230	 9.1920
 2.1240	 9.2070
 2.1250	 9.2170
 2.1260	 9.2280
 2.1270	 9.2420
 2.1280	 9.2580
 2.1290	 9.2690
 2.1300	 9.2840
 2.1310	 9.2930
 2.1320	 9.2920
 2.1330	 9.2960
 2.1340	 9.3010
 2.1350	 9.3080
 2.1360	 9.3090
 2.1370	 9.3200
 2.1380	 9.3460
 2.1390	 9.3580
 2.1400	 9.3660
 2.1410	 9.3740
 2.1420	 9.3800
 2.1430	 9.3710
 2.1440	 9.3810
 2.1450	 9.4030
 2.1460	 9.4200
 2.1470	 9.4420
 2.1480	 9.4600
 2.1490	 9.4740
 2.1500	 9.4900
 2.1510	 9.5020
 2.1520	 9.5190
 2.1530	 9.5390
 2.1540	 9.5560
 2.1550	 9.5720
 2.1560	 9.5890
 2.1570	 9.6020
 2.1580	 9.6210
 2.1590	 9.6450
 2.1600	 9.6690
 2.1610	 9.7000
 2.1620	 9.7320
 2.1630	 9.7610
 2.1640	 9.7920
 2.1650	 9.8190
 2.1660	 9.8420
 2.1670	 9.8650
 2.1680	 9.8860
 2.1690	 9.9050
 2.1700	 9.9220
 2.1710	 9.9410
 2.1720	 9.9610
 2.1730	 9.9820
 2.1740	10.0040
 2.1750	10.0260
 2.1760	10.0530
 2.1770	10.0740
 2.1780	10.0920
 2.1790	10.1140
 2.1800	10.1280
 2.1810	10.1520
 2.1820	10.1880
 2.1830	10.2190
 2.1840	10.2460
 2.1850	10.2730
 2.1860	10.2980
 2.1870	10.3150
 2.1880	10.3380
 2.1890	10.3680
 2.1900	10.3880
 2.1910	10.4020
 2.1920	10.4220
 2.1930	10.4370
 2.1940	10.4620
 2.1950	10.5040
 2.1960	10.5320
 2.1970	10.5600
 2.1980	10.5820
 2.1990	10.5900
 2.2000	10.6050
 2.2010	10.6220
 2.2020	10.6400
 2.2030	10.6580
 2.2040	10.6790
 2.2050	10.7000
 2.2060	10.7270
 2.2070	10.7470
 2.2080	10.7680
 2.2090	10.7910
 2.2100	10.8130
 2.2110	10.8290
 2.2120	10.8480
 2.2130	10.8590
 2.2140	10.8600
 2.2150	10.8670
 2.2160	10.8750
 2.2170	10.8800
 2.2180	10.8830
 2.2190	10.8870
 2.2200	10.8890
 2.2210	10.8910
 2.2220	10.8900
 2.2230	10.8950
 2.2240	10.9180
 2.2250	10.9170
 2.2260	10.9070
 2.2270	10.8950
 2.2280	10.8520
 2.2290	10.8280
 2.2300	10.8200
 2.2310	10.8070
 2.2320	10.7880
 2.2330	10.7830
 2.2340	10.7660
 2.2350	10.7440
 2.2360	10.7170
 2.2370	10.6940
 2.2380	10.6510
 2.2390	10.5910
 2.2400	10.5420
 2.2410	10.4840
 2.2420	10.4330
 2.2430	10.3890
 2.2440	10.3440
 2.2450	10.2990
 2.2460	10.2480
 2.2470	10.1940
 2.2480	10.1430
 2.2490	10.0890
 2.2500	10.0310
 2.2510	 9.9720
 2.2520	 9.9150
 2.2530	 9.8530
 2.2540	 9.7910
 2.2550	 9.7320
 2.2560	 9.6720
 2.2570	 9.6010
 2.2580	 9.5430
 2.2590	 9.5020
 2.2600	 9.4520
 2.2610	 9.4040
 2.2620	 9.3550
 2.2630	 9.2970
 2.2640	 9.2390
 2.2650	 9.1880
 2.2660	 9.1390
 2.2670	 9.0900
 2.2680	 9.0380
 2.2690	 8.9950
 2.2700	 8.9540
 2.2710	 8.9190
 2.2720	 8.8950
 2.2730	 8.8670
 2.2740	 8.8510
 2.2750	 8.8090
 2.2760	 8.7470
 2.2770	 8.7040
 2.2780	 8.6540
 2.2790	 8.6100
 2.2800	 8.5840
 2.2810	 8.5520
 2.2820	 8.5100
 2.2830	 8.4740
 2.2840	 8.4510
 2.2850	 8.4200
 2.2860	 8.3840
 2.2870	 8.3550
 2.2880	 8.3330
 2.2890	 8.2990
 2.2900	 8.2570
 2.2910	 8.2190
 2.2920	 8.1710
 2.2930	 8.1300
 2.2940	 8.1050
 2.2950	 8.0630
 2.2960	 8.0010
 2.2970	 7.9520
 2.2980	 7.8940
 2.2990	 7.8450
 2.3000	 7.8150
 2.3010	 7.8030
 2.3020	 7.7950
 2.3030	 7.7830
 2.3040	 7.7720
 2.3050	 7.7580
 2.3060	 7.7290
 2.3070	 7.7070
 2.3080	 7.6830
 2.3090	 7.6560
 2.3100	 7.6470
 2.3110	 7.6470
 2.3120	 7.6560
 2.3130	 7.6850
 2.3140	 7.6960
 2.3150	 7.7150
 2.3160	 7.7200
 2.3170	 7.7150
 2.3180	 7.7040
 2.3190	 7.6840
 2.3200	 7.6670
 2.3210	 7.6380
 2.3220	 7.6220
 2.3230	 7.6130
 2.3240	 7.6100
 2.3250	 7.6250
 2.3260	 7.6160
 2.3270	 7.6000
 2.3280	 7.5790
 2.3290	 7.5330
 2.3300	 7.5090
 2.3310	 7.5050
 2.3320	 7.4890
 2.3330	 7.4810
 2.3340	 7.4570
 2.3350	 7.4140
 2.3360	 7.3850
 2.3370	 7.3540
 2.3380	 7.3280
 2.3390	 7.3190
 2.3400	 7.2960
 2.3410	 7.2670
 2.3420	 7.2440
 2.3430	 7.2110
 2.3440	 7.1850
 2.3450	 7.1640
 2.3460	 7.1390
 2.3470	 7.1080
 2.3480	 7.0940
 2.3490	 7.0970
 2.3500	 7.0910
 2.3510	 7.1040
 2.3520	 7.0950
 2.3530	 7.0620
 2.3540	 7.0340
 2.3550	 7.0160
 2.3560	 6.9880
 2.3570	 6.9670
 2.3580	 6.9470
 2.3590	 6.9310
 2.3600	 6.9390
 2.3610	 6.9530
 2.3620	 6.9620
 2.3630	 6.9720
 2.3640	 6.9600
 2.3650	 6.9250
 2.3660	 6.9150
 2.3670	 6.9100
 2.3680	 6.8930
 2.3690	 6.8870
 2.3700	 6.8700
 2.3710	 6.8410
 2.3720	 6.8120
 2.3730	 6.8010
 2.3740	 6.7900
 2.3750	 6.7550
 2.3760	 6.7310
 2.3770	 6.7080
 2.3780	 6.6840
 2.3790	 6.6750
 2.3800	 6.6500
 2.3810	 6.6120
 2.3820	 6.5860
 2.3830	 6.5740
 2.3840	 6.5640
 2.3850	 6.5420
 2.3860	 6.5320
 2.3870	 6.5020
 2.3880	 6.4580
 2.3890	 6.4550
 2.3900	 6.4470
 2.3910	 6.4430
 2.3920	 6.4520
 2.3930	 6.4550
 2.3940	 6.4470
 2.3950	 6.4340
 2.3960	 6.4220
 2.3970	 6.3620
 2.3980	 6.3020
 2.3990	 6.2810
 2.4000	 6.2370
 2.4010	 6.2080
 2.4020	 6.2020
 2.4030	 6.1450
 2.4040	 6.0920
 2.4050	 6.0760
 2.4060	 6.0510
 2.4070	 6.0360
 2.4080	 6.0240
 2.4090	 5.9980
 2.4100	 5.9950
 2.4110	 5.9970
 2.4120	 5.9980
 2.4130	 5.9870
 2.4140	 5.9610
 2.4150	 5.9350
 2.4160	 5.9100
 2.4170	 5.8900
 2.4180	 5.8470
 2.4190	 5.8040
 2.4200	 5.7650
 2.4210	 5.7220
 2.4220	 5.6980
 2.4230	 5.6900
 2.4240	 5.6940
 2.4250	 5.6960
 2.4260	 5.7130
 2.4270	 5.7190
 2.4280	 5.6670
 2.4290	 5.6250
 2.4300	 5.5790
 2.4310	 5.5020
 2.4320	 5.4460
 2.4330	 5.4250
 2.4340	 5.4220
 2.4350	 5.3960
 2.4360	 5.3770
 2.4370	 5.3300
 2.4380	 5.2870
 2.4390	 5.2800
 2.4400	 5.2480
 2.4410	 5.2590
 2.4420	 5.2360
 2.4430	 5.2250
 2.4440	 5.2900
 2.4450	 5.2690
 2.4460	 5.2160
 2.4470	 5.1210
 2.4480	 5.0170
 2.4490	 5.0230
 2.4500	 5.0680
 2.4510	 5.0800
 2.4520	 5.0670
 2.4530	 5.0550
 2.4540	 5.0160
 2.4550	 5.0320
 2.4560	 5.0610
 2.4570	 5.0020
 2.4580	 4.9490
 2.4590	 4.9190
 2.4600	 4.8990
 2.4610	 4.9000
 2.4620	 4.8990
 2.4630	 4.9200
 2.4640	 4.9750
 2.4650	 5.0060
 2.4660	 5.0360
 2.4670	 5.0090
 2.4680	 4.8850
 2.4690	 4.7840
 2.4700	 4.7400
 2.4710	 4.7280
 2.4720	 4.7380
 2.4730	 4.8100
 2.4740	 4.8200
 2.4750	 4.8030
 2.4760	 4.8020
 2.4770	 4.7670
 2.4780	 4.7710
 2.4790	 4.8250
 2.4800	 4.8490
 2.4810	 4.8730
 2.4820	 4.9090
 2.4830	 4.8900
 2.4840	 4.7690
 2.4850	 4.7030
 2.4860	 4.6440
 2.4870	 4.4900
 2.4880	 4.4640
 2.4890	 4.5060
 2.4900	 4.4990
 2.4910	 4.5910
 2.4920	 4.6490
 2.4930	 4.5810
 2.4940	 4.5820
 2.4950	 4.5320
 2.4960	 4.4470
 2.4970	 4.5850
 2.4980	 4.6240
 2.4990	 4.6950
 2.5000	 4.8860
