Name: Quercus douglasii 3
Type: vegetation
Class: Tree
Genus: Quercus
Species: douglasii
Sample No.: VH278
Owner: UCSB
Wavelength Range: VSWIR
Origin: 34.7165; -120.0605; WGS84
Collection Date: 11/2/2013
Description: Samples were collected as part of the HyspIRI Airborne Campaign. 48 individual plants were sampled in three times in 2013 - spring  summer  and fall. The name of the sample includes a 1  2  or 3 which references a different individual of the species. Samples were taken to JPL and processed within 48 hours of collection. The same leaves were processed in the Nicolet and then measured using the ASD.
Measurement: Bidirectional reflectance
First Column: X
Second Column: Y
X Units: Wavelength (micrometers)
Y Units: Reflectance (percentage)
First X Value: 0.35
Last X Value: 2.5
Number of X Values: 2151
Additional Information: vegetation.tree.quercus.douglasii.vswir.vh278.ucsb.asd.ancillary.txt

 0.3500	 7.0180
 0.3510	 6.8410
 0.3520	 6.7780
 0.3530	 6.7490
 0.3540	 6.6740
 0.3550	 6.6420
 0.3560	 6.7290
 0.3570	 6.8360
 0.3580	 6.8020
 0.3590	 6.7490
 0.3600	 6.6880
 0.3610	 6.6730
 0.3620	 6.8410
 0.3630	 6.8190
 0.3640	 6.7440
 0.3650	 6.7910
 0.3660	 6.7770
 0.3670	 6.7190
 0.3680	 6.6970
 0.3690	 6.8040
 0.3700	 6.7680
 0.3710	 6.7030
 0.3720	 6.7080
 0.3730	 6.7660
 0.3740	 6.7970
 0.3750	 6.7870
 0.3760	 6.7580
 0.3770	 6.7660
 0.3780	 6.7850
 0.3790	 6.7900
 0.3800	 6.7650
 0.3810	 6.7740
 0.3820	 6.7990
 0.3830	 6.8210
 0.3840	 6.8580
 0.3850	 6.8630
 0.3860	 6.8520
 0.3870	 6.8650
 0.3880	 6.9220
 0.3890	 6.9510
 0.3900	 6.9540
 0.3910	 7.0050
 0.3920	 7.0140
 0.3930	 6.9850
 0.3940	 6.9510
 0.3950	 6.9790
 0.3960	 7.0470
 0.3970	 7.1110
 0.3980	 7.1220
 0.3990	 7.1270
 0.4000	 7.1430
 0.4010	 7.1710
 0.4020	 7.2000
 0.4030	 7.2110
 0.4040	 7.2240
 0.4050	 7.2600
 0.4060	 7.3070
 0.4070	 7.3670
 0.4080	 7.4320
 0.4090	 7.4900
 0.4100	 7.5310
 0.4110	 7.5710
 0.4120	 7.6190
 0.4130	 7.6700
 0.4140	 7.7250
 0.4150	 7.7760
 0.4160	 7.8180
 0.4170	 7.8780
 0.4180	 7.9400
 0.4190	 7.9930
 0.4200	 8.0410
 0.4210	 8.0820
 0.4220	 8.1370
 0.4230	 8.2110
 0.4240	 8.2730
 0.4250	 8.3320
 0.4260	 8.3940
 0.4270	 8.4570
 0.4280	 8.5200
 0.4290	 8.5620
 0.4300	 8.5890
 0.4310	 8.6450
 0.4320	 8.7090
 0.4330	 8.7550
 0.4340	 8.7750
 0.4350	 8.8200
 0.4360	 8.8670
 0.4370	 8.9080
 0.4380	 8.9450
 0.4390	 8.9940
 0.4400	 9.0440
 0.4410	 9.0810
 0.4420	 9.0870
 0.4430	 9.1130
 0.4440	 9.1500
 0.4450	 9.1690
 0.4460	 9.1970
 0.4470	 9.2230
 0.4480	 9.2420
 0.4490	 9.2620
 0.4500	 9.2840
 0.4510	 9.3050
 0.4520	 9.3240
 0.4530	 9.3460
 0.4540	 9.3640
 0.4550	 9.3800
 0.4560	 9.4070
 0.4570	 9.4350
 0.4580	 9.4500
 0.4590	 9.4570
 0.4600	 9.4900
 0.4610	 9.5130
 0.4620	 9.5300
 0.4630	 9.5580
 0.4640	 9.5930
 0.4650	 9.6200
 0.4660	 9.6400
 0.4670	 9.6610
 0.4680	 9.6770
 0.4690	 9.6960
 0.4700	 9.7220
 0.4710	 9.7410
 0.4720	 9.7590
 0.4730	 9.7830
 0.4740	 9.8120
 0.4750	 9.8270
 0.4760	 9.8390
 0.4770	 9.8550
 0.4780	 9.8700
 0.4790	 9.8880
 0.4800	 9.9080
 0.4810	 9.9240
 0.4820	 9.9350
 0.4830	 9.9510
 0.4840	 9.9750
 0.4850	10.0010
 0.4860	10.0250
 0.4870	10.0560
 0.4880	10.0960
 0.4890	10.1250
 0.4900	10.1640
 0.4910	10.2140
 0.4920	10.2660
 0.4930	10.3140
 0.4940	10.3770
 0.4950	10.4540
 0.4960	10.5160
 0.4970	10.5990
 0.4980	10.6910
 0.4990	10.7770
 0.5000	10.8830
 0.5010	11.0080
 0.5020	11.1430
 0.5030	11.2820
 0.5040	11.4320
 0.5050	11.5980
 0.5060	11.7840
 0.5070	11.9910
 0.5080	12.2190
 0.5090	12.4650
 0.5100	12.7260
 0.5110	13.0090
 0.5120	13.3210
 0.5130	13.6590
 0.5140	14.0140
 0.5150	14.3930
 0.5160	14.7970
 0.5170	15.2210
 0.5180	15.6540
 0.5190	16.1040
 0.5200	16.5720
 0.5210	17.0510
 0.5220	17.5340
 0.5230	18.0190
 0.5240	18.5060
 0.5250	18.9980
 0.5260	19.4840
 0.5270	19.9580
 0.5280	20.4140
 0.5290	20.8640
 0.5300	21.3040
 0.5310	21.7300
 0.5320	22.1430
 0.5330	22.5400
 0.5340	22.9230
 0.5350	23.2930
 0.5360	23.6370
 0.5370	23.9730
 0.5380	24.3040
 0.5390	24.6230
 0.5400	24.9370
 0.5410	25.2450
 0.5420	25.5410
 0.5430	25.8190
 0.5440	26.1070
 0.5450	26.3930
 0.5460	26.6580
 0.5470	26.9170
 0.5480	27.1690
 0.5490	27.4040
 0.5500	27.6220
 0.5510	27.8250
 0.5520	28.0110
 0.5530	28.1790
 0.5540	28.3350
 0.5550	28.4780
 0.5560	28.6080
 0.5570	28.7220
 0.5580	28.8160
 0.5590	28.8990
 0.5600	28.9770
 0.5610	29.0460
 0.5620	29.1080
 0.5630	29.1620
 0.5640	29.2080
 0.5650	29.2390
 0.5660	29.2600
 0.5670	29.2700
 0.5680	29.2590
 0.5690	29.2500
 0.5700	29.2400
 0.5710	29.2200
 0.5720	29.2080
 0.5730	29.2040
 0.5740	29.2150
 0.5750	29.2450
 0.5760	29.2650
 0.5770	29.2810
 0.5780	29.2950
 0.5790	29.2940
 0.5800	29.3200
 0.5810	29.3600
 0.5820	29.3830
 0.5830	29.3950
 0.5840	29.3990
 0.5850	29.3960
 0.5860	29.3910
 0.5870	29.4080
 0.5880	29.4400
 0.5890	29.4770
 0.5900	29.5370
 0.5910	29.6110
 0.5920	29.6890
 0.5930	29.7610
 0.5940	29.8380
 0.5950	29.9090
 0.5960	29.9580
 0.5970	29.9620
 0.5980	29.9560
 0.5990	29.9500
 0.6000	29.9400
 0.6010	29.9170
 0.6020	29.8800
 0.6030	29.8370
 0.6040	29.8020
 0.6050	29.7530
 0.6060	29.6950
 0.6070	29.6350
 0.6080	29.5610
 0.6090	29.4770
 0.6100	29.3860
 0.6110	29.2930
 0.6120	29.2210
 0.6130	29.1600
 0.6140	29.1000
 0.6150	29.0400
 0.6160	28.9940
 0.6170	28.9510
 0.6180	28.9050
 0.6190	28.8860
 0.6200	28.8740
 0.6210	28.8660
 0.6220	28.8720
 0.6230	28.8950
 0.6240	28.9270
 0.6250	28.9600
 0.6260	28.9950
 0.6270	29.0440
 0.6280	29.1020
 0.6290	29.1620
 0.6300	29.2230
 0.6310	29.2850
 0.6320	29.3440
 0.6330	29.3900
 0.6340	29.4200
 0.6350	29.4340
 0.6360	29.4290
 0.6370	29.3980
 0.6380	29.3370
 0.6390	29.2530
 0.6400	29.1550
 0.6410	29.0180
 0.6420	28.8600
 0.6430	28.6930
 0.6440	28.5080
 0.6450	28.3210
 0.6460	28.1210
 0.6470	27.9020
 0.6480	27.7120
 0.6490	27.5240
 0.6500	27.3360
 0.6510	27.1590
 0.6520	26.9860
 0.6530	26.8070
 0.6540	26.6160
 0.6550	26.4160
 0.6560	26.2110
 0.6570	25.9940
 0.6580	25.7610
 0.6590	25.5210
 0.6600	25.2810
 0.6610	25.0460
 0.6620	24.8130
 0.6630	24.6030
 0.6640	24.4090
 0.6650	24.2270
 0.6660	24.0830
 0.6670	23.9720
 0.6680	23.8900
 0.6690	23.8360
 0.6700	23.8130
 0.6710	23.8280
 0.6720	23.8790
 0.6730	23.9440
 0.6740	24.0480
 0.6750	24.1900
 0.6760	24.3590
 0.6770	24.5480
 0.6780	24.7840
 0.6790	25.0660
 0.6800	25.3730
 0.6810	25.7410
 0.6820	26.1730
 0.6830	26.6740
 0.6840	27.2560
 0.6850	27.9210
 0.6860	28.6690
 0.6870	29.5000
 0.6880	30.4150
 0.6890	31.4090
 0.6900	32.4700
 0.6910	33.5760
 0.6920	34.7030
 0.6930	35.8370
 0.6940	36.9680
 0.6950	38.0850
 0.6960	39.1740
 0.6970	40.2230
 0.6980	41.2220
 0.6990	42.1610
 0.7000	43.0500
 0.7010	43.8860
 0.7020	44.6580
 0.7030	45.3780
 0.7040	46.0350
 0.7050	46.6260
 0.7060	47.1930
 0.7070	47.7050
 0.7080	48.1700
 0.7090	48.6090
 0.7100	49.0140
 0.7110	49.3860
 0.7120	49.7240
 0.7130	50.0330
 0.7140	50.3240
 0.7150	50.5970
 0.7160	50.8520
 0.7170	51.0990
 0.7180	51.3190
 0.7190	51.5210
 0.7200	51.7250
 0.7210	51.9160
 0.7220	52.0840
 0.7230	52.2350
 0.7240	52.3940
 0.7250	52.5450
 0.7260	52.6820
 0.7270	52.8040
 0.7280	52.9320
 0.7290	53.0470
 0.7300	53.1530
 0.7310	53.2620
 0.7320	53.3670
 0.7330	53.4590
 0.7340	53.5400
 0.7350	53.6230
 0.7360	53.7020
 0.7370	53.7670
 0.7380	53.8190
 0.7390	53.9000
 0.7400	53.9760
 0.7410	54.0360
 0.7420	54.0800
 0.7430	54.1340
 0.7440	54.1870
 0.7450	54.2320
 0.7460	54.2640
 0.7470	54.3050
 0.7480	54.3510
 0.7490	54.3910
 0.7500	54.4130
 0.7510	54.4390
 0.7520	54.4710
 0.7530	54.5080
 0.7540	54.5350
 0.7550	54.5700
 0.7560	54.6040
 0.7570	54.6180
 0.7580	54.6170
 0.7590	54.6350
 0.7600	54.6800
 0.7610	54.6990
 0.7620	54.7240
 0.7630	54.7490
 0.7640	54.7580
 0.7650	54.7680
 0.7660	54.7970
 0.7670	54.8300
 0.7680	54.8400
 0.7690	54.8620
 0.7700	54.8810
 0.7710	54.8880
 0.7720	54.8970
 0.7730	54.9270
 0.7740	54.9560
 0.7750	54.9640
 0.7760	54.9770
 0.7770	54.9950
 0.7780	55.0170
 0.7790	55.0390
 0.7800	55.0560
 0.7810	55.0810
 0.7820	55.1090
 0.7830	55.1140
 0.7840	55.1410
 0.7850	55.1650
 0.7860	55.1750
 0.7870	55.2040
 0.7880	55.2210
 0.7890	55.2360
 0.7900	55.2670
 0.7910	55.2920
 0.7920	55.3030
 0.7930	55.3140
 0.7940	55.3440
 0.7950	55.3700
 0.7960	55.3720
 0.7970	55.3640
 0.7980	55.4070
 0.7990	55.4390
 0.8000	55.4570
 0.8010	55.4720
 0.8020	55.4910
 0.8030	55.4970
 0.8040	55.5060
 0.8050	55.5380
 0.8060	55.5600
 0.8070	55.5800
 0.8080	55.5980
 0.8090	55.6120
 0.8100	55.6250
 0.8110	55.6420
 0.8120	55.6650
 0.8130	55.6830
 0.8140	55.6970
 0.8150	55.7080
 0.8160	55.7200
 0.8170	55.7570
 0.8180	55.7740
 0.8190	55.7730
 0.8200	55.7740
 0.8210	55.8060
 0.8220	55.8300
 0.8230	55.8400
 0.8240	55.8540
 0.8250	55.8520
 0.8260	55.8700
 0.8270	55.9130
 0.8280	55.9360
 0.8290	55.9350
 0.8300	55.9340
 0.8310	55.9500
 0.8320	55.9470
 0.8330	55.9620
 0.8340	55.9810
 0.8350	55.9760
 0.8360	55.9830
 0.8370	56.0070
 0.8380	56.0320
 0.8390	56.0360
 0.8400	56.0470
 0.8410	56.0600
 0.8420	56.0740
 0.8430	56.0990
 0.8440	56.1170
 0.8450	56.1240
 0.8460	56.1240
 0.8470	56.1320
 0.8480	56.1390
 0.8490	56.1470
 0.8500	56.1640
 0.8510	56.1910
 0.8520	56.2100
 0.8530	56.2210
 0.8540	56.2300
 0.8550	56.2360
 0.8560	56.2440
 0.8570	56.2560
 0.8580	56.2660
 0.8590	56.2990
 0.8600	56.3110
 0.8610	56.2910
 0.8620	56.2960
 0.8630	56.3120
 0.8640	56.3370
 0.8650	56.3620
 0.8660	56.3680
 0.8670	56.3640
 0.8680	56.3610
 0.8690	56.3640
 0.8700	56.3560
 0.8710	56.3640
 0.8720	56.3930
 0.8730	56.4310
 0.8740	56.4420
 0.8750	56.4430
 0.8760	56.4400
 0.8770	56.4260
 0.8780	56.4410
 0.8790	56.4510
 0.8800	56.4440
 0.8810	56.4530
 0.8820	56.4560
 0.8830	56.4760
 0.8840	56.5100
 0.8850	56.4930
 0.8860	56.4760
 0.8870	56.4830
 0.8880	56.5130
 0.8890	56.5290
 0.8900	56.5280
 0.8910	56.5160
 0.8920	56.5000
 0.8930	56.5020
 0.8940	56.5090
 0.8950	56.5200
 0.8960	56.5370
 0.8970	56.5450
 0.8980	56.5320
 0.8990	56.5140
 0.9000	56.5250
 0.9010	56.5240
 0.9020	56.5200
 0.9030	56.5190
 0.9040	56.5200
 0.9050	56.5360
 0.9060	56.5640
 0.9070	56.5910
 0.9080	56.5870
 0.9090	56.5450
 0.9100	56.5110
 0.9110	56.5170
 0.9120	56.5280
 0.9130	56.5410
 0.9140	56.5550
 0.9150	56.5630
 0.9160	56.5460
 0.9170	56.5290
 0.9180	56.5270
 0.9190	56.5440
 0.9200	56.5460
 0.9210	56.5440
 0.9220	56.5350
 0.9230	56.5170
 0.9240	56.5140
 0.9250	56.4980
 0.9260	56.4780
 0.9270	56.4910
 0.9280	56.4830
 0.9290	56.4650
 0.9300	56.4530
 0.9310	56.4580
 0.9320	56.4520
 0.9330	56.4320
 0.9340	56.4060
 0.9350	56.3870
 0.9360	56.3820
 0.9370	56.3850
 0.9380	56.3790
 0.9390	56.3300
 0.9400	56.3030
 0.9410	56.2950
 0.9420	56.2880
 0.9430	56.2650
 0.9440	56.2310
 0.9450	56.2120
 0.9460	56.2040
 0.9470	56.1420
 0.9480	56.0960
 0.9490	56.0710
 0.9500	56.0510
 0.9510	56.0250
 0.9520	55.9790
 0.9530	55.9230
 0.9540	55.8720
 0.9550	55.8300
 0.9560	55.7790
 0.9570	55.7360
 0.9580	55.7080
 0.9590	55.6460
 0.9600	55.6010
 0.9610	55.5740
 0.9620	55.5500
 0.9630	55.5480
 0.9640	55.5380
 0.9650	55.5150
 0.9660	55.4900
 0.9670	55.4550
 0.9680	55.4250
 0.9690	55.4030
 0.9700	55.3910
 0.9710	55.3990
 0.9720	55.3950
 0.9730	55.3780
 0.9740	55.3680
 0.9750	55.3850
 0.9760	55.4050
 0.9770	55.4220
 0.9780	55.4350
 0.9790	55.4060
 0.9800	55.3860
 0.9810	55.3900
 0.9820	55.4050
 0.9830	55.3940
 0.9840	55.4160
 0.9850	55.4430
 0.9860	55.4300
 0.9870	55.4630
 0.9880	55.4830
 0.9890	55.4870
 0.9900	55.4990
 0.9910	55.5120
 0.9920	55.5290
 0.9930	55.5520
 0.9940	55.5780
 0.9950	55.5880
 0.9960	55.6020
 0.9970	55.6190
 0.9980	55.6310
 0.9990	55.6490
 1.0000	55.6430
 1.0010	55.5640
 1.0020	55.5380
 1.0030	55.5550
 1.0040	55.5790
 1.0050	55.5980
 1.0060	55.6260
 1.0070	55.6550
 1.0080	55.6790
 1.0090	55.7030
 1.0100	55.7250
 1.0110	55.7450
 1.0120	55.7630
 1.0130	55.7810
 1.0140	55.8000
 1.0150	55.8190
 1.0160	55.8310
 1.0170	55.8430
 1.0180	55.8580
 1.0190	55.8790
 1.0200	55.9050
 1.0210	55.9330
 1.0220	55.9640
 1.0230	55.9860
 1.0240	55.9980
 1.0250	56.0160
 1.0260	56.0350
 1.0270	56.0510
 1.0280	56.0670
 1.0290	56.0840
 1.0300	56.1010
 1.0310	56.1160
 1.0320	56.1320
 1.0330	56.1460
 1.0340	56.1540
 1.0350	56.1620
 1.0360	56.1730
 1.0370	56.1830
 1.0380	56.1960
 1.0390	56.2140
 1.0400	56.2270
 1.0410	56.2440
 1.0420	56.2540
 1.0430	56.2600
 1.0440	56.2680
 1.0450	56.2750
 1.0460	56.2830
 1.0470	56.2940
 1.0480	56.3030
 1.0490	56.3120
 1.0500	56.3230
 1.0510	56.3350
 1.0520	56.3480
 1.0530	56.3600
 1.0540	56.3730
 1.0550	56.3830
 1.0560	56.3890
 1.0570	56.3970
 1.0580	56.4020
 1.0590	56.4080
 1.0600	56.4130
 1.0610	56.4190
 1.0620	56.4240
 1.0630	56.4330
 1.0640	56.4500
 1.0650	56.4580
 1.0660	56.4580
 1.0670	56.4630
 1.0680	56.4670
 1.0690	56.4640
 1.0700	56.4680
 1.0710	56.4790
 1.0720	56.4860
 1.0730	56.4920
 1.0740	56.4970
 1.0750	56.5030
 1.0760	56.5070
 1.0770	56.5090
 1.0780	56.5110
 1.0790	56.5120
 1.0800	56.5130
 1.0810	56.5150
 1.0820	56.5160
 1.0830	56.5200
 1.0840	56.5200
 1.0850	56.5170
 1.0860	56.5120
 1.0870	56.5070
 1.0880	56.5000
 1.0890	56.4940
 1.0900	56.4880
 1.0910	56.4810
 1.0920	56.4730
 1.0930	56.4660
 1.0940	56.4600
 1.0950	56.4510
 1.0960	56.4410
 1.0970	56.4320
 1.0980	56.4190
 1.0990	56.4090
 1.1000	56.4030
 1.1010	56.3930
 1.1020	56.3810
 1.1030	56.3690
 1.1040	56.3550
 1.1050	56.3400
 1.1060	56.3270
 1.1070	56.3170
 1.1080	56.3030
 1.1090	56.2890
 1.1100	56.2730
 1.1110	56.2560
 1.1120	56.2380
 1.1130	56.2200
 1.1140	56.2000
 1.1150	56.1780
 1.1160	56.1560
 1.1170	56.1360
 1.1180	56.1110
 1.1190	56.0830
 1.1200	56.0560
 1.1210	56.0290
 1.1220	55.9970
 1.1230	55.9640
 1.1240	55.9300
 1.1250	55.8890
 1.1260	55.8420
 1.1270	55.7920
 1.1280	55.7370
 1.1290	55.6820
 1.1300	55.6270
 1.1310	55.5640
 1.1320	55.5010
 1.1330	55.4290
 1.1340	55.3450
 1.1350	55.2600
 1.1360	55.1720
 1.1370	55.0770
 1.1380	54.9760
 1.1390	54.8730
 1.1400	54.7610
 1.1410	54.6460
 1.1420	54.5320
 1.1430	54.4160
 1.1440	54.3010
 1.1450	54.1860
 1.1460	54.0720
 1.1470	53.9560
 1.1480	53.8440
 1.1490	53.7310
 1.1500	53.6240
 1.1510	53.5160
 1.1520	53.4200
 1.1530	53.3300
 1.1540	53.2490
 1.1550	53.1770
 1.1560	53.1120
 1.1570	53.0550
 1.1580	53.0020
 1.1590	52.9550
 1.1600	52.9140
 1.1610	52.8780
 1.1620	52.8470
 1.1630	52.8200
 1.1640	52.7970
 1.1650	52.7780
 1.1660	52.7620
 1.1670	52.7500
 1.1680	52.7450
 1.1690	52.7370
 1.1700	52.7310
 1.1710	52.7240
 1.1720	52.7180
 1.1730	52.7130
 1.1740	52.7080
 1.1750	52.7040
 1.1760	52.7030
 1.1770	52.6970
 1.1780	52.6900
 1.1790	52.6860
 1.1800	52.6810
 1.1810	52.6770
 1.1820	52.6680
 1.1830	52.6590
 1.1840	52.6480
 1.1850	52.6330
 1.1860	52.6230
 1.1870	52.6150
 1.1880	52.6070
 1.1890	52.5990
 1.1900	52.5940
 1.1910	52.5930
 1.1920	52.5900
 1.1930	52.5890
 1.1940	52.5890
 1.1950	52.5900
 1.1960	52.5900
 1.1970	52.5930
 1.1980	52.5970
 1.1990	52.6020
 1.2000	52.6110
 1.2010	52.6180
 1.2020	52.6280
 1.2030	52.6380
 1.2040	52.6460
 1.2050	52.6580
 1.2060	52.6730
 1.2070	52.6860
 1.2080	52.7030
 1.2090	52.7180
 1.2100	52.7320
 1.2110	52.7490
 1.2120	52.7670
 1.2130	52.7870
 1.2140	52.8080
 1.2150	52.8300
 1.2160	52.8520
 1.2170	52.8770
 1.2180	52.9010
 1.2190	52.9260
 1.2200	52.9510
 1.2210	52.9730
 1.2220	52.9980
 1.2230	53.0210
 1.2240	53.0470
 1.2250	53.0730
 1.2260	53.0960
 1.2270	53.1210
 1.2280	53.1460
 1.2290	53.1720
 1.2300	53.1950
 1.2310	53.2160
 1.2320	53.2370
 1.2330	53.2560
 1.2340	53.2770
 1.2350	53.3020
 1.2360	53.3210
 1.2370	53.3370
 1.2380	53.3520
 1.2390	53.3660
 1.2400	53.3820
 1.2410	53.4010
 1.2420	53.4180
 1.2430	53.4360
 1.2440	53.4520
 1.2450	53.4640
 1.2460	53.4770
 1.2470	53.4890
 1.2480	53.5010
 1.2490	53.5180
 1.2500	53.5370
 1.2510	53.5510
 1.2520	53.5610
 1.2530	53.5690
 1.2540	53.5750
 1.2550	53.5830
 1.2560	53.5930
 1.2570	53.6030
 1.2580	53.6120
 1.2590	53.6190
 1.2600	53.6220
 1.2610	53.6270
 1.2620	53.6310
 1.2630	53.6330
 1.2640	53.6360
 1.2650	53.6390
 1.2660	53.6390
 1.2670	53.6390
 1.2680	53.6380
 1.2690	53.6370
 1.2700	53.6340
 1.2710	53.6300
 1.2720	53.6250
 1.2730	53.6190
 1.2740	53.6140
 1.2750	53.6070
 1.2760	53.6000
 1.2770	53.5900
 1.2780	53.5770
 1.2790	53.5640
 1.2800	53.5500
 1.2810	53.5370
 1.2820	53.5260
 1.2830	53.5120
 1.2840	53.5000
 1.2850	53.4870
 1.2860	53.4700
 1.2870	53.4520
 1.2880	53.4340
 1.2890	53.4150
 1.2900	53.3940
 1.2910	53.3740
 1.2920	53.3540
 1.2930	53.3290
 1.2940	53.3020
 1.2950	53.2760
 1.2960	53.2510
 1.2970	53.2250
 1.2980	53.1960
 1.2990	53.1660
 1.3000	53.1330
 1.3010	53.0980
 1.3020	53.0640
 1.3030	53.0240
 1.3040	52.9770
 1.3050	52.9300
 1.3060	52.8830
 1.3070	52.8330
 1.3080	52.7800
 1.3090	52.7250
 1.3100	52.6640
 1.3110	52.5980
 1.3120	52.5290
 1.3130	52.4580
 1.3140	52.3830
 1.3150	52.3050
 1.3160	52.2250
 1.3170	52.1450
 1.3180	52.0570
 1.3190	51.9680
 1.3200	51.8760
 1.3210	51.7750
 1.3220	51.6730
 1.3230	51.5670
 1.3240	51.4570
 1.3250	51.3470
 1.3260	51.2320
 1.3270	51.1160
 1.3280	50.9940
 1.3290	50.8680
 1.3300	50.7440
 1.3310	50.6150
 1.3320	50.4830
 1.3330	50.3510
 1.3340	50.2160
 1.3350	50.0810
 1.3360	49.9430
 1.3370	49.8030
 1.3380	49.6620
 1.3390	49.5210
 1.3400	49.3810
 1.3410	49.2430
 1.3420	49.1070
 1.3430	48.9730
 1.3440	48.8380
 1.3450	48.7030
 1.3460	48.5670
 1.3470	48.4330
 1.3480	48.2970
 1.3490	48.1640
 1.3500	48.0330
 1.3510	47.9040
 1.3520	47.7750
 1.3530	47.6490
 1.3540	47.5220
 1.3550	47.3920
 1.3560	47.2620
 1.3570	47.1320
 1.3580	47.0010
 1.3590	46.8700
 1.3600	46.7370
 1.3610	46.6010
 1.3620	46.4600
 1.3630	46.3150
 1.3640	46.1630
 1.3650	46.0030
 1.3660	45.8380
 1.3670	45.6620
 1.3680	45.4770
 1.3690	45.2840
 1.3700	45.0740
 1.3710	44.8540
 1.3720	44.6210
 1.3730	44.3710
 1.3740	44.1090
 1.3750	43.8290
 1.3760	43.5270
 1.3770	43.2060
 1.3780	42.8590
 1.3790	42.4900
 1.3800	42.0980
 1.3810	41.6780
 1.3820	41.2380
 1.3830	40.7760
 1.3840	40.2910
 1.3850	39.7850
 1.3860	39.2590
 1.3870	38.7080
 1.3880	38.1490
 1.3890	37.5730
 1.3900	36.9810
 1.3910	36.3860
 1.3920	35.7800
 1.3930	35.1640
 1.3940	34.5460
 1.3950	33.9210
 1.3960	33.3010
 1.3970	32.6860
 1.3980	32.0780
 1.3990	31.4890
 1.4000	30.9070
 1.4010	30.3380
 1.4020	29.7910
 1.4030	29.2540
 1.4040	28.7390
 1.4050	28.2480
 1.4060	27.7760
 1.4070	27.3340
 1.4080	26.9160
 1.4090	26.5170
 1.4100	26.1470
 1.4110	25.7970
 1.4120	25.4710
 1.4130	25.1700
 1.4140	24.8880
 1.4150	24.6300
 1.4160	24.3920
 1.4170	24.1720
 1.4180	23.9730
 1.4190	23.7900
 1.4200	23.6230
 1.4210	23.4720
 1.4220	23.3360
 1.4230	23.2140
 1.4240	23.1060
 1.4250	23.0090
 1.4260	22.9250
 1.4270	22.8500
 1.4280	22.7860
 1.4290	22.7300
 1.4300	22.6830
 1.4310	22.6420
 1.4320	22.6100
 1.4330	22.5820
 1.4340	22.5620
 1.4350	22.5460
 1.4360	22.5370
 1.4370	22.5320
 1.4380	22.5320
 1.4390	22.5360
 1.4400	22.5440
 1.4410	22.5560
 1.4420	22.5690
 1.4430	22.5850
 1.4440	22.6040
 1.4450	22.6230
 1.4460	22.6460
 1.4470	22.6720
 1.4480	22.6990
 1.4490	22.7290
 1.4500	22.7600
 1.4510	22.7910
 1.4520	22.8220
 1.4530	22.8540
 1.4540	22.8870
 1.4550	22.9240
 1.4560	22.9620
 1.4570	23.0010
 1.4580	23.0450
 1.4590	23.0890
 1.4600	23.1400
 1.4610	23.1940
 1.4620	23.2520
 1.4630	23.3150
 1.4640	23.3820
 1.4650	23.4550
 1.4660	23.5350
 1.4670	23.6210
 1.4680	23.7130
 1.4690	23.8110
 1.4700	23.9140
 1.4710	24.0230
 1.4720	24.1350
 1.4730	24.2520
 1.4740	24.3730
 1.4750	24.4970
 1.4760	24.6260
 1.4770	24.7570
 1.4780	24.8910
 1.4790	25.0270
 1.4800	25.1630
 1.4810	25.3000
 1.4820	25.4390
 1.4830	25.5780
 1.4840	25.7210
 1.4850	25.8660
 1.4860	26.0090
 1.4870	26.1540
 1.4880	26.2960
 1.4890	26.4380
 1.4900	26.5800
 1.4910	26.7220
 1.4920	26.8650
 1.4930	27.0100
 1.4940	27.1540
 1.4950	27.2980
 1.4960	27.4430
 1.4970	27.5870
 1.4980	27.7300
 1.4990	27.8710
 1.5000	28.0130
 1.5010	28.1560
 1.5020	28.2970
 1.5030	28.4390
 1.5040	28.5770
 1.5050	28.7120
 1.5060	28.8470
 1.5070	28.9800
 1.5080	29.1160
 1.5090	29.2510
 1.5100	29.3860
 1.5110	29.5210
 1.5120	29.6550
 1.5130	29.7830
 1.5140	29.9110
 1.5150	30.0400
 1.5160	30.1660
 1.5170	30.2950
 1.5180	30.4200
 1.5190	30.5430
 1.5200	30.6640
 1.5210	30.7820
 1.5220	30.8990
 1.5230	31.0170
 1.5240	31.1330
 1.5250	31.2490
 1.5260	31.3640
 1.5270	31.4770
 1.5280	31.5870
 1.5290	31.6950
 1.5300	31.8020
 1.5310	31.9070
 1.5320	32.0110
 1.5330	32.1140
 1.5340	32.2170
 1.5350	32.3180
 1.5360	32.4200
 1.5370	32.5200
 1.5380	32.6170
 1.5390	32.7150
 1.5400	32.8100
 1.5410	32.9050
 1.5420	32.9990
 1.5430	33.0920
 1.5440	33.1830
 1.5450	33.2720
 1.5460	33.3600
 1.5470	33.4470
 1.5480	33.5320
 1.5490	33.6170
 1.5500	33.7010
 1.5510	33.7840
 1.5520	33.8680
 1.5530	33.9510
 1.5540	34.0330
 1.5550	34.1140
 1.5560	34.1930
 1.5570	34.2740
 1.5580	34.3530
 1.5590	34.4300
 1.5600	34.5080
 1.5610	34.5810
 1.5620	34.6530
 1.5630	34.7270
 1.5640	34.8000
 1.5650	34.8720
 1.5660	34.9440
 1.5670	35.0150
 1.5680	35.0860
 1.5690	35.1560
 1.5700	35.2300
 1.5710	35.3030
 1.5720	35.3720
 1.5730	35.4430
 1.5740	35.5110
 1.5750	35.5780
 1.5760	35.6470
 1.5770	35.7120
 1.5780	35.7770
 1.5790	35.8420
 1.5800	35.9050
 1.5810	35.9720
 1.5820	36.0370
 1.5830	36.1020
 1.5840	36.1650
 1.5850	36.2260
 1.5860	36.2870
 1.5870	36.3480
 1.5880	36.4110
 1.5890	36.4740
 1.5900	36.5340
 1.5910	36.5950
 1.5920	36.6520
 1.5930	36.7070
 1.5940	36.7650
 1.5950	36.8220
 1.5960	36.8780
 1.5970	36.9360
 1.5980	36.9940
 1.5990	37.0520
 1.6000	37.1080
 1.6010	37.1640
 1.6020	37.2200
 1.6030	37.2730
 1.6040	37.3270
 1.6050	37.3810
 1.6060	37.4330
 1.6070	37.4860
 1.6080	37.5390
 1.6090	37.5870
 1.6100	37.6360
 1.6110	37.6860
 1.6120	37.7330
 1.6130	37.7810
 1.6140	37.8280
 1.6150	37.8710
 1.6160	37.9160
 1.6170	37.9600
 1.6180	38.0030
 1.6190	38.0460
 1.6200	38.0870
 1.6210	38.1290
 1.6220	38.1710
 1.6230	38.2110
 1.6240	38.2530
 1.6250	38.2890
 1.6260	38.3240
 1.6270	38.3580
 1.6280	38.3920
 1.6290	38.4270
 1.6300	38.4620
 1.6310	38.4950
 1.6320	38.5270
 1.6330	38.5560
 1.6340	38.5840
 1.6350	38.6110
 1.6360	38.6370
 1.6370	38.6620
 1.6380	38.6850
 1.6390	38.7070
 1.6400	38.7300
 1.6410	38.7470
 1.6420	38.7620
 1.6430	38.7740
 1.6440	38.7800
 1.6450	38.7870
 1.6460	38.7910
 1.6470	38.7940
 1.6480	38.7970
 1.6490	38.7980
 1.6500	38.7990
 1.6510	38.7950
 1.6520	38.7890
 1.6530	38.7800
 1.6540	38.7650
 1.6550	38.7500
 1.6560	38.7350
 1.6570	38.7210
 1.6580	38.7080
 1.6590	38.6940
 1.6600	38.6770
 1.6610	38.6600
 1.6620	38.6450
 1.6630	38.6320
 1.6640	38.6200
 1.6650	38.6080
 1.6660	38.5970
 1.6670	38.5910
 1.6680	38.5870
 1.6690	38.5860
 1.6700	38.5860
 1.6710	38.5820
 1.6720	38.5770
 1.6730	38.5720
 1.6740	38.5640
 1.6750	38.5550
 1.6760	38.5470
 1.6770	38.5340
 1.6780	38.5190
 1.6790	38.5030
 1.6800	38.4820
 1.6810	38.4600
 1.6820	38.4400
 1.6830	38.4160
 1.6840	38.3900
 1.6850	38.3590
 1.6860	38.3230
 1.6870	38.2820
 1.6880	38.2400
 1.6890	38.1980
 1.6900	38.1580
 1.6910	38.1180
 1.6920	38.0770
 1.6930	38.0370
 1.6940	37.9950
 1.6950	37.9520
 1.6960	37.9080
 1.6970	37.8620
 1.6980	37.8150
 1.6990	37.7680
 1.7000	37.7210
 1.7010	37.6730
 1.7020	37.6240
 1.7030	37.5750
 1.7040	37.5240
 1.7050	37.4710
 1.7060	37.4170
 1.7070	37.3590
 1.7080	37.3030
 1.7090	37.2440
 1.7100	37.1860
 1.7110	37.1290
 1.7120	37.0730
 1.7130	37.0170
 1.7140	36.9610
 1.7150	36.9050
 1.7160	36.8500
 1.7170	36.7940
 1.7180	36.7420
 1.7190	36.6910
 1.7200	36.6400
 1.7210	36.5930
 1.7220	36.5480
 1.7230	36.5040
 1.7240	36.4620
 1.7250	36.4220
 1.7260	36.3800
 1.7270	36.3390
 1.7280	36.3010
 1.7290	36.2630
 1.7300	36.2250
 1.7310	36.1860
 1.7320	36.1450
 1.7330	36.1060
 1.7340	36.0680
 1.7350	36.0290
 1.7360	35.9920
 1.7370	35.9510
 1.7380	35.9060
 1.7390	35.8610
 1.7400	35.8130
 1.7410	35.7640
 1.7420	35.7170
 1.7430	35.6650
 1.7440	35.6110
 1.7450	35.5530
 1.7460	35.4870
 1.7470	35.4260
 1.7480	35.3620
 1.7490	35.3020
 1.7500	35.2460
 1.7510	35.1860
 1.7520	35.1260
 1.7530	35.0640
 1.7540	34.9980
 1.7550	34.9370
 1.7560	34.8750
 1.7570	34.8150
 1.7580	34.7560
 1.7590	34.6960
 1.7600	34.6370
 1.7610	34.5810
 1.7620	34.5250
 1.7630	34.4700
 1.7640	34.4180
 1.7650	34.3680
 1.7660	34.3200
 1.7670	34.2720
 1.7680	34.2270
 1.7690	34.1830
 1.7700	34.1400
 1.7710	34.0970
 1.7720	34.0550
 1.7730	34.0120
 1.7740	33.9710
 1.7750	33.9320
 1.7760	33.8940
 1.7770	33.8570
 1.7780	33.8250
 1.7790	33.7960
 1.7800	33.7680
 1.7810	33.7430
 1.7820	33.7190
 1.7830	33.6970
 1.7840	33.6770
 1.7850	33.6620
 1.7860	33.6430
 1.7870	33.6220
 1.7880	33.6030
 1.7890	33.5840
 1.7900	33.5710
 1.7910	33.5590
 1.7920	33.5520
 1.7930	33.5450
 1.7940	33.5380
 1.7950	33.5340
 1.7960	33.5340
 1.7970	33.5340
 1.7980	33.5410
 1.7990	33.5440
 1.8000	33.5450
 1.8010	33.5470
 1.8020	33.5500
 1.8030	33.5530
 1.8040	33.5560
 1.8050	33.5590
 1.8060	33.5610
 1.8070	33.5640
 1.8080	33.5690
 1.8090	33.5720
 1.8100	33.5760
 1.8110	33.5800
 1.8120	33.5850
 1.8130	33.5900
 1.8140	33.5930
 1.8150	33.5900
 1.8160	33.5860
 1.8170	33.5860
 1.8180	33.5910
 1.8190	33.6000
 1.8200	33.6030
 1.8210	33.6000
 1.8220	33.5960
 1.8230	33.5880
 1.8240	33.5820
 1.8250	33.5780
 1.8260	33.5720
 1.8270	33.5670
 1.8280	33.5550
 1.8290	33.5340
 1.8300	33.5080
 1.8310	33.4890
 1.8320	33.4570
 1.8330	33.4320
 1.8340	33.4050
 1.8350	33.3740
 1.8360	33.3320
 1.8370	33.2890
 1.8380	33.2420
 1.8390	33.1890
 1.8400	33.1310
 1.8410	33.0670
 1.8420	32.9980
 1.8430	32.9240
 1.8440	32.8450
 1.8450	32.7590
 1.8460	32.6650
 1.8470	32.5630
 1.8480	32.4500
 1.8490	32.3220
 1.8500	32.1890
 1.8510	32.0490
 1.8520	31.8920
 1.8530	31.7240
 1.8540	31.5480
 1.8550	31.3550
 1.8560	31.1500
 1.8570	30.9290
 1.8580	30.6970
 1.8590	30.4480
 1.8600	30.1840
 1.8610	29.9030
 1.8620	29.6090
 1.8630	29.2980
 1.8640	28.9680
 1.8650	28.6180
 1.8660	28.2480
 1.8670	27.8510
 1.8680	27.4310
 1.8690	26.9920
 1.8700	26.5310
 1.8710	26.0480
 1.8720	25.5510
 1.8730	25.0400
 1.8740	24.5150
 1.8750	23.9760
 1.8760	23.4240
 1.8770	22.8620
 1.8780	22.2950
 1.8790	21.7200
 1.8800	21.1480
 1.8810	20.5730
 1.8820	19.9970
 1.8830	19.4210
 1.8840	18.8510
 1.8850	18.2820
 1.8860	17.7230
 1.8870	17.1770
 1.8880	16.6390
 1.8890	16.1220
 1.8900	15.6260
 1.8910	15.1500
 1.8920	14.6910
 1.8930	14.2600
 1.8940	13.8480
 1.8950	13.4600
 1.8960	13.0980
 1.8970	12.7570
 1.8980	12.4450
 1.8990	12.1560
 1.9000	11.8880
 1.9010	11.6480
 1.9020	11.4250
 1.9030	11.2240
 1.9040	11.0450
 1.9050	10.8820
 1.9060	10.7360
 1.9070	10.6070
 1.9080	10.4880
 1.9090	10.3860
 1.9100	10.2990
 1.9110	10.2210
 1.9120	10.1580
 1.9130	10.1000
 1.9140	10.0510
 1.9150	10.0060
 1.9160	 9.9710
 1.9170	 9.9390
 1.9180	 9.9140
 1.9190	 9.8980
 1.9200	 9.8840
 1.9210	 9.8750
 1.9220	 9.8690
 1.9230	 9.8680
 1.9240	 9.8690
 1.9250	 9.8730
 1.9260	 9.8820
 1.9270	 9.8950
 1.9280	 9.9080
 1.9290	 9.9280
 1.9300	 9.9490
 1.9310	 9.9690
 1.9320	 9.9930
 1.9330	10.0180
 1.9340	10.0430
 1.9350	10.0740
 1.9360	10.1110
 1.9370	10.1460
 1.9380	10.1850
 1.9390	10.2220
 1.9400	10.2610
 1.9410	10.2980
 1.9420	10.3380
 1.9430	10.3810
 1.9440	10.4240
 1.9450	10.4680
 1.9460	10.5150
 1.9470	10.5630
 1.9480	10.6130
 1.9490	10.6660
 1.9500	10.7200
 1.9510	10.7740
 1.9520	10.8300
 1.9530	10.8870
 1.9540	10.9430
 1.9550	11.0020
 1.9560	11.0620
 1.9570	11.1230
 1.9580	11.1860
 1.9590	11.2500
 1.9600	11.3150
 1.9610	11.3800
 1.9620	11.4480
 1.9630	11.5150
 1.9640	11.5830
 1.9650	11.6520
 1.9660	11.7220
 1.9670	11.7910
 1.9680	11.8620
 1.9690	11.9350
 1.9700	12.0080
 1.9710	12.0850
 1.9720	12.1620
 1.9730	12.2390
 1.9740	12.3170
 1.9750	12.3970
 1.9760	12.4800
 1.9770	12.5620
 1.9780	12.6440
 1.9790	12.7260
 1.9800	12.8080
 1.9810	12.8920
 1.9820	12.9760
 1.9830	13.0610
 1.9840	13.1480
 1.9850	13.2340
 1.9860	13.3180
 1.9870	13.4030
 1.9880	13.4880
 1.9890	13.5720
 1.9900	13.6580
 1.9910	13.7470
 1.9920	13.8340
 1.9930	13.9210
 1.9940	14.0090
 1.9950	14.0950
 1.9960	14.1820
 1.9970	14.2700
 1.9980	14.3570
 1.9990	14.4400
 2.0000	14.5270
 2.0010	14.6110
 2.0020	14.6950
 2.0030	14.7810
 2.0040	14.8640
 2.0050	14.9480
 2.0060	15.0320
 2.0070	15.1150
 2.0080	15.1980
 2.0090	15.2800
 2.0100	15.3630
 2.0110	15.4440
 2.0120	15.5240
 2.0130	15.6010
 2.0140	15.6780
 2.0150	15.7530
 2.0160	15.8270
 2.0170	15.9010
 2.0180	15.9740
 2.0190	16.0450
 2.0200	16.1170
 2.0210	16.1880
 2.0220	16.2580
 2.0230	16.3280
 2.0240	16.3930
 2.0250	16.4550
 2.0260	16.5160
 2.0270	16.5730
 2.0280	16.6300
 2.0290	16.6860
 2.0300	16.7420
 2.0310	16.7960
 2.0320	16.8500
 2.0330	16.9030
 2.0340	16.9560
 2.0350	17.0070
 2.0360	17.0560
 2.0370	17.1030
 2.0380	17.1450
 2.0390	17.1910
 2.0400	17.2380
 2.0410	17.2830
 2.0420	17.3270
 2.0430	17.3730
 2.0440	17.4130
 2.0450	17.4470
 2.0460	17.4850
 2.0470	17.5230
 2.0480	17.5610
 2.0490	17.5990
 2.0500	17.6360
 2.0510	17.6740
 2.0520	17.7090
 2.0530	17.7420
 2.0540	17.7750
 2.0550	17.8070
 2.0560	17.8340
 2.0570	17.8650
 2.0580	17.8980
 2.0590	17.9290
 2.0600	17.9600
 2.0610	17.9910
 2.0620	18.0220
 2.0630	18.0510
 2.0640	18.0760
 2.0650	18.1040
 2.0660	18.1310
 2.0670	18.1590
 2.0680	18.1890
 2.0690	18.2170
 2.0700	18.2440
 2.0710	18.2700
 2.0720	18.2930
 2.0730	18.3180
 2.0740	18.3440
 2.0750	18.3700
 2.0760	18.3980
 2.0770	18.4290
 2.0780	18.4590
 2.0790	18.4890
 2.0800	18.5190
 2.0810	18.5500
 2.0820	18.5790
 2.0830	18.6060
 2.0840	18.6340
 2.0850	18.6610
 2.0860	18.6870
 2.0870	18.7120
 2.0880	18.7400
 2.0890	18.7670
 2.0900	18.7940
 2.0910	18.8220
 2.0920	18.8520
 2.0930	18.8790
 2.0940	18.9040
 2.0950	18.9320
 2.0960	18.9620
 2.0970	18.9900
 2.0980	19.0200
 2.0990	19.0480
 2.1000	19.0730
 2.1010	19.0990
 2.1020	19.1260
 2.1030	19.1530
 2.1040	19.1820
 2.1050	19.2100
 2.1060	19.2380
 2.1070	19.2650
 2.1080	19.2940
 2.1090	19.3230
 2.1100	19.3550
 2.1110	19.3930
 2.1120	19.4230
 2.1130	19.4510
 2.1140	19.4780
 2.1150	19.4990
 2.1160	19.5230
 2.1170	19.5490
 2.1180	19.5740
 2.1190	19.5960
 2.1200	19.6220
 2.1210	19.6520
 2.1220	19.6790
 2.1230	19.7050
 2.1240	19.7320
 2.1250	19.7580
 2.1260	19.7790
 2.1270	19.8040
 2.1280	19.8330
 2.1290	19.8580
 2.1300	19.8810
 2.1310	19.9060
 2.1320	19.9290
 2.1330	19.9520
 2.1340	19.9790
 2.1350	20.0020
 2.1360	20.0190
 2.1370	20.0400
 2.1380	20.0600
 2.1390	20.0830
 2.1400	20.1140
 2.1410	20.1410
 2.1420	20.1680
 2.1430	20.1960
 2.1440	20.2200
 2.1450	20.2370
 2.1460	20.2620
 2.1470	20.2890
 2.1480	20.3150
 2.1490	20.3450
 2.1500	20.3710
 2.1510	20.3910
 2.1520	20.4160
 2.1530	20.4420
 2.1540	20.4690
 2.1550	20.4980
 2.1560	20.5270
 2.1570	20.5580
 2.1580	20.5860
 2.1590	20.6130
 2.1600	20.6370
 2.1610	20.6610
 2.1620	20.6830
 2.1630	20.7050
 2.1640	20.7290
 2.1650	20.7500
 2.1660	20.7700
 2.1670	20.7930
 2.1680	20.8150
 2.1690	20.8380
 2.1700	20.8630
 2.1710	20.8860
 2.1720	20.9080
 2.1730	20.9310
 2.1740	20.9530
 2.1750	20.9760
 2.1760	20.9970
 2.1770	21.0180
 2.1780	21.0400
 2.1790	21.0630
 2.1800	21.0890
 2.1810	21.1120
 2.1820	21.1330
 2.1830	21.1550
 2.1840	21.1780
 2.1850	21.1980
 2.1860	21.2220
 2.1870	21.2510
 2.1880	21.2760
 2.1890	21.2980
 2.1900	21.3250
 2.1910	21.3530
 2.1920	21.3790
 2.1930	21.4060
 2.1940	21.4330
 2.1950	21.4560
 2.1960	21.4810
 2.1970	21.5090
 2.1980	21.5350
 2.1990	21.5600
 2.2000	21.5840
 2.2010	21.6080
 2.2020	21.6290
 2.2030	21.6450
 2.2040	21.6640
 2.2050	21.6800
 2.2060	21.6980
 2.2070	21.7190
 2.2080	21.7430
 2.2090	21.7630
 2.2100	21.7850
 2.2110	21.8030
 2.2120	21.8160
 2.2130	21.8300
 2.2140	21.8440
 2.2150	21.8590
 2.2160	21.8750
 2.2170	21.8860
 2.2180	21.8940
 2.2190	21.9020
 2.2200	21.9070
 2.2210	21.9110
 2.2220	21.9200
 2.2230	21.9190
 2.2240	21.9110
 2.2250	21.9020
 2.2260	21.8880
 2.2270	21.8730
 2.2280	21.8610
 2.2290	21.8410
 2.2300	21.8160
 2.2310	21.7870
 2.2320	21.7580
 2.2330	21.7270
 2.2340	21.6950
 2.2350	21.6640
 2.2360	21.6260
 2.2370	21.5830
 2.2380	21.5380
 2.2390	21.4880
 2.2400	21.4380
 2.2410	21.3840
 2.2420	21.3300
 2.2430	21.2750
 2.2440	21.2170
 2.2450	21.1570
 2.2460	21.0930
 2.2470	21.0210
 2.2480	20.9550
 2.2490	20.8890
 2.2500	20.8240
 2.2510	20.7620
 2.2520	20.7000
 2.2530	20.6380
 2.2540	20.5750
 2.2550	20.5130
 2.2560	20.4490
 2.2570	20.3800
 2.2580	20.3160
 2.2590	20.2540
 2.2600	20.1940
 2.2610	20.1370
 2.2620	20.0880
 2.2630	20.0350
 2.2640	19.9790
 2.2650	19.9220
 2.2660	19.8620
 2.2670	19.8070
 2.2680	19.7540
 2.2690	19.7050
 2.2700	19.6590
 2.2710	19.6120
 2.2720	19.5660
 2.2730	19.5210
 2.2740	19.4760
 2.2750	19.4330
 2.2760	19.3950
 2.2770	19.3520
 2.2780	19.3080
 2.2790	19.2660
 2.2800	19.2220
 2.2810	19.1820
 2.2820	19.1490
 2.2830	19.1100
 2.2840	19.0710
 2.2850	19.0300
 2.2860	18.9820
 2.2870	18.9390
 2.2880	18.8980
 2.2890	18.8540
 2.2900	18.8150
 2.2910	18.7690
 2.2920	18.7150
 2.2930	18.6660
 2.2940	18.6150
 2.2950	18.5630
 2.2960	18.5110
 2.2970	18.4610
 2.2980	18.4080
 2.2990	18.3600
 2.3000	18.3130
 2.3010	18.2590
 2.3020	18.2080
 2.3030	18.1610
 2.3040	18.1190
 2.3050	18.0810
 2.3060	18.0410
 2.3070	17.9970
 2.3080	17.9540
 2.3090	17.9130
 2.3100	17.8730
 2.3110	17.8350
 2.3120	17.8030
 2.3130	17.7720
 2.3140	17.7460
 2.3150	17.7290
 2.3160	17.7050
 2.3170	17.6820
 2.3180	17.6540
 2.3190	17.6190
 2.3200	17.5920
 2.3210	17.5660
 2.3220	17.5360
 2.3230	17.5050
 2.3240	17.4790
 2.3250	17.4510
 2.3260	17.4240
 2.3270	17.4050
 2.3280	17.3760
 2.3290	17.3400
 2.3300	17.3040
 2.3310	17.2640
 2.3320	17.2240
 2.3330	17.1780
 2.3340	17.1390
 2.3350	17.1040
 2.3360	17.0680
 2.3370	17.0400
 2.3380	17.0010
 2.3390	16.9530
 2.3400	16.9100
 2.3410	16.8590
 2.3420	16.8170
 2.3430	16.7810
 2.3440	16.7460
 2.3450	16.7150
 2.3460	16.6820
 2.3470	16.6520
 2.3480	16.6190
 2.3490	16.5850
 2.3500	16.5490
 2.3510	16.5080
 2.3520	16.4730
 2.3530	16.4400
 2.3540	16.4080
 2.3550	16.3930
 2.3560	16.3690
 2.3570	16.3430
 2.3580	16.3180
 2.3590	16.2900
 2.3600	16.2590
 2.3610	16.2190
 2.3620	16.1940
 2.3630	16.1660
 2.3640	16.1310
 2.3650	16.1050
 2.3660	16.0750
 2.3670	16.0400
 2.3680	16.0040
 2.3690	15.9740
 2.3700	15.9370
 2.3710	15.8970
 2.3720	15.8590
 2.3730	15.8160
 2.3740	15.7800
 2.3750	15.7470
 2.3760	15.7070
 2.3770	15.6730
 2.3780	15.6350
 2.3790	15.5840
 2.3800	15.5480
 2.3810	15.5170
 2.3820	15.4790
 2.3830	15.4450
 2.3840	15.3960
 2.3850	15.3360
 2.3860	15.2790
 2.3870	15.2270
 2.3880	15.1870
 2.3890	15.1450
 2.3900	15.1080
 2.3910	15.0650
 2.3920	15.0070
 2.3930	14.9560
 2.3940	14.8990
 2.3950	14.8540
 2.3960	14.8090
 2.3970	14.7580
 2.3980	14.7140
 2.3990	14.6580
 2.4000	14.6010
 2.4010	14.5450
 2.4020	14.4870
 2.4030	14.4340
 2.4040	14.3830
 2.4050	14.3430
 2.4060	14.3050
 2.4070	14.2530
 2.4080	14.1990
 2.4090	14.1370
 2.4100	14.0670
 2.4110	14.0220
 2.4120	13.9780
 2.4130	13.9210
 2.4140	13.8740
 2.4150	13.8030
 2.4160	13.7370
 2.4170	13.6830
 2.4180	13.6110
 2.4190	13.5400
 2.4200	13.4750
 2.4210	13.4120
 2.4220	13.3560
 2.4230	13.3110
 2.4240	13.2710
 2.4250	13.2360
 2.4260	13.1970
 2.4270	13.1400
 2.4280	13.0810
 2.4290	13.0140
 2.4300	12.9520
 2.4310	12.8990
 2.4320	12.8420
 2.4330	12.7940
 2.4340	12.7390
 2.4350	12.6820
 2.4360	12.6220
 2.4370	12.5580
 2.4380	12.5050
 2.4390	12.4610
 2.4400	12.4170
 2.4410	12.3680
 2.4420	12.3090
 2.4430	12.2230
 2.4440	12.1450
 2.4450	12.0880
 2.4460	12.0430
 2.4470	12.0240
 2.4480	11.9910
 2.4490	11.9290
 2.4500	11.8730
 2.4510	11.8350
 2.4520	11.8210
 2.4530	11.8070
 2.4540	11.7600
 2.4550	11.6790
 2.4560	11.5760
 2.4570	11.4950
 2.4580	11.4480
 2.4590	11.4120
 2.4600	11.4000
 2.4610	11.3780
 2.4620	11.3370
 2.4630	11.2860
 2.4640	11.2400
 2.4650	11.2230
 2.4660	11.1900
 2.4670	11.1620
 2.4680	11.1370
 2.4690	11.0870
 2.4700	11.0380
 2.4710	10.9710
 2.4720	10.9260
 2.4730	10.8780
 2.4740	10.8390
 2.4750	10.8470
 2.4760	10.8220
 2.4770	10.7790
 2.4780	10.7500
 2.4790	10.6990
 2.4800	10.6650
 2.4810	10.6470
 2.4820	10.6050
 2.4830	10.5610
 2.4840	10.5450
 2.4850	10.5330
 2.4860	10.4830
 2.4870	10.4510
 2.4880	10.4240
 2.4890	10.3850
 2.4900	10.3830
 2.4910	10.4170
 2.4920	10.4000
 2.4930	10.3690
 2.4940	10.3980
 2.4950	10.3750
 2.4960	10.3240
 2.4970	10.3190
 2.4980	10.2770
 2.4990	10.2360
 2.5000	10.2610
