Name: Adenostoma fasciculatum 2
Type: vegetation
Class: Shrub
Genus: Adenostoma
Species: fasciculatum
Sample No.: VH114
Owner: UCSB
Wavelength Range: VSWIR
Origin: 34.5084; -119.7687; WGS84
Collection Date: 6/3/2013
Description: Samples were collected as part of the HyspIRI Airborne Campaign. 48 individual plants were sampled in three times in 2013 - spring  summer  and fall. The name of the sample includes a 1  2  or 3 which references a different individual of the species. Samples were taken to JPL and processed within 48 hours of collection. The same leaves were processed in the Nicolet and then measured using the ASD.
Measurement: Bidirectional reflectance
First Column: X
Second Column: Y
X Units: Wavelength (micrometers)
Y Units: Reflectance (percentage)
First X Value: 0.35
Last X Value: 2.5
Number of X Values: 2151
Additional Information: vegetation.shrub.adenostoma.fasciculatum.vswir.vh114.ucsb.asd.ancillary.txt

 0.3500	 1.9050
 0.3510	 2.0840
 0.3520	 2.1820
 0.3530	 2.1320
 0.3540	 2.0020
 0.3550	 1.9370
 0.3560	 1.9860
 0.3570	 2.0500
 0.3580	 1.9870
 0.3590	 1.9830
 0.3600	 2.0470
 0.3610	 2.1180
 0.3620	 2.0680
 0.3630	 2.0250
 0.3640	 2.0160
 0.3650	 2.0280
 0.3660	 2.0230
 0.3670	 2.0260
 0.3680	 2.0330
 0.3690	 2.0240
 0.3700	 2.0670
 0.3710	 2.0690
 0.3720	 2.0190
 0.3730	 2.0890
 0.3740	 2.1060
 0.3750	 2.0650
 0.3760	 2.0140
 0.3770	 1.9680
 0.3780	 1.9960
 0.3790	 2.0670
 0.3800	 2.0700
 0.3810	 2.0910
 0.3820	 2.0980
 0.3830	 2.0750
 0.3840	 2.0910
 0.3850	 2.1060
 0.3860	 2.1160
 0.3870	 2.1250
 0.3880	 2.0840
 0.3890	 2.0520
 0.3900	 2.0610
 0.3910	 2.1090
 0.3920	 2.1650
 0.3930	 2.1880
 0.3940	 2.1660
 0.3950	 2.1510
 0.3960	 2.1610
 0.3970	 2.1940
 0.3980	 2.2310
 0.3990	 2.2160
 0.4000	 2.2050
 0.4010	 2.2240
 0.4020	 2.2590
 0.4030	 2.3020
 0.4040	 2.3210
 0.4050	 2.3070
 0.4060	 2.3440
 0.4070	 2.3920
 0.4080	 2.4260
 0.4090	 2.4380
 0.4100	 2.4570
 0.4110	 2.4580
 0.4120	 2.4500
 0.4130	 2.5140
 0.4140	 2.5570
 0.4150	 2.5690
 0.4160	 2.5720
 0.4170	 2.5920
 0.4180	 2.6220
 0.4190	 2.6490
 0.4200	 2.6620
 0.4210	 2.6990
 0.4220	 2.7340
 0.4230	 2.7500
 0.4240	 2.7650
 0.4250	 2.7870
 0.4260	 2.8190
 0.4270	 2.8550
 0.4280	 2.8760
 0.4290	 2.8920
 0.4300	 2.9090
 0.4310	 2.9240
 0.4320	 2.9450
 0.4330	 2.9740
 0.4340	 3.0060
 0.4350	 3.0260
 0.4360	 3.0450
 0.4370	 3.0670
 0.4380	 3.0860
 0.4390	 3.0930
 0.4400	 3.1020
 0.4410	 3.1190
 0.4420	 3.1340
 0.4430	 3.1560
 0.4440	 3.1790
 0.4450	 3.1980
 0.4460	 3.2210
 0.4470	 3.2500
 0.4480	 3.2760
 0.4490	 3.2830
 0.4500	 3.3050
 0.4510	 3.3340
 0.4520	 3.3560
 0.4530	 3.3760
 0.4540	 3.3920
 0.4550	 3.4090
 0.4560	 3.4340
 0.4570	 3.4590
 0.4580	 3.4710
 0.4590	 3.4710
 0.4600	 3.4830
 0.4610	 3.5010
 0.4620	 3.5180
 0.4630	 3.5320
 0.4640	 3.5450
 0.4650	 3.5600
 0.4660	 3.5750
 0.4670	 3.5850
 0.4680	 3.5920
 0.4690	 3.6050
 0.4700	 3.6280
 0.4710	 3.6400
 0.4720	 3.6490
 0.4730	 3.6550
 0.4740	 3.6580
 0.4750	 3.6600
 0.4760	 3.6720
 0.4770	 3.6920
 0.4780	 3.7030
 0.4790	 3.7030
 0.4800	 3.7090
 0.4810	 3.7300
 0.4820	 3.7330
 0.4830	 3.7390
 0.4840	 3.7550
 0.4850	 3.7720
 0.4860	 3.7910
 0.4870	 3.8130
 0.4880	 3.8370
 0.4890	 3.8580
 0.4900	 3.8830
 0.4910	 3.9120
 0.4920	 3.9410
 0.4930	 3.9710
 0.4940	 4.0060
 0.4950	 4.0490
 0.4960	 4.1120
 0.4970	 4.1540
 0.4980	 4.1940
 0.4990	 4.2550
 0.5000	 4.3120
 0.5010	 4.3770
 0.5020	 4.4500
 0.5030	 4.5270
 0.5040	 4.6000
 0.5050	 4.6800
 0.5060	 4.7760
 0.5070	 4.8800
 0.5080	 4.9930
 0.5090	 5.1090
 0.5100	 5.2250
 0.5110	 5.3580
 0.5120	 5.5030
 0.5130	 5.6540
 0.5140	 5.8040
 0.5150	 5.9630
 0.5160	 6.1310
 0.5170	 6.3070
 0.5180	 6.4960
 0.5190	 6.6860
 0.5200	 6.8760
 0.5210	 7.0690
 0.5220	 7.2650
 0.5230	 7.4590
 0.5240	 7.6480
 0.5250	 7.8340
 0.5260	 8.0150
 0.5270	 8.1860
 0.5280	 8.3450
 0.5290	 8.4980
 0.5300	 8.6390
 0.5310	 8.7700
 0.5320	 8.9000
 0.5330	 9.0130
 0.5340	 9.1130
 0.5350	 9.2090
 0.5360	 9.2920
 0.5370	 9.3700
 0.5380	 9.4450
 0.5390	 9.5130
 0.5400	 9.5810
 0.5410	 9.6490
 0.5420	 9.7160
 0.5430	 9.7760
 0.5440	 9.8310
 0.5450	 9.8820
 0.5460	 9.9260
 0.5470	 9.9560
 0.5480	 9.9820
 0.5490	10.0100
 0.5500	10.0400
 0.5510	10.0690
 0.5520	10.0850
 0.5530	10.0850
 0.5540	10.0810
 0.5550	10.0660
 0.5560	10.0360
 0.5570	 9.9940
 0.5580	 9.9470
 0.5590	 9.8940
 0.5600	 9.8350
 0.5610	 9.7700
 0.5620	 9.6990
 0.5630	 9.6240
 0.5640	 9.5520
 0.5650	 9.4730
 0.5660	 9.3880
 0.5670	 9.2960
 0.5680	 9.1970
 0.5690	 9.0950
 0.5700	 8.9910
 0.5710	 8.8840
 0.5720	 8.7830
 0.5730	 8.6820
 0.5740	 8.5850
 0.5750	 8.4990
 0.5760	 8.4140
 0.5770	 8.3320
 0.5780	 8.2550
 0.5790	 8.1820
 0.5800	 8.1150
 0.5810	 8.0550
 0.5820	 8.0020
 0.5830	 7.9490
 0.5840	 7.9000
 0.5850	 7.8550
 0.5860	 7.8080
 0.5870	 7.7720
 0.5880	 7.7380
 0.5890	 7.6990
 0.5900	 7.6710
 0.5910	 7.6460
 0.5920	 7.6230
 0.5930	 7.6040
 0.5940	 7.5880
 0.5950	 7.5770
 0.5960	 7.5670
 0.5970	 7.5540
 0.5980	 7.5420
 0.5990	 7.5290
 0.6000	 7.5100
 0.6010	 7.4900
 0.6020	 7.4650
 0.6030	 7.4380
 0.6040	 7.4080
 0.6050	 7.3750
 0.6060	 7.3360
 0.6070	 7.2920
 0.6080	 7.2460
 0.6090	 7.2000
 0.6100	 7.1590
 0.6110	 7.1230
 0.6120	 7.0650
 0.6130	 7.0000
 0.6140	 6.9380
 0.6150	 6.8760
 0.6160	 6.8230
 0.6170	 6.7760
 0.6180	 6.7340
 0.6190	 6.6960
 0.6200	 6.6630
 0.6210	 6.6350
 0.6220	 6.6060
 0.6230	 6.5850
 0.6240	 6.5690
 0.6250	 6.5540
 0.6260	 6.5490
 0.6270	 6.5440
 0.6280	 6.5390
 0.6290	 6.5390
 0.6300	 6.5410
 0.6310	 6.5400
 0.6320	 6.5320
 0.6330	 6.5220
 0.6340	 6.5100
 0.6350	 6.4910
 0.6360	 6.4610
 0.6370	 6.4240
 0.6380	 6.3810
 0.6390	 6.3330
 0.6400	 6.2820
 0.6410	 6.2280
 0.6420	 6.1700
 0.6430	 6.1100
 0.6440	 6.0470
 0.6450	 5.9820
 0.6460	 5.9130
 0.6470	 5.8450
 0.6480	 5.7870
 0.6490	 5.7390
 0.6500	 5.6980
 0.6510	 5.6580
 0.6520	 5.6220
 0.6530	 5.5890
 0.6540	 5.5590
 0.6550	 5.5240
 0.6560	 5.4870
 0.6570	 5.4450
 0.6580	 5.3930
 0.6590	 5.3360
 0.6600	 5.2760
 0.6610	 5.2140
 0.6620	 5.1540
 0.6630	 5.0940
 0.6640	 5.0380
 0.6650	 4.9870
 0.6660	 4.9390
 0.6670	 4.8970
 0.6680	 4.8610
 0.6690	 4.8330
 0.6700	 4.8130
 0.6710	 4.7980
 0.6720	 4.7910
 0.6730	 4.7910
 0.6740	 4.7910
 0.6750	 4.7980
 0.6760	 4.8150
 0.6770	 4.8300
 0.6780	 4.8530
 0.6790	 4.8870
 0.6800	 4.9290
 0.6810	 4.9790
 0.6820	 5.0410
 0.6830	 5.1160
 0.6840	 5.2140
 0.6850	 5.3280
 0.6860	 5.4640
 0.6870	 5.6290
 0.6880	 5.8180
 0.6890	 6.0410
 0.6900	 6.3020
 0.6910	 6.6010
 0.6920	 6.9450
 0.6930	 7.3390
 0.6940	 7.7810
 0.6950	 8.2670
 0.6960	 8.7920
 0.6970	 9.3580
 0.6980	 9.9680
 0.6990	10.6090
 0.7000	11.2790
 0.7010	11.9750
 0.7020	12.6910
 0.7030	13.4230
 0.7040	14.1660
 0.7050	14.9180
 0.7060	15.6790
 0.7070	16.4470
 0.7080	17.2220
 0.7090	18.0080
 0.7100	18.8020
 0.7110	19.6030
 0.7120	20.4140
 0.7130	21.2360
 0.7140	22.0660
 0.7150	22.9060
 0.7160	23.7520
 0.7170	24.6040
 0.7180	25.4570
 0.7190	26.3120
 0.7200	27.1690
 0.7210	28.0270
 0.7220	28.8810
 0.7230	29.7270
 0.7240	30.5580
 0.7250	31.3760
 0.7260	32.1760
 0.7270	32.9550
 0.7280	33.7190
 0.7290	34.4590
 0.7300	35.1710
 0.7310	35.8560
 0.7320	36.5160
 0.7330	37.1480
 0.7340	37.7490
 0.7350	38.3210
 0.7360	38.8640
 0.7370	39.3800
 0.7380	39.8690
 0.7390	40.3310
 0.7400	40.7640
 0.7410	41.1710
 0.7420	41.5560
 0.7430	41.9110
 0.7440	42.2410
 0.7450	42.5500
 0.7460	42.8410
 0.7470	43.1040
 0.7480	43.3460
 0.7490	43.5730
 0.7500	43.7820
 0.7510	43.9740
 0.7520	44.1510
 0.7530	44.3140
 0.7540	44.4650
 0.7550	44.6020
 0.7560	44.7260
 0.7570	44.8450
 0.7580	44.9550
 0.7590	45.0560
 0.7600	45.1500
 0.7610	45.2420
 0.7620	45.3210
 0.7630	45.3930
 0.7640	45.4650
 0.7650	45.5310
 0.7660	45.5940
 0.7670	45.6540
 0.7680	45.7100
 0.7690	45.7620
 0.7700	45.8110
 0.7710	45.8590
 0.7720	45.9070
 0.7730	45.9520
 0.7740	45.9940
 0.7750	46.0350
 0.7760	46.0770
 0.7770	46.1180
 0.7780	46.1580
 0.7790	46.1960
 0.7800	46.2330
 0.7810	46.2730
 0.7820	46.3140
 0.7830	46.3500
 0.7840	46.3870
 0.7850	46.4250
 0.7860	46.4610
 0.7870	46.4950
 0.7880	46.5290
 0.7890	46.5630
 0.7900	46.5950
 0.7910	46.6240
 0.7920	46.6550
 0.7930	46.6880
 0.7940	46.7160
 0.7950	46.7450
 0.7960	46.7720
 0.7970	46.7990
 0.7980	46.8310
 0.7990	46.8560
 0.8000	46.8790
 0.8010	46.9070
 0.8020	46.9340
 0.8030	46.9530
 0.8040	46.9710
 0.8050	47.0000
 0.8060	47.0200
 0.8070	47.0400
 0.8080	47.0610
 0.8090	47.0750
 0.8100	47.0910
 0.8110	47.1100
 0.8120	47.1300
 0.8130	47.1430
 0.8140	47.1570
 0.8150	47.1710
 0.8160	47.1840
 0.8170	47.2000
 0.8180	47.2150
 0.8190	47.2280
 0.8200	47.2410
 0.8210	47.2520
 0.8220	47.2650
 0.8230	47.2780
 0.8240	47.2850
 0.8250	47.2890
 0.8260	47.2920
 0.8270	47.2950
 0.8280	47.2990
 0.8290	47.3050
 0.8300	47.3080
 0.8310	47.3070
 0.8320	47.3190
 0.8330	47.3260
 0.8340	47.3270
 0.8350	47.3290
 0.8360	47.3390
 0.8370	47.3510
 0.8380	47.3620
 0.8390	47.3740
 0.8400	47.3800
 0.8410	47.3920
 0.8420	47.4110
 0.8430	47.4190
 0.8440	47.4350
 0.8450	47.4510
 0.8460	47.4630
 0.8470	47.4780
 0.8480	47.4950
 0.8490	47.5100
 0.8500	47.5210
 0.8510	47.5340
 0.8520	47.5510
 0.8530	47.5670
 0.8540	47.5770
 0.8550	47.5920
 0.8560	47.6080
 0.8570	47.6240
 0.8580	47.6430
 0.8590	47.6550
 0.8600	47.6680
 0.8610	47.6850
 0.8620	47.6950
 0.8630	47.7090
 0.8640	47.7210
 0.8650	47.7290
 0.8660	47.7450
 0.8670	47.7610
 0.8680	47.7760
 0.8690	47.7930
 0.8700	47.8070
 0.8710	47.8200
 0.8720	47.8330
 0.8730	47.8470
 0.8740	47.8640
 0.8750	47.8810
 0.8760	47.8940
 0.8770	47.9060
 0.8780	47.9230
 0.8790	47.9350
 0.8800	47.9400
 0.8810	47.9540
 0.8820	47.9610
 0.8830	47.9680
 0.8840	47.9810
 0.8850	47.9940
 0.8860	48.0040
 0.8870	48.0150
 0.8880	48.0270
 0.8890	48.0310
 0.8900	48.0350
 0.8910	48.0390
 0.8920	48.0420
 0.8930	48.0420
 0.8940	48.0510
 0.8950	48.0640
 0.8960	48.0650
 0.8970	48.0650
 0.8980	48.0680
 0.8990	48.0760
 0.9000	48.0870
 0.9010	48.0910
 0.9020	48.0930
 0.9030	48.0970
 0.9040	48.0970
 0.9050	48.1050
 0.9060	48.1080
 0.9070	48.0990
 0.9080	48.0950
 0.9090	48.1050
 0.9100	48.1140
 0.9110	48.1100
 0.9120	48.1120
 0.9130	48.1150
 0.9140	48.1180
 0.9150	48.1180
 0.9160	48.1160
 0.9170	48.1110
 0.9180	48.1090
 0.9190	48.1160
 0.9200	48.1100
 0.9210	48.1000
 0.9220	48.0910
 0.9230	48.0810
 0.9240	48.0610
 0.9250	48.0470
 0.9260	48.0310
 0.9270	47.9970
 0.9280	47.9750
 0.9290	47.9550
 0.9300	47.9310
 0.9310	47.9050
 0.9320	47.8690
 0.9330	47.8320
 0.9340	47.7980
 0.9350	47.7630
 0.9360	47.7170
 0.9370	47.6650
 0.9380	47.6100
 0.9390	47.5520
 0.9400	47.5110
 0.9410	47.4680
 0.9420	47.4100
 0.9430	47.3410
 0.9440	47.2640
 0.9450	47.1880
 0.9460	47.1110
 0.9470	47.0170
 0.9480	46.9190
 0.9490	46.8130
 0.9500	46.6950
 0.9510	46.5760
 0.9520	46.4500
 0.9530	46.3160
 0.9540	46.1760
 0.9550	46.0260
 0.9560	45.8940
 0.9570	45.7710
 0.9580	45.6420
 0.9590	45.5180
 0.9600	45.4100
 0.9610	45.3140
 0.9620	45.2250
 0.9630	45.1390
 0.9640	45.0680
 0.9650	45.0080
 0.9660	44.9470
 0.9670	44.8930
 0.9680	44.8510
 0.9690	44.8160
 0.9700	44.7790
 0.9710	44.7420
 0.9720	44.7140
 0.9730	44.6940
 0.9740	44.6780
 0.9750	44.6690
 0.9760	44.6470
 0.9770	44.6180
 0.9780	44.6000
 0.9790	44.6140
 0.9800	44.6100
 0.9810	44.5990
 0.9820	44.6120
 0.9830	44.6200
 0.9840	44.6390
 0.9850	44.6700
 0.9860	44.7020
 0.9870	44.7200
 0.9880	44.7440
 0.9890	44.7850
 0.9900	44.8360
 0.9910	44.8560
 0.9920	44.9410
 0.9930	45.0260
 0.9940	45.1110
 0.9950	45.1970
 0.9960	45.2820
 0.9970	45.3670
 0.9980	45.4530
 0.9990	45.5380
 1.0000	45.6230
 1.0010	45.7080
 1.0020	45.7940
 1.0030	45.8790
 1.0040	45.9640
 1.0050	46.0500
 1.0060	46.1350
 1.0070	46.2200
 1.0080	46.3050
 1.0090	46.3910
 1.0100	46.3910
 1.0110	46.4480
 1.0120	46.5110
 1.0130	46.5790
 1.0140	46.6430
 1.0150	46.7070
 1.0160	46.7710
 1.0170	46.8300
 1.0180	46.8940
 1.0190	46.9600
 1.0200	47.0220
 1.0210	47.0860
 1.0220	47.1470
 1.0230	47.2060
 1.0240	47.2620
 1.0250	47.3210
 1.0260	47.3820
 1.0270	47.4390
 1.0280	47.4930
 1.0290	47.5500
 1.0300	47.6090
 1.0310	47.6640
 1.0320	47.7190
 1.0330	47.7760
 1.0340	47.8290
 1.0350	47.8780
 1.0360	47.9300
 1.0370	47.9840
 1.0380	48.0370
 1.0390	48.0900
 1.0400	48.1390
 1.0410	48.1860
 1.0420	48.2310
 1.0430	48.2710
 1.0440	48.3120
 1.0450	48.3510
 1.0460	48.3910
 1.0470	48.4310
 1.0480	48.4700
 1.0490	48.5130
 1.0500	48.5510
 1.0510	48.5870
 1.0520	48.6220
 1.0530	48.6530
 1.0540	48.6770
 1.0550	48.7080
 1.0560	48.7370
 1.0570	48.7660
 1.0580	48.8010
 1.0590	48.8270
 1.0600	48.8480
 1.0610	48.8710
 1.0620	48.8900
 1.0630	48.9110
 1.0640	48.9330
 1.0650	48.9520
 1.0660	48.9700
 1.0670	48.9860
 1.0680	49.0000
 1.0690	49.0100
 1.0700	49.0230
 1.0710	49.0380
 1.0720	49.0490
 1.0730	49.0600
 1.0740	49.0680
 1.0750	49.0720
 1.0760	49.0760
 1.0770	49.0830
 1.0780	49.0840
 1.0790	49.0800
 1.0800	49.0800
 1.0810	49.0810
 1.0820	49.0780
 1.0830	49.0780
 1.0840	49.0750
 1.0850	49.0670
 1.0860	49.0580
 1.0870	49.0480
 1.0880	49.0370
 1.0890	49.0260
 1.0900	49.0140
 1.0910	49.0010
 1.0920	48.9890
 1.0930	48.9740
 1.0940	48.9580
 1.0950	48.9390
 1.0960	48.9180
 1.0970	48.8970
 1.0980	48.8720
 1.0990	48.8480
 1.1000	48.8260
 1.1010	48.8000
 1.1020	48.7710
 1.1030	48.7420
 1.1040	48.7100
 1.1050	48.6770
 1.1060	48.6480
 1.1070	48.6230
 1.1080	48.5930
 1.1090	48.5620
 1.1100	48.5270
 1.1110	48.4880
 1.1120	48.4470
 1.1130	48.4070
 1.1140	48.3600
 1.1150	48.3110
 1.1160	48.2560
 1.1170	48.1990
 1.1180	48.1340
 1.1190	48.0660
 1.1200	47.9900
 1.1210	47.9100
 1.1220	47.8190
 1.1230	47.7190
 1.1240	47.6130
 1.1250	47.4950
 1.1260	47.3690
 1.1270	47.2290
 1.1280	47.0810
 1.1290	46.9160
 1.1300	46.7380
 1.1310	46.5460
 1.1320	46.3410
 1.1330	46.1230
 1.1340	45.8920
 1.1350	45.6480
 1.1360	45.3920
 1.1370	45.1220
 1.1380	44.8420
 1.1390	44.5570
 1.1400	44.2630
 1.1410	43.9650
 1.1420	43.6650
 1.1430	43.3610
 1.1440	43.0600
 1.1450	42.7580
 1.1460	42.4650
 1.1470	42.1710
 1.1480	41.8910
 1.1490	41.6160
 1.1500	41.3580
 1.1510	41.1090
 1.1520	40.8740
 1.1530	40.6520
 1.1540	40.4470
 1.1550	40.2560
 1.1560	40.0790
 1.1570	39.9200
 1.1580	39.7720
 1.1590	39.6370
 1.1600	39.5140
 1.1610	39.4000
 1.1620	39.2970
 1.1630	39.2030
 1.1640	39.1190
 1.1650	39.0430
 1.1660	38.9790
 1.1670	38.9160
 1.1680	38.8600
 1.1690	38.8040
 1.1700	38.7510
 1.1710	38.7000
 1.1720	38.6530
 1.1730	38.6040
 1.1740	38.5560
 1.1750	38.5060
 1.1760	38.4580
 1.1770	38.4100
 1.1780	38.3600
 1.1790	38.3110
 1.1800	38.2590
 1.1810	38.2060
 1.1820	38.1550
 1.1830	38.1050
 1.1840	38.0570
 1.1850	38.0110
 1.1860	37.9650
 1.1870	37.9220
 1.1880	37.8830
 1.1890	37.8450
 1.1900	37.8120
 1.1910	37.7840
 1.1920	37.7580
 1.1930	37.7330
 1.1940	37.7120
 1.1950	37.6920
 1.1960	37.6770
 1.1970	37.6650
 1.1980	37.6570
 1.1990	37.6540
 1.2000	37.6550
 1.2010	37.6590
 1.2020	37.6680
 1.2030	37.6810
 1.2040	37.6990
 1.2050	37.7230
 1.2060	37.7520
 1.2070	37.7870
 1.2080	37.8250
 1.2090	37.8650
 1.2100	37.9100
 1.2110	37.9600
 1.2120	38.0140
 1.2130	38.0730
 1.2140	38.1380
 1.2150	38.2030
 1.2160	38.2730
 1.2170	38.3430
 1.2180	38.4140
 1.2190	38.4900
 1.2200	38.5630
 1.2210	38.6390
 1.2220	38.7170
 1.2230	38.7920
 1.2240	38.8700
 1.2250	38.9470
 1.2260	39.0210
 1.2270	39.0940
 1.2280	39.1660
 1.2290	39.2360
 1.2300	39.3020
 1.2310	39.3670
 1.2320	39.4290
 1.2330	39.4900
 1.2340	39.5480
 1.2350	39.6060
 1.2360	39.6610
 1.2370	39.7130
 1.2380	39.7650
 1.2390	39.8150
 1.2400	39.8630
 1.2410	39.9120
 1.2420	39.9580
 1.2430	40.0040
 1.2440	40.0490
 1.2450	40.0930
 1.2460	40.1350
 1.2470	40.1770
 1.2480	40.2160
 1.2490	40.2540
 1.2500	40.2900
 1.2510	40.3240
 1.2520	40.3580
 1.2530	40.3890
 1.2540	40.4180
 1.2550	40.4440
 1.2560	40.4710
 1.2570	40.4960
 1.2580	40.5190
 1.2590	40.5410
 1.2600	40.5620
 1.2610	40.5790
 1.2620	40.5930
 1.2630	40.6090
 1.2640	40.6210
 1.2650	40.6320
 1.2660	40.6420
 1.2670	40.6470
 1.2680	40.6520
 1.2690	40.6570
 1.2700	40.6560
 1.2710	40.6520
 1.2720	40.6480
 1.2730	40.6410
 1.2740	40.6340
 1.2750	40.6270
 1.2760	40.6170
 1.2770	40.6030
 1.2780	40.5880
 1.2790	40.5720
 1.2800	40.5500
 1.2810	40.5270
 1.2820	40.5000
 1.2830	40.4690
 1.2840	40.4370
 1.2850	40.4010
 1.2860	40.3600
 1.2870	40.3160
 1.2880	40.2710
 1.2890	40.2200
 1.2900	40.1660
 1.2910	40.1100
 1.2920	40.0480
 1.2930	39.9810
 1.2940	39.9100
 1.2950	39.8370
 1.2960	39.7590
 1.2970	39.6790
 1.2980	39.5930
 1.2990	39.5010
 1.3000	39.4080
 1.3010	39.3110
 1.3020	39.2080
 1.3030	39.0990
 1.3040	38.9850
 1.3050	38.8670
 1.3060	38.7450
 1.3070	38.6150
 1.3080	38.4820
 1.3090	38.3440
 1.3100	38.2020
 1.3110	38.0580
 1.3120	37.9070
 1.3130	37.7510
 1.3140	37.5910
 1.3150	37.4240
 1.3160	37.2540
 1.3170	37.0830
 1.3180	36.9050
 1.3190	36.7230
 1.3200	36.5370
 1.3210	36.3440
 1.3220	36.1480
 1.3230	35.9470
 1.3240	35.7440
 1.3250	35.5430
 1.3260	35.3360
 1.3270	35.1270
 1.3280	34.9150
 1.3290	34.6990
 1.3300	34.4810
 1.3310	34.2610
 1.3320	34.0410
 1.3330	33.8200
 1.3340	33.6010
 1.3350	33.3820
 1.3360	33.1650
 1.3370	32.9470
 1.3380	32.7300
 1.3390	32.5180
 1.3400	32.3060
 1.3410	32.0970
 1.3420	31.8930
 1.3430	31.6900
 1.3440	31.4900
 1.3450	31.2930
 1.3460	31.0980
 1.3470	30.9070
 1.3480	30.7190
 1.3490	30.5350
 1.3500	30.3560
 1.3510	30.1790
 1.3520	30.0040
 1.3530	29.8310
 1.3540	29.6590
 1.3550	29.4870
 1.3560	29.3150
 1.3570	29.1440
 1.3580	28.9740
 1.3590	28.8040
 1.3600	28.6320
 1.3610	28.4570
 1.3620	28.2780
 1.3630	28.0940
 1.3640	27.9050
 1.3650	27.7090
 1.3660	27.5090
 1.3670	27.3010
 1.3680	27.0820
 1.3690	26.8530
 1.3700	26.6100
 1.3710	26.3580
 1.3720	26.0930
 1.3730	25.8120
 1.3740	25.5190
 1.3750	25.2090
 1.3760	24.8780
 1.3770	24.5300
 1.3780	24.1610
 1.3790	23.7730
 1.3800	23.3700
 1.3810	22.9460
 1.3820	22.5110
 1.3830	22.0610
 1.3840	21.6030
 1.3850	21.1310
 1.3860	20.6560
 1.3870	20.1700
 1.3880	19.6870
 1.3890	19.2010
 1.3900	18.7130
 1.3910	18.2330
 1.3920	17.7540
 1.3930	17.2780
 1.3940	16.8130
 1.3950	16.3520
 1.3960	15.9030
 1.3970	15.4690
 1.3980	15.0470
 1.3990	14.6460
 1.4000	14.2600
 1.4010	13.8870
 1.4020	13.5330
 1.4030	13.1930
 1.4040	12.8690
 1.4050	12.5660
 1.4060	12.2770
 1.4070	12.0080
 1.4080	11.7550
 1.4090	11.5160
 1.4100	11.2940
 1.4110	11.0850
 1.4120	10.8900
 1.4130	10.7080
 1.4140	10.5380
 1.4150	10.3820
 1.4160	10.2380
 1.4170	10.1020
 1.4180	 9.9770
 1.4190	 9.8610
 1.4200	 9.7510
 1.4210	 9.6500
 1.4220	 9.5580
 1.4230	 9.4720
 1.4240	 9.3940
 1.4250	 9.3210
 1.4260	 9.2550
 1.4270	 9.1930
 1.4280	 9.1380
 1.4290	 9.0860
 1.4300	 9.0380
 1.4310	 8.9950
 1.4320	 8.9560
 1.4330	 8.9210
 1.4340	 8.8900
 1.4350	 8.8610
 1.4360	 8.8360
 1.4370	 8.8130
 1.4380	 8.7930
 1.4390	 8.7770
 1.4400	 8.7630
 1.4410	 8.7510
 1.4420	 8.7430
 1.4430	 8.7350
 1.4440	 8.7290
 1.4450	 8.7260
 1.4460	 8.7230
 1.4470	 8.7220
 1.4480	 8.7230
 1.4490	 8.7240
 1.4500	 8.7260
 1.4510	 8.7290
 1.4520	 8.7340
 1.4530	 8.7410
 1.4540	 8.7500
 1.4550	 8.7600
 1.4560	 8.7710
 1.4570	 8.7830
 1.4580	 8.7970
 1.4590	 8.8130
 1.4600	 8.8310
 1.4610	 8.8520
 1.4620	 8.8760
 1.4630	 8.9010
 1.4640	 8.9290
 1.4650	 8.9590
 1.4660	 8.9920
 1.4670	 9.0270
 1.4680	 9.0660
 1.4690	 9.1080
 1.4700	 9.1520
 1.4710	 9.1990
 1.4720	 9.2480
 1.4730	 9.2980
 1.4740	 9.3500
 1.4750	 9.4050
 1.4760	 9.4630
 1.4770	 9.5220
 1.4780	 9.5830
 1.4790	 9.6460
 1.4800	 9.7090
 1.4810	 9.7730
 1.4820	 9.8400
 1.4830	 9.9070
 1.4840	 9.9770
 1.4850	10.0470
 1.4860	10.1180
 1.4870	10.1900
 1.4880	10.2630
 1.4890	10.3360
 1.4900	10.4100
 1.4910	10.4850
 1.4920	10.5600
 1.4930	10.6350
 1.4940	10.7110
 1.4950	10.7870
 1.4960	10.8650
 1.4970	10.9430
 1.4980	11.0210
 1.4990	11.0980
 1.5000	11.1770
 1.5010	11.2550
 1.5020	11.3340
 1.5030	11.4160
 1.5040	11.4960
 1.5050	11.5760
 1.5060	11.6560
 1.5070	11.7350
 1.5080	11.8150
 1.5090	11.8950
 1.5100	11.9740
 1.5110	12.0550
 1.5120	12.1360
 1.5130	12.2160
 1.5140	12.2970
 1.5150	12.3770
 1.5160	12.4560
 1.5170	12.5350
 1.5180	12.6140
 1.5190	12.6920
 1.5200	12.7710
 1.5210	12.8470
 1.5220	12.9240
 1.5230	13.0020
 1.5240	13.0780
 1.5250	13.1550
 1.5260	13.2300
 1.5270	13.3060
 1.5280	13.3810
 1.5290	13.4560
 1.5300	13.5310
 1.5310	13.6050
 1.5320	13.6790
 1.5330	13.7510
 1.5340	13.8230
 1.5350	13.8950
 1.5360	13.9670
 1.5370	14.0380
 1.5380	14.1100
 1.5390	14.1810
 1.5400	14.2500
 1.5410	14.3210
 1.5420	14.3900
 1.5430	14.4580
 1.5440	14.5270
 1.5450	14.5940
 1.5460	14.6610
 1.5470	14.7280
 1.5480	14.7940
 1.5490	14.8600
 1.5500	14.9260
 1.5510	14.9920
 1.5520	15.0570
 1.5530	15.1210
 1.5540	15.1850
 1.5550	15.2490
 1.5560	15.3120
 1.5570	15.3750
 1.5580	15.4380
 1.5590	15.5000
 1.5600	15.5620
 1.5610	15.6230
 1.5620	15.6820
 1.5630	15.7420
 1.5640	15.8010
 1.5650	15.8610
 1.5660	15.9200
 1.5670	15.9810
 1.5680	16.0400
 1.5690	16.0990
 1.5700	16.1580
 1.5710	16.2160
 1.5720	16.2740
 1.5730	16.3340
 1.5740	16.3920
 1.5750	16.4480
 1.5760	16.5040
 1.5770	16.5600
 1.5780	16.6160
 1.5790	16.6740
 1.5800	16.7320
 1.5810	16.7890
 1.5820	16.8460
 1.5830	16.9010
 1.5840	16.9570
 1.5850	17.0130
 1.5860	17.0690
 1.5870	17.1260
 1.5880	17.1820
 1.5890	17.2370
 1.5900	17.2930
 1.5910	17.3470
 1.5920	17.4040
 1.5930	17.4590
 1.5940	17.5140
 1.5950	17.5690
 1.5960	17.6240
 1.5970	17.6790
 1.5980	17.7330
 1.5990	17.7870
 1.6000	17.8410
 1.6010	17.8940
 1.6020	17.9480
 1.6030	18.0020
 1.6040	18.0550
 1.6050	18.1080
 1.6060	18.1610
 1.6070	18.2130
 1.6080	18.2640
 1.6090	18.3140
 1.6100	18.3630
 1.6110	18.4120
 1.6120	18.4610
 1.6130	18.5100
 1.6140	18.5580
 1.6150	18.6050
 1.6160	18.6530
 1.6170	18.6990
 1.6180	18.7430
 1.6190	18.7880
 1.6200	18.8310
 1.6210	18.8740
 1.6220	18.9170
 1.6230	18.9580
 1.6240	18.9990
 1.6250	19.0380
 1.6260	19.0780
 1.6270	19.1180
 1.6280	19.1580
 1.6290	19.1960
 1.6300	19.2320
 1.6310	19.2680
 1.6320	19.3010
 1.6330	19.3350
 1.6340	19.3680
 1.6350	19.4000
 1.6360	19.4320
 1.6370	19.4620
 1.6380	19.4920
 1.6390	19.5180
 1.6400	19.5430
 1.6410	19.5660
 1.6420	19.5870
 1.6430	19.6060
 1.6440	19.6240
 1.6450	19.6390
 1.6460	19.6510
 1.6470	19.6620
 1.6480	19.6690
 1.6490	19.6740
 1.6500	19.6770
 1.6510	19.6760
 1.6520	19.6740
 1.6530	19.6700
 1.6540	19.6640
 1.6550	19.6580
 1.6560	19.6490
 1.6570	19.6390
 1.6580	19.6270
 1.6590	19.6120
 1.6600	19.5970
 1.6610	19.5830
 1.6620	19.5690
 1.6630	19.5570
 1.6640	19.5470
 1.6650	19.5350
 1.6660	19.5240
 1.6670	19.5130
 1.6680	19.5030
 1.6690	19.4920
 1.6700	19.4810
 1.6710	19.4700
 1.6720	19.4580
 1.6730	19.4460
 1.6740	19.4330
 1.6750	19.4160
 1.6760	19.3970
 1.6770	19.3780
 1.6780	19.3560
 1.6790	19.3320
 1.6800	19.3070
 1.6810	19.2780
 1.6820	19.2470
 1.6830	19.2150
 1.6840	19.1800
 1.6850	19.1430
 1.6860	19.1020
 1.6870	19.0590
 1.6880	19.0140
 1.6890	18.9660
 1.6900	18.9180
 1.6910	18.8680
 1.6920	18.8170
 1.6930	18.7660
 1.6940	18.7130
 1.6950	18.6580
 1.6960	18.6040
 1.6970	18.5490
 1.6980	18.4930
 1.6990	18.4370
 1.7000	18.3810
 1.7010	18.3260
 1.7020	18.2710
 1.7030	18.2180
 1.7040	18.1630
 1.7050	18.1070
 1.7060	18.0530
 1.7070	17.9990
 1.7080	17.9480
 1.7090	17.8990
 1.7100	17.8500
 1.7110	17.8040
 1.7120	17.7590
 1.7130	17.7150
 1.7140	17.6720
 1.7150	17.6310
 1.7160	17.5900
 1.7170	17.5510
 1.7180	17.5130
 1.7190	17.4770
 1.7200	17.4440
 1.7210	17.4100
 1.7220	17.3770
 1.7230	17.3460
 1.7240	17.3150
 1.7250	17.2850
 1.7260	17.2600
 1.7270	17.2360
 1.7280	17.2130
 1.7290	17.1940
 1.7300	17.1750
 1.7310	17.1560
 1.7320	17.1410
 1.7330	17.1230
 1.7340	17.1070
 1.7350	17.0880
 1.7360	17.0690
 1.7370	17.0460
 1.7380	17.0210
 1.7390	16.9930
 1.7400	16.9620
 1.7410	16.9280
 1.7420	16.8910
 1.7430	16.8520
 1.7440	16.8090
 1.7450	16.7670
 1.7460	16.7220
 1.7470	16.6780
 1.7480	16.6330
 1.7490	16.5880
 1.7500	16.5420
 1.7510	16.4980
 1.7520	16.4530
 1.7530	16.4110
 1.7540	16.3710
 1.7550	16.3330
 1.7560	16.2980
 1.7570	16.2620
 1.7580	16.2290
 1.7590	16.1980
 1.7600	16.1670
 1.7610	16.1390
 1.7620	16.1120
 1.7630	16.0860
 1.7640	16.0620
 1.7650	16.0390
 1.7660	16.0180
 1.7670	16.0000
 1.7680	15.9810
 1.7690	15.9640
 1.7700	15.9460
 1.7710	15.9260
 1.7720	15.9090
 1.7730	15.8940
 1.7740	15.8790
 1.7750	15.8660
 1.7760	15.8520
 1.7770	15.8370
 1.7780	15.8230
 1.7790	15.8080
 1.7800	15.7960
 1.7810	15.7850
 1.7820	15.7770
 1.7830	15.7710
 1.7840	15.7650
 1.7850	15.7600
 1.7860	15.7560
 1.7870	15.7520
 1.7880	15.7510
 1.7890	15.7510
 1.7900	15.7490
 1.7910	15.7500
 1.7920	15.7520
 1.7930	15.7540
 1.7940	15.7580
 1.7950	15.7650
 1.7960	15.7740
 1.7970	15.7820
 1.7980	15.7900
 1.7990	15.7990
 1.8000	15.8050
 1.8010	15.8140
 1.8020	15.8260
 1.8030	15.8380
 1.8040	15.8500
 1.8050	15.8610
 1.8060	15.8720
 1.8070	15.8810
 1.8080	15.8900
 1.8090	15.9000
 1.8100	15.9090
 1.8110	15.9180
 1.8120	15.9290
 1.8130	15.9390
 1.8140	15.9470
 1.8150	15.9520
 1.8160	15.9570
 1.8170	15.9620
 1.8180	15.9660
 1.8190	15.9750
 1.8200	15.9810
 1.8210	15.9870
 1.8220	15.9910
 1.8230	15.9920
 1.8240	15.9930
 1.8250	15.9930
 1.8260	15.9940
 1.8270	15.9910
 1.8280	15.9880
 1.8290	15.9860
 1.8300	15.9830
 1.8310	15.9810
 1.8320	15.9780
 1.8330	15.9750
 1.8340	15.9730
 1.8350	15.9730
 1.8360	15.9530
 1.8370	15.9280
 1.8380	15.9020
 1.8390	15.8710
 1.8400	15.8360
 1.8410	15.7960
 1.8420	15.7520
 1.8430	15.7050
 1.8440	15.6500
 1.8450	15.5900
 1.8460	15.5260
 1.8470	15.4570
 1.8480	15.3810
 1.8490	15.2980
 1.8500	15.2090
 1.8510	15.1150
 1.8520	15.0100
 1.8530	14.8960
 1.8540	14.7780
 1.8550	14.6450
 1.8560	14.5030
 1.8570	14.3540
 1.8580	14.1950
 1.8590	14.0280
 1.8600	13.8530
 1.8610	13.6700
 1.8620	13.4750
 1.8630	13.2720
 1.8640	13.0580
 1.8650	12.8350
 1.8660	12.6000
 1.8670	12.3510
 1.8680	12.0950
 1.8690	11.8300
 1.8700	11.5530
 1.8710	11.2660
 1.8720	10.9740
 1.8730	10.6750
 1.8740	10.3720
 1.8750	10.0690
 1.8760	 9.7610
 1.8770	 9.4540
 1.8780	 9.1480
 1.8790	 8.8410
 1.8800	 8.5400
 1.8810	 8.2450
 1.8820	 7.9520
 1.8830	 7.6590
 1.8840	 7.3730
 1.8850	 7.0920
 1.8860	 6.8180
 1.8870	 6.5540
 1.8880	 6.2980
 1.8890	 6.0520
 1.8900	 5.8140
 1.8910	 5.5900
 1.8920	 5.3740
 1.8930	 5.1740
 1.8940	 4.9840
 1.8950	 4.8080
 1.8960	 4.6440
 1.8970	 4.4890
 1.8980	 4.3450
 1.8990	 4.2110
 1.9000	 4.0880
 1.9010	 3.9800
 1.9020	 3.8770
 1.9030	 3.7840
 1.9040	 3.7020
 1.9050	 3.6250
 1.9060	 3.5540
 1.9070	 3.4900
 1.9080	 3.4340
 1.9090	 3.3850
 1.9100	 3.3380
 1.9110	 3.2950
 1.9120	 3.2570
 1.9130	 3.2240
 1.9140	 3.1930
 1.9150	 3.1680
 1.9160	 3.1470
 1.9170	 3.1270
 1.9180	 3.1070
 1.9190	 3.0890
 1.9200	 3.0730
 1.9210	 3.0600
 1.9220	 3.0490
 1.9230	 3.0420
 1.9240	 3.0350
 1.9250	 3.0290
 1.9260	 3.0250
 1.9270	 3.0230
 1.9280	 3.0230
 1.9290	 3.0250
 1.9300	 3.0280
 1.9310	 3.0300
 1.9320	 3.0350
 1.9330	 3.0390
 1.9340	 3.0430
 1.9350	 3.0500
 1.9360	 3.0590
 1.9370	 3.0680
 1.9380	 3.0790
 1.9390	 3.0910
 1.9400	 3.1000
 1.9410	 3.1120
 1.9420	 3.1250
 1.9430	 3.1380
 1.9440	 3.1520
 1.9450	 3.1680
 1.9460	 3.1840
 1.9470	 3.2010
 1.9480	 3.2180
 1.9490	 3.2340
 1.9500	 3.2510
 1.9510	 3.2700
 1.9520	 3.2900
 1.9530	 3.3110
 1.9540	 3.3340
 1.9550	 3.3540
 1.9560	 3.3720
 1.9570	 3.3920
 1.9580	 3.4130
 1.9590	 3.4350
 1.9600	 3.4580
 1.9610	 3.4820
 1.9620	 3.5050
 1.9630	 3.5290
 1.9640	 3.5550
 1.9650	 3.5800
 1.9660	 3.6040
 1.9670	 3.6290
 1.9680	 3.6550
 1.9690	 3.6800
 1.9700	 3.7070
 1.9710	 3.7370
 1.9720	 3.7650
 1.9730	 3.7920
 1.9740	 3.8220
 1.9750	 3.8520
 1.9760	 3.8810
 1.9770	 3.9100
 1.9780	 3.9400
 1.9790	 3.9700
 1.9800	 3.9980
 1.9810	 4.0290
 1.9820	 4.0610
 1.9830	 4.0930
 1.9840	 4.1260
 1.9850	 4.1580
 1.9860	 4.1900
 1.9870	 4.2230
 1.9880	 4.2560
 1.9890	 4.2890
 1.9900	 4.3220
 1.9910	 4.3540
 1.9920	 4.3880
 1.9930	 4.4260
 1.9940	 4.4600
 1.9950	 4.4940
 1.9960	 4.5290
 1.9970	 4.5610
 1.9980	 4.5950
 1.9990	 4.6330
 2.0000	 4.6700
 2.0010	 4.7050
 2.0020	 4.7400
 2.0030	 4.7730
 2.0040	 4.8040
 2.0050	 4.8370
 2.0060	 4.8700
 2.0070	 4.9040
 2.0080	 4.9390
 2.0090	 4.9740
 2.0100	 5.0100
 2.0110	 5.0430
 2.0120	 5.0730
 2.0130	 5.1050
 2.0140	 5.1350
 2.0150	 5.1630
 2.0160	 5.1970
 2.0170	 5.2300
 2.0180	 5.2620
 2.0190	 5.2950
 2.0200	 5.3250
 2.0210	 5.3530
 2.0220	 5.3800
 2.0230	 5.4050
 2.0240	 5.4320
 2.0250	 5.4600
 2.0260	 5.4860
 2.0270	 5.5130
 2.0280	 5.5400
 2.0290	 5.5630
 2.0300	 5.5860
 2.0310	 5.6100
 2.0320	 5.6340
 2.0330	 5.6570
 2.0340	 5.6800
 2.0350	 5.7030
 2.0360	 5.7250
 2.0370	 5.7490
 2.0380	 5.7760
 2.0390	 5.8000
 2.0400	 5.8210
 2.0410	 5.8430
 2.0420	 5.8620
 2.0430	 5.8820
 2.0440	 5.9010
 2.0450	 5.9180
 2.0460	 5.9370
 2.0470	 5.9540
 2.0480	 5.9720
 2.0490	 5.9920
 2.0500	 6.0110
 2.0510	 6.0300
 2.0520	 6.0490
 2.0530	 6.0670
 2.0540	 6.0850
 2.0550	 6.1030
 2.0560	 6.1190
 2.0570	 6.1390
 2.0580	 6.1580
 2.0590	 6.1760
 2.0600	 6.1940
 2.0610	 6.2120
 2.0620	 6.2260
 2.0630	 6.2450
 2.0640	 6.2660
 2.0650	 6.2870
 2.0660	 6.3080
 2.0670	 6.3290
 2.0680	 6.3500
 2.0690	 6.3680
 2.0700	 6.3840
 2.0710	 6.4020
 2.0720	 6.4200
 2.0730	 6.4400
 2.0740	 6.4580
 2.0750	 6.4780
 2.0760	 6.4970
 2.0770	 6.5130
 2.0780	 6.5310
 2.0790	 6.5530
 2.0800	 6.5730
 2.0810	 6.5900
 2.0820	 6.6090
 2.0830	 6.6280
 2.0840	 6.6480
 2.0850	 6.6700
 2.0860	 6.6900
 2.0870	 6.7070
 2.0880	 6.7260
 2.0890	 6.7440
 2.0900	 6.7610
 2.0910	 6.7790
 2.0920	 6.7990
 2.0930	 6.8170
 2.0940	 6.8350
 2.0950	 6.8540
 2.0960	 6.8710
 2.0970	 6.8910
 2.0980	 6.9130
 2.0990	 6.9330
 2.1000	 6.9530
 2.1010	 6.9720
 2.1020	 6.9900
 2.1030	 7.0080
 2.1040	 7.0250
 2.1050	 7.0440
 2.1060	 7.0630
 2.1070	 7.0810
 2.1080	 7.1000
 2.1090	 7.1190
 2.1100	 7.1380
 2.1110	 7.1560
 2.1120	 7.1750
 2.1130	 7.1940
 2.1140	 7.2120
 2.1150	 7.2300
 2.1160	 7.2480
 2.1170	 7.2650
 2.1180	 7.2820
 2.1190	 7.3010
 2.1200	 7.3190
 2.1210	 7.3340
 2.1220	 7.3500
 2.1230	 7.3660
 2.1240	 7.3810
 2.1250	 7.3970
 2.1260	 7.4110
 2.1270	 7.4280
 2.1280	 7.4460
 2.1290	 7.4650
 2.1300	 7.4860
 2.1310	 7.5050
 2.1320	 7.5230
 2.1330	 7.5420
 2.1340	 7.5630
 2.1350	 7.5810
 2.1360	 7.5960
 2.1370	 7.6120
 2.1380	 7.6260
 2.1390	 7.6420
 2.1400	 7.6590
 2.1410	 7.6790
 2.1420	 7.6970
 2.1430	 7.7160
 2.1440	 7.7330
 2.1450	 7.7490
 2.1460	 7.7670
 2.1470	 7.7840
 2.1480	 7.8040
 2.1490	 7.8270
 2.1500	 7.8480
 2.1510	 7.8690
 2.1520	 7.8910
 2.1530	 7.9120
 2.1540	 7.9330
 2.1550	 7.9560
 2.1560	 7.9780
 2.1570	 7.9990
 2.1580	 8.0180
 2.1590	 8.0360
 2.1600	 8.0530
 2.1610	 8.0720
 2.1620	 8.0920
 2.1630	 8.1100
 2.1640	 8.1290
 2.1650	 8.1470
 2.1660	 8.1620
 2.1670	 8.1790
 2.1680	 8.1960
 2.1690	 8.2150
 2.1700	 8.2350
 2.1710	 8.2540
 2.1720	 8.2750
 2.1730	 8.2930
 2.1740	 8.3070
 2.1750	 8.3250
 2.1760	 8.3450
 2.1770	 8.3640
 2.1780	 8.3870
 2.1790	 8.4070
 2.1800	 8.4240
 2.1810	 8.4410
 2.1820	 8.4590
 2.1830	 8.4760
 2.1840	 8.4940
 2.1850	 8.5120
 2.1860	 8.5310
 2.1870	 8.5530
 2.1880	 8.5720
 2.1890	 8.5910
 2.1900	 8.6070
 2.1910	 8.6210
 2.1920	 8.6360
 2.1930	 8.6470
 2.1940	 8.6630
 2.1950	 8.6820
 2.1960	 8.7020
 2.1970	 8.7290
 2.1980	 8.7480
 2.1990	 8.7620
 2.2000	 8.7770
 2.2010	 8.7860
 2.2020	 8.7980
 2.2030	 8.8120
 2.2040	 8.8250
 2.2050	 8.8380
 2.2060	 8.8520
 2.2070	 8.8640
 2.2080	 8.8750
 2.2090	 8.8870
 2.2100	 8.9010
 2.2110	 8.9100
 2.2120	 8.9160
 2.2130	 8.9250
 2.2140	 8.9310
 2.2150	 8.9360
 2.2160	 8.9450
 2.2170	 8.9490
 2.2180	 8.9500
 2.2190	 8.9520
 2.2200	 8.9550
 2.2210	 8.9560
 2.2220	 8.9550
 2.2230	 8.9530
 2.2240	 8.9490
 2.2250	 8.9430
 2.2260	 8.9350
 2.2270	 8.9240
 2.2280	 8.9080
 2.2290	 8.8920
 2.2300	 8.8740
 2.2310	 8.8550
 2.2320	 8.8340
 2.2330	 8.8100
 2.2340	 8.7860
 2.2350	 8.7600
 2.2360	 8.7290
 2.2370	 8.6930
 2.2380	 8.6610
 2.2390	 8.6260
 2.2400	 8.5880
 2.2410	 8.5530
 2.2420	 8.5130
 2.2430	 8.4680
 2.2440	 8.4230
 2.2450	 8.3800
 2.2460	 8.3340
 2.2470	 8.2840
 2.2480	 8.2350
 2.2490	 8.1860
 2.2500	 8.1370
 2.2510	 8.0850
 2.2520	 8.0360
 2.2530	 7.9860
 2.2540	 7.9390
 2.2550	 7.8980
 2.2560	 7.8530
 2.2570	 7.8090
 2.2580	 7.7630
 2.2590	 7.7100
 2.2600	 7.6630
 2.2610	 7.6180
 2.2620	 7.5710
 2.2630	 7.5260
 2.2640	 7.4840
 2.2650	 7.4410
 2.2660	 7.4000
 2.2670	 7.3600
 2.2680	 7.3210
 2.2690	 7.2820
 2.2700	 7.2410
 2.2710	 7.2030
 2.2720	 7.1660
 2.2730	 7.1300
 2.2740	 7.0960
 2.2750	 7.0630
 2.2760	 7.0310
 2.2770	 6.9970
 2.2780	 6.9590
 2.2790	 6.9260
 2.2800	 6.8920
 2.2810	 6.8610
 2.2820	 6.8370
 2.2830	 6.8070
 2.2840	 6.7730
 2.2850	 6.7400
 2.2860	 6.7030
 2.2870	 6.6700
 2.2880	 6.6410
 2.2890	 6.6110
 2.2900	 6.5830
 2.2910	 6.5520
 2.2920	 6.5190
 2.2930	 6.4850
 2.2940	 6.4490
 2.2950	 6.4120
 2.2960	 6.3690
 2.2970	 6.3330
 2.2980	 6.2970
 2.2990	 6.2650
 2.3000	 6.2350
 2.3010	 6.2100
 2.3020	 6.1850
 2.3030	 6.1590
 2.3040	 6.1410
 2.3050	 6.1270
 2.3060	 6.1090
 2.3070	 6.0970
 2.3080	 6.0860
 2.3090	 6.0740
 2.3100	 6.0640
 2.3110	 6.0580
 2.3120	 6.0540
 2.3130	 6.0540
 2.3140	 6.0510
 2.3150	 6.0520
 2.3160	 6.0490
 2.3170	 6.0420
 2.3180	 6.0350
 2.3190	 6.0250
 2.3200	 6.0170
 2.3210	 6.0080
 2.3220	 5.9990
 2.3230	 5.9910
 2.3240	 5.9850
 2.3250	 5.9820
 2.3260	 5.9710
 2.3270	 5.9630
 2.3280	 5.9450
 2.3290	 5.9150
 2.3300	 5.8900
 2.3310	 5.8630
 2.3320	 5.8380
 2.3330	 5.8150
 2.3340	 5.7910
 2.3350	 5.7690
 2.3360	 5.7450
 2.3370	 5.7220
 2.3380	 5.6980
 2.3390	 5.6710
 2.3400	 5.6480
 2.3410	 5.6260
 2.3420	 5.6030
 2.3430	 5.5820
 2.3440	 5.5610
 2.3450	 5.5400
 2.3460	 5.5180
 2.3470	 5.4950
 2.3480	 5.4760
 2.3490	 5.4570
 2.3500	 5.4440
 2.3510	 5.4360
 2.3520	 5.4300
 2.3530	 5.4300
 2.3540	 5.4230
 2.3550	 5.4100
 2.3560	 5.4000
 2.3570	 5.3800
 2.3580	 5.3620
 2.3590	 5.3550
 2.3600	 5.3440
 2.3610	 5.3310
 2.3620	 5.3180
 2.3630	 5.2990
 2.3640	 5.2820
 2.3650	 5.2660
 2.3660	 5.2490
 2.3670	 5.2370
 2.3680	 5.2210
 2.3690	 5.2090
 2.3700	 5.2000
 2.3710	 5.1810
 2.3720	 5.1610
 2.3730	 5.1390
 2.3740	 5.1140
 2.3750	 5.1000
 2.3760	 5.0920
 2.3770	 5.0760
 2.3780	 5.0590
 2.3790	 5.0350
 2.3800	 5.0070
 2.3810	 4.9840
 2.3820	 4.9670
 2.3830	 4.9560
 2.3840	 4.9450
 2.3850	 4.9340
 2.3860	 4.9200
 2.3870	 4.9000
 2.3880	 4.8760
 2.3890	 4.8510
 2.3900	 4.8340
 2.3910	 4.8110
 2.3920	 4.7960
 2.3930	 4.7930
 2.3940	 4.7800
 2.3950	 4.7680
 2.3960	 4.7480
 2.3970	 4.7100
 2.3980	 4.6790
 2.3990	 4.6550
 2.4000	 4.6290
 2.4010	 4.6120
 2.4020	 4.5970
 2.4030	 4.5670
 2.4040	 4.5380
 2.4050	 4.5210
 2.4060	 4.4960
 2.4070	 4.4810
 2.4080	 4.4770
 2.4090	 4.4610
 2.4100	 4.4430
 2.4110	 4.4220
 2.4120	 4.3910
 2.4130	 4.3580
 2.4140	 4.3260
 2.4150	 4.3090
 2.4160	 4.3040
 2.4170	 4.2970
 2.4180	 4.2950
 2.4190	 4.2810
 2.4200	 4.2480
 2.4210	 4.2330
 2.4220	 4.2150
 2.4230	 4.1920
 2.4240	 4.1840
 2.4250	 4.1520
 2.4260	 4.1210
 2.4270	 4.0990
 2.4280	 4.0600
 2.4290	 4.0440
 2.4300	 4.0340
 2.4310	 4.0170
 2.4320	 4.0090
 2.4330	 3.9770
 2.4340	 3.9340
 2.4350	 3.9000
 2.4360	 3.8780
 2.4370	 3.8730
 2.4380	 3.8670
 2.4390	 3.8430
 2.4400	 3.8090
 2.4410	 3.7830
 2.4420	 3.7540
 2.4430	 3.7310
 2.4440	 3.7060
 2.4450	 3.6700
 2.4460	 3.6490
 2.4470	 3.6410
 2.4480	 3.6310
 2.4490	 3.6110
 2.4500	 3.5800
 2.4510	 3.5450
 2.4520	 3.5210
 2.4530	 3.5090
 2.4540	 3.5010
 2.4550	 3.4880
 2.4560	 3.4650
 2.4570	 3.4360
 2.4580	 3.4160
 2.4590	 3.3960
 2.4600	 3.3850
 2.4610	 3.3730
 2.4620	 3.3550
 2.4630	 3.3440
 2.4640	 3.3230
 2.4650	 3.2990
 2.4660	 3.2910
 2.4670	 3.2650
 2.4680	 3.2310
 2.4690	 3.2300
 2.4700	 3.2130
 2.4710	 3.2100
 2.4720	 3.1900
 2.4730	 3.1350
 2.4740	 3.1250
 2.4750	 3.1370
 2.4760	 3.1300
 2.4770	 3.1390
 2.4780	 3.1310
 2.4790	 3.0940
 2.4800	 3.0790
 2.4810	 3.0960
 2.4820	 3.1000
 2.4830	 3.0540
 2.4840	 3.0440
 2.4850	 3.0320
 2.4860	 3.0160
 2.4870	 3.0300
 2.4880	 3.0010
 2.4890	 2.9610
 2.4900	 2.9380
 2.4910	 2.9420
 2.4920	 2.9760
 2.4930	 2.9970
 2.4940	 3.0160
 2.4950	 3.0210
 2.4960	 2.9810
 2.4970	 2.9440
 2.4980	 2.9190
 2.4990	 2.9150
 2.5000	 2.9700
