Name: Ceanothus megacarpus 2
Type: vegetation
Class: Shrub
Genus: Ceanothus
Species: megacarpus
Sample No.: VH021
Owner: UCSB
Wavelength Range: VSWIR
Origin: 34.4909; -119.7914; WGS84
Collection Date: 4/1/2013
Description: Samples were collected as part of the HyspIRI Airborne Campaign. 48 individual plants were sampled in three times in 2013 - spring  summer  and fall. The name of the sample includes a 1  2  or 3 which references a different individual of the species. Samples were taken to JPL and processed within 48 hours of collection. The same leaves were processed in the Nicolet and then measured using the ASD.
Measurement: Bidirectional reflectance
First Column: X
Second Column: Y
X Units: Wavelength (micrometers)
Y Units: Reflectance (percentage)
First X Value: 0.35
Last X Value: 2.5
Number of X Values: 2151
Additional Information: vegetation.shrub.ceanothus.megacarpus.vswir.vh021.ucsb.asd.ancillary.txt

 0.3500	 4.3360
 0.3510	 4.2490
 0.3520	 4.0590
 0.3530	 3.8670
 0.3540	 3.7800
 0.3550	 3.8740
 0.3560	 3.9560
 0.3570	 3.9300
 0.3580	 3.7920
 0.3590	 3.7770
 0.3600	 3.9000
 0.3610	 4.0270
 0.3620	 3.8590
 0.3630	 3.7800
 0.3640	 3.8010
 0.3650	 3.8370
 0.3660	 3.8510
 0.3670	 3.8130
 0.3680	 3.7620
 0.3690	 3.7670
 0.3700	 3.7250
 0.3710	 3.6940
 0.3720	 3.7050
 0.3730	 3.6920
 0.3740	 3.6740
 0.3750	 3.6770
 0.3760	 3.7280
 0.3770	 3.8680
 0.3780	 3.9070
 0.3790	 3.8460
 0.3800	 3.8510
 0.3810	 3.8510
 0.3820	 3.7720
 0.3830	 3.6390
 0.3840	 3.6940
 0.3850	 3.7610
 0.3860	 3.7600
 0.3870	 3.6800
 0.3880	 3.6890
 0.3890	 3.7330
 0.3900	 3.7670
 0.3910	 3.7690
 0.3920	 3.7270
 0.3930	 3.6810
 0.3940	 3.6660
 0.3950	 3.6670
 0.3960	 3.6880
 0.3970	 3.7000
 0.3980	 3.6710
 0.3990	 3.6520
 0.4000	 3.6510
 0.4010	 3.6550
 0.4020	 3.6220
 0.4030	 3.6230
 0.4040	 3.6380
 0.4050	 3.6400
 0.4060	 3.6450
 0.4070	 3.6550
 0.4080	 3.6600
 0.4090	 3.6520
 0.4100	 3.6540
 0.4110	 3.6690
 0.4120	 3.6870
 0.4130	 3.6890
 0.4140	 3.7010
 0.4150	 3.7140
 0.4160	 3.7110
 0.4170	 3.7210
 0.4180	 3.7390
 0.4190	 3.7590
 0.4200	 3.7750
 0.4210	 3.7880
 0.4220	 3.8070
 0.4230	 3.8350
 0.4240	 3.8670
 0.4250	 3.8820
 0.4260	 3.8900
 0.4270	 3.9140
 0.4280	 3.9630
 0.4290	 4.0030
 0.4300	 4.0200
 0.4310	 4.0330
 0.4320	 4.0610
 0.4330	 4.0930
 0.4340	 4.1130
 0.4350	 4.1350
 0.4360	 4.1560
 0.4370	 4.1790
 0.4380	 4.2050
 0.4390	 4.2290
 0.4400	 4.2490
 0.4410	 4.2650
 0.4420	 4.2840
 0.4430	 4.2990
 0.4440	 4.3080
 0.4450	 4.3090
 0.4460	 4.3260
 0.4470	 4.3480
 0.4480	 4.3670
 0.4490	 4.3900
 0.4500	 4.3880
 0.4510	 4.3900
 0.4520	 4.4230
 0.4530	 4.4480
 0.4540	 4.4660
 0.4550	 4.4740
 0.4560	 4.4750
 0.4570	 4.4950
 0.4580	 4.5080
 0.4590	 4.5010
 0.4600	 4.5030
 0.4610	 4.5130
 0.4620	 4.5260
 0.4630	 4.5350
 0.4640	 4.5390
 0.4650	 4.5420
 0.4660	 4.5470
 0.4670	 4.5530
 0.4680	 4.5620
 0.4690	 4.5620
 0.4700	 4.5500
 0.4710	 4.5570
 0.4720	 4.5630
 0.4730	 4.5670
 0.4740	 4.5710
 0.4750	 4.5700
 0.4760	 4.5720
 0.4770	 4.5790
 0.4780	 4.5780
 0.4790	 4.5820
 0.4800	 4.5860
 0.4810	 4.5840
 0.4820	 4.5840
 0.4830	 4.5840
 0.4840	 4.5880
 0.4850	 4.6090
 0.4860	 4.6230
 0.4870	 4.6340
 0.4880	 4.6460
 0.4890	 4.6540
 0.4900	 4.6560
 0.4910	 4.6580
 0.4920	 4.6700
 0.4930	 4.6920
 0.4940	 4.7120
 0.4950	 4.7250
 0.4960	 4.7400
 0.4970	 4.7630
 0.4980	 4.7890
 0.4990	 4.8120
 0.5000	 4.8410
 0.5010	 4.8710
 0.5020	 4.9010
 0.5030	 4.9390
 0.5040	 4.9800
 0.5050	 5.0230
 0.5060	 5.0730
 0.5070	 5.1350
 0.5080	 5.1960
 0.5090	 5.2610
 0.5100	 5.3380
 0.5110	 5.4180
 0.5120	 5.5030
 0.5130	 5.5940
 0.5140	 5.6940
 0.5150	 5.7990
 0.5160	 5.9140
 0.5170	 6.0400
 0.5180	 6.1670
 0.5190	 6.3000
 0.5200	 6.4410
 0.5210	 6.5870
 0.5220	 6.7350
 0.5230	 6.8810
 0.5240	 7.0250
 0.5250	 7.1720
 0.5260	 7.3140
 0.5270	 7.4490
 0.5280	 7.5790
 0.5290	 7.7040
 0.5300	 7.8240
 0.5310	 7.9370
 0.5320	 8.0440
 0.5330	 8.1330
 0.5340	 8.2160
 0.5350	 8.3040
 0.5360	 8.3720
 0.5370	 8.4350
 0.5380	 8.4990
 0.5390	 8.5560
 0.5400	 8.6150
 0.5410	 8.6740
 0.5420	 8.7320
 0.5430	 8.7900
 0.5440	 8.8340
 0.5450	 8.8700
 0.5460	 8.9090
 0.5470	 8.9330
 0.5480	 8.9520
 0.5490	 8.9730
 0.5500	 8.9940
 0.5510	 9.0120
 0.5520	 9.0250
 0.5530	 9.0290
 0.5540	 9.0210
 0.5550	 9.0050
 0.5560	 8.9790
 0.5570	 8.9400
 0.5580	 8.8900
 0.5590	 8.8290
 0.5600	 8.7590
 0.5610	 8.6910
 0.5620	 8.6140
 0.5630	 8.5330
 0.5640	 8.4530
 0.5650	 8.3670
 0.5660	 8.2810
 0.5670	 8.1950
 0.5680	 8.1040
 0.5690	 8.0080
 0.5700	 7.9100
 0.5710	 7.8130
 0.5720	 7.7180
 0.5730	 7.6280
 0.5740	 7.5430
 0.5750	 7.4600
 0.5760	 7.3780
 0.5770	 7.2990
 0.5780	 7.2230
 0.5790	 7.1540
 0.5800	 7.0880
 0.5810	 7.0280
 0.5820	 6.9780
 0.5830	 6.9360
 0.5840	 6.8940
 0.5850	 6.8520
 0.5860	 6.8160
 0.5870	 6.7840
 0.5880	 6.7580
 0.5890	 6.7360
 0.5900	 6.7100
 0.5910	 6.6850
 0.5920	 6.6620
 0.5930	 6.6390
 0.5940	 6.6250
 0.5950	 6.6130
 0.5960	 6.6000
 0.5970	 6.5840
 0.5980	 6.5710
 0.5990	 6.5590
 0.6000	 6.5450
 0.6010	 6.5280
 0.6020	 6.5060
 0.6030	 6.4780
 0.6040	 6.4490
 0.6050	 6.4150
 0.6060	 6.3780
 0.6070	 6.3420
 0.6080	 6.3000
 0.6090	 6.2600
 0.6100	 6.2250
 0.6110	 6.1910
 0.6120	 6.1480
 0.6130	 6.0950
 0.6140	 6.0390
 0.6150	 5.9940
 0.6160	 5.9520
 0.6170	 5.9110
 0.6180	 5.8710
 0.6190	 5.8400
 0.6200	 5.8130
 0.6210	 5.7870
 0.6220	 5.7670
 0.6230	 5.7510
 0.6240	 5.7350
 0.6250	 5.7190
 0.6260	 5.7080
 0.6270	 5.7000
 0.6280	 5.6950
 0.6290	 5.6890
 0.6300	 5.6840
 0.6310	 5.6810
 0.6320	 5.6770
 0.6330	 5.6630
 0.6340	 5.6550
 0.6350	 5.6420
 0.6360	 5.6170
 0.6370	 5.5960
 0.6380	 5.5740
 0.6390	 5.5460
 0.6400	 5.5080
 0.6410	 5.4710
 0.6420	 5.4370
 0.6430	 5.4020
 0.6440	 5.3580
 0.6450	 5.3170
 0.6460	 5.2780
 0.6470	 5.2380
 0.6480	 5.2010
 0.6490	 5.1690
 0.6500	 5.1400
 0.6510	 5.1100
 0.6520	 5.0870
 0.6530	 5.0640
 0.6540	 5.0360
 0.6550	 5.0110
 0.6560	 4.9830
 0.6570	 4.9490
 0.6580	 4.9090
 0.6590	 4.8760
 0.6600	 4.8420
 0.6610	 4.8050
 0.6620	 4.7660
 0.6630	 4.7310
 0.6640	 4.6980
 0.6650	 4.6680
 0.6660	 4.6380
 0.6670	 4.6140
 0.6680	 4.5970
 0.6690	 4.5840
 0.6700	 4.5670
 0.6710	 4.5560
 0.6720	 4.5540
 0.6730	 4.5480
 0.6740	 4.5470
 0.6750	 4.5490
 0.6760	 4.5460
 0.6770	 4.5500
 0.6780	 4.5580
 0.6790	 4.5710
 0.6800	 4.5840
 0.6810	 4.6000
 0.6820	 4.6230
 0.6830	 4.6550
 0.6840	 4.6920
 0.6850	 4.7380
 0.6860	 4.7960
 0.6870	 4.8690
 0.6880	 4.9600
 0.6890	 5.0730
 0.6900	 5.2110
 0.6910	 5.3750
 0.6920	 5.5720
 0.6930	 5.8130
 0.6940	 6.0990
 0.6950	 6.4200
 0.6960	 6.7900
 0.6970	 7.2050
 0.6980	 7.6610
 0.6990	 8.1610
 0.7000	 8.7030
 0.7010	 9.2840
 0.7020	 9.8990
 0.7030	10.5460
 0.7040	11.2200
 0.7050	11.9180
 0.7060	12.6270
 0.7070	13.3600
 0.7080	14.1150
 0.7090	14.8850
 0.7100	15.6720
 0.7110	16.4780
 0.7120	17.3020
 0.7130	18.1380
 0.7140	18.9880
 0.7150	19.8520
 0.7160	20.7290
 0.7170	21.6240
 0.7180	22.5240
 0.7190	23.4270
 0.7200	24.3320
 0.7210	25.2510
 0.7220	26.1700
 0.7230	27.0820
 0.7240	27.9890
 0.7250	28.8810
 0.7260	29.7580
 0.7270	30.6210
 0.7280	31.4630
 0.7290	32.2820
 0.7300	33.0790
 0.7310	33.8520
 0.7320	34.5980
 0.7330	35.3130
 0.7340	35.9990
 0.7350	36.6600
 0.7360	37.2860
 0.7370	37.8780
 0.7380	38.4420
 0.7390	38.9860
 0.7400	39.5000
 0.7410	39.9850
 0.7420	40.4460
 0.7430	40.8760
 0.7440	41.2780
 0.7450	41.6560
 0.7460	42.0150
 0.7470	42.3440
 0.7480	42.6520
 0.7490	42.9430
 0.7500	43.2060
 0.7510	43.4480
 0.7520	43.6730
 0.7530	43.8810
 0.7540	44.0800
 0.7550	44.2580
 0.7560	44.4190
 0.7570	44.5730
 0.7580	44.7070
 0.7590	44.8300
 0.7600	44.9520
 0.7610	45.0690
 0.7620	45.1720
 0.7630	45.2610
 0.7640	45.3420
 0.7650	45.4210
 0.7660	45.4930
 0.7670	45.5600
 0.7680	45.6280
 0.7690	45.6930
 0.7700	45.7490
 0.7710	45.7990
 0.7720	45.8520
 0.7730	45.8990
 0.7740	45.9420
 0.7750	45.9840
 0.7760	46.0250
 0.7770	46.0630
 0.7780	46.0990
 0.7790	46.1360
 0.7800	46.1670
 0.7810	46.2000
 0.7820	46.2380
 0.7830	46.2760
 0.7840	46.2990
 0.7850	46.3240
 0.7860	46.3610
 0.7870	46.3870
 0.7880	46.4170
 0.7890	46.4440
 0.7900	46.4640
 0.7910	46.4800
 0.7920	46.5010
 0.7930	46.5260
 0.7940	46.5480
 0.7950	46.5640
 0.7960	46.5780
 0.7970	46.5950
 0.7980	46.6130
 0.7990	46.6290
 0.8000	46.6440
 0.8010	46.6590
 0.8020	46.6800
 0.8030	46.6890
 0.8040	46.6940
 0.8050	46.7050
 0.8060	46.7160
 0.8070	46.7300
 0.8080	46.7420
 0.8090	46.7370
 0.8100	46.7400
 0.8110	46.7460
 0.8120	46.7520
 0.8130	46.7690
 0.8140	46.7730
 0.8150	46.7720
 0.8160	46.7750
 0.8170	46.7720
 0.8180	46.7670
 0.8190	46.7640
 0.8200	46.7650
 0.8210	46.7690
 0.8220	46.7660
 0.8230	46.7590
 0.8240	46.7600
 0.8250	46.7570
 0.8260	46.7580
 0.8270	46.7600
 0.8280	46.7480
 0.8290	46.7340
 0.8300	46.7240
 0.8310	46.7170
 0.8320	46.7140
 0.8330	46.7060
 0.8340	46.6950
 0.8350	46.6870
 0.8360	46.6880
 0.8370	46.6860
 0.8380	46.6820
 0.8390	46.6830
 0.8400	46.6870
 0.8410	46.6880
 0.8420	46.6850
 0.8430	46.6880
 0.8440	46.6900
 0.8450	46.6940
 0.8460	46.7020
 0.8470	46.7000
 0.8480	46.7100
 0.8490	46.7240
 0.8500	46.7270
 0.8510	46.7280
 0.8520	46.7310
 0.8530	46.7390
 0.8540	46.7520
 0.8550	46.7610
 0.8560	46.7720
 0.8570	46.7840
 0.8580	46.7820
 0.8590	46.7800
 0.8600	46.7870
 0.8610	46.8020
 0.8620	46.8060
 0.8630	46.8090
 0.8640	46.8120
 0.8650	46.8160
 0.8660	46.8370
 0.8670	46.8510
 0.8680	46.8530
 0.8690	46.8510
 0.8700	46.8690
 0.8710	46.8820
 0.8720	46.8890
 0.8730	46.9070
 0.8740	46.9220
 0.8750	46.9370
 0.8760	46.9490
 0.8770	46.9450
 0.8780	46.9600
 0.8790	46.9780
 0.8800	46.9860
 0.8810	46.9900
 0.8820	46.9940
 0.8830	47.0040
 0.8840	47.0180
 0.8850	47.0280
 0.8860	47.0370
 0.8870	47.0430
 0.8880	47.0450
 0.8890	47.0550
 0.8900	47.0590
 0.8910	47.0630
 0.8920	47.0750
 0.8930	47.0810
 0.8940	47.0840
 0.8950	47.0860
 0.8960	47.0930
 0.8970	47.0980
 0.8980	47.1070
 0.8990	47.1140
 0.9000	47.1050
 0.9010	47.1080
 0.9020	47.1210
 0.9030	47.1340
 0.9040	47.1350
 0.9050	47.1360
 0.9060	47.1440
 0.9070	47.1550
 0.9080	47.1430
 0.9090	47.1440
 0.9100	47.1500
 0.9110	47.1480
 0.9120	47.1430
 0.9130	47.1460
 0.9140	47.1490
 0.9150	47.1430
 0.9160	47.1460
 0.9170	47.1360
 0.9180	47.1300
 0.9190	47.1500
 0.9200	47.1490
 0.9210	47.1320
 0.9220	47.1060
 0.9230	47.0810
 0.9240	47.0680
 0.9250	47.0590
 0.9260	47.0470
 0.9270	47.0310
 0.9280	46.9970
 0.9290	46.9600
 0.9300	46.9240
 0.9310	46.8850
 0.9320	46.8320
 0.9330	46.7790
 0.9340	46.7390
 0.9350	46.7130
 0.9360	46.6660
 0.9370	46.6140
 0.9380	46.5680
 0.9390	46.5130
 0.9400	46.4430
 0.9410	46.3720
 0.9420	46.3080
 0.9430	46.2500
 0.9440	46.1880
 0.9450	46.1090
 0.9460	46.0080
 0.9470	45.9020
 0.9480	45.8130
 0.9490	45.7170
 0.9500	45.5930
 0.9510	45.4620
 0.9520	45.3330
 0.9530	45.2030
 0.9540	45.0720
 0.9550	44.9500
 0.9560	44.8050
 0.9570	44.6610
 0.9580	44.5460
 0.9590	44.4320
 0.9600	44.3110
 0.9610	44.2050
 0.9620	44.1290
 0.9630	44.0330
 0.9640	43.9570
 0.9650	43.8850
 0.9660	43.8020
 0.9670	43.7820
 0.9680	43.7490
 0.9690	43.6960
 0.9700	43.6520
 0.9710	43.6260
 0.9720	43.6090
 0.9730	43.6020
 0.9740	43.6030
 0.9750	43.5910
 0.9760	43.5840
 0.9770	43.5750
 0.9780	43.5520
 0.9790	43.5470
 0.9800	43.5620
 0.9810	43.5790
 0.9820	43.5790
 0.9830	43.5930
 0.9840	43.6130
 0.9850	43.6400
 0.9860	43.6790
 0.9870	43.7090
 0.9880	43.7500
 0.9890	43.7980
 0.9900	43.8360
 0.9910	43.8980
 0.9920	43.9580
 0.9930	44.0190
 0.9940	44.0790
 0.9950	44.1390
 0.9960	44.2000
 0.9970	44.2600
 0.9980	44.3200
 0.9990	44.3810
 1.0000	44.4410
 1.0010	44.5010
 1.0020	44.5620
 1.0030	44.6220
 1.0040	44.6820
 1.0050	44.7430
 1.0060	44.8030
 1.0070	44.8630
 1.0080	44.9240
 1.0090	44.9840
 1.0100	44.9840
 1.0110	45.0380
 1.0120	45.0940
 1.0130	45.1500
 1.0140	45.2060
 1.0150	45.2620
 1.0160	45.3120
 1.0170	45.3660
 1.0180	45.4200
 1.0190	45.4710
 1.0200	45.5250
 1.0210	45.5740
 1.0220	45.6210
 1.0230	45.6730
 1.0240	45.7310
 1.0250	45.7800
 1.0260	45.8250
 1.0270	45.8730
 1.0280	45.9180
 1.0290	45.9640
 1.0300	46.0150
 1.0310	46.0600
 1.0320	46.1010
 1.0330	46.1380
 1.0340	46.1790
 1.0350	46.2190
 1.0360	46.2600
 1.0370	46.3010
 1.0380	46.3390
 1.0390	46.3750
 1.0400	46.4110
 1.0410	46.4440
 1.0420	46.4770
 1.0430	46.5090
 1.0440	46.5400
 1.0450	46.5710
 1.0460	46.5970
 1.0470	46.6170
 1.0480	46.6410
 1.0490	46.6640
 1.0500	46.6870
 1.0510	46.7160
 1.0520	46.7400
 1.0530	46.7610
 1.0540	46.7800
 1.0550	46.7990
 1.0560	46.8180
 1.0570	46.8360
 1.0580	46.8560
 1.0590	46.8730
 1.0600	46.8880
 1.0610	46.9030
 1.0620	46.9150
 1.0630	46.9270
 1.0640	46.9410
 1.0650	46.9510
 1.0660	46.9530
 1.0670	46.9610
 1.0680	46.9720
 1.0690	46.9820
 1.0700	46.9920
 1.0710	47.0070
 1.0720	47.0150
 1.0730	47.0150
 1.0740	47.0200
 1.0750	47.0240
 1.0760	47.0270
 1.0770	47.0320
 1.0780	47.0320
 1.0790	47.0280
 1.0800	47.0230
 1.0810	47.0140
 1.0820	47.0060
 1.0830	46.9980
 1.0840	46.9910
 1.0850	46.9820
 1.0860	46.9760
 1.0870	46.9680
 1.0880	46.9610
 1.0890	46.9480
 1.0900	46.9320
 1.0910	46.9160
 1.0920	46.8980
 1.0930	46.8790
 1.0940	46.8610
 1.0950	46.8410
 1.0960	46.8200
 1.0970	46.7980
 1.0980	46.7770
 1.0990	46.7530
 1.1000	46.7270
 1.1010	46.7000
 1.1020	46.6720
 1.1030	46.6400
 1.1040	46.6090
 1.1050	46.5790
 1.1060	46.5470
 1.1070	46.5170
 1.1080	46.4830
 1.1090	46.4470
 1.1100	46.4080
 1.1110	46.3670
 1.1120	46.3230
 1.1130	46.2790
 1.1140	46.2290
 1.1150	46.1740
 1.1160	46.1190
 1.1170	46.0650
 1.1180	46.0000
 1.1190	45.9300
 1.1200	45.8550
 1.1210	45.7710
 1.1220	45.6810
 1.1230	45.5860
 1.1240	45.4860
 1.1250	45.3750
 1.1260	45.2560
 1.1270	45.1270
 1.1280	44.9900
 1.1290	44.8400
 1.1300	44.6810
 1.1310	44.5090
 1.1320	44.3250
 1.1330	44.1300
 1.1340	43.9220
 1.1350	43.7030
 1.1360	43.4730
 1.1370	43.2300
 1.1380	42.9770
 1.1390	42.7150
 1.1400	42.4390
 1.1410	42.1630
 1.1420	41.8850
 1.1430	41.6030
 1.1440	41.3230
 1.1450	41.0420
 1.1460	40.7650
 1.1470	40.4840
 1.1480	40.2180
 1.1490	39.9560
 1.1500	39.7130
 1.1510	39.4800
 1.1520	39.2630
 1.1530	39.0600
 1.1540	38.8730
 1.1550	38.6990
 1.1560	38.5420
 1.1570	38.4030
 1.1580	38.2810
 1.1590	38.1730
 1.1600	38.0770
 1.1610	37.9900
 1.1620	37.9140
 1.1630	37.8490
 1.1640	37.7930
 1.1650	37.7440
 1.1660	37.7070
 1.1670	37.6700
 1.1680	37.6390
 1.1690	37.6120
 1.1700	37.5900
 1.1710	37.5690
 1.1720	37.5520
 1.1730	37.5330
 1.1740	37.5150
 1.1750	37.4970
 1.1760	37.4780
 1.1770	37.4600
 1.1780	37.4400
 1.1790	37.4180
 1.1800	37.3940
 1.1810	37.3700
 1.1820	37.3470
 1.1830	37.3210
 1.1840	37.2970
 1.1850	37.2750
 1.1860	37.2510
 1.1870	37.2290
 1.1880	37.2090
 1.1890	37.1880
 1.1900	37.1720
 1.1910	37.1580
 1.1920	37.1480
 1.1930	37.1420
 1.1940	37.1360
 1.1950	37.1310
 1.1960	37.1280
 1.1970	37.1290
 1.1980	37.1320
 1.1990	37.1380
 1.2000	37.1480
 1.2010	37.1600
 1.2020	37.1740
 1.2030	37.1920
 1.2040	37.2140
 1.2050	37.2370
 1.2060	37.2630
 1.2070	37.2940
 1.2080	37.3250
 1.2090	37.3580
 1.2100	37.3930
 1.2110	37.4300
 1.2120	37.4680
 1.2130	37.5100
 1.2140	37.5540
 1.2150	37.5990
 1.2160	37.6460
 1.2170	37.6950
 1.2180	37.7440
 1.2190	37.7930
 1.2200	37.8420
 1.2210	37.8920
 1.2220	37.9420
 1.2230	37.9910
 1.2240	38.0420
 1.2250	38.0920
 1.2260	38.1410
 1.2270	38.1910
 1.2280	38.2400
 1.2290	38.2850
 1.2300	38.3300
 1.2310	38.3730
 1.2320	38.4160
 1.2330	38.4580
 1.2340	38.4990
 1.2350	38.5370
 1.2360	38.5760
 1.2370	38.6150
 1.2380	38.6520
 1.2390	38.6880
 1.2400	38.7240
 1.2410	38.7580
 1.2420	38.7900
 1.2430	38.8220
 1.2440	38.8530
 1.2450	38.8830
 1.2460	38.9120
 1.2470	38.9410
 1.2480	38.9690
 1.2490	38.9970
 1.2500	39.0220
 1.2510	39.0460
 1.2520	39.0690
 1.2530	39.0900
 1.2540	39.1100
 1.2550	39.1280
 1.2560	39.1420
 1.2570	39.1540
 1.2580	39.1650
 1.2590	39.1750
 1.2600	39.1840
 1.2610	39.1910
 1.2620	39.1950
 1.2630	39.1980
 1.2640	39.2000
 1.2650	39.2020
 1.2660	39.2040
 1.2670	39.2030
 1.2680	39.1980
 1.2690	39.1900
 1.2700	39.1780
 1.2710	39.1630
 1.2720	39.1470
 1.2730	39.1300
 1.2740	39.1120
 1.2750	39.0930
 1.2760	39.0710
 1.2770	39.0470
 1.2780	39.0180
 1.2790	38.9880
 1.2800	38.9570
 1.2810	38.9230
 1.2820	38.8840
 1.2830	38.8450
 1.2840	38.8020
 1.2850	38.7550
 1.2860	38.7080
 1.2870	38.6560
 1.2880	38.6000
 1.2890	38.5390
 1.2900	38.4760
 1.2910	38.4090
 1.2920	38.3390
 1.2930	38.2670
 1.2940	38.1910
 1.2950	38.1120
 1.2960	38.0310
 1.2970	37.9440
 1.2980	37.8540
 1.2990	37.7580
 1.3000	37.6600
 1.3010	37.5590
 1.3020	37.4530
 1.3030	37.3400
 1.3040	37.2220
 1.3050	37.0990
 1.3060	36.9740
 1.3070	36.8450
 1.3080	36.7140
 1.3090	36.5780
 1.3100	36.4340
 1.3110	36.2850
 1.3120	36.1310
 1.3130	35.9700
 1.3140	35.8050
 1.3150	35.6350
 1.3160	35.4600
 1.3170	35.2810
 1.3180	35.0980
 1.3190	34.9090
 1.3200	34.7140
 1.3210	34.5140
 1.3220	34.3090
 1.3230	34.1000
 1.3240	33.8870
 1.3250	33.6740
 1.3260	33.4580
 1.3270	33.2360
 1.3280	33.0120
 1.3290	32.7830
 1.3300	32.5500
 1.3310	32.3180
 1.3320	32.0840
 1.3330	31.8510
 1.3340	31.6180
 1.3350	31.3850
 1.3360	31.1540
 1.3370	30.9190
 1.3380	30.6880
 1.3390	30.4580
 1.3400	30.2280
 1.3410	30.0050
 1.3420	29.7840
 1.3430	29.5630
 1.3440	29.3470
 1.3450	29.1340
 1.3460	28.9220
 1.3470	28.7160
 1.3480	28.5130
 1.3490	28.3140
 1.3500	28.1180
 1.3510	27.9250
 1.3520	27.7330
 1.3530	27.5430
 1.3540	27.3540
 1.3550	27.1670
 1.3560	26.9810
 1.3570	26.7940
 1.3580	26.6080
 1.3590	26.4190
 1.3600	26.2280
 1.3610	26.0340
 1.3620	25.8340
 1.3630	25.6290
 1.3640	25.4180
 1.3650	25.1990
 1.3660	24.9720
 1.3670	24.7370
 1.3680	24.4900
 1.3690	24.2300
 1.3700	23.9560
 1.3710	23.6690
 1.3720	23.3670
 1.3730	23.0470
 1.3740	22.7130
 1.3750	22.3600
 1.3760	21.9850
 1.3770	21.5920
 1.3780	21.1750
 1.3790	20.7380
 1.3800	20.2850
 1.3810	19.8110
 1.3820	19.3260
 1.3830	18.8260
 1.3840	18.3170
 1.3850	17.7930
 1.3860	17.2690
 1.3870	16.7310
 1.3880	16.2010
 1.3890	15.6690
 1.3900	15.1380
 1.3910	14.6190
 1.3920	14.1060
 1.3930	13.6000
 1.3940	13.1110
 1.3950	12.6290
 1.3960	12.1650
 1.3970	11.7200
 1.3980	11.2930
 1.3990	10.8910
 1.4000	10.5090
 1.4010	10.1460
 1.4020	 9.8050
 1.4030	 9.4830
 1.4040	 9.1810
 1.4050	 8.9010
 1.4060	 8.6390
 1.4070	 8.3980
 1.4080	 8.1750
 1.4090	 7.9670
 1.4100	 7.7770
 1.4110	 7.6020
 1.4120	 7.4410
 1.4130	 7.2940
 1.4140	 7.1600
 1.4150	 7.0380
 1.4160	 6.9260
 1.4170	 6.8240
 1.4180	 6.7310
 1.4190	 6.6470
 1.4200	 6.5700
 1.4210	 6.5000
 1.4220	 6.4370
 1.4230	 6.3790
 1.4240	 6.3270
 1.4250	 6.2800
 1.4260	 6.2390
 1.4270	 6.2010
 1.4280	 6.1680
 1.4290	 6.1370
 1.4300	 6.1110
 1.4310	 6.0870
 1.4320	 6.0670
 1.4330	 6.0480
 1.4340	 6.0330
 1.4350	 6.0200
 1.4360	 6.0090
 1.4370	 6.0000
 1.4380	 5.9930
 1.4390	 5.9880
 1.4400	 5.9850
 1.4410	 5.9840
 1.4420	 5.9850
 1.4430	 5.9860
 1.4440	 5.9890
 1.4450	 5.9920
 1.4460	 5.9950
 1.4470	 6.0000
 1.4480	 6.0050
 1.4490	 6.0120
 1.4500	 6.0190
 1.4510	 6.0270
 1.4520	 6.0360
 1.4530	 6.0450
 1.4540	 6.0550
 1.4550	 6.0660
 1.4560	 6.0790
 1.4570	 6.0920
 1.4580	 6.1060
 1.4590	 6.1220
 1.4600	 6.1390
 1.4610	 6.1590
 1.4620	 6.1800
 1.4630	 6.2040
 1.4640	 6.2290
 1.4650	 6.2560
 1.4660	 6.2860
 1.4670	 6.3170
 1.4680	 6.3510
 1.4690	 6.3880
 1.4700	 6.4270
 1.4710	 6.4690
 1.4720	 6.5130
 1.4730	 6.5570
 1.4740	 6.6030
 1.4750	 6.6520
 1.4760	 6.7030
 1.4770	 6.7560
 1.4780	 6.8110
 1.4790	 6.8670
 1.4800	 6.9240
 1.4810	 6.9830
 1.4820	 7.0430
 1.4830	 7.1030
 1.4840	 7.1650
 1.4850	 7.2280
 1.4860	 7.2920
 1.4870	 7.3580
 1.4880	 7.4240
 1.4890	 7.4910
 1.4900	 7.5590
 1.4910	 7.6250
 1.4920	 7.6940
 1.4930	 7.7640
 1.4940	 7.8350
 1.4950	 7.9070
 1.4960	 7.9790
 1.4970	 8.0510
 1.4980	 8.1240
 1.4990	 8.1970
 1.5000	 8.2720
 1.5010	 8.3470
 1.5020	 8.4210
 1.5030	 8.4970
 1.5040	 8.5720
 1.5050	 8.6470
 1.5060	 8.7230
 1.5070	 8.7990
 1.5080	 8.8760
 1.5090	 8.9540
 1.5100	 9.0320
 1.5110	 9.1090
 1.5120	 9.1870
 1.5130	 9.2650
 1.5140	 9.3410
 1.5150	 9.4200
 1.5160	 9.4970
 1.5170	 9.5750
 1.5180	 9.6530
 1.5190	 9.7310
 1.5200	 9.8100
 1.5210	 9.8870
 1.5220	 9.9650
 1.5230	10.0430
 1.5240	10.1210
 1.5250	10.1990
 1.5260	10.2760
 1.5270	10.3530
 1.5280	10.4300
 1.5290	10.5060
 1.5300	10.5830
 1.5310	10.6590
 1.5320	10.7340
 1.5330	10.8090
 1.5340	10.8840
 1.5350	10.9580
 1.5360	11.0320
 1.5370	11.1040
 1.5380	11.1770
 1.5390	11.2510
 1.5400	11.3230
 1.5410	11.3960
 1.5420	11.4690
 1.5430	11.5420
 1.5440	11.6150
 1.5450	11.6870
 1.5460	11.7590
 1.5470	11.8290
 1.5480	11.8990
 1.5490	11.9700
 1.5500	12.0400
 1.5510	12.1100
 1.5520	12.1800
 1.5530	12.2490
 1.5540	12.3180
 1.5550	12.3860
 1.5560	12.4530
 1.5570	12.5190
 1.5580	12.5850
 1.5590	12.6520
 1.5600	12.7190
 1.5610	12.7830
 1.5620	12.8460
 1.5630	12.9100
 1.5640	12.9710
 1.5650	13.0350
 1.5660	13.0980
 1.5670	13.1610
 1.5680	13.2230
 1.5690	13.2840
 1.5700	13.3440
 1.5710	13.4040
 1.5720	13.4640
 1.5730	13.5250
 1.5740	13.5860
 1.5750	13.6460
 1.5760	13.7060
 1.5770	13.7650
 1.5780	13.8240
 1.5790	13.8840
 1.5800	13.9420
 1.5810	14.0000
 1.5820	14.0580
 1.5830	14.1150
 1.5840	14.1740
 1.5850	14.2320
 1.5860	14.2890
 1.5870	14.3470
 1.5880	14.4040
 1.5890	14.4600
 1.5900	14.5160
 1.5910	14.5720
 1.5920	14.6280
 1.5930	14.6830
 1.5940	14.7370
 1.5950	14.7910
 1.5960	14.8460
 1.5970	14.9000
 1.5980	14.9540
 1.5990	15.0070
 1.6000	15.0600
 1.6010	15.1110
 1.6020	15.1620
 1.6030	15.2140
 1.6040	15.2650
 1.6050	15.3140
 1.6060	15.3630
 1.6070	15.4120
 1.6080	15.4600
 1.6090	15.5080
 1.6100	15.5560
 1.6110	15.6020
 1.6120	15.6480
 1.6130	15.6920
 1.6140	15.7370
 1.6150	15.7830
 1.6160	15.8280
 1.6170	15.8700
 1.6180	15.9130
 1.6190	15.9550
 1.6200	15.9950
 1.6210	16.0360
 1.6220	16.0750
 1.6230	16.1140
 1.6240	16.1540
 1.6250	16.1910
 1.6260	16.2300
 1.6270	16.2660
 1.6280	16.3000
 1.6290	16.3330
 1.6300	16.3650
 1.6310	16.3970
 1.6320	16.4280
 1.6330	16.4580
 1.6340	16.4870
 1.6350	16.5140
 1.6360	16.5380
 1.6370	16.5610
 1.6380	16.5820
 1.6390	16.6010
 1.6400	16.6190
 1.6410	16.6330
 1.6420	16.6430
 1.6430	16.6510
 1.6440	16.6560
 1.6450	16.6590
 1.6460	16.6600
 1.6470	16.6590
 1.6480	16.6550
 1.6490	16.6480
 1.6500	16.6410
 1.6510	16.6300
 1.6520	16.6180
 1.6530	16.6050
 1.6540	16.5880
 1.6550	16.5700
 1.6560	16.5510
 1.6570	16.5330
 1.6580	16.5170
 1.6590	16.5020
 1.6600	16.4880
 1.6610	16.4760
 1.6620	16.4680
 1.6630	16.4630
 1.6640	16.4630
 1.6650	16.4650
 1.6660	16.4690
 1.6670	16.4750
 1.6680	16.4840
 1.6690	16.4960
 1.6700	16.5110
 1.6710	16.5270
 1.6720	16.5420
 1.6730	16.5580
 1.6740	16.5730
 1.6750	16.5870
 1.6760	16.5990
 1.6770	16.6080
 1.6780	16.6150
 1.6790	16.6190
 1.6800	16.6210
 1.6810	16.6190
 1.6820	16.6150
 1.6830	16.6080
 1.6840	16.5970
 1.6850	16.5830
 1.6860	16.5670
 1.6870	16.5500
 1.6880	16.5310
 1.6890	16.5120
 1.6900	16.4900
 1.6910	16.4670
 1.6920	16.4430
 1.6930	16.4180
 1.6940	16.3920
 1.6950	16.3650
 1.6960	16.3370
 1.6970	16.3070
 1.6980	16.2760
 1.6990	16.2440
 1.7000	16.2110
 1.7010	16.1780
 1.7020	16.1440
 1.7030	16.1100
 1.7040	16.0740
 1.7050	16.0370
 1.7060	15.9970
 1.7070	15.9530
 1.7080	15.9120
 1.7090	15.8690
 1.7100	15.8260
 1.7110	15.7850
 1.7120	15.7420
 1.7130	15.6990
 1.7140	15.6550
 1.7150	15.6080
 1.7160	15.5620
 1.7170	15.5150
 1.7180	15.4690
 1.7190	15.4240
 1.7200	15.3780
 1.7210	15.3310
 1.7220	15.2830
 1.7230	15.2350
 1.7240	15.1850
 1.7250	15.1370
 1.7260	15.0900
 1.7270	15.0460
 1.7280	15.0030
 1.7290	14.9600
 1.7300	14.9170
 1.7310	14.8770
 1.7320	14.8380
 1.7330	14.7990
 1.7340	14.7630
 1.7350	14.7250
 1.7360	14.6870
 1.7370	14.6480
 1.7380	14.6070
 1.7390	14.5660
 1.7400	14.5230
 1.7410	14.4800
 1.7420	14.4370
 1.7430	14.3930
 1.7440	14.3490
 1.7450	14.3030
 1.7460	14.2570
 1.7470	14.2100
 1.7480	14.1610
 1.7490	14.1150
 1.7500	14.0690
 1.7510	14.0220
 1.7520	13.9760
 1.7530	13.9280
 1.7540	13.8790
 1.7550	13.8310
 1.7560	13.7840
 1.7570	13.7370
 1.7580	13.6910
 1.7590	13.6450
 1.7600	13.5990
 1.7610	13.5550
 1.7620	13.5120
 1.7630	13.4720
 1.7640	13.4320
 1.7650	13.3930
 1.7660	13.3560
 1.7670	13.3210
 1.7680	13.2860
 1.7690	13.2510
 1.7700	13.2170
 1.7710	13.1850
 1.7720	13.1530
 1.7730	13.1250
 1.7740	13.0960
 1.7750	13.0680
 1.7760	13.0400
 1.7770	13.0120
 1.7780	12.9870
 1.7790	12.9620
 1.7800	12.9390
 1.7810	12.9190
 1.7820	12.9000
 1.7830	12.8820
 1.7840	12.8670
 1.7850	12.8540
 1.7860	12.8400
 1.7870	12.8260
 1.7880	12.8140
 1.7890	12.8040
 1.7900	12.7990
 1.7910	12.7930
 1.7920	12.7880
 1.7930	12.7850
 1.7940	12.7830
 1.7950	12.7810
 1.7960	12.7830
 1.7970	12.7830
 1.7980	12.7840
 1.7990	12.7850
 1.8000	12.7860
 1.8010	12.7880
 1.8020	12.7910
 1.8030	12.7940
 1.8040	12.7980
 1.8050	12.8020
 1.8060	12.8090
 1.8070	12.8140
 1.8080	12.8180
 1.8090	12.8210
 1.8100	12.8230
 1.8110	12.8250
 1.8120	12.8280
 1.8130	12.8290
 1.8140	12.8300
 1.8150	12.8330
 1.8160	12.8360
 1.8170	12.8380
 1.8180	12.8400
 1.8190	12.8370
 1.8200	12.8340
 1.8210	12.8290
 1.8220	12.8240
 1.8230	12.8180
 1.8240	12.8120
 1.8250	12.8080
 1.8260	12.8000
 1.8270	12.7920
 1.8280	12.7840
 1.8290	12.7760
 1.8300	12.7690
 1.8310	12.7610
 1.8320	12.7530
 1.8330	12.7460
 1.8340	12.7380
 1.8350	12.7380
 1.8360	12.7060
 1.8370	12.6680
 1.8380	12.6310
 1.8390	12.5900
 1.8400	12.5460
 1.8410	12.4990
 1.8420	12.4540
 1.8430	12.3980
 1.8440	12.3340
 1.8450	12.2680
 1.8460	12.1920
 1.8470	12.1110
 1.8480	12.0280
 1.8490	11.9360
 1.8500	11.8380
 1.8510	11.7360
 1.8520	11.6250
 1.8530	11.5030
 1.8540	11.3740
 1.8550	11.2390
 1.8560	11.0950
 1.8570	10.9410
 1.8580	10.7800
 1.8590	10.6110
 1.8600	10.4330
 1.8610	10.2460
 1.8620	10.0560
 1.8630	 9.8540
 1.8640	 9.6440
 1.8650	 9.4270
 1.8660	 9.2010
 1.8670	 8.9680
 1.8680	 8.7300
 1.8690	 8.4850
 1.8700	 8.2370
 1.8710	 7.9830
 1.8720	 7.7290
 1.8730	 7.4740
 1.8740	 7.2200
 1.8750	 6.9670
 1.8760	 6.7160
 1.8770	 6.4700
 1.8780	 6.2320
 1.8790	 6.0010
 1.8800	 5.7800
 1.8810	 5.5680
 1.8820	 5.3640
 1.8830	 5.1670
 1.8840	 4.9790
 1.8850	 4.8010
 1.8860	 4.6330
 1.8870	 4.4760
 1.8880	 4.3310
 1.8890	 4.2000
 1.8900	 4.0790
 1.8910	 3.9680
 1.8920	 3.8670
 1.8930	 3.7760
 1.8940	 3.6910
 1.8950	 3.6160
 1.8960	 3.5510
 1.8970	 3.4910
 1.8980	 3.4400
 1.8990	 3.3960
 1.9000	 3.3560
 1.9010	 3.3230
 1.9020	 3.2930
 1.9030	 3.2680
 1.9040	 3.2470
 1.9050	 3.2290
 1.9060	 3.2120
 1.9070	 3.1980
 1.9080	 3.1860
 1.9090	 3.1760
 1.9100	 3.1680
 1.9110	 3.1610
 1.9120	 3.1550
 1.9130	 3.1480
 1.9140	 3.1410
 1.9150	 3.1360
 1.9160	 3.1310
 1.9170	 3.1260
 1.9180	 3.1220
 1.9190	 3.1190
 1.9200	 3.1140
 1.9210	 3.1110
 1.9220	 3.1090
 1.9230	 3.1100
 1.9240	 3.1100
 1.9250	 3.1110
 1.9260	 3.1120
 1.9270	 3.1120
 1.9280	 3.1110
 1.9290	 3.1100
 1.9300	 3.1070
 1.9310	 3.1060
 1.9320	 3.1080
 1.9330	 3.1080
 1.9340	 3.1080
 1.9350	 3.1100
 1.9360	 3.1110
 1.9370	 3.1120
 1.9380	 3.1130
 1.9390	 3.1180
 1.9400	 3.1230
 1.9410	 3.1270
 1.9420	 3.1310
 1.9430	 3.1350
 1.9440	 3.1400
 1.9450	 3.1460
 1.9460	 3.1490
 1.9470	 3.1530
 1.9480	 3.1560
 1.9490	 3.1570
 1.9500	 3.1570
 1.9510	 3.1610
 1.9520	 3.1670
 1.9530	 3.1730
 1.9540	 3.1780
 1.9550	 3.1850
 1.9560	 3.1930
 1.9570	 3.1990
 1.9580	 3.2050
 1.9590	 3.2100
 1.9600	 3.2130
 1.9610	 3.2180
 1.9620	 3.2230
 1.9630	 3.2290
 1.9640	 3.2360
 1.9650	 3.2430
 1.9660	 3.2510
 1.9670	 3.2580
 1.9680	 3.2660
 1.9690	 3.2750
 1.9700	 3.2840
 1.9710	 3.2930
 1.9720	 3.3020
 1.9730	 3.3110
 1.9740	 3.3200
 1.9750	 3.3290
 1.9760	 3.3390
 1.9770	 3.3470
 1.9780	 3.3560
 1.9790	 3.3660
 1.9800	 3.3760
 1.9810	 3.3870
 1.9820	 3.4000
 1.9830	 3.4120
 1.9840	 3.4240
 1.9850	 3.4360
 1.9860	 3.4490
 1.9870	 3.4620
 1.9880	 3.4710
 1.9890	 3.4820
 1.9900	 3.4960
 1.9910	 3.5090
 1.9920	 3.5220
 1.9930	 3.5370
 1.9940	 3.5520
 1.9950	 3.5650
 1.9960	 3.5800
 1.9970	 3.5990
 1.9980	 3.6140
 1.9990	 3.6270
 2.0000	 3.6390
 2.0010	 3.6520
 2.0020	 3.6650
 2.0030	 3.6820
 2.0040	 3.6980
 2.0050	 3.7140
 2.0060	 3.7330
 2.0070	 3.7490
 2.0080	 3.7630
 2.0090	 3.7790
 2.0100	 3.7980
 2.0110	 3.8140
 2.0120	 3.8310
 2.0130	 3.8450
 2.0140	 3.8580
 2.0150	 3.8700
 2.0160	 3.8860
 2.0170	 3.9050
 2.0180	 3.9230
 2.0190	 3.9440
 2.0200	 3.9600
 2.0210	 3.9740
 2.0220	 3.9890
 2.0230	 4.0040
 2.0240	 4.0190
 2.0250	 4.0350
 2.0260	 4.0500
 2.0270	 4.0650
 2.0280	 4.0790
 2.0290	 4.0940
 2.0300	 4.1110
 2.0310	 4.1260
 2.0320	 4.1410
 2.0330	 4.1570
 2.0340	 4.1720
 2.0350	 4.1870
 2.0360	 4.2030
 2.0370	 4.2170
 2.0380	 4.2310
 2.0390	 4.2460
 2.0400	 4.2590
 2.0410	 4.2730
 2.0420	 4.2870
 2.0430	 4.3000
 2.0440	 4.3130
 2.0450	 4.3250
 2.0460	 4.3370
 2.0470	 4.3460
 2.0480	 4.3580
 2.0490	 4.3700
 2.0500	 4.3830
 2.0510	 4.3990
 2.0520	 4.4120
 2.0530	 4.4220
 2.0540	 4.4340
 2.0550	 4.4450
 2.0560	 4.4570
 2.0570	 4.4720
 2.0580	 4.4860
 2.0590	 4.4990
 2.0600	 4.5120
 2.0610	 4.5250
 2.0620	 4.5370
 2.0630	 4.5510
 2.0640	 4.5650
 2.0650	 4.5790
 2.0660	 4.5950
 2.0670	 4.6090
 2.0680	 4.6220
 2.0690	 4.6350
 2.0700	 4.6460
 2.0710	 4.6570
 2.0720	 4.6690
 2.0730	 4.6810
 2.0740	 4.6950
 2.0750	 4.7100
 2.0760	 4.7250
 2.0770	 4.7420
 2.0780	 4.7560
 2.0790	 4.7710
 2.0800	 4.7830
 2.0810	 4.7920
 2.0820	 4.8020
 2.0830	 4.8120
 2.0840	 4.8220
 2.0850	 4.8340
 2.0860	 4.8460
 2.0870	 4.8570
 2.0880	 4.8700
 2.0890	 4.8830
 2.0900	 4.8960
 2.0910	 4.9090
 2.0920	 4.9230
 2.0930	 4.9360
 2.0940	 4.9470
 2.0950	 4.9590
 2.0960	 4.9710
 2.0970	 4.9830
 2.0980	 4.9960
 2.0990	 5.0090
 2.1000	 5.0200
 2.1010	 5.0320
 2.1020	 5.0460
 2.1030	 5.0580
 2.1040	 5.0710
 2.1050	 5.0830
 2.1060	 5.0960
 2.1070	 5.1080
 2.1080	 5.1200
 2.1090	 5.1320
 2.1100	 5.1440
 2.1110	 5.1540
 2.1120	 5.1660
 2.1130	 5.1780
 2.1140	 5.1890
 2.1150	 5.2000
 2.1160	 5.2110
 2.1170	 5.2240
 2.1180	 5.2350
 2.1190	 5.2450
 2.1200	 5.2560
 2.1210	 5.2680
 2.1220	 5.2770
 2.1230	 5.2870
 2.1240	 5.2980
 2.1250	 5.3090
 2.1260	 5.3180
 2.1270	 5.3280
 2.1280	 5.3380
 2.1290	 5.3470
 2.1300	 5.3560
 2.1310	 5.3650
 2.1320	 5.3750
 2.1330	 5.3850
 2.1340	 5.3940
 2.1350	 5.4050
 2.1360	 5.4200
 2.1370	 5.4320
 2.1380	 5.4460
 2.1390	 5.4570
 2.1400	 5.4660
 2.1410	 5.4740
 2.1420	 5.4840
 2.1430	 5.4960
 2.1440	 5.5060
 2.1450	 5.5160
 2.1460	 5.5260
 2.1470	 5.5360
 2.1480	 5.5480
 2.1490	 5.5640
 2.1500	 5.5770
 2.1510	 5.5890
 2.1520	 5.6020
 2.1530	 5.6130
 2.1540	 5.6260
 2.1550	 5.6400
 2.1560	 5.6530
 2.1570	 5.6650
 2.1580	 5.6780
 2.1590	 5.6930
 2.1600	 5.7080
 2.1610	 5.7220
 2.1620	 5.7360
 2.1630	 5.7490
 2.1640	 5.7590
 2.1650	 5.7710
 2.1660	 5.7830
 2.1670	 5.7960
 2.1680	 5.8120
 2.1690	 5.8240
 2.1700	 5.8360
 2.1710	 5.8480
 2.1720	 5.8590
 2.1730	 5.8720
 2.1740	 5.8900
 2.1750	 5.9030
 2.1760	 5.9170
 2.1770	 5.9290
 2.1780	 5.9370
 2.1790	 5.9470
 2.1800	 5.9570
 2.1810	 5.9670
 2.1820	 5.9770
 2.1830	 5.9880
 2.1840	 5.9990
 2.1850	 6.0100
 2.1860	 6.0210
 2.1870	 6.0290
 2.1880	 6.0430
 2.1890	 6.0600
 2.1900	 6.0760
 2.1910	 6.0970
 2.1920	 6.1130
 2.1930	 6.1240
 2.1940	 6.1380
 2.1950	 6.1510
 2.1960	 6.1630
 2.1970	 6.1740
 2.1980	 6.1850
 2.1990	 6.1960
 2.2000	 6.2080
 2.2010	 6.2200
 2.2020	 6.2330
 2.2030	 6.2460
 2.2040	 6.2600
 2.2050	 6.2750
 2.2060	 6.2890
 2.2070	 6.3000
 2.2080	 6.3080
 2.2090	 6.3170
 2.2100	 6.3240
 2.2110	 6.3320
 2.2120	 6.3400
 2.2130	 6.3480
 2.2140	 6.3550
 2.2150	 6.3630
 2.2160	 6.3720
 2.2170	 6.3790
 2.2180	 6.3870
 2.2190	 6.3910
 2.2200	 6.3930
 2.2210	 6.3950
 2.2220	 6.3950
 2.2230	 6.3950
 2.2240	 6.3960
 2.2250	 6.3940
 2.2260	 6.3870
 2.2270	 6.3830
 2.2280	 6.3760
 2.2290	 6.3700
 2.2300	 6.3670
 2.2310	 6.3620
 2.2320	 6.3530
 2.2330	 6.3440
 2.2340	 6.3310
 2.2350	 6.3130
 2.2360	 6.3000
 2.2370	 6.2890
 2.2380	 6.2740
 2.2390	 6.2600
 2.2400	 6.2420
 2.2410	 6.2170
 2.2420	 6.1960
 2.2430	 6.1760
 2.2440	 6.1570
 2.2450	 6.1420
 2.2460	 6.1220
 2.2470	 6.1020
 2.2480	 6.0800
 2.2490	 6.0520
 2.2500	 6.0270
 2.2510	 6.0040
 2.2520	 5.9780
 2.2530	 5.9500
 2.2540	 5.9240
 2.2550	 5.8960
 2.2560	 5.8690
 2.2570	 5.8460
 2.2580	 5.8200
 2.2590	 5.7910
 2.2600	 5.7640
 2.2610	 5.7340
 2.2620	 5.7070
 2.2630	 5.6850
 2.2640	 5.6630
 2.2650	 5.6420
 2.2660	 5.6210
 2.2670	 5.5970
 2.2680	 5.5710
 2.2690	 5.5460
 2.2700	 5.5200
 2.2710	 5.4960
 2.2720	 5.4720
 2.2730	 5.4500
 2.2740	 5.4290
 2.2750	 5.4110
 2.2760	 5.3930
 2.2770	 5.3780
 2.2780	 5.3670
 2.2790	 5.3530
 2.2800	 5.3420
 2.2810	 5.3250
 2.2820	 5.3030
 2.2830	 5.2830
 2.2840	 5.2590
 2.2850	 5.2420
 2.2860	 5.2290
 2.2870	 5.2140
 2.2880	 5.2050
 2.2890	 5.1880
 2.2900	 5.1660
 2.2910	 5.1460
 2.2920	 5.1230
 2.2930	 5.1020
 2.2940	 5.0840
 2.2950	 5.0660
 2.2960	 5.0530
 2.2970	 5.0340
 2.2980	 5.0110
 2.2990	 4.9880
 2.3000	 4.9640
 2.3010	 4.9370
 2.3020	 4.9200
 2.3030	 4.9070
 2.3040	 4.8910
 2.3050	 4.8770
 2.3060	 4.8590
 2.3070	 4.8420
 2.3080	 4.8300
 2.3090	 4.8150
 2.3100	 4.8070
 2.3110	 4.8020
 2.3120	 4.7950
 2.3130	 4.7890
 2.3140	 4.7800
 2.3150	 4.7690
 2.3160	 4.7570
 2.3170	 4.7430
 2.3180	 4.7290
 2.3190	 4.7120
 2.3200	 4.7000
 2.3210	 4.6900
 2.3220	 4.6760
 2.3230	 4.6620
 2.3240	 4.6500
 2.3250	 4.6360
 2.3260	 4.6220
 2.3270	 4.6130
 2.3280	 4.5970
 2.3290	 4.5750
 2.3300	 4.5600
 2.3310	 4.5460
 2.3320	 4.5350
 2.3330	 4.5330
 2.3340	 4.5220
 2.3350	 4.5080
 2.3360	 4.4950
 2.3370	 4.4760
 2.3380	 4.4620
 2.3390	 4.4530
 2.3400	 4.4420
 2.3410	 4.4310
 2.3420	 4.4170
 2.3430	 4.4000
 2.3440	 4.3850
 2.3450	 4.3670
 2.3460	 4.3540
 2.3470	 4.3450
 2.3480	 4.3360
 2.3490	 4.3300
 2.3500	 4.3210
 2.3510	 4.3090
 2.3520	 4.2980
 2.3530	 4.2840
 2.3540	 4.2770
 2.3550	 4.2670
 2.3560	 4.2610
 2.3570	 4.2580
 2.3580	 4.2490
 2.3590	 4.2440
 2.3600	 4.2420
 2.3610	 4.2350
 2.3620	 4.2200
 2.3630	 4.2070
 2.3640	 4.1870
 2.3650	 4.1620
 2.3660	 4.1450
 2.3670	 4.1260
 2.3680	 4.1080
 2.3690	 4.0980
 2.3700	 4.0870
 2.3710	 4.0780
 2.3720	 4.0700
 2.3730	 4.0620
 2.3740	 4.0580
 2.3750	 4.0540
 2.3760	 4.0500
 2.3770	 4.0420
 2.3780	 4.0300
 2.3790	 4.0160
 2.3800	 4.0000
 2.3810	 3.9890
 2.3820	 3.9780
 2.3830	 3.9690
 2.3840	 3.9590
 2.3850	 3.9510
 2.3860	 3.9440
 2.3870	 3.9340
 2.3880	 3.9250
 2.3890	 3.9130
 2.3900	 3.8980
 2.3910	 3.8880
 2.3920	 3.8800
 2.3930	 3.8700
 2.3940	 3.8570
 2.3950	 3.8390
 2.3960	 3.8280
 2.3970	 3.8240
 2.3980	 3.8250
 2.3990	 3.8220
 2.4000	 3.8100
 2.4010	 3.7930
 2.4020	 3.7710
 2.4030	 3.7500
 2.4040	 3.7390
 2.4050	 3.7240
 2.4060	 3.7120
 2.4070	 3.7050
 2.4080	 3.6940
 2.4090	 3.6840
 2.4100	 3.6760
 2.4110	 3.6680
 2.4120	 3.6580
 2.4130	 3.6440
 2.4140	 3.6330
 2.4150	 3.6210
 2.4160	 3.6190
 2.4170	 3.6190
 2.4180	 3.6150
 2.4190	 3.6150
 2.4200	 3.6010
 2.4210	 3.5870
 2.4220	 3.5750
 2.4230	 3.5710
 2.4240	 3.5700
 2.4250	 3.5560
 2.4260	 3.5550
 2.4270	 3.5460
 2.4280	 3.5370
 2.4290	 3.5440
 2.4300	 3.5410
 2.4310	 3.5290
 2.4320	 3.5070
 2.4330	 3.4690
 2.4340	 3.4280
 2.4350	 3.4090
 2.4360	 3.4010
 2.4370	 3.4120
 2.4380	 3.4320
 2.4390	 3.4270
 2.4400	 3.4160
 2.4410	 3.3940
 2.4420	 3.3710
 2.4430	 3.3580
 2.4440	 3.3500
 2.4450	 3.3550
 2.4460	 3.3520
 2.4470	 3.3430
 2.4480	 3.3380
 2.4490	 3.3330
 2.4500	 3.3320
 2.4510	 3.3390
 2.4520	 3.3400
 2.4530	 3.3260
 2.4540	 3.3160
 2.4550	 3.3070
 2.4560	 3.2990
 2.4570	 3.2880
 2.4580	 3.2660
 2.4590	 3.2550
 2.4600	 3.2540
 2.4610	 3.2540
 2.4620	 3.2630
 2.4630	 3.2670
 2.4640	 3.2620
 2.4650	 3.2440
 2.4660	 3.2360
 2.4670	 3.2220
 2.4680	 3.1970
 2.4690	 3.1940
 2.4700	 3.1900
 2.4710	 3.1970
 2.4720	 3.2000
 2.4730	 3.2010
 2.4740	 3.1980
 2.4750	 3.1970
 2.4760	 3.1980
 2.4770	 3.2050
 2.4780	 3.1900
 2.4790	 3.1650
 2.4800	 3.1500
 2.4810	 3.1080
 2.4820	 3.1380
 2.4830	 3.1560
 2.4840	 3.1430
 2.4850	 3.1420
 2.4860	 3.1230
 2.4870	 3.0930
 2.4880	 3.1260
 2.4890	 3.1440
 2.4900	 3.1510
 2.4910	 3.1900
 2.4920	 3.1850
 2.4930	 3.2080
 2.4940	 3.2320
 2.4950	 3.2250
 2.4960	 3.2090
 2.4970	 3.1860
 2.4980	 3.1920
 2.4990	 3.1700
 2.5000	 3.1860
