Name: Salvia leucophylla 1
Type: vegetation
Class: Shrub
Genus: Salvia
Species: leucophylla
Sample No.: VH187
Owner: UCSB
Wavelength Range: VSWIR
Origin: 34.698; -120.0477; WGS84
Collection Date: 6/9/2013
Description: Samples were collected as part of the HyspIRI Airborne Campaign. 48 individual plants were sampled in three times in 2013 - spring  summer  and fall. The name of the sample includes a 1  2  or 3 which references a different individual of the species. Samples were taken to JPL and processed within 48 hours of collection. The same leaves were processed in the Nicolet and then measured using the ASD.
Measurement: Bidirectional reflectance
First Column: X
Second Column: Y
X Units: Wavelength (micrometers)
Y Units: Reflectance (percentage)
First X Value: 0.35
Last X Value: 2.5
Number of X Values: 2151
Additional Information: vegetation.shrub.salvia.leucophylla.vswir.vh187.ucsb.asd.ancillary.txt

 0.3500	 5.2860
 0.3510	 5.2680
 0.3520	 5.3370
 0.3530	 5.3840
 0.3540	 5.3370
 0.3550	 5.3540
 0.3560	 5.3450
 0.3570	 5.3740
 0.3580	 5.5280
 0.3590	 5.3680
 0.3600	 5.2900
 0.3610	 5.4240
 0.3620	 5.4210
 0.3630	 5.4180
 0.3640	 5.4930
 0.3650	 5.6450
 0.3660	 5.6060
 0.3670	 5.6800
 0.3680	 5.8510
 0.3690	 5.8920
 0.3700	 5.9960
 0.3710	 6.0820
 0.3720	 6.1050
 0.3730	 6.1670
 0.3740	 6.1830
 0.3750	 6.2370
 0.3760	 6.4090
 0.3770	 6.5100
 0.3780	 6.6420
 0.3790	 6.7850
 0.3800	 6.8230
 0.3810	 6.8990
 0.3820	 6.9830
 0.3830	 7.0360
 0.3840	 7.0800
 0.3850	 7.1610
 0.3860	 7.2810
 0.3870	 7.4340
 0.3880	 7.5960
 0.3890	 7.6770
 0.3900	 7.6730
 0.3910	 7.6710
 0.3920	 7.7830
 0.3930	 7.9210
 0.3940	 8.0040
 0.3950	 8.0930
 0.3960	 8.1630
 0.3970	 8.2090
 0.3980	 8.2450
 0.3990	 8.3320
 0.4000	 8.4230
 0.4010	 8.4990
 0.4020	 8.5770
 0.4030	 8.6410
 0.4040	 8.6750
 0.4050	 8.6900
 0.4060	 8.7550
 0.4070	 8.8300
 0.4080	 8.8990
 0.4090	 8.9610
 0.4100	 9.0040
 0.4110	 9.0530
 0.4120	 9.1140
 0.4130	 9.1720
 0.4140	 9.2380
 0.4150	 9.3130
 0.4160	 9.3890
 0.4170	 9.4410
 0.4180	 9.5110
 0.4190	 9.6000
 0.4200	 9.6730
 0.4210	 9.7440
 0.4220	 9.8100
 0.4230	 9.8780
 0.4240	 9.9810
 0.4250	10.0760
 0.4260	10.1530
 0.4270	10.2190
 0.4280	10.2690
 0.4290	10.3370
 0.4300	10.4280
 0.4310	10.5130
 0.4320	10.6080
 0.4330	10.6990
 0.4340	10.7710
 0.4350	10.8440
 0.4360	10.9200
 0.4370	10.9920
 0.4380	11.0520
 0.4390	11.1020
 0.4400	11.1590
 0.4410	11.2260
 0.4420	11.2830
 0.4430	11.3350
 0.4440	11.3890
 0.4450	11.4470
 0.4460	11.4980
 0.4470	11.5540
 0.4480	11.6120
 0.4490	11.6500
 0.4500	11.6980
 0.4510	11.7490
 0.4520	11.7930
 0.4530	11.8260
 0.4540	11.8630
 0.4550	11.9080
 0.4560	11.9550
 0.4570	11.9860
 0.4580	12.0180
 0.4590	12.0590
 0.4600	12.0890
 0.4610	12.1260
 0.4620	12.1630
 0.4630	12.1870
 0.4640	12.2090
 0.4650	12.2320
 0.4660	12.2620
 0.4670	12.3030
 0.4680	12.3280
 0.4690	12.3500
 0.4700	12.3780
 0.4710	12.3960
 0.4720	12.4180
 0.4730	12.4420
 0.4740	12.4600
 0.4750	12.4740
 0.4760	12.4900
 0.4770	12.5100
 0.4780	12.5300
 0.4790	12.5470
 0.4800	12.5570
 0.4810	12.5650
 0.4820	12.5920
 0.4830	12.6060
 0.4840	12.6120
 0.4850	12.6440
 0.4860	12.6770
 0.4870	12.7080
 0.4880	12.7380
 0.4890	12.7550
 0.4900	12.7830
 0.4910	12.8220
 0.4920	12.8590
 0.4930	12.8960
 0.4940	12.9400
 0.4950	12.9880
 0.4960	13.0270
 0.4970	13.0770
 0.4980	13.1340
 0.4990	13.1900
 0.5000	13.2630
 0.5010	13.3440
 0.5020	13.4290
 0.5030	13.5130
 0.5040	13.6100
 0.5050	13.7150
 0.5060	13.8260
 0.5070	13.9450
 0.5080	14.0720
 0.5090	14.2130
 0.5100	14.3740
 0.5110	14.5380
 0.5120	14.7080
 0.5130	14.8900
 0.5140	15.0840
 0.5150	15.2920
 0.5160	15.5110
 0.5170	15.7350
 0.5180	15.9680
 0.5190	16.2080
 0.5200	16.4530
 0.5210	16.7020
 0.5220	16.9550
 0.5230	17.2070
 0.5240	17.4550
 0.5250	17.7060
 0.5260	17.9490
 0.5270	18.1850
 0.5280	18.4160
 0.5290	18.6460
 0.5300	18.8720
 0.5310	19.0890
 0.5320	19.2950
 0.5330	19.4930
 0.5340	19.6850
 0.5350	19.8720
 0.5360	20.0490
 0.5370	20.2230
 0.5380	20.3920
 0.5390	20.5520
 0.5400	20.7180
 0.5410	20.8860
 0.5420	21.0490
 0.5430	21.1990
 0.5440	21.3360
 0.5450	21.4630
 0.5460	21.5800
 0.5470	21.6680
 0.5480	21.7510
 0.5490	21.8430
 0.5500	21.9340
 0.5510	22.0240
 0.5520	22.1050
 0.5530	22.1730
 0.5540	22.2310
 0.5550	22.2840
 0.5560	22.3310
 0.5570	22.3690
 0.5580	22.4050
 0.5590	22.4350
 0.5600	22.4560
 0.5610	22.4680
 0.5620	22.4710
 0.5630	22.4620
 0.5640	22.4420
 0.5650	22.4220
 0.5660	22.4050
 0.5670	22.3930
 0.5680	22.3860
 0.5690	22.3680
 0.5700	22.3380
 0.5710	22.3030
 0.5720	22.2770
 0.5730	22.2500
 0.5740	22.2180
 0.5750	22.1780
 0.5760	22.1400
 0.5770	22.1140
 0.5780	22.1020
 0.5790	22.0980
 0.5800	22.0880
 0.5810	22.0650
 0.5820	22.0280
 0.5830	21.9970
 0.5840	21.9800
 0.5850	21.9730
 0.5860	21.9610
 0.5870	21.9550
 0.5880	21.9500
 0.5890	21.9390
 0.5900	21.9250
 0.5910	21.9100
 0.5920	21.9030
 0.5930	21.9080
 0.5940	21.9180
 0.5950	21.9240
 0.5960	21.9290
 0.5970	21.9440
 0.5980	21.9580
 0.5990	21.9690
 0.6000	21.9740
 0.6010	21.9740
 0.6020	21.9650
 0.6030	21.9490
 0.6040	21.9290
 0.6050	21.9050
 0.6060	21.8740
 0.6070	21.8360
 0.6080	21.7970
 0.6090	21.7670
 0.6100	21.7470
 0.6110	21.7290
 0.6120	21.6700
 0.6130	21.5940
 0.6140	21.5200
 0.6150	21.4570
 0.6160	21.3990
 0.6170	21.3460
 0.6180	21.3000
 0.6190	21.2580
 0.6200	21.2250
 0.6210	21.2000
 0.6220	21.1760
 0.6230	21.1580
 0.6240	21.1470
 0.6250	21.1420
 0.6260	21.1420
 0.6270	21.1490
 0.6280	21.1580
 0.6290	21.1630
 0.6300	21.1770
 0.6310	21.1850
 0.6320	21.1810
 0.6330	21.1680
 0.6340	21.1470
 0.6350	21.1160
 0.6360	21.0700
 0.6370	21.0030
 0.6380	20.9170
 0.6390	20.8160
 0.6400	20.7070
 0.6410	20.5810
 0.6420	20.4450
 0.6430	20.3040
 0.6440	20.1570
 0.6450	20.0070
 0.6460	19.8610
 0.6470	19.7280
 0.6480	19.5990
 0.6490	19.4880
 0.6500	19.3960
 0.6510	19.3110
 0.6520	19.2330
 0.6530	19.1620
 0.6540	19.0930
 0.6550	19.0180
 0.6560	18.9340
 0.6570	18.8400
 0.6580	18.7360
 0.6590	18.6100
 0.6600	18.4710
 0.6610	18.3260
 0.6620	18.1790
 0.6630	18.0240
 0.6640	17.8670
 0.6650	17.7190
 0.6660	17.5910
 0.6670	17.4680
 0.6680	17.3550
 0.6690	17.2650
 0.6700	17.1870
 0.6710	17.1270
 0.6720	17.0850
 0.6730	17.0570
 0.6740	17.0410
 0.6750	17.0380
 0.6760	17.0510
 0.6770	17.0770
 0.6780	17.1140
 0.6790	17.1670
 0.6800	17.2490
 0.6810	17.3590
 0.6820	17.5090
 0.6830	17.7070
 0.6840	17.9580
 0.6850	18.2680
 0.6860	18.6420
 0.6870	19.0830
 0.6880	19.5900
 0.6890	20.1550
 0.6900	20.7740
 0.6910	21.4450
 0.6920	22.1600
 0.6930	22.9090
 0.6940	23.6800
 0.6950	24.4650
 0.6960	25.2600
 0.6970	26.0570
 0.6980	26.8480
 0.6990	27.6300
 0.7000	28.3980
 0.7010	29.1490
 0.7020	29.8710
 0.7030	30.5670
 0.7040	31.2360
 0.7050	31.8790
 0.7060	32.4960
 0.7070	33.0860
 0.7080	33.6460
 0.7090	34.1770
 0.7100	34.6820
 0.7110	35.1650
 0.7120	35.6290
 0.7130	36.0710
 0.7140	36.4890
 0.7150	36.8890
 0.7160	37.2740
 0.7170	37.6390
 0.7180	37.9860
 0.7190	38.3200
 0.7200	38.6420
 0.7210	38.9440
 0.7220	39.2310
 0.7230	39.5050
 0.7240	39.7570
 0.7250	40.0000
 0.7260	40.2330
 0.7270	40.4510
 0.7280	40.6580
 0.7290	40.8520
 0.7300	41.0340
 0.7310	41.2090
 0.7320	41.3720
 0.7330	41.5270
 0.7340	41.6740
 0.7350	41.8140
 0.7360	41.9450
 0.7370	42.0670
 0.7380	42.1790
 0.7390	42.2940
 0.7400	42.4000
 0.7410	42.4960
 0.7420	42.5870
 0.7430	42.6830
 0.7440	42.7740
 0.7450	42.8560
 0.7460	42.9250
 0.7470	43.0010
 0.7480	43.0730
 0.7490	43.1350
 0.7500	43.1980
 0.7510	43.2560
 0.7520	43.3110
 0.7530	43.3680
 0.7540	43.4230
 0.7550	43.4750
 0.7560	43.5240
 0.7570	43.5670
 0.7580	43.6150
 0.7590	43.6650
 0.7600	43.7130
 0.7610	43.7550
 0.7620	43.7960
 0.7630	43.8390
 0.7640	43.8840
 0.7650	43.9230
 0.7660	43.9630
 0.7670	44.0070
 0.7680	44.0500
 0.7690	44.0840
 0.7700	44.1160
 0.7710	44.1530
 0.7720	44.1970
 0.7730	44.2380
 0.7740	44.2680
 0.7750	44.2930
 0.7760	44.3380
 0.7770	44.3790
 0.7780	44.4120
 0.7790	44.4420
 0.7800	44.4770
 0.7810	44.5170
 0.7820	44.5580
 0.7830	44.5850
 0.7840	44.6190
 0.7850	44.6540
 0.7860	44.6870
 0.7870	44.7250
 0.7880	44.7580
 0.7890	44.7870
 0.7900	44.8150
 0.7910	44.8450
 0.7920	44.8770
 0.7930	44.9090
 0.7940	44.9400
 0.7950	44.9690
 0.7960	44.9940
 0.7970	45.0160
 0.7980	45.0400
 0.7990	45.0640
 0.8000	45.0900
 0.8010	45.1170
 0.8020	45.1380
 0.8030	45.1560
 0.8040	45.1720
 0.8050	45.1890
 0.8060	45.2120
 0.8070	45.2340
 0.8080	45.2520
 0.8090	45.2650
 0.8100	45.2790
 0.8110	45.2960
 0.8120	45.3150
 0.8130	45.3310
 0.8140	45.3420
 0.8150	45.3550
 0.8160	45.3720
 0.8170	45.3780
 0.8180	45.3840
 0.8190	45.3950
 0.8200	45.4120
 0.8210	45.4190
 0.8220	45.4260
 0.8230	45.4370
 0.8240	45.4480
 0.8250	45.4550
 0.8260	45.4650
 0.8270	45.4780
 0.8280	45.4810
 0.8290	45.4850
 0.8300	45.4920
 0.8310	45.5020
 0.8320	45.5020
 0.8330	45.5110
 0.8340	45.5230
 0.8350	45.5280
 0.8360	45.5370
 0.8370	45.5430
 0.8380	45.5460
 0.8390	45.5570
 0.8400	45.5710
 0.8410	45.5800
 0.8420	45.5840
 0.8430	45.5980
 0.8440	45.6070
 0.8450	45.6180
 0.8460	45.6340
 0.8470	45.6380
 0.8480	45.6490
 0.8490	45.6640
 0.8500	45.6750
 0.8510	45.6930
 0.8520	45.7060
 0.8530	45.7140
 0.8540	45.7220
 0.8550	45.7290
 0.8560	45.7460
 0.8570	45.7700
 0.8580	45.7800
 0.8590	45.7930
 0.8600	45.8050
 0.8610	45.8170
 0.8620	45.8350
 0.8630	45.8550
 0.8640	45.8710
 0.8650	45.8850
 0.8660	45.9040
 0.8670	45.9200
 0.8680	45.9350
 0.8690	45.9530
 0.8700	45.9740
 0.8710	45.9940
 0.8720	46.0120
 0.8730	46.0280
 0.8740	46.0540
 0.8750	46.0710
 0.8760	46.0820
 0.8770	46.1060
 0.8780	46.1230
 0.8790	46.1390
 0.8800	46.1620
 0.8810	46.1910
 0.8820	46.2140
 0.8830	46.2320
 0.8840	46.2500
 0.8850	46.2700
 0.8860	46.2890
 0.8870	46.3100
 0.8880	46.3340
 0.8890	46.3500
 0.8900	46.3650
 0.8910	46.3860
 0.8920	46.4130
 0.8930	46.4300
 0.8940	46.4450
 0.8950	46.4620
 0.8960	46.4830
 0.8970	46.5070
 0.8980	46.5200
 0.8990	46.5290
 0.9000	46.5550
 0.9010	46.5770
 0.9020	46.5980
 0.9030	46.6200
 0.9040	46.6420
 0.9050	46.6530
 0.9060	46.6700
 0.9070	46.6960
 0.9080	46.7120
 0.9090	46.7190
 0.9100	46.7320
 0.9110	46.7580
 0.9120	46.7740
 0.9130	46.7890
 0.9140	46.8050
 0.9150	46.8250
 0.9160	46.8430
 0.9170	46.8630
 0.9180	46.8800
 0.9190	46.8900
 0.9200	46.9030
 0.9210	46.9170
 0.9220	46.9330
 0.9230	46.9510
 0.9240	46.9660
 0.9250	46.9760
 0.9260	46.9810
 0.9270	46.9880
 0.9280	47.0010
 0.9290	47.0120
 0.9300	47.0240
 0.9310	47.0450
 0.9320	47.0440
 0.9330	47.0480
 0.9340	47.0610
 0.9350	47.0530
 0.9360	47.0620
 0.9370	47.0620
 0.9380	47.0490
 0.9390	47.0550
 0.9400	47.0650
 0.9410	47.0650
 0.9420	47.0520
 0.9430	47.0410
 0.9440	47.0470
 0.9450	47.0530
 0.9460	47.0490
 0.9470	47.0420
 0.9480	47.0190
 0.9490	46.9930
 0.9500	46.9800
 0.9510	46.9730
 0.9520	46.9600
 0.9530	46.9390
 0.9540	46.9140
 0.9550	46.8930
 0.9560	46.8630
 0.9570	46.8400
 0.9580	46.8330
 0.9590	46.8100
 0.9600	46.7810
 0.9610	46.7580
 0.9620	46.7480
 0.9630	46.7320
 0.9640	46.7270
 0.9650	46.7200
 0.9660	46.6970
 0.9670	46.7010
 0.9680	46.7030
 0.9690	46.6930
 0.9700	46.6790
 0.9710	46.6810
 0.9720	46.6800
 0.9730	46.6750
 0.9740	46.6720
 0.9750	46.6710
 0.9760	46.6690
 0.9770	46.6660
 0.9780	46.6600
 0.9790	46.6740
 0.9800	46.6850
 0.9810	46.6820
 0.9820	46.6710
 0.9830	46.6810
 0.9840	46.6910
 0.9850	46.6970
 0.9860	46.7060
 0.9870	46.7170
 0.9880	46.7290
 0.9890	46.7400
 0.9900	46.7490
 0.9910	46.7600
 0.9920	46.7720
 0.9930	46.7830
 0.9940	46.7920
 0.9950	46.8070
 0.9960	46.8140
 0.9970	46.8220
 0.9980	46.8420
 0.9990	46.8520
 1.0000	47.1510
 1.0010	47.7430
 1.0020	48.0480
 1.0030	48.0590
 1.0040	48.0740
 1.0050	48.0890
 1.0060	48.1070
 1.0070	48.1240
 1.0080	48.1410
 1.0090	48.1550
 1.0100	48.1690
 1.0110	48.1830
 1.0120	48.1980
 1.0130	48.2130
 1.0140	48.2250
 1.0150	48.2380
 1.0160	48.2520
 1.0170	48.2570
 1.0180	48.2660
 1.0190	48.2820
 1.0200	48.2940
 1.0210	48.3080
 1.0220	48.3230
 1.0230	48.3370
 1.0240	48.3470
 1.0250	48.3610
 1.0260	48.3810
 1.0270	48.3950
 1.0280	48.4080
 1.0290	48.4210
 1.0300	48.4310
 1.0310	48.4460
 1.0320	48.4660
 1.0330	48.4810
 1.0340	48.4950
 1.0350	48.5130
 1.0360	48.5270
 1.0370	48.5420
 1.0380	48.5580
 1.0390	48.5780
 1.0400	48.5930
 1.0410	48.6030
 1.0420	48.6180
 1.0430	48.6340
 1.0440	48.6500
 1.0450	48.6730
 1.0460	48.6900
 1.0470	48.7050
 1.0480	48.7190
 1.0490	48.7280
 1.0500	48.7400
 1.0510	48.7540
 1.0520	48.7650
 1.0530	48.7780
 1.0540	48.7940
 1.0550	48.8040
 1.0560	48.8100
 1.0570	48.8160
 1.0580	48.8180
 1.0590	48.8230
 1.0600	48.8300
 1.0610	48.8360
 1.0620	48.8450
 1.0630	48.8500
 1.0640	48.8530
 1.0650	48.8550
 1.0660	48.8550
 1.0670	48.8540
 1.0680	48.8530
 1.0690	48.8520
 1.0700	48.8510
 1.0710	48.8510
 1.0720	48.8500
 1.0730	48.8500
 1.0740	48.8500
 1.0750	48.8500
 1.0760	48.8470
 1.0770	48.8450
 1.0780	48.8420
 1.0790	48.8360
 1.0800	48.8320
 1.0810	48.8280
 1.0820	48.8240
 1.0830	48.8170
 1.0840	48.8140
 1.0850	48.8140
 1.0860	48.8120
 1.0870	48.8110
 1.0880	48.8150
 1.0890	48.8120
 1.0900	48.8050
 1.0910	48.8010
 1.0920	48.7960
 1.0930	48.7920
 1.0940	48.7900
 1.0950	48.7880
 1.0960	48.7860
 1.0970	48.7840
 1.0980	48.7840
 1.0990	48.7810
 1.1000	48.7760
 1.1010	48.7720
 1.1020	48.7660
 1.1030	48.7610
 1.1040	48.7580
 1.1050	48.7600
 1.1060	48.7590
 1.1070	48.7600
 1.1080	48.7590
 1.1090	48.7540
 1.1100	48.7510
 1.1110	48.7490
 1.1120	48.7460
 1.1130	48.7410
 1.1140	48.7370
 1.1150	48.7320
 1.1160	48.7280
 1.1170	48.7270
 1.1180	48.7210
 1.1190	48.7130
 1.1200	48.7030
 1.1210	48.6890
 1.1220	48.6750
 1.1230	48.6600
 1.1240	48.6440
 1.1250	48.6250
 1.1260	48.6060
 1.1270	48.5810
 1.1280	48.5540
 1.1290	48.5240
 1.1300	48.4890
 1.1310	48.4520
 1.1320	48.4140
 1.1330	48.3700
 1.1340	48.3210
 1.1350	48.2680
 1.1360	48.2090
 1.1370	48.1450
 1.1380	48.0780
 1.1390	48.0080
 1.1400	47.9360
 1.1410	47.8640
 1.1420	47.7890
 1.1430	47.7120
 1.1440	47.6360
 1.1450	47.5570
 1.1460	47.4800
 1.1470	47.4020
 1.1480	47.3270
 1.1490	47.2500
 1.1500	47.1790
 1.1510	47.1110
 1.1520	47.0460
 1.1530	46.9830
 1.1540	46.9230
 1.1550	46.8670
 1.1560	46.8140
 1.1570	46.7660
 1.1580	46.7220
 1.1590	46.6780
 1.1600	46.6380
 1.1610	46.6000
 1.1620	46.5650
 1.1630	46.5320
 1.1640	46.5020
 1.1650	46.4720
 1.1660	46.4420
 1.1670	46.4140
 1.1680	46.3890
 1.1690	46.3630
 1.1700	46.3400
 1.1710	46.3140
 1.1720	46.2890
 1.1730	46.2640
 1.1740	46.2390
 1.1750	46.2120
 1.1760	46.1850
 1.1770	46.1540
 1.1780	46.1220
 1.1790	46.0940
 1.1800	46.0660
 1.1810	46.0390
 1.1820	46.0140
 1.1830	45.9880
 1.1840	45.9650
 1.1850	45.9450
 1.1860	45.9260
 1.1870	45.9070
 1.1880	45.8920
 1.1890	45.8780
 1.1900	45.8690
 1.1910	45.8640
 1.1920	45.8610
 1.1930	45.8610
 1.1940	45.8610
 1.1950	45.8620
 1.1960	45.8670
 1.1970	45.8700
 1.1980	45.8750
 1.1990	45.8850
 1.2000	45.8920
 1.2010	45.9030
 1.2020	45.9150
 1.2030	45.9260
 1.2040	45.9430
 1.2050	45.9620
 1.2060	45.9800
 1.2070	46.0020
 1.2080	46.0230
 1.2090	46.0430
 1.2100	46.0660
 1.2110	46.0910
 1.2120	46.1160
 1.2130	46.1430
 1.2140	46.1730
 1.2150	46.2020
 1.2160	46.2330
 1.2170	46.2630
 1.2180	46.2950
 1.2190	46.3280
 1.2200	46.3610
 1.2210	46.3950
 1.2220	46.4300
 1.2230	46.4630
 1.2240	46.4970
 1.2250	46.5300
 1.2260	46.5610
 1.2270	46.5880
 1.2280	46.6130
 1.2290	46.6400
 1.2300	46.6650
 1.2310	46.6910
 1.2320	46.7180
 1.2330	46.7410
 1.2340	46.7630
 1.2350	46.7850
 1.2360	46.8050
 1.2370	46.8230
 1.2380	46.8430
 1.2390	46.8630
 1.2400	46.8800
 1.2410	46.8990
 1.2420	46.9140
 1.2430	46.9270
 1.2440	46.9440
 1.2450	46.9590
 1.2460	46.9760
 1.2470	46.9940
 1.2480	47.0100
 1.2490	47.0240
 1.2500	47.0370
 1.2510	47.0500
 1.2520	47.0630
 1.2530	47.0740
 1.2540	47.0830
 1.2550	47.0910
 1.2560	47.0990
 1.2570	47.1060
 1.2580	47.1160
 1.2590	47.1220
 1.2600	47.1260
 1.2610	47.1310
 1.2620	47.1350
 1.2630	47.1370
 1.2640	47.1420
 1.2650	47.1470
 1.2660	47.1520
 1.2670	47.1570
 1.2680	47.1600
 1.2690	47.1640
 1.2700	47.1670
 1.2710	47.1690
 1.2720	47.1720
 1.2730	47.1740
 1.2740	47.1750
 1.2750	47.1780
 1.2760	47.1810
 1.2770	47.1840
 1.2780	47.1850
 1.2790	47.1850
 1.2800	47.1860
 1.2810	47.1840
 1.2820	47.1820
 1.2830	47.1770
 1.2840	47.1720
 1.2850	47.1660
 1.2860	47.1590
 1.2870	47.1500
 1.2880	47.1390
 1.2890	47.1250
 1.2900	47.1070
 1.2910	47.0890
 1.2920	47.0690
 1.2930	47.0440
 1.2940	47.0170
 1.2950	46.9880
 1.2960	46.9550
 1.2970	46.9190
 1.2980	46.8840
 1.2990	46.8470
 1.3000	46.8060
 1.3010	46.7650
 1.3020	46.7210
 1.3030	46.6730
 1.3040	46.6250
 1.3050	46.5780
 1.3060	46.5280
 1.3070	46.4760
 1.3080	46.4240
 1.3090	46.3720
 1.3100	46.3190
 1.3110	46.2650
 1.3120	46.2090
 1.3130	46.1500
 1.3140	46.0900
 1.3150	46.0280
 1.3160	45.9670
 1.3170	45.9070
 1.3180	45.8460
 1.3190	45.7850
 1.3200	45.7200
 1.3210	45.6530
 1.3220	45.5860
 1.3230	45.5190
 1.3240	45.4530
 1.3250	45.3870
 1.3260	45.3170
 1.3270	45.2460
 1.3280	45.1740
 1.3290	45.1000
 1.3300	45.0260
 1.3310	44.9520
 1.3320	44.8760
 1.3330	44.8010
 1.3340	44.7220
 1.3350	44.6410
 1.3360	44.5600
 1.3370	44.4780
 1.3380	44.3940
 1.3390	44.3130
 1.3400	44.2320
 1.3410	44.1490
 1.3420	44.0650
 1.3430	43.9840
 1.3440	43.9020
 1.3450	43.8190
 1.3460	43.7380
 1.3470	43.6550
 1.3480	43.5710
 1.3490	43.4870
 1.3500	43.4020
 1.3510	43.3160
 1.3520	43.2270
 1.3530	43.1390
 1.3540	43.0510
 1.3550	42.9620
 1.3560	42.8770
 1.3570	42.7910
 1.3580	42.7030
 1.3590	42.6160
 1.3600	42.5260
 1.3610	42.4320
 1.3620	42.3350
 1.3630	42.2380
 1.3640	42.1370
 1.3650	42.0320
 1.3660	41.9230
 1.3670	41.8060
 1.3680	41.6820
 1.3690	41.5510
 1.3700	41.4130
 1.3710	41.2680
 1.3720	41.1120
 1.3730	40.9430
 1.3740	40.7650
 1.3750	40.5720
 1.3760	40.3690
 1.3770	40.1520
 1.3780	39.9170
 1.3790	39.6660
 1.3800	39.3970
 1.3810	39.1090
 1.3820	38.8090
 1.3830	38.4930
 1.3840	38.1620
 1.3850	37.8180
 1.3860	37.4590
 1.3870	37.0850
 1.3880	36.7020
 1.3890	36.3070
 1.3900	35.9000
 1.3910	35.4890
 1.3920	35.0690
 1.3930	34.6440
 1.3940	34.2160
 1.3950	33.7810
 1.3960	33.3480
 1.3970	32.9160
 1.3980	32.4890
 1.3990	32.0720
 1.4000	31.6600
 1.4010	31.2570
 1.4020	30.8660
 1.4030	30.4820
 1.4040	30.1110
 1.4050	29.7560
 1.4060	29.4120
 1.4070	29.0860
 1.4080	28.7740
 1.4090	28.4760
 1.4100	28.1950
 1.4110	27.9260
 1.4120	27.6750
 1.4130	27.4390
 1.4140	27.2160
 1.4150	27.0100
 1.4160	26.8190
 1.4170	26.6400
 1.4180	26.4750
 1.4190	26.3220
 1.4200	26.1800
 1.4210	26.0500
 1.4220	25.9290
 1.4230	25.8190
 1.4240	25.7180
 1.4250	25.6240
 1.4260	25.5370
 1.4270	25.4580
 1.4280	25.3860
 1.4290	25.3210
 1.4300	25.2630
 1.4310	25.2120
 1.4320	25.1680
 1.4330	25.1280
 1.4340	25.0940
 1.4350	25.0630
 1.4360	25.0380
 1.4370	25.0170
 1.4380	25.0000
 1.4390	24.9880
 1.4400	24.9800
 1.4410	24.9740
 1.4420	24.9710
 1.4430	24.9710
 1.4440	24.9720
 1.4450	24.9750
 1.4460	24.9820
 1.4470	24.9900
 1.4480	25.0000
 1.4490	25.0120
 1.4500	25.0240
 1.4510	25.0370
 1.4520	25.0530
 1.4530	25.0710
 1.4540	25.0900
 1.4550	25.1100
 1.4560	25.1320
 1.4570	25.1550
 1.4580	25.1800
 1.4590	25.2100
 1.4600	25.2440
 1.4610	25.2810
 1.4620	25.3210
 1.4630	25.3650
 1.4640	25.4120
 1.4650	25.4630
 1.4660	25.5180
 1.4670	25.5780
 1.4680	25.6420
 1.4690	25.7100
 1.4700	25.7830
 1.4710	25.8590
 1.4720	25.9370
 1.4730	26.0180
 1.4740	26.1030
 1.4750	26.1910
 1.4760	26.2840
 1.4770	26.3780
 1.4780	26.4730
 1.4790	26.5700
 1.4800	26.6680
 1.4810	26.7670
 1.4820	26.8680
 1.4830	26.9690
 1.4840	27.0720
 1.4850	27.1770
 1.4860	27.2820
 1.4870	27.3860
 1.4880	27.4900
 1.4890	27.5940
 1.4900	27.6990
 1.4910	27.8050
 1.4920	27.9110
 1.4930	28.0170
 1.4940	28.1230
 1.4950	28.2300
 1.4960	28.3360
 1.4970	28.4420
 1.4980	28.5480
 1.4990	28.6530
 1.5000	28.7570
 1.5010	28.8610
 1.5020	28.9650
 1.5030	29.0680
 1.5040	29.1720
 1.5050	29.2760
 1.5060	29.3790
 1.5070	29.4830
 1.5080	29.5860
 1.5090	29.6870
 1.5100	29.7870
 1.5110	29.8870
 1.5120	29.9850
 1.5130	30.0830
 1.5140	30.1800
 1.5150	30.2760
 1.5160	30.3710
 1.5170	30.4660
 1.5180	30.5600
 1.5190	30.6520
 1.5200	30.7430
 1.5210	30.8320
 1.5220	30.9200
 1.5230	31.0080
 1.5240	31.0950
 1.5250	31.1810
 1.5260	31.2670
 1.5270	31.3520
 1.5280	31.4370
 1.5290	31.5200
 1.5300	31.6000
 1.5310	31.6800
 1.5320	31.7580
 1.5330	31.8340
 1.5340	31.9120
 1.5350	31.9870
 1.5360	32.0630
 1.5370	32.1390
 1.5380	32.2120
 1.5390	32.2860
 1.5400	32.3570
 1.5410	32.4280
 1.5420	32.4980
 1.5430	32.5660
 1.5440	32.6340
 1.5450	32.7000
 1.5460	32.7680
 1.5470	32.8360
 1.5480	32.9020
 1.5490	32.9690
 1.5500	33.0340
 1.5510	33.0960
 1.5520	33.1600
 1.5530	33.2220
 1.5540	33.2840
 1.5550	33.3450
 1.5560	33.4050
 1.5570	33.4650
 1.5580	33.5220
 1.5590	33.5780
 1.5600	33.6350
 1.5610	33.6910
 1.5620	33.7470
 1.5630	33.8040
 1.5640	33.8570
 1.5650	33.9120
 1.5660	33.9670
 1.5670	34.0210
 1.5680	34.0760
 1.5690	34.1290
 1.5700	34.1810
 1.5710	34.2340
 1.5720	34.2860
 1.5730	34.3400
 1.5740	34.3920
 1.5750	34.4440
 1.5760	34.4930
 1.5770	34.5410
 1.5780	34.5900
 1.5790	34.6390
 1.5800	34.6880
 1.5810	34.7380
 1.5820	34.7880
 1.5830	34.8360
 1.5840	34.8840
 1.5850	34.9310
 1.5860	34.9770
 1.5870	35.0240
 1.5880	35.0710
 1.5890	35.1190
 1.5900	35.1660
 1.5910	35.2110
 1.5920	35.2570
 1.5930	35.3020
 1.5940	35.3480
 1.5950	35.3950
 1.5960	35.4420
 1.5970	35.4870
 1.5980	35.5300
 1.5990	35.5720
 1.6000	35.6130
 1.6010	35.6550
 1.6020	35.6980
 1.6030	35.7410
 1.6040	35.7840
 1.6050	35.8250
 1.6060	35.8660
 1.6070	35.9070
 1.6080	35.9480
 1.6090	35.9860
 1.6100	36.0250
 1.6110	36.0620
 1.6120	36.0970
 1.6130	36.1330
 1.6140	36.1660
 1.6150	36.1980
 1.6160	36.2310
 1.6170	36.2640
 1.6180	36.2950
 1.6190	36.3260
 1.6200	36.3540
 1.6210	36.3820
 1.6220	36.4090
 1.6230	36.4350
 1.6240	36.4610
 1.6250	36.4850
 1.6260	36.5080
 1.6270	36.5300
 1.6280	36.5510
 1.6290	36.5720
 1.6300	36.5920
 1.6310	36.6120
 1.6320	36.6330
 1.6330	36.6530
 1.6340	36.6720
 1.6350	36.6910
 1.6360	36.7090
 1.6370	36.7270
 1.6380	36.7460
 1.6390	36.7630
 1.6400	36.7800
 1.6410	36.7950
 1.6420	36.8080
 1.6430	36.8200
 1.6440	36.8320
 1.6450	36.8410
 1.6460	36.8480
 1.6470	36.8540
 1.6480	36.8570
 1.6490	36.8570
 1.6500	36.8580
 1.6510	36.8550
 1.6520	36.8510
 1.6530	36.8460
 1.6540	36.8390
 1.6550	36.8310
 1.6560	36.8220
 1.6570	36.8100
 1.6580	36.7960
 1.6590	36.7800
 1.6600	36.7620
 1.6610	36.7450
 1.6620	36.7270
 1.6630	36.7080
 1.6640	36.6870
 1.6650	36.6630
 1.6660	36.6360
 1.6670	36.6060
 1.6680	36.5770
 1.6690	36.5440
 1.6700	36.5090
 1.6710	36.4720
 1.6720	36.4300
 1.6730	36.3850
 1.6740	36.3380
 1.6750	36.2870
 1.6760	36.2320
 1.6770	36.1740
 1.6780	36.1130
 1.6790	36.0460
 1.6800	35.9790
 1.6810	35.9090
 1.6820	35.8340
 1.6830	35.7570
 1.6840	35.6760
 1.6850	35.5920
 1.6860	35.5110
 1.6870	35.4300
 1.6880	35.3480
 1.6890	35.2660
 1.6900	35.1850
 1.6910	35.1040
 1.6920	35.0250
 1.6930	34.9480
 1.6940	34.8740
 1.6950	34.8010
 1.6960	34.7300
 1.6970	34.6610
 1.6980	34.5960
 1.6990	34.5330
 1.7000	34.4720
 1.7010	34.4150
 1.7020	34.3590
 1.7030	34.3060
 1.7040	34.2530
 1.7050	34.2030
 1.7060	34.1500
 1.7070	34.0950
 1.7080	34.0430
 1.7090	33.9900
 1.7100	33.9410
 1.7110	33.8970
 1.7120	33.8480
 1.7130	33.8020
 1.7140	33.7580
 1.7150	33.7130
 1.7160	33.6750
 1.7170	33.6390
 1.7180	33.6030
 1.7190	33.5710
 1.7200	33.5390
 1.7210	33.5060
 1.7220	33.4760
 1.7230	33.4490
 1.7240	33.4240
 1.7250	33.4020
 1.7260	33.3810
 1.7270	33.3630
 1.7280	33.3490
 1.7290	33.3370
 1.7300	33.3290
 1.7310	33.3240
 1.7320	33.3220
 1.7330	33.3210
 1.7340	33.3250
 1.7350	33.3260
 1.7360	33.3280
 1.7370	33.3260
 1.7380	33.3210
 1.7390	33.3120
 1.7400	33.3000
 1.7410	33.2830
 1.7420	33.2610
 1.7430	33.2370
 1.7440	33.2080
 1.7450	33.1770
 1.7460	33.1420
 1.7470	33.1090
 1.7480	33.0740
 1.7490	33.0410
 1.7500	33.0100
 1.7510	32.9790
 1.7520	32.9490
 1.7530	32.9210
 1.7540	32.8940
 1.7550	32.8710
 1.7560	32.8510
 1.7570	32.8300
 1.7580	32.8130
 1.7590	32.7960
 1.7600	32.7790
 1.7610	32.7670
 1.7620	32.7560
 1.7630	32.7470
 1.7640	32.7400
 1.7650	32.7330
 1.7660	32.7280
 1.7670	32.7260
 1.7680	32.7240
 1.7690	32.7240
 1.7700	32.7240
 1.7710	32.7230
 1.7720	32.7230
 1.7730	32.7260
 1.7740	32.7260
 1.7750	32.7270
 1.7760	32.7270
 1.7770	32.7250
 1.7780	32.7260
 1.7790	32.7270
 1.7800	32.7280
 1.7810	32.7300
 1.7820	32.7330
 1.7830	32.7380
 1.7840	32.7420
 1.7850	32.7490
 1.7860	32.7540
 1.7870	32.7590
 1.7880	32.7670
 1.7890	32.7770
 1.7900	32.7880
 1.7910	32.7980
 1.7920	32.8060
 1.7930	32.8170
 1.7940	32.8300
 1.7950	32.8400
 1.7960	32.8510
 1.7970	32.8610
 1.7980	32.8670
 1.7990	32.8770
 1.8000	32.8880
 1.8010	32.8990
 1.8020	32.9130
 1.8030	32.9250
 1.8040	32.9360
 1.8050	32.9500
 1.8060	32.9680
 1.8070	32.9810
 1.8080	32.9950
 1.8090	33.0080
 1.8100	33.0180
 1.8110	33.0330
 1.8120	33.0480
 1.8130	33.0600
 1.8140	33.0700
 1.8150	33.0790
 1.8160	33.0880
 1.8170	33.0990
 1.8180	33.1100
 1.8190	33.1190
 1.8200	33.1270
 1.8210	33.1320
 1.8220	33.1370
 1.8230	33.1430
 1.8240	33.1470
 1.8250	33.1480
 1.8260	33.1510
 1.8270	33.1540
 1.8280	33.1550
 1.8290	33.1600
 1.8300	33.1440
 1.8310	33.1180
 1.8320	33.0910
 1.8330	33.0780
 1.8340	33.0630
 1.8350	33.0440
 1.8360	33.0270
 1.8370	33.0040
 1.8380	32.9740
 1.8390	32.9420
 1.8400	32.9030
 1.8410	32.8640
 1.8420	32.8230
 1.8430	32.7790
 1.8440	32.7330
 1.8450	32.6790
 1.8460	32.6180
 1.8470	32.5500
 1.8480	32.4780
 1.8490	32.4020
 1.8500	32.3150
 1.8510	32.2200
 1.8520	32.1200
 1.8530	32.0020
 1.8540	31.8730
 1.8550	31.7430
 1.8560	31.5970
 1.8570	31.4460
 1.8580	31.2870
 1.8590	31.1100
 1.8600	30.9160
 1.8610	30.7150
 1.8620	30.4990
 1.8630	30.2690
 1.8640	30.0280
 1.8650	29.7680
 1.8660	29.4910
 1.8670	29.1990
 1.8680	28.8900
 1.8690	28.5630
 1.8700	28.2170
 1.8710	27.8540
 1.8720	27.4760
 1.8730	27.0820
 1.8740	26.6770
 1.8750	26.2640
 1.8760	25.8360
 1.8770	25.4010
 1.8780	24.9570
 1.8790	24.5010
 1.8800	24.0440
 1.8810	23.5850
 1.8820	23.1150
 1.8830	22.6370
 1.8840	22.1610
 1.8850	21.6790
 1.8860	21.1990
 1.8870	20.7270
 1.8880	20.2580
 1.8890	19.8000
 1.8900	19.3550
 1.8910	18.9240
 1.8920	18.5020
 1.8930	18.1000
 1.8940	17.7100
 1.8950	17.3380
 1.8960	16.9840
 1.8970	16.6460
 1.8980	16.3320
 1.8990	16.0380
 1.9000	15.7590
 1.9010	15.4990
 1.9020	15.2580
 1.9030	15.0350
 1.9040	14.8310
 1.9050	14.6460
 1.9060	14.4780
 1.9070	14.3260
 1.9080	14.1890
 1.9090	14.0640
 1.9100	13.9510
 1.9110	13.8480
 1.9120	13.7560
 1.9130	13.6720
 1.9140	13.5990
 1.9150	13.5340
 1.9160	13.4760
 1.9170	13.4230
 1.9180	13.3760
 1.9190	13.3350
 1.9200	13.3000
 1.9210	13.2750
 1.9220	13.2540
 1.9230	13.2390
 1.9240	13.2280
 1.9250	13.2230
 1.9260	13.2190
 1.9270	13.2180
 1.9280	13.2220
 1.9290	13.2260
 1.9300	13.2330
 1.9310	13.2480
 1.9320	13.2640
 1.9330	13.2840
 1.9340	13.3100
 1.9350	13.3350
 1.9360	13.3630
 1.9370	13.3930
 1.9380	13.4250
 1.9390	13.4590
 1.9400	13.4930
 1.9410	13.5300
 1.9420	13.5700
 1.9430	13.6130
 1.9440	13.6580
 1.9450	13.7080
 1.9460	13.7570
 1.9470	13.8040
 1.9480	13.8550
 1.9490	13.9080
 1.9500	13.9610
 1.9510	14.0150
 1.9520	14.0710
 1.9530	14.1260
 1.9540	14.1840
 1.9550	14.2440
 1.9560	14.3050
 1.9570	14.3670
 1.9580	14.4310
 1.9590	14.4950
 1.9600	14.5600
 1.9610	14.6270
 1.9620	14.6950
 1.9630	14.7620
 1.9640	14.8300
 1.9650	14.8970
 1.9660	14.9640
 1.9670	15.0340
 1.9680	15.1050
 1.9690	15.1780
 1.9700	15.2520
 1.9710	15.3280
 1.9720	15.4030
 1.9730	15.4800
 1.9740	15.5560
 1.9750	15.6300
 1.9760	15.7070
 1.9770	15.7840
 1.9780	15.8620
 1.9790	15.9390
 1.9800	16.0180
 1.9810	16.0970
 1.9820	16.1770
 1.9830	16.2580
 1.9840	16.3390
 1.9850	16.4200
 1.9860	16.4990
 1.9870	16.5800
 1.9880	16.6640
 1.9890	16.7460
 1.9900	16.8320
 1.9910	16.9180
 1.9920	17.0010
 1.9930	17.0830
 1.9940	17.1640
 1.9950	17.2410
 1.9960	17.3190
 1.9970	17.3960
 1.9980	17.4750
 1.9990	17.5560
 2.0000	17.6360
 2.0010	17.7130
 2.0020	17.7930
 2.0030	17.8720
 2.0040	17.9490
 2.0050	18.0240
 2.0060	18.0980
 2.0070	18.1720
 2.0080	18.2430
 2.0090	18.3160
 2.0100	18.3940
 2.0110	18.4670
 2.0120	18.5380
 2.0130	18.6090
 2.0140	18.6800
 2.0150	18.7510
 2.0160	18.8190
 2.0170	18.8880
 2.0180	18.9510
 2.0190	19.0060
 2.0200	19.0670
 2.0210	19.1290
 2.0220	19.1900
 2.0230	19.2540
 2.0240	19.3130
 2.0250	19.3700
 2.0260	19.4250
 2.0270	19.4790
 2.0280	19.5310
 2.0290	19.5780
 2.0300	19.6250
 2.0310	19.6730
 2.0320	19.7210
 2.0330	19.7660
 2.0340	19.8130
 2.0350	19.8570
 2.0360	19.8960
 2.0370	19.9350
 2.0380	19.9740
 2.0390	20.0120
 2.0400	20.0470
 2.0410	20.0840
 2.0420	20.1210
 2.0430	20.1580
 2.0440	20.1910
 2.0450	20.2230
 2.0460	20.2550
 2.0470	20.2850
 2.0480	20.3160
 2.0490	20.3520
 2.0500	20.3830
 2.0510	20.4110
 2.0520	20.4410
 2.0530	20.4710
 2.0540	20.5010
 2.0550	20.5320
 2.0560	20.5630
 2.0570	20.5960
 2.0580	20.6260
 2.0590	20.6560
 2.0600	20.6890
 2.0610	20.7180
 2.0620	20.7430
 2.0630	20.7720
 2.0640	20.8020
 2.0650	20.8320
 2.0660	20.8660
 2.0670	20.8980
 2.0680	20.9300
 2.0690	20.9610
 2.0700	20.9920
 2.0710	21.0240
 2.0720	21.0550
 2.0730	21.0860
 2.0740	21.1180
 2.0750	21.1520
 2.0760	21.1830
 2.0770	21.2130
 2.0780	21.2450
 2.0790	21.2770
 2.0800	21.3100
 2.0810	21.3450
 2.0820	21.3790
 2.0830	21.4130
 2.0840	21.4460
 2.0850	21.4760
 2.0860	21.5090
 2.0870	21.5430
 2.0880	21.5750
 2.0890	21.6100
 2.0900	21.6480
 2.0910	21.6830
 2.0920	21.7180
 2.0930	21.7510
 2.0940	21.7820
 2.0950	21.8130
 2.0960	21.8410
 2.0970	21.8720
 2.0980	21.9010
 2.0990	21.9330
 2.1000	21.9710
 2.1010	22.0050
 2.1020	22.0370
 2.1030	22.0700
 2.1040	22.1040
 2.1050	22.1320
 2.1060	22.1620
 2.1070	22.1930
 2.1080	22.2250
 2.1090	22.2540
 2.1100	22.2860
 2.1110	22.3220
 2.1120	22.3570
 2.1130	22.3920
 2.1140	22.4270
 2.1150	22.4640
 2.1160	22.4980
 2.1170	22.5320
 2.1180	22.5640
 2.1190	22.5930
 2.1200	22.6220
 2.1210	22.6500
 2.1220	22.6760
 2.1230	22.7030
 2.1240	22.7290
 2.1250	22.7570
 2.1260	22.7830
 2.1270	22.8110
 2.1280	22.8400
 2.1290	22.8680
 2.1300	22.8970
 2.1310	22.9260
 2.1320	22.9570
 2.1330	22.9840
 2.1340	23.0080
 2.1350	23.0350
 2.1360	23.0610
 2.1370	23.0870
 2.1380	23.1160
 2.1390	23.1430
 2.1400	23.1710
 2.1410	23.1930
 2.1420	23.2190
 2.1430	23.2470
 2.1440	23.2710
 2.1450	23.2950
 2.1460	23.3190
 2.1470	23.3400
 2.1480	23.3640
 2.1490	23.3910
 2.1500	23.4150
 2.1510	23.4390
 2.1520	23.4620
 2.1530	23.4810
 2.1540	23.5030
 2.1550	23.5240
 2.1560	23.5460
 2.1570	23.5680
 2.1580	23.5920
 2.1590	23.6210
 2.1600	23.6470
 2.1610	23.6740
 2.1620	23.7030
 2.1630	23.7270
 2.1640	23.7470
 2.1650	23.7690
 2.1660	23.7890
 2.1670	23.8100
 2.1680	23.8310
 2.1690	23.8510
 2.1700	23.8710
 2.1710	23.8910
 2.1720	23.9090
 2.1730	23.9300
 2.1740	23.9490
 2.1750	23.9720
 2.1760	24.0000
 2.1770	24.0250
 2.1780	24.0500
 2.1790	24.0730
 2.1800	24.0910
 2.1810	24.1110
 2.1820	24.1310
 2.1830	24.1510
 2.1840	24.1730
 2.1850	24.1960
 2.1860	24.2170
 2.1870	24.2410
 2.1880	24.2620
 2.1890	24.2800
 2.1900	24.3000
 2.1910	24.3240
 2.1920	24.3430
 2.1930	24.3610
 2.1940	24.3760
 2.1950	24.3850
 2.1960	24.3960
 2.1970	24.4080
 2.1980	24.4190
 2.1990	24.4320
 2.2000	24.4440
 2.2010	24.4550
 2.2020	24.4670
 2.2030	24.4770
 2.2040	24.4890
 2.2050	24.5030
 2.2060	24.5170
 2.2070	24.5280
 2.2080	24.5410
 2.2090	24.5480
 2.2100	24.5480
 2.2110	24.5520
 2.2120	24.5550
 2.2130	24.5580
 2.2140	24.5640
 2.2150	24.5640
 2.2160	24.5590
 2.2170	24.5550
 2.2180	24.5480
 2.2190	24.5410
 2.2200	24.5330
 2.2210	24.5220
 2.2220	24.5090
 2.2230	24.4910
 2.2240	24.4710
 2.2250	24.4480
 2.2260	24.4210
 2.2270	24.3910
 2.2280	24.3590
 2.2290	24.3230
 2.2300	24.2820
 2.2310	24.2380
 2.2320	24.1920
 2.2330	24.1450
 2.2340	24.0930
 2.2350	24.0370
 2.2360	23.9790
 2.2370	23.9160
 2.2380	23.8540
 2.2390	23.7940
 2.2400	23.7240
 2.2410	23.6500
 2.2420	23.5720
 2.2430	23.4880
 2.2440	23.4020
 2.2450	23.3120
 2.2460	23.2200
 2.2470	23.1240
 2.2480	23.0270
 2.2490	22.9300
 2.2500	22.8310
 2.2510	22.7300
 2.2520	22.6280
 2.2530	22.5250
 2.2540	22.4190
 2.2550	22.3070
 2.2560	22.2000
 2.2570	22.0940
 2.2580	21.9880
 2.2590	21.8840
 2.2600	21.7820
 2.2610	21.6760
 2.2620	21.5780
 2.2630	21.4900
 2.2640	21.3990
 2.2650	21.3150
 2.2660	21.2320
 2.2670	21.1460
 2.2680	21.0570
 2.2690	20.9740
 2.2700	20.8900
 2.2710	20.8130
 2.2720	20.7410
 2.2730	20.6680
 2.2740	20.5970
 2.2750	20.5280
 2.2760	20.4600
 2.2770	20.3930
 2.2780	20.3310
 2.2790	20.2680
 2.2800	20.2060
 2.2810	20.1440
 2.2820	20.0830
 2.2830	20.0210
 2.2840	19.9590
 2.2850	19.8920
 2.2860	19.8230
 2.2870	19.7520
 2.2880	19.6770
 2.2890	19.6010
 2.2900	19.5240
 2.2910	19.4470
 2.2920	19.3670
 2.2930	19.2890
 2.2940	19.2130
 2.2950	19.1360
 2.2960	19.0560
 2.2970	18.9820
 2.2980	18.9090
 2.2990	18.8370
 2.3000	18.7770
 2.3010	18.7180
 2.3020	18.6680
 2.3030	18.6330
 2.3040	18.5920
 2.3050	18.5590
 2.3060	18.5390
 2.3070	18.5190
 2.3080	18.5180
 2.3090	18.5270
 2.3100	18.5330
 2.3110	18.5420
 2.3120	18.5550
 2.3130	18.5710
 2.3140	18.5910
 2.3150	18.6170
 2.3160	18.6450
 2.3170	18.6790
 2.3180	18.7050
 2.3190	18.7370
 2.3200	18.7530
 2.3210	18.7600
 2.3220	18.7650
 2.3230	18.7630
 2.3240	18.7570
 2.3250	18.7460
 2.3260	18.7310
 2.3270	18.7080
 2.3280	18.6850
 2.3290	18.6570
 2.3300	18.6310
 2.3310	18.6100
 2.3320	18.5800
 2.3330	18.5530
 2.3340	18.5160
 2.3350	18.4640
 2.3360	18.4200
 2.3370	18.3740
 2.3380	18.3300
 2.3390	18.2900
 2.3400	18.2470
 2.3410	18.2010
 2.3420	18.1590
 2.3430	18.1190
 2.3440	18.0790
 2.3450	18.0370
 2.3460	18.0020
 2.3470	17.9670
 2.3480	17.9400
 2.3490	17.9250
 2.3500	17.9070
 2.3510	17.8910
 2.3520	17.8800
 2.3530	17.8770
 2.3540	17.8680
 2.3550	17.8590
 2.3560	17.8590
 2.3570	17.8520
 2.3580	17.8410
 2.3590	17.8300
 2.3600	17.8140
 2.3610	17.7900
 2.3620	17.7690
 2.3630	17.7430
 2.3640	17.7140
 2.3650	17.6900
 2.3660	17.6690
 2.3670	17.6510
 2.3680	17.6380
 2.3690	17.6320
 2.3700	17.6170
 2.3710	17.6010
 2.3720	17.5900
 2.3730	17.5680
 2.3740	17.5370
 2.3750	17.5070
 2.3760	17.4760
 2.3770	17.4480
 2.3780	17.4250
 2.3790	17.4020
 2.3800	17.3820
 2.3810	17.3520
 2.3820	17.3200
 2.3830	17.2970
 2.3840	17.2720
 2.3850	17.2430
 2.3860	17.2080
 2.3870	17.1660
 2.3880	17.1190
 2.3890	17.0710
 2.3900	17.0380
 2.3910	17.0070
 2.3920	16.9670
 2.3930	16.9320
 2.3940	16.8980
 2.3950	16.8580
 2.3960	16.8240
 2.3970	16.7890
 2.3980	16.7530
 2.3990	16.7090
 2.4000	16.6690
 2.4010	16.6430
 2.4020	16.6080
 2.4030	16.5780
 2.4040	16.5480
 2.4050	16.4990
 2.4060	16.4550
 2.4070	16.4180
 2.4080	16.3830
 2.4090	16.3530
 2.4100	16.3180
 2.4110	16.2770
 2.4120	16.2270
 2.4130	16.1770
 2.4140	16.1380
 2.4150	16.0990
 2.4160	16.0770
 2.4170	16.0500
 2.4180	15.9950
 2.4190	15.9410
 2.4200	15.8880
 2.4210	15.8340
 2.4220	15.7950
 2.4230	15.7660
 2.4240	15.7190
 2.4250	15.6780
 2.4260	15.6400
 2.4270	15.5860
 2.4280	15.5460
 2.4290	15.5020
 2.4300	15.4560
 2.4310	15.4180
 2.4320	15.3790
 2.4330	15.3390
 2.4340	15.2860
 2.4350	15.2460
 2.4360	15.1980
 2.4370	15.1310
 2.4380	15.0890
 2.4390	15.0370
 2.4400	14.9700
 2.4410	14.9300
 2.4420	14.8990
 2.4430	14.8600
 2.4440	14.8320
 2.4450	14.8000
 2.4460	14.7490
 2.4470	14.6970
 2.4480	14.6560
 2.4490	14.6100
 2.4500	14.5570
 2.4510	14.5110
 2.4520	14.4650
 2.4530	14.4100
 2.4540	14.3560
 2.4550	14.3100
 2.4560	14.2600
 2.4570	14.2010
 2.4580	14.1500
 2.4590	14.0980
 2.4600	14.0420
 2.4610	14.0060
 2.4620	13.9670
 2.4630	13.9160
 2.4640	13.8630
 2.4650	13.8120
 2.4660	13.7670
 2.4670	13.7170
 2.4680	13.6810
 2.4690	13.6550
 2.4700	13.6210
 2.4710	13.6020
 2.4720	13.5860
 2.4730	13.5670
 2.4740	13.5390
 2.4750	13.5190
 2.4760	13.4780
 2.4770	13.3940
 2.4780	13.3540
 2.4790	13.3410
 2.4800	13.3130
 2.4810	13.3120
 2.4820	13.2730
 2.4830	13.2080
 2.4840	13.1850
 2.4850	13.1770
 2.4860	13.1890
 2.4870	13.2210
 2.4880	13.2140
 2.4890	13.1560
 2.4900	13.0900
 2.4910	13.0660
 2.4920	13.0670
 2.4930	13.0820
 2.4940	13.0970
 2.4950	13.0690
 2.4960	13.0320
 2.4970	13.0120
 2.4980	12.9800
 2.4990	12.9350
 2.5000	12.9310
