Name: Baccharis pilularis 1
Type: vegetation
Class: Shrub
Genus: Baccharis
Species: pilularis
Sample No.: VH098
Owner: UCSB
Wavelength Range: TIR
Origin: 34.418; -119.8455; WGS84
Collection Date: 6/3/2013
Description: Samples were collected as part of the HyspIRI Airborne Campaign. 48 individual plants were sampled in three times in 2013 - spring  summer  and fall. The name of the sample includes a 1  2  or 3 which references a different individual of the species. Samples were taken to JPL and processed within 48 hours of collection. The same leaves were processed in the Nicolet and then measured using the ASD.
Measurement: Hemispherical reflectance
First Column: X
Second Column: Y
X Units: Wavelength (micrometers)
Y Units: Reflectance (percentage)
First X Value: 2.501
Last X Value: 15.387
Number of X Values: 1737
Additional Information: vegetation.shrub.baccharis.pilularis.tir.vh098.ucsb.nicolet.ancillary.txt

 2.5010	 2.7330
 2.5030	 2.7550
 2.5040	 2.7660
 2.5050	 2.7670
 2.5060	 2.7920
 2.5070	 2.7480
 2.5090	 2.7100
 2.5100	 2.6960
 2.5110	 2.7600
 2.5120	 2.7930
 2.5140	 2.7630
 2.5150	 2.7530
 2.5160	 2.8020
 2.5170	 2.7960
 2.5180	 2.8060
 2.5200	 2.8230
 2.5210	 2.8170
 2.5220	 2.7770
 2.5230	 2.8330
 2.5250	 2.8790
 2.5260	 2.8440
 2.5270	 2.7970
 2.5280	 2.8160
 2.5290	 2.7880
 2.5310	 2.8200
 2.5320	 2.8210
 2.5330	 2.8260
 2.5340	 2.7820
 2.5360	 2.7820
 2.5370	 2.7950
 2.5380	 2.8100
 2.5390	 2.7860
 2.5410	 2.7900
 2.5420	 2.7530
 2.5430	 2.8110
 2.5440	 2.8120
 2.5460	 2.8420
 2.5470	 2.8090
 2.5480	 2.8140
 2.5490	 2.8590
 2.5510	 2.8970
 2.5520	 2.8930
 2.5530	 2.9180
 2.5540	 2.8960
 2.5560	 2.9060
 2.5570	 2.9060
 2.5580	 2.9170
 2.5590	 2.8850
 2.5610	 2.8760
 2.5620	 2.8640
 2.5630	 2.8960
 2.5640	 2.8640
 2.5660	 2.8570
 2.5670	 2.8630
 2.5680	 2.8770
 2.5700	 2.8550
 2.5710	 2.8990
 2.5720	 2.9260
 2.5730	 2.9570
 2.5750	 2.9120
 2.5760	 2.8740
 2.5770	 2.9110
 2.5790	 2.9760
 2.5800	 2.9770
 2.5810	 2.9930
 2.5820	 2.9390
 2.5840	 2.9210
 2.5850	 2.9190
 2.5860	 2.9220
 2.5880	 2.9210
 2.5890	 2.9340
 2.5900	 2.8910
 2.5910	 2.8930
 2.5930	 2.8710
 2.5940	 2.8770
 2.5950	 2.8370
 2.5970	 2.8690
 2.5980	 2.8730
 2.5990	 2.8770
 2.6000	 2.8800
 2.6020	 2.9010
 2.6030	 2.8720
 2.6040	 2.8910
 2.6060	 2.8750
 2.6070	 2.8610
 2.6080	 2.8990
 2.6100	 2.9250
 2.6110	 2.8870
 2.6120	 2.9270
 2.6140	 2.9100
 2.6150	 2.9000
 2.6160	 2.8700
 2.6180	 2.8380
 2.6190	 2.8340
 2.6200	 2.8580
 2.6220	 2.8260
 2.6230	 2.8740
 2.6240	 2.9090
 2.6260	 2.9090
 2.6270	 2.8290
 2.6280	 2.8070
 2.6300	 2.7830
 2.6310	 2.7970
 2.6320	 2.7900
 2.6340	 2.8100
 2.6350	 2.7640
 2.6360	 2.7840
 2.6380	 2.7880
 2.6390	 2.7770
 2.6400	 2.7390
 2.6420	 2.7990
 2.6430	 2.7690
 2.6440	 2.7480
 2.6460	 2.7830
 2.6470	 2.8040
 2.6480	 2.7470
 2.6500	 2.7400
 2.6510	 2.7310
 2.6520	 2.7480
 2.6540	 2.7080
 2.6550	 2.7000
 2.6560	 2.6760
 2.6580	 2.6910
 2.6590	 2.6380
 2.6610	 2.6220
 2.6620	 2.6050
 2.6630	 2.6640
 2.6650	 2.6480
 2.6660	 2.6470
 2.6670	 2.6360
 2.6690	 2.6060
 2.6700	 2.5720
 2.6720	 2.5810
 2.6730	 2.5350
 2.6740	 2.5010
 2.6760	 2.4700
 2.6770	 2.4800
 2.6780	 2.4660
 2.6800	 2.5040
 2.6810	 2.4870
 2.6830	 2.5100
 2.6840	 2.4850
 2.6850	 2.4740
 2.6870	 2.4580
 2.6880	 2.4300
 2.6900	 2.3830
 2.6910	 2.4250
 2.6920	 2.4730
 2.6940	 2.4760
 2.6950	 2.3950
 2.6970	 2.3650
 2.6980	 2.3560
 2.6990	 2.3770
 2.7010	 2.3370
 2.7020	 2.3270
 2.7040	 2.2680
 2.7050	 2.2810
 2.7060	 2.2950
 2.7080	 2.3030
 2.7090	 2.2700
 2.7110	 2.2720
 2.7120	 2.2410
 2.7130	 2.2340
 2.7150	 2.2100
 2.7160	 2.2350
 2.7180	 2.2040
 2.7190	 2.1940
 2.7210	 2.1660
 2.7220	 2.1660
 2.7230	 2.1770
 2.7250	 2.1760
 2.7260	 2.1000
 2.7280	 2.0530
 2.7290	 2.0240
 2.7310	 2.0930
 2.7320	 2.1290
 2.7330	 2.1780
 2.7350	 2.1380
 2.7360	 2.0710
 2.7380	 2.0220
 2.7390	 2.1080
 2.7410	 2.0640
 2.7420	 2.0280
 2.7440	 2.0180
 2.7450	 2.0410
 2.7470	 2.0440
 2.7480	 2.0420
 2.7490	 1.9690
 2.7510	 1.9820
 2.7520	 2.0300
 2.7540	 2.0290
 2.7550	 1.9330
 2.7570	 1.8940
 2.7580	 1.8900
 2.7600	 1.9350
 2.7610	 1.9380
 2.7630	 1.9420
 2.7640	 1.9490
 2.7660	 1.9930
 2.7670	 1.9250
 2.7680	 1.9010
 2.7700	 1.8710
 2.7710	 1.8700
 2.7730	 1.8330
 2.7740	 1.8850
 2.7760	 1.9170
 2.7770	 1.9390
 2.7790	 1.8690
 2.7800	 1.8900
 2.7820	 1.8800
 2.7830	 1.8410
 2.7850	 1.8290
 2.7860	 1.8650
 2.7880	 1.8530
 2.7890	 1.8330
 2.7910	 1.7680
 2.7920	 1.7860
 2.7940	 1.7790
 2.7950	 1.8370
 2.7970	 1.8140
 2.7980	 1.8160
 2.8000	 1.8060
 2.8010	 1.7590
 2.8030	 1.6910
 2.8040	 1.7380
 2.8060	 1.7410
 2.8070	 1.7410
 2.8090	 1.7030
 2.8110	 1.7360
 2.8120	 1.7740
 2.8140	 1.7800
 2.8150	 1.7280
 2.8170	 1.7380
 2.8180	 1.7670
 2.8200	 1.8100
 2.8210	 1.7590
 2.8230	 1.7430
 2.8240	 1.7630
 2.8260	 1.8070
 2.8270	 1.7320
 2.8290	 1.7230
 2.8300	 1.7370
 2.8320	 1.7700
 2.8340	 1.7040
 2.8350	 1.7230
 2.8370	 1.7410
 2.8380	 1.7620
 2.8400	 1.7280
 2.8410	 1.7300
 2.8430	 1.7100
 2.8440	 1.7240
 2.8460	 1.7400
 2.8480	 1.7430
 2.8490	 1.6880
 2.8510	 1.6840
 2.8520	 1.6950
 2.8540	 1.7210
 2.8550	 1.6360
 2.8570	 1.6310
 2.8590	 1.6680
 2.8600	 1.7020
 2.8620	 1.7040
 2.8630	 1.7290
 2.8650	 1.6800
 2.8660	 1.6850
 2.8680	 1.6990
 2.8700	 1.6840
 2.8710	 1.6230
 2.8730	 1.6590
 2.8740	 1.6780
 2.8760	 1.6820
 2.8780	 1.6410
 2.8790	 1.6250
 2.8810	 1.6450
 2.8820	 1.6890
 2.8840	 1.6930
 2.8860	 1.7660
 2.8870	 1.7210
 2.8890	 1.6890
 2.8900	 1.6720
 2.8920	 1.6700
 2.8940	 1.6400
 2.8950	 1.6350
 2.8970	 1.6550
 2.8980	 1.6690
 2.9000	 1.6560
 2.9020	 1.7080
 2.9030	 1.7260
 2.9050	 1.7390
 2.9070	 1.7080
 2.9080	 1.6930
 2.9100	 1.6690
 2.9120	 1.7170
 2.9130	 1.7110
 2.9150	 1.6930
 2.9160	 1.7080
 2.9180	 1.7400
 2.9200	 1.7160
 2.9210	 1.7060
 2.9230	 1.6860
 2.9250	 1.6970
 2.9260	 1.6720
 2.9280	 1.7060
 2.9300	 1.6740
 2.9310	 1.6900
 2.9330	 1.6960
 2.9350	 1.7380
 2.9360	 1.7230
 2.9380	 1.7230
 2.9400	 1.7020
 2.9410	 1.7070
 2.9430	 1.6830
 2.9450	 1.7390
 2.9460	 1.7320
 2.9480	 1.6970
 2.9500	 1.7030
 2.9510	 1.7290
 2.9530	 1.7260
 2.9550	 1.7290
 2.9560	 1.6980
 2.9580	 1.7180
 2.9600	 1.7220
 2.9610	 1.7060
 2.9630	 1.6810
 2.9650	 1.7480
 2.9660	 1.7380
 2.9680	 1.7300
 2.9700	 1.6710
 2.9720	 1.7170
 2.9730	 1.7770
 2.9750	 1.8160
 2.9770	 1.8070
 2.9780	 1.8250
 2.9800	 1.7900
 2.9820	 1.8140
 2.9840	 1.7850
 2.9850	 1.7890
 2.9870	 1.8170
 2.9890	 1.8720
 2.9900	 1.8300
 2.9920	 1.8460
 2.9940	 1.8520
 2.9960	 1.8180
 2.9970	 1.7650
 2.9990	 1.8110
 3.0010	 1.8410
 3.0030	 1.8690
 3.0040	 1.8280
 3.0060	 1.8470
 3.0080	 1.8060
 3.0100	 1.8030
 3.0110	 1.8170
 3.0130	 1.8760
 3.0150	 1.8420
 3.0170	 1.8350
 3.0180	 1.8560
 3.0200	 1.9110
 3.0220	 1.8900
 3.0240	 1.8940
 3.0250	 1.8740
 3.0270	 1.8760
 3.0290	 1.8510
 3.0310	 1.8290
 3.0320	 1.8290
 3.0340	 1.8640
 3.0360	 1.8510
 3.0380	 1.8810
 3.0400	 1.8620
 3.0410	 1.8930
 3.0430	 1.9370
 3.0450	 1.9650
 3.0470	 1.9190
 3.0480	 1.9090
 3.0500	 1.8840
 3.0520	 1.9300
 3.0540	 1.9250
 3.0560	 1.9230
 3.0570	 1.9250
 3.0590	 1.9340
 3.0610	 1.9480
 3.0630	 1.9630
 3.0650	 1.9310
 3.0660	 1.9720
 3.0680	 1.9580
 3.0700	 2.0080
 3.0720	 1.9990
 3.0740	 1.9640
 3.0760	 1.9510
 3.0770	 1.9780
 3.0790	 1.9830
 3.0810	 2.0240
 3.0830	 2.0620
 3.0850	 2.0870
 3.0870	 2.0660
 3.0880	 2.0400
 3.0900	 2.0000
 3.0920	 2.0550
 3.0940	 2.0330
 3.0960	 1.9980
 3.0980	 2.0060
 3.0990	 2.0660
 3.1010	 2.0610
 3.1030	 2.0960
 3.1050	 2.0850
 3.1070	 2.0480
 3.1090	 2.0120
 3.1110	 2.0430
 3.1120	 2.0740
 3.1140	 2.0610
 3.1160	 2.0470
 3.1180	 2.0860
 3.1200	 2.0510
 3.1220	 2.1290
 3.1240	 2.1550
 3.1260	 2.1470
 3.1270	 2.0990
 3.1290	 2.1240
 3.1310	 2.0920
 3.1330	 2.1100
 3.1350	 2.1410
 3.1370	 2.1850
 3.1390	 2.1330
 3.1410	 2.1030
 3.1430	 2.1280
 3.1450	 2.1670
 3.1460	 2.1530
 3.1480	 2.1760
 3.1500	 2.1360
 3.1520	 2.1180
 3.1540	 2.1080
 3.1560	 2.1970
 3.1580	 2.2000
 3.1600	 2.2100
 3.1620	 2.2080
 3.1640	 2.1990
 3.1660	 2.1530
 3.1680	 2.2100
 3.1700	 2.2230
 3.1710	 2.2110
 3.1730	 2.1860
 3.1750	 2.2500
 3.1770	 2.2390
 3.1790	 2.2160
 3.1810	 2.1780
 3.1830	 2.2070
 3.1850	 2.2010
 3.1870	 2.2270
 3.1890	 2.2370
 3.1910	 2.2760
 3.1930	 2.2580
 3.1950	 2.2190
 3.1970	 2.1820
 3.1990	 2.2030
 3.2010	 2.2130
 3.2030	 2.2430
 3.2050	 2.1910
 3.2070	 2.2390
 3.2090	 2.2570
 3.2110	 2.2470
 3.2130	 2.2370
 3.2150	 2.2470
 3.2170	 2.2440
 3.2190	 2.3230
 3.2210	 2.3180
 3.2230	 2.2770
 3.2250	 2.2240
 3.2270	 2.2580
 3.2290	 2.3040
 3.2310	 2.2820
 3.2330	 2.2780
 3.2350	 2.3340
 3.2370	 2.2690
 3.2390	 2.2570
 3.2410	 2.2770
 3.2430	 2.3370
 3.2450	 2.3030
 3.2470	 2.2870
 3.2490	 2.2890
 3.2510	 2.2850
 3.2530	 2.2660
 3.2550	 2.3060
 3.2570	 2.3270
 3.2590	 2.2920
 3.2610	 2.2770
 3.2630	 2.3690
 3.2650	 2.3950
 3.2670	 2.4130
 3.2690	 2.3560
 3.2720	 2.3170
 3.2740	 2.3120
 3.2760	 2.3450
 3.2780	 2.3130
 3.2800	 2.3360
 3.2820	 2.3510
 3.2840	 2.3680
 3.2860	 2.3780
 3.2880	 2.4000
 3.2900	 2.3620
 3.2920	 2.3840
 3.2940	 2.3640
 3.2960	 2.3520
 3.2990	 2.3640
 3.3010	 2.3970
 3.3030	 2.3230
 3.3050	 2.2860
 3.3070	 2.3220
 3.3090	 2.3580
 3.3110	 2.3110
 3.3130	 2.3400
 3.3150	 2.3380
 3.3180	 2.3350
 3.3200	 2.3220
 3.3220	 2.3320
 3.3240	 2.2760
 3.3260	 2.2840
 3.3280	 2.2910
 3.3300	 2.3130
 3.3330	 2.3020
 3.3350	 2.2800
 3.3370	 2.2350
 3.3390	 2.2600
 3.3410	 2.2540
 3.3430	 2.2350
 3.3450	 2.1660
 3.3480	 2.1810
 3.3500	 2.1810
 3.3520	 2.1900
 3.3540	 2.1600
 3.3560	 2.1910
 3.3580	 2.1820
 3.3610	 2.1570
 3.3630	 2.1210
 3.3650	 2.1450
 3.3670	 2.1320
 3.3690	 2.1220
 3.3720	 2.0590
 3.3740	 2.0290
 3.3760	 1.9940
 3.3780	 2.0410
 3.3800	 2.0840
 3.3830	 2.1270
 3.3850	 2.1170
 3.3870	 2.1410
 3.3890	 2.1360
 3.3910	 2.1220
 3.3940	 2.1180
 3.3960	 2.1310
 3.3980	 2.1070
 3.4000	 2.1280
 3.4020	 2.1280
 3.4050	 2.1550
 3.4070	 2.1720
 3.4090	 2.1870
 3.4110	 2.1850
 3.4140	 2.2240
 3.4160	 2.2260
 3.4180	 2.3300
 3.4200	 2.4320
 3.4230	 2.5190
 3.4250	 2.6280
 3.4270	 2.8290
 3.4290	 2.9180
 3.4320	 2.8860
 3.4340	 2.7470
 3.4360	 2.6740
 3.4390	 2.6120
 3.4410	 2.6270
 3.4430	 2.6450
 3.4450	 2.6390
 3.4480	 2.6150
 3.4500	 2.6630
 3.4520	 2.6150
 3.4550	 2.6070
 3.4570	 2.6200
 3.4590	 2.6350
 3.4620	 2.6240
 3.4640	 2.6420
 3.4660	 2.6110
 3.4680	 2.6070
 3.4710	 2.5820
 3.4730	 2.5940
 3.4750	 2.5980
 3.4780	 2.6100
 3.4800	 2.6120
 3.4820	 2.6070
 3.4850	 2.5970
 3.4870	 2.6220
 3.4890	 2.6110
 3.4920	 2.6110
 3.4940	 2.5610
 3.4970	 2.6260
 3.4990	 2.6720
 3.5010	 2.6410
 3.5040	 2.6040
 3.5060	 2.7110
 3.5080	 2.9010
 3.5110	 3.1600
 3.5130	 3.2220
 3.5160	 3.1380
 3.5180	 3.0310
 3.5200	 3.0090
 3.5230	 2.9540
 3.5250	 2.9720
 3.5270	 3.0120
 3.5300	 3.0650
 3.5320	 3.0080
 3.5350	 3.0150
 3.5370	 3.0040
 3.5400	 3.0020
 3.5420	 3.0140
 3.5440	 3.0610
 3.5470	 3.0500
 3.5490	 3.0590
 3.5520	 3.0060
 3.5540	 3.0140
 3.5570	 3.0500
 3.5590	 3.0710
 3.5610	 3.0760
 3.5640	 3.1110
 3.5660	 3.1230
 3.5690	 3.1140
 3.5710	 3.0590
 3.5740	 3.0800
 3.5760	 3.0870
 3.5790	 3.1030
 3.5810	 3.1280
 3.5840	 3.1740
 3.5860	 3.1480
 3.5890	 3.1120
 3.5910	 3.0680
 3.5930	 3.0840
 3.5960	 3.1110
 3.5980	 3.1650
 3.6010	 3.1600
 3.6030	 3.2030
 3.6060	 3.2090
 3.6080	 3.1740
 3.6110	 3.1310
 3.6140	 3.1110
 3.6160	 3.1070
 3.6190	 3.1400
 3.6210	 3.1210
 3.6240	 3.1650
 3.6260	 3.1570
 3.6290	 3.1500
 3.6310	 3.1610
 3.6340	 3.1940
 3.6360	 3.1870
 3.6390	 3.2110
 3.6410	 3.1660
 3.6440	 3.1630
 3.6470	 3.1690
 3.6490	 3.1740
 3.6520	 3.2010
 3.6540	 3.2620
 3.6570	 3.2550
 3.6590	 3.2210
 3.6620	 3.1760
 3.6650	 3.1940
 3.6670	 3.1950
 3.6700	 3.2380
 3.6720	 3.2660
 3.6750	 3.2770
 3.6780	 3.2630
 3.6800	 3.2590
 3.6830	 3.2440
 3.6850	 3.2770
 3.6880	 3.3010
 3.6910	 3.3440
 3.6930	 3.3300
 3.6960	 3.2930
 3.6990	 3.2540
 3.7010	 3.2750
 3.7040	 3.3080
 3.7060	 3.3460
 3.7090	 3.3660
 3.7120	 3.3830
 3.7140	 3.3550
 3.7170	 3.3380
 3.7200	 3.3130
 3.7220	 3.3400
 3.7250	 3.3430
 3.7280	 3.3340
 3.7300	 3.3760
 3.7330	 3.4250
 3.7360	 3.3690
 3.7390	 3.3830
 3.7410	 3.3750
 3.7440	 3.3920
 3.7470	 3.3970
 3.7490	 3.3910
 3.7520	 3.3820
 3.7550	 3.4050
 3.7580	 3.4040
 3.7600	 3.4120
 3.7630	 3.4040
 3.7660	 3.4310
 3.7680	 3.4550
 3.7710	 3.4570
 3.7740	 3.4280
 3.7770	 3.4370
 3.7790	 3.4380
 3.7820	 3.4940
 3.7850	 3.5290
 3.7880	 3.5200
 3.7900	 3.4800
 3.7930	 3.5040
 3.7960	 3.4950
 3.7990	 3.4920
 3.8020	 3.5370
 3.8040	 3.6080
 3.8070	 3.5680
 3.8100	 3.5510
 3.8130	 3.5750
 3.8160	 3.6140
 3.8180	 3.6340
 3.8210	 3.6500
 3.8240	 3.6370
 3.8270	 3.6140
 3.8300	 3.5820
 3.8330	 3.6110
 3.8350	 3.6140
 3.8380	 3.6090
 3.8410	 3.6330
 3.8440	 3.6180
 3.8470	 3.5310
 3.8500	 3.5590
 3.8520	 3.5810
 3.8550	 3.5990
 3.8580	 3.6260
 3.8610	 3.6710
 3.8640	 3.6410
 3.8670	 3.6070
 3.8700	 3.5950
 3.8730	 3.6110
 3.8750	 3.6210
 3.8780	 3.6760
 3.8810	 3.7070
 3.8840	 3.7070
 3.8870	 3.6570
 3.8900	 3.6490
 3.8930	 3.6350
 3.8960	 3.6780
 3.8990	 3.7240
 3.9020	 3.7020
 3.9050	 3.6740
 3.9080	 3.6920
 3.9110	 3.6760
 3.9140	 3.6670
 3.9160	 3.6530
 3.9190	 3.6630
 3.9220	 3.6770
 3.9250	 3.7150
 3.9280	 3.7010
 3.9310	 3.6940
 3.9340	 3.6700
 3.9370	 3.6390
 3.9400	 3.6700
 3.9430	 3.7300
 3.9460	 3.7070
 3.9490	 3.7000
 3.9520	 3.6930
 3.9550	 3.7210
 3.9580	 3.7070
 3.9610	 3.6830
 3.9640	 3.6670
 3.9670	 3.7580
 3.9700	 3.7550
 3.9730	 3.7320
 3.9770	 3.7110
 3.9800	 3.7470
 3.9830	 3.7540
 3.9860	 3.7530
 3.9890	 3.7600
 3.9920	 3.7520
 3.9950	 3.7130
 3.9980	 3.7400
 4.0010	 3.7760
 4.0040	 3.7480
 4.0070	 3.7300
 4.0100	 3.7180
 4.0130	 3.7460
 4.0170	 3.7650
 4.0200	 3.7400
 4.0230	 3.7280
 4.0260	 3.6900
 4.0290	 3.7330
 4.0320	 3.7800
 4.0350	 3.8150
 4.0380	 3.7890
 4.0420	 3.8010
 4.0450	 3.8470
 4.0480	 3.8670
 4.0510	 3.8110
 4.0540	 3.7940
 4.0570	 3.8070
 4.0610	 3.8430
 4.0640	 3.8140
 4.0670	 3.8080
 4.0700	 3.8050
 4.0730	 3.8410
 4.0770	 3.8590
 4.0800	 3.8510
 4.0830	 3.8160
 4.0860	 3.8410
 4.0890	 3.8140
 4.0930	 3.8000
 4.0960	 3.7950
 4.0990	 3.7900
 4.1020	 3.8030
 4.1060	 3.8450
 4.1090	 3.8400
 4.1120	 3.7950
 4.1150	 3.7890
 4.1190	 3.8000
 4.1220	 3.7750
 4.1250	 3.8100
 4.1280	 3.8320
 4.1320	 3.8170
 4.1350	 3.7970
 4.1380	 3.8080
 4.1420	 3.7860
 4.1450	 3.7740
 4.1480	 3.7600
 4.1520	 3.7520
 4.1550	 3.7360
 4.1580	 3.7650
 4.1620	 3.7850
 4.1650	 3.8140
 4.1680	 3.7780
 4.1720	 3.7630
 4.1750	 3.7870
 4.1780	 3.7650
 4.1820	 3.7400
 4.1850	 3.7910
 4.1890	 3.7520
 4.1920	 3.7250
 4.1950	 3.7110
 4.1990	 3.6180
 4.2020	 3.4430
 4.2060	 3.2600
 4.2090	 2.9790
 4.2120	 2.7260
 4.2160	 2.5050
 4.2190	 2.3490
 4.2230	 2.2430
 4.2260	 2.1010
 4.2300	 1.9630
 4.2330	 1.9010
 4.2360	 1.9170
 4.2400	 1.9690
 4.2430	 2.0250
 4.2470	 2.1980
 4.2500	 2.4140
 4.2540	 2.6980
 4.2570	 2.9240
 4.2610	 2.7840
 4.2640	 2.4650
 4.2680	 2.2970
 4.2710	 2.2440
 4.2750	 2.2090
 4.2780	 2.2210
 4.2820	 2.3080
 4.2850	 2.3360
 4.2890	 2.3840
 4.2930	 2.4100
 4.2960	 2.4590
 4.3000	 2.5160
 4.3030	 2.6120
 4.3070	 2.6980
 4.3100	 2.7670
 4.3140	 2.8700
 4.3180	 2.9780
 4.3210	 3.0200
 4.3250	 3.0960
 4.3280	 3.1740
 4.3320	 3.2920
 4.3360	 3.4110
 4.3390	 3.4430
 4.3430	 3.4420
 4.3470	 3.4650
 4.3500	 3.4650
 4.3540	 3.5030
 4.3570	 3.5970
 4.3610	 3.6250
 4.3650	 3.5840
 4.3680	 3.6050
 4.3720	 3.6200
 4.3760	 3.6220
 4.3800	 3.5870
 4.3830	 3.6000
 4.3870	 3.6250
 4.3910	 3.6180
 4.3940	 3.6100
 4.3980	 3.6220
 4.4020	 3.5810
 4.4060	 3.5560
 4.4090	 3.5810
 4.4130	 3.6210
 4.4170	 3.6040
 4.4210	 3.5520
 4.4240	 3.5650
 4.4280	 3.5500
 4.4320	 3.5130
 4.4360	 3.5070
 4.4400	 3.5140
 4.4430	 3.5770
 4.4470	 3.6060
 4.4510	 3.5940
 4.4550	 3.5710
 4.4590	 3.5750
 4.4620	 3.5820
 4.4660	 3.5720
 4.4700	 3.5900
 4.4740	 3.6070
 4.4780	 3.6050
 4.4820	 3.5900
 4.4860	 3.5510
 4.4900	 3.5900
 4.4930	 3.6080
 4.4970	 3.6070
 4.5010	 3.6280
 4.5050	 3.6470
 4.5090	 3.6540
 4.5130	 3.5950
 4.5170	 3.5490
 4.5210	 3.5610
 4.5250	 3.5620
 4.5290	 3.5920
 4.5330	 3.5970
 4.5370	 3.5380
 4.5410	 3.5370
 4.5450	 3.5460
 4.5490	 3.5870
 4.5530	 3.5850
 4.5570	 3.5500
 4.5610	 3.5870
 4.5650	 3.6130
 4.5690	 3.6120
 4.5730	 3.5800
 4.5770	 3.5580
 4.5810	 3.5370
 4.5850	 3.5490
 4.5890	 3.5820
 4.5930	 3.5880
 4.5970	 3.5470
 4.6010	 3.5680
 4.6050	 3.5970
 4.6090	 3.5670
 4.6130	 3.5200
 4.6170	 3.5230
 4.6220	 3.5370
 4.6260	 3.5300
 4.6300	 3.5260
 4.6340	 3.5520
 4.6380	 3.5590
 4.6420	 3.5400
 4.6460	 3.5390
 4.6510	 3.5250
 4.6550	 3.5290
 4.6590	 3.5370
 4.6630	 3.5280
 4.6670	 3.5200
 4.6720	 3.5480
 4.6760	 3.6190
 4.6800	 3.6340
 4.6840	 3.5850
 4.6880	 3.5890
 4.6930	 3.5460
 4.6970	 3.5020
 4.7010	 3.4870
 4.7050	 3.5050
 4.7100	 3.5690
 4.7140	 3.5620
 4.7180	 3.5570
 4.7230	 3.5800
 4.7270	 3.5790
 4.7310	 3.5460
 4.7360	 3.5070
 4.7400	 3.5360
 4.7440	 3.5540
 4.7490	 3.5240
 4.7530	 3.4900
 4.7570	 3.5150
 4.7620	 3.5120
 4.7660	 3.4900
 4.7700	 3.5090
 4.7750	 3.5590
 4.7790	 3.6070
 4.7840	 3.5830
 4.7880	 3.5230
 4.7920	 3.5310
 4.7970	 3.5560
 4.8010	 3.5130
 4.8060	 3.4930
 4.8100	 3.5180
 4.8150	 3.5100
 4.8190	 3.4870
 4.8240	 3.5090
 4.8280	 3.5310
 4.8330	 3.5270
 4.8370	 3.5330
 4.8420	 3.5330
 4.8460	 3.5790
 4.8510	 3.5470
 4.8550	 3.5010
 4.8600	 3.4880
 4.8640	 3.5310
 4.8690	 3.4730
 4.8730	 3.4020
 4.8780	 3.4820
 4.8830	 3.5220
 4.8870	 3.4490
 4.8920	 3.4650
 4.8960	 3.4880
 4.9010	 3.5060
 4.9060	 3.4930
 4.9100	 3.4810
 4.9150	 3.4830
 4.9200	 3.4550
 4.9240	 3.4300
 4.9290	 3.4530
 4.9340	 3.4660
 4.9380	 3.4770
 4.9430	 3.4980
 4.9480	 3.5120
 4.9530	 3.4740
 4.9570	 3.4620
 4.9620	 3.4560
 4.9670	 3.4860
 4.9720	 3.5220
 4.9760	 3.5550
 4.9810	 3.5350
 4.9860	 3.4820
 4.9910	 3.4460
 4.9960	 3.4570
 5.0000	 3.4570
 5.0050	 3.4670
 5.0100	 3.4660
 5.0150	 3.4860
 5.0200	 3.4870
 5.0250	 3.4820
 5.0290	 3.4700
 5.0340	 3.4850
 5.0390	 3.5120
 5.0440	 3.5170
 5.0490	 3.4620
 5.0540	 3.4820
 5.0590	 3.5370
 5.0640	 3.5460
 5.0690	 3.5340
 5.0740	 3.5060
 5.0790	 3.4700
 5.0840	 3.5250
 5.0890	 3.5370
 5.0940	 3.5120
 5.0990	 3.5260
 5.1040	 3.5450
 5.1090	 3.4900
 5.1140	 3.4730
 5.1190	 3.4640
 5.1240	 3.4910
 5.1290	 3.5080
 5.1340	 3.5460
 5.1390	 3.5310
 5.1440	 3.5040
 5.1490	 3.5180
 5.1540	 3.5680
 5.1600	 3.5700
 5.1650	 3.5540
 5.1700	 3.5140
 5.1750	 3.4630
 5.1800	 3.4600
 5.1850	 3.5350
 5.1910	 3.5300
 5.1960	 3.5350
 5.2010	 3.5580
 5.2060	 3.5810
 5.2110	 3.5060
 5.2170	 3.4570
 5.2220	 3.4890
 5.2270	 3.5380
 5.2320	 3.5140
 5.2380	 3.4770
 5.2430	 3.4550
 5.2480	 3.5010
 5.2540	 3.5100
 5.2590	 3.5290
 5.2640	 3.5530
 5.2700	 3.5460
 5.2750	 3.4980
 5.2800	 3.5000
 5.2860	 3.5260
 5.2910	 3.5540
 5.2970	 3.5230
 5.3020	 3.5180
 5.3070	 3.5030
 5.3130	 3.4930
 5.3180	 3.4890
 5.3240	 3.5360
 5.3290	 3.5370
 5.3350	 3.5050
 5.3400	 3.4270
 5.3460	 3.4190
 5.3510	 3.4520
 5.3570	 3.4920
 5.3620	 3.4500
 5.3680	 3.4530
 5.3730	 3.4770
 5.3790	 3.4710
 5.3850	 3.4290
 5.3900	 3.4870
 5.3960	 3.4930
 5.4010	 3.4780
 5.4070	 3.4690
 5.4130	 3.4490
 5.4180	 3.3970
 5.4240	 3.4590
 5.4300	 3.4960
 5.4350	 3.4710
 5.4410	 3.3960
 5.4470	 3.4170
 5.4530	 3.4070
 5.4580	 3.3920
 5.4640	 3.3410
 5.4700	 3.3270
 5.4760	 3.3190
 5.4810	 3.3480
 5.4870	 3.3530
 5.4930	 3.3030
 5.4990	 3.2300
 5.5050	 3.2360
 5.5110	 3.2650
 5.5160	 3.3100
 5.5220	 3.2600
 5.5280	 3.2020
 5.5340	 3.1740
 5.5400	 3.1840
 5.5460	 3.0950
 5.5520	 3.0690
 5.5580	 3.0710
 5.5640	 3.1080
 5.5700	 3.1030
 5.5760	 3.0920
 5.5820	 3.0230
 5.5880	 3.0020
 5.5940	 2.9450
 5.6000	 2.9810
 5.6060	 2.9710
 5.6120	 2.9390
 5.6180	 2.8910
 5.6240	 2.8270
 5.6300	 2.7360
 5.6360	 2.7420
 5.6420	 2.7670
 5.6490	 2.7630
 5.6550	 2.7060
 5.6610	 2.6450
 5.6670	 2.6310
 5.6730	 2.6430
 5.6800	 2.6060
 5.6860	 2.5850
 5.6920	 2.5150
 5.6980	 2.5110
 5.7040	 2.5010
 5.7110	 2.4410
 5.7170	 2.3380
 5.7230	 2.3060
 5.7300	 2.3000
 5.7360	 2.3330
 5.7420	 2.3010
 5.7490	 2.3240
 5.7550	 2.3710
 5.7620	 2.4640
 5.7680	 2.5510
 5.7740	 2.6280
 5.7810	 2.6250
 5.7870	 2.6770
 5.7940	 2.7570
 5.8000	 2.8650
 5.8070	 2.8700
 5.8130	 2.8830
 5.8200	 2.8660
 5.8260	 2.8730
 5.8330	 2.8980
 5.8390	 2.9370
 5.8460	 2.8860
 5.8530	 2.8730
 5.8590	 2.8800
 5.8660	 2.9440
 5.8720	 2.9150
 5.8790	 2.8590
 5.8860	 2.8560
 5.8920	 2.9250
 5.8990	 2.9070
 5.9060	 2.9180
 5.9130	 2.9170
 5.9190	 2.9300
 5.9260	 2.9460
 5.9330	 2.9600
 5.9400	 2.9000
 5.9470	 2.9920
 5.9530	 3.0080
 5.9600	 2.9760
 5.9670	 2.9350
 5.9740	 2.9520
 5.9810	 2.9120
 5.9880	 2.8940
 5.9950	 2.8480
 6.0020	 2.8500
 6.0090	 2.8250
 6.0160	 2.7610
 6.0230	 2.7330
 6.0300	 2.7670
 6.0370	 2.7570
 6.0440	 2.7810
 6.0510	 2.7430
 6.0580	 2.7600
 6.0650	 2.7020
 6.0720	 2.6480
 6.0790	 2.6490
 6.0860	 2.7420
 6.0930	 2.7430
 6.1000	 2.7670
 6.1080	 2.6940
 6.1150	 2.7290
 6.1220	 2.7150
 6.1290	 2.7110
 6.1370	 2.6940
 6.1440	 2.7280
 6.1510	 2.6880
 6.1580	 2.6800
 6.1660	 2.6040
 6.1730	 2.6160
 6.1800	 2.6010
 6.1880	 2.6370
 6.1950	 2.6000
 6.2030	 2.5660
 6.2100	 2.5690
 6.2170	 2.6100
 6.2250	 2.5940
 6.2320	 2.6780
 6.2400	 2.6820
 6.2470	 2.6580
 6.2550	 2.6090
 6.2630	 2.6570
 6.2700	 2.6010
 6.2780	 2.5810
 6.2850	 2.6130
 6.2930	 2.6630
 6.3010	 2.6400
 6.3080	 2.6500
 6.3160	 2.6270
 6.3240	 2.6500
 6.3310	 2.6420
 6.3390	 2.6850
 6.3470	 2.6260
 6.3550	 2.6160
 6.3620	 2.5740
 6.3700	 2.6200
 6.3780	 2.6220
 6.3860	 2.6680
 6.3940	 2.6900
 6.4020	 2.7450
 6.4100	 2.6790
 6.4180	 2.6730
 6.4260	 2.6860
 6.4330	 2.7540
 6.4410	 2.7560
 6.4490	 2.7390
 6.4580	 2.6720
 6.4660	 2.7310
 6.4740	 2.7840
 6.4820	 2.8080
 6.4900	 2.7170
 6.4980	 2.7090
 6.5060	 2.6960
 6.5140	 2.7400
 6.5230	 2.7120
 6.5310	 2.7480
 6.5390	 2.7350
 6.5470	 2.7540
 6.5550	 2.6810
 6.5640	 2.6940
 6.5720	 2.6970
 6.5800	 2.7390
 6.5890	 2.6800
 6.5970	 2.6420
 6.6060	 2.6070
 6.6140	 2.6780
 6.6220	 2.6800
 6.6310	 2.6710
 6.6390	 2.6020
 6.6480	 2.5990
 6.6560	 2.6360
 6.6650	 2.6870
 6.6740	 2.6300
 6.6820	 2.6540
 6.6910	 2.6120
 6.6990	 2.6460
 6.7080	 2.6080
 6.7170	 2.6110
 6.7260	 2.5690
 6.7340	 2.5870
 6.7430	 2.5380
 6.7520	 2.5760
 6.7610	 2.5210
 6.7690	 2.4860
 6.7780	 2.4040
 6.7870	 2.4150
 6.7960	 2.3900
 6.8050	 2.4100
 6.8140	 2.3630
 6.8230	 2.3840
 6.8320	 2.4540
 6.8410	 2.5620
 6.8500	 2.4750
 6.8590	 2.4510
 6.8680	 2.4850
 6.8770	 2.5920
 6.8860	 2.5670
 6.8950	 2.5580
 6.9050	 2.5130
 6.9140	 2.5740
 6.9230	 2.5730
 6.9320	 2.6330
 6.9420	 2.6300
 6.9510	 2.6360
 6.9600	 2.5980
 6.9700	 2.6090
 6.9790	 2.5300
 6.9880	 2.5240
 6.9980	 2.4850
 7.0070	 2.4950
 7.0170	 2.4520
 7.0260	 2.5430
 7.0360	 2.5710
 7.0450	 2.5660
 7.0550	 2.5100
 7.0650	 2.5150
 7.0740	 2.4660
 7.0840	 2.4840
 7.0940	 2.4480
 7.1030	 2.5510
 7.1130	 2.4530
 7.1230	 2.3980
 7.1330	 2.4090
 7.1420	 2.4660
 7.1520	 2.4440
 7.1620	 2.4760
 7.1720	 2.3920
 7.1820	 2.3960
 7.1920	 2.3870
 7.2020	 2.4510
 7.2120	 2.4500
 7.2220	 2.4760
 7.2320	 2.4340
 7.2420	 2.4500
 7.2520	 2.4170
 7.2620	 2.5050
 7.2730	 2.4750
 7.2830	 2.4630
 7.2930	 2.4940
 7.3030	 2.5350
 7.3140	 2.4680
 7.3240	 2.4600
 7.3340	 2.4230
 7.3450	 2.5020
 7.3550	 2.4780
 7.3660	 2.5180
 7.3760	 2.4730
 7.3870	 2.4750
 7.3970	 2.4480
 7.4080	 2.5240
 7.4180	 2.5690
 7.4290	 2.6080
 7.4400	 2.5290
 7.4500	 2.5850
 7.4610	 2.5460
 7.4720	 2.5670
 7.4830	 2.5260
 7.4930	 2.5640
 7.5040	 2.5070
 7.5150	 2.4900
 7.5260	 2.4280
 7.5370	 2.4720
 7.5480	 2.4360
 7.5590	 2.4410
 7.5700	 2.3900
 7.5810	 2.4450
 7.5920	 2.3800
 7.6030	 2.3850
 7.6140	 2.3540
 7.6260	 2.4140
 7.6370	 2.3200
 7.6480	 2.3230
 7.6590	 2.3270
 7.6710	 2.3900
 7.6820	 2.3360
 7.6930	 2.4010
 7.7050	 2.4250
 7.7160	 2.4800
 7.7280	 2.4100
 7.7390	 2.4060
 7.7510	 2.3600
 7.7630	 2.3600
 7.7740	 2.2870
 7.7860	 2.3330
 7.7980	 2.2970
 7.8090	 2.3470
 7.8210	 2.3280
 7.8330	 2.3650
 7.8450	 2.2970
 7.8570	 2.3360
 7.8690	 2.2970
 7.8810	 2.3040
 7.8930	 2.2090
 7.9050	 2.1950
 7.9170	 2.1120
 7.9290	 2.1360
 7.9410	 2.1360
 7.9530	 2.1860
 7.9650	 2.1120
 7.9780	 2.1960
 7.9900	 2.1920
 8.0020	 2.1430
 8.0150	 2.0250
 8.0270	 2.0310
 8.0390	 1.9650
 8.0520	 2.0150
 8.0640	 1.9650
 8.0770	 1.9870
 8.0900	 1.8990
 8.1020	 1.8810
 8.1150	 1.8170
 8.1280	 1.8670
 8.1400	 1.8300
 8.1530	 1.8220
 8.1660	 1.7440
 8.1790	 1.8060
 8.1920	 1.7910
 8.2050	 1.8360
 8.2180	 1.8010
 8.2310	 1.8490
 8.2440	 1.8060
 8.2570	 1.8930
 8.2700	 1.8450
 8.2830	 1.8490
 8.2970	 1.7610
 8.3100	 1.8390
 8.3230	 1.8230
 8.3370	 1.8300
 8.3500	 1.7780
 8.3640	 1.8350
 8.3770	 1.8410
 8.3910	 1.9060
 8.4040	 1.8620
 8.4180	 1.8790
 8.4320	 1.8770
 8.4450	 1.9680
 8.4590	 1.8980
 8.4730	 1.9220
 8.4870	 1.8920
 8.5010	 1.9640
 8.5150	 1.9800
 8.5290	 2.0680
 8.5430	 2.0310
 8.5570	 2.1100
 8.5710	 2.0890
 8.5850	 2.1540
 8.5990	 2.1390
 8.6140	 2.1970
 8.6280	 2.1740
 8.6420	 2.2100
 8.6570	 2.1300
 8.6710	 2.1770
 8.6860	 2.1260
 8.7000	 2.1390
 8.7150	 2.0480
 8.7300	 2.0610
 8.7440	 2.0200
 8.7590	 2.0220
 8.7740	 1.9950
 8.7890	 2.0790
 8.8040	 1.9910
 8.8190	 2.0300
 8.8340	 1.9980
 8.8490	 2.0800
 8.8640	 2.0170
 8.8790	 2.0500
 8.8940	 2.0100
 8.9100	 2.0000
 8.9250	 1.9310
 8.9400	 2.0060
 8.9560	 1.9620
 8.9710	 1.9960
 8.9870	 1.9020
 9.0020	 1.9120
 9.0180	 1.8490
 9.0340	 1.8750
 9.0500	 1.8370
 9.0650	 1.9360
 9.0810	 1.8710
 9.0970	 1.8770
 9.1130	 1.8300
 9.1290	 1.8780
 9.1450	 1.8470
 9.1610	 1.9150
 9.1780	 1.8530
 9.1940	 1.8970
 9.2100	 1.8370
 9.2270	 1.8900
 9.2430	 1.8540
 9.2600	 1.9190
 9.2760	 1.8640
 9.2930	 1.8690
 9.3090	 1.8350
 9.3260	 1.9200
 9.3430	 1.8020
 9.3600	 1.8470
 9.3770	 1.8580
 9.3940	 1.9370
 9.4110	 1.8320
 9.4280	 1.8170
 9.4450	 1.7820
 9.4620	 1.8420
 9.4800	 1.7820
 9.4970	 1.8210
 9.5140	 1.8100
 9.5320	 1.8660
 9.5500	 1.7860
 9.5670	 1.8290
 9.5850	 1.7660
 9.6030	 1.9070
 9.6200	 1.8770
 9.6380	 1.8970
 9.6560	 1.8110
 9.6740	 1.8320
 9.6920	 1.7940
 9.7100	 1.8830
 9.7290	 1.8170
 9.7470	 1.9310
 9.7650	 1.9330
 9.7840	 1.9330
 9.8020	 1.8740
 9.8210	 1.9910
 9.8390	 1.9360
 9.8580	 1.9750
 9.8770	 1.9160
 9.8960	 1.9510
 9.9150	 1.8640
 9.9340	 1.9290
 9.9530	 1.8850
 9.9720	 1.9420
 9.9910	 1.9150
10.0100	 1.9800
10.0300	 1.9340
10.0490	 1.9690
10.0690	 1.9090
10.0880	 2.0190
10.1080	 1.9940
10.1280	 2.0080
10.1480	 1.9510
10.1670	 2.0150
10.1870	 1.9460
10.2070	 2.0060
10.2280	 1.9780
10.2480	 2.0180
10.2680	 1.9070
10.2890	 1.9630
10.3090	 1.9780
10.3300	 2.0650
10.3500	 1.9680
10.3710	 2.0070
10.3920	 1.9460
10.4120	 2.0210
10.4330	 1.9230
10.4540	 1.9960
10.4760	 1.9600
10.4970	 2.0230
10.5180	 1.9890
10.5390	 2.0290
10.5610	 1.8920
10.5820	 1.8980
10.6040	 1.8440
10.6260	 1.9440
10.6480	 1.8860
10.6700	 1.9550
10.6920	 1.9180
10.7140	 1.9480
10.7360	 1.8590
10.7580	 1.9390
10.7800	 1.8770
10.8030	 1.9500
10.8250	 1.8700
10.8480	 1.9040
10.8710	 1.8290
10.8940	 1.8940
10.9170	 1.8350
10.9400	 1.9110
10.9630	 1.8040
10.9860	 1.8640
11.0090	 1.8200
11.0330	 1.8520
11.0560	 1.7570
11.0800	 1.8160
11.1040	 1.7500
11.1270	 1.8160
11.1510	 1.7250
11.1750	 1.8320
11.2000	 1.8020
11.2240	 1.8240
11.2480	 1.7480
11.2730	 1.8210
11.2970	 1.7830
11.3220	 1.8080
11.3470	 1.7410
11.3720	 1.8490
11.3970	 1.7530
11.4220	 1.7520
11.4470	 1.6290
11.4720	 1.7130
11.4980	 1.6870
11.5230	 1.8020
11.5490	 1.7600
11.5750	 1.7890
11.6000	 1.6720
11.6260	 1.6890
11.6530	 1.6040
11.6790	 1.7280
11.7050	 1.6540
11.7320	 1.6770
11.7580	 1.6230
11.7850	 1.6630
11.8120	 1.5820
11.8390	 1.6320
11.8660	 1.5610
11.8930	 1.6330
11.9200	 1.5830
11.9480	 1.6460
11.9760	 1.5370
12.0030	 1.6060
12.0310	 1.5480
12.0590	 1.5800
12.0870	 1.4440
12.1150	 1.5130
12.1440	 1.4460
12.1720	 1.5150
12.2010	 1.4490
12.2300	 1.5290
12.2590	 1.4290
12.2880	 1.4580
12.3170	 1.3890
12.3460	 1.4940
12.3760	 1.4300
12.4050	 1.4590
12.4350	 1.3090
12.4650	 1.3510
12.4950	 1.3400
12.5250	 1.4340
12.5550	 1.3440
12.5860	 1.4770
12.6170	 1.4140
12.6470	 1.4640
12.6780	 1.3700
12.7090	 1.4490
12.7410	 1.3440
12.7720	 1.3900
12.8030	 1.3310
12.8350	 1.4200
12.8670	 1.3590
12.8990	 1.4480
12.9310	 1.3520
12.9640	 1.3720
12.9960	 1.3060
13.0290	 1.4150
13.0610	 1.3100
13.0940	 1.3290
13.1280	 1.2250
13.1610	 1.2720
13.1940	 1.1280
13.2280	 1.1850
13.2620	 1.1560
13.2960	 1.2970
13.3300	 1.2460
13.3640	 1.2980
13.3990	 1.1460
13.4340	 1.1850
13.4690	 1.0740
13.5040	 1.1670
13.5390	 1.0830
13.5740	 1.1400
13.6100	 1.0650
13.6460	 1.1300
13.6820	 1.0710
13.7180	 1.1470
13.7540	 1.0640
13.7910	 1.1280
13.8280	 0.9950
13.8650	 1.0790
13.9020	 0.9840
13.9390	 1.0360
13.9770	 0.9810
14.0150	 1.0950
14.0530	 1.0170
14.0910	 1.0610
14.1290	 0.9090
14.1680	 0.9960
14.2070	 0.8890
14.2460	 0.9390
14.2850	 0.8540
14.3240	 0.9250
14.3640	 0.8380
14.4040	 0.9300
14.4440	 0.8220
14.4840	 0.8850
14.5250	 0.7670
14.5660	 0.8380
14.6070	 0.7250
14.6480	 0.7660
14.6900	 0.6680
14.7310	 0.7710
14.7730	 0.6590
14.8150	 0.7160
14.8580	 0.6580
14.9010	 0.7200
14.9440	 0.5020
14.9870	 0.5930
15.0300	 0.6410
15.0740	 0.6920
15.1180	 0.5260
15.1620	 0.6440
15.2060	 0.5800
15.2510	 0.6430
15.2960	 0.5340
15.3410	 0.5800
15.3870	 0.4310
