Name: Adenostoma fasciculatum 3
Type: vegetation
Class: Shrub
Genus: Adenostoma
Species: fasciculatum
Sample No.: VH044
Owner: UCSB
Wavelength Range: TIR
Origin: 34.5084; -119.7686; WGS84
Collection Date: 4/1/2013
Description: Samples were collected as part of the HyspIRI Airborne Campaign. 48 individual plants were sampled in three times in 2013 - spring  summer  and fall. The name of the sample includes a 1  2  or 3 which references a different individual of the species. Samples were taken to JPL and processed within 48 hours of collection. The same leaves were processed in the Nicolet and then measured using the ASD.
Measurement: Hemispherical reflectance
First Column: X
Second Column: Y
X Units: Wavelength (micrometers)
Y Units: Reflectance (percentage)
First X Value: 2.501
Last X Value: 15.387
Number of X Values: 1737
Additional Information: vegetation.shrub.adenostoma.fasciculatum.tir.vh044.ucsb.nicolet.ancillary.txt

 2.5010	 6.2740
 2.5030	 6.1520
 2.5040	 6.2590
 2.5050	 6.1910
 2.5060	 6.0570
 2.5070	 6.0860
 2.5090	 6.1760
 2.5100	 6.1770
 2.5110	 6.2250
 2.5120	 6.1450
 2.5140	 6.1160
 2.5150	 6.1470
 2.5160	 6.2640
 2.5170	 6.1990
 2.5180	 6.0930
 2.5200	 6.1420
 2.5210	 6.1200
 2.5220	 5.9590
 2.5230	 6.0680
 2.5250	 6.1540
 2.5260	 6.2130
 2.5270	 6.1030
 2.5280	 6.1410
 2.5290	 6.2020
 2.5310	 6.1330
 2.5320	 5.9760
 2.5330	 5.9760
 2.5340	 6.0160
 2.5360	 6.1090
 2.5370	 6.1310
 2.5380	 6.1070
 2.5390	 6.0480
 2.5410	 6.1220
 2.5420	 6.1210
 2.5430	 6.0900
 2.5440	 6.0880
 2.5460	 6.1490
 2.5470	 6.1620
 2.5480	 6.2280
 2.5490	 6.0560
 2.5510	 6.1240
 2.5520	 6.2570
 2.5530	 6.2840
 2.5540	 6.2070
 2.5560	 6.1710
 2.5570	 6.0460
 2.5580	 6.0460
 2.5590	 6.0970
 2.5610	 6.1910
 2.5620	 6.2290
 2.5630	 6.3010
 2.5640	 6.2560
 2.5660	 6.2960
 2.5670	 6.2810
 2.5680	 6.2790
 2.5700	 6.1690
 2.5710	 6.1640
 2.5720	 6.1610
 2.5730	 6.0600
 2.5750	 5.9230
 2.5760	 6.0040
 2.5770	 6.0150
 2.5790	 6.1450
 2.5800	 6.1660
 2.5810	 6.2180
 2.5820	 6.1400
 2.5840	 6.1020
 2.5850	 6.1340
 2.5860	 6.1330
 2.5880	 6.0460
 2.5890	 5.9670
 2.5900	 5.9020
 2.5910	 5.9990
 2.5930	 5.9390
 2.5940	 5.9680
 2.5950	 6.1060
 2.5970	 6.2210
 2.5980	 6.0700
 2.5990	 5.9800
 2.6000	 6.0000
 2.6020	 6.0820
 2.6030	 6.0640
 2.6040	 6.0850
 2.6060	 6.0650
 2.6070	 6.0570
 2.6080	 6.0030
 2.6100	 6.1170
 2.6110	 6.0480
 2.6120	 5.8980
 2.6140	 5.8200
 2.6150	 5.9100
 2.6160	 5.8880
 2.6180	 5.7550
 2.6190	 5.7230
 2.6200	 5.8560
 2.6220	 5.8020
 2.6230	 5.7240
 2.6240	 5.6610
 2.6260	 5.6920
 2.6270	 5.6200
 2.6280	 5.6180
 2.6300	 5.6250
 2.6310	 5.6160
 2.6320	 5.5170
 2.6340	 5.4700
 2.6350	 5.3600
 2.6360	 5.4460
 2.6380	 5.4490
 2.6390	 5.4040
 2.6400	 5.3800
 2.6420	 5.3830
 2.6430	 5.3240
 2.6440	 5.3800
 2.6460	 5.2930
 2.6470	 5.2630
 2.6480	 5.2380
 2.6500	 5.2460
 2.6510	 5.1860
 2.6520	 5.2910
 2.6540	 5.1880
 2.6550	 5.1580
 2.6560	 5.1750
 2.6580	 5.1540
 2.6590	 5.0610
 2.6610	 5.0890
 2.6620	 5.0700
 2.6630	 5.0250
 2.6650	 4.9950
 2.6660	 5.0720
 2.6670	 5.1010
 2.6690	 5.1890
 2.6700	 5.0780
 2.6720	 5.0810
 2.6730	 5.0450
 2.6740	 5.0520
 2.6760	 4.9500
 2.6770	 4.9000
 2.6780	 4.9150
 2.6800	 4.9100
 2.6810	 4.8840
 2.6830	 5.0690
 2.6840	 5.0560
 2.6850	 4.9710
 2.6870	 4.9050
 2.6880	 4.8950
 2.6900	 4.8760
 2.6910	 4.8970
 2.6920	 4.7810
 2.6940	 4.7260
 2.6950	 4.6710
 2.6970	 4.7190
 2.6980	 4.7130
 2.6990	 4.6530
 2.7010	 4.5220
 2.7020	 4.5780
 2.7040	 4.5640
 2.7050	 4.6210
 2.7060	 4.6250
 2.7080	 4.5670
 2.7090	 4.5030
 2.7110	 4.5810
 2.7120	 4.5230
 2.7130	 4.5090
 2.7150	 4.4510
 2.7160	 4.5750
 2.7180	 4.6070
 2.7190	 4.5810
 2.7210	 4.5200
 2.7220	 4.5170
 2.7230	 4.4670
 2.7250	 4.4880
 2.7260	 4.4700
 2.7280	 4.5840
 2.7290	 4.4980
 2.7310	 4.5810
 2.7320	 4.5730
 2.7330	 4.5130
 2.7350	 4.5060
 2.7360	 4.5310
 2.7380	 4.4690
 2.7390	 4.4520
 2.7410	 4.4420
 2.7420	 4.6320
 2.7440	 4.6410
 2.7450	 4.5370
 2.7470	 4.4100
 2.7480	 4.3850
 2.7490	 4.3530
 2.7510	 4.4150
 2.7520	 4.4330
 2.7540	 4.4710
 2.7550	 4.4480
 2.7570	 4.5090
 2.7580	 4.3580
 2.7600	 4.3960
 2.7610	 4.4680
 2.7630	 4.5550
 2.7640	 4.5360
 2.7660	 4.4960
 2.7670	 4.4020
 2.7680	 4.4060
 2.7700	 4.3580
 2.7710	 4.4430
 2.7730	 4.4690
 2.7740	 4.4990
 2.7760	 4.4400
 2.7770	 4.4130
 2.7790	 4.5520
 2.7800	 4.5850
 2.7820	 4.4620
 2.7830	 4.5240
 2.7850	 4.6050
 2.7860	 4.4590
 2.7880	 4.3440
 2.7890	 4.3050
 2.7910	 4.1890
 2.7920	 4.2570
 2.7940	 4.2220
 2.7950	 4.3070
 2.7970	 4.4130
 2.7980	 4.5210
 2.8000	 4.5200
 2.8010	 4.6290
 2.8030	 4.5490
 2.8040	 4.4250
 2.8060	 4.3570
 2.8070	 4.4510
 2.8090	 4.3150
 2.8110	 4.2900
 2.8120	 4.4000
 2.8140	 4.4950
 2.8150	 4.4370
 2.8170	 4.4650
 2.8180	 4.3790
 2.8200	 4.3640
 2.8210	 4.3800
 2.8230	 4.3410
 2.8240	 4.2830
 2.8260	 4.4230
 2.8270	 4.3800
 2.8290	 4.3840
 2.8300	 4.3580
 2.8320	 4.3250
 2.8340	 4.3230
 2.8350	 4.4100
 2.8370	 4.3640
 2.8380	 4.3880
 2.8400	 4.4180
 2.8410	 4.5130
 2.8430	 4.4470
 2.8440	 4.3820
 2.8460	 4.3830
 2.8480	 4.4470
 2.8490	 4.4200
 2.8510	 4.4450
 2.8520	 4.2870
 2.8540	 4.3670
 2.8550	 4.4690
 2.8570	 4.5410
 2.8590	 4.4410
 2.8600	 4.4220
 2.8620	 4.4130
 2.8630	 4.5070
 2.8650	 4.4990
 2.8660	 4.4820
 2.8680	 4.5090
 2.8700	 4.5700
 2.8710	 4.5510
 2.8730	 4.5150
 2.8740	 4.5400
 2.8760	 4.5830
 2.8780	 4.4730
 2.8790	 4.5260
 2.8810	 4.5540
 2.8820	 4.4410
 2.8840	 4.3810
 2.8860	 4.4090
 2.8870	 4.3610
 2.8890	 4.3850
 2.8900	 4.3860
 2.8920	 4.4510
 2.8940	 4.3220
 2.8950	 4.2460
 2.8970	 4.2560
 2.8980	 4.3430
 2.9000	 4.3110
 2.9020	 4.3100
 2.9030	 4.3220
 2.9050	 4.3260
 2.9070	 4.3220
 2.9080	 4.3740
 2.9100	 4.3290
 2.9120	 4.5820
 2.9130	 4.7310
 2.9150	 4.4930
 2.9160	 4.2520
 2.9180	 4.4430
 2.9200	 4.5560
 2.9210	 4.4580
 2.9230	 4.2940
 2.9250	 4.3100
 2.9260	 4.3870
 2.9280	 4.4330
 2.9300	 4.4290
 2.9310	 4.4810
 2.9330	 4.4070
 2.9350	 4.3840
 2.9360	 4.3540
 2.9380	 4.4620
 2.9400	 4.5400
 2.9410	 4.5190
 2.9430	 4.5810
 2.9450	 4.6780
 2.9460	 4.5070
 2.9480	 4.4430
 2.9500	 4.5030
 2.9510	 4.5170
 2.9530	 4.4880
 2.9550	 4.4410
 2.9560	 4.2740
 2.9580	 4.2510
 2.9600	 4.4490
 2.9610	 4.2950
 2.9630	 3.9390
 2.9650	 3.9660
 2.9660	 3.9970
 2.9680	 4.5380
 2.9700	 4.6390
 2.9720	 4.4440
 2.9730	 4.2220
 2.9750	 4.1560
 2.9770	 4.2620
 2.9780	 4.7590
 2.9800	 4.5820
 2.9820	 4.0970
 2.9840	 4.0120
 2.9850	 4.6780
 2.9870	 4.6370
 2.9890	 4.3700
 2.9900	 4.5570
 2.9920	 4.2150
 2.9940	 4.3540
 2.9960	 4.7990
 2.9970	 4.7180
 2.9990	 4.3610
 3.0010	 4.0990
 3.0030	 4.3260
 3.0040	 4.3580
 3.0060	 4.5010
 3.0080	 4.4330
 3.0100	 4.3570
 3.0110	 4.0890
 3.0130	 4.1890
 3.0150	 4.4050
 3.0170	 4.4430
 3.0180	 4.4090
 3.0200	 4.8180
 3.0220	 4.7970
 3.0240	 4.5210
 3.0250	 4.2320
 3.0270	 4.0250
 3.0290	 4.0260
 3.0310	 4.2660
 3.0320	 4.1440
 3.0340	 3.8780
 3.0360	 3.6370
 3.0380	 3.8810
 3.0400	 4.2010
 3.0410	 4.5790
 3.0430	 4.7230
 3.0450	 4.1820
 3.0470	 4.0240
 3.0480	 4.2490
 3.0500	 4.3940
 3.0520	 4.7850
 3.0540	 4.2790
 3.0560	 4.2110
 3.0570	 4.4650
 3.0590	 4.3870
 3.0610	 4.1230
 3.0630	 4.4580
 3.0650	 4.4650
 3.0660	 4.3410
 3.0680	 4.1820
 3.0700	 4.1520
 3.0720	 4.4340
 3.0740	 4.4840
 3.0760	 4.3680
 3.0770	 4.3620
 3.0790	 4.3880
 3.0810	 4.3170
 3.0830	 4.3320
 3.0850	 4.4600
 3.0870	 4.2790
 3.0880	 4.2120
 3.0900	 4.4170
 3.0920	 4.5680
 3.0940	 4.5470
 3.0960	 4.3760
 3.0980	 4.3320
 3.0990	 4.4220
 3.1010	 4.3080
 3.1030	 4.2940
 3.1050	 4.3990
 3.1070	 4.6570
 3.1090	 4.5890
 3.1110	 4.5030
 3.1120	 4.4570
 3.1140	 4.5290
 3.1160	 4.4660
 3.1180	 4.4720
 3.1200	 4.3900
 3.1220	 4.3860
 3.1240	 4.4460
 3.1260	 4.5010
 3.1270	 4.7370
 3.1290	 4.8950
 3.1310	 4.5690
 3.1330	 4.3070
 3.1350	 4.2540
 3.1370	 4.2510
 3.1390	 4.1550
 3.1410	 4.2270
 3.1430	 4.2730
 3.1450	 4.4070
 3.1460	 4.4620
 3.1480	 4.5550
 3.1500	 4.5730
 3.1520	 4.6320
 3.1540	 4.3430
 3.1560	 4.0590
 3.1580	 3.7660
 3.1600	 3.8590
 3.1620	 4.2510
 3.1640	 4.4720
 3.1660	 4.4840
 3.1680	 4.5140
 3.1700	 4.7610
 3.1710	 4.8530
 3.1730	 4.5240
 3.1750	 4.5070
 3.1770	 4.7960
 3.1790	 4.6180
 3.1810	 4.2860
 3.1830	 4.3540
 3.1850	 4.3240
 3.1870	 4.4400
 3.1890	 4.3730
 3.1910	 4.2070
 3.1930	 4.1990
 3.1950	 4.1970
 3.1970	 4.2330
 3.1990	 4.3700
 3.2010	 4.3840
 3.2030	 4.3530
 3.2050	 4.3380
 3.2070	 4.3250
 3.2090	 4.3400
 3.2110	 4.3550
 3.2130	 4.1920
 3.2150	 4.2100
 3.2170	 4.2610
 3.2190	 4.2420
 3.2210	 4.2670
 3.2230	 4.2940
 3.2250	 4.2960
 3.2270	 4.3370
 3.2290	 4.1980
 3.2310	 4.1110
 3.2330	 4.1990
 3.2350	 4.3230
 3.2370	 4.4550
 3.2390	 4.4730
 3.2410	 4.2430
 3.2430	 4.1860
 3.2450	 4.2460
 3.2470	 4.2460
 3.2490	 4.3420
 3.2510	 4.4210
 3.2530	 4.2590
 3.2550	 4.2510
 3.2570	 4.3350
 3.2590	 4.4030
 3.2610	 4.3020
 3.2630	 4.2390
 3.2650	 4.2250
 3.2670	 4.3360
 3.2690	 4.2970
 3.2720	 4.2810
 3.2740	 4.3470
 3.2760	 4.3240
 3.2780	 4.2840
 3.2800	 4.2980
 3.2820	 4.2660
 3.2840	 4.2800
 3.2860	 4.2980
 3.2880	 4.3310
 3.2900	 4.2230
 3.2920	 4.1890
 3.2940	 4.1990
 3.2960	 4.2670
 3.2990	 4.2720
 3.3010	 4.2540
 3.3030	 4.1000
 3.3050	 4.1220
 3.3070	 4.1980
 3.3090	 4.2090
 3.3110	 4.1290
 3.3130	 4.1460
 3.3150	 4.1640
 3.3180	 4.1880
 3.3200	 4.1750
 3.3220	 4.0970
 3.3240	 4.1140
 3.3260	 4.1800
 3.3280	 4.1290
 3.3300	 4.1770
 3.3330	 4.1730
 3.3350	 4.1680
 3.3370	 4.1210
 3.3390	 4.0880
 3.3410	 4.1860
 3.3430	 4.2830
 3.3450	 4.2170
 3.3480	 4.0740
 3.3500	 3.9050
 3.3520	 4.0220
 3.3540	 4.0670
 3.3560	 4.1160
 3.3580	 4.1090
 3.3610	 4.0840
 3.3630	 4.0350
 3.3650	 4.0860
 3.3670	 4.1120
 3.3690	 4.1260
 3.3720	 4.2050
 3.3740	 4.2840
 3.3760	 4.1640
 3.3780	 4.1200
 3.3800	 4.2080
 3.3830	 4.2750
 3.3850	 4.1710
 3.3870	 4.1020
 3.3890	 4.0450
 3.3910	 4.0420
 3.3940	 4.0720
 3.3960	 4.1400
 3.3980	 4.0940
 3.4000	 4.1190
 3.4020	 4.1310
 3.4050	 4.1600
 3.4070	 4.1950
 3.4090	 4.3450
 3.4110	 4.4380
 3.4140	 4.5910
 3.4160	 4.7570
 3.4180	 4.9280
 3.4200	 5.0890
 3.4230	 5.4120
 3.4250	 5.7310
 3.4270	 5.9950
 3.4290	 6.0050
 3.4320	 5.8180
 3.4340	 5.5080
 3.4360	 5.2690
 3.4390	 5.0750
 3.4410	 4.9680
 3.4430	 4.8480
 3.4450	 4.7970
 3.4480	 4.8120
 3.4500	 4.8290
 3.4520	 4.7540
 3.4550	 4.6920
 3.4570	 4.6700
 3.4590	 4.7330
 3.4620	 4.7110
 3.4640	 4.7440
 3.4660	 4.7780
 3.4680	 4.7490
 3.4710	 4.6440
 3.4730	 4.6210
 3.4750	 4.5820
 3.4780	 4.5390
 3.4800	 4.4860
 3.4820	 4.5350
 3.4850	 4.4750
 3.4870	 4.4340
 3.4890	 4.3570
 3.4920	 4.3620
 3.4940	 4.4230
 3.4970	 4.5230
 3.4990	 4.5250
 3.5010	 4.5810
 3.5040	 4.7270
 3.5060	 5.0200
 3.5080	 5.3850
 3.5110	 5.7240
 3.5130	 5.6500
 3.5160	 5.2640
 3.5180	 4.9530
 3.5200	 4.8400
 3.5230	 4.7220
 3.5250	 4.8070
 3.5270	 4.8510
 3.5300	 4.7730
 3.5320	 4.6890
 3.5350	 4.7370
 3.5370	 4.7810
 3.5400	 4.8140
 3.5420	 4.7750
 3.5440	 4.6490
 3.5470	 4.5800
 3.5490	 4.6460
 3.5520	 4.6460
 3.5540	 4.6610
 3.5570	 4.6130
 3.5590	 4.6360
 3.5610	 4.6530
 3.5640	 4.6170
 3.5660	 4.5360
 3.5690	 4.5660
 3.5710	 4.6020
 3.5740	 4.7230
 3.5760	 4.7500
 3.5790	 4.7210
 3.5810	 4.7810
 3.5840	 4.8970
 3.5860	 4.8190
 3.5890	 4.8030
 3.5910	 4.8000
 3.5930	 4.6650
 3.5960	 4.5140
 3.5980	 4.5320
 3.6010	 4.6220
 3.6030	 4.6150
 3.6060	 4.5570
 3.6080	 4.6250
 3.6110	 4.5930
 3.6140	 4.5550
 3.6160	 4.5980
 3.6190	 4.6460
 3.6210	 4.6220
 3.6240	 4.6590
 3.6260	 4.6650
 3.6290	 4.6250
 3.6310	 4.5710
 3.6340	 4.6330
 3.6360	 4.6580
 3.6390	 4.6700
 3.6410	 4.6390
 3.6440	 4.6130
 3.6470	 4.5770
 3.6490	 4.5580
 3.6520	 4.5470
 3.6540	 4.5710
 3.6570	 4.6100
 3.6590	 4.7060
 3.6620	 4.6830
 3.6650	 4.6710
 3.6670	 4.6500
 3.6700	 4.6560
 3.6720	 4.6270
 3.6750	 4.6270
 3.6780	 4.6970
 3.6800	 4.7590
 3.6830	 4.7410
 3.6850	 4.7060
 3.6880	 4.6650
 3.6910	 4.7000
 3.6930	 4.7010
 3.6960	 4.7120
 3.6990	 4.6780
 3.7010	 4.6980
 3.7040	 4.7050
 3.7060	 4.7430
 3.7090	 4.6930
 3.7120	 4.6520
 3.7140	 4.6800
 3.7170	 4.7090
 3.7200	 4.6610
 3.7220	 4.6910
 3.7250	 4.7220
 3.7280	 4.7800
 3.7300	 4.7880
 3.7330	 4.7800
 3.7360	 4.7130
 3.7390	 4.7490
 3.7410	 4.7780
 3.7440	 4.8210
 3.7470	 4.7650
 3.7490	 4.7370
 3.7520	 4.7910
 3.7550	 4.7690
 3.7580	 4.6710
 3.7600	 4.7080
 3.7630	 4.7640
 3.7660	 4.8060
 3.7680	 4.7200
 3.7710	 4.6900
 3.7740	 4.7600
 3.7770	 4.8230
 3.7790	 4.8320
 3.7820	 4.8060
 3.7850	 4.7600
 3.7880	 4.7480
 3.7900	 4.7560
 3.7930	 4.8060
 3.7960	 4.7710
 3.7990	 4.7360
 3.8020	 4.7410
 3.8040	 4.7840
 3.8070	 4.7900
 3.8100	 4.8610
 3.8130	 4.8810
 3.8160	 4.8560
 3.8180	 4.7990
 3.8210	 4.8330
 3.8240	 4.8800
 3.8270	 4.9160
 3.8300	 4.9250
 3.8330	 4.9020
 3.8350	 4.8420
 3.8380	 4.8670
 3.8410	 4.8380
 3.8440	 4.8670
 3.8470	 4.8380
 3.8500	 4.8280
 3.8520	 4.8340
 3.8550	 4.8620
 3.8580	 4.8450
 3.8610	 4.8670
 3.8640	 4.8820
 3.8670	 4.8700
 3.8700	 4.8330
 3.8730	 4.8340
 3.8750	 4.8870
 3.8780	 4.8880
 3.8810	 4.8520
 3.8840	 4.8900
 3.8870	 4.9190
 3.8900	 4.9220
 3.8930	 4.8510
 3.8960	 4.8190
 3.8990	 4.8410
 3.9020	 4.9140
 3.9050	 4.8860
 3.9080	 4.8520
 3.9110	 4.8690
 3.9140	 4.9200
 3.9160	 4.9010
 3.9190	 4.9310
 3.9220	 4.9130
 3.9250	 4.9200
 3.9280	 4.9270
 3.9310	 4.9340
 3.9340	 4.8880
 3.9370	 4.8890
 3.9400	 4.9490
 3.9430	 5.0260
 3.9460	 5.0320
 3.9490	 4.9890
 3.9520	 4.9190
 3.9550	 4.9060
 3.9580	 4.8930
 3.9610	 4.9710
 3.9640	 5.0090
 3.9670	 4.9640
 3.9700	 4.9620
 3.9730	 4.9700
 3.9770	 4.8870
 3.9800	 4.8940
 3.9830	 4.9360
 3.9860	 4.9260
 3.9890	 4.9050
 3.9920	 5.0000
 3.9950	 4.9890
 3.9980	 4.9570
 4.0010	 4.9750
 4.0040	 5.0040
 4.0070	 4.9430
 4.0100	 4.9810
 4.0130	 4.9800
 4.0170	 4.9480
 4.0200	 4.9100
 4.0230	 4.8980
 4.0260	 4.9070
 4.0290	 4.9410
 4.0320	 4.9530
 4.0350	 4.9600
 4.0380	 4.9390
 4.0420	 4.9430
 4.0450	 4.9290
 4.0480	 4.9170
 4.0510	 4.9320
 4.0540	 4.9600
 4.0570	 4.9390
 4.0610	 4.9600
 4.0640	 4.8640
 4.0670	 4.8180
 4.0700	 4.9040
 4.0730	 4.9370
 4.0770	 4.8890
 4.0800	 4.9350
 4.0830	 4.9440
 4.0860	 4.9220
 4.0890	 4.9520
 4.0930	 4.9780
 4.0960	 4.8820
 4.0990	 4.8550
 4.1020	 4.8320
 4.1060	 4.8110
 4.1090	 4.8340
 4.1120	 4.8410
 4.1150	 4.8950
 4.1190	 4.9700
 4.1220	 4.9770
 4.1250	 4.9860
 4.1280	 4.9420
 4.1320	 4.8850
 4.1350	 4.8480
 4.1380	 4.8450
 4.1420	 4.8580
 4.1450	 4.9180
 4.1480	 4.9470
 4.1520	 4.9420
 4.1550	 4.9590
 4.1580	 4.9300
 4.1620	 4.8640
 4.1650	 4.8560
 4.1680	 4.9190
 4.1720	 4.9390
 4.1750	 4.9000
 4.1780	 4.8770
 4.1820	 4.8600
 4.1850	 4.8430
 4.1890	 4.8260
 4.1920	 4.8540
 4.1950	 4.8490
 4.1990	 4.8740
 4.2020	 4.8890
 4.2060	 4.8700
 4.2090	 4.8710
 4.2120	 4.9620
 4.2160	 4.9720
 4.2190	 5.0650
 4.2230	 5.1410
 4.2260	 5.2050
 4.2300	 5.2100
 4.2330	 5.1200
 4.2360	 5.0750
 4.2400	 5.0970
 4.2430	 5.1080
 4.2470	 5.0520
 4.2500	 4.9250
 4.2540	 4.9090
 4.2570	 4.9190
 4.2610	 4.9170
 4.2640	 4.9910
 4.2680	 4.9870
 4.2710	 4.9010
 4.2750	 4.8330
 4.2780	 4.7950
 4.2820	 4.8450
 4.2850	 4.8660
 4.2890	 4.8760
 4.2930	 4.9060
 4.2960	 4.9000
 4.3000	 4.8110
 4.3030	 4.8040
 4.3070	 4.8290
 4.3100	 4.9460
 4.3140	 4.9470
 4.3180	 4.8650
 4.3210	 4.7540
 4.3250	 4.7340
 4.3280	 4.8180
 4.3320	 4.8210
 4.3360	 4.7650
 4.3390	 4.7590
 4.3430	 4.7600
 4.3470	 4.7150
 4.3500	 4.7150
 4.3540	 4.7060
 4.3570	 4.7070
 4.3610	 4.7410
 4.3650	 4.7740
 4.3680	 4.7410
 4.3720	 4.6720
 4.3760	 4.6640
 4.3800	 4.6910
 4.3830	 4.6910
 4.3870	 4.6570
 4.3910	 4.5970
 4.3940	 4.5810
 4.3980	 4.6160
 4.4020	 4.6070
 4.4060	 4.6470
 4.4090	 4.6610
 4.4130	 4.6580
 4.4170	 4.6070
 4.4210	 4.5580
 4.4240	 4.5850
 4.4280	 4.6230
 4.4320	 4.6420
 4.4360	 4.6570
 4.4400	 4.6350
 4.4430	 4.6250
 4.4470	 4.6070
 4.4510	 4.5730
 4.4550	 4.5500
 4.4590	 4.5220
 4.4620	 4.5290
 4.4660	 4.5440
 4.4700	 4.5790
 4.4740	 4.5650
 4.4780	 4.5460
 4.4820	 4.5250
 4.4860	 4.4850
 4.4900	 4.4590
 4.4930	 4.5150
 4.4970	 4.5840
 4.5010	 4.5960
 4.5050	 4.5470
 4.5090	 4.5150
 4.5130	 4.5380
 4.5170	 4.6240
 4.5210	 4.6440
 4.5250	 4.6220
 4.5290	 4.5790
 4.5330	 4.5790
 4.5370	 4.5450
 4.5410	 4.5080
 4.5450	 4.5010
 4.5490	 4.4800
 4.5530	 4.3820
 4.5570	 4.4100
 4.5610	 4.5490
 4.5650	 4.5770
 4.5690	 4.5660
 4.5730	 4.5830
 4.5770	 4.5370
 4.5810	 4.4480
 4.5850	 4.4420
 4.5890	 4.4770
 4.5930	 4.4710
 4.5970	 4.4410
 4.6010	 4.4430
 4.6050	 4.5630
 4.6090	 4.6430
 4.6130	 4.5760
 4.6170	 4.4260
 4.6220	 4.3750
 4.6260	 4.4070
 4.6300	 4.4840
 4.6340	 4.5070
 4.6380	 4.4340
 4.6420	 4.4320
 4.6460	 4.4380
 4.6510	 4.4380
 4.6550	 4.4500
 4.6590	 4.4760
 4.6630	 4.5140
 4.6670	 4.4950
 4.6720	 4.4780
 4.6760	 4.4430
 4.6800	 4.3920
 4.6840	 4.4000
 4.6880	 4.4360
 4.6930	 4.4640
 4.6970	 4.4790
 4.7010	 4.4500
 4.7050	 4.3940
 4.7100	 4.3650
 4.7140	 4.3990
 4.7180	 4.4560
 4.7230	 4.4420
 4.7270	 4.4530
 4.7310	 4.4310
 4.7360	 4.4130
 4.7400	 4.4360
 4.7440	 4.4690
 4.7490	 4.4760
 4.7530	 4.4750
 4.7570	 4.4630
 4.7620	 4.4110
 4.7660	 4.4100
 4.7700	 4.4520
 4.7750	 4.4760
 4.7790	 4.4750
 4.7840	 4.4860
 4.7880	 4.5190
 4.7920	 4.5190
 4.7970	 4.4940
 4.8010	 4.4470
 4.8060	 4.4550
 4.8100	 4.4930
 4.8150	 4.4760
 4.8190	 4.4620
 4.8240	 4.4910
 4.8280	 4.5090
 4.8330	 4.4770
 4.8370	 4.4530
 4.8420	 4.4620
 4.8460	 4.4670
 4.8510	 4.4720
 4.8550	 4.4620
 4.8600	 4.4590
 4.8640	 4.4780
 4.8690	 4.4980
 4.8730	 4.4970
 4.8780	 4.4570
 4.8830	 4.4030
 4.8870	 4.4210
 4.8920	 4.5100
 4.8960	 4.5220
 4.9010	 4.4690
 4.9060	 4.5170
 4.9100	 4.5890
 4.9150	 4.5400
 4.9200	 4.5440
 4.9240	 4.5560
 4.9290	 4.5140
 4.9340	 4.4800
 4.9380	 4.5160
 4.9430	 4.5010
 4.9480	 4.4860
 4.9530	 4.5010
 4.9570	 4.5580
 4.9620	 4.5370
 4.9670	 4.5030
 4.9720	 4.4900
 4.9760	 4.5540
 4.9810	 4.5800
 4.9860	 4.5500
 4.9910	 4.5190
 4.9960	 4.5290
 5.0000	 4.5430
 5.0050	 4.5340
 5.0100	 4.5130
 5.0150	 4.5180
 5.0200	 4.5000
 5.0250	 4.5510
 5.0290	 4.5810
 5.0340	 4.5420
 5.0390	 4.5840
 5.0440	 4.6160
 5.0490	 4.6300
 5.0540	 4.6520
 5.0590	 4.6210
 5.0640	 4.5780
 5.0690	 4.5670
 5.0740	 4.6250
 5.0790	 4.6270
 5.0840	 4.6420
 5.0890	 4.6200
 5.0940	 4.5670
 5.0990	 4.6110
 5.1040	 4.6590
 5.1090	 4.6400
 5.1140	 4.5920
 5.1190	 4.5790
 5.1240	 4.5850
 5.1290	 4.6070
 5.1340	 4.6430
 5.1390	 4.6380
 5.1440	 4.6120
 5.1490	 4.5960
 5.1540	 4.6390
 5.1600	 4.6120
 5.1650	 4.6060
 5.1700	 4.5890
 5.1750	 4.6850
 5.1800	 4.7320
 5.1850	 4.7050
 5.1910	 4.6680
 5.1960	 4.6260
 5.2010	 4.5800
 5.2060	 4.6010
 5.2110	 4.6580
 5.2170	 4.6840
 5.2220	 4.6080
 5.2270	 4.6000
 5.2320	 4.5940
 5.2380	 4.6650
 5.2430	 4.7340
 5.2480	 4.6810
 5.2540	 4.5780
 5.2590	 4.5980
 5.2640	 4.6310
 5.2700	 4.6120
 5.2750	 4.5680
 5.2800	 4.6340
 5.2860	 4.6520
 5.2910	 4.6250
 5.2970	 4.5610
 5.3020	 4.6050
 5.3070	 4.6610
 5.3130	 4.6600
 5.3180	 4.6070
 5.3240	 4.5990
 5.3290	 4.6070
 5.3350	 4.6360
 5.3400	 4.5980
 5.3460	 4.5740
 5.3510	 4.5840
 5.3570	 4.6400
 5.3620	 4.6760
 5.3680	 4.6890
 5.3730	 4.6050
 5.3790	 4.5960
 5.3850	 4.6280
 5.3900	 4.6280
 5.3960	 4.6100
 5.4010	 4.6240
 5.4070	 4.5650
 5.4130	 4.5510
 5.4180	 4.5360
 5.4240	 4.4980
 5.4300	 4.4860
 5.4350	 4.5550
 5.4410	 4.5790
 5.4470	 4.5220
 5.4530	 4.4630
 5.4580	 4.4780
 5.4640	 4.4640
 5.4700	 4.4720
 5.4760	 4.4770
 5.4810	 4.5180
 5.4870	 4.5030
 5.4930	 4.4900
 5.4990	 4.4760
 5.5050	 4.4800
 5.5110	 4.4470
 5.5160	 4.4720
 5.5220	 4.4640
 5.5280	 4.4550
 5.5340	 4.4590
 5.5400	 4.4610
 5.5460	 4.3530
 5.5520	 4.3240
 5.5580	 4.3970
 5.5640	 4.4740
 5.5700	 4.4090
 5.5760	 4.4140
 5.5820	 4.3980
 5.5880	 4.3910
 5.5940	 4.3660
 5.6000	 4.3700
 5.6060	 4.3220
 5.6120	 4.2990
 5.6180	 4.2800
 5.6240	 4.2580
 5.6300	 4.2050
 5.6360	 4.2400
 5.6420	 4.2150
 5.6490	 4.1910
 5.6550	 4.1900
 5.6610	 4.1820
 5.6670	 4.1110
 5.6730	 4.1090
 5.6800	 4.0660
 5.6860	 4.0540
 5.6920	 4.0630
 5.6980	 4.0380
 5.7040	 3.9200
 5.7110	 3.9150
 5.7170	 3.9280
 5.7230	 3.8930
 5.7300	 3.8370
 5.7360	 3.8520
 5.7420	 3.8360
 5.7490	 3.8650
 5.7550	 3.8730
 5.7620	 3.9860
 5.7680	 4.0700
 5.7740	 4.1070
 5.7810	 4.0840
 5.7870	 4.1530
 5.7940	 4.1350
 5.8000	 4.1530
 5.8070	 4.1370
 5.8130	 4.1720
 5.8200	 4.1960
 5.8260	 4.2290
 5.8330	 4.2710
 5.8390	 4.2930
 5.8460	 4.2730
 5.8530	 4.3240
 5.8590	 4.3200
 5.8660	 4.3540
 5.8720	 4.3320
 5.8790	 4.2860
 5.8860	 4.2250
 5.8920	 4.2780
 5.8990	 4.3100
 5.9060	 4.3240
 5.9130	 4.2950
 5.9190	 4.3630
 5.9260	 4.4070
 5.9330	 4.5120
 5.9400	 4.5230
 5.9470	 4.5840
 5.9530	 4.5600
 5.9600	 4.6560
 5.9670	 4.7070
 5.9740	 4.7460
 5.9810	 4.6370
 5.9880	 4.6210
 5.9950	 4.6380
 6.0020	 4.7240
 6.0090	 4.6420
 6.0160	 4.5910
 6.0230	 4.6160
 6.0300	 4.6710
 6.0370	 4.6110
 6.0440	 4.7000
 6.0510	 4.6740
 6.0580	 4.5970
 6.0650	 4.5730
 6.0720	 4.7250
 6.0790	 4.6780
 6.0860	 4.5790
 6.0930	 4.5690
 6.1000	 4.6810
 6.1080	 4.6970
 6.1150	 4.7350
 6.1220	 4.6860
 6.1290	 4.6150
 6.1370	 4.5810
 6.1440	 4.6500
 6.1510	 4.5610
 6.1580	 4.4970
 6.1660	 4.5110
 6.1730	 4.6070
 6.1800	 4.5320
 6.1880	 4.5900
 6.1950	 4.6130
 6.2030	 4.5620
 6.2100	 4.4980
 6.2170	 4.5130
 6.2250	 4.4810
 6.2320	 4.5680
 6.2400	 4.5430
 6.2470	 4.5350
 6.2550	 4.5910
 6.2630	 4.6620
 6.2700	 4.5510
 6.2780	 4.5710
 6.2850	 4.5640
 6.2930	 4.5930
 6.3010	 4.5310
 6.3080	 4.5220
 6.3160	 4.5150
 6.3240	 4.5690
 6.3310	 4.5550
 6.3390	 4.5770
 6.3470	 4.5390
 6.3550	 4.5230
 6.3620	 4.4780
 6.3700	 4.5160
 6.3780	 4.5000
 6.3860	 4.4740
 6.3940	 4.3900
 6.4020	 4.4620
 6.4100	 4.4730
 6.4180	 4.5060
 6.4260	 4.4470
 6.4330	 4.4780
 6.4410	 4.4920
 6.4490	 4.5140
 6.4580	 4.4270
 6.4660	 4.4330
 6.4740	 4.3570
 6.4820	 4.3820
 6.4900	 4.4090
 6.4980	 4.4730
 6.5060	 4.4210
 6.5140	 4.4620
 6.5230	 4.3950
 6.5310	 4.3800
 6.5390	 4.3550
 6.5470	 4.4300
 6.5550	 4.3810
 6.5640	 4.3980
 6.5720	 4.3240
 6.5800	 4.2710
 6.5890	 4.2020
 6.5970	 4.2760
 6.6060	 4.2550
 6.6140	 4.3370
 6.6220	 4.3450
 6.6310	 4.4070
 6.6390	 4.4150
 6.6480	 4.4480
 6.6560	 4.3590
 6.6650	 4.3610
 6.6740	 4.3530
 6.6820	 4.4170
 6.6910	 4.3480
 6.6990	 4.3400
 6.7080	 4.3090
 6.7170	 4.2590
 6.7260	 4.1420
 6.7340	 4.1800
 6.7430	 4.1700
 6.7520	 4.2500
 6.7610	 4.2310
 6.7690	 4.2570
 6.7780	 4.2540
 6.7870	 4.3280
 6.7960	 4.2370
 6.8050	 4.2110
 6.8140	 4.1400
 6.8230	 4.2110
 6.8320	 4.2840
 6.8410	 4.4380
 6.8500	 4.4250
 6.8590	 4.4660
 6.8680	 4.4380
 6.8770	 4.4190
 6.8860	 4.3150
 6.8950	 4.3450
 6.9050	 4.3540
 6.9140	 4.4070
 6.9230	 4.3510
 6.9320	 4.3600
 6.9420	 4.3530
 6.9510	 4.4580
 6.9600	 4.4030
 6.9700	 4.4730
 6.9790	 4.4400
 6.9880	 4.4430
 6.9980	 4.3860
 7.0070	 4.4700
 7.0170	 4.4750
 7.0260	 4.4710
 7.0360	 4.4000
 7.0450	 4.4590
 7.0550	 4.4180
 7.0650	 4.4900
 7.0740	 4.4280
 7.0840	 4.3860
 7.0940	 4.2850
 7.1030	 4.3270
 7.1130	 4.3550
 7.1230	 4.4160
 7.1330	 4.4280
 7.1420	 4.4490
 7.1520	 4.3430
 7.1620	 4.3570
 7.1720	 4.3220
 7.1820	 4.3190
 7.1920	 4.1770
 7.2020	 4.2470
 7.2120	 4.3100
 7.2220	 4.3800
 7.2320	 4.3360
 7.2420	 4.4090
 7.2520	 4.3750
 7.2620	 4.4230
 7.2730	 4.3440
 7.2830	 4.3900
 7.2930	 4.3720
 7.3030	 4.3680
 7.3140	 4.2540
 7.3240	 4.2880
 7.3340	 4.2870
 7.3450	 4.3390
 7.3550	 4.3010
 7.3660	 4.3340
 7.3760	 4.2680
 7.3870	 4.3450
 7.3970	 4.3190
 7.4080	 4.3510
 7.4180	 4.2800
 7.4290	 4.3290
 7.4400	 4.3040
 7.4500	 4.3900
 7.4610	 4.3590
 7.4720	 4.3280
 7.4830	 4.2210
 7.4930	 4.2930
 7.5040	 4.1950
 7.5150	 4.2440
 7.5260	 4.2570
 7.5370	 4.3540
 7.5480	 4.3300
 7.5590	 4.3990
 7.5700	 4.3060
 7.5810	 4.3250
 7.5920	 4.2890
 7.6030	 4.3610
 7.6140	 4.2660
 7.6260	 4.2560
 7.6370	 4.1560
 7.6480	 4.2260
 7.6590	 4.1800
 7.6710	 4.2460
 7.6820	 4.1870
 7.6930	 4.1830
 7.7050	 4.1980
 7.7160	 4.2480
 7.7280	 4.1970
 7.7390	 4.2240
 7.7510	 4.1890
 7.7630	 4.2550
 7.7740	 4.2100
 7.7860	 4.2430
 7.7980	 4.1910
 7.8090	 4.2160
 7.8210	 4.1230
 7.8330	 4.1630
 7.8450	 4.1690
 7.8570	 4.3030
 7.8690	 4.2780
 7.8810	 4.3240
 7.8930	 4.2700
 7.9050	 4.2730
 7.9170	 4.2530
 7.9290	 4.2810
 7.9410	 4.1390
 7.9530	 4.2150
 7.9650	 4.1520
 7.9780	 4.1970
 7.9900	 4.1580
 8.0020	 4.2270
 8.0150	 4.1710
 8.0270	 4.2850
 8.0390	 4.3060
 8.0520	 4.4000
 8.0640	 4.3020
 8.0770	 4.3240
 8.0900	 4.2920
 8.1020	 4.4120
 8.1150	 4.2840
 8.1280	 4.3440
 8.1400	 4.2170
 8.1530	 4.3220
 8.1660	 4.3090
 8.1790	 4.4480
 8.1920	 4.3540
 8.2050	 4.5110
 8.2180	 4.4460
 8.2310	 4.4410
 8.2440	 4.2040
 8.2570	 4.3520
 8.2700	 4.3740
 8.2830	 4.4800
 8.2970	 4.4080
 8.3100	 4.5120
 8.3230	 4.3430
 8.3370	 4.3650
 8.3500	 4.3020
 8.3640	 4.3800
 8.3770	 4.3150
 8.3910	 4.4130
 8.4040	 4.3550
 8.4180	 4.5210
 8.4320	 4.4340
 8.4450	 4.4410
 8.4590	 4.4120
 8.4730	 4.4890
 8.4870	 4.3540
 8.5010	 4.5080
 8.5150	 4.5350
 8.5290	 4.5530
 8.5430	 4.5460
 8.5570	 4.7390
 8.5710	 4.6320
 8.5850	 4.7140
 8.5990	 4.6430
 8.6140	 4.7630
 8.6280	 4.6460
 8.6420	 4.7480
 8.6570	 4.6350
 8.6710	 4.6910
 8.6860	 4.6540
 8.7000	 4.8190
 8.7150	 4.7850
 8.7300	 4.8230
 8.7440	 4.6290
 8.7590	 4.7720
 8.7740	 4.7460
 8.7890	 4.8050
 8.8040	 4.6890
 8.8190	 4.8950
 8.8340	 4.9190
 8.8490	 4.9550
 8.8640	 4.7770
 8.8790	 4.8390
 8.8940	 4.7710
 8.9100	 4.8030
 8.9250	 4.7050
 8.9400	 4.8180
 8.9560	 4.7470
 8.9710	 4.8330
 8.9870	 4.6000
 9.0020	 4.6510
 9.0180	 4.6110
 9.0340	 4.8160
 9.0500	 4.7620
 9.0650	 4.7870
 9.0810	 4.7080
 9.0970	 4.8590
 9.1130	 4.7660
 9.1290	 4.8980
 9.1450	 4.8340
 9.1610	 4.9510
 9.1780	 4.7900
 9.1940	 4.8820
 9.2100	 4.8270
 9.2270	 4.9730
 9.2430	 4.8770
 9.2600	 4.9550
 9.2760	 4.7610
 9.2930	 4.7810
 9.3090	 4.6170
 9.3260	 4.7650
 9.3430	 4.7080
 9.3600	 4.8970
 9.3770	 4.7980
 9.3940	 4.8930
 9.4110	 4.8030
 9.4280	 4.7710
 9.4450	 4.4720
 9.4620	 4.5880
 9.4800	 4.5650
 9.4970	 4.7070
 9.5140	 4.6860
 9.5320	 4.8790
 9.5500	 4.7370
 9.5670	 4.7910
 9.5850	 4.6670
 9.6030	 4.8070
 9.6200	 4.5930
 9.6380	 4.6960
 9.6560	 4.6490
 9.6740	 4.7460
 9.6920	 4.7310
 9.7100	 4.8670
 9.7290	 4.6380
 9.7470	 4.6430
 9.7650	 4.5600
 9.7840	 4.8130
 9.8020	 4.7650
 9.8210	 4.9950
 9.8390	 4.8540
 9.8580	 4.7900
 9.8770	 4.5680
 9.8960	 4.5970
 9.9150	 4.5240
 9.9340	 4.7260
 9.9530	 4.6800
 9.9720	 4.7680
 9.9910	 4.6790
10.0100	 4.7870
10.0300	 4.5470
10.0490	 4.6090
10.0690	 4.5710
10.0880	 4.6260
10.1080	 4.5090
10.1280	 4.6440
10.1480	 4.5750
10.1670	 4.6540
10.1870	 4.5130
10.2070	 4.7110
10.2280	 4.6220
10.2480	 4.6730
10.2680	 4.6370
10.2890	 4.8000
10.3090	 4.6250
10.3300	 4.7340
10.3500	 4.5180
10.3710	 4.5130
10.3920	 4.4620
10.4120	 4.6190
10.4330	 4.4780
10.4540	 4.6260
10.4760	 4.5510
10.4970	 4.6230
10.5180	 4.3920
10.5390	 4.5650
10.5610	 4.5540
10.5820	 4.6290
10.6040	 4.4820
10.6260	 4.7300
10.6480	 4.6540
10.6700	 4.7240
10.6920	 4.5760
10.7140	 4.6510
10.7360	 4.4960
10.7580	 4.6410
10.7800	 4.5280
10.8030	 4.7710
10.8250	 4.6490
10.8480	 4.6190
10.8710	 4.4450
10.8940	 4.6520
10.9170	 4.6000
10.9400	 4.7090
10.9630	 4.5740
10.9860	 4.7720
11.0090	 4.7290
11.0330	 4.7310
11.0560	 4.5220
11.0800	 4.6760
11.1040	 4.5120
11.1270	 4.6520
11.1510	 4.5660
11.1750	 4.7730
11.2000	 4.6930
11.2240	 4.6730
11.2480	 4.5000
11.2730	 4.8560
11.2970	 4.6380
11.3220	 4.6260
11.3470	 4.5250
11.3720	 4.5980
11.3970	 4.4390
11.4220	 4.6370
11.4470	 4.5100
11.4720	 4.6760
11.4980	 4.4600
11.5230	 4.5250
11.5490	 4.4330
11.5750	 4.5680
11.6000	 4.4220
11.6260	 4.6550
11.6530	 4.4980
11.6790	 4.6760
11.7050	 4.6080
11.7320	 4.6840
11.7580	 4.3560
11.7850	 4.5740
11.8120	 4.4690
11.8390	 4.5560
11.8660	 4.4610
11.8930	 4.6860
11.9200	 4.3760
11.9480	 4.5510
11.9760	 4.4650
12.0030	 4.6300
12.0310	 4.4500
12.0590	 4.5640
12.0870	 4.4620
12.1150	 4.7140
12.1440	 4.5930
12.1720	 4.6870
12.2010	 4.6120
12.2300	 4.8020
12.2590	 4.5090
12.2880	 4.7410
12.3170	 4.5730
12.3460	 4.8750
12.3760	 4.7610
12.4050	 4.9160
12.4350	 4.6340
12.4650	 4.8390
12.4950	 4.7080
12.5250	 4.7440
12.5550	 4.4390
12.5860	 4.7310
12.6170	 4.6130
12.6470	 4.7220
12.6780	 4.6000
12.7090	 4.9020
12.7410	 4.7590
12.7720	 4.9230
12.8030	 4.6970
12.8350	 4.9070
12.8670	 4.6650
12.8990	 4.8520
12.9310	 4.5490
12.9640	 4.6760
12.9960	 4.4850
13.0290	 4.7470
13.0610	 4.6400
13.0940	 4.8790
13.1280	 4.6300
13.1610	 4.6910
13.1940	 4.4780
13.2280	 4.5590
13.2620	 4.3090
13.2960	 4.8050
13.3300	 4.6930
13.3640	 4.7560
13.3990	 4.3770
13.4340	 4.7730
13.4690	 4.6370
13.5040	 4.7590
13.5390	 4.4930
13.5740	 4.6110
13.6100	 4.3220
13.6460	 4.6200
13.6820	 4.4200
13.7180	 4.8030
13.7540	 4.6500
13.7910	 4.7420
13.8280	 4.4350
13.8650	 4.6990
13.9020	 4.5710
13.9390	 4.9470
13.9770	 4.5030
14.0150	 4.6220
14.0530	 4.4340
14.0910	 4.7730
14.1290	 4.4410
14.1680	 4.5740
14.2070	 4.2100
14.2460	 4.7770
14.2850	 4.4820
14.3240	 4.5150
14.3640	 4.0710
14.4040	 4.5840
14.4440	 4.3340
14.4840	 4.5360
14.5250	 4.0850
14.5660	 4.5960
14.6070	 4.2260
14.6480	 4.6110
14.6900	 4.2670
14.7310	 4.7190
14.7730	 4.1890
14.8150	 4.8820
14.8580	 4.5970
14.9010	 4.6400
14.9440	 3.6980
14.9870	 4.6200
15.0300	 4.0760
15.0740	 4.5200
15.1180	 4.1230
15.1620	 4.6550
15.2060	 4.2770
15.2510	 4.9170
15.2960	 4.1840
15.3410	 4.5820
15.3870	 4.1490
