Name: Acer paxii
Type: vegetation
Class: Tree
Genus: Acer
Species: paxii
Sample No.: JPL225
Owner: JPL
Wavelength Range: VSWIR
Origin: 34.12661; -118.11491; WGS84
Collection Date: 10/3/2016
Description: Samples were collected at the Huntington Garden in San Marino California as part of a JPL Subcontract studying HyTES imagery. Samples were taken to JPL and processed within 48 hours of collection. The same leaves were processed in the Nicolet and then measured using the ASD.
Measurement: Bidirectional reflectance
First Column: X
Second Column: Y
X Units: Wavelength (micrometer)
Y Units: Reflectance (percentage)
First X Value: 0.35
Last X Value: 2.5
Number of X Values: 2151
Additional Information: vegetation.tree.acer.paxii.vswir.jpl225.jpl.asd.ancillary.txt

 0.3500	 5.2110
 0.3510	 5.1770
 0.3520	 5.2000
 0.3530	 5.2220
 0.3540	 5.1940
 0.3550	 5.1670
 0.3560	 5.2050
 0.3570	 5.2440
 0.3580	 5.1740
 0.3590	 5.1280
 0.3600	 5.0960
 0.3610	 5.0840
 0.3620	 5.1420
 0.3630	 5.1090
 0.3640	 5.0700
 0.3650	 5.1070
 0.3660	 5.0450
 0.3670	 5.0330
 0.3680	 5.0760
 0.3690	 5.0770
 0.3700	 5.0430
 0.3710	 5.0120
 0.3720	 5.0170
 0.3730	 5.0850
 0.3740	 5.0620
 0.3750	 5.0240
 0.3760	 5.0760
 0.3770	 5.0940
 0.3780	 5.0570
 0.3790	 4.9940
 0.3800	 4.9630
 0.3810	 4.9560
 0.3820	 4.9560
 0.3830	 4.9530
 0.3840	 4.9580
 0.3850	 4.9730
 0.3860	 4.9720
 0.3870	 4.9380
 0.3880	 4.9640
 0.3890	 4.9900
 0.3900	 4.9860
 0.3910	 4.9680
 0.3920	 4.9510
 0.3930	 4.9400
 0.3940	 4.9350
 0.3950	 4.9470
 0.3960	 4.9650
 0.3970	 4.9730
 0.3980	 4.9550
 0.3990	 4.9260
 0.4000	 4.9140
 0.4010	 4.9310
 0.4020	 4.9710
 0.4030	 4.9620
 0.4040	 4.9390
 0.4050	 4.9450
 0.4060	 4.9570
 0.4070	 4.9640
 0.4080	 4.9620
 0.4090	 4.9490
 0.4100	 4.9510
 0.4110	 4.9720
 0.4120	 5.0000
 0.4130	 4.9940
 0.4140	 5.0050
 0.4150	 5.0220
 0.4160	 5.0230
 0.4170	 5.0500
 0.4180	 5.0560
 0.4190	 5.0400
 0.4200	 5.0460
 0.4210	 5.0660
 0.4220	 5.0850
 0.4230	 5.0970
 0.4240	 5.1140
 0.4250	 5.1180
 0.4260	 5.1200
 0.4270	 5.1380
 0.4280	 5.1620
 0.4290	 5.1740
 0.4300	 5.1720
 0.4310	 5.1770
 0.4320	 5.1800
 0.4330	 5.1830
 0.4340	 5.1900
 0.4350	 5.1970
 0.4360	 5.2050
 0.4370	 5.2130
 0.4380	 5.2130
 0.4390	 5.2140
 0.4400	 5.2200
 0.4410	 5.2310
 0.4420	 5.2390
 0.4430	 5.2470
 0.4440	 5.2570
 0.4450	 5.2660
 0.4460	 5.2750
 0.4470	 5.2820
 0.4480	 5.2870
 0.4490	 5.2950
 0.4500	 5.2960
 0.4510	 5.2980
 0.4520	 5.3100
 0.4530	 5.3180
 0.4540	 5.3280
 0.4550	 5.3340
 0.4560	 5.3330
 0.4570	 5.3390
 0.4580	 5.3460
 0.4590	 5.3500
 0.4600	 5.3590
 0.4610	 5.3620
 0.4620	 5.3630
 0.4630	 5.3630
 0.4640	 5.3570
 0.4650	 5.3520
 0.4660	 5.3530
 0.4670	 5.3600
 0.4680	 5.3630
 0.4690	 5.3610
 0.4700	 5.3570
 0.4710	 5.3680
 0.4720	 5.3710
 0.4730	 5.3680
 0.4740	 5.3680
 0.4750	 5.3670
 0.4760	 5.3680
 0.4770	 5.3700
 0.4780	 5.3720
 0.4790	 5.3710
 0.4800	 5.3730
 0.4810	 5.3810
 0.4820	 5.3780
 0.4830	 5.3780
 0.4840	 5.3820
 0.4850	 5.3830
 0.4860	 5.3790
 0.4870	 5.3840
 0.4880	 5.4010
 0.4890	 5.4050
 0.4900	 5.4130
 0.4910	 5.4240
 0.4920	 5.4310
 0.4930	 5.4420
 0.4940	 5.4530
 0.4950	 5.4640
 0.4960	 5.4800
 0.4970	 5.5020
 0.4980	 5.5240
 0.4990	 5.5440
 0.5000	 5.5670
 0.5010	 5.5890
 0.5020	 5.6130
 0.5030	 5.6440
 0.5040	 5.6830
 0.5050	 5.7220
 0.5060	 5.7580
 0.5070	 5.8070
 0.5080	 5.8600
 0.5090	 5.9170
 0.5100	 5.9790
 0.5110	 6.0510
 0.5120	 6.1310
 0.5130	 6.2210
 0.5140	 6.3220
 0.5150	 6.4260
 0.5160	 6.5350
 0.5170	 6.6540
 0.5180	 6.7920
 0.5190	 6.9350
 0.5200	 7.0800
 0.5210	 7.2320
 0.5220	 7.3880
 0.5230	 7.5460
 0.5240	 7.7040
 0.5250	 7.8590
 0.5260	 8.0120
 0.5270	 8.1580
 0.5280	 8.2930
 0.5290	 8.4230
 0.5300	 8.5450
 0.5310	 8.6560
 0.5320	 8.7550
 0.5330	 8.8430
 0.5340	 8.9240
 0.5350	 8.9970
 0.5360	 9.0610
 0.5370	 9.1150
 0.5380	 9.1620
 0.5390	 9.2050
 0.5400	 9.2430
 0.5410	 9.2800
 0.5420	 9.3150
 0.5430	 9.3460
 0.5440	 9.3710
 0.5450	 9.3920
 0.5460	 9.4130
 0.5470	 9.4280
 0.5480	 9.4420
 0.5490	 9.4540
 0.5500	 9.4630
 0.5510	 9.4650
 0.5520	 9.4610
 0.5530	 9.4480
 0.5540	 9.4270
 0.5550	 9.3950
 0.5560	 9.3540
 0.5570	 9.3040
 0.5580	 9.2400
 0.5590	 9.1670
 0.5600	 9.0900
 0.5610	 9.0060
 0.5620	 8.9170
 0.5630	 8.8200
 0.5640	 8.7170
 0.5650	 8.6170
 0.5660	 8.5160
 0.5670	 8.4100
 0.5680	 8.3040
 0.5690	 8.1960
 0.5700	 8.0890
 0.5710	 7.9870
 0.5720	 7.8890
 0.5730	 7.7950
 0.5740	 7.7060
 0.5750	 7.6250
 0.5760	 7.5510
 0.5770	 7.4840
 0.5780	 7.4210
 0.5790	 7.3640
 0.5800	 7.3080
 0.5810	 7.2550
 0.5820	 7.2050
 0.5830	 7.1570
 0.5840	 7.1150
 0.5850	 7.0790
 0.5860	 7.0430
 0.5870	 7.0050
 0.5880	 6.9660
 0.5890	 6.9310
 0.5900	 6.8940
 0.5910	 6.8630
 0.5920	 6.8380
 0.5930	 6.8200
 0.5940	 6.8050
 0.5950	 6.7900
 0.5960	 6.7770
 0.5970	 6.7620
 0.5980	 6.7460
 0.5990	 6.7310
 0.6000	 6.7170
 0.6010	 6.6980
 0.6020	 6.6770
 0.6030	 6.6550
 0.6040	 6.6280
 0.6050	 6.6030
 0.6060	 6.5760
 0.6070	 6.5460
 0.6080	 6.5140
 0.6090	 6.4800
 0.6100	 6.4440
 0.6110	 6.4110
 0.6120	 6.3790
 0.6130	 6.3460
 0.6140	 6.3130
 0.6150	 6.2810
 0.6160	 6.2530
 0.6170	 6.2260
 0.6180	 6.1960
 0.6190	 6.1710
 0.6200	 6.1510
 0.6210	 6.1320
 0.6220	 6.1110
 0.6230	 6.0960
 0.6240	 6.0860
 0.6250	 6.0780
 0.6260	 6.0690
 0.6270	 6.0620
 0.6280	 6.0560
 0.6290	 6.0520
 0.6300	 6.0470
 0.6310	 6.0410
 0.6320	 6.0320
 0.6330	 6.0260
 0.6340	 6.0130
 0.6350	 5.9950
 0.6360	 5.9760
 0.6370	 5.9550
 0.6380	 5.9290
 0.6390	 5.8990
 0.6400	 5.8670
 0.6410	 5.8380
 0.6420	 5.8090
 0.6430	 5.7800
 0.6440	 5.7490
 0.6450	 5.7230
 0.6460	 5.7020
 0.6470	 5.6800
 0.6480	 5.6580
 0.6490	 5.6420
 0.6500	 5.6320
 0.6510	 5.6240
 0.6520	 5.6190
 0.6530	 5.6140
 0.6540	 5.6080
 0.6550	 5.6040
 0.6560	 5.5990
 0.6570	 5.5940
 0.6580	 5.5880
 0.6590	 5.5820
 0.6600	 5.5740
 0.6610	 5.5650
 0.6620	 5.5580
 0.6630	 5.5530
 0.6640	 5.5500
 0.6650	 5.5500
 0.6660	 5.5550
 0.6670	 5.5640
 0.6680	 5.5740
 0.6690	 5.5870
 0.6700	 5.6020
 0.6710	 5.6220
 0.6720	 5.6480
 0.6730	 5.6760
 0.6740	 5.7050
 0.6750	 5.7380
 0.6760	 5.7770
 0.6770	 5.8180
 0.6780	 5.8650
 0.6790	 5.9160
 0.6800	 5.9660
 0.6810	 6.0210
 0.6820	 6.0790
 0.6830	 6.1380
 0.6840	 6.1960
 0.6850	 6.2520
 0.6860	 6.3090
 0.6870	 6.3700
 0.6880	 6.4350
 0.6890	 6.5100
 0.6900	 6.6020
 0.6910	 6.7180
 0.6920	 6.8700
 0.6930	 7.0630
 0.6940	 7.3040
 0.6950	 7.6010
 0.6960	 7.9570
 0.6970	 8.3750
 0.6980	 8.8560
 0.6990	 9.3940
 0.7000	 9.9810
 0.7010	10.6120
 0.7020	11.2820
 0.7030	11.9830
 0.7040	12.7050
 0.7050	13.4430
 0.7060	14.1930
 0.7070	14.9530
 0.7080	15.7200
 0.7090	16.4930
 0.7100	17.2710
 0.7110	18.0560
 0.7120	18.8510
 0.7130	19.6540
 0.7140	20.4610
 0.7150	21.2750
 0.7160	22.0930
 0.7170	22.9170
 0.7180	23.7450
 0.7190	24.5760
 0.7200	25.4080
 0.7210	26.2380
 0.7220	27.0630
 0.7230	27.8810
 0.7240	28.6930
 0.7250	29.4950
 0.7260	30.2810
 0.7270	31.0510
 0.7280	31.8080
 0.7290	32.5440
 0.7300	33.2570
 0.7310	33.9490
 0.7320	34.6190
 0.7330	35.2620
 0.7340	35.8780
 0.7350	36.4670
 0.7360	37.0280
 0.7370	37.5600
 0.7380	38.0650
 0.7390	38.5450
 0.7400	38.9940
 0.7410	39.4120
 0.7420	39.8030
 0.7430	40.1670
 0.7440	40.5030
 0.7450	40.8110
 0.7460	41.0900
 0.7470	41.3450
 0.7480	41.5760
 0.7490	41.7840
 0.7500	41.9720
 0.7510	42.1440
 0.7520	42.2980
 0.7530	42.4370
 0.7540	42.5580
 0.7550	42.6670
 0.7560	42.7660
 0.7570	42.8520
 0.7580	42.9300
 0.7590	42.9980
 0.7600	43.0570
 0.7610	43.1110
 0.7620	43.1560
 0.7630	43.1960
 0.7640	43.2300
 0.7650	43.2550
 0.7660	43.2750
 0.7670	43.2920
 0.7680	43.3060
 0.7690	43.3190
 0.7700	43.3300
 0.7710	43.3370
 0.7720	43.3400
 0.7730	43.3430
 0.7740	43.3460
 0.7750	43.3490
 0.7760	43.3520
 0.7770	43.3520
 0.7780	43.3520
 0.7790	43.3530
 0.7800	43.3560
 0.7810	43.3580
 0.7820	43.3600
 0.7830	43.3620
 0.7840	43.3630
 0.7850	43.3620
 0.7860	43.3620
 0.7870	43.3610
 0.7880	43.3580
 0.7890	43.3550
 0.7900	43.3530
 0.7910	43.3520
 0.7920	43.3480
 0.7930	43.3430
 0.7940	43.3410
 0.7950	43.3380
 0.7960	43.3330
 0.7970	43.3260
 0.7980	43.3180
 0.7990	43.3110
 0.8000	43.3030
 0.8010	43.2930
 0.8020	43.2820
 0.8030	43.2750
 0.8040	43.2690
 0.8050	43.2600
 0.8060	43.2520
 0.8070	43.2370
 0.8080	43.2200
 0.8090	43.2090
 0.8100	43.2000
 0.8110	43.1890
 0.8120	43.1770
 0.8130	43.1630
 0.8140	43.1450
 0.8150	43.1270
 0.8160	43.1140
 0.8170	43.1040
 0.8180	43.0940
 0.8190	43.0810
 0.8200	43.0650
 0.8210	43.0480
 0.8220	43.0330
 0.8230	43.0200
 0.8240	43.0070
 0.8250	42.9930
 0.8260	42.9780
 0.8270	42.9640
 0.8280	42.9520
 0.8290	42.9390
 0.8300	42.9250
 0.8310	42.9090
 0.8320	42.8920
 0.8330	42.8800
 0.8340	42.8720
 0.8350	42.8630
 0.8360	42.8480
 0.8370	42.8360
 0.8380	42.8290
 0.8390	42.8220
 0.8400	42.8130
 0.8410	42.8060
 0.8420	42.8020
 0.8430	42.7950
 0.8440	42.7830
 0.8450	42.7730
 0.8460	42.7680
 0.8470	42.7640
 0.8480	42.7610
 0.8490	42.7570
 0.8500	42.7530
 0.8510	42.7500
 0.8520	42.7480
 0.8530	42.7470
 0.8540	42.7450
 0.8550	42.7420
 0.8560	42.7410
 0.8570	42.7390
 0.8580	42.7340
 0.8590	42.7320
 0.8600	42.7320
 0.8610	42.7320
 0.8620	42.7280
 0.8630	42.7300
 0.8640	42.7320
 0.8650	42.7330
 0.8660	42.7340
 0.8670	42.7370
 0.8680	42.7390
 0.8690	42.7410
 0.8700	42.7460
 0.8710	42.7510
 0.8720	42.7540
 0.8730	42.7580
 0.8740	42.7600
 0.8750	42.7610
 0.8760	42.7640
 0.8770	42.7700
 0.8780	42.7770
 0.8790	42.7820
 0.8800	42.7840
 0.8810	42.7880
 0.8820	42.7910
 0.8830	42.7960
 0.8840	42.8020
 0.8850	42.8050
 0.8860	42.8060
 0.8870	42.8080
 0.8880	42.8110
 0.8890	42.8140
 0.8900	42.8190
 0.8910	42.8260
 0.8920	42.8300
 0.8930	42.8350
 0.8940	42.8380
 0.8950	42.8410
 0.8960	42.8450
 0.8970	42.8410
 0.8980	42.8430
 0.8990	42.8520
 0.9000	42.8600
 0.9010	42.8640
 0.9020	42.8620
 0.9030	42.8610
 0.9040	42.8720
 0.9050	42.8720
 0.9060	42.8700
 0.9070	42.8720
 0.9080	42.8740
 0.9090	42.8750
 0.9100	42.8750
 0.9110	42.8720
 0.9120	42.8710
 0.9130	42.8700
 0.9140	42.8720
 0.9150	42.8740
 0.9160	42.8690
 0.9170	42.8690
 0.9180	42.8710
 0.9190	42.8650
 0.9200	42.8560
 0.9210	42.8500
 0.9220	42.8470
 0.9230	42.8430
 0.9240	42.8310
 0.9250	42.8240
 0.9260	42.8190
 0.9270	42.8080
 0.9280	42.7900
 0.9290	42.7750
 0.9300	42.7620
 0.9310	42.7420
 0.9320	42.7270
 0.9330	42.7160
 0.9340	42.7040
 0.9350	42.6890
 0.9360	42.6630
 0.9370	42.6400
 0.9380	42.6250
 0.9390	42.6030
 0.9400	42.5860
 0.9410	42.5690
 0.9420	42.5450
 0.9430	42.5140
 0.9440	42.4870
 0.9450	42.4600
 0.9460	42.4310
 0.9470	42.4000
 0.9480	42.3630
 0.9490	42.3220
 0.9500	42.2810
 0.9510	42.2380
 0.9520	42.2040
 0.9530	42.1660
 0.9540	42.1170
 0.9550	42.0650
 0.9560	42.0180
 0.9570	41.9760
 0.9580	41.9390
 0.9590	41.8990
 0.9600	41.8590
 0.9610	41.8260
 0.9620	41.8020
 0.9630	41.7750
 0.9640	41.7490
 0.9650	41.7240
 0.9660	41.7000
 0.9670	41.6800
 0.9680	41.6670
 0.9690	41.6560
 0.9700	41.6350
 0.9710	41.6170
 0.9720	41.5990
 0.9730	41.5850
 0.9740	41.5800
 0.9750	41.5730
 0.9760	41.5620
 0.9770	41.5510
 0.9780	41.5400
 0.9790	41.5300
 0.9800	41.5260
 0.9810	41.5260
 0.9820	41.5260
 0.9830	41.5280
 0.9840	41.5180
 0.9850	41.5090
 0.9860	41.5160
 0.9870	41.5190
 0.9880	41.5200
 0.9890	41.5210
 0.9900	41.5240
 0.9910	41.5250
 0.9920	41.5350
 0.9930	41.5410
 0.9940	41.5320
 0.9950	41.5310
 0.9960	41.5400
 0.9970	41.5510
 0.9980	41.5600
 0.9990	41.5740
 1.0000	41.5850
 1.0010	43.1830
 1.0020	43.1930
 1.0030	43.2030
 1.0040	43.2100
 1.0050	43.2230
 1.0060	43.2340
 1.0070	43.2410
 1.0080	43.2480
 1.0090	43.2530
 1.0100	43.2600
 1.0110	43.2690
 1.0120	43.2770
 1.0130	43.2840
 1.0140	43.2940
 1.0150	43.3020
 1.0160	43.3120
 1.0170	43.3210
 1.0180	43.3300
 1.0190	43.3370
 1.0200	43.3390
 1.0210	43.3440
 1.0220	43.3540
 1.0230	43.3620
 1.0240	43.3700
 1.0250	43.3800
 1.0260	43.3940
 1.0270	43.4030
 1.0280	43.4100
 1.0290	43.4200
 1.0300	43.4270
 1.0310	43.4340
 1.0320	43.4450
 1.0330	43.4540
 1.0340	43.4600
 1.0350	43.4670
 1.0360	43.4770
 1.0370	43.4880
 1.0380	43.4940
 1.0390	43.4970
 1.0400	43.5030
 1.0410	43.5070
 1.0420	43.5130
 1.0430	43.5250
 1.0440	43.5300
 1.0450	43.5320
 1.0460	43.5350
 1.0470	43.5350
 1.0480	43.5380
 1.0490	43.5440
 1.0500	43.5470
 1.0510	43.5490
 1.0520	43.5500
 1.0530	43.5520
 1.0540	43.5530
 1.0550	43.5540
 1.0560	43.5570
 1.0570	43.5570
 1.0580	43.5540
 1.0590	43.5530
 1.0600	43.5550
 1.0610	43.5540
 1.0620	43.5540
 1.0630	43.5520
 1.0640	43.5460
 1.0650	43.5430
 1.0660	43.5430
 1.0670	43.5410
 1.0680	43.5380
 1.0690	43.5350
 1.0700	43.5310
 1.0710	43.5240
 1.0720	43.5170
 1.0730	43.5080
 1.0740	43.5020
 1.0750	43.4950
 1.0760	43.4880
 1.0770	43.4850
 1.0780	43.4790
 1.0790	43.4680
 1.0800	43.4600
 1.0810	43.4510
 1.0820	43.4420
 1.0830	43.4330
 1.0840	43.4260
 1.0850	43.4210
 1.0860	43.4150
 1.0870	43.4070
 1.0880	43.4010
 1.0890	43.3910
 1.0900	43.3760
 1.0910	43.3660
 1.0920	43.3590
 1.0930	43.3500
 1.0940	43.3430
 1.0950	43.3350
 1.0960	43.3280
 1.0970	43.3190
 1.0980	43.3100
 1.0990	43.3000
 1.1000	43.2880
 1.1010	43.2770
 1.1020	43.2660
 1.1030	43.2550
 1.1040	43.2450
 1.1050	43.2360
 1.1060	43.2250
 1.1070	43.2120
 1.1080	43.2010
 1.1090	43.1880
 1.1100	43.1760
 1.1110	43.1650
 1.1120	43.1540
 1.1130	43.1420
 1.1140	43.1290
 1.1150	43.1170
 1.1160	43.1020
 1.1170	43.0850
 1.1180	43.0670
 1.1190	43.0450
 1.1200	43.0240
 1.1210	43.0040
 1.1220	42.9800
 1.1230	42.9550
 1.1240	42.9280
 1.1250	42.8960
 1.1260	42.8600
 1.1270	42.8210
 1.1280	42.7780
 1.1290	42.7330
 1.1300	42.6860
 1.1310	42.6330
 1.1320	42.5780
 1.1330	42.5170
 1.1340	42.4480
 1.1350	42.3770
 1.1360	42.3030
 1.1370	42.2240
 1.1380	42.1430
 1.1390	42.0580
 1.1400	41.9660
 1.1410	41.8730
 1.1420	41.7800
 1.1430	41.6830
 1.1440	41.5890
 1.1450	41.4940
 1.1460	41.4000
 1.1470	41.3070
 1.1480	41.2170
 1.1490	41.1270
 1.1500	41.0440
 1.1510	40.9650
 1.1520	40.8910
 1.1530	40.8240
 1.1540	40.7590
 1.1550	40.6980
 1.1560	40.6400
 1.1570	40.5860
 1.1580	40.5390
 1.1590	40.5000
 1.1600	40.4650
 1.1610	40.4310
 1.1620	40.4020
 1.1630	40.3740
 1.1640	40.3460
 1.1650	40.3220
 1.1660	40.3000
 1.1670	40.2810
 1.1680	40.2650
 1.1690	40.2490
 1.1700	40.2340
 1.1710	40.2190
 1.1720	40.2040
 1.1730	40.1890
 1.1740	40.1740
 1.1750	40.1600
 1.1760	40.1450
 1.1770	40.1300
 1.1780	40.1160
 1.1790	40.1010
 1.1800	40.0860
 1.1810	40.0700
 1.1820	40.0530
 1.1830	40.0360
 1.1840	40.0190
 1.1850	40.0010
 1.1860	39.9850
 1.1870	39.9710
 1.1880	39.9560
 1.1890	39.9420
 1.1900	39.9290
 1.1910	39.9140
 1.1920	39.9020
 1.1930	39.8900
 1.1940	39.8780
 1.1950	39.8670
 1.1960	39.8580
 1.1970	39.8490
 1.1980	39.8430
 1.1990	39.8380
 1.2000	39.8340
 1.2010	39.8330
 1.2020	39.8310
 1.2030	39.8310
 1.2040	39.8310
 1.2050	39.8300
 1.2060	39.8310
 1.2070	39.8330
 1.2080	39.8360
 1.2090	39.8440
 1.2100	39.8510
 1.2110	39.8580
 1.2120	39.8660
 1.2130	39.8770
 1.2140	39.8890
 1.2150	39.9010
 1.2160	39.9170
 1.2170	39.9320
 1.2180	39.9460
 1.2190	39.9610
 1.2200	39.9750
 1.2210	39.9920
 1.2220	40.0110
 1.2230	40.0290
 1.2240	40.0490
 1.2250	40.0680
 1.2260	40.0840
 1.2270	40.1030
 1.2280	40.1230
 1.2290	40.1410
 1.2300	40.1580
 1.2310	40.1740
 1.2320	40.1860
 1.2330	40.1990
 1.2340	40.2120
 1.2350	40.2250
 1.2360	40.2380
 1.2370	40.2510
 1.2380	40.2640
 1.2390	40.2750
 1.2400	40.2830
 1.2410	40.2920
 1.2420	40.3010
 1.2430	40.3090
 1.2440	40.3180
 1.2450	40.3270
 1.2460	40.3340
 1.2470	40.3400
 1.2480	40.3450
 1.2490	40.3490
 1.2500	40.3530
 1.2510	40.3580
 1.2520	40.3630
 1.2530	40.3680
 1.2540	40.3720
 1.2550	40.3760
 1.2560	40.3800
 1.2570	40.3810
 1.2580	40.3820
 1.2590	40.3820
 1.2600	40.3800
 1.2610	40.3790
 1.2620	40.3780
 1.2630	40.3760
 1.2640	40.3720
 1.2650	40.3690
 1.2660	40.3670
 1.2670	40.3610
 1.2680	40.3550
 1.2690	40.3490
 1.2700	40.3420
 1.2710	40.3360
 1.2720	40.3300
 1.2730	40.3250
 1.2740	40.3180
 1.2750	40.3110
 1.2760	40.3010
 1.2770	40.2910
 1.2780	40.2790
 1.2790	40.2650
 1.2800	40.2510
 1.2810	40.2360
 1.2820	40.2190
 1.2830	40.2020
 1.2840	40.1810
 1.2850	40.1590
 1.2860	40.1380
 1.2870	40.1150
 1.2880	40.0880
 1.2890	40.0600
 1.2900	40.0320
 1.2910	39.9990
 1.2920	39.9660
 1.2930	39.9330
 1.2940	39.8970
 1.2950	39.8570
 1.2960	39.8160
 1.2970	39.7730
 1.2980	39.7270
 1.2990	39.6800
 1.3000	39.6330
 1.3010	39.5840
 1.3020	39.5340
 1.3030	39.4820
 1.3040	39.4280
 1.3050	39.3730
 1.3060	39.3180
 1.3070	39.2610
 1.3080	39.2030
 1.3090	39.1450
 1.3100	39.0830
 1.3110	39.0200
 1.3120	38.9530
 1.3130	38.8850
 1.3140	38.8150
 1.3150	38.7450
 1.3160	38.6720
 1.3170	38.5990
 1.3180	38.5230
 1.3190	38.4440
 1.3200	38.3660
 1.3210	38.2870
 1.3220	38.2050
 1.3230	38.1250
 1.3240	38.0410
 1.3250	37.9550
 1.3260	37.8690
 1.3270	37.7790
 1.3280	37.6870
 1.3290	37.5950
 1.3300	37.5000
 1.3310	37.4040
 1.3320	37.3050
 1.3330	37.2070
 1.3340	37.1070
 1.3350	37.0070
 1.3360	36.9070
 1.3370	36.8050
 1.3380	36.7060
 1.3390	36.6070
 1.3400	36.5070
 1.3410	36.4100
 1.3420	36.3110
 1.3430	36.2120
 1.3440	36.1170
 1.3450	36.0210
 1.3460	35.9250
 1.3470	35.8310
 1.3480	35.7370
 1.3490	35.6440
 1.3500	35.5530
 1.3510	35.4620
 1.3520	35.3710
 1.3530	35.2800
 1.3540	35.1880
 1.3550	35.0950
 1.3560	35.0010
 1.3570	34.9070
 1.3580	34.8110
 1.3590	34.7130
 1.3600	34.6130
 1.3610	34.5090
 1.3620	34.4010
 1.3630	34.2920
 1.3640	34.1770
 1.3650	34.0550
 1.3660	33.9270
 1.3670	33.7890
 1.3680	33.6420
 1.3690	33.4880
 1.3700	33.3210
 1.3710	33.1440
 1.3720	32.9550
 1.3730	32.7510
 1.3740	32.5330
 1.3750	32.3000
 1.3760	32.0460
 1.3770	31.7720
 1.3780	31.4760
 1.3790	31.1600
 1.3800	30.8230
 1.3810	30.4630
 1.3820	30.0850
 1.3830	29.6870
 1.3840	29.2690
 1.3850	28.8300
 1.3860	28.3780
 1.3870	27.9030
 1.3880	27.4220
 1.3890	26.9280
 1.3900	26.4220
 1.3910	25.9130
 1.3920	25.3970
 1.3930	24.8740
 1.3940	24.3530
 1.3950	23.8290
 1.3960	23.3110
 1.3970	22.8020
 1.3980	22.3000
 1.3990	21.8160
 1.4000	21.3440
 1.4010	20.8840
 1.4020	20.4430
 1.4030	20.0160
 1.4040	19.6070
 1.4050	19.2190
 1.4060	18.8490
 1.4070	18.5020
 1.4080	18.1750
 1.4090	17.8660
 1.4100	17.5760
 1.4110	17.3030
 1.4120	17.0460
 1.4130	16.8080
 1.4140	16.5870
 1.4150	16.3840
 1.4160	16.1960
 1.4170	16.0220
 1.4180	15.8620
 1.4190	15.7110
 1.4200	15.5720
 1.4210	15.4450
 1.4220	15.3260
 1.4230	15.2190
 1.4240	15.1210
 1.4250	15.0300
 1.4260	14.9490
 1.4270	14.8730
 1.4280	14.8050
 1.4290	14.7420
 1.4300	14.6860
 1.4310	14.6350
 1.4320	14.5910
 1.4330	14.5510
 1.4340	14.5170
 1.4350	14.4870
 1.4360	14.4630
 1.4370	14.4420
 1.4380	14.4240
 1.4390	14.4100
 1.4400	14.3980
 1.4410	14.3910
 1.4420	14.3870
 1.4430	14.3850
 1.4440	14.3850
 1.4450	14.3870
 1.4460	14.3910
 1.4470	14.3970
 1.4480	14.4050
 1.4490	14.4140
 1.4500	14.4250
 1.4510	14.4380
 1.4520	14.4520
 1.4530	14.4680
 1.4540	14.4860
 1.4550	14.5070
 1.4560	14.5300
 1.4570	14.5550
 1.4580	14.5830
 1.4590	14.6130
 1.4600	14.6470
 1.4610	14.6840
 1.4620	14.7250
 1.4630	14.7710
 1.4640	14.8210
 1.4650	14.8760
 1.4660	14.9360
 1.4670	14.9990
 1.4680	15.0680
 1.4690	15.1410
 1.4700	15.2180
 1.4710	15.2990
 1.4720	15.3830
 1.4730	15.4700
 1.4740	15.5610
 1.4750	15.6550
 1.4760	15.7520
 1.4770	15.8520
 1.4780	15.9530
 1.4790	16.0570
 1.4800	16.1630
 1.4810	16.2700
 1.4820	16.3810
 1.4830	16.4910
 1.4840	16.6030
 1.4850	16.7160
 1.4860	16.8300
 1.4870	16.9450
 1.4880	17.0590
 1.4890	17.1750
 1.4900	17.2920
 1.4910	17.4090
 1.4920	17.5280
 1.4930	17.6480
 1.4940	17.7670
 1.4950	17.8860
 1.4960	18.0060
 1.4970	18.1260
 1.4980	18.2460
 1.4990	18.3670
 1.5000	18.4870
 1.5010	18.6080
 1.5020	18.7290
 1.5030	18.8500
 1.5040	18.9720
 1.5050	19.0940
 1.5060	19.2160
 1.5070	19.3370
 1.5080	19.4590
 1.5090	19.5800
 1.5100	19.7010
 1.5110	19.8210
 1.5120	19.9410
 1.5130	20.0590
 1.5140	20.1780
 1.5150	20.2960
 1.5160	20.4130
 1.5170	20.5310
 1.5180	20.6480
 1.5190	20.7640
 1.5200	20.8810
 1.5210	20.9940
 1.5220	21.1070
 1.5230	21.2200
 1.5240	21.3310
 1.5250	21.4440
 1.5260	21.5550
 1.5270	21.6660
 1.5280	21.7760
 1.5290	21.8830
 1.5300	21.9900
 1.5310	22.0960
 1.5320	22.2000
 1.5330	22.3040
 1.5340	22.4090
 1.5350	22.5120
 1.5360	22.6160
 1.5370	22.7170
 1.5380	22.8160
 1.5390	22.9150
 1.5400	23.0130
 1.5410	23.1100
 1.5420	23.2070
 1.5430	23.3030
 1.5440	23.3990
 1.5450	23.4940
 1.5460	23.5870
 1.5470	23.6790
 1.5480	23.7710
 1.5490	23.8630
 1.5500	23.9540
 1.5510	24.0440
 1.5520	24.1320
 1.5530	24.2180
 1.5540	24.3030
 1.5550	24.3870
 1.5560	24.4700
 1.5570	24.5530
 1.5580	24.6350
 1.5590	24.7150
 1.5600	24.7960
 1.5610	24.8740
 1.5620	24.9510
 1.5630	25.0280
 1.5640	25.1030
 1.5650	25.1790
 1.5660	25.2530
 1.5670	25.3260
 1.5680	25.3990
 1.5690	25.4690
 1.5700	25.5380
 1.5710	25.6080
 1.5720	25.6760
 1.5730	25.7430
 1.5740	25.8120
 1.5750	25.8790
 1.5760	25.9470
 1.5770	26.0120
 1.5780	26.0770
 1.5790	26.1410
 1.5800	26.2040
 1.5810	26.2660
 1.5820	26.3290
 1.5830	26.3920
 1.5840	26.4540
 1.5850	26.5160
 1.5860	26.5770
 1.5870	26.6360
 1.5880	26.6950
 1.5890	26.7550
 1.5900	26.8130
 1.5910	26.8730
 1.5920	26.9320
 1.5930	26.9890
 1.5940	27.0460
 1.5950	27.1040
 1.5960	27.1590
 1.5970	27.2140
 1.5980	27.2690
 1.5990	27.3220
 1.6000	27.3750
 1.6010	27.4270
 1.6020	27.4790
 1.6030	27.5300
 1.6040	27.5810
 1.6050	27.6310
 1.6060	27.6810
 1.6070	27.7280
 1.6080	27.7760
 1.6090	27.8240
 1.6100	27.8710
 1.6110	27.9160
 1.6120	27.9620
 1.6130	28.0060
 1.6140	28.0490
 1.6150	28.0930
 1.6160	28.1370
 1.6170	28.1790
 1.6180	28.2200
 1.6190	28.2590
 1.6200	28.2970
 1.6210	28.3330
 1.6220	28.3680
 1.6230	28.4030
 1.6240	28.4400
 1.6250	28.4740
 1.6260	28.5080
 1.6270	28.5430
 1.6280	28.5740
 1.6290	28.6060
 1.6300	28.6380
 1.6310	28.6680
 1.6320	28.6970
 1.6330	28.7250
 1.6340	28.7520
 1.6350	28.7770
 1.6360	28.8010
 1.6370	28.8250
 1.6380	28.8480
 1.6390	28.8710
 1.6400	28.8940
 1.6410	28.9130
 1.6420	28.9290
 1.6430	28.9440
 1.6440	28.9570
 1.6450	28.9680
 1.6460	28.9770
 1.6470	28.9850
 1.6480	28.9890
 1.6490	28.9920
 1.6500	28.9960
 1.6510	28.9950
 1.6520	28.9920
 1.6530	28.9890
 1.6540	28.9850
 1.6550	28.9800
 1.6560	28.9740
 1.6570	28.9640
 1.6580	28.9530
 1.6590	28.9420
 1.6600	28.9330
 1.6610	28.9250
 1.6620	28.9160
 1.6630	28.9080
 1.6640	28.9000
 1.6650	28.8920
 1.6660	28.8870
 1.6670	28.8810
 1.6680	28.8750
 1.6690	28.8700
 1.6700	28.8640
 1.6710	28.8570
 1.6720	28.8540
 1.6730	28.8510
 1.6740	28.8480
 1.6750	28.8440
 1.6760	28.8370
 1.6770	28.8280
 1.6780	28.8190
 1.6790	28.8100
 1.6800	28.7990
 1.6810	28.7860
 1.6820	28.7710
 1.6830	28.7540
 1.6840	28.7360
 1.6850	28.7160
 1.6860	28.6930
 1.6870	28.6670
 1.6880	28.6400
 1.6890	28.6120
 1.6900	28.5830
 1.6910	28.5530
 1.6920	28.5230
 1.6930	28.4920
 1.6940	28.4610
 1.6950	28.4290
 1.6960	28.3950
 1.6970	28.3590
 1.6980	28.3240
 1.6990	28.2900
 1.7000	28.2540
 1.7010	28.2170
 1.7020	28.1790
 1.7030	28.1360
 1.7040	28.0950
 1.7050	28.0530
 1.7060	28.0090
 1.7070	27.9630
 1.7080	27.9180
 1.7090	27.8710
 1.7100	27.8240
 1.7110	27.7780
 1.7120	27.7280
 1.7130	27.6790
 1.7140	27.6280
 1.7150	27.5750
 1.7160	27.5230
 1.7170	27.4700
 1.7180	27.4170
 1.7190	27.3650
 1.7200	27.3130
 1.7210	27.2610
 1.7220	27.2080
 1.7230	27.1540
 1.7240	27.0970
 1.7250	27.0410
 1.7260	26.9860
 1.7270	26.9330
 1.7280	26.8860
 1.7290	26.8410
 1.7300	26.7980
 1.7310	26.7600
 1.7320	26.7260
 1.7330	26.6970
 1.7340	26.6760
 1.7350	26.6530
 1.7360	26.6320
 1.7370	26.6090
 1.7380	26.5850
 1.7390	26.5580
 1.7400	26.5310
 1.7410	26.4990
 1.7420	26.4650
 1.7430	26.4280
 1.7440	26.3890
 1.7450	26.3470
 1.7460	26.3030
 1.7470	26.2570
 1.7480	26.2090
 1.7490	26.1600
 1.7500	26.1090
 1.7510	26.0580
 1.7520	26.0040
 1.7530	25.9500
 1.7540	25.8960
 1.7550	25.8440
 1.7560	25.7920
 1.7570	25.7360
 1.7580	25.6820
 1.7590	25.6270
 1.7600	25.5710
 1.7610	25.5200
 1.7620	25.4700
 1.7630	25.4210
 1.7640	25.3750
 1.7650	25.3320
 1.7660	25.2920
 1.7670	25.2540
 1.7680	25.2180
 1.7690	25.1870
 1.7700	25.1550
 1.7710	25.1240
 1.7720	25.0940
 1.7730	25.0630
 1.7740	25.0330
 1.7750	25.0050
 1.7760	24.9760
 1.7770	24.9460
 1.7780	24.9200
 1.7790	24.8960
 1.7800	24.8740
 1.7810	24.8570
 1.7820	24.8370
 1.7830	24.8170
 1.7840	24.7980
 1.7850	24.7800
 1.7860	24.7650
 1.7870	24.7530
 1.7880	24.7400
 1.7890	24.7290
 1.7900	24.7220
 1.7910	24.7140
 1.7920	24.7080
 1.7930	24.7030
 1.7940	24.6970
 1.7950	24.6930
 1.7960	24.6910
 1.7970	24.6900
 1.7980	24.6910
 1.7990	24.6920
 1.8000	24.6950
 1.8010	24.6970
 1.8020	24.7010
 1.8030	24.7040
 1.8040	24.7050
 1.8050	24.7090
 1.8060	24.7130
 1.8070	24.7190
 1.8080	24.7290
 1.8090	24.7340
 1.8100	24.7370
 1.8110	24.7400
 1.8120	24.7420
 1.8130	24.7450
 1.8140	24.7470
 1.8150	24.7490
 1.8160	24.7520
 1.8170	24.7510
 1.8180	24.7500
 1.8190	24.7440
 1.8200	24.7400
 1.8210	24.7380
 1.8220	24.7350
 1.8230	24.7330
 1.8240	24.7290
 1.8250	24.7240
 1.8260	24.7190
 1.8270	24.7130
 1.8280	24.7040
 1.8290	24.6930
 1.8300	24.6780
 1.8310	24.2260
 1.8320	24.2050
 1.8330	24.1780
 1.8340	24.1490
 1.8350	24.1180
 1.8360	24.0810
 1.8370	24.0390
 1.8380	23.9930
 1.8390	23.9430
 1.8400	23.8890
 1.8410	23.8310
 1.8420	23.7680
 1.8430	23.7000
 1.8440	23.6280
 1.8450	23.5500
 1.8460	23.4660
 1.8470	23.3750
 1.8480	23.2740
 1.8490	23.1570
 1.8500	23.0310
 1.8510	22.8940
 1.8520	22.7470
 1.8530	22.5920
 1.8540	22.4330
 1.8550	22.2580
 1.8560	22.0670
 1.8570	21.8660
 1.8580	21.6460
 1.8590	21.4190
 1.8600	21.1820
 1.8610	20.9370
 1.8620	20.6740
 1.8630	20.3990
 1.8640	20.1040
 1.8650	19.7880
 1.8660	19.4560
 1.8670	19.1050
 1.8680	18.7420
 1.8690	18.3600
 1.8700	17.9610
 1.8710	17.5440
 1.8720	17.1180
 1.8730	16.6770
 1.8740	16.2240
 1.8750	15.7680
 1.8760	15.3040
 1.8770	14.8380
 1.8780	14.3730
 1.8790	13.9040
 1.8800	13.4440
 1.8810	12.9870
 1.8820	12.5330
 1.8830	12.0810
 1.8840	11.6400
 1.8850	11.2050
 1.8860	10.7850
 1.8870	10.3820
 1.8880	 9.9930
 1.8890	 9.6230
 1.8900	 9.2690
 1.8910	 8.9360
 1.8920	 8.6190
 1.8930	 8.3260
 1.8940	 8.0550
 1.8950	 7.8070
 1.8960	 7.5780
 1.8970	 7.3680
 1.8980	 7.1800
 1.8990	 7.0080
 1.9000	 6.8520
 1.9010	 6.7150
 1.9020	 6.5890
 1.9030	 6.4800
 1.9040	 6.3810
 1.9050	 6.2960
 1.9060	 6.2170
 1.9070	 6.1480
 1.9080	 6.0900
 1.9090	 6.0360
 1.9100	 5.9930
 1.9110	 5.9520
 1.9120	 5.9160
 1.9130	 5.8840
 1.9140	 5.8570
 1.9150	 5.8330
 1.9160	 5.8150
 1.9170	 5.8020
 1.9180	 5.7880
 1.9190	 5.7740
 1.9200	 5.7630
 1.9210	 5.7550
 1.9220	 5.7480
 1.9230	 5.7460
 1.9240	 5.7440
 1.9250	 5.7420
 1.9260	 5.7420
 1.9270	 5.7420
 1.9280	 5.7440
 1.9290	 5.7480
 1.9300	 5.7500
 1.9310	 5.7510
 1.9320	 5.7560
 1.9330	 5.7610
 1.9340	 5.7660
 1.9350	 5.7740
 1.9360	 5.7870
 1.9370	 5.7980
 1.9380	 5.8090
 1.9390	 5.8230
 1.9400	 5.8340
 1.9410	 5.8450
 1.9420	 5.8610
 1.9430	 5.8750
 1.9440	 5.8900
 1.9450	 5.9080
 1.9460	 5.9270
 1.9470	 5.9470
 1.9480	 5.9680
 1.9490	 5.9920
 1.9500	 6.0140
 1.9510	 6.0350
 1.9520	 6.0560
 1.9530	 6.0800
 1.9540	 6.1030
 1.9550	 6.1260
 1.9560	 6.1510
 1.9570	 6.1760
 1.9580	 6.2010
 1.9590	 6.2280
 1.9600	 6.2580
 1.9610	 6.2870
 1.9620	 6.3140
 1.9630	 6.3460
 1.9640	 6.3780
 1.9650	 6.4100
 1.9660	 6.4440
 1.9670	 6.4750
 1.9680	 6.5100
 1.9690	 6.5460
 1.9700	 6.5810
 1.9710	 6.6190
 1.9720	 6.6560
 1.9730	 6.6940
 1.9740	 6.7320
 1.9750	 6.7720
 1.9760	 6.8150
 1.9770	 6.8570
 1.9780	 6.8980
 1.9790	 6.9400
 1.9800	 6.9820
 1.9810	 7.0260
 1.9820	 7.0720
 1.9830	 7.1170
 1.9840	 7.1640
 1.9850	 7.2110
 1.9860	 7.2580
 1.9870	 7.3050
 1.9880	 7.3550
 1.9890	 7.4050
 1.9900	 7.4570
 1.9910	 7.5110
 1.9920	 7.5640
 1.9930	 7.6180
 1.9940	 7.6700
 1.9950	 7.7210
 1.9960	 7.7730
 1.9970	 7.8240
 1.9980	 7.8760
 1.9990	 7.9300
 2.0000	 7.9860
 2.0010	 8.0430
 2.0020	 8.0990
 2.0030	 8.1510
 2.0040	 8.2050
 2.0050	 8.2600
 2.0060	 8.3140
 2.0070	 8.3690
 2.0080	 8.4270
 2.0090	 8.4830
 2.0100	 8.5390
 2.0110	 8.5950
 2.0120	 8.6500
 2.0130	 8.7050
 2.0140	 8.7610
 2.0150	 8.8170
 2.0160	 8.8760
 2.0170	 8.9350
 2.0180	 8.9920
 2.0190	 9.0500
 2.0200	 9.1060
 2.0210	 9.1610
 2.0220	 9.2160
 2.0230	 9.2690
 2.0240	 9.3230
 2.0250	 9.3780
 2.0260	 9.4300
 2.0270	 9.4810
 2.0280	 9.5320
 2.0290	 9.5830
 2.0300	 9.6320
 2.0310	 9.6820
 2.0320	 9.7330
 2.0330	 9.7820
 2.0340	 9.8290
 2.0350	 9.8780
 2.0360	 9.9280
 2.0370	 9.9760
 2.0380	10.0230
 2.0390	10.0690
 2.0400	10.1150
 2.0410	10.1600
 2.0420	10.2050
 2.0430	10.2490
 2.0440	10.2930
 2.0450	10.3360
 2.0460	10.3790
 2.0470	10.4240
 2.0480	10.4670
 2.0490	10.5100
 2.0500	10.5530
 2.0510	10.5930
 2.0520	10.6350
 2.0530	10.6780
 2.0540	10.7210
 2.0550	10.7650
 2.0560	10.8070
 2.0570	10.8500
 2.0580	10.8950
 2.0590	10.9400
 2.0600	10.9870
 2.0610	11.0320
 2.0620	11.0770
 2.0630	11.1220
 2.0640	11.1650
 2.0650	11.2100
 2.0660	11.2560
 2.0670	11.3010
 2.0680	11.3460
 2.0690	11.3910
 2.0700	11.4350
 2.0710	11.4800
 2.0720	11.5250
 2.0730	11.5740
 2.0740	11.6190
 2.0750	11.6630
 2.0760	11.7070
 2.0770	11.7500
 2.0780	11.7930
 2.0790	11.8370
 2.0800	11.8800
 2.0810	11.9220
 2.0820	11.9640
 2.0830	12.0060
 2.0840	12.0480
 2.0850	12.0920
 2.0860	12.1340
 2.0870	12.1760
 2.0880	12.2170
 2.0890	12.2580
 2.0900	12.2960
 2.0910	12.3380
 2.0920	12.3820
 2.0930	12.4240
 2.0940	12.4690
 2.0950	12.5100
 2.0960	12.5470
 2.0970	12.5870
 2.0980	12.6260
 2.0990	12.6640
 2.1000	12.7030
 2.1010	12.7420
 2.1020	12.7820
 2.1030	12.8200
 2.1040	12.8560
 2.1050	12.8940
 2.1060	12.9320
 2.1070	12.9690
 2.1080	13.0070
 2.1090	13.0490
 2.1100	13.0870
 2.1110	13.1250
 2.1120	13.1620
 2.1130	13.1990
 2.1140	13.2360
 2.1150	13.2710
 2.1160	13.3060
 2.1170	13.3400
 2.1180	13.3740
 2.1190	13.4080
 2.1200	13.4410
 2.1210	13.4720
 2.1220	13.5070
 2.1230	13.5390
 2.1240	13.5690
 2.1250	13.5990
 2.1260	13.6300
 2.1270	13.6600
 2.1280	13.6900
 2.1290	13.7200
 2.1300	13.7490
 2.1310	13.7760
 2.1320	13.7990
 2.1330	13.8270
 2.1340	13.8560
 2.1350	13.8830
 2.1360	13.9110
 2.1370	13.9390
 2.1380	13.9610
 2.1390	13.9870
 2.1400	14.0150
 2.1410	14.0440
 2.1420	14.0730
 2.1430	14.1060
 2.1440	14.1340
 2.1450	14.1600
 2.1460	14.1870
 2.1470	14.2130
 2.1480	14.2410
 2.1490	14.2740
 2.1500	14.3010
 2.1510	14.3260
 2.1520	14.3540
 2.1530	14.3800
 2.1540	14.4060
 2.1550	14.4370
 2.1560	14.4650
 2.1570	14.4860
 2.1580	14.5120
 2.1590	14.5440
 2.1600	14.5680
 2.1610	14.5920
 2.1620	14.6170
 2.1630	14.6380
 2.1640	14.6520
 2.1650	14.6750
 2.1660	14.7020
 2.1670	14.7270
 2.1680	14.7550
 2.1690	14.7790
 2.1700	14.8000
 2.1710	14.8220
 2.1720	14.8420
 2.1730	14.8640
 2.1740	14.8860
 2.1750	14.9080
 2.1760	14.9300
 2.1770	14.9510
 2.1780	14.9730
 2.1790	14.9940
 2.1800	15.0120
 2.1810	15.0340
 2.1820	15.0550
 2.1830	15.0810
 2.1840	15.1050
 2.1850	15.1330
 2.1860	15.1560
 2.1870	15.1760
 2.1880	15.1960
 2.1890	15.2120
 2.1900	15.2330
 2.1910	15.2550
 2.1920	15.2760
 2.1930	15.2980
 2.1940	15.3190
 2.1950	15.3380
 2.1960	15.3580
 2.1970	15.3790
 2.1980	15.3990
 2.1990	15.4180
 2.2000	15.4360
 2.2010	15.4550
 2.2020	15.4710
 2.2030	15.4830
 2.2040	15.4980
 2.2050	15.5130
 2.2060	15.5270
 2.2070	15.5420
 2.2080	15.5600
 2.2090	15.5750
 2.2100	15.5880
 2.2110	15.6000
 2.2120	15.6100
 2.2130	15.6190
 2.2140	15.6260
 2.2150	15.6320
 2.2160	15.6360
 2.2170	15.6380
 2.2180	15.6390
 2.2190	15.6370
 2.2200	15.6330
 2.2210	15.6270
 2.2220	15.6160
 2.2230	15.6100
 2.2240	15.6090
 2.2250	15.6020
 2.2260	15.5980
 2.2270	15.5860
 2.2280	15.5670
 2.2290	15.5470
 2.2300	15.5210
 2.2310	15.4940
 2.2320	15.4700
 2.2330	15.4420
 2.2340	15.4140
 2.2350	15.3870
 2.2360	15.3560
 2.2370	15.3210
 2.2380	15.2850
 2.2390	15.2460
 2.2400	15.2080
 2.2410	15.1690
 2.2420	15.1270
 2.2430	15.0850
 2.2440	15.0390
 2.2450	14.9860
 2.2460	14.9350
 2.2470	14.8830
 2.2480	14.8320
 2.2490	14.7800
 2.2500	14.7250
 2.2510	14.6690
 2.2520	14.6140
 2.2530	14.5560
 2.2540	14.5020
 2.2550	14.4510
 2.2560	14.3990
 2.2570	14.3460
 2.2580	14.2930
 2.2590	14.2400
 2.2600	14.1860
 2.2610	14.1280
 2.2620	14.0750
 2.2630	14.0200
 2.2640	13.9660
 2.2650	13.9210
 2.2660	13.8710
 2.2670	13.8250
 2.2680	13.7840
 2.2690	13.7340
 2.2700	13.6770
 2.2710	13.6300
 2.2720	13.5830
 2.2730	13.5400
 2.2740	13.5090
 2.2750	13.4690
 2.2760	13.4260
 2.2770	13.3820
 2.2780	13.3350
 2.2790	13.2920
 2.2800	13.2480
 2.2810	13.2080
 2.2820	13.1740
 2.2830	13.1360
 2.2840	13.0980
 2.2850	13.0580
 2.2860	13.0130
 2.2870	12.9730
 2.2880	12.9340
 2.2890	12.8950
 2.2900	12.8610
 2.2910	12.8180
 2.2920	12.7660
 2.2930	12.7180
 2.2940	12.6670
 2.2950	12.6140
 2.2960	12.5600
 2.2970	12.5070
 2.2980	12.4510
 2.2990	12.3940
 2.3000	12.3440
 2.3010	12.2920
 2.3020	12.2380
 2.3030	12.1840
 2.3040	12.1330
 2.3050	12.0880
 2.3060	12.0420
 2.3070	11.9930
 2.3080	11.9510
 2.3090	11.9100
 2.3100	11.8720
 2.3110	11.8440
 2.3120	11.8190
 2.3130	11.7950
 2.3140	11.7770
 2.3150	11.7680
 2.3160	11.7550
 2.3170	11.7410
 2.3180	11.7330
 2.3190	11.7300
 2.3200	11.7240
 2.3210	11.7270
 2.3220	11.7160
 2.3230	11.6970
 2.3240	11.6740
 2.3250	11.6380
 2.3260	11.6090
 2.3270	11.5780
 2.3280	11.5500
 2.3290	11.5300
 2.3300	11.4980
 2.3310	11.4640
 2.3320	11.4220
 2.3330	11.3630
 2.3340	11.3200
 2.3350	11.2850
 2.3360	11.2430
 2.3370	11.2070
 2.3380	11.1680
 2.3390	11.1220
 2.3400	11.0770
 2.3410	11.0370
 2.3420	10.9950
 2.3430	10.9490
 2.3440	10.9060
 2.3450	10.8680
 2.3460	10.8240
 2.3470	10.7780
 2.3480	10.7360
 2.3490	10.6910
 2.3500	10.6540
 2.3510	10.6200
 2.3520	10.5940
 2.3530	10.5770
 2.3540	10.5560
 2.3550	10.5380
 2.3560	10.5170
 2.3570	10.4870
 2.3580	10.4590
 2.3590	10.4370
 2.3600	10.4150
 2.3610	10.3910
 2.3620	10.3690
 2.3630	10.3380
 2.3640	10.3090
 2.3650	10.2780
 2.3660	10.2350
 2.3670	10.1960
 2.3680	10.1530
 2.3690	10.1140
 2.3700	10.0900
 2.3710	10.0600
 2.3720	10.0290
 2.3730	 9.9930
 2.3740	 9.9520
 2.3750	 9.9150
 2.3760	 9.8750
 2.3770	 9.8390
 2.3780	 9.8030
 2.3790	 9.7610
 2.3800	 9.7320
 2.3810	 9.6970
 2.3820	 9.6660
 2.3830	 9.6490
 2.3840	 9.6220
 2.3850	 9.5930
 2.3860	 9.5590
 2.3870	 9.5160
 2.3880	 9.4740
 2.3890	 9.4410
 2.3900	 9.4060
 2.3910	 9.3670
 2.3920	 9.3340
 2.3930	 9.2910
 2.3940	 9.2530
 2.3950	 9.2200
 2.3960	 9.1840
 2.3970	 9.1600
 2.3980	 9.1310
 2.3990	 9.1080
 2.4000	 9.0930
 2.4010	 9.0490
 2.4020	 9.0120
 2.4030	 8.9710
 2.4040	 8.9100
 2.4050	 8.8690
 2.4060	 8.8380
 2.4070	 8.8090
 2.4080	 8.7870
 2.4090	 8.7580
 2.4100	 8.7180
 2.4110	 8.6780
 2.4120	 8.6440
 2.4130	 8.6190
 2.4140	 8.6080
 2.4150	 8.5840
 2.4160	 8.5430
 2.4170	 8.5000
 2.4180	 8.4510
 2.4190	 8.4120
 2.4200	 8.3870
 2.4210	 8.3680
 2.4220	 8.3360
 2.4230	 8.3010
 2.4240	 8.2770
 2.4250	 8.2380
 2.4260	 8.1990
 2.4270	 8.1660
 2.4280	 8.1240
 2.4290	 8.0930
 2.4300	 8.0630
 2.4310	 8.0230
 2.4320	 7.9890
 2.4330	 7.9630
 2.4340	 7.9210
 2.4350	 7.8800
 2.4360	 7.8510
 2.4370	 7.8110
 2.4380	 7.7960
 2.4390	 7.7960
 2.4400	 7.7670
 2.4410	 7.7220
 2.4420	 7.6590
 2.4430	 7.6030
 2.4440	 7.5730
 2.4450	 7.5570
 2.4460	 7.5490
 2.4470	 7.5210
 2.4480	 7.4750
 2.4490	 7.4310
 2.4500	 7.4030
 2.4510	 7.3890
 2.4520	 7.3660
 2.4530	 7.3460
 2.4540	 7.3080
 2.4550	 7.2590
 2.4560	 7.2320
 2.4570	 7.2020
 2.4580	 7.1770
 2.4590	 7.1600
 2.4600	 7.1500
 2.4610	 7.1360
 2.4620	 7.1130
 2.4630	 7.0980
 2.4640	 7.0680
 2.4650	 7.0330
 2.4660	 7.0030
 2.4670	 6.9570
 2.4680	 6.9250
 2.4690	 6.9270
 2.4700	 6.9140
 2.4710	 6.9190
 2.4720	 6.9010
 2.4730	 6.8560
 2.4740	 6.8380
 2.4750	 6.8190
 2.4760	 6.8150
 2.4770	 6.8400
 2.4780	 6.8260
 2.4790	 6.7880
 2.4800	 6.7720
 2.4810	 6.7520
 2.4820	 6.7290
 2.4830	 6.7190
 2.4840	 6.7320
 2.4850	 6.7170
 2.4860	 6.6910
 2.4870	 6.6890
 2.4880	 6.6650
 2.4890	 6.6090
 2.4900	 6.5500
 2.4910	 6.5330
 2.4920	 6.5030
 2.4930	 6.4800
 2.4940	 6.5410
 2.4950	 6.5760
 2.4960	 6.5670
 2.4970	 6.5970
 2.4980	 6.5750
 2.4990	 6.5220
 2.5000	 6.5440
