Name: Chorisia insignis
Type: vegetation
Class: Tree
Genus: Chorisia
Species: insignis
Sample No.: JPL136
Owner: JPL
Wavelength Range: VSWIR
Origin: 34.1268; -118.11025;; WGS84
Collection Date: 9/7/2016
Description: Samples were collected at the Huntington Garden in San Marino California as part of a JPL Subcontract studying HyTES imagery. Samples were taken to JPL and processed within 48 hours of collection. The same leaves were processed in the Nicolet and then measured using the ASD.
Measurement: Bidirectional reflectance
First Column: X
Second Column: Y
X Units: Wavelength (micrometer)
Y Units: Reflectance (percentage)
First X Value: 0.35
Last X Value: 2.5
Number of X Values: 2151
Additional Information: vegetation.tree.chorisia.insignis.vswir.jpl136.jpl.asd.ancillary.txt

 0.3500	 5.0900
 0.3510	 5.2100
 0.3520	 5.3060
 0.3530	 5.2550
 0.3540	 5.0800
 0.3550	 5.1420
 0.3560	 5.1210
 0.3570	 5.0470
 0.3580	 5.0980
 0.3590	 5.0730
 0.3600	 5.0070
 0.3610	 4.9470
 0.3620	 4.9210
 0.3630	 4.9380
 0.3640	 4.9610
 0.3650	 4.9560
 0.3660	 4.9630
 0.3670	 4.9590
 0.3680	 4.9430
 0.3690	 4.9290
 0.3700	 4.9700
 0.3710	 4.9640
 0.3720	 4.8890
 0.3730	 4.8990
 0.3740	 4.9290
 0.3750	 4.9650
 0.3760	 4.9900
 0.3770	 4.9330
 0.3780	 4.9040
 0.3790	 4.9300
 0.3800	 4.9590
 0.3810	 4.9410
 0.3820	 4.9220
 0.3830	 4.9350
 0.3840	 4.9540
 0.3850	 4.9200
 0.3860	 4.9150
 0.3870	 5.0190
 0.3880	 4.9940
 0.3890	 4.9520
 0.3900	 4.9540
 0.3910	 4.9810
 0.3920	 4.9990
 0.3930	 5.0140
 0.3940	 5.0330
 0.3950	 5.0390
 0.3960	 5.0360
 0.3970	 5.0510
 0.3980	 5.1070
 0.3990	 5.1060
 0.4000	 5.0990
 0.4010	 5.1140
 0.4020	 5.1200
 0.4030	 5.1420
 0.4040	 5.1700
 0.4050	 5.1910
 0.4060	 5.1960
 0.4070	 5.1950
 0.4080	 5.2030
 0.4090	 5.2310
 0.4100	 5.2490
 0.4110	 5.2600
 0.4120	 5.2700
 0.4130	 5.2800
 0.4140	 5.2950
 0.4150	 5.3130
 0.4160	 5.3300
 0.4170	 5.3350
 0.4180	 5.3500
 0.4190	 5.3670
 0.4200	 5.3580
 0.4210	 5.3620
 0.4220	 5.3660
 0.4230	 5.3610
 0.4240	 5.3710
 0.4250	 5.3810
 0.4260	 5.3890
 0.4270	 5.3950
 0.4280	 5.3930
 0.4290	 5.3960
 0.4300	 5.4080
 0.4310	 5.4120
 0.4320	 5.4210
 0.4330	 5.4280
 0.4340	 5.4260
 0.4350	 5.4330
 0.4360	 5.4370
 0.4370	 5.4360
 0.4380	 5.4360
 0.4390	 5.4330
 0.4400	 5.4370
 0.4410	 5.4500
 0.4420	 5.4560
 0.4430	 5.4610
 0.4440	 5.4690
 0.4450	 5.4840
 0.4460	 5.4920
 0.4470	 5.4970
 0.4480	 5.5050
 0.4490	 5.5210
 0.4500	 5.5320
 0.4510	 5.5390
 0.4520	 5.5450
 0.4530	 5.5510
 0.4540	 5.5560
 0.4550	 5.5610
 0.4560	 5.5740
 0.4570	 5.5830
 0.4580	 5.5850
 0.4590	 5.5820
 0.4600	 5.5880
 0.4610	 5.5910
 0.4620	 5.5920
 0.4630	 5.5940
 0.4640	 5.6010
 0.4650	 5.6050
 0.4660	 5.6020
 0.4670	 5.5980
 0.4680	 5.6000
 0.4690	 5.6070
 0.4700	 5.6140
 0.4710	 5.6090
 0.4720	 5.6050
 0.4730	 5.6060
 0.4740	 5.6130
 0.4750	 5.6170
 0.4760	 5.6160
 0.4770	 5.6150
 0.4780	 5.6290
 0.4790	 5.6310
 0.4800	 5.6290
 0.4810	 5.6340
 0.4820	 5.6350
 0.4830	 5.6340
 0.4840	 5.6370
 0.4850	 5.6480
 0.4860	 5.6540
 0.4870	 5.6570
 0.4880	 5.6620
 0.4890	 5.6710
 0.4900	 5.6810
 0.4910	 5.6910
 0.4920	 5.7020
 0.4930	 5.7110
 0.4940	 5.7260
 0.4950	 5.7460
 0.4960	 5.7640
 0.4970	 5.7840
 0.4980	 5.8080
 0.4990	 5.8340
 0.5000	 5.8580
 0.5010	 5.8880
 0.5020	 5.9240
 0.5030	 5.9620
 0.5040	 6.0050
 0.5050	 6.0540
 0.5060	 6.1100
 0.5070	 6.1730
 0.5080	 6.2360
 0.5090	 6.3040
 0.5100	 6.3850
 0.5110	 6.4740
 0.5120	 6.5710
 0.5130	 6.6770
 0.5140	 6.7950
 0.5150	 6.9210
 0.5160	 7.0580
 0.5170	 7.2070
 0.5180	 7.3600
 0.5190	 7.5240
 0.5200	 7.6960
 0.5210	 7.8680
 0.5220	 8.0410
 0.5230	 8.2210
 0.5240	 8.4050
 0.5250	 8.5820
 0.5260	 8.7510
 0.5270	 8.9130
 0.5280	 9.0680
 0.5290	 9.2150
 0.5300	 9.3540
 0.5310	 9.4820
 0.5320	 9.5890
 0.5330	 9.6920
 0.5340	 9.7850
 0.5350	 9.8660
 0.5360	 9.9390
 0.5370	10.0030
 0.5380	10.0580
 0.5390	10.1130
 0.5400	10.1670
 0.5410	10.2230
 0.5420	10.2780
 0.5430	10.3230
 0.5440	10.3560
 0.5450	10.3800
 0.5460	10.3960
 0.5470	10.4000
 0.5480	10.4070
 0.5490	10.4210
 0.5500	10.4330
 0.5510	10.4400
 0.5520	10.4380
 0.5530	10.4240
 0.5540	10.3990
 0.5550	10.3630
 0.5560	10.3170
 0.5570	10.2610
 0.5580	10.1950
 0.5590	10.1200
 0.5600	10.0370
 0.5610	 9.9430
 0.5620	 9.8430
 0.5630	 9.7420
 0.5640	 9.6380
 0.5650	 9.5270
 0.5660	 9.4110
 0.5670	 9.2930
 0.5680	 9.1770
 0.5690	 9.0600
 0.5700	 8.9410
 0.5710	 8.8220
 0.5720	 8.7090
 0.5730	 8.6040
 0.5740	 8.5080
 0.5750	 8.4180
 0.5760	 8.3370
 0.5770	 8.2580
 0.5780	 8.1800
 0.5790	 8.1070
 0.5800	 8.0390
 0.5810	 7.9770
 0.5820	 7.9200
 0.5830	 7.8660
 0.5840	 7.8160
 0.5850	 7.7670
 0.5860	 7.7190
 0.5870	 7.6730
 0.5880	 7.6260
 0.5890	 7.5780
 0.5900	 7.5410
 0.5910	 7.5150
 0.5920	 7.4960
 0.5930	 7.4750
 0.5940	 7.4530
 0.5950	 7.4320
 0.5960	 7.4140
 0.5970	 7.3970
 0.5980	 7.3800
 0.5990	 7.3620
 0.6000	 7.3410
 0.6010	 7.3180
 0.6020	 7.2920
 0.6030	 7.2650
 0.6040	 7.2350
 0.6050	 7.2010
 0.6060	 7.1620
 0.6070	 7.1200
 0.6080	 7.0750
 0.6090	 7.0310
 0.6100	 6.9900
 0.6110	 6.9510
 0.6120	 6.9030
 0.6130	 6.8490
 0.6140	 6.7960
 0.6150	 6.7490
 0.6160	 6.7040
 0.6170	 6.6620
 0.6180	 6.6240
 0.6190	 6.5890
 0.6200	 6.5590
 0.6210	 6.5340
 0.6220	 6.5120
 0.6230	 6.4900
 0.6240	 6.4700
 0.6250	 6.4560
 0.6260	 6.4450
 0.6270	 6.4320
 0.6280	 6.4200
 0.6290	 6.4140
 0.6300	 6.4100
 0.6310	 6.4050
 0.6320	 6.3960
 0.6330	 6.3850
 0.6340	 6.3720
 0.6350	 6.3540
 0.6360	 6.3320
 0.6370	 6.3100
 0.6380	 6.2830
 0.6390	 6.2510
 0.6400	 6.2200
 0.6410	 6.1890
 0.6420	 6.1560
 0.6430	 6.1220
 0.6440	 6.0890
 0.6450	 6.0570
 0.6460	 6.0250
 0.6470	 5.9930
 0.6480	 5.9680
 0.6490	 5.9430
 0.6500	 5.9190
 0.6510	 5.9000
 0.6520	 5.8850
 0.6530	 5.8720
 0.6540	 5.8600
 0.6550	 5.8480
 0.6560	 5.8340
 0.6570	 5.8160
 0.6580	 5.7940
 0.6590	 5.7780
 0.6600	 5.7590
 0.6610	 5.7360
 0.6620	 5.7190
 0.6630	 5.7040
 0.6640	 5.6910
 0.6650	 5.6810
 0.6660	 5.6750
 0.6670	 5.6730
 0.6680	 5.6760
 0.6690	 5.6810
 0.6700	 5.6910
 0.6710	 5.7060
 0.6720	 5.7240
 0.6730	 5.7430
 0.6740	 5.7660
 0.6750	 5.7940
 0.6760	 5.8240
 0.6770	 5.8590
 0.6780	 5.8980
 0.6790	 5.9390
 0.6800	 5.9840
 0.6810	 6.0300
 0.6820	 6.0800
 0.6830	 6.1330
 0.6840	 6.1860
 0.6850	 6.2390
 0.6860	 6.2950
 0.6870	 6.3540
 0.6880	 6.4220
 0.6890	 6.5050
 0.6900	 6.6070
 0.6910	 6.7380
 0.6920	 6.8990
 0.6930	 7.1020
 0.6940	 7.3550
 0.6950	 7.6590
 0.6960	 8.0220
 0.6970	 8.4430
 0.6980	 8.9150
 0.6990	 9.4350
 0.7000	10.0010
 0.7010	10.6050
 0.7020	11.2400
 0.7030	11.8980
 0.7040	12.5730
 0.7050	13.2610
 0.7060	13.9570
 0.7070	14.6610
 0.7080	15.3670
 0.7090	16.0750
 0.7100	16.7840
 0.7110	17.4980
 0.7120	18.2140
 0.7130	18.9280
 0.7140	19.6380
 0.7150	20.3440
 0.7160	21.0450
 0.7170	21.7450
 0.7180	22.4350
 0.7190	23.1170
 0.7200	23.7890
 0.7210	24.4480
 0.7220	25.0920
 0.7230	25.7180
 0.7240	26.3280
 0.7250	26.9180
 0.7260	27.4870
 0.7270	28.0350
 0.7280	28.5580
 0.7290	29.0590
 0.7300	29.5390
 0.7310	29.9950
 0.7320	30.4250
 0.7330	30.8310
 0.7340	31.2160
 0.7350	31.5780
 0.7360	31.9210
 0.7370	32.2400
 0.7380	32.5360
 0.7390	32.8150
 0.7400	33.0750
 0.7410	33.3140
 0.7420	33.5350
 0.7430	33.7380
 0.7440	33.9240
 0.7450	34.0920
 0.7460	34.2450
 0.7470	34.3840
 0.7480	34.5120
 0.7490	34.6270
 0.7500	34.7250
 0.7510	34.8140
 0.7520	34.8960
 0.7530	34.9710
 0.7540	35.0360
 0.7550	35.0960
 0.7560	35.1490
 0.7570	35.1960
 0.7580	35.2360
 0.7590	35.2720
 0.7600	35.3060
 0.7610	35.3370
 0.7620	35.3610
 0.7630	35.3800
 0.7640	35.3980
 0.7650	35.4150
 0.7660	35.4290
 0.7670	35.4410
 0.7680	35.4490
 0.7690	35.4570
 0.7700	35.4630
 0.7710	35.4680
 0.7720	35.4720
 0.7730	35.4770
 0.7740	35.4820
 0.7750	35.4860
 0.7760	35.4900
 0.7770	35.4920
 0.7780	35.4940
 0.7790	35.4980
 0.7800	35.5020
 0.7810	35.5050
 0.7820	35.5080
 0.7830	35.5090
 0.7840	35.5080
 0.7850	35.5100
 0.7860	35.5130
 0.7870	35.5140
 0.7880	35.5160
 0.7890	35.5160
 0.7900	35.5150
 0.7910	35.5150
 0.7920	35.5150
 0.7930	35.5130
 0.7940	35.5110
 0.7950	35.5100
 0.7960	35.5080
 0.7970	35.5010
 0.7980	35.4950
 0.7990	35.4900
 0.8000	35.4860
 0.8010	35.4820
 0.8020	35.4770
 0.8030	35.4690
 0.8040	35.4630
 0.8050	35.4590
 0.8060	35.4520
 0.8070	35.4430
 0.8080	35.4340
 0.8090	35.4270
 0.8100	35.4200
 0.8110	35.4120
 0.8120	35.4030
 0.8130	35.3930
 0.8140	35.3820
 0.8150	35.3710
 0.8160	35.3610
 0.8170	35.3520
 0.8180	35.3450
 0.8190	35.3370
 0.8200	35.3250
 0.8210	35.3130
 0.8220	35.3030
 0.8230	35.2930
 0.8240	35.2810
 0.8250	35.2710
 0.8260	35.2610
 0.8270	35.2520
 0.8280	35.2460
 0.8290	35.2350
 0.8300	35.2230
 0.8310	35.2150
 0.8320	35.2020
 0.8330	35.1940
 0.8340	35.1880
 0.8350	35.1790
 0.8360	35.1720
 0.8370	35.1640
 0.8380	35.1570
 0.8390	35.1500
 0.8400	35.1450
 0.8410	35.1410
 0.8420	35.1380
 0.8430	35.1360
 0.8440	35.1310
 0.8450	35.1280
 0.8460	35.1280
 0.8470	35.1230
 0.8480	35.1190
 0.8490	35.1160
 0.8500	35.1110
 0.8510	35.1100
 0.8520	35.1060
 0.8530	35.1030
 0.8540	35.1040
 0.8550	35.1040
 0.8560	35.1020
 0.8570	35.1000
 0.8580	35.1040
 0.8590	35.1070
 0.8600	35.1110
 0.8610	35.1160
 0.8620	35.1200
 0.8630	35.1200
 0.8640	35.1180
 0.8650	35.1190
 0.8660	35.1220
 0.8670	35.1260
 0.8680	35.1300
 0.8690	35.1380
 0.8700	35.1430
 0.8710	35.1480
 0.8720	35.1520
 0.8730	35.1570
 0.8740	35.1610
 0.8750	35.1650
 0.8760	35.1700
 0.8770	35.1780
 0.8780	35.1850
 0.8790	35.1920
 0.8800	35.1970
 0.8810	35.1990
 0.8820	35.2050
 0.8830	35.2130
 0.8840	35.2200
 0.8850	35.2290
 0.8860	35.2360
 0.8870	35.2410
 0.8880	35.2450
 0.8890	35.2510
 0.8900	35.2590
 0.8910	35.2680
 0.8920	35.2740
 0.8930	35.2800
 0.8940	35.2840
 0.8950	35.2900
 0.8960	35.3000
 0.8970	35.3100
 0.8980	35.3160
 0.8990	35.3200
 0.9000	35.3290
 0.9010	35.3380
 0.9020	35.3450
 0.9030	35.3510
 0.9040	35.3580
 0.9050	35.3670
 0.9060	35.3730
 0.9070	35.3760
 0.9080	35.3810
 0.9090	35.3840
 0.9100	35.3860
 0.9110	35.3880
 0.9120	35.3920
 0.9130	35.4010
 0.9140	35.4080
 0.9150	35.4090
 0.9160	35.4080
 0.9170	35.4080
 0.9180	35.4070
 0.9190	35.4060
 0.9200	35.4060
 0.9210	35.4070
 0.9220	35.4060
 0.9230	35.4040
 0.9240	35.4060
 0.9250	35.4040
 0.9260	35.3970
 0.9270	35.3880
 0.9280	35.3770
 0.9290	35.3680
 0.9300	35.3620
 0.9310	35.3510
 0.9320	35.3370
 0.9330	35.3240
 0.9340	35.3120
 0.9350	35.3040
 0.9360	35.2910
 0.9370	35.2740
 0.9380	35.2580
 0.9390	35.2460
 0.9400	35.2330
 0.9410	35.2170
 0.9420	35.1960
 0.9430	35.1730
 0.9440	35.1600
 0.9450	35.1440
 0.9460	35.1160
 0.9470	35.0880
 0.9480	35.0650
 0.9490	35.0380
 0.9500	35.0010
 0.9510	34.9670
 0.9520	34.9330
 0.9530	34.8980
 0.9540	34.8600
 0.9550	34.8220
 0.9560	34.7930
 0.9570	34.7650
 0.9580	34.7300
 0.9590	34.7020
 0.9600	34.6790
 0.9610	34.6570
 0.9620	34.6290
 0.9630	34.6100
 0.9640	34.5970
 0.9650	34.5850
 0.9660	34.5720
 0.9670	34.5530
 0.9680	34.5400
 0.9690	34.5310
 0.9700	34.5220
 0.9710	34.5130
 0.9720	34.5060
 0.9730	34.5010
 0.9740	34.4980
 0.9750	34.4930
 0.9760	34.4960
 0.9770	34.4990
 0.9780	34.4950
 0.9790	34.4950
 0.9800	34.4910
 0.9810	34.4880
 0.9820	34.4930
 0.9830	34.4920
 0.9840	34.4910
 0.9850	34.4920
 0.9860	34.4970
 0.9870	34.5030
 0.9880	34.5090
 0.9890	34.5160
 0.9900	34.5220
 0.9910	34.5270
 0.9920	34.5340
 0.9930	34.5400
 0.9940	34.5440
 0.9950	34.5390
 0.9960	34.5440
 0.9970	34.5550
 0.9980	34.5630
 0.9990	34.5770
 1.0000	34.5910
 1.0010	35.5060
 1.0020	35.5180
 1.0030	35.5260
 1.0040	35.5340
 1.0050	35.5430
 1.0060	35.5510
 1.0070	35.5590
 1.0080	35.5670
 1.0090	35.5750
 1.0100	35.5840
 1.0110	35.5940
 1.0120	35.6030
 1.0130	35.6120
 1.0140	35.6210
 1.0150	35.6280
 1.0160	35.6380
 1.0170	35.6470
 1.0180	35.6520
 1.0190	35.6580
 1.0200	35.6650
 1.0210	35.6720
 1.0220	35.6810
 1.0230	35.6910
 1.0240	35.7030
 1.0250	35.7120
 1.0260	35.7190
 1.0270	35.7270
 1.0280	35.7320
 1.0290	35.7390
 1.0300	35.7480
 1.0310	35.7570
 1.0320	35.7660
 1.0330	35.7750
 1.0340	35.7820
 1.0350	35.7890
 1.0360	35.7950
 1.0370	35.8030
 1.0380	35.8100
 1.0390	35.8150
 1.0400	35.8220
 1.0410	35.8260
 1.0420	35.8330
 1.0430	35.8410
 1.0440	35.8490
 1.0450	35.8600
 1.0460	35.8660
 1.0470	35.8700
 1.0480	35.8740
 1.0490	35.8760
 1.0500	35.8790
 1.0510	35.8830
 1.0520	35.8880
 1.0530	35.8920
 1.0540	35.8960
 1.0550	35.8990
 1.0560	35.9030
 1.0570	35.9050
 1.0580	35.9050
 1.0590	35.9050
 1.0600	35.9040
 1.0610	35.9030
 1.0620	35.9030
 1.0630	35.9030
 1.0640	35.9020
 1.0650	35.9010
 1.0660	35.9030
 1.0670	35.9020
 1.0680	35.9000
 1.0690	35.8970
 1.0700	35.8950
 1.0710	35.8920
 1.0720	35.8900
 1.0730	35.8910
 1.0740	35.8890
 1.0750	35.8850
 1.0760	35.8820
 1.0770	35.8760
 1.0780	35.8740
 1.0790	35.8740
 1.0800	35.8720
 1.0810	35.8710
 1.0820	35.8680
 1.0830	35.8630
 1.0840	35.8580
 1.0850	35.8540
 1.0860	35.8490
 1.0870	35.8450
 1.0880	35.8420
 1.0890	35.8380
 1.0900	35.8350
 1.0910	35.8290
 1.0920	35.8220
 1.0930	35.8160
 1.0940	35.8080
 1.0950	35.8030
 1.0960	35.8010
 1.0970	35.7960
 1.0980	35.7890
 1.0990	35.7840
 1.1000	35.7810
 1.1010	35.7760
 1.1020	35.7710
 1.1030	35.7680
 1.1040	35.7600
 1.1050	35.7500
 1.1060	35.7420
 1.1070	35.7340
 1.1080	35.7270
 1.1090	35.7230
 1.1100	35.7170
 1.1110	35.7120
 1.1120	35.7050
 1.1130	35.6960
 1.1140	35.6880
 1.1150	35.6790
 1.1160	35.6700
 1.1170	35.6620
 1.1180	35.6510
 1.1190	35.6410
 1.1200	35.6280
 1.1210	35.6120
 1.1220	35.5960
 1.1230	35.5780
 1.1240	35.5560
 1.1250	35.5330
 1.1260	35.5090
 1.1270	35.4810
 1.1280	35.4500
 1.1290	35.4150
 1.1300	35.3760
 1.1310	35.3320
 1.1320	35.2830
 1.1330	35.2320
 1.1340	35.1770
 1.1350	35.1180
 1.1360	35.0560
 1.1370	34.9910
 1.1380	34.9200
 1.1390	34.8480
 1.1400	34.7730
 1.1410	34.6950
 1.1420	34.6150
 1.1430	34.5340
 1.1440	34.4540
 1.1450	34.3720
 1.1460	34.2940
 1.1470	34.2160
 1.1480	34.1420
 1.1490	34.0700
 1.1500	34.0030
 1.1510	33.9390
 1.1520	33.8800
 1.1530	33.8240
 1.1540	33.7730
 1.1550	33.7270
 1.1560	33.6850
 1.1570	33.6470
 1.1580	33.6150
 1.1590	33.5860
 1.1600	33.5590
 1.1610	33.5340
 1.1620	33.5120
 1.1630	33.4920
 1.1640	33.4740
 1.1650	33.4590
 1.1660	33.4470
 1.1670	33.4350
 1.1680	33.4260
 1.1690	33.4170
 1.1700	33.4070
 1.1710	33.3990
 1.1720	33.3930
 1.1730	33.3860
 1.1740	33.3780
 1.1750	33.3730
 1.1760	33.3650
 1.1770	33.3570
 1.1780	33.3500
 1.1790	33.3420
 1.1800	33.3330
 1.1810	33.3250
 1.1820	33.3180
 1.1830	33.3090
 1.1840	33.3000
 1.1850	33.2920
 1.1860	33.2840
 1.1870	33.2760
 1.1880	33.2680
 1.1890	33.2600
 1.1900	33.2530
 1.1910	33.2450
 1.1920	33.2390
 1.1930	33.2360
 1.1940	33.2320
 1.1950	33.2280
 1.1960	33.2250
 1.1970	33.2220
 1.1980	33.2200
 1.1990	33.2210
 1.2000	33.2230
 1.2010	33.2260
 1.2020	33.2300
 1.2030	33.2340
 1.2040	33.2380
 1.2050	33.2440
 1.2060	33.2510
 1.2070	33.2590
 1.2080	33.2670
 1.2090	33.2750
 1.2100	33.2840
 1.2110	33.2930
 1.2120	33.3010
 1.2130	33.3110
 1.2140	33.3200
 1.2150	33.3310
 1.2160	33.3420
 1.2170	33.3550
 1.2180	33.3670
 1.2190	33.3790
 1.2200	33.3910
 1.2210	33.4010
 1.2220	33.4110
 1.2230	33.4220
 1.2240	33.4320
 1.2250	33.4430
 1.2260	33.4550
 1.2270	33.4670
 1.2280	33.4770
 1.2290	33.4880
 1.2300	33.4980
 1.2310	33.5060
 1.2320	33.5160
 1.2330	33.5260
 1.2340	33.5340
 1.2350	33.5420
 1.2360	33.5500
 1.2370	33.5590
 1.2380	33.5660
 1.2390	33.5740
 1.2400	33.5810
 1.2410	33.5870
 1.2420	33.5920
 1.2430	33.5980
 1.2440	33.6040
 1.2450	33.6100
 1.2460	33.6170
 1.2470	33.6220
 1.2480	33.6260
 1.2490	33.6310
 1.2500	33.6350
 1.2510	33.6380
 1.2520	33.6420
 1.2530	33.6440
 1.2540	33.6470
 1.2550	33.6490
 1.2560	33.6500
 1.2570	33.6520
 1.2580	33.6540
 1.2590	33.6550
 1.2600	33.6560
 1.2610	33.6550
 1.2620	33.6520
 1.2630	33.6500
 1.2640	33.6460
 1.2650	33.6430
 1.2660	33.6400
 1.2670	33.6370
 1.2680	33.6320
 1.2690	33.6280
 1.2700	33.6230
 1.2710	33.6170
 1.2720	33.6100
 1.2730	33.6040
 1.2740	33.5970
 1.2750	33.5880
 1.2760	33.5790
 1.2770	33.5700
 1.2780	33.5580
 1.2790	33.5470
 1.2800	33.5350
 1.2810	33.5200
 1.2820	33.5050
 1.2830	33.4890
 1.2840	33.4720
 1.2850	33.4560
 1.2860	33.4380
 1.2870	33.4180
 1.2880	33.3980
 1.2890	33.3760
 1.2900	33.3510
 1.2910	33.3240
 1.2920	33.2970
 1.2930	33.2700
 1.2940	33.2400
 1.2950	33.2100
 1.2960	33.1760
 1.2970	33.1410
 1.2980	33.1060
 1.2990	33.0700
 1.3000	33.0340
 1.3010	32.9950
 1.3020	32.9540
 1.3030	32.9130
 1.3040	32.8710
 1.3050	32.8290
 1.3060	32.7860
 1.3070	32.7410
 1.3080	32.6960
 1.3090	32.6490
 1.3100	32.5990
 1.3110	32.5490
 1.3120	32.4960
 1.3130	32.4430
 1.3140	32.3880
 1.3150	32.3320
 1.3160	32.2740
 1.3170	32.2150
 1.3180	32.1550
 1.3190	32.0930
 1.3200	32.0290
 1.3210	31.9670
 1.3220	31.9020
 1.3230	31.8350
 1.3240	31.7680
 1.3250	31.6990
 1.3260	31.6270
 1.3270	31.5530
 1.3280	31.4780
 1.3290	31.4030
 1.3300	31.3270
 1.3310	31.2500
 1.3320	31.1730
 1.3330	31.0940
 1.3340	31.0140
 1.3350	30.9340
 1.3360	30.8530
 1.3370	30.7720
 1.3380	30.6910
 1.3390	30.6120
 1.3400	30.5330
 1.3410	30.4550
 1.3420	30.3770
 1.3430	30.2980
 1.3440	30.2200
 1.3450	30.1420
 1.3460	30.0650
 1.3470	29.9890
 1.3480	29.9130
 1.3490	29.8380
 1.3500	29.7640
 1.3510	29.6890
 1.3520	29.6140
 1.3530	29.5400
 1.3540	29.4650
 1.3550	29.3900
 1.3560	29.3140
 1.3570	29.2370
 1.3580	29.1590
 1.3590	29.0790
 1.3600	28.9970
 1.3610	28.9130
 1.3620	28.8250
 1.3630	28.7330
 1.3640	28.6370
 1.3650	28.5350
 1.3660	28.4290
 1.3670	28.3170
 1.3680	28.1970
 1.3690	28.0700
 1.3700	27.9340
 1.3710	27.7890
 1.3720	27.6330
 1.3730	27.4640
 1.3740	27.2850
 1.3750	27.0920
 1.3760	26.8830
 1.3770	26.6590
 1.3780	26.4160
 1.3790	26.1580
 1.3800	25.8830
 1.3810	25.5870
 1.3820	25.2780
 1.3830	24.9540
 1.3840	24.6140
 1.3850	24.2600
 1.3860	23.8940
 1.3870	23.5110
 1.3880	23.1240
 1.3890	22.7270
 1.3900	22.3210
 1.3910	21.9130
 1.3920	21.5000
 1.3930	21.0820
 1.3940	20.6670
 1.3950	20.2480
 1.3960	19.8350
 1.3970	19.4310
 1.3980	19.0340
 1.3990	18.6500
 1.4000	18.2780
 1.4010	17.9130
 1.4020	17.5660
 1.4030	17.2300
 1.4040	16.9090
 1.4050	16.6060
 1.4060	16.3170
 1.4070	16.0470
 1.4080	15.7910
 1.4090	15.5510
 1.4100	15.3260
 1.4110	15.1150
 1.4120	14.9180
 1.4130	14.7360
 1.4140	14.5660
 1.4150	14.4110
 1.4160	14.2680
 1.4170	14.1340
 1.4180	14.0120
 1.4190	13.8970
 1.4200	13.7920
 1.4210	13.6970
 1.4220	13.6090
 1.4230	13.5290
 1.4240	13.4550
 1.4250	13.3870
 1.4260	13.3250
 1.4270	13.2680
 1.4280	13.2170
 1.4290	13.1700
 1.4300	13.1290
 1.4310	13.0920
 1.4320	13.0610
 1.4330	13.0320
 1.4340	13.0080
 1.4350	12.9860
 1.4360	12.9670
 1.4370	12.9520
 1.4380	12.9390
 1.4390	12.9300
 1.4400	12.9230
 1.4410	12.9180
 1.4420	12.9170
 1.4430	12.9170
 1.4440	12.9180
 1.4450	12.9210
 1.4460	12.9250
 1.4470	12.9300
 1.4480	12.9370
 1.4490	12.9460
 1.4500	12.9550
 1.4510	12.9650
 1.4520	12.9780
 1.4530	12.9910
 1.4540	13.0070
 1.4550	13.0250
 1.4560	13.0440
 1.4570	13.0660
 1.4580	13.0900
 1.4590	13.1160
 1.4600	13.1450
 1.4610	13.1770
 1.4620	13.2120
 1.4630	13.2520
 1.4640	13.2940
 1.4650	13.3400
 1.4660	13.3910
 1.4670	13.4440
 1.4680	13.5010
 1.4690	13.5610
 1.4700	13.6250
 1.4710	13.6930
 1.4720	13.7630
 1.4730	13.8350
 1.4740	13.9100
 1.4750	13.9870
 1.4760	14.0680
 1.4770	14.1510
 1.4780	14.2350
 1.4790	14.3210
 1.4800	14.4080
 1.4810	14.4960
 1.4820	14.5860
 1.4830	14.6770
 1.4840	14.7700
 1.4850	14.8630
 1.4860	14.9570
 1.4870	15.0520
 1.4880	15.1470
 1.4890	15.2420
 1.4900	15.3390
 1.4910	15.4360
 1.4920	15.5340
 1.4930	15.6320
 1.4940	15.7310
 1.4950	15.8290
 1.4960	15.9280
 1.4970	16.0270
 1.4980	16.1260
 1.4990	16.2250
 1.5000	16.3250
 1.5010	16.4260
 1.5020	16.5270
 1.5030	16.6280
 1.5040	16.7280
 1.5050	16.8260
 1.5060	16.9260
 1.5070	17.0260
 1.5080	17.1260
 1.5090	17.2260
 1.5100	17.3260
 1.5110	17.4250
 1.5120	17.5240
 1.5130	17.6220
 1.5140	17.7190
 1.5150	17.8170
 1.5160	17.9150
 1.5170	18.0120
 1.5180	18.1080
 1.5190	18.2030
 1.5200	18.2990
 1.5210	18.3930
 1.5220	18.4870
 1.5230	18.5800
 1.5240	18.6730
 1.5250	18.7660
 1.5260	18.8580
 1.5270	18.9490
 1.5280	19.0400
 1.5290	19.1290
 1.5300	19.2180
 1.5310	19.3070
 1.5320	19.3940
 1.5330	19.4810
 1.5340	19.5660
 1.5350	19.6510
 1.5360	19.7370
 1.5370	19.8200
 1.5380	19.9030
 1.5390	19.9850
 1.5400	20.0660
 1.5410	20.1470
 1.5420	20.2270
 1.5430	20.3070
 1.5440	20.3850
 1.5450	20.4630
 1.5460	20.5400
 1.5470	20.6160
 1.5480	20.6900
 1.5490	20.7660
 1.5500	20.8390
 1.5510	20.9110
 1.5520	20.9840
 1.5530	21.0550
 1.5540	21.1250
 1.5550	21.1960
 1.5560	21.2640
 1.5570	21.3330
 1.5580	21.4010
 1.5590	21.4670
 1.5600	21.5330
 1.5610	21.5970
 1.5620	21.6610
 1.5630	21.7240
 1.5640	21.7870
 1.5650	21.8480
 1.5660	21.9080
 1.5670	21.9690
 1.5680	22.0290
 1.5690	22.0880
 1.5700	22.1460
 1.5710	22.2050
 1.5720	22.2600
 1.5730	22.3160
 1.5740	22.3720
 1.5750	22.4250
 1.5760	22.4790
 1.5770	22.5320
 1.5780	22.5840
 1.5790	22.6370
 1.5800	22.6880
 1.5810	22.7400
 1.5820	22.7900
 1.5830	22.8390
 1.5840	22.8880
 1.5850	22.9360
 1.5860	22.9850
 1.5870	23.0330
 1.5880	23.0800
 1.5890	23.1270
 1.5900	23.1730
 1.5910	23.2190
 1.5920	23.2650
 1.5930	23.3100
 1.5940	23.3550
 1.5950	23.3980
 1.5960	23.4410
 1.5970	23.4850
 1.5980	23.5250
 1.5990	23.5650
 1.6000	23.6060
 1.6010	23.6460
 1.6020	23.6860
 1.6030	23.7260
 1.6040	23.7650
 1.6050	23.8010
 1.6060	23.8390
 1.6070	23.8750
 1.6080	23.9110
 1.6090	23.9470
 1.6100	23.9820
 1.6110	24.0170
 1.6120	24.0520
 1.6130	24.0860
 1.6140	24.1190
 1.6150	24.1520
 1.6160	24.1840
 1.6170	24.2150
 1.6180	24.2450
 1.6190	24.2740
 1.6200	24.3020
 1.6210	24.3310
 1.6220	24.3590
 1.6230	24.3870
 1.6240	24.4150
 1.6250	24.4420
 1.6260	24.4690
 1.6270	24.4960
 1.6280	24.5220
 1.6290	24.5470
 1.6300	24.5710
 1.6310	24.5940
 1.6320	24.6160
 1.6330	24.6380
 1.6340	24.6610
 1.6350	24.6820
 1.6360	24.7010
 1.6370	24.7200
 1.6380	24.7380
 1.6390	24.7560
 1.6400	24.7750
 1.6410	24.7930
 1.6420	24.8100
 1.6430	24.8270
 1.6440	24.8420
 1.6450	24.8550
 1.6460	24.8690
 1.6470	24.8820
 1.6480	24.8930
 1.6490	24.9050
 1.6500	24.9170
 1.6510	24.9270
 1.6520	24.9350
 1.6530	24.9420
 1.6540	24.9470
 1.6550	24.9520
 1.6560	24.9570
 1.6570	24.9610
 1.6580	24.9640
 1.6590	24.9670
 1.6600	24.9690
 1.6610	24.9700
 1.6620	24.9710
 1.6630	24.9710
 1.6640	24.9690
 1.6650	24.9680
 1.6660	24.9660
 1.6670	24.9630
 1.6680	24.9600
 1.6690	24.9550
 1.6700	24.9500
 1.6710	24.9430
 1.6720	24.9340
 1.6730	24.9240
 1.6740	24.9130
 1.6750	24.8990
 1.6760	24.8850
 1.6770	24.8710
 1.6780	24.8550
 1.6790	24.8380
 1.6800	24.8190
 1.6810	24.7980
 1.6820	24.7760
 1.6830	24.7540
 1.6840	24.7310
 1.6850	24.7060
 1.6860	24.6790
 1.6870	24.6510
 1.6880	24.6220
 1.6890	24.5920
 1.6900	24.5630
 1.6910	24.5330
 1.6920	24.5030
 1.6930	24.4730
 1.6940	24.4440
 1.6950	24.4150
 1.6960	24.3860
 1.6970	24.3570
 1.6980	24.3270
 1.6990	24.2970
 1.7000	24.2680
 1.7010	24.2390
 1.7020	24.2070
 1.7030	24.1740
 1.7040	24.1420
 1.7050	24.1090
 1.7060	24.0750
 1.7070	24.0410
 1.7080	24.0060
 1.7090	23.9690
 1.7100	23.9330
 1.7110	23.8970
 1.7120	23.8620
 1.7130	23.8260
 1.7140	23.7920
 1.7150	23.7600
 1.7160	23.7280
 1.7170	23.6970
 1.7180	23.6660
 1.7190	23.6350
 1.7200	23.6040
 1.7210	23.5740
 1.7220	23.5450
 1.7230	23.5150
 1.7240	23.4860
 1.7250	23.4560
 1.7260	23.4260
 1.7270	23.3960
 1.7280	23.3650
 1.7290	23.3360
 1.7300	23.3080
 1.7310	23.2790
 1.7320	23.2490
 1.7330	23.2200
 1.7340	23.1910
 1.7350	23.1610
 1.7360	23.1340
 1.7370	23.1030
 1.7380	23.0710
 1.7390	23.0380
 1.7400	23.0030
 1.7410	22.9670
 1.7420	22.9310
 1.7430	22.8920
 1.7440	22.8500
 1.7450	22.8080
 1.7460	22.7630
 1.7470	22.7190
 1.7480	22.6760
 1.7490	22.6310
 1.7500	22.5840
 1.7510	22.5390
 1.7520	22.4930
 1.7530	22.4460
 1.7540	22.4000
 1.7550	22.3540
 1.7560	22.3070
 1.7570	22.2610
 1.7580	22.2160
 1.7590	22.1720
 1.7600	22.1290
 1.7610	22.0890
 1.7620	22.0480
 1.7630	22.0070
 1.7640	21.9690
 1.7650	21.9320
 1.7660	21.8960
 1.7670	21.8630
 1.7680	21.8290
 1.7690	21.7950
 1.7700	21.7620
 1.7710	21.7290
 1.7720	21.6980
 1.7730	21.6680
 1.7740	21.6390
 1.7750	21.6120
 1.7760	21.5850
 1.7770	21.5610
 1.7780	21.5380
 1.7790	21.5160
 1.7800	21.4960
 1.7810	21.4760
 1.7820	21.4600
 1.7830	21.4450
 1.7840	21.4340
 1.7850	21.4260
 1.7860	21.4170
 1.7870	21.4090
 1.7880	21.4030
 1.7890	21.3970
 1.7900	21.3940
 1.7910	21.3910
 1.7920	21.3880
 1.7930	21.3870
 1.7940	21.3840
 1.7950	21.3840
 1.7960	21.3860
 1.7970	21.3870
 1.7980	21.3900
 1.7990	21.3930
 1.8000	21.3970
 1.8010	21.4010
 1.8020	21.4040
 1.8030	21.4080
 1.8040	21.4130
 1.8050	21.4180
 1.8060	21.4250
 1.8070	21.4300
 1.8080	21.4320
 1.8090	21.4350
 1.8100	21.4370
 1.8110	21.4410
 1.8120	21.4440
 1.8130	21.4460
 1.8140	21.4480
 1.8150	21.4460
 1.8160	21.4440
 1.8170	21.4420
 1.8180	21.4400
 1.8190	21.4400
 1.8200	21.4380
 1.8210	21.4340
 1.8220	21.4300
 1.8230	21.4230
 1.8240	21.4170
 1.8250	21.4110
 1.8260	21.4020
 1.8270	21.3940
 1.8280	21.3810
 1.8290	21.3630
 1.8300	21.3460
 1.8310	20.7520
 1.8320	20.7290
 1.8330	20.7030
 1.8340	20.6750
 1.8350	20.6460
 1.8360	20.6130
 1.8370	20.5750
 1.8380	20.5330
 1.8390	20.4880
 1.8400	20.4410
 1.8410	20.3880
 1.8420	20.3320
 1.8430	20.2700
 1.8440	20.2030
 1.8450	20.1310
 1.8460	20.0510
 1.8470	19.9660
 1.8480	19.8760
 1.8490	19.7770
 1.8500	19.6710
 1.8510	19.5600
 1.8520	19.4400
 1.8530	19.3100
 1.8540	19.1740
 1.8550	19.0260
 1.8560	18.8690
 1.8570	18.7030
 1.8580	18.5220
 1.8590	18.3330
 1.8600	18.1320
 1.8610	17.9230
 1.8620	17.6970
 1.8630	17.4650
 1.8640	17.2230
 1.8650	16.9620
 1.8660	16.6900
 1.8670	16.4030
 1.8680	16.1030
 1.8690	15.7890
 1.8700	15.4620
 1.8710	15.1210
 1.8720	14.7700
 1.8730	14.4090
 1.8740	14.0420
 1.8750	13.6740
 1.8760	13.3000
 1.8770	12.9220
 1.8780	12.5460
 1.8790	12.1670
 1.8800	11.7950
 1.8810	11.4250
 1.8820	11.0610
 1.8830	10.6990
 1.8840	10.3440
 1.8850	 9.9950
 1.8860	 9.6550
 1.8870	 9.3290
 1.8880	 9.0130
 1.8890	 8.7140
 1.8900	 8.4340
 1.8910	 8.1660
 1.8920	 7.9110
 1.8930	 7.6760
 1.8940	 7.4570
 1.8950	 7.2510
 1.8960	 7.0650
 1.8970	 6.8930
 1.8980	 6.7370
 1.8990	 6.5970
 1.9000	 6.4670
 1.9010	 6.3540
 1.9020	 6.2500
 1.9030	 6.1600
 1.9040	 6.0780
 1.9050	 6.0060
 1.9060	 5.9430
 1.9070	 5.8880
 1.9080	 5.8390
 1.9090	 5.7960
 1.9100	 5.7590
 1.9110	 5.7260
 1.9120	 5.6960
 1.9130	 5.6690
 1.9140	 5.6470
 1.9150	 5.6270
 1.9160	 5.6110
 1.9170	 5.5970
 1.9180	 5.5850
 1.9190	 5.5740
 1.9200	 5.5670
 1.9210	 5.5610
 1.9220	 5.5550
 1.9230	 5.5520
 1.9240	 5.5480
 1.9250	 5.5440
 1.9260	 5.5390
 1.9270	 5.5370
 1.9280	 5.5390
 1.9290	 5.5400
 1.9300	 5.5440
 1.9310	 5.5500
 1.9320	 5.5540
 1.9330	 5.5590
 1.9340	 5.5650
 1.9350	 5.5710
 1.9360	 5.5770
 1.9370	 5.5860
 1.9380	 5.5960
 1.9390	 5.6080
 1.9400	 5.6170
 1.9410	 5.6290
 1.9420	 5.6400
 1.9430	 5.6490
 1.9440	 5.6630
 1.9450	 5.6800
 1.9460	 5.6950
 1.9470	 5.7120
 1.9480	 5.7300
 1.9490	 5.7470
 1.9500	 5.7640
 1.9510	 5.7820
 1.9520	 5.8030
 1.9530	 5.8220
 1.9540	 5.8410
 1.9550	 5.8610
 1.9560	 5.8820
 1.9570	 5.9030
 1.9580	 5.9260
 1.9590	 5.9490
 1.9600	 5.9740
 1.9610	 5.9980
 1.9620	 6.0230
 1.9630	 6.0490
 1.9640	 6.0740
 1.9650	 6.1000
 1.9660	 6.1270
 1.9670	 6.1550
 1.9680	 6.1840
 1.9690	 6.2140
 1.9700	 6.2450
 1.9710	 6.2780
 1.9720	 6.3110
 1.9730	 6.3450
 1.9740	 6.3780
 1.9750	 6.4100
 1.9760	 6.4440
 1.9770	 6.4790
 1.9780	 6.5150
 1.9790	 6.5510
 1.9800	 6.5880
 1.9810	 6.6260
 1.9820	 6.6630
 1.9830	 6.7020
 1.9840	 6.7420
 1.9850	 6.7820
 1.9860	 6.8210
 1.9870	 6.8610
 1.9880	 6.9020
 1.9890	 6.9440
 1.9900	 6.9870
 1.9910	 7.0300
 1.9920	 7.0720
 1.9930	 7.1130
 1.9940	 7.1560
 1.9950	 7.1980
 1.9960	 7.2420
 1.9970	 7.2890
 1.9980	 7.3340
 1.9990	 7.3800
 2.0000	 7.4270
 2.0010	 7.4730
 2.0020	 7.5190
 2.0030	 7.5650
 2.0040	 7.6110
 2.0050	 7.6580
 2.0060	 7.7040
 2.0070	 7.7520
 2.0080	 7.8020
 2.0090	 7.8500
 2.0100	 7.8970
 2.0110	 7.9450
 2.0120	 7.9940
 2.0130	 8.0420
 2.0140	 8.0920
 2.0150	 8.1420
 2.0160	 8.1920
 2.0170	 8.2410
 2.0180	 8.2900
 2.0190	 8.3390
 2.0200	 8.3870
 2.0210	 8.4330
 2.0220	 8.4810
 2.0230	 8.5270
 2.0240	 8.5740
 2.0250	 8.6220
 2.0260	 8.6700
 2.0270	 8.7180
 2.0280	 8.7650
 2.0290	 8.8110
 2.0300	 8.8560
 2.0310	 8.9020
 2.0320	 8.9460
 2.0330	 8.9920
 2.0340	 9.0410
 2.0350	 9.0870
 2.0360	 9.1330
 2.0370	 9.1780
 2.0380	 9.2210
 2.0390	 9.2640
 2.0400	 9.3080
 2.0410	 9.3500
 2.0420	 9.3920
 2.0430	 9.4340
 2.0440	 9.4750
 2.0450	 9.5150
 2.0460	 9.5560
 2.0470	 9.5990
 2.0480	 9.6400
 2.0490	 9.6800
 2.0500	 9.7220
 2.0510	 9.7620
 2.0520	 9.8050
 2.0530	 9.8500
 2.0540	 9.8930
 2.0550	 9.9370
 2.0560	 9.9810
 2.0570	10.0240
 2.0580	10.0670
 2.0590	10.1110
 2.0600	10.1560
 2.0610	10.2000
 2.0620	10.2460
 2.0630	10.2900
 2.0640	10.3340
 2.0650	10.3790
 2.0660	10.4240
 2.0670	10.4700
 2.0680	10.5180
 2.0690	10.5640
 2.0700	10.6090
 2.0710	10.6550
 2.0720	10.7010
 2.0730	10.7460
 2.0740	10.7900
 2.0750	10.8350
 2.0760	10.8800
 2.0770	10.9260
 2.0780	10.9710
 2.0790	11.0180
 2.0800	11.0630
 2.0810	11.1090
 2.0820	11.1530
 2.0830	11.1960
 2.0840	11.2390
 2.0850	11.2810
 2.0860	11.3240
 2.0870	11.3700
 2.0880	11.4150
 2.0890	11.4590
 2.0900	11.5040
 2.0910	11.5480
 2.0920	11.5930
 2.0930	11.6370
 2.0940	11.6810
 2.0950	11.7240
 2.0960	11.7660
 2.0970	11.8080
 2.0980	11.8480
 2.0990	11.8900
 2.1000	11.9310
 2.1010	11.9740
 2.1020	12.0180
 2.1030	12.0600
 2.1040	12.1010
 2.1050	12.1430
 2.1060	12.1850
 2.1070	12.2240
 2.1080	12.2670
 2.1090	12.3120
 2.1100	12.3550
 2.1110	12.3990
 2.1120	12.4400
 2.1130	12.4800
 2.1140	12.5190
 2.1150	12.5580
 2.1160	12.5970
 2.1170	12.6360
 2.1180	12.6740
 2.1190	12.7110
 2.1200	12.7480
 2.1210	12.7840
 2.1220	12.8210
 2.1230	12.8570
 2.1240	12.8930
 2.1250	12.9280
 2.1260	12.9640
 2.1270	12.9980
 2.1280	13.0340
 2.1290	13.0670
 2.1300	13.0960
 2.1310	13.1260
 2.1320	13.1540
 2.1330	13.1840
 2.1340	13.2180
 2.1350	13.2480
 2.1360	13.2780
 2.1370	13.3050
 2.1380	13.3290
 2.1390	13.3540
 2.1400	13.3770
 2.1410	13.4040
 2.1420	13.4300
 2.1430	13.4570
 2.1440	13.4810
 2.1450	13.5050
 2.1460	13.5270
 2.1470	13.5460
 2.1480	13.5670
 2.1490	13.5890
 2.1500	13.6080
 2.1510	13.6250
 2.1520	13.6440
 2.1530	13.6640
 2.1540	13.6820
 2.1550	13.7010
 2.1560	13.7180
 2.1570	13.7330
 2.1580	13.7480
 2.1590	13.7630
 2.1600	13.7800
 2.1610	13.7930
 2.1620	13.8060
 2.1630	13.8190
 2.1640	13.8320
 2.1650	13.8440
 2.1660	13.8550
 2.1670	13.8680
 2.1680	13.8800
 2.1690	13.8940
 2.1700	13.9130
 2.1710	13.9270
 2.1720	13.9390
 2.1730	13.9530
 2.1740	13.9670
 2.1750	13.9790
 2.1760	13.9910
 2.1770	14.0040
 2.1780	14.0150
 2.1790	14.0280
 2.1800	14.0430
 2.1810	14.0570
 2.1820	14.0700
 2.1830	14.0830
 2.1840	14.0980
 2.1850	14.1120
 2.1860	14.1280
 2.1870	14.1470
 2.1880	14.1630
 2.1890	14.1790
 2.1900	14.1930
 2.1910	14.2060
 2.1920	14.2190
 2.1930	14.2300
 2.1940	14.2410
 2.1950	14.2520
 2.1960	14.2630
 2.1970	14.2750
 2.1980	14.2860
 2.1990	14.2950
 2.2000	14.3050
 2.2010	14.3130
 2.2020	14.3220
 2.2030	14.3320
 2.2040	14.3390
 2.2050	14.3430
 2.2060	14.3460
 2.2070	14.3510
 2.2080	14.3540
 2.2090	14.3570
 2.2100	14.3620
 2.2110	14.3640
 2.2120	14.3630
 2.2130	14.3630
 2.2140	14.3630
 2.2150	14.3630
 2.2160	14.3640
 2.2170	14.3620
 2.2180	14.3590
 2.2190	14.3570
 2.2200	14.3530
 2.2210	14.3490
 2.2220	14.3470
 2.2230	14.3410
 2.2240	14.3330
 2.2250	14.3250
 2.2260	14.3170
 2.2270	14.3070
 2.2280	14.2970
 2.2290	14.2810
 2.2300	14.2600
 2.2310	14.2360
 2.2320	14.2090
 2.2330	14.1810
 2.2340	14.1560
 2.2350	14.1320
 2.2360	14.1050
 2.2370	14.0790
 2.2380	14.0480
 2.2390	14.0120
 2.2400	13.9780
 2.2410	13.9440
 2.2420	13.9080
 2.2430	13.8700
 2.2440	13.8370
 2.2450	13.8050
 2.2460	13.7730
 2.2470	13.7450
 2.2480	13.7140
 2.2490	13.6770
 2.2500	13.6450
 2.2510	13.6160
 2.2520	13.5840
 2.2530	13.5510
 2.2540	13.5170
 2.2550	13.4770
 2.2560	13.4400
 2.2570	13.4010
 2.2580	13.3630
 2.2590	13.3260
 2.2600	13.2880
 2.2610	13.2520
 2.2620	13.2140
 2.2630	13.1750
 2.2640	13.1330
 2.2650	13.0900
 2.2660	13.0460
 2.2670	13.0020
 2.2680	12.9570
 2.2690	12.9140
 2.2700	12.8730
 2.2710	12.8290
 2.2720	12.7850
 2.2730	12.7450
 2.2740	12.7070
 2.2750	12.6680
 2.2760	12.6330
 2.2770	12.5940
 2.2780	12.5500
 2.2790	12.5120
 2.2800	12.4770
 2.2810	12.4400
 2.2820	12.4060
 2.2830	12.3700
 2.2840	12.3320
 2.2850	12.2950
 2.2860	12.2580
 2.2870	12.2210
 2.2880	12.1810
 2.2890	12.1450
 2.2900	12.1150
 2.2910	12.0800
 2.2920	12.0430
 2.2930	12.0070
 2.2940	11.9670
 2.2950	11.9260
 2.2960	11.8840
 2.2970	11.8430
 2.2980	11.8000
 2.2990	11.7540
 2.3000	11.7120
 2.3010	11.6730
 2.3020	11.6310
 2.3030	11.5920
 2.3040	11.5570
 2.3050	11.5210
 2.3060	11.4890
 2.3070	11.4620
 2.3080	11.4330
 2.3090	11.4070
 2.3100	11.3810
 2.3110	11.3530
 2.3120	11.3280
 2.3130	11.3070
 2.3140	11.2850
 2.3150	11.2640
 2.3160	11.2440
 2.3170	11.2220
 2.3180	11.2030
 2.3190	11.1850
 2.3200	11.1640
 2.3210	11.1410
 2.3220	11.1180
 2.3230	11.0930
 2.3240	11.0690
 2.3250	11.0470
 2.3260	11.0220
 2.3270	10.9950
 2.3280	10.9670
 2.3290	10.9350
 2.3300	10.9070
 2.3310	10.8790
 2.3320	10.8500
 2.3330	10.8230
 2.3340	10.7910
 2.3350	10.7540
 2.3360	10.7200
 2.3370	10.6820
 2.3380	10.6490
 2.3390	10.6210
 2.3400	10.5880
 2.3410	10.5550
 2.3420	10.5200
 2.3430	10.4790
 2.3440	10.4430
 2.3450	10.4110
 2.3460	10.3790
 2.3470	10.3490
 2.3480	10.3200
 2.3490	10.2950
 2.3500	10.2660
 2.3510	10.2370
 2.3520	10.2070
 2.3530	10.1750
 2.3540	10.1410
 2.3550	10.1100
 2.3560	10.0850
 2.3570	10.0600
 2.3580	10.0380
 2.3590	10.0120
 2.3600	 9.9860
 2.3610	 9.9540
 2.3620	 9.9210
 2.3630	 9.8950
 2.3640	 9.8620
 2.3650	 9.8320
 2.3660	 9.8090
 2.3670	 9.7820
 2.3680	 9.7570
 2.3690	 9.7310
 2.3700	 9.7010
 2.3710	 9.6690
 2.3720	 9.6340
 2.3730	 9.6000
 2.3740	 9.5660
 2.3750	 9.5340
 2.3760	 9.5050
 2.3770	 9.4770
 2.3780	 9.4500
 2.3790	 9.4210
 2.3800	 9.3920
 2.3810	 9.3650
 2.3820	 9.3370
 2.3830	 9.3150
 2.3840	 9.2890
 2.3850	 9.2510
 2.3860	 9.2190
 2.3870	 9.1810
 2.3880	 9.1400
 2.3890	 9.1150
 2.3900	 9.0860
 2.3910	 9.0570
 2.3920	 9.0320
 2.3930	 8.9960
 2.3940	 8.9640
 2.3950	 8.9350
 2.3960	 8.9020
 2.3970	 8.8780
 2.3980	 8.8520
 2.3990	 8.8170
 2.4000	 8.7870
 2.4010	 8.7450
 2.4020	 8.7020
 2.4030	 8.6700
 2.4040	 8.6430
 2.4050	 8.6220
 2.4060	 8.5990
 2.4070	 8.5750
 2.4080	 8.5420
 2.4090	 8.5030
 2.4100	 8.4760
 2.4110	 8.4500
 2.4120	 8.4220
 2.4130	 8.3950
 2.4140	 8.3620
 2.4150	 8.3250
 2.4160	 8.2870
 2.4170	 8.2600
 2.4180	 8.2390
 2.4190	 8.2180
 2.4200	 8.1940
 2.4210	 8.1590
 2.4220	 8.1270
 2.4230	 8.0960
 2.4240	 8.0690
 2.4250	 8.0440
 2.4260	 8.0140
 2.4270	 7.9800
 2.4280	 7.9460
 2.4290	 7.9250
 2.4300	 7.9060
 2.4310	 7.8830
 2.4320	 7.8600
 2.4330	 7.8210
 2.4340	 7.7730
 2.4350	 7.7350
 2.4360	 7.7000
 2.4370	 7.6710
 2.4380	 7.6570
 2.4390	 7.6340
 2.4400	 7.6070
 2.4410	 7.5830
 2.4420	 7.5540
 2.4430	 7.5280
 2.4440	 7.5020
 2.4450	 7.4750
 2.4460	 7.4430
 2.4470	 7.4080
 2.4480	 7.3830
 2.4490	 7.3610
 2.4500	 7.3370
 2.4510	 7.3140
 2.4520	 7.2970
 2.4530	 7.2690
 2.4540	 7.2420
 2.4550	 7.2290
 2.4560	 7.2130
 2.4570	 7.1970
 2.4580	 7.1770
 2.4590	 7.1620
 2.4600	 7.1350
 2.4610	 7.1060
 2.4620	 7.0990
 2.4630	 7.0650
 2.4640	 7.0240
 2.4650	 6.9930
 2.4660	 6.9740
 2.4670	 6.9780
 2.4680	 6.9800
 2.4690	 6.9670
 2.4700	 6.9500
 2.4710	 6.9170
 2.4720	 6.8880
 2.4730	 6.8580
 2.4740	 6.8320
 2.4750	 6.8010
 2.4760	 6.7860
 2.4770	 6.7960
 2.4780	 6.7890
 2.4790	 6.7720
 2.4800	 6.7490
 2.4810	 6.7170
 2.4820	 6.7100
 2.4830	 6.6960
 2.4840	 6.7000
 2.4850	 6.6980
 2.4860	 6.6880
 2.4870	 6.7050
 2.4880	 6.7290
 2.4890	 6.7330
 2.4900	 6.7200
 2.4910	 6.7080
 2.4920	 6.6730
 2.4930	 6.6100
 2.4940	 6.5950
 2.4950	 6.5910
 2.4960	 6.5600
 2.4970	 6.5650
 2.4980	 6.5490
 2.4990	 6.5150
 2.5000	 6.5420
