Name: Aloe bainesii
Type: vegetation
Class: Tree
Genus: Aloe
Species: bainesii
Sample No.: JPL057
Owner: JPL
Wavelength Range: TIR
Origin: 34.12722; - 118.11108; WGS84
Collection Date: 2/2/2016
Description: Samples were collected at the Huntington Garden in San Marino California as part of a JPL Subcontract studying HyTES imagery. Samples were taken to JPL and processed within 48 hours of collection. The same leaves were processed in the Nicolet and then measured using the ASD.
Measurement: Hemispherical reflectance
First Column: X
Second Column: Y
X Units: Wavelength (micrometer)
Y Units: Reflectance (percentage)
First X Value: 2.501
Last X Value: 15.387
Number of X Values: 1737
Additional Information: 

 2.5010	 2.3500
 2.5030	 2.3590
 2.5040	 2.4130
 2.5050	 2.3820
 2.5060	 2.2850
 2.5070	 2.2240
 2.5090	 2.2680
 2.5100	 2.2860
 2.5110	 2.2990
 2.5120	 2.2660
 2.5140	 2.2960
 2.5150	 2.3200
 2.5160	 2.3160
 2.5170	 2.2830
 2.5180	 2.3330
 2.5200	 2.3170
 2.5210	 2.2990
 2.5220	 2.2760
 2.5230	 2.2620
 2.5250	 2.2630
 2.5260	 2.2870
 2.5270	 2.2580
 2.5280	 2.2740
 2.5300	 2.2470
 2.5310	 2.2990
 2.5320	 2.3190
 2.5330	 2.3300
 2.5340	 2.3250
 2.5360	 2.3150
 2.5370	 2.2410
 2.5380	 2.1980
 2.5390	 2.1500
 2.5410	 2.1920
 2.5420	 2.2620
 2.5430	 2.2820
 2.5440	 2.2960
 2.5460	 2.3180
 2.5470	 2.2310
 2.5480	 2.2470
 2.5490	 2.2590
 2.5510	 2.2940
 2.5520	 2.2640
 2.5530	 2.2850
 2.5540	 2.3250
 2.5560	 2.3160
 2.5570	 2.2540
 2.5580	 2.2520
 2.5590	 2.2660
 2.5610	 2.2780
 2.5620	 2.2660
 2.5630	 2.3020
 2.5650	 2.2840
 2.5660	 2.2340
 2.5670	 2.2170
 2.5680	 2.3170
 2.5700	 2.3150
 2.5710	 2.3120
 2.5720	 2.3260
 2.5730	 2.3180
 2.5750	 2.3260
 2.5760	 2.3660
 2.5770	 2.3200
 2.5790	 2.3320
 2.5800	 2.3430
 2.5810	 2.3520
 2.5820	 2.2730
 2.5840	 2.2170
 2.5850	 2.2550
 2.5860	 2.3390
 2.5880	 2.3670
 2.5890	 2.4020
 2.5900	 2.3460
 2.5910	 2.2800
 2.5930	 2.2670
 2.5940	 2.3220
 2.5950	 2.2980
 2.5970	 2.2900
 2.5980	 2.2520
 2.5990	 2.2380
 2.6010	 2.2700
 2.6020	 2.3360
 2.6030	 2.3660
 2.6040	 2.3770
 2.6060	 2.3620
 2.6070	 2.4080
 2.6080	 2.3990
 2.6100	 2.3780
 2.6110	 2.3250
 2.6120	 2.2880
 2.6140	 2.2940
 2.6150	 2.3750
 2.6160	 2.3870
 2.6180	 2.3520
 2.6190	 2.2830
 2.6200	 2.2920
 2.6220	 2.3310
 2.6230	 2.3980
 2.6240	 2.3090
 2.6260	 2.2910
 2.6270	 2.3330
 2.6280	 2.3480
 2.6300	 2.3130
 2.6310	 2.3640
 2.6320	 2.3420
 2.6340	 2.3270
 2.6350	 2.2910
 2.6360	 2.2690
 2.6380	 2.2540
 2.6390	 2.2300
 2.6400	 2.2040
 2.6420	 2.3030
 2.6430	 2.2730
 2.6440	 2.2660
 2.6460	 2.2350
 2.6470	 2.2530
 2.6480	 2.2800
 2.6500	 2.2780
 2.6510	 2.2460
 2.6520	 2.2860
 2.6540	 2.3160
 2.6550	 2.3710
 2.6570	 2.3770
 2.6580	 2.3690
 2.6590	 2.3300
 2.6610	 2.3220
 2.6620	 2.2740
 2.6630	 2.2930
 2.6650	 2.2610
 2.6660	 2.2570
 2.6670	 2.2650
 2.6690	 2.2670
 2.6700	 2.2720
 2.6720	 2.3050
 2.6730	 2.2920
 2.6740	 2.2930
 2.6760	 2.2640
 2.6770	 2.3210
 2.6780	 2.3270
 2.6800	 2.3290
 2.6810	 2.3130
 2.6830	 2.2890
 2.6840	 2.2140
 2.6850	 2.2050
 2.6870	 2.2460
 2.6880	 2.2620
 2.6900	 2.2280
 2.6910	 2.3110
 2.6920	 2.2790
 2.6940	 2.2890
 2.6950	 2.2750
 2.6970	 2.2400
 2.6980	 2.1670
 2.6990	 2.2100
 2.7010	 2.2430
 2.7020	 2.2540
 2.7040	 2.1850
 2.7050	 2.1670
 2.7060	 2.1590
 2.7080	 2.1600
 2.7090	 2.1560
 2.7110	 2.2390
 2.7120	 2.1890
 2.7130	 2.1950
 2.7150	 2.1440
 2.7160	 2.1500
 2.7180	 2.1730
 2.7190	 2.1780
 2.7210	 2.1280
 2.7220	 2.1890
 2.7230	 2.2090
 2.7250	 2.1880
 2.7260	 2.1100
 2.7280	 2.1260
 2.7290	 2.0820
 2.7310	 2.1010
 2.7320	 2.1690
 2.7340	 2.2170
 2.7350	 2.1380
 2.7360	 2.0900
 2.7380	 2.1170
 2.7390	 2.1620
 2.7410	 2.1370
 2.7420	 2.1060
 2.7440	 2.0610
 2.7450	 2.1230
 2.7470	 2.1240
 2.7480	 2.1830
 2.7490	 2.1970
 2.7510	 2.1750
 2.7520	 2.1370
 2.7540	 2.1440
 2.7550	 2.1370
 2.7570	 2.1610
 2.7580	 2.0860
 2.7600	 2.1220
 2.7610	 2.1600
 2.7630	 2.1380
 2.7640	 2.0660
 2.7660	 2.0890
 2.7670	 2.1440
 2.7690	 2.1980
 2.7700	 2.0920
 2.7720	 2.0940
 2.7730	 2.1100
 2.7740	 2.1410
 2.7760	 2.1280
 2.7770	 2.1240
 2.7790	 2.0550
 2.7800	 2.0950
 2.7820	 2.0870
 2.7830	 2.0660
 2.7850	 2.0530
 2.7860	 2.0410
 2.7880	 2.0180
 2.7890	 2.0520
 2.7910	 2.0390
 2.7920	 2.0730
 2.7940	 2.1050
 2.7950	 2.1320
 2.7970	 2.1050
 2.7980	 2.1290
 2.8000	 2.0930
 2.8010	 2.1690
 2.8030	 2.1500
 2.8040	 2.1210
 2.8060	 2.0130
 2.8080	 2.0050
 2.8090	 2.0560
 2.8110	 2.1050
 2.8120	 2.0400
 2.8140	 2.0290
 2.8150	 2.0830
 2.8170	 2.1760
 2.8180	 2.1780
 2.8200	 2.1380
 2.8210	 2.0700
 2.8230	 2.0730
 2.8240	 2.0360
 2.8260	 2.0760
 2.8270	 2.0460
 2.8290	 2.1370
 2.8310	 2.1570
 2.8320	 2.1370
 2.8340	 2.1680
 2.8350	 2.2010
 2.8370	 2.1110
 2.8380	 2.0790
 2.8400	 2.0970
 2.8410	 2.1370
 2.8430	 2.0920
 2.8440	 2.1400
 2.8460	 2.1130
 2.8480	 2.1490
 2.8490	 2.1200
 2.8510	 2.0970
 2.8520	 2.0620
 2.8540	 2.1020
 2.8550	 2.0960
 2.8570	 2.0950
 2.8590	 2.0300
 2.8600	 2.0500
 2.8620	 2.0800
 2.8630	 2.1000
 2.8650	 2.1080
 2.8660	 2.1570
 2.8680	 2.1160
 2.8700	 2.1320
 2.8710	 2.1750
 2.8730	 2.1870
 2.8740	 2.1820
 2.8760	 2.1630
 2.8780	 2.1470
 2.8790	 2.1850
 2.8810	 2.1070
 2.8820	 2.0900
 2.8840	 2.1020
 2.8860	 2.1610
 2.8870	 2.1810
 2.8890	 2.1720
 2.8900	 2.1300
 2.8920	 2.2280
 2.8940	 2.2290
 2.8950	 2.2290
 2.8970	 2.1500
 2.8990	 2.0760
 2.9000	 2.0340
 2.9020	 2.1040
 2.9030	 2.1100
 2.9050	 2.1450
 2.9070	 2.1420
 2.9080	 2.1560
 2.9100	 2.1100
 2.9120	 2.1150
 2.9130	 2.1030
 2.9150	 2.1400
 2.9160	 2.1700
 2.9180	 2.2770
 2.9200	 2.2500
 2.9210	 2.2270
 2.9230	 2.1480
 2.9250	 2.1170
 2.9260	 2.1480
 2.9280	 2.1670
 2.9300	 2.0700
 2.9310	 2.0730
 2.9330	 2.1430
 2.9350	 2.1940
 2.9360	 2.2050
 2.9380	 2.2240
 2.9400	 2.2190
 2.9410	 2.2340
 2.9430	 2.1790
 2.9450	 2.1690
 2.9460	 2.1190
 2.9480	 2.1860
 2.9500	 2.2190
 2.9510	 2.1750
 2.9530	 2.1150
 2.9550	 2.1570
 2.9560	 2.1650
 2.9580	 2.1730
 2.9600	 2.1360
 2.9610	 2.1380
 2.9630	 2.1500
 2.9650	 2.2070
 2.9670	 2.1520
 2.9680	 2.2000
 2.9700	 2.2260
 2.9720	 2.1990
 2.9730	 2.1530
 2.9750	 2.2000
 2.9770	 2.2410
 2.9780	 2.2380
 2.9800	 2.2170
 2.9820	 2.2590
 2.9840	 2.2440
 2.9850	 2.2210
 2.9870	 2.1770
 2.9890	 2.1820
 2.9900	 2.1740
 2.9920	 2.1520
 2.9940	 2.1030
 2.9960	 2.1070
 2.9970	 2.1190
 2.9990	 2.2020
 3.0010	 2.2000
 3.0030	 2.2120
 3.0040	 2.1770
 3.0060	 2.1680
 3.0080	 2.1580
 3.0100	 2.1350
 3.0110	 2.1000
 3.0130	 2.1140
 3.0150	 2.1480
 3.0170	 2.2330
 3.0180	 2.2260
 3.0200	 2.2560
 3.0220	 2.2410
 3.0240	 2.2200
 3.0250	 2.1880
 3.0270	 2.1660
 3.0290	 2.0880
 3.0310	 2.1340
 3.0320	 2.1360
 3.0340	 2.1870
 3.0360	 2.1440
 3.0380	 2.1880
 3.0400	 2.1740
 3.0410	 2.1720
 3.0430	 2.1490
 3.0450	 2.1790
 3.0470	 2.2040
 3.0480	 2.2560
 3.0500	 2.2490
 3.0520	 2.2310
 3.0540	 2.1370
 3.0560	 2.1500
 3.0570	 2.1920
 3.0590	 2.1630
 3.0610	 2.1180
 3.0630	 2.1440
 3.0650	 2.1790
 3.0670	 2.2450
 3.0680	 2.2060
 3.0700	 2.2410
 3.0720	 2.2330
 3.0740	 2.1390
 3.0760	 2.0870
 3.0770	 2.1240
 3.0790	 2.1280
 3.0810	 2.1820
 3.0830	 2.1500
 3.0850	 2.1430
 3.0870	 2.1920
 3.0880	 2.2300
 3.0900	 2.1870
 3.0920	 2.1850
 3.0940	 2.1460
 3.0960	 2.1380
 3.0980	 2.1420
 3.1000	 2.1630
 3.1010	 2.1600
 3.1030	 2.1750
 3.1050	 2.1560
 3.1070	 2.1130
 3.1090	 2.1190
 3.1110	 2.1430
 3.1130	 2.1550
 3.1140	 2.1650
 3.1160	 2.1190
 3.1180	 2.1100
 3.1200	 2.1450
 3.1220	 2.2320
 3.1240	 2.1990
 3.1260	 2.1800
 3.1280	 2.1720
 3.1290	 2.1820
 3.1310	 2.1640
 3.1330	 2.1770
 3.1350	 2.1590
 3.1370	 2.1710
 3.1390	 2.1430
 3.1410	 2.1780
 3.1430	 2.2040
 3.1450	 2.2330
 3.1470	 2.2130
 3.1480	 2.2280
 3.1500	 2.1460
 3.1520	 2.1520
 3.1540	 2.1480
 3.1560	 2.2050
 3.1580	 2.1710
 3.1600	 2.1230
 3.1620	 2.0770
 3.1640	 2.1060
 3.1660	 2.0720
 3.1680	 2.0850
 3.1700	 2.1110
 3.1720	 2.1580
 3.1730	 2.1310
 3.1750	 2.1470
 3.1770	 2.1480
 3.1790	 2.1690
 3.1810	 2.1250
 3.1830	 2.1190
 3.1850	 2.0910
 3.1870	 2.1230
 3.1890	 2.1380
 3.1910	 2.1360
 3.1930	 2.1030
 3.1950	 2.1470
 3.1970	 2.1110
 3.1990	 2.1020
 3.2010	 2.0810
 3.2030	 2.0600
 3.2050	 2.0590
 3.2070	 2.1240
 3.2090	 2.1330
 3.2110	 2.1330
 3.2130	 2.1190
 3.2150	 2.1440
 3.2170	 2.1170
 3.2190	 2.0770
 3.2210	 2.0620
 3.2230	 2.0890
 3.2250	 2.1090
 3.2270	 2.1170
 3.2290	 2.0740
 3.2310	 2.0770
 3.2330	 2.0770
 3.2350	 2.1180
 3.2370	 2.1340
 3.2390	 2.1040
 3.2410	 2.0520
 3.2430	 2.0730
 3.2450	 2.1000
 3.2470	 2.1320
 3.2490	 2.0800
 3.2510	 2.0980
 3.2530	 2.1210
 3.2550	 2.1630
 3.2570	 2.1330
 3.2590	 2.0950
 3.2610	 2.0550
 3.2630	 2.0630
 3.2650	 2.0370
 3.2670	 2.0560
 3.2700	 2.0340
 3.2720	 2.0600
 3.2740	 2.0730
 3.2760	 2.0790
 3.2780	 2.0930
 3.2800	 2.0890
 3.2820	 2.0460
 3.2840	 2.0600
 3.2860	 2.0760
 3.2880	 2.0970
 3.2900	 2.0530
 3.2920	 2.0100
 3.2940	 2.0110
 3.2970	 2.0460
 3.2990	 2.0170
 3.3010	 1.9690
 3.3030	 1.9610
 3.3050	 2.0470
 3.3070	 2.0460
 3.3090	 2.0320
 3.3110	 1.9590
 3.3130	 1.9610
 3.3160	 1.9680
 3.3180	 1.9660
 3.3200	 1.9500
 3.3220	 1.9770
 3.3240	 1.9600
 3.3260	 1.9640
 3.3280	 1.9970
 3.3300	 2.0050
 3.3330	 1.9590
 3.3350	 1.9160
 3.3370	 1.9030
 3.3390	 1.9240
 3.3410	 1.8610
 3.3430	 1.9000
 3.3450	 1.9240
 3.3480	 1.9260
 3.3500	 1.9010
 3.3520	 1.9040
 3.3540	 1.8770
 3.3560	 1.8520
 3.3580	 1.8490
 3.3610	 1.8770
 3.3630	 1.8520
 3.3650	 1.8360
 3.3670	 1.8350
 3.3690	 1.8280
 3.3720	 1.8050
 3.3740	 1.8010
 3.3760	 1.8030
 3.3780	 1.8180
 3.3800	 1.8140
 3.3830	 1.8200
 3.3850	 1.8030
 3.3870	 1.7620
 3.3890	 1.7410
 3.3910	 1.7320
 3.3940	 1.6880
 3.3960	 1.6900
 3.3980	 1.6940
 3.4000	 1.7030
 3.4030	 1.6530
 3.4050	 1.6330
 3.4070	 1.6320
 3.4090	 1.6920
 3.4110	 1.6810
 3.4140	 1.6950
 3.4160	 1.7780
 3.4180	 1.9770
 3.4200	 2.1610
 3.4230	 2.5150
 3.4250	 2.9820
 3.4270	 3.5260
 3.4300	 4.0180
 3.4320	 4.1340
 3.4340	 3.8500
 3.4360	 3.5280
 3.4390	 3.3010
 3.4410	 3.1510
 3.4430	 3.0230
 3.4450	 2.9300
 3.4480	 2.8460
 3.4500	 2.7710
 3.4520	 2.7360
 3.4550	 2.7590
 3.4570	 2.7350
 3.4590	 2.7370
 3.4620	 2.6980
 3.4640	 2.6860
 3.4660	 2.6690
 3.4690	 2.6650
 3.4710	 2.6020
 3.4730	 2.5420
 3.4760	 2.4790
 3.4780	 2.4190
 3.4800	 2.3530
 3.4830	 2.3780
 3.4850	 2.3940
 3.4870	 2.3530
 3.4900	 2.2290
 3.4920	 2.1660
 3.4940	 2.1200
 3.4970	 2.0940
 3.4990	 2.0860
 3.5010	 2.0750
 3.5040	 2.1290
 3.5060	 2.4940
 3.5080	 3.1740
 3.5110	 3.8870
 3.5130	 3.9960
 3.5160	 3.6710
 3.5180	 3.3870
 3.5200	 3.2040
 3.5230	 3.0210
 3.5250	 2.9100
 3.5280	 2.8290
 3.5300	 2.7680
 3.5320	 2.7300
 3.5350	 2.7490
 3.5370	 2.6980
 3.5400	 2.6570
 3.5420	 2.6080
 3.5440	 2.5760
 3.5470	 2.5490
 3.5490	 2.5930
 3.5520	 2.5730
 3.5540	 2.5450
 3.5570	 2.5150
 3.5590	 2.5020
 3.5610	 2.4870
 3.5640	 2.5310
 3.5660	 2.4840
 3.5690	 2.4440
 3.5710	 2.4580
 3.5740	 2.4810
 3.5760	 2.4620
 3.5790	 2.4600
 3.5810	 2.4680
 3.5840	 2.4430
 3.5860	 2.4030
 3.5890	 2.4200
 3.5910	 2.4450
 3.5940	 2.4480
 3.5960	 2.4090
 3.5990	 2.4230
 3.6010	 2.4290
 3.6040	 2.4270
 3.6060	 2.3970
 3.6090	 2.4020
 3.6110	 2.3850
 3.6140	 2.3990
 3.6160	 2.3850
 3.6190	 2.3770
 3.6210	 2.3570
 3.6240	 2.3480
 3.6260	 2.3490
 3.6290	 2.3600
 3.6310	 2.3560
 3.6340	 2.3710
 3.6360	 2.3510
 3.6390	 2.3510
 3.6410	 2.3230
 3.6440	 2.3510
 3.6470	 2.3410
 3.6490	 2.3430
 3.6520	 2.3250
 3.6540	 2.2750
 3.6570	 2.2690
 3.6590	 2.2980
 3.6620	 2.2650
 3.6650	 2.2790
 3.6670	 2.2970
 3.6700	 2.3330
 3.6720	 2.3630
 3.6750	 2.3470
 3.6780	 2.2950
 3.6800	 2.3130
 3.6830	 2.3480
 3.6850	 2.3720
 3.6880	 2.3470
 3.6910	 2.3140
 3.6930	 2.3060
 3.6960	 2.3000
 3.6990	 2.2940
 3.7010	 2.3240
 3.7040	 2.3260
 3.7070	 2.3170
 3.7090	 2.3160
 3.7120	 2.3390
 3.7150	 2.3050
 3.7170	 2.2730
 3.7200	 2.2910
 3.7230	 2.3300
 3.7250	 2.2970
 3.7280	 2.2600
 3.7310	 2.2770
 3.7330	 2.3360
 3.7360	 2.3080
 3.7390	 2.2930
 3.7410	 2.2710
 3.7440	 2.2680
 3.7470	 2.2370
 3.7490	 2.2540
 3.7520	 2.2640
 3.7550	 2.2390
 3.7580	 2.2410
 3.7600	 2.2650
 3.7630	 2.2620
 3.7660	 2.2930
 3.7690	 2.2960
 3.7710	 2.2820
 3.7740	 2.2390
 3.7770	 2.2280
 3.7790	 2.2270
 3.7820	 2.2450
 3.7850	 2.2830
 3.7880	 2.3010
 3.7910	 2.2750
 3.7930	 2.2710
 3.7960	 2.2630
 3.7990	 2.2510
 3.8020	 2.2390
 3.8040	 2.2480
 3.8070	 2.2700
 3.8100	 2.2660
 3.8130	 2.2530
 3.8160	 2.2540
 3.8180	 2.2670
 3.8210	 2.3220
 3.8240	 2.2670
 3.8270	 2.2140
 3.8300	 2.2120
 3.8330	 2.2600
 3.8350	 2.2730
 3.8380	 2.2370
 3.8410	 2.2050
 3.8440	 2.2500
 3.8470	 2.2530
 3.8500	 2.2220
 3.8520	 2.2410
 3.8550	 2.2870
 3.8580	 2.2760
 3.8610	 2.2410
 3.8640	 2.2530
 3.8670	 2.2750
 3.8700	 2.2090
 3.8730	 2.2020
 3.8760	 2.2450
 3.8780	 2.2520
 3.8810	 2.2380
 3.8840	 2.2360
 3.8870	 2.2260
 3.8900	 2.2700
 3.8930	 2.2260
 3.8960	 2.1900
 3.8990	 2.2460
 3.9020	 2.2860
 3.9050	 2.2420
 3.9080	 2.2450
 3.9110	 2.2580
 3.9140	 2.2420
 3.9170	 2.2460
 3.9190	 2.2260
 3.9220	 2.2080
 3.9250	 2.2440
 3.9280	 2.2650
 3.9310	 2.2610
 3.9340	 2.2700
 3.9370	 2.2820
 3.9400	 2.2780
 3.9430	 2.2270
 3.9460	 2.2090
 3.9490	 2.2610
 3.9520	 2.2660
 3.9550	 2.2430
 3.9580	 2.2140
 3.9610	 2.1970
 3.9640	 2.2060
 3.9670	 2.2000
 3.9700	 2.1910
 3.9740	 2.1960
 3.9770	 2.1750
 3.9800	 2.1760
 3.9830	 2.2040
 3.9860	 2.2750
 3.9890	 2.2980
 3.9920	 2.2570
 3.9950	 2.2300
 3.9980	 2.2330
 4.0010	 2.2200
 4.0040	 2.2210
 4.0070	 2.2450
 4.0100	 2.2450
 4.0140	 2.2240
 4.0170	 2.2030
 4.0200	 2.1930
 4.0230	 2.2260
 4.0260	 2.2320
 4.0290	 2.2230
 4.0320	 2.2100
 4.0350	 2.2220
 4.0390	 2.2370
 4.0420	 2.2270
 4.0450	 2.2310
 4.0480	 2.2440
 4.0510	 2.2470
 4.0540	 2.2280
 4.0570	 2.2050
 4.0610	 2.2080
 4.0640	 2.2210
 4.0670	 2.2410
 4.0700	 2.2370
 4.0730	 2.2310
 4.0770	 2.1730
 4.0800	 2.1740
 4.0830	 2.2310
 4.0860	 2.2290
 4.0890	 2.1920
 4.0930	 2.2090
 4.0960	 2.2410
 4.0990	 2.2490
 4.1020	 2.2460
 4.1060	 2.2480
 4.1090	 2.2210
 4.1120	 2.2120
 4.1150	 2.2290
 4.1190	 2.2400
 4.1220	 2.2210
 4.1250	 2.1970
 4.1290	 2.2120
 4.1320	 2.2140
 4.1350	 2.1820
 4.1380	 2.1990
 4.1420	 2.2220
 4.1450	 2.2440
 4.1480	 2.2590
 4.1520	 2.2490
 4.1550	 2.2190
 4.1580	 2.2240
 4.1620	 2.2330
 4.1650	 2.2080
 4.1680	 2.1940
 4.1720	 2.2170
 4.1750	 2.2220
 4.1780	 2.1960
 4.1820	 2.1790
 4.1850	 2.1700
 4.1890	 2.1960
 4.1920	 2.2280
 4.1950	 2.2220
 4.1990	 2.2280
 4.2020	 2.2670
 4.2060	 2.2720
 4.2090	 2.2350
 4.2120	 2.2470
 4.2160	 2.3200
 4.2190	 2.3310
 4.2230	 2.3010
 4.2260	 2.2580
 4.2300	 2.3020
 4.2330	 2.3890
 4.2360	 2.4570
 4.2400	 2.4070
 4.2430	 2.3660
 4.2470	 2.3180
 4.2500	 2.2480
 4.2540	 2.2830
 4.2570	 2.2970
 4.2610	 2.3550
 4.2640	 2.3490
 4.2680	 2.2530
 4.2710	 2.3190
 4.2750	 2.3610
 4.2780	 2.3370
 4.2820	 2.2950
 4.2850	 2.2800
 4.2890	 2.3560
 4.2930	 2.3600
 4.2960	 2.2850
 4.3000	 2.3000
 4.3030	 2.3540
 4.3070	 2.3610
 4.3100	 2.3050
 4.3140	 2.2430
 4.3180	 2.2600
 4.3210	 2.3000
 4.3250	 2.3090
 4.3280	 2.2770
 4.3320	 2.2600
 4.3360	 2.2530
 4.3390	 2.2400
 4.3430	 2.2310
 4.3470	 2.2270
 4.3500	 2.2170
 4.3540	 2.2260
 4.3580	 2.2540
 4.3610	 2.2360
 4.3650	 2.2070
 4.3690	 2.1810
 4.3720	 2.1640
 4.3760	 2.1900
 4.3800	 2.1690
 4.3830	 2.1200
 4.3870	 2.1480
 4.3910	 2.1870
 4.3940	 2.2090
 4.3980	 2.2390
 4.4020	 2.1930
 4.4060	 2.1630
 4.4090	 2.1870
 4.4130	 2.2120
 4.4170	 2.2090
 4.4210	 2.1730
 4.4240	 2.1790
 4.4280	 2.2000
 4.4320	 2.1680
 4.4360	 2.1390
 4.4400	 2.1630
 4.4430	 2.1310
 4.4470	 2.1550
 4.4510	 2.2220
 4.4550	 2.2150
 4.4590	 2.1600
 4.4630	 2.1530
 4.4660	 2.1530
 4.4700	 2.1790
 4.4740	 2.1940
 4.4780	 2.1820
 4.4820	 2.1600
 4.4860	 2.1680
 4.4900	 2.1790
 4.4930	 2.1750
 4.4970	 2.1540
 4.5010	 2.1490
 4.5050	 2.1650
 4.5090	 2.1700
 4.5130	 2.1740
 4.5170	 2.2170
 4.5210	 2.1910
 4.5250	 2.1150
 4.5290	 2.1130
 4.5330	 2.1800
 4.5370	 2.1820
 4.5410	 2.1620
 4.5450	 2.1460
 4.5490	 2.1570
 4.5530	 2.1380
 4.5570	 2.1800
 4.5610	 2.1920
 4.5650	 2.1550
 4.5690	 2.1310
 4.5730	 2.1430
 4.5770	 2.1320
 4.5810	 2.1470
 4.5850	 2.1740
 4.5890	 2.2090
 4.5930	 2.1910
 4.5970	 2.1810
 4.6010	 2.1500
 4.6050	 2.1340
 4.6090	 2.1380
 4.6130	 2.1790
 4.6170	 2.1670
 4.6220	 2.1350
 4.6260	 2.1400
 4.6300	 2.1720
 4.6340	 2.1590
 4.6380	 2.1690
 4.6420	 2.1420
 4.6460	 2.1230
 4.6510	 2.1250
 4.6550	 2.1480
 4.6590	 2.1480
 4.6630	 2.1270
 4.6670	 2.1370
 4.6720	 2.1300
 4.6760	 2.1060
 4.6800	 2.1210
 4.6840	 2.1360
 4.6880	 2.1460
 4.6930	 2.1450
 4.6970	 2.1630
 4.7010	 2.1640
 4.7050	 2.1640
 4.7100	 2.1660
 4.7140	 2.1520
 4.7180	 2.1720
 4.7230	 2.2080
 4.7270	 2.1860
 4.7310	 2.1780
 4.7360	 2.1800
 4.7400	 2.1720
 4.7440	 2.1510
 4.7490	 2.1420
 4.7530	 2.1330
 4.7570	 2.1360
 4.7620	 2.1420
 4.7660	 2.1360
 4.7700	 2.1280
 4.7750	 2.1390
 4.7790	 2.1200
 4.7840	 2.1310
 4.7880	 2.1240
 4.7920	 2.1080
 4.7970	 2.0870
 4.8010	 2.1110
 4.8060	 2.0970
 4.8100	 2.0810
 4.8150	 2.1000
 4.8190	 2.1350
 4.8240	 2.1610
 4.8280	 2.2110
 4.8330	 2.2070
 4.8370	 2.1900
 4.8420	 2.1560
 4.8460	 2.1720
 4.8510	 2.1510
 4.8550	 2.1220
 4.8600	 2.1210
 4.8640	 2.1090
 4.8690	 2.0830
 4.8740	 2.0970
 4.8780	 2.1150
 4.8830	 2.1450
 4.8870	 2.1430
 4.8920	 2.1460
 4.8970	 2.1240
 4.9010	 2.1250
 4.9060	 2.1270
 4.9100	 2.1440
 4.9150	 2.1140
 4.9200	 2.1240
 4.9240	 2.1500
 4.9290	 2.1650
 4.9340	 2.1310
 4.9390	 2.1240
 4.9430	 2.1170
 4.9480	 2.1220
 4.9530	 2.1180
 4.9570	 2.1270
 4.9620	 2.1060
 4.9670	 2.1140
 4.9720	 2.0960
 4.9760	 2.1340
 4.9810	 2.1610
 4.9860	 2.1360
 4.9910	 2.0990
 4.9960	 2.1200
 5.0000	 2.0980
 5.0050	 2.1020
 5.0100	 2.1100
 5.0150	 2.0990
 5.0200	 2.1340
 5.0250	 2.1760
 5.0300	 2.1480
 5.0340	 2.1370
 5.0390	 2.1270
 5.0440	 2.1410
 5.0490	 2.1200
 5.0540	 2.1200
 5.0590	 2.1000
 5.0640	 2.0800
 5.0690	 2.0690
 5.0740	 2.0930
 5.0790	 2.1080
 5.0840	 2.1250
 5.0890	 2.1280
 5.0940	 2.1360
 5.0990	 2.1420
 5.1040	 2.1260
 5.1090	 2.0980
 5.1140	 2.1390
 5.1190	 2.1330
 5.1240	 2.1170
 5.1290	 2.1030
 5.1340	 2.1180
 5.1390	 2.0980
 5.1440	 2.0920
 5.1490	 2.0900
 5.1550	 2.1180
 5.1600	 2.1140
 5.1650	 2.1240
 5.1700	 2.1280
 5.1750	 2.1410
 5.1800	 2.1110
 5.1850	 2.1080
 5.1910	 2.0800
 5.1960	 2.0680
 5.2010	 2.0770
 5.2060	 2.1450
 5.2110	 2.1660
 5.2170	 2.1780
 5.2220	 2.1420
 5.2270	 2.1310
 5.2330	 2.1140
 5.2380	 2.1120
 5.2430	 2.0780
 5.2480	 2.1220
 5.2540	 2.1400
 5.2590	 2.1420
 5.2640	 2.0860
 5.2700	 2.0760
 5.2750	 2.0780
 5.2800	 2.1230
 5.2860	 2.1100
 5.2910	 2.0990
 5.2970	 2.1170
 5.3020	 2.1270
 5.3080	 2.1090
 5.3130	 2.1110
 5.3180	 2.0870
 5.3240	 2.0690
 5.3290	 2.0660
 5.3350	 2.0800
 5.3400	 2.0820
 5.3460	 2.1270
 5.3510	 2.1100
 5.3570	 2.0860
 5.3620	 2.0550
 5.3680	 2.0540
 5.3740	 2.0330
 5.3790	 2.0560
 5.3850	 2.0710
 5.3900	 2.0750
 5.3960	 2.0730
 5.4010	 2.0950
 5.4070	 2.0650
 5.4130	 2.0870
 5.4180	 2.0700
 5.4240	 2.0370
 5.4300	 2.0060
 5.4350	 2.0240
 5.4410	 1.9890
 5.4470	 1.9900
 5.4530	 1.9840
 5.4580	 2.0430
 5.4640	 2.0830
 5.4700	 2.0910
 5.4760	 2.0720
 5.4810	 2.0730
 5.4870	 2.0490
 5.4930	 2.0650
 5.4990	 2.0520
 5.5050	 2.0840
 5.5110	 2.0550
 5.5160	 2.0760
 5.5220	 2.0520
 5.5280	 2.0400
 5.5340	 2.0060
 5.5400	 2.0090
 5.5460	 1.9990
 5.5520	 2.0280
 5.5580	 1.9910
 5.5640	 1.9640
 5.5700	 2.0030
 5.5760	 2.0710
 5.5820	 2.0170
 5.5880	 2.0040
 5.5940	 1.9770
 5.6000	 1.9940
 5.6060	 1.9670
 5.6120	 1.9580
 5.6180	 1.9260
 5.6240	 1.9640
 5.6300	 1.9650
 5.6360	 1.9810
 5.6420	 1.9470
 5.6490	 1.9540
 5.6550	 1.9720
 5.6610	 1.9960
 5.6670	 1.9530
 5.6730	 1.9670
 5.6800	 1.9740
 5.6860	 1.9420
 5.6920	 1.9090
 5.6980	 1.9450
 5.7050	 1.9130
 5.7110	 1.9160
 5.7170	 1.8980
 5.7230	 1.9270
 5.7300	 1.8950
 5.7360	 1.9150
 5.7420	 1.9060
 5.7490	 1.9380
 5.7550	 1.9930
 5.7620	 2.0660
 5.7680	 2.0630
 5.7740	 2.0610
 5.7810	 2.0430
 5.7870	 2.0770
 5.7940	 2.0840
 5.8000	 2.1220
 5.8070	 2.1280
 5.8130	 2.1400
 5.8200	 2.1020
 5.8260	 2.1260
 5.8330	 2.1310
 5.8390	 2.1500
 5.8460	 2.1350
 5.8530	 2.1690
 5.8590	 2.1950
 5.8660	 2.2400
 5.8730	 2.2480
 5.8790	 2.2850
 5.8860	 2.2520
 5.8930	 2.2560
 5.8990	 2.1970
 5.9060	 2.1920
 5.9130	 2.2060
 5.9190	 2.2420
 5.9260	 2.2170
 5.9330	 2.2700
 5.9400	 2.2550
 5.9470	 2.2600
 5.9530	 2.1830
 5.9600	 2.1600
 5.9670	 2.1070
 5.9740	 2.1370
 5.9810	 2.1120
 5.9880	 2.1150
 5.9950	 2.0740
 6.0020	 2.0650
 6.0090	 2.0130
 6.0160	 2.0620
 6.0230	 2.0630
 6.0300	 2.1010
 6.0370	 2.1110
 6.0440	 2.2300
 6.0510	 2.2900
 6.0580	 2.3220
 6.0650	 2.2800
 6.0720	 2.3520
 6.0790	 2.3380
 6.0860	 2.3240
 6.0930	 2.2670
 6.1010	 2.3300
 6.1080	 2.3030
 6.1150	 2.3190
 6.1220	 2.2770
 6.1290	 2.3140
 6.1370	 2.3020
 6.1440	 2.3710
 6.1510	 2.3940
 6.1580	 2.3840
 6.1660	 2.3460
 6.1730	 2.3720
 6.1800	 2.3200
 6.1880	 2.3950
 6.1950	 2.3950
 6.2030	 2.4320
 6.2100	 2.4130
 6.2180	 2.4340
 6.2250	 2.3820
 6.2320	 2.3940
 6.2400	 2.3440
 6.2480	 2.3510
 6.2550	 2.3740
 6.2630	 2.4140
 6.2700	 2.3720
 6.2780	 2.3770
 6.2850	 2.3380
 6.2930	 2.3810
 6.3010	 2.3180
 6.3080	 2.3240
 6.3160	 2.3420
 6.3240	 2.3750
 6.3310	 2.3470
 6.3390	 2.3550
 6.3470	 2.3170
 6.3550	 2.3540
 6.3620	 2.3660
 6.3700	 2.3820
 6.3780	 2.2930
 6.3860	 2.3230
 6.3940	 2.3420
 6.4020	 2.3770
 6.4100	 2.3460
 6.4180	 2.3570
 6.4260	 2.2920
 6.4340	 2.3070
 6.4420	 2.2460
 6.4500	 2.2740
 6.4580	 2.2790
 6.4660	 2.2900
 6.4740	 2.2250
 6.4820	 2.2280
 6.4900	 2.2050
 6.4980	 2.2380
 6.5060	 2.1890
 6.5140	 2.2020
 6.5230	 2.1640
 6.5310	 2.1730
 6.5390	 2.1540
 6.5470	 2.2180
 6.5560	 2.1550
 6.5640	 2.1380
 6.5720	 2.1420
 6.5800	 2.1710
 6.5890	 2.1340
 6.5970	 2.1630
 6.6060	 2.1850
 6.6140	 2.2140
 6.6230	 2.1300
 6.6310	 2.0880
 6.6390	 2.0460
 6.6480	 2.0900
 6.6570	 2.0500
 6.6650	 2.0710
 6.6740	 2.0700
 6.6820	 2.1310
 6.6910	 2.0940
 6.7000	 2.0980
 6.7080	 2.0870
 6.7170	 2.1290
 6.7260	 2.0630
 6.7340	 2.0390
 6.7430	 1.9950
 6.7520	 2.0200
 6.7610	 1.9500
 6.7690	 1.9820
 6.7780	 2.0120
 6.7870	 2.1090
 6.7960	 2.1000
 6.8050	 2.1160
 6.8140	 2.0840
 6.8230	 2.2050
 6.8320	 2.3490
 6.8410	 2.4540
 6.8500	 2.3620
 6.8590	 2.3410
 6.8680	 2.2910
 6.8770	 2.3110
 6.8860	 2.2700
 6.8960	 2.3150
 6.9050	 2.2860
 6.9140	 2.3270
 6.9230	 2.3350
 6.9320	 2.3720
 6.9420	 2.2690
 6.9510	 2.2590
 6.9600	 2.2360
 6.9700	 2.2670
 6.9790	 2.1870
 6.9880	 2.2310
 6.9980	 2.2220
 7.0070	 2.2330
 7.0170	 2.2140
 7.0260	 2.3130
 7.0360	 2.2990
 7.0450	 2.3090
 7.0550	 2.2710
 7.0650	 2.2830
 7.0740	 2.2180
 7.0840	 2.3040
 7.0940	 2.3030
 7.1030	 2.3470
 7.1130	 2.3460
 7.1230	 2.3320
 7.1330	 2.2360
 7.1420	 2.2650
 7.1520	 2.2290
 7.1620	 2.2820
 7.1720	 2.2730
 7.1820	 2.3030
 7.1920	 2.2840
 7.2020	 2.3220
 7.2120	 2.2580
 7.2220	 2.2960
 7.2320	 2.2410
 7.2420	 2.2500
 7.2520	 2.2280
 7.2620	 2.2910
 7.2730	 2.2230
 7.2830	 2.2470
 7.2930	 2.2490
 7.3030	 2.2730
 7.3140	 2.2060
 7.3240	 2.2550
 7.3340	 2.2190
 7.3450	 2.2650
 7.3550	 2.2100
 7.3660	 2.1970
 7.3760	 2.1950
 7.3870	 2.2810
 7.3970	 2.2580
 7.4080	 2.3120
 7.4180	 2.3060
 7.4290	 2.3250
 7.4400	 2.2550
 7.4500	 2.2710
 7.4610	 2.2370
 7.4720	 2.2760
 7.4830	 2.2600
 7.4930	 2.2950
 7.5040	 2.2820
 7.5150	 2.3080
 7.5260	 2.2450
 7.5370	 2.2640
 7.5480	 2.2060
 7.5590	 2.2420
 7.5700	 2.2270
 7.5810	 2.2120
 7.5920	 2.1520
 7.6030	 2.2250
 7.6140	 2.1760
 7.6260	 2.2080
 7.6370	 2.1760
 7.6480	 2.2490
 7.6590	 2.1880
 7.6710	 2.2070
 7.6820	 2.2150
 7.6940	 2.2400
 7.7050	 2.1770
 7.7160	 2.2100
 7.7280	 2.1940
 7.7390	 2.2590
 7.7510	 2.2020
 7.7630	 2.2270
 7.7740	 2.1810
 7.7860	 2.2410
 7.7980	 2.2250
 7.8090	 2.2800
 7.8210	 2.1990
 7.8330	 2.2360
 7.8450	 2.2060
 7.8570	 2.2010
 7.8690	 2.1210
 7.8810	 2.1800
 7.8930	 2.1520
 7.9050	 2.2550
 7.9170	 2.2330
 7.9290	 2.2780
 7.9410	 2.1900
 7.9530	 2.2450
 7.9650	 2.2580
 7.9780	 2.2950
 7.9900	 2.2260
 8.0020	 2.2850
 8.0150	 2.2580
 8.0270	 2.2580
 8.0390	 2.1830
 8.0520	 2.3020
 8.0640	 2.2460
 8.0770	 2.3080
 8.0900	 2.3450
 8.1020	 2.3920
 8.1150	 2.2250
 8.1280	 2.2580
 8.1400	 2.2640
 8.1530	 2.4080
 8.1660	 2.3470
 8.1790	 2.3260
 8.1920	 2.1860
 8.2050	 2.2480
 8.2180	 2.2050
 8.2310	 2.2340
 8.2440	 2.1400
 8.2570	 2.2480
 8.2700	 2.1800
 8.2830	 2.2270
 8.2970	 2.2150
 8.3100	 2.3290
 8.3230	 2.2690
 8.3370	 2.2990
 8.3500	 2.1960
 8.3640	 2.2750
 8.3770	 2.2410
 8.3910	 2.2820
 8.4040	 2.1980
 8.4180	 2.2870
 8.4320	 2.2600
 8.4450	 2.3560
 8.4590	 2.2660
 8.4730	 2.3140
 8.4870	 2.2500
 8.5010	 2.4120
 8.5150	 2.3150
 8.5290	 2.3180
 8.5430	 2.3450
 8.5570	 2.4460
 8.5710	 2.3430
 8.5850	 2.4630
 8.5990	 2.3720
 8.6140	 2.4110
 8.6280	 2.4020
 8.6420	 2.5470
 8.6570	 2.4770
 8.6710	 2.4950
 8.6860	 2.4340
 8.7000	 2.5340
 8.7150	 2.4620
 8.7300	 2.4980
 8.7440	 2.4090
 8.7590	 2.5030
 8.7740	 2.3760
 8.7890	 2.4670
 8.8040	 2.4670
 8.8190	 2.5370
 8.8340	 2.4130
 8.8490	 2.5030
 8.8640	 2.4300
 8.8790	 2.4630
 8.8940	 2.3870
 8.9100	 2.4470
 8.9250	 2.3900
 8.9400	 2.4920
 8.9560	 2.4450
 8.9710	 2.6020
 8.9870	 2.4840
 9.0020	 2.5530
 9.0180	 2.5010
 9.0340	 2.6080
 9.0500	 2.5380
 9.0650	 2.6750
 9.0810	 2.5830
 9.0970	 2.6090
 9.1130	 2.5310
 9.1290	 2.6540
 9.1450	 2.5860
 9.1620	 2.6800
 9.1780	 2.6000
 9.1940	 2.6310
 9.2100	 2.5470
 9.2270	 2.6030
 9.2430	 2.5120
 9.2600	 2.6070
 9.2760	 2.4850
 9.2930	 2.6000
 9.3100	 2.5100
 9.3260	 2.5520
 9.3430	 2.5470
 9.3600	 2.6860
 9.3770	 2.6130
 9.3940	 2.7150
 9.4110	 2.6160
 9.4280	 2.6790
 9.4450	 2.6060
 9.4620	 2.7020
 9.4800	 2.6060
 9.4970	 2.6670
 9.5150	 2.5920
 9.5320	 2.6700
 9.5500	 2.5340
 9.5670	 2.6650
 9.5850	 2.5430
 9.6030	 2.5600
 9.6200	 2.4540
 9.6380	 2.5950
 9.6560	 2.5680
 9.6740	 2.6560
 9.6920	 2.5590
 9.7110	 2.7060
 9.7290	 2.5470
 9.7470	 2.5880
 9.7650	 2.5390
 9.7840	 2.5600
 9.8020	 2.4500
 9.8210	 2.5530
 9.8390	 2.4430
 9.8580	 2.5890
 9.8770	 2.5610
 9.8960	 2.6280
 9.9150	 2.4730
 9.9340	 2.5050
 9.9530	 2.4420
 9.9720	 2.5300
 9.9910	 2.3640
10.0100	 2.4540
10.0300	 2.3770
10.0490	 2.4430
10.0690	 2.3690
10.0880	 2.4780
10.1080	 2.4190
10.1280	 2.4820
10.1480	 2.3540
10.1670	 2.4400
10.1870	 2.3520
10.2070	 2.4390
10.2280	 2.3740
10.2480	 2.4850
10.2680	 2.4360
10.2890	 2.4770
10.3090	 2.3860
10.3300	 2.5240
10.3500	 2.3640
10.3710	 2.3570
10.3920	 2.2780
10.4120	 2.3830
10.4330	 2.2840
10.4540	 2.4450
10.4760	 2.4410
10.4970	 2.5040
10.5180	 2.3700
10.5390	 2.4300
10.5610	 2.2900
10.5820	 2.3890
10.6040	 2.3130
10.6260	 2.4230
10.6480	 2.3320
10.6700	 2.4260
10.6920	 2.3330
10.7140	 2.4310
10.7360	 2.3850
10.7580	 2.4980
10.7800	 2.3750
10.8030	 2.4000
10.8250	 2.2720
10.8480	 2.3960
10.8710	 2.2820
10.8940	 2.4210
10.9170	 2.3510
10.9400	 2.3890
10.9630	 2.2830
10.9860	 2.4140
11.0090	 2.3000
11.0330	 2.3890
11.0560	 2.2380
11.0800	 2.2790
11.1040	 2.1820
11.1270	 2.3490
11.1510	 2.2680
11.1750	 2.3340
11.2000	 2.1880
11.2240	 2.3580
11.2480	 2.2920
11.2730	 2.3750
11.2970	 2.2050
11.3220	 2.3190
11.3470	 2.2420
11.3720	 2.3580
11.3970	 2.2380
11.4220	 2.3740
11.4470	 2.2640
11.4720	 2.3880
11.4980	 2.2670
11.5230	 2.3820
11.5490	 2.2270
11.5750	 2.2590
11.6000	 2.0560
11.6260	 2.2380
11.6530	 2.2630
11.6790	 2.4150
11.7050	 2.3010
11.7320	 2.3990
11.7580	 2.1760
11.7850	 2.2350
11.8120	 2.1550
11.8390	 2.3240
11.8660	 2.1860
11.8930	 2.2580
11.9200	 2.1350
11.9480	 2.2580
11.9760	 2.1490
12.0030	 2.2850
12.0310	 2.2010
12.0590	 2.4140
12.0870	 2.2880
12.1150	 2.3820
12.1440	 2.2580
12.1720	 2.3400
12.2010	 2.1060
12.2300	 2.3050
12.2590	 2.2200
12.2880	 2.3000
12.3170	 2.0940
12.3460	 2.3190
12.3760	 2.2560
12.4050	 2.4590
12.4350	 2.3060
12.4650	 2.4340
12.4950	 2.2520
12.5250	 2.2440
12.5550	 2.1310
12.5860	 2.4880
12.6170	 2.3600
12.6470	 2.3720
12.6780	 2.2110
12.7090	 2.3510
12.7410	 2.1790
12.7720	 2.3110
12.8030	 2.1490
12.8350	 2.3030
12.8670	 2.1660
12.8990	 2.3840
12.9310	 2.3410
12.9640	 2.4650
12.9960	 2.1850
13.0290	 2.2750
13.0610	 2.0990
13.0940	 2.3120
13.1280	 2.2080
13.1610	 2.3170
13.1940	 2.1240
13.2280	 2.2980
13.2620	 2.1050
13.2960	 2.3550
13.3300	 2.2550
13.3640	 2.3800
13.3990	 2.1290
13.4340	 2.2670
13.4690	 2.0520
13.5040	 2.1750
13.5390	 2.1050
13.5740	 2.3620
13.6100	 2.1070
13.6460	 2.2280
13.6820	 2.0660
13.7180	 2.2820
13.7540	 2.1080
13.7910	 2.3340
13.8280	 2.0960
13.8650	 2.2800
13.9020	 2.2740
13.9390	 2.6150
13.9770	 2.4490
14.0150	 2.6240
14.0530	 2.4030
14.0910	 2.5810
14.1290	 2.2640
14.1680	 2.4860
14.2070	 2.3220
14.2460	 2.4520
14.2850	 2.1550
14.3240	 2.5050
14.3640	 2.3220
14.4040	 2.5110
14.4440	 2.1530
14.4840	 2.5040
14.5250	 2.3820
14.5660	 2.5720
14.6070	 2.0850
14.6480	 2.3520
14.6900	 2.0780
14.7310	 2.4120
14.7730	 2.0720
14.8150	 2.3350
14.8580	 2.2530
14.9010	 2.6170
14.9440	 2.1320
14.9870	 2.5830
15.0300	 2.1190
15.0740	 2.4030
15.1180	 2.1660
15.1620	 2.6420
15.2060	 2.1080
15.2510	 2.3500
15.2960	 2.0160
15.3410	 2.4860
15.3870	 0.0000
