Name: Cedrus deodara
Type: vegetation
Class: Tree
Genus: Cedrus
Species: deodara
Sample No.: JPL105
Owner: JPL
Wavelength Range: VSWIR
Origin: 34.12843; - 118.11538; WGS84
Collection Date: 2/2/2016
Description: Samples were collected at the Huntington Garden in San Marino California as part of a JPL Subcontract studying HyTES imagery. Samples were taken to JPL and processed within 48 hours of collection. The same leaves were processed in the Nicolet and then measured using the ASD.
Measurement: Bidirectional reflectance
First Column: X
Second Column: Y
X Units: Wavelength (micrometer)
Y Units: Reflectance (percentage)
First X Value: 0.35
Last X Value: 2.5
Number of X Values: 2151
Additional Information: 

 0.3500	 3.6560
 0.3510	 3.9510
 0.3520	 5.3880
 0.3530	 5.9510
 0.3540	 4.7120
 0.3550	 4.4880
 0.3560	 4.2020
 0.3570	 3.8470
 0.3580	 3.9140
 0.3590	 3.9270
 0.3600	 4.5730
 0.3610	 5.4070
 0.3620	 4.4930
 0.3630	 3.8750
 0.3640	 3.7830
 0.3650	 3.8870
 0.3660	 3.7490
 0.3670	 4.1760
 0.3680	 4.4260
 0.3690	 3.0810
 0.3700	 3.1110
 0.3710	 3.6120
 0.3720	 3.7160
 0.3730	 3.7170
 0.3740	 3.9100
 0.3750	 4.1590
 0.3760	 4.2220
 0.3770	 4.1360
 0.3780	 3.6800
 0.3790	 3.2370
 0.3800	 3.6070
 0.3810	 3.8300
 0.3820	 3.8560
 0.3830	 3.7680
 0.3840	 3.5440
 0.3850	 3.5620
 0.3860	 3.7280
 0.3870	 3.7930
 0.3880	 3.8540
 0.3890	 3.8030
 0.3900	 3.7070
 0.3910	 3.8040
 0.3920	 3.8900
 0.3930	 3.9230
 0.3940	 3.8790
 0.3950	 3.6620
 0.3960	 3.6520
 0.3970	 3.8160
 0.3980	 3.9020
 0.3990	 3.6670
 0.4000	 3.5510
 0.4010	 3.6390
 0.4020	 3.4660
 0.4030	 3.6570
 0.4040	 3.9290
 0.4050	 3.9370
 0.4060	 3.8640
 0.4070	 3.8990
 0.4080	 3.9590
 0.4090	 3.8240
 0.4100	 3.8170
 0.4110	 3.7540
 0.4120	 3.6200
 0.4130	 3.8590
 0.4140	 3.8790
 0.4150	 3.8200
 0.4160	 3.9410
 0.4170	 3.8730
 0.4180	 3.7370
 0.4190	 3.6700
 0.4200	 3.7860
 0.4210	 3.8000
 0.4220	 3.9070
 0.4230	 4.1640
 0.4240	 4.0490
 0.4250	 4.0290
 0.4260	 4.1070
 0.4270	 4.0920
 0.4280	 4.0800
 0.4290	 4.0890
 0.4300	 4.1100
 0.4310	 4.1020
 0.4320	 4.1700
 0.4330	 4.2550
 0.4340	 4.2830
 0.4350	 4.2710
 0.4360	 4.2420
 0.4370	 4.2440
 0.4380	 4.3250
 0.4390	 4.2370
 0.4400	 4.2150
 0.4410	 4.3500
 0.4420	 4.2430
 0.4430	 4.2160
 0.4440	 4.2870
 0.4450	 4.3550
 0.4460	 4.3980
 0.4470	 4.3300
 0.4480	 4.2160
 0.4490	 4.2910
 0.4500	 4.3420
 0.4510	 4.3730
 0.4520	 4.4230
 0.4530	 4.4890
 0.4540	 4.4390
 0.4550	 4.3400
 0.4560	 4.3750
 0.4570	 4.4560
 0.4580	 4.4760
 0.4590	 4.4170
 0.4600	 4.4290
 0.4610	 4.4470
 0.4620	 4.4410
 0.4630	 4.4080
 0.4640	 4.4190
 0.4650	 4.4540
 0.4660	 4.4500
 0.4670	 4.3160
 0.4680	 4.3330
 0.4690	 4.4000
 0.4700	 4.4040
 0.4710	 4.4230
 0.4720	 4.4270
 0.4730	 4.3980
 0.4740	 4.3440
 0.4750	 4.4440
 0.4760	 4.4840
 0.4770	 4.4050
 0.4780	 4.4550
 0.4790	 4.4260
 0.4800	 4.3980
 0.4810	 4.4750
 0.4820	 4.4680
 0.4830	 4.3990
 0.4840	 4.3600
 0.4850	 4.4770
 0.4860	 4.4430
 0.4870	 4.3760
 0.4880	 4.4070
 0.4890	 4.5240
 0.4900	 4.5380
 0.4910	 4.4700
 0.4920	 4.4400
 0.4930	 4.4320
 0.4940	 4.4620
 0.4950	 4.5170
 0.4960	 4.5390
 0.4970	 4.5010
 0.4980	 4.4920
 0.4990	 4.5750
 0.5000	 4.5640
 0.5010	 4.5550
 0.5020	 4.5990
 0.5030	 4.6940
 0.5040	 4.6890
 0.5050	 4.7000
 0.5060	 4.8040
 0.5070	 4.8760
 0.5080	 4.9190
 0.5090	 4.9610
 0.5100	 5.0330
 0.5110	 5.0730
 0.5120	 5.1750
 0.5130	 5.3440
 0.5140	 5.4450
 0.5150	 5.5390
 0.5160	 5.6520
 0.5170	 5.7880
 0.5180	 5.9090
 0.5190	 6.0440
 0.5200	 6.1870
 0.5210	 6.3160
 0.5220	 6.4920
 0.5230	 6.6430
 0.5240	 6.7390
 0.5250	 6.8830
 0.5260	 7.0350
 0.5270	 7.1750
 0.5280	 7.2900
 0.5290	 7.3790
 0.5300	 7.5070
 0.5310	 7.6580
 0.5320	 7.7150
 0.5330	 7.7520
 0.5340	 7.8260
 0.5350	 7.9500
 0.5360	 8.0130
 0.5370	 8.0580
 0.5380	 8.1080
 0.5390	 8.1730
 0.5400	 8.2320
 0.5410	 8.3170
 0.5420	 8.4260
 0.5430	 8.4780
 0.5440	 8.5250
 0.5450	 8.5690
 0.5460	 8.5920
 0.5470	 8.5560
 0.5480	 8.5170
 0.5490	 8.5110
 0.5500	 8.5450
 0.5510	 8.5630
 0.5520	 8.5710
 0.5530	 8.5780
 0.5540	 8.5480
 0.5550	 8.5360
 0.5560	 8.5280
 0.5570	 8.4630
 0.5580	 8.4080
 0.5590	 8.3660
 0.5600	 8.3240
 0.5610	 8.2520
 0.5620	 8.1590
 0.5630	 8.0780
 0.5640	 8.0370
 0.5650	 7.9860
 0.5660	 7.9020
 0.5670	 7.8020
 0.5680	 7.7370
 0.5690	 7.6630
 0.5700	 7.5570
 0.5710	 7.4270
 0.5720	 7.3530
 0.5730	 7.2610
 0.5740	 7.1520
 0.5750	 7.0730
 0.5760	 7.0110
 0.5770	 6.9450
 0.5780	 6.8730
 0.5790	 6.8230
 0.5800	 6.7800
 0.5810	 6.7410
 0.5820	 6.7060
 0.5830	 6.6900
 0.5840	 6.6420
 0.5850	 6.5670
 0.5860	 6.5340
 0.5870	 6.5180
 0.5880	 6.4970
 0.5890	 6.4560
 0.5900	 6.4100
 0.5910	 6.3780
 0.5920	 6.3530
 0.5930	 6.3150
 0.5940	 6.3100
 0.5950	 6.3130
 0.5960	 6.3040
 0.5970	 6.2770
 0.5980	 6.2660
 0.5990	 6.2570
 0.6000	 6.2300
 0.6010	 6.2050
 0.6020	 6.1820
 0.6030	 6.1600
 0.6040	 6.1410
 0.6050	 6.0910
 0.6060	 6.0350
 0.6070	 6.0010
 0.6080	 5.9720
 0.6090	 5.9460
 0.6100	 5.9190
 0.6110	 5.8830
 0.6120	 5.8370
 0.6130	 5.7870
 0.6140	 5.7360
 0.6150	 5.6810
 0.6160	 5.6110
 0.6170	 5.5450
 0.6180	 5.5010
 0.6190	 5.4720
 0.6200	 5.4410
 0.6210	 5.4120
 0.6220	 5.4010
 0.6230	 5.4050
 0.6240	 5.3850
 0.6250	 5.3320
 0.6260	 5.3220
 0.6270	 5.3200
 0.6280	 5.3090
 0.6290	 5.2900
 0.6300	 5.3090
 0.6310	 5.3220
 0.6320	 5.3140
 0.6330	 5.3090
 0.6340	 5.2980
 0.6350	 5.2820
 0.6360	 5.2650
 0.6370	 5.2410
 0.6380	 5.2340
 0.6390	 5.2160
 0.6400	 5.1440
 0.6410	 5.1160
 0.6420	 5.0890
 0.6430	 5.0440
 0.6440	 5.0250
 0.6450	 4.9890
 0.6460	 4.9330
 0.6470	 4.8700
 0.6480	 4.8390
 0.6490	 4.8160
 0.6500	 4.7920
 0.6510	 4.7770
 0.6520	 4.7640
 0.6530	 4.7250
 0.6540	 4.6660
 0.6550	 4.6680
 0.6560	 4.6640
 0.6570	 4.6360
 0.6580	 4.5920
 0.6590	 4.5440
 0.6600	 4.5080
 0.6610	 4.4840
 0.6620	 4.4580
 0.6630	 4.4350
 0.6640	 4.4130
 0.6650	 4.3870
 0.6660	 4.3420
 0.6670	 4.3140
 0.6680	 4.3030
 0.6690	 4.2920
 0.6700	 4.2990
 0.6710	 4.2990
 0.6720	 4.2850
 0.6730	 4.2860
 0.6740	 4.3060
 0.6750	 4.3180
 0.6760	 4.3100
 0.6770	 4.3310
 0.6780	 4.3500
 0.6790	 4.3620
 0.6800	 4.3850
 0.6810	 4.3800
 0.6820	 4.3970
 0.6830	 4.4590
 0.6840	 4.5340
 0.6850	 4.5600
 0.6860	 4.5890
 0.6870	 4.6820
 0.6880	 4.7900
 0.6890	 4.9050
 0.6900	 5.0400
 0.6910	 5.2250
 0.6920	 5.4520
 0.6930	 5.7230
 0.6940	 6.0430
 0.6950	 6.4300
 0.6960	 6.8340
 0.6970	 7.2760
 0.6980	 7.7830
 0.6990	 8.2880
 0.7000	 8.8480
 0.7010	 9.4630
 0.7020	10.0680
 0.7030	10.6760
 0.7040	11.3180
 0.7050	11.9950
 0.7060	12.6560
 0.7070	13.3210
 0.7080	14.0040
 0.7090	14.7140
 0.7100	15.4020
 0.7110	16.1050
 0.7120	16.8370
 0.7130	17.5950
 0.7140	18.3380
 0.7150	19.0900
 0.7160	19.8670
 0.7170	20.6310
 0.7180	21.4140
 0.7190	22.2120
 0.7200	23.0080
 0.7210	23.7870
 0.7220	24.5870
 0.7230	25.4000
 0.7240	26.1750
 0.7250	26.9320
 0.7260	27.6810
 0.7270	28.4300
 0.7280	29.1780
 0.7290	29.8940
 0.7300	30.5830
 0.7310	31.2590
 0.7320	31.9100
 0.7330	32.5410
 0.7340	33.1520
 0.7350	33.7410
 0.7360	34.2840
 0.7370	34.8030
 0.7380	35.3100
 0.7390	35.7860
 0.7400	36.2300
 0.7410	36.6460
 0.7420	37.0450
 0.7430	37.4380
 0.7440	37.7870
 0.7450	38.0960
 0.7460	38.4120
 0.7470	38.7080
 0.7480	38.9670
 0.7490	39.1940
 0.7500	39.4320
 0.7510	39.6560
 0.7520	39.8440
 0.7530	39.9920
 0.7540	40.1680
 0.7550	40.3380
 0.7560	40.4800
 0.7570	40.5920
 0.7580	40.7020
 0.7590	40.8100
 0.7600	40.9110
 0.7610	41.0000
 0.7620	41.0890
 0.7630	41.1710
 0.7640	41.2370
 0.7650	41.3000
 0.7660	41.3540
 0.7670	41.4080
 0.7680	41.4800
 0.7690	41.5300
 0.7700	41.5600
 0.7710	41.5870
 0.7720	41.6360
 0.7730	41.6800
 0.7740	41.7120
 0.7750	41.7330
 0.7760	41.7350
 0.7770	41.7720
 0.7780	41.8280
 0.7790	41.8550
 0.7800	41.8780
 0.7810	41.8980
 0.7820	41.9190
 0.7830	41.9440
 0.7840	41.9530
 0.7850	41.9540
 0.7860	41.9620
 0.7870	42.0030
 0.7880	42.0310
 0.7890	42.0360
 0.7900	42.0280
 0.7910	42.0330
 0.7920	42.0510
 0.7930	42.0690
 0.7940	42.0660
 0.7950	42.0610
 0.7960	42.0590
 0.7970	42.0700
 0.7980	42.1100
 0.7990	42.0980
 0.8000	42.0840
 0.8010	42.1090
 0.8020	42.1110
 0.8030	42.1200
 0.8040	42.1250
 0.8050	42.1080
 0.8060	42.1130
 0.8070	42.1250
 0.8080	42.1310
 0.8090	42.1240
 0.8100	42.1040
 0.8110	42.1090
 0.8120	42.1360
 0.8130	42.1250
 0.8140	42.1160
 0.8150	42.1060
 0.8160	42.0880
 0.8170	42.1020
 0.8180	42.1100
 0.8190	42.1090
 0.8200	42.1080
 0.8210	42.1220
 0.8220	42.1330
 0.8230	42.1300
 0.8240	42.1130
 0.8250	42.1150
 0.8260	42.1290
 0.8270	42.1430
 0.8280	42.1520
 0.8290	42.1350
 0.8300	42.1190
 0.8310	42.1250
 0.8320	42.1120
 0.8330	42.1290
 0.8340	42.1680
 0.8350	42.1920
 0.8360	42.1680
 0.8370	42.1600
 0.8380	42.1820
 0.8390	42.1980
 0.8400	42.2090
 0.8410	42.2110
 0.8420	42.2170
 0.8430	42.2590
 0.8440	42.2720
 0.8450	42.2590
 0.8460	42.2460
 0.8470	42.2750
 0.8480	42.3160
 0.8490	42.3470
 0.8500	42.3570
 0.8510	42.3670
 0.8520	42.3830
 0.8530	42.3990
 0.8540	42.4040
 0.8550	42.4460
 0.8560	42.4760
 0.8570	42.4760
 0.8580	42.4650
 0.8590	42.4970
 0.8600	42.5230
 0.8610	42.5170
 0.8620	42.5250
 0.8630	42.5700
 0.8640	42.6060
 0.8650	42.6000
 0.8660	42.6150
 0.8670	42.6580
 0.8680	42.6930
 0.8690	42.6840
 0.8700	42.6650
 0.8710	42.6810
 0.8720	42.7190
 0.8730	42.7330
 0.8740	42.7470
 0.8750	42.7680
 0.8760	42.7920
 0.8770	42.8060
 0.8780	42.8260
 0.8790	42.8390
 0.8800	42.8430
 0.8810	42.8610
 0.8820	42.8590
 0.8830	42.8690
 0.8840	42.9030
 0.8850	42.9040
 0.8860	42.9080
 0.8870	42.9190
 0.8880	42.9330
 0.8890	42.9560
 0.8900	42.9680
 0.8910	42.9680
 0.8920	42.9650
 0.8930	42.9640
 0.8940	42.9770
 0.8950	42.9950
 0.8960	43.0030
 0.8970	43.0080
 0.8980	43.0110
 0.8990	43.0110
 0.9000	43.0070
 0.9010	42.9930
 0.9020	42.9880
 0.9030	42.9960
 0.9040	42.9900
 0.9050	42.9670
 0.9060	42.9620
 0.9070	42.9860
 0.9080	42.9900
 0.9090	43.0130
 0.9100	43.0130
 0.9110	42.9690
 0.9120	42.9670
 0.9130	42.9800
 0.9140	42.9960
 0.9150	43.0030
 0.9160	42.9880
 0.9170	42.9850
 0.9180	42.9720
 0.9190	42.9310
 0.9200	42.9550
 0.9210	42.9350
 0.9220	42.8880
 0.9230	42.8880
 0.9240	42.8830
 0.9250	42.8860
 0.9260	42.8740
 0.9270	42.8140
 0.9280	42.7910
 0.9290	42.7670
 0.9300	42.7240
 0.9310	42.6770
 0.9320	42.6600
 0.9330	42.6710
 0.9340	42.6640
 0.9350	42.5630
 0.9360	42.5630
 0.9370	42.5400
 0.9380	42.4390
 0.9390	42.3880
 0.9400	42.3210
 0.9410	42.2580
 0.9420	42.2250
 0.9430	42.2330
 0.9440	42.1400
 0.9450	42.0270
 0.9460	41.9740
 0.9470	41.9410
 0.9480	41.8340
 0.9490	41.7500
 0.9500	41.7410
 0.9510	41.6100
 0.9520	41.5080
 0.9530	41.4120
 0.9540	41.2780
 0.9550	41.1440
 0.9560	41.0530
 0.9570	40.9870
 0.9580	40.9000
 0.9590	40.7300
 0.9600	40.6890
 0.9610	40.7010
 0.9620	40.6180
 0.9630	40.4630
 0.9640	40.3770
 0.9650	40.3610
 0.9660	40.3480
 0.9670	40.3110
 0.9680	40.2240
 0.9690	40.1710
 0.9700	40.2280
 0.9710	40.2410
 0.9720	40.2290
 0.9730	40.1780
 0.9740	40.0810
 0.9750	39.9960
 0.9760	39.9570
 0.9770	40.0090
 0.9780	40.1330
 0.9790	40.0530
 0.9800	40.0020
 0.9810	40.0280
 0.9820	40.0550
 0.9830	39.9770
 0.9840	39.9650
 0.9850	39.9970
 0.9860	39.9790
 0.9870	40.0200
 0.9880	40.0740
 0.9890	40.1170
 0.9900	40.1390
 0.9910	40.1340
 0.9920	40.0960
 0.9930	40.0760
 0.9940	40.1370
 0.9950	40.2640
 0.9960	40.3280
 0.9970	40.3240
 0.9980	40.3160
 0.9990	40.3270
 1.0000	40.3270
 1.0010	40.9340
 1.0020	40.9660
 1.0030	41.0010
 1.0040	41.0200
 1.0050	41.0620
 1.0060	41.1180
 1.0070	41.1700
 1.0080	41.2170
 1.0090	41.2730
 1.0100	41.3220
 1.0110	41.3510
 1.0120	41.3980
 1.0130	41.4670
 1.0140	41.5160
 1.0150	41.5660
 1.0160	41.5900
 1.0170	41.6360
 1.0180	41.6730
 1.0190	41.7170
 1.0200	41.7860
 1.0210	41.8350
 1.0220	41.8610
 1.0230	41.8940
 1.0240	41.9210
 1.0250	41.9590
 1.0260	41.9900
 1.0270	42.0380
 1.0280	42.1040
 1.0290	42.1580
 1.0300	42.2230
 1.0310	42.2770
 1.0320	42.3350
 1.0330	42.3630
 1.0340	42.3940
 1.0350	42.4280
 1.0360	42.4430
 1.0370	42.4660
 1.0380	42.5000
 1.0390	42.5450
 1.0400	42.5720
 1.0410	42.5970
 1.0420	42.6300
 1.0430	42.6520
 1.0440	42.6890
 1.0450	42.7520
 1.0460	42.7950
 1.0470	42.8300
 1.0480	42.8590
 1.0490	42.8650
 1.0500	42.8910
 1.0510	42.9120
 1.0520	42.9580
 1.0530	42.9870
 1.0540	43.0240
 1.0550	43.0540
 1.0560	43.0800
 1.0570	43.0880
 1.0580	43.0850
 1.0590	43.0950
 1.0600	43.0820
 1.0610	43.0940
 1.0620	43.1310
 1.0630	43.1640
 1.0640	43.2100
 1.0650	43.2420
 1.0660	43.2760
 1.0670	43.2980
 1.0680	43.3110
 1.0690	43.3090
 1.0700	43.3070
 1.0710	43.2900
 1.0720	43.2970
 1.0730	43.3060
 1.0740	43.3220
 1.0750	43.3710
 1.0760	43.3820
 1.0770	43.3690
 1.0780	43.3720
 1.0790	43.3660
 1.0800	43.3640
 1.0810	43.3840
 1.0820	43.3800
 1.0830	43.3450
 1.0840	43.3320
 1.0850	43.3230
 1.0860	43.3120
 1.0870	43.3030
 1.0880	43.3040
 1.0890	43.3090
 1.0900	43.3170
 1.0910	43.3100
 1.0920	43.3120
 1.0930	43.2970
 1.0940	43.2490
 1.0950	43.2270
 1.0960	43.2170
 1.0970	43.2020
 1.0980	43.1900
 1.0990	43.1820
 1.1000	43.1860
 1.1010	43.1710
 1.1020	43.1510
 1.1030	43.1270
 1.1040	43.1040
 1.1050	43.0700
 1.1060	43.0540
 1.1070	43.0590
 1.1080	43.0400
 1.1090	43.0200
 1.1100	42.9930
 1.1110	42.9550
 1.1120	42.9170
 1.1130	42.8760
 1.1140	42.8310
 1.1150	42.7750
 1.1160	42.7310
 1.1170	42.7030
 1.1180	42.6580
 1.1190	42.6100
 1.1200	42.5620
 1.1210	42.5100
 1.1220	42.4420
 1.1230	42.3720
 1.1240	42.3020
 1.1250	42.2220
 1.1260	42.1290
 1.1270	42.0330
 1.1280	41.9350
 1.1290	41.8280
 1.1300	41.7160
 1.1310	41.5830
 1.1320	41.4500
 1.1330	41.2880
 1.1340	41.0930
 1.1350	40.9070
 1.1360	40.7040
 1.1370	40.5050
 1.1380	40.3140
 1.1390	40.1140
 1.1400	39.9130
 1.1410	39.6910
 1.1420	39.4610
 1.1430	39.2330
 1.1440	39.0000
 1.1450	38.7580
 1.1460	38.5320
 1.1470	38.3030
 1.1480	38.0900
 1.1490	37.8910
 1.1500	37.6960
 1.1510	37.5030
 1.1520	37.3280
 1.1530	37.1680
 1.1540	37.0100
 1.1550	36.8580
 1.1560	36.7280
 1.1570	36.5960
 1.1580	36.4680
 1.1590	36.3610
 1.1600	36.2600
 1.1610	36.1760
 1.1620	36.1060
 1.1630	36.0380
 1.1640	35.9800
 1.1650	35.9180
 1.1660	35.8510
 1.1670	35.7980
 1.1680	35.7540
 1.1690	35.7040
 1.1700	35.6580
 1.1710	35.6130
 1.1720	35.5620
 1.1730	35.5150
 1.1740	35.4780
 1.1750	35.4340
 1.1760	35.3800
 1.1770	35.3440
 1.1780	35.3000
 1.1790	35.2420
 1.1800	35.1920
 1.1810	35.1460
 1.1820	35.1100
 1.1830	35.0840
 1.1840	35.0580
 1.1850	35.0320
 1.1860	34.9980
 1.1870	34.9630
 1.1880	34.9310
 1.1890	34.8960
 1.1900	34.8640
 1.1910	34.8340
 1.1920	34.8080
 1.1930	34.7880
 1.1940	34.7680
 1.1950	34.7510
 1.1960	34.7360
 1.1970	34.7120
 1.1980	34.6920
 1.1990	34.6810
 1.2000	34.6780
 1.2010	34.6930
 1.2020	34.7110
 1.2030	34.7200
 1.2040	34.7290
 1.2050	34.7390
 1.2060	34.7520
 1.2070	34.7850
 1.2080	34.8170
 1.2090	34.8350
 1.2100	34.8600
 1.2110	34.8840
 1.2120	34.8900
 1.2130	34.9210
 1.2140	34.9690
 1.2150	35.0130
 1.2160	35.0600
 1.2170	35.1160
 1.2180	35.1690
 1.2190	35.2300
 1.2200	35.2900
 1.2210	35.3410
 1.2220	35.3980
 1.2230	35.4420
 1.2240	35.4860
 1.2250	35.5450
 1.2260	35.5970
 1.2270	35.6520
 1.2280	35.7070
 1.2290	35.7500
 1.2300	35.7960
 1.2310	35.8410
 1.2320	35.8870
 1.2330	35.9440
 1.2340	35.9940
 1.2350	36.0430
 1.2360	36.0870
 1.2370	36.1280
 1.2380	36.1610
 1.2390	36.1910
 1.2400	36.2200
 1.2410	36.2560
 1.2420	36.2920
 1.2430	36.3230
 1.2440	36.3540
 1.2450	36.3800
 1.2460	36.4100
 1.2470	36.4490
 1.2480	36.4850
 1.2490	36.5200
 1.2500	36.5540
 1.2510	36.5800
 1.2520	36.6090
 1.2530	36.6450
 1.2540	36.6630
 1.2550	36.6770
 1.2560	36.7040
 1.2570	36.7230
 1.2580	36.7330
 1.2590	36.7510
 1.2600	36.7790
 1.2610	36.7890
 1.2620	36.7900
 1.2630	36.8060
 1.2640	36.8130
 1.2650	36.8060
 1.2660	36.8070
 1.2670	36.8090
 1.2680	36.8000
 1.2690	36.7980
 1.2700	36.8050
 1.2710	36.7980
 1.2720	36.7980
 1.2730	36.8020
 1.2740	36.7920
 1.2750	36.7780
 1.2760	36.7600
 1.2770	36.7410
 1.2780	36.7250
 1.2790	36.7080
 1.2800	36.6900
 1.2810	36.6720
 1.2820	36.6490
 1.2830	36.6270
 1.2840	36.6050
 1.2850	36.5700
 1.2860	36.5340
 1.2870	36.5000
 1.2880	36.4650
 1.2890	36.4320
 1.2900	36.3980
 1.2910	36.3590
 1.2920	36.3210
 1.2930	36.2800
 1.2940	36.2300
 1.2950	36.1770
 1.2960	36.1120
 1.2970	36.0420
 1.2980	35.9780
 1.2990	35.9110
 1.3000	35.8320
 1.3010	35.7440
 1.3020	35.6530
 1.3030	35.5620
 1.3040	35.4810
 1.3050	35.3970
 1.3060	35.3130
 1.3070	35.2250
 1.3080	35.1150
 1.3090	35.0130
 1.3100	34.9140
 1.3110	34.7960
 1.3120	34.6900
 1.3130	34.5850
 1.3140	34.4640
 1.3150	34.3280
 1.3160	34.1950
 1.3170	34.0560
 1.3180	33.9100
 1.3190	33.7610
 1.3200	33.6140
 1.3210	33.4570
 1.3220	33.2840
 1.3230	33.1160
 1.3240	32.9530
 1.3250	32.7900
 1.3260	32.6330
 1.3270	32.4800
 1.3280	32.3130
 1.3290	32.1350
 1.3300	31.9590
 1.3310	31.7780
 1.3320	31.5980
 1.3330	31.4160
 1.3340	31.2400
 1.3350	31.0700
 1.3360	30.8920
 1.3370	30.7210
 1.3380	30.5580
 1.3390	30.3850
 1.3400	30.2130
 1.3410	30.0450
 1.3420	29.8680
 1.3430	29.6900
 1.3440	29.5150
 1.3450	29.3540
 1.3460	29.2060
 1.3470	29.0560
 1.3480	28.9130
 1.3490	28.7670
 1.3500	28.6190
 1.3510	28.4620
 1.3520	28.3160
 1.3530	28.1710
 1.3540	28.0240
 1.3550	27.8730
 1.3560	27.7220
 1.3570	27.5820
 1.3580	27.4420
 1.3590	27.3100
 1.3600	27.1780
 1.3610	27.0320
 1.3620	26.8810
 1.3630	26.7230
 1.3640	26.5580
 1.3650	26.3890
 1.3660	26.2130
 1.3670	26.0310
 1.3680	25.8400
 1.3690	25.6430
 1.3700	25.4350
 1.3710	25.2150
 1.3720	24.9850
 1.3730	24.7360
 1.3740	24.4680
 1.3750	24.1910
 1.3760	23.8980
 1.3770	23.5860
 1.3780	23.2580
 1.3790	22.9150
 1.3800	22.5570
 1.3810	22.1800
 1.3820	21.7900
 1.3830	21.3880
 1.3840	20.9700
 1.3850	20.5330
 1.3860	20.0920
 1.3870	19.6300
 1.3880	19.1790
 1.3890	18.7260
 1.3900	18.2700
 1.3910	17.8220
 1.3920	17.3750
 1.3930	16.9240
 1.3940	16.4840
 1.3950	16.0460
 1.3960	15.6160
 1.3970	15.2010
 1.3980	14.7940
 1.3990	14.4070
 1.4000	14.0400
 1.4010	13.6870
 1.4020	13.3520
 1.4030	13.0300
 1.4040	12.7180
 1.4050	12.4220
 1.4060	12.1430
 1.4070	11.8830
 1.4080	11.6380
 1.4090	11.4060
 1.4100	11.1850
 1.4110	10.9750
 1.4120	10.7780
 1.4130	10.5960
 1.4140	10.4280
 1.4150	10.2720
 1.4160	10.1290
 1.4170	 9.9970
 1.4180	 9.8700
 1.4190	 9.7530
 1.4200	 9.6420
 1.4210	 9.5340
 1.4220	 9.4390
 1.4230	 9.3520
 1.4240	 9.2700
 1.4250	 9.1930
 1.4260	 9.1220
 1.4270	 9.0580
 1.4280	 8.9980
 1.4290	 8.9440
 1.4300	 8.8970
 1.4310	 8.8510
 1.4320	 8.8070
 1.4330	 8.7670
 1.4340	 8.7270
 1.4350	 8.6940
 1.4360	 8.6670
 1.4370	 8.6370
 1.4380	 8.6120
 1.4390	 8.5960
 1.4400	 8.5780
 1.4410	 8.5650
 1.4420	 8.5550
 1.4430	 8.5430
 1.4440	 8.5320
 1.4450	 8.5210
 1.4460	 8.5100
 1.4470	 8.5060
 1.4480	 8.5040
 1.4490	 8.5050
 1.4500	 8.5030
 1.4510	 8.5000
 1.4520	 8.5020
 1.4530	 8.5060
 1.4540	 8.5120
 1.4550	 8.5220
 1.4560	 8.5290
 1.4570	 8.5340
 1.4580	 8.5390
 1.4590	 8.5450
 1.4600	 8.5530
 1.4610	 8.5690
 1.4620	 8.5900
 1.4630	 8.6120
 1.4640	 8.6400
 1.4650	 8.6660
 1.4660	 8.6940
 1.4670	 8.7270
 1.4680	 8.7590
 1.4690	 8.7930
 1.4700	 8.8280
 1.4710	 8.8710
 1.4720	 8.9170
 1.4730	 8.9650
 1.4740	 9.0160
 1.4750	 9.0610
 1.4760	 9.1070
 1.4770	 9.1590
 1.4780	 9.2120
 1.4790	 9.2760
 1.4800	 9.3410
 1.4810	 9.3980
 1.4820	 9.4590
 1.4830	 9.5160
 1.4840	 9.5720
 1.4850	 9.6350
 1.4860	 9.6950
 1.4870	 9.7570
 1.4880	 9.8230
 1.4890	 9.8850
 1.4900	 9.9520
 1.4910	10.0230
 1.4920	10.0920
 1.4930	10.1600
 1.4940	10.2310
 1.4950	10.3050
 1.4960	10.3760
 1.4970	10.4470
 1.4980	10.5180
 1.4990	10.5850
 1.5000	10.6540
 1.5010	10.7220
 1.5020	10.7940
 1.5030	10.8710
 1.5040	10.9460
 1.5050	11.0250
 1.5060	11.1030
 1.5070	11.1750
 1.5080	11.2500
 1.5090	11.3260
 1.5100	11.4010
 1.5110	11.4760
 1.5120	11.5510
 1.5130	11.6230
 1.5140	11.7010
 1.5150	11.7830
 1.5160	11.8610
 1.5170	11.9390
 1.5180	12.0140
 1.5190	12.0810
 1.5200	12.1540
 1.5210	12.2280
 1.5220	12.2990
 1.5230	12.3720
 1.5240	12.4410
 1.5250	12.5150
 1.5260	12.5880
 1.5270	12.6630
 1.5280	12.7410
 1.5290	12.8120
 1.5300	12.8830
 1.5310	12.9540
 1.5320	13.0200
 1.5330	13.0870
 1.5340	13.1550
 1.5350	13.2240
 1.5360	13.2970
 1.5370	13.3670
 1.5380	13.4370
 1.5390	13.5050
 1.5400	13.5670
 1.5410	13.6270
 1.5420	13.6960
 1.5430	13.7590
 1.5440	13.8220
 1.5450	13.8880
 1.5460	13.9490
 1.5470	14.0150
 1.5480	14.0840
 1.5490	14.1560
 1.5500	14.2280
 1.5510	14.2870
 1.5520	14.3460
 1.5530	14.4060
 1.5540	14.4620
 1.5550	14.5260
 1.5560	14.5930
 1.5570	14.6530
 1.5580	14.7160
 1.5590	14.7800
 1.5600	14.8400
 1.5610	14.9010
 1.5620	14.9610
 1.5630	15.0190
 1.5640	15.0760
 1.5650	15.1320
 1.5660	15.1870
 1.5670	15.2430
 1.5680	15.3070
 1.5690	15.3690
 1.5700	15.4290
 1.5710	15.4880
 1.5720	15.5380
 1.5730	15.5860
 1.5740	15.6330
 1.5750	15.6800
 1.5760	15.7350
 1.5770	15.7880
 1.5780	15.8460
 1.5790	15.9060
 1.5800	15.9540
 1.5810	16.0060
 1.5820	16.0610
 1.5830	16.1110
 1.5840	16.1690
 1.5850	16.2240
 1.5860	16.2740
 1.5870	16.3240
 1.5880	16.3720
 1.5890	16.4190
 1.5900	16.4710
 1.5910	16.5280
 1.5920	16.5800
 1.5930	16.6340
 1.5940	16.6880
 1.5950	16.7350
 1.5960	16.7880
 1.5970	16.8450
 1.5980	16.9020
 1.5990	16.9570
 1.6000	17.0070
 1.6010	17.0520
 1.6020	17.0950
 1.6030	17.1360
 1.6040	17.1770
 1.6050	17.2240
 1.6060	17.2740
 1.6070	17.3260
 1.6080	17.3820
 1.6090	17.4340
 1.6100	17.4880
 1.6110	17.5370
 1.6120	17.5790
 1.6130	17.6210
 1.6140	17.6530
 1.6150	17.6830
 1.6160	17.7190
 1.6170	17.7590
 1.6180	17.7990
 1.6190	17.8380
 1.6200	17.8730
 1.6210	17.9040
 1.6220	17.9380
 1.6230	17.9720
 1.6240	18.0120
 1.6250	18.0540
 1.6260	18.0900
 1.6270	18.1200
 1.6280	18.1480
 1.6290	18.1800
 1.6300	18.2140
 1.6310	18.2470
 1.6320	18.2820
 1.6330	18.3170
 1.6340	18.3530
 1.6350	18.3850
 1.6360	18.4180
 1.6370	18.4460
 1.6380	18.4660
 1.6390	18.4920
 1.6400	18.5200
 1.6410	18.5460
 1.6420	18.5760
 1.6430	18.5960
 1.6440	18.6110
 1.6450	18.6180
 1.6460	18.6260
 1.6470	18.6380
 1.6480	18.6440
 1.6490	18.6480
 1.6500	18.6500
 1.6510	18.6470
 1.6520	18.6500
 1.6530	18.6550
 1.6540	18.6620
 1.6550	18.6730
 1.6560	18.6760
 1.6570	18.6790
 1.6580	18.6780
 1.6590	18.6680
 1.6600	18.6650
 1.6610	18.6580
 1.6620	18.6510
 1.6630	18.6530
 1.6640	18.6450
 1.6650	18.6400
 1.6660	18.6340
 1.6670	18.6210
 1.6680	18.6130
 1.6690	18.6070
 1.6700	18.6030
 1.6710	18.5990
 1.6720	18.5920
 1.6730	18.5900
 1.6740	18.5910
 1.6750	18.5900
 1.6760	18.5880
 1.6770	18.5770
 1.6780	18.5540
 1.6790	18.5340
 1.6800	18.5200
 1.6810	18.5060
 1.6820	18.4960
 1.6830	18.4820
 1.6840	18.4680
 1.6850	18.4470
 1.6860	18.4170
 1.6870	18.3870
 1.6880	18.3510
 1.6890	18.3230
 1.6900	18.2920
 1.6910	18.2620
 1.6920	18.2250
 1.6930	18.1790
 1.6940	18.1360
 1.6950	18.0910
 1.6960	18.0430
 1.6970	17.9930
 1.6980	17.9470
 1.6990	17.8990
 1.7000	17.8530
 1.7010	17.8150
 1.7020	17.7680
 1.7030	17.7170
 1.7040	17.6660
 1.7050	17.6100
 1.7060	17.5570
 1.7070	17.5040
 1.7080	17.4520
 1.7090	17.4010
 1.7100	17.3480
 1.7110	17.2930
 1.7120	17.2450
 1.7130	17.2010
 1.7140	17.1540
 1.7150	17.1090
 1.7160	17.0570
 1.7170	17.0070
 1.7180	16.9680
 1.7190	16.9370
 1.7200	16.9100
 1.7210	16.8760
 1.7220	16.8380
 1.7230	16.7990
 1.7240	16.7560
 1.7250	16.7220
 1.7260	16.7010
 1.7270	16.6750
 1.7280	16.6540
 1.7290	16.6320
 1.7300	16.5880
 1.7310	16.5570
 1.7320	16.5300
 1.7330	16.5070
 1.7340	16.5000
 1.7350	16.4790
 1.7360	16.4510
 1.7370	16.4260
 1.7380	16.3890
 1.7390	16.3620
 1.7400	16.3460
 1.7410	16.3170
 1.7420	16.2810
 1.7430	16.2540
 1.7440	16.2260
 1.7450	16.1960
 1.7460	16.1730
 1.7470	16.1400
 1.7480	16.0920
 1.7490	16.0560
 1.7500	16.0240
 1.7510	15.9880
 1.7520	15.9580
 1.7530	15.9120
 1.7540	15.8530
 1.7550	15.7990
 1.7560	15.7520
 1.7570	15.7220
 1.7580	15.6980
 1.7590	15.6660
 1.7600	15.6340
 1.7610	15.5890
 1.7620	15.5560
 1.7630	15.5320
 1.7640	15.5100
 1.7650	15.4950
 1.7660	15.4790
 1.7670	15.4660
 1.7680	15.4460
 1.7690	15.4220
 1.7700	15.3980
 1.7710	15.3620
 1.7720	15.3410
 1.7730	15.3300
 1.7740	15.3130
 1.7750	15.3060
 1.7760	15.2860
 1.7770	15.2480
 1.7780	15.2300
 1.7790	15.2130
 1.7800	15.2030
 1.7810	15.2090
 1.7820	15.2030
 1.7830	15.1940
 1.7840	15.1790
 1.7850	15.1570
 1.7860	15.1480
 1.7870	15.1390
 1.7880	15.1500
 1.7890	15.1670
 1.7900	15.1890
 1.7910	15.2010
 1.7920	15.2060
 1.7930	15.2120
 1.7940	15.2070
 1.7950	15.2110
 1.7960	15.2250
 1.7970	15.2340
 1.7980	15.2460
 1.7990	15.2580
 1.8000	15.2710
 1.8010	15.2780
 1.8020	15.2800
 1.8030	15.2850
 1.8040	15.2810
 1.8050	15.2900
 1.8060	15.3100
 1.8070	15.3210
 1.8080	15.3300
 1.8090	15.3410
 1.8100	15.3440
 1.8110	15.3680
 1.8120	15.4010
 1.8130	15.4230
 1.8140	15.4430
 1.8150	15.4480
 1.8160	15.4240
 1.8170	15.3950
 1.8180	15.3870
 1.8190	15.3980
 1.8200	15.4050
 1.8210	15.4360
 1.8220	15.4440
 1.8230	15.4310
 1.8240	15.4280
 1.8250	15.4220
 1.8260	15.4180
 1.8270	15.4150
 1.8280	15.4100
 1.8290	15.4020
 1.8300	15.3940
 1.8310	15.2770
 1.8320	15.2640
 1.8330	15.2430
 1.8340	15.2220
 1.8350	15.2110
 1.8360	15.2100
 1.8370	15.2040
 1.8380	15.1910
 1.8390	15.1610
 1.8400	15.1020
 1.8410	15.0710
 1.8420	15.0500
 1.8430	15.0080
 1.8440	14.9850
 1.8450	14.8970
 1.8460	14.7960
 1.8470	14.7140
 1.8480	14.6190
 1.8490	14.5560
 1.8500	14.4690
 1.8510	14.3760
 1.8520	14.2690
 1.8530	14.1740
 1.8540	14.0550
 1.8550	13.9380
 1.8560	13.8120
 1.8570	13.6730
 1.8580	13.5290
 1.8590	13.3810
 1.8600	13.2280
 1.8610	13.0800
 1.8620	12.9190
 1.8630	12.7470
 1.8640	12.5710
 1.8650	12.3800
 1.8660	12.1710
 1.8670	11.9510
 1.8680	11.7110
 1.8690	11.4620
 1.8700	11.2070
 1.8710	10.9470
 1.8720	10.6670
 1.8730	10.3850
 1.8740	10.1110
 1.8750	 9.8290
 1.8760	 9.5470
 1.8770	 9.2800
 1.8780	 8.9990
 1.8790	 8.7070
 1.8800	 8.4330
 1.8810	 8.1670
 1.8820	 7.8970
 1.8830	 7.6360
 1.8840	 7.3900
 1.8850	 7.1460
 1.8860	 6.9020
 1.8870	 6.6610
 1.8880	 6.4280
 1.8890	 6.1960
 1.8900	 5.9760
 1.8910	 5.7700
 1.8920	 5.5740
 1.8930	 5.3930
 1.8940	 5.2290
 1.8950	 5.0620
 1.8960	 4.9050
 1.8970	 4.7680
 1.8980	 4.6500
 1.8990	 4.5470
 1.9000	 4.4520
 1.9010	 4.3850
 1.9020	 4.3060
 1.9030	 4.2270
 1.9040	 4.1520
 1.9050	 4.0790
 1.9060	 4.0180
 1.9070	 3.9560
 1.9080	 3.9030
 1.9090	 3.8720
 1.9100	 3.8230
 1.9110	 3.7810
 1.9120	 3.7390
 1.9130	 3.7110
 1.9140	 3.6850
 1.9150	 3.6730
 1.9160	 3.6740
 1.9170	 3.6760
 1.9180	 3.6720
 1.9190	 3.6650
 1.9200	 3.6540
 1.9210	 3.6460
 1.9220	 3.6350
 1.9230	 3.6160
 1.9240	 3.6060
 1.9250	 3.6040
 1.9260	 3.5890
 1.9270	 3.5760
 1.9280	 3.5700
 1.9290	 3.5480
 1.9300	 3.5470
 1.9310	 3.5560
 1.9320	 3.5490
 1.9330	 3.5550
 1.9340	 3.5720
 1.9350	 3.5810
 1.9360	 3.5940
 1.9370	 3.6070
 1.9380	 3.6240
 1.9390	 3.6260
 1.9400	 3.6170
 1.9410	 3.6170
 1.9420	 3.6130
 1.9430	 3.6110
 1.9440	 3.6280
 1.9450	 3.6720
 1.9460	 3.6940
 1.9470	 3.7280
 1.9480	 3.7420
 1.9490	 3.7390
 1.9500	 3.7380
 1.9510	 3.7210
 1.9520	 3.7160
 1.9530	 3.7170
 1.9540	 3.7090
 1.9550	 3.7240
 1.9560	 3.7580
 1.9570	 3.7820
 1.9580	 3.8180
 1.9590	 3.8470
 1.9600	 3.8640
 1.9610	 3.8920
 1.9620	 3.9350
 1.9630	 3.9610
 1.9640	 3.9770
 1.9650	 3.9980
 1.9660	 4.0140
 1.9670	 4.0190
 1.9680	 4.0300
 1.9690	 4.0460
 1.9700	 4.0640
 1.9710	 4.0810
 1.9720	 4.0990
 1.9730	 4.1260
 1.9740	 4.1450
 1.9750	 4.1630
 1.9760	 4.1780
 1.9770	 4.1840
 1.9780	 4.1980
 1.9790	 4.2210
 1.9800	 4.2420
 1.9810	 4.2750
 1.9820	 4.3390
 1.9830	 4.3750
 1.9840	 4.4100
 1.9850	 4.4340
 1.9860	 4.4410
 1.9870	 4.4430
 1.9880	 4.4630
 1.9890	 4.4820
 1.9900	 4.5170
 1.9910	 4.5630
 1.9920	 4.6030
 1.9930	 4.6520
 1.9940	 4.6800
 1.9950	 4.6950
 1.9960	 4.7150
 1.9970	 4.7110
 1.9980	 4.7290
 1.9990	 4.7610
 2.0000	 4.8030
 2.0010	 4.8340
 2.0020	 4.8760
 2.0030	 4.8950
 2.0040	 4.9110
 2.0050	 4.9420
 2.0060	 4.9840
 2.0070	 5.0090
 2.0080	 5.0320
 2.0090	 5.0570
 2.0100	 5.0680
 2.0110	 5.0890
 2.0120	 5.1080
 2.0130	 5.1490
 2.0140	 5.1960
 2.0150	 5.2340
 2.0160	 5.2820
 2.0170	 5.3320
 2.0180	 5.3660
 2.0190	 5.3830
 2.0200	 5.4030
 2.0210	 5.4090
 2.0220	 5.4360
 2.0230	 5.4760
 2.0240	 5.5050
 2.0250	 5.5450
 2.0260	 5.5760
 2.0270	 5.5980
 2.0280	 5.6100
 2.0290	 5.6390
 2.0300	 5.6810
 2.0310	 5.7010
 2.0320	 5.7240
 2.0330	 5.7280
 2.0340	 5.6900
 2.0350	 5.6980
 2.0360	 5.7150
 2.0370	 5.7400
 2.0380	 5.8070
 2.0390	 5.8420
 2.0400	 5.8570
 2.0410	 5.8810
 2.0420	 5.9010
 2.0430	 5.9180
 2.0440	 5.9400
 2.0450	 5.9750
 2.0460	 5.9940
 2.0470	 6.0060
 2.0480	 6.0230
 2.0490	 6.0390
 2.0500	 6.0530
 2.0510	 6.0640
 2.0520	 6.0810
 2.0530	 6.1010
 2.0540	 6.1200
 2.0550	 6.1470
 2.0560	 6.1670
 2.0570	 6.1820
 2.0580	 6.1820
 2.0590	 6.2060
 2.0600	 6.2420
 2.0610	 6.2680
 2.0620	 6.3140
 2.0630	 6.3290
 2.0640	 6.3080
 2.0650	 6.3180
 2.0660	 6.3320
 2.0670	 6.3450
 2.0680	 6.3720
 2.0690	 6.4000
 2.0700	 6.4180
 2.0710	 6.4430
 2.0720	 6.4850
 2.0730	 6.5220
 2.0740	 6.5470
 2.0750	 6.5640
 2.0760	 6.5840
 2.0770	 6.6040
 2.0780	 6.6130
 2.0790	 6.6110
 2.0800	 6.6220
 2.0810	 6.6270
 2.0820	 6.6370
 2.0830	 6.6570
 2.0840	 6.6810
 2.0850	 6.7060
 2.0860	 6.7300
 2.0870	 6.7590
 2.0880	 6.7940
 2.0890	 6.8190
 2.0900	 6.8390
 2.0910	 6.8500
 2.0920	 6.8490
 2.0930	 6.8610
 2.0940	 6.8680
 2.0950	 6.8840
 2.0960	 6.9160
 2.0970	 6.9410
 2.0980	 6.9620
 2.0990	 6.9850
 2.1000	 7.0220
 2.1010	 7.0400
 2.1020	 7.0460
 2.1030	 7.0560
 2.1040	 7.0590
 2.1050	 7.0580
 2.1060	 7.0660
 2.1070	 7.0810
 2.1080	 7.0920
 2.1090	 7.0980
 2.1100	 7.1170
 2.1110	 7.1400
 2.1120	 7.1620
 2.1130	 7.1980
 2.1140	 7.2160
 2.1150	 7.2240
 2.1160	 7.2370
 2.1170	 7.2520
 2.1180	 7.2570
 2.1190	 7.2440
 2.1200	 7.2560
 2.1210	 7.2760
 2.1220	 7.2920
 2.1230	 7.3210
 2.1240	 7.3780
 2.1250	 7.4090
 2.1260	 7.4310
 2.1270	 7.4490
 2.1280	 7.4590
 2.1290	 7.4750
 2.1300	 7.4910
 2.1310	 7.5000
 2.1320	 7.5120
 2.1330	 7.5190
 2.1340	 7.5120
 2.1350	 7.5140
 2.1360	 7.5070
 2.1370	 7.5240
 2.1380	 7.5650
 2.1390	 7.5930
 2.1400	 7.6190
 2.1410	 7.6750
 2.1420	 7.7050
 2.1430	 7.7250
 2.1440	 7.7350
 2.1450	 7.7310
 2.1460	 7.7480
 2.1470	 7.7590
 2.1480	 7.7800
 2.1490	 7.8430
 2.1500	 7.8530
 2.1510	 7.8160
 2.1520	 7.8160
 2.1530	 7.8020
 2.1540	 7.8090
 2.1550	 7.8630
 2.1560	 7.8860
 2.1570	 7.8810
 2.1580	 7.9000
 2.1590	 7.9310
 2.1600	 7.9440
 2.1610	 7.9950
 2.1620	 8.0470
 2.1630	 8.0630
 2.1640	 8.0580
 2.1650	 8.0630
 2.1660	 8.0470
 2.1670	 8.0430
 2.1680	 8.0500
 2.1690	 8.0500
 2.1700	 8.0300
 2.1710	 8.0410
 2.1720	 8.0820
 2.1730	 8.0950
 2.1740	 8.1010
 2.1750	 8.1190
 2.1760	 8.1210
 2.1770	 8.1400
 2.1780	 8.2020
 2.1790	 8.2300
 2.1800	 8.2340
 2.1810	 8.2480
 2.1820	 8.2440
 2.1830	 8.2570
 2.1840	 8.2750
 2.1850	 8.3100
 2.1860	 8.3330
 2.1870	 8.3540
 2.1880	 8.3740
 2.1890	 8.3880
 2.1900	 8.4050
 2.1910	 8.4230
 2.1920	 8.4410
 2.1930	 8.4610
 2.1940	 8.4770
 2.1950	 8.4850
 2.1960	 8.5040
 2.1970	 8.5290
 2.1980	 8.5500
 2.1990	 8.5860
 2.2000	 8.6030
 2.2010	 8.6070
 2.2020	 8.6100
 2.2030	 8.5990
 2.2040	 8.5970
 2.2050	 8.6010
 2.2060	 8.5980
 2.2070	 8.6050
 2.2080	 8.6220
 2.2090	 8.6250
 2.2100	 8.6150
 2.2110	 8.6360
 2.2120	 8.6650
 2.2130	 8.6930
 2.2140	 8.7630
 2.2150	 8.7760
 2.2160	 8.7560
 2.2170	 8.7400
 2.2180	 8.6890
 2.2190	 8.6660
 2.2200	 8.6430
 2.2210	 8.6420
 2.2220	 8.6700
 2.2230	 8.6800
 2.2240	 8.7110
 2.2250	 8.7160
 2.2260	 8.6970
 2.2270	 8.6830
 2.2280	 8.6440
 2.2290	 8.6270
 2.2300	 8.6220
 2.2310	 8.6150
 2.2320	 8.6020
 2.2330	 8.6100
 2.2340	 8.6070
 2.2350	 8.5940
 2.2360	 8.5910
 2.2370	 8.5970
 2.2380	 8.5930
 2.2390	 8.5870
 2.2400	 8.5740
 2.2410	 8.5570
 2.2420	 8.5270
 2.2430	 8.4800
 2.2440	 8.4410
 2.2450	 8.3990
 2.2460	 8.3590
 2.2470	 8.3140
 2.2480	 8.2860
 2.2490	 8.2680
 2.2500	 8.2420
 2.2510	 8.2450
 2.2520	 8.2080
 2.2530	 8.1260
 2.2540	 8.0730
 2.2550	 8.0080
 2.2560	 7.9630
 2.2570	 7.9590
 2.2580	 7.9270
 2.2590	 7.8720
 2.2600	 7.8310
 2.2610	 7.7730
 2.2620	 7.7460
 2.2630	 7.7410
 2.2640	 7.7230
 2.2650	 7.7050
 2.2660	 7.6870
 2.2670	 7.6500
 2.2680	 7.5990
 2.2690	 7.5630
 2.2700	 7.5210
 2.2710	 7.4770
 2.2720	 7.4320
 2.2730	 7.4060
 2.2740	 7.3840
 2.2750	 7.3540
 2.2760	 7.3480
 2.2770	 7.3150
 2.2780	 7.2500
 2.2790	 7.2060
 2.2800	 7.1590
 2.2810	 7.1250
 2.2820	 7.0940
 2.2830	 7.0720
 2.2840	 7.0650
 2.2850	 7.0600
 2.2860	 7.0670
 2.2870	 7.0650
 2.2880	 7.0790
 2.2890	 7.0630
 2.2900	 7.0260
 2.2910	 6.9930
 2.2920	 6.9310
 2.2930	 6.8910
 2.2940	 6.8600
 2.2950	 6.8340
 2.2960	 6.8300
 2.2970	 6.8030
 2.2980	 6.7650
 2.2990	 6.7350
 2.3000	 6.6860
 2.3010	 6.7080
 2.3020	 6.7210
 2.3030	 6.6840
 2.3040	 6.6670
 2.3050	 6.5720
 2.3060	 6.4850
 2.3070	 6.4700
 2.3080	 6.4500
 2.3090	 6.4640
 2.3100	 6.5090
 2.3110	 6.5340
 2.3120	 6.5230
 2.3130	 6.4820
 2.3140	 6.4610
 2.3150	 6.4000
 2.3160	 6.3910
 2.3170	 6.4250
 2.3180	 6.4250
 2.3190	 6.4270
 2.3200	 6.4480
 2.3210	 6.4810
 2.3220	 6.4780
 2.3230	 6.4780
 2.3240	 6.4520
 2.3250	 6.3600
 2.3260	 6.3370
 2.3270	 6.3550
 2.3280	 6.3580
 2.3290	 6.4020
 2.3300	 6.3990
 2.3310	 6.3550
 2.3320	 6.3260
 2.3330	 6.2720
 2.3340	 6.2430
 2.3350	 6.2450
 2.3360	 6.2290
 2.3370	 6.2130
 2.3380	 6.2010
 2.3390	 6.1880
 2.3400	 6.1640
 2.3410	 6.1370
 2.3420	 6.1040
 2.3430	 6.0400
 2.3440	 6.0070
 2.3450	 5.9940
 2.3460	 5.9780
 2.3470	 5.9990
 2.3480	 5.9860
 2.3490	 5.9340
 2.3500	 5.9110
 2.3510	 5.8750
 2.3520	 5.8500
 2.3530	 5.8450
 2.3540	 5.8640
 2.3550	 5.8380
 2.3560	 5.8210
 2.3570	 5.8400
 2.3580	 5.8470
 2.3590	 5.8620
 2.3600	 5.8710
 2.3610	 5.8150
 2.3620	 5.7750
 2.3630	 5.7740
 2.3640	 5.7870
 2.3650	 5.8160
 2.3660	 5.8170
 2.3670	 5.7840
 2.3680	 5.7780
 2.3690	 5.7680
 2.3700	 5.7430
 2.3710	 5.6950
 2.3720	 5.6180
 2.3730	 5.5750
 2.3740	 5.5220
 2.3750	 5.5310
 2.3760	 5.5290
 2.3770	 5.4670
 2.3780	 5.4610
 2.3790	 5.3970
 2.3800	 5.3870
 2.3810	 5.4620
 2.3820	 5.4700
 2.3830	 5.4940
 2.3840	 5.5260
 2.3850	 5.4680
 2.3860	 5.4550
 2.3870	 5.5040
 2.3880	 5.5120
 2.3890	 5.5700
 2.3900	 5.5700
 2.3910	 5.5470
 2.3920	 5.5240
 2.3930	 5.4170
 2.3940	 5.4190
 2.3950	 5.3820
 2.3960	 5.2690
 2.3970	 5.2360
 2.3980	 5.1270
 2.3990	 5.0300
 2.4000	 5.0590
 2.4010	 5.0110
 2.4020	 4.9910
 2.4030	 4.9860
 2.4040	 4.8990
 2.4050	 4.9820
 2.4060	 5.0610
 2.4070	 5.0810
 2.4080	 5.1640
 2.4090	 5.1230
 2.4100	 5.0260
 2.4110	 4.9560
 2.4120	 4.8480
 2.4130	 4.8520
 2.4140	 4.9230
 2.4150	 4.9890
 2.4160	 5.1280
 2.4170	 5.1540
 2.4180	 5.1320
 2.4190	 5.1160
 2.4200	 5.1010
 2.4210	 5.0900
 2.4220	 4.9890
 2.4230	 4.9470
 2.4240	 4.9000
 2.4250	 4.7890
 2.4260	 4.8060
 2.4270	 4.8080
 2.4280	 4.7710
 2.4290	 4.8350
 2.4300	 4.7590
 2.4310	 4.6760
 2.4320	 4.6850
 2.4330	 4.5810
 2.4340	 4.5510
 2.4350	 4.5090
 2.4360	 4.3320
 2.4370	 4.2430
 2.4380	 4.1680
 2.4390	 4.1450
 2.4400	 4.2210
 2.4410	 4.2230
 2.4420	 4.2510
 2.4430	 4.2460
 2.4440	 4.2210
 2.4450	 4.2960
 2.4460	 4.3860
 2.4470	 4.4820
 2.4480	 4.5530
 2.4490	 4.5810
 2.4500	 4.6170
 2.4510	 4.6600
 2.4520	 4.6760
 2.4530	 4.7040
 2.4540	 4.7080
 2.4550	 4.7300
 2.4560	 4.7230
 2.4570	 4.6180
 2.4580	 4.5330
 2.4590	 4.4110
 2.4600	 4.2840
 2.4610	 4.2490
 2.4620	 4.1600
 2.4630	 4.0540
 2.4640	 3.9980
 2.4650	 3.9090
 2.4660	 3.9060
 2.4670	 3.9100
 2.4680	 3.9540
 2.4690	 4.0130
 2.4700	 4.0590
 2.4710	 4.1390
 2.4720	 4.2110
 2.4730	 4.3580
 2.4740	 4.4470
 2.4750	 4.4790
 2.4760	 4.4750
 2.4770	 4.3390
 2.4780	 4.2830
 2.4790	 4.2960
 2.4800	 4.2530
 2.4810	 4.2650
 2.4820	 4.2920
 2.4830	 4.1190
 2.4840	 4.1370
 2.4850	 4.0600
 2.4860	 3.7520
 2.4870	 3.7920
 2.4880	 3.8200
 2.4890	 3.9950
 2.4900	 4.3520
 2.4910	 4.3850
 2.4920	 4.4920
 2.4930	 4.5550
 2.4940	 4.4570
 2.4950	 4.6630
 2.4960	 4.8730
 2.4970	 4.8050
 2.4980	 5.0540
 2.4990	 5.3520
 2.5000	 5.0550
