Name: Quercus virginana
Type: vegetation
Class: Tree
Genus: Quercus
Species: virginana
Sample No.: JPL186
Owner: JPL
Wavelength Range: VSWIR
Origin: 34.12729; -118.11594; WGS84
Collection Date: 10/3/2016
Description: Samples were collected at the Huntington Garden in San Marino California as part of a JPL Subcontract studying HyTES imagery. Samples were taken to JPL and processed within 48 hours of collection. The same leaves were processed in the Nicolet and then measured using the ASD.
Measurement: Bidirectional reflectance
First Column: X
Second Column: Y
X Units: Wavelength (micrometer)
Y Units: Reflectance (percentage)
First X Value: 0.35
Last X Value: 2.5
Number of X Values: 2151
Additional Information: vegetation.tree.quercus.virginana.vswir.jpl186.jpl.asd.ancillary.txt

 0.3500	 9.0220
 0.3510	 8.9690
 0.3520	 8.9610
 0.3530	 8.9080
 0.3540	 8.7890
 0.3550	 8.8170
 0.3560	 8.7910
 0.3570	 8.7280
 0.3580	 8.7410
 0.3590	 8.7250
 0.3600	 8.7210
 0.3610	 8.7330
 0.3620	 8.6890
 0.3630	 8.7060
 0.3640	 8.7150
 0.3650	 8.6510
 0.3660	 8.6360
 0.3670	 8.6250
 0.3680	 8.6290
 0.3690	 8.6900
 0.3700	 8.7030
 0.3710	 8.6400
 0.3720	 8.5490
 0.3730	 8.5950
 0.3740	 8.5690
 0.3750	 8.5280
 0.3760	 8.5760
 0.3770	 8.6020
 0.3780	 8.5960
 0.3790	 8.5900
 0.3800	 8.6360
 0.3810	 8.6120
 0.3820	 8.5600
 0.3830	 8.5340
 0.3840	 8.5550
 0.3850	 8.5650
 0.3860	 8.5450
 0.3870	 8.5090
 0.3880	 8.5700
 0.3890	 8.6070
 0.3900	 8.5840
 0.3910	 8.5700
 0.3920	 8.5410
 0.3930	 8.5350
 0.3940	 8.5690
 0.3950	 8.5730
 0.3960	 8.5710
 0.3970	 8.5780
 0.3980	 8.5940
 0.3990	 8.5800
 0.4000	 8.5580
 0.4010	 8.5480
 0.4020	 8.5630
 0.4030	 8.5930
 0.4040	 8.6090
 0.4050	 8.5960
 0.4060	 8.5880
 0.4070	 8.5830
 0.4080	 8.5840
 0.4090	 8.5970
 0.4100	 8.6180
 0.4110	 8.6300
 0.4120	 8.6320
 0.4130	 8.6430
 0.4140	 8.6480
 0.4150	 8.6510
 0.4160	 8.6580
 0.4170	 8.6630
 0.4180	 8.6680
 0.4190	 8.6690
 0.4200	 8.6600
 0.4210	 8.6550
 0.4220	 8.6490
 0.4230	 8.6430
 0.4240	 8.6620
 0.4250	 8.6700
 0.4260	 8.6620
 0.4270	 8.6540
 0.4280	 8.6570
 0.4290	 8.6490
 0.4300	 8.6290
 0.4310	 8.6230
 0.4320	 8.6100
 0.4330	 8.5870
 0.4340	 8.5610
 0.4350	 8.5570
 0.4360	 8.5680
 0.4370	 8.5780
 0.4380	 8.5750
 0.4390	 8.5940
 0.4400	 8.6260
 0.4410	 8.6520
 0.4420	 8.6630
 0.4430	 8.6660
 0.4440	 8.6730
 0.4450	 8.6890
 0.4460	 8.6800
 0.4470	 8.6780
 0.4480	 8.6930
 0.4490	 8.7060
 0.4500	 8.7030
 0.4510	 8.7000
 0.4520	 8.7110
 0.4530	 8.7220
 0.4540	 8.7270
 0.4550	 8.7270
 0.4560	 8.7260
 0.4570	 8.7320
 0.4580	 8.7340
 0.4590	 8.7300
 0.4600	 8.7350
 0.4610	 8.7360
 0.4620	 8.7360
 0.4630	 8.7360
 0.4640	 8.7400
 0.4650	 8.7430
 0.4660	 8.7440
 0.4670	 8.7440
 0.4680	 8.7470
 0.4690	 8.7500
 0.4700	 8.7510
 0.4710	 8.7550
 0.4720	 8.7550
 0.4730	 8.7540
 0.4740	 8.7600
 0.4750	 8.7650
 0.4760	 8.7680
 0.4770	 8.7670
 0.4780	 8.7580
 0.4790	 8.7620
 0.4800	 8.7700
 0.4810	 8.7640
 0.4820	 8.7600
 0.4830	 8.7510
 0.4840	 8.7420
 0.4850	 8.7420
 0.4860	 8.7380
 0.4870	 8.7360
 0.4880	 8.7400
 0.4890	 8.7450
 0.4900	 8.7560
 0.4910	 8.7690
 0.4920	 8.7780
 0.4930	 8.7900
 0.4940	 8.8020
 0.4950	 8.8180
 0.4960	 8.8440
 0.4970	 8.8630
 0.4980	 8.8790
 0.4990	 8.9010
 0.5000	 8.9230
 0.5010	 8.9510
 0.5020	 8.9830
 0.5030	 9.0120
 0.5040	 9.0420
 0.5050	 9.0800
 0.5060	 9.1260
 0.5070	 9.1680
 0.5080	 9.2160
 0.5090	 9.2730
 0.5100	 9.3350
 0.5110	 9.4030
 0.5120	 9.4810
 0.5130	 9.5670
 0.5140	 9.6580
 0.5150	 9.7580
 0.5160	 9.8670
 0.5170	 9.9850
 0.5180	10.1160
 0.5190	10.2550
 0.5200	10.4010
 0.5210	10.5530
 0.5220	10.7030
 0.5230	10.8560
 0.5240	11.0150
 0.5250	11.1650
 0.5260	11.3120
 0.5270	11.4570
 0.5280	11.5980
 0.5290	11.7250
 0.5300	11.8430
 0.5310	11.9540
 0.5320	12.0530
 0.5330	12.1450
 0.5340	12.2280
 0.5350	12.2980
 0.5360	12.3580
 0.5370	12.4070
 0.5380	12.4470
 0.5390	12.4770
 0.5400	12.4850
 0.5410	12.4780
 0.5420	12.4650
 0.5430	12.4610
 0.5440	12.4750
 0.5450	12.5120
 0.5460	12.5710
 0.5470	12.6340
 0.5480	12.6880
 0.5490	12.7240
 0.5500	12.7460
 0.5510	12.7610
 0.5520	12.7690
 0.5530	12.7660
 0.5540	12.7520
 0.5550	12.7280
 0.5560	12.6930
 0.5570	12.6440
 0.5580	12.5870
 0.5590	12.5230
 0.5600	12.4520
 0.5610	12.3730
 0.5620	12.2910
 0.5630	12.2060
 0.5640	12.1130
 0.5650	12.0220
 0.5660	11.9270
 0.5670	11.8280
 0.5680	11.7250
 0.5690	11.6190
 0.5700	11.5100
 0.5710	11.4030
 0.5720	11.3050
 0.5730	11.2120
 0.5740	11.1200
 0.5750	11.0300
 0.5760	10.9450
 0.5770	10.8700
 0.5780	10.8080
 0.5790	10.7460
 0.5800	10.6870
 0.5810	10.6290
 0.5820	10.5710
 0.5830	10.5130
 0.5840	10.4600
 0.5850	10.4160
 0.5860	10.3790
 0.5870	10.3470
 0.5880	10.3220
 0.5890	10.3050
 0.5900	10.2860
 0.5910	10.2640
 0.5920	10.2420
 0.5930	10.2240
 0.5940	10.2140
 0.5950	10.2070
 0.5960	10.1970
 0.5970	10.1780
 0.5980	10.1560
 0.5990	10.1360
 0.6000	10.1190
 0.6010	10.1020
 0.6020	10.0830
 0.6030	10.0620
 0.6040	10.0350
 0.6050	10.0060
 0.6060	 9.9760
 0.6070	 9.9400
 0.6080	 9.9010
 0.6090	 9.8440
 0.6100	 9.7630
 0.6110	 9.6670
 0.6120	 9.6310
 0.6130	 9.6310
 0.6140	 9.6360
 0.6150	 9.6170
 0.6160	 9.5940
 0.6170	 9.5700
 0.6180	 9.5460
 0.6190	 9.5180
 0.6200	 9.4900
 0.6210	 9.4670
 0.6220	 9.4520
 0.6230	 9.4400
 0.6240	 9.4310
 0.6250	 9.4240
 0.6260	 9.4170
 0.6270	 9.4140
 0.6280	 9.4100
 0.6290	 9.4030
 0.6300	 9.3940
 0.6310	 9.3860
 0.6320	 9.3830
 0.6330	 9.3860
 0.6340	 9.3820
 0.6350	 9.3700
 0.6360	 9.3520
 0.6370	 9.3310
 0.6380	 9.3080
 0.6390	 9.2820
 0.6400	 9.2520
 0.6410	 9.2230
 0.6420	 9.1950
 0.6430	 9.1670
 0.6440	 9.1390
 0.6450	 9.1130
 0.6460	 9.0880
 0.6470	 9.0670
 0.6480	 9.0490
 0.6490	 9.0310
 0.6500	 9.0150
 0.6510	 9.0040
 0.6520	 9.0010
 0.6530	 9.0010
 0.6540	 8.9970
 0.6550	 8.9910
 0.6560	 8.9840
 0.6570	 8.9760
 0.6580	 8.9660
 0.6590	 8.9590
 0.6600	 8.9510
 0.6610	 8.9420
 0.6620	 8.9320
 0.6630	 8.9230
 0.6640	 8.9190
 0.6650	 8.9190
 0.6660	 8.9200
 0.6670	 8.9240
 0.6680	 8.9310
 0.6690	 8.9410
 0.6700	 8.9550
 0.6710	 8.9700
 0.6720	 8.9880
 0.6730	 9.0110
 0.6740	 9.0370
 0.6750	 9.0650
 0.6760	 9.0950
 0.6770	 9.1270
 0.6780	 9.1630
 0.6790	 9.2040
 0.6800	 9.2500
 0.6810	 9.2960
 0.6820	 9.3440
 0.6830	 9.3950
 0.6840	 9.4450
 0.6850	 9.4960
 0.6860	 9.5480
 0.6870	 9.6060
 0.6880	 9.6710
 0.6890	 9.7470
 0.6900	 9.8420
 0.6910	 9.9620
 0.6920	10.1140
 0.6930	10.3060
 0.6940	10.5470
 0.6950	10.8390
 0.6960	11.1890
 0.6970	11.5980
 0.6980	12.0660
 0.6990	12.5880
 0.7000	13.1640
 0.7010	13.7880
 0.7020	14.4560
 0.7030	15.1580
 0.7040	15.8900
 0.7050	16.6480
 0.7060	17.4290
 0.7070	18.2290
 0.7080	19.0450
 0.7090	19.8810
 0.7100	20.7380
 0.7110	21.6130
 0.7120	22.5000
 0.7130	23.4030
 0.7140	24.3210
 0.7150	25.2540
 0.7160	26.1940
 0.7170	27.1430
 0.7180	28.0960
 0.7190	29.0550
 0.7200	30.0160
 0.7210	30.9730
 0.7220	31.9250
 0.7230	32.8680
 0.7240	33.7990
 0.7250	34.7130
 0.7260	35.6080
 0.7270	36.4820
 0.7280	37.3330
 0.7290	38.1570
 0.7300	38.9530
 0.7310	39.7190
 0.7320	40.4560
 0.7330	41.1600
 0.7340	41.8310
 0.7350	42.4720
 0.7360	43.0780
 0.7370	43.6500
 0.7380	44.1910
 0.7390	44.7000
 0.7400	45.1760
 0.7410	45.6220
 0.7420	46.0360
 0.7430	46.4220
 0.7440	46.7780
 0.7450	47.1050
 0.7460	47.4060
 0.7470	47.6780
 0.7480	47.9280
 0.7490	48.1580
 0.7500	48.3640
 0.7510	48.5520
 0.7520	48.7220
 0.7530	48.8770
 0.7540	49.0150
 0.7550	49.1410
 0.7560	49.2570
 0.7570	49.3600
 0.7580	49.4490
 0.7590	49.5320
 0.7600	49.6100
 0.7610	49.6760
 0.7620	49.7340
 0.7630	49.7870
 0.7640	49.8350
 0.7650	49.8740
 0.7660	49.9090
 0.7670	49.9400
 0.7680	49.9680
 0.7690	49.9930
 0.7700	50.0150
 0.7710	50.0340
 0.7720	50.0530
 0.7730	50.0710
 0.7740	50.0870
 0.7750	50.1010
 0.7760	50.1120
 0.7770	50.1220
 0.7780	50.1330
 0.7790	50.1450
 0.7800	50.1570
 0.7810	50.1660
 0.7820	50.1730
 0.7830	50.1820
 0.7840	50.1910
 0.7850	50.1990
 0.7860	50.2070
 0.7870	50.2110
 0.7880	50.2150
 0.7890	50.2190
 0.7900	50.2220
 0.7910	50.2250
 0.7920	50.2280
 0.7930	50.2300
 0.7940	50.2290
 0.7950	50.2300
 0.7960	50.2290
 0.7970	50.2240
 0.7980	50.2220
 0.7990	50.2180
 0.8000	50.2130
 0.8010	50.2100
 0.8020	50.2030
 0.8030	50.1970
 0.8040	50.1920
 0.8050	50.1830
 0.8060	50.1750
 0.8070	50.1680
 0.8080	50.1610
 0.8090	50.1520
 0.8100	50.1390
 0.8110	50.1280
 0.8120	50.1190
 0.8130	50.1080
 0.8140	50.0970
 0.8150	50.0860
 0.8160	50.0750
 0.8170	50.0650
 0.8180	50.0550
 0.8190	50.0430
 0.8200	50.0300
 0.8210	50.0190
 0.8220	50.0080
 0.8230	49.9960
 0.8240	49.9840
 0.8250	49.9750
 0.8260	49.9640
 0.8270	49.9510
 0.8280	49.9410
 0.8290	49.9320
 0.8300	49.9220
 0.8310	49.9100
 0.8320	49.9010
 0.8330	49.8910
 0.8340	49.8810
 0.8350	49.8720
 0.8360	49.8630
 0.8370	49.8560
 0.8380	49.8490
 0.8390	49.8460
 0.8400	49.8420
 0.8410	49.8370
 0.8420	49.8320
 0.8430	49.8270
 0.8440	49.8240
 0.8450	49.8240
 0.8460	49.8240
 0.8470	49.8240
 0.8480	49.8240
 0.8490	49.8240
 0.8500	49.8230
 0.8510	49.8240
 0.8520	49.8230
 0.8530	49.8230
 0.8540	49.8270
 0.8550	49.8330
 0.8560	49.8380
 0.8570	49.8390
 0.8580	49.8420
 0.8590	49.8440
 0.8600	49.8500
 0.8610	49.8580
 0.8620	49.8630
 0.8630	49.8690
 0.8640	49.8760
 0.8650	49.8850
 0.8660	49.8930
 0.8670	49.8950
 0.8680	49.9000
 0.8690	49.9140
 0.8700	49.9210
 0.8710	49.9280
 0.8720	49.9370
 0.8730	49.9450
 0.8740	49.9550
 0.8750	49.9650
 0.8760	49.9750
 0.8770	49.9810
 0.8780	49.9890
 0.8790	49.9990
 0.8800	50.0100
 0.8810	50.0210
 0.8820	50.0300
 0.8830	50.0370
 0.8840	50.0450
 0.8850	50.0590
 0.8860	50.0700
 0.8870	50.0790
 0.8880	50.0870
 0.8890	50.0890
 0.8900	50.0970
 0.8910	50.1080
 0.8920	50.1160
 0.8930	50.1260
 0.8940	50.1340
 0.8950	50.1400
 0.8960	50.1480
 0.8970	50.1560
 0.8980	50.1660
 0.8990	50.1740
 0.9000	50.1810
 0.9010	50.1880
 0.9020	50.1940
 0.9030	50.1990
 0.9040	50.2100
 0.9050	50.2180
 0.9060	50.2240
 0.9070	50.2290
 0.9080	50.2340
 0.9090	50.2370
 0.9100	50.2420
 0.9110	50.2510
 0.9120	50.2560
 0.9130	50.2560
 0.9140	50.2550
 0.9150	50.2600
 0.9160	50.2640
 0.9170	50.2650
 0.9180	50.2640
 0.9190	50.2630
 0.9200	50.2620
 0.9210	50.2640
 0.9220	50.2630
 0.9230	50.2570
 0.9240	50.2480
 0.9250	50.2440
 0.9260	50.2410
 0.9270	50.2290
 0.9280	50.2170
 0.9290	50.2100
 0.9300	50.2070
 0.9310	50.2010
 0.9320	50.1820
 0.9330	50.1630
 0.9340	50.1500
 0.9350	50.1360
 0.9360	50.1150
 0.9370	50.0950
 0.9380	50.0800
 0.9390	50.0630
 0.9400	50.0450
 0.9410	50.0270
 0.9420	50.0070
 0.9430	49.9820
 0.9440	49.9590
 0.9450	49.9340
 0.9460	49.9030
 0.9470	49.8710
 0.9480	49.8440
 0.9490	49.8110
 0.9500	49.7670
 0.9510	49.7270
 0.9520	49.6870
 0.9530	49.6490
 0.9540	49.6110
 0.9550	49.5540
 0.9560	49.5090
 0.9570	49.4720
 0.9580	49.4320
 0.9590	49.3970
 0.9600	49.3540
 0.9610	49.3160
 0.9620	49.2920
 0.9630	49.2730
 0.9640	49.2490
 0.9650	49.2250
 0.9660	49.2080
 0.9670	49.1860
 0.9680	49.1720
 0.9690	49.1580
 0.9700	49.1350
 0.9710	49.1250
 0.9720	49.1090
 0.9730	49.0920
 0.9740	49.0840
 0.9750	49.0690
 0.9760	49.0580
 0.9770	49.0530
 0.9780	49.0530
 0.9790	49.0490
 0.9800	49.0390
 0.9810	49.0280
 0.9820	49.0270
 0.9830	49.0330
 0.9840	49.0240
 0.9850	49.0120
 0.9860	49.0210
 0.9870	49.0170
 0.9880	49.0300
 0.9890	49.0480
 0.9900	49.0470
 0.9910	49.0330
 0.9920	49.0450
 0.9930	49.0680
 0.9940	49.0680
 0.9950	49.0640
 0.9960	49.0650
 0.9970	49.0740
 0.9980	49.0860
 0.9990	49.0920
 1.0000	49.0990
 1.0010	49.2230
 1.0020	49.2300
 1.0030	49.2420
 1.0040	49.2580
 1.0050	49.2760
 1.0060	49.2890
 1.0070	49.3020
 1.0080	49.3140
 1.0090	49.3210
 1.0100	49.3320
 1.0110	49.3470
 1.0120	49.3600
 1.0130	49.3730
 1.0140	49.3860
 1.0150	49.4020
 1.0160	49.4130
 1.0170	49.4240
 1.0180	49.4370
 1.0190	49.4460
 1.0200	49.4550
 1.0210	49.4670
 1.0220	49.4770
 1.0230	49.4900
 1.0240	49.5060
 1.0250	49.5190
 1.0260	49.5320
 1.0270	49.5440
 1.0280	49.5520
 1.0290	49.5640
 1.0300	49.5780
 1.0310	49.5900
 1.0320	49.6000
 1.0330	49.6120
 1.0340	49.6210
 1.0350	49.6250
 1.0360	49.6350
 1.0370	49.6480
 1.0380	49.6620
 1.0390	49.6810
 1.0400	49.6920
 1.0410	49.7010
 1.0420	49.7090
 1.0430	49.7110
 1.0440	49.7170
 1.0450	49.7250
 1.0460	49.7330
 1.0470	49.7440
 1.0480	49.7530
 1.0490	49.7580
 1.0500	49.7660
 1.0510	49.7750
 1.0520	49.7810
 1.0530	49.7870
 1.0540	49.7960
 1.0550	49.8020
 1.0560	49.8040
 1.0570	49.8080
 1.0580	49.8130
 1.0590	49.8180
 1.0600	49.8230
 1.0610	49.8270
 1.0620	49.8300
 1.0630	49.8350
 1.0640	49.8410
 1.0650	49.8450
 1.0660	49.8480
 1.0670	49.8510
 1.0680	49.8540
 1.0690	49.8540
 1.0700	49.8540
 1.0710	49.8530
 1.0720	49.8540
 1.0730	49.8540
 1.0740	49.8550
 1.0750	49.8600
 1.0760	49.8620
 1.0770	49.8620
 1.0780	49.8630
 1.0790	49.8640
 1.0800	49.8640
 1.0810	49.8620
 1.0820	49.8620
 1.0830	49.8600
 1.0840	49.8590
 1.0850	49.8560
 1.0860	49.8570
 1.0870	49.8560
 1.0880	49.8530
 1.0890	49.8520
 1.0900	49.8510
 1.0910	49.8490
 1.0920	49.8460
 1.0930	49.8440
 1.0940	49.8420
 1.0950	49.8380
 1.0960	49.8350
 1.0970	49.8300
 1.0980	49.8230
 1.0990	49.8160
 1.1000	49.8070
 1.1010	49.8010
 1.1020	49.7960
 1.1030	49.7920
 1.1040	49.7880
 1.1050	49.7860
 1.1060	49.7810
 1.1070	49.7740
 1.1080	49.7670
 1.1090	49.7580
 1.1100	49.7500
 1.1110	49.7450
 1.1120	49.7360
 1.1130	49.7260
 1.1140	49.7160
 1.1150	49.7040
 1.1160	49.6920
 1.1170	49.6840
 1.1180	49.6710
 1.1190	49.6550
 1.1200	49.6370
 1.1210	49.6200
 1.1220	49.5990
 1.1230	49.5750
 1.1240	49.5510
 1.1250	49.5240
 1.1260	49.4920
 1.1270	49.4580
 1.1280	49.4250
 1.1290	49.3850
 1.1300	49.3390
 1.1310	49.2880
 1.1320	49.2340
 1.1330	49.1740
 1.1340	49.1080
 1.1350	49.0390
 1.1360	48.9670
 1.1370	48.8900
 1.1380	48.8080
 1.1390	48.7240
 1.1400	48.6350
 1.1410	48.5450
 1.1420	48.4540
 1.1430	48.3590
 1.1440	48.2640
 1.1450	48.1650
 1.1460	48.0690
 1.1470	47.9730
 1.1480	47.8790
 1.1490	47.7870
 1.1500	47.7000
 1.1510	47.6130
 1.1520	47.5340
 1.1530	47.4620
 1.1540	47.3930
 1.1550	47.3280
 1.1560	47.2690
 1.1570	47.2130
 1.1580	47.1610
 1.1590	47.1140
 1.1600	47.0730
 1.1610	47.0350
 1.1620	47.0010
 1.1630	46.9690
 1.1640	46.9420
 1.1650	46.9160
 1.1660	46.8930
 1.1670	46.8730
 1.1680	46.8550
 1.1690	46.8370
 1.1700	46.8230
 1.1710	46.8070
 1.1720	46.7920
 1.1730	46.7770
 1.1740	46.7630
 1.1750	46.7470
 1.1760	46.7300
 1.1770	46.7150
 1.1780	46.7000
 1.1790	46.6840
 1.1800	46.6720
 1.1810	46.6590
 1.1820	46.6440
 1.1830	46.6280
 1.1840	46.6110
 1.1850	46.5950
 1.1860	46.5800
 1.1870	46.5650
 1.1880	46.5510
 1.1890	46.5370
 1.1900	46.5250
 1.1910	46.5150
 1.1920	46.5070
 1.1930	46.5020
 1.1940	46.4960
 1.1950	46.4910
 1.1960	46.4870
 1.1970	46.4840
 1.1980	46.4820
 1.1990	46.4830
 1.2000	46.4850
 1.2010	46.4880
 1.2020	46.4920
 1.2030	46.4970
 1.2040	46.5020
 1.2050	46.5080
 1.2060	46.5160
 1.2070	46.5250
 1.2080	46.5330
 1.2090	46.5420
 1.2100	46.5530
 1.2110	46.5650
 1.2120	46.5790
 1.2130	46.5950
 1.2140	46.6130
 1.2150	46.6290
 1.2160	46.6460
 1.2170	46.6630
 1.2180	46.6790
 1.2190	46.6960
 1.2200	46.7150
 1.2210	46.7350
 1.2220	46.7550
 1.2230	46.7720
 1.2240	46.7900
 1.2250	46.8080
 1.2260	46.8270
 1.2270	46.8480
 1.2280	46.8670
 1.2290	46.8850
 1.2300	46.9010
 1.2310	46.9160
 1.2320	46.9330
 1.2330	46.9490
 1.2340	46.9640
 1.2350	46.9780
 1.2360	46.9920
 1.2370	47.0050
 1.2380	47.0180
 1.2390	47.0310
 1.2400	47.0450
 1.2410	47.0560
 1.2420	47.0660
 1.2430	47.0780
 1.2440	47.0920
 1.2450	47.1050
 1.2460	47.1170
 1.2470	47.1260
 1.2480	47.1340
 1.2490	47.1420
 1.2500	47.1500
 1.2510	47.1600
 1.2520	47.1690
 1.2530	47.1750
 1.2540	47.1800
 1.2550	47.1830
 1.2560	47.1860
 1.2570	47.1900
 1.2580	47.1950
 1.2590	47.1980
 1.2600	47.2000
 1.2610	47.2020
 1.2620	47.2040
 1.2630	47.2050
 1.2640	47.2050
 1.2650	47.2050
 1.2660	47.2020
 1.2670	47.1970
 1.2680	47.1920
 1.2690	47.1880
 1.2700	47.1840
 1.2710	47.1780
 1.2720	47.1730
 1.2730	47.1670
 1.2740	47.1590
 1.2750	47.1510
 1.2760	47.1430
 1.2770	47.1350
 1.2780	47.1250
 1.2790	47.1170
 1.2800	47.1060
 1.2810	47.0900
 1.2820	47.0770
 1.2830	47.0600
 1.2840	47.0430
 1.2850	47.0280
 1.2860	47.0130
 1.2870	46.9950
 1.2880	46.9760
 1.2890	46.9560
 1.2900	46.9340
 1.2910	46.9070
 1.2920	46.8810
 1.2930	46.8540
 1.2940	46.8260
 1.2950	46.7980
 1.2960	46.7660
 1.2970	46.7300
 1.2980	46.6940
 1.2990	46.6570
 1.3000	46.6190
 1.3010	46.5810
 1.3020	46.5410
 1.3030	46.5000
 1.3040	46.4560
 1.3050	46.4100
 1.3060	46.3600
 1.3070	46.3090
 1.3080	46.2580
 1.3090	46.2070
 1.3100	46.1530
 1.3110	46.0980
 1.3120	46.0390
 1.3130	45.9750
 1.3140	45.9110
 1.3150	45.8440
 1.3160	45.7750
 1.3170	45.7040
 1.3180	45.6330
 1.3190	45.5610
 1.3200	45.4840
 1.3210	45.4040
 1.3220	45.3240
 1.3230	45.2390
 1.3240	45.1530
 1.3250	45.0680
 1.3260	44.9800
 1.3270	44.8870
 1.3280	44.7940
 1.3290	44.6970
 1.3300	44.5990
 1.3310	44.5020
 1.3320	44.4030
 1.3330	44.3040
 1.3340	44.2030
 1.3350	44.0980
 1.3360	43.9940
 1.3370	43.8870
 1.3380	43.7790
 1.3390	43.6730
 1.3400	43.5670
 1.3410	43.4620
 1.3420	43.3580
 1.3430	43.2550
 1.3440	43.1500
 1.3450	43.0460
 1.3460	42.9420
 1.3470	42.8410
 1.3480	42.7400
 1.3490	42.6410
 1.3500	42.5440
 1.3510	42.4460
 1.3520	42.3480
 1.3530	42.2510
 1.3540	42.1540
 1.3550	42.0560
 1.3560	41.9570
 1.3570	41.8590
 1.3580	41.7600
 1.3590	41.6590
 1.3600	41.5560
 1.3610	41.4490
 1.3620	41.3380
 1.3630	41.2230
 1.3640	41.1060
 1.3650	40.9820
 1.3660	40.8530
 1.3670	40.7160
 1.3680	40.5690
 1.3690	40.4130
 1.3700	40.2460
 1.3710	40.0690
 1.3720	39.8810
 1.3730	39.6760
 1.3740	39.4590
 1.3750	39.2270
 1.3760	38.9730
 1.3770	38.7040
 1.3780	38.4110
 1.3790	38.0980
 1.3800	37.7650
 1.3810	37.4060
 1.3820	37.0300
 1.3830	36.6350
 1.3840	36.2170
 1.3850	35.7770
 1.3860	35.3210
 1.3870	34.8390
 1.3880	34.3500
 1.3890	33.8470
 1.3900	33.3290
 1.3910	32.8060
 1.3920	32.2740
 1.3930	31.7330
 1.3940	31.1900
 1.3950	30.6400
 1.3960	30.0940
 1.3970	29.5520
 1.3980	29.0170
 1.3990	28.4970
 1.4000	27.9870
 1.4010	27.4870
 1.4020	27.0040
 1.4030	26.5340
 1.4040	26.0810
 1.4050	25.6490
 1.4060	25.2330
 1.4070	24.8420
 1.4080	24.4690
 1.4090	24.1140
 1.4100	23.7800
 1.4110	23.4640
 1.4120	23.1650
 1.4130	22.8880
 1.4140	22.6270
 1.4150	22.3860
 1.4160	22.1610
 1.4170	21.9510
 1.4180	21.7560
 1.4190	21.5740
 1.4200	21.4060
 1.4210	21.2510
 1.4220	21.1080
 1.4230	20.9770
 1.4240	20.8560
 1.4250	20.7430
 1.4260	20.6400
 1.4270	20.5450
 1.4280	20.4600
 1.4290	20.3810
 1.4300	20.3100
 1.4310	20.2450
 1.4320	20.1870
 1.4330	20.1350
 1.4340	20.0890
 1.4350	20.0480
 1.4360	20.0120
 1.4370	19.9810
 1.4380	19.9540
 1.4390	19.9310
 1.4400	19.9130
 1.4410	19.8980
 1.4420	19.8870
 1.4430	19.8780
 1.4440	19.8710
 1.4450	19.8660
 1.4460	19.8640
 1.4470	19.8650
 1.4480	19.8680
 1.4490	19.8740
 1.4500	19.8820
 1.4510	19.8900
 1.4520	19.9010
 1.4530	19.9140
 1.4540	19.9280
 1.4550	19.9440
 1.4560	19.9620
 1.4570	19.9840
 1.4580	20.0090
 1.4590	20.0360
 1.4600	20.0680
 1.4610	20.1030
 1.4620	20.1410
 1.4630	20.1860
 1.4640	20.2330
 1.4650	20.2860
 1.4660	20.3450
 1.4670	20.4080
 1.4680	20.4770
 1.4690	20.5510
 1.4700	20.6280
 1.4710	20.7110
 1.4720	20.7970
 1.4730	20.8860
 1.4740	20.9800
 1.4750	21.0770
 1.4760	21.1770
 1.4770	21.2810
 1.4780	21.3860
 1.4790	21.4940
 1.4800	21.6020
 1.4810	21.7130
 1.4820	21.8260
 1.4830	21.9400
 1.4840	22.0560
 1.4850	22.1730
 1.4860	22.2900
 1.4870	22.4100
 1.4880	22.5280
 1.4890	22.6480
 1.4900	22.7680
 1.4910	22.8880
 1.4920	23.0100
 1.4930	23.1330
 1.4940	23.2570
 1.4950	23.3820
 1.4960	23.5060
 1.4970	23.6280
 1.4980	23.7520
 1.4990	23.8740
 1.5000	23.9970
 1.5010	24.1210
 1.5020	24.2450
 1.5030	24.3700
 1.5040	24.4930
 1.5050	24.6130
 1.5060	24.7360
 1.5070	24.8580
 1.5080	24.9800
 1.5090	25.1040
 1.5100	25.2250
 1.5110	25.3460
 1.5120	25.4660
 1.5130	25.5850
 1.5140	25.7040
 1.5150	25.8240
 1.5160	25.9400
 1.5170	26.0580
 1.5180	26.1750
 1.5190	26.2900
 1.5200	26.4060
 1.5210	26.5200
 1.5220	26.6330
 1.5230	26.7450
 1.5240	26.8570
 1.5250	26.9690
 1.5260	27.0790
 1.5270	27.1880
 1.5280	27.2970
 1.5290	27.4040
 1.5300	27.5100
 1.5310	27.6160
 1.5320	27.7190
 1.5330	27.8230
 1.5340	27.9270
 1.5350	28.0280
 1.5360	28.1280
 1.5370	28.2260
 1.5380	28.3220
 1.5390	28.4190
 1.5400	28.5150
 1.5410	28.6110
 1.5420	28.7070
 1.5430	28.8000
 1.5440	28.8940
 1.5450	28.9860
 1.5460	29.0760
 1.5470	29.1670
 1.5480	29.2560
 1.5490	29.3450
 1.5500	29.4320
 1.5510	29.5190
 1.5520	29.6070
 1.5530	29.6910
 1.5540	29.7740
 1.5550	29.8570
 1.5560	29.9370
 1.5570	30.0160
 1.5580	30.0950
 1.5590	30.1720
 1.5600	30.2490
 1.5610	30.3260
 1.5620	30.4000
 1.5630	30.4750
 1.5640	30.5510
 1.5650	30.6250
 1.5660	30.6980
 1.5670	30.7700
 1.5680	30.8410
 1.5690	30.9100
 1.5700	30.9800
 1.5710	31.0500
 1.5720	31.1170
 1.5730	31.1860
 1.5740	31.2540
 1.5750	31.3220
 1.5760	31.3890
 1.5770	31.4540
 1.5780	31.5190
 1.5790	31.5830
 1.5800	31.6470
 1.5810	31.7100
 1.5820	31.7700
 1.5830	31.8320
 1.5840	31.8950
 1.5850	31.9570
 1.5860	32.0190
 1.5870	32.0820
 1.5880	32.1430
 1.5890	32.2050
 1.5900	32.2680
 1.5910	32.3290
 1.5920	32.3890
 1.5930	32.4480
 1.5940	32.5070
 1.5950	32.5660
 1.5960	32.6250
 1.5970	32.6830
 1.5980	32.7410
 1.5990	32.7980
 1.6000	32.8550
 1.6010	32.9110
 1.6020	32.9670
 1.6030	33.0220
 1.6040	33.0760
 1.6050	33.1300
 1.6060	33.1840
 1.6070	33.2370
 1.6080	33.2880
 1.6090	33.3390
 1.6100	33.3910
 1.6110	33.4410
 1.6120	33.4900
 1.6130	33.5390
 1.6140	33.5860
 1.6150	33.6330
 1.6160	33.6800
 1.6170	33.7250
 1.6180	33.7690
 1.6190	33.8130
 1.6200	33.8550
 1.6210	33.8980
 1.6220	33.9380
 1.6230	33.9790
 1.6240	34.0200
 1.6250	34.0590
 1.6260	34.0970
 1.6270	34.1340
 1.6280	34.1690
 1.6290	34.2040
 1.6300	34.2370
 1.6310	34.2710
 1.6320	34.3070
 1.6330	34.3400
 1.6340	34.3720
 1.6350	34.4020
 1.6360	34.4280
 1.6370	34.4550
 1.6380	34.4820
 1.6390	34.5080
 1.6400	34.5350
 1.6410	34.5580
 1.6420	34.5800
 1.6430	34.5990
 1.6440	34.6160
 1.6450	34.6310
 1.6460	34.6440
 1.6470	34.6540
 1.6480	34.6620
 1.6490	34.6670
 1.6500	34.6720
 1.6510	34.6750
 1.6520	34.6760
 1.6530	34.6770
 1.6540	34.6760
 1.6550	34.6740
 1.6560	34.6710
 1.6570	34.6640
 1.6580	34.6550
 1.6590	34.6460
 1.6600	34.6360
 1.6610	34.6280
 1.6620	34.6200
 1.6630	34.6140
 1.6640	34.6080
 1.6650	34.6010
 1.6660	34.5920
 1.6670	34.5820
 1.6680	34.5710
 1.6690	34.5600
 1.6700	34.5500
 1.6710	34.5420
 1.6720	34.5350
 1.6730	34.5260
 1.6740	34.5150
 1.6750	34.5030
 1.6760	34.4890
 1.6770	34.4730
 1.6780	34.4570
 1.6790	34.4380
 1.6800	34.4160
 1.6810	34.3910
 1.6820	34.3630
 1.6830	34.3330
 1.6840	34.3020
 1.6850	34.2710
 1.6860	34.2390
 1.6870	34.2040
 1.6880	34.1680
 1.6890	34.1290
 1.6900	34.0910
 1.6910	34.0530
 1.6920	34.0140
 1.6930	33.9750
 1.6940	33.9360
 1.6950	33.8960
 1.6960	33.8560
 1.6970	33.8160
 1.6980	33.7760
 1.6990	33.7360
 1.7000	33.6940
 1.7010	33.6510
 1.7020	33.6090
 1.7030	33.5670
 1.7040	33.5250
 1.7050	33.4850
 1.7060	33.4420
 1.7070	33.3990
 1.7080	33.3530
 1.7090	33.3040
 1.7100	33.2590
 1.7110	33.2130
 1.7120	33.1700
 1.7130	33.1260
 1.7140	33.0810
 1.7150	33.0390
 1.7160	32.9960
 1.7170	32.9540
 1.7180	32.9120
 1.7190	32.8670
 1.7200	32.8250
 1.7210	32.7840
 1.7220	32.7450
 1.7230	32.7110
 1.7240	32.6730
 1.7250	32.6370
 1.7260	32.6030
 1.7270	32.5670
 1.7280	32.5330
 1.7290	32.4990
 1.7300	32.4630
 1.7310	32.4300
 1.7320	32.3980
 1.7330	32.3660
 1.7340	32.3370
 1.7350	32.3040
 1.7360	32.2700
 1.7370	32.2340
 1.7380	32.1970
 1.7390	32.1570
 1.7400	32.1140
 1.7410	32.0710
 1.7420	32.0250
 1.7430	31.9780
 1.7440	31.9300
 1.7450	31.8810
 1.7460	31.8290
 1.7470	31.7780
 1.7480	31.7300
 1.7490	31.6780
 1.7500	31.6250
 1.7510	31.5710
 1.7520	31.5150
 1.7530	31.4630
 1.7540	31.4120
 1.7550	31.3600
 1.7560	31.3080
 1.7570	31.2570
 1.7580	31.2070
 1.7590	31.1560
 1.7600	31.1080
 1.7610	31.0610
 1.7620	31.0150
 1.7630	30.9710
 1.7640	30.9290
 1.7650	30.8850
 1.7660	30.8450
 1.7670	30.8110
 1.7680	30.7750
 1.7690	30.7390
 1.7700	30.7050
 1.7710	30.6680
 1.7720	30.6350
 1.7730	30.6060
 1.7740	30.5770
 1.7750	30.5490
 1.7760	30.5220
 1.7770	30.4940
 1.7780	30.4700
 1.7790	30.4470
 1.7800	30.4280
 1.7810	30.4130
 1.7820	30.3950
 1.7830	30.3770
 1.7840	30.3610
 1.7850	30.3430
 1.7860	30.3320
 1.7870	30.3240
 1.7880	30.3180
 1.7890	30.3120
 1.7900	30.3080
 1.7910	30.3040
 1.7920	30.3010
 1.7930	30.3000
 1.7940	30.2990
 1.7950	30.3010
 1.7960	30.3090
 1.7970	30.3140
 1.7980	30.3210
 1.7990	30.3280
 1.8000	30.3330
 1.8010	30.3390
 1.8020	30.3480
 1.8030	30.3560
 1.8040	30.3640
 1.8050	30.3720
 1.8060	30.3800
 1.8070	30.3870
 1.8080	30.3960
 1.8090	30.4020
 1.8100	30.4080
 1.8110	30.4150
 1.8120	30.4190
 1.8130	30.4260
 1.8140	30.4340
 1.8150	30.4380
 1.8160	30.4450
 1.8170	30.4530
 1.8180	30.4550
 1.8190	30.4580
 1.8200	30.4610
 1.8210	30.4590
 1.8220	30.4590
 1.8230	30.4640
 1.8240	30.4630
 1.8250	30.4600
 1.8260	30.4560
 1.8270	30.4490
 1.8280	30.4410
 1.8290	30.4340
 1.8300	30.4250
 1.8310	30.4060
 1.8320	30.3860
 1.8330	30.3620
 1.8340	30.3400
 1.8350	30.3160
 1.8360	30.2910
 1.8370	30.2640
 1.8380	30.2280
 1.8390	30.1860
 1.8400	30.1370
 1.8410	30.0850
 1.8420	30.0290
 1.8430	29.9680
 1.8440	29.8970
 1.8450	29.8220
 1.8460	29.7390
 1.8470	29.6460
 1.8480	29.5470
 1.8490	29.4380
 1.8500	29.3170
 1.8510	29.1850
 1.8520	29.0440
 1.8530	28.8940
 1.8540	28.7340
 1.8550	28.5620
 1.8560	28.3740
 1.8570	28.1710
 1.8580	27.9560
 1.8590	27.7280
 1.8600	27.4880
 1.8610	27.2350
 1.8620	26.9690
 1.8630	26.6850
 1.8640	26.3820
 1.8650	26.0590
 1.8660	25.7190
 1.8670	25.3570
 1.8680	24.9790
 1.8690	24.5810
 1.8700	24.1600
 1.8710	23.7170
 1.8720	23.2620
 1.8730	22.7920
 1.8740	22.3090
 1.8750	21.8210
 1.8760	21.3180
 1.8770	20.8040
 1.8780	20.2840
 1.8790	19.7580
 1.8800	19.2370
 1.8810	18.7140
 1.8820	18.1950
 1.8830	17.6770
 1.8840	17.1620
 1.8850	16.6460
 1.8860	16.1400
 1.8870	15.6440
 1.8880	15.1580
 1.8890	14.6960
 1.8900	14.2510
 1.8910	13.8260
 1.8920	13.4160
 1.8930	13.0360
 1.8940	12.6740
 1.8950	12.3330
 1.8960	12.0180
 1.8970	11.7230
 1.8980	11.4540
 1.8990	11.2050
 1.9000	10.9730
 1.9010	10.7640
 1.9020	10.5700
 1.9030	10.3940
 1.9040	10.2370
 1.9050	10.1020
 1.9060	 9.9800
 1.9070	 9.8740
 1.9080	 9.7790
 1.9090	 9.6930
 1.9100	 9.6180
 1.9110	 9.5500
 1.9120	 9.4930
 1.9130	 9.4390
 1.9140	 9.3910
 1.9150	 9.3480
 1.9160	 9.3130
 1.9170	 9.2820
 1.9180	 9.2560
 1.9190	 9.2320
 1.9200	 9.2120
 1.9210	 9.1940
 1.9220	 9.1810
 1.9230	 9.1740
 1.9240	 9.1680
 1.9250	 9.1650
 1.9260	 9.1630
 1.9270	 9.1630
 1.9280	 9.1630
 1.9290	 9.1650
 1.9300	 9.1690
 1.9310	 9.1750
 1.9320	 9.1830
 1.9330	 9.1930
 1.9340	 9.2070
 1.9350	 9.2200
 1.9360	 9.2340
 1.9370	 9.2500
 1.9380	 9.2660
 1.9390	 9.2850
 1.9400	 9.3030
 1.9410	 9.3260
 1.9420	 9.3540
 1.9430	 9.3790
 1.9440	 9.4050
 1.9450	 9.4320
 1.9460	 9.4600
 1.9470	 9.4860
 1.9480	 9.5150
 1.9490	 9.5490
 1.9500	 9.5830
 1.9510	 9.6140
 1.9520	 9.6470
 1.9530	 9.6820
 1.9540	 9.7170
 1.9550	 9.7550
 1.9560	 9.7980
 1.9570	 9.8390
 1.9580	 9.8780
 1.9590	 9.9200
 1.9600	 9.9630
 1.9610	10.0070
 1.9620	10.0530
 1.9630	10.1000
 1.9640	10.1500
 1.9650	10.1980
 1.9660	10.2450
 1.9670	10.2950
 1.9680	10.3460
 1.9690	10.3970
 1.9700	10.4500
 1.9710	10.5050
 1.9720	10.5590
 1.9730	10.6120
 1.9740	10.6660
 1.9750	10.7220
 1.9760	10.7780
 1.9770	10.8370
 1.9780	10.8960
 1.9790	10.9580
 1.9800	11.0230
 1.9810	11.0860
 1.9820	11.1500
 1.9830	11.2150
 1.9840	11.2770
 1.9850	11.3410
 1.9860	11.4090
 1.9870	11.4770
 1.9880	11.5410
 1.9890	11.6070
 1.9900	11.6740
 1.9910	11.7380
 1.9920	11.8060
 1.9930	11.8780
 1.9940	11.9470
 1.9950	12.0150
 1.9960	12.0830
 1.9970	12.1490
 1.9980	12.2190
 1.9990	12.2900
 2.0000	12.3630
 2.0010	12.4350
 2.0020	12.5050
 2.0030	12.5720
 2.0040	12.6380
 2.0050	12.7090
 2.0060	12.7820
 2.0070	12.8540
 2.0080	12.9290
 2.0090	13.0000
 2.0100	13.0700
 2.0110	13.1400
 2.0120	13.2100
 2.0130	13.2800
 2.0140	13.3500
 2.0150	13.4170
 2.0160	13.4830
 2.0170	13.5510
 2.0180	13.6170
 2.0190	13.6810
 2.0200	13.7460
 2.0210	13.8100
 2.0220	13.8750
 2.0230	13.9410
 2.0240	14.0050
 2.0250	14.0670
 2.0260	14.1280
 2.0270	14.1890
 2.0280	14.2480
 2.0290	14.3100
 2.0300	14.3730
 2.0310	14.4300
 2.0320	14.4860
 2.0330	14.5400
 2.0340	14.5860
 2.0350	14.6370
 2.0360	14.6880
 2.0370	14.7380
 2.0380	14.7900
 2.0390	14.8380
 2.0400	14.8850
 2.0410	14.9310
 2.0420	14.9750
 2.0430	15.0170
 2.0440	15.0600
 2.0450	15.1030
 2.0460	15.1440
 2.0470	15.1830
 2.0480	15.2240
 2.0490	15.2640
 2.0500	15.3050
 2.0510	15.3490
 2.0520	15.3920
 2.0530	15.4370
 2.0540	15.4800
 2.0550	15.5210
 2.0560	15.5620
 2.0570	15.6030
 2.0580	15.6410
 2.0590	15.6820
 2.0600	15.7230
 2.0610	15.7670
 2.0620	15.8140
 2.0630	15.8590
 2.0640	15.9080
 2.0650	15.9530
 2.0660	15.9930
 2.0670	16.0370
 2.0680	16.0830
 2.0690	16.1280
 2.0700	16.1750
 2.0710	16.2200
 2.0720	16.2620
 2.0730	16.3050
 2.0740	16.3470
 2.0750	16.3900
 2.0760	16.4320
 2.0770	16.4730
 2.0780	16.5160
 2.0790	16.5590
 2.0800	16.6010
 2.0810	16.6440
 2.0820	16.6860
 2.0830	16.7260
 2.0840	16.7680
 2.0850	16.8130
 2.0860	16.8540
 2.0870	16.8930
 2.0880	16.9320
 2.0890	16.9720
 2.0900	17.0070
 2.0910	17.0500
 2.0920	17.0980
 2.0930	17.1410
 2.0940	17.1870
 2.0950	17.2270
 2.0960	17.2610
 2.0970	17.2980
 2.0980	17.3320
 2.0990	17.3680
 2.1000	17.4030
 2.1010	17.4410
 2.1020	17.4830
 2.1030	17.5220
 2.1040	17.5630
 2.1050	17.6030
 2.1060	17.6420
 2.1070	17.6780
 2.1080	17.7150
 2.1090	17.7530
 2.1100	17.7890
 2.1110	17.8230
 2.1120	17.8590
 2.1130	17.8980
 2.1140	17.9320
 2.1150	17.9620
 2.1160	17.9950
 2.1170	18.0260
 2.1180	18.0580
 2.1190	18.0930
 2.1200	18.1270
 2.1210	18.1610
 2.1220	18.1910
 2.1230	18.2240
 2.1240	18.2580
 2.1250	18.2910
 2.1260	18.3250
 2.1270	18.3570
 2.1280	18.3900
 2.1290	18.4190
 2.1300	18.4460
 2.1310	18.4740
 2.1320	18.5000
 2.1330	18.5260
 2.1340	18.5500
 2.1350	18.5760
 2.1360	18.6050
 2.1370	18.6300
 2.1380	18.6550
 2.1390	18.6810
 2.1400	18.7090
 2.1410	18.7310
 2.1420	18.7560
 2.1430	18.7850
 2.1440	18.8100
 2.1450	18.8320
 2.1460	18.8560
 2.1470	18.8800
 2.1480	18.9030
 2.1490	18.9260
 2.1500	18.9500
 2.1510	18.9750
 2.1520	19.0000
 2.1530	19.0280
 2.1540	19.0520
 2.1550	19.0740
 2.1560	19.0960
 2.1570	19.1160
 2.1580	19.1350
 2.1590	19.1540
 2.1600	19.1730
 2.1610	19.1910
 2.1620	19.2080
 2.1630	19.2270
 2.1640	19.2460
 2.1650	19.2650
 2.1660	19.2820
 2.1670	19.3020
 2.1680	19.3240
 2.1690	19.3450
 2.1700	19.3680
 2.1710	19.3860
 2.1720	19.3990
 2.1730	19.4190
 2.1740	19.4420
 2.1750	19.4630
 2.1760	19.4920
 2.1770	19.5140
 2.1780	19.5280
 2.1790	19.5480
 2.1800	19.5670
 2.1810	19.5890
 2.1820	19.6160
 2.1830	19.6410
 2.1840	19.6680
 2.1850	19.6970
 2.1860	19.7220
 2.1870	19.7470
 2.1880	19.7710
 2.1890	19.7900
 2.1900	19.8150
 2.1910	19.8430
 2.1920	19.8700
 2.1930	19.8990
 2.1940	19.9260
 2.1950	19.9530
 2.1960	19.9780
 2.1970	20.0020
 2.1980	20.0250
 2.1990	20.0450
 2.2000	20.0670
 2.2010	20.0890
 2.2020	20.1110
 2.2030	20.1330
 2.2040	20.1540
 2.2050	20.1710
 2.2060	20.1900
 2.2070	20.2080
 2.2080	20.2260
 2.2090	20.2420
 2.2100	20.2600
 2.2110	20.2760
 2.2120	20.2890
 2.2130	20.3040
 2.2140	20.3200
 2.2150	20.3330
 2.2160	20.3450
 2.2170	20.3530
 2.2180	20.3570
 2.2190	20.3620
 2.2200	20.3670
 2.2210	20.3690
 2.2220	20.3700
 2.2230	20.3670
 2.2240	20.3590
 2.2250	20.3510
 2.2260	20.3410
 2.2270	20.3290
 2.2280	20.3170
 2.2290	20.3000
 2.2300	20.2810
 2.2310	20.2560
 2.2320	20.2300
 2.2330	20.1950
 2.2340	20.1620
 2.2350	20.1270
 2.2360	20.0900
 2.2370	20.0500
 2.2380	20.0100
 2.2390	19.9700
 2.2400	19.9240
 2.2410	19.8770
 2.2420	19.8280
 2.2430	19.7750
 2.2440	19.7220
 2.2450	19.6720
 2.2460	19.6160
 2.2470	19.5550
 2.2480	19.4950
 2.2490	19.4310
 2.2500	19.3670
 2.2510	19.3010
 2.2520	19.2380
 2.2530	19.1750
 2.2540	19.1120
 2.2550	19.0530
 2.2560	18.9920
 2.2570	18.9300
 2.2580	18.8670
 2.2590	18.7980
 2.2600	18.7350
 2.2610	18.6750
 2.2620	18.6150
 2.2630	18.5600
 2.2640	18.5060
 2.2650	18.4480
 2.2660	18.3910
 2.2670	18.3400
 2.2680	18.2920
 2.2690	18.2420
 2.2700	18.1950
 2.2710	18.1480
 2.2720	18.0980
 2.2730	18.0580
 2.2740	18.0250
 2.2750	17.9910
 2.2760	17.9620
 2.2770	17.9290
 2.2780	17.8920
 2.2790	17.8570
 2.2800	17.8240
 2.2810	17.7860
 2.2820	17.7450
 2.2830	17.7060
 2.2840	17.6620
 2.2850	17.6240
 2.2860	17.5910
 2.2870	17.5560
 2.2880	17.5220
 2.2890	17.4870
 2.2900	17.4550
 2.2910	17.4170
 2.2920	17.3760
 2.2930	17.3320
 2.2940	17.2790
 2.2950	17.2300
 2.2960	17.1830
 2.2970	17.1370
 2.2980	17.0930
 2.2990	17.0480
 2.3000	17.0050
 2.3010	16.9600
 2.3020	16.9190
 2.3030	16.8790
 2.3040	16.8410
 2.3050	16.8020
 2.3060	16.7610
 2.3070	16.7230
 2.3080	16.6900
 2.3090	16.6570
 2.3100	16.6330
 2.3110	16.6070
 2.3120	16.5830
 2.3130	16.5620
 2.3140	16.5400
 2.3150	16.5180
 2.3160	16.4970
 2.3170	16.4770
 2.3180	16.4540
 2.3190	16.4330
 2.3200	16.4070
 2.3210	16.3800
 2.3220	16.3500
 2.3230	16.3160
 2.3240	16.2850
 2.3250	16.2570
 2.3260	16.2240
 2.3270	16.1920
 2.3280	16.1550
 2.3290	16.1080
 2.3300	16.0730
 2.3310	16.0430
 2.3320	16.0110
 2.3330	15.9890
 2.3340	15.9520
 2.3350	15.9020
 2.3360	15.8580
 2.3370	15.8070
 2.3380	15.7620
 2.3390	15.7220
 2.3400	15.6830
 2.3410	15.6450
 2.3420	15.6090
 2.3430	15.5800
 2.3440	15.5450
 2.3450	15.5060
 2.3460	15.4700
 2.3470	15.4320
 2.3480	15.3970
 2.3490	15.3630
 2.3500	15.3350
 2.3510	15.3100
 2.3520	15.2840
 2.3530	15.2640
 2.3540	15.2420
 2.3550	15.2100
 2.3560	15.1830
 2.3570	15.1610
 2.3580	15.1330
 2.3590	15.1070
 2.3600	15.0880
 2.3610	15.0610
 2.3620	15.0280
 2.3630	15.0010
 2.3640	14.9700
 2.3650	14.9340
 2.3660	14.8990
 2.3670	14.8630
 2.3680	14.8260
 2.3690	14.7900
 2.3700	14.7610
 2.3710	14.7310
 2.3720	14.6930
 2.3730	14.6520
 2.3740	14.6150
 2.3750	14.5750
 2.3760	14.5430
 2.3770	14.5250
 2.3780	14.5000
 2.3790	14.4720
 2.3800	14.4390
 2.3810	14.4010
 2.3820	14.3580
 2.3830	14.3160
 2.3840	14.2820
 2.3850	14.2430
 2.3860	14.2050
 2.3870	14.1680
 2.3880	14.1300
 2.3890	14.0870
 2.3900	14.0440
 2.3910	14.0090
 2.3920	13.9720
 2.3930	13.9440
 2.3940	13.9120
 2.3950	13.8660
 2.3960	13.8200
 2.3970	13.7750
 2.3980	13.7320
 2.3990	13.6890
 2.4000	13.6530
 2.4010	13.6110
 2.4020	13.5620
 2.4030	13.5240
 2.4040	13.4720
 2.4050	13.4120
 2.4060	13.3650
 2.4070	13.3170
 2.4080	13.2760
 2.4090	13.2500
 2.4100	13.2130
 2.4110	13.1680
 2.4120	13.1300
 2.4130	13.0850
 2.4140	13.0480
 2.4150	13.0150
 2.4160	12.9630
 2.4170	12.9070
 2.4180	12.8470
 2.4190	12.7910
 2.4200	12.7510
 2.4210	12.7090
 2.4220	12.6730
 2.4230	12.6410
 2.4240	12.5830
 2.4250	12.5290
 2.4260	12.4850
 2.4270	12.4300
 2.4280	12.3900
 2.4290	12.3590
 2.4300	12.3050
 2.4310	12.2550
 2.4320	12.2280
 2.4330	12.1850
 2.4340	12.1430
 2.4350	12.1040
 2.4360	12.0380
 2.4370	11.9900
 2.4380	11.9410
 2.4390	11.8790
 2.4400	11.8370
 2.4410	11.7840
 2.4420	11.7320
 2.4430	11.7060
 2.4440	11.6580
 2.4450	11.6150
 2.4460	11.5900
 2.4470	11.5440
 2.4480	11.5210
 2.4490	11.4900
 2.4500	11.4330
 2.4510	11.3980
 2.4520	11.3570
 2.4530	11.3280
 2.4540	11.3170
 2.4550	11.2930
 2.4560	11.2500
 2.4570	11.1950
 2.4580	11.1400
 2.4590	11.0890
 2.4600	11.0370
 2.4610	10.9910
 2.4620	10.9490
 2.4630	10.9090
 2.4640	10.8930
 2.4650	10.8630
 2.4660	10.8170
 2.4670	10.7910
 2.4680	10.7490
 2.4690	10.7190
 2.4700	10.7100
 2.4710	10.7000
 2.4720	10.6970
 2.4730	10.7330
 2.4740	10.7250
 2.4750	10.6950
 2.4760	10.6630
 2.4770	10.6080
 2.4780	10.5620
 2.4790	10.5220
 2.4800	10.4850
 2.4810	10.4280
 2.4820	10.3800
 2.4830	10.3410
 2.4840	10.2870
 2.4850	10.2760
 2.4860	10.3080
 2.4870	10.3040
 2.4880	10.3020
 2.4890	10.3100
 2.4900	10.2570
 2.4910	10.2420
 2.4920	10.2330
 2.4930	10.2340
 2.4940	10.3120
 2.4950	10.3370
 2.4960	10.3700
 2.4970	10.3810
 2.4980	10.2780
 2.4990	10.2230
 2.5000	10.1920
