Name: Baccharis pilularis 2
Type: vegetation
Class: Shrub
Genus: Baccharis
Species: pilularis
Sample No.: VH004
Owner: UCSB
Wavelength Range: VSWIR
Origin: 34.418; -119.8455; WGS84
Collection Date: 4/1/2013
Description: Samples were collected as part of the HyspIRI Airborne Campaign. 48 individual plants were sampled in three times in 2013 - spring  summer  and fall. The name of the sample includes a 1  2  or 3 which references a different individual of the species. Samples were taken to JPL and processed within 48 hours of collection. The same leaves were processed in the Nicolet and then measured using the ASD.
Measurement: Bidirectional reflectance
First Column: X
Second Column: Y
X Units: Wavelength (micrometers)
Y Units: Reflectance (percentage)
First X Value: 0.35
Last X Value: 2.5
Number of X Values: 2151
Additional Information: vegetation.shrub.baccharis.pilularis.vswir.vh004.ucsb.asd.ancillary.txt

 0.3500	 3.5820
 0.3510	 3.4750
 0.3520	 3.5240
 0.3530	 3.5790
 0.3540	 3.5360
 0.3550	 3.4990
 0.3560	 3.4820
 0.3570	 3.4980
 0.3580	 3.5430
 0.3590	 3.4660
 0.3600	 3.4250
 0.3610	 3.4650
 0.3620	 3.4400
 0.3630	 3.3800
 0.3640	 3.3540
 0.3650	 3.4040
 0.3660	 3.4360
 0.3670	 3.3350
 0.3680	 3.2780
 0.3690	 3.5600
 0.3700	 3.4120
 0.3710	 3.2350
 0.3720	 3.3130
 0.3730	 3.4320
 0.3740	 3.4400
 0.3750	 3.3480
 0.3760	 3.2680
 0.3770	 3.4070
 0.3780	 3.5230
 0.3790	 3.5260
 0.3800	 3.4870
 0.3810	 3.5410
 0.3820	 3.5490
 0.3830	 3.4570
 0.3840	 3.4890
 0.3850	 3.5330
 0.3860	 3.5570
 0.3870	 3.5600
 0.3880	 3.5570
 0.3890	 3.5910
 0.3900	 3.6360
 0.3910	 3.6010
 0.3920	 3.5980
 0.3930	 3.6050
 0.3940	 3.6110
 0.3950	 3.7310
 0.3960	 3.7170
 0.3970	 3.6630
 0.3980	 3.7750
 0.3990	 3.8040
 0.4000	 3.7940
 0.4010	 3.7970
 0.4020	 3.8360
 0.4030	 3.8710
 0.4040	 3.9230
 0.4050	 4.0000
 0.4060	 4.0010
 0.4070	 4.0090
 0.4080	 4.0300
 0.4090	 4.0270
 0.4100	 4.1280
 0.4110	 4.1950
 0.4120	 4.1760
 0.4130	 4.2240
 0.4140	 4.2960
 0.4150	 4.3470
 0.4160	 4.3490
 0.4170	 4.4050
 0.4180	 4.4660
 0.4190	 4.5090
 0.4200	 4.5430
 0.4210	 4.5850
 0.4220	 4.6240
 0.4230	 4.6550
 0.4240	 4.7110
 0.4250	 4.7460
 0.4260	 4.7670
 0.4270	 4.8030
 0.4280	 4.8350
 0.4290	 4.8740
 0.4300	 4.9190
 0.4310	 4.9530
 0.4320	 4.9940
 0.4330	 5.0250
 0.4340	 5.0370
 0.4350	 5.0800
 0.4360	 5.1040
 0.4370	 5.1090
 0.4380	 5.1330
 0.4390	 5.1550
 0.4400	 5.1780
 0.4410	 5.2000
 0.4420	 5.2080
 0.4430	 5.2300
 0.4440	 5.2680
 0.4450	 5.3080
 0.4460	 5.3430
 0.4470	 5.3590
 0.4480	 5.3690
 0.4490	 5.4140
 0.4500	 5.4520
 0.4510	 5.4770
 0.4520	 5.4960
 0.4530	 5.5430
 0.4540	 5.5780
 0.4550	 5.5950
 0.4560	 5.6150
 0.4570	 5.6260
 0.4580	 5.6410
 0.4590	 5.6630
 0.4600	 5.6790
 0.4610	 5.6970
 0.4620	 5.7190
 0.4630	 5.7400
 0.4640	 5.7330
 0.4650	 5.7340
 0.4660	 5.7490
 0.4670	 5.7520
 0.4680	 5.7610
 0.4690	 5.7740
 0.4700	 5.7820
 0.4710	 5.7830
 0.4720	 5.7860
 0.4730	 5.7950
 0.4740	 5.8050
 0.4750	 5.8140
 0.4760	 5.8190
 0.4770	 5.8210
 0.4780	 5.8220
 0.4790	 5.8360
 0.4800	 5.8490
 0.4810	 5.8500
 0.4820	 5.8650
 0.4830	 5.8730
 0.4840	 5.8790
 0.4850	 5.9050
 0.4860	 5.9260
 0.4870	 5.9540
 0.4880	 5.9950
 0.4890	 6.0210
 0.4900	 6.0560
 0.4910	 6.1000
 0.4920	 6.1440
 0.4930	 6.1930
 0.4940	 6.2470
 0.4950	 6.3080
 0.4960	 6.3670
 0.4970	 6.4390
 0.4980	 6.5180
 0.4990	 6.5950
 0.5000	 6.6900
 0.5010	 6.8010
 0.5020	 6.9210
 0.5030	 7.0430
 0.5040	 7.1730
 0.5050	 7.3160
 0.5060	 7.4750
 0.5070	 7.6440
 0.5080	 7.8240
 0.5090	 8.0200
 0.5100	 8.2400
 0.5110	 8.4640
 0.5120	 8.7020
 0.5130	 8.9580
 0.5140	 9.2240
 0.5150	 9.5060
 0.5160	 9.7990
 0.5170	10.0970
 0.5180	10.4140
 0.5190	10.7380
 0.5200	11.0590
 0.5210	11.3760
 0.5220	11.7010
 0.5230	12.0290
 0.5240	12.3500
 0.5250	12.6480
 0.5260	12.9370
 0.5270	13.2130
 0.5280	13.4680
 0.5290	13.7120
 0.5300	13.9410
 0.5310	14.1520
 0.5320	14.3410
 0.5330	14.5140
 0.5340	14.6760
 0.5350	14.8250
 0.5360	14.9500
 0.5370	15.0640
 0.5380	15.1730
 0.5390	15.2790
 0.5400	15.3740
 0.5410	15.4720
 0.5420	15.5730
 0.5430	15.6590
 0.5440	15.7360
 0.5450	15.8050
 0.5460	15.8650
 0.5470	15.8990
 0.5480	15.9240
 0.5490	15.9500
 0.5500	15.9760
 0.5510	15.9950
 0.5520	16.0020
 0.5530	15.9930
 0.5540	15.9670
 0.5550	15.9260
 0.5560	15.8690
 0.5570	15.7950
 0.5580	15.7090
 0.5590	15.6110
 0.5600	15.5020
 0.5610	15.3830
 0.5620	15.2600
 0.5630	15.1300
 0.5640	14.9900
 0.5650	14.8370
 0.5660	14.6850
 0.5670	14.5370
 0.5680	14.3730
 0.5690	14.1950
 0.5700	14.0130
 0.5710	13.8360
 0.5720	13.6610
 0.5730	13.4860
 0.5740	13.3130
 0.5750	13.1410
 0.5760	12.9800
 0.5770	12.8290
 0.5780	12.6870
 0.5790	12.5600
 0.5800	12.4320
 0.5810	12.3090
 0.5820	12.2020
 0.5830	12.1040
 0.5840	12.0120
 0.5850	11.9240
 0.5860	11.8410
 0.5870	11.7670
 0.5880	11.7000
 0.5890	11.6360
 0.5900	11.5690
 0.5910	11.5100
 0.5920	11.4610
 0.5930	11.4150
 0.5940	11.3750
 0.5950	11.3420
 0.5960	11.3160
 0.5970	11.2950
 0.5980	11.2630
 0.5990	11.2240
 0.6000	11.1880
 0.6010	11.1430
 0.6020	11.0880
 0.6030	11.0270
 0.6040	10.9640
 0.6050	10.8870
 0.6060	10.8000
 0.6070	10.7100
 0.6080	10.6140
 0.6090	10.5170
 0.6100	10.4240
 0.6110	10.3340
 0.6120	10.2230
 0.6130	10.0970
 0.6140	 9.9710
 0.6150	 9.8590
 0.6160	 9.7540
 0.6170	 9.6580
 0.6180	 9.5740
 0.6190	 9.4920
 0.6200	 9.4200
 0.6210	 9.3560
 0.6220	 9.2950
 0.6230	 9.2470
 0.6240	 9.2070
 0.6250	 9.1720
 0.6260	 9.1440
 0.6270	 9.1200
 0.6280	 9.1010
 0.6290	 9.0860
 0.6300	 9.0710
 0.6310	 9.0570
 0.6320	 9.0410
 0.6330	 9.0110
 0.6340	 8.9810
 0.6350	 8.9410
 0.6360	 8.8860
 0.6370	 8.8260
 0.6380	 8.7530
 0.6390	 8.6700
 0.6400	 8.5840
 0.6410	 8.4880
 0.6420	 8.3830
 0.6430	 8.2750
 0.6440	 8.1670
 0.6450	 8.0560
 0.6460	 7.9450
 0.6470	 7.8350
 0.6480	 7.7340
 0.6490	 7.6410
 0.6500	 7.5560
 0.6510	 7.4790
 0.6520	 7.4090
 0.6530	 7.3380
 0.6540	 7.2640
 0.6550	 7.1900
 0.6560	 7.1060
 0.6570	 7.0140
 0.6580	 6.9200
 0.6590	 6.8150
 0.6600	 6.7090
 0.6610	 6.6040
 0.6620	 6.5010
 0.6630	 6.4040
 0.6640	 6.3130
 0.6650	 6.2300
 0.6660	 6.1580
 0.6670	 6.1000
 0.6680	 6.0510
 0.6690	 6.0100
 0.6700	 5.9770
 0.6710	 5.9560
 0.6720	 5.9470
 0.6730	 5.9430
 0.6740	 5.9450
 0.6750	 5.9520
 0.6760	 5.9690
 0.6770	 5.9980
 0.6780	 6.0320
 0.6790	 6.0700
 0.6800	 6.1210
 0.6810	 6.1820
 0.6820	 6.2580
 0.6830	 6.3550
 0.6840	 6.4710
 0.6850	 6.6140
 0.6860	 6.7880
 0.6870	 7.0020
 0.6880	 7.2670
 0.6890	 7.5890
 0.6900	 7.9710
 0.6910	 8.4170
 0.6920	 8.9400
 0.6930	 9.5350
 0.6940	10.1950
 0.6950	10.9210
 0.6960	11.7090
 0.6970	12.5500
 0.6980	13.4350
 0.6990	14.3570
 0.7000	15.3040
 0.7010	16.2680
 0.7020	17.2420
 0.7030	18.2140
 0.7040	19.1800
 0.7050	20.1370
 0.7060	21.0740
 0.7070	21.9890
 0.7080	22.8840
 0.7090	23.7660
 0.7100	24.6210
 0.7110	25.4590
 0.7120	26.2770
 0.7130	27.0630
 0.7140	27.8320
 0.7150	28.5830
 0.7160	29.3070
 0.7170	30.0050
 0.7180	30.6840
 0.7190	31.3400
 0.7200	31.9660
 0.7210	32.5690
 0.7220	33.1450
 0.7230	33.6930
 0.7240	34.2170
 0.7250	34.7110
 0.7260	35.1820
 0.7270	35.6300
 0.7280	36.0470
 0.7290	36.4360
 0.7300	36.8030
 0.7310	37.1510
 0.7320	37.4720
 0.7330	37.7720
 0.7340	38.0540
 0.7350	38.3180
 0.7360	38.5650
 0.7370	38.7920
 0.7380	38.9960
 0.7390	39.1900
 0.7400	39.3710
 0.7410	39.5400
 0.7420	39.6960
 0.7430	39.8430
 0.7440	39.9740
 0.7450	40.0890
 0.7460	40.1980
 0.7470	40.2990
 0.7480	40.3890
 0.7490	40.4680
 0.7500	40.5430
 0.7510	40.6150
 0.7520	40.6760
 0.7530	40.7230
 0.7540	40.7720
 0.7550	40.8180
 0.7560	40.8600
 0.7570	40.8980
 0.7580	40.9310
 0.7590	40.9620
 0.7600	40.9940
 0.7610	41.0220
 0.7620	41.0480
 0.7630	41.0720
 0.7640	41.0900
 0.7650	41.1090
 0.7660	41.1260
 0.7670	41.1420
 0.7680	41.1620
 0.7690	41.1740
 0.7700	41.1860
 0.7710	41.2040
 0.7720	41.2190
 0.7730	41.2330
 0.7740	41.2440
 0.7750	41.2520
 0.7760	41.2690
 0.7770	41.2850
 0.7780	41.2990
 0.7790	41.3150
 0.7800	41.3300
 0.7810	41.3430
 0.7820	41.3550
 0.7830	41.3660
 0.7840	41.3830
 0.7850	41.4010
 0.7860	41.4130
 0.7870	41.4280
 0.7880	41.4440
 0.7890	41.4570
 0.7900	41.4640
 0.7910	41.4770
 0.7920	41.4910
 0.7930	41.5030
 0.7940	41.5150
 0.7950	41.5270
 0.7960	41.5360
 0.7970	41.5430
 0.7980	41.5610
 0.7990	41.5710
 0.8000	41.5770
 0.8010	41.5840
 0.8020	41.5880
 0.8030	41.5910
 0.8040	41.5970
 0.8050	41.6050
 0.8060	41.6110
 0.8070	41.6130
 0.8080	41.6120
 0.8090	41.6200
 0.8100	41.6230
 0.8110	41.6160
 0.8120	41.6080
 0.8130	41.6200
 0.8140	41.6210
 0.8150	41.6160
 0.8160	41.6160
 0.8170	41.6130
 0.8180	41.6100
 0.8190	41.6070
 0.8200	41.6050
 0.8210	41.6020
 0.8220	41.5960
 0.8230	41.5840
 0.8240	41.5700
 0.8250	41.5650
 0.8260	41.5660
 0.8270	41.5640
 0.8280	41.5530
 0.8290	41.5390
 0.8300	41.5270
 0.8310	41.5210
 0.8320	41.5030
 0.8330	41.4910
 0.8340	41.4880
 0.8350	41.4890
 0.8360	41.4780
 0.8370	41.4690
 0.8380	41.4620
 0.8390	41.4530
 0.8400	41.4490
 0.8410	41.4490
 0.8420	41.4480
 0.8430	41.4450
 0.8440	41.4480
 0.8450	41.4530
 0.8460	41.4500
 0.8470	41.4360
 0.8480	41.4320
 0.8490	41.4360
 0.8500	41.4380
 0.8510	41.4390
 0.8520	41.4360
 0.8530	41.4320
 0.8540	41.4350
 0.8550	41.4380
 0.8560	41.4400
 0.8570	41.4430
 0.8580	41.4480
 0.8590	41.4520
 0.8600	41.4550
 0.8610	41.4600
 0.8620	41.4670
 0.8630	41.4710
 0.8640	41.4730
 0.8650	41.4780
 0.8660	41.4830
 0.8670	41.4910
 0.8680	41.5000
 0.8690	41.5060
 0.8700	41.5060
 0.8710	41.5160
 0.8720	41.5310
 0.8730	41.5380
 0.8740	41.5440
 0.8750	41.5500
 0.8760	41.5570
 0.8770	41.5730
 0.8780	41.5870
 0.8790	41.5990
 0.8800	41.6090
 0.8810	41.6180
 0.8820	41.6250
 0.8830	41.6420
 0.8840	41.6670
 0.8850	41.6700
 0.8860	41.6810
 0.8870	41.6980
 0.8880	41.7110
 0.8890	41.7270
 0.8900	41.7410
 0.8910	41.7580
 0.8920	41.7810
 0.8930	41.7960
 0.8940	41.8080
 0.8950	41.8260
 0.8960	41.8520
 0.8970	41.8610
 0.8980	41.8700
 0.8990	41.8860
 0.9000	41.9020
 0.9010	41.9150
 0.9020	41.9290
 0.9030	41.9440
 0.9040	41.9600
 0.9050	41.9740
 0.9060	41.9930
 0.9070	42.0170
 0.9080	42.0290
 0.9090	42.0470
 0.9100	42.0620
 0.9110	42.0700
 0.9120	42.0830
 0.9130	42.1020
 0.9140	42.1200
 0.9150	42.1320
 0.9160	42.1470
 0.9170	42.1560
 0.9180	42.1600
 0.9190	42.1640
 0.9200	42.1770
 0.9210	42.1800
 0.9220	42.1760
 0.9230	42.1820
 0.9240	42.1970
 0.9250	42.1960
 0.9260	42.1840
 0.9270	42.1900
 0.9280	42.1850
 0.9290	42.1840
 0.9300	42.1840
 0.9310	42.1650
 0.9320	42.1480
 0.9330	42.1280
 0.9340	42.1090
 0.9350	42.1030
 0.9360	42.0860
 0.9370	42.0660
 0.9380	42.0490
 0.9390	42.0340
 0.9400	42.0040
 0.9410	41.9760
 0.9420	41.9580
 0.9430	41.9300
 0.9440	41.8970
 0.9450	41.8580
 0.9460	41.8160
 0.9470	41.7840
 0.9480	41.7340
 0.9490	41.6750
 0.9500	41.6200
 0.9510	41.5620
 0.9520	41.5070
 0.9530	41.4410
 0.9540	41.3620
 0.9550	41.3030
 0.9560	41.2490
 0.9570	41.1920
 0.9580	41.1290
 0.9590	41.0610
 0.9600	41.0170
 0.9610	40.9890
 0.9620	40.9620
 0.9630	40.9440
 0.9640	40.9370
 0.9650	40.9210
 0.9660	40.8870
 0.9670	40.8840
 0.9680	40.8850
 0.9690	40.8830
 0.9700	40.8780
 0.9710	40.8790
 0.9720	40.8830
 0.9730	40.8850
 0.9740	40.8840
 0.9750	40.8920
 0.9760	40.8900
 0.9770	40.8890
 0.9780	40.9120
 0.9790	40.9310
 0.9800	40.9460
 0.9810	40.9580
 0.9820	40.9720
 0.9830	40.9970
 0.9840	41.0110
 0.9850	41.0300
 0.9860	41.0730
 0.9870	41.0850
 0.9880	41.0920
 0.9890	41.1130
 0.9900	41.1510
 0.9910	41.1550
 0.9920	41.1830
 0.9930	41.2100
 0.9940	41.2380
 0.9950	41.2660
 0.9960	41.2930
 0.9970	41.3210
 0.9980	41.3480
 0.9990	41.3760
 1.0000	41.4040
 1.0010	41.4310
 1.0020	41.4590
 1.0030	41.4860
 1.0040	41.5140
 1.0050	41.5420
 1.0060	41.5690
 1.0070	41.5970
 1.0080	41.6240
 1.0090	41.6520
 1.0100	41.6520
 1.0110	41.6730
 1.0120	41.6940
 1.0130	41.7160
 1.0140	41.7380
 1.0150	41.7590
 1.0160	41.7840
 1.0170	41.8070
 1.0180	41.8300
 1.0190	41.8540
 1.0200	41.8770
 1.0210	41.9000
 1.0220	41.9210
 1.0230	41.9400
 1.0240	41.9530
 1.0250	41.9730
 1.0260	41.9970
 1.0270	42.0160
 1.0280	42.0390
 1.0290	42.0580
 1.0300	42.0700
 1.0310	42.0880
 1.0320	42.1100
 1.0330	42.1290
 1.0340	42.1460
 1.0350	42.1650
 1.0360	42.1800
 1.0370	42.1930
 1.0380	42.2090
 1.0390	42.2270
 1.0400	42.2430
 1.0410	42.2570
 1.0420	42.2720
 1.0430	42.2850
 1.0440	42.2980
 1.0450	42.3130
 1.0460	42.3250
 1.0470	42.3350
 1.0480	42.3460
 1.0490	42.3590
 1.0500	42.3680
 1.0510	42.3740
 1.0520	42.3820
 1.0530	42.3890
 1.0540	42.3900
 1.0550	42.3980
 1.0560	42.4130
 1.0570	42.4220
 1.0580	42.4350
 1.0590	42.4420
 1.0600	42.4440
 1.0610	42.4480
 1.0620	42.4510
 1.0630	42.4540
 1.0640	42.4580
 1.0650	42.4590
 1.0660	42.4560
 1.0670	42.4560
 1.0680	42.4570
 1.0690	42.4570
 1.0700	42.4560
 1.0710	42.4570
 1.0720	42.4560
 1.0730	42.4530
 1.0740	42.4510
 1.0750	42.4500
 1.0760	42.4470
 1.0770	42.4440
 1.0780	42.4390
 1.0790	42.4330
 1.0800	42.4280
 1.0810	42.4220
 1.0820	42.4160
 1.0830	42.4100
 1.0840	42.4030
 1.0850	42.3920
 1.0860	42.3830
 1.0870	42.3730
 1.0880	42.3630
 1.0890	42.3520
 1.0900	42.3420
 1.0910	42.3310
 1.0920	42.3210
 1.0930	42.3070
 1.0940	42.2920
 1.0950	42.2780
 1.0960	42.2600
 1.0970	42.2450
 1.0980	42.2330
 1.0990	42.2180
 1.1000	42.2020
 1.1010	42.1860
 1.1020	42.1680
 1.1030	42.1510
 1.1040	42.1380
 1.1050	42.1200
 1.1060	42.1050
 1.1070	42.0940
 1.1080	42.0760
 1.1090	42.0540
 1.1100	42.0350
 1.1110	42.0120
 1.1120	41.9930
 1.1130	41.9770
 1.1140	41.9580
 1.1150	41.9380
 1.1160	41.9170
 1.1170	41.8980
 1.1180	41.8710
 1.1190	41.8410
 1.1200	41.8070
 1.1210	41.7720
 1.1220	41.7340
 1.1230	41.6930
 1.1240	41.6490
 1.1250	41.5970
 1.1260	41.5400
 1.1270	41.4740
 1.1280	41.4030
 1.1290	41.3230
 1.1300	41.2360
 1.1310	41.1390
 1.1320	41.0350
 1.1330	40.9230
 1.1340	40.8040
 1.1350	40.6750
 1.1360	40.5390
 1.1370	40.3940
 1.1380	40.2410
 1.1390	40.0840
 1.1400	39.9240
 1.1410	39.7630
 1.1420	39.6010
 1.1430	39.4370
 1.1440	39.2760
 1.1450	39.1140
 1.1460	38.9590
 1.1470	38.8060
 1.1480	38.6640
 1.1490	38.5260
 1.1500	38.4000
 1.1510	38.2830
 1.1520	38.1750
 1.1530	38.0760
 1.1540	37.9890
 1.1550	37.9120
 1.1560	37.8420
 1.1570	37.7820
 1.1580	37.7300
 1.1590	37.6830
 1.1600	37.6430
 1.1610	37.6100
 1.1620	37.5830
 1.1630	37.5570
 1.1640	37.5360
 1.1650	37.5180
 1.1660	37.5030
 1.1670	37.4890
 1.1680	37.4810
 1.1690	37.4700
 1.1700	37.4590
 1.1710	37.4500
 1.1720	37.4430
 1.1730	37.4340
 1.1740	37.4270
 1.1750	37.4170
 1.1760	37.4080
 1.1770	37.3980
 1.1780	37.3850
 1.1790	37.3740
 1.1800	37.3640
 1.1810	37.3480
 1.1820	37.3340
 1.1830	37.3220
 1.1840	37.3080
 1.1850	37.2980
 1.1860	37.2870
 1.1870	37.2760
 1.1880	37.2660
 1.1890	37.2560
 1.1900	37.2480
 1.1910	37.2420
 1.1920	37.2390
 1.1930	37.2370
 1.1940	37.2380
 1.1950	37.2400
 1.1960	37.2460
 1.1970	37.2530
 1.1980	37.2600
 1.1990	37.2690
 1.2000	37.2790
 1.2010	37.2920
 1.2020	37.3070
 1.2030	37.3220
 1.2040	37.3360
 1.2050	37.3510
 1.2060	37.3670
 1.2070	37.3870
 1.2080	37.4090
 1.2090	37.4310
 1.2100	37.4550
 1.2110	37.4790
 1.2120	37.5020
 1.2130	37.5260
 1.2140	37.5530
 1.2150	37.5770
 1.2160	37.6010
 1.2170	37.6260
 1.2180	37.6510
 1.2190	37.6780
 1.2200	37.7080
 1.2210	37.7370
 1.2220	37.7630
 1.2230	37.7900
 1.2240	37.8150
 1.2250	37.8400
 1.2260	37.8620
 1.2270	37.8860
 1.2280	37.9110
 1.2290	37.9330
 1.2300	37.9560
 1.2310	37.9790
 1.2320	37.9990
 1.2330	38.0190
 1.2340	38.0400
 1.2350	38.0630
 1.2360	38.0840
 1.2370	38.1060
 1.2380	38.1260
 1.2390	38.1420
 1.2400	38.1610
 1.2410	38.1780
 1.2420	38.1920
 1.2430	38.2060
 1.2440	38.2200
 1.2450	38.2330
 1.2460	38.2490
 1.2470	38.2640
 1.2480	38.2770
 1.2490	38.2880
 1.2500	38.2980
 1.2510	38.3080
 1.2520	38.3170
 1.2530	38.3230
 1.2540	38.3310
 1.2550	38.3380
 1.2560	38.3430
 1.2570	38.3480
 1.2580	38.3520
 1.2590	38.3550
 1.2600	38.3570
 1.2610	38.3590
 1.2620	38.3590
 1.2630	38.3590
 1.2640	38.3570
 1.2650	38.3530
 1.2660	38.3490
 1.2670	38.3410
 1.2680	38.3340
 1.2690	38.3260
 1.2700	38.3160
 1.2710	38.3060
 1.2720	38.2940
 1.2730	38.2790
 1.2740	38.2630
 1.2750	38.2450
 1.2760	38.2270
 1.2770	38.2090
 1.2780	38.1890
 1.2790	38.1690
 1.2800	38.1480
 1.2810	38.1230
 1.2820	38.0960
 1.2830	38.0670
 1.2840	38.0370
 1.2850	38.0040
 1.2860	37.9700
 1.2870	37.9350
 1.2880	37.9000
 1.2890	37.8610
 1.2900	37.8200
 1.2910	37.7770
 1.2920	37.7280
 1.2930	37.6780
 1.2940	37.6280
 1.2950	37.5760
 1.2960	37.5210
 1.2970	37.4620
 1.2980	37.4010
 1.2990	37.3370
 1.3000	37.2720
 1.3010	37.2040
 1.3020	37.1330
 1.3030	37.0590
 1.3040	36.9820
 1.3050	36.9010
 1.3060	36.8190
 1.3070	36.7320
 1.3080	36.6470
 1.3090	36.5570
 1.3100	36.4610
 1.3110	36.3620
 1.3120	36.2620
 1.3130	36.1590
 1.3140	36.0530
 1.3150	35.9490
 1.3160	35.8380
 1.3170	35.7220
 1.3180	35.6030
 1.3190	35.4810
 1.3200	35.3570
 1.3210	35.2280
 1.3220	35.0960
 1.3230	34.9630
 1.3240	34.8260
 1.3250	34.6880
 1.3260	34.5490
 1.3270	34.4060
 1.3280	34.2620
 1.3290	34.1170
 1.3300	33.9690
 1.3310	33.8200
 1.3320	33.6700
 1.3330	33.5200
 1.3340	33.3660
 1.3350	33.2130
 1.3360	33.0600
 1.3370	32.9060
 1.3380	32.7560
 1.3390	32.6080
 1.3400	32.4580
 1.3410	32.3100
 1.3420	32.1650
 1.3430	32.0200
 1.3440	31.8770
 1.3450	31.7350
 1.3460	31.5930
 1.3470	31.4530
 1.3480	31.3140
 1.3490	31.1760
 1.3500	31.0400
 1.3510	30.9030
 1.3520	30.7670
 1.3530	30.6300
 1.3540	30.4920
 1.3550	30.3560
 1.3560	30.2190
 1.3570	30.0800
 1.3580	29.9400
 1.3590	29.7960
 1.3600	29.6480
 1.3610	29.4960
 1.3620	29.3370
 1.3630	29.1750
 1.3640	29.0040
 1.3650	28.8230
 1.3660	28.6360
 1.3670	28.4370
 1.3680	28.2250
 1.3690	28.0020
 1.3700	27.7630
 1.3710	27.5100
 1.3720	27.2410
 1.3730	26.9530
 1.3740	26.6470
 1.3750	26.3220
 1.3760	25.9760
 1.3770	25.6090
 1.3780	25.2180
 1.3790	24.8080
 1.3800	24.3770
 1.3810	23.9240
 1.3820	23.4580
 1.3830	22.9750
 1.3840	22.4800
 1.3850	21.9700
 1.3860	21.4530
 1.3870	20.9210
 1.3880	20.3920
 1.3890	19.8570
 1.3900	19.3220
 1.3910	18.7950
 1.3920	18.2710
 1.3930	17.7520
 1.3940	17.2460
 1.3950	16.7460
 1.3960	16.2630
 1.3970	15.7970
 1.3980	15.3470
 1.3990	14.9240
 1.4000	14.5200
 1.4010	14.1350
 1.4020	13.7750
 1.4030	13.4320
 1.4040	13.1100
 1.4050	12.8110
 1.4060	12.5330
 1.4070	12.2760
 1.4080	12.0380
 1.4090	11.8170
 1.4100	11.6150
 1.4110	11.4280
 1.4120	11.2570
 1.4130	11.1010
 1.4140	10.9570
 1.4150	10.8280
 1.4160	10.7110
 1.4170	10.6030
 1.4180	10.5060
 1.4190	10.4170
 1.4200	10.3370
 1.4210	10.2640
 1.4220	10.1980
 1.4230	10.1390
 1.4240	10.0850
 1.4250	10.0370
 1.4260	 9.9960
 1.4270	 9.9580
 1.4280	 9.9240
 1.4290	 9.8940
 1.4300	 9.8680
 1.4310	 9.8460
 1.4320	 9.8280
 1.4330	 9.8130
 1.4340	 9.8010
 1.4350	 9.7910
 1.4360	 9.7830
 1.4370	 9.7770
 1.4380	 9.7740
 1.4390	 9.7740
 1.4400	 9.7750
 1.4410	 9.7780
 1.4420	 9.7820
 1.4430	 9.7870
 1.4440	 9.7940
 1.4450	 9.8030
 1.4460	 9.8130
 1.4470	 9.8240
 1.4480	 9.8360
 1.4490	 9.8490
 1.4500	 9.8630
 1.4510	 9.8780
 1.4520	 9.8940
 1.4530	 9.9110
 1.4540	 9.9290
 1.4550	 9.9500
 1.4560	 9.9710
 1.4570	 9.9960
 1.4580	10.0230
 1.4590	10.0520
 1.4600	10.0860
 1.4610	10.1220
 1.4620	10.1610
 1.4630	10.2040
 1.4640	10.2500
 1.4650	10.3000
 1.4660	10.3540
 1.4670	10.4110
 1.4680	10.4720
 1.4690	10.5370
 1.4700	10.6060
 1.4710	10.6780
 1.4720	10.7520
 1.4730	10.8300
 1.4740	10.9090
 1.4750	10.9900
 1.4760	11.0760
 1.4770	11.1630
 1.4780	11.2520
 1.4790	11.3440
 1.4800	11.4370
 1.4810	11.5320
 1.4820	11.6280
 1.4830	11.7250
 1.4840	11.8230
 1.4850	11.9230
 1.4860	12.0230
 1.4870	12.1260
 1.4880	12.2280
 1.4890	12.3320
 1.4900	12.4370
 1.4910	12.5430
 1.4920	12.6500
 1.4930	12.7590
 1.4940	12.8670
 1.4950	12.9770
 1.4960	13.0870
 1.4970	13.1980
 1.4980	13.3100
 1.4990	13.4230
 1.5000	13.5360
 1.5010	13.6500
 1.5020	13.7640
 1.5030	13.8800
 1.5040	13.9940
 1.5050	14.1090
 1.5060	14.2250
 1.5070	14.3400
 1.5080	14.4560
 1.5090	14.5740
 1.5100	14.6900
 1.5110	14.8070
 1.5120	14.9250
 1.5130	15.0410
 1.5140	15.1580
 1.5150	15.2750
 1.5160	15.3920
 1.5170	15.5090
 1.5180	15.6260
 1.5190	15.7420
 1.5200	15.8590
 1.5210	15.9740
 1.5220	16.0900
 1.5230	16.2050
 1.5240	16.3200
 1.5250	16.4360
 1.5260	16.5510
 1.5270	16.6660
 1.5280	16.7810
 1.5290	16.8930
 1.5300	17.0060
 1.5310	17.1180
 1.5320	17.2290
 1.5330	17.3410
 1.5340	17.4520
 1.5350	17.5630
 1.5360	17.6740
 1.5370	17.7840
 1.5380	17.8910
 1.5390	18.0000
 1.5400	18.1070
 1.5410	18.2140
 1.5420	18.3210
 1.5430	18.4270
 1.5440	18.5340
 1.5450	18.6390
 1.5460	18.7430
 1.5470	18.8450
 1.5480	18.9470
 1.5490	19.0490
 1.5500	19.1510
 1.5510	19.2510
 1.5520	19.3510
 1.5530	19.4480
 1.5540	19.5460
 1.5550	19.6430
 1.5560	19.7380
 1.5570	19.8330
 1.5580	19.9260
 1.5590	20.0190
 1.5600	20.1110
 1.5610	20.2030
 1.5620	20.2930
 1.5630	20.3820
 1.5640	20.4710
 1.5650	20.5580
 1.5660	20.6440
 1.5670	20.7280
 1.5680	20.8140
 1.5690	20.8970
 1.5700	20.9800
 1.5710	21.0620
 1.5720	21.1430
 1.5730	21.2220
 1.5740	21.3010
 1.5750	21.3780
 1.5760	21.4560
 1.5770	21.5310
 1.5780	21.6080
 1.5790	21.6840
 1.5800	21.7600
 1.5810	21.8360
 1.5820	21.9110
 1.5830	21.9830
 1.5840	22.0550
 1.5850	22.1260
 1.5860	22.1960
 1.5870	22.2660
 1.5880	22.3350
 1.5890	22.4050
 1.5900	22.4720
 1.5910	22.5370
 1.5920	22.6030
 1.5930	22.6660
 1.5940	22.7310
 1.5950	22.7960
 1.5960	22.8590
 1.5970	22.9190
 1.5980	22.9760
 1.5990	23.0340
 1.6000	23.0910
 1.6010	23.1480
 1.6020	23.2050
 1.6030	23.2600
 1.6040	23.3120
 1.6050	23.3640
 1.6060	23.4160
 1.6070	23.4660
 1.6080	23.5140
 1.6090	23.5610
 1.6100	23.6070
 1.6110	23.6520
 1.6120	23.6960
 1.6130	23.7390
 1.6140	23.7810
 1.6150	23.8220
 1.6160	23.8630
 1.6170	23.9030
 1.6180	23.9420
 1.6190	23.9820
 1.6200	24.0200
 1.6210	24.0570
 1.6220	24.0940
 1.6230	24.1290
 1.6240	24.1620
 1.6250	24.1950
 1.6260	24.2280
 1.6270	24.2620
 1.6280	24.2940
 1.6290	24.3270
 1.6300	24.3570
 1.6310	24.3890
 1.6320	24.4210
 1.6330	24.4540
 1.6340	24.4870
 1.6350	24.5190
 1.6360	24.5520
 1.6370	24.5840
 1.6380	24.6180
 1.6390	24.6500
 1.6400	24.6820
 1.6410	24.7120
 1.6420	24.7410
 1.6430	24.7680
 1.6440	24.7930
 1.6450	24.8160
 1.6460	24.8390
 1.6470	24.8600
 1.6480	24.8790
 1.6490	24.8950
 1.6500	24.9070
 1.6510	24.9160
 1.6520	24.9240
 1.6530	24.9310
 1.6540	24.9360
 1.6550	24.9410
 1.6560	24.9430
 1.6570	24.9420
 1.6580	24.9410
 1.6590	24.9390
 1.6600	24.9340
 1.6610	24.9280
 1.6620	24.9220
 1.6630	24.9150
 1.6640	24.9080
 1.6650	24.9020
 1.6660	24.8950
 1.6670	24.8860
 1.6680	24.8760
 1.6690	24.8630
 1.6700	24.8480
 1.6710	24.8330
 1.6720	24.8160
 1.6730	24.7970
 1.6740	24.7770
 1.6750	24.7530
 1.6760	24.7270
 1.6770	24.6980
 1.6780	24.6680
 1.6790	24.6350
 1.6800	24.6000
 1.6810	24.5640
 1.6820	24.5250
 1.6830	24.4850
 1.6840	24.4440
 1.6850	24.4010
 1.6860	24.3560
 1.6870	24.3110
 1.6880	24.2670
 1.6890	24.2220
 1.6900	24.1770
 1.6910	24.1310
 1.6920	24.0850
 1.6930	24.0390
 1.6940	23.9930
 1.6950	23.9470
 1.6960	23.9010
 1.6970	23.8560
 1.6980	23.8110
 1.6990	23.7670
 1.7000	23.7230
 1.7010	23.6800
 1.7020	23.6330
 1.7030	23.5850
 1.7040	23.5380
 1.7050	23.4880
 1.7060	23.4410
 1.7070	23.3960
 1.7080	23.3510
 1.7090	23.3060
 1.7100	23.2590
 1.7110	23.2120
 1.7120	23.1650
 1.7130	23.1180
 1.7140	23.0750
 1.7150	23.0320
 1.7160	22.9880
 1.7170	22.9460
 1.7180	22.9020
 1.7190	22.8580
 1.7200	22.8160
 1.7210	22.7740
 1.7220	22.7300
 1.7230	22.6870
 1.7240	22.6470
 1.7250	22.6040
 1.7260	22.5600
 1.7270	22.5170
 1.7280	22.4730
 1.7290	22.4280
 1.7300	22.3870
 1.7310	22.3450
 1.7320	22.3010
 1.7330	22.2580
 1.7340	22.2150
 1.7350	22.1700
 1.7360	22.1270
 1.7370	22.0790
 1.7380	22.0280
 1.7390	21.9750
 1.7400	21.9200
 1.7410	21.8620
 1.7420	21.8030
 1.7430	21.7430
 1.7440	21.6820
 1.7450	21.6190
 1.7460	21.5560
 1.7470	21.4900
 1.7480	21.4230
 1.7490	21.3540
 1.7500	21.2830
 1.7510	21.2130
 1.7520	21.1430
 1.7530	21.0720
 1.7540	21.0010
 1.7550	20.9290
 1.7560	20.8570
 1.7570	20.7860
 1.7580	20.7170
 1.7590	20.6500
 1.7600	20.5840
 1.7610	20.5190
 1.7620	20.4560
 1.7630	20.3950
 1.7640	20.3350
 1.7650	20.2790
 1.7660	20.2240
 1.7670	20.1710
 1.7680	20.1190
 1.7690	20.0680
 1.7700	20.0190
 1.7710	19.9720
 1.7720	19.9260
 1.7730	19.8810
 1.7740	19.8390
 1.7750	19.7960
 1.7760	19.7570
 1.7770	19.7220
 1.7780	19.6870
 1.7790	19.6530
 1.7800	19.6200
 1.7810	19.5890
 1.7820	19.5600
 1.7830	19.5330
 1.7840	19.5070
 1.7850	19.4840
 1.7860	19.4620
 1.7870	19.4430
 1.7880	19.4260
 1.7890	19.4080
 1.7900	19.3930
 1.7910	19.3800
 1.7920	19.3690
 1.7930	19.3580
 1.7940	19.3490
 1.7950	19.3410
 1.7960	19.3320
 1.7970	19.3260
 1.7980	19.3210
 1.7990	19.3170
 1.8000	19.3130
 1.8010	19.3100
 1.8020	19.3090
 1.8030	19.3070
 1.8040	19.3040
 1.8050	19.3010
 1.8060	19.2970
 1.8070	19.2940
 1.8080	19.2940
 1.8090	19.2910
 1.8100	19.2880
 1.8110	19.2840
 1.8120	19.2790
 1.8130	19.2730
 1.8140	19.2680
 1.8150	19.2590
 1.8160	19.2480
 1.8170	19.2390
 1.8180	19.2300
 1.8190	19.2200
 1.8200	19.2100
 1.8210	19.1990
 1.8220	19.1830
 1.8230	19.1650
 1.8240	19.1460
 1.8250	19.1200
 1.8260	19.0970
 1.8270	19.0070
 1.8280	18.9180
 1.8290	18.8280
 1.8300	18.7390
 1.8310	18.6490
 1.8320	18.5600
 1.8330	18.4710
 1.8340	18.3810
 1.8350	18.3810
 1.8360	18.3330
 1.8370	18.2790
 1.8380	18.2190
 1.8390	18.1540
 1.8400	18.0840
 1.8410	18.0090
 1.8420	17.9290
 1.8430	17.8430
 1.8440	17.7500
 1.8450	17.6500
 1.8460	17.5400
 1.8470	17.4240
 1.8480	17.3000
 1.8490	17.1660
 1.8500	17.0230
 1.8510	16.8720
 1.8520	16.7110
 1.8530	16.5360
 1.8540	16.3500
 1.8550	16.1570
 1.8560	15.9520
 1.8570	15.7360
 1.8580	15.5090
 1.8590	15.2710
 1.8600	15.0200
 1.8610	14.7560
 1.8620	14.4830
 1.8630	14.2030
 1.8640	13.9090
 1.8650	13.6020
 1.8660	13.2860
 1.8670	12.9550
 1.8680	12.6140
 1.8690	12.2650
 1.8700	11.9110
 1.8710	11.5470
 1.8720	11.1860
 1.8730	10.8200
 1.8740	10.4550
 1.8750	10.0910
 1.8760	 9.7260
 1.8770	 9.3700
 1.8780	 9.0210
 1.8790	 8.6810
 1.8800	 8.3540
 1.8810	 8.0390
 1.8820	 7.7330
 1.8830	 7.4380
 1.8840	 7.1550
 1.8850	 6.8810
 1.8860	 6.6220
 1.8870	 6.3780
 1.8880	 6.1460
 1.8890	 5.9310
 1.8900	 5.7330
 1.8910	 5.5490
 1.8920	 5.3790
 1.8930	 5.2260
 1.8940	 5.0860
 1.8950	 4.9590
 1.8960	 4.8430
 1.8970	 4.7390
 1.8980	 4.6480
 1.8990	 4.5620
 1.9000	 4.4860
 1.9010	 4.4220
 1.9020	 4.3610
 1.9030	 4.3070
 1.9040	 4.2630
 1.9050	 4.2210
 1.9060	 4.1830
 1.9070	 4.1500
 1.9080	 4.1200
 1.9090	 4.0970
 1.9100	 4.0750
 1.9110	 4.0550
 1.9120	 4.0390
 1.9130	 4.0240
 1.9140	 4.0110
 1.9150	 4.0000
 1.9160	 3.9930
 1.9170	 3.9850
 1.9180	 3.9780
 1.9190	 3.9710
 1.9200	 3.9660
 1.9210	 3.9630
 1.9220	 3.9600
 1.9230	 3.9570
 1.9240	 3.9560
 1.9250	 3.9550
 1.9260	 3.9550
 1.9270	 3.9570
 1.9280	 3.9600
 1.9290	 3.9620
 1.9300	 3.9650
 1.9310	 3.9690
 1.9320	 3.9740
 1.9330	 3.9790
 1.9340	 3.9850
 1.9350	 3.9910
 1.9360	 3.9970
 1.9370	 4.0030
 1.9380	 4.0100
 1.9390	 4.0170
 1.9400	 4.0230
 1.9410	 4.0310
 1.9420	 4.0410
 1.9430	 4.0530
 1.9440	 4.0650
 1.9450	 4.0790
 1.9460	 4.0910
 1.9470	 4.1020
 1.9480	 4.1140
 1.9490	 4.1250
 1.9500	 4.1360
 1.9510	 4.1490
 1.9520	 4.1630
 1.9530	 4.1760
 1.9540	 4.1910
 1.9550	 4.2070
 1.9560	 4.2230
 1.9570	 4.2400
 1.9580	 4.2580
 1.9590	 4.2750
 1.9600	 4.2900
 1.9610	 4.3080
 1.9620	 4.3270
 1.9630	 4.3450
 1.9640	 4.3650
 1.9650	 4.3870
 1.9660	 4.4060
 1.9670	 4.4250
 1.9680	 4.4470
 1.9690	 4.4690
 1.9700	 4.4910
 1.9710	 4.5160
 1.9720	 4.5400
 1.9730	 4.5620
 1.9740	 4.5850
 1.9750	 4.6100
 1.9760	 4.6350
 1.9770	 4.6590
 1.9780	 4.6840
 1.9790	 4.7100
 1.9800	 4.7360
 1.9810	 4.7630
 1.9820	 4.7930
 1.9830	 4.8200
 1.9840	 4.8460
 1.9850	 4.8740
 1.9860	 4.9030
 1.9870	 4.9320
 1.9880	 4.9620
 1.9890	 4.9910
 1.9900	 5.0220
 1.9910	 5.0530
 1.9920	 5.0840
 1.9930	 5.1160
 1.9940	 5.1480
 1.9950	 5.1790
 1.9960	 5.2110
 1.9970	 5.2420
 1.9980	 5.2730
 1.9990	 5.3040
 2.0000	 5.3360
 2.0010	 5.3690
 2.0020	 5.4040
 2.0030	 5.4400
 2.0040	 5.4760
 2.0050	 5.5110
 2.0060	 5.5470
 2.0070	 5.5820
 2.0080	 5.6160
 2.0090	 5.6510
 2.0100	 5.6860
 2.0110	 5.7220
 2.0120	 5.7600
 2.0130	 5.7980
 2.0140	 5.8370
 2.0150	 5.8730
 2.0160	 5.9090
 2.0170	 5.9470
 2.0180	 5.9830
 2.0190	 6.0210
 2.0200	 6.0570
 2.0210	 6.0910
 2.0220	 6.1270
 2.0230	 6.1630
 2.0240	 6.2000
 2.0250	 6.2380
 2.0260	 6.2760
 2.0270	 6.3150
 2.0280	 6.3540
 2.0290	 6.3900
 2.0300	 6.4280
 2.0310	 6.4630
 2.0320	 6.4950
 2.0330	 6.5300
 2.0340	 6.5660
 2.0350	 6.6010
 2.0360	 6.6380
 2.0370	 6.6740
 2.0380	 6.7080
 2.0390	 6.7440
 2.0400	 6.7780
 2.0410	 6.8140
 2.0420	 6.8510
 2.0430	 6.8880
 2.0440	 6.9250
 2.0450	 6.9640
 2.0460	 7.0010
 2.0470	 7.0390
 2.0480	 7.0750
 2.0490	 7.1090
 2.0500	 7.1450
 2.0510	 7.1810
 2.0520	 7.2180
 2.0530	 7.2570
 2.0540	 7.2950
 2.0550	 7.3320
 2.0560	 7.3700
 2.0570	 7.4070
 2.0580	 7.4440
 2.0590	 7.4830
 2.0600	 7.5230
 2.0610	 7.5630
 2.0620	 7.6060
 2.0630	 7.6460
 2.0640	 7.6860
 2.0650	 7.7270
 2.0660	 7.7690
 2.0670	 7.8100
 2.0680	 7.8480
 2.0690	 7.8890
 2.0700	 7.9300
 2.0710	 7.9710
 2.0720	 8.0130
 2.0730	 8.0560
 2.0740	 8.0960
 2.0750	 8.1330
 2.0760	 8.1740
 2.0770	 8.2180
 2.0780	 8.2600
 2.0790	 8.3030
 2.0800	 8.3450
 2.0810	 8.3830
 2.0820	 8.4240
 2.0830	 8.4670
 2.0840	 8.5080
 2.0850	 8.5500
 2.0860	 8.5900
 2.0870	 8.6280
 2.0880	 8.6670
 2.0890	 8.7070
 2.0900	 8.7470
 2.0910	 8.7880
 2.0920	 8.8300
 2.0930	 8.8710
 2.0940	 8.9110
 2.0950	 8.9510
 2.0960	 8.9910
 2.0970	 9.0300
 2.0980	 9.0680
 2.0990	 9.1060
 2.1000	 9.1420
 2.1010	 9.1790
 2.1020	 9.2150
 2.1030	 9.2520
 2.1040	 9.2880
 2.1050	 9.3300
 2.1060	 9.3680
 2.1070	 9.4060
 2.1080	 9.4430
 2.1090	 9.4770
 2.1100	 9.5140
 2.1110	 9.5520
 2.1120	 9.5880
 2.1130	 9.6260
 2.1140	 9.6620
 2.1150	 9.6970
 2.1160	 9.7330
 2.1170	 9.7680
 2.1180	 9.8030
 2.1190	 9.8380
 2.1200	 9.8710
 2.1210	 9.9050
 2.1220	 9.9380
 2.1230	 9.9690
 2.1240	10.0010
 2.1250	10.0300
 2.1260	10.0570
 2.1270	10.0860
 2.1280	10.1160
 2.1290	10.1450
 2.1300	10.1760
 2.1310	10.2030
 2.1320	10.2240
 2.1330	10.2500
 2.1340	10.2750
 2.1350	10.3010
 2.1360	10.3320
 2.1370	10.3580
 2.1380	10.3810
 2.1390	10.4030
 2.1400	10.4200
 2.1410	10.4380
 2.1420	10.4570
 2.1430	10.4770
 2.1440	10.4960
 2.1450	10.5140
 2.1460	10.5320
 2.1470	10.5470
 2.1480	10.5650
 2.1490	10.5860
 2.1500	10.6070
 2.1510	10.6300
 2.1520	10.6510
 2.1530	10.6730
 2.1540	10.6900
 2.1550	10.7040
 2.1560	10.7190
 2.1570	10.7310
 2.1580	10.7450
 2.1590	10.7620
 2.1600	10.7790
 2.1610	10.7920
 2.1620	10.8060
 2.1630	10.8170
 2.1640	10.8230
 2.1650	10.8340
 2.1660	10.8460
 2.1670	10.8600
 2.1680	10.8800
 2.1690	10.8930
 2.1700	10.9040
 2.1710	10.9150
 2.1720	10.9220
 2.1730	10.9320
 2.1740	10.9410
 2.1750	10.9520
 2.1760	10.9660
 2.1770	10.9780
 2.1780	10.9940
 2.1790	11.0070
 2.1800	11.0200
 2.1810	11.0320
 2.1820	11.0400
 2.1830	11.0530
 2.1840	11.0620
 2.1850	11.0690
 2.1860	11.0790
 2.1870	11.0900
 2.1880	11.0980
 2.1890	11.1050
 2.1900	11.1120
 2.1910	11.1160
 2.1920	11.1220
 2.1930	11.1290
 2.1940	11.1380
 2.1950	11.1500
 2.1960	11.1560
 2.1970	11.1610
 2.1980	11.1650
 2.1990	11.1600
 2.2000	11.1610
 2.2010	11.1640
 2.2020	11.1660
 2.2030	11.1710
 2.2040	11.1730
 2.2050	11.1730
 2.2060	11.1720
 2.2070	11.1710
 2.2080	11.1700
 2.2090	11.1650
 2.2100	11.1590
 2.2110	11.1520
 2.2120	11.1420
 2.2130	11.1340
 2.2140	11.1260
 2.2150	11.1170
 2.2160	11.1050
 2.2170	11.0970
 2.2180	11.0920
 2.2190	11.0840
 2.2200	11.0780
 2.2210	11.0690
 2.2220	11.0550
 2.2230	11.0420
 2.2240	11.0310
 2.2250	11.0160
 2.2260	11.0000
 2.2270	10.9810
 2.2280	10.9590
 2.2290	10.9340
 2.2300	10.9060
 2.2310	10.8760
 2.2320	10.8500
 2.2330	10.8210
 2.2340	10.7920
 2.2350	10.7640
 2.2360	10.7330
 2.2370	10.6980
 2.2380	10.6640
 2.2390	10.6300
 2.2400	10.5960
 2.2410	10.5620
 2.2420	10.5260
 2.2430	10.4890
 2.2440	10.4530
 2.2450	10.4150
 2.2460	10.3780
 2.2470	10.3410
 2.2480	10.3060
 2.2490	10.2690
 2.2500	10.2370
 2.2510	10.2140
 2.2520	10.1820
 2.2530	10.1450
 2.2540	10.1100
 2.2550	10.0710
 2.2560	10.0320
 2.2570	 9.9940
 2.2580	 9.9540
 2.2590	 9.9070
 2.2600	 9.8630
 2.2610	 9.8210
 2.2620	 9.7770
 2.2630	 9.7360
 2.2640	 9.6930
 2.2650	 9.6480
 2.2660	 9.6020
 2.2670	 9.5580
 2.2680	 9.5110
 2.2690	 9.4670
 2.2700	 9.4250
 2.2710	 9.3810
 2.2720	 9.3340
 2.2730	 9.2920
 2.2740	 9.2530
 2.2750	 9.2130
 2.2760	 9.1760
 2.2770	 9.1400
 2.2780	 9.1070
 2.2790	 9.0720
 2.2800	 9.0390
 2.2810	 9.0050
 2.2820	 8.9660
 2.2830	 8.9310
 2.2840	 8.8990
 2.2850	 8.8660
 2.2860	 8.8310
 2.2870	 8.7960
 2.2880	 8.7590
 2.2890	 8.7230
 2.2900	 8.6910
 2.2910	 8.6550
 2.2920	 8.6190
 2.2930	 8.5810
 2.2940	 8.5370
 2.2950	 8.4970
 2.2960	 8.4580
 2.2970	 8.4210
 2.2980	 8.3860
 2.2990	 8.3540
 2.3000	 8.3240
 2.3010	 8.2930
 2.3020	 8.2640
 2.3030	 8.2340
 2.3040	 8.1970
 2.3050	 8.1630
 2.3060	 8.1360
 2.3070	 8.1120
 2.3080	 8.0920
 2.3090	 8.0760
 2.3100	 8.0550
 2.3110	 8.0340
 2.3120	 8.0170
 2.3130	 8.0030
 2.3140	 7.9860
 2.3150	 7.9710
 2.3160	 7.9530
 2.3170	 7.9340
 2.3180	 7.9140
 2.3190	 7.8920
 2.3200	 7.8700
 2.3210	 7.8450
 2.3220	 7.8210
 2.3230	 7.7970
 2.3240	 7.7740
 2.3250	 7.7520
 2.3260	 7.7280
 2.3270	 7.7050
 2.3280	 7.6780
 2.3290	 7.6460
 2.3300	 7.6160
 2.3310	 7.5850
 2.3320	 7.5570
 2.3330	 7.5340
 2.3340	 7.5040
 2.3350	 7.4710
 2.3360	 7.4400
 2.3370	 7.4060
 2.3380	 7.3750
 2.3390	 7.3510
 2.3400	 7.3230
 2.3410	 7.2920
 2.3420	 7.2600
 2.3430	 7.2230
 2.3440	 7.1940
 2.3450	 7.1710
 2.3460	 7.1450
 2.3470	 7.1260
 2.3480	 7.0990
 2.3490	 7.0610
 2.3500	 7.0310
 2.3510	 7.0030
 2.3520	 6.9760
 2.3530	 6.9480
 2.3540	 6.9290
 2.3550	 6.9080
 2.3560	 6.8850
 2.3570	 6.8650
 2.3580	 6.8420
 2.3590	 6.8120
 2.3600	 6.7860
 2.3610	 6.7610
 2.3620	 6.7380
 2.3630	 6.7200
 2.3640	 6.6920
 2.3650	 6.6640
 2.3660	 6.6330
 2.3670	 6.5940
 2.3680	 6.5740
 2.3690	 6.5610
 2.3700	 6.5420
 2.3710	 6.5310
 2.3720	 6.5160
 2.3730	 6.4880
 2.3740	 6.4600
 2.3750	 6.4290
 2.3760	 6.4010
 2.3770	 6.3740
 2.3780	 6.3460
 2.3790	 6.3230
 2.3800	 6.2960
 2.3810	 6.2670
 2.3820	 6.2420
 2.3830	 6.2220
 2.3840	 6.2040
 2.3850	 6.1800
 2.3860	 6.1580
 2.3870	 6.1330
 2.3880	 6.1030
 2.3890	 6.0810
 2.3900	 6.0570
 2.3910	 6.0260
 2.3920	 6.0010
 2.3930	 5.9770
 2.3940	 5.9510
 2.3950	 5.9270
 2.3960	 5.8930
 2.3970	 5.8630
 2.3980	 5.8410
 2.3990	 5.8150
 2.4000	 5.7940
 2.4010	 5.7670
 2.4020	 5.7360
 2.4030	 5.7030
 2.4040	 5.6720
 2.4050	 5.6600
 2.4060	 5.6330
 2.4070	 5.6170
 2.4080	 5.6080
 2.4090	 5.5800
 2.4100	 5.5680
 2.4110	 5.5510
 2.4120	 5.5190
 2.4130	 5.4920
 2.4140	 5.4590
 2.4150	 5.4240
 2.4160	 5.4010
 2.4170	 5.3830
 2.4180	 5.3620
 2.4190	 5.3440
 2.4200	 5.3300
 2.4210	 5.3140
 2.4220	 5.2980
 2.4230	 5.2800
 2.4240	 5.2680
 2.4250	 5.2530
 2.4260	 5.2360
 2.4270	 5.2120
 2.4280	 5.1710
 2.4290	 5.1330
 2.4300	 5.1000
 2.4310	 5.0690
 2.4320	 5.0500
 2.4330	 5.0360
 2.4340	 5.0090
 2.4350	 4.9890
 2.4360	 4.9710
 2.4370	 4.9430
 2.4380	 4.9230
 2.4390	 4.9000
 2.4400	 4.8880
 2.4410	 4.8860
 2.4420	 4.8740
 2.4430	 4.8600
 2.4440	 4.8350
 2.4450	 4.8080
 2.4460	 4.7870
 2.4470	 4.7670
 2.4480	 4.7450
 2.4490	 4.7070
 2.4500	 4.6760
 2.4510	 4.6590
 2.4520	 4.6500
 2.4530	 4.6540
 2.4540	 4.6450
 2.4550	 4.6400
 2.4560	 4.6320
 2.4570	 4.6170
 2.4580	 4.6220
 2.4590	 4.6040
 2.4600	 4.5620
 2.4610	 4.5320
 2.4620	 4.5030
 2.4630	 4.4520
 2.4640	 4.4260
 2.4650	 4.4280
 2.4660	 4.4040
 2.4670	 4.4050
 2.4680	 4.4210
 2.4690	 4.4000
 2.4700	 4.3860
 2.4710	 4.3690
 2.4720	 4.3580
 2.4730	 4.3600
 2.4740	 4.3480
 2.4750	 4.3390
 2.4760	 4.3140
 2.4770	 4.2500
 2.4780	 4.2190
 2.4790	 4.2120
 2.4800	 4.1990
 2.4810	 4.2050
 2.4820	 4.2050
 2.4830	 4.1840
 2.4840	 4.1850
 2.4850	 4.1860
 2.4860	 4.1820
 2.4870	 4.1760
 2.4880	 4.1680
 2.4890	 4.1560
 2.4900	 4.1520
 2.4910	 4.1790
 2.4920	 4.1810
 2.4930	 4.1770
 2.4940	 4.2080
 2.4950	 4.2010
 2.4960	 4.2160
 2.4970	 4.2660
 2.4980	 4.2310
 2.4990	 4.1980
 2.5000	 4.2120
