Name: Betula papyrifera
Type: Vegetation
Class: Tree
Genus: Betula
Species: papyrifera
Sample No.: BEPA-1-31
Owner: UCSB
Wavelength Range: VSWIR
Origin: USA; Massachusetts; Harvard Forest
Collection Date: 7/8/2013
Description: Samples were collected as part of NSF Macrosystem Biology proposal titled: Collaborative Research: Thermal controls on ecosystem metabolism and function: scaling from leaves to canopies to regions. Samples were collected and overnighted to JPL facilities for processing. The same leaves were processed in the Nicolet and then measured using the ASD.
Measurement: Bidirectional reflectance
First Column: X
Second Column: Y
X Units: Wavelength (micrometers)
Y Units: Reflectance (percentage)
First X Value: 0.35
Last X Value: 2.5
Number of X Values: 2151
Additional Information: vegetation.tree.betula.papyrifera.vswir.bepa-1-31.ucsb.asd.ancillary.txt

 0.3500	 5.0270
 0.3510	 5.0030
 0.3520	 4.9010
 0.3530	 4.8130
 0.3540	 4.7640
 0.3550	 4.5760
 0.3560	 4.4600
 0.3570	 4.5100
 0.3580	 4.7070
 0.3590	 4.7040
 0.3600	 4.6780
 0.3610	 4.7110
 0.3620	 4.6740
 0.3630	 4.6680
 0.3640	 4.6810
 0.3650	 4.6690
 0.3660	 4.5730
 0.3670	 4.5820
 0.3680	 4.6650
 0.3690	 4.6590
 0.3700	 4.6930
 0.3710	 4.7480
 0.3720	 4.7640
 0.3730	 4.6300
 0.3740	 4.5850
 0.3750	 4.6320
 0.3760	 4.6790
 0.3770	 4.6070
 0.3780	 4.5340
 0.3790	 4.5320
 0.3800	 4.6170
 0.3810	 4.6410
 0.3820	 4.5390
 0.3830	 4.3840
 0.3840	 4.5260
 0.3850	 4.5700
 0.3860	 4.5470
 0.3870	 4.6000
 0.3880	 4.5050
 0.3890	 4.4720
 0.3900	 4.5330
 0.3910	 4.5100
 0.3920	 4.5270
 0.3930	 4.5740
 0.3940	 4.6110
 0.3950	 4.5940
 0.3960	 4.5430
 0.3970	 4.5270
 0.3980	 4.6110
 0.3990	 4.6400
 0.4000	 4.6110
 0.4010	 4.5550
 0.4020	 4.5220
 0.4030	 4.5260
 0.4040	 4.5550
 0.4050	 4.5750
 0.4060	 4.5240
 0.4070	 4.5140
 0.4080	 4.5410
 0.4090	 4.5330
 0.4100	 4.5020
 0.4110	 4.5080
 0.4120	 4.5580
 0.4130	 4.5440
 0.4140	 4.5330
 0.4150	 4.5510
 0.4160	 4.5900
 0.4170	 4.5690
 0.4180	 4.5430
 0.4190	 4.5380
 0.4200	 4.5470
 0.4210	 4.5860
 0.4220	 4.6120
 0.4230	 4.6000
 0.4240	 4.6110
 0.4250	 4.6030
 0.4260	 4.5950
 0.4270	 4.6220
 0.4280	 4.6300
 0.4290	 4.6450
 0.4300	 4.6740
 0.4310	 4.6860
 0.4320	 4.6890
 0.4330	 4.6930
 0.4340	 4.7000
 0.4350	 4.6910
 0.4360	 4.6800
 0.4370	 4.6780
 0.4380	 4.6890
 0.4390	 4.6810
 0.4400	 4.6790
 0.4410	 4.6970
 0.4420	 4.7030
 0.4430	 4.6880
 0.4440	 4.6760
 0.4450	 4.6910
 0.4460	 4.6800
 0.4470	 4.6840
 0.4480	 4.7110
 0.4490	 4.7310
 0.4500	 4.7330
 0.4510	 4.7320
 0.4520	 4.7380
 0.4530	 4.7340
 0.4540	 4.7320
 0.4550	 4.7380
 0.4560	 4.7520
 0.4570	 4.7450
 0.4580	 4.7490
 0.4590	 4.7740
 0.4600	 4.7650
 0.4610	 4.7610
 0.4620	 4.7640
 0.4630	 4.7650
 0.4640	 4.7650
 0.4650	 4.7670
 0.4660	 4.7700
 0.4670	 4.7720
 0.4680	 4.7660
 0.4690	 4.7650
 0.4700	 4.7730
 0.4710	 4.7770
 0.4720	 4.7720
 0.4730	 4.7660
 0.4740	 4.7640
 0.4750	 4.7520
 0.4760	 4.7540
 0.4770	 4.7720
 0.4780	 4.7630
 0.4790	 4.7690
 0.4800	 4.7800
 0.4810	 4.7750
 0.4820	 4.7720
 0.4830	 4.7720
 0.4840	 4.7780
 0.4850	 4.7970
 0.4860	 4.8020
 0.4870	 4.8020
 0.4880	 4.8050
 0.4890	 4.8090
 0.4900	 4.8140
 0.4910	 4.8160
 0.4920	 4.8110
 0.4930	 4.8320
 0.4940	 4.8520
 0.4950	 4.8600
 0.4960	 4.8720
 0.4970	 4.8740
 0.4980	 4.8840
 0.4990	 4.9170
 0.5000	 4.9390
 0.5010	 4.9580
 0.5020	 4.9770
 0.5030	 4.9960
 0.5040	 5.0230
 0.5050	 5.0580
 0.5060	 5.1000
 0.5070	 5.1460
 0.5080	 5.1960
 0.5090	 5.2510
 0.5100	 5.3110
 0.5110	 5.3720
 0.5120	 5.4430
 0.5130	 5.5310
 0.5140	 5.6380
 0.5150	 5.7440
 0.5160	 5.8550
 0.5170	 5.9830
 0.5180	 6.1260
 0.5190	 6.2790
 0.5200	 6.4370
 0.5210	 6.6000
 0.5220	 6.7710
 0.5230	 6.9430
 0.5240	 7.1110
 0.5250	 7.2870
 0.5260	 7.4550
 0.5270	 7.6130
 0.5280	 7.7610
 0.5290	 7.8960
 0.5300	 8.0240
 0.5310	 8.1440
 0.5320	 8.2580
 0.5330	 8.3520
 0.5340	 8.4430
 0.5350	 8.5360
 0.5360	 8.5950
 0.5370	 8.6570
 0.5380	 8.7220
 0.5390	 8.7610
 0.5400	 8.8030
 0.5410	 8.8490
 0.5420	 8.8980
 0.5430	 8.9470
 0.5440	 8.9910
 0.5450	 9.0300
 0.5460	 9.0670
 0.5470	 9.0840
 0.5480	 9.0910
 0.5490	 9.1000
 0.5500	 9.1160
 0.5510	 9.1270
 0.5520	 9.1290
 0.5530	 9.1220
 0.5540	 9.1070
 0.5550	 9.0770
 0.5560	 9.0300
 0.5570	 8.9730
 0.5580	 8.9100
 0.5590	 8.8350
 0.5600	 8.7480
 0.5610	 8.6590
 0.5620	 8.5710
 0.5630	 8.4750
 0.5640	 8.3630
 0.5650	 8.2510
 0.5660	 8.1380
 0.5670	 8.0240
 0.5680	 7.9070
 0.5690	 7.7810
 0.5700	 7.6570
 0.5710	 7.5430
 0.5720	 7.4300
 0.5730	 7.3160
 0.5740	 7.2060
 0.5750	 7.1100
 0.5760	 7.0260
 0.5770	 6.9470
 0.5780	 6.8720
 0.5790	 6.8000
 0.5800	 6.7330
 0.5810	 6.6700
 0.5820	 6.6130
 0.5830	 6.5650
 0.5840	 6.5190
 0.5850	 6.4740
 0.5860	 6.4370
 0.5870	 6.4110
 0.5880	 6.3860
 0.5890	 6.3520
 0.5900	 6.3140
 0.5910	 6.2820
 0.5920	 6.2540
 0.5930	 6.2290
 0.5940	 6.2120
 0.5950	 6.1970
 0.5960	 6.1790
 0.5970	 6.1620
 0.5980	 6.1470
 0.5990	 6.1330
 0.6000	 6.1180
 0.6010	 6.1020
 0.6020	 6.0790
 0.6030	 6.0500
 0.6040	 6.0240
 0.6050	 5.9940
 0.6060	 5.9600
 0.6070	 5.9240
 0.6080	 5.8900
 0.6090	 5.8560
 0.6100	 5.8230
 0.6110	 5.7910
 0.6120	 5.7580
 0.6130	 5.7130
 0.6140	 5.6600
 0.6150	 5.6250
 0.6160	 5.5890
 0.6170	 5.5580
 0.6180	 5.5360
 0.6190	 5.5070
 0.6200	 5.4820
 0.6210	 5.4630
 0.6220	 5.4440
 0.6230	 5.4300
 0.6240	 5.4190
 0.6250	 5.4090
 0.6260	 5.4000
 0.6270	 5.3930
 0.6280	 5.3870
 0.6290	 5.3820
 0.6300	 5.3760
 0.6310	 5.3710
 0.6320	 5.3660
 0.6330	 5.3620
 0.6340	 5.3510
 0.6350	 5.3330
 0.6360	 5.3150
 0.6370	 5.3030
 0.6380	 5.2840
 0.6390	 5.2570
 0.6400	 5.2310
 0.6410	 5.2090
 0.6420	 5.1840
 0.6430	 5.1570
 0.6440	 5.1300
 0.6450	 5.1030
 0.6460	 5.0790
 0.6470	 5.0590
 0.6480	 5.0410
 0.6490	 5.0250
 0.6500	 5.0100
 0.6510	 4.9930
 0.6520	 4.9810
 0.6530	 4.9730
 0.6540	 4.9650
 0.6550	 4.9480
 0.6560	 4.9360
 0.6570	 4.9280
 0.6580	 4.9160
 0.6590	 4.9010
 0.6600	 4.8860
 0.6610	 4.8740
 0.6620	 4.8700
 0.6630	 4.8600
 0.6640	 4.8510
 0.6650	 4.8470
 0.6660	 4.8430
 0.6670	 4.8440
 0.6680	 4.8500
 0.6690	 4.8580
 0.6700	 4.8620
 0.6710	 4.8680
 0.6720	 4.8820
 0.6730	 4.8980
 0.6740	 4.9130
 0.6750	 4.9300
 0.6760	 4.9530
 0.6770	 4.9820
 0.6780	 5.0080
 0.6790	 5.0320
 0.6800	 5.0630
 0.6810	 5.0940
 0.6820	 5.1260
 0.6830	 5.1620
 0.6840	 5.2020
 0.6850	 5.2400
 0.6860	 5.2790
 0.6870	 5.3240
 0.6880	 5.3840
 0.6890	 5.4520
 0.6900	 5.5340
 0.6910	 5.6450
 0.6920	 5.7860
 0.6930	 5.9670
 0.6940	 6.1980
 0.6950	 6.4850
 0.6960	 6.8320
 0.6970	 7.2470
 0.6980	 7.7370
 0.6990	 8.2930
 0.7000	 8.9130
 0.7010	 9.5930
 0.7020	10.3290
 0.7030	11.1070
 0.7040	11.9280
 0.7050	12.7900
 0.7060	13.6640
 0.7070	14.5620
 0.7080	15.4810
 0.7090	16.4120
 0.7100	17.3520
 0.7110	18.3040
 0.7120	19.2630
 0.7130	20.2150
 0.7140	21.1780
 0.7150	22.1360
 0.7160	23.0790
 0.7170	24.0210
 0.7180	24.9500
 0.7190	25.8650
 0.7200	26.7660
 0.7210	27.6460
 0.7220	28.5070
 0.7230	29.3490
 0.7240	30.1710
 0.7250	30.9530
 0.7260	31.6990
 0.7270	32.4130
 0.7280	33.0970
 0.7290	33.7620
 0.7300	34.3990
 0.7310	34.9920
 0.7320	35.5530
 0.7330	36.0860
 0.7340	36.5870
 0.7350	37.0410
 0.7360	37.4750
 0.7370	37.8910
 0.7380	38.2880
 0.7390	38.6660
 0.7400	38.9980
 0.7410	39.2930
 0.7420	39.5740
 0.7430	39.8410
 0.7440	40.0820
 0.7450	40.3040
 0.7460	40.5320
 0.7470	40.7120
 0.7480	40.8670
 0.7490	41.0180
 0.7500	41.1560
 0.7510	41.2700
 0.7520	41.3770
 0.7530	41.4950
 0.7540	41.5890
 0.7550	41.6730
 0.7560	41.7480
 0.7570	41.8080
 0.7580	41.8630
 0.7590	41.9160
 0.7600	41.9650
 0.7610	42.0020
 0.7620	42.0450
 0.7630	42.0800
 0.7640	42.0980
 0.7650	42.1270
 0.7660	42.1540
 0.7670	42.1720
 0.7680	42.1840
 0.7690	42.1980
 0.7700	42.2100
 0.7710	42.2250
 0.7720	42.2510
 0.7730	42.2520
 0.7740	42.2390
 0.7750	42.2370
 0.7760	42.2530
 0.7770	42.2770
 0.7780	42.2970
 0.7790	42.3040
 0.7800	42.3080
 0.7810	42.3000
 0.7820	42.2980
 0.7830	42.3360
 0.7840	42.3340
 0.7850	42.3340
 0.7860	42.3580
 0.7870	42.3480
 0.7880	42.3410
 0.7890	42.3490
 0.7900	42.3690
 0.7910	42.3770
 0.7920	42.3810
 0.7930	42.3840
 0.7940	42.3900
 0.7950	42.3960
 0.7960	42.3980
 0.7970	42.4010
 0.7980	42.4130
 0.7990	42.4140
 0.8000	42.4070
 0.8010	42.3980
 0.8020	42.3900
 0.8030	42.4020
 0.8040	42.4210
 0.8050	42.4210
 0.8060	42.4190
 0.8070	42.4180
 0.8080	42.4160
 0.8090	42.4090
 0.8100	42.4050
 0.8110	42.4000
 0.8120	42.3940
 0.8130	42.3980
 0.8140	42.3960
 0.8150	42.3920
 0.8160	42.3900
 0.8170	42.3840
 0.8180	42.3720
 0.8190	42.3670
 0.8200	42.3790
 0.8210	42.3620
 0.8220	42.3390
 0.8230	42.3330
 0.8240	42.3510
 0.8250	42.3380
 0.8260	42.3250
 0.8270	42.3290
 0.8280	42.3170
 0.8290	42.3180
 0.8300	42.3200
 0.8310	42.3100
 0.8320	42.2930
 0.8330	42.2860
 0.8340	42.2830
 0.8350	42.2760
 0.8360	42.2790
 0.8370	42.2890
 0.8380	42.2890
 0.8390	42.2630
 0.8400	42.2650
 0.8410	42.2680
 0.8420	42.2620
 0.8430	42.2650
 0.8440	42.2630
 0.8450	42.2510
 0.8460	42.2380
 0.8470	42.2530
 0.8480	42.2550
 0.8490	42.2530
 0.8500	42.2620
 0.8510	42.2540
 0.8520	42.2460
 0.8530	42.2390
 0.8540	42.2210
 0.8550	42.2340
 0.8560	42.2390
 0.8570	42.2320
 0.8580	42.2470
 0.8590	42.2520
 0.8600	42.2600
 0.8610	42.2720
 0.8620	42.2560
 0.8630	42.2550
 0.8640	42.2620
 0.8650	42.2620
 0.8660	42.2580
 0.8670	42.2530
 0.8680	42.2580
 0.8690	42.2760
 0.8700	42.2740
 0.8710	42.2700
 0.8720	42.2720
 0.8730	42.2760
 0.8740	42.2700
 0.8750	42.2770
 0.8760	42.2870
 0.8770	42.2640
 0.8780	42.2670
 0.8790	42.2830
 0.8800	42.2950
 0.8810	42.2940
 0.8820	42.2870
 0.8830	42.2950
 0.8840	42.3160
 0.8850	42.2930
 0.8860	42.2980
 0.8870	42.3040
 0.8880	42.2880
 0.8890	42.3270
 0.8900	42.3340
 0.8910	42.3200
 0.8920	42.3300
 0.8930	42.3300
 0.8940	42.3460
 0.8950	42.3620
 0.8960	42.3430
 0.8970	42.3330
 0.8980	42.3310
 0.8990	42.3280
 0.9000	42.3130
 0.9010	42.3410
 0.9020	42.3550
 0.9030	42.3430
 0.9040	42.3650
 0.9050	42.3550
 0.9060	42.3470
 0.9070	42.3620
 0.9080	42.3590
 0.9090	42.3560
 0.9100	42.3670
 0.9110	42.3870
 0.9120	42.3750
 0.9130	42.3640
 0.9140	42.3610
 0.9150	42.3610
 0.9160	42.3550
 0.9170	42.3530
 0.9180	42.3600
 0.9190	42.3740
 0.9200	42.3610
 0.9210	42.3400
 0.9220	42.3390
 0.9230	42.3690
 0.9240	42.3740
 0.9250	42.3820
 0.9260	42.3830
 0.9270	42.3450
 0.9280	42.3340
 0.9290	42.3240
 0.9300	42.3000
 0.9310	42.2690
 0.9320	42.2950
 0.9330	42.2950
 0.9340	42.2550
 0.9350	42.2590
 0.9360	42.2550
 0.9370	42.2340
 0.9380	42.2070
 0.9390	42.2000
 0.9400	42.2060
 0.9410	42.1920
 0.9420	42.1530
 0.9430	42.1350
 0.9440	42.1310
 0.9450	42.1250
 0.9460	42.1050
 0.9470	42.0730
 0.9480	42.0290
 0.9490	41.9860
 0.9500	41.9570
 0.9510	41.9630
 0.9520	41.9320
 0.9530	41.8820
 0.9540	41.8460
 0.9550	41.8010
 0.9560	41.7700
 0.9570	41.7340
 0.9580	41.6820
 0.9590	41.6540
 0.9600	41.6330
 0.9610	41.6090
 0.9620	41.5770
 0.9630	41.5510
 0.9640	41.5380
 0.9650	41.5300
 0.9660	41.5120
 0.9670	41.5080
 0.9680	41.4870
 0.9690	41.4610
 0.9700	41.4540
 0.9710	41.4640
 0.9720	41.4550
 0.9730	41.4430
 0.9740	41.4550
 0.9750	41.4440
 0.9760	41.4440
 0.9770	41.4490
 0.9780	41.4430
 0.9790	41.4630
 0.9800	41.4510
 0.9810	41.4180
 0.9820	41.4090
 0.9830	41.4340
 0.9840	41.4320
 0.9850	41.4120
 0.9860	41.4140
 0.9870	41.3970
 0.9880	41.4010
 0.9890	41.4450
 0.9900	41.5120
 0.9910	41.4950
 0.9920	41.5130
 0.9930	41.5320
 0.9940	41.5500
 0.9950	41.5690
 0.9960	41.5870
 0.9970	41.6060
 0.9980	41.6240
 0.9990	41.6430
 1.0000	41.6610
 1.0010	41.6800
 1.0020	41.6980
 1.0030	41.7170
 1.0040	41.7350
 1.0050	41.7540
 1.0060	41.7720
 1.0070	41.7910
 1.0080	41.8090
 1.0090	41.8280
 1.0100	41.8280
 1.0110	41.8410
 1.0120	41.8530
 1.0130	41.8650
 1.0140	41.8730
 1.0150	41.8740
 1.0160	41.8870
 1.0170	41.8920
 1.0180	41.8880
 1.0190	41.9000
 1.0200	41.9100
 1.0210	41.9240
 1.0220	41.9450
 1.0230	41.9590
 1.0240	41.9720
 1.0250	41.9830
 1.0260	41.9910
 1.0270	41.9990
 1.0280	42.0060
 1.0290	42.0130
 1.0300	42.0160
 1.0310	42.0260
 1.0320	42.0390
 1.0330	42.0550
 1.0340	42.0690
 1.0350	42.0820
 1.0360	42.0910
 1.0370	42.0900
 1.0380	42.0910
 1.0390	42.0900
 1.0400	42.0920
 1.0410	42.0930
 1.0420	42.0970
 1.0430	42.1050
 1.0440	42.1100
 1.0450	42.1150
 1.0460	42.1210
 1.0470	42.1260
 1.0480	42.1320
 1.0490	42.1410
 1.0500	42.1480
 1.0510	42.1530
 1.0520	42.1620
 1.0530	42.1670
 1.0540	42.1710
 1.0550	42.1740
 1.0560	42.1740
 1.0570	42.1760
 1.0580	42.1740
 1.0590	42.1780
 1.0600	42.1900
 1.0610	42.1940
 1.0620	42.1980
 1.0630	42.2020
 1.0640	42.1960
 1.0650	42.1970
 1.0660	42.2040
 1.0670	42.2070
 1.0680	42.2100
 1.0690	42.2140
 1.0700	42.2180
 1.0710	42.2230
 1.0720	42.2270
 1.0730	42.2370
 1.0740	42.2350
 1.0750	42.2260
 1.0760	42.2180
 1.0770	42.2000
 1.0780	42.1950
 1.0790	42.1990
 1.0800	42.1970
 1.0810	42.1960
 1.0820	42.1950
 1.0830	42.1860
 1.0840	42.1820
 1.0850	42.1840
 1.0860	42.1850
 1.0870	42.1810
 1.0880	42.1780
 1.0890	42.1740
 1.0900	42.1660
 1.0910	42.1600
 1.0920	42.1540
 1.0930	42.1470
 1.0940	42.1340
 1.0950	42.1270
 1.0960	42.1230
 1.0970	42.1200
 1.0980	42.1240
 1.0990	42.1210
 1.1000	42.1160
 1.1010	42.1100
 1.1020	42.0970
 1.1030	42.0870
 1.1040	42.0840
 1.1050	42.0750
 1.1060	42.0680
 1.1070	42.0640
 1.1080	42.0580
 1.1090	42.0520
 1.1100	42.0420
 1.1110	42.0320
 1.1120	42.0190
 1.1130	41.9950
 1.1140	41.9820
 1.1150	41.9760
 1.1160	41.9630
 1.1170	41.9550
 1.1180	41.9420
 1.1190	41.9210
 1.1200	41.9020
 1.1210	41.8820
 1.1220	41.8560
 1.1230	41.8320
 1.1240	41.8080
 1.1250	41.7820
 1.1260	41.7600
 1.1270	41.7290
 1.1280	41.6940
 1.1290	41.6550
 1.1300	41.6110
 1.1310	41.5640
 1.1320	41.5140
 1.1330	41.4580
 1.1340	41.3970
 1.1350	41.3350
 1.1360	41.2680
 1.1370	41.1960
 1.1380	41.1260
 1.1390	41.0510
 1.1400	40.9750
 1.1410	40.8980
 1.1420	40.8180
 1.1430	40.7320
 1.1440	40.6460
 1.1450	40.5530
 1.1460	40.4660
 1.1470	40.3770
 1.1480	40.2940
 1.1490	40.2120
 1.1500	40.1390
 1.1510	40.0710
 1.1520	40.0070
 1.1530	39.9470
 1.1540	39.8930
 1.1550	39.8420
 1.1560	39.7980
 1.1570	39.7590
 1.1580	39.7230
 1.1590	39.6870
 1.1600	39.6560
 1.1610	39.6280
 1.1620	39.6010
 1.1630	39.5760
 1.1640	39.5530
 1.1650	39.5330
 1.1660	39.5150
 1.1670	39.5040
 1.1680	39.4990
 1.1690	39.4910
 1.1700	39.4860
 1.1710	39.4800
 1.1720	39.4700
 1.1730	39.4640
 1.1740	39.4630
 1.1750	39.4600
 1.1760	39.4530
 1.1770	39.4450
 1.1780	39.4340
 1.1790	39.4250
 1.1800	39.4190
 1.1810	39.4100
 1.1820	39.3980
 1.1830	39.3900
 1.1840	39.3810
 1.1850	39.3720
 1.1860	39.3670
 1.1870	39.3590
 1.1880	39.3520
 1.1890	39.3480
 1.1900	39.3410
 1.1910	39.3310
 1.1920	39.3240
 1.1930	39.3170
 1.1940	39.3110
 1.1950	39.3060
 1.1960	39.3040
 1.1970	39.3020
 1.1980	39.2980
 1.1990	39.3000
 1.2000	39.3030
 1.2010	39.3050
 1.2020	39.3070
 1.2030	39.3110
 1.2040	39.3190
 1.2050	39.3270
 1.2060	39.3330
 1.2070	39.3420
 1.2080	39.3530
 1.2090	39.3640
 1.2100	39.3770
 1.2110	39.3920
 1.2120	39.4090
 1.2130	39.4240
 1.2140	39.4410
 1.2150	39.4580
 1.2160	39.4730
 1.2170	39.4860
 1.2180	39.5030
 1.2190	39.5160
 1.2200	39.5310
 1.2210	39.5480
 1.2220	39.5660
 1.2230	39.5860
 1.2240	39.6070
 1.2250	39.6270
 1.2260	39.6450
 1.2270	39.6630
 1.2280	39.6810
 1.2290	39.6960
 1.2300	39.7120
 1.2310	39.7290
 1.2320	39.7470
 1.2330	39.7640
 1.2340	39.7760
 1.2350	39.7830
 1.2360	39.7920
 1.2370	39.7970
 1.2380	39.8040
 1.2390	39.8180
 1.2400	39.8340
 1.2410	39.8460
 1.2420	39.8560
 1.2430	39.8660
 1.2440	39.8730
 1.2450	39.8810
 1.2460	39.8900
 1.2470	39.9010
 1.2480	39.9100
 1.2490	39.9190
 1.2500	39.9300
 1.2510	39.9370
 1.2520	39.9420
 1.2530	39.9450
 1.2540	39.9470
 1.2550	39.9530
 1.2560	39.9600
 1.2570	39.9660
 1.2580	39.9700
 1.2590	39.9710
 1.2600	39.9680
 1.2610	39.9650
 1.2620	39.9610
 1.2630	39.9590
 1.2640	39.9580
 1.2650	39.9530
 1.2660	39.9500
 1.2670	39.9460
 1.2680	39.9410
 1.2690	39.9360
 1.2700	39.9330
 1.2710	39.9270
 1.2720	39.9170
 1.2730	39.9120
 1.2740	39.9060
 1.2750	39.8990
 1.2760	39.8910
 1.2770	39.8810
 1.2780	39.8660
 1.2790	39.8530
 1.2800	39.8420
 1.2810	39.8300
 1.2820	39.8210
 1.2830	39.8100
 1.2840	39.7950
 1.2850	39.7790
 1.2860	39.7610
 1.2870	39.7440
 1.2880	39.7250
 1.2890	39.7100
 1.2900	39.6930
 1.2910	39.6730
 1.2920	39.6560
 1.2930	39.6330
 1.2940	39.6020
 1.2950	39.5780
 1.2960	39.5510
 1.2970	39.5180
 1.2980	39.4880
 1.2990	39.4580
 1.3000	39.4250
 1.3010	39.3890
 1.3020	39.3550
 1.3030	39.3220
 1.3040	39.2840
 1.3050	39.2450
 1.3060	39.2050
 1.3070	39.1620
 1.3080	39.1130
 1.3090	39.0600
 1.3100	39.0080
 1.3110	38.9550
 1.3120	38.9010
 1.3130	38.8480
 1.3140	38.7900
 1.3150	38.7300
 1.3160	38.6650
 1.3170	38.5970
 1.3180	38.5270
 1.3190	38.4570
 1.3200	38.3850
 1.3210	38.3100
 1.3220	38.2320
 1.3230	38.1470
 1.3240	38.0570
 1.3250	37.9720
 1.3260	37.8870
 1.3270	37.7990
 1.3280	37.7130
 1.3290	37.6210
 1.3300	37.5250
 1.3310	37.4310
 1.3320	37.3350
 1.3330	37.2410
 1.3340	37.1450
 1.3350	37.0450
 1.3360	36.9460
 1.3370	36.8450
 1.3380	36.7440
 1.3390	36.6450
 1.3400	36.5500
 1.3410	36.4530
 1.3420	36.3530
 1.3430	36.2520
 1.3440	36.1510
 1.3450	36.0500
 1.3460	35.9490
 1.3470	35.8490
 1.3480	35.7470
 1.3490	35.6460
 1.3500	35.5450
 1.3510	35.4440
 1.3520	35.3390
 1.3530	35.2380
 1.3540	35.1350
 1.3550	35.0310
 1.3560	34.9280
 1.3570	34.8250
 1.3580	34.7210
 1.3590	34.6180
 1.3600	34.5110
 1.3610	34.4030
 1.3620	34.2930
 1.3630	34.1780
 1.3640	34.0600
 1.3650	33.9390
 1.3660	33.8110
 1.3670	33.6810
 1.3680	33.5420
 1.3690	33.3950
 1.3700	33.2390
 1.3710	33.0680
 1.3720	32.8820
 1.3730	32.6830
 1.3740	32.4700
 1.3750	32.2400
 1.3760	31.9920
 1.3770	31.7250
 1.3780	31.4350
 1.3790	31.1270
 1.3800	30.8020
 1.3810	30.4580
 1.3820	30.0950
 1.3830	29.7140
 1.3840	29.3150
 1.3850	28.8950
 1.3860	28.4620
 1.3870	28.0100
 1.3880	27.5510
 1.3890	27.0800
 1.3900	26.5970
 1.3910	26.1090
 1.3920	25.6140
 1.3930	25.1090
 1.3940	24.6050
 1.3950	24.0990
 1.3960	23.5990
 1.3970	23.1080
 1.3980	22.6210
 1.3990	22.1480
 1.4000	21.6880
 1.4010	21.2360
 1.4020	20.8030
 1.4030	20.3830
 1.4040	19.9790
 1.4050	19.5940
 1.4060	19.2280
 1.4070	18.8860
 1.4080	18.5640
 1.4090	18.2590
 1.4100	17.9740
 1.4110	17.7060
 1.4120	17.4540
 1.4130	17.2230
 1.4140	17.0100
 1.4150	16.8150
 1.4160	16.6370
 1.4170	16.4730
 1.4180	16.3230
 1.4190	16.1870
 1.4200	16.0630
 1.4210	15.9510
 1.4220	15.8480
 1.4230	15.7550
 1.4240	15.6680
 1.4250	15.5900
 1.4260	15.5220
 1.4270	15.4610
 1.4280	15.4100
 1.4290	15.3620
 1.4300	15.3200
 1.4310	15.2820
 1.4320	15.2490
 1.4330	15.2230
 1.4340	15.2050
 1.4350	15.1890
 1.4360	15.1760
 1.4370	15.1690
 1.4380	15.1650
 1.4390	15.1640
 1.4400	15.1640
 1.4410	15.1700
 1.4420	15.1770
 1.4430	15.1840
 1.4440	15.1960
 1.4450	15.2100
 1.4460	15.2230
 1.4470	15.2390
 1.4480	15.2580
 1.4490	15.2780
 1.4500	15.2990
 1.4510	15.3220
 1.4520	15.3430
 1.4530	15.3670
 1.4540	15.3940
 1.4550	15.4200
 1.4560	15.4500
 1.4570	15.4850
 1.4580	15.5190
 1.4590	15.5550
 1.4600	15.5970
 1.4610	15.6410
 1.4620	15.6890
 1.4630	15.7440
 1.4640	15.8050
 1.4650	15.8680
 1.4660	15.9370
 1.4670	16.0110
 1.4680	16.0890
 1.4690	16.1730
 1.4700	16.2620
 1.4710	16.3530
 1.4720	16.4480
 1.4730	16.5460
 1.4740	16.6490
 1.4750	16.7550
 1.4760	16.8640
 1.4770	16.9740
 1.4780	17.0860
 1.4790	17.2010
 1.4800	17.3180
 1.4810	17.4350
 1.4820	17.5530
 1.4830	17.6710
 1.4840	17.7890
 1.4850	17.9070
 1.4860	18.0250
 1.4870	18.1460
 1.4880	18.2670
 1.4890	18.3890
 1.4900	18.5110
 1.4910	18.6320
 1.4920	18.7550
 1.4930	18.8790
 1.4940	19.0030
 1.4950	19.1290
 1.4960	19.2520
 1.4970	19.3730
 1.4980	19.4950
 1.4990	19.6160
 1.5000	19.7380
 1.5010	19.8600
 1.5020	19.9820
 1.5030	20.1040
 1.5040	20.2250
 1.5050	20.3470
 1.5060	20.4670
 1.5070	20.5860
 1.5080	20.7050
 1.5090	20.8240
 1.5100	20.9390
 1.5110	21.0550
 1.5120	21.1720
 1.5130	21.2860
 1.5140	21.4030
 1.5150	21.5220
 1.5160	21.6370
 1.5170	21.7520
 1.5180	21.8660
 1.5190	21.9770
 1.5200	22.0890
 1.5210	22.2000
 1.5220	22.3070
 1.5230	22.4170
 1.5240	22.5260
 1.5250	22.6330
 1.5260	22.7390
 1.5270	22.8390
 1.5280	22.9400
 1.5290	23.0360
 1.5300	23.1310
 1.5310	23.2320
 1.5320	23.3280
 1.5330	23.4240
 1.5340	23.5250
 1.5350	23.6220
 1.5360	23.7170
 1.5370	23.8130
 1.5380	23.9070
 1.5390	23.9990
 1.5400	24.0920
 1.5410	24.1850
 1.5420	24.2760
 1.5430	24.3670
 1.5440	24.4590
 1.5450	24.5480
 1.5460	24.6320
 1.5470	24.7160
 1.5480	24.7970
 1.5490	24.8790
 1.5500	24.9630
 1.5510	25.0460
 1.5520	25.1280
 1.5530	25.2080
 1.5540	25.2880
 1.5550	25.3640
 1.5560	25.4360
 1.5570	25.5080
 1.5580	25.5780
 1.5590	25.6500
 1.5600	25.7220
 1.5610	25.7960
 1.5620	25.8680
 1.5630	25.9340
 1.5640	26.0030
 1.5650	26.0690
 1.5660	26.1320
 1.5670	26.1990
 1.5680	26.2670
 1.5690	26.3330
 1.5700	26.4030
 1.5710	26.4750
 1.5720	26.5410
 1.5730	26.6040
 1.5740	26.6650
 1.5750	26.7190
 1.5760	26.7760
 1.5770	26.8390
 1.5780	26.9020
 1.5790	26.9670
 1.5800	27.0270
 1.5810	27.0850
 1.5820	27.1430
 1.5830	27.1970
 1.5840	27.2530
 1.5850	27.3100
 1.5860	27.3620
 1.5870	27.4170
 1.5880	27.4720
 1.5890	27.5260
 1.5900	27.5820
 1.5910	27.6390
 1.5920	27.6960
 1.5930	27.7470
 1.5940	27.7980
 1.5950	27.8460
 1.5960	27.8890
 1.5970	27.9350
 1.5980	27.9800
 1.5990	28.0230
 1.6000	28.0710
 1.6010	28.1190
 1.6020	28.1640
 1.6030	28.2090
 1.6040	28.2550
 1.6050	28.2970
 1.6060	28.3410
 1.6070	28.3840
 1.6080	28.4240
 1.6090	28.4640
 1.6100	28.5040
 1.6110	28.5440
 1.6120	28.5840
 1.6130	28.6250
 1.6140	28.6640
 1.6150	28.7030
 1.6160	28.7410
 1.6170	28.7770
 1.6180	28.8100
 1.6190	28.8430
 1.6200	28.8760
 1.6210	28.9100
 1.6220	28.9420
 1.6230	28.9710
 1.6240	28.9980
 1.6250	29.0260
 1.6260	29.0590
 1.6270	29.0920
 1.6280	29.1260
 1.6290	29.1560
 1.6300	29.1800
 1.6310	29.2060
 1.6320	29.2340
 1.6330	29.2560
 1.6340	29.2790
 1.6350	29.2980
 1.6360	29.3110
 1.6370	29.3270
 1.6380	29.3440
 1.6390	29.3610
 1.6400	29.3770
 1.6410	29.3930
 1.6420	29.4060
 1.6430	29.4200
 1.6440	29.4370
 1.6450	29.4510
 1.6460	29.4620
 1.6470	29.4700
 1.6480	29.4720
 1.6490	29.4710
 1.6500	29.4680
 1.6510	29.4670
 1.6520	29.4660
 1.6530	29.4650
 1.6540	29.4630
 1.6550	29.4580
 1.6560	29.4540
 1.6570	29.4490
 1.6580	29.4430
 1.6590	29.4370
 1.6600	29.4320
 1.6610	29.4310
 1.6620	29.4290
 1.6630	29.4300
 1.6640	29.4320
 1.6650	29.4330
 1.6660	29.4370
 1.6670	29.4350
 1.6680	29.4310
 1.6690	29.4250
 1.6700	29.4150
 1.6710	29.4030
 1.6720	29.3900
 1.6730	29.3750
 1.6740	29.3570
 1.6750	29.3380
 1.6760	29.3230
 1.6770	29.3070
 1.6780	29.2930
 1.6790	29.2800
 1.6800	29.2630
 1.6810	29.2430
 1.6820	29.2170
 1.6830	29.1900
 1.6840	29.1610
 1.6850	29.1250
 1.6860	29.0910
 1.6870	29.0530
 1.6880	29.0170
 1.6890	28.9860
 1.6900	28.9510
 1.6910	28.9140
 1.6920	28.8750
 1.6930	28.8320
 1.6940	28.7920
 1.6950	28.7540
 1.6960	28.7130
 1.6970	28.6720
 1.6980	28.6290
 1.6990	28.5830
 1.7000	28.5380
 1.7010	28.4950
 1.7020	28.4490
 1.7030	28.4020
 1.7040	28.3540
 1.7050	28.3050
 1.7060	28.2570
 1.7070	28.2110
 1.7080	28.1620
 1.7090	28.1140
 1.7100	28.0640
 1.7110	28.0110
 1.7120	27.9650
 1.7130	27.9150
 1.7140	27.8750
 1.7150	27.8340
 1.7160	27.7870
 1.7170	27.7470
 1.7180	27.7030
 1.7190	27.6560
 1.7200	27.6140
 1.7210	27.5700
 1.7220	27.5280
 1.7230	27.4840
 1.7240	27.4340
 1.7250	27.3870
 1.7260	27.3410
 1.7270	27.2950
 1.7280	27.2580
 1.7290	27.2210
 1.7300	27.1840
 1.7310	27.1520
 1.7320	27.1230
 1.7330	27.0960
 1.7340	27.0730
 1.7350	27.0520
 1.7360	27.0370
 1.7370	27.0160
 1.7380	26.9980
 1.7390	26.9740
 1.7400	26.9430
 1.7410	26.9100
 1.7420	26.8700
 1.7430	26.8310
 1.7440	26.7890
 1.7450	26.7470
 1.7460	26.7060
 1.7470	26.6610
 1.7480	26.6150
 1.7490	26.5680
 1.7500	26.5180
 1.7510	26.4690
 1.7520	26.4180
 1.7530	26.3670
 1.7540	26.3180
 1.7550	26.2620
 1.7560	26.2080
 1.7570	26.1510
 1.7580	26.0890
 1.7590	26.0400
 1.7600	25.9940
 1.7610	25.9490
 1.7620	25.9050
 1.7630	25.8560
 1.7640	25.8110
 1.7650	25.7690
 1.7660	25.7290
 1.7670	25.6930
 1.7680	25.6550
 1.7690	25.6180
 1.7700	25.5820
 1.7710	25.5420
 1.7720	25.5110
 1.7730	25.4880
 1.7740	25.4610
 1.7750	25.4370
 1.7760	25.4120
 1.7770	25.3850
 1.7780	25.3610
 1.7790	25.3400
 1.7800	25.3190
 1.7810	25.2990
 1.7820	25.2780
 1.7830	25.2580
 1.7840	25.2390
 1.7850	25.2210
 1.7860	25.2030
 1.7870	25.1860
 1.7880	25.1650
 1.7890	25.1500
 1.7900	25.1400
 1.7910	25.1310
 1.7920	25.1300
 1.7930	25.1240
 1.7940	25.1130
 1.7950	25.1080
 1.7960	25.1070
 1.7970	25.1030
 1.7980	25.1040
 1.7990	25.1000
 1.8000	25.0860
 1.8010	25.0820
 1.8020	25.0810
 1.8030	25.0800
 1.8040	25.0840
 1.8050	25.0880
 1.8060	25.0950
 1.8070	25.0970
 1.8080	25.0990
 1.8090	25.0990
 1.8100	25.0930
 1.8110	25.0940
 1.8120	25.0920
 1.8130	25.0930
 1.8140	25.0930
 1.8150	25.0920
 1.8160	25.0880
 1.8170	25.0790
 1.8180	25.0730
 1.8190	25.0670
 1.8200	25.0610
 1.8210	25.0570
 1.8220	25.0500
 1.8230	25.0390
 1.8240	25.0320
 1.8250	25.0280
 1.8260	25.0160
 1.8270	24.9670
 1.8280	24.9180
 1.8290	24.8690
 1.8300	24.8200
 1.8310	24.7710
 1.8320	24.7220
 1.8330	24.6730
 1.8340	24.6240
 1.8350	24.6240
 1.8360	24.5870
 1.8370	24.5480
 1.8380	24.5020
 1.8390	24.4500
 1.8400	24.4030
 1.8410	24.3380
 1.8420	24.2590
 1.8430	24.1800
 1.8440	24.0930
 1.8450	23.9900
 1.8460	23.8970
 1.8470	23.7940
 1.8480	23.6860
 1.8490	23.5780
 1.8500	23.4530
 1.8510	23.3140
 1.8520	23.1710
 1.8530	23.0180
 1.8540	22.8520
 1.8550	22.6810
 1.8560	22.4940
 1.8570	22.2940
 1.8580	22.0860
 1.8590	21.8620
 1.8600	21.6260
 1.8610	21.3760
 1.8620	21.1000
 1.8630	20.8010
 1.8640	20.4840
 1.8650	20.1490
 1.8660	19.8010
 1.8670	19.4360
 1.8680	19.0530
 1.8690	18.6470
 1.8700	18.2260
 1.8710	17.7880
 1.8720	17.3430
 1.8730	16.8800
 1.8740	16.4100
 1.8750	15.9390
 1.8760	15.4490
 1.8770	14.9540
 1.8780	14.4630
 1.8790	13.9570
 1.8800	13.4630
 1.8810	12.9720
 1.8820	12.4880
 1.8830	12.0020
 1.8840	11.5280
 1.8850	11.0510
 1.8860	10.5770
 1.8870	10.1120
 1.8880	 9.6600
 1.8890	 9.2350
 1.8900	 8.8350
 1.8910	 8.4580
 1.8920	 8.1050
 1.8930	 7.7720
 1.8940	 7.4560
 1.8950	 7.1610
 1.8960	 6.8840
 1.8970	 6.6270
 1.8980	 6.3950
 1.8990	 6.1880
 1.9000	 5.9990
 1.9010	 5.8390
 1.9020	 5.6880
 1.9030	 5.5570
 1.9040	 5.4340
 1.9050	 5.3260
 1.9060	 5.2300
 1.9070	 5.1470
 1.9080	 5.0770
 1.9090	 5.0110
 1.9100	 4.9570
 1.9110	 4.9070
 1.9120	 4.8660
 1.9130	 4.8270
 1.9140	 4.7960
 1.9150	 4.7630
 1.9160	 4.7370
 1.9170	 4.7220
 1.9180	 4.7020
 1.9190	 4.6870
 1.9200	 4.6800
 1.9210	 4.6700
 1.9220	 4.6640
 1.9230	 4.6650
 1.9240	 4.6670
 1.9250	 4.6700
 1.9260	 4.6740
 1.9270	 4.6810
 1.9280	 4.6900
 1.9290	 4.6980
 1.9300	 4.7070
 1.9310	 4.7210
 1.9320	 4.7390
 1.9330	 4.7550
 1.9340	 4.7750
 1.9350	 4.7880
 1.9360	 4.7920
 1.9370	 4.8080
 1.9380	 4.8260
 1.9390	 4.8470
 1.9400	 4.8770
 1.9410	 4.9070
 1.9420	 4.9300
 1.9430	 4.9520
 1.9440	 4.9780
 1.9450	 5.0050
 1.9460	 5.0340
 1.9470	 5.0680
 1.9480	 5.1020
 1.9490	 5.1380
 1.9500	 5.1750
 1.9510	 5.2090
 1.9520	 5.2450
 1.9530	 5.2810
 1.9540	 5.3100
 1.9550	 5.3470
 1.9560	 5.3840
 1.9570	 5.4240
 1.9580	 5.4700
 1.9590	 5.5130
 1.9600	 5.5540
 1.9610	 5.6000
 1.9620	 5.6490
 1.9630	 5.6950
 1.9640	 5.7470
 1.9650	 5.7970
 1.9660	 5.8460
 1.9670	 5.8980
 1.9680	 5.9470
 1.9690	 5.9960
 1.9700	 6.0480
 1.9710	 6.0990
 1.9720	 6.1520
 1.9730	 6.2090
 1.9740	 6.2680
 1.9750	 6.3230
 1.9760	 6.3850
 1.9770	 6.4430
 1.9780	 6.4970
 1.9790	 6.5560
 1.9800	 6.6190
 1.9810	 6.6780
 1.9820	 6.7370
 1.9830	 6.8020
 1.9840	 6.8680
 1.9850	 6.9340
 1.9860	 7.0010
 1.9870	 7.0730
 1.9880	 7.1410
 1.9890	 7.2030
 1.9900	 7.2700
 1.9910	 7.3410
 1.9920	 7.4080
 1.9930	 7.4710
 1.9940	 7.5400
 1.9950	 7.6090
 1.9960	 7.6810
 1.9970	 7.7630
 1.9980	 7.8380
 1.9990	 7.9120
 2.0000	 7.9830
 2.0010	 8.0520
 2.0020	 8.1170
 2.0030	 8.1850
 2.0040	 8.2590
 2.0050	 8.3290
 2.0060	 8.4000
 2.0070	 8.4690
 2.0080	 8.5330
 2.0090	 8.6030
 2.0100	 8.6790
 2.0110	 8.7500
 2.0120	 8.8220
 2.0130	 8.8940
 2.0140	 8.9610
 2.0150	 9.0280
 2.0160	 9.1000
 2.0170	 9.1670
 2.0180	 9.2340
 2.0190	 9.3010
 2.0200	 9.3660
 2.0210	 9.4290
 2.0220	 9.4900
 2.0230	 9.5470
 2.0240	 9.6090
 2.0250	 9.6720
 2.0260	 9.7340
 2.0270	 9.8000
 2.0280	 9.8620
 2.0290	 9.9210
 2.0300	 9.9760
 2.0310	10.0310
 2.0320	10.0800
 2.0330	10.1330
 2.0340	10.1880
 2.0350	10.2400
 2.0360	10.2940
 2.0370	10.3440
 2.0380	10.3900
 2.0390	10.4390
 2.0400	10.4890
 2.0410	10.5350
 2.0420	10.5770
 2.0430	10.6220
 2.0440	10.6690
 2.0450	10.7160
 2.0460	10.7610
 2.0470	10.8070
 2.0480	10.8530
 2.0490	10.8970
 2.0500	10.9410
 2.0510	10.9880
 2.0520	11.0340
 2.0530	11.0780
 2.0540	11.1210
 2.0550	11.1640
 2.0560	11.2100
 2.0570	11.2540
 2.0580	11.3020
 2.0590	11.3490
 2.0600	11.3990
 2.0610	11.4480
 2.0620	11.4940
 2.0630	11.5400
 2.0640	11.5860
 2.0650	11.6320
 2.0660	11.6740
 2.0670	11.7210
 2.0680	11.7740
 2.0690	11.8230
 2.0700	11.8710
 2.0710	11.9190
 2.0720	11.9660
 2.0730	12.0090
 2.0740	12.0610
 2.0750	12.1200
 2.0760	12.1700
 2.0770	12.2200
 2.0780	12.2690
 2.0790	12.3120
 2.0800	12.3590
 2.0810	12.4120
 2.0820	12.4590
 2.0830	12.4990
 2.0840	12.5430
 2.0850	12.5820
 2.0860	12.6280
 2.0870	12.6850
 2.0880	12.7340
 2.0890	12.7810
 2.0900	12.8330
 2.0910	12.8710
 2.0920	12.8950
 2.0930	12.9300
 2.0940	12.9600
 2.0950	12.9970
 2.0960	13.0420
 2.0970	13.0830
 2.0980	13.1250
 2.0990	13.1610
 2.1000	13.1920
 2.1010	13.2250
 2.1020	13.2560
 2.1030	13.2890
 2.1040	13.3250
 2.1050	13.3610
 2.1060	13.3940
 2.1070	13.4240
 2.1080	13.4610
 2.1090	13.4980
 2.1100	13.5370
 2.1110	13.5820
 2.1120	13.6180
 2.1130	13.6530
 2.1140	13.6840
 2.1150	13.7070
 2.1160	13.7350
 2.1170	13.7580
 2.1180	13.7870
 2.1190	13.8220
 2.1200	13.8530
 2.1210	13.8860
 2.1220	13.9150
 2.1230	13.9440
 2.1240	13.9700
 2.1250	13.9980
 2.1260	14.0260
 2.1270	14.0540
 2.1280	14.0820
 2.1290	14.1090
 2.1300	14.1400
 2.1310	14.1630
 2.1320	14.1820
 2.1330	14.2000
 2.1340	14.2090
 2.1350	14.2240
 2.1360	14.2420
 2.1370	14.2610
 2.1380	14.2860
 2.1390	14.3040
 2.1400	14.3170
 2.1410	14.3290
 2.1420	14.3460
 2.1430	14.3580
 2.1440	14.3800
 2.1450	14.4120
 2.1460	14.4320
 2.1470	14.4460
 2.1480	14.4670
 2.1490	14.4850
 2.1500	14.5070
 2.1510	14.5380
 2.1520	14.5620
 2.1530	14.5840
 2.1540	14.6050
 2.1550	14.6280
 2.1560	14.6450
 2.1570	14.6540
 2.1580	14.6670
 2.1590	14.6770
 2.1600	14.6850
 2.1610	14.6980
 2.1620	14.7120
 2.1630	14.7290
 2.1640	14.7510
 2.1650	14.7670
 2.1660	14.7830
 2.1670	14.7990
 2.1680	14.8150
 2.1690	14.8270
 2.1700	14.8350
 2.1710	14.8520
 2.1720	14.8660
 2.1730	14.8850
 2.1740	14.9170
 2.1750	14.9400
 2.1760	14.9590
 2.1770	14.9780
 2.1780	14.9970
 2.1790	15.0170
 2.1800	15.0380
 2.1810	15.0580
 2.1820	15.0770
 2.1830	15.0970
 2.1840	15.1170
 2.1850	15.1340
 2.1860	15.1570
 2.1870	15.1820
 2.1880	15.2060
 2.1890	15.2330
 2.1900	15.2570
 2.1910	15.2810
 2.1920	15.3010
 2.1930	15.3150
 2.1940	15.3340
 2.1950	15.3560
 2.1960	15.3730
 2.1970	15.3930
 2.1980	15.4090
 2.1990	15.4130
 2.2000	15.4270
 2.2010	15.4450
 2.2020	15.4650
 2.2030	15.5000
 2.2040	15.5200
 2.2050	15.5290
 2.2060	15.5440
 2.2070	15.5610
 2.2080	15.5730
 2.2090	15.5850
 2.2100	15.6000
 2.2110	15.6190
 2.2120	15.6360
 2.2130	15.6490
 2.2140	15.6710
 2.2150	15.6840
 2.2160	15.6830
 2.2170	15.6900
 2.2180	15.7010
 2.2190	15.7090
 2.2200	15.7170
 2.2210	15.7210
 2.2220	15.7290
 2.2230	15.7250
 2.2240	15.7080
 2.2250	15.6970
 2.2260	15.6830
 2.2270	15.6670
 2.2280	15.6530
 2.2290	15.6350
 2.2300	15.6080
 2.2310	15.5810
 2.2320	15.5600
 2.2330	15.5460
 2.2340	15.5230
 2.2350	15.5000
 2.2360	15.4720
 2.2370	15.4340
 2.2380	15.4030
 2.2390	15.3760
 2.2400	15.3440
 2.2410	15.3160
 2.2420	15.2770
 2.2430	15.2300
 2.2440	15.1860
 2.2450	15.1360
 2.2460	15.0870
 2.2470	15.0420
 2.2480	14.9890
 2.2490	14.9280
 2.2500	14.8710
 2.2510	14.8130
 2.2520	14.7560
 2.2530	14.7060
 2.2540	14.6470
 2.2550	14.5750
 2.2560	14.5150
 2.2570	14.4630
 2.2580	14.4040
 2.2590	14.3520
 2.2600	14.2950
 2.2610	14.2300
 2.2620	14.1580
 2.2630	14.1020
 2.2640	14.0420
 2.2650	13.9860
 2.2660	13.9440
 2.2670	13.8910
 2.2680	13.8360
 2.2690	13.7830
 2.2700	13.7240
 2.2710	13.6690
 2.2720	13.6160
 2.2730	13.5700
 2.2740	13.5300
 2.2750	13.4820
 2.2760	13.4360
 2.2770	13.3860
 2.2780	13.3240
 2.2790	13.2720
 2.2800	13.2270
 2.2810	13.1770
 2.2820	13.1240
 2.2830	13.0780
 2.2840	13.0330
 2.2850	12.9930
 2.2860	12.9730
 2.2870	12.9300
 2.2880	12.8740
 2.2890	12.8200
 2.2900	12.7460
 2.2910	12.6900
 2.2920	12.6510
 2.2930	12.6060
 2.2940	12.5740
 2.2950	12.5280
 2.2960	12.4680
 2.2970	12.4130
 2.2980	12.3570
 2.2990	12.2950
 2.3000	12.2470
 2.3010	12.1980
 2.3020	12.1400
 2.3030	12.0840
 2.3040	12.0280
 2.3050	11.9820
 2.3060	11.9400
 2.3070	11.8950
 2.3080	11.8530
 2.3090	11.8080
 2.3100	11.7690
 2.3110	11.7360
 2.3120	11.7100
 2.3130	11.6900
 2.3140	11.6760
 2.3150	11.6800
 2.3160	11.6660
 2.3170	11.6440
 2.3180	11.6310
 2.3190	11.6150
 2.3200	11.5990
 2.3210	11.5940
 2.3220	11.5890
 2.3230	11.5830
 2.3240	11.5690
 2.3250	11.5620
 2.3260	11.5410
 2.3270	11.5060
 2.3280	11.4670
 2.3290	11.4270
 2.3300	11.3790
 2.3310	11.3090
 2.3320	11.2600
 2.3330	11.2160
 2.3340	11.1720
 2.3350	11.1390
 2.3360	11.0970
 2.3370	11.0470
 2.3380	11.0010
 2.3390	10.9610
 2.3400	10.9100
 2.3410	10.8490
 2.3420	10.7970
 2.3430	10.7440
 2.3440	10.6900
 2.3450	10.6370
 2.3460	10.5970
 2.3470	10.5600
 2.3480	10.5260
 2.3490	10.5040
 2.3500	10.4820
 2.3510	10.4620
 2.3520	10.4370
 2.3530	10.4180
 2.3540	10.3920
 2.3550	10.3530
 2.3560	10.3260
 2.3570	10.3050
 2.3580	10.2810
 2.3590	10.2570
 2.3600	10.2210
 2.3610	10.1780
 2.3620	10.1430
 2.3630	10.0970
 2.3640	10.0600
 2.3650	10.0290
 2.3660	 9.9790
 2.3670	 9.9380
 2.3680	 9.8880
 2.3690	 9.8380
 2.3700	 9.8120
 2.3710	 9.8020
 2.3720	 9.8000
 2.3730	 9.7880
 2.3740	 9.7600
 2.3750	 9.7020
 2.3760	 9.6420
 2.3770	 9.5930
 2.3780	 9.5530
 2.3790	 9.5510
 2.3800	 9.5310
 2.3810	 9.4910
 2.3820	 9.4580
 2.3830	 9.3760
 2.3840	 9.3040
 2.3850	 9.2800
 2.3860	 9.2340
 2.3870	 9.2050
 2.3880	 9.2020
 2.3890	 9.1540
 2.3900	 9.0910
 2.3910	 9.0450
 2.3920	 9.0020
 2.3930	 8.9580
 2.3940	 8.9300
 2.3950	 8.8970
 2.3960	 8.8290
 2.3970	 8.7900
 2.3980	 8.7730
 2.3990	 8.7080
 2.4000	 8.6500
 2.4010	 8.6030
 2.4020	 8.5110
 2.4030	 8.4530
 2.4040	 8.4210
 2.4050	 8.3510
 2.4060	 8.2920
 2.4070	 8.2510
 2.4080	 8.2250
 2.4090	 8.1770
 2.4100	 8.1250
 2.4110	 8.0820
 2.4120	 8.0270
 2.4130	 8.0040
 2.4140	 7.9640
 2.4150	 7.9300
 2.4160	 7.9140
 2.4170	 7.8660
 2.4180	 7.8230
 2.4190	 7.7370
 2.4200	 7.6190
 2.4210	 7.5620
 2.4220	 7.5220
 2.4230	 7.5120
 2.4240	 7.5450
 2.4250	 7.5530
 2.4260	 7.5380
 2.4270	 7.5140
 2.4280	 7.4580
 2.4290	 7.3670
 2.4300	 7.2920
 2.4310	 7.2450
 2.4320	 7.2090
 2.4330	 7.1680
 2.4340	 7.1280
 2.4350	 7.0920
 2.4360	 7.0370
 2.4370	 6.9990
 2.4380	 6.9660
 2.4390	 6.8780
 2.4400	 6.7960
 2.4410	 6.7330
 2.4420	 6.6650
 2.4430	 6.6310
 2.4440	 6.5870
 2.4450	 6.5250
 2.4460	 6.4830
 2.4470	 6.4530
 2.4480	 6.4480
 2.4490	 6.4200
 2.4500	 6.3950
 2.4510	 6.3980
 2.4520	 6.3370
 2.4530	 6.2860
 2.4540	 6.2500
 2.4550	 6.1280
 2.4560	 6.0740
 2.4570	 6.0890
 2.4580	 6.0450
 2.4590	 6.0550
 2.4600	 6.1000
 2.4610	 6.0850
 2.4620	 6.0830
 2.4630	 6.0680
 2.4640	 5.9610
 2.4650	 5.8590
 2.4660	 5.7670
 2.4670	 5.7200
 2.4680	 5.7540
 2.4690	 5.7590
 2.4700	 5.7640
 2.4710	 5.7490
 2.4720	 5.7300
 2.4730	 5.7420
 2.4740	 5.7240
 2.4750	 5.6830
 2.4760	 5.6340
 2.4770	 5.5340
 2.4780	 5.5160
 2.4790	 5.5430
 2.4800	 5.5510
 2.4810	 5.5990
 2.4820	 5.6040
 2.4830	 5.5840
 2.4840	 5.5690
 2.4850	 5.5860
 2.4860	 5.5800
 2.4870	 5.5770
 2.4880	 5.5040
 2.4890	 5.4790
 2.4900	 5.4900
 2.4910	 5.4570
 2.4920	 5.4580
 2.4930	 5.3950
 2.4940	 5.2510
 2.4950	 5.1710
 2.4960	 5.2110
 2.4970	 5.2880
 2.4980	 5.3110
 2.4990	 5.2930
 2.5000	 5.2940
