Name: Quercus ilex
Type: vegetation
Class: Tree
Genus: Quercus
Species: ilex
Sample No.: JPL232
Owner: JPL
Wavelength Range: TIR
Origin: 34.12768; -118.1133; WGS84
Collection Date: 10/3/2016
Description: Samples were collected at the Huntington Garden in San Marino California as part of a JPL Subcontract studying HyTES imagery. Samples were taken to JPL and processed within 48 hours of collection. The same leaves were processed in the Nicolet and then measured using the ASD.
Measurement: Hemispherical reflectance
First Column: X
Second Column: Y
X Units: Wavelength (micrometer)
Y Units: Reflectance (percentage)
First X Value: 2.501
Last X Value: 15.387
Number of X Values: 1737
Additional Information: vegetation.tree.quercus.ilex.tir.jpl232.jpl.nicolet.ancillary.txt

 2.5010	 7.2930
 2.5030	 7.2920
 2.5040	 7.2790
 2.5050	 7.2170
 2.5060	 7.2330
 2.5070	 7.1380
 2.5090	 7.0910
 2.5100	 7.1180
 2.5110	 7.1780
 2.5120	 7.1600
 2.5140	 7.1980
 2.5150	 7.1450
 2.5160	 7.1280
 2.5170	 7.1090
 2.5180	 7.1240
 2.5200	 7.0670
 2.5210	 7.0720
 2.5220	 7.0830
 2.5230	 7.1030
 2.5250	 7.0470
 2.5260	 7.0300
 2.5270	 7.0620
 2.5280	 7.0880
 2.5300	 7.0510
 2.5310	 7.0430
 2.5320	 7.0270
 2.5330	 7.0350
 2.5340	 7.0770
 2.5360	 7.1250
 2.5370	 7.0780
 2.5380	 7.1320
 2.5390	 7.1830
 2.5410	 7.1960
 2.5420	 7.0910
 2.5430	 7.0240
 2.5440	 7.0260
 2.5460	 7.0600
 2.5470	 7.0680
 2.5480	 7.0580
 2.5490	 7.1130
 2.5510	 7.1610
 2.5520	 7.0960
 2.5530	 7.0260
 2.5540	 7.0760
 2.5560	 7.1680
 2.5570	 7.1920
 2.5580	 7.2520
 2.5590	 7.1560
 2.5610	 6.9790
 2.5620	 6.7970
 2.5630	 6.7730
 2.5650	 6.7700
 2.5660	 6.9830
 2.5670	 7.2030
 2.5680	 7.2000
 2.5700	 6.9910
 2.5710	 6.9890
 2.5720	 7.0850
 2.5730	 6.8780
 2.5750	 6.8970
 2.5760	 7.0470
 2.5770	 6.9480
 2.5790	 7.0790
 2.5800	 7.1570
 2.5810	 7.0340
 2.5820	 6.9580
 2.5840	 6.8290
 2.5850	 6.8380
 2.5860	 7.0350
 2.5880	 6.8770
 2.5890	 6.9370
 2.5900	 7.0250
 2.5910	 7.0940
 2.5930	 7.0040
 2.5940	 6.5520
 2.5950	 6.1370
 2.5970	 6.4970
 2.5980	 6.8820
 2.5990	 7.0190
 2.6010	 6.9350
 2.6020	 6.8860
 2.6030	 6.8320
 2.6040	 6.6920
 2.6060	 6.4870
 2.6070	 6.6130
 2.6080	 6.7300
 2.6100	 6.7350
 2.6110	 6.8000
 2.6120	 6.8680
 2.6140	 6.7300
 2.6150	 6.7590
 2.6160	 6.5400
 2.6180	 6.4000
 2.6190	 6.5860
 2.6200	 6.4390
 2.6220	 6.3970
 2.6230	 6.6890
 2.6240	 6.6670
 2.6260	 6.5710
 2.6270	 6.3370
 2.6280	 6.4690
 2.6300	 6.4020
 2.6310	 6.1840
 2.6320	 6.3140
 2.6340	 6.3990
 2.6350	 6.4140
 2.6360	 6.5420
 2.6380	 6.4910
 2.6390	 6.4830
 2.6400	 6.4210
 2.6420	 6.4340
 2.6430	 6.4350
 2.6440	 6.4270
 2.6460	 6.3120
 2.6470	 6.3550
 2.6480	 6.3480
 2.6500	 6.3560
 2.6510	 6.2800
 2.6520	 6.1570
 2.6540	 6.0700
 2.6550	 6.0730
 2.6570	 6.0400
 2.6580	 6.1560
 2.6590	 6.0510
 2.6610	 5.9930
 2.6620	 6.0090
 2.6630	 5.9900
 2.6650	 5.6270
 2.6660	 5.4120
 2.6670	 5.4490
 2.6690	 5.6130
 2.6700	 5.3420
 2.6720	 5.3280
 2.6730	 5.7420
 2.6740	 5.8840
 2.6760	 5.7240
 2.6770	 5.5020
 2.6780	 5.5470
 2.6800	 5.6150
 2.6810	 5.7680
 2.6830	 5.8090
 2.6840	 5.7260
 2.6850	 5.6770
 2.6870	 5.5990
 2.6880	 5.6450
 2.6900	 5.6880
 2.6910	 5.7510
 2.6920	 5.6590
 2.6940	 5.3970
 2.6950	 5.2760
 2.6970	 5.4730
 2.6980	 5.6680
 2.6990	 5.7230
 2.7010	 5.5450
 2.7020	 5.5230
 2.7040	 5.6120
 2.7050	 5.6360
 2.7060	 5.5890
 2.7080	 5.5550
 2.7090	 5.4290
 2.7110	 5.2330
 2.7120	 5.2100
 2.7130	 5.5120
 2.7150	 5.5850
 2.7160	 5.5700
 2.7180	 5.5040
 2.7190	 5.3530
 2.7210	 4.9720
 2.7220	 5.0750
 2.7230	 5.2190
 2.7250	 5.1020
 2.7260	 5.1990
 2.7280	 5.3800
 2.7290	 5.4260
 2.7310	 5.4470
 2.7320	 5.4310
 2.7340	 5.3770
 2.7350	 5.2090
 2.7360	 5.2870
 2.7380	 5.2530
 2.7390	 4.9880
 2.7410	 4.8720
 2.7420	 5.0250
 2.7440	 5.2450
 2.7450	 5.3600
 2.7470	 5.2780
 2.7480	 5.3390
 2.7490	 5.4030
 2.7510	 5.4300
 2.7520	 5.3820
 2.7540	 5.3850
 2.7550	 5.0990
 2.7570	 5.0730
 2.7580	 5.2410
 2.7600	 5.2900
 2.7610	 5.2800
 2.7630	 5.1720
 2.7640	 5.1450
 2.7660	 5.2800
 2.7670	 5.2190
 2.7690	 5.1510
 2.7700	 5.1800
 2.7720	 5.2160
 2.7730	 5.2250
 2.7740	 5.2770
 2.7760	 5.2680
 2.7770	 5.3070
 2.7790	 5.2330
 2.7800	 5.1810
 2.7820	 5.1450
 2.7830	 5.2690
 2.7850	 5.2970
 2.7860	 5.1980
 2.7880	 5.0840
 2.7890	 5.1470
 2.7910	 5.1900
 2.7920	 5.3160
 2.7940	 5.3110
 2.7950	 5.3090
 2.7970	 5.3540
 2.7980	 5.3380
 2.8000	 5.2640
 2.8010	 5.2200
 2.8030	 5.0550
 2.8040	 5.0570
 2.8060	 5.2150
 2.8080	 5.3030
 2.8090	 5.2780
 2.8110	 5.3040
 2.8120	 5.2640
 2.8140	 5.3090
 2.8150	 5.3150
 2.8170	 5.3280
 2.8180	 5.2660
 2.8200	 5.2540
 2.8210	 5.2730
 2.8230	 5.3350
 2.8240	 5.3360
 2.8260	 5.3660
 2.8270	 5.2800
 2.8290	 5.2510
 2.8310	 5.2710
 2.8320	 5.3170
 2.8340	 5.2940
 2.8350	 5.2990
 2.8370	 5.2610
 2.8380	 5.2320
 2.8400	 5.2100
 2.8410	 5.2320
 2.8430	 5.2630
 2.8440	 5.3300
 2.8460	 5.3100
 2.8480	 5.3210
 2.8490	 5.2500
 2.8510	 5.2430
 2.8520	 5.2100
 2.8540	 5.1480
 2.8550	 5.1400
 2.8570	 5.2970
 2.8590	 5.4060
 2.8600	 5.4210
 2.8620	 5.3310
 2.8630	 5.3170
 2.8650	 5.3110
 2.8660	 5.3440
 2.8680	 5.2740
 2.8700	 5.3230
 2.8710	 5.3260
 2.8730	 5.3260
 2.8740	 5.3870
 2.8760	 5.4620
 2.8780	 5.3170
 2.8790	 5.3020
 2.8810	 5.3750
 2.8820	 5.4130
 2.8840	 5.3630
 2.8860	 5.3820
 2.8870	 5.4030
 2.8890	 5.4510
 2.8900	 5.3700
 2.8920	 5.3740
 2.8940	 5.3550
 2.8950	 5.3310
 2.8970	 5.3060
 2.8990	 5.3720
 2.9000	 5.3210
 2.9020	 5.3060
 2.9030	 5.3120
 2.9050	 5.3350
 2.9070	 5.3180
 2.9080	 5.3480
 2.9100	 5.2930
 2.9120	 5.3070
 2.9130	 5.3410
 2.9150	 5.3800
 2.9160	 5.3550
 2.9180	 5.3880
 2.9200	 5.4270
 2.9210	 5.4170
 2.9230	 5.3580
 2.9250	 5.3890
 2.9260	 5.3830
 2.9280	 5.4310
 2.9300	 5.3640
 2.9310	 5.3600
 2.9330	 5.4150
 2.9350	 5.4610
 2.9360	 5.4160
 2.9380	 5.4530
 2.9400	 5.4880
 2.9410	 5.5210
 2.9430	 5.4670
 2.9450	 5.4660
 2.9460	 5.4320
 2.9480	 5.4300
 2.9500	 5.4280
 2.9510	 5.4960
 2.9530	 5.4440
 2.9550	 5.4180
 2.9560	 5.4360
 2.9580	 5.4990
 2.9600	 5.4750
 2.9610	 5.4640
 2.9630	 5.4260
 2.9650	 5.4570
 2.9670	 5.4650
 2.9680	 5.4940
 2.9700	 5.4790
 2.9720	 5.4800
 2.9730	 5.4410
 2.9750	 5.4670
 2.9770	 5.4630
 2.9780	 5.5400
 2.9800	 5.5530
 2.9820	 5.5520
 2.9840	 5.4800
 2.9850	 5.4870
 2.9870	 5.4180
 2.9890	 5.4330
 2.9900	 5.4270
 2.9920	 5.4420
 2.9940	 5.4750
 2.9960	 5.5260
 2.9970	 5.4920
 2.9990	 5.5220
 3.0010	 5.5150
 3.0030	 5.5420
 3.0040	 5.5160
 3.0060	 5.5470
 3.0080	 5.4640
 3.0100	 5.4900
 3.0110	 5.4830
 3.0130	 5.4450
 3.0150	 5.5020
 3.0170	 5.5540
 3.0180	 5.5010
 3.0200	 5.5220
 3.0220	 5.4630
 3.0240	 5.4980
 3.0250	 5.4980
 3.0270	 5.5250
 3.0290	 5.5000
 3.0310	 5.4730
 3.0320	 5.4110
 3.0340	 5.4930
 3.0360	 5.5310
 3.0380	 5.5520
 3.0400	 5.5280
 3.0410	 5.4990
 3.0430	 5.4800
 3.0450	 5.5090
 3.0470	 5.4930
 3.0480	 5.5530
 3.0500	 5.5310
 3.0520	 5.5280
 3.0540	 5.5050
 3.0560	 5.4880
 3.0570	 5.4990
 3.0590	 5.5440
 3.0610	 5.5360
 3.0630	 5.5700
 3.0650	 5.5230
 3.0670	 5.5020
 3.0680	 5.4270
 3.0700	 5.4660
 3.0720	 5.4930
 3.0740	 5.5290
 3.0760	 5.4920
 3.0770	 5.5020
 3.0790	 5.4840
 3.0810	 5.5190
 3.0830	 5.5090
 3.0850	 5.5130
 3.0870	 5.4900
 3.0880	 5.5230
 3.0900	 5.5200
 3.0920	 5.4840
 3.0940	 5.4590
 3.0960	 5.5010
 3.0980	 5.5320
 3.1000	 5.5510
 3.1010	 5.4760
 3.1030	 5.4690
 3.1050	 5.4350
 3.1070	 5.4790
 3.1090	 5.4900
 3.1110	 5.4500
 3.1130	 5.4270
 3.1140	 5.4620
 3.1160	 5.4200
 3.1180	 5.4380
 3.1200	 5.4550
 3.1220	 5.4970
 3.1240	 5.4250
 3.1260	 5.4610
 3.1280	 5.5200
 3.1290	 5.5050
 3.1310	 5.4200
 3.1330	 5.4540
 3.1350	 5.4530
 3.1370	 5.4450
 3.1390	 5.4200
 3.1410	 5.4150
 3.1430	 5.3610
 3.1450	 5.4220
 3.1470	 5.4820
 3.1480	 5.5050
 3.1500	 5.4820
 3.1520	 5.4960
 3.1540	 5.4320
 3.1560	 5.4040
 3.1580	 5.4140
 3.1600	 5.4580
 3.1620	 5.4520
 3.1640	 5.4840
 3.1660	 5.4570
 3.1680	 5.4360
 3.1700	 5.4000
 3.1720	 5.4300
 3.1730	 5.4150
 3.1750	 5.4850
 3.1770	 5.5000
 3.1790	 5.4760
 3.1810	 5.4510
 3.1830	 5.4520
 3.1850	 5.4140
 3.1870	 5.4190
 3.1890	 5.4100
 3.1910	 5.4490
 3.1930	 5.4210
 3.1950	 5.4340
 3.1970	 5.4380
 3.1990	 5.4270
 3.2010	 5.3750
 3.2030	 5.3880
 3.2050	 5.3930
 3.2070	 5.3880
 3.2090	 5.3790
 3.2110	 5.4070
 3.2130	 5.4170
 3.2150	 5.4420
 3.2170	 5.4380
 3.2190	 5.4700
 3.2210	 5.4380
 3.2230	 5.4290
 3.2250	 5.3990
 3.2270	 5.4130
 3.2290	 5.3880
 3.2310	 5.3790
 3.2330	 5.3780
 3.2350	 5.4140
 3.2370	 5.3910
 3.2390	 5.4140
 3.2410	 5.4110
 3.2430	 5.3960
 3.2450	 5.3730
 3.2470	 5.3690
 3.2490	 5.3100
 3.2510	 5.3060
 3.2530	 5.3120
 3.2550	 5.3740
 3.2570	 5.3650
 3.2590	 5.3840
 3.2610	 5.3670
 3.2630	 5.3440
 3.2650	 5.3150
 3.2670	 5.3400
 3.2700	 5.3040
 3.2720	 5.3090
 3.2740	 5.3300
 3.2760	 5.3600
 3.2780	 5.3370
 3.2800	 5.3570
 3.2820	 5.3330
 3.2840	 5.3090
 3.2860	 5.2890
 3.2880	 5.3210
 3.2900	 5.2980
 3.2920	 5.2710
 3.2940	 5.2350
 3.2970	 5.2590
 3.2990	 5.2710
 3.3010	 5.2770
 3.3030	 5.2550
 3.3050	 5.2570
 3.3070	 5.2390
 3.3090	 5.2390
 3.3110	 5.2310
 3.3130	 5.2600
 3.3160	 5.2430
 3.3180	 5.2720
 3.3200	 5.2780
 3.3220	 5.2260
 3.3240	 5.1630
 3.3260	 5.1380
 3.3280	 5.0510
 3.3300	 5.0590
 3.3330	 5.0870
 3.3350	 5.1120
 3.3370	 5.0590
 3.3390	 5.0330
 3.3410	 5.0520
 3.3430	 5.0630
 3.3450	 4.9940
 3.3480	 5.0070
 3.3500	 5.0000
 3.3520	 5.0280
 3.3540	 4.9650
 3.3560	 4.9070
 3.3580	 4.9290
 3.3610	 4.9710
 3.3630	 4.9310
 3.3650	 4.8910
 3.3670	 4.8710
 3.3690	 4.9160
 3.3720	 4.8630
 3.3740	 4.8240
 3.3760	 4.7650
 3.3780	 4.7740
 3.3800	 4.7590
 3.3830	 4.7650
 3.3850	 4.7250
 3.3870	 4.7360
 3.3890	 4.7380
 3.3910	 4.6780
 3.3940	 4.5900
 3.3960	 4.6110
 3.3980	 4.6120
 3.4000	 4.6200
 3.4030	 4.5430
 3.4050	 4.4920
 3.4070	 4.4340
 3.4090	 4.4570
 3.4110	 4.4830
 3.4140	 4.5540
 3.4160	 4.6870
 3.4180	 4.9840
 3.4200	 5.3890
 3.4230	 6.0700
 3.4250	 6.9130
 3.4270	 7.8580
 3.4300	 8.5700
 3.4320	 8.6800
 3.4340	 8.2560
 3.4360	 7.7810
 3.4390	 7.3940
 3.4410	 7.1150
 3.4430	 6.8600
 3.4450	 6.7130
 3.4480	 6.6200
 3.4500	 6.5640
 3.4520	 6.4650
 3.4550	 6.4280
 3.4570	 6.3770
 3.4590	 6.3290
 3.4620	 6.2980
 3.4640	 6.3030
 3.4660	 6.2190
 3.4690	 6.1520
 3.4710	 6.0720
 3.4730	 6.0460
 3.4760	 5.9930
 3.4780	 5.9160
 3.4800	 5.8690
 3.4830	 5.8650
 3.4850	 5.7720
 3.4870	 5.6440
 3.4900	 5.5140
 3.4920	 5.3960
 3.4940	 5.3040
 3.4970	 5.2710
 3.4990	 5.1710
 3.5010	 5.1600
 3.5040	 5.2530
 3.5060	 5.6740
 3.5080	 6.6610
 3.5110	 7.8490
 3.5130	 8.3060
 3.5160	 8.0500
 3.5180	 7.6450
 3.5200	 7.3570
 3.5230	 7.1370
 3.5250	 6.9620
 3.5280	 6.8140
 3.5300	 6.7590
 3.5320	 6.6380
 3.5350	 6.5680
 3.5370	 6.5140
 3.5400	 6.4720
 3.5420	 6.4290
 3.5440	 6.3700
 3.5470	 6.3110
 3.5490	 6.3000
 3.5520	 6.2690
 3.5540	 6.3150
 3.5570	 6.3000
 3.5590	 6.2380
 3.5610	 6.1800
 3.5640	 6.1520
 3.5660	 6.1560
 3.5690	 6.1770
 3.5710	 6.1410
 3.5740	 6.1180
 3.5760	 6.0760
 3.5790	 6.1160
 3.5810	 6.1000
 3.5840	 6.0380
 3.5860	 6.0130
 3.5890	 6.0610
 3.5910	 6.0770
 3.5940	 6.0470
 3.5960	 6.0170
 3.5990	 6.0080
 3.6010	 5.9690
 3.6040	 5.9850
 3.6060	 5.9990
 3.6090	 6.0400
 3.6110	 6.0180
 3.6140	 6.0250
 3.6160	 5.9770
 3.6190	 5.9570
 3.6210	 5.9690
 3.6240	 6.0000
 3.6260	 5.9670
 3.6290	 5.9680
 3.6310	 5.9550
 3.6340	 5.9310
 3.6360	 5.9320
 3.6390	 5.9570
 3.6410	 5.9070
 3.6440	 5.8650
 3.6470	 5.8570
 3.6490	 5.8960
 3.6520	 5.8900
 3.6540	 5.8940
 3.6570	 5.9070
 3.6590	 5.9120
 3.6620	 5.8820
 3.6650	 5.9000
 3.6670	 5.9110
 3.6700	 5.8980
 3.6720	 5.8730
 3.6750	 5.8900
 3.6780	 5.8980
 3.6800	 5.8980
 3.6830	 5.8740
 3.6850	 5.8720
 3.6880	 5.8520
 3.6910	 5.8680
 3.6930	 5.8450
 3.6960	 5.8500
 3.6990	 5.8440
 3.7010	 5.8340
 3.7040	 5.8120
 3.7070	 5.8010
 3.7090	 5.8130
 3.7120	 5.8560
 3.7150	 5.8010
 3.7170	 5.7960
 3.7200	 5.8230
 3.7230	 5.8530
 3.7250	 5.8560
 3.7280	 5.8300
 3.7310	 5.7720
 3.7330	 5.8210
 3.7360	 5.8560
 3.7390	 5.8360
 3.7410	 5.8210
 3.7440	 5.8680
 3.7470	 5.8340
 3.7490	 5.8010
 3.7520	 5.7850
 3.7550	 5.7990
 3.7580	 5.8140
 3.7600	 5.8430
 3.7630	 5.8550
 3.7660	 5.8280
 3.7690	 5.7960
 3.7710	 5.8030
 3.7740	 5.8160
 3.7770	 5.8170
 3.7790	 5.7550
 3.7820	 5.7380
 3.7850	 5.7690
 3.7880	 5.8280
 3.7910	 5.7970
 3.7930	 5.7920
 3.7960	 5.8150
 3.7990	 5.8090
 3.8020	 5.7860
 3.8040	 5.7860
 3.8070	 5.7790
 3.8100	 5.7870
 3.8130	 5.8070
 3.8160	 5.8140
 3.8180	 5.7920
 3.8210	 5.8240
 3.8240	 5.8050
 3.8270	 5.7990
 3.8300	 5.7800
 3.8330	 5.8070
 3.8350	 5.8280
 3.8380	 5.8320
 3.8410	 5.8160
 3.8440	 5.8000
 3.8470	 5.8000
 3.8500	 5.8340
 3.8520	 5.8230
 3.8550	 5.8130
 3.8580	 5.8030
 3.8610	 5.8300
 3.8640	 5.8140
 3.8670	 5.8020
 3.8700	 5.7770
 3.8730	 5.7890
 3.8760	 5.8040
 3.8780	 5.8010
 3.8810	 5.7840
 3.8840	 5.7780
 3.8870	 5.7680
 3.8900	 5.8150
 3.8930	 5.8250
 3.8960	 5.8250
 3.8990	 5.8150
 3.9020	 5.8000
 3.9050	 5.7660
 3.9080	 5.7890
 3.9110	 5.8120
 3.9140	 5.8270
 3.9170	 5.7960
 3.9190	 5.7860
 3.9220	 5.8040
 3.9250	 5.8330
 3.9280	 5.8260
 3.9310	 5.8570
 3.9340	 5.8440
 3.9370	 5.8280
 3.9400	 5.8020
 3.9430	 5.8090
 3.9460	 5.8040
 3.9490	 5.8180
 3.9520	 5.7950
 3.9550	 5.8300
 3.9580	 5.8650
 3.9610	 5.8380
 3.9640	 5.7970
 3.9670	 5.7860
 3.9700	 5.8030
 3.9740	 5.8360
 3.9770	 5.8170
 3.9800	 5.8210
 3.9830	 5.8040
 3.9860	 5.8120
 3.9890	 5.8270
 3.9920	 5.8370
 3.9950	 5.8050
 3.9980	 5.7850
 4.0010	 5.8100
 4.0040	 5.8440
 4.0070	 5.7990
 4.0100	 5.7960
 4.0140	 5.8190
 4.0170	 5.8170
 4.0200	 5.8210
 4.0230	 5.8600
 4.0260	 5.8530
 4.0290	 5.8380
 4.0320	 5.8220
 4.0350	 5.8160
 4.0390	 5.7990
 4.0420	 5.8190
 4.0450	 5.8010
 4.0480	 5.7970
 4.0510	 5.7990
 4.0540	 5.8170
 4.0570	 5.8290
 4.0610	 5.8210
 4.0640	 5.8170
 4.0670	 5.8440
 4.0700	 5.8220
 4.0730	 5.7940
 4.0770	 5.7700
 4.0800	 5.7690
 4.0830	 5.7960
 4.0860	 5.8230
 4.0890	 5.8010
 4.0930	 5.7920
 4.0960	 5.8120
 4.0990	 5.8230
 4.1020	 5.8140
 4.1060	 5.8220
 4.1090	 5.8110
 4.1120	 5.8210
 4.1150	 5.8440
 4.1190	 5.8390
 4.1220	 5.8080
 4.1250	 5.8100
 4.1290	 5.8060
 4.1320	 5.8040
 4.1350	 5.8060
 4.1380	 5.8240
 4.1420	 5.8070
 4.1450	 5.7760
 4.1480	 5.7690
 4.1520	 5.7650
 4.1550	 5.7860
 4.1580	 5.7910
 4.1620	 5.7790
 4.1650	 5.7810
 4.1680	 5.7590
 4.1720	 5.7740
 4.1750	 5.8150
 4.1780	 5.8010
 4.1820	 5.8070
 4.1850	 5.8140
 4.1890	 5.7880
 4.1920	 5.7830
 4.1950	 5.8030
 4.1990	 5.8340
 4.2020	 5.8510
 4.2060	 5.8490
 4.2090	 5.8290
 4.2120	 5.8530
 4.2160	 5.8590
 4.2190	 5.8580
 4.2230	 5.7950
 4.2260	 5.8120
 4.2300	 5.8260
 4.2330	 5.8230
 4.2360	 5.8490
 4.2400	 5.8840
 4.2430	 5.8780
 4.2470	 5.8940
 4.2500	 5.8190
 4.2540	 5.7800
 4.2570	 5.7610
 4.2610	 5.7550
 4.2640	 5.7560
 4.2680	 5.7590
 4.2710	 5.7720
 4.2750	 5.8280
 4.2780	 5.8280
 4.2820	 5.7840
 4.2850	 5.7250
 4.2890	 5.7650
 4.2930	 5.8030
 4.2960	 5.7830
 4.3000	 5.7580
 4.3030	 5.7810
 4.3070	 5.7940
 4.3100	 5.7880
 4.3140	 5.7510
 4.3180	 5.7210
 4.3210	 5.7150
 4.3250	 5.7110
 4.3280	 5.7130
 4.3320	 5.7300
 4.3360	 5.7030
 4.3390	 5.6670
 4.3430	 5.6620
 4.3470	 5.6740
 4.3500	 5.6950
 4.3540	 5.6860
 4.3580	 5.6480
 4.3610	 5.6350
 4.3650	 5.6120
 4.3690	 5.6050
 4.3720	 5.6190
 4.3760	 5.6320
 4.3800	 5.6310
 4.3830	 5.6380
 4.3870	 5.6260
 4.3910	 5.6360
 4.3940	 5.6170
 4.3980	 5.5710
 4.4020	 5.5930
 4.4060	 5.6440
 4.4090	 5.6230
 4.4130	 5.5830
 4.4170	 5.5750
 4.4210	 5.5870
 4.4240	 5.5650
 4.4280	 5.5850
 4.4320	 5.6230
 4.4360	 5.6050
 4.4400	 5.5780
 4.4430	 5.5970
 4.4470	 5.6120
 4.4510	 5.5810
 4.4550	 5.5360
 4.4590	 5.5410
 4.4630	 5.5690
 4.4660	 5.5650
 4.4700	 5.5600
 4.4740	 5.5610
 4.4780	 5.5510
 4.4820	 5.5160
 4.4860	 5.5040
 4.4900	 5.5220
 4.4930	 5.5370
 4.4970	 5.5400
 4.5010	 5.5430
 4.5050	 5.5200
 4.5090	 5.5110
 4.5130	 5.4940
 4.5170	 5.4880
 4.5210	 5.5180
 4.5250	 5.5320
 4.5290	 5.5160
 4.5330	 5.4840
 4.5370	 5.4770
 4.5410	 5.5170
 4.5450	 5.5390
 4.5490	 5.5110
 4.5530	 5.5100
 4.5570	 5.5280
 4.5610	 5.5070
 4.5650	 5.5020
 4.5690	 5.5240
 4.5730	 5.5200
 4.5770	 5.5220
 4.5810	 5.5330
 4.5850	 5.5430
 4.5890	 5.5280
 4.5930	 5.4930
 4.5970	 5.5210
 4.6010	 5.5340
 4.6050	 5.5030
 4.6090	 5.4820
 4.6130	 5.5160
 4.6170	 5.5570
 4.6220	 5.5450
 4.6260	 5.5080
 4.6300	 5.5090
 4.6340	 5.4970
 4.6380	 5.5090
 4.6420	 5.5120
 4.6460	 5.5040
 4.6510	 5.5030
 4.6550	 5.5000
 4.6590	 5.4850
 4.6630	 5.4770
 4.6670	 5.4820
 4.6720	 5.4900
 4.6760	 5.4680
 4.6800	 5.4520
 4.6840	 5.4270
 4.6880	 5.4670
 4.6930	 5.4800
 4.6970	 5.4890
 4.7010	 5.5000
 4.7050	 5.5060
 4.7100	 5.5070
 4.7140	 5.4970
 4.7180	 5.4600
 4.7230	 5.4410
 4.7270	 5.4690
 4.7310	 5.4940
 4.7360	 5.4580
 4.7400	 5.4380
 4.7440	 5.4340
 4.7490	 5.4310
 4.7530	 5.4190
 4.7570	 5.4270
 4.7620	 5.4230
 4.7660	 5.4130
 4.7700	 5.3900
 4.7750	 5.3830
 4.7790	 5.3940
 4.7840	 5.4210
 4.7880	 5.4470
 4.7920	 5.4610
 4.7970	 5.4820
 4.8010	 5.4730
 4.8060	 5.4220
 4.8100	 5.4020
 4.8150	 5.4200
 4.8190	 5.4460
 4.8240	 5.4430
 4.8280	 5.4110
 4.8330	 5.3970
 4.8370	 5.4340
 4.8420	 5.4130
 4.8460	 5.4120
 4.8510	 5.4210
 4.8550	 5.4140
 4.8600	 5.4330
 4.8640	 5.4530
 4.8690	 5.4280
 4.8740	 5.4110
 4.8780	 5.3890
 4.8830	 5.4020
 4.8870	 5.4000
 4.8920	 5.4070
 4.8970	 5.3860
 4.9010	 5.3680
 4.9060	 5.3800
 4.9100	 5.4350
 4.9150	 5.4520
 4.9200	 5.4280
 4.9240	 5.3880
 4.9290	 5.3970
 4.9340	 5.4120
 4.9390	 5.4190
 4.9430	 5.4200
 4.9480	 5.4150
 4.9530	 5.4070
 4.9570	 5.4040
 4.9620	 5.3820
 4.9670	 5.3980
 4.9720	 5.4220
 4.9760	 5.4360
 4.9810	 5.4250
 4.9860	 5.4170
 4.9910	 5.3940
 4.9960	 5.4100
 5.0000	 5.4250
 5.0050	 5.3940
 5.0100	 5.3700
 5.0150	 5.4070
 5.0200	 5.3420
 5.0250	 5.3410
 5.0300	 5.4030
 5.0340	 5.4290
 5.0390	 5.4000
 5.0440	 5.3740
 5.0490	 5.3770
 5.0540	 5.4040
 5.0590	 5.3880
 5.0640	 5.4110
 5.0690	 5.4350
 5.0740	 5.4300
 5.0790	 5.3670
 5.0840	 5.3760
 5.0890	 5.4090
 5.0940	 5.4200
 5.0990	 5.3870
 5.1040	 5.3860
 5.1090	 5.3780
 5.1140	 5.3860
 5.1190	 5.4060
 5.1240	 5.4060
 5.1290	 5.3710
 5.1340	 5.3680
 5.1390	 5.3700
 5.1440	 5.3550
 5.1490	 5.3490
 5.1550	 5.3950
 5.1600	 5.4330
 5.1650	 5.4410
 5.1700	 5.4380
 5.1750	 5.4410
 5.1800	 5.4340
 5.1850	 5.4390
 5.1910	 5.4390
 5.1960	 5.4480
 5.2010	 5.3960
 5.2060	 5.3740
 5.2110	 5.3080
 5.2170	 5.3260
 5.2220	 5.4060
 5.2270	 5.4440
 5.2330	 5.4130
 5.2380	 5.3790
 5.2430	 5.3880
 5.2480	 5.4170
 5.2540	 5.4220
 5.2590	 5.4390
 5.2640	 5.4310
 5.2700	 5.4100
 5.2750	 5.3850
 5.2800	 5.4230
 5.2860	 5.4310
 5.2910	 5.3720
 5.2970	 5.3560
 5.3020	 5.3930
 5.3080	 5.3980
 5.3130	 5.4120
 5.3180	 5.3770
 5.3240	 5.3700
 5.3290	 5.3690
 5.3350	 5.4170
 5.3400	 5.4050
 5.3460	 5.3430
 5.3510	 5.2360
 5.3570	 5.2750
 5.3620	 5.3540
 5.3680	 5.4090
 5.3740	 5.3960
 5.3790	 5.3780
 5.3850	 5.3710
 5.3900	 5.3970
 5.3960	 5.3970
 5.4010	 5.3960
 5.4070	 5.3350
 5.4130	 5.3120
 5.4180	 5.1590
 5.4240	 5.0660
 5.4300	 5.2120
 5.4350	 5.3210
 5.4410	 5.3150
 5.4470	 5.3180
 5.4530	 5.3220
 5.4580	 5.2890
 5.4640	 5.1660
 5.4700	 5.2120
 5.4760	 5.2160
 5.4810	 5.2110
 5.4870	 5.2980
 5.4930	 5.3350
 5.4990	 5.3150
 5.5050	 5.3090
 5.5110	 5.3020
 5.5160	 5.2680
 5.5220	 5.2160
 5.5280	 5.2290
 5.5340	 5.2640
 5.5400	 5.2870
 5.5460	 5.2420
 5.5520	 5.1660
 5.5580	 5.1480
 5.5640	 5.2100
 5.5700	 5.1610
 5.5760	 5.0030
 5.5820	 4.9570
 5.5880	 5.1300
 5.5940	 5.1750
 5.6000	 5.1460
 5.6060	 5.1480
 5.6120	 5.1600
 5.6180	 5.1080
 5.6240	 5.1530
 5.6300	 5.1320
 5.6360	 4.9650
 5.6420	 4.7600
 5.6490	 4.9240
 5.6550	 5.0130
 5.6610	 5.0760
 5.6670	 5.0700
 5.6730	 4.9220
 5.6800	 4.9130
 5.6860	 5.0100
 5.6920	 4.9480
 5.6980	 4.9960
 5.7050	 4.9180
 5.7110	 4.7490
 5.7170	 4.7470
 5.7230	 4.8480
 5.7300	 4.9280
 5.7360	 4.9160
 5.7420	 4.8480
 5.7490	 4.8210
 5.7550	 4.9620
 5.7620	 4.8370
 5.7680	 4.5940
 5.7740	 4.8530
 5.7810	 4.9840
 5.7870	 5.0360
 5.7940	 5.0600
 5.8000	 5.0710
 5.8070	 5.0850
 5.8130	 4.9600
 5.8200	 4.6570
 5.8260	 4.7070
 5.8330	 4.9960
 5.8390	 5.2000
 5.8460	 5.2520
 5.8530	 5.2890
 5.8590	 5.2390
 5.8660	 5.2390
 5.8730	 5.2220
 5.8790	 4.8610
 5.8860	 4.8790
 5.8930	 5.0190
 5.8990	 4.9710
 5.9060	 5.3650
 5.9130	 5.4810
 5.9190	 5.4520
 5.9260	 5.3500
 5.9330	 5.0240
 5.9400	 4.8790
 5.9470	 5.2910
 5.9530	 5.4200
 5.9600	 5.4280
 5.9670	 5.2000
 5.9740	 5.2690
 5.9810	 5.3650
 5.9880	 5.2230
 5.9950	 5.2620
 6.0020	 5.4500
 6.0090	 5.3660
 6.0160	 5.3260
 6.0230	 5.4420
 6.0300	 5.5470
 6.0370	 5.4530
 6.0440	 4.9880
 6.0510	 4.5570
 6.0580	 5.0570
 6.0650	 5.2700
 6.0720	 5.0770
 6.0790	 5.1410
 6.0860	 5.4460
 6.0930	 5.5020
 6.1010	 5.4840
 6.1080	 5.2220
 6.1150	 5.0250
 6.1220	 5.2340
 6.1290	 5.4850
 6.1370	 5.4590
 6.1440	 5.4210
 6.1510	 5.3740
 6.1580	 5.3100
 6.1660	 5.3430
 6.1730	 5.4870
 6.1800	 5.2710
 6.1880	 5.1730
 6.1950	 5.3710
 6.2030	 5.4890
 6.2100	 5.4340
 6.2180	 5.4270
 6.2250	 5.4130
 6.2320	 5.4420
 6.2400	 5.4400
 6.2480	 5.4560
 6.2550	 5.4260
 6.2630	 5.4770
 6.2700	 5.4390
 6.2780	 5.4220
 6.2850	 5.4360
 6.2930	 5.4730
 6.3010	 5.4540
 6.3080	 5.4700
 6.3160	 5.4400
 6.3240	 5.4690
 6.3310	 5.3960
 6.3390	 5.1530
 6.3470	 4.9910
 6.3550	 5.3000
 6.3620	 5.3380
 6.3700	 5.1710
 6.3780	 5.2250
 6.3860	 5.3380
 6.3940	 5.3070
 6.4020	 5.1980
 6.4100	 4.6290
 6.4180	 4.5080
 6.4260	 4.9570
 6.4340	 5.1070
 6.4420	 5.1450
 6.4500	 5.2410
 6.4580	 5.2580
 6.4660	 5.2690
 6.4740	 5.0800
 6.4820	 4.8940
 6.4900	 4.6070
 6.4980	 4.6940
 6.5060	 5.0890
 6.5140	 5.1790
 6.5230	 5.0140
 6.5310	 5.2020
 6.5390	 5.2070
 6.5470	 5.1240
 6.5560	 5.0480
 6.5640	 4.9960
 6.5720	 4.7160
 6.5800	 4.8360
 6.5890	 4.9260
 6.5970	 4.9640
 6.6060	 5.0580
 6.6140	 5.0570
 6.6230	 4.9170
 6.6310	 4.6500
 6.6390	 4.4500
 6.6480	 4.8570
 6.6570	 5.1360
 6.6650	 5.0800
 6.6740	 4.8880
 6.6820	 4.8300
 6.6910	 4.9390
 6.7000	 5.0220
 6.7080	 4.8040
 6.7170	 4.8000
 6.7260	 4.8750
 6.7340	 4.9730
 6.7430	 4.9670
 6.7520	 4.9290
 6.7610	 4.8320
 6.7690	 4.7450
 6.7780	 4.6900
 6.7870	 4.9380
 6.7960	 5.2770
 6.8050	 5.4140
 6.8140	 5.2410
 6.8230	 5.0920
 6.8320	 5.3230
 6.8410	 5.8750
 6.8500	 5.7000
 6.8590	 5.1660
 6.8680	 5.0080
 6.8770	 5.3930
 6.8860	 5.4930
 6.8960	 5.4810
 6.9050	 5.3660
 6.9140	 5.4120
 6.9230	 5.4280
 6.9320	 5.4790
 6.9420	 5.4350
 6.9510	 5.3270
 6.9600	 5.0830
 6.9700	 5.2650
 6.9790	 5.3690
 6.9880	 5.3890
 6.9980	 5.3640
 7.0070	 5.4190
 7.0170	 5.3810
 7.0260	 5.4010
 7.0360	 5.2650
 7.0450	 5.0870
 7.0550	 5.1320
 7.0650	 5.3500
 7.0740	 5.3840
 7.0840	 5.4390
 7.0940	 5.4290
 7.1030	 5.4870
 7.1130	 5.4190
 7.1230	 5.3890
 7.1330	 5.4060
 7.1420	 5.3960
 7.1520	 5.2910
 7.1620	 5.2830
 7.1720	 5.2200
 7.1820	 5.3570
 7.1920	 5.3520
 7.2020	 5.2560
 7.2120	 5.1560
 7.2220	 5.2670
 7.2320	 5.2430
 7.2420	 5.2910
 7.2520	 5.2520
 7.2620	 5.2670
 7.2730	 5.2050
 7.2830	 5.2510
 7.2930	 5.2880
 7.3030	 5.3240
 7.3140	 5.2850
 7.3240	 5.3170
 7.3340	 5.1890
 7.3450	 5.2400
 7.3550	 5.2440
 7.3660	 5.2670
 7.3760	 5.2300
 7.3870	 5.2550
 7.3970	 5.2120
 7.4080	 5.2790
 7.4180	 5.2630
 7.4290	 5.3410
 7.4400	 5.3190
 7.4500	 5.3090
 7.4610	 5.2000
 7.4720	 5.2380
 7.4830	 5.2600
 7.4930	 5.3130
 7.5040	 5.2680
 7.5150	 5.3300
 7.5260	 5.3150
 7.5370	 5.3220
 7.5480	 5.2770
 7.5590	 5.3190
 7.5700	 5.2830
 7.5810	 5.2900
 7.5920	 5.2110
 7.6030	 5.2480
 7.6140	 5.2130
 7.6260	 5.2690
 7.6370	 5.2840
 7.6480	 5.3170
 7.6590	 5.2210
 7.6710	 5.1940
 7.6820	 5.1510
 7.6940	 5.2430
 7.7050	 5.2430
 7.7160	 5.2900
 7.7280	 5.2490
 7.7390	 5.2790
 7.7510	 5.2130
 7.7630	 5.2220
 7.7740	 5.1290
 7.7860	 5.1800
 7.7980	 5.1510
 7.8090	 5.1760
 7.8210	 5.1640
 7.8330	 5.1900
 7.8450	 5.1260
 7.8570	 5.1900
 7.8690	 5.1800
 7.8810	 5.1940
 7.8930	 5.1060
 7.9050	 5.1520
 7.9170	 5.0830
 7.9290	 5.0920
 7.9410	 5.0200
 7.9530	 5.0930
 7.9650	 5.0610
 7.9780	 5.1050
 7.9900	 5.0830
 8.0020	 5.1130
 8.0150	 5.0710
 8.0270	 5.1230
 8.0390	 5.1050
 8.0520	 5.1560
 8.0640	 5.1010
 8.0770	 5.1650
 8.0900	 5.1710
 8.1020	 5.2650
 8.1150	 5.2320
 8.1280	 5.2740
 8.1400	 5.1700
 8.1530	 5.1810
 8.1660	 5.1110
 8.1790	 5.1910
 8.1920	 5.1160
 8.2050	 5.1670
 8.2180	 5.1070
 8.2310	 5.1760
 8.2440	 5.1430
 8.2570	 5.1960
 8.2700	 5.1400
 8.2830	 5.2460
 8.2970	 5.1610
 8.3100	 5.1840
 8.3230	 5.1420
 8.3370	 5.2650
 8.3500	 5.2630
 8.3640	 5.2770
 8.3770	 5.2410
 8.3910	 5.3230
 8.4040	 5.1840
 8.4180	 5.2770
 8.4320	 5.2450
 8.4450	 5.2390
 8.4590	 5.1170
 8.4730	 5.1740
 8.4870	 5.0950
 8.5010	 5.1570
 8.5150	 5.1530
 8.5290	 5.1950
 8.5430	 5.1280
 8.5570	 5.2300
 8.5710	 5.1950
 8.5850	 5.3270
 8.5990	 5.2880
 8.6140	 5.3720
 8.6280	 5.3630
 8.6420	 5.4810
 8.6570	 5.4550
 8.6710	 5.5890
 8.6860	 5.5080
 8.7000	 5.5490
 8.7150	 5.5110
 8.7300	 5.6050
 8.7440	 5.5420
 8.7590	 5.6230
 8.7740	 5.5090
 8.7890	 5.5930
 8.8040	 5.5120
 8.8190	 5.5760
 8.8340	 5.5730
 8.8490	 5.6600
 8.8640	 5.5510
 8.8790	 5.6220
 8.8940	 5.5630
 8.9100	 5.6690
 8.9250	 5.5530
 8.9400	 5.6030
 8.9560	 5.5210
 8.9710	 5.5570
 8.9870	 5.5360
 9.0020	 5.6620
 9.0180	 5.5360
 9.0340	 5.6330
 9.0500	 5.5880
 9.0650	 5.6770
 9.0810	 5.5470
 9.0970	 5.6460
 9.1130	 5.5970
 9.1290	 5.6340
 9.1450	 5.5740
 9.1620	 5.6880
 9.1780	 5.6100
 9.1940	 5.6760
 9.2100	 5.5860
 9.2270	 5.7000
 9.2430	 5.6300
 9.2600	 5.6520
 9.2760	 5.5720
 9.2930	 5.6750
 9.3100	 5.6450
 9.3260	 5.7330
 9.3430	 5.5530
 9.3600	 5.6230
 9.3770	 5.6030
 9.3940	 5.6990
 9.4110	 5.6440
 9.4280	 5.7810
 9.4450	 5.6710
 9.4620	 5.7720
 9.4800	 5.8090
 9.4970	 5.9500
 9.5150	 5.8810
 9.5320	 5.9660
 9.5500	 5.8660
 9.5670	 5.9170
 9.5850	 5.7920
 9.6030	 5.9220
 9.6200	 5.8960
 9.6380	 6.0040
 9.6560	 5.9670
 9.6740	 6.0510
 9.6920	 5.9800
 9.7110	 6.0990
 9.7290	 5.9730
 9.7470	 6.0260
 9.7650	 5.9470
 9.7840	 5.9950
 9.8020	 5.8600
 9.8210	 5.9820
 9.8390	 5.9660
 9.8580	 6.0570
 9.8770	 5.9210
 9.8960	 5.9560
 9.9150	 5.8980
 9.9340	 5.9970
 9.9530	 5.9110
 9.9720	 5.9320
 9.9910	 5.8340
10.0100	 5.8970
10.0300	 5.8070
10.0490	 5.8990
10.0690	 5.8080
10.0880	 5.8410
10.1080	 5.8020
10.1280	 5.8970
10.1480	 5.8170
10.1670	 5.9060
10.1870	 5.8260
10.2070	 5.8900
10.2280	 5.8380
10.2480	 5.8830
10.2680	 5.7100
10.2890	 5.7940
10.3090	 5.7560
10.3300	 5.7820
10.3500	 5.6390
10.3710	 5.7760
10.3920	 5.7840
10.4120	 5.8400
10.4330	 5.7340
10.4540	 5.8500
10.4760	 5.7440
10.4970	 5.8240
10.5180	 5.8010
10.5390	 5.8630
10.5610	 5.7020
10.5820	 5.7940
10.6040	 5.7660
10.6260	 5.8990
10.6480	 5.7830
10.6700	 5.8050
10.6920	 5.6850
10.7140	 5.7870
10.7360	 5.7390
10.7580	 5.7880
10.7800	 5.6790
10.8030	 5.7730
10.8250	 5.6860
10.8480	 5.7550
10.8710	 5.6570
10.8940	 5.7900
10.9170	 5.7250
10.9400	 5.7570
10.9630	 5.6070
10.9860	 5.7540
11.0090	 5.6990
11.0330	 5.7130
11.0560	 5.5840
11.0800	 5.7240
11.1040	 5.6270
11.1270	 5.7210
11.1510	 5.6330
11.1750	 5.7370
11.2000	 5.5570
11.2240	 5.5850
11.2480	 5.5550
11.2730	 5.7010
11.2970	 5.6170
11.3220	 5.7070
11.3470	 5.5390
11.3720	 5.6500
11.3970	 5.6160
11.4220	 5.7360
11.4470	 5.7980
11.4720	 6.0630
11.4980	 5.7520
11.5230	 5.7250
11.5490	 5.5760
11.5750	 5.6560
11.6000	 5.5690
11.6260	 5.6580
11.6530	 5.5880
11.6790	 5.7140
11.7050	 5.5020
11.7320	 5.5210
11.7580	 5.4450
11.7850	 5.5710
11.8120	 5.3600
11.8390	 5.5290
11.8660	 5.5010
11.8930	 5.6360
11.9200	 5.4720
11.9480	 5.6040
11.9760	 5.5130
12.0030	 5.5870
12.0310	 5.4590
12.0590	 5.5890
12.0870	 5.4370
12.1150	 5.6290
12.1440	 5.6010
12.1720	 5.7290
12.2010	 5.5990
12.2300	 5.6820
12.2590	 5.5750
12.2880	 5.7280
12.3170	 5.6700
12.3460	 5.8280
12.3760	 5.6760
12.4050	 5.8260
12.4350	 5.6980
12.4650	 5.9210
12.4950	 5.8840
12.5250	 5.9960
12.5550	 5.8160
12.5860	 5.8970
12.6170	 5.7350
12.6470	 5.9160
12.6780	 5.7460
12.7090	 5.8060
12.7410	 5.6540
12.7720	 5.8300
12.8030	 5.7480
12.8350	 5.8650
12.8670	 5.7280
12.8990	 5.9100
12.9310	 5.7710
12.9640	 5.9340
12.9960	 5.7840
13.0290	 5.9100
13.0610	 5.7300
13.0940	 5.8330
13.1280	 5.6340
13.1610	 5.7670
13.1940	 5.6840
13.2280	 5.8890
13.2620	 5.7490
13.2960	 5.7640
13.3300	 5.5530
13.3640	 5.8200
13.3990	 5.6390
13.4340	 5.7800
13.4690	 5.6580
13.5040	 5.7330
13.5390	 5.4840
13.5740	 5.6810
13.6100	 5.4880
13.6460	 5.6990
13.6820	 5.7740
13.7180	 6.0780
13.7540	 5.7090
13.7910	 5.8300
13.8280	 5.6560
13.8650	 6.0560
13.9020	 6.2350
13.9390	 6.4660
13.9770	 6.0300
14.0150	 6.0270
14.0530	 5.7370
14.0910	 5.9610
14.1290	 5.7820
14.1680	 5.9480
14.2070	 5.7440
14.2460	 5.9250
14.2850	 5.6730
14.3240	 6.0060
14.3640	 5.8500
14.4040	 6.0380
14.4440	 5.8460
14.4840	 6.0460
14.5250	 5.7340
14.5660	 5.8930
14.6070	 5.5980
14.6480	 5.9340
14.6900	 5.7630
14.7310	 5.9460
14.7730	 5.5270
14.8150	 5.7570
14.8580	 5.6100
14.9010	 6.0890
14.9440	 5.7630
14.9870	 5.8220
15.0300	 5.2920
15.0740	 5.9160
15.1180	 5.6820
15.1620	 5.8470
15.2060	 5.3990
15.2510	 5.7140
15.2960	 5.2960
15.3410	 5.7100
15.3870	 5.2200
