Name: Jacaranda mimosifolia
Type: vegetation
Class: Tree
Genus: Jacaranda
Species: mimosifolia
Sample No.: JPL204
Owner: JPL
Wavelength Range: VSWIR
Origin: 34.12571; -118.11267; WGS84
Collection Date: 10/3/2016
Description: Samples were collected at the Huntington Garden in San Marino California as part of a JPL Subcontract studying HyTES imagery. Samples were taken to JPL and processed within 48 hours of collection. The same leaves were processed in the Nicolet and then measured using the ASD.
Measurement: Bidirectional reflectance
First Column: X
Second Column: Y
X Units: Wavelength (micrometer)
Y Units: Reflectance (percentage)
First X Value: 0.35
Last X Value: 2.5
Number of X Values: 2151
Additional Information: vegetation.tree.jacaranda.mimosifolia.vswir.jpl204.jpl.asd.ancillary.txt

 0.3500	 3.3310
 0.3510	 3.2030
 0.3520	 3.1470
 0.3530	 3.1430
 0.3540	 3.1300
 0.3550	 3.1180
 0.3560	 3.0960
 0.3570	 3.0940
 0.3580	 3.1530
 0.3590	 3.2310
 0.3600	 3.2240
 0.3610	 3.1340
 0.3620	 3.1130
 0.3630	 3.0460
 0.3640	 3.0160
 0.3650	 3.0870
 0.3660	 3.0570
 0.3670	 3.0850
 0.3680	 3.1580
 0.3690	 3.1480
 0.3700	 3.0800
 0.3710	 3.0350
 0.3720	 3.0320
 0.3730	 2.9730
 0.3740	 2.9620
 0.3750	 2.9850
 0.3760	 3.0050
 0.3770	 3.0580
 0.3780	 3.0500
 0.3790	 2.9860
 0.3800	 2.9630
 0.3810	 2.9830
 0.3820	 3.0090
 0.3830	 3.0080
 0.3840	 2.9660
 0.3850	 2.9770
 0.3860	 2.9920
 0.3870	 2.9370
 0.3880	 2.9070
 0.3890	 2.9340
 0.3900	 2.9870
 0.3910	 2.9680
 0.3920	 2.9460
 0.3930	 2.9460
 0.3940	 2.9680
 0.3950	 2.9800
 0.3960	 2.9820
 0.3970	 2.9690
 0.3980	 2.9380
 0.3990	 2.9160
 0.4000	 2.9250
 0.4010	 2.9540
 0.4020	 2.9470
 0.4030	 2.9360
 0.4040	 2.9240
 0.4050	 2.9120
 0.4060	 2.9200
 0.4070	 2.9270
 0.4080	 2.9230
 0.4090	 2.9100
 0.4100	 2.9230
 0.4110	 2.9370
 0.4120	 2.9380
 0.4130	 2.9400
 0.4140	 2.9350
 0.4150	 2.9340
 0.4160	 2.9470
 0.4170	 2.9510
 0.4180	 2.9550
 0.4190	 2.9670
 0.4200	 2.9960
 0.4210	 3.0030
 0.4220	 3.0020
 0.4230	 3.0090
 0.4240	 3.0230
 0.4250	 3.0440
 0.4260	 3.0660
 0.4270	 3.0800
 0.4280	 3.0940
 0.4290	 3.1120
 0.4300	 3.1320
 0.4310	 3.1430
 0.4320	 3.1520
 0.4330	 3.1660
 0.4340	 3.1840
 0.4350	 3.1930
 0.4360	 3.2010
 0.4370	 3.2110
 0.4380	 3.2170
 0.4390	 3.2360
 0.4400	 3.2620
 0.4410	 3.2840
 0.4420	 3.2860
 0.4430	 3.2870
 0.4440	 3.3000
 0.4450	 3.3270
 0.4460	 3.3420
 0.4470	 3.3480
 0.4480	 3.3510
 0.4490	 3.3560
 0.4500	 3.3750
 0.4510	 3.3910
 0.4520	 3.3920
 0.4530	 3.3980
 0.4540	 3.4080
 0.4550	 3.4200
 0.4560	 3.4300
 0.4570	 3.4300
 0.4580	 3.4320
 0.4590	 3.4420
 0.4600	 3.4460
 0.4610	 3.4560
 0.4620	 3.4660
 0.4630	 3.4710
 0.4640	 3.4670
 0.4650	 3.4620
 0.4660	 3.4620
 0.4670	 3.4660
 0.4680	 3.4760
 0.4690	 3.4790
 0.4700	 3.4720
 0.4710	 3.4740
 0.4720	 3.4810
 0.4730	 3.4860
 0.4740	 3.4810
 0.4750	 3.4820
 0.4760	 3.4830
 0.4770	 3.4830
 0.4780	 3.4860
 0.4790	 3.4900
 0.4800	 3.4960
 0.4810	 3.5020
 0.4820	 3.4980
 0.4830	 3.4980
 0.4840	 3.5030
 0.4850	 3.5020
 0.4860	 3.5140
 0.4870	 3.5260
 0.4880	 3.5280
 0.4890	 3.5390
 0.4900	 3.5500
 0.4910	 3.5620
 0.4920	 3.5760
 0.4930	 3.5910
 0.4940	 3.6030
 0.4950	 3.6130
 0.4960	 3.6340
 0.4970	 3.6560
 0.4980	 3.6800
 0.4990	 3.7040
 0.5000	 3.7290
 0.5010	 3.7590
 0.5020	 3.7920
 0.5030	 3.8280
 0.5040	 3.8750
 0.5050	 3.9270
 0.5060	 3.9780
 0.5070	 4.0370
 0.5080	 4.1020
 0.5090	 4.1740
 0.5100	 4.2540
 0.5110	 4.3450
 0.5120	 4.4460
 0.5130	 4.5580
 0.5140	 4.6730
 0.5150	 4.7970
 0.5160	 4.9320
 0.5170	 5.0790
 0.5180	 5.2290
 0.5190	 5.3890
 0.5200	 5.5610
 0.5210	 5.7400
 0.5220	 5.9140
 0.5230	 6.0920
 0.5240	 6.2780
 0.5250	 6.4570
 0.5260	 6.6290
 0.5270	 6.7950
 0.5280	 6.9600
 0.5290	 7.1150
 0.5300	 7.2560
 0.5310	 7.3870
 0.5320	 7.5130
 0.5330	 7.6250
 0.5340	 7.7250
 0.5350	 7.8190
 0.5360	 7.9020
 0.5370	 7.9740
 0.5380	 8.0400
 0.5390	 8.1060
 0.5400	 8.1670
 0.5410	 8.2260
 0.5420	 8.2840
 0.5430	 8.3360
 0.5440	 8.3770
 0.5450	 8.4100
 0.5460	 8.4390
 0.5470	 8.4610
 0.5480	 8.4790
 0.5490	 8.4960
 0.5500	 8.5150
 0.5510	 8.5270
 0.5520	 8.5310
 0.5530	 8.5240
 0.5540	 8.5000
 0.5550	 8.4680
 0.5560	 8.4270
 0.5570	 8.3740
 0.5580	 8.3100
 0.5590	 8.2390
 0.5600	 8.1630
 0.5610	 8.0870
 0.5620	 8.0040
 0.5630	 7.9150
 0.5640	 7.8230
 0.5650	 7.7240
 0.5660	 7.6210
 0.5670	 7.5130
 0.5680	 7.4010
 0.5690	 7.2830
 0.5700	 7.1630
 0.5710	 7.0440
 0.5720	 6.9280
 0.5730	 6.8190
 0.5740	 6.7180
 0.5750	 6.6190
 0.5760	 6.5260
 0.5770	 6.4400
 0.5780	 6.3600
 0.5790	 6.2870
 0.5800	 6.2190
 0.5810	 6.1570
 0.5820	 6.0960
 0.5830	 6.0410
 0.5840	 5.9870
 0.5850	 5.9340
 0.5860	 5.8870
 0.5870	 5.8470
 0.5880	 5.8090
 0.5890	 5.7710
 0.5900	 5.7340
 0.5910	 5.7030
 0.5920	 5.6780
 0.5930	 5.6570
 0.5940	 5.6320
 0.5950	 5.6130
 0.5960	 5.6000
 0.5970	 5.5810
 0.5980	 5.5670
 0.5990	 5.5540
 0.6000	 5.5370
 0.6010	 5.5150
 0.6020	 5.4900
 0.6030	 5.4630
 0.6040	 5.4320
 0.6050	 5.3970
 0.6060	 5.3570
 0.6070	 5.3130
 0.6080	 5.2680
 0.6090	 5.2230
 0.6100	 5.1790
 0.6110	 5.1400
 0.6120	 5.0910
 0.6130	 5.0360
 0.6140	 4.9800
 0.6150	 4.9290
 0.6160	 4.8810
 0.6170	 4.8380
 0.6180	 4.7990
 0.6190	 4.7650
 0.6200	 4.7320
 0.6210	 4.7020
 0.6220	 4.6780
 0.6230	 4.6590
 0.6240	 4.6430
 0.6250	 4.6280
 0.6260	 4.6140
 0.6270	 4.6030
 0.6280	 4.5940
 0.6290	 4.5880
 0.6300	 4.5840
 0.6310	 4.5780
 0.6320	 4.5670
 0.6330	 4.5540
 0.6340	 4.5400
 0.6350	 4.5210
 0.6360	 4.4950
 0.6370	 4.4660
 0.6380	 4.4330
 0.6390	 4.3960
 0.6400	 4.3550
 0.6410	 4.3170
 0.6420	 4.2770
 0.6430	 4.2340
 0.6440	 4.1920
 0.6450	 4.1510
 0.6460	 4.1120
 0.6470	 4.0760
 0.6480	 4.0450
 0.6490	 4.0170
 0.6500	 3.9910
 0.6510	 3.9720
 0.6520	 3.9560
 0.6530	 3.9410
 0.6540	 3.9240
 0.6550	 3.9100
 0.6560	 3.8930
 0.6570	 3.8730
 0.6580	 3.8500
 0.6590	 3.8240
 0.6600	 3.7990
 0.6610	 3.7760
 0.6620	 3.7520
 0.6630	 3.7290
 0.6640	 3.7090
 0.6650	 3.6930
 0.6660	 3.6810
 0.6670	 3.6720
 0.6680	 3.6650
 0.6690	 3.6600
 0.6700	 3.6620
 0.6710	 3.6680
 0.6720	 3.6760
 0.6730	 3.6900
 0.6740	 3.7010
 0.6750	 3.7160
 0.6760	 3.7390
 0.6770	 3.7590
 0.6780	 3.7830
 0.6790	 3.8130
 0.6800	 3.8460
 0.6810	 3.8780
 0.6820	 3.9140
 0.6830	 3.9570
 0.6840	 4.0040
 0.6850	 4.0550
 0.6860	 4.1140
 0.6870	 4.1840
 0.6880	 4.2710
 0.6890	 4.3800
 0.6900	 4.5170
 0.6910	 4.6870
 0.6920	 4.9010
 0.6930	 5.1630
 0.6940	 5.4770
 0.6950	 5.8520
 0.6960	 6.2830
 0.6970	 6.7700
 0.6980	 7.3110
 0.6990	 7.8940
 0.7000	 8.5210
 0.7010	 9.1870
 0.7020	 9.8750
 0.7030	10.5810
 0.7040	11.3010
 0.7050	12.0330
 0.7060	12.7690
 0.7070	13.5070
 0.7080	14.2460
 0.7090	14.9870
 0.7100	15.7330
 0.7110	16.4780
 0.7120	17.2230
 0.7130	17.9670
 0.7140	18.7120
 0.7150	19.4540
 0.7160	20.1890
 0.7170	20.9210
 0.7180	21.6450
 0.7190	22.3590
 0.7200	23.0630
 0.7210	23.7500
 0.7220	24.4230
 0.7230	25.0800
 0.7240	25.7160
 0.7250	26.3290
 0.7260	26.9200
 0.7270	27.4890
 0.7280	28.0320
 0.7290	28.5520
 0.7300	29.0480
 0.7310	29.5160
 0.7320	29.9590
 0.7330	30.3780
 0.7340	30.7750
 0.7350	31.1450
 0.7360	31.4910
 0.7370	31.8140
 0.7380	32.1170
 0.7390	32.3980
 0.7400	32.6610
 0.7410	32.9040
 0.7420	33.1240
 0.7430	33.3290
 0.7440	33.5170
 0.7450	33.6870
 0.7460	33.8430
 0.7470	33.9850
 0.7480	34.1130
 0.7490	34.2280
 0.7500	34.3340
 0.7510	34.4300
 0.7520	34.5140
 0.7530	34.5890
 0.7540	34.6580
 0.7550	34.7210
 0.7560	34.7770
 0.7570	34.8290
 0.7580	34.8760
 0.7590	34.9170
 0.7600	34.9550
 0.7610	34.9880
 0.7620	35.0160
 0.7630	35.0410
 0.7640	35.0660
 0.7650	35.0880
 0.7660	35.1050
 0.7670	35.1210
 0.7680	35.1350
 0.7690	35.1500
 0.7700	35.1630
 0.7710	35.1720
 0.7720	35.1790
 0.7730	35.1890
 0.7740	35.2000
 0.7750	35.2090
 0.7760	35.2180
 0.7770	35.2260
 0.7780	35.2330
 0.7790	35.2410
 0.7800	35.2490
 0.7810	35.2570
 0.7820	35.2620
 0.7830	35.2650
 0.7840	35.2700
 0.7850	35.2760
 0.7860	35.2830
 0.7870	35.2870
 0.7880	35.2910
 0.7890	35.2950
 0.7900	35.2990
 0.7910	35.3040
 0.7920	35.3080
 0.7930	35.3080
 0.7940	35.3080
 0.7950	35.3080
 0.7960	35.3090
 0.7970	35.3080
 0.7980	35.3070
 0.7990	35.3030
 0.8000	35.3020
 0.8010	35.3040
 0.8020	35.3010
 0.8030	35.2970
 0.8040	35.2930
 0.8050	35.2880
 0.8060	35.2850
 0.8070	35.2810
 0.8080	35.2760
 0.8090	35.2710
 0.8100	35.2640
 0.8110	35.2600
 0.8120	35.2560
 0.8130	35.2450
 0.8140	35.2380
 0.8150	35.2330
 0.8160	35.2250
 0.8170	35.2190
 0.8180	35.2120
 0.8190	35.2050
 0.8200	35.1990
 0.8210	35.1920
 0.8220	35.1830
 0.8230	35.1750
 0.8240	35.1710
 0.8250	35.1650
 0.8260	35.1570
 0.8270	35.1490
 0.8280	35.1430
 0.8290	35.1380
 0.8300	35.1330
 0.8310	35.1250
 0.8320	35.1170
 0.8330	35.1120
 0.8340	35.1100
 0.8350	35.1070
 0.8360	35.1010
 0.8370	35.0950
 0.8380	35.0920
 0.8390	35.0920
 0.8400	35.0900
 0.8410	35.0870
 0.8420	35.0850
 0.8430	35.0810
 0.8440	35.0830
 0.8450	35.0830
 0.8460	35.0800
 0.8470	35.0830
 0.8480	35.0820
 0.8490	35.0830
 0.8500	35.0880
 0.8510	35.0840
 0.8520	35.0830
 0.8530	35.0860
 0.8540	35.0860
 0.8550	35.0880
 0.8560	35.0930
 0.8570	35.0980
 0.8580	35.0970
 0.8590	35.1000
 0.8600	35.1050
 0.8610	35.1070
 0.8620	35.1100
 0.8630	35.1140
 0.8640	35.1180
 0.8650	35.1210
 0.8660	35.1240
 0.8670	35.1280
 0.8680	35.1300
 0.8690	35.1320
 0.8700	35.1390
 0.8710	35.1460
 0.8720	35.1510
 0.8730	35.1570
 0.8740	35.1640
 0.8750	35.1680
 0.8760	35.1730
 0.8770	35.1810
 0.8780	35.1900
 0.8790	35.1940
 0.8800	35.1970
 0.8810	35.2110
 0.8820	35.2200
 0.8830	35.2260
 0.8840	35.2310
 0.8850	35.2370
 0.8860	35.2380
 0.8870	35.2420
 0.8880	35.2540
 0.8890	35.2610
 0.8900	35.2650
 0.8910	35.2690
 0.8920	35.2750
 0.8930	35.2830
 0.8940	35.2910
 0.8950	35.2940
 0.8960	35.2940
 0.8970	35.3020
 0.8980	35.3090
 0.8990	35.3130
 0.9000	35.3190
 0.9010	35.3250
 0.9020	35.3300
 0.9030	35.3350
 0.9040	35.3430
 0.9050	35.3450
 0.9060	35.3460
 0.9070	35.3500
 0.9080	35.3530
 0.9090	35.3630
 0.9100	35.3700
 0.9110	35.3660
 0.9120	35.3630
 0.9130	35.3700
 0.9140	35.3810
 0.9150	35.3810
 0.9160	35.3730
 0.9170	35.3810
 0.9180	35.3940
 0.9190	35.3900
 0.9200	35.3860
 0.9210	35.3870
 0.9220	35.3900
 0.9230	35.3920
 0.9240	35.3910
 0.9250	35.3870
 0.9260	35.3840
 0.9270	35.3860
 0.9280	35.3860
 0.9290	35.3770
 0.9300	35.3660
 0.9310	35.3650
 0.9320	35.3570
 0.9330	35.3490
 0.9340	35.3440
 0.9350	35.3390
 0.9360	35.3320
 0.9370	35.3260
 0.9380	35.3200
 0.9390	35.3090
 0.9400	35.3000
 0.9410	35.2910
 0.9420	35.2780
 0.9430	35.2630
 0.9440	35.2490
 0.9450	35.2320
 0.9460	35.2140
 0.9470	35.2050
 0.9480	35.1860
 0.9490	35.1600
 0.9500	35.1330
 0.9510	35.1140
 0.9520	35.0910
 0.9530	35.0660
 0.9540	35.0410
 0.9550	35.0140
 0.9560	34.9830
 0.9570	34.9540
 0.9580	34.9320
 0.9590	34.9100
 0.9600	34.8890
 0.9610	34.8650
 0.9620	34.8390
 0.9630	34.8240
 0.9640	34.8100
 0.9650	34.7970
 0.9660	34.7860
 0.9670	34.7730
 0.9680	34.7640
 0.9690	34.7560
 0.9700	34.7460
 0.9710	34.7340
 0.9720	34.7220
 0.9730	34.7130
 0.9740	34.7070
 0.9750	34.6870
 0.9760	34.6840
 0.9770	34.6900
 0.9780	34.6840
 0.9790	34.6770
 0.9800	34.6700
 0.9810	34.6650
 0.9820	34.6650
 0.9830	34.6610
 0.9840	34.6630
 0.9850	34.6680
 0.9860	34.6690
 0.9870	34.6680
 0.9880	34.6660
 0.9890	34.6680
 0.9900	34.6740
 0.9910	34.6710
 0.9920	34.6720
 0.9930	34.6830
 0.9940	34.7000
 0.9950	34.7100
 0.9960	34.7090
 0.9970	34.7060
 0.9980	34.7110
 0.9990	34.7220
 1.0000	34.7330
 1.0010	35.7620
 1.0020	35.7640
 1.0030	35.7690
 1.0040	35.7730
 1.0050	35.7790
 1.0060	35.7890
 1.0070	35.7980
 1.0080	35.8050
 1.0090	35.8110
 1.0100	35.8180
 1.0110	35.8230
 1.0120	35.8280
 1.0130	35.8360
 1.0140	35.8440
 1.0150	35.8500
 1.0160	35.8530
 1.0170	35.8630
 1.0180	35.8700
 1.0190	35.8750
 1.0200	35.8810
 1.0210	35.8850
 1.0220	35.8900
 1.0230	35.8970
 1.0240	35.9080
 1.0250	35.9150
 1.0260	35.9200
 1.0270	35.9270
 1.0280	35.9310
 1.0290	35.9380
 1.0300	35.9460
 1.0310	35.9530
 1.0320	35.9600
 1.0330	35.9660
 1.0340	35.9720
 1.0350	35.9780
 1.0360	35.9890
 1.0370	36.0000
 1.0380	36.0080
 1.0390	36.0150
 1.0400	36.0210
 1.0410	36.0230
 1.0420	36.0270
 1.0430	36.0320
 1.0440	36.0360
 1.0450	36.0390
 1.0460	36.0420
 1.0470	36.0440
 1.0480	36.0490
 1.0490	36.0570
 1.0500	36.0610
 1.0510	36.0660
 1.0520	36.0710
 1.0530	36.0730
 1.0540	36.0710
 1.0550	36.0720
 1.0560	36.0720
 1.0570	36.0760
 1.0580	36.0820
 1.0590	36.0860
 1.0600	36.0950
 1.0610	36.0970
 1.0620	36.0930
 1.0630	36.0930
 1.0640	36.0910
 1.0650	36.0900
 1.0660	36.0920
 1.0670	36.0920
 1.0680	36.0910
 1.0690	36.0890
 1.0700	36.0850
 1.0710	36.0800
 1.0720	36.0780
 1.0730	36.0790
 1.0740	36.0780
 1.0750	36.0800
 1.0760	36.0770
 1.0770	36.0670
 1.0780	36.0630
 1.0790	36.0600
 1.0800	36.0570
 1.0810	36.0590
 1.0820	36.0570
 1.0830	36.0510
 1.0840	36.0470
 1.0850	36.0410
 1.0860	36.0370
 1.0870	36.0330
 1.0880	36.0310
 1.0890	36.0280
 1.0900	36.0260
 1.0910	36.0210
 1.0920	36.0170
 1.0930	36.0120
 1.0940	36.0060
 1.0950	36.0000
 1.0960	35.9940
 1.0970	35.9890
 1.0980	35.9840
 1.0990	35.9780
 1.1000	35.9730
 1.1010	35.9670
 1.1020	35.9590
 1.1030	35.9530
 1.1040	35.9460
 1.1050	35.9400
 1.1060	35.9340
 1.1070	35.9280
 1.1080	35.9220
 1.1090	35.9160
 1.1100	35.9080
 1.1110	35.8990
 1.1120	35.8910
 1.1130	35.8830
 1.1140	35.8730
 1.1150	35.8650
 1.1160	35.8530
 1.1170	35.8390
 1.1180	35.8240
 1.1190	35.8100
 1.1200	35.7930
 1.1210	35.7770
 1.1220	35.7600
 1.1230	35.7420
 1.1240	35.7210
 1.1250	35.6970
 1.1260	35.6710
 1.1270	35.6420
 1.1280	35.6090
 1.1290	35.5740
 1.1300	35.5370
 1.1310	35.4970
 1.1320	35.4530
 1.1330	35.4080
 1.1340	35.3590
 1.1350	35.3080
 1.1360	35.2530
 1.1370	35.1980
 1.1380	35.1400
 1.1390	35.0800
 1.1400	35.0210
 1.1410	34.9600
 1.1420	34.8970
 1.1430	34.8360
 1.1440	34.7760
 1.1450	34.7160
 1.1460	34.6560
 1.1470	34.5980
 1.1480	34.5400
 1.1490	34.4810
 1.1500	34.4260
 1.1510	34.3730
 1.1520	34.3230
 1.1530	34.2750
 1.1540	34.2300
 1.1550	34.1870
 1.1560	34.1470
 1.1570	34.1080
 1.1580	34.0720
 1.1590	34.0390
 1.1600	34.0080
 1.1610	33.9820
 1.1620	33.9560
 1.1630	33.9290
 1.1640	33.9040
 1.1650	33.8810
 1.1660	33.8580
 1.1670	33.8380
 1.1680	33.8210
 1.1690	33.8030
 1.1700	33.7880
 1.1710	33.7710
 1.1720	33.7560
 1.1730	33.7400
 1.1740	33.7240
 1.1750	33.7080
 1.1760	33.6950
 1.1770	33.6810
 1.1780	33.6670
 1.1790	33.6540
 1.1800	33.6380
 1.1810	33.6220
 1.1820	33.6070
 1.1830	33.5920
 1.1840	33.5760
 1.1850	33.5610
 1.1860	33.5470
 1.1870	33.5330
 1.1880	33.5200
 1.1890	33.5110
 1.1900	33.5000
 1.1910	33.4890
 1.1920	33.4800
 1.1930	33.4700
 1.1940	33.4620
 1.1950	33.4550
 1.1960	33.4490
 1.1970	33.4440
 1.1980	33.4390
 1.1990	33.4350
 1.2000	33.4340
 1.2010	33.4330
 1.2020	33.4350
 1.2030	33.4390
 1.2040	33.4430
 1.2050	33.4490
 1.2060	33.4560
 1.2070	33.4640
 1.2080	33.4730
 1.2090	33.4840
 1.2100	33.4980
 1.2110	33.5110
 1.2120	33.5240
 1.2130	33.5390
 1.2140	33.5540
 1.2150	33.5710
 1.2160	33.5890
 1.2170	33.6070
 1.2180	33.6260
 1.2190	33.6450
 1.2200	33.6620
 1.2210	33.6800
 1.2220	33.6980
 1.2230	33.7170
 1.2240	33.7350
 1.2250	33.7520
 1.2260	33.7690
 1.2270	33.7840
 1.2280	33.7970
 1.2290	33.8130
 1.2300	33.8280
 1.2310	33.8420
 1.2320	33.8580
 1.2330	33.8710
 1.2340	33.8830
 1.2350	33.8930
 1.2360	33.9040
 1.2370	33.9140
 1.2380	33.9230
 1.2390	33.9330
 1.2400	33.9440
 1.2410	33.9520
 1.2420	33.9610
 1.2430	33.9700
 1.2440	33.9780
 1.2450	33.9870
 1.2460	33.9970
 1.2470	34.0050
 1.2480	34.0110
 1.2490	34.0160
 1.2500	34.0200
 1.2510	34.0230
 1.2520	34.0290
 1.2530	34.0340
 1.2540	34.0370
 1.2550	34.0400
 1.2560	34.0420
 1.2570	34.0440
 1.2580	34.0450
 1.2590	34.0470
 1.2600	34.0500
 1.2610	34.0500
 1.2620	34.0500
 1.2630	34.0530
 1.2640	34.0540
 1.2650	34.0530
 1.2660	34.0520
 1.2670	34.0490
 1.2680	34.0440
 1.2690	34.0420
 1.2700	34.0410
 1.2710	34.0390
 1.2720	34.0370
 1.2730	34.0330
 1.2740	34.0290
 1.2750	34.0240
 1.2760	34.0200
 1.2770	34.0150
 1.2780	34.0090
 1.2790	34.0020
 1.2800	33.9950
 1.2810	33.9850
 1.2820	33.9750
 1.2830	33.9650
 1.2840	33.9530
 1.2850	33.9400
 1.2860	33.9260
 1.2870	33.9110
 1.2880	33.8950
 1.2890	33.8770
 1.2900	33.8600
 1.2910	33.8410
 1.2920	33.8210
 1.2930	33.8000
 1.2940	33.7770
 1.2950	33.7530
 1.2960	33.7280
 1.2970	33.7020
 1.2980	33.6760
 1.2990	33.6460
 1.3000	33.6160
 1.3010	33.5850
 1.3020	33.5530
 1.3030	33.5200
 1.3040	33.4860
 1.3050	33.4500
 1.3060	33.4130
 1.3070	33.3750
 1.3080	33.3370
 1.3090	33.2980
 1.3100	33.2560
 1.3110	33.2140
 1.3120	33.1710
 1.3130	33.1250
 1.3140	33.0790
 1.3150	33.0340
 1.3160	32.9860
 1.3170	32.9360
 1.3180	32.8870
 1.3190	32.8370
 1.3200	32.7840
 1.3210	32.7280
 1.3220	32.6710
 1.3230	32.6110
 1.3240	32.5520
 1.3250	32.4930
 1.3260	32.4330
 1.3270	32.3700
 1.3280	32.3060
 1.3290	32.2380
 1.3300	32.1710
 1.3310	32.1030
 1.3320	32.0320
 1.3330	31.9640
 1.3340	31.8930
 1.3350	31.8210
 1.3360	31.7520
 1.3370	31.6800
 1.3380	31.6070
 1.3390	31.5340
 1.3400	31.4610
 1.3410	31.3880
 1.3420	31.3170
 1.3430	31.2460
 1.3440	31.1760
 1.3450	31.1050
 1.3460	31.0350
 1.3470	30.9670
 1.3480	30.9000
 1.3490	30.8320
 1.3500	30.7660
 1.3510	30.6970
 1.3520	30.6270
 1.3530	30.5580
 1.3540	30.4880
 1.3550	30.4200
 1.3560	30.3510
 1.3570	30.2830
 1.3580	30.2140
 1.3590	30.1430
 1.3600	30.0710
 1.3610	29.9970
 1.3620	29.9210
 1.3630	29.8440
 1.3640	29.7630
 1.3650	29.6780
 1.3660	29.5890
 1.3670	29.4960
 1.3680	29.3950
 1.3690	29.2890
 1.3700	29.1760
 1.3710	29.0540
 1.3720	28.9250
 1.3730	28.7840
 1.3740	28.6320
 1.3750	28.4700
 1.3760	28.2940
 1.3770	28.1050
 1.3780	27.8970
 1.3790	27.6750
 1.3800	27.4370
 1.3810	27.1810
 1.3820	26.9110
 1.3830	26.6280
 1.3840	26.3290
 1.3850	26.0150
 1.3860	25.6860
 1.3870	25.3400
 1.3880	24.9860
 1.3890	24.6180
 1.3900	24.2400
 1.3910	23.8570
 1.3920	23.4650
 1.3930	23.0640
 1.3940	22.6610
 1.3950	22.2500
 1.3960	21.8400
 1.3970	21.4340
 1.3980	21.0310
 1.3990	20.6360
 1.4000	20.2480
 1.4010	19.8650
 1.4020	19.4940
 1.4030	19.1300
 1.4040	18.7780
 1.4050	18.4400
 1.4060	18.1140
 1.4070	17.8040
 1.4080	17.5080
 1.4090	17.2250
 1.4100	16.9580
 1.4110	16.7050
 1.4120	16.4660
 1.4130	16.2430
 1.4140	16.0320
 1.4150	15.8370
 1.4160	15.6530
 1.4170	15.4800
 1.4180	15.3210
 1.4190	15.1700
 1.4200	15.0290
 1.4210	14.8990
 1.4220	14.7790
 1.4230	14.6680
 1.4240	14.5660
 1.4250	14.4700
 1.4260	14.3820
 1.4270	14.3010
 1.4280	14.2280
 1.4290	14.1590
 1.4300	14.0980
 1.4310	14.0410
 1.4320	13.9910
 1.4330	13.9440
 1.4340	13.9040
 1.4350	13.8680
 1.4360	13.8360
 1.4370	13.8090
 1.4380	13.7870
 1.4390	13.7670
 1.4400	13.7510
 1.4410	13.7380
 1.4420	13.7280
 1.4430	13.7210
 1.4440	13.7160
 1.4450	13.7140
 1.4460	13.7140
 1.4470	13.7160
 1.4480	13.7210
 1.4490	13.7260
 1.4500	13.7330
 1.4510	13.7420
 1.4520	13.7510
 1.4530	13.7630
 1.4540	13.7760
 1.4550	13.7920
 1.4560	13.8100
 1.4570	13.8290
 1.4580	13.8500
 1.4590	13.8750
 1.4600	13.9020
 1.4610	13.9330
 1.4620	13.9680
 1.4630	14.0060
 1.4640	14.0480
 1.4650	14.0930
 1.4660	14.1420
 1.4670	14.1940
 1.4680	14.2520
 1.4690	14.3130
 1.4700	14.3780
 1.4710	14.4470
 1.4720	14.5180
 1.4730	14.5920
 1.4740	14.6700
 1.4750	14.7520
 1.4760	14.8360
 1.4770	14.9220
 1.4780	15.0100
 1.4790	15.0990
 1.4800	15.1880
 1.4810	15.2790
 1.4820	15.3710
 1.4830	15.4650
 1.4840	15.5610
 1.4850	15.6560
 1.4860	15.7520
 1.4870	15.8500
 1.4880	15.9470
 1.4890	16.0450
 1.4900	16.1430
 1.4910	16.2420
 1.4920	16.3420
 1.4930	16.4450
 1.4940	16.5450
 1.4950	16.6460
 1.4960	16.7460
 1.4970	16.8450
 1.4980	16.9460
 1.4990	17.0480
 1.5000	17.1490
 1.5010	17.2490
 1.5020	17.3500
 1.5030	17.4500
 1.5040	17.5500
 1.5050	17.6500
 1.5060	17.7500
 1.5070	17.8500
 1.5080	17.9480
 1.5090	18.0450
 1.5100	18.1410
 1.5110	18.2370
 1.5120	18.3340
 1.5130	18.4300
 1.5140	18.5250
 1.5150	18.6200
 1.5160	18.7130
 1.5170	18.8070
 1.5180	18.8990
 1.5190	18.9910
 1.5200	19.0820
 1.5210	19.1710
 1.5220	19.2600
 1.5230	19.3480
 1.5240	19.4360
 1.5250	19.5240
 1.5260	19.6100
 1.5270	19.6950
 1.5280	19.7790
 1.5290	19.8600
 1.5300	19.9430
 1.5310	20.0250
 1.5320	20.1060
 1.5330	20.1880
 1.5340	20.2670
 1.5350	20.3450
 1.5360	20.4230
 1.5370	20.4990
 1.5380	20.5750
 1.5390	20.6500
 1.5400	20.7240
 1.5410	20.7980
 1.5420	20.8710
 1.5430	20.9430
 1.5440	21.0160
 1.5450	21.0840
 1.5460	21.1530
 1.5470	21.2220
 1.5480	21.2900
 1.5490	21.3590
 1.5500	21.4290
 1.5510	21.4960
 1.5520	21.5630
 1.5530	21.6270
 1.5540	21.6900
 1.5550	21.7520
 1.5560	21.8140
 1.5570	21.8760
 1.5580	21.9380
 1.5590	21.9990
 1.5600	22.0590
 1.5610	22.1170
 1.5620	22.1740
 1.5630	22.2320
 1.5640	22.2880
 1.5650	22.3440
 1.5660	22.4000
 1.5670	22.4550
 1.5680	22.5100
 1.5690	22.5640
 1.5700	22.6180
 1.5710	22.6720
 1.5720	22.7250
 1.5730	22.7770
 1.5740	22.8280
 1.5750	22.8790
 1.5760	22.9300
 1.5770	22.9800
 1.5780	23.0310
 1.5790	23.0830
 1.5800	23.1340
 1.5810	23.1830
 1.5820	23.2330
 1.5830	23.2800
 1.5840	23.3270
 1.5850	23.3750
 1.5860	23.4230
 1.5870	23.4700
 1.5880	23.5180
 1.5890	23.5660
 1.5900	23.6110
 1.5910	23.6570
 1.5920	23.7020
 1.5930	23.7460
 1.5940	23.7900
 1.5950	23.8350
 1.5960	23.8790
 1.5970	23.9230
 1.5980	23.9660
 1.5990	24.0080
 1.6000	24.0490
 1.6010	24.0920
 1.6020	24.1340
 1.6030	24.1760
 1.6040	24.2170
 1.6050	24.2560
 1.6060	24.2960
 1.6070	24.3360
 1.6080	24.3740
 1.6090	24.4120
 1.6100	24.4470
 1.6110	24.4820
 1.6120	24.5170
 1.6130	24.5520
 1.6140	24.5870
 1.6150	24.6190
 1.6160	24.6520
 1.6170	24.6810
 1.6180	24.7100
 1.6190	24.7400
 1.6200	24.7680
 1.6210	24.7950
 1.6220	24.8220
 1.6230	24.8480
 1.6240	24.8740
 1.6250	24.8990
 1.6260	24.9220
 1.6270	24.9440
 1.6280	24.9660
 1.6290	24.9870
 1.6300	25.0100
 1.6310	25.0310
 1.6320	25.0500
 1.6330	25.0700
 1.6340	25.0880
 1.6350	25.1080
 1.6360	25.1300
 1.6370	25.1490
 1.6380	25.1680
 1.6390	25.1850
 1.6400	25.1990
 1.6410	25.2130
 1.6420	25.2240
 1.6430	25.2340
 1.6440	25.2420
 1.6450	25.2480
 1.6460	25.2520
 1.6470	25.2560
 1.6480	25.2580
 1.6490	25.2560
 1.6500	25.2520
 1.6510	25.2440
 1.6520	25.2330
 1.6530	25.2220
 1.6540	25.2080
 1.6550	25.1910
 1.6560	25.1710
 1.6570	25.1460
 1.6580	25.1190
 1.6590	25.0900
 1.6600	25.0560
 1.6610	25.0200
 1.6620	24.9810
 1.6630	24.9410
 1.6640	24.8990
 1.6650	24.8570
 1.6660	24.8140
 1.6670	24.7690
 1.6680	24.7250
 1.6690	24.6820
 1.6700	24.6420
 1.6710	24.6030
 1.6720	24.5670
 1.6730	24.5360
 1.6740	24.5060
 1.6750	24.4790
 1.6760	24.4560
 1.6770	24.4340
 1.6780	24.4150
 1.6790	24.3990
 1.6800	24.3830
 1.6810	24.3680
 1.6820	24.3540
 1.6830	24.3380
 1.6840	24.3210
 1.6850	24.3020
 1.6860	24.2830
 1.6870	24.2630
 1.6880	24.2410
 1.6890	24.2190
 1.6900	24.1940
 1.6910	24.1660
 1.6920	24.1390
 1.6930	24.1090
 1.6940	24.0800
 1.6950	24.0510
 1.6960	24.0220
 1.6970	23.9930
 1.6980	23.9630
 1.6990	23.9320
 1.7000	23.9010
 1.7010	23.8700
 1.7020	23.8350
 1.7030	23.8010
 1.7040	23.7630
 1.7050	23.7220
 1.7060	23.6800
 1.7070	23.6350
 1.7080	23.5890
 1.7090	23.5410
 1.7100	23.4930
 1.7110	23.4430
 1.7120	23.3980
 1.7130	23.3520
 1.7140	23.3080
 1.7150	23.2660
 1.7160	23.2250
 1.7170	23.1890
 1.7180	23.1570
 1.7190	23.1260
 1.7200	23.1000
 1.7210	23.0740
 1.7220	23.0490
 1.7230	23.0290
 1.7240	23.0080
 1.7250	22.9890
 1.7260	22.9750
 1.7270	22.9600
 1.7280	22.9470
 1.7290	22.9360
 1.7300	22.9240
 1.7310	22.9140
 1.7320	22.9060
 1.7330	22.8960
 1.7340	22.8870
 1.7350	22.8760
 1.7360	22.8630
 1.7370	22.8470
 1.7380	22.8300
 1.7390	22.8090
 1.7400	22.7840
 1.7410	22.7580
 1.7420	22.7300
 1.7430	22.6990
 1.7440	22.6670
 1.7450	22.6320
 1.7460	22.5950
 1.7470	22.5580
 1.7480	22.5210
 1.7490	22.4840
 1.7500	22.4480
 1.7510	22.4110
 1.7520	22.3740
 1.7530	22.3380
 1.7540	22.3030
 1.7550	22.2690
 1.7560	22.2360
 1.7570	22.2030
 1.7580	22.1700
 1.7590	22.1420
 1.7600	22.1150
 1.7610	22.0930
 1.7620	22.0690
 1.7630	22.0450
 1.7640	22.0250
 1.7650	22.0060
 1.7660	21.9870
 1.7670	21.9690
 1.7680	21.9520
 1.7690	21.9340
 1.7700	21.9180
 1.7710	21.9040
 1.7720	21.8880
 1.7730	21.8720
 1.7740	21.8570
 1.7750	21.8420
 1.7760	21.8290
 1.7770	21.8180
 1.7780	21.8060
 1.7790	21.7940
 1.7800	21.7860
 1.7810	21.7780
 1.7820	21.7730
 1.7830	21.7710
 1.7840	21.7690
 1.7850	21.7680
 1.7860	21.7690
 1.7870	21.7710
 1.7880	21.7750
 1.7890	21.7800
 1.7900	21.7840
 1.7910	21.7900
 1.7920	21.7950
 1.7930	21.8020
 1.7940	21.8100
 1.7950	21.8180
 1.7960	21.8290
 1.7970	21.8370
 1.7980	21.8440
 1.7990	21.8520
 1.8000	21.8580
 1.8010	21.8680
 1.8020	21.8800
 1.8030	21.8920
 1.8040	21.9050
 1.8050	21.9160
 1.8060	21.9270
 1.8070	21.9370
 1.8080	21.9470
 1.8090	21.9560
 1.8100	21.9630
 1.8110	21.9720
 1.8120	21.9810
 1.8130	21.9940
 1.8140	22.0050
 1.8150	22.0150
 1.8160	22.0250
 1.8170	22.0310
 1.8180	22.0370
 1.8190	22.0410
 1.8200	22.0480
 1.8210	22.0580
 1.8220	22.0630
 1.8230	22.0680
 1.8240	22.0720
 1.8250	22.0730
 1.8260	22.0730
 1.8270	22.0740
 1.8280	22.0720
 1.8290	22.0650
 1.8300	22.0600
 1.8310	21.8860
 1.8320	21.8770
 1.8330	21.8660
 1.8340	21.8510
 1.8350	21.8330
 1.8360	21.8090
 1.8370	21.7840
 1.8380	21.7580
 1.8390	21.7260
 1.8400	21.6910
 1.8410	21.6550
 1.8420	21.6180
 1.8430	21.5740
 1.8440	21.5240
 1.8450	21.4700
 1.8460	21.4060
 1.8470	21.3360
 1.8480	21.2650
 1.8490	21.1890
 1.8500	21.1040
 1.8510	21.0140
 1.8520	20.9130
 1.8530	20.8010
 1.8540	20.6800
 1.8550	20.5480
 1.8560	20.4100
 1.8570	20.2650
 1.8580	20.1080
 1.8590	19.9380
 1.8600	19.7590
 1.8610	19.5670
 1.8620	19.3600
 1.8630	19.1410
 1.8640	18.9080
 1.8650	18.6600
 1.8660	18.3970
 1.8670	18.1200
 1.8680	17.8260
 1.8690	17.5150
 1.8700	17.1870
 1.8710	16.8410
 1.8720	16.4800
 1.8730	16.1080
 1.8740	15.7260
 1.8750	15.3330
 1.8760	14.9260
 1.8770	14.5120
 1.8780	14.0940
 1.8790	13.6660
 1.8800	13.2400
 1.8810	12.8130
 1.8820	12.3820
 1.8830	11.9450
 1.8840	11.5110
 1.8850	11.0770
 1.8860	10.6460
 1.8870	10.2250
 1.8880	 9.8100
 1.8890	 9.4050
 1.8900	 9.0150
 1.8910	 8.6430
 1.8920	 8.2840
 1.8930	 7.9440
 1.8940	 7.6230
 1.8950	 7.3190
 1.8960	 7.0320
 1.8970	 6.7650
 1.8980	 6.5190
 1.8990	 6.2900
 1.9000	 6.0800
 1.9010	 5.8920
 1.9020	 5.7160
 1.9030	 5.5570
 1.9040	 5.4140
 1.9050	 5.2850
 1.9060	 5.1660
 1.9070	 5.0610
 1.9080	 4.9690
 1.9090	 4.8850
 1.9100	 4.8120
 1.9110	 4.7450
 1.9120	 4.6890
 1.9130	 4.6360
 1.9140	 4.5900
 1.9150	 4.5470
 1.9160	 4.5100
 1.9170	 4.4790
 1.9180	 4.4500
 1.9190	 4.4260
 1.9200	 4.4070
 1.9210	 4.3860
 1.9220	 4.3690
 1.9230	 4.3550
 1.9240	 4.3440
 1.9250	 4.3360
 1.9260	 4.3300
 1.9270	 4.3250
 1.9280	 4.3220
 1.9290	 4.3180
 1.9300	 4.3210
 1.9310	 4.3310
 1.9320	 4.3400
 1.9330	 4.3500
 1.9340	 4.3650
 1.9350	 4.3760
 1.9360	 4.3820
 1.9370	 4.3940
 1.9380	 4.4080
 1.9390	 4.4230
 1.9400	 4.4430
 1.9410	 4.4660
 1.9420	 4.4880
 1.9430	 4.5110
 1.9440	 4.5350
 1.9450	 4.5610
 1.9460	 4.5870
 1.9470	 4.6150
 1.9480	 4.6430
 1.9490	 4.6710
 1.9500	 4.7020
 1.9510	 4.7330
 1.9520	 4.7650
 1.9530	 4.8000
 1.9540	 4.8340
 1.9550	 4.8680
 1.9560	 4.9040
 1.9570	 4.9400
 1.9580	 4.9770
 1.9590	 5.0140
 1.9600	 5.0500
 1.9610	 5.0890
 1.9620	 5.1280
 1.9630	 5.1660
 1.9640	 5.2110
 1.9650	 5.2560
 1.9660	 5.2990
 1.9670	 5.3460
 1.9680	 5.3920
 1.9690	 5.4370
 1.9700	 5.4840
 1.9710	 5.5330
 1.9720	 5.5810
 1.9730	 5.6290
 1.9740	 5.6770
 1.9750	 5.7270
 1.9760	 5.7770
 1.9770	 5.8290
 1.9780	 5.8840
 1.9790	 5.9390
 1.9800	 5.9950
 1.9810	 6.0540
 1.9820	 6.1160
 1.9830	 6.1750
 1.9840	 6.2330
 1.9850	 6.2920
 1.9860	 6.3490
 1.9870	 6.4050
 1.9880	 6.4640
 1.9890	 6.5230
 1.9900	 6.5820
 1.9910	 6.6440
 1.9920	 6.7050
 1.9930	 6.7660
 1.9940	 6.8270
 1.9950	 6.8870
 1.9960	 6.9480
 1.9970	 7.0090
 1.9980	 7.0700
 1.9990	 7.1290
 2.0000	 7.1930
 2.0010	 7.2570
 2.0020	 7.3180
 2.0030	 7.3790
 2.0040	 7.4390
 2.0050	 7.5010
 2.0060	 7.5610
 2.0070	 7.6230
 2.0080	 7.6860
 2.0090	 7.7490
 2.0100	 7.8110
 2.0110	 7.8720
 2.0120	 7.9310
 2.0130	 7.9910
 2.0140	 8.0450
 2.0150	 8.0990
 2.0160	 8.1560
 2.0170	 8.2100
 2.0180	 8.2660
 2.0190	 8.3220
 2.0200	 8.3780
 2.0210	 8.4340
 2.0220	 8.4880
 2.0230	 8.5420
 2.0240	 8.5940
 2.0250	 8.6420
 2.0260	 8.6910
 2.0270	 8.7410
 2.0280	 8.7900
 2.0290	 8.8380
 2.0300	 8.8840
 2.0310	 8.9300
 2.0320	 8.9740
 2.0330	 9.0170
 2.0340	 9.0600
 2.0350	 9.1010
 2.0360	 9.1410
 2.0370	 9.1810
 2.0380	 9.2200
 2.0390	 9.2570
 2.0400	 9.2930
 2.0410	 9.3300
 2.0420	 9.3670
 2.0430	 9.4030
 2.0440	 9.4370
 2.0450	 9.4710
 2.0460	 9.5060
 2.0470	 9.5400
 2.0480	 9.5750
 2.0490	 9.6110
 2.0500	 9.6450
 2.0510	 9.6750
 2.0520	 9.7070
 2.0530	 9.7380
 2.0540	 9.7710
 2.0550	 9.8030
 2.0560	 9.8380
 2.0570	 9.8760
 2.0580	 9.9100
 2.0590	 9.9460
 2.0600	 9.9840
 2.0610	10.0190
 2.0620	10.0530
 2.0630	10.0890
 2.0640	10.1270
 2.0650	10.1630
 2.0660	10.1990
 2.0670	10.2360
 2.0680	10.2730
 2.0690	10.3090
 2.0700	10.3480
 2.0710	10.3840
 2.0720	10.4160
 2.0730	10.4470
 2.0740	10.4810
 2.0750	10.5160
 2.0760	10.5510
 2.0770	10.5870
 2.0780	10.6230
 2.0790	10.6580
 2.0800	10.6950
 2.0810	10.7350
 2.0820	10.7710
 2.0830	10.8060
 2.0840	10.8400
 2.0850	10.8690
 2.0860	10.9010
 2.0870	10.9310
 2.0880	10.9660
 2.0890	10.9970
 2.0900	11.0280
 2.0910	11.0560
 2.0920	11.0800
 2.0930	11.1090
 2.0940	11.1380
 2.0950	11.1690
 2.0960	11.2050
 2.0970	11.2330
 2.0980	11.2570
 2.0990	11.2820
 2.1000	11.3020
 2.1010	11.3260
 2.1020	11.3520
 2.1030	11.3790
 2.1040	11.4070
 2.1050	11.4360
 2.1060	11.4630
 2.1070	11.4910
 2.1080	11.5170
 2.1090	11.5400
 2.1100	11.5640
 2.1110	11.5880
 2.1120	11.6110
 2.1130	11.6360
 2.1140	11.6580
 2.1150	11.6720
 2.1160	11.6940
 2.1170	11.7140
 2.1180	11.7390
 2.1190	11.7700
 2.1200	11.8000
 2.1210	11.8310
 2.1220	11.8610
 2.1230	11.8920
 2.1240	11.9240
 2.1250	11.9530
 2.1260	11.9830
 2.1270	12.0120
 2.1280	12.0420
 2.1290	12.0660
 2.1300	12.0890
 2.1310	12.1090
 2.1320	12.1190
 2.1330	12.1370
 2.1340	12.1570
 2.1350	12.1780
 2.1360	12.2040
 2.1370	12.2270
 2.1380	12.2470
 2.1390	12.2680
 2.1400	12.2890
 2.1410	12.3120
 2.1420	12.3330
 2.1430	12.3550
 2.1440	12.3770
 2.1450	12.3990
 2.1460	12.4220
 2.1470	12.4460
 2.1480	12.4700
 2.1490	12.4930
 2.1500	12.5180
 2.1510	12.5430
 2.1520	12.5680
 2.1530	12.5930
 2.1540	12.6180
 2.1550	12.6470
 2.1560	12.6710
 2.1570	12.6940
 2.1580	12.7180
 2.1590	12.7390
 2.1600	12.7620
 2.1610	12.7900
 2.1620	12.8130
 2.1630	12.8380
 2.1640	12.8630
 2.1650	12.8890
 2.1660	12.9150
 2.1670	12.9430
 2.1680	12.9720
 2.1690	13.0010
 2.1700	13.0340
 2.1710	13.0630
 2.1720	13.0930
 2.1730	13.1200
 2.1740	13.1420
 2.1750	13.1680
 2.1760	13.1940
 2.1770	13.2190
 2.1780	13.2450
 2.1790	13.2710
 2.1800	13.2990
 2.1810	13.3250
 2.1820	13.3510
 2.1830	13.3760
 2.1840	13.4020
 2.1850	13.4260
 2.1860	13.4520
 2.1870	13.4800
 2.1880	13.5050
 2.1890	13.5270
 2.1900	13.5510
 2.1910	13.5760
 2.1920	13.6030
 2.1930	13.6340
 2.1940	13.6610
 2.1950	13.6890
 2.1960	13.7130
 2.1970	13.7320
 2.1980	13.7520
 2.1990	13.7690
 2.2000	13.7880
 2.2010	13.8090
 2.2020	13.8280
 2.2030	13.8470
 2.2040	13.8640
 2.2050	13.8790
 2.2060	13.8930
 2.2070	13.9090
 2.2080	13.9250
 2.2090	13.9370
 2.2100	13.9490
 2.2110	13.9600
 2.2120	13.9660
 2.2130	13.9760
 2.2140	13.9900
 2.2150	13.9980
 2.2160	14.0050
 2.2170	14.0090
 2.2180	14.0090
 2.2190	14.0080
 2.2200	14.0030
 2.2210	14.0000
 2.2220	13.9940
 2.2230	13.9890
 2.2240	13.9870
 2.2250	13.9810
 2.2260	13.9760
 2.2270	13.9660
 2.2280	13.9540
 2.2290	13.9360
 2.2300	13.9120
 2.2310	13.8820
 2.2320	13.8450
 2.2330	13.8080
 2.2340	13.7700
 2.2350	13.7310
 2.2360	13.6880
 2.2370	13.6470
 2.2380	13.5990
 2.2390	13.5450
 2.2400	13.4940
 2.2410	13.4420
 2.2420	13.3890
 2.2430	13.3390
 2.2440	13.2790
 2.2450	13.2090
 2.2460	13.1450
 2.2470	13.0760
 2.2480	13.0120
 2.2490	12.9540
 2.2500	12.8920
 2.2510	12.8310
 2.2520	12.7670
 2.2530	12.6980
 2.2540	12.6330
 2.2550	12.5660
 2.2560	12.5010
 2.2570	12.4390
 2.2580	12.3770
 2.2590	12.3150
 2.2600	12.2530
 2.2610	12.1930
 2.2620	12.1320
 2.2630	12.0750
 2.2640	12.0150
 2.2650	11.9510
 2.2660	11.8900
 2.2670	11.8260
 2.2680	11.7570
 2.2690	11.6900
 2.2700	11.6190
 2.2710	11.5580
 2.2720	11.5000
 2.2730	11.4450
 2.2740	11.3990
 2.2750	11.3490
 2.2760	11.2990
 2.2770	11.2480
 2.2780	11.2000
 2.2790	11.1480
 2.2800	11.0910
 2.2810	11.0370
 2.2820	10.9780
 2.2830	10.9280
 2.2840	10.8880
 2.2850	10.8380
 2.2860	10.7900
 2.2870	10.7380
 2.2880	10.6760
 2.2890	10.6180
 2.2900	10.5650
 2.2910	10.5070
 2.2920	10.4440
 2.2930	10.3870
 2.2940	10.3290
 2.2950	10.2730
 2.2960	10.2230
 2.2970	10.1720
 2.2980	10.1200
 2.2990	10.0680
 2.3000	10.0170
 2.3010	 9.9730
 2.3020	 9.9360
 2.3030	 9.9000
 2.3040	 9.8700
 2.3050	 9.8430
 2.3060	 9.8100
 2.3070	 9.7820
 2.3080	 9.7590
 2.3090	 9.7400
 2.3100	 9.7270
 2.3110	 9.7130
 2.3120	 9.7020
 2.3130	 9.6920
 2.3140	 9.6860
 2.3150	 9.6870
 2.3160	 9.6830
 2.3170	 9.6790
 2.3180	 9.6720
 2.3190	 9.6600
 2.3200	 9.6500
 2.3210	 9.6410
 2.3220	 9.6260
 2.3230	 9.6070
 2.3240	 9.5900
 2.3250	 9.5720
 2.3260	 9.5530
 2.3270	 9.5360
 2.3280	 9.5130
 2.3290	 9.4820
 2.3300	 9.4540
 2.3310	 9.4200
 2.3320	 9.3890
 2.3330	 9.3590
 2.3340	 9.3290
 2.3350	 9.3040
 2.3360	 9.2730
 2.3370	 9.2380
 2.3380	 9.2070
 2.3390	 9.1780
 2.3400	 9.1440
 2.3410	 9.1090
 2.3420	 9.0750
 2.3430	 9.0340
 2.3440	 8.9980
 2.3450	 8.9650
 2.3460	 8.9340
 2.3470	 8.9040
 2.3480	 8.8760
 2.3490	 8.8510
 2.3500	 8.8280
 2.3510	 8.8080
 2.3520	 8.7880
 2.3530	 8.7710
 2.3540	 8.7560
 2.3550	 8.7340
 2.3560	 8.7190
 2.3570	 8.7020
 2.3580	 8.6800
 2.3590	 8.6600
 2.3600	 8.6410
 2.3610	 8.6250
 2.3620	 8.6100
 2.3630	 8.5960
 2.3640	 8.5800
 2.3650	 8.5580
 2.3660	 8.5370
 2.3670	 8.5180
 2.3680	 8.4990
 2.3690	 8.4820
 2.3700	 8.4580
 2.3710	 8.4340
 2.3720	 8.4170
 2.3730	 8.4010
 2.3740	 8.3850
 2.3750	 8.3550
 2.3760	 8.3220
 2.3770	 8.2970
 2.3780	 8.2720
 2.3790	 8.2620
 2.3800	 8.2470
 2.3810	 8.2150
 2.3820	 8.1830
 2.3830	 8.1560
 2.3840	 8.1320
 2.3850	 8.1130
 2.3860	 8.0940
 2.3870	 8.0590
 2.3880	 8.0210
 2.3890	 7.9900
 2.3900	 7.9540
 2.3910	 7.9250
 2.3920	 7.8940
 2.3930	 7.8500
 2.3940	 7.8180
 2.3950	 7.7840
 2.3960	 7.7390
 2.3970	 7.7040
 2.3980	 7.6780
 2.3990	 7.6510
 2.4000	 7.6260
 2.4010	 7.5970
 2.4020	 7.5540
 2.4030	 7.5030
 2.4040	 7.4650
 2.4050	 7.4390
 2.4060	 7.4030
 2.4070	 7.3710
 2.4080	 7.3460
 2.4090	 7.3060
 2.4100	 7.2770
 2.4110	 7.2550
 2.4120	 7.2210
 2.4130	 7.1920
 2.4140	 7.1590
 2.4150	 7.1160
 2.4160	 7.0740
 2.4170	 7.0390
 2.4180	 6.9960
 2.4190	 6.9500
 2.4200	 6.9240
 2.4210	 6.8900
 2.4220	 6.8530
 2.4230	 6.8280
 2.4240	 6.7890
 2.4250	 6.7480
 2.4260	 6.7150
 2.4270	 6.6890
 2.4280	 6.6470
 2.4290	 6.6030
 2.4300	 6.5630
 2.4310	 6.5020
 2.4320	 6.4520
 2.4330	 6.4200
 2.4340	 6.3890
 2.4350	 6.3670
 2.4360	 6.3440
 2.4370	 6.3080
 2.4380	 6.2620
 2.4390	 6.2200
 2.4400	 6.1760
 2.4410	 6.1310
 2.4420	 6.0960
 2.4430	 6.0590
 2.4440	 6.0350
 2.4450	 6.0060
 2.4460	 5.9670
 2.4470	 5.9360
 2.4480	 5.9090
 2.4490	 5.8730
 2.4500	 5.8380
 2.4510	 5.8050
 2.4520	 5.7500
 2.4530	 5.7110
 2.4540	 5.6800
 2.4550	 5.6230
 2.4560	 5.5790
 2.4570	 5.5510
 2.4580	 5.5050
 2.4590	 5.4730
 2.4600	 5.4590
 2.4610	 5.4170
 2.4620	 5.3860
 2.4630	 5.3800
 2.4640	 5.3440
 2.4650	 5.3100
 2.4660	 5.2860
 2.4670	 5.2530
 2.4680	 5.2320
 2.4690	 5.2220
 2.4700	 5.2130
 2.4710	 5.2130
 2.4720	 5.1930
 2.4730	 5.1610
 2.4740	 5.1340
 2.4750	 5.0940
 2.4760	 5.0700
 2.4770	 5.0460
 2.4780	 5.0350
 2.4790	 5.0430
 2.4800	 5.0250
 2.4810	 5.0160
 2.4820	 4.9850
 2.4830	 4.9900
 2.4840	 5.0030
 2.4850	 4.9980
 2.4860	 5.0040
 2.4870	 4.9860
 2.4880	 4.9540
 2.4890	 4.9220
 2.4900	 4.8770
 2.4910	 4.8490
 2.4920	 4.8740
 2.4930	 4.8810
 2.4940	 4.8790
 2.4950	 4.8830
 2.4960	 4.8210
 2.4970	 4.7860
 2.4980	 4.7910
 2.4990	 4.7460
 2.5000	 4.6890
