Name: Bromus diandrus
Type: vegetation
Class: grass
Genus: Bromus
Species: diandrus
Sample No.: VH350
Owner: UCSB
Wavelength Range: VSWIR
Origin: 34.5143; -119.798367; WGS84
Collection Date: 3/18/2015
Description: Samples were collected as part of the HyspIRI Airborne Campaign proposal titled: HyspIRI discrimination of plant species and functional types along a strong environmental temperature gradient. The same materials were processed in the Nicolet and then measured using the ASD.
Measurement: Bidirectional reflectance
First Column: X
Second Column: Y
X Units: Wavelength (micrometer)
Y Units: Reflectance (percentage)
First X Value: 0.35
Last X Value: 2.5
Number of X Values: 2151
Additional Information: 

 0.3500	 6.4080
 0.3510	 6.2330
 0.3520	 6.2170
 0.3530	 6.2750
 0.3540	 6.2450
 0.3550	 6.0770
 0.3560	 6.1180
 0.3570	 6.1910
 0.3580	 5.9300
 0.3590	 5.7800
 0.3600	 5.8520
 0.3610	 6.0090
 0.3620	 5.8280
 0.3630	 5.8310
 0.3640	 5.9260
 0.3650	 5.9180
 0.3660	 5.8270
 0.3670	 5.8540
 0.3680	 5.9480
 0.3690	 5.9020
 0.3700	 5.8900
 0.3710	 5.8500
 0.3720	 5.7860
 0.3730	 5.8940
 0.3740	 5.8970
 0.3750	 5.8060
 0.3760	 5.7390
 0.3770	 5.8260
 0.3780	 5.8530
 0.3790	 5.8250
 0.3800	 5.9210
 0.3810	 5.8870
 0.3820	 5.9010
 0.3830	 6.0210
 0.3840	 5.8730
 0.3850	 5.8490
 0.3860	 5.9640
 0.3870	 6.0770
 0.3880	 6.0920
 0.3890	 6.1040
 0.3900	 6.1360
 0.3910	 6.1280
 0.3920	 6.2240
 0.3930	 6.3340
 0.3940	 6.3800
 0.3950	 6.4330
 0.3960	 6.5180
 0.3970	 6.6180
 0.3980	 6.6990
 0.3990	 6.7920
 0.4000	 6.9150
 0.4010	 7.0390
 0.4020	 7.0680
 0.4030	 7.2380
 0.4040	 7.4270
 0.4050	 7.5010
 0.4060	 7.6070
 0.4070	 7.7640
 0.4080	 7.9230
 0.4090	 8.0030
 0.4100	 8.1120
 0.4110	 8.2310
 0.4120	 8.3470
 0.4130	 8.4860
 0.4140	 8.6280
 0.4150	 8.7440
 0.4160	 8.8200
 0.4170	 8.9410
 0.4180	 9.0640
 0.4190	 9.1560
 0.4200	 9.2100
 0.4210	 9.2670
 0.4220	 9.3440
 0.4230	 9.4360
 0.4240	 9.5180
 0.4250	 9.5650
 0.4260	 9.5970
 0.4270	 9.6490
 0.4280	 9.7160
 0.4290	 9.7730
 0.4300	 9.8100
 0.4310	 9.8440
 0.4320	 9.8760
 0.4330	 9.9070
 0.4340	 9.9380
 0.4350	 9.9610
 0.4360	 9.9930
 0.4370	10.0320
 0.4380	10.0600
 0.4390	10.0890
 0.4400	10.1210
 0.4410	10.1540
 0.4420	10.1780
 0.4430	10.2050
 0.4440	10.2430
 0.4450	10.2930
 0.4460	10.3250
 0.4470	10.3640
 0.4480	10.4130
 0.4490	10.4430
 0.4500	10.4770
 0.4510	10.5080
 0.4520	10.5320
 0.4530	10.5800
 0.4540	10.6070
 0.4550	10.6230
 0.4560	10.6650
 0.4570	10.6980
 0.4580	10.7070
 0.4590	10.7000
 0.4600	10.7250
 0.4610	10.7340
 0.4620	10.7300
 0.4630	10.7340
 0.4640	10.7540
 0.4650	10.7630
 0.4660	10.7570
 0.4670	10.7540
 0.4680	10.7580
 0.4690	10.7630
 0.4700	10.7660
 0.4710	10.7670
 0.4720	10.7730
 0.4730	10.7770
 0.4740	10.7740
 0.4750	10.7800
 0.4760	10.7890
 0.4770	10.7960
 0.4780	10.8020
 0.4790	10.8080
 0.4800	10.8140
 0.4810	10.8190
 0.4820	10.8310
 0.4830	10.8560
 0.4840	10.8810
 0.4850	10.8810
 0.4860	10.8970
 0.4870	10.9290
 0.4880	10.9690
 0.4890	11.0060
 0.4900	11.0520
 0.4910	11.1060
 0.4920	11.1590
 0.4930	11.2290
 0.4940	11.3020
 0.4950	11.3760
 0.4960	11.4690
 0.4970	11.5730
 0.4980	11.6800
 0.4990	11.7860
 0.5000	11.9140
 0.5010	12.0560
 0.5020	12.2090
 0.5030	12.3770
 0.5040	12.5570
 0.5050	12.7460
 0.5060	12.9470
 0.5070	13.1850
 0.5080	13.4300
 0.5090	13.6860
 0.5100	13.9690
 0.5110	14.2650
 0.5120	14.5880
 0.5130	14.9370
 0.5140	15.2970
 0.5150	15.6660
 0.5160	16.0520
 0.5170	16.4600
 0.5180	16.8830
 0.5190	17.3060
 0.5200	17.7290
 0.5210	18.1610
 0.5220	18.5880
 0.5230	19.0040
 0.5240	19.4110
 0.5250	19.8090
 0.5260	20.1930
 0.5270	20.5570
 0.5280	20.8940
 0.5290	21.2060
 0.5300	21.5000
 0.5310	21.7730
 0.5320	22.0150
 0.5330	22.2380
 0.5340	22.4420
 0.5350	22.6230
 0.5360	22.7850
 0.5370	22.9280
 0.5380	23.0570
 0.5390	23.1780
 0.5400	23.2780
 0.5410	23.3650
 0.5420	23.4470
 0.5430	23.5260
 0.5440	23.6040
 0.5450	23.6810
 0.5460	23.7550
 0.5470	23.8320
 0.5480	23.9030
 0.5490	23.9590
 0.5500	23.9980
 0.5510	24.0360
 0.5520	24.0600
 0.5530	24.0620
 0.5540	24.0530
 0.5550	24.0250
 0.5560	23.9740
 0.5570	23.8990
 0.5580	23.8160
 0.5590	23.7130
 0.5600	23.5820
 0.5610	23.4390
 0.5620	23.2770
 0.5630	23.1020
 0.5640	22.9170
 0.5650	22.7210
 0.5660	22.5140
 0.5670	22.2970
 0.5680	22.0720
 0.5690	21.8300
 0.5700	21.5850
 0.5710	21.3470
 0.5720	21.1180
 0.5730	20.8950
 0.5740	20.6800
 0.5750	20.4770
 0.5760	20.2670
 0.5770	20.0690
 0.5780	19.8980
 0.5790	19.7420
 0.5800	19.5900
 0.5810	19.4370
 0.5820	19.2870
 0.5830	19.1460
 0.5840	19.0140
 0.5850	18.8930
 0.5860	18.7910
 0.5870	18.6940
 0.5880	18.6020
 0.5890	18.5120
 0.5900	18.4140
 0.5910	18.3210
 0.5920	18.2370
 0.5930	18.1600
 0.5940	18.1000
 0.5950	18.0480
 0.5960	17.9980
 0.5970	17.9470
 0.5980	17.8970
 0.5990	17.8470
 0.6000	17.7920
 0.6010	17.7360
 0.6020	17.6740
 0.6030	17.6030
 0.6040	17.5220
 0.6050	17.4390
 0.6060	17.3510
 0.6070	17.2550
 0.6080	17.1500
 0.6090	17.0360
 0.6100	16.9120
 0.6110	16.7800
 0.6120	16.6660
 0.6130	16.5550
 0.6140	16.4400
 0.6150	16.3260
 0.6160	16.2120
 0.6170	16.1040
 0.6180	16.0070
 0.6190	15.9130
 0.6200	15.8290
 0.6210	15.7570
 0.6220	15.6990
 0.6230	15.6390
 0.6240	15.5910
 0.6250	15.5610
 0.6260	15.5310
 0.6270	15.5010
 0.6280	15.4770
 0.6290	15.4660
 0.6300	15.4480
 0.6310	15.4230
 0.6320	15.3910
 0.6330	15.3530
 0.6340	15.2920
 0.6350	15.2130
 0.6360	15.1220
 0.6370	15.0050
 0.6380	14.8710
 0.6390	14.7240
 0.6400	14.5680
 0.6410	14.3910
 0.6420	14.2140
 0.6430	14.0470
 0.6440	13.8750
 0.6450	13.6990
 0.6460	13.5300
 0.6470	13.3780
 0.6480	13.2340
 0.6490	13.1040
 0.6500	12.9920
 0.6510	12.8990
 0.6520	12.8190
 0.6530	12.7480
 0.6540	12.6810
 0.6550	12.6140
 0.6560	12.5410
 0.6570	12.4570
 0.6580	12.3580
 0.6590	12.2630
 0.6600	12.1510
 0.6610	12.0220
 0.6620	11.8990
 0.6630	11.7810
 0.6640	11.6680
 0.6650	11.5620
 0.6660	11.4720
 0.6670	11.3890
 0.6680	11.3150
 0.6690	11.2590
 0.6700	11.2220
 0.6710	11.1970
 0.6720	11.1820
 0.6730	11.1840
 0.6740	11.1950
 0.6750	11.2150
 0.6760	11.2470
 0.6770	11.2890
 0.6780	11.3420
 0.6790	11.4080
 0.6800	11.4920
 0.6810	11.5980
 0.6820	11.7230
 0.6830	11.8690
 0.6840	12.0540
 0.6850	12.2790
 0.6860	12.5480
 0.6870	12.8700
 0.6880	13.2660
 0.6890	13.7400
 0.6900	14.2960
 0.6910	14.9390
 0.6920	15.6710
 0.6930	16.4860
 0.6940	17.3820
 0.6950	18.3640
 0.6960	19.4230
 0.6970	20.5460
 0.6980	21.7130
 0.6990	22.9200
 0.7000	24.1540
 0.7010	25.4040
 0.7020	26.6570
 0.7030	27.8950
 0.7040	29.1150
 0.7050	30.3110
 0.7060	31.4750
 0.7070	32.6130
 0.7080	33.7260
 0.7090	34.8200
 0.7100	35.8830
 0.7110	36.9310
 0.7120	37.9620
 0.7130	38.9580
 0.7140	39.9370
 0.7150	40.9030
 0.7160	41.8550
 0.7170	42.7790
 0.7180	43.6840
 0.7190	44.5670
 0.7200	45.4250
 0.7210	46.2680
 0.7220	47.0880
 0.7230	47.8760
 0.7240	48.6230
 0.7250	49.3620
 0.7260	50.0720
 0.7270	50.7370
 0.7280	51.3830
 0.7290	51.9980
 0.7300	52.5820
 0.7310	53.1370
 0.7320	53.6650
 0.7330	54.1640
 0.7340	54.6340
 0.7350	55.0730
 0.7360	55.4850
 0.7370	55.8680
 0.7380	56.2250
 0.7390	56.5700
 0.7400	56.8780
 0.7410	57.1590
 0.7420	57.4310
 0.7430	57.6770
 0.7440	57.8980
 0.7450	58.0970
 0.7460	58.2740
 0.7470	58.4290
 0.7480	58.5730
 0.7490	58.7100
 0.7500	58.8260
 0.7510	58.9250
 0.7520	59.0090
 0.7530	59.0840
 0.7540	59.1560
 0.7550	59.2140
 0.7560	59.2610
 0.7570	59.3080
 0.7580	59.3520
 0.7590	59.3860
 0.7600	59.4100
 0.7610	59.4340
 0.7620	59.4550
 0.7630	59.4700
 0.7640	59.4720
 0.7650	59.4730
 0.7660	59.4810
 0.7670	59.4870
 0.7680	59.4770
 0.7690	59.4730
 0.7700	59.4680
 0.7710	59.4590
 0.7720	59.4540
 0.7730	59.4480
 0.7740	59.4430
 0.7750	59.4390
 0.7760	59.4250
 0.7770	59.4230
 0.7780	59.4220
 0.7790	59.4080
 0.7800	59.3990
 0.7810	59.3990
 0.7820	59.4020
 0.7830	59.3950
 0.7840	59.3880
 0.7850	59.3810
 0.7860	59.3730
 0.7870	59.3680
 0.7880	59.3720
 0.7890	59.3730
 0.7900	59.3630
 0.7910	59.3610
 0.7920	59.3600
 0.7930	59.3610
 0.7940	59.3740
 0.7950	59.3610
 0.7960	59.3490
 0.7970	59.3540
 0.7980	59.3590
 0.7990	59.3550
 0.8000	59.3470
 0.8010	59.3420
 0.8020	59.3430
 0.8030	59.3400
 0.8040	59.3400
 0.8050	59.3540
 0.8060	59.3490
 0.8070	59.3450
 0.8080	59.3510
 0.8090	59.3560
 0.8100	59.3450
 0.8110	59.3390
 0.8120	59.3480
 0.8130	59.3520
 0.8140	59.3540
 0.8150	59.3570
 0.8160	59.3590
 0.8170	59.3500
 0.8180	59.3490
 0.8190	59.3530
 0.8200	59.3530
 0.8210	59.3600
 0.8220	59.3640
 0.8230	59.3630
 0.8240	59.3680
 0.8250	59.3540
 0.8260	59.3510
 0.8270	59.3670
 0.8280	59.3590
 0.8290	59.3570
 0.8300	59.3580
 0.8310	59.3510
 0.8320	59.3380
 0.8330	59.3470
 0.8340	59.3630
 0.8350	59.3600
 0.8360	59.3580
 0.8370	59.3660
 0.8380	59.3730
 0.8390	59.3630
 0.8400	59.3670
 0.8410	59.3720
 0.8420	59.3720
 0.8430	59.3840
 0.8440	59.3860
 0.8450	59.3850
 0.8460	59.3920
 0.8470	59.4000
 0.8480	59.4040
 0.8490	59.4060
 0.8500	59.4130
 0.8510	59.4170
 0.8520	59.4200
 0.8530	59.4240
 0.8540	59.4290
 0.8550	59.4270
 0.8560	59.4400
 0.8570	59.4570
 0.8580	59.4430
 0.8590	59.4320
 0.8600	59.4350
 0.8610	59.4450
 0.8620	59.4370
 0.8630	59.4440
 0.8640	59.4560
 0.8650	59.4580
 0.8660	59.4540
 0.8670	59.4570
 0.8680	59.4590
 0.8690	59.4490
 0.8700	59.4540
 0.8710	59.4550
 0.8720	59.4490
 0.8730	59.4430
 0.8740	59.4570
 0.8750	59.4580
 0.8760	59.4420
 0.8770	59.4350
 0.8780	59.4420
 0.8790	59.4390
 0.8800	59.4230
 0.8810	59.4330
 0.8820	59.4390
 0.8830	59.4300
 0.8840	59.4110
 0.8850	59.4150
 0.8860	59.4220
 0.8870	59.4190
 0.8880	59.4050
 0.8890	59.3990
 0.8900	59.3920
 0.8910	59.3890
 0.8920	59.3940
 0.8930	59.3850
 0.8940	59.3740
 0.8950	59.3710
 0.8960	59.3750
 0.8970	59.3540
 0.8980	59.3430
 0.8990	59.3460
 0.9000	59.3370
 0.9010	59.3320
 0.9020	59.3300
 0.9030	59.3270
 0.9040	59.3170
 0.9050	59.3070
 0.9060	59.2990
 0.9070	59.2910
 0.9080	59.2850
 0.9090	59.2790
 0.9100	59.2760
 0.9110	59.2730
 0.9120	59.2600
 0.9130	59.2460
 0.9140	59.2320
 0.9150	59.2190
 0.9160	59.2040
 0.9170	59.1940
 0.9180	59.1880
 0.9190	59.1820
 0.9200	59.1650
 0.9210	59.1480
 0.9220	59.1300
 0.9230	59.1030
 0.9240	59.0750
 0.9250	59.0520
 0.9260	59.0380
 0.9270	59.0290
 0.9280	59.0130
 0.9290	58.9860
 0.9300	58.9510
 0.9310	58.9230
 0.9320	58.8930
 0.9330	58.8540
 0.9340	58.8130
 0.9350	58.7970
 0.9360	58.7670
 0.9370	58.7250
 0.9380	58.6760
 0.9390	58.6280
 0.9400	58.6090
 0.9410	58.5770
 0.9420	58.5170
 0.9430	58.4860
 0.9440	58.4380
 0.9450	58.3810
 0.9460	58.3300
 0.9470	58.2750
 0.9480	58.2140
 0.9490	58.1480
 0.9500	58.0760
 0.9510	57.9920
 0.9520	57.9080
 0.9530	57.8420
 0.9540	57.7880
 0.9550	57.6790
 0.9560	57.6080
 0.9570	57.5470
 0.9580	57.4570
 0.9590	57.4050
 0.9600	57.3510
 0.9610	57.2940
 0.9620	57.2470
 0.9630	57.2200
 0.9640	57.2090
 0.9650	57.2020
 0.9660	57.1860
 0.9670	57.1320
 0.9680	57.1320
 0.9690	57.1430
 0.9700	57.0980
 0.9710	57.0930
 0.9720	57.0940
 0.9730	57.0990
 0.9740	57.1180
 0.9750	57.1220
 0.9760	57.1040
 0.9770	57.0920
 0.9780	57.1130
 0.9790	57.1170
 0.9800	57.1230
 0.9810	57.1390
 0.9820	57.1630
 0.9830	57.1880
 0.9840	57.1950
 0.9850	57.2050
 0.9860	57.2410
 0.9870	57.2380
 0.9880	57.2680
 0.9890	57.3040
 0.9900	57.2920
 0.9910	57.3230
 0.9920	57.3580
 0.9930	57.3740
 0.9940	57.3790
 0.9950	57.4280
 0.9960	57.4720
 0.9970	57.5030
 0.9980	57.5370
 0.9990	57.5810
 1.0000	57.7220
 1.0010	58.0360
 1.0020	58.2090
 1.0030	58.2400
 1.0040	58.2740
 1.0050	58.3040
 1.0060	58.3330
 1.0070	58.3600
 1.0080	58.3890
 1.0090	58.4180
 1.0100	58.4490
 1.0110	58.4850
 1.0120	58.5150
 1.0130	58.5450
 1.0140	58.5710
 1.0150	58.5930
 1.0160	58.6060
 1.0170	58.6350
 1.0180	58.6660
 1.0190	58.6860
 1.0200	58.7240
 1.0210	58.7560
 1.0220	58.7710
 1.0230	58.7960
 1.0240	58.8270
 1.0250	58.8530
 1.0260	58.8780
 1.0270	58.9010
 1.0280	58.9200
 1.0290	58.9460
 1.0300	58.9730
 1.0310	58.9980
 1.0320	59.0230
 1.0330	59.0520
 1.0340	59.0750
 1.0350	59.1000
 1.0360	59.1270
 1.0370	59.1450
 1.0380	59.1610
 1.0390	59.1680
 1.0400	59.1820
 1.0410	59.1940
 1.0420	59.2100
 1.0430	59.2320
 1.0440	59.2480
 1.0450	59.2650
 1.0460	59.2800
 1.0470	59.2920
 1.0480	59.3030
 1.0490	59.3120
 1.0500	59.3200
 1.0510	59.3300
 1.0520	59.3330
 1.0530	59.3420
 1.0540	59.3560
 1.0550	59.3610
 1.0560	59.3620
 1.0570	59.3690
 1.0580	59.3760
 1.0590	59.3810
 1.0600	59.3930
 1.0610	59.3990
 1.0620	59.3960
 1.0630	59.3960
 1.0640	59.3950
 1.0650	59.3950
 1.0660	59.3940
 1.0670	59.3920
 1.0680	59.3900
 1.0690	59.3900
 1.0700	59.3840
 1.0710	59.3730
 1.0720	59.3660
 1.0730	59.3580
 1.0740	59.3500
 1.0750	59.3430
 1.0760	59.3380
 1.0770	59.3320
 1.0780	59.3270
 1.0790	59.3300
 1.0800	59.3230
 1.0810	59.3090
 1.0820	59.2980
 1.0830	59.2800
 1.0840	59.2670
 1.0850	59.2560
 1.0860	59.2490
 1.0870	59.2380
 1.0880	59.2290
 1.0890	59.2170
 1.0900	59.2020
 1.0910	59.1920
 1.0920	59.1880
 1.0930	59.1730
 1.0940	59.1530
 1.0950	59.1330
 1.0960	59.1000
 1.0970	59.0790
 1.0980	59.0680
 1.0990	59.0510
 1.1000	59.0370
 1.1010	59.0170
 1.1020	58.9880
 1.1030	58.9660
 1.1040	58.9440
 1.1050	58.9200
 1.1060	58.9000
 1.1070	58.8860
 1.1080	58.8660
 1.1090	58.8460
 1.1100	58.8270
 1.1110	58.8080
 1.1120	58.7850
 1.1130	58.7600
 1.1140	58.7370
 1.1150	58.7150
 1.1160	58.6880
 1.1170	58.6620
 1.1180	58.6340
 1.1190	58.6010
 1.1200	58.5710
 1.1210	58.5350
 1.1220	58.4930
 1.1230	58.4500
 1.1240	58.3980
 1.1250	58.3400
 1.1260	58.2780
 1.1270	58.2100
 1.1280	58.1340
 1.1290	58.0500
 1.1300	57.9610
 1.1310	57.8630
 1.1320	57.7570
 1.1330	57.6410
 1.1340	57.5180
 1.1350	57.3850
 1.1360	57.2410
 1.1370	57.0880
 1.1380	56.9290
 1.1390	56.7600
 1.1400	56.5920
 1.1410	56.4180
 1.1420	56.2440
 1.1430	56.0740
 1.1440	55.9040
 1.1450	55.7310
 1.1460	55.5670
 1.1470	55.4010
 1.1480	55.2490
 1.1490	55.0990
 1.1500	54.9630
 1.1510	54.8360
 1.1520	54.7210
 1.1530	54.6160
 1.1540	54.5220
 1.1550	54.4380
 1.1560	54.3630
 1.1570	54.2980
 1.1580	54.2410
 1.1590	54.1920
 1.1600	54.1520
 1.1610	54.1190
 1.1620	54.0940
 1.1630	54.0710
 1.1640	54.0490
 1.1650	54.0320
 1.1660	54.0170
 1.1670	54.0070
 1.1680	54.0040
 1.1690	53.9990
 1.1700	53.9990
 1.1710	53.9960
 1.1720	53.9910
 1.1730	53.9880
 1.1740	53.9870
 1.1750	53.9820
 1.1760	53.9750
 1.1770	53.9740
 1.1780	53.9670
 1.1790	53.9570
 1.1800	53.9530
 1.1810	53.9440
 1.1820	53.9360
 1.1830	53.9320
 1.1840	53.9250
 1.1850	53.9160
 1.1860	53.9040
 1.1870	53.8970
 1.1880	53.8890
 1.1890	53.8800
 1.1900	53.8750
 1.1910	53.8760
 1.1920	53.8730
 1.1930	53.8690
 1.1940	53.8710
 1.1950	53.8750
 1.1960	53.8780
 1.1970	53.8780
 1.1980	53.8860
 1.1990	53.8910
 1.2000	53.8950
 1.2010	53.9110
 1.2020	53.9250
 1.2030	53.9360
 1.2040	53.9490
 1.2050	53.9640
 1.2060	53.9780
 1.2070	53.9940
 1.2080	54.0130
 1.2090	54.0320
 1.2100	54.0510
 1.2110	54.0710
 1.2120	54.0940
 1.2130	54.1140
 1.2140	54.1310
 1.2150	54.1490
 1.2160	54.1680
 1.2170	54.1860
 1.2180	54.2080
 1.2190	54.2300
 1.2200	54.2540
 1.2210	54.2810
 1.2220	54.3010
 1.2230	54.3240
 1.2240	54.3510
 1.2250	54.3730
 1.2260	54.3960
 1.2270	54.4160
 1.2280	54.4300
 1.2290	54.4500
 1.2300	54.4740
 1.2310	54.4980
 1.2320	54.5240
 1.2330	54.5460
 1.2340	54.5670
 1.2350	54.5860
 1.2360	54.6040
 1.2370	54.6210
 1.2380	54.6400
 1.2390	54.6590
 1.2400	54.6780
 1.2410	54.6990
 1.2420	54.7150
 1.2430	54.7320
 1.2440	54.7500
 1.2450	54.7640
 1.2460	54.7790
 1.2470	54.7940
 1.2480	54.8090
 1.2490	54.8260
 1.2500	54.8410
 1.2510	54.8580
 1.2520	54.8730
 1.2530	54.8840
 1.2540	54.9000
 1.2550	54.9110
 1.2560	54.9140
 1.2570	54.9150
 1.2580	54.9180
 1.2590	54.9210
 1.2600	54.9250
 1.2610	54.9270
 1.2620	54.9300
 1.2630	54.9270
 1.2640	54.9200
 1.2650	54.9140
 1.2660	54.9120
 1.2670	54.9080
 1.2680	54.9020
 1.2690	54.8960
 1.2700	54.8880
 1.2710	54.8800
 1.2720	54.8720
 1.2730	54.8650
 1.2740	54.8570
 1.2750	54.8450
 1.2760	54.8310
 1.2770	54.8120
 1.2780	54.7880
 1.2790	54.7630
 1.2800	54.7390
 1.2810	54.7170
 1.2820	54.6930
 1.2830	54.6680
 1.2840	54.6450
 1.2850	54.6150
 1.2860	54.5840
 1.2870	54.5480
 1.2880	54.5090
 1.2890	54.4630
 1.2900	54.4180
 1.2910	54.3690
 1.2920	54.3230
 1.2930	54.2790
 1.2940	54.2270
 1.2950	54.1720
 1.2960	54.1140
 1.2970	54.0510
 1.2980	53.9840
 1.2990	53.9130
 1.3000	53.8310
 1.3010	53.7450
 1.3020	53.6590
 1.3030	53.5660
 1.3040	53.4780
 1.3050	53.3940
 1.3060	53.3000
 1.3070	53.2060
 1.3080	53.1100
 1.3090	53.0030
 1.3100	52.8970
 1.3110	52.7890
 1.3120	52.6730
 1.3130	52.5530
 1.3140	52.4310
 1.3150	52.3040
 1.3160	52.1750
 1.3170	52.0450
 1.3180	51.9100
 1.3190	51.7700
 1.3200	51.6220
 1.3210	51.4740
 1.3220	51.3280
 1.3230	51.1800
 1.3240	51.0330
 1.3250	50.8800
 1.3260	50.7200
 1.3270	50.5610
 1.3280	50.4000
 1.3290	50.2360
 1.3300	50.0720
 1.3310	49.9060
 1.3320	49.7350
 1.3330	49.5660
 1.3340	49.3980
 1.3350	49.2250
 1.3360	49.0540
 1.3370	48.8830
 1.3380	48.7090
 1.3390	48.5370
 1.3400	48.3680
 1.3410	48.2000
 1.3420	48.0350
 1.3430	47.8750
 1.3440	47.7140
 1.3450	47.5550
 1.3460	47.4010
 1.3470	47.2450
 1.3480	47.0860
 1.3490	46.9310
 1.3500	46.7790
 1.3510	46.6240
 1.3520	46.4750
 1.3530	46.3260
 1.3540	46.1730
 1.3550	46.0210
 1.3560	45.8660
 1.3570	45.7110
 1.3580	45.5560
 1.3590	45.3940
 1.3600	45.2250
 1.3610	45.0470
 1.3620	44.8590
 1.3630	44.6620
 1.3640	44.4550
 1.3650	44.2360
 1.3660	44.0100
 1.3670	43.7720
 1.3680	43.5180
 1.3690	43.2510
 1.3700	42.9630
 1.3710	42.6580
 1.3720	42.3350
 1.3730	41.9840
 1.3740	41.6160
 1.3750	41.2240
 1.3760	40.8060
 1.3770	40.3650
 1.3780	39.8920
 1.3790	39.3920
 1.3800	38.8620
 1.3810	38.3010
 1.3820	37.7200
 1.3830	37.1130
 1.3840	36.4870
 1.3850	35.8390
 1.3860	35.1770
 1.3870	34.4920
 1.3880	33.8060
 1.3890	33.1070
 1.3900	32.4020
 1.3910	31.7070
 1.3920	31.0090
 1.3930	30.3160
 1.3940	29.6360
 1.3950	28.9570
 1.3960	28.2960
 1.3970	27.6550
 1.3980	27.0320
 1.3990	26.4400
 1.4000	25.8710
 1.4010	25.3250
 1.4020	24.8080
 1.4030	24.3110
 1.4040	23.8440
 1.4050	23.4060
 1.4060	22.9940
 1.4070	22.6170
 1.4080	22.2640
 1.4090	21.9340
 1.4100	21.6290
 1.4110	21.3440
 1.4120	21.0790
 1.4130	20.8350
 1.4140	20.6120
 1.4150	20.4120
 1.4160	20.2280
 1.4170	20.0600
 1.4180	19.9060
 1.4190	19.7610
 1.4200	19.6300
 1.4210	19.5110
 1.4220	19.4030
 1.4230	19.3090
 1.4240	19.2230
 1.4250	19.1430
 1.4260	19.0710
 1.4270	19.0070
 1.4280	18.9500
 1.4290	18.9000
 1.4300	18.8600
 1.4310	18.8230
 1.4320	18.7920
 1.4330	18.7650
 1.4340	18.7440
 1.4350	18.7260
 1.4360	18.7140
 1.4370	18.7060
 1.4380	18.7010
 1.4390	18.7000
 1.4400	18.7020
 1.4410	18.7080
 1.4420	18.7160
 1.4430	18.7240
 1.4440	18.7330
 1.4450	18.7450
 1.4460	18.7570
 1.4470	18.7760
 1.4480	18.7950
 1.4490	18.8150
 1.4500	18.8390
 1.4510	18.8620
 1.4520	18.8870
 1.4530	18.9160
 1.4540	18.9450
 1.4550	18.9770
 1.4560	19.0130
 1.4570	19.0520
 1.4580	19.0960
 1.4590	19.1440
 1.4600	19.1970
 1.4610	19.2540
 1.4620	19.3140
 1.4630	19.3810
 1.4640	19.4540
 1.4650	19.5320
 1.4660	19.6180
 1.4670	19.7100
 1.4680	19.8070
 1.4690	19.9090
 1.4700	20.0160
 1.4710	20.1270
 1.4720	20.2410
 1.4730	20.3610
 1.4740	20.4870
 1.4750	20.6160
 1.4760	20.7490
 1.4770	20.8840
 1.4780	21.0190
 1.4790	21.1570
 1.4800	21.2980
 1.4810	21.4410
 1.4820	21.5850
 1.4830	21.7310
 1.4840	21.8800
 1.4850	22.0280
 1.4860	22.1810
 1.4870	22.3360
 1.4880	22.4910
 1.4890	22.6500
 1.4900	22.8080
 1.4910	22.9670
 1.4920	23.1270
 1.4930	23.2870
 1.4940	23.4480
 1.4950	23.6100
 1.4960	23.7720
 1.4970	23.9330
 1.4980	24.0960
 1.4990	24.2620
 1.5000	24.4280
 1.5010	24.5940
 1.5020	24.7600
 1.5030	24.9260
 1.5040	25.0930
 1.5050	25.2600
 1.5060	25.4280
 1.5070	25.5960
 1.5080	25.7640
 1.5090	25.9340
 1.5100	26.1000
 1.5110	26.2670
 1.5120	26.4360
 1.5130	26.6040
 1.5140	26.7720
 1.5150	26.9370
 1.5160	27.1020
 1.5170	27.2670
 1.5180	27.4320
 1.5190	27.5970
 1.5200	27.7620
 1.5210	27.9260
 1.5220	28.0880
 1.5230	28.2500
 1.5240	28.4110
 1.5250	28.5700
 1.5260	28.7290
 1.5270	28.8870
 1.5280	29.0430
 1.5290	29.1980
 1.5300	29.3520
 1.5310	29.5070
 1.5320	29.6590
 1.5330	29.8110
 1.5340	29.9630
 1.5350	30.1110
 1.5360	30.2610
 1.5370	30.4090
 1.5380	30.5550
 1.5390	30.7040
 1.5400	30.8500
 1.5410	30.9950
 1.5420	31.1390
 1.5430	31.2820
 1.5440	31.4260
 1.5450	31.5660
 1.5460	31.7080
 1.5470	31.8480
 1.5480	31.9850
 1.5490	32.1210
 1.5500	32.2540
 1.5510	32.3860
 1.5520	32.5170
 1.5530	32.6460
 1.5540	32.7770
 1.5550	32.9080
 1.5560	33.0360
 1.5570	33.1630
 1.5580	33.2860
 1.5590	33.4060
 1.5600	33.5280
 1.5610	33.6470
 1.5620	33.7620
 1.5630	33.8790
 1.5640	33.9920
 1.5650	34.1070
 1.5660	34.2220
 1.5670	34.3330
 1.5680	34.4440
 1.5690	34.5530
 1.5700	34.6610
 1.5710	34.7680
 1.5720	34.8740
 1.5730	34.9800
 1.5740	35.0840
 1.5750	35.1900
 1.5760	35.2930
 1.5770	35.3950
 1.5780	35.4970
 1.5790	35.5960
 1.5800	35.6900
 1.5810	35.7840
 1.5820	35.8780
 1.5830	35.9720
 1.5840	36.0700
 1.5850	36.1670
 1.5860	36.2590
 1.5870	36.3500
 1.5880	36.4400
 1.5890	36.5300
 1.5900	36.6200
 1.5910	36.7100
 1.5920	36.8010
 1.5930	36.8880
 1.5940	36.9760
 1.5950	37.0620
 1.5960	37.1440
 1.5970	37.2300
 1.5980	37.3120
 1.5990	37.3930
 1.6000	37.4740
 1.6010	37.5470
 1.6020	37.6230
 1.6030	37.7030
 1.6040	37.7770
 1.6050	37.8540
 1.6060	37.9280
 1.6070	37.9990
 1.6080	38.0710
 1.6090	38.1430
 1.6100	38.2160
 1.6110	38.2870
 1.6120	38.3580
 1.6130	38.4300
 1.6140	38.4980
 1.6150	38.5660
 1.6160	38.6330
 1.6170	38.6970
 1.6180	38.7590
 1.6190	38.8190
 1.6200	38.8770
 1.6210	38.9360
 1.6220	38.9980
 1.6230	39.0570
 1.6240	39.1150
 1.6250	39.1750
 1.6260	39.2300
 1.6270	39.2870
 1.6280	39.3430
 1.6290	39.3950
 1.6300	39.4450
 1.6310	39.4950
 1.6320	39.5450
 1.6330	39.5940
 1.6340	39.6450
 1.6350	39.6920
 1.6360	39.7350
 1.6370	39.7800
 1.6380	39.8270
 1.6390	39.8710
 1.6400	39.9160
 1.6410	39.9570
 1.6420	39.9920
 1.6430	40.0280
 1.6440	40.0620
 1.6450	40.0940
 1.6460	40.1270
 1.6470	40.1590
 1.6480	40.1900
 1.6490	40.2220
 1.6500	40.2510
 1.6510	40.2760
 1.6520	40.2990
 1.6530	40.3230
 1.6540	40.3460
 1.6550	40.3670
 1.6560	40.3850
 1.6570	40.4030
 1.6580	40.4200
 1.6590	40.4330
 1.6600	40.4510
 1.6610	40.4680
 1.6620	40.4810
 1.6630	40.4990
 1.6640	40.5110
 1.6650	40.5200
 1.6660	40.5270
 1.6670	40.5320
 1.6680	40.5370
 1.6690	40.5380
 1.6700	40.5390
 1.6710	40.5350
 1.6720	40.5290
 1.6730	40.5190
 1.6740	40.5070
 1.6750	40.4940
 1.6760	40.4810
 1.6770	40.4680
 1.6780	40.4520
 1.6790	40.4320
 1.6800	40.4080
 1.6810	40.3840
 1.6820	40.3570
 1.6830	40.3280
 1.6840	40.2970
 1.6850	40.2660
 1.6860	40.2330
 1.6870	40.2000
 1.6880	40.1680
 1.6890	40.1330
 1.6900	40.0990
 1.6910	40.0660
 1.6920	40.0330
 1.6930	40.0030
 1.6940	39.9700
 1.6950	39.9370
 1.6960	39.9030
 1.6970	39.8670
 1.6980	39.8300
 1.6990	39.7950
 1.7000	39.7570
 1.7010	39.7180
 1.7020	39.6760
 1.7030	39.6310
 1.7040	39.5840
 1.7050	39.5350
 1.7060	39.4850
 1.7070	39.4330
 1.7080	39.3820
 1.7090	39.3290
 1.7100	39.2760
 1.7110	39.2250
 1.7120	39.1700
 1.7130	39.1140
 1.7140	39.0590
 1.7150	39.0000
 1.7160	38.9400
 1.7170	38.8820
 1.7180	38.8230
 1.7190	38.7640
 1.7200	38.7070
 1.7210	38.6450
 1.7220	38.5850
 1.7230	38.5260
 1.7240	38.4620
 1.7250	38.3960
 1.7260	38.3290
 1.7270	38.2560
 1.7280	38.1840
 1.7290	38.1170
 1.7300	38.0450
 1.7310	37.9740
 1.7320	37.9020
 1.7330	37.8310
 1.7340	37.7610
 1.7350	37.6900
 1.7360	37.6210
 1.7370	37.5480
 1.7380	37.4730
 1.7390	37.3940
 1.7400	37.3080
 1.7410	37.2240
 1.7420	37.1420
 1.7430	37.0520
 1.7440	36.9570
 1.7450	36.8650
 1.7460	36.7680
 1.7470	36.6710
 1.7480	36.5790
 1.7490	36.4790
 1.7500	36.3710
 1.7510	36.2680
 1.7520	36.1640
 1.7530	36.0620
 1.7540	35.9640
 1.7550	35.8600
 1.7560	35.7610
 1.7570	35.6600
 1.7580	35.5550
 1.7590	35.4540
 1.7600	35.3560
 1.7610	35.2600
 1.7620	35.1650
 1.7630	35.0710
 1.7640	34.9790
 1.7650	34.8850
 1.7660	34.7960
 1.7670	34.7100
 1.7680	34.6290
 1.7690	34.5530
 1.7700	34.4800
 1.7710	34.4120
 1.7720	34.3420
 1.7730	34.2740
 1.7740	34.2050
 1.7750	34.1310
 1.7760	34.0660
 1.7770	34.0040
 1.7780	33.9460
 1.7790	33.8970
 1.7800	33.8470
 1.7810	33.7990
 1.7820	33.7560
 1.7830	33.7180
 1.7840	33.6810
 1.7850	33.6490
 1.7860	33.6150
 1.7870	33.5810
 1.7880	33.5470
 1.7890	33.5190
 1.7900	33.5030
 1.7910	33.4820
 1.7920	33.4650
 1.7930	33.4480
 1.7940	33.4240
 1.7950	33.4090
 1.7960	33.4030
 1.7970	33.3960
 1.7980	33.3970
 1.7990	33.3930
 1.8000	33.3870
 1.8010	33.3810
 1.8020	33.3740
 1.8030	33.3670
 1.8040	33.3600
 1.8050	33.3590
 1.8060	33.3610
 1.8070	33.3610
 1.8080	33.3660
 1.8090	33.3650
 1.8100	33.3590
 1.8110	33.3540
 1.8120	33.3510
 1.8130	33.3470
 1.8140	33.3440
 1.8150	33.3430
 1.8160	33.3370
 1.8170	33.3270
 1.8180	33.3140
 1.8190	33.2960
 1.8200	33.2790
 1.8210	33.2620
 1.8220	33.2460
 1.8230	33.2330
 1.8240	33.2140
 1.8250	33.1930
 1.8260	33.1660
 1.8270	33.1300
 1.8280	33.0990
 1.8290	33.0690
 1.8300	32.9810
 1.8310	32.8730
 1.8320	32.7670
 1.8330	32.7160
 1.8340	32.6540
 1.8350	32.5880
 1.8360	32.5170
 1.8370	32.4410
 1.8380	32.3590
 1.8390	32.2660
 1.8400	32.1630
 1.8410	32.0550
 1.8420	31.9400
 1.8430	31.8110
 1.8440	31.6800
 1.8450	31.5340
 1.8460	31.3740
 1.8470	31.2130
 1.8480	31.0370
 1.8490	30.8480
 1.8500	30.6430
 1.8510	30.4270
 1.8520	30.1890
 1.8530	29.9370
 1.8540	29.6720
 1.8550	29.3940
 1.8560	29.1010
 1.8570	28.7860
 1.8580	28.4530
 1.8590	28.1080
 1.8600	27.7460
 1.8610	27.3680
 1.8620	26.9730
 1.8630	26.5630
 1.8640	26.1300
 1.8650	25.6800
 1.8660	25.2150
 1.8670	24.7270
 1.8680	24.2230
 1.8690	23.6980
 1.8700	23.1560
 1.8710	22.5950
 1.8720	22.0270
 1.8730	21.4460
 1.8740	20.8620
 1.8750	20.2780
 1.8760	19.6900
 1.8770	19.1090
 1.8780	18.5300
 1.8790	17.9560
 1.8800	17.3970
 1.8810	16.8480
 1.8820	16.3060
 1.8830	15.7760
 1.8840	15.2650
 1.8850	14.7660
 1.8860	14.2870
 1.8870	13.8270
 1.8880	13.3860
 1.8890	12.9700
 1.8900	12.5750
 1.8910	12.2050
 1.8920	11.8580
 1.8930	11.5360
 1.8940	11.2370
 1.8950	10.9590
 1.8960	10.7010
 1.8970	10.4650
 1.8980	10.2470
 1.8990	10.0490
 1.9000	 9.8680
 1.9010	 9.7070
 1.9020	 9.5600
 1.9030	 9.4310
 1.9040	 9.3160
 1.9050	 9.2150
 1.9060	 9.1230
 1.9070	 9.0390
 1.9080	 8.9630
 1.9090	 8.8950
 1.9100	 8.8380
 1.9110	 8.7850
 1.9120	 8.7420
 1.9130	 8.7020
 1.9140	 8.6670
 1.9150	 8.6340
 1.9160	 8.6090
 1.9170	 8.5910
 1.9180	 8.5750
 1.9190	 8.5630
 1.9200	 8.5520
 1.9210	 8.5390
 1.9220	 8.5310
 1.9230	 8.5240
 1.9240	 8.5200
 1.9250	 8.5200
 1.9260	 8.5220
 1.9270	 8.5280
 1.9280	 8.5380
 1.9290	 8.5500
 1.9300	 8.5640
 1.9310	 8.5770
 1.9320	 8.5890
 1.9330	 8.6040
 1.9340	 8.6210
 1.9350	 8.6390
 1.9360	 8.6580
 1.9370	 8.6790
 1.9380	 8.7000
 1.9390	 8.7270
 1.9400	 8.7540
 1.9410	 8.7820
 1.9420	 8.8140
 1.9430	 8.8420
 1.9440	 8.8750
 1.9450	 8.9140
 1.9460	 8.9500
 1.9470	 8.9860
 1.9480	 9.0240
 1.9490	 9.0610
 1.9500	 9.0980
 1.9510	 9.1400
 1.9520	 9.1840
 1.9530	 9.2300
 1.9540	 9.2760
 1.9550	 9.3220
 1.9560	 9.3710
 1.9570	 9.4170
 1.9580	 9.4610
 1.9590	 9.5060
 1.9600	 9.5450
 1.9610	 9.5900
 1.9620	 9.6390
 1.9630	 9.6870
 1.9640	 9.7370
 1.9650	 9.7940
 1.9660	 9.8490
 1.9670	 9.9020
 1.9680	 9.9560
 1.9690	10.0090
 1.9700	10.0650
 1.9710	10.1220
 1.9720	10.1820
 1.9730	10.2460
 1.9740	10.3100
 1.9750	10.3740
 1.9760	10.4340
 1.9770	10.4930
 1.9780	10.5520
 1.9790	10.6160
 1.9800	10.6820
 1.9810	10.7480
 1.9820	10.8180
 1.9830	10.8880
 1.9840	10.9600
 1.9850	11.0300
 1.9860	11.1000
 1.9870	11.1720
 1.9880	11.2410
 1.9890	11.3100
 1.9900	11.3850
 1.9910	11.4600
 1.9920	11.5330
 1.9930	11.6060
 1.9940	11.6810
 1.9950	11.7530
 1.9960	11.8290
 1.9970	11.9080
 1.9980	11.9870
 1.9990	12.0670
 2.0000	12.1480
 2.0010	12.2240
 2.0020	12.3020
 2.0030	12.3810
 2.0040	12.4590
 2.0050	12.5380
 2.0060	12.6200
 2.0070	12.6980
 2.0080	12.7750
 2.0090	12.8510
 2.0100	12.9260
 2.0110	13.0040
 2.0120	13.0830
 2.0130	13.1610
 2.0140	13.2400
 2.0150	13.3190
 2.0160	13.3990
 2.0170	13.4780
 2.0180	13.5560
 2.0190	13.6370
 2.0200	13.7130
 2.0210	13.7820
 2.0220	13.8570
 2.0230	13.9340
 2.0240	14.0100
 2.0250	14.0890
 2.0260	14.1660
 2.0270	14.2420
 2.0280	14.3170
 2.0290	14.3930
 2.0300	14.4720
 2.0310	14.5460
 2.0320	14.6170
 2.0330	14.6900
 2.0340	14.7600
 2.0350	14.8310
 2.0360	14.9050
 2.0370	14.9790
 2.0380	15.0560
 2.0390	15.1300
 2.0400	15.2050
 2.0410	15.2780
 2.0420	15.3510
 2.0430	15.4170
 2.0440	15.4850
 2.0450	15.5520
 2.0460	15.6190
 2.0470	15.6830
 2.0480	15.7490
 2.0490	15.8160
 2.0500	15.8820
 2.0510	15.9460
 2.0520	16.0140
 2.0530	16.0860
 2.0540	16.1540
 2.0550	16.2210
 2.0560	16.2870
 2.0570	16.3500
 2.0580	16.4130
 2.0590	16.4800
 2.0600	16.5540
 2.0610	16.6220
 2.0620	16.6930
 2.0630	16.7600
 2.0640	16.8200
 2.0650	16.8890
 2.0660	16.9620
 2.0670	17.0320
 2.0680	17.1030
 2.0690	17.1730
 2.0700	17.2400
 2.0710	17.3090
 2.0720	17.3800
 2.0730	17.4520
 2.0740	17.5230
 2.0750	17.5920
 2.0760	17.6620
 2.0770	17.7310
 2.0780	17.8020
 2.0790	17.8780
 2.0800	17.9490
 2.0810	18.0220
 2.0820	18.0930
 2.0830	18.1610
 2.0840	18.2300
 2.0850	18.3000
 2.0860	18.3680
 2.0870	18.4340
 2.0880	18.5010
 2.0890	18.5650
 2.0900	18.6250
 2.0910	18.6930
 2.0920	18.7630
 2.0930	18.8350
 2.0940	18.9150
 2.0950	18.9880
 2.0960	19.0580
 2.0970	19.1280
 2.0980	19.1930
 2.0990	19.2600
 2.1000	19.3250
 2.1010	19.3920
 2.1020	19.4580
 2.1030	19.5260
 2.1040	19.5970
 2.1050	19.6710
 2.1060	19.7420
 2.1070	19.8150
 2.1080	19.8840
 2.1090	19.9510
 2.1100	20.0170
 2.1110	20.0820
 2.1120	20.1480
 2.1130	20.2130
 2.1140	20.2780
 2.1150	20.3430
 2.1160	20.4060
 2.1170	20.4690
 2.1180	20.5330
 2.1190	20.5940
 2.1200	20.6580
 2.1210	20.7260
 2.1220	20.7920
 2.1230	20.8570
 2.1240	20.9250
 2.1250	20.9880
 2.1260	21.0440
 2.1270	21.1040
 2.1280	21.1660
 2.1290	21.2240
 2.1300	21.2800
 2.1310	21.3380
 2.1320	21.3930
 2.1330	21.4520
 2.1340	21.5220
 2.1350	21.5770
 2.1360	21.6260
 2.1370	21.6740
 2.1380	21.7110
 2.1390	21.7520
 2.1400	21.7970
 2.1410	21.8390
 2.1420	21.8820
 2.1430	21.9270
 2.1440	21.9670
 2.1450	22.0060
 2.1460	22.0440
 2.1470	22.0790
 2.1480	22.1150
 2.1490	22.1510
 2.1500	22.1860
 2.1510	22.2170
 2.1520	22.2510
 2.1530	22.2850
 2.1540	22.3200
 2.1550	22.3590
 2.1560	22.3920
 2.1570	22.4200
 2.1580	22.4490
 2.1590	22.4780
 2.1600	22.5050
 2.1610	22.5270
 2.1620	22.5500
 2.1630	22.5690
 2.1640	22.5820
 2.1650	22.6010
 2.1660	22.6230
 2.1670	22.6430
 2.1680	22.6620
 2.1690	22.6830
 2.1700	22.7030
 2.1710	22.7230
 2.1720	22.7460
 2.1730	22.7640
 2.1740	22.7730
 2.1750	22.7890
 2.1760	22.8060
 2.1770	22.8240
 2.1780	22.8460
 2.1790	22.8690
 2.1800	22.8890
 2.1810	22.9110
 2.1820	22.9420
 2.1830	22.9670
 2.1840	22.9840
 2.1850	22.9950
 2.1860	23.0050
 2.1870	23.0040
 2.1880	23.0120
 2.1890	23.0240
 2.1900	23.0350
 2.1910	23.0480
 2.1920	23.0610
 2.1930	23.0750
 2.1940	23.0890
 2.1950	23.1060
 2.1960	23.1180
 2.1970	23.1300
 2.1980	23.1390
 2.1990	23.1370
 2.2000	23.1440
 2.2010	23.1530
 2.2020	23.1610
 2.2030	23.1740
 2.2040	23.1830
 2.2050	23.1850
 2.2060	23.1890
 2.2070	23.1960
 2.2080	23.2030
 2.2090	23.2080
 2.2100	23.2180
 2.2110	23.2160
 2.2120	23.2030
 2.2130	23.1970
 2.2140	23.1870
 2.2150	23.1800
 2.2160	23.1750
 2.2170	23.1730
 2.2180	23.1760
 2.2190	23.1710
 2.2200	23.1680
 2.2210	23.1580
 2.2220	23.1360
 2.2230	23.1190
 2.2240	23.1030
 2.2250	23.0840
 2.2260	23.0620
 2.2270	23.0400
 2.2280	23.0170
 2.2290	22.9890
 2.2300	22.9580
 2.2310	22.9260
 2.2320	22.8930
 2.2330	22.8600
 2.2340	22.8230
 2.2350	22.7870
 2.2360	22.7480
 2.2370	22.7010
 2.2380	22.6610
 2.2390	22.6270
 2.2400	22.5850
 2.2410	22.5410
 2.2420	22.4960
 2.2430	22.4500
 2.2440	22.3980
 2.2450	22.3450
 2.2460	22.2930
 2.2470	22.2390
 2.2480	22.1830
 2.2490	22.1270
 2.2500	22.0730
 2.2510	22.0180
 2.2520	21.9630
 2.2530	21.9150
 2.2540	21.8620
 2.2550	21.8040
 2.2560	21.7460
 2.2570	21.6860
 2.2580	21.6250
 2.2590	21.5590
 2.2600	21.4990
 2.2610	21.4430
 2.2620	21.3870
 2.2630	21.3350
 2.2640	21.2710
 2.2650	21.2040
 2.2660	21.1460
 2.2670	21.0930
 2.2680	21.0430
 2.2690	20.9970
 2.2700	20.9610
 2.2710	20.9150
 2.2720	20.8710
 2.2730	20.8200
 2.2740	20.7560
 2.2750	20.7010
 2.2760	20.6450
 2.2770	20.5980
 2.2780	20.5650
 2.2790	20.5180
 2.2800	20.4690
 2.2810	20.4230
 2.2820	20.3680
 2.2830	20.3200
 2.2840	20.2810
 2.2850	20.2380
 2.2860	20.1990
 2.2870	20.1540
 2.2880	20.1080
 2.2890	20.0640
 2.2900	20.0150
 2.2910	19.9680
 2.2920	19.9310
 2.2930	19.8810
 2.2940	19.8240
 2.2950	19.7660
 2.2960	19.6960
 2.2970	19.6310
 2.2980	19.5670
 2.2990	19.5010
 2.3000	19.4390
 2.3010	19.3810
 2.3020	19.3200
 2.3030	19.2560
 2.3040	19.1870
 2.3050	19.1170
 2.3060	19.0560
 2.3070	19.0020
 2.3080	18.9370
 2.3090	18.8790
 2.3100	18.8230
 2.3110	18.7630
 2.3120	18.7090
 2.3130	18.6610
 2.3140	18.6140
 2.3150	18.5680
 2.3160	18.5190
 2.3170	18.4750
 2.3180	18.4260
 2.3190	18.3650
 2.3200	18.3200
 2.3210	18.2850
 2.3220	18.2430
 2.3230	18.2080
 2.3240	18.1580
 2.3250	18.0900
 2.3260	18.0350
 2.3270	17.9720
 2.3280	17.9260
 2.3290	17.8970
 2.3300	17.8620
 2.3310	17.8450
 2.3320	17.8020
 2.3330	17.7390
 2.3340	17.6840
 2.3350	17.6150
 2.3360	17.5530
 2.3370	17.5010
 2.3380	17.4480
 2.3390	17.3960
 2.3400	17.3360
 2.3410	17.2740
 2.3420	17.2130
 2.3430	17.1420
 2.3440	17.0830
 2.3450	17.0390
 2.3460	16.9890
 2.3470	16.9460
 2.3480	16.8940
 2.3490	16.8300
 2.3500	16.7740
 2.3510	16.7150
 2.3520	16.6620
 2.3530	16.6120
 2.3540	16.5740
 2.3550	16.5440
 2.3560	16.5010
 2.3570	16.4530
 2.3580	16.4030
 2.3590	16.3440
 2.3600	16.2910
 2.3610	16.2460
 2.3620	16.1920
 2.3630	16.1340
 2.3640	16.0660
 2.3650	16.0100
 2.3660	15.9640
 2.3670	15.9110
 2.3680	15.8880
 2.3690	15.8460
 2.3700	15.7840
 2.3710	15.7300
 2.3720	15.6530
 2.3730	15.5910
 2.3740	15.5450
 2.3750	15.5020
 2.3760	15.4600
 2.3770	15.4080
 2.3780	15.3570
 2.3790	15.3070
 2.3800	15.2590
 2.3810	15.2140
 2.3820	15.1590
 2.3830	15.0780
 2.3840	15.0050
 2.3850	14.9540
 2.3860	14.8970
 2.3870	14.8680
 2.3880	14.8450
 2.3890	14.7980
 2.3900	14.7650
 2.3910	14.7150
 2.3920	14.6540
 2.3930	14.5960
 2.3940	14.5260
 2.3950	14.4650
 2.3960	14.4200
 2.3970	14.3720
 2.3980	14.3160
 2.3990	14.2740
 2.4000	14.2320
 2.4010	14.1790
 2.4020	14.1320
 2.4030	14.0850
 2.4040	14.0390
 2.4050	13.9900
 2.4060	13.9370
 2.4070	13.8950
 2.4080	13.8470
 2.4090	13.7750
 2.4100	13.7180
 2.4110	13.6590
 2.4120	13.5840
 2.4130	13.5540
 2.4140	13.5240
 2.4150	13.4640
 2.4160	13.4240
 2.4170	13.3880
 2.4180	13.3450
 2.4190	13.2990
 2.4200	13.2490
 2.4210	13.1870
 2.4220	13.1290
 2.4230	13.1010
 2.4240	13.0710
 2.4250	13.0190
 2.4260	12.9520
 2.4270	12.8690
 2.4280	12.7910
 2.4290	12.7090
 2.4300	12.6610
 2.4310	12.6530
 2.4320	12.6290
 2.4330	12.6150
 2.4340	12.5790
 2.4350	12.4920
 2.4360	12.4310
 2.4370	12.3840
 2.4380	12.3210
 2.4390	12.2560
 2.4400	12.1970
 2.4410	12.1310
 2.4420	12.0880
 2.4430	12.0980
 2.4440	12.0830
 2.4450	12.0250
 2.4460	11.9710
 2.4470	11.9020
 2.4480	11.8230
 2.4490	11.7600
 2.4500	11.7230
 2.4510	11.6920
 2.4520	11.6530
 2.4530	11.6320
 2.4540	11.5990
 2.4550	11.5460
 2.4560	11.4950
 2.4570	11.4680
 2.4580	11.4490
 2.4590	11.3930
 2.4600	11.3560
 2.4610	11.3240
 2.4620	11.2570
 2.4630	11.1890
 2.4640	11.1230
 2.4650	11.0610
 2.4660	10.9880
 2.4670	10.9720
 2.4680	10.9940
 2.4690	10.9590
 2.4700	10.9340
 2.4710	10.8970
 2.4720	10.8580
 2.4730	10.8420
 2.4740	10.7980
 2.4750	10.7200
 2.4760	10.6650
 2.4770	10.5930
 2.4780	10.5450
 2.4790	10.5200
 2.4800	10.4900
 2.4810	10.4800
 2.4820	10.4820
 2.4830	10.5010
 2.4840	10.4950
 2.4850	10.4480
 2.4860	10.4670
 2.4870	10.4500
 2.4880	10.4120
 2.4890	10.3940
 2.4900	10.2760
 2.4910	10.1930
 2.4920	10.2310
 2.4930	10.2560
 2.4940	10.2900
 2.4950	10.3160
 2.4960	10.2440
 2.4970	10.1460
 2.4980	10.1260
 2.4990	10.0870
 2.5000	10.0960
