Name: Baccharis pilularis 1
Type: vegetation
Class: Shrub
Genus: Baccharis
Species: pilularis
Sample No.: VH097
Owner: UCSB
Wavelength Range: VSWIR
Origin: 34.418; -119.8455; WGS84
Collection Date: 6/3/2013
Description: Samples were collected as part of the HyspIRI Airborne Campaign. 48 individual plants were sampled in three times in 2013 - spring  summer  and fall. The name of the sample includes a 1  2  or 3 which references a different individual of the species. Samples were taken to JPL and processed within 48 hours of collection. The same leaves were processed in the Nicolet and then measured using the ASD.
Measurement: Bidirectional reflectance
First Column: X
Second Column: Y
X Units: Wavelength (micrometers)
Y Units: Reflectance (percentage)
First X Value: 0.35
Last X Value: 2.5
Number of X Values: 2151
Additional Information: vegetation.shrub.baccharis.pilularis.vswir.vh097.ucsb.asd.ancillary.txt

 0.3500	 4.3670
 0.3510	 4.0740
 0.3520	 4.0110
 0.3530	 4.0460
 0.3540	 3.9980
 0.3550	 3.8990
 0.3560	 3.9680
 0.3570	 4.1480
 0.3580	 4.2360
 0.3590	 4.0720
 0.3600	 4.0130
 0.3610	 4.1340
 0.3620	 4.0610
 0.3630	 4.0470
 0.3640	 4.0520
 0.3650	 4.0190
 0.3660	 4.1200
 0.3670	 4.1810
 0.3680	 4.1540
 0.3690	 4.0920
 0.3700	 4.0470
 0.3710	 4.0420
 0.3720	 4.0710
 0.3730	 4.1030
 0.3740	 4.0970
 0.3750	 4.0940
 0.3760	 4.1390
 0.3770	 4.1390
 0.3780	 4.1040
 0.3790	 4.0800
 0.3800	 4.1310
 0.3810	 4.1650
 0.3820	 4.1810
 0.3830	 4.1890
 0.3840	 4.1820
 0.3850	 4.2050
 0.3860	 4.2550
 0.3870	 4.2980
 0.3880	 4.2240
 0.3890	 4.2140
 0.3900	 4.2850
 0.3910	 4.2860
 0.3920	 4.3650
 0.3930	 4.4110
 0.3940	 4.3610
 0.3950	 4.4340
 0.3960	 4.4650
 0.3970	 4.4750
 0.3980	 4.5480
 0.3990	 4.5850
 0.4000	 4.6360
 0.4010	 4.6960
 0.4020	 4.6620
 0.4030	 4.6810
 0.4040	 4.7340
 0.4050	 4.7730
 0.4060	 4.7880
 0.4070	 4.8270
 0.4080	 4.8870
 0.4090	 4.9330
 0.4100	 4.9780
 0.4110	 5.0250
 0.4120	 5.0690
 0.4130	 5.0930
 0.4140	 5.1400
 0.4150	 5.2040
 0.4160	 5.2670
 0.4170	 5.3330
 0.4180	 5.3690
 0.4190	 5.3800
 0.4200	 5.4140
 0.4210	 5.4600
 0.4220	 5.5220
 0.4230	 5.5930
 0.4240	 5.6360
 0.4250	 5.6690
 0.4260	 5.7010
 0.4270	 5.7390
 0.4280	 5.7920
 0.4290	 5.8480
 0.4300	 5.9030
 0.4310	 5.9580
 0.4320	 5.9880
 0.4330	 6.0110
 0.4340	 6.0480
 0.4350	 6.0780
 0.4360	 6.1070
 0.4370	 6.1370
 0.4380	 6.1760
 0.4390	 6.2190
 0.4400	 6.2530
 0.4410	 6.2750
 0.4420	 6.3060
 0.4430	 6.3460
 0.4440	 6.3810
 0.4450	 6.3970
 0.4460	 6.4250
 0.4470	 6.4600
 0.4480	 6.4940
 0.4490	 6.5210
 0.4500	 6.5370
 0.4510	 6.5560
 0.4520	 6.5910
 0.4530	 6.6190
 0.4540	 6.6360
 0.4550	 6.6510
 0.4560	 6.6730
 0.4570	 6.7050
 0.4580	 6.7250
 0.4590	 6.7260
 0.4600	 6.7380
 0.4610	 6.7570
 0.4620	 6.7730
 0.4630	 6.7810
 0.4640	 6.7910
 0.4650	 6.7990
 0.4660	 6.8060
 0.4670	 6.8200
 0.4680	 6.8250
 0.4690	 6.8270
 0.4700	 6.8310
 0.4710	 6.8290
 0.4720	 6.8370
 0.4730	 6.8510
 0.4740	 6.8570
 0.4750	 6.8670
 0.4760	 6.8750
 0.4770	 6.8790
 0.4780	 6.8830
 0.4790	 6.8880
 0.4800	 6.9000
 0.4810	 6.9180
 0.4820	 6.9180
 0.4830	 6.9210
 0.4840	 6.9360
 0.4850	 6.9540
 0.4860	 6.9680
 0.4870	 6.9880
 0.4880	 7.0190
 0.4890	 7.0400
 0.4900	 7.0640
 0.4910	 7.0920
 0.4920	 7.1230
 0.4930	 7.1460
 0.4940	 7.1770
 0.4950	 7.2200
 0.4960	 7.2600
 0.4970	 7.3020
 0.4980	 7.3500
 0.4990	 7.4050
 0.5000	 7.4640
 0.5010	 7.5250
 0.5020	 7.5900
 0.5030	 7.6670
 0.5040	 7.7490
 0.5050	 7.8400
 0.5060	 7.9420
 0.5070	 8.0400
 0.5080	 8.1560
 0.5090	 8.2910
 0.5100	 8.4320
 0.5110	 8.5760
 0.5120	 8.7330
 0.5130	 8.9070
 0.5140	 9.0890
 0.5150	 9.2830
 0.5160	 9.4860
 0.5170	 9.6960
 0.5180	 9.9160
 0.5190	10.1460
 0.5200	10.3810
 0.5210	10.6170
 0.5220	10.8510
 0.5230	11.0830
 0.5240	11.3120
 0.5250	11.5350
 0.5260	11.7480
 0.5270	11.9530
 0.5280	12.1540
 0.5290	12.3430
 0.5300	12.5170
 0.5310	12.6760
 0.5320	12.8210
 0.5330	12.9550
 0.5340	13.0780
 0.5350	13.1850
 0.5360	13.2890
 0.5370	13.3840
 0.5380	13.4680
 0.5390	13.5430
 0.5400	13.6160
 0.5410	13.6850
 0.5420	13.7510
 0.5430	13.8140
 0.5440	13.8740
 0.5450	13.9310
 0.5460	13.9810
 0.5470	14.0210
 0.5480	14.0580
 0.5490	14.0930
 0.5500	14.1230
 0.5510	14.1490
 0.5520	14.1640
 0.5530	14.1640
 0.5540	14.1510
 0.5550	14.1270
 0.5560	14.0900
 0.5570	14.0390
 0.5580	13.9790
 0.5590	13.9080
 0.5600	13.8250
 0.5610	13.7320
 0.5620	13.6320
 0.5630	13.5290
 0.5640	13.4210
 0.5650	13.3060
 0.5660	13.1880
 0.5670	13.0650
 0.5680	12.9240
 0.5690	12.7810
 0.5700	12.6420
 0.5710	12.5070
 0.5720	12.3750
 0.5730	12.2420
 0.5740	12.1130
 0.5750	11.9970
 0.5760	11.8930
 0.5770	11.7960
 0.5780	11.7020
 0.5790	11.6140
 0.5800	11.5270
 0.5810	11.4430
 0.5820	11.3640
 0.5830	11.3010
 0.5840	11.2450
 0.5850	11.1890
 0.5860	11.1320
 0.5870	11.0710
 0.5880	11.0050
 0.5890	10.9390
 0.5900	10.8870
 0.5910	10.8470
 0.5920	10.8160
 0.5930	10.7920
 0.5940	10.7660
 0.5950	10.7380
 0.5960	10.7100
 0.5970	10.6830
 0.5980	10.6600
 0.5990	10.6400
 0.6000	10.6200
 0.6010	10.5930
 0.6020	10.5590
 0.6030	10.5200
 0.6040	10.4730
 0.6050	10.4230
 0.6060	10.3640
 0.6070	10.2940
 0.6080	10.2250
 0.6090	10.1590
 0.6100	10.0960
 0.6110	10.0310
 0.6120	 9.9540
 0.6130	 9.8760
 0.6140	 9.8010
 0.6150	 9.7270
 0.6160	 9.6580
 0.6170	 9.5960
 0.6180	 9.5390
 0.6190	 9.4880
 0.6200	 9.4410
 0.6210	 9.3980
 0.6220	 9.3570
 0.6230	 9.3270
 0.6240	 9.3020
 0.6250	 9.2800
 0.6260	 9.2650
 0.6270	 9.2520
 0.6280	 9.2390
 0.6290	 9.2260
 0.6300	 9.2200
 0.6310	 9.2110
 0.6320	 9.1940
 0.6330	 9.1720
 0.6340	 9.1500
 0.6350	 9.1210
 0.6360	 9.0790
 0.6370	 9.0270
 0.6380	 8.9750
 0.6390	 8.9170
 0.6400	 8.8470
 0.6410	 8.7740
 0.6420	 8.7000
 0.6430	 8.6260
 0.6440	 8.5490
 0.6450	 8.4710
 0.6460	 8.3960
 0.6470	 8.3260
 0.6480	 8.2580
 0.6490	 8.1980
 0.6500	 8.1470
 0.6510	 8.0990
 0.6520	 8.0570
 0.6530	 8.0180
 0.6540	 7.9770
 0.6550	 7.9320
 0.6560	 7.8850
 0.6570	 7.8360
 0.6580	 7.7810
 0.6590	 7.7220
 0.6600	 7.6630
 0.6610	 7.6050
 0.6620	 7.5420
 0.6630	 7.4880
 0.6640	 7.4400
 0.6650	 7.3950
 0.6660	 7.3580
 0.6670	 7.3300
 0.6680	 7.3090
 0.6690	 7.2930
 0.6700	 7.2820
 0.6710	 7.2770
 0.6720	 7.2770
 0.6730	 7.2810
 0.6740	 7.2950
 0.6750	 7.3130
 0.6760	 7.3310
 0.6770	 7.3570
 0.6780	 7.3900
 0.6790	 7.4280
 0.6800	 7.4710
 0.6810	 7.5200
 0.6820	 7.5780
 0.6830	 7.6490
 0.6840	 7.7330
 0.6850	 7.8300
 0.6860	 7.9480
 0.6870	 8.0950
 0.6880	 8.2740
 0.6890	 8.4910
 0.6900	 8.7550
 0.6910	 9.0730
 0.6920	 9.4440
 0.6930	 9.8730
 0.6940	10.3600
 0.6950	10.9070
 0.6960	11.5100
 0.6970	12.1630
 0.6980	12.8640
 0.6990	13.6060
 0.7000	14.3820
 0.7010	15.1860
 0.7020	16.0180
 0.7030	16.8640
 0.7040	17.7200
 0.7050	18.5810
 0.7060	19.4390
 0.7070	20.2960
 0.7080	21.1490
 0.7090	21.9990
 0.7100	22.8410
 0.7110	23.6820
 0.7120	24.5190
 0.7130	25.3400
 0.7140	26.1470
 0.7150	26.9440
 0.7160	27.7330
 0.7170	28.5110
 0.7180	29.2710
 0.7190	30.0120
 0.7200	30.7400
 0.7210	31.4510
 0.7220	32.1410
 0.7230	32.8100
 0.7240	33.4540
 0.7250	34.0740
 0.7260	34.6670
 0.7270	35.2330
 0.7280	35.7770
 0.7290	36.2990
 0.7300	36.7950
 0.7310	37.2620
 0.7320	37.7010
 0.7330	38.1200
 0.7340	38.5180
 0.7350	38.8890
 0.7360	39.2380
 0.7370	39.5650
 0.7380	39.8710
 0.7390	40.1600
 0.7400	40.4290
 0.7410	40.6800
 0.7420	40.9120
 0.7430	41.1270
 0.7440	41.3260
 0.7450	41.5110
 0.7460	41.6800
 0.7470	41.8380
 0.7480	41.9800
 0.7490	42.1070
 0.7500	42.2320
 0.7510	42.3450
 0.7520	42.4470
 0.7530	42.5400
 0.7540	42.6240
 0.7550	42.6990
 0.7560	42.7680
 0.7570	42.8350
 0.7580	42.9000
 0.7590	42.9570
 0.7600	43.0060
 0.7610	43.0570
 0.7620	43.1010
 0.7630	43.1420
 0.7640	43.1860
 0.7650	43.2240
 0.7660	43.2590
 0.7670	43.2910
 0.7680	43.3160
 0.7690	43.3470
 0.7700	43.3760
 0.7710	43.4020
 0.7720	43.4300
 0.7730	43.4520
 0.7740	43.4760
 0.7750	43.5080
 0.7760	43.5380
 0.7770	43.5630
 0.7780	43.5830
 0.7790	43.6030
 0.7800	43.6320
 0.7810	43.6590
 0.7820	43.6810
 0.7830	43.7050
 0.7840	43.7320
 0.7850	43.7590
 0.7860	43.7840
 0.7870	43.8050
 0.7880	43.8260
 0.7890	43.8490
 0.7900	43.8730
 0.7910	43.8970
 0.7920	43.9220
 0.7930	43.9480
 0.7940	43.9690
 0.7950	43.9840
 0.7960	44.0030
 0.7970	44.0270
 0.7980	44.0430
 0.7990	44.0630
 0.8000	44.0810
 0.8010	44.0950
 0.8020	44.1090
 0.8030	44.1260
 0.8040	44.1410
 0.8050	44.1510
 0.8060	44.1640
 0.8070	44.1810
 0.8080	44.1970
 0.8090	44.2030
 0.8100	44.2080
 0.8110	44.2160
 0.8120	44.2280
 0.8130	44.2370
 0.8140	44.2450
 0.8150	44.2510
 0.8160	44.2580
 0.8170	44.2670
 0.8180	44.2730
 0.8190	44.2750
 0.8200	44.2790
 0.8210	44.2830
 0.8220	44.2860
 0.8230	44.2860
 0.8240	44.2840
 0.8250	44.2870
 0.8260	44.2900
 0.8270	44.2910
 0.8280	44.2880
 0.8290	44.2880
 0.8300	44.2850
 0.8310	44.2780
 0.8320	44.2750
 0.8330	44.2760
 0.8340	44.2800
 0.8350	44.2850
 0.8360	44.2840
 0.8370	44.2850
 0.8380	44.2890
 0.8390	44.2920
 0.8400	44.2980
 0.8410	44.2990
 0.8420	44.2970
 0.8430	44.3110
 0.8440	44.3200
 0.8450	44.3250
 0.8460	44.3290
 0.8470	44.3360
 0.8480	44.3420
 0.8490	44.3470
 0.8500	44.3520
 0.8510	44.3600
 0.8520	44.3720
 0.8530	44.3850
 0.8540	44.3920
 0.8550	44.3950
 0.8560	44.4050
 0.8570	44.4180
 0.8580	44.4230
 0.8590	44.4350
 0.8600	44.4440
 0.8610	44.4500
 0.8620	44.4680
 0.8630	44.4840
 0.8640	44.4940
 0.8650	44.5010
 0.8660	44.5100
 0.8670	44.5270
 0.8680	44.5430
 0.8690	44.5530
 0.8700	44.5710
 0.8710	44.5890
 0.8720	44.6040
 0.8730	44.6170
 0.8740	44.6280
 0.8750	44.6410
 0.8760	44.6610
 0.8770	44.6820
 0.8780	44.6960
 0.8790	44.7120
 0.8800	44.7320
 0.8810	44.7420
 0.8820	44.7570
 0.8830	44.7770
 0.8840	44.7980
 0.8850	44.8180
 0.8860	44.8370
 0.8870	44.8540
 0.8880	44.8690
 0.8890	44.8820
 0.8900	44.9030
 0.8910	44.9260
 0.8920	44.9410
 0.8930	44.9580
 0.8940	44.9750
 0.8950	44.9950
 0.8960	45.0190
 0.8970	45.0370
 0.8980	45.0540
 0.8990	45.0700
 0.9000	45.0810
 0.9010	45.1010
 0.9020	45.1220
 0.9030	45.1410
 0.9040	45.1620
 0.9050	45.1780
 0.9060	45.1960
 0.9070	45.2200
 0.9080	45.2420
 0.9090	45.2500
 0.9100	45.2580
 0.9110	45.2780
 0.9120	45.2920
 0.9130	45.3100
 0.9140	45.3270
 0.9150	45.3370
 0.9160	45.3530
 0.9170	45.3650
 0.9180	45.3750
 0.9190	45.3860
 0.9200	45.3990
 0.9210	45.4080
 0.9220	45.4100
 0.9230	45.4100
 0.9240	45.4100
 0.9250	45.4040
 0.9260	45.4010
 0.9270	45.4100
 0.9280	45.4120
 0.9290	45.4050
 0.9300	45.3890
 0.9310	45.3660
 0.9320	45.3540
 0.9330	45.3490
 0.9340	45.3400
 0.9350	45.3160
 0.9360	45.2850
 0.9370	45.2570
 0.9380	45.2350
 0.9390	45.2150
 0.9400	45.2070
 0.9410	45.1880
 0.9420	45.1470
 0.9430	45.1000
 0.9440	45.0540
 0.9450	45.0120
 0.9460	44.9710
 0.9470	44.9260
 0.9480	44.8730
 0.9490	44.8120
 0.9500	44.7450
 0.9510	44.6810
 0.9520	44.6040
 0.9530	44.5230
 0.9540	44.4480
 0.9550	44.3720
 0.9560	44.3000
 0.9570	44.2280
 0.9580	44.1530
 0.9590	44.0990
 0.9600	44.0510
 0.9610	44.0090
 0.9620	43.9740
 0.9630	43.9270
 0.9640	43.9010
 0.9650	43.8850
 0.9660	43.8620
 0.9670	43.8600
 0.9680	43.8600
 0.9690	43.8560
 0.9700	43.8470
 0.9710	43.8340
 0.9720	43.8290
 0.9730	43.8350
 0.9740	43.8480
 0.9750	43.8420
 0.9760	43.8430
 0.9770	43.8560
 0.9780	43.8730
 0.9790	43.8800
 0.9800	43.8950
 0.9810	43.9080
 0.9820	43.9100
 0.9830	43.9320
 0.9840	43.9540
 0.9850	43.9740
 0.9860	44.0000
 0.9870	44.0390
 0.9880	44.0660
 0.9890	44.0850
 0.9900	44.1120
 0.9910	44.1400
 0.9920	44.2150
 0.9930	44.2900
 0.9940	44.3650
 0.9950	44.4400
 0.9960	44.5150
 0.9970	44.5900
 0.9980	44.6650
 0.9990	44.7400
 1.0000	44.8150
 1.0010	44.8900
 1.0020	44.9650
 1.0030	45.0400
 1.0040	45.1150
 1.0050	45.1900
 1.0060	45.2650
 1.0070	45.3400
 1.0080	45.4150
 1.0090	45.4900
 1.0100	45.4900
 1.0110	45.5310
 1.0120	45.5660
 1.0130	45.5960
 1.0140	45.6300
 1.0150	45.6630
 1.0160	45.6990
 1.0170	45.7360
 1.0180	45.7720
 1.0190	45.8060
 1.0200	45.8380
 1.0210	45.8680
 1.0220	45.8950
 1.0230	45.9250
 1.0240	45.9540
 1.0250	45.9860
 1.0260	46.0260
 1.0270	46.0580
 1.0280	46.0880
 1.0290	46.1160
 1.0300	46.1400
 1.0310	46.1670
 1.0320	46.1970
 1.0330	46.2270
 1.0340	46.2570
 1.0350	46.2850
 1.0360	46.3100
 1.0370	46.3330
 1.0380	46.3590
 1.0390	46.3880
 1.0400	46.4130
 1.0410	46.4420
 1.0420	46.4660
 1.0430	46.4830
 1.0440	46.5040
 1.0450	46.5240
 1.0460	46.5430
 1.0470	46.5630
 1.0480	46.5830
 1.0490	46.6040
 1.0500	46.6220
 1.0510	46.6390
 1.0520	46.6570
 1.0530	46.6730
 1.0540	46.6860
 1.0550	46.7010
 1.0560	46.7190
 1.0570	46.7310
 1.0580	46.7410
 1.0590	46.7510
 1.0600	46.7610
 1.0610	46.7690
 1.0620	46.7760
 1.0630	46.7860
 1.0640	46.7960
 1.0650	46.8060
 1.0660	46.8190
 1.0670	46.8280
 1.0680	46.8340
 1.0690	46.8370
 1.0700	46.8410
 1.0710	46.8430
 1.0720	46.8450
 1.0730	46.8470
 1.0740	46.8500
 1.0750	46.8520
 1.0760	46.8540
 1.0770	46.8570
 1.0780	46.8560
 1.0790	46.8480
 1.0800	46.8440
 1.0810	46.8380
 1.0820	46.8330
 1.0830	46.8310
 1.0840	46.8280
 1.0850	46.8240
 1.0860	46.8200
 1.0870	46.8140
 1.0880	46.8080
 1.0890	46.7970
 1.0900	46.7820
 1.0910	46.7710
 1.0920	46.7600
 1.0930	46.7480
 1.0940	46.7400
 1.0950	46.7280
 1.0960	46.7150
 1.0970	46.7020
 1.0980	46.6880
 1.0990	46.6740
 1.1000	46.6620
 1.1010	46.6490
 1.1020	46.6360
 1.1030	46.6220
 1.1040	46.6090
 1.1050	46.5940
 1.1060	46.5780
 1.1070	46.5620
 1.1080	46.5450
 1.1090	46.5260
 1.1100	46.5070
 1.1110	46.4880
 1.1120	46.4690
 1.1130	46.4500
 1.1140	46.4290
 1.1150	46.4070
 1.1160	46.3820
 1.1170	46.3560
 1.1180	46.3250
 1.1190	46.2900
 1.1200	46.2520
 1.1210	46.2100
 1.1220	46.1660
 1.1230	46.1170
 1.1240	46.0630
 1.1250	46.0020
 1.1260	45.9360
 1.1270	45.8590
 1.1280	45.7740
 1.1290	45.6800
 1.1300	45.5780
 1.1310	45.4630
 1.1320	45.3400
 1.1330	45.2060
 1.1340	45.0590
 1.1350	44.9050
 1.1360	44.7430
 1.1370	44.5690
 1.1380	44.3910
 1.1390	44.2080
 1.1400	44.0190
 1.1410	43.8290
 1.1420	43.6360
 1.1430	43.4400
 1.1440	43.2510
 1.1450	43.0610
 1.1460	42.8780
 1.1470	42.6950
 1.1480	42.5270
 1.1490	42.3640
 1.1500	42.2150
 1.1510	42.0760
 1.1520	41.9480
 1.1530	41.8280
 1.1540	41.7210
 1.1550	41.6270
 1.1560	41.5440
 1.1570	41.4740
 1.1580	41.4110
 1.1590	41.3570
 1.1600	41.3110
 1.1610	41.2700
 1.1620	41.2370
 1.1630	41.2060
 1.1640	41.1790
 1.1650	41.1570
 1.1660	41.1390
 1.1670	41.1230
 1.1680	41.1150
 1.1690	41.1030
 1.1700	41.0930
 1.1710	41.0830
 1.1720	41.0700
 1.1730	41.0590
 1.1740	41.0500
 1.1750	41.0410
 1.1760	41.0300
 1.1770	41.0200
 1.1780	41.0100
 1.1790	40.9980
 1.1800	40.9880
 1.1810	40.9780
 1.1820	40.9640
 1.1830	40.9500
 1.1840	40.9370
 1.1850	40.9240
 1.1860	40.9120
 1.1870	40.9030
 1.1880	40.8940
 1.1890	40.8860
 1.1900	40.8800
 1.1910	40.8750
 1.1920	40.8740
 1.1930	40.8730
 1.1940	40.8760
 1.1950	40.8820
 1.1960	40.8880
 1.1970	40.8940
 1.1980	40.9070
 1.1990	40.9220
 1.2000	40.9380
 1.2010	40.9580
 1.2020	40.9760
 1.2030	40.9960
 1.2040	41.0170
 1.2050	41.0400
 1.2060	41.0660
 1.2070	41.0900
 1.2080	41.1150
 1.2090	41.1430
 1.2100	41.1690
 1.2110	41.1980
 1.2120	41.2290
 1.2130	41.2610
 1.2140	41.2950
 1.2150	41.3300
 1.2160	41.3670
 1.2170	41.4030
 1.2180	41.4380
 1.2190	41.4740
 1.2200	41.5100
 1.2210	41.5470
 1.2220	41.5840
 1.2230	41.6220
 1.2240	41.6560
 1.2250	41.6910
 1.2260	41.7260
 1.2270	41.7610
 1.2280	41.7950
 1.2290	41.8280
 1.2300	41.8580
 1.2310	41.8880
 1.2320	41.9180
 1.2330	41.9480
 1.2340	41.9770
 1.2350	42.0070
 1.2360	42.0370
 1.2370	42.0670
 1.2380	42.0950
 1.2390	42.1210
 1.2400	42.1450
 1.2410	42.1680
 1.2420	42.1890
 1.2430	42.2130
 1.2440	42.2370
 1.2450	42.2590
 1.2460	42.2820
 1.2470	42.3020
 1.2480	42.3220
 1.2490	42.3420
 1.2500	42.3620
 1.2510	42.3820
 1.2520	42.3970
 1.2530	42.4100
 1.2540	42.4220
 1.2550	42.4320
 1.2560	42.4420
 1.2570	42.4530
 1.2580	42.4620
 1.2590	42.4700
 1.2600	42.4770
 1.2610	42.4830
 1.2620	42.4890
 1.2630	42.4920
 1.2640	42.4940
 1.2650	42.4970
 1.2660	42.4960
 1.2670	42.4910
 1.2680	42.4870
 1.2690	42.4810
 1.2700	42.4750
 1.2710	42.4700
 1.2720	42.4610
 1.2730	42.4510
 1.2740	42.4380
 1.2750	42.4220
 1.2760	42.4070
 1.2770	42.3900
 1.2780	42.3700
 1.2790	42.3510
 1.2800	42.3290
 1.2810	42.3040
 1.2820	42.2770
 1.2830	42.2460
 1.2840	42.2130
 1.2850	42.1800
 1.2860	42.1450
 1.2870	42.1060
 1.2880	42.0660
 1.2890	42.0230
 1.2900	41.9780
 1.2910	41.9310
 1.2920	41.8810
 1.2930	41.8280
 1.2940	41.7730
 1.2950	41.7120
 1.2960	41.6470
 1.2970	41.5820
 1.2980	41.5100
 1.2990	41.4370
 1.3000	41.3640
 1.3010	41.2870
 1.3020	41.2070
 1.3030	41.1220
 1.3040	41.0310
 1.3050	40.9380
 1.3060	40.8420
 1.3070	40.7420
 1.3080	40.6420
 1.3090	40.5390
 1.3100	40.4310
 1.3110	40.3200
 1.3120	40.2010
 1.3130	40.0790
 1.3140	39.9550
 1.3150	39.8280
 1.3160	39.6980
 1.3170	39.5650
 1.3180	39.4270
 1.3190	39.2830
 1.3200	39.1390
 1.3210	38.9910
 1.3220	38.8400
 1.3230	38.6870
 1.3240	38.5290
 1.3250	38.3700
 1.3260	38.2070
 1.3270	38.0430
 1.3280	37.8770
 1.3290	37.7080
 1.3300	37.5380
 1.3310	37.3660
 1.3320	37.1930
 1.3330	37.0230
 1.3340	36.8520
 1.3350	36.6780
 1.3360	36.5060
 1.3370	36.3310
 1.3380	36.1570
 1.3390	35.9880
 1.3400	35.8180
 1.3410	35.6510
 1.3420	35.4860
 1.3430	35.3200
 1.3440	35.1570
 1.3450	34.9960
 1.3460	34.8370
 1.3470	34.6790
 1.3480	34.5220
 1.3490	34.3680
 1.3500	34.2150
 1.3510	34.0630
 1.3520	33.9130
 1.3530	33.7650
 1.3540	33.6160
 1.3550	33.4660
 1.3560	33.3130
 1.3570	33.1590
 1.3580	33.0020
 1.3590	32.8440
 1.3600	32.6810
 1.3610	32.5150
 1.3620	32.3420
 1.3630	32.1630
 1.3640	31.9750
 1.3650	31.7780
 1.3660	31.5740
 1.3670	31.3590
 1.3680	31.1320
 1.3690	30.8930
 1.3700	30.6380
 1.3710	30.3680
 1.3720	30.0830
 1.3730	29.7780
 1.3740	29.4560
 1.3750	29.1150
 1.3760	28.7500
 1.3770	28.3660
 1.3780	27.9570
 1.3790	27.5250
 1.3800	27.0750
 1.3810	26.6000
 1.3820	26.1120
 1.3830	25.6060
 1.3840	25.0880
 1.3850	24.5540
 1.3860	24.0150
 1.3870	23.4610
 1.3880	22.9110
 1.3890	22.3570
 1.3900	21.8020
 1.3910	21.2550
 1.3920	20.7110
 1.3930	20.1720
 1.3940	19.6460
 1.3950	19.1260
 1.3960	18.6220
 1.3970	18.1370
 1.3980	17.6680
 1.3990	17.2260
 1.4000	16.8050
 1.4010	16.4020
 1.4020	16.0230
 1.4030	15.6630
 1.4040	15.3240
 1.4050	15.0090
 1.4060	14.7140
 1.4070	14.4430
 1.4080	14.1910
 1.4090	13.9570
 1.4100	13.7420
 1.4110	13.5430
 1.4120	13.3600
 1.4130	13.1930
 1.4140	13.0400
 1.4150	12.9010
 1.4160	12.7750
 1.4170	12.6600
 1.4180	12.5560
 1.4190	12.4600
 1.4200	12.3730
 1.4210	12.2940
 1.4220	12.2230
 1.4230	12.1590
 1.4240	12.1020
 1.4250	12.0500
 1.4260	12.0050
 1.4270	11.9630
 1.4280	11.9260
 1.4290	11.8940
 1.4300	11.8660
 1.4310	11.8420
 1.4320	11.8230
 1.4330	11.8070
 1.4340	11.7940
 1.4350	11.7830
 1.4360	11.7750
 1.4370	11.7690
 1.4380	11.7650
 1.4390	11.7650
 1.4400	11.7670
 1.4410	11.7710
 1.4420	11.7760
 1.4430	11.7820
 1.4440	11.7890
 1.4450	11.7970
 1.4460	11.8070
 1.4470	11.8180
 1.4480	11.8310
 1.4490	11.8450
 1.4500	11.8590
 1.4510	11.8740
 1.4520	11.8900
 1.4530	11.9080
 1.4540	11.9280
 1.4550	11.9500
 1.4560	11.9730
 1.4570	11.9990
 1.4580	12.0270
 1.4590	12.0570
 1.4600	12.0910
 1.4610	12.1280
 1.4620	12.1680
 1.4630	12.2120
 1.4640	12.2580
 1.4650	12.3090
 1.4660	12.3640
 1.4670	12.4220
 1.4680	12.4850
 1.4690	12.5510
 1.4700	12.6200
 1.4710	12.6940
 1.4720	12.7700
 1.4730	12.8490
 1.4740	12.9310
 1.4750	13.0160
 1.4760	13.1030
 1.4770	13.1930
 1.4780	13.2830
 1.4790	13.3760
 1.4800	13.4700
 1.4810	13.5650
 1.4820	13.6630
 1.4830	13.7620
 1.4840	13.8630
 1.4850	13.9660
 1.4860	14.0700
 1.4870	14.1750
 1.4880	14.2800
 1.4890	14.3850
 1.4900	14.4920
 1.4910	14.6010
 1.4920	14.7100
 1.4930	14.8210
 1.4940	14.9330
 1.4950	15.0440
 1.4960	15.1570
 1.4970	15.2700
 1.4980	15.3840
 1.4990	15.4980
 1.5000	15.6140
 1.5010	15.7310
 1.5020	15.8480
 1.5030	15.9650
 1.5040	16.0810
 1.5050	16.1960
 1.5060	16.3130
 1.5070	16.4310
 1.5080	16.5490
 1.5090	16.6660
 1.5100	16.7830
 1.5110	16.9000
 1.5120	17.0170
 1.5130	17.1340
 1.5140	17.2530
 1.5150	17.3720
 1.5160	17.4890
 1.5170	17.6070
 1.5180	17.7240
 1.5190	17.8400
 1.5200	17.9580
 1.5210	18.0740
 1.5220	18.1890
 1.5230	18.3060
 1.5240	18.4220
 1.5250	18.5380
 1.5260	18.6530
 1.5270	18.7670
 1.5280	18.8800
 1.5290	18.9930
 1.5300	19.1060
 1.5310	19.2200
 1.5320	19.3300
 1.5330	19.4410
 1.5340	19.5510
 1.5350	19.6600
 1.5360	19.7700
 1.5370	19.8780
 1.5380	19.9860
 1.5390	20.0940
 1.5400	20.2000
 1.5410	20.3080
 1.5420	20.4150
 1.5430	20.5220
 1.5440	20.6280
 1.5450	20.7320
 1.5460	20.8360
 1.5470	20.9390
 1.5480	21.0420
 1.5490	21.1450
 1.5500	21.2470
 1.5510	21.3480
 1.5520	21.4480
 1.5530	21.5450
 1.5540	21.6410
 1.5550	21.7370
 1.5560	21.8320
 1.5570	21.9280
 1.5580	22.0210
 1.5590	22.1140
 1.5600	22.2080
 1.5610	22.2990
 1.5620	22.3890
 1.5630	22.4810
 1.5640	22.5690
 1.5650	22.6580
 1.5660	22.7470
 1.5670	22.8360
 1.5680	22.9240
 1.5690	23.0110
 1.5700	23.0950
 1.5710	23.1770
 1.5720	23.2600
 1.5730	23.3440
 1.5740	23.4250
 1.5750	23.5070
 1.5760	23.5850
 1.5770	23.6620
 1.5780	23.7410
 1.5790	23.8200
 1.5800	23.8990
 1.5810	23.9780
 1.5820	24.0550
 1.5830	24.1300
 1.5840	24.2040
 1.5850	24.2770
 1.5860	24.3490
 1.5870	24.4210
 1.5880	24.4920
 1.5890	24.5630
 1.5900	24.6340
 1.5910	24.7030
 1.5920	24.7720
 1.5930	24.8390
 1.5940	24.9060
 1.5950	24.9730
 1.5960	25.0380
 1.5970	25.1060
 1.5980	25.1720
 1.5990	25.2350
 1.6000	25.2990
 1.6010	25.3590
 1.6020	25.4180
 1.6030	25.4780
 1.6040	25.5370
 1.6050	25.5950
 1.6060	25.6530
 1.6070	25.7100
 1.6080	25.7650
 1.6090	25.8180
 1.6100	25.8710
 1.6110	25.9230
 1.6120	25.9750
 1.6130	26.0280
 1.6140	26.0800
 1.6150	26.1300
 1.6160	26.1790
 1.6170	26.2240
 1.6180	26.2690
 1.6190	26.3140
 1.6200	26.3560
 1.6210	26.3990
 1.6220	26.4420
 1.6230	26.4840
 1.6240	26.5250
 1.6250	26.5640
 1.6260	26.6020
 1.6270	26.6380
 1.6280	26.6750
 1.6290	26.7110
 1.6300	26.7450
 1.6310	26.7800
 1.6320	26.8140
 1.6330	26.8470
 1.6340	26.8800
 1.6350	26.9130
 1.6360	26.9460
 1.6370	26.9780
 1.6380	27.0100
 1.6390	27.0410
 1.6400	27.0700
 1.6410	27.0990
 1.6420	27.1260
 1.6430	27.1520
 1.6440	27.1770
 1.6450	27.2010
 1.6460	27.2220
 1.6470	27.2420
 1.6480	27.2590
 1.6490	27.2720
 1.6500	27.2840
 1.6510	27.2910
 1.6520	27.2950
 1.6530	27.2990
 1.6540	27.3000
 1.6550	27.3020
 1.6560	27.3020
 1.6570	27.2990
 1.6580	27.2940
 1.6590	27.2860
 1.6600	27.2770
 1.6610	27.2680
 1.6620	27.2580
 1.6630	27.2480
 1.6640	27.2370
 1.6650	27.2250
 1.6660	27.2140
 1.6670	27.2030
 1.6680	27.1910
 1.6690	27.1760
 1.6700	27.1590
 1.6710	27.1400
 1.6720	27.1190
 1.6730	27.0990
 1.6740	27.0780
 1.6750	27.0540
 1.6760	27.0270
 1.6770	26.9990
 1.6780	26.9670
 1.6790	26.9340
 1.6800	26.9010
 1.6810	26.8660
 1.6820	26.8280
 1.6830	26.7880
 1.6840	26.7450
 1.6850	26.6990
 1.6860	26.6530
 1.6870	26.6060
 1.6880	26.5580
 1.6890	26.5120
 1.6900	26.4650
 1.6910	26.4170
 1.6920	26.3700
 1.6930	26.3220
 1.6940	26.2750
 1.6950	26.2290
 1.6960	26.1820
 1.6970	26.1340
 1.6980	26.0880
 1.6990	26.0430
 1.7000	25.9960
 1.7010	25.9500
 1.7020	25.9010
 1.7030	25.8490
 1.7040	25.7990
 1.7050	25.7500
 1.7060	25.6990
 1.7070	25.6480
 1.7080	25.5980
 1.7090	25.5470
 1.7100	25.4960
 1.7110	25.4470
 1.7120	25.3970
 1.7130	25.3490
 1.7140	25.3010
 1.7150	25.2540
 1.7160	25.2050
 1.7170	25.1560
 1.7180	25.1090
 1.7190	25.0620
 1.7200	25.0180
 1.7210	24.9750
 1.7220	24.9310
 1.7230	24.8860
 1.7240	24.8390
 1.7250	24.7920
 1.7260	24.7470
 1.7270	24.7030
 1.7280	24.6610
 1.7290	24.6180
 1.7300	24.5750
 1.7310	24.5320
 1.7320	24.4900
 1.7330	24.4460
 1.7340	24.4030
 1.7350	24.3580
 1.7360	24.3130
 1.7370	24.2650
 1.7380	24.2160
 1.7390	24.1650
 1.7400	24.1090
 1.7410	24.0530
 1.7420	23.9940
 1.7430	23.9330
 1.7440	23.8710
 1.7450	23.8070
 1.7460	23.7420
 1.7470	23.6750
 1.7480	23.6050
 1.7490	23.5370
 1.7500	23.4690
 1.7510	23.3990
 1.7520	23.3290
 1.7530	23.2580
 1.7540	23.1840
 1.7550	23.1130
 1.7560	23.0430
 1.7570	22.9730
 1.7580	22.9040
 1.7590	22.8360
 1.7600	22.7690
 1.7610	22.7040
 1.7620	22.6390
 1.7630	22.5740
 1.7640	22.5140
 1.7650	22.4570
 1.7660	22.4010
 1.7670	22.3470
 1.7680	22.2950
 1.7690	22.2420
 1.7700	22.1930
 1.7710	22.1490
 1.7720	22.1040
 1.7730	22.0590
 1.7740	22.0170
 1.7750	21.9740
 1.7760	21.9350
 1.7770	21.8990
 1.7780	21.8630
 1.7790	21.8300
 1.7800	21.7970
 1.7810	21.7640
 1.7820	21.7360
 1.7830	21.7090
 1.7840	21.6850
 1.7850	21.6650
 1.7860	21.6440
 1.7870	21.6260
 1.7880	21.6100
 1.7890	21.5940
 1.7900	21.5800
 1.7910	21.5670
 1.7920	21.5540
 1.7930	21.5430
 1.7940	21.5350
 1.7950	21.5270
 1.7960	21.5220
 1.7970	21.5180
 1.7980	21.5150
 1.7990	21.5130
 1.8000	21.5120
 1.8010	21.5110
 1.8020	21.5090
 1.8030	21.5090
 1.8040	21.5120
 1.8050	21.5130
 1.8060	21.5160
 1.8070	21.5170
 1.8080	21.5170
 1.8090	21.5180
 1.8100	21.5200
 1.8110	21.5210
 1.8120	21.5200
 1.8130	21.5170
 1.8140	21.5150
 1.8150	21.5130
 1.8160	21.5100
 1.8170	21.5080
 1.8180	21.5040
 1.8190	21.5000
 1.8200	21.4920
 1.8210	21.4790
 1.8220	21.4670
 1.8230	21.4550
 1.8240	21.4410
 1.8250	21.4290
 1.8260	21.4140
 1.8270	21.3800
 1.8280	21.3460
 1.8290	21.3120
 1.8300	21.2780
 1.8310	21.2450
 1.8320	21.2110
 1.8330	21.1770
 1.8340	21.1430
 1.8350	21.1430
 1.8360	21.0870
 1.8370	21.0270
 1.8380	20.9670
 1.8390	20.8990
 1.8400	20.8280
 1.8410	20.7470
 1.8420	20.6590
 1.8430	20.5650
 1.8440	20.4620
 1.8450	20.3550
 1.8460	20.2440
 1.8470	20.1210
 1.8480	19.9880
 1.8490	19.8430
 1.8500	19.6890
 1.8510	19.5240
 1.8520	19.3490
 1.8530	19.1660
 1.8540	18.9750
 1.8550	18.7690
 1.8560	18.5510
 1.8570	18.3210
 1.8580	18.0750
 1.8590	17.8220
 1.8600	17.5580
 1.8610	17.2850
 1.8620	16.9960
 1.8630	16.7000
 1.8640	16.3910
 1.8650	16.0670
 1.8660	15.7340
 1.8670	15.3850
 1.8680	15.0250
 1.8690	14.6550
 1.8700	14.2780
 1.8710	13.8920
 1.8720	13.5060
 1.8730	13.1140
 1.8740	12.7220
 1.8750	12.3320
 1.8760	11.9420
 1.8770	11.5600
 1.8780	11.1870
 1.8790	10.8230
 1.8800	10.4720
 1.8810	10.1340
 1.8820	 9.8050
 1.8830	 9.4840
 1.8840	 9.1770
 1.8850	 8.8810
 1.8860	 8.5990
 1.8870	 8.3340
 1.8880	 8.0820
 1.8890	 7.8450
 1.8900	 7.6250
 1.8910	 7.4200
 1.8920	 7.2280
 1.8930	 7.0570
 1.8940	 6.9020
 1.8950	 6.7580
 1.8960	 6.6290
 1.8970	 6.5110
 1.8980	 6.4050
 1.8990	 6.3090
 1.9000	 6.2210
 1.9010	 6.1450
 1.9020	 6.0750
 1.9030	 6.0130
 1.9040	 5.9590
 1.9050	 5.9130
 1.9060	 5.8700
 1.9070	 5.8310
 1.9080	 5.7980
 1.9090	 5.7680
 1.9100	 5.7400
 1.9110	 5.7160
 1.9120	 5.6950
 1.9130	 5.6780
 1.9140	 5.6640
 1.9150	 5.6530
 1.9160	 5.6430
 1.9170	 5.6360
 1.9180	 5.6290
 1.9190	 5.6210
 1.9200	 5.6150
 1.9210	 5.6090
 1.9220	 5.6040
 1.9230	 5.6000
 1.9240	 5.5970
 1.9250	 5.5970
 1.9260	 5.5970
 1.9270	 5.5970
 1.9280	 5.6000
 1.9290	 5.6030
 1.9300	 5.6080
 1.9310	 5.6130
 1.9320	 5.6210
 1.9330	 5.6280
 1.9340	 5.6330
 1.9350	 5.6390
 1.9360	 5.6440
 1.9370	 5.6510
 1.9380	 5.6570
 1.9390	 5.6670
 1.9400	 5.6790
 1.9410	 5.6880
 1.9420	 5.6970
 1.9430	 5.7100
 1.9440	 5.7210
 1.9450	 5.7330
 1.9460	 5.7450
 1.9470	 5.7570
 1.9480	 5.7700
 1.9490	 5.7840
 1.9500	 5.8000
 1.9510	 5.8150
 1.9520	 5.8310
 1.9530	 5.8490
 1.9540	 5.8660
 1.9550	 5.8830
 1.9560	 5.9020
 1.9570	 5.9200
 1.9580	 5.9370
 1.9590	 5.9550
 1.9600	 5.9740
 1.9610	 5.9930
 1.9620	 6.0140
 1.9630	 6.0340
 1.9640	 6.0550
 1.9650	 6.0780
 1.9660	 6.1000
 1.9670	 6.1250
 1.9680	 6.1480
 1.9690	 6.1720
 1.9700	 6.1970
 1.9710	 6.2210
 1.9720	 6.2460
 1.9730	 6.2720
 1.9740	 6.2980
 1.9750	 6.3250
 1.9760	 6.3530
 1.9770	 6.3790
 1.9780	 6.4060
 1.9790	 6.4340
 1.9800	 6.4620
 1.9810	 6.4910
 1.9820	 6.5210
 1.9830	 6.5500
 1.9840	 6.5790
 1.9850	 6.6100
 1.9860	 6.6430
 1.9870	 6.6740
 1.9880	 6.7080
 1.9890	 6.7410
 1.9900	 6.7750
 1.9910	 6.8100
 1.9920	 6.8430
 1.9930	 6.8750
 1.9940	 6.9100
 1.9950	 6.9440
 1.9960	 6.9800
 1.9970	 7.0190
 1.9980	 7.0560
 1.9990	 7.0910
 2.0000	 7.1290
 2.0010	 7.1670
 2.0020	 7.2040
 2.0030	 7.2390
 2.0040	 7.2760
 2.0050	 7.3140
 2.0060	 7.3520
 2.0070	 7.3910
 2.0080	 7.4320
 2.0090	 7.4710
 2.0100	 7.5090
 2.0110	 7.5480
 2.0120	 7.5860
 2.0130	 7.6250
 2.0140	 7.6650
 2.0150	 7.7060
 2.0160	 7.7450
 2.0170	 7.7850
 2.0180	 7.8250
 2.0190	 7.8630
 2.0200	 7.9010
 2.0210	 7.9410
 2.0220	 7.9800
 2.0230	 8.0170
 2.0240	 8.0560
 2.0250	 8.0950
 2.0260	 8.1340
 2.0270	 8.1740
 2.0280	 8.2130
 2.0290	 8.2530
 2.0300	 8.2920
 2.0310	 8.3290
 2.0320	 8.3650
 2.0330	 8.4020
 2.0340	 8.4360
 2.0350	 8.4720
 2.0360	 8.5090
 2.0370	 8.5450
 2.0380	 8.5830
 2.0390	 8.6200
 2.0400	 8.6580
 2.0410	 8.6950
 2.0420	 8.7330
 2.0430	 8.7690
 2.0440	 8.8050
 2.0450	 8.8400
 2.0460	 8.8760
 2.0470	 8.9120
 2.0480	 8.9480
 2.0490	 8.9820
 2.0500	 9.0170
 2.0510	 9.0520
 2.0520	 9.0880
 2.0530	 9.1260
 2.0540	 9.1640
 2.0550	 9.2020
 2.0560	 9.2390
 2.0570	 9.2740
 2.0580	 9.3090
 2.0590	 9.3460
 2.0600	 9.3800
 2.0610	 9.4190
 2.0620	 9.4620
 2.0630	 9.5000
 2.0640	 9.5360
 2.0650	 9.5740
 2.0660	 9.6090
 2.0670	 9.6470
 2.0680	 9.6880
 2.0690	 9.7280
 2.0700	 9.7670
 2.0710	 9.8070
 2.0720	 9.8480
 2.0730	 9.8880
 2.0740	 9.9280
 2.0750	 9.9670
 2.0760	10.0060
 2.0770	10.0430
 2.0780	10.0830
 2.0790	10.1260
 2.0800	10.1650
 2.0810	10.2060
 2.0820	10.2450
 2.0830	10.2820
 2.0840	10.3190
 2.0850	10.3560
 2.0860	10.3940
 2.0870	10.4320
 2.0880	10.4700
 2.0890	10.5090
 2.0900	10.5490
 2.0910	10.5870
 2.0920	10.6250
 2.0930	10.6620
 2.0940	10.6970
 2.0950	10.7330
 2.0960	10.7680
 2.0970	10.8050
 2.0980	10.8420
 2.0990	10.8800
 2.1000	10.9180
 2.1010	10.9550
 2.1020	10.9920
 2.1030	11.0290
 2.1040	11.0670
 2.1050	11.1040
 2.1060	11.1410
 2.1070	11.1790
 2.1080	11.2150
 2.1090	11.2490
 2.1100	11.2840
 2.1110	11.3200
 2.1120	11.3550
 2.1130	11.3920
 2.1140	11.4280
 2.1150	11.4640
 2.1160	11.4990
 2.1170	11.5340
 2.1180	11.5690
 2.1190	11.6050
 2.1200	11.6390
 2.1210	11.6730
 2.1220	11.7060
 2.1230	11.7390
 2.1240	11.7690
 2.1250	11.8000
 2.1260	11.8320
 2.1270	11.8620
 2.1280	11.8940
 2.1290	11.9230
 2.1300	11.9530
 2.1310	11.9800
 2.1320	12.0040
 2.1330	12.0300
 2.1340	12.0560
 2.1350	12.0820
 2.1360	12.1100
 2.1370	12.1360
 2.1380	12.1600
 2.1390	12.1830
 2.1400	12.2040
 2.1410	12.2270
 2.1420	12.2480
 2.1430	12.2680
 2.1440	12.2900
 2.1450	12.3130
 2.1460	12.3350
 2.1470	12.3560
 2.1480	12.3780
 2.1490	12.4000
 2.1500	12.4210
 2.1510	12.4430
 2.1520	12.4630
 2.1530	12.4840
 2.1540	12.5020
 2.1550	12.5180
 2.1560	12.5370
 2.1570	12.5520
 2.1580	12.5700
 2.1590	12.5930
 2.1600	12.6140
 2.1610	12.6320
 2.1620	12.6500
 2.1630	12.6670
 2.1640	12.6810
 2.1650	12.6950
 2.1660	12.7080
 2.1670	12.7210
 2.1680	12.7320
 2.1690	12.7470
 2.1700	12.7640
 2.1710	12.7810
 2.1720	12.8000
 2.1730	12.8150
 2.1740	12.8290
 2.1750	12.8430
 2.1760	12.8550
 2.1770	12.8680
 2.1780	12.8820
 2.1790	12.8950
 2.1800	12.9110
 2.1810	12.9240
 2.1820	12.9380
 2.1830	12.9490
 2.1840	12.9600
 2.1850	12.9670
 2.1860	12.9800
 2.1870	12.9950
 2.1880	13.0070
 2.1890	13.0210
 2.1900	13.0320
 2.1910	13.0370
 2.1920	13.0480
 2.1930	13.0580
 2.1940	13.0700
 2.1950	13.0880
 2.1960	13.0980
 2.1970	13.1080
 2.1980	13.1130
 2.1990	13.1090
 2.2000	13.1100
 2.2010	13.1090
 2.2020	13.1120
 2.2030	13.1210
 2.2040	13.1250
 2.2050	13.1280
 2.2060	13.1290
 2.2070	13.1290
 2.2080	13.1250
 2.2090	13.1220
 2.2100	13.1190
 2.2110	13.1160
 2.2120	13.1120
 2.2130	13.1070
 2.2140	13.1020
 2.2150	13.0960
 2.2160	13.0870
 2.2170	13.0810
 2.2180	13.0780
 2.2190	13.0710
 2.2200	13.0630
 2.2210	13.0520
 2.2220	13.0350
 2.2230	13.0210
 2.2240	13.0060
 2.2250	12.9890
 2.2260	12.9760
 2.2270	12.9570
 2.2280	12.9340
 2.2290	12.9100
 2.2300	12.8820
 2.2310	12.8510
 2.2320	12.8220
 2.2330	12.7880
 2.2340	12.7540
 2.2350	12.7190
 2.2360	12.6840
 2.2370	12.6470
 2.2380	12.6120
 2.2390	12.5770
 2.2400	12.5370
 2.2410	12.4960
 2.2420	12.4540
 2.2430	12.4060
 2.2440	12.3640
 2.2450	12.3240
 2.2460	12.2850
 2.2470	12.2490
 2.2480	12.2090
 2.2490	12.1670
 2.2500	12.1270
 2.2510	12.0880
 2.2520	12.0480
 2.2530	12.0100
 2.2540	11.9690
 2.2550	11.9240
 2.2560	11.8790
 2.2570	11.8320
 2.2580	11.7850
 2.2590	11.7370
 2.2600	11.6890
 2.2610	11.6400
 2.2620	11.5920
 2.2630	11.5390
 2.2640	11.4950
 2.2650	11.4540
 2.2660	11.4100
 2.2670	11.3660
 2.2680	11.3220
 2.2690	11.2760
 2.2700	11.2280
 2.2710	11.1810
 2.2720	11.1350
 2.2730	11.0910
 2.2740	11.0480
 2.2750	11.0060
 2.2760	10.9630
 2.2770	10.9250
 2.2780	10.8900
 2.2790	10.8530
 2.2800	10.8200
 2.2810	10.7840
 2.2820	10.7430
 2.2830	10.7060
 2.2840	10.6730
 2.2850	10.6390
 2.2860	10.6080
 2.2870	10.5740
 2.2880	10.5370
 2.2890	10.5000
 2.2900	10.4600
 2.2910	10.4220
 2.2920	10.3870
 2.2930	10.3500
 2.2940	10.3110
 2.2950	10.2720
 2.2960	10.2320
 2.2970	10.1940
 2.2980	10.1560
 2.2990	10.1200
 2.3000	10.0840
 2.3010	10.0520
 2.3020	10.0150
 2.3030	 9.9790
 2.3040	 9.9460
 2.3050	 9.9090
 2.3060	 9.8760
 2.3070	 9.8460
 2.3080	 9.8210
 2.3090	 9.8020
 2.3100	 9.7840
 2.3110	 9.7660
 2.3120	 9.7500
 2.3130	 9.7360
 2.3140	 9.7200
 2.3150	 9.7060
 2.3160	 9.6890
 2.3170	 9.6660
 2.3180	 9.6470
 2.3190	 9.6280
 2.3200	 9.6080
 2.3210	 9.5900
 2.3220	 9.5700
 2.3230	 9.5490
 2.3240	 9.5270
 2.3250	 9.5060
 2.3260	 9.4810
 2.3270	 9.4520
 2.3280	 9.4250
 2.3290	 9.3980
 2.3300	 9.3690
 2.3310	 9.3400
 2.3320	 9.3110
 2.3330	 9.2790
 2.3340	 9.2500
 2.3350	 9.2280
 2.3360	 9.2010
 2.3370	 9.1720
 2.3380	 9.1430
 2.3390	 9.1110
 2.3400	 9.0790
 2.3410	 9.0480
 2.3420	 9.0180
 2.3430	 8.9880
 2.3440	 8.9590
 2.3450	 8.9280
 2.3460	 8.9020
 2.3470	 8.8840
 2.3480	 8.8590
 2.3490	 8.8360
 2.3500	 8.8080
 2.3510	 8.7700
 2.3520	 8.7390
 2.3530	 8.7090
 2.3540	 8.6820
 2.3550	 8.6590
 2.3560	 8.6320
 2.3570	 8.6110
 2.3580	 8.5870
 2.3590	 8.5660
 2.3600	 8.5500
 2.3610	 8.5280
 2.3620	 8.5070
 2.3630	 8.4780
 2.3640	 8.4480
 2.3650	 8.4260
 2.3660	 8.3990
 2.3670	 8.3820
 2.3680	 8.3650
 2.3690	 8.3350
 2.3700	 8.3090
 2.3710	 8.2810
 2.3720	 8.2500
 2.3730	 8.2300
 2.3740	 8.2120
 2.3750	 8.1930
 2.3760	 8.1730
 2.3770	 8.1470
 2.3780	 8.1130
 2.3790	 8.0760
 2.3800	 8.0420
 2.3810	 8.0170
 2.3820	 7.9920
 2.3830	 7.9670
 2.3840	 7.9410
 2.3850	 7.9050
 2.3860	 7.8730
 2.3870	 7.8440
 2.3880	 7.8190
 2.3890	 7.8020
 2.3900	 7.7790
 2.3910	 7.7570
 2.3920	 7.7330
 2.3930	 7.7020
 2.3940	 7.6770
 2.3950	 7.6550
 2.3960	 7.6350
 2.3970	 7.6100
 2.3980	 7.5740
 2.3990	 7.5410
 2.4000	 7.5010
 2.4010	 7.4680
 2.4020	 7.4510
 2.4030	 7.4300
 2.4040	 7.4090
 2.4050	 7.3940
 2.4060	 7.3770
 2.4070	 7.3610
 2.4080	 7.3380
 2.4090	 7.3110
 2.4100	 7.2830
 2.4110	 7.2490
 2.4120	 7.2170
 2.4130	 7.1870
 2.4140	 7.1520
 2.4150	 7.1210
 2.4160	 7.1030
 2.4170	 7.0760
 2.4180	 7.0530
 2.4190	 7.0400
 2.4200	 7.0160
 2.4210	 7.0000
 2.4220	 6.9870
 2.4230	 6.9510
 2.4240	 6.9180
 2.4250	 6.8780
 2.4260	 6.8350
 2.4270	 6.8110
 2.4280	 6.7870
 2.4290	 6.7600
 2.4300	 6.7460
 2.4310	 6.7290
 2.4320	 6.7080
 2.4330	 6.7010
 2.4340	 6.6880
 2.4350	 6.6620
 2.4360	 6.6370
 2.4370	 6.6140
 2.4380	 6.5940
 2.4390	 6.5670
 2.4400	 6.5250
 2.4410	 6.4910
 2.4420	 6.4540
 2.4430	 6.4200
 2.4440	 6.4090
 2.4450	 6.3790
 2.4460	 6.3480
 2.4470	 6.3300
 2.4480	 6.3190
 2.4490	 6.3290
 2.4500	 6.3250
 2.4510	 6.3080
 2.4520	 6.2940
 2.4530	 6.2660
 2.4540	 6.2360
 2.4550	 6.2230
 2.4560	 6.1990
 2.4570	 6.1680
 2.4580	 6.1460
 2.4590	 6.1220
 2.4600	 6.1080
 2.4610	 6.0940
 2.4620	 6.0850
 2.4630	 6.0710
 2.4640	 6.0290
 2.4650	 6.0100
 2.4660	 6.0070
 2.4670	 5.9870
 2.4680	 5.9870
 2.4690	 5.9650
 2.4700	 5.9450
 2.4710	 5.9150
 2.4720	 5.8980
 2.4730	 5.9030
 2.4740	 5.8980
 2.4750	 5.9010
 2.4760	 5.8890
 2.4770	 5.8570
 2.4780	 5.8350
 2.4790	 5.8070
 2.4800	 5.7930
 2.4810	 5.7990
 2.4820	 5.7660
 2.4830	 5.7650
 2.4840	 5.7650
 2.4850	 5.7620
 2.4860	 5.7790
 2.4870	 5.7760
 2.4880	 5.7660
 2.4890	 5.7420
 2.4900	 5.7030
 2.4910	 5.7030
 2.4920	 5.7100
 2.4930	 5.7060
 2.4940	 5.7130
 2.4950	 5.7200
 2.4960	 5.6870
 2.4970	 5.6410
 2.4980	 5.6210
 2.4990	 5.6050
 2.5000	 5.5980
