Name: Calodendrum capense
Type: vegetation
Class: Tree
Genus: Calodendrum
Species: capense
Sample No.: JPL193
Owner: JPL
Wavelength Range: VSWIR
Origin: 34.12568; -118.11443; WGS84
Collection Date: 10/3/2016
Description: Samples were collected at the Huntington Garden in San Marino California as part of a JPL Subcontract studying HyTES imagery. Samples were taken to JPL and processed within 48 hours of collection. The same leaves were processed in the Nicolet and then measured using the ASD.
Measurement: Bidirectional reflectance
First Column: X
Second Column: Y
X Units: Wavelength (micrometer)
Y Units: Reflectance (percentage)
First X Value: 0.35
Last X Value: 2.5
Number of X Values: 2151
Additional Information: vegetation.tree.calodendrum.capense.vswir.jpl193.jpl.asd.ancillary.txt

 0.3500	 7.2870
 0.3510	 7.2440
 0.3520	 7.1190
 0.3530	 6.9990
 0.3540	 6.9510
 0.3550	 6.9730
 0.3560	 6.9380
 0.3570	 6.9060
 0.3580	 6.9970
 0.3590	 6.9560
 0.3600	 6.9190
 0.3610	 6.9420
 0.3620	 6.9100
 0.3630	 6.9070
 0.3640	 6.9020
 0.3650	 6.8620
 0.3660	 6.8610
 0.3670	 6.8570
 0.3680	 6.8430
 0.3690	 6.8360
 0.3700	 6.8630
 0.3710	 6.8620
 0.3720	 6.8100
 0.3730	 6.7650
 0.3740	 6.7600
 0.3750	 6.7840
 0.3760	 6.8010
 0.3770	 6.7680
 0.3780	 6.7440
 0.3790	 6.7580
 0.3800	 6.8050
 0.3810	 6.7780
 0.3820	 6.7420
 0.3830	 6.7520
 0.3840	 6.7770
 0.3850	 6.7830
 0.3860	 6.7540
 0.3870	 6.7050
 0.3880	 6.7600
 0.3890	 6.8020
 0.3900	 6.7880
 0.3910	 6.7700
 0.3920	 6.7610
 0.3930	 6.7410
 0.3940	 6.7110
 0.3950	 6.7360
 0.3960	 6.7560
 0.3970	 6.7510
 0.3980	 6.7290
 0.3990	 6.7200
 0.4000	 6.7260
 0.4010	 6.7340
 0.4020	 6.7240
 0.4030	 6.7090
 0.4040	 6.7070
 0.4050	 6.7300
 0.4060	 6.7660
 0.4070	 6.7800
 0.4080	 6.7720
 0.4090	 6.7690
 0.4100	 6.7840
 0.4110	 6.7990
 0.4120	 6.8080
 0.4130	 6.8270
 0.4140	 6.8440
 0.4150	 6.8560
 0.4160	 6.8650
 0.4170	 6.8630
 0.4180	 6.8670
 0.4190	 6.8790
 0.4200	 6.8860
 0.4210	 6.9040
 0.4220	 6.9110
 0.4230	 6.9010
 0.4240	 6.9130
 0.4250	 6.9270
 0.4260	 6.9350
 0.4270	 6.9350
 0.4280	 6.9440
 0.4290	 6.9510
 0.4300	 6.9450
 0.4310	 6.9200
 0.4320	 6.9040
 0.4330	 6.9000
 0.4340	 6.9010
 0.4350	 6.8930
 0.4360	 6.8910
 0.4370	 6.9030
 0.4380	 6.9280
 0.4390	 6.9460
 0.4400	 6.9670
 0.4410	 6.9940
 0.4420	 7.0140
 0.4430	 7.0240
 0.4440	 7.0310
 0.4450	 7.0420
 0.4460	 7.0400
 0.4470	 7.0500
 0.4480	 7.0750
 0.4490	 7.0850
 0.4500	 7.0930
 0.4510	 7.0980
 0.4520	 7.1010
 0.4530	 7.1110
 0.4540	 7.1190
 0.4550	 7.1260
 0.4560	 7.1330
 0.4570	 7.1380
 0.4580	 7.1440
 0.4590	 7.1520
 0.4600	 7.1450
 0.4610	 7.1550
 0.4620	 7.1680
 0.4630	 7.1640
 0.4640	 7.1670
 0.4650	 7.1660
 0.4660	 7.1630
 0.4670	 7.1700
 0.4680	 7.1740
 0.4690	 7.1770
 0.4700	 7.1810
 0.4710	 7.1820
 0.4720	 7.1840
 0.4730	 7.1880
 0.4740	 7.1960
 0.4750	 7.1920
 0.4760	 7.1920
 0.4770	 7.2010
 0.4780	 7.2020
 0.4790	 7.2000
 0.4800	 7.2000
 0.4810	 7.2020
 0.4820	 7.2060
 0.4830	 7.2060
 0.4840	 7.2000
 0.4850	 7.1890
 0.4860	 7.1870
 0.4870	 7.1900
 0.4880	 7.1940
 0.4890	 7.2000
 0.4900	 7.2090
 0.4910	 7.2210
 0.4920	 7.2400
 0.4930	 7.2590
 0.4940	 7.2780
 0.4950	 7.2990
 0.4960	 7.3250
 0.4970	 7.3490
 0.4980	 7.3730
 0.4990	 7.4030
 0.5000	 7.4280
 0.5010	 7.4540
 0.5020	 7.4870
 0.5030	 7.5300
 0.5040	 7.5710
 0.5050	 7.6110
 0.5060	 7.6550
 0.5070	 7.7070
 0.5080	 7.7620
 0.5090	 7.8230
 0.5100	 7.8930
 0.5110	 7.9680
 0.5120	 8.0530
 0.5130	 8.1470
 0.5140	 8.2380
 0.5150	 8.3430
 0.5160	 8.4630
 0.5170	 8.5910
 0.5180	 8.7220
 0.5190	 8.8640
 0.5200	 9.0170
 0.5210	 9.1760
 0.5220	 9.3370
 0.5230	 9.5000
 0.5240	 9.6630
 0.5250	 9.8240
 0.5260	 9.9850
 0.5270	10.1420
 0.5280	10.2870
 0.5290	10.4260
 0.5300	10.5580
 0.5310	10.6810
 0.5320	10.7900
 0.5330	10.8900
 0.5340	10.9800
 0.5350	11.0590
 0.5360	11.1270
 0.5370	11.1810
 0.5380	11.2220
 0.5390	11.2520
 0.5400	11.2660
 0.5410	11.2640
 0.5420	11.2550
 0.5430	11.2500
 0.5440	11.2620
 0.5450	11.2940
 0.5460	11.3420
 0.5470	11.3990
 0.5480	11.4490
 0.5490	11.4860
 0.5500	11.5100
 0.5510	11.5300
 0.5520	11.5420
 0.5530	11.5440
 0.5540	11.5400
 0.5550	11.5240
 0.5560	11.4930
 0.5570	11.4490
 0.5580	11.3940
 0.5590	11.3300
 0.5600	11.2580
 0.5610	11.1750
 0.5620	11.0850
 0.5630	10.9900
 0.5640	10.8900
 0.5650	10.7820
 0.5660	10.6750
 0.5670	10.5710
 0.5680	10.4630
 0.5690	10.3560
 0.5700	10.2490
 0.5710	10.1440
 0.5720	10.0430
 0.5730	 9.9460
 0.5740	 9.8530
 0.5750	 9.7650
 0.5760	 9.6850
 0.5770	 9.6100
 0.5780	 9.5370
 0.5790	 9.4650
 0.5800	 9.4000
 0.5810	 9.3400
 0.5820	 9.2820
 0.5830	 9.2270
 0.5840	 9.1810
 0.5850	 9.1440
 0.5860	 9.1060
 0.5870	 9.0720
 0.5880	 9.0450
 0.5890	 9.0270
 0.5900	 9.0130
 0.5910	 8.9930
 0.5920	 8.9660
 0.5930	 8.9410
 0.5940	 8.9230
 0.5950	 8.9120
 0.5960	 8.9050
 0.5970	 8.8970
 0.5980	 8.8900
 0.5990	 8.8800
 0.6000	 8.8650
 0.6010	 8.8500
 0.6020	 8.8350
 0.6030	 8.8140
 0.6040	 8.7860
 0.6050	 8.7540
 0.6060	 8.7190
 0.6070	 8.6800
 0.6080	 8.6350
 0.6090	 8.5760
 0.6100	 8.4960
 0.6110	 8.4040
 0.6120	 8.3630
 0.6130	 8.3520
 0.6140	 8.3460
 0.6150	 8.3240
 0.6160	 8.2980
 0.6170	 8.2700
 0.6180	 8.2380
 0.6190	 8.2090
 0.6200	 8.1840
 0.6210	 8.1620
 0.6220	 8.1430
 0.6230	 8.1310
 0.6240	 8.1210
 0.6250	 8.1100
 0.6260	 8.1030
 0.6270	 8.0990
 0.6280	 8.0950
 0.6290	 8.0890
 0.6300	 8.0800
 0.6310	 8.0750
 0.6320	 8.0750
 0.6330	 8.0730
 0.6340	 8.0640
 0.6350	 8.0490
 0.6360	 8.0310
 0.6370	 8.0070
 0.6380	 7.9820
 0.6390	 7.9560
 0.6400	 7.9260
 0.6410	 7.8940
 0.6420	 7.8620
 0.6430	 7.8320
 0.6440	 7.8000
 0.6450	 7.7700
 0.6460	 7.7430
 0.6470	 7.7200
 0.6480	 7.6970
 0.6490	 7.6780
 0.6500	 7.6630
 0.6510	 7.6510
 0.6520	 7.6450
 0.6530	 7.6410
 0.6540	 7.6370
 0.6550	 7.6260
 0.6560	 7.6200
 0.6570	 7.6130
 0.6580	 7.6000
 0.6590	 7.5860
 0.6600	 7.5720
 0.6610	 7.5600
 0.6620	 7.5480
 0.6630	 7.5390
 0.6640	 7.5330
 0.6650	 7.5310
 0.6660	 7.5310
 0.6670	 7.5360
 0.6680	 7.5450
 0.6690	 7.5560
 0.6700	 7.5730
 0.6710	 7.5960
 0.6720	 7.6250
 0.6730	 7.6590
 0.6740	 7.6960
 0.6750	 7.7350
 0.6760	 7.7790
 0.6770	 7.8280
 0.6780	 7.8810
 0.6790	 7.9390
 0.6800	 8.0010
 0.6810	 8.0670
 0.6820	 8.1350
 0.6830	 8.2030
 0.6840	 8.2730
 0.6850	 8.3410
 0.6860	 8.4080
 0.6870	 8.4770
 0.6880	 8.5530
 0.6890	 8.6420
 0.6900	 8.7500
 0.6910	 8.8840
 0.6920	 9.0490
 0.6930	 9.2530
 0.6940	 9.5040
 0.6950	 9.8090
 0.6960	10.1710
 0.6970	10.5910
 0.6980	11.0710
 0.6990	11.6090
 0.7000	12.2020
 0.7010	12.8460
 0.7020	13.5360
 0.7030	14.2620
 0.7040	15.0200
 0.7050	15.8080
 0.7060	16.6200
 0.7070	17.4570
 0.7080	18.3160
 0.7090	19.1990
 0.7100	20.1060
 0.7110	21.0330
 0.7120	21.9780
 0.7130	22.9380
 0.7140	23.9200
 0.7150	24.9190
 0.7160	25.9250
 0.7170	26.9400
 0.7180	27.9610
 0.7190	28.9870
 0.7200	30.0140
 0.7210	31.0340
 0.7220	32.0460
 0.7230	33.0480
 0.7240	34.0360
 0.7250	35.0030
 0.7260	35.9470
 0.7270	36.8650
 0.7280	37.7560
 0.7290	38.6140
 0.7300	39.4410
 0.7310	40.2370
 0.7320	40.9960
 0.7330	41.7170
 0.7340	42.4000
 0.7350	43.0510
 0.7360	43.6630
 0.7370	44.2380
 0.7380	44.7760
 0.7390	45.2790
 0.7400	45.7480
 0.7410	46.1830
 0.7420	46.5830
 0.7430	46.9530
 0.7440	47.2910
 0.7450	47.5980
 0.7460	47.8780
 0.7470	48.1310
 0.7480	48.3590
 0.7490	48.5650
 0.7500	48.7470
 0.7510	48.9100
 0.7520	49.0550
 0.7530	49.1830
 0.7540	49.3010
 0.7550	49.4050
 0.7560	49.4960
 0.7570	49.5760
 0.7580	49.6500
 0.7590	49.7140
 0.7600	49.7680
 0.7610	49.8160
 0.7620	49.8600
 0.7630	49.8980
 0.7640	49.9280
 0.7650	49.9520
 0.7660	49.9720
 0.7670	49.9880
 0.7680	50.0030
 0.7690	50.0150
 0.7700	50.0240
 0.7710	50.0300
 0.7720	50.0350
 0.7730	50.0380
 0.7740	50.0410
 0.7750	50.0430
 0.7760	50.0440
 0.7770	50.0490
 0.7780	50.0540
 0.7790	50.0540
 0.7800	50.0590
 0.7810	50.0660
 0.7820	50.0710
 0.7830	50.0730
 0.7840	50.0750
 0.7850	50.0770
 0.7860	50.0780
 0.7870	50.0760
 0.7880	50.0730
 0.7890	50.0720
 0.7900	50.0710
 0.7910	50.0720
 0.7920	50.0710
 0.7930	50.0690
 0.7940	50.0660
 0.7950	50.0630
 0.7960	50.0590
 0.7970	50.0530
 0.7980	50.0440
 0.7990	50.0360
 0.8000	50.0290
 0.8010	50.0210
 0.8020	50.0120
 0.8030	50.0050
 0.8040	49.9990
 0.8050	49.9880
 0.8060	49.9780
 0.8070	49.9660
 0.8080	49.9540
 0.8090	49.9430
 0.8100	49.9320
 0.8110	49.9190
 0.8120	49.9050
 0.8130	49.8900
 0.8140	49.8800
 0.8150	49.8690
 0.8160	49.8510
 0.8170	49.8370
 0.8180	49.8230
 0.8190	49.8100
 0.8200	49.7970
 0.8210	49.7840
 0.8220	49.7720
 0.8230	49.7590
 0.8240	49.7470
 0.8250	49.7310
 0.8260	49.7160
 0.8270	49.7020
 0.8280	49.6880
 0.8290	49.6730
 0.8300	49.6600
 0.8310	49.6510
 0.8320	49.6400
 0.8330	49.6290
 0.8340	49.6190
 0.8350	49.6090
 0.8360	49.6040
 0.8370	49.5950
 0.8380	49.5840
 0.8390	49.5780
 0.8400	49.5720
 0.8410	49.5670
 0.8420	49.5630
 0.8430	49.5590
 0.8440	49.5540
 0.8450	49.5500
 0.8460	49.5490
 0.8470	49.5480
 0.8480	49.5490
 0.8490	49.5510
 0.8500	49.5550
 0.8510	49.5560
 0.8520	49.5600
 0.8530	49.5640
 0.8540	49.5620
 0.8550	49.5580
 0.8560	49.5590
 0.8570	49.5650
 0.8580	49.5670
 0.8590	49.5730
 0.8600	49.5800
 0.8610	49.5860
 0.8620	49.5910
 0.8630	49.5970
 0.8640	49.6060
 0.8650	49.6170
 0.8660	49.6260
 0.8670	49.6330
 0.8680	49.6410
 0.8690	49.6510
 0.8700	49.6540
 0.8710	49.6580
 0.8720	49.6670
 0.8730	49.6780
 0.8740	49.6890
 0.8750	49.7000
 0.8760	49.7090
 0.8770	49.7160
 0.8780	49.7280
 0.8790	49.7390
 0.8800	49.7480
 0.8810	49.7670
 0.8820	49.7760
 0.8830	49.7820
 0.8840	49.7940
 0.8850	49.8020
 0.8860	49.8060
 0.8870	49.8120
 0.8880	49.8240
 0.8890	49.8350
 0.8900	49.8450
 0.8910	49.8560
 0.8920	49.8650
 0.8930	49.8780
 0.8940	49.8900
 0.8950	49.8970
 0.8960	49.9020
 0.8970	49.9110
 0.8980	49.9220
 0.8990	49.9310
 0.9000	49.9370
 0.9010	49.9470
 0.9020	49.9550
 0.9030	49.9600
 0.9040	49.9700
 0.9050	49.9750
 0.9060	49.9790
 0.9070	49.9850
 0.9080	49.9910
 0.9090	49.9950
 0.9100	49.9980
 0.9110	50.0010
 0.9120	50.0070
 0.9130	50.0150
 0.9140	50.0200
 0.9150	50.0200
 0.9160	50.0150
 0.9170	50.0150
 0.9180	50.0180
 0.9190	50.0170
 0.9200	50.0080
 0.9210	50.0050
 0.9220	50.0070
 0.9230	50.0050
 0.9240	49.9960
 0.9250	49.9900
 0.9260	49.9860
 0.9270	49.9760
 0.9280	49.9590
 0.9290	49.9450
 0.9300	49.9360
 0.9310	49.9200
 0.9320	49.9010
 0.9330	49.8820
 0.9340	49.8640
 0.9350	49.8410
 0.9360	49.8170
 0.9370	49.7940
 0.9380	49.7720
 0.9390	49.7450
 0.9400	49.7220
 0.9410	49.7010
 0.9420	49.6750
 0.9430	49.6430
 0.9440	49.6030
 0.9450	49.5620
 0.9460	49.5250
 0.9470	49.4870
 0.9480	49.4410
 0.9490	49.3930
 0.9500	49.3480
 0.9510	49.2880
 0.9520	49.2400
 0.9530	49.1950
 0.9540	49.1400
 0.9550	49.0770
 0.9560	49.0190
 0.9570	48.9680
 0.9580	48.9240
 0.9590	48.8860
 0.9600	48.8510
 0.9610	48.8110
 0.9620	48.7630
 0.9630	48.7330
 0.9640	48.7020
 0.9650	48.6730
 0.9660	48.6530
 0.9670	48.6320
 0.9680	48.6150
 0.9690	48.6060
 0.9700	48.5990
 0.9710	48.5930
 0.9720	48.5680
 0.9730	48.5390
 0.9740	48.5290
 0.9750	48.5360
 0.9760	48.5290
 0.9770	48.5140
 0.9780	48.5090
 0.9790	48.4980
 0.9800	48.4980
 0.9810	48.5030
 0.9820	48.5030
 0.9830	48.5090
 0.9840	48.5170
 0.9850	48.5210
 0.9860	48.5210
 0.9870	48.5250
 0.9880	48.5450
 0.9890	48.5690
 0.9900	48.5790
 0.9910	48.5810
 0.9920	48.5840
 0.9930	48.5880
 0.9940	48.5940
 0.9950	48.6180
 0.9960	48.6360
 0.9970	48.6440
 0.9980	48.6490
 0.9990	48.6560
 1.0000	48.6700
 1.0010	49.5720
 1.0020	49.5860
 1.0030	49.5950
 1.0040	49.6080
 1.0050	49.6230
 1.0060	49.6410
 1.0070	49.6600
 1.0080	49.6770
 1.0090	49.6960
 1.0100	49.7120
 1.0110	49.7220
 1.0120	49.7380
 1.0130	49.7550
 1.0140	49.7720
 1.0150	49.7910
 1.0160	49.8110
 1.0170	49.8290
 1.0180	49.8440
 1.0190	49.8600
 1.0200	49.8780
 1.0210	49.8950
 1.0220	49.9110
 1.0230	49.9290
 1.0240	49.9460
 1.0250	49.9620
 1.0260	49.9800
 1.0270	49.9970
 1.0280	50.0110
 1.0290	50.0260
 1.0300	50.0430
 1.0310	50.0570
 1.0320	50.0690
 1.0330	50.0810
 1.0340	50.0930
 1.0350	50.1050
 1.0360	50.1180
 1.0370	50.1330
 1.0380	50.1480
 1.0390	50.1640
 1.0400	50.1770
 1.0410	50.1910
 1.0420	50.2030
 1.0430	50.2100
 1.0440	50.2220
 1.0450	50.2390
 1.0460	50.2510
 1.0470	50.2640
 1.0480	50.2740
 1.0490	50.2800
 1.0500	50.2870
 1.0510	50.2930
 1.0520	50.3010
 1.0530	50.3090
 1.0540	50.3180
 1.0550	50.3270
 1.0560	50.3390
 1.0570	50.3450
 1.0580	50.3480
 1.0590	50.3500
 1.0600	50.3450
 1.0610	50.3460
 1.0620	50.3520
 1.0630	50.3540
 1.0640	50.3550
 1.0650	50.3560
 1.0660	50.3550
 1.0670	50.3550
 1.0680	50.3550
 1.0690	50.3570
 1.0700	50.3570
 1.0710	50.3560
 1.0720	50.3550
 1.0730	50.3530
 1.0740	50.3520
 1.0750	50.3480
 1.0760	50.3470
 1.0770	50.3480
 1.0780	50.3460
 1.0790	50.3450
 1.0800	50.3420
 1.0810	50.3340
 1.0820	50.3280
 1.0830	50.3230
 1.0840	50.3170
 1.0850	50.3090
 1.0860	50.3040
 1.0870	50.2980
 1.0880	50.2900
 1.0890	50.2830
 1.0900	50.2760
 1.0910	50.2690
 1.0920	50.2630
 1.0930	50.2560
 1.0940	50.2490
 1.0950	50.2430
 1.0960	50.2380
 1.0970	50.2300
 1.0980	50.2230
 1.0990	50.2150
 1.1000	50.2030
 1.1010	50.1930
 1.1020	50.1850
 1.1030	50.1770
 1.1040	50.1660
 1.1050	50.1570
 1.1060	50.1470
 1.1070	50.1370
 1.1080	50.1270
 1.1090	50.1200
 1.1100	50.1090
 1.1110	50.0970
 1.1120	50.0850
 1.1130	50.0740
 1.1140	50.0610
 1.1150	50.0480
 1.1160	50.0340
 1.1170	50.0190
 1.1180	50.0010
 1.1190	49.9840
 1.1200	49.9620
 1.1210	49.9370
 1.1220	49.9100
 1.1230	49.8810
 1.1240	49.8500
 1.1250	49.8150
 1.1260	49.7790
 1.1270	49.7330
 1.1280	49.6820
 1.1290	49.6250
 1.1300	49.5620
 1.1310	49.4930
 1.1320	49.4200
 1.1330	49.3380
 1.1340	49.2480
 1.1350	49.1540
 1.1360	49.0520
 1.1370	48.9460
 1.1380	48.8310
 1.1390	48.7140
 1.1400	48.5940
 1.1410	48.4690
 1.1420	48.3450
 1.1430	48.2210
 1.1440	48.0940
 1.1450	47.9640
 1.1460	47.8380
 1.1470	47.7070
 1.1480	47.5870
 1.1490	47.4720
 1.1500	47.3630
 1.1510	47.2600
 1.1520	47.1610
 1.1530	47.0630
 1.1540	46.9750
 1.1550	46.8940
 1.1560	46.8190
 1.1570	46.7510
 1.1580	46.6910
 1.1590	46.6330
 1.1600	46.5800
 1.1610	46.5310
 1.1620	46.4860
 1.1630	46.4480
 1.1640	46.4120
 1.1650	46.3790
 1.1660	46.3490
 1.1670	46.3190
 1.1680	46.2910
 1.1690	46.2650
 1.1700	46.2410
 1.1710	46.2180
 1.1720	46.1990
 1.1730	46.1780
 1.1740	46.1560
 1.1750	46.1370
 1.1760	46.1170
 1.1770	46.0960
 1.1780	46.0760
 1.1790	46.0550
 1.1800	46.0320
 1.1810	46.0130
 1.1820	45.9910
 1.1830	45.9700
 1.1840	45.9510
 1.1850	45.9280
 1.1860	45.9070
 1.1870	45.8900
 1.1880	45.8730
 1.1890	45.8570
 1.1900	45.8420
 1.1910	45.8290
 1.1920	45.8160
 1.1930	45.8040
 1.1940	45.7930
 1.1950	45.7830
 1.1960	45.7740
 1.1970	45.7670
 1.1980	45.7630
 1.1990	45.7620
 1.2000	45.7620
 1.2010	45.7640
 1.2020	45.7680
 1.2030	45.7740
 1.2040	45.7820
 1.2050	45.7930
 1.2060	45.8050
 1.2070	45.8180
 1.2080	45.8320
 1.2090	45.8450
 1.2100	45.8610
 1.2110	45.8780
 1.2120	45.8960
 1.2130	45.9150
 1.2140	45.9360
 1.2150	45.9560
 1.2160	45.9760
 1.2170	45.9970
 1.2180	46.0180
 1.2190	46.0390
 1.2200	46.0590
 1.2210	46.0800
 1.2220	46.1010
 1.2230	46.1210
 1.2240	46.1450
 1.2250	46.1680
 1.2260	46.1900
 1.2270	46.2130
 1.2280	46.2310
 1.2290	46.2490
 1.2300	46.2700
 1.2310	46.2880
 1.2320	46.3060
 1.2330	46.3260
 1.2340	46.3440
 1.2350	46.3580
 1.2360	46.3740
 1.2370	46.3890
 1.2380	46.4030
 1.2390	46.4160
 1.2400	46.4290
 1.2410	46.4420
 1.2420	46.4560
 1.2430	46.4690
 1.2440	46.4820
 1.2450	46.4950
 1.2460	46.5040
 1.2470	46.5130
 1.2480	46.5230
 1.2490	46.5310
 1.2500	46.5390
 1.2510	46.5480
 1.2520	46.5560
 1.2530	46.5650
 1.2540	46.5750
 1.2550	46.5810
 1.2560	46.5870
 1.2570	46.5920
 1.2580	46.5960
 1.2590	46.5980
 1.2600	46.6000
 1.2610	46.6000
 1.2620	46.5980
 1.2630	46.5950
 1.2640	46.5920
 1.2650	46.5910
 1.2660	46.5880
 1.2670	46.5860
 1.2680	46.5830
 1.2690	46.5760
 1.2700	46.5690
 1.2710	46.5610
 1.2720	46.5510
 1.2730	46.5400
 1.2740	46.5280
 1.2750	46.5170
 1.2760	46.5030
 1.2770	46.4890
 1.2780	46.4740
 1.2790	46.4590
 1.2800	46.4420
 1.2810	46.4190
 1.2820	46.3970
 1.2830	46.3740
 1.2840	46.3460
 1.2850	46.3220
 1.2860	46.2950
 1.2870	46.2640
 1.2880	46.2300
 1.2890	46.1960
 1.2900	46.1580
 1.2910	46.1170
 1.2920	46.0750
 1.2930	46.0350
 1.2940	45.9920
 1.2950	45.9450
 1.2960	45.8990
 1.2970	45.8510
 1.2980	45.7980
 1.2990	45.7440
 1.3000	45.6880
 1.3010	45.6290
 1.3020	45.5680
 1.3030	45.5070
 1.3040	45.4420
 1.3050	45.3750
 1.3060	45.3060
 1.3070	45.2350
 1.3080	45.1640
 1.3090	45.0910
 1.3100	45.0140
 1.3110	44.9350
 1.3120	44.8530
 1.3130	44.7670
 1.3140	44.6800
 1.3150	44.5910
 1.3160	44.5010
 1.3170	44.4100
 1.3180	44.3160
 1.3190	44.2190
 1.3200	44.1200
 1.3210	44.0170
 1.3220	43.9140
 1.3230	43.8090
 1.3240	43.7010
 1.3250	43.5900
 1.3260	43.4780
 1.3270	43.3630
 1.3280	43.2470
 1.3290	43.1290
 1.3300	43.0100
 1.3310	42.8900
 1.3320	42.7670
 1.3330	42.6450
 1.3340	42.5220
 1.3350	42.3980
 1.3360	42.2760
 1.3370	42.1520
 1.3380	42.0280
 1.3390	41.9060
 1.3400	41.7840
 1.3410	41.6630
 1.3420	41.5420
 1.3430	41.4210
 1.3440	41.3020
 1.3450	41.1840
 1.3460	41.0690
 1.3470	40.9540
 1.3480	40.8390
 1.3490	40.7270
 1.3500	40.6160
 1.3510	40.5040
 1.3520	40.3950
 1.3530	40.2870
 1.3540	40.1770
 1.3550	40.0700
 1.3560	39.9600
 1.3570	39.8470
 1.3580	39.7340
 1.3590	39.6170
 1.3600	39.4970
 1.3610	39.3750
 1.3620	39.2470
 1.3630	39.1140
 1.3640	38.9760
 1.3650	38.8290
 1.3660	38.6760
 1.3670	38.5150
 1.3680	38.3420
 1.3690	38.1590
 1.3700	37.9620
 1.3710	37.7530
 1.3720	37.5310
 1.3730	37.2920
 1.3740	37.0380
 1.3750	36.7630
 1.3760	36.4690
 1.3770	36.1540
 1.3780	35.8120
 1.3790	35.4480
 1.3800	35.0620
 1.3810	34.6460
 1.3820	34.2130
 1.3830	33.7600
 1.3840	33.2860
 1.3850	32.7890
 1.3860	32.2790
 1.3870	31.7470
 1.3880	31.2100
 1.3890	30.6590
 1.3900	30.0980
 1.3910	29.5340
 1.3920	28.9660
 1.3930	28.3940
 1.3940	27.8270
 1.3950	27.2570
 1.3960	26.6960
 1.3970	26.1450
 1.3980	25.6050
 1.3990	25.0850
 1.4000	24.5810
 1.4010	24.0910
 1.4020	23.6210
 1.4030	23.1660
 1.4040	22.7320
 1.4050	22.3200
 1.4060	21.9270
 1.4070	21.5590
 1.4080	21.2110
 1.4090	20.8800
 1.4100	20.5710
 1.4110	20.2790
 1.4120	20.0050
 1.4130	19.7490
 1.4140	19.5090
 1.4150	19.2870
 1.4160	19.0800
 1.4170	18.8860
 1.4180	18.7040
 1.4190	18.5340
 1.4200	18.3760
 1.4210	18.2290
 1.4220	18.0920
 1.4230	17.9660
 1.4240	17.8480
 1.4250	17.7370
 1.4260	17.6360
 1.4270	17.5400
 1.4280	17.4510
 1.4290	17.3680
 1.4300	17.2940
 1.4310	17.2250
 1.4320	17.1640
 1.4330	17.1060
 1.4340	17.0530
 1.4350	17.0050
 1.4360	16.9610
 1.4370	16.9210
 1.4380	16.8870
 1.4390	16.8570
 1.4400	16.8300
 1.4410	16.8070
 1.4420	16.7860
 1.4430	16.7690
 1.4440	16.7560
 1.4450	16.7450
 1.4460	16.7350
 1.4470	16.7290
 1.4480	16.7240
 1.4490	16.7210
 1.4500	16.7210
 1.4510	16.7240
 1.4520	16.7280
 1.4530	16.7340
 1.4540	16.7430
 1.4550	16.7540
 1.4560	16.7680
 1.4570	16.7860
 1.4580	16.8070
 1.4590	16.8310
 1.4600	16.8590
 1.4610	16.8910
 1.4620	16.9270
 1.4630	16.9670
 1.4640	17.0130
 1.4650	17.0630
 1.4660	17.1170
 1.4670	17.1760
 1.4680	17.2400
 1.4690	17.3070
 1.4700	17.3790
 1.4710	17.4550
 1.4720	17.5350
 1.4730	17.6190
 1.4740	17.7070
 1.4750	17.7970
 1.4760	17.8900
 1.4770	17.9870
 1.4780	18.0850
 1.4790	18.1860
 1.4800	18.2880
 1.4810	18.3920
 1.4820	18.5000
 1.4830	18.6090
 1.4840	18.7200
 1.4850	18.8320
 1.4860	18.9440
 1.4870	19.0580
 1.4880	19.1730
 1.4890	19.2900
 1.4900	19.4080
 1.4910	19.5270
 1.4920	19.6460
 1.4930	19.7670
 1.4940	19.8900
 1.4950	20.0140
 1.4960	20.1380
 1.4970	20.2620
 1.4980	20.3870
 1.4990	20.5120
 1.5000	20.6370
 1.5010	20.7660
 1.5020	20.8920
 1.5030	21.0190
 1.5040	21.1460
 1.5050	21.2700
 1.5060	21.3980
 1.5070	21.5250
 1.5080	21.6530
 1.5090	21.7830
 1.5100	21.9120
 1.5110	22.0380
 1.5120	22.1660
 1.5130	22.2920
 1.5140	22.4190
 1.5150	22.5450
 1.5160	22.6700
 1.5170	22.7960
 1.5180	22.9210
 1.5190	23.0440
 1.5200	23.1690
 1.5210	23.2920
 1.5220	23.4160
 1.5230	23.5380
 1.5240	23.6590
 1.5250	23.7810
 1.5260	23.9000
 1.5270	24.0190
 1.5280	24.1390
 1.5290	24.2560
 1.5300	24.3730
 1.5310	24.4910
 1.5320	24.6070
 1.5330	24.7230
 1.5340	24.8370
 1.5350	24.9490
 1.5360	25.0620
 1.5370	25.1740
 1.5380	25.2850
 1.5390	25.3970
 1.5400	25.5070
 1.5410	25.6170
 1.5420	25.7250
 1.5430	25.8340
 1.5440	25.9400
 1.5450	26.0450
 1.5460	26.1500
 1.5470	26.2530
 1.5480	26.3570
 1.5490	26.4610
 1.5500	26.5640
 1.5510	26.6650
 1.5520	26.7640
 1.5530	26.8610
 1.5540	26.9570
 1.5550	27.0530
 1.5560	27.1490
 1.5570	27.2460
 1.5580	27.3410
 1.5590	27.4350
 1.5600	27.5250
 1.5610	27.6130
 1.5620	27.7020
 1.5630	27.7910
 1.5640	27.8780
 1.5650	27.9660
 1.5660	28.0510
 1.5670	28.1350
 1.5680	28.2200
 1.5690	28.3020
 1.5700	28.3850
 1.5710	28.4670
 1.5720	28.5470
 1.5730	28.6280
 1.5740	28.7100
 1.5750	28.7900
 1.5760	28.8690
 1.5770	28.9480
 1.5780	29.0260
 1.5790	29.1030
 1.5800	29.1810
 1.5810	29.2580
 1.5820	29.3330
 1.5830	29.4090
 1.5840	29.4820
 1.5850	29.5540
 1.5860	29.6260
 1.5870	29.6980
 1.5880	29.7690
 1.5890	29.8410
 1.5900	29.9110
 1.5910	29.9800
 1.5920	30.0500
 1.5930	30.1190
 1.5940	30.1870
 1.5950	30.2540
 1.5960	30.3190
 1.5970	30.3830
 1.5980	30.4470
 1.5990	30.5110
 1.6000	30.5740
 1.6010	30.6360
 1.6020	30.6970
 1.6030	30.7580
 1.6040	30.8190
 1.6050	30.8790
 1.6060	30.9370
 1.6070	30.9920
 1.6080	31.0480
 1.6090	31.1030
 1.6100	31.1600
 1.6110	31.2160
 1.6120	31.2710
 1.6130	31.3230
 1.6140	31.3740
 1.6150	31.4250
 1.6160	31.4770
 1.6170	31.5290
 1.6180	31.5800
 1.6190	31.6300
 1.6200	31.6790
 1.6210	31.7260
 1.6220	31.7700
 1.6230	31.8140
 1.6240	31.8590
 1.6250	31.9030
 1.6260	31.9470
 1.6270	31.9900
 1.6280	32.0310
 1.6290	32.0730
 1.6300	32.1160
 1.6310	32.1570
 1.6320	32.1970
 1.6330	32.2360
 1.6340	32.2740
 1.6350	32.3110
 1.6360	32.3480
 1.6370	32.3830
 1.6380	32.4190
 1.6390	32.4520
 1.6400	32.4840
 1.6410	32.5140
 1.6420	32.5420
 1.6430	32.5710
 1.6440	32.6010
 1.6450	32.6270
 1.6460	32.6530
 1.6470	32.6780
 1.6480	32.7020
 1.6490	32.7240
 1.6500	32.7450
 1.6510	32.7630
 1.6520	32.7790
 1.6530	32.7940
 1.6540	32.8060
 1.6550	32.8180
 1.6560	32.8280
 1.6570	32.8360
 1.6580	32.8440
 1.6590	32.8500
 1.6600	32.8540
 1.6610	32.8580
 1.6620	32.8590
 1.6630	32.8600
 1.6640	32.8570
 1.6650	32.8530
 1.6660	32.8490
 1.6670	32.8430
 1.6680	32.8340
 1.6690	32.8250
 1.6700	32.8120
 1.6710	32.7970
 1.6720	32.7820
 1.6730	32.7660
 1.6740	32.7470
 1.6750	32.7260
 1.6760	32.7030
 1.6770	32.6790
 1.6780	32.6510
 1.6790	32.6230
 1.6800	32.5940
 1.6810	32.5620
 1.6820	32.5290
 1.6830	32.4940
 1.6840	32.4560
 1.6850	32.4170
 1.6860	32.3760
 1.6870	32.3350
 1.6880	32.2930
 1.6890	32.2490
 1.6900	32.2070
 1.6910	32.1660
 1.6920	32.1240
 1.6930	32.0840
 1.6940	32.0420
 1.6950	31.9960
 1.6960	31.9520
 1.6970	31.9090
 1.6980	31.8650
 1.6990	31.8220
 1.7000	31.7760
 1.7010	31.7300
 1.7020	31.6820
 1.7030	31.6320
 1.7040	31.5820
 1.7050	31.5310
 1.7060	31.4790
 1.7070	31.4280
 1.7080	31.3740
 1.7090	31.3190
 1.7100	31.2660
 1.7110	31.2120
 1.7120	31.1610
 1.7130	31.1100
 1.7140	31.0610
 1.7150	31.0120
 1.7160	30.9650
 1.7170	30.9200
 1.7180	30.8760
 1.7190	30.8330
 1.7200	30.7900
 1.7210	30.7450
 1.7220	30.7030
 1.7230	30.6590
 1.7240	30.6170
 1.7250	30.5780
 1.7260	30.5370
 1.7270	30.4970
 1.7280	30.4570
 1.7290	30.4180
 1.7300	30.3840
 1.7310	30.3480
 1.7320	30.3130
 1.7330	30.2770
 1.7340	30.2410
 1.7350	30.2030
 1.7360	30.1680
 1.7370	30.1290
 1.7380	30.0880
 1.7390	30.0440
 1.7400	29.9970
 1.7410	29.9470
 1.7420	29.8940
 1.7430	29.8400
 1.7440	29.7850
 1.7450	29.7280
 1.7460	29.6690
 1.7470	29.6100
 1.7480	29.5480
 1.7490	29.4870
 1.7500	29.4240
 1.7510	29.3640
 1.7520	29.3030
 1.7530	29.2430
 1.7540	29.1840
 1.7550	29.1240
 1.7560	29.0670
 1.7570	29.0090
 1.7580	28.9550
 1.7590	28.9040
 1.7600	28.8510
 1.7610	28.8020
 1.7620	28.7540
 1.7630	28.7050
 1.7640	28.6590
 1.7650	28.6170
 1.7660	28.5760
 1.7670	28.5370
 1.7680	28.4970
 1.7690	28.4550
 1.7700	28.4160
 1.7710	28.3770
 1.7720	28.3420
 1.7730	28.3100
 1.7740	28.2780
 1.7750	28.2460
 1.7760	28.2150
 1.7770	28.1840
 1.7780	28.1570
 1.7790	28.1330
 1.7800	28.1120
 1.7810	28.0950
 1.7820	28.0800
 1.7830	28.0690
 1.7840	28.0580
 1.7850	28.0470
 1.7860	28.0420
 1.7870	28.0390
 1.7880	28.0380
 1.7890	28.0400
 1.7900	28.0400
 1.7910	28.0420
 1.7920	28.0450
 1.7930	28.0500
 1.7940	28.0570
 1.7950	28.0650
 1.7960	28.0740
 1.7970	28.0840
 1.7980	28.0940
 1.7990	28.1050
 1.8000	28.1170
 1.8010	28.1280
 1.8020	28.1390
 1.8030	28.1510
 1.8040	28.1640
 1.8050	28.1760
 1.8060	28.1880
 1.8070	28.1990
 1.8080	28.2070
 1.8090	28.2180
 1.8100	28.2300
 1.8110	28.2420
 1.8120	28.2540
 1.8130	28.2660
 1.8140	28.2770
 1.8150	28.2850
 1.8160	28.2920
 1.8170	28.3000
 1.8180	28.3050
 1.8190	28.3110
 1.8200	28.3150
 1.8210	28.3160
 1.8220	28.3160
 1.8230	28.3140
 1.8240	28.3110
 1.8250	28.3080
 1.8260	28.3020
 1.8270	28.2940
 1.8280	28.2850
 1.8290	28.2740
 1.8300	28.2600
 1.8310	29.0750
 1.8320	29.0470
 1.8330	29.0170
 1.8340	28.9890
 1.8350	28.9540
 1.8360	28.9140
 1.8370	28.8730
 1.8380	28.8220
 1.8390	28.7690
 1.8400	28.7160
 1.8410	28.6500
 1.8420	28.5740
 1.8430	28.4980
 1.8440	28.4120
 1.8450	28.3160
 1.8460	28.2190
 1.8470	28.1130
 1.8480	27.9930
 1.8490	27.8650
 1.8500	27.7260
 1.8510	27.5770
 1.8520	27.4170
 1.8530	27.2440
 1.8540	27.0600
 1.8550	26.8640
 1.8560	26.6520
 1.8570	26.4290
 1.8580	26.1880
 1.8590	25.9340
 1.8600	25.6650
 1.8610	25.3840
 1.8620	25.0820
 1.8630	24.7670
 1.8640	24.4380
 1.8650	24.0840
 1.8660	23.7200
 1.8670	23.3390
 1.8680	22.9370
 1.8690	22.5160
 1.8700	22.0810
 1.8710	21.6270
 1.8720	21.1630
 1.8730	20.6880
 1.8740	20.2060
 1.8750	19.7180
 1.8760	19.2180
 1.8770	18.7190
 1.8780	18.2210
 1.8790	17.7230
 1.8800	17.2330
 1.8810	16.7490
 1.8820	16.2650
 1.8830	15.7820
 1.8840	15.3110
 1.8850	14.8420
 1.8860	14.3860
 1.8870	13.9510
 1.8880	13.5250
 1.8890	13.1200
 1.8900	12.7410
 1.8910	12.3790
 1.8920	12.0330
 1.8930	11.7120
 1.8940	11.4130
 1.8950	11.1290
 1.8960	10.8720
 1.8970	10.6380
 1.8980	10.4220
 1.8990	10.2250
 1.9000	10.0420
 1.9010	 9.8770
 1.9020	 9.7250
 1.9030	 9.5900
 1.9040	 9.4700
 1.9050	 9.3620
 1.9060	 9.2690
 1.9070	 9.1880
 1.9080	 9.1140
 1.9090	 9.0510
 1.9100	 8.9970
 1.9110	 8.9460
 1.9120	 8.9030
 1.9130	 8.8620
 1.9140	 8.8240
 1.9150	 8.7870
 1.9160	 8.7540
 1.9170	 8.7250
 1.9180	 8.6990
 1.9190	 8.6780
 1.9200	 8.6580
 1.9210	 8.6430
 1.9220	 8.6300
 1.9230	 8.6210
 1.9240	 8.6120
 1.9250	 8.6060
 1.9260	 8.6000
 1.9270	 8.5960
 1.9280	 8.5920
 1.9290	 8.5880
 1.9300	 8.5880
 1.9310	 8.5880
 1.9320	 8.5910
 1.9330	 8.5960
 1.9340	 8.6040
 1.9350	 8.6130
 1.9360	 8.6240
 1.9370	 8.6340
 1.9380	 8.6430
 1.9390	 8.6520
 1.9400	 8.6630
 1.9410	 8.6760
 1.9420	 8.6890
 1.9430	 8.7090
 1.9440	 8.7270
 1.9450	 8.7460
 1.9460	 8.7650
 1.9470	 8.7840
 1.9480	 8.8040
 1.9490	 8.8240
 1.9500	 8.8470
 1.9510	 8.8700
 1.9520	 8.8920
 1.9530	 8.9160
 1.9540	 8.9410
 1.9550	 8.9660
 1.9560	 8.9950
 1.9570	 9.0220
 1.9580	 9.0490
 1.9590	 9.0780
 1.9600	 9.1080
 1.9610	 9.1390
 1.9620	 9.1730
 1.9630	 9.2070
 1.9640	 9.2400
 1.9650	 9.2730
 1.9660	 9.3070
 1.9670	 9.3420
 1.9680	 9.3790
 1.9690	 9.4190
 1.9700	 9.4590
 1.9710	 9.5010
 1.9720	 9.5420
 1.9730	 9.5850
 1.9740	 9.6270
 1.9750	 9.6700
 1.9760	 9.7130
 1.9770	 9.7570
 1.9780	 9.8040
 1.9790	 9.8500
 1.9800	 9.8980
 1.9810	 9.9440
 1.9820	 9.9890
 1.9830	10.0370
 1.9840	10.0860
 1.9850	10.1350
 1.9860	10.1840
 1.9870	10.2340
 1.9880	10.2860
 1.9890	10.3380
 1.9900	10.3930
 1.9910	10.4500
 1.9920	10.5060
 1.9930	10.5600
 1.9940	10.6150
 1.9950	10.6700
 1.9960	10.7250
 1.9970	10.7790
 1.9980	10.8360
 1.9990	10.8950
 2.0000	10.9540
 2.0010	11.0130
 2.0020	11.0710
 2.0030	11.1250
 2.0040	11.1790
 2.0050	11.2380
 2.0060	11.3010
 2.0070	11.3610
 2.0080	11.4240
 2.0090	11.4840
 2.0100	11.5390
 2.0110	11.5980
 2.0120	11.6590
 2.0130	11.7200
 2.0140	11.7800
 2.0150	11.8430
 2.0160	11.9030
 2.0170	11.9610
 2.0180	12.0180
 2.0190	12.0730
 2.0200	12.1300
 2.0210	12.1850
 2.0220	12.2430
 2.0230	12.3050
 2.0240	12.3620
 2.0250	12.4160
 2.0260	12.4720
 2.0270	12.5250
 2.0280	12.5800
 2.0290	12.6360
 2.0300	12.6910
 2.0310	12.7460
 2.0320	12.8030
 2.0330	12.8550
 2.0340	12.9060
 2.0350	12.9590
 2.0360	13.0090
 2.0370	13.0600
 2.0380	13.1160
 2.0390	13.1670
 2.0400	13.2140
 2.0410	13.2630
 2.0420	13.3120
 2.0430	13.3590
 2.0440	13.4080
 2.0450	13.4570
 2.0460	13.5050
 2.0470	13.5530
 2.0480	13.6000
 2.0490	13.6450
 2.0500	13.6940
 2.0510	13.7450
 2.0520	13.7940
 2.0530	13.8450
 2.0540	13.8950
 2.0550	13.9450
 2.0560	13.9940
 2.0570	14.0460
 2.0580	14.0980
 2.0590	14.1510
 2.0600	14.2050
 2.0610	14.2580
 2.0620	14.3120
 2.0630	14.3650
 2.0640	14.4180
 2.0650	14.4720
 2.0660	14.5260
 2.0670	14.5820
 2.0680	14.6430
 2.0690	14.7000
 2.0700	14.7570
 2.0710	14.8150
 2.0720	14.8740
 2.0730	14.9290
 2.0740	14.9850
 2.0750	15.0430
 2.0760	15.0980
 2.0770	15.1480
 2.0780	15.2020
 2.0790	15.2580
 2.0800	15.3140
 2.0810	15.3710
 2.0820	15.4270
 2.0830	15.4820
 2.0840	15.5360
 2.0850	15.5900
 2.0860	15.6440
 2.0870	15.6990
 2.0880	15.7540
 2.0890	15.8070
 2.0900	15.8590
 2.0910	15.9110
 2.0920	15.9580
 2.0930	16.0120
 2.0940	16.0690
 2.0950	16.1230
 2.0960	16.1800
 2.0970	16.2340
 2.0980	16.2840
 2.0990	16.3360
 2.1000	16.3870
 2.1010	16.4390
 2.1020	16.4940
 2.1030	16.5460
 2.1040	16.5980
 2.1050	16.6470
 2.1060	16.6980
 2.1070	16.7460
 2.1080	16.7960
 2.1090	16.8490
 2.1100	16.9010
 2.1110	16.9520
 2.1120	17.0040
 2.1130	17.0570
 2.1140	17.1070
 2.1150	17.1550
 2.1160	17.2040
 2.1170	17.2510
 2.1180	17.3000
 2.1190	17.3530
 2.1200	17.4010
 2.1210	17.4490
 2.1220	17.4970
 2.1230	17.5430
 2.1240	17.5850
 2.1250	17.6300
 2.1260	17.6750
 2.1270	17.7190
 2.1280	17.7610
 2.1290	17.8020
 2.1300	17.8410
 2.1310	17.8800
 2.1320	17.9170
 2.1330	17.9540
 2.1340	17.9930
 2.1350	18.0290
 2.1360	18.0620
 2.1370	18.0950
 2.1380	18.1260
 2.1390	18.1570
 2.1400	18.1890
 2.1410	18.2190
 2.1420	18.2490
 2.1430	18.2770
 2.1440	18.3050
 2.1450	18.3310
 2.1460	18.3570
 2.1470	18.3800
 2.1480	18.4060
 2.1490	18.4340
 2.1500	18.4600
 2.1510	18.4890
 2.1520	18.5130
 2.1530	18.5310
 2.1540	18.5520
 2.1550	18.5720
 2.1560	18.5930
 2.1570	18.6160
 2.1580	18.6360
 2.1590	18.6540
 2.1600	18.6730
 2.1610	18.6920
 2.1620	18.7110
 2.1630	18.7290
 2.1640	18.7490
 2.1650	18.7660
 2.1660	18.7790
 2.1670	18.7980
 2.1680	18.8200
 2.1690	18.8380
 2.1700	18.8560
 2.1710	18.8750
 2.1720	18.8880
 2.1730	18.9080
 2.1740	18.9330
 2.1750	18.9560
 2.1760	18.9780
 2.1770	19.0010
 2.1780	19.0240
 2.1790	19.0480
 2.1800	19.0740
 2.1810	19.0970
 2.1820	19.1210
 2.1830	19.1420
 2.1840	19.1640
 2.1850	19.1830
 2.1860	19.2070
 2.1870	19.2320
 2.1880	19.2560
 2.1890	19.2810
 2.1900	19.3060
 2.1910	19.3290
 2.1920	19.3550
 2.1930	19.3860
 2.1940	19.4100
 2.1950	19.4330
 2.1960	19.4520
 2.1970	19.4610
 2.1980	19.4770
 2.1990	19.4930
 2.2000	19.5110
 2.2010	19.5370
 2.2020	19.5570
 2.2030	19.5750
 2.2040	19.5930
 2.2050	19.6100
 2.2060	19.6280
 2.2070	19.6430
 2.2080	19.6580
 2.2090	19.6710
 2.2100	19.6810
 2.2110	19.6890
 2.2120	19.6980
 2.2130	19.7050
 2.2140	19.7100
 2.2150	19.7160
 2.2160	19.7240
 2.2170	19.7280
 2.2180	19.7320
 2.2190	19.7340
 2.2200	19.7330
 2.2210	19.7320
 2.2220	19.7280
 2.2230	19.7240
 2.2240	19.7160
 2.2250	19.7080
 2.2260	19.7020
 2.2270	19.6910
 2.2280	19.6760
 2.2290	19.6590
 2.2300	19.6380
 2.2310	19.6140
 2.2320	19.5950
 2.2330	19.5720
 2.2340	19.5480
 2.2350	19.5220
 2.2360	19.4940
 2.2370	19.4670
 2.2380	19.4320
 2.2390	19.3950
 2.2400	19.3540
 2.2410	19.3060
 2.2420	19.2590
 2.2430	19.2080
 2.2440	19.1600
 2.2450	19.1110
 2.2460	19.0610
 2.2470	19.0140
 2.2480	18.9610
 2.2490	18.9010
 2.2500	18.8440
 2.2510	18.7860
 2.2520	18.7270
 2.2530	18.6660
 2.2540	18.6080
 2.2550	18.5520
 2.2560	18.4920
 2.2570	18.4330
 2.2580	18.3710
 2.2590	18.3000
 2.2600	18.2350
 2.2610	18.1720
 2.2620	18.1110
 2.2630	18.0460
 2.2640	17.9830
 2.2650	17.9170
 2.2660	17.8490
 2.2670	17.7870
 2.2680	17.7300
 2.2690	17.6720
 2.2700	17.6160
 2.2710	17.5600
 2.2720	17.5050
 2.2730	17.4510
 2.2740	17.3980
 2.2750	17.3450
 2.2760	17.2890
 2.2770	17.2380
 2.2780	17.1890
 2.2790	17.1400
 2.2800	17.0980
 2.2810	17.0490
 2.2820	16.9990
 2.2830	16.9480
 2.2840	16.8910
 2.2850	16.8380
 2.2860	16.7890
 2.2870	16.7360
 2.2880	16.6810
 2.2890	16.6280
 2.2900	16.5720
 2.2910	16.5210
 2.2920	16.4780
 2.2930	16.4300
 2.2940	16.3840
 2.2950	16.3360
 2.2960	16.2840
 2.2970	16.2350
 2.2980	16.1890
 2.2990	16.1400
 2.3000	16.0900
 2.3010	16.0390
 2.3020	15.9900
 2.3030	15.9460
 2.3040	15.9090
 2.3050	15.8750
 2.3060	15.8380
 2.3070	15.8020
 2.3080	15.7700
 2.3090	15.7400
 2.3100	15.7160
 2.3110	15.6980
 2.3120	15.6760
 2.3130	15.6540
 2.3140	15.6310
 2.3150	15.6080
 2.3160	15.5890
 2.3170	15.5770
 2.3180	15.5530
 2.3190	15.5290
 2.3200	15.5020
 2.3210	15.4640
 2.3220	15.4330
 2.3230	15.4090
 2.3240	15.3770
 2.3250	15.3400
 2.3260	15.3070
 2.3270	15.2680
 2.3280	15.2360
 2.3290	15.2110
 2.3300	15.1790
 2.3310	15.1490
 2.3320	15.1150
 2.3330	15.0750
 2.3340	15.0350
 2.3350	14.9960
 2.3360	14.9520
 2.3370	14.9020
 2.3380	14.8550
 2.3390	14.8030
 2.3400	14.7570
 2.3410	14.7160
 2.3420	14.6750
 2.3430	14.6380
 2.3440	14.5980
 2.3450	14.5560
 2.3460	14.5160
 2.3470	14.4730
 2.3480	14.4340
 2.3490	14.3950
 2.3500	14.3630
 2.3510	14.3390
 2.3520	14.3130
 2.3530	14.2970
 2.3540	14.2710
 2.3550	14.2370
 2.3560	14.1930
 2.3570	14.1390
 2.3580	14.0960
 2.3590	14.0700
 2.3600	14.0410
 2.3610	14.0100
 2.3620	13.9870
 2.3630	13.9600
 2.3640	13.9240
 2.3650	13.8960
 2.3660	13.8670
 2.3670	13.8210
 2.3680	13.7730
 2.3690	13.7290
 2.3700	13.6850
 2.3710	13.6490
 2.3720	13.6210
 2.3730	13.5930
 2.3740	13.5630
 2.3750	13.5310
 2.3760	13.4940
 2.3770	13.4590
 2.3780	13.4280
 2.3790	13.4040
 2.3800	13.3730
 2.3810	13.3290
 2.3820	13.2860
 2.3830	13.2440
 2.3840	13.2060
 2.3850	13.1820
 2.3860	13.1540
 2.3870	13.1160
 2.3880	13.0740
 2.3890	13.0360
 2.3900	12.9940
 2.3910	12.9400
 2.3920	12.8920
 2.3930	12.8500
 2.3940	12.8100
 2.3950	12.7890
 2.3960	12.7630
 2.3970	12.7310
 2.3980	12.7000
 2.3990	12.6580
 2.4000	12.6250
 2.4010	12.5890
 2.4020	12.5460
 2.4030	12.5090
 2.4040	12.4680
 2.4050	12.4320
 2.4060	12.3820
 2.4070	12.3330
 2.4080	12.2920
 2.4090	12.2380
 2.4100	12.2010
 2.4110	12.1710
 2.4120	12.1330
 2.4130	12.1060
 2.4140	12.0680
 2.4150	12.0210
 2.4160	11.9790
 2.4170	11.9240
 2.4180	11.8770
 2.4190	11.8450
 2.4200	11.8090
 2.4210	11.7750
 2.4220	11.7440
 2.4230	11.7200
 2.4240	11.6930
 2.4250	11.6630
 2.4260	11.6250
 2.4270	11.5720
 2.4280	11.5330
 2.4290	11.4930
 2.4300	11.4650
 2.4310	11.4380
 2.4320	11.3900
 2.4330	11.3470
 2.4340	11.3030
 2.4350	11.2550
 2.4360	11.2240
 2.4370	11.2020
 2.4380	11.1670
 2.4390	11.1310
 2.4400	11.0820
 2.4410	11.0240
 2.4420	10.9790
 2.4430	10.9410
 2.4440	10.9190
 2.4450	10.9010
 2.4460	10.8720
 2.4470	10.8510
 2.4480	10.8250
 2.4490	10.7870
 2.4500	10.7510
 2.4510	10.7120
 2.4520	10.6670
 2.4530	10.6300
 2.4540	10.5940
 2.4550	10.5490
 2.4560	10.4960
 2.4570	10.4680
 2.4580	10.4490
 2.4590	10.4200
 2.4600	10.4110
 2.4610	10.3770
 2.4620	10.3260
 2.4630	10.2830
 2.4640	10.2450
 2.4650	10.2200
 2.4660	10.1750
 2.4670	10.1520
 2.4680	10.1580
 2.4690	10.1370
 2.4700	10.1240
 2.4710	10.1210
 2.4720	10.0950
 2.4730	10.0550
 2.4740	10.0280
 2.4750	 9.9990
 2.4760	 9.9850
 2.4770	 9.9810
 2.4780	 9.9680
 2.4790	 9.9680
 2.4800	 9.9580
 2.4810	 9.9440
 2.4820	 9.9200
 2.4830	 9.8560
 2.4840	 9.7900
 2.4850	 9.7880
 2.4860	 9.7910
 2.4870	 9.7790
 2.4880	 9.8160
 2.4890	 9.8050
 2.4900	 9.7610
 2.4910	 9.7830
 2.4920	 9.7910
 2.4930	 9.7710
 2.4940	 9.7810
 2.4950	 9.7790
 2.4960	 9.7670
 2.4970	 9.7450
 2.4980	 9.6970
 2.4990	 9.6860
 2.5000	 9.7050
