Name: Ceanothus spinosus 2
Type: vegetation
Class: Shrub
Genus: Ceanothus
Species: spinosus
Sample No.: VH201
Owner: UCSB
Wavelength Range: VSWIR
Origin: 34.4906; -119.7908; WGS84
Collection Date: 10/13/2013
Description: Samples were collected as part of the HyspIRI Airborne Campaign. 48 individual plants were sampled in three times in 2013 - spring  summer  and fall. The name of the sample includes a 1  2  or 3 which references a different individual of the species. Samples were taken to JPL and processed within 48 hours of collection. The same leaves were processed in the Nicolet and then measured using the ASD.
Measurement: Bidirectional reflectance
First Column: X
Second Column: Y
X Units: Wavelength (micrometers)
Y Units: Reflectance (percentage)
First X Value: 0.35
Last X Value: 2.5
Number of X Values: 2151
Additional Information: vegetation.shrub.ceanothus.spinosus.vswir.vh201.ucsb.asd.ancillary.txt

 0.3500	 6.1280
 0.3510	 5.9930
 0.3520	 5.9120
 0.3530	 5.8580
 0.3540	 5.7870
 0.3550	 5.7130
 0.3560	 5.6210
 0.3570	 5.5940
 0.3580	 5.7180
 0.3590	 5.7500
 0.3600	 5.7070
 0.3610	 5.6210
 0.3620	 5.4970
 0.3630	 5.5390
 0.3640	 5.6730
 0.3650	 5.7450
 0.3660	 5.6090
 0.3670	 5.4780
 0.3680	 5.4500
 0.3690	 5.5200
 0.3700	 5.5860
 0.3710	 5.5600
 0.3720	 5.4690
 0.3730	 5.5450
 0.3740	 5.6190
 0.3750	 5.6120
 0.3760	 5.5100
 0.3770	 5.4650
 0.3780	 5.5460
 0.3790	 5.6530
 0.3800	 5.5810
 0.3810	 5.5650
 0.3820	 5.6100
 0.3830	 5.6350
 0.3840	 5.4420
 0.3850	 5.3190
 0.3860	 5.3610
 0.3870	 5.5300
 0.3880	 5.5810
 0.3890	 5.5040
 0.3900	 5.4010
 0.3910	 5.4560
 0.3920	 5.4130
 0.3930	 5.4100
 0.3940	 5.5230
 0.3950	 5.4710
 0.3960	 5.4560
 0.3970	 5.4500
 0.3980	 5.3530
 0.3990	 5.3550
 0.4000	 5.4330
 0.4010	 5.4960
 0.4020	 5.3920
 0.4030	 5.3900
 0.4040	 5.4380
 0.4050	 5.4410
 0.4060	 5.4570
 0.4070	 5.4170
 0.4080	 5.3780
 0.4090	 5.4540
 0.4100	 5.4590
 0.4110	 5.4590
 0.4120	 5.4880
 0.4130	 5.4590
 0.4140	 5.4410
 0.4150	 5.4520
 0.4160	 5.4850
 0.4170	 5.4980
 0.4180	 5.5020
 0.4190	 5.5060
 0.4200	 5.5220
 0.4210	 5.5510
 0.4220	 5.5660
 0.4230	 5.5560
 0.4240	 5.5810
 0.4250	 5.6150
 0.4260	 5.6500
 0.4270	 5.6820
 0.4280	 5.7080
 0.4290	 5.7260
 0.4300	 5.7420
 0.4310	 5.7730
 0.4320	 5.8000
 0.4330	 5.8300
 0.4340	 5.8670
 0.4350	 5.8810
 0.4360	 5.8980
 0.4370	 5.9190
 0.4380	 5.9270
 0.4390	 5.9240
 0.4400	 5.9330
 0.4410	 5.9650
 0.4420	 6.0000
 0.4430	 6.0070
 0.4440	 6.0000
 0.4450	 6.0100
 0.4460	 6.0520
 0.4470	 6.0860
 0.4480	 6.0950
 0.4490	 6.0920
 0.4500	 6.0990
 0.4510	 6.1180
 0.4520	 6.1420
 0.4530	 6.1700
 0.4540	 6.1970
 0.4550	 6.2160
 0.4560	 6.2210
 0.4570	 6.2340
 0.4580	 6.2330
 0.4590	 6.2190
 0.4600	 6.2390
 0.4610	 6.2720
 0.4620	 6.2870
 0.4630	 6.2660
 0.4640	 6.2920
 0.4650	 6.3110
 0.4660	 6.3050
 0.4670	 6.3000
 0.4680	 6.3110
 0.4690	 6.3190
 0.4700	 6.3150
 0.4710	 6.3360
 0.4720	 6.3540
 0.4730	 6.3600
 0.4740	 6.3580
 0.4750	 6.3560
 0.4760	 6.3610
 0.4770	 6.3740
 0.4780	 6.3860
 0.4790	 6.3950
 0.4800	 6.3960
 0.4810	 6.3900
 0.4820	 6.4130
 0.4830	 6.4260
 0.4840	 6.4260
 0.4850	 6.4360
 0.4860	 6.4470
 0.4870	 6.4680
 0.4880	 6.4980
 0.4890	 6.5010
 0.4900	 6.5330
 0.4910	 6.5800
 0.4920	 6.5990
 0.4930	 6.6410
 0.4940	 6.6850
 0.4950	 6.7230
 0.4960	 6.7770
 0.4970	 6.8350
 0.4980	 6.8970
 0.4990	 6.9610
 0.5000	 7.0150
 0.5010	 7.0750
 0.5020	 7.1500
 0.5030	 7.2450
 0.5040	 7.3370
 0.5050	 7.4350
 0.5060	 7.5470
 0.5070	 7.6700
 0.5080	 7.8010
 0.5090	 7.9370
 0.5100	 8.0800
 0.5110	 8.2370
 0.5120	 8.4130
 0.5130	 8.6020
 0.5140	 8.7840
 0.5150	 8.9860
 0.5160	 9.2030
 0.5170	 9.4240
 0.5180	 9.6520
 0.5190	 9.8870
 0.5200	10.1260
 0.5210	10.3660
 0.5220	10.6070
 0.5230	10.8550
 0.5240	11.1060
 0.5250	11.3310
 0.5260	11.5550
 0.5270	11.7810
 0.5280	12.0040
 0.5290	12.2070
 0.5300	12.3980
 0.5310	12.5830
 0.5320	12.7580
 0.5330	12.9220
 0.5340	13.0770
 0.5350	13.2230
 0.5360	13.3560
 0.5370	13.4840
 0.5380	13.6060
 0.5390	13.7130
 0.5400	13.8140
 0.5410	13.9210
 0.5420	14.0320
 0.5430	14.1160
 0.5440	14.2120
 0.5450	14.3110
 0.5460	14.3940
 0.5470	14.4770
 0.5480	14.5500
 0.5490	14.6090
 0.5500	14.6720
 0.5510	14.7220
 0.5520	14.7610
 0.5530	14.7950
 0.5540	14.8170
 0.5550	14.8240
 0.5560	14.8180
 0.5570	14.8010
 0.5580	14.7730
 0.5590	14.7310
 0.5600	14.6770
 0.5610	14.6120
 0.5620	14.5360
 0.5630	14.4510
 0.5640	14.3630
 0.5650	14.2640
 0.5660	14.1580
 0.5670	14.0460
 0.5680	13.9260
 0.5690	13.8080
 0.5700	13.6880
 0.5710	13.5630
 0.5720	13.4290
 0.5730	13.2980
 0.5740	13.1810
 0.5750	13.0900
 0.5760	12.9900
 0.5770	12.9000
 0.5780	12.8270
 0.5790	12.7490
 0.5800	12.6750
 0.5810	12.6020
 0.5820	12.5260
 0.5830	12.4600
 0.5840	12.3990
 0.5850	12.3400
 0.5860	12.2840
 0.5870	12.2320
 0.5880	12.1820
 0.5890	12.1330
 0.5900	12.1000
 0.5910	12.0760
 0.5920	12.0540
 0.5930	12.0260
 0.5940	12.0000
 0.5950	11.9790
 0.5960	11.9630
 0.5970	11.9450
 0.5980	11.9300
 0.5990	11.9110
 0.6000	11.8800
 0.6010	11.8430
 0.6020	11.8080
 0.6030	11.7740
 0.6040	11.7300
 0.6050	11.6730
 0.6060	11.6110
 0.6070	11.5480
 0.6080	11.4760
 0.6090	11.3970
 0.6100	11.3160
 0.6110	11.2390
 0.6120	11.1600
 0.6130	11.0830
 0.6140	11.0110
 0.6150	10.9380
 0.6160	10.8630
 0.6170	10.7960
 0.6180	10.7440
 0.6190	10.6900
 0.6200	10.6390
 0.6210	10.5970
 0.6220	10.5680
 0.6230	10.5440
 0.6240	10.5260
 0.6250	10.5130
 0.6260	10.5020
 0.6270	10.4980
 0.6280	10.4990
 0.6290	10.4980
 0.6300	10.5020
 0.6310	10.5070
 0.6320	10.5070
 0.6330	10.5020
 0.6340	10.4880
 0.6350	10.4610
 0.6360	10.4190
 0.6370	10.3710
 0.6380	10.3050
 0.6390	10.2220
 0.6400	10.1270
 0.6410	10.0260
 0.6420	 9.9170
 0.6430	 9.8010
 0.6440	 9.6830
 0.6450	 9.5680
 0.6460	 9.4530
 0.6470	 9.3380
 0.6480	 9.2340
 0.6490	 9.1410
 0.6500	 9.0570
 0.6510	 8.9790
 0.6520	 8.9150
 0.6530	 8.8570
 0.6540	 8.7940
 0.6550	 8.7290
 0.6560	 8.6560
 0.6570	 8.5750
 0.6580	 8.4920
 0.6590	 8.4010
 0.6600	 8.3030
 0.6610	 8.2030
 0.6620	 8.1090
 0.6630	 8.0150
 0.6640	 7.9270
 0.6650	 7.8500
 0.6660	 7.7750
 0.6670	 7.7130
 0.6680	 7.6650
 0.6690	 7.6240
 0.6700	 7.5960
 0.6710	 7.5800
 0.6720	 7.5710
 0.6730	 7.5620
 0.6740	 7.5700
 0.6750	 7.5860
 0.6760	 7.6000
 0.6770	 7.6250
 0.6780	 7.6610
 0.6790	 7.7070
 0.6800	 7.7660
 0.6810	 7.8370
 0.6820	 7.9230
 0.6830	 8.0290
 0.6840	 8.1670
 0.6850	 8.3450
 0.6860	 8.5620
 0.6870	 8.8180
 0.6880	 9.1280
 0.6890	 9.5050
 0.6900	 9.9530
 0.6910	10.4730
 0.6920	11.0640
 0.6930	11.7280
 0.6940	12.4690
 0.6950	13.2850
 0.6960	14.1610
 0.6970	15.0910
 0.6980	16.0700
 0.6990	17.0890
 0.7000	18.1360
 0.7010	19.1990
 0.7020	20.2690
 0.7030	21.3400
 0.7040	22.4000
 0.7050	23.4410
 0.7060	24.4690
 0.7070	25.4730
 0.7080	26.4510
 0.7090	27.4090
 0.7100	28.3490
 0.7110	29.2510
 0.7120	30.1160
 0.7130	30.9710
 0.7140	31.7970
 0.7150	32.5890
 0.7160	33.3480
 0.7170	34.0860
 0.7180	34.8000
 0.7190	35.4800
 0.7200	36.1200
 0.7210	36.7530
 0.7220	37.3520
 0.7230	37.9130
 0.7240	38.4710
 0.7250	38.9940
 0.7260	39.4800
 0.7270	39.9350
 0.7280	40.3820
 0.7290	40.7950
 0.7300	41.1770
 0.7310	41.5410
 0.7320	41.8860
 0.7330	42.2100
 0.7340	42.5170
 0.7350	42.8090
 0.7360	43.0810
 0.7370	43.3290
 0.7380	43.5540
 0.7390	43.7600
 0.7400	43.9790
 0.7410	44.1870
 0.7420	44.3510
 0.7430	44.5110
 0.7440	44.6660
 0.7450	44.8130
 0.7460	44.9510
 0.7470	45.0750
 0.7480	45.1850
 0.7490	45.2840
 0.7500	45.3770
 0.7510	45.4630
 0.7520	45.5470
 0.7530	45.6310
 0.7540	45.7040
 0.7550	45.7620
 0.7560	45.8150
 0.7570	45.8730
 0.7580	45.9270
 0.7590	45.9780
 0.7600	46.0240
 0.7610	46.0500
 0.7620	46.0870
 0.7630	46.1280
 0.7640	46.1610
 0.7650	46.1940
 0.7660	46.2250
 0.7670	46.2520
 0.7680	46.2750
 0.7690	46.3010
 0.7700	46.3230
 0.7710	46.3390
 0.7720	46.3660
 0.7730	46.3850
 0.7740	46.4010
 0.7750	46.4210
 0.7760	46.4420
 0.7770	46.4570
 0.7780	46.4730
 0.7790	46.4990
 0.7800	46.5220
 0.7810	46.5420
 0.7820	46.5580
 0.7830	46.5770
 0.7840	46.6020
 0.7850	46.6210
 0.7860	46.6330
 0.7870	46.6560
 0.7880	46.6700
 0.7890	46.6800
 0.7900	46.6980
 0.7910	46.7110
 0.7920	46.7320
 0.7930	46.7550
 0.7940	46.7660
 0.7950	46.7850
 0.7960	46.8090
 0.7970	46.8290
 0.7980	46.8300
 0.7990	46.8450
 0.8000	46.8720
 0.8010	46.8980
 0.8020	46.9080
 0.8030	46.9150
 0.8040	46.9250
 0.8050	46.9410
 0.8060	46.9750
 0.8070	46.9790
 0.8080	46.9680
 0.8090	47.0010
 0.8100	47.0310
 0.8110	47.0440
 0.8120	47.0470
 0.8130	47.0740
 0.8140	47.0860
 0.8150	47.0840
 0.8160	47.0840
 0.8170	47.1110
 0.8180	47.1470
 0.8190	47.1710
 0.8200	47.1670
 0.8210	47.1600
 0.8220	47.1710
 0.8230	47.1930
 0.8240	47.1990
 0.8250	47.2250
 0.8260	47.2500
 0.8270	47.2590
 0.8280	47.2580
 0.8290	47.2690
 0.8300	47.2840
 0.8310	47.2910
 0.8320	47.2910
 0.8330	47.2960
 0.8340	47.3050
 0.8350	47.3130
 0.8360	47.3280
 0.8370	47.3350
 0.8380	47.3450
 0.8390	47.3820
 0.8400	47.3860
 0.8410	47.3770
 0.8420	47.3780
 0.8430	47.3950
 0.8440	47.3930
 0.8450	47.4070
 0.8460	47.4530
 0.8470	47.4460
 0.8480	47.4450
 0.8490	47.4480
 0.8500	47.4470
 0.8510	47.4810
 0.8520	47.5080
 0.8530	47.5150
 0.8540	47.5110
 0.8550	47.5240
 0.8560	47.5360
 0.8570	47.5390
 0.8580	47.5440
 0.8590	47.5460
 0.8600	47.5510
 0.8610	47.5610
 0.8620	47.5640
 0.8630	47.5700
 0.8640	47.5800
 0.8650	47.5910
 0.8660	47.6070
 0.8670	47.6150
 0.8680	47.6190
 0.8690	47.6270
 0.8700	47.6180
 0.8710	47.6170
 0.8720	47.6240
 0.8730	47.6250
 0.8740	47.6350
 0.8750	47.6540
 0.8760	47.6720
 0.8770	47.6690
 0.8780	47.6740
 0.8790	47.6730
 0.8800	47.6640
 0.8810	47.6720
 0.8820	47.6690
 0.8830	47.6640
 0.8840	47.6680
 0.8850	47.6780
 0.8860	47.6880
 0.8870	47.6940
 0.8880	47.6960
 0.8890	47.6940
 0.8900	47.7000
 0.8910	47.7030
 0.8920	47.6940
 0.8930	47.6930
 0.8940	47.6990
 0.8950	47.7010
 0.8960	47.6860
 0.8970	47.6810
 0.8980	47.6920
 0.8990	47.7040
 0.9000	47.6920
 0.9010	47.6830
 0.9020	47.6710
 0.9030	47.6680
 0.9040	47.7080
 0.9050	47.7180
 0.9060	47.7040
 0.9070	47.6880
 0.9080	47.6840
 0.9090	47.6750
 0.9100	47.6730
 0.9110	47.6850
 0.9120	47.6740
 0.9130	47.6760
 0.9140	47.6870
 0.9150	47.6920
 0.9160	47.6710
 0.9170	47.6530
 0.9180	47.6600
 0.9190	47.7000
 0.9200	47.7030
 0.9210	47.6800
 0.9220	47.6510
 0.9230	47.6400
 0.9240	47.6390
 0.9250	47.6500
 0.9260	47.6530
 0.9270	47.6260
 0.9280	47.6090
 0.9290	47.5950
 0.9300	47.5710
 0.9310	47.5310
 0.9320	47.5340
 0.9330	47.5400
 0.9340	47.5300
 0.9350	47.5260
 0.9360	47.5020
 0.9370	47.4660
 0.9380	47.4340
 0.9390	47.4130
 0.9400	47.3930
 0.9410	47.3760
 0.9420	47.3580
 0.9430	47.3250
 0.9440	47.2960
 0.9450	47.2730
 0.9460	47.2530
 0.9470	47.2330
 0.9480	47.2020
 0.9490	47.1560
 0.9500	47.1020
 0.9510	47.0600
 0.9520	46.9910
 0.9530	46.9310
 0.9540	46.9030
 0.9550	46.8110
 0.9560	46.7720
 0.9570	46.7620
 0.9580	46.7240
 0.9590	46.6690
 0.9600	46.6120
 0.9610	46.5640
 0.9620	46.5300
 0.9630	46.5120
 0.9640	46.4740
 0.9650	46.4390
 0.9660	46.4320
 0.9670	46.3950
 0.9680	46.3730
 0.9690	46.3810
 0.9700	46.4050
 0.9710	46.3780
 0.9720	46.3460
 0.9730	46.3200
 0.9740	46.2990
 0.9750	46.3280
 0.9760	46.3050
 0.9770	46.2690
 0.9780	46.2980
 0.9790	46.3100
 0.9800	46.3280
 0.9810	46.3270
 0.9820	46.2870
 0.9830	46.3420
 0.9840	46.3440
 0.9850	46.3230
 0.9860	46.3720
 0.9870	46.4120
 0.9880	46.4280
 0.9890	46.4350
 0.9900	46.4600
 0.9910	46.4820
 0.9920	46.5460
 0.9930	46.6090
 0.9940	46.6730
 0.9950	46.7360
 0.9960	46.7990
 0.9970	46.8630
 0.9980	46.9260
 0.9990	46.9900
 1.0000	47.0530
 1.0010	47.1170
 1.0020	47.1800
 1.0030	47.2440
 1.0040	47.3070
 1.0050	47.3710
 1.0060	47.4340
 1.0070	47.4970
 1.0080	47.5610
 1.0090	47.6240
 1.0100	47.6240
 1.0110	47.6430
 1.0120	47.6610
 1.0130	47.6790
 1.0140	47.6990
 1.0150	47.7220
 1.0160	47.7360
 1.0170	47.7510
 1.0180	47.7760
 1.0190	47.8080
 1.0200	47.8370
 1.0210	47.8650
 1.0220	47.8910
 1.0230	47.9170
 1.0240	47.9360
 1.0250	47.9600
 1.0260	47.9880
 1.0270	48.0150
 1.0280	48.0470
 1.0290	48.0640
 1.0300	48.0670
 1.0310	48.0810
 1.0320	48.0920
 1.0330	48.0990
 1.0340	48.1200
 1.0350	48.1540
 1.0360	48.1710
 1.0370	48.1860
 1.0380	48.2060
 1.0390	48.2300
 1.0400	48.2430
 1.0410	48.2540
 1.0420	48.2670
 1.0430	48.2720
 1.0440	48.2770
 1.0450	48.2860
 1.0460	48.2920
 1.0470	48.2880
 1.0480	48.2930
 1.0490	48.3020
 1.0500	48.3120
 1.0510	48.3230
 1.0520	48.3420
 1.0530	48.3560
 1.0540	48.3710
 1.0550	48.3840
 1.0560	48.3980
 1.0570	48.4050
 1.0580	48.4080
 1.0590	48.4120
 1.0600	48.4130
 1.0610	48.4130
 1.0620	48.4140
 1.0630	48.4150
 1.0640	48.4110
 1.0650	48.4140
 1.0660	48.4220
 1.0670	48.4290
 1.0680	48.4380
 1.0690	48.4500
 1.0700	48.4570
 1.0710	48.4640
 1.0720	48.4670
 1.0730	48.4670
 1.0740	48.4670
 1.0750	48.4600
 1.0760	48.4610
 1.0770	48.4650
 1.0780	48.4670
 1.0790	48.4710
 1.0800	48.4740
 1.0810	48.4760
 1.0820	48.4770
 1.0830	48.4780
 1.0840	48.4790
 1.0850	48.4810
 1.0860	48.4780
 1.0870	48.4780
 1.0880	48.4830
 1.0890	48.4780
 1.0900	48.4650
 1.0910	48.4610
 1.0920	48.4570
 1.0930	48.4500
 1.0940	48.4470
 1.0950	48.4390
 1.0960	48.4230
 1.0970	48.4110
 1.0980	48.4020
 1.0990	48.3910
 1.1000	48.3800
 1.1010	48.3680
 1.1020	48.3520
 1.1030	48.3420
 1.1040	48.3380
 1.1050	48.3240
 1.1060	48.3160
 1.1070	48.3160
 1.1080	48.3040
 1.1090	48.2880
 1.1100	48.2730
 1.1110	48.2490
 1.1120	48.2310
 1.1130	48.2160
 1.1140	48.2000
 1.1150	48.1890
 1.1160	48.1670
 1.1170	48.1420
 1.1180	48.1120
 1.1190	48.0740
 1.1200	48.0370
 1.1210	47.9990
 1.1220	47.9630
 1.1230	47.9280
 1.1240	47.8860
 1.1250	47.8430
 1.1260	47.8000
 1.1270	47.7490
 1.1280	47.6950
 1.1290	47.6330
 1.1300	47.5690
 1.1310	47.4960
 1.1320	47.4140
 1.1330	47.3280
 1.1340	47.2340
 1.1350	47.1380
 1.1360	47.0400
 1.1370	46.9340
 1.1380	46.8220
 1.1390	46.7110
 1.1400	46.5960
 1.1410	46.4780
 1.1420	46.3580
 1.1430	46.2370
 1.1440	46.1110
 1.1450	45.9780
 1.1460	45.8480
 1.1470	45.7130
 1.1480	45.5880
 1.1490	45.4630
 1.1500	45.3470
 1.1510	45.2370
 1.1520	45.1330
 1.1530	45.0330
 1.1540	44.9420
 1.1550	44.8620
 1.1560	44.7870
 1.1570	44.7120
 1.1580	44.6480
 1.1590	44.5920
 1.1600	44.5360
 1.1610	44.4920
 1.1620	44.4530
 1.1630	44.4190
 1.1640	44.3930
 1.1650	44.3690
 1.1660	44.3510
 1.1670	44.3330
 1.1680	44.3170
 1.1690	44.3040
 1.1700	44.2940
 1.1710	44.2820
 1.1720	44.2670
 1.1730	44.2570
 1.1740	44.2500
 1.1750	44.2430
 1.1760	44.2400
 1.1770	44.2380
 1.1780	44.2280
 1.1790	44.2160
 1.1800	44.2070
 1.1810	44.1920
 1.1820	44.1780
 1.1830	44.1690
 1.1840	44.1570
 1.1850	44.1460
 1.1860	44.1420
 1.1870	44.1390
 1.1880	44.1360
 1.1890	44.1340
 1.1900	44.1330
 1.1910	44.1320
 1.1920	44.1310
 1.1930	44.1370
 1.1940	44.1390
 1.1950	44.1390
 1.1960	44.1400
 1.1970	44.1430
 1.1980	44.1410
 1.1990	44.1470
 1.2000	44.1560
 1.2010	44.1690
 1.2020	44.1810
 1.2030	44.1950
 1.2040	44.2160
 1.2050	44.2340
 1.2060	44.2540
 1.2070	44.2760
 1.2080	44.2950
 1.2090	44.3160
 1.2100	44.3380
 1.2110	44.3610
 1.2120	44.3820
 1.2130	44.4070
 1.2140	44.4390
 1.2150	44.4670
 1.2160	44.4960
 1.2170	44.5240
 1.2180	44.5530
 1.2190	44.5740
 1.2200	44.6000
 1.2210	44.6290
 1.2220	44.6540
 1.2230	44.6770
 1.2240	44.7010
 1.2250	44.7260
 1.2260	44.7470
 1.2270	44.7710
 1.2280	44.7970
 1.2290	44.8180
 1.2300	44.8420
 1.2310	44.8660
 1.2320	44.8820
 1.2330	44.9000
 1.2340	44.9220
 1.2350	44.9470
 1.2360	44.9710
 1.2370	44.9980
 1.2380	45.0270
 1.2390	45.0500
 1.2400	45.0650
 1.2410	45.0840
 1.2420	45.1050
 1.2430	45.1230
 1.2440	45.1440
 1.2450	45.1660
 1.2460	45.1790
 1.2470	45.1910
 1.2480	45.1990
 1.2490	45.2100
 1.2500	45.2220
 1.2510	45.2330
 1.2520	45.2490
 1.2530	45.2590
 1.2540	45.2620
 1.2550	45.2720
 1.2560	45.2750
 1.2570	45.2780
 1.2580	45.2890
 1.2590	45.2980
 1.2600	45.3070
 1.2610	45.3160
 1.2620	45.3270
 1.2630	45.3330
 1.2640	45.3320
 1.2650	45.3380
 1.2660	45.3410
 1.2670	45.3370
 1.2680	45.3360
 1.2690	45.3300
 1.2700	45.3230
 1.2710	45.3220
 1.2720	45.3160
 1.2730	45.3070
 1.2740	45.2930
 1.2750	45.2770
 1.2760	45.2640
 1.2770	45.2520
 1.2780	45.2400
 1.2790	45.2250
 1.2800	45.2070
 1.2810	45.1920
 1.2820	45.1740
 1.2830	45.1540
 1.2840	45.1340
 1.2850	45.1110
 1.2860	45.0910
 1.2870	45.0670
 1.2880	45.0410
 1.2890	45.0170
 1.2900	44.9910
 1.2910	44.9520
 1.2920	44.9210
 1.2930	44.8900
 1.2940	44.8570
 1.2950	44.8360
 1.2960	44.8100
 1.2970	44.7780
 1.2980	44.7420
 1.2990	44.6990
 1.3000	44.6530
 1.3010	44.6070
 1.3020	44.5610
 1.3030	44.5140
 1.3040	44.4640
 1.3050	44.4100
 1.3060	44.3530
 1.3070	44.2950
 1.3080	44.2280
 1.3090	44.1650
 1.3100	44.1010
 1.3110	44.0270
 1.3120	43.9530
 1.3130	43.8780
 1.3140	43.7970
 1.3150	43.7100
 1.3160	43.6220
 1.3170	43.5350
 1.3180	43.4410
 1.3190	43.3400
 1.3200	43.2380
 1.3210	43.1320
 1.3220	43.0200
 1.3230	42.9090
 1.3240	42.8000
 1.3250	42.6900
 1.3260	42.5750
 1.3270	42.4520
 1.3280	42.3280
 1.3290	42.1980
 1.3300	42.0690
 1.3310	41.9430
 1.3320	41.8100
 1.3330	41.6740
 1.3340	41.5360
 1.3350	41.3930
 1.3360	41.2500
 1.3370	41.1060
 1.3380	40.9610
 1.3390	40.8140
 1.3400	40.6660
 1.3410	40.5190
 1.3420	40.3750
 1.3430	40.2340
 1.3440	40.0920
 1.3450	39.9520
 1.3460	39.8130
 1.3470	39.6770
 1.3480	39.5410
 1.3490	39.4060
 1.3500	39.2740
 1.3510	39.1390
 1.3520	39.0040
 1.3530	38.8730
 1.3540	38.7430
 1.3550	38.6130
 1.3560	38.4850
 1.3570	38.3600
 1.3580	38.2340
 1.3590	38.1070
 1.3600	37.9760
 1.3610	37.8370
 1.3620	37.6980
 1.3630	37.5570
 1.3640	37.4090
 1.3650	37.2560
 1.3660	37.0960
 1.3670	36.9230
 1.3680	36.7380
 1.3690	36.5430
 1.3700	36.3350
 1.3710	36.1190
 1.3720	35.8940
 1.3730	35.6540
 1.3740	35.4000
 1.3750	35.1290
 1.3760	34.8400
 1.3770	34.5290
 1.3780	34.1960
 1.3790	33.8480
 1.3800	33.4790
 1.3810	33.0870
 1.3820	32.6750
 1.3830	32.2450
 1.3840	31.7930
 1.3850	31.3190
 1.3860	30.8320
 1.3870	30.3240
 1.3880	29.8090
 1.3890	29.2800
 1.3900	28.7400
 1.3910	28.1990
 1.3920	27.6510
 1.3930	27.0970
 1.3940	26.5430
 1.3950	25.9830
 1.3960	25.4280
 1.3970	24.8820
 1.3980	24.3440
 1.3990	23.8250
 1.4000	23.3160
 1.4010	22.8170
 1.4020	22.3390
 1.4030	21.8740
 1.4040	21.4280
 1.4050	21.0080
 1.4060	20.6010
 1.4070	20.2190
 1.4080	19.8560
 1.4090	19.5100
 1.4100	19.1870
 1.4110	18.8800
 1.4120	18.5950
 1.4130	18.3300
 1.4140	18.0820
 1.4150	17.8580
 1.4160	17.6510
 1.4170	17.4550
 1.4180	17.2770
 1.4190	17.1140
 1.4200	16.9630
 1.4210	16.8280
 1.4220	16.7080
 1.4230	16.5980
 1.4240	16.4980
 1.4250	16.4060
 1.4260	16.3230
 1.4270	16.2480
 1.4280	16.1800
 1.4290	16.1200
 1.4300	16.0690
 1.4310	16.0250
 1.4320	15.9890
 1.4330	15.9570
 1.4340	15.9290
 1.4350	15.9060
 1.4360	15.8880
 1.4370	15.8750
 1.4380	15.8640
 1.4390	15.8620
 1.4400	15.8620
 1.4410	15.8640
 1.4420	15.8740
 1.4430	15.8840
 1.4440	15.8970
 1.4450	15.9120
 1.4460	15.9270
 1.4470	15.9460
 1.4480	15.9660
 1.4490	15.9870
 1.4500	16.0080
 1.4510	16.0290
 1.4520	16.0540
 1.4530	16.0810
 1.4540	16.1070
 1.4550	16.1320
 1.4560	16.1570
 1.4570	16.1860
 1.4580	16.2170
 1.4590	16.2540
 1.4600	16.2940
 1.4610	16.3350
 1.4620	16.3800
 1.4630	16.4280
 1.4640	16.4800
 1.4650	16.5360
 1.4660	16.5980
 1.4670	16.6650
 1.4680	16.7380
 1.4690	16.8140
 1.4700	16.8930
 1.4710	16.9750
 1.4720	17.0590
 1.4730	17.1460
 1.4740	17.2400
 1.4750	17.3370
 1.4760	17.4380
 1.4770	17.5390
 1.4780	17.6410
 1.4790	17.7470
 1.4800	17.8490
 1.4810	17.9560
 1.4820	18.0680
 1.4830	18.1770
 1.4840	18.2920
 1.4850	18.4070
 1.4860	18.5200
 1.4870	18.6350
 1.4880	18.7470
 1.4890	18.8600
 1.4900	18.9730
 1.4910	19.0860
 1.4920	19.1990
 1.4930	19.3120
 1.4940	19.4260
 1.4950	19.5410
 1.4960	19.6570
 1.4970	19.7760
 1.4980	19.8920
 1.4990	20.0080
 1.5000	20.1240
 1.5010	20.2390
 1.5020	20.3530
 1.5030	20.4670
 1.5040	20.5820
 1.5050	20.6950
 1.5060	20.8100
 1.5070	20.9260
 1.5080	21.0390
 1.5090	21.1500
 1.5100	21.2600
 1.5110	21.3650
 1.5120	21.4710
 1.5130	21.5770
 1.5140	21.6810
 1.5150	21.7870
 1.5160	21.8930
 1.5170	21.9970
 1.5180	22.0980
 1.5190	22.2010
 1.5200	22.3040
 1.5210	22.4050
 1.5220	22.5090
 1.5230	22.6100
 1.5240	22.7070
 1.5250	22.8060
 1.5260	22.9040
 1.5270	22.9990
 1.5280	23.0940
 1.5290	23.1890
 1.5300	23.2830
 1.5310	23.3780
 1.5320	23.4690
 1.5330	23.5580
 1.5340	23.6420
 1.5350	23.7240
 1.5360	23.8080
 1.5370	23.8940
 1.5380	23.9780
 1.5390	24.0610
 1.5400	24.1440
 1.5410	24.2230
 1.5420	24.3020
 1.5430	24.3810
 1.5440	24.4600
 1.5450	24.5370
 1.5460	24.6190
 1.5470	24.7020
 1.5480	24.7850
 1.5490	24.8680
 1.5500	24.9450
 1.5510	25.0200
 1.5520	25.0940
 1.5530	25.1640
 1.5540	25.2340
 1.5550	25.3050
 1.5560	25.3710
 1.5570	25.4350
 1.5580	25.5000
 1.5590	25.5630
 1.5600	25.6270
 1.5610	25.6960
 1.5620	25.7660
 1.5630	25.8370
 1.5640	25.9050
 1.5650	25.9740
 1.5660	26.0400
 1.5670	26.1040
 1.5680	26.1680
 1.5690	26.2300
 1.5700	26.2910
 1.5710	26.3550
 1.5720	26.4170
 1.5730	26.4780
 1.5740	26.5340
 1.5750	26.5890
 1.5760	26.6500
 1.5770	26.7070
 1.5780	26.7670
 1.5790	26.8270
 1.5800	26.8840
 1.5810	26.9440
 1.5820	27.0040
 1.5830	27.0620
 1.5840	27.1220
 1.5850	27.1810
 1.5860	27.2400
 1.5870	27.2970
 1.5880	27.3530
 1.5890	27.4100
 1.5900	27.4660
 1.5910	27.5230
 1.5920	27.5790
 1.5930	27.6290
 1.5940	27.6800
 1.5950	27.7320
 1.5960	27.7830
 1.5970	27.8350
 1.5980	27.8880
 1.5990	27.9380
 1.6000	27.9890
 1.6010	28.0390
 1.6020	28.0840
 1.6030	28.1340
 1.6040	28.1860
 1.6050	28.2390
 1.6060	28.2930
 1.6070	28.3410
 1.6080	28.3850
 1.6090	28.4300
 1.6100	28.4730
 1.6110	28.5190
 1.6120	28.5650
 1.6130	28.6060
 1.6140	28.6460
 1.6150	28.6870
 1.6160	28.7230
 1.6170	28.7630
 1.6180	28.8030
 1.6190	28.8410
 1.6200	28.8850
 1.6210	28.9270
 1.6220	28.9640
 1.6230	29.0010
 1.6240	29.0390
 1.6250	29.0740
 1.6260	29.1080
 1.6270	29.1430
 1.6280	29.1720
 1.6290	29.2000
 1.6300	29.2290
 1.6310	29.2570
 1.6320	29.2820
 1.6330	29.3070
 1.6340	29.3330
 1.6350	29.3560
 1.6360	29.3760
 1.6370	29.3960
 1.6380	29.4120
 1.6390	29.4320
 1.6400	29.4530
 1.6410	29.4710
 1.6420	29.4900
 1.6430	29.5030
 1.6440	29.5090
 1.6450	29.5170
 1.6460	29.5220
 1.6470	29.5240
 1.6480	29.5190
 1.6490	29.5120
 1.6500	29.5010
 1.6510	29.4870
 1.6520	29.4730
 1.6530	29.4600
 1.6540	29.4450
 1.6550	29.4320
 1.6560	29.4210
 1.6570	29.4050
 1.6580	29.3900
 1.6590	29.3750
 1.6600	29.3580
 1.6610	29.3440
 1.6620	29.3290
 1.6630	29.3130
 1.6640	29.2970
 1.6650	29.2790
 1.6660	29.2640
 1.6670	29.2540
 1.6680	29.2470
 1.6690	29.2410
 1.6700	29.2370
 1.6710	29.2330
 1.6720	29.2270
 1.6730	29.2240
 1.6740	29.2210
 1.6750	29.2080
 1.6760	29.1970
 1.6770	29.1840
 1.6780	29.1620
 1.6790	29.1420
 1.6800	29.1200
 1.6810	29.0900
 1.6820	29.0600
 1.6830	29.0280
 1.6840	28.9940
 1.6850	28.9620
 1.6860	28.9290
 1.6870	28.8940
 1.6880	28.8580
 1.6890	28.8240
 1.6900	28.7870
 1.6910	28.7450
 1.6920	28.7090
 1.6930	28.6770
 1.6940	28.6420
 1.6950	28.6080
 1.6960	28.5750
 1.6970	28.5340
 1.6980	28.5020
 1.6990	28.4800
 1.7000	28.4510
 1.7010	28.4240
 1.7020	28.3910
 1.7030	28.3510
 1.7040	28.3130
 1.7050	28.2740
 1.7060	28.2340
 1.7070	28.1930
 1.7080	28.1520
 1.7090	28.1080
 1.7100	28.0660
 1.7110	28.0270
 1.7120	27.9860
 1.7130	27.9420
 1.7140	27.8920
 1.7150	27.8440
 1.7160	27.7940
 1.7170	27.7440
 1.7180	27.7010
 1.7190	27.6530
 1.7200	27.6090
 1.7210	27.5700
 1.7220	27.5270
 1.7230	27.4860
 1.7240	27.4370
 1.7250	27.3850
 1.7260	27.3370
 1.7270	27.2900
 1.7280	27.2430
 1.7290	27.2000
 1.7300	27.1490
 1.7310	27.1030
 1.7320	27.0620
 1.7330	27.0210
 1.7340	26.9840
 1.7350	26.9470
 1.7360	26.9120
 1.7370	26.8760
 1.7380	26.8430
 1.7390	26.8040
 1.7400	26.7580
 1.7410	26.7190
 1.7420	26.6800
 1.7430	26.6380
 1.7440	26.5990
 1.7450	26.5570
 1.7460	26.5110
 1.7470	26.4660
 1.7480	26.4230
 1.7490	26.3790
 1.7500	26.3320
 1.7510	26.2850
 1.7520	26.2370
 1.7530	26.1900
 1.7540	26.1410
 1.7550	26.0970
 1.7560	26.0570
 1.7570	26.0140
 1.7580	25.9770
 1.7590	25.9470
 1.7600	25.9140
 1.7610	25.8880
 1.7620	25.8560
 1.7630	25.8140
 1.7640	25.7770
 1.7650	25.7380
 1.7660	25.7040
 1.7670	25.6750
 1.7680	25.6420
 1.7690	25.6080
 1.7700	25.5730
 1.7710	25.5340
 1.7720	25.5010
 1.7730	25.4730
 1.7740	25.4440
 1.7750	25.4170
 1.7760	25.3870
 1.7770	25.3540
 1.7780	25.3270
 1.7790	25.3010
 1.7800	25.2810
 1.7810	25.2670
 1.7820	25.2490
 1.7830	25.2310
 1.7840	25.2170
 1.7850	25.2050
 1.7860	25.1930
 1.7870	25.1830
 1.7880	25.1700
 1.7890	25.1660
 1.7900	25.1630
 1.7910	25.1600
 1.7920	25.1570
 1.7930	25.1550
 1.7940	25.1550
 1.7950	25.1550
 1.7960	25.1530
 1.7970	25.1530
 1.7980	25.1560
 1.7990	25.1570
 1.8000	25.1570
 1.8010	25.1620
 1.8020	25.1670
 1.8030	25.1780
 1.8040	25.1990
 1.8050	25.2100
 1.8060	25.2230
 1.8070	25.2280
 1.8080	25.2260
 1.8090	25.2240
 1.8100	25.2160
 1.8110	25.2160
 1.8120	25.2160
 1.8130	25.2210
 1.8140	25.2280
 1.8150	25.2290
 1.8160	25.2300
 1.8170	25.2350
 1.8180	25.2440
 1.8190	25.2490
 1.8200	25.2510
 1.8210	25.2460
 1.8220	25.2430
 1.8230	25.2420
 1.8240	25.2410
 1.8250	25.2450
 1.8260	25.2400
 1.8270	25.2620
 1.8280	25.2850
 1.8290	25.3070
 1.8300	25.3300
 1.8310	25.3520
 1.8320	25.3740
 1.8330	25.3970
 1.8340	25.4190
 1.8350	25.4190
 1.8360	25.3820
 1.8370	25.3410
 1.8380	25.3010
 1.8390	25.2580
 1.8400	25.2160
 1.8410	25.1630
 1.8420	25.1010
 1.8430	25.0420
 1.8440	24.9740
 1.8450	24.9080
 1.8460	24.8450
 1.8470	24.7670
 1.8480	24.6810
 1.8490	24.5810
 1.8500	24.4660
 1.8510	24.3350
 1.8520	24.1960
 1.8530	24.0500
 1.8540	23.9030
 1.8550	23.7550
 1.8560	23.6050
 1.8570	23.4350
 1.8580	23.2420
 1.8590	23.0400
 1.8600	22.8210
 1.8610	22.5920
 1.8620	22.3540
 1.8630	22.1050
 1.8640	21.8400
 1.8650	21.5620
 1.8660	21.2700
 1.8670	20.9550
 1.8680	20.6260
 1.8690	20.2770
 1.8700	19.9070
 1.8710	19.5110
 1.8720	19.1200
 1.8730	18.7140
 1.8740	18.2920
 1.8750	17.8740
 1.8760	17.4390
 1.8770	16.9940
 1.8780	16.5520
 1.8790	16.1040
 1.8800	15.6620
 1.8810	15.2220
 1.8820	14.7820
 1.8830	14.3400
 1.8840	13.8990
 1.8850	13.4630
 1.8860	13.0340
 1.8870	12.6200
 1.8880	12.2300
 1.8890	11.8470
 1.8900	11.4790
 1.8910	11.1360
 1.8920	10.8120
 1.8930	10.4980
 1.8940	10.2110
 1.8950	 9.9500
 1.8960	 9.6970
 1.8970	 9.4660
 1.8980	 9.2520
 1.8990	 9.0560
 1.9000	 8.8750
 1.9010	 8.7100
 1.9020	 8.5600
 1.9030	 8.4280
 1.9040	 8.3090
 1.9050	 8.1990
 1.9060	 8.1050
 1.9070	 8.0170
 1.9080	 7.9390
 1.9090	 7.8730
 1.9100	 7.8170
 1.9110	 7.7630
 1.9120	 7.7140
 1.9130	 7.6730
 1.9140	 7.6380
 1.9150	 7.6090
 1.9160	 7.5920
 1.9170	 7.5770
 1.9180	 7.5560
 1.9190	 7.5390
 1.9200	 7.5240
 1.9210	 7.5100
 1.9220	 7.5040
 1.9230	 7.5100
 1.9240	 7.5100
 1.9250	 7.5100
 1.9260	 7.5150
 1.9270	 7.5190
 1.9280	 7.5220
 1.9290	 7.5270
 1.9300	 7.5410
 1.9310	 7.5530
 1.9320	 7.5710
 1.9330	 7.5860
 1.9340	 7.6020
 1.9350	 7.6170
 1.9360	 7.6280
 1.9370	 7.6450
 1.9380	 7.6670
 1.9390	 7.6930
 1.9400	 7.7120
 1.9410	 7.7390
 1.9420	 7.7720
 1.9430	 7.7920
 1.9440	 7.8120
 1.9450	 7.8350
 1.9460	 7.8570
 1.9470	 7.8680
 1.9480	 7.8920
 1.9490	 7.9280
 1.9500	 7.9530
 1.9510	 7.9830
 1.9520	 8.0200
 1.9530	 8.0570
 1.9540	 8.0930
 1.9550	 8.1260
 1.9560	 8.1570
 1.9570	 8.1950
 1.9580	 8.2350
 1.9590	 8.2720
 1.9600	 8.3160
 1.9610	 8.3570
 1.9620	 8.3900
 1.9630	 8.4250
 1.9640	 8.4720
 1.9650	 8.5090
 1.9660	 8.5400
 1.9670	 8.5770
 1.9680	 8.6200
 1.9690	 8.6630
 1.9700	 8.7120
 1.9710	 8.7800
 1.9720	 8.8320
 1.9730	 8.8780
 1.9740	 8.9230
 1.9750	 8.9610
 1.9760	 8.9990
 1.9770	 9.0400
 1.9780	 9.0840
 1.9790	 9.1330
 1.9800	 9.1860
 1.9810	 9.2390
 1.9820	 9.2980
 1.9830	 9.3530
 1.9840	 9.4050
 1.9850	 9.4600
 1.9860	 9.5180
 1.9870	 9.5730
 1.9880	 9.6270
 1.9890	 9.6820
 1.9900	 9.7330
 1.9910	 9.7840
 1.9920	 9.8400
 1.9930	 9.9030
 1.9940	 9.9600
 1.9950	10.0190
 1.9960	10.0760
 1.9970	10.1300
 1.9980	10.1850
 1.9990	10.2400
 2.0000	10.2980
 2.0010	10.3560
 2.0020	10.4130
 2.0030	10.4750
 2.0040	10.5270
 2.0050	10.5810
 2.0060	10.6330
 2.0070	10.6890
 2.0080	10.7490
 2.0090	10.8060
 2.0100	10.8640
 2.0110	10.9200
 2.0120	10.9740
 2.0130	11.0220
 2.0140	11.0800
 2.0150	11.1300
 2.0160	11.1750
 2.0170	11.2230
 2.0180	11.2710
 2.0190	11.3160
 2.0200	11.3640
 2.0210	11.4190
 2.0220	11.4640
 2.0230	11.5020
 2.0240	11.5430
 2.0250	11.5800
 2.0260	11.6180
 2.0270	11.6570
 2.0280	11.6960
 2.0290	11.7370
 2.0300	11.7700
 2.0310	11.8050
 2.0320	11.8400
 2.0330	11.8730
 2.0340	11.9000
 2.0350	11.9340
 2.0360	11.9710
 2.0370	12.0070
 2.0380	12.0540
 2.0390	12.0880
 2.0400	12.1140
 2.0410	12.1390
 2.0420	12.1550
 2.0430	12.1700
 2.0440	12.1890
 2.0450	12.2100
 2.0460	12.2310
 2.0470	12.2540
 2.0480	12.2790
 2.0490	12.3080
 2.0500	12.3330
 2.0510	12.3580
 2.0520	12.3830
 2.0530	12.4060
 2.0540	12.4280
 2.0550	12.4480
 2.0560	12.4700
 2.0570	12.4850
 2.0580	12.4990
 2.0590	12.5190
 2.0600	12.5390
 2.0610	12.5620
 2.0620	12.5920
 2.0630	12.6140
 2.0640	12.6310
 2.0650	12.6570
 2.0660	12.6880
 2.0670	12.7140
 2.0680	12.7450
 2.0690	12.7720
 2.0700	12.7880
 2.0710	12.8080
 2.0720	12.8330
 2.0730	12.8540
 2.0740	12.8720
 2.0750	12.8880
 2.0760	12.9030
 2.0770	12.9120
 2.0780	12.9300
 2.0790	12.9540
 2.0800	12.9730
 2.0810	12.9930
 2.0820	13.0130
 2.0830	13.0310
 2.0840	13.0470
 2.0850	13.0660
 2.0860	13.0830
 2.0870	13.0940
 2.0880	13.1110
 2.0890	13.1320
 2.0900	13.1590
 2.0910	13.1810
 2.0920	13.2070
 2.0930	13.2270
 2.0940	13.2410
 2.0950	13.2590
 2.0960	13.2750
 2.0970	13.2940
 2.0980	13.3190
 2.0990	13.3390
 2.1000	13.3610
 2.1010	13.3790
 2.1020	13.3870
 2.1030	13.4030
 2.1040	13.4160
 2.1050	13.4380
 2.1060	13.4580
 2.1070	13.4820
 2.1080	13.5000
 2.1090	13.5120
 2.1100	13.5300
 2.1110	13.5480
 2.1120	13.5710
 2.1130	13.6010
 2.1140	13.6260
 2.1150	13.6550
 2.1160	13.6760
 2.1170	13.6900
 2.1180	13.7090
 2.1190	13.7250
 2.1200	13.7420
 2.1210	13.7640
 2.1220	13.7840
 2.1230	13.7980
 2.1240	13.8080
 2.1250	13.8200
 2.1260	13.8270
 2.1270	13.8420
 2.1280	13.8630
 2.1290	13.8780
 2.1300	13.8950
 2.1310	13.9080
 2.1320	13.9130
 2.1330	13.9220
 2.1340	13.9280
 2.1350	13.9390
 2.1360	13.9510
 2.1370	13.9660
 2.1380	13.9850
 2.1390	14.0080
 2.1400	14.0370
 2.1410	14.0630
 2.1420	14.0850
 2.1430	14.1060
 2.1440	14.1290
 2.1450	14.1470
 2.1460	14.1700
 2.1470	14.2020
 2.1480	14.2230
 2.1490	14.2410
 2.1500	14.2600
 2.1510	14.2750
 2.1520	14.2910
 2.1530	14.3080
 2.1540	14.3210
 2.1550	14.3260
 2.1560	14.3400
 2.1570	14.3560
 2.1580	14.3750
 2.1590	14.4060
 2.1600	14.4260
 2.1610	14.4480
 2.1620	14.4710
 2.1630	14.5020
 2.1640	14.5420
 2.1650	14.5740
 2.1660	14.6170
 2.1670	14.6410
 2.1680	14.6460
 2.1690	14.6660
 2.1700	14.6870
 2.1710	14.7080
 2.1720	14.7390
 2.1730	14.7630
 2.1740	14.7790
 2.1750	14.7990
 2.1760	14.8180
 2.1770	14.8400
 2.1780	14.8680
 2.1790	14.8880
 2.1800	14.8960
 2.1810	14.9170
 2.1820	14.9390
 2.1830	14.9660
 2.1840	14.9880
 2.1850	15.0210
 2.1860	15.0410
 2.1870	15.0450
 2.1880	15.0650
 2.1890	15.0880
 2.1900	15.1200
 2.1910	15.1680
 2.1920	15.2020
 2.1930	15.2370
 2.1940	15.2690
 2.1950	15.2900
 2.1960	15.3160
 2.1970	15.3530
 2.1980	15.3760
 2.1990	15.3900
 2.2000	15.4050
 2.2010	15.4030
 2.2020	15.4150
 2.2030	15.4330
 2.2040	15.4560
 2.2050	15.4920
 2.2060	15.5340
 2.2070	15.5620
 2.2080	15.5880
 2.2090	15.6150
 2.2100	15.6340
 2.2110	15.6560
 2.2120	15.6810
 2.2130	15.7010
 2.2140	15.7150
 2.2150	15.7350
 2.2160	15.7650
 2.2170	15.7810
 2.2180	15.7940
 2.2190	15.7990
 2.2200	15.7870
 2.2210	15.7850
 2.2220	15.7820
 2.2230	15.7810
 2.2240	15.7900
 2.2250	15.7840
 2.2260	15.7630
 2.2270	15.7540
 2.2280	15.7540
 2.2290	15.7380
 2.2300	15.7230
 2.2310	15.7030
 2.2320	15.6810
 2.2330	15.6510
 2.2340	15.6210
 2.2350	15.5970
 2.2360	15.5690
 2.2370	15.5280
 2.2380	15.4970
 2.2390	15.4850
 2.2400	15.4480
 2.2410	15.3970
 2.2420	15.3560
 2.2430	15.3090
 2.2440	15.2610
 2.2450	15.2270
 2.2460	15.1690
 2.2470	15.0920
 2.2480	15.0190
 2.2490	14.9270
 2.2500	14.8530
 2.2510	14.7890
 2.2520	14.7280
 2.2530	14.6820
 2.2540	14.6290
 2.2550	14.5700
 2.2560	14.5190
 2.2570	14.4740
 2.2580	14.4250
 2.2590	14.3840
 2.2600	14.3350
 2.2610	14.2730
 2.2620	14.2130
 2.2630	14.1700
 2.2640	14.1130
 2.2650	14.0680
 2.2660	14.0310
 2.2670	13.9880
 2.2680	13.9420
 2.2690	13.9000
 2.2700	13.8640
 2.2710	13.8190
 2.2720	13.7680
 2.2730	13.7260
 2.2740	13.6810
 2.2750	13.6420
 2.2760	13.6120
 2.2770	13.5770
 2.2780	13.5390
 2.2790	13.5060
 2.2800	13.4780
 2.2810	13.4500
 2.2820	13.4270
 2.2830	13.3990
 2.2840	13.3710
 2.2850	13.3380
 2.2860	13.2990
 2.2870	13.2610
 2.2880	13.2160
 2.2890	13.1790
 2.2900	13.1430
 2.2910	13.1120
 2.2920	13.0930
 2.2930	13.0650
 2.2940	13.0310
 2.2950	13.0020
 2.2960	12.9690
 2.2970	12.9360
 2.2980	12.9130
 2.2990	12.8760
 2.3000	12.8250
 2.3010	12.7800
 2.3020	12.7380
 2.3030	12.7070
 2.3040	12.6880
 2.3050	12.6730
 2.3060	12.6450
 2.3070	12.6170
 2.3080	12.5810
 2.3090	12.5370
 2.3100	12.5140
 2.3110	12.4910
 2.3120	12.4720
 2.3130	12.4740
 2.3140	12.4500
 2.3150	12.4040
 2.3160	12.3830
 2.3170	12.3600
 2.3180	12.3450
 2.3190	12.3620
 2.3200	12.3400
 2.3210	12.2970
 2.3220	12.2670
 2.3230	12.2230
 2.3240	12.2010
 2.3250	12.2100
 2.3260	12.1830
 2.3270	12.1440
 2.3280	12.1070
 2.3290	12.0450
 2.3300	12.0060
 2.3310	11.9750
 2.3320	11.9580
 2.3330	11.9620
 2.3340	11.9440
 2.3350	11.9300
 2.3360	11.9060
 2.3370	11.8580
 2.3380	11.8340
 2.3390	11.8280
 2.3400	11.8110
 2.3410	11.8010
 2.3420	11.7740
 2.3430	11.7250
 2.3440	11.6890
 2.3450	11.6470
 2.3460	11.6160
 2.3470	11.5950
 2.3480	11.5770
 2.3490	11.5740
 2.3500	11.5530
 2.3510	11.5260
 2.3520	11.5060
 2.3530	11.4710
 2.3540	11.4540
 2.3550	11.4550
 2.3560	11.4290
 2.3570	11.3910
 2.3580	11.3480
 2.3590	11.2970
 2.3600	11.2540
 2.3610	11.2170
 2.3620	11.1800
 2.3630	11.1500
 2.3640	11.1200
 2.3650	11.1120
 2.3660	11.1070
 2.3670	11.0890
 2.3680	11.0690
 2.3690	11.0180
 2.3700	10.9810
 2.3710	10.9690
 2.3720	10.9560
 2.3730	10.9600
 2.3740	10.9480
 2.3750	10.9120
 2.3760	10.8820
 2.3770	10.8720
 2.3780	10.8390
 2.3790	10.7980
 2.3800	10.7580
 2.3810	10.6750
 2.3820	10.6490
 2.3830	10.6510
 2.3840	10.6220
 2.3850	10.6150
 2.3860	10.5670
 2.3870	10.5010
 2.3880	10.4710
 2.3890	10.4530
 2.3900	10.4380
 2.3910	10.4230
 2.3920	10.3990
 2.3930	10.3430
 2.3940	10.2850
 2.3950	10.2220
 2.3960	10.1840
 2.3970	10.1820
 2.3980	10.1570
 2.3990	10.1200
 2.4000	10.0730
 2.4010	10.0320
 2.4020	 9.9990
 2.4030	 9.9880
 2.4040	 9.9630
 2.4050	 9.9090
 2.4060	 9.9000
 2.4070	 9.8800
 2.4080	 9.8510
 2.4090	 9.7920
 2.4100	 9.6900
 2.4110	 9.6220
 2.4120	 9.5430
 2.4130	 9.4910
 2.4140	 9.5000
 2.4150	 9.4800
 2.4160	 9.4590
 2.4170	 9.4660
 2.4180	 9.4500
 2.4190	 9.4300
 2.4200	 9.4020
 2.4210	 9.3320
 2.4220	 9.2180
 2.4230	 9.1070
 2.4240	 9.0760
 2.4250	 9.0830
 2.4260	 9.0980
 2.4270	 9.1340
 2.4280	 9.1230
 2.4290	 9.0870
 2.4300	 9.0820
 2.4310	 9.0900
 2.4320	 9.0690
 2.4330	 9.0110
 2.4340	 8.9330
 2.4350	 8.8490
 2.4360	 8.7650
 2.4370	 8.7340
 2.4380	 8.7560
 2.4390	 8.7180
 2.4400	 8.6730
 2.4410	 8.6570
 2.4420	 8.5900
 2.4430	 8.5100
 2.4440	 8.4630
 2.4450	 8.4090
 2.4460	 8.3750
 2.4470	 8.3990
 2.4480	 8.3920
 2.4490	 8.3560
 2.4500	 8.2990
 2.4510	 8.2720
 2.4520	 8.2950
 2.4530	 8.2960
 2.4540	 8.3390
 2.4550	 8.3180
 2.4560	 8.2620
 2.4570	 8.2870
 2.4580	 8.2570
 2.4590	 8.2100
 2.4600	 8.1910
 2.4610	 8.1460
 2.4620	 8.0650
 2.4630	 7.9990
 2.4640	 7.9450
 2.4650	 7.8700
 2.4660	 7.8700
 2.4670	 7.9210
 2.4680	 7.9910
 2.4690	 8.0240
 2.4700	 7.9950
 2.4710	 7.9470
 2.4720	 7.9090
 2.4730	 7.8290
 2.4740	 7.7810
 2.4750	 7.7330
 2.4760	 7.6800
 2.4770	 7.6290
 2.4780	 7.6380
 2.4790	 7.6810
 2.4800	 7.7220
 2.4810	 7.8050
 2.4820	 7.7740
 2.4830	 7.7990
 2.4840	 7.7660
 2.4850	 7.7040
 2.4860	 7.6420
 2.4870	 7.6500
 2.4880	 7.7120
 2.4890	 7.7710
 2.4900	 7.8150
 2.4910	 7.7570
 2.4920	 7.6360
 2.4930	 7.5610
 2.4940	 7.5910
 2.4950	 7.6590
 2.4960	 7.7090
 2.4970	 7.6880
 2.4980	 7.4950
 2.4990	 7.3510
 2.5000	 7.3750
