Name: Ceanothus megacarpus 2
Type: vegetation
Class: Shrub
Genus: Ceanothus
Species: megacarpus
Sample No.: VH214
Owner: UCSB
Wavelength Range: TIR
Origin: 34.4909; -119.7914; WGS84
Collection Date: 10/13/2013
Description: Samples were collected as part of the HyspIRI Airborne Campaign. 48 individual plants were sampled in three times in 2013 - spring  summer  and fall. The name of the sample includes a 1  2  or 3 which references a different individual of the species. Samples were taken to JPL and processed within 48 hours of collection. The same leaves were processed in the Nicolet and then measured using the ASD.
Measurement: Hemispherical reflectance
First Column: X
Second Column: Y
X Units: Wavelength (micrometers)
Y Units: Reflectance (percentage)
First X Value: 2.501
Last X Value: 15.387
Number of X Values: 1737
Additional Information: vegetation.shrub.ceanothus.megacarpus.tir.vh214.ucsb.nicolet.ancillary.txt

 2.5010	 5.3220
 2.5030	 5.3200
 2.5040	 5.2750
 2.5050	 5.1220
 2.5060	 5.1320
 2.5070	 5.0870
 2.5090	 5.3090
 2.5100	 5.3550
 2.5110	 5.1270
 2.5120	 5.1370
 2.5140	 5.2570
 2.5150	 5.3410
 2.5160	 5.3990
 2.5170	 5.3820
 2.5180	 5.5220
 2.5200	 5.5040
 2.5210	 5.4890
 2.5220	 5.3850
 2.5230	 5.2670
 2.5250	 5.2390
 2.5260	 5.2360
 2.5270	 5.2320
 2.5280	 5.2930
 2.5290	 5.2940
 2.5310	 5.4520
 2.5320	 5.4580
 2.5330	 5.5320
 2.5340	 5.4750
 2.5360	 5.2670
 2.5370	 5.1860
 2.5380	 5.3710
 2.5390	 5.3340
 2.5410	 5.3040
 2.5420	 5.5200
 2.5430	 5.5710
 2.5440	 5.1620
 2.5460	 5.1490
 2.5470	 5.4480
 2.5480	 5.4570
 2.5490	 5.3710
 2.5510	 5.3190
 2.5520	 5.2200
 2.5530	 5.3540
 2.5540	 5.3630
 2.5560	 5.2730
 2.5570	 5.1620
 2.5580	 5.2980
 2.5590	 5.2340
 2.5610	 5.2320
 2.5620	 5.2940
 2.5630	 5.3360
 2.5640	 5.4670
 2.5660	 5.4320
 2.5670	 5.3130
 2.5680	 5.4330
 2.5700	 5.6320
 2.5710	 5.7400
 2.5720	 5.3470
 2.5730	 5.2580
 2.5750	 5.5360
 2.5760	 5.5990
 2.5770	 5.4570
 2.5790	 5.6030
 2.5800	 5.7360
 2.5810	 5.5920
 2.5820	 5.4190
 2.5840	 5.3110
 2.5850	 5.1580
 2.5860	 5.2400
 2.5880	 5.3220
 2.5890	 5.4820
 2.5900	 5.2560
 2.5910	 5.0920
 2.5930	 5.1330
 2.5940	 5.3260
 2.5950	 5.3460
 2.5970	 5.2670
 2.5980	 5.3900
 2.5990	 5.5470
 2.6000	 5.4530
 2.6020	 5.4550
 2.6030	 5.4530
 2.6040	 5.4110
 2.6060	 5.3870
 2.6070	 5.5670
 2.6080	 5.5910
 2.6100	 5.4200
 2.6110	 5.1630
 2.6120	 5.2010
 2.6140	 5.3080
 2.6150	 5.2390
 2.6160	 5.1760
 2.6180	 5.2550
 2.6190	 5.2020
 2.6200	 5.1200
 2.6220	 5.0470
 2.6230	 5.2050
 2.6240	 5.1940
 2.6260	 5.3680
 2.6270	 5.4590
 2.6280	 5.3800
 2.6300	 5.4280
 2.6310	 5.4210
 2.6320	 5.1540
 2.6340	 5.1020
 2.6350	 5.0080
 2.6360	 5.0380
 2.6380	 5.0660
 2.6390	 5.2050
 2.6400	 5.2650
 2.6420	 5.2910
 2.6430	 5.2630
 2.6440	 5.2090
 2.6460	 5.1310
 2.6470	 5.0180
 2.6480	 4.8530
 2.6500	 5.0380
 2.6510	 5.0800
 2.6520	 4.9250
 2.6540	 4.8330
 2.6550	 4.8820
 2.6560	 4.9260
 2.6580	 5.1200
 2.6590	 5.2310
 2.6610	 5.2630
 2.6620	 5.1010
 2.6630	 4.9480
 2.6650	 4.9370
 2.6660	 4.7000
 2.6670	 4.6130
 2.6690	 4.8380
 2.6700	 4.9320
 2.6720	 4.9800
 2.6730	 4.8260
 2.6740	 4.9740
 2.6760	 5.1350
 2.6770	 4.9400
 2.6780	 4.6680
 2.6800	 4.6010
 2.6810	 4.5840
 2.6830	 4.7810
 2.6840	 4.9360
 2.6850	 4.8820
 2.6870	 4.8560
 2.6880	 4.8250
 2.6900	 4.7390
 2.6910	 4.8210
 2.6920	 4.9600
 2.6940	 4.9660
 2.6950	 4.7850
 2.6970	 4.7620
 2.6980	 4.9410
 2.6990	 5.0920
 2.7010	 4.9450
 2.7020	 5.0700
 2.7040	 4.9270
 2.7050	 4.6940
 2.7060	 4.6750
 2.7080	 4.7610
 2.7090	 4.6950
 2.7110	 4.8160
 2.7120	 4.8180
 2.7130	 4.8020
 2.7150	 4.6950
 2.7160	 4.6690
 2.7180	 4.7040
 2.7190	 5.0540
 2.7210	 5.1010
 2.7220	 4.6490
 2.7230	 4.3980
 2.7250	 4.6830
 2.7260	 4.7260
 2.7280	 4.3560
 2.7290	 4.4540
 2.7310	 4.7910
 2.7320	 4.6540
 2.7330	 4.8580
 2.7350	 4.8520
 2.7360	 4.6270
 2.7380	 4.4880
 2.7390	 4.5230
 2.7410	 4.0410
 2.7420	 3.8610
 2.7440	 4.3400
 2.7450	 4.8120
 2.7470	 4.8180
 2.7480	 4.6530
 2.7490	 4.1990
 2.7510	 4.4050
 2.7520	 4.5720
 2.7540	 4.3850
 2.7550	 4.0350
 2.7570	 4.0120
 2.7580	 4.4300
 2.7600	 4.6140
 2.7610	 4.0860
 2.7630	 4.3340
 2.7640	 5.0720
 2.7660	 4.9450
 2.7670	 4.4670
 2.7680	 4.8680
 2.7700	 4.9350
 2.7710	 5.0490
 2.7730	 5.0280
 2.7740	 4.6710
 2.7760	 4.1700
 2.7770	 4.0430
 2.7790	 4.3390
 2.7800	 4.4950
 2.7820	 4.5030
 2.7830	 4.6740
 2.7850	 4.6480
 2.7860	 4.5740
 2.7880	 4.4940
 2.7890	 4.7390
 2.7910	 4.5920
 2.7920	 4.5580
 2.7940	 4.5070
 2.7950	 4.2170
 2.7970	 4.3370
 2.7980	 4.8840
 2.8000	 4.8090
 2.8010	 4.4280
 2.8030	 4.2700
 2.8040	 4.1720
 2.8060	 4.2230
 2.8070	 4.3310
 2.8090	 4.3330
 2.8110	 4.5070
 2.8120	 4.5020
 2.8140	 4.4690
 2.8150	 4.2810
 2.8170	 4.4400
 2.8180	 4.3760
 2.8200	 4.1820
 2.8210	 4.5810
 2.8230	 5.0340
 2.8240	 4.9820
 2.8260	 4.6230
 2.8270	 4.2640
 2.8290	 4.3730
 2.8300	 4.2220
 2.8320	 4.1270
 2.8340	 4.1820
 2.8350	 4.3630
 2.8370	 4.2220
 2.8380	 4.2210
 2.8400	 4.3090
 2.8410	 4.5970
 2.8430	 4.6890
 2.8440	 4.5240
 2.8460	 4.3080
 2.8480	 4.3280
 2.8490	 4.2980
 2.8510	 4.4330
 2.8520	 4.4920
 2.8540	 4.3910
 2.8550	 4.2540
 2.8570	 4.4690
 2.8590	 4.5450
 2.8600	 4.5710
 2.8620	 4.5470
 2.8630	 4.4180
 2.8650	 4.0420
 2.8660	 3.8910
 2.8680	 4.2250
 2.8700	 4.2380
 2.8710	 4.4230
 2.8730	 4.5470
 2.8740	 4.2780
 2.8760	 4.2610
 2.8780	 4.3960
 2.8790	 4.7890
 2.8810	 4.3800
 2.8820	 4.3520
 2.8840	 4.3470
 2.8860	 4.4530
 2.8870	 4.9940
 2.8890	 4.7970
 2.8900	 4.3340
 2.8920	 4.2600
 2.8940	 4.5470
 2.8950	 4.1770
 2.8970	 3.9880
 2.8980	 4.4820
 2.9000	 4.7070
 2.9020	 4.8120
 2.9030	 4.7380
 2.9050	 4.9230
 2.9070	 5.2220
 2.9080	 4.8630
 2.9100	 4.1660
 2.9120	 4.3170
 2.9130	 4.5050
 2.9150	 4.2340
 2.9160	 4.3830
 2.9180	 4.5300
 2.9200	 4.4490
 2.9210	 4.5040
 2.9230	 4.4540
 2.9250	 4.4870
 2.9260	 4.4500
 2.9280	 4.4790
 2.9300	 4.6070
 2.9310	 4.5410
 2.9330	 4.1970
 2.9350	 4.3380
 2.9360	 4.5300
 2.9380	 4.6090
 2.9400	 4.4610
 2.9410	 4.5770
 2.9430	 5.0160
 2.9450	 4.5810
 2.9460	 3.9930
 2.9480	 4.1470
 2.9500	 4.0040
 2.9510	 4.3680
 2.9530	 4.7850
 2.9550	 4.7320
 2.9560	 4.5200
 2.9580	 4.3310
 2.9600	 3.6890
 2.9610	 3.8170
 2.9630	 4.9800
 2.9650	 4.7130
 2.9660	 4.4440
 2.9680	 5.0900
 2.9700	 5.6940
 2.9720	 4.3830
 2.9730	 2.5600
 2.9750	 4.8050
 2.9770	 5.6140
 2.9780	 4.7020
 2.9800	 5.3010
 2.9820	 4.7960
 2.9840	 3.3380
 2.9850	 3.9940
 2.9870	 5.3560
 2.9890	 7.1180
 2.9900	 5.8170
 2.9920	 5.8060
 2.9940	 6.8280
 2.9960	 5.3100
 2.9970	 0.6990
 2.9990	 1.2690
 3.0010	 3.8800
 3.0030	 4.0630
 3.0040	 3.3270
 3.0060	 2.7010
 3.0080	 2.6460
 3.0100	 2.6500
 3.0110	 3.7830
 3.0130	 4.8730
 3.0150	 4.1100
 3.0170	 3.9560
 3.0180	 4.5570
 3.0200	 4.4920
 3.0220	 4.6760
 3.0240	 5.7060
 3.0250	 5.5540
 3.0270	 4.6160
 3.0290	 4.6020
 3.0310	 5.1960
 3.0320	 5.2270
 3.0340	 4.7650
 3.0360	 3.5660
 3.0380	 2.8550
 3.0400	 3.6580
 3.0410	 6.0590
 3.0430	 5.2600
 3.0450	 3.5120
 3.0470	 3.9820
 3.0480	 3.5090
 3.0500	 5.7740
 3.0520	 7.3220
 3.0540	 5.0730
 3.0560	 5.6820
 3.0570	 7.1470
 3.0590	 6.8810
 3.0610	 6.9030
 3.0630	 6.5610
 3.0650	 4.1600
 3.0660	 1.3220
 3.0680	 3.1920
 3.0700	 5.5310
 3.0720	 5.7100
 3.0740	 5.5080
 3.0760	 4.7360
 3.0770	 4.4780
 3.0790	 4.5790
 3.0810	 4.7920
 3.0830	 4.9280
 3.0850	 4.6160
 3.0870	 4.4670
 3.0880	 4.4660
 3.0900	 4.6520
 3.0920	 4.5570
 3.0940	 4.2590
 3.0960	 4.4420
 3.0980	 4.4850
 3.0990	 4.5880
 3.1010	 4.3680
 3.1030	 4.3440
 3.1050	 4.7950
 3.1070	 5.0020
 3.1090	 4.8320
 3.1110	 4.8810
 3.1120	 4.8440
 3.1140	 4.7720
 3.1160	 4.8300
 3.1180	 5.0380
 3.1200	 4.7100
 3.1220	 4.5250
 3.1240	 4.6590
 3.1260	 4.8300
 3.1270	 4.9330
 3.1290	 4.8540
 3.1310	 4.8680
 3.1330	 5.1660
 3.1350	 5.1510
 3.1370	 3.9760
 3.1390	 3.5840
 3.1410	 5.6930
 3.1430	 6.0930
 3.1450	 4.5190
 3.1460	 2.0230
 3.1480	 3.6570
 3.1500	 4.7910
 3.1520	 3.2810
 3.1540	 3.2000
 3.1560	 2.6360
 3.1580	 3.4280
 3.1600	 4.9080
 3.1620	 4.1040
 3.1640	 2.7570
 3.1660	 2.6090
 3.1680	 2.6200
 3.1700	 3.4390
 3.1710	 2.1020
 3.1730	 1.4550
 3.1750	 5.0790
 3.1770	 6.4700
 3.1790	 7.3940
 3.1810	 6.0440
 3.1830	 3.2820
 3.1850	 3.5360
 3.1870	 4.3190
 3.1890	 3.9090
 3.1910	 3.9020
 3.1930	 4.4430
 3.1950	 4.6390
 3.1970	 4.2040
 3.1990	 4.3490
 3.2010	 4.3950
 3.2030	 3.9260
 3.2050	 3.8430
 3.2070	 4.2530
 3.2090	 4.2950
 3.2110	 4.3770
 3.2130	 4.4840
 3.2150	 4.5170
 3.2170	 4.2510
 3.2190	 4.1450
 3.2210	 4.1620
 3.2230	 4.0700
 3.2250	 4.0320
 3.2270	 4.2840
 3.2290	 4.5080
 3.2310	 4.5370
 3.2330	 4.5240
 3.2350	 4.5590
 3.2370	 4.1150
 3.2390	 3.7870
 3.2410	 3.8570
 3.2430	 4.2500
 3.2450	 4.0850
 3.2470	 4.2090
 3.2490	 4.5730
 3.2510	 4.6280
 3.2530	 4.5110
 3.2550	 5.1740
 3.2570	 5.1950
 3.2590	 4.2200
 3.2610	 3.7590
 3.2630	 4.1270
 3.2650	 4.1360
 3.2670	 4.1150
 3.2690	 4.1760
 3.2720	 4.1890
 3.2740	 3.8920
 3.2760	 4.0300
 3.2780	 4.1460
 3.2800	 3.9560
 3.2820	 3.7810
 3.2840	 3.9160
 3.2860	 4.0620
 3.2880	 4.2040
 3.2900	 4.0800
 3.2920	 4.1730
 3.2940	 3.9170
 3.2960	 3.8000
 3.2990	 3.9980
 3.3010	 3.9350
 3.3030	 3.9260
 3.3050	 3.8690
 3.3070	 3.5810
 3.3090	 4.2500
 3.3110	 4.9370
 3.3130	 4.6710
 3.3150	 4.5490
 3.3180	 4.3020
 3.3200	 3.9750
 3.3220	 3.8690
 3.3240	 3.8980
 3.3260	 4.1500
 3.3280	 4.1200
 3.3300	 4.0660
 3.3330	 4.2330
 3.3350	 4.1370
 3.3370	 4.0730
 3.3390	 4.1480
 3.3410	 4.0520
 3.3430	 4.0760
 3.3450	 4.1660
 3.3480	 4.0600
 3.3500	 3.7020
 3.3520	 3.8460
 3.3540	 4.0800
 3.3560	 4.0920
 3.3580	 3.9310
 3.3610	 4.0450
 3.3630	 3.9840
 3.3650	 3.9070
 3.3670	 3.9140
 3.3690	 3.8100
 3.3720	 3.7580
 3.3740	 3.7580
 3.3760	 3.7620
 3.3780	 3.8480
 3.3800	 3.8280
 3.3830	 3.8100
 3.3850	 3.8420
 3.3870	 4.0780
 3.3890	 4.1280
 3.3910	 4.0480
 3.3940	 4.0510
 3.3960	 3.8140
 3.3980	 3.6070
 3.4000	 3.7650
 3.4020	 3.8820
 3.4050	 3.8960
 3.4070	 4.0650
 3.4090	 4.2340
 3.4110	 4.3430
 3.4140	 4.6340
 3.4160	 4.8590
 3.4180	 5.3640
 3.4200	 6.0240
 3.4230	 6.7420
 3.4250	 7.4080
 3.4270	 8.1440
 3.4290	 8.6900
 3.4320	 8.4540
 3.4340	 7.5280
 3.4360	 6.7230
 3.4390	 6.2400
 3.4410	 6.0850
 3.4430	 5.8940
 3.4450	 5.8320
 3.4480	 5.4430
 3.4500	 5.1010
 3.4520	 5.0360
 3.4550	 4.7780
 3.4570	 4.9160
 3.4590	 5.1870
 3.4620	 5.3950
 3.4640	 5.4180
 3.4660	 5.1280
 3.4680	 4.9540
 3.4710	 5.0720
 3.4730	 5.0450
 3.4750	 4.9600
 3.4780	 4.8670
 3.4800	 4.8300
 3.4820	 4.8410
 3.4850	 4.8810
 3.4870	 4.7340
 3.4890	 4.5340
 3.4920	 4.5680
 3.4940	 4.4680
 3.4970	 4.3940
 3.4990	 4.4500
 3.5010	 4.4190
 3.5040	 4.5670
 3.5060	 5.2510
 3.5080	 6.5160
 3.5110	 7.8470
 3.5130	 8.0560
 3.5160	 7.2430
 3.5180	 6.3180
 3.5200	 5.8350
 3.5230	 5.8340
 3.5250	 5.8490
 3.5270	 5.6790
 3.5300	 5.5030
 3.5320	 5.4060
 3.5350	 5.4300
 3.5370	 5.3490
 3.5400	 5.1290
 3.5420	 5.1190
 3.5440	 5.2860
 3.5470	 5.2410
 3.5490	 5.1030
 3.5520	 5.1970
 3.5540	 5.3140
 3.5570	 5.1230
 3.5590	 5.0240
 3.5610	 5.0400
 3.5640	 4.9950
 3.5660	 4.9470
 3.5690	 5.0850
 3.5710	 5.0250
 3.5740	 4.9460
 3.5760	 4.9990
 3.5790	 5.0930
 3.5810	 5.0990
 3.5840	 5.3280
 3.5860	 5.7110
 3.5890	 5.4590
 3.5910	 5.2550
 3.5930	 5.1750
 3.5960	 4.8850
 3.5980	 5.2220
 3.6010	 5.4350
 3.6030	 5.1420
 3.6060	 4.9010
 3.6080	 4.7480
 3.6110	 4.8020
 3.6140	 4.8730
 3.6160	 4.7550
 3.6190	 4.6790
 3.6210	 4.7500
 3.6240	 4.7700
 3.6260	 4.8260
 3.6290	 4.8240
 3.6310	 4.7960
 3.6340	 4.7730
 3.6360	 4.6400
 3.6390	 4.6870
 3.6410	 4.8520
 3.6440	 4.8610
 3.6470	 4.6910
 3.6490	 4.7200
 3.6520	 4.7730
 3.6540	 4.8100
 3.6570	 4.6970
 3.6590	 4.6910
 3.6620	 4.7700
 3.6650	 4.8540
 3.6670	 4.8040
 3.6700	 4.7880
 3.6720	 4.7190
 3.6750	 4.7800
 3.6780	 4.8730
 3.6800	 4.8080
 3.6830	 4.6570
 3.6850	 4.7580
 3.6880	 4.9060
 3.6910	 4.7930
 3.6930	 4.7070
 3.6960	 4.8640
 3.6990	 4.8390
 3.7010	 4.7940
 3.7040	 4.7850
 3.7060	 4.7700
 3.7090	 4.7520
 3.7120	 4.7910
 3.7140	 4.8770
 3.7170	 4.8420
 3.7200	 4.7740
 3.7220	 4.7930
 3.7250	 4.6860
 3.7280	 4.6550
 3.7300	 4.7220
 3.7330	 4.6410
 3.7360	 4.5320
 3.7390	 4.5510
 3.7410	 4.6650
 3.7440	 4.6440
 3.7470	 4.7110
 3.7490	 4.6080
 3.7520	 4.5400
 3.7550	 4.7250
 3.7580	 4.7420
 3.7600	 4.5610
 3.7630	 4.5270
 3.7660	 4.6050
 3.7680	 4.5050
 3.7710	 4.5900
 3.7740	 4.9270
 3.7770	 5.0710
 3.7790	 4.9440
 3.7820	 4.8940
 3.7850	 4.7950
 3.7880	 4.6400
 3.7900	 4.6200
 3.7930	 4.7080
 3.7960	 4.7120
 3.7990	 4.7320
 3.8020	 4.8840
 3.8040	 4.8610
 3.8070	 4.7240
 3.8100	 4.6770
 3.8130	 4.6040
 3.8160	 4.6070
 3.8180	 4.6220
 3.8210	 4.6240
 3.8240	 4.6600
 3.8270	 4.7820
 3.8300	 4.8330
 3.8330	 4.8260
 3.8350	 4.6320
 3.8380	 4.6430
 3.8410	 4.6910
 3.8440	 4.6840
 3.8470	 4.8210
 3.8500	 4.7970
 3.8520	 4.6850
 3.8550	 4.6650
 3.8580	 4.5890
 3.8610	 4.6570
 3.8640	 4.7190
 3.8670	 4.7100
 3.8700	 4.7220
 3.8730	 4.7050
 3.8750	 4.7260
 3.8780	 4.7700
 3.8810	 4.7990
 3.8840	 4.7310
 3.8870	 4.6960
 3.8900	 4.7610
 3.8930	 4.8070
 3.8960	 4.7720
 3.8990	 4.7120
 3.9020	 4.6830
 3.9050	 4.7000
 3.9080	 4.7700
 3.9110	 4.7750
 3.9140	 4.8180
 3.9160	 4.7840
 3.9190	 4.7790
 3.9220	 4.7460
 3.9250	 4.6260
 3.9280	 4.6030
 3.9310	 4.6870
 3.9340	 4.7480
 3.9370	 4.7670
 3.9400	 4.7150
 3.9430	 4.7460
 3.9460	 4.7020
 3.9490	 4.6650
 3.9520	 4.7040
 3.9550	 4.8130
 3.9580	 4.8310
 3.9610	 4.7410
 3.9640	 4.7760
 3.9670	 4.8250
 3.9700	 4.7370
 3.9730	 4.7260
 3.9770	 4.6970
 3.9800	 4.6820
 3.9830	 4.6920
 3.9860	 4.7030
 3.9890	 4.6590
 3.9920	 4.6750
 3.9950	 4.7480
 3.9980	 4.7900
 4.0010	 4.7520
 4.0040	 4.6840
 4.0070	 4.6020
 4.0100	 4.5810
 4.0130	 4.6830
 4.0170	 4.7350
 4.0200	 4.6570
 4.0230	 4.6520
 4.0260	 4.7540
 4.0290	 4.7700
 4.0320	 4.8000
 4.0350	 4.8440
 4.0380	 4.7370
 4.0420	 4.7070
 4.0450	 4.7740
 4.0480	 4.7690
 4.0510	 4.7660
 4.0540	 4.7430
 4.0570	 4.7240
 4.0610	 4.7980
 4.0640	 4.7620
 4.0670	 4.7900
 4.0700	 4.8340
 4.0730	 4.7870
 4.0770	 4.7200
 4.0800	 4.7220
 4.0830	 4.7530
 4.0860	 4.7460
 4.0890	 4.8170
 4.0930	 4.8780
 4.0960	 4.8560
 4.0990	 4.7600
 4.1020	 4.7710
 4.1060	 4.8220
 4.1090	 4.7690
 4.1120	 4.9210
 4.1150	 4.9880
 4.1190	 4.7770
 4.1220	 4.7390
 4.1250	 4.7420
 4.1280	 4.7280
 4.1320	 4.7600
 4.1350	 4.7610
 4.1380	 4.7570
 4.1420	 4.7550
 4.1450	 4.7750
 4.1480	 4.8510
 4.1520	 4.8280
 4.1550	 4.8120
 4.1580	 4.9110
 4.1620	 4.8600
 4.1650	 4.7750
 4.1680	 4.8450
 4.1720	 4.8540
 4.1750	 4.8520
 4.1780	 4.8230
 4.1820	 4.8680
 4.1850	 4.8890
 4.1890	 4.8880
 4.1920	 4.8280
 4.1950	 4.7350
 4.1990	 4.8380
 4.2020	 4.8680
 4.2060	 4.9290
 4.2090	 5.0570
 4.2120	 5.1990
 4.2160	 5.4670
 4.2190	 5.5600
 4.2230	 5.5910
 4.2260	 5.6400
 4.2300	 5.8180
 4.2330	 6.0330
 4.2360	 6.0070
 4.2400	 6.0490
 4.2430	 6.2330
 4.2470	 6.2420
 4.2500	 5.6790
 4.2540	 5.4220
 4.2570	 5.2420
 4.2610	 5.2120
 4.2640	 5.5820
 4.2680	 5.5410
 4.2710	 5.1760
 4.2750	 5.2790
 4.2780	 5.4630
 4.2820	 5.2330
 4.2850	 5.1990
 4.2890	 5.3640
 4.2930	 5.3030
 4.2960	 5.2640
 4.3000	 5.4280
 4.3030	 5.4500
 4.3070	 5.4200
 4.3100	 5.1890
 4.3140	 4.9940
 4.3180	 5.0220
 4.3210	 5.1690
 4.3250	 5.0800
 4.3280	 4.8500
 4.3320	 4.8620
 4.3360	 4.9590
 4.3390	 4.9070
 4.3430	 4.9100
 4.3470	 4.9060
 4.3500	 4.9300
 4.3540	 4.8440
 4.3570	 4.7440
 4.3610	 4.7200
 4.3650	 4.7370
 4.3680	 4.8190
 4.3720	 4.8020
 4.3760	 4.8640
 4.3800	 4.8830
 4.3830	 4.8180
 4.3870	 4.8500
 4.3910	 4.8760
 4.3940	 4.8450
 4.3980	 4.8500
 4.4020	 4.8090
 4.4060	 4.7460
 4.4090	 4.7880
 4.4130	 4.8090
 4.4170	 4.7480
 4.4210	 4.7570
 4.4240	 4.7950
 4.4280	 4.7260
 4.4320	 4.5820
 4.4360	 4.5830
 4.4400	 4.7950
 4.4430	 4.8840
 4.4470	 4.9000
 4.4510	 4.8390
 4.4550	 4.7360
 4.4590	 4.6960
 4.4620	 4.6760
 4.4660	 4.5870
 4.4700	 4.5990
 4.4740	 4.7610
 4.4780	 4.8400
 4.4820	 4.8790
 4.4860	 4.9330
 4.4900	 4.8900
 4.4930	 4.8080
 4.4970	 4.6350
 4.5010	 4.6180
 4.5050	 4.7270
 4.5090	 4.6670
 4.5130	 4.6270
 4.5170	 4.7200
 4.5210	 4.7820
 4.5250	 4.8050
 4.5290	 4.8770
 4.5330	 4.9050
 4.5370	 4.7380
 4.5410	 4.5690
 4.5450	 4.6370
 4.5490	 4.6710
 4.5530	 4.6040
 4.5570	 4.7380
 4.5610	 4.9170
 4.5650	 4.8240
 4.5690	 4.5710
 4.5730	 4.6910
 4.5770	 4.7480
 4.5810	 4.6080
 4.5850	 4.6560
 4.5890	 4.7860
 4.5930	 4.7920
 4.5970	 4.7790
 4.6010	 4.8120
 4.6050	 4.8780
 4.6090	 4.8310
 4.6130	 4.6860
 4.6170	 4.5660
 4.6220	 4.7450
 4.6260	 4.8790
 4.6300	 4.7850
 4.6340	 4.7680
 4.6380	 4.8170
 4.6420	 4.7830
 4.6460	 4.8060
 4.6510	 4.7790
 4.6550	 4.6980
 4.6590	 4.5970
 4.6630	 4.6550
 4.6670	 4.8520
 4.6720	 4.9150
 4.6760	 4.7460
 4.6800	 4.6860
 4.6840	 4.7710
 4.6880	 4.8010
 4.6930	 4.6900
 4.6970	 4.6640
 4.7010	 4.6870
 4.7050	 4.6570
 4.7100	 4.4860
 4.7140	 4.5510
 4.7180	 4.7420
 4.7230	 4.7290
 4.7270	 4.5830
 4.7310	 4.6570
 4.7360	 4.7150
 4.7400	 4.7410
 4.7440	 4.7960
 4.7490	 4.8080
 4.7530	 4.7900
 4.7570	 4.7580
 4.7620	 4.6720
 4.7660	 4.6490
 4.7700	 4.6340
 4.7750	 4.7400
 4.7790	 4.6670
 4.7840	 4.5690
 4.7880	 4.6740
 4.7920	 4.8450
 4.7970	 4.8920
 4.8010	 4.6550
 4.8060	 4.7190
 4.8100	 4.8450
 4.8150	 4.7860
 4.8190	 4.8120
 4.8240	 4.7260
 4.8280	 4.6410
 4.8330	 4.6340
 4.8370	 4.6550
 4.8420	 4.6460
 4.8460	 4.6510
 4.8510	 4.6310
 4.8550	 4.6640
 4.8600	 4.7280
 4.8640	 4.7520
 4.8690	 4.6430
 4.8730	 4.6530
 4.8780	 4.7490
 4.8830	 4.7530
 4.8870	 4.7020
 4.8920	 4.7030
 4.8960	 4.7310
 4.9010	 4.7970
 4.9060	 4.7390
 4.9100	 4.6920
 4.9150	 4.7100
 4.9200	 4.7330
 4.9240	 4.7510
 4.9290	 4.8290
 4.9340	 4.7620
 4.9380	 4.7430
 4.9430	 4.7590
 4.9480	 4.7820
 4.9530	 4.7500
 4.9570	 4.7230
 4.9620	 4.6520
 4.9670	 4.6490
 4.9720	 4.6500
 4.9760	 4.6550
 4.9810	 4.6880
 4.9860	 4.7360
 4.9910	 4.7490
 4.9960	 4.7780
 5.0000	 4.8030
 5.0050	 4.7870
 5.0100	 4.6820
 5.0150	 4.7490
 5.0200	 4.8120
 5.0250	 4.8670
 5.0290	 4.7200
 5.0340	 4.7090
 5.0390	 4.7310
 5.0440	 4.6050
 5.0490	 4.5920
 5.0540	 4.6670
 5.0590	 4.6980
 5.0640	 4.6780
 5.0690	 4.5980
 5.0740	 4.6370
 5.0790	 4.6700
 5.0840	 4.7970
 5.0890	 4.8450
 5.0940	 4.7030
 5.0990	 4.6110
 5.1040	 4.6790
 5.1090	 4.7030
 5.1140	 4.7740
 5.1190	 4.7480
 5.1240	 4.7020
 5.1290	 4.7200
 5.1340	 4.7500
 5.1390	 4.6540
 5.1440	 4.6560
 5.1490	 4.6740
 5.1540	 4.7390
 5.1600	 4.7220
 5.1650	 4.6460
 5.1700	 4.6310
 5.1750	 4.6850
 5.1800	 4.7210
 5.1850	 4.7770
 5.1910	 4.6930
 5.1960	 4.6600
 5.2010	 4.6880
 5.2060	 4.7680
 5.2110	 4.7810
 5.2170	 4.7730
 5.2220	 4.7220
 5.2270	 4.7210
 5.2320	 4.6920
 5.2380	 4.7050
 5.2430	 4.7710
 5.2480	 4.8410
 5.2540	 4.7760
 5.2590	 4.6780
 5.2640	 4.6100
 5.2700	 4.7850
 5.2750	 4.8310
 5.2800	 4.7600
 5.2860	 4.7500
 5.2910	 4.8320
 5.2970	 4.7200
 5.3020	 4.6870
 5.3070	 4.6380
 5.3130	 4.6770
 5.3180	 4.6930
 5.3240	 4.7320
 5.3290	 4.7360
 5.3350	 4.7270
 5.3400	 4.7200
 5.3460	 4.7740
 5.3510	 4.6980
 5.3570	 4.6560
 5.3620	 4.6320
 5.3680	 4.6760
 5.3730	 4.6680
 5.3790	 4.6390
 5.3850	 4.6180
 5.3900	 4.6770
 5.3960	 4.6470
 5.4010	 4.5930
 5.4070	 4.5520
 5.4130	 4.5550
 5.4180	 4.5300
 5.4240	 4.6210
 5.4300	 4.7420
 5.4350	 4.7840
 5.4410	 4.6790
 5.4470	 4.6400
 5.4530	 4.5570
 5.4580	 4.6070
 5.4640	 4.6340
 5.4700	 4.6360
 5.4760	 4.6370
 5.4810	 4.6490
 5.4870	 4.5220
 5.4930	 4.5240
 5.4990	 4.4980
 5.5050	 4.5210
 5.5110	 4.5510
 5.5160	 4.5620
 5.5220	 4.5570
 5.5280	 4.5610
 5.5340	 4.4950
 5.5400	 4.4980
 5.5460	 4.4530
 5.5520	 4.5050
 5.5580	 4.5060
 5.5640	 4.5600
 5.5700	 4.5230
 5.5760	 4.4680
 5.5820	 4.3560
 5.5880	 4.4220
 5.5940	 4.4600
 5.6000	 4.4710
 5.6060	 4.4210
 5.6120	 4.4320
 5.6180	 4.4060
 5.6240	 4.3430
 5.6300	 4.2730
 5.6360	 4.2970
 5.6420	 4.2170
 5.6490	 4.1870
 5.6550	 4.1350
 5.6610	 4.2540
 5.6670	 4.2290
 5.6730	 4.2810
 5.6800	 4.3410
 5.6860	 4.2300
 5.6920	 4.0580
 5.6980	 4.1190
 5.7040	 4.1500
 5.7110	 4.1210
 5.7170	 4.0620
 5.7230	 4.1520
 5.7300	 4.0580
 5.7360	 3.9880
 5.7420	 3.9450
 5.7490	 3.9570
 5.7550	 3.8740
 5.7620	 3.9480
 5.7680	 4.0560
 5.7740	 4.1010
 5.7810	 4.0990
 5.7870	 4.1030
 5.7940	 4.0500
 5.8000	 4.1870
 5.8070	 4.2620
 5.8130	 4.3030
 5.8200	 4.2560
 5.8260	 4.3060
 5.8330	 4.2800
 5.8390	 4.2990
 5.8460	 4.3370
 5.8530	 4.3380
 5.8590	 4.3310
 5.8660	 4.3810
 5.8720	 4.3450
 5.8790	 4.4040
 5.8860	 4.3850
 5.8920	 4.4470
 5.8990	 4.4150
 5.9060	 4.4770
 5.9130	 4.5030
 5.9190	 4.4920
 5.9260	 4.4310
 5.9330	 4.5200
 5.9400	 4.5550
 5.9470	 4.6840
 5.9530	 4.8280
 5.9600	 4.9050
 5.9670	 4.8230
 5.9740	 4.8510
 5.9810	 4.7470
 5.9880	 4.7310
 5.9950	 4.7830
 6.0020	 4.8450
 6.0090	 4.8000
 6.0160	 4.9050
 6.0230	 4.8590
 6.0300	 4.8150
 6.0370	 4.7260
 6.0440	 4.7010
 6.0510	 4.6560
 6.0580	 4.7250
 6.0650	 4.6620
 6.0720	 4.7620
 6.0790	 4.7420
 6.0860	 4.7020
 6.0930	 4.7300
 6.1000	 4.8950
 6.1080	 4.8890
 6.1150	 4.9250
 6.1220	 4.8250
 6.1290	 4.9500
 6.1370	 4.9790
 6.1440	 4.9310
 6.1510	 4.7900
 6.1580	 4.7400
 6.1660	 4.7030
 6.1730	 4.8060
 6.1800	 4.8130
 6.1880	 4.9640
 6.1950	 4.9420
 6.2030	 4.9510
 6.2100	 4.8810
 6.2170	 4.9740
 6.2250	 4.9070
 6.2320	 4.8660
 6.2400	 4.8840
 6.2470	 4.8370
 6.2550	 4.7420
 6.2630	 4.8680
 6.2700	 4.8720
 6.2780	 4.9220
 6.2850	 4.9450
 6.2930	 4.9020
 6.3010	 4.7740
 6.3080	 4.8400
 6.3160	 4.7550
 6.3240	 4.7780
 6.3310	 4.7880
 6.3390	 4.7890
 6.3470	 4.7290
 6.3550	 4.6930
 6.3620	 4.6760
 6.3700	 4.8030
 6.3780	 4.6750
 6.3860	 4.6920
 6.3940	 4.7280
 6.4020	 4.8750
 6.4100	 4.8440
 6.4180	 4.7820
 6.4260	 4.6650
 6.4330	 4.7090
 6.4410	 4.6630
 6.4490	 4.7260
 6.4580	 4.6400
 6.4660	 4.4970
 6.4740	 4.5320
 6.4820	 4.6690
 6.4900	 4.6530
 6.4980	 4.7070
 6.5060	 4.6160
 6.5140	 4.5960
 6.5230	 4.5420
 6.5310	 4.5560
 6.5390	 4.4620
 6.5470	 4.4620
 6.5550	 4.4600
 6.5640	 4.5100
 6.5720	 4.4800
 6.5800	 4.6400
 6.5890	 4.5980
 6.5970	 4.5530
 6.6060	 4.5580
 6.6140	 4.6330
 6.6220	 4.6220
 6.6310	 4.6260
 6.6390	 4.5070
 6.6480	 4.5700
 6.6560	 4.5070
 6.6650	 4.6150
 6.6740	 4.6130
 6.6820	 4.5810
 6.6910	 4.4640
 6.6990	 4.4530
 6.7080	 4.3720
 6.7170	 4.4320
 6.7260	 4.3670
 6.7340	 4.4110
 6.7430	 4.2490
 6.7520	 4.2250
 6.7610	 4.2920
 6.7690	 4.3820
 6.7780	 4.4300
 6.7870	 4.8540
 6.7960	 4.7520
 6.8050	 4.4180
 6.8140	 4.3150
 6.8230	 4.4910
 6.8320	 4.6710
 6.8410	 5.0010
 6.8500	 4.7910
 6.8590	 4.5230
 6.8680	 4.4490
 6.8770	 4.5610
 6.8860	 4.5430
 6.8950	 4.6020
 6.9050	 4.5030
 6.9140	 4.4920
 6.9230	 4.5300
 6.9320	 4.7070
 6.9420	 4.6620
 6.9510	 4.5280
 6.9600	 4.3950
 6.9700	 4.5250
 6.9790	 4.5530
 6.9880	 4.6130
 6.9980	 4.5120
 7.0070	 4.6110
 7.0170	 4.5510
 7.0260	 4.5780
 7.0360	 4.4590
 7.0450	 4.5470
 7.0550	 4.6140
 7.0650	 4.6640
 7.0740	 4.6030
 7.0840	 4.6060
 7.0940	 4.4790
 7.1030	 4.5730
 7.1130	 4.5220
 7.1230	 4.5860
 7.1330	 4.5290
 7.1420	 4.5080
 7.1520	 4.3680
 7.1620	 4.4400
 7.1720	 4.4600
 7.1820	 4.4320
 7.1920	 4.3000
 7.2020	 4.3910
 7.2120	 4.3930
 7.2220	 4.4340
 7.2320	 4.3730
 7.2420	 4.4390
 7.2520	 4.3890
 7.2620	 4.4670
 7.2730	 4.4590
 7.2830	 4.5460
 7.2930	 4.5290
 7.3030	 4.5720
 7.3140	 4.4470
 7.3240	 4.4570
 7.3340	 4.2960
 7.3450	 4.3290
 7.3550	 4.3770
 7.3660	 4.5030
 7.3760	 4.3960
 7.3870	 4.3090
 7.3970	 4.2600
 7.4080	 4.2590
 7.4180	 4.2600
 7.4290	 4.4490
 7.4400	 4.3990
 7.4500	 4.3840
 7.4610	 4.4170
 7.4720	 4.5700
 7.4830	 4.5370
 7.4930	 4.5110
 7.5040	 4.4330
 7.5150	 4.5230
 7.5260	 4.3800
 7.5370	 4.2870
 7.5480	 4.2270
 7.5590	 4.3790
 7.5700	 4.3340
 7.5810	 4.4160
 7.5920	 4.3450
 7.6030	 4.4270
 7.6140	 4.4010
 7.6260	 4.4420
 7.6370	 4.4320
 7.6480	 4.4990
 7.6590	 4.3840
 7.6710	 4.5010
 7.6820	 4.3630
 7.6930	 4.2710
 7.7050	 4.2470
 7.7160	 4.3360
 7.7280	 4.1810
 7.7390	 4.2820
 7.7510	 4.2330
 7.7630	 4.2140
 7.7740	 4.1880
 7.7860	 4.2590
 7.7980	 4.1700
 7.8090	 4.2530
 7.8210	 4.2110
 7.8330	 4.3700
 7.8450	 4.3530
 7.8570	 4.3720
 7.8690	 4.2810
 7.8810	 4.3560
 7.8930	 4.3340
 7.9050	 4.4330
 7.9170	 4.3650
 7.9290	 4.3470
 7.9410	 4.2910
 7.9530	 4.4440
 7.9650	 4.2630
 7.9780	 4.3430
 7.9900	 4.3610
 8.0020	 4.2960
 8.0150	 4.2410
 8.0270	 4.3650
 8.0390	 4.2290
 8.0520	 4.4560
 8.0640	 4.4730
 8.0770	 4.3980
 8.0900	 4.3210
 8.1020	 4.4810
 8.1150	 4.3880
 8.1280	 4.4690
 8.1400	 4.3790
 8.1530	 4.5870
 8.1660	 4.4810
 8.1790	 4.4940
 8.1920	 4.4590
 8.2050	 4.5880
 8.2180	 4.4820
 8.2310	 4.5060
 8.2440	 4.4170
 8.2570	 4.5310
 8.2700	 4.4030
 8.2830	 4.5100
 8.2970	 4.5450
 8.3100	 4.6980
 8.3230	 4.6570
 8.3370	 4.5430
 8.3500	 4.2990
 8.3640	 4.4430
 8.3770	 4.4170
 8.3910	 4.4620
 8.4040	 4.4010
 8.4180	 4.7080
 8.4320	 4.6080
 8.4450	 4.6120
 8.4590	 4.6860
 8.4730	 4.8510
 8.4870	 4.5640
 8.5010	 4.6450
 8.5150	 4.6520
 8.5290	 4.6940
 8.5430	 4.6020
 8.5570	 4.8410
 8.5710	 4.7380
 8.5850	 4.8370
 8.5990	 4.8270
 8.6140	 4.8320
 8.6280	 4.7150
 8.6420	 4.8130
 8.6570	 4.8010
 8.6710	 4.9500
 8.6860	 4.8200
 8.7000	 4.8880
 8.7150	 4.8110
 8.7300	 4.9600
 8.7440	 4.7460
 8.7590	 4.9920
 8.7740	 4.8720
 8.7890	 4.8820
 8.8040	 4.8750
 8.8190	 5.0580
 8.8340	 4.9340
 8.8490	 5.0120
 8.8640	 4.7550
 8.8790	 4.9060
 8.8940	 4.8910
 8.9100	 5.0240
 8.9250	 4.7980
 8.9400	 4.8080
 8.9560	 4.6400
 8.9710	 4.8330
 8.9870	 4.7490
 9.0020	 4.8670
 9.0180	 4.7710
 9.0340	 4.8470
 9.0500	 4.7870
 9.0650	 4.9230
 9.0810	 4.7790
 9.0970	 4.9720
 9.1130	 4.9010
 9.1290	 5.0000
 9.1450	 4.9960
 9.1610	 5.1540
 9.1780	 4.9630
 9.1940	 4.8810
 9.2100	 4.7530
 9.2270	 4.8950
 9.2430	 4.6460
 9.2600	 4.7260
 9.2760	 4.7110
 9.2930	 4.9240
 9.3090	 4.8570
 9.3260	 5.1560
 9.3430	 4.9840
 9.3600	 5.0840
 9.3770	 4.9840
 9.3940	 4.9770
 9.4110	 4.7110
 9.4280	 4.8970
 9.4450	 4.8090
 9.4620	 4.9960
 9.4800	 4.9340
 9.4970	 5.0850
 9.5140	 4.9570
 9.5320	 5.0190
 9.5500	 4.8170
 9.5670	 5.0670
 9.5850	 5.1470
 9.6030	 5.2560
 9.6200	 4.9960
 9.6380	 5.1380
 9.6560	 4.9550
 9.6740	 4.8940
 9.6920	 5.0350
 9.7100	 5.4510
 9.7290	 5.1350
 9.7470	 5.1810
 9.7650	 5.0150
 9.7840	 5.1500
 9.8020	 5.0830
 9.8210	 5.1790
 9.8390	 5.0890
 9.8580	 5.2060
 9.8770	 5.0310
 9.8960	 5.2040
 9.9150	 5.0890
 9.9340	 5.1720
 9.9530	 5.0170
 9.9720	 5.2160
 9.9910	 5.0760
10.0100	 5.2360
10.0300	 5.0290
10.0490	 5.1650
10.0690	 5.1340
10.0880	 5.2050
10.1080	 5.0320
10.1280	 5.1260
10.1480	 4.9910
10.1670	 5.0620
10.1870	 4.8900
10.2070	 4.9940
10.2280	 4.8290
10.2480	 5.0850
10.2680	 4.9770
10.2890	 4.9540
10.3090	 4.9010
10.3300	 5.0610
10.3500	 4.8470
10.3710	 5.0040
10.3920	 4.7340
10.4120	 4.7790
10.4330	 4.7190
10.4540	 4.9240
10.4760	 4.9050
10.4970	 5.0350
10.5180	 4.8400
10.5390	 5.0070
10.5610	 4.8600
10.5820	 4.9000
10.6040	 4.7100
10.6260	 5.0190
10.6480	 4.9190
10.6700	 4.9480
10.6920	 4.8120
10.7140	 4.8910
10.7360	 4.7310
10.7580	 4.8440
10.7800	 4.7020
10.8030	 4.8010
10.8250	 4.6810
10.8480	 4.8380
10.8710	 4.6780
10.8940	 4.8990
10.9170	 4.7840
10.9400	 4.8450
10.9630	 4.6350
10.9860	 4.8490
11.0090	 4.6580
11.0330	 4.7300
11.0560	 4.4950
11.0800	 4.8520
11.1040	 4.8920
11.1270	 4.9970
11.1510	 4.5870
11.1750	 4.6090
11.2000	 4.6430
11.2240	 5.0250
11.2480	 4.9750
11.2730	 5.3250
11.2970	 4.5440
11.3220	 4.4360
11.3470	 4.5750
11.3720	 4.7010
11.3970	 4.5050
11.4220	 4.7180
11.4470	 4.8040
11.4720	 5.0620
11.4980	 4.8070
11.5230	 4.6570
11.5490	 4.5480
11.5750	 4.7520
11.6000	 4.4230
11.6260	 4.5300
11.6530	 4.5000
11.6790	 4.6460
11.7050	 4.5140
11.7320	 4.7520
11.7580	 4.5530
11.7850	 4.7240
11.8120	 4.5810
11.8390	 4.7390
11.8660	 4.6240
11.8930	 4.8560
11.9200	 4.6650
11.9480	 4.8730
11.9760	 4.6830
12.0030	 4.8460
12.0310	 4.5500
12.0590	 4.7760
12.0870	 4.6760
12.1150	 4.9630
12.1440	 4.6830
12.1720	 4.7730
12.2010	 4.7400
12.2300	 4.9500
12.2590	 4.5290
12.2880	 4.6610
12.3170	 4.7050
12.3460	 5.2330
12.3760	 5.0510
12.4050	 5.0650
12.4350	 4.7400
12.4650	 4.8900
12.4950	 4.5820
12.5250	 4.8970
12.5550	 4.7810
12.5860	 4.9360
12.6170	 4.5920
12.6470	 4.8720
12.6780	 4.6830
12.7090	 4.7890
12.7410	 4.6950
12.7720	 5.0320
12.8030	 4.7460
12.8350	 4.9620
12.8670	 4.4570
12.8990	 4.5760
12.9310	 4.4710
12.9640	 4.8780
12.9960	 4.5710
13.0290	 4.7750
13.0610	 4.4830
13.0940	 4.5660
13.1280	 4.3610
13.1610	 4.6790
13.1940	 4.3860
13.2280	 4.5070
13.2620	 4.6380
13.2960	 5.2410
13.3300	 4.8330
13.3640	 4.8590
13.3990	 4.5250
13.4340	 4.7060
13.4690	 4.3470
13.5040	 4.6220
13.5390	 4.2960
13.5740	 4.5520
13.6100	 4.5420
13.6460	 5.1330
13.6820	 4.8520
13.7180	 5.0880
13.7540	 4.8420
13.7910	 4.7840
13.8280	 4.4230
13.8650	 5.1330
13.9020	 5.1000
13.9390	 5.0180
13.9770	 4.4380
14.0150	 4.5950
14.0530	 4.1300
14.0910	 4.6080
14.1290	 4.6160
14.1680	 4.9670
14.2070	 4.5570
14.2460	 4.7310
14.2850	 4.1220
14.3240	 4.5450
14.3640	 4.3220
14.4040	 4.5100
14.4440	 4.0260
14.4840	 4.6490
14.5250	 4.2930
14.5660	 4.8010
14.6070	 4.1640
14.6480	 4.6370
14.6900	 4.2430
14.7310	 4.9040
14.7730	 4.4490
14.8150	 4.7510
14.8580	 4.4520
14.9010	 4.9280
14.9440	 4.4200
14.9870	 5.3860
15.0300	 4.1190
15.0740	 4.5340
15.1180	 3.9560
15.1620	 4.4920
15.2060	 3.6760
15.2510	 4.0820
15.2960	 3.6730
15.3410	 4.6720
15.3870	 3.7690
