Name: Pinus ponderosa 3
Type: vegetation
Class: Tree
Genus: Pinus
Species: ponderosa
Sample No.: VH260
Owner: UCSB
Wavelength Range: VSWIR
Origin: 37.043; -119.3048; WGS84
Collection Date: 11/2/2013
Description: Samples were collected as part of the HyspIRI Airborne Campaign. 48 individual plants were sampled in three times in 2013 - spring  summer  and fall. The name of the sample includes a 1  2  or 3 which references a different individual of the species. Samples were taken to JPL and processed within 48 hours of collection. The same leaves were processed in the Nicolet and then measured using the ASD.
Measurement: Bidirectional reflectance
First Column: X
Second Column: Y
X Units: Wavelength (micrometers)
Y Units: Reflectance (percentage)
First X Value: 0.35
Last X Value: 2.5
Number of X Values: 2151
Additional Information: vegetation.tree.pinus.ponderosa.vswir.vh260.ucsb.asd.ancillary.txt

 0.3500	 6.2280
 0.3510	 5.9730
 0.3520	 5.7420
 0.3530	 5.7440
 0.3540	 5.9320
 0.3550	 5.8610
 0.3560	 5.7420
 0.3570	 5.6850
 0.3580	 5.7230
 0.3590	 5.7670
 0.3600	 5.7620
 0.3610	 5.7040
 0.3620	 5.6410
 0.3630	 5.5890
 0.3640	 5.5650
 0.3650	 5.5720
 0.3660	 5.5980
 0.3670	 5.6190
 0.3680	 5.6060
 0.3690	 5.5440
 0.3700	 5.5920
 0.3710	 5.5850
 0.3720	 5.4840
 0.3730	 5.5690
 0.3740	 5.5500
 0.3750	 5.4940
 0.3760	 5.5380
 0.3770	 5.5440
 0.3780	 5.5660
 0.3790	 5.5760
 0.3800	 5.4820
 0.3810	 5.4630
 0.3820	 5.4470
 0.3830	 5.4070
 0.3840	 5.5300
 0.3850	 5.5550
 0.3860	 5.4970
 0.3870	 5.4710
 0.3880	 5.5260
 0.3890	 5.5350
 0.3900	 5.4870
 0.3910	 5.5000
 0.3920	 5.5200
 0.3930	 5.5040
 0.3940	 5.4510
 0.3950	 5.4790
 0.3960	 5.4870
 0.3970	 5.4750
 0.3980	 5.4850
 0.3990	 5.5060
 0.4000	 5.5010
 0.4010	 5.4720
 0.4020	 5.4650
 0.4030	 5.4730
 0.4040	 5.4990
 0.4050	 5.5400
 0.4060	 5.5580
 0.4070	 5.5740
 0.4080	 5.5970
 0.4090	 5.6280
 0.4100	 5.6540
 0.4110	 5.6990
 0.4120	 5.7620
 0.4130	 5.7950
 0.4140	 5.8380
 0.4150	 5.8850
 0.4160	 5.9240
 0.4170	 5.9980
 0.4180	 6.0720
 0.4190	 6.1360
 0.4200	 6.2110
 0.4210	 6.2800
 0.4220	 6.3520
 0.4230	 6.4300
 0.4240	 6.4970
 0.4250	 6.5710
 0.4260	 6.6410
 0.4270	 6.6900
 0.4280	 6.7750
 0.4290	 6.8530
 0.4300	 6.9100
 0.4310	 6.9760
 0.4320	 7.0460
 0.4330	 7.1040
 0.4340	 7.1410
 0.4350	 7.1720
 0.4360	 7.2230
 0.4370	 7.2880
 0.4380	 7.3470
 0.4390	 7.3980
 0.4400	 7.4530
 0.4410	 7.5130
 0.4420	 7.5480
 0.4430	 7.5890
 0.4440	 7.6360
 0.4450	 7.6760
 0.4460	 7.7090
 0.4470	 7.7440
 0.4480	 7.7850
 0.4490	 7.8270
 0.4500	 7.8630
 0.4510	 7.8910
 0.4520	 7.9150
 0.4530	 7.9480
 0.4540	 7.9780
 0.4550	 7.9980
 0.4560	 8.0090
 0.4570	 8.0360
 0.4580	 8.0610
 0.4590	 8.0740
 0.4600	 8.0910
 0.4610	 8.1090
 0.4620	 8.1190
 0.4630	 8.1180
 0.4640	 8.1380
 0.4650	 8.1640
 0.4660	 8.1810
 0.4670	 8.1850
 0.4680	 8.1880
 0.4690	 8.1970
 0.4700	 8.2100
 0.4710	 8.2090
 0.4720	 8.2110
 0.4730	 8.2180
 0.4740	 8.2250
 0.4750	 8.2320
 0.4760	 8.2380
 0.4770	 8.2460
 0.4780	 8.2570
 0.4790	 8.2680
 0.4800	 8.2760
 0.4810	 8.2800
 0.4820	 8.2910
 0.4830	 8.2980
 0.4840	 8.3000
 0.4850	 8.3060
 0.4860	 8.3150
 0.4870	 8.3280
 0.4880	 8.3470
 0.4890	 8.3710
 0.4900	 8.3950
 0.4910	 8.4170
 0.4920	 8.4410
 0.4930	 8.4770
 0.4940	 8.5160
 0.4950	 8.5510
 0.4960	 8.5880
 0.4970	 8.6290
 0.4980	 8.6750
 0.4990	 8.7270
 0.5000	 8.7840
 0.5010	 8.8460
 0.5020	 8.9150
 0.5030	 8.9910
 0.5040	 9.0730
 0.5050	 9.1630
 0.5060	 9.2620
 0.5070	 9.3670
 0.5080	 9.4740
 0.5090	 9.5860
 0.5100	 9.7130
 0.5110	 9.8520
 0.5120	 9.9980
 0.5130	10.1500
 0.5140	10.3130
 0.5150	10.4820
 0.5160	10.6580
 0.5170	10.8420
 0.5180	11.0330
 0.5190	11.2310
 0.5200	11.4330
 0.5210	11.6360
 0.5220	11.8380
 0.5230	12.0320
 0.5240	12.2170
 0.5250	12.4050
 0.5260	12.5880
 0.5270	12.7600
 0.5280	12.9160
 0.5290	13.0630
 0.5300	13.2000
 0.5310	13.3270
 0.5320	13.4450
 0.5330	13.5500
 0.5340	13.6460
 0.5350	13.7350
 0.5360	13.8140
 0.5370	13.8830
 0.5380	13.9430
 0.5390	13.9950
 0.5400	14.0410
 0.5410	14.0760
 0.5420	14.1040
 0.5430	14.1410
 0.5440	14.1800
 0.5450	14.2210
 0.5460	14.2630
 0.5470	14.3190
 0.5480	14.3750
 0.5490	14.4210
 0.5500	14.4530
 0.5510	14.4800
 0.5520	14.4990
 0.5530	14.5030
 0.5540	14.4990
 0.5550	14.4880
 0.5560	14.4640
 0.5570	14.4210
 0.5580	14.3680
 0.5590	14.3090
 0.5600	14.2440
 0.5610	14.1670
 0.5620	14.0840
 0.5630	13.9930
 0.5640	13.8910
 0.5650	13.7860
 0.5660	13.6770
 0.5670	13.5650
 0.5680	13.4520
 0.5690	13.3340
 0.5700	13.2160
 0.5710	13.1010
 0.5720	12.9840
 0.5730	12.8740
 0.5740	12.7720
 0.5750	12.6700
 0.5760	12.5690
 0.5770	12.4740
 0.5780	12.3880
 0.5790	12.3030
 0.5800	12.2340
 0.5810	12.1730
 0.5820	12.1100
 0.5830	12.0500
 0.5840	11.9950
 0.5850	11.9440
 0.5860	11.9000
 0.5870	11.8620
 0.5880	11.8270
 0.5890	11.7920
 0.5900	11.7510
 0.5910	11.7110
 0.5920	11.6760
 0.5930	11.6490
 0.5940	11.6250
 0.5950	11.6020
 0.5960	11.5800
 0.5970	11.5550
 0.5980	11.5330
 0.5990	11.5090
 0.6000	11.4810
 0.6010	11.4530
 0.6020	11.4220
 0.6030	11.3890
 0.6040	11.3490
 0.6050	11.3010
 0.6060	11.2500
 0.6070	11.2010
 0.6080	11.1460
 0.6090	11.0830
 0.6100	11.0090
 0.6110	10.9300
 0.6120	10.8750
 0.6130	10.8280
 0.6140	10.7780
 0.6150	10.7260
 0.6160	10.6760
 0.6170	10.6260
 0.6180	10.5780
 0.6190	10.5400
 0.6200	10.5020
 0.6210	10.4660
 0.6220	10.4390
 0.6230	10.4170
 0.6240	10.3980
 0.6250	10.3810
 0.6260	10.3720
 0.6270	10.3660
 0.6280	10.3610
 0.6290	10.3560
 0.6300	10.3520
 0.6310	10.3470
 0.6320	10.3410
 0.6330	10.3320
 0.6340	10.3200
 0.6350	10.3000
 0.6360	10.2680
 0.6370	10.2260
 0.6380	10.1790
 0.6390	10.1270
 0.6400	10.0660
 0.6410	10.0010
 0.6420	 9.9320
 0.6430	 9.8570
 0.6440	 9.7880
 0.6450	 9.7180
 0.6460	 9.6480
 0.6470	 9.5810
 0.6480	 9.5200
 0.6490	 9.4640
 0.6500	 9.4120
 0.6510	 9.3670
 0.6520	 9.3270
 0.6530	 9.2890
 0.6540	 9.2520
 0.6550	 9.2130
 0.6560	 9.1700
 0.6570	 9.1210
 0.6580	 9.0650
 0.6590	 9.0090
 0.6600	 8.9520
 0.6610	 8.8910
 0.6620	 8.8260
 0.6630	 8.7680
 0.6640	 8.7130
 0.6650	 8.6600
 0.6660	 8.6170
 0.6670	 8.5800
 0.6680	 8.5480
 0.6690	 8.5210
 0.6700	 8.5020
 0.6710	 8.4900
 0.6720	 8.4820
 0.6730	 8.4810
 0.6740	 8.4860
 0.6750	 8.4950
 0.6760	 8.5070
 0.6770	 8.5220
 0.6780	 8.5430
 0.6790	 8.5720
 0.6800	 8.6130
 0.6810	 8.6590
 0.6820	 8.7130
 0.6830	 8.7800
 0.6840	 8.8620
 0.6850	 8.9660
 0.6860	 9.0930
 0.6870	 9.2410
 0.6880	 9.4270
 0.6890	 9.6470
 0.6900	 9.9070
 0.6910	10.2180
 0.6920	10.5790
 0.6930	10.9900
 0.6940	11.4540
 0.6950	11.9740
 0.6960	12.5510
 0.6970	13.1780
 0.6980	13.8540
 0.6990	14.5760
 0.7000	15.3410
 0.7010	16.1460
 0.7020	16.9860
 0.7030	17.8510
 0.7040	18.7420
 0.7050	19.6570
 0.7060	20.5810
 0.7070	21.5260
 0.7080	22.4890
 0.7090	23.4620
 0.7100	24.4560
 0.7110	25.4570
 0.7120	26.4670
 0.7130	27.4970
 0.7140	28.5330
 0.7150	29.5710
 0.7160	30.6140
 0.7170	31.6630
 0.7180	32.7130
 0.7190	33.7620
 0.7200	34.8120
 0.7210	35.8640
 0.7220	36.9080
 0.7230	37.9380
 0.7240	38.9590
 0.7250	39.9640
 0.7260	40.9470
 0.7270	41.9060
 0.7280	42.8400
 0.7290	43.7470
 0.7300	44.6220
 0.7310	45.4620
 0.7320	46.2810
 0.7330	47.0600
 0.7340	47.7990
 0.7350	48.5280
 0.7360	49.2170
 0.7370	49.8700
 0.7380	50.4910
 0.7390	51.0750
 0.7400	51.6300
 0.7410	52.1540
 0.7420	52.6490
 0.7430	53.1300
 0.7440	53.5750
 0.7450	53.9800
 0.7460	54.3590
 0.7470	54.7130
 0.7480	55.0380
 0.7490	55.3350
 0.7500	55.6180
 0.7510	55.8800
 0.7520	56.1120
 0.7530	56.3170
 0.7540	56.5260
 0.7550	56.7160
 0.7560	56.8760
 0.7570	57.0130
 0.7580	57.1450
 0.7590	57.2750
 0.7600	57.3940
 0.7610	57.4870
 0.7620	57.5820
 0.7630	57.6760
 0.7640	57.7580
 0.7650	57.8100
 0.7660	57.8610
 0.7670	57.9210
 0.7680	57.9840
 0.7690	58.0300
 0.7700	58.0670
 0.7710	58.1020
 0.7720	58.1380
 0.7730	58.1660
 0.7740	58.1990
 0.7750	58.2430
 0.7760	58.2620
 0.7770	58.2800
 0.7780	58.3040
 0.7790	58.3330
 0.7800	58.3610
 0.7810	58.3780
 0.7820	58.3870
 0.7830	58.4080
 0.7840	58.4300
 0.7850	58.4540
 0.7860	58.4770
 0.7870	58.4920
 0.7880	58.5110
 0.7890	58.5330
 0.7900	58.5530
 0.7910	58.5710
 0.7920	58.5870
 0.7930	58.6040
 0.7940	58.6270
 0.7950	58.6470
 0.7960	58.6600
 0.7970	58.6700
 0.7980	58.6920
 0.7990	58.7100
 0.8000	58.7260
 0.8010	58.7440
 0.8020	58.7640
 0.8030	58.7830
 0.8040	58.7980
 0.8050	58.8080
 0.8060	58.8340
 0.8070	58.8540
 0.8080	58.8620
 0.8090	58.8720
 0.8100	58.8900
 0.8110	58.9060
 0.8120	58.9180
 0.8130	58.9390
 0.8140	58.9470
 0.8150	58.9620
 0.8160	58.9960
 0.8170	59.0180
 0.8180	59.0370
 0.8190	59.0550
 0.8200	59.0690
 0.8210	59.0780
 0.8220	59.0870
 0.8230	59.1060
 0.8240	59.1370
 0.8250	59.1540
 0.8260	59.1520
 0.8270	59.1430
 0.8280	59.1600
 0.8290	59.1860
 0.8300	59.2020
 0.8310	59.1980
 0.8320	59.2130
 0.8330	59.2320
 0.8340	59.2470
 0.8350	59.2530
 0.8360	59.2640
 0.8370	59.2820
 0.8380	59.3040
 0.8390	59.3250
 0.8400	59.3420
 0.8410	59.3610
 0.8420	59.3870
 0.8430	59.4200
 0.8440	59.4410
 0.8450	59.4590
 0.8460	59.4840
 0.8470	59.5100
 0.8480	59.5230
 0.8490	59.5410
 0.8500	59.5780
 0.8510	59.5910
 0.8520	59.5990
 0.8530	59.6140
 0.8540	59.6400
 0.8550	59.6530
 0.8560	59.6710
 0.8570	59.6970
 0.8580	59.7150
 0.8590	59.7270
 0.8600	59.7390
 0.8610	59.7540
 0.8620	59.7720
 0.8630	59.7720
 0.8640	59.7780
 0.8650	59.8030
 0.8660	59.8090
 0.8670	59.8110
 0.8680	59.8160
 0.8690	59.8270
 0.8700	59.8400
 0.8710	59.8390
 0.8720	59.8320
 0.8730	59.8440
 0.8740	59.8620
 0.8750	59.8750
 0.8760	59.8780
 0.8770	59.8760
 0.8780	59.8820
 0.8790	59.8800
 0.8800	59.8680
 0.8810	59.8690
 0.8820	59.8730
 0.8830	59.8730
 0.8840	59.8660
 0.8850	59.8600
 0.8860	59.8490
 0.8870	59.8440
 0.8880	59.8490
 0.8890	59.8410
 0.8900	59.8290
 0.8910	59.8170
 0.8920	59.8070
 0.8930	59.7900
 0.8940	59.7870
 0.8950	59.7860
 0.8960	59.7650
 0.8970	59.7580
 0.8980	59.7470
 0.8990	59.7310
 0.9000	59.7210
 0.9010	59.7020
 0.9020	59.6860
 0.9030	59.6780
 0.9040	59.6610
 0.9050	59.6350
 0.9060	59.6090
 0.9070	59.5940
 0.9080	59.5940
 0.9090	59.5790
 0.9100	59.5540
 0.9110	59.5300
 0.9120	59.5220
 0.9130	59.4950
 0.9140	59.4670
 0.9150	59.4610
 0.9160	59.4340
 0.9170	59.4100
 0.9180	59.3830
 0.9190	59.3440
 0.9200	59.3290
 0.9210	59.3030
 0.9220	59.2660
 0.9230	59.2360
 0.9240	59.1990
 0.9250	59.1590
 0.9260	59.1140
 0.9270	59.0590
 0.9280	59.0100
 0.9290	58.9540
 0.9300	58.8910
 0.9310	58.8250
 0.9320	58.7610
 0.9330	58.7010
 0.9340	58.6360
 0.9350	58.5550
 0.9360	58.4880
 0.9370	58.4160
 0.9380	58.3330
 0.9390	58.2610
 0.9400	58.1730
 0.9410	58.0760
 0.9420	57.9760
 0.9430	57.8740
 0.9440	57.7650
 0.9450	57.6590
 0.9460	57.5530
 0.9470	57.4130
 0.9480	57.2580
 0.9490	57.1030
 0.9500	56.9540
 0.9510	56.7930
 0.9520	56.6250
 0.9530	56.4440
 0.9540	56.2490
 0.9550	56.0560
 0.9560	55.8700
 0.9570	55.7020
 0.9580	55.5520
 0.9590	55.3940
 0.9600	55.2330
 0.9610	55.1050
 0.9620	55.0270
 0.9630	54.9440
 0.9640	54.8490
 0.9650	54.7620
 0.9660	54.7100
 0.9670	54.6830
 0.9680	54.6280
 0.9690	54.5680
 0.9700	54.5420
 0.9710	54.5010
 0.9720	54.4850
 0.9730	54.4820
 0.9740	54.4620
 0.9750	54.4410
 0.9760	54.4230
 0.9770	54.4260
 0.9780	54.4530
 0.9790	54.4480
 0.9800	54.4360
 0.9810	54.4500
 0.9820	54.5070
 0.9830	54.5470
 0.9840	54.5650
 0.9850	54.5870
 0.9860	54.6430
 0.9870	54.6880
 0.9880	54.7350
 0.9890	54.7910
 0.9900	54.8520
 0.9910	54.9200
 0.9920	54.9780
 0.9930	55.0300
 0.9940	55.0880
 0.9950	55.1580
 0.9960	55.2400
 0.9970	55.3090
 0.9980	55.3480
 0.9990	55.4210
 1.0000	55.4460
 1.0010	55.3270
 1.0020	55.3450
 1.0030	55.4310
 1.0040	55.5140
 1.0050	55.5910
 1.0060	55.6730
 1.0070	55.7520
 1.0080	55.8280
 1.0090	55.9000
 1.0100	55.9770
 1.0110	56.0560
 1.0120	56.1340
 1.0130	56.2150
 1.0140	56.2940
 1.0150	56.3730
 1.0160	56.4500
 1.0170	56.5240
 1.0180	56.6030
 1.0190	56.6800
 1.0200	56.7500
 1.0210	56.8290
 1.0220	56.9120
 1.0230	56.9890
 1.0240	57.0700
 1.0250	57.1420
 1.0260	57.2080
 1.0270	57.2730
 1.0280	57.3300
 1.0290	57.3950
 1.0300	57.4610
 1.0310	57.5250
 1.0320	57.5930
 1.0330	57.6560
 1.0340	57.7160
 1.0350	57.7720
 1.0360	57.8250
 1.0370	57.8870
 1.0380	57.9440
 1.0390	58.0000
 1.0400	58.0510
 1.0410	58.0980
 1.0420	58.1450
 1.0430	58.1880
 1.0440	58.2320
 1.0450	58.2770
 1.0460	58.3210
 1.0470	58.3600
 1.0480	58.4040
 1.0490	58.4540
 1.0500	58.4960
 1.0510	58.5370
 1.0520	58.5780
 1.0530	58.6130
 1.0540	58.6400
 1.0550	58.6690
 1.0560	58.6950
 1.0570	58.7250
 1.0580	58.7590
 1.0590	58.7840
 1.0600	58.8070
 1.0610	58.8310
 1.0620	58.8460
 1.0630	58.8670
 1.0640	58.8950
 1.0650	58.9180
 1.0660	58.9410
 1.0670	58.9570
 1.0680	58.9700
 1.0690	58.9780
 1.0700	58.9860
 1.0710	58.9870
 1.0720	58.9920
 1.0730	59.0010
 1.0740	59.0030
 1.0750	59.0010
 1.0760	59.0000
 1.0770	58.9940
 1.0780	58.9900
 1.0790	58.9900
 1.0800	58.9850
 1.0810	58.9790
 1.0820	58.9710
 1.0830	58.9600
 1.0840	58.9480
 1.0850	58.9310
 1.0860	58.9190
 1.0870	58.9020
 1.0880	58.8840
 1.0890	58.8630
 1.0900	58.8400
 1.0910	58.8140
 1.0920	58.7840
 1.0930	58.7560
 1.0940	58.7310
 1.0950	58.6990
 1.0960	58.6640
 1.0970	58.6290
 1.0980	58.5920
 1.0990	58.5530
 1.1000	58.5140
 1.1010	58.4750
 1.1020	58.4330
 1.1030	58.3900
 1.1040	58.3450
 1.1050	58.3000
 1.1060	58.2550
 1.1070	58.2100
 1.1080	58.1600
 1.1090	58.1100
 1.1100	58.0580
 1.1110	57.9990
 1.1120	57.9390
 1.1130	57.8840
 1.1140	57.8190
 1.1150	57.7510
 1.1160	57.6770
 1.1170	57.5990
 1.1180	57.5120
 1.1190	57.4210
 1.1200	57.3180
 1.1210	57.2090
 1.1220	57.0940
 1.1230	56.9680
 1.1240	56.8330
 1.1250	56.6810
 1.1260	56.5190
 1.1270	56.3390
 1.1280	56.1450
 1.1290	55.9340
 1.1300	55.7130
 1.1310	55.4680
 1.1320	55.2030
 1.1330	54.9220
 1.1340	54.6220
 1.1350	54.3080
 1.1360	53.9790
 1.1370	53.6360
 1.1380	53.2860
 1.1390	52.9250
 1.1400	52.5520
 1.1410	52.1810
 1.1420	51.8070
 1.1430	51.4300
 1.1440	51.0610
 1.1450	50.6930
 1.1460	50.3390
 1.1470	49.9850
 1.1480	49.6550
 1.1490	49.3340
 1.1500	49.0370
 1.1510	48.7560
 1.1520	48.4970
 1.1530	48.2560
 1.1540	48.0370
 1.1550	47.8360
 1.1560	47.6560
 1.1570	47.4950
 1.1580	47.3520
 1.1590	47.2240
 1.1600	47.1070
 1.1610	47.0030
 1.1620	46.9120
 1.1630	46.8290
 1.1640	46.7560
 1.1650	46.6920
 1.1660	46.6400
 1.1670	46.5890
 1.1680	46.5490
 1.1690	46.5100
 1.1700	46.4750
 1.1710	46.4410
 1.1720	46.4120
 1.1730	46.3800
 1.1740	46.3460
 1.1750	46.3140
 1.1760	46.2800
 1.1770	46.2450
 1.1780	46.2060
 1.1790	46.1680
 1.1800	46.1270
 1.1810	46.0840
 1.1820	46.0420
 1.1830	46.0000
 1.1840	45.9580
 1.1850	45.9170
 1.1860	45.8740
 1.1870	45.8310
 1.1880	45.7920
 1.1890	45.7530
 1.1900	45.7210
 1.1910	45.6950
 1.1920	45.6710
 1.1930	45.6520
 1.1940	45.6350
 1.1950	45.6200
 1.1960	45.6080
 1.1970	45.6010
 1.1980	45.5990
 1.1990	45.6040
 1.2000	45.6150
 1.2010	45.6320
 1.2020	45.6500
 1.2030	45.6710
 1.2040	45.6970
 1.2050	45.7270
 1.2060	45.7610
 1.2070	45.7990
 1.2080	45.8390
 1.2090	45.8840
 1.2100	45.9320
 1.2110	45.9840
 1.2120	46.0390
 1.2130	46.0970
 1.2140	46.1560
 1.2150	46.2200
 1.2160	46.2880
 1.2170	46.3580
 1.2180	46.4310
 1.2190	46.5050
 1.2200	46.5800
 1.2210	46.6590
 1.2220	46.7390
 1.2230	46.8200
 1.2240	46.9020
 1.2250	46.9810
 1.2260	47.0580
 1.2270	47.1350
 1.2280	47.2110
 1.2290	47.2880
 1.2300	47.3620
 1.2310	47.4350
 1.2320	47.5070
 1.2330	47.5750
 1.2340	47.6410
 1.2350	47.7060
 1.2360	47.7700
 1.2370	47.8310
 1.2380	47.8930
 1.2390	47.9540
 1.2400	48.0130
 1.2410	48.0700
 1.2420	48.1240
 1.2430	48.1800
 1.2440	48.2340
 1.2450	48.2830
 1.2460	48.3300
 1.2470	48.3730
 1.2480	48.4170
 1.2490	48.4610
 1.2500	48.5030
 1.2510	48.5440
 1.2520	48.5820
 1.2530	48.6160
 1.2540	48.6500
 1.2550	48.6820
 1.2560	48.7130
 1.2570	48.7390
 1.2580	48.7630
 1.2590	48.7840
 1.2600	48.8000
 1.2610	48.8170
 1.2620	48.8340
 1.2630	48.8490
 1.2640	48.8620
 1.2650	48.8730
 1.2660	48.8780
 1.2670	48.8830
 1.2680	48.8850
 1.2690	48.8840
 1.2700	48.8820
 1.2710	48.8750
 1.2720	48.8670
 1.2730	48.8550
 1.2740	48.8410
 1.2750	48.8270
 1.2760	48.8060
 1.2770	48.7810
 1.2780	48.7590
 1.2790	48.7300
 1.2800	48.6990
 1.2810	48.6690
 1.2820	48.6320
 1.2830	48.5940
 1.2840	48.5550
 1.2850	48.5110
 1.2860	48.4620
 1.2870	48.4100
 1.2880	48.3540
 1.2890	48.2940
 1.2900	48.2290
 1.2910	48.1610
 1.2920	48.0900
 1.2930	48.0140
 1.2940	47.9340
 1.2950	47.8500
 1.2960	47.7560
 1.2970	47.6590
 1.2980	47.5570
 1.2990	47.4480
 1.3000	47.3370
 1.3010	47.2210
 1.3020	47.0950
 1.3030	46.9660
 1.3040	46.8310
 1.3050	46.6910
 1.3060	46.5470
 1.3070	46.3970
 1.3080	46.2400
 1.3090	46.0760
 1.3100	45.9060
 1.3110	45.7280
 1.3120	45.5430
 1.3130	45.3530
 1.3140	45.1570
 1.3150	44.9540
 1.3160	44.7460
 1.3170	44.5360
 1.3180	44.3180
 1.3190	44.0930
 1.3200	43.8640
 1.3210	43.6300
 1.3220	43.3920
 1.3230	43.1530
 1.3240	42.9080
 1.3250	42.6600
 1.3260	42.4090
 1.3270	42.1540
 1.3280	41.8970
 1.3290	41.6370
 1.3300	41.3740
 1.3310	41.1090
 1.3320	40.8440
 1.3330	40.5830
 1.3340	40.3220
 1.3350	40.0600
 1.3360	39.8000
 1.3370	39.5380
 1.3380	39.2770
 1.3390	39.0210
 1.3400	38.7680
 1.3410	38.5220
 1.3420	38.2800
 1.3430	38.0410
 1.3440	37.8050
 1.3450	37.5720
 1.3460	37.3400
 1.3470	37.1170
 1.3480	36.8990
 1.3490	36.6860
 1.3500	36.4790
 1.3510	36.2750
 1.3520	36.0700
 1.3530	35.8700
 1.3540	35.6720
 1.3550	35.4740
 1.3560	35.2790
 1.3570	35.0820
 1.3580	34.8830
 1.3590	34.6810
 1.3600	34.4760
 1.3610	34.2650
 1.3620	34.0470
 1.3630	33.8240
 1.3640	33.5940
 1.3650	33.3550
 1.3660	33.1100
 1.3670	32.8540
 1.3680	32.5850
 1.3690	32.3040
 1.3700	32.0080
 1.3710	31.7020
 1.3720	31.3830
 1.3730	31.0460
 1.3740	30.6970
 1.3750	30.3290
 1.3760	29.9410
 1.3770	29.5350
 1.3780	29.1040
 1.3790	28.6550
 1.3800	28.1890
 1.3810	27.7010
 1.3820	27.2020
 1.3830	26.6890
 1.3840	26.1630
 1.3850	25.6210
 1.3860	25.0780
 1.3870	24.5190
 1.3880	23.9690
 1.3890	23.4170
 1.3900	22.8670
 1.3910	22.3280
 1.3920	21.7930
 1.3930	21.2640
 1.3940	20.7470
 1.3950	20.2370
 1.3960	19.7440
 1.3970	19.2690
 1.3980	18.8110
 1.3990	18.3780
 1.4000	17.9620
 1.4010	17.5640
 1.4020	17.1870
 1.4030	16.8290
 1.4040	16.4900
 1.4050	16.1730
 1.4060	15.8750
 1.4070	15.5970
 1.4080	15.3370
 1.4090	15.0940
 1.4100	14.8690
 1.4110	14.6580
 1.4120	14.4630
 1.4130	14.2820
 1.4140	14.1150
 1.4150	13.9630
 1.4160	13.8210
 1.4170	13.6910
 1.4180	13.5710
 1.4190	13.4590
 1.4200	13.3560
 1.4210	13.2630
 1.4220	13.1770
 1.4230	13.1000
 1.4240	13.0290
 1.4250	12.9640
 1.4260	12.9050
 1.4270	12.8510
 1.4280	12.8030
 1.4290	12.7590
 1.4300	12.7200
 1.4310	12.6860
 1.4320	12.6560
 1.4330	12.6290
 1.4340	12.6060
 1.4350	12.5860
 1.4360	12.5680
 1.4370	12.5520
 1.4380	12.5400
 1.4390	12.5310
 1.4400	12.5260
 1.4410	12.5220
 1.4420	12.5210
 1.4430	12.5210
 1.4440	12.5230
 1.4450	12.5260
 1.4460	12.5310
 1.4470	12.5370
 1.4480	12.5440
 1.4490	12.5520
 1.4500	12.5600
 1.4510	12.5690
 1.4520	12.5790
 1.4530	12.5900
 1.4540	12.6020
 1.4550	12.6170
 1.4560	12.6320
 1.4570	12.6490
 1.4580	12.6690
 1.4590	12.6890
 1.4600	12.7120
 1.4610	12.7380
 1.4620	12.7650
 1.4630	12.7960
 1.4640	12.8290
 1.4650	12.8640
 1.4660	12.9020
 1.4670	12.9440
 1.4680	12.9890
 1.4690	13.0390
 1.4700	13.0910
 1.4710	13.1470
 1.4720	13.2050
 1.4730	13.2640
 1.4740	13.3270
 1.4750	13.3920
 1.4760	13.4600
 1.4770	13.5290
 1.4780	13.5980
 1.4790	13.6690
 1.4800	13.7410
 1.4810	13.8160
 1.4820	13.8940
 1.4830	13.9720
 1.4840	14.0510
 1.4850	14.1310
 1.4860	14.2110
 1.4870	14.2940
 1.4880	14.3770
 1.4890	14.4600
 1.4900	14.5440
 1.4910	14.6280
 1.4920	14.7140
 1.4930	14.8030
 1.4940	14.8910
 1.4950	14.9800
 1.4960	15.0700
 1.4970	15.1590
 1.4980	15.2490
 1.4990	15.3380
 1.5000	15.4280
 1.5010	15.5200
 1.5020	15.6110
 1.5030	15.7040
 1.5040	15.7970
 1.5050	15.8880
 1.5060	15.9810
 1.5070	16.0750
 1.5080	16.1670
 1.5090	16.2600
 1.5100	16.3530
 1.5110	16.4430
 1.5120	16.5360
 1.5130	16.6270
 1.5140	16.7190
 1.5150	16.8130
 1.5160	16.9040
 1.5170	16.9960
 1.5180	17.0880
 1.5190	17.1780
 1.5200	17.2680
 1.5210	17.3570
 1.5220	17.4460
 1.5230	17.5360
 1.5240	17.6240
 1.5250	17.7140
 1.5260	17.8020
 1.5270	17.8890
 1.5280	17.9780
 1.5290	18.0650
 1.5300	18.1520
 1.5310	18.2390
 1.5320	18.3240
 1.5330	18.4110
 1.5340	18.4960
 1.5350	18.5810
 1.5360	18.6660
 1.5370	18.7470
 1.5380	18.8300
 1.5390	18.9140
 1.5400	18.9960
 1.5410	19.0790
 1.5420	19.1620
 1.5430	19.2430
 1.5440	19.3240
 1.5450	19.4040
 1.5460	19.4860
 1.5470	19.5660
 1.5480	19.6460
 1.5490	19.7280
 1.5500	19.8090
 1.5510	19.8880
 1.5520	19.9670
 1.5530	20.0440
 1.5540	20.1210
 1.5550	20.2000
 1.5560	20.2790
 1.5570	20.3580
 1.5580	20.4350
 1.5590	20.5100
 1.5600	20.5860
 1.5610	20.6610
 1.5620	20.7350
 1.5630	20.8100
 1.5640	20.8840
 1.5650	20.9570
 1.5660	21.0290
 1.5670	21.0980
 1.5680	21.1680
 1.5690	21.2360
 1.5700	21.3050
 1.5710	21.3750
 1.5720	21.4460
 1.5730	21.5180
 1.5740	21.5880
 1.5750	21.6560
 1.5760	21.7240
 1.5770	21.7920
 1.5780	21.8600
 1.5790	21.9300
 1.5800	21.9970
 1.5810	22.0630
 1.5820	22.1300
 1.5830	22.1970
 1.5840	22.2650
 1.5850	22.3320
 1.5860	22.3970
 1.5870	22.4630
 1.5880	22.5300
 1.5890	22.5990
 1.5900	22.6680
 1.5910	22.7350
 1.5920	22.8020
 1.5930	22.8680
 1.5940	22.9340
 1.5950	23.0010
 1.5960	23.0670
 1.5970	23.1350
 1.5980	23.2030
 1.5990	23.2720
 1.6000	23.3390
 1.6010	23.4030
 1.6020	23.4680
 1.6030	23.5340
 1.6040	23.5980
 1.6050	23.6650
 1.6060	23.7290
 1.6070	23.7920
 1.6080	23.8560
 1.6090	23.9160
 1.6100	23.9760
 1.6110	24.0370
 1.6120	24.0940
 1.6130	24.1530
 1.6140	24.2110
 1.6150	24.2660
 1.6160	24.3210
 1.6170	24.3740
 1.6180	24.4270
 1.6190	24.4790
 1.6200	24.5290
 1.6210	24.5800
 1.6220	24.6260
 1.6230	24.6700
 1.6240	24.7150
 1.6250	24.7560
 1.6260	24.7990
 1.6270	24.8440
 1.6280	24.8830
 1.6290	24.9230
 1.6300	24.9620
 1.6310	25.0000
 1.6320	25.0400
 1.6330	25.0780
 1.6340	25.1160
 1.6350	25.1520
 1.6360	25.1880
 1.6370	25.2230
 1.6380	25.2570
 1.6390	25.2900
 1.6400	25.3240
 1.6410	25.3550
 1.6420	25.3850
 1.6430	25.4120
 1.6440	25.4370
 1.6450	25.4590
 1.6460	25.4780
 1.6470	25.4930
 1.6480	25.5060
 1.6490	25.5160
 1.6500	25.5220
 1.6510	25.5240
 1.6520	25.5240
 1.6530	25.5200
 1.6540	25.5140
 1.6550	25.5070
 1.6560	25.4970
 1.6570	25.4850
 1.6580	25.4710
 1.6590	25.4570
 1.6600	25.4420
 1.6610	25.4260
 1.6620	25.4100
 1.6630	25.3950
 1.6640	25.3790
 1.6650	25.3660
 1.6660	25.3540
 1.6670	25.3400
 1.6680	25.3290
 1.6690	25.3180
 1.6700	25.3050
 1.6710	25.2950
 1.6720	25.2840
 1.6730	25.2730
 1.6740	25.2630
 1.6750	25.2510
 1.6760	25.2370
 1.6770	25.2220
 1.6780	25.2060
 1.6790	25.1860
 1.6800	25.1650
 1.6810	25.1440
 1.6820	25.1190
 1.6830	25.0940
 1.6840	25.0660
 1.6850	25.0330
 1.6860	24.9980
 1.6870	24.9610
 1.6880	24.9210
 1.6890	24.8810
 1.6900	24.8390
 1.6910	24.7920
 1.6920	24.7470
 1.6930	24.7000
 1.6940	24.6530
 1.6950	24.6050
 1.6960	24.5570
 1.6970	24.5100
 1.6980	24.4590
 1.6990	24.4050
 1.7000	24.3520
 1.7010	24.2970
 1.7020	24.2430
 1.7030	24.1900
 1.7040	24.1350
 1.7050	24.0780
 1.7060	24.0210
 1.7070	23.9640
 1.7080	23.9070
 1.7090	23.8500
 1.7100	23.7940
 1.7110	23.7380
 1.7120	23.6830
 1.7130	23.6280
 1.7140	23.5730
 1.7150	23.5180
 1.7160	23.4680
 1.7170	23.4190
 1.7180	23.3690
 1.7190	23.3200
 1.7200	23.2710
 1.7210	23.2230
 1.7220	23.1760
 1.7230	23.1310
 1.7240	23.0860
 1.7250	23.0400
 1.7260	22.9950
 1.7270	22.9530
 1.7280	22.9120
 1.7290	22.8740
 1.7300	22.8380
 1.7310	22.8020
 1.7320	22.7670
 1.7330	22.7330
 1.7340	22.7000
 1.7350	22.6660
 1.7360	22.6330
 1.7370	22.5970
 1.7380	22.5610
 1.7390	22.5200
 1.7400	22.4730
 1.7410	22.4260
 1.7420	22.3750
 1.7430	22.3230
 1.7440	22.2720
 1.7450	22.2170
 1.7460	22.1580
 1.7470	22.1010
 1.7480	22.0420
 1.7490	21.9840
 1.7500	21.9280
 1.7510	21.8690
 1.7520	21.8090
 1.7530	21.7500
 1.7540	21.6900
 1.7550	21.6340
 1.7560	21.5790
 1.7570	21.5240
 1.7580	21.4710
 1.7590	21.4190
 1.7600	21.3700
 1.7610	21.3240
 1.7620	21.2790
 1.7630	21.2350
 1.7640	21.1940
 1.7650	21.1530
 1.7660	21.1150
 1.7670	21.0800
 1.7680	21.0460
 1.7690	21.0130
 1.7700	20.9830
 1.7710	20.9550
 1.7720	20.9270
 1.7730	20.9000
 1.7740	20.8720
 1.7750	20.8450
 1.7760	20.8180
 1.7770	20.7910
 1.7780	20.7650
 1.7790	20.7390
 1.7800	20.7170
 1.7810	20.6990
 1.7820	20.6810
 1.7830	20.6660
 1.7840	20.6520
 1.7850	20.6390
 1.7860	20.6290
 1.7870	20.6220
 1.7880	20.6150
 1.7890	20.6110
 1.7900	20.6080
 1.7910	20.6060
 1.7920	20.6060
 1.7930	20.6070
 1.7940	20.6090
 1.7950	20.6110
 1.7960	20.6120
 1.7970	20.6160
 1.7980	20.6230
 1.7990	20.6280
 1.8000	20.6360
 1.8010	20.6410
 1.8020	20.6440
 1.8030	20.6490
 1.8040	20.6550
 1.8050	20.6620
 1.8060	20.6700
 1.8070	20.6770
 1.8080	20.6840
 1.8090	20.6930
 1.8100	20.7020
 1.8110	20.7100
 1.8120	20.7180
 1.8130	20.7280
 1.8140	20.7310
 1.8150	20.7350
 1.8160	20.7380
 1.8170	20.7370
 1.8180	20.7400
 1.8190	20.7390
 1.8200	20.7390
 1.8210	20.7380
 1.8220	20.7360
 1.8230	20.7330
 1.8240	20.7300
 1.8250	20.7270
 1.8260	20.7220
 1.8270	20.7170
 1.8280	20.7110
 1.8290	20.7040
 1.8300	20.7340
 1.8310	20.8120
 1.8320	20.8300
 1.8330	20.8070
 1.8340	20.7840
 1.8350	20.7520
 1.8360	20.7160
 1.8370	20.6810
 1.8380	20.6400
 1.8390	20.5950
 1.8400	20.5490
 1.8410	20.4950
 1.8420	20.4320
 1.8430	20.3650
 1.8440	20.2960
 1.8450	20.2190
 1.8460	20.1390
 1.8470	20.0520
 1.8480	19.9540
 1.8490	19.8490
 1.8500	19.7380
 1.8510	19.6190
 1.8520	19.4920
 1.8530	19.3570
 1.8540	19.2160
 1.8550	19.0650
 1.8560	18.9030
 1.8570	18.7290
 1.8580	18.5420
 1.8590	18.3490
 1.8600	18.1440
 1.8610	17.9310
 1.8620	17.7110
 1.8630	17.4830
 1.8640	17.2410
 1.8650	16.9870
 1.8660	16.7230
 1.8670	16.4460
 1.8680	16.1620
 1.8690	15.8690
 1.8700	15.5670
 1.8710	15.2560
 1.8720	14.9430
 1.8730	14.6260
 1.8740	14.3010
 1.8750	13.9740
 1.8760	13.6470
 1.8770	13.3190
 1.8780	12.9960
 1.8790	12.6780
 1.8800	12.3660
 1.8810	12.0580
 1.8820	11.7530
 1.8830	11.4560
 1.8840	11.1680
 1.8850	10.8880
 1.8860	10.6180
 1.8870	10.3570
 1.8880	10.1040
 1.8890	 9.8630
 1.8900	 9.6330
 1.8910	 9.4140
 1.8920	 9.2020
 1.8930	 9.0050
 1.8940	 8.8240
 1.8950	 8.6530
 1.8960	 8.4990
 1.8970	 8.3590
 1.8980	 8.2260
 1.8990	 8.1050
 1.9000	 7.9920
 1.9010	 7.8880
 1.9020	 7.7920
 1.9030	 7.7050
 1.9040	 7.6270
 1.9050	 7.5560
 1.9060	 7.4940
 1.9070	 7.4390
 1.9080	 7.3870
 1.9090	 7.3420
 1.9100	 7.2990
 1.9110	 7.2620
 1.9120	 7.2320
 1.9130	 7.2030
 1.9140	 7.1790
 1.9150	 7.1570
 1.9160	 7.1390
 1.9170	 7.1190
 1.9180	 7.1020
 1.9190	 7.0860
 1.9200	 7.0710
 1.9210	 7.0610
 1.9220	 7.0520
 1.9230	 7.0460
 1.9240	 7.0410
 1.9250	 7.0400
 1.9260	 7.0370
 1.9270	 7.0370
 1.9280	 7.0380
 1.9290	 7.0400
 1.9300	 7.0450
 1.9310	 7.0510
 1.9320	 7.0590
 1.9330	 7.0680
 1.9340	 7.0800
 1.9350	 7.0900
 1.9360	 7.1000
 1.9370	 7.1120
 1.9380	 7.1260
 1.9390	 7.1400
 1.9400	 7.1560
 1.9410	 7.1750
 1.9420	 7.1890
 1.9430	 7.2030
 1.9440	 7.2190
 1.9450	 7.2340
 1.9460	 7.2520
 1.9470	 7.2730
 1.9480	 7.2920
 1.9490	 7.3110
 1.9500	 7.3290
 1.9510	 7.3480
 1.9520	 7.3690
 1.9530	 7.3910
 1.9540	 7.4140
 1.9550	 7.4380
 1.9560	 7.4620
 1.9570	 7.4860
 1.9580	 7.5130
 1.9590	 7.5390
 1.9600	 7.5650
 1.9610	 7.5910
 1.9620	 7.6170
 1.9630	 7.6430
 1.9640	 7.6660
 1.9650	 7.6950
 1.9660	 7.7250
 1.9670	 7.7560
 1.9680	 7.7860
 1.9690	 7.8180
 1.9700	 7.8480
 1.9710	 7.8750
 1.9720	 7.9050
 1.9730	 7.9350
 1.9740	 7.9680
 1.9750	 8.0010
 1.9760	 8.0350
 1.9770	 8.0670
 1.9780	 8.1000
 1.9790	 8.1330
 1.9800	 8.1640
 1.9810	 8.1980
 1.9820	 8.2330
 1.9830	 8.2680
 1.9840	 8.3050
 1.9850	 8.3410
 1.9860	 8.3760
 1.9870	 8.4100
 1.9880	 8.4470
 1.9890	 8.4840
 1.9900	 8.5210
 1.9910	 8.5600
 1.9920	 8.5950
 1.9930	 8.6250
 1.9940	 8.6610
 1.9950	 8.6970
 1.9960	 8.7350
 1.9970	 8.7810
 1.9980	 8.8200
 1.9990	 8.8580
 2.0000	 8.8960
 2.0010	 8.9300
 2.0020	 8.9660
 2.0030	 9.0050
 2.0040	 9.0450
 2.0050	 9.0830
 2.0060	 9.1200
 2.0070	 9.1580
 2.0080	 9.1960
 2.0090	 9.2330
 2.0100	 9.2700
 2.0110	 9.3070
 2.0120	 9.3450
 2.0130	 9.3810
 2.0140	 9.4180
 2.0150	 9.4560
 2.0160	 9.4920
 2.0170	 9.5250
 2.0180	 9.5580
 2.0190	 9.5900
 2.0200	 9.6240
 2.0210	 9.6590
 2.0220	 9.6930
 2.0230	 9.7300
 2.0240	 9.7640
 2.0250	 9.7940
 2.0260	 9.8260
 2.0270	 9.8580
 2.0280	 9.8890
 2.0290	 9.9170
 2.0300	 9.9480
 2.0310	 9.9770
 2.0320	10.0070
 2.0330	10.0340
 2.0340	10.0630
 2.0350	10.0890
 2.0360	10.1120
 2.0370	10.1370
 2.0380	10.1640
 2.0390	10.1890
 2.0400	10.2140
 2.0410	10.2380
 2.0420	10.2590
 2.0430	10.2810
 2.0440	10.3030
 2.0450	10.3260
 2.0460	10.3470
 2.0470	10.3680
 2.0480	10.3900
 2.0490	10.4100
 2.0500	10.4310
 2.0510	10.4530
 2.0520	10.4740
 2.0530	10.4940
 2.0540	10.5150
 2.0550	10.5350
 2.0560	10.5560
 2.0570	10.5770
 2.0580	10.5970
 2.0590	10.6140
 2.0600	10.6280
 2.0610	10.6460
 2.0620	10.6640
 2.0630	10.6830
 2.0640	10.7060
 2.0650	10.7260
 2.0660	10.7440
 2.0670	10.7640
 2.0680	10.7860
 2.0690	10.8060
 2.0700	10.8240
 2.0710	10.8430
 2.0720	10.8590
 2.0730	10.8770
 2.0740	10.8960
 2.0750	10.9180
 2.0760	10.9400
 2.0770	10.9650
 2.0780	10.9860
 2.0790	11.0070
 2.0800	11.0270
 2.0810	11.0440
 2.0820	11.0620
 2.0830	11.0810
 2.0840	11.1000
 2.0850	11.1170
 2.0860	11.1360
 2.0870	11.1570
 2.0880	11.1770
 2.0890	11.1980
 2.0900	11.2220
 2.0910	11.2420
 2.0920	11.2610
 2.0930	11.2820
 2.0940	11.3020
 2.0950	11.3230
 2.0960	11.3460
 2.0970	11.3670
 2.0980	11.3870
 2.0990	11.4090
 2.1000	11.4290
 2.1010	11.4520
 2.1020	11.4770
 2.1030	11.5000
 2.1040	11.5250
 2.1050	11.5470
 2.1060	11.5710
 2.1070	11.5940
 2.1080	11.6170
 2.1090	11.6410
 2.1100	11.6630
 2.1110	11.6810
 2.1120	11.7020
 2.1130	11.7250
 2.1140	11.7440
 2.1150	11.7630
 2.1160	11.7820
 2.1170	11.7960
 2.1180	11.8140
 2.1190	11.8350
 2.1200	11.8560
 2.1210	11.8780
 2.1220	11.9000
 2.1230	11.9220
 2.1240	11.9430
 2.1250	11.9650
 2.1260	11.9880
 2.1270	12.0110
 2.1280	12.0350
 2.1290	12.0570
 2.1300	12.0790
 2.1310	12.1010
 2.1320	12.1220
 2.1330	12.1440
 2.1340	12.1680
 2.1350	12.1880
 2.1360	12.2040
 2.1370	12.2230
 2.1380	12.2390
 2.1390	12.2580
 2.1400	12.2790
 2.1410	12.3010
 2.1420	12.3220
 2.1430	12.3440
 2.1440	12.3630
 2.1450	12.3820
 2.1460	12.3990
 2.1470	12.4140
 2.1480	12.4310
 2.1490	12.4480
 2.1500	12.4670
 2.1510	12.4890
 2.1520	12.5090
 2.1530	12.5330
 2.1540	12.5520
 2.1550	12.5680
 2.1560	12.5860
 2.1570	12.6010
 2.1580	12.6180
 2.1590	12.6360
 2.1600	12.6550
 2.1610	12.6740
 2.1620	12.6900
 2.1630	12.7060
 2.1640	12.7200
 2.1650	12.7370
 2.1660	12.7530
 2.1670	12.7720
 2.1680	12.7950
 2.1690	12.8150
 2.1700	12.8330
 2.1710	12.8520
 2.1720	12.8730
 2.1730	12.8910
 2.1740	12.9060
 2.1750	12.9230
 2.1760	12.9370
 2.1770	12.9530
 2.1780	12.9730
 2.1790	12.9910
 2.1800	13.0120
 2.1810	13.0280
 2.1820	13.0420
 2.1830	13.0520
 2.1840	13.0640
 2.1850	13.0720
 2.1860	13.0860
 2.1870	13.1050
 2.1880	13.1210
 2.1890	13.1390
 2.1900	13.1530
 2.1910	13.1620
 2.1920	13.1740
 2.1930	13.1860
 2.1940	13.1980
 2.1950	13.2120
 2.1960	13.2250
 2.1970	13.2370
 2.1980	13.2480
 2.1990	13.2610
 2.2000	13.2730
 2.2010	13.2840
 2.2020	13.2960
 2.2030	13.3090
 2.2040	13.3210
 2.2050	13.3300
 2.2060	13.3410
 2.2070	13.3500
 2.2080	13.3570
 2.2090	13.3640
 2.2100	13.3710
 2.2110	13.3770
 2.2120	13.3830
 2.2130	13.3870
 2.2140	13.3900
 2.2150	13.3920
 2.2160	13.3930
 2.2170	13.3910
 2.2180	13.3870
 2.2190	13.3830
 2.2200	13.3750
 2.2210	13.3690
 2.2220	13.3640
 2.2230	13.3570
 2.2240	13.3520
 2.2250	13.3420
 2.2260	13.3330
 2.2270	13.3180
 2.2280	13.2930
 2.2290	13.2730
 2.2300	13.2540
 2.2310	13.2320
 2.2320	13.2090
 2.2330	13.1850
 2.2340	13.1580
 2.2350	13.1240
 2.2360	13.0950
 2.2370	13.0690
 2.2380	13.0370
 2.2390	13.0030
 2.2400	12.9660
 2.2410	12.9270
 2.2420	12.8840
 2.2430	12.8340
 2.2440	12.7930
 2.2450	12.7530
 2.2460	12.7140
 2.2470	12.6850
 2.2480	12.6450
 2.2490	12.5970
 2.2500	12.5540
 2.2510	12.5140
 2.2520	12.4700
 2.2530	12.4320
 2.2540	12.3870
 2.2550	12.3350
 2.2560	12.2830
 2.2570	12.2290
 2.2580	12.1770
 2.2590	12.1240
 2.2600	12.0710
 2.2610	12.0150
 2.2620	11.9630
 2.2630	11.9110
 2.2640	11.8560
 2.2650	11.8120
 2.2660	11.7720
 2.2670	11.7320
 2.2680	11.6980
 2.2690	11.6610
 2.2700	11.6220
 2.2710	11.5890
 2.2720	11.5590
 2.2730	11.5320
 2.2740	11.5150
 2.2750	11.4900
 2.2760	11.4650
 2.2770	11.4420
 2.2780	11.4150
 2.2790	11.3940
 2.2800	11.3830
 2.2810	11.3630
 2.2820	11.3400
 2.2830	11.3200
 2.2840	11.2990
 2.2850	11.2780
 2.2860	11.2630
 2.2870	11.2450
 2.2880	11.2250
 2.2890	11.2020
 2.2900	11.1790
 2.2910	11.1490
 2.2920	11.1060
 2.2930	11.0730
 2.2940	11.0450
 2.2950	11.0130
 2.2960	10.9880
 2.2970	10.9580
 2.2980	10.9180
 2.2990	10.8780
 2.3000	10.8470
 2.3010	10.8100
 2.3020	10.7770
 2.3030	10.7470
 2.3040	10.7150
 2.3050	10.6910
 2.3060	10.6670
 2.3070	10.6430
 2.3080	10.6210
 2.3090	10.6030
 2.3100	10.5910
 2.3110	10.5810
 2.3120	10.5720
 2.3130	10.5660
 2.3140	10.5590
 2.3150	10.5510
 2.3160	10.5490
 2.3170	10.5500
 2.3180	10.5510
 2.3190	10.5570
 2.3200	10.5560
 2.3210	10.5530
 2.3220	10.5490
 2.3230	10.5440
 2.3240	10.5360
 2.3250	10.5280
 2.3260	10.5110
 2.3270	10.4860
 2.3280	10.4640
 2.3290	10.4360
 2.3300	10.4160
 2.3310	10.4040
 2.3320	10.3840
 2.3330	10.3600
 2.3340	10.3370
 2.3350	10.3050
 2.3360	10.2830
 2.3370	10.2690
 2.3380	10.2480
 2.3390	10.2260
 2.3400	10.2050
 2.3410	10.1800
 2.3420	10.1580
 2.3430	10.1380
 2.3440	10.1170
 2.3450	10.0940
 2.3460	10.0730
 2.3470	10.0550
 2.3480	10.0350
 2.3490	10.0140
 2.3500	 9.9950
 2.3510	 9.9700
 2.3520	 9.9570
 2.3530	 9.9560
 2.3540	 9.9500
 2.3550	 9.9400
 2.3560	 9.9320
 2.3570	 9.9090
 2.3580	 9.8820
 2.3590	 9.8630
 2.3600	 9.8490
 2.3610	 9.8370
 2.3620	 9.8200
 2.3630	 9.8000
 2.3640	 9.7790
 2.3650	 9.7550
 2.3660	 9.7410
 2.3670	 9.7380
 2.3680	 9.7250
 2.3690	 9.7050
 2.3700	 9.6840
 2.3710	 9.6570
 2.3720	 9.6290
 2.3730	 9.6010
 2.3740	 9.5780
 2.3750	 9.5570
 2.3760	 9.5430
 2.3770	 9.5280
 2.3780	 9.5130
 2.3790	 9.5050
 2.3800	 9.4860
 2.3810	 9.4770
 2.3820	 9.4700
 2.3830	 9.4470
 2.3840	 9.4280
 2.3850	 9.4040
 2.3860	 9.3850
 2.3870	 9.3650
 2.3880	 9.3520
 2.3890	 9.3480
 2.3900	 9.3380
 2.3910	 9.3280
 2.3920	 9.3160
 2.3930	 9.2870
 2.3940	 9.2560
 2.3950	 9.2310
 2.3960	 9.1970
 2.3970	 9.1790
 2.3980	 9.1750
 2.3990	 9.1680
 2.4000	 9.1530
 2.4010	 9.1510
 2.4020	 9.1490
 2.4030	 9.1310
 2.4040	 9.1240
 2.4050	 9.0990
 2.4060	 9.0640
 2.4070	 9.0480
 2.4080	 9.0300
 2.4090	 9.0100
 2.4100	 8.9870
 2.4110	 8.9630
 2.4120	 8.9440
 2.4130	 8.9270
 2.4140	 8.9210
 2.4150	 8.9140
 2.4160	 8.8890
 2.4170	 8.8620
 2.4180	 8.8370
 2.4190	 8.8120
 2.4200	 8.7960
 2.4210	 8.7890
 2.4220	 8.7740
 2.4230	 8.7560
 2.4240	 8.7320
 2.4250	 8.6960
 2.4260	 8.6620
 2.4270	 8.6260
 2.4280	 8.5990
 2.4290	 8.5810
 2.4300	 8.5580
 2.4310	 8.5460
 2.4320	 8.5160
 2.4330	 8.4670
 2.4340	 8.4440
 2.4350	 8.3980
 2.4360	 8.3600
 2.4370	 8.3750
 2.4380	 8.3710
 2.4390	 8.3780
 2.4400	 8.3840
 2.4410	 8.3480
 2.4420	 8.3170
 2.4430	 8.2810
 2.4440	 8.2600
 2.4450	 8.2460
 2.4460	 8.2260
 2.4470	 8.2260
 2.4480	 8.1910
 2.4490	 8.1540
 2.4500	 8.1310
 2.4510	 8.0900
 2.4520	 8.0790
 2.4530	 8.0830
 2.4540	 8.0910
 2.4550	 8.1030
 2.4560	 8.0950
 2.4570	 8.0810
 2.4580	 8.0540
 2.4590	 8.0220
 2.4600	 7.9890
 2.4610	 7.9300
 2.4620	 7.8850
 2.4630	 7.8570
 2.4640	 7.8280
 2.4650	 7.8220
 2.4660	 7.8230
 2.4670	 7.8050
 2.4680	 7.7880
 2.4690	 7.8050
 2.4700	 7.8000
 2.4710	 7.7870
 2.4720	 7.7700
 2.4730	 7.7290
 2.4740	 7.7140
 2.4750	 7.7190
 2.4760	 7.7070
 2.4770	 7.7060
 2.4780	 7.6970
 2.4790	 7.6510
 2.4800	 7.6330
 2.4810	 7.6410
 2.4820	 7.6220
 2.4830	 7.6310
 2.4840	 7.6380
 2.4850	 7.6290
 2.4860	 7.6130
 2.4870	 7.5820
 2.4880	 7.5830
 2.4890	 7.6110
 2.4900	 7.6080
 2.4910	 7.6170
 2.4920	 7.6390
 2.4930	 7.6220
 2.4940	 7.6170
 2.4950	 7.6290
 2.4960	 7.5720
 2.4970	 7.5170
 2.4980	 7.4870
 2.4990	 7.4590
 2.5000	 7.4920
