Name: Betula papyrifera
Type: Vegetation
Class: Tree
Genus: Betula
Species: papyrifera
Sample No.: BEPA-1-33
Owner: UCSB
Wavelength Range: TIR
Origin: USA; Massachusetts; Harvard Forest
Collection Date: 7/8/2013
Description: Samples were collected as part of NSF Macrosystem Biology proposal titled: Collaborative Research: Thermal controls on ecosystem metabolism and function: scaling from leaves to canopies to regions. Samples were collected and overnighted to JPL facilities for processing. The same leaves were processed in the Nicolet and then measured using the ASD.
Measurement: Hemispherical reflectance
First Column: X
Second Column: Y
X Units: Wavelength (micrometers)
Y Units: Reflectance (percentage)
First X Value: 2.501
Last X Value: 15.387
Number of X Values: 1737
Additional Information: vegetation.tree.betula.papyrifera.tir.bepa-1-33.ucsb.nicolet.ancillary.txt

 2.5010	 9.1250
 2.5030	 8.9150
 2.5040	 8.9240
 2.5050	 9.0040
 2.5060	 9.1170
 2.5070	 9.0180
 2.5090	 8.9440
 2.5100	 8.8740
 2.5110	 8.7880
 2.5120	 8.7110
 2.5140	 8.8310
 2.5150	 8.7240
 2.5160	 8.7180
 2.5170	 8.6650
 2.5180	 8.4430
 2.5200	 8.2870
 2.5210	 8.4160
 2.5220	 8.3900
 2.5230	 8.6090
 2.5250	 8.7120
 2.5260	 8.7600
 2.5270	 8.6010
 2.5280	 8.6360
 2.5290	 8.5370
 2.5310	 8.5440
 2.5320	 8.5310
 2.5330	 8.3910
 2.5340	 8.6360
 2.5360	 8.8280
 2.5370	 8.4530
 2.5380	 8.4270
 2.5390	 8.3110
 2.5410	 8.2550
 2.5420	 8.4410
 2.5430	 8.5410
 2.5440	 8.6180
 2.5460	 8.7480
 2.5470	 8.4710
 2.5480	 8.2780
 2.5490	 8.3630
 2.5510	 8.4810
 2.5520	 8.2810
 2.5530	 8.2830
 2.5540	 8.3430
 2.5560	 8.4950
 2.5570	 8.6350
 2.5580	 8.5540
 2.5590	 8.5740
 2.5610	 8.6350
 2.5620	 8.5380
 2.5630	 8.6560
 2.5640	 8.6310
 2.5660	 8.5510
 2.5670	 8.4510
 2.5680	 8.5800
 2.5700	 8.6100
 2.5710	 8.7460
 2.5720	 8.6520
 2.5730	 8.6040
 2.5750	 8.4670
 2.5760	 8.3450
 2.5770	 8.2810
 2.5790	 8.4670
 2.5800	 8.3170
 2.5810	 8.2520
 2.5820	 8.3310
 2.5840	 8.3300
 2.5850	 8.2690
 2.5860	 8.2910
 2.5880	 8.2230
 2.5890	 8.1790
 2.5900	 8.1240
 2.5910	 8.3110
 2.5930	 8.1510
 2.5940	 8.1330
 2.5950	 8.0980
 2.5970	 8.0790
 2.5980	 8.3080
 2.5990	 8.4010
 2.6000	 8.1080
 2.6020	 7.9730
 2.6030	 7.8050
 2.6040	 7.8620
 2.6060	 7.8770
 2.6070	 7.9110
 2.6080	 7.6930
 2.6100	 7.4750
 2.6110	 7.3140
 2.6120	 7.4330
 2.6140	 7.4730
 2.6150	 7.4290
 2.6160	 7.3160
 2.6180	 7.3200
 2.6190	 7.0290
 2.6200	 6.9070
 2.6220	 6.9680
 2.6230	 6.9500
 2.6240	 6.9570
 2.6260	 7.0610
 2.6270	 6.9060
 2.6280	 6.7810
 2.6300	 6.7850
 2.6310	 6.7860
 2.6320	 6.5500
 2.6340	 6.3790
 2.6350	 6.2430
 2.6360	 6.2960
 2.6380	 6.2130
 2.6390	 6.0860
 2.6400	 5.9890
 2.6420	 6.0390
 2.6430	 6.2150
 2.6440	 6.3140
 2.6460	 6.2390
 2.6470	 6.0860
 2.6480	 5.9780
 2.6500	 5.8930
 2.6510	 5.8110
 2.6520	 5.9660
 2.6540	 5.8880
 2.6550	 5.8490
 2.6560	 5.5100
 2.6580	 5.1950
 2.6590	 5.1500
 2.6610	 5.3440
 2.6620	 5.4280
 2.6630	 5.4310
 2.6650	 5.3500
 2.6660	 5.1810
 2.6670	 5.0470
 2.6690	 5.1700
 2.6700	 5.1630
 2.6720	 5.1440
 2.6730	 5.2060
 2.6740	 5.0890
 2.6760	 5.1010
 2.6770	 5.1140
 2.6780	 5.0190
 2.6800	 5.0290
 2.6810	 4.8290
 2.6830	 4.7100
 2.6840	 4.7680
 2.6850	 4.6340
 2.6870	 4.4760
 2.6880	 4.7240
 2.6900	 4.8250
 2.6910	 4.7660
 2.6920	 4.5930
 2.6940	 4.6500
 2.6950	 4.6740
 2.6970	 4.6730
 2.6980	 4.4470
 2.6990	 4.2970
 2.7010	 4.4950
 2.7020	 4.4480
 2.7040	 4.3650
 2.7050	 4.5200
 2.7060	 4.6350
 2.7080	 4.7460
 2.7090	 4.6120
 2.7110	 4.6260
 2.7120	 4.7850
 2.7130	 4.8970
 2.7150	 4.6660
 2.7160	 4.6020
 2.7180	 4.5620
 2.7190	 4.4850
 2.7210	 4.6990
 2.7220	 4.7030
 2.7230	 4.5820
 2.7250	 4.8500
 2.7260	 4.6030
 2.7280	 4.5380
 2.7290	 4.6840
 2.7310	 4.6990
 2.7320	 4.6780
 2.7330	 4.7460
 2.7350	 4.6510
 2.7360	 4.7640
 2.7380	 4.6250
 2.7390	 4.6320
 2.7410	 4.7640
 2.7420	 4.5570
 2.7440	 4.3220
 2.7450	 4.1990
 2.7470	 4.4300
 2.7480	 4.5480
 2.7490	 4.2850
 2.7510	 4.3160
 2.7520	 4.3670
 2.7540	 4.3910
 2.7550	 4.7460
 2.7570	 4.8010
 2.7580	 4.3620
 2.7600	 4.3610
 2.7610	 4.4700
 2.7630	 4.4960
 2.7640	 4.2490
 2.7660	 4.1930
 2.7670	 4.3670
 2.7680	 4.5620
 2.7700	 4.5870
 2.7710	 4.5840
 2.7730	 4.6170
 2.7740	 4.4960
 2.7760	 4.4640
 2.7770	 4.6830
 2.7790	 4.7760
 2.7800	 4.6470
 2.7820	 4.4480
 2.7830	 4.5500
 2.7850	 4.1710
 2.7860	 4.2580
 2.7880	 4.2250
 2.7890	 4.2730
 2.7910	 4.2670
 2.7920	 4.3090
 2.7940	 4.3750
 2.7950	 4.4640
 2.7970	 4.6240
 2.7980	 4.6330
 2.8000	 4.4010
 2.8010	 4.4410
 2.8030	 4.6860
 2.8040	 4.7260
 2.8060	 4.4630
 2.8070	 4.3940
 2.8090	 4.3580
 2.8110	 4.4370
 2.8120	 4.4610
 2.8140	 4.4090
 2.8150	 4.1780
 2.8170	 4.3720
 2.8180	 4.3450
 2.8200	 4.4740
 2.8210	 4.7460
 2.8230	 4.7360
 2.8240	 4.4800
 2.8260	 4.2870
 2.8270	 3.8100
 2.8290	 4.0210
 2.8300	 4.1250
 2.8320	 3.9360
 2.8340	 4.0450
 2.8350	 4.4160
 2.8370	 4.8310
 2.8380	 4.5650
 2.8400	 4.2490
 2.8410	 4.3570
 2.8430	 4.2280
 2.8440	 4.2480
 2.8460	 4.3030
 2.8480	 4.2450
 2.8490	 4.2530
 2.8510	 4.3230
 2.8520	 4.3450
 2.8540	 4.3480
 2.8550	 4.1870
 2.8570	 4.4250
 2.8590	 4.7190
 2.8600	 4.7480
 2.8620	 4.5630
 2.8630	 4.6160
 2.8650	 4.3290
 2.8660	 4.3930
 2.8680	 4.3510
 2.8700	 4.1500
 2.8710	 3.8780
 2.8730	 3.9710
 2.8740	 4.1770
 2.8760	 4.2550
 2.8780	 4.5100
 2.8790	 4.6270
 2.8810	 4.4690
 2.8820	 4.2490
 2.8840	 4.1440
 2.8860	 4.4830
 2.8870	 4.3160
 2.8890	 4.1710
 2.8900	 4.2380
 2.8920	 4.6470
 2.8940	 4.3330
 2.8950	 4.1060
 2.8970	 4.5600
 2.8980	 4.8190
 2.9000	 4.6420
 2.9020	 4.7380
 2.9030	 4.7930
 2.9050	 4.9050
 2.9070	 4.9010
 2.9080	 4.8270
 2.9100	 4.5390
 2.9120	 4.6920
 2.9130	 4.5760
 2.9150	 4.4400
 2.9160	 4.3740
 2.9180	 4.3230
 2.9200	 4.2280
 2.9210	 4.4060
 2.9230	 4.4040
 2.9250	 4.4600
 2.9260	 4.2730
 2.9280	 4.4060
 2.9300	 4.5530
 2.9310	 4.4580
 2.9330	 4.1970
 2.9350	 4.1170
 2.9360	 3.9550
 2.9380	 4.3130
 2.9400	 4.5220
 2.9410	 4.5670
 2.9430	 4.5620
 2.9450	 4.1200
 2.9460	 3.7600
 2.9480	 4.0270
 2.9500	 4.1640
 2.9510	 4.1790
 2.9530	 4.0090
 2.9550	 4.3880
 2.9560	 4.8850
 2.9580	 5.1970
 2.9600	 5.0780
 2.9610	 5.0880
 2.9630	 4.0820
 2.9650	 3.6880
 2.9660	 3.0800
 2.9680	 2.4850
 2.9700	 3.1240
 2.9720	 2.7700
 2.9730	 4.0180
 2.9750	 4.1160
 2.9770	 2.4030
 2.9780	 2.9140
 2.9800	 3.1830
 2.9820	 3.4450
 2.9840	 3.5230
 2.9850	 3.7860
 2.9870	 3.1700
 2.9890	 2.6710
 2.9900	 3.9900
 2.9920	 4.6930
 2.9940	 3.9540
 2.9960	 2.3030
 2.9970	 3.3090
 2.9990	 5.1900
 3.0010	 4.7240
 3.0030	 4.3120
 3.0040	 4.8740
 3.0060	 4.7490
 3.0080	 4.3920
 3.0100	 3.6290
 3.0110	 3.7480
 3.0130	 3.6800
 3.0150	 2.6960
 3.0170	 3.2600
 3.0180	 3.7610
 3.0200	 4.1010
 3.0220	 3.6650
 3.0240	 3.3990
 3.0250	 3.8300
 3.0270	 4.2090
 3.0290	 4.1930
 3.0310	 4.2810
 3.0320	 3.2630
 3.0340	 2.8830
 3.0360	 3.8320
 3.0380	 3.4040
 3.0400	 2.7730
 3.0410	 3.5010
 3.0430	 5.3670
 3.0450	 6.0410
 3.0470	 6.6520
 3.0480	 8.9860
 3.0500	 7.9820
 3.0520	 6.1580
 3.0540	 7.7160
 3.0560	 7.2600
 3.0570	 4.8040
 3.0590	 4.8470
 3.0610	 3.4990
 3.0630	 3.6940
 3.0650	 3.0750
 3.0660	 2.4920
 3.0680	 1.8890
 3.0700	 2.2510
 3.0720	 3.4930
 3.0740	 4.5620
 3.0760	 4.4270
 3.0770	 4.2600
 3.0790	 4.4960
 3.0810	 4.3930
 3.0830	 4.1820
 3.0850	 4.3180
 3.0870	 4.5270
 3.0880	 4.8910
 3.0900	 4.9010
 3.0920	 4.5910
 3.0940	 4.2480
 3.0960	 4.1760
 3.0980	 4.2440
 3.0990	 4.3430
 3.1010	 4.5350
 3.1030	 4.5100
 3.1050	 4.6430
 3.1070	 4.4290
 3.1090	 3.9790
 3.1110	 4.5620
 3.1120	 4.7040
 3.1140	 4.3910
 3.1160	 4.2000
 3.1180	 3.9400
 3.1200	 3.3440
 3.1220	 3.7100
 3.1240	 4.2560
 3.1260	 4.6350
 3.1270	 4.4150
 3.1290	 4.7370
 3.1310	 5.0470
 3.1330	 4.5320
 3.1350	 4.1880
 3.1370	 4.5810
 3.1390	 5.0960
 3.1410	 4.7450
 3.1430	 3.6310
 3.1450	 1.7790
 3.1460	 2.5940
 3.1480	 3.8610
 3.1500	 4.1630
 3.1520	 4.1780
 3.1540	 4.5410
 3.1560	 4.9240
 3.1580	 5.7670
 3.1600	 6.2970
 3.1620	 4.9020
 3.1640	 4.4470
 3.1660	 5.5540
 3.1680	 4.8540
 3.1700	 3.1640
 3.1710	 2.8050
 3.1730	 4.9440
 3.1750	 6.8350
 3.1770	 6.3370
 3.1790	 5.6680
 3.1810	 3.1290
 3.1830	 2.9590
 3.1850	 3.9370
 3.1870	 3.5700
 3.1890	 3.2950
 3.1910	 4.0950
 3.1930	 4.4960
 3.1950	 4.4390
 3.1970	 3.9650
 3.1990	 3.9550
 3.2010	 4.1020
 3.2030	 4.3020
 3.2050	 4.3830
 3.2070	 4.2760
 3.2090	 3.9290
 3.2110	 3.9910
 3.2130	 4.2040
 3.2150	 4.2570
 3.2170	 4.1980
 3.2190	 4.2820
 3.2210	 4.1510
 3.2230	 4.0880
 3.2250	 4.2320
 3.2270	 4.3340
 3.2290	 4.2720
 3.2310	 4.2260
 3.2330	 4.1750
 3.2350	 4.0130
 3.2370	 3.8690
 3.2390	 3.8590
 3.2410	 3.8810
 3.2430	 4.1860
 3.2450	 4.2250
 3.2470	 3.7880
 3.2490	 3.5630
 3.2510	 3.8550
 3.2530	 3.9820
 3.2550	 4.1820
 3.2570	 4.2810
 3.2590	 4.2070
 3.2610	 4.0620
 3.2630	 4.2250
 3.2650	 4.3540
 3.2670	 4.4790
 3.2690	 4.5200
 3.2720	 4.4210
 3.2740	 4.0410
 3.2760	 4.0300
 3.2780	 3.9910
 3.2800	 3.9920
 3.2820	 4.1220
 3.2840	 4.1360
 3.2860	 3.8790
 3.2880	 3.9980
 3.2900	 4.1580
 3.2920	 4.4460
 3.2940	 4.4200
 3.2960	 4.1710
 3.2990	 4.0610
 3.3010	 4.0610
 3.3030	 3.8640
 3.3050	 3.8650
 3.3070	 3.9320
 3.3090	 3.8500
 3.3110	 3.8470
 3.3130	 4.2060
 3.3150	 4.5240
 3.3180	 4.2740
 3.3200	 3.9400
 3.3220	 4.1500
 3.3240	 4.1670
 3.3260	 4.0420
 3.3280	 3.9150
 3.3300	 4.0090
 3.3330	 3.8120
 3.3350	 3.7400
 3.3370	 3.8980
 3.3390	 4.0330
 3.3410	 4.3290
 3.3430	 4.2930
 3.3450	 3.8080
 3.3480	 3.6670
 3.3500	 3.8770
 3.3520	 3.8150
 3.3540	 3.6390
 3.3560	 3.7490
 3.3580	 3.7760
 3.3610	 3.6040
 3.3630	 3.3910
 3.3650	 3.5820
 3.3670	 3.7240
 3.3690	 3.6480
 3.3720	 3.4780
 3.3740	 3.5140
 3.3760	 3.5590
 3.3780	 3.6110
 3.3800	 3.5850
 3.3830	 3.5530
 3.3850	 3.6230
 3.3870	 3.4750
 3.3890	 3.1770
 3.3910	 3.4360
 3.3940	 3.4910
 3.3960	 3.2900
 3.3980	 3.4330
 3.4000	 3.2950
 3.4020	 3.1980
 3.4050	 3.2720
 3.4070	 3.2830
 3.4090	 3.2200
 3.4110	 3.1470
 3.4140	 3.2550
 3.4160	 3.3760
 3.4180	 3.6830
 3.4200	 4.1120
 3.4230	 4.6240
 3.4250	 5.2420
 3.4270	 6.2970
 3.4290	 7.1390
 3.4320	 7.2810
 3.4340	 7.0440
 3.4360	 6.7600
 3.4390	 6.1440
 3.4410	 5.6390
 3.4430	 5.3600
 3.4450	 5.3780
 3.4480	 5.3470
 3.4500	 5.1620
 3.4520	 5.2100
 3.4550	 5.5120
 3.4570	 5.5110
 3.4590	 5.2820
 3.4620	 5.1420
 3.4640	 5.2140
 3.4660	 5.1160
 3.4680	 5.0170
 3.4710	 4.9560
 3.4730	 5.0550
 3.4750	 4.9990
 3.4780	 4.8150
 3.4800	 4.6210
 3.4820	 4.5480
 3.4850	 4.5330
 3.4870	 4.5650
 3.4890	 4.4160
 3.4920	 4.3030
 3.4940	 4.1560
 3.4970	 4.0180
 3.4990	 3.8740
 3.5010	 3.9220
 3.5040	 4.0610
 3.5060	 4.6550
 3.5080	 5.9520
 3.5110	 7.0590
 3.5130	 7.2340
 3.5160	 7.0880
 3.5180	 6.5460
 3.5200	 6.0940
 3.5230	 5.8490
 3.5250	 5.7110
 3.5270	 5.4880
 3.5300	 5.4180
 3.5320	 5.4040
 3.5350	 5.3990
 3.5370	 5.3230
 3.5400	 5.3190
 3.5420	 5.2920
 3.5440	 5.0750
 3.5470	 4.9680
 3.5490	 5.1220
 3.5520	 5.3260
 3.5540	 5.4200
 3.5570	 5.1520
 3.5590	 5.0220
 3.5610	 4.9910
 3.5640	 5.0630
 3.5660	 5.1350
 3.5690	 5.1270
 3.5710	 5.0950
 3.5740	 5.1070
 3.5760	 4.9380
 3.5790	 4.9290
 3.5810	 4.8700
 3.5840	 4.8750
 3.5860	 4.7510
 3.5890	 4.5840
 3.5910	 4.7410
 3.5930	 5.2450
 3.5960	 5.2540
 3.5980	 5.1090
 3.6010	 5.0840
 3.6030	 4.8500
 3.6060	 4.5880
 3.6080	 4.7570
 3.6110	 4.7720
 3.6140	 4.8480
 3.6160	 4.8950
 3.6190	 4.8360
 3.6210	 4.7320
 3.6240	 4.7230
 3.6260	 4.8240
 3.6290	 4.8690
 3.6310	 4.6880
 3.6340	 4.4960
 3.6360	 4.3850
 3.6390	 4.7560
 3.6410	 4.8220
 3.6440	 4.6110
 3.6470	 4.6210
 3.6490	 4.7520
 3.6520	 4.6810
 3.6540	 4.7530
 3.6570	 4.8440
 3.6590	 4.7760
 3.6620	 4.6200
 3.6650	 4.6990
 3.6670	 4.9680
 3.6700	 5.1100
 3.6720	 4.9300
 3.6750	 4.8630
 3.6780	 4.8120
 3.6800	 4.7600
 3.6830	 4.7350
 3.6850	 4.6480
 3.6880	 4.6250
 3.6910	 4.7650
 3.6930	 4.8310
 3.6960	 4.8390
 3.6990	 4.7640
 3.7010	 4.6620
 3.7040	 4.6180
 3.7060	 4.6500
 3.7090	 4.6760
 3.7120	 4.7420
 3.7140	 4.8400
 3.7170	 4.9260
 3.7200	 4.9120
 3.7220	 4.8460
 3.7250	 4.7730
 3.7280	 4.6700
 3.7300	 4.7880
 3.7330	 4.7770
 3.7360	 4.7950
 3.7390	 4.8460
 3.7410	 4.7550
 3.7440	 4.6720
 3.7470	 4.5880
 3.7490	 4.7670
 3.7520	 4.9470
 3.7550	 4.9210
 3.7580	 4.8530
 3.7600	 4.7650
 3.7630	 4.6720
 3.7660	 4.7680
 3.7680	 4.7010
 3.7710	 4.6510
 3.7740	 4.7590
 3.7770	 4.9420
 3.7790	 4.9090
 3.7820	 4.8640
 3.7850	 4.8070
 3.7880	 4.7930
 3.7900	 4.8230
 3.7930	 4.9710
 3.7960	 5.1300
 3.7990	 5.1480
 3.8020	 4.9780
 3.8040	 4.9090
 3.8070	 5.0230
 3.8100	 5.0880
 3.8130	 4.9300
 3.8160	 4.7570
 3.8180	 4.7280
 3.8210	 4.9220
 3.8240	 4.9930
 3.8270	 5.0610
 3.8300	 4.8750
 3.8330	 4.8340
 3.8350	 4.9820
 3.8380	 4.8840
 3.8410	 4.9280
 3.8440	 5.1860
 3.8470	 5.0020
 3.8500	 4.7450
 3.8520	 4.6910
 3.8550	 4.8610
 3.8580	 4.9350
 3.8610	 5.0270
 3.8640	 4.9960
 3.8670	 4.9230
 3.8700	 4.8700
 3.8730	 5.0040
 3.8750	 5.0560
 3.8780	 5.0090
 3.8810	 4.9930
 3.8840	 4.9640
 3.8870	 4.9220
 3.8900	 4.9880
 3.8930	 4.9530
 3.8960	 4.9650
 3.8990	 5.0510
 3.9020	 5.1400
 3.9050	 5.1630
 3.9080	 5.1040
 3.9110	 4.9960
 3.9140	 4.9540
 3.9160	 5.0800
 3.9190	 5.1530
 3.9220	 5.1190
 3.9250	 5.1570
 3.9280	 5.0420
 3.9310	 4.9910
 3.9340	 5.0570
 3.9370	 5.0160
 3.9400	 4.9990
 3.9430	 5.0890
 3.9460	 5.1190
 3.9490	 5.1620
 3.9520	 5.0820
 3.9550	 5.0940
 3.9580	 5.0860
 3.9610	 5.1190
 3.9640	 5.1740
 3.9670	 5.1760
 3.9700	 5.1440
 3.9730	 5.1600
 3.9770	 5.1450
 3.9800	 5.1480
 3.9830	 5.1710
 3.9860	 5.1620
 3.9890	 5.1220
 3.9920	 5.1280
 3.9950	 5.0880
 3.9980	 5.0440
 4.0010	 5.1410
 4.0040	 5.1550
 4.0070	 5.0000
 4.0100	 5.0600
 4.0130	 5.1160
 4.0170	 5.1610
 4.0200	 5.1450
 4.0230	 5.1920
 4.0260	 5.2260
 4.0290	 5.2410
 4.0320	 5.2400
 4.0350	 5.1330
 4.0380	 5.0820
 4.0420	 5.1510
 4.0450	 5.0570
 4.0480	 4.9670
 4.0510	 4.9200
 4.0540	 4.9070
 4.0570	 4.9390
 4.0610	 5.0470
 4.0640	 5.0730
 4.0670	 5.1370
 4.0700	 5.2290
 4.0730	 5.0510
 4.0770	 4.9220
 4.0800	 4.9100
 4.0830	 4.9860
 4.0860	 5.0270
 4.0890	 4.9730
 4.0930	 5.0970
 4.0960	 5.0920
 4.0990	 5.0010
 4.1020	 4.9010
 4.1060	 4.8530
 4.1090	 4.9370
 4.1120	 5.0120
 4.1150	 4.9390
 4.1190	 4.8920
 4.1220	 4.9600
 4.1250	 5.0050
 4.1280	 4.9990
 4.1320	 5.0140
 4.1350	 5.0670
 4.1380	 5.0300
 4.1420	 4.9510
 4.1450	 4.9470
 4.1480	 5.0580
 4.1520	 5.1330
 4.1550	 5.0420
 4.1580	 4.9460
 4.1620	 4.9390
 4.1650	 4.9900
 4.1680	 4.9750
 4.1720	 4.9810
 4.1750	 4.9550
 4.1780	 4.9060
 4.1820	 5.0220
 4.1850	 5.0610
 4.1890	 5.0150
 4.1920	 4.9030
 4.1950	 4.9530
 4.1990	 4.9490
 4.2020	 4.7980
 4.2060	 4.7840
 4.2090	 4.8640
 4.2120	 5.0730
 4.2160	 5.1140
 4.2190	 5.1880
 4.2230	 5.3060
 4.2260	 5.0130
 4.2300	 4.2610
 4.2330	 4.2610
 4.2360	 4.7470
 4.2400	 4.9070
 4.2430	 4.7350
 4.2470	 4.9500
 4.2500	 5.0920
 4.2540	 5.2880
 4.2570	 5.3520
 4.2610	 5.2740
 4.2640	 5.0790
 4.2680	 4.6290
 4.2710	 4.1810
 4.2750	 4.6180
 4.2780	 5.0230
 4.2820	 5.0780
 4.2850	 5.0690
 4.2890	 4.9420
 4.2930	 4.8830
 4.2960	 5.0740
 4.3000	 4.9960
 4.3030	 4.8280
 4.3070	 4.6730
 4.3100	 4.7540
 4.3140	 4.9010
 4.3180	 5.0140
 4.3210	 5.0770
 4.3250	 4.9920
 4.3280	 4.7960
 4.3320	 4.7330
 4.3360	 4.8260
 4.3390	 4.8740
 4.3430	 4.7300
 4.3470	 4.7010
 4.3500	 4.7770
 4.3540	 4.7760
 4.3570	 4.7050
 4.3610	 4.6870
 4.3650	 4.7140
 4.3680	 4.8310
 4.3720	 4.6740
 4.3760	 4.5010
 4.3800	 4.5960
 4.3830	 4.7480
 4.3870	 4.8970
 4.3910	 4.9560
 4.3940	 4.8710
 4.3980	 4.8140
 4.4020	 4.8070
 4.4060	 4.7320
 4.4090	 4.6100
 4.4130	 4.5770
 4.4170	 4.5470
 4.4210	 4.5560
 4.4240	 4.6270
 4.4280	 4.7060
 4.4320	 4.6920
 4.4360	 4.6590
 4.4400	 4.6810
 4.4430	 4.6970
 4.4470	 4.6890
 4.4510	 4.6860
 4.4550	 4.5830
 4.4590	 4.5600
 4.4620	 4.6210
 4.4660	 4.6280
 4.4700	 4.6180
 4.4740	 4.6360
 4.4780	 4.6830
 4.4820	 4.6040
 4.4860	 4.5010
 4.4900	 4.5320
 4.4930	 4.5520
 4.4970	 4.5570
 4.5010	 4.5800
 4.5050	 4.6460
 4.5090	 4.6350
 4.5130	 4.6520
 4.5170	 4.6520
 4.5210	 4.6050
 4.5250	 4.5810
 4.5290	 4.5460
 4.5330	 4.5090
 4.5370	 4.5920
 4.5410	 4.7020
 4.5450	 4.7090
 4.5490	 4.6390
 4.5530	 4.6530
 4.5570	 4.5940
 4.5610	 4.4510
 4.5650	 4.4090
 4.5690	 4.4960
 4.5730	 4.4960
 4.5770	 4.4270
 4.5810	 4.4630
 4.5850	 4.5440
 4.5890	 4.4990
 4.5930	 4.3600
 4.5970	 4.5030
 4.6010	 4.5010
 4.6050	 4.3450
 4.6090	 4.3080
 4.6130	 4.2980
 4.6170	 4.2880
 4.6220	 4.2540
 4.6260	 4.3980
 4.6300	 4.4550
 4.6340	 4.3890
 4.6380	 4.4280
 4.6420	 4.4940
 4.6460	 4.5280
 4.6510	 4.4870
 4.6550	 4.5440
 4.6590	 4.6500
 4.6630	 4.6440
 4.6670	 4.6270
 4.6720	 4.6320
 4.6760	 4.6050
 4.6800	 4.5690
 4.6840	 4.5300
 4.6880	 4.5640
 4.6930	 4.4810
 4.6970	 4.5220
 4.7010	 4.5120
 4.7050	 4.4640
 4.7100	 4.5700
 4.7140	 4.6540
 4.7180	 4.5990
 4.7230	 4.4600
 4.7270	 4.4480
 4.7310	 4.4700
 4.7360	 4.4590
 4.7400	 4.4760
 4.7440	 4.5070
 4.7490	 4.5800
 4.7530	 4.6590
 4.7570	 4.6570
 4.7620	 4.5430
 4.7660	 4.5140
 4.7700	 4.7150
 4.7750	 4.7580
 4.7790	 4.7530
 4.7840	 4.6540
 4.7880	 4.6280
 4.7920	 4.8350
 4.7970	 4.8540
 4.8010	 4.6300
 4.8060	 4.4180
 4.8100	 4.3370
 4.8150	 4.3930
 4.8190	 4.6550
 4.8240	 4.7380
 4.8280	 4.6440
 4.8330	 4.6490
 4.8370	 4.6220
 4.8420	 4.5260
 4.8460	 4.5250
 4.8510	 4.6900
 4.8550	 4.8000
 4.8600	 4.6380
 4.8640	 4.5840
 4.8690	 4.5720
 4.8730	 4.5690
 4.8780	 4.6610
 4.8830	 4.5880
 4.8870	 4.4500
 4.8920	 4.5500
 4.8960	 4.5950
 4.9010	 4.6090
 4.9060	 4.6580
 4.9100	 4.5010
 4.9150	 4.3620
 4.9200	 4.4610
 4.9240	 4.5450
 4.9290	 4.6090
 4.9340	 4.6050
 4.9380	 4.6490
 4.9430	 4.6370
 4.9480	 4.7160
 4.9530	 4.8130
 4.9570	 4.7740
 4.9620	 4.7030
 4.9670	 4.6080
 4.9720	 4.6090
 4.9760	 4.7290
 4.9810	 4.6560
 4.9860	 4.5910
 4.9910	 4.6340
 4.9960	 4.6870
 5.0000	 4.7250
 5.0050	 4.7820
 5.0100	 4.7570
 5.0150	 4.6910
 5.0200	 4.6040
 5.0250	 4.6520
 5.0290	 4.7060
 5.0340	 4.7370
 5.0390	 4.7100
 5.0440	 4.7370
 5.0490	 4.6780
 5.0540	 4.6500
 5.0590	 4.6520
 5.0640	 4.6370
 5.0690	 4.6650
 5.0740	 4.6120
 5.0790	 4.6860
 5.0840	 4.7650
 5.0890	 4.7070
 5.0940	 4.7610
 5.0990	 4.7180
 5.1040	 4.6680
 5.1090	 4.6990
 5.1140	 4.7270
 5.1190	 4.7450
 5.1240	 4.8060
 5.1290	 4.8300
 5.1340	 4.8720
 5.1390	 4.8920
 5.1440	 4.8420
 5.1490	 4.7010
 5.1540	 4.6550
 5.1600	 4.6460
 5.1650	 4.7600
 5.1700	 4.8430
 5.1750	 4.9040
 5.1800	 4.8480
 5.1850	 4.8010
 5.1910	 4.7240
 5.1960	 4.7730
 5.2010	 4.8200
 5.2060	 4.7130
 5.2110	 4.6770
 5.2170	 4.7950
 5.2220	 4.8150
 5.2270	 4.8180
 5.2320	 4.7690
 5.2380	 4.7930
 5.2430	 4.7630
 5.2480	 4.7700
 5.2540	 4.8260
 5.2590	 4.9550
 5.2640	 4.9400
 5.2700	 4.8040
 5.2750	 4.7630
 5.2800	 4.8910
 5.2860	 4.9440
 5.2910	 4.9250
 5.2970	 4.8280
 5.3020	 4.7690
 5.3070	 4.7530
 5.3130	 4.8050
 5.3180	 4.8790
 5.3240	 4.9500
 5.3290	 4.8520
 5.3350	 4.8510
 5.3400	 4.8630
 5.3460	 4.8000
 5.3510	 4.8060
 5.3570	 4.8700
 5.3620	 4.7280
 5.3680	 4.7490
 5.3730	 4.7870
 5.3790	 4.7670
 5.3850	 4.7780
 5.3900	 4.8760
 5.3960	 4.8460
 5.4010	 4.8280
 5.4070	 4.7570
 5.4130	 4.6570
 5.4180	 4.7060
 5.4240	 4.8230
 5.4300	 4.7210
 5.4350	 4.6860
 5.4410	 4.7260
 5.4470	 4.7420
 5.4530	 4.6790
 5.4580	 4.7500
 5.4640	 4.7040
 5.4700	 4.6880
 5.4760	 4.6690
 5.4810	 4.7230
 5.4870	 4.7110
 5.4930	 4.6860
 5.4990	 4.6400
 5.5050	 4.6250
 5.5110	 4.6440
 5.5160	 4.7490
 5.5220	 4.7530
 5.5280	 4.6900
 5.5340	 4.6450
 5.5400	 4.6980
 5.5460	 4.6810
 5.5520	 4.6480
 5.5580	 4.6600
 5.5640	 4.7080
 5.5700	 4.5740
 5.5760	 4.5140
 5.5820	 4.5770
 5.5880	 4.6200
 5.5940	 4.4890
 5.6000	 4.4850
 5.6060	 4.4920
 5.6120	 4.5640
 5.6180	 4.5930
 5.6240	 4.4260
 5.6300	 4.2920
 5.6360	 4.4070
 5.6420	 4.5100
 5.6490	 4.5060
 5.6550	 4.3460
 5.6610	 4.2910
 5.6670	 4.2980
 5.6730	 4.4180
 5.6800	 4.4730
 5.6860	 4.4240
 5.6920	 4.2690
 5.6980	 4.2530
 5.7040	 4.2310
 5.7110	 4.2430
 5.7170	 4.1510
 5.7230	 4.0720
 5.7300	 3.9020
 5.7360	 3.9100
 5.7420	 3.8150
 5.7490	 3.8420
 5.7550	 4.1110
 5.7620	 4.4860
 5.7680	 4.6960
 5.7740	 4.7560
 5.7810	 4.6850
 5.7870	 4.7780
 5.7940	 4.8400
 5.8000	 4.9660
 5.8070	 4.9980
 5.8130	 5.0130
 5.8200	 5.0080
 5.8260	 5.0900
 5.8330	 5.1110
 5.8390	 5.1240
 5.8460	 5.1810
 5.8530	 5.2880
 5.8590	 5.3540
 5.8660	 5.4250
 5.8720	 5.3680
 5.8790	 5.4110
 5.8860	 5.3920
 5.8920	 5.4960
 5.8990	 5.5740
 5.9060	 5.4820
 5.9130	 5.4330
 5.9190	 5.5060
 5.9260	 5.5250
 5.9330	 5.4740
 5.9400	 5.4820
 5.9470	 5.6720
 5.9530	 5.6300
 5.9600	 5.6230
 5.9670	 5.6000
 5.9740	 5.7080
 5.9810	 5.6860
 5.9880	 5.7080
 5.9950	 5.6860
 6.0020	 5.7460
 6.0090	 5.7120
 6.0160	 5.8000
 6.0230	 5.8770
 6.0300	 5.9290
 6.0370	 5.7690
 6.0440	 5.7140
 6.0510	 5.6700
 6.0580	 5.7460
 6.0650	 5.6900
 6.0720	 5.7100
 6.0790	 5.7250
 6.0860	 5.8110
 6.0930	 5.8070
 6.1000	 5.9040
 6.1080	 5.8670
 6.1150	 5.8060
 6.1220	 5.7570
 6.1290	 5.8360
 6.1370	 5.8180
 6.1440	 6.0140
 6.1510	 6.0520
 6.1580	 6.0680
 6.1660	 6.0910
 6.1730	 6.3030
 6.1800	 6.3890
 6.1880	 6.4170
 6.1950	 6.2910
 6.2030	 6.1130
 6.2100	 5.8390
 6.2170	 5.8730
 6.2250	 5.6840
 6.2320	 5.4440
 6.2400	 5.1970
 6.2470	 5.1970
 6.2550	 5.0850
 6.2630	 4.8230
 6.2700	 4.6580
 6.2780	 4.6880
 6.2850	 4.6140
 6.2930	 4.6070
 6.3010	 4.5270
 6.3080	 4.6250
 6.3160	 4.6560
 6.3240	 4.7200
 6.3310	 4.7520
 6.3390	 4.7620
 6.3470	 4.5660
 6.3550	 4.5480
 6.3620	 4.5870
 6.3700	 4.5360
 6.3780	 4.5070
 6.3860	 4.5720
 6.3940	 4.4000
 6.4020	 4.4030
 6.4100	 4.5260
 6.4180	 4.6720
 6.4260	 4.5980
 6.4330	 4.5600
 6.4410	 4.5160
 6.4490	 4.5630
 6.4580	 4.5600
 6.4660	 4.6340
 6.4740	 4.5720
 6.4820	 4.6560
 6.4900	 4.6120
 6.4980	 4.6010
 6.5060	 4.4680
 6.5140	 4.4870
 6.5230	 4.6000
 6.5310	 4.6980
 6.5390	 4.4870
 6.5470	 4.4810
 6.5550	 4.5240
 6.5640	 4.5200
 6.5720	 4.3930
 6.5800	 4.4350
 6.5890	 4.4600
 6.5970	 4.4460
 6.6060	 4.3970
 6.6140	 4.5220
 6.6220	 4.6250
 6.6310	 4.7790
 6.6390	 4.7480
 6.6480	 4.7290
 6.6560	 4.6340
 6.6650	 4.6950
 6.6740	 4.6930
 6.6820	 4.5920
 6.6910	 4.4840
 6.6990	 4.6200
 6.7080	 4.5640
 6.7170	 4.4290
 6.7260	 4.3870
 6.7340	 4.5230
 6.7430	 4.4450
 6.7520	 4.4270
 6.7610	 4.3750
 6.7690	 4.2140
 6.7780	 4.0760
 6.7870	 4.5150
 6.7960	 4.8620
 6.8050	 4.7080
 6.8140	 4.5100
 6.8230	 4.7200
 6.8320	 5.0960
 6.8410	 5.6620
 6.8500	 5.6750
 6.8590	 5.4160
 6.8680	 5.3560
 6.8770	 5.4570
 6.8860	 5.3470
 6.8950	 5.3640
 6.9050	 5.3950
 6.9140	 5.4080
 6.9230	 5.3660
 6.9320	 5.4610
 6.9420	 5.2940
 6.9510	 5.2610
 6.9600	 5.2570
 6.9700	 5.3650
 6.9790	 5.1560
 6.9880	 5.2080
 6.9980	 5.2520
 7.0070	 5.2510
 7.0170	 5.0910
 7.0260	 5.1530
 7.0360	 5.0490
 7.0450	 5.0220
 7.0550	 4.9950
 7.0650	 4.9400
 7.0740	 4.7910
 7.0840	 4.9620
 7.0940	 5.0830
 7.1030	 5.1960
 7.1130	 4.9840
 7.1230	 4.9660
 7.1330	 4.9580
 7.1420	 5.0270
 7.1520	 5.0150
 7.1620	 5.1550
 7.1720	 5.1230
 7.1820	 5.1520
 7.1920	 5.0370
 7.2020	 5.1040
 7.2120	 5.0070
 7.2220	 5.0860
 7.2320	 4.9160
 7.2420	 4.9770
 7.2520	 5.0400
 7.2620	 5.2230
 7.2730	 5.2120
 7.2830	 5.1080
 7.2930	 4.9690
 7.3030	 5.0840
 7.3140	 5.0670
 7.3240	 5.0960
 7.3340	 5.0420
 7.3450	 5.2180
 7.3550	 5.1930
 7.3660	 5.0150
 7.3760	 4.8610
 7.3870	 5.0000
 7.3970	 4.9380
 7.4080	 5.0120
 7.4180	 5.0350
 7.4290	 5.1510
 7.4400	 5.0700
 7.4500	 5.1600
 7.4610	 5.2040
 7.4720	 5.1710
 7.4830	 5.0080
 7.4930	 5.1310
 7.5040	 5.0510
 7.5150	 5.0540
 7.5260	 5.0090
 7.5370	 5.0290
 7.5480	 4.8680
 7.5590	 4.9300
 7.5700	 5.0080
 7.5810	 5.0620
 7.5920	 4.7160
 7.6030	 4.4630
 7.6140	 4.2710
 7.6260	 4.4250
 7.6370	 4.4250
 7.6480	 4.5400
 7.6590	 4.6410
 7.6710	 4.6910
 7.6820	 4.6660
 7.6930	 4.8250
 7.7050	 4.6260
 7.7160	 4.7100
 7.7280	 4.7410
 7.7390	 4.7130
 7.7510	 4.6390
 7.7630	 4.6920
 7.7740	 4.6020
 7.7860	 4.7020
 7.7980	 4.6200
 7.8090	 4.6410
 7.8210	 4.5210
 7.8330	 4.6790
 7.8450	 4.7480
 7.8570	 4.7950
 7.8690	 4.7740
 7.8810	 4.7710
 7.8930	 4.6690
 7.9050	 4.8010
 7.9170	 4.8290
 7.9290	 4.9290
 7.9410	 4.7610
 7.9530	 4.8600
 7.9650	 4.8040
 7.9780	 4.8220
 7.9900	 4.6640
 8.0020	 4.7870
 8.0150	 4.8040
 8.0270	 5.0140
 8.0390	 5.0100
 8.0520	 5.1180
 8.0640	 5.0580
 8.0770	 5.2430
 8.0900	 5.0480
 8.1020	 5.0320
 8.1150	 4.8840
 8.1280	 5.0760
 8.1400	 5.1620
 8.1530	 5.2620
 8.1660	 4.9900
 8.1790	 5.1030
 8.1920	 5.3950
 8.2050	 5.5420
 8.2180	 5.1830
 8.2310	 5.3180
 8.2440	 5.2890
 8.2570	 5.1750
 8.2700	 5.0790
 8.2830	 5.3510
 8.2970	 5.3320
 8.3100	 5.4180
 8.3230	 5.1770
 8.3370	 5.1520
 8.3500	 5.2010
 8.3640	 5.4920
 8.3770	 5.3890
 8.3910	 5.5170
 8.4040	 5.4720
 8.4180	 5.5160
 8.4320	 5.5830
 8.4450	 5.7620
 8.4590	 5.5080
 8.4730	 5.7180
 8.4870	 5.6500
 8.5010	 5.7720
 8.5150	 5.8120
 8.5290	 6.1870
 8.5430	 6.1520
 8.5570	 6.1150
 8.5710	 5.9520
 8.5850	 6.0610
 8.5990	 5.9580
 8.6140	 5.9720
 8.6280	 5.9170
 8.6420	 6.0870
 8.6570	 5.8100
 8.6710	 5.9580
 8.6860	 5.8680
 8.7000	 5.9550
 8.7150	 5.9920
 8.7300	 6.1020
 8.7440	 5.9050
 8.7590	 6.0990
 8.7740	 6.1210
 8.7890	 6.1760
 8.8040	 5.9280
 8.8190	 6.0760
 8.8340	 5.9690
 8.8490	 6.0630
 8.8640	 5.9600
 8.8790	 6.1730
 8.8940	 5.8970
 8.9100	 5.8990
 8.9250	 5.6750
 8.9400	 5.7450
 8.9560	 5.6710
 8.9710	 5.7090
 8.9870	 5.3910
 9.0020	 5.4590
 9.0180	 5.5070
 9.0340	 5.6640
 9.0500	 5.2780
 9.0650	 5.2810
 9.0810	 5.3730
 9.0970	 5.6770
 9.1130	 5.5900
 9.1290	 5.8030
 9.1450	 5.7110
 9.1610	 5.7810
 9.1780	 5.7940
 9.1940	 5.9640
 9.2100	 5.7890
 9.2270	 5.7550
 9.2430	 5.5060
 9.2600	 5.6010
 9.2760	 5.3290
 9.2930	 5.4340
 9.3090	 5.3150
 9.3260	 5.3380
 9.3430	 5.0560
 9.3600	 5.0500
 9.3770	 4.8010
 9.3940	 5.0340
 9.4110	 5.0120
 9.4280	 5.1020
 9.4450	 4.8400
 9.4620	 4.8080
 9.4800	 4.6520
 9.4970	 4.8400
 9.5140	 4.7750
 9.5320	 4.9670
 9.5500	 4.8680
 9.5670	 5.1020
 9.5850	 4.8470
 9.6030	 4.7730
 9.6200	 4.7680
 9.6380	 5.1530
 9.6560	 4.8870
 9.6740	 4.9190
 9.6920	 4.6190
 9.7100	 4.7420
 9.7290	 4.5860
 9.7470	 4.6040
 9.7650	 4.5710
 9.7840	 4.8190
 9.8020	 4.5830
 9.8210	 4.7010
 9.8390	 4.6060
 9.8580	 4.7470
 9.8770	 4.5910
 9.8960	 4.6630
 9.9150	 4.6890
 9.9340	 4.9620
 9.9530	 4.7560
 9.9720	 4.8440
 9.9910	 4.8190
10.0100	 4.9910
10.0300	 4.7450
10.0490	 4.9850
10.0690	 4.9940
10.0880	 5.2240
10.1080	 5.1340
10.1280	 5.3210
10.1480	 5.2230
10.1670	 5.4990
10.1870	 5.5060
10.2070	 5.5740
10.2280	 5.3950
10.2480	 5.6410
10.2680	 5.5750
10.2890	 5.7400
10.3090	 5.5320
10.3300	 5.4940
10.3500	 5.4090
10.3710	 5.6670
10.3920	 5.4640
10.4120	 5.6390
10.4330	 5.6500
10.4540	 5.7230
10.4760	 5.7260
10.4970	 5.9460
10.5180	 5.7930
10.5390	 6.0030
10.5610	 5.9550
10.5820	 6.0720
10.6040	 5.8130
10.6260	 5.9510
10.6480	 5.9600
10.6700	 6.1170
10.6920	 6.1440
10.7140	 6.3670
10.7360	 6.1130
10.7580	 6.1750
10.7800	 5.9990
10.8030	 6.2630
10.8250	 6.2490
10.8480	 6.4380
10.8710	 6.3390
10.8940	 6.4610
10.9170	 6.1940
10.9400	 6.4870
10.9630	 6.3110
10.9860	 6.4170
11.0090	 6.3810
11.0330	 6.4100
11.0560	 6.2470
11.0800	 6.3940
11.1040	 6.8270
11.1270	 7.2260
11.1510	 6.3620
11.1750	 6.3410
11.2000	 6.3050
11.2240	 6.4840
11.2480	 6.4190
11.2730	 6.8660
11.2970	 6.8160
11.3220	 6.8950
11.3470	 6.4580
11.3720	 6.5770
11.3970	 6.4020
11.4220	 6.4330
11.4470	 6.1760
11.4720	 6.3490
11.4980	 6.1510
11.5230	 6.3380
11.5490	 5.9950
11.5750	 6.1250
11.6000	 6.2750
11.6260	 6.3710
11.6530	 5.9940
11.6790	 6.1530
11.7050	 5.8520
11.7320	 5.9860
11.7580	 5.8380
11.7850	 5.9920
11.8120	 5.7080
11.8390	 6.0250
11.8660	 6.0650
11.8930	 6.1760
11.9200	 5.8660
11.9480	 6.0990
11.9760	 5.7080
12.0030	 5.7220
12.0310	 5.5110
12.0590	 5.8160
12.0870	 5.6210
12.1150	 5.9350
12.1440	 5.8060
12.1720	 5.9520
12.2010	 5.6260
12.2300	 5.8120
12.2590	 5.6580
12.2880	 5.8720
12.3170	 5.6070
12.3460	 5.9760
12.3760	 5.6590
12.4050	 5.6070
12.4350	 5.3490
12.4650	 5.5280
12.4950	 5.3480
12.5250	 5.7380
12.5550	 5.5770
12.5860	 5.4960
12.6170	 5.1920
12.6470	 5.3440
12.6780	 4.9900
12.7090	 5.0180
12.7410	 4.4290
12.7720	 4.3900
12.8030	 4.0670
12.8350	 4.3620
12.8670	 4.4490
12.8990	 4.9050
12.9310	 4.5540
12.9640	 4.7350
12.9960	 4.6460
13.0290	 4.8380
13.0610	 4.5950
13.0940	 4.5330
13.1280	 4.1890
13.1610	 4.5700
13.1940	 4.4600
13.2280	 4.5270
13.2620	 3.8500
13.2960	 4.0400
13.3300	 4.0420
13.3640	 4.6160
13.3990	 4.3310
13.4340	 4.2500
13.4690	 3.6560
13.5040	 3.9950
13.5390	 3.6960
13.5740	 3.9380
13.6100	 3.4220
13.6460	 3.7780
13.6820	 3.9170
13.7180	 4.3780
13.7540	 3.8880
13.7910	 3.8940
13.8280	 3.3060
13.8650	 3.8500
13.9020	 4.1190
13.9390	 4.7640
13.9770	 4.4400
14.0150	 4.3060
14.0530	 3.7170
14.0910	 3.6880
14.1290	 3.1950
14.1680	 3.7670
14.2070	 3.5710
14.2460	 3.5260
14.2850	 2.7840
14.3240	 2.9640
14.3640	 2.4700
14.4040	 3.0610
14.4440	 2.5960
14.4840	 2.8410
14.5250	 2.8750
14.5660	 3.8440
14.6070	 3.1540
14.6480	 3.2590
14.6900	 2.3870
14.7310	 2.8160
14.7730	 2.5050
14.8150	 3.3340
14.8580	 2.8270
14.9010	 3.4630
14.9440	 4.0520
14.9870	 4.6750
15.0300	 2.3410
15.0740	 2.9950
15.1180	 2.4470
15.1620	 3.3650
15.2060	 3.0360
15.2510	 3.7590
15.2960	 2.3900
15.3410	 2.9460
15.3870	 2.1430
