Name: Pinus lambertiana 1
Type: vegetation
Class: Tree
Genus: Pinus
Species: lambertiana
Sample No.: VH051
Owner: UCSB
Wavelength Range: VSWIR
Origin: 37.043; -119.3043; WGS84
Collection Date: 4/20/2013
Description: Samples were collected as part of the HyspIRI Airborne Campaign. 48 individual plants were sampled in three times in 2013 - spring  summer  and fall. The name of the sample includes a 1  2  or 3 which references a different individual of the species. Samples were taken to JPL and processed within 48 hours of collection. The same leaves were processed in the Nicolet and then measured using the ASD.
Measurement: Bidirectional reflectance
First Column: X
Second Column: Y
X Units: Wavelength (micrometers)
Y Units: Reflectance (percentage)
First X Value: 0.35
Last X Value: 2.5
Number of X Values: 2151
Additional Information: vegetation.tree.pinus.lambertiana.vswir.vh051.ucsb.asd.ancillary.txt

 0.3500	 4.4530
 0.3510	 4.4230
 0.3520	 4.4220
 0.3530	 4.3910
 0.3540	 4.3030
 0.3550	 4.2200
 0.3560	 4.2440
 0.3570	 4.2910
 0.3580	 4.2120
 0.3590	 4.1910
 0.3600	 4.1990
 0.3610	 4.1820
 0.3620	 4.0720
 0.3630	 4.1240
 0.3640	 4.2200
 0.3650	 4.1860
 0.3660	 4.0220
 0.3670	 3.9900
 0.3680	 4.1090
 0.3690	 4.2110
 0.3700	 4.1560
 0.3710	 4.1140
 0.3720	 4.1710
 0.3730	 4.1790
 0.3740	 4.1530
 0.3750	 4.1170
 0.3760	 4.0870
 0.3770	 3.9980
 0.3780	 3.9740
 0.3790	 4.0160
 0.3800	 4.0140
 0.3810	 4.0200
 0.3820	 4.0530
 0.3830	 4.1100
 0.3840	 4.1480
 0.3850	 4.1520
 0.3860	 4.1220
 0.3870	 4.0710
 0.3880	 4.0370
 0.3890	 4.0350
 0.3900	 4.0450
 0.3910	 4.0150
 0.3920	 4.0120
 0.3930	 3.9820
 0.3940	 3.9090
 0.3950	 3.9480
 0.3960	 3.9700
 0.3970	 3.9740
 0.3980	 4.0050
 0.3990	 3.9670
 0.4000	 3.9420
 0.4010	 3.9720
 0.4020	 4.0170
 0.4030	 4.0460
 0.4040	 4.0500
 0.4050	 4.0350
 0.4060	 4.0380
 0.4070	 4.0660
 0.4080	 4.0970
 0.4090	 4.0930
 0.4100	 4.0990
 0.4110	 4.1390
 0.4120	 4.2010
 0.4130	 4.2120
 0.4140	 4.2330
 0.4150	 4.2560
 0.4160	 4.2660
 0.4170	 4.3110
 0.4180	 4.3620
 0.4190	 4.4030
 0.4200	 4.4370
 0.4210	 4.4740
 0.4220	 4.5190
 0.4230	 4.5710
 0.4240	 4.6080
 0.4250	 4.6470
 0.4260	 4.6830
 0.4270	 4.7050
 0.4280	 4.7370
 0.4290	 4.7670
 0.4300	 4.7930
 0.4310	 4.8250
 0.4320	 4.8500
 0.4330	 4.8670
 0.4340	 4.8830
 0.4350	 4.9240
 0.4360	 4.9600
 0.4370	 4.9810
 0.4380	 4.9960
 0.4390	 5.0190
 0.4400	 5.0380
 0.4410	 5.0510
 0.4420	 5.0800
 0.4430	 5.0990
 0.4440	 5.1060
 0.4450	 5.1120
 0.4460	 5.1360
 0.4470	 5.1570
 0.4480	 5.1670
 0.4490	 5.1820
 0.4500	 5.2000
 0.4510	 5.2160
 0.4520	 5.2310
 0.4530	 5.2500
 0.4540	 5.2610
 0.4550	 5.2670
 0.4560	 5.2770
 0.4570	 5.2920
 0.4580	 5.3090
 0.4590	 5.3220
 0.4600	 5.3310
 0.4610	 5.3390
 0.4620	 5.3450
 0.4630	 5.3460
 0.4640	 5.3510
 0.4650	 5.3490
 0.4660	 5.3430
 0.4670	 5.3550
 0.4680	 5.3650
 0.4690	 5.3720
 0.4700	 5.3760
 0.4710	 5.3830
 0.4720	 5.3860
 0.4730	 5.3860
 0.4740	 5.3900
 0.4750	 5.3980
 0.4760	 5.4050
 0.4770	 5.4100
 0.4780	 5.4090
 0.4790	 5.4110
 0.4800	 5.4180
 0.4810	 5.4300
 0.4820	 5.4270
 0.4830	 5.4260
 0.4840	 5.4330
 0.4850	 5.4420
 0.4860	 5.4520
 0.4870	 5.4600
 0.4880	 5.4670
 0.4890	 5.4880
 0.4900	 5.5040
 0.4910	 5.5140
 0.4920	 5.5290
 0.4930	 5.5480
 0.4940	 5.5760
 0.4950	 5.6080
 0.4960	 5.6240
 0.4970	 5.6610
 0.4980	 5.7110
 0.4990	 5.7560
 0.5000	 5.8040
 0.5010	 5.8490
 0.5020	 5.8970
 0.5030	 5.9550
 0.5040	 6.0200
 0.5050	 6.0950
 0.5060	 6.1830
 0.5070	 6.2880
 0.5080	 6.3950
 0.5090	 6.5040
 0.5100	 6.6250
 0.5110	 6.7550
 0.5120	 6.8940
 0.5130	 7.0470
 0.5140	 7.2170
 0.5150	 7.3900
 0.5160	 7.5730
 0.5170	 7.7720
 0.5180	 7.9650
 0.5190	 8.1640
 0.5200	 8.3750
 0.5210	 8.6030
 0.5220	 8.8240
 0.5230	 9.0340
 0.5240	 9.2370
 0.5250	 9.4450
 0.5260	 9.6470
 0.5270	 9.8400
 0.5280	10.0260
 0.5290	10.1970
 0.5300	10.3620
 0.5310	10.5210
 0.5320	10.6620
 0.5330	10.7960
 0.5340	10.9270
 0.5350	11.0500
 0.5360	11.1640
 0.5370	11.2690
 0.5380	11.3670
 0.5390	11.4620
 0.5400	11.5530
 0.5410	11.6380
 0.5420	11.7170
 0.5430	11.7930
 0.5440	11.8730
 0.5450	11.9530
 0.5460	12.0290
 0.5470	12.1080
 0.5480	12.1830
 0.5490	12.2490
 0.5500	12.3080
 0.5510	12.3610
 0.5520	12.4050
 0.5530	12.4360
 0.5540	12.4580
 0.5550	12.4630
 0.5560	12.4500
 0.5570	12.4260
 0.5580	12.3920
 0.5590	12.3510
 0.5600	12.3010
 0.5610	12.2410
 0.5620	12.1740
 0.5630	12.1020
 0.5640	12.0240
 0.5650	11.9380
 0.5660	11.8420
 0.5670	11.7360
 0.5680	11.6220
 0.5690	11.5050
 0.5700	11.3860
 0.5710	11.2660
 0.5720	11.1390
 0.5730	11.0180
 0.5740	10.9070
 0.5750	10.8050
 0.5760	10.7120
 0.5770	10.6230
 0.5780	10.5350
 0.5790	10.4500
 0.5800	10.3750
 0.5810	10.3070
 0.5820	10.2390
 0.5830	10.1700
 0.5840	10.1020
 0.5850	10.0400
 0.5860	 9.9830
 0.5870	 9.9290
 0.5880	 9.8830
 0.5890	 9.8460
 0.5900	 9.8150
 0.5910	 9.7890
 0.5920	 9.7650
 0.5930	 9.7350
 0.5940	 9.7110
 0.5950	 9.6900
 0.5960	 9.6670
 0.5970	 9.6440
 0.5980	 9.6230
 0.5990	 9.6020
 0.6000	 9.5790
 0.6010	 9.5450
 0.6020	 9.5090
 0.6030	 9.4710
 0.6040	 9.4260
 0.6050	 9.3730
 0.6060	 9.3150
 0.6070	 9.2520
 0.6080	 9.1840
 0.6090	 9.1140
 0.6100	 9.0390
 0.6110	 8.9540
 0.6120	 8.8770
 0.6130	 8.8040
 0.6140	 8.7310
 0.6150	 8.6570
 0.6160	 8.5880
 0.6170	 8.5250
 0.6180	 8.4640
 0.6190	 8.4090
 0.6200	 8.3620
 0.6210	 8.3230
 0.6220	 8.2870
 0.6230	 8.2550
 0.6240	 8.2310
 0.6250	 8.2130
 0.6260	 8.1990
 0.6270	 8.1860
 0.6280	 8.1790
 0.6290	 8.1770
 0.6300	 8.1750
 0.6310	 8.1690
 0.6320	 8.1600
 0.6330	 8.1500
 0.6340	 8.1310
 0.6350	 8.1040
 0.6360	 8.0710
 0.6370	 8.0220
 0.6380	 7.9650
 0.6390	 7.9000
 0.6400	 7.8200
 0.6410	 7.7350
 0.6420	 7.6490
 0.6430	 7.5600
 0.6440	 7.4630
 0.6450	 7.3680
 0.6460	 7.2760
 0.6470	 7.1870
 0.6480	 7.1030
 0.6490	 7.0300
 0.6500	 6.9680
 0.6510	 6.9080
 0.6520	 6.8600
 0.6530	 6.8140
 0.6540	 6.7630
 0.6550	 6.7090
 0.6560	 6.6540
 0.6570	 6.5940
 0.6580	 6.5250
 0.6590	 6.4490
 0.6600	 6.3690
 0.6610	 6.2900
 0.6620	 6.2100
 0.6630	 6.1380
 0.6640	 6.0710
 0.6650	 6.0060
 0.6660	 5.9480
 0.6670	 5.8990
 0.6680	 5.8590
 0.6690	 5.8260
 0.6700	 5.7980
 0.6710	 5.7790
 0.6720	 5.7680
 0.6730	 5.7590
 0.6740	 5.7560
 0.6750	 5.7580
 0.6760	 5.7650
 0.6770	 5.7760
 0.6780	 5.7910
 0.6790	 5.8120
 0.6800	 5.8420
 0.6810	 5.8810
 0.6820	 5.9320
 0.6830	 5.9970
 0.6840	 6.0860
 0.6850	 6.1980
 0.6860	 6.3380
 0.6870	 6.5140
 0.6880	 6.7430
 0.6890	 7.0290
 0.6900	 7.3780
 0.6910	 7.7930
 0.6920	 8.2790
 0.6930	 8.8370
 0.6940	 9.4630
 0.6950	10.1490
 0.6960	10.8910
 0.6970	11.6840
 0.6980	12.5220
 0.6990	13.3900
 0.7000	14.2870
 0.7010	15.2090
 0.7020	16.1430
 0.7030	17.0870
 0.7040	18.0360
 0.7050	18.9830
 0.7060	19.9220
 0.7070	20.8600
 0.7080	21.7940
 0.7090	22.7220
 0.7100	23.6420
 0.7110	24.5570
 0.7120	25.4670
 0.7130	26.3710
 0.7140	27.2640
 0.7150	28.1490
 0.7160	29.0300
 0.7170	29.9080
 0.7180	30.7690
 0.7190	31.6160
 0.7200	32.4610
 0.7210	33.2920
 0.7220	34.1060
 0.7230	34.9000
 0.7240	35.6790
 0.7250	36.4420
 0.7260	37.1820
 0.7270	37.8940
 0.7280	38.5870
 0.7290	39.2580
 0.7300	39.9000
 0.7310	40.5100
 0.7320	41.0980
 0.7330	41.6610
 0.7340	42.1990
 0.7350	42.7130
 0.7360	43.2030
 0.7370	43.6660
 0.7380	44.1000
 0.7390	44.5230
 0.7400	44.9200
 0.7410	45.2930
 0.7420	45.6490
 0.7430	45.9790
 0.7440	46.2910
 0.7450	46.5870
 0.7460	46.8630
 0.7470	47.1230
 0.7480	47.3660
 0.7490	47.5910
 0.7500	47.8040
 0.7510	47.9990
 0.7520	48.1790
 0.7530	48.3480
 0.7540	48.5070
 0.7550	48.6530
 0.7560	48.7890
 0.7570	48.9180
 0.7580	49.0360
 0.7590	49.1460
 0.7600	49.2520
 0.7610	49.3490
 0.7620	49.4380
 0.7630	49.5240
 0.7640	49.6100
 0.7650	49.6850
 0.7660	49.7590
 0.7670	49.8320
 0.7680	49.8960
 0.7690	49.9530
 0.7700	50.0100
 0.7710	50.0690
 0.7720	50.1230
 0.7730	50.1770
 0.7740	50.2280
 0.7750	50.2740
 0.7760	50.3240
 0.7770	50.3730
 0.7780	50.4180
 0.7790	50.4600
 0.7800	50.4940
 0.7810	50.5350
 0.7820	50.5860
 0.7830	50.6340
 0.7840	50.6700
 0.7850	50.7060
 0.7860	50.7500
 0.7870	50.7910
 0.7880	50.8250
 0.7890	50.8600
 0.7900	50.9070
 0.7910	50.9410
 0.7920	50.9680
 0.7930	50.9980
 0.7940	51.0370
 0.7950	51.0740
 0.7960	51.1050
 0.7970	51.1330
 0.7980	51.1640
 0.7990	51.2010
 0.8000	51.2360
 0.8010	51.2620
 0.8020	51.2890
 0.8030	51.3190
 0.8040	51.3460
 0.8050	51.3680
 0.8060	51.4000
 0.8070	51.4300
 0.8080	51.4560
 0.8090	51.4850
 0.8100	51.5090
 0.8110	51.5290
 0.8120	51.5500
 0.8130	51.5810
 0.8140	51.6100
 0.8150	51.6370
 0.8160	51.6610
 0.8170	51.6810
 0.8180	51.7020
 0.8190	51.7220
 0.8200	51.7410
 0.8210	51.7620
 0.8220	51.7860
 0.8230	51.8100
 0.8240	51.8240
 0.8250	51.8420
 0.8260	51.8580
 0.8270	51.8710
 0.8280	51.8880
 0.8290	51.9030
 0.8300	51.9190
 0.8310	51.9370
 0.8320	51.9420
 0.8330	51.9530
 0.8340	51.9700
 0.8350	51.9870
 0.8360	52.0060
 0.8370	52.0270
 0.8380	52.0490
 0.8390	52.0720
 0.8400	52.0910
 0.8410	52.1110
 0.8420	52.1340
 0.8430	52.1570
 0.8440	52.1830
 0.8450	52.2050
 0.8460	52.2230
 0.8470	52.2460
 0.8480	52.2710
 0.8490	52.2960
 0.8500	52.3200
 0.8510	52.3430
 0.8520	52.3650
 0.8530	52.3850
 0.8540	52.4020
 0.8550	52.4250
 0.8560	52.4500
 0.8570	52.4730
 0.8580	52.4940
 0.8590	52.5170
 0.8600	52.5390
 0.8610	52.5570
 0.8620	52.5770
 0.8630	52.5930
 0.8640	52.6100
 0.8650	52.6310
 0.8660	52.6470
 0.8670	52.6640
 0.8680	52.6820
 0.8690	52.7000
 0.8700	52.7150
 0.8710	52.7320
 0.8720	52.7490
 0.8730	52.7640
 0.8740	52.7870
 0.8750	52.8050
 0.8760	52.8170
 0.8770	52.8310
 0.8780	52.8440
 0.8790	52.8560
 0.8800	52.8670
 0.8810	52.8790
 0.8820	52.8960
 0.8830	52.9130
 0.8840	52.9220
 0.8850	52.9180
 0.8860	52.9250
 0.8870	52.9370
 0.8880	52.9450
 0.8890	52.9600
 0.8900	52.9620
 0.8910	52.9580
 0.8920	52.9600
 0.8930	52.9600
 0.8940	52.9590
 0.8950	52.9620
 0.8960	52.9710
 0.8970	52.9760
 0.8980	52.9730
 0.8990	52.9680
 0.9000	52.9680
 0.9010	52.9640
 0.9020	52.9600
 0.9030	52.9610
 0.9040	52.9720
 0.9050	52.9790
 0.9060	52.9780
 0.9070	52.9710
 0.9080	52.9690
 0.9090	52.9580
 0.9100	52.9480
 0.9110	52.9480
 0.9120	52.9490
 0.9130	52.9460
 0.9140	52.9430
 0.9150	52.9430
 0.9160	52.9330
 0.9170	52.9210
 0.9180	52.9150
 0.9190	52.9210
 0.9200	52.9180
 0.9210	52.8990
 0.9220	52.8730
 0.9230	52.8520
 0.9240	52.8370
 0.9250	52.8210
 0.9260	52.8000
 0.9270	52.7700
 0.9280	52.7420
 0.9290	52.7150
 0.9300	52.6820
 0.9310	52.6310
 0.9320	52.5880
 0.9330	52.5450
 0.9340	52.4960
 0.9350	52.4410
 0.9360	52.3960
 0.9370	52.3470
 0.9380	52.2850
 0.9390	52.2220
 0.9400	52.1570
 0.9410	52.1000
 0.9420	52.0490
 0.9430	51.9750
 0.9440	51.8960
 0.9450	51.8020
 0.9460	51.6940
 0.9470	51.6150
 0.9480	51.5030
 0.9490	51.3760
 0.9500	51.2530
 0.9510	51.0970
 0.9520	50.9510
 0.9530	50.8110
 0.9540	50.6640
 0.9550	50.5000
 0.9560	50.3490
 0.9570	50.2100
 0.9580	50.0740
 0.9590	49.9570
 0.9600	49.8510
 0.9610	49.7430
 0.9620	49.6280
 0.9630	49.5210
 0.9640	49.4460
 0.9650	49.3900
 0.9660	49.3300
 0.9670	49.2680
 0.9680	49.2150
 0.9690	49.1770
 0.9700	49.1550
 0.9710	49.1360
 0.9720	49.0890
 0.9730	49.0380
 0.9740	49.0200
 0.9750	49.0040
 0.9760	48.9790
 0.9770	48.9550
 0.9780	48.9500
 0.9790	48.9600
 0.9800	48.9760
 0.9810	48.9940
 0.9820	49.0120
 0.9830	49.0190
 0.9840	49.0550
 0.9850	49.0960
 0.9860	49.1000
 0.9870	49.1210
 0.9880	49.1630
 0.9890	49.2120
 0.9900	49.2540
 0.9910	49.3460
 0.9920	49.3850
 0.9930	49.4230
 0.9940	49.4610
 0.9950	49.5000
 0.9960	49.5380
 0.9970	49.5760
 0.9980	49.6140
 0.9990	49.6530
 1.0000	49.6910
 1.0010	49.7290
 1.0020	49.7680
 1.0030	49.8060
 1.0040	49.8440
 1.0050	49.8830
 1.0060	49.9210
 1.0070	49.9590
 1.0080	49.9970
 1.0090	50.0360
 1.0100	50.0360
 1.0110	50.1050
 1.0120	50.1800
 1.0130	50.2540
 1.0140	50.3280
 1.0150	50.4030
 1.0160	50.4830
 1.0170	50.5540
 1.0180	50.6210
 1.0190	50.6960
 1.0200	50.7710
 1.0210	50.8410
 1.0220	50.9150
 1.0230	50.9870
 1.0240	51.0540
 1.0250	51.1250
 1.0260	51.2020
 1.0270	51.2710
 1.0280	51.3360
 1.0290	51.3990
 1.0300	51.4560
 1.0310	51.5180
 1.0320	51.5790
 1.0330	51.6440
 1.0340	51.7130
 1.0350	51.7730
 1.0360	51.8280
 1.0370	51.8860
 1.0380	51.9430
 1.0390	51.9990
 1.0400	52.0550
 1.0410	52.1140
 1.0420	52.1660
 1.0430	52.2130
 1.0440	52.2620
 1.0450	52.3080
 1.0460	52.3560
 1.0470	52.4060
 1.0480	52.4530
 1.0490	52.5000
 1.0500	52.5440
 1.0510	52.5840
 1.0520	52.6250
 1.0530	52.6640
 1.0540	52.7000
 1.0550	52.7390
 1.0560	52.7820
 1.0570	52.8180
 1.0580	52.8500
 1.0590	52.8840
 1.0600	52.9140
 1.0610	52.9460
 1.0620	52.9810
 1.0630	53.0140
 1.0640	53.0480
 1.0650	53.0780
 1.0660	53.1060
 1.0670	53.1310
 1.0680	53.1550
 1.0690	53.1720
 1.0700	53.1920
 1.0710	53.2120
 1.0720	53.2320
 1.0730	53.2520
 1.0740	53.2690
 1.0750	53.2870
 1.0760	53.3010
 1.0770	53.3090
 1.0780	53.3180
 1.0790	53.3260
 1.0800	53.3320
 1.0810	53.3410
 1.0820	53.3450
 1.0830	53.3460
 1.0840	53.3450
 1.0850	53.3410
 1.0860	53.3340
 1.0870	53.3290
 1.0880	53.3240
 1.0890	53.3170
 1.0900	53.3100
 1.0910	53.3010
 1.0920	53.2910
 1.0930	53.2760
 1.0940	53.2580
 1.0950	53.2410
 1.0960	53.2210
 1.0970	53.2000
 1.0980	53.1800
 1.0990	53.1570
 1.1000	53.1310
 1.1010	53.1040
 1.1020	53.0800
 1.1030	53.0520
 1.1040	53.0160
 1.1050	52.9810
 1.1060	52.9480
 1.1070	52.9140
 1.1080	52.8770
 1.1090	52.8420
 1.1100	52.8020
 1.1110	52.7560
 1.1120	52.7100
 1.1130	52.6680
 1.1140	52.6160
 1.1150	52.5590
 1.1160	52.4980
 1.1170	52.4320
 1.1180	52.3580
 1.1190	52.2800
 1.1200	52.1940
 1.1210	52.1000
 1.1220	51.9980
 1.1230	51.8880
 1.1240	51.7670
 1.1250	51.6330
 1.1260	51.4870
 1.1270	51.3270
 1.1280	51.1560
 1.1290	50.9690
 1.1300	50.7670
 1.1310	50.5510
 1.1320	50.3210
 1.1330	50.0760
 1.1340	49.8160
 1.1350	49.5430
 1.1360	49.2540
 1.1370	48.9500
 1.1380	48.6380
 1.1390	48.3150
 1.1400	47.9830
 1.1410	47.6530
 1.1420	47.3180
 1.1430	46.9820
 1.1440	46.6500
 1.1450	46.3150
 1.1460	45.9930
 1.1470	45.6720
 1.1480	45.3680
 1.1490	45.0690
 1.1500	44.7920
 1.1510	44.5250
 1.1520	44.2770
 1.1530	44.0470
 1.1540	43.8330
 1.1550	43.6330
 1.1560	43.4510
 1.1570	43.2870
 1.1580	43.1360
 1.1590	43.0010
 1.1600	42.8800
 1.1610	42.7690
 1.1620	42.6700
 1.1630	42.5810
 1.1640	42.5020
 1.1650	42.4310
 1.1660	42.3710
 1.1670	42.3130
 1.1680	42.2640
 1.1690	42.2150
 1.1700	42.1680
 1.1710	42.1250
 1.1720	42.0860
 1.1730	42.0460
 1.1740	42.0080
 1.1750	41.9700
 1.1760	41.9320
 1.1770	41.8890
 1.1780	41.8470
 1.1790	41.8050
 1.1800	41.7590
 1.1810	41.7140
 1.1820	41.6680
 1.1830	41.6210
 1.1840	41.5750
 1.1850	41.5270
 1.1860	41.4810
 1.1870	41.4390
 1.1880	41.4000
 1.1890	41.3630
 1.1900	41.3310
 1.1910	41.3010
 1.1920	41.2750
 1.1930	41.2510
 1.1940	41.2320
 1.1950	41.2150
 1.1960	41.2030
 1.1970	41.1970
 1.1980	41.1950
 1.1990	41.1980
 1.2000	41.2050
 1.2010	41.2160
 1.2020	41.2300
 1.2030	41.2490
 1.2040	41.2730
 1.2050	41.2980
 1.2060	41.3290
 1.2070	41.3650
 1.2080	41.4020
 1.2090	41.4470
 1.2100	41.4960
 1.2110	41.5470
 1.2120	41.6020
 1.2130	41.6600
 1.2140	41.7220
 1.2150	41.7870
 1.2160	41.8560
 1.2170	41.9290
 1.2180	42.0040
 1.2190	42.0810
 1.2200	42.1590
 1.2210	42.2400
 1.2220	42.3190
 1.2230	42.3990
 1.2240	42.4790
 1.2250	42.5590
 1.2260	42.6390
 1.2270	42.7170
 1.2280	42.7940
 1.2290	42.8680
 1.2300	42.9400
 1.2310	43.0100
 1.2320	43.0800
 1.2330	43.1480
 1.2340	43.2150
 1.2350	43.2820
 1.2360	43.3470
 1.2370	43.4110
 1.2380	43.4730
 1.2390	43.5340
 1.2400	43.5900
 1.2410	43.6440
 1.2420	43.6990
 1.2430	43.7530
 1.2440	43.8060
 1.2450	43.8570
 1.2460	43.9040
 1.2470	43.9490
 1.2480	43.9930
 1.2490	44.0360
 1.2500	44.0770
 1.2510	44.1150
 1.2520	44.1540
 1.2530	44.1900
 1.2540	44.2250
 1.2550	44.2600
 1.2560	44.2910
 1.2570	44.3210
 1.2580	44.3490
 1.2590	44.3740
 1.2600	44.3970
 1.2610	44.4180
 1.2620	44.4380
 1.2630	44.4570
 1.2640	44.4730
 1.2650	44.4840
 1.2660	44.4920
 1.2670	44.4970
 1.2680	44.5010
 1.2690	44.5070
 1.2700	44.5070
 1.2710	44.5030
 1.2720	44.5000
 1.2730	44.4920
 1.2740	44.4820
 1.2750	44.4700
 1.2760	44.4550
 1.2770	44.4410
 1.2780	44.4240
 1.2790	44.4050
 1.2800	44.3820
 1.2810	44.3540
 1.2820	44.3260
 1.2830	44.2970
 1.2840	44.2630
 1.2850	44.2280
 1.2860	44.1890
 1.2870	44.1460
 1.2880	44.1010
 1.2890	44.0540
 1.2900	44.0030
 1.2910	43.9460
 1.2920	43.8870
 1.2930	43.8230
 1.2940	43.7550
 1.2950	43.6840
 1.2960	43.6090
 1.2970	43.5330
 1.2980	43.4510
 1.2990	43.3610
 1.3000	43.2680
 1.3010	43.1690
 1.3020	43.0650
 1.3030	42.9560
 1.3040	42.8390
 1.3050	42.7170
 1.3060	42.5900
 1.3070	42.4580
 1.3080	42.3230
 1.3090	42.1830
 1.3100	42.0360
 1.3110	41.8820
 1.3120	41.7220
 1.3130	41.5570
 1.3140	41.3850
 1.3150	41.2090
 1.3160	41.0270
 1.3170	40.8420
 1.3180	40.6500
 1.3190	40.4530
 1.3200	40.2490
 1.3210	40.0380
 1.3220	39.8230
 1.3230	39.6050
 1.3240	39.3830
 1.3250	39.1580
 1.3260	38.9280
 1.3270	38.6930
 1.3280	38.4570
 1.3290	38.2190
 1.3300	37.9800
 1.3310	37.7390
 1.3320	37.4940
 1.3330	37.2490
 1.3340	37.0050
 1.3350	36.7620
 1.3360	36.5210
 1.3370	36.2800
 1.3380	36.0400
 1.3390	35.8010
 1.3400	35.5640
 1.3410	35.3320
 1.3420	35.1030
 1.3430	34.8770
 1.3440	34.6570
 1.3450	34.4400
 1.3460	34.2250
 1.3470	34.0150
 1.3480	33.8090
 1.3490	33.6070
 1.3500	33.4100
 1.3510	33.2160
 1.3520	33.0250
 1.3530	32.8350
 1.3540	32.6470
 1.3550	32.4610
 1.3560	32.2750
 1.3570	32.0890
 1.3580	31.9050
 1.3590	31.7170
 1.3600	31.5280
 1.3610	31.3370
 1.3620	31.1400
 1.3630	30.9390
 1.3640	30.7320
 1.3650	30.5180
 1.3660	30.2990
 1.3670	30.0710
 1.3680	29.8340
 1.3690	29.5870
 1.3700	29.3260
 1.3710	29.0550
 1.3720	28.7700
 1.3730	28.4680
 1.3740	28.1560
 1.3750	27.8280
 1.3760	27.4810
 1.3770	27.1170
 1.3780	26.7300
 1.3790	26.3240
 1.3800	25.9020
 1.3810	25.4600
 1.3820	25.0060
 1.3830	24.5380
 1.3840	24.0590
 1.3850	23.5650
 1.3860	23.0670
 1.3870	22.5560
 1.3880	22.0480
 1.3890	21.5350
 1.3900	21.0210
 1.3910	20.5150
 1.3920	20.0110
 1.3930	19.5120
 1.3940	19.0240
 1.3950	18.5400
 1.3960	18.0690
 1.3970	17.6150
 1.3980	17.1730
 1.3990	16.7520
 1.4000	16.3470
 1.4010	15.9570
 1.4020	15.5870
 1.4030	15.2310
 1.4040	14.8930
 1.4050	14.5740
 1.4060	14.2720
 1.4070	13.9890
 1.4080	13.7250
 1.4090	13.4760
 1.4100	13.2440
 1.4110	13.0260
 1.4120	12.8230
 1.4130	12.6350
 1.4140	12.4590
 1.4150	12.2980
 1.4160	12.1490
 1.4170	12.0110
 1.4180	11.8830
 1.4190	11.7650
 1.4200	11.6560
 1.4210	11.5550
 1.4220	11.4620
 1.4230	11.3780
 1.4240	11.3020
 1.4250	11.2300
 1.4260	11.1660
 1.4270	11.1060
 1.4280	11.0510
 1.4290	11.0010
 1.4300	10.9580
 1.4310	10.9180
 1.4320	10.8830
 1.4330	10.8520
 1.4340	10.8250
 1.4350	10.8010
 1.4360	10.7800
 1.4370	10.7640
 1.4380	10.7490
 1.4390	10.7370
 1.4400	10.7280
 1.4410	10.7210
 1.4420	10.7170
 1.4430	10.7150
 1.4440	10.7140
 1.4450	10.7150
 1.4460	10.7180
 1.4470	10.7220
 1.4480	10.7270
 1.4490	10.7330
 1.4500	10.7390
 1.4510	10.7470
 1.4520	10.7570
 1.4530	10.7680
 1.4540	10.7790
 1.4550	10.7910
 1.4560	10.8050
 1.4570	10.8210
 1.4580	10.8380
 1.4590	10.8570
 1.4600	10.8770
 1.4610	10.9000
 1.4620	10.9260
 1.4630	10.9530
 1.4640	10.9840
 1.4650	11.0170
 1.4660	11.0540
 1.4670	11.0940
 1.4680	11.1370
 1.4690	11.1810
 1.4700	11.2280
 1.4710	11.2780
 1.4720	11.3300
 1.4730	11.3850
 1.4740	11.4430
 1.4750	11.5020
 1.4760	11.5640
 1.4770	11.6280
 1.4780	11.6920
 1.4790	11.7600
 1.4800	11.8280
 1.4810	11.8970
 1.4820	11.9680
 1.4830	12.0400
 1.4840	12.1130
 1.4850	12.1880
 1.4860	12.2640
 1.4870	12.3420
 1.4880	12.4200
 1.4890	12.4970
 1.4900	12.5750
 1.4910	12.6530
 1.4920	12.7320
 1.4930	12.8110
 1.4940	12.8910
 1.4950	12.9730
 1.4960	13.0540
 1.4970	13.1360
 1.4980	13.2180
 1.4990	13.2990
 1.5000	13.3810
 1.5010	13.4640
 1.5020	13.5460
 1.5030	13.6290
 1.5040	13.7120
 1.5050	13.7940
 1.5060	13.8760
 1.5070	13.9600
 1.5080	14.0430
 1.5090	14.1250
 1.5100	14.2070
 1.5110	14.2880
 1.5120	14.3710
 1.5130	14.4520
 1.5140	14.5330
 1.5150	14.6150
 1.5160	14.6950
 1.5170	14.7750
 1.5180	14.8550
 1.5190	14.9340
 1.5200	15.0130
 1.5210	15.0910
 1.5220	15.1700
 1.5230	15.2480
 1.5240	15.3250
 1.5250	15.4020
 1.5260	15.4790
 1.5270	15.5530
 1.5280	15.6280
 1.5290	15.7020
 1.5300	15.7760
 1.5310	15.8500
 1.5320	15.9230
 1.5330	15.9960
 1.5340	16.0680
 1.5350	16.1390
 1.5360	16.2120
 1.5370	16.2840
 1.5380	16.3550
 1.5390	16.4250
 1.5400	16.4930
 1.5410	16.5600
 1.5420	16.6280
 1.5430	16.6960
 1.5440	16.7650
 1.5450	16.8330
 1.5460	16.9000
 1.5470	16.9680
 1.5480	17.0360
 1.5490	17.1010
 1.5500	17.1660
 1.5510	17.2310
 1.5520	17.2950
 1.5530	17.3600
 1.5540	17.4250
 1.5550	17.4900
 1.5560	17.5530
 1.5570	17.6160
 1.5580	17.6770
 1.5590	17.7390
 1.5600	17.8000
 1.5610	17.8600
 1.5620	17.9200
 1.5630	17.9810
 1.5640	18.0390
 1.5650	18.0980
 1.5660	18.1580
 1.5670	18.2160
 1.5680	18.2750
 1.5690	18.3340
 1.5700	18.3910
 1.5710	18.4490
 1.5720	18.5060
 1.5730	18.5650
 1.5740	18.6240
 1.5750	18.6830
 1.5760	18.7420
 1.5770	18.7990
 1.5780	18.8550
 1.5790	18.9120
 1.5800	18.9670
 1.5810	19.0240
 1.5820	19.0800
 1.5830	19.1350
 1.5840	19.1910
 1.5850	19.2470
 1.5860	19.3040
 1.5870	19.3600
 1.5880	19.4180
 1.5890	19.4760
 1.5900	19.5330
 1.5910	19.5910
 1.5920	19.6490
 1.5930	19.7060
 1.5940	19.7630
 1.5950	19.8200
 1.5960	19.8760
 1.5970	19.9320
 1.5980	19.9880
 1.5990	20.0440
 1.6000	20.1000
 1.6010	20.1570
 1.6020	20.2160
 1.6030	20.2730
 1.6040	20.3300
 1.6050	20.3870
 1.6060	20.4400
 1.6070	20.4940
 1.6080	20.5470
 1.6090	20.5990
 1.6100	20.6530
 1.6110	20.7030
 1.6120	20.7530
 1.6130	20.8030
 1.6140	20.8510
 1.6150	20.9000
 1.6160	20.9490
 1.6170	20.9960
 1.6180	21.0420
 1.6190	21.0880
 1.6200	21.1320
 1.6210	21.1760
 1.6220	21.2190
 1.6230	21.2600
 1.6240	21.3010
 1.6250	21.3400
 1.6260	21.3780
 1.6270	21.4160
 1.6280	21.4520
 1.6290	21.4880
 1.6300	21.5240
 1.6310	21.5600
 1.6320	21.5970
 1.6330	21.6330
 1.6340	21.6680
 1.6350	21.7030
 1.6360	21.7350
 1.6370	21.7670
 1.6380	21.8000
 1.6390	21.8290
 1.6400	21.8580
 1.6410	21.8850
 1.6420	21.9090
 1.6430	21.9300
 1.6440	21.9490
 1.6450	21.9650
 1.6460	21.9770
 1.6470	21.9870
 1.6480	21.9960
 1.6490	22.0010
 1.6500	22.0030
 1.6510	22.0020
 1.6520	22.0000
 1.6530	21.9970
 1.6540	21.9920
 1.6550	21.9840
 1.6560	21.9730
 1.6570	21.9610
 1.6580	21.9490
 1.6590	21.9380
 1.6600	21.9260
 1.6610	21.9150
 1.6620	21.9040
 1.6630	21.8940
 1.6640	21.8850
 1.6650	21.8760
 1.6660	21.8660
 1.6670	21.8580
 1.6680	21.8510
 1.6690	21.8460
 1.6700	21.8400
 1.6710	21.8340
 1.6720	21.8280
 1.6730	21.8220
 1.6740	21.8160
 1.6750	21.8090
 1.6760	21.8020
 1.6770	21.7930
 1.6780	21.7810
 1.6790	21.7680
 1.6800	21.7510
 1.6810	21.7310
 1.6820	21.7100
 1.6830	21.6850
 1.6840	21.6570
 1.6850	21.6250
 1.6860	21.5890
 1.6870	21.5510
 1.6880	21.5100
 1.6890	21.4690
 1.6900	21.4250
 1.6910	21.3770
 1.6920	21.3300
 1.6930	21.2820
 1.6940	21.2340
 1.6950	21.1890
 1.6960	21.1420
 1.6970	21.0930
 1.6980	21.0450
 1.6990	20.9950
 1.7000	20.9460
 1.7010	20.8980
 1.7020	20.8490
 1.7030	20.8020
 1.7040	20.7530
 1.7050	20.7030
 1.7060	20.6530
 1.7070	20.6020
 1.7080	20.5520
 1.7090	20.5030
 1.7100	20.4560
 1.7110	20.4090
 1.7120	20.3640
 1.7130	20.3200
 1.7140	20.2760
 1.7150	20.2330
 1.7160	20.1900
 1.7170	20.1490
 1.7180	20.1090
 1.7190	20.0690
 1.7200	20.0300
 1.7210	19.9930
 1.7220	19.9540
 1.7230	19.9160
 1.7240	19.8770
 1.7250	19.8380
 1.7260	19.8010
 1.7270	19.7650
 1.7280	19.7300
 1.7290	19.6970
 1.7300	19.6640
 1.7310	19.6330
 1.7320	19.6040
 1.7330	19.5750
 1.7340	19.5490
 1.7350	19.5200
 1.7360	19.4900
 1.7370	19.4580
 1.7380	19.4240
 1.7390	19.3890
 1.7400	19.3520
 1.7410	19.3130
 1.7420	19.2720
 1.7430	19.2290
 1.7440	19.1850
 1.7450	19.1400
 1.7460	19.0920
 1.7470	19.0450
 1.7480	18.9970
 1.7490	18.9480
 1.7500	18.8990
 1.7510	18.8520
 1.7520	18.8050
 1.7530	18.7580
 1.7540	18.7130
 1.7550	18.6670
 1.7560	18.6210
 1.7570	18.5790
 1.7580	18.5370
 1.7590	18.4980
 1.7600	18.4590
 1.7610	18.4210
 1.7620	18.3860
 1.7630	18.3500
 1.7640	18.3180
 1.7650	18.2910
 1.7660	18.2620
 1.7670	18.2340
 1.7680	18.2060
 1.7690	18.1750
 1.7700	18.1470
 1.7710	18.1180
 1.7720	18.0920
 1.7730	18.0670
 1.7740	18.0440
 1.7750	18.0230
 1.7760	18.0030
 1.7770	17.9840
 1.7780	17.9670
 1.7790	17.9490
 1.7800	17.9350
 1.7810	17.9240
 1.7820	17.9140
 1.7830	17.9080
 1.7840	17.9010
 1.7850	17.8950
 1.7860	17.8910
 1.7870	17.8880
 1.7880	17.8880
 1.7890	17.8880
 1.7900	17.8930
 1.7910	17.8960
 1.7920	17.9020
 1.7930	17.9080
 1.7940	17.9120
 1.7950	17.9190
 1.7960	17.9280
 1.7970	17.9360
 1.7980	17.9450
 1.7990	17.9540
 1.8000	17.9600
 1.8010	17.9680
 1.8020	17.9790
 1.8030	17.9890
 1.8040	18.0010
 1.8050	18.0110
 1.8060	18.0220
 1.8070	18.0320
 1.8080	18.0420
 1.8090	18.0510
 1.8100	18.0580
 1.8110	18.0640
 1.8120	18.0710
 1.8130	18.0780
 1.8140	18.0840
 1.8150	18.0920
 1.8160	18.0970
 1.8170	18.0990
 1.8180	18.1020
 1.8190	18.1080
 1.8200	18.1120
 1.8210	18.1170
 1.8220	18.1200
 1.8230	18.1220
 1.8240	18.1220
 1.8250	18.1180
 1.8260	18.1160
 1.8270	18.1070
 1.8280	18.0990
 1.8290	18.0900
 1.8300	18.0820
 1.8310	18.0730
 1.8320	18.0650
 1.8330	18.0560
 1.8340	18.0480
 1.8350	18.0480
 1.8360	18.0280
 1.8370	18.0060
 1.8380	17.9790
 1.8390	17.9440
 1.8400	17.9030
 1.8410	17.8600
 1.8420	17.8120
 1.8430	17.7560
 1.8440	17.7020
 1.8450	17.6460
 1.8460	17.5780
 1.8470	17.5080
 1.8480	17.4290
 1.8490	17.3370
 1.8500	17.2410
 1.8510	17.1380
 1.8520	17.0280
 1.8530	16.9080
 1.8540	16.7860
 1.8550	16.6530
 1.8560	16.5060
 1.8570	16.3520
 1.8580	16.1890
 1.8590	16.0160
 1.8600	15.8310
 1.8610	15.6420
 1.8620	15.4440
 1.8630	15.2330
 1.8640	15.0160
 1.8650	14.7870
 1.8660	14.5480
 1.8670	14.2960
 1.8680	14.0320
 1.8690	13.7580
 1.8700	13.4740
 1.8710	13.1770
 1.8720	12.8780
 1.8730	12.5760
 1.8740	12.2650
 1.8750	11.9520
 1.8760	11.6330
 1.8770	11.3130
 1.8780	10.9950
 1.8790	10.6780
 1.8800	10.3680
 1.8810	10.0620
 1.8820	 9.7550
 1.8830	 9.4530
 1.8840	 9.1590
 1.8850	 8.8660
 1.8860	 8.5840
 1.8870	 8.3100
 1.8880	 8.0440
 1.8890	 7.7890
 1.8900	 7.5440
 1.8910	 7.3140
 1.8920	 7.0950
 1.8930	 6.8900
 1.8940	 6.6980
 1.8950	 6.5190
 1.8960	 6.3490
 1.8970	 6.1900
 1.8980	 6.0440
 1.8990	 5.9070
 1.9000	 5.7830
 1.9010	 5.6750
 1.9020	 5.5720
 1.9030	 5.4800
 1.9040	 5.3970
 1.9050	 5.3170
 1.9060	 5.2460
 1.9070	 5.1830
 1.9080	 5.1270
 1.9090	 5.0770
 1.9100	 5.0330
 1.9110	 4.9920
 1.9120	 4.9540
 1.9130	 4.9220
 1.9140	 4.8950
 1.9150	 4.8700
 1.9160	 4.8490
 1.9170	 4.8310
 1.9180	 4.8130
 1.9190	 4.8000
 1.9200	 4.7860
 1.9210	 4.7780
 1.9220	 4.7700
 1.9230	 4.7620
 1.9240	 4.7570
 1.9250	 4.7570
 1.9260	 4.7540
 1.9270	 4.7540
 1.9280	 4.7570
 1.9290	 4.7590
 1.9300	 4.7630
 1.9310	 4.7680
 1.9320	 4.7710
 1.9330	 4.7770
 1.9340	 4.7820
 1.9350	 4.7900
 1.9360	 4.8000
 1.9370	 4.8100
 1.9380	 4.8220
 1.9390	 4.8340
 1.9400	 4.8480
 1.9410	 4.8630
 1.9420	 4.8780
 1.9430	 4.8940
 1.9440	 4.9100
 1.9450	 4.9280
 1.9460	 4.9460
 1.9470	 4.9670
 1.9480	 4.9860
 1.9490	 5.0060
 1.9500	 5.0260
 1.9510	 5.0480
 1.9520	 5.0680
 1.9530	 5.0880
 1.9540	 5.1110
 1.9550	 5.1340
 1.9560	 5.1570
 1.9570	 5.1810
 1.9580	 5.2060
 1.9590	 5.2310
 1.9600	 5.2550
 1.9610	 5.2800
 1.9620	 5.3040
 1.9630	 5.3310
 1.9640	 5.3590
 1.9650	 5.3870
 1.9660	 5.4170
 1.9670	 5.4470
 1.9680	 5.4760
 1.9690	 5.5040
 1.9700	 5.5340
 1.9710	 5.5640
 1.9720	 5.5950
 1.9730	 5.6270
 1.9740	 5.6580
 1.9750	 5.6910
 1.9760	 5.7250
 1.9770	 5.7590
 1.9780	 5.7940
 1.9790	 5.8280
 1.9800	 5.8620
 1.9810	 5.8950
 1.9820	 5.9270
 1.9830	 5.9610
 1.9840	 5.9940
 1.9850	 6.0290
 1.9860	 6.0640
 1.9870	 6.1010
 1.9880	 6.1390
 1.9890	 6.1760
 1.9900	 6.2120
 1.9910	 6.2490
 1.9920	 6.2860
 1.9930	 6.3230
 1.9940	 6.3600
 1.9950	 6.3980
 1.9960	 6.4350
 1.9970	 6.4720
 1.9980	 6.5090
 1.9990	 6.5480
 2.0000	 6.5860
 2.0010	 6.6220
 2.0020	 6.6600
 2.0030	 6.6980
 2.0040	 6.7350
 2.0050	 6.7710
 2.0060	 6.8090
 2.0070	 6.8440
 2.0080	 6.8770
 2.0090	 6.9120
 2.0100	 6.9480
 2.0110	 6.9830
 2.0120	 7.0170
 2.0130	 7.0530
 2.0140	 7.0880
 2.0150	 7.1230
 2.0160	 7.1570
 2.0170	 7.1920
 2.0180	 7.2270
 2.0190	 7.2620
 2.0200	 7.2950
 2.0210	 7.3280
 2.0220	 7.3590
 2.0230	 7.3850
 2.0240	 7.4140
 2.0250	 7.4430
 2.0260	 7.4720
 2.0270	 7.5010
 2.0280	 7.5310
 2.0290	 7.5590
 2.0300	 7.5880
 2.0310	 7.6150
 2.0320	 7.6410
 2.0330	 7.6670
 2.0340	 7.6930
 2.0350	 7.7160
 2.0360	 7.7380
 2.0370	 7.7610
 2.0380	 7.7820
 2.0390	 7.8040
 2.0400	 7.8290
 2.0410	 7.8500
 2.0420	 7.8700
 2.0430	 7.8850
 2.0440	 7.9020
 2.0450	 7.9180
 2.0460	 7.9340
 2.0470	 7.9510
 2.0480	 7.9680
 2.0490	 7.9840
 2.0500	 8.0000
 2.0510	 8.0180
 2.0520	 8.0350
 2.0530	 8.0520
 2.0540	 8.0690
 2.0550	 8.0840
 2.0560	 8.1000
 2.0570	 8.1150
 2.0580	 8.1310
 2.0590	 8.1460
 2.0600	 8.1580
 2.0610	 8.1750
 2.0620	 8.1920
 2.0630	 8.2080
 2.0640	 8.2260
 2.0650	 8.2420
 2.0660	 8.2540
 2.0670	 8.2680
 2.0680	 8.2830
 2.0690	 8.2970
 2.0700	 8.3110
 2.0710	 8.3250
 2.0720	 8.3380
 2.0730	 8.3530
 2.0740	 8.3670
 2.0750	 8.3800
 2.0760	 8.3950
 2.0770	 8.4100
 2.0780	 8.4250
 2.0790	 8.4400
 2.0800	 8.4530
 2.0810	 8.4640
 2.0820	 8.4760
 2.0830	 8.4880
 2.0840	 8.5020
 2.0850	 8.5200
 2.0860	 8.5370
 2.0870	 8.5540
 2.0880	 8.5700
 2.0890	 8.5840
 2.0900	 8.5960
 2.0910	 8.6090
 2.0920	 8.6210
 2.0930	 8.6370
 2.0940	 8.6560
 2.0950	 8.6730
 2.0960	 8.6910
 2.0970	 8.7080
 2.0980	 8.7230
 2.0990	 8.7380
 2.1000	 8.7540
 2.1010	 8.7700
 2.1020	 8.7840
 2.1030	 8.7990
 2.1040	 8.8140
 2.1050	 8.8310
 2.1060	 8.8450
 2.1070	 8.8600
 2.1080	 8.8760
 2.1090	 8.8910
 2.1100	 8.9080
 2.1110	 8.9270
 2.1120	 8.9450
 2.1130	 8.9610
 2.1140	 8.9780
 2.1150	 8.9950
 2.1160	 9.0130
 2.1170	 9.0330
 2.1180	 9.0510
 2.1190	 9.0670
 2.1200	 9.0850
 2.1210	 9.0990
 2.1220	 9.1180
 2.1230	 9.1360
 2.1240	 9.1560
 2.1250	 9.1740
 2.1260	 9.1900
 2.1270	 9.2070
 2.1280	 9.2240
 2.1290	 9.2400
 2.1300	 9.2570
 2.1310	 9.2730
 2.1320	 9.2890
 2.1330	 9.3050
 2.1340	 9.3220
 2.1350	 9.3380
 2.1360	 9.3540
 2.1370	 9.3700
 2.1380	 9.3850
 2.1390	 9.4020
 2.1400	 9.4200
 2.1410	 9.4370
 2.1420	 9.4560
 2.1430	 9.4770
 2.1440	 9.4940
 2.1450	 9.5100
 2.1460	 9.5290
 2.1470	 9.5460
 2.1480	 9.5650
 2.1490	 9.5880
 2.1500	 9.6100
 2.1510	 9.6340
 2.1520	 9.6550
 2.1530	 9.6760
 2.1540	 9.6960
 2.1550	 9.7110
 2.1560	 9.7290
 2.1570	 9.7480
 2.1580	 9.7680
 2.1590	 9.7880
 2.1600	 9.8080
 2.1610	 9.8290
 2.1620	 9.8480
 2.1630	 9.8660
 2.1640	 9.8830
 2.1650	 9.9010
 2.1660	 9.9180
 2.1670	 9.9370
 2.1680	 9.9570
 2.1690	 9.9750
 2.1700	 9.9910
 2.1710	10.0110
 2.1720	10.0320
 2.1730	10.0530
 2.1740	10.0780
 2.1750	10.0990
 2.1760	10.1170
 2.1770	10.1360
 2.1780	10.1580
 2.1790	10.1770
 2.1800	10.1930
 2.1810	10.2100
 2.1820	10.2240
 2.1830	10.2370
 2.1840	10.2530
 2.1850	10.2700
 2.1860	10.2880
 2.1870	10.3070
 2.1880	10.3250
 2.1890	10.3450
 2.1900	10.3640
 2.1910	10.3820
 2.1920	10.4020
 2.1930	10.4240
 2.1940	10.4410
 2.1950	10.4570
 2.1960	10.4730
 2.1970	10.4850
 2.1980	10.4990
 2.1990	10.5120
 2.2000	10.5270
 2.2010	10.5470
 2.2020	10.5620
 2.2030	10.5780
 2.2040	10.5920
 2.2050	10.6020
 2.2060	10.6100
 2.2070	10.6200
 2.2080	10.6290
 2.2090	10.6410
 2.2100	10.6570
 2.2110	10.6690
 2.2120	10.6840
 2.2130	10.6930
 2.2140	10.6960
 2.2150	10.7030
 2.2160	10.7090
 2.2170	10.7150
 2.2180	10.7220
 2.2190	10.7230
 2.2200	10.7190
 2.2210	10.7160
 2.2220	10.7100
 2.2230	10.7050
 2.2240	10.7060
 2.2250	10.7000
 2.2260	10.6930
 2.2270	10.6830
 2.2280	10.6690
 2.2290	10.6540
 2.2300	10.6360
 2.2310	10.6150
 2.2320	10.5940
 2.2330	10.5730
 2.2340	10.5500
 2.2350	10.5280
 2.2360	10.5020
 2.2370	10.4740
 2.2380	10.4440
 2.2390	10.4120
 2.2400	10.3800
 2.2410	10.3460
 2.2420	10.3110
 2.2430	10.2740
 2.2440	10.2360
 2.2450	10.1950
 2.2460	10.1540
 2.2470	10.1140
 2.2480	10.0710
 2.2490	10.0270
 2.2500	 9.9790
 2.2510	 9.9250
 2.2520	 9.8720
 2.2530	 9.8150
 2.2540	 9.7630
 2.2550	 9.7140
 2.2560	 9.6640
 2.2570	 9.6160
 2.2580	 9.5660
 2.2590	 9.5100
 2.2600	 9.4590
 2.2610	 9.4090
 2.2620	 9.3580
 2.2630	 9.3120
 2.2640	 9.2670
 2.2650	 9.2230
 2.2660	 9.1810
 2.2670	 9.1390
 2.2680	 9.0980
 2.2690	 9.0600
 2.2700	 9.0230
 2.2710	 8.9910
 2.2720	 8.9640
 2.2730	 8.9370
 2.2740	 8.9150
 2.2750	 8.8880
 2.2760	 8.8580
 2.2770	 8.8330
 2.2780	 8.8050
 2.2790	 8.7850
 2.2800	 8.7710
 2.2810	 8.7550
 2.2820	 8.7420
 2.2830	 8.7230
 2.2840	 8.7030
 2.2850	 8.6810
 2.2860	 8.6530
 2.2870	 8.6310
 2.2880	 8.6090
 2.2890	 8.5890
 2.2900	 8.5750
 2.2910	 8.5570
 2.2920	 8.5400
 2.2930	 8.5160
 2.2940	 8.4860
 2.2950	 8.4560
 2.2960	 8.4210
 2.2970	 8.3900
 2.2980	 8.3620
 2.2990	 8.3340
 2.3000	 8.3080
 2.3010	 8.2810
 2.3020	 8.2480
 2.3030	 8.2140
 2.3040	 8.1840
 2.3050	 8.1560
 2.3060	 8.1340
 2.3070	 8.1170
 2.3080	 8.0950
 2.3090	 8.0740
 2.3100	 8.0580
 2.3110	 8.0450
 2.3120	 8.0300
 2.3130	 8.0160
 2.3140	 8.0050
 2.3150	 7.9920
 2.3160	 7.9830
 2.3170	 7.9800
 2.3180	 7.9770
 2.3190	 7.9750
 2.3200	 7.9700
 2.3210	 7.9680
 2.3220	 7.9600
 2.3230	 7.9500
 2.3240	 7.9350
 2.3250	 7.9160
 2.3260	 7.9000
 2.3270	 7.8790
 2.3280	 7.8630
 2.3290	 7.8530
 2.3300	 7.8370
 2.3310	 7.8200
 2.3320	 7.8020
 2.3330	 7.7840
 2.3340	 7.7640
 2.3350	 7.7440
 2.3360	 7.7220
 2.3370	 7.6970
 2.3380	 7.6730
 2.3390	 7.6480
 2.3400	 7.6270
 2.3410	 7.6080
 2.3420	 7.5890
 2.3430	 7.5720
 2.3440	 7.5540
 2.3450	 7.5350
 2.3460	 7.5200
 2.3470	 7.5080
 2.3480	 7.4970
 2.3490	 7.4930
 2.3500	 7.4770
 2.3510	 7.4530
 2.3520	 7.4340
 2.3530	 7.4100
 2.3540	 7.3880
 2.3550	 7.3800
 2.3560	 7.3740
 2.3570	 7.3660
 2.3580	 7.3630
 2.3590	 7.3530
 2.3600	 7.3430
 2.3610	 7.3310
 2.3620	 7.3150
 2.3630	 7.3000
 2.3640	 7.2800
 2.3650	 7.2630
 2.3660	 7.2460
 2.3670	 7.2270
 2.3680	 7.2140
 2.3690	 7.1960
 2.3700	 7.1750
 2.3710	 7.1630
 2.3720	 7.1440
 2.3730	 7.1270
 2.3740	 7.1110
 2.3750	 7.0880
 2.3760	 7.0700
 2.3770	 7.0540
 2.3780	 7.0430
 2.3790	 7.0280
 2.3800	 7.0150
 2.3810	 6.9960
 2.3820	 6.9660
 2.3830	 6.9400
 2.3840	 6.9150
 2.3850	 6.8940
 2.3860	 6.8790
 2.3870	 6.8700
 2.3880	 6.8540
 2.3890	 6.8350
 2.3900	 6.8170
 2.3910	 6.7990
 2.3920	 6.7810
 2.3930	 6.7650
 2.3940	 6.7510
 2.3950	 6.7310
 2.3960	 6.7090
 2.3970	 6.6870
 2.3980	 6.6720
 2.3990	 6.6590
 2.4000	 6.6360
 2.4010	 6.6210
 2.4020	 6.5990
 2.4030	 6.5780
 2.4040	 6.5630
 2.4050	 6.5390
 2.4060	 6.5220
 2.4070	 6.5020
 2.4080	 6.4780
 2.4090	 6.4640
 2.4100	 6.4460
 2.4110	 6.4240
 2.4120	 6.4040
 2.4130	 6.3800
 2.4140	 6.3560
 2.4150	 6.3340
 2.4160	 6.3030
 2.4170	 6.2710
 2.4180	 6.2580
 2.4190	 6.2330
 2.4200	 6.2070
 2.4210	 6.1850
 2.4220	 6.1460
 2.4230	 6.1110
 2.4240	 6.0820
 2.4250	 6.0650
 2.4260	 6.0450
 2.4270	 6.0150
 2.4280	 5.9970
 2.4290	 5.9760
 2.4300	 5.9450
 2.4310	 5.9220
 2.4320	 5.8990
 2.4330	 5.8800
 2.4340	 5.8750
 2.4350	 5.8770
 2.4360	 5.8690
 2.4370	 5.8410
 2.4380	 5.8000
 2.4390	 5.7600
 2.4400	 5.7370
 2.4410	 5.7070
 2.4420	 5.6750
 2.4430	 5.6530
 2.4440	 5.6230
 2.4450	 5.6030
 2.4460	 5.5910
 2.4470	 5.5680
 2.4480	 5.5510
 2.4490	 5.5350
 2.4500	 5.5180
 2.4510	 5.5160
 2.4520	 5.4880
 2.4530	 5.4550
 2.4540	 5.4470
 2.4550	 5.4180
 2.4560	 5.3950
 2.4570	 5.3910
 2.4580	 5.3770
 2.4590	 5.3690
 2.4600	 5.3650
 2.4610	 5.3570
 2.4620	 5.3410
 2.4630	 5.3220
 2.4640	 5.2990
 2.4650	 5.2800
 2.4660	 5.2810
 2.4670	 5.2730
 2.4680	 5.2480
 2.4690	 5.1940
 2.4700	 5.1530
 2.4710	 5.0940
 2.4720	 5.0700
 2.4730	 5.0870
 2.4740	 5.0830
 2.4750	 5.0870
 2.4760	 5.0850
 2.4770	 5.0760
 2.4780	 5.0580
 2.4790	 5.0460
 2.4800	 5.0320
 2.4810	 4.9950
 2.4820	 4.9890
 2.4830	 4.9830
 2.4840	 4.9770
 2.4850	 4.9530
 2.4860	 4.9340
 2.4870	 4.9220
 2.4880	 4.9200
 2.4890	 4.9320
 2.4900	 4.9270
 2.4910	 4.9190
 2.4920	 4.8580
 2.4930	 4.8280
 2.4940	 4.8750
 2.4950	 4.8990
 2.4960	 4.9620
 2.4970	 5.0420
 2.4980	 5.0080
 2.4990	 4.9460
 2.5000	 4.9510
