Name: Acacia visco
Type: vegetation
Class: Tree
Genus: Acacia
Species: visco
Sample No.: JPL159
Owner: JPL
Wavelength Range: VSWIR
Origin: 34.1258; -118.11388; WGS84
Collection Date: 9/14/2016
Description: Samples were collected at the Huntington Garden in San Marino California as part of a JPL Subcontract studying HyTES imagery. Samples were taken to JPL and processed within 48 hours of collection. The same leaves were processed in the Nicolet and then measured using the ASD.
Measurement: Bidirectional reflectance
First Column: X
Second Column: Y
X Units: Wavelength (micrometer)
Y Units: Reflectance (percentage)
First X Value: 0.35
Last X Value: 2.5
Number of X Values: 2151
Additional Information: vegetation.tree.acacia.visco.vswir.jpl159.jpl.asd.ancillary.txt

 0.3500	 3.5490
 0.3510	 3.6640
 0.3520	 3.6840
 0.3530	 3.7120
 0.3540	 3.7950
 0.3550	 3.5430
 0.3560	 3.4740
 0.3570	 3.5740
 0.3580	 3.5680
 0.3590	 3.5350
 0.3600	 3.4900
 0.3610	 3.4610
 0.3620	 3.5090
 0.3630	 3.5270
 0.3640	 3.4980
 0.3650	 3.4470
 0.3660	 3.4640
 0.3670	 3.4550
 0.3680	 3.4110
 0.3690	 3.3830
 0.3700	 3.3760
 0.3710	 3.4080
 0.3720	 3.4360
 0.3730	 3.2840
 0.3740	 3.3030
 0.3750	 3.3920
 0.3760	 3.3640
 0.3770	 3.3900
 0.3780	 3.3500
 0.3790	 3.2590
 0.3800	 3.2460
 0.3810	 3.2490
 0.3820	 3.2660
 0.3830	 3.2890
 0.3840	 3.2870
 0.3850	 3.2770
 0.3860	 3.2650
 0.3870	 3.2580
 0.3880	 3.2750
 0.3890	 3.2810
 0.3900	 3.2590
 0.3910	 3.2240
 0.3920	 3.2160
 0.3930	 3.2160
 0.3940	 3.2030
 0.3950	 3.1730
 0.3960	 3.1930
 0.3970	 3.2390
 0.3980	 3.2450
 0.3990	 3.2120
 0.4000	 3.1960
 0.4010	 3.2080
 0.4020	 3.1870
 0.4030	 3.1850
 0.4040	 3.1920
 0.4050	 3.1920
 0.4060	 3.1830
 0.4070	 3.2040
 0.4080	 3.2340
 0.4090	 3.2200
 0.4100	 3.2110
 0.4110	 3.2130
 0.4120	 3.2220
 0.4130	 3.2280
 0.4140	 3.2280
 0.4150	 3.2340
 0.4160	 3.2580
 0.4170	 3.2970
 0.4180	 3.3210
 0.4190	 3.3300
 0.4200	 3.3550
 0.4210	 3.3800
 0.4220	 3.4130
 0.4230	 3.4560
 0.4240	 3.4950
 0.4250	 3.5200
 0.4260	 3.5410
 0.4270	 3.5750
 0.4280	 3.6120
 0.4290	 3.6460
 0.4300	 3.6770
 0.4310	 3.7110
 0.4320	 3.7530
 0.4330	 3.7920
 0.4340	 3.8210
 0.4350	 3.8480
 0.4360	 3.8850
 0.4370	 3.9250
 0.4380	 3.9450
 0.4390	 3.9650
 0.4400	 3.9910
 0.4410	 4.0180
 0.4420	 4.0380
 0.4430	 4.0560
 0.4440	 4.0730
 0.4450	 4.0920
 0.4460	 4.1290
 0.4470	 4.1580
 0.4480	 4.1730
 0.4490	 4.1880
 0.4500	 4.2040
 0.4510	 4.2270
 0.4520	 4.2560
 0.4530	 4.2650
 0.4540	 4.2710
 0.4550	 4.2830
 0.4560	 4.2980
 0.4570	 4.3050
 0.4580	 4.3040
 0.4590	 4.3030
 0.4600	 4.3130
 0.4610	 4.3220
 0.4620	 4.3230
 0.4630	 4.3160
 0.4640	 4.3220
 0.4650	 4.3260
 0.4660	 4.3210
 0.4670	 4.3130
 0.4680	 4.3240
 0.4690	 4.3310
 0.4700	 4.3160
 0.4710	 4.3110
 0.4720	 4.3100
 0.4730	 4.3110
 0.4740	 4.3140
 0.4750	 4.3050
 0.4760	 4.2950
 0.4770	 4.2940
 0.4780	 4.3040
 0.4790	 4.3060
 0.4800	 4.3070
 0.4810	 4.3150
 0.4820	 4.3110
 0.4830	 4.3080
 0.4840	 4.3130
 0.4850	 4.3240
 0.4860	 4.3350
 0.4870	 4.3410
 0.4880	 4.3430
 0.4890	 4.3480
 0.4900	 4.3580
 0.4910	 4.3720
 0.4920	 4.3860
 0.4930	 4.3970
 0.4940	 4.4120
 0.4950	 4.4330
 0.4960	 4.4500
 0.4970	 4.4780
 0.4980	 4.5120
 0.4990	 4.5450
 0.5000	 4.5820
 0.5010	 4.6210
 0.5020	 4.6630
 0.5030	 4.7120
 0.5040	 4.7630
 0.5050	 4.8250
 0.5060	 4.8990
 0.5070	 4.9720
 0.5080	 5.0500
 0.5090	 5.1380
 0.5100	 5.2350
 0.5110	 5.3330
 0.5120	 5.4410
 0.5130	 5.5610
 0.5140	 5.6870
 0.5150	 5.8190
 0.5160	 5.9580
 0.5170	 6.1030
 0.5180	 6.2550
 0.5190	 6.4170
 0.5200	 6.5840
 0.5210	 6.7510
 0.5220	 6.9240
 0.5230	 7.0970
 0.5240	 7.2680
 0.5250	 7.4340
 0.5260	 7.5940
 0.5270	 7.7460
 0.5280	 7.8880
 0.5290	 8.0290
 0.5300	 8.1570
 0.5310	 8.2710
 0.5320	 8.3780
 0.5330	 8.4780
 0.5340	 8.5690
 0.5350	 8.6490
 0.5360	 8.7230
 0.5370	 8.7880
 0.5380	 8.8470
 0.5390	 8.9100
 0.5400	 8.9800
 0.5410	 9.0570
 0.5420	 9.1340
 0.5430	 9.1990
 0.5440	 9.2400
 0.5450	 9.2590
 0.5460	 9.2630
 0.5470	 9.2510
 0.5480	 9.2420
 0.5490	 9.2450
 0.5500	 9.2530
 0.5510	 9.2550
 0.5520	 9.2480
 0.5530	 9.2290
 0.5540	 9.2010
 0.5550	 9.1630
 0.5560	 9.1130
 0.5570	 9.0520
 0.5580	 8.9870
 0.5590	 8.9150
 0.5600	 8.8360
 0.5610	 8.7520
 0.5620	 8.6620
 0.5630	 8.5690
 0.5640	 8.4730
 0.5650	 8.3750
 0.5660	 8.2730
 0.5670	 8.1660
 0.5680	 8.0570
 0.5690	 7.9470
 0.5700	 7.8360
 0.5710	 7.7220
 0.5720	 7.6100
 0.5730	 7.5020
 0.5740	 7.4000
 0.5750	 7.3000
 0.5760	 7.2110
 0.5770	 7.1310
 0.5780	 7.0570
 0.5790	 6.9820
 0.5800	 6.9120
 0.5810	 6.8480
 0.5820	 6.7910
 0.5830	 6.7350
 0.5840	 6.6790
 0.5850	 6.6250
 0.5860	 6.5750
 0.5870	 6.5320
 0.5880	 6.4910
 0.5890	 6.4470
 0.5900	 6.4050
 0.5910	 6.3710
 0.5920	 6.3420
 0.5930	 6.3100
 0.5940	 6.2830
 0.5950	 6.2600
 0.5960	 6.2400
 0.5970	 6.2200
 0.5980	 6.2010
 0.5990	 6.1800
 0.6000	 6.1590
 0.6010	 6.1320
 0.6020	 6.1000
 0.6030	 6.0660
 0.6040	 6.0290
 0.6050	 5.9860
 0.6060	 5.9390
 0.6070	 5.8900
 0.6080	 5.8360
 0.6090	 5.7890
 0.6100	 5.7530
 0.6110	 5.7240
 0.6120	 5.6670
 0.6130	 5.5920
 0.6140	 5.5130
 0.6150	 5.4480
 0.6160	 5.3890
 0.6170	 5.3340
 0.6180	 5.2860
 0.6190	 5.2440
 0.6200	 5.2070
 0.6210	 5.1740
 0.6220	 5.1400
 0.6230	 5.1120
 0.6240	 5.0860
 0.6250	 5.0620
 0.6260	 5.0440
 0.6270	 5.0310
 0.6280	 5.0200
 0.6290	 5.0110
 0.6300	 5.0040
 0.6310	 4.9950
 0.6320	 4.9810
 0.6330	 4.9650
 0.6340	 4.9470
 0.6350	 4.9270
 0.6360	 4.9010
 0.6370	 4.8700
 0.6380	 4.8350
 0.6390	 4.7950
 0.6400	 4.7510
 0.6410	 4.7080
 0.6420	 4.6630
 0.6430	 4.6140
 0.6440	 4.5610
 0.6450	 4.5110
 0.6460	 4.4610
 0.6470	 4.4100
 0.6480	 4.3660
 0.6490	 4.3260
 0.6500	 4.2890
 0.6510	 4.2570
 0.6520	 4.2250
 0.6530	 4.1940
 0.6540	 4.1680
 0.6550	 4.1380
 0.6560	 4.1040
 0.6570	 4.0670
 0.6580	 4.0270
 0.6590	 3.9850
 0.6600	 3.9410
 0.6610	 3.8960
 0.6620	 3.8530
 0.6630	 3.8110
 0.6640	 3.7710
 0.6650	 3.7340
 0.6660	 3.7040
 0.6670	 3.6760
 0.6680	 3.6520
 0.6690	 3.6360
 0.6700	 3.6240
 0.6710	 3.6170
 0.6720	 3.6140
 0.6730	 3.6130
 0.6740	 3.6170
 0.6750	 3.6250
 0.6760	 3.6340
 0.6770	 3.6500
 0.6780	 3.6680
 0.6790	 3.6880
 0.6800	 3.7150
 0.6810	 3.7480
 0.6820	 3.7850
 0.6830	 3.8290
 0.6840	 3.8820
 0.6850	 3.9480
 0.6860	 4.0250
 0.6870	 4.1140
 0.6880	 4.2200
 0.6890	 4.3480
 0.6900	 4.5040
 0.6910	 4.6890
 0.6920	 4.9090
 0.6930	 5.1680
 0.6940	 5.4670
 0.6950	 5.8070
 0.6960	 6.1920
 0.6970	 6.6220
 0.6980	 7.0930
 0.6990	 7.6010
 0.7000	 8.1490
 0.7010	 8.7290
 0.7020	 9.3270
 0.7030	 9.9510
 0.7040	10.5950
 0.7050	11.2520
 0.7060	11.9230
 0.7070	12.6020
 0.7080	13.2860
 0.7090	13.9740
 0.7100	14.6720
 0.7110	15.3770
 0.7120	16.0850
 0.7130	16.7940
 0.7140	17.5010
 0.7150	18.2100
 0.7160	18.9200
 0.7170	19.6260
 0.7180	20.3310
 0.7190	21.0300
 0.7200	21.7160
 0.7210	22.3970
 0.7220	23.0650
 0.7230	23.7140
 0.7240	24.3470
 0.7250	24.9630
 0.7260	25.5580
 0.7270	26.1310
 0.7280	26.6830
 0.7290	27.2100
 0.7300	27.7140
 0.7310	28.1930
 0.7320	28.6470
 0.7330	29.0800
 0.7340	29.4890
 0.7350	29.8720
 0.7360	30.2330
 0.7370	30.5730
 0.7380	30.8910
 0.7390	31.1880
 0.7400	31.4650
 0.7410	31.7230
 0.7420	31.9630
 0.7430	32.1840
 0.7440	32.3880
 0.7450	32.5750
 0.7460	32.7460
 0.7470	32.9010
 0.7480	33.0450
 0.7490	33.1780
 0.7500	33.3000
 0.7510	33.4070
 0.7520	33.5030
 0.7530	33.5930
 0.7540	33.6770
 0.7550	33.7530
 0.7560	33.8200
 0.7570	33.8790
 0.7580	33.9360
 0.7590	33.9890
 0.7600	34.0350
 0.7610	34.0750
 0.7620	34.1120
 0.7630	34.1440
 0.7640	34.1720
 0.7650	34.2020
 0.7660	34.2250
 0.7670	34.2440
 0.7680	34.2680
 0.7690	34.2860
 0.7700	34.3030
 0.7710	34.3200
 0.7720	34.3320
 0.7730	34.3440
 0.7740	34.3540
 0.7750	34.3630
 0.7760	34.3710
 0.7770	34.3790
 0.7780	34.3880
 0.7790	34.3970
 0.7800	34.4070
 0.7810	34.4130
 0.7820	34.4170
 0.7830	34.4220
 0.7840	34.4260
 0.7850	34.4300
 0.7860	34.4330
 0.7870	34.4330
 0.7880	34.4350
 0.7890	34.4370
 0.7900	34.4390
 0.7910	34.4380
 0.7920	34.4360
 0.7930	34.4360
 0.7940	34.4330
 0.7950	34.4310
 0.7960	34.4280
 0.7970	34.4240
 0.7980	34.4170
 0.7990	34.4130
 0.8000	34.4090
 0.8010	34.4020
 0.8020	34.3960
 0.8030	34.3890
 0.8040	34.3810
 0.8050	34.3730
 0.8060	34.3630
 0.8070	34.3510
 0.8080	34.3430
 0.8090	34.3390
 0.8100	34.3290
 0.8110	34.3160
 0.8120	34.3040
 0.8130	34.2920
 0.8140	34.2810
 0.8150	34.2690
 0.8160	34.2560
 0.8170	34.2430
 0.8180	34.2320
 0.8190	34.2220
 0.8200	34.2110
 0.8210	34.1970
 0.8220	34.1860
 0.8230	34.1750
 0.8240	34.1600
 0.8250	34.1480
 0.8260	34.1370
 0.8270	34.1250
 0.8280	34.1140
 0.8290	34.1030
 0.8300	34.0890
 0.8310	34.0710
 0.8320	34.0600
 0.8330	34.0520
 0.8340	34.0450
 0.8350	34.0360
 0.8360	34.0250
 0.8370	34.0150
 0.8380	34.0070
 0.8390	33.9980
 0.8400	33.9910
 0.8410	33.9860
 0.8420	33.9810
 0.8430	33.9750
 0.8440	33.9680
 0.8450	33.9610
 0.8460	33.9550
 0.8470	33.9510
 0.8480	33.9460
 0.8490	33.9420
 0.8500	33.9410
 0.8510	33.9410
 0.8520	33.9390
 0.8530	33.9340
 0.8540	33.9270
 0.8550	33.9300
 0.8560	33.9330
 0.8570	33.9330
 0.8580	33.9320
 0.8590	33.9360
 0.8600	33.9380
 0.8610	33.9330
 0.8620	33.9350
 0.8630	33.9390
 0.8640	33.9440
 0.8650	33.9470
 0.8660	33.9500
 0.8670	33.9550
 0.8680	33.9610
 0.8690	33.9660
 0.8700	33.9680
 0.8710	33.9730
 0.8720	33.9800
 0.8730	33.9850
 0.8740	33.9950
 0.8750	34.0020
 0.8760	34.0050
 0.8770	34.0120
 0.8780	34.0180
 0.8790	34.0240
 0.8800	34.0310
 0.8810	34.0390
 0.8820	34.0480
 0.8830	34.0560
 0.8840	34.0660
 0.8850	34.0770
 0.8860	34.0830
 0.8870	34.0880
 0.8880	34.0990
 0.8890	34.1070
 0.8900	34.1110
 0.8910	34.1150
 0.8920	34.1260
 0.8930	34.1360
 0.8940	34.1410
 0.8950	34.1470
 0.8960	34.1590
 0.8970	34.1670
 0.8980	34.1730
 0.8990	34.1790
 0.9000	34.1820
 0.9010	34.1890
 0.9020	34.1950
 0.9030	34.1990
 0.9040	34.2070
 0.9050	34.2150
 0.9060	34.2210
 0.9070	34.2250
 0.9080	34.2310
 0.9090	34.2350
 0.9100	34.2380
 0.9110	34.2440
 0.9120	34.2480
 0.9130	34.2450
 0.9140	34.2450
 0.9150	34.2540
 0.9160	34.2580
 0.9170	34.2600
 0.9180	34.2600
 0.9190	34.2580
 0.9200	34.2600
 0.9210	34.2610
 0.9220	34.2610
 0.9230	34.2630
 0.9240	34.2560
 0.9250	34.2510
 0.9260	34.2510
 0.9270	34.2510
 0.9280	34.2450
 0.9290	34.2360
 0.9300	34.2290
 0.9310	34.2240
 0.9320	34.2160
 0.9330	34.2070
 0.9340	34.2000
 0.9350	34.1930
 0.9360	34.1840
 0.9370	34.1750
 0.9380	34.1650
 0.9390	34.1520
 0.9400	34.1440
 0.9410	34.1350
 0.9420	34.1220
 0.9430	34.0990
 0.9440	34.0890
 0.9450	34.0800
 0.9460	34.0610
 0.9470	34.0400
 0.9480	34.0220
 0.9490	34.0040
 0.9500	33.9780
 0.9510	33.9480
 0.9520	33.9220
 0.9530	33.9030
 0.9540	33.8870
 0.9550	33.8610
 0.9560	33.8300
 0.9570	33.8030
 0.9580	33.7850
 0.9590	33.7660
 0.9600	33.7380
 0.9610	33.7110
 0.9620	33.6970
 0.9630	33.6900
 0.9640	33.6660
 0.9650	33.6380
 0.9660	33.6280
 0.9670	33.6170
 0.9680	33.5970
 0.9690	33.5840
 0.9700	33.5910
 0.9710	33.5840
 0.9720	33.5580
 0.9730	33.5380
 0.9740	33.5440
 0.9750	33.5300
 0.9760	33.5190
 0.9770	33.5150
 0.9780	33.5140
 0.9790	33.5160
 0.9800	33.5100
 0.9810	33.5020
 0.9820	33.5040
 0.9830	33.5140
 0.9840	33.5050
 0.9850	33.4880
 0.9860	33.4890
 0.9870	33.4930
 0.9880	33.4870
 0.9890	33.4810
 0.9900	33.4890
 0.9910	33.4920
 0.9920	33.4890
 0.9930	33.4840
 0.9940	33.4820
 0.9950	33.4830
 0.9960	33.4780
 0.9970	33.4790
 0.9980	33.4910
 0.9990	33.4900
 1.0000	33.4770
 1.0010	34.6300
 1.0020	34.6290
 1.0030	34.6290
 1.0040	34.6350
 1.0050	34.6400
 1.0060	34.6450
 1.0070	34.6530
 1.0080	34.6570
 1.0090	34.6580
 1.0100	34.6590
 1.0110	34.6590
 1.0120	34.6580
 1.0130	34.6530
 1.0140	34.6540
 1.0150	34.6580
 1.0160	34.6610
 1.0170	34.6640
 1.0180	34.6720
 1.0190	34.6800
 1.0200	34.6850
 1.0210	34.6880
 1.0220	34.6920
 1.0230	34.6930
 1.0240	34.6890
 1.0250	34.6910
 1.0260	34.6980
 1.0270	34.7030
 1.0280	34.7110
 1.0290	34.7160
 1.0300	34.7180
 1.0310	34.7210
 1.0320	34.7230
 1.0330	34.7260
 1.0340	34.7320
 1.0350	34.7330
 1.0360	34.7350
 1.0370	34.7400
 1.0380	34.7460
 1.0390	34.7550
 1.0400	34.7610
 1.0410	34.7700
 1.0420	34.7750
 1.0430	34.7780
 1.0440	34.7830
 1.0450	34.7880
 1.0460	34.7920
 1.0470	34.7970
 1.0480	34.8010
 1.0490	34.8050
 1.0500	34.8080
 1.0510	34.8120
 1.0520	34.8160
 1.0530	34.8170
 1.0540	34.8140
 1.0550	34.8150
 1.0560	34.8130
 1.0570	34.8160
 1.0580	34.8230
 1.0590	34.8260
 1.0600	34.8300
 1.0610	34.8310
 1.0620	34.8290
 1.0630	34.8280
 1.0640	34.8260
 1.0650	34.8250
 1.0660	34.8240
 1.0670	34.8220
 1.0680	34.8210
 1.0690	34.8190
 1.0700	34.8170
 1.0710	34.8150
 1.0720	34.8130
 1.0730	34.8100
 1.0740	34.8080
 1.0750	34.8070
 1.0760	34.8050
 1.0770	34.8050
 1.0780	34.8040
 1.0790	34.8030
 1.0800	34.7990
 1.0810	34.7940
 1.0820	34.7890
 1.0830	34.7810
 1.0840	34.7760
 1.0850	34.7720
 1.0860	34.7700
 1.0870	34.7670
 1.0880	34.7640
 1.0890	34.7600
 1.0900	34.7540
 1.0910	34.7500
 1.0920	34.7470
 1.0930	34.7440
 1.0940	34.7440
 1.0950	34.7390
 1.0960	34.7310
 1.0970	34.7260
 1.0980	34.7210
 1.0990	34.7150
 1.1000	34.7080
 1.1010	34.7020
 1.1020	34.6970
 1.1030	34.6890
 1.1040	34.6820
 1.1050	34.6780
 1.1060	34.6730
 1.1070	34.6670
 1.1080	34.6620
 1.1090	34.6590
 1.1100	34.6530
 1.1110	34.6460
 1.1120	34.6400
 1.1130	34.6340
 1.1140	34.6260
 1.1150	34.6180
 1.1160	34.6100
 1.1170	34.6040
 1.1180	34.5940
 1.1190	34.5830
 1.1200	34.5720
 1.1210	34.5600
 1.1220	34.5480
 1.1230	34.5370
 1.1240	34.5230
 1.1250	34.5070
 1.1260	34.4900
 1.1270	34.4690
 1.1280	34.4440
 1.1290	34.4190
 1.1300	34.3930
 1.1310	34.3620
 1.1320	34.3310
 1.1330	34.2950
 1.1340	34.2530
 1.1350	34.2100
 1.1360	34.1660
 1.1370	34.1180
 1.1380	34.0680
 1.1390	34.0150
 1.1400	33.9580
 1.1410	33.9020
 1.1420	33.8470
 1.1430	33.7890
 1.1440	33.7300
 1.1450	33.6700
 1.1460	33.6120
 1.1470	33.5510
 1.1480	33.4950
 1.1490	33.4400
 1.1500	33.3880
 1.1510	33.3360
 1.1520	33.2870
 1.1530	33.2400
 1.1540	33.1960
 1.1550	33.1550
 1.1560	33.1170
 1.1570	33.0800
 1.1580	33.0450
 1.1590	33.0110
 1.1600	32.9780
 1.1610	32.9500
 1.1620	32.9240
 1.1630	32.9000
 1.1640	32.8780
 1.1650	32.8580
 1.1660	32.8390
 1.1670	32.8200
 1.1680	32.8010
 1.1690	32.7840
 1.1700	32.7680
 1.1710	32.7530
 1.1720	32.7420
 1.1730	32.7290
 1.1740	32.7150
 1.1750	32.7010
 1.1760	32.6860
 1.1770	32.6710
 1.1780	32.6570
 1.1790	32.6440
 1.1800	32.6300
 1.1810	32.6170
 1.1820	32.6020
 1.1830	32.5870
 1.1840	32.5710
 1.1850	32.5560
 1.1860	32.5440
 1.1870	32.5320
 1.1880	32.5200
 1.1890	32.5120
 1.1900	32.5010
 1.1910	32.4890
 1.1920	32.4790
 1.1930	32.4690
 1.1940	32.4600
 1.1950	32.4530
 1.1960	32.4450
 1.1970	32.4380
 1.1980	32.4310
 1.1990	32.4270
 1.2000	32.4240
 1.2010	32.4220
 1.2020	32.4210
 1.2030	32.4210
 1.2040	32.4240
 1.2050	32.4270
 1.2060	32.4290
 1.2070	32.4310
 1.2080	32.4340
 1.2090	32.4370
 1.2100	32.4430
 1.2110	32.4500
 1.2120	32.4570
 1.2130	32.4660
 1.2140	32.4770
 1.2150	32.4890
 1.2160	32.5020
 1.2170	32.5170
 1.2180	32.5320
 1.2190	32.5480
 1.2200	32.5660
 1.2210	32.5820
 1.2220	32.5970
 1.2230	32.6130
 1.2240	32.6280
 1.2250	32.6430
 1.2260	32.6610
 1.2270	32.6770
 1.2280	32.6910
 1.2290	32.7040
 1.2300	32.7160
 1.2310	32.7270
 1.2320	32.7400
 1.2330	32.7510
 1.2340	32.7610
 1.2350	32.7700
 1.2360	32.7780
 1.2370	32.7850
 1.2380	32.7930
 1.2390	32.8020
 1.2400	32.8090
 1.2410	32.8160
 1.2420	32.8230
 1.2430	32.8290
 1.2440	32.8350
 1.2450	32.8410
 1.2460	32.8460
 1.2470	32.8500
 1.2480	32.8540
 1.2490	32.8600
 1.2500	32.8650
 1.2510	32.8680
 1.2520	32.8700
 1.2530	32.8690
 1.2540	32.8700
 1.2550	32.8740
 1.2560	32.8760
 1.2570	32.8760
 1.2580	32.8760
 1.2590	32.8750
 1.2600	32.8700
 1.2610	32.8680
 1.2620	32.8670
 1.2630	32.8650
 1.2640	32.8630
 1.2650	32.8610
 1.2660	32.8600
 1.2670	32.8580
 1.2680	32.8560
 1.2690	32.8530
 1.2700	32.8490
 1.2710	32.8450
 1.2720	32.8410
 1.2730	32.8370
 1.2740	32.8340
 1.2750	32.8300
 1.2760	32.8240
 1.2770	32.8190
 1.2780	32.8140
 1.2790	32.8080
 1.2800	32.8000
 1.2810	32.7930
 1.2820	32.7830
 1.2830	32.7730
 1.2840	32.7630
 1.2850	32.7510
 1.2860	32.7390
 1.2870	32.7260
 1.2880	32.7120
 1.2890	32.6970
 1.2900	32.6810
 1.2910	32.6630
 1.2920	32.6410
 1.2930	32.6190
 1.2940	32.5950
 1.2950	32.5710
 1.2960	32.5470
 1.2970	32.5200
 1.2980	32.4950
 1.2990	32.4680
 1.3000	32.4390
 1.3010	32.4080
 1.3020	32.3740
 1.3030	32.3400
 1.3040	32.3050
 1.3050	32.2700
 1.3060	32.2360
 1.3070	32.2000
 1.3080	32.1630
 1.3090	32.1260
 1.3100	32.0880
 1.3110	32.0480
 1.3120	32.0070
 1.3130	31.9650
 1.3140	31.9220
 1.3150	31.8770
 1.3160	31.8320
 1.3170	31.7860
 1.3180	31.7390
 1.3190	31.6910
 1.3200	31.6410
 1.3210	31.5900
 1.3220	31.5400
 1.3230	31.4890
 1.3240	31.4390
 1.3250	31.3870
 1.3260	31.3320
 1.3270	31.2760
 1.3280	31.2190
 1.3290	31.1610
 1.3300	31.1020
 1.3310	31.0430
 1.3320	30.9830
 1.3330	30.9230
 1.3340	30.8620
 1.3350	30.8000
 1.3360	30.7390
 1.3370	30.6770
 1.3380	30.6160
 1.3390	30.5540
 1.3400	30.4910
 1.3410	30.4290
 1.3420	30.3670
 1.3430	30.3050
 1.3440	30.2450
 1.3450	30.1840
 1.3460	30.1230
 1.3470	30.0620
 1.3480	30.0010
 1.3490	29.9410
 1.3500	29.8820
 1.3510	29.8240
 1.3520	29.7660
 1.3530	29.7080
 1.3540	29.6470
 1.3550	29.5860
 1.3560	29.5240
 1.3570	29.4630
 1.3580	29.4010
 1.3590	29.3390
 1.3600	29.2760
 1.3610	29.2120
 1.3620	29.1440
 1.3630	29.0750
 1.3640	29.0030
 1.3650	28.9260
 1.3660	28.8470
 1.3670	28.7640
 1.3680	28.6760
 1.3690	28.5820
 1.3700	28.4800
 1.3710	28.3710
 1.3720	28.2530
 1.3730	28.1260
 1.3740	27.9910
 1.3750	27.8450
 1.3760	27.6870
 1.3770	27.5160
 1.3780	27.3320
 1.3790	27.1350
 1.3800	26.9240
 1.3810	26.6980
 1.3820	26.4590
 1.3830	26.2070
 1.3840	25.9400
 1.3850	25.6600
 1.3860	25.3670
 1.3870	25.0590
 1.3880	24.7440
 1.3890	24.4180
 1.3900	24.0820
 1.3910	23.7430
 1.3920	23.3950
 1.3930	23.0400
 1.3940	22.6820
 1.3950	22.3180
 1.3960	21.9550
 1.3970	21.5940
 1.3980	21.2350
 1.3990	20.8830
 1.4000	20.5380
 1.4010	20.1960
 1.4020	19.8660
 1.4030	19.5430
 1.4040	19.2310
 1.4050	18.9310
 1.4060	18.6410
 1.4070	18.3650
 1.4080	18.1020
 1.4090	17.8490
 1.4100	17.6100
 1.4110	17.3830
 1.4120	17.1680
 1.4130	16.9660
 1.4140	16.7770
 1.4150	16.6020
 1.4160	16.4390
 1.4170	16.2860
 1.4180	16.1430
 1.4190	16.0080
 1.4200	15.8830
 1.4210	15.7650
 1.4220	15.6560
 1.4230	15.5560
 1.4240	15.4640
 1.4250	15.3770
 1.4260	15.2990
 1.4270	15.2260
 1.4280	15.1590
 1.4290	15.0960
 1.4300	15.0390
 1.4310	14.9880
 1.4320	14.9410
 1.4330	14.8980
 1.4340	14.8610
 1.4350	14.8270
 1.4360	14.7970
 1.4370	14.7710
 1.4380	14.7470
 1.4390	14.7260
 1.4400	14.7090
 1.4410	14.6940
 1.4420	14.6830
 1.4430	14.6740
 1.4440	14.6680
 1.4450	14.6640
 1.4460	14.6610
 1.4470	14.6590
 1.4480	14.6590
 1.4490	14.6600
 1.4500	14.6640
 1.4510	14.6690
 1.4520	14.6750
 1.4530	14.6820
 1.4540	14.6910
 1.4550	14.7020
 1.4560	14.7140
 1.4570	14.7290
 1.4580	14.7470
 1.4590	14.7660
 1.4600	14.7890
 1.4610	14.8150
 1.4620	14.8440
 1.4630	14.8770
 1.4640	14.9120
 1.4650	14.9500
 1.4660	14.9930
 1.4670	15.0390
 1.4680	15.0900
 1.4690	15.1440
 1.4700	15.2020
 1.4710	15.2620
 1.4720	15.3250
 1.4730	15.3910
 1.4740	15.4600
 1.4750	15.5300
 1.4760	15.6030
 1.4770	15.6780
 1.4780	15.7540
 1.4790	15.8320
 1.4800	15.9110
 1.4810	15.9920
 1.4820	16.0740
 1.4830	16.1560
 1.4840	16.2390
 1.4850	16.3240
 1.4860	16.4100
 1.4870	16.4970
 1.4880	16.5810
 1.4890	16.6660
 1.4900	16.7520
 1.4910	16.8370
 1.4920	16.9230
 1.4930	17.0120
 1.4940	17.1000
 1.4950	17.1890
 1.4960	17.2780
 1.4970	17.3650
 1.4980	17.4530
 1.4990	17.5400
 1.5000	17.6280
 1.5010	17.7170
 1.5020	17.8050
 1.5030	17.8930
 1.5040	17.9800
 1.5050	18.0660
 1.5060	18.1530
 1.5070	18.2390
 1.5080	18.3260
 1.5090	18.4130
 1.5100	18.5010
 1.5110	18.5870
 1.5120	18.6740
 1.5130	18.7600
 1.5140	18.8420
 1.5150	18.9250
 1.5160	19.0070
 1.5170	19.0900
 1.5180	19.1720
 1.5190	19.2530
 1.5200	19.3330
 1.5210	19.4120
 1.5220	19.4910
 1.5230	19.5710
 1.5240	19.6490
 1.5250	19.7270
 1.5260	19.8050
 1.5270	19.8810
 1.5280	19.9580
 1.5290	20.0330
 1.5300	20.1060
 1.5310	20.1790
 1.5320	20.2490
 1.5330	20.3200
 1.5340	20.3900
 1.5350	20.4580
 1.5360	20.5280
 1.5370	20.5960
 1.5380	20.6620
 1.5390	20.7280
 1.5400	20.7930
 1.5410	20.8590
 1.5420	20.9260
 1.5430	20.9920
 1.5440	21.0570
 1.5450	21.1200
 1.5460	21.1830
 1.5470	21.2450
 1.5480	21.3060
 1.5490	21.3670
 1.5500	21.4260
 1.5510	21.4850
 1.5520	21.5420
 1.5530	21.5990
 1.5540	21.6550
 1.5550	21.7120
 1.5560	21.7680
 1.5570	21.8220
 1.5580	21.8760
 1.5590	21.9280
 1.5600	21.9800
 1.5610	22.0310
 1.5620	22.0810
 1.5630	22.1300
 1.5640	22.1790
 1.5650	22.2280
 1.5660	22.2760
 1.5670	22.3240
 1.5680	22.3700
 1.5690	22.4150
 1.5700	22.4600
 1.5710	22.5040
 1.5720	22.5480
 1.5730	22.5930
 1.5740	22.6370
 1.5750	22.6810
 1.5760	22.7260
 1.5770	22.7700
 1.5780	22.8130
 1.5790	22.8570
 1.5800	22.8970
 1.5810	22.9380
 1.5820	22.9790
 1.5830	23.0190
 1.5840	23.0600
 1.5850	23.1010
 1.5860	23.1400
 1.5870	23.1790
 1.5880	23.2180
 1.5890	23.2570
 1.5900	23.2960
 1.5910	23.3350
 1.5920	23.3720
 1.5930	23.4080
 1.5940	23.4440
 1.5950	23.4810
 1.5960	23.5180
 1.5970	23.5560
 1.5980	23.5920
 1.5990	23.6270
 1.6000	23.6610
 1.6010	23.6950
 1.6020	23.7290
 1.6030	23.7620
 1.6040	23.7940
 1.6050	23.8240
 1.6060	23.8550
 1.6070	23.8870
 1.6080	23.9180
 1.6090	23.9480
 1.6100	23.9780
 1.6110	24.0070
 1.6120	24.0370
 1.6130	24.0670
 1.6140	24.0950
 1.6150	24.1220
 1.6160	24.1490
 1.6170	24.1750
 1.6180	24.2010
 1.6190	24.2270
 1.6200	24.2500
 1.6210	24.2740
 1.6220	24.2970
 1.6230	24.3190
 1.6240	24.3430
 1.6250	24.3670
 1.6260	24.3890
 1.6270	24.4110
 1.6280	24.4300
 1.6290	24.4500
 1.6300	24.4690
 1.6310	24.4890
 1.6320	24.5100
 1.6330	24.5290
 1.6340	24.5480
 1.6350	24.5660
 1.6360	24.5830
 1.6370	24.5990
 1.6380	24.6140
 1.6390	24.6280
 1.6400	24.6410
 1.6410	24.6530
 1.6420	24.6630
 1.6430	24.6730
 1.6440	24.6820
 1.6450	24.6920
 1.6460	24.7010
 1.6470	24.7090
 1.6480	24.7140
 1.6490	24.7170
 1.6500	24.7170
 1.6510	24.7160
 1.6520	24.7160
 1.6530	24.7170
 1.6540	24.7160
 1.6550	24.7130
 1.6560	24.7080
 1.6570	24.7010
 1.6580	24.6950
 1.6590	24.6860
 1.6600	24.6770
 1.6610	24.6660
 1.6620	24.6530
 1.6630	24.6440
 1.6640	24.6360
 1.6650	24.6240
 1.6660	24.6120
 1.6670	24.5970
 1.6680	24.5810
 1.6690	24.5660
 1.6700	24.5500
 1.6710	24.5330
 1.6720	24.5140
 1.6730	24.4940
 1.6740	24.4730
 1.6750	24.4500
 1.6760	24.4260
 1.6770	24.4010
 1.6780	24.3730
 1.6790	24.3440
 1.6800	24.3140
 1.6810	24.2810
 1.6820	24.2490
 1.6830	24.2130
 1.6840	24.1750
 1.6850	24.1380
 1.6860	24.0980
 1.6870	24.0570
 1.6880	24.0180
 1.6890	23.9760
 1.6900	23.9360
 1.6910	23.8980
 1.6920	23.8590
 1.6930	23.8220
 1.6940	23.7830
 1.6950	23.7430
 1.6960	23.7030
 1.6970	23.6640
 1.6980	23.6230
 1.6990	23.5830
 1.7000	23.5400
 1.7010	23.4960
 1.7020	23.4500
 1.7030	23.4020
 1.7040	23.3550
 1.7050	23.3090
 1.7060	23.2600
 1.7070	23.2080
 1.7080	23.1600
 1.7090	23.1100
 1.7100	23.0620
 1.7110	23.0180
 1.7120	22.9730
 1.7130	22.9270
 1.7140	22.8830
 1.7150	22.8370
 1.7160	22.7940
 1.7170	22.7530
 1.7180	22.7140
 1.7190	22.6790
 1.7200	22.6410
 1.7210	22.6020
 1.7220	22.5620
 1.7230	22.5220
 1.7240	22.4860
 1.7250	22.4500
 1.7260	22.4170
 1.7270	22.3860
 1.7280	22.3570
 1.7290	22.3340
 1.7300	22.3160
 1.7310	22.3010
 1.7320	22.2920
 1.7330	22.2840
 1.7340	22.2820
 1.7350	22.2800
 1.7360	22.2810
 1.7370	22.2810
 1.7380	22.2810
 1.7390	22.2770
 1.7400	22.2700
 1.7410	22.2610
 1.7420	22.2490
 1.7430	22.2340
 1.7440	22.2150
 1.7450	22.1950
 1.7460	22.1710
 1.7470	22.1470
 1.7480	22.1230
 1.7490	22.0960
 1.7500	22.0650
 1.7510	22.0350
 1.7520	22.0030
 1.7530	21.9720
 1.7540	21.9410
 1.7550	21.9100
 1.7560	21.8800
 1.7570	21.8510
 1.7580	21.8220
 1.7590	21.7940
 1.7600	21.7670
 1.7610	21.7440
 1.7620	21.7210
 1.7630	21.6990
 1.7640	21.6790
 1.7650	21.6600
 1.7660	21.6440
 1.7670	21.6310
 1.7680	21.6180
 1.7690	21.6080
 1.7700	21.5970
 1.7710	21.5870
 1.7720	21.5770
 1.7730	21.5680
 1.7740	21.5590
 1.7750	21.5500
 1.7760	21.5400
 1.7770	21.5280
 1.7780	21.5200
 1.7790	21.5130
 1.7800	21.5070
 1.7810	21.5060
 1.7820	21.5010
 1.7830	21.4960
 1.7840	21.4920
 1.7850	21.4880
 1.7860	21.4860
 1.7870	21.4850
 1.7880	21.4840
 1.7890	21.4850
 1.7900	21.4880
 1.7910	21.4900
 1.7920	21.4950
 1.7930	21.4980
 1.7940	21.4980
 1.7950	21.5010
 1.7960	21.5050
 1.7970	21.5100
 1.7980	21.5170
 1.7990	21.5230
 1.8000	21.5280
 1.8010	21.5350
 1.8020	21.5420
 1.8030	21.5490
 1.8040	21.5580
 1.8050	21.5650
 1.8060	21.5710
 1.8070	21.5800
 1.8080	21.5900
 1.8090	21.5970
 1.8100	21.6040
 1.8110	21.6130
 1.8120	21.6190
 1.8130	21.6250
 1.8140	21.6320
 1.8150	21.6340
 1.8160	21.6340
 1.8170	21.6370
 1.8180	21.6410
 1.8190	21.6440
 1.8200	21.6490
 1.8210	21.6550
 1.8220	21.6580
 1.8230	21.6610
 1.8240	21.6620
 1.8250	21.6580
 1.8260	21.6550
 1.8270	21.6510
 1.8280	21.6460
 1.8290	21.6420
 1.8300	21.6350
 1.8310	21.3390
 1.8320	21.3230
 1.8330	21.3100
 1.8340	21.2960
 1.8350	21.2770
 1.8360	21.2570
 1.8370	21.2360
 1.8380	21.2120
 1.8390	21.1830
 1.8400	21.1530
 1.8410	21.1170
 1.8420	21.0760
 1.8430	21.0320
 1.8440	20.9840
 1.8450	20.9330
 1.8460	20.8770
 1.8470	20.8190
 1.8480	20.7530
 1.8490	20.6800
 1.8500	20.6010
 1.8510	20.5140
 1.8520	20.4190
 1.8530	20.3190
 1.8540	20.2100
 1.8550	20.0900
 1.8560	19.9640
 1.8570	19.8290
 1.8580	19.6820
 1.8590	19.5240
 1.8600	19.3580
 1.8610	19.1800
 1.8620	18.9880
 1.8630	18.7890
 1.8640	18.5770
 1.8650	18.3560
 1.8660	18.1200
 1.8670	17.8660
 1.8680	17.5990
 1.8690	17.3120
 1.8700	17.0100
 1.8710	16.6900
 1.8720	16.3630
 1.8730	16.0220
 1.8740	15.6680
 1.8750	15.3030
 1.8760	14.9230
 1.8770	14.5360
 1.8780	14.1450
 1.8790	13.7450
 1.8800	13.3450
 1.8810	12.9440
 1.8820	12.5330
 1.8830	12.1190
 1.8840	11.7080
 1.8850	11.2920
 1.8860	10.8800
 1.8870	10.4730
 1.8880	10.0680
 1.8890	 9.6760
 1.8900	 9.2930
 1.8910	 8.9250
 1.8920	 8.5680
 1.8930	 8.2270
 1.8940	 7.8980
 1.8950	 7.5870
 1.8960	 7.2930
 1.8970	 7.0160
 1.8980	 6.7600
 1.8990	 6.5200
 1.9000	 6.2960
 1.9010	 6.0900
 1.9020	 5.8970
 1.9030	 5.7180
 1.9040	 5.5550
 1.9050	 5.4060
 1.9060	 5.2700
 1.9070	 5.1490
 1.9080	 5.0440
 1.9090	 4.9470
 1.9100	 4.8600
 1.9110	 4.7790
 1.9120	 4.7070
 1.9130	 4.6410
 1.9140	 4.5800
 1.9150	 4.5280
 1.9160	 4.4820
 1.9170	 4.4390
 1.9180	 4.4020
 1.9190	 4.3670
 1.9200	 4.3350
 1.9210	 4.3080
 1.9220	 4.2860
 1.9230	 4.2710
 1.9240	 4.2550
 1.9250	 4.2420
 1.9260	 4.2310
 1.9270	 4.2200
 1.9280	 4.2110
 1.9290	 4.2100
 1.9300	 4.2130
 1.9310	 4.2160
 1.9320	 4.2210
 1.9330	 4.2280
 1.9340	 4.2340
 1.9350	 4.2460
 1.9360	 4.2640
 1.9370	 4.2800
 1.9380	 4.3000
 1.9390	 4.3190
 1.9400	 4.3380
 1.9410	 4.3610
 1.9420	 4.3840
 1.9430	 4.4080
 1.9440	 4.4320
 1.9450	 4.4570
 1.9460	 4.4840
 1.9470	 4.5130
 1.9480	 4.5440
 1.9490	 4.5780
 1.9500	 4.6130
 1.9510	 4.6480
 1.9520	 4.6850
 1.9530	 4.7230
 1.9540	 4.7600
 1.9550	 4.7980
 1.9560	 4.8350
 1.9570	 4.8740
 1.9580	 4.9110
 1.9590	 4.9530
 1.9600	 4.9990
 1.9610	 5.0450
 1.9620	 5.0900
 1.9630	 5.1400
 1.9640	 5.1900
 1.9650	 5.2350
 1.9660	 5.2800
 1.9670	 5.3270
 1.9680	 5.3760
 1.9690	 5.4240
 1.9700	 5.4750
 1.9710	 5.5310
 1.9720	 5.5840
 1.9730	 5.6360
 1.9740	 5.6900
 1.9750	 5.7420
 1.9760	 5.7950
 1.9770	 5.8540
 1.9780	 5.9130
 1.9790	 5.9690
 1.9800	 6.0260
 1.9810	 6.0830
 1.9820	 6.1400
 1.9830	 6.1970
 1.9840	 6.2580
 1.9850	 6.3180
 1.9860	 6.3780
 1.9870	 6.4350
 1.9880	 6.4960
 1.9890	 6.5570
 1.9900	 6.6180
 1.9910	 6.6800
 1.9920	 6.7410
 1.9930	 6.8000
 1.9940	 6.8620
 1.9950	 6.9250
 1.9960	 6.9880
 1.9970	 7.0550
 1.9980	 7.1190
 1.9990	 7.1830
 2.0000	 7.2460
 2.0010	 7.3040
 2.0020	 7.3670
 2.0030	 7.4280
 2.0040	 7.4890
 2.0050	 7.5520
 2.0060	 7.6170
 2.0070	 7.6790
 2.0080	 7.7400
 2.0090	 7.8000
 2.0100	 7.8570
 2.0110	 7.9160
 2.0120	 7.9760
 2.0130	 8.0340
 2.0140	 8.0950
 2.0150	 8.1540
 2.0160	 8.2130
 2.0170	 8.2730
 2.0180	 8.3300
 2.0190	 8.3860
 2.0200	 8.4400
 2.0210	 8.4920
 2.0220	 8.5460
 2.0230	 8.6000
 2.0240	 8.6530
 2.0250	 8.7080
 2.0260	 8.7590
 2.0270	 8.8060
 2.0280	 8.8530
 2.0290	 8.9010
 2.0300	 8.9510
 2.0310	 9.0010
 2.0320	 9.0550
 2.0330	 9.1030
 2.0340	 9.1490
 2.0350	 9.1920
 2.0360	 9.2280
 2.0370	 9.2690
 2.0380	 9.3070
 2.0390	 9.3480
 2.0400	 9.3930
 2.0410	 9.4340
 2.0420	 9.4740
 2.0430	 9.5120
 2.0440	 9.5490
 2.0450	 9.5820
 2.0460	 9.6180
 2.0470	 9.6540
 2.0480	 9.6900
 2.0490	 9.7260
 2.0500	 9.7620
 2.0510	 9.7950
 2.0520	 9.8320
 2.0530	 9.8700
 2.0540	 9.9090
 2.0550	 9.9500
 2.0560	 9.9910
 2.0570	10.0290
 2.0580	10.0670
 2.0590	10.1090
 2.0600	10.1530
 2.0610	10.1990
 2.0620	10.2500
 2.0630	10.2970
 2.0640	10.3440
 2.0650	10.3890
 2.0660	10.4320
 2.0670	10.4740
 2.0680	10.5140
 2.0690	10.5560
 2.0700	10.6010
 2.0710	10.6440
 2.0720	10.6860
 2.0730	10.7320
 2.0740	10.7760
 2.0750	10.8200
 2.0760	10.8650
 2.0770	10.9140
 2.0780	10.9570
 2.0790	10.9970
 2.0800	11.0390
 2.0810	11.0780
 2.0820	11.1190
 2.0830	11.1620
 2.0840	11.2030
 2.0850	11.2430
 2.0860	11.2830
 2.0870	11.3220
 2.0880	11.3650
 2.0890	11.4060
 2.0900	11.4490
 2.0910	11.4880
 2.0920	11.5280
 2.0930	11.5640
 2.0940	11.5980
 2.0950	11.6320
 2.0960	11.6650
 2.0970	11.6990
 2.0980	11.7350
 2.0990	11.7700
 2.1000	11.8030
 2.1010	11.8360
 2.1020	11.8710
 2.1030	11.9030
 2.1040	11.9330
 2.1050	11.9650
 2.1060	11.9970
 2.1070	12.0280
 2.1080	12.0620
 2.1090	12.0980
 2.1100	12.1320
 2.1110	12.1670
 2.1120	12.2010
 2.1130	12.2370
 2.1140	12.2700
 2.1150	12.3000
 2.1160	12.3290
 2.1170	12.3540
 2.1180	12.3810
 2.1190	12.4070
 2.1200	12.4330
 2.1210	12.4610
 2.1220	12.4850
 2.1230	12.5090
 2.1240	12.5310
 2.1250	12.5540
 2.1260	12.5790
 2.1270	12.6010
 2.1280	12.6220
 2.1290	12.6440
 2.1300	12.6620
 2.1310	12.6830
 2.1320	12.7060
 2.1330	12.7260
 2.1340	12.7440
 2.1350	12.7610
 2.1360	12.7740
 2.1370	12.7880
 2.1380	12.8010
 2.1390	12.8150
 2.1400	12.8300
 2.1410	12.8450
 2.1420	12.8610
 2.1430	12.8790
 2.1440	12.8920
 2.1450	12.9040
 2.1460	12.9170
 2.1470	12.9260
 2.1480	12.9390
 2.1490	12.9560
 2.1500	12.9690
 2.1510	12.9820
 2.1520	12.9930
 2.1530	13.0020
 2.1540	13.0110
 2.1550	13.0180
 2.1560	13.0250
 2.1570	13.0270
 2.1580	13.0330
 2.1590	13.0410
 2.1600	13.0470
 2.1610	13.0580
 2.1620	13.0710
 2.1630	13.0820
 2.1640	13.0950
 2.1650	13.1050
 2.1660	13.1110
 2.1670	13.1210
 2.1680	13.1310
 2.1690	13.1420
 2.1700	13.1560
 2.1710	13.1670
 2.1720	13.1780
 2.1730	13.1900
 2.1740	13.2030
 2.1750	13.2160
 2.1760	13.2280
 2.1770	13.2420
 2.1780	13.2590
 2.1790	13.2740
 2.1800	13.2860
 2.1810	13.3010
 2.1820	13.3150
 2.1830	13.3300
 2.1840	13.3490
 2.1850	13.3730
 2.1860	13.3950
 2.1870	13.4180
 2.1880	13.4400
 2.1890	13.4610
 2.1900	13.4820
 2.1910	13.5010
 2.1920	13.5210
 2.1930	13.5410
 2.1940	13.5610
 2.1950	13.5790
 2.1960	13.5970
 2.1970	13.6130
 2.1980	13.6300
 2.1990	13.6480
 2.2000	13.6640
 2.2010	13.6810
 2.2020	13.6970
 2.2030	13.7150
 2.2040	13.7300
 2.2050	13.7430
 2.2060	13.7540
 2.2070	13.7660
 2.2080	13.7750
 2.2090	13.7870
 2.2100	13.8000
 2.2110	13.8110
 2.2120	13.8240
 2.2130	13.8310
 2.2140	13.8350
 2.2150	13.8390
 2.2160	13.8370
 2.2170	13.8410
 2.2180	13.8500
 2.2190	13.8540
 2.2200	13.8620
 2.2210	13.8640
 2.2220	13.8600
 2.2230	13.8550
 2.2240	13.8450
 2.2250	13.8350
 2.2260	13.8210
 2.2270	13.8070
 2.2280	13.7920
 2.2290	13.7760
 2.2300	13.7630
 2.2310	13.7460
 2.2320	13.7240
 2.2330	13.7050
 2.2340	13.6750
 2.2350	13.6360
 2.2360	13.6030
 2.2370	13.5660
 2.2380	13.5280
 2.2390	13.4920
 2.2400	13.4510
 2.2410	13.4040
 2.2420	13.3610
 2.2430	13.3190
 2.2440	13.2760
 2.2450	13.2360
 2.2460	13.1890
 2.2470	13.1360
 2.2480	13.0860
 2.2490	13.0330
 2.2500	12.9820
 2.2510	12.9360
 2.2520	12.8850
 2.2530	12.8350
 2.2540	12.7820
 2.2550	12.7270
 2.2560	12.6690
 2.2570	12.6070
 2.2580	12.5440
 2.2590	12.4760
 2.2600	12.4110
 2.2610	12.3450
 2.2620	12.2820
 2.2630	12.2200
 2.2640	12.1560
 2.2650	12.0980
 2.2660	12.0420
 2.2670	11.9850
 2.2680	11.9320
 2.2690	11.8740
 2.2700	11.8130
 2.2710	11.7550
 2.2720	11.6950
 2.2730	11.6410
 2.2740	11.5890
 2.2750	11.5370
 2.2760	11.4880
 2.2770	11.4380
 2.2780	11.3870
 2.2790	11.3380
 2.2800	11.2910
 2.2810	11.2460
 2.2820	11.2030
 2.2830	11.1610
 2.2840	11.1210
 2.2850	11.0780
 2.2860	11.0380
 2.2870	10.9910
 2.2880	10.9360
 2.2890	10.8860
 2.2900	10.8320
 2.2910	10.7810
 2.2920	10.7360
 2.2930	10.6880
 2.2940	10.6390
 2.2950	10.5900
 2.2960	10.5420
 2.2970	10.4920
 2.2980	10.4370
 2.2990	10.3900
 2.3000	10.3380
 2.3010	10.2830
 2.3020	10.2370
 2.3030	10.1930
 2.3040	10.1530
 2.3050	10.1190
 2.3060	10.0880
 2.3070	10.0500
 2.3080	10.0140
 2.3090	 9.9850
 2.3100	 9.9550
 2.3110	 9.9330
 2.3120	 9.9220
 2.3130	 9.9210
 2.3140	 9.9220
 2.3150	 9.9350
 2.3160	 9.9450
 2.3170	 9.9580
 2.3180	 9.9690
 2.3190	 9.9770
 2.3200	 9.9930
 2.3210	10.0170
 2.3220	10.0280
 2.3230	10.0450
 2.3240	10.0440
 2.3250	10.0250
 2.3260	10.0130
 2.3270	10.0010
 2.3280	 9.9780
 2.3290	 9.9480
 2.3300	 9.9170
 2.3310	 9.8740
 2.3320	 9.8380
 2.3330	 9.8080
 2.3340	 9.7720
 2.3350	 9.7310
 2.3360	 9.6940
 2.3370	 9.6560
 2.3380	 9.6170
 2.3390	 9.5800
 2.3400	 9.5400
 2.3410	 9.4960
 2.3420	 9.4520
 2.3430	 9.4060
 2.3440	 9.3630
 2.3450	 9.3170
 2.3460	 9.2770
 2.3470	 9.2450
 2.3480	 9.2100
 2.3490	 9.1700
 2.3500	 9.1410
 2.3510	 9.1190
 2.3520	 9.0960
 2.3530	 9.0800
 2.3540	 9.0690
 2.3550	 9.0430
 2.3560	 9.0270
 2.3570	 9.0140
 2.3580	 8.9970
 2.3590	 8.9940
 2.3600	 8.9800
 2.3610	 8.9550
 2.3620	 8.9360
 2.3630	 8.9100
 2.3640	 8.8800
 2.3650	 8.8650
 2.3660	 8.8480
 2.3670	 8.8220
 2.3680	 8.8010
 2.3690	 8.7670
 2.3700	 8.7300
 2.3710	 8.7020
 2.3720	 8.6730
 2.3730	 8.6510
 2.3740	 8.6320
 2.3750	 8.6070
 2.3760	 8.5770
 2.3770	 8.5430
 2.3780	 8.4990
 2.3790	 8.4570
 2.3800	 8.4150
 2.3810	 8.3780
 2.3820	 8.3530
 2.3830	 8.3130
 2.3840	 8.2810
 2.3850	 8.2550
 2.3860	 8.2210
 2.3870	 8.1980
 2.3880	 8.1640
 2.3890	 8.1160
 2.3900	 8.0780
 2.3910	 8.0390
 2.3920	 7.9970
 2.3930	 7.9670
 2.3940	 7.9360
 2.3950	 7.8940
 2.3960	 7.8720
 2.3970	 7.8510
 2.3980	 7.8150
 2.3990	 7.7860
 2.4000	 7.7490
 2.4010	 7.7050
 2.4020	 7.6640
 2.4030	 7.6180
 2.4040	 7.5740
 2.4050	 7.5400
 2.4060	 7.5050
 2.4070	 7.4710
 2.4080	 7.4410
 2.4090	 7.4010
 2.4100	 7.3650
 2.4110	 7.3440
 2.4120	 7.3200
 2.4130	 7.2860
 2.4140	 7.2510
 2.4150	 7.1940
 2.4160	 7.1300
 2.4170	 7.0850
 2.4180	 7.0470
 2.4190	 7.0260
 2.4200	 7.0060
 2.4210	 6.9710
 2.4220	 6.9370
 2.4230	 6.8960
 2.4240	 6.8540
 2.4250	 6.8180
 2.4260	 6.7680
 2.4270	 6.7140
 2.4280	 6.6680
 2.4290	 6.6160
 2.4300	 6.5780
 2.4310	 6.5540
 2.4320	 6.5250
 2.4330	 6.4970
 2.4340	 6.4550
 2.4350	 6.4010
 2.4360	 6.3600
 2.4370	 6.3150
 2.4380	 6.2780
 2.4390	 6.2480
 2.4400	 6.2020
 2.4410	 6.1730
 2.4420	 6.1460
 2.4430	 6.0980
 2.4440	 6.0520
 2.4450	 6.0110
 2.4460	 5.9720
 2.4470	 5.9450
 2.4480	 5.9260
 2.4490	 5.8840
 2.4500	 5.8400
 2.4510	 5.8010
 2.4520	 5.7600
 2.4530	 5.7320
 2.4540	 5.7070
 2.4550	 5.6680
 2.4560	 5.6460
 2.4570	 5.6250
 2.4580	 5.5830
 2.4590	 5.5680
 2.4600	 5.5460
 2.4610	 5.5060
 2.4620	 5.4810
 2.4630	 5.4270
 2.4640	 5.3520
 2.4650	 5.3070
 2.4660	 5.2750
 2.4670	 5.2550
 2.4680	 5.2610
 2.4690	 5.2420
 2.4700	 5.2080
 2.4710	 5.1600
 2.4720	 5.1340
 2.4730	 5.1040
 2.4740	 5.0910
 2.4750	 5.1170
 2.4760	 5.1000
 2.4770	 5.0520
 2.4780	 5.0250
 2.4790	 5.0030
 2.4800	 4.9580
 2.4810	 4.9200
 2.4820	 4.8630
 2.4830	 4.7820
 2.4840	 4.7970
 2.4850	 4.8030
 2.4860	 4.8130
 2.4870	 4.8720
 2.4880	 4.8590
 2.4890	 4.8220
 2.4900	 4.8260
 2.4910	 4.8150
 2.4920	 4.7930
 2.4930	 4.8060
 2.4940	 4.8030
 2.4950	 4.7500
 2.4960	 4.7380
 2.4970	 4.7600
 2.4980	 4.7480
 2.4990	 4.7000
 2.5000	 4.6980
