Name: Tipuana tipu
Type: vegetation
Class: Tree
Genus: Tipuana
Species: tipu
Sample No.: JPL235
Owner: JPL
Wavelength Range: VSWIR
Origin: 34.13144; -118.1116; WGS84
Collection Date: 10/6/2016
Description: Samples were collected at the Huntington Garden in San Marino California as part of a JPL Subcontract studying HyTES imagery. Samples were taken to JPL and processed within 48 hours of collection. The same leaves were processed in the Nicolet and then measured using the ASD.
Measurement: Bidirectional reflectance
First Column: X
Second Column: Y
X Units: Wavelength (micrometer)
Y Units: Reflectance (percentage)
First X Value: 0.35
Last X Value: 2.5
Number of X Values: 2151
Additional Information: vegetation.tree.tipuana.tipu.vswir.jpl235.jpl.asd.ancillary.txt

 0.3500	 5.9140
 0.3510	 5.9560
 0.3520	 5.8390
 0.3530	 5.7840
 0.3540	 5.9250
 0.3550	 5.8040
 0.3560	 5.7300
 0.3570	 5.7400
 0.3580	 5.7220
 0.3590	 5.7060
 0.3600	 5.6170
 0.3610	 5.5080
 0.3620	 5.6270
 0.3630	 5.6440
 0.3640	 5.5820
 0.3650	 5.5410
 0.3660	 5.5380
 0.3670	 5.5420
 0.3680	 5.5390
 0.3690	 5.5320
 0.3700	 5.4730
 0.3710	 5.4480
 0.3720	 5.4850
 0.3730	 5.4900
 0.3740	 5.4150
 0.3750	 5.3550
 0.3760	 5.4090
 0.3770	 5.4500
 0.3780	 5.4440
 0.3790	 5.4040
 0.3800	 5.3790
 0.3810	 5.3810
 0.3820	 5.3770
 0.3830	 5.3500
 0.3840	 5.3440
 0.3850	 5.3220
 0.3860	 5.3090
 0.3870	 5.3350
 0.3880	 5.3140
 0.3890	 5.2930
 0.3900	 5.2820
 0.3910	 5.2580
 0.3920	 5.3030
 0.3930	 5.3360
 0.3940	 5.3010
 0.3950	 5.2830
 0.3960	 5.2740
 0.3970	 5.2750
 0.3980	 5.2890
 0.3990	 5.3130
 0.4000	 5.3330
 0.4010	 5.3320
 0.4020	 5.2850
 0.4030	 5.3150
 0.4040	 5.3630
 0.4050	 5.3600
 0.4060	 5.3740
 0.4070	 5.3930
 0.4080	 5.4120
 0.4090	 5.4340
 0.4100	 5.4530
 0.4110	 5.4690
 0.4120	 5.4830
 0.4130	 5.5050
 0.4140	 5.5400
 0.4150	 5.5780
 0.4160	 5.6060
 0.4170	 5.6470
 0.4180	 5.6830
 0.4190	 5.7100
 0.4200	 5.7380
 0.4210	 5.7740
 0.4220	 5.8150
 0.4230	 5.8510
 0.4240	 5.8690
 0.4250	 5.8900
 0.4260	 5.9160
 0.4270	 5.9370
 0.4280	 5.9670
 0.4290	 5.9890
 0.4300	 6.0020
 0.4310	 6.0210
 0.4320	 6.0410
 0.4330	 6.0670
 0.4340	 6.0970
 0.4350	 6.1080
 0.4360	 6.1120
 0.4370	 6.1180
 0.4380	 6.1300
 0.4390	 6.1290
 0.4400	 6.1280
 0.4410	 6.1330
 0.4420	 6.1380
 0.4430	 6.1380
 0.4440	 6.1430
 0.4450	 6.1640
 0.4460	 6.1720
 0.4470	 6.1750
 0.4480	 6.1790
 0.4490	 6.1870
 0.4500	 6.1900
 0.4510	 6.1940
 0.4520	 6.2060
 0.4530	 6.2140
 0.4540	 6.2170
 0.4550	 6.2190
 0.4560	 6.2260
 0.4570	 6.2190
 0.4580	 6.2150
 0.4590	 6.2210
 0.4600	 6.2220
 0.4610	 6.2160
 0.4620	 6.2080
 0.4630	 6.2020
 0.4640	 6.2000
 0.4650	 6.1970
 0.4660	 6.1900
 0.4670	 6.1810
 0.4680	 6.1780
 0.4690	 6.1740
 0.4700	 6.1630
 0.4710	 6.1560
 0.4720	 6.1530
 0.4730	 6.1520
 0.4740	 6.1460
 0.4750	 6.1380
 0.4760	 6.1340
 0.4770	 6.1350
 0.4780	 6.1310
 0.4790	 6.1260
 0.4800	 6.1250
 0.4810	 6.1290
 0.4820	 6.1260
 0.4830	 6.1200
 0.4840	 6.1180
 0.4850	 6.1220
 0.4860	 6.1230
 0.4870	 6.1250
 0.4880	 6.1310
 0.4890	 6.1300
 0.4900	 6.1310
 0.4910	 6.1330
 0.4920	 6.1350
 0.4930	 6.1420
 0.4940	 6.1550
 0.4950	 6.1700
 0.4960	 6.1790
 0.4970	 6.1870
 0.4980	 6.1990
 0.4990	 6.2180
 0.5000	 6.2440
 0.5010	 6.2700
 0.5020	 6.2930
 0.5030	 6.3220
 0.5040	 6.3570
 0.5050	 6.3940
 0.5060	 6.4320
 0.5070	 6.4770
 0.5080	 6.5330
 0.5090	 6.5950
 0.5100	 6.6570
 0.5110	 6.7330
 0.5120	 6.8140
 0.5130	 6.8990
 0.5140	 6.9920
 0.5150	 7.0960
 0.5160	 7.2070
 0.5170	 7.3240
 0.5180	 7.4480
 0.5190	 7.5850
 0.5200	 7.7300
 0.5210	 7.8760
 0.5220	 8.0250
 0.5230	 8.1770
 0.5240	 8.3300
 0.5250	 8.4820
 0.5260	 8.6240
 0.5270	 8.7590
 0.5280	 8.8920
 0.5290	 9.0170
 0.5300	 9.1310
 0.5310	 9.2340
 0.5320	 9.3300
 0.5330	 9.4140
 0.5340	 9.4870
 0.5350	 9.5550
 0.5360	 9.6140
 0.5370	 9.6640
 0.5380	 9.7070
 0.5390	 9.7480
 0.5400	 9.7930
 0.5410	 9.8430
 0.5420	 9.8940
 0.5430	 9.9320
 0.5440	 9.9580
 0.5450	 9.9700
 0.5460	 9.9670
 0.5470	 9.9530
 0.5480	 9.9410
 0.5490	 9.9370
 0.5500	 9.9370
 0.5510	 9.9340
 0.5520	 9.9220
 0.5530	 9.8990
 0.5540	 9.8670
 0.5550	 9.8250
 0.5560	 9.7740
 0.5570	 9.7140
 0.5580	 9.6450
 0.5590	 9.5670
 0.5600	 9.4800
 0.5610	 9.3870
 0.5620	 9.2880
 0.5630	 9.1830
 0.5640	 9.0740
 0.5650	 8.9660
 0.5660	 8.8560
 0.5670	 8.7420
 0.5680	 8.6260
 0.5690	 8.5080
 0.5700	 8.3920
 0.5710	 8.2820
 0.5720	 8.1770
 0.5730	 8.0760
 0.5740	 7.9790
 0.5750	 7.8870
 0.5760	 7.8060
 0.5770	 7.7290
 0.5780	 7.6550
 0.5790	 7.5910
 0.5800	 7.5310
 0.5810	 7.4740
 0.5820	 7.4190
 0.5830	 7.3700
 0.5840	 7.3220
 0.5850	 7.2750
 0.5860	 7.2300
 0.5870	 7.1890
 0.5880	 7.1520
 0.5890	 7.1160
 0.5900	 7.0790
 0.5910	 7.0460
 0.5920	 7.0180
 0.5930	 6.9900
 0.5940	 6.9650
 0.5950	 6.9400
 0.5960	 6.9160
 0.5970	 6.8960
 0.5980	 6.8780
 0.5990	 6.8610
 0.6000	 6.8420
 0.6010	 6.8180
 0.6020	 6.7910
 0.6030	 6.7630
 0.6040	 6.7350
 0.6050	 6.7000
 0.6060	 6.6620
 0.6070	 6.6260
 0.6080	 6.5870
 0.6090	 6.5520
 0.6100	 6.5270
 0.6110	 6.5120
 0.6120	 6.4710
 0.6130	 6.4160
 0.6140	 6.3600
 0.6150	 6.3120
 0.6160	 6.2680
 0.6170	 6.2290
 0.6180	 6.1970
 0.6190	 6.1640
 0.6200	 6.1370
 0.6210	 6.1130
 0.6220	 6.0880
 0.6230	 6.0660
 0.6240	 6.0470
 0.6250	 6.0290
 0.6260	 6.0130
 0.6270	 6.0000
 0.6280	 5.9890
 0.6290	 5.9800
 0.6300	 5.9720
 0.6310	 5.9630
 0.6320	 5.9510
 0.6330	 5.9350
 0.6340	 5.9180
 0.6350	 5.8990
 0.6360	 5.8770
 0.6370	 5.8530
 0.6380	 5.8240
 0.6390	 5.7920
 0.6400	 5.7610
 0.6410	 5.7290
 0.6420	 5.6960
 0.6430	 5.6630
 0.6440	 5.6320
 0.6450	 5.6000
 0.6460	 5.5690
 0.6470	 5.5420
 0.6480	 5.5170
 0.6490	 5.4940
 0.6500	 5.4730
 0.6510	 5.4550
 0.6520	 5.4430
 0.6530	 5.4310
 0.6540	 5.4150
 0.6550	 5.4020
 0.6560	 5.3880
 0.6570	 5.3730
 0.6580	 5.3560
 0.6590	 5.3400
 0.6600	 5.3230
 0.6610	 5.3060
 0.6620	 5.2900
 0.6630	 5.2760
 0.6640	 5.2640
 0.6650	 5.2550
 0.6660	 5.2490
 0.6670	 5.2460
 0.6680	 5.2470
 0.6690	 5.2510
 0.6700	 5.2580
 0.6710	 5.2690
 0.6720	 5.2830
 0.6730	 5.3060
 0.6740	 5.3310
 0.6750	 5.3580
 0.6760	 5.3880
 0.6770	 5.4220
 0.6780	 5.4600
 0.6790	 5.5030
 0.6800	 5.5480
 0.6810	 5.5960
 0.6820	 5.6460
 0.6830	 5.6980
 0.6840	 5.7470
 0.6850	 5.7950
 0.6860	 5.8430
 0.6870	 5.8930
 0.6880	 5.9510
 0.6890	 6.0170
 0.6900	 6.0930
 0.6910	 6.1890
 0.6920	 6.3070
 0.6930	 6.4560
 0.6940	 6.6410
 0.6950	 6.8710
 0.6960	 7.1460
 0.6970	 7.4710
 0.6980	 7.8490
 0.6990	 8.2790
 0.7000	 8.7630
 0.7010	 9.2990
 0.7020	 9.8790
 0.7030	10.5010
 0.7040	11.1610
 0.7050	11.8550
 0.7060	12.5780
 0.7070	13.3280
 0.7080	14.1030
 0.7090	14.9010
 0.7100	15.7250
 0.7110	16.5710
 0.7120	17.4360
 0.7130	18.3210
 0.7140	19.2240
 0.7150	20.1430
 0.7160	21.0750
 0.7170	22.0180
 0.7180	22.9700
 0.7190	23.9290
 0.7200	24.8930
 0.7210	25.8550
 0.7220	26.8100
 0.7230	27.7570
 0.7240	28.6920
 0.7250	29.6110
 0.7260	30.5120
 0.7270	31.3940
 0.7280	32.2520
 0.7290	33.0830
 0.7300	33.8860
 0.7310	34.6590
 0.7320	35.4010
 0.7330	36.1110
 0.7340	36.7860
 0.7350	37.4280
 0.7360	38.0370
 0.7370	38.6120
 0.7380	39.1550
 0.7390	39.6660
 0.7400	40.1430
 0.7410	40.5870
 0.7420	41.0000
 0.7430	41.3840
 0.7440	41.7390
 0.7450	42.0630
 0.7460	42.3580
 0.7470	42.6310
 0.7480	42.8800
 0.7490	43.1030
 0.7500	43.3060
 0.7510	43.4890
 0.7520	43.6550
 0.7530	43.8050
 0.7540	43.9380
 0.7550	44.0570
 0.7560	44.1660
 0.7570	44.2620
 0.7580	44.3500
 0.7590	44.4280
 0.7600	44.4970
 0.7610	44.5600
 0.7620	44.6100
 0.7630	44.6540
 0.7640	44.6970
 0.7650	44.7330
 0.7660	44.7620
 0.7670	44.7860
 0.7680	44.8070
 0.7690	44.8260
 0.7700	44.8430
 0.7710	44.8570
 0.7720	44.8660
 0.7730	44.8760
 0.7740	44.8850
 0.7750	44.8910
 0.7760	44.8970
 0.7770	44.9020
 0.7780	44.9070
 0.7790	44.9140
 0.7800	44.9170
 0.7810	44.9200
 0.7820	44.9240
 0.7830	44.9260
 0.7840	44.9290
 0.7850	44.9310
 0.7860	44.9310
 0.7870	44.9300
 0.7880	44.9290
 0.7890	44.9270
 0.7900	44.9250
 0.7910	44.9200
 0.7920	44.9150
 0.7930	44.9120
 0.7940	44.9090
 0.7950	44.9030
 0.7960	44.8960
 0.7970	44.8880
 0.7980	44.8790
 0.7990	44.8690
 0.8000	44.8590
 0.8010	44.8470
 0.8020	44.8390
 0.8030	44.8300
 0.8040	44.8190
 0.8050	44.8060
 0.8060	44.7890
 0.8070	44.7730
 0.8080	44.7600
 0.8090	44.7460
 0.8100	44.7300
 0.8110	44.7140
 0.8120	44.6980
 0.8130	44.6790
 0.8140	44.6650
 0.8150	44.6490
 0.8160	44.6280
 0.8170	44.6130
 0.8180	44.5980
 0.8190	44.5790
 0.8200	44.5610
 0.8210	44.5480
 0.8220	44.5330
 0.8230	44.5150
 0.8240	44.4970
 0.8250	44.4800
 0.8260	44.4640
 0.8270	44.4480
 0.8280	44.4340
 0.8290	44.4180
 0.8300	44.4030
 0.8310	44.3910
 0.8320	44.3750
 0.8330	44.3610
 0.8340	44.3480
 0.8350	44.3350
 0.8360	44.3260
 0.8370	44.3160
 0.8380	44.3050
 0.8390	44.2960
 0.8400	44.2880
 0.8410	44.2810
 0.8420	44.2760
 0.8430	44.2680
 0.8440	44.2630
 0.8450	44.2590
 0.8460	44.2530
 0.8470	44.2460
 0.8480	44.2460
 0.8490	44.2450
 0.8500	44.2370
 0.8510	44.2310
 0.8520	44.2290
 0.8530	44.2290
 0.8540	44.2250
 0.8550	44.2280
 0.8560	44.2320
 0.8570	44.2330
 0.8580	44.2300
 0.8590	44.2300
 0.8600	44.2320
 0.8610	44.2360
 0.8620	44.2400
 0.8630	44.2430
 0.8640	44.2470
 0.8650	44.2500
 0.8660	44.2520
 0.8670	44.2570
 0.8680	44.2620
 0.8690	44.2640
 0.8700	44.2700
 0.8710	44.2770
 0.8720	44.2860
 0.8730	44.2930
 0.8740	44.2970
 0.8750	44.3030
 0.8760	44.3110
 0.8770	44.3170
 0.8780	44.3260
 0.8790	44.3350
 0.8800	44.3410
 0.8810	44.3450
 0.8820	44.3480
 0.8830	44.3560
 0.8840	44.3700
 0.8850	44.3790
 0.8860	44.3810
 0.8870	44.3850
 0.8880	44.3970
 0.8890	44.4060
 0.8900	44.4110
 0.8910	44.4150
 0.8920	44.4220
 0.8930	44.4280
 0.8940	44.4360
 0.8950	44.4440
 0.8960	44.4510
 0.8970	44.4580
 0.8980	44.4630
 0.8990	44.4690
 0.9000	44.4770
 0.9010	44.4860
 0.9020	44.4900
 0.9030	44.4890
 0.9040	44.4980
 0.9050	44.5070
 0.9060	44.5140
 0.9070	44.5190
 0.9080	44.5260
 0.9090	44.5290
 0.9100	44.5270
 0.9110	44.5260
 0.9120	44.5400
 0.9130	44.5420
 0.9140	44.5360
 0.9150	44.5350
 0.9160	44.5500
 0.9170	44.5540
 0.9180	44.5500
 0.9190	44.5480
 0.9200	44.5480
 0.9210	44.5470
 0.9220	44.5420
 0.9230	44.5330
 0.9240	44.5300
 0.9250	44.5280
 0.9260	44.5220
 0.9270	44.5120
 0.9280	44.5010
 0.9290	44.4860
 0.9300	44.4700
 0.9310	44.4650
 0.9320	44.4590
 0.9330	44.4460
 0.9340	44.4290
 0.9350	44.4170
 0.9360	44.3990
 0.9370	44.3830
 0.9380	44.3730
 0.9390	44.3520
 0.9400	44.3290
 0.9410	44.3080
 0.9420	44.2880
 0.9430	44.2680
 0.9440	44.2450
 0.9450	44.2190
 0.9460	44.1930
 0.9470	44.1640
 0.9480	44.1370
 0.9490	44.1030
 0.9500	44.0620
 0.9510	44.0360
 0.9520	44.0010
 0.9530	43.9650
 0.9540	43.9390
 0.9550	43.8980
 0.9560	43.8520
 0.9570	43.8080
 0.9580	43.7710
 0.9590	43.7460
 0.9600	43.7210
 0.9610	43.6930
 0.9620	43.6630
 0.9630	43.6390
 0.9640	43.6200
 0.9650	43.6040
 0.9660	43.5870
 0.9670	43.5550
 0.9680	43.5370
 0.9690	43.5280
 0.9700	43.5120
 0.9710	43.4900
 0.9720	43.4780
 0.9730	43.4700
 0.9740	43.4520
 0.9750	43.4530
 0.9760	43.4520
 0.9770	43.4410
 0.9780	43.4240
 0.9790	43.4200
 0.9800	43.4200
 0.9810	43.4200
 0.9820	43.4180
 0.9830	43.4080
 0.9840	43.4010
 0.9850	43.4000
 0.9860	43.4020
 0.9870	43.3890
 0.9880	43.3770
 0.9890	43.3770
 0.9900	43.3900
 0.9910	43.4000
 0.9920	43.4010
 0.9930	43.3950
 0.9940	43.3910
 0.9950	43.4000
 0.9960	43.4100
 0.9970	43.4130
 0.9980	43.4080
 0.9990	43.3960
 1.0000	43.4090
 1.0010	44.2920
 1.0020	44.2960
 1.0030	44.3010
 1.0040	44.3090
 1.0050	44.3130
 1.0060	44.3170
 1.0070	44.3240
 1.0080	44.3290
 1.0090	44.3290
 1.0100	44.3330
 1.0110	44.3370
 1.0120	44.3430
 1.0130	44.3540
 1.0140	44.3580
 1.0150	44.3620
 1.0160	44.3620
 1.0170	44.3630
 1.0180	44.3650
 1.0190	44.3680
 1.0200	44.3740
 1.0210	44.3800
 1.0220	44.3840
 1.0230	44.3890
 1.0240	44.3960
 1.0250	44.4020
 1.0260	44.4070
 1.0270	44.4120
 1.0280	44.4170
 1.0290	44.4230
 1.0300	44.4290
 1.0310	44.4340
 1.0320	44.4380
 1.0330	44.4450
 1.0340	44.4520
 1.0350	44.4570
 1.0360	44.4600
 1.0370	44.4610
 1.0380	44.4630
 1.0390	44.4620
 1.0400	44.4660
 1.0410	44.4750
 1.0420	44.4800
 1.0430	44.4880
 1.0440	44.4920
 1.0450	44.4950
 1.0460	44.4980
 1.0470	44.5000
 1.0480	44.5020
 1.0490	44.5060
 1.0500	44.5070
 1.0510	44.5040
 1.0520	44.5050
 1.0530	44.5060
 1.0540	44.5070
 1.0550	44.5090
 1.0560	44.5150
 1.0570	44.5170
 1.0580	44.5160
 1.0590	44.5180
 1.0600	44.5220
 1.0610	44.5230
 1.0620	44.5250
 1.0630	44.5250
 1.0640	44.5190
 1.0650	44.5170
 1.0660	44.5170
 1.0670	44.5150
 1.0680	44.5130
 1.0690	44.5110
 1.0700	44.5090
 1.0710	44.5060
 1.0720	44.5020
 1.0730	44.4990
 1.0740	44.4950
 1.0750	44.4900
 1.0760	44.4860
 1.0770	44.4820
 1.0780	44.4790
 1.0790	44.4790
 1.0800	44.4770
 1.0810	44.4760
 1.0820	44.4730
 1.0830	44.4650
 1.0840	44.4600
 1.0850	44.4570
 1.0860	44.4530
 1.0870	44.4470
 1.0880	44.4430
 1.0890	44.4370
 1.0900	44.4270
 1.0910	44.4220
 1.0920	44.4200
 1.0930	44.4150
 1.0940	44.4110
 1.0950	44.4030
 1.0960	44.3890
 1.0970	44.3800
 1.0980	44.3740
 1.0990	44.3660
 1.1000	44.3600
 1.1010	44.3550
 1.1020	44.3490
 1.1030	44.3430
 1.1040	44.3330
 1.1050	44.3260
 1.1060	44.3190
 1.1070	44.3100
 1.1080	44.3030
 1.1090	44.3010
 1.1100	44.2930
 1.1110	44.2810
 1.1120	44.2720
 1.1130	44.2620
 1.1140	44.2510
 1.1150	44.2420
 1.1160	44.2290
 1.1170	44.2140
 1.1180	44.1990
 1.1190	44.1820
 1.1200	44.1650
 1.1210	44.1470
 1.1220	44.1290
 1.1230	44.1100
 1.1240	44.0870
 1.1250	44.0620
 1.1260	44.0350
 1.1270	44.0040
 1.1280	43.9700
 1.1290	43.9340
 1.1300	43.8960
 1.1310	43.8520
 1.1320	43.8050
 1.1330	43.7530
 1.1340	43.6960
 1.1350	43.6360
 1.1360	43.5690
 1.1370	43.5010
 1.1380	43.4320
 1.1390	43.3580
 1.1400	43.2830
 1.1410	43.2070
 1.1420	43.1280
 1.1430	43.0470
 1.1440	42.9660
 1.1450	42.8820
 1.1460	42.8010
 1.1470	42.7190
 1.1480	42.6430
 1.1490	42.5680
 1.1500	42.4980
 1.1510	42.4310
 1.1520	42.3670
 1.1530	42.3080
 1.1540	42.2510
 1.1550	42.1980
 1.1560	42.1480
 1.1570	42.1010
 1.1580	42.0580
 1.1590	42.0200
 1.1600	41.9880
 1.1610	41.9590
 1.1620	41.9320
 1.1630	41.9080
 1.1640	41.8850
 1.1650	41.8630
 1.1660	41.8450
 1.1670	41.8260
 1.1680	41.8090
 1.1690	41.7930
 1.1700	41.7760
 1.1710	41.7620
 1.1720	41.7520
 1.1730	41.7390
 1.1740	41.7260
 1.1750	41.7140
 1.1760	41.7000
 1.1770	41.6860
 1.1780	41.6730
 1.1790	41.6600
 1.1800	41.6480
 1.1810	41.6350
 1.1820	41.6200
 1.1830	41.6040
 1.1840	41.5900
 1.1850	41.5770
 1.1860	41.5650
 1.1870	41.5560
 1.1880	41.5440
 1.1890	41.5300
 1.1900	41.5200
 1.1910	41.5080
 1.1920	41.4990
 1.1930	41.4920
 1.1940	41.4850
 1.1950	41.4790
 1.1960	41.4740
 1.1970	41.4690
 1.1980	41.4660
 1.1990	41.4630
 1.2000	41.4610
 1.2010	41.4600
 1.2020	41.4610
 1.2030	41.4600
 1.2040	41.4600
 1.2050	41.4590
 1.2060	41.4600
 1.2070	41.4640
 1.2080	41.4690
 1.2090	41.4740
 1.2100	41.4790
 1.2110	41.4850
 1.2120	41.4910
 1.2130	41.4980
 1.2140	41.5060
 1.2150	41.5140
 1.2160	41.5210
 1.2170	41.5280
 1.2180	41.5370
 1.2190	41.5450
 1.2200	41.5570
 1.2210	41.5700
 1.2220	41.5820
 1.2230	41.5940
 1.2240	41.6060
 1.2250	41.6160
 1.2260	41.6260
 1.2270	41.6400
 1.2280	41.6520
 1.2290	41.6610
 1.2300	41.6720
 1.2310	41.6810
 1.2320	41.6880
 1.2330	41.6980
 1.2340	41.7060
 1.2350	41.7110
 1.2360	41.7180
 1.2370	41.7240
 1.2380	41.7290
 1.2390	41.7360
 1.2400	41.7430
 1.2410	41.7500
 1.2420	41.7550
 1.2430	41.7590
 1.2440	41.7630
 1.2450	41.7660
 1.2460	41.7710
 1.2470	41.7780
 1.2480	41.7820
 1.2490	41.7860
 1.2500	41.7880
 1.2510	41.7910
 1.2520	41.7930
 1.2530	41.7940
 1.2540	41.7970
 1.2550	41.7980
 1.2560	41.7960
 1.2570	41.7950
 1.2580	41.7910
 1.2590	41.7880
 1.2600	41.7860
 1.2610	41.7840
 1.2620	41.7820
 1.2630	41.7800
 1.2640	41.7760
 1.2650	41.7700
 1.2660	41.7640
 1.2670	41.7580
 1.2680	41.7530
 1.2690	41.7480
 1.2700	41.7420
 1.2710	41.7340
 1.2720	41.7270
 1.2730	41.7180
 1.2740	41.7080
 1.2750	41.6990
 1.2760	41.6880
 1.2770	41.6780
 1.2780	41.6670
 1.2790	41.6540
 1.2800	41.6400
 1.2810	41.6250
 1.2820	41.6080
 1.2830	41.5910
 1.2840	41.5740
 1.2850	41.5530
 1.2860	41.5330
 1.2870	41.5130
 1.2880	41.4910
 1.2890	41.4670
 1.2900	41.4440
 1.2910	41.4200
 1.2920	41.3920
 1.2930	41.3640
 1.2940	41.3340
 1.2950	41.3020
 1.2960	41.2700
 1.2970	41.2370
 1.2980	41.2040
 1.2990	41.1680
 1.3000	41.1290
 1.3010	41.0910
 1.3020	41.0500
 1.3030	41.0080
 1.3040	40.9660
 1.3050	40.9210
 1.3060	40.8760
 1.3070	40.8300
 1.3080	40.7810
 1.3090	40.7320
 1.3100	40.6820
 1.3110	40.6290
 1.3120	40.5740
 1.3130	40.5170
 1.3140	40.4590
 1.3150	40.4010
 1.3160	40.3400
 1.3170	40.2780
 1.3180	40.2140
 1.3190	40.1500
 1.3200	40.0820
 1.3210	40.0130
 1.3220	39.9430
 1.3230	39.8700
 1.3240	39.7960
 1.3250	39.7210
 1.3260	39.6450
 1.3270	39.5670
 1.3280	39.4880
 1.3290	39.4050
 1.3300	39.3200
 1.3310	39.2350
 1.3320	39.1470
 1.3330	39.0620
 1.3340	38.9760
 1.3350	38.8880
 1.3360	38.8020
 1.3370	38.7130
 1.3380	38.6230
 1.3390	38.5330
 1.3400	38.4430
 1.3410	38.3540
 1.3420	38.2670
 1.3430	38.1810
 1.3440	38.0940
 1.3450	38.0080
 1.3460	37.9230
 1.3470	37.8390
 1.3480	37.7530
 1.3490	37.6690
 1.3500	37.5870
 1.3510	37.5030
 1.3520	37.4200
 1.3530	37.3390
 1.3540	37.2550
 1.3550	37.1710
 1.3560	37.0870
 1.3570	37.0000
 1.3580	36.9130
 1.3590	36.8250
 1.3600	36.7340
 1.3610	36.6420
 1.3620	36.5460
 1.3630	36.4460
 1.3640	36.3400
 1.3650	36.2300
 1.3660	36.1170
 1.3670	35.9980
 1.3680	35.8720
 1.3690	35.7370
 1.3700	35.5890
 1.3710	35.4290
 1.3720	35.2570
 1.3730	35.0710
 1.3740	34.8730
 1.3750	34.6600
 1.3760	34.4300
 1.3770	34.1820
 1.3780	33.9140
 1.3790	33.6270
 1.3800	33.3200
 1.3810	32.9890
 1.3820	32.6400
 1.3830	32.2720
 1.3840	31.8850
 1.3850	31.4790
 1.3860	31.0550
 1.3870	30.6090
 1.3880	30.1540
 1.3890	29.6830
 1.3900	29.1980
 1.3910	28.7090
 1.3920	28.2120
 1.3930	27.7080
 1.3940	27.2030
 1.3950	26.6910
 1.3960	26.1830
 1.3970	25.6800
 1.3980	25.1830
 1.3990	24.7030
 1.4000	24.2320
 1.4010	23.7710
 1.4020	23.3260
 1.4030	22.8930
 1.4040	22.4760
 1.4050	22.0800
 1.4060	21.7000
 1.4070	21.3400
 1.4080	20.9990
 1.4090	20.6740
 1.4100	20.3700
 1.4110	20.0810
 1.4120	19.8100
 1.4130	19.5580
 1.4140	19.3190
 1.4150	19.1000
 1.4160	18.8970
 1.4170	18.7060
 1.4180	18.5290
 1.4190	18.3640
 1.4200	18.2090
 1.4210	18.0660
 1.4220	17.9330
 1.4230	17.8110
 1.4240	17.6990
 1.4250	17.5940
 1.4260	17.4990
 1.4270	17.4100
 1.4280	17.3290
 1.4290	17.2540
 1.4300	17.1870
 1.4310	17.1270
 1.4320	17.0730
 1.4330	17.0240
 1.4340	16.9800
 1.4350	16.9400
 1.4360	16.9050
 1.4370	16.8740
 1.4380	16.8490
 1.4390	16.8270
 1.4400	16.8090
 1.4410	16.7950
 1.4420	16.7840
 1.4430	16.7760
 1.4440	16.7710
 1.4450	16.7680
 1.4460	16.7680
 1.4470	16.7700
 1.4480	16.7750
 1.4490	16.7810
 1.4500	16.7880
 1.4510	16.7960
 1.4520	16.8070
 1.4530	16.8210
 1.4540	16.8360
 1.4550	16.8540
 1.4560	16.8750
 1.4570	16.8990
 1.4580	16.9250
 1.4590	16.9550
 1.4600	16.9890
 1.4610	17.0270
 1.4620	17.0690
 1.4630	17.1160
 1.4640	17.1670
 1.4650	17.2250
 1.4660	17.2870
 1.4670	17.3550
 1.4680	17.4280
 1.4690	17.5060
 1.4700	17.5880
 1.4710	17.6740
 1.4720	17.7620
 1.4730	17.8550
 1.4740	17.9510
 1.4750	18.0500
 1.4760	18.1540
 1.4770	18.2580
 1.4780	18.3650
 1.4790	18.4750
 1.4800	18.5860
 1.4810	18.6980
 1.4820	18.8130
 1.4830	18.9270
 1.4840	19.0440
 1.4850	19.1610
 1.4860	19.2800
 1.4870	19.4010
 1.4880	19.5210
 1.4890	19.6420
 1.4900	19.7640
 1.4910	19.8860
 1.4920	20.0080
 1.4930	20.1320
 1.4940	20.2560
 1.4950	20.3810
 1.4960	20.5060
 1.4970	20.6300
 1.4980	20.7540
 1.4990	20.8790
 1.5000	21.0030
 1.5010	21.1290
 1.5020	21.2530
 1.5030	21.3790
 1.5040	21.5040
 1.5050	21.6270
 1.5060	21.7510
 1.5070	21.8730
 1.5080	21.9960
 1.5090	22.1190
 1.5100	22.2420
 1.5110	22.3640
 1.5120	22.4860
 1.5130	22.6070
 1.5140	22.7250
 1.5150	22.8450
 1.5160	22.9630
 1.5170	23.0820
 1.5180	23.1990
 1.5190	23.3160
 1.5200	23.4340
 1.5210	23.5490
 1.5220	23.6630
 1.5230	23.7760
 1.5240	23.8870
 1.5250	23.9980
 1.5260	24.1080
 1.5270	24.2180
 1.5280	24.3270
 1.5290	24.4360
 1.5300	24.5440
 1.5310	24.6500
 1.5320	24.7550
 1.5330	24.8570
 1.5340	24.9580
 1.5350	25.0600
 1.5360	25.1610
 1.5370	25.2610
 1.5380	25.3610
 1.5390	25.4590
 1.5400	25.5560
 1.5410	25.6520
 1.5420	25.7470
 1.5430	25.8420
 1.5440	25.9360
 1.5450	26.0300
 1.5460	26.1220
 1.5470	26.2120
 1.5480	26.3020
 1.5490	26.3930
 1.5500	26.4810
 1.5510	26.5680
 1.5520	26.6540
 1.5530	26.7380
 1.5540	26.8210
 1.5550	26.9040
 1.5560	26.9850
 1.5570	27.0660
 1.5580	27.1460
 1.5590	27.2250
 1.5600	27.3040
 1.5610	27.3790
 1.5620	27.4540
 1.5630	27.5280
 1.5640	27.6000
 1.5650	27.6720
 1.5660	27.7440
 1.5670	27.8160
 1.5680	27.8870
 1.5690	27.9570
 1.5700	28.0250
 1.5710	28.0910
 1.5720	28.1560
 1.5730	28.2220
 1.5740	28.2870
 1.5750	28.3520
 1.5760	28.4180
 1.5770	28.4820
 1.5780	28.5450
 1.5790	28.6070
 1.5800	28.6680
 1.5810	28.7280
 1.5820	28.7870
 1.5830	28.8460
 1.5840	28.9040
 1.5850	28.9630
 1.5860	29.0210
 1.5870	29.0790
 1.5880	29.1370
 1.5890	29.1950
 1.5900	29.2500
 1.5910	29.3060
 1.5920	29.3620
 1.5930	29.4150
 1.5940	29.4680
 1.5950	29.5210
 1.5960	29.5730
 1.5970	29.6240
 1.5980	29.6750
 1.5990	29.7250
 1.6000	29.7760
 1.6010	29.8250
 1.6020	29.8740
 1.6030	29.9230
 1.6040	29.9700
 1.6050	30.0160
 1.6060	30.0620
 1.6070	30.1060
 1.6080	30.1490
 1.6090	30.1910
 1.6100	30.2340
 1.6110	30.2770
 1.6120	30.3190
 1.6130	30.3620
 1.6140	30.4020
 1.6150	30.4420
 1.6160	30.4820
 1.6170	30.5200
 1.6180	30.5570
 1.6190	30.5940
 1.6200	30.6300
 1.6210	30.6640
 1.6220	30.6960
 1.6230	30.7280
 1.6240	30.7610
 1.6250	30.7930
 1.6260	30.8250
 1.6270	30.8570
 1.6280	30.8860
 1.6290	30.9160
 1.6300	30.9470
 1.6310	30.9760
 1.6320	31.0050
 1.6330	31.0330
 1.6340	31.0590
 1.6350	31.0840
 1.6360	31.1090
 1.6370	31.1330
 1.6380	31.1580
 1.6390	31.1810
 1.6400	31.2020
 1.6410	31.2220
 1.6420	31.2400
 1.6430	31.2570
 1.6440	31.2710
 1.6450	31.2860
 1.6460	31.2990
 1.6470	31.3120
 1.6480	31.3220
 1.6490	31.3320
 1.6500	31.3400
 1.6510	31.3480
 1.6520	31.3570
 1.6530	31.3620
 1.6540	31.3670
 1.6550	31.3690
 1.6560	31.3690
 1.6570	31.3700
 1.6580	31.3700
 1.6590	31.3680
 1.6600	31.3660
 1.6610	31.3620
 1.6620	31.3550
 1.6630	31.3490
 1.6640	31.3420
 1.6650	31.3350
 1.6660	31.3290
 1.6670	31.3230
 1.6680	31.3150
 1.6690	31.3070
 1.6700	31.2970
 1.6710	31.2840
 1.6720	31.2690
 1.6730	31.2520
 1.6740	31.2320
 1.6750	31.2110
 1.6760	31.1910
 1.6770	31.1700
 1.6780	31.1470
 1.6790	31.1240
 1.6800	31.0980
 1.6810	31.0690
 1.6820	31.0410
 1.6830	31.0130
 1.6840	30.9830
 1.6850	30.9550
 1.6860	30.9240
 1.6870	30.8920
 1.6880	30.8590
 1.6890	30.8250
 1.6900	30.7910
 1.6910	30.7560
 1.6920	30.7210
 1.6930	30.6870
 1.6940	30.6530
 1.6950	30.6190
 1.6960	30.5850
 1.6970	30.5510
 1.6980	30.5170
 1.6990	30.4840
 1.7000	30.4480
 1.7010	30.4110
 1.7020	30.3730
 1.7030	30.3340
 1.7040	30.2950
 1.7050	30.2560
 1.7060	30.2160
 1.7070	30.1750
 1.7080	30.1350
 1.7090	30.0940
 1.7100	30.0540
 1.7110	30.0130
 1.7120	29.9730
 1.7130	29.9310
 1.7140	29.8890
 1.7150	29.8470
 1.7160	29.8040
 1.7170	29.7630
 1.7180	29.7230
 1.7190	29.6820
 1.7200	29.6410
 1.7210	29.5990
 1.7220	29.5560
 1.7230	29.5120
 1.7240	29.4670
 1.7250	29.4230
 1.7260	29.3810
 1.7270	29.3400
 1.7280	29.3030
 1.7290	29.2670
 1.7300	29.2300
 1.7310	29.1960
 1.7320	29.1630
 1.7330	29.1330
 1.7340	29.1090
 1.7350	29.0830
 1.7360	29.0590
 1.7370	29.0340
 1.7380	29.0090
 1.7390	28.9830
 1.7400	28.9570
 1.7410	28.9260
 1.7420	28.8940
 1.7430	28.8580
 1.7440	28.8180
 1.7450	28.7780
 1.7460	28.7370
 1.7470	28.6930
 1.7480	28.6480
 1.7490	28.6020
 1.7500	28.5550
 1.7510	28.5060
 1.7520	28.4570
 1.7530	28.4050
 1.7540	28.3510
 1.7550	28.2970
 1.7560	28.2420
 1.7570	28.1870
 1.7580	28.1330
 1.7590	28.0800
 1.7600	28.0290
 1.7610	27.9800
 1.7620	27.9310
 1.7630	27.8840
 1.7640	27.8380
 1.7650	27.7930
 1.7660	27.7510
 1.7670	27.7090
 1.7680	27.6710
 1.7690	27.6360
 1.7700	27.6020
 1.7710	27.5720
 1.7720	27.5410
 1.7730	27.5110
 1.7740	27.4820
 1.7750	27.4520
 1.7760	27.4250
 1.7770	27.3980
 1.7780	27.3730
 1.7790	27.3480
 1.7800	27.3260
 1.7810	27.3050
 1.7820	27.2860
 1.7830	27.2680
 1.7840	27.2520
 1.7850	27.2390
 1.7860	27.2260
 1.7870	27.2160
 1.7880	27.2050
 1.7890	27.1970
 1.7900	27.1890
 1.7910	27.1830
 1.7920	27.1800
 1.7930	27.1780
 1.7940	27.1780
 1.7950	27.1770
 1.7960	27.1760
 1.7970	27.1760
 1.7980	27.1760
 1.7990	27.1780
 1.8000	27.1850
 1.8010	27.1900
 1.8020	27.1950
 1.8030	27.2020
 1.8040	27.2080
 1.8050	27.2140
 1.8060	27.2220
 1.8070	27.2280
 1.8080	27.2310
 1.8090	27.2370
 1.8100	27.2430
 1.8110	27.2470
 1.8120	27.2530
 1.8130	27.2570
 1.8140	27.2590
 1.8150	27.2610
 1.8160	27.2610
 1.8170	27.2600
 1.8180	27.2600
 1.8190	27.2560
 1.8200	27.2540
 1.8210	27.2510
 1.8220	27.2480
 1.8230	27.2480
 1.8240	27.2430
 1.8250	27.2350
 1.8260	27.2260
 1.8270	27.2140
 1.8280	27.2010
 1.8290	27.1860
 1.8300	27.1690
 1.8310	27.0360
 1.8320	27.0140
 1.8330	26.9940
 1.8340	26.9670
 1.8350	26.9310
 1.8360	26.8960
 1.8370	26.8540
 1.8380	26.8080
 1.8390	26.7570
 1.8400	26.6980
 1.8410	26.6380
 1.8420	26.5750
 1.8430	26.5070
 1.8440	26.4340
 1.8450	26.3540
 1.8460	26.2620
 1.8470	26.1630
 1.8480	26.0560
 1.8490	25.9420
 1.8500	25.8170
 1.8510	25.6840
 1.8520	25.5380
 1.8530	25.3820
 1.8540	25.2150
 1.8550	25.0360
 1.8560	24.8460
 1.8570	24.6420
 1.8580	24.4210
 1.8590	24.1860
 1.8600	23.9380
 1.8610	23.6710
 1.8620	23.3870
 1.8630	23.0900
 1.8640	22.7720
 1.8650	22.4360
 1.8660	22.0870
 1.8670	21.7150
 1.8680	21.3250
 1.8690	20.9180
 1.8700	20.4890
 1.8710	20.0380
 1.8720	19.5730
 1.8730	19.0940
 1.8740	18.5990
 1.8750	18.0940
 1.8760	17.5720
 1.8770	17.0390
 1.8780	16.5050
 1.8790	15.9610
 1.8800	15.4190
 1.8810	14.8770
 1.8820	14.3340
 1.8830	13.7860
 1.8840	13.2450
 1.8850	12.7040
 1.8860	12.1730
 1.8870	11.6540
 1.8880	11.1430
 1.8890	10.6530
 1.8900	10.1810
 1.8910	 9.7320
 1.8920	 9.3020
 1.8930	 8.8990
 1.8940	 8.5160
 1.8950	 8.1580
 1.8960	 7.8220
 1.8970	 7.5060
 1.8980	 7.2170
 1.8990	 6.9510
 1.9000	 6.7060
 1.9010	 6.4850
 1.9020	 6.2800
 1.9030	 6.0950
 1.9040	 5.9300
 1.9050	 5.7800
 1.9060	 5.6450
 1.9070	 5.5260
 1.9080	 5.4150
 1.9090	 5.3150
 1.9100	 5.2290
 1.9110	 5.1500
 1.9120	 5.0830
 1.9130	 5.0210
 1.9140	 4.9680
 1.9150	 4.9170
 1.9160	 4.8750
 1.9170	 4.8390
 1.9180	 4.8050
 1.9190	 4.7760
 1.9200	 4.7500
 1.9210	 4.7260
 1.9220	 4.7050
 1.9230	 4.6880
 1.9240	 4.6750
 1.9250	 4.6660
 1.9260	 4.6570
 1.9270	 4.6540
 1.9280	 4.6510
 1.9290	 4.6510
 1.9300	 4.6550
 1.9310	 4.6610
 1.9320	 4.6710
 1.9330	 4.6800
 1.9340	 4.6900
 1.9350	 4.7020
 1.9360	 4.7130
 1.9370	 4.7280
 1.9380	 4.7450
 1.9390	 4.7660
 1.9400	 4.7910
 1.9410	 4.8180
 1.9420	 4.8420
 1.9430	 4.8670
 1.9440	 4.8950
 1.9450	 4.9230
 1.9460	 4.9540
 1.9470	 4.9910
 1.9480	 5.0260
 1.9490	 5.0600
 1.9500	 5.0960
 1.9510	 5.1340
 1.9520	 5.1730
 1.9530	 5.2130
 1.9540	 5.2560
 1.9550	 5.2990
 1.9560	 5.3410
 1.9570	 5.3860
 1.9580	 5.4340
 1.9590	 5.4810
 1.9600	 5.5290
 1.9610	 5.5770
 1.9620	 5.6250
 1.9630	 5.6760
 1.9640	 5.7290
 1.9650	 5.7830
 1.9660	 5.8390
 1.9670	 5.8950
 1.9680	 5.9510
 1.9690	 6.0060
 1.9700	 6.0630
 1.9710	 6.1210
 1.9720	 6.1810
 1.9730	 6.2420
 1.9740	 6.3060
 1.9750	 6.3690
 1.9760	 6.4310
 1.9770	 6.4960
 1.9780	 6.5610
 1.9790	 6.6270
 1.9800	 6.6940
 1.9810	 6.7620
 1.9820	 6.8330
 1.9830	 6.9030
 1.9840	 6.9750
 1.9850	 7.0460
 1.9860	 7.1150
 1.9870	 7.1870
 1.9880	 7.2600
 1.9890	 7.3330
 1.9900	 7.4080
 1.9910	 7.4810
 1.9920	 7.5550
 1.9930	 7.6280
 1.9940	 7.7030
 1.9950	 7.7790
 1.9960	 7.8550
 1.9970	 7.9320
 1.9980	 8.0090
 1.9990	 8.0880
 2.0000	 8.1640
 2.0010	 8.2370
 2.0020	 8.3150
 2.0030	 8.3920
 2.0040	 8.4690
 2.0050	 8.5480
 2.0060	 8.6300
 2.0070	 8.7090
 2.0080	 8.7850
 2.0090	 8.8620
 2.0100	 8.9380
 2.0110	 9.0140
 2.0120	 9.0900
 2.0130	 9.1670
 2.0140	 9.2420
 2.0150	 9.3200
 2.0160	 9.3980
 2.0170	 9.4720
 2.0180	 9.5480
 2.0190	 9.6240
 2.0200	 9.6980
 2.0210	 9.7730
 2.0220	 9.8460
 2.0230	 9.9200
 2.0240	 9.9920
 2.0250	10.0620
 2.0260	10.1330
 2.0270	10.2020
 2.0280	10.2700
 2.0290	10.3380
 2.0300	10.4050
 2.0310	10.4720
 2.0320	10.5380
 2.0330	10.6030
 2.0340	10.6660
 2.0350	10.7290
 2.0360	10.7910
 2.0370	10.8520
 2.0380	10.9140
 2.0390	10.9750
 2.0400	11.0380
 2.0410	11.0990
 2.0420	11.1600
 2.0430	11.2180
 2.0440	11.2760
 2.0450	11.3310
 2.0460	11.3880
 2.0470	11.4450
 2.0480	11.5010
 2.0490	11.5560
 2.0500	11.6120
 2.0510	11.6660
 2.0520	11.7210
 2.0530	11.7790
 2.0540	11.8360
 2.0550	11.8920
 2.0560	11.9480
 2.0570	12.0070
 2.0580	12.0670
 2.0590	12.1280
 2.0600	12.1910
 2.0610	12.2520
 2.0620	12.3120
 2.0630	12.3720
 2.0640	12.4330
 2.0650	12.4940
 2.0660	12.5570
 2.0670	12.6210
 2.0680	12.6860
 2.0690	12.7490
 2.0700	12.8120
 2.0710	12.8760
 2.0720	12.9410
 2.0730	13.0020
 2.0740	13.0630
 2.0750	13.1230
 2.0760	13.1840
 2.0770	13.2430
 2.0780	13.3040
 2.0790	13.3670
 2.0800	13.4290
 2.0810	13.4890
 2.0820	13.5510
 2.0830	13.6140
 2.0840	13.6750
 2.0850	13.7370
 2.0860	13.7970
 2.0870	13.8550
 2.0880	13.9130
 2.0890	13.9690
 2.0900	14.0250
 2.0910	14.0800
 2.0920	14.1340
 2.0930	14.1890
 2.0940	14.2430
 2.0950	14.3000
 2.0960	14.3590
 2.0970	14.4160
 2.0980	14.4730
 2.0990	14.5300
 2.1000	14.5840
 2.1010	14.6390
 2.1020	14.6920
 2.1030	14.7470
 2.1040	14.8010
 2.1050	14.8590
 2.1060	14.9130
 2.1070	14.9690
 2.1080	15.0220
 2.1090	15.0720
 2.1100	15.1240
 2.1110	15.1740
 2.1120	15.2260
 2.1130	15.2780
 2.1140	15.3300
 2.1150	15.3820
 2.1160	15.4330
 2.1170	15.4820
 2.1180	15.5330
 2.1190	15.5880
 2.1200	15.6380
 2.1210	15.6860
 2.1220	15.7350
 2.1230	15.7780
 2.1240	15.8150
 2.1250	15.8580
 2.1260	15.9010
 2.1270	15.9450
 2.1280	15.9940
 2.1290	16.0360
 2.1300	16.0760
 2.1310	16.1150
 2.1320	16.1510
 2.1330	16.1880
 2.1340	16.2270
 2.1350	16.2630
 2.1360	16.2980
 2.1370	16.3320
 2.1380	16.3630
 2.1390	16.3970
 2.1400	16.4340
 2.1410	16.4660
 2.1420	16.4960
 2.1430	16.5250
 2.1440	16.5520
 2.1450	16.5740
 2.1460	16.6000
 2.1470	16.6270
 2.1480	16.6550
 2.1490	16.6840
 2.1500	16.7130
 2.1510	16.7430
 2.1520	16.7680
 2.1530	16.7900
 2.1540	16.8130
 2.1550	16.8350
 2.1560	16.8540
 2.1570	16.8710
 2.1580	16.8890
 2.1590	16.9070
 2.1600	16.9230
 2.1610	16.9410
 2.1620	16.9570
 2.1630	16.9760
 2.1640	16.9940
 2.1650	17.0110
 2.1660	17.0320
 2.1670	17.0480
 2.1680	17.0610
 2.1690	17.0760
 2.1700	17.0920
 2.1710	17.1080
 2.1720	17.1240
 2.1730	17.1420
 2.1740	17.1620
 2.1750	17.1820
 2.1760	17.2050
 2.1770	17.2260
 2.1780	17.2450
 2.1790	17.2650
 2.1800	17.2850
 2.1810	17.3050
 2.1820	17.3230
 2.1830	17.3460
 2.1840	17.3660
 2.1850	17.3870
 2.1860	17.4050
 2.1870	17.4210
 2.1880	17.4420
 2.1890	17.4660
 2.1900	17.4890
 2.1910	17.5160
 2.1920	17.5380
 2.1930	17.5520
 2.1940	17.5740
 2.1950	17.6000
 2.1960	17.6220
 2.1970	17.6490
 2.1980	17.6680
 2.1990	17.6780
 2.2000	17.6940
 2.2010	17.7100
 2.2020	17.7240
 2.2030	17.7410
 2.2040	17.7550
 2.2050	17.7640
 2.2060	17.7740
 2.2070	17.7840
 2.2080	17.7950
 2.2090	17.7990
 2.2100	17.8010
 2.2110	17.8020
 2.2120	17.7970
 2.2130	17.7940
 2.2140	17.7930
 2.2150	17.7900
 2.2160	17.7880
 2.2170	17.7810
 2.2180	17.7730
 2.2190	17.7630
 2.2200	17.7510
 2.2210	17.7380
 2.2220	17.7260
 2.2230	17.7100
 2.2240	17.6910
 2.2250	17.6670
 2.2260	17.6400
 2.2270	17.6090
 2.2280	17.5720
 2.2290	17.5340
 2.2300	17.4940
 2.2310	17.4500
 2.2320	17.4060
 2.2330	17.3640
 2.2340	17.3190
 2.2350	17.2740
 2.2360	17.2260
 2.2370	17.1760
 2.2380	17.1200
 2.2390	17.0580
 2.2400	16.9990
 2.2410	16.9360
 2.2420	16.8790
 2.2430	16.8280
 2.2440	16.7690
 2.2450	16.7060
 2.2460	16.6470
 2.2470	16.5850
 2.2480	16.5270
 2.2490	16.4750
 2.2500	16.4230
 2.2510	16.3730
 2.2520	16.3210
 2.2530	16.2720
 2.2540	16.2180
 2.2550	16.1610
 2.2560	16.1040
 2.2570	16.0430
 2.2580	15.9870
 2.2590	15.9340
 2.2600	15.8800
 2.2610	15.8330
 2.2620	15.7780
 2.2630	15.7180
 2.2640	15.6530
 2.2650	15.5850
 2.2660	15.5270
 2.2670	15.4700
 2.2680	15.4190
 2.2690	15.3640
 2.2700	15.3100
 2.2710	15.2570
 2.2720	15.2030
 2.2730	15.1520
 2.2740	15.1050
 2.2750	15.0550
 2.2760	15.0040
 2.2770	14.9530
 2.2780	14.8970
 2.2790	14.8480
 2.2800	14.8030
 2.2810	14.7550
 2.2820	14.7130
 2.2830	14.6630
 2.2840	14.6050
 2.2850	14.5520
 2.2860	14.4970
 2.2870	14.4460
 2.2880	14.4000
 2.2890	14.3520
 2.2900	14.3070
 2.2910	14.2580
 2.2920	14.2030
 2.2930	14.1510
 2.2940	14.0990
 2.2950	14.0440
 2.2960	13.9870
 2.2970	13.9330
 2.2980	13.8770
 2.2990	13.8210
 2.3000	13.7640
 2.3010	13.7090
 2.3020	13.6470
 2.3030	13.5850
 2.3040	13.5230
 2.3050	13.4580
 2.3060	13.3940
 2.3070	13.3300
 2.3080	13.2760
 2.3090	13.2260
 2.3100	13.1750
 2.3110	13.1250
 2.3120	13.0790
 2.3130	13.0290
 2.3140	12.9930
 2.3150	12.9670
 2.3160	12.9420
 2.3170	12.9230
 2.3180	12.9040
 2.3190	12.8920
 2.3200	12.8740
 2.3210	12.8590
 2.3220	12.8370
 2.3230	12.8070
 2.3240	12.7820
 2.3250	12.7590
 2.3260	12.7280
 2.3270	12.6970
 2.3280	12.6600
 2.3290	12.6130
 2.3300	12.5720
 2.3310	12.5320
 2.3320	12.4870
 2.3330	12.4410
 2.3340	12.3920
 2.3350	12.3340
 2.3360	12.2840
 2.3370	12.2390
 2.3380	12.1890
 2.3390	12.1410
 2.3400	12.0900
 2.3410	12.0320
 2.3420	11.9780
 2.3430	11.9260
 2.3440	11.8730
 2.3450	11.8180
 2.3460	11.7680
 2.3470	11.7230
 2.3480	11.6740
 2.3490	11.6250
 2.3500	11.5780
 2.3510	11.5250
 2.3520	11.4830
 2.3530	11.4500
 2.3540	11.4170
 2.3550	11.3840
 2.3560	11.3520
 2.3570	11.3050
 2.3580	11.2520
 2.3590	11.2120
 2.3600	11.1730
 2.3610	11.1430
 2.3620	11.1140
 2.3630	11.0740
 2.3640	11.0320
 2.3650	10.9870
 2.3660	10.9400
 2.3670	10.8950
 2.3680	10.8510
 2.3690	10.8130
 2.3700	10.7700
 2.3710	10.7220
 2.3720	10.6760
 2.3730	10.6260
 2.3740	10.5760
 2.3750	10.5350
 2.3760	10.4870
 2.3770	10.4380
 2.3780	10.3930
 2.3790	10.3460
 2.3800	10.3010
 2.3810	10.2580
 2.3820	10.2120
 2.3830	10.1680
 2.3840	10.1230
 2.3850	10.0780
 2.3860	10.0340
 2.3870	 9.9810
 2.3880	 9.9360
 2.3890	 9.8870
 2.3900	 9.8290
 2.3910	 9.7860
 2.3920	 9.7460
 2.3930	 9.6960
 2.3940	 9.6480
 2.3950	 9.6020
 2.3960	 9.5430
 2.3970	 9.4900
 2.3980	 9.4570
 2.3990	 9.4150
 2.4000	 9.3650
 2.4010	 9.3140
 2.4020	 9.2490
 2.4030	 9.1780
 2.4040	 9.1170
 2.4050	 9.0700
 2.4060	 9.0290
 2.4070	 8.9950
 2.4080	 8.9510
 2.4090	 8.8900
 2.4100	 8.8360
 2.4110	 8.7860
 2.4120	 8.7340
 2.4130	 8.6770
 2.4140	 8.6190
 2.4150	 8.5740
 2.4160	 8.5290
 2.4170	 8.4940
 2.4180	 8.4630
 2.4190	 8.3990
 2.4200	 8.3410
 2.4210	 8.2960
 2.4220	 8.2460
 2.4230	 8.2140
 2.4240	 8.1840
 2.4250	 8.1360
 2.4260	 8.0830
 2.4270	 8.0230
 2.4280	 7.9540
 2.4290	 7.8880
 2.4300	 7.8230
 2.4310	 7.7810
 2.4320	 7.7420
 2.4330	 7.6980
 2.4340	 7.6610
 2.4350	 7.6080
 2.4360	 7.5370
 2.4370	 7.4670
 2.4380	 7.4060
 2.4390	 7.3470
 2.4400	 7.2950
 2.4410	 7.2560
 2.4420	 7.2190
 2.4430	 7.1760
 2.4440	 7.1160
 2.4450	 7.0570
 2.4460	 6.9950
 2.4470	 6.9350
 2.4480	 6.9020
 2.4490	 6.8570
 2.4500	 6.8070
 2.4510	 6.7710
 2.4520	 6.7240
 2.4530	 6.6890
 2.4540	 6.6620
 2.4550	 6.6270
 2.4560	 6.5800
 2.4570	 6.5220
 2.4580	 6.4770
 2.4590	 6.4330
 2.4600	 6.3890
 2.4610	 6.3540
 2.4620	 6.3100
 2.4630	 6.2670
 2.4640	 6.2310
 2.4650	 6.1960
 2.4660	 6.1670
 2.4670	 6.1350
 2.4680	 6.0930
 2.4690	 6.0720
 2.4700	 6.0420
 2.4710	 6.0000
 2.4720	 5.9700
 2.4730	 5.9540
 2.4740	 5.9230
 2.4750	 5.8890
 2.4760	 5.8560
 2.4770	 5.8080
 2.4780	 5.7620
 2.4790	 5.7220
 2.4800	 5.6920
 2.4810	 5.6660
 2.4820	 5.6490
 2.4830	 5.6440
 2.4840	 5.6510
 2.4850	 5.6260
 2.4860	 5.5860
 2.4870	 5.5320
 2.4880	 5.4370
 2.4890	 5.3830
 2.4900	 5.3940
 2.4910	 5.3660
 2.4920	 5.3300
 2.4930	 5.3050
 2.4940	 5.2500
 2.4950	 5.2460
 2.4960	 5.2960
 2.4970	 5.3020
 2.4980	 5.3400
 2.4990	 5.3690
 2.5000	 5.3430
