Name: Acer pensylvanicum
Type: Vegetation
Class: Tree
Genus: Acer
Species: pensylvanicum
Sample No.: ACPE-1-67
Owner: UCSB
Wavelength Range: VSWIR
Origin: USA; Massachusetts; Harvard Forest
Collection Date: 7/8/2013
Description: Samples were collected as part of NSF Macrosystem Biology proposal titled: Collaborative Research: Thermal controls on ecosystem metabolism and function: scaling from leaves to canopies to regions. Samples were collected and overnighted to JPL facilities for processing. The same leaves were processed in the Nicolet and then measured using the ASD.
Measurement: Bidirectional reflectance
First Column: X
Second Column: Y
X Units: Wavelength (micrometers)
Y Units: Reflectance (percentage)
First X Value: 0.35
Last X Value: 2.5
Number of X Values: 2151
Additional Information: vegetation.tree.acer.pensylvanicum.vswir.acpe-1-67.ucsb.asd.ancillary.txt

 0.3500	 4.3340
 0.3510	 4.4310
 0.3520	 4.4510
 0.3530	 4.4810
 0.3540	 4.5820
 0.3550	 4.5500
 0.3560	 4.6110
 0.3570	 4.6610
 0.3580	 4.4800
 0.3590	 4.3930
 0.3600	 4.4470
 0.3610	 4.5610
 0.3620	 4.5290
 0.3630	 4.5180
 0.3640	 4.5460
 0.3650	 4.5580
 0.3660	 4.3900
 0.3670	 4.3220
 0.3680	 4.4290
 0.3690	 4.6140
 0.3700	 4.6540
 0.3710	 4.5960
 0.3720	 4.5060
 0.3730	 4.3830
 0.3740	 4.4770
 0.3750	 4.6080
 0.3760	 4.5410
 0.3770	 4.5020
 0.3780	 4.4790
 0.3790	 4.4770
 0.3800	 4.5160
 0.3810	 4.5450
 0.3820	 4.5760
 0.3830	 4.6120
 0.3840	 4.6160
 0.3850	 4.6120
 0.3860	 4.5990
 0.3870	 4.5780
 0.3880	 4.6200
 0.3890	 4.6430
 0.3900	 4.6180
 0.3910	 4.5770
 0.3920	 4.6040
 0.3930	 4.6770
 0.3940	 4.7440
 0.3950	 4.7370
 0.3960	 4.7110
 0.3970	 4.6900
 0.3980	 4.6790
 0.3990	 4.6620
 0.4000	 4.6660
 0.4010	 4.6850
 0.4020	 4.6670
 0.4030	 4.6390
 0.4040	 4.6470
 0.4050	 4.7060
 0.4060	 4.7340
 0.4070	 4.7450
 0.4080	 4.7320
 0.4090	 4.6840
 0.4100	 4.6920
 0.4110	 4.7160
 0.4120	 4.7190
 0.4130	 4.6880
 0.4140	 4.7110
 0.4150	 4.7400
 0.4160	 4.7060
 0.4170	 4.7000
 0.4180	 4.7030
 0.4190	 4.6970
 0.4200	 4.6810
 0.4210	 4.6850
 0.4220	 4.7010
 0.4230	 4.7160
 0.4240	 4.7180
 0.4250	 4.7130
 0.4260	 4.7040
 0.4270	 4.6970
 0.4280	 4.6960
 0.4290	 4.7020
 0.4300	 4.7060
 0.4310	 4.6850
 0.4320	 4.6800
 0.4330	 4.6860
 0.4340	 4.6880
 0.4350	 4.6870
 0.4360	 4.6870
 0.4370	 4.6860
 0.4380	 4.6780
 0.4390	 4.6870
 0.4400	 4.6930
 0.4410	 4.6850
 0.4420	 4.6940
 0.4430	 4.6740
 0.4440	 4.6570
 0.4450	 4.6890
 0.4460	 4.7130
 0.4470	 4.7180
 0.4480	 4.7160
 0.4490	 4.7440
 0.4500	 4.7460
 0.4510	 4.7450
 0.4520	 4.7650
 0.4530	 4.7720
 0.4540	 4.7780
 0.4550	 4.7870
 0.4560	 4.8000
 0.4570	 4.7970
 0.4580	 4.7920
 0.4590	 4.7950
 0.4600	 4.7940
 0.4610	 4.8000
 0.4620	 4.8030
 0.4630	 4.7920
 0.4640	 4.7810
 0.4650	 4.7770
 0.4660	 4.7800
 0.4670	 4.7870
 0.4680	 4.7860
 0.4690	 4.7820
 0.4700	 4.7830
 0.4710	 4.7930
 0.4720	 4.7860
 0.4730	 4.7760
 0.4740	 4.7920
 0.4750	 4.7930
 0.4760	 4.7880
 0.4770	 4.7850
 0.4780	 4.7890
 0.4790	 4.7960
 0.4800	 4.8040
 0.4810	 4.8100
 0.4820	 4.8230
 0.4830	 4.8290
 0.4840	 4.8250
 0.4850	 4.8200
 0.4860	 4.8300
 0.4870	 4.8520
 0.4880	 4.8770
 0.4890	 4.8780
 0.4900	 4.8960
 0.4910	 4.9240
 0.4920	 4.9410
 0.4930	 4.9620
 0.4940	 4.9860
 0.4950	 5.0130
 0.4960	 5.0590
 0.4970	 5.0970
 0.4980	 5.1420
 0.4990	 5.2070
 0.5000	 5.2640
 0.5010	 5.3270
 0.5020	 5.4060
 0.5030	 5.4970
 0.5040	 5.5920
 0.5050	 5.6970
 0.5060	 5.8210
 0.5070	 5.9660
 0.5080	 6.1220
 0.5090	 6.2940
 0.5100	 6.4870
 0.5110	 6.6790
 0.5120	 6.8930
 0.5130	 7.1390
 0.5140	 7.4010
 0.5150	 7.6730
 0.5160	 7.9590
 0.5170	 8.2610
 0.5180	 8.5650
 0.5190	 8.8830
 0.5200	 9.2100
 0.5210	 9.5330
 0.5220	 9.8520
 0.5230	10.1690
 0.5240	10.4790
 0.5250	10.7600
 0.5260	11.0380
 0.5270	11.3030
 0.5280	11.5370
 0.5290	11.7580
 0.5300	11.9560
 0.5310	12.1310
 0.5320	12.2930
 0.5330	12.4230
 0.5340	12.5360
 0.5350	12.6440
 0.5360	12.7260
 0.5370	12.8030
 0.5380	12.8760
 0.5390	12.9350
 0.5400	12.9900
 0.5410	13.0460
 0.5420	13.1030
 0.5430	13.1480
 0.5440	13.1930
 0.5450	13.2340
 0.5460	13.2630
 0.5470	13.2720
 0.5480	13.2740
 0.5490	13.2780
 0.5500	13.2850
 0.5510	13.2940
 0.5520	13.2940
 0.5530	13.2810
 0.5540	13.2590
 0.5550	13.2140
 0.5560	13.1500
 0.5570	13.0810
 0.5580	12.9950
 0.5590	12.8960
 0.5600	12.7850
 0.5610	12.6630
 0.5620	12.5210
 0.5630	12.3610
 0.5640	12.1900
 0.5650	12.0160
 0.5660	11.8340
 0.5670	11.6460
 0.5680	11.4580
 0.5690	11.2660
 0.5700	11.0740
 0.5710	10.8860
 0.5720	10.7110
 0.5730	10.5350
 0.5740	10.3630
 0.5750	10.2060
 0.5760	10.0590
 0.5770	 9.9220
 0.5780	 9.7950
 0.5790	 9.6770
 0.5800	 9.5630
 0.5810	 9.4510
 0.5820	 9.3430
 0.5830	 9.2480
 0.5840	 9.1590
 0.5850	 9.0720
 0.5860	 8.9870
 0.5870	 8.9120
 0.5880	 8.8390
 0.5890	 8.7610
 0.5900	 8.6920
 0.5910	 8.6220
 0.5920	 8.5580
 0.5930	 8.5120
 0.5940	 8.4710
 0.5950	 8.4290
 0.5960	 8.3880
 0.5970	 8.3540
 0.5980	 8.3210
 0.5990	 8.2870
 0.6000	 8.2520
 0.6010	 8.2140
 0.6020	 8.1750
 0.6030	 8.1340
 0.6040	 8.0900
 0.6050	 8.0390
 0.6060	 7.9810
 0.6070	 7.9160
 0.6080	 7.8560
 0.6090	 7.8000
 0.6100	 7.7410
 0.6110	 7.6740
 0.6120	 7.5980
 0.6130	 7.5180
 0.6140	 7.4360
 0.6150	 7.3600
 0.6160	 7.2880
 0.6170	 7.2200
 0.6180	 7.1580
 0.6190	 7.0980
 0.6200	 7.0460
 0.6210	 7.0030
 0.6220	 6.9640
 0.6230	 6.9270
 0.6240	 6.8990
 0.6250	 6.8810
 0.6260	 6.8620
 0.6270	 6.8470
 0.6280	 6.8320
 0.6290	 6.8120
 0.6300	 6.7970
 0.6310	 6.7800
 0.6320	 6.7580
 0.6330	 6.7310
 0.6340	 6.6830
 0.6350	 6.6280
 0.6360	 6.5760
 0.6370	 6.5000
 0.6380	 6.4150
 0.6390	 6.3260
 0.6400	 6.2350
 0.6410	 6.1410
 0.6420	 6.0460
 0.6430	 5.9510
 0.6440	 5.8640
 0.6450	 5.7850
 0.6460	 5.7110
 0.6470	 5.6430
 0.6480	 5.5800
 0.6490	 5.5310
 0.6500	 5.4940
 0.6510	 5.4660
 0.6520	 5.4400
 0.6530	 5.4180
 0.6540	 5.4020
 0.6550	 5.3830
 0.6560	 5.3630
 0.6570	 5.3420
 0.6580	 5.3180
 0.6590	 5.2900
 0.6600	 5.2580
 0.6610	 5.2240
 0.6620	 5.1940
 0.6630	 5.1640
 0.6640	 5.1400
 0.6650	 5.1260
 0.6660	 5.1140
 0.6670	 5.1060
 0.6680	 5.1050
 0.6690	 5.1090
 0.6700	 5.1260
 0.6710	 5.1450
 0.6720	 5.1620
 0.6730	 5.1890
 0.6740	 5.2230
 0.6750	 5.2630
 0.6760	 5.3060
 0.6770	 5.3530
 0.6780	 5.4030
 0.6790	 5.4580
 0.6800	 5.5240
 0.6810	 5.5890
 0.6820	 5.6580
 0.6830	 5.7340
 0.6840	 5.8160
 0.6850	 5.9130
 0.6860	 6.0270
 0.6870	 6.1600
 0.6880	 6.3240
 0.6890	 6.5310
 0.6900	 6.7930
 0.6910	 7.1270
 0.6920	 7.5350
 0.6930	 8.0240
 0.6940	 8.5990
 0.6950	 9.2510
 0.6960	 9.9820
 0.6970	10.7820
 0.6980	11.6340
 0.6990	12.5140
 0.7000	13.4200
 0.7010	14.3430
 0.7020	15.2680
 0.7030	16.1750
 0.7040	17.0610
 0.7050	17.9240
 0.7060	18.7500
 0.7070	19.5570
 0.7080	20.3400
 0.7090	21.0880
 0.7100	21.8080
 0.7110	22.5120
 0.7120	23.2030
 0.7130	23.8680
 0.7140	24.5150
 0.7150	25.1440
 0.7160	25.7570
 0.7170	26.3620
 0.7180	26.9330
 0.7190	27.4810
 0.7200	28.0260
 0.7210	28.5490
 0.7220	29.0520
 0.7230	29.5350
 0.7240	29.9950
 0.7250	30.4340
 0.7260	30.8530
 0.7270	31.2550
 0.7280	31.6300
 0.7290	32.0050
 0.7300	32.3650
 0.7310	32.6850
 0.7320	32.9970
 0.7330	33.2860
 0.7340	33.5530
 0.7350	33.8140
 0.7360	34.0450
 0.7370	34.2660
 0.7380	34.4800
 0.7390	34.6490
 0.7400	34.8280
 0.7410	35.0010
 0.7420	35.1360
 0.7430	35.2680
 0.7440	35.3870
 0.7450	35.4920
 0.7460	35.5910
 0.7470	35.6690
 0.7480	35.7320
 0.7490	35.7880
 0.7500	35.8450
 0.7510	35.8880
 0.7520	35.9250
 0.7530	35.9670
 0.7540	35.9910
 0.7550	36.0100
 0.7560	36.0320
 0.7570	36.0580
 0.7580	36.0670
 0.7590	36.0740
 0.7600	36.0840
 0.7610	36.0780
 0.7620	36.0860
 0.7630	36.1000
 0.7640	36.1000
 0.7650	36.0900
 0.7660	36.0760
 0.7670	36.0710
 0.7680	36.0830
 0.7690	36.0610
 0.7700	36.0480
 0.7710	36.0570
 0.7720	36.0510
 0.7730	36.0330
 0.7740	36.0230
 0.7750	36.0340
 0.7760	36.0280
 0.7770	36.0230
 0.7780	36.0150
 0.7790	35.9950
 0.7800	36.0070
 0.7810	36.0150
 0.7820	36.0070
 0.7830	35.9990
 0.7840	36.0000
 0.7850	35.9980
 0.7860	35.9910
 0.7870	35.9960
 0.7880	35.9990
 0.7890	36.0030
 0.7900	36.0080
 0.7910	35.9940
 0.7920	35.9880
 0.7930	35.9910
 0.7940	35.9880
 0.7950	35.9950
 0.7960	36.0000
 0.7970	35.9950
 0.7980	35.9820
 0.7990	35.9840
 0.8000	35.9910
 0.8010	35.9860
 0.8020	35.9820
 0.8030	35.9770
 0.8040	35.9690
 0.8050	35.9550
 0.8060	35.9430
 0.8070	35.9440
 0.8080	35.9510
 0.8090	35.9440
 0.8100	35.9420
 0.8110	35.9340
 0.8120	35.9180
 0.8130	35.9020
 0.8140	35.9000
 0.8150	35.9030
 0.8160	35.9010
 0.8170	35.8980
 0.8180	35.8880
 0.8190	35.8730
 0.8200	35.8580
 0.8210	35.8660
 0.8220	35.8560
 0.8230	35.8310
 0.8240	35.8370
 0.8250	35.8300
 0.8260	35.8250
 0.8270	35.8250
 0.8280	35.8070
 0.8290	35.8040
 0.8300	35.7950
 0.8310	35.7650
 0.8320	35.7560
 0.8330	35.7580
 0.8340	35.7610
 0.8350	35.7550
 0.8360	35.7420
 0.8370	35.7370
 0.8380	35.7380
 0.8390	35.7280
 0.8400	35.7180
 0.8410	35.7130
 0.8420	35.7100
 0.8430	35.6950
 0.8440	35.6870
 0.8450	35.6840
 0.8460	35.6820
 0.8470	35.6720
 0.8480	35.6710
 0.8490	35.6710
 0.8500	35.6620
 0.8510	35.6580
 0.8520	35.6500
 0.8530	35.6440
 0.8540	35.6510
 0.8550	35.6530
 0.8560	35.6510
 0.8570	35.6440
 0.8580	35.6350
 0.8590	35.6380
 0.8600	35.6420
 0.8610	35.6390
 0.8620	35.6260
 0.8630	35.6080
 0.8640	35.5990
 0.8650	35.6050
 0.8660	35.6110
 0.8670	35.6100
 0.8680	35.6130
 0.8690	35.6300
 0.8700	35.6210
 0.8710	35.6080
 0.8720	35.6020
 0.8730	35.6050
 0.8740	35.6110
 0.8750	35.6170
 0.8760	35.6210
 0.8770	35.6180
 0.8780	35.6160
 0.8790	35.6160
 0.8800	35.6150
 0.8810	35.5920
 0.8820	35.5860
 0.8830	35.5990
 0.8840	35.6140
 0.8850	35.5980
 0.8860	35.5970
 0.8870	35.6030
 0.8880	35.6020
 0.8890	35.6060
 0.8900	35.6040
 0.8910	35.6050
 0.8920	35.6160
 0.8930	35.6120
 0.8940	35.6190
 0.8950	35.6330
 0.8960	35.6260
 0.8970	35.6130
 0.8980	35.6060
 0.8990	35.6100
 0.9000	35.6230
 0.9010	35.6110
 0.9020	35.6080
 0.9030	35.6220
 0.9040	35.6070
 0.9050	35.6050
 0.9060	35.6120
 0.9070	35.6200
 0.9080	35.6220
 0.9090	35.6180
 0.9100	35.6140
 0.9110	35.6110
 0.9120	35.6070
 0.9130	35.6170
 0.9140	35.6220
 0.9150	35.6060
 0.9160	35.6200
 0.9170	35.6140
 0.9180	35.6040
 0.9190	35.6230
 0.9200	35.6300
 0.9210	35.6200
 0.9220	35.6050
 0.9230	35.6070
 0.9240	35.6080
 0.9250	35.6030
 0.9260	35.5940
 0.9270	35.5910
 0.9280	35.5880
 0.9290	35.5910
 0.9300	35.5900
 0.9310	35.5730
 0.9320	35.5610
 0.9330	35.5570
 0.9340	35.5510
 0.9350	35.5240
 0.9360	35.5320
 0.9370	35.5410
 0.9380	35.5300
 0.9390	35.5210
 0.9400	35.5030
 0.9410	35.5000
 0.9420	35.5120
 0.9430	35.4840
 0.9440	35.4740
 0.9450	35.4700
 0.9460	35.4550
 0.9470	35.4500
 0.9480	35.4310
 0.9490	35.4020
 0.9500	35.3800
 0.9510	35.3710
 0.9520	35.3640
 0.9530	35.3430
 0.9540	35.3040
 0.9550	35.2880
 0.9560	35.2720
 0.9570	35.2560
 0.9580	35.2460
 0.9590	35.2220
 0.9600	35.2040
 0.9610	35.1910
 0.9620	35.1790
 0.9630	35.1620
 0.9640	35.1490
 0.9650	35.1450
 0.9660	35.1510
 0.9670	35.1390
 0.9680	35.1180
 0.9690	35.0960
 0.9700	35.0850
 0.9710	35.0940
 0.9720	35.0880
 0.9730	35.0750
 0.9740	35.0830
 0.9750	35.0960
 0.9760	35.1060
 0.9770	35.0950
 0.9780	35.0580
 0.9790	35.0700
 0.9800	35.0690
 0.9810	35.0520
 0.9820	35.0450
 0.9830	35.0330
 0.9840	35.0160
 0.9850	35.0090
 0.9860	35.0300
 0.9870	35.0420
 0.9880	35.0480
 0.9890	35.0540
 0.9900	35.0590
 0.9910	35.0350
 0.9920	35.0340
 0.9930	35.0340
 0.9940	35.0340
 0.9950	35.0340
 0.9960	35.0340
 0.9970	35.0330
 0.9980	35.0330
 0.9990	35.0330
 1.0000	35.0330
 1.0010	35.0320
 1.0020	35.0320
 1.0030	35.0320
 1.0040	35.0320
 1.0050	35.0320
 1.0060	35.0310
 1.0070	35.0310
 1.0080	35.0310
 1.0090	35.0310
 1.0100	35.0310
 1.0110	35.0420
 1.0120	35.0470
 1.0130	35.0430
 1.0140	35.0430
 1.0150	35.0430
 1.0160	35.0420
 1.0170	35.0410
 1.0180	35.0470
 1.0190	35.0470
 1.0200	35.0430
 1.0210	35.0440
 1.0220	35.0460
 1.0230	35.0480
 1.0240	35.0540
 1.0250	35.0580
 1.0260	35.0580
 1.0270	35.0610
 1.0280	35.0650
 1.0290	35.0700
 1.0300	35.0820
 1.0310	35.0860
 1.0320	35.0860
 1.0330	35.0880
 1.0340	35.0900
 1.0350	35.0860
 1.0360	35.0870
 1.0370	35.0900
 1.0380	35.0920
 1.0390	35.0900
 1.0400	35.0940
 1.0410	35.1060
 1.0420	35.1120
 1.0430	35.1210
 1.0440	35.1230
 1.0450	35.1170
 1.0460	35.1160
 1.0470	35.1150
 1.0480	35.1140
 1.0490	35.1140
 1.0500	35.1150
 1.0510	35.1180
 1.0520	35.1190
 1.0530	35.1180
 1.0540	35.1150
 1.0550	35.1170
 1.0560	35.1200
 1.0570	35.1220
 1.0580	35.1280
 1.0590	35.1310
 1.0600	35.1270
 1.0610	35.1280
 1.0620	35.1330
 1.0630	35.1370
 1.0640	35.1400
 1.0650	35.1430
 1.0660	35.1450
 1.0670	35.1460
 1.0680	35.1460
 1.0690	35.1440
 1.0700	35.1440
 1.0710	35.1460
 1.0720	35.1460
 1.0730	35.1470
 1.0740	35.1460
 1.0750	35.1440
 1.0760	35.1420
 1.0770	35.1390
 1.0780	35.1370
 1.0790	35.1340
 1.0800	35.1320
 1.0810	35.1290
 1.0820	35.1300
 1.0830	35.1360
 1.0840	35.1370
 1.0850	35.1420
 1.0860	35.1420
 1.0870	35.1380
 1.0880	35.1270
 1.0890	35.1210
 1.0900	35.1150
 1.0910	35.1090
 1.0920	35.1030
 1.0930	35.0980
 1.0940	35.0920
 1.0950	35.0890
 1.0960	35.0890
 1.0970	35.0860
 1.0980	35.0830
 1.0990	35.0800
 1.1000	35.0780
 1.1010	35.0740
 1.1020	35.0700
 1.1030	35.0640
 1.1040	35.0560
 1.1050	35.0500
 1.1060	35.0420
 1.1070	35.0330
 1.1080	35.0270
 1.1090	35.0220
 1.1100	35.0150
 1.1110	35.0100
 1.1120	35.0040
 1.1130	34.9970
 1.1140	34.9880
 1.1150	34.9770
 1.1160	34.9690
 1.1170	34.9590
 1.1180	34.9510
 1.1190	34.9470
 1.1200	34.9440
 1.1210	34.9360
 1.1220	34.9280
 1.1230	34.9170
 1.1240	34.9040
 1.1250	34.8890
 1.1260	34.8740
 1.1270	34.8550
 1.1280	34.8300
 1.1290	34.8090
 1.1300	34.7900
 1.1310	34.7670
 1.1320	34.7440
 1.1330	34.7200
 1.1340	34.6930
 1.1350	34.6640
 1.1360	34.6360
 1.1370	34.6060
 1.1380	34.5680
 1.1390	34.5280
 1.1400	34.4880
 1.1410	34.4470
 1.1420	34.4060
 1.1430	34.3650
 1.1440	34.3260
 1.1450	34.2890
 1.1460	34.2500
 1.1470	34.2110
 1.1480	34.1740
 1.1490	34.1320
 1.1500	34.0980
 1.1510	34.0700
 1.1520	34.0410
 1.1530	34.0130
 1.1540	33.9880
 1.1550	33.9640
 1.1560	33.9450
 1.1570	33.9270
 1.1580	33.9130
 1.1590	33.8980
 1.1600	33.8800
 1.1610	33.8670
 1.1620	33.8570
 1.1630	33.8470
 1.1640	33.8370
 1.1650	33.8310
 1.1660	33.8250
 1.1670	33.8200
 1.1680	33.8180
 1.1690	33.8150
 1.1700	33.8120
 1.1710	33.8080
 1.1720	33.8040
 1.1730	33.7990
 1.1740	33.7930
 1.1750	33.7880
 1.1760	33.7880
 1.1770	33.7870
 1.1780	33.7840
 1.1790	33.7800
 1.1800	33.7730
 1.1810	33.7650
 1.1820	33.7600
 1.1830	33.7540
 1.1840	33.7450
 1.1850	33.7390
 1.1860	33.7330
 1.1870	33.7290
 1.1880	33.7250
 1.1890	33.7220
 1.1900	33.7190
 1.1910	33.7190
 1.1920	33.7160
 1.1930	33.7100
 1.1940	33.7070
 1.1950	33.7020
 1.1960	33.6990
 1.1970	33.6980
 1.1980	33.6980
 1.1990	33.6990
 1.2000	33.6970
 1.2010	33.6980
 1.2020	33.7000
 1.2030	33.7020
 1.2040	33.7030
 1.2050	33.7020
 1.2060	33.7010
 1.2070	33.6980
 1.2080	33.6940
 1.2090	33.6970
 1.2100	33.7000
 1.2110	33.7020
 1.2120	33.7090
 1.2130	33.7120
 1.2140	33.7130
 1.2150	33.7150
 1.2160	33.7160
 1.2170	33.7180
 1.2180	33.7230
 1.2190	33.7270
 1.2200	33.7300
 1.2210	33.7360
 1.2220	33.7390
 1.2230	33.7430
 1.2240	33.7500
 1.2250	33.7520
 1.2260	33.7560
 1.2270	33.7620
 1.2280	33.7660
 1.2290	33.7730
 1.2300	33.7790
 1.2310	33.7830
 1.2320	33.7840
 1.2330	33.7860
 1.2340	33.7880
 1.2350	33.7910
 1.2360	33.7940
 1.2370	33.7990
 1.2380	33.8020
 1.2390	33.8010
 1.2400	33.7990
 1.2410	33.7990
 1.2420	33.7990
 1.2430	33.8000
 1.2440	33.8010
 1.2450	33.8010
 1.2460	33.8020
 1.2470	33.8070
 1.2480	33.8120
 1.2490	33.8150
 1.2500	33.8190
 1.2510	33.8240
 1.2520	33.8250
 1.2530	33.8250
 1.2540	33.8280
 1.2550	33.8240
 1.2560	33.8220
 1.2570	33.8240
 1.2580	33.8220
 1.2590	33.8190
 1.2600	33.8170
 1.2610	33.8140
 1.2620	33.8090
 1.2630	33.8050
 1.2640	33.8040
 1.2650	33.8000
 1.2660	33.7950
 1.2670	33.7910
 1.2680	33.7830
 1.2690	33.7770
 1.2700	33.7720
 1.2710	33.7660
 1.2720	33.7610
 1.2730	33.7540
 1.2740	33.7480
 1.2750	33.7430
 1.2760	33.7370
 1.2770	33.7330
 1.2780	33.7270
 1.2790	33.7180
 1.2800	33.7120
 1.2810	33.7060
 1.2820	33.6990
 1.2830	33.6950
 1.2840	33.6900
 1.2850	33.6850
 1.2860	33.6780
 1.2870	33.6710
 1.2880	33.6630
 1.2890	33.6560
 1.2900	33.6500
 1.2910	33.6440
 1.2920	33.6380
 1.2930	33.6300
 1.2940	33.6190
 1.2950	33.6060
 1.2960	33.5920
 1.2970	33.5740
 1.2980	33.5570
 1.2990	33.5390
 1.3000	33.5240
 1.3010	33.5090
 1.3020	33.4910
 1.3030	33.4730
 1.3040	33.4520
 1.3050	33.4280
 1.3060	33.4030
 1.3070	33.3780
 1.3080	33.3520
 1.3090	33.3280
 1.3100	33.3030
 1.3110	33.2790
 1.3120	33.2500
 1.3130	33.2190
 1.3140	33.1880
 1.3150	33.1560
 1.3160	33.1200
 1.3170	33.0840
 1.3180	33.0470
 1.3190	33.0080
 1.3200	32.9660
 1.3210	32.9270
 1.3220	32.8870
 1.3230	32.8420
 1.3240	32.7980
 1.3250	32.7530
 1.3260	32.7090
 1.3270	32.6650
 1.3280	32.6180
 1.3290	32.5720
 1.3300	32.5250
 1.3310	32.4770
 1.3320	32.4280
 1.3330	32.3790
 1.3340	32.3290
 1.3350	32.2790
 1.3360	32.2300
 1.3370	32.1780
 1.3380	32.1260
 1.3390	32.0750
 1.3400	32.0240
 1.3410	31.9730
 1.3420	31.9200
 1.3430	31.8660
 1.3440	31.8100
 1.3450	31.7560
 1.3460	31.7020
 1.3470	31.6490
 1.3480	31.5970
 1.3490	31.5450
 1.3500	31.4940
 1.3510	31.4420
 1.3520	31.3920
 1.3530	31.3380
 1.3540	31.2840
 1.3550	31.2330
 1.3560	31.1790
 1.3570	31.1280
 1.3580	31.0770
 1.3590	31.0280
 1.3600	30.9740
 1.3610	30.9160
 1.3620	30.8590
 1.3630	30.7990
 1.3640	30.7380
 1.3650	30.6760
 1.3660	30.6110
 1.3670	30.5390
 1.3680	30.4640
 1.3690	30.3810
 1.3700	30.2890
 1.3710	30.1900
 1.3720	30.0860
 1.3730	29.9740
 1.3740	29.8550
 1.3750	29.7290
 1.3760	29.5890
 1.3770	29.4370
 1.3780	29.2740
 1.3790	29.0990
 1.3800	28.9090
 1.3810	28.7070
 1.3820	28.4930
 1.3830	28.2670
 1.3840	28.0290
 1.3850	27.7780
 1.3860	27.5180
 1.3870	27.2440
 1.3880	26.9660
 1.3890	26.6790
 1.3900	26.3830
 1.3910	26.0840
 1.3920	25.7750
 1.3930	25.4580
 1.3940	25.1390
 1.3950	24.8120
 1.3960	24.4860
 1.3970	24.1630
 1.3980	23.8400
 1.3990	23.5260
 1.4000	23.2180
 1.4010	22.9130
 1.4020	22.6180
 1.4030	22.3280
 1.4040	22.0500
 1.4050	21.7850
 1.4060	21.5310
 1.4070	21.2940
 1.4080	21.0690
 1.4090	20.8530
 1.4100	20.6510
 1.4110	20.4580
 1.4120	20.2760
 1.4130	20.1060
 1.4140	19.9490
 1.4150	19.8050
 1.4160	19.6710
 1.4170	19.5470
 1.4180	19.4320
 1.4190	19.3230
 1.4200	19.2240
 1.4210	19.1340
 1.4220	19.0520
 1.4230	18.9780
 1.4240	18.9100
 1.4250	18.8470
 1.4260	18.7900
 1.4270	18.7390
 1.4280	18.6940
 1.4290	18.6530
 1.4300	18.6150
 1.4310	18.5840
 1.4320	18.5600
 1.4330	18.5380
 1.4340	18.5210
 1.4350	18.5060
 1.4360	18.4940
 1.4370	18.4840
 1.4380	18.4790
 1.4390	18.4760
 1.4400	18.4760
 1.4410	18.4770
 1.4420	18.4780
 1.4430	18.4840
 1.4440	18.4910
 1.4450	18.4990
 1.4460	18.5090
 1.4470	18.5220
 1.4480	18.5360
 1.4490	18.5510
 1.4500	18.5670
 1.4510	18.5810
 1.4520	18.5960
 1.4530	18.6120
 1.4540	18.6310
 1.4550	18.6530
 1.4560	18.6780
 1.4570	18.7070
 1.4580	18.7380
 1.4590	18.7700
 1.4600	18.8070
 1.4610	18.8460
 1.4620	18.8880
 1.4630	18.9350
 1.4640	18.9820
 1.4650	19.0350
 1.4660	19.0940
 1.4670	19.1560
 1.4680	19.2240
 1.4690	19.2920
 1.4700	19.3620
 1.4710	19.4370
 1.4720	19.5140
 1.4730	19.5950
 1.4740	19.6770
 1.4750	19.7590
 1.4760	19.8440
 1.4770	19.9290
 1.4780	20.0170
 1.4790	20.1090
 1.4800	20.1990
 1.4810	20.2900
 1.4820	20.3830
 1.4830	20.4760
 1.4840	20.5700
 1.4850	20.6660
 1.4860	20.7590
 1.4870	20.8540
 1.4880	20.9460
 1.4890	21.0410
 1.4900	21.1360
 1.4910	21.2310
 1.4920	21.3270
 1.4930	21.4230
 1.4940	21.5180
 1.4950	21.6140
 1.4960	21.7090
 1.4970	21.8010
 1.4980	21.8940
 1.4990	21.9860
 1.5000	22.0780
 1.5010	22.1720
 1.5020	22.2640
 1.5030	22.3560
 1.5040	22.4460
 1.5050	22.5360
 1.5060	22.6250
 1.5070	22.7140
 1.5080	22.8010
 1.5090	22.8860
 1.5100	22.9710
 1.5110	23.0560
 1.5120	23.1390
 1.5130	23.2220
 1.5140	23.3050
 1.5150	23.3870
 1.5160	23.4690
 1.5170	23.5510
 1.5180	23.6300
 1.5190	23.7090
 1.5200	23.7850
 1.5210	23.8590
 1.5220	23.9350
 1.5230	24.0120
 1.5240	24.0890
 1.5250	24.1650
 1.5260	24.2380
 1.5270	24.3090
 1.5280	24.3790
 1.5290	24.4490
 1.5300	24.5200
 1.5310	24.5900
 1.5320	24.6570
 1.5330	24.7220
 1.5340	24.7880
 1.5350	24.8550
 1.5360	24.9200
 1.5370	24.9830
 1.5380	25.0440
 1.5390	25.1010
 1.5400	25.1590
 1.5410	25.2180
 1.5420	25.2770
 1.5430	25.3350
 1.5440	25.3930
 1.5450	25.4490
 1.5460	25.5040
 1.5470	25.5600
 1.5480	25.6140
 1.5490	25.6680
 1.5500	25.7230
 1.5510	25.7750
 1.5520	25.8280
 1.5530	25.8800
 1.5540	25.9290
 1.5550	25.9780
 1.5560	26.0250
 1.5570	26.0720
 1.5580	26.1190
 1.5590	26.1670
 1.5600	26.2150
 1.5610	26.2620
 1.5620	26.3060
 1.5630	26.3480
 1.5640	26.3890
 1.5650	26.4310
 1.5660	26.4730
 1.5670	26.5160
 1.5680	26.5590
 1.5690	26.6010
 1.5700	26.6400
 1.5710	26.6760
 1.5720	26.7100
 1.5730	26.7460
 1.5740	26.7820
 1.5750	26.8180
 1.5760	26.8580
 1.5770	26.8960
 1.5780	26.9310
 1.5790	26.9660
 1.5800	26.9970
 1.5810	27.0290
 1.5820	27.0640
 1.5830	27.0990
 1.5840	27.1360
 1.5850	27.1710
 1.5860	27.2010
 1.5870	27.2310
 1.5880	27.2620
 1.5890	27.2930
 1.5900	27.3210
 1.5910	27.3500
 1.5920	27.3790
 1.5930	27.4050
 1.5940	27.4350
 1.5950	27.4660
 1.5960	27.4940
 1.5970	27.5260
 1.5980	27.5560
 1.5990	27.5840
 1.6000	27.6140
 1.6010	27.6370
 1.6020	27.6600
 1.6030	27.6830
 1.6040	27.7040
 1.6050	27.7250
 1.6060	27.7450
 1.6070	27.7650
 1.6080	27.7850
 1.6090	27.8060
 1.6100	27.8270
 1.6110	27.8500
 1.6120	27.8720
 1.6130	27.8910
 1.6140	27.9110
 1.6150	27.9310
 1.6160	27.9490
 1.6170	27.9680
 1.6180	27.9870
 1.6190	28.0070
 1.6200	28.0250
 1.6210	28.0430
 1.6220	28.0600
 1.6230	28.0740
 1.6240	28.0890
 1.6250	28.1060
 1.6260	28.1250
 1.6270	28.1450
 1.6280	28.1650
 1.6290	28.1830
 1.6300	28.1990
 1.6310	28.2120
 1.6320	28.2240
 1.6330	28.2350
 1.6340	28.2450
 1.6350	28.2570
 1.6360	28.2730
 1.6370	28.2840
 1.6380	28.2950
 1.6390	28.3050
 1.6400	28.3130
 1.6410	28.3220
 1.6420	28.3360
 1.6430	28.3450
 1.6440	28.3520
 1.6450	28.3580
 1.6460	28.3580
 1.6470	28.3580
 1.6480	28.3620
 1.6490	28.3630
 1.6500	28.3650
 1.6510	28.3690
 1.6520	28.3700
 1.6530	28.3730
 1.6540	28.3760
 1.6550	28.3790
 1.6560	28.3850
 1.6570	28.3900
 1.6580	28.3940
 1.6590	28.3950
 1.6600	28.3960
 1.6610	28.3970
 1.6620	28.3990
 1.6630	28.4020
 1.6640	28.4030
 1.6650	28.4000
 1.6660	28.3990
 1.6670	28.4000
 1.6680	28.4000
 1.6690	28.4030
 1.6700	28.4040
 1.6710	28.3990
 1.6720	28.3930
 1.6730	28.3880
 1.6740	28.3840
 1.6750	28.3810
 1.6760	28.3770
 1.6770	28.3710
 1.6780	28.3650
 1.6790	28.3610
 1.6800	28.3530
 1.6810	28.3430
 1.6820	28.3290
 1.6830	28.3130
 1.6840	28.3000
 1.6850	28.2900
 1.6860	28.2800
 1.6870	28.2740
 1.6880	28.2670
 1.6890	28.2580
 1.6900	28.2480
 1.6910	28.2340
 1.6920	28.2190
 1.6930	28.2030
 1.6940	28.1860
 1.6950	28.1680
 1.6960	28.1510
 1.6970	28.1360
 1.6980	28.1190
 1.6990	28.1000
 1.7000	28.0810
 1.7010	28.0610
 1.7020	28.0420
 1.7030	28.0250
 1.7040	28.0070
 1.7050	27.9900
 1.7060	27.9720
 1.7070	27.9530
 1.7080	27.9350
 1.7090	27.9150
 1.7100	27.8980
 1.7110	27.8820
 1.7120	27.8640
 1.7130	27.8440
 1.7140	27.8230
 1.7150	27.8020
 1.7160	27.7790
 1.7170	27.7550
 1.7180	27.7300
 1.7190	27.7030
 1.7200	27.6760
 1.7210	27.6470
 1.7220	27.6190
 1.7230	27.5920
 1.7240	27.5660
 1.7250	27.5420
 1.7260	27.5160
 1.7270	27.4890
 1.7280	27.4630
 1.7290	27.4350
 1.7300	27.4090
 1.7310	27.3840
 1.7320	27.3600
 1.7330	27.3360
 1.7340	27.3150
 1.7350	27.2880
 1.7360	27.2580
 1.7370	27.2300
 1.7380	27.1990
 1.7390	27.1700
 1.7400	27.1450
 1.7410	27.1170
 1.7420	27.0900
 1.7430	27.0590
 1.7440	27.0270
 1.7450	26.9940
 1.7460	26.9580
 1.7470	26.9240
 1.7480	26.8920
 1.7490	26.8570
 1.7500	26.8200
 1.7510	26.7840
 1.7520	26.7480
 1.7530	26.7140
 1.7540	26.6830
 1.7550	26.6460
 1.7560	26.6080
 1.7570	26.5690
 1.7580	26.5320
 1.7590	26.4980
 1.7600	26.4630
 1.7610	26.4240
 1.7620	26.3870
 1.7630	26.3510
 1.7640	26.3160
 1.7650	26.2820
 1.7660	26.2500
 1.7670	26.2210
 1.7680	26.1920
 1.7690	26.1670
 1.7700	26.1410
 1.7710	26.1160
 1.7720	26.0920
 1.7730	26.0690
 1.7740	26.0460
 1.7750	26.0260
 1.7760	26.0030
 1.7770	25.9770
 1.7780	25.9560
 1.7790	25.9360
 1.7800	25.9140
 1.7810	25.8930
 1.7820	25.8750
 1.7830	25.8560
 1.7840	25.8390
 1.7850	25.8280
 1.7860	25.8120
 1.7870	25.7940
 1.7880	25.7770
 1.7890	25.7640
 1.7900	25.7540
 1.7910	25.7450
 1.7920	25.7400
 1.7930	25.7350
 1.7940	25.7290
 1.7950	25.7260
 1.7960	25.7280
 1.7970	25.7250
 1.7980	25.7220
 1.7990	25.7190
 1.8000	25.7130
 1.8010	25.7090
 1.8020	25.7070
 1.8030	25.7050
 1.8040	25.7040
 1.8050	25.7020
 1.8060	25.7040
 1.8070	25.7030
 1.8080	25.7010
 1.8090	25.6980
 1.8100	25.6940
 1.8110	25.6930
 1.8120	25.6890
 1.8130	25.6830
 1.8140	25.6800
 1.8150	25.6720
 1.8160	25.6600
 1.8170	25.6540
 1.8180	25.6510
 1.8190	25.6460
 1.8200	25.6420
 1.8210	25.6390
 1.8220	25.6310
 1.8230	25.6240
 1.8240	25.6120
 1.8250	25.5910
 1.8260	25.5800
 1.8270	25.5460
 1.8280	25.5110
 1.8290	25.4770
 1.8300	25.4420
 1.8310	25.4080
 1.8320	25.3740
 1.8330	25.3390
 1.8340	25.3050
 1.8350	25.3050
 1.8360	25.2780
 1.8370	25.2470
 1.8380	25.2120
 1.8390	25.1730
 1.8400	25.1310
 1.8410	25.0860
 1.8420	25.0390
 1.8430	24.9910
 1.8440	24.9400
 1.8450	24.8800
 1.8460	24.8210
 1.8470	24.7550
 1.8480	24.6830
 1.8490	24.6070
 1.8500	24.5200
 1.8510	24.4240
 1.8520	24.3220
 1.8530	24.2150
 1.8540	24.1000
 1.8550	23.9780
 1.8560	23.8460
 1.8570	23.7020
 1.8580	23.5480
 1.8590	23.3870
 1.8600	23.2190
 1.8610	23.0430
 1.8620	22.8520
 1.8630	22.6460
 1.8640	22.4220
 1.8650	22.1820
 1.8660	21.9300
 1.8670	21.6590
 1.8680	21.3720
 1.8690	21.0700
 1.8700	20.7480
 1.8710	20.4070
 1.8720	20.0550
 1.8730	19.6900
 1.8740	19.3120
 1.8750	18.9260
 1.8760	18.5250
 1.8770	18.1170
 1.8780	17.7030
 1.8790	17.2740
 1.8800	16.8440
 1.8810	16.4120
 1.8820	15.9730
 1.8830	15.5200
 1.8840	15.0700
 1.8850	14.6180
 1.8860	14.1640
 1.8870	13.7170
 1.8880	13.2760
 1.8890	12.8450
 1.8900	12.4260
 1.8910	12.0220
 1.8920	11.6310
 1.8930	11.2580
 1.8940	10.8980
 1.8950	10.5530
 1.8960	10.2300
 1.8970	 9.9250
 1.8980	 9.6450
 1.8990	 9.3860
 1.9000	 9.1440
 1.9010	 8.9220
 1.9020	 8.7160
 1.9030	 8.5260
 1.9040	 8.3560
 1.9050	 8.2040
 1.9060	 8.0680
 1.9070	 7.9500
 1.9080	 7.8380
 1.9090	 7.7350
 1.9100	 7.6470
 1.9110	 7.5660
 1.9120	 7.4920
 1.9130	 7.4290
 1.9140	 7.3770
 1.9150	 7.3290
 1.9160	 7.2910
 1.9170	 7.2610
 1.9180	 7.2320
 1.9190	 7.2090
 1.9200	 7.1900
 1.9210	 7.1740
 1.9220	 7.1640
 1.9230	 7.1610
 1.9240	 7.1560
 1.9250	 7.1530
 1.9260	 7.1540
 1.9270	 7.1590
 1.9280	 7.1700
 1.9290	 7.1830
 1.9300	 7.1950
 1.9310	 7.2100
 1.9320	 7.2260
 1.9330	 7.2490
 1.9340	 7.2790
 1.9350	 7.3080
 1.9360	 7.3400
 1.9370	 7.3720
 1.9380	 7.4060
 1.9390	 7.4400
 1.9400	 7.4760
 1.9410	 7.5120
 1.9420	 7.5550
 1.9430	 7.6000
 1.9440	 7.6470
 1.9450	 7.7010
 1.9460	 7.7530
 1.9470	 7.8060
 1.9480	 7.8580
 1.9490	 7.9110
 1.9500	 7.9620
 1.9510	 8.0140
 1.9520	 8.0680
 1.9530	 8.1260
 1.9540	 8.1900
 1.9550	 8.2530
 1.9560	 8.3180
 1.9570	 8.3830
 1.9580	 8.4480
 1.9590	 8.5130
 1.9600	 8.5780
 1.9610	 8.6450
 1.9620	 8.7130
 1.9630	 8.7800
 1.9640	 8.8460
 1.9650	 8.9150
 1.9660	 8.9850
 1.9670	 9.0570
 1.9680	 9.1310
 1.9690	 9.2100
 1.9700	 9.2860
 1.9710	 9.3620
 1.9720	 9.4370
 1.9730	 9.5100
 1.9740	 9.5850
 1.9750	 9.6620
 1.9760	 9.7420
 1.9770	 9.8250
 1.9780	 9.9070
 1.9790	 9.9880
 1.9800	10.0680
 1.9810	10.1470
 1.9820	10.2250
 1.9830	10.3050
 1.9840	10.3860
 1.9850	10.4690
 1.9860	10.5540
 1.9870	10.6370
 1.9880	10.7200
 1.9890	10.8090
 1.9900	10.8990
 1.9910	10.9830
 1.9920	11.0680
 1.9930	11.1540
 1.9940	11.2360
 1.9950	11.3120
 1.9960	11.3940
 1.9970	11.4740
 1.9980	11.5560
 1.9990	11.6430
 2.0000	11.7310
 2.0010	11.8120
 2.0020	11.8970
 2.0030	11.9820
 2.0040	12.0610
 2.0050	12.1420
 2.0060	12.2240
 2.0070	12.3050
 2.0080	12.3800
 2.0090	12.4610
 2.0100	12.5440
 2.0110	12.6250
 2.0120	12.7070
 2.0130	12.7890
 2.0140	12.8660
 2.0150	12.9450
 2.0160	13.0240
 2.0170	13.1000
 2.0180	13.1760
 2.0190	13.2520
 2.0200	13.3270
 2.0210	13.3990
 2.0220	13.4740
 2.0230	13.5520
 2.0240	13.6260
 2.0250	13.7020
 2.0260	13.7750
 2.0270	13.8440
 2.0280	13.9150
 2.0290	13.9820
 2.0300	14.0460
 2.0310	14.1120
 2.0320	14.1780
 2.0330	14.2420
 2.0340	14.3060
 2.0350	14.3700
 2.0360	14.4310
 2.0370	14.4930
 2.0380	14.5590
 2.0390	14.6200
 2.0400	14.6770
 2.0410	14.7350
 2.0420	14.7910
 2.0430	14.8470
 2.0440	14.9020
 2.0450	14.9560
 2.0460	15.0110
 2.0470	15.0650
 2.0480	15.1220
 2.0490	15.1840
 2.0500	15.2430
 2.0510	15.3050
 2.0520	15.3610
 2.0530	15.4130
 2.0540	15.4660
 2.0550	15.5130
 2.0560	15.5650
 2.0570	15.6220
 2.0580	15.6780
 2.0590	15.7330
 2.0600	15.7900
 2.0610	15.8400
 2.0620	15.8820
 2.0630	15.9310
 2.0640	15.9780
 2.0650	16.0320
 2.0660	16.0960
 2.0670	16.1520
 2.0680	16.2080
 2.0690	16.2640
 2.0700	16.3180
 2.0710	16.3700
 2.0720	16.4230
 2.0730	16.4700
 2.0740	16.5210
 2.0750	16.5710
 2.0760	16.6210
 2.0770	16.6750
 2.0780	16.7250
 2.0790	16.7720
 2.0800	16.8210
 2.0810	16.8720
 2.0820	16.9200
 2.0830	16.9630
 2.0840	17.0090
 2.0850	17.0530
 2.0860	17.0990
 2.0870	17.1450
 2.0880	17.1990
 2.0890	17.2460
 2.0900	17.2910
 2.0910	17.3360
 2.0920	17.3790
 2.0930	17.4210
 2.0940	17.4600
 2.0950	17.5040
 2.0960	17.5490
 2.0970	17.5940
 2.0980	17.6460
 2.0990	17.6920
 2.1000	17.7300
 2.1010	17.7730
 2.1020	17.8200
 2.1030	17.8620
 2.1040	17.9020
 2.1050	17.9440
 2.1060	17.9830
 2.1070	18.0140
 2.1080	18.0530
 2.1090	18.0940
 2.1100	18.1380
 2.1110	18.1880
 2.1120	18.2330
 2.1130	18.2810
 2.1140	18.3240
 2.1150	18.3620
 2.1160	18.4010
 2.1170	18.4340
 2.1180	18.4720
 2.1190	18.5180
 2.1200	18.5560
 2.1210	18.5920
 2.1220	18.6300
 2.1230	18.6630
 2.1240	18.6860
 2.1250	18.7180
 2.1260	18.7520
 2.1270	18.7840
 2.1280	18.8140
 2.1290	18.8470
 2.1300	18.8820
 2.1310	18.9160
 2.1320	18.9560
 2.1330	18.9870
 2.1340	19.0120
 2.1350	19.0400
 2.1360	19.0630
 2.1370	19.0890
 2.1380	19.1190
 2.1390	19.1470
 2.1400	19.1780
 2.1410	19.2060
 2.1420	19.2310
 2.1430	19.2540
 2.1440	19.2790
 2.1450	19.3040
 2.1460	19.3250
 2.1470	19.3430
 2.1480	19.3650
 2.1490	19.3850
 2.1500	19.4050
 2.1510	19.4350
 2.1520	19.4540
 2.1530	19.4660
 2.1540	19.4780
 2.1550	19.4840
 2.1560	19.4940
 2.1570	19.5070
 2.1580	19.5180
 2.1590	19.5310
 2.1600	19.5390
 2.1610	19.5460
 2.1620	19.5570
 2.1630	19.5690
 2.1640	19.5860
 2.1650	19.5980
 2.1660	19.6100
 2.1670	19.6210
 2.1680	19.6270
 2.1690	19.6370
 2.1700	19.6500
 2.1710	19.6600
 2.1720	19.6710
 2.1730	19.6790
 2.1740	19.6810
 2.1750	19.6880
 2.1760	19.6950
 2.1770	19.7010
 2.1780	19.7100
 2.1790	19.7180
 2.1800	19.7220
 2.1810	19.7290
 2.1820	19.7370
 2.1830	19.7440
 2.1840	19.7550
 2.1850	19.7690
 2.1860	19.7780
 2.1870	19.7880
 2.1880	19.7960
 2.1890	19.8010
 2.1900	19.8090
 2.1910	19.8170
 2.1920	19.8270
 2.1930	19.8390
 2.1940	19.8490
 2.1950	19.8570
 2.1960	19.8680
 2.1970	19.8770
 2.1980	19.8890
 2.1990	19.9090
 2.2000	19.9200
 2.2010	19.9280
 2.2020	19.9340
 2.2030	19.9320
 2.2040	19.9340
 2.2050	19.9370
 2.2060	19.9410
 2.2070	19.9460
 2.2080	19.9530
 2.2090	19.9580
 2.2100	19.9630
 2.2110	19.9660
 2.2120	19.9690
 2.2130	19.9690
 2.2140	19.9670
 2.2150	19.9670
 2.2160	19.9660
 2.2170	19.9640
 2.2180	19.9640
 2.2190	19.9580
 2.2200	19.9460
 2.2210	19.9340
 2.2220	19.9150
 2.2230	19.9020
 2.2240	19.8910
 2.2250	19.8780
 2.2260	19.8670
 2.2270	19.8580
 2.2280	19.8520
 2.2290	19.8400
 2.2300	19.8300
 2.2310	19.8150
 2.2320	19.7940
 2.2330	19.7750
 2.2340	19.7540
 2.2350	19.7310
 2.2360	19.7130
 2.2370	19.6940
 2.2380	19.6750
 2.2390	19.6640
 2.2400	19.6440
 2.2410	19.6220
 2.2420	19.5940
 2.2430	19.5580
 2.2440	19.5270
 2.2450	19.4890
 2.2460	19.4610
 2.2470	19.4450
 2.2480	19.4170
 2.2490	19.3900
 2.2500	19.3580
 2.2510	19.3170
 2.2520	19.2800
 2.2530	19.2450
 2.2540	19.2090
 2.2550	19.1750
 2.2560	19.1370
 2.2570	19.0980
 2.2580	19.0580
 2.2590	19.0150
 2.2600	18.9730
 2.2610	18.9360
 2.2620	18.8890
 2.2630	18.8430
 2.2640	18.7970
 2.2650	18.7480
 2.2660	18.7110
 2.2670	18.6780
 2.2680	18.6570
 2.2690	18.6210
 2.2700	18.5870
 2.2710	18.5440
 2.2720	18.4830
 2.2730	18.4390
 2.2740	18.3990
 2.2750	18.3600
 2.2760	18.3270
 2.2770	18.2920
 2.2780	18.2560
 2.2790	18.2210
 2.2800	18.1870
 2.2810	18.1510
 2.2820	18.1120
 2.2830	18.0760
 2.2840	18.0380
 2.2850	18.0030
 2.2860	17.9770
 2.2870	17.9380
 2.2880	17.8860
 2.2890	17.8460
 2.2900	17.8080
 2.2910	17.7680
 2.2920	17.7410
 2.2930	17.7040
 2.2940	17.6540
 2.2950	17.6110
 2.2960	17.5700
 2.2970	17.5300
 2.2980	17.4950
 2.2990	17.4530
 2.3000	17.4080
 2.3010	17.3640
 2.3020	17.3140
 2.3030	17.2630
 2.3040	17.2080
 2.3050	17.1530
 2.3060	17.1000
 2.3070	17.0500
 2.3080	17.0180
 2.3090	16.9870
 2.3100	16.9600
 2.3110	16.9380
 2.3120	16.9020
 2.3130	16.8560
 2.3140	16.8180
 2.3150	16.7710
 2.3160	16.7420
 2.3170	16.7260
 2.3180	16.7020
 2.3190	16.6840
 2.3200	16.6590
 2.3210	16.6290
 2.3220	16.5970
 2.3230	16.5610
 2.3240	16.5330
 2.3250	16.5060
 2.3260	16.4770
 2.3270	16.4580
 2.3280	16.4250
 2.3290	16.3840
 2.3300	16.3400
 2.3310	16.2860
 2.3320	16.2390
 2.3330	16.1830
 2.3340	16.1400
 2.3350	16.1160
 2.3360	16.0740
 2.3370	16.0310
 2.3380	15.9890
 2.3390	15.9400
 2.3400	15.8890
 2.3410	15.8350
 2.3420	15.7880
 2.3430	15.7350
 2.3440	15.6880
 2.3450	15.6550
 2.3460	15.6140
 2.3470	15.5690
 2.3480	15.5240
 2.3490	15.4780
 2.3500	15.4310
 2.3510	15.3740
 2.3520	15.3290
 2.3530	15.2830
 2.3540	15.2470
 2.3550	15.2260
 2.3560	15.2040
 2.3570	15.1800
 2.3580	15.1520
 2.3590	15.1100
 2.3600	15.0530
 2.3610	15.0070
 2.3620	14.9630
 2.3630	14.9140
 2.3640	14.8780
 2.3650	14.8220
 2.3660	14.7630
 2.3670	14.7210
 2.3680	14.6700
 2.3690	14.6300
 2.3700	14.5910
 2.3710	14.5500
 2.3720	14.5090
 2.3730	14.4600
 2.3740	14.4130
 2.3750	14.3660
 2.3760	14.3310
 2.3770	14.2870
 2.3780	14.2340
 2.3790	14.1850
 2.3800	14.1260
 2.3810	14.0860
 2.3820	14.0570
 2.3830	14.0310
 2.3840	14.0050
 2.3850	13.9630
 2.3860	13.9150
 2.3870	13.8730
 2.3880	13.8240
 2.3890	13.7700
 2.3900	13.7260
 2.3910	13.6670
 2.3920	13.5950
 2.3930	13.5440
 2.3940	13.5000
 2.3950	13.4470
 2.3960	13.3970
 2.3970	13.3500
 2.3980	13.3010
 2.3990	13.2610
 2.4000	13.2250
 2.4010	13.1720
 2.4020	13.1260
 2.4030	13.0590
 2.4040	12.9810
 2.4050	12.9500
 2.4060	12.9140
 2.4070	12.8690
 2.4080	12.8420
 2.4090	12.7780
 2.4100	12.6880
 2.4110	12.6220
 2.4120	12.5580
 2.4130	12.4970
 2.4140	12.4490
 2.4150	12.4030
 2.4160	12.3400
 2.4170	12.2760
 2.4180	12.2230
 2.4190	12.1500
 2.4200	12.0960
 2.4210	12.0470
 2.4220	11.9960
 2.4230	11.9720
 2.4240	11.9390
 2.4250	11.8950
 2.4260	11.8440
 2.4270	11.7750
 2.4280	11.7020
 2.4290	11.6200
 2.4300	11.5310
 2.4310	11.4670
 2.4320	11.4150
 2.4330	11.3750
 2.4340	11.3530
 2.4350	11.2940
 2.4360	11.2230
 2.4370	11.1610
 2.4380	11.0910
 2.4390	11.0440
 2.4400	11.0190
 2.4410	10.9730
 2.4420	10.9160
 2.4430	10.8330
 2.4440	10.7350
 2.4450	10.6800
 2.4460	10.6260
 2.4470	10.5980
 2.4480	10.5810
 2.4490	10.5230
 2.4500	10.4840
 2.4510	10.4480
 2.4520	10.3840
 2.4530	10.3340
 2.4540	10.2750
 2.4550	10.1950
 2.4560	10.1500
 2.4570	10.1110
 2.4580	10.0460
 2.4590	10.0020
 2.4600	 9.9450
 2.4610	 9.8410
 2.4620	 9.7790
 2.4630	 9.7380
 2.4640	 9.6650
 2.4650	 9.6310
 2.4660	 9.5950
 2.4670	 9.5320
 2.4680	 9.5130
 2.4690	 9.4870
 2.4700	 9.4480
 2.4710	 9.3770
 2.4720	 9.3260
 2.4730	 9.2880
 2.4740	 9.2520
 2.4750	 9.2570
 2.4760	 9.2170
 2.4770	 9.1180
 2.4780	 9.0720
 2.4790	 9.0320
 2.4800	 8.9570
 2.4810	 8.9170
 2.4820	 8.8360
 2.4830	 8.7880
 2.4840	 8.8560
 2.4850	 8.8880
 2.4860	 8.9000
 2.4870	 8.8820
 2.4880	 8.8160
 2.4890	 8.8010
 2.4900	 8.8020
 2.4910	 8.8200
 2.4920	 8.8200
 2.4930	 8.7490
 2.4940	 8.7400
 2.4950	 8.6900
 2.4960	 8.6320
 2.4970	 8.6240
 2.4980	 8.5110
 2.4990	 8.4240
 2.5000	 8.3900
