Name: Baccharis pilularis 2
Type: vegetation
Class: Shrub
Genus: Baccharis
Species: pilularis
Sample No.: VH231
Owner: UCSB
Wavelength Range: TIR
Origin: 34.5084; -119.7683; WGS84
Collection Date: 10/13/2013
Description: Samples were collected as part of the HyspIRI Airborne Campaign. 48 individual plants were sampled in three times in 2013 - spring  summer  and fall. The name of the sample includes a 1  2  or 3 which references a different individual of the species. Samples were taken to JPL and processed within 48 hours of collection. The same leaves were processed in the Nicolet and then measured using the ASD.
Measurement: Hemispherical reflectance
First Column: X
Second Column: Y
X Units: Wavelength (micrometers)
Y Units: Reflectance (percentage)
First X Value: 2.501
Last X Value: 15.387
Number of X Values: 1737
Additional Information: vegetation.shrub.baccharis.pilularis.tir.vh231.ucsb.nicolet.ancillary.txt

 2.5010	11.3570
 2.5030	11.5160
 2.5040	11.6170
 2.5050	11.2570
 2.5060	11.1630
 2.5070	11.5140
 2.5090	11.7090
 2.5100	11.6550
 2.5110	11.7840
 2.5120	11.7280
 2.5140	11.5470
 2.5150	11.3720
 2.5160	11.4370
 2.5170	11.4350
 2.5180	11.6110
 2.5200	11.7090
 2.5210	11.4760
 2.5220	11.2480
 2.5230	11.5640
 2.5250	11.6810
 2.5260	11.6300
 2.5270	11.5910
 2.5280	11.5190
 2.5290	11.5750
 2.5310	11.5280
 2.5320	11.5260
 2.5330	11.5520
 2.5340	11.3340
 2.5360	11.3480
 2.5370	11.4560
 2.5380	11.6400
 2.5390	11.6390
 2.5410	11.5860
 2.5420	11.3380
 2.5430	11.4910
 2.5440	11.6550
 2.5460	11.6400
 2.5470	11.7600
 2.5480	11.7190
 2.5490	11.5020
 2.5510	11.5450
 2.5520	11.5280
 2.5530	11.5380
 2.5540	11.5130
 2.5560	11.4870
 2.5570	11.5280
 2.5580	11.6560
 2.5590	11.6280
 2.5610	11.5900
 2.5620	11.4220
 2.5630	11.5130
 2.5640	11.6380
 2.5660	11.6140
 2.5670	11.6310
 2.5680	11.6730
 2.5700	11.6040
 2.5710	11.5120
 2.5720	11.5270
 2.5730	11.7200
 2.5750	11.6580
 2.5760	11.5850
 2.5770	11.3980
 2.5790	11.4350
 2.5800	11.5660
 2.5810	11.6590
 2.5820	11.7110
 2.5840	11.6960
 2.5850	11.5200
 2.5860	11.3450
 2.5880	11.4800
 2.5890	11.6540
 2.5900	11.6510
 2.5910	11.6460
 2.5930	11.5230
 2.5940	11.6340
 2.5950	11.8020
 2.5970	11.7520
 2.5980	11.5960
 2.5990	11.5120
 2.6000	11.5290
 2.6020	11.4900
 2.6030	11.3420
 2.6040	11.4840
 2.6060	11.5660
 2.6070	11.5880
 2.6080	11.6130
 2.6100	11.5660
 2.6110	11.4570
 2.6120	11.4780
 2.6140	11.3680
 2.6150	11.2740
 2.6160	11.4210
 2.6180	11.5790
 2.6190	11.4780
 2.6200	11.4540
 2.6220	11.2700
 2.6230	11.2350
 2.6240	11.1780
 2.6260	11.2190
 2.6270	11.3430
 2.6280	11.3360
 2.6300	11.1680
 2.6310	11.2380
 2.6320	11.0630
 2.6340	10.9290
 2.6350	10.9760
 2.6360	11.1680
 2.6380	11.2860
 2.6390	11.1410
 2.6400	11.0030
 2.6420	11.2300
 2.6430	11.2360
 2.6440	11.0920
 2.6460	10.9960
 2.6470	11.1270
 2.6480	11.0590
 2.6500	11.0670
 2.6510	11.0520
 2.6520	11.0840
 2.6540	11.1440
 2.6550	11.0110
 2.6560	10.9670
 2.6580	11.0690
 2.6590	10.9990
 2.6610	10.9040
 2.6620	10.7280
 2.6630	10.9030
 2.6650	11.1090
 2.6660	11.0920
 2.6670	10.9790
 2.6690	10.8480
 2.6700	10.9310
 2.6720	11.0270
 2.6730	10.8060
 2.6740	10.7860
 2.6760	10.7970
 2.6770	10.8370
 2.6780	10.9280
 2.6800	10.9910
 2.6810	10.9260
 2.6830	10.7650
 2.6840	10.6220
 2.6850	10.6730
 2.6870	10.7910
 2.6880	10.9120
 2.6900	10.9170
 2.6910	11.0110
 2.6920	10.7850
 2.6940	10.5700
 2.6950	10.3540
 2.6970	10.4790
 2.6980	10.4260
 2.6990	10.5480
 2.7010	11.0310
 2.7020	10.9900
 2.7040	10.8360
 2.7050	10.7570
 2.7060	10.7350
 2.7080	10.8310
 2.7090	10.8270
 2.7110	10.7720
 2.7120	10.6870
 2.7130	10.5850
 2.7150	10.3420
 2.7160	10.3620
 2.7180	10.4990
 2.7190	10.5510
 2.7210	10.4760
 2.7220	10.6540
 2.7230	10.7510
 2.7250	10.5330
 2.7260	10.4110
 2.7280	10.4570
 2.7290	10.2870
 2.7310	10.1270
 2.7320	10.1120
 2.7330	10.1990
 2.7350	10.3830
 2.7360	10.4430
 2.7380	10.0670
 2.7390	10.1470
 2.7410	10.0600
 2.7420	10.0090
 2.7440	10.0740
 2.7450	 9.9250
 2.7470	 9.8620
 2.7480	 9.9720
 2.7490	 9.9100
 2.7510	 9.6280
 2.7520	10.3700
 2.7540	11.0470
 2.7550	10.4630
 2.7570	 9.5030
 2.7580	 9.1220
 2.7600	 9.6770
 2.7610	 9.6870
 2.7630	 9.6430
 2.7640	 9.9290
 2.7660	 9.7070
 2.7670	 9.1430
 2.7680	 9.3360
 2.7700	 9.5590
 2.7710	 9.7220
 2.7730	 9.4890
 2.7740	 9.1310
 2.7760	 9.1900
 2.7770	 9.4200
 2.7790	 9.5990
 2.7800	 9.5110
 2.7820	 9.4530
 2.7830	 9.6850
 2.7850	 9.7290
 2.7860	 9.7850
 2.7880	 9.7800
 2.7890	 9.6390
 2.7910	 9.5140
 2.7920	 9.6390
 2.7940	 9.7910
 2.7950	 9.6280
 2.7970	 9.0470
 2.7980	 9.0680
 2.8000	 9.5860
 2.8010	 9.6550
 2.8030	 9.3340
 2.8040	 9.2970
 2.8060	 9.3060
 2.8070	 9.3430
 2.8090	 9.3780
 2.8110	 9.3650
 2.8120	 9.2670
 2.8140	 9.5080
 2.8150	 9.5390
 2.8170	 9.3560
 2.8180	 9.2950
 2.8200	 9.2420
 2.8210	 9.1210
 2.8230	 9.1420
 2.8240	 9.1830
 2.8260	 9.2400
 2.8270	 9.1470
 2.8290	 9.2400
 2.8300	 9.1740
 2.8320	 9.3210
 2.8340	 9.4330
 2.8350	 9.1980
 2.8370	 9.1450
 2.8380	 9.3510
 2.8400	 9.2540
 2.8410	 9.1690
 2.8430	 9.2450
 2.8440	 9.4040
 2.8460	 9.2920
 2.8480	 9.1540
 2.8490	 9.1760
 2.8510	 9.2340
 2.8520	 9.0690
 2.8540	 9.0540
 2.8550	 9.1470
 2.8570	 9.2640
 2.8590	 9.1650
 2.8600	 9.1660
 2.8620	 9.3100
 2.8630	 9.2790
 2.8650	 9.4000
 2.8660	 9.7370
 2.8680	 9.4860
 2.8700	 9.5300
 2.8710	 9.6800
 2.8730	 9.2590
 2.8740	 9.0500
 2.8760	 9.2310
 2.8780	 9.0060
 2.8790	 9.0480
 2.8810	 9.3730
 2.8820	 9.2020
 2.8840	 9.0810
 2.8860	 8.9550
 2.8870	 9.0270
 2.8890	 8.9900
 2.8900	 8.9790
 2.8920	 9.1360
 2.8940	 9.2540
 2.8950	 9.5480
 2.8970	 9.3030
 2.8980	 9.2930
 2.9000	 9.4120
 2.9020	 9.5560
 2.9030	 9.4970
 2.9050	 9.4920
 2.9070	 9.3640
 2.9080	 9.5420
 2.9100	 9.4380
 2.9120	 9.1670
 2.9130	 9.2240
 2.9150	 9.3060
 2.9160	 9.3600
 2.9180	 9.2230
 2.9200	 9.1210
 2.9210	 9.3230
 2.9230	 9.2810
 2.9250	 9.3620
 2.9260	 9.3050
 2.9280	 9.2670
 2.9300	 9.2430
 2.9310	 9.2740
 2.9330	 9.2240
 2.9350	 9.2380
 2.9360	 9.2730
 2.9380	 9.3920
 2.9400	 9.2560
 2.9410	 9.3060
 2.9430	 9.0950
 2.9450	 9.0570
 2.9460	 8.8720
 2.9480	 8.7500
 2.9500	 9.0690
 2.9510	 9.4630
 2.9530	 9.7970
 2.9550	 9.9980
 2.9560	 9.7430
 2.9580	10.2040
 2.9600	10.5620
 2.9610	 9.3800
 2.9630	 9.2180
 2.9650	10.4450
 2.9660	 9.4030
 2.9680	 7.5130
 2.9700	 7.2030
 2.9720	 7.8580
 2.9730	 8.4710
 2.9750	 9.4790
 2.9770	 8.7780
 2.9780	 8.0920
 2.9800	 7.3960
 2.9820	 7.8850
 2.9840	 8.8820
 2.9850	 9.4510
 2.9870	 8.8920
 2.9890	 7.5550
 2.9900	 9.6840
 2.9920	 9.7850
 2.9940	 8.4000
 2.9960	 7.4150
 2.9970	 7.2150
 2.9990	 6.7940
 3.0010	 7.5370
 3.0030	 8.0860
 3.0040	 8.6790
 3.0060	 8.3920
 3.0080	 8.5710
 3.0100	 9.7070
 3.0110	 9.3140
 3.0130	 8.1580
 3.0150	 8.3510
 3.0170	 9.7560
 3.0180	10.0520
 3.0200	 9.5980
 3.0220	 9.1400
 3.0240	 8.3590
 3.0250	 8.9300
 3.0270	 8.9230
 3.0290	 9.1600
 3.0310	10.1060
 3.0320	10.0860
 3.0340	 9.7150
 3.0360	10.9200
 3.0380	10.3870
 3.0400	 8.9960
 3.0410	 9.2400
 3.0430	 9.4040
 3.0450	 9.8770
 3.0470	 8.0570
 3.0480	 7.7630
 3.0500	 9.9710
 3.0520	 9.8530
 3.0540	11.0940
 3.0560	10.5860
 3.0570	 9.8060
 3.0590	10.6120
 3.0610	10.7180
 3.0630	 9.9390
 3.0650	 9.3590
 3.0660	10.1970
 3.0680	 9.8950
 3.0700	10.1520
 3.0720	10.7570
 3.0740	 9.6480
 3.0760	 8.7450
 3.0770	 9.2810
 3.0790	 9.3800
 3.0810	 9.3530
 3.0830	 9.3080
 3.0850	 9.5650
 3.0870	 9.4210
 3.0880	 9.3340
 3.0900	 9.5640
 3.0920	 9.7820
 3.0940	 9.4690
 3.0960	 9.6080
 3.0980	 9.7750
 3.0990	 9.9150
 3.1010	 9.8720
 3.1030	 9.9600
 3.1050	 9.9400
 3.1070	 9.6820
 3.1090	 9.4570
 3.1110	 9.2570
 3.1120	 9.2640
 3.1140	 9.3240
 3.1160	 9.2430
 3.1180	 9.5350
 3.1200	 9.5680
 3.1220	 9.5200
 3.1240	 9.3940
 3.1260	 9.5070
 3.1270	 9.5270
 3.1290	 9.9530
 3.1310	10.2730
 3.1330	10.6360
 3.1350	10.6080
 3.1370	 9.7150
 3.1390	 8.7870
 3.1410	 8.4810
 3.1430	 7.1650
 3.1450	 7.0420
 3.1460	 9.1760
 3.1480	10.6400
 3.1500	 9.9880
 3.1520	 8.3070
 3.1540	 8.4730
 3.1560	10.0000
 3.1580	 9.0130
 3.1600	 7.4830
 3.1620	10.2430
 3.1640	11.0480
 3.1660	 8.8220
 3.1680	 8.5820
 3.1700	10.7080
 3.1710	11.4890
 3.1730	 9.9760
 3.1750	 8.2810
 3.1770	 9.2230
 3.1790	10.5400
 3.1810	 9.9280
 3.1830	 9.8450
 3.1850	10.5030
 3.1870	10.6700
 3.1890	10.4030
 3.1910	 9.7240
 3.1930	 9.5710
 3.1950	 9.8610
 3.1970	 9.7800
 3.1990	 9.4880
 3.2010	 9.3530
 3.2030	 9.6270
 3.2050	10.0960
 3.2070	10.1470
 3.2090	10.0600
 3.2110	 9.8690
 3.2130	 9.8550
 3.2150	 9.8340
 3.2170	 9.6700
 3.2190	 9.7780
 3.2210	 9.9400
 3.2230	10.0800
 3.2250	 9.9270
 3.2270	 9.8290
 3.2290	 9.6930
 3.2310	 9.8140
 3.2330	 9.9850
 3.2350	 9.9140
 3.2370	 9.5800
 3.2390	 9.7300
 3.2410	 9.9500
 3.2430	 9.9250
 3.2450	10.0170
 3.2470	10.2490
 3.2490	10.4110
 3.2510	10.1660
 3.2530	 9.8270
 3.2550	 9.5040
 3.2570	 9.9260
 3.2590	10.3890
 3.2610	10.2100
 3.2630	 9.9560
 3.2650	 9.7010
 3.2670	 9.6910
 3.2690	 9.6550
 3.2720	 9.8230
 3.2740	 9.9890
 3.2760	 9.8430
 3.2780	 9.5730
 3.2800	 9.6790
 3.2820	 9.7090
 3.2840	 9.5080
 3.2860	 9.4980
 3.2880	 9.5360
 3.2900	 9.8270
 3.2920	10.0550
 3.2940	 9.8180
 3.2960	10.2030
 3.2990	10.7250
 3.3010	10.8650
 3.3030	10.3330
 3.3050	 9.9010
 3.3070	 9.7760
 3.3090	 9.8310
 3.3110	 9.8370
 3.3130	 9.9780
 3.3150	10.1230
 3.3180	 9.8880
 3.3200	 9.7660
 3.3220	 9.7740
 3.3240	 9.6270
 3.3260	 9.6320
 3.3280	 9.7590
 3.3300	 9.6640
 3.3330	 9.7570
 3.3350	 9.9890
 3.3370	 9.9060
 3.3390	 9.8350
 3.3410	 9.7610
 3.3430	 9.6280
 3.3450	 9.6280
 3.3480	 9.8030
 3.3500	 9.8690
 3.3520	 9.6200
 3.3540	 9.5870
 3.3560	 9.6710
 3.3580	 9.5900
 3.3610	 9.5050
 3.3630	 9.4520
 3.3650	 9.5730
 3.3670	 9.6260
 3.3690	 9.5590
 3.3720	 9.4320
 3.3740	 9.5410
 3.3760	 9.6520
 3.3780	 9.6470
 3.3800	 9.5570
 3.3830	 9.5740
 3.3850	 9.5750
 3.3870	 9.5780
 3.3890	 9.3700
 3.3910	 9.0960
 3.3940	 9.1240
 3.3960	 9.2090
 3.3980	 9.3980
 3.4000	 9.6050
 3.4020	 9.4370
 3.4050	 9.4550
 3.4070	 9.4540
 3.4090	 9.6400
 3.4110	 9.9400
 3.4140	10.1450
 3.4160	10.2930
 3.4180	10.7400
 3.4200	11.3340
 3.4230	12.0040
 3.4250	12.7500
 3.4270	13.4180
 3.4290	14.0210
 3.4320	13.7370
 3.4340	12.8610
 3.4360	12.1480
 3.4390	11.4250
 3.4410	11.0010
 3.4430	10.8350
 3.4450	10.7500
 3.4480	10.6270
 3.4500	10.5800
 3.4520	10.3950
 3.4550	10.3470
 3.4570	10.4150
 3.4590	10.5570
 3.4620	10.6450
 3.4640	10.4650
 3.4660	10.2170
 3.4680	10.0890
 3.4710	10.1430
 3.4730	10.1850
 3.4750	10.0790
 3.4780	10.0580
 3.4800	10.0110
 3.4820	 9.9910
 3.4850	 9.8250
 3.4870	 9.7570
 3.4890	 9.8960
 3.4920	 9.9540
 3.4940	 9.8930
 3.4970	 9.9130
 3.4990	 9.9730
 3.5010	10.1330
 3.5040	10.4630
 3.5060	11.1950
 3.5080	12.3260
 3.5110	13.2330
 3.5130	13.1000
 3.5160	12.2190
 3.5180	11.4610
 3.5200	11.1170
 3.5230	10.9630
 3.5250	10.8380
 3.5270	10.7250
 3.5300	10.7400
 3.5320	10.7300
 3.5350	10.6600
 3.5370	10.6640
 3.5400	10.6870
 3.5420	10.5980
 3.5440	10.5690
 3.5470	10.6020
 3.5490	10.6710
 3.5520	10.4950
 3.5540	10.3390
 3.5570	10.2850
 3.5590	10.2800
 3.5610	10.2630
 3.5640	10.2700
 3.5660	10.4290
 3.5690	10.5250
 3.5710	10.4980
 3.5740	10.5840
 3.5760	10.5500
 3.5790	10.3930
 3.5810	10.3290
 3.5840	10.3410
 3.5860	10.6440
 3.5890	10.8060
 3.5910	10.4950
 3.5930	10.2590
 3.5960	10.0090
 3.5980	 9.8870
 3.6010	10.0500
 3.6030	10.1060
 3.6060	10.0590
 3.6080	10.1900
 3.6110	10.3150
 3.6140	10.4000
 3.6160	10.3040
 3.6190	10.1840
 3.6210	10.1800
 3.6240	10.2070
 3.6260	10.1920
 3.6290	10.1940
 3.6310	10.2920
 3.6340	10.2120
 3.6360	10.1570
 3.6390	10.3620
 3.6410	10.3420
 3.6440	10.3010
 3.6470	10.2930
 3.6490	10.2820
 3.6520	10.2860
 3.6540	10.2500
 3.6570	10.2070
 3.6590	10.1260
 3.6620	10.1480
 3.6650	10.2020
 3.6670	10.2830
 3.6700	10.4320
 3.6720	10.3700
 3.6750	10.1390
 3.6780	10.1680
 3.6800	10.3090
 3.6830	10.1980
 3.6850	10.1950
 3.6880	10.2590
 3.6910	10.1900
 3.6930	10.1750
 3.6960	10.2960
 3.6990	10.2460
 3.7010	10.2000
 3.7040	10.3110
 3.7060	10.3020
 3.7090	10.3190
 3.7120	10.3990
 3.7140	10.3260
 3.7170	10.2570
 3.7200	10.2390
 3.7220	10.1450
 3.7250	10.1140
 3.7280	10.0380
 3.7300	10.0300
 3.7330	10.2810
 3.7360	10.2880
 3.7390	10.1870
 3.7410	10.1890
 3.7440	10.2890
 3.7470	10.3440
 3.7490	10.3280
 3.7520	10.3850
 3.7550	10.3910
 3.7580	10.3610
 3.7600	10.2790
 3.7630	10.2430
 3.7660	10.3390
 3.7680	10.3930
 3.7710	10.2940
 3.7740	10.1610
 3.7770	10.1470
 3.7790	10.1520
 3.7820	10.1340
 3.7850	10.0320
 3.7880	10.0870
 3.7900	10.2420
 3.7930	10.2210
 3.7960	10.2200
 3.7990	10.2710
 3.8020	10.2020
 3.8040	10.2800
 3.8070	10.3580
 3.8100	10.3890
 3.8130	10.2920
 3.8160	10.2670
 3.8180	10.4480
 3.8210	10.3890
 3.8240	10.1220
 3.8270	10.0790
 3.8300	10.1700
 3.8330	10.3490
 3.8350	10.5210
 3.8380	10.4920
 3.8410	10.4110
 3.8440	10.3570
 3.8470	10.2340
 3.8500	10.3130
 3.8520	10.3330
 3.8550	10.2260
 3.8580	10.2830
 3.8610	10.3140
 3.8640	10.2230
 3.8670	10.2580
 3.8700	10.3340
 3.8730	10.3950
 3.8750	10.3780
 3.8780	10.2430
 3.8810	10.2670
 3.8840	10.3810
 3.8870	10.4480
 3.8900	10.4110
 3.8930	10.3720
 3.8960	10.3930
 3.8990	10.3600
 3.9020	10.1470
 3.9050	10.0150
 3.9080	10.0340
 3.9110	10.0870
 3.9140	10.1390
 3.9160	10.1810
 3.9190	10.3180
 3.9220	10.3150
 3.9250	10.2220
 3.9280	10.2310
 3.9310	10.2190
 3.9340	10.2430
 3.9370	10.3510
 3.9400	10.3420
 3.9430	10.3900
 3.9460	10.4360
 3.9490	10.3050
 3.9520	10.1870
 3.9550	10.2260
 3.9580	10.2920
 3.9610	10.3180
 3.9640	10.3030
 3.9670	10.3070
 3.9700	10.3150
 3.9730	10.3080
 3.9770	10.2850
 3.9800	10.2070
 3.9830	10.2390
 3.9860	10.2750
 3.9890	10.3370
 3.9920	10.4560
 3.9950	10.4690
 3.9980	10.4830
 4.0010	10.3990
 4.0040	10.3040
 4.0070	10.3620
 4.0100	10.4290
 4.0130	10.3220
 4.0170	10.3270
 4.0200	10.3240
 4.0230	10.2440
 4.0260	10.1620
 4.0290	10.1630
 4.0320	10.2580
 4.0350	10.3440
 4.0380	10.2950
 4.0420	10.3010
 4.0450	10.3430
 4.0480	10.3380
 4.0510	10.3530
 4.0540	10.3620
 4.0570	10.3330
 4.0610	10.3440
 4.0640	10.4050
 4.0670	10.3870
 4.0700	10.3350
 4.0730	10.2520
 4.0770	10.2020
 4.0800	10.2280
 4.0830	10.3210
 4.0860	10.2770
 4.0890	10.3090
 4.0930	10.4390
 4.0960	10.4940
 4.0990	10.4030
 4.1020	10.1230
 4.1060	10.0860
 4.1090	10.2800
 4.1120	10.2490
 4.1150	10.1760
 4.1190	10.2260
 4.1220	10.3190
 4.1250	10.3800
 4.1280	10.3620
 4.1320	10.3720
 4.1350	10.3810
 4.1380	10.3410
 4.1420	10.2870
 4.1450	10.2810
 4.1480	10.2040
 4.1520	10.1610
 4.1550	10.2250
 4.1580	10.2620
 4.1620	10.2500
 4.1650	10.2610
 4.1680	10.3590
 4.1720	10.3910
 4.1750	10.3030
 4.1780	10.2510
 4.1820	10.3230
 4.1850	10.3490
 4.1890	10.2720
 4.1920	10.3220
 4.1950	10.3640
 4.1990	10.3550
 4.2020	10.3310
 4.2060	10.3520
 4.2090	10.4840
 4.2120	10.6710
 4.2160	10.6270
 4.2190	10.6600
 4.2230	10.5060
 4.2260	10.3100
 4.2300	10.4160
 4.2330	10.2150
 4.2360	10.1250
 4.2400	10.4490
 4.2430	11.0210
 4.2470	11.1950
 4.2500	10.7430
 4.2540	10.3930
 4.2570	10.6010
 4.2610	10.7870
 4.2640	10.7170
 4.2680	10.6450
 4.2710	10.6610
 4.2750	10.5000
 4.2780	10.3270
 4.2820	10.3240
 4.2850	10.3860
 4.2890	10.3250
 4.2930	10.2000
 4.2960	10.2010
 4.3000	10.3240
 4.3030	10.3270
 4.3070	10.3590
 4.3100	10.3580
 4.3140	10.3320
 4.3180	10.2540
 4.3210	10.2400
 4.3250	10.1960
 4.3280	10.2310
 4.3320	10.3600
 4.3360	10.3030
 4.3390	10.2460
 4.3430	10.2080
 4.3470	10.1660
 4.3500	10.1220
 4.3540	10.1000
 4.3570	10.1490
 4.3610	10.1490
 4.3650	10.2040
 4.3680	10.2920
 4.3720	10.2620
 4.3760	10.1700
 4.3800	10.1650
 4.3830	10.2230
 4.3870	10.1640
 4.3910	10.1240
 4.3940	10.1580
 4.3980	10.1240
 4.4020	10.0900
 4.4060	10.0820
 4.4090	10.0310
 4.4130	10.0810
 4.4170	10.1210
 4.4210	10.0610
 4.4240	10.0450
 4.4280	10.0510
 4.4320	10.0310
 4.4360	10.0040
 4.4400	10.0620
 4.4430	10.0880
 4.4470	10.0560
 4.4510	10.0520
 4.4550	10.1360
 4.4590	10.1410
 4.4620	10.0460
 4.4660	10.0360
 4.4700	10.0700
 4.4740	10.0170
 4.4780	10.0140
 4.4820	10.0490
 4.4860	 9.9950
 4.4900	 9.9640
 4.4930	 9.9730
 4.4970	10.0010
 4.5010	10.0060
 4.5050	 9.9660
 4.5090	10.0270
 4.5130	10.1010
 4.5170	10.0710
 4.5210	 9.9550
 4.5250	 9.9390
 4.5290	 9.9470
 4.5330	 9.9860
 4.5370	 9.9910
 4.5410	10.0570
 4.5450	10.0210
 4.5490	 9.9650
 4.5530	10.0100
 4.5570	 9.9490
 4.5610	 9.8870
 4.5650	10.0820
 4.5690	10.0560
 4.5730	 9.9860
 4.5770	10.0040
 4.5810	10.0290
 4.5850	10.0970
 4.5890	10.1140
 4.5930	 9.9290
 4.5970	 9.8030
 4.6010	 9.7970
 4.6050	 9.8950
 4.6090	10.0250
 4.6130	10.2680
 4.6170	10.1940
 4.6220	 9.9250
 4.6260	 9.8840
 4.6300	 9.8990
 4.6340	10.0180
 4.6380	10.0030
 4.6420	 9.8220
 4.6460	 9.8140
 4.6510	 9.7820
 4.6550	 9.8420
 4.6590	 9.9180
 4.6630	 9.9350
 4.6670	 9.9390
 4.6720	 9.9410
 4.6760	 9.8960
 4.6800	 9.8260
 4.6840	 9.8510
 4.6880	 9.8900
 4.6930	 9.8840
 4.6970	 9.9090
 4.7010	 9.8350
 4.7050	 9.6730
 4.7100	 9.6460
 4.7140	 9.7900
 4.7180	 9.8690
 4.7230	 9.8260
 4.7270	 9.8550
 4.7310	 9.9200
 4.7360	 9.9160
 4.7400	 9.8800
 4.7440	 9.8330
 4.7490	 9.7650
 4.7530	 9.7250
 4.7570	 9.7900
 4.7620	 9.8020
 4.7660	 9.8000
 4.7700	 9.8940
 4.7750	 9.9410
 4.7790	 9.8480
 4.7840	 9.6250
 4.7880	 9.4040
 4.7920	 9.5360
 4.7970	 9.6480
 4.8010	 9.7570
 4.8060	 9.7890
 4.8100	 9.7900
 4.8150	 9.7970
 4.8190	 9.8200
 4.8240	 9.8000
 4.8280	 9.7180
 4.8330	 9.6820
 4.8370	 9.7590
 4.8420	 9.7220
 4.8460	 9.7650
 4.8510	 9.8090
 4.8550	 9.8440
 4.8600	 9.8500
 4.8640	 9.7820
 4.8690	 9.7230
 4.8730	 9.7710
 4.8780	 9.7520
 4.8830	 9.7550
 4.8870	 9.7610
 4.8920	 9.7880
 4.8960	 9.7160
 4.9010	 9.7610
 4.9060	 9.8550
 4.9100	 9.7960
 4.9150	 9.6740
 4.9200	 9.6290
 4.9240	 9.6630
 4.9290	 9.7720
 4.9340	 9.8190
 4.9380	 9.7630
 4.9430	 9.7070
 4.9480	 9.7670
 4.9530	 9.7480
 4.9570	 9.7930
 4.9620	 9.7700
 4.9670	 9.7730
 4.9720	 9.8110
 4.9760	 9.7610
 4.9810	 9.6810
 4.9860	 9.6670
 4.9910	 9.6610
 4.9960	 9.7130
 5.0000	 9.7830
 5.0050	 9.9150
 5.0100	 9.9770
 5.0150	 9.9790
 5.0200	 9.8400
 5.0250	 9.7090
 5.0290	 9.6750
 5.0340	 9.7260
 5.0390	 9.6760
 5.0440	 9.7310
 5.0490	 9.7310
 5.0540	 9.7450
 5.0590	 9.7080
 5.0640	 9.6240
 5.0690	 9.6230
 5.0740	 9.7480
 5.0790	 9.8140
 5.0840	 9.7880
 5.0890	 9.7730
 5.0940	 9.7290
 5.0990	 9.6230
 5.1040	 9.6330
 5.1090	 9.6810
 5.1140	 9.7190
 5.1190	 9.6650
 5.1240	 9.6510
 5.1290	 9.6180
 5.1340	 9.6650
 5.1390	 9.6760
 5.1440	 9.6400
 5.1490	 9.5790
 5.1540	 9.6970
 5.1600	 9.7090
 5.1650	 9.6010
 5.1700	 9.6520
 5.1750	 9.7300
 5.1800	 9.6480
 5.1850	 9.6620
 5.1910	 9.6620
 5.1960	 9.6990
 5.2010	 9.6580
 5.2060	 9.6930
 5.2110	 9.7420
 5.2170	 9.8220
 5.2220	 9.7770
 5.2270	 9.7210
 5.2320	 9.7180
 5.2380	 9.7480
 5.2430	 9.6470
 5.2480	 9.6050
 5.2540	 9.5370
 5.2590	 9.5950
 5.2640	 9.6860
 5.2700	 9.6710
 5.2750	 9.6310
 5.2800	 9.6990
 5.2860	 9.7420
 5.2910	 9.7230
 5.2970	 9.6330
 5.3020	 9.6520
 5.3070	 9.6570
 5.3130	 9.6820
 5.3180	 9.5790
 5.3240	 9.5210
 5.3290	 9.5540
 5.3350	 9.6720
 5.3400	 9.5790
 5.3460	 9.5560
 5.3510	 9.5870
 5.3570	 9.5470
 5.3620	 9.4960
 5.3680	 9.5120
 5.3730	 9.4860
 5.3790	 9.5940
 5.3850	 9.6460
 5.3900	 9.6160
 5.3960	 9.5020
 5.4010	 9.5240
 5.4070	 9.5500
 5.4130	 9.5290
 5.4180	 9.4770
 5.4240	 9.5660
 5.4300	 9.6080
 5.4350	 9.5000
 5.4410	 9.3840
 5.4470	 9.4730
 5.4530	 9.5240
 5.4580	 9.5530
 5.4640	 9.5010
 5.4700	 9.4060
 5.4760	 9.3160
 5.4810	 9.3920
 5.4870	 9.3990
 5.4930	 9.3390
 5.4990	 9.3100
 5.5050	 9.3520
 5.5110	 9.3540
 5.5160	 9.4150
 5.5220	 9.3250
 5.5280	 9.2810
 5.5340	 9.2780
 5.5400	 9.2900
 5.5460	 9.2050
 5.5520	 9.2210
 5.5580	 9.2790
 5.5640	 9.2470
 5.5700	 9.1240
 5.5760	 9.1690
 5.5820	 9.1720
 5.5880	 9.1780
 5.5940	 9.1320
 5.6000	 9.0560
 5.6060	 8.9840
 5.6120	 9.0070
 5.6180	 8.9780
 5.6240	 8.9760
 5.6300	 8.9260
 5.6360	 8.9300
 5.6420	 8.8910
 5.6490	 8.9370
 5.6550	 8.9090
 5.6610	 8.7070
 5.6670	 8.4770
 5.6730	 8.4730
 5.6800	 8.4790
 5.6860	 8.4450
 5.6920	 8.3360
 5.6980	 8.2960
 5.7040	 8.2420
 5.7110	 8.2020
 5.7170	 8.1560
 5.7230	 8.1520
 5.7300	 8.0100
 5.7360	 7.9840
 5.7420	 7.9850
 5.7490	 8.0400
 5.7550	 8.1120
 5.7620	 8.2460
 5.7680	 8.3280
 5.7740	 8.4310
 5.7810	 8.4720
 5.7870	 8.5240
 5.7940	 8.6010
 5.8000	 8.6920
 5.8070	 8.7360
 5.8130	 8.8630
 5.8200	 8.9490
 5.8260	 9.0290
 5.8330	 9.0080
 5.8390	 9.1080
 5.8460	 9.2080
 5.8530	 9.2400
 5.8590	 9.2480
 5.8660	 9.2830
 5.8720	 9.2710
 5.8790	 9.3610
 5.8860	 9.3210
 5.8920	 9.3080
 5.8990	 9.3050
 5.9060	 9.4040
 5.9130	 9.4320
 5.9190	 9.4590
 5.9260	 9.4980
 5.9330	 9.7480
 5.9400	 9.8540
 5.9470	 9.8890
 5.9530	 9.8370
 5.9600	 9.9250
 5.9670	 9.9160
 5.9740	 9.8280
 5.9810	 9.7490
 5.9880	 9.8470
 5.9950	 9.8610
 6.0020	 9.8620
 6.0090	 9.7890
 6.0160	 9.8340
 6.0230	 9.7930
 6.0300	 9.8510
 6.0370	 9.8580
 6.0440	 9.9120
 6.0510	 9.8730
 6.0580	 9.8320
 6.0650	 9.7610
 6.0720	 9.8600
 6.0790	 9.8620
 6.0860	 9.8590
 6.0930	 9.8170
 6.1000	 9.9570
 6.1080	 9.9380
 6.1150	 9.9900
 6.1220	 9.9760
 6.1290	10.1430
 6.1370	10.0940
 6.1440	10.1580
 6.1510	10.1700
 6.1580	10.2800
 6.1660	10.4200
 6.1730	10.5580
 6.1800	10.5710
 6.1880	10.6100
 6.1950	10.5230
 6.2030	10.5740
 6.2100	10.4900
 6.2170	10.5150
 6.2250	10.4690
 6.2320	10.4630
 6.2400	10.4170
 6.2470	10.3720
 6.2550	10.1240
 6.2630	10.0670
 6.2700	10.0720
 6.2780	10.1210
 6.2850	10.0710
 6.2930	10.0230
 6.3010	 9.8910
 6.3080	 9.8700
 6.3160	 9.8210
 6.3240	 9.7400
 6.3310	 9.7090
 6.3390	 9.9810
 6.3470	 9.9800
 6.3550	 9.8700
 6.3620	 9.7680
 6.3700	 9.8530
 6.3780	 9.8740
 6.3860	 9.8080
 6.3940	 9.6450
 6.4020	 9.7820
 6.4100	 9.8240
 6.4180	 9.7680
 6.4260	 9.7680
 6.4330	 9.8380
 6.4410	 9.7360
 6.4490	 9.7080
 6.4580	 9.6350
 6.4660	 9.7710
 6.4740	 9.8290
 6.4820	 9.8850
 6.4900	 9.8150
 6.4980	 9.7890
 6.5060	 9.6600
 6.5140	 9.6350
 6.5230	 9.4650
 6.5310	 9.3690
 6.5390	 9.3890
 6.5470	 9.4710
 6.5550	 9.3980
 6.5640	 9.4800
 6.5720	 9.4490
 6.5800	 9.4290
 6.5890	 9.3450
 6.5970	 9.4420
 6.6060	 9.4650
 6.6140	 9.4870
 6.6220	 9.4020
 6.6310	 9.4830
 6.6390	 9.4000
 6.6480	 9.3730
 6.6560	 9.3030
 6.6650	 9.3240
 6.6740	 9.3260
 6.6820	 9.4260
 6.6910	 9.3200
 6.6990	 9.1890
 6.7080	 9.1440
 6.7170	 9.2350
 6.7260	 9.1190
 6.7340	 9.0490
 6.7430	 8.9790
 6.7520	 8.9840
 6.7610	 8.9450
 6.7690	 8.9580
 6.7780	 9.0050
 6.7870	 9.2700
 6.7960	 9.2000
 6.8050	 8.9760
 6.8140	 8.8130
 6.8230	 8.9260
 6.8320	 8.9780
 6.8410	 9.1970
 6.8500	 9.2040
 6.8590	 9.1930
 6.8680	 9.0400
 6.8770	 8.9860
 6.8860	 8.9170
 6.8950	 8.9970
 6.9050	 8.9980
 6.9140	 9.0090
 6.9230	 8.8490
 6.9320	 8.9460
 6.9420	 9.0190
 6.9510	 9.0070
 6.9600	 8.9080
 6.9700	 8.9020
 6.9790	 8.8590
 6.9880	 8.9270
 6.9980	 8.9490
 7.0070	 9.0450
 7.0170	 8.9970
 7.0260	 9.0570
 7.0360	 9.0540
 7.0450	 9.1200
 7.0550	 8.9760
 7.0650	 9.0300
 7.0740	 9.0660
 7.0840	 9.0680
 7.0940	 8.9720
 7.1030	 9.0180
 7.1130	 8.9990
 7.1230	 9.0660
 7.1330	 8.9370
 7.1420	 8.9500
 7.1520	 8.9340
 7.1620	 8.9390
 7.1720	 8.7840
 7.1820	 8.7800
 7.1920	 8.7750
 7.2020	 8.8410
 7.2120	 8.7370
 7.2220	 8.7260
 7.2320	 8.6670
 7.2420	 8.7140
 7.2520	 8.6570
 7.2620	 8.6970
 7.2730	 8.6310
 7.2830	 8.6750
 7.2930	 8.6960
 7.3030	 8.8830
 7.3140	 8.8380
 7.3240	 8.8160
 7.3340	 8.8120
 7.3450	 8.8010
 7.3550	 8.6510
 7.3660	 8.7210
 7.3760	 8.6600
 7.3870	 8.7370
 7.3970	 8.7880
 7.4080	 8.8360
 7.4180	 8.7730
 7.4290	 8.8290
 7.4400	 8.7150
 7.4500	 8.7580
 7.4610	 8.7980
 7.4720	 8.8400
 7.4830	 8.7210
 7.4930	 8.7770
 7.5040	 8.7830
 7.5150	 8.8670
 7.5260	 8.7860
 7.5370	 8.8170
 7.5480	 8.8740
 7.5590	 8.9600
 7.5700	 8.8060
 7.5810	 8.8540
 7.5920	 8.7700
 7.6030	 8.8870
 7.6140	 8.9510
 7.6260	 9.0730
 7.6370	 8.8880
 7.6480	 8.8550
 7.6590	 8.7330
 7.6710	 8.7030
 7.6820	 8.6660
 7.6930	 8.8120
 7.7050	 8.7640
 7.7160	 8.8710
 7.7280	 8.7910
 7.7390	 8.6910
 7.7510	 8.5000
 7.7630	 8.5540
 7.7740	 8.5360
 7.7860	 8.5520
 7.7980	 8.5350
 7.8090	 8.6760
 7.8210	 8.5840
 7.8330	 8.5960
 7.8450	 8.5630
 7.8570	 8.6290
 7.8690	 8.5430
 7.8810	 8.7050
 7.8930	 8.6850
 7.9050	 8.6540
 7.9170	 8.4800
 7.9290	 8.4960
 7.9410	 8.5020
 7.9530	 8.6070
 7.9650	 8.6070
 7.9780	 8.7040
 7.9900	 8.5680
 8.0020	 8.5990
 8.0150	 8.5770
 8.0270	 8.6460
 8.0390	 8.6380
 8.0520	 8.8150
 8.0640	 8.7160
 8.0770	 8.6820
 8.0900	 8.6490
 8.1020	 8.8540
 8.1150	 8.7830
 8.1280	 8.9570
 8.1400	 8.8990
 8.1530	 8.9400
 8.1660	 8.7340
 8.1790	 8.8200
 8.1920	 8.8480
 8.2050	 9.0740
 8.2180	 9.0890
 8.2310	 9.1840
 8.2440	 9.0000
 8.2570	 9.0010
 8.2700	 8.9390
 8.2830	 9.0120
 8.2970	 9.0050
 8.3100	 9.2510
 8.3230	 9.1220
 8.3370	 9.1280
 8.3500	 9.0560
 8.3640	 9.1190
 8.3770	 9.0980
 8.3910	 9.0640
 8.4040	 8.9190
 8.4180	 9.1090
 8.4320	 8.9830
 8.4450	 9.1370
 8.4590	 9.1600
 8.4730	 9.1520
 8.4870	 8.8970
 8.5010	 9.0560
 8.5150	 9.2170
 8.5290	 9.5090
 8.5430	 9.2930
 8.5570	 9.3570
 8.5710	 9.3680
 8.5850	 9.5170
 8.5990	 9.3810
 8.6140	 9.5000
 8.6280	 9.4400
 8.6420	 9.7120
 8.6570	 9.6770
 8.6710	 9.5890
 8.6860	 9.3780
 8.7000	 9.4970
 8.7150	 9.4010
 8.7300	 9.5830
 8.7440	 9.5550
 8.7590	 9.6760
 8.7740	 9.5740
 8.7890	 9.6110
 8.8040	 9.5150
 8.8190	 9.6660
 8.8340	 9.4840
 8.8490	 9.5460
 8.8640	 9.3590
 8.8790	 9.5270
 8.8940	 9.4390
 8.9100	 9.3930
 8.9250	 9.1400
 8.9400	 9.4170
 8.9560	 9.5120
 8.9710	 9.7080
 8.9870	 9.6700
 9.0020	 9.8070
 9.0180	 9.8450
 9.0340	 9.9020
 9.0500	 9.6560
 9.0650	 9.7380
 9.0810	 9.5540
 9.0970	 9.6170
 9.1130	 9.4950
 9.1290	 9.5920
 9.1450	 9.4410
 9.1610	 9.5310
 9.1780	 9.4620
 9.1940	 9.7130
 9.2100	 9.7640
 9.2270	 9.9040
 9.2430	 9.7410
 9.2600	 9.8530
 9.2760	 9.7290
 9.2930	 9.6790
 9.3090	 9.3620
 9.3260	 9.5410
 9.3430	 9.6100
 9.3600	 9.8420
 9.3770	 9.6540
 9.3940	 9.6840
 9.4110	 9.7830
 9.4280	 9.9800
 9.4450	 9.7260
 9.4620	 9.6120
 9.4800	 9.5000
 9.4970	 9.7260
 9.5140	 9.7330
 9.5320	 9.9540
 9.5500	 9.7900
 9.5670	 9.8080
 9.5850	 9.6640
 9.6030	 9.7590
 9.6200	 9.6200
 9.6380	 9.8630
 9.6560	 9.8160
 9.6740	 9.8930
 9.6920	 9.8010
 9.7100	 9.9590
 9.7290	 9.8750
 9.7470	10.0200
 9.7650	 9.9160
 9.7840	10.1180
 9.8020	 9.9250
 9.8210	10.0660
 9.8390	 9.9460
 9.8580	 9.8600
 9.8770	 9.6950
 9.8960	 9.9010
 9.9150	 9.7930
 9.9340	 9.9180
 9.9530	 9.7270
 9.9720	 9.6240
 9.9910	 9.4560
10.0100	 9.5840
10.0300	 9.5790
10.0490	 9.7590
10.0690	 9.6460
10.0880	 9.7360
10.1080	 9.5100
10.1280	 9.6590
10.1480	 9.6210
10.1670	 9.8040
10.1870	 9.8170
10.2070	 9.9420
10.2280	 9.8840
10.2480	 9.9400
10.2680	 9.6840
10.2890	 9.7930
10.3090	 9.6260
10.3300	 9.7680
10.3500	 9.7150
10.3710	 9.9180
10.3920	 9.8310
10.4120	 9.9970
10.4330	 9.8830
10.4540	 9.9560
10.4760	 9.9590
10.4970	10.1960
10.5180	10.0010
10.5390	10.1420
10.5610	10.0590
10.5820	10.2240
10.6040	10.1010
10.6260	10.1870
10.6480	10.1440
10.6700	10.2590
10.6920	10.0540
10.7140	10.1550
10.7360	 9.9320
10.7580	10.1650
10.7800	10.0900
10.8030	10.1500
10.8250	 9.9900
10.8480	10.1420
10.8710	10.0220
10.8940	10.2100
10.9170	10.0070
10.9400	10.1230
10.9630	 9.8680
10.9860	 9.8990
11.0090	 9.7610
11.0330	 9.8900
11.0560	 9.7940
11.0800	 9.8420
11.1040	 9.5770
11.1270	 9.7560
11.1510	 9.7080
11.1750	 9.8890
11.2000	 9.5880
11.2240	 9.4710
11.2480	 9.4770
11.2730	 9.9590
11.2970	 9.6170
11.3220	 9.7700
11.3470	 9.9030
11.3720	10.0680
11.3970	 9.9410
11.4220	 9.9420
11.4470	 9.7830
11.4720	10.1280
11.4980	 9.8080
11.5230	 9.6480
11.5490	 9.4380
11.5750	 9.7520
11.6000	 9.7560
11.6260	 9.7570
11.6530	 9.6250
11.6790	10.0540
11.7050	 9.9760
11.7320	10.0110
11.7580	 9.8110
11.7850	10.1170
11.8120	 9.8040
11.8390	 9.6750
11.8660	 9.4470
11.8930	 9.7740
11.9200	 9.5910
11.9480	 9.7380
11.9760	 9.6150
12.0030	 9.6530
12.0310	 9.5840
12.0590	 9.8850
12.0870	 9.8310
12.1150	 9.8490
12.1440	 9.5960
12.1720	 9.9580
12.2010	 9.7130
12.2300	 9.7300
12.2590	 9.5150
12.2880	 9.8190
12.3170	 9.5630
12.3460	 9.6650
12.3760	 9.2680
12.4050	 9.4030
12.4350	 9.3160
12.4650	 9.7050
12.4950	 9.6600
12.5250	 9.6640
12.5550	 9.4570
12.5860	 9.5970
12.6170	 9.4020
12.6470	 9.5470
12.6780	 9.0930
12.7090	 9.4290
12.7410	 9.4430
12.7720	 9.6980
12.8030	 9.6140
12.8350	 9.7160
12.8670	 9.3890
12.8990	 9.7550
12.9310	 9.5730
12.9640	 9.7950
12.9960	 9.5530
13.0290	 9.8210
13.0610	 9.4600
13.0940	 9.5700
13.1280	 9.3310
13.1610	 9.4570
13.1940	 9.1000
13.2280	 9.3870
13.2620	 9.0630
13.2960	 9.1100
13.3300	 9.0230
13.3640	 9.4710
13.3990	 9.3540
13.4340	 9.4810
13.4690	 9.1790
13.5040	 9.5690
13.5390	 9.2950
13.5740	 9.3020
13.6100	 9.1410
13.6460	 9.5300
13.6820	 9.2240
13.7180	 9.3120
13.7540	 8.9660
13.7910	 9.3310
13.8280	 9.3230
13.8650	10.0310
13.9020	 9.9390
13.9390	 9.9160
13.9770	 9.3180
14.0150	 9.5250
14.0530	 8.9160
14.0910	 9.0250
14.1290	 8.8170
14.1680	 9.3040
14.2070	 9.1360
14.2460	 9.6010
14.2850	 8.9540
14.3240	 9.1710
14.3640	 9.1780
14.4040	 9.8120
14.4440	 9.4570
14.4840	 9.5770
14.5250	 8.7710
14.5660	 9.0400
14.6070	 9.0110
14.6480	 9.7380
14.6900	 8.8840
14.7310	 9.0560
14.7730	 9.1060
14.8150	 9.9030
14.8580	 9.1760
14.9010	 9.6780
14.9440	 9.0060
14.9870	 9.3220
15.0300	 8.9010
15.0740	 9.3270
15.1180	 8.4620
15.1620	 9.1720
15.2060	 9.0080
15.2510	 9.5270
15.2960	 9.5680
15.3410	10.1880
15.3870	 9.0990
