Name: Acer rubrum
Type: Vegetation
Class: Tree
Genus: Acer
Species: rubrum
Sample No.: ACRU-2-19
Owner: UCSB
Wavelength Range: VSWIR
Origin: USA; Massachusetts; Harvard Forest
Collection Date: 7/8/2013
Description: Samples were collected as part of NSF Macrosystem Biology proposal titled: Collaborative Research: Thermal controls on ecosystem metabolism and function: scaling from leaves to canopies to regions. Samples were collected and overnighted to JPL facilities for processing. The same leaves were processed in the Nicolet and then measured using the ASD.
Measurement: Bidirectional reflectance
First Column: X
Second Column: Y
X Units: Wavelength (micrometers)
Y Units: Reflectance (percentage)
First X Value: 0.35
Last X Value: 2.5
Number of X Values: 2151
Additional Information: vegetation.tree.acer.rubrum.vswir.acru-2-19.ucsb.asd.ancillary.txt

 0.3500	 6.7700
 0.3510	 7.0000
 0.3520	 6.9500
 0.3530	 6.9970
 0.3540	 7.3580
 0.3550	 7.0280
 0.3560	 6.7320
 0.3570	 6.7380
 0.3580	 6.9900
 0.3590	 6.9930
 0.3600	 6.8620
 0.3610	 6.7450
 0.3620	 6.7360
 0.3630	 6.8210
 0.3640	 6.8740
 0.3650	 6.8160
 0.3660	 6.8520
 0.3670	 6.7910
 0.3680	 6.6960
 0.3690	 6.7780
 0.3700	 6.7870
 0.3710	 6.8070
 0.3720	 6.8590
 0.3730	 6.7600
 0.3740	 6.6830
 0.3750	 6.7000
 0.3760	 6.7910
 0.3770	 6.6950
 0.3780	 6.6280
 0.3790	 6.6440
 0.3800	 6.6450
 0.3810	 6.7420
 0.3820	 6.7400
 0.3830	 6.5720
 0.3840	 6.5270
 0.3850	 6.6780
 0.3860	 6.7900
 0.3870	 6.6240
 0.3880	 6.6960
 0.3890	 6.6760
 0.3900	 6.5460
 0.3910	 6.6380
 0.3920	 6.6570
 0.3930	 6.6570
 0.3940	 6.7140
 0.3950	 6.7800
 0.3960	 6.8020
 0.3970	 6.7610
 0.3980	 6.6790
 0.3990	 6.7120
 0.4000	 6.7510
 0.4010	 6.7440
 0.4020	 6.7360
 0.4030	 6.7500
 0.4040	 6.7650
 0.4050	 6.7580
 0.4060	 6.7250
 0.4070	 6.7090
 0.4080	 6.7150
 0.4090	 6.7230
 0.4100	 6.7260
 0.4110	 6.7240
 0.4120	 6.7220
 0.4130	 6.7260
 0.4140	 6.7380
 0.4150	 6.7500
 0.4160	 6.7530
 0.4170	 6.7580
 0.4180	 6.7530
 0.4190	 6.7400
 0.4200	 6.7370
 0.4210	 6.7390
 0.4220	 6.7400
 0.4230	 6.7430
 0.4240	 6.7840
 0.4250	 6.7770
 0.4260	 6.7480
 0.4270	 6.7620
 0.4280	 6.7830
 0.4290	 6.7820
 0.4300	 6.7610
 0.4310	 6.7670
 0.4320	 6.7640
 0.4330	 6.7480
 0.4340	 6.7250
 0.4350	 6.7300
 0.4360	 6.7280
 0.4370	 6.7260
 0.4380	 6.7520
 0.4390	 6.7640
 0.4400	 6.7620
 0.4410	 6.7530
 0.4420	 6.7380
 0.4430	 6.7490
 0.4440	 6.7740
 0.4450	 6.7860
 0.4460	 6.7710
 0.4470	 6.7530
 0.4480	 6.7470
 0.4490	 6.7590
 0.4500	 6.7770
 0.4510	 6.7870
 0.4520	 6.7830
 0.4530	 6.7820
 0.4540	 6.7870
 0.4550	 6.7900
 0.4560	 6.7840
 0.4570	 6.7860
 0.4580	 6.7920
 0.4590	 6.7950
 0.4600	 6.7910
 0.4610	 6.7910
 0.4620	 6.7920
 0.4630	 6.7870
 0.4640	 6.7970
 0.4650	 6.7940
 0.4660	 6.7770
 0.4670	 6.7800
 0.4680	 6.7820
 0.4690	 6.7770
 0.4700	 6.7690
 0.4710	 6.7710
 0.4720	 6.7590
 0.4730	 6.7460
 0.4740	 6.7590
 0.4750	 6.7560
 0.4760	 6.7560
 0.4770	 6.7650
 0.4780	 6.7580
 0.4790	 6.7520
 0.4800	 6.7490
 0.4810	 6.7460
 0.4820	 6.7540
 0.4830	 6.7600
 0.4840	 6.7600
 0.4850	 6.7510
 0.4860	 6.7540
 0.4870	 6.7580
 0.4880	 6.7600
 0.4890	 6.7800
 0.4900	 6.7890
 0.4910	 6.7880
 0.4920	 6.7950
 0.4930	 6.8040
 0.4940	 6.8110
 0.4950	 6.8190
 0.4960	 6.8480
 0.4970	 6.8730
 0.4980	 6.8900
 0.4990	 6.9050
 0.5000	 6.9250
 0.5010	 6.9480
 0.5020	 6.9780
 0.5030	 7.0200
 0.5040	 7.0580
 0.5050	 7.0950
 0.5060	 7.1390
 0.5070	 7.1940
 0.5080	 7.2510
 0.5090	 7.3130
 0.5100	 7.3890
 0.5110	 7.4930
 0.5120	 7.6010
 0.5130	 7.7120
 0.5140	 7.8550
 0.5150	 7.9880
 0.5160	 8.1260
 0.5170	 8.2870
 0.5180	 8.4560
 0.5190	 8.6480
 0.5200	 8.8560
 0.5210	 9.0580
 0.5220	 9.2600
 0.5230	 9.4680
 0.5240	 9.6810
 0.5250	 9.8880
 0.5260	10.0800
 0.5270	10.2600
 0.5280	10.4360
 0.5290	10.6030
 0.5300	10.7530
 0.5310	10.8860
 0.5320	11.0090
 0.5330	11.1160
 0.5340	11.2090
 0.5350	11.2940
 0.5360	11.3710
 0.5370	11.4270
 0.5380	11.4680
 0.5390	11.5100
 0.5400	11.5540
 0.5410	11.5830
 0.5420	11.5960
 0.5430	11.6260
 0.5440	11.6560
 0.5450	11.6830
 0.5460	11.7100
 0.5470	11.7420
 0.5480	11.7760
 0.5490	11.8020
 0.5500	11.8160
 0.5510	11.8220
 0.5520	11.8180
 0.5530	11.8050
 0.5540	11.7810
 0.5550	11.7400
 0.5560	11.6820
 0.5570	11.6080
 0.5580	11.5290
 0.5590	11.4450
 0.5600	11.3550
 0.5610	11.2400
 0.5620	11.1200
 0.5630	10.9970
 0.5640	10.8660
 0.5650	10.7240
 0.5660	10.5830
 0.5670	10.4420
 0.5680	10.2840
 0.5690	10.1330
 0.5700	 9.9890
 0.5710	 9.8440
 0.5720	 9.7040
 0.5730	 9.5730
 0.5740	 9.4570
 0.5750	 9.3560
 0.5760	 9.2570
 0.5770	 9.1660
 0.5780	 9.0840
 0.5790	 9.0060
 0.5800	 8.9340
 0.5810	 8.8640
 0.5820	 8.7920
 0.5830	 8.7250
 0.5840	 8.6600
 0.5850	 8.5970
 0.5860	 8.5440
 0.5870	 8.4940
 0.5880	 8.4480
 0.5890	 8.4070
 0.5900	 8.3750
 0.5910	 8.3460
 0.5920	 8.3200
 0.5930	 8.2960
 0.5940	 8.2740
 0.5950	 8.2520
 0.5960	 8.2320
 0.5970	 8.2170
 0.5980	 8.1950
 0.5990	 8.1710
 0.6000	 8.1500
 0.6010	 8.1300
 0.6020	 8.1040
 0.6030	 8.0720
 0.6040	 8.0370
 0.6050	 8.0130
 0.6060	 7.9860
 0.6070	 7.9460
 0.6080	 7.9070
 0.6090	 7.8630
 0.6100	 7.8110
 0.6110	 7.7510
 0.6120	 7.7110
 0.6130	 7.6800
 0.6140	 7.6480
 0.6150	 7.6130
 0.6160	 7.5760
 0.6170	 7.5430
 0.6180	 7.5170
 0.6190	 7.4900
 0.6200	 7.4620
 0.6210	 7.4340
 0.6220	 7.4120
 0.6230	 7.3970
 0.6240	 7.3850
 0.6250	 7.3700
 0.6260	 7.3590
 0.6270	 7.3520
 0.6280	 7.3480
 0.6290	 7.3420
 0.6300	 7.3300
 0.6310	 7.3190
 0.6320	 7.3120
 0.6330	 7.3030
 0.6340	 7.2850
 0.6350	 7.2640
 0.6360	 7.2440
 0.6370	 7.2150
 0.6380	 7.1830
 0.6390	 7.1510
 0.6400	 7.1170
 0.6410	 7.0780
 0.6420	 7.0420
 0.6430	 7.0110
 0.6440	 6.9800
 0.6450	 6.9490
 0.6460	 6.9210
 0.6470	 6.8940
 0.6480	 6.8710
 0.6490	 6.8510
 0.6500	 6.8380
 0.6510	 6.8340
 0.6520	 6.8220
 0.6530	 6.8090
 0.6540	 6.8010
 0.6550	 6.7950
 0.6560	 6.7910
 0.6570	 6.7850
 0.6580	 6.7710
 0.6590	 6.7580
 0.6600	 6.7460
 0.6610	 6.7380
 0.6620	 6.7390
 0.6630	 6.7280
 0.6640	 6.7170
 0.6650	 6.7190
 0.6660	 6.7180
 0.6670	 6.7190
 0.6680	 6.7240
 0.6690	 6.7360
 0.6700	 6.7440
 0.6710	 6.7550
 0.6720	 6.7730
 0.6730	 6.7930
 0.6740	 6.8150
 0.6750	 6.8370
 0.6760	 6.8610
 0.6770	 6.8960
 0.6780	 6.9280
 0.6790	 6.9590
 0.6800	 6.9980
 0.6810	 7.0360
 0.6820	 7.0760
 0.6830	 7.1200
 0.6840	 7.1610
 0.6850	 7.2070
 0.6860	 7.2600
 0.6870	 7.3160
 0.6880	 7.3820
 0.6890	 7.4590
 0.6900	 7.5550
 0.6910	 7.6820
 0.6920	 7.8540
 0.6930	 8.0680
 0.6940	 8.3300
 0.6950	 8.6680
 0.6960	 9.0760
 0.6970	 9.5590
 0.6980	10.1200
 0.6990	10.7510
 0.7000	11.4520
 0.7010	12.2160
 0.7020	13.0280
 0.7030	13.8770
 0.7040	14.7580
 0.7050	15.6620
 0.7060	16.5710
 0.7070	17.4950
 0.7080	18.4310
 0.7090	19.3750
 0.7100	20.3100
 0.7110	21.2530
 0.7120	22.2040
 0.7130	23.1460
 0.7140	24.0850
 0.7150	25.0280
 0.7160	25.9720
 0.7170	26.9010
 0.7180	27.8130
 0.7190	28.7170
 0.7200	29.6270
 0.7210	30.5170
 0.7220	31.3850
 0.7230	32.2360
 0.7240	33.0760
 0.7250	33.8950
 0.7260	34.6910
 0.7270	35.4630
 0.7280	36.2020
 0.7290	36.9150
 0.7300	37.6030
 0.7310	38.2600
 0.7320	38.8850
 0.7330	39.4820
 0.7340	40.0560
 0.7350	40.6050
 0.7360	41.1160
 0.7370	41.5900
 0.7380	42.0350
 0.7390	42.4680
 0.7400	42.8650
 0.7410	43.2360
 0.7420	43.5930
 0.7430	43.9110
 0.7440	44.2080
 0.7450	44.4860
 0.7460	44.7290
 0.7470	44.9350
 0.7480	45.1320
 0.7490	45.3330
 0.7500	45.5080
 0.7510	45.6550
 0.7520	45.7810
 0.7530	45.8960
 0.7540	46.0100
 0.7550	46.1050
 0.7560	46.1860
 0.7570	46.2700
 0.7580	46.3360
 0.7590	46.3890
 0.7600	46.4360
 0.7610	46.4850
 0.7620	46.5430
 0.7630	46.5880
 0.7640	46.6010
 0.7650	46.6190
 0.7660	46.6300
 0.7670	46.6420
 0.7680	46.6710
 0.7690	46.6840
 0.7700	46.6880
 0.7710	46.6890
 0.7720	46.6820
 0.7730	46.6910
 0.7740	46.7060
 0.7750	46.7120
 0.7760	46.7180
 0.7770	46.7290
 0.7780	46.7320
 0.7790	46.7170
 0.7800	46.7100
 0.7810	46.7180
 0.7820	46.7320
 0.7830	46.7300
 0.7840	46.7160
 0.7850	46.7150
 0.7860	46.7350
 0.7870	46.7340
 0.7880	46.7270
 0.7890	46.7250
 0.7900	46.7330
 0.7910	46.7470
 0.7920	46.7370
 0.7930	46.7170
 0.7940	46.7210
 0.7950	46.7260
 0.7960	46.7330
 0.7970	46.7330
 0.7980	46.7110
 0.7990	46.7170
 0.8000	46.7230
 0.8010	46.7010
 0.8020	46.6860
 0.8030	46.6720
 0.8040	46.6690
 0.8050	46.6830
 0.8060	46.6800
 0.8070	46.6600
 0.8080	46.6400
 0.8090	46.6500
 0.8100	46.6380
 0.8110	46.6260
 0.8120	46.6240
 0.8130	46.6020
 0.8140	46.5990
 0.8150	46.5960
 0.8160	46.5710
 0.8170	46.5540
 0.8180	46.5520
 0.8190	46.5440
 0.8200	46.5070
 0.8210	46.5070
 0.8220	46.5130
 0.8230	46.5070
 0.8240	46.4900
 0.8250	46.4800
 0.8260	46.4740
 0.8270	46.4660
 0.8280	46.4510
 0.8290	46.4310
 0.8300	46.4130
 0.8310	46.4040
 0.8320	46.3990
 0.8330	46.3850
 0.8340	46.3720
 0.8350	46.3780
 0.8360	46.3780
 0.8370	46.3650
 0.8380	46.3500
 0.8390	46.3520
 0.8400	46.3400
 0.8410	46.3290
 0.8420	46.3250
 0.8430	46.3170
 0.8440	46.3160
 0.8450	46.3010
 0.8460	46.2730
 0.8470	46.2950
 0.8480	46.3020
 0.8490	46.2910
 0.8500	46.2820
 0.8510	46.2670
 0.8520	46.2710
 0.8530	46.2840
 0.8540	46.2800
 0.8550	46.2660
 0.8560	46.2590
 0.8570	46.2630
 0.8580	46.2660
 0.8590	46.2600
 0.8600	46.2520
 0.8610	46.2450
 0.8620	46.2340
 0.8630	46.2490
 0.8640	46.2600
 0.8650	46.2430
 0.8660	46.2590
 0.8670	46.2540
 0.8680	46.2390
 0.8690	46.2390
 0.8700	46.2310
 0.8710	46.2180
 0.8720	46.2170
 0.8730	46.2400
 0.8740	46.2540
 0.8750	46.2520
 0.8760	46.2370
 0.8770	46.2230
 0.8780	46.2340
 0.8790	46.2420
 0.8800	46.2370
 0.8810	46.2390
 0.8820	46.2420
 0.8830	46.2370
 0.8840	46.2260
 0.8850	46.2400
 0.8860	46.2460
 0.8870	46.2450
 0.8880	46.2450
 0.8890	46.2390
 0.8900	46.2300
 0.8910	46.2200
 0.8920	46.2130
 0.8930	46.2320
 0.8940	46.2330
 0.8950	46.2200
 0.8960	46.2240
 0.8970	46.2460
 0.8980	46.2530
 0.8990	46.2390
 0.9000	46.2220
 0.9010	46.2020
 0.9020	46.2000
 0.9030	46.2210
 0.9040	46.2510
 0.9050	46.2670
 0.9060	46.2510
 0.9070	46.2180
 0.9080	46.2270
 0.9090	46.2450
 0.9100	46.2550
 0.9110	46.2490
 0.9120	46.2280
 0.9130	46.2140
 0.9140	46.2150
 0.9150	46.2240
 0.9160	46.2160
 0.9170	46.2160
 0.9180	46.2190
 0.9190	46.2120
 0.9200	46.2210
 0.9210	46.2230
 0.9220	46.2140
 0.9230	46.2020
 0.9240	46.1950
 0.9250	46.1940
 0.9260	46.1930
 0.9270	46.1840
 0.9280	46.1700
 0.9290	46.1630
 0.9300	46.1590
 0.9310	46.1390
 0.9320	46.1270
 0.9330	46.1050
 0.9340	46.0840
 0.9350	46.1000
 0.9360	46.0680
 0.9370	46.0430
 0.9380	46.0500
 0.9390	46.0390
 0.9400	46.0320
 0.9410	46.0280
 0.9420	46.0070
 0.9430	45.9290
 0.9440	45.9090
 0.9450	45.9180
 0.9460	45.9070
 0.9470	45.8660
 0.9480	45.8340
 0.9490	45.8160
 0.9500	45.8040
 0.9510	45.7700
 0.9520	45.7290
 0.9530	45.6870
 0.9540	45.6470
 0.9550	45.6180
 0.9560	45.5850
 0.9570	45.5530
 0.9580	45.5280
 0.9590	45.4840
 0.9600	45.4480
 0.9610	45.4320
 0.9620	45.4310
 0.9630	45.3920
 0.9640	45.3630
 0.9650	45.3420
 0.9660	45.3140
 0.9670	45.3050
 0.9680	45.2940
 0.9690	45.2840
 0.9700	45.2780
 0.9710	45.2510
 0.9720	45.2170
 0.9730	45.1960
 0.9740	45.1980
 0.9750	45.2060
 0.9760	45.1880
 0.9770	45.1710
 0.9780	45.1940
 0.9790	45.1900
 0.9800	45.1570
 0.9810	45.1320
 0.9820	45.1540
 0.9830	45.1410
 0.9840	45.1230
 0.9850	45.1340
 0.9860	45.1820
 0.9870	45.1690
 0.9880	45.1650
 0.9890	45.1630
 0.9900	45.1290
 0.9910	45.1340
 0.9920	45.1740
 0.9930	45.2140
 0.9940	45.2540
 0.9950	45.2940
 0.9960	45.3330
 0.9970	45.3730
 0.9980	45.4130
 0.9990	45.4530
 1.0000	45.4920
 1.0010	45.5320
 1.0020	45.5720
 1.0030	45.6120
 1.0040	45.6510
 1.0050	45.6910
 1.0060	45.7310
 1.0070	45.7710
 1.0080	45.8110
 1.0090	45.8500
 1.0100	45.8500
 1.0110	45.8540
 1.0120	45.8570
 1.0130	45.8540
 1.0140	45.8580
 1.0150	45.8640
 1.0160	45.8750
 1.0170	45.8810
 1.0180	45.8830
 1.0190	45.8860
 1.0200	45.8930
 1.0210	45.8930
 1.0220	45.8930
 1.0230	45.8940
 1.0240	45.8860
 1.0250	45.8880
 1.0260	45.9000
 1.0270	45.9030
 1.0280	45.9040
 1.0290	45.9060
 1.0300	45.9030
 1.0310	45.9050
 1.0320	45.9100
 1.0330	45.9200
 1.0340	45.9290
 1.0350	45.9390
 1.0360	45.9450
 1.0370	45.9430
 1.0380	45.9470
 1.0390	45.9520
 1.0400	45.9550
 1.0410	45.9590
 1.0420	45.9640
 1.0430	45.9690
 1.0440	45.9710
 1.0450	45.9730
 1.0460	45.9750
 1.0470	45.9710
 1.0480	45.9710
 1.0490	45.9770
 1.0500	45.9780
 1.0510	45.9770
 1.0520	45.9730
 1.0530	45.9710
 1.0540	45.9680
 1.0550	45.9670
 1.0560	45.9690
 1.0570	45.9690
 1.0580	45.9690
 1.0590	45.9690
 1.0600	45.9690
 1.0610	45.9700
 1.0620	45.9700
 1.0630	45.9700
 1.0640	45.9730
 1.0650	45.9730
 1.0660	45.9700
 1.0670	45.9690
 1.0680	45.9670
 1.0690	45.9640
 1.0700	45.9610
 1.0710	45.9600
 1.0720	45.9550
 1.0730	45.9460
 1.0740	45.9410
 1.0750	45.9330
 1.0760	45.9310
 1.0770	45.9330
 1.0780	45.9320
 1.0790	45.9350
 1.0800	45.9310
 1.0810	45.9230
 1.0820	45.9150
 1.0830	45.9030
 1.0840	45.8920
 1.0850	45.8810
 1.0860	45.8740
 1.0870	45.8640
 1.0880	45.8550
 1.0890	45.8460
 1.0900	45.8400
 1.0910	45.8310
 1.0920	45.8250
 1.0930	45.8130
 1.0940	45.7950
 1.0950	45.7830
 1.0960	45.7690
 1.0970	45.7580
 1.0980	45.7530
 1.0990	45.7440
 1.1000	45.7310
 1.1010	45.7230
 1.1020	45.7180
 1.1030	45.7120
 1.1040	45.7010
 1.1050	45.6880
 1.1060	45.6780
 1.1070	45.6660
 1.1080	45.6510
 1.1090	45.6390
 1.1100	45.6250
 1.1110	45.6080
 1.1120	45.5910
 1.1130	45.5790
 1.1140	45.5610
 1.1150	45.5320
 1.1160	45.5090
 1.1170	45.4870
 1.1180	45.4670
 1.1190	45.4510
 1.1200	45.4350
 1.1210	45.4190
 1.1220	45.3990
 1.1230	45.3740
 1.1240	45.3500
 1.1250	45.3270
 1.1260	45.3070
 1.1270	45.2770
 1.1280	45.2450
 1.1290	45.2090
 1.1300	45.1610
 1.1310	45.1200
 1.1320	45.0850
 1.1330	45.0420
 1.1340	44.9990
 1.1350	44.9470
 1.1360	44.8870
 1.1370	44.8250
 1.1380	44.7550
 1.1390	44.6850
 1.1400	44.6170
 1.1410	44.5470
 1.1420	44.4720
 1.1430	44.3970
 1.1440	44.3220
 1.1450	44.2420
 1.1460	44.1670
 1.1470	44.0950
 1.1480	44.0220
 1.1490	43.9470
 1.1500	43.8820
 1.1510	43.8210
 1.1520	43.7650
 1.1530	43.7170
 1.1540	43.6700
 1.1550	43.6250
 1.1560	43.5850
 1.1570	43.5480
 1.1580	43.5130
 1.1590	43.4810
 1.1600	43.4520
 1.1610	43.4260
 1.1620	43.4060
 1.1630	43.3870
 1.1640	43.3720
 1.1650	43.3590
 1.1660	43.3510
 1.1670	43.3390
 1.1680	43.3270
 1.1690	43.3170
 1.1700	43.3070
 1.1710	43.2980
 1.1720	43.2910
 1.1730	43.2830
 1.1740	43.2760
 1.1750	43.2690
 1.1760	43.2600
 1.1770	43.2500
 1.1780	43.2410
 1.1790	43.2310
 1.1800	43.2240
 1.1810	43.2160
 1.1820	43.2050
 1.1830	43.1970
 1.1840	43.1890
 1.1850	43.1780
 1.1860	43.1740
 1.1870	43.1700
 1.1880	43.1620
 1.1890	43.1520
 1.1900	43.1440
 1.1910	43.1300
 1.1920	43.1210
 1.1930	43.1160
 1.1940	43.1110
 1.1950	43.1080
 1.1960	43.1030
 1.1970	43.0970
 1.1980	43.0910
 1.1990	43.0860
 1.2000	43.0800
 1.2010	43.0780
 1.2020	43.0790
 1.2030	43.0760
 1.2040	43.0760
 1.2050	43.0780
 1.2060	43.0770
 1.2070	43.0800
 1.2080	43.0810
 1.2090	43.0830
 1.2100	43.0890
 1.2110	43.0920
 1.2120	43.0930
 1.2130	43.0990
 1.2140	43.1080
 1.2150	43.1130
 1.2160	43.1190
 1.2170	43.1230
 1.2180	43.1280
 1.2190	43.1330
 1.2200	43.1420
 1.2210	43.1560
 1.2220	43.1660
 1.2230	43.1760
 1.2240	43.1910
 1.2250	43.2000
 1.2260	43.2100
 1.2270	43.2200
 1.2280	43.2250
 1.2290	43.2320
 1.2300	43.2410
 1.2310	43.2460
 1.2320	43.2500
 1.2330	43.2530
 1.2340	43.2550
 1.2350	43.2530
 1.2360	43.2550
 1.2370	43.2570
 1.2380	43.2600
 1.2390	43.2660
 1.2400	43.2680
 1.2410	43.2690
 1.2420	43.2730
 1.2430	43.2770
 1.2440	43.2830
 1.2450	43.2920
 1.2460	43.2990
 1.2470	43.3010
 1.2480	43.3030
 1.2490	43.3060
 1.2500	43.3070
 1.2510	43.3070
 1.2520	43.3080
 1.2530	43.3030
 1.2540	43.2980
 1.2550	43.2980
 1.2560	43.2970
 1.2570	43.2970
 1.2580	43.2970
 1.2590	43.2960
 1.2600	43.2950
 1.2610	43.2910
 1.2620	43.2860
 1.2630	43.2840
 1.2640	43.2790
 1.2650	43.2720
 1.2660	43.2660
 1.2670	43.2570
 1.2680	43.2430
 1.2690	43.2310
 1.2700	43.2220
 1.2710	43.2130
 1.2720	43.2040
 1.2730	43.1960
 1.2740	43.1940
 1.2750	43.1870
 1.2760	43.1750
 1.2770	43.1670
 1.2780	43.1550
 1.2790	43.1450
 1.2800	43.1410
 1.2810	43.1310
 1.2820	43.1150
 1.2830	43.1010
 1.2840	43.0860
 1.2850	43.0720
 1.2860	43.0590
 1.2870	43.0430
 1.2880	43.0250
 1.2890	43.0060
 1.2900	42.9880
 1.2910	42.9720
 1.2920	42.9580
 1.2930	42.9410
 1.2940	42.9190
 1.2950	42.8940
 1.2960	42.8640
 1.2970	42.8330
 1.2980	42.8000
 1.2990	42.7650
 1.3000	42.7300
 1.3010	42.6960
 1.3020	42.6620
 1.3030	42.6290
 1.3040	42.5950
 1.3050	42.5570
 1.3060	42.5170
 1.3070	42.4760
 1.3080	42.4310
 1.3090	42.3860
 1.3100	42.3390
 1.3110	42.2860
 1.3120	42.2320
 1.3130	42.1800
 1.3140	42.1260
 1.3150	42.0740
 1.3160	42.0150
 1.3170	41.9560
 1.3180	41.8870
 1.3190	41.8180
 1.3200	41.7490
 1.3210	41.6800
 1.3220	41.6150
 1.3230	41.5460
 1.3240	41.4760
 1.3250	41.4040
 1.3260	41.3290
 1.3270	41.2520
 1.3280	41.1710
 1.3290	41.0880
 1.3300	41.0040
 1.3310	40.9190
 1.3320	40.8360
 1.3330	40.7540
 1.3340	40.6700
 1.3350	40.5820
 1.3360	40.4960
 1.3370	40.4040
 1.3380	40.3170
 1.3390	40.2370
 1.3400	40.1510
 1.3410	40.0690
 1.3420	39.9880
 1.3430	39.9010
 1.3440	39.8130
 1.3450	39.7260
 1.3460	39.6340
 1.3470	39.5470
 1.3480	39.4630
 1.3490	39.3800
 1.3500	39.3000
 1.3510	39.2190
 1.3520	39.1360
 1.3530	39.0520
 1.3540	38.9690
 1.3550	38.8830
 1.3560	38.7980
 1.3570	38.7150
 1.3580	38.6270
 1.3590	38.5430
 1.3600	38.4540
 1.3610	38.3580
 1.3620	38.2620
 1.3630	38.1600
 1.3640	38.0550
 1.3650	37.9470
 1.3660	37.8330
 1.3670	37.7140
 1.3680	37.5890
 1.3690	37.4530
 1.3700	37.3080
 1.3710	37.1550
 1.3720	36.9910
 1.3730	36.8190
 1.3740	36.6330
 1.3750	36.4300
 1.3760	36.2120
 1.3770	35.9740
 1.3780	35.7160
 1.3790	35.4430
 1.3800	35.1510
 1.3810	34.8390
 1.3820	34.5110
 1.3830	34.1690
 1.3840	33.8050
 1.3850	33.4230
 1.3860	33.0260
 1.3870	32.6070
 1.3880	32.1800
 1.3890	31.7410
 1.3900	31.2860
 1.3910	30.8230
 1.3920	30.3510
 1.3930	29.8690
 1.3940	29.3860
 1.3950	28.8990
 1.3960	28.4120
 1.3970	27.9310
 1.3980	27.4550
 1.3990	26.9930
 1.4000	26.5370
 1.4010	26.0880
 1.4020	25.6540
 1.4030	25.2280
 1.4040	24.8210
 1.4050	24.4340
 1.4060	24.0620
 1.4070	23.7130
 1.4080	23.3800
 1.4090	23.0630
 1.4100	22.7670
 1.4110	22.4870
 1.4120	22.2280
 1.4130	21.9880
 1.4140	21.7650
 1.4150	21.5610
 1.4160	21.3720
 1.4170	21.1980
 1.4180	21.0380
 1.4190	20.8920
 1.4200	20.7580
 1.4210	20.6360
 1.4220	20.5260
 1.4230	20.4240
 1.4240	20.3320
 1.4250	20.2490
 1.4260	20.1750
 1.4270	20.1100
 1.4280	20.0560
 1.4290	20.0060
 1.4300	19.9650
 1.4310	19.9290
 1.4320	19.8990
 1.4330	19.8720
 1.4340	19.8510
 1.4350	19.8340
 1.4360	19.8190
 1.4370	19.8090
 1.4380	19.8010
 1.4390	19.7970
 1.4400	19.7960
 1.4410	19.8000
 1.4420	19.8060
 1.4430	19.8160
 1.4440	19.8300
 1.4450	19.8430
 1.4460	19.8560
 1.4470	19.8730
 1.4480	19.8890
 1.4490	19.9080
 1.4500	19.9300
 1.4510	19.9510
 1.4520	19.9730
 1.4530	19.9980
 1.4540	20.0240
 1.4550	20.0520
 1.4560	20.0850
 1.4570	20.1190
 1.4580	20.1580
 1.4590	20.2020
 1.4600	20.2470
 1.4610	20.2950
 1.4620	20.3480
 1.4630	20.4050
 1.4640	20.4670
 1.4650	20.5370
 1.4660	20.6120
 1.4670	20.6910
 1.4680	20.7760
 1.4690	20.8660
 1.4700	20.9610
 1.4710	21.0600
 1.4720	21.1600
 1.4730	21.2630
 1.4740	21.3690
 1.4750	21.4790
 1.4760	21.5940
 1.4770	21.7110
 1.4780	21.8270
 1.4790	21.9440
 1.4800	22.0610
 1.4810	22.1780
 1.4820	22.2980
 1.4830	22.4200
 1.4840	22.5420
 1.4850	22.6670
 1.4860	22.7920
 1.4870	22.9180
 1.4880	23.0440
 1.4890	23.1710
 1.4900	23.2970
 1.4910	23.4230
 1.4920	23.5470
 1.4930	23.6720
 1.4940	23.7960
 1.4950	23.9190
 1.4960	24.0420
 1.4970	24.1640
 1.4980	24.2850
 1.4990	24.4030
 1.5000	24.5240
 1.5010	24.6440
 1.5020	24.7640
 1.5030	24.8880
 1.5040	25.0100
 1.5050	25.1320
 1.5060	25.2510
 1.5070	25.3700
 1.5080	25.4860
 1.5090	25.6000
 1.5100	25.7140
 1.5110	25.8260
 1.5120	25.9380
 1.5130	26.0510
 1.5140	26.1640
 1.5150	26.2740
 1.5160	26.3830
 1.5170	26.4890
 1.5180	26.5910
 1.5190	26.6940
 1.5200	26.8000
 1.5210	26.9020
 1.5220	27.0060
 1.5230	27.1120
 1.5240	27.2140
 1.5250	27.3150
 1.5260	27.4140
 1.5270	27.5100
 1.5280	27.6060
 1.5290	27.7000
 1.5300	27.7920
 1.5310	27.8850
 1.5320	27.9750
 1.5330	28.0650
 1.5340	28.1550
 1.5350	28.2420
 1.5360	28.3300
 1.5370	28.4150
 1.5380	28.5010
 1.5390	28.5880
 1.5400	28.6720
 1.5410	28.7540
 1.5420	28.8330
 1.5430	28.9120
 1.5440	28.9920
 1.5450	29.0720
 1.5460	29.1520
 1.5470	29.2300
 1.5480	29.3050
 1.5490	29.3790
 1.5500	29.4520
 1.5510	29.5270
 1.5520	29.6020
 1.5530	29.6740
 1.5540	29.7440
 1.5550	29.8110
 1.5560	29.8740
 1.5570	29.9380
 1.5580	30.0010
 1.5590	30.0650
 1.5600	30.1300
 1.5610	30.1930
 1.5620	30.2550
 1.5630	30.3150
 1.5640	30.3700
 1.5650	30.4260
 1.5660	30.4810
 1.5670	30.5380
 1.5680	30.5960
 1.5690	30.6510
 1.5700	30.7060
 1.5710	30.7620
 1.5720	30.8160
 1.5730	30.8710
 1.5740	30.9270
 1.5750	30.9830
 1.5760	31.0360
 1.5770	31.0900
 1.5780	31.1410
 1.5790	31.1870
 1.5800	31.2320
 1.5810	31.2780
 1.5820	31.3210
 1.5830	31.3670
 1.5840	31.4120
 1.5850	31.4550
 1.5860	31.4990
 1.5870	31.5440
 1.5880	31.5910
 1.5890	31.6400
 1.5900	31.6870
 1.5910	31.7320
 1.5920	31.7770
 1.5930	31.8160
 1.5940	31.8560
 1.5950	31.8980
 1.5960	31.9380
 1.5970	31.9780
 1.5980	32.0200
 1.5990	32.0600
 1.6000	32.0940
 1.6010	32.1270
 1.6020	32.1610
 1.6030	32.1950
 1.6040	32.2320
 1.6050	32.2710
 1.6060	32.3080
 1.6070	32.3400
 1.6080	32.3760
 1.6090	32.4090
 1.6100	32.4390
 1.6110	32.4720
 1.6120	32.5010
 1.6130	32.5300
 1.6140	32.5600
 1.6150	32.5870
 1.6160	32.6140
 1.6170	32.6420
 1.6180	32.6680
 1.6190	32.6950
 1.6200	32.7230
 1.6210	32.7500
 1.6220	32.7770
 1.6230	32.8040
 1.6240	32.8280
 1.6250	32.8480
 1.6260	32.8690
 1.6270	32.8900
 1.6280	32.9130
 1.6290	32.9320
 1.6300	32.9510
 1.6310	32.9670
 1.6320	32.9790
 1.6330	32.9910
 1.6340	33.0040
 1.6350	33.0120
 1.6360	33.0160
 1.6370	33.0230
 1.6380	33.0300
 1.6390	33.0330
 1.6400	33.0380
 1.6410	33.0360
 1.6420	33.0260
 1.6430	33.0180
 1.6440	33.0080
 1.6450	33.0010
 1.6460	32.9930
 1.6470	32.9880
 1.6480	32.9820
 1.6490	32.9670
 1.6500	32.9540
 1.6510	32.9430
 1.6520	32.9300
 1.6530	32.9220
 1.6540	32.9190
 1.6550	32.9110
 1.6560	32.9060
 1.6570	32.9050
 1.6580	32.9040
 1.6590	32.9050
 1.6600	32.9110
 1.6610	32.9190
 1.6620	32.9270
 1.6630	32.9380
 1.6640	32.9490
 1.6650	32.9590
 1.6660	32.9720
 1.6670	32.9810
 1.6680	32.9870
 1.6690	32.9910
 1.6700	32.9910
 1.6710	32.9900
 1.6720	32.9890
 1.6730	32.9870
 1.6740	32.9830
 1.6750	32.9780
 1.6760	32.9760
 1.6770	32.9720
 1.6780	32.9620
 1.6790	32.9520
 1.6800	32.9390
 1.6810	32.9200
 1.6820	32.9030
 1.6830	32.8780
 1.6840	32.8500
 1.6850	32.8240
 1.6860	32.7890
 1.6870	32.7580
 1.6880	32.7280
 1.6890	32.6950
 1.6900	32.6640
 1.6910	32.6330
 1.6920	32.6040
 1.6930	32.5770
 1.6940	32.5490
 1.6950	32.5230
 1.6960	32.4950
 1.6970	32.4630
 1.6980	32.4330
 1.6990	32.4030
 1.7000	32.3710
 1.7010	32.3400
 1.7020	32.3080
 1.7030	32.2750
 1.7040	32.2410
 1.7050	32.2060
 1.7060	32.1690
 1.7070	32.1290
 1.7080	32.0910
 1.7090	32.0520
 1.7100	32.0140
 1.7110	31.9790
 1.7120	31.9420
 1.7130	31.9010
 1.7140	31.8570
 1.7150	31.8150
 1.7160	31.7740
 1.7170	31.7340
 1.7180	31.6970
 1.7190	31.6580
 1.7200	31.6150
 1.7210	31.5730
 1.7220	31.5260
 1.7230	31.4730
 1.7240	31.4280
 1.7250	31.3840
 1.7260	31.3460
 1.7270	31.3200
 1.7280	31.2880
 1.7290	31.2550
 1.7300	31.2270
 1.7310	31.1990
 1.7320	31.1770
 1.7330	31.1510
 1.7340	31.1210
 1.7350	31.0910
 1.7360	31.0610
 1.7370	31.0310
 1.7380	31.0000
 1.7390	30.9670
 1.7400	30.9320
 1.7410	30.8950
 1.7420	30.8520
 1.7430	30.8120
 1.7440	30.7750
 1.7450	30.7320
 1.7460	30.6880
 1.7470	30.6430
 1.7480	30.5940
 1.7490	30.5430
 1.7500	30.4910
 1.7510	30.4400
 1.7520	30.3870
 1.7530	30.3350
 1.7540	30.2860
 1.7550	30.2300
 1.7560	30.1780
 1.7570	30.1240
 1.7580	30.0670
 1.7590	30.0140
 1.7600	29.9620
 1.7610	29.9130
 1.7620	29.8650
 1.7630	29.8190
 1.7640	29.7730
 1.7650	29.7290
 1.7660	29.6860
 1.7670	29.6450
 1.7680	29.6040
 1.7690	29.5630
 1.7700	29.5230
 1.7710	29.4840
 1.7720	29.4450
 1.7730	29.4050
 1.7740	29.3720
 1.7750	29.3430
 1.7760	29.3140
 1.7770	29.2920
 1.7780	29.2630
 1.7790	29.2280
 1.7800	29.1990
 1.7810	29.1710
 1.7820	29.1460
 1.7830	29.1260
 1.7840	29.1010
 1.7850	29.0750
 1.7860	29.0500
 1.7870	29.0210
 1.7880	29.0030
 1.7890	28.9900
 1.7900	28.9800
 1.7910	28.9700
 1.7920	28.9570
 1.7930	28.9470
 1.7940	28.9380
 1.7950	28.9320
 1.7960	28.9300
 1.7970	28.9260
 1.7980	28.9260
 1.7990	28.9210
 1.8000	28.9110
 1.8010	28.9040
 1.8020	28.8990
 1.8030	28.8930
 1.8040	28.8880
 1.8050	28.8840
 1.8060	28.8790
 1.8070	28.8770
 1.8080	28.8800
 1.8090	28.8800
 1.8100	28.8800
 1.8110	28.8770
 1.8120	28.8740
 1.8130	28.8810
 1.8140	28.8830
 1.8150	28.8830
 1.8160	28.8810
 1.8170	28.8720
 1.8180	28.8670
 1.8190	28.8640
 1.8200	28.8600
 1.8210	28.8500
 1.8220	28.8410
 1.8230	28.8330
 1.8240	28.8220
 1.8250	28.8110
 1.8260	28.7980
 1.8270	28.7720
 1.8280	28.7450
 1.8290	28.7190
 1.8300	28.6920
 1.8310	28.6650
 1.8320	28.6390
 1.8330	28.6120
 1.8340	28.5860
 1.8350	28.5860
 1.8360	28.5410
 1.8370	28.5010
 1.8380	28.4540
 1.8390	28.4060
 1.8400	28.3640
 1.8410	28.3070
 1.8420	28.2440
 1.8430	28.1760
 1.8440	28.0990
 1.8450	27.9940
 1.8460	27.8940
 1.8470	27.7970
 1.8480	27.6910
 1.8490	27.5830
 1.8500	27.4660
 1.8510	27.3460
 1.8520	27.2100
 1.8530	27.0580
 1.8540	26.8950
 1.8550	26.7210
 1.8560	26.5370
 1.8570	26.3470
 1.8580	26.1430
 1.8590	25.9220
 1.8600	25.6880
 1.8610	25.4340
 1.8620	25.1560
 1.8630	24.8630
 1.8640	24.5580
 1.8650	24.2320
 1.8660	23.8950
 1.8670	23.5390
 1.8680	23.1560
 1.8690	22.7590
 1.8700	22.3390
 1.8710	21.8990
 1.8720	21.4430
 1.8730	20.9740
 1.8740	20.4850
 1.8750	19.9830
 1.8760	19.4700
 1.8770	18.9510
 1.8780	18.4260
 1.8790	17.8890
 1.8800	17.3520
 1.8810	16.8110
 1.8820	16.2660
 1.8830	15.7180
 1.8840	15.1790
 1.8850	14.6420
 1.8860	14.1090
 1.8870	13.5830
 1.8880	13.0640
 1.8890	12.5620
 1.8900	12.0780
 1.8910	11.6180
 1.8920	11.1760
 1.8930	10.7590
 1.8940	10.3660
 1.8950	 9.9980
 1.8960	 9.6530
 1.8970	 9.3330
 1.8980	 9.0400
 1.8990	 8.7690
 1.9000	 8.5210
 1.9010	 8.3000
 1.9020	 8.0940
 1.9030	 7.9110
 1.9040	 7.7460
 1.9050	 7.5950
 1.9060	 7.4610
 1.9070	 7.3480
 1.9080	 7.2440
 1.9090	 7.1510
 1.9100	 7.0740
 1.9110	 7.0020
 1.9120	 6.9380
 1.9130	 6.8830
 1.9140	 6.8420
 1.9150	 6.8010
 1.9160	 6.7660
 1.9170	 6.7370
 1.9180	 6.7120
 1.9190	 6.6880
 1.9200	 6.6700
 1.9210	 6.6540
 1.9220	 6.6410
 1.9230	 6.6310
 1.9240	 6.6270
 1.9250	 6.6250
 1.9260	 6.6300
 1.9270	 6.6410
 1.9280	 6.6520
 1.9290	 6.6710
 1.9300	 6.6890
 1.9310	 6.7070
 1.9320	 6.7310
 1.9330	 6.7510
 1.9340	 6.7670
 1.9350	 6.7890
 1.9360	 6.8090
 1.9370	 6.8340
 1.9380	 6.8630
 1.9390	 6.8970
 1.9400	 6.9310
 1.9410	 6.9720
 1.9420	 7.0070
 1.9430	 7.0450
 1.9440	 7.0870
 1.9450	 7.1280
 1.9460	 7.1710
 1.9470	 7.2200
 1.9480	 7.2650
 1.9490	 7.3080
 1.9500	 7.3540
 1.9510	 7.4000
 1.9520	 7.4460
 1.9530	 7.5000
 1.9540	 7.5570
 1.9550	 7.6120
 1.9560	 7.6710
 1.9570	 7.7280
 1.9580	 7.7790
 1.9590	 7.8370
 1.9600	 7.9000
 1.9610	 7.9640
 1.9620	 8.0310
 1.9630	 8.0990
 1.9640	 8.1690
 1.9650	 8.2330
 1.9660	 8.2950
 1.9670	 8.3640
 1.9680	 8.4330
 1.9690	 8.5010
 1.9700	 8.5760
 1.9710	 8.6570
 1.9720	 8.7340
 1.9730	 8.8130
 1.9740	 8.8940
 1.9750	 8.9690
 1.9760	 9.0420
 1.9770	 9.1160
 1.9780	 9.1920
 1.9790	 9.2680
 1.9800	 9.3440
 1.9810	 9.4220
 1.9820	 9.4990
 1.9830	 9.5790
 1.9840	 9.6620
 1.9850	 9.7460
 1.9860	 9.8350
 1.9870	 9.9220
 1.9880	10.0100
 1.9890	10.0990
 1.9900	10.1900
 1.9910	10.2830
 1.9920	10.3740
 1.9930	10.4690
 1.9940	10.5580
 1.9950	10.6430
 1.9960	10.7290
 1.9970	10.8070
 1.9980	10.8950
 1.9990	10.9870
 2.0000	11.0800
 2.0010	11.1730
 2.0020	11.2700
 2.0030	11.3580
 2.0040	11.4430
 2.0050	11.5310
 2.0060	11.6220
 2.0070	11.7090
 2.0080	11.7970
 2.0090	11.8810
 2.0100	11.9580
 2.0110	12.0390
 2.0120	12.1170
 2.0130	12.2000
 2.0140	12.2850
 2.0150	12.3690
 2.0160	12.4560
 2.0170	12.5390
 2.0180	12.6190
 2.0190	12.6940
 2.0200	12.7720
 2.0210	12.8480
 2.0220	12.9240
 2.0230	13.0010
 2.0240	13.0760
 2.0250	13.1460
 2.0260	13.2170
 2.0270	13.2850
 2.0280	13.3560
 2.0290	13.4230
 2.0300	13.4910
 2.0310	13.5560
 2.0320	13.6190
 2.0330	13.6800
 2.0340	13.7350
 2.0350	13.7930
 2.0360	13.8520
 2.0370	13.9100
 2.0380	13.9730
 2.0390	14.0320
 2.0400	14.0910
 2.0410	14.1460
 2.0420	14.2010
 2.0430	14.2510
 2.0440	14.2980
 2.0450	14.3410
 2.0460	14.3870
 2.0470	14.4320
 2.0480	14.4790
 2.0490	14.5240
 2.0500	14.5740
 2.0510	14.6220
 2.0520	14.6750
 2.0530	14.7380
 2.0540	14.7960
 2.0550	14.8560
 2.0560	14.9120
 2.0570	14.9600
 2.0580	15.0080
 2.0590	15.0570
 2.0600	15.1040
 2.0610	15.1540
 2.0620	15.2110
 2.0630	15.2610
 2.0640	15.3070
 2.0650	15.3550
 2.0660	15.3980
 2.0670	15.4470
 2.0680	15.4990
 2.0690	15.5490
 2.0700	15.6020
 2.0710	15.6540
 2.0720	15.7040
 2.0730	15.7570
 2.0740	15.8040
 2.0750	15.8470
 2.0760	15.8920
 2.0770	15.9330
 2.0780	15.9780
 2.0790	16.0230
 2.0800	16.0700
 2.0810	16.1180
 2.0820	16.1650
 2.0830	16.2150
 2.0840	16.2640
 2.0850	16.3120
 2.0860	16.3580
 2.0870	16.4050
 2.0880	16.4450
 2.0890	16.4880
 2.0900	16.5290
 2.0910	16.5720
 2.0920	16.6200
 2.0930	16.6640
 2.0940	16.7050
 2.0950	16.7470
 2.0960	16.7880
 2.0970	16.8290
 2.0980	16.8700
 2.0990	16.9110
 2.1000	16.9530
 2.1010	16.9900
 2.1020	17.0260
 2.1030	17.0590
 2.1040	17.0850
 2.1050	17.1120
 2.1060	17.1440
 2.1070	17.1780
 2.1080	17.2090
 2.1090	17.2450
 2.1100	17.2760
 2.1110	17.3030
 2.1120	17.3330
 2.1130	17.3650
 2.1140	17.3970
 2.1150	17.4310
 2.1160	17.4600
 2.1170	17.4840
 2.1180	17.5090
 2.1190	17.5330
 2.1200	17.5550
 2.1210	17.5750
 2.1220	17.5980
 2.1230	17.6220
 2.1240	17.6460
 2.1250	17.6730
 2.1260	17.7060
 2.1270	17.7330
 2.1280	17.7600
 2.1290	17.7830
 2.1300	17.7990
 2.1310	17.8190
 2.1320	17.8320
 2.1330	17.8550
 2.1340	17.8840
 2.1350	17.9140
 2.1360	17.9530
 2.1370	17.9840
 2.1380	18.0130
 2.1390	18.0400
 2.1400	18.0630
 2.1410	18.0830
 2.1420	18.1050
 2.1430	18.1250
 2.1440	18.1490
 2.1450	18.1740
 2.1460	18.2000
 2.1470	18.2260
 2.1480	18.2580
 2.1490	18.2940
 2.1500	18.3290
 2.1510	18.3740
 2.1520	18.4040
 2.1530	18.4230
 2.1540	18.4450
 2.1550	18.4600
 2.1560	18.4800
 2.1570	18.5080
 2.1580	18.5280
 2.1590	18.5440
 2.1600	18.5570
 2.1610	18.5680
 2.1620	18.5820
 2.1630	18.5960
 2.1640	18.6170
 2.1650	18.6270
 2.1660	18.6240
 2.1670	18.6380
 2.1680	18.6540
 2.1690	18.6720
 2.1700	18.7060
 2.1710	18.7260
 2.1720	18.7310
 2.1730	18.7460
 2.1740	18.7610
 2.1750	18.7770
 2.1760	18.7960
 2.1770	18.8150
 2.1780	18.8310
 2.1790	18.8480
 2.1800	18.8660
 2.1810	18.8860
 2.1820	18.9030
 2.1830	18.9270
 2.1840	18.9510
 2.1850	18.9810
 2.1860	19.0040
 2.1870	19.0240
 2.1880	19.0460
 2.1890	19.0610
 2.1900	19.0850
 2.1910	19.1180
 2.1920	19.1400
 2.1930	19.1590
 2.1940	19.1780
 2.1950	19.1900
 2.1960	19.2070
 2.1970	19.2290
 2.1980	19.2500
 2.1990	19.2730
 2.2000	19.2940
 2.2010	19.3150
 2.2020	19.3340
 2.2030	19.3490
 2.2040	19.3650
 2.2050	19.3830
 2.2060	19.3980
 2.2070	19.4110
 2.2080	19.4230
 2.2090	19.4340
 2.2100	19.4410
 2.2110	19.4510
 2.2120	19.4610
 2.2130	19.4720
 2.2140	19.4820
 2.2150	19.4930
 2.2160	19.5050
 2.2170	19.5160
 2.2180	19.5320
 2.2190	19.5390
 2.2200	19.5440
 2.2210	19.5460
 2.2220	19.5410
 2.2230	19.5400
 2.2240	19.5450
 2.2250	19.5390
 2.2260	19.5270
 2.2270	19.5150
 2.2280	19.4970
 2.2290	19.4800
 2.2300	19.4690
 2.2310	19.4520
 2.2320	19.4290
 2.2330	19.3980
 2.2340	19.3710
 2.2350	19.3420
 2.2360	19.3110
 2.2370	19.2830
 2.2380	19.2490
 2.2390	19.2090
 2.2400	19.1660
 2.2410	19.1200
 2.2420	19.0690
 2.2430	19.0040
 2.2440	18.9540
 2.2450	18.9100
 2.2460	18.8620
 2.2470	18.8180
 2.2480	18.7750
 2.2490	18.7330
 2.2500	18.6860
 2.2510	18.6390
 2.2520	18.5890
 2.2530	18.5260
 2.2540	18.4740
 2.2550	18.4290
 2.2560	18.3830
 2.2570	18.3410
 2.2580	18.2960
 2.2590	18.2480
 2.2600	18.2020
 2.2610	18.1560
 2.2620	18.1110
 2.2630	18.0720
 2.2640	18.0340
 2.2650	17.9860
 2.2660	17.9440
 2.2670	17.9010
 2.2680	17.8540
 2.2690	17.8100
 2.2700	17.7720
 2.2710	17.7280
 2.2720	17.6800
 2.2730	17.6350
 2.2740	17.5910
 2.2750	17.5490
 2.2760	17.5060
 2.2770	17.4640
 2.2780	17.4210
 2.2790	17.3860
 2.2800	17.3620
 2.2810	17.3280
 2.2820	17.2970
 2.2830	17.2630
 2.2840	17.2250
 2.2850	17.1820
 2.2860	17.1320
 2.2870	17.0900
 2.2880	17.0430
 2.2890	17.0010
 2.2900	16.9780
 2.2910	16.9370
 2.2920	16.8820
 2.2930	16.8300
 2.2940	16.7710
 2.2950	16.7130
 2.2960	16.6610
 2.2970	16.6030
 2.2980	16.5330
 2.2990	16.4740
 2.3000	16.4160
 2.3010	16.3560
 2.3020	16.3000
 2.3030	16.2370
 2.3040	16.1780
 2.3050	16.1260
 2.3060	16.0870
 2.3070	16.0520
 2.3080	16.0220
 2.3090	15.9870
 2.3100	15.9440
 2.3110	15.9090
 2.3120	15.8690
 2.3130	15.8220
 2.3140	15.7880
 2.3150	15.7590
 2.3160	15.7310
 2.3170	15.7130
 2.3180	15.6890
 2.3190	15.6560
 2.3200	15.6350
 2.3210	15.6230
 2.3220	15.6000
 2.3230	15.5840
 2.3240	15.5530
 2.3250	15.5010
 2.3260	15.4680
 2.3270	15.4440
 2.3280	15.4100
 2.3290	15.3760
 2.3300	15.3460
 2.3310	15.3130
 2.3320	15.2720
 2.3330	15.2390
 2.3340	15.1980
 2.3350	15.1350
 2.3360	15.0860
 2.3370	15.0490
 2.3380	15.0010
 2.3390	14.9490
 2.3400	14.9030
 2.3410	14.8470
 2.3420	14.8080
 2.3430	14.7950
 2.3440	14.7550
 2.3450	14.7030
 2.3460	14.6590
 2.3470	14.5900
 2.3480	14.5460
 2.3490	14.5370
 2.3500	14.5120
 2.3510	14.4830
 2.3520	14.4560
 2.3530	14.4270
 2.3540	14.3860
 2.3550	14.3500
 2.3560	14.3050
 2.3570	14.2530
 2.3580	14.2140
 2.3590	14.1850
 2.3600	14.1600
 2.3610	14.1410
 2.3620	14.1020
 2.3630	14.0510
 2.3640	14.0250
 2.3650	13.9940
 2.3660	13.9580
 2.3670	13.9300
 2.3680	13.8780
 2.3690	13.8150
 2.3700	13.7710
 2.3710	13.7320
 2.3720	13.7000
 2.3730	13.6620
 2.3740	13.6130
 2.3750	13.5760
 2.3760	13.5390
 2.3770	13.5060
 2.3780	13.4710
 2.3790	13.4200
 2.3800	13.3750
 2.3810	13.3290
 2.3820	13.2860
 2.3830	13.2520
 2.3840	13.2000
 2.3850	13.1490
 2.3860	13.1000
 2.3870	13.0360
 2.3880	12.9880
 2.3890	12.9520
 2.3900	12.9080
 2.3910	12.8650
 2.3920	12.8130
 2.3930	12.7540
 2.3940	12.6950
 2.3950	12.6310
 2.3960	12.5780
 2.3970	12.5320
 2.3980	12.4850
 2.3990	12.4400
 2.4000	12.3840
 2.4010	12.3140
 2.4020	12.2520
 2.4030	12.2030
 2.4040	12.1670
 2.4050	12.1510
 2.4060	12.1150
 2.4070	12.0620
 2.4080	12.0070
 2.4090	11.9210
 2.4100	11.8450
 2.4110	11.7930
 2.4120	11.7400
 2.4130	11.7020
 2.4140	11.6450
 2.4150	11.5720
 2.4160	11.5150
 2.4170	11.4490
 2.4180	11.4050
 2.4190	11.3880
 2.4200	11.3470
 2.4210	11.2850
 2.4220	11.2200
 2.4230	11.1560
 2.4240	11.0750
 2.4250	10.9890
 2.4260	10.9330
 2.4270	10.8630
 2.4280	10.8070
 2.4290	10.8070
 2.4300	10.7690
 2.4310	10.7250
 2.4320	10.6910
 2.4330	10.6520
 2.4340	10.6240
 2.4350	10.5490
 2.4360	10.4880
 2.4370	10.4370
 2.4380	10.3700
 2.4390	10.3220
 2.4400	10.2800
 2.4410	10.2220
 2.4420	10.1560
 2.4430	10.1320
 2.4440	10.1050
 2.4450	10.0540
 2.4460	 9.9910
 2.4470	 9.9500
 2.4480	 9.9260
 2.4490	 9.8760
 2.4500	 9.8530
 2.4510	 9.8190
 2.4520	 9.7500
 2.4530	 9.6850
 2.4540	 9.6220
 2.4550	 9.5620
 2.4560	 9.4850
 2.4570	 9.4380
 2.4580	 9.4010
 2.4590	 9.3440
 2.4600	 9.3080
 2.4610	 9.2560
 2.4620	 9.2100
 2.4630	 9.1830
 2.4640	 9.1400
 2.4650	 9.1060
 2.4660	 9.0560
 2.4670	 8.9950
 2.4680	 8.9610
 2.4690	 8.9160
 2.4700	 8.8850
 2.4710	 8.8410
 2.4720	 8.8260
 2.4730	 8.8420
 2.4740	 8.8230
 2.4750	 8.8320
 2.4760	 8.8020
 2.4770	 8.7070
 2.4780	 8.6690
 2.4790	 8.6710
 2.4800	 8.6600
 2.4810	 8.6710
 2.4820	 8.6920
 2.4830	 8.6020
 2.4840	 8.4970
 2.4850	 8.4300
 2.4860	 8.3300
 2.4870	 8.2820
 2.4880	 8.3390
 2.4890	 8.3370
 2.4900	 8.3400
 2.4910	 8.3550
 2.4920	 8.3390
 2.4930	 8.3730
 2.4940	 8.3730
 2.4950	 8.3740
 2.4960	 8.3280
 2.4970	 8.2520
 2.4980	 8.3240
 2.4990	 8.3390
 2.5000	 8.3420
