Name: Abies concolor 3
Type: vegetation
Class: Tree
Genus: Abies
Species: concolor
Sample No.: VH265
Owner: UCSB
Wavelength Range: VSWIR
Origin: 37.0439; -119.3058; WGS84
Collection Date: 11/2/2013
Description: Samples were collected as part of the HyspIRI Airborne Campaign. 48 individual plants were sampled in three times in 2013 - spring  summer  and fall. The name of the sample includes a 1  2  or 3 which references a different individual of the species. Samples were taken to JPL and processed within 48 hours of collection. The same leaves were processed in the Nicolet and then measured using the ASD.
Measurement: Bidirectional reflectance
First Column: X
Second Column: Y
X Units: Wavelength (micrometers)
Y Units: Reflectance (percentage)
First X Value: 0.35
Last X Value: 2.5
Number of X Values: 2151
Additional Information: vegetation.tree.abies.concolor.vswir.vh265.ucsb.asd.ancillary.txt

 0.3500	 6.0730
 0.3510	 6.0570
 0.3520	 6.0590
 0.3530	 6.0330
 0.3540	 5.9620
 0.3550	 5.9850
 0.3560	 5.9980
 0.3570	 5.9780
 0.3580	 5.9530
 0.3590	 5.9530
 0.3600	 5.9060
 0.3610	 5.8160
 0.3620	 5.8090
 0.3630	 5.7450
 0.3640	 5.7170
 0.3650	 5.7930
 0.3660	 5.7180
 0.3670	 5.7000
 0.3680	 5.7430
 0.3690	 5.7230
 0.3700	 5.6760
 0.3710	 5.6550
 0.3720	 5.6800
 0.3730	 5.7070
 0.3740	 5.7550
 0.3750	 5.7520
 0.3760	 5.6500
 0.3770	 5.6430
 0.3780	 5.6800
 0.3790	 5.7150
 0.3800	 5.7250
 0.3810	 5.7110
 0.3820	 5.6690
 0.3830	 5.6140
 0.3840	 5.6100
 0.3850	 5.6140
 0.3860	 5.6250
 0.3870	 5.6410
 0.3880	 5.5850
 0.3890	 5.5850
 0.3900	 5.6430
 0.3910	 5.6250
 0.3920	 5.5900
 0.3930	 5.5730
 0.3940	 5.5870
 0.3950	 5.5950
 0.3960	 5.6150
 0.3970	 5.6350
 0.3980	 5.6280
 0.3990	 5.6390
 0.4000	 5.6380
 0.4010	 5.6290
 0.4020	 5.6650
 0.4030	 5.6940
 0.4040	 5.7100
 0.4050	 5.7200
 0.4060	 5.7300
 0.4070	 5.7600
 0.4080	 5.8010
 0.4090	 5.8300
 0.4100	 5.8640
 0.4110	 5.8940
 0.4120	 5.9180
 0.4130	 5.9570
 0.4140	 6.0020
 0.4150	 6.0590
 0.4160	 6.1270
 0.4170	 6.1510
 0.4180	 6.2060
 0.4190	 6.2970
 0.4200	 6.3600
 0.4210	 6.4010
 0.4220	 6.4530
 0.4230	 6.5250
 0.4240	 6.5470
 0.4250	 6.5950
 0.4260	 6.6630
 0.4270	 6.7130
 0.4280	 6.7710
 0.4290	 6.8300
 0.4300	 6.8820
 0.4310	 6.9170
 0.4320	 6.9760
 0.4330	 7.0380
 0.4340	 7.0740
 0.4350	 7.0960
 0.4360	 7.1350
 0.4370	 7.1870
 0.4380	 7.2240
 0.4390	 7.2490
 0.4400	 7.2760
 0.4410	 7.3130
 0.4420	 7.3470
 0.4430	 7.3650
 0.4440	 7.3880
 0.4450	 7.4370
 0.4460	 7.4750
 0.4470	 7.5050
 0.4480	 7.5310
 0.4490	 7.5520
 0.4500	 7.5880
 0.4510	 7.6190
 0.4520	 7.6300
 0.4530	 7.6530
 0.4540	 7.6750
 0.4550	 7.6920
 0.4560	 7.7040
 0.4570	 7.7170
 0.4580	 7.7310
 0.4590	 7.7410
 0.4600	 7.7330
 0.4610	 7.7380
 0.4620	 7.7550
 0.4630	 7.7690
 0.4640	 7.7760
 0.4650	 7.7710
 0.4660	 7.7630
 0.4670	 7.7680
 0.4680	 7.7740
 0.4690	 7.7790
 0.4700	 7.7790
 0.4710	 7.7790
 0.4720	 7.7880
 0.4730	 7.7940
 0.4740	 7.7820
 0.4750	 7.7820
 0.4760	 7.7810
 0.4770	 7.7760
 0.4780	 7.7960
 0.4790	 7.8040
 0.4800	 7.8040
 0.4810	 7.8080
 0.4820	 7.8090
 0.4830	 7.8100
 0.4840	 7.8130
 0.4850	 7.8170
 0.4860	 7.8120
 0.4870	 7.8150
 0.4880	 7.8340
 0.4890	 7.8420
 0.4900	 7.8550
 0.4910	 7.8750
 0.4920	 7.8920
 0.4930	 7.9040
 0.4940	 7.9300
 0.4950	 7.9700
 0.4960	 7.9890
 0.4970	 8.0160
 0.4980	 8.0530
 0.4990	 8.0960
 0.5000	 8.1520
 0.5010	 8.2080
 0.5020	 8.2650
 0.5030	 8.3370
 0.5040	 8.4040
 0.5050	 8.4700
 0.5060	 8.5460
 0.5070	 8.6510
 0.5080	 8.7560
 0.5090	 8.8620
 0.5100	 8.9810
 0.5110	 9.1120
 0.5120	 9.2540
 0.5130	 9.4080
 0.5140	 9.5730
 0.5150	 9.7490
 0.5160	 9.9330
 0.5170	10.1260
 0.5180	10.3260
 0.5190	10.5330
 0.5200	10.7450
 0.5210	10.9590
 0.5220	11.1770
 0.5230	11.3940
 0.5240	11.6050
 0.5250	11.8020
 0.5260	11.9920
 0.5270	12.1730
 0.5280	12.3430
 0.5290	12.4980
 0.5300	12.6440
 0.5310	12.7790
 0.5320	12.8930
 0.5330	13.0020
 0.5340	13.1030
 0.5350	13.1890
 0.5360	13.2670
 0.5370	13.3330
 0.5380	13.3910
 0.5390	13.4470
 0.5400	13.4980
 0.5410	13.5400
 0.5420	13.5770
 0.5430	13.6230
 0.5440	13.6680
 0.5450	13.7130
 0.5460	13.7590
 0.5470	13.8020
 0.5480	13.8390
 0.5490	13.8680
 0.5500	13.8920
 0.5510	13.9090
 0.5520	13.9160
 0.5530	13.9090
 0.5540	13.8890
 0.5550	13.8620
 0.5560	13.8220
 0.5570	13.7610
 0.5580	13.6890
 0.5590	13.6070
 0.5600	13.5170
 0.5610	13.4190
 0.5620	13.3110
 0.5630	13.1960
 0.5640	13.0770
 0.5650	12.9520
 0.5660	12.8220
 0.5670	12.6880
 0.5680	12.5480
 0.5690	12.4110
 0.5700	12.2710
 0.5710	12.1240
 0.5720	11.9840
 0.5730	11.8490
 0.5740	11.7200
 0.5750	11.5940
 0.5760	11.4780
 0.5770	11.3660
 0.5780	11.2580
 0.5790	11.1640
 0.5800	11.0740
 0.5810	10.9880
 0.5820	10.9110
 0.5830	10.8430
 0.5840	10.7820
 0.5850	10.7230
 0.5860	10.6600
 0.5870	10.5980
 0.5880	10.5440
 0.5890	10.4990
 0.5900	10.4610
 0.5910	10.4250
 0.5920	10.3880
 0.5930	10.3450
 0.5940	10.3120
 0.5950	10.2870
 0.5960	10.2650
 0.5970	10.2390
 0.5980	10.2120
 0.5990	10.1830
 0.6000	10.1520
 0.6010	10.1150
 0.6020	10.0740
 0.6030	10.0310
 0.6040	 9.9840
 0.6050	 9.9330
 0.6060	 9.8740
 0.6070	 9.8100
 0.6080	 9.7440
 0.6090	 9.6740
 0.6100	 9.6010
 0.6110	 9.5260
 0.6120	 9.4570
 0.6130	 9.3950
 0.6140	 9.3330
 0.6150	 9.2690
 0.6160	 9.2100
 0.6170	 9.1560
 0.6180	 9.1040
 0.6190	 9.0590
 0.6200	 9.0190
 0.6210	 8.9800
 0.6220	 8.9460
 0.6230	 8.9190
 0.6240	 8.8960
 0.6250	 8.8750
 0.6260	 8.8600
 0.6270	 8.8450
 0.6280	 8.8330
 0.6290	 8.8290
 0.6300	 8.8210
 0.6310	 8.8120
 0.6320	 8.8040
 0.6330	 8.7970
 0.6340	 8.7780
 0.6350	 8.7540
 0.6360	 8.7280
 0.6370	 8.6920
 0.6380	 8.6510
 0.6390	 8.6050
 0.6400	 8.5550
 0.6410	 8.4970
 0.6420	 8.4350
 0.6430	 8.3720
 0.6440	 8.3110
 0.6450	 8.2470
 0.6460	 8.1810
 0.6470	 8.1170
 0.6480	 8.0600
 0.6490	 8.0090
 0.6500	 7.9620
 0.6510	 7.9180
 0.6520	 7.8800
 0.6530	 7.8400
 0.6540	 7.7960
 0.6550	 7.7580
 0.6560	 7.7180
 0.6570	 7.6710
 0.6580	 7.6180
 0.6590	 7.5660
 0.6600	 7.5150
 0.6610	 7.4640
 0.6620	 7.4140
 0.6630	 7.3630
 0.6640	 7.3130
 0.6650	 7.2670
 0.6660	 7.2330
 0.6670	 7.2030
 0.6680	 7.1770
 0.6690	 7.1600
 0.6700	 7.1460
 0.6710	 7.1370
 0.6720	 7.1340
 0.6730	 7.1360
 0.6740	 7.1360
 0.6750	 7.1420
 0.6760	 7.1590
 0.6770	 7.1750
 0.6780	 7.1920
 0.6790	 7.2150
 0.6800	 7.2450
 0.6810	 7.2800
 0.6820	 7.3220
 0.6830	 7.3730
 0.6840	 7.4320
 0.6850	 7.5060
 0.6860	 7.5970
 0.6870	 7.7050
 0.6880	 7.8360
 0.6890	 7.9930
 0.6900	 8.1840
 0.6910	 8.4200
 0.6920	 8.7010
 0.6930	 9.0350
 0.6940	 9.4310
 0.6950	 9.8860
 0.6960	10.4050
 0.6970	10.9930
 0.6980	11.6520
 0.6990	12.3700
 0.7000	13.1450
 0.7010	13.9740
 0.7020	14.8530
 0.7030	15.7770
 0.7040	16.7380
 0.7050	17.7280
 0.7060	18.7450
 0.7070	19.7760
 0.7080	20.8280
 0.7090	21.9110
 0.7100	22.9990
 0.7110	24.0970
 0.7120	25.2100
 0.7130	26.3330
 0.7140	27.4500
 0.7150	28.5730
 0.7160	29.7040
 0.7170	30.8210
 0.7180	31.9390
 0.7190	33.0540
 0.7200	34.1580
 0.7210	35.2480
 0.7220	36.3230
 0.7230	37.3820
 0.7240	38.4190
 0.7250	39.4290
 0.7260	40.4140
 0.7270	41.3740
 0.7280	42.2890
 0.7290	43.1770
 0.7300	44.0310
 0.7310	44.8410
 0.7320	45.6280
 0.7330	46.3730
 0.7340	47.0760
 0.7350	47.7620
 0.7360	48.4200
 0.7370	49.0330
 0.7380	49.6010
 0.7390	50.1580
 0.7400	50.6710
 0.7410	51.1570
 0.7420	51.6370
 0.7430	52.0500
 0.7440	52.4440
 0.7450	52.8330
 0.7460	53.1900
 0.7470	53.5240
 0.7480	53.8250
 0.7490	54.0910
 0.7500	54.3520
 0.7510	54.5830
 0.7520	54.7960
 0.7530	55.0090
 0.7540	55.1990
 0.7550	55.3640
 0.7560	55.5080
 0.7570	55.6420
 0.7580	55.7680
 0.7590	55.8830
 0.7600	55.9820
 0.7610	56.0700
 0.7620	56.1550
 0.7630	56.2330
 0.7640	56.2980
 0.7650	56.3630
 0.7660	56.4090
 0.7670	56.4420
 0.7680	56.4800
 0.7690	56.5280
 0.7700	56.5720
 0.7710	56.6070
 0.7720	56.6440
 0.7730	56.6640
 0.7740	56.6780
 0.7750	56.6970
 0.7760	56.7190
 0.7770	56.7480
 0.7780	56.7670
 0.7790	56.7610
 0.7800	56.7700
 0.7810	56.7960
 0.7820	56.8200
 0.7830	56.8080
 0.7840	56.8250
 0.7850	56.8510
 0.7860	56.8630
 0.7870	56.8760
 0.7880	56.8860
 0.7890	56.8900
 0.7900	56.8930
 0.7910	56.9050
 0.7920	56.9140
 0.7930	56.9230
 0.7940	56.9420
 0.7950	56.9490
 0.7960	56.9580
 0.7970	56.9740
 0.7980	56.9810
 0.7990	56.9940
 0.8000	56.9960
 0.8010	56.9840
 0.8020	56.9980
 0.8030	57.0080
 0.8040	57.0200
 0.8050	57.0470
 0.8060	57.0480
 0.8070	57.0380
 0.8080	57.0320
 0.8090	57.0400
 0.8100	57.0590
 0.8110	57.0790
 0.8120	57.0930
 0.8130	57.0940
 0.8140	57.0920
 0.8150	57.0920
 0.8160	57.1000
 0.8170	57.1280
 0.8180	57.1460
 0.8190	57.1480
 0.8200	57.1450
 0.8210	57.1580
 0.8220	57.1830
 0.8230	57.2040
 0.8240	57.2010
 0.8250	57.1880
 0.8260	57.1940
 0.8270	57.2190
 0.8280	57.2100
 0.8290	57.2110
 0.8300	57.2090
 0.8310	57.1940
 0.8320	57.2160
 0.8330	57.2220
 0.8340	57.2210
 0.8350	57.2460
 0.8360	57.2680
 0.8370	57.2770
 0.8380	57.2770
 0.8390	57.2820
 0.8400	57.2960
 0.8410	57.3190
 0.8420	57.3470
 0.8430	57.3780
 0.8440	57.4020
 0.8450	57.4080
 0.8460	57.3990
 0.8470	57.4140
 0.8480	57.4500
 0.8490	57.4810
 0.8500	57.4880
 0.8510	57.4910
 0.8520	57.5040
 0.8530	57.5220
 0.8540	57.5340
 0.8550	57.5640
 0.8560	57.5880
 0.8570	57.5990
 0.8580	57.6100
 0.8590	57.6110
 0.8600	57.6170
 0.8610	57.6360
 0.8620	57.6500
 0.8630	57.6610
 0.8640	57.6680
 0.8650	57.6740
 0.8660	57.6880
 0.8670	57.7080
 0.8680	57.7080
 0.8690	57.6780
 0.8700	57.6950
 0.8710	57.7150
 0.8720	57.7290
 0.8730	57.7480
 0.8740	57.7490
 0.8750	57.7430
 0.8760	57.7390
 0.8770	57.7450
 0.8780	57.7580
 0.8790	57.7550
 0.8800	57.7390
 0.8810	57.7440
 0.8820	57.7450
 0.8830	57.7470
 0.8840	57.7500
 0.8850	57.7460
 0.8860	57.7530
 0.8870	57.7540
 0.8880	57.7350
 0.8890	57.7330
 0.8900	57.7340
 0.8910	57.7310
 0.8920	57.7180
 0.8930	57.6940
 0.8940	57.6660
 0.8950	57.6520
 0.8960	57.6680
 0.8970	57.6670
 0.8980	57.6560
 0.8990	57.6420
 0.9000	57.6330
 0.9010	57.6280
 0.9020	57.6160
 0.9030	57.6020
 0.9040	57.6050
 0.9050	57.5830
 0.9060	57.5550
 0.9070	57.5420
 0.9080	57.5430
 0.9090	57.5280
 0.9100	57.5180
 0.9110	57.5240
 0.9120	57.5060
 0.9130	57.4620
 0.9140	57.4280
 0.9150	57.4300
 0.9160	57.4190
 0.9170	57.4030
 0.9180	57.3850
 0.9190	57.3660
 0.9200	57.3360
 0.9210	57.3070
 0.9220	57.2750
 0.9230	57.2350
 0.9240	57.2040
 0.9250	57.1600
 0.9260	57.1090
 0.9270	57.0690
 0.9280	57.0160
 0.9290	56.9660
 0.9300	56.9210
 0.9310	56.8690
 0.9320	56.8110
 0.9330	56.7290
 0.9340	56.6370
 0.9350	56.5820
 0.9360	56.5530
 0.9370	56.4980
 0.9380	56.4070
 0.9390	56.3380
 0.9400	56.2580
 0.9410	56.1640
 0.9420	56.0620
 0.9430	55.9780
 0.9440	55.9050
 0.9450	55.8290
 0.9460	55.7300
 0.9470	55.5730
 0.9480	55.4320
 0.9490	55.2880
 0.9500	55.1230
 0.9510	54.9840
 0.9520	54.8270
 0.9530	54.6580
 0.9540	54.4930
 0.9550	54.3260
 0.9560	54.1700
 0.9570	54.0170
 0.9580	53.8610
 0.9590	53.7150
 0.9600	53.5930
 0.9610	53.4850
 0.9620	53.3800
 0.9630	53.3120
 0.9640	53.2460
 0.9650	53.1840
 0.9660	53.1420
 0.9670	53.1250
 0.9680	53.0900
 0.9690	53.0480
 0.9700	53.0280
 0.9710	53.0220
 0.9720	53.0130
 0.9730	52.9980
 0.9740	52.9860
 0.9750	52.9770
 0.9760	52.9670
 0.9770	52.9610
 0.9780	52.9690
 0.9790	53.0000
 0.9800	53.0510
 0.9810	53.0880
 0.9820	53.0820
 0.9830	53.1220
 0.9840	53.1620
 0.9850	53.2010
 0.9860	53.2520
 0.9870	53.2860
 0.9880	53.3350
 0.9890	53.3830
 0.9900	53.4090
 0.9910	53.4700
 0.9920	53.5530
 0.9930	53.6340
 0.9940	53.6960
 0.9950	53.7560
 0.9960	53.8270
 0.9970	53.9040
 0.9980	53.9760
 0.9990	54.0430
 1.0000	54.1720
 1.0010	54.2790
 1.0020	54.3980
 1.0030	54.4680
 1.0040	54.5380
 1.0050	54.6040
 1.0060	54.6700
 1.0070	54.7320
 1.0080	54.8010
 1.0090	54.8750
 1.0100	54.9460
 1.0110	55.0210
 1.0120	55.0910
 1.0130	55.1550
 1.0140	55.2220
 1.0150	55.2880
 1.0160	55.3600
 1.0170	55.4290
 1.0180	55.4940
 1.0190	55.5580
 1.0200	55.6240
 1.0210	55.6910
 1.0220	55.7540
 1.0230	55.8150
 1.0240	55.8710
 1.0250	55.9270
 1.0260	55.9800
 1.0270	56.0360
 1.0280	56.0930
 1.0290	56.1480
 1.0300	56.2030
 1.0310	56.2560
 1.0320	56.3090
 1.0330	56.3600
 1.0340	56.4130
 1.0350	56.4660
 1.0360	56.5150
 1.0370	56.5580
 1.0380	56.6020
 1.0390	56.6430
 1.0400	56.6840
 1.0410	56.7280
 1.0420	56.7680
 1.0430	56.8030
 1.0440	56.8400
 1.0450	56.8800
 1.0460	56.9130
 1.0470	56.9400
 1.0480	56.9700
 1.0490	56.9990
 1.0500	57.0230
 1.0510	57.0470
 1.0520	57.0730
 1.0530	57.0960
 1.0540	57.1110
 1.0550	57.1300
 1.0560	57.1510
 1.0570	57.1710
 1.0580	57.1900
 1.0590	57.2080
 1.0600	57.2270
 1.0610	57.2420
 1.0620	57.2510
 1.0630	57.2630
 1.0640	57.2760
 1.0650	57.2860
 1.0660	57.2980
 1.0670	57.3070
 1.0680	57.3130
 1.0690	57.3150
 1.0700	57.3160
 1.0710	57.3160
 1.0720	57.3150
 1.0730	57.3110
 1.0740	57.3100
 1.0750	57.3120
 1.0760	57.3070
 1.0770	57.2990
 1.0780	57.2920
 1.0790	57.2830
 1.0800	57.2730
 1.0810	57.2680
 1.0820	57.2560
 1.0830	57.2350
 1.0840	57.2170
 1.0850	57.1970
 1.0860	57.1760
 1.0870	57.1530
 1.0880	57.1280
 1.0890	57.1060
 1.0900	57.0820
 1.0910	57.0600
 1.0920	57.0440
 1.0930	57.0190
 1.0940	56.9890
 1.0950	56.9580
 1.0960	56.9200
 1.0970	56.8860
 1.0980	56.8550
 1.0990	56.8190
 1.1000	56.7820
 1.1010	56.7460
 1.1020	56.7090
 1.1030	56.6700
 1.1040	56.6320
 1.1050	56.5910
 1.1060	56.5470
 1.1070	56.4980
 1.1080	56.4520
 1.1090	56.4040
 1.1100	56.3560
 1.1110	56.3130
 1.1120	56.2600
 1.1130	56.2050
 1.1140	56.1460
 1.1150	56.0800
 1.1160	56.0130
 1.1170	55.9480
 1.1180	55.8740
 1.1190	55.7980
 1.1200	55.7130
 1.1210	55.6200
 1.1220	55.5180
 1.1230	55.4060
 1.1240	55.2840
 1.1250	55.1500
 1.1260	55.0100
 1.1270	54.8490
 1.1280	54.6750
 1.1290	54.4830
 1.1300	54.2760
 1.1310	54.0510
 1.1320	53.8100
 1.1330	53.5540
 1.1340	53.2810
 1.1350	52.9920
 1.1360	52.6870
 1.1370	52.3640
 1.1380	52.0300
 1.1390	51.6880
 1.1400	51.3380
 1.1410	50.9860
 1.1420	50.6260
 1.1430	50.2640
 1.1440	49.9110
 1.1450	49.5530
 1.1460	49.2170
 1.1470	48.8870
 1.1480	48.5760
 1.1490	48.2760
 1.1500	47.9980
 1.1510	47.7340
 1.1520	47.4950
 1.1530	47.2760
 1.1540	47.0780
 1.1550	46.9000
 1.1560	46.7410
 1.1570	46.6010
 1.1580	46.4800
 1.1590	46.3750
 1.1600	46.2850
 1.1610	46.2070
 1.1620	46.1410
 1.1630	46.0840
 1.1640	46.0350
 1.1650	45.9940
 1.1660	45.9650
 1.1670	45.9350
 1.1680	45.9120
 1.1690	45.8900
 1.1700	45.8730
 1.1710	45.8550
 1.1720	45.8420
 1.1730	45.8240
 1.1740	45.8040
 1.1750	45.7850
 1.1760	45.7620
 1.1770	45.7380
 1.1780	45.7150
 1.1790	45.6880
 1.1800	45.6600
 1.1810	45.6340
 1.1820	45.6040
 1.1830	45.5720
 1.1840	45.5420
 1.1850	45.5110
 1.1860	45.4810
 1.1870	45.4540
 1.1880	45.4290
 1.1890	45.4050
 1.1900	45.3830
 1.1910	45.3650
 1.1920	45.3490
 1.1930	45.3350
 1.1940	45.3250
 1.1950	45.3190
 1.1960	45.3140
 1.1970	45.3150
 1.1980	45.3200
 1.1990	45.3290
 1.2000	45.3430
 1.2010	45.3620
 1.2020	45.3860
 1.2030	45.4120
 1.2040	45.4450
 1.2050	45.4800
 1.2060	45.5160
 1.2070	45.5550
 1.2080	45.5960
 1.2090	45.6380
 1.2100	45.6840
 1.2110	45.7340
 1.2120	45.7870
 1.2130	45.8460
 1.2140	45.9110
 1.2150	45.9750
 1.2160	46.0440
 1.2170	46.1130
 1.2180	46.1800
 1.2190	46.2490
 1.2200	46.3190
 1.2210	46.3890
 1.2220	46.4620
 1.2230	46.5330
 1.2240	46.6050
 1.2250	46.6760
 1.2260	46.7440
 1.2270	46.8140
 1.2280	46.8840
 1.2290	46.9510
 1.2300	47.0180
 1.2310	47.0830
 1.2320	47.1450
 1.2330	47.2060
 1.2340	47.2650
 1.2350	47.3220
 1.2360	47.3780
 1.2370	47.4330
 1.2380	47.4860
 1.2390	47.5370
 1.2400	47.5860
 1.2410	47.6340
 1.2420	47.6790
 1.2430	47.7250
 1.2440	47.7690
 1.2450	47.8070
 1.2460	47.8460
 1.2470	47.8830
 1.2480	47.9170
 1.2490	47.9530
 1.2500	47.9870
 1.2510	48.0190
 1.2520	48.0500
 1.2530	48.0800
 1.2540	48.1070
 1.2550	48.1290
 1.2560	48.1500
 1.2570	48.1710
 1.2580	48.1880
 1.2590	48.2040
 1.2600	48.2210
 1.2610	48.2330
 1.2620	48.2400
 1.2630	48.2450
 1.2640	48.2480
 1.2650	48.2480
 1.2660	48.2470
 1.2670	48.2440
 1.2680	48.2390
 1.2690	48.2330
 1.2700	48.2230
 1.2710	48.2090
 1.2720	48.1930
 1.2730	48.1740
 1.2740	48.1520
 1.2750	48.1310
 1.2760	48.1070
 1.2770	48.0780
 1.2780	48.0500
 1.2790	48.0180
 1.2800	47.9850
 1.2810	47.9470
 1.2820	47.9050
 1.2830	47.8590
 1.2840	47.8090
 1.2850	47.7570
 1.2860	47.7000
 1.2870	47.6390
 1.2880	47.5750
 1.2890	47.5070
 1.2900	47.4340
 1.2910	47.3560
 1.2920	47.2730
 1.2930	47.1850
 1.2940	47.0930
 1.2950	46.9990
 1.2960	46.9040
 1.2970	46.8020
 1.2980	46.6950
 1.2990	46.5830
 1.3000	46.4640
 1.3010	46.3420
 1.3020	46.2140
 1.3030	46.0810
 1.3040	45.9400
 1.3050	45.7950
 1.3060	45.6470
 1.3070	45.4930
 1.3080	45.3390
 1.3090	45.1790
 1.3100	45.0080
 1.3110	44.8320
 1.3120	44.6490
 1.3130	44.4620
 1.3140	44.2680
 1.3150	44.0680
 1.3160	43.8630
 1.3170	43.6540
 1.3180	43.4360
 1.3190	43.2140
 1.3200	42.9840
 1.3210	42.7470
 1.3220	42.5060
 1.3230	42.2620
 1.3240	42.0180
 1.3250	41.7730
 1.3260	41.5230
 1.3270	41.2710
 1.3280	41.0140
 1.3290	40.7490
 1.3300	40.4860
 1.3310	40.2220
 1.3320	39.9540
 1.3330	39.6900
 1.3340	39.4230
 1.3350	39.1540
 1.3360	38.8870
 1.3370	38.6200
 1.3380	38.3560
 1.3390	38.0930
 1.3400	37.8300
 1.3410	37.5720
 1.3420	37.3170
 1.3430	37.0660
 1.3440	36.8220
 1.3450	36.5810
 1.3460	36.3420
 1.3470	36.1110
 1.3480	35.8830
 1.3490	35.6600
 1.3500	35.4420
 1.3510	35.2260
 1.3520	35.0110
 1.3530	34.7980
 1.3540	34.5860
 1.3550	34.3740
 1.3560	34.1620
 1.3570	33.9470
 1.3580	33.7320
 1.3590	33.5120
 1.3600	33.2870
 1.3610	33.0590
 1.3620	32.8210
 1.3630	32.5760
 1.3640	32.3260
 1.3650	32.0630
 1.3660	31.7940
 1.3670	31.5120
 1.3680	31.2150
 1.3690	30.9040
 1.3700	30.5750
 1.3710	30.2310
 1.3720	29.8710
 1.3730	29.4940
 1.3740	29.1020
 1.3750	28.6910
 1.3760	28.2570
 1.3770	27.8010
 1.3780	27.3190
 1.3790	26.8150
 1.3800	26.2940
 1.3810	25.7480
 1.3820	25.1890
 1.3830	24.6130
 1.3840	24.0280
 1.3850	23.4260
 1.3860	22.8250
 1.3870	22.2120
 1.3880	21.6080
 1.3890	21.0010
 1.3900	20.3970
 1.3910	19.8060
 1.3920	19.2200
 1.3930	18.6430
 1.3940	18.0810
 1.3950	17.5290
 1.3960	16.9950
 1.3970	16.4820
 1.3980	15.9900
 1.3990	15.5250
 1.4000	15.0820
 1.4010	14.6610
 1.4020	14.2650
 1.4030	13.8900
 1.4040	13.5380
 1.4050	13.2120
 1.4060	12.9070
 1.4070	12.6260
 1.4080	12.3660
 1.4090	12.1210
 1.4100	11.8970
 1.4110	11.6910
 1.4120	11.5010
 1.4130	11.3280
 1.4140	11.1700
 1.4150	11.0250
 1.4160	10.8930
 1.4170	10.7740
 1.4180	10.6670
 1.4190	10.5690
 1.4200	10.4790
 1.4210	10.3980
 1.4220	10.3250
 1.4230	10.2600
 1.4240	10.2030
 1.4250	10.1500
 1.4260	10.1050
 1.4270	10.0640
 1.4280	10.0290
 1.4290	 9.9980
 1.4300	 9.9720
 1.4310	 9.9500
 1.4320	 9.9330
 1.4330	 9.9180
 1.4340	 9.9070
 1.4350	 9.8990
 1.4360	 9.8930
 1.4370	 9.8900
 1.4380	 9.8900
 1.4390	 9.8930
 1.4400	 9.8980
 1.4410	 9.9050
 1.4420	 9.9130
 1.4430	 9.9210
 1.4440	 9.9310
 1.4450	 9.9430
 1.4460	 9.9550
 1.4470	 9.9700
 1.4480	 9.9850
 1.4490	10.0020
 1.4500	10.0200
 1.4510	10.0380
 1.4520	10.0550
 1.4530	10.0750
 1.4540	10.0940
 1.4550	10.1150
 1.4560	10.1370
 1.4570	10.1620
 1.4580	10.1880
 1.4590	10.2160
 1.4600	10.2480
 1.4610	10.2810
 1.4620	10.3160
 1.4630	10.3550
 1.4640	10.3970
 1.4650	10.4420
 1.4660	10.4920
 1.4670	10.5450
 1.4680	10.6020
 1.4690	10.6630
 1.4700	10.7260
 1.4710	10.7940
 1.4720	10.8630
 1.4730	10.9340
 1.4740	11.0080
 1.4750	11.0840
 1.4760	11.1620
 1.4770	11.2440
 1.4780	11.3280
 1.4790	11.4130
 1.4800	11.5000
 1.4810	11.5880
 1.4820	11.6770
 1.4830	11.7670
 1.4840	11.8590
 1.4850	11.9530
 1.4860	12.0470
 1.4870	12.1430
 1.4880	12.2390
 1.4890	12.3380
 1.4900	12.4370
 1.4910	12.5380
 1.4920	12.6400
 1.4930	12.7430
 1.4940	12.8460
 1.4950	12.9500
 1.4960	13.0550
 1.4970	13.1600
 1.4980	13.2650
 1.4990	13.3710
 1.5000	13.4780
 1.5010	13.5850
 1.5020	13.6920
 1.5030	13.8000
 1.5040	13.9080
 1.5050	14.0160
 1.5060	14.1240
 1.5070	14.2330
 1.5080	14.3420
 1.5090	14.4520
 1.5100	14.5610
 1.5110	14.6700
 1.5120	14.7790
 1.5130	14.8860
 1.5140	14.9940
 1.5150	15.1020
 1.5160	15.2080
 1.5170	15.3160
 1.5180	15.4240
 1.5190	15.5320
 1.5200	15.6390
 1.5210	15.7450
 1.5220	15.8510
 1.5230	15.9570
 1.5240	16.0630
 1.5250	16.1700
 1.5260	16.2750
 1.5270	16.3780
 1.5280	16.4820
 1.5290	16.5850
 1.5300	16.6880
 1.5310	16.7910
 1.5320	16.8910
 1.5330	16.9920
 1.5340	17.0920
 1.5350	17.1920
 1.5360	17.2930
 1.5370	17.3900
 1.5380	17.4900
 1.5390	17.5880
 1.5400	17.6860
 1.5410	17.7860
 1.5420	17.8840
 1.5430	17.9800
 1.5440	18.0780
 1.5450	18.1730
 1.5460	18.2680
 1.5470	18.3650
 1.5480	18.4590
 1.5490	18.5530
 1.5500	18.6480
 1.5510	18.7410
 1.5520	18.8340
 1.5530	18.9270
 1.5540	19.0180
 1.5550	19.1090
 1.5560	19.1980
 1.5570	19.2860
 1.5580	19.3760
 1.5590	19.4640
 1.5600	19.5520
 1.5610	19.6400
 1.5620	19.7270
 1.5630	19.8120
 1.5640	19.8980
 1.5650	19.9830
 1.5660	20.0680
 1.5670	20.1530
 1.5680	20.2370
 1.5690	20.3210
 1.5700	20.4040
 1.5710	20.4870
 1.5720	20.5680
 1.5730	20.6490
 1.5740	20.7290
 1.5750	20.8090
 1.5760	20.8890
 1.5770	20.9670
 1.5780	21.0440
 1.5790	21.1230
 1.5800	21.2020
 1.5810	21.2800
 1.5820	21.3600
 1.5830	21.4380
 1.5840	21.5160
 1.5850	21.5920
 1.5860	21.6670
 1.5870	21.7440
 1.5880	21.8190
 1.5890	21.8950
 1.5900	21.9710
 1.5910	22.0470
 1.5920	22.1250
 1.5930	22.2010
 1.5940	22.2770
 1.5950	22.3520
 1.5960	22.4240
 1.5970	22.4970
 1.5980	22.5720
 1.5990	22.6450
 1.6000	22.7190
 1.6010	22.7920
 1.6020	22.8640
 1.6030	22.9360
 1.6040	23.0060
 1.6050	23.0760
 1.6060	23.1440
 1.6070	23.2120
 1.6080	23.2810
 1.6090	23.3480
 1.6100	23.4120
 1.6110	23.4760
 1.6120	23.5390
 1.6130	23.6030
 1.6140	23.6660
 1.6150	23.7290
 1.6160	23.7900
 1.6170	23.8480
 1.6180	23.9070
 1.6190	23.9640
 1.6200	24.0180
 1.6210	24.0710
 1.6220	24.1220
 1.6230	24.1700
 1.6240	24.2180
 1.6250	24.2660
 1.6260	24.3120
 1.6270	24.3580
 1.6280	24.3990
 1.6290	24.4410
 1.6300	24.4810
 1.6310	24.5210
 1.6320	24.5630
 1.6330	24.6020
 1.6340	24.6390
 1.6350	24.6770
 1.6360	24.7110
 1.6370	24.7470
 1.6380	24.7850
 1.6390	24.8210
 1.6400	24.8570
 1.6410	24.8890
 1.6420	24.9200
 1.6430	24.9470
 1.6440	24.9710
 1.6450	24.9920
 1.6460	25.0110
 1.6470	25.0280
 1.6480	25.0430
 1.6490	25.0520
 1.6500	25.0590
 1.6510	25.0610
 1.6520	25.0610
 1.6530	25.0610
 1.6540	25.0590
 1.6550	25.0520
 1.6560	25.0440
 1.6570	25.0340
 1.6580	25.0220
 1.6590	25.0110
 1.6600	24.9990
 1.6610	24.9880
 1.6620	24.9780
 1.6630	24.9670
 1.6640	24.9550
 1.6650	24.9430
 1.6660	24.9310
 1.6670	24.9160
 1.6680	24.9000
 1.6690	24.8860
 1.6700	24.8700
 1.6710	24.8550
 1.6720	24.8390
 1.6730	24.8200
 1.6740	24.8000
 1.6750	24.7810
 1.6760	24.7600
 1.6770	24.7360
 1.6780	24.7120
 1.6790	24.6870
 1.6800	24.6600
 1.6810	24.6320
 1.6820	24.6030
 1.6830	24.5690
 1.6840	24.5320
 1.6850	24.4950
 1.6860	24.4540
 1.6870	24.4100
 1.6880	24.3660
 1.6890	24.3190
 1.6900	24.2690
 1.6910	24.2160
 1.6920	24.1620
 1.6930	24.1070
 1.6940	24.0500
 1.6950	23.9930
 1.6960	23.9330
 1.6970	23.8700
 1.6980	23.8080
 1.6990	23.7470
 1.7000	23.6850
 1.7010	23.6240
 1.7020	23.5610
 1.7030	23.4980
 1.7040	23.4340
 1.7050	23.3690
 1.7060	23.3030
 1.7070	23.2350
 1.7080	23.1690
 1.7090	23.1040
 1.7100	23.0380
 1.7110	22.9750
 1.7120	22.9100
 1.7130	22.8450
 1.7140	22.7790
 1.7150	22.7130
 1.7160	22.6510
 1.7170	22.5890
 1.7180	22.5300
 1.7190	22.4710
 1.7200	22.4110
 1.7210	22.3520
 1.7220	22.2920
 1.7230	22.2320
 1.7240	22.1740
 1.7250	22.1190
 1.7260	22.0650
 1.7270	22.0140
 1.7280	21.9640
 1.7290	21.9130
 1.7300	21.8650
 1.7310	21.8180
 1.7320	21.7710
 1.7330	21.7240
 1.7340	21.6760
 1.7350	21.6260
 1.7360	21.5740
 1.7370	21.5210
 1.7380	21.4650
 1.7390	21.4080
 1.7400	21.3510
 1.7410	21.2890
 1.7420	21.2240
 1.7430	21.1580
 1.7440	21.0870
 1.7450	21.0180
 1.7460	20.9480
 1.7470	20.8780
 1.7480	20.8070
 1.7490	20.7360
 1.7500	20.6640
 1.7510	20.5950
 1.7520	20.5250
 1.7530	20.4570
 1.7540	20.3900
 1.7550	20.3250
 1.7560	20.2610
 1.7570	20.1990
 1.7580	20.1390
 1.7590	20.0790
 1.7600	20.0210
 1.7610	19.9610
 1.7620	19.9060
 1.7630	19.8530
 1.7640	19.8020
 1.7650	19.7550
 1.7660	19.7060
 1.7670	19.6580
 1.7680	19.6110
 1.7690	19.5630
 1.7700	19.5200
 1.7710	19.4800
 1.7720	19.4420
 1.7730	19.4070
 1.7740	19.3710
 1.7750	19.3370
 1.7760	19.3020
 1.7770	19.2650
 1.7780	19.2330
 1.7790	19.2000
 1.7800	19.1720
 1.7810	19.1470
 1.7820	19.1230
 1.7830	19.1020
 1.7840	19.0800
 1.7850	19.0580
 1.7860	19.0400
 1.7870	19.0230
 1.7880	19.0090
 1.7890	18.9990
 1.7900	18.9870
 1.7910	18.9760
 1.7920	18.9660
 1.7930	18.9580
 1.7940	18.9520
 1.7950	18.9460
 1.7960	18.9440
 1.7970	18.9410
 1.7980	18.9390
 1.7990	18.9370
 1.8000	18.9360
 1.8010	18.9350
 1.8020	18.9340
 1.8030	18.9340
 1.8040	18.9370
 1.8050	18.9370
 1.8060	18.9370
 1.8070	18.9360
 1.8080	18.9310
 1.8090	18.9300
 1.8100	18.9300
 1.8110	18.9290
 1.8120	18.9320
 1.8130	18.9330
 1.8140	18.9300
 1.8150	18.9280
 1.8160	18.9260
 1.8170	18.9220
 1.8180	18.9220
 1.8190	18.9180
 1.8200	18.9130
 1.8210	18.9040
 1.8220	18.8960
 1.8230	18.8890
 1.8240	18.8790
 1.8250	18.8700
 1.8260	18.8570
 1.8270	18.8390
 1.8280	18.8220
 1.8290	18.8050
 1.8300	18.8890
 1.8310	19.1000
 1.8320	19.1750
 1.8330	19.1420
 1.8340	19.1020
 1.8350	19.0650
 1.8360	19.0210
 1.8370	18.9700
 1.8380	18.9190
 1.8390	18.8590
 1.8400	18.7920
 1.8410	18.7210
 1.8420	18.6460
 1.8430	18.5620
 1.8440	18.4720
 1.8450	18.3770
 1.8460	18.2750
 1.8470	18.1670
 1.8480	18.0480
 1.8490	17.9210
 1.8500	17.7840
 1.8510	17.6370
 1.8520	17.4770
 1.8530	17.3090
 1.8540	17.1340
 1.8550	16.9460
 1.8560	16.7500
 1.8570	16.5400
 1.8580	16.3160
 1.8590	16.0860
 1.8600	15.8450
 1.8610	15.5930
 1.8620	15.3330
 1.8630	15.0670
 1.8640	14.7860
 1.8650	14.4940
 1.8660	14.1960
 1.8670	13.8840
 1.8680	13.5650
 1.8690	13.2380
 1.8700	12.9020
 1.8710	12.5590
 1.8720	12.2110
 1.8730	11.8580
 1.8740	11.5040
 1.8750	11.1540
 1.8760	10.8040
 1.8770	10.4580
 1.8780	10.1210
 1.8790	 9.7890
 1.8800	 9.4700
 1.8810	 9.1610
 1.8820	 8.8620
 1.8830	 8.5700
 1.8840	 8.2900
 1.8850	 8.0200
 1.8860	 7.7630
 1.8870	 7.5210
 1.8880	 7.2900
 1.8890	 7.0740
 1.8900	 6.8730
 1.8910	 6.6850
 1.8920	 6.5090
 1.8930	 6.3480
 1.8940	 6.2010
 1.8950	 6.0650
 1.8960	 5.9420
 1.8970	 5.8300
 1.8980	 5.7280
 1.8990	 5.6330
 1.9000	 5.5480
 1.9010	 5.4740
 1.9020	 5.4050
 1.9030	 5.3450
 1.9040	 5.2930
 1.9050	 5.2450
 1.9060	 5.2000
 1.9070	 5.1600
 1.9080	 5.1270
 1.9090	 5.0950
 1.9100	 5.0670
 1.9110	 5.0430
 1.9120	 5.0260
 1.9130	 5.0080
 1.9140	 4.9920
 1.9150	 4.9790
 1.9160	 4.9630
 1.9170	 4.9500
 1.9180	 4.9410
 1.9190	 4.9330
 1.9200	 4.9280
 1.9210	 4.9250
 1.9220	 4.9210
 1.9230	 4.9170
 1.9240	 4.9160
 1.9250	 4.9160
 1.9260	 4.9170
 1.9270	 4.9210
 1.9280	 4.9240
 1.9290	 4.9260
 1.9300	 4.9280
 1.9310	 4.9320
 1.9320	 4.9400
 1.9330	 4.9470
 1.9340	 4.9570
 1.9350	 4.9670
 1.9360	 4.9760
 1.9370	 4.9850
 1.9380	 4.9950
 1.9390	 5.0040
 1.9400	 5.0130
 1.9410	 5.0220
 1.9420	 5.0340
 1.9430	 5.0470
 1.9440	 5.0600
 1.9450	 5.0740
 1.9460	 5.0890
 1.9470	 5.1050
 1.9480	 5.1200
 1.9490	 5.1360
 1.9500	 5.1520
 1.9510	 5.1690
 1.9520	 5.1860
 1.9530	 5.2040
 1.9540	 5.2240
 1.9550	 5.2420
 1.9560	 5.2610
 1.9570	 5.2790
 1.9580	 5.2950
 1.9590	 5.3140
 1.9600	 5.3330
 1.9610	 5.3530
 1.9620	 5.3750
 1.9630	 5.3970
 1.9640	 5.4190
 1.9650	 5.4390
 1.9660	 5.4620
 1.9670	 5.4850
 1.9680	 5.5090
 1.9690	 5.5350
 1.9700	 5.5600
 1.9710	 5.5840
 1.9720	 5.6090
 1.9730	 5.6360
 1.9740	 5.6610
 1.9750	 5.6880
 1.9760	 5.7160
 1.9770	 5.7430
 1.9780	 5.7700
 1.9790	 5.7980
 1.9800	 5.8270
 1.9810	 5.8560
 1.9820	 5.8860
 1.9830	 5.9160
 1.9840	 5.9440
 1.9850	 5.9730
 1.9860	 6.0020
 1.9870	 6.0330
 1.9880	 6.0650
 1.9890	 6.0980
 1.9900	 6.1320
 1.9910	 6.1640
 1.9920	 6.1950
 1.9930	 6.2250
 1.9940	 6.2570
 1.9950	 6.2880
 1.9960	 6.3190
 1.9970	 6.3510
 1.9980	 6.3840
 1.9990	 6.4160
 2.0000	 6.4510
 2.0010	 6.4860
 2.0020	 6.5200
 2.0030	 6.5540
 2.0040	 6.5870
 2.0050	 6.6210
 2.0060	 6.6540
 2.0070	 6.6890
 2.0080	 6.7250
 2.0090	 6.7600
 2.0100	 6.7970
 2.0110	 6.8320
 2.0120	 6.8650
 2.0130	 6.8980
 2.0140	 6.9280
 2.0150	 6.9570
 2.0160	 6.9890
 2.0170	 7.0210
 2.0180	 7.0540
 2.0190	 7.0900
 2.0200	 7.1240
 2.0210	 7.1590
 2.0220	 7.1920
 2.0230	 7.2220
 2.0240	 7.2520
 2.0250	 7.2800
 2.0260	 7.3090
 2.0270	 7.3410
 2.0280	 7.3710
 2.0290	 7.3970
 2.0300	 7.4240
 2.0310	 7.4510
 2.0320	 7.4750
 2.0330	 7.5010
 2.0340	 7.5280
 2.0350	 7.5540
 2.0360	 7.5790
 2.0370	 7.6040
 2.0380	 7.6310
 2.0390	 7.6570
 2.0400	 7.6800
 2.0410	 7.7040
 2.0420	 7.7290
 2.0430	 7.7530
 2.0440	 7.7770
 2.0450	 7.8030
 2.0460	 7.8250
 2.0470	 7.8450
 2.0480	 7.8660
 2.0490	 7.8830
 2.0500	 7.9040
 2.0510	 7.9260
 2.0520	 7.9480
 2.0530	 7.9710
 2.0540	 7.9930
 2.0550	 8.0170
 2.0560	 8.0390
 2.0570	 8.0600
 2.0580	 8.0800
 2.0590	 8.1010
 2.0600	 8.1210
 2.0610	 8.1430
 2.0620	 8.1670
 2.0630	 8.1890
 2.0640	 8.2100
 2.0650	 8.2320
 2.0660	 8.2550
 2.0670	 8.2770
 2.0680	 8.3010
 2.0690	 8.3230
 2.0700	 8.3430
 2.0710	 8.3640
 2.0720	 8.3820
 2.0730	 8.4030
 2.0740	 8.4260
 2.0750	 8.4510
 2.0760	 8.4740
 2.0770	 8.5010
 2.0780	 8.5230
 2.0790	 8.5420
 2.0800	 8.5630
 2.0810	 8.5850
 2.0820	 8.6060
 2.0830	 8.6280
 2.0840	 8.6500
 2.0850	 8.6720
 2.0860	 8.6940
 2.0870	 8.7160
 2.0880	 8.7400
 2.0890	 8.7630
 2.0900	 8.7870
 2.0910	 8.8100
 2.0920	 8.8350
 2.0930	 8.8580
 2.0940	 8.8770
 2.0950	 8.9000
 2.0960	 8.9250
 2.0970	 8.9480
 2.0980	 8.9710
 2.0990	 8.9930
 2.1000	 9.0130
 2.1010	 9.0350
 2.1020	 9.0600
 2.1030	 9.0830
 2.1040	 9.1040
 2.1050	 9.1280
 2.1060	 9.1500
 2.1070	 9.1720
 2.1080	 9.1950
 2.1090	 9.2200
 2.1100	 9.2440
 2.1110	 9.2690
 2.1120	 9.2930
 2.1130	 9.3150
 2.1140	 9.3390
 2.1150	 9.3630
 2.1160	 9.3870
 2.1170	 9.4130
 2.1180	 9.4350
 2.1190	 9.4530
 2.1200	 9.4740
 2.1210	 9.4970
 2.1220	 9.5180
 2.1230	 9.5390
 2.1240	 9.5630
 2.1250	 9.5830
 2.1260	 9.6010
 2.1270	 9.6210
 2.1280	 9.6410
 2.1290	 9.6610
 2.1300	 9.6830
 2.1310	 9.7030
 2.1320	 9.7230
 2.1330	 9.7440
 2.1340	 9.7650
 2.1350	 9.7870
 2.1360	 9.8090
 2.1370	 9.8300
 2.1380	 9.8500
 2.1390	 9.8710
 2.1400	 9.8930
 2.1410	 9.9150
 2.1420	 9.9340
 2.1430	 9.9520
 2.1440	 9.9730
 2.1450	 9.9920
 2.1460	10.0140
 2.1470	10.0400
 2.1480	10.0600
 2.1490	10.0770
 2.1500	10.0960
 2.1510	10.1130
 2.1520	10.1320
 2.1530	10.1530
 2.1540	10.1730
 2.1550	10.1930
 2.1560	10.2110
 2.1570	10.2280
 2.1580	10.2460
 2.1590	10.2610
 2.1600	10.2780
 2.1610	10.3000
 2.1620	10.3170
 2.1630	10.3340
 2.1640	10.3510
 2.1650	10.3690
 2.1660	10.3850
 2.1670	10.4010
 2.1680	10.4180
 2.1690	10.4350
 2.1700	10.4500
 2.1710	10.4670
 2.1720	10.4830
 2.1730	10.5010
 2.1740	10.5210
 2.1750	10.5390
 2.1760	10.5570
 2.1770	10.5740
 2.1780	10.5870
 2.1790	10.6020
 2.1800	10.6210
 2.1810	10.6370
 2.1820	10.6530
 2.1830	10.6690
 2.1840	10.6850
 2.1850	10.7000
 2.1860	10.7150
 2.1870	10.7320
 2.1880	10.7460
 2.1890	10.7570
 2.1900	10.7740
 2.1910	10.7950
 2.1920	10.8110
 2.1930	10.8300
 2.1940	10.8450
 2.1950	10.8530
 2.1960	10.8660
 2.1970	10.8820
 2.1980	10.8940
 2.1990	10.9030
 2.2000	10.9150
 2.2010	10.9240
 2.2020	10.9360
 2.2030	10.9570
 2.2040	10.9700
 2.2050	10.9790
 2.2060	10.9870
 2.2070	10.9920
 2.2080	10.9900
 2.2090	10.9950
 2.2100	11.0010
 2.2110	11.0050
 2.2120	11.0100
 2.2130	11.0120
 2.2140	11.0090
 2.2150	11.0100
 2.2160	11.0110
 2.2170	11.0110
 2.2180	11.0120
 2.2190	11.0090
 2.2200	11.0000
 2.2210	10.9950
 2.2220	10.9910
 2.2230	10.9820
 2.2240	10.9720
 2.2250	10.9610
 2.2260	10.9450
 2.2270	10.9290
 2.2280	10.9140
 2.2290	10.8970
 2.2300	10.8760
 2.2310	10.8540
 2.2320	10.8320
 2.2330	10.8100
 2.2340	10.7860
 2.2350	10.7590
 2.2360	10.7320
 2.2370	10.7040
 2.2380	10.6730
 2.2390	10.6390
 2.2400	10.6040
 2.2410	10.5640
 2.2420	10.5260
 2.2430	10.4890
 2.2440	10.4510
 2.2450	10.4100
 2.2460	10.3700
 2.2470	10.3310
 2.2480	10.2900
 2.2490	10.2490
 2.2500	10.2050
 2.2510	10.1570
 2.2520	10.1110
 2.2530	10.0630
 2.2540	10.0150
 2.2550	 9.9670
 2.2560	 9.9190
 2.2570	 9.8700
 2.2580	 9.8220
 2.2590	 9.7770
 2.2600	 9.7290
 2.2610	 9.6790
 2.2620	 9.6310
 2.2630	 9.5780
 2.2640	 9.5260
 2.2650	 9.4810
 2.2660	 9.4330
 2.2670	 9.3900
 2.2680	 9.3530
 2.2690	 9.3140
 2.2700	 9.2740
 2.2710	 9.2370
 2.2720	 9.1990
 2.2730	 9.1650
 2.2740	 9.1360
 2.2750	 9.1070
 2.2760	 9.0840
 2.2770	 9.0570
 2.2780	 9.0290
 2.2790	 9.0030
 2.2800	 8.9760
 2.2810	 8.9500
 2.2820	 8.9290
 2.2830	 8.9050
 2.2840	 8.8830
 2.2850	 8.8560
 2.2860	 8.8250
 2.2870	 8.7960
 2.2880	 8.7630
 2.2890	 8.7330
 2.2900	 8.7070
 2.2910	 8.6760
 2.2920	 8.6410
 2.2930	 8.6080
 2.2940	 8.5740
 2.2950	 8.5390
 2.2960	 8.5020
 2.2970	 8.4680
 2.2980	 8.4320
 2.2990	 8.3970
 2.3000	 8.3650
 2.3010	 8.3320
 2.3020	 8.2990
 2.3030	 8.2670
 2.3040	 8.2410
 2.3050	 8.2180
 2.3060	 8.1960
 2.3070	 8.1790
 2.3080	 8.1630
 2.3090	 8.1480
 2.3100	 8.1400
 2.3110	 8.1310
 2.3120	 8.1210
 2.3130	 8.1120
 2.3140	 8.1050
 2.3150	 8.1000
 2.3160	 8.0910
 2.3170	 8.0830
 2.3180	 8.0710
 2.3190	 8.0500
 2.3200	 8.0380
 2.3210	 8.0340
 2.3220	 8.0230
 2.3230	 8.0150
 2.3240	 8.0000
 2.3250	 7.9780
 2.3260	 7.9560
 2.3270	 7.9300
 2.3280	 7.9080
 2.3290	 7.8860
 2.3300	 7.8620
 2.3310	 7.8400
 2.3320	 7.8140
 2.3330	 7.7830
 2.3340	 7.7570
 2.3350	 7.7330
 2.3360	 7.7100
 2.3370	 7.6910
 2.3380	 7.6670
 2.3390	 7.6400
 2.3400	 7.6110
 2.3410	 7.5740
 2.3420	 7.5430
 2.3430	 7.5110
 2.3440	 7.4870
 2.3450	 7.4780
 2.3460	 7.4610
 2.3470	 7.4460
 2.3480	 7.4300
 2.3490	 7.4090
 2.3500	 7.3870
 2.3510	 7.3640
 2.3520	 7.3460
 2.3530	 7.3280
 2.3540	 7.3090
 2.3550	 7.2970
 2.3560	 7.2960
 2.3570	 7.2870
 2.3580	 7.2810
 2.3590	 7.2730
 2.3600	 7.2540
 2.3610	 7.2370
 2.3620	 7.2190
 2.3630	 7.2000
 2.3640	 7.1820
 2.3650	 7.1610
 2.3660	 7.1400
 2.3670	 7.1180
 2.3680	 7.1050
 2.3690	 7.0920
 2.3700	 7.0760
 2.3710	 7.0670
 2.3720	 7.0440
 2.3730	 7.0170
 2.3740	 6.9980
 2.3750	 6.9720
 2.3760	 6.9490
 2.3770	 6.9360
 2.3780	 6.9170
 2.3790	 6.8950
 2.3800	 6.8790
 2.3810	 6.8610
 2.3820	 6.8450
 2.3830	 6.8370
 2.3840	 6.8180
 2.3850	 6.7940
 2.3860	 6.7790
 2.3870	 6.7610
 2.3880	 6.7430
 2.3890	 6.7390
 2.3900	 6.7350
 2.3910	 6.7200
 2.3920	 6.6990
 2.3930	 6.6680
 2.3940	 6.6280
 2.3950	 6.6030
 2.3960	 6.5870
 2.3970	 6.5720
 2.3980	 6.5650
 2.3990	 6.5460
 2.4000	 6.5210
 2.4010	 6.5020
 2.4020	 6.4800
 2.4030	 6.4690
 2.4040	 6.4620
 2.4050	 6.4540
 2.4060	 6.4400
 2.4070	 6.4140
 2.4080	 6.3900
 2.4090	 6.3720
 2.4100	 6.3590
 2.4110	 6.3480
 2.4120	 6.3360
 2.4130	 6.3120
 2.4140	 6.2730
 2.4150	 6.2520
 2.4160	 6.2300
 2.4170	 6.2040
 2.4180	 6.1960
 2.4190	 6.1730
 2.4200	 6.1470
 2.4210	 6.1250
 2.4220	 6.0990
 2.4230	 6.0800
 2.4240	 6.0640
 2.4250	 6.0520
 2.4260	 6.0390
 2.4270	 6.0210
 2.4280	 5.9980
 2.4290	 5.9820
 2.4300	 5.9660
 2.4310	 5.9370
 2.4320	 5.9120
 2.4330	 5.8920
 2.4340	 5.8750
 2.4350	 5.8550
 2.4360	 5.8460
 2.4370	 5.8350
 2.4380	 5.8090
 2.4390	 5.7870
 2.4400	 5.7700
 2.4410	 5.7590
 2.4420	 5.7440
 2.4430	 5.7400
 2.4440	 5.7260
 2.4450	 5.6890
 2.4460	 5.6600
 2.4470	 5.6150
 2.4480	 5.5850
 2.4490	 5.5640
 2.4500	 5.5400
 2.4510	 5.5530
 2.4520	 5.5550
 2.4530	 5.5510
 2.4540	 5.5520
 2.4550	 5.5280
 2.4560	 5.5060
 2.4570	 5.4930
 2.4580	 5.4690
 2.4590	 5.4490
 2.4600	 5.4360
 2.4610	 5.4100
 2.4620	 5.3890
 2.4630	 5.3910
 2.4640	 5.3670
 2.4650	 5.3430
 2.4660	 5.3490
 2.4670	 5.3250
 2.4680	 5.3090
 2.4690	 5.2980
 2.4700	 5.2720
 2.4710	 5.2390
 2.4720	 5.2280
 2.4730	 5.2140
 2.4740	 5.2120
 2.4750	 5.2490
 2.4760	 5.2430
 2.4770	 5.2170
 2.4780	 5.2010
 2.4790	 5.1580
 2.4800	 5.1340
 2.4810	 5.1370
 2.4820	 5.1390
 2.4830	 5.1150
 2.4840	 5.1420
 2.4850	 5.1310
 2.4860	 5.1200
 2.4870	 5.1470
 2.4880	 5.1330
 2.4890	 5.1100
 2.4900	 5.0850
 2.4910	 5.0520
 2.4920	 5.0550
 2.4930	 5.0870
 2.4940	 5.1400
 2.4950	 5.1830
 2.4960	 5.1890
 2.4970	 5.1610
 2.4980	 5.0930
 2.4990	 5.0110
 2.5000	 4.9620
