Name: Heteromeles arbutifolia 2
Type: vegetation
Class: Shrub
Genus: Heteromeles
Species: arbutifolia
Sample No.: VH016
Owner: UCSB
Wavelength Range: VSWIR
Origin: 34.4907; -119.7912; WGS84
Collection Date: 4/1/2013
Description: Samples were collected as part of the HyspIRI Airborne Campaign. 48 individual plants were sampled in three times in 2013 - spring  summer  and fall. The name of the sample includes a 1  2  or 3 which references a different individual of the species. Samples were taken to JPL and processed within 48 hours of collection. The same leaves were processed in the Nicolet and then measured using the ASD.
Measurement: Bidirectional reflectance
First Column: X
Second Column: Y
X Units: Wavelength (micrometers)
Y Units: Reflectance (percentage)
First X Value: 0.35
Last X Value: 2.5
Number of X Values: 2151
Additional Information: vegetation.shrub.heteromeles.arbutifolia.vswir.vh016.ucsb.asd.ancillary.txt

 0.3500	 6.0500
 0.3510	 5.9540
 0.3520	 5.8180
 0.3530	 5.8500
 0.3540	 6.0650
 0.3550	 5.8830
 0.3560	 5.6730
 0.3570	 5.6490
 0.3580	 5.8550
 0.3590	 5.7170
 0.3600	 5.6090
 0.3610	 5.6880
 0.3620	 5.6730
 0.3630	 5.7570
 0.3640	 5.8670
 0.3650	 5.8920
 0.3660	 5.8200
 0.3670	 5.7720
 0.3680	 5.7480
 0.3690	 5.6730
 0.3700	 5.6350
 0.3710	 5.6420
 0.3720	 5.6660
 0.3730	 5.6390
 0.3740	 5.6330
 0.3750	 5.6150
 0.3760	 5.5560
 0.3770	 5.5950
 0.3780	 5.6680
 0.3790	 5.6910
 0.3800	 5.5910
 0.3810	 5.5350
 0.3820	 5.5730
 0.3830	 5.6600
 0.3840	 5.6060
 0.3850	 5.5690
 0.3860	 5.5540
 0.3870	 5.5300
 0.3880	 5.5910
 0.3890	 5.6470
 0.3900	 5.6410
 0.3910	 5.5710
 0.3920	 5.5780
 0.3930	 5.5790
 0.3940	 5.5160
 0.3950	 5.5340
 0.3960	 5.5430
 0.3970	 5.5460
 0.3980	 5.5780
 0.3990	 5.6140
 0.4000	 5.6040
 0.4010	 5.5580
 0.4020	 5.5670
 0.4030	 5.5560
 0.4040	 5.5460
 0.4050	 5.5590
 0.4060	 5.5470
 0.4070	 5.5560
 0.4080	 5.5850
 0.4090	 5.6060
 0.4100	 5.6080
 0.4110	 5.6200
 0.4120	 5.6470
 0.4130	 5.6400
 0.4140	 5.6480
 0.4150	 5.6550
 0.4160	 5.6400
 0.4170	 5.6540
 0.4180	 5.6630
 0.4190	 5.6580
 0.4200	 5.6560
 0.4210	 5.6510
 0.4220	 5.6660
 0.4230	 5.7050
 0.4240	 5.7090
 0.4250	 5.7090
 0.4260	 5.7130
 0.4270	 5.7140
 0.4280	 5.7070
 0.4290	 5.7070
 0.4300	 5.7150
 0.4310	 5.7200
 0.4320	 5.7110
 0.4330	 5.6990
 0.4340	 5.6950
 0.4350	 5.6970
 0.4360	 5.7060
 0.4370	 5.7190
 0.4380	 5.7310
 0.4390	 5.7340
 0.4400	 5.7290
 0.4410	 5.7230
 0.4420	 5.7240
 0.4430	 5.7310
 0.4440	 5.7430
 0.4450	 5.7560
 0.4460	 5.7490
 0.4470	 5.7550
 0.4480	 5.7710
 0.4490	 5.7500
 0.4500	 5.7470
 0.4510	 5.7580
 0.4520	 5.7670
 0.4530	 5.7710
 0.4540	 5.7690
 0.4550	 5.7630
 0.4560	 5.7590
 0.4570	 5.7660
 0.4580	 5.7700
 0.4590	 5.7650
 0.4600	 5.7640
 0.4610	 5.7620
 0.4620	 5.7600
 0.4630	 5.7590
 0.4640	 5.7580
 0.4650	 5.7580
 0.4660	 5.7570
 0.4670	 5.7470
 0.4680	 5.7530
 0.4690	 5.7570
 0.4700	 5.7460
 0.4710	 5.7440
 0.4720	 5.7380
 0.4730	 5.7280
 0.4740	 5.7240
 0.4750	 5.7370
 0.4760	 5.7350
 0.4770	 5.7150
 0.4780	 5.7220
 0.4790	 5.7280
 0.4800	 5.7300
 0.4810	 5.7320
 0.4820	 5.7390
 0.4830	 5.7360
 0.4840	 5.7280
 0.4850	 5.7350
 0.4860	 5.7290
 0.4870	 5.7270
 0.4880	 5.7390
 0.4890	 5.7430
 0.4900	 5.7510
 0.4910	 5.7590
 0.4920	 5.7600
 0.4930	 5.7600
 0.4940	 5.7700
 0.4950	 5.7860
 0.4960	 5.7870
 0.4970	 5.8000
 0.4980	 5.8190
 0.4990	 5.8330
 0.5000	 5.8530
 0.5010	 5.8720
 0.5020	 5.8910
 0.5030	 5.9140
 0.5040	 5.9420
 0.5050	 5.9780
 0.5060	 6.0190
 0.5070	 6.0590
 0.5080	 6.1110
 0.5090	 6.1660
 0.5100	 6.2150
 0.5110	 6.2840
 0.5120	 6.3640
 0.5130	 6.4460
 0.5140	 6.5250
 0.5150	 6.6270
 0.5160	 6.7410
 0.5170	 6.8520
 0.5180	 6.9800
 0.5190	 7.1150
 0.5200	 7.2560
 0.5210	 7.4030
 0.5220	 7.5580
 0.5230	 7.7130
 0.5240	 7.8660
 0.5250	 8.0230
 0.5260	 8.1730
 0.5270	 8.3130
 0.5280	 8.4460
 0.5290	 8.5770
 0.5300	 8.7010
 0.5310	 8.8140
 0.5320	 8.9130
 0.5330	 9.0060
 0.5340	 9.0930
 0.5350	 9.1720
 0.5360	 9.2380
 0.5370	 9.2970
 0.5380	 9.3500
 0.5390	 9.3960
 0.5400	 9.4410
 0.5410	 9.4820
 0.5420	 9.5170
 0.5430	 9.5520
 0.5440	 9.5900
 0.5450	 9.6240
 0.5460	 9.6500
 0.5470	 9.6800
 0.5480	 9.7090
 0.5490	 9.7330
 0.5500	 9.7480
 0.5510	 9.7620
 0.5520	 9.7670
 0.5530	 9.7570
 0.5540	 9.7450
 0.5550	 9.7240
 0.5560	 9.6930
 0.5570	 9.6500
 0.5580	 9.5920
 0.5590	 9.5220
 0.5600	 9.4440
 0.5610	 9.3660
 0.5620	 9.2800
 0.5630	 9.1850
 0.5640	 9.0850
 0.5650	 8.9780
 0.5660	 8.8700
 0.5670	 8.7610
 0.5680	 8.6450
 0.5690	 8.5280
 0.5700	 8.4140
 0.5710	 8.3040
 0.5720	 8.1990
 0.5730	 8.1000
 0.5740	 8.0090
 0.5750	 7.9290
 0.5760	 7.8620
 0.5770	 7.8010
 0.5780	 7.7390
 0.5790	 7.6790
 0.5800	 7.6190
 0.5810	 7.5610
 0.5820	 7.5080
 0.5830	 7.4590
 0.5840	 7.4130
 0.5850	 7.3670
 0.5860	 7.3190
 0.5870	 7.2700
 0.5880	 7.2230
 0.5890	 7.1840
 0.5900	 7.1540
 0.5910	 7.1370
 0.5920	 7.1260
 0.5930	 7.1100
 0.5940	 7.0920
 0.5950	 7.0710
 0.5960	 7.0480
 0.5970	 7.0360
 0.5980	 7.0160
 0.5990	 6.9930
 0.6000	 6.9760
 0.6010	 6.9570
 0.6020	 6.9320
 0.6030	 6.9040
 0.6040	 6.8790
 0.6050	 6.8530
 0.6060	 6.8220
 0.6070	 6.7850
 0.6080	 6.7480
 0.6090	 6.7100
 0.6100	 6.6710
 0.6110	 6.6310
 0.6120	 6.5930
 0.6130	 6.5560
 0.6140	 6.5200
 0.6150	 6.4830
 0.6160	 6.4470
 0.6170	 6.4150
 0.6180	 6.3890
 0.6190	 6.3630
 0.6200	 6.3410
 0.6210	 6.3200
 0.6220	 6.2980
 0.6230	 6.2820
 0.6240	 6.2720
 0.6250	 6.2650
 0.6260	 6.2480
 0.6270	 6.2380
 0.6280	 6.2340
 0.6290	 6.2300
 0.6300	 6.2200
 0.6310	 6.2130
 0.6320	 6.2100
 0.6330	 6.1980
 0.6340	 6.1870
 0.6350	 6.1730
 0.6360	 6.1510
 0.6370	 6.1280
 0.6380	 6.1010
 0.6390	 6.0730
 0.6400	 6.0480
 0.6410	 6.0120
 0.6420	 5.9760
 0.6430	 5.9450
 0.6440	 5.9110
 0.6450	 5.8790
 0.6460	 5.8490
 0.6470	 5.8230
 0.6480	 5.8010
 0.6490	 5.7820
 0.6500	 5.7650
 0.6510	 5.7480
 0.6520	 5.7360
 0.6530	 5.7260
 0.6540	 5.7160
 0.6550	 5.7040
 0.6560	 5.6940
 0.6570	 5.6820
 0.6580	 5.6690
 0.6590	 5.6540
 0.6600	 5.6380
 0.6610	 5.6240
 0.6620	 5.6100
 0.6630	 5.5970
 0.6640	 5.5870
 0.6650	 5.5790
 0.6660	 5.5730
 0.6670	 5.5730
 0.6680	 5.5760
 0.6690	 5.5740
 0.6700	 5.5770
 0.6710	 5.5860
 0.6720	 5.5970
 0.6730	 5.6050
 0.6740	 5.6150
 0.6750	 5.6290
 0.6760	 5.6460
 0.6770	 5.6630
 0.6780	 5.6830
 0.6790	 5.7050
 0.6800	 5.7310
 0.6810	 5.7550
 0.6820	 5.7790
 0.6830	 5.8090
 0.6840	 5.8430
 0.6850	 5.8780
 0.6860	 5.9170
 0.6870	 5.9640
 0.6880	 6.0220
 0.6890	 6.0950
 0.6900	 6.1870
 0.6910	 6.3060
 0.6920	 6.4590
 0.6930	 6.6540
 0.6940	 6.8970
 0.6950	 7.1970
 0.6960	 7.5510
 0.6970	 7.9660
 0.6980	 8.4480
 0.6990	 8.9920
 0.7000	 9.5950
 0.7010	10.2530
 0.7020	10.9600
 0.7030	11.7100
 0.7040	12.4960
 0.7050	13.3120
 0.7060	14.1520
 0.7070	15.0100
 0.7080	15.8850
 0.7090	16.7760
 0.7100	17.6770
 0.7110	18.5880
 0.7120	19.5060
 0.7130	20.4230
 0.7140	21.3440
 0.7150	22.2700
 0.7160	23.1970
 0.7170	24.1100
 0.7180	25.0220
 0.7190	25.9270
 0.7200	26.8130
 0.7210	27.6930
 0.7220	28.5580
 0.7230	29.4020
 0.7240	30.2280
 0.7250	31.0230
 0.7260	31.7930
 0.7270	32.5390
 0.7280	33.2530
 0.7290	33.9420
 0.7300	34.6010
 0.7310	35.2260
 0.7320	35.8240
 0.7330	36.3910
 0.7340	36.9250
 0.7350	37.4300
 0.7360	37.9130
 0.7370	38.3660
 0.7380	38.7850
 0.7390	39.1880
 0.7400	39.5650
 0.7410	39.9150
 0.7420	40.2410
 0.7430	40.5420
 0.7440	40.8250
 0.7450	41.0910
 0.7460	41.3430
 0.7470	41.5600
 0.7480	41.7590
 0.7490	41.9520
 0.7500	42.1200
 0.7510	42.2720
 0.7520	42.4150
 0.7530	42.5520
 0.7540	42.6780
 0.7550	42.7860
 0.7560	42.8800
 0.7570	42.9710
 0.7580	43.0530
 0.7590	43.1240
 0.7600	43.1890
 0.7610	43.2510
 0.7620	43.3060
 0.7630	43.3530
 0.7640	43.3960
 0.7650	43.4380
 0.7660	43.4740
 0.7670	43.5040
 0.7680	43.5350
 0.7690	43.5650
 0.7700	43.5890
 0.7710	43.6070
 0.7720	43.6290
 0.7730	43.6520
 0.7740	43.6690
 0.7750	43.6800
 0.7760	43.6990
 0.7770	43.7150
 0.7780	43.7270
 0.7790	43.7370
 0.7800	43.7490
 0.7810	43.7620
 0.7820	43.7770
 0.7830	43.7890
 0.7840	43.7990
 0.7850	43.8100
 0.7860	43.8240
 0.7870	43.8390
 0.7880	43.8470
 0.7890	43.8520
 0.7900	43.8600
 0.7910	43.8670
 0.7920	43.8730
 0.7930	43.8810
 0.7940	43.8940
 0.7950	43.8950
 0.7960	43.8970
 0.7970	43.9030
 0.7980	43.9070
 0.7990	43.9140
 0.8000	43.9210
 0.8010	43.9230
 0.8020	43.9220
 0.8030	43.9250
 0.8040	43.9300
 0.8050	43.9340
 0.8060	43.9320
 0.8070	43.9310
 0.8080	43.9300
 0.8090	43.9230
 0.8100	43.9240
 0.8110	43.9290
 0.8120	43.9310
 0.8130	43.9250
 0.8140	43.9250
 0.8150	43.9250
 0.8160	43.9210
 0.8170	43.9150
 0.8180	43.9120
 0.8190	43.9120
 0.8200	43.9130
 0.8210	43.9070
 0.8220	43.9010
 0.8230	43.9010
 0.8240	43.9040
 0.8250	43.9020
 0.8260	43.8920
 0.8270	43.8810
 0.8280	43.8860
 0.8290	43.8830
 0.8300	43.8770
 0.8310	43.8740
 0.8320	43.8740
 0.8330	43.8710
 0.8340	43.8630
 0.8350	43.8570
 0.8360	43.8600
 0.8370	43.8630
 0.8380	43.8630
 0.8390	43.8640
 0.8400	43.8550
 0.8410	43.8520
 0.8420	43.8600
 0.8430	43.8700
 0.8440	43.8730
 0.8450	43.8720
 0.8460	43.8750
 0.8470	43.8770
 0.8480	43.8820
 0.8490	43.8880
 0.8500	43.8950
 0.8510	43.8990
 0.8520	43.9020
 0.8530	43.9030
 0.8540	43.9020
 0.8550	43.9080
 0.8560	43.9160
 0.8570	43.9210
 0.8580	43.9230
 0.8590	43.9290
 0.8600	43.9360
 0.8610	43.9430
 0.8620	43.9470
 0.8630	43.9460
 0.8640	43.9460
 0.8650	43.9530
 0.8660	43.9600
 0.8670	43.9630
 0.8680	43.9640
 0.8690	43.9700
 0.8700	43.9690
 0.8710	43.9850
 0.8720	44.0030
 0.8730	43.9970
 0.8740	43.9990
 0.8750	44.0110
 0.8760	44.0230
 0.8770	44.0210
 0.8780	44.0200
 0.8790	44.0210
 0.8800	44.0270
 0.8810	44.0400
 0.8820	44.0470
 0.8830	44.0530
 0.8840	44.0610
 0.8850	44.0600
 0.8860	44.0640
 0.8870	44.0750
 0.8880	44.0870
 0.8890	44.0780
 0.8900	44.0800
 0.8910	44.0880
 0.8920	44.0880
 0.8930	44.1020
 0.8940	44.1010
 0.8950	44.0920
 0.8960	44.1000
 0.8970	44.1090
 0.8980	44.1110
 0.8990	44.1100
 0.9000	44.1190
 0.9010	44.1200
 0.9020	44.1150
 0.9030	44.1120
 0.9040	44.1200
 0.9050	44.1300
 0.9060	44.1360
 0.9070	44.1370
 0.9080	44.1440
 0.9090	44.1470
 0.9100	44.1480
 0.9110	44.1490
 0.9120	44.1440
 0.9130	44.1420
 0.9140	44.1480
 0.9150	44.1580
 0.9160	44.1510
 0.9170	44.1360
 0.9180	44.1310
 0.9190	44.1460
 0.9200	44.1370
 0.9210	44.1330
 0.9220	44.1360
 0.9230	44.1310
 0.9240	44.1310
 0.9250	44.1290
 0.9260	44.1220
 0.9270	44.1120
 0.9280	44.1000
 0.9290	44.0910
 0.9300	44.0810
 0.9310	44.0620
 0.9320	44.0490
 0.9330	44.0350
 0.9340	44.0170
 0.9350	43.9980
 0.9360	43.9870
 0.9370	43.9730
 0.9380	43.9500
 0.9390	43.9300
 0.9400	43.9040
 0.9410	43.8840
 0.9420	43.8700
 0.9430	43.8300
 0.9440	43.7990
 0.9450	43.7700
 0.9460	43.7340
 0.9470	43.6980
 0.9480	43.6580
 0.9490	43.6230
 0.9500	43.5930
 0.9510	43.5330
 0.9520	43.4690
 0.9530	43.4110
 0.9540	43.3640
 0.9550	43.3050
 0.9560	43.2600
 0.9570	43.2140
 0.9580	43.1580
 0.9590	43.1240
 0.9600	43.0850
 0.9610	43.0410
 0.9620	43.0000
 0.9630	42.9620
 0.9640	42.9380
 0.9650	42.9230
 0.9660	42.9030
 0.9670	42.8740
 0.9680	42.8600
 0.9690	42.8500
 0.9700	42.8250
 0.9710	42.8350
 0.9720	42.8200
 0.9730	42.7970
 0.9740	42.8020
 0.9750	42.7910
 0.9760	42.7810
 0.9770	42.7800
 0.9780	42.7850
 0.9790	42.7800
 0.9800	42.7830
 0.9810	42.7980
 0.9820	42.8140
 0.9830	42.8190
 0.9840	42.8150
 0.9850	42.8170
 0.9860	42.8380
 0.9870	42.8470
 0.9880	42.8670
 0.9890	42.8890
 0.9900	42.8940
 0.9910	42.9010
 0.9920	42.9360
 0.9930	42.9720
 0.9940	43.0080
 0.9950	43.0430
 0.9960	43.0790
 0.9970	43.1150
 0.9980	43.1500
 0.9990	43.1860
 1.0000	43.2220
 1.0010	43.2570
 1.0020	43.2930
 1.0030	43.3290
 1.0040	43.3640
 1.0050	43.4000
 1.0060	43.4360
 1.0070	43.4710
 1.0080	43.5070
 1.0090	43.5430
 1.0100	43.5430
 1.0110	43.5570
 1.0120	43.5740
 1.0130	43.5880
 1.0140	43.6060
 1.0150	43.6270
 1.0160	43.6490
 1.0170	43.6700
 1.0180	43.6880
 1.0190	43.7050
 1.0200	43.7200
 1.0210	43.7360
 1.0220	43.7530
 1.0230	43.7690
 1.0240	43.7840
 1.0250	43.7990
 1.0260	43.8120
 1.0270	43.8260
 1.0280	43.8440
 1.0290	43.8560
 1.0300	43.8660
 1.0310	43.8780
 1.0320	43.8900
 1.0330	43.9000
 1.0340	43.9180
 1.0350	43.9370
 1.0360	43.9520
 1.0370	43.9630
 1.0380	43.9740
 1.0390	43.9810
 1.0400	43.9900
 1.0410	44.0010
 1.0420	44.0120
 1.0430	44.0220
 1.0440	44.0310
 1.0450	44.0390
 1.0460	44.0470
 1.0470	44.0530
 1.0480	44.0610
 1.0490	44.0710
 1.0500	44.0790
 1.0510	44.0880
 1.0520	44.0930
 1.0530	44.1020
 1.0540	44.1090
 1.0550	44.1170
 1.0560	44.1270
 1.0570	44.1350
 1.0580	44.1440
 1.0590	44.1490
 1.0600	44.1510
 1.0610	44.1520
 1.0620	44.1460
 1.0630	44.1480
 1.0640	44.1570
 1.0650	44.1610
 1.0660	44.1650
 1.0670	44.1700
 1.0680	44.1740
 1.0690	44.1760
 1.0700	44.1780
 1.0710	44.1850
 1.0720	44.1860
 1.0730	44.1800
 1.0740	44.1790
 1.0750	44.1770
 1.0760	44.1760
 1.0770	44.1780
 1.0780	44.1770
 1.0790	44.1720
 1.0800	44.1720
 1.0810	44.1770
 1.0820	44.1760
 1.0830	44.1750
 1.0840	44.1720
 1.0850	44.1670
 1.0860	44.1580
 1.0870	44.1520
 1.0880	44.1460
 1.0890	44.1410
 1.0900	44.1360
 1.0910	44.1290
 1.0920	44.1220
 1.0930	44.1120
 1.0940	44.0970
 1.0950	44.0860
 1.0960	44.0780
 1.0970	44.0670
 1.0980	44.0580
 1.0990	44.0480
 1.1000	44.0360
 1.1010	44.0260
 1.1020	44.0170
 1.1030	44.0100
 1.1040	43.9990
 1.1050	43.9880
 1.1060	43.9750
 1.1070	43.9600
 1.1080	43.9460
 1.1090	43.9320
 1.1100	43.9180
 1.1110	43.9040
 1.1120	43.8870
 1.1130	43.8710
 1.1140	43.8510
 1.1150	43.8270
 1.1160	43.8040
 1.1170	43.7830
 1.1180	43.7600
 1.1190	43.7370
 1.1200	43.7120
 1.1210	43.6840
 1.1220	43.6510
 1.1230	43.6140
 1.1240	43.5740
 1.1250	43.5300
 1.1260	43.4840
 1.1270	43.4310
 1.1280	43.3760
 1.1290	43.3140
 1.1300	43.2450
 1.1310	43.1710
 1.1320	43.0910
 1.1330	43.0070
 1.1340	42.9180
 1.1350	42.8230
 1.1360	42.7220
 1.1370	42.6170
 1.1380	42.5080
 1.1390	42.3930
 1.1400	42.2770
 1.1410	42.1600
 1.1420	42.0380
 1.1430	41.9150
 1.1440	41.7940
 1.1450	41.6690
 1.1460	41.5500
 1.1470	41.4330
 1.1480	41.3200
 1.1490	41.2080
 1.1500	41.1040
 1.1510	41.0030
 1.1520	40.9100
 1.1530	40.8220
 1.1540	40.7430
 1.1550	40.6710
 1.1560	40.6040
 1.1570	40.5440
 1.1580	40.4910
 1.1590	40.4420
 1.1600	40.3970
 1.1610	40.3600
 1.1620	40.3280
 1.1630	40.2970
 1.1640	40.2730
 1.1650	40.2490
 1.1660	40.2280
 1.1670	40.2090
 1.1680	40.1920
 1.1690	40.1750
 1.1700	40.1600
 1.1710	40.1460
 1.1720	40.1320
 1.1730	40.1180
 1.1740	40.1050
 1.1750	40.0910
 1.1760	40.0760
 1.1770	40.0610
 1.1780	40.0440
 1.1790	40.0290
 1.1800	40.0130
 1.1810	39.9980
 1.1820	39.9830
 1.1830	39.9670
 1.1840	39.9510
 1.1850	39.9360
 1.1860	39.9230
 1.1870	39.9110
 1.1880	39.8990
 1.1890	39.8860
 1.1900	39.8750
 1.1910	39.8630
 1.1920	39.8540
 1.1930	39.8490
 1.1940	39.8440
 1.1950	39.8410
 1.1960	39.8400
 1.1970	39.8370
 1.1980	39.8350
 1.1990	39.8350
 1.2000	39.8360
 1.2010	39.8430
 1.2020	39.8520
 1.2030	39.8600
 1.2040	39.8730
 1.2050	39.8860
 1.2060	39.9010
 1.2070	39.9180
 1.2080	39.9350
 1.2090	39.9520
 1.2100	39.9700
 1.2110	39.9900
 1.2120	40.0110
 1.2130	40.0340
 1.2140	40.0580
 1.2150	40.0830
 1.2160	40.1100
 1.2170	40.1370
 1.2180	40.1670
 1.2190	40.1970
 1.2200	40.2250
 1.2210	40.2540
 1.2220	40.2810
 1.2230	40.3070
 1.2240	40.3370
 1.2250	40.3640
 1.2260	40.3910
 1.2270	40.4170
 1.2280	40.4410
 1.2290	40.4650
 1.2300	40.4890
 1.2310	40.5110
 1.2320	40.5350
 1.2330	40.5560
 1.2340	40.5770
 1.2350	40.5980
 1.2360	40.6180
 1.2370	40.6370
 1.2380	40.6570
 1.2390	40.6770
 1.2400	40.6950
 1.2410	40.7130
 1.2420	40.7290
 1.2430	40.7440
 1.2440	40.7600
 1.2450	40.7760
 1.2460	40.7890
 1.2470	40.8010
 1.2480	40.8110
 1.2490	40.8240
 1.2500	40.8360
 1.2510	40.8480
 1.2520	40.8590
 1.2530	40.8670
 1.2540	40.8750
 1.2550	40.8820
 1.2560	40.8880
 1.2570	40.8960
 1.2580	40.9010
 1.2590	40.9070
 1.2600	40.9160
 1.2610	40.9200
 1.2620	40.9230
 1.2630	40.9240
 1.2640	40.9230
 1.2650	40.9220
 1.2660	40.9210
 1.2670	40.9210
 1.2680	40.9220
 1.2690	40.9220
 1.2700	40.9190
 1.2710	40.9150
 1.2720	40.9100
 1.2730	40.9030
 1.2740	40.8950
 1.2750	40.8860
 1.2760	40.8750
 1.2770	40.8650
 1.2780	40.8520
 1.2790	40.8380
 1.2800	40.8230
 1.2810	40.8070
 1.2820	40.7910
 1.2830	40.7720
 1.2840	40.7550
 1.2850	40.7350
 1.2860	40.7130
 1.2870	40.6920
 1.2880	40.6730
 1.2890	40.6500
 1.2900	40.6240
 1.2910	40.5960
 1.2920	40.5620
 1.2930	40.5280
 1.2940	40.4940
 1.2950	40.4590
 1.2960	40.4230
 1.2970	40.3870
 1.2980	40.3450
 1.2990	40.3040
 1.3000	40.2630
 1.3010	40.2170
 1.3020	40.1720
 1.3030	40.1220
 1.3040	40.0660
 1.3050	40.0090
 1.3060	39.9490
 1.3070	39.8870
 1.3080	39.8250
 1.3090	39.7600
 1.3100	39.6930
 1.3110	39.6230
 1.3120	39.5460
 1.3130	39.4660
 1.3140	39.3850
 1.3150	39.3030
 1.3160	39.2180
 1.3170	39.1320
 1.3180	39.0440
 1.3190	38.9510
 1.3200	38.8530
 1.3210	38.7520
 1.3220	38.6480
 1.3230	38.5390
 1.3240	38.4280
 1.3250	38.3150
 1.3260	38.2010
 1.3270	38.0850
 1.3280	37.9680
 1.3290	37.8490
 1.3300	37.7300
 1.3310	37.6080
 1.3320	37.4820
 1.3330	37.3550
 1.3340	37.2270
 1.3350	37.0970
 1.3360	36.9680
 1.3370	36.8380
 1.3380	36.7080
 1.3390	36.5790
 1.3400	36.4490
 1.3410	36.3200
 1.3420	36.1930
 1.3430	36.0640
 1.3440	35.9370
 1.3450	35.8120
 1.3460	35.6870
 1.3470	35.5630
 1.3480	35.4400
 1.3490	35.3190
 1.3500	35.1990
 1.3510	35.0790
 1.3520	34.9600
 1.3530	34.8430
 1.3540	34.7240
 1.3550	34.6070
 1.3560	34.4900
 1.3570	34.3720
 1.3580	34.2530
 1.3590	34.1300
 1.3600	34.0040
 1.3610	33.8750
 1.3620	33.7400
 1.3630	33.6030
 1.3640	33.4610
 1.3650	33.3090
 1.3660	33.1530
 1.3670	32.9870
 1.3680	32.8090
 1.3690	32.6250
 1.3700	32.4270
 1.3710	32.2180
 1.3720	31.9980
 1.3730	31.7620
 1.3740	31.5120
 1.3750	31.2450
 1.3760	30.9590
 1.3770	30.6560
 1.3780	30.3300
 1.3790	29.9850
 1.3800	29.6200
 1.3810	29.2310
 1.3820	28.8280
 1.3830	28.4080
 1.3840	27.9710
 1.3850	27.5180
 1.3860	27.0530
 1.3870	26.5670
 1.3880	26.0780
 1.3890	25.5780
 1.3900	25.0710
 1.3910	24.5650
 1.3920	24.0540
 1.3930	23.5410
 1.3940	23.0310
 1.3950	22.5200
 1.3960	22.0170
 1.3970	21.5260
 1.3980	21.0440
 1.3990	20.5810
 1.4000	20.1330
 1.4010	19.6980
 1.4020	19.2840
 1.4030	18.8840
 1.4040	18.5020
 1.4050	18.1420
 1.4060	17.8000
 1.4070	17.4810
 1.4080	17.1810
 1.4090	16.8990
 1.4100	16.6380
 1.4110	16.3930
 1.4120	16.1660
 1.4130	15.9570
 1.4140	15.7630
 1.4150	15.5880
 1.4160	15.4270
 1.4170	15.2780
 1.4180	15.1420
 1.4190	15.0180
 1.4200	14.9050
 1.4210	14.8020
 1.4220	14.7090
 1.4230	14.6260
 1.4240	14.5500
 1.4250	14.4820
 1.4260	14.4240
 1.4270	14.3700
 1.4280	14.3240
 1.4290	14.2830
 1.4300	14.2490
 1.4310	14.2180
 1.4320	14.1950
 1.4330	14.1740
 1.4340	14.1590
 1.4350	14.1470
 1.4360	14.1380
 1.4370	14.1340
 1.4380	14.1330
 1.4390	14.1340
 1.4400	14.1390
 1.4410	14.1470
 1.4420	14.1560
 1.4430	14.1670
 1.4440	14.1790
 1.4450	14.1940
 1.4460	14.2100
 1.4470	14.2280
 1.4480	14.2470
 1.4490	14.2670
 1.4500	14.2870
 1.4510	14.3080
 1.4520	14.3310
 1.4530	14.3560
 1.4540	14.3810
 1.4550	14.4080
 1.4560	14.4360
 1.4570	14.4650
 1.4580	14.4980
 1.4590	14.5330
 1.4600	14.5720
 1.4610	14.6140
 1.4620	14.6600
 1.4630	14.7100
 1.4640	14.7620
 1.4650	14.8200
 1.4660	14.8820
 1.4670	14.9470
 1.4680	15.0180
 1.4690	15.0910
 1.4700	15.1680
 1.4710	15.2490
 1.4720	15.3320
 1.4730	15.4180
 1.4740	15.5070
 1.4750	15.5980
 1.4760	15.6940
 1.4770	15.7920
 1.4780	15.8910
 1.4790	15.9940
 1.4800	16.0970
 1.4810	16.2000
 1.4820	16.3040
 1.4830	16.4100
 1.4840	16.5170
 1.4850	16.6250
 1.4860	16.7340
 1.4870	16.8450
 1.4880	16.9560
 1.4890	17.0670
 1.4900	17.1790
 1.4910	17.2900
 1.4920	17.4010
 1.4930	17.5140
 1.4940	17.6270
 1.4950	17.7410
 1.4960	17.8540
 1.4970	17.9670
 1.4980	18.0800
 1.4990	18.1930
 1.5000	18.3060
 1.5010	18.4210
 1.5020	18.5350
 1.5030	18.6480
 1.5040	18.7610
 1.5050	18.8720
 1.5060	18.9850
 1.5070	19.0970
 1.5080	19.2090
 1.5090	19.3210
 1.5100	19.4330
 1.5110	19.5440
 1.5120	19.6540
 1.5130	19.7630
 1.5140	19.8720
 1.5150	19.9810
 1.5160	20.0880
 1.5170	20.1960
 1.5180	20.3020
 1.5190	20.4080
 1.5200	20.5150
 1.5210	20.6190
 1.5220	20.7220
 1.5230	20.8250
 1.5240	20.9250
 1.5250	21.0280
 1.5260	21.1270
 1.5270	21.2260
 1.5280	21.3250
 1.5290	21.4210
 1.5300	21.5170
 1.5310	21.6150
 1.5320	21.7100
 1.5330	21.8060
 1.5340	21.9010
 1.5350	21.9950
 1.5360	22.0890
 1.5370	22.1800
 1.5380	22.2710
 1.5390	22.3620
 1.5400	22.4510
 1.5410	22.5410
 1.5420	22.6300
 1.5430	22.7180
 1.5440	22.8050
 1.5450	22.8900
 1.5460	22.9750
 1.5470	23.0580
 1.5480	23.1410
 1.5490	23.2230
 1.5500	23.3030
 1.5510	23.3840
 1.5520	23.4630
 1.5530	23.5410
 1.5540	23.6200
 1.5550	23.6970
 1.5560	23.7730
 1.5570	23.8500
 1.5580	23.9260
 1.5590	24.0000
 1.5600	24.0740
 1.5610	24.1460
 1.5620	24.2150
 1.5630	24.2850
 1.5640	24.3560
 1.5650	24.4260
 1.5660	24.4950
 1.5670	24.5640
 1.5680	24.6330
 1.5690	24.6980
 1.5700	24.7650
 1.5710	24.8320
 1.5720	24.8990
 1.5730	24.9650
 1.5740	25.0300
 1.5750	25.0940
 1.5760	25.1580
 1.5770	25.2210
 1.5780	25.2850
 1.5790	25.3490
 1.5800	25.4090
 1.5810	25.4690
 1.5820	25.5300
 1.5830	25.5890
 1.5840	25.6510
 1.5850	25.7130
 1.5860	25.7720
 1.5870	25.8320
 1.5880	25.8900
 1.5890	25.9480
 1.5900	26.0060
 1.5910	26.0650
 1.5920	26.1240
 1.5930	26.1810
 1.5940	26.2380
 1.5950	26.2960
 1.5960	26.3520
 1.5970	26.4080
 1.5980	26.4640
 1.5990	26.5170
 1.6000	26.5710
 1.6010	26.6240
 1.6020	26.6750
 1.6030	26.7260
 1.6040	26.7780
 1.6050	26.8280
 1.6060	26.8780
 1.6070	26.9280
 1.6080	26.9760
 1.6090	27.0230
 1.6100	27.0700
 1.6110	27.1150
 1.6120	27.1600
 1.6130	27.2060
 1.6140	27.2510
 1.6150	27.2950
 1.6160	27.3370
 1.6170	27.3780
 1.6180	27.4180
 1.6190	27.4580
 1.6200	27.4970
 1.6210	27.5330
 1.6220	27.5690
 1.6230	27.6050
 1.6240	27.6420
 1.6250	27.6780
 1.6260	27.7130
 1.6270	27.7470
 1.6280	27.7800
 1.6290	27.8130
 1.6300	27.8460
 1.6310	27.8770
 1.6320	27.9040
 1.6330	27.9340
 1.6340	27.9640
 1.6350	27.9930
 1.6360	28.0240
 1.6370	28.0510
 1.6380	28.0730
 1.6390	28.0970
 1.6400	28.1190
 1.6410	28.1400
 1.6420	28.1610
 1.6430	28.1800
 1.6440	28.1950
 1.6450	28.2090
 1.6460	28.2220
 1.6470	28.2330
 1.6480	28.2400
 1.6490	28.2460
 1.6500	28.2500
 1.6510	28.2510
 1.6520	28.2490
 1.6530	28.2420
 1.6540	28.2360
 1.6550	28.2280
 1.6560	28.2170
 1.6570	28.2070
 1.6580	28.1940
 1.6590	28.1790
 1.6600	28.1640
 1.6610	28.1480
 1.6620	28.1330
 1.6630	28.1170
 1.6640	28.1000
 1.6650	28.0850
 1.6660	28.0690
 1.6670	28.0540
 1.6680	28.0390
 1.6690	28.0250
 1.6700	28.0100
 1.6710	27.9960
 1.6720	27.9830
 1.6730	27.9660
 1.6740	27.9480
 1.6750	27.9310
 1.6760	27.9140
 1.6770	27.8950
 1.6780	27.8740
 1.6790	27.8490
 1.6800	27.8220
 1.6810	27.7940
 1.6820	27.7650
 1.6830	27.7330
 1.6840	27.6990
 1.6850	27.6640
 1.6860	27.6260
 1.6870	27.5860
 1.6880	27.5470
 1.6890	27.5060
 1.6900	27.4660
 1.6910	27.4240
 1.6920	27.3830
 1.6930	27.3420
 1.6940	27.2990
 1.6950	27.2550
 1.6960	27.2110
 1.6970	27.1670
 1.6980	27.1220
 1.6990	27.0780
 1.7000	27.0300
 1.7010	26.9790
 1.7020	26.9290
 1.7030	26.8800
 1.7040	26.8300
 1.7050	26.7800
 1.7060	26.7290
 1.7070	26.6760
 1.7080	26.6230
 1.7090	26.5700
 1.7100	26.5180
 1.7110	26.4660
 1.7120	26.4160
 1.7130	26.3670
 1.7140	26.3180
 1.7150	26.2710
 1.7160	26.2270
 1.7170	26.1820
 1.7180	26.1370
 1.7190	26.0930
 1.7200	26.0470
 1.7210	26.0020
 1.7220	25.9610
 1.7230	25.9200
 1.7240	25.8820
 1.7250	25.8440
 1.7260	25.8070
 1.7270	25.7710
 1.7280	25.7380
 1.7290	25.7040
 1.7300	25.6690
 1.7310	25.6370
 1.7320	25.6070
 1.7330	25.5750
 1.7340	25.5460
 1.7350	25.5130
 1.7360	25.4780
 1.7370	25.4410
 1.7380	25.4030
 1.7390	25.3640
 1.7400	25.3250
 1.7410	25.2830
 1.7420	25.2400
 1.7430	25.1960
 1.7440	25.1500
 1.7450	25.1030
 1.7460	25.0550
 1.7470	25.0060
 1.7480	24.9550
 1.7490	24.9040
 1.7500	24.8520
 1.7510	24.8010
 1.7520	24.7520
 1.7530	24.7030
 1.7540	24.6550
 1.7550	24.6070
 1.7560	24.5610
 1.7570	24.5160
 1.7580	24.4720
 1.7590	24.4320
 1.7600	24.3930
 1.7610	24.3550
 1.7620	24.3190
 1.7630	24.2830
 1.7640	24.2470
 1.7650	24.2120
 1.7660	24.1790
 1.7670	24.1460
 1.7680	24.1140
 1.7690	24.0830
 1.7700	24.0530
 1.7710	24.0240
 1.7720	23.9950
 1.7730	23.9670
 1.7740	23.9390
 1.7750	23.9120
 1.7760	23.8850
 1.7770	23.8590
 1.7780	23.8340
 1.7790	23.8090
 1.7800	23.7860
 1.7810	23.7640
 1.7820	23.7450
 1.7830	23.7270
 1.7840	23.7110
 1.7850	23.6970
 1.7860	23.6840
 1.7870	23.6710
 1.7880	23.6610
 1.7890	23.6520
 1.7900	23.6470
 1.7910	23.6410
 1.7920	23.6350
 1.7930	23.6310
 1.7940	23.6280
 1.7950	23.6260
 1.7960	23.6270
 1.7970	23.6270
 1.7980	23.6270
 1.7990	23.6270
 1.8000	23.6270
 1.8010	23.6290
 1.8020	23.6320
 1.8030	23.6360
 1.8040	23.6430
 1.8050	23.6470
 1.8060	23.6500
 1.8070	23.6540
 1.8080	23.6560
 1.8090	23.6600
 1.8100	23.6650
 1.8110	23.6680
 1.8120	23.6720
 1.8130	23.6740
 1.8140	23.6760
 1.8150	23.6800
 1.8160	23.6830
 1.8170	23.6850
 1.8180	23.6860
 1.8190	23.6860
 1.8200	23.6830
 1.8210	23.6760
 1.8220	23.6710
 1.8230	23.6640
 1.8240	23.6570
 1.8250	23.6510
 1.8260	23.6430
 1.8270	23.5960
 1.8280	23.5490
 1.8290	23.5020
 1.8300	23.4540
 1.8310	23.4070
 1.8320	23.3600
 1.8330	23.3130
 1.8340	23.2660
 1.8350	23.2660
 1.8360	23.2290
 1.8370	23.1880
 1.8380	23.1430
 1.8390	23.0930
 1.8400	23.0390
 1.8410	22.9820
 1.8420	22.9230
 1.8430	22.8560
 1.8440	22.7800
 1.8450	22.7010
 1.8460	22.6120
 1.8470	22.5160
 1.8480	22.4130
 1.8490	22.3020
 1.8500	22.1820
 1.8510	22.0520
 1.8520	21.9130
 1.8530	21.7640
 1.8540	21.6070
 1.8550	21.4370
 1.8560	21.2540
 1.8570	21.0590
 1.8580	20.8520
 1.8590	20.6330
 1.8600	20.4020
 1.8610	20.1600
 1.8620	19.9030
 1.8630	19.6340
 1.8640	19.3500
 1.8650	19.0510
 1.8660	18.7350
 1.8670	18.4020
 1.8680	18.0550
 1.8690	17.6920
 1.8700	17.3180
 1.8710	16.9310
 1.8720	16.5360
 1.8730	16.1300
 1.8740	15.7150
 1.8750	15.2950
 1.8760	14.8670
 1.8770	14.4360
 1.8780	14.0060
 1.8790	13.5760
 1.8800	13.1550
 1.8810	12.7380
 1.8820	12.3260
 1.8830	11.9190
 1.8840	11.5220
 1.8850	11.1290
 1.8860	10.7470
 1.8870	10.3780
 1.8880	10.0240
 1.8890	 9.6920
 1.8900	 9.3760
 1.8910	 9.0770
 1.8920	 8.7930
 1.8930	 8.5290
 1.8940	 8.2800
 1.8950	 8.0490
 1.8960	 7.8400
 1.8970	 7.6490
 1.8980	 7.4740
 1.8990	 7.3170
 1.9000	 7.1730
 1.9010	 7.0460
 1.9020	 6.9290
 1.9030	 6.8260
 1.9040	 6.7360
 1.9050	 6.6560
 1.9060	 6.5830
 1.9070	 6.5220
 1.9080	 6.4680
 1.9090	 6.4200
 1.9100	 6.3780
 1.9110	 6.3400
 1.9120	 6.3080
 1.9130	 6.2780
 1.9140	 6.2520
 1.9150	 6.2310
 1.9160	 6.2140
 1.9170	 6.2010
 1.9180	 6.1900
 1.9190	 6.1810
 1.9200	 6.1730
 1.9210	 6.1660
 1.9220	 6.1610
 1.9230	 6.1580
 1.9240	 6.1560
 1.9250	 6.1540
 1.9260	 6.1570
 1.9270	 6.1580
 1.9280	 6.1590
 1.9290	 6.1650
 1.9300	 6.1700
 1.9310	 6.1770
 1.9320	 6.1880
 1.9330	 6.1990
 1.9340	 6.2090
 1.9350	 6.2230
 1.9360	 6.2400
 1.9370	 6.2540
 1.9380	 6.2670
 1.9390	 6.2830
 1.9400	 6.2960
 1.9410	 6.3110
 1.9420	 6.3310
 1.9430	 6.3480
 1.9440	 6.3670
 1.9450	 6.3880
 1.9460	 6.4100
 1.9470	 6.4330
 1.9480	 6.4570
 1.9490	 6.4800
 1.9500	 6.5050
 1.9510	 6.5290
 1.9520	 6.5550
 1.9530	 6.5860
 1.9540	 6.6160
 1.9550	 6.6460
 1.9560	 6.6760
 1.9570	 6.7070
 1.9580	 6.7360
 1.9590	 6.7680
 1.9600	 6.8010
 1.9610	 6.8340
 1.9620	 6.8680
 1.9630	 6.9020
 1.9640	 6.9370
 1.9650	 6.9740
 1.9660	 7.0100
 1.9670	 7.0480
 1.9680	 7.0870
 1.9690	 7.1280
 1.9700	 7.1670
 1.9710	 7.2070
 1.9720	 7.2480
 1.9730	 7.2890
 1.9740	 7.3310
 1.9750	 7.3760
 1.9760	 7.4210
 1.9770	 7.4650
 1.9780	 7.5120
 1.9790	 7.5580
 1.9800	 7.6040
 1.9810	 7.6510
 1.9820	 7.6970
 1.9830	 7.7430
 1.9840	 7.7900
 1.9850	 7.8380
 1.9860	 7.8870
 1.9870	 7.9370
 1.9880	 7.9880
 1.9890	 8.0380
 1.9900	 8.0880
 1.9910	 8.1380
 1.9920	 8.1890
 1.9930	 8.2410
 1.9940	 8.2930
 1.9950	 8.3470
 1.9960	 8.4000
 1.9970	 8.4540
 1.9980	 8.5080
 1.9990	 8.5610
 2.0000	 8.6130
 2.0010	 8.6660
 2.0020	 8.7200
 2.0030	 8.7730
 2.0040	 8.8290
 2.0050	 8.8830
 2.0060	 8.9350
 2.0070	 8.9880
 2.0080	 9.0400
 2.0090	 9.0920
 2.0100	 9.1450
 2.0110	 9.1980
 2.0120	 9.2500
 2.0130	 9.3020
 2.0140	 9.3570
 2.0150	 9.4080
 2.0160	 9.4580
 2.0170	 9.5090
 2.0180	 9.5580
 2.0190	 9.6070
 2.0200	 9.6560
 2.0210	 9.7040
 2.0220	 9.7530
 2.0230	 9.8000
 2.0240	 9.8470
 2.0250	 9.8950
 2.0260	 9.9410
 2.0270	 9.9860
 2.0280	10.0310
 2.0290	10.0760
 2.0300	10.1210
 2.0310	10.1650
 2.0320	10.2110
 2.0330	10.2530
 2.0340	10.2930
 2.0350	10.3330
 2.0360	10.3710
 2.0370	10.4090
 2.0380	10.4470
 2.0390	10.4840
 2.0400	10.5210
 2.0410	10.5570
 2.0420	10.5920
 2.0430	10.6280
 2.0440	10.6640
 2.0450	10.7010
 2.0460	10.7350
 2.0470	10.7680
 2.0480	10.8020
 2.0490	10.8340
 2.0500	10.8660
 2.0510	10.8990
 2.0520	10.9300
 2.0530	10.9600
 2.0540	10.9920
 2.0550	11.0230
 2.0560	11.0600
 2.0570	11.0950
 2.0580	11.1290
 2.0590	11.1640
 2.0600	11.1980
 2.0610	11.2320
 2.0620	11.2680
 2.0630	11.3010
 2.0640	11.3320
 2.0650	11.3650
 2.0660	11.3970
 2.0670	11.4310
 2.0680	11.4700
 2.0690	11.5060
 2.0700	11.5410
 2.0710	11.5770
 2.0720	11.6110
 2.0730	11.6460
 2.0740	11.6790
 2.0750	11.7130
 2.0760	11.7460
 2.0770	11.7790
 2.0780	11.8120
 2.0790	11.8470
 2.0800	11.8800
 2.0810	11.9120
 2.0820	11.9440
 2.0830	11.9750
 2.0840	12.0070
 2.0850	12.0420
 2.0860	12.0740
 2.0870	12.1040
 2.0880	12.1350
 2.0890	12.1660
 2.0900	12.1950
 2.0910	12.2280
 2.0920	12.2630
 2.0930	12.2960
 2.0940	12.3300
 2.0950	12.3620
 2.0960	12.3920
 2.0970	12.4240
 2.0980	12.4570
 2.0990	12.4900
 2.1000	12.5250
 2.1010	12.5570
 2.1020	12.5860
 2.1030	12.6170
 2.1040	12.6490
 2.1050	12.6810
 2.1060	12.7130
 2.1070	12.7460
 2.1080	12.7770
 2.1090	12.8080
 2.1100	12.8370
 2.1110	12.8650
 2.1120	12.8940
 2.1130	12.9210
 2.1140	12.9520
 2.1150	12.9860
 2.1160	13.0170
 2.1170	13.0490
 2.1180	13.0800
 2.1190	13.1100
 2.1200	13.1380
 2.1210	13.1630
 2.1220	13.1890
 2.1230	13.2140
 2.1240	13.2380
 2.1250	13.2650
 2.1260	13.2940
 2.1270	13.3180
 2.1280	13.3400
 2.1290	13.3640
 2.1300	13.3860
 2.1310	13.4090
 2.1320	13.4340
 2.1330	13.4570
 2.1340	13.4780
 2.1350	13.4990
 2.1360	13.5180
 2.1370	13.5400
 2.1380	13.5610
 2.1390	13.5840
 2.1400	13.6110
 2.1410	13.6380
 2.1420	13.6610
 2.1430	13.6820
 2.1440	13.7030
 2.1450	13.7200
 2.1460	13.7410
 2.1470	13.7630
 2.1480	13.7850
 2.1490	13.8060
 2.1500	13.8280
 2.1510	13.8520
 2.1520	13.8740
 2.1530	13.8950
 2.1540	13.9180
 2.1550	13.9390
 2.1560	13.9610
 2.1570	13.9860
 2.1580	14.0090
 2.1590	14.0310
 2.1600	14.0510
 2.1610	14.0740
 2.1620	14.0970
 2.1630	14.1190
 2.1640	14.1410
 2.1650	14.1630
 2.1660	14.1820
 2.1670	14.2010
 2.1680	14.2190
 2.1690	14.2380
 2.1700	14.2530
 2.1710	14.2730
 2.1720	14.2960
 2.1730	14.3180
 2.1740	14.3430
 2.1750	14.3660
 2.1760	14.3870
 2.1770	14.4080
 2.1780	14.4310
 2.1790	14.4520
 2.1800	14.4700
 2.1810	14.4910
 2.1820	14.5130
 2.1830	14.5330
 2.1840	14.5550
 2.1850	14.5810
 2.1860	14.6020
 2.1870	14.6200
 2.1880	14.6410
 2.1890	14.6610
 2.1900	14.6820
 2.1910	14.7060
 2.1920	14.7260
 2.1930	14.7450
 2.1940	14.7630
 2.1950	14.7820
 2.1960	14.7980
 2.1970	14.8110
 2.1980	14.8270
 2.1990	14.8410
 2.2000	14.8580
 2.2010	14.8770
 2.2020	14.8950
 2.2030	14.9140
 2.2040	14.9310
 2.2050	14.9470
 2.2060	14.9620
 2.2070	14.9750
 2.2080	14.9850
 2.2090	14.9950
 2.2100	15.0010
 2.2110	15.0100
 2.2120	15.0190
 2.2130	15.0260
 2.2140	15.0310
 2.2150	15.0340
 2.2160	15.0330
 2.2170	15.0340
 2.2180	15.0350
 2.2190	15.0360
 2.2200	15.0400
 2.2210	15.0410
 2.2220	15.0440
 2.2230	15.0420
 2.2240	15.0370
 2.2250	15.0290
 2.2260	15.0170
 2.2270	15.0050
 2.2280	14.9900
 2.2290	14.9740
 2.2300	14.9550
 2.2310	14.9370
 2.2320	14.9170
 2.2330	14.8920
 2.2340	14.8650
 2.2350	14.8360
 2.2360	14.8020
 2.2370	14.7650
 2.2380	14.7240
 2.2390	14.6770
 2.2400	14.6340
 2.2410	14.5900
 2.2420	14.5450
 2.2430	14.5010
 2.2440	14.4540
 2.2450	14.4030
 2.2460	14.3540
 2.2470	14.3060
 2.2480	14.2570
 2.2490	14.2090
 2.2500	14.1560
 2.2510	14.1010
 2.2520	14.0450
 2.2530	13.9850
 2.2540	13.9270
 2.2550	13.8690
 2.2560	13.8090
 2.2570	13.7500
 2.2580	13.6890
 2.2590	13.6240
 2.2600	13.5620
 2.2610	13.5000
 2.2620	13.4390
 2.2630	13.3830
 2.2640	13.3250
 2.2650	13.2670
 2.2660	13.2100
 2.2670	13.1540
 2.2680	13.0970
 2.2690	13.0410
 2.2700	12.9860
 2.2710	12.9310
 2.2720	12.8730
 2.2730	12.8210
 2.2740	12.7710
 2.2750	12.7240
 2.2760	12.6810
 2.2770	12.6360
 2.2780	12.5940
 2.2790	12.5510
 2.2800	12.5090
 2.2810	12.4670
 2.2820	12.4260
 2.2830	12.3860
 2.2840	12.3470
 2.2850	12.3060
 2.2860	12.2630
 2.2870	12.2220
 2.2880	12.1830
 2.2890	12.1410
 2.2900	12.1000
 2.2910	12.0570
 2.2920	12.0070
 2.2930	11.9620
 2.2940	11.9170
 2.2950	11.8750
 2.2960	11.8370
 2.2970	11.7950
 2.2980	11.7530
 2.2990	11.7100
 2.3000	11.6670
 2.3010	11.6260
 2.3020	11.5890
 2.3030	11.5560
 2.3040	11.5280
 2.3050	11.5010
 2.3060	11.4780
 2.3070	11.4560
 2.3080	11.4270
 2.3090	11.4080
 2.3100	11.3920
 2.3110	11.3740
 2.3120	11.3630
 2.3130	11.3600
 2.3140	11.3500
 2.3150	11.3410
 2.3160	11.3280
 2.3170	11.3130
 2.3180	11.2950
 2.3190	11.2730
 2.3200	11.2540
 2.3210	11.2340
 2.3220	11.2130
 2.3230	11.1950
 2.3240	11.1720
 2.3250	11.1440
 2.3260	11.1170
 2.3270	11.0870
 2.3280	11.0570
 2.3290	11.0240
 2.3300	10.9940
 2.3310	10.9650
 2.3320	10.9310
 2.3330	10.8910
 2.3340	10.8580
 2.3350	10.8260
 2.3360	10.7910
 2.3370	10.7650
 2.3380	10.7290
 2.3390	10.6830
 2.3400	10.6420
 2.3410	10.6010
 2.3420	10.5610
 2.3430	10.5230
 2.3440	10.4860
 2.3450	10.4470
 2.3460	10.4150
 2.3470	10.3880
 2.3480	10.3610
 2.3490	10.3400
 2.3500	10.3160
 2.3510	10.2880
 2.3520	10.2630
 2.3530	10.2380
 2.3540	10.2130
 2.3550	10.1960
 2.3560	10.1760
 2.3570	10.1540
 2.3580	10.1320
 2.3590	10.1070
 2.3600	10.0780
 2.3610	10.0450
 2.3620	10.0130
 2.3630	 9.9850
 2.3640	 9.9590
 2.3650	 9.9310
 2.3660	 9.9100
 2.3670	 9.8850
 2.3680	 9.8500
 2.3690	 9.8280
 2.3700	 9.8020
 2.3710	 9.7740
 2.3720	 9.7540
 2.3730	 9.7280
 2.3740	 9.7000
 2.3750	 9.6680
 2.3760	 9.6330
 2.3770	 9.5990
 2.3780	 9.5620
 2.3790	 9.5280
 2.3800	 9.4960
 2.3810	 9.4770
 2.3820	 9.4560
 2.3830	 9.4240
 2.3840	 9.3980
 2.3850	 9.3570
 2.3860	 9.3210
 2.3870	 9.3010
 2.3880	 9.2770
 2.3890	 9.2500
 2.3900	 9.2210
 2.3910	 9.1920
 2.3920	 9.1610
 2.3930	 9.1280
 2.3940	 9.1070
 2.3950	 9.0810
 2.3960	 9.0450
 2.3970	 9.0130
 2.3980	 8.9770
 2.3990	 8.9420
 2.4000	 8.9120
 2.4010	 8.8800
 2.4020	 8.8530
 2.4030	 8.8180
 2.4040	 8.7820
 2.4050	 8.7490
 2.4060	 8.7140
 2.4070	 8.6760
 2.4080	 8.6480
 2.4090	 8.6230
 2.4100	 8.5920
 2.4110	 8.5710
 2.4120	 8.5400
 2.4130	 8.5040
 2.4140	 8.4740
 2.4150	 8.4460
 2.4160	 8.4130
 2.4170	 8.3810
 2.4180	 8.3520
 2.4190	 8.3050
 2.4200	 8.2630
 2.4210	 8.2310
 2.4220	 8.1940
 2.4230	 8.1680
 2.4240	 8.1420
 2.4250	 8.1050
 2.4260	 8.0770
 2.4270	 8.0520
 2.4280	 8.0210
 2.4290	 7.9870
 2.4300	 7.9470
 2.4310	 7.9110
 2.4320	 7.8780
 2.4330	 7.8350
 2.4340	 7.7990
 2.4350	 7.7630
 2.4360	 7.7240
 2.4370	 7.7030
 2.4380	 7.6820
 2.4390	 7.6540
 2.4400	 7.6210
 2.4410	 7.5920
 2.4420	 7.5670
 2.4430	 7.5330
 2.4440	 7.5060
 2.4450	 7.4670
 2.4460	 7.4250
 2.4470	 7.4020
 2.4480	 7.3720
 2.4490	 7.3580
 2.4500	 7.3510
 2.4510	 7.3270
 2.4520	 7.3050
 2.4530	 7.2640
 2.4540	 7.2230
 2.4550	 7.1850
 2.4560	 7.1350
 2.4570	 7.0990
 2.4580	 7.0720
 2.4590	 7.0450
 2.4600	 7.0340
 2.4610	 7.0280
 2.4620	 7.0190
 2.4630	 7.0020
 2.4640	 6.9800
 2.4650	 6.9530
 2.4660	 6.9170
 2.4670	 6.8990
 2.4680	 6.8820
 2.4690	 6.8740
 2.4700	 6.8620
 2.4710	 6.8340
 2.4720	 6.8170
 2.4730	 6.8090
 2.4740	 6.7950
 2.4750	 6.7860
 2.4760	 6.7700
 2.4770	 6.7430
 2.4780	 6.7270
 2.4790	 6.7220
 2.4800	 6.7050
 2.4810	 6.6860
 2.4820	 6.6440
 2.4830	 6.6200
 2.4840	 6.6410
 2.4850	 6.6360
 2.4860	 6.6300
 2.4870	 6.6260
 2.4880	 6.5660
 2.4890	 6.5320
 2.4900	 6.5300
 2.4910	 6.5150
 2.4920	 6.4930
 2.4930	 6.5100
 2.4940	 6.5530
 2.4950	 6.5820
 2.4960	 6.6150
 2.4970	 6.5900
 2.4980	 6.5210
 2.4990	 6.4550
 2.5000	 6.4350
