Name: Rubus occidentalis
Type: Vegetation
Class: Tree
Genus: Rubus
Species: occidentalis
Sample No.: RUOC-1-71
Owner: UCSB
Wavelength Range: TIR
Origin: USA; Massachusetts; Harvard Forest
Collection Date: 7/8/2013
Description: Samples were collected as part of NSF Macrosystem Biology proposal titled: Collaborative Research: Thermal controls on ecosystem metabolism and function: scaling from leaves to canopies to regions. Samples were collected and overnighted to JPL facilities for processing. The same leaves were processed in the Nicolet and then measured using the ASD.
Measurement: Hemispherical reflectance
First Column: X
Second Column: Y
X Units: Wavelength (micrometers)
Y Units: Reflectance (percentage)
First X Value: 2.501
Last X Value: 15.387
Number of X Values: 1737
Additional Information: vegetation.tree.rubus.occidentalis.tir.ruoc-1-71.ucsb.nicolet.ancillary.txt

 2.5010	14.9400
 2.5030	14.7470
 2.5040	14.4790
 2.5050	14.3370
 2.5060	14.3330
 2.5070	14.4610
 2.5090	14.2100
 2.5100	13.8760
 2.5110	14.1910
 2.5120	14.1730
 2.5140	14.1990
 2.5150	14.2160
 2.5160	14.2600
 2.5170	14.2540
 2.5180	13.9870
 2.5200	13.9470
 2.5210	14.1020
 2.5220	14.1030
 2.5230	14.0070
 2.5250	13.7920
 2.5260	13.7910
 2.5270	13.9570
 2.5280	14.0540
 2.5290	13.8530
 2.5310	13.8540
 2.5320	13.7990
 2.5330	13.8630
 2.5340	13.8220
 2.5360	14.0280
 2.5370	14.1020
 2.5380	13.9610
 2.5390	13.7860
 2.5410	13.8900
 2.5420	13.8110
 2.5430	14.0010
 2.5440	14.3210
 2.5460	14.0210
 2.5470	13.6380
 2.5480	13.7200
 2.5490	13.8680
 2.5510	13.9920
 2.5520	13.9680
 2.5530	13.9510
 2.5540	13.8610
 2.5560	13.9060
 2.5570	14.0330
 2.5580	14.1490
 2.5590	13.9290
 2.5610	13.8210
 2.5620	13.8990
 2.5630	13.9830
 2.5640	13.9700
 2.5660	13.9890
 2.5670	14.0040
 2.5680	14.1320
 2.5700	14.3070
 2.5710	14.3960
 2.5720	13.9170
 2.5730	13.8020
 2.5750	13.9450
 2.5760	14.1360
 2.5770	13.9630
 2.5790	14.0280
 2.5800	14.0240
 2.5810	13.6420
 2.5820	13.5570
 2.5840	14.0330
 2.5850	14.1280
 2.5860	14.1040
 2.5880	14.0400
 2.5890	14.0190
 2.5900	13.7110
 2.5910	13.5430
 2.5930	13.3350
 2.5940	13.4880
 2.5950	13.4180
 2.5970	13.0950
 2.5980	13.1100
 2.5990	13.2850
 2.6000	13.1640
 2.6020	13.0140
 2.6030	12.7450
 2.6040	12.5840
 2.6060	12.5450
 2.6070	12.5700
 2.6080	12.3500
 2.6100	12.3710
 2.6110	12.2100
 2.6120	11.9920
 2.6140	12.0320
 2.6150	12.1440
 2.6160	12.0340
 2.6180	11.6830
 2.6190	11.5280
 2.6200	11.7590
 2.6220	11.5740
 2.6230	11.2580
 2.6240	11.1010
 2.6260	11.0680
 2.6270	10.9910
 2.6280	10.8570
 2.6300	10.5860
 2.6310	10.5210
 2.6320	10.5020
 2.6340	10.4720
 2.6350	10.3350
 2.6360	10.2880
 2.6380	10.1130
 2.6390	 9.8470
 2.6400	 9.8120
 2.6420	 9.9480
 2.6430	 9.7280
 2.6440	 9.6060
 2.6460	 9.4380
 2.6470	 9.2660
 2.6480	 9.1660
 2.6500	 9.3640
 2.6510	 9.4140
 2.6520	 9.1670
 2.6540	 8.5900
 2.6550	 8.5610
 2.6560	 8.6100
 2.6580	 8.3860
 2.6590	 8.3730
 2.6610	 8.4650
 2.6620	 8.3480
 2.6630	 8.0140
 2.6650	 7.6510
 2.6660	 7.6190
 2.6670	 7.6200
 2.6690	 7.8010
 2.6700	 7.8430
 2.6720	 7.6190
 2.6730	 7.3970
 2.6740	 7.3310
 2.6760	 7.1000
 2.6770	 7.0450
 2.6780	 7.1610
 2.6800	 7.1620
 2.6810	 7.0310
 2.6830	 7.0470
 2.6840	 6.8820
 2.6850	 6.5290
 2.6870	 6.6190
 2.6880	 6.6220
 2.6900	 6.3490
 2.6910	 6.3130
 2.6920	 6.1860
 2.6940	 5.8930
 2.6950	 5.7910
 2.6970	 5.9480
 2.6980	 6.0320
 2.6990	 6.0960
 2.7010	 6.3200
 2.7020	 6.3000
 2.7040	 6.0590
 2.7050	 5.9610
 2.7060	 6.0800
 2.7080	 6.2440
 2.7090	 5.9660
 2.7110	 6.0190
 2.7120	 6.1180
 2.7130	 5.9510
 2.7150	 5.7780
 2.7160	 5.8710
 2.7180	 5.9420
 2.7190	 5.9820
 2.7210	 5.7490
 2.7220	 5.6740
 2.7230	 5.7950
 2.7250	 6.0250
 2.7260	 6.0570
 2.7280	 5.7370
 2.7290	 5.4120
 2.7310	 5.2060
 2.7320	 5.2910
 2.7330	 5.7780
 2.7350	 5.5340
 2.7360	 5.3010
 2.7380	 5.5630
 2.7390	 5.9230
 2.7410	 5.6750
 2.7420	 5.4290
 2.7440	 5.4510
 2.7450	 5.2110
 2.7470	 5.0290
 2.7480	 5.1170
 2.7490	 5.0020
 2.7510	 5.0150
 2.7520	 5.5080
 2.7540	 5.9490
 2.7550	 5.6560
 2.7570	 5.0810
 2.7580	 4.8630
 2.7600	 5.2270
 2.7610	 5.4290
 2.7630	 5.3410
 2.7640	 5.1640
 2.7660	 5.3020
 2.7670	 4.7510
 2.7680	 4.5580
 2.7700	 4.6360
 2.7710	 4.8120
 2.7730	 5.0650
 2.7740	 5.1220
 2.7760	 5.0860
 2.7770	 5.0830
 2.7790	 4.9390
 2.7800	 4.9310
 2.7820	 4.8920
 2.7830	 4.8730
 2.7850	 4.6690
 2.7860	 4.6970
 2.7880	 4.7780
 2.7890	 4.7810
 2.7910	 4.6060
 2.7920	 4.8290
 2.7940	 4.8250
 2.7950	 4.5770
 2.7970	 4.5960
 2.7980	 4.7480
 2.8000	 4.5050
 2.8010	 4.4480
 2.8030	 4.5380
 2.8040	 4.4600
 2.8060	 4.3160
 2.8070	 4.5050
 2.8090	 4.4140
 2.8110	 4.2320
 2.8120	 4.2190
 2.8140	 4.4890
 2.8150	 4.3340
 2.8170	 4.2490
 2.8180	 4.2470
 2.8200	 4.4640
 2.8210	 4.5860
 2.8230	 4.2940
 2.8240	 3.9670
 2.8260	 3.9410
 2.8270	 3.9740
 2.8290	 4.1720
 2.8300	 4.0680
 2.8320	 3.7670
 2.8340	 3.5640
 2.8350	 3.5780
 2.8370	 3.5590
 2.8380	 3.6190
 2.8400	 3.7010
 2.8410	 3.9110
 2.8430	 3.7740
 2.8440	 3.5780
 2.8460	 3.4970
 2.8480	 3.5360
 2.8490	 3.6210
 2.8510	 3.7790
 2.8520	 3.7230
 2.8540	 3.6660
 2.8550	 3.5350
 2.8570	 3.6650
 2.8590	 3.7100
 2.8600	 3.7450
 2.8620	 3.6460
 2.8630	 3.6070
 2.8650	 3.6070
 2.8660	 3.7420
 2.8680	 3.5310
 2.8700	 3.4620
 2.8710	 3.3940
 2.8730	 3.1500
 2.8740	 3.2290
 2.8760	 3.6300
 2.8780	 3.5640
 2.8790	 3.4330
 2.8810	 3.5130
 2.8820	 3.3900
 2.8840	 3.2590
 2.8860	 2.6340
 2.8870	 3.0190
 2.8890	 4.3270
 2.8900	 4.4570
 2.8920	 4.1950
 2.8940	 3.5640
 2.8950	 3.1090
 2.8970	 2.7800
 2.8980	 2.5510
 2.9000	 2.8750
 2.9020	 3.1940
 2.9030	 2.9480
 2.9050	 2.7460
 2.9070	 2.8880
 2.9080	 3.0030
 2.9100	 2.7020
 2.9120	 2.6390
 2.9130	 2.7260
 2.9150	 2.9930
 2.9160	 3.1130
 2.9180	 3.2470
 2.9200	 3.0440
 2.9210	 2.8930
 2.9230	 2.9790
 2.9250	 3.0530
 2.9260	 2.9540
 2.9280	 2.9920
 2.9300	 2.7930
 2.9310	 2.9330
 2.9330	 2.7960
 2.9350	 2.6030
 2.9360	 2.7960
 2.9380	 3.1580
 2.9400	 3.5110
 2.9410	 3.3450
 2.9430	 2.6020
 2.9450	 2.5690
 2.9460	 2.6860
 2.9480	 2.8240
 2.9500	 2.7840
 2.9510	 2.6800
 2.9530	 2.4970
 2.9550	 1.8900
 2.9560	 1.7750
 2.9580	 2.5900
 2.9600	 3.1400
 2.9610	 2.8220
 2.9630	 2.4630
 2.9650	 3.4090
 2.9660	 3.9610
 2.9680	 3.2670
 2.9700	 3.6840
 2.9720	 2.2580
 2.9730	 0.9130
 2.9750	 1.5940
 2.9770	 3.2790
 2.9780	 3.5570
 2.9800	 3.4610
 2.9820	 4.3850
 2.9840	 2.5060
 2.9850	 1.8630
 2.9870	 1.5470
 2.9890	 1.7060
 2.9900	 3.3910
 2.9920	 3.2060
 2.9940	 2.8140
 2.9960	 5.4850
 2.9970	 3.5420
 2.9990	 0.4150
 3.0010	 0.8320
 3.0030	 2.6240
 3.0040	 2.4110
 3.0060	 2.5620
 3.0080	 3.3720
 3.0100	 3.5470
 3.0110	 3.3210
 3.0130	 4.9730
 3.0150	 5.3210
 3.0170	 3.9960
 3.0180	 3.2010
 3.0200	 2.5960
 3.0220	 2.5000
 3.0240	 2.4750
 3.0250	 2.9120
 3.0270	 3.1070
 3.0290	 3.5810
 3.0310	 3.3000
 3.0320	 3.1800
 3.0340	 3.7180
 3.0360	 2.7070
 3.0380	 3.6250
 3.0400	 5.4380
 3.0410	 3.7730
 3.0430	 1.9560
 3.0450	 2.9590
 3.0470	 4.0040
 3.0480	 1.6150
 3.0500	 0.2720
 3.0520	 2.3770
 3.0540	 3.0530
 3.0560	 2.1860
 3.0570	 2.8040
 3.0590	 3.9310
 3.0610	 3.4600
 3.0630	 1.1250
 3.0650	 1.7690
 3.0660	 3.0580
 3.0680	 3.7660
 3.0700	 3.5540
 3.0720	 3.3560
 3.0740	 4.2680
 3.0760	 4.1180
 3.0770	 3.4940
 3.0790	 3.2220
 3.0810	 3.4180
 3.0830	 3.4310
 3.0850	 3.5720
 3.0870	 3.5260
 3.0880	 3.5530
 3.0900	 3.1670
 3.0920	 2.8270
 3.0940	 2.9330
 3.0960	 3.3870
 3.0980	 3.4690
 3.0990	 3.3290
 3.1010	 3.6320
 3.1030	 3.8050
 3.1050	 3.4810
 3.1070	 3.8450
 3.1090	 3.2090
 3.1110	 2.8540
 3.1120	 3.2830
 3.1140	 3.8160
 3.1160	 3.8310
 3.1180	 3.4380
 3.1200	 3.1310
 3.1220	 3.9040
 3.1240	 4.1830
 3.1260	 4.0640
 3.1270	 3.8480
 3.1290	 3.9930
 3.1310	 4.1790
 3.1330	 4.1030
 3.1350	 4.3820
 3.1370	 4.7510
 3.1390	 3.7910
 3.1410	 4.3840
 3.1430	 5.3480
 3.1450	 4.0890
 3.1460	 3.2740
 3.1480	 2.4280
 3.1500	 2.1240
 3.1520	 4.0530
 3.1540	 5.8340
 3.1560	 5.5370
 3.1580	 3.9840
 3.1600	 3.9820
 3.1620	 5.0860
 3.1640	 5.9300
 3.1660	 4.0170
 3.1680	 2.2890
 3.1700	 3.9600
 3.1710	 5.1920
 3.1730	 5.6100
 3.1750	 4.2370
 3.1770	 2.1400
 3.1790	 1.5060
 3.1810	 3.5900
 3.1830	 4.4380
 3.1850	 3.6110
 3.1870	 4.1880
 3.1890	 3.9660
 3.1910	 3.2460
 3.1930	 3.6110
 3.1950	 4.1440
 3.1970	 4.4270
 3.1990	 4.5730
 3.2010	 4.3670
 3.2030	 4.2840
 3.2050	 4.2440
 3.2070	 4.2350
 3.2090	 4.2520
 3.2110	 4.2120
 3.2130	 4.2310
 3.2150	 4.4970
 3.2170	 4.4030
 3.2190	 4.2510
 3.2210	 4.1980
 3.2230	 4.2460
 3.2250	 4.1860
 3.2270	 4.2050
 3.2290	 4.2220
 3.2310	 4.6160
 3.2330	 4.8200
 3.2350	 4.3150
 3.2370	 4.3730
 3.2390	 4.7170
 3.2410	 4.5930
 3.2430	 4.4640
 3.2450	 4.5120
 3.2470	 4.6400
 3.2490	 4.6840
 3.2510	 4.7330
 3.2530	 4.3510
 3.2550	 4.0710
 3.2570	 4.2480
 3.2590	 4.3360
 3.2610	 4.3330
 3.2630	 4.5330
 3.2650	 4.5240
 3.2670	 4.4780
 3.2690	 4.4400
 3.2720	 4.4300
 3.2740	 4.0630
 3.2760	 3.9890
 3.2780	 4.3580
 3.2800	 4.7040
 3.2820	 4.5850
 3.2840	 4.5530
 3.2860	 4.5070
 3.2880	 4.3290
 3.2900	 4.1700
 3.2920	 4.4430
 3.2940	 4.7190
 3.2960	 4.6340
 3.2990	 4.1630
 3.3010	 3.8210
 3.3030	 4.0250
 3.3050	 4.3630
 3.3070	 4.3770
 3.3090	 4.3770
 3.3110	 4.3250
 3.3130	 4.6570
 3.3150	 4.6810
 3.3180	 4.4940
 3.3200	 4.3380
 3.3220	 4.3630
 3.3240	 4.4140
 3.3260	 4.3100
 3.3280	 4.1360
 3.3300	 4.3430
 3.3330	 4.5280
 3.3350	 4.6370
 3.3370	 4.3950
 3.3390	 4.1670
 3.3410	 4.2700
 3.3430	 4.3060
 3.3450	 4.1950
 3.3480	 4.4570
 3.3500	 4.4660
 3.3520	 4.4600
 3.3540	 4.4640
 3.3560	 4.5610
 3.3580	 4.5210
 3.3610	 4.4960
 3.3630	 4.4190
 3.3650	 4.4160
 3.3670	 4.1370
 3.3690	 4.1580
 3.3720	 4.2980
 3.3740	 4.4520
 3.3760	 4.5890
 3.3780	 4.8570
 3.3800	 4.7230
 3.3830	 4.6560
 3.3850	 4.6490
 3.3870	 4.6560
 3.3890	 4.7250
 3.3910	 4.9380
 3.3940	 5.0840
 3.3960	 4.8740
 3.3980	 4.4100
 3.4000	 4.6440
 3.4020	 4.9060
 3.4050	 5.2410
 3.4070	 5.3960
 3.4090	 5.3670
 3.4110	 5.5010
 3.4140	 5.7660
 3.4160	 5.9520
 3.4180	 6.3150
 3.4200	 6.7230
 3.4230	 7.2180
 3.4250	 7.7930
 3.4270	 8.5270
 3.4290	 8.8770
 3.4320	 8.7030
 3.4340	 8.0110
 3.4360	 7.3600
 3.4390	 7.0540
 3.4410	 6.8620
 3.4430	 6.6110
 3.4450	 6.4530
 3.4480	 6.3630
 3.4500	 6.4950
 3.4520	 6.4360
 3.4550	 6.3060
 3.4570	 5.7200
 3.4590	 5.6380
 3.4620	 6.0050
 3.4640	 6.1410
 3.4660	 5.8940
 3.4680	 5.7110
 3.4710	 5.6620
 3.4730	 5.5520
 3.4750	 5.3590
 3.4780	 5.4420
 3.4800	 5.5700
 3.4820	 5.4960
 3.4850	 5.4690
 3.4870	 5.4650
 3.4890	 5.2670
 3.4920	 5.4490
 3.4940	 5.5750
 3.4970	 5.4650
 3.4990	 5.6040
 3.5010	 5.9460
 3.5040	 6.2330
 3.5060	 6.6360
 3.5080	 7.4540
 3.5110	 8.1080
 3.5130	 7.9850
 3.5160	 7.5240
 3.5180	 7.1740
 3.5200	 6.8910
 3.5230	 6.5010
 3.5250	 6.1700
 3.5270	 5.9460
 3.5300	 6.0220
 3.5320	 6.0770
 3.5350	 5.8940
 3.5370	 5.7050
 3.5400	 5.6950
 3.5420	 5.7830
 3.5440	 6.0140
 3.5470	 5.9450
 3.5490	 5.7210
 3.5520	 5.6950
 3.5540	 5.6960
 3.5570	 5.6600
 3.5590	 5.8340
 3.5610	 5.6680
 3.5640	 5.5130
 3.5660	 5.6780
 3.5690	 5.7420
 3.5710	 5.6150
 3.5740	 5.5870
 3.5760	 5.6490
 3.5790	 5.5800
 3.5810	 5.5100
 3.5840	 5.5010
 3.5860	 5.6790
 3.5890	 5.8330
 3.5910	 5.7170
 3.5930	 6.0420
 3.5960	 5.8240
 3.5980	 5.1180
 3.6010	 5.1520
 3.6030	 5.5520
 3.6060	 5.7680
 3.6080	 5.9160
 3.6110	 5.8660
 3.6140	 5.6400
 3.6160	 5.5120
 3.6190	 5.5950
 3.6210	 5.6400
 3.6240	 5.7800
 3.6260	 5.8230
 3.6290	 5.6340
 3.6310	 5.3940
 3.6340	 5.3280
 3.6360	 5.4590
 3.6390	 5.7790
 3.6410	 5.7560
 3.6440	 5.6960
 3.6470	 5.7370
 3.6490	 5.8580
 3.6520	 5.7630
 3.6540	 5.6520
 3.6570	 5.7230
 3.6590	 5.7110
 3.6620	 5.6190
 3.6650	 5.7100
 3.6670	 5.8920
 3.6700	 6.0480
 3.6720	 5.8950
 3.6750	 5.8380
 3.6780	 5.7830
 3.6800	 5.8390
 3.6830	 5.8750
 3.6850	 5.7620
 3.6880	 5.7460
 3.6910	 5.8440
 3.6930	 5.9070
 3.6960	 5.9410
 3.6990	 5.9590
 3.7010	 6.0460
 3.7040	 6.0470
 3.7060	 6.0480
 3.7090	 6.0210
 3.7120	 6.0240
 3.7140	 6.1530
 3.7170	 6.2180
 3.7200	 6.0600
 3.7220	 6.0890
 3.7250	 6.1520
 3.7280	 6.1020
 3.7300	 6.0180
 3.7330	 6.1260
 3.7360	 6.0580
 3.7390	 6.1720
 3.7410	 6.3100
 3.7440	 6.3890
 3.7470	 6.2160
 3.7490	 6.1410
 3.7520	 6.1940
 3.7550	 6.1480
 3.7580	 6.1450
 3.7600	 6.2600
 3.7630	 6.4280
 3.7660	 6.4850
 3.7680	 6.5450
 3.7710	 6.5370
 3.7740	 6.5140
 3.7770	 6.5750
 3.7790	 6.4740
 3.7820	 6.4150
 3.7850	 6.5040
 3.7880	 6.6230
 3.7900	 6.5840
 3.7930	 6.5700
 3.7960	 6.5940
 3.7990	 6.6290
 3.8020	 6.7250
 3.8040	 6.7240
 3.8070	 6.7300
 3.8100	 6.7890
 3.8130	 6.6830
 3.8160	 6.5960
 3.8180	 6.5590
 3.8210	 6.5710
 3.8240	 6.6900
 3.8270	 6.8750
 3.8300	 6.8560
 3.8330	 6.7640
 3.8350	 6.7920
 3.8380	 7.0580
 3.8410	 6.9160
 3.8440	 6.5660
 3.8470	 6.6340
 3.8500	 6.8990
 3.8520	 6.8130
 3.8550	 6.6750
 3.8580	 6.8260
 3.8610	 6.9820
 3.8640	 6.9440
 3.8670	 6.8660
 3.8700	 6.9060
 3.8730	 6.9210
 3.8750	 6.8260
 3.8780	 6.8470
 3.8810	 6.9640
 3.8840	 7.0710
 3.8870	 7.0730
 3.8900	 7.0660
 3.8930	 7.0040
 3.8960	 7.0210
 3.8990	 7.0240
 3.9020	 6.9810
 3.9050	 6.9930
 3.9080	 7.0010
 3.9110	 7.0690
 3.9140	 7.1230
 3.9160	 7.0650
 3.9190	 7.0760
 3.9220	 7.0940
 3.9250	 7.0450
 3.9280	 7.0150
 3.9310	 7.0330
 3.9340	 7.0520
 3.9370	 7.0250
 3.9400	 7.0140
 3.9430	 6.9890
 3.9460	 6.9710
 3.9490	 6.9080
 3.9520	 6.9370
 3.9550	 7.0160
 3.9580	 6.9960
 3.9610	 7.0100
 3.9640	 6.9800
 3.9670	 6.9760
 3.9700	 6.9020
 3.9730	 6.8920
 3.9770	 6.8500
 3.9800	 6.8220
 3.9830	 6.8980
 3.9860	 6.9730
 3.9890	 6.8880
 3.9920	 6.9000
 3.9950	 6.9900
 3.9980	 6.9640
 4.0010	 6.7850
 4.0040	 6.7980
 4.0070	 6.8590
 4.0100	 6.8550
 4.0130	 6.7930
 4.0170	 6.7870
 4.0200	 6.8260
 4.0230	 6.8040
 4.0260	 6.6480
 4.0290	 6.6290
 4.0320	 6.7020
 4.0350	 6.7780
 4.0380	 6.7960
 4.0420	 6.7720
 4.0450	 6.7200
 4.0480	 6.7210
 4.0510	 6.6500
 4.0540	 6.5710
 4.0570	 6.6410
 4.0610	 6.7440
 4.0640	 6.7200
 4.0670	 6.7140
 4.0700	 6.5050
 4.0730	 6.4200
 4.0770	 6.5080
 4.0800	 6.4700
 4.0830	 6.3360
 4.0860	 6.3420
 4.0890	 6.3400
 4.0930	 6.4330
 4.0960	 6.4380
 4.0990	 6.4780
 4.1020	 6.4450
 4.1060	 6.3650
 4.1090	 6.3240
 4.1120	 6.4210
 4.1150	 6.4730
 4.1190	 6.3290
 4.1220	 6.1310
 4.1250	 6.2000
 4.1280	 6.2670
 4.1320	 6.2920
 4.1350	 6.2950
 4.1380	 6.3020
 4.1420	 6.1570
 4.1450	 6.0350
 4.1480	 6.1140
 4.1520	 6.2440
 4.1550	 6.1820
 4.1580	 6.0600
 4.1620	 6.0400
 4.1650	 6.0550
 4.1680	 6.0640
 4.1720	 6.0690
 4.1750	 6.0570
 4.1780	 6.0260
 4.1820	 6.0330
 4.1850	 5.9990
 4.1890	 5.9840
 4.1920	 6.0420
 4.1950	 6.0000
 4.1990	 5.9810
 4.2020	 6.0370
 4.2060	 5.9320
 4.2090	 5.8650
 4.2120	 5.9100
 4.2160	 5.8380
 4.2190	 5.6040
 4.2230	 5.4760
 4.2260	 5.4020
 4.2300	 5.6010
 4.2330	 5.9050
 4.2360	 5.4360
 4.2400	 5.1010
 4.2430	 5.3580
 4.2470	 5.4300
 4.2500	 5.4050
 4.2540	 5.5120
 4.2570	 5.4140
 4.2610	 5.2890
 4.2640	 5.4910
 4.2680	 5.3550
 4.2710	 3.9610
 4.2750	 4.3350
 4.2780	 5.1720
 4.2820	 5.3370
 4.2850	 5.5180
 4.2890	 5.5830
 4.2930	 5.2700
 4.2960	 5.1840
 4.3000	 5.2730
 4.3030	 5.4110
 4.3070	 5.4410
 4.3100	 5.2990
 4.3140	 5.1370
 4.3180	 5.1130
 4.3210	 5.1250
 4.3250	 5.2520
 4.3280	 5.1770
 4.3320	 5.0480
 4.3360	 5.1420
 4.3390	 5.2120
 4.3430	 5.1410
 4.3470	 5.0560
 4.3500	 5.0780
 4.3540	 5.1650
 4.3570	 5.1780
 4.3610	 5.1140
 4.3650	 5.1090
 4.3680	 5.1470
 4.3720	 5.1470
 4.3760	 5.1540
 4.3800	 5.1700
 4.3830	 5.0360
 4.3870	 4.9090
 4.3910	 4.8490
 4.3940	 4.7580
 4.3980	 4.7280
 4.4020	 4.8250
 4.4060	 4.8510
 4.4090	 4.8330
 4.4130	 4.8330
 4.4170	 4.9080
 4.4210	 4.8370
 4.4240	 4.8040
 4.4280	 4.8390
 4.4320	 4.8820
 4.4360	 4.9290
 4.4400	 4.8580
 4.4430	 4.8970
 4.4470	 4.9360
 4.4510	 4.8320
 4.4550	 4.6830
 4.4590	 4.6730
 4.4620	 4.7090
 4.4660	 4.7690
 4.4700	 4.7850
 4.4740	 4.7850
 4.4780	 4.8260
 4.4820	 4.7930
 4.4860	 4.7220
 4.4900	 4.6700
 4.4930	 4.6650
 4.4970	 4.6130
 4.5010	 4.6170
 4.5050	 4.6530
 4.5090	 4.6880
 4.5130	 4.6830
 4.5170	 4.6970
 4.5210	 4.7520
 4.5250	 4.5960
 4.5290	 4.4670
 4.5330	 4.5600
 4.5370	 4.5600
 4.5410	 4.5190
 4.5450	 4.5680
 4.5490	 4.5880
 4.5530	 4.6700
 4.5570	 4.6000
 4.5610	 4.5010
 4.5650	 4.4590
 4.5690	 4.4880
 4.5730	 4.4270
 4.5770	 4.4010
 4.5810	 4.4680
 4.5850	 4.4620
 4.5890	 4.4750
 4.5930	 4.4510
 4.5970	 4.4720
 4.6010	 4.5040
 4.6050	 4.4770
 4.6090	 4.4000
 4.6130	 4.4330
 4.6170	 4.5110
 4.6220	 4.4090
 4.6260	 4.3260
 4.6300	 4.3330
 4.6340	 4.4170
 4.6380	 4.4850
 4.6420	 4.4310
 4.6460	 4.4520
 4.6510	 4.5670
 4.6550	 4.5720
 4.6590	 4.4040
 4.6630	 4.3180
 4.6670	 4.3570
 4.6720	 4.4770
 4.6760	 4.4060
 4.6800	 4.3780
 4.6840	 4.3680
 4.6880	 4.3890
 4.6930	 4.2920
 4.6970	 4.2270
 4.7010	 4.1940
 4.7050	 4.3380
 4.7100	 4.4440
 4.7140	 4.3240
 4.7180	 4.2950
 4.7230	 4.4800
 4.7270	 4.5660
 4.7310	 4.4370
 4.7360	 4.3600
 4.7400	 4.4100
 4.7440	 4.3560
 4.7490	 4.2680
 4.7530	 4.1520
 4.7570	 4.1490
 4.7620	 4.2210
 4.7660	 4.3310
 4.7700	 4.3740
 4.7750	 4.3550
 4.7790	 4.2230
 4.7840	 4.0030
 4.7880	 3.9680
 4.7920	 4.1580
 4.7970	 3.9880
 4.8010	 4.1390
 4.8060	 4.4150
 4.8100	 4.3250
 4.8150	 4.2320
 4.8190	 4.3400
 4.8240	 4.3880
 4.8280	 4.4430
 4.8330	 4.4910
 4.8370	 4.4370
 4.8420	 4.5270
 4.8460	 4.5440
 4.8510	 4.4310
 4.8550	 4.3320
 4.8600	 4.3700
 4.8640	 4.5170
 4.8690	 4.5280
 4.8730	 4.5020
 4.8780	 4.3970
 4.8830	 4.4230
 4.8870	 4.4560
 4.8920	 4.3930
 4.8960	 4.4340
 4.9010	 4.5180
 4.9060	 4.5160
 4.9100	 4.5190
 4.9150	 4.5600
 4.9200	 4.6210
 4.9240	 4.6060
 4.9290	 4.5750
 4.9340	 4.6150
 4.9380	 4.7020
 4.9430	 4.6360
 4.9480	 4.5080
 4.9530	 4.5410
 4.9570	 4.5890
 4.9620	 4.5760
 4.9670	 4.6160
 4.9720	 4.7070
 4.9760	 4.7000
 4.9810	 4.6250
 4.9860	 4.6140
 4.9910	 4.6270
 4.9960	 4.7620
 5.0000	 4.8050
 5.0050	 4.7180
 5.0100	 4.7250
 5.0150	 4.8170
 5.0200	 4.8510
 5.0250	 4.8260
 5.0290	 4.9050
 5.0340	 4.9560
 5.0390	 4.8800
 5.0440	 4.7720
 5.0490	 4.7630
 5.0540	 4.8710
 5.0590	 4.8690
 5.0640	 4.7990
 5.0690	 4.8300
 5.0740	 4.8650
 5.0790	 4.9240
 5.0840	 4.9770
 5.0890	 5.0620
 5.0940	 5.1090
 5.0990	 5.0730
 5.1040	 5.0550
 5.1090	 5.0760
 5.1140	 5.0620
 5.1190	 5.0040
 5.1240	 5.1620
 5.1290	 5.3120
 5.1340	 5.1510
 5.1390	 5.0170
 5.1440	 5.0350
 5.1490	 5.0740
 5.1540	 5.1720
 5.1600	 5.1280
 5.1650	 5.0130
 5.1700	 5.0270
 5.1750	 5.1690
 5.1800	 5.2810
 5.1850	 5.3420
 5.1910	 5.2960
 5.1960	 5.2350
 5.2010	 5.2490
 5.2060	 5.2800
 5.2110	 5.3030
 5.2170	 5.2690
 5.2220	 5.1760
 5.2270	 5.2610
 5.2320	 5.3650
 5.2380	 5.3910
 5.2430	 5.3990
 5.2480	 5.4470
 5.2540	 5.3780
 5.2590	 5.3510
 5.2640	 5.3030
 5.2700	 5.2260
 5.2750	 5.2660
 5.2800	 5.4180
 5.2860	 5.3970
 5.2910	 5.2480
 5.2970	 5.2090
 5.3020	 5.2380
 5.3070	 5.2370
 5.3130	 5.2700
 5.3180	 5.2760
 5.3240	 5.2620
 5.3290	 5.2520
 5.3350	 5.3110
 5.3400	 5.3260
 5.3460	 5.3680
 5.3510	 5.3180
 5.3570	 5.2790
 5.3620	 5.2710
 5.3680	 5.2690
 5.3730	 5.2320
 5.3790	 5.2190
 5.3850	 5.1930
 5.3900	 5.2250
 5.3960	 5.2310
 5.4010	 5.2150
 5.4070	 5.0470
 5.4130	 4.9030
 5.4180	 4.8250
 5.4240	 4.9210
 5.4300	 5.0220
 5.4350	 5.1100
 5.4410	 5.0230
 5.4470	 4.9440
 5.4530	 4.8770
 5.4580	 4.8990
 5.4640	 4.9220
 5.4700	 4.8730
 5.4760	 4.8100
 5.4810	 4.8120
 5.4870	 4.7680
 5.4930	 4.7790
 5.4990	 4.6950
 5.5050	 4.6850
 5.5110	 4.6270
 5.5160	 4.6110
 5.5220	 4.6190
 5.5280	 4.6200
 5.5340	 4.5640
 5.5400	 4.5190
 5.5460	 4.4390
 5.5520	 4.3240
 5.5580	 4.2940
 5.5640	 4.3510
 5.5700	 4.3080
 5.5760	 4.3560
 5.5820	 4.3180
 5.5880	 4.2690
 5.5940	 4.2400
 5.6000	 4.2210
 5.6060	 4.2060
 5.6120	 4.1460
 5.6180	 4.0290
 5.6240	 4.0100
 5.6300	 3.9690
 5.6360	 3.9990
 5.6420	 3.9610
 5.6490	 3.8980
 5.6550	 3.7840
 5.6610	 3.7110
 5.6670	 3.6120
 5.6730	 3.5900
 5.6800	 3.6250
 5.6860	 3.6940
 5.6920	 3.6040
 5.6980	 3.4950
 5.7040	 3.4380
 5.7110	 3.4780
 5.7170	 3.3340
 5.7230	 3.2130
 5.7300	 3.2230
 5.7360	 3.4390
 5.7420	 3.5510
 5.7490	 3.6400
 5.7550	 3.5730
 5.7620	 3.6140
 5.7680	 3.8120
 5.7740	 4.0120
 5.7810	 3.9480
 5.7870	 3.8530
 5.7940	 3.7370
 5.8000	 3.6730
 5.8070	 3.5510
 5.8130	 3.6710
 5.8200	 3.7130
 5.8260	 3.8300
 5.8330	 3.8510
 5.8390	 3.7850
 5.8460	 3.7130
 5.8530	 3.7010
 5.8590	 3.7040
 5.8660	 3.6510
 5.8720	 3.5640
 5.8790	 3.6100
 5.8860	 3.5970
 5.8920	 3.5500
 5.8990	 3.4540
 5.9060	 3.4310
 5.9130	 3.4170
 5.9190	 3.4490
 5.9260	 3.3880
 5.9330	 3.3790
 5.9400	 3.3580
 5.9470	 3.3950
 5.9530	 3.3760
 5.9600	 3.4020
 5.9670	 3.3830
 5.9740	 3.4280
 5.9810	 3.4080
 5.9880	 3.4850
 5.9950	 3.4280
 6.0020	 3.3040
 6.0090	 3.1430
 6.0160	 3.1770
 6.0230	 3.1820
 6.0300	 3.3430
 6.0370	 3.5100
 6.0440	 3.4660
 6.0510	 3.3400
 6.0580	 3.3860
 6.0650	 3.3300
 6.0720	 3.3640
 6.0790	 3.3320
 6.0860	 3.5110
 6.0930	 3.5740
 6.1000	 3.6320
 6.1080	 3.6330
 6.1150	 3.6490
 6.1220	 3.7550
 6.1290	 3.8680
 6.1370	 3.7180
 6.1440	 3.6280
 6.1510	 3.6410
 6.1580	 3.7940
 6.1660	 3.7250
 6.1730	 3.7320
 6.1800	 3.8430
 6.1880	 4.0040
 6.1950	 3.9480
 6.2030	 3.8970
 6.2100	 3.7980
 6.2170	 3.9850
 6.2250	 3.9720
 6.2320	 3.9250
 6.2400	 4.0160
 6.2470	 4.2730
 6.2550	 4.2540
 6.2630	 4.2960
 6.2700	 4.2490
 6.2780	 4.2060
 6.2850	 4.2460
 6.2930	 4.4370
 6.3010	 4.4460
 6.3080	 4.4820
 6.3160	 4.5020
 6.3240	 4.5430
 6.3310	 4.4980
 6.3390	 4.4980
 6.3470	 4.3360
 6.3550	 4.4480
 6.3620	 4.5190
 6.3700	 4.5660
 6.3780	 4.4500
 6.3860	 4.5280
 6.3940	 4.4980
 6.4020	 4.4190
 6.4100	 4.3830
 6.4180	 4.4380
 6.4260	 4.3240
 6.4330	 4.3890
 6.4410	 4.3210
 6.4490	 4.3400
 6.4580	 4.3850
 6.4660	 4.3380
 6.4740	 4.1970
 6.4820	 4.2750
 6.4900	 4.3400
 6.4980	 4.3900
 6.5060	 4.2780
 6.5140	 4.3080
 6.5230	 4.3150
 6.5310	 4.3260
 6.5390	 4.1390
 6.5470	 4.0760
 6.5550	 4.1840
 6.5640	 4.2410
 6.5720	 4.1290
 6.5800	 4.2840
 6.5890	 4.3090
 6.5970	 4.2670
 6.6060	 4.1050
 6.6140	 4.1270
 6.6220	 4.1410
 6.6310	 4.1530
 6.6390	 4.0230
 6.6480	 3.9310
 6.6560	 3.9310
 6.6650	 3.9830
 6.6740	 3.9680
 6.6820	 4.0300
 6.6910	 3.9630
 6.6990	 3.9910
 6.7080	 3.9490
 6.7170	 4.0110
 6.7260	 3.9540
 6.7340	 3.9680
 6.7430	 3.8500
 6.7520	 3.7920
 6.7610	 3.8500
 6.7690	 3.9230
 6.7780	 3.9160
 6.7870	 4.1960
 6.7960	 4.1820
 6.8050	 4.2350
 6.8140	 4.1060
 6.8230	 3.9740
 6.8320	 4.0770
 6.8410	 4.2100
 6.8500	 4.0120
 6.8590	 3.8380
 6.8680	 3.9040
 6.8770	 3.9620
 6.8860	 3.7150
 6.8950	 3.7450
 6.9050	 3.6740
 6.9140	 3.7000
 6.9230	 3.6140
 6.9320	 3.7340
 6.9420	 3.8780
 6.9510	 3.8800
 6.9600	 3.5410
 6.9700	 3.5010
 6.9790	 3.4680
 6.9880	 3.5460
 6.9980	 3.6430
 7.0070	 3.8200
 7.0170	 3.7790
 7.0260	 3.8620
 7.0360	 3.8160
 7.0450	 3.8540
 7.0550	 3.7460
 7.0650	 3.8580
 7.0740	 4.0490
 7.0840	 4.0790
 7.0940	 3.9920
 7.1030	 3.9850
 7.1130	 3.9280
 7.1230	 3.9900
 7.1330	 3.8400
 7.1420	 3.8400
 7.1520	 3.9320
 7.1620	 4.1270
 7.1720	 4.0400
 7.1820	 4.0260
 7.1920	 3.8810
 7.2020	 3.9180
 7.2120	 3.8130
 7.2220	 3.7680
 7.2320	 3.6870
 7.2420	 3.6900
 7.2520	 3.6120
 7.2620	 3.6580
 7.2730	 3.6710
 7.2830	 3.8270
 7.2930	 3.7330
 7.3030	 3.7940
 7.3140	 3.7860
 7.3240	 3.8090
 7.3340	 3.7140
 7.3450	 3.8180
 7.3550	 3.8700
 7.3660	 3.9310
 7.3760	 3.8150
 7.3870	 3.6910
 7.3970	 3.7640
 7.4080	 3.9180
 7.4180	 3.7200
 7.4290	 3.7000
 7.4400	 3.5410
 7.4500	 3.5870
 7.4610	 3.6180
 7.4720	 3.6610
 7.4830	 3.5610
 7.4930	 3.6080
 7.5040	 3.5480
 7.5150	 3.6680
 7.5260	 3.6460
 7.5370	 3.8390
 7.5480	 3.8370
 7.5590	 3.7300
 7.5700	 3.7250
 7.5810	 3.9300
 7.5920	 3.8640
 7.6030	 3.7940
 7.6140	 3.6930
 7.6260	 3.8510
 7.6370	 3.9950
 7.6480	 4.0140
 7.6590	 3.8660
 7.6710	 3.9230
 7.6820	 3.7930
 7.6930	 3.8360
 7.7050	 3.8450
 7.7160	 3.8970
 7.7280	 3.7290
 7.7390	 3.7260
 7.7510	 3.6800
 7.7630	 3.7760
 7.7740	 3.7540
 7.7860	 3.7160
 7.7980	 3.5730
 7.8090	 3.7140
 7.8210	 3.6880
 7.8330	 3.5810
 7.8450	 3.4280
 7.8570	 3.5030
 7.8690	 3.5040
 7.8810	 3.6790
 7.8930	 3.6070
 7.9050	 3.7250
 7.9170	 3.6810
 7.9290	 3.7200
 7.9410	 3.5350
 7.9530	 3.6110
 7.9650	 3.5190
 7.9780	 3.4880
 7.9900	 3.4410
 8.0020	 3.6180
 8.0150	 3.5930
 8.0270	 3.6090
 8.0390	 3.3880
 8.0520	 3.3580
 8.0640	 3.4750
 8.0770	 3.7390
 8.0900	 3.7290
 8.1020	 3.8290
 8.1150	 3.7100
 8.1280	 3.7200
 8.1400	 3.4760
 8.1530	 3.4370
 8.1660	 3.4520
 8.1790	 3.6950
 8.1920	 3.7960
 8.2050	 3.9610
 8.2180	 3.7980
 8.2310	 3.7850
 8.2440	 3.5940
 8.2570	 3.6430
 8.2700	 3.5580
 8.2830	 3.5910
 8.2970	 3.5590
 8.3100	 3.6770
 8.3230	 3.4300
 8.3370	 3.4540
 8.3500	 3.4490
 8.3640	 3.5200
 8.3770	 3.3850
 8.3910	 3.3980
 8.4040	 3.2620
 8.4180	 3.3870
 8.4320	 3.3030
 8.4450	 3.4220
 8.4590	 3.1740
 8.4730	 3.0380
 8.4870	 2.8760
 8.5010	 3.1470
 8.5150	 3.0830
 8.5290	 3.0670
 8.5430	 2.7280
 8.5570	 2.5240
 8.5710	 2.3760
 8.5850	 2.5310
 8.5990	 2.6300
 8.6140	 2.9380
 8.6280	 2.8190
 8.6420	 2.9940
 8.6570	 3.0190
 8.6710	 3.0810
 8.6860	 2.9580
 8.7000	 3.1410
 8.7150	 3.1460
 8.7300	 3.2420
 8.7440	 3.1420
 8.7590	 3.1850
 8.7740	 3.0190
 8.7890	 3.0900
 8.8040	 2.8130
 8.8190	 2.8390
 8.8340	 2.8190
 8.8490	 2.7510
 8.8640	 2.5430
 8.8790	 2.5350
 8.8940	 2.4000
 8.9100	 2.8250
 8.9250	 2.7880
 8.9400	 2.7070
 8.9560	 2.6690
 8.9710	 2.9050
 8.9870	 2.6860
 9.0020	 2.6930
 9.0180	 2.6430
 9.0340	 3.1430
 9.0500	 3.1710
 9.0650	 3.3530
 9.0810	 3.2480
 9.0970	 3.5450
 9.1130	 3.4240
 9.1290	 3.5330
 9.1450	 3.2520
 9.1610	 3.2280
 9.1780	 2.8220
 9.1940	 2.8210
 9.2100	 2.9420
 9.2270	 3.1160
 9.2430	 2.8420
 9.2600	 3.0610
 9.2760	 2.9590
 9.2930	 3.1460
 9.3090	 3.1030
 9.3260	 3.2300
 9.3430	 3.1540
 9.3600	 3.4480
 9.3770	 3.5140
 9.3940	 3.5250
 9.4110	 3.3020
 9.4280	 3.4580
 9.4450	 3.4570
 9.4620	 3.7110
 9.4800	 3.5520
 9.4970	 3.6660
 9.5140	 3.7460
 9.5320	 4.1280
 9.5500	 4.0650
 9.5670	 4.0410
 9.5850	 3.8390
 9.6030	 4.0270
 9.6200	 3.8300
 9.6380	 3.6720
 9.6560	 3.7140
 9.6740	 4.2480
 9.6920	 4.4400
 9.7100	 4.5920
 9.7290	 4.3850
 9.7470	 4.6700
 9.7650	 4.6480
 9.7840	 4.8630
 9.8020	 4.7120
 9.8210	 4.9440
 9.8390	 4.9300
 9.8580	 5.1590
 9.8770	 5.1560
 9.8960	 5.2740
 9.9150	 5.3790
 9.9340	 5.7180
 9.9530	 5.5850
 9.9720	 5.6720
 9.9910	 5.5940
10.0100	 5.6050
10.0300	 5.3480
10.0490	 5.3580
10.0690	 5.1740
10.0880	 5.5520
10.1080	 5.3850
10.1280	 5.3140
10.1480	 5.1600
10.1670	 5.2150
10.1870	 4.7890
10.2070	 4.8690
10.2280	 5.0120
10.2480	 5.0850
10.2680	 4.7230
10.2890	 4.6950
10.3090	 4.4930
10.3300	 4.5530
10.3500	 4.4500
10.3710	 4.6390
10.3920	 4.5890
10.4120	 4.8200
10.4330	 4.8490
10.4540	 4.8930
10.4760	 4.7770
10.4970	 4.9830
10.5180	 4.6670
10.5390	 4.6320
10.5610	 4.4320
10.5820	 4.6910
10.6040	 4.4400
10.6260	 4.4180
10.6480	 4.3310
10.6700	 4.2800
10.6920	 3.9220
10.7140	 4.0790
10.7360	 4.1310
10.7580	 4.4240
10.7800	 4.0460
10.8030	 3.9620
10.8250	 3.7650
10.8480	 3.8410
10.8710	 3.8310
10.8940	 4.0840
10.9170	 3.7030
10.9400	 3.6130
10.9630	 3.5370
10.9860	 3.8290
11.0090	 3.3800
11.0330	 3.4350
11.0560	 3.3170
11.0800	 3.3210
11.1040	 2.7720
11.1270	 2.8010
11.1510	 2.9880
11.1750	 3.1980
11.2000	 3.0460
11.2240	 3.3290
11.2480	 3.2100
11.2730	 3.0100
11.2970	 2.6630
11.3220	 2.8980
11.3470	 3.0900
11.3720	 3.4320
11.3970	 3.1590
11.4220	 3.1720
11.4470	 3.1660
11.4720	 3.4530
11.4980	 2.9900
11.5230	 2.9420
11.5490	 2.8670
11.5750	 3.1710
11.6000	 2.7890
11.6260	 2.6700
11.6530	 2.5800
11.6790	 2.6860
11.7050	 2.3420
11.7320	 2.4540
11.7580	 2.0860
11.7850	 2.3520
11.8120	 2.3240
11.8390	 2.5420
11.8660	 2.4660
11.8930	 2.4580
11.9200	 2.2680
11.9480	 2.5410
11.9760	 2.2930
12.0030	 2.6530
12.0310	 2.8260
12.0590	 2.8380
12.0870	 2.2600
12.1150	 2.3220
12.1440	 2.3010
12.1720	 2.4810
12.2010	 2.0410
12.2300	 2.4930
12.2590	 2.5400
12.2880	 2.8530
12.3170	 2.5760
12.3460	 2.6940
12.3760	 2.3250
12.4050	 2.6190
12.4350	 2.2880
12.4650	 2.1680
12.4950	 1.8480
12.5250	 2.2380
12.5550	 2.1550
12.5860	 2.4730
12.6170	 2.3400
12.6470	 2.3710
12.6780	 2.1350
12.7090	 2.4150
12.7410	 1.9610
12.7720	 1.9710
12.8030	 2.0910
12.8350	 2.5720
12.8670	 2.2700
12.8990	 2.5580
12.9310	 2.2530
12.9640	 2.4170
12.9960	 2.1900
13.0290	 2.5110
13.0610	 2.3540
13.0940	 2.5580
13.1280	 2.3330
13.1610	 2.6120
13.1940	 2.2340
13.2280	 2.3640
13.2620	 2.0600
13.2960	 2.4350
13.3300	 2.4880
13.3640	 3.0270
13.3990	 2.6000
13.4340	 2.8280
13.4690	 2.6260
13.5040	 2.6870
13.5390	 2.3070
13.5740	 2.6610
13.6100	 2.3830
13.6460	 2.7360
13.6820	 2.5070
13.7180	 2.7000
13.7540	 2.8030
13.7910	 2.8030
13.8280	 2.3640
13.8650	 2.9510
13.9020	 3.0010
13.9390	 3.3230
13.9770	 2.6030
14.0150	 2.8500
14.0530	 2.8250
14.0910	 3.0590
14.1290	 2.5550
14.1680	 3.0200
14.2070	 2.9780
14.2460	 3.6490
14.2850	 3.2620
14.3240	 3.6430
14.3640	 3.3130
14.4040	 3.5340
14.4440	 3.3770
14.4840	 3.8360
14.5250	 3.1250
14.5660	 3.7030
14.6070	 3.5890
14.6480	 4.4120
14.6900	 3.5830
14.7310	 2.7400
14.7730	 2.0320
14.8150	 2.8430
14.8580	 2.3770
14.9010	 3.6600
14.9440	 7.2480
14.9870	 8.0510
15.0300	 3.3590
15.0740	 4.0550
15.1180	 4.0960
15.1620	 5.2040
15.2060	 3.4960
15.2510	 3.5520
15.2960	 3.3310
15.3410	 4.4860
15.3870	 3.9440
