Name: Quercus ilex
Type: vegetation
Class: Tree
Genus: Quercus
Species: ilex
Sample No.: JPL255
Owner: JPL
Wavelength Range: TIR
Origin: 34.13179; -118.11182; WGS84
Collection Date: 10/6/2016
Description: Samples were collected at the Huntington Garden in San Marino California as part of a JPL Subcontract studying HyTES imagery. Samples were taken to JPL and processed within 48 hours of collection. The same leaves were processed in the Nicolet and then measured using the ASD.
Measurement: Hemispherical reflectance
First Column: X
Second Column: Y
X Units: Wavelength (micrometer)
Y Units: Reflectance (percentage)
First X Value: 2.501
Last X Value: 15.387
Number of X Values: 1737
Additional Information: vegetation.tree.quercus.ilex.tir.jpl255.jpl.nicolet.ancillary.txt

 2.5010	 6.4120
 2.5030	 6.3460
 2.5040	 6.3150
 2.5050	 6.3070
 2.5060	 6.3300
 2.5070	 6.3470
 2.5090	 6.2960
 2.5100	 6.1840
 2.5110	 6.2200
 2.5120	 6.2670
 2.5140	 6.3340
 2.5150	 6.3370
 2.5160	 6.3580
 2.5170	 6.3300
 2.5180	 6.3060
 2.5200	 6.3050
 2.5210	 6.3330
 2.5220	 6.3190
 2.5230	 6.3950
 2.5250	 6.3680
 2.5260	 6.3040
 2.5270	 6.2090
 2.5280	 6.1760
 2.5300	 6.1900
 2.5310	 6.2700
 2.5320	 6.2920
 2.5330	 6.3290
 2.5340	 6.3200
 2.5360	 6.3280
 2.5370	 6.3060
 2.5380	 6.3090
 2.5390	 6.3340
 2.5410	 6.4040
 2.5420	 6.3840
 2.5430	 6.3410
 2.5440	 6.3010
 2.5460	 6.3040
 2.5470	 6.3580
 2.5480	 6.4350
 2.5490	 6.3870
 2.5510	 6.3540
 2.5520	 6.3890
 2.5530	 6.4000
 2.5540	 6.3960
 2.5560	 6.4350
 2.5570	 6.3680
 2.5580	 6.3620
 2.5590	 6.3890
 2.5610	 6.4370
 2.5620	 6.3840
 2.5630	 6.3890
 2.5650	 6.3650
 2.5660	 6.4460
 2.5670	 6.4920
 2.5680	 6.4920
 2.5700	 6.3960
 2.5710	 6.4010
 2.5720	 6.4470
 2.5730	 6.3980
 2.5750	 6.4070
 2.5760	 6.4480
 2.5770	 6.4190
 2.5790	 6.4170
 2.5800	 6.4470
 2.5810	 6.4150
 2.5820	 6.4250
 2.5840	 6.4670
 2.5850	 6.3940
 2.5860	 6.3680
 2.5880	 6.3350
 2.5890	 6.3490
 2.5900	 6.3110
 2.5910	 6.3940
 2.5930	 6.3590
 2.5940	 6.1950
 2.5950	 6.0450
 2.5970	 6.1890
 2.5980	 6.3250
 2.5990	 6.3730
 2.6010	 6.3010
 2.6020	 6.2500
 2.6030	 6.2120
 2.6040	 6.2110
 2.6060	 6.0990
 2.6070	 6.1070
 2.6080	 6.1600
 2.6100	 6.2400
 2.6110	 6.2780
 2.6120	 6.2220
 2.6140	 6.1490
 2.6150	 6.1860
 2.6160	 6.1110
 2.6180	 6.0360
 2.6190	 6.0210
 2.6200	 5.9560
 2.6220	 5.9920
 2.6230	 6.1120
 2.6240	 6.0410
 2.6260	 5.9660
 2.6270	 5.9650
 2.6280	 6.0390
 2.6300	 5.9270
 2.6310	 5.7930
 2.6320	 5.8710
 2.6340	 5.8900
 2.6350	 5.8850
 2.6360	 5.9440
 2.6380	 5.8940
 2.6390	 5.8730
 2.6400	 5.8430
 2.6420	 5.8310
 2.6430	 5.7270
 2.6440	 5.7650
 2.6460	 5.7330
 2.6470	 5.6820
 2.6480	 5.6880
 2.6500	 5.6810
 2.6510	 5.6290
 2.6520	 5.6280
 2.6540	 5.5600
 2.6550	 5.4990
 2.6570	 5.4620
 2.6580	 5.5490
 2.6590	 5.5480
 2.6610	 5.5350
 2.6620	 5.4190
 2.6630	 5.3750
 2.6650	 5.2940
 2.6660	 5.2790
 2.6670	 5.2880
 2.6690	 5.2870
 2.6700	 5.1240
 2.6720	 5.0850
 2.6730	 5.1790
 2.6740	 5.2820
 2.6760	 5.2550
 2.6770	 5.1350
 2.6780	 5.1170
 2.6800	 5.2090
 2.6810	 5.2380
 2.6830	 5.1540
 2.6840	 5.0630
 2.6850	 5.0710
 2.6870	 5.0490
 2.6880	 5.0690
 2.6900	 5.0500
 2.6910	 5.0190
 2.6920	 4.9520
 2.6940	 4.8360
 2.6950	 4.7940
 2.6970	 4.8440
 2.6980	 4.8470
 2.6990	 4.8500
 2.7010	 4.7560
 2.7020	 4.7830
 2.7040	 4.8360
 2.7050	 4.7620
 2.7060	 4.7450
 2.7080	 4.7310
 2.7090	 4.5070
 2.7110	 4.3610
 2.7120	 4.3900
 2.7130	 4.5670
 2.7150	 4.5280
 2.7160	 4.3960
 2.7180	 4.2740
 2.7190	 4.1210
 2.7210	 4.0100
 2.7220	 4.0430
 2.7230	 4.1160
 2.7250	 4.0660
 2.7260	 3.9720
 2.7280	 3.9620
 2.7290	 3.9100
 2.7310	 3.8640
 2.7320	 3.8690
 2.7340	 3.8140
 2.7350	 3.6770
 2.7360	 3.6900
 2.7380	 3.6940
 2.7390	 3.6000
 2.7410	 3.5120
 2.7420	 3.5710
 2.7440	 3.5250
 2.7450	 3.4690
 2.7470	 3.4990
 2.7480	 3.5440
 2.7490	 3.4880
 2.7510	 3.3800
 2.7520	 3.2880
 2.7540	 3.2520
 2.7550	 3.1740
 2.7570	 3.1640
 2.7580	 3.1440
 2.7600	 3.1250
 2.7610	 3.1420
 2.7630	 3.1000
 2.7640	 3.0060
 2.7660	 3.0620
 2.7670	 3.0760
 2.7690	 3.0550
 2.7700	 3.0260
 2.7720	 3.0210
 2.7730	 2.9390
 2.7740	 2.9570
 2.7760	 2.9530
 2.7770	 2.9880
 2.7790	 2.9250
 2.7800	 2.9100
 2.7820	 2.9250
 2.7830	 2.9210
 2.7850	 2.8600
 2.7860	 2.8090
 2.7880	 2.7290
 2.7890	 2.7310
 2.7910	 2.7900
 2.7920	 2.8020
 2.7940	 2.7260
 2.7950	 2.7420
 2.7970	 2.8310
 2.7980	 2.8850
 2.8000	 2.8380
 2.8010	 2.7610
 2.8030	 2.6980
 2.8040	 2.7560
 2.8060	 2.7600
 2.8080	 2.7480
 2.8090	 2.7630
 2.8110	 2.7830
 2.8120	 2.7410
 2.8140	 2.7510
 2.8150	 2.6970
 2.8170	 2.7040
 2.8180	 2.7200
 2.8200	 2.7280
 2.8210	 2.6550
 2.8230	 2.6510
 2.8240	 2.6500
 2.8260	 2.7150
 2.8270	 2.6950
 2.8290	 2.6840
 2.8310	 2.6620
 2.8320	 2.6400
 2.8340	 2.5950
 2.8350	 2.6230
 2.8370	 2.6490
 2.8380	 2.7400
 2.8400	 2.7780
 2.8410	 2.7180
 2.8430	 2.6070
 2.8440	 2.5730
 2.8460	 2.4930
 2.8480	 2.4840
 2.8490	 2.5000
 2.8510	 2.5860
 2.8520	 2.6680
 2.8540	 2.6310
 2.8550	 2.4780
 2.8570	 2.5190
 2.8590	 2.5290
 2.8600	 2.5340
 2.8620	 2.5630
 2.8630	 2.6580
 2.8650	 2.6190
 2.8660	 2.6720
 2.8680	 2.6310
 2.8700	 2.5870
 2.8710	 2.5210
 2.8730	 2.5600
 2.8740	 2.5110
 2.8760	 2.5330
 2.8780	 2.5900
 2.8790	 2.6800
 2.8810	 2.6610
 2.8820	 2.6530
 2.8840	 2.6010
 2.8860	 2.5220
 2.8870	 2.4940
 2.8890	 2.5470
 2.8900	 2.5420
 2.8920	 2.5680
 2.8940	 2.5690
 2.8950	 2.6380
 2.8970	 2.6010
 2.8990	 2.6030
 2.9000	 2.6000
 2.9020	 2.5640
 2.9030	 2.5840
 2.9050	 2.6440
 2.9070	 2.6240
 2.9080	 2.6510
 2.9100	 2.5850
 2.9120	 2.5550
 2.9130	 2.5890
 2.9150	 2.6370
 2.9160	 2.6110
 2.9180	 2.6130
 2.9200	 2.5750
 2.9210	 2.5490
 2.9230	 2.5670
 2.9250	 2.6360
 2.9260	 2.6050
 2.9280	 2.6310
 2.9300	 2.5950
 2.9310	 2.6070
 2.9330	 2.6670
 2.9350	 2.6730
 2.9360	 2.6370
 2.9380	 2.6870
 2.9400	 2.6850
 2.9410	 2.6560
 2.9430	 2.6690
 2.9450	 2.7350
 2.9460	 2.7310
 2.9480	 2.7270
 2.9500	 2.6760
 2.9510	 2.7130
 2.9530	 2.7060
 2.9550	 2.7130
 2.9560	 2.6800
 2.9580	 2.6450
 2.9600	 2.6470
 2.9610	 2.7040
 2.9630	 2.6620
 2.9650	 2.5930
 2.9670	 2.5620
 2.9680	 2.6760
 2.9700	 2.6580
 2.9720	 2.5980
 2.9730	 2.6140
 2.9750	 2.6470
 2.9770	 2.6300
 2.9780	 2.6320
 2.9800	 2.5660
 2.9820	 2.5620
 2.9840	 2.6120
 2.9850	 2.6610
 2.9870	 2.6240
 2.9890	 2.6280
 2.9900	 2.6180
 2.9920	 2.7070
 2.9940	 2.7830
 2.9960	 2.8100
 2.9970	 2.7340
 2.9990	 2.7530
 3.0010	 2.7470
 3.0030	 2.6880
 3.0040	 2.6600
 3.0060	 2.7790
 3.0080	 2.8030
 3.0100	 2.7180
 3.0110	 2.6520
 3.0130	 2.7270
 3.0150	 2.7720
 3.0170	 2.7770
 3.0180	 2.7590
 3.0200	 2.7490
 3.0220	 2.7030
 3.0240	 2.7630
 3.0250	 2.7870
 3.0270	 2.7630
 3.0290	 2.7400
 3.0310	 2.7780
 3.0320	 2.7770
 3.0340	 2.7510
 3.0360	 2.6770
 3.0380	 2.7280
 3.0400	 2.7950
 3.0410	 2.7860
 3.0430	 2.7610
 3.0450	 2.8290
 3.0470	 2.8270
 3.0480	 2.8310
 3.0500	 2.8280
 3.0520	 2.9020
 3.0540	 2.9050
 3.0560	 2.8160
 3.0570	 2.7430
 3.0590	 2.7760
 3.0610	 2.7400
 3.0630	 2.8180
 3.0650	 2.8720
 3.0670	 2.8480
 3.0680	 2.7960
 3.0700	 2.8210
 3.0720	 2.8590
 3.0740	 2.8820
 3.0760	 2.8590
 3.0770	 2.8600
 3.0790	 2.8280
 3.0810	 2.8090
 3.0830	 2.8340
 3.0850	 2.8500
 3.0870	 2.8200
 3.0880	 2.8170
 3.0900	 2.8020
 3.0920	 2.8430
 3.0940	 2.8990
 3.0960	 2.9050
 3.0980	 2.8470
 3.1000	 2.9510
 3.1010	 2.9300
 3.1030	 2.8870
 3.1050	 2.8650
 3.1070	 2.8440
 3.1090	 2.8610
 3.1110	 2.9190
 3.1130	 2.8950
 3.1140	 2.8800
 3.1160	 2.9230
 3.1180	 3.0060
 3.1200	 2.9880
 3.1220	 2.9290
 3.1240	 2.9130
 3.1260	 2.9290
 3.1280	 2.9330
 3.1290	 2.9740
 3.1310	 2.9320
 3.1330	 2.9070
 3.1350	 2.9480
 3.1370	 2.9660
 3.1390	 2.9090
 3.1410	 2.9220
 3.1430	 2.9440
 3.1450	 2.9960
 3.1470	 2.9570
 3.1480	 2.9870
 3.1500	 2.9920
 3.1520	 3.0580
 3.1540	 3.0800
 3.1560	 3.0640
 3.1580	 3.0430
 3.1600	 3.0870
 3.1620	 3.0980
 3.1640	 3.1210
 3.1660	 3.1060
 3.1680	 3.1520
 3.1700	 3.0760
 3.1720	 3.0210
 3.1730	 3.0460
 3.1750	 3.0890
 3.1770	 3.1040
 3.1790	 3.1300
 3.1810	 3.0890
 3.1830	 3.0650
 3.1850	 3.0480
 3.1870	 3.0830
 3.1890	 3.0830
 3.1910	 3.0960
 3.1930	 3.0890
 3.1950	 3.1530
 3.1970	 3.1670
 3.1990	 3.1880
 3.2010	 3.1270
 3.2030	 3.0860
 3.2050	 3.0790
 3.2070	 3.1150
 3.2090	 3.1120
 3.2110	 3.1200
 3.2130	 3.1550
 3.2150	 3.2170
 3.2170	 3.1840
 3.2190	 3.1830
 3.2210	 3.2240
 3.2230	 3.2030
 3.2250	 3.1360
 3.2270	 3.2170
 3.2290	 3.2690
 3.2310	 3.2930
 3.2330	 3.2580
 3.2350	 3.3080
 3.2370	 3.2600
 3.2390	 3.2130
 3.2410	 3.2350
 3.2430	 3.2550
 3.2450	 3.2310
 3.2470	 3.3060
 3.2490	 3.2820
 3.2510	 3.2790
 3.2530	 3.2880
 3.2550	 3.3030
 3.2570	 3.3660
 3.2590	 3.3880
 3.2610	 3.3380
 3.2630	 3.3620
 3.2650	 3.3950
 3.2670	 3.4000
 3.2700	 3.3360
 3.2720	 3.2960
 3.2740	 3.3050
 3.2760	 3.3400
 3.2780	 3.3550
 3.2800	 3.4000
 3.2820	 3.4130
 3.2840	 3.4150
 3.2860	 3.3800
 3.2880	 3.3670
 3.2900	 3.3730
 3.2920	 3.4270
 3.2940	 3.4510
 3.2970	 3.4400
 3.2990	 3.4080
 3.3010	 3.4250
 3.3030	 3.4280
 3.3050	 3.4270
 3.3070	 3.4200
 3.3090	 3.4370
 3.3110	 3.4070
 3.3130	 3.4180
 3.3160	 3.4310
 3.3180	 3.4240
 3.3200	 3.3620
 3.3220	 3.3500
 3.3240	 3.3600
 3.3260	 3.3820
 3.3280	 3.4000
 3.3300	 3.3940
 3.3330	 3.3750
 3.3350	 3.4340
 3.3370	 3.4130
 3.3390	 3.3810
 3.3410	 3.3450
 3.3430	 3.3130
 3.3450	 3.2960
 3.3480	 3.2710
 3.3500	 3.2330
 3.3520	 3.2520
 3.3540	 3.2310
 3.3560	 3.2210
 3.3580	 3.1290
 3.3610	 3.1070
 3.3630	 3.0780
 3.3650	 3.1340
 3.3670	 3.0950
 3.3690	 3.0170
 3.3720	 2.9710
 3.3740	 2.9910
 3.3760	 3.0240
 3.3780	 2.9930
 3.3800	 2.9590
 3.3830	 2.9710
 3.3850	 2.9510
 3.3870	 2.9260
 3.3890	 2.8620
 3.3910	 2.8160
 3.3940	 2.7620
 3.3960	 2.7270
 3.3980	 2.7060
 3.4000	 2.6630
 3.4030	 2.6530
 3.4050	 2.7210
 3.4070	 2.7470
 3.4090	 2.7720
 3.4110	 2.8350
 3.4140	 3.0010
 3.4160	 3.2540
 3.4180	 3.6410
 3.4200	 4.0890
 3.4230	 4.7100
 3.4250	 5.4800
 3.4270	 6.3200
 3.4300	 6.9320
 3.4320	 6.8950
 3.4340	 6.3470
 3.4360	 5.7480
 3.4390	 5.2480
 3.4410	 4.8760
 3.4430	 4.6230
 3.4450	 4.5710
 3.4480	 4.4790
 3.4500	 4.4190
 3.4520	 4.3340
 3.4550	 4.2410
 3.4570	 4.2190
 3.4590	 4.2280
 3.4620	 4.2080
 3.4640	 4.2280
 3.4660	 4.1240
 3.4690	 4.0420
 3.4710	 4.0350
 3.4730	 4.0070
 3.4760	 3.9270
 3.4780	 3.8820
 3.4800	 3.8150
 3.4830	 3.7340
 3.4850	 3.6670
 3.4870	 3.6510
 3.4900	 3.5610
 3.4920	 3.5080
 3.4940	 3.4610
 3.4970	 3.3990
 3.4990	 3.4020
 3.5010	 3.5060
 3.5040	 3.7060
 3.5060	 4.3140
 3.5080	 5.4450
 3.5110	 6.6220
 3.5130	 6.9870
 3.5160	 6.5740
 3.5180	 6.0560
 3.5200	 5.6680
 3.5230	 5.4320
 3.5250	 5.3100
 3.5280	 5.1620
 3.5300	 5.0770
 3.5320	 5.0040
 3.5350	 4.9470
 3.5370	 4.9040
 3.5400	 4.8810
 3.5420	 4.8110
 3.5440	 4.7550
 3.5470	 4.7320
 3.5490	 4.7600
 3.5520	 4.7370
 3.5540	 4.7600
 3.5570	 4.7900
 3.5590	 4.7860
 3.5610	 4.7760
 3.5640	 4.7800
 3.5660	 4.7910
 3.5690	 4.7720
 3.5710	 4.7490
 3.5740	 4.7620
 3.5760	 4.7210
 3.5790	 4.7430
 3.5810	 4.7700
 3.5840	 4.7600
 3.5860	 4.7380
 3.5890	 4.7020
 3.5910	 4.6880
 3.5940	 4.7280
 3.5960	 4.7140
 3.5990	 4.6580
 3.6010	 4.5940
 3.6040	 4.6460
 3.6060	 4.6870
 3.6090	 4.7120
 3.6110	 4.6990
 3.6140	 4.7140
 3.6160	 4.6780
 3.6190	 4.6720
 3.6210	 4.7110
 3.6240	 4.7420
 3.6260	 4.7490
 3.6290	 4.7050
 3.6310	 4.6780
 3.6340	 4.7180
 3.6360	 4.7050
 3.6390	 4.7120
 3.6410	 4.7060
 3.6440	 4.7280
 3.6470	 4.6990
 3.6490	 4.6660
 3.6520	 4.6470
 3.6540	 4.6650
 3.6570	 4.6830
 3.6590	 4.6700
 3.6620	 4.6830
 3.6650	 4.6840
 3.6670	 4.6330
 3.6700	 4.6590
 3.6720	 4.6780
 3.6750	 4.6580
 3.6780	 4.7080
 3.6800	 4.7980
 3.6830	 4.7560
 3.6850	 4.7160
 3.6880	 4.7020
 3.6910	 4.6810
 3.6930	 4.7050
 3.6960	 4.7360
 3.6990	 4.7410
 3.7010	 4.6990
 3.7040	 4.7110
 3.7070	 4.7510
 3.7090	 4.7680
 3.7120	 4.7500
 3.7150	 4.7330
 3.7170	 4.7430
 3.7200	 4.7660
 3.7230	 4.7590
 3.7250	 4.7500
 3.7280	 4.8060
 3.7310	 4.8080
 3.7330	 4.7860
 3.7360	 4.7980
 3.7390	 4.8460
 3.7410	 4.8330
 3.7440	 4.8150
 3.7470	 4.8520
 3.7490	 4.8440
 3.7520	 4.8090
 3.7550	 4.8220
 3.7580	 4.8220
 3.7600	 4.8520
 3.7630	 4.8750
 3.7660	 4.8990
 3.7690	 4.8980
 3.7710	 4.9050
 3.7740	 4.9330
 3.7770	 4.9350
 3.7790	 4.8740
 3.7820	 4.8650
 3.7850	 4.9010
 3.7880	 4.9200
 3.7910	 4.9030
 3.7930	 4.9220
 3.7960	 4.9180
 3.7990	 4.9240
 3.8020	 4.9360
 3.8040	 4.9710
 3.8070	 4.9610
 3.8100	 4.9440
 3.8130	 4.9490
 3.8160	 4.9410
 3.8180	 4.9290
 3.8210	 4.9710
 3.8240	 4.9340
 3.8270	 4.9320
 3.8300	 4.9780
 3.8330	 4.9910
 3.8350	 4.9730
 3.8380	 4.9460
 3.8410	 4.9720
 3.8440	 5.0710
 3.8470	 5.0740
 3.8500	 5.0390
 3.8520	 5.0210
 3.8550	 5.0570
 3.8580	 5.0320
 3.8610	 5.0330
 3.8640	 5.0580
 3.8670	 5.0680
 3.8700	 5.0700
 3.8730	 5.0590
 3.8760	 5.0460
 3.8780	 5.0630
 3.8810	 5.0650
 3.8840	 5.0450
 3.8870	 5.0570
 3.8900	 5.0730
 3.8930	 5.1070
 3.8960	 5.1350
 3.8990	 5.0770
 3.9020	 5.0810
 3.9050	 5.1200
 3.9080	 5.0910
 3.9110	 5.0640
 3.9140	 5.0540
 3.9170	 5.0550
 3.9190	 5.0850
 3.9220	 5.0460
 3.9250	 5.0490
 3.9280	 5.0700
 3.9310	 5.0960
 3.9340	 5.1130
 3.9370	 5.1420
 3.9400	 5.1030
 3.9430	 5.0920
 3.9460	 5.1180
 3.9490	 5.1180
 3.9520	 5.0820
 3.9550	 5.0530
 3.9580	 5.0420
 3.9610	 5.0410
 3.9640	 5.0300
 3.9670	 5.0700
 3.9700	 5.1010
 3.9740	 5.0660
 3.9770	 5.0770
 3.9800	 5.1280
 3.9830	 5.1450
 3.9860	 5.1220
 3.9890	 5.0770
 3.9920	 5.1200
 3.9950	 5.1530
 3.9980	 5.0890
 4.0010	 5.0840
 4.0040	 5.1090
 4.0070	 5.1040
 4.0100	 5.1270
 4.0140	 5.1430
 4.0170	 5.1520
 4.0200	 5.1400
 4.0230	 5.1750
 4.0260	 5.1380
 4.0290	 5.0920
 4.0320	 5.0920
 4.0350	 5.0930
 4.0390	 5.1000
 4.0420	 5.1170
 4.0450	 5.1540
 4.0480	 5.1660
 4.0510	 5.1530
 4.0540	 5.1670
 4.0570	 5.1900
 4.0610	 5.1960
 4.0640	 5.2250
 4.0670	 5.2650
 4.0700	 5.2100
 4.0730	 5.1710
 4.0770	 5.1650
 4.0800	 5.1740
 4.0830	 5.1920
 4.0860	 5.2270
 4.0890	 5.2530
 4.0930	 5.2480
 4.0960	 5.2520
 4.0990	 5.2610
 4.1020	 5.2300
 4.1060	 5.2090
 4.1090	 5.2360
 4.1120	 5.2290
 4.1150	 5.1760
 4.1190	 5.2250
 4.1220	 5.2830
 4.1250	 5.2770
 4.1290	 5.2460
 4.1320	 5.2400
 4.1350	 5.2450
 4.1380	 5.2480
 4.1420	 5.2740
 4.1450	 5.2790
 4.1480	 5.2330
 4.1520	 5.2280
 4.1550	 5.2650
 4.1580	 5.2630
 4.1620	 5.2520
 4.1650	 5.2450
 4.1680	 5.2580
 4.1720	 5.2700
 4.1750	 5.2680
 4.1780	 5.2380
 4.1820	 5.2050
 4.1850	 5.2210
 4.1890	 5.2470
 4.1920	 5.2620
 4.1950	 5.2380
 4.1990	 5.2390
 4.2020	 5.2520
 4.2060	 5.2490
 4.2090	 5.2460
 4.2120	 5.2200
 4.2160	 5.2470
 4.2190	 5.2860
 4.2230	 5.2330
 4.2260	 5.1060
 4.2300	 5.1640
 4.2330	 5.2730
 4.2360	 5.2990
 4.2400	 5.3430
 4.2430	 5.3220
 4.2470	 5.2150
 4.2500	 5.2550
 4.2540	 5.2890
 4.2570	 5.2350
 4.2610	 5.1550
 4.2640	 5.1230
 4.2680	 5.1850
 4.2710	 5.2270
 4.2750	 5.2560
 4.2780	 5.3000
 4.2820	 5.3040
 4.2850	 5.2560
 4.2890	 5.2420
 4.2930	 5.2740
 4.2960	 5.2790
 4.3000	 5.1540
 4.3030	 5.1310
 4.3070	 5.2460
 4.3100	 5.2680
 4.3140	 5.2460
 4.3180	 5.2550
 4.3210	 5.2750
 4.3250	 5.2750
 4.3280	 5.2710
 4.3320	 5.2600
 4.3360	 5.2480
 4.3390	 5.2360
 4.3430	 5.1850
 4.3470	 5.1870
 4.3500	 5.1940
 4.3540	 5.1860
 4.3580	 5.1800
 4.3610	 5.1960
 4.3650	 5.1770
 4.3690	 5.1560
 4.3720	 5.1620
 4.3760	 5.1420
 4.3800	 5.1290
 4.3830	 5.1320
 4.3870	 5.1070
 4.3910	 5.1280
 4.3940	 5.1540
 4.3980	 5.1660
 4.4020	 5.1250
 4.4060	 5.0910
 4.4090	 5.1260
 4.4130	 5.0820
 4.4170	 5.0410
 4.4210	 5.0580
 4.4240	 5.0870
 4.4280	 5.0880
 4.4320	 5.0930
 4.4360	 5.0790
 4.4400	 5.0470
 4.4430	 5.0650
 4.4470	 5.1180
 4.4510	 5.1550
 4.4550	 5.1250
 4.4590	 5.0640
 4.4630	 5.0660
 4.4660	 5.0840
 4.4700	 5.0730
 4.4740	 5.0330
 4.4780	 5.0260
 4.4820	 5.0220
 4.4860	 5.0190
 4.4900	 5.0400
 4.4930	 5.0860
 4.4970	 5.0680
 4.5010	 5.0300
 4.5050	 4.9980
 4.5090	 4.9580
 4.5130	 4.9560
 4.5170	 5.0340
 4.5210	 5.0670
 4.5250	 5.0590
 4.5290	 5.0350
 4.5330	 5.0240
 4.5370	 5.0190
 4.5410	 5.0190
 4.5450	 4.9780
 4.5490	 4.9380
 4.5530	 4.9060
 4.5570	 4.9470
 4.5610	 4.9770
 4.5650	 4.9850
 4.5690	 4.9700
 4.5730	 4.9450
 4.5770	 4.9370
 4.5810	 4.9780
 4.5850	 4.9540
 4.5890	 4.9020
 4.5930	 4.8880
 4.5970	 4.8930
 4.6010	 4.9050
 4.6050	 4.9180
 4.6090	 4.9050
 4.6130	 4.8840
 4.6170	 4.8580
 4.6220	 4.8540
 4.6260	 4.8330
 4.6300	 4.8260
 4.6340	 4.8530
 4.6380	 4.8640
 4.6420	 4.8540
 4.6460	 4.8640
 4.6510	 4.8480
 4.6550	 4.8640
 4.6590	 4.8600
 4.6630	 4.8690
 4.6670	 4.8750
 4.6720	 4.8350
 4.6760	 4.8270
 4.6800	 4.8420
 4.6840	 4.7950
 4.6880	 4.8030
 4.6930	 4.8480
 4.6970	 4.8550
 4.7010	 4.8440
 4.7050	 4.8350
 4.7100	 4.8400
 4.7140	 4.8520
 4.7180	 4.8380
 4.7230	 4.8380
 4.7270	 4.8290
 4.7310	 4.8600
 4.7360	 4.8420
 4.7400	 4.8110
 4.7440	 4.8060
 4.7490	 4.8280
 4.7530	 4.8290
 4.7570	 4.8230
 4.7620	 4.8010
 4.7660	 4.8130
 4.7700	 4.8370
 4.7750	 4.8240
 4.7790	 4.8220
 4.7840	 4.8820
 4.7880	 4.8500
 4.7920	 4.8100
 4.7970	 4.8420
 4.8010	 4.8500
 4.8060	 4.8520
 4.8100	 4.8650
 4.8150	 4.8480
 4.8190	 4.8650
 4.8240	 4.8250
 4.8280	 4.8040
 4.8330	 4.8220
 4.8370	 4.8430
 4.8420	 4.8770
 4.8460	 4.8850
 4.8510	 4.8080
 4.8550	 4.7820
 4.8600	 4.8310
 4.8640	 4.8880
 4.8690	 4.9030
 4.8740	 4.8940
 4.8780	 4.8610
 4.8830	 4.8810
 4.8870	 4.8760
 4.8920	 4.8510
 4.8970	 4.8520
 4.9010	 4.8550
 4.9060	 4.8590
 4.9100	 4.8670
 4.9150	 4.8650
 4.9200	 4.8840
 4.9240	 4.8990
 4.9290	 4.9240
 4.9340	 4.9090
 4.9390	 4.9390
 4.9430	 4.9230
 4.9480	 4.9290
 4.9530	 4.9290
 4.9570	 4.9260
 4.9620	 4.9260
 4.9670	 4.9380
 4.9720	 4.9370
 4.9760	 4.9690
 4.9810	 4.9300
 4.9860	 4.8990
 4.9910	 4.9480
 4.9960	 4.9850
 5.0000	 4.9670
 5.0050	 4.9690
 5.0100	 4.9670
 5.0150	 4.9580
 5.0200	 4.9360
 5.0250	 4.9300
 5.0300	 4.9120
 5.0340	 4.9760
 5.0390	 5.0240
 5.0440	 5.0220
 5.0490	 5.0220
 5.0540	 4.9960
 5.0590	 4.9450
 5.0640	 4.9660
 5.0690	 4.9670
 5.0740	 4.9540
 5.0790	 4.9410
 5.0840	 4.9600
 5.0890	 4.9510
 5.0940	 4.9620
 5.0990	 4.9750
 5.1040	 5.0140
 5.1090	 4.9950
 5.1140	 4.9950
 5.1190	 4.9900
 5.1240	 4.9660
 5.1290	 4.9280
 5.1340	 4.9470
 5.1390	 4.9650
 5.1440	 4.9890
 5.1490	 4.9640
 5.1550	 4.9640
 5.1600	 4.9780
 5.1650	 5.0120
 5.1700	 4.9920
 5.1750	 4.9800
 5.1800	 4.9890
 5.1850	 5.0510
 5.1910	 4.9910
 5.1960	 4.9460
 5.2010	 4.9630
 5.2060	 5.0200
 5.2110	 4.9870
 5.2170	 4.9220
 5.2220	 4.9430
 5.2270	 4.9930
 5.2330	 4.9790
 5.2380	 4.9690
 5.2430	 4.9390
 5.2480	 4.9490
 5.2540	 4.9680
 5.2590	 4.9940
 5.2640	 4.9700
 5.2700	 4.9510
 5.2750	 4.9670
 5.2800	 4.9850
 5.2860	 4.9470
 5.2910	 4.9160
 5.2970	 4.9270
 5.3020	 4.9240
 5.3080	 4.9030
 5.3130	 4.8950
 5.3180	 4.8880
 5.3240	 4.8840
 5.3290	 4.8430
 5.3350	 4.8790
 5.3400	 4.9050
 5.3460	 4.9070
 5.3510	 4.8810
 5.3570	 4.8740
 5.3620	 4.8320
 5.3680	 4.8980
 5.3740	 4.9010
 5.3790	 4.8870
 5.3850	 4.8300
 5.3900	 4.8030
 5.3960	 4.8050
 5.4010	 4.8280
 5.4070	 4.8010
 5.4130	 4.8050
 5.4180	 4.7270
 5.4240	 4.7160
 5.4300	 4.7300
 5.4350	 4.7080
 5.4410	 4.6940
 5.4470	 4.7490
 5.4530	 4.7210
 5.4580	 4.6950
 5.4640	 4.6630
 5.4700	 4.6680
 5.4760	 4.6310
 5.4810	 4.6070
 5.4870	 4.6100
 5.4930	 4.6380
 5.4990	 4.6080
 5.5050	 4.5760
 5.5110	 4.5840
 5.5160	 4.5850
 5.5220	 4.5600
 5.5280	 4.5630
 5.5340	 4.5300
 5.5400	 4.4840
 5.5460	 4.4050
 5.5520	 4.3820
 5.5580	 4.3630
 5.5640	 4.3660
 5.5700	 4.3460
 5.5760	 4.2880
 5.5820	 4.2110
 5.5880	 4.2500
 5.5940	 4.2500
 5.6000	 4.2320
 5.6060	 4.1630
 5.6120	 4.1220
 5.6180	 4.0460
 5.6240	 4.0340
 5.6300	 3.9640
 5.6360	 3.8400
 5.6420	 3.7320
 5.6490	 3.7430
 5.6550	 3.6580
 5.6610	 3.6080
 5.6670	 3.5690
 5.6730	 3.4580
 5.6800	 3.2970
 5.6860	 3.2040
 5.6920	 3.1090
 5.6980	 3.0560
 5.7050	 2.9480
 5.7110	 2.8660
 5.7170	 2.7610
 5.7230	 2.6740
 5.7300	 2.6100
 5.7360	 2.5670
 5.7420	 2.4770
 5.7490	 2.4500
 5.7550	 2.4740
 5.7620	 2.5070
 5.7680	 2.4970
 5.7740	 2.5900
 5.7810	 2.6550
 5.7870	 2.7190
 5.7940	 2.7470
 5.8000	 2.8130
 5.8070	 2.8700
 5.8130	 2.8920
 5.8200	 2.8600
 5.8260	 2.9240
 5.8330	 2.9990
 5.8390	 3.0930
 5.8460	 3.1240
 5.8530	 3.2220
 5.8590	 3.2860
 5.8660	 3.3240
 5.8730	 3.3100
 5.8790	 3.2460
 5.8860	 3.2330
 5.8930	 3.3150
 5.8990	 3.3270
 5.9060	 3.4410
 5.9130	 3.4460
 5.9190	 3.4230
 5.9260	 3.3380
 5.9330	 3.2590
 5.9400	 3.2040
 5.9470	 3.2920
 5.9530	 3.2410
 5.9600	 3.2120
 5.9670	 3.1540
 5.9740	 3.1750
 5.9810	 3.1390
 5.9880	 3.0910
 5.9950	 3.0590
 6.0020	 3.1140
 6.0090	 3.0780
 6.0160	 3.0450
 6.0230	 2.9760
 6.0300	 2.9890
 6.0370	 2.9380
 6.0440	 2.8610
 6.0510	 2.8130
 6.0580	 2.9500
 6.0650	 2.9440
 6.0720	 2.9240
 6.0790	 2.9340
 6.0860	 3.0270
 6.0930	 3.0270
 6.1010	 3.0690
 6.1080	 3.0230
 6.1150	 2.9930
 6.1220	 3.0390
 6.1290	 3.1440
 6.1370	 3.0860
 6.1440	 3.0630
 6.1510	 3.0690
 6.1580	 3.1220
 6.1660	 3.1380
 6.1730	 3.1860
 6.1800	 3.0940
 6.1880	 3.0190
 6.1950	 3.0350
 6.2030	 3.0940
 6.2100	 3.0330
 6.2180	 3.0800
 6.2250	 3.0800
 6.2320	 3.1470
 6.2400	 3.1200
 6.2480	 3.1110
 6.2550	 3.1230
 6.2630	 3.1420
 6.2700	 3.1370
 6.2780	 3.2150
 6.2850	 3.2230
 6.2930	 3.2750
 6.3010	 3.2880
 6.3080	 3.3780
 6.3160	 3.4090
 6.3240	 3.4440
 6.3310	 3.3960
 6.3390	 3.3840
 6.3470	 3.3970
 6.3550	 3.5230
 6.3620	 3.5170
 6.3700	 3.4910
 6.3780	 3.4890
 6.3860	 3.5630
 6.3940	 3.5530
 6.4020	 3.5220
 6.4100	 3.3600
 6.4180	 3.4160
 6.4260	 3.5230
 6.4340	 3.5680
 6.4420	 3.5810
 6.4500	 3.6440
 6.4580	 3.6380
 6.4660	 3.6360
 6.4740	 3.5630
 6.4820	 3.5200
 6.4900	 3.4340
 6.4980	 3.4760
 6.5060	 3.5590
 6.5140	 3.6530
 6.5230	 3.6050
 6.5310	 3.6130
 6.5390	 3.5760
 6.5470	 3.5620
 6.5560	 3.4470
 6.5640	 3.3870
 6.5720	 3.2820
 6.5800	 3.2470
 6.5890	 3.1810
 6.5970	 3.1830
 6.6060	 3.1520
 6.6140	 3.1770
 6.6230	 3.1720
 6.6310	 3.1710
 6.6390	 3.1130
 6.6480	 3.2240
 6.6570	 3.2350
 6.6650	 3.2280
 6.6740	 3.2190
 6.6820	 3.2410
 6.6910	 3.2310
 6.7000	 3.2650
 6.7080	 3.1930
 6.7170	 3.1550
 6.7260	 3.1140
 6.7340	 3.1610
 6.7430	 3.1030
 6.7520	 3.0800
 6.7610	 3.0460
 6.7690	 3.0320
 6.7780	 3.0270
 6.7870	 3.2580
 6.7960	 3.2600
 6.8050	 3.0590
 6.8140	 2.8680
 6.8230	 2.8230
 6.8320	 2.9880
 6.8410	 3.3000
 6.8500	 3.2090
 6.8590	 3.0180
 6.8680	 2.8370
 6.8770	 2.9150
 6.8860	 2.9370
 6.8960	 2.9660
 6.9050	 2.9460
 6.9140	 2.9530
 6.9230	 2.8610
 6.9320	 2.8730
 6.9420	 2.8780
 6.9510	 2.9100
 6.9600	 2.8180
 6.9700	 2.8390
 6.9790	 2.8370
 6.9880	 2.9050
 6.9980	 2.8380
 7.0070	 2.8590
 7.0170	 2.8080
 7.0260	 2.8350
 7.0360	 2.8380
 7.0450	 2.8950
 7.0550	 2.8940
 7.0650	 2.9290
 7.0740	 2.9120
 7.0840	 2.9470
 7.0940	 2.9200
 7.1030	 3.0130
 7.1130	 2.9740
 7.1230	 2.9690
 7.1330	 2.9470
 7.1420	 2.9230
 7.1520	 2.8180
 7.1620	 2.8060
 7.1720	 2.7360
 7.1820	 2.7770
 7.1920	 2.7120
 7.2020	 2.6850
 7.2120	 2.6450
 7.2220	 2.6940
 7.2320	 2.6400
 7.2420	 2.7030
 7.2520	 2.6840
 7.2620	 2.6400
 7.2730	 2.5900
 7.2830	 2.6140
 7.2930	 2.5940
 7.3030	 2.6620
 7.3140	 2.6360
 7.3240	 2.6600
 7.3340	 2.6430
 7.3450	 2.7140
 7.3550	 2.7320
 7.3660	 2.8190
 7.3760	 2.7520
 7.3870	 2.7970
 7.3970	 2.7670
 7.4080	 2.8060
 7.4180	 2.8180
 7.4290	 2.8460
 7.4400	 2.7970
 7.4500	 2.8210
 7.4610	 2.7720
 7.4720	 2.8100
 7.4830	 2.7790
 7.4930	 2.7910
 7.5040	 2.7450
 7.5150	 2.7810
 7.5260	 2.7530
 7.5370	 2.7860
 7.5480	 2.7470
 7.5590	 2.7620
 7.5700	 2.7130
 7.5810	 2.7700
 7.5920	 2.7370
 7.6030	 2.7900
 7.6140	 2.7510
 7.6260	 2.7650
 7.6370	 2.7360
 7.6480	 2.7720
 7.6590	 2.8010
 7.6710	 2.8640
 7.6820	 2.7790
 7.6940	 2.8220
 7.7050	 2.7910
 7.7160	 2.7990
 7.7280	 2.7440
 7.7390	 2.7660
 7.7510	 2.7200
 7.7630	 2.7370
 7.7740	 2.6510
 7.7860	 2.6010
 7.7980	 2.5100
 7.8090	 2.5760
 7.8210	 2.5290
 7.8330	 2.5260
 7.8450	 2.4930
 7.8570	 2.5420
 7.8690	 2.4550
 7.8810	 2.4930
 7.8930	 2.4360
 7.9050	 2.4600
 7.9170	 2.4110
 7.9290	 2.4250
 7.9410	 2.3700
 7.9530	 2.4280
 7.9650	 2.3830
 7.9780	 2.4310
 7.9900	 2.3830
 8.0020	 2.4260
 8.0150	 2.3650
 8.0270	 2.4960
 8.0390	 2.4790
 8.0520	 2.5250
 8.0640	 2.5070
 8.0770	 2.5990
 8.0900	 2.5840
 8.1020	 2.5980
 8.1150	 2.5700
 8.1280	 2.7250
 8.1400	 2.7200
 8.1530	 2.7680
 8.1660	 2.6670
 8.1790	 2.7720
 8.1920	 2.7560
 8.2050	 2.7980
 8.2180	 2.6850
 8.2310	 2.7610
 8.2440	 2.7040
 8.2570	 2.7580
 8.2700	 2.7000
 8.2830	 2.8000
 8.2970	 2.7540
 8.3100	 2.7950
 8.3230	 2.7970
 8.3370	 2.8540
 8.3500	 2.7730
 8.3640	 2.8410
 8.3770	 2.8310
 8.3910	 2.8410
 8.4040	 2.6610
 8.4180	 2.7110
 8.4320	 2.6600
 8.4450	 2.6700
 8.4590	 2.5440
 8.4730	 2.5550
 8.4870	 2.4570
 8.5010	 2.6040
 8.5150	 2.6270
 8.5290	 2.6610
 8.5430	 2.5670
 8.5570	 2.6910
 8.5710	 2.7030
 8.5850	 2.8130
 8.5990	 2.7350
 8.6140	 2.8280
 8.6280	 2.8320
 8.6420	 2.9120
 8.6570	 2.7940
 8.6710	 2.7780
 8.6860	 2.6890
 8.7000	 2.7980
 8.7150	 2.8090
 8.7300	 2.9820
 8.7440	 2.9090
 8.7590	 2.9210
 8.7740	 2.8500
 8.7890	 2.9300
 8.8040	 2.8600
 8.8190	 2.9710
 8.8340	 2.9110
 8.8490	 2.9320
 8.8640	 2.7730
 8.8790	 2.8980
 8.8940	 2.9260
 8.9100	 2.9870
 8.9250	 2.8620
 8.9400	 2.8950
 8.9560	 2.7960
 8.9710	 2.8840
 8.9870	 2.8320
 9.0020	 2.8960
 9.0180	 2.9050
 9.0340	 3.0130
 9.0500	 2.8830
 9.0650	 2.9840
 9.0810	 3.0020
 9.0970	 3.0370
 9.1130	 2.9140
 9.1290	 3.0100
 9.1450	 2.9300
 9.1620	 2.9980
 9.1780	 2.8750
 9.1940	 2.9860
 9.2100	 2.9890
 9.2270	 3.1520
 9.2430	 3.0610
 9.2600	 3.1090
 9.2760	 3.0300
 9.2930	 3.1270
 9.3100	 3.0380
 9.3260	 3.1320
 9.3430	 3.1480
 9.3600	 3.3370
 9.3770	 3.2430
 9.3940	 3.2920
 9.4110	 3.2240
 9.4280	 3.3750
 9.4450	 3.3540
 9.4620	 3.4520
 9.4800	 3.3930
 9.4970	 3.5440
 9.5150	 3.4990
 9.5320	 3.5330
 9.5500	 3.4140
 9.5670	 3.4910
 9.5850	 3.4360
 9.6030	 3.5860
 9.6200	 3.4900
 9.6380	 3.5630
 9.6560	 3.5520
 9.6740	 3.7210
 9.6920	 3.6550
 9.7110	 3.6440
 9.7290	 3.4930
 9.7470	 3.6250
 9.7650	 3.6180
 9.7840	 3.6790
 9.8020	 3.5390
 9.8210	 3.5100
 9.8390	 3.4510
 9.8580	 3.6410
 9.8770	 3.5960
 9.8960	 3.6940
 9.9150	 3.5380
 9.9340	 3.6220
 9.9530	 3.6070
 9.9720	 3.7370
 9.9910	 3.6540
10.0100	 3.6340
10.0300	 3.4780
10.0490	 3.6360
10.0690	 3.6500
10.0880	 3.6960
10.1080	 3.5180
10.1280	 3.6140
10.1480	 3.6540
10.1670	 3.7980
10.1870	 3.7350
10.2070	 3.8830
10.2280	 3.8780
10.2480	 3.9490
10.2680	 3.8980
10.2890	 3.9320
10.3090	 3.7890
10.3300	 3.9380
10.3500	 3.9810
10.3710	 4.1210
10.3920	 4.0780
10.4120	 4.1730
10.4330	 4.1790
10.4540	 4.3080
10.4760	 4.2140
10.4970	 4.3430
10.5180	 4.3600
10.5390	 4.4390
10.5610	 4.3250
10.5820	 4.3790
10.6040	 4.2980
10.6260	 4.3650
10.6480	 4.2630
10.6700	 4.3410
10.6920	 4.2580
10.7140	 4.2920
10.7360	 4.1460
10.7580	 4.2040
10.7800	 4.0820
10.8030	 4.2040
10.8250	 4.1590
10.8480	 4.2460
10.8710	 4.1220
10.8940	 4.2860
10.9170	 4.2140
10.9400	 4.2340
10.9630	 4.1000
10.9860	 4.1730
11.0090	 4.0570
11.0330	 4.1530
11.0560	 3.9450
11.0800	 3.9450
11.1040	 3.8140
11.1270	 3.9230
11.1510	 3.8760
11.1750	 3.9250
11.2000	 3.8010
11.2240	 3.9540
11.2480	 3.9680
11.2730	 4.0770
11.2970	 4.0010
11.3220	 4.1170
11.3470	 4.0340
11.3720	 4.1840
11.3970	 3.9760
11.4220	 4.0400
11.4470	 4.0160
11.4720	 4.2000
11.4980	 4.0760
11.5230	 4.1230
11.5490	 4.0360
11.5750	 4.1750
11.6000	 4.0670
11.6260	 4.1180
11.6530	 3.9800
11.6790	 4.0030
11.7050	 3.8800
11.7320	 4.0360
11.7580	 3.8440
11.7850	 3.8240
11.8120	 3.6330
11.8390	 3.7030
11.8660	 3.6300
11.8930	 3.7920
11.9200	 3.7300
11.9480	 3.8160
11.9760	 3.6950
12.0030	 3.9220
12.0310	 3.8640
12.0590	 3.9830
12.0870	 3.7340
12.1150	 3.7140
12.1440	 3.6780
12.1720	 3.9620
12.2010	 3.8810
12.2300	 4.0840
12.2590	 3.7530
12.2880	 3.7240
12.3170	 3.5480
12.3460	 3.6110
12.3760	 3.5530
12.4050	 3.6670
12.4350	 3.5330
12.4650	 3.6560
12.4950	 3.5060
12.5250	 3.6560
12.5550	 3.5130
12.5860	 3.6220
12.6170	 3.4900
12.6470	 3.6690
12.6780	 3.4780
12.7090	 3.5000
12.7410	 3.3960
12.7720	 3.5830
12.8030	 3.3890
12.8350	 3.5090
12.8670	 3.3410
12.8990	 3.4450
12.9310	 3.3060
12.9640	 3.4430
12.9960	 3.3370
13.0290	 3.4790
13.0610	 3.3520
13.0940	 3.5060
13.1280	 3.2660
13.1610	 3.3370
13.1940	 3.1740
13.2280	 3.3400
13.2620	 3.0460
13.2960	 3.1310
13.3300	 3.0090
13.3640	 3.1310
13.3990	 2.9270
13.4340	 3.0550
13.4690	 2.9430
13.5040	 3.1580
13.5390	 2.9080
13.5740	 3.1190
13.6100	 3.0470
13.6460	 3.2510
13.6820	 3.1490
13.7180	 3.3600
13.7540	 3.0320
13.7910	 3.0850
13.8280	 3.0280
13.8650	 3.3580
13.9020	 3.2700
13.9390	 3.5080
13.9770	 3.1730
14.0150	 3.2360
14.0530	 3.1660
14.0910	 3.2000
14.1290	 2.9110
14.1680	 3.2290
14.2070	 3.0700
14.2460	 3.1410
14.2850	 2.8560
14.3240	 3.1510
14.3640	 3.1180
14.4040	 3.2450
14.4440	 2.8380
14.4840	 3.2230
14.5250	 3.1540
14.5660	 3.4180
14.6070	 2.9630
14.6480	 3.0730
14.6900	 2.7080
14.7310	 2.8660
14.7730	 2.5580
14.8150	 3.0580
14.8580	 2.9300
14.9010	 3.2110
14.9440	 2.8890
14.9870	 3.1430
15.0300	 2.9800
15.0740	 3.3080
15.1180	 2.8670
15.1620	 3.2450
15.2060	 2.9270
15.2510	 3.2980
15.2960	 2.9360
15.3410	 3.3330
15.3870	 3.0210
