Name: Ceanothus spinosus 3
Type: vegetation
Class: Shrub
Genus: Ceanothus
Species: spinosus
Sample No.: VH012
Owner: UCSB
Wavelength Range: VSWIR
Origin: 34.4906; -119.7908; WGS84
Collection Date: 4/1/2013
Description: Samples were collected as part of the HyspIRI Airborne Campaign. 48 individual plants were sampled in three times in 2013 - spring  summer  and fall. The name of the sample includes a 1  2  or 3 which references a different individual of the species. Samples were taken to JPL and processed within 48 hours of collection. The same leaves were processed in the Nicolet and then measured using the ASD.
Measurement: Bidirectional reflectance
First Column: X
Second Column: Y
X Units: Wavelength (micrometers)
Y Units: Reflectance (percentage)
First X Value: 0.35
Last X Value: 2.5
Number of X Values: 2151
Additional Information: vegetation.shrub.ceanothus.spinosus.vswir.vh012.ucsb.asd.ancillary.txt

 0.3500	 9.0990
 0.3510	 9.1790
 0.3520	 9.0480
 0.3530	 9.0060
 0.3540	 9.1930
 0.3550	 9.0380
 0.3560	 8.9070
 0.3570	 8.9150
 0.3580	 9.0070
 0.3590	 8.9000
 0.3600	 8.8290
 0.3610	 8.8770
 0.3620	 8.8530
 0.3630	 8.8540
 0.3640	 8.9000
 0.3650	 8.9600
 0.3660	 8.9010
 0.3670	 8.8660
 0.3680	 8.8680
 0.3690	 8.8280
 0.3700	 8.7790
 0.3710	 8.8420
 0.3720	 8.9890
 0.3730	 8.8950
 0.3740	 8.9090
 0.3750	 8.9670
 0.3760	 8.9200
 0.3770	 8.8540
 0.3780	 8.7860
 0.3790	 8.7640
 0.3800	 8.8400
 0.3810	 8.8580
 0.3820	 8.8660
 0.3830	 8.8800
 0.3840	 8.7370
 0.3850	 8.7330
 0.3860	 8.7800
 0.3870	 8.7000
 0.3880	 8.6870
 0.3890	 8.7110
 0.3900	 8.7250
 0.3910	 8.6890
 0.3920	 8.6420
 0.3930	 8.6420
 0.3940	 8.6940
 0.3950	 8.6510
 0.3960	 8.6840
 0.3970	 8.7360
 0.3980	 8.6730
 0.3990	 8.6020
 0.4000	 8.5740
 0.4010	 8.5900
 0.4020	 8.5980
 0.4030	 8.5910
 0.4040	 8.5820
 0.4050	 8.5880
 0.4060	 8.6080
 0.4070	 8.6190
 0.4080	 8.6190
 0.4090	 8.6260
 0.4100	 8.6390
 0.4110	 8.6490
 0.4120	 8.6480
 0.4130	 8.6200
 0.4140	 8.6130
 0.4150	 8.6340
 0.4160	 8.6680
 0.4170	 8.7140
 0.4180	 8.7260
 0.4190	 8.7180
 0.4200	 8.7550
 0.4210	 8.7750
 0.4220	 8.7920
 0.4230	 8.8250
 0.4240	 8.8700
 0.4250	 8.9180
 0.4260	 8.9550
 0.4270	 8.9710
 0.4280	 8.9840
 0.4290	 9.0040
 0.4300	 9.0280
 0.4310	 9.0390
 0.4320	 9.0570
 0.4330	 9.0800
 0.4340	 9.0990
 0.4350	 9.1230
 0.4360	 9.1330
 0.4370	 9.1360
 0.4380	 9.1590
 0.4390	 9.1830
 0.4400	 9.2090
 0.4410	 9.2340
 0.4420	 9.2460
 0.4430	 9.2660
 0.4440	 9.2930
 0.4450	 9.3170
 0.4460	 9.3180
 0.4470	 9.3300
 0.4480	 9.3570
 0.4490	 9.3710
 0.4500	 9.3990
 0.4510	 9.4260
 0.4520	 9.4350
 0.4530	 9.4440
 0.4540	 9.4560
 0.4550	 9.4740
 0.4560	 9.5040
 0.4570	 9.5130
 0.4580	 9.5080
 0.4590	 9.5040
 0.4600	 9.5070
 0.4610	 9.5170
 0.4620	 9.5270
 0.4630	 9.5300
 0.4640	 9.5320
 0.4650	 9.5330
 0.4660	 9.5320
 0.4670	 9.5280
 0.4680	 9.5300
 0.4690	 9.5360
 0.4700	 9.5420
 0.4710	 9.5460
 0.4720	 9.5490
 0.4730	 9.5460
 0.4740	 9.5370
 0.4750	 9.5310
 0.4760	 9.5290
 0.4770	 9.5310
 0.4780	 9.5440
 0.4790	 9.5470
 0.4800	 9.5490
 0.4810	 9.5620
 0.4820	 9.5640
 0.4830	 9.5620
 0.4840	 9.5690
 0.4850	 9.5940
 0.4860	 9.6000
 0.4870	 9.6050
 0.4880	 9.6240
 0.4890	 9.6400
 0.4900	 9.6610
 0.4910	 9.6840
 0.4920	 9.7050
 0.4930	 9.7290
 0.4940	 9.7540
 0.4950	 9.7810
 0.4960	 9.8100
 0.4970	 9.8520
 0.4980	 9.8960
 0.4990	 9.9310
 0.5000	 9.9840
 0.5010	10.0420
 0.5020	10.0970
 0.5030	10.1550
 0.5040	10.2270
 0.5050	10.3100
 0.5060	10.3970
 0.5070	10.4870
 0.5080	10.5900
 0.5090	10.7030
 0.5100	10.8220
 0.5110	10.9540
 0.5120	11.0940
 0.5130	11.2420
 0.5140	11.4090
 0.5150	11.5880
 0.5160	11.7760
 0.5170	11.9730
 0.5180	12.1850
 0.5190	12.4080
 0.5200	12.6380
 0.5210	12.8750
 0.5220	13.1080
 0.5230	13.3410
 0.5240	13.5740
 0.5250	13.8060
 0.5260	14.0310
 0.5270	14.2480
 0.5280	14.4580
 0.5290	14.6470
 0.5300	14.8250
 0.5310	14.9950
 0.5320	15.1520
 0.5330	15.2900
 0.5340	15.4160
 0.5350	15.5330
 0.5360	15.6440
 0.5370	15.7400
 0.5380	15.8210
 0.5390	15.8990
 0.5400	15.9680
 0.5410	16.0320
 0.5420	16.0950
 0.5430	16.1500
 0.5440	16.2020
 0.5450	16.2540
 0.5460	16.3070
 0.5470	16.3550
 0.5480	16.3990
 0.5490	16.4330
 0.5500	16.4540
 0.5510	16.4700
 0.5520	16.4790
 0.5530	16.4760
 0.5540	16.4540
 0.5550	16.4180
 0.5560	16.3690
 0.5570	16.3040
 0.5580	16.2230
 0.5590	16.1330
 0.5600	16.0370
 0.5610	15.9310
 0.5620	15.8180
 0.5630	15.7000
 0.5640	15.5760
 0.5650	15.4390
 0.5660	15.2950
 0.5670	15.1490
 0.5680	15.0030
 0.5690	14.8430
 0.5700	14.6840
 0.5710	14.5370
 0.5720	14.3980
 0.5730	14.2590
 0.5740	14.1220
 0.5750	13.9910
 0.5760	13.8550
 0.5770	13.7180
 0.5780	13.5860
 0.5790	13.4710
 0.5800	13.3750
 0.5810	13.3010
 0.5820	13.2450
 0.5830	13.1920
 0.5840	13.1330
 0.5850	13.0690
 0.5860	13.0080
 0.5870	12.9580
 0.5880	12.9160
 0.5890	12.8780
 0.5900	12.8500
 0.5910	12.8280
 0.5920	12.8030
 0.5930	12.7660
 0.5940	12.7310
 0.5950	12.7040
 0.5960	12.6820
 0.5970	12.6510
 0.5980	12.6210
 0.5990	12.5920
 0.6000	12.5610
 0.6010	12.5220
 0.6020	12.4830
 0.6030	12.4400
 0.6040	12.3860
 0.6050	12.3270
 0.6060	12.2690
 0.6070	12.2120
 0.6080	12.1420
 0.6090	12.0700
 0.6100	11.9950
 0.6110	11.9130
 0.6120	11.8430
 0.6130	11.7760
 0.6140	11.7100
 0.6150	11.6450
 0.6160	11.5830
 0.6170	11.5260
 0.6180	11.4720
 0.6190	11.4190
 0.6200	11.3720
 0.6210	11.3310
 0.6220	11.2960
 0.6230	11.2670
 0.6240	11.2400
 0.6250	11.2150
 0.6260	11.1960
 0.6270	11.1830
 0.6280	11.1720
 0.6290	11.1610
 0.6300	11.1470
 0.6310	11.1370
 0.6320	11.1290
 0.6330	11.1180
 0.6340	11.1010
 0.6350	11.0790
 0.6360	11.0510
 0.6370	11.0120
 0.6380	10.9680
 0.6390	10.9190
 0.6400	10.8650
 0.6410	10.8080
 0.6420	10.7450
 0.6430	10.6790
 0.6440	10.6170
 0.6450	10.5520
 0.6460	10.4840
 0.6470	10.4200
 0.6480	10.3600
 0.6490	10.3040
 0.6500	10.2530
 0.6510	10.2090
 0.6520	10.1710
 0.6530	10.1340
 0.6540	10.0920
 0.6550	10.0480
 0.6560	10.0060
 0.6570	 9.9610
 0.6580	 9.9090
 0.6590	 9.8560
 0.6600	 9.8010
 0.6610	 9.7470
 0.6620	 9.7000
 0.6630	 9.6540
 0.6640	 9.6100
 0.6650	 9.5680
 0.6660	 9.5340
 0.6670	 9.5110
 0.6680	 9.4930
 0.6690	 9.4730
 0.6700	 9.4640
 0.6710	 9.4580
 0.6720	 9.4540
 0.6730	 9.4580
 0.6740	 9.4690
 0.6750	 9.4850
 0.6760	 9.5010
 0.6770	 9.5190
 0.6780	 9.5400
 0.6790	 9.5660
 0.6800	 9.6000
 0.6810	 9.6370
 0.6820	 9.6820
 0.6830	 9.7390
 0.6840	 9.8100
 0.6850	 9.8880
 0.6860	 9.9840
 0.6870	10.1070
 0.6880	10.2460
 0.6890	10.4210
 0.6900	10.6390
 0.6910	10.8910
 0.6920	11.1880
 0.6930	11.5430
 0.6940	11.9580
 0.6950	12.4270
 0.6960	12.9540
 0.6970	13.5430
 0.6980	14.1950
 0.6990	14.9020
 0.7000	15.6540
 0.7010	16.4490
 0.7020	17.2880
 0.7030	18.1580
 0.7040	19.0490
 0.7050	19.9530
 0.7060	20.8710
 0.7070	21.7980
 0.7080	22.7260
 0.7090	23.6520
 0.7100	24.5820
 0.7110	25.5080
 0.7120	26.4260
 0.7130	27.3330
 0.7140	28.2310
 0.7150	29.1230
 0.7160	30.0020
 0.7170	30.8630
 0.7180	31.7010
 0.7190	32.5200
 0.7200	33.3260
 0.7210	34.1090
 0.7220	34.8690
 0.7230	35.6080
 0.7240	36.3230
 0.7250	37.0020
 0.7260	37.6530
 0.7270	38.2830
 0.7280	38.8830
 0.7290	39.4510
 0.7300	39.9890
 0.7310	40.5070
 0.7320	40.9900
 0.7330	41.4500
 0.7340	41.8850
 0.7350	42.2910
 0.7360	42.6780
 0.7370	43.0400
 0.7380	43.3750
 0.7390	43.6980
 0.7400	43.9910
 0.7410	44.2650
 0.7420	44.5320
 0.7430	44.7720
 0.7440	44.9930
 0.7450	45.1990
 0.7460	45.3910
 0.7470	45.5690
 0.7480	45.7340
 0.7490	45.8810
 0.7500	46.0130
 0.7510	46.1460
 0.7520	46.2680
 0.7530	46.3650
 0.7540	46.4600
 0.7550	46.5490
 0.7560	46.6310
 0.7570	46.7060
 0.7580	46.7730
 0.7590	46.8350
 0.7600	46.8920
 0.7610	46.9380
 0.7620	46.9850
 0.7630	47.0300
 0.7640	47.0710
 0.7650	47.1060
 0.7660	47.1400
 0.7670	47.1710
 0.7680	47.1970
 0.7690	47.2220
 0.7700	47.2470
 0.7710	47.2700
 0.7720	47.2880
 0.7730	47.3040
 0.7740	47.3250
 0.7750	47.3530
 0.7760	47.3730
 0.7770	47.3880
 0.7780	47.4020
 0.7790	47.4200
 0.7800	47.4340
 0.7810	47.4520
 0.7820	47.4710
 0.7830	47.4770
 0.7840	47.4920
 0.7850	47.5070
 0.7860	47.5170
 0.7870	47.5250
 0.7880	47.5360
 0.7890	47.5480
 0.7900	47.5600
 0.7910	47.5710
 0.7920	47.5760
 0.7930	47.5800
 0.7940	47.5970
 0.7950	47.6010
 0.7960	47.6020
 0.7970	47.6090
 0.7980	47.6140
 0.7990	47.6160
 0.8000	47.6190
 0.8010	47.6220
 0.8020	47.6190
 0.8030	47.6180
 0.8040	47.6200
 0.8050	47.6190
 0.8060	47.6130
 0.8070	47.6090
 0.8080	47.6050
 0.8090	47.5990
 0.8100	47.5930
 0.8110	47.5820
 0.8120	47.5700
 0.8130	47.5730
 0.8140	47.5700
 0.8150	47.5570
 0.8160	47.5410
 0.8170	47.5370
 0.8180	47.5300
 0.8190	47.5170
 0.8200	47.5060
 0.8210	47.4980
 0.8220	47.4880
 0.8230	47.4710
 0.8240	47.4520
 0.8250	47.4390
 0.8260	47.4310
 0.8270	47.4210
 0.8280	47.4050
 0.8290	47.3900
 0.8300	47.3750
 0.8310	47.3590
 0.8320	47.3420
 0.8330	47.3230
 0.8340	47.3050
 0.8350	47.2970
 0.8360	47.2920
 0.8370	47.2840
 0.8380	47.2700
 0.8390	47.2530
 0.8400	47.2540
 0.8410	47.2530
 0.8420	47.2380
 0.8430	47.2230
 0.8440	47.2240
 0.8450	47.2270
 0.8460	47.2200
 0.8470	47.2190
 0.8480	47.2130
 0.8490	47.2020
 0.8500	47.1920
 0.8510	47.1910
 0.8520	47.1880
 0.8530	47.1860
 0.8540	47.1900
 0.8550	47.1830
 0.8560	47.1780
 0.8570	47.1790
 0.8580	47.1820
 0.8590	47.1710
 0.8600	47.1650
 0.8610	47.1730
 0.8620	47.1800
 0.8630	47.1860
 0.8640	47.1890
 0.8650	47.1880
 0.8660	47.1770
 0.8670	47.1760
 0.8680	47.1870
 0.8690	47.2000
 0.8700	47.2010
 0.8710	47.2030
 0.8720	47.2050
 0.8730	47.2000
 0.8740	47.2000
 0.8750	47.2030
 0.8760	47.2080
 0.8770	47.2200
 0.8780	47.2360
 0.8790	47.2460
 0.8800	47.2470
 0.8810	47.2500
 0.8820	47.2580
 0.8830	47.2680
 0.8840	47.2740
 0.8850	47.2730
 0.8860	47.2770
 0.8870	47.2830
 0.8880	47.2860
 0.8890	47.2840
 0.8900	47.2840
 0.8910	47.2940
 0.8920	47.3150
 0.8930	47.3170
 0.8940	47.3150
 0.8950	47.3190
 0.8960	47.3290
 0.8970	47.3310
 0.8980	47.3360
 0.8990	47.3440
 0.9000	47.3460
 0.9010	47.3490
 0.9020	47.3590
 0.9030	47.3730
 0.9040	47.3700
 0.9050	47.3790
 0.9060	47.3910
 0.9070	47.3950
 0.9080	47.3920
 0.9090	47.3950
 0.9100	47.4030
 0.9110	47.4110
 0.9120	47.4080
 0.9130	47.4120
 0.9140	47.4180
 0.9150	47.4180
 0.9160	47.4180
 0.9170	47.4170
 0.9180	47.4140
 0.9190	47.4100
 0.9200	47.4170
 0.9210	47.4130
 0.9220	47.4020
 0.9230	47.3990
 0.9240	47.3950
 0.9250	47.3870
 0.9260	47.3800
 0.9270	47.3820
 0.9280	47.3600
 0.9290	47.3400
 0.9300	47.3250
 0.9310	47.2950
 0.9320	47.2870
 0.9330	47.2730
 0.9340	47.2460
 0.9350	47.2300
 0.9360	47.1970
 0.9370	47.1650
 0.9380	47.1400
 0.9390	47.1050
 0.9400	47.0710
 0.9410	47.0380
 0.9420	47.0030
 0.9430	46.9730
 0.9440	46.9420
 0.9450	46.9190
 0.9460	46.8960
 0.9470	46.8350
 0.9480	46.7710
 0.9490	46.7110
 0.9500	46.6530
 0.9510	46.5940
 0.9520	46.5320
 0.9530	46.4680
 0.9540	46.4040
 0.9550	46.3300
 0.9560	46.2580
 0.9570	46.1970
 0.9580	46.1420
 0.9590	46.0710
 0.9600	46.0060
 0.9610	45.9640
 0.9620	45.9420
 0.9630	45.9020
 0.9640	45.8540
 0.9650	45.8140
 0.9660	45.7920
 0.9670	45.7740
 0.9680	45.7500
 0.9690	45.7210
 0.9700	45.6950
 0.9710	45.6710
 0.9720	45.6800
 0.9730	45.6980
 0.9740	45.6830
 0.9750	45.6620
 0.9760	45.6450
 0.9770	45.6380
 0.9780	45.6400
 0.9790	45.6400
 0.9800	45.6450
 0.9810	45.6510
 0.9820	45.6540
 0.9830	45.6700
 0.9840	45.6760
 0.9850	45.6770
 0.9860	45.6890
 0.9870	45.7070
 0.9880	45.7210
 0.9890	45.7360
 0.9900	45.7570
 0.9910	45.7800
 0.9920	45.8370
 0.9930	45.8930
 0.9940	45.9500
 0.9950	46.0060
 0.9960	46.0630
 0.9970	46.1190
 0.9980	46.1760
 0.9990	46.2320
 1.0000	46.2890
 1.0010	46.3450
 1.0020	46.4020
 1.0030	46.4580
 1.0040	46.5150
 1.0050	46.5710
 1.0060	46.6280
 1.0070	46.6840
 1.0080	46.7410
 1.0090	46.7970
 1.0100	46.7970
 1.0110	46.8140
 1.0120	46.8340
 1.0130	46.8560
 1.0140	46.8750
 1.0150	46.8920
 1.0160	46.9100
 1.0170	46.9300
 1.0180	46.9480
 1.0190	46.9690
 1.0200	46.9880
 1.0210	47.0060
 1.0220	47.0260
 1.0230	47.0420
 1.0240	47.0580
 1.0250	47.0740
 1.0260	47.0830
 1.0270	47.1000
 1.0280	47.1230
 1.0290	47.1410
 1.0300	47.1610
 1.0310	47.1790
 1.0320	47.1920
 1.0330	47.2060
 1.0340	47.2240
 1.0350	47.2390
 1.0360	47.2540
 1.0370	47.2670
 1.0380	47.2790
 1.0390	47.2870
 1.0400	47.2990
 1.0410	47.3110
 1.0420	47.3220
 1.0430	47.3330
 1.0440	47.3430
 1.0450	47.3520
 1.0460	47.3620
 1.0470	47.3730
 1.0480	47.3820
 1.0490	47.3870
 1.0500	47.3940
 1.0510	47.4010
 1.0520	47.4070
 1.0530	47.4140
 1.0540	47.4220
 1.0550	47.4310
 1.0560	47.4420
 1.0570	47.4480
 1.0580	47.4550
 1.0590	47.4590
 1.0600	47.4570
 1.0610	47.4590
 1.0620	47.4600
 1.0630	47.4620
 1.0640	47.4680
 1.0650	47.4690
 1.0660	47.4640
 1.0670	47.4630
 1.0680	47.4610
 1.0690	47.4560
 1.0700	47.4540
 1.0710	47.4570
 1.0720	47.4560
 1.0730	47.4550
 1.0740	47.4520
 1.0750	47.4480
 1.0760	47.4440
 1.0770	47.4370
 1.0780	47.4320
 1.0790	47.4290
 1.0800	47.4230
 1.0810	47.4150
 1.0820	47.4080
 1.0830	47.3990
 1.0840	47.3910
 1.0850	47.3830
 1.0860	47.3770
 1.0870	47.3700
 1.0880	47.3620
 1.0890	47.3510
 1.0900	47.3380
 1.0910	47.3270
 1.0920	47.3120
 1.0930	47.3000
 1.0940	47.2900
 1.0950	47.2790
 1.0960	47.2690
 1.0970	47.2570
 1.0980	47.2460
 1.0990	47.2340
 1.1000	47.2210
 1.1010	47.2050
 1.1020	47.1880
 1.1030	47.1670
 1.1040	47.1490
 1.1050	47.1340
 1.1060	47.1180
 1.1070	47.1060
 1.1080	47.0900
 1.1090	47.0710
 1.1100	47.0520
 1.1110	47.0320
 1.1120	47.0130
 1.1130	46.9920
 1.1140	46.9700
 1.1150	46.9500
 1.1160	46.9270
 1.1170	46.9020
 1.1180	46.8750
 1.1190	46.8470
 1.1200	46.8160
 1.1210	46.7810
 1.1220	46.7420
 1.1230	46.6970
 1.1240	46.6510
 1.1250	46.6020
 1.1260	46.5530
 1.1270	46.4940
 1.1280	46.4320
 1.1290	46.3610
 1.1300	46.2840
 1.1310	46.2000
 1.1320	46.1100
 1.1330	46.0140
 1.1340	45.9130
 1.1350	45.8040
 1.1360	45.6860
 1.1370	45.5650
 1.1380	45.4360
 1.1390	45.3000
 1.1400	45.1600
 1.1410	45.0170
 1.1420	44.8710
 1.1430	44.7210
 1.1440	44.5720
 1.1450	44.4210
 1.1460	44.2770
 1.1470	44.1320
 1.1480	43.9950
 1.1490	43.8600
 1.1500	43.7350
 1.1510	43.6120
 1.1520	43.5010
 1.1530	43.4000
 1.1540	43.3070
 1.1550	43.2210
 1.1560	43.1450
 1.1570	43.0770
 1.1580	43.0160
 1.1590	42.9660
 1.1600	42.9230
 1.1610	42.8850
 1.1620	42.8530
 1.1630	42.8230
 1.1640	42.8000
 1.1650	42.7820
 1.1660	42.7720
 1.1670	42.7610
 1.1680	42.7550
 1.1690	42.7470
 1.1700	42.7410
 1.1710	42.7360
 1.1720	42.7310
 1.1730	42.7270
 1.1740	42.7250
 1.1750	42.7210
 1.1760	42.7160
 1.1770	42.7140
 1.1780	42.7110
 1.1790	42.7050
 1.1800	42.6980
 1.1810	42.6900
 1.1820	42.6800
 1.1830	42.6730
 1.1840	42.6660
 1.1850	42.6590
 1.1860	42.6520
 1.1870	42.6430
 1.1880	42.6360
 1.1890	42.6290
 1.1900	42.6240
 1.1910	42.6210
 1.1920	42.6200
 1.1930	42.6200
 1.1940	42.6210
 1.1950	42.6220
 1.1960	42.6250
 1.1970	42.6290
 1.1980	42.6360
 1.1990	42.6450
 1.2000	42.6530
 1.2010	42.6600
 1.2020	42.6660
 1.2030	42.6750
 1.2040	42.6870
 1.2050	42.7010
 1.2060	42.7160
 1.2070	42.7310
 1.2080	42.7460
 1.2090	42.7590
 1.2100	42.7740
 1.2110	42.7910
 1.2120	42.8080
 1.2130	42.8260
 1.2140	42.8480
 1.2150	42.8670
 1.2160	42.8850
 1.2170	42.9040
 1.2180	42.9230
 1.2190	42.9400
 1.2200	42.9600
 1.2210	42.9820
 1.2220	43.0020
 1.2230	43.0240
 1.2240	43.0440
 1.2250	43.0620
 1.2260	43.0780
 1.2270	43.0930
 1.2280	43.1080
 1.2290	43.1240
 1.2300	43.1400
 1.2310	43.1570
 1.2320	43.1740
 1.2330	43.1880
 1.2340	43.2020
 1.2350	43.2150
 1.2360	43.2280
 1.2370	43.2390
 1.2380	43.2510
 1.2390	43.2640
 1.2400	43.2770
 1.2410	43.2880
 1.2420	43.2990
 1.2430	43.3110
 1.2440	43.3210
 1.2450	43.3300
 1.2460	43.3400
 1.2470	43.3480
 1.2480	43.3560
 1.2490	43.3650
 1.2500	43.3730
 1.2510	43.3780
 1.2520	43.3840
 1.2530	43.3890
 1.2540	43.3920
 1.2550	43.3960
 1.2560	43.3980
 1.2570	43.3990
 1.2580	43.3980
 1.2590	43.3970
 1.2600	43.3940
 1.2610	43.3910
 1.2620	43.3860
 1.2630	43.3810
 1.2640	43.3760
 1.2650	43.3700
 1.2660	43.3640
 1.2670	43.3570
 1.2680	43.3510
 1.2690	43.3440
 1.2700	43.3330
 1.2710	43.3220
 1.2720	43.3090
 1.2730	43.2960
 1.2740	43.2820
 1.2750	43.2680
 1.2760	43.2520
 1.2770	43.2330
 1.2780	43.2160
 1.2790	43.1970
 1.2800	43.1760
 1.2810	43.1550
 1.2820	43.1310
 1.2830	43.1070
 1.2840	43.0820
 1.2850	43.0540
 1.2860	43.0260
 1.2870	42.9950
 1.2880	42.9600
 1.2890	42.9230
 1.2900	42.8870
 1.2910	42.8470
 1.2920	42.8030
 1.2930	42.7610
 1.2940	42.7150
 1.2950	42.6660
 1.2960	42.6170
 1.2970	42.5650
 1.2980	42.5100
 1.2990	42.4550
 1.3000	42.3960
 1.3010	42.3380
 1.3020	42.2740
 1.3030	42.2090
 1.3040	42.1410
 1.3050	42.0680
 1.3060	41.9930
 1.3070	41.9150
 1.3080	41.8370
 1.3090	41.7590
 1.3100	41.6750
 1.3110	41.5890
 1.3120	41.5000
 1.3130	41.4040
 1.3140	41.3060
 1.3150	41.2040
 1.3160	41.1010
 1.3170	40.9950
 1.3180	40.8880
 1.3190	40.7780
 1.3200	40.6650
 1.3210	40.5450
 1.3220	40.4220
 1.3230	40.2980
 1.3240	40.1680
 1.3250	40.0400
 1.3260	39.9110
 1.3270	39.7780
 1.3280	39.6460
 1.3290	39.5100
 1.3300	39.3710
 1.3310	39.2310
 1.3320	39.0890
 1.3330	38.9460
 1.3340	38.8000
 1.3350	38.6540
 1.3360	38.5060
 1.3370	38.3590
 1.3380	38.2120
 1.3390	38.0670
 1.3400	37.9210
 1.3410	37.7760
 1.3420	37.6320
 1.3430	37.4870
 1.3440	37.3440
 1.3450	37.2020
 1.3460	37.0590
 1.3470	36.9190
 1.3480	36.7800
 1.3490	36.6430
 1.3500	36.5080
 1.3510	36.3750
 1.3520	36.2410
 1.3530	36.1070
 1.3540	35.9720
 1.3550	35.8370
 1.3560	35.7020
 1.3570	35.5650
 1.3580	35.4290
 1.3590	35.2910
 1.3600	35.1490
 1.3610	35.0050
 1.3620	34.8560
 1.3630	34.7020
 1.3640	34.5420
 1.3650	34.3740
 1.3660	34.2000
 1.3670	34.0160
 1.3680	33.8220
 1.3690	33.6190
 1.3700	33.3990
 1.3710	33.1650
 1.3720	32.9190
 1.3730	32.6550
 1.3740	32.3780
 1.3750	32.0830
 1.3760	31.7680
 1.3770	31.4330
 1.3780	31.0770
 1.3790	30.7010
 1.3800	30.3040
 1.3810	29.8830
 1.3820	29.4480
 1.3830	28.9950
 1.3840	28.5270
 1.3850	28.0440
 1.3860	27.5500
 1.3870	27.0360
 1.3880	26.5220
 1.3890	25.9970
 1.3900	25.4650
 1.3910	24.9380
 1.3920	24.4070
 1.3930	23.8770
 1.3940	23.3530
 1.3950	22.8290
 1.3960	22.3160
 1.3970	21.8160
 1.3980	21.3270
 1.3990	20.8590
 1.4000	20.4080
 1.4010	19.9700
 1.4020	19.5550
 1.4030	19.1550
 1.4040	18.7760
 1.4050	18.4190
 1.4060	18.0820
 1.4070	17.7670
 1.4080	17.4740
 1.4090	17.2000
 1.4100	16.9450
 1.4110	16.7070
 1.4120	16.4870
 1.4130	16.2840
 1.4140	16.0980
 1.4150	15.9300
 1.4160	15.7770
 1.4170	15.6360
 1.4180	15.5090
 1.4190	15.3920
 1.4200	15.2850
 1.4210	15.1900
 1.4220	15.1060
 1.4230	15.0310
 1.4240	14.9640
 1.4250	14.9040
 1.4260	14.8510
 1.4270	14.8050
 1.4280	14.7660
 1.4290	14.7310
 1.4300	14.7040
 1.4310	14.6800
 1.4320	14.6630
 1.4330	14.6480
 1.4340	14.6380
 1.4350	14.6310
 1.4360	14.6280
 1.4370	14.6270
 1.4380	14.6290
 1.4390	14.6340
 1.4400	14.6410
 1.4410	14.6510
 1.4420	14.6630
 1.4430	14.6770
 1.4440	14.6920
 1.4450	14.7080
 1.4460	14.7250
 1.4470	14.7430
 1.4480	14.7630
 1.4490	14.7840
 1.4500	14.8070
 1.4510	14.8310
 1.4520	14.8550
 1.4530	14.8790
 1.4540	14.9030
 1.4550	14.9300
 1.4560	14.9590
 1.4570	14.9900
 1.4580	15.0230
 1.4590	15.0570
 1.4600	15.0950
 1.4610	15.1350
 1.4620	15.1790
 1.4630	15.2280
 1.4640	15.2790
 1.4650	15.3340
 1.4660	15.3930
 1.4670	15.4570
 1.4680	15.5240
 1.4690	15.5960
 1.4700	15.6700
 1.4710	15.7480
 1.4720	15.8290
 1.4730	15.9130
 1.4740	16.0000
 1.4750	16.0910
 1.4760	16.1850
 1.4770	16.2800
 1.4780	16.3780
 1.4790	16.4790
 1.4800	16.5800
 1.4810	16.6820
 1.4820	16.7860
 1.4830	16.8900
 1.4840	16.9960
 1.4850	17.1020
 1.4860	17.2080
 1.4870	17.3150
 1.4880	17.4220
 1.4890	17.5280
 1.4900	17.6360
 1.4910	17.7450
 1.4920	17.8550
 1.4930	17.9660
 1.4940	18.0770
 1.4950	18.1880
 1.4960	18.3000
 1.4970	18.4090
 1.4980	18.5200
 1.4990	18.6310
 1.5000	18.7420
 1.5010	18.8530
 1.5020	18.9640
 1.5030	19.0760
 1.5040	19.1860
 1.5050	19.2950
 1.5060	19.4050
 1.5070	19.5150
 1.5080	19.6240
 1.5090	19.7330
 1.5100	19.8420
 1.5110	19.9490
 1.5120	20.0570
 1.5130	20.1640
 1.5140	20.2710
 1.5150	20.3760
 1.5160	20.4800
 1.5170	20.5850
 1.5180	20.6880
 1.5190	20.7920
 1.5200	20.8970
 1.5210	21.0000
 1.5220	21.1030
 1.5230	21.2060
 1.5240	21.3080
 1.5250	21.4100
 1.5260	21.5090
 1.5270	21.6070
 1.5280	21.7050
 1.5290	21.8000
 1.5300	21.8960
 1.5310	21.9900
 1.5320	22.0820
 1.5330	22.1770
 1.5340	22.2700
 1.5350	22.3620
 1.5360	22.4560
 1.5370	22.5450
 1.5380	22.6340
 1.5390	22.7240
 1.5400	22.8110
 1.5410	22.8980
 1.5420	22.9850
 1.5430	23.0690
 1.5440	23.1550
 1.5450	23.2400
 1.5460	23.3250
 1.5470	23.4080
 1.5480	23.4920
 1.5490	23.5750
 1.5500	23.6570
 1.5510	23.7380
 1.5520	23.8180
 1.5530	23.8940
 1.5540	23.9700
 1.5550	24.0470
 1.5560	24.1220
 1.5570	24.1970
 1.5580	24.2710
 1.5590	24.3430
 1.5600	24.4160
 1.5610	24.4870
 1.5620	24.5580
 1.5630	24.6280
 1.5640	24.6960
 1.5650	24.7640
 1.5660	24.8320
 1.5670	24.9000
 1.5680	24.9680
 1.5690	25.0330
 1.5700	25.0970
 1.5710	25.1620
 1.5720	25.2250
 1.5730	25.2880
 1.5740	25.3520
 1.5750	25.4150
 1.5760	25.4780
 1.5770	25.5390
 1.5780	25.5970
 1.5790	25.6550
 1.5800	25.7110
 1.5810	25.7690
 1.5820	25.8290
 1.5830	25.8880
 1.5840	25.9480
 1.5850	26.0070
 1.5860	26.0640
 1.5870	26.1210
 1.5880	26.1770
 1.5890	26.2330
 1.5900	26.2900
 1.5910	26.3450
 1.5920	26.4000
 1.5930	26.4530
 1.5940	26.5050
 1.5950	26.5570
 1.5960	26.6090
 1.5970	26.6620
 1.5980	26.7130
 1.5990	26.7620
 1.6000	26.8140
 1.6010	26.8640
 1.6020	26.9130
 1.6030	26.9610
 1.6040	27.0070
 1.6050	27.0530
 1.6060	27.0990
 1.6070	27.1450
 1.6080	27.1910
 1.6090	27.2350
 1.6100	27.2800
 1.6110	27.3230
 1.6120	27.3640
 1.6130	27.4060
 1.6140	27.4460
 1.6150	27.4860
 1.6160	27.5280
 1.6170	27.5660
 1.6180	27.6030
 1.6190	27.6410
 1.6200	27.6770
 1.6210	27.7140
 1.6220	27.7510
 1.6230	27.7860
 1.6240	27.8200
 1.6250	27.8530
 1.6260	27.8860
 1.6270	27.9180
 1.6280	27.9500
 1.6290	27.9810
 1.6300	28.0100
 1.6310	28.0380
 1.6320	28.0650
 1.6330	28.0920
 1.6340	28.1190
 1.6350	28.1430
 1.6360	28.1650
 1.6370	28.1870
 1.6380	28.2060
 1.6390	28.2240
 1.6400	28.2410
 1.6410	28.2550
 1.6420	28.2680
 1.6430	28.2780
 1.6440	28.2870
 1.6450	28.2940
 1.6460	28.2980
 1.6470	28.3010
 1.6480	28.3020
 1.6490	28.3010
 1.6500	28.2980
 1.6510	28.2930
 1.6520	28.2860
 1.6530	28.2790
 1.6540	28.2700
 1.6550	28.2630
 1.6560	28.2560
 1.6570	28.2490
 1.6580	28.2440
 1.6590	28.2370
 1.6600	28.2320
 1.6610	28.2270
 1.6620	28.2220
 1.6630	28.2180
 1.6640	28.2150
 1.6650	28.2130
 1.6660	28.2130
 1.6670	28.2130
 1.6680	28.2140
 1.6690	28.2160
 1.6700	28.2170
 1.6710	28.2180
 1.6720	28.2190
 1.6730	28.2210
 1.6740	28.2230
 1.6750	28.2210
 1.6760	28.2180
 1.6770	28.2140
 1.6780	28.2070
 1.6790	28.2000
 1.6800	28.1930
 1.6810	28.1850
 1.6820	28.1730
 1.6830	28.1590
 1.6840	28.1430
 1.6850	28.1240
 1.6860	28.1040
 1.6870	28.0840
 1.6880	28.0620
 1.6890	28.0400
 1.6900	28.0160
 1.6910	27.9920
 1.6920	27.9670
 1.6930	27.9430
 1.6940	27.9160
 1.6950	27.8890
 1.6960	27.8610
 1.6970	27.8310
 1.6980	27.8010
 1.6990	27.7710
 1.7000	27.7400
 1.7010	27.7070
 1.7020	27.6730
 1.7030	27.6400
 1.7040	27.6050
 1.7050	27.5700
 1.7060	27.5340
 1.7070	27.4970
 1.7080	27.4600
 1.7090	27.4250
 1.7100	27.3860
 1.7110	27.3470
 1.7120	27.3050
 1.7130	27.2610
 1.7140	27.2180
 1.7150	27.1730
 1.7160	27.1280
 1.7170	27.0810
 1.7180	27.0330
 1.7190	26.9830
 1.7200	26.9350
 1.7210	26.8860
 1.7220	26.8350
 1.7230	26.7850
 1.7240	26.7340
 1.7250	26.6800
 1.7260	26.6280
 1.7270	26.5760
 1.7280	26.5240
 1.7290	26.4730
 1.7300	26.4200
 1.7310	26.3680
 1.7320	26.3150
 1.7330	26.2630
 1.7340	26.2130
 1.7350	26.1620
 1.7360	26.1120
 1.7370	26.0590
 1.7380	26.0040
 1.7390	25.9510
 1.7400	25.8990
 1.7410	25.8460
 1.7420	25.7930
 1.7430	25.7410
 1.7440	25.6890
 1.7450	25.6370
 1.7460	25.5870
 1.7470	25.5360
 1.7480	25.4850
 1.7490	25.4350
 1.7500	25.3870
 1.7510	25.3360
 1.7520	25.2850
 1.7530	25.2340
 1.7540	25.1830
 1.7550	25.1290
 1.7560	25.0770
 1.7570	25.0230
 1.7580	24.9680
 1.7590	24.9160
 1.7600	24.8630
 1.7610	24.8120
 1.7620	24.7610
 1.7630	24.7100
 1.7640	24.6620
 1.7650	24.6140
 1.7660	24.5670
 1.7670	24.5250
 1.7680	24.4800
 1.7690	24.4340
 1.7700	24.3900
 1.7710	24.3470
 1.7720	24.3040
 1.7730	24.2630
 1.7740	24.2220
 1.7750	24.1800
 1.7760	24.1410
 1.7770	24.1040
 1.7780	24.0680
 1.7790	24.0340
 1.7800	24.0010
 1.7810	23.9700
 1.7820	23.9390
 1.7830	23.9090
 1.7840	23.8810
 1.7850	23.8540
 1.7860	23.8310
 1.7870	23.8090
 1.7880	23.7900
 1.7890	23.7730
 1.7900	23.7540
 1.7910	23.7370
 1.7920	23.7230
 1.7930	23.7090
 1.7940	23.6980
 1.7950	23.6880
 1.7960	23.6780
 1.7970	23.6710
 1.7980	23.6680
 1.7990	23.6630
 1.8000	23.6600
 1.8010	23.6560
 1.8020	23.6500
 1.8030	23.6460
 1.8040	23.6420
 1.8050	23.6400
 1.8060	23.6390
 1.8070	23.6380
 1.8080	23.6370
 1.8090	23.6350
 1.8100	23.6320
 1.8110	23.6270
 1.8120	23.6240
 1.8130	23.6190
 1.8140	23.6130
 1.8150	23.6080
 1.8160	23.6010
 1.8170	23.5950
 1.8180	23.5880
 1.8190	23.5810
 1.8200	23.5720
 1.8210	23.5600
 1.8220	23.5490
 1.8230	23.5390
 1.8240	23.5280
 1.8250	23.5170
 1.8260	23.5020
 1.8270	23.4630
 1.8280	23.4230
 1.8290	23.3830
 1.8300	23.3440
 1.8310	23.3040
 1.8320	23.2640
 1.8330	23.2240
 1.8340	23.1850
 1.8350	23.1850
 1.8360	23.1430
 1.8370	23.1000
 1.8380	23.0500
 1.8390	22.9950
 1.8400	22.9370
 1.8410	22.8720
 1.8420	22.7980
 1.8430	22.7210
 1.8440	22.6420
 1.8450	22.5580
 1.8460	22.4660
 1.8470	22.3670
 1.8480	22.2590
 1.8490	22.1380
 1.8500	22.0120
 1.8510	21.8800
 1.8520	21.7370
 1.8530	21.5810
 1.8540	21.4220
 1.8550	21.2500
 1.8560	21.0640
 1.8570	20.8720
 1.8580	20.6640
 1.8590	20.4440
 1.8600	20.2110
 1.8610	19.9680
 1.8620	19.7090
 1.8630	19.4410
 1.8640	19.1600
 1.8650	18.8640
 1.8660	18.5550
 1.8670	18.2290
 1.8680	17.8900
 1.8690	17.5380
 1.8700	17.1740
 1.8710	16.7950
 1.8720	16.4140
 1.8730	16.0260
 1.8740	15.6290
 1.8750	15.2320
 1.8760	14.8270
 1.8770	14.4220
 1.8780	14.0210
 1.8790	13.6230
 1.8800	13.2350
 1.8810	12.8530
 1.8820	12.4770
 1.8830	12.1090
 1.8840	11.7510
 1.8850	11.4010
 1.8860	11.0660
 1.8870	10.7440
 1.8880	10.4350
 1.8890	10.1460
 1.8900	 9.8710
 1.8910	 9.6160
 1.8920	 9.3760
 1.8930	 9.1570
 1.8940	 8.9540
 1.8950	 8.7690
 1.8960	 8.5990
 1.8970	 8.4460
 1.8980	 8.3090
 1.8990	 8.1860
 1.9000	 8.0720
 1.9010	 7.9740
 1.9020	 7.8820
 1.9030	 7.8000
 1.9040	 7.7290
 1.9050	 7.6680
 1.9060	 7.6160
 1.9070	 7.5710
 1.9080	 7.5330
 1.9090	 7.5010
 1.9100	 7.4700
 1.9110	 7.4440
 1.9120	 7.4260
 1.9130	 7.4070
 1.9140	 7.3900
 1.9150	 7.3770
 1.9160	 7.3700
 1.9170	 7.3610
 1.9180	 7.3550
 1.9190	 7.3510
 1.9200	 7.3450
 1.9210	 7.3410
 1.9220	 7.3380
 1.9230	 7.3370
 1.9240	 7.3380
 1.9250	 7.3400
 1.9260	 7.3420
 1.9270	 7.3450
 1.9280	 7.3480
 1.9290	 7.3530
 1.9300	 7.3590
 1.9310	 7.3660
 1.9320	 7.3740
 1.9330	 7.3820
 1.9340	 7.3900
 1.9350	 7.3980
 1.9360	 7.4060
 1.9370	 7.4160
 1.9380	 7.4280
 1.9390	 7.4390
 1.9400	 7.4540
 1.9410	 7.4700
 1.9420	 7.4840
 1.9430	 7.4990
 1.9440	 7.5150
 1.9450	 7.5310
 1.9460	 7.5480
 1.9470	 7.5660
 1.9480	 7.5850
 1.9490	 7.6050
 1.9500	 7.6250
 1.9510	 7.6430
 1.9520	 7.6640
 1.9530	 7.6840
 1.9540	 7.7030
 1.9550	 7.7240
 1.9560	 7.7470
 1.9570	 7.7700
 1.9580	 7.7920
 1.9590	 7.8160
 1.9600	 7.8400
 1.9610	 7.8650
 1.9620	 7.8910
 1.9630	 7.9190
 1.9640	 7.9450
 1.9650	 7.9730
 1.9660	 8.0020
 1.9670	 8.0300
 1.9680	 8.0600
 1.9690	 8.0930
 1.9700	 8.1250
 1.9710	 8.1570
 1.9720	 8.1910
 1.9730	 8.2240
 1.9740	 8.2580
 1.9750	 8.2950
 1.9760	 8.3330
 1.9770	 8.3690
 1.9780	 8.4060
 1.9790	 8.4430
 1.9800	 8.4780
 1.9810	 8.5160
 1.9820	 8.5570
 1.9830	 8.5970
 1.9840	 8.6360
 1.9850	 8.6770
 1.9860	 8.7200
 1.9870	 8.7630
 1.9880	 8.8080
 1.9890	 8.8520
 1.9900	 8.8920
 1.9910	 8.9340
 1.9920	 8.9780
 1.9930	 9.0220
 1.9940	 9.0670
 1.9950	 9.1140
 1.9960	 9.1600
 1.9970	 9.2070
 1.9980	 9.2550
 1.9990	 9.3030
 2.0000	 9.3500
 2.0010	 9.3970
 2.0020	 9.4450
 2.0030	 9.4920
 2.0040	 9.5390
 2.0050	 9.5860
 2.0060	 9.6320
 2.0070	 9.6780
 2.0080	 9.7230
 2.0090	 9.7700
 2.0100	 9.8200
 2.0110	 9.8680
 2.0120	 9.9170
 2.0130	 9.9660
 2.0140	10.0120
 2.0150	10.0560
 2.0160	10.1030
 2.0170	10.1500
 2.0180	10.1980
 2.0190	10.2500
 2.0200	10.2970
 2.0210	10.3430
 2.0220	10.3880
 2.0230	10.4310
 2.0240	10.4750
 2.0250	10.5190
 2.0260	10.5620
 2.0270	10.6030
 2.0280	10.6450
 2.0290	10.6840
 2.0300	10.7250
 2.0310	10.7650
 2.0320	10.8040
 2.0330	10.8410
 2.0340	10.8760
 2.0350	10.9110
 2.0360	10.9450
 2.0370	10.9790
 2.0380	11.0120
 2.0390	11.0460
 2.0400	11.0800
 2.0410	11.1120
 2.0420	11.1430
 2.0430	11.1730
 2.0440	11.2040
 2.0450	11.2320
 2.0460	11.2620
 2.0470	11.2930
 2.0480	11.3240
 2.0490	11.3560
 2.0500	11.3870
 2.0510	11.4160
 2.0520	11.4460
 2.0530	11.4750
 2.0540	11.5060
 2.0550	11.5390
 2.0560	11.5740
 2.0570	11.6070
 2.0580	11.6400
 2.0590	11.6710
 2.0600	11.6990
 2.0610	11.7300
 2.0620	11.7600
 2.0630	11.7920
 2.0640	11.8280
 2.0650	11.8600
 2.0660	11.8900
 2.0670	11.9210
 2.0680	11.9540
 2.0690	11.9850
 2.0700	12.0150
 2.0710	12.0460
 2.0720	12.0760
 2.0730	12.1050
 2.0740	12.1350
 2.0750	12.1650
 2.0760	12.1940
 2.0770	12.2230
 2.0780	12.2520
 2.0790	12.2810
 2.0800	12.3090
 2.0810	12.3370
 2.0820	12.3650
 2.0830	12.3920
 2.0840	12.4190
 2.0850	12.4450
 2.0860	12.4730
 2.0870	12.4980
 2.0880	12.5260
 2.0890	12.5540
 2.0900	12.5840
 2.0910	12.6120
 2.0920	12.6400
 2.0930	12.6680
 2.0940	12.6960
 2.0950	12.7230
 2.0960	12.7490
 2.0970	12.7760
 2.0980	12.8010
 2.0990	12.8260
 2.1000	12.8520
 2.1010	12.8760
 2.1020	12.9000
 2.1030	12.9220
 2.1040	12.9390
 2.1050	12.9580
 2.1060	12.9780
 2.1070	12.9960
 2.1080	13.0170
 2.1090	13.0400
 2.1100	13.0640
 2.1110	13.0890
 2.1120	13.1130
 2.1130	13.1380
 2.1140	13.1610
 2.1150	13.1810
 2.1160	13.2010
 2.1170	13.2190
 2.1180	13.2370
 2.1190	13.2520
 2.1200	13.2710
 2.1210	13.2900
 2.1220	13.3100
 2.1230	13.3290
 2.1240	13.3490
 2.1250	13.3680
 2.1260	13.3840
 2.1270	13.4020
 2.1280	13.4200
 2.1290	13.4390
 2.1300	13.4590
 2.1310	13.4770
 2.1320	13.4950
 2.1330	13.5110
 2.1340	13.5250
 2.1350	13.5400
 2.1360	13.5550
 2.1370	13.5700
 2.1380	13.5870
 2.1390	13.6030
 2.1400	13.6170
 2.1410	13.6330
 2.1420	13.6510
 2.1430	13.6690
 2.1440	13.6860
 2.1450	13.7050
 2.1460	13.7220
 2.1470	13.7390
 2.1480	13.7570
 2.1490	13.7780
 2.1500	13.7970
 2.1510	13.8160
 2.1520	13.8330
 2.1530	13.8490
 2.1540	13.8650
 2.1550	13.8790
 2.1560	13.8970
 2.1570	13.9190
 2.1580	13.9370
 2.1590	13.9560
 2.1600	13.9760
 2.1610	13.9940
 2.1620	14.0110
 2.1630	14.0270
 2.1640	14.0430
 2.1650	14.0560
 2.1660	14.0650
 2.1670	14.0770
 2.1680	14.0870
 2.1690	14.1010
 2.1700	14.1170
 2.1710	14.1310
 2.1720	14.1460
 2.1730	14.1600
 2.1740	14.1720
 2.1750	14.1870
 2.1760	14.2040
 2.1770	14.2210
 2.1780	14.2420
 2.1790	14.2600
 2.1800	14.2750
 2.1810	14.2920
 2.1820	14.3070
 2.1830	14.3230
 2.1840	14.3410
 2.1850	14.3610
 2.1860	14.3810
 2.1870	14.4010
 2.1880	14.4200
 2.1890	14.4370
 2.1900	14.4530
 2.1910	14.4670
 2.1920	14.4840
 2.1930	14.5010
 2.1940	14.5190
 2.1950	14.5400
 2.1960	14.5590
 2.1970	14.5780
 2.1980	14.5960
 2.1990	14.6160
 2.2000	14.6330
 2.2010	14.6480
 2.2020	14.6630
 2.2030	14.6780
 2.2040	14.6920
 2.2050	14.7050
 2.2060	14.7200
 2.2070	14.7320
 2.2080	14.7420
 2.2090	14.7540
 2.2100	14.7660
 2.2110	14.7770
 2.2120	14.7880
 2.2130	14.7990
 2.2140	14.8090
 2.2150	14.8190
 2.2160	14.8320
 2.2170	14.8420
 2.2180	14.8510
 2.2190	14.8560
 2.2200	14.8560
 2.2210	14.8570
 2.2220	14.8530
 2.2230	14.8530
 2.2240	14.8580
 2.2250	14.8580
 2.2260	14.8580
 2.2270	14.8540
 2.2280	14.8440
 2.2290	14.8330
 2.2300	14.8170
 2.2310	14.8010
 2.2320	14.7870
 2.2330	14.7720
 2.2340	14.7550
 2.2350	14.7410
 2.2360	14.7210
 2.2370	14.6960
 2.2380	14.6710
 2.2390	14.6440
 2.2400	14.6180
 2.2410	14.5910
 2.2420	14.5640
 2.2430	14.5370
 2.2440	14.5080
 2.2450	14.4790
 2.2460	14.4460
 2.2470	14.4080
 2.2480	14.3730
 2.2490	14.3360
 2.2500	14.2990
 2.2510	14.2620
 2.2520	14.2230
 2.2530	14.1780
 2.2540	14.1380
 2.2550	14.1000
 2.2560	14.0620
 2.2570	14.0290
 2.2580	13.9930
 2.2590	13.9590
 2.2600	13.9220
 2.2610	13.8810
 2.2620	13.8430
 2.2630	13.8020
 2.2640	13.7620
 2.2650	13.7240
 2.2660	13.6880
 2.2670	13.6520
 2.2680	13.6160
 2.2690	13.5790
 2.2700	13.5410
 2.2710	13.5070
 2.2720	13.4700
 2.2730	13.4400
 2.2740	13.4180
 2.2750	13.3900
 2.2760	13.3650
 2.2770	13.3350
 2.2780	13.2980
 2.2790	13.2670
 2.2800	13.2390
 2.2810	13.2080
 2.2820	13.1790
 2.2830	13.1490
 2.2840	13.1150
 2.2850	13.0860
 2.2860	13.0600
 2.2870	13.0330
 2.2880	13.0080
 2.2890	12.9810
 2.2900	12.9520
 2.2910	12.9240
 2.2920	12.8930
 2.2930	12.8650
 2.2940	12.8380
 2.2950	12.8110
 2.2960	12.7880
 2.2970	12.7610
 2.2980	12.7330
 2.2990	12.7040
 2.3000	12.6740
 2.3010	12.6410
 2.3020	12.6080
 2.3030	12.5790
 2.3040	12.5500
 2.3050	12.5210
 2.3060	12.4930
 2.3070	12.4610
 2.3080	12.4250
 2.3090	12.3960
 2.3100	12.3680
 2.3110	12.3380
 2.3120	12.3110
 2.3130	12.2870
 2.3140	12.2610
 2.3150	12.2340
 2.3160	12.2110
 2.3170	12.1920
 2.3180	12.1680
 2.3190	12.1450
 2.3200	12.1170
 2.3210	12.0810
 2.3220	12.0520
 2.3230	12.0230
 2.3240	11.9970
 2.3250	11.9770
 2.3260	11.9490
 2.3270	11.9160
 2.3280	11.8860
 2.3290	11.8530
 2.3300	11.8240
 2.3310	11.8030
 2.3320	11.7750
 2.3330	11.7450
 2.3340	11.7140
 2.3350	11.6800
 2.3360	11.6480
 2.3370	11.6170
 2.3380	11.5840
 2.3390	11.5500
 2.3400	11.5180
 2.3410	11.4860
 2.3420	11.4530
 2.3430	11.4220
 2.3440	11.3890
 2.3450	11.3530
 2.3460	11.3210
 2.3470	11.2880
 2.3480	11.2620
 2.3490	11.2420
 2.3500	11.2180
 2.3510	11.1980
 2.3520	11.1730
 2.3530	11.1420
 2.3540	11.1160
 2.3550	11.0910
 2.3560	11.0660
 2.3570	11.0440
 2.3580	11.0180
 2.3590	10.9900
 2.3600	10.9640
 2.3610	10.9340
 2.3620	10.9090
 2.3630	10.8800
 2.3640	10.8520
 2.3650	10.8280
 2.3660	10.7940
 2.3670	10.7640
 2.3680	10.7320
 2.3690	10.7010
 2.3700	10.6730
 2.3710	10.6430
 2.3720	10.6150
 2.3730	10.5830
 2.3740	10.5580
 2.3750	10.5430
 2.3760	10.5160
 2.3770	10.4880
 2.3780	10.4590
 2.3790	10.4250
 2.3800	10.4040
 2.3810	10.3820
 2.3820	10.3510
 2.3830	10.3250
 2.3840	10.2970
 2.3850	10.2690
 2.3860	10.2490
 2.3870	10.2160
 2.3880	10.1740
 2.3890	10.1370
 2.3900	10.0970
 2.3910	10.0710
 2.3920	10.0470
 2.3930	10.0140
 2.3940	 9.9900
 2.3950	 9.9550
 2.3960	 9.9280
 2.3970	 9.9100
 2.3980	 9.8810
 2.3990	 9.8590
 2.4000	 9.8280
 2.4010	 9.7870
 2.4020	 9.7560
 2.4030	 9.7170
 2.4040	 9.6840
 2.4050	 9.6610
 2.4060	 9.6240
 2.4070	 9.5880
 2.4080	 9.5560
 2.4090	 9.5240
 2.4100	 9.4990
 2.4110	 9.4710
 2.4120	 9.4450
 2.4130	 9.4040
 2.4140	 9.3620
 2.4150	 9.3360
 2.4160	 9.3110
 2.4170	 9.2910
 2.4180	 9.2690
 2.4190	 9.2410
 2.4200	 9.2120
 2.4210	 9.1840
 2.4220	 9.1590
 2.4230	 9.1260
 2.4240	 9.0820
 2.4250	 9.0410
 2.4260	 9.0020
 2.4270	 8.9720
 2.4280	 8.9540
 2.4290	 8.9250
 2.4300	 8.9000
 2.4310	 8.8810
 2.4320	 8.8490
 2.4330	 8.8280
 2.4340	 8.8130
 2.4350	 8.7880
 2.4360	 8.7730
 2.4370	 8.7520
 2.4380	 8.7210
 2.4390	 8.6950
 2.4400	 8.6610
 2.4410	 8.6320
 2.4420	 8.6090
 2.4430	 8.5820
 2.4440	 8.5620
 2.4450	 8.5420
 2.4460	 8.5110
 2.4470	 8.4830
 2.4480	 8.4520
 2.4490	 8.4150
 2.4500	 8.3950
 2.4510	 8.3770
 2.4520	 8.3600
 2.4530	 8.3470
 2.4540	 8.3190
 2.4550	 8.2770
 2.4560	 8.2320
 2.4570	 8.2020
 2.4580	 8.1850
 2.4590	 8.1820
 2.4600	 8.1850
 2.4610	 8.1700
 2.4620	 8.1550
 2.4630	 8.1330
 2.4640	 8.1050
 2.4650	 8.0870
 2.4660	 8.0500
 2.4670	 8.0190
 2.4680	 8.0120
 2.4690	 7.9990
 2.4700	 7.9940
 2.4710	 7.9970
 2.4720	 7.9970
 2.4730	 8.0040
 2.4740	 7.9950
 2.4750	 7.9720
 2.4760	 7.9630
 2.4770	 7.9550
 2.4780	 7.9490
 2.4790	 7.9570
 2.4800	 7.9500
 2.4810	 7.9260
 2.4820	 7.8990
 2.4830	 7.8830
 2.4840	 7.8520
 2.4850	 7.8200
 2.4860	 7.8300
 2.4870	 7.8010
 2.4880	 7.7690
 2.4890	 7.7880
 2.4900	 7.7560
 2.4910	 7.7350
 2.4920	 7.7590
 2.4930	 7.7550
 2.4940	 7.7860
 2.4950	 7.8400
 2.4960	 7.8350
 2.4970	 7.7990
 2.4980	 7.7430
 2.4990	 7.6460
 2.5000	 7.6030
