Name: Bambusa tuldoides
Type: vegetation
Class: Tree
Genus: Bambusa
Species: tuldoides
Sample No.: JPL215
Owner: JPL
Wavelength Range: VSWIR
Origin: 34.125472; -118.111507; WGS84
Collection Date: 10/3/2016
Description: Samples were collected at the Huntington Garden in San Marino California as part of a JPL Subcontract studying HyTES imagery. Samples were taken to JPL and processed within 48 hours of collection. The same leaves were processed in the Nicolet and then measured using the ASD.
Measurement: Bidirectional reflectance
First Column: X
Second Column: Y
X Units: Wavelength (micrometer)
Y Units: Reflectance (percentage)
First X Value: 0.35
Last X Value: 2.5
Number of X Values: 2151
Additional Information: vegetation.tree.bambusa.tuldoides.vswir.jpl215.jpl.asd.ancillary.txt

 0.3500	 6.4720
 0.3510	 6.3750
 0.3520	 6.3860
 0.3530	 6.3840
 0.3540	 6.2720
 0.3550	 6.2370
 0.3560	 6.2250
 0.3570	 6.2400
 0.3580	 6.3010
 0.3590	 6.3590
 0.3600	 6.2900
 0.3610	 6.1530
 0.3620	 6.2730
 0.3630	 6.2800
 0.3640	 6.2190
 0.3650	 6.2090
 0.3660	 6.2120
 0.3670	 6.2690
 0.3680	 6.3270
 0.3690	 6.2770
 0.3700	 6.2240
 0.3710	 6.1820
 0.3720	 6.1480
 0.3730	 6.1120
 0.3740	 6.1480
 0.3750	 6.1850
 0.3760	 6.1410
 0.3770	 6.1350
 0.3780	 6.1600
 0.3790	 6.1790
 0.3800	 6.1340
 0.3810	 6.1550
 0.3820	 6.1960
 0.3830	 6.1950
 0.3840	 6.1010
 0.3850	 6.0960
 0.3860	 6.1380
 0.3870	 6.1210
 0.3880	 6.1260
 0.3890	 6.1330
 0.3900	 6.1370
 0.3910	 6.1510
 0.3920	 6.1650
 0.3930	 6.1720
 0.3940	 6.1670
 0.3950	 6.1590
 0.3960	 6.1690
 0.3970	 6.1870
 0.3980	 6.1860
 0.3990	 6.1650
 0.4000	 6.1600
 0.4010	 6.1780
 0.4020	 6.1940
 0.4030	 6.2050
 0.4040	 6.2000
 0.4050	 6.1760
 0.4060	 6.1840
 0.4070	 6.1980
 0.4080	 6.1980
 0.4090	 6.1810
 0.4100	 6.1950
 0.4110	 6.2160
 0.4120	 6.2200
 0.4130	 6.2080
 0.4140	 6.2060
 0.4150	 6.2130
 0.4160	 6.2160
 0.4170	 6.2220
 0.4180	 6.2270
 0.4190	 6.2320
 0.4200	 6.2410
 0.4210	 6.2300
 0.4220	 6.2160
 0.4230	 6.2130
 0.4240	 6.2160
 0.4250	 6.2230
 0.4260	 6.2280
 0.4270	 6.2260
 0.4280	 6.2220
 0.4290	 6.2230
 0.4300	 6.2260
 0.4310	 6.2130
 0.4320	 6.1980
 0.4330	 6.1870
 0.4340	 6.1820
 0.4350	 6.1770
 0.4360	 6.1680
 0.4370	 6.1600
 0.4380	 6.1670
 0.4390	 6.1790
 0.4400	 6.1960
 0.4410	 6.2120
 0.4420	 6.2120
 0.4430	 6.2100
 0.4440	 6.2120
 0.4450	 6.2230
 0.4460	 6.2270
 0.4470	 6.2290
 0.4480	 6.2290
 0.4490	 6.2250
 0.4500	 6.2350
 0.4510	 6.2480
 0.4520	 6.2520
 0.4530	 6.2430
 0.4540	 6.2480
 0.4550	 6.2610
 0.4560	 6.2610
 0.4570	 6.2610
 0.4580	 6.2640
 0.4590	 6.2700
 0.4600	 6.2650
 0.4610	 6.2700
 0.4620	 6.2790
 0.4630	 6.2800
 0.4640	 6.2770
 0.4650	 6.2740
 0.4660	 6.2730
 0.4670	 6.2760
 0.4680	 6.2860
 0.4690	 6.2870
 0.4700	 6.2760
 0.4710	 6.2790
 0.4720	 6.2830
 0.4730	 6.2840
 0.4740	 6.2810
 0.4750	 6.2800
 0.4760	 6.2790
 0.4770	 6.2790
 0.4780	 6.2860
 0.4790	 6.2880
 0.4800	 6.2900
 0.4810	 6.2970
 0.4820	 6.2920
 0.4830	 6.2860
 0.4840	 6.2830
 0.4850	 6.2830
 0.4860	 6.2880
 0.4870	 6.2920
 0.4880	 6.2930
 0.4890	 6.3060
 0.4900	 6.3180
 0.4910	 6.3280
 0.4920	 6.3420
 0.4930	 6.3590
 0.4940	 6.3740
 0.4950	 6.3890
 0.4960	 6.4130
 0.4970	 6.4340
 0.4980	 6.4550
 0.4990	 6.4820
 0.5000	 6.5110
 0.5010	 6.5460
 0.5020	 6.5860
 0.5030	 6.6310
 0.5040	 6.6790
 0.5050	 6.7310
 0.5060	 6.7880
 0.5070	 6.8600
 0.5080	 6.9340
 0.5090	 7.0120
 0.5100	 7.1020
 0.5110	 7.2030
 0.5120	 7.3170
 0.5130	 7.4440
 0.5140	 7.5770
 0.5150	 7.7220
 0.5160	 7.8780
 0.5170	 8.0440
 0.5180	 8.2190
 0.5190	 8.4070
 0.5200	 8.6050
 0.5210	 8.8080
 0.5220	 9.0080
 0.5230	 9.2110
 0.5240	 9.4190
 0.5250	 9.6190
 0.5260	 9.8090
 0.5270	 9.9930
 0.5280	10.1740
 0.5290	10.3410
 0.5300	10.4920
 0.5310	10.6280
 0.5320	10.7570
 0.5330	10.8700
 0.5340	10.9720
 0.5350	11.0670
 0.5360	11.1480
 0.5370	11.2160
 0.5380	11.2740
 0.5390	11.3260
 0.5400	11.3680
 0.5410	11.3990
 0.5420	11.4260
 0.5430	11.4550
 0.5440	11.4860
 0.5450	11.5180
 0.5460	11.5540
 0.5470	11.5900
 0.5480	11.6230
 0.5490	11.6490
 0.5500	11.6650
 0.5510	11.6730
 0.5520	11.6740
 0.5530	11.6700
 0.5540	11.6500
 0.5550	11.6200
 0.5560	11.5770
 0.5570	11.5190
 0.5580	11.4480
 0.5590	11.3660
 0.5600	11.2750
 0.5610	11.1770
 0.5620	11.0680
 0.5630	10.9500
 0.5640	10.8300
 0.5650	10.7030
 0.5660	10.5760
 0.5670	10.4510
 0.5680	10.3230
 0.5690	10.1930
 0.5700	10.0630
 0.5710	 9.9350
 0.5720	 9.8070
 0.5730	 9.6850
 0.5740	 9.5690
 0.5750	 9.4610
 0.5760	 9.3570
 0.5770	 9.2610
 0.5780	 9.1740
 0.5790	 9.0900
 0.5800	 9.0090
 0.5810	 8.9340
 0.5820	 8.8670
 0.5830	 8.8040
 0.5840	 8.7470
 0.5850	 8.6940
 0.5860	 8.6430
 0.5870	 8.5940
 0.5880	 8.5500
 0.5890	 8.5110
 0.5900	 8.4760
 0.5910	 8.4440
 0.5920	 8.4140
 0.5930	 8.3820
 0.5940	 8.3510
 0.5950	 8.3300
 0.5960	 8.3180
 0.5970	 8.2970
 0.5980	 8.2770
 0.5990	 8.2580
 0.6000	 8.2340
 0.6010	 8.2080
 0.6020	 8.1820
 0.6030	 8.1520
 0.6040	 8.1170
 0.6050	 8.0810
 0.6060	 8.0420
 0.6070	 7.9980
 0.6080	 7.9530
 0.6090	 7.8980
 0.6100	 7.8320
 0.6110	 7.7580
 0.6120	 7.7070
 0.6130	 7.6720
 0.6140	 7.6420
 0.6150	 7.6040
 0.6160	 7.5640
 0.6170	 7.5250
 0.6180	 7.4890
 0.6190	 7.4530
 0.6200	 7.4190
 0.6210	 7.3870
 0.6220	 7.3620
 0.6230	 7.3440
 0.6240	 7.3300
 0.6250	 7.3180
 0.6260	 7.3010
 0.6270	 7.2910
 0.6280	 7.2840
 0.6290	 7.2750
 0.6300	 7.2660
 0.6310	 7.2570
 0.6320	 7.2470
 0.6330	 7.2360
 0.6340	 7.2210
 0.6350	 7.1990
 0.6360	 7.1690
 0.6370	 7.1370
 0.6380	 7.0990
 0.6390	 7.0570
 0.6400	 7.0140
 0.6410	 6.9720
 0.6420	 6.9280
 0.6430	 6.8830
 0.6440	 6.8410
 0.6450	 6.8000
 0.6460	 6.7600
 0.6470	 6.7260
 0.6480	 6.6970
 0.6490	 6.6690
 0.6500	 6.6440
 0.6510	 6.6280
 0.6520	 6.6180
 0.6530	 6.6090
 0.6540	 6.5990
 0.6550	 6.5890
 0.6560	 6.5780
 0.6570	 6.5660
 0.6580	 6.5540
 0.6590	 6.5390
 0.6600	 6.5220
 0.6610	 6.5070
 0.6620	 6.4930
 0.6630	 6.4820
 0.6640	 6.4730
 0.6650	 6.4670
 0.6660	 6.4630
 0.6670	 6.4630
 0.6680	 6.4660
 0.6690	 6.4710
 0.6700	 6.4810
 0.6710	 6.4970
 0.6720	 6.5160
 0.6730	 6.5380
 0.6740	 6.5590
 0.6750	 6.5860
 0.6760	 6.6210
 0.6770	 6.6500
 0.6780	 6.6850
 0.6790	 6.7270
 0.6800	 6.7700
 0.6810	 6.8150
 0.6820	 6.8630
 0.6830	 6.9140
 0.6840	 6.9680
 0.6850	 7.0250
 0.6860	 7.0860
 0.6870	 7.1570
 0.6880	 7.2410
 0.6890	 7.3460
 0.6900	 7.4760
 0.6910	 7.6360
 0.6920	 7.8380
 0.6930	 8.0900
 0.6940	 8.3960
 0.6950	 8.7660
 0.6960	 9.1960
 0.6970	 9.6870
 0.6980	10.2410
 0.6990	10.8460
 0.7000	11.5000
 0.7010	12.1940
 0.7020	12.9190
 0.7030	13.6660
 0.7040	14.4270
 0.7050	15.1960
 0.7060	15.9680
 0.7070	16.7390
 0.7080	17.5080
 0.7090	18.2780
 0.7100	19.0460
 0.7110	19.8140
 0.7120	20.5790
 0.7130	21.3400
 0.7140	22.1000
 0.7150	22.8570
 0.7160	23.6100
 0.7170	24.3630
 0.7180	25.1110
 0.7190	25.8530
 0.7200	26.5870
 0.7210	27.3140
 0.7220	28.0330
 0.7230	28.7400
 0.7240	29.4330
 0.7250	30.1110
 0.7260	30.7740
 0.7270	31.4220
 0.7280	32.0500
 0.7290	32.6580
 0.7300	33.2480
 0.7310	33.8160
 0.7320	34.3640
 0.7330	34.8890
 0.7340	35.3890
 0.7350	35.8670
 0.7360	36.3220
 0.7370	36.7530
 0.7380	37.1620
 0.7390	37.5490
 0.7400	37.9140
 0.7410	38.2540
 0.7420	38.5690
 0.7430	38.8660
 0.7440	39.1420
 0.7450	39.3950
 0.7460	39.6290
 0.7470	39.8440
 0.7480	40.0410
 0.7490	40.2200
 0.7500	40.3830
 0.7510	40.5320
 0.7520	40.6680
 0.7530	40.7890
 0.7540	40.9000
 0.7550	41.0000
 0.7560	41.0900
 0.7570	41.1740
 0.7580	41.2470
 0.7590	41.3120
 0.7600	41.3710
 0.7610	41.4240
 0.7620	41.4690
 0.7630	41.5090
 0.7640	41.5450
 0.7650	41.5760
 0.7660	41.6030
 0.7670	41.6250
 0.7680	41.6430
 0.7690	41.6630
 0.7700	41.6800
 0.7710	41.6910
 0.7720	41.7000
 0.7730	41.7120
 0.7740	41.7220
 0.7750	41.7290
 0.7760	41.7330
 0.7770	41.7360
 0.7780	41.7410
 0.7790	41.7470
 0.7800	41.7510
 0.7810	41.7540
 0.7820	41.7570
 0.7830	41.7570
 0.7840	41.7580
 0.7850	41.7590
 0.7860	41.7590
 0.7870	41.7580
 0.7880	41.7560
 0.7890	41.7540
 0.7900	41.7530
 0.7910	41.7490
 0.7920	41.7430
 0.7930	41.7370
 0.7940	41.7300
 0.7950	41.7240
 0.7960	41.7180
 0.7970	41.7110
 0.7980	41.7030
 0.7990	41.6920
 0.8000	41.6820
 0.8010	41.6730
 0.8020	41.6610
 0.8030	41.6490
 0.8040	41.6350
 0.8050	41.6210
 0.8060	41.6070
 0.8070	41.5940
 0.8080	41.5820
 0.8090	41.5700
 0.8100	41.5540
 0.8110	41.5360
 0.8120	41.5190
 0.8130	41.5070
 0.8140	41.4920
 0.8150	41.4730
 0.8160	41.4560
 0.8170	41.4430
 0.8180	41.4250
 0.8190	41.4050
 0.8200	41.3910
 0.8210	41.3730
 0.8220	41.3550
 0.8230	41.3400
 0.8240	41.3280
 0.8250	41.3100
 0.8260	41.2930
 0.8270	41.2800
 0.8280	41.2640
 0.8290	41.2480
 0.8300	41.2320
 0.8310	41.2160
 0.8320	41.2020
 0.8330	41.1890
 0.8340	41.1760
 0.8350	41.1630
 0.8360	41.1500
 0.8370	41.1380
 0.8380	41.1270
 0.8390	41.1150
 0.8400	41.1060
 0.8410	41.0980
 0.8420	41.0890
 0.8430	41.0760
 0.8440	41.0710
 0.8450	41.0670
 0.8460	41.0560
 0.8470	41.0510
 0.8480	41.0430
 0.8490	41.0380
 0.8500	41.0380
 0.8510	41.0320
 0.8520	41.0260
 0.8530	41.0210
 0.8540	41.0180
 0.8550	41.0160
 0.8560	41.0150
 0.8570	41.0140
 0.8580	41.0130
 0.8590	41.0130
 0.8600	41.0120
 0.8610	41.0090
 0.8620	41.0110
 0.8630	41.0150
 0.8640	41.0190
 0.8650	41.0220
 0.8660	41.0240
 0.8670	41.0240
 0.8680	41.0240
 0.8690	41.0260
 0.8700	41.0320
 0.8710	41.0410
 0.8720	41.0460
 0.8730	41.0450
 0.8740	41.0540
 0.8750	41.0610
 0.8760	41.0620
 0.8770	41.0650
 0.8780	41.0720
 0.8790	41.0780
 0.8800	41.0820
 0.8810	41.0890
 0.8820	41.0980
 0.8830	41.1050
 0.8840	41.1110
 0.8850	41.1170
 0.8860	41.1200
 0.8870	41.1240
 0.8880	41.1340
 0.8890	41.1460
 0.8900	41.1480
 0.8910	41.1470
 0.8920	41.1540
 0.8930	41.1650
 0.8940	41.1740
 0.8950	41.1800
 0.8960	41.1840
 0.8970	41.1910
 0.8980	41.1960
 0.8990	41.1990
 0.9000	41.2070
 0.9010	41.2160
 0.9020	41.2210
 0.9030	41.2230
 0.9040	41.2310
 0.9050	41.2370
 0.9060	41.2410
 0.9070	41.2450
 0.9080	41.2470
 0.9090	41.2550
 0.9100	41.2610
 0.9110	41.2560
 0.9120	41.2530
 0.9130	41.2600
 0.9140	41.2700
 0.9150	41.2730
 0.9160	41.2630
 0.9170	41.2690
 0.9180	41.2810
 0.9190	41.2770
 0.9200	41.2710
 0.9210	41.2720
 0.9220	41.2770
 0.9230	41.2790
 0.9240	41.2770
 0.9250	41.2700
 0.9260	41.2610
 0.9270	41.2560
 0.9280	41.2530
 0.9290	41.2450
 0.9300	41.2340
 0.9310	41.2310
 0.9320	41.2250
 0.9330	41.2130
 0.9340	41.2010
 0.9350	41.1960
 0.9360	41.1930
 0.9370	41.1850
 0.9380	41.1700
 0.9390	41.1590
 0.9400	41.1540
 0.9410	41.1480
 0.9420	41.1340
 0.9430	41.1180
 0.9440	41.0980
 0.9450	41.0850
 0.9460	41.0830
 0.9470	41.0670
 0.9480	41.0420
 0.9490	41.0180
 0.9500	41.0040
 0.9510	40.9890
 0.9520	40.9690
 0.9530	40.9490
 0.9540	40.9300
 0.9550	40.9020
 0.9560	40.8800
 0.9570	40.8630
 0.9580	40.8450
 0.9590	40.8250
 0.9600	40.8030
 0.9610	40.7800
 0.9620	40.7570
 0.9630	40.7420
 0.9640	40.7280
 0.9650	40.7180
 0.9660	40.7150
 0.9670	40.6990
 0.9680	40.6870
 0.9690	40.6790
 0.9700	40.6700
 0.9710	40.6610
 0.9720	40.6520
 0.9730	40.6420
 0.9740	40.6300
 0.9750	40.6120
 0.9760	40.6070
 0.9770	40.6110
 0.9780	40.6100
 0.9790	40.5880
 0.9800	40.5810
 0.9810	40.5820
 0.9820	40.5720
 0.9830	40.5710
 0.9840	40.5710
 0.9850	40.5690
 0.9860	40.5640
 0.9870	40.5640
 0.9880	40.5570
 0.9890	40.5490
 0.9900	40.5480
 0.9910	40.5370
 0.9920	40.5280
 0.9930	40.5290
 0.9940	40.5400
 0.9950	40.5440
 0.9960	40.5320
 0.9970	40.5200
 0.9980	40.5260
 0.9990	40.5240
 1.0000	40.5300
 1.0010	40.4190
 1.0020	40.4140
 1.0030	40.4110
 1.0040	40.4090
 1.0050	40.4080
 1.0060	40.4090
 1.0070	40.4120
 1.0080	40.4120
 1.0090	40.4130
 1.0100	40.4120
 1.0110	40.4100
 1.0120	40.4090
 1.0130	40.4080
 1.0140	40.4060
 1.0150	40.4040
 1.0160	40.4010
 1.0170	40.4020
 1.0180	40.4050
 1.0190	40.4080
 1.0200	40.4090
 1.0210	40.4060
 1.0220	40.4010
 1.0230	40.4010
 1.0240	40.4040
 1.0250	40.4040
 1.0260	40.4060
 1.0270	40.4070
 1.0280	40.4070
 1.0290	40.4070
 1.0300	40.4110
 1.0310	40.4110
 1.0320	40.4080
 1.0330	40.4050
 1.0340	40.4080
 1.0350	40.4090
 1.0360	40.4110
 1.0370	40.4160
 1.0380	40.4160
 1.0390	40.4120
 1.0400	40.4110
 1.0410	40.4110
 1.0420	40.4100
 1.0430	40.4100
 1.0440	40.4090
 1.0450	40.4070
 1.0460	40.4060
 1.0470	40.4030
 1.0480	40.4020
 1.0490	40.4020
 1.0500	40.4010
 1.0510	40.4010
 1.0520	40.4030
 1.0530	40.4030
 1.0540	40.4030
 1.0550	40.4010
 1.0560	40.3980
 1.0570	40.3960
 1.0580	40.3930
 1.0590	40.3930
 1.0600	40.3970
 1.0610	40.3970
 1.0620	40.3960
 1.0630	40.3960
 1.0640	40.3960
 1.0650	40.3940
 1.0660	40.3890
 1.0670	40.3870
 1.0680	40.3850
 1.0690	40.3830
 1.0700	40.3800
 1.0710	40.3770
 1.0720	40.3770
 1.0730	40.3770
 1.0740	40.3760
 1.0750	40.3810
 1.0760	40.3810
 1.0770	40.3760
 1.0780	40.3750
 1.0790	40.3760
 1.0800	40.3770
 1.0810	40.3790
 1.0820	40.3800
 1.0830	40.3830
 1.0840	40.3820
 1.0850	40.3790
 1.0860	40.3760
 1.0870	40.3740
 1.0880	40.3680
 1.0890	40.3680
 1.0900	40.3730
 1.0910	40.3740
 1.0920	40.3760
 1.0930	40.3760
 1.0940	40.3730
 1.0950	40.3710
 1.0960	40.3690
 1.0970	40.3670
 1.0980	40.3660
 1.0990	40.3640
 1.1000	40.3640
 1.1010	40.3620
 1.1020	40.3570
 1.1030	40.3540
 1.1040	40.3520
 1.1050	40.3510
 1.1060	40.3480
 1.1070	40.3460
 1.1080	40.3440
 1.1090	40.3390
 1.1100	40.3370
 1.1110	40.3350
 1.1120	40.3330
 1.1130	40.3330
 1.1140	40.3290
 1.1150	40.3230
 1.1160	40.3180
 1.1170	40.3100
 1.1180	40.3040
 1.1190	40.2990
 1.1200	40.2930
 1.1210	40.2870
 1.1220	40.2790
 1.1230	40.2710
 1.1240	40.2620
 1.1250	40.2500
 1.1260	40.2390
 1.1270	40.2240
 1.1280	40.2070
 1.1290	40.1880
 1.1300	40.1680
 1.1310	40.1460
 1.1320	40.1240
 1.1330	40.0970
 1.1340	40.0680
 1.1350	40.0370
 1.1360	40.0030
 1.1370	39.9680
 1.1380	39.9350
 1.1390	39.8990
 1.1400	39.8600
 1.1410	39.8220
 1.1420	39.7810
 1.1430	39.7410
 1.1440	39.7010
 1.1450	39.6630
 1.1460	39.6240
 1.1470	39.5840
 1.1480	39.5470
 1.1490	39.5090
 1.1500	39.4730
 1.1510	39.4390
 1.1520	39.4060
 1.1530	39.3740
 1.1540	39.3450
 1.1550	39.3180
 1.1560	39.2940
 1.1570	39.2710
 1.1580	39.2500
 1.1590	39.2320
 1.1600	39.2150
 1.1610	39.2010
 1.1620	39.1870
 1.1630	39.1730
 1.1640	39.1610
 1.1650	39.1500
 1.1660	39.1390
 1.1670	39.1300
 1.1680	39.1240
 1.1690	39.1160
 1.1700	39.1080
 1.1710	39.1010
 1.1720	39.0930
 1.1730	39.0860
 1.1740	39.0790
 1.1750	39.0720
 1.1760	39.0660
 1.1770	39.0580
 1.1780	39.0500
 1.1790	39.0410
 1.1800	39.0310
 1.1810	39.0220
 1.1820	39.0140
 1.1830	39.0050
 1.1840	38.9940
 1.1850	38.9820
 1.1860	38.9730
 1.1870	38.9640
 1.1880	38.9560
 1.1890	38.9510
 1.1900	38.9440
 1.1910	38.9340
 1.1920	38.9270
 1.1930	38.9200
 1.1940	38.9150
 1.1950	38.9110
 1.1960	38.9080
 1.1970	38.9050
 1.1980	38.9020
 1.1990	38.8980
 1.2000	38.8950
 1.2010	38.8930
 1.2020	38.8910
 1.2030	38.8900
 1.2040	38.8890
 1.2050	38.8880
 1.2060	38.8880
 1.2070	38.8900
 1.2080	38.8900
 1.2090	38.8910
 1.2100	38.8940
 1.2110	38.8960
 1.2120	38.8980
 1.2130	38.8990
 1.2140	38.8990
 1.2150	38.9010
 1.2160	38.9040
 1.2170	38.9080
 1.2180	38.9140
 1.2190	38.9200
 1.2200	38.9240
 1.2210	38.9300
 1.2220	38.9340
 1.2230	38.9390
 1.2240	38.9440
 1.2250	38.9460
 1.2260	38.9490
 1.2270	38.9520
 1.2280	38.9540
 1.2290	38.9570
 1.2300	38.9620
 1.2310	38.9670
 1.2320	38.9710
 1.2330	38.9750
 1.2340	38.9780
 1.2350	38.9790
 1.2360	38.9810
 1.2370	38.9840
 1.2380	38.9850
 1.2390	38.9870
 1.2400	38.9890
 1.2410	38.9890
 1.2420	38.9900
 1.2430	38.9920
 1.2440	38.9930
 1.2450	38.9940
 1.2460	38.9970
 1.2470	38.9980
 1.2480	38.9970
 1.2490	38.9960
 1.2500	38.9960
 1.2510	38.9950
 1.2520	38.9950
 1.2530	38.9950
 1.2540	38.9930
 1.2550	38.9890
 1.2560	38.9850
 1.2570	38.9820
 1.2580	38.9800
 1.2590	38.9770
 1.2600	38.9750
 1.2610	38.9720
 1.2620	38.9680
 1.2630	38.9660
 1.2640	38.9620
 1.2650	38.9580
 1.2660	38.9540
 1.2670	38.9460
 1.2680	38.9390
 1.2690	38.9330
 1.2700	38.9260
 1.2710	38.9210
 1.2720	38.9160
 1.2730	38.9090
 1.2740	38.9010
 1.2750	38.8930
 1.2760	38.8850
 1.2770	38.8770
 1.2780	38.8690
 1.2790	38.8600
 1.2800	38.8490
 1.2810	38.8390
 1.2820	38.8300
 1.2830	38.8200
 1.2840	38.8100
 1.2850	38.7980
 1.2860	38.7850
 1.2870	38.7710
 1.2880	38.7560
 1.2890	38.7420
 1.2900	38.7300
 1.2910	38.7160
 1.2920	38.7010
 1.2930	38.6850
 1.2940	38.6670
 1.2950	38.6480
 1.2960	38.6300
 1.2970	38.6130
 1.2980	38.5960
 1.2990	38.5790
 1.3000	38.5590
 1.3010	38.5390
 1.3020	38.5200
 1.3030	38.5010
 1.3040	38.4810
 1.3050	38.4610
 1.3060	38.4390
 1.3070	38.4160
 1.3080	38.3950
 1.3090	38.3720
 1.3100	38.3470
 1.3110	38.3220
 1.3120	38.2970
 1.3130	38.2710
 1.3140	38.2440
 1.3150	38.2160
 1.3160	38.1870
 1.3170	38.1560
 1.3180	38.1250
 1.3190	38.0950
 1.3200	38.0630
 1.3210	38.0300
 1.3220	37.9970
 1.3230	37.9620
 1.3240	37.9270
 1.3250	37.8910
 1.3260	37.8510
 1.3270	37.8110
 1.3280	37.7700
 1.3290	37.7280
 1.3300	37.6860
 1.3310	37.6440
 1.3320	37.6010
 1.3330	37.5590
 1.3340	37.5140
 1.3350	37.4700
 1.3360	37.4260
 1.3370	37.3790
 1.3380	37.3320
 1.3390	37.2860
 1.3400	37.2380
 1.3410	37.1900
 1.3420	37.1420
 1.3430	37.0940
 1.3440	37.0480
 1.3450	37.0010
 1.3460	36.9540
 1.3470	36.9080
 1.3480	36.8600
 1.3490	36.8120
 1.3500	36.7650
 1.3510	36.7170
 1.3520	36.6680
 1.3530	36.6210
 1.3540	36.5730
 1.3550	36.5250
 1.3560	36.4770
 1.3570	36.4280
 1.3580	36.3780
 1.3590	36.3270
 1.3600	36.2760
 1.3610	36.2230
 1.3620	36.1690
 1.3630	36.1130
 1.3640	36.0540
 1.3650	35.9910
 1.3660	35.9270
 1.3670	35.8600
 1.3680	35.7870
 1.3690	35.7120
 1.3700	35.6290
 1.3710	35.5400
 1.3720	35.4460
 1.3730	35.3440
 1.3740	35.2360
 1.3750	35.1170
 1.3760	34.9870
 1.3770	34.8460
 1.3780	34.6930
 1.3790	34.5280
 1.3800	34.3510
 1.3810	34.1590
 1.3820	33.9540
 1.3830	33.7370
 1.3840	33.5070
 1.3850	33.2640
 1.3860	33.0080
 1.3870	32.7390
 1.3880	32.4600
 1.3890	32.1690
 1.3900	31.8660
 1.3910	31.5570
 1.3920	31.2390
 1.3930	30.9110
 1.3940	30.5790
 1.3950	30.2390
 1.3960	29.8970
 1.3970	29.5550
 1.3980	29.2140
 1.3990	28.8780
 1.4000	28.5450
 1.4010	28.2150
 1.4020	27.8940
 1.4030	27.5780
 1.4040	27.2720
 1.4050	26.9770
 1.4060	26.6910
 1.4070	26.4200
 1.4080	26.1620
 1.4090	25.9140
 1.4100	25.6820
 1.4110	25.4620
 1.4120	25.2540
 1.4130	25.0590
 1.4140	24.8750
 1.4150	24.7050
 1.4160	24.5470
 1.4170	24.4000
 1.4180	24.2650
 1.4190	24.1390
 1.4200	24.0210
 1.4210	23.9120
 1.4220	23.8120
 1.4230	23.7220
 1.4240	23.6410
 1.4250	23.5650
 1.4260	23.4970
 1.4270	23.4350
 1.4280	23.3790
 1.4290	23.3280
 1.4300	23.2840
 1.4310	23.2440
 1.4320	23.2100
 1.4330	23.1790
 1.4340	23.1550
 1.4350	23.1340
 1.4360	23.1170
 1.4370	23.1050
 1.4380	23.0960
 1.4390	23.0900
 1.4400	23.0870
 1.4410	23.0870
 1.4420	23.0890
 1.4430	23.0920
 1.4440	23.0970
 1.4450	23.1040
 1.4460	23.1120
 1.4470	23.1230
 1.4480	23.1350
 1.4490	23.1470
 1.4500	23.1620
 1.4510	23.1770
 1.4520	23.1930
 1.4530	23.2110
 1.4540	23.2300
 1.4550	23.2520
 1.4560	23.2740
 1.4570	23.2980
 1.4580	23.3240
 1.4590	23.3510
 1.4600	23.3830
 1.4610	23.4200
 1.4620	23.4610
 1.4630	23.5060
 1.4640	23.5520
 1.4650	23.6010
 1.4660	23.6540
 1.4670	23.7120
 1.4680	23.7750
 1.4690	23.8430
 1.4700	23.9140
 1.4710	23.9870
 1.4720	24.0630
 1.4730	24.1410
 1.4740	24.2230
 1.4750	24.3060
 1.4760	24.3920
 1.4770	24.4790
 1.4780	24.5680
 1.4790	24.6590
 1.4800	24.7490
 1.4810	24.8400
 1.4820	24.9310
 1.4830	25.0230
 1.4840	25.1160
 1.4850	25.2090
 1.4860	25.3020
 1.4870	25.3950
 1.4880	25.4870
 1.4890	25.5790
 1.4900	25.6730
 1.4910	25.7670
 1.4920	25.8610
 1.4930	25.9560
 1.4940	26.0500
 1.4950	26.1440
 1.4960	26.2360
 1.4970	26.3270
 1.4980	26.4190
 1.4990	26.5120
 1.5000	26.6040
 1.5010	26.6960
 1.5020	26.7870
 1.5030	26.8770
 1.5040	26.9660
 1.5050	27.0560
 1.5060	27.1450
 1.5070	27.2350
 1.5080	27.3240
 1.5090	27.4120
 1.5100	27.5000
 1.5110	27.5870
 1.5120	27.6750
 1.5130	27.7610
 1.5140	27.8450
 1.5150	27.9280
 1.5160	28.0110
 1.5170	28.0930
 1.5180	28.1740
 1.5190	28.2540
 1.5200	28.3340
 1.5210	28.4120
 1.5220	28.4900
 1.5230	28.5680
 1.5240	28.6440
 1.5250	28.7200
 1.5260	28.7950
 1.5270	28.8680
 1.5280	28.9400
 1.5290	29.0110
 1.5300	29.0800
 1.5310	29.1480
 1.5320	29.2160
 1.5330	29.2830
 1.5340	29.3490
 1.5350	29.4150
 1.5360	29.4800
 1.5370	29.5440
 1.5380	29.6060
 1.5390	29.6680
 1.5400	29.7290
 1.5410	29.7900
 1.5420	29.8500
 1.5430	29.9090
 1.5440	29.9670
 1.5450	30.0230
 1.5460	30.0800
 1.5470	30.1360
 1.5480	30.1910
 1.5490	30.2460
 1.5500	30.2990
 1.5510	30.3520
 1.5520	30.4040
 1.5530	30.4550
 1.5540	30.5050
 1.5550	30.5540
 1.5560	30.6040
 1.5570	30.6540
 1.5580	30.7000
 1.5590	30.7470
 1.5600	30.7920
 1.5610	30.8330
 1.5620	30.8770
 1.5630	30.9210
 1.5640	30.9630
 1.5650	31.0060
 1.5660	31.0460
 1.5670	31.0840
 1.5680	31.1230
 1.5690	31.1610
 1.5700	31.2000
 1.5710	31.2390
 1.5720	31.2750
 1.5730	31.3120
 1.5740	31.3480
 1.5750	31.3830
 1.5760	31.4180
 1.5770	31.4530
 1.5780	31.4900
 1.5790	31.5270
 1.5800	31.5610
 1.5810	31.5950
 1.5820	31.6290
 1.5830	31.6630
 1.5840	31.6980
 1.5850	31.7320
 1.5860	31.7660
 1.5870	31.8000
 1.5880	31.8340
 1.5890	31.8680
 1.5900	31.9010
 1.5910	31.9320
 1.5920	31.9640
 1.5930	31.9950
 1.5940	32.0270
 1.5950	32.0600
 1.5960	32.0920
 1.5970	32.1250
 1.5980	32.1550
 1.5990	32.1850
 1.6000	32.2160
 1.6010	32.2470
 1.6020	32.2770
 1.6030	32.3080
 1.6040	32.3370
 1.6050	32.3650
 1.6060	32.3950
 1.6070	32.4250
 1.6080	32.4530
 1.6090	32.4800
 1.6100	32.5070
 1.6110	32.5330
 1.6120	32.5610
 1.6130	32.5880
 1.6140	32.6140
 1.6150	32.6360
 1.6160	32.6590
 1.6170	32.6800
 1.6180	32.7010
 1.6190	32.7250
 1.6200	32.7470
 1.6210	32.7670
 1.6220	32.7870
 1.6230	32.8060
 1.6240	32.8250
 1.6250	32.8440
 1.6260	32.8620
 1.6270	32.8780
 1.6280	32.8980
 1.6290	32.9160
 1.6300	32.9350
 1.6310	32.9510
 1.6320	32.9620
 1.6330	32.9750
 1.6340	32.9880
 1.6350	33.0010
 1.6360	33.0160
 1.6370	33.0300
 1.6380	33.0430
 1.6390	33.0550
 1.6400	33.0660
 1.6410	33.0770
 1.6420	33.0870
 1.6430	33.0960
 1.6440	33.1020
 1.6450	33.1090
 1.6460	33.1150
 1.6470	33.1220
 1.6480	33.1280
 1.6490	33.1320
 1.6500	33.1360
 1.6510	33.1370
 1.6520	33.1370
 1.6530	33.1370
 1.6540	33.1360
 1.6550	33.1330
 1.6560	33.1300
 1.6570	33.1250
 1.6580	33.1200
 1.6590	33.1150
 1.6600	33.1090
 1.6610	33.1030
 1.6620	33.0950
 1.6630	33.0880
 1.6640	33.0810
 1.6650	33.0750
 1.6660	33.0680
 1.6670	33.0590
 1.6680	33.0490
 1.6690	33.0380
 1.6700	33.0250
 1.6710	33.0140
 1.6720	33.0020
 1.6730	32.9870
 1.6740	32.9720
 1.6750	32.9530
 1.6760	32.9330
 1.6770	32.9120
 1.6780	32.8900
 1.6790	32.8670
 1.6800	32.8440
 1.6810	32.8210
 1.6820	32.7950
 1.6830	32.7680
 1.6840	32.7390
 1.6850	32.7120
 1.6860	32.6860
 1.6870	32.6580
 1.6880	32.6290
 1.6890	32.5990
 1.6900	32.5700
 1.6910	32.5410
 1.6920	32.5140
 1.6930	32.4860
 1.6940	32.4590
 1.6950	32.4330
 1.6960	32.4060
 1.6970	32.3780
 1.6980	32.3510
 1.6990	32.3210
 1.7000	32.2940
 1.7010	32.2680
 1.7020	32.2410
 1.7030	32.2140
 1.7040	32.1860
 1.7050	32.1560
 1.7060	32.1280
 1.7070	32.0990
 1.7080	32.0720
 1.7090	32.0440
 1.7100	32.0170
 1.7110	31.9930
 1.7120	31.9670
 1.7130	31.9400
 1.7140	31.9100
 1.7150	31.8820
 1.7160	31.8560
 1.7170	31.8300
 1.7180	31.8060
 1.7190	31.7800
 1.7200	31.7560
 1.7210	31.7310
 1.7220	31.7080
 1.7230	31.6860
 1.7240	31.6620
 1.7250	31.6370
 1.7260	31.6130
 1.7270	31.5900
 1.7280	31.5710
 1.7290	31.5540
 1.7300	31.5380
 1.7310	31.5210
 1.7320	31.5050
 1.7330	31.4890
 1.7340	31.4740
 1.7350	31.4590
 1.7360	31.4440
 1.7370	31.4280
 1.7380	31.4110
 1.7390	31.3920
 1.7400	31.3690
 1.7410	31.3460
 1.7420	31.3200
 1.7430	31.2950
 1.7440	31.2700
 1.7450	31.2420
 1.7460	31.2140
 1.7470	31.1830
 1.7480	31.1510
 1.7490	31.1180
 1.7500	31.0840
 1.7510	31.0500
 1.7520	31.0160
 1.7530	30.9820
 1.7540	30.9460
 1.7550	30.9120
 1.7560	30.8770
 1.7570	30.8430
 1.7580	30.8090
 1.7590	30.7760
 1.7600	30.7420
 1.7610	30.7120
 1.7620	30.6820
 1.7630	30.6530
 1.7640	30.6240
 1.7650	30.5970
 1.7660	30.5710
 1.7670	30.5450
 1.7680	30.5210
 1.7690	30.4980
 1.7700	30.4760
 1.7710	30.4560
 1.7720	30.4350
 1.7730	30.4130
 1.7740	30.3930
 1.7750	30.3730
 1.7760	30.3540
 1.7770	30.3380
 1.7780	30.3210
 1.7790	30.3040
 1.7800	30.2890
 1.7810	30.2730
 1.7820	30.2600
 1.7830	30.2480
 1.7840	30.2380
 1.7850	30.2290
 1.7860	30.2210
 1.7870	30.2150
 1.7880	30.2080
 1.7890	30.2040
 1.7900	30.2030
 1.7910	30.2000
 1.7920	30.1980
 1.7930	30.1950
 1.7940	30.1910
 1.7950	30.1890
 1.7960	30.1890
 1.7970	30.1890
 1.7980	30.1890
 1.7990	30.1910
 1.8000	30.1960
 1.8010	30.1980
 1.8020	30.2010
 1.8030	30.2030
 1.8040	30.2030
 1.8050	30.2040
 1.8060	30.2080
 1.8070	30.2110
 1.8080	30.2150
 1.8090	30.2170
 1.8100	30.2170
 1.8110	30.2170
 1.8120	30.2170
 1.8130	30.2180
 1.8140	30.2170
 1.8150	30.2140
 1.8160	30.2110
 1.8170	30.2080
 1.8180	30.2060
 1.8190	30.2030
 1.8200	30.2010
 1.8210	30.1990
 1.8220	30.1930
 1.8230	30.1860
 1.8240	30.1800
 1.8250	30.1740
 1.8260	30.1660
 1.8270	30.1600
 1.8280	30.1510
 1.8290	30.1380
 1.8300	30.1240
 1.8310	29.8380
 1.8320	29.8260
 1.8330	29.8130
 1.8340	29.7970
 1.8350	29.7820
 1.8360	29.7630
 1.8370	29.7380
 1.8380	29.7150
 1.8390	29.6860
 1.8400	29.6530
 1.8410	29.6170
 1.8420	29.5780
 1.8430	29.5330
 1.8440	29.4850
 1.8450	29.4350
 1.8460	29.3840
 1.8470	29.3280
 1.8480	29.2640
 1.8490	29.1980
 1.8500	29.1220
 1.8510	29.0400
 1.8520	28.9480
 1.8530	28.8500
 1.8540	28.7450
 1.8550	28.6310
 1.8560	28.5100
 1.8570	28.3810
 1.8580	28.2390
 1.8590	28.0880
 1.8600	27.9270
 1.8610	27.7520
 1.8620	27.5630
 1.8630	27.3600
 1.8640	27.1410
 1.8650	26.9090
 1.8660	26.6660
 1.8670	26.4020
 1.8680	26.1220
 1.8690	25.8220
 1.8700	25.5030
 1.8710	25.1630
 1.8720	24.8130
 1.8730	24.4450
 1.8740	24.0620
 1.8750	23.6640
 1.8760	23.2450
 1.8770	22.8160
 1.8780	22.3770
 1.8790	21.9230
 1.8800	21.4630
 1.8810	20.9980
 1.8820	20.5200
 1.8830	20.0310
 1.8840	19.5360
 1.8850	19.0350
 1.8860	18.5310
 1.8870	18.0330
 1.8880	17.5380
 1.8890	17.0570
 1.8900	16.5840
 1.8910	16.1230
 1.8920	15.6670
 1.8930	15.2320
 1.8940	14.8100
 1.8950	14.4090
 1.8960	14.0330
 1.8970	13.6730
 1.8980	13.3380
 1.8990	13.0260
 1.9000	12.7340
 1.9010	12.4670
 1.9020	12.2180
 1.9030	11.9880
 1.9040	11.7770
 1.9050	11.5870
 1.9060	11.4150
 1.9070	11.2610
 1.9080	11.1240
 1.9090	11.0010
 1.9100	10.8920
 1.9110	10.7930
 1.9120	10.7090
 1.9130	10.6310
 1.9140	10.5620
 1.9150	10.5030
 1.9160	10.4500
 1.9170	10.4030
 1.9180	10.3620
 1.9190	10.3280
 1.9200	10.3010
 1.9210	10.2770
 1.9220	10.2590
 1.9230	10.2500
 1.9240	10.2400
 1.9250	10.2330
 1.9260	10.2330
 1.9270	10.2360
 1.9280	10.2420
 1.9290	10.2540
 1.9300	10.2700
 1.9310	10.2880
 1.9320	10.3080
 1.9330	10.3320
 1.9340	10.3600
 1.9350	10.3890
 1.9360	10.4200
 1.9370	10.4540
 1.9380	10.4910
 1.9390	10.5280
 1.9400	10.5700
 1.9410	10.6160
 1.9420	10.6610
 1.9430	10.7070
 1.9440	10.7570
 1.9450	10.8110
 1.9460	10.8630
 1.9470	10.9170
 1.9480	10.9740
 1.9490	11.0340
 1.9500	11.0950
 1.9510	11.1590
 1.9520	11.2240
 1.9530	11.2870
 1.9540	11.3510
 1.9550	11.4180
 1.9560	11.4870
 1.9570	11.5560
 1.9580	11.6240
 1.9590	11.6960
 1.9600	11.7690
 1.9610	11.8430
 1.9620	11.9230
 1.9630	11.9980
 1.9640	12.0740
 1.9650	12.1510
 1.9660	12.2290
 1.9670	12.3110
 1.9680	12.3940
 1.9690	12.4820
 1.9700	12.5670
 1.9710	12.6550
 1.9720	12.7410
 1.9730	12.8270
 1.9740	12.9140
 1.9750	13.0000
 1.9760	13.0880
 1.9770	13.1760
 1.9780	13.2640
 1.9790	13.3530
 1.9800	13.4420
 1.9810	13.5330
 1.9820	13.6260
 1.9830	13.7190
 1.9840	13.8140
 1.9850	13.9080
 1.9860	14.0020
 1.9870	14.0970
 1.9880	14.1930
 1.9890	14.2860
 1.9900	14.3790
 1.9910	14.4730
 1.9920	14.5660
 1.9930	14.6590
 1.9940	14.7540
 1.9950	14.8480
 1.9960	14.9440
 1.9970	15.0390
 1.9980	15.1350
 1.9990	15.2320
 2.0000	15.3290
 2.0010	15.4240
 2.0020	15.5180
 2.0030	15.6090
 2.0040	15.6960
 2.0050	15.7840
 2.0060	15.8700
 2.0070	15.9590
 2.0080	16.0510
 2.0090	16.1400
 2.0100	16.2280
 2.0110	16.3140
 2.0120	16.3970
 2.0130	16.4790
 2.0140	16.5630
 2.0150	16.6460
 2.0160	16.7280
 2.0170	16.8080
 2.0180	16.8850
 2.0190	16.9600
 2.0200	17.0350
 2.0210	17.1090
 2.0220	17.1820
 2.0230	17.2580
 2.0240	17.3300
 2.0250	17.3970
 2.0260	17.4650
 2.0270	17.5330
 2.0280	17.6000
 2.0290	17.6640
 2.0300	17.7250
 2.0310	17.7850
 2.0320	17.8410
 2.0330	17.8990
 2.0340	17.9580
 2.0350	18.0150
 2.0360	18.0690
 2.0370	18.1220
 2.0380	18.1760
 2.0390	18.2250
 2.0400	18.2690
 2.0410	18.3150
 2.0420	18.3620
 2.0430	18.4050
 2.0440	18.4500
 2.0450	18.4980
 2.0460	18.5430
 2.0470	18.5840
 2.0480	18.6250
 2.0490	18.6640
 2.0500	18.7070
 2.0510	18.7500
 2.0520	18.7920
 2.0530	18.8360
 2.0540	18.8800
 2.0550	18.9210
 2.0560	18.9630
 2.0570	19.0100
 2.0580	19.0540
 2.0590	19.0980
 2.0600	19.1420
 2.0610	19.1880
 2.0620	19.2340
 2.0630	19.2800
 2.0640	19.3290
 2.0650	19.3760
 2.0660	19.4230
 2.0670	19.4710
 2.0680	19.5190
 2.0690	19.5670
 2.0700	19.6170
 2.0710	19.6650
 2.0720	19.7120
 2.0730	19.7620
 2.0740	19.8090
 2.0750	19.8540
 2.0760	19.9000
 2.0770	19.9440
 2.0780	19.9890
 2.0790	20.0340
 2.0800	20.0810
 2.0810	20.1270
 2.0820	20.1760
 2.0830	20.2310
 2.0840	20.2790
 2.0850	20.3260
 2.0860	20.3720
 2.0870	20.4100
 2.0880	20.4520
 2.0890	20.4950
 2.0900	20.5390
 2.0910	20.5840
 2.0920	20.6320
 2.0930	20.6760
 2.0940	20.7190
 2.0950	20.7600
 2.0960	20.7990
 2.0970	20.8390
 2.0980	20.8760
 2.0990	20.9170
 2.1000	20.9570
 2.1010	20.9990
 2.1020	21.0410
 2.1030	21.0840
 2.1040	21.1260
 2.1050	21.1700
 2.1060	21.2110
 2.1070	21.2500
 2.1080	21.2910
 2.1090	21.3310
 2.1100	21.3700
 2.1110	21.4110
 2.1120	21.4500
 2.1130	21.4860
 2.1140	21.5230
 2.1150	21.5610
 2.1160	21.5990
 2.1170	21.6370
 2.1180	21.6750
 2.1190	21.7170
 2.1200	21.7550
 2.1210	21.7900
 2.1220	21.8230
 2.1230	21.8560
 2.1240	21.8850
 2.1250	21.9190
 2.1260	21.9560
 2.1270	21.9900
 2.1280	22.0280
 2.1290	22.0580
 2.1300	22.0820
 2.1310	22.1090
 2.1320	22.1330
 2.1330	22.1600
 2.1340	22.1880
 2.1350	22.2170
 2.1360	22.2470
 2.1370	22.2750
 2.1380	22.3070
 2.1390	22.3320
 2.1400	22.3540
 2.1410	22.3730
 2.1420	22.3930
 2.1430	22.4100
 2.1440	22.4300
 2.1450	22.4550
 2.1460	22.4750
 2.1470	22.4950
 2.1480	22.5130
 2.1490	22.5270
 2.1500	22.5420
 2.1510	22.5570
 2.1520	22.5700
 2.1530	22.5820
 2.1540	22.5940
 2.1550	22.6050
 2.1560	22.6160
 2.1570	22.6300
 2.1580	22.6400
 2.1590	22.6470
 2.1600	22.6530
 2.1610	22.6560
 2.1620	22.6570
 2.1630	22.6610
 2.1640	22.6660
 2.1650	22.6710
 2.1660	22.6780
 2.1670	22.6860
 2.1680	22.6970
 2.1690	22.7050
 2.1700	22.7130
 2.1710	22.7200
 2.1720	22.7210
 2.1730	22.7270
 2.1740	22.7350
 2.1750	22.7440
 2.1760	22.7570
 2.1770	22.7670
 2.1780	22.7750
 2.1790	22.7850
 2.1800	22.7950
 2.1810	22.8040
 2.1820	22.8130
 2.1830	22.8240
 2.1840	22.8340
 2.1850	22.8410
 2.1860	22.8530
 2.1870	22.8690
 2.1880	22.8820
 2.1890	22.8970
 2.1900	22.9070
 2.1910	22.9140
 2.1920	22.9210
 2.1930	22.9260
 2.1940	22.9320
 2.1950	22.9390
 2.1960	22.9450
 2.1970	22.9520
 2.1980	22.9580
 2.1990	22.9650
 2.2000	22.9690
 2.2010	22.9720
 2.2020	22.9740
 2.2030	22.9740
 2.2040	22.9730
 2.2050	22.9720
 2.2060	22.9690
 2.2070	22.9630
 2.2080	22.9540
 2.2090	22.9460
 2.2100	22.9370
 2.2110	22.9260
 2.2120	22.9140
 2.2130	22.9030
 2.2140	22.8910
 2.2150	22.8780
 2.2160	22.8670
 2.2170	22.8520
 2.2180	22.8300
 2.2190	22.8130
 2.2200	22.8010
 2.2210	22.7820
 2.2220	22.7610
 2.2230	22.7410
 2.2240	22.7180
 2.2250	22.6950
 2.2260	22.6780
 2.2270	22.6530
 2.2280	22.6250
 2.2290	22.5890
 2.2300	22.5460
 2.2310	22.5010
 2.2320	22.4530
 2.2330	22.3980
 2.2340	22.3440
 2.2350	22.2890
 2.2360	22.2330
 2.2370	22.1760
 2.2380	22.1170
 2.2390	22.0560
 2.2400	21.9950
 2.2410	21.9320
 2.2420	21.8690
 2.2430	21.8010
 2.2440	21.7410
 2.2450	21.6780
 2.2460	21.6250
 2.2470	21.5800
 2.2480	21.5370
 2.2490	21.5000
 2.2500	21.4610
 2.2510	21.4270
 2.2520	21.3880
 2.2530	21.3470
 2.2540	21.3050
 2.2550	21.2600
 2.2560	21.2180
 2.2570	21.1760
 2.2580	21.1340
 2.2590	21.0920
 2.2600	21.0490
 2.2610	21.0040
 2.2620	20.9620
 2.2630	20.9150
 2.2640	20.8660
 2.2650	20.8140
 2.2660	20.7600
 2.2670	20.7110
 2.2680	20.6650
 2.2690	20.6180
 2.2700	20.5710
 2.2710	20.5250
 2.2720	20.4730
 2.2730	20.4330
 2.2740	20.4010
 2.2750	20.3660
 2.2760	20.3360
 2.2770	20.3030
 2.2780	20.2660
 2.2790	20.2320
 2.2800	20.1990
 2.2810	20.1680
 2.2820	20.1370
 2.2830	20.1080
 2.2840	20.0830
 2.2850	20.0560
 2.2860	20.0300
 2.2870	20.0010
 2.2880	19.9710
 2.2890	19.9380
 2.2900	19.9030
 2.2910	19.8680
 2.2920	19.8330
 2.2930	19.7960
 2.2940	19.7590
 2.2950	19.7180
 2.2960	19.6760
 2.2970	19.6280
 2.2980	19.5740
 2.2990	19.5240
 2.3000	19.4710
 2.3010	19.4210
 2.3020	19.3790
 2.3030	19.3320
 2.3040	19.2790
 2.3050	19.2290
 2.3060	19.1750
 2.3070	19.1240
 2.3080	19.0850
 2.3090	19.0440
 2.3100	19.0040
 2.3110	18.9640
 2.3120	18.9290
 2.3130	18.8910
 2.3140	18.8640
 2.3150	18.8490
 2.3160	18.8280
 2.3170	18.8060
 2.3180	18.7890
 2.3190	18.7720
 2.3200	18.7540
 2.3210	18.7450
 2.3220	18.7270
 2.3230	18.7020
 2.3240	18.6790
 2.3250	18.6550
 2.3260	18.6310
 2.3270	18.6060
 2.3280	18.5820
 2.3290	18.5620
 2.3300	18.5320
 2.3310	18.4970
 2.3320	18.4610
 2.3330	18.4120
 2.3340	18.3750
 2.3350	18.3420
 2.3360	18.3080
 2.3370	18.2790
 2.3380	18.2450
 2.3390	18.2100
 2.3400	18.1770
 2.3410	18.1450
 2.3420	18.1100
 2.3430	18.0720
 2.3440	18.0360
 2.3450	17.9960
 2.3460	17.9600
 2.3470	17.9320
 2.3480	17.9000
 2.3490	17.8630
 2.3500	17.8330
 2.3510	17.8070
 2.3520	17.7790
 2.3530	17.7530
 2.3540	17.7360
 2.3550	17.7120
 2.3560	17.6860
 2.3570	17.6550
 2.3580	17.6250
 2.3590	17.6020
 2.3600	17.5740
 2.3610	17.5490
 2.3620	17.5270
 2.3630	17.4940
 2.3640	17.4660
 2.3650	17.4410
 2.3660	17.4130
 2.3670	17.3870
 2.3680	17.3520
 2.3690	17.3180
 2.3700	17.2880
 2.3710	17.2540
 2.3720	17.2270
 2.3730	17.2010
 2.3740	17.1660
 2.3750	17.1360
 2.3760	17.1020
 2.3770	17.0590
 2.3780	17.0210
 2.3790	16.9750
 2.3800	16.9310
 2.3810	16.8910
 2.3820	16.8430
 2.3830	16.7980
 2.3840	16.7450
 2.3850	16.6920
 2.3860	16.6480
 2.3870	16.5990
 2.3880	16.5570
 2.3890	16.5270
 2.3900	16.4890
 2.3910	16.4440
 2.3920	16.4010
 2.3930	16.3550
 2.3940	16.3100
 2.3950	16.2760
 2.3960	16.2410
 2.3970	16.1970
 2.3980	16.1520
 2.3990	16.1050
 2.4000	16.0660
 2.4010	16.0160
 2.4020	15.9610
 2.4030	15.9100
 2.4040	15.8470
 2.4050	15.8010
 2.4060	15.7670
 2.4070	15.7210
 2.4080	15.6890
 2.4090	15.6540
 2.4100	15.6060
 2.4110	15.5630
 2.4120	15.5190
 2.4130	15.4740
 2.4140	15.4230
 2.4150	15.3660
 2.4160	15.3020
 2.4170	15.2320
 2.4180	15.1780
 2.4190	15.1280
 2.4200	15.0880
 2.4210	15.0570
 2.4220	15.0100
 2.4230	14.9660
 2.4240	14.9110
 2.4250	14.8330
 2.4260	14.7640
 2.4270	14.7030
 2.4280	14.6430
 2.4290	14.5870
 2.4300	14.5280
 2.4310	14.4630
 2.4320	14.4030
 2.4330	14.3600
 2.4340	14.3170
 2.4350	14.2700
 2.4360	14.2240
 2.4370	14.1630
 2.4380	14.1090
 2.4390	14.0420
 2.4400	13.9680
 2.4410	13.9100
 2.4420	13.8400
 2.4430	13.7870
 2.4440	13.7360
 2.4450	13.6440
 2.4460	13.5660
 2.4470	13.5140
 2.4480	13.4490
 2.4490	13.4070
 2.4500	13.3690
 2.4510	13.2860
 2.4520	13.2280
 2.4530	13.2010
 2.4540	13.1590
 2.4550	13.1390
 2.4560	13.1010
 2.4570	13.0280
 2.4580	12.9730
 2.4590	12.9310
 2.4600	12.8690
 2.4610	12.8020
 2.4620	12.7310
 2.4630	12.6290
 2.4640	12.5780
 2.4650	12.5700
 2.4660	12.5340
 2.4670	12.5370
 2.4680	12.5220
 2.4690	12.4380
 2.4700	12.3880
 2.4710	12.3090
 2.4720	12.2500
 2.4730	12.2210
 2.4740	12.1790
 2.4750	12.1410
 2.4760	12.1120
 2.4770	12.0910
 2.4780	12.0640
 2.4790	12.0420
 2.4800	12.0100
 2.4810	11.9660
 2.4820	11.8930
 2.4830	11.8540
 2.4840	11.8100
 2.4850	11.7530
 2.4860	11.7290
 2.4870	11.7120
 2.4880	11.6950
 2.4890	11.6500
 2.4900	11.6410
 2.4910	11.6230
 2.4920	11.5340
 2.4930	11.5470
 2.4940	11.5740
 2.4950	11.5280
 2.4960	11.5020
 2.4970	11.4500
 2.4980	11.3670
 2.4990	11.3250
 2.5000	11.3210
