Name: Ceanothus megacarpus 1
Type: vegetation
Class: Shrub
Genus: Ceanothus
Species: megacarpus
Sample No.: VH139
Owner: UCSB
Wavelength Range: VSWIR
Origin: 34.4908; -119.7914; WGS84
Collection Date: 6/3/2013
Description: Samples were collected as part of the HyspIRI Airborne Campaign. 48 individual plants were sampled in three times in 2013 - spring  summer  and fall. The name of the sample includes a 1  2  or 3 which references a different individual of the species. Samples were taken to JPL and processed within 48 hours of collection. The same leaves were processed in the Nicolet and then measured using the ASD.
Measurement: Bidirectional reflectance
First Column: X
Second Column: Y
X Units: Wavelength (micrometers)
Y Units: Reflectance (percentage)
First X Value: 0.35
Last X Value: 2.5
Number of X Values: 2151
Additional Information: vegetation.shrub.ceanothus.megacarpus.vswir.vh139.ucsb.asd.ancillary.txt

 0.3500	 6.9510
 0.3510	 6.9800
 0.3520	 6.9150
 0.3530	 6.8940
 0.3540	 7.0000
 0.3550	 6.9260
 0.3560	 6.8540
 0.3570	 6.8600
 0.3580	 6.9440
 0.3590	 7.0300
 0.3600	 7.0290
 0.3610	 6.9390
 0.3620	 6.8680
 0.3630	 6.8750
 0.3640	 6.9190
 0.3650	 6.9390
 0.3660	 6.8910
 0.3670	 6.8810
 0.3680	 6.8820
 0.3690	 6.7990
 0.3700	 6.8410
 0.3710	 6.8620
 0.3720	 6.8090
 0.3730	 6.8850
 0.3740	 6.9020
 0.3750	 6.8350
 0.3760	 6.7380
 0.3770	 6.7480
 0.3780	 6.7830
 0.3790	 6.7820
 0.3800	 6.7190
 0.3810	 6.7240
 0.3820	 6.7720
 0.3830	 6.8140
 0.3840	 6.8150
 0.3850	 6.8100
 0.3860	 6.8130
 0.3870	 6.8210
 0.3880	 6.7760
 0.3890	 6.7610
 0.3900	 6.7840
 0.3910	 6.7680
 0.3920	 6.7820
 0.3930	 6.7950
 0.3940	 6.7830
 0.3950	 6.7890
 0.3960	 6.7690
 0.3970	 6.7410
 0.3980	 6.7410
 0.3990	 6.7280
 0.4000	 6.7170
 0.4010	 6.7150
 0.4020	 6.7130
 0.4030	 6.7030
 0.4040	 6.7120
 0.4050	 6.7470
 0.4060	 6.7370
 0.4070	 6.7300
 0.4080	 6.7290
 0.4090	 6.7080
 0.4100	 6.7300
 0.4110	 6.7500
 0.4120	 6.7430
 0.4130	 6.7430
 0.4140	 6.7570
 0.4150	 6.7730
 0.4160	 6.7750
 0.4170	 6.7660
 0.4180	 6.7690
 0.4190	 6.7850
 0.4200	 6.8040
 0.4210	 6.8380
 0.4220	 6.8730
 0.4230	 6.8940
 0.4240	 6.9010
 0.4250	 6.9180
 0.4260	 6.9450
 0.4270	 6.9680
 0.4280	 6.9940
 0.4290	 7.0070
 0.4300	 7.0100
 0.4310	 7.0360
 0.4320	 7.0530
 0.4330	 7.0680
 0.4340	 7.0880
 0.4350	 7.1030
 0.4360	 7.1210
 0.4370	 7.1420
 0.4380	 7.1600
 0.4390	 7.1860
 0.4400	 7.2040
 0.4410	 7.2080
 0.4420	 7.2280
 0.4430	 7.2450
 0.4440	 7.2530
 0.4450	 7.2570
 0.4460	 7.2830
 0.4470	 7.3040
 0.4480	 7.3120
 0.4490	 7.3250
 0.4500	 7.3440
 0.4510	 7.3580
 0.4520	 7.3620
 0.4530	 7.3700
 0.4540	 7.3750
 0.4550	 7.3810
 0.4560	 7.3910
 0.4570	 7.4060
 0.4580	 7.4190
 0.4590	 7.4260
 0.4600	 7.4310
 0.4610	 7.4280
 0.4620	 7.4290
 0.4630	 7.4420
 0.4640	 7.4410
 0.4650	 7.4420
 0.4660	 7.4470
 0.4670	 7.4410
 0.4680	 7.4430
 0.4690	 7.4450
 0.4700	 7.4400
 0.4710	 7.4500
 0.4720	 7.4510
 0.4730	 7.4480
 0.4740	 7.4560
 0.4750	 7.4520
 0.4760	 7.4530
 0.4770	 7.4620
 0.4780	 7.4580
 0.4790	 7.4560
 0.4800	 7.4630
 0.4810	 7.4740
 0.4820	 7.4700
 0.4830	 7.4690
 0.4840	 7.4760
 0.4850	 7.4820
 0.4860	 7.4810
 0.4870	 7.4840
 0.4880	 7.4960
 0.4890	 7.5110
 0.4900	 7.5240
 0.4910	 7.5340
 0.4920	 7.5440
 0.4930	 7.5490
 0.4940	 7.5610
 0.4950	 7.5820
 0.4960	 7.5990
 0.4970	 7.6220
 0.4980	 7.6430
 0.4990	 7.6540
 0.5000	 7.6700
 0.5010	 7.6900
 0.5020	 7.7160
 0.5030	 7.7540
 0.5040	 7.7860
 0.5050	 7.8180
 0.5060	 7.8550
 0.5070	 7.8900
 0.5080	 7.9320
 0.5090	 7.9820
 0.5100	 8.0350
 0.5110	 8.0930
 0.5120	 8.1540
 0.5130	 8.2190
 0.5140	 8.2920
 0.5150	 8.3670
 0.5160	 8.4520
 0.5170	 8.5480
 0.5180	 8.6420
 0.5190	 8.7410
 0.5200	 8.8450
 0.5210	 8.9540
 0.5220	 9.0710
 0.5230	 9.1870
 0.5240	 9.2960
 0.5250	 9.4060
 0.5260	 9.5130
 0.5270	 9.6160
 0.5280	 9.7170
 0.5290	 9.8140
 0.5300	 9.9060
 0.5310	 9.9930
 0.5320	10.0760
 0.5330	10.1490
 0.5340	10.2110
 0.5350	10.2670
 0.5360	10.3210
 0.5370	10.3720
 0.5380	10.4170
 0.5390	10.4520
 0.5400	10.4900
 0.5410	10.5240
 0.5420	10.5490
 0.5430	10.5750
 0.5440	10.6060
 0.5450	10.6380
 0.5460	10.6620
 0.5470	10.6850
 0.5480	10.7080
 0.5490	10.7310
 0.5500	10.7470
 0.5510	10.7570
 0.5520	10.7630
 0.5530	10.7640
 0.5540	10.7550
 0.5550	10.7380
 0.5560	10.7120
 0.5570	10.6740
 0.5580	10.6290
 0.5590	10.5790
 0.5600	10.5230
 0.5610	10.4600
 0.5620	10.3970
 0.5630	10.3340
 0.5640	10.2710
 0.5650	10.2030
 0.5660	10.1280
 0.5670	10.0480
 0.5680	 9.9620
 0.5690	 9.8790
 0.5700	 9.7970
 0.5710	 9.7150
 0.5720	 9.6350
 0.5730	 9.5650
 0.5740	 9.5080
 0.5750	 9.4630
 0.5760	 9.4270
 0.5770	 9.3900
 0.5780	 9.3450
 0.5790	 9.2920
 0.5800	 9.2430
 0.5810	 9.2030
 0.5820	 9.1730
 0.5830	 9.1430
 0.5840	 9.1130
 0.5850	 9.0790
 0.5860	 9.0420
 0.5870	 9.0050
 0.5880	 8.9650
 0.5890	 8.9260
 0.5900	 8.9170
 0.5910	 8.9180
 0.5920	 8.9200
 0.5930	 8.9210
 0.5940	 8.9080
 0.5950	 8.8930
 0.5960	 8.8820
 0.5970	 8.8670
 0.5980	 8.8520
 0.5990	 8.8370
 0.6000	 8.8200
 0.6010	 8.8050
 0.6020	 8.7910
 0.6030	 8.7770
 0.6040	 8.7630
 0.6050	 8.7440
 0.6060	 8.7210
 0.6070	 8.6970
 0.6080	 8.6680
 0.6090	 8.6360
 0.6100	 8.6030
 0.6110	 8.5720
 0.6120	 8.5420
 0.6130	 8.5150
 0.6140	 8.4890
 0.6150	 8.4640
 0.6160	 8.4370
 0.6170	 8.4120
 0.6180	 8.3900
 0.6190	 8.3650
 0.6200	 8.3440
 0.6210	 8.3280
 0.6220	 8.3150
 0.6230	 8.3040
 0.6240	 8.2950
 0.6250	 8.2880
 0.6260	 8.2780
 0.6270	 8.2700
 0.6280	 8.2650
 0.6290	 8.2630
 0.6300	 8.2590
 0.6310	 8.2550
 0.6320	 8.2500
 0.6330	 8.2400
 0.6340	 8.2280
 0.6350	 8.2140
 0.6360	 8.1980
 0.6370	 8.1820
 0.6380	 8.1600
 0.6390	 8.1340
 0.6400	 8.1030
 0.6410	 8.0700
 0.6420	 8.0390
 0.6430	 8.0120
 0.6440	 7.9830
 0.6450	 7.9540
 0.6460	 7.9260
 0.6470	 7.9000
 0.6480	 7.8780
 0.6490	 7.8570
 0.6500	 7.8390
 0.6510	 7.8250
 0.6520	 7.8120
 0.6530	 7.8000
 0.6540	 7.7890
 0.6550	 7.7780
 0.6560	 7.7620
 0.6570	 7.7440
 0.6580	 7.7290
 0.6590	 7.7120
 0.6600	 7.6940
 0.6610	 7.6770
 0.6620	 7.6560
 0.6630	 7.6400
 0.6640	 7.6260
 0.6650	 7.6110
 0.6660	 7.5960
 0.6670	 7.5860
 0.6680	 7.5810
 0.6690	 7.5780
 0.6700	 7.5780
 0.6710	 7.5790
 0.6720	 7.5810
 0.6730	 7.5870
 0.6740	 7.5980
 0.6750	 7.6110
 0.6760	 7.6220
 0.6770	 7.6330
 0.6780	 7.6500
 0.6790	 7.6720
 0.6800	 7.6970
 0.6810	 7.7230
 0.6820	 7.7510
 0.6830	 7.7840
 0.6840	 7.8210
 0.6850	 7.8640
 0.6860	 7.9140
 0.6870	 7.9710
 0.6880	 8.0400
 0.6890	 8.1240
 0.6900	 8.2270
 0.6910	 8.3540
 0.6920	 8.5070
 0.6930	 8.6910
 0.6940	 8.9140
 0.6950	 9.1770
 0.6960	 9.4870
 0.6970	 9.8460
 0.6980	10.2540
 0.6990	10.7100
 0.7000	11.2140
 0.7010	11.7630
 0.7020	12.3550
 0.7030	12.9850
 0.7040	13.6500
 0.7050	14.3460
 0.7060	15.0710
 0.7070	15.8240
 0.7080	16.6020
 0.7090	17.4070
 0.7100	18.2340
 0.7110	19.0830
 0.7120	19.9540
 0.7130	20.8440
 0.7140	21.7530
 0.7150	22.6830
 0.7160	23.6300
 0.7170	24.5890
 0.7180	25.5610
 0.7190	26.5440
 0.7200	27.5330
 0.7210	28.5300
 0.7220	29.5300
 0.7230	30.5270
 0.7240	31.5190
 0.7250	32.5020
 0.7260	33.4710
 0.7270	34.4220
 0.7280	35.3560
 0.7290	36.2720
 0.7300	37.1630
 0.7310	38.0250
 0.7320	38.8600
 0.7330	39.6670
 0.7340	40.4430
 0.7350	41.1860
 0.7360	41.8990
 0.7370	42.5810
 0.7380	43.2310
 0.7390	43.8500
 0.7400	44.4410
 0.7410	44.9990
 0.7420	45.5210
 0.7430	46.0150
 0.7440	46.4790
 0.7450	46.9150
 0.7460	47.3230
 0.7470	47.7040
 0.7480	48.0570
 0.7490	48.3830
 0.7500	48.6930
 0.7510	48.9750
 0.7520	49.2310
 0.7530	49.4670
 0.7540	49.6830
 0.7550	49.8830
 0.7560	50.0680
 0.7570	50.2420
 0.7580	50.4000
 0.7590	50.5460
 0.7600	50.6810
 0.7610	50.8020
 0.7620	50.9120
 0.7630	51.0160
 0.7640	51.1140
 0.7650	51.2030
 0.7660	51.2820
 0.7670	51.3550
 0.7680	51.4250
 0.7690	51.4890
 0.7700	51.5500
 0.7710	51.6070
 0.7720	51.6630
 0.7730	51.7140
 0.7740	51.7630
 0.7750	51.8120
 0.7760	51.8520
 0.7770	51.8950
 0.7780	51.9390
 0.7790	51.9810
 0.7800	52.0160
 0.7810	52.0510
 0.7820	52.0870
 0.7830	52.1250
 0.7840	52.1600
 0.7850	52.1910
 0.7860	52.2220
 0.7870	52.2570
 0.7880	52.2880
 0.7890	52.3150
 0.7900	52.3430
 0.7910	52.3740
 0.7920	52.4010
 0.7930	52.4230
 0.7940	52.4460
 0.7950	52.4670
 0.7960	52.4890
 0.7970	52.5120
 0.7980	52.5320
 0.7990	52.5480
 0.8000	52.5660
 0.8010	52.5870
 0.8020	52.6000
 0.8030	52.6160
 0.8040	52.6330
 0.8050	52.6420
 0.8060	52.6520
 0.8070	52.6660
 0.8080	52.6800
 0.8090	52.6870
 0.8100	52.6930
 0.8110	52.6990
 0.8120	52.7040
 0.8130	52.7160
 0.8140	52.7210
 0.8150	52.7210
 0.8160	52.7220
 0.8170	52.7330
 0.8180	52.7330
 0.8190	52.7330
 0.8200	52.7480
 0.8210	52.7520
 0.8220	52.7520
 0.8230	52.7510
 0.8240	52.7500
 0.8250	52.7460
 0.8260	52.7440
 0.8270	52.7460
 0.8280	52.7390
 0.8290	52.7390
 0.8300	52.7380
 0.8310	52.7290
 0.8320	52.7210
 0.8330	52.7170
 0.8340	52.7180
 0.8350	52.7220
 0.8360	52.7230
 0.8370	52.7250
 0.8380	52.7280
 0.8390	52.7270
 0.8400	52.7310
 0.8410	52.7390
 0.8420	52.7440
 0.8430	52.7460
 0.8440	52.7540
 0.8450	52.7640
 0.8460	52.7710
 0.8470	52.7770
 0.8480	52.7850
 0.8490	52.7960
 0.8500	52.8070
 0.8510	52.8150
 0.8520	52.8260
 0.8530	52.8390
 0.8540	52.8450
 0.8550	52.8490
 0.8560	52.8610
 0.8570	52.8780
 0.8580	52.8820
 0.8590	52.8890
 0.8600	52.9000
 0.8610	52.9110
 0.8620	52.9190
 0.8630	52.9270
 0.8640	52.9380
 0.8650	52.9490
 0.8660	52.9600
 0.8670	52.9720
 0.8680	52.9850
 0.8690	52.9970
 0.8700	53.0060
 0.8710	53.0170
 0.8720	53.0310
 0.8730	53.0410
 0.8740	53.0590
 0.8750	53.0750
 0.8760	53.0860
 0.8770	53.0990
 0.8780	53.1160
 0.8790	53.1330
 0.8800	53.1450
 0.8810	53.1510
 0.8820	53.1670
 0.8830	53.1820
 0.8840	53.1890
 0.8850	53.1960
 0.8860	53.2050
 0.8870	53.2140
 0.8880	53.2190
 0.8890	53.2220
 0.8900	53.2400
 0.8910	53.2600
 0.8920	53.2600
 0.8930	53.2660
 0.8940	53.2650
 0.8950	53.2650
 0.8960	53.2800
 0.8970	53.2880
 0.8980	53.2930
 0.8990	53.2960
 0.9000	53.2980
 0.9010	53.3020
 0.9020	53.3090
 0.9030	53.3150
 0.9040	53.3210
 0.9050	53.3240
 0.9060	53.3280
 0.9070	53.3350
 0.9080	53.3320
 0.9090	53.3360
 0.9100	53.3440
 0.9110	53.3490
 0.9120	53.3490
 0.9130	53.3520
 0.9140	53.3600
 0.9150	53.3690
 0.9160	53.3600
 0.9170	53.3550
 0.9180	53.3580
 0.9190	53.3640
 0.9200	53.3630
 0.9210	53.3540
 0.9220	53.3420
 0.9230	53.3350
 0.9240	53.3250
 0.9250	53.3060
 0.9260	53.2890
 0.9270	53.2870
 0.9280	53.2580
 0.9290	53.2230
 0.9300	53.1930
 0.9310	53.1590
 0.9320	53.1310
 0.9330	53.1070
 0.9340	53.0790
 0.9350	53.0320
 0.9360	52.9880
 0.9370	52.9440
 0.9380	52.8990
 0.9390	52.8550
 0.9400	52.8140
 0.9410	52.7700
 0.9420	52.7190
 0.9430	52.6470
 0.9440	52.5790
 0.9450	52.5120
 0.9460	52.4380
 0.9470	52.3550
 0.9480	52.2670
 0.9490	52.1750
 0.9500	52.0740
 0.9510	51.9580
 0.9520	51.8440
 0.9530	51.7280
 0.9540	51.6050
 0.9550	51.4800
 0.9560	51.3520
 0.9570	51.2290
 0.9580	51.1150
 0.9590	50.9940
 0.9600	50.8950
 0.9610	50.8070
 0.9620	50.7130
 0.9630	50.6160
 0.9640	50.5470
 0.9650	50.4920
 0.9660	50.4250
 0.9670	50.3580
 0.9680	50.3200
 0.9690	50.2900
 0.9700	50.2420
 0.9710	50.2060
 0.9720	50.1780
 0.9730	50.1540
 0.9740	50.1320
 0.9750	50.0930
 0.9760	50.0810
 0.9770	50.0860
 0.9780	50.0810
 0.9790	50.0810
 0.9800	50.0680
 0.9810	50.0570
 0.9820	50.0700
 0.9830	50.0730
 0.9840	50.0820
 0.9850	50.1020
 0.9860	50.1270
 0.9870	50.1520
 0.9880	50.1740
 0.9890	50.2040
 0.9900	50.2560
 0.9910	50.3040
 0.9920	50.3880
 0.9930	50.4710
 0.9940	50.5550
 0.9950	50.6380
 0.9960	50.7220
 0.9970	50.8050
 0.9980	50.8890
 0.9990	50.9720
 1.0000	51.0560
 1.0010	51.1390
 1.0020	51.2230
 1.0030	51.3060
 1.0040	51.3900
 1.0050	51.4730
 1.0060	51.5570
 1.0070	51.6400
 1.0080	51.7240
 1.0090	51.8070
 1.0100	51.8070
 1.0110	51.8450
 1.0120	51.8960
 1.0130	51.9570
 1.0140	52.0070
 1.0150	52.0570
 1.0160	52.1080
 1.0170	52.1510
 1.0180	52.1930
 1.0190	52.2440
 1.0200	52.2960
 1.0210	52.3460
 1.0220	52.3940
 1.0230	52.4420
 1.0240	52.4890
 1.0250	52.5350
 1.0260	52.5780
 1.0270	52.6230
 1.0280	52.6690
 1.0290	52.7130
 1.0300	52.7580
 1.0310	52.8000
 1.0320	52.8360
 1.0330	52.8750
 1.0340	52.9120
 1.0350	52.9480
 1.0360	52.9840
 1.0370	53.0180
 1.0380	53.0550
 1.0390	53.0950
 1.0400	53.1290
 1.0410	53.1640
 1.0420	53.1940
 1.0430	53.2140
 1.0440	53.2420
 1.0450	53.2740
 1.0460	53.3020
 1.0470	53.3320
 1.0480	53.3600
 1.0490	53.3820
 1.0500	53.4080
 1.0510	53.4370
 1.0520	53.4660
 1.0530	53.4880
 1.0540	53.5080
 1.0550	53.5290
 1.0560	53.5430
 1.0570	53.5630
 1.0580	53.5910
 1.0590	53.6120
 1.0600	53.6340
 1.0610	53.6530
 1.0620	53.6670
 1.0630	53.6820
 1.0640	53.6990
 1.0650	53.7120
 1.0660	53.7260
 1.0670	53.7370
 1.0680	53.7470
 1.0690	53.7530
 1.0700	53.7610
 1.0710	53.7690
 1.0720	53.7770
 1.0730	53.7850
 1.0740	53.7920
 1.0750	53.7960
 1.0760	53.8010
 1.0770	53.8080
 1.0780	53.8110
 1.0790	53.8110
 1.0800	53.8130
 1.0810	53.8160
 1.0820	53.8140
 1.0830	53.8120
 1.0840	53.8070
 1.0850	53.7960
 1.0860	53.7880
 1.0870	53.7790
 1.0880	53.7730
 1.0890	53.7640
 1.0900	53.7530
 1.0910	53.7400
 1.0920	53.7240
 1.0930	53.7090
 1.0940	53.6920
 1.0950	53.6760
 1.0960	53.6620
 1.0970	53.6440
 1.0980	53.6250
 1.0990	53.6030
 1.1000	53.5750
 1.1010	53.5500
 1.1020	53.5250
 1.1030	53.4980
 1.1040	53.4720
 1.1050	53.4460
 1.1060	53.4140
 1.1070	53.3760
 1.1080	53.3400
 1.1090	53.3020
 1.1100	53.2620
 1.1110	53.2240
 1.1120	53.1810
 1.1130	53.1340
 1.1140	53.0840
 1.1150	53.0310
 1.1160	52.9730
 1.1170	52.9120
 1.1180	52.8460
 1.1190	52.7760
 1.1200	52.7030
 1.1210	52.6240
 1.1220	52.5380
 1.1230	52.4450
 1.1240	52.3480
 1.1250	52.2420
 1.1260	52.1290
 1.1270	52.0070
 1.1280	51.8760
 1.1290	51.7370
 1.1300	51.5920
 1.1310	51.4340
 1.1320	51.2680
 1.1330	51.0920
 1.1340	50.9070
 1.1350	50.7100
 1.1360	50.5040
 1.1370	50.2850
 1.1380	50.0570
 1.1390	49.8180
 1.1400	49.5720
 1.1410	49.3220
 1.1420	49.0630
 1.1430	48.8000
 1.1440	48.5380
 1.1450	48.2700
 1.1460	48.0090
 1.1470	47.7470
 1.1480	47.4950
 1.1490	47.2440
 1.1500	47.0090
 1.1510	46.7800
 1.1520	46.5650
 1.1530	46.3610
 1.1540	46.1730
 1.1550	45.9960
 1.1560	45.8340
 1.1570	45.6890
 1.1580	45.5580
 1.1590	45.4410
 1.1600	45.3370
 1.1610	45.2440
 1.1620	45.1600
 1.1630	45.0900
 1.1640	45.0270
 1.1650	44.9710
 1.1660	44.9260
 1.1670	44.8840
 1.1680	44.8480
 1.1690	44.8150
 1.1700	44.7880
 1.1710	44.7600
 1.1720	44.7350
 1.1730	44.7100
 1.1740	44.6880
 1.1750	44.6660
 1.1760	44.6420
 1.1770	44.6160
 1.1780	44.5900
 1.1790	44.5600
 1.1800	44.5310
 1.1810	44.5020
 1.1820	44.4730
 1.1830	44.4450
 1.1840	44.4170
 1.1850	44.3900
 1.1860	44.3650
 1.1870	44.3400
 1.1880	44.3140
 1.1890	44.2870
 1.1900	44.2640
 1.1910	44.2400
 1.1920	44.2210
 1.1930	44.2050
 1.1940	44.1920
 1.1950	44.1800
 1.1960	44.1730
 1.1970	44.1720
 1.1980	44.1710
 1.1990	44.1720
 1.2000	44.1760
 1.2010	44.1830
 1.2020	44.1940
 1.2030	44.2080
 1.2040	44.2270
 1.2050	44.2490
 1.2060	44.2740
 1.2070	44.3050
 1.2080	44.3380
 1.2090	44.3710
 1.2100	44.4080
 1.2110	44.4470
 1.2120	44.4880
 1.2130	44.5330
 1.2140	44.5830
 1.2150	44.6330
 1.2160	44.6850
 1.2170	44.7400
 1.2180	44.7970
 1.2190	44.8530
 1.2200	44.9110
 1.2210	44.9700
 1.2220	45.0260
 1.2230	45.0820
 1.2240	45.1400
 1.2250	45.1950
 1.2260	45.2500
 1.2270	45.3070
 1.2280	45.3620
 1.2290	45.4140
 1.2300	45.4650
 1.2310	45.5120
 1.2320	45.5590
 1.2330	45.6060
 1.2340	45.6520
 1.2350	45.6980
 1.2360	45.7410
 1.2370	45.7810
 1.2380	45.8210
 1.2390	45.8590
 1.2400	45.8950
 1.2410	45.9340
 1.2420	45.9680
 1.2430	46.0010
 1.2440	46.0370
 1.2450	46.0680
 1.2460	46.0970
 1.2470	46.1280
 1.2480	46.1560
 1.2490	46.1850
 1.2500	46.2140
 1.2510	46.2400
 1.2520	46.2650
 1.2530	46.2880
 1.2540	46.3060
 1.2550	46.3230
 1.2560	46.3380
 1.2570	46.3520
 1.2580	46.3660
 1.2590	46.3790
 1.2600	46.3920
 1.2610	46.4030
 1.2620	46.4130
 1.2630	46.4190
 1.2640	46.4230
 1.2650	46.4280
 1.2660	46.4290
 1.2670	46.4300
 1.2680	46.4300
 1.2690	46.4250
 1.2700	46.4180
 1.2710	46.4100
 1.2720	46.4010
 1.2730	46.3930
 1.2740	46.3810
 1.2750	46.3670
 1.2760	46.3510
 1.2770	46.3310
 1.2780	46.3090
 1.2790	46.2870
 1.2800	46.2630
 1.2810	46.2370
 1.2820	46.2070
 1.2830	46.1740
 1.2840	46.1390
 1.2850	46.1010
 1.2860	46.0620
 1.2870	46.0200
 1.2880	45.9760
 1.2890	45.9280
 1.2900	45.8790
 1.2910	45.8250
 1.2920	45.7680
 1.2930	45.7100
 1.2940	45.6450
 1.2950	45.5790
 1.2960	45.5100
 1.2970	45.4350
 1.2980	45.3560
 1.2990	45.2740
 1.3000	45.1890
 1.3010	45.1020
 1.3020	45.0070
 1.3030	44.9050
 1.3040	44.7970
 1.3050	44.6840
 1.3060	44.5690
 1.3070	44.4520
 1.3080	44.3310
 1.3090	44.2040
 1.3100	44.0720
 1.3110	43.9330
 1.3120	43.7900
 1.3130	43.6420
 1.3140	43.4880
 1.3150	43.3270
 1.3160	43.1610
 1.3170	42.9910
 1.3180	42.8160
 1.3190	42.6350
 1.3200	42.4500
 1.3210	42.2560
 1.3220	42.0590
 1.3230	41.8580
 1.3240	41.6530
 1.3250	41.4450
 1.3260	41.2310
 1.3270	41.0100
 1.3280	40.7870
 1.3290	40.5590
 1.3300	40.3320
 1.3310	40.1020
 1.3320	39.8680
 1.3330	39.6330
 1.3340	39.3980
 1.3350	39.1610
 1.3360	38.9260
 1.3370	38.6910
 1.3380	38.4560
 1.3390	38.2230
 1.3400	37.9910
 1.3410	37.7610
 1.3420	37.5340
 1.3430	37.3110
 1.3440	37.0890
 1.3450	36.8700
 1.3460	36.6530
 1.3470	36.4410
 1.3480	36.2300
 1.3490	36.0240
 1.3500	35.8220
 1.3510	35.6220
 1.3520	35.4230
 1.3530	35.2270
 1.3540	35.0300
 1.3550	34.8340
 1.3560	34.6390
 1.3570	34.4450
 1.3580	34.2540
 1.3590	34.0630
 1.3600	33.8670
 1.3610	33.6690
 1.3620	33.4640
 1.3630	33.2550
 1.3640	33.0420
 1.3650	32.8210
 1.3660	32.5950
 1.3670	32.3590
 1.3680	32.1130
 1.3690	31.8550
 1.3700	31.5840
 1.3710	31.3010
 1.3720	31.0020
 1.3730	30.6840
 1.3740	30.3510
 1.3750	30.0000
 1.3760	29.6270
 1.3770	29.2340
 1.3780	28.8140
 1.3790	28.3730
 1.3800	27.9140
 1.3810	27.4290
 1.3820	26.9300
 1.3830	26.4140
 1.3840	25.8830
 1.3850	25.3350
 1.3860	24.7810
 1.3870	24.2090
 1.3880	23.6410
 1.3890	23.0670
 1.3900	22.4890
 1.3910	21.9180
 1.3920	21.3480
 1.3930	20.7810
 1.3940	20.2240
 1.3950	19.6710
 1.3960	19.1330
 1.3970	18.6110
 1.3980	18.1050
 1.3990	17.6240
 1.4000	17.1610
 1.4010	16.7150
 1.4020	16.2930
 1.4030	15.8890
 1.4040	15.5070
 1.4050	15.1470
 1.4060	14.8080
 1.4070	14.4930
 1.4080	14.1990
 1.4090	13.9250
 1.4100	13.6730
 1.4110	13.4370
 1.4120	13.2180
 1.4130	13.0170
 1.4140	12.8300
 1.4150	12.6600
 1.4160	12.5040
 1.4170	12.3600
 1.4180	12.2300
 1.4190	12.1090
 1.4200	11.9990
 1.4210	11.8990
 1.4220	11.8070
 1.4230	11.7260
 1.4240	11.6520
 1.4250	11.5830
 1.4260	11.5230
 1.4270	11.4680
 1.4280	11.4190
 1.4290	11.3740
 1.4300	11.3360
 1.4310	11.3010
 1.4320	11.2710
 1.4330	11.2450
 1.4340	11.2240
 1.4350	11.2050
 1.4360	11.1890
 1.4370	11.1770
 1.4380	11.1660
 1.4390	11.1590
 1.4400	11.1540
 1.4410	11.1520
 1.4420	11.1510
 1.4430	11.1520
 1.4440	11.1550
 1.4450	11.1600
 1.4460	11.1660
 1.4470	11.1730
 1.4480	11.1810
 1.4490	11.1910
 1.4500	11.2020
 1.4510	11.2140
 1.4520	11.2260
 1.4530	11.2390
 1.4540	11.2520
 1.4550	11.2670
 1.4560	11.2830
 1.4570	11.3010
 1.4580	11.3190
 1.4590	11.3400
 1.4600	11.3620
 1.4610	11.3860
 1.4620	11.4130
 1.4630	11.4420
 1.4640	11.4740
 1.4650	11.5080
 1.4660	11.5460
 1.4670	11.5860
 1.4680	11.6310
 1.4690	11.6780
 1.4700	11.7270
 1.4710	11.7800
 1.4720	11.8340
 1.4730	11.8900
 1.4740	11.9510
 1.4750	12.0140
 1.4760	12.0790
 1.4770	12.1460
 1.4780	12.2150
 1.4790	12.2850
 1.4800	12.3560
 1.4810	12.4300
 1.4820	12.5050
 1.4830	12.5810
 1.4840	12.6590
 1.4850	12.7370
 1.4860	12.8160
 1.4870	12.8960
 1.4880	12.9760
 1.4890	13.0580
 1.4900	13.1400
 1.4910	13.2220
 1.4920	13.3060
 1.4930	13.3920
 1.4940	13.4770
 1.4950	13.5630
 1.4960	13.6500
 1.4970	13.7360
 1.4980	13.8230
 1.4990	13.9100
 1.5000	13.9970
 1.5010	14.0830
 1.5020	14.1710
 1.5030	14.2580
 1.5040	14.3460
 1.5050	14.4340
 1.5060	14.5220
 1.5070	14.6100
 1.5080	14.6980
 1.5090	14.7850
 1.5100	14.8720
 1.5110	14.9590
 1.5120	15.0470
 1.5130	15.1340
 1.5140	15.2210
 1.5150	15.3090
 1.5160	15.3960
 1.5170	15.4830
 1.5180	15.5710
 1.5190	15.6560
 1.5200	15.7420
 1.5210	15.8260
 1.5220	15.9100
 1.5230	15.9940
 1.5240	16.0780
 1.5250	16.1620
 1.5260	16.2440
 1.5270	16.3260
 1.5280	16.4080
 1.5290	16.4890
 1.5300	16.5690
 1.5310	16.6490
 1.5320	16.7270
 1.5330	16.8060
 1.5340	16.8840
 1.5350	16.9620
 1.5360	17.0390
 1.5370	17.1160
 1.5380	17.1920
 1.5390	17.2680
 1.5400	17.3430
 1.5410	17.4170
 1.5420	17.4910
 1.5430	17.5660
 1.5440	17.6400
 1.5450	17.7140
 1.5460	17.7860
 1.5470	17.8580
 1.5480	17.9300
 1.5490	18.0010
 1.5500	18.0720
 1.5510	18.1430
 1.5520	18.2130
 1.5530	18.2820
 1.5540	18.3510
 1.5550	18.4200
 1.5560	18.4860
 1.5570	18.5540
 1.5580	18.6200
 1.5590	18.6860
 1.5600	18.7520
 1.5610	18.8160
 1.5620	18.8800
 1.5630	18.9440
 1.5640	19.0070
 1.5650	19.0700
 1.5660	19.1330
 1.5670	19.1960
 1.5680	19.2570
 1.5690	19.3180
 1.5700	19.3770
 1.5710	19.4390
 1.5720	19.4990
 1.5730	19.5610
 1.5740	19.6220
 1.5750	19.6810
 1.5760	19.7420
 1.5770	19.8010
 1.5780	19.8610
 1.5790	19.9210
 1.5800	19.9790
 1.5810	20.0380
 1.5820	20.0950
 1.5830	20.1530
 1.5840	20.2120
 1.5850	20.2700
 1.5860	20.3280
 1.5870	20.3870
 1.5880	20.4460
 1.5890	20.5040
 1.5900	20.5610
 1.5910	20.6170
 1.5920	20.6740
 1.5930	20.7300
 1.5940	20.7860
 1.5950	20.8420
 1.5960	20.8970
 1.5970	20.9550
 1.5980	21.0120
 1.5990	21.0690
 1.6000	21.1250
 1.6010	21.1790
 1.6020	21.2330
 1.6030	21.2880
 1.6040	21.3420
 1.6050	21.3960
 1.6060	21.4480
 1.6070	21.5000
 1.6080	21.5530
 1.6090	21.6040
 1.6100	21.6540
 1.6110	21.7030
 1.6120	21.7500
 1.6130	21.7990
 1.6140	21.8470
 1.6150	21.8940
 1.6160	21.9420
 1.6170	21.9870
 1.6180	22.0320
 1.6190	22.0770
 1.6200	22.1210
 1.6210	22.1640
 1.6220	22.2060
 1.6230	22.2480
 1.6240	22.2890
 1.6250	22.3290
 1.6260	22.3680
 1.6270	22.4070
 1.6280	22.4420
 1.6290	22.4780
 1.6300	22.5120
 1.6310	22.5450
 1.6320	22.5760
 1.6330	22.6060
 1.6340	22.6350
 1.6350	22.6620
 1.6360	22.6880
 1.6370	22.7110
 1.6380	22.7320
 1.6390	22.7490
 1.6400	22.7620
 1.6410	22.7730
 1.6420	22.7800
 1.6430	22.7850
 1.6440	22.7890
 1.6450	22.7890
 1.6460	22.7840
 1.6470	22.7740
 1.6480	22.7630
 1.6490	22.7480
 1.6500	22.7300
 1.6510	22.7120
 1.6520	22.6920
 1.6530	22.6690
 1.6540	22.6440
 1.6550	22.6190
 1.6560	22.5920
 1.6570	22.5650
 1.6580	22.5420
 1.6590	22.5200
 1.6600	22.5010
 1.6610	22.4860
 1.6620	22.4740
 1.6630	22.4650
 1.6640	22.4590
 1.6650	22.4590
 1.6660	22.4630
 1.6670	22.4690
 1.6680	22.4790
 1.6690	22.4900
 1.6700	22.5040
 1.6710	22.5220
 1.6720	22.5390
 1.6730	22.5560
 1.6740	22.5740
 1.6750	22.5890
 1.6760	22.6040
 1.6770	22.6160
 1.6780	22.6250
 1.6790	22.6320
 1.6800	22.6340
 1.6810	22.6330
 1.6820	22.6280
 1.6830	22.6180
 1.6840	22.6060
 1.6850	22.5920
 1.6860	22.5740
 1.6870	22.5540
 1.6880	22.5320
 1.6890	22.5080
 1.6900	22.4820
 1.6910	22.4530
 1.6920	22.4230
 1.6930	22.3930
 1.6940	22.3600
 1.6950	22.3240
 1.6960	22.2890
 1.6970	22.2530
 1.6980	22.2150
 1.6990	22.1770
 1.7000	22.1380
 1.7010	22.0970
 1.7020	22.0540
 1.7030	22.0110
 1.7040	21.9660
 1.7050	21.9210
 1.7060	21.8750
 1.7070	21.8290
 1.7080	21.7830
 1.7090	21.7370
 1.7100	21.6900
 1.7110	21.6440
 1.7120	21.5960
 1.7130	21.5490
 1.7140	21.5010
 1.7150	21.4530
 1.7160	21.4060
 1.7170	21.3580
 1.7180	21.3110
 1.7190	21.2640
 1.7200	21.2190
 1.7210	21.1760
 1.7220	21.1320
 1.7230	21.0880
 1.7240	21.0460
 1.7250	21.0010
 1.7260	20.9570
 1.7270	20.9150
 1.7280	20.8750
 1.7290	20.8360
 1.7300	20.7990
 1.7310	20.7630
 1.7320	20.7270
 1.7330	20.6910
 1.7340	20.6600
 1.7350	20.6250
 1.7360	20.5880
 1.7370	20.5520
 1.7380	20.5150
 1.7390	20.4770
 1.7400	20.4400
 1.7410	20.4010
 1.7420	20.3590
 1.7430	20.3160
 1.7440	20.2750
 1.7450	20.2290
 1.7460	20.1810
 1.7470	20.1360
 1.7480	20.0890
 1.7490	20.0430
 1.7500	20.0010
 1.7510	19.9560
 1.7520	19.9080
 1.7530	19.8620
 1.7540	19.8140
 1.7550	19.7710
 1.7560	19.7290
 1.7570	19.6850
 1.7580	19.6450
 1.7590	19.6040
 1.7600	19.5610
 1.7610	19.5240
 1.7620	19.4860
 1.7630	19.4480
 1.7640	19.4120
 1.7650	19.3760
 1.7660	19.3420
 1.7670	19.3120
 1.7680	19.2810
 1.7690	19.2510
 1.7700	19.2210
 1.7710	19.1930
 1.7720	19.1650
 1.7730	19.1370
 1.7740	19.1100
 1.7750	19.0810
 1.7760	19.0550
 1.7770	19.0310
 1.7780	19.0080
 1.7790	18.9860
 1.7800	18.9650
 1.7810	18.9450
 1.7820	18.9280
 1.7830	18.9150
 1.7840	18.9010
 1.7850	18.8880
 1.7860	18.8760
 1.7870	18.8630
 1.7880	18.8550
 1.7890	18.8490
 1.7900	18.8480
 1.7910	18.8450
 1.7920	18.8400
 1.7930	18.8400
 1.7940	18.8400
 1.7950	18.8410
 1.7960	18.8450
 1.7970	18.8500
 1.7980	18.8530
 1.7990	18.8580
 1.8000	18.8650
 1.8010	18.8720
 1.8020	18.8780
 1.8030	18.8860
 1.8040	18.8950
 1.8050	18.9010
 1.8060	18.9070
 1.8070	18.9130
 1.8080	18.9180
 1.8090	18.9240
 1.8100	18.9320
 1.8110	18.9380
 1.8120	18.9450
 1.8130	18.9500
 1.8140	18.9540
 1.8150	18.9600
 1.8160	18.9640
 1.8170	18.9680
 1.8180	18.9740
 1.8190	18.9730
 1.8200	18.9750
 1.8210	18.9760
 1.8220	18.9770
 1.8230	18.9780
 1.8240	18.9780
 1.8250	18.9750
 1.8260	18.9720
 1.8270	18.9930
 1.8280	19.0150
 1.8290	19.0360
 1.8300	19.0580
 1.8310	19.0790
 1.8320	19.1010
 1.8330	19.1220
 1.8340	19.1440
 1.8350	19.1440
 1.8360	19.1170
 1.8370	19.0860
 1.8380	19.0560
 1.8390	19.0210
 1.8400	18.9840
 1.8410	18.9430
 1.8420	18.9000
 1.8430	18.8490
 1.8440	18.7910
 1.8450	18.7270
 1.8460	18.6570
 1.8470	18.5830
 1.8480	18.5040
 1.8490	18.4160
 1.8500	18.3190
 1.8510	18.2140
 1.8520	18.1000
 1.8530	17.9740
 1.8540	17.8430
 1.8550	17.7030
 1.8560	17.5500
 1.8570	17.3910
 1.8580	17.2210
 1.8590	17.0420
 1.8600	16.8520
 1.8610	16.6570
 1.8620	16.4480
 1.8630	16.2310
 1.8640	16.0020
 1.8650	15.7570
 1.8660	15.5060
 1.8670	15.2420
 1.8680	14.9670
 1.8690	14.6850
 1.8700	14.3930
 1.8710	14.0910
 1.8720	13.7830
 1.8730	13.4720
 1.8740	13.1550
 1.8750	12.8400
 1.8760	12.5270
 1.8770	12.2160
 1.8780	11.9130
 1.8790	11.6110
 1.8800	11.3170
 1.8810	11.0310
 1.8820	10.7490
 1.8830	10.4730
 1.8840	10.2090
 1.8850	 9.9540
 1.8860	 9.7100
 1.8870	 9.4780
 1.8880	 9.2570
 1.8890	 9.0490
 1.8900	 8.8530
 1.8910	 8.6720
 1.8920	 8.5040
 1.8930	 8.3510
 1.8940	 8.2110
 1.8950	 8.0840
 1.8960	 7.9700
 1.8970	 7.8670
 1.8980	 7.7770
 1.8990	 7.6970
 1.9000	 7.6210
 1.9010	 7.5540
 1.9020	 7.4940
 1.9030	 7.4410
 1.9040	 7.3960
 1.9050	 7.3580
 1.9060	 7.3250
 1.9070	 7.2970
 1.9080	 7.2720
 1.9090	 7.2490
 1.9100	 7.2300
 1.9110	 7.2140
 1.9120	 7.2000
 1.9130	 7.1870
 1.9140	 7.1750
 1.9150	 7.1670
 1.9160	 7.1600
 1.9170	 7.1520
 1.9180	 7.1460
 1.9190	 7.1410
 1.9200	 7.1370
 1.9210	 7.1340
 1.9220	 7.1320
 1.9230	 7.1330
 1.9240	 7.1330
 1.9250	 7.1330
 1.9260	 7.1340
 1.9270	 7.1330
 1.9280	 7.1320
 1.9290	 7.1320
 1.9300	 7.1320
 1.9310	 7.1330
 1.9320	 7.1360
 1.9330	 7.1370
 1.9340	 7.1380
 1.9350	 7.1410
 1.9360	 7.1450
 1.9370	 7.1490
 1.9380	 7.1560
 1.9390	 7.1610
 1.9400	 7.1650
 1.9410	 7.1690
 1.9420	 7.1740
 1.9430	 7.1800
 1.9440	 7.1860
 1.9450	 7.1940
 1.9460	 7.2020
 1.9470	 7.2100
 1.9480	 7.2190
 1.9490	 7.2280
 1.9500	 7.2370
 1.9510	 7.2480
 1.9520	 7.2550
 1.9530	 7.2630
 1.9540	 7.2710
 1.9550	 7.2800
 1.9560	 7.2900
 1.9570	 7.2990
 1.9580	 7.3090
 1.9590	 7.3210
 1.9600	 7.3350
 1.9610	 7.3470
 1.9620	 7.3590
 1.9630	 7.3730
 1.9640	 7.3860
 1.9650	 7.4000
 1.9660	 7.4160
 1.9670	 7.4330
 1.9680	 7.4480
 1.9690	 7.4600
 1.9700	 7.4750
 1.9710	 7.4900
 1.9720	 7.5070
 1.9730	 7.5260
 1.9740	 7.5470
 1.9750	 7.5660
 1.9760	 7.5860
 1.9770	 7.6040
 1.9780	 7.6210
 1.9790	 7.6390
 1.9800	 7.6570
 1.9810	 7.6770
 1.9820	 7.6990
 1.9830	 7.7190
 1.9840	 7.7400
 1.9850	 7.7620
 1.9860	 7.7850
 1.9870	 7.8070
 1.9880	 7.8310
 1.9890	 7.8550
 1.9900	 7.8780
 1.9910	 7.9020
 1.9920	 7.9260
 1.9930	 7.9530
 1.9940	 7.9780
 1.9950	 8.0030
 1.9960	 8.0280
 1.9970	 8.0540
 1.9980	 8.0780
 1.9990	 8.1030
 2.0000	 8.1280
 2.0010	 8.1510
 2.0020	 8.1770
 2.0030	 8.2050
 2.0040	 8.2320
 2.0050	 8.2580
 2.0060	 8.2870
 2.0070	 8.3130
 2.0080	 8.3330
 2.0090	 8.3590
 2.0100	 8.3870
 2.0110	 8.4130
 2.0120	 8.4410
 2.0130	 8.4710
 2.0140	 8.4950
 2.0150	 8.5200
 2.0160	 8.5480
 2.0170	 8.5740
 2.0180	 8.6000
 2.0190	 8.6280
 2.0200	 8.6530
 2.0210	 8.6750
 2.0220	 8.6980
 2.0230	 8.7210
 2.0240	 8.7440
 2.0250	 8.7670
 2.0260	 8.7890
 2.0270	 8.8100
 2.0280	 8.8290
 2.0290	 8.8480
 2.0300	 8.8650
 2.0310	 8.8840
 2.0320	 8.9030
 2.0330	 8.9230
 2.0340	 8.9460
 2.0350	 8.9660
 2.0360	 8.9880
 2.0370	 9.0070
 2.0380	 9.0240
 2.0390	 9.0400
 2.0400	 9.0540
 2.0410	 9.0680
 2.0420	 9.0810
 2.0430	 9.0940
 2.0440	 9.1090
 2.0450	 9.1250
 2.0460	 9.1400
 2.0470	 9.1560
 2.0480	 9.1700
 2.0490	 9.1820
 2.0500	 9.1960
 2.0510	 9.2080
 2.0520	 9.2220
 2.0530	 9.2390
 2.0540	 9.2530
 2.0550	 9.2650
 2.0560	 9.2800
 2.0570	 9.2950
 2.0580	 9.3070
 2.0590	 9.3190
 2.0600	 9.3300
 2.0610	 9.3420
 2.0620	 9.3530
 2.0630	 9.3660
 2.0640	 9.3830
 2.0650	 9.3970
 2.0660	 9.4070
 2.0670	 9.4190
 2.0680	 9.4280
 2.0690	 9.4400
 2.0700	 9.4540
 2.0710	 9.4660
 2.0720	 9.4760
 2.0730	 9.4910
 2.0740	 9.5030
 2.0750	 9.5130
 2.0760	 9.5250
 2.0770	 9.5390
 2.0780	 9.5510
 2.0790	 9.5650
 2.0800	 9.5760
 2.0810	 9.5830
 2.0820	 9.5950
 2.0830	 9.6060
 2.0840	 9.6180
 2.0850	 9.6310
 2.0860	 9.6440
 2.0870	 9.6540
 2.0880	 9.6660
 2.0890	 9.6780
 2.0900	 9.6940
 2.0910	 9.7060
 2.0920	 9.7180
 2.0930	 9.7280
 2.0940	 9.7350
 2.0950	 9.7450
 2.0960	 9.7570
 2.0970	 9.7680
 2.0980	 9.7800
 2.0990	 9.7910
 2.1000	 9.8000
 2.1010	 9.8110
 2.1020	 9.8250
 2.1030	 9.8370
 2.1040	 9.8480
 2.1050	 9.8620
 2.1060	 9.8730
 2.1070	 9.8810
 2.1080	 9.8930
 2.1090	 9.9040
 2.1100	 9.9160
 2.1110	 9.9310
 2.1120	 9.9420
 2.1130	 9.9530
 2.1140	 9.9630
 2.1150	 9.9700
 2.1160	 9.9800
 2.1170	 9.9910
 2.1180	10.0010
 2.1190	10.0130
 2.1200	10.0240
 2.1210	10.0330
 2.1220	10.0420
 2.1230	10.0510
 2.1240	10.0570
 2.1250	10.0680
 2.1260	10.0800
 2.1270	10.0920
 2.1280	10.1060
 2.1290	10.1180
 2.1300	10.1290
 2.1310	10.1400
 2.1320	10.1500
 2.1330	10.1600
 2.1340	10.1660
 2.1350	10.1760
 2.1360	10.1880
 2.1370	10.2000
 2.1380	10.2150
 2.1390	10.2290
 2.1400	10.2420
 2.1410	10.2550
 2.1420	10.2670
 2.1430	10.2800
 2.1440	10.2920
 2.1450	10.3030
 2.1460	10.3160
 2.1470	10.3300
 2.1480	10.3440
 2.1490	10.3580
 2.1500	10.3740
 2.1510	10.3900
 2.1520	10.4060
 2.1530	10.4230
 2.1540	10.4390
 2.1550	10.4540
 2.1560	10.4700
 2.1570	10.4880
 2.1580	10.5050
 2.1590	10.5240
 2.1600	10.5410
 2.1610	10.5560
 2.1620	10.5700
 2.1630	10.5860
 2.1640	10.6000
 2.1650	10.6150
 2.1660	10.6310
 2.1670	10.6470
 2.1680	10.6620
 2.1690	10.6760
 2.1700	10.6920
 2.1710	10.7070
 2.1720	10.7200
 2.1730	10.7350
 2.1740	10.7500
 2.1750	10.7660
 2.1760	10.7820
 2.1770	10.7960
 2.1780	10.8090
 2.1790	10.8220
 2.1800	10.8300
 2.1810	10.8420
 2.1820	10.8550
 2.1830	10.8700
 2.1840	10.8850
 2.1850	10.9020
 2.1860	10.9190
 2.1870	10.9350
 2.1880	10.9520
 2.1890	10.9700
 2.1900	10.9860
 2.1910	11.0010
 2.1920	11.0190
 2.1930	11.0390
 2.1940	11.0580
 2.1950	11.0810
 2.1960	11.1000
 2.1970	11.1170
 2.1980	11.1360
 2.1990	11.1550
 2.2000	11.1730
 2.2010	11.1920
 2.2020	11.2090
 2.2030	11.2260
 2.2040	11.2400
 2.2050	11.2530
 2.2060	11.2630
 2.2070	11.2730
 2.2080	11.2790
 2.2090	11.2910
 2.2100	11.3080
 2.2110	11.3210
 2.2120	11.3360
 2.2130	11.3470
 2.2140	11.3540
 2.2150	11.3620
 2.2160	11.3680
 2.2170	11.3770
 2.2180	11.3870
 2.2190	11.3940
 2.2200	11.4020
 2.2210	11.4070
 2.2220	11.4080
 2.2230	11.4090
 2.2240	11.4120
 2.2250	11.4130
 2.2260	11.4150
 2.2270	11.4110
 2.2280	11.4040
 2.2290	11.3960
 2.2300	11.3820
 2.2310	11.3670
 2.2320	11.3540
 2.2330	11.3400
 2.2340	11.3290
 2.2350	11.3220
 2.2360	11.3070
 2.2370	11.2910
 2.2380	11.2710
 2.2390	11.2420
 2.2400	11.2210
 2.2410	11.2020
 2.2420	11.1800
 2.2430	11.1600
 2.2440	11.1340
 2.2450	11.1030
 2.2460	11.0710
 2.2470	11.0330
 2.2480	11.0000
 2.2490	10.9670
 2.2500	10.9350
 2.2510	10.9060
 2.2520	10.8750
 2.2530	10.8440
 2.2540	10.8100
 2.2550	10.7720
 2.2560	10.7370
 2.2570	10.7020
 2.2580	10.6670
 2.2590	10.6350
 2.2600	10.6020
 2.2610	10.5670
 2.2620	10.5350
 2.2630	10.5020
 2.2640	10.4710
 2.2650	10.4400
 2.2660	10.4090
 2.2670	10.3790
 2.2680	10.3490
 2.2690	10.3200
 2.2700	10.2900
 2.2710	10.2630
 2.2720	10.2390
 2.2730	10.2140
 2.2740	10.1890
 2.2750	10.1650
 2.2760	10.1380
 2.2770	10.1150
 2.2780	10.0950
 2.2790	10.0740
 2.2800	10.0570
 2.2810	10.0380
 2.2820	10.0200
 2.2830	10.0000
 2.2840	 9.9790
 2.2850	 9.9580
 2.2860	 9.9370
 2.2870	 9.9170
 2.2880	 9.8980
 2.2890	 9.8790
 2.2900	 9.8590
 2.2910	 9.8400
 2.2920	 9.8240
 2.2930	 9.8030
 2.2940	 9.7800
 2.2950	 9.7580
 2.2960	 9.7290
 2.2970	 9.7050
 2.2980	 9.6850
 2.2990	 9.6640
 2.3000	 9.6450
 2.3010	 9.6290
 2.3020	 9.6110
 2.3030	 9.5930
 2.3040	 9.5730
 2.3050	 9.5510
 2.3060	 9.5310
 2.3070	 9.5120
 2.3080	 9.4940
 2.3090	 9.4820
 2.3100	 9.4750
 2.3110	 9.4660
 2.3120	 9.4570
 2.3130	 9.4490
 2.3140	 9.4370
 2.3150	 9.4220
 2.3160	 9.4100
 2.3170	 9.3950
 2.3180	 9.3820
 2.3190	 9.3700
 2.3200	 9.3600
 2.3210	 9.3530
 2.3220	 9.3420
 2.3230	 9.3330
 2.3240	 9.3190
 2.3250	 9.3000
 2.3260	 9.2850
 2.3270	 9.2690
 2.3280	 9.2510
 2.3290	 9.2320
 2.3300	 9.2160
 2.3310	 9.2010
 2.3320	 9.1850
 2.3330	 9.1720
 2.3340	 9.1590
 2.3350	 9.1450
 2.3360	 9.1290
 2.3370	 9.1130
 2.3380	 9.0970
 2.3390	 9.0760
 2.3400	 9.0620
 2.3410	 9.0560
 2.3420	 9.0430
 2.3430	 9.0240
 2.3440	 9.0110
 2.3450	 8.9980
 2.3460	 8.9890
 2.3470	 8.9910
 2.3480	 8.9850
 2.3490	 8.9780
 2.3500	 8.9670
 2.3510	 8.9500
 2.3520	 8.9380
 2.3530	 8.9270
 2.3540	 8.9160
 2.3550	 8.9070
 2.3560	 8.8980
 2.3570	 8.8890
 2.3580	 8.8770
 2.3590	 8.8710
 2.3600	 8.8670
 2.3610	 8.8630
 2.3620	 8.8530
 2.3630	 8.8320
 2.3640	 8.8130
 2.3650	 8.8000
 2.3660	 8.7870
 2.3670	 8.7790
 2.3680	 8.7680
 2.3690	 8.7500
 2.3700	 8.7380
 2.3710	 8.7340
 2.3720	 8.7220
 2.3730	 8.7060
 2.3740	 8.6870
 2.3750	 8.6620
 2.3760	 8.6420
 2.3770	 8.6340
 2.3780	 8.6290
 2.3790	 8.6280
 2.3800	 8.6240
 2.3810	 8.6100
 2.3820	 8.5930
 2.3830	 8.5780
 2.3840	 8.5670
 2.3850	 8.5650
 2.3860	 8.5620
 2.3870	 8.5500
 2.3880	 8.5380
 2.3890	 8.5180
 2.3900	 8.4940
 2.3910	 8.4680
 2.3920	 8.4410
 2.3930	 8.4210
 2.3940	 8.4090
 2.3950	 8.4050
 2.3960	 8.4030
 2.3970	 8.3890
 2.3980	 8.3730
 2.3990	 8.3600
 2.4000	 8.3360
 2.4010	 8.3190
 2.4020	 8.3130
 2.4030	 8.2910
 2.4040	 8.2740
 2.4050	 8.2660
 2.4060	 8.2520
 2.4070	 8.2470
 2.4080	 8.2440
 2.4090	 8.2220
 2.4100	 8.2090
 2.4110	 8.2030
 2.4120	 8.1840
 2.4130	 8.1700
 2.4140	 8.1550
 2.4150	 8.1300
 2.4160	 8.1070
 2.4170	 8.0970
 2.4180	 8.0870
 2.4190	 8.0700
 2.4200	 8.0610
 2.4210	 8.0510
 2.4220	 8.0300
 2.4230	 8.0230
 2.4240	 8.0060
 2.4250	 7.9790
 2.4260	 7.9630
 2.4270	 7.9410
 2.4280	 7.9190
 2.4290	 7.9190
 2.4300	 7.9100
 2.4310	 7.8880
 2.4320	 7.8760
 2.4330	 7.8550
 2.4340	 7.8360
 2.4350	 7.8440
 2.4360	 7.8500
 2.4370	 7.8430
 2.4380	 7.8350
 2.4390	 7.8200
 2.4400	 7.7990
 2.4410	 7.7950
 2.4420	 7.7960
 2.4430	 7.7830
 2.4440	 7.7690
 2.4450	 7.7540
 2.4460	 7.7340
 2.4470	 7.7110
 2.4480	 7.6880
 2.4490	 7.6840
 2.4500	 7.6830
 2.4510	 7.6710
 2.4520	 7.6710
 2.4530	 7.6560
 2.4540	 7.6250
 2.4550	 7.6140
 2.4560	 7.6130
 2.4570	 7.6050
 2.4580	 7.5970
 2.4590	 7.5950
 2.4600	 7.5800
 2.4610	 7.5600
 2.4620	 7.5570
 2.4630	 7.5660
 2.4640	 7.5860
 2.4650	 7.5970
 2.4660	 7.5870
 2.4670	 7.5470
 2.4680	 7.5130
 2.4690	 7.5040
 2.4700	 7.4960
 2.4710	 7.5160
 2.4720	 7.5190
 2.4730	 7.5140
 2.4740	 7.5030
 2.4750	 7.4840
 2.4760	 7.4750
 2.4770	 7.4560
 2.4780	 7.4510
 2.4790	 7.4640
 2.4800	 7.4600
 2.4810	 7.4540
 2.4820	 7.4430
 2.4830	 7.4390
 2.4840	 7.4350
 2.4850	 7.4290
 2.4860	 7.4400
 2.4870	 7.4380
 2.4880	 7.4630
 2.4890	 7.5010
 2.4900	 7.4820
 2.4910	 7.4790
 2.4920	 7.4770
 2.4930	 7.4560
 2.4940	 7.4500
 2.4950	 7.4190
 2.4960	 7.4240
 2.4970	 7.4760
 2.4980	 7.5010
 2.4990	 7.5290
 2.5000	 7.5260
