Name: Ceanothus megacarpus 2
Type: vegetation
Class: Shrub
Genus: Ceanothus
Species: megacarpus
Sample No.: VH214
Owner: UCSB
Wavelength Range: VSWIR
Origin: 34.4909; -119.7914; WGS84
Collection Date: 10/13/2013
Description: Samples were collected as part of the HyspIRI Airborne Campaign. 48 individual plants were sampled in three times in 2013 - spring  summer  and fall. The name of the sample includes a 1  2  or 3 which references a different individual of the species. Samples were taken to JPL and processed within 48 hours of collection. The same leaves were processed in the Nicolet and then measured using the ASD.
Measurement: Bidirectional reflectance
First Column: X
Second Column: Y
X Units: Wavelength (micrometers)
Y Units: Reflectance (percentage)
First X Value: 0.35
Last X Value: 2.5
Number of X Values: 2151
Additional Information: vegetation.shrub.ceanothus.megacarpus.vswir.vh214.ucsb.asd.ancillary.txt

 0.3500	 6.3690
 0.3510	 6.2930
 0.3520	 6.0820
 0.3530	 5.9240
 0.3540	 5.9270
 0.3550	 5.8520
 0.3560	 5.8250
 0.3570	 5.8720
 0.3580	 5.9510
 0.3590	 5.9370
 0.3600	 5.8830
 0.3610	 5.8260
 0.3620	 5.7480
 0.3630	 5.7550
 0.3640	 5.8240
 0.3650	 5.8820
 0.3660	 5.8520
 0.3670	 5.7120
 0.3680	 5.5980
 0.3690	 5.7070
 0.3700	 5.7220
 0.3710	 5.6850
 0.3720	 5.6700
 0.3730	 5.7170
 0.3740	 5.7780
 0.3750	 5.7840
 0.3760	 5.7010
 0.3770	 5.6650
 0.3780	 5.7030
 0.3790	 5.7680
 0.3800	 5.7620
 0.3810	 5.7450
 0.3820	 5.7550
 0.3830	 5.7740
 0.3840	 5.6740
 0.3850	 5.5280
 0.3860	 5.5000
 0.3870	 5.7020
 0.3880	 5.7780
 0.3890	 5.7570
 0.3900	 5.7040
 0.3910	 5.6880
 0.3920	 5.6150
 0.3930	 5.5920
 0.3940	 5.6800
 0.3950	 5.7170
 0.3960	 5.7170
 0.3970	 5.6720
 0.3980	 5.5930
 0.3990	 5.6190
 0.4000	 5.6920
 0.4010	 5.7230
 0.4020	 5.6130
 0.4030	 5.5980
 0.4040	 5.6470
 0.4050	 5.6770
 0.4060	 5.6930
 0.4070	 5.6460
 0.4080	 5.5990
 0.4090	 5.6680
 0.4100	 5.7020
 0.4110	 5.7180
 0.4120	 5.7270
 0.4130	 5.6940
 0.4140	 5.6640
 0.4150	 5.6810
 0.4160	 5.7540
 0.4170	 5.7490
 0.4180	 5.7270
 0.4190	 5.7360
 0.4200	 5.7970
 0.4210	 5.8360
 0.4220	 5.8460
 0.4230	 5.8460
 0.4240	 5.8810
 0.4250	 5.9120
 0.4260	 5.9360
 0.4270	 5.9620
 0.4280	 5.9890
 0.4290	 6.0110
 0.4300	 6.0340
 0.4310	 6.0710
 0.4320	 6.0920
 0.4330	 6.1210
 0.4340	 6.1700
 0.4350	 6.1590
 0.4360	 6.1830
 0.4370	 6.2370
 0.4380	 6.2470
 0.4390	 6.2430
 0.4400	 6.2590
 0.4410	 6.3080
 0.4420	 6.3480
 0.4430	 6.3640
 0.4440	 6.3650
 0.4450	 6.3690
 0.4460	 6.3990
 0.4470	 6.4260
 0.4480	 6.4330
 0.4490	 6.4200
 0.4500	 6.4330
 0.4510	 6.4590
 0.4520	 6.4810
 0.4530	 6.4980
 0.4540	 6.5220
 0.4550	 6.5470
 0.4560	 6.5540
 0.4570	 6.5620
 0.4580	 6.5580
 0.4590	 6.5470
 0.4600	 6.5640
 0.4610	 6.5960
 0.4620	 6.6150
 0.4630	 6.6040
 0.4640	 6.6190
 0.4650	 6.6310
 0.4660	 6.6300
 0.4670	 6.6250
 0.4680	 6.6460
 0.4690	 6.6610
 0.4700	 6.6520
 0.4710	 6.6800
 0.4720	 6.6980
 0.4730	 6.6990
 0.4740	 6.6990
 0.4750	 6.6970
 0.4760	 6.6970
 0.4770	 6.7050
 0.4780	 6.7280
 0.4790	 6.7320
 0.4800	 6.7240
 0.4810	 6.7250
 0.4820	 6.7360
 0.4830	 6.7440
 0.4840	 6.7450
 0.4850	 6.7470
 0.4860	 6.7580
 0.4870	 6.7700
 0.4880	 6.7770
 0.4890	 6.7760
 0.4900	 6.8020
 0.4910	 6.8350
 0.4920	 6.8440
 0.4930	 6.8790
 0.4940	 6.9140
 0.4950	 6.9390
 0.4960	 6.9750
 0.4970	 7.0130
 0.4980	 7.0540
 0.4990	 7.0990
 0.5000	 7.1340
 0.5010	 7.1740
 0.5020	 7.2260
 0.5030	 7.2900
 0.5040	 7.3440
 0.5050	 7.4130
 0.5060	 7.5070
 0.5070	 7.5910
 0.5080	 7.6770
 0.5090	 7.7690
 0.5100	 7.8650
 0.5110	 7.9750
 0.5120	 8.1010
 0.5130	 8.2370
 0.5140	 8.3700
 0.5150	 8.5220
 0.5160	 8.6840
 0.5170	 8.8470
 0.5180	 9.0190
 0.5190	 9.1990
 0.5200	 9.3880
 0.5210	 9.5850
 0.5220	 9.7830
 0.5230	 9.9910
 0.5240	10.2070
 0.5250	10.4050
 0.5260	10.6060
 0.5270	10.8130
 0.5280	11.0200
 0.5290	11.2230
 0.5300	11.4210
 0.5310	11.6150
 0.5320	11.8010
 0.5330	11.9810
 0.5340	12.1580
 0.5350	12.3310
 0.5360	12.4920
 0.5370	12.6490
 0.5380	12.8020
 0.5390	12.9460
 0.5400	13.0790
 0.5410	13.2070
 0.5420	13.3330
 0.5430	13.4480
 0.5440	13.5670
 0.5450	13.6890
 0.5460	13.8010
 0.5470	13.9210
 0.5480	14.0350
 0.5490	14.1330
 0.5500	14.2200
 0.5510	14.2880
 0.5520	14.3460
 0.5530	14.4040
 0.5540	14.4450
 0.5550	14.4700
 0.5560	14.4840
 0.5570	14.4890
 0.5580	14.4850
 0.5590	14.4660
 0.5600	14.4330
 0.5610	14.3950
 0.5620	14.3430
 0.5630	14.2800
 0.5640	14.2150
 0.5650	14.1470
 0.5660	14.0720
 0.5670	13.9910
 0.5680	13.9090
 0.5690	13.8260
 0.5700	13.7380
 0.5710	13.6440
 0.5720	13.5410
 0.5730	13.4480
 0.5740	13.3700
 0.5750	13.2970
 0.5760	13.2200
 0.5770	13.1500
 0.5780	13.0920
 0.5790	13.0230
 0.5800	12.9650
 0.5810	12.9110
 0.5820	12.8500
 0.5830	12.7940
 0.5840	12.7350
 0.5850	12.6750
 0.5860	12.6260
 0.5870	12.5800
 0.5880	12.5330
 0.5890	12.4850
 0.5900	12.4470
 0.5910	12.4140
 0.5920	12.3840
 0.5930	12.3540
 0.5940	12.3310
 0.5950	12.3160
 0.5960	12.3060
 0.5970	12.2810
 0.5980	12.2530
 0.5990	12.2220
 0.6000	12.1890
 0.6010	12.1550
 0.6020	12.1190
 0.6030	12.0800
 0.6040	12.0390
 0.6050	11.9930
 0.6060	11.9420
 0.6070	11.8860
 0.6080	11.8280
 0.6090	11.7610
 0.6100	11.6840
 0.6110	11.6050
 0.6120	11.5430
 0.6130	11.4920
 0.6140	11.4430
 0.6150	11.3810
 0.6160	11.3220
 0.6170	11.2700
 0.6180	11.2220
 0.6190	11.1770
 0.6200	11.1310
 0.6210	11.0890
 0.6220	11.0630
 0.6230	11.0400
 0.6240	11.0210
 0.6250	11.0070
 0.6260	10.9980
 0.6270	10.9920
 0.6280	10.9890
 0.6290	10.9900
 0.6300	10.9850
 0.6310	10.9800
 0.6320	10.9750
 0.6330	10.9630
 0.6340	10.9370
 0.6350	10.8960
 0.6360	10.8420
 0.6370	10.7720
 0.6380	10.6860
 0.6390	10.5820
 0.6400	10.4580
 0.6410	10.3320
 0.6420	10.2040
 0.6430	10.0720
 0.6440	 9.9340
 0.6450	 9.8010
 0.6460	 9.6730
 0.6470	 9.5520
 0.6480	 9.4460
 0.6490	 9.3570
 0.6500	 9.2800
 0.6510	 9.2040
 0.6520	 9.1490
 0.6530	 9.1010
 0.6540	 9.0480
 0.6550	 8.9970
 0.6560	 8.9390
 0.6570	 8.8780
 0.6580	 8.8160
 0.6590	 8.7400
 0.6600	 8.6550
 0.6610	 8.5690
 0.6620	 8.4840
 0.6630	 8.3980
 0.6640	 8.3170
 0.6650	 8.2440
 0.6660	 8.1660
 0.6670	 8.1040
 0.6680	 8.0570
 0.6690	 8.0140
 0.6700	 7.9770
 0.6710	 7.9490
 0.6720	 7.9320
 0.6730	 7.9230
 0.6740	 7.9190
 0.6750	 7.9220
 0.6760	 7.9310
 0.6770	 7.9410
 0.6780	 7.9650
 0.6790	 8.0030
 0.6800	 8.0470
 0.6810	 8.1050
 0.6820	 8.1830
 0.6830	 8.2840
 0.6840	 8.4140
 0.6850	 8.5860
 0.6860	 8.8020
 0.6870	 9.0640
 0.6880	 9.3850
 0.6890	 9.7770
 0.6900	10.2440
 0.6910	10.7910
 0.6920	11.4200
 0.6930	12.1340
 0.6940	12.9330
 0.6950	13.8130
 0.6960	14.7730
 0.6970	15.8010
 0.6980	16.8850
 0.6990	18.0390
 0.7000	19.2290
 0.7010	20.4410
 0.7020	21.6780
 0.7030	22.9440
 0.7040	24.2040
 0.7050	25.4340
 0.7060	26.6620
 0.7070	27.8660
 0.7080	29.0380
 0.7090	30.1780
 0.7100	31.2900
 0.7110	32.3590
 0.7120	33.3820
 0.7130	34.3730
 0.7140	35.3300
 0.7150	36.2450
 0.7160	37.1120
 0.7170	37.9310
 0.7180	38.7200
 0.7190	39.4780
 0.7200	40.2000
 0.7210	40.8850
 0.7220	41.5300
 0.7230	42.1410
 0.7240	42.7310
 0.7250	43.2840
 0.7260	43.8000
 0.7270	44.2810
 0.7280	44.7420
 0.7290	45.1810
 0.7300	45.5880
 0.7310	45.9570
 0.7320	46.3180
 0.7330	46.6520
 0.7340	46.9620
 0.7350	47.2700
 0.7360	47.5500
 0.7370	47.8040
 0.7380	48.0400
 0.7390	48.2620
 0.7400	48.4870
 0.7410	48.7060
 0.7420	48.8990
 0.7430	49.0790
 0.7440	49.2450
 0.7450	49.4000
 0.7460	49.5470
 0.7470	49.6780
 0.7480	49.8110
 0.7490	49.9460
 0.7500	50.0430
 0.7510	50.1400
 0.7520	50.2380
 0.7530	50.3280
 0.7540	50.4240
 0.7550	50.4970
 0.7560	50.5520
 0.7570	50.6230
 0.7580	50.6700
 0.7590	50.7260
 0.7600	50.8020
 0.7610	50.8490
 0.7620	50.8820
 0.7630	50.9150
 0.7640	50.9560
 0.7650	50.9980
 0.7660	51.0320
 0.7670	51.0600
 0.7680	51.0910
 0.7690	51.1210
 0.7700	51.1440
 0.7710	51.1650
 0.7720	51.1990
 0.7730	51.2260
 0.7740	51.2490
 0.7750	51.2730
 0.7760	51.2790
 0.7770	51.2910
 0.7780	51.3210
 0.7790	51.3630
 0.7800	51.3640
 0.7810	51.3740
 0.7820	51.4060
 0.7830	51.4280
 0.7840	51.4390
 0.7850	51.4560
 0.7860	51.4830
 0.7870	51.5030
 0.7880	51.5110
 0.7890	51.5220
 0.7900	51.5440
 0.7910	51.5530
 0.7920	51.5790
 0.7930	51.6090
 0.7940	51.6120
 0.7950	51.6270
 0.7960	51.6420
 0.7970	51.6510
 0.7980	51.6630
 0.7990	51.6880
 0.8000	51.7170
 0.8010	51.7420
 0.8020	51.7700
 0.8030	51.7850
 0.8040	51.7890
 0.8050	51.7930
 0.8060	51.8180
 0.8070	51.8300
 0.8080	51.8320
 0.8090	51.8560
 0.8100	51.8820
 0.8110	51.8980
 0.8120	51.9050
 0.8130	51.9140
 0.8140	51.9300
 0.8150	51.9490
 0.8160	51.9650
 0.8170	51.9780
 0.8180	52.0020
 0.8190	52.0340
 0.8200	52.0580
 0.8210	52.0420
 0.8220	52.0450
 0.8230	52.0730
 0.8240	52.0810
 0.8250	52.1080
 0.8260	52.1240
 0.8270	52.1240
 0.8280	52.1630
 0.8290	52.1680
 0.8300	52.1610
 0.8310	52.1690
 0.8320	52.1630
 0.8330	52.1770
 0.8340	52.1990
 0.8350	52.2020
 0.8360	52.2070
 0.8370	52.2220
 0.8380	52.2400
 0.8390	52.2400
 0.8400	52.2540
 0.8410	52.2690
 0.8420	52.2790
 0.8430	52.2830
 0.8440	52.2930
 0.8450	52.3130
 0.8460	52.3430
 0.8470	52.3690
 0.8480	52.3720
 0.8490	52.3640
 0.8500	52.3670
 0.8510	52.4010
 0.8520	52.4160
 0.8530	52.4120
 0.8540	52.4180
 0.8550	52.4300
 0.8560	52.4470
 0.8570	52.4650
 0.8580	52.4770
 0.8590	52.4590
 0.8600	52.4580
 0.8610	52.4830
 0.8620	52.4800
 0.8630	52.4800
 0.8640	52.4980
 0.8650	52.5300
 0.8660	52.5240
 0.8670	52.5190
 0.8680	52.5290
 0.8690	52.5510
 0.8700	52.5420
 0.8710	52.5620
 0.8720	52.5910
 0.8730	52.5770
 0.8740	52.5800
 0.8750	52.5770
 0.8760	52.5700
 0.8770	52.5850
 0.8780	52.6110
 0.8790	52.6140
 0.8800	52.5990
 0.8810	52.6160
 0.8820	52.6120
 0.8830	52.6070
 0.8840	52.6200
 0.8850	52.6330
 0.8860	52.6300
 0.8870	52.6220
 0.8880	52.6210
 0.8890	52.6180
 0.8900	52.6280
 0.8910	52.6430
 0.8920	52.6440
 0.8930	52.6310
 0.8940	52.6240
 0.8950	52.6160
 0.8960	52.5880
 0.8970	52.5970
 0.8980	52.6080
 0.8990	52.5980
 0.9000	52.5650
 0.9010	52.5540
 0.9020	52.5610
 0.9030	52.5720
 0.9040	52.5770
 0.9050	52.5810
 0.9060	52.5820
 0.9070	52.5770
 0.9080	52.5570
 0.9090	52.5460
 0.9100	52.5520
 0.9110	52.5620
 0.9120	52.5330
 0.9130	52.5220
 0.9140	52.5290
 0.9150	52.5360
 0.9160	52.5270
 0.9170	52.5220
 0.9180	52.5190
 0.9190	52.5120
 0.9200	52.5210
 0.9210	52.5150
 0.9220	52.4810
 0.9230	52.4310
 0.9240	52.4360
 0.9250	52.4520
 0.9260	52.4550
 0.9270	52.4400
 0.9280	52.3990
 0.9290	52.3710
 0.9300	52.3550
 0.9310	52.3200
 0.9320	52.3120
 0.9330	52.2980
 0.9340	52.2740
 0.9350	52.2790
 0.9360	52.2610
 0.9370	52.2210
 0.9380	52.1710
 0.9390	52.1270
 0.9400	52.0970
 0.9410	52.0680
 0.9420	52.0330
 0.9430	51.9970
 0.9440	51.9680
 0.9450	51.9290
 0.9460	51.8750
 0.9470	51.8400
 0.9480	51.8090
 0.9490	51.7480
 0.9500	51.6520
 0.9510	51.5980
 0.9520	51.5290
 0.9530	51.4400
 0.9540	51.3420
 0.9550	51.2450
 0.9560	51.1810
 0.9570	51.1160
 0.9580	51.0210
 0.9590	50.9700
 0.9600	50.8960
 0.9610	50.8070
 0.9620	50.7330
 0.9630	50.6500
 0.9640	50.5810
 0.9650	50.5380
 0.9660	50.5170
 0.9670	50.4540
 0.9680	50.4050
 0.9690	50.3850
 0.9700	50.3800
 0.9710	50.3610
 0.9720	50.3450
 0.9730	50.3140
 0.9740	50.2580
 0.9750	50.2700
 0.9760	50.2590
 0.9770	50.2290
 0.9780	50.2290
 0.9790	50.2580
 0.9800	50.2770
 0.9810	50.2590
 0.9820	50.2110
 0.9830	50.2450
 0.9840	50.2460
 0.9850	50.2440
 0.9860	50.3170
 0.9870	50.3710
 0.9880	50.3950
 0.9890	50.3990
 0.9900	50.4060
 0.9910	50.4660
 0.9920	50.5430
 0.9930	50.6190
 0.9940	50.6960
 0.9950	50.7730
 0.9960	50.8490
 0.9970	50.9260
 0.9980	51.0020
 0.9990	51.0790
 1.0000	51.1560
 1.0010	51.2320
 1.0020	51.3090
 1.0030	51.3860
 1.0040	51.4620
 1.0050	51.5390
 1.0060	51.6150
 1.0070	51.6920
 1.0080	51.7690
 1.0090	51.8450
 1.0100	51.8450
 1.0110	51.8850
 1.0120	51.9240
 1.0130	51.9570
 1.0140	51.9980
 1.0150	52.0440
 1.0160	52.0850
 1.0170	52.1260
 1.0180	52.1680
 1.0190	52.2210
 1.0200	52.2660
 1.0210	52.3140
 1.0220	52.3670
 1.0230	52.4090
 1.0240	52.4410
 1.0250	52.4790
 1.0260	52.5130
 1.0270	52.5480
 1.0280	52.5880
 1.0290	52.6200
 1.0300	52.6450
 1.0310	52.6760
 1.0320	52.7070
 1.0330	52.7340
 1.0340	52.7620
 1.0350	52.8010
 1.0360	52.8460
 1.0370	52.8790
 1.0380	52.9090
 1.0390	52.9410
 1.0400	52.9670
 1.0410	52.9780
 1.0420	53.0000
 1.0430	53.0280
 1.0440	53.0520
 1.0450	53.0810
 1.0460	53.1030
 1.0470	53.1230
 1.0480	53.1400
 1.0490	53.1480
 1.0500	53.1650
 1.0510	53.1820
 1.0520	53.2110
 1.0530	53.2340
 1.0540	53.2650
 1.0550	53.2850
 1.0560	53.2990
 1.0570	53.3130
 1.0580	53.3270
 1.0590	53.3350
 1.0600	53.3380
 1.0610	53.3440
 1.0620	53.3440
 1.0630	53.3510
 1.0640	53.3630
 1.0650	53.3770
 1.0660	53.4010
 1.0670	53.4160
 1.0680	53.4290
 1.0690	53.4420
 1.0700	53.4490
 1.0710	53.4510
 1.0720	53.4520
 1.0730	53.4470
 1.0740	53.4490
 1.0750	53.4470
 1.0760	53.4510
 1.0770	53.4630
 1.0780	53.4690
 1.0790	53.4760
 1.0800	53.4800
 1.0810	53.4840
 1.0820	53.4860
 1.0830	53.4870
 1.0840	53.4860
 1.0850	53.4790
 1.0860	53.4730
 1.0870	53.4730
 1.0880	53.4750
 1.0890	53.4720
 1.0900	53.4710
 1.0910	53.4680
 1.0920	53.4620
 1.0930	53.4520
 1.0940	53.4390
 1.0950	53.4290
 1.0960	53.4170
 1.0970	53.4020
 1.0980	53.3950
 1.0990	53.3770
 1.1000	53.3400
 1.1010	53.3170
 1.1020	53.2970
 1.1030	53.2780
 1.1040	53.2660
 1.1050	53.2540
 1.1060	53.2370
 1.1070	53.2200
 1.1080	53.1950
 1.1090	53.1670
 1.1100	53.1370
 1.1110	53.0970
 1.1120	53.0640
 1.1130	53.0370
 1.1140	53.0010
 1.1150	52.9690
 1.1160	52.9260
 1.1170	52.8750
 1.1180	52.8180
 1.1190	52.7500
 1.1200	52.6790
 1.1210	52.6060
 1.1220	52.5340
 1.1230	52.4620
 1.1240	52.3830
 1.1250	52.2990
 1.1260	52.2070
 1.1270	52.1150
 1.1280	52.0210
 1.1290	51.9210
 1.1300	51.8190
 1.1310	51.7090
 1.1320	51.5880
 1.1330	51.4650
 1.1340	51.3410
 1.1350	51.2080
 1.1360	51.0680
 1.1370	50.9240
 1.1380	50.7750
 1.1390	50.6190
 1.1400	50.4590
 1.1410	50.2950
 1.1420	50.1190
 1.1430	49.9360
 1.1440	49.7510
 1.1450	49.5550
 1.1460	49.3640
 1.1470	49.1670
 1.1480	48.9800
 1.1490	48.7910
 1.1500	48.6110
 1.1510	48.4330
 1.1520	48.2680
 1.1530	48.1100
 1.1540	47.9610
 1.1550	47.8210
 1.1560	47.6940
 1.1570	47.5690
 1.1580	47.4620
 1.1590	47.3650
 1.1600	47.2710
 1.1610	47.1970
 1.1620	47.1310
 1.1630	47.0730
 1.1640	47.0310
 1.1650	46.9920
 1.1660	46.9600
 1.1670	46.9320
 1.1680	46.9130
 1.1690	46.8930
 1.1700	46.8740
 1.1710	46.8590
 1.1720	46.8470
 1.1730	46.8370
 1.1740	46.8310
 1.1750	46.8230
 1.1760	46.8210
 1.1770	46.8190
 1.1780	46.8060
 1.1790	46.7970
 1.1800	46.7820
 1.1810	46.7560
 1.1820	46.7300
 1.1830	46.7070
 1.1840	46.6830
 1.1850	46.6550
 1.1860	46.6370
 1.1870	46.6230
 1.1880	46.6070
 1.1890	46.5930
 1.1900	46.5800
 1.1910	46.5650
 1.1920	46.5520
 1.1930	46.5420
 1.1940	46.5350
 1.1950	46.5280
 1.1960	46.5220
 1.1970	46.5190
 1.1980	46.5190
 1.1990	46.5200
 1.2000	46.5270
 1.2010	46.5420
 1.2020	46.5550
 1.2030	46.5730
 1.2040	46.5950
 1.2050	46.6130
 1.2060	46.6360
 1.2070	46.6600
 1.2080	46.6890
 1.2090	46.7230
 1.2100	46.7580
 1.2110	46.7950
 1.2120	46.8290
 1.2130	46.8700
 1.2140	46.9190
 1.2150	46.9670
 1.2160	47.0190
 1.2170	47.0720
 1.2180	47.1220
 1.2190	47.1650
 1.2200	47.2140
 1.2210	47.2670
 1.2220	47.3200
 1.2230	47.3720
 1.2240	47.4220
 1.2250	47.4750
 1.2260	47.5270
 1.2270	47.5770
 1.2280	47.6300
 1.2290	47.6760
 1.2300	47.7250
 1.2310	47.7760
 1.2320	47.8150
 1.2330	47.8580
 1.2340	47.9030
 1.2350	47.9450
 1.2360	47.9880
 1.2370	48.0370
 1.2380	48.0820
 1.2390	48.1220
 1.2400	48.1540
 1.2410	48.1880
 1.2420	48.2230
 1.2430	48.2550
 1.2440	48.2900
 1.2450	48.3240
 1.2460	48.3530
 1.2470	48.3810
 1.2480	48.4010
 1.2490	48.4220
 1.2500	48.4510
 1.2510	48.4790
 1.2520	48.5110
 1.2530	48.5320
 1.2540	48.5400
 1.2550	48.5530
 1.2560	48.5620
 1.2570	48.5750
 1.2580	48.5970
 1.2590	48.6140
 1.2600	48.6280
 1.2610	48.6420
 1.2620	48.6570
 1.2630	48.6670
 1.2640	48.6700
 1.2650	48.6820
 1.2660	48.6900
 1.2670	48.6860
 1.2680	48.6840
 1.2690	48.6780
 1.2700	48.6710
 1.2710	48.6730
 1.2720	48.6770
 1.2730	48.6760
 1.2740	48.6660
 1.2750	48.6530
 1.2760	48.6430
 1.2770	48.6330
 1.2780	48.6210
 1.2790	48.6060
 1.2800	48.5930
 1.2810	48.5800
 1.2820	48.5630
 1.2830	48.5500
 1.2840	48.5280
 1.2850	48.5020
 1.2860	48.4790
 1.2870	48.4520
 1.2880	48.4200
 1.2890	48.3920
 1.2900	48.3620
 1.2910	48.3230
 1.2920	48.2890
 1.2930	48.2470
 1.2940	48.2020
 1.2950	48.1640
 1.2960	48.1170
 1.2970	48.0670
 1.2980	48.0160
 1.2990	47.9560
 1.3000	47.8920
 1.3010	47.8250
 1.3020	47.7560
 1.3030	47.6840
 1.3040	47.6090
 1.3050	47.5310
 1.3060	47.4470
 1.3070	47.3560
 1.3080	47.2580
 1.3090	47.1620
 1.3100	47.0620
 1.3110	46.9540
 1.3120	46.8470
 1.3130	46.7340
 1.3140	46.6170
 1.3150	46.4940
 1.3160	46.3690
 1.3170	46.2410
 1.3180	46.1080
 1.3190	45.9690
 1.3200	45.8240
 1.3210	45.6700
 1.3220	45.5090
 1.3230	45.3450
 1.3240	45.1770
 1.3250	45.0110
 1.3260	44.8400
 1.3270	44.6600
 1.3280	44.4800
 1.3290	44.2950
 1.3300	44.1060
 1.3310	43.9170
 1.3320	43.7200
 1.3330	43.5190
 1.3340	43.3180
 1.3350	43.1160
 1.3360	42.9110
 1.3370	42.7050
 1.3380	42.4960
 1.3390	42.2820
 1.3400	42.0650
 1.3410	41.8480
 1.3420	41.6350
 1.3430	41.4230
 1.3440	41.2140
 1.3450	41.0050
 1.3460	40.7940
 1.3470	40.5900
 1.3480	40.3870
 1.3490	40.1870
 1.3500	39.9910
 1.3510	39.7950
 1.3520	39.5980
 1.3530	39.4020
 1.3540	39.2110
 1.3550	39.0200
 1.3560	38.8320
 1.3570	38.6450
 1.3580	38.4580
 1.3590	38.2670
 1.3600	38.0730
 1.3610	37.8770
 1.3620	37.6780
 1.3630	37.4800
 1.3640	37.2770
 1.3650	37.0670
 1.3660	36.8520
 1.3670	36.6240
 1.3680	36.3830
 1.3690	36.1350
 1.3700	35.8740
 1.3710	35.6010
 1.3720	35.3210
 1.3730	35.0190
 1.3740	34.6980
 1.3750	34.3600
 1.3760	34.0010
 1.3770	33.6200
 1.3780	33.2190
 1.3790	32.8000
 1.3800	32.3610
 1.3810	31.9010
 1.3820	31.4200
 1.3830	30.9210
 1.3840	30.3980
 1.3850	29.8480
 1.3860	29.2890
 1.3870	28.7070
 1.3880	28.1220
 1.3890	27.5260
 1.3900	26.9200
 1.3910	26.3130
 1.3920	25.6990
 1.3930	25.0820
 1.3940	24.4670
 1.3950	23.8450
 1.3960	23.2340
 1.3970	22.6350
 1.3980	22.0450
 1.3990	21.4770
 1.4000	20.9220
 1.4010	20.3790
 1.4020	19.8610
 1.4030	19.3600
 1.4040	18.8820
 1.4050	18.4310
 1.4060	17.9970
 1.4070	17.5910
 1.4080	17.2070
 1.4090	16.8420
 1.4100	16.5010
 1.4110	16.1810
 1.4120	15.8840
 1.4130	15.6100
 1.4140	15.3580
 1.4150	15.1280
 1.4160	14.9150
 1.4170	14.7200
 1.4180	14.5450
 1.4190	14.3850
 1.4200	14.2380
 1.4210	14.1080
 1.4220	13.9910
 1.4230	13.8850
 1.4240	13.7900
 1.4250	13.7040
 1.4260	13.6260
 1.4270	13.5570
 1.4280	13.4980
 1.4290	13.4460
 1.4300	13.4000
 1.4310	13.3620
 1.4320	13.3320
 1.4330	13.3050
 1.4340	13.2850
 1.4350	13.2700
 1.4360	13.2590
 1.4370	13.2540
 1.4380	13.2540
 1.4390	13.2580
 1.4400	13.2620
 1.4410	13.2670
 1.4420	13.2780
 1.4430	13.2910
 1.4440	13.3090
 1.4450	13.3320
 1.4460	13.3530
 1.4470	13.3760
 1.4480	13.3980
 1.4490	13.4190
 1.4500	13.4400
 1.4510	13.4630
 1.4520	13.4890
 1.4530	13.5170
 1.4540	13.5450
 1.4550	13.5740
 1.4560	13.6020
 1.4570	13.6310
 1.4580	13.6640
 1.4590	13.6970
 1.4600	13.7320
 1.4610	13.7700
 1.4620	13.8120
 1.4630	13.8560
 1.4640	13.9040
 1.4650	13.9550
 1.4660	14.0070
 1.4670	14.0630
 1.4680	14.1240
 1.4690	14.1890
 1.4700	14.2600
 1.4710	14.3360
 1.4720	14.4100
 1.4730	14.4890
 1.4740	14.5720
 1.4750	14.6560
 1.4760	14.7450
 1.4770	14.8350
 1.4780	14.9250
 1.4790	15.0190
 1.4800	15.1140
 1.4810	15.2140
 1.4820	15.3170
 1.4830	15.4160
 1.4840	15.5180
 1.4850	15.6210
 1.4860	15.7240
 1.4870	15.8290
 1.4880	15.9350
 1.4890	16.0420
 1.4900	16.1460
 1.4910	16.2480
 1.4920	16.3520
 1.4930	16.4530
 1.4940	16.5550
 1.4950	16.6590
 1.4960	16.7640
 1.4970	16.8710
 1.4980	16.9760
 1.4990	17.0820
 1.5000	17.1870
 1.5010	17.2900
 1.5020	17.3920
 1.5030	17.4910
 1.5040	17.5930
 1.5050	17.6940
 1.5060	17.7960
 1.5070	17.9010
 1.5080	18.0040
 1.5090	18.1050
 1.5100	18.2040
 1.5110	18.3020
 1.5120	18.3990
 1.5130	18.4930
 1.5140	18.5890
 1.5150	18.6860
 1.5160	18.7810
 1.5170	18.8800
 1.5180	18.9740
 1.5190	19.0640
 1.5200	19.1560
 1.5210	19.2460
 1.5220	19.3370
 1.5230	19.4290
 1.5240	19.5170
 1.5250	19.6030
 1.5260	19.6850
 1.5270	19.7690
 1.5280	19.8560
 1.5290	19.9410
 1.5300	20.0260
 1.5310	20.1110
 1.5320	20.1910
 1.5330	20.2720
 1.5340	20.3520
 1.5350	20.4300
 1.5360	20.5100
 1.5370	20.5880
 1.5380	20.6640
 1.5390	20.7420
 1.5400	20.8160
 1.5410	20.8900
 1.5420	20.9650
 1.5430	21.0390
 1.5440	21.1150
 1.5450	21.1870
 1.5460	21.2590
 1.5470	21.3320
 1.5480	21.4020
 1.5490	21.4760
 1.5500	21.5480
 1.5510	21.6180
 1.5520	21.6870
 1.5530	21.7510
 1.5540	21.8150
 1.5550	21.8800
 1.5560	21.9430
 1.5570	22.0060
 1.5580	22.0670
 1.5590	22.1240
 1.5600	22.1840
 1.5610	22.2440
 1.5620	22.3070
 1.5630	22.3710
 1.5640	22.4330
 1.5650	22.4970
 1.5660	22.5590
 1.5670	22.6230
 1.5680	22.6860
 1.5690	22.7440
 1.5700	22.8030
 1.5710	22.8640
 1.5720	22.9190
 1.5730	22.9740
 1.5740	23.0290
 1.5750	23.0810
 1.5760	23.1390
 1.5770	23.2000
 1.5780	23.2600
 1.5790	23.3200
 1.5800	23.3790
 1.5810	23.4390
 1.5820	23.5000
 1.5830	23.5570
 1.5840	23.6120
 1.5850	23.6690
 1.5860	23.7280
 1.5870	23.7870
 1.5880	23.8490
 1.5890	23.9090
 1.5900	23.9650
 1.5910	24.0220
 1.5920	24.0790
 1.5930	24.1310
 1.5940	24.1830
 1.5950	24.2350
 1.5960	24.2810
 1.5970	24.3330
 1.5980	24.3900
 1.5990	24.4390
 1.6000	24.4930
 1.6010	24.5460
 1.6020	24.5910
 1.6030	24.6430
 1.6040	24.6950
 1.6050	24.7470
 1.6060	24.8030
 1.6070	24.8570
 1.6080	24.9120
 1.6090	24.9670
 1.6100	25.0160
 1.6110	25.0640
 1.6120	25.1110
 1.6130	25.1570
 1.6140	25.2060
 1.6150	25.2550
 1.6160	25.3020
 1.6170	25.3480
 1.6180	25.3900
 1.6190	25.4290
 1.6200	25.4700
 1.6210	25.5080
 1.6220	25.5440
 1.6230	25.5780
 1.6240	25.6130
 1.6250	25.6490
 1.6260	25.6800
 1.6270	25.7130
 1.6280	25.7340
 1.6290	25.7550
 1.6300	25.7750
 1.6310	25.7980
 1.6320	25.8210
 1.6330	25.8430
 1.6340	25.8670
 1.6350	25.8850
 1.6360	25.8960
 1.6370	25.9080
 1.6380	25.9160
 1.6390	25.9250
 1.6400	25.9330
 1.6410	25.9360
 1.6420	25.9390
 1.6430	25.9310
 1.6440	25.9160
 1.6450	25.8980
 1.6460	25.8750
 1.6470	25.8450
 1.6480	25.8020
 1.6490	25.7550
 1.6500	25.7050
 1.6510	25.6550
 1.6520	25.6080
 1.6530	25.5600
 1.6540	25.5060
 1.6550	25.4470
 1.6560	25.3880
 1.6570	25.3310
 1.6580	25.2760
 1.6590	25.2260
 1.6600	25.1800
 1.6610	25.1370
 1.6620	25.1020
 1.6630	25.0740
 1.6640	25.0500
 1.6650	25.0310
 1.6660	25.0210
 1.6670	25.0160
 1.6680	25.0200
 1.6690	25.0310
 1.6700	25.0420
 1.6710	25.0590
 1.6720	25.0830
 1.6730	25.1080
 1.6740	25.1380
 1.6750	25.1680
 1.6760	25.1920
 1.6770	25.2140
 1.6780	25.2300
 1.6790	25.2420
 1.6800	25.2520
 1.6810	25.2580
 1.6820	25.2610
 1.6830	25.2580
 1.6840	25.2520
 1.6850	25.2410
 1.6860	25.2250
 1.6870	25.2090
 1.6880	25.1890
 1.6890	25.1680
 1.6900	25.1420
 1.6910	25.1120
 1.6920	25.0830
 1.6930	25.0490
 1.6940	25.0170
 1.6950	24.9900
 1.6960	24.9580
 1.6970	24.9270
 1.6980	24.8900
 1.6990	24.8470
 1.7000	24.8050
 1.7010	24.7610
 1.7020	24.7140
 1.7030	24.6700
 1.7040	24.6210
 1.7050	24.5670
 1.7060	24.5100
 1.7070	24.4480
 1.7080	24.3880
 1.7090	24.3240
 1.7100	24.2650
 1.7110	24.2100
 1.7120	24.1510
 1.7130	24.0900
 1.7140	24.0280
 1.7150	23.9670
 1.7160	23.9060
 1.7170	23.8460
 1.7180	23.7870
 1.7190	23.7300
 1.7200	23.6820
 1.7210	23.6350
 1.7220	23.5880
 1.7230	23.5450
 1.7240	23.4970
 1.7250	23.4530
 1.7260	23.4130
 1.7270	23.3720
 1.7280	23.3340
 1.7290	23.2970
 1.7300	23.2580
 1.7310	23.2230
 1.7320	23.1900
 1.7330	23.1590
 1.7340	23.1340
 1.7350	23.1080
 1.7360	23.0830
 1.7370	23.0570
 1.7380	23.0340
 1.7390	23.0090
 1.7400	22.9850
 1.7410	22.9580
 1.7420	22.9300
 1.7430	22.8960
 1.7440	22.8570
 1.7450	22.8190
 1.7460	22.7790
 1.7470	22.7380
 1.7480	22.6950
 1.7490	22.6550
 1.7500	22.6140
 1.7510	22.5750
 1.7520	22.5400
 1.7530	22.5020
 1.7540	22.4610
 1.7550	22.4250
 1.7560	22.3900
 1.7570	22.3540
 1.7580	22.3240
 1.7590	22.2970
 1.7600	22.2720
 1.7610	22.2450
 1.7620	22.2160
 1.7630	22.1810
 1.7640	22.1510
 1.7650	22.1240
 1.7660	22.0980
 1.7670	22.0760
 1.7680	22.0520
 1.7690	22.0280
 1.7700	22.0040
 1.7710	21.9800
 1.7720	21.9580
 1.7730	21.9390
 1.7740	21.9190
 1.7750	21.9020
 1.7760	21.8800
 1.7770	21.8540
 1.7780	21.8310
 1.7790	21.8040
 1.7800	21.7840
 1.7810	21.7690
 1.7820	21.7530
 1.7830	21.7410
 1.7840	21.7270
 1.7850	21.7100
 1.7860	21.7000
 1.7870	21.6940
 1.7880	21.6920
 1.7890	21.6900
 1.7900	21.6820
 1.7910	21.6760
 1.7920	21.6710
 1.7930	21.6650
 1.7940	21.6570
 1.7950	21.6550
 1.7960	21.6540
 1.7970	21.6540
 1.7980	21.6590
 1.7990	21.6600
 1.8000	21.6570
 1.8010	21.6590
 1.8020	21.6620
 1.8030	21.6670
 1.8040	21.6790
 1.8050	21.6840
 1.8060	21.6860
 1.8070	21.6890
 1.8080	21.6870
 1.8090	21.6880
 1.8100	21.6900
 1.8110	21.6930
 1.8120	21.7000
 1.8130	21.7090
 1.8140	21.7170
 1.8150	21.7180
 1.8160	21.7150
 1.8170	21.7070
 1.8180	21.7060
 1.8190	21.7160
 1.8200	21.7220
 1.8210	21.7320
 1.8220	21.7390
 1.8230	21.7390
 1.8240	21.7430
 1.8250	21.7550
 1.8260	21.7530
 1.8270	21.7150
 1.8280	21.6770
 1.8290	21.6390
 1.8300	21.6010
 1.8310	21.5630
 1.8320	21.5240
 1.8330	21.4860
 1.8340	21.4480
 1.8350	21.4480
 1.8360	21.4300
 1.8370	21.4120
 1.8380	21.3920
 1.8390	21.3660
 1.8400	21.3300
 1.8410	21.2970
 1.8420	21.2650
 1.8430	21.2280
 1.8440	21.1790
 1.8450	21.1190
 1.8460	21.0600
 1.8470	20.9910
 1.8480	20.9160
 1.8490	20.8320
 1.8500	20.7350
 1.8510	20.6210
 1.8520	20.4970
 1.8530	20.3730
 1.8540	20.2480
 1.8550	20.1180
 1.8560	19.9830
 1.8570	19.8270
 1.8580	19.6650
 1.8590	19.4940
 1.8600	19.3140
 1.8610	19.1140
 1.8620	18.9080
 1.8630	18.6910
 1.8640	18.4510
 1.8650	18.2060
 1.8660	17.9600
 1.8670	17.6870
 1.8680	17.3960
 1.8690	17.0930
 1.8700	16.7720
 1.8710	16.4280
 1.8720	16.0840
 1.8730	15.7430
 1.8740	15.3770
 1.8750	15.0090
 1.8760	14.6360
 1.8770	14.2460
 1.8780	13.8700
 1.8790	13.4970
 1.8800	13.1240
 1.8810	12.7510
 1.8820	12.3850
 1.8830	12.0160
 1.8840	11.6550
 1.8850	11.3020
 1.8860	10.9520
 1.8870	10.6140
 1.8880	10.2850
 1.8890	 9.9620
 1.8900	 9.6580
 1.8910	 9.3740
 1.8920	 9.1020
 1.8930	 8.8520
 1.8940	 8.6270
 1.8950	 8.4140
 1.8960	 8.2110
 1.8970	 8.0220
 1.8980	 7.8480
 1.8990	 7.6890
 1.9000	 7.5480
 1.9010	 7.4350
 1.9020	 7.3190
 1.9030	 7.2110
 1.9040	 7.1170
 1.9050	 7.0320
 1.9060	 6.9590
 1.9070	 6.9050
 1.9080	 6.8580
 1.9090	 6.8080
 1.9100	 6.7600
 1.9110	 6.7180
 1.9120	 6.6770
 1.9130	 6.6460
 1.9140	 6.6220
 1.9150	 6.6080
 1.9160	 6.5960
 1.9170	 6.5890
 1.9180	 6.5830
 1.9190	 6.5730
 1.9200	 6.5730
 1.9210	 6.5670
 1.9220	 6.5670
 1.9230	 6.5750
 1.9240	 6.5800
 1.9250	 6.5790
 1.9260	 6.5880
 1.9270	 6.6030
 1.9280	 6.6050
 1.9290	 6.6090
 1.9300	 6.6160
 1.9310	 6.6180
 1.9320	 6.6230
 1.9330	 6.6320
 1.9340	 6.6480
 1.9350	 6.6570
 1.9360	 6.6620
 1.9370	 6.6740
 1.9380	 6.6870
 1.9390	 6.7020
 1.9400	 6.7230
 1.9410	 6.7500
 1.9420	 6.7680
 1.9430	 6.7860
 1.9440	 6.8030
 1.9450	 6.8140
 1.9460	 6.8320
 1.9470	 6.8540
 1.9480	 6.8770
 1.9490	 6.9020
 1.9500	 6.9320
 1.9510	 6.9580
 1.9520	 6.9850
 1.9530	 7.0210
 1.9540	 7.0550
 1.9550	 7.0840
 1.9560	 7.1130
 1.9570	 7.1440
 1.9580	 7.1710
 1.9590	 7.2000
 1.9600	 7.2350
 1.9610	 7.2640
 1.9620	 7.2890
 1.9630	 7.3090
 1.9640	 7.3350
 1.9650	 7.3620
 1.9660	 7.3910
 1.9670	 7.4300
 1.9680	 7.4640
 1.9690	 7.4930
 1.9700	 7.5280
 1.9710	 7.5600
 1.9720	 7.5980
 1.9730	 7.6410
 1.9740	 7.6870
 1.9750	 7.7300
 1.9760	 7.7710
 1.9770	 7.8030
 1.9780	 7.8390
 1.9790	 7.8810
 1.9800	 7.9270
 1.9810	 7.9700
 1.9820	 8.0190
 1.9830	 8.0640
 1.9840	 8.1010
 1.9850	 8.1440
 1.9860	 8.1910
 1.9870	 8.2370
 1.9880	 8.2780
 1.9890	 8.3220
 1.9900	 8.3600
 1.9910	 8.3990
 1.9920	 8.4440
 1.9930	 8.4940
 1.9940	 8.5460
 1.9950	 8.6100
 1.9960	 8.6610
 1.9970	 8.7080
 1.9980	 8.7540
 1.9990	 8.7900
 2.0000	 8.8340
 2.0010	 8.8740
 2.0020	 8.9120
 2.0030	 8.9560
 2.0040	 8.9940
 2.0050	 9.0330
 2.0060	 9.0720
 2.0070	 9.1130
 2.0080	 9.1520
 2.0090	 9.1940
 2.0100	 9.2460
 2.0110	 9.2890
 2.0120	 9.3310
 2.0130	 9.3650
 2.0140	 9.4060
 2.0150	 9.4410
 2.0160	 9.4780
 2.0170	 9.5140
 2.0180	 9.5470
 2.0190	 9.5730
 2.0200	 9.6060
 2.0210	 9.6450
 2.0220	 9.6760
 2.0230	 9.7040
 2.0240	 9.7320
 2.0250	 9.7530
 2.0260	 9.7750
 2.0270	 9.7930
 2.0280	 9.8220
 2.0290	 9.8480
 2.0300	 9.8670
 2.0310	 9.8870
 2.0320	 9.9090
 2.0330	 9.9280
 2.0340	 9.9440
 2.0350	 9.9610
 2.0360	 9.9790
 2.0370	 9.9940
 2.0380	10.0070
 2.0390	10.0190
 2.0400	10.0300
 2.0410	10.0400
 2.0420	10.0470
 2.0430	10.0550
 2.0440	10.0620
 2.0450	10.0660
 2.0460	10.0760
 2.0470	10.0940
 2.0480	10.1020
 2.0490	10.1100
 2.0500	10.1160
 2.0510	10.1120
 2.0520	10.1170
 2.0530	10.1270
 2.0540	10.1340
 2.0550	10.1390
 2.0560	10.1480
 2.0570	10.1520
 2.0580	10.1560
 2.0590	10.1610
 2.0600	10.1650
 2.0610	10.1690
 2.0620	10.1740
 2.0630	10.1780
 2.0640	10.1810
 2.0650	10.1830
 2.0660	10.1820
 2.0670	10.1860
 2.0680	10.1920
 2.0690	10.2020
 2.0700	10.2210
 2.0710	10.2340
 2.0720	10.2440
 2.0730	10.2620
 2.0740	10.2680
 2.0750	10.2680
 2.0760	10.2690
 2.0770	10.2650
 2.0780	10.2620
 2.0790	10.2540
 2.0800	10.2530
 2.0810	10.2530
 2.0820	10.2520
 2.0830	10.2530
 2.0840	10.2560
 2.0850	10.2540
 2.0860	10.2590
 2.0870	10.2750
 2.0880	10.2880
 2.0890	10.2990
 2.0900	10.3140
 2.0910	10.3200
 2.0920	10.3170
 2.0930	10.3220
 2.0940	10.3280
 2.0950	10.3310
 2.0960	10.3360
 2.0970	10.3400
 2.0980	10.3360
 2.0990	10.3360
 2.1000	10.3430
 2.1010	10.3460
 2.1020	10.3450
 2.1030	10.3480
 2.1040	10.3480
 2.1050	10.3510
 2.1060	10.3580
 2.1070	10.3700
 2.1080	10.3740
 2.1090	10.3780
 2.1100	10.3790
 2.1110	10.3750
 2.1120	10.3730
 2.1130	10.3690
 2.1140	10.3690
 2.1150	10.3670
 2.1160	10.3690
 2.1170	10.3770
 2.1180	10.3780
 2.1190	10.3710
 2.1200	10.3740
 2.1210	10.3770
 2.1220	10.3880
 2.1230	10.3950
 2.1240	10.4120
 2.1250	10.4160
 2.1260	10.4060
 2.1270	10.4120
 2.1280	10.4260
 2.1290	10.4310
 2.1300	10.4380
 2.1310	10.4440
 2.1320	10.4380
 2.1330	10.4420
 2.1340	10.4550
 2.1350	10.4640
 2.1360	10.4730
 2.1370	10.4830
 2.1380	10.4880
 2.1390	10.5000
 2.1400	10.5110
 2.1410	10.5330
 2.1420	10.5490
 2.1430	10.5700
 2.1440	10.5870
 2.1450	10.6000
 2.1460	10.6180
 2.1470	10.6400
 2.1480	10.6560
 2.1490	10.6710
 2.1500	10.6880
 2.1510	10.6990
 2.1520	10.7170
 2.1530	10.7410
 2.1540	10.7610
 2.1550	10.7820
 2.1560	10.8010
 2.1570	10.8160
 2.1580	10.8340
 2.1590	10.8600
 2.1600	10.8740
 2.1610	10.8870
 2.1620	10.9090
 2.1630	10.9340
 2.1640	10.9630
 2.1650	10.9850
 2.1660	11.0070
 2.1670	11.0350
 2.1680	11.0610
 2.1690	11.0880
 2.1700	11.1300
 2.1710	11.1540
 2.1720	11.1590
 2.1730	11.1750
 2.1740	11.1860
 2.1750	11.2040
 2.1760	11.2340
 2.1770	11.2570
 2.1780	11.2740
 2.1790	11.2970
 2.1800	11.3240
 2.1810	11.3450
 2.1820	11.3720
 2.1830	11.3910
 2.1840	11.4080
 2.1850	11.4160
 2.1860	11.4290
 2.1870	11.4390
 2.1880	11.4570
 2.1890	11.4770
 2.1900	11.5000
 2.1910	11.5320
 2.1920	11.5590
 2.1930	11.5870
 2.1940	11.6110
 2.1950	11.6300
 2.1960	11.6530
 2.1970	11.6770
 2.1980	11.7020
 2.1990	11.7350
 2.2000	11.7610
 2.2010	11.7810
 2.2020	11.8030
 2.2030	11.8190
 2.2040	11.8390
 2.2050	11.8600
 2.2060	11.8850
 2.2070	11.9100
 2.2080	11.9390
 2.2090	11.9620
 2.2100	11.9850
 2.2110	12.0070
 2.2120	12.0260
 2.2130	12.0430
 2.2140	12.0610
 2.2150	12.0730
 2.2160	12.0750
 2.2170	12.0860
 2.2180	12.1000
 2.2190	12.1120
 2.2200	12.1310
 2.2210	12.1420
 2.2220	12.1490
 2.2230	12.1520
 2.2240	12.1520
 2.2250	12.1500
 2.2260	12.1450
 2.2270	12.1370
 2.2280	12.1250
 2.2290	12.1150
 2.2300	12.0960
 2.2310	12.0950
 2.2320	12.0930
 2.2330	12.0840
 2.2340	12.0670
 2.2350	12.0450
 2.2360	12.0170
 2.2370	11.9780
 2.2380	11.9500
 2.2390	11.9280
 2.2400	11.8950
 2.2410	11.8590
 2.2420	11.8220
 2.2430	11.7660
 2.2440	11.7390
 2.2450	11.7370
 2.2460	11.7110
 2.2470	11.6940
 2.2480	11.6560
 2.2490	11.5790
 2.2500	11.5310
 2.2510	11.4910
 2.2520	11.4510
 2.2530	11.4290
 2.2540	11.3940
 2.2550	11.3520
 2.2560	11.3050
 2.2570	11.2470
 2.2580	11.1980
 2.2590	11.1460
 2.2600	11.1000
 2.2610	11.0670
 2.2620	11.0280
 2.2630	10.9810
 2.2640	10.9410
 2.2650	10.9160
 2.2660	10.8850
 2.2670	10.8640
 2.2680	10.8670
 2.2690	10.8390
 2.2700	10.7990
 2.2710	10.7620
 2.2720	10.7070
 2.2730	10.6710
 2.2740	10.6400
 2.2750	10.6130
 2.2760	10.5990
 2.2770	10.5740
 2.2780	10.5460
 2.2790	10.5190
 2.2800	10.4840
 2.2810	10.4580
 2.2820	10.4340
 2.2830	10.4180
 2.2840	10.4130
 2.2850	10.3980
 2.2860	10.3870
 2.2870	10.3680
 2.2880	10.3400
 2.2890	10.3160
 2.2900	10.2910
 2.2910	10.2650
 2.2920	10.2400
 2.2930	10.2100
 2.2940	10.1760
 2.2950	10.1470
 2.2960	10.1200
 2.2970	10.0900
 2.2980	10.0660
 2.2990	10.0330
 2.3000	10.0030
 2.3010	 9.9760
 2.3020	 9.9490
 2.3030	 9.9110
 2.3040	 9.8590
 2.3050	 9.8300
 2.3060	 9.8070
 2.3070	 9.7980
 2.3080	 9.8050
 2.3090	 9.7800
 2.3100	 9.7360
 2.3110	 9.7060
 2.3120	 9.6910
 2.3130	 9.6890
 2.3140	 9.6770
 2.3150	 9.6780
 2.3160	 9.6690
 2.3170	 9.6420
 2.3180	 9.6330
 2.3190	 9.6380
 2.3200	 9.6330
 2.3210	 9.6260
 2.3220	 9.6140
 2.3230	 9.5990
 2.3240	 9.5870
 2.3250	 9.5770
 2.3260	 9.5630
 2.3270	 9.5480
 2.3280	 9.5210
 2.3290	 9.4780
 2.3300	 9.4490
 2.3310	 9.4110
 2.3320	 9.3950
 2.3330	 9.4070
 2.3340	 9.3990
 2.3350	 9.3970
 2.3360	 9.3840
 2.3370	 9.3460
 2.3380	 9.3250
 2.3390	 9.3160
 2.3400	 9.2980
 2.3410	 9.2800
 2.3420	 9.2640
 2.3430	 9.2290
 2.3440	 9.2120
 2.3450	 9.2210
 2.3460	 9.2130
 2.3470	 9.1950
 2.3480	 9.1990
 2.3490	 9.2150
 2.3500	 9.2180
 2.3510	 9.2440
 2.3520	 9.2460
 2.3530	 9.2320
 2.3540	 9.1910
 2.3550	 9.1530
 2.3560	 9.1210
 2.3570	 9.0920
 2.3580	 9.0930
 2.3590	 9.1180
 2.3600	 9.1390
 2.3610	 9.1320
 2.3620	 9.1200
 2.3630	 9.1090
 2.3640	 9.0740
 2.3650	 9.0390
 2.3660	 9.0050
 2.3670	 8.9980
 2.3680	 8.9930
 2.3690	 8.9800
 2.3700	 8.9940
 2.3710	 8.9740
 2.3720	 8.9420
 2.3730	 8.9390
 2.3740	 8.9480
 2.3750	 8.9440
 2.3760	 8.9270
 2.3770	 8.9320
 2.3780	 8.9060
 2.3790	 8.8880
 2.3800	 8.9030
 2.3810	 8.8660
 2.3820	 8.8400
 2.3830	 8.8300
 2.3840	 8.8040
 2.3850	 8.7910
 2.3860	 8.7920
 2.3870	 8.7930
 2.3880	 8.7670
 2.3890	 8.7600
 2.3900	 8.7340
 2.3910	 8.6740
 2.3920	 8.6540
 2.3930	 8.6340
 2.3940	 8.6220
 2.3950	 8.6230
 2.3960	 8.5890
 2.3970	 8.5190
 2.3980	 8.4550
 2.3990	 8.4170
 2.4000	 8.3890
 2.4010	 8.3860
 2.4020	 8.4030
 2.4030	 8.3960
 2.4040	 8.3680
 2.4050	 8.3080
 2.4060	 8.2580
 2.4070	 8.2450
 2.4080	 8.2030
 2.4090	 8.2050
 2.4100	 8.2270
 2.4110	 8.1630
 2.4120	 8.1770
 2.4130	 8.2010
 2.4140	 8.1500
 2.4150	 8.1670
 2.4160	 8.1470
 2.4170	 8.0960
 2.4180	 8.0860
 2.4190	 8.0530
 2.4200	 8.0100
 2.4210	 7.9500
 2.4220	 7.8950
 2.4230	 7.8840
 2.4240	 7.9010
 2.4250	 7.9270
 2.4260	 7.9200
 2.4270	 7.8960
 2.4280	 7.8470
 2.4290	 7.7810
 2.4300	 7.7900
 2.4310	 7.7750
 2.4320	 7.7220
 2.4330	 7.7020
 2.4340	 7.6450
 2.4350	 7.6430
 2.4360	 7.6660
 2.4370	 7.6700
 2.4380	 7.7160
 2.4390	 7.6910
 2.4400	 7.6310
 2.4410	 7.5780
 2.4420	 7.5150
 2.4430	 7.4690
 2.4440	 7.4470
 2.4450	 7.4560
 2.4460	 7.4380
 2.4470	 7.4210
 2.4480	 7.4200
 2.4490	 7.3600
 2.4500	 7.2950
 2.4510	 7.2570
 2.4520	 7.2250
 2.4530	 7.2650
 2.4540	 7.3590
 2.4550	 7.4220
 2.4560	 7.4500
 2.4570	 7.4090
 2.4580	 7.3180
 2.4590	 7.2440
 2.4600	 7.1410
 2.4610	 7.0660
 2.4620	 7.0400
 2.4630	 6.9800
 2.4640	 6.9980
 2.4650	 7.0610
 2.4660	 7.0740
 2.4670	 7.0970
 2.4680	 7.0620
 2.4690	 7.0350
 2.4700	 7.0400
 2.4710	 7.1270
 2.4720	 7.1450
 2.4730	 7.0750
 2.4740	 7.0980
 2.4750	 7.1560
 2.4760	 7.1770
 2.4770	 7.2730
 2.4780	 7.2860
 2.4790	 7.1950
 2.4800	 7.1520
 2.4810	 7.1010
 2.4820	 7.0330
 2.4830	 6.9670
 2.4840	 6.8810
 2.4850	 6.9740
 2.4860	 7.0310
 2.4870	 7.0630
 2.4880	 7.1460
 2.4890	 7.0730
 2.4900	 7.0760
 2.4910	 7.0140
 2.4920	 6.9170
 2.4930	 6.8840
 2.4940	 6.7370
 2.4950	 6.7350
 2.4960	 6.7700
 2.4970	 6.9030
 2.4980	 7.1710
 2.4990	 7.2520
 2.5000	 7.2170
