Name: Ceanothus spinosus 1
Type: vegetation
Class: Shrub
Genus: Ceanothus
Species: spinosus
Sample No.: VH200
Owner: UCSB
Wavelength Range: VSWIR
Origin: 34.4906; -119.7908; WGS84
Collection Date: 10/13/2013
Description: Samples were collected as part of the HyspIRI Airborne Campaign. 48 individual plants were sampled in three times in 2013 - spring  summer  and fall. The name of the sample includes a 1  2  or 3 which references a different individual of the species. Samples were taken to JPL and processed within 48 hours of collection. The same leaves were processed in the Nicolet and then measured using the ASD.
Measurement: Bidirectional reflectance
First Column: X
Second Column: Y
X Units: Wavelength (micrometers)
Y Units: Reflectance (percentage)
First X Value: 0.35
Last X Value: 2.5
Number of X Values: 2151
Additional Information: vegetation.shrub.ceanothus.spinosus.vswir.vh200.ucsb.asd.ancillary.txt

 0.3500	 8.5920
 0.3510	 8.8740
 0.3520	 8.9110
 0.3530	 8.8700
 0.3540	 8.9250
 0.3550	 8.8050
 0.3560	 8.7810
 0.3570	 8.8980
 0.3580	 9.0380
 0.3590	 8.8490
 0.3600	 8.7120
 0.3610	 8.8150
 0.3620	 8.9770
 0.3630	 9.0240
 0.3640	 8.9380
 0.3650	 8.7920
 0.3660	 8.7800
 0.3670	 8.8220
 0.3680	 8.8890
 0.3690	 8.9850
 0.3700	 8.9750
 0.3710	 8.9250
 0.3720	 8.8840
 0.3730	 8.8190
 0.3740	 8.7690
 0.3750	 8.7570
 0.3760	 8.7870
 0.3770	 8.7860
 0.3780	 8.7410
 0.3790	 8.7040
 0.3800	 8.7620
 0.3810	 8.7420
 0.3820	 8.6630
 0.3830	 8.5610
 0.3840	 8.4050
 0.3850	 8.5220
 0.3860	 8.7400
 0.3870	 8.7560
 0.3880	 8.6880
 0.3890	 8.6370
 0.3900	 8.6320
 0.3910	 8.6260
 0.3920	 8.5610
 0.3930	 8.5460
 0.3940	 8.6300
 0.3950	 8.6440
 0.3960	 8.6630
 0.3970	 8.6710
 0.3980	 8.6200
 0.3990	 8.5860
 0.4000	 8.5770
 0.4010	 8.5890
 0.4020	 8.6040
 0.4030	 8.5680
 0.4040	 8.5340
 0.4050	 8.5570
 0.4060	 8.6060
 0.4070	 8.6040
 0.4080	 8.5720
 0.4090	 8.5860
 0.4100	 8.5600
 0.4110	 8.5580
 0.4120	 8.6040
 0.4130	 8.6170
 0.4140	 8.6490
 0.4150	 8.6720
 0.4160	 8.6600
 0.4170	 8.6830
 0.4180	 8.6970
 0.4190	 8.6980
 0.4200	 8.7190
 0.4210	 8.7550
 0.4220	 8.7820
 0.4230	 8.7880
 0.4240	 8.7990
 0.4250	 8.8180
 0.4260	 8.8340
 0.4270	 8.8300
 0.4280	 8.8420
 0.4290	 8.8570
 0.4300	 8.8670
 0.4310	 8.8700
 0.4320	 8.8740
 0.4330	 8.8660
 0.4340	 8.8410
 0.4350	 8.8540
 0.4360	 8.8740
 0.4370	 8.8890
 0.4380	 8.9050
 0.4390	 8.9260
 0.4400	 8.9520
 0.4410	 8.9750
 0.4420	 8.9760
 0.4430	 8.9980
 0.4440	 9.0230
 0.4450	 9.0140
 0.4460	 9.0200
 0.4470	 9.0390
 0.4480	 9.0540
 0.4490	 9.0410
 0.4500	 9.0460
 0.4510	 9.0620
 0.4520	 9.0700
 0.4530	 9.0680
 0.4540	 9.0800
 0.4550	 9.0960
 0.4560	 9.0880
 0.4570	 9.0850
 0.4580	 9.0940
 0.4590	 9.1140
 0.4600	 9.1330
 0.4610	 9.1230
 0.4620	 9.1130
 0.4630	 9.1350
 0.4640	 9.1350
 0.4650	 9.1240
 0.4660	 9.1220
 0.4670	 9.1540
 0.4680	 9.1500
 0.4690	 9.1330
 0.4700	 9.1330
 0.4710	 9.1540
 0.4720	 9.1570
 0.4730	 9.1480
 0.4740	 9.1510
 0.4750	 9.1600
 0.4760	 9.1780
 0.4770	 9.1900
 0.4780	 9.1400
 0.4790	 9.1360
 0.4800	 9.1610
 0.4810	 9.1730
 0.4820	 9.1790
 0.4830	 9.1820
 0.4840	 9.1800
 0.4850	 9.1670
 0.4860	 9.1810
 0.4870	 9.2030
 0.4880	 9.2120
 0.4890	 9.2120
 0.4900	 9.2330
 0.4910	 9.2600
 0.4920	 9.2650
 0.4930	 9.2750
 0.4940	 9.3030
 0.4950	 9.3420
 0.4960	 9.3630
 0.4970	 9.4050
 0.4980	 9.4460
 0.4990	 9.4610
 0.5000	 9.4950
 0.5010	 9.5370
 0.5020	 9.5830
 0.5030	 9.6370
 0.5040	 9.6860
 0.5050	 9.7410
 0.5060	 9.8060
 0.5070	 9.8750
 0.5080	 9.9390
 0.5090	10.0070
 0.5100	10.0950
 0.5110	10.1950
 0.5120	10.3010
 0.5130	10.4110
 0.5140	10.5280
 0.5150	10.6550
 0.5160	10.7850
 0.5170	10.9140
 0.5180	11.0600
 0.5190	11.2140
 0.5200	11.3730
 0.5210	11.5360
 0.5220	11.6950
 0.5230	11.8510
 0.5240	12.0050
 0.5250	12.1530
 0.5260	12.3060
 0.5270	12.4560
 0.5280	12.5930
 0.5290	12.7240
 0.5300	12.8520
 0.5310	12.9740
 0.5320	13.0770
 0.5330	13.1720
 0.5340	13.2640
 0.5350	13.3590
 0.5360	13.4350
 0.5370	13.5040
 0.5380	13.5640
 0.5390	13.6120
 0.5400	13.6630
 0.5410	13.7040
 0.5420	13.7300
 0.5430	13.7640
 0.5440	13.7980
 0.5450	13.8360
 0.5460	13.8860
 0.5470	13.9600
 0.5480	14.0340
 0.5490	14.0890
 0.5500	14.1250
 0.5510	14.1410
 0.5520	14.1500
 0.5530	14.1630
 0.5540	14.1620
 0.5550	14.1530
 0.5560	14.1340
 0.5570	14.1010
 0.5580	14.0600
 0.5590	14.0160
 0.5600	13.9700
 0.5610	13.9120
 0.5620	13.8510
 0.5630	13.7850
 0.5640	13.7100
 0.5650	13.6320
 0.5660	13.5470
 0.5670	13.4540
 0.5680	13.3580
 0.5690	13.2610
 0.5700	13.1580
 0.5710	13.0510
 0.5720	12.9600
 0.5730	12.8810
 0.5740	12.8110
 0.5750	12.7430
 0.5760	12.6790
 0.5770	12.6240
 0.5780	12.5810
 0.5790	12.5540
 0.5800	12.5330
 0.5810	12.5110
 0.5820	12.4830
 0.5830	12.4350
 0.5840	12.3760
 0.5850	12.3140
 0.5860	12.2510
 0.5870	12.1870
 0.5880	12.1350
 0.5890	12.1030
 0.5900	12.0740
 0.5910	12.0500
 0.5920	12.0290
 0.5930	12.0060
 0.5940	11.9990
 0.5950	12.0000
 0.5960	11.9980
 0.5970	11.9770
 0.5980	11.9550
 0.5990	11.9390
 0.6000	11.9280
 0.6010	11.9110
 0.6020	11.8900
 0.6030	11.8680
 0.6040	11.8450
 0.6050	11.8230
 0.6060	11.7950
 0.6070	11.7600
 0.6080	11.7240
 0.6090	11.6760
 0.6100	11.6110
 0.6110	11.5350
 0.6120	11.5040
 0.6130	11.4910
 0.6140	11.4750
 0.6150	11.4590
 0.6160	11.4330
 0.6170	11.4030
 0.6180	11.3780
 0.6190	11.3510
 0.6200	11.3300
 0.6210	11.3150
 0.6220	11.3020
 0.6230	11.2890
 0.6240	11.2790
 0.6250	11.2750
 0.6260	11.2740
 0.6270	11.2750
 0.6280	11.2760
 0.6290	11.2770
 0.6300	11.2710
 0.6310	11.2710
 0.6320	11.2750
 0.6330	11.2650
 0.6340	11.2500
 0.6350	11.2270
 0.6360	11.1930
 0.6370	11.1560
 0.6380	11.1090
 0.6390	11.0510
 0.6400	10.9850
 0.6410	10.9240
 0.6420	10.8590
 0.6430	10.7890
 0.6440	10.7350
 0.6450	10.6760
 0.6460	10.6180
 0.6470	10.5690
 0.6480	10.5210
 0.6490	10.4830
 0.6500	10.4550
 0.6510	10.4340
 0.6520	10.4150
 0.6530	10.4000
 0.6540	10.3880
 0.6550	10.3740
 0.6560	10.3570
 0.6570	10.3360
 0.6580	10.3130
 0.6590	10.2880
 0.6600	10.2650
 0.6610	10.2420
 0.6620	10.2160
 0.6630	10.1880
 0.6640	10.1610
 0.6650	10.1390
 0.6660	10.1210
 0.6670	10.1110
 0.6680	10.1050
 0.6690	10.0970
 0.6700	10.1000
 0.6710	10.1060
 0.6720	10.1150
 0.6730	10.1320
 0.6740	10.1470
 0.6750	10.1660
 0.6760	10.1980
 0.6770	10.2310
 0.6780	10.2650
 0.6790	10.3040
 0.6800	10.3500
 0.6810	10.4030
 0.6820	10.4630
 0.6830	10.5330
 0.6840	10.6190
 0.6850	10.7210
 0.6860	10.8360
 0.6870	10.9680
 0.6880	11.1330
 0.6890	11.3350
 0.6900	11.5780
 0.6910	11.8720
 0.6920	12.2280
 0.6930	12.6480
 0.6940	13.1320
 0.6950	13.6850
 0.6960	14.3160
 0.6970	15.0240
 0.6980	15.8040
 0.6990	16.6450
 0.7000	17.5410
 0.7010	18.4850
 0.7020	19.4670
 0.7030	20.4740
 0.7040	21.5000
 0.7050	22.5370
 0.7060	23.5720
 0.7070	24.6030
 0.7080	25.6310
 0.7090	26.6580
 0.7100	27.6600
 0.7110	28.6410
 0.7120	29.6040
 0.7130	30.5460
 0.7140	31.4720
 0.7150	32.3800
 0.7160	33.2620
 0.7170	34.1080
 0.7180	34.9260
 0.7190	35.7210
 0.7200	36.4960
 0.7210	37.2320
 0.7220	37.9430
 0.7230	38.6320
 0.7240	39.2830
 0.7250	39.9060
 0.7260	40.5060
 0.7270	41.0780
 0.7280	41.6060
 0.7290	42.1130
 0.7300	42.6000
 0.7310	43.0560
 0.7320	43.4970
 0.7330	43.9030
 0.7340	44.2720
 0.7350	44.6240
 0.7360	44.9640
 0.7370	45.2860
 0.7380	45.5850
 0.7390	45.8660
 0.7400	46.1280
 0.7410	46.3690
 0.7420	46.5920
 0.7430	46.8020
 0.7440	47.0020
 0.7450	47.1890
 0.7460	47.3560
 0.7470	47.4990
 0.7480	47.6390
 0.7490	47.7820
 0.7500	47.9050
 0.7510	48.0050
 0.7520	48.0920
 0.7530	48.1830
 0.7540	48.2730
 0.7550	48.3550
 0.7560	48.4240
 0.7570	48.4850
 0.7580	48.5370
 0.7590	48.5820
 0.7600	48.6270
 0.7610	48.6810
 0.7620	48.7210
 0.7630	48.7510
 0.7640	48.7820
 0.7650	48.8180
 0.7660	48.8480
 0.7670	48.8740
 0.7680	48.9040
 0.7690	48.9070
 0.7700	48.9150
 0.7710	48.9430
 0.7720	48.9700
 0.7730	48.9960
 0.7740	49.0140
 0.7750	49.0210
 0.7760	49.0340
 0.7770	49.0560
 0.7780	49.0790
 0.7790	49.0880
 0.7800	49.0920
 0.7810	49.1000
 0.7820	49.1180
 0.7830	49.1480
 0.7840	49.1590
 0.7850	49.1760
 0.7860	49.2100
 0.7870	49.2110
 0.7880	49.2130
 0.7890	49.2300
 0.7900	49.2610
 0.7910	49.2770
 0.7920	49.2950
 0.7930	49.3140
 0.7940	49.3260
 0.7950	49.3330
 0.7960	49.3470
 0.7970	49.3720
 0.7980	49.4020
 0.7990	49.4040
 0.8000	49.4070
 0.8010	49.4310
 0.8020	49.4460
 0.8030	49.4620
 0.8040	49.4780
 0.8050	49.4900
 0.8060	49.5230
 0.8070	49.5520
 0.8080	49.5620
 0.8090	49.5590
 0.8100	49.5710
 0.8110	49.5950
 0.8120	49.6220
 0.8130	49.6500
 0.8140	49.6520
 0.8150	49.6580
 0.8160	49.6930
 0.8170	49.7230
 0.8180	49.7390
 0.8190	49.7430
 0.8200	49.7430
 0.8210	49.7630
 0.8220	49.7910
 0.8230	49.8160
 0.8240	49.8350
 0.8250	49.8400
 0.8260	49.8540
 0.8270	49.8790
 0.8280	49.8880
 0.8290	49.9040
 0.8300	49.9170
 0.8310	49.9230
 0.8320	49.9430
 0.8330	49.9570
 0.8340	49.9730
 0.8350	50.0050
 0.8360	50.0190
 0.8370	50.0280
 0.8380	50.0390
 0.8390	50.0540
 0.8400	50.0590
 0.8410	50.0690
 0.8420	50.0940
 0.8430	50.1290
 0.8440	50.1360
 0.8450	50.1480
 0.8460	50.1830
 0.8470	50.1880
 0.8480	50.1800
 0.8490	50.1850
 0.8500	50.2180
 0.8510	50.2410
 0.8520	50.2440
 0.8530	50.2420
 0.8540	50.2610
 0.8550	50.2910
 0.8560	50.2910
 0.8570	50.2800
 0.8580	50.3260
 0.8590	50.3370
 0.8600	50.3290
 0.8610	50.3290
 0.8620	50.3490
 0.8630	50.3610
 0.8640	50.3790
 0.8650	50.4070
 0.8660	50.4130
 0.8670	50.4150
 0.8680	50.4130
 0.8690	50.4090
 0.8700	50.4190
 0.8710	50.4250
 0.8720	50.4350
 0.8730	50.4640
 0.8740	50.4590
 0.8750	50.4540
 0.8760	50.4650
 0.8770	50.4790
 0.8780	50.4680
 0.8790	50.4730
 0.8800	50.5050
 0.8810	50.5120
 0.8820	50.4960
 0.8830	50.4740
 0.8840	50.4720
 0.8850	50.5230
 0.8860	50.5210
 0.8870	50.4930
 0.8880	50.4930
 0.8890	50.5100
 0.8900	50.5110
 0.8910	50.5030
 0.8920	50.5060
 0.8930	50.5120
 0.8940	50.5220
 0.8950	50.5330
 0.8960	50.5410
 0.8970	50.5430
 0.8980	50.5250
 0.8990	50.5020
 0.9000	50.5080
 0.9010	50.5040
 0.9020	50.5070
 0.9030	50.5210
 0.9040	50.5230
 0.9050	50.5120
 0.9060	50.4970
 0.9070	50.4930
 0.9080	50.5120
 0.9090	50.5080
 0.9100	50.4960
 0.9110	50.4960
 0.9120	50.4830
 0.9130	50.4950
 0.9140	50.5120
 0.9150	50.5030
 0.9160	50.4940
 0.9170	50.4850
 0.9180	50.4760
 0.9190	50.4650
 0.9200	50.4720
 0.9210	50.4800
 0.9220	50.4720
 0.9230	50.4410
 0.9240	50.4500
 0.9250	50.4560
 0.9260	50.4440
 0.9270	50.4250
 0.9280	50.4110
 0.9290	50.4100
 0.9300	50.4080
 0.9310	50.3850
 0.9320	50.3710
 0.9330	50.3470
 0.9340	50.3100
 0.9350	50.2850
 0.9360	50.2970
 0.9370	50.3200
 0.9380	50.3230
 0.9390	50.2760
 0.9400	50.2360
 0.9410	50.2190
 0.9420	50.2130
 0.9430	50.1790
 0.9440	50.1650
 0.9450	50.1500
 0.9460	50.1060
 0.9470	50.0360
 0.9480	50.0210
 0.9490	50.0170
 0.9500	49.9740
 0.9510	49.9260
 0.9520	49.8830
 0.9530	49.8400
 0.9540	49.7930
 0.9550	49.7640
 0.9560	49.6980
 0.9570	49.6310
 0.9580	49.6000
 0.9590	49.5430
 0.9600	49.5020
 0.9610	49.4790
 0.9620	49.4560
 0.9630	49.3980
 0.9640	49.3540
 0.9650	49.3380
 0.9660	49.3370
 0.9670	49.3030
 0.9680	49.2870
 0.9690	49.2810
 0.9700	49.2600
 0.9710	49.2650
 0.9720	49.2660
 0.9730	49.2580
 0.9740	49.2500
 0.9750	49.2450
 0.9760	49.2480
 0.9770	49.2600
 0.9780	49.2760
 0.9790	49.2720
 0.9800	49.2200
 0.9810	49.1760
 0.9820	49.2140
 0.9830	49.2580
 0.9840	49.2660
 0.9850	49.2650
 0.9860	49.2980
 0.9870	49.3200
 0.9880	49.3450
 0.9890	49.3610
 0.9900	49.3560
 0.9910	49.3920
 0.9920	49.4280
 0.9930	49.4650
 0.9940	49.5010
 0.9950	49.5380
 0.9960	49.5740
 0.9970	49.6100
 0.9980	49.6470
 0.9990	49.6830
 1.0000	49.7200
 1.0010	49.7560
 1.0020	49.7930
 1.0030	49.8290
 1.0040	49.8650
 1.0050	49.9020
 1.0060	49.9380
 1.0070	49.9750
 1.0080	50.0110
 1.0090	50.0480
 1.0100	50.0480
 1.0110	50.0620
 1.0120	50.0820
 1.0130	50.1110
 1.0140	50.1350
 1.0150	50.1570
 1.0160	50.1770
 1.0170	50.2090
 1.0180	50.2350
 1.0190	50.2500
 1.0200	50.2710
 1.0210	50.2870
 1.0220	50.3000
 1.0230	50.3220
 1.0240	50.3570
 1.0250	50.3810
 1.0260	50.4010
 1.0270	50.4240
 1.0280	50.4470
 1.0290	50.4660
 1.0300	50.4880
 1.0310	50.5060
 1.0320	50.5180
 1.0330	50.5270
 1.0340	50.5450
 1.0350	50.5650
 1.0360	50.5820
 1.0370	50.6020
 1.0380	50.6230
 1.0390	50.6430
 1.0400	50.6620
 1.0410	50.6890
 1.0420	50.7030
 1.0430	50.7060
 1.0440	50.7160
 1.0450	50.7290
 1.0460	50.7360
 1.0470	50.7420
 1.0480	50.7480
 1.0490	50.7430
 1.0500	50.7470
 1.0510	50.7530
 1.0520	50.7730
 1.0530	50.7790
 1.0540	50.7850
 1.0550	50.7970
 1.0560	50.8090
 1.0570	50.8130
 1.0580	50.8180
 1.0590	50.8250
 1.0600	50.8230
 1.0610	50.8240
 1.0620	50.8350
 1.0630	50.8400
 1.0640	50.8340
 1.0650	50.8370
 1.0660	50.8500
 1.0670	50.8560
 1.0680	50.8600
 1.0690	50.8630
 1.0700	50.8670
 1.0710	50.8690
 1.0720	50.8660
 1.0730	50.8600
 1.0740	50.8620
 1.0750	50.8650
 1.0760	50.8620
 1.0770	50.8630
 1.0780	50.8600
 1.0790	50.8450
 1.0800	50.8400
 1.0810	50.8470
 1.0820	50.8470
 1.0830	50.8490
 1.0840	50.8470
 1.0850	50.8410
 1.0860	50.8320
 1.0870	50.8260
 1.0880	50.8140
 1.0890	50.8130
 1.0900	50.8200
 1.0910	50.8150
 1.0920	50.8070
 1.0930	50.8000
 1.0940	50.7830
 1.0950	50.7730
 1.0960	50.7700
 1.0970	50.7640
 1.0980	50.7560
 1.0990	50.7480
 1.1000	50.7400
 1.1010	50.7330
 1.1020	50.7240
 1.1030	50.7220
 1.1040	50.7130
 1.1050	50.6990
 1.1060	50.6900
 1.1070	50.6790
 1.1080	50.6670
 1.1090	50.6590
 1.1100	50.6460
 1.1110	50.6270
 1.1120	50.6100
 1.1130	50.5920
 1.1140	50.5740
 1.1150	50.5530
 1.1160	50.5330
 1.1170	50.5130
 1.1180	50.4930
 1.1190	50.4750
 1.1200	50.4580
 1.1210	50.4360
 1.1220	50.4100
 1.1230	50.3800
 1.1240	50.3410
 1.1250	50.3010
 1.1260	50.2560
 1.1270	50.2090
 1.1280	50.1590
 1.1290	50.1030
 1.1300	50.0460
 1.1310	49.9810
 1.1320	49.9140
 1.1330	49.8370
 1.1340	49.7460
 1.1350	49.6600
 1.1360	49.5690
 1.1370	49.4800
 1.1380	49.3910
 1.1390	49.2970
 1.1400	49.1980
 1.1410	49.0970
 1.1420	48.9890
 1.1430	48.8810
 1.1440	48.7680
 1.1450	48.6450
 1.1460	48.5300
 1.1470	48.4180
 1.1480	48.3050
 1.1490	48.1910
 1.1500	48.0810
 1.1510	47.9640
 1.1520	47.8620
 1.1530	47.7660
 1.1540	47.6820
 1.1550	47.6110
 1.1560	47.5450
 1.1570	47.4820
 1.1580	47.4230
 1.1590	47.3710
 1.1600	47.3270
 1.1610	47.2960
 1.1620	47.2700
 1.1630	47.2470
 1.1640	47.2260
 1.1650	47.2060
 1.1660	47.1880
 1.1670	47.1730
 1.1680	47.1610
 1.1690	47.1510
 1.1700	47.1500
 1.1710	47.1410
 1.1720	47.1250
 1.1730	47.1180
 1.1740	47.1140
 1.1750	47.1040
 1.1760	47.1030
 1.1770	47.1070
 1.1780	47.1020
 1.1790	47.0990
 1.1800	47.1000
 1.1810	47.0980
 1.1820	47.0940
 1.1830	47.0890
 1.1840	47.0830
 1.1850	47.0800
 1.1860	47.0780
 1.1870	47.0790
 1.1880	47.0780
 1.1890	47.0760
 1.1900	47.0730
 1.1910	47.0670
 1.1920	47.0650
 1.1930	47.0680
 1.1940	47.0680
 1.1950	47.0670
 1.1960	47.0680
 1.1970	47.0670
 1.1980	47.0700
 1.1990	47.0800
 1.2000	47.0970
 1.2010	47.1160
 1.2020	47.1320
 1.2030	47.1430
 1.2040	47.1530
 1.2050	47.1710
 1.2060	47.1900
 1.2070	47.2130
 1.2080	47.2340
 1.2090	47.2520
 1.2100	47.2720
 1.2110	47.2900
 1.2120	47.3080
 1.2130	47.3290
 1.2140	47.3490
 1.2150	47.3710
 1.2160	47.3970
 1.2170	47.4240
 1.2180	47.4460
 1.2190	47.4710
 1.2200	47.4970
 1.2210	47.5210
 1.2220	47.5490
 1.2230	47.5750
 1.2240	47.6020
 1.2250	47.6260
 1.2260	47.6430
 1.2270	47.6640
 1.2280	47.6840
 1.2290	47.7020
 1.2300	47.7260
 1.2310	47.7480
 1.2320	47.7610
 1.2330	47.7810
 1.2340	47.8010
 1.2350	47.8190
 1.2360	47.8360
 1.2370	47.8580
 1.2380	47.8760
 1.2390	47.8870
 1.2400	47.9040
 1.2410	47.9240
 1.2420	47.9390
 1.2430	47.9560
 1.2440	47.9720
 1.2450	47.9830
 1.2460	47.9960
 1.2470	48.0100
 1.2480	48.0260
 1.2490	48.0470
 1.2500	48.0600
 1.2510	48.0730
 1.2520	48.0790
 1.2530	48.0820
 1.2540	48.0950
 1.2550	48.1030
 1.2560	48.1150
 1.2570	48.1280
 1.2580	48.1340
 1.2590	48.1400
 1.2600	48.1440
 1.2610	48.1460
 1.2620	48.1460
 1.2630	48.1460
 1.2640	48.1450
 1.2650	48.1470
 1.2660	48.1510
 1.2670	48.1500
 1.2680	48.1480
 1.2690	48.1490
 1.2700	48.1470
 1.2710	48.1430
 1.2720	48.1430
 1.2730	48.1430
 1.2740	48.1420
 1.2750	48.1390
 1.2760	48.1350
 1.2770	48.1220
 1.2780	48.1050
 1.2790	48.0890
 1.2800	48.0760
 1.2810	48.0630
 1.2820	48.0520
 1.2830	48.0360
 1.2840	48.0140
 1.2850	47.9890
 1.2860	47.9620
 1.2870	47.9390
 1.2880	47.9160
 1.2890	47.8930
 1.2900	47.8700
 1.2910	47.8450
 1.2920	47.8150
 1.2930	47.7870
 1.2940	47.7590
 1.2950	47.7280
 1.2960	47.6970
 1.2970	47.6620
 1.2980	47.6260
 1.2990	47.5940
 1.3000	47.5570
 1.3010	47.5150
 1.3020	47.4690
 1.3030	47.4180
 1.3040	47.3690
 1.3050	47.3170
 1.3060	47.2630
 1.3070	47.2080
 1.3080	47.1490
 1.3090	47.0870
 1.3100	47.0220
 1.3110	46.9510
 1.3120	46.8780
 1.3130	46.8050
 1.3140	46.7290
 1.3150	46.6520
 1.3160	46.5730
 1.3170	46.4930
 1.3180	46.4060
 1.3190	46.3170
 1.3200	46.2270
 1.3210	46.1340
 1.3220	46.0410
 1.3230	45.9430
 1.3240	45.8430
 1.3250	45.7410
 1.3260	45.6390
 1.3270	45.5370
 1.3280	45.4250
 1.3290	45.3060
 1.3300	45.1870
 1.3310	45.0580
 1.3320	44.9320
 1.3330	44.8100
 1.3340	44.6830
 1.3350	44.5600
 1.3360	44.4400
 1.3370	44.3150
 1.3380	44.1870
 1.3390	44.0560
 1.3400	43.9250
 1.3410	43.7980
 1.3420	43.6720
 1.3430	43.5460
 1.3440	43.4180
 1.3450	43.2910
 1.3460	43.1630
 1.3470	43.0370
 1.3480	42.9110
 1.3490	42.7870
 1.3500	42.6640
 1.3510	42.5400
 1.3520	42.4190
 1.3530	42.2970
 1.3540	42.1740
 1.3550	42.0530
 1.3560	41.9300
 1.3570	41.8090
 1.3580	41.6910
 1.3590	41.5680
 1.3600	41.4460
 1.3610	41.3230
 1.3620	41.1880
 1.3630	41.0510
 1.3640	40.9130
 1.3650	40.7650
 1.3660	40.6140
 1.3670	40.4590
 1.3680	40.2920
 1.3690	40.1110
 1.3700	39.9260
 1.3710	39.7320
 1.3720	39.5250
 1.3730	39.3070
 1.3740	39.0760
 1.3750	38.8270
 1.3760	38.5590
 1.3770	38.2720
 1.3780	37.9650
 1.3790	37.6370
 1.3800	37.2920
 1.3810	36.9270
 1.3820	36.5440
 1.3830	36.1440
 1.3840	35.7240
 1.3850	35.2840
 1.3860	34.8280
 1.3870	34.3490
 1.3880	33.8660
 1.3890	33.3690
 1.3900	32.8590
 1.3910	32.3480
 1.3920	31.8260
 1.3930	31.2960
 1.3940	30.7680
 1.3950	30.2360
 1.3960	29.7070
 1.3970	29.1830
 1.3980	28.6670
 1.3990	28.1660
 1.4000	27.6770
 1.4010	27.2020
 1.4020	26.7400
 1.4030	26.2870
 1.4040	25.8490
 1.4050	25.4310
 1.4060	25.0330
 1.4070	24.6570
 1.4080	24.3010
 1.4090	23.9600
 1.4100	23.6410
 1.4110	23.3410
 1.4120	23.0630
 1.4130	22.8060
 1.4140	22.5680
 1.4150	22.3510
 1.4160	22.1470
 1.4170	21.9590
 1.4180	21.7860
 1.4190	21.6270
 1.4200	21.4830
 1.4210	21.3540
 1.4220	21.2370
 1.4230	21.1320
 1.4240	21.0350
 1.4250	20.9470
 1.4260	20.8660
 1.4270	20.7960
 1.4280	20.7370
 1.4290	20.6850
 1.4300	20.6440
 1.4310	20.6060
 1.4320	20.5740
 1.4330	20.5470
 1.4340	20.5270
 1.4350	20.5100
 1.4360	20.4980
 1.4370	20.4900
 1.4380	20.4890
 1.4390	20.4920
 1.4400	20.4980
 1.4410	20.5080
 1.4420	20.5190
 1.4430	20.5330
 1.4440	20.5510
 1.4450	20.5740
 1.4460	20.5960
 1.4470	20.6200
 1.4480	20.6460
 1.4490	20.6700
 1.4500	20.6970
 1.4510	20.7230
 1.4520	20.7510
 1.4530	20.7810
 1.4540	20.8120
 1.4550	20.8440
 1.4560	20.8750
 1.4570	20.9070
 1.4580	20.9420
 1.4590	20.9800
 1.4600	21.0240
 1.4610	21.0700
 1.4620	21.1200
 1.4630	21.1740
 1.4640	21.2280
 1.4650	21.2850
 1.4660	21.3470
 1.4670	21.4150
 1.4680	21.4880
 1.4690	21.5630
 1.4700	21.6400
 1.4710	21.7190
 1.4720	21.8010
 1.4730	21.8880
 1.4740	21.9790
 1.4750	22.0730
 1.4760	22.1710
 1.4770	22.2730
 1.4780	22.3780
 1.4790	22.4840
 1.4800	22.5880
 1.4810	22.6970
 1.4820	22.8090
 1.4830	22.9210
 1.4840	23.0360
 1.4850	23.1510
 1.4860	23.2640
 1.4870	23.3770
 1.4880	23.4890
 1.4890	23.5990
 1.4900	23.7110
 1.4910	23.8210
 1.4920	23.9350
 1.4930	24.0530
 1.4940	24.1670
 1.4950	24.2830
 1.4960	24.3960
 1.4970	24.5040
 1.4980	24.6170
 1.4990	24.7320
 1.5000	24.8450
 1.5010	24.9580
 1.5020	25.0700
 1.5030	25.1790
 1.5040	25.2880
 1.5050	25.3980
 1.5060	25.5060
 1.5070	25.6110
 1.5080	25.7170
 1.5090	25.8240
 1.5100	25.9270
 1.5110	26.0290
 1.5120	26.1320
 1.5130	26.2320
 1.5140	26.3340
 1.5150	26.4340
 1.5160	26.5350
 1.5170	26.6360
 1.5180	26.7350
 1.5190	26.8350
 1.5200	26.9320
 1.5210	27.0280
 1.5220	27.1230
 1.5230	27.2190
 1.5240	27.3150
 1.5250	27.4060
 1.5260	27.4960
 1.5270	27.5830
 1.5280	27.6670
 1.5290	27.7540
 1.5300	27.8410
 1.5310	27.9270
 1.5320	28.0140
 1.5330	28.1010
 1.5340	28.1870
 1.5350	28.2720
 1.5360	28.3570
 1.5370	28.4390
 1.5380	28.5190
 1.5390	28.6000
 1.5400	28.6760
 1.5410	28.7530
 1.5420	28.8310
 1.5430	28.9060
 1.5440	28.9820
 1.5450	29.0600
 1.5460	29.1350
 1.5470	29.2070
 1.5480	29.2780
 1.5490	29.3490
 1.5500	29.4180
 1.5510	29.4860
 1.5520	29.5540
 1.5530	29.6200
 1.5540	29.6840
 1.5550	29.7490
 1.5560	29.8170
 1.5570	29.8840
 1.5580	29.9500
 1.5590	30.0160
 1.5600	30.0830
 1.5610	30.1490
 1.5620	30.2150
 1.5630	30.2790
 1.5640	30.3440
 1.5650	30.4060
 1.5660	30.4630
 1.5670	30.5210
 1.5680	30.5760
 1.5690	30.6290
 1.5700	30.6860
 1.5710	30.7440
 1.5720	30.8020
 1.5730	30.8610
 1.5740	30.9210
 1.5750	30.9780
 1.5760	31.0340
 1.5770	31.0920
 1.5780	31.1470
 1.5790	31.2030
 1.5800	31.2620
 1.5810	31.3160
 1.5820	31.3670
 1.5830	31.4180
 1.5840	31.4650
 1.5850	31.5170
 1.5860	31.5690
 1.5870	31.6180
 1.5880	31.6690
 1.5890	31.7140
 1.5900	31.7580
 1.5910	31.8070
 1.5920	31.8560
 1.5930	31.9020
 1.5940	31.9540
 1.5950	32.0040
 1.5960	32.0540
 1.5970	32.1060
 1.5980	32.1590
 1.5990	32.2080
 1.6000	32.2550
 1.6010	32.3030
 1.6020	32.3500
 1.6030	32.3940
 1.6040	32.4430
 1.6050	32.4930
 1.6060	32.5400
 1.6070	32.5900
 1.6080	32.6360
 1.6090	32.6800
 1.6100	32.7230
 1.6110	32.7630
 1.6120	32.8020
 1.6130	32.8400
 1.6140	32.8820
 1.6150	32.9250
 1.6160	32.9640
 1.6170	33.0050
 1.6180	33.0420
 1.6190	33.0760
 1.6200	33.1140
 1.6210	33.1490
 1.6220	33.1820
 1.6230	33.2130
 1.6240	33.2410
 1.6250	33.2690
 1.6260	33.2920
 1.6270	33.3140
 1.6280	33.3430
 1.6290	33.3690
 1.6300	33.3930
 1.6310	33.4200
 1.6320	33.4440
 1.6330	33.4700
 1.6340	33.5030
 1.6350	33.5310
 1.6360	33.5560
 1.6370	33.5790
 1.6380	33.5990
 1.6390	33.6150
 1.6400	33.6270
 1.6410	33.6390
 1.6420	33.6500
 1.6430	33.6570
 1.6440	33.6630
 1.6450	33.6660
 1.6460	33.6620
 1.6470	33.6580
 1.6480	33.6490
 1.6490	33.6390
 1.6500	33.6270
 1.6510	33.6080
 1.6520	33.5900
 1.6530	33.5680
 1.6540	33.5400
 1.6550	33.5140
 1.6560	33.4890
 1.6570	33.4630
 1.6580	33.4370
 1.6590	33.4140
 1.6600	33.3940
 1.6610	33.3740
 1.6620	33.3570
 1.6630	33.3410
 1.6640	33.3270
 1.6650	33.3190
 1.6660	33.3110
 1.6670	33.3040
 1.6680	33.3010
 1.6690	33.2950
 1.6700	33.2920
 1.6710	33.2960
 1.6720	33.2950
 1.6730	33.2920
 1.6740	33.2900
 1.6750	33.2850
 1.6760	33.2800
 1.6770	33.2750
 1.6780	33.2680
 1.6790	33.2660
 1.6800	33.2610
 1.6810	33.2510
 1.6820	33.2430
 1.6830	33.2320
 1.6840	33.2180
 1.6850	33.2110
 1.6860	33.2020
 1.6870	33.1870
 1.6880	33.1700
 1.6890	33.1550
 1.6900	33.1320
 1.6910	33.1010
 1.6920	33.0730
 1.6930	33.0360
 1.6940	33.0070
 1.6950	32.9860
 1.6960	32.9590
 1.6970	32.9300
 1.6980	32.9010
 1.6990	32.8720
 1.7000	32.8400
 1.7010	32.8070
 1.7020	32.7760
 1.7030	32.7460
 1.7040	32.7120
 1.7050	32.6810
 1.7060	32.6470
 1.7070	32.6080
 1.7080	32.5710
 1.7090	32.5370
 1.7100	32.4980
 1.7110	32.4580
 1.7120	32.4150
 1.7130	32.3750
 1.7140	32.3280
 1.7150	32.2780
 1.7160	32.2310
 1.7170	32.1790
 1.7180	32.1350
 1.7190	32.0930
 1.7200	32.0480
 1.7210	32.0060
 1.7220	31.9650
 1.7230	31.9230
 1.7240	31.8860
 1.7250	31.8490
 1.7260	31.8080
 1.7270	31.7690
 1.7280	31.7290
 1.7290	31.6870
 1.7300	31.6510
 1.7310	31.6130
 1.7320	31.5780
 1.7330	31.5410
 1.7340	31.4990
 1.7350	31.4600
 1.7360	31.4190
 1.7370	31.3840
 1.7380	31.3520
 1.7390	31.3200
 1.7400	31.2950
 1.7410	31.2600
 1.7420	31.2180
 1.7430	31.1800
 1.7440	31.1390
 1.7450	31.0970
 1.7460	31.0570
 1.7470	31.0160
 1.7480	30.9680
 1.7490	30.9270
 1.7500	30.8930
 1.7510	30.8500
 1.7520	30.8050
 1.7530	30.7620
 1.7540	30.7150
 1.7550	30.6720
 1.7560	30.6300
 1.7570	30.5930
 1.7580	30.5590
 1.7590	30.5360
 1.7600	30.5110
 1.7610	30.4850
 1.7620	30.4540
 1.7630	30.4150
 1.7640	30.3800
 1.7650	30.3410
 1.7660	30.3070
 1.7670	30.2800
 1.7680	30.2500
 1.7690	30.2220
 1.7700	30.1890
 1.7710	30.1460
 1.7720	30.1150
 1.7730	30.0880
 1.7740	30.0630
 1.7750	30.0520
 1.7760	30.0290
 1.7770	29.9990
 1.7780	29.9730
 1.7790	29.9420
 1.7800	29.9220
 1.7810	29.9080
 1.7820	29.8940
 1.7830	29.8880
 1.7840	29.8740
 1.7850	29.8600
 1.7860	29.8430
 1.7870	29.8230
 1.7880	29.8060
 1.7890	29.7950
 1.7900	29.7850
 1.7910	29.7720
 1.7920	29.7510
 1.7930	29.7370
 1.7940	29.7180
 1.7950	29.7100
 1.7960	29.7120
 1.7970	29.7120
 1.7980	29.7180
 1.7990	29.7240
 1.8000	29.7300
 1.8010	29.7350
 1.8020	29.7410
 1.8030	29.7450
 1.8040	29.7430
 1.8050	29.7480
 1.8060	29.7580
 1.8070	29.7630
 1.8080	29.7720
 1.8090	29.7780
 1.8100	29.7780
 1.8110	29.7890
 1.8120	29.8000
 1.8130	29.8090
 1.8140	29.8200
 1.8150	29.8250
 1.8160	29.8290
 1.8170	29.8350
 1.8180	29.8280
 1.8190	29.8060
 1.8200	29.7960
 1.8210	29.7850
 1.8220	29.7790
 1.8230	29.7870
 1.8240	29.7840
 1.8250	29.7700
 1.8260	29.7670
 1.8270	29.6830
 1.8280	29.5990
 1.8290	29.5150
 1.8300	29.4310
 1.8310	29.3470
 1.8320	29.2630
 1.8330	29.1790
 1.8340	29.0950
 1.8350	29.0950
 1.8360	29.0680
 1.8370	29.0460
 1.8380	29.0190
 1.8390	28.9820
 1.8400	28.9390
 1.8410	28.8990
 1.8420	28.8570
 1.8430	28.7990
 1.8440	28.7520
 1.8450	28.6980
 1.8460	28.6290
 1.8470	28.5650
 1.8480	28.4880
 1.8490	28.3910
 1.8500	28.2940
 1.8510	28.1940
 1.8520	28.0810
 1.8530	27.9540
 1.8540	27.8250
 1.8550	27.6810
 1.8560	27.5240
 1.8570	27.3680
 1.8580	27.1980
 1.8590	27.0090
 1.8600	26.8050
 1.8610	26.5910
 1.8620	26.3610
 1.8630	26.1150
 1.8640	25.8660
 1.8650	25.6070
 1.8660	25.3230
 1.8670	25.0240
 1.8680	24.7090
 1.8690	24.3730
 1.8700	24.0290
 1.8710	23.6730
 1.8720	23.3160
 1.8730	22.9390
 1.8740	22.5520
 1.8750	22.1560
 1.8760	21.7370
 1.8770	21.3220
 1.8780	20.9000
 1.8790	20.4600
 1.8800	20.0270
 1.8810	19.5950
 1.8820	19.1520
 1.8830	18.7080
 1.8840	18.2770
 1.8850	17.8540
 1.8860	17.4430
 1.8870	17.0380
 1.8880	16.6440
 1.8890	16.2540
 1.8900	15.8660
 1.8910	15.5070
 1.8920	15.1660
 1.8930	14.8530
 1.8940	14.5600
 1.8950	14.2960
 1.8960	14.0510
 1.8970	13.8210
 1.8980	13.6110
 1.8990	13.4120
 1.9000	13.2240
 1.9010	13.0480
 1.9020	12.8870
 1.9030	12.7370
 1.9040	12.6020
 1.9050	12.4920
 1.9060	12.3970
 1.9070	12.3140
 1.9080	12.2410
 1.9090	12.1790
 1.9100	12.1200
 1.9110	12.0660
 1.9120	12.0170
 1.9130	11.9810
 1.9140	11.9510
 1.9150	11.9240
 1.9160	11.9180
 1.9170	11.9090
 1.9180	11.8930
 1.9190	11.8730
 1.9200	11.8550
 1.9210	11.8420
 1.9220	11.8340
 1.9230	11.8360
 1.9240	11.8380
 1.9250	11.8390
 1.9260	11.8460
 1.9270	11.8550
 1.9280	11.8660
 1.9290	11.8880
 1.9300	11.9000
 1.9310	11.9190
 1.9320	11.9440
 1.9330	11.9610
 1.9340	11.9710
 1.9350	11.9890
 1.9360	12.0030
 1.9370	12.0230
 1.9380	12.0450
 1.9390	12.0750
 1.9400	12.1040
 1.9410	12.1250
 1.9420	12.1490
 1.9430	12.1750
 1.9440	12.2020
 1.9450	12.2280
 1.9460	12.2530
 1.9470	12.2790
 1.9480	12.3060
 1.9490	12.3260
 1.9500	12.3640
 1.9510	12.4080
 1.9520	12.4370
 1.9530	12.4670
 1.9540	12.4910
 1.9550	12.5240
 1.9560	12.5530
 1.9570	12.5930
 1.9580	12.6480
 1.9590	12.6940
 1.9600	12.7430
 1.9610	12.7890
 1.9620	12.8350
 1.9630	12.8740
 1.9640	12.9190
 1.9650	12.9690
 1.9660	13.0170
 1.9670	13.0700
 1.9680	13.1210
 1.9690	13.1730
 1.9700	13.2240
 1.9710	13.2750
 1.9720	13.3260
 1.9730	13.3770
 1.9740	13.4250
 1.9750	13.4780
 1.9760	13.5260
 1.9770	13.5750
 1.9780	13.6300
 1.9790	13.6840
 1.9800	13.7370
 1.9810	13.7940
 1.9820	13.8550
 1.9830	13.9140
 1.9840	13.9810
 1.9850	14.0400
 1.9860	14.0950
 1.9870	14.1530
 1.9880	14.2010
 1.9890	14.2520
 1.9900	14.3220
 1.9910	14.3880
 1.9920	14.4510
 1.9930	14.5210
 1.9940	14.5830
 1.9950	14.6290
 1.9960	14.6870
 1.9970	14.7460
 1.9980	14.8090
 1.9990	14.8790
 2.0000	14.9480
 2.0010	15.0160
 2.0020	15.0790
 2.0030	15.1400
 2.0040	15.2020
 2.0050	15.2660
 2.0060	15.3330
 2.0070	15.4000
 2.0080	15.4680
 2.0090	15.5320
 2.0100	15.6000
 2.0110	15.6600
 2.0120	15.7140
 2.0130	15.7670
 2.0140	15.8190
 2.0150	15.8630
 2.0160	15.9070
 2.0170	15.9550
 2.0180	16.0040
 2.0190	16.0550
 2.0200	16.1060
 2.0210	16.1600
 2.0220	16.2100
 2.0230	16.2610
 2.0240	16.3070
 2.0250	16.3470
 2.0260	16.3900
 2.0270	16.4330
 2.0280	16.4720
 2.0290	16.5110
 2.0300	16.5610
 2.0310	16.6050
 2.0320	16.6530
 2.0330	16.6900
 2.0340	16.7200
 2.0350	16.7520
 2.0360	16.7780
 2.0370	16.8070
 2.0380	16.8400
 2.0390	16.8680
 2.0400	16.8830
 2.0410	16.9100
 2.0420	16.9470
 2.0430	16.9800
 2.0440	17.0080
 2.0450	17.0430
 2.0460	17.0640
 2.0470	17.0680
 2.0480	17.0850
 2.0490	17.1010
 2.0500	17.1230
 2.0510	17.1590
 2.0520	17.1840
 2.0530	17.2090
 2.0540	17.2330
 2.0550	17.2510
 2.0560	17.2660
 2.0570	17.2870
 2.0580	17.3180
 2.0590	17.3450
 2.0600	17.3810
 2.0610	17.4000
 2.0620	17.4100
 2.0630	17.4270
 2.0640	17.4350
 2.0650	17.4530
 2.0660	17.4790
 2.0670	17.5050
 2.0680	17.5340
 2.0690	17.5600
 2.0700	17.5890
 2.0710	17.6130
 2.0720	17.6370
 2.0730	17.6510
 2.0740	17.6700
 2.0750	17.6870
 2.0760	17.7060
 2.0770	17.7260
 2.0780	17.7470
 2.0790	17.7710
 2.0800	17.7880
 2.0810	17.7980
 2.0820	17.8150
 2.0830	17.8290
 2.0840	17.8460
 2.0850	17.8720
 2.0860	17.8910
 2.0870	17.9100
 2.0880	17.9190
 2.0890	17.9300
 2.0900	17.9400
 2.0910	17.9490
 2.0920	17.9540
 2.0930	17.9650
 2.0940	17.9720
 2.0950	17.9890
 2.0960	18.0200
 2.0970	18.0380
 2.0980	18.0510
 2.0990	18.0710
 2.1000	18.0840
 2.1010	18.1040
 2.1020	18.1430
 2.1030	18.1680
 2.1040	18.1870
 2.1050	18.2040
 2.1060	18.2200
 2.1070	18.2310
 2.1080	18.2400
 2.1090	18.2470
 2.1100	18.2550
 2.1110	18.2580
 2.1120	18.2650
 2.1130	18.2740
 2.1140	18.2840
 2.1150	18.2970
 2.1160	18.3050
 2.1170	18.3100
 2.1180	18.3180
 2.1190	18.3250
 2.1200	18.3300
 2.1210	18.3350
 2.1220	18.3430
 2.1230	18.3480
 2.1240	18.3460
 2.1250	18.3530
 2.1260	18.3620
 2.1270	18.3760
 2.1280	18.4010
 2.1290	18.4170
 2.1300	18.4380
 2.1310	18.4510
 2.1320	18.4540
 2.1330	18.4630
 2.1340	18.4690
 2.1350	18.4830
 2.1360	18.5080
 2.1370	18.5220
 2.1380	18.5310
 2.1390	18.5450
 2.1400	18.5500
 2.1410	18.5640
 2.1420	18.5820
 2.1430	18.6120
 2.1440	18.6350
 2.1450	18.6640
 2.1460	18.6800
 2.1470	18.6870
 2.1480	18.7050
 2.1490	18.7190
 2.1500	18.7400
 2.1510	18.7770
 2.1520	18.8020
 2.1530	18.8210
 2.1540	18.8420
 2.1550	18.8620
 2.1560	18.8780
 2.1570	18.8890
 2.1580	18.9030
 2.1590	18.9100
 2.1600	18.9310
 2.1610	18.9530
 2.1620	18.9810
 2.1630	19.0090
 2.1640	19.0430
 2.1650	19.0630
 2.1660	19.0770
 2.1670	19.0920
 2.1680	19.0950
 2.1690	19.1120
 2.1700	19.1370
 2.1710	19.1600
 2.1720	19.1870
 2.1730	19.2110
 2.1740	19.2340
 2.1750	19.2590
 2.1760	19.2920
 2.1770	19.3120
 2.1780	19.3230
 2.1790	19.3390
 2.1800	19.3420
 2.1810	19.3580
 2.1820	19.3850
 2.1830	19.4200
 2.1840	19.4520
 2.1850	19.4930
 2.1860	19.5190
 2.1870	19.5390
 2.1880	19.5580
 2.1890	19.5610
 2.1900	19.5820
 2.1910	19.6080
 2.1920	19.6380
 2.1930	19.6830
 2.1940	19.7120
 2.1950	19.7360
 2.1960	19.7560
 2.1970	19.7600
 2.1980	19.7790
 2.1990	19.8060
 2.2000	19.8290
 2.2010	19.8590
 2.2020	19.8810
 2.2030	19.8900
 2.2040	19.9070
 2.2050	19.9260
 2.2060	19.9450
 2.2070	19.9710
 2.2080	20.0070
 2.2090	20.0280
 2.2100	20.0480
 2.2110	20.0660
 2.2120	20.0740
 2.2130	20.0900
 2.2140	20.1150
 2.2150	20.1270
 2.2160	20.1330
 2.2170	20.1380
 2.2180	20.1360
 2.2190	20.1360
 2.2200	20.1350
 2.2210	20.1380
 2.2220	20.1430
 2.2230	20.1440
 2.2240	20.1460
 2.2250	20.1460
 2.2260	20.1430
 2.2270	20.1380
 2.2280	20.1300
 2.2290	20.1230
 2.2300	20.1190
 2.2310	20.0990
 2.2320	20.0970
 2.2330	20.0940
 2.2340	20.0800
 2.2350	20.0650
 2.2360	20.0450
 2.2370	20.0160
 2.2380	19.9830
 2.2390	19.9420
 2.2400	19.9110
 2.2410	19.8760
 2.2420	19.8440
 2.2430	19.8290
 2.2440	19.7920
 2.2450	19.7370
 2.2460	19.6910
 2.2470	19.6350
 2.2480	19.5890
 2.2490	19.5500
 2.2500	19.5120
 2.2510	19.4850
 2.2520	19.4420
 2.2530	19.3980
 2.2540	19.3420
 2.2550	19.2570
 2.2560	19.1950
 2.2570	19.1370
 2.2580	19.0830
 2.2590	19.0440
 2.2600	19.0010
 2.2610	18.9600
 2.2620	18.9130
 2.2630	18.8680
 2.2640	18.8330
 2.2650	18.8060
 2.2660	18.7800
 2.2670	18.7470
 2.2680	18.7200
 2.2690	18.6800
 2.2700	18.6160
 2.2710	18.5890
 2.2720	18.5760
 2.2730	18.5540
 2.2740	18.5510
 2.2750	18.5300
 2.2760	18.4990
 2.2770	18.4610
 2.2780	18.4130
 2.2790	18.3750
 2.2800	18.3220
 2.2810	18.2910
 2.2820	18.2870
 2.2830	18.2650
 2.2840	18.2440
 2.2850	18.2170
 2.2860	18.1790
 2.2870	18.1490
 2.2880	18.1190
 2.2890	18.0940
 2.2900	18.0700
 2.2910	18.0450
 2.2920	18.0290
 2.2930	18.0030
 2.2940	17.9810
 2.2950	17.9470
 2.2960	17.8980
 2.2970	17.8520
 2.2980	17.7980
 2.2990	17.7410
 2.3000	17.7070
 2.3010	17.6740
 2.3020	17.6460
 2.3030	17.6360
 2.3040	17.6300
 2.3050	17.6100
 2.3060	17.5940
 2.3070	17.5780
 2.3080	17.5550
 2.3090	17.5270
 2.3100	17.5000
 2.3110	17.4830
 2.3120	17.4560
 2.3130	17.4240
 2.3140	17.4030
 2.3150	17.3820
 2.3160	17.3580
 2.3170	17.3410
 2.3180	17.3190
 2.3190	17.2900
 2.3200	17.2640
 2.3210	17.2340
 2.3220	17.2280
 2.3230	17.2430
 2.3240	17.2340
 2.3250	17.2400
 2.3260	17.2120
 2.3270	17.1430
 2.3280	17.0960
 2.3290	17.0480
 2.3300	17.0020
 2.3310	16.9480
 2.3320	16.9140
 2.3330	16.8910
 2.3340	16.8690
 2.3350	16.8670
 2.3360	16.8520
 2.3370	16.8230
 2.3380	16.8010
 2.3390	16.7890
 2.3400	16.7640
 2.3410	16.7310
 2.3420	16.6970
 2.3430	16.6490
 2.3440	16.6070
 2.3450	16.5570
 2.3460	16.5220
 2.3470	16.4930
 2.3480	16.4730
 2.3490	16.4860
 2.3500	16.4750
 2.3510	16.4530
 2.3520	16.4310
 2.3530	16.4140
 2.3540	16.3510
 2.3550	16.3100
 2.3560	16.2770
 2.3570	16.2340
 2.3580	16.2380
 2.3590	16.2510
 2.3600	16.2470
 2.3610	16.2320
 2.3620	16.2000
 2.3630	16.1590
 2.3640	16.1190
 2.3650	16.0890
 2.3660	16.0510
 2.3670	16.0110
 2.3680	15.9780
 2.3690	15.9480
 2.3700	15.9310
 2.3710	15.9110
 2.3720	15.8830
 2.3730	15.8370
 2.3740	15.7880
 2.3750	15.7590
 2.3760	15.7380
 2.3770	15.7220
 2.3780	15.6990
 2.3790	15.6570
 2.3800	15.6100
 2.3810	15.5920
 2.3820	15.5620
 2.3830	15.5360
 2.3840	15.5290
 2.3850	15.4910
 2.3860	15.4590
 2.3870	15.4280
 2.3880	15.3870
 2.3890	15.3670
 2.3900	15.3340
 2.3910	15.2860
 2.3920	15.2440
 2.3930	15.1940
 2.3940	15.1610
 2.3950	15.1590
 2.3960	15.1430
 2.3970	15.1130
 2.3980	15.0660
 2.3990	15.0200
 2.4000	14.9900
 2.4010	14.9630
 2.4020	14.9460
 2.4030	14.9240
 2.4040	14.9010
 2.4050	14.8670
 2.4060	14.8580
 2.4070	14.8370
 2.4080	14.7930
 2.4090	14.7580
 2.4100	14.7060
 2.4110	14.6730
 2.4120	14.6320
 2.4130	14.5860
 2.4140	14.5530
 2.4150	14.5130
 2.4160	14.5110
 2.4170	14.5020
 2.4180	14.4690
 2.4190	14.4480
 2.4200	14.3530
 2.4210	14.2370
 2.4220	14.2000
 2.4230	14.1650
 2.4240	14.1570
 2.4250	14.1520
 2.4260	14.0920
 2.4270	14.0180
 2.4280	13.9540
 2.4290	13.9740
 2.4300	13.9980
 2.4310	13.9680
 2.4320	13.9560
 2.4330	13.8820
 2.4340	13.7900
 2.4350	13.7760
 2.4360	13.7340
 2.4370	13.6630
 2.4380	13.6290
 2.4390	13.5960
 2.4400	13.5720
 2.4410	13.5810
 2.4420	13.5510
 2.4430	13.4560
 2.4440	13.3530
 2.4450	13.2410
 2.4460	13.2110
 2.4470	13.2600
 2.4480	13.2540
 2.4490	13.2850
 2.4500	13.2830
 2.4510	13.1990
 2.4520	13.1330
 2.4530	13.0530
 2.4540	13.0150
 2.4550	12.9810
 2.4560	12.9960
 2.4570	13.0620
 2.4580	13.0450
 2.4590	13.0640
 2.4600	13.0280
 2.4610	12.8990
 2.4620	12.8380
 2.4630	12.7510
 2.4640	12.7220
 2.4650	12.8290
 2.4660	12.8850
 2.4670	12.9370
 2.4680	12.9680
 2.4690	12.8230
 2.4700	12.7780
 2.4710	12.7640
 2.4720	12.6830
 2.4730	12.5930
 2.4740	12.5430
 2.4750	12.4290
 2.4760	12.4370
 2.4770	12.5950
 2.4780	12.6160
 2.4790	12.6010
 2.4800	12.6010
 2.4810	12.5830
 2.4820	12.5640
 2.4830	12.5210
 2.4840	12.3990
 2.4850	12.3770
 2.4860	12.4900
 2.4870	12.4960
 2.4880	12.5410
 2.4890	12.4640
 2.4900	12.3070
 2.4910	12.3340
 2.4920	12.2890
 2.4930	12.3010
 2.4940	12.3240
 2.4950	12.1580
 2.4960	12.0680
 2.4970	12.0000
 2.4980	11.8750
 2.4990	11.9290
 2.5000	12.0810
