Name: Quercus agrifolia 3
Type: vegetation
Class: Tree
Genus: Quercus
Species: agrifolia
Sample No.: VH280
Owner: UCSB
Wavelength Range: VSWIR
Origin: 34.7165; -120.0603; WGS84
Collection Date: 11/2/2013
Description: Samples were collected as part of the HyspIRI Airborne Campaign. 48 individual plants were sampled in three times in 2013 - spring  summer  and fall. The name of the sample includes a 1  2  or 3 which references a different individual of the species. Samples were taken to JPL and processed within 48 hours of collection. The same leaves were processed in the Nicolet and then measured using the ASD.
Measurement: Bidirectional reflectance
First Column: X
Second Column: Y
X Units: Wavelength (micrometers)
Y Units: Reflectance (percentage)
First X Value: 0.35
Last X Value: 2.5
Number of X Values: 2151
Additional Information: vegetation.tree.quercus.agrifolia.vswir.vh280.ucsb.asd.ancillary.txt

 0.3500	 6.4820
 0.3510	 6.4580
 0.3520	 6.4140
 0.3530	 6.4370
 0.3540	 6.5210
 0.3550	 6.4510
 0.3560	 6.3190
 0.3570	 6.2020
 0.3580	 6.1640
 0.3590	 6.2780
 0.3600	 6.3070
 0.3610	 6.2150
 0.3620	 6.2710
 0.3630	 6.2710
 0.3640	 6.2680
 0.3650	 6.3160
 0.3660	 6.2360
 0.3670	 6.2150
 0.3680	 6.2340
 0.3690	 6.1570
 0.3700	 6.2410
 0.3710	 6.2620
 0.3720	 6.1450
 0.3730	 6.1860
 0.3740	 6.2890
 0.3750	 6.3150
 0.3760	 6.1930
 0.3770	 6.2600
 0.3780	 6.2370
 0.3790	 6.1330
 0.3800	 6.2010
 0.3810	 6.1890
 0.3820	 6.1950
 0.3830	 6.2580
 0.3840	 6.1330
 0.3850	 6.1040
 0.3860	 6.1600
 0.3870	 6.1840
 0.3880	 6.1390
 0.3890	 6.1270
 0.3900	 6.1660
 0.3910	 6.1820
 0.3920	 6.1830
 0.3930	 6.1820
 0.3940	 6.1840
 0.3950	 6.1530
 0.3960	 6.1330
 0.3970	 6.1330
 0.3980	 6.1450
 0.3990	 6.1330
 0.4000	 6.1390
 0.4010	 6.1720
 0.4020	 6.1910
 0.4030	 6.1520
 0.4040	 6.1280
 0.4050	 6.1770
 0.4060	 6.2000
 0.4070	 6.1900
 0.4080	 6.1870
 0.4090	 6.2510
 0.4100	 6.2560
 0.4110	 6.2430
 0.4120	 6.2530
 0.4130	 6.2780
 0.4140	 6.3070
 0.4150	 6.3310
 0.4160	 6.3460
 0.4170	 6.3880
 0.4180	 6.4130
 0.4190	 6.4120
 0.4200	 6.4070
 0.4210	 6.4240
 0.4220	 6.4490
 0.4230	 6.4670
 0.4240	 6.4870
 0.4250	 6.5070
 0.4260	 6.5230
 0.4270	 6.5330
 0.4280	 6.5480
 0.4290	 6.5570
 0.4300	 6.5610
 0.4310	 6.5910
 0.4320	 6.5920
 0.4330	 6.5820
 0.4340	 6.5900
 0.4350	 6.6040
 0.4360	 6.6150
 0.4370	 6.6250
 0.4380	 6.6470
 0.4390	 6.6550
 0.4400	 6.6750
 0.4410	 6.7130
 0.4420	 6.7180
 0.4430	 6.7110
 0.4440	 6.7130
 0.4450	 6.7390
 0.4460	 6.7620
 0.4470	 6.7670
 0.4480	 6.7610
 0.4490	 6.7750
 0.4500	 6.7870
 0.4510	 6.7980
 0.4520	 6.8110
 0.4530	 6.8290
 0.4540	 6.8380
 0.4550	 6.8390
 0.4560	 6.8420
 0.4570	 6.8540
 0.4580	 6.8660
 0.4590	 6.8700
 0.4600	 6.8680
 0.4610	 6.8700
 0.4620	 6.8760
 0.4630	 6.8800
 0.4640	 6.8850
 0.4650	 6.8960
 0.4660	 6.9070
 0.4670	 6.8980
 0.4680	 6.8980
 0.4690	 6.9080
 0.4700	 6.9180
 0.4710	 6.9160
 0.4720	 6.9090
 0.4730	 6.9090
 0.4740	 6.9230
 0.4750	 6.9180
 0.4760	 6.9180
 0.4770	 6.9270
 0.4780	 6.9220
 0.4790	 6.9350
 0.4800	 6.9480
 0.4810	 6.9390
 0.4820	 6.9430
 0.4830	 6.9490
 0.4840	 6.9510
 0.4850	 6.9450
 0.4860	 6.9520
 0.4870	 6.9660
 0.4880	 6.9780
 0.4890	 6.9940
 0.4900	 7.0160
 0.4910	 7.0380
 0.4920	 7.0500
 0.4930	 7.0650
 0.4940	 7.0980
 0.4950	 7.1460
 0.4960	 7.1750
 0.4970	 7.2080
 0.4980	 7.2510
 0.4990	 7.3010
 0.5000	 7.3390
 0.5010	 7.3950
 0.5020	 7.4670
 0.5030	 7.5340
 0.5040	 7.6070
 0.5050	 7.6910
 0.5060	 7.7860
 0.5070	 7.8870
 0.5080	 8.0000
 0.5090	 8.1280
 0.5100	 8.2660
 0.5110	 8.4080
 0.5120	 8.5640
 0.5130	 8.7400
 0.5140	 8.9370
 0.5150	 9.1370
 0.5160	 9.3520
 0.5170	 9.5930
 0.5180	 9.8370
 0.5190	10.0860
 0.5200	10.3420
 0.5210	10.6060
 0.5220	10.8710
 0.5230	11.1420
 0.5240	11.4140
 0.5250	11.6770
 0.5260	11.9280
 0.5270	12.1670
 0.5280	12.3960
 0.5290	12.6180
 0.5300	12.8260
 0.5310	13.0160
 0.5320	13.1910
 0.5330	13.3570
 0.5340	13.5100
 0.5350	13.6430
 0.5360	13.7560
 0.5370	13.8680
 0.5380	13.9770
 0.5390	14.0650
 0.5400	14.1410
 0.5410	14.2080
 0.5420	14.2690
 0.5430	14.3280
 0.5440	14.3960
 0.5450	14.4730
 0.5460	14.5560
 0.5470	14.6320
 0.5480	14.7050
 0.5490	14.7720
 0.5500	14.8200
 0.5510	14.8510
 0.5520	14.8730
 0.5530	14.8870
 0.5540	14.8800
 0.5550	14.8590
 0.5560	14.8240
 0.5570	14.7760
 0.5580	14.7100
 0.5590	14.6290
 0.5600	14.5330
 0.5610	14.4340
 0.5620	14.3190
 0.5630	14.1920
 0.5640	14.0610
 0.5650	13.9170
 0.5660	13.7650
 0.5670	13.6100
 0.5680	13.4500
 0.5690	13.2890
 0.5700	13.1240
 0.5710	12.9570
 0.5720	12.7980
 0.5730	12.6410
 0.5740	12.4870
 0.5750	12.3430
 0.5760	12.2070
 0.5770	12.0760
 0.5780	11.9530
 0.5790	11.8430
 0.5800	11.7430
 0.5810	11.6460
 0.5820	11.5510
 0.5830	11.4640
 0.5840	11.3770
 0.5850	11.2900
 0.5860	11.2090
 0.5870	11.1390
 0.5880	11.0770
 0.5890	11.0210
 0.5900	10.9720
 0.5910	10.9260
 0.5920	10.8790
 0.5930	10.8290
 0.5940	10.7920
 0.5950	10.7670
 0.5960	10.7460
 0.5970	10.7120
 0.5980	10.6720
 0.5990	10.6300
 0.6000	10.5870
 0.6010	10.5400
 0.6020	10.4900
 0.6030	10.4350
 0.6040	10.3730
 0.6050	10.3080
 0.6060	10.2410
 0.6070	10.1690
 0.6080	10.0860
 0.6090	 9.9940
 0.6100	 9.8940
 0.6110	 9.7880
 0.6120	 9.7110
 0.6130	 9.6500
 0.6140	 9.5900
 0.6150	 9.5170
 0.6160	 9.4560
 0.6170	 9.4000
 0.6180	 9.3370
 0.6190	 9.2840
 0.6200	 9.2360
 0.6210	 9.1940
 0.6220	 9.1650
 0.6230	 9.1370
 0.6240	 9.1130
 0.6250	 9.0970
 0.6260	 9.0820
 0.6270	 9.0710
 0.6280	 9.0630
 0.6290	 9.0560
 0.6300	 9.0510
 0.6310	 9.0470
 0.6320	 9.0430
 0.6330	 9.0380
 0.6340	 9.0200
 0.6350	 8.9940
 0.6360	 8.9630
 0.6370	 8.9200
 0.6380	 8.8650
 0.6390	 8.8010
 0.6400	 8.7290
 0.6410	 8.6520
 0.6420	 8.5680
 0.6430	 8.4800
 0.6440	 8.3930
 0.6450	 8.3050
 0.6460	 8.2210
 0.6470	 8.1450
 0.6480	 8.0750
 0.6490	 8.0100
 0.6500	 7.9530
 0.6510	 7.9020
 0.6520	 7.8550
 0.6530	 7.8080
 0.6540	 7.7600
 0.6550	 7.7230
 0.6560	 7.6750
 0.6570	 7.6210
 0.6580	 7.5690
 0.6590	 7.5160
 0.6600	 7.4590
 0.6610	 7.3990
 0.6620	 7.3450
 0.6630	 7.2970
 0.6640	 7.2560
 0.6650	 7.2200
 0.6660	 7.1830
 0.6670	 7.1550
 0.6680	 7.1330
 0.6690	 7.1120
 0.6700	 7.1050
 0.6710	 7.1060
 0.6720	 7.1080
 0.6730	 7.1110
 0.6740	 7.1210
 0.6750	 7.1350
 0.6760	 7.1490
 0.6770	 7.1740
 0.6780	 7.2030
 0.6790	 7.2340
 0.6800	 7.2710
 0.6810	 7.3180
 0.6820	 7.3750
 0.6830	 7.4410
 0.6840	 7.5200
 0.6850	 7.6190
 0.6860	 7.7390
 0.6870	 7.8840
 0.6880	 8.0610
 0.6890	 8.2880
 0.6900	 8.5710
 0.6910	 8.9110
 0.6920	 9.3240
 0.6930	 9.8240
 0.6940	10.4160
 0.6950	11.0940
 0.6960	11.8790
 0.6970	12.7640
 0.6980	13.7290
 0.6990	14.7860
 0.7000	15.9210
 0.7010	17.1190
 0.7020	18.3620
 0.7030	19.6420
 0.7040	20.9340
 0.7050	22.2240
 0.7060	23.5260
 0.7070	24.8170
 0.7080	26.0770
 0.7090	27.3020
 0.7100	28.5220
 0.7110	29.7090
 0.7120	30.8560
 0.7130	31.9850
 0.7140	33.0560
 0.7150	34.0850
 0.7160	35.0870
 0.7170	36.0550
 0.7180	36.9930
 0.7190	37.8900
 0.7200	38.7300
 0.7210	39.5570
 0.7220	40.3440
 0.7230	41.0830
 0.7240	41.7910
 0.7250	42.4730
 0.7260	43.1110
 0.7270	43.7010
 0.7280	44.2970
 0.7290	44.8330
 0.7300	45.3190
 0.7310	45.7910
 0.7320	46.2560
 0.7330	46.6800
 0.7340	47.0620
 0.7350	47.4400
 0.7360	47.8140
 0.7370	48.1610
 0.7380	48.4630
 0.7390	48.7440
 0.7400	49.0120
 0.7410	49.2710
 0.7420	49.5210
 0.7430	49.7230
 0.7440	49.9190
 0.7450	50.1160
 0.7460	50.2890
 0.7470	50.4330
 0.7480	50.5730
 0.7490	50.7200
 0.7500	50.8390
 0.7510	50.9410
 0.7520	51.0340
 0.7530	51.1210
 0.7540	51.2000
 0.7550	51.2690
 0.7560	51.3320
 0.7570	51.4000
 0.7580	51.4640
 0.7590	51.5040
 0.7600	51.5180
 0.7610	51.5420
 0.7620	51.5730
 0.7630	51.6020
 0.7640	51.6250
 0.7650	51.6550
 0.7660	51.6580
 0.7670	51.6520
 0.7680	51.6820
 0.7690	51.6940
 0.7700	51.6880
 0.7710	51.6820
 0.7720	51.7090
 0.7730	51.7110
 0.7740	51.7060
 0.7750	51.7120
 0.7760	51.6950
 0.7770	51.6800
 0.7780	51.6720
 0.7790	51.6640
 0.7800	51.6560
 0.7810	51.6650
 0.7820	51.6800
 0.7830	51.6600
 0.7840	51.6670
 0.7850	51.6820
 0.7860	51.6820
 0.7870	51.6550
 0.7880	51.6610
 0.7890	51.6740
 0.7900	51.6550
 0.7910	51.6680
 0.7920	51.6660
 0.7930	51.6550
 0.7940	51.6750
 0.7950	51.6730
 0.7960	51.6740
 0.7970	51.6900
 0.7980	51.7100
 0.7990	51.7090
 0.8000	51.7030
 0.8010	51.7110
 0.8020	51.7180
 0.8030	51.7290
 0.8040	51.7410
 0.8050	51.7520
 0.8060	51.7740
 0.8070	51.7830
 0.8080	51.7850
 0.8090	51.8090
 0.8100	51.8190
 0.8110	51.8370
 0.8120	51.8660
 0.8130	51.8720
 0.8140	51.8970
 0.8150	51.9200
 0.8160	51.9230
 0.8170	51.9380
 0.8180	51.9570
 0.8190	51.9800
 0.8200	52.0100
 0.8210	52.0170
 0.8220	52.0310
 0.8230	52.0600
 0.8240	52.0890
 0.8250	52.1010
 0.8260	52.1250
 0.8270	52.1680
 0.8280	52.1900
 0.8290	52.2100
 0.8300	52.2290
 0.8310	52.2440
 0.8320	52.2390
 0.8330	52.2570
 0.8340	52.2920
 0.8350	52.3150
 0.8360	52.3340
 0.8370	52.3480
 0.8380	52.3620
 0.8390	52.3830
 0.8400	52.4420
 0.8410	52.4880
 0.8420	52.5010
 0.8430	52.5160
 0.8440	52.5290
 0.8450	52.5390
 0.8460	52.5520
 0.8470	52.5900
 0.8480	52.6090
 0.8490	52.6190
 0.8500	52.6410
 0.8510	52.6780
 0.8520	52.6980
 0.8530	52.7050
 0.8540	52.7260
 0.8550	52.7510
 0.8560	52.7670
 0.8570	52.7740
 0.8580	52.7870
 0.8590	52.8040
 0.8600	52.8230
 0.8610	52.8390
 0.8620	52.8490
 0.8630	52.8360
 0.8640	52.8410
 0.8650	52.8850
 0.8660	52.8910
 0.8670	52.8680
 0.8680	52.8550
 0.8690	52.8840
 0.8700	52.9070
 0.8710	52.9260
 0.8720	52.9380
 0.8730	52.9360
 0.8740	52.9210
 0.8750	52.9190
 0.8760	52.9320
 0.8770	52.9350
 0.8780	52.9130
 0.8790	52.9150
 0.8800	52.9420
 0.8810	52.9140
 0.8820	52.9140
 0.8830	52.9270
 0.8840	52.9310
 0.8850	52.9330
 0.8860	52.9120
 0.8870	52.8870
 0.8880	52.8810
 0.8890	52.8690
 0.8900	52.8650
 0.8910	52.8740
 0.8920	52.8890
 0.8930	52.8720
 0.8940	52.8400
 0.8950	52.8200
 0.8960	52.8330
 0.8970	52.8090
 0.8980	52.7820
 0.8990	52.7720
 0.9000	52.7730
 0.9010	52.7540
 0.9020	52.7590
 0.9030	52.7820
 0.9040	52.7520
 0.9050	52.7450
 0.9060	52.7430
 0.9070	52.7280
 0.9080	52.7200
 0.9090	52.7150
 0.9100	52.7030
 0.9110	52.6840
 0.9120	52.6640
 0.9130	52.6380
 0.9140	52.6280
 0.9150	52.6420
 0.9160	52.6140
 0.9170	52.5850
 0.9180	52.5650
 0.9190	52.5510
 0.9200	52.5580
 0.9210	52.5480
 0.9220	52.5240
 0.9230	52.5080
 0.9240	52.4880
 0.9250	52.4630
 0.9260	52.4430
 0.9270	52.4450
 0.9280	52.4690
 0.9290	52.4650
 0.9300	52.4280
 0.9310	52.3960
 0.9320	52.3870
 0.9330	52.3670
 0.9340	52.3350
 0.9350	52.3300
 0.9360	52.3250
 0.9370	52.3030
 0.9380	52.2680
 0.9390	52.2470
 0.9400	52.2320
 0.9410	52.2210
 0.9420	52.2050
 0.9430	52.1550
 0.9440	52.1110
 0.9450	52.0840
 0.9460	52.0690
 0.9470	52.0400
 0.9480	52.0000
 0.9490	51.9480
 0.9500	51.8930
 0.9510	51.8750
 0.9520	51.8430
 0.9530	51.8000
 0.9540	51.7530
 0.9550	51.6820
 0.9560	51.6170
 0.9570	51.5650
 0.9580	51.5250
 0.9590	51.5080
 0.9600	51.4930
 0.9610	51.4700
 0.9620	51.4320
 0.9630	51.3830
 0.9640	51.3400
 0.9650	51.3140
 0.9660	51.3070
 0.9670	51.2730
 0.9680	51.2710
 0.9690	51.2820
 0.9700	51.2690
 0.9710	51.2630
 0.9720	51.2610
 0.9730	51.2570
 0.9740	51.2480
 0.9750	51.2550
 0.9760	51.2570
 0.9770	51.2650
 0.9780	51.2930
 0.9790	51.2910
 0.9800	51.2890
 0.9810	51.3030
 0.9820	51.3290
 0.9830	51.3310
 0.9840	51.3310
 0.9850	51.3400
 0.9860	51.3640
 0.9870	51.3910
 0.9880	51.4650
 0.9890	51.5350
 0.9900	51.5280
 0.9910	51.5100
 0.9920	51.5340
 0.9930	51.5930
 0.9940	51.6420
 0.9950	51.6410
 0.9960	51.6500
 0.9970	51.6790
 0.9980	51.7080
 0.9990	51.7100
 1.0000	51.9670
 1.0010	52.4480
 1.0020	52.7160
 1.0030	52.7490
 1.0040	52.7850
 1.0050	52.8180
 1.0060	52.8470
 1.0070	52.8720
 1.0080	52.9010
 1.0090	52.9290
 1.0100	52.9590
 1.0110	52.9920
 1.0120	53.0230
 1.0130	53.0540
 1.0140	53.0820
 1.0150	53.1050
 1.0160	53.1390
 1.0170	53.1670
 1.0180	53.1870
 1.0190	53.2110
 1.0200	53.2330
 1.0210	53.2530
 1.0220	53.2730
 1.0230	53.2980
 1.0240	53.3260
 1.0250	53.3510
 1.0260	53.3810
 1.0270	53.4050
 1.0280	53.4220
 1.0290	53.4440
 1.0300	53.4690
 1.0310	53.4890
 1.0320	53.5080
 1.0330	53.5290
 1.0340	53.5490
 1.0350	53.5690
 1.0360	53.5950
 1.0370	53.6180
 1.0380	53.6360
 1.0390	53.6490
 1.0400	53.6660
 1.0410	53.6820
 1.0420	53.6990
 1.0430	53.7190
 1.0440	53.7360
 1.0450	53.7490
 1.0460	53.7650
 1.0470	53.7800
 1.0480	53.7960
 1.0490	53.8120
 1.0500	53.8280
 1.0510	53.8420
 1.0520	53.8600
 1.0530	53.8720
 1.0540	53.8810
 1.0550	53.8910
 1.0560	53.8990
 1.0570	53.9080
 1.0580	53.9210
 1.0590	53.9280
 1.0600	53.9310
 1.0610	53.9380
 1.0620	53.9460
 1.0630	53.9510
 1.0640	53.9580
 1.0650	53.9630
 1.0660	53.9660
 1.0670	53.9680
 1.0680	53.9700
 1.0690	53.9740
 1.0700	53.9730
 1.0710	53.9690
 1.0720	53.9640
 1.0730	53.9510
 1.0740	53.9490
 1.0750	53.9530
 1.0760	53.9510
 1.0770	53.9510
 1.0780	53.9490
 1.0790	53.9360
 1.0800	53.9300
 1.0810	53.9340
 1.0820	53.9300
 1.0830	53.9210
 1.0840	53.9140
 1.0850	53.9070
 1.0860	53.8950
 1.0870	53.8840
 1.0880	53.8740
 1.0890	53.8620
 1.0900	53.8450
 1.0910	53.8320
 1.0920	53.8220
 1.0930	53.8100
 1.0940	53.7980
 1.0950	53.7870
 1.0960	53.7790
 1.0970	53.7660
 1.0980	53.7530
 1.0990	53.7390
 1.1000	53.7200
 1.1010	53.7030
 1.1020	53.6880
 1.1030	53.6730
 1.1040	53.6570
 1.1050	53.6370
 1.1060	53.6180
 1.1070	53.5970
 1.1080	53.5800
 1.1090	53.5660
 1.1100	53.5480
 1.1110	53.5320
 1.1120	53.5120
 1.1130	53.4870
 1.1140	53.4640
 1.1150	53.4410
 1.1160	53.4150
 1.1170	53.3890
 1.1180	53.3590
 1.1190	53.3250
 1.1200	53.2890
 1.1210	53.2500
 1.1220	53.2080
 1.1230	53.1720
 1.1240	53.1330
 1.1250	53.0860
 1.1260	53.0400
 1.1270	52.9830
 1.1280	52.9160
 1.1290	52.8480
 1.1300	52.7770
 1.1310	52.6990
 1.1320	52.6150
 1.1330	52.5250
 1.1340	52.4300
 1.1350	52.3250
 1.1360	52.2140
 1.1370	52.0970
 1.1380	51.9710
 1.1390	51.8410
 1.1400	51.7060
 1.1410	51.5670
 1.1420	51.4280
 1.1430	51.2860
 1.1440	51.1420
 1.1450	50.9960
 1.1460	50.8530
 1.1470	50.7070
 1.1480	50.5710
 1.1490	50.4400
 1.1500	50.3140
 1.1510	50.1890
 1.1520	50.0730
 1.1530	49.9620
 1.1540	49.8570
 1.1550	49.7570
 1.1560	49.6680
 1.1570	49.5860
 1.1580	49.5100
 1.1590	49.4470
 1.1600	49.3940
 1.1610	49.3420
 1.1620	49.2980
 1.1630	49.2600
 1.1640	49.2260
 1.1650	49.1980
 1.1660	49.1800
 1.1670	49.1590
 1.1680	49.1390
 1.1690	49.1240
 1.1700	49.1110
 1.1710	49.0980
 1.1720	49.0900
 1.1730	49.0790
 1.1740	49.0680
 1.1750	49.0560
 1.1760	49.0440
 1.1770	49.0310
 1.1780	49.0170
 1.1790	49.0050
 1.1800	48.9910
 1.1810	48.9740
 1.1820	48.9550
 1.1830	48.9360
 1.1840	48.9180
 1.1850	48.8990
 1.1860	48.8830
 1.1870	48.8650
 1.1880	48.8490
 1.1890	48.8330
 1.1900	48.8200
 1.1910	48.8110
 1.1920	48.8010
 1.1930	48.7920
 1.1940	48.7850
 1.1950	48.7800
 1.1960	48.7740
 1.1970	48.7700
 1.1980	48.7680
 1.1990	48.7650
 1.2000	48.7620
 1.2010	48.7600
 1.2020	48.7630
 1.2030	48.7700
 1.2040	48.7760
 1.2050	48.7820
 1.2060	48.7920
 1.2070	48.8050
 1.2080	48.8220
 1.2090	48.8440
 1.2100	48.8680
 1.2110	48.8940
 1.2120	48.9210
 1.2130	48.9520
 1.2140	48.9840
 1.2150	49.0200
 1.2160	49.0600
 1.2170	49.1000
 1.2180	49.1450
 1.2190	49.1900
 1.2200	49.2340
 1.2210	49.2800
 1.2220	49.3250
 1.2230	49.3700
 1.2240	49.4230
 1.2250	49.4770
 1.2260	49.5280
 1.2270	49.5800
 1.2280	49.6240
 1.2290	49.6650
 1.2300	49.7070
 1.2310	49.7510
 1.2320	49.7950
 1.2330	49.8390
 1.2340	49.8810
 1.2350	49.9210
 1.2360	49.9590
 1.2370	49.9950
 1.2380	50.0290
 1.2390	50.0610
 1.2400	50.0930
 1.2410	50.1270
 1.2420	50.1600
 1.2430	50.1920
 1.2440	50.2250
 1.2450	50.2510
 1.2460	50.2780
 1.2470	50.3020
 1.2480	50.3230
 1.2490	50.3440
 1.2500	50.3610
 1.2510	50.3800
 1.2520	50.4020
 1.2530	50.4220
 1.2540	50.4430
 1.2550	50.4600
 1.2560	50.4760
 1.2570	50.4930
 1.2580	50.5060
 1.2590	50.5170
 1.2600	50.5260
 1.2610	50.5360
 1.2620	50.5440
 1.2630	50.5500
 1.2640	50.5610
 1.2650	50.5690
 1.2660	50.5740
 1.2670	50.5820
 1.2680	50.5890
 1.2690	50.5940
 1.2700	50.5990
 1.2710	50.6030
 1.2720	50.6030
 1.2730	50.6030
 1.2740	50.6000
 1.2750	50.5940
 1.2760	50.5940
 1.2770	50.5900
 1.2780	50.5840
 1.2790	50.5800
 1.2800	50.5690
 1.2810	50.5550
 1.2820	50.5460
 1.2830	50.5340
 1.2840	50.5200
 1.2850	50.5090
 1.2860	50.4950
 1.2870	50.4790
 1.2880	50.4620
 1.2890	50.4450
 1.2900	50.4230
 1.2910	50.4020
 1.2920	50.3770
 1.2930	50.3480
 1.2940	50.3160
 1.2950	50.2770
 1.2960	50.2370
 1.2970	50.1970
 1.2980	50.1530
 1.2990	50.1070
 1.3000	50.0590
 1.3010	50.0080
 1.3020	49.9560
 1.3030	49.9010
 1.3040	49.8390
 1.3050	49.7730
 1.3060	49.7020
 1.3070	49.6330
 1.3080	49.5580
 1.3090	49.4810
 1.3100	49.4020
 1.3110	49.3160
 1.3120	49.2310
 1.3130	49.1410
 1.3140	49.0460
 1.3150	48.9450
 1.3160	48.8430
 1.3170	48.7370
 1.3180	48.6310
 1.3190	48.5240
 1.3200	48.4130
 1.3210	48.2970
 1.3220	48.1770
 1.3230	48.0530
 1.3240	47.9260
 1.3250	47.7970
 1.3260	47.6640
 1.3270	47.5280
 1.3280	47.3900
 1.3290	47.2490
 1.3300	47.1050
 1.3310	46.9580
 1.3320	46.8060
 1.3330	46.6550
 1.3340	46.5010
 1.3350	46.3480
 1.3360	46.1900
 1.3370	46.0290
 1.3380	45.8690
 1.3390	45.7090
 1.3400	45.5480
 1.3410	45.3890
 1.3420	45.2330
 1.3430	45.0760
 1.3440	44.9190
 1.3450	44.7630
 1.3460	44.6060
 1.3470	44.4510
 1.3480	44.2960
 1.3490	44.1470
 1.3500	44.0030
 1.3510	43.8570
 1.3520	43.7130
 1.3530	43.5690
 1.3540	43.4220
 1.3550	43.2770
 1.3560	43.1330
 1.3570	42.9850
 1.3580	42.8350
 1.3590	42.6830
 1.3600	42.5260
 1.3610	42.3640
 1.3620	42.1970
 1.3630	42.0240
 1.3640	41.8390
 1.3650	41.6500
 1.3660	41.4560
 1.3670	41.2500
 1.3680	41.0380
 1.3690	40.8130
 1.3700	40.5690
 1.3710	40.3130
 1.3720	40.0420
 1.3730	39.7550
 1.3740	39.4580
 1.3750	39.1440
 1.3760	38.8080
 1.3770	38.4480
 1.3780	38.0610
 1.3790	37.6500
 1.3800	37.2160
 1.3810	36.7510
 1.3820	36.2640
 1.3830	35.7540
 1.3840	35.2220
 1.3850	34.6660
 1.3860	34.0940
 1.3870	33.4970
 1.3880	32.8940
 1.3890	32.2760
 1.3900	31.6460
 1.3910	31.0170
 1.3920	30.3790
 1.3930	29.7340
 1.3940	29.0910
 1.3950	28.4420
 1.3960	27.8020
 1.3970	27.1720
 1.3980	26.5520
 1.3990	25.9550
 1.4000	25.3700
 1.4010	24.7970
 1.4020	24.2480
 1.4030	23.7160
 1.4040	23.2070
 1.4050	22.7270
 1.4060	22.2680
 1.4070	21.8360
 1.4080	21.4280
 1.4090	21.0420
 1.4100	20.6830
 1.4110	20.3470
 1.4120	20.0370
 1.4130	19.7500
 1.4140	19.4860
 1.4150	19.2470
 1.4160	19.0280
 1.4170	18.8240
 1.4180	18.6400
 1.4190	18.4710
 1.4200	18.3170
 1.4210	18.1800
 1.4220	18.0570
 1.4230	17.9480
 1.4240	17.8510
 1.4250	17.7630
 1.4260	17.6870
 1.4270	17.6200
 1.4280	17.5630
 1.4290	17.5130
 1.4300	17.4730
 1.4310	17.4380
 1.4320	17.4120
 1.4330	17.3900
 1.4340	17.3740
 1.4350	17.3630
 1.4360	17.3590
 1.4370	17.3590
 1.4380	17.3650
 1.4390	17.3740
 1.4400	17.3870
 1.4410	17.4020
 1.4420	17.4200
 1.4430	17.4400
 1.4440	17.4610
 1.4450	17.4840
 1.4460	17.5090
 1.4470	17.5370
 1.4480	17.5660
 1.4490	17.5960
 1.4500	17.6260
 1.4510	17.6560
 1.4520	17.6880
 1.4530	17.7190
 1.4540	17.7530
 1.4550	17.7910
 1.4560	17.8290
 1.4570	17.8690
 1.4580	17.9110
 1.4590	17.9540
 1.4600	18.0030
 1.4610	18.0580
 1.4620	18.1180
 1.4630	18.1830
 1.4640	18.2490
 1.4650	18.3200
 1.4660	18.3980
 1.4670	18.4810
 1.4680	18.5720
 1.4690	18.6680
 1.4700	18.7680
 1.4710	18.8720
 1.4720	18.9790
 1.4730	19.0900
 1.4740	19.2060
 1.4750	19.3240
 1.4760	19.4470
 1.4770	19.5730
 1.4780	19.6990
 1.4790	19.8290
 1.4800	19.9590
 1.4810	20.0900
 1.4820	20.2230
 1.4830	20.3550
 1.4840	20.4900
 1.4850	20.6270
 1.4860	20.7630
 1.4870	20.9010
 1.4880	21.0390
 1.4890	21.1770
 1.4900	21.3160
 1.4910	21.4570
 1.4920	21.5980
 1.4930	21.7390
 1.4940	21.8800
 1.4950	22.0210
 1.4960	22.1620
 1.4970	22.3020
 1.4980	22.4430
 1.4990	22.5830
 1.5000	22.7240
 1.5010	22.8660
 1.5020	23.0060
 1.5030	23.1450
 1.5040	23.2840
 1.5050	23.4190
 1.5060	23.5560
 1.5070	23.6920
 1.5080	23.8280
 1.5090	23.9650
 1.5100	24.1000
 1.5110	24.2340
 1.5120	24.3670
 1.5130	24.4970
 1.5140	24.6270
 1.5150	24.7570
 1.5160	24.8830
 1.5170	25.0100
 1.5180	25.1360
 1.5190	25.2570
 1.5200	25.3780
 1.5210	25.4990
 1.5220	25.6170
 1.5230	25.7380
 1.5240	25.8570
 1.5250	25.9750
 1.5260	26.0920
 1.5270	26.2090
 1.5280	26.3240
 1.5290	26.4370
 1.5300	26.5480
 1.5310	26.6570
 1.5320	26.7660
 1.5330	26.8760
 1.5340	26.9830
 1.5350	27.0880
 1.5360	27.1930
 1.5370	27.2950
 1.5380	27.3980
 1.5390	27.5010
 1.5400	27.6010
 1.5410	27.7000
 1.5420	27.7980
 1.5430	27.8920
 1.5440	27.9880
 1.5450	28.0820
 1.5460	28.1770
 1.5470	28.2730
 1.5480	28.3700
 1.5490	28.4650
 1.5500	28.5580
 1.5510	28.6490
 1.5520	28.7400
 1.5530	28.8280
 1.5540	28.9170
 1.5550	29.0040
 1.5560	29.0890
 1.5570	29.1750
 1.5580	29.2590
 1.5590	29.3420
 1.5600	29.4280
 1.5610	29.5110
 1.5620	29.5940
 1.5630	29.6770
 1.5640	29.7560
 1.5650	29.8350
 1.5660	29.9140
 1.5670	29.9910
 1.5680	30.0700
 1.5690	30.1450
 1.5700	30.2200
 1.5710	30.2960
 1.5720	30.3680
 1.5730	30.4420
 1.5740	30.5140
 1.5750	30.5870
 1.5760	30.6610
 1.5770	30.7340
 1.5780	30.8080
 1.5790	30.8810
 1.5800	30.9530
 1.5810	31.0240
 1.5820	31.0950
 1.5830	31.1660
 1.5840	31.2380
 1.5850	31.3080
 1.5860	31.3790
 1.5870	31.4490
 1.5880	31.5210
 1.5890	31.5930
 1.5900	31.6640
 1.5910	31.7350
 1.5920	31.8060
 1.5930	31.8770
 1.5940	31.9500
 1.5950	32.0240
 1.5960	32.0950
 1.5970	32.1650
 1.5980	32.2360
 1.5990	32.3060
 1.6000	32.3760
 1.6010	32.4460
 1.6020	32.5150
 1.6030	32.5840
 1.6040	32.6510
 1.6050	32.7180
 1.6060	32.7840
 1.6070	32.8490
 1.6080	32.9140
 1.6090	32.9760
 1.6100	33.0370
 1.6110	33.0980
 1.6120	33.1570
 1.6130	33.2170
 1.6140	33.2720
 1.6150	33.3230
 1.6160	33.3740
 1.6170	33.4240
 1.6180	33.4780
 1.6190	33.5320
 1.6200	33.5840
 1.6210	33.6360
 1.6220	33.6850
 1.6230	33.7330
 1.6240	33.7810
 1.6250	33.8270
 1.6260	33.8750
 1.6270	33.9230
 1.6280	33.9640
 1.6290	34.0040
 1.6300	34.0390
 1.6310	34.0740
 1.6320	34.1090
 1.6330	34.1420
 1.6340	34.1750
 1.6350	34.2050
 1.6360	34.2340
 1.6370	34.2600
 1.6380	34.2840
 1.6390	34.3040
 1.6400	34.3200
 1.6410	34.3330
 1.6420	34.3420
 1.6430	34.3490
 1.6440	34.3530
 1.6450	34.3520
 1.6460	34.3480
 1.6470	34.3420
 1.6480	34.3340
 1.6490	34.3250
 1.6500	34.3160
 1.6510	34.3020
 1.6520	34.2870
 1.6530	34.2680
 1.6540	34.2470
 1.6550	34.2250
 1.6560	34.2010
 1.6570	34.1800
 1.6580	34.1620
 1.6590	34.1440
 1.6600	34.1290
 1.6610	34.1150
 1.6620	34.1020
 1.6630	34.0920
 1.6640	34.0830
 1.6650	34.0740
 1.6660	34.0640
 1.6670	34.0530
 1.6680	34.0390
 1.6690	34.0230
 1.6700	34.0080
 1.6710	33.9910
 1.6720	33.9730
 1.6730	33.9530
 1.6740	33.9290
 1.6750	33.8990
 1.6760	33.8670
 1.6770	33.8320
 1.6780	33.7920
 1.6790	33.7520
 1.6800	33.7090
 1.6810	33.6630
 1.6820	33.6110
 1.6830	33.5550
 1.6840	33.4960
 1.6850	33.4310
 1.6860	33.3650
 1.6870	33.2990
 1.6880	33.2310
 1.6890	33.1660
 1.6900	33.0990
 1.6910	33.0310
 1.6920	32.9610
 1.6930	32.8890
 1.6940	32.8180
 1.6950	32.7460
 1.6960	32.6760
 1.6970	32.6060
 1.6980	32.5340
 1.6990	32.4610
 1.7000	32.3870
 1.7010	32.3110
 1.7020	32.2350
 1.7030	32.1600
 1.7040	32.0830
 1.7050	32.0060
 1.7060	31.9260
 1.7070	31.8450
 1.7080	31.7620
 1.7090	31.6750
 1.7100	31.5900
 1.7110	31.5020
 1.7120	31.4190
 1.7130	31.3380
 1.7140	31.2560
 1.7150	31.1740
 1.7160	31.0920
 1.7170	31.0100
 1.7180	30.9320
 1.7190	30.8580
 1.7200	30.7840
 1.7210	30.7110
 1.7220	30.6410
 1.7230	30.5690
 1.7240	30.5000
 1.7250	30.4370
 1.7260	30.3750
 1.7270	30.3250
 1.7280	30.2880
 1.7290	30.2550
 1.7300	30.2340
 1.7310	30.2170
 1.7320	30.2040
 1.7330	30.1980
 1.7340	30.2030
 1.7350	30.2050
 1.7360	30.2170
 1.7370	30.2190
 1.7380	30.2160
 1.7390	30.2090
 1.7400	30.1960
 1.7410	30.1760
 1.7420	30.1540
 1.7430	30.1240
 1.7440	30.0860
 1.7450	30.0430
 1.7460	29.9920
 1.7470	29.9420
 1.7480	29.8860
 1.7490	29.8310
 1.7500	29.7760
 1.7510	29.7160
 1.7520	29.6540
 1.7530	29.5910
 1.7540	29.5250
 1.7550	29.4560
 1.7560	29.3870
 1.7570	29.3170
 1.7580	29.2490
 1.7590	29.1820
 1.7600	29.1160
 1.7610	29.0520
 1.7620	28.9940
 1.7630	28.9400
 1.7640	28.8910
 1.7650	28.8470
 1.7660	28.8100
 1.7670	28.7800
 1.7680	28.7520
 1.7690	28.7350
 1.7700	28.7120
 1.7710	28.6860
 1.7720	28.6610
 1.7730	28.6340
 1.7740	28.6080
 1.7750	28.5840
 1.7760	28.5600
 1.7770	28.5360
 1.7780	28.5140
 1.7790	28.4940
 1.7800	28.4720
 1.7810	28.4470
 1.7820	28.4280
 1.7830	28.4090
 1.7840	28.3920
 1.7850	28.3760
 1.7860	28.3620
 1.7870	28.3470
 1.7880	28.3320
 1.7890	28.3230
 1.7900	28.3170
 1.7910	28.3130
 1.7920	28.3130
 1.7930	28.3130
 1.7940	28.3130
 1.7950	28.3120
 1.7960	28.3100
 1.7970	28.3100
 1.7980	28.3100
 1.7990	28.3100
 1.8000	28.3120
 1.8010	28.3160
 1.8020	28.3190
 1.8030	28.3250
 1.8040	28.3360
 1.8050	28.3430
 1.8060	28.3510
 1.8070	28.3600
 1.8080	28.3700
 1.8090	28.3780
 1.8100	28.3880
 1.8110	28.3950
 1.8120	28.4000
 1.8130	28.4040
 1.8140	28.4070
 1.8150	28.4090
 1.8160	28.4120
 1.8170	28.4170
 1.8180	28.4220
 1.8190	28.4330
 1.8200	28.4380
 1.8210	28.4390
 1.8220	28.4430
 1.8230	28.4460
 1.8240	28.4470
 1.8250	28.4510
 1.8260	28.4490
 1.8270	28.4400
 1.8280	28.4320
 1.8290	28.4240
 1.8300	28.4720
 1.8310	28.5940
 1.8320	28.6400
 1.8330	28.6160
 1.8340	28.5900
 1.8350	28.5600
 1.8360	28.5240
 1.8370	28.4840
 1.8380	28.4400
 1.8390	28.3910
 1.8400	28.3380
 1.8410	28.2770
 1.8420	28.2120
 1.8430	28.1400
 1.8440	28.0580
 1.8450	27.9680
 1.8460	27.8710
 1.8470	27.7620
 1.8480	27.6390
 1.8490	27.5080
 1.8500	27.3680
 1.8510	27.2160
 1.8520	27.0550
 1.8530	26.8870
 1.8540	26.7030
 1.8550	26.5020
 1.8560	26.2880
 1.8570	26.0540
 1.8580	25.8040
 1.8590	25.5420
 1.8600	25.2670
 1.8610	24.9750
 1.8620	24.6670
 1.8630	24.3440
 1.8640	24.0050
 1.8650	23.6440
 1.8660	23.2670
 1.8670	22.8730
 1.8680	22.4580
 1.8690	22.0210
 1.8700	21.5650
 1.8710	21.0880
 1.8720	20.5990
 1.8730	20.0920
 1.8740	19.5740
 1.8750	19.0500
 1.8760	18.5100
 1.8770	17.9660
 1.8780	17.4220
 1.8790	16.8750
 1.8800	16.3370
 1.8810	15.8030
 1.8820	15.2730
 1.8830	14.7490
 1.8840	14.2350
 1.8850	13.7290
 1.8860	13.2390
 1.8870	12.7640
 1.8880	12.3060
 1.8890	11.8730
 1.8900	11.4620
 1.8910	11.0740
 1.8920	10.7040
 1.8930	10.3620
 1.8940	10.0440
 1.8950	 9.7490
 1.8960	 9.4770
 1.8970	 9.2310
 1.8980	 9.0030
 1.8990	 8.7940
 1.9000	 8.6030
 1.9010	 8.4360
 1.9020	 8.2830
 1.9030	 8.1460
 1.9040	 8.0290
 1.9050	 7.9290
 1.9060	 7.8370
 1.9070	 7.7600
 1.9080	 7.6930
 1.9090	 7.6280
 1.9100	 7.5750
 1.9110	 7.5280
 1.9120	 7.4870
 1.9130	 7.4500
 1.9140	 7.4210
 1.9150	 7.3940
 1.9160	 7.3720
 1.9170	 7.3540
 1.9180	 7.3420
 1.9190	 7.3370
 1.9200	 7.3320
 1.9210	 7.3320
 1.9220	 7.3330
 1.9230	 7.3350
 1.9240	 7.3370
 1.9250	 7.3400
 1.9260	 7.3420
 1.9270	 7.3440
 1.9280	 7.3510
 1.9290	 7.3600
 1.9300	 7.3740
 1.9310	 7.3880
 1.9320	 7.4040
 1.9330	 7.4190
 1.9340	 7.4320
 1.9350	 7.4490
 1.9360	 7.4680
 1.9370	 7.4880
 1.9380	 7.5100
 1.9390	 7.5340
 1.9400	 7.5600
 1.9410	 7.5910
 1.9420	 7.6220
 1.9430	 7.6550
 1.9440	 7.6860
 1.9450	 7.7180
 1.9460	 7.7490
 1.9470	 7.7780
 1.9480	 7.8100
 1.9490	 7.8410
 1.9500	 7.8760
 1.9510	 7.9110
 1.9520	 7.9470
 1.9530	 7.9830
 1.9540	 8.0210
 1.9550	 8.0610
 1.9560	 8.1030
 1.9570	 8.1460
 1.9580	 8.1900
 1.9590	 8.2340
 1.9600	 8.2790
 1.9610	 8.3250
 1.9620	 8.3710
 1.9630	 8.4170
 1.9640	 8.4680
 1.9650	 8.5220
 1.9660	 8.5770
 1.9670	 8.6300
 1.9680	 8.6830
 1.9690	 8.7320
 1.9700	 8.7850
 1.9710	 8.8400
 1.9720	 8.8970
 1.9730	 8.9590
 1.9740	 9.0200
 1.9750	 9.0790
 1.9760	 9.1410
 1.9770	 9.2040
 1.9780	 9.2670
 1.9790	 9.3320
 1.9800	 9.4010
 1.9810	 9.4670
 1.9820	 9.5330
 1.9830	 9.5990
 1.9840	 9.6630
 1.9850	 9.7290
 1.9860	 9.7940
 1.9870	 9.8620
 1.9880	 9.9320
 1.9890	10.0010
 1.9900	10.0760
 1.9910	10.1490
 1.9920	10.2200
 1.9930	10.2910
 1.9940	10.3610
 1.9950	10.4270
 1.9960	10.4960
 1.9970	10.5660
 1.9980	10.6360
 1.9990	10.7080
 2.0000	10.7770
 2.0010	10.8460
 2.0020	10.9160
 2.0030	10.9830
 2.0040	11.0540
 2.0050	11.1230
 2.0060	11.1920
 2.0070	11.2600
 2.0080	11.3270
 2.0090	11.3920
 2.0100	11.4540
 2.0110	11.5170
 2.0120	11.5790
 2.0130	11.6400
 2.0140	11.7020
 2.0150	11.7630
 2.0160	11.8290
 2.0170	11.8920
 2.0180	11.9530
 2.0190	12.0170
 2.0200	12.0750
 2.0210	12.1290
 2.0220	12.1830
 2.0230	12.2330
 2.0240	12.2840
 2.0250	12.3350
 2.0260	12.3840
 2.0270	12.4320
 2.0280	12.4790
 2.0290	12.5240
 2.0300	12.5620
 2.0310	12.6020
 2.0320	12.6410
 2.0330	12.6790
 2.0340	12.7180
 2.0350	12.7540
 2.0360	12.7860
 2.0370	12.8190
 2.0380	12.8490
 2.0390	12.8790
 2.0400	12.9120
 2.0410	12.9420
 2.0420	12.9690
 2.0430	13.0000
 2.0440	13.0280
 2.0450	13.0570
 2.0460	13.0830
 2.0470	13.1060
 2.0480	13.1300
 2.0490	13.1520
 2.0500	13.1760
 2.0510	13.2040
 2.0520	13.2280
 2.0530	13.2480
 2.0540	13.2700
 2.0550	13.2910
 2.0560	13.3100
 2.0570	13.3300
 2.0580	13.3530
 2.0590	13.3760
 2.0600	13.4000
 2.0610	13.4230
 2.0620	13.4470
 2.0630	13.4710
 2.0640	13.4920
 2.0650	13.5150
 2.0660	13.5400
 2.0670	13.5640
 2.0680	13.5880
 2.0690	13.6120
 2.0700	13.6340
 2.0710	13.6580
 2.0720	13.6810
 2.0730	13.7090
 2.0740	13.7340
 2.0750	13.7600
 2.0760	13.7850
 2.0770	13.8100
 2.0780	13.8360
 2.0790	13.8610
 2.0800	13.8860
 2.0810	13.9090
 2.0820	13.9340
 2.0830	13.9600
 2.0840	13.9840
 2.0850	14.0110
 2.0860	14.0350
 2.0870	14.0580
 2.0880	14.0820
 2.0890	14.1030
 2.0900	14.1230
 2.0910	14.1450
 2.0920	14.1640
 2.0930	14.1880
 2.0940	14.2150
 2.0950	14.2410
 2.0960	14.2690
 2.0970	14.2950
 2.0980	14.3180
 2.0990	14.3430
 2.1000	14.3690
 2.1010	14.3950
 2.1020	14.4260
 2.1030	14.4530
 2.1040	14.4800
 2.1050	14.5020
 2.1060	14.5280
 2.1070	14.5520
 2.1080	14.5790
 2.1090	14.6100
 2.1100	14.6360
 2.1110	14.6590
 2.1120	14.6850
 2.1130	14.7090
 2.1140	14.7340
 2.1150	14.7620
 2.1160	14.7880
 2.1170	14.8120
 2.1180	14.8350
 2.1190	14.8560
 2.1200	14.8780
 2.1210	14.9000
 2.1220	14.9210
 2.1230	14.9420
 2.1240	14.9640
 2.1250	14.9860
 2.1260	15.0060
 2.1270	15.0270
 2.1280	15.0510
 2.1290	15.0730
 2.1300	15.0930
 2.1310	15.1160
 2.1320	15.1410
 2.1330	15.1650
 2.1340	15.1890
 2.1350	15.2130
 2.1360	15.2340
 2.1370	15.2590
 2.1380	15.2880
 2.1390	15.3150
 2.1400	15.3420
 2.1410	15.3710
 2.1420	15.4010
 2.1430	15.4300
 2.1440	15.4580
 2.1450	15.4870
 2.1460	15.5160
 2.1470	15.5430
 2.1480	15.5690
 2.1490	15.5940
 2.1500	15.6200
 2.1510	15.6430
 2.1520	15.6670
 2.1530	15.6910
 2.1540	15.7160
 2.1550	15.7380
 2.1560	15.7630
 2.1570	15.7930
 2.1580	15.8190
 2.1590	15.8430
 2.1600	15.8680
 2.1610	15.8890
 2.1620	15.9130
 2.1630	15.9370
 2.1640	15.9630
 2.1650	15.9860
 2.1660	16.0090
 2.1670	16.0280
 2.1680	16.0400
 2.1690	16.0580
 2.1700	16.0750
 2.1710	16.0930
 2.1720	16.1130
 2.1730	16.1350
 2.1740	16.1610
 2.1750	16.1830
 2.1760	16.2020
 2.1770	16.2260
 2.1780	16.2490
 2.1790	16.2720
 2.1800	16.2980
 2.1810	16.3230
 2.1820	16.3450
 2.1830	16.3650
 2.1840	16.3890
 2.1850	16.4170
 2.1860	16.4400
 2.1870	16.4610
 2.1880	16.4830
 2.1890	16.5040
 2.1900	16.5270
 2.1910	16.5540
 2.1920	16.5770
 2.1930	16.5960
 2.1940	16.6180
 2.1950	16.6390
 2.1960	16.6620
 2.1970	16.6900
 2.1980	16.7150
 2.1990	16.7430
 2.2000	16.7670
 2.2010	16.7860
 2.2020	16.8080
 2.2030	16.8280
 2.2040	16.8470
 2.2050	16.8680
 2.2060	16.8860
 2.2070	16.8980
 2.2080	16.9030
 2.2090	16.9130
 2.2100	16.9200
 2.2110	16.9290
 2.2120	16.9410
 2.2130	16.9490
 2.2140	16.9560
 2.2150	16.9610
 2.2160	16.9660
 2.2170	16.9690
 2.2180	16.9730
 2.2190	16.9700
 2.2200	16.9650
 2.2210	16.9560
 2.2220	16.9400
 2.2230	16.9220
 2.2240	16.9040
 2.2250	16.8800
 2.2260	16.8500
 2.2270	16.8200
 2.2280	16.7880
 2.2290	16.7500
 2.2300	16.7090
 2.2310	16.6660
 2.2320	16.6170
 2.2330	16.5620
 2.2340	16.5090
 2.2350	16.4560
 2.2360	16.3980
 2.2370	16.3390
 2.2380	16.2750
 2.2390	16.2060
 2.2400	16.1360
 2.2410	16.0630
 2.2420	15.9880
 2.2430	15.9080
 2.2440	15.8300
 2.2450	15.7520
 2.2460	15.6710
 2.2470	15.5880
 2.2480	15.5080
 2.2490	15.4240
 2.2500	15.3440
 2.2510	15.2700
 2.2520	15.1920
 2.2530	15.1120
 2.2540	15.0340
 2.2550	14.9540
 2.2560	14.8780
 2.2570	14.8000
 2.2580	14.7290
 2.2590	14.6660
 2.2600	14.6010
 2.2610	14.5400
 2.2620	14.4790
 2.2630	14.4170
 2.2640	14.3590
 2.2650	14.2970
 2.2660	14.2370
 2.2670	14.1780
 2.2680	14.1130
 2.2690	14.0590
 2.2700	14.0110
 2.2710	13.9610
 2.2720	13.9130
 2.2730	13.8680
 2.2740	13.8240
 2.2750	13.7830
 2.2760	13.7490
 2.2770	13.7130
 2.2780	13.6800
 2.2790	13.6420
 2.2800	13.6000
 2.2810	13.5610
 2.2820	13.5210
 2.2830	13.4810
 2.2840	13.4430
 2.2850	13.4060
 2.2860	13.3660
 2.2870	13.3290
 2.2880	13.2970
 2.2890	13.2580
 2.2900	13.2200
 2.2910	13.1740
 2.2920	13.1200
 2.2930	13.0670
 2.2940	13.0080
 2.2950	12.9520
 2.2960	12.9020
 2.2970	12.8440
 2.2980	12.7860
 2.2990	12.7210
 2.3000	12.6530
 2.3010	12.5900
 2.3020	12.5310
 2.3030	12.4760
 2.3040	12.4240
 2.3050	12.3810
 2.3060	12.3380
 2.3070	12.2940
 2.3080	12.2530
 2.3090	12.2110
 2.3100	12.1840
 2.3110	12.1660
 2.3120	12.1480
 2.3130	12.1370
 2.3140	12.1300
 2.3150	12.1240
 2.3160	12.1250
 2.3170	12.1380
 2.3180	12.1450
 2.3190	12.1550
 2.3200	12.1610
 2.3210	12.1680
 2.3220	12.1690
 2.3230	12.1690
 2.3240	12.1650
 2.3250	12.1580
 2.3260	12.1410
 2.3270	12.1150
 2.3280	12.0880
 2.3290	12.0520
 2.3300	12.0210
 2.3310	11.9940
 2.3320	11.9650
 2.3330	11.9340
 2.3340	11.9040
 2.3350	11.8760
 2.3360	11.8430
 2.3370	11.8060
 2.3380	11.7730
 2.3390	11.7360
 2.3400	11.7030
 2.3410	11.6770
 2.3420	11.6490
 2.3430	11.6230
 2.3440	11.5970
 2.3450	11.5740
 2.3460	11.5470
 2.3470	11.5220
 2.3480	11.4930
 2.3490	11.4560
 2.3500	11.4290
 2.3510	11.4040
 2.3520	11.3830
 2.3530	11.3710
 2.3540	11.3570
 2.3550	11.3470
 2.3560	11.3500
 2.3570	11.3510
 2.3580	11.3480
 2.3590	11.3460
 2.3600	11.3290
 2.3610	11.3030
 2.3620	11.2980
 2.3630	11.2910
 2.3640	11.2680
 2.3650	11.2620
 2.3660	11.2430
 2.3670	11.2010
 2.3680	11.1750
 2.3690	11.1510
 2.3700	11.1150
 2.3710	11.0920
 2.3720	11.0800
 2.3730	11.0550
 2.3740	11.0310
 2.3750	11.0100
 2.3760	10.9740
 2.3770	10.9300
 2.3780	10.8890
 2.3790	10.8540
 2.3800	10.8270
 2.3810	10.8080
 2.3820	10.7940
 2.3830	10.7710
 2.3840	10.7310
 2.3850	10.6960
 2.3860	10.6650
 2.3870	10.6230
 2.3880	10.5960
 2.3890	10.5750
 2.3900	10.5430
 2.3910	10.5200
 2.3920	10.4990
 2.3930	10.4630
 2.3940	10.4270
 2.3950	10.3930
 2.3960	10.3550
 2.3970	10.3330
 2.3980	10.3060
 2.3990	10.2810
 2.4000	10.2570
 2.4010	10.2110
 2.4020	10.1730
 2.4030	10.1420
 2.4040	10.1130
 2.4050	10.0880
 2.4060	10.0600
 2.4070	10.0260
 2.4080	 9.9780
 2.4090	 9.9390
 2.4100	 9.9060
 2.4110	 9.8870
 2.4120	 9.8690
 2.4130	 9.8260
 2.4140	 9.7910
 2.4150	 9.7500
 2.4160	 9.6970
 2.4170	 9.6610
 2.4180	 9.6260
 2.4190	 9.5880
 2.4200	 9.5610
 2.4210	 9.5320
 2.4220	 9.4960
 2.4230	 9.4690
 2.4240	 9.4340
 2.4250	 9.4000
 2.4260	 9.3700
 2.4270	 9.3370
 2.4280	 9.3010
 2.4290	 9.2500
 2.4300	 9.2090
 2.4310	 9.1790
 2.4320	 9.1310
 2.4330	 9.0950
 2.4340	 9.0740
 2.4350	 9.0280
 2.4360	 8.9870
 2.4370	 8.9660
 2.4380	 8.9260
 2.4390	 8.8920
 2.4400	 8.8420
 2.4410	 8.7810
 2.4420	 8.7400
 2.4430	 8.6920
 2.4440	 8.6810
 2.4450	 8.6780
 2.4460	 8.6570
 2.4470	 8.6470
 2.4480	 8.6240
 2.4490	 8.5990
 2.4500	 8.5730
 2.4510	 8.5400
 2.4520	 8.5060
 2.4530	 8.4820
 2.4540	 8.4720
 2.4550	 8.4480
 2.4560	 8.4280
 2.4570	 8.4130
 2.4580	 8.3760
 2.4590	 8.3440
 2.4600	 8.3130
 2.4610	 8.2730
 2.4620	 8.2600
 2.4630	 8.2530
 2.4640	 8.2410
 2.4650	 8.2160
 2.4660	 8.1550
 2.4670	 8.1000
 2.4680	 8.0620
 2.4690	 8.0110
 2.4700	 7.9660
 2.4710	 7.9300
 2.4720	 7.9050
 2.4730	 7.8780
 2.4740	 7.8780
 2.4750	 7.9120
 2.4760	 7.8960
 2.4770	 7.8660
 2.4780	 7.8570
 2.4790	 7.8450
 2.4800	 7.8190
 2.4810	 7.7980
 2.4820	 7.7570
 2.4830	 7.7130
 2.4840	 7.6640
 2.4850	 7.6450
 2.4860	 7.6630
 2.4870	 7.6690
 2.4880	 7.7060
 2.4890	 7.7280
 2.4900	 7.7070
 2.4910	 7.6860
 2.4920	 7.6520
 2.4930	 7.6440
 2.4940	 7.6790
 2.4950	 7.7100
 2.4960	 7.7210
 2.4970	 7.6950
 2.4980	 7.6500
 2.4990	 7.6290
 2.5000	 7.6200
