Name: Heteromeles arbutifolia 2
Type: vegetation
Class: Shrub
Genus: Heteromeles
Species: arbutifolia
Sample No.: VH136
Owner: UCSB
Wavelength Range: VSWIR
Origin: 34.4907; -119.7912; WGS84
Collection Date: 6/3/2013
Description: Samples were collected as part of the HyspIRI Airborne Campaign. 48 individual plants were sampled in three times in 2013 - spring  summer  and fall. The name of the sample includes a 1  2  or 3 which references a different individual of the species. Samples were taken to JPL and processed within 48 hours of collection. The same leaves were processed in the Nicolet and then measured using the ASD.
Measurement: Bidirectional reflectance
First Column: X
Second Column: Y
X Units: Wavelength (micrometers)
Y Units: Reflectance (percentage)
First X Value: 0.35
Last X Value: 2.5
Number of X Values: 2151
Additional Information: vegetation.shrub.heteromeles.arbutifolia.vswir.vh136.ucsb.asd.ancillary.txt

 0.3500	10.6050
 0.3510	10.6990
 0.3520	10.7180
 0.3530	10.6260
 0.3540	10.4670
 0.3550	10.4530
 0.3560	10.4730
 0.3570	10.4570
 0.3580	10.3860
 0.3590	10.4130
 0.3600	10.3840
 0.3610	10.2790
 0.3620	10.2920
 0.3630	10.4450
 0.3640	10.5130
 0.3650	10.3510
 0.3660	10.3020
 0.3670	10.3320
 0.3680	10.3440
 0.3690	10.2280
 0.3700	10.2520
 0.3710	10.3190
 0.3720	10.3230
 0.3730	10.2300
 0.3740	10.2100
 0.3750	10.2250
 0.3760	10.1940
 0.3770	10.1750
 0.3780	10.2110
 0.3790	10.2600
 0.3800	10.2170
 0.3810	10.1800
 0.3820	10.1680
 0.3830	10.1700
 0.3840	10.1460
 0.3850	10.1720
 0.3860	10.1770
 0.3870	10.0780
 0.3880	10.0590
 0.3890	10.0870
 0.3900	10.1050
 0.3910	10.0620
 0.3920	10.0700
 0.3930	10.0770
 0.3940	10.0460
 0.3950	10.0700
 0.3960	10.1060
 0.3970	10.1110
 0.3980	10.0610
 0.3990	10.0850
 0.4000	10.1050
 0.4010	10.0880
 0.4020	10.0780
 0.4030	10.0840
 0.4040	10.1040
 0.4050	10.1280
 0.4060	10.1080
 0.4070	10.1170
 0.4080	10.1420
 0.4090	10.1180
 0.4100	10.1120
 0.4110	10.1180
 0.4120	10.1290
 0.4130	10.1430
 0.4140	10.1440
 0.4150	10.1440
 0.4160	10.1570
 0.4170	10.1530
 0.4180	10.1640
 0.4190	10.1910
 0.4200	10.1960
 0.4210	10.2030
 0.4220	10.2130
 0.4230	10.2210
 0.4240	10.2190
 0.4250	10.2090
 0.4260	10.1990
 0.4270	10.1990
 0.4280	10.2100
 0.4290	10.2090
 0.4300	10.1920
 0.4310	10.1750
 0.4320	10.1660
 0.4330	10.1600
 0.4340	10.1470
 0.4350	10.1280
 0.4360	10.1240
 0.4370	10.1360
 0.4380	10.1440
 0.4390	10.1550
 0.4400	10.1610
 0.4410	10.1590
 0.4420	10.1600
 0.4430	10.1660
 0.4440	10.1760
 0.4450	10.1840
 0.4460	10.1810
 0.4470	10.1840
 0.4480	10.1970
 0.4490	10.2080
 0.4500	10.2030
 0.4510	10.2020
 0.4520	10.2150
 0.4530	10.2210
 0.4540	10.2200
 0.4550	10.2180
 0.4560	10.2220
 0.4570	10.2360
 0.4580	10.2420
 0.4590	10.2330
 0.4600	10.2360
 0.4610	10.2330
 0.4620	10.2250
 0.4630	10.2160
 0.4640	10.2140
 0.4650	10.2080
 0.4660	10.2010
 0.4670	10.2030
 0.4680	10.2040
 0.4690	10.2020
 0.4700	10.1960
 0.4710	10.1840
 0.4720	10.1770
 0.4730	10.1750
 0.4740	10.1760
 0.4750	10.1770
 0.4760	10.1790
 0.4770	10.1820
 0.4780	10.1800
 0.4790	10.1870
 0.4800	10.1930
 0.4810	10.1890
 0.4820	10.1860
 0.4830	10.1800
 0.4840	10.1750
 0.4850	10.1830
 0.4860	10.1940
 0.4870	10.2030
 0.4880	10.2110
 0.4890	10.2200
 0.4900	10.2340
 0.4910	10.2530
 0.4920	10.2740
 0.4930	10.2880
 0.4940	10.3080
 0.4950	10.3410
 0.4960	10.3770
 0.4970	10.4070
 0.4980	10.4410
 0.4990	10.4900
 0.5000	10.5470
 0.5010	10.6070
 0.5020	10.6710
 0.5030	10.7440
 0.5040	10.8310
 0.5050	10.9290
 0.5060	11.0350
 0.5070	11.1510
 0.5080	11.2860
 0.5090	11.4390
 0.5100	11.6010
 0.5110	11.7800
 0.5120	11.9720
 0.5130	12.1810
 0.5140	12.4180
 0.5150	12.6680
 0.5160	12.9340
 0.5170	13.2170
 0.5180	13.5070
 0.5190	13.8130
 0.5200	14.1360
 0.5210	14.4660
 0.5220	14.7890
 0.5230	15.1110
 0.5240	15.4300
 0.5250	15.7320
 0.5260	16.0250
 0.5270	16.3060
 0.5280	16.5690
 0.5290	16.8100
 0.5300	17.0310
 0.5310	17.2340
 0.5320	17.4200
 0.5330	17.5920
 0.5340	17.7460
 0.5350	17.8770
 0.5360	17.9910
 0.5370	18.0890
 0.5380	18.1780
 0.5390	18.2610
 0.5400	18.3250
 0.5410	18.3760
 0.5420	18.4250
 0.5430	18.4760
 0.5440	18.5260
 0.5450	18.5770
 0.5460	18.6320
 0.5470	18.6850
 0.5480	18.7340
 0.5490	18.7750
 0.5500	18.8050
 0.5510	18.8210
 0.5520	18.8250
 0.5530	18.8150
 0.5540	18.7850
 0.5550	18.7390
 0.5560	18.6760
 0.5570	18.5920
 0.5580	18.4930
 0.5590	18.3780
 0.5600	18.2470
 0.5610	18.1050
 0.5620	17.9510
 0.5630	17.7860
 0.5640	17.6100
 0.5650	17.4200
 0.5660	17.2180
 0.5670	17.0090
 0.5680	16.7970
 0.5690	16.5840
 0.5700	16.3690
 0.5710	16.1520
 0.5720	15.9410
 0.5730	15.7400
 0.5740	15.5540
 0.5750	15.3840
 0.5760	15.2280
 0.5770	15.0840
 0.5780	14.9470
 0.5790	14.8140
 0.5800	14.6930
 0.5810	14.5810
 0.5820	14.4710
 0.5830	14.3640
 0.5840	14.2620
 0.5850	14.1650
 0.5860	14.0710
 0.5870	13.9810
 0.5880	13.8980
 0.5890	13.8260
 0.5900	13.7760
 0.5910	13.7310
 0.5920	13.6840
 0.5930	13.6370
 0.5940	13.5970
 0.5950	13.5590
 0.5960	13.5200
 0.5970	13.4780
 0.5980	13.4410
 0.5990	13.4060
 0.6000	13.3680
 0.6010	13.3290
 0.6020	13.2860
 0.6030	13.2390
 0.6040	13.1860
 0.6050	13.1230
 0.6060	13.0530
 0.6070	12.9800
 0.6080	12.8990
 0.6090	12.8100
 0.6100	12.7110
 0.6110	12.6090
 0.6120	12.5260
 0.6130	12.4530
 0.6140	12.3810
 0.6150	12.3040
 0.6160	12.2270
 0.6170	12.1550
 0.6180	12.0930
 0.6190	12.0300
 0.6200	11.9710
 0.6210	11.9190
 0.6220	11.8780
 0.6230	11.8390
 0.6240	11.8080
 0.6250	11.7850
 0.6260	11.7620
 0.6270	11.7410
 0.6280	11.7220
 0.6290	11.7070
 0.6300	11.6930
 0.6310	11.6780
 0.6320	11.6590
 0.6330	11.6340
 0.6340	11.6020
 0.6350	11.5610
 0.6360	11.5070
 0.6370	11.4450
 0.6380	11.3740
 0.6390	11.2950
 0.6400	11.2140
 0.6410	11.1300
 0.6420	11.0420
 0.6430	10.9530
 0.6440	10.8680
 0.6450	10.7870
 0.6460	10.7100
 0.6470	10.6390
 0.6480	10.5770
 0.6490	10.5250
 0.6500	10.4820
 0.6510	10.4480
 0.6520	10.4140
 0.6530	10.3840
 0.6540	10.3590
 0.6550	10.3350
 0.6560	10.3070
 0.6570	10.2740
 0.6580	10.2380
 0.6590	10.1990
 0.6600	10.1600
 0.6610	10.1230
 0.6620	10.0840
 0.6630	10.0490
 0.6640	10.0200
 0.6650	 9.9970
 0.6660	 9.9780
 0.6670	 9.9640
 0.6680	 9.9570
 0.6690	 9.9550
 0.6700	 9.9600
 0.6710	 9.9680
 0.6720	 9.9780
 0.6730	 9.9960
 0.6740	10.0130
 0.6750	10.0330
 0.6760	10.0600
 0.6770	10.0940
 0.6780	10.1290
 0.6790	10.1670
 0.6800	10.2120
 0.6810	10.2600
 0.6820	10.3120
 0.6830	10.3720
 0.6840	10.4380
 0.6850	10.5170
 0.6860	10.6110
 0.6870	10.7250
 0.6880	10.8730
 0.6890	11.0650
 0.6900	11.3110
 0.6910	11.6210
 0.6920	12.0030
 0.6930	12.4700
 0.6940	13.0270
 0.6950	13.6750
 0.6960	14.4060
 0.6970	15.2160
 0.6980	16.1030
 0.6990	17.0540
 0.7000	18.0560
 0.7010	19.0980
 0.7020	20.1670
 0.7030	21.2490
 0.7040	22.3390
 0.7050	23.4310
 0.7060	24.5110
 0.7070	25.5820
 0.7080	26.6430
 0.7090	27.6930
 0.7100	28.7310
 0.7110	29.7540
 0.7120	30.7620
 0.7130	31.7580
 0.7140	32.7380
 0.7150	33.6990
 0.7160	34.6340
 0.7170	35.5460
 0.7180	36.4390
 0.7190	37.3120
 0.7200	38.1590
 0.7210	38.9740
 0.7220	39.7590
 0.7230	40.5150
 0.7240	41.2420
 0.7250	41.9350
 0.7260	42.5980
 0.7270	43.2300
 0.7280	43.8210
 0.7290	44.3810
 0.7300	44.9120
 0.7310	45.4130
 0.7320	45.8770
 0.7330	46.3110
 0.7340	46.7200
 0.7350	47.1020
 0.7360	47.4610
 0.7370	47.7960
 0.7380	48.1030
 0.7390	48.3840
 0.7400	48.6470
 0.7410	48.8890
 0.7420	49.1090
 0.7430	49.3140
 0.7440	49.5010
 0.7450	49.6710
 0.7460	49.8240
 0.7470	49.9600
 0.7480	50.0830
 0.7490	50.1970
 0.7500	50.2980
 0.7510	50.3930
 0.7520	50.4750
 0.7530	50.5390
 0.7540	50.6000
 0.7550	50.6570
 0.7560	50.7100
 0.7570	50.7590
 0.7580	50.8030
 0.7590	50.8420
 0.7600	50.8740
 0.7610	50.9040
 0.7620	50.9280
 0.7630	50.9480
 0.7640	50.9680
 0.7650	50.9890
 0.7660	51.0030
 0.7670	51.0130
 0.7680	51.0240
 0.7690	51.0340
 0.7700	51.0460
 0.7710	51.0570
 0.7720	51.0640
 0.7730	51.0720
 0.7740	51.0820
 0.7750	51.0900
 0.7760	51.0960
 0.7770	51.1030
 0.7780	51.1110
 0.7790	51.1200
 0.7800	51.1250
 0.7810	51.1310
 0.7820	51.1380
 0.7830	51.1460
 0.7840	51.1530
 0.7850	51.1610
 0.7860	51.1700
 0.7870	51.1740
 0.7880	51.1800
 0.7890	51.1870
 0.7900	51.1950
 0.7910	51.2000
 0.7920	51.2050
 0.7930	51.2110
 0.7940	51.2150
 0.7950	51.2160
 0.7960	51.2140
 0.7970	51.2130
 0.7980	51.2150
 0.7990	51.2150
 0.8000	51.2110
 0.8010	51.2060
 0.8020	51.2040
 0.8030	51.2010
 0.8040	51.1980
 0.8050	51.1990
 0.8060	51.1950
 0.8070	51.1860
 0.8080	51.1770
 0.8090	51.1790
 0.8100	51.1730
 0.8110	51.1620
 0.8120	51.1500
 0.8130	51.1380
 0.8140	51.1290
 0.8150	51.1210
 0.8160	51.1090
 0.8170	51.0990
 0.8180	51.0890
 0.8190	51.0800
 0.8200	51.0730
 0.8210	51.0590
 0.8220	51.0440
 0.8230	51.0320
 0.8240	51.0210
 0.8250	51.0080
 0.8260	50.9930
 0.8270	50.9780
 0.8280	50.9690
 0.8290	50.9520
 0.8300	50.9330
 0.8310	50.9210
 0.8320	50.9060
 0.8330	50.8970
 0.8340	50.8870
 0.8350	50.8700
 0.8360	50.8580
 0.8370	50.8500
 0.8380	50.8410
 0.8390	50.8320
 0.8400	50.8290
 0.8410	50.8240
 0.8420	50.8160
 0.8430	50.8050
 0.8440	50.7960
 0.8450	50.7900
 0.8460	50.7840
 0.8470	50.7790
 0.8480	50.7770
 0.8490	50.7740
 0.8500	50.7690
 0.8510	50.7640
 0.8520	50.7600
 0.8530	50.7550
 0.8540	50.7520
 0.8550	50.7530
 0.8560	50.7520
 0.8570	50.7480
 0.8580	50.7450
 0.8590	50.7390
 0.8600	50.7390
 0.8610	50.7430
 0.8620	50.7400
 0.8630	50.7390
 0.8640	50.7380
 0.8650	50.7370
 0.8660	50.7440
 0.8670	50.7420
 0.8680	50.7390
 0.8690	50.7420
 0.8700	50.7460
 0.8710	50.7480
 0.8720	50.7490
 0.8730	50.7510
 0.8740	50.7620
 0.8750	50.7680
 0.8760	50.7650
 0.8770	50.7580
 0.8780	50.7620
 0.8790	50.7680
 0.8800	50.7700
 0.8810	50.7750
 0.8820	50.7840
 0.8830	50.7900
 0.8840	50.7910
 0.8850	50.7960
 0.8860	50.7950
 0.8870	50.7940
 0.8880	50.8000
 0.8890	50.8100
 0.8900	50.8170
 0.8910	50.8200
 0.8920	50.8210
 0.8930	50.8220
 0.8940	50.8280
 0.8950	50.8370
 0.8960	50.8400
 0.8970	50.8390
 0.8980	50.8430
 0.8990	50.8500
 0.9000	50.8530
 0.9010	50.8590
 0.9020	50.8640
 0.9030	50.8670
 0.9040	50.8680
 0.9050	50.8700
 0.9060	50.8710
 0.9070	50.8730
 0.9080	50.8790
 0.9090	50.8880
 0.9100	50.8940
 0.9110	50.8950
 0.9120	50.8970
 0.9130	50.8960
 0.9140	50.8950
 0.9150	50.8990
 0.9160	50.8990
 0.9170	50.8970
 0.9180	50.8950
 0.9190	50.8930
 0.9200	50.8880
 0.9210	50.8870
 0.9220	50.8860
 0.9230	50.8810
 0.9240	50.8630
 0.9250	50.8540
 0.9260	50.8530
 0.9270	50.8420
 0.9280	50.8330
 0.9290	50.8190
 0.9300	50.8020
 0.9310	50.7920
 0.9320	50.7740
 0.9330	50.7540
 0.9340	50.7340
 0.9350	50.7110
 0.9360	50.6940
 0.9370	50.6760
 0.9380	50.6530
 0.9390	50.6300
 0.9400	50.5960
 0.9410	50.5650
 0.9420	50.5430
 0.9430	50.5120
 0.9440	50.4830
 0.9450	50.4480
 0.9460	50.4050
 0.9470	50.3680
 0.9480	50.3170
 0.9490	50.2700
 0.9500	50.2350
 0.9510	50.1780
 0.9520	50.1220
 0.9530	50.0540
 0.9540	49.9720
 0.9550	49.9310
 0.9560	49.8770
 0.9570	49.8170
 0.9580	49.7700
 0.9590	49.7140
 0.9600	49.6690
 0.9610	49.6310
 0.9620	49.5940
 0.9630	49.5510
 0.9640	49.5260
 0.9650	49.5120
 0.9660	49.4920
 0.9670	49.4740
 0.9680	49.4610
 0.9690	49.4500
 0.9700	49.4350
 0.9710	49.4130
 0.9720	49.3960
 0.9730	49.3800
 0.9740	49.3600
 0.9750	49.3760
 0.9760	49.3780
 0.9770	49.3690
 0.9780	49.3700
 0.9790	49.3720
 0.9800	49.3690
 0.9810	49.3670
 0.9820	49.3750
 0.9830	49.3800
 0.9840	49.3760
 0.9850	49.3730
 0.9860	49.3860
 0.9870	49.3970
 0.9880	49.4070
 0.9890	49.4240
 0.9900	49.4500
 0.9910	49.4540
 0.9920	49.4930
 0.9930	49.5310
 0.9940	49.5700
 0.9950	49.6080
 0.9960	49.6470
 0.9970	49.6850
 0.9980	49.7240
 0.9990	49.7630
 1.0000	49.8010
 1.0010	49.8400
 1.0020	49.8780
 1.0030	49.9170
 1.0040	49.9560
 1.0050	49.9940
 1.0060	50.0330
 1.0070	50.0710
 1.0080	50.1100
 1.0090	50.1480
 1.0100	50.1480
 1.0110	50.1680
 1.0120	50.1860
 1.0130	50.2030
 1.0140	50.2210
 1.0150	50.2410
 1.0160	50.2580
 1.0170	50.2730
 1.0180	50.2930
 1.0190	50.3120
 1.0200	50.3270
 1.0210	50.3460
 1.0220	50.3660
 1.0230	50.3820
 1.0240	50.3920
 1.0250	50.4060
 1.0260	50.4170
 1.0270	50.4320
 1.0280	50.4490
 1.0290	50.4640
 1.0300	50.4780
 1.0310	50.4910
 1.0320	50.5030
 1.0330	50.5150
 1.0340	50.5240
 1.0350	50.5350
 1.0360	50.5460
 1.0370	50.5570
 1.0380	50.5700
 1.0390	50.5850
 1.0400	50.5990
 1.0410	50.6160
 1.0420	50.6270
 1.0430	50.6370
 1.0440	50.6470
 1.0450	50.6530
 1.0460	50.6610
 1.0470	50.6740
 1.0480	50.6830
 1.0490	50.6860
 1.0500	50.6930
 1.0510	50.7000
 1.0520	50.7050
 1.0530	50.7140
 1.0540	50.7270
 1.0550	50.7340
 1.0560	50.7400
 1.0570	50.7470
 1.0580	50.7510
 1.0590	50.7580
 1.0600	50.7720
 1.0610	50.7770
 1.0620	50.7750
 1.0630	50.7800
 1.0640	50.7830
 1.0650	50.7890
 1.0660	50.8060
 1.0670	50.8150
 1.0680	50.8210
 1.0690	50.8230
 1.0700	50.8240
 1.0710	50.8180
 1.0720	50.8190
 1.0730	50.8210
 1.0740	50.8240
 1.0750	50.8340
 1.0760	50.8360
 1.0770	50.8340
 1.0780	50.8350
 1.0790	50.8370
 1.0800	50.8360
 1.0810	50.8350
 1.0820	50.8340
 1.0830	50.8290
 1.0840	50.8240
 1.0850	50.8190
 1.0860	50.8140
 1.0870	50.8090
 1.0880	50.8020
 1.0890	50.7970
 1.0900	50.7930
 1.0910	50.7870
 1.0920	50.7800
 1.0930	50.7720
 1.0940	50.7640
 1.0950	50.7550
 1.0960	50.7450
 1.0970	50.7360
 1.0980	50.7250
 1.0990	50.7140
 1.1000	50.7040
 1.1010	50.6920
 1.1020	50.6790
 1.1030	50.6670
 1.1040	50.6540
 1.1050	50.6400
 1.1060	50.6270
 1.1070	50.6150
 1.1080	50.6020
 1.1090	50.5890
 1.1100	50.5740
 1.1110	50.5590
 1.1120	50.5410
 1.1130	50.5200
 1.1140	50.5000
 1.1150	50.4810
 1.1160	50.4600
 1.1170	50.4400
 1.1180	50.4170
 1.1190	50.3910
 1.1200	50.3630
 1.1210	50.3350
 1.1220	50.3040
 1.1230	50.2660
 1.1240	50.2260
 1.1250	50.1790
 1.1260	50.1260
 1.1270	50.0700
 1.1280	50.0110
 1.1290	49.9460
 1.1300	49.8750
 1.1310	49.7990
 1.1320	49.7150
 1.1330	49.6270
 1.1340	49.5360
 1.1350	49.4370
 1.1360	49.3320
 1.1370	49.2210
 1.1380	49.1050
 1.1390	48.9840
 1.1400	48.8620
 1.1410	48.7380
 1.1420	48.6100
 1.1430	48.4810
 1.1440	48.3520
 1.1450	48.2200
 1.1460	48.0960
 1.1470	47.9730
 1.1480	47.8580
 1.1490	47.7470
 1.1500	47.6420
 1.1510	47.5420
 1.1520	47.4500
 1.1530	47.3640
 1.1540	47.2860
 1.1550	47.2160
 1.1560	47.1530
 1.1570	47.0980
 1.1580	47.0490
 1.1590	47.0050
 1.1600	46.9660
 1.1610	46.9320
 1.1620	46.9040
 1.1630	46.8790
 1.1640	46.8580
 1.1650	46.8380
 1.1660	46.8220
 1.1670	46.8060
 1.1680	46.7930
 1.1690	46.7810
 1.1700	46.7690
 1.1710	46.7590
 1.1720	46.7510
 1.1730	46.7420
 1.1740	46.7350
 1.1750	46.7250
 1.1760	46.7120
 1.1770	46.7000
 1.1780	46.6870
 1.1790	46.6750
 1.1800	46.6640
 1.1810	46.6520
 1.1820	46.6380
 1.1830	46.6240
 1.1840	46.6120
 1.1850	46.6010
 1.1860	46.5930
 1.1870	46.5840
 1.1880	46.5750
 1.1890	46.5660
 1.1900	46.5590
 1.1910	46.5510
 1.1920	46.5460
 1.1930	46.5430
 1.1940	46.5400
 1.1950	46.5370
 1.1960	46.5370
 1.1970	46.5380
 1.1980	46.5410
 1.1990	46.5440
 1.2000	46.5490
 1.2010	46.5570
 1.2020	46.5660
 1.2030	46.5760
 1.2040	46.5870
 1.2050	46.5970
 1.2060	46.6070
 1.2070	46.6190
 1.2080	46.6330
 1.2090	46.6470
 1.2100	46.6630
 1.2110	46.6800
 1.2120	46.6990
 1.2130	46.7190
 1.2140	46.7410
 1.2150	46.7610
 1.2160	46.7820
 1.2170	46.8030
 1.2180	46.8250
 1.2190	46.8490
 1.2200	46.8720
 1.2210	46.8950
 1.2220	46.9170
 1.2230	46.9370
 1.2240	46.9580
 1.2250	46.9790
 1.2260	47.0000
 1.2270	47.0200
 1.2280	47.0390
 1.2290	47.0580
 1.2300	47.0770
 1.2310	47.0970
 1.2320	47.1170
 1.2330	47.1380
 1.2340	47.1560
 1.2350	47.1730
 1.2360	47.1900
 1.2370	47.2070
 1.2380	47.2220
 1.2390	47.2360
 1.2400	47.2510
 1.2410	47.2640
 1.2420	47.2780
 1.2430	47.2910
 1.2440	47.3040
 1.2450	47.3180
 1.2460	47.3300
 1.2470	47.3410
 1.2480	47.3550
 1.2490	47.3650
 1.2500	47.3730
 1.2510	47.3820
 1.2520	47.3910
 1.2530	47.4000
 1.2540	47.4060
 1.2550	47.4120
 1.2560	47.4190
 1.2570	47.4250
 1.2580	47.4320
 1.2590	47.4370
 1.2600	47.4430
 1.2610	47.4450
 1.2620	47.4450
 1.2630	47.4440
 1.2640	47.4430
 1.2650	47.4400
 1.2660	47.4390
 1.2670	47.4390
 1.2680	47.4380
 1.2690	47.4350
 1.2700	47.4280
 1.2710	47.4190
 1.2720	47.4120
 1.2730	47.4020
 1.2740	47.3910
 1.2750	47.3810
 1.2760	47.3690
 1.2770	47.3560
 1.2780	47.3460
 1.2790	47.3330
 1.2800	47.3150
 1.2810	47.2990
 1.2820	47.2800
 1.2830	47.2610
 1.2840	47.2430
 1.2850	47.2220
 1.2860	47.2020
 1.2870	47.1780
 1.2880	47.1530
 1.2890	47.1250
 1.2900	47.0970
 1.2910	47.0660
 1.2920	47.0340
 1.2930	47.0020
 1.2940	46.9680
 1.2950	46.9320
 1.2960	46.8960
 1.2970	46.8550
 1.2980	46.8100
 1.2990	46.7630
 1.3000	46.7160
 1.3010	46.6670
 1.3020	46.6170
 1.3030	46.5650
 1.3040	46.5070
 1.3050	46.4480
 1.3060	46.3860
 1.3070	46.3210
 1.3080	46.2530
 1.3090	46.1830
 1.3100	46.1080
 1.3110	46.0300
 1.3120	45.9490
 1.3130	45.8620
 1.3140	45.7740
 1.3150	45.6840
 1.3160	45.5910
 1.3170	45.4950
 1.3180	45.3990
 1.3190	45.2980
 1.3200	45.1900
 1.3210	45.0820
 1.3220	44.9720
 1.3230	44.8570
 1.3240	44.7380
 1.3250	44.6170
 1.3260	44.4920
 1.3270	44.3650
 1.3280	44.2380
 1.3290	44.1080
 1.3300	43.9760
 1.3310	43.8450
 1.3320	43.7110
 1.3330	43.5790
 1.3340	43.4470
 1.3350	43.3120
 1.3360	43.1750
 1.3370	43.0370
 1.3380	42.8980
 1.3390	42.7600
 1.3400	42.6230
 1.3410	42.4880
 1.3420	42.3560
 1.3430	42.2230
 1.3440	42.0890
 1.3450	41.9560
 1.3460	41.8230
 1.3470	41.6920
 1.3480	41.5630
 1.3490	41.4360
 1.3500	41.3110
 1.3510	41.1840
 1.3520	41.0580
 1.3530	40.9320
 1.3540	40.8070
 1.3550	40.6810
 1.3560	40.5550
 1.3570	40.4280
 1.3580	40.2990
 1.3590	40.1660
 1.3600	40.0300
 1.3610	39.8910
 1.3620	39.7490
 1.3630	39.6040
 1.3640	39.4520
 1.3650	39.2930
 1.3660	39.1250
 1.3670	38.9470
 1.3680	38.7620
 1.3690	38.5650
 1.3700	38.3520
 1.3710	38.1280
 1.3720	37.8870
 1.3730	37.6290
 1.3740	37.3550
 1.3750	37.0620
 1.3760	36.7470
 1.3770	36.4110
 1.3780	36.0490
 1.3790	35.6650
 1.3800	35.2590
 1.3810	34.8270
 1.3820	34.3800
 1.3830	33.9130
 1.3840	33.4290
 1.3850	32.9250
 1.3860	32.4110
 1.3870	31.8750
 1.3880	31.3370
 1.3890	30.7880
 1.3900	30.2300
 1.3910	29.6740
 1.3920	29.1150
 1.3930	28.5540
 1.3940	27.9990
 1.3950	27.4430
 1.3960	26.8960
 1.3970	26.3640
 1.3980	25.8440
 1.3990	25.3470
 1.4000	24.8670
 1.4010	24.4040
 1.4020	23.9630
 1.4030	23.5370
 1.4040	23.1340
 1.4050	22.7540
 1.4060	22.3940
 1.4070	22.0600
 1.4080	21.7460
 1.4090	21.4520
 1.4100	21.1800
 1.4110	20.9250
 1.4120	20.6890
 1.4130	20.4710
 1.4140	20.2690
 1.4150	20.0840
 1.4160	19.9140
 1.4170	19.7580
 1.4180	19.6150
 1.4190	19.4810
 1.4200	19.3600
 1.4210	19.2500
 1.4220	19.1490
 1.4230	19.0600
 1.4240	18.9780
 1.4250	18.9030
 1.4260	18.8350
 1.4270	18.7740
 1.4280	18.7190
 1.4290	18.6710
 1.4300	18.6300
 1.4310	18.5930
 1.4320	18.5620
 1.4330	18.5350
 1.4340	18.5120
 1.4350	18.4940
 1.4360	18.4790
 1.4370	18.4690
 1.4380	18.4620
 1.4390	18.4580
 1.4400	18.4580
 1.4410	18.4590
 1.4420	18.4640
 1.4430	18.4700
 1.4440	18.4780
 1.4450	18.4890
 1.4460	18.5020
 1.4470	18.5170
 1.4480	18.5340
 1.4490	18.5520
 1.4500	18.5700
 1.4510	18.5880
 1.4520	18.6070
 1.4530	18.6290
 1.4540	18.6530
 1.4550	18.6800
 1.4560	18.7080
 1.4570	18.7390
 1.4580	18.7730
 1.4590	18.8080
 1.4600	18.8490
 1.4610	18.8940
 1.4620	18.9420
 1.4630	18.9970
 1.4640	19.0550
 1.4650	19.1180
 1.4660	19.1860
 1.4670	19.2570
 1.4680	19.3330
 1.4690	19.4140
 1.4700	19.4970
 1.4710	19.5860
 1.4720	19.6790
 1.4730	19.7740
 1.4740	19.8740
 1.4750	19.9760
 1.4760	20.0810
 1.4770	20.1880
 1.4780	20.2970
 1.4790	20.4100
 1.4800	20.5250
 1.4810	20.6400
 1.4820	20.7570
 1.4830	20.8760
 1.4840	20.9960
 1.4850	21.1170
 1.4860	21.2380
 1.4870	21.3610
 1.4880	21.4850
 1.4890	21.6080
 1.4900	21.7330
 1.4910	21.8590
 1.4920	21.9860
 1.4930	22.1130
 1.4940	22.2400
 1.4950	22.3680
 1.4960	22.4970
 1.4970	22.6250
 1.4980	22.7550
 1.4990	22.8860
 1.5000	23.0170
 1.5010	23.1470
 1.5020	23.2780
 1.5030	23.4090
 1.5040	23.5390
 1.5050	23.6680
 1.5060	23.7970
 1.5070	23.9270
 1.5080	24.0550
 1.5090	24.1840
 1.5100	24.3120
 1.5110	24.4400
 1.5120	24.5680
 1.5130	24.6940
 1.5140	24.8200
 1.5150	24.9470
 1.5160	25.0720
 1.5170	25.1990
 1.5180	25.3250
 1.5190	25.4490
 1.5200	25.5730
 1.5210	25.6950
 1.5220	25.8150
 1.5230	25.9360
 1.5240	26.0570
 1.5250	26.1780
 1.5260	26.2970
 1.5270	26.4140
 1.5280	26.5300
 1.5290	26.6430
 1.5300	26.7570
 1.5310	26.8720
 1.5320	26.9830
 1.5330	27.0960
 1.5340	27.2080
 1.5350	27.3180
 1.5360	27.4280
 1.5370	27.5370
 1.5380	27.6450
 1.5390	27.7530
 1.5400	27.8600
 1.5410	27.9660
 1.5420	28.0730
 1.5430	28.1770
 1.5440	28.2800
 1.5450	28.3820
 1.5460	28.4820
 1.5470	28.5820
 1.5480	28.6820
 1.5490	28.7810
 1.5500	28.8790
 1.5510	28.9750
 1.5520	29.0710
 1.5530	29.1640
 1.5540	29.2580
 1.5550	29.3510
 1.5560	29.4420
 1.5570	29.5340
 1.5580	29.6250
 1.5590	29.7140
 1.5600	29.8050
 1.5610	29.8930
 1.5620	29.9780
 1.5630	30.0630
 1.5640	30.1470
 1.5650	30.2300
 1.5660	30.3130
 1.5670	30.3960
 1.5680	30.4780
 1.5690	30.5570
 1.5700	30.6370
 1.5710	30.7170
 1.5720	30.7950
 1.5730	30.8750
 1.5740	30.9530
 1.5750	31.0290
 1.5760	31.1060
 1.5770	31.1810
 1.5780	31.2550
 1.5790	31.3300
 1.5800	31.4030
 1.5810	31.4760
 1.5820	31.5480
 1.5830	31.6180
 1.5840	31.6870
 1.5850	31.7560
 1.5860	31.8240
 1.5870	31.8920
 1.5880	31.9600
 1.5890	32.0290
 1.5900	32.0960
 1.5910	32.1620
 1.5920	32.2270
 1.5930	32.2890
 1.5940	32.3520
 1.5950	32.4170
 1.5960	32.4790
 1.5970	32.5430
 1.5980	32.6040
 1.5990	32.6630
 1.6000	32.7240
 1.6010	32.7820
 1.6020	32.8400
 1.6030	32.8990
 1.6040	32.9550
 1.6050	33.0090
 1.6060	33.0630
 1.6070	33.1170
 1.6080	33.1690
 1.6090	33.2220
 1.6100	33.2740
 1.6110	33.3260
 1.6120	33.3770
 1.6130	33.4290
 1.6140	33.4780
 1.6150	33.5240
 1.6160	33.5730
 1.6170	33.6200
 1.6180	33.6650
 1.6190	33.7110
 1.6200	33.7540
 1.6210	33.7970
 1.6220	33.8410
 1.6230	33.8830
 1.6240	33.9250
 1.6250	33.9640
 1.6260	34.0050
 1.6270	34.0440
 1.6280	34.0820
 1.6290	34.1200
 1.6300	34.1570
 1.6310	34.1940
 1.6320	34.2310
 1.6330	34.2670
 1.6340	34.3030
 1.6350	34.3360
 1.6360	34.3670
 1.6370	34.3970
 1.6380	34.4230
 1.6390	34.4500
 1.6400	34.4770
 1.6410	34.5020
 1.6420	34.5260
 1.6430	34.5490
 1.6440	34.5700
 1.6450	34.5890
 1.6460	34.6070
 1.6470	34.6220
 1.6480	34.6360
 1.6490	34.6490
 1.6500	34.6580
 1.6510	34.6650
 1.6520	34.6690
 1.6530	34.6720
 1.6540	34.6740
 1.6550	34.6750
 1.6560	34.6730
 1.6570	34.6670
 1.6580	34.6590
 1.6590	34.6520
 1.6600	34.6460
 1.6610	34.6410
 1.6620	34.6370
 1.6630	34.6310
 1.6640	34.6230
 1.6650	34.6170
 1.6660	34.6130
 1.6670	34.6100
 1.6680	34.6080
 1.6690	34.6060
 1.6700	34.6010
 1.6710	34.5970
 1.6720	34.5930
 1.6730	34.5880
 1.6740	34.5820
 1.6750	34.5740
 1.6760	34.5660
 1.6770	34.5560
 1.6780	34.5470
 1.6790	34.5350
 1.6800	34.5190
 1.6810	34.5030
 1.6820	34.4830
 1.6830	34.4600
 1.6840	34.4360
 1.6850	34.4090
 1.6860	34.3800
 1.6870	34.3510
 1.6880	34.3220
 1.6890	34.2920
 1.6900	34.2620
 1.6910	34.2330
 1.6920	34.2030
 1.6930	34.1730
 1.6940	34.1410
 1.6950	34.1050
 1.6960	34.0710
 1.6970	34.0350
 1.6980	33.9990
 1.6990	33.9650
 1.7000	33.9280
 1.7010	33.8890
 1.7020	33.8490
 1.7030	33.8080
 1.7040	33.7660
 1.7050	33.7240
 1.7060	33.6800
 1.7070	33.6360
 1.7080	33.5890
 1.7090	33.5390
 1.7100	33.4920
 1.7110	33.4460
 1.7120	33.4000
 1.7130	33.3540
 1.7140	33.3040
 1.7150	33.2520
 1.7160	33.2010
 1.7170	33.1490
 1.7180	33.0970
 1.7190	33.0450
 1.7200	32.9930
 1.7210	32.9400
 1.7220	32.8890
 1.7230	32.8390
 1.7240	32.7880
 1.7250	32.7360
 1.7260	32.6860
 1.7270	32.6350
 1.7280	32.5860
 1.7290	32.5360
 1.7300	32.4890
 1.7310	32.4420
 1.7320	32.3980
 1.7330	32.3510
 1.7340	32.3030
 1.7350	32.2540
 1.7360	32.2060
 1.7370	32.1550
 1.7380	32.1020
 1.7390	32.0500
 1.7400	31.9970
 1.7410	31.9430
 1.7420	31.8890
 1.7430	31.8320
 1.7440	31.7710
 1.7450	31.7090
 1.7460	31.6460
 1.7470	31.5840
 1.7480	31.5210
 1.7490	31.4570
 1.7500	31.3930
 1.7510	31.3290
 1.7520	31.2650
 1.7530	31.2010
 1.7540	31.1380
 1.7550	31.0750
 1.7560	31.0120
 1.7570	30.9510
 1.7580	30.8890
 1.7590	30.8280
 1.7600	30.7670
 1.7610	30.7080
 1.7620	30.6520
 1.7630	30.5990
 1.7640	30.5460
 1.7650	30.4950
 1.7660	30.4450
 1.7670	30.3930
 1.7680	30.3450
 1.7690	30.3010
 1.7700	30.2550
 1.7710	30.2110
 1.7720	30.1660
 1.7730	30.1200
 1.7740	30.0770
 1.7750	30.0350
 1.7760	29.9950
 1.7770	29.9560
 1.7780	29.9210
 1.7790	29.8880
 1.7800	29.8570
 1.7810	29.8280
 1.7820	29.7990
 1.7830	29.7700
 1.7840	29.7450
 1.7850	29.7210
 1.7860	29.6990
 1.7870	29.6810
 1.7880	29.6640
 1.7890	29.6490
 1.7900	29.6350
 1.7910	29.6220
 1.7920	29.6110
 1.7930	29.6020
 1.7940	29.5970
 1.7950	29.5910
 1.7960	29.5850
 1.7970	29.5820
 1.7980	29.5810
 1.7990	29.5790
 1.8000	29.5790
 1.8010	29.5770
 1.8020	29.5710
 1.8030	29.5700
 1.8040	29.5720
 1.8050	29.5730
 1.8060	29.5780
 1.8070	29.5810
 1.8080	29.5820
 1.8090	29.5840
 1.8100	29.5870
 1.8110	29.5890
 1.8120	29.5900
 1.8130	29.5880
 1.8140	29.5860
 1.8150	29.5830
 1.8160	29.5800
 1.8170	29.5760
 1.8180	29.5710
 1.8190	29.5610
 1.8200	29.5530
 1.8210	29.5450
 1.8220	29.5360
 1.8230	29.5280
 1.8240	29.5170
 1.8250	29.5050
 1.8260	29.4900
 1.8270	29.4340
 1.8280	29.3780
 1.8290	29.3220
 1.8300	29.2660
 1.8310	29.2100
 1.8320	29.1540
 1.8330	29.0980
 1.8340	29.0420
 1.8350	29.0420
 1.8360	28.9940
 1.8370	28.9430
 1.8380	28.8840
 1.8390	28.8210
 1.8400	28.7550
 1.8410	28.6820
 1.8420	28.6030
 1.8430	28.5160
 1.8440	28.4240
 1.8450	28.3240
 1.8460	28.2150
 1.8470	28.0990
 1.8480	27.9730
 1.8490	27.8360
 1.8500	27.6890
 1.8510	27.5310
 1.8520	27.3630
 1.8530	27.1850
 1.8540	26.9960
 1.8550	26.7930
 1.8560	26.5770
 1.8570	26.3480
 1.8580	26.1050
 1.8590	25.8480
 1.8600	25.5770
 1.8610	25.2910
 1.8620	24.9880
 1.8630	24.6700
 1.8640	24.3390
 1.8650	23.9930
 1.8660	23.6300
 1.8670	23.2470
 1.8680	22.8470
 1.8690	22.4310
 1.8700	22.0010
 1.8710	21.5550
 1.8720	21.1020
 1.8730	20.6370
 1.8740	20.1650
 1.8750	19.6900
 1.8760	19.2100
 1.8770	18.7320
 1.8780	18.2580
 1.8790	17.7850
 1.8800	17.3220
 1.8810	16.8660
 1.8820	16.4140
 1.8830	15.9670
 1.8840	15.5320
 1.8850	15.1050
 1.8860	14.6920
 1.8870	14.2990
 1.8880	13.9200
 1.8890	13.5610
 1.8900	13.2220
 1.8910	12.9010
 1.8920	12.5960
 1.8930	12.3180
 1.8940	12.0600
 1.8950	11.8200
 1.8960	11.6020
 1.8970	11.4020
 1.8980	11.2170
 1.8990	11.0520
 1.9000	10.9010
 1.9010	10.7690
 1.9020	10.6470
 1.9030	10.5420
 1.9040	10.4470
 1.9050	10.3630
 1.9060	10.2890
 1.9070	10.2240
 1.9080	10.1670
 1.9090	10.1180
 1.9100	10.0760
 1.9110	10.0380
 1.9120	10.0070
 1.9130	 9.9770
 1.9140	 9.9520
 1.9150	 9.9280
 1.9160	 9.9100
 1.9170	 9.8930
 1.9180	 9.8790
 1.9190	 9.8680
 1.9200	 9.8590
 1.9210	 9.8510
 1.9220	 9.8460
 1.9230	 9.8440
 1.9240	 9.8410
 1.9250	 9.8380
 1.9260	 9.8360
 1.9270	 9.8350
 1.9280	 9.8350
 1.9290	 9.8380
 1.9300	 9.8450
 1.9310	 9.8540
 1.9320	 9.8620
 1.9330	 9.8720
 1.9340	 9.8830
 1.9350	 9.8940
 1.9360	 9.9050
 1.9370	 9.9180
 1.9380	 9.9310
 1.9390	 9.9470
 1.9400	 9.9650
 1.9410	 9.9820
 1.9420	10.0010
 1.9430	10.0170
 1.9440	10.0350
 1.9450	10.0550
 1.9460	10.0760
 1.9470	10.1010
 1.9480	10.1240
 1.9490	10.1470
 1.9500	10.1720
 1.9510	10.1960
 1.9520	10.2200
 1.9530	10.2490
 1.9540	10.2770
 1.9550	10.3040
 1.9560	10.3310
 1.9570	10.3610
 1.9580	10.3910
 1.9590	10.4230
 1.9600	10.4610
 1.9610	10.4960
 1.9620	10.5290
 1.9630	10.5610
 1.9640	10.5950
 1.9650	10.6290
 1.9660	10.6660
 1.9670	10.7060
 1.9680	10.7460
 1.9690	10.7880
 1.9700	10.8300
 1.9710	10.8730
 1.9720	10.9150
 1.9730	10.9570
 1.9740	10.9980
 1.9750	11.0410
 1.9760	11.0860
 1.9770	11.1340
 1.9780	11.1840
 1.9790	11.2330
 1.9800	11.2830
 1.9810	11.3330
 1.9820	11.3820
 1.9830	11.4310
 1.9840	11.4840
 1.9850	11.5340
 1.9860	11.5830
 1.9870	11.6340
 1.9880	11.6870
 1.9890	11.7400
 1.9900	11.7970
 1.9910	11.8550
 1.9920	11.9100
 1.9930	11.9650
 1.9940	12.0210
 1.9950	12.0750
 1.9960	12.1320
 1.9970	12.1910
 1.9980	12.2500
 1.9990	12.3090
 2.0000	12.3680
 2.0010	12.4280
 2.0020	12.4890
 2.0030	12.5490
 2.0040	12.6080
 2.0050	12.6680
 2.0060	12.7240
 2.0070	12.7840
 2.0080	12.8470
 2.0090	12.9060
 2.0100	12.9660
 2.0110	13.0250
 2.0120	13.0830
 2.0130	13.1390
 2.0140	13.1970
 2.0150	13.2560
 2.0160	13.3130
 2.0170	13.3710
 2.0180	13.4290
 2.0190	13.4870
 2.0200	13.5450
 2.0210	13.6000
 2.0220	13.6580
 2.0230	13.7180
 2.0240	13.7760
 2.0250	13.8340
 2.0260	13.8920
 2.0270	13.9480
 2.0280	14.0020
 2.0290	14.0570
 2.0300	14.1120
 2.0310	14.1650
 2.0320	14.2150
 2.0330	14.2660
 2.0340	14.3160
 2.0350	14.3670
 2.0360	14.4200
 2.0370	14.4700
 2.0380	14.5210
 2.0390	14.5710
 2.0400	14.6200
 2.0410	14.6670
 2.0420	14.7130
 2.0430	14.7590
 2.0440	14.8050
 2.0450	14.8500
 2.0460	14.8950
 2.0470	14.9420
 2.0480	14.9880
 2.0490	15.0340
 2.0500	15.0810
 2.0510	15.1280
 2.0520	15.1750
 2.0530	15.2210
 2.0540	15.2670
 2.0550	15.3130
 2.0560	15.3610
 2.0570	15.4090
 2.0580	15.4560
 2.0590	15.5020
 2.0600	15.5450
 2.0610	15.5910
 2.0620	15.6370
 2.0630	15.6840
 2.0640	15.7340
 2.0650	15.7820
 2.0660	15.8290
 2.0670	15.8750
 2.0680	15.9210
 2.0690	15.9680
 2.0700	16.0160
 2.0710	16.0650
 2.0720	16.1150
 2.0730	16.1650
 2.0740	16.2110
 2.0750	16.2530
 2.0760	16.3010
 2.0770	16.3490
 2.0780	16.3970
 2.0790	16.4510
 2.0800	16.4990
 2.0810	16.5420
 2.0820	16.5900
 2.0830	16.6380
 2.0840	16.6850
 2.0850	16.7360
 2.0860	16.7820
 2.0870	16.8260
 2.0880	16.8690
 2.0890	16.9110
 2.0900	16.9490
 2.0910	16.9910
 2.0920	17.0330
 2.0930	17.0780
 2.0940	17.1280
 2.0950	17.1740
 2.0960	17.2190
 2.0970	17.2660
 2.0980	17.3110
 2.0990	17.3570
 2.1000	17.4030
 2.1010	17.4500
 2.1020	17.4960
 2.1030	17.5400
 2.1040	17.5850
 2.1050	17.6300
 2.1060	17.6740
 2.1070	17.7180
 2.1080	17.7620
 2.1090	17.8070
 2.1100	17.8520
 2.1110	17.8970
 2.1120	17.9410
 2.1130	17.9860
 2.1140	18.0290
 2.1150	18.0700
 2.1160	18.1110
 2.1170	18.1520
 2.1180	18.1920
 2.1190	18.2310
 2.1200	18.2700
 2.1210	18.3080
 2.1220	18.3450
 2.1230	18.3850
 2.1240	18.4280
 2.1250	18.4670
 2.1260	18.5050
 2.1270	18.5430
 2.1280	18.5770
 2.1290	18.6130
 2.1300	18.6480
 2.1310	18.6830
 2.1320	18.7190
 2.1330	18.7510
 2.1340	18.7800
 2.1350	18.8110
 2.1360	18.8370
 2.1370	18.8680
 2.1380	18.9050
 2.1390	18.9370
 2.1400	18.9700
 2.1410	19.0020
 2.1420	19.0310
 2.1430	19.0560
 2.1440	19.0840
 2.1450	19.1140
 2.1460	19.1410
 2.1470	19.1670
 2.1480	19.1960
 2.1490	19.2240
 2.1500	19.2540
 2.1510	19.2920
 2.1520	19.3220
 2.1530	19.3480
 2.1540	19.3720
 2.1550	19.3920
 2.1560	19.4130
 2.1570	19.4340
 2.1580	19.4540
 2.1590	19.4740
 2.1600	19.4930
 2.1610	19.5180
 2.1620	19.5400
 2.1630	19.5600
 2.1640	19.5810
 2.1650	19.6010
 2.1660	19.6160
 2.1670	19.6360
 2.1680	19.6620
 2.1690	19.6830
 2.1700	19.7060
 2.1710	19.7260
 2.1720	19.7420
 2.1730	19.7610
 2.1740	19.7800
 2.1750	19.7970
 2.1760	19.8110
 2.1770	19.8290
 2.1780	19.8490
 2.1790	19.8690
 2.1800	19.8910
 2.1810	19.9130
 2.1820	19.9330
 2.1830	19.9530
 2.1840	19.9740
 2.1850	19.9980
 2.1860	20.0190
 2.1870	20.0390
 2.1880	20.0570
 2.1890	20.0720
 2.1900	20.0880
 2.1910	20.1030
 2.1920	20.1170
 2.1930	20.1310
 2.1940	20.1460
 2.1950	20.1610
 2.1960	20.1760
 2.1970	20.1950
 2.1980	20.2090
 2.1990	20.2180
 2.2000	20.2300
 2.2010	20.2410
 2.2020	20.2510
 2.2030	20.2600
 2.2040	20.2700
 2.2050	20.2800
 2.2060	20.2890
 2.2070	20.2990
 2.2080	20.3130
 2.2090	20.3210
 2.2100	20.3270
 2.2110	20.3340
 2.2120	20.3390
 2.2130	20.3450
 2.2140	20.3530
 2.2150	20.3570
 2.2160	20.3600
 2.2170	20.3610
 2.2180	20.3610
 2.2190	20.3570
 2.2200	20.3480
 2.2210	20.3430
 2.2220	20.3390
 2.2230	20.3320
 2.2240	20.3230
 2.2250	20.3140
 2.2260	20.2990
 2.2270	20.2840
 2.2280	20.2720
 2.2290	20.2560
 2.2300	20.2380
 2.2310	20.2170
 2.2320	20.1950
 2.2330	20.1730
 2.2340	20.1480
 2.2350	20.1230
 2.2360	20.0940
 2.2370	20.0620
 2.2380	20.0280
 2.2390	19.9920
 2.2400	19.9560
 2.2410	19.9190
 2.2420	19.8810
 2.2430	19.8410
 2.2440	19.8020
 2.2450	19.7640
 2.2460	19.7210
 2.2470	19.6770
 2.2480	19.6300
 2.2490	19.5750
 2.2500	19.5250
 2.2510	19.4780
 2.2520	19.4270
 2.2530	19.3780
 2.2540	19.3260
 2.2550	19.2690
 2.2560	19.2120
 2.2570	19.1530
 2.2580	19.0960
 2.2590	19.0380
 2.2600	18.9820
 2.2610	18.9270
 2.2620	18.8750
 2.2630	18.8210
 2.2640	18.7670
 2.2650	18.7060
 2.2660	18.6440
 2.2670	18.5860
 2.2680	18.5250
 2.2690	18.4710
 2.2700	18.4250
 2.2710	18.3720
 2.2720	18.3150
 2.2730	18.2630
 2.2740	18.2120
 2.2750	18.1590
 2.2760	18.1090
 2.2770	18.0590
 2.2780	18.0010
 2.2790	17.9530
 2.2800	17.9120
 2.2810	17.8680
 2.2820	17.8250
 2.2830	17.7850
 2.2840	17.7480
 2.2850	17.7050
 2.2860	17.6630
 2.2870	17.6180
 2.2880	17.5640
 2.2890	17.5170
 2.2900	17.4740
 2.2910	17.4270
 2.2920	17.3770
 2.2930	17.3300
 2.2940	17.2830
 2.2950	17.2360
 2.2960	17.1930
 2.2970	17.1470
 2.2980	17.0980
 2.2990	17.0480
 2.3000	17.0020
 2.3010	16.9580
 2.3020	16.9200
 2.3030	16.8910
 2.3040	16.8580
 2.3050	16.8270
 2.3060	16.7990
 2.3070	16.7630
 2.3080	16.7310
 2.3090	16.7040
 2.3100	16.6710
 2.3110	16.6420
 2.3120	16.6170
 2.3130	16.5950
 2.3140	16.5730
 2.3150	16.5580
 2.3160	16.5320
 2.3170	16.4980
 2.3180	16.4670
 2.3190	16.4330
 2.3200	16.3990
 2.3210	16.3640
 2.3220	16.3320
 2.3230	16.2990
 2.3240	16.2630
 2.3250	16.2280
 2.3260	16.1940
 2.3270	16.1610
 2.3280	16.1250
 2.3290	16.0920
 2.3300	16.0520
 2.3310	16.0010
 2.3320	15.9550
 2.3330	15.9040
 2.3340	15.8600
 2.3350	15.8220
 2.3360	15.7780
 2.3370	15.7360
 2.3380	15.6920
 2.3390	15.6430
 2.3400	15.5990
 2.3410	15.5630
 2.3420	15.5170
 2.3430	15.4660
 2.3440	15.4190
 2.3450	15.3680
 2.3460	15.3210
 2.3470	15.2810
 2.3480	15.2390
 2.3490	15.1930
 2.3500	15.1550
 2.3510	15.1220
 2.3520	15.0890
 2.3530	15.0620
 2.3540	15.0350
 2.3550	15.0030
 2.3560	14.9700
 2.3570	14.9390
 2.3580	14.9010
 2.3590	14.8650
 2.3600	14.8310
 2.3610	14.7920
 2.3620	14.7560
 2.3630	14.7240
 2.3640	14.6890
 2.3650	14.6450
 2.3660	14.6020
 2.3670	14.5520
 2.3680	14.5000
 2.3690	14.4690
 2.3700	14.4350
 2.3710	14.4000
 2.3720	14.3730
 2.3730	14.3300
 2.3740	14.2860
 2.3750	14.2490
 2.3760	14.2030
 2.3770	14.1630
 2.3780	14.1310
 2.3790	14.0940
 2.3800	14.0630
 2.3810	14.0360
 2.3820	13.9980
 2.3830	13.9510
 2.3840	13.9050
 2.3850	13.8550
 2.3860	13.8080
 2.3870	13.7730
 2.3880	13.7400
 2.3890	13.7060
 2.3900	13.6700
 2.3910	13.6330
 2.3920	13.5930
 2.3930	13.5510
 2.3940	13.5120
 2.3950	13.4640
 2.3960	13.4200
 2.3970	13.3810
 2.3980	13.3380
 2.3990	13.3040
 2.4000	13.2640
 2.4010	13.2170
 2.4020	13.1770
 2.4030	13.1330
 2.4040	13.0930
 2.4050	13.0620
 2.4060	13.0250
 2.4070	12.9780
 2.4080	12.9440
 2.4090	12.9030
 2.4100	12.8530
 2.4110	12.8150
 2.4120	12.7700
 2.4130	12.7270
 2.4140	12.6850
 2.4150	12.6440
 2.4160	12.6120
 2.4170	12.5630
 2.4180	12.5200
 2.4190	12.4810
 2.4200	12.4340
 2.4210	12.3950
 2.4220	12.3630
 2.4230	12.3350
 2.4240	12.3050
 2.4250	12.2800
 2.4260	12.2440
 2.4270	12.1920
 2.4280	12.1550
 2.4290	12.1170
 2.4300	12.0730
 2.4310	12.0430
 2.4320	12.0030
 2.4330	11.9660
 2.4340	11.9400
 2.4350	11.8990
 2.4360	11.8620
 2.4370	11.8230
 2.4380	11.7910
 2.4390	11.7710
 2.4400	11.7300
 2.4410	11.6830
 2.4420	11.6420
 2.4430	11.6020
 2.4440	11.5750
 2.4450	11.5390
 2.4460	11.4850
 2.4470	11.4490
 2.4480	11.4120
 2.4490	11.3610
 2.4500	11.3340
 2.4510	11.2970
 2.4520	11.2530
 2.4530	11.2420
 2.4540	11.2210
 2.4550	11.1820
 2.4560	11.1390
 2.4570	11.0900
 2.4580	11.0530
 2.4590	11.0330
 2.4600	11.0070
 2.4610	10.9790
 2.4620	10.9490
 2.4630	10.9070
 2.4640	10.8940
 2.4650	10.8880
 2.4660	10.8690
 2.4670	10.8590
 2.4680	10.8340
 2.4690	10.8030
 2.4700	10.7800
 2.4710	10.7470
 2.4720	10.7210
 2.4730	10.7150
 2.4740	10.6830
 2.4750	10.6360
 2.4760	10.6090
 2.4770	10.5650
 2.4780	10.5410
 2.4790	10.5560
 2.4800	10.5530
 2.4810	10.5530
 2.4820	10.5370
 2.4830	10.5100
 2.4840	10.4960
 2.4850	10.4560
 2.4860	10.4250
 2.4870	10.3880
 2.4880	10.3440
 2.4890	10.3200
 2.4900	10.3060
 2.4910	10.2950
 2.4920	10.2950
 2.4930	10.3150
 2.4940	10.3300
 2.4950	10.3420
 2.4960	10.3510
 2.4970	10.3370
 2.4980	10.3020
 2.4990	10.2600
 2.5000	10.1930
