Name: Heteromeles arbutifolia 1
Type: vegetation
Class: Shrub
Genus: Heteromeles
Species: arbutifolia
Sample No.: VH205
Owner: UCSB
Wavelength Range: VSWIR
Origin: 34.4907; -119.791; WGS84
Collection Date: 10/13/2013
Description: Samples were collected as part of the HyspIRI Airborne Campaign. 48 individual plants were sampled in three times in 2013 - spring  summer  and fall. The name of the sample includes a 1  2  or 3 which references a different individual of the species. Samples were taken to JPL and processed within 48 hours of collection. The same leaves were processed in the Nicolet and then measured using the ASD.
Measurement: Bidirectional reflectance
First Column: X
Second Column: Y
X Units: Wavelength (micrometers)
Y Units: Reflectance (percentage)
First X Value: 0.35
Last X Value: 2.5
Number of X Values: 2151
Additional Information: vegetation.shrub.heteromeles.arbutifolia.vswir.vh205.ucsb.asd.ancillary.txt

 0.3500	 9.9680
 0.3510	 9.8890
 0.3520	 9.8520
 0.3530	 9.7940
 0.3540	 9.6750
 0.3550	 9.4930
 0.3560	 9.4940
 0.3570	 9.6250
 0.3580	 9.6830
 0.3590	 9.6230
 0.3600	 9.6000
 0.3610	 9.6180
 0.3620	 9.4370
 0.3630	 9.4210
 0.3640	 9.4750
 0.3650	 9.4390
 0.3660	 9.4240
 0.3670	 9.3230
 0.3680	 9.2270
 0.3690	 9.3330
 0.3700	 9.4040
 0.3710	 9.3670
 0.3720	 9.2710
 0.3730	 9.3450
 0.3740	 9.4070
 0.3750	 9.3610
 0.3760	 9.2110
 0.3770	 9.2340
 0.3780	 9.3580
 0.3790	 9.4530
 0.3800	 9.3760
 0.3810	 9.2980
 0.3820	 9.2730
 0.3830	 9.2890
 0.3840	 9.2220
 0.3850	 9.1590
 0.3860	 9.1780
 0.3870	 9.3070
 0.3880	 9.3620
 0.3890	 9.2850
 0.3900	 9.1660
 0.3910	 9.2160
 0.3920	 9.1580
 0.3930	 9.1150
 0.3940	 9.1860
 0.3950	 9.2130
 0.3960	 9.2150
 0.3970	 9.1750
 0.3980	 9.0830
 0.3990	 9.0690
 0.4000	 9.1270
 0.4010	 9.1880
 0.4020	 9.1260
 0.4030	 9.1240
 0.4040	 9.1500
 0.4050	 9.1420
 0.4060	 9.1430
 0.4070	 9.1120
 0.4080	 9.0890
 0.4090	 9.1500
 0.4100	 9.1940
 0.4110	 9.2120
 0.4120	 9.2120
 0.4130	 9.2030
 0.4140	 9.1990
 0.4150	 9.2300
 0.4160	 9.3050
 0.4170	 9.3040
 0.4180	 9.2930
 0.4190	 9.3090
 0.4200	 9.3580
 0.4210	 9.4000
 0.4220	 9.4010
 0.4230	 9.3710
 0.4240	 9.4260
 0.4250	 9.4650
 0.4260	 9.4790
 0.4270	 9.5000
 0.4280	 9.5250
 0.4290	 9.5320
 0.4300	 9.5260
 0.4310	 9.5450
 0.4320	 9.5560
 0.4330	 9.5580
 0.4340	 9.5560
 0.4350	 9.5350
 0.4360	 9.5470
 0.4370	 9.5790
 0.4380	 9.5790
 0.4390	 9.5900
 0.4400	 9.6200
 0.4410	 9.6620
 0.4420	 9.6840
 0.4430	 9.6940
 0.4440	 9.6970
 0.4450	 9.6990
 0.4460	 9.7140
 0.4470	 9.7340
 0.4480	 9.7460
 0.4490	 9.7330
 0.4500	 9.7350
 0.4510	 9.7470
 0.4520	 9.7550
 0.4530	 9.7740
 0.4540	 9.7970
 0.4550	 9.8140
 0.4560	 9.8110
 0.4570	 9.8130
 0.4580	 9.8070
 0.4590	 9.7940
 0.4600	 9.8030
 0.4610	 9.8240
 0.4620	 9.8290
 0.4630	 9.8010
 0.4640	 9.8150
 0.4650	 9.8310
 0.4660	 9.8270
 0.4670	 9.8160
 0.4680	 9.8220
 0.4690	 9.8260
 0.4700	 9.8150
 0.4710	 9.8200
 0.4720	 9.8370
 0.4730	 9.8480
 0.4740	 9.8300
 0.4750	 9.8210
 0.4760	 9.8200
 0.4770	 9.8270
 0.4780	 9.8420
 0.4790	 9.8440
 0.4800	 9.8340
 0.4810	 9.8260
 0.4820	 9.8350
 0.4830	 9.8420
 0.4840	 9.8400
 0.4850	 9.8360
 0.4860	 9.8300
 0.4870	 9.8310
 0.4880	 9.8410
 0.4890	 9.8340
 0.4900	 9.8500
 0.4910	 9.8710
 0.4920	 9.8690
 0.4930	 9.9080
 0.4940	 9.9360
 0.4950	 9.9390
 0.4960	 9.9640
 0.4970	10.0030
 0.4980	10.0370
 0.4990	10.0540
 0.5000	10.0810
 0.5010	10.1120
 0.5020	10.1460
 0.5030	10.1910
 0.5040	10.2360
 0.5050	10.2870
 0.5060	10.3480
 0.5070	10.4120
 0.5080	10.4780
 0.5090	10.5490
 0.5100	10.6310
 0.5110	10.7170
 0.5120	10.8220
 0.5130	10.9410
 0.5140	11.0510
 0.5150	11.1890
 0.5160	11.3420
 0.5170	11.4890
 0.5180	11.6500
 0.5190	11.8230
 0.5200	12.0080
 0.5210	12.2060
 0.5220	12.3960
 0.5230	12.5970
 0.5240	12.8150
 0.5250	13.0130
 0.5260	13.2090
 0.5270	13.4040
 0.5280	13.5960
 0.5290	13.7810
 0.5300	13.9550
 0.5310	14.1170
 0.5320	14.2660
 0.5330	14.4070
 0.5340	14.5370
 0.5350	14.6530
 0.5360	14.7660
 0.5370	14.8690
 0.5380	14.9560
 0.5390	15.0240
 0.5400	15.0870
 0.5410	15.1430
 0.5420	15.1900
 0.5430	15.2330
 0.5440	15.2880
 0.5450	15.3510
 0.5460	15.4120
 0.5470	15.5010
 0.5480	15.5890
 0.5490	15.6580
 0.5500	15.7040
 0.5510	15.7300
 0.5520	15.7510
 0.5530	15.7740
 0.5540	15.7730
 0.5550	15.7540
 0.5560	15.7220
 0.5570	15.6790
 0.5580	15.6230
 0.5590	15.5510
 0.5600	15.4670
 0.5610	15.3760
 0.5620	15.2700
 0.5630	15.1490
 0.5640	15.0180
 0.5650	14.8800
 0.5660	14.7390
 0.5670	14.5940
 0.5680	14.4450
 0.5690	14.3020
 0.5700	14.1610
 0.5710	14.0170
 0.5720	13.8690
 0.5730	13.7300
 0.5740	13.6090
 0.5750	13.5090
 0.5760	13.4010
 0.5770	13.3040
 0.5780	13.2270
 0.5790	13.1390
 0.5800	13.0610
 0.5810	12.9890
 0.5820	12.9150
 0.5830	12.8450
 0.5840	12.7820
 0.5850	12.7250
 0.5860	12.6720
 0.5870	12.6160
 0.5880	12.5640
 0.5890	12.5190
 0.5900	12.4780
 0.5910	12.4460
 0.5920	12.4180
 0.5930	12.3820
 0.5940	12.3510
 0.5950	12.3310
 0.5960	12.3190
 0.5970	12.2960
 0.5980	12.2760
 0.5990	12.2560
 0.6000	12.2280
 0.6010	12.1990
 0.6020	12.1690
 0.6030	12.1380
 0.6040	12.0990
 0.6050	12.0560
 0.6060	12.0090
 0.6070	11.9590
 0.6080	11.9040
 0.6090	11.8360
 0.6100	11.7520
 0.6110	11.6580
 0.6120	11.6060
 0.6130	11.5800
 0.6140	11.5580
 0.6150	11.5160
 0.6160	11.4760
 0.6170	11.4390
 0.6180	11.4010
 0.6190	11.3670
 0.6200	11.3340
 0.6210	11.3020
 0.6220	11.2780
 0.6230	11.2620
 0.6240	11.2490
 0.6250	11.2360
 0.6260	11.2240
 0.6270	11.2130
 0.6280	11.2060
 0.6290	11.2020
 0.6300	11.1900
 0.6310	11.1820
 0.6320	11.1790
 0.6330	11.1740
 0.6340	11.1620
 0.6350	11.1410
 0.6360	11.1120
 0.6370	11.0810
 0.6380	11.0450
 0.6390	11.0010
 0.6400	10.9510
 0.6410	10.9030
 0.6420	10.8520
 0.6430	10.7980
 0.6440	10.7400
 0.6450	10.6870
 0.6460	10.6400
 0.6470	10.5930
 0.6480	10.5430
 0.6490	10.5060
 0.6500	10.4780
 0.6510	10.4460
 0.6520	10.4240
 0.6530	10.4050
 0.6540	10.3820
 0.6550	10.3630
 0.6560	10.3400
 0.6570	10.3140
 0.6580	10.2890
 0.6590	10.2550
 0.6600	10.2250
 0.6610	10.1990
 0.6620	10.1730
 0.6630	10.1420
 0.6640	10.1160
 0.6650	10.0980
 0.6660	10.0760
 0.6670	10.0640
 0.6680	10.0600
 0.6690	10.0550
 0.6700	10.0530
 0.6710	10.0600
 0.6720	10.0720
 0.6730	10.0760
 0.6740	10.0900
 0.6750	10.1090
 0.6760	10.1290
 0.6770	10.1450
 0.6780	10.1720
 0.6790	10.2070
 0.6800	10.2390
 0.6810	10.2770
 0.6820	10.3230
 0.6830	10.3750
 0.6840	10.4280
 0.6850	10.4980
 0.6860	10.5810
 0.6870	10.6730
 0.6880	10.7830
 0.6890	10.9190
 0.6900	11.0890
 0.6910	11.3030
 0.6920	11.5570
 0.6930	11.8670
 0.6940	12.2480
 0.6950	12.7010
 0.6960	13.2360
 0.6970	13.8510
 0.6980	14.5460
 0.6990	15.3420
 0.7000	16.2190
 0.7010	17.1660
 0.7020	18.1870
 0.7030	19.2840
 0.7040	20.4290
 0.7050	21.6050
 0.7060	22.8280
 0.7070	24.0840
 0.7080	25.3640
 0.7090	26.6660
 0.7100	27.9920
 0.7110	29.3220
 0.7120	30.6520
 0.7130	31.9980
 0.7140	33.3450
 0.7150	34.6870
 0.7160	36.0150
 0.7170	37.3320
 0.7180	38.6340
 0.7190	39.9170
 0.7200	41.1770
 0.7210	42.4200
 0.7220	43.6330
 0.7230	44.8140
 0.7240	45.9740
 0.7250	47.0810
 0.7260	48.1420
 0.7270	49.1660
 0.7280	50.1490
 0.7290	51.0960
 0.7300	51.9940
 0.7310	52.8340
 0.7320	53.6500
 0.7330	54.4170
 0.7340	55.1320
 0.7350	55.8260
 0.7360	56.4790
 0.7370	57.0870
 0.7380	57.6510
 0.7390	58.1610
 0.7400	58.6740
 0.7410	59.1740
 0.7420	59.6170
 0.7430	60.0200
 0.7440	60.3960
 0.7450	60.7500
 0.7460	61.0720
 0.7470	61.3740
 0.7480	61.6590
 0.7490	61.9210
 0.7500	62.1520
 0.7510	62.3610
 0.7520	62.5560
 0.7530	62.7440
 0.7540	62.9210
 0.7550	63.0600
 0.7560	63.1750
 0.7570	63.3020
 0.7580	63.4100
 0.7590	63.5180
 0.7600	63.6290
 0.7610	63.7040
 0.7620	63.7640
 0.7630	63.8190
 0.7640	63.8790
 0.7650	63.9410
 0.7660	63.9880
 0.7670	64.0240
 0.7680	64.0680
 0.7690	64.1010
 0.7700	64.1290
 0.7710	64.1570
 0.7720	64.2000
 0.7730	64.2250
 0.7740	64.2380
 0.7750	64.2540
 0.7760	64.2760
 0.7770	64.2830
 0.7780	64.2950
 0.7790	64.3400
 0.7800	64.3460
 0.7810	64.3450
 0.7820	64.3580
 0.7830	64.3880
 0.7840	64.3950
 0.7850	64.4100
 0.7860	64.4450
 0.7870	64.4530
 0.7880	64.4480
 0.7890	64.4480
 0.7900	64.4640
 0.7910	64.4730
 0.7920	64.4970
 0.7930	64.5230
 0.7940	64.5180
 0.7950	64.5130
 0.7960	64.5240
 0.7970	64.5450
 0.7980	64.5430
 0.7990	64.5640
 0.8000	64.5970
 0.8010	64.6210
 0.8020	64.6250
 0.8030	64.6240
 0.8040	64.6230
 0.8050	64.6240
 0.8060	64.6490
 0.8070	64.6570
 0.8080	64.6510
 0.8090	64.6680
 0.8100	64.6770
 0.8110	64.6810
 0.8120	64.6870
 0.8130	64.6920
 0.8140	64.7090
 0.8150	64.7270
 0.8160	64.7330
 0.8170	64.7270
 0.8180	64.7400
 0.8190	64.7700
 0.8200	64.7950
 0.8210	64.7820
 0.8220	64.7750
 0.8230	64.7870
 0.8240	64.7900
 0.8250	64.8080
 0.8260	64.8210
 0.8270	64.8230
 0.8280	64.8450
 0.8290	64.8550
 0.8300	64.8520
 0.8310	64.8430
 0.8320	64.8380
 0.8330	64.8450
 0.8340	64.8520
 0.8350	64.8450
 0.8360	64.8630
 0.8370	64.8850
 0.8380	64.8950
 0.8390	64.8880
 0.8400	64.8990
 0.8410	64.9190
 0.8420	64.9290
 0.8430	64.9170
 0.8440	64.9180
 0.8450	64.9350
 0.8460	64.9620
 0.8470	64.9920
 0.8480	64.9920
 0.8490	64.9760
 0.8500	64.9720
 0.8510	64.9960
 0.8520	65.0140
 0.8530	65.0150
 0.8540	65.0110
 0.8550	65.0290
 0.8560	65.0510
 0.8570	65.0650
 0.8580	65.0600
 0.8590	65.0270
 0.8600	65.0230
 0.8610	65.0570
 0.8620	65.0520
 0.8630	65.0520
 0.8640	65.0660
 0.8650	65.0840
 0.8660	65.0730
 0.8670	65.0700
 0.8680	65.0800
 0.8690	65.0920
 0.8700	65.0770
 0.8710	65.0790
 0.8720	65.0930
 0.8730	65.0860
 0.8740	65.0730
 0.8750	65.0650
 0.8760	65.0690
 0.8770	65.0850
 0.8780	65.0980
 0.8790	65.0850
 0.8800	65.0590
 0.8810	65.0740
 0.8820	65.0760
 0.8830	65.0670
 0.8840	65.0580
 0.8850	65.0610
 0.8860	65.0490
 0.8870	65.0360
 0.8880	65.0400
 0.8890	65.0390
 0.8900	65.0600
 0.8910	65.0800
 0.8920	65.0640
 0.8930	65.0440
 0.8940	65.0070
 0.8950	64.9740
 0.8960	64.9770
 0.8970	64.9880
 0.8980	64.9850
 0.8990	64.9690
 0.9000	64.9600
 0.9010	64.9370
 0.9020	64.9330
 0.9030	64.9520
 0.9040	64.9540
 0.9050	64.9530
 0.9060	64.9400
 0.9070	64.9120
 0.9080	64.8870
 0.9090	64.8870
 0.9100	64.9030
 0.9110	64.9110
 0.9120	64.8610
 0.9130	64.8500
 0.9140	64.8600
 0.9150	64.8510
 0.9160	64.8560
 0.9170	64.8510
 0.9180	64.8350
 0.9190	64.8180
 0.9200	64.8300
 0.9210	64.8160
 0.9220	64.7710
 0.9230	64.7300
 0.9240	64.7350
 0.9250	64.7430
 0.9260	64.7360
 0.9270	64.7220
 0.9280	64.6600
 0.9290	64.6160
 0.9300	64.6020
 0.9310	64.5780
 0.9320	64.5800
 0.9330	64.5540
 0.9340	64.5090
 0.9350	64.5350
 0.9360	64.5300
 0.9370	64.4710
 0.9380	64.3880
 0.9390	64.3570
 0.9400	64.3180
 0.9410	64.2740
 0.9420	64.2340
 0.9430	64.1950
 0.9440	64.1610
 0.9450	64.1230
 0.9460	64.0710
 0.9470	64.0080
 0.9480	63.9450
 0.9490	63.8790
 0.9500	63.8100
 0.9510	63.7420
 0.9520	63.6520
 0.9530	63.5540
 0.9540	63.4660
 0.9550	63.3520
 0.9560	63.2880
 0.9570	63.2360
 0.9580	63.1490
 0.9590	63.0710
 0.9600	62.9970
 0.9610	62.9260
 0.9620	62.8600
 0.9630	62.7980
 0.9640	62.7410
 0.9650	62.7030
 0.9660	62.6890
 0.9670	62.6430
 0.9680	62.6290
 0.9690	62.6290
 0.9700	62.6040
 0.9710	62.5860
 0.9720	62.5610
 0.9730	62.5290
 0.9740	62.5010
 0.9750	62.5200
 0.9760	62.5000
 0.9770	62.4660
 0.9780	62.4880
 0.9790	62.5360
 0.9800	62.5630
 0.9810	62.5380
 0.9820	62.4770
 0.9830	62.5350
 0.9840	62.5420
 0.9850	62.5250
 0.9860	62.5860
 0.9870	62.6400
 0.9880	62.6770
 0.9890	62.6950
 0.9900	62.7100
 0.9910	62.7620
 0.9920	62.8180
 0.9930	62.8750
 0.9940	62.9320
 0.9950	62.9880
 0.9960	63.0450
 0.9970	63.1010
 0.9980	63.1580
 0.9990	63.2140
 1.0000	63.2710
 1.0010	63.3270
 1.0020	63.3840
 1.0030	63.4410
 1.0040	63.4970
 1.0050	63.5540
 1.0060	63.6100
 1.0070	63.6670
 1.0080	63.7230
 1.0090	63.7800
 1.0100	63.7800
 1.0110	63.8070
 1.0120	63.8350
 1.0130	63.8690
 1.0140	63.8980
 1.0150	63.9200
 1.0160	63.9480
 1.0170	63.9800
 1.0180	64.0180
 1.0190	64.0790
 1.0200	64.1300
 1.0210	64.1630
 1.0220	64.1960
 1.0230	64.2300
 1.0240	64.2540
 1.0250	64.2860
 1.0260	64.3280
 1.0270	64.3590
 1.0280	64.3910
 1.0290	64.4110
 1.0300	64.4100
 1.0310	64.4300
 1.0320	64.4530
 1.0330	64.4700
 1.0340	64.5040
 1.0350	64.5580
 1.0360	64.5900
 1.0370	64.6110
 1.0380	64.6370
 1.0390	64.6590
 1.0400	64.6760
 1.0410	64.6890
 1.0420	64.7070
 1.0430	64.7200
 1.0440	64.7340
 1.0450	64.7560
 1.0460	64.7690
 1.0470	64.7730
 1.0480	64.7820
 1.0490	64.7870
 1.0500	64.7980
 1.0510	64.8080
 1.0520	64.8340
 1.0530	64.8490
 1.0540	64.8680
 1.0550	64.8810
 1.0560	64.8860
 1.0570	64.8940
 1.0580	64.9030
 1.0590	64.9090
 1.0600	64.9120
 1.0610	64.9160
 1.0620	64.9150
 1.0630	64.9200
 1.0640	64.9330
 1.0650	64.9380
 1.0660	64.9400
 1.0670	64.9460
 1.0680	64.9500
 1.0690	64.9540
 1.0700	64.9490
 1.0710	64.9420
 1.0720	64.9350
 1.0730	64.9170
 1.0740	64.9100
 1.0750	64.9090
 1.0760	64.9110
 1.0770	64.9230
 1.0780	64.9220
 1.0790	64.9220
 1.0800	64.9170
 1.0810	64.8960
 1.0820	64.8820
 1.0830	64.8660
 1.0840	64.8580
 1.0850	64.8530
 1.0860	64.8510
 1.0870	64.8500
 1.0880	64.8580
 1.0890	64.8500
 1.0900	64.8290
 1.0910	64.8220
 1.0920	64.8220
 1.0930	64.8090
 1.0940	64.7980
 1.0950	64.7840
 1.0960	64.7560
 1.0970	64.7340
 1.0980	64.7210
 1.0990	64.7000
 1.1000	64.6700
 1.1010	64.6440
 1.1020	64.6180
 1.1030	64.5920
 1.1040	64.5730
 1.1050	64.5600
 1.1060	64.5500
 1.1070	64.5510
 1.1080	64.5370
 1.1090	64.5210
 1.1100	64.5010
 1.1110	64.4690
 1.1120	64.4450
 1.1130	64.4270
 1.1140	64.4020
 1.1150	64.3800
 1.1160	64.3470
 1.1170	64.3120
 1.1180	64.2650
 1.1190	64.2040
 1.1200	64.1470
 1.1210	64.0850
 1.1220	64.0190
 1.1230	63.9610
 1.1240	63.8940
 1.1250	63.8190
 1.1260	63.7400
 1.1270	63.6540
 1.1280	63.5620
 1.1290	63.4570
 1.1300	63.3440
 1.1310	63.2230
 1.1320	63.0890
 1.1330	62.9530
 1.1340	62.8150
 1.1350	62.6640
 1.1360	62.5060
 1.1370	62.3360
 1.1380	62.1570
 1.1390	61.9740
 1.1400	61.7850
 1.1410	61.5950
 1.1420	61.3980
 1.1430	61.2000
 1.1440	61.0020
 1.1450	60.7960
 1.1460	60.5980
 1.1470	60.3980
 1.1480	60.2100
 1.1490	60.0250
 1.1500	59.8510
 1.1510	59.6830
 1.1520	59.5260
 1.1530	59.3730
 1.1540	59.2360
 1.1550	59.1140
 1.1560	59.0020
 1.1570	58.8950
 1.1580	58.8040
 1.1590	58.7180
 1.1600	58.6400
 1.1610	58.5770
 1.1620	58.5160
 1.1630	58.4590
 1.1640	58.4130
 1.1650	58.3710
 1.1660	58.3340
 1.1670	58.3020
 1.1680	58.2770
 1.1690	58.2510
 1.1700	58.2310
 1.1710	58.2050
 1.1720	58.1750
 1.1730	58.1510
 1.1740	58.1270
 1.1750	58.1010
 1.1760	58.0850
 1.1770	58.0720
 1.1780	58.0500
 1.1790	58.0290
 1.1800	58.0050
 1.1810	57.9700
 1.1820	57.9390
 1.1830	57.9090
 1.1840	57.8740
 1.1850	57.8390
 1.1860	57.8130
 1.1870	57.7940
 1.1880	57.7730
 1.1890	57.7570
 1.1900	57.7450
 1.1910	57.7340
 1.1920	57.7220
 1.1930	57.7170
 1.1940	57.7130
 1.1950	57.7080
 1.1960	57.7020
 1.1970	57.7050
 1.1980	57.7070
 1.1990	57.7090
 1.2000	57.7170
 1.2010	57.7310
 1.2020	57.7450
 1.2030	57.7660
 1.2040	57.7950
 1.2050	57.8210
 1.2060	57.8530
 1.2070	57.8810
 1.2080	57.9070
 1.2090	57.9410
 1.2100	57.9760
 1.2110	58.0120
 1.2120	58.0470
 1.2130	58.0890
 1.2140	58.1380
 1.2150	58.1850
 1.2160	58.2360
 1.2170	58.2890
 1.2180	58.3430
 1.2190	58.3870
 1.2200	58.4370
 1.2210	58.4930
 1.2220	58.5450
 1.2230	58.5970
 1.2240	58.6490
 1.2250	58.7010
 1.2260	58.7470
 1.2270	58.7950
 1.2280	58.8470
 1.2290	58.8930
 1.2300	58.9430
 1.2310	58.9960
 1.2320	59.0360
 1.2330	59.0760
 1.2340	59.1200
 1.2350	59.1650
 1.2360	59.2070
 1.2370	59.2500
 1.2380	59.2920
 1.2390	59.3270
 1.2400	59.3520
 1.2410	59.3840
 1.2420	59.4200
 1.2430	59.4470
 1.2440	59.4790
 1.2450	59.5090
 1.2460	59.5310
 1.2470	59.5530
 1.2480	59.5720
 1.2490	59.5950
 1.2500	59.6250
 1.2510	59.6520
 1.2520	59.6860
 1.2530	59.7070
 1.2540	59.7120
 1.2550	59.7220
 1.2560	59.7270
 1.2570	59.7320
 1.2580	59.7500
 1.2590	59.7650
 1.2600	59.7810
 1.2610	59.7940
 1.2620	59.8100
 1.2630	59.8190
 1.2640	59.8160
 1.2650	59.8230
 1.2660	59.8270
 1.2670	59.8150
 1.2680	59.8060
 1.2690	59.7940
 1.2700	59.7840
 1.2710	59.7830
 1.2720	59.7800
 1.2730	59.7750
 1.2740	59.7610
 1.2750	59.7410
 1.2760	59.7280
 1.2770	59.7170
 1.2780	59.6990
 1.2790	59.6790
 1.2800	59.6580
 1.2810	59.6350
 1.2820	59.6120
 1.2830	59.5920
 1.2840	59.5700
 1.2850	59.5390
 1.2860	59.5090
 1.2870	59.4740
 1.2880	59.4320
 1.2890	59.3910
 1.2900	59.3500
 1.2910	59.2980
 1.2920	59.2530
 1.2930	59.2020
 1.2940	59.1460
 1.2950	59.0990
 1.2960	59.0430
 1.2970	58.9870
 1.2980	58.9300
 1.2990	58.8580
 1.3000	58.7800
 1.3010	58.6980
 1.3020	58.6150
 1.3030	58.5340
 1.3040	58.4530
 1.3050	58.3730
 1.3060	58.2870
 1.3070	58.1940
 1.3080	58.0930
 1.3090	57.9890
 1.3100	57.8800
 1.3110	57.7640
 1.3120	57.6490
 1.3130	57.5300
 1.3140	57.4070
 1.3150	57.2800
 1.3160	57.1460
 1.3170	57.0070
 1.3180	56.8620
 1.3190	56.7110
 1.3200	56.5570
 1.3210	56.3970
 1.3220	56.2330
 1.3230	56.0660
 1.3240	55.8930
 1.3250	55.7240
 1.3260	55.5510
 1.3270	55.3660
 1.3280	55.1830
 1.3290	54.9950
 1.3300	54.8050
 1.3310	54.6170
 1.3320	54.4180
 1.3330	54.2140
 1.3340	54.0080
 1.3350	53.8020
 1.3360	53.5970
 1.3370	53.3890
 1.3380	53.1780
 1.3390	52.9630
 1.3400	52.7480
 1.3410	52.5380
 1.3420	52.3310
 1.3430	52.1260
 1.3440	51.9240
 1.3450	51.7240
 1.3460	51.5250
 1.3470	51.3300
 1.3480	51.1360
 1.3490	50.9420
 1.3500	50.7510
 1.3510	50.5600
 1.3520	50.3670
 1.3530	50.1770
 1.3540	49.9900
 1.3550	49.8010
 1.3560	49.6140
 1.3570	49.4320
 1.3580	49.2450
 1.3590	49.0510
 1.3600	48.8530
 1.3610	48.6480
 1.3620	48.4380
 1.3630	48.2280
 1.3640	48.0080
 1.3650	47.7760
 1.3660	47.5360
 1.3670	47.2810
 1.3680	47.0070
 1.3690	46.7250
 1.3700	46.4260
 1.3710	46.1110
 1.3720	45.7840
 1.3730	45.4340
 1.3740	45.0610
 1.3750	44.6710
 1.3760	44.2550
 1.3770	43.8100
 1.3780	43.3380
 1.3790	42.8380
 1.3800	42.3120
 1.3810	41.7600
 1.3820	41.1820
 1.3830	40.5810
 1.3840	39.9520
 1.3850	39.2930
 1.3860	38.6220
 1.3870	37.9210
 1.3880	37.2180
 1.3890	36.5010
 1.3900	35.7730
 1.3910	35.0440
 1.3920	34.3110
 1.3930	33.5760
 1.3940	32.8460
 1.3950	32.1120
 1.3960	31.3920
 1.3970	30.6890
 1.3980	29.9980
 1.3990	29.3330
 1.4000	28.6900
 1.4010	28.0640
 1.4020	27.4680
 1.4030	26.8960
 1.4040	26.3510
 1.4050	25.8370
 1.4060	25.3500
 1.4070	24.8960
 1.4080	24.4690
 1.4090	24.0650
 1.4100	23.6850
 1.4110	23.3280
 1.4120	22.9970
 1.4130	22.6940
 1.4140	22.4140
 1.4150	22.1610
 1.4160	21.9280
 1.4170	21.7110
 1.4180	21.5170
 1.4190	21.3380
 1.4200	21.1720
 1.4210	21.0250
 1.4220	20.8940
 1.4230	20.7760
 1.4240	20.6730
 1.4250	20.5780
 1.4260	20.4920
 1.4270	20.4140
 1.4280	20.3430
 1.4290	20.2820
 1.4300	20.2330
 1.4310	20.1880
 1.4320	20.1520
 1.4330	20.1210
 1.4340	20.0950
 1.4350	20.0750
 1.4360	20.0620
 1.4370	20.0560
 1.4380	20.0540
 1.4390	20.0530
 1.4400	20.0590
 1.4410	20.0700
 1.4420	20.0840
 1.4430	20.0990
 1.4440	20.1180
 1.4450	20.1380
 1.4460	20.1570
 1.4470	20.1840
 1.4480	20.2110
 1.4490	20.2370
 1.4500	20.2660
 1.4510	20.2950
 1.4520	20.3240
 1.4530	20.3540
 1.4540	20.3830
 1.4550	20.4170
 1.4560	20.4490
 1.4570	20.4850
 1.4580	20.5270
 1.4590	20.5730
 1.4600	20.6270
 1.4610	20.6830
 1.4620	20.7440
 1.4630	20.8080
 1.4640	20.8760
 1.4650	20.9520
 1.4660	21.0300
 1.4670	21.1120
 1.4680	21.2010
 1.4690	21.2940
 1.4700	21.3930
 1.4710	21.4990
 1.4720	21.6070
 1.4730	21.7210
 1.4740	21.8390
 1.4750	21.9590
 1.4760	22.0850
 1.4770	22.2130
 1.4780	22.3420
 1.4790	22.4760
 1.4800	22.6110
 1.4810	22.7470
 1.4820	22.8830
 1.4830	23.0210
 1.4840	23.1600
 1.4850	23.3030
 1.4860	23.4500
 1.4870	23.5990
 1.4880	23.7460
 1.4890	23.8920
 1.4900	24.0370
 1.4910	24.1810
 1.4920	24.3250
 1.4930	24.4670
 1.4940	24.6130
 1.4950	24.7610
 1.4960	24.9080
 1.4970	25.0560
 1.4980	25.2040
 1.4990	25.3530
 1.5000	25.5010
 1.5010	25.6500
 1.5020	25.7980
 1.5030	25.9460
 1.5040	26.0940
 1.5050	26.2410
 1.5060	26.3910
 1.5070	26.5450
 1.5080	26.6930
 1.5090	26.8400
 1.5100	26.9840
 1.5110	27.1240
 1.5120	27.2660
 1.5130	27.4070
 1.5140	27.5490
 1.5150	27.6920
 1.5160	27.8340
 1.5170	27.9770
 1.5180	28.1210
 1.5190	28.2590
 1.5200	28.3940
 1.5210	28.5290
 1.5220	28.6630
 1.5230	28.7980
 1.5240	28.9300
 1.5250	29.0600
 1.5260	29.1870
 1.5270	29.3150
 1.5280	29.4450
 1.5290	29.5710
 1.5300	29.6950
 1.5310	29.8190
 1.5320	29.9400
 1.5330	30.0610
 1.5340	30.1850
 1.5350	30.3070
 1.5360	30.4270
 1.5370	30.5480
 1.5380	30.6680
 1.5390	30.7850
 1.5400	30.9010
 1.5410	31.0150
 1.5420	31.1270
 1.5430	31.2430
 1.5440	31.3600
 1.5450	31.4710
 1.5460	31.5820
 1.5470	31.6940
 1.5480	31.8030
 1.5490	31.9160
 1.5500	32.0240
 1.5510	32.1270
 1.5520	32.2270
 1.5530	32.3230
 1.5540	32.4190
 1.5550	32.5180
 1.5560	32.6140
 1.5570	32.7080
 1.5580	32.8060
 1.5590	32.9020
 1.5600	32.9980
 1.5610	33.0960
 1.5620	33.1940
 1.5630	33.2910
 1.5640	33.3870
 1.5650	33.4830
 1.5660	33.5740
 1.5670	33.6670
 1.5680	33.7570
 1.5690	33.8430
 1.5700	33.9300
 1.5710	34.0190
 1.5720	34.1030
 1.5730	34.1860
 1.5740	34.2710
 1.5750	34.3560
 1.5760	34.4460
 1.5770	34.5380
 1.5780	34.6290
 1.5790	34.7210
 1.5800	34.8080
 1.5810	34.8970
 1.5820	34.9870
 1.5830	35.0710
 1.5840	35.1580
 1.5850	35.2440
 1.5860	35.3290
 1.5870	35.4120
 1.5880	35.4960
 1.5890	35.5810
 1.5900	35.6660
 1.5910	35.7510
 1.5920	35.8350
 1.5930	35.9150
 1.5940	35.9950
 1.5950	36.0770
 1.5960	36.1530
 1.5970	36.2290
 1.5980	36.3080
 1.5990	36.3800
 1.6000	36.4540
 1.6010	36.5320
 1.6020	36.6010
 1.6030	36.6780
 1.6040	36.7550
 1.6050	36.8280
 1.6060	36.9030
 1.6070	36.9710
 1.6080	37.0410
 1.6090	37.1100
 1.6100	37.1770
 1.6110	37.2450
 1.6120	37.3110
 1.6130	37.3760
 1.6140	37.4420
 1.6150	37.5100
 1.6160	37.5770
 1.6170	37.6460
 1.6180	37.7070
 1.6190	37.7610
 1.6200	37.8190
 1.6210	37.8770
 1.6220	37.9320
 1.6230	37.9880
 1.6240	38.0420
 1.6250	38.0920
 1.6260	38.1420
 1.6270	38.1950
 1.6280	38.2400
 1.6290	38.2810
 1.6300	38.3170
 1.6310	38.3570
 1.6320	38.3950
 1.6330	38.4350
 1.6340	38.4820
 1.6350	38.5220
 1.6360	38.5550
 1.6370	38.5940
 1.6380	38.6320
 1.6390	38.6700
 1.6400	38.7110
 1.6410	38.7440
 1.6420	38.7760
 1.6430	38.7970
 1.6440	38.8110
 1.6450	38.8260
 1.6460	38.8360
 1.6470	38.8400
 1.6480	38.8370
 1.6490	38.8260
 1.6500	38.8120
 1.6510	38.8010
 1.6520	38.7880
 1.6530	38.7710
 1.6540	38.7450
 1.6550	38.7100
 1.6560	38.6720
 1.6570	38.6350
 1.6580	38.5970
 1.6590	38.5550
 1.6600	38.5190
 1.6610	38.4810
 1.6620	38.4440
 1.6630	38.4130
 1.6640	38.3780
 1.6650	38.3420
 1.6660	38.3080
 1.6670	38.2780
 1.6680	38.2510
 1.6690	38.2290
 1.6700	38.2130
 1.6710	38.1970
 1.6720	38.1790
 1.6730	38.1620
 1.6740	38.1460
 1.6750	38.1250
 1.6760	38.1080
 1.6770	38.0900
 1.6780	38.0610
 1.6790	38.0280
 1.6800	37.9880
 1.6810	37.9450
 1.6820	37.9030
 1.6830	37.8560
 1.6840	37.8050
 1.6850	37.7510
 1.6860	37.6890
 1.6870	37.6240
 1.6880	37.5600
 1.6890	37.5000
 1.6900	37.4380
 1.6910	37.3780
 1.6920	37.3190
 1.6930	37.2560
 1.6940	37.1970
 1.6950	37.1420
 1.6960	37.0860
 1.6970	37.0320
 1.6980	36.9750
 1.6990	36.9200
 1.7000	36.8590
 1.7010	36.7910
 1.7020	36.7220
 1.7030	36.6530
 1.7040	36.5780
 1.7050	36.4980
 1.7060	36.4170
 1.7070	36.3280
 1.7080	36.2440
 1.7090	36.1590
 1.7100	36.0800
 1.7110	36.0030
 1.7120	35.9230
 1.7130	35.8410
 1.7140	35.7540
 1.7150	35.6760
 1.7160	35.6050
 1.7170	35.5370
 1.7180	35.4730
 1.7190	35.4050
 1.7200	35.3480
 1.7210	35.2930
 1.7220	35.2360
 1.7230	35.1910
 1.7240	35.1390
 1.7250	35.0860
 1.7260	35.0400
 1.7270	34.9940
 1.7280	34.9450
 1.7290	34.8940
 1.7300	34.8400
 1.7310	34.7920
 1.7320	34.7470
 1.7330	34.7020
 1.7340	34.6630
 1.7350	34.6210
 1.7360	34.5790
 1.7370	34.5350
 1.7380	34.4900
 1.7390	34.4400
 1.7400	34.3840
 1.7410	34.3290
 1.7420	34.2740
 1.7430	34.2140
 1.7440	34.1520
 1.7450	34.0890
 1.7460	34.0170
 1.7470	33.9530
 1.7480	33.8920
 1.7490	33.8320
 1.7500	33.7760
 1.7510	33.7180
 1.7520	33.6610
 1.7530	33.6050
 1.7540	33.5490
 1.7550	33.4900
 1.7560	33.4320
 1.7570	33.3800
 1.7580	33.3330
 1.7590	33.2920
 1.7600	33.2530
 1.7610	33.2060
 1.7620	33.1600
 1.7630	33.1100
 1.7640	33.0640
 1.7650	33.0160
 1.7660	32.9750
 1.7670	32.9450
 1.7680	32.9080
 1.7690	32.8770
 1.7700	32.8380
 1.7710	32.7860
 1.7720	32.7490
 1.7730	32.7220
 1.7740	32.6900
 1.7750	32.6680
 1.7760	32.6380
 1.7770	32.6000
 1.7780	32.5660
 1.7790	32.5300
 1.7800	32.5020
 1.7810	32.4770
 1.7820	32.4550
 1.7830	32.4410
 1.7840	32.4260
 1.7850	32.4110
 1.7860	32.4000
 1.7870	32.3940
 1.7880	32.3920
 1.7890	32.3910
 1.7900	32.3830
 1.7910	32.3770
 1.7920	32.3610
 1.7930	32.3560
 1.7940	32.3610
 1.7950	32.3650
 1.7960	32.3770
 1.7970	32.3820
 1.7980	32.3820
 1.7990	32.3820
 1.8000	32.3740
 1.8010	32.3780
 1.8020	32.3890
 1.8030	32.4040
 1.8040	32.4340
 1.8050	32.4500
 1.8060	32.4620
 1.8070	32.4710
 1.8080	32.4710
 1.8090	32.4750
 1.8100	32.4800
 1.8110	32.4830
 1.8120	32.4920
 1.8130	32.4980
 1.8140	32.5000
 1.8150	32.5020
 1.8160	32.4990
 1.8170	32.4990
 1.8180	32.5110
 1.8190	32.5190
 1.8200	32.5250
 1.8210	32.5270
 1.8220	32.5300
 1.8230	32.5340
 1.8240	32.5360
 1.8250	32.5400
 1.8260	32.5330
 1.8270	32.5230
 1.8280	32.5140
 1.8290	32.5040
 1.8300	32.4950
 1.8310	32.4850
 1.8320	32.4760
 1.8330	32.4660
 1.8340	32.4570
 1.8350	32.4570
 1.8360	32.4190
 1.8370	32.3750
 1.8380	32.3310
 1.8390	32.2790
 1.8400	32.2250
 1.8410	32.1590
 1.8420	32.0910
 1.8430	32.0060
 1.8440	31.9040
 1.8450	31.8010
 1.8460	31.6980
 1.8470	31.5980
 1.8480	31.4830
 1.8490	31.3420
 1.8500	31.1860
 1.8510	31.0070
 1.8520	30.8080
 1.8530	30.6060
 1.8540	30.4010
 1.8550	30.1860
 1.8560	29.9630
 1.8570	29.7190
 1.8580	29.4600
 1.8590	29.1840
 1.8600	28.8940
 1.8610	28.5750
 1.8620	28.2360
 1.8630	27.8870
 1.8640	27.5220
 1.8650	27.1360
 1.8660	26.7390
 1.8670	26.3180
 1.8680	25.8720
 1.8690	25.4080
 1.8700	24.9250
 1.8710	24.4210
 1.8720	23.9090
 1.8730	23.3860
 1.8740	22.8500
 1.8750	22.3150
 1.8760	21.7670
 1.8770	21.2210
 1.8780	20.6800
 1.8790	20.1300
 1.8800	19.5940
 1.8810	19.0650
 1.8820	18.5410
 1.8830	18.0180
 1.8840	17.5140
 1.8850	17.0160
 1.8860	16.5340
 1.8870	16.0800
 1.8880	15.6410
 1.8890	15.2150
 1.8900	14.8030
 1.8910	14.4170
 1.8920	14.0440
 1.8930	13.7020
 1.8940	13.3930
 1.8950	13.1150
 1.8960	12.8580
 1.8970	12.6220
 1.8980	12.4060
 1.8990	12.2040
 1.9000	12.0240
 1.9010	11.8710
 1.9020	11.7240
 1.9030	11.5930
 1.9040	11.4790
 1.9050	11.3820
 1.9060	11.2910
 1.9070	11.2190
 1.9080	11.1630
 1.9090	11.1070
 1.9100	11.0560
 1.9110	11.0100
 1.9120	10.9650
 1.9130	10.9320
 1.9140	10.9090
 1.9150	10.8930
 1.9160	10.8820
 1.9170	10.8740
 1.9180	10.8620
 1.9190	10.8460
 1.9200	10.8340
 1.9210	10.8260
 1.9220	10.8220
 1.9230	10.8210
 1.9240	10.8220
 1.9250	10.8260
 1.9260	10.8300
 1.9270	10.8340
 1.9280	10.8420
 1.9290	10.8560
 1.9300	10.8710
 1.9310	10.8860
 1.9320	10.8960
 1.9330	10.9080
 1.9340	10.9160
 1.9350	10.9300
 1.9360	10.9470
 1.9370	10.9680
 1.9380	10.9990
 1.9390	11.0220
 1.9400	11.0420
 1.9410	11.0700
 1.9420	11.0900
 1.9430	11.1030
 1.9440	11.1220
 1.9450	11.1400
 1.9460	11.1640
 1.9470	11.1950
 1.9480	11.2270
 1.9490	11.2680
 1.9500	11.3020
 1.9510	11.3400
 1.9520	11.3700
 1.9530	11.4010
 1.9540	11.4330
 1.9550	11.4670
 1.9560	11.4980
 1.9570	11.5360
 1.9580	11.5810
 1.9590	11.6220
 1.9600	11.6640
 1.9610	11.7030
 1.9620	11.7390
 1.9630	11.7780
 1.9640	11.8160
 1.9650	11.8550
 1.9660	11.9020
 1.9670	11.9480
 1.9680	11.9950
 1.9690	12.0460
 1.9700	12.0960
 1.9710	12.1430
 1.9720	12.1970
 1.9730	12.2520
 1.9740	12.3170
 1.9750	12.3820
 1.9760	12.4430
 1.9770	12.5040
 1.9780	12.5630
 1.9790	12.6220
 1.9800	12.6830
 1.9810	12.7430
 1.9820	12.8010
 1.9830	12.8600
 1.9840	12.9220
 1.9850	12.9830
 1.9860	13.0410
 1.9870	13.1060
 1.9880	13.1780
 1.9890	13.2370
 1.9900	13.2960
 1.9910	13.3600
 1.9920	13.4230
 1.9930	13.4810
 1.9940	13.5490
 1.9950	13.6280
 1.9960	13.6970
 1.9970	13.7660
 1.9980	13.8350
 1.9990	13.9000
 2.0000	13.9620
 2.0010	14.0270
 2.0020	14.0920
 2.0030	14.1480
 2.0040	14.2040
 2.0050	14.2650
 2.0060	14.3250
 2.0070	14.3880
 2.0080	14.4620
 2.0090	14.5250
 2.0100	14.5850
 2.0110	14.6440
 2.0120	14.6990
 2.0130	14.7520
 2.0140	14.8220
 2.0150	14.8850
 2.0160	14.9490
 2.0170	15.0180
 2.0180	15.0810
 2.0190	15.1380
 2.0200	15.1980
 2.0210	15.2580
 2.0220	15.3170
 2.0230	15.3760
 2.0240	15.4320
 2.0250	15.4910
 2.0260	15.5410
 2.0270	15.5800
 2.0280	15.6200
 2.0290	15.6610
 2.0300	15.6950
 2.0310	15.7350
 2.0320	15.7810
 2.0330	15.8220
 2.0340	15.8650
 2.0350	15.9050
 2.0360	15.9420
 2.0370	15.9820
 2.0380	16.0220
 2.0390	16.0630
 2.0400	16.1080
 2.0410	16.1500
 2.0420	16.1920
 2.0430	16.2310
 2.0440	16.2640
 2.0450	16.2930
 2.0460	16.3240
 2.0470	16.3470
 2.0480	16.3780
 2.0490	16.4150
 2.0500	16.4460
 2.0510	16.4750
 2.0520	16.5050
 2.0530	16.5320
 2.0540	16.5620
 2.0550	16.5890
 2.0560	16.6290
 2.0570	16.6630
 2.0580	16.6920
 2.0590	16.7230
 2.0600	16.7520
 2.0610	16.7820
 2.0620	16.8100
 2.0630	16.8420
 2.0640	16.8750
 2.0650	16.9100
 2.0660	16.9520
 2.0670	16.9880
 2.0680	17.0230
 2.0690	17.0580
 2.0700	17.0890
 2.0710	17.1200
 2.0720	17.1480
 2.0730	17.1810
 2.0740	17.2120
 2.0750	17.2420
 2.0760	17.2770
 2.0770	17.3150
 2.0780	17.3530
 2.0790	17.4000
 2.0800	17.4330
 2.0810	17.4620
 2.0820	17.4860
 2.0830	17.4930
 2.0840	17.5130
 2.0850	17.5350
 2.0860	17.5590
 2.0870	17.5900
 2.0880	17.6230
 2.0890	17.6540
 2.0900	17.6870
 2.0910	17.7180
 2.0920	17.7440
 2.0930	17.7820
 2.0940	17.8290
 2.0950	17.8650
 2.0960	17.9050
 2.0970	17.9400
 2.0980	17.9650
 2.0990	17.9910
 2.1000	18.0140
 2.1010	18.0420
 2.1020	18.0690
 2.1030	18.0990
 2.1040	18.1360
 2.1050	18.1710
 2.1060	18.2020
 2.1070	18.2300
 2.1080	18.2550
 2.1090	18.2700
 2.1100	18.3020
 2.1110	18.3420
 2.1120	18.3760
 2.1130	18.4250
 2.1140	18.4560
 2.1150	18.4700
 2.1160	18.4910
 2.1170	18.5040
 2.1180	18.5270
 2.1190	18.5580
 2.1200	18.5850
 2.1210	18.6140
 2.1220	18.6470
 2.1230	18.6760
 2.1240	18.7040
 2.1250	18.7330
 2.1260	18.7640
 2.1270	18.7930
 2.1280	18.8240
 2.1290	18.8450
 2.1300	18.8570
 2.1310	18.8790
 2.1320	18.9010
 2.1330	18.9250
 2.1340	18.9590
 2.1350	18.9840
 2.1360	18.9980
 2.1370	19.0190
 2.1380	19.0380
 2.1390	19.0630
 2.1400	19.0970
 2.1410	19.1310
 2.1420	19.1620
 2.1430	19.1970
 2.1440	19.2200
 2.1450	19.2360
 2.1460	19.2540
 2.1470	19.2630
 2.1480	19.2840
 2.1490	19.3120
 2.1500	19.3380
 2.1510	19.3740
 2.1520	19.3970
 2.1530	19.4090
 2.1540	19.4310
 2.1550	19.4480
 2.1560	19.4730
 2.1570	19.5120
 2.1580	19.5450
 2.1590	19.5730
 2.1600	19.6110
 2.1610	19.6410
 2.1620	19.6690
 2.1630	19.6990
 2.1640	19.7270
 2.1650	19.7590
 2.1660	19.7930
 2.1670	19.8270
 2.1680	19.8640
 2.1690	19.8970
 2.1700	19.9330
 2.1710	19.9590
 2.1720	19.9680
 2.1730	19.9960
 2.1740	20.0290
 2.1750	20.0630
 2.1760	20.1210
 2.1770	20.1560
 2.1780	20.1730
 2.1790	20.1960
 2.1800	20.2020
 2.1810	20.2220
 2.1820	20.2490
 2.1830	20.2840
 2.1840	20.3130
 2.1850	20.3470
 2.1860	20.3760
 2.1870	20.3970
 2.1880	20.4280
 2.1890	20.4620
 2.1900	20.4990
 2.1910	20.5450
 2.1920	20.5820
 2.1930	20.6180
 2.1940	20.6530
 2.1950	20.6850
 2.1960	20.7100
 2.1970	20.7310
 2.1980	20.7510
 2.1990	20.7580
 2.2000	20.7730
 2.2010	20.7880
 2.2020	20.8120
 2.2030	20.8460
 2.2040	20.8760
 2.2050	20.9170
 2.2060	20.9480
 2.2070	20.9780
 2.2080	21.0030
 2.2090	21.0280
 2.2100	21.0550
 2.2110	21.0740
 2.2120	21.0850
 2.2130	21.0980
 2.2140	21.1000
 2.2150	21.1150
 2.2160	21.1370
 2.2170	21.1560
 2.2180	21.1840
 2.2190	21.2000
 2.2200	21.2120
 2.2210	21.2170
 2.2220	21.2100
 2.2230	21.2070
 2.2240	21.2030
 2.2250	21.1940
 2.2260	21.1870
 2.2270	21.1720
 2.2280	21.1370
 2.2290	21.1190
 2.2300	21.1120
 2.2310	21.0980
 2.2320	21.0870
 2.2330	21.0670
 2.2340	21.0320
 2.2350	20.9750
 2.2360	20.9290
 2.2370	20.8790
 2.2380	20.8330
 2.2390	20.7910
 2.2400	20.7430
 2.2410	20.6950
 2.2420	20.6400
 2.2430	20.5780
 2.2440	20.5170
 2.2450	20.4540
 2.2460	20.3860
 2.2470	20.3120
 2.2480	20.2440
 2.2490	20.1710
 2.2500	20.1080
 2.2510	20.0640
 2.2520	19.9990
 2.2530	19.9320
 2.2540	19.8540
 2.2550	19.7460
 2.2560	19.6580
 2.2570	19.5750
 2.2580	19.4910
 2.2590	19.4180
 2.2600	19.3400
 2.2610	19.2540
 2.2620	19.1750
 2.2630	19.0870
 2.2640	18.9980
 2.2650	18.9190
 2.2660	18.8340
 2.2670	18.7640
 2.2680	18.7140
 2.2690	18.6380
 2.2700	18.5540
 2.2710	18.4760
 2.2720	18.3790
 2.2730	18.3120
 2.2740	18.2640
 2.2750	18.2110
 2.2760	18.1710
 2.2770	18.1220
 2.2780	18.0660
 2.2790	18.0190
 2.2800	17.9720
 2.2810	17.9290
 2.2820	17.9000
 2.2830	17.8550
 2.2840	17.7990
 2.2850	17.7570
 2.2860	17.7230
 2.2870	17.6740
 2.2880	17.6240
 2.2890	17.5750
 2.2900	17.5010
 2.2910	17.4480
 2.2920	17.4210
 2.2930	17.3800
 2.2940	17.3390
 2.2950	17.2960
 2.2960	17.2440
 2.2970	17.1950
 2.2980	17.1420
 2.2990	17.1030
 2.3000	17.0620
 2.3010	17.0260
 2.3020	16.9750
 2.3030	16.9150
 2.3040	16.8740
 2.3050	16.8590
 2.3060	16.8620
 2.3070	16.8760
 2.3080	16.8700
 2.3090	16.8210
 2.3100	16.7740
 2.3110	16.7420
 2.3120	16.7280
 2.3130	16.7370
 2.3140	16.7380
 2.3150	16.7490
 2.3160	16.7560
 2.3170	16.7690
 2.3180	16.7590
 2.3190	16.7380
 2.3200	16.7290
 2.3210	16.7040
 2.3220	16.6880
 2.3230	16.6990
 2.3240	16.6790
 2.3250	16.6400
 2.3260	16.5990
 2.3270	16.5410
 2.3280	16.4940
 2.3290	16.4470
 2.3300	16.4020
 2.3310	16.3530
 2.3320	16.3220
 2.3330	16.3130
 2.3340	16.2780
 2.3350	16.2490
 2.3360	16.2130
 2.3370	16.1430
 2.3380	16.0980
 2.3390	16.0720
 2.3400	16.0420
 2.3410	16.0150
 2.3420	15.9820
 2.3430	15.9380
 2.3440	15.9090
 2.3450	15.8900
 2.3460	15.8690
 2.3470	15.8520
 2.3480	15.8410
 2.3490	15.8290
 2.3500	15.8130
 2.3510	15.8090
 2.3520	15.7960
 2.3530	15.7690
 2.3540	15.7480
 2.3550	15.7440
 2.3560	15.7200
 2.3570	15.6820
 2.3580	15.6590
 2.3590	15.6420
 2.3600	15.6340
 2.3610	15.6420
 2.3620	15.6480
 2.3630	15.6090
 2.3640	15.5520
 2.3650	15.5180
 2.3660	15.4790
 2.3670	15.4430
 2.3680	15.4150
 2.3690	15.3720
 2.3700	15.3140
 2.3710	15.2880
 2.3720	15.2860
 2.3730	15.2720
 2.3740	15.2860
 2.3750	15.2750
 2.3760	15.2420
 2.3770	15.2290
 2.3780	15.1830
 2.3790	15.1330
 2.3800	15.0970
 2.3810	15.0510
 2.3820	15.0090
 2.3830	14.9810
 2.3840	14.9590
 2.3850	14.9310
 2.3860	14.9100
 2.3870	14.9050
 2.3880	14.8890
 2.3890	14.8590
 2.3900	14.8160
 2.3910	14.7380
 2.3920	14.6790
 2.3930	14.6340
 2.3940	14.5960
 2.3950	14.5790
 2.3960	14.5410
 2.3970	14.5120
 2.3980	14.4650
 2.3990	14.4060
 2.4000	14.3750
 2.4010	14.3520
 2.4020	14.3660
 2.4030	14.3610
 2.4040	14.3290
 2.4050	14.3120
 2.4060	14.2400
 2.4070	14.2000
 2.4080	14.1810
 2.4090	14.1020
 2.4100	14.0750
 2.4110	14.0480
 2.4120	14.0240
 2.4130	14.0790
 2.4140	14.1030
 2.4150	14.0730
 2.4160	14.0400
 2.4170	13.9790
 2.4180	13.8980
 2.4190	13.8600
 2.4200	13.8260
 2.4210	13.7640
 2.4220	13.6940
 2.4230	13.6500
 2.4240	13.6490
 2.4250	13.6440
 2.4260	13.6390
 2.4270	13.5830
 2.4280	13.5020
 2.4290	13.4670
 2.4300	13.4260
 2.4310	13.4010
 2.4320	13.3900
 2.4330	13.3520
 2.4340	13.2860
 2.4350	13.2530
 2.4360	13.2220
 2.4370	13.1630
 2.4380	13.1240
 2.4390	13.0570
 2.4400	12.9730
 2.4410	12.9410
 2.4420	12.9570
 2.4430	12.9570
 2.4440	12.9430
 2.4450	12.9570
 2.4460	12.9400
 2.4470	12.9340
 2.4480	12.9660
 2.4490	12.9120
 2.4500	12.8270
 2.4510	12.7770
 2.4520	12.7460
 2.4530	12.7320
 2.4540	12.6950
 2.4550	12.7120
 2.4560	12.7360
 2.4570	12.6850
 2.4580	12.6790
 2.4590	12.6030
 2.4600	12.4430
 2.4610	12.4200
 2.4620	12.4440
 2.4630	12.3970
 2.4640	12.4160
 2.4650	12.4410
 2.4660	12.3570
 2.4670	12.3560
 2.4680	12.3650
 2.4690	12.2640
 2.4700	12.2250
 2.4710	12.2280
 2.4720	12.2150
 2.4730	12.1850
 2.4740	12.2170
 2.4750	12.2660
 2.4760	12.2720
 2.4770	12.3680
 2.4780	12.3630
 2.4790	12.2410
 2.4800	12.1760
 2.4810	12.0530
 2.4820	11.9940
 2.4830	12.0290
 2.4840	12.0110
 2.4850	12.0540
 2.4860	12.0910
 2.4870	11.9860
 2.4880	11.9810
 2.4890	11.9970
 2.4900	11.9520
 2.4910	12.0740
 2.4920	12.1410
 2.4930	12.1230
 2.4940	12.1250
 2.4950	11.9920
 2.4960	11.8800
 2.4970	11.8220
 2.4980	11.7230
 2.4990	11.7460
 2.5000	11.8440
