Name: Baccharis pilularis 2
Type: vegetation
Class: Shrub
Genus: Baccharis
Species: pilularis
Sample No.: VH196
Owner: UCSB
Wavelength Range: TIR
Origin: 34.4186; -119.8458; WGS84
Collection Date: 10/13/2013
Description: Samples were collected as part of the HyspIRI Airborne Campaign. 48 individual plants were sampled in three times in 2013 - spring  summer  and fall. The name of the sample includes a 1  2  or 3 which references a different individual of the species. Samples were taken to JPL and processed within 48 hours of collection. The same leaves were processed in the Nicolet and then measured using the ASD.
Measurement: Hemispherical reflectance
First Column: X
Second Column: Y
X Units: Wavelength (micrometers)
Y Units: Reflectance (percentage)
First X Value: 2.501
Last X Value: 15.387
Number of X Values: 1737
Additional Information: vegetation.shrub.baccharis.pilularis.tir.vh196.ucsb.nicolet.ancillary.txt

 2.5010	 8.1490
 2.5030	 7.9560
 2.5040	 7.6590
 2.5050	 7.8740
 2.5060	 8.1530
 2.5070	 8.1670
 2.5090	 8.2570
 2.5100	 8.0670
 2.5110	 7.8630
 2.5120	 7.6720
 2.5140	 7.6790
 2.5150	 7.7100
 2.5160	 8.0080
 2.5170	 7.8610
 2.5180	 7.7200
 2.5200	 8.0320
 2.5210	 8.1440
 2.5220	 8.0130
 2.5230	 7.9170
 2.5250	 7.8750
 2.5260	 8.0510
 2.5270	 8.1290
 2.5280	 8.0320
 2.5290	 7.6700
 2.5310	 7.6950
 2.5320	 7.8420
 2.5330	 7.9060
 2.5340	 7.9520
 2.5360	 7.9090
 2.5370	 7.7300
 2.5380	 7.8460
 2.5390	 7.9870
 2.5410	 8.0560
 2.5420	 7.8180
 2.5430	 7.8520
 2.5440	 8.1060
 2.5460	 8.0970
 2.5470	 7.9360
 2.5480	 8.0140
 2.5490	 8.0770
 2.5510	 8.0400
 2.5520	 7.9290
 2.5530	 8.0350
 2.5540	 7.8690
 2.5560	 7.7630
 2.5570	 7.8720
 2.5580	 7.9490
 2.5590	 7.9360
 2.5610	 7.9750
 2.5620	 7.9630
 2.5630	 7.9840
 2.5640	 7.9780
 2.5660	 8.0220
 2.5670	 7.8130
 2.5680	 7.7480
 2.5700	 7.9520
 2.5710	 7.9070
 2.5720	 7.8400
 2.5730	 7.9600
 2.5750	 7.9860
 2.5760	 7.8880
 2.5770	 8.0500
 2.5790	 8.2180
 2.5800	 7.9480
 2.5810	 7.9520
 2.5820	 7.9700
 2.5840	 8.0680
 2.5850	 8.0540
 2.5860	 8.0680
 2.5880	 8.1280
 2.5890	 8.0840
 2.5900	 8.0100
 2.5910	 8.0100
 2.5930	 7.8260
 2.5940	 7.8240
 2.5950	 8.0540
 2.5970	 8.0790
 2.5980	 7.8530
 2.5990	 7.7780
 2.6000	 7.8100
 2.6020	 7.6240
 2.6030	 7.3600
 2.6040	 7.5120
 2.6060	 7.7450
 2.6070	 7.7920
 2.6080	 7.8040
 2.6100	 7.9090
 2.6110	 7.7840
 2.6120	 7.6900
 2.6140	 7.6380
 2.6150	 7.5960
 2.6160	 7.6180
 2.6180	 7.6930
 2.6190	 7.6410
 2.6200	 7.6120
 2.6220	 7.6070
 2.6230	 7.6740
 2.6240	 7.4530
 2.6260	 7.2580
 2.6270	 7.1610
 2.6280	 7.2420
 2.6300	 7.2320
 2.6310	 7.3180
 2.6320	 7.1400
 2.6340	 7.1540
 2.6350	 7.2280
 2.6360	 7.1690
 2.6380	 7.1820
 2.6390	 7.2470
 2.6400	 7.1190
 2.6420	 7.0000
 2.6430	 7.0030
 2.6440	 7.0750
 2.6460	 7.0930
 2.6470	 7.0090
 2.6480	 6.9760
 2.6500	 7.1040
 2.6510	 7.1210
 2.6520	 7.0060
 2.6540	 6.9590
 2.6550	 7.0460
 2.6560	 6.8490
 2.6580	 6.7100
 2.6590	 6.6200
 2.6610	 6.7050
 2.6620	 6.6630
 2.6630	 6.4540
 2.6650	 6.4250
 2.6660	 6.5350
 2.6670	 6.5990
 2.6690	 6.6460
 2.6700	 6.5530
 2.6720	 6.5560
 2.6730	 6.6270
 2.6740	 6.6120
 2.6760	 6.5590
 2.6770	 6.4630
 2.6780	 6.4650
 2.6800	 6.4950
 2.6810	 6.3090
 2.6830	 6.2530
 2.6840	 6.1580
 2.6850	 6.0920
 2.6870	 6.0660
 2.6880	 6.0450
 2.6900	 5.9410
 2.6910	 6.1050
 2.6920	 5.9650
 2.6940	 6.0570
 2.6950	 6.1830
 2.6970	 5.9830
 2.6980	 5.9100
 2.6990	 5.8240
 2.7010	 5.8240
 2.7020	 6.0260
 2.7040	 5.8290
 2.7050	 5.7340
 2.7060	 5.6180
 2.7080	 5.7630
 2.7090	 5.8000
 2.7110	 5.7230
 2.7120	 5.7010
 2.7130	 5.7540
 2.7150	 5.6370
 2.7160	 5.5760
 2.7180	 5.4900
 2.7190	 5.4570
 2.7210	 5.4390
 2.7220	 5.5430
 2.7230	 5.4890
 2.7250	 5.4660
 2.7260	 5.1720
 2.7280	 4.9150
 2.7290	 5.3610
 2.7310	 5.3590
 2.7320	 5.1140
 2.7330	 5.3170
 2.7350	 5.2510
 2.7360	 5.1240
 2.7380	 5.2380
 2.7390	 5.3270
 2.7410	 4.8610
 2.7420	 4.6500
 2.7440	 5.2580
 2.7450	 5.6620
 2.7470	 5.3670
 2.7480	 4.8590
 2.7490	 5.0100
 2.7510	 4.8960
 2.7520	 4.8370
 2.7540	 4.8660
 2.7550	 4.7520
 2.7570	 4.8170
 2.7580	 4.7110
 2.7600	 5.1780
 2.7610	 5.0180
 2.7630	 4.6670
 2.7640	 4.6440
 2.7660	 4.9790
 2.7670	 5.1120
 2.7680	 4.9050
 2.7700	 4.5740
 2.7710	 4.6750
 2.7730	 4.6010
 2.7740	 4.6240
 2.7760	 4.5470
 2.7770	 4.5530
 2.7790	 4.2900
 2.7800	 4.4800
 2.7820	 4.6690
 2.7830	 4.8190
 2.7850	 4.6420
 2.7860	 4.4800
 2.7880	 4.4340
 2.7890	 4.6890
 2.7910	 4.6030
 2.7920	 4.4760
 2.7940	 4.5780
 2.7950	 4.7740
 2.7970	 4.4670
 2.7980	 4.2470
 2.8000	 4.1150
 2.8010	 4.3600
 2.8030	 4.5960
 2.8040	 4.7410
 2.8060	 4.6430
 2.8070	 4.5390
 2.8090	 4.3750
 2.8110	 4.3740
 2.8120	 4.2880
 2.8140	 4.1350
 2.8150	 4.3200
 2.8170	 4.7330
 2.8180	 4.8950
 2.8200	 4.5950
 2.8210	 4.3320
 2.8230	 4.1980
 2.8240	 4.2680
 2.8260	 4.3970
 2.8270	 4.4490
 2.8290	 4.6820
 2.8300	 4.5670
 2.8320	 4.3240
 2.8340	 4.4430
 2.8350	 4.7240
 2.8370	 4.7000
 2.8380	 4.3860
 2.8400	 4.1140
 2.8410	 4.3140
 2.8430	 4.4210
 2.8440	 4.2980
 2.8460	 3.9980
 2.8480	 4.3900
 2.8490	 4.6880
 2.8510	 4.5100
 2.8520	 4.2930
 2.8540	 4.3120
 2.8550	 4.3220
 2.8570	 4.3980
 2.8590	 4.4170
 2.8600	 4.4450
 2.8620	 4.3210
 2.8630	 4.2180
 2.8650	 4.1560
 2.8660	 4.2790
 2.8680	 4.2700
 2.8700	 4.4360
 2.8710	 4.6490
 2.8730	 4.6920
 2.8740	 4.6270
 2.8760	 4.3240
 2.8780	 4.0740
 2.8790	 3.9900
 2.8810	 3.6580
 2.8820	 3.9890
 2.8840	 3.9390
 2.8860	 4.3120
 2.8870	 4.5660
 2.8890	 4.4540
 2.8900	 4.4450
 2.8920	 4.3160
 2.8940	 4.4540
 2.8950	 4.3130
 2.8970	 4.0700
 2.8980	 4.4420
 2.9000	 4.6810
 2.9020	 4.5350
 2.9030	 4.2080
 2.9050	 3.9630
 2.9070	 3.7430
 2.9080	 3.8640
 2.9100	 4.4190
 2.9120	 4.5980
 2.9130	 4.4870
 2.9150	 4.4540
 2.9160	 4.3220
 2.9180	 4.3840
 2.9200	 4.3450
 2.9210	 4.3170
 2.9230	 4.2250
 2.9250	 4.2970
 2.9260	 4.4770
 2.9280	 4.5280
 2.9300	 4.3380
 2.9310	 4.4460
 2.9330	 4.4250
 2.9350	 4.1090
 2.9360	 3.8640
 2.9380	 4.1750
 2.9400	 4.3810
 2.9410	 4.2100
 2.9430	 4.1540
 2.9450	 4.2090
 2.9460	 4.4240
 2.9480	 4.3560
 2.9500	 4.3500
 2.9510	 4.3240
 2.9530	 4.2240
 2.9550	 3.4620
 2.9560	 2.8760
 2.9580	 3.1710
 2.9600	 4.8580
 2.9610	 5.7500
 2.9630	 4.2140
 2.9650	 3.7810
 2.9660	 3.6290
 2.9680	 3.5870
 2.9700	 4.8420
 2.9720	 4.9650
 2.9730	 2.1240
 2.9750	 1.1700
 2.9770	 2.6070
 2.9780	 4.1100
 2.9800	 5.1810
 2.9820	 4.0390
 2.9840	 4.4730
 2.9850	 5.1910
 2.9870	 5.2310
 2.9890	 4.7330
 2.9900	 4.9410
 2.9920	 4.6610
 2.9940	 5.5330
 2.9960	 5.2010
 2.9970	 6.8890
 2.9990	 7.1330
 3.0010	 5.3000
 3.0030	 4.0530
 3.0040	 2.3040
 3.0060	 3.1710
 3.0080	 4.5600
 3.0100	 4.4780
 3.0110	 4.3130
 3.0130	 4.9330
 3.0150	 3.8220
 3.0170	 3.3410
 3.0180	 2.6380
 3.0200	 2.6650
 3.0220	 3.3770
 3.0240	 4.0310
 3.0250	 4.2910
 3.0270	 4.9270
 3.0290	 4.0510
 3.0310	 3.0820
 3.0320	 3.7140
 3.0340	 3.6020
 3.0360	 4.8240
 3.0380	 5.3330
 3.0400	 4.4340
 3.0410	 5.5780
 3.0430	 6.1960
 3.0450	 5.3280
 3.0470	 4.0920
 3.0480	 5.5250
 3.0500	 6.3410
 3.0520	 4.8110
 3.0540	 7.0070
 3.0560	 9.0600
 3.0570	 7.5000
 3.0590	 5.0960
 3.0610	 4.4430
 3.0630	 4.5970
 3.0650	 5.1110
 3.0660	 4.5510
 3.0680	 3.9120
 3.0700	 4.3250
 3.0720	 4.8310
 3.0740	 4.8570
 3.0760	 4.3990
 3.0770	 4.1800
 3.0790	 3.9320
 3.0810	 4.3130
 3.0830	 4.6990
 3.0850	 4.5760
 3.0870	 4.5230
 3.0880	 4.8040
 3.0900	 4.3500
 3.0920	 4.0090
 3.0940	 4.2160
 3.0960	 4.7040
 3.0980	 4.6920
 3.0990	 4.2650
 3.1010	 4.1550
 3.1030	 4.1330
 3.1050	 4.0040
 3.1070	 4.4300
 3.1090	 4.7900
 3.1110	 4.7380
 3.1120	 4.4950
 3.1140	 4.4890
 3.1160	 4.4620
 3.1180	 4.7370
 3.1200	 5.0870
 3.1220	 4.5980
 3.1240	 4.0690
 3.1260	 4.5650
 3.1270	 4.6600
 3.1290	 4.7870
 3.1310	 4.5250
 3.1330	 4.6990
 3.1350	 5.0590
 3.1370	 4.6980
 3.1390	 4.2540
 3.1410	 5.2430
 3.1430	 5.9150
 3.1450	 4.3680
 3.1460	 3.3510
 3.1480	 2.9280
 3.1500	 2.5040
 3.1520	 4.4010
 3.1540	 5.4570
 3.1560	 4.9930
 3.1580	 5.5860
 3.1600	 6.0530
 3.1620	 4.7700
 3.1640	 4.2450
 3.1660	 5.2470
 3.1680	 5.7590
 3.1700	 6.5200
 3.1710	 6.0260
 3.1730	 6.0960
 3.1750	 4.9870
 3.1770	 5.4140
 3.1790	 6.9420
 3.1810	 6.5470
 3.1830	 4.7110
 3.1850	 4.0980
 3.1870	 4.4080
 3.1890	 4.7760
 3.1910	 4.7580
 3.1930	 4.2050
 3.1950	 4.0630
 3.1970	 4.4930
 3.1990	 4.6370
 3.2010	 4.2340
 3.2030	 3.9390
 3.2050	 4.0330
 3.2070	 4.0610
 3.2090	 4.4120
 3.2110	 4.6210
 3.2130	 4.4390
 3.2150	 4.5390
 3.2170	 4.3870
 3.2190	 4.4610
 3.2210	 4.3930
 3.2230	 4.4910
 3.2250	 4.5900
 3.2270	 4.4160
 3.2290	 4.4260
 3.2310	 4.5510
 3.2330	 4.5030
 3.2350	 4.5870
 3.2370	 4.5700
 3.2390	 4.6000
 3.2410	 4.5120
 3.2430	 4.5330
 3.2450	 4.3050
 3.2470	 4.1160
 3.2490	 4.0240
 3.2510	 4.2620
 3.2530	 4.2820
 3.2550	 4.1890
 3.2570	 4.3280
 3.2590	 4.3350
 3.2610	 4.5790
 3.2630	 4.5050
 3.2650	 4.2930
 3.2670	 4.4580
 3.2690	 4.4710
 3.2720	 4.6110
 3.2740	 4.3990
 3.2760	 4.3740
 3.2780	 4.3170
 3.2800	 4.1260
 3.2820	 4.3750
 3.2840	 4.5940
 3.2860	 4.7230
 3.2880	 4.8040
 3.2900	 4.8970
 3.2920	 5.2830
 3.2940	 5.3090
 3.2960	 4.8190
 3.2990	 4.6750
 3.3010	 4.6210
 3.3030	 4.4830
 3.3050	 4.7440
 3.3070	 4.6920
 3.3090	 4.5650
 3.3110	 4.4170
 3.3130	 4.3280
 3.3150	 4.2650
 3.3180	 4.3090
 3.3200	 4.5870
 3.3220	 4.6980
 3.3240	 4.5250
 3.3260	 4.4450
 3.3280	 4.4570
 3.3300	 4.3010
 3.3330	 4.2840
 3.3350	 4.4740
 3.3370	 4.4270
 3.3390	 4.4710
 3.3410	 4.4790
 3.3430	 4.3630
 3.3450	 4.1790
 3.3480	 4.4150
 3.3500	 4.5150
 3.3520	 4.3420
 3.3540	 4.1080
 3.3560	 4.1200
 3.3580	 4.2030
 3.3610	 4.3610
 3.3630	 4.2230
 3.3650	 4.2210
 3.3670	 4.2110
 3.3690	 4.1270
 3.3720	 4.0490
 3.3740	 4.0720
 3.3760	 3.9940
 3.3780	 4.1040
 3.3800	 4.1070
 3.3830	 4.1710
 3.3850	 4.1620
 3.3870	 4.1500
 3.3890	 4.1960
 3.3910	 4.0510
 3.3940	 4.0290
 3.3960	 4.2860
 3.3980	 4.2540
 3.4000	 4.2130
 3.4020	 4.1310
 3.4050	 4.1400
 3.4070	 4.1910
 3.4090	 4.2110
 3.4110	 4.3130
 3.4140	 4.3700
 3.4160	 4.2830
 3.4180	 4.3440
 3.4200	 4.3980
 3.4230	 4.5320
 3.4250	 4.8060
 3.4270	 5.1580
 3.4290	 5.0730
 3.4320	 4.8260
 3.4340	 4.6960
 3.4360	 4.9090
 3.4390	 4.8800
 3.4410	 4.8410
 3.4430	 5.0370
 3.4450	 5.0490
 3.4480	 4.8750
 3.4500	 4.8710
 3.4520	 4.4730
 3.4550	 4.4220
 3.4570	 4.5430
 3.4590	 4.4860
 3.4620	 4.4650
 3.4640	 4.5700
 3.4660	 4.6780
 3.4680	 4.7940
 3.4710	 4.8350
 3.4730	 4.7660
 3.4750	 4.6310
 3.4780	 4.5630
 3.4800	 4.5370
 3.4820	 4.5330
 3.4850	 4.5430
 3.4870	 4.6150
 3.4890	 4.5940
 3.4920	 4.5950
 3.4940	 4.6180
 3.4970	 4.6450
 3.4990	 4.7780
 3.5010	 4.9410
 3.5040	 4.8700
 3.5060	 4.9010
 3.5080	 4.9890
 3.5110	 5.0800
 3.5130	 5.2030
 3.5160	 5.1510
 3.5180	 4.9590
 3.5200	 5.0240
 3.5230	 5.0450
 3.5250	 5.1160
 3.5270	 5.1320
 3.5300	 5.0330
 3.5320	 4.8890
 3.5350	 4.8770
 3.5370	 4.8500
 3.5400	 4.9580
 3.5420	 5.0900
 3.5440	 5.0580
 3.5470	 5.1960
 3.5490	 5.3330
 3.5520	 5.1540
 3.5540	 5.0710
 3.5570	 5.0310
 3.5590	 5.0210
 3.5610	 4.9830
 3.5640	 5.0110
 3.5660	 5.1300
 3.5690	 5.1680
 3.5710	 5.2080
 3.5740	 5.2450
 3.5760	 5.2140
 3.5790	 5.2300
 3.5810	 5.2900
 3.5840	 5.3990
 3.5860	 5.1690
 3.5890	 4.6990
 3.5910	 4.7800
 3.5930	 5.6670
 3.5960	 5.6310
 3.5980	 5.1980
 3.6010	 5.2480
 3.6030	 5.4730
 3.6060	 5.2920
 3.6080	 4.7830
 3.6110	 4.7100
 3.6140	 4.7760
 3.6160	 4.8100
 3.6190	 5.0030
 3.6210	 5.0750
 3.6240	 5.1130
 3.6260	 5.1620
 3.6290	 5.3150
 3.6310	 5.3120
 3.6340	 5.2750
 3.6360	 5.1070
 3.6390	 5.0590
 3.6410	 5.0860
 3.6440	 5.0530
 3.6470	 5.0710
 3.6490	 5.1670
 3.6520	 5.2290
 3.6540	 5.1590
 3.6570	 5.1210
 3.6590	 5.1110
 3.6620	 5.0690
 3.6650	 5.0940
 3.6670	 5.0910
 3.6700	 5.2560
 3.6720	 5.3110
 3.6750	 5.1610
 3.6780	 5.0480
 3.6800	 5.1450
 3.6830	 5.1630
 3.6850	 5.2080
 3.6880	 5.3020
 3.6910	 5.3230
 3.6930	 5.1470
 3.6960	 5.1230
 3.6990	 5.1860
 3.7010	 5.1850
 3.7040	 5.1590
 3.7060	 5.1510
 3.7090	 5.2510
 3.7120	 5.2230
 3.7140	 5.1720
 3.7170	 5.2870
 3.7200	 5.3410
 3.7220	 5.4020
 3.7250	 5.1740
 3.7280	 5.0010
 3.7300	 5.1430
 3.7330	 5.1730
 3.7360	 5.1150
 3.7390	 5.1480
 3.7410	 5.0860
 3.7440	 5.1030
 3.7470	 5.2330
 3.7490	 5.3020
 3.7520	 5.3830
 3.7550	 5.3770
 3.7580	 5.4220
 3.7600	 5.3650
 3.7630	 5.2680
 3.7660	 5.2770
 3.7680	 5.3380
 3.7710	 5.3750
 3.7740	 5.2180
 3.7770	 5.2650
 3.7790	 5.2690
 3.7820	 5.2810
 3.7850	 5.3550
 3.7880	 5.4140
 3.7900	 5.4030
 3.7930	 5.3640
 3.7960	 5.3540
 3.7990	 5.2570
 3.8020	 5.1340
 3.8040	 5.1080
 3.8070	 5.1390
 3.8100	 5.2340
 3.8130	 5.3360
 3.8160	 5.2960
 3.8180	 5.2710
 3.8210	 5.3610
 3.8240	 5.5240
 3.8270	 5.5700
 3.8300	 5.4740
 3.8330	 5.3690
 3.8350	 5.3840
 3.8380	 5.5470
 3.8410	 5.5160
 3.8440	 5.5640
 3.8470	 5.4750
 3.8500	 5.3430
 3.8520	 5.2970
 3.8550	 5.3380
 3.8580	 5.4540
 3.8610	 5.4560
 3.8640	 5.3590
 3.8670	 5.4020
 3.8700	 5.4410
 3.8730	 5.4160
 3.8750	 5.4520
 3.8780	 5.4490
 3.8810	 5.3650
 3.8840	 5.3460
 3.8870	 5.3660
 3.8900	 5.4960
 3.8930	 5.5250
 3.8960	 5.5380
 3.8990	 5.4790
 3.9020	 5.4260
 3.9050	 5.4290
 3.9080	 5.4800
 3.9110	 5.6320
 3.9140	 5.6100
 3.9160	 5.4130
 3.9190	 5.3220
 3.9220	 5.3240
 3.9250	 5.4390
 3.9280	 5.4650
 3.9310	 5.4040
 3.9340	 5.4550
 3.9370	 5.4850
 3.9400	 5.4380
 3.9430	 5.4260
 3.9460	 5.4360
 3.9490	 5.4970
 3.9520	 5.5250
 3.9550	 5.4730
 3.9580	 5.4040
 3.9610	 5.3930
 3.9640	 5.3860
 3.9670	 5.4130
 3.9700	 5.4830
 3.9730	 5.5400
 3.9770	 5.5370
 3.9800	 5.5920
 3.9830	 5.5310
 3.9860	 5.4360
 3.9890	 5.4840
 3.9920	 5.5620
 3.9950	 5.4940
 3.9980	 5.4940
 4.0010	 5.4820
 4.0040	 5.4500
 4.0070	 5.4920
 4.0100	 5.4760
 4.0130	 5.3940
 4.0170	 5.4020
 4.0200	 5.4610
 4.0230	 5.4440
 4.0260	 5.4590
 4.0290	 5.4890
 4.0320	 5.5030
 4.0350	 5.4590
 4.0380	 5.4190
 4.0420	 5.5430
 4.0450	 5.6530
 4.0480	 5.5740
 4.0510	 5.5080
 4.0540	 5.3860
 4.0570	 5.2610
 4.0610	 5.3120
 4.0640	 5.3800
 4.0670	 5.4690
 4.0700	 5.4620
 4.0730	 5.5040
 4.0770	 5.6010
 4.0800	 5.6260
 4.0830	 5.5270
 4.0860	 5.4820
 4.0890	 5.5350
 4.0930	 5.4790
 4.0960	 5.4820
 4.0990	 5.4580
 4.1020	 5.4670
 4.1060	 5.3990
 4.1090	 5.3390
 4.1120	 5.4550
 4.1150	 5.4780
 4.1190	 5.4550
 4.1220	 5.4100
 4.1250	 5.5140
 4.1280	 5.5160
 4.1320	 5.4990
 4.1350	 5.4300
 4.1380	 5.3750
 4.1420	 5.3470
 4.1450	 5.4270
 4.1480	 5.4970
 4.1520	 5.5200
 4.1550	 5.4950
 4.1580	 5.5060
 4.1620	 5.5250
 4.1650	 5.5210
 4.1680	 5.5320
 4.1720	 5.5620
 4.1750	 5.4400
 4.1780	 5.3370
 4.1820	 5.3390
 4.1850	 5.4570
 4.1890	 5.4990
 4.1920	 5.5130
 4.1950	 5.5560
 4.1990	 5.5010
 4.2020	 5.5000
 4.2060	 5.5570
 4.2090	 5.4820
 4.2120	 5.5590
 4.2160	 5.7740
 4.2190	 5.7920
 4.2230	 5.4310
 4.2260	 5.3930
 4.2300	 5.5350
 4.2330	 5.8230
 4.2360	 5.8090
 4.2400	 5.6690
 4.2430	 5.6840
 4.2470	 5.4970
 4.2500	 5.2710
 4.2540	 5.1720
 4.2570	 5.2860
 4.2610	 5.2770
 4.2640	 5.2280
 4.2680	 5.3620
 4.2710	 5.2000
 4.2750	 5.4010
 4.2780	 5.5260
 4.2820	 5.2600
 4.2850	 5.1800
 4.2890	 5.1770
 4.2930	 5.2010
 4.2960	 5.4370
 4.3000	 5.3300
 4.3030	 5.1260
 4.3070	 5.2090
 4.3100	 5.3490
 4.3140	 5.3920
 4.3180	 5.3430
 4.3210	 5.2120
 4.3250	 5.0730
 4.3280	 5.0920
 4.3320	 5.1000
 4.3360	 5.1730
 4.3390	 5.3000
 4.3430	 5.3320
 4.3470	 5.3050
 4.3500	 5.2150
 4.3540	 5.1900
 4.3570	 5.3110
 4.3610	 5.3760
 4.3650	 5.2370
 4.3680	 5.1980
 4.3720	 5.1730
 4.3760	 5.0450
 4.3800	 5.0640
 4.3830	 5.2710
 4.3870	 5.2990
 4.3910	 5.1870
 4.3940	 5.2140
 4.3980	 5.1960
 4.4020	 5.1650
 4.4060	 5.1810
 4.4090	 5.0950
 4.4130	 5.1120
 4.4170	 5.2500
 4.4210	 5.2240
 4.4240	 5.1400
 4.4280	 5.1210
 4.4320	 5.1080
 4.4360	 5.2070
 4.4400	 5.1500
 4.4430	 5.0110
 4.4470	 5.0520
 4.4510	 5.0310
 4.4550	 5.0080
 4.4590	 5.0980
 4.4620	 5.0730
 4.4660	 5.0130
 4.4700	 5.1480
 4.4740	 5.2420
 4.4780	 5.1290
 4.4820	 5.0550
 4.4860	 5.0730
 4.4900	 5.1390
 4.4930	 5.1300
 4.4970	 5.0730
 4.5010	 5.0290
 4.5050	 5.0780
 4.5090	 5.1980
 4.5130	 5.1850
 4.5170	 5.1040
 4.5210	 5.0420
 4.5250	 4.9860
 4.5290	 4.9660
 4.5330	 5.0390
 4.5370	 5.0700
 4.5410	 5.0560
 4.5450	 5.1000
 4.5490	 5.1640
 4.5530	 5.1570
 4.5570	 5.0140
 4.5610	 4.9650
 4.5650	 4.9660
 4.5690	 4.9460
 4.5730	 5.0180
 4.5770	 5.0100
 4.5810	 5.0160
 4.5850	 4.9770
 4.5890	 4.9340
 4.5930	 5.0490
 4.5970	 5.0800
 4.6010	 5.0190
 4.6050	 4.9470
 4.6090	 4.8250
 4.6130	 4.7720
 4.6170	 4.7800
 4.6220	 4.9150
 4.6260	 4.9220
 4.6300	 5.0020
 4.6340	 5.0820
 4.6380	 5.0140
 4.6420	 4.9120
 4.6460	 4.9370
 4.6510	 4.9800
 4.6550	 4.9520
 4.6590	 4.8880
 4.6630	 4.9200
 4.6670	 4.8860
 4.6720	 4.9580
 4.6760	 4.9260
 4.6800	 4.8630
 4.6840	 4.8860
 4.6880	 5.0020
 4.6930	 4.9920
 4.6970	 4.8400
 4.7010	 4.8220
 4.7050	 4.9380
 4.7100	 5.0010
 4.7140	 5.0020
 4.7180	 4.9290
 4.7230	 4.9590
 4.7270	 4.9220
 4.7310	 4.8630
 4.7360	 4.9500
 4.7400	 5.0060
 4.7440	 4.9050
 4.7490	 4.8610
 4.7530	 4.8820
 4.7570	 4.9000
 4.7620	 4.8280
 4.7660	 4.8400
 4.7700	 4.9000
 4.7750	 4.9770
 4.7790	 5.0340
 4.7840	 5.0920
 4.7880	 5.0880
 4.7920	 5.0970
 4.7970	 5.0560
 4.8010	 4.9470
 4.8060	 4.8920
 4.8100	 4.9350
 4.8150	 4.9920
 4.8190	 4.9340
 4.8240	 4.8050
 4.8280	 4.8050
 4.8330	 4.9420
 4.8370	 4.9390
 4.8420	 4.7940
 4.8460	 4.8090
 4.8510	 4.8740
 4.8550	 4.9600
 4.8600	 4.9060
 4.8640	 4.8480
 4.8690	 4.8250
 4.8730	 4.8250
 4.8780	 4.8280
 4.8830	 4.9200
 4.8870	 4.9170
 4.8920	 4.8840
 4.8960	 4.8770
 4.9010	 4.8810
 4.9060	 4.8630
 4.9100	 4.8600
 4.9150	 4.8210
 4.9200	 4.8810
 4.9240	 4.8170
 4.9290	 4.7690
 4.9340	 4.7690
 4.9380	 4.7720
 4.9430	 4.8530
 4.9480	 4.9190
 4.9530	 4.9420
 4.9570	 4.9130
 4.9620	 4.8670
 4.9670	 4.8620
 4.9720	 4.8570
 4.9760	 4.9490
 4.9810	 4.9330
 4.9860	 4.7760
 4.9910	 4.6670
 4.9960	 4.7350
 5.0000	 4.7220
 5.0050	 4.7610
 5.0100	 4.8320
 5.0150	 4.8920
 5.0200	 4.8760
 5.0250	 4.8530
 5.0290	 4.8450
 5.0340	 4.8660
 5.0390	 4.8650
 5.0440	 4.8800
 5.0490	 4.8150
 5.0540	 4.8800
 5.0590	 4.9170
 5.0640	 4.8880
 5.0690	 4.8710
 5.0740	 4.9000
 5.0790	 4.8810
 5.0840	 4.8910
 5.0890	 4.9030
 5.0940	 4.8800
 5.0990	 4.9230
 5.1040	 4.9840
 5.1090	 4.8630
 5.1140	 4.7850
 5.1190	 4.7770
 5.1240	 4.8410
 5.1290	 4.8600
 5.1340	 4.8750
 5.1390	 4.8690
 5.1440	 4.8170
 5.1490	 4.7330
 5.1540	 4.7830
 5.1600	 4.7910
 5.1650	 4.8410
 5.1700	 4.7650
 5.1750	 4.7830
 5.1800	 4.8350
 5.1850	 4.8270
 5.1910	 4.8340
 5.1960	 4.8650
 5.2010	 4.8160
 5.2060	 4.8310
 5.2110	 4.8580
 5.2170	 4.8860
 5.2220	 4.8500
 5.2270	 4.9370
 5.2320	 4.8890
 5.2380	 4.8210
 5.2430	 4.7750
 5.2480	 4.7360
 5.2540	 4.7420
 5.2590	 4.8590
 5.2640	 4.8670
 5.2700	 4.8640
 5.2750	 4.7930
 5.2800	 4.8820
 5.2860	 4.7790
 5.2910	 4.6250
 5.2970	 4.5930
 5.3020	 4.6250
 5.3070	 4.6650
 5.3130	 4.7580
 5.3180	 4.7360
 5.3240	 4.7320
 5.3290	 4.7290
 5.3350	 4.7450
 5.3400	 4.6940
 5.3460	 4.6490
 5.3510	 4.6500
 5.3570	 4.6910
 5.3620	 4.6620
 5.3680	 4.6280
 5.3730	 4.6240
 5.3790	 4.6900
 5.3850	 4.6340
 5.3900	 4.6020
 5.3960	 4.6060
 5.4010	 4.6430
 5.4070	 4.6740
 5.4130	 4.6600
 5.4180	 4.5470
 5.4240	 4.5430
 5.4300	 4.5300
 5.4350	 4.4590
 5.4410	 4.4740
 5.4470	 4.4990
 5.4530	 4.5050
 5.4580	 4.5540
 5.4640	 4.4830
 5.4700	 4.4550
 5.4760	 4.4380
 5.4810	 4.4070
 5.4870	 4.3870
 5.4930	 4.4330
 5.4990	 4.3030
 5.5050	 4.3030
 5.5110	 4.3330
 5.5160	 4.3640
 5.5220	 4.3120
 5.5280	 4.3260
 5.5340	 4.3330
 5.5400	 4.3030
 5.5460	 4.1880
 5.5520	 4.1410
 5.5580	 4.0940
 5.5640	 4.0950
 5.5700	 4.0060
 5.5760	 3.9700
 5.5820	 3.9120
 5.5880	 3.8470
 5.5940	 3.8370
 5.6000	 3.9180
 5.6060	 3.9320
 5.6120	 3.9130
 5.6180	 3.8580
 5.6240	 3.8140
 5.6300	 3.7660
 5.6360	 3.7760
 5.6420	 3.6420
 5.6490	 3.5830
 5.6550	 3.5430
 5.6610	 3.5500
 5.6670	 3.6060
 5.6730	 3.6950
 5.6800	 3.5930
 5.6860	 3.5350
 5.6920	 3.4890
 5.6980	 3.5070
 5.7040	 3.4560
 5.7110	 3.4880
 5.7170	 3.4700
 5.7230	 3.4380
 5.7300	 3.3890
 5.7360	 3.5130
 5.7420	 3.5500
 5.7490	 3.5690
 5.7550	 3.4550
 5.7620	 3.5420
 5.7680	 3.7090
 5.7740	 3.7250
 5.7810	 3.6850
 5.7870	 3.8320
 5.7940	 3.9140
 5.8000	 3.9120
 5.8070	 3.8670
 5.8130	 3.8810
 5.8200	 3.9680
 5.8260	 4.0090
 5.8330	 4.0180
 5.8390	 4.0970
 5.8460	 4.0190
 5.8530	 4.0280
 5.8590	 4.0250
 5.8660	 4.0840
 5.8720	 4.0830
 5.8790	 4.1010
 5.8860	 4.0700
 5.8920	 4.1170
 5.8990	 4.1280
 5.9060	 4.2010
 5.9130	 4.1330
 5.9190	 4.1770
 5.9260	 4.2870
 5.9330	 4.3460
 5.9400	 4.2490
 5.9470	 4.3070
 5.9530	 4.2850
 5.9600	 4.4110
 5.9670	 4.4750
 5.9740	 4.5470
 5.9810	 4.5230
 5.9880	 4.4480
 5.9950	 4.3160
 6.0020	 4.3140
 6.0090	 4.1930
 6.0160	 4.1800
 6.0230	 4.1470
 6.0300	 4.1280
 6.0370	 4.1180
 6.0440	 4.3210
 6.0510	 4.3900
 6.0580	 4.4080
 6.0650	 4.1760
 6.0720	 4.1740
 6.0790	 4.3100
 6.0860	 4.3930
 6.0930	 4.2690
 6.1000	 4.3710
 6.1080	 4.4230
 6.1150	 4.4010
 6.1220	 4.2160
 6.1290	 4.2630
 6.1370	 4.3240
 6.1440	 4.3810
 6.1510	 4.2410
 6.1580	 4.2740
 6.1660	 4.3390
 6.1730	 4.4020
 6.1800	 4.2980
 6.1880	 4.3790
 6.1950	 4.3700
 6.2030	 4.3490
 6.2100	 4.2230
 6.2170	 4.3050
 6.2250	 4.3240
 6.2320	 4.3260
 6.2400	 4.1850
 6.2470	 4.2790
 6.2550	 4.3710
 6.2630	 4.3810
 6.2700	 4.3310
 6.2780	 4.4310
 6.2850	 4.3720
 6.2930	 4.3540
 6.3010	 4.3500
 6.3080	 4.4930
 6.3160	 4.4040
 6.3240	 4.2820
 6.3310	 4.2150
 6.3390	 4.2730
 6.3470	 4.2070
 6.3550	 4.2940
 6.3620	 4.2950
 6.3700	 4.3040
 6.3780	 4.2330
 6.3860	 4.1990
 6.3940	 4.1870
 6.4020	 4.3920
 6.4100	 4.4160
 6.4180	 4.3610
 6.4260	 4.1650
 6.4330	 4.2270
 6.4410	 4.2690
 6.4490	 4.1980
 6.4580	 4.0310
 6.4660	 4.1090
 6.4740	 4.0710
 6.4820	 4.2080
 6.4900	 4.2040
 6.4980	 4.2280
 6.5060	 4.1380
 6.5140	 4.0550
 6.5230	 4.0570
 6.5310	 4.1640
 6.5390	 4.0430
 6.5470	 4.1560
 6.5550	 4.1800
 6.5640	 4.2340
 6.5720	 4.1870
 6.5800	 4.1700
 6.5890	 4.0230
 6.5970	 3.9640
 6.6060	 3.8900
 6.6140	 3.9730
 6.6220	 3.9540
 6.6310	 4.0880
 6.6390	 4.1260
 6.6480	 4.1190
 6.6560	 3.8940
 6.6650	 3.8020
 6.6740	 3.8110
 6.6820	 3.8830
 6.6910	 3.8220
 6.6990	 3.9090
 6.7080	 3.8210
 6.7170	 3.7850
 6.7260	 3.7400
 6.7340	 3.8270
 6.7430	 3.8800
 6.7520	 3.9390
 6.7610	 3.7240
 6.7690	 3.6620
 6.7780	 3.6280
 6.7870	 3.7100
 6.7960	 3.7540
 6.8050	 3.9170
 6.8140	 3.8570
 6.8230	 3.8120
 6.8320	 3.7400
 6.8410	 3.8880
 6.8500	 3.8890
 6.8590	 3.9770
 6.8680	 3.8400
 6.8770	 3.8180
 6.8860	 3.7330
 6.8950	 3.8990
 6.9050	 3.9760
 6.9140	 4.0320
 6.9230	 3.9020
 6.9320	 3.9750
 6.9420	 4.0060
 6.9510	 4.0790
 6.9600	 4.0370
 6.9700	 4.0870
 6.9790	 4.0970
 6.9880	 4.1690
 6.9980	 4.1260
 7.0070	 4.1920
 7.0170	 4.0110
 7.0260	 3.9360
 7.0360	 3.9490
 7.0450	 3.9980
 7.0550	 3.9050
 7.0650	 4.1120
 7.0740	 4.0530
 7.0840	 3.9600
 7.0940	 3.9370
 7.1030	 4.1040
 7.1130	 4.0690
 7.1230	 4.0460
 7.1330	 3.9890
 7.1420	 4.0760
 7.1520	 4.0150
 7.1620	 4.1060
 7.1720	 4.0330
 7.1820	 3.9360
 7.1920	 3.7680
 7.2020	 3.9430
 7.2120	 3.9830
 7.2220	 4.0990
 7.2320	 4.0570
 7.2420	 4.1390
 7.2520	 4.2040
 7.2620	 4.2620
 7.2730	 4.0480
 7.2830	 4.0400
 7.2930	 3.9670
 7.3030	 4.0500
 7.3140	 4.0290
 7.3240	 4.0280
 7.3340	 3.9770
 7.3450	 3.9780
 7.3550	 3.7730
 7.3660	 3.8270
 7.3760	 3.8710
 7.3870	 4.0130
 7.3970	 4.0130
 7.4080	 4.1320
 7.4180	 4.1430
 7.4290	 4.1140
 7.4400	 3.9620
 7.4500	 4.0660
 7.4610	 4.0160
 7.4720	 4.0510
 7.4830	 4.0690
 7.4930	 4.1190
 7.5040	 3.9610
 7.5150	 4.0770
 7.5260	 4.0340
 7.5370	 4.1050
 7.5480	 3.9960
 7.5590	 3.9590
 7.5700	 3.8150
 7.5810	 3.8920
 7.5920	 3.9840
 7.6030	 3.9640
 7.6140	 3.7070
 7.6260	 3.8020
 7.6370	 3.8530
 7.6480	 3.9120
 7.6590	 3.7750
 7.6710	 3.9150
 7.6820	 3.9940
 7.6930	 4.0330
 7.7050	 3.8580
 7.7160	 3.8740
 7.7280	 3.7630
 7.7390	 3.8230
 7.7510	 3.7390
 7.7630	 3.8440
 7.7740	 3.8140
 7.7860	 3.9040
 7.7980	 3.8600
 7.8090	 3.9190
 7.8210	 3.8440
 7.8330	 3.9410
 7.8450	 3.9000
 7.8570	 3.9690
 7.8690	 3.9370
 7.8810	 4.0970
 7.8930	 4.0400
 7.9050	 4.0960
 7.9170	 3.9700
 7.9290	 4.0000
 7.9410	 3.8970
 7.9530	 3.9900
 7.9650	 3.9180
 7.9780	 3.9620
 7.9900	 3.8830
 8.0020	 4.1600
 8.0150	 4.0740
 8.0270	 4.0370
 8.0390	 3.9500
 8.0520	 4.1440
 8.0640	 4.2560
 8.0770	 4.3260
 8.0900	 4.1810
 8.1020	 4.2750
 8.1150	 4.1090
 8.1280	 4.3000
 8.1400	 4.3050
 8.1530	 4.3970
 8.1660	 4.2270
 8.1790	 4.4540
 8.1920	 4.2850
 8.2050	 4.1450
 8.2180	 4.1660
 8.2310	 4.3960
 8.2440	 4.2860
 8.2570	 4.3340
 8.2700	 4.1120
 8.2830	 4.1040
 8.2970	 4.1100
 8.3100	 4.3210
 8.3230	 4.2560
 8.3370	 4.3960
 8.3500	 4.2970
 8.3640	 4.4080
 8.3770	 4.2840
 8.3910	 4.2510
 8.4040	 4.0960
 8.4180	 4.3600
 8.4320	 4.4300
 8.4450	 4.5470
 8.4590	 4.3800
 8.4730	 4.6250
 8.4870	 4.5440
 8.5010	 4.5390
 8.5150	 4.6200
 8.5290	 4.8120
 8.5430	 4.7690
 8.5570	 4.9650
 8.5710	 4.7710
 8.5850	 4.8130
 8.5990	 4.7910
 8.6140	 4.8760
 8.6280	 4.7760
 8.6420	 4.8320
 8.6570	 4.6660
 8.6710	 4.8780
 8.6860	 4.7770
 8.7000	 4.8210
 8.7150	 4.7520
 8.7300	 4.9360
 8.7440	 4.7250
 8.7590	 4.8900
 8.7740	 4.7990
 8.7890	 4.9170
 8.8040	 4.9100
 8.8190	 4.9810
 8.8340	 4.7060
 8.8490	 4.8030
 8.8640	 4.8920
 8.8790	 5.1130
 8.8940	 4.9620
 8.9100	 5.0630
 8.9250	 4.9000
 8.9400	 5.0050
 8.9560	 5.0670
 8.9710	 5.1720
 8.9870	 5.0670
 9.0020	 5.1350
 9.0180	 4.8780
 9.0340	 4.9170
 9.0500	 4.5930
 9.0650	 4.8000
 9.0810	 4.8510
 9.0970	 4.8720
 9.1130	 4.7970
 9.1290	 5.0090
 9.1450	 4.8670
 9.1610	 5.0210
 9.1780	 4.9580
 9.1940	 5.1600
 9.2100	 5.1030
 9.2270	 5.0290
 9.2430	 4.8410
 9.2600	 5.0470
 9.2760	 4.8110
 9.2930	 4.8200
 9.3090	 4.8540
 9.3260	 5.1440
 9.3430	 4.7770
 9.3600	 4.7470
 9.3770	 4.6300
 9.3940	 4.9560
 9.4110	 4.7960
 9.4280	 4.9470
 9.4450	 4.9750
 9.4620	 5.0450
 9.4800	 4.8800
 9.4970	 4.8860
 9.5140	 4.5620
 9.5320	 4.8460
 9.5500	 4.8180
 9.5670	 5.0050
 9.5850	 4.9350
 9.6030	 5.0710
 9.6200	 4.9950
 9.6380	 5.0890
 9.6560	 4.9570
 9.6740	 5.1300
 9.6920	 4.9360
 9.7100	 4.9920
 9.7290	 4.8850
 9.7470	 4.9660
 9.7650	 4.8710
 9.7840	 5.0490
 9.8020	 5.0240
 9.8210	 5.1590
 9.8390	 4.8020
 9.8580	 4.9200
 9.8770	 4.7620
 9.8960	 4.8570
 9.9150	 4.7920
 9.9340	 5.0020
 9.9530	 4.9000
 9.9720	 5.0160
 9.9910	 4.8220
10.0100	 4.9340
10.0300	 4.7360
10.0490	 4.8370
10.0690	 4.7090
10.0880	 4.8730
10.1080	 4.8680
10.1280	 5.0470
10.1480	 4.8540
10.1670	 4.9800
10.1870	 4.7740
10.2070	 4.8980
10.2280	 4.9450
10.2480	 5.0990
10.2680	 4.9100
10.2890	 4.8770
10.3090	 4.5290
10.3300	 4.7000
10.3500	 4.7180
10.3710	 4.8230
10.3920	 4.7020
10.4120	 4.8700
10.4330	 4.6790
10.4540	 4.6720
10.4760	 4.4050
10.4970	 4.6060
10.5180	 4.5830
10.5390	 4.7320
10.5610	 4.5600
10.5820	 4.6120
10.6040	 4.4840
10.6260	 4.6780
10.6480	 4.4420
10.6700	 4.4400
10.6920	 4.2700
10.7140	 4.7650
10.7360	 4.7610
10.7580	 4.7680
10.7800	 4.4780
10.8030	 4.3510
10.8250	 4.2750
10.8480	 4.5140
10.8710	 4.4010
10.8940	 4.6460
10.9170	 4.4950
10.9400	 4.5090
10.9630	 4.3190
10.9860	 4.5930
11.0090	 4.4570
11.0330	 4.5940
11.0560	 4.4980
11.0800	 4.6090
11.1040	 4.1440
11.1270	 4.3440
11.1510	 4.3970
11.1750	 4.3700
11.2000	 4.1920
11.2240	 4.6240
11.2480	 4.4990
11.2730	 4.0710
11.2970	 2.7750
11.3220	 3.5340
11.3470	 4.2490
11.3720	 4.5920
11.3970	 4.4030
11.4220	 4.5080
11.4470	 4.5120
11.4720	 4.7050
11.4980	 4.2150
11.5230	 4.2410
11.5490	 4.2160
11.5750	 4.4710
11.6000	 4.2550
11.6260	 4.1850
11.6530	 4.0590
11.6790	 4.4750
11.7050	 4.3670
11.7320	 4.3710
11.7580	 4.1280
11.7850	 4.4740
11.8120	 4.2930
11.8390	 4.1560
11.8660	 3.7600
11.8930	 3.9870
11.9200	 3.9360
11.9480	 4.1350
11.9760	 4.1750
12.0030	 4.4690
12.0310	 4.2780
12.0590	 4.3170
12.0870	 3.9940
12.1150	 4.1550
12.1440	 4.0560
12.1720	 4.2250
12.2010	 4.0350
12.2300	 4.2860
12.2590	 4.0560
12.2880	 4.3030
12.3170	 4.0070
12.3460	 4.1780
12.3760	 4.0480
12.4050	 4.1720
12.4350	 3.9680
12.4650	 4.3170
12.4950	 4.1460
12.5250	 4.3850
12.5550	 4.1610
12.5860	 4.4030
12.6170	 4.1880
12.6470	 4.3670
12.6780	 4.0610
12.7090	 4.2060
12.7410	 3.8120
12.7720	 3.8320
12.8030	 3.6840
12.8350	 4.0380
12.8670	 3.7580
12.8990	 4.1330
12.9310	 3.9730
12.9640	 4.0110
12.9960	 3.9120
13.0290	 4.2340
13.0610	 3.8000
13.0940	 3.9380
13.1280	 3.6850
13.1610	 3.7850
13.1940	 3.6170
13.2280	 3.9220
13.2620	 3.6410
13.2960	 4.0810
13.3300	 3.9380
13.3640	 4.2270
13.3990	 3.9990
13.4340	 4.2300
13.4690	 3.9090
13.5040	 4.1920
13.5390	 3.7220
13.5740	 3.9620
13.6100	 3.6810
13.6460	 3.8150
13.6820	 3.6360
13.7180	 4.2080
13.7540	 3.9930
13.7910	 4.3670
13.8280	 3.9160
13.8650	 4.0470
13.9020	 3.6740
13.9390	 3.9610
13.9770	 3.7520
14.0150	 4.3300
14.0530	 4.0400
14.0910	 4.1350
14.1290	 3.7550
14.1680	 3.9710
14.2070	 3.6070
14.2460	 3.9340
14.2850	 3.4190
14.3240	 3.8430
14.3640	 3.5670
14.4040	 4.0590
14.4440	 3.7840
14.4840	 3.9870
14.5250	 3.7650
14.5660	 4.3370
14.6070	 3.4820
14.6480	 3.6720
14.6900	 3.1750
14.7310	 3.8050
14.7730	 3.4370
14.8150	 4.0170
14.8580	 3.6270
14.9010	 4.1310
14.9440	 3.2820
14.9870	 3.6450
15.0300	 3.2320
15.0740	 4.0800
15.1180	 3.3990
15.1620	 3.6300
15.2060	 3.0410
15.2510	 4.2860
15.2960	 3.6760
15.3410	 3.9440
15.3870	 3.4980
