Name: Pinus lambertiana 2
Type: vegetation
Class: Tree
Genus: Pinus
Species: lambertiana
Sample No.: VH258
Owner: UCSB
Wavelength Range: TIR
Origin: 37.0422; -119.3028; WGS84
Collection Date: 11/2/2013
Description: Samples were collected as part of the HyspIRI Airborne Campaign. 48 individual plants were sampled in three times in 2013 - spring  summer  and fall. The name of the sample includes a 1  2  or 3 which references a different individual of the species. Samples were taken to JPL and processed within 48 hours of collection. The same leaves were processed in the Nicolet and then measured using the ASD.
Measurement: Hemispherical reflectance
First Column: X
Second Column: Y
X Units: Wavelength (micrometers)
Y Units: Reflectance (percentage)
First X Value: 2.501
Last X Value: 15.387
Number of X Values: 1737
Additional Information: vegetation.tree.pinus.lambertiana.tir.vh258.ucsb.nicolet.ancillary.txt

 2.5010	15.7720
 2.5030	15.6870
 2.5040	15.7920
 2.5050	15.6490
 2.5060	15.6840
 2.5070	15.5150
 2.5090	15.6660
 2.5100	15.7330
 2.5110	15.6020
 2.5120	15.4900
 2.5140	15.5530
 2.5150	15.7640
 2.5160	15.8220
 2.5170	15.6120
 2.5180	15.4880
 2.5200	15.6040
 2.5210	15.6580
 2.5220	15.5960
 2.5230	15.6770
 2.5250	15.6670
 2.5260	15.6610
 2.5270	15.6350
 2.5280	15.6300
 2.5290	15.5710
 2.5310	15.7380
 2.5320	15.7410
 2.5330	15.6180
 2.5340	15.6250
 2.5360	15.7940
 2.5370	15.8030
 2.5380	15.8080
 2.5390	15.7440
 2.5410	15.7430
 2.5420	15.6590
 2.5430	15.6320
 2.5440	15.6660
 2.5460	15.7870
 2.5470	15.7950
 2.5480	15.7170
 2.5490	15.7130
 2.5510	15.7460
 2.5520	15.7600
 2.5530	15.9520
 2.5540	15.8690
 2.5560	15.8850
 2.5570	15.8520
 2.5580	15.7990
 2.5590	15.7710
 2.5610	15.9810
 2.5620	16.1030
 2.5630	16.0400
 2.5640	16.0490
 2.5660	15.9780
 2.5670	15.7960
 2.5680	15.8920
 2.5700	15.9450
 2.5710	15.9880
 2.5720	15.9150
 2.5730	15.8160
 2.5750	15.8120
 2.5760	16.0460
 2.5770	16.0490
 2.5790	15.9780
 2.5800	15.9460
 2.5810	16.0700
 2.5820	16.0080
 2.5840	16.0490
 2.5850	15.8920
 2.5860	15.9060
 2.5880	15.9290
 2.5890	15.9430
 2.5900	15.8890
 2.5910	15.9150
 2.5930	15.8390
 2.5940	15.9950
 2.5950	16.2420
 2.5970	16.0840
 2.5980	15.8020
 2.5990	15.7430
 2.6000	15.8340
 2.6020	15.9730
 2.6030	15.9260
 2.6040	15.8530
 2.6060	15.7860
 2.6070	15.6520
 2.6080	15.6330
 2.6100	15.7790
 2.6110	15.7420
 2.6120	15.7570
 2.6140	15.7460
 2.6150	15.6760
 2.6160	15.7350
 2.6180	15.8700
 2.6190	15.6940
 2.6200	15.9000
 2.6220	15.8130
 2.6230	15.5540
 2.6240	15.4360
 2.6260	15.6300
 2.6270	15.6590
 2.6280	15.5920
 2.6300	15.6710
 2.6310	15.7210
 2.6320	15.6270
 2.6340	15.6190
 2.6350	15.6270
 2.6360	15.6550
 2.6380	15.5810
 2.6390	15.5410
 2.6400	15.4170
 2.6420	15.4320
 2.6430	15.5520
 2.6440	15.5720
 2.6460	15.5040
 2.6470	15.4930
 2.6480	15.3800
 2.6500	15.3400
 2.6510	15.3670
 2.6520	15.3860
 2.6540	15.2930
 2.6550	15.2680
 2.6560	15.2450
 2.6580	15.3860
 2.6590	15.3980
 2.6610	15.2430
 2.6620	15.1810
 2.6630	15.3390
 2.6650	15.4720
 2.6660	15.4950
 2.6670	15.4270
 2.6690	15.3130
 2.6700	15.4030
 2.6720	15.4710
 2.6730	15.2390
 2.6740	15.2420
 2.6760	15.3650
 2.6770	15.3390
 2.6780	15.1130
 2.6800	15.0860
 2.6810	15.0090
 2.6830	15.0010
 2.6840	14.8870
 2.6850	14.8550
 2.6870	14.9100
 2.6880	14.9070
 2.6900	14.8160
 2.6910	14.8540
 2.6920	14.9840
 2.6940	15.1210
 2.6950	15.0470
 2.6970	14.9840
 2.6980	14.9820
 2.6990	14.9660
 2.7010	14.9710
 2.7020	14.8950
 2.7040	14.7450
 2.7050	14.9130
 2.7060	14.9960
 2.7080	14.9510
 2.7090	14.9090
 2.7110	14.9810
 2.7120	15.0300
 2.7130	14.9310
 2.7150	14.7600
 2.7160	14.8030
 2.7180	14.7540
 2.7190	14.7770
 2.7210	14.9400
 2.7220	15.1040
 2.7230	15.1880
 2.7250	15.1960
 2.7260	14.8220
 2.7280	14.6950
 2.7290	14.8390
 2.7310	14.9770
 2.7320	14.8650
 2.7330	14.9090
 2.7350	15.0170
 2.7360	15.0440
 2.7380	15.0820
 2.7390	15.2420
 2.7410	15.1490
 2.7420	15.0040
 2.7440	15.1340
 2.7450	15.0800
 2.7470	14.7810
 2.7480	14.8240
 2.7490	14.9310
 2.7510	15.1000
 2.7520	15.2650
 2.7540	15.1720
 2.7550	15.0140
 2.7570	15.1020
 2.7580	15.0840
 2.7600	14.9050
 2.7610	14.7300
 2.7630	14.8680
 2.7640	14.9670
 2.7660	15.2110
 2.7670	15.2190
 2.7680	14.9920
 2.7700	15.0490
 2.7710	15.1510
 2.7730	15.0810
 2.7740	15.0360
 2.7760	14.8050
 2.7770	14.7540
 2.7790	14.8070
 2.7800	14.9850
 2.7820	15.1940
 2.7830	15.3180
 2.7850	15.2880
 2.7860	15.2600
 2.7880	15.1940
 2.7890	15.0440
 2.7910	14.7090
 2.7920	14.7700
 2.7940	14.8530
 2.7950	15.0780
 2.7970	15.4060
 2.7980	15.3070
 2.8000	15.0320
 2.8010	15.1240
 2.8030	15.2660
 2.8040	15.2750
 2.8060	15.2440
 2.8070	15.1970
 2.8090	14.9590
 2.8110	15.0230
 2.8120	15.2240
 2.8140	15.2330
 2.8150	15.0570
 2.8170	15.1120
 2.8180	15.2800
 2.8200	15.2590
 2.8210	15.1220
 2.8230	15.2520
 2.8240	15.1960
 2.8260	15.1670
 2.8270	15.3040
 2.8290	15.3820
 2.8300	15.3810
 2.8320	15.3230
 2.8340	15.1300
 2.8350	15.1330
 2.8370	15.1610
 2.8380	15.2010
 2.8400	15.2060
 2.8410	15.1710
 2.8430	15.2040
 2.8440	15.3610
 2.8460	15.2380
 2.8480	15.3110
 2.8490	15.4990
 2.8510	15.3230
 2.8520	15.0460
 2.8540	15.1550
 2.8550	15.2420
 2.8570	15.3500
 2.8590	15.3660
 2.8600	15.3830
 2.8620	15.2890
 2.8630	15.3070
 2.8650	15.3250
 2.8660	15.2350
 2.8680	15.2740
 2.8700	15.3100
 2.8710	15.2300
 2.8730	15.3340
 2.8740	15.3280
 2.8760	15.1650
 2.8780	15.1650
 2.8790	15.3730
 2.8810	15.4710
 2.8820	15.4220
 2.8840	15.3400
 2.8860	15.3960
 2.8870	15.3090
 2.8890	15.2890
 2.8900	15.3080
 2.8920	15.1240
 2.8940	15.2960
 2.8950	15.5990
 2.8970	15.5520
 2.8980	15.4940
 2.9000	15.5030
 2.9020	15.5620
 2.9030	15.4760
 2.9050	15.3760
 2.9070	15.3300
 2.9080	15.3470
 2.9100	15.3110
 2.9120	15.2570
 2.9130	15.0520
 2.9150	15.1450
 2.9160	15.2360
 2.9180	15.3210
 2.9200	15.1880
 2.9210	15.2210
 2.9230	15.3640
 2.9250	15.4510
 2.9260	15.2710
 2.9280	15.1420
 2.9300	15.0470
 2.9310	15.1630
 2.9330	15.2490
 2.9350	15.2070
 2.9360	15.0860
 2.9380	15.2700
 2.9400	15.2890
 2.9410	15.4270
 2.9430	15.6600
 2.9450	15.4490
 2.9460	15.1800
 2.9480	15.1500
 2.9500	15.0930
 2.9510	14.6810
 2.9530	14.5990
 2.9550	15.0840
 2.9560	15.0240
 2.9580	15.0130
 2.9600	15.2340
 2.9610	15.3890
 2.9630	14.5270
 2.9650	14.3950
 2.9660	15.3390
 2.9680	15.5990
 2.9700	15.9010
 2.9720	16.3920
 2.9730	14.8280
 2.9750	13.6140
 2.9770	13.5400
 2.9780	14.4320
 2.9800	15.4210
 2.9820	15.5770
 2.9840	15.4120
 2.9850	15.2670
 2.9870	15.4040
 2.9890	14.9400
 2.9900	14.9930
 2.9920	15.3260
 2.9940	14.8570
 2.9960	16.1880
 2.9970	16.2440
 2.9990	14.2390
 3.0010	14.2690
 3.0030	15.0770
 3.0040	15.3220
 3.0060	15.2830
 3.0080	15.4360
 3.0100	14.4200
 3.0110	14.2750
 3.0130	15.3150
 3.0150	15.7330
 3.0170	15.1900
 3.0180	15.1260
 3.0200	15.4930
 3.0220	14.9580
 3.0240	14.7960
 3.0250	15.0590
 3.0270	15.5630
 3.0290	16.0410
 3.0310	15.9340
 3.0320	15.4190
 3.0340	15.0510
 3.0360	14.5900
 3.0380	13.8710
 3.0400	14.0660
 3.0410	14.8570
 3.0430	15.1460
 3.0450	15.6930
 3.0470	16.1810
 3.0480	16.1220
 3.0500	14.1440
 3.0520	12.8640
 3.0540	14.3230
 3.0560	15.8510
 3.0570	16.0890
 3.0590	16.5290
 3.0610	15.8640
 3.0630	15.0240
 3.0650	14.6910
 3.0660	15.5420
 3.0680	15.4250
 3.0700	14.9870
 3.0720	15.5520
 3.0740	15.5290
 3.0760	14.8890
 3.0770	14.8270
 3.0790	15.1820
 3.0810	15.3880
 3.0830	15.3870
 3.0850	15.3350
 3.0870	15.2260
 3.0880	15.0460
 3.0900	14.9030
 3.0920	14.9390
 3.0940	15.0030
 3.0960	15.1530
 3.0980	15.3550
 3.0990	15.2690
 3.1010	15.1050
 3.1030	15.0960
 3.1050	15.2800
 3.1070	15.4170
 3.1090	15.1910
 3.1110	14.9540
 3.1120	15.0410
 3.1140	15.1670
 3.1160	15.1810
 3.1180	15.1290
 3.1200	14.9950
 3.1220	15.1800
 3.1240	15.1570
 3.1260	15.2200
 3.1270	15.2790
 3.1290	15.3610
 3.1310	15.0560
 3.1330	15.1670
 3.1350	15.5050
 3.1370	15.3900
 3.1390	15.4040
 3.1410	15.6810
 3.1430	16.4250
 3.1450	15.5260
 3.1460	14.7290
 3.1480	15.4280
 3.1500	15.3210
 3.1520	14.1610
 3.1540	14.0940
 3.1560	15.0110
 3.1580	15.6020
 3.1600	15.1520
 3.1620	14.3980
 3.1640	14.1100
 3.1660	14.5860
 3.1680	13.9350
 3.1700	13.5840
 3.1710	14.3690
 3.1730	16.3440
 3.1750	18.2120
 3.1770	16.8070
 3.1790	15.4670
 3.1810	15.2780
 3.1830	15.5810
 3.1850	14.8820
 3.1870	14.8000
 3.1890	15.0330
 3.1910	15.1810
 3.1930	14.9960
 3.1950	15.1340
 3.1970	15.0280
 3.1990	14.7730
 3.2010	14.7510
 3.2030	14.9310
 3.2050	15.0370
 3.2070	15.1180
 3.2090	14.9860
 3.2110	15.1280
 3.2130	15.1140
 3.2150	15.0570
 3.2170	15.0780
 3.2190	15.1740
 3.2210	15.0610
 3.2230	14.9830
 3.2250	15.0110
 3.2270	15.1090
 3.2290	15.1220
 3.2310	15.0730
 3.2330	14.8110
 3.2350	14.4860
 3.2370	14.4920
 3.2390	14.7570
 3.2410	14.7250
 3.2430	14.6650
 3.2450	14.3840
 3.2470	14.5840
 3.2490	14.8150
 3.2510	14.9310
 3.2530	14.9360
 3.2550	14.9950
 3.2570	15.0440
 3.2590	15.0580
 3.2610	15.0310
 3.2630	15.0450
 3.2650	14.8980
 3.2670	14.9440
 3.2690	14.9430
 3.2720	14.7790
 3.2740	14.7730
 3.2760	14.8940
 3.2780	14.9140
 3.2800	15.0020
 3.2820	14.9500
 3.2840	14.9550
 3.2860	14.9890
 3.2880	14.9120
 3.2900	14.8780
 3.2920	14.9210
 3.2940	14.9710
 3.2960	14.9210
 3.2990	14.8880
 3.3010	14.8960
 3.3030	14.8650
 3.3050	14.8740
 3.3070	14.9300
 3.3090	14.9940
 3.3110	14.8130
 3.3130	14.9250
 3.3150	15.0520
 3.3180	14.9740
 3.3200	14.7290
 3.3220	14.8670
 3.3240	15.0230
 3.3260	15.0310
 3.3280	14.8380
 3.3300	14.7980
 3.3330	14.8330
 3.3350	14.7990
 3.3370	14.6910
 3.3390	14.7220
 3.3410	14.6660
 3.3430	14.6590
 3.3450	14.6920
 3.3480	14.6650
 3.3500	14.5930
 3.3520	14.6300
 3.3540	14.6770
 3.3560	14.6130
 3.3580	14.6140
 3.3610	14.6990
 3.3630	14.6070
 3.3650	14.7070
 3.3670	14.8300
 3.3690	14.7890
 3.3720	14.5950
 3.3740	14.4820
 3.3760	14.4420
 3.3780	14.5160
 3.3800	14.4310
 3.3830	14.5080
 3.3850	14.6760
 3.3870	14.7880
 3.3890	14.7530
 3.3910	14.5830
 3.3940	14.5950
 3.3960	14.8660
 3.3980	14.7730
 3.4000	14.5820
 3.4020	14.4080
 3.4050	14.4920
 3.4070	14.4250
 3.4090	14.3900
 3.4110	14.5130
 3.4140	14.6510
 3.4160	14.7470
 3.4180	14.9270
 3.4200	15.1360
 3.4230	15.4020
 3.4250	15.5680
 3.4270	15.8840
 3.4290	16.1150
 3.4320	16.1260
 3.4340	16.1370
 3.4360	16.2100
 3.4390	16.0560
 3.4410	15.8050
 3.4430	15.4400
 3.4450	15.3540
 3.4480	15.3160
 3.4500	15.3990
 3.4520	15.3740
 3.4550	15.4130
 3.4570	15.3640
 3.4590	15.3760
 3.4620	15.4730
 3.4640	15.4710
 3.4660	15.2960
 3.4680	15.1440
 3.4710	15.0480
 3.4730	15.1680
 3.4750	15.1990
 3.4780	15.1100
 3.4800	15.1280
 3.4820	15.0500
 3.4850	15.0210
 3.4870	15.0660
 3.4890	15.0150
 3.4920	14.9670
 3.4940	14.8160
 3.4970	14.7430
 3.4990	14.7410
 3.5010	14.8290
 3.5040	14.9450
 3.5060	15.2030
 3.5080	15.7100
 3.5110	16.3020
 3.5130	16.3980
 3.5160	16.2580
 3.5180	15.9570
 3.5200	15.6780
 3.5230	15.5910
 3.5250	15.6980
 3.5270	15.6450
 3.5300	15.5290
 3.5320	15.4950
 3.5350	15.5340
 3.5370	15.4000
 3.5400	15.3390
 3.5420	15.3450
 3.5440	15.5320
 3.5470	15.5570
 3.5490	15.4760
 3.5520	15.4220
 3.5540	15.4660
 3.5570	15.3740
 3.5590	15.2710
 3.5610	15.2950
 3.5640	15.3720
 3.5660	15.2940
 3.5690	15.2710
 3.5710	15.2840
 3.5740	15.3430
 3.5760	15.3210
 3.5790	15.2560
 3.5810	15.2580
 3.5840	15.3290
 3.5860	15.1950
 3.5890	15.1910
 3.5910	15.2410
 3.5930	15.3790
 3.5960	15.3760
 3.5980	15.2400
 3.6010	15.2020
 3.6030	15.2390
 3.6060	15.1770
 3.6080	15.2220
 3.6110	15.3310
 3.6140	15.2750
 3.6160	15.2780
 3.6190	15.3950
 3.6210	15.2720
 3.6240	15.1890
 3.6260	15.2300
 3.6290	15.2180
 3.6310	15.1390
 3.6340	15.2070
 3.6360	15.1920
 3.6390	15.2670
 3.6410	15.2960
 3.6440	15.2670
 3.6470	15.2430
 3.6490	15.2780
 3.6520	15.2000
 3.6540	15.1780
 3.6570	15.2370
 3.6590	15.2940
 3.6620	15.2270
 3.6650	15.3070
 3.6670	15.3000
 3.6700	15.2420
 3.6720	15.2150
 3.6750	15.2480
 3.6780	15.1590
 3.6800	15.2060
 3.6830	15.2610
 3.6850	15.2880
 3.6880	15.2560
 3.6910	15.2160
 3.6930	15.1740
 3.6960	15.2970
 3.6990	15.3540
 3.7010	15.3290
 3.7040	15.2350
 3.7060	15.2910
 3.7090	15.3830
 3.7120	15.3700
 3.7140	15.3000
 3.7170	15.2910
 3.7200	15.2650
 3.7220	15.2640
 3.7250	15.1970
 3.7280	15.2810
 3.7300	15.3800
 3.7330	15.3450
 3.7360	15.2470
 3.7390	15.3180
 3.7410	15.3960
 3.7440	15.3150
 3.7470	15.1920
 3.7490	15.2360
 3.7520	15.2810
 3.7550	15.2350
 3.7580	15.2490
 3.7600	15.2090
 3.7630	15.2300
 3.7660	15.3440
 3.7680	15.3230
 3.7710	15.2480
 3.7740	15.2990
 3.7770	15.4120
 3.7790	15.4090
 3.7820	15.3390
 3.7850	15.2240
 3.7880	15.3200
 3.7900	15.3930
 3.7930	15.4160
 3.7960	15.4570
 3.7990	15.4300
 3.8020	15.3480
 3.8040	15.3650
 3.8070	15.3590
 3.8100	15.3500
 3.8130	15.2840
 3.8160	15.3880
 3.8180	15.4500
 3.8210	15.4320
 3.8240	15.3740
 3.8270	15.3590
 3.8300	15.5080
 3.8330	15.6170
 3.8350	15.5820
 3.8380	15.6070
 3.8410	15.4500
 3.8440	15.2980
 3.8470	15.3550
 3.8500	15.4220
 3.8520	15.4990
 3.8550	15.4990
 3.8580	15.4700
 3.8610	15.6000
 3.8640	15.5230
 3.8670	15.4070
 3.8700	15.4270
 3.8730	15.4520
 3.8750	15.4270
 3.8780	15.4240
 3.8810	15.3490
 3.8840	15.3660
 3.8870	15.3860
 3.8900	15.4870
 3.8930	15.5000
 3.8960	15.5120
 3.8990	15.5010
 3.9020	15.5730
 3.9050	15.5700
 3.9080	15.5530
 3.9110	15.5590
 3.9140	15.5000
 3.9160	15.4250
 3.9190	15.4830
 3.9220	15.5240
 3.9250	15.5340
 3.9280	15.5060
 3.9310	15.4520
 3.9340	15.4570
 3.9370	15.4690
 3.9400	15.4320
 3.9430	15.4650
 3.9460	15.3950
 3.9490	15.3100
 3.9520	15.4570
 3.9550	15.6460
 3.9580	15.6650
 3.9610	15.5620
 3.9640	15.4340
 3.9670	15.4550
 3.9700	15.4970
 3.9730	15.5250
 3.9770	15.5040
 3.9800	15.5920
 3.9830	15.6040
 3.9860	15.5790
 3.9890	15.5280
 3.9920	15.5190
 3.9950	15.3980
 3.9980	15.4610
 4.0010	15.6170
 4.0040	15.6720
 4.0070	15.6360
 4.0100	15.5330
 4.0130	15.4730
 4.0170	15.5450
 4.0200	15.5580
 4.0230	15.5220
 4.0260	15.4990
 4.0290	15.5630
 4.0320	15.6130
 4.0350	15.6540
 4.0380	15.6090
 4.0420	15.5280
 4.0450	15.4480
 4.0480	15.4990
 4.0510	15.5180
 4.0540	15.4640
 4.0570	15.5710
 4.0610	15.6980
 4.0640	15.5940
 4.0670	15.4910
 4.0700	15.4150
 4.0730	15.4130
 4.0770	15.6290
 4.0800	15.7040
 4.0830	15.6310
 4.0860	15.7160
 4.0890	15.6920
 4.0930	15.5940
 4.0960	15.5790
 4.0990	15.5430
 4.1020	15.5570
 4.1060	15.5630
 4.1090	15.5650
 4.1120	15.5410
 4.1150	15.4540
 4.1190	15.6230
 4.1220	15.6780
 4.1250	15.6190
 4.1280	15.6000
 4.1320	15.6450
 4.1350	15.6930
 4.1380	15.7380
 4.1420	15.7490
 4.1450	15.7030
 4.1480	15.6140
 4.1520	15.6590
 4.1550	15.6500
 4.1580	15.6270
 4.1620	15.6940
 4.1650	15.7810
 4.1680	15.7230
 4.1720	15.6650
 4.1750	15.7210
 4.1780	15.7580
 4.1820	15.6900
 4.1850	15.6460
 4.1890	15.6570
 4.1920	15.6910
 4.1950	15.6870
 4.1990	15.7090
 4.2020	15.6720
 4.2060	15.5200
 4.2090	15.3340
 4.2120	15.2580
 4.2160	15.2350
 4.2190	15.2340
 4.2230	15.0030
 4.2260	14.7980
 4.2300	14.7220
 4.2330	14.9060
 4.2360	15.0680
 4.2400	15.0650
 4.2430	14.9490
 4.2470	14.8950
 4.2500	14.8970
 4.2540	15.0800
 4.2570	15.3840
 4.2610	15.4540
 4.2640	15.1210
 4.2680	15.0430
 4.2710	14.8900
 4.2750	14.8480
 4.2780	14.9670
 4.2820	14.9880
 4.2850	15.0350
 4.2890	15.1030
 4.2930	15.0210
 4.2960	14.9850
 4.3000	15.0930
 4.3030	15.1570
 4.3070	15.2550
 4.3100	15.3910
 4.3140	15.3010
 4.3180	15.3420
 4.3210	15.3880
 4.3250	15.5150
 4.3280	15.6640
 4.3320	15.6810
 4.3360	15.6630
 4.3390	15.6930
 4.3430	15.7040
 4.3470	15.7300
 4.3500	15.7760
 4.3540	15.8290
 4.3570	15.8710
 4.3610	15.9190
 4.3650	15.9640
 4.3680	15.9150
 4.3720	15.8080
 4.3760	15.8510
 4.3800	15.9370
 4.3830	16.0090
 4.3870	15.9290
 4.3910	15.8940
 4.3940	15.8930
 4.3980	15.8330
 4.4020	15.8500
 4.4060	15.8590
 4.4090	15.8420
 4.4130	15.9330
 4.4170	15.9270
 4.4210	15.8630
 4.4240	15.8490
 4.4280	15.9330
 4.4320	15.9970
 4.4360	15.9770
 4.4400	15.8840
 4.4430	15.8440
 4.4470	15.9120
 4.4510	15.9440
 4.4550	15.9290
 4.4590	15.9630
 4.4620	15.8860
 4.4660	15.8780
 4.4700	15.9350
 4.4740	15.9090
 4.4780	15.8890
 4.4820	15.9510
 4.4860	15.9130
 4.4900	15.9310
 4.4930	15.9270
 4.4970	15.8620
 4.5010	15.8450
 4.5050	15.9630
 4.5090	16.0080
 4.5130	15.9740
 4.5170	15.9470
 4.5210	15.9060
 4.5250	15.9440
 4.5290	15.9830
 4.5330	15.9310
 4.5370	15.9570
 4.5410	16.0240
 4.5450	15.9790
 4.5490	15.9530
 4.5530	15.8750
 4.5570	15.8820
 4.5610	15.9860
 4.5650	15.8790
 4.5690	15.8490
 4.5730	15.8600
 4.5770	15.8700
 4.5810	15.8900
 4.5850	15.9150
 4.5890	15.9300
 4.5930	15.9470
 4.5970	15.8780
 4.6010	15.8460
 4.6050	15.8510
 4.6090	15.9040
 4.6130	16.1050
 4.6170	16.0510
 4.6220	15.9270
 4.6260	15.8650
 4.6300	15.8730
 4.6340	16.0310
 4.6380	16.1020
 4.6420	15.9830
 4.6460	15.9200
 4.6510	15.9560
 4.6550	15.9450
 4.6590	15.8990
 4.6630	15.8830
 4.6670	15.8880
 4.6720	15.8350
 4.6760	15.8450
 4.6800	15.8530
 4.6840	15.8760
 4.6880	15.9510
 4.6930	15.9600
 4.6970	15.9750
 4.7010	15.9800
 4.7050	15.9220
 4.7100	15.9460
 4.7140	15.9580
 4.7180	15.9200
 4.7230	15.9630
 4.7270	16.0320
 4.7310	15.9890
 4.7360	15.9410
 4.7400	15.9090
 4.7440	15.9310
 4.7490	15.9680
 4.7530	15.9860
 4.7570	15.9960
 4.7620	16.0310
 4.7660	16.0610
 4.7700	16.0260
 4.7750	15.9660
 4.7790	15.9180
 4.7840	15.9380
 4.7880	16.1890
 4.7920	16.3410
 4.7970	16.2070
 4.8010	16.1150
 4.8060	16.1510
 4.8100	16.1520
 4.8150	16.0560
 4.8190	16.0590
 4.8240	16.1480
 4.8280	16.1490
 4.8330	16.0770
 4.8370	16.0280
 4.8420	16.0260
 4.8460	16.0380
 4.8510	16.0760
 4.8550	16.1810
 4.8600	16.1730
 4.8640	16.1180
 4.8690	16.1330
 4.8730	16.1100
 4.8780	16.0600
 4.8830	16.1170
 4.8870	16.1720
 4.8920	16.1340
 4.8960	16.1330
 4.9010	16.1490
 4.9060	16.1090
 4.9100	16.1380
 4.9150	16.2710
 4.9200	16.3250
 4.9240	16.3050
 4.9290	16.2990
 4.9340	16.2650
 4.9380	16.2170
 4.9430	16.2000
 4.9480	16.2170
 4.9530	16.2300
 4.9570	16.2870
 4.9620	16.2280
 4.9670	16.1560
 4.9720	16.2360
 4.9760	16.3020
 4.9810	16.2570
 4.9860	16.2160
 4.9910	16.2510
 4.9960	16.3160
 5.0000	16.2630
 5.0050	16.2250
 5.0100	16.2560
 5.0150	16.2300
 5.0200	16.2420
 5.0250	16.3050
 5.0290	16.2640
 5.0340	16.2820
 5.0390	16.3420
 5.0440	16.3430
 5.0490	16.3400
 5.0540	16.3680
 5.0590	16.3970
 5.0640	16.4170
 5.0690	16.3870
 5.0740	16.3730
 5.0790	16.4260
 5.0840	16.3980
 5.0890	16.3750
 5.0940	16.4010
 5.0990	16.3530
 5.1040	16.3300
 5.1090	16.3810
 5.1140	16.5020
 5.1190	16.5520
 5.1240	16.4220
 5.1290	16.3200
 5.1340	16.3410
 5.1390	16.3880
 5.1440	16.4360
 5.1490	16.4140
 5.1540	16.4500
 5.1600	16.4570
 5.1650	16.4640
 5.1700	16.4010
 5.1750	16.3490
 5.1800	16.3670
 5.1850	16.4300
 5.1910	16.4700
 5.1960	16.4900
 5.2010	16.4400
 5.2060	16.3280
 5.2110	16.3500
 5.2170	16.4480
 5.2220	16.4340
 5.2270	16.3880
 5.2320	16.3390
 5.2380	16.4140
 5.2430	16.4270
 5.2480	16.3700
 5.2540	16.3520
 5.2590	16.3970
 5.2640	16.3510
 5.2700	16.3240
 5.2750	16.3550
 5.2800	16.4160
 5.2860	16.4150
 5.2910	16.4660
 5.2970	16.4690
 5.3020	16.4580
 5.3070	16.5030
 5.3130	16.4570
 5.3180	16.2600
 5.3240	16.2700
 5.3290	16.3340
 5.3350	16.3300
 5.3400	16.3110
 5.3460	16.3480
 5.3510	16.4080
 5.3570	16.4500
 5.3620	16.5080
 5.3680	16.4350
 5.3730	16.3130
 5.3790	16.3730
 5.3850	16.4400
 5.3900	16.3860
 5.3960	16.3480
 5.4010	16.4420
 5.4070	16.4740
 5.4130	16.4700
 5.4180	16.5230
 5.4240	16.4870
 5.4300	16.3290
 5.4350	16.3340
 5.4410	16.3160
 5.4470	16.3640
 5.4530	16.3800
 5.4580	16.4380
 5.4640	16.5130
 5.4700	16.4830
 5.4760	16.4550
 5.4810	16.4800
 5.4870	16.4380
 5.4930	16.4010
 5.4990	16.3430
 5.5050	16.3140
 5.5110	16.2960
 5.5160	16.3650
 5.5220	16.4230
 5.5280	16.4220
 5.5340	16.3070
 5.5400	16.2590
 5.5460	16.3470
 5.5520	16.4150
 5.5580	16.3330
 5.5640	16.3890
 5.5700	16.4390
 5.5760	16.5030
 5.5820	16.4690
 5.5880	16.3560
 5.5940	16.3020
 5.6000	16.3570
 5.6060	16.3950
 5.6120	16.3340
 5.6180	16.2400
 5.6240	16.2350
 5.6300	16.2300
 5.6360	16.3580
 5.6420	16.4770
 5.6490	16.3670
 5.6550	16.2450
 5.6610	16.1880
 5.6670	16.1520
 5.6730	16.2670
 5.6800	16.2280
 5.6860	16.1080
 5.6920	16.0480
 5.6980	15.9780
 5.7040	16.0040
 5.7110	16.1050
 5.7170	15.9780
 5.7230	15.8710
 5.7300	15.8390
 5.7360	15.8700
 5.7420	15.8970
 5.7490	16.1580
 5.7550	16.4640
 5.7620	16.8590
 5.7680	17.2260
 5.7740	17.2170
 5.7810	17.0620
 5.7870	16.9820
 5.7940	16.8310
 5.8000	16.8740
 5.8070	16.8420
 5.8130	16.8650
 5.8200	16.9070
 5.8260	16.8760
 5.8330	16.7990
 5.8390	16.7830
 5.8460	16.7340
 5.8530	16.8500
 5.8590	16.9030
 5.8660	16.9560
 5.8720	16.9820
 5.8790	17.1460
 5.8860	17.0620
 5.8920	17.1860
 5.8990	17.2400
 5.9060	17.0840
 5.9130	17.1080
 5.9190	17.1870
 5.9260	17.1060
 5.9330	17.2380
 5.9400	17.3790
 5.9470	17.2910
 5.9530	17.1140
 5.9600	17.1630
 5.9670	17.2770
 5.9740	17.2900
 5.9810	17.2760
 5.9880	17.4220
 5.9950	17.3750
 6.0020	17.2530
 6.0090	17.1950
 6.0160	17.2210
 6.0230	17.1580
 6.0300	17.1240
 6.0370	17.1130
 6.0440	17.4110
 6.0510	17.6260
 6.0580	17.4310
 6.0650	17.3990
 6.0720	17.4620
 6.0790	17.3400
 6.0860	17.3100
 6.0930	17.2530
 6.1000	17.2240
 6.1080	17.4630
 6.1150	17.8050
 6.1220	17.7070
 6.1290	17.6930
 6.1370	17.7460
 6.1440	17.7900
 6.1510	17.7300
 6.1580	17.8650
 6.1660	17.9690
 6.1730	18.0190
 6.1800	18.1340
 6.1880	18.3100
 6.1950	18.1700
 6.2030	18.0220
 6.2100	17.8940
 6.2170	17.9780
 6.2250	18.0700
 6.2320	18.0390
 6.2400	17.8390
 6.2470	17.6890
 6.2550	17.6470
 6.2630	17.7450
 6.2700	17.6440
 6.2780	17.5780
 6.2850	17.5330
 6.2930	17.5040
 6.3010	17.3430
 6.3080	17.2110
 6.3160	17.2590
 6.3240	17.3500
 6.3310	17.3070
 6.3390	17.4610
 6.3470	17.5540
 6.3550	17.5050
 6.3620	17.3640
 6.3700	17.3730
 6.3780	17.3680
 6.3860	17.3450
 6.3940	17.1720
 6.4020	17.2140
 6.4100	17.4380
 6.4180	17.5600
 6.4260	17.3310
 6.4330	17.2150
 6.4410	17.1340
 6.4490	17.2380
 6.4580	17.1670
 6.4660	17.1350
 6.4740	17.1570
 6.4820	17.2500
 6.4900	17.2910
 6.4980	17.2880
 6.5060	17.1050
 6.5140	17.1310
 6.5230	17.1160
 6.5310	16.9970
 6.5390	16.8370
 6.5470	16.8860
 6.5550	16.9620
 6.5640	17.0020
 6.5720	16.9600
 6.5800	16.9590
 6.5890	16.9440
 6.5970	16.9460
 6.6060	16.8630
 6.6140	16.8870
 6.6220	16.8870
 6.6310	17.0730
 6.6390	17.1200
 6.6480	16.9500
 6.6560	16.8300
 6.6650	16.8420
 6.6740	16.7700
 6.6820	16.7830
 6.6910	16.5690
 6.6990	16.4980
 6.7080	16.6300
 6.7170	16.7700
 6.7260	16.6890
 6.7340	16.6930
 6.7430	16.6520
 6.7520	16.6920
 6.7610	16.6940
 6.7690	16.7200
 6.7780	16.7330
 6.7870	16.9860
 6.7960	16.9870
 6.8050	16.7940
 6.8140	16.6850
 6.8230	16.8800
 6.8320	16.9830
 6.8410	17.0980
 6.8500	17.1240
 6.8590	17.2900
 6.8680	17.2250
 6.8770	17.0390
 6.8860	16.9090
 6.8950	16.9430
 6.9050	16.9710
 6.9140	16.9760
 6.9230	16.9600
 6.9320	16.9830
 6.9420	16.9010
 6.9510	17.0320
 6.9600	17.2080
 6.9700	17.2170
 6.9790	17.0100
 6.9880	16.9510
 6.9980	16.8940
 7.0070	16.8770
 7.0170	16.8870
 7.0260	16.9770
 7.0360	17.0080
 7.0450	17.1800
 7.0550	17.1920
 7.0650	17.2640
 7.0740	17.2240
 7.0840	17.2310
 7.0940	17.1260
 7.1030	17.0590
 7.1130	16.9990
 7.1230	17.1110
 7.1330	17.1210
 7.1420	17.1600
 7.1520	17.0340
 7.1620	16.9620
 7.1720	16.9510
 7.1820	17.0580
 7.1920	16.9830
 7.2020	17.0660
 7.2120	16.9110
 7.2220	16.8820
 7.2320	16.9010
 7.2420	16.9460
 7.2520	16.9340
 7.2620	16.9240
 7.2730	16.8360
 7.2830	16.8740
 7.2930	16.7780
 7.3030	16.8960
 7.3140	16.7540
 7.3240	16.7380
 7.3340	16.7940
 7.3450	16.8720
 7.3550	16.7830
 7.3660	16.8530
 7.3760	16.9340
 7.3870	16.9530
 7.3970	16.7990
 7.4080	16.7490
 7.4180	16.6470
 7.4290	16.5980
 7.4400	16.6770
 7.4500	16.9150
 7.4610	16.9000
 7.4720	16.8490
 7.4830	16.7900
 7.4930	16.8580
 7.5040	16.9200
 7.5150	17.0580
 7.5260	17.0400
 7.5370	16.9770
 7.5480	17.0030
 7.5590	17.0520
 7.5700	16.9030
 7.5810	16.9970
 7.5920	17.0090
 7.6030	17.0160
 7.6140	16.9320
 7.6260	16.8730
 7.6370	16.6700
 7.6480	16.6870
 7.6590	16.6120
 7.6710	16.6310
 7.6820	16.6590
 7.6930	16.7640
 7.7050	16.6750
 7.7160	16.7030
 7.7280	16.6820
 7.7390	16.6960
 7.7510	16.6610
 7.7630	16.6960
 7.7740	16.6130
 7.7860	16.5570
 7.7980	16.3980
 7.8090	16.5320
 7.8210	16.4450
 7.8330	16.4870
 7.8450	16.3910
 7.8570	16.4590
 7.8690	16.5190
 7.8810	16.5760
 7.8930	16.5160
 7.9050	16.4630
 7.9170	16.3510
 7.9290	16.4940
 7.9410	16.5100
 7.9530	16.4960
 7.9650	16.2660
 7.9780	16.3090
 7.9900	16.2380
 8.0020	16.2920
 8.0150	16.2830
 8.0270	16.3540
 8.0390	16.2950
 8.0520	16.3120
 8.0640	16.1950
 8.0770	16.2620
 8.0900	16.2120
 8.1020	16.3270
 8.1150	16.3330
 8.1280	16.3030
 8.1400	16.2090
 8.1530	16.2700
 8.1660	16.1720
 8.1790	16.3370
 8.1920	16.3520
 8.2050	16.3670
 8.2180	16.2600
 8.2310	16.3740
 8.2440	16.2180
 8.2570	16.4050
 8.2700	16.3410
 8.2830	16.3140
 8.2970	16.3860
 8.3100	16.4670
 8.3230	16.2340
 8.3370	16.2590
 8.3500	16.3390
 8.3640	16.4470
 8.3770	16.2880
 8.3910	16.4010
 8.4040	16.3050
 8.4180	16.4290
 8.4320	16.4280
 8.4450	16.4610
 8.4590	16.3320
 8.4730	16.4630
 8.4870	16.5530
 8.5010	16.7260
 8.5150	16.6310
 8.5290	16.8170
 8.5430	16.8260
 8.5570	16.7610
 8.5710	16.7200
 8.5850	16.9230
 8.5990	16.7760
 8.6140	16.8420
 8.6280	16.8770
 8.6420	16.9560
 8.6570	16.7700
 8.6710	16.9250
 8.6860	16.9050
 8.7000	16.9800
 8.7150	16.8730
 8.7300	16.8520
 8.7440	16.7630
 8.7590	16.9720
 8.7740	17.0650
 8.7890	17.0430
 8.8040	16.9630
 8.8190	17.0900
 8.8340	16.9160
 8.8490	16.9320
 8.8640	16.8080
 8.8790	16.8250
 8.8940	16.6550
 8.9100	16.8280
 8.9250	16.7410
 8.9400	16.8690
 8.9560	16.8930
 8.9710	16.9700
 8.9870	16.8060
 9.0020	16.9550
 9.0180	16.9030
 9.0340	16.7470
 9.0500	16.5600
 9.0650	16.8020
 9.0810	16.8230
 9.0970	16.8100
 9.1130	16.5760
 9.1290	16.6480
 9.1450	16.6080
 9.1610	16.6780
 9.1780	16.5170
 9.1940	16.7270
 9.2100	16.6790
 9.2270	16.6420
 9.2430	16.5410
 9.2600	16.7910
 9.2760	16.8230
 9.2930	16.7020
 9.3090	16.5750
 9.3260	16.9030
 9.3430	16.8310
 9.3600	16.9000
 9.3770	16.7070
 9.3940	16.8040
 9.4110	16.6900
 9.4280	16.6410
 9.4450	16.6460
 9.4620	16.8970
 9.4800	16.8800
 9.4970	17.0290
 9.5140	16.9240
 9.5320	17.0050
 9.5500	16.8110
 9.5670	16.7930
 9.5850	16.7740
 9.6030	17.0420
 9.6200	16.9680
 9.6380	17.0360
 9.6560	16.9670
 9.6740	17.1390
 9.6920	16.8450
 9.7100	16.8820
 9.7290	16.8180
 9.7470	16.8700
 9.7650	16.8140
 9.7840	16.9470
 9.8020	16.5710
 9.8210	16.6960
 9.8390	16.7790
 9.8580	16.8490
 9.8770	16.7850
 9.8960	16.8030
 9.9150	16.5880
 9.9340	16.7770
 9.9530	16.9020
 9.9720	17.1070
 9.9910	16.9040
10.0100	16.8850
10.0300	16.8870
10.0490	17.0620
10.0690	17.0260
10.0880	17.1090
10.1080	16.9670
10.1280	16.9950
10.1480	16.8670
10.1670	16.9390
10.1870	16.9160
10.2070	17.0540
10.2280	16.8160
10.2480	16.8110
10.2680	16.8070
10.2890	16.9460
10.3090	16.7960
10.3300	16.9230
10.3500	16.7060
10.3710	16.7900
10.3920	16.7290
10.4120	16.8010
10.4330	16.6690
10.4540	16.7520
10.4760	16.7980
10.4970	16.9770
10.5180	16.8670
10.5390	17.1090
10.5610	16.9850
10.5820	17.0080
10.6040	16.8590
10.6260	16.9860
10.6480	16.9510
10.6700	17.1260
10.6920	16.9300
10.7140	16.9150
10.7360	16.6480
10.7580	16.8120
10.7800	16.9040
10.8030	16.9730
10.8250	16.8460
10.8480	17.0650
10.8710	16.9420
10.8940	16.8440
10.9170	16.7040
10.9400	16.8490
10.9630	16.6980
10.9860	16.7230
11.0090	16.6790
11.0330	16.9040
11.0560	16.7330
11.0800	16.8030
11.1040	16.7810
11.1270	16.9880
11.1510	16.8450
11.1750	16.8970
11.2000	16.6720
11.2240	16.6850
11.2480	16.5030
11.2730	16.7320
11.2970	16.7780
11.3220	16.8690
11.3470	16.6010
11.3720	16.7850
11.3970	16.6990
11.4220	16.7920
11.4470	16.4310
11.4720	16.2960
11.4980	16.3990
11.5230	16.7010
11.5490	16.4640
11.5750	16.6040
11.6000	16.4060
11.6260	16.4290
11.6530	16.4080
11.6790	16.7670
11.7050	16.6470
11.7320	16.5730
11.7580	16.2740
11.7850	16.4950
11.8120	16.3550
11.8390	16.4780
11.8660	16.3580
11.8930	16.5260
11.9200	16.3290
11.9480	16.3120
11.9760	16.1760
12.0030	16.3640
12.0310	16.1140
12.0590	16.3260
12.0870	16.4330
12.1150	16.6800
12.1440	16.5500
12.1720	16.6100
12.2010	16.3840
12.2300	16.3430
12.2590	16.0090
12.2880	16.3950
12.3170	16.2220
12.3460	16.4160
12.3760	16.3300
12.4050	16.5650
12.4350	16.6080
12.4650	16.7580
12.4950	16.3480
12.5250	16.5530
12.5550	16.4580
12.5860	16.6580
12.6170	16.3090
12.6470	16.4170
12.6780	16.3070
12.7090	16.6720
12.7410	16.3940
12.7720	16.5810
12.8030	16.6000
12.8350	16.6150
12.8670	16.2010
12.8990	16.2340
12.9310	16.0170
12.9640	16.2540
12.9960	16.0590
13.0290	16.3400
13.0610	16.2520
13.0940	16.4590
13.1280	16.3430
13.1610	16.4340
13.1940	15.9670
13.2280	16.2140
13.2620	16.1330
13.2960	16.4340
13.3300	16.1720
13.3640	16.1590
13.3990	15.7160
13.4340	15.9990
13.4690	15.9310
13.5040	16.1480
13.5390	15.7880
13.5740	16.1210
13.6100	15.9590
13.6460	16.0570
13.6820	15.9120
13.7180	16.3980
13.7540	15.8320
13.7910	16.0550
13.8280	16.1790
13.8650	16.5990
13.9020	16.4310
13.9390	16.5680
13.9770	16.3060
14.0150	16.4840
14.0530	16.0050
14.0910	16.5570
14.1290	16.3530
14.1680	16.6520
14.2070	16.2080
14.2460	16.4400
14.2850	16.4910
14.3240	16.8580
14.3640	16.1760
14.4040	16.1680
14.4440	15.6560
14.4840	16.0400
14.5250	15.7490
14.5660	16.3580
14.6070	15.8950
14.6480	15.7850
14.6900	15.5980
14.7310	15.9080
14.7730	15.2070
14.8150	15.9980
14.8580	15.6300
14.9010	15.5640
14.9440	13.0510
14.9870	14.5200
15.0300	15.8320
15.0740	16.2490
15.1180	15.4440
15.1620	15.7680
15.2060	15.2410
15.2510	15.5830
15.2960	15.3800
15.3410	16.4920
15.3870	16.2080
