Name: Eucalyptus ficifolia
Type: vegetation
Class: Tree
Genus: Eucalyptus
Species: ficifolia
Sample No.: JPL157
Owner: JPL
Wavelength Range: VSWIR
Origin: 34.12506; -118.11349; WGS84
Collection Date: 9/14/2016
Description: Samples were collected at the Huntington Garden in San Marino California as part of a JPL Subcontract studying HyTES imagery. Samples were taken to JPL and processed within 48 hours of collection. The same leaves were processed in the Nicolet and then measured using the ASD.
Measurement: Bidirectional reflectance
First Column: X
Second Column: Y
X Units: Wavelength (micrometer)
Y Units: Reflectance (percentage)
First X Value: 0.35
Last X Value: 2.5
Number of X Values: 2151
Additional Information: vegetation.tree.eucalyptus.ficifolia.vswir.jpl157.jpl.asd.ancillary.txt

 0.3500	 5.1790
 0.3510	 5.0410
 0.3520	 5.0120
 0.3530	 5.0750
 0.3540	 5.1460
 0.3550	 5.1050
 0.3560	 5.0610
 0.3570	 5.0510
 0.3580	 5.0620
 0.3590	 5.0480
 0.3600	 5.0460
 0.3610	 5.0600
 0.3620	 5.0260
 0.3630	 5.0070
 0.3640	 4.9930
 0.3650	 4.9620
 0.3660	 4.9100
 0.3670	 4.9290
 0.3680	 4.9830
 0.3690	 4.9610
 0.3700	 4.9420
 0.3710	 4.9510
 0.3720	 4.9870
 0.3730	 5.0170
 0.3740	 4.9880
 0.3750	 4.9400
 0.3760	 4.9290
 0.3770	 4.8960
 0.3780	 4.9190
 0.3790	 4.9720
 0.3800	 4.9540
 0.3810	 4.9530
 0.3820	 4.9750
 0.3830	 4.9970
 0.3840	 4.9550
 0.3850	 4.9140
 0.3860	 4.9090
 0.3870	 4.9470
 0.3880	 4.9370
 0.3890	 4.9210
 0.3900	 4.9210
 0.3910	 4.9200
 0.3920	 4.9350
 0.3930	 4.9440
 0.3940	 4.9340
 0.3950	 4.9320
 0.3960	 4.9250
 0.3970	 4.9240
 0.3980	 4.9420
 0.3990	 4.9580
 0.4000	 4.9490
 0.4010	 4.9240
 0.4020	 4.9330
 0.4030	 4.9440
 0.4040	 4.9470
 0.4050	 4.9400
 0.4060	 4.9330
 0.4070	 4.9310
 0.4080	 4.9420
 0.4090	 4.9700
 0.4100	 4.9650
 0.4110	 4.9750
 0.4120	 5.0100
 0.4130	 5.0020
 0.4140	 5.0020
 0.4150	 5.0160
 0.4160	 5.0290
 0.4170	 5.0190
 0.4180	 5.0290
 0.4190	 5.0560
 0.4200	 5.0590
 0.4210	 5.0670
 0.4220	 5.0800
 0.4230	 5.0930
 0.4240	 5.1010
 0.4250	 5.1180
 0.4260	 5.1390
 0.4270	 5.1520
 0.4280	 5.1550
 0.4290	 5.1670
 0.4300	 5.1880
 0.4310	 5.1920
 0.4320	 5.1960
 0.4330	 5.2090
 0.4340	 5.2330
 0.4350	 5.2500
 0.4360	 5.2610
 0.4370	 5.2710
 0.4380	 5.2880
 0.4390	 5.3040
 0.4400	 5.3200
 0.4410	 5.3380
 0.4420	 5.3590
 0.4430	 5.3750
 0.4440	 5.3880
 0.4450	 5.4030
 0.4460	 5.4270
 0.4470	 5.4460
 0.4480	 5.4560
 0.4490	 5.4690
 0.4500	 5.4810
 0.4510	 5.4950
 0.4520	 5.5170
 0.4530	 5.5400
 0.4540	 5.5520
 0.4550	 5.5580
 0.4560	 5.5700
 0.4570	 5.5830
 0.4580	 5.5940
 0.4590	 5.6050
 0.4600	 5.6220
 0.4610	 5.6340
 0.4620	 5.6400
 0.4630	 5.6450
 0.4640	 5.6550
 0.4650	 5.6690
 0.4660	 5.6820
 0.4670	 5.6820
 0.4680	 5.6900
 0.4690	 5.6990
 0.4700	 5.7040
 0.4710	 5.7180
 0.4720	 5.7270
 0.4730	 5.7320
 0.4740	 5.7420
 0.4750	 5.7470
 0.4760	 5.7540
 0.4770	 5.7630
 0.4780	 5.7580
 0.4790	 5.7640
 0.4800	 5.7750
 0.4810	 5.7760
 0.4820	 5.7790
 0.4830	 5.7850
 0.4840	 5.7910
 0.4850	 5.7950
 0.4860	 5.8070
 0.4870	 5.8200
 0.4880	 5.8290
 0.4890	 5.8370
 0.4900	 5.8490
 0.4910	 5.8690
 0.4920	 5.8930
 0.4930	 5.9100
 0.4940	 5.9280
 0.4950	 5.9510
 0.4960	 5.9770
 0.4970	 6.0010
 0.4980	 6.0270
 0.4990	 6.0570
 0.5000	 6.0950
 0.5010	 6.1320
 0.5020	 6.1680
 0.5030	 6.2160
 0.5040	 6.2650
 0.5050	 6.3170
 0.5060	 6.3760
 0.5070	 6.4400
 0.5080	 6.5020
 0.5090	 6.5680
 0.5100	 6.6520
 0.5110	 6.7360
 0.5120	 6.8230
 0.5130	 6.9180
 0.5140	 7.0230
 0.5150	 7.1350
 0.5160	 7.2540
 0.5170	 7.3820
 0.5180	 7.5180
 0.5190	 7.6570
 0.5200	 7.7990
 0.5210	 7.9520
 0.5220	 8.1100
 0.5230	 8.2690
 0.5240	 8.4260
 0.5250	 8.5800
 0.5260	 8.7320
 0.5270	 8.8840
 0.5280	 9.0330
 0.5290	 9.1720
 0.5300	 9.3030
 0.5310	 9.4270
 0.5320	 9.5400
 0.5330	 9.6480
 0.5340	 9.7480
 0.5350	 9.8390
 0.5360	 9.9210
 0.5370	 9.9950
 0.5380	10.0630
 0.5390	10.1250
 0.5400	10.1840
 0.5410	10.2410
 0.5420	10.2930
 0.5430	10.3390
 0.5440	10.3800
 0.5450	10.4170
 0.5460	10.4500
 0.5470	10.4750
 0.5480	10.5000
 0.5490	10.5260
 0.5500	10.5480
 0.5510	10.5640
 0.5520	10.5720
 0.5530	10.5720
 0.5540	10.5600
 0.5550	10.5370
 0.5560	10.5050
 0.5570	10.4630
 0.5580	10.4110
 0.5590	10.3510
 0.5600	10.2840
 0.5610	10.2090
 0.5620	10.1300
 0.5630	10.0460
 0.5640	 9.9600
 0.5650	 9.8740
 0.5660	 9.7870
 0.5670	 9.6990
 0.5680	 9.6080
 0.5690	 9.5180
 0.5700	 9.4290
 0.5710	 9.3390
 0.5720	 9.2470
 0.5730	 9.1600
 0.5740	 9.0760
 0.5750	 8.9930
 0.5760	 8.9150
 0.5770	 8.8440
 0.5780	 8.7780
 0.5790	 8.7150
 0.5800	 8.6570
 0.5810	 8.6030
 0.5820	 8.5520
 0.5830	 8.5100
 0.5840	 8.4720
 0.5850	 8.4350
 0.5860	 8.4010
 0.5870	 8.3670
 0.5880	 8.3350
 0.5890	 8.3070
 0.5900	 8.2780
 0.5910	 8.2500
 0.5920	 8.2210
 0.5930	 8.1930
 0.5940	 8.1710
 0.5950	 8.1540
 0.5960	 8.1390
 0.5970	 8.1300
 0.5980	 8.1190
 0.5990	 8.1040
 0.6000	 8.0880
 0.6010	 8.0690
 0.6020	 8.0460
 0.6030	 8.0210
 0.6040	 7.9950
 0.6050	 7.9630
 0.6060	 7.9250
 0.6070	 7.8850
 0.6080	 7.8470
 0.6090	 7.8070
 0.6100	 7.7630
 0.6110	 7.7190
 0.6120	 7.6760
 0.6130	 7.6320
 0.6140	 7.5870
 0.6150	 7.5480
 0.6160	 7.5060
 0.6170	 7.4660
 0.6180	 7.4310
 0.6190	 7.4000
 0.6200	 7.3720
 0.6210	 7.3450
 0.6220	 7.3220
 0.6230	 7.3050
 0.6240	 7.2910
 0.6250	 7.2790
 0.6260	 7.2690
 0.6270	 7.2620
 0.6280	 7.2580
 0.6290	 7.2570
 0.6300	 7.2540
 0.6310	 7.2490
 0.6320	 7.2430
 0.6330	 7.2350
 0.6340	 7.2200
 0.6350	 7.2000
 0.6360	 7.1740
 0.6370	 7.1420
 0.6380	 7.1030
 0.6390	 7.0600
 0.6400	 7.0180
 0.6410	 6.9700
 0.6420	 6.9210
 0.6430	 6.8710
 0.6440	 6.8220
 0.6450	 6.7740
 0.6460	 6.7270
 0.6470	 6.6860
 0.6480	 6.6510
 0.6490	 6.6190
 0.6500	 6.5890
 0.6510	 6.5660
 0.6520	 6.5490
 0.6530	 6.5340
 0.6540	 6.5180
 0.6550	 6.5000
 0.6560	 6.4790
 0.6570	 6.4550
 0.6580	 6.4280
 0.6590	 6.3970
 0.6600	 6.3650
 0.6610	 6.3330
 0.6620	 6.3030
 0.6630	 6.2730
 0.6640	 6.2450
 0.6650	 6.2210
 0.6660	 6.1950
 0.6670	 6.1770
 0.6680	 6.1660
 0.6690	 6.1560
 0.6700	 6.1530
 0.6710	 6.1560
 0.6720	 6.1620
 0.6730	 6.1710
 0.6740	 6.1880
 0.6750	 6.2100
 0.6760	 6.2310
 0.6770	 6.2580
 0.6780	 6.2920
 0.6790	 6.3320
 0.6800	 6.3760
 0.6810	 6.4290
 0.6820	 6.4880
 0.6830	 6.5530
 0.6840	 6.6250
 0.6850	 6.7060
 0.6860	 6.8000
 0.6870	 6.9080
 0.6880	 7.0300
 0.6890	 7.1770
 0.6900	 7.3550
 0.6910	 7.5700
 0.6920	 7.8270
 0.6930	 8.1340
 0.6940	 8.4990
 0.6950	 8.9240
 0.6960	 9.4040
 0.6970	 9.9410
 0.6980	10.5360
 0.6990	11.1810
 0.7000	11.8710
 0.7010	12.6010
 0.7020	13.3610
 0.7030	14.1460
 0.7040	14.9490
 0.7050	15.7650
 0.7060	16.5870
 0.7070	17.4140
 0.7080	18.2440
 0.7090	19.0780
 0.7100	19.9070
 0.7110	20.7380
 0.7120	21.5690
 0.7130	22.3930
 0.7140	23.2090
 0.7150	24.0170
 0.7160	24.8170
 0.7170	25.6060
 0.7180	26.3800
 0.7190	27.1360
 0.7200	27.8760
 0.7210	28.5960
 0.7220	29.2940
 0.7230	29.9660
 0.7240	30.6120
 0.7250	31.2300
 0.7260	31.8200
 0.7270	32.3820
 0.7280	32.9160
 0.7290	33.4200
 0.7300	33.8940
 0.7310	34.3400
 0.7320	34.7600
 0.7330	35.1540
 0.7340	35.5220
 0.7350	35.8630
 0.7360	36.1800
 0.7370	36.4750
 0.7380	36.7480
 0.7390	37.0020
 0.7400	37.2340
 0.7410	37.4460
 0.7420	37.6420
 0.7430	37.8220
 0.7440	37.9840
 0.7450	38.1290
 0.7460	38.2560
 0.7470	38.3720
 0.7480	38.4770
 0.7490	38.5710
 0.7500	38.6530
 0.7510	38.7280
 0.7520	38.7940
 0.7530	38.8520
 0.7540	38.9050
 0.7550	38.9530
 0.7560	38.9950
 0.7570	39.0290
 0.7580	39.0620
 0.7590	39.0930
 0.7600	39.1210
 0.7610	39.1420
 0.7620	39.1610
 0.7630	39.1800
 0.7640	39.1970
 0.7650	39.2090
 0.7660	39.2180
 0.7670	39.2260
 0.7680	39.2330
 0.7690	39.2370
 0.7700	39.2420
 0.7710	39.2500
 0.7720	39.2550
 0.7730	39.2600
 0.7740	39.2640
 0.7750	39.2660
 0.7760	39.2690
 0.7770	39.2750
 0.7780	39.2810
 0.7790	39.2830
 0.7800	39.2870
 0.7810	39.2890
 0.7820	39.2930
 0.7830	39.3000
 0.7840	39.3040
 0.7850	39.3060
 0.7860	39.3100
 0.7870	39.3120
 0.7880	39.3120
 0.7890	39.3130
 0.7900	39.3140
 0.7910	39.3170
 0.7920	39.3180
 0.7930	39.3180
 0.7940	39.3190
 0.7950	39.3170
 0.7960	39.3150
 0.7970	39.3140
 0.7980	39.3090
 0.7990	39.3040
 0.8000	39.3010
 0.8010	39.2980
 0.8020	39.2940
 0.8030	39.2910
 0.8040	39.2880
 0.8050	39.2830
 0.8060	39.2750
 0.8070	39.2670
 0.8080	39.2590
 0.8090	39.2510
 0.8100	39.2440
 0.8110	39.2380
 0.8120	39.2300
 0.8130	39.2200
 0.8140	39.2120
 0.8150	39.2020
 0.8160	39.1910
 0.8170	39.1860
 0.8180	39.1750
 0.8190	39.1630
 0.8200	39.1540
 0.8210	39.1450
 0.8220	39.1350
 0.8230	39.1240
 0.8240	39.1140
 0.8250	39.1050
 0.8260	39.0950
 0.8270	39.0840
 0.8280	39.0710
 0.8290	39.0600
 0.8300	39.0500
 0.8310	39.0400
 0.8320	39.0280
 0.8330	39.0180
 0.8340	39.0100
 0.8350	39.0000
 0.8360	38.9920
 0.8370	38.9830
 0.8380	38.9740
 0.8390	38.9690
 0.8400	38.9650
 0.8410	38.9600
 0.8420	38.9530
 0.8430	38.9500
 0.8440	38.9460
 0.8450	38.9410
 0.8460	38.9370
 0.8470	38.9320
 0.8480	38.9290
 0.8490	38.9280
 0.8500	38.9270
 0.8510	38.9250
 0.8520	38.9240
 0.8530	38.9220
 0.8540	38.9190
 0.8550	38.9180
 0.8560	38.9170
 0.8570	38.9170
 0.8580	38.9220
 0.8590	38.9250
 0.8600	38.9270
 0.8610	38.9300
 0.8620	38.9300
 0.8630	38.9280
 0.8640	38.9290
 0.8650	38.9330
 0.8660	38.9400
 0.8670	38.9450
 0.8680	38.9470
 0.8690	38.9520
 0.8700	38.9540
 0.8710	38.9580
 0.8720	38.9620
 0.8730	38.9690
 0.8740	38.9740
 0.8750	38.9790
 0.8760	38.9840
 0.8770	38.9860
 0.8780	38.9920
 0.8790	39.0010
 0.8800	39.0070
 0.8810	39.0050
 0.8820	39.0130
 0.8830	39.0200
 0.8840	39.0190
 0.8850	39.0230
 0.8860	39.0300
 0.8870	39.0380
 0.8880	39.0430
 0.8890	39.0500
 0.8900	39.0540
 0.8910	39.0570
 0.8920	39.0640
 0.8930	39.0720
 0.8940	39.0750
 0.8950	39.0760
 0.8960	39.0800
 0.8970	39.0830
 0.8980	39.0880
 0.8990	39.0920
 0.9000	39.0940
 0.9010	39.0970
 0.9020	39.1000
 0.9030	39.1020
 0.9040	39.1020
 0.9050	39.1070
 0.9060	39.1100
 0.9070	39.1090
 0.9080	39.1110
 0.9090	39.1190
 0.9100	39.1250
 0.9110	39.1210
 0.9120	39.1190
 0.9130	39.1140
 0.9140	39.1090
 0.9150	39.1070
 0.9160	39.1050
 0.9170	39.1070
 0.9180	39.1050
 0.9190	39.0920
 0.9200	39.0920
 0.9210	39.0930
 0.9220	39.0870
 0.9230	39.0780
 0.9240	39.0680
 0.9250	39.0590
 0.9260	39.0480
 0.9270	39.0350
 0.9280	39.0240
 0.9290	39.0070
 0.9300	38.9850
 0.9310	38.9700
 0.9320	38.9580
 0.9330	38.9430
 0.9340	38.9230
 0.9350	38.9050
 0.9360	38.8820
 0.9370	38.8570
 0.9380	38.8330
 0.9390	38.8070
 0.9400	38.7810
 0.9410	38.7580
 0.9420	38.7360
 0.9430	38.6980
 0.9440	38.6660
 0.9450	38.6360
 0.9460	38.6010
 0.9470	38.5590
 0.9480	38.5060
 0.9490	38.4540
 0.9500	38.4090
 0.9510	38.3680
 0.9520	38.3130
 0.9530	38.2550
 0.9540	38.2050
 0.9550	38.1420
 0.9560	38.0870
 0.9570	38.0350
 0.9580	37.9830
 0.9590	37.9370
 0.9600	37.8920
 0.9610	37.8470
 0.9620	37.8070
 0.9630	37.7740
 0.9640	37.7520
 0.9650	37.7270
 0.9660	37.6880
 0.9670	37.6660
 0.9680	37.6580
 0.9690	37.6450
 0.9700	37.6150
 0.9710	37.6010
 0.9720	37.5810
 0.9730	37.5650
 0.9740	37.5640
 0.9750	37.5350
 0.9760	37.5250
 0.9770	37.5280
 0.9780	37.5160
 0.9790	37.5100
 0.9800	37.5110
 0.9810	37.5120
 0.9820	37.5080
 0.9830	37.5130
 0.9840	37.5080
 0.9850	37.4950
 0.9860	37.4900
 0.9870	37.4990
 0.9880	37.5040
 0.9890	37.5050
 0.9900	37.5130
 0.9910	37.5370
 0.9920	37.5510
 0.9930	37.5570
 0.9940	37.5650
 0.9950	37.5750
 0.9960	37.5820
 0.9970	37.5880
 0.9980	37.5980
 0.9990	37.6070
 1.0000	37.6310
 1.0010	37.6440
 1.0020	37.6590
 1.0030	37.6740
 1.0040	37.6940
 1.0050	37.7130
 1.0060	37.7280
 1.0070	37.7430
 1.0080	37.7600
 1.0090	37.7780
 1.0100	37.7940
 1.0110	37.8110
 1.0120	37.8290
 1.0130	37.8460
 1.0140	37.8630
 1.0150	37.8830
 1.0160	37.9000
 1.0170	37.9160
 1.0180	37.9300
 1.0190	37.9450
 1.0200	37.9620
 1.0210	37.9800
 1.0220	37.9980
 1.0230	38.0150
 1.0240	38.0340
 1.0250	38.0500
 1.0260	38.0620
 1.0270	38.0770
 1.0280	38.0890
 1.0290	38.1060
 1.0300	38.1270
 1.0310	38.1440
 1.0320	38.1620
 1.0330	38.1800
 1.0340	38.1900
 1.0350	38.2030
 1.0360	38.2160
 1.0370	38.2260
 1.0380	38.2380
 1.0390	38.2530
 1.0400	38.2670
 1.0410	38.2830
 1.0420	38.2970
 1.0430	38.3090
 1.0440	38.3210
 1.0450	38.3320
 1.0460	38.3430
 1.0470	38.3540
 1.0480	38.3640
 1.0490	38.3730
 1.0500	38.3820
 1.0510	38.3900
 1.0520	38.3970
 1.0530	38.4060
 1.0540	38.4130
 1.0550	38.4230
 1.0560	38.4350
 1.0570	38.4440
 1.0580	38.4550
 1.0590	38.4630
 1.0600	38.4680
 1.0610	38.4750
 1.0620	38.4830
 1.0630	38.4890
 1.0640	38.4980
 1.0650	38.5020
 1.0660	38.5020
 1.0670	38.5050
 1.0680	38.5090
 1.0690	38.5130
 1.0700	38.5180
 1.0710	38.5270
 1.0720	38.5310
 1.0730	38.5330
 1.0740	38.5360
 1.0750	38.5400
 1.0760	38.5400
 1.0770	38.5370
 1.0780	38.5360
 1.0790	38.5310
 1.0800	38.5310
 1.0810	38.5380
 1.0820	38.5410
 1.0830	38.5450
 1.0840	38.5460
 1.0850	38.5410
 1.0860	38.5360
 1.0870	38.5320
 1.0880	38.5270
 1.0890	38.5230
 1.0900	38.5210
 1.0910	38.5180
 1.0920	38.5160
 1.0930	38.5110
 1.0940	38.5060
 1.0950	38.4990
 1.0960	38.4880
 1.0970	38.4800
 1.0980	38.4720
 1.0990	38.4640
 1.1000	38.4610
 1.1010	38.4530
 1.1020	38.4440
 1.1030	38.4340
 1.1040	38.4230
 1.1050	38.4110
 1.1060	38.3990
 1.1070	38.3870
 1.1080	38.3750
 1.1090	38.3610
 1.1100	38.3490
 1.1110	38.3370
 1.1120	38.3240
 1.1130	38.3110
 1.1140	38.2950
 1.1150	38.2790
 1.1160	38.2600
 1.1170	38.2400
 1.1180	38.2170
 1.1190	38.1910
 1.1200	38.1640
 1.1210	38.1360
 1.1220	38.1050
 1.1230	38.0730
 1.1240	38.0360
 1.1250	37.9940
 1.1260	37.9490
 1.1270	37.9000
 1.1280	37.8480
 1.1290	37.7890
 1.1300	37.7260
 1.1310	37.6560
 1.1320	37.5800
 1.1330	37.4980
 1.1340	37.4110
 1.1350	37.3180
 1.1360	37.2180
 1.1370	37.1130
 1.1380	37.0030
 1.1390	36.8880
 1.1400	36.7690
 1.1410	36.6490
 1.1420	36.5250
 1.1430	36.4000
 1.1440	36.2750
 1.1450	36.1450
 1.1460	36.0210
 1.1470	35.8950
 1.1480	35.7740
 1.1490	35.6560
 1.1500	35.5420
 1.1510	35.4300
 1.1520	35.3250
 1.1530	35.2240
 1.1540	35.1320
 1.1550	35.0460
 1.1560	34.9670
 1.1570	34.8940
 1.1580	34.8270
 1.1590	34.7640
 1.1600	34.7050
 1.1610	34.6510
 1.1620	34.6010
 1.1630	34.5560
 1.1640	34.5150
 1.1650	34.4770
 1.1660	34.4410
 1.1670	34.4080
 1.1680	34.3780
 1.1690	34.3480
 1.1700	34.3200
 1.1710	34.2930
 1.1720	34.2670
 1.1730	34.2420
 1.1740	34.2160
 1.1750	34.1940
 1.1760	34.1720
 1.1770	34.1470
 1.1780	34.1240
 1.1790	34.1000
 1.1800	34.0740
 1.1810	34.0490
 1.1820	34.0230
 1.1830	33.9970
 1.1840	33.9740
 1.1850	33.9520
 1.1860	33.9300
 1.1870	33.9100
 1.1880	33.8890
 1.1890	33.8680
 1.1900	33.8510
 1.1910	33.8360
 1.1920	33.8210
 1.1930	33.8080
 1.1940	33.7980
 1.1950	33.7880
 1.1960	33.7790
 1.1970	33.7740
 1.1980	33.7720
 1.1990	33.7680
 1.2000	33.7670
 1.2010	33.7680
 1.2020	33.7700
 1.2030	33.7740
 1.2040	33.7810
 1.2050	33.7890
 1.2060	33.7980
 1.2070	33.8090
 1.2080	33.8220
 1.2090	33.8370
 1.2100	33.8540
 1.2110	33.8720
 1.2120	33.8900
 1.2130	33.9110
 1.2140	33.9330
 1.2150	33.9570
 1.2160	33.9820
 1.2170	34.0080
 1.2180	34.0360
 1.2190	34.0640
 1.2200	34.0930
 1.2210	34.1220
 1.2220	34.1510
 1.2230	34.1810
 1.2240	34.2090
 1.2250	34.2390
 1.2260	34.2690
 1.2270	34.2990
 1.2280	34.3290
 1.2290	34.3570
 1.2300	34.3840
 1.2310	34.4070
 1.2320	34.4300
 1.2330	34.4550
 1.2340	34.4780
 1.2350	34.4980
 1.2360	34.5200
 1.2370	34.5430
 1.2380	34.5620
 1.2390	34.5820
 1.2400	34.6030
 1.2410	34.6220
 1.2420	34.6390
 1.2430	34.6570
 1.2440	34.6740
 1.2450	34.6910
 1.2460	34.7090
 1.2470	34.7250
 1.2480	34.7390
 1.2490	34.7530
 1.2500	34.7660
 1.2510	34.7790
 1.2520	34.7920
 1.2530	34.8040
 1.2540	34.8150
 1.2550	34.8270
 1.2560	34.8360
 1.2570	34.8460
 1.2580	34.8560
 1.2590	34.8630
 1.2600	34.8670
 1.2610	34.8720
 1.2620	34.8760
 1.2630	34.8780
 1.2640	34.8820
 1.2650	34.8830
 1.2660	34.8830
 1.2670	34.8830
 1.2680	34.8830
 1.2690	34.8810
 1.2700	34.8780
 1.2710	34.8740
 1.2720	34.8690
 1.2730	34.8630
 1.2740	34.8560
 1.2750	34.8460
 1.2760	34.8360
 1.2770	34.8250
 1.2780	34.8130
 1.2790	34.8010
 1.2800	34.7900
 1.2810	34.7770
 1.2820	34.7650
 1.2830	34.7480
 1.2840	34.7300
 1.2850	34.7110
 1.2860	34.6910
 1.2870	34.6700
 1.2880	34.6480
 1.2890	34.6260
 1.2900	34.6000
 1.2910	34.5730
 1.2920	34.5420
 1.2930	34.5100
 1.2940	34.4760
 1.2950	34.4410
 1.2960	34.4060
 1.2970	34.3690
 1.2980	34.3290
 1.2990	34.2870
 1.3000	34.2420
 1.3010	34.1960
 1.3020	34.1460
 1.3030	34.0950
 1.3040	34.0440
 1.3050	33.9890
 1.3060	33.9330
 1.3070	33.8740
 1.3080	33.8110
 1.3090	33.7470
 1.3100	33.6800
 1.3110	33.6080
 1.3120	33.5350
 1.3130	33.4580
 1.3140	33.3780
 1.3150	33.2950
 1.3160	33.2100
 1.3170	33.1220
 1.3180	33.0320
 1.3190	32.9390
 1.3200	32.8440
 1.3210	32.7460
 1.3220	32.6450
 1.3230	32.5400
 1.3240	32.4330
 1.3250	32.3240
 1.3260	32.2120
 1.3270	32.0960
 1.3280	31.9790
 1.3290	31.8600
 1.3300	31.7390
 1.3310	31.6170
 1.3320	31.4920
 1.3330	31.3670
 1.3340	31.2420
 1.3350	31.1140
 1.3360	30.9870
 1.3370	30.8580
 1.3380	30.7280
 1.3390	30.5990
 1.3400	30.4700
 1.3410	30.3440
 1.3420	30.2200
 1.3430	30.0960
 1.3440	29.9730
 1.3450	29.8510
 1.3460	29.7250
 1.3470	29.6050
 1.3480	29.4860
 1.3490	29.3690
 1.3500	29.2550
 1.3510	29.1420
 1.3520	29.0270
 1.3530	28.9140
 1.3540	28.8010
 1.3550	28.6880
 1.3560	28.5740
 1.3570	28.4600
 1.3580	28.3450
 1.3590	28.2280
 1.3600	28.1090
 1.3610	27.9890
 1.3620	27.8620
 1.3630	27.7310
 1.3640	27.5960
 1.3650	27.4540
 1.3660	27.3090
 1.3670	27.1580
 1.3680	26.9970
 1.3690	26.8260
 1.3700	26.6430
 1.3710	26.4490
 1.3720	26.2430
 1.3730	26.0230
 1.3740	25.7910
 1.3750	25.5430
 1.3760	25.2760
 1.3770	24.9910
 1.3780	24.6850
 1.3790	24.3580
 1.3800	24.0130
 1.3810	23.6450
 1.3820	23.2620
 1.3830	22.8610
 1.3840	22.4420
 1.3850	22.0030
 1.3860	21.5540
 1.3870	21.0860
 1.3880	20.6160
 1.3890	20.1360
 1.3900	19.6490
 1.3910	19.1630
 1.3920	18.6750
 1.3930	18.1840
 1.3940	17.6990
 1.3950	17.2140
 1.3960	16.7370
 1.3970	16.2730
 1.3980	15.8190
 1.3990	15.3840
 1.4000	14.9640
 1.4010	14.5570
 1.4020	14.1690
 1.4030	13.7950
 1.4040	13.4410
 1.4050	13.1060
 1.4060	12.7880
 1.4070	12.4910
 1.4080	12.2100
 1.4090	11.9460
 1.4100	11.7010
 1.4110	11.4700
 1.4120	11.2540
 1.4130	11.0530
 1.4140	10.8650
 1.4150	10.6920
 1.4160	10.5320
 1.4170	10.3810
 1.4180	10.2430
 1.4190	10.1130
 1.4200	 9.9920
 1.4210	 9.8820
 1.4220	 9.7780
 1.4230	 9.6830
 1.4240	 9.5950
 1.4250	 9.5130
 1.4260	 9.4380
 1.4270	 9.3680
 1.4280	 9.3030
 1.4290	 9.2420
 1.4300	 9.1870
 1.4310	 9.1360
 1.4320	 9.0910
 1.4330	 9.0480
 1.4340	 9.0090
 1.4350	 8.9740
 1.4360	 8.9420
 1.4370	 8.9120
 1.4380	 8.8870
 1.4390	 8.8640
 1.4400	 8.8450
 1.4410	 8.8280
 1.4420	 8.8130
 1.4430	 8.7990
 1.4440	 8.7880
 1.4450	 8.7770
 1.4460	 8.7690
 1.4470	 8.7640
 1.4480	 8.7610
 1.4490	 8.7600
 1.4500	 8.7590
 1.4510	 8.7600
 1.4520	 8.7610
 1.4530	 8.7630
 1.4540	 8.7670
 1.4550	 8.7720
 1.4560	 8.7800
 1.4570	 8.7890
 1.4580	 8.8010
 1.4590	 8.8150
 1.4600	 8.8310
 1.4610	 8.8490
 1.4620	 8.8710
 1.4630	 8.8960
 1.4640	 8.9230
 1.4650	 8.9520
 1.4660	 8.9860
 1.4670	 9.0210
 1.4680	 9.0610
 1.4690	 9.1030
 1.4700	 9.1480
 1.4710	 9.1970
 1.4720	 9.2490
 1.4730	 9.3040
 1.4740	 9.3610
 1.4750	 9.4190
 1.4760	 9.4790
 1.4770	 9.5420
 1.4780	 9.6070
 1.4790	 9.6750
 1.4800	 9.7440
 1.4810	 9.8140
 1.4820	 9.8860
 1.4830	 9.9590
 1.4840	10.0340
 1.4850	10.1110
 1.4860	10.1880
 1.4870	10.2660
 1.4880	10.3450
 1.4890	10.4250
 1.4900	10.5070
 1.4910	10.5890
 1.4920	10.6730
 1.4930	10.7580
 1.4940	10.8430
 1.4950	10.9300
 1.4960	11.0160
 1.4970	11.1020
 1.4980	11.1900
 1.4990	11.2800
 1.5000	11.3690
 1.5010	11.4610
 1.5020	11.5510
 1.5030	11.6420
 1.5040	11.7330
 1.5050	11.8250
 1.5060	11.9170
 1.5070	12.0090
 1.5080	12.1010
 1.5090	12.1950
 1.5100	12.2880
 1.5110	12.3810
 1.5120	12.4760
 1.5130	12.5680
 1.5140	12.6610
 1.5150	12.7550
 1.5160	12.8470
 1.5170	12.9420
 1.5180	13.0360
 1.5190	13.1270
 1.5200	13.2200
 1.5210	13.3120
 1.5220	13.4040
 1.5230	13.4970
 1.5240	13.5890
 1.5250	13.6800
 1.5260	13.7700
 1.5270	13.8600
 1.5280	13.9500
 1.5290	14.0390
 1.5300	14.1270
 1.5310	14.2160
 1.5320	14.3040
 1.5330	14.3910
 1.5340	14.4780
 1.5350	14.5640
 1.5360	14.6500
 1.5370	14.7350
 1.5380	14.8200
 1.5390	14.9040
 1.5400	14.9870
 1.5410	15.0710
 1.5420	15.1540
 1.5430	15.2360
 1.5440	15.3190
 1.5450	15.3990
 1.5460	15.4790
 1.5470	15.5600
 1.5480	15.6400
 1.5490	15.7210
 1.5500	15.8010
 1.5510	15.8810
 1.5520	15.9600
 1.5530	16.0370
 1.5540	16.1130
 1.5550	16.1900
 1.5560	16.2650
 1.5570	16.3410
 1.5580	16.4150
 1.5590	16.4890
 1.5600	16.5620
 1.5610	16.6340
 1.5620	16.7050
 1.5630	16.7770
 1.5640	16.8460
 1.5650	16.9150
 1.5660	16.9840
 1.5670	17.0520
 1.5680	17.1190
 1.5690	17.1870
 1.5700	17.2530
 1.5710	17.3200
 1.5720	17.3850
 1.5730	17.4500
 1.5740	17.5140
 1.5750	17.5790
 1.5760	17.6430
 1.5770	17.7060
 1.5780	17.7680
 1.5790	17.8300
 1.5800	17.8910
 1.5810	17.9530
 1.5820	18.0150
 1.5830	18.0750
 1.5840	18.1350
 1.5850	18.1940
 1.5860	18.2540
 1.5870	18.3160
 1.5880	18.3760
 1.5890	18.4360
 1.5900	18.4960
 1.5910	18.5540
 1.5920	18.6130
 1.5930	18.6710
 1.5940	18.7290
 1.5950	18.7890
 1.5960	18.8480
 1.5970	18.9080
 1.5980	18.9660
 1.5990	19.0220
 1.6000	19.0780
 1.6010	19.1330
 1.6020	19.1880
 1.6030	19.2440
 1.6040	19.2980
 1.6050	19.3530
 1.6060	19.4090
 1.6070	19.4620
 1.6080	19.5130
 1.6090	19.5630
 1.6100	19.6130
 1.6110	19.6640
 1.6120	19.7130
 1.6130	19.7620
 1.6140	19.8100
 1.6150	19.8570
 1.6160	19.9060
 1.6170	19.9530
 1.6180	19.9990
 1.6190	20.0440
 1.6200	20.0880
 1.6210	20.1320
 1.6220	20.1750
 1.6230	20.2170
 1.6240	20.2580
 1.6250	20.2960
 1.6260	20.3350
 1.6270	20.3730
 1.6280	20.4100
 1.6290	20.4470
 1.6300	20.4830
 1.6310	20.5180
 1.6320	20.5540
 1.6330	20.5870
 1.6340	20.6160
 1.6350	20.6450
 1.6360	20.6720
 1.6370	20.6990
 1.6380	20.7260
 1.6390	20.7500
 1.6400	20.7730
 1.6410	20.7940
 1.6420	20.8120
 1.6430	20.8300
 1.6440	20.8480
 1.6450	20.8620
 1.6460	20.8750
 1.6470	20.8860
 1.6480	20.8940
 1.6490	20.9010
 1.6500	20.9070
 1.6510	20.9100
 1.6520	20.9120
 1.6530	20.9150
 1.6540	20.9150
 1.6550	20.9140
 1.6560	20.9120
 1.6570	20.9090
 1.6580	20.9040
 1.6590	20.9000
 1.6600	20.8950
 1.6610	20.8880
 1.6620	20.8820
 1.6630	20.8770
 1.6640	20.8700
 1.6650	20.8650
 1.6660	20.8600
 1.6670	20.8530
 1.6680	20.8460
 1.6690	20.8390
 1.6700	20.8300
 1.6710	20.8210
 1.6720	20.8120
 1.6730	20.8020
 1.6740	20.7910
 1.6750	20.7770
 1.6760	20.7600
 1.6770	20.7410
 1.6780	20.7200
 1.6790	20.6980
 1.6800	20.6740
 1.6810	20.6480
 1.6820	20.6210
 1.6830	20.5930
 1.6840	20.5630
 1.6850	20.5320
 1.6860	20.4990
 1.6870	20.4640
 1.6880	20.4270
 1.6890	20.3870
 1.6900	20.3480
 1.6910	20.3100
 1.6920	20.2700
 1.6930	20.2300
 1.6940	20.1890
 1.6950	20.1460
 1.6960	20.1030
 1.6970	20.0590
 1.6980	20.0150
 1.6990	19.9690
 1.7000	19.9230
 1.7010	19.8760
 1.7020	19.8290
 1.7030	19.7800
 1.7040	19.7330
 1.7050	19.6840
 1.7060	19.6360
 1.7070	19.5890
 1.7080	19.5420
 1.7090	19.4950
 1.7100	19.4480
 1.7110	19.4020
 1.7120	19.3570
 1.7130	19.3120
 1.7140	19.2670
 1.7150	19.2220
 1.7160	19.1780
 1.7170	19.1350
 1.7180	19.0940
 1.7190	19.0520
 1.7200	19.0110
 1.7210	18.9720
 1.7220	18.9330
 1.7230	18.8970
 1.7240	18.8630
 1.7250	18.8290
 1.7260	18.7970
 1.7270	18.7680
 1.7280	18.7410
 1.7290	18.7170
 1.7300	18.6950
 1.7310	18.6740
 1.7320	18.6540
 1.7330	18.6350
 1.7340	18.6180
 1.7350	18.5980
 1.7360	18.5790
 1.7370	18.5560
 1.7380	18.5310
 1.7390	18.5030
 1.7400	18.4710
 1.7410	18.4370
 1.7420	18.4000
 1.7430	18.3600
 1.7440	18.3180
 1.7450	18.2740
 1.7460	18.2250
 1.7470	18.1780
 1.7480	18.1290
 1.7490	18.0800
 1.7500	18.0300
 1.7510	17.9820
 1.7520	17.9320
 1.7530	17.8840
 1.7540	17.8370
 1.7550	17.7890
 1.7560	17.7430
 1.7570	17.6970
 1.7580	17.6520
 1.7590	17.6070
 1.7600	17.5620
 1.7610	17.5230
 1.7620	17.4840
 1.7630	17.4470
 1.7640	17.4110
 1.7650	17.3760
 1.7660	17.3430
 1.7670	17.3120
 1.7680	17.2820
 1.7690	17.2540
 1.7700	17.2280
 1.7710	17.2060
 1.7720	17.1830
 1.7730	17.1600
 1.7740	17.1370
 1.7750	17.1130
 1.7760	17.0930
 1.7770	17.0750
 1.7780	17.0570
 1.7790	17.0400
 1.7800	17.0240
 1.7810	17.0070
 1.7820	16.9930
 1.7830	16.9800
 1.7840	16.9690
 1.7850	16.9610
 1.7860	16.9530
 1.7870	16.9460
 1.7880	16.9400
 1.7890	16.9360
 1.7900	16.9370
 1.7910	16.9380
 1.7920	16.9390
 1.7930	16.9420
 1.7940	16.9460
 1.7950	16.9500
 1.7960	16.9560
 1.7970	16.9630
 1.7980	16.9710
 1.7990	16.9790
 1.8000	16.9880
 1.8010	16.9970
 1.8020	17.0060
 1.8030	17.0150
 1.8040	17.0250
 1.8050	17.0350
 1.8060	17.0460
 1.8070	17.0550
 1.8080	17.0630
 1.8090	17.0720
 1.8100	17.0800
 1.8110	17.0890
 1.8120	17.1000
 1.8130	17.1080
 1.8140	17.1150
 1.8150	17.1200
 1.8160	17.1230
 1.8170	17.1290
 1.8180	17.1350
 1.8190	17.1420
 1.8200	17.1450
 1.8210	17.1460
 1.8220	17.1470
 1.8230	17.1460
 1.8240	17.1450
 1.8250	17.1440
 1.8260	17.1420
 1.8270	17.1410
 1.8280	17.1370
 1.8290	17.1310
 1.8300	17.1210
 1.8310	16.9220
 1.8320	16.9080
 1.8330	16.8870
 1.8340	16.8660
 1.8350	16.8420
 1.8360	16.8120
 1.8370	16.7810
 1.8380	16.7480
 1.8390	16.7110
 1.8400	16.6720
 1.8410	16.6270
 1.8420	16.5800
 1.8430	16.5230
 1.8440	16.4600
 1.8450	16.3920
 1.8460	16.3150
 1.8470	16.2370
 1.8480	16.1540
 1.8490	16.0610
 1.8500	15.9580
 1.8510	15.8490
 1.8520	15.7270
 1.8530	15.5930
 1.8540	15.4540
 1.8550	15.3050
 1.8560	15.1490
 1.8570	14.9840
 1.8580	14.8060
 1.8590	14.6200
 1.8600	14.4240
 1.8610	14.2140
 1.8620	13.9930
 1.8630	13.7660
 1.8640	13.5220
 1.8650	13.2670
 1.8660	13.0040
 1.8670	12.7270
 1.8680	12.4410
 1.8690	12.1460
 1.8700	11.8390
 1.8710	11.5220
 1.8720	11.2000
 1.8730	10.8720
 1.8740	10.5380
 1.8750	10.2050
 1.8760	 9.8690
 1.8770	 9.5310
 1.8780	 9.2000
 1.8790	 8.8720
 1.8800	 8.5550
 1.8810	 8.2460
 1.8820	 7.9450
 1.8830	 7.6480
 1.8840	 7.3630
 1.8850	 7.0850
 1.8860	 6.8200
 1.8870	 6.5700
 1.8880	 6.3290
 1.8890	 6.1060
 1.8900	 5.8970
 1.8910	 5.7030
 1.8920	 5.5240
 1.8930	 5.3610
 1.8940	 5.2080
 1.8950	 5.0700
 1.8960	 4.9440
 1.8970	 4.8280
 1.8980	 4.7270
 1.8990	 4.6380
 1.9000	 4.5580
 1.9010	 4.4940
 1.9020	 4.4320
 1.9030	 4.3800
 1.9040	 4.3300
 1.9050	 4.2880
 1.9060	 4.2520
 1.9070	 4.2220
 1.9080	 4.1970
 1.9090	 4.1740
 1.9100	 4.1530
 1.9110	 4.1340
 1.9120	 4.1190
 1.9130	 4.1030
 1.9140	 4.0900
 1.9150	 4.0770
 1.9160	 4.0650
 1.9170	 4.0560
 1.9180	 4.0490
 1.9190	 4.0430
 1.9200	 4.0380
 1.9210	 4.0350
 1.9220	 4.0310
 1.9230	 4.0290
 1.9240	 4.0260
 1.9250	 4.0220
 1.9260	 4.0210
 1.9270	 4.0200
 1.9280	 4.0190
 1.9290	 4.0220
 1.9300	 4.0230
 1.9310	 4.0240
 1.9320	 4.0250
 1.9330	 4.0260
 1.9340	 4.0270
 1.9350	 4.0290
 1.9360	 4.0340
 1.9370	 4.0370
 1.9380	 4.0410
 1.9390	 4.0420
 1.9400	 4.0460
 1.9410	 4.0510
 1.9420	 4.0560
 1.9430	 4.0630
 1.9440	 4.0680
 1.9450	 4.0690
 1.9460	 4.0750
 1.9470	 4.0840
 1.9480	 4.0900
 1.9490	 4.0970
 1.9500	 4.1060
 1.9510	 4.1120
 1.9520	 4.1180
 1.9530	 4.1290
 1.9540	 4.1380
 1.9550	 4.1470
 1.9560	 4.1560
 1.9570	 4.1650
 1.9580	 4.1730
 1.9590	 4.1820
 1.9600	 4.1940
 1.9610	 4.2040
 1.9620	 4.2160
 1.9630	 4.2250
 1.9640	 4.2360
 1.9650	 4.2500
 1.9660	 4.2620
 1.9670	 4.2750
 1.9680	 4.2890
 1.9690	 4.3040
 1.9700	 4.3180
 1.9710	 4.3340
 1.9720	 4.3490
 1.9730	 4.3630
 1.9740	 4.3770
 1.9750	 4.3920
 1.9760	 4.4090
 1.9770	 4.4280
 1.9780	 4.4470
 1.9790	 4.4640
 1.9800	 4.4810
 1.9810	 4.4980
 1.9820	 4.5100
 1.9830	 4.5280
 1.9840	 4.5500
 1.9850	 4.5700
 1.9860	 4.5940
 1.9870	 4.6160
 1.9880	 4.6360
 1.9890	 4.6560
 1.9900	 4.6770
 1.9910	 4.7000
 1.9920	 4.7210
 1.9930	 4.7430
 1.9940	 4.7640
 1.9950	 4.7820
 1.9960	 4.8040
 1.9970	 4.8270
 1.9980	 4.8510
 1.9990	 4.8780
 2.0000	 4.9020
 2.0010	 4.9250
 2.0020	 4.9520
 2.0030	 4.9760
 2.0040	 5.0050
 2.0050	 5.0330
 2.0060	 5.0630
 2.0070	 5.0910
 2.0080	 5.1190
 2.0090	 5.1460
 2.0100	 5.1710
 2.0110	 5.1950
 2.0120	 5.2180
 2.0130	 5.2410
 2.0140	 5.2670
 2.0150	 5.2960
 2.0160	 5.3240
 2.0170	 5.3550
 2.0180	 5.3830
 2.0190	 5.4060
 2.0200	 5.4320
 2.0210	 5.4560
 2.0220	 5.4820
 2.0230	 5.5080
 2.0240	 5.5350
 2.0250	 5.5620
 2.0260	 5.5900
 2.0270	 5.6190
 2.0280	 5.6480
 2.0290	 5.6770
 2.0300	 5.7050
 2.0310	 5.7300
 2.0320	 5.7530
 2.0330	 5.7760
 2.0340	 5.7970
 2.0350	 5.8200
 2.0360	 5.8460
 2.0370	 5.8700
 2.0380	 5.8950
 2.0390	 5.9200
 2.0400	 5.9440
 2.0410	 5.9670
 2.0420	 5.9900
 2.0430	 6.0150
 2.0440	 6.0370
 2.0450	 6.0590
 2.0460	 6.0820
 2.0470	 6.1050
 2.0480	 6.1270
 2.0490	 6.1500
 2.0500	 6.1720
 2.0510	 6.1920
 2.0520	 6.2140
 2.0530	 6.2350
 2.0540	 6.2570
 2.0550	 6.2820
 2.0560	 6.3050
 2.0570	 6.3310
 2.0580	 6.3570
 2.0590	 6.3810
 2.0600	 6.4060
 2.0610	 6.4290
 2.0620	 6.4480
 2.0630	 6.4710
 2.0640	 6.4960
 2.0650	 6.5200
 2.0660	 6.5460
 2.0670	 6.5710
 2.0680	 6.5950
 2.0690	 6.6200
 2.0700	 6.6470
 2.0710	 6.6730
 2.0720	 6.6970
 2.0730	 6.7230
 2.0740	 6.7470
 2.0750	 6.7670
 2.0760	 6.7930
 2.0770	 6.8210
 2.0780	 6.8470
 2.0790	 6.8790
 2.0800	 6.9040
 2.0810	 6.9240
 2.0820	 6.9480
 2.0830	 6.9690
 2.0840	 6.9930
 2.0850	 7.0210
 2.0860	 7.0480
 2.0870	 7.0720
 2.0880	 7.1000
 2.0890	 7.1260
 2.0900	 7.1500
 2.0910	 7.1750
 2.0920	 7.2000
 2.0930	 7.2270
 2.0940	 7.2560
 2.0950	 7.2850
 2.0960	 7.3190
 2.0970	 7.3460
 2.0980	 7.3670
 2.0990	 7.3910
 2.1000	 7.4140
 2.1010	 7.4370
 2.1020	 7.4620
 2.1030	 7.4860
 2.1040	 7.5070
 2.1050	 7.5290
 2.1060	 7.5530
 2.1070	 7.5790
 2.1080	 7.6030
 2.1090	 7.6290
 2.1100	 7.6530
 2.1110	 7.6760
 2.1120	 7.7000
 2.1130	 7.7250
 2.1140	 7.7480
 2.1150	 7.7710
 2.1160	 7.7940
 2.1170	 7.8130
 2.1180	 7.8360
 2.1190	 7.8630
 2.1200	 7.8880
 2.1210	 7.9120
 2.1220	 7.9370
 2.1230	 7.9600
 2.1240	 7.9800
 2.1250	 8.0030
 2.1260	 8.0290
 2.1270	 8.0500
 2.1280	 8.0690
 2.1290	 8.0890
 2.1300	 8.1060
 2.1310	 8.1270
 2.1320	 8.1540
 2.1330	 8.1760
 2.1340	 8.1980
 2.1350	 8.2200
 2.1360	 8.2400
 2.1370	 8.2600
 2.1380	 8.2780
 2.1390	 8.2990
 2.1400	 8.3180
 2.1410	 8.3410
 2.1420	 8.3620
 2.1430	 8.3850
 2.1440	 8.4060
 2.1450	 8.4250
 2.1460	 8.4460
 2.1470	 8.4670
 2.1480	 8.4890
 2.1490	 8.5110
 2.1500	 8.5350
 2.1510	 8.5620
 2.1520	 8.5850
 2.1530	 8.6090
 2.1540	 8.6280
 2.1550	 8.6400
 2.1560	 8.6560
 2.1570	 8.6690
 2.1580	 8.6850
 2.1590	 8.7040
 2.1600	 8.7230
 2.1610	 8.7390
 2.1620	 8.7560
 2.1630	 8.7740
 2.1640	 8.7920
 2.1650	 8.8100
 2.1660	 8.8310
 2.1670	 8.8490
 2.1680	 8.8680
 2.1690	 8.8850
 2.1700	 8.9000
 2.1710	 8.9170
 2.1720	 8.9330
 2.1730	 8.9490
 2.1740	 8.9660
 2.1750	 8.9840
 2.1760	 9.0000
 2.1770	 9.0200
 2.1780	 9.0450
 2.1790	 9.0660
 2.1800	 9.0890
 2.1810	 9.1070
 2.1820	 9.1200
 2.1830	 9.1300
 2.1840	 9.1450
 2.1850	 9.1600
 2.1860	 9.1740
 2.1870	 9.1920
 2.1880	 9.2050
 2.1890	 9.2120
 2.1900	 9.2270
 2.1910	 9.2410
 2.1920	 9.2600
 2.1930	 9.2880
 2.1940	 9.3080
 2.1950	 9.3270
 2.1960	 9.3440
 2.1970	 9.3520
 2.1980	 9.3660
 2.1990	 9.3810
 2.2000	 9.3950
 2.2010	 9.4080
 2.2020	 9.4210
 2.2030	 9.4330
 2.2040	 9.4440
 2.2050	 9.4560
 2.2060	 9.4660
 2.2070	 9.4770
 2.2080	 9.4850
 2.2090	 9.4940
 2.2100	 9.5040
 2.2110	 9.5110
 2.2120	 9.5180
 2.2130	 9.5210
 2.2140	 9.5200
 2.2150	 9.5230
 2.2160	 9.5280
 2.2170	 9.5290
 2.2180	 9.5330
 2.2190	 9.5300
 2.2200	 9.5160
 2.2210	 9.5100
 2.2220	 9.5040
 2.2230	 9.4960
 2.2240	 9.4930
 2.2250	 9.4850
 2.2260	 9.4740
 2.2270	 9.4610
 2.2280	 9.4460
 2.2290	 9.4270
 2.2300	 9.4040
 2.2310	 9.3810
 2.2320	 9.3520
 2.2330	 9.3260
 2.2340	 9.2980
 2.2350	 9.2660
 2.2360	 9.2370
 2.2370	 9.2100
 2.2380	 9.1770
 2.2390	 9.1440
 2.2400	 9.1050
 2.2410	 9.0570
 2.2420	 9.0160
 2.2430	 8.9760
 2.2440	 8.9370
 2.2450	 8.9040
 2.2460	 8.8630
 2.2470	 8.8180
 2.2480	 8.7740
 2.2490	 8.7270
 2.2500	 8.6790
 2.2510	 8.6290
 2.2520	 8.5830
 2.2530	 8.5360
 2.2540	 8.4920
 2.2550	 8.4520
 2.2560	 8.4120
 2.2570	 8.3750
 2.2580	 8.3340
 2.2590	 8.2910
 2.2600	 8.2480
 2.2610	 8.1990
 2.2620	 8.1530
 2.2630	 8.1150
 2.2640	 8.0830
 2.2650	 8.0500
 2.2660	 8.0170
 2.2670	 7.9800
 2.2680	 7.9360
 2.2690	 7.8990
 2.2700	 7.8620
 2.2710	 7.8330
 2.2720	 7.8100
 2.2730	 7.7880
 2.2740	 7.7750
 2.2750	 7.7570
 2.2760	 7.7390
 2.2770	 7.7190
 2.2780	 7.6980
 2.2790	 7.6740
 2.2800	 7.6470
 2.2810	 7.6230
 2.2820	 7.6000
 2.2830	 7.5750
 2.2840	 7.5530
 2.2850	 7.5290
 2.2860	 7.4990
 2.2870	 7.4770
 2.2880	 7.4610
 2.2890	 7.4390
 2.2900	 7.4190
 2.2910	 7.3960
 2.2920	 7.3660
 2.2930	 7.3390
 2.2940	 7.3150
 2.2950	 7.2880
 2.2960	 7.2610
 2.2970	 7.2330
 2.2980	 7.1990
 2.2990	 7.1690
 2.3000	 7.1440
 2.3010	 7.1140
 2.3020	 7.0830
 2.3030	 7.0550
 2.3040	 7.0310
 2.3050	 7.0080
 2.3060	 6.9860
 2.3070	 6.9660
 2.3080	 6.9460
 2.3090	 6.9260
 2.3100	 6.9110
 2.3110	 6.9010
 2.3120	 6.8910
 2.3130	 6.8790
 2.3140	 6.8720
 2.3150	 6.8700
 2.3160	 6.8650
 2.3170	 6.8630
 2.3180	 6.8560
 2.3190	 6.8440
 2.3200	 6.8350
 2.3210	 6.8270
 2.3220	 6.8140
 2.3230	 6.7990
 2.3240	 6.7840
 2.3250	 6.7650
 2.3260	 6.7440
 2.3270	 6.7210
 2.3280	 6.7020
 2.3290	 6.6790
 2.3300	 6.6620
 2.3310	 6.6540
 2.3320	 6.6370
 2.3330	 6.6150
 2.3340	 6.5930
 2.3350	 6.5650
 2.3360	 6.5410
 2.3370	 6.5160
 2.3380	 6.4960
 2.3390	 6.4790
 2.3400	 6.4600
 2.3410	 6.4460
 2.3420	 6.4270
 2.3430	 6.4030
 2.3440	 6.3820
 2.3450	 6.3620
 2.3460	 6.3390
 2.3470	 6.3110
 2.3480	 6.2880
 2.3490	 6.2570
 2.3500	 6.2400
 2.3510	 6.2340
 2.3520	 6.2260
 2.3530	 6.2220
 2.3540	 6.2190
 2.3550	 6.2090
 2.3560	 6.1940
 2.3570	 6.1790
 2.3580	 6.1600
 2.3590	 6.1390
 2.3600	 6.1190
 2.3610	 6.0980
 2.3620	 6.0810
 2.3630	 6.0720
 2.3640	 6.0600
 2.3650	 6.0480
 2.3660	 6.0420
 2.3670	 6.0370
 2.3680	 6.0310
 2.3690	 6.0210
 2.3700	 6.0010
 2.3710	 5.9760
 2.3720	 5.9550
 2.3730	 5.9320
 2.3740	 5.9120
 2.3750	 5.9030
 2.3760	 5.8850
 2.3770	 5.8670
 2.3780	 5.8580
 2.3790	 5.8330
 2.3800	 5.8100
 2.3810	 5.8060
 2.3820	 5.8020
 2.3830	 5.7980
 2.3840	 5.7860
 2.3850	 5.7590
 2.3860	 5.7290
 2.3870	 5.7060
 2.3880	 5.6900
 2.3890	 5.6740
 2.3900	 5.6530
 2.3910	 5.6410
 2.3920	 5.6260
 2.3930	 5.6110
 2.3940	 5.6040
 2.3950	 5.5940
 2.3960	 5.5800
 2.3970	 5.5660
 2.3980	 5.5640
 2.3990	 5.5450
 2.4000	 5.5130
 2.4010	 5.5040
 2.4020	 5.4820
 2.4030	 5.4680
 2.4040	 5.4680
 2.4050	 5.4430
 2.4060	 5.4280
 2.4070	 5.4150
 2.4080	 5.4000
 2.4090	 5.3880
 2.4100	 5.3650
 2.4110	 5.3500
 2.4120	 5.3250
 2.4130	 5.3010
 2.4140	 5.2920
 2.4150	 5.2680
 2.4160	 5.2380
 2.4170	 5.2310
 2.4180	 5.2210
 2.4190	 5.2080
 2.4200	 5.2120
 2.4210	 5.1950
 2.4220	 5.1640
 2.4230	 5.1450
 2.4240	 5.1260
 2.4250	 5.1080
 2.4260	 5.0930
 2.4270	 5.0740
 2.4280	 5.0550
 2.4290	 5.0400
 2.4300	 5.0350
 2.4310	 5.0290
 2.4320	 5.0060
 2.4330	 4.9860
 2.4340	 4.9750
 2.4350	 4.9630
 2.4360	 4.9520
 2.4370	 4.9510
 2.4380	 4.9450
 2.4390	 4.9370
 2.4400	 4.9330
 2.4410	 4.9160
 2.4420	 4.8870
 2.4430	 4.8580
 2.4440	 4.8380
 2.4450	 4.8260
 2.4460	 4.8220
 2.4470	 4.8150
 2.4480	 4.8100
 2.4490	 4.8030
 2.4500	 4.7840
 2.4510	 4.7780
 2.4520	 4.7710
 2.4530	 4.7580
 2.4540	 4.7510
 2.4550	 4.7360
 2.4560	 4.7080
 2.4570	 4.6740
 2.4580	 4.6580
 2.4590	 4.6540
 2.4600	 4.6520
 2.4610	 4.6650
 2.4620	 4.6670
 2.4630	 4.6540
 2.4640	 4.6510
 2.4650	 4.6330
 2.4660	 4.6120
 2.4670	 4.5990
 2.4680	 4.5810
 2.4690	 4.5710
 2.4700	 4.5730
 2.4710	 4.5830
 2.4720	 4.5790
 2.4730	 4.5820
 2.4740	 4.5690
 2.4750	 4.5350
 2.4760	 4.5280
 2.4770	 4.5170
 2.4780	 4.5210
 2.4790	 4.5770
 2.4800	 4.5770
 2.4810	 4.5440
 2.4820	 4.5630
 2.4830	 4.5400
 2.4840	 4.5340
 2.4850	 4.5300
 2.4860	 4.5000
 2.4870	 4.4780
 2.4880	 4.4880
 2.4890	 4.4850
 2.4900	 4.4640
 2.4910	 4.4620
 2.4920	 4.4800
 2.4930	 4.4850
 2.4940	 4.4830
 2.4950	 4.4430
 2.4960	 4.3410
 2.4970	 4.2660
 2.4980	 4.2430
 2.4990	 4.2840
 2.5000	 4.3340
