Name: Acacia visco
Type: vegetation
Class: Tree
Genus: Acacia
Species: visco
Sample No.: JPL196
Owner: JPL
Wavelength Range: VSWIR
Origin: 34.1258; -118.11388; WGS84
Collection Date: 10/3/2016
Description: Samples were collected at the Huntington Garden in San Marino California as part of a JPL Subcontract studying HyTES imagery. Samples were taken to JPL and processed within 48 hours of collection. The same leaves were processed in the Nicolet and then measured using the ASD.
Measurement: Bidirectional reflectance
First Column: X
Second Column: Y
X Units: Wavelength (micrometer)
Y Units: Reflectance (percentage)
First X Value: 0.35
Last X Value: 2.5
Number of X Values: 2151
Additional Information: vegetation.tree.acacia.visco.vswir.jpl196.jpl.asd.ancillary.txt

 0.3500	 3.6550
 0.3510	 3.6840
 0.3520	 3.7390
 0.3530	 3.7120
 0.3540	 3.5720
 0.3550	 3.5410
 0.3560	 3.5830
 0.3570	 3.6400
 0.3580	 3.6410
 0.3590	 3.5370
 0.3600	 3.4650
 0.3610	 3.4800
 0.3620	 3.5050
 0.3630	 3.5280
 0.3640	 3.5640
 0.3650	 3.6090
 0.3660	 3.5570
 0.3670	 3.5220
 0.3680	 3.5470
 0.3690	 3.6080
 0.3700	 3.5350
 0.3710	 3.4760
 0.3720	 3.5080
 0.3730	 3.5090
 0.3740	 3.5260
 0.3750	 3.5190
 0.3760	 3.4540
 0.3770	 3.4210
 0.3780	 3.4470
 0.3790	 3.4920
 0.3800	 3.4740
 0.3810	 3.4370
 0.3820	 3.4110
 0.3830	 3.4110
 0.3840	 3.4210
 0.3850	 3.4490
 0.3860	 3.4790
 0.3870	 3.4860
 0.3880	 3.4620
 0.3890	 3.4350
 0.3900	 3.4170
 0.3910	 3.4010
 0.3920	 3.3750
 0.3930	 3.3760
 0.3940	 3.4080
 0.3950	 3.3790
 0.3960	 3.3840
 0.3970	 3.4010
 0.3980	 3.3690
 0.3990	 3.3850
 0.4000	 3.4030
 0.4010	 3.4020
 0.4020	 3.4090
 0.4030	 3.4030
 0.4040	 3.3920
 0.4050	 3.3870
 0.4060	 3.3740
 0.4070	 3.3850
 0.4080	 3.4030
 0.4090	 3.3880
 0.4100	 3.3880
 0.4110	 3.4020
 0.4120	 3.4200
 0.4130	 3.4200
 0.4140	 3.4070
 0.4150	 3.4020
 0.4160	 3.4220
 0.4170	 3.4260
 0.4180	 3.4320
 0.4190	 3.4540
 0.4200	 3.4950
 0.4210	 3.4970
 0.4220	 3.4920
 0.4230	 3.5080
 0.4240	 3.5320
 0.4250	 3.5460
 0.4260	 3.5550
 0.4270	 3.5740
 0.4280	 3.5880
 0.4290	 3.6050
 0.4300	 3.6300
 0.4310	 3.6660
 0.4320	 3.6900
 0.4330	 3.7060
 0.4340	 3.7190
 0.4350	 3.7260
 0.4360	 3.7420
 0.4370	 3.7640
 0.4380	 3.7760
 0.4390	 3.7980
 0.4400	 3.8120
 0.4410	 3.8120
 0.4420	 3.8240
 0.4430	 3.8430
 0.4440	 3.8590
 0.4450	 3.8670
 0.4460	 3.8740
 0.4470	 3.8870
 0.4480	 3.9050
 0.4490	 3.9140
 0.4500	 3.9180
 0.4510	 3.9220
 0.4520	 3.9270
 0.4530	 3.9380
 0.4540	 3.9470
 0.4550	 3.9540
 0.4560	 3.9610
 0.4570	 3.9610
 0.4580	 3.9600
 0.4590	 3.9610
 0.4600	 3.9650
 0.4610	 3.9660
 0.4620	 3.9650
 0.4630	 3.9690
 0.4640	 3.9650
 0.4650	 3.9620
 0.4660	 3.9640
 0.4670	 3.9710
 0.4680	 3.9630
 0.4690	 3.9510
 0.4700	 3.9480
 0.4710	 3.9520
 0.4720	 3.9540
 0.4730	 3.9500
 0.4740	 3.9460
 0.4750	 3.9480
 0.4760	 3.9520
 0.4770	 3.9510
 0.4780	 3.9460
 0.4790	 3.9430
 0.4800	 3.9430
 0.4810	 3.9460
 0.4820	 3.9470
 0.4830	 3.9470
 0.4840	 3.9480
 0.4850	 3.9520
 0.4860	 3.9510
 0.4870	 3.9460
 0.4880	 3.9430
 0.4890	 3.9500
 0.4900	 3.9560
 0.4910	 3.9600
 0.4920	 3.9690
 0.4930	 3.9750
 0.4940	 3.9780
 0.4950	 3.9810
 0.4960	 3.9860
 0.4970	 3.9930
 0.4980	 4.0030
 0.4990	 4.0170
 0.5000	 4.0290
 0.5010	 4.0430
 0.5020	 4.0600
 0.5030	 4.0770
 0.5040	 4.0960
 0.5050	 4.1150
 0.5060	 4.1360
 0.5070	 4.1650
 0.5080	 4.1960
 0.5090	 4.2270
 0.5100	 4.2620
 0.5110	 4.3050
 0.5120	 4.3500
 0.5130	 4.3970
 0.5140	 4.4460
 0.5150	 4.4990
 0.5160	 4.5560
 0.5170	 4.6180
 0.5180	 4.6840
 0.5190	 4.7570
 0.5200	 4.8350
 0.5210	 4.9120
 0.5220	 4.9920
 0.5230	 5.0750
 0.5240	 5.1580
 0.5250	 5.2410
 0.5260	 5.3210
 0.5270	 5.3950
 0.5280	 5.4660
 0.5290	 5.5390
 0.5300	 5.6070
 0.5310	 5.6660
 0.5320	 5.7200
 0.5330	 5.7700
 0.5340	 5.8160
 0.5350	 5.8580
 0.5360	 5.8980
 0.5370	 5.9330
 0.5380	 5.9630
 0.5390	 5.9910
 0.5400	 6.0190
 0.5410	 6.0490
 0.5420	 6.0810
 0.5430	 6.1090
 0.5440	 6.1280
 0.5450	 6.1370
 0.5460	 6.1390
 0.5470	 6.1360
 0.5480	 6.1330
 0.5490	 6.1330
 0.5500	 6.1360
 0.5510	 6.1340
 0.5520	 6.1290
 0.5530	 6.1230
 0.5540	 6.1090
 0.5550	 6.0880
 0.5560	 6.0610
 0.5570	 6.0310
 0.5580	 5.9980
 0.5590	 5.9610
 0.5600	 5.9210
 0.5610	 5.8790
 0.5620	 5.8310
 0.5630	 5.7810
 0.5640	 5.7330
 0.5650	 5.6820
 0.5660	 5.6250
 0.5670	 5.5650
 0.5680	 5.5040
 0.5690	 5.4430
 0.5700	 5.3830
 0.5710	 5.3260
 0.5720	 5.2710
 0.5730	 5.2150
 0.5740	 5.1620
 0.5750	 5.1200
 0.5760	 5.0790
 0.5770	 5.0390
 0.5780	 5.0010
 0.5790	 4.9680
 0.5800	 4.9360
 0.5810	 4.9040
 0.5820	 4.8740
 0.5830	 4.8470
 0.5840	 4.8210
 0.5850	 4.7970
 0.5860	 4.7710
 0.5870	 4.7480
 0.5880	 4.7280
 0.5890	 4.7060
 0.5900	 4.6860
 0.5910	 4.6700
 0.5920	 4.6560
 0.5930	 4.6440
 0.5940	 4.6340
 0.5950	 4.6220
 0.5960	 4.6100
 0.5970	 4.5990
 0.5980	 4.5920
 0.5990	 4.5850
 0.6000	 4.5730
 0.6010	 4.5580
 0.6020	 4.5420
 0.6030	 4.5260
 0.6040	 4.5100
 0.6050	 4.4920
 0.6060	 4.4710
 0.6070	 4.4490
 0.6080	 4.4270
 0.6090	 4.4060
 0.6100	 4.3890
 0.6110	 4.3770
 0.6120	 4.3510
 0.6130	 4.3180
 0.6140	 4.2860
 0.6150	 4.2590
 0.6160	 4.2360
 0.6170	 4.2130
 0.6180	 4.1920
 0.6190	 4.1740
 0.6200	 4.1560
 0.6210	 4.1390
 0.6220	 4.1240
 0.6230	 4.1130
 0.6240	 4.1030
 0.6250	 4.0910
 0.6260	 4.0810
 0.6270	 4.0740
 0.6280	 4.0700
 0.6290	 4.0680
 0.6300	 4.0630
 0.6310	 4.0570
 0.6320	 4.0490
 0.6330	 4.0390
 0.6340	 4.0310
 0.6350	 4.0220
 0.6360	 4.0100
 0.6370	 3.9930
 0.6380	 3.9750
 0.6390	 3.9570
 0.6400	 3.9370
 0.6410	 3.9180
 0.6420	 3.8980
 0.6430	 3.8760
 0.6440	 3.8540
 0.6450	 3.8330
 0.6460	 3.8110
 0.6470	 3.7890
 0.6480	 3.7720
 0.6490	 3.7580
 0.6500	 3.7440
 0.6510	 3.7330
 0.6520	 3.7220
 0.6530	 3.7130
 0.6540	 3.7050
 0.6550	 3.6950
 0.6560	 3.6860
 0.6570	 3.6760
 0.6580	 3.6650
 0.6590	 3.6500
 0.6600	 3.6350
 0.6610	 3.6210
 0.6620	 3.6060
 0.6630	 3.5940
 0.6640	 3.5840
 0.6650	 3.5750
 0.6660	 3.5680
 0.6670	 3.5620
 0.6680	 3.5590
 0.6690	 3.5590
 0.6700	 3.5610
 0.6710	 3.5660
 0.6720	 3.5750
 0.6730	 3.5810
 0.6740	 3.5920
 0.6750	 3.6050
 0.6760	 3.6210
 0.6770	 3.6390
 0.6780	 3.6570
 0.6790	 3.6770
 0.6800	 3.7040
 0.6810	 3.7280
 0.6820	 3.7540
 0.6830	 3.7820
 0.6840	 3.8130
 0.6850	 3.8440
 0.6860	 3.8760
 0.6870	 3.9160
 0.6880	 3.9570
 0.6890	 4.0050
 0.6900	 4.0640
 0.6910	 4.1360
 0.6920	 4.2210
 0.6930	 4.3240
 0.6940	 4.4480
 0.6950	 4.5990
 0.6960	 4.7730
 0.6970	 4.9720
 0.6980	 5.2000
 0.6990	 5.4580
 0.7000	 5.7420
 0.7010	 6.0520
 0.7020	 6.3900
 0.7030	 6.7480
 0.7040	 7.1240
 0.7050	 7.5210
 0.7060	 7.9350
 0.7070	 8.3620
 0.7080	 8.8020
 0.7090	 9.2540
 0.7100	 9.7180
 0.7110	10.1950
 0.7120	10.6860
 0.7130	11.1830
 0.7140	11.6880
 0.7150	12.2000
 0.7160	12.7160
 0.7170	13.2400
 0.7180	13.7660
 0.7190	14.2950
 0.7200	14.8240
 0.7210	15.3490
 0.7220	15.8710
 0.7230	16.3860
 0.7240	16.8900
 0.7250	17.3870
 0.7260	17.8730
 0.7270	18.3450
 0.7280	18.8010
 0.7290	19.2400
 0.7300	19.6620
 0.7310	20.0670
 0.7320	20.4540
 0.7330	20.8250
 0.7340	21.1780
 0.7350	21.5120
 0.7360	21.8250
 0.7370	22.1200
 0.7380	22.3980
 0.7390	22.6590
 0.7400	22.9030
 0.7410	23.1310
 0.7420	23.3420
 0.7430	23.5370
 0.7440	23.7160
 0.7450	23.8790
 0.7460	24.0290
 0.7470	24.1670
 0.7480	24.2930
 0.7490	24.4070
 0.7500	24.5120
 0.7510	24.6060
 0.7520	24.6900
 0.7530	24.7650
 0.7540	24.8350
 0.7550	24.8990
 0.7560	24.9550
 0.7570	25.0040
 0.7580	25.0480
 0.7590	25.0910
 0.7600	25.1330
 0.7610	25.1630
 0.7620	25.1890
 0.7630	25.2140
 0.7640	25.2360
 0.7650	25.2560
 0.7660	25.2740
 0.7670	25.2900
 0.7680	25.3040
 0.7690	25.3180
 0.7700	25.3290
 0.7710	25.3390
 0.7720	25.3440
 0.7730	25.3510
 0.7740	25.3590
 0.7750	25.3660
 0.7760	25.3700
 0.7770	25.3740
 0.7780	25.3810
 0.7790	25.3860
 0.7800	25.3880
 0.7810	25.3910
 0.7820	25.3970
 0.7830	25.4010
 0.7840	25.4040
 0.7850	25.4060
 0.7860	25.4080
 0.7870	25.4110
 0.7880	25.4100
 0.7890	25.4090
 0.7900	25.4080
 0.7910	25.4070
 0.7920	25.4070
 0.7930	25.4060
 0.7940	25.4050
 0.7950	25.4020
 0.7960	25.3980
 0.7970	25.3950
 0.7980	25.3930
 0.7990	25.3890
 0.8000	25.3840
 0.8010	25.3800
 0.8020	25.3750
 0.8030	25.3690
 0.8040	25.3620
 0.8050	25.3550
 0.8060	25.3460
 0.8070	25.3380
 0.8080	25.3320
 0.8090	25.3240
 0.8100	25.3180
 0.8110	25.3120
 0.8120	25.3030
 0.8130	25.2950
 0.8140	25.2850
 0.8150	25.2720
 0.8160	25.2620
 0.8170	25.2530
 0.8180	25.2450
 0.8190	25.2370
 0.8200	25.2280
 0.8210	25.2170
 0.8220	25.2070
 0.8230	25.2000
 0.8240	25.1910
 0.8250	25.1810
 0.8260	25.1710
 0.8270	25.1620
 0.8280	25.1530
 0.8290	25.1450
 0.8300	25.1370
 0.8310	25.1290
 0.8320	25.1190
 0.8330	25.1080
 0.8340	25.1000
 0.8350	25.0970
 0.8360	25.0900
 0.8370	25.0830
 0.8380	25.0760
 0.8390	25.0690
 0.8400	25.0640
 0.8410	25.0600
 0.8420	25.0550
 0.8430	25.0500
 0.8440	25.0470
 0.8450	25.0440
 0.8460	25.0410
 0.8470	25.0420
 0.8480	25.0380
 0.8490	25.0350
 0.8500	25.0360
 0.8510	25.0340
 0.8520	25.0320
 0.8530	25.0310
 0.8540	25.0300
 0.8550	25.0310
 0.8560	25.0320
 0.8570	25.0330
 0.8580	25.0330
 0.8590	25.0340
 0.8600	25.0370
 0.8610	25.0400
 0.8620	25.0380
 0.8630	25.0400
 0.8640	25.0420
 0.8650	25.0430
 0.8660	25.0490
 0.8670	25.0520
 0.8680	25.0530
 0.8690	25.0560
 0.8700	25.0600
 0.8710	25.0650
 0.8720	25.0700
 0.8730	25.0740
 0.8740	25.0770
 0.8750	25.0820
 0.8760	25.0880
 0.8770	25.0910
 0.8780	25.0950
 0.8790	25.1000
 0.8800	25.1060
 0.8810	25.1120
 0.8820	25.1180
 0.8830	25.1230
 0.8840	25.1290
 0.8850	25.1340
 0.8860	25.1380
 0.8870	25.1410
 0.8880	25.1450
 0.8890	25.1500
 0.8900	25.1550
 0.8910	25.1600
 0.8920	25.1660
 0.8930	25.1700
 0.8940	25.1760
 0.8950	25.1810
 0.8960	25.1840
 0.8970	25.1890
 0.8980	25.1920
 0.8990	25.1960
 0.9000	25.2040
 0.9010	25.2070
 0.9020	25.2090
 0.9030	25.2120
 0.9040	25.2170
 0.9050	25.2210
 0.9060	25.2240
 0.9070	25.2290
 0.9080	25.2330
 0.9090	25.2360
 0.9100	25.2370
 0.9110	25.2370
 0.9120	25.2400
 0.9130	25.2460
 0.9140	25.2470
 0.9150	25.2390
 0.9160	25.2440
 0.9170	25.2500
 0.9180	25.2520
 0.9190	25.2510
 0.9200	25.2520
 0.9210	25.2490
 0.9220	25.2430
 0.9230	25.2400
 0.9240	25.2390
 0.9250	25.2410
 0.9260	25.2430
 0.9270	25.2390
 0.9280	25.2330
 0.9290	25.2240
 0.9300	25.2140
 0.9310	25.2100
 0.9320	25.2050
 0.9330	25.1990
 0.9340	25.1910
 0.9350	25.1780
 0.9360	25.1740
 0.9370	25.1680
 0.9380	25.1560
 0.9390	25.1460
 0.9400	25.1370
 0.9410	25.1270
 0.9420	25.1150
 0.9430	25.1080
 0.9440	25.0910
 0.9450	25.0700
 0.9460	25.0540
 0.9470	25.0460
 0.9480	25.0300
 0.9490	25.0050
 0.9500	24.9790
 0.9510	24.9660
 0.9520	24.9520
 0.9530	24.9320
 0.9540	24.9070
 0.9550	24.8730
 0.9560	24.8490
 0.9570	24.8330
 0.9580	24.8160
 0.9590	24.7950
 0.9600	24.7830
 0.9610	24.7690
 0.9620	24.7410
 0.9630	24.7330
 0.9640	24.7260
 0.9650	24.7140
 0.9660	24.6980
 0.9670	24.6860
 0.9680	24.6790
 0.9690	24.6720
 0.9700	24.6590
 0.9710	24.6490
 0.9720	24.6430
 0.9730	24.6390
 0.9740	24.6340
 0.9750	24.6350
 0.9760	24.6310
 0.9770	24.6220
 0.9780	24.6100
 0.9790	24.6100
 0.9800	24.6020
 0.9810	24.5970
 0.9820	24.6090
 0.9830	24.6040
 0.9840	24.5980
 0.9850	24.5980
 0.9860	24.6020
 0.9870	24.6090
 0.9880	24.6080
 0.9890	24.6010
 0.9900	24.5990
 0.9910	24.6030
 0.9920	24.6090
 0.9930	24.6110
 0.9940	24.6060
 0.9950	24.6210
 0.9960	24.6300
 0.9970	24.6170
 0.9980	24.5900
 0.9990	24.6100
 1.0000	24.6200
 1.0010	25.0030
 1.0020	25.0050
 1.0030	25.0080
 1.0040	25.0090
 1.0050	25.0120
 1.0060	25.0180
 1.0070	25.0230
 1.0080	25.0290
 1.0090	25.0380
 1.0100	25.0420
 1.0110	25.0450
 1.0120	25.0480
 1.0130	25.0470
 1.0140	25.0490
 1.0150	25.0530
 1.0160	25.0570
 1.0170	25.0610
 1.0180	25.0650
 1.0190	25.0710
 1.0200	25.0780
 1.0210	25.0810
 1.0220	25.0870
 1.0230	25.0910
 1.0240	25.0950
 1.0250	25.0980
 1.0260	25.1030
 1.0270	25.1070
 1.0280	25.1080
 1.0290	25.1110
 1.0300	25.1110
 1.0310	25.1140
 1.0320	25.1210
 1.0330	25.1240
 1.0340	25.1280
 1.0350	25.1350
 1.0360	25.1390
 1.0370	25.1450
 1.0380	25.1480
 1.0390	25.1500
 1.0400	25.1550
 1.0410	25.1590
 1.0420	25.1630
 1.0430	25.1680
 1.0440	25.1710
 1.0450	25.1680
 1.0460	25.1690
 1.0470	25.1730
 1.0480	25.1760
 1.0490	25.1800
 1.0500	25.1830
 1.0510	25.1850
 1.0520	25.1860
 1.0530	25.1890
 1.0540	25.1940
 1.0550	25.1960
 1.0560	25.1990
 1.0570	25.2020
 1.0580	25.2020
 1.0590	25.2030
 1.0600	25.2040
 1.0610	25.2060
 1.0620	25.2060
 1.0630	25.2070
 1.0640	25.2110
 1.0650	25.2130
 1.0660	25.2160
 1.0670	25.2180
 1.0680	25.2190
 1.0690	25.2170
 1.0700	25.2170
 1.0710	25.2150
 1.0720	25.2160
 1.0730	25.2180
 1.0740	25.2190
 1.0750	25.2210
 1.0760	25.2210
 1.0770	25.2190
 1.0780	25.2180
 1.0790	25.2160
 1.0800	25.2150
 1.0810	25.2150
 1.0820	25.2150
 1.0830	25.2190
 1.0840	25.2190
 1.0850	25.2150
 1.0860	25.2120
 1.0870	25.2090
 1.0880	25.2030
 1.0890	25.2000
 1.0900	25.1980
 1.0910	25.1950
 1.0920	25.1930
 1.0930	25.1900
 1.0940	25.1870
 1.0950	25.1850
 1.0960	25.1810
 1.0970	25.1800
 1.0980	25.1820
 1.0990	25.1800
 1.1000	25.1760
 1.1010	25.1740
 1.1020	25.1710
 1.1030	25.1670
 1.1040	25.1630
 1.1050	25.1620
 1.1060	25.1580
 1.1070	25.1520
 1.1080	25.1470
 1.1090	25.1430
 1.1100	25.1370
 1.1110	25.1310
 1.1120	25.1260
 1.1130	25.1220
 1.1140	25.1160
 1.1150	25.1090
 1.1160	25.1020
 1.1170	25.0930
 1.1180	25.0850
 1.1190	25.0760
 1.1200	25.0680
 1.1210	25.0590
 1.1220	25.0480
 1.1230	25.0360
 1.1240	25.0240
 1.1250	25.0100
 1.1260	24.9970
 1.1270	24.9790
 1.1280	24.9590
 1.1290	24.9360
 1.1300	24.9090
 1.1310	24.8820
 1.1320	24.8540
 1.1330	24.8230
 1.1340	24.7900
 1.1350	24.7540
 1.1360	24.7150
 1.1370	24.6750
 1.1380	24.6320
 1.1390	24.5880
 1.1400	24.5400
 1.1410	24.4930
 1.1420	24.4460
 1.1430	24.3960
 1.1440	24.3480
 1.1450	24.3010
 1.1460	24.2530
 1.1470	24.2030
 1.1480	24.1560
 1.1490	24.1080
 1.1500	24.0650
 1.1510	24.0230
 1.1520	23.9840
 1.1530	23.9480
 1.1540	23.9130
 1.1550	23.8800
 1.1560	23.8480
 1.1570	23.8190
 1.1580	23.7940
 1.1590	23.7710
 1.1600	23.7510
 1.1610	23.7310
 1.1620	23.7130
 1.1630	23.6940
 1.1640	23.6790
 1.1650	23.6640
 1.1660	23.6510
 1.1670	23.6380
 1.1680	23.6270
 1.1690	23.6160
 1.1700	23.6060
 1.1710	23.5980
 1.1720	23.5920
 1.1730	23.5840
 1.1740	23.5780
 1.1750	23.5690
 1.1760	23.5600
 1.1770	23.5500
 1.1780	23.5400
 1.1790	23.5300
 1.1800	23.5210
 1.1810	23.5130
 1.1820	23.5060
 1.1830	23.4990
 1.1840	23.4920
 1.1850	23.4840
 1.1860	23.4750
 1.1870	23.4670
 1.1880	23.4590
 1.1890	23.4520
 1.1900	23.4460
 1.1910	23.4410
 1.1920	23.4360
 1.1930	23.4300
 1.1940	23.4250
 1.1950	23.4200
 1.1960	23.4160
 1.1970	23.4130
 1.1980	23.4110
 1.1990	23.4080
 1.2000	23.4060
 1.2010	23.4040
 1.2020	23.4050
 1.2030	23.4060
 1.2040	23.4080
 1.2050	23.4100
 1.2060	23.4110
 1.2070	23.4150
 1.2080	23.4180
 1.2090	23.4210
 1.2100	23.4270
 1.2110	23.4330
 1.2120	23.4400
 1.2130	23.4470
 1.2140	23.4550
 1.2150	23.4640
 1.2160	23.4720
 1.2170	23.4830
 1.2180	23.4950
 1.2190	23.5050
 1.2200	23.5170
 1.2210	23.5280
 1.2220	23.5380
 1.2230	23.5500
 1.2240	23.5600
 1.2250	23.5700
 1.2260	23.5820
 1.2270	23.5920
 1.2280	23.6020
 1.2290	23.6130
 1.2300	23.6230
 1.2310	23.6320
 1.2320	23.6400
 1.2330	23.6480
 1.2340	23.6550
 1.2350	23.6590
 1.2360	23.6650
 1.2370	23.6720
 1.2380	23.6770
 1.2390	23.6830
 1.2400	23.6900
 1.2410	23.6970
 1.2420	23.7030
 1.2430	23.7100
 1.2440	23.7160
 1.2450	23.7200
 1.2460	23.7240
 1.2470	23.7260
 1.2480	23.7280
 1.2490	23.7300
 1.2500	23.7340
 1.2510	23.7360
 1.2520	23.7380
 1.2530	23.7400
 1.2540	23.7420
 1.2550	23.7440
 1.2560	23.7470
 1.2570	23.7480
 1.2580	23.7490
 1.2590	23.7490
 1.2600	23.7490
 1.2610	23.7480
 1.2620	23.7460
 1.2630	23.7440
 1.2640	23.7430
 1.2650	23.7420
 1.2660	23.7420
 1.2670	23.7410
 1.2680	23.7370
 1.2690	23.7330
 1.2700	23.7300
 1.2710	23.7250
 1.2720	23.7200
 1.2730	23.7160
 1.2740	23.7100
 1.2750	23.7050
 1.2760	23.7000
 1.2770	23.6930
 1.2780	23.6860
 1.2790	23.6770
 1.2800	23.6690
 1.2810	23.6610
 1.2820	23.6530
 1.2830	23.6440
 1.2840	23.6350
 1.2850	23.6250
 1.2860	23.6130
 1.2870	23.6010
 1.2880	23.5900
 1.2890	23.5790
 1.2900	23.5650
 1.2910	23.5530
 1.2920	23.5390
 1.2930	23.5210
 1.2940	23.5060
 1.2950	23.4900
 1.2960	23.4710
 1.2970	23.4530
 1.2980	23.4340
 1.2990	23.4130
 1.3000	23.3920
 1.3010	23.3700
 1.3020	23.3460
 1.3030	23.3230
 1.3040	23.2990
 1.3050	23.2730
 1.3060	23.2460
 1.3070	23.2180
 1.3080	23.1900
 1.3090	23.1610
 1.3100	23.1310
 1.3110	23.1010
 1.3120	23.0680
 1.3130	23.0330
 1.3140	22.9970
 1.3150	22.9620
 1.3160	22.9250
 1.3170	22.8860
 1.3180	22.8480
 1.3190	22.8100
 1.3200	22.7700
 1.3210	22.7280
 1.3220	22.6860
 1.3230	22.6420
 1.3240	22.5960
 1.3250	22.5500
 1.3260	22.5040
 1.3270	22.4570
 1.3280	22.4090
 1.3290	22.3600
 1.3300	22.3090
 1.3310	22.2580
 1.3320	22.2060
 1.3330	22.1540
 1.3340	22.1000
 1.3350	22.0460
 1.3360	21.9930
 1.3370	21.9380
 1.3380	21.8830
 1.3390	21.8300
 1.3400	21.7750
 1.3410	21.7220
 1.3420	21.6700
 1.3430	21.6170
 1.3440	21.5640
 1.3450	21.5110
 1.3460	21.4580
 1.3470	21.4060
 1.3480	21.3540
 1.3490	21.3020
 1.3500	21.2510
 1.3510	21.1990
 1.3520	21.1470
 1.3530	21.0960
 1.3540	21.0450
 1.3550	20.9930
 1.3560	20.9430
 1.3570	20.8910
 1.3580	20.8390
 1.3590	20.7860
 1.3600	20.7300
 1.3610	20.6730
 1.3620	20.6140
 1.3630	20.5540
 1.3640	20.4930
 1.3650	20.4280
 1.3660	20.3610
 1.3670	20.2910
 1.3680	20.2150
 1.3690	20.1340
 1.3700	20.0480
 1.3710	19.9550
 1.3720	19.8560
 1.3730	19.7490
 1.3740	19.6360
 1.3750	19.5130
 1.3760	19.3800
 1.3770	19.2360
 1.3780	19.0780
 1.3790	18.9100
 1.3800	18.7320
 1.3810	18.5410
 1.3820	18.3410
 1.3830	18.1320
 1.3840	17.9110
 1.3850	17.6780
 1.3860	17.4360
 1.3870	17.1810
 1.3880	16.9230
 1.3890	16.6560
 1.3900	16.3830
 1.3910	16.1080
 1.3920	15.8280
 1.3930	15.5420
 1.3940	15.2550
 1.3950	14.9650
 1.3960	14.6780
 1.3970	14.3950
 1.3980	14.1160
 1.3990	13.8450
 1.4000	13.5790
 1.4010	13.3180
 1.4020	13.0670
 1.4030	12.8220
 1.4040	12.5870
 1.4050	12.3620
 1.4060	12.1480
 1.4070	11.9450
 1.4080	11.7520
 1.4090	11.5690
 1.4100	11.3980
 1.4110	11.2350
 1.4120	11.0820
 1.4130	10.9390
 1.4140	10.8050
 1.4150	10.6810
 1.4160	10.5670
 1.4170	10.4600
 1.4180	10.3610
 1.4190	10.2690
 1.4200	10.1820
 1.4210	10.1020
 1.4220	10.0280
 1.4230	 9.9610
 1.4240	 9.8990
 1.4250	 9.8400
 1.4260	 9.7870
 1.4270	 9.7380
 1.4280	 9.6930
 1.4290	 9.6510
 1.4300	 9.6140
 1.4310	 9.5800
 1.4320	 9.5500
 1.4330	 9.5230
 1.4340	 9.4980
 1.4350	 9.4760
 1.4360	 9.4560
 1.4370	 9.4370
 1.4380	 9.4220
 1.4390	 9.4100
 1.4400	 9.3990
 1.4410	 9.3910
 1.4420	 9.3850
 1.4430	 9.3800
 1.4440	 9.3770
 1.4450	 9.3740
 1.4460	 9.3720
 1.4470	 9.3720
 1.4480	 9.3740
 1.4490	 9.3760
 1.4500	 9.3800
 1.4510	 9.3840
 1.4520	 9.3900
 1.4530	 9.3960
 1.4540	 9.4030
 1.4550	 9.4130
 1.4560	 9.4230
 1.4570	 9.4350
 1.4580	 9.4500
 1.4590	 9.4650
 1.4600	 9.4830
 1.4610	 9.5020
 1.4620	 9.5240
 1.4630	 9.5480
 1.4640	 9.5760
 1.4650	 9.6060
 1.4660	 9.6390
 1.4670	 9.6740
 1.4680	 9.7120
 1.4690	 9.7540
 1.4700	 9.7970
 1.4710	 9.8440
 1.4720	 9.8920
 1.4730	 9.9400
 1.4740	 9.9910
 1.4750	10.0450
 1.4760	10.0990
 1.4770	10.1550
 1.4780	10.2130
 1.4790	10.2730
 1.4800	10.3330
 1.4810	10.3940
 1.4820	10.4570
 1.4830	10.5190
 1.4840	10.5830
 1.4850	10.6480
 1.4860	10.7120
 1.4870	10.7780
 1.4880	10.8430
 1.4890	10.9080
 1.4900	10.9750
 1.4910	11.0430
 1.4920	11.1100
 1.4930	11.1790
 1.4940	11.2470
 1.4950	11.3150
 1.4960	11.3840
 1.4970	11.4520
 1.4980	11.5210
 1.4990	11.5900
 1.5000	11.6590
 1.5010	11.7280
 1.5020	11.7980
 1.5030	11.8680
 1.5040	11.9370
 1.5050	12.0060
 1.5060	12.0750
 1.5070	12.1420
 1.5080	12.2100
 1.5090	12.2780
 1.5100	12.3450
 1.5110	12.4130
 1.5120	12.4820
 1.5130	12.5500
 1.5140	12.6160
 1.5150	12.6820
 1.5160	12.7470
 1.5170	12.8130
 1.5180	12.8790
 1.5190	12.9440
 1.5200	13.0100
 1.5210	13.0740
 1.5220	13.1380
 1.5230	13.2010
 1.5240	13.2630
 1.5250	13.3240
 1.5260	13.3850
 1.5270	13.4460
 1.5280	13.5070
 1.5290	13.5670
 1.5300	13.6250
 1.5310	13.6840
 1.5320	13.7410
 1.5330	13.7990
 1.5340	13.8560
 1.5350	13.9120
 1.5360	13.9680
 1.5370	14.0230
 1.5380	14.0770
 1.5390	14.1310
 1.5400	14.1850
 1.5410	14.2390
 1.5420	14.2930
 1.5430	14.3450
 1.5440	14.3970
 1.5450	14.4480
 1.5460	14.4990
 1.5470	14.5490
 1.5480	14.5990
 1.5490	14.6500
 1.5500	14.6990
 1.5510	14.7480
 1.5520	14.7970
 1.5530	14.8430
 1.5540	14.8880
 1.5550	14.9340
 1.5560	14.9780
 1.5570	15.0230
 1.5580	15.0680
 1.5590	15.1110
 1.5600	15.1540
 1.5610	15.1950
 1.5620	15.2360
 1.5630	15.2770
 1.5640	15.3180
 1.5650	15.3600
 1.5660	15.4010
 1.5670	15.4400
 1.5680	15.4780
 1.5690	15.5150
 1.5700	15.5530
 1.5710	15.5910
 1.5720	15.6280
 1.5730	15.6650
 1.5740	15.7010
 1.5750	15.7370
 1.5760	15.7730
 1.5770	15.8080
 1.5780	15.8440
 1.5790	15.8780
 1.5800	15.9120
 1.5810	15.9480
 1.5820	15.9820
 1.5830	16.0150
 1.5840	16.0500
 1.5850	16.0830
 1.5860	16.1150
 1.5870	16.1470
 1.5880	16.1780
 1.5890	16.2070
 1.5900	16.2360
 1.5910	16.2680
 1.5920	16.2990
 1.5930	16.3290
 1.5940	16.3600
 1.5950	16.3890
 1.5960	16.4180
 1.5970	16.4480
 1.5980	16.4760
 1.5990	16.5020
 1.6000	16.5300
 1.6010	16.5560
 1.6020	16.5820
 1.6030	16.6090
 1.6040	16.6350
 1.6050	16.6600
 1.6060	16.6850
 1.6070	16.7100
 1.6080	16.7340
 1.6090	16.7570
 1.6100	16.7820
 1.6110	16.8060
 1.6120	16.8290
 1.6130	16.8510
 1.6140	16.8720
 1.6150	16.8930
 1.6160	16.9130
 1.6170	16.9340
 1.6180	16.9550
 1.6190	16.9760
 1.6200	16.9950
 1.6210	17.0140
 1.6220	17.0310
 1.6230	17.0480
 1.6240	17.0660
 1.6250	17.0830
 1.6260	17.1020
 1.6270	17.1190
 1.6280	17.1360
 1.6290	17.1520
 1.6300	17.1680
 1.6310	17.1840
 1.6320	17.1990
 1.6330	17.2150
 1.6340	17.2300
 1.6350	17.2440
 1.6360	17.2580
 1.6370	17.2720
 1.6380	17.2840
 1.6390	17.2960
 1.6400	17.3080
 1.6410	17.3180
 1.6420	17.3270
 1.6430	17.3360
 1.6440	17.3450
 1.6450	17.3510
 1.6460	17.3570
 1.6470	17.3630
 1.6480	17.3690
 1.6490	17.3750
 1.6500	17.3790
 1.6510	17.3820
 1.6520	17.3840
 1.6530	17.3850
 1.6540	17.3860
 1.6550	17.3870
 1.6560	17.3870
 1.6570	17.3860
 1.6580	17.3840
 1.6590	17.3790
 1.6600	17.3730
 1.6610	17.3670
 1.6620	17.3620
 1.6630	17.3560
 1.6640	17.3490
 1.6650	17.3410
 1.6660	17.3330
 1.6670	17.3230
 1.6680	17.3140
 1.6690	17.3050
 1.6700	17.2930
 1.6710	17.2820
 1.6720	17.2690
 1.6730	17.2550
 1.6740	17.2390
 1.6750	17.2230
 1.6760	17.2070
 1.6770	17.1900
 1.6780	17.1720
 1.6790	17.1530
 1.6800	17.1320
 1.6810	17.1100
 1.6820	17.0880
 1.6830	17.0630
 1.6840	17.0380
 1.6850	17.0140
 1.6860	16.9880
 1.6870	16.9600
 1.6880	16.9320
 1.6890	16.9060
 1.6900	16.8800
 1.6910	16.8550
 1.6920	16.8310
 1.6930	16.8060
 1.6940	16.7800
 1.6950	16.7540
 1.6960	16.7290
 1.6970	16.7040
 1.6980	16.6770
 1.6990	16.6510
 1.7000	16.6230
 1.7010	16.5940
 1.7020	16.5640
 1.7030	16.5340
 1.7040	16.5020
 1.7050	16.4690
 1.7060	16.4350
 1.7070	16.3980
 1.7080	16.3630
 1.7090	16.3280
 1.7100	16.2940
 1.7110	16.2610
 1.7120	16.2300
 1.7130	16.1980
 1.7140	16.1670
 1.7150	16.1360
 1.7160	16.1060
 1.7170	16.0760
 1.7180	16.0470
 1.7190	16.0180
 1.7200	15.9890
 1.7210	15.9600
 1.7220	15.9300
 1.7230	15.9010
 1.7240	15.8710
 1.7250	15.8440
 1.7260	15.8180
 1.7270	15.7910
 1.7280	15.7700
 1.7290	15.7480
 1.7300	15.7290
 1.7310	15.7140
 1.7320	15.7010
 1.7330	15.6920
 1.7340	15.6880
 1.7350	15.6830
 1.7360	15.6810
 1.7370	15.6770
 1.7380	15.6730
 1.7390	15.6660
 1.7400	15.6580
 1.7410	15.6480
 1.7420	15.6360
 1.7430	15.6210
 1.7440	15.6050
 1.7450	15.5870
 1.7460	15.5650
 1.7470	15.5440
 1.7480	15.5210
 1.7490	15.4970
 1.7500	15.4720
 1.7510	15.4470
 1.7520	15.4210
 1.7530	15.3960
 1.7540	15.3710
 1.7550	15.3450
 1.7560	15.3200
 1.7570	15.2930
 1.7580	15.2680
 1.7590	15.2440
 1.7600	15.2200
 1.7610	15.1980
 1.7620	15.1760
 1.7630	15.1540
 1.7640	15.1350
 1.7650	15.1190
 1.7660	15.1030
 1.7670	15.0880
 1.7680	15.0740
 1.7690	15.0600
 1.7700	15.0470
 1.7710	15.0370
 1.7720	15.0260
 1.7730	15.0130
 1.7740	15.0020
 1.7750	14.9910
 1.7760	14.9810
 1.7770	14.9720
 1.7780	14.9620
 1.7790	14.9510
 1.7800	14.9420
 1.7810	14.9320
 1.7820	14.9260
 1.7830	14.9230
 1.7840	14.9200
 1.7850	14.9180
 1.7860	14.9150
 1.7870	14.9120
 1.7880	14.9100
 1.7890	14.9100
 1.7900	14.9090
 1.7910	14.9090
 1.7920	14.9110
 1.7930	14.9120
 1.7940	14.9130
 1.7950	14.9150
 1.7960	14.9150
 1.7970	14.9190
 1.7980	14.9250
 1.7990	14.9300
 1.8000	14.9340
 1.8010	14.9390
 1.8020	14.9420
 1.8030	14.9460
 1.8040	14.9520
 1.8050	14.9570
 1.8060	14.9630
 1.8070	14.9680
 1.8080	14.9730
 1.8090	14.9770
 1.8100	14.9810
 1.8110	14.9840
 1.8120	14.9880
 1.8130	14.9910
 1.8140	14.9910
 1.8150	14.9950
 1.8160	14.9970
 1.8170	15.0010
 1.8180	15.0020
 1.8190	15.0010
 1.8200	15.0000
 1.8210	15.0000
 1.8220	14.9990
 1.8230	14.9970
 1.8240	14.9950
 1.8250	14.9910
 1.8260	14.9860
 1.8270	14.9790
 1.8280	14.9740
 1.8290	14.9680
 1.8300	14.9620
 1.8310	14.7700
 1.8320	14.7570
 1.8330	14.7450
 1.8340	14.7310
 1.8350	14.7120
 1.8360	14.6940
 1.8370	14.6730
 1.8380	14.6470
 1.8390	14.6200
 1.8400	14.5930
 1.8410	14.5610
 1.8420	14.5270
 1.8430	14.4910
 1.8440	14.4520
 1.8450	14.4070
 1.8460	14.3580
 1.8470	14.3060
 1.8480	14.2460
 1.8490	14.1840
 1.8500	14.1170
 1.8510	14.0450
 1.8520	13.9680
 1.8530	13.8880
 1.8540	13.8000
 1.8550	13.7020
 1.8560	13.5990
 1.8570	13.4910
 1.8580	13.3740
 1.8590	13.2490
 1.8600	13.1160
 1.8610	12.9750
 1.8620	12.8220
 1.8630	12.6620
 1.8640	12.4940
 1.8650	12.3160
 1.8660	12.1320
 1.8670	11.9360
 1.8680	11.7280
 1.8690	11.5130
 1.8700	11.2870
 1.8710	11.0490
 1.8720	10.8030
 1.8730	10.5490
 1.8740	10.2860
 1.8750	10.0150
 1.8760	 9.7390
 1.8770	 9.4650
 1.8780	 9.1880
 1.8790	 8.9070
 1.8800	 8.6280
 1.8810	 8.3500
 1.8820	 8.0700
 1.8830	 7.7880
 1.8840	 7.5140
 1.8850	 7.2410
 1.8860	 6.9680
 1.8870	 6.7050
 1.8880	 6.4470
 1.8890	 6.1990
 1.8900	 5.9620
 1.8910	 5.7360
 1.8920	 5.5170
 1.8930	 5.3120
 1.8940	 5.1200
 1.8950	 4.9410
 1.8960	 4.7750
 1.8970	 4.6220
 1.8980	 4.4780
 1.8990	 4.3470
 1.9000	 4.2260
 1.9010	 4.1170
 1.9020	 4.0170
 1.9030	 3.9270
 1.9040	 3.8470
 1.9050	 3.7720
 1.9060	 3.7070
 1.9070	 3.6490
 1.9080	 3.5970
 1.9090	 3.5520
 1.9100	 3.5130
 1.9110	 3.4760
 1.9120	 3.4430
 1.9130	 3.4130
 1.9140	 3.3860
 1.9150	 3.3620
 1.9160	 3.3400
 1.9170	 3.3230
 1.9180	 3.3080
 1.9190	 3.2930
 1.9200	 3.2830
 1.9210	 3.2760
 1.9220	 3.2680
 1.9230	 3.2620
 1.9240	 3.2560
 1.9250	 3.2490
 1.9260	 3.2440
 1.9270	 3.2410
 1.9280	 3.2370
 1.9290	 3.2340
 1.9300	 3.2300
 1.9310	 3.2290
 1.9320	 3.2310
 1.9330	 3.2340
 1.9340	 3.2410
 1.9350	 3.2470
 1.9360	 3.2530
 1.9370	 3.2600
 1.9380	 3.2680
 1.9390	 3.2760
 1.9400	 3.2860
 1.9410	 3.2990
 1.9420	 3.3120
 1.9430	 3.3240
 1.9440	 3.3360
 1.9450	 3.3440
 1.9460	 3.3560
 1.9470	 3.3690
 1.9480	 3.3830
 1.9490	 3.3990
 1.9500	 3.4160
 1.9510	 3.4330
 1.9520	 3.4500
 1.9530	 3.4680
 1.9540	 3.4860
 1.9550	 3.5050
 1.9560	 3.5240
 1.9570	 3.5430
 1.9580	 3.5640
 1.9590	 3.5840
 1.9600	 3.6040
 1.9610	 3.6250
 1.9620	 3.6480
 1.9630	 3.6700
 1.9640	 3.6940
 1.9650	 3.7170
 1.9660	 3.7400
 1.9670	 3.7630
 1.9680	 3.7860
 1.9690	 3.8080
 1.9700	 3.8340
 1.9710	 3.8620
 1.9720	 3.8900
 1.9730	 3.9190
 1.9740	 3.9480
 1.9750	 3.9760
 1.9760	 4.0040
 1.9770	 4.0320
 1.9780	 4.0610
 1.9790	 4.0910
 1.9800	 4.1240
 1.9810	 4.1540
 1.9820	 4.1850
 1.9830	 4.2150
 1.9840	 4.2430
 1.9850	 4.2740
 1.9860	 4.3070
 1.9870	 4.3410
 1.9880	 4.3760
 1.9890	 4.4100
 1.9900	 4.4460
 1.9910	 4.4830
 1.9920	 4.5180
 1.9930	 4.5510
 1.9940	 4.5870
 1.9950	 4.6240
 1.9960	 4.6610
 1.9970	 4.6990
 1.9980	 4.7350
 1.9990	 4.7710
 2.0000	 4.8040
 2.0010	 4.8400
 2.0020	 4.8770
 2.0030	 4.9140
 2.0040	 4.9530
 2.0050	 4.9920
 2.0060	 5.0310
 2.0070	 5.0690
 2.0080	 5.1080
 2.0090	 5.1450
 2.0100	 5.1810
 2.0110	 5.2180
 2.0120	 5.2560
 2.0130	 5.2910
 2.0140	 5.3280
 2.0150	 5.3630
 2.0160	 5.3970
 2.0170	 5.4350
 2.0180	 5.4730
 2.0190	 5.5140
 2.0200	 5.5510
 2.0210	 5.5890
 2.0220	 5.6240
 2.0230	 5.6520
 2.0240	 5.6860
 2.0250	 5.7200
 2.0260	 5.7550
 2.0270	 5.7910
 2.0280	 5.8290
 2.0290	 5.8630
 2.0300	 5.8980
 2.0310	 5.9320
 2.0320	 5.9640
 2.0330	 5.9950
 2.0340	 6.0240
 2.0350	 6.0560
 2.0360	 6.0860
 2.0370	 6.1170
 2.0380	 6.1490
 2.0390	 6.1800
 2.0400	 6.2080
 2.0410	 6.2370
 2.0420	 6.2660
 2.0430	 6.2950
 2.0440	 6.3250
 2.0450	 6.3570
 2.0460	 6.3870
 2.0470	 6.4180
 2.0480	 6.4480
 2.0490	 6.4770
 2.0500	 6.5040
 2.0510	 6.5300
 2.0520	 6.5580
 2.0530	 6.5840
 2.0540	 6.6120
 2.0550	 6.6420
 2.0560	 6.6760
 2.0570	 6.7080
 2.0580	 6.7380
 2.0590	 6.7700
 2.0600	 6.8010
 2.0610	 6.8320
 2.0620	 6.8640
 2.0630	 6.8960
 2.0640	 6.9290
 2.0650	 6.9630
 2.0660	 7.0000
 2.0670	 7.0330
 2.0680	 7.0660
 2.0690	 7.0990
 2.0700	 7.1280
 2.0710	 7.1600
 2.0720	 7.1940
 2.0730	 7.2270
 2.0740	 7.2600
 2.0750	 7.2930
 2.0760	 7.3260
 2.0770	 7.3580
 2.0780	 7.3880
 2.0790	 7.4150
 2.0800	 7.4450
 2.0810	 7.4730
 2.0820	 7.5050
 2.0830	 7.5430
 2.0840	 7.5760
 2.0850	 7.6080
 2.0860	 7.6400
 2.0870	 7.6690
 2.0880	 7.7000
 2.0890	 7.7300
 2.0900	 7.7630
 2.0910	 7.7930
 2.0920	 7.8210
 2.0930	 7.8500
 2.0940	 7.8770
 2.0950	 7.9060
 2.0960	 7.9340
 2.0970	 7.9630
 2.0980	 7.9940
 2.0990	 8.0230
 2.1000	 8.0510
 2.1010	 8.0790
 2.1020	 8.1060
 2.1030	 8.1330
 2.1040	 8.1590
 2.1050	 8.1860
 2.1060	 8.2130
 2.1070	 8.2410
 2.1080	 8.2670
 2.1090	 8.2930
 2.1100	 8.3210
 2.1110	 8.3450
 2.1120	 8.3730
 2.1130	 8.4070
 2.1140	 8.4360
 2.1150	 8.4630
 2.1160	 8.4900
 2.1170	 8.5150
 2.1180	 8.5400
 2.1190	 8.5650
 2.1200	 8.5880
 2.1210	 8.6080
 2.1220	 8.6290
 2.1230	 8.6510
 2.1240	 8.6740
 2.1250	 8.6940
 2.1260	 8.7150
 2.1270	 8.7360
 2.1280	 8.7550
 2.1290	 8.7730
 2.1300	 8.7920
 2.1310	 8.8100
 2.1320	 8.8260
 2.1330	 8.8430
 2.1340	 8.8620
 2.1350	 8.8790
 2.1360	 8.8970
 2.1370	 8.9130
 2.1380	 8.9290
 2.1390	 8.9440
 2.1400	 8.9560
 2.1410	 8.9700
 2.1420	 8.9840
 2.1430	 8.9980
 2.1440	 9.0110
 2.1450	 9.0240
 2.1460	 9.0360
 2.1470	 9.0470
 2.1480	 9.0570
 2.1490	 9.0660
 2.1500	 9.0760
 2.1510	 9.0860
 2.1520	 9.0960
 2.1530	 9.1100
 2.1540	 9.1210
 2.1550	 9.1310
 2.1560	 9.1400
 2.1570	 9.1490
 2.1580	 9.1570
 2.1590	 9.1650
 2.1600	 9.1720
 2.1610	 9.1800
 2.1620	 9.1850
 2.1630	 9.1930
 2.1640	 9.2010
 2.1650	 9.2100
 2.1660	 9.2190
 2.1670	 9.2280
 2.1680	 9.2370
 2.1690	 9.2450
 2.1700	 9.2540
 2.1710	 9.2620
 2.1720	 9.2670
 2.1730	 9.2750
 2.1740	 9.2840
 2.1750	 9.2920
 2.1760	 9.3010
 2.1770	 9.3100
 2.1780	 9.3170
 2.1790	 9.3280
 2.1800	 9.3440
 2.1810	 9.3570
 2.1820	 9.3700
 2.1830	 9.3850
 2.1840	 9.3980
 2.1850	 9.4090
 2.1860	 9.4190
 2.1870	 9.4270
 2.1880	 9.4390
 2.1890	 9.4500
 2.1900	 9.4630
 2.1910	 9.4820
 2.1920	 9.4940
 2.1930	 9.5030
 2.1940	 9.5130
 2.1950	 9.5220
 2.1960	 9.5320
 2.1970	 9.5440
 2.1980	 9.5530
 2.1990	 9.5590
 2.2000	 9.5650
 2.2010	 9.5670
 2.2020	 9.5720
 2.2030	 9.5800
 2.2040	 9.5890
 2.2050	 9.5980
 2.2060	 9.6120
 2.2070	 9.6190
 2.2080	 9.6220
 2.2090	 9.6280
 2.2100	 9.6330
 2.2110	 9.6380
 2.2120	 9.6440
 2.2130	 9.6480
 2.2140	 9.6490
 2.2150	 9.6510
 2.2160	 9.6540
 2.2170	 9.6560
 2.2180	 9.6550
 2.2190	 9.6540
 2.2200	 9.6530
 2.2210	 9.6510
 2.2220	 9.6500
 2.2230	 9.6460
 2.2240	 9.6400
 2.2250	 9.6350
 2.2260	 9.6320
 2.2270	 9.6240
 2.2280	 9.6140
 2.2290	 9.6030
 2.2300	 9.5880
 2.2310	 9.5730
 2.2320	 9.5590
 2.2330	 9.5410
 2.2340	 9.5170
 2.2350	 9.4850
 2.2360	 9.4600
 2.2370	 9.4300
 2.2380	 9.4060
 2.2390	 9.3900
 2.2400	 9.3650
 2.2410	 9.3370
 2.2420	 9.3100
 2.2430	 9.2800
 2.2440	 9.2530
 2.2450	 9.2320
 2.2460	 9.2050
 2.2470	 9.1760
 2.2480	 9.1460
 2.2490	 9.1150
 2.2500	 9.0820
 2.2510	 9.0440
 2.2520	 9.0080
 2.2530	 8.9690
 2.2540	 8.9300
 2.2550	 8.8950
 2.2560	 8.8560
 2.2570	 8.8150
 2.2580	 8.7740
 2.2590	 8.7290
 2.2600	 8.6880
 2.2610	 8.6480
 2.2620	 8.6110
 2.2630	 8.5820
 2.2640	 8.5500
 2.2650	 8.5110
 2.2660	 8.4760
 2.2670	 8.4380
 2.2680	 8.3930
 2.2690	 8.3560
 2.2700	 8.3250
 2.2710	 8.2890
 2.2720	 8.2540
 2.2730	 8.2190
 2.2740	 8.1840
 2.2750	 8.1510
 2.2760	 8.1200
 2.2770	 8.0870
 2.2780	 8.0520
 2.2790	 8.0210
 2.2800	 7.9900
 2.2810	 7.9610
 2.2820	 7.9370
 2.2830	 7.9070
 2.2840	 7.8730
 2.2850	 7.8400
 2.2860	 7.8030
 2.2870	 7.7700
 2.2880	 7.7400
 2.2890	 7.7120
 2.2900	 7.6890
 2.2910	 7.6620
 2.2920	 7.6340
 2.2930	 7.6040
 2.2940	 7.5690
 2.2950	 7.5350
 2.2960	 7.5020
 2.2970	 7.4700
 2.2980	 7.4390
 2.2990	 7.4110
 2.3000	 7.3830
 2.3010	 7.3550
 2.3020	 7.3240
 2.3030	 7.2960
 2.3040	 7.2690
 2.3050	 7.2390
 2.3060	 7.2080
 2.3070	 7.1760
 2.3080	 7.1420
 2.3090	 7.1160
 2.3100	 7.0990
 2.3110	 7.0830
 2.3120	 7.0710
 2.3130	 7.0660
 2.3140	 7.0620
 2.3150	 7.0620
 2.3160	 7.0600
 2.3170	 7.0600
 2.3180	 7.0630
 2.3190	 7.0680
 2.3200	 7.0700
 2.3210	 7.0770
 2.3220	 7.0790
 2.3230	 7.0810
 2.3240	 7.0750
 2.3250	 7.0660
 2.3260	 7.0580
 2.3270	 7.0450
 2.3280	 7.0290
 2.3290	 7.0100
 2.3300	 6.9910
 2.3310	 6.9650
 2.3320	 6.9420
 2.3330	 6.9230
 2.3340	 6.9000
 2.3350	 6.8730
 2.3360	 6.8460
 2.3370	 6.8150
 2.3380	 6.7900
 2.3390	 6.7670
 2.3400	 6.7400
 2.3410	 6.7150
 2.3420	 6.6870
 2.3430	 6.6540
 2.3440	 6.6210
 2.3450	 6.5820
 2.3460	 6.5500
 2.3470	 6.5190
 2.3480	 6.4920
 2.3490	 6.4780
 2.3500	 6.4550
 2.3510	 6.4250
 2.3520	 6.4010
 2.3530	 6.3700
 2.3540	 6.3530
 2.3550	 6.3460
 2.3560	 6.3340
 2.3570	 6.3270
 2.3580	 6.3150
 2.3590	 6.2950
 2.3600	 6.2740
 2.3610	 6.2550
 2.3620	 6.2330
 2.3630	 6.2120
 2.3640	 6.1990
 2.3650	 6.1850
 2.3660	 6.1700
 2.3670	 6.1550
 2.3680	 6.1360
 2.3690	 6.1160
 2.3700	 6.0960
 2.3710	 6.0660
 2.3720	 6.0400
 2.3730	 6.0220
 2.3740	 5.9970
 2.3750	 5.9810
 2.3760	 5.9690
 2.3770	 5.9460
 2.3780	 5.9230
 2.3790	 5.9050
 2.3800	 5.8780
 2.3810	 5.8510
 2.3820	 5.8240
 2.3830	 5.7890
 2.3840	 5.7670
 2.3850	 5.7460
 2.3860	 5.7130
 2.3870	 5.6790
 2.3880	 5.6440
 2.3890	 5.6110
 2.3900	 5.5910
 2.3910	 5.5760
 2.3920	 5.5540
 2.3930	 5.5340
 2.3940	 5.5060
 2.3950	 5.4840
 2.3960	 5.4700
 2.3970	 5.4480
 2.3980	 5.4240
 2.3990	 5.3960
 2.4000	 5.3620
 2.4010	 5.3350
 2.4020	 5.3170
 2.4030	 5.2970
 2.4040	 5.2780
 2.4050	 5.2530
 2.4060	 5.2180
 2.4070	 5.1920
 2.4080	 5.1730
 2.4090	 5.1520
 2.4100	 5.1410
 2.4110	 5.1120
 2.4120	 5.0760
 2.4130	 5.0710
 2.4140	 5.0520
 2.4150	 5.0260
 2.4160	 5.0130
 2.4170	 4.9760
 2.4180	 4.9340
 2.4190	 4.9150
 2.4200	 4.8920
 2.4210	 4.8590
 2.4220	 4.8410
 2.4230	 4.8260
 2.4240	 4.8040
 2.4250	 4.7760
 2.4260	 4.7500
 2.4270	 4.7320
 2.4280	 4.7060
 2.4290	 4.6930
 2.4300	 4.6750
 2.4310	 4.6440
 2.4320	 4.6260
 2.4330	 4.5980
 2.4340	 4.5750
 2.4350	 4.5570
 2.4360	 4.5260
 2.4370	 4.5140
 2.4380	 4.4890
 2.4390	 4.4530
 2.4400	 4.4340
 2.4410	 4.4140
 2.4420	 4.4150
 2.4430	 4.4120
 2.4440	 4.3910
 2.4450	 4.3740
 2.4460	 4.3330
 2.4470	 4.3050
 2.4480	 4.2880
 2.4490	 4.2680
 2.4500	 4.2550
 2.4510	 4.2450
 2.4520	 4.2240
 2.4530	 4.1860
 2.4540	 4.1620
 2.4550	 4.1320
 2.4560	 4.1080
 2.4570	 4.1060
 2.4580	 4.1030
 2.4590	 4.0850
 2.4600	 4.0690
 2.4610	 4.0660
 2.4620	 4.0400
 2.4630	 4.0200
 2.4640	 4.0000
 2.4650	 3.9690
 2.4660	 3.9400
 2.4670	 3.9150
 2.4680	 3.9100
 2.4690	 3.8780
 2.4700	 3.8510
 2.4710	 3.8120
 2.4720	 3.7940
 2.4730	 3.7870
 2.4740	 3.7790
 2.4750	 3.8100
 2.4760	 3.8060
 2.4770	 3.7690
 2.4780	 3.7580
 2.4790	 3.7430
 2.4800	 3.7270
 2.4810	 3.7240
 2.4820	 3.7260
 2.4830	 3.7290
 2.4840	 3.7360
 2.4850	 3.7470
 2.4860	 3.7410
 2.4870	 3.7130
 2.4880	 3.6630
 2.4890	 3.6370
 2.4900	 3.6290
 2.4910	 3.5890
 2.4920	 3.5940
 2.4930	 3.6190
 2.4940	 3.6090
 2.4950	 3.6330
 2.4960	 3.6670
 2.4970	 3.6310
 2.4980	 3.5900
 2.4990	 3.5930
 2.5000	 3.5930
