Name: Quercus ilex
Type: vegetation
Class: Tree
Genus: Quercus
Species: ilex
Sample No.: JPL256
Owner: JPL
Wavelength Range: VSWIR
Origin: 34.13163; -118.1186; WGS84
Collection Date: 10/6/2016
Description: Samples were collected at the Huntington Garden in San Marino California as part of a JPL Subcontract studying HyTES imagery. Samples were taken to JPL and processed within 48 hours of collection. The same leaves were processed in the Nicolet and then measured using the ASD.
Measurement: Bidirectional reflectance
First Column: X
Second Column: Y
X Units: Wavelength (micrometer)
Y Units: Reflectance (percentage)
First X Value: 0.35
Last X Value: 2.5
Number of X Values: 2151
Additional Information: vegetation.tree.quercus.ilex.vswir.jpl256.jpl.asd.ancillary.txt

 0.3500	 6.5680
 0.3510	 6.4430
 0.3520	 6.3140
 0.3530	 6.2800
 0.3540	 6.3460
 0.3550	 6.2860
 0.3560	 6.2590
 0.3570	 6.2830
 0.3580	 6.2950
 0.3590	 6.2860
 0.3600	 6.2710
 0.3610	 6.2480
 0.3620	 6.1770
 0.3630	 6.1700
 0.3640	 6.2070
 0.3650	 6.2320
 0.3660	 6.2140
 0.3670	 6.1390
 0.3680	 6.0840
 0.3690	 6.1620
 0.3700	 6.1320
 0.3710	 6.1070
 0.3720	 6.1450
 0.3730	 6.1260
 0.3740	 6.1040
 0.3750	 6.0760
 0.3760	 6.0340
 0.3770	 6.0650
 0.3780	 6.0820
 0.3790	 6.0810
 0.3800	 6.1350
 0.3810	 6.1510
 0.3820	 6.1200
 0.3830	 6.0690
 0.3840	 6.0780
 0.3850	 6.0330
 0.3860	 6.0000
 0.3870	 6.0720
 0.3880	 6.0900
 0.3890	 6.0770
 0.3900	 6.0520
 0.3910	 6.0180
 0.3920	 5.9880
 0.3930	 5.9850
 0.3940	 6.0180
 0.3950	 6.0520
 0.3960	 6.0520
 0.3970	 6.0320
 0.3980	 6.0330
 0.3990	 6.0380
 0.4000	 6.0340
 0.4010	 6.0240
 0.4020	 6.0350
 0.4030	 6.0400
 0.4040	 6.0360
 0.4050	 6.0300
 0.4060	 6.0390
 0.4070	 6.0510
 0.4080	 6.0600
 0.4090	 6.0620
 0.4100	 6.0590
 0.4110	 6.0590
 0.4120	 6.0660
 0.4130	 6.0820
 0.4140	 6.0860
 0.4150	 6.0870
 0.4160	 6.0960
 0.4170	 6.1080
 0.4180	 6.1260
 0.4190	 6.1450
 0.4200	 6.1490
 0.4210	 6.1530
 0.4220	 6.1600
 0.4230	 6.1690
 0.4240	 6.1790
 0.4250	 6.1960
 0.4260	 6.2120
 0.4270	 6.2140
 0.4280	 6.2240
 0.4290	 6.2360
 0.4300	 6.2420
 0.4310	 6.2370
 0.4320	 6.2280
 0.4330	 6.2270
 0.4340	 6.2400
 0.4350	 6.2440
 0.4360	 6.2530
 0.4370	 6.2680
 0.4380	 6.2770
 0.4390	 6.2970
 0.4400	 6.3160
 0.4410	 6.3250
 0.4420	 6.3450
 0.4430	 6.3560
 0.4440	 6.3600
 0.4450	 6.3700
 0.4460	 6.3810
 0.4470	 6.3950
 0.4480	 6.4070
 0.4490	 6.4110
 0.4500	 6.4150
 0.4510	 6.4220
 0.4520	 6.4330
 0.4530	 6.4430
 0.4540	 6.4460
 0.4550	 6.4510
 0.4560	 6.4680
 0.4570	 6.4790
 0.4580	 6.4830
 0.4590	 6.4840
 0.4600	 6.4910
 0.4610	 6.4930
 0.4620	 6.4930
 0.4630	 6.5020
 0.4640	 6.5100
 0.4650	 6.5130
 0.4660	 6.5110
 0.4670	 6.5120
 0.4680	 6.5150
 0.4690	 6.5210
 0.4700	 6.5290
 0.4710	 6.5300
 0.4720	 6.5380
 0.4730	 6.5470
 0.4740	 6.5430
 0.4750	 6.5450
 0.4760	 6.5520
 0.4770	 6.5580
 0.4780	 6.5530
 0.4790	 6.5540
 0.4800	 6.5570
 0.4810	 6.5540
 0.4820	 6.5550
 0.4830	 6.5610
 0.4840	 6.5670
 0.4850	 6.5650
 0.4860	 6.5640
 0.4870	 6.5640
 0.4880	 6.5690
 0.4890	 6.5820
 0.4900	 6.5930
 0.4910	 6.6030
 0.4920	 6.6140
 0.4930	 6.6220
 0.4940	 6.6310
 0.4950	 6.6440
 0.4960	 6.6640
 0.4970	 6.6780
 0.4980	 6.6890
 0.4990	 6.7060
 0.5000	 6.7230
 0.5010	 6.7410
 0.5020	 6.7620
 0.5030	 6.7830
 0.5040	 6.8060
 0.5050	 6.8310
 0.5060	 6.8600
 0.5070	 6.8920
 0.5080	 6.9270
 0.5090	 6.9630
 0.5100	 6.9990
 0.5110	 7.0450
 0.5120	 7.0960
 0.5130	 7.1470
 0.5140	 7.2020
 0.5150	 7.2660
 0.5160	 7.3390
 0.5170	 7.4160
 0.5180	 7.4970
 0.5190	 7.5830
 0.5200	 7.6720
 0.5210	 7.7660
 0.5220	 7.8620
 0.5230	 7.9630
 0.5240	 8.0670
 0.5250	 8.1670
 0.5260	 8.2680
 0.5270	 8.3680
 0.5280	 8.4610
 0.5290	 8.5520
 0.5300	 8.6390
 0.5310	 8.7180
 0.5320	 8.7890
 0.5330	 8.8560
 0.5340	 8.9190
 0.5350	 8.9770
 0.5360	 9.0260
 0.5370	 9.0680
 0.5380	 9.1050
 0.5390	 9.1340
 0.5400	 9.1550
 0.5410	 9.1690
 0.5420	 9.1810
 0.5430	 9.1960
 0.5440	 9.2150
 0.5450	 9.2400
 0.5460	 9.2690
 0.5470	 9.3010
 0.5480	 9.3310
 0.5490	 9.3560
 0.5500	 9.3750
 0.5510	 9.3860
 0.5520	 9.3910
 0.5530	 9.3930
 0.5540	 9.3910
 0.5550	 9.3790
 0.5560	 9.3590
 0.5570	 9.3340
 0.5580	 9.3020
 0.5590	 9.2630
 0.5600	 9.2190
 0.5610	 9.1700
 0.5620	 9.1190
 0.5630	 9.0650
 0.5640	 9.0070
 0.5650	 8.9460
 0.5660	 8.8840
 0.5670	 8.8210
 0.5680	 8.7520
 0.5690	 8.6810
 0.5700	 8.6110
 0.5710	 8.5450
 0.5720	 8.4810
 0.5730	 8.4210
 0.5740	 8.3660
 0.5750	 8.3150
 0.5760	 8.2720
 0.5770	 8.2320
 0.5780	 8.1910
 0.5790	 8.1560
 0.5800	 8.1240
 0.5810	 8.0940
 0.5820	 8.0630
 0.5830	 8.0340
 0.5840	 8.0060
 0.5850	 7.9790
 0.5860	 7.9490
 0.5870	 7.9200
 0.5880	 7.8980
 0.5890	 7.8840
 0.5900	 7.8740
 0.5910	 7.8630
 0.5920	 7.8490
 0.5930	 7.8370
 0.5940	 7.8310
 0.5950	 7.8310
 0.5960	 7.8330
 0.5970	 7.8320
 0.5980	 7.8290
 0.5990	 7.8250
 0.6000	 7.8190
 0.6010	 7.8130
 0.6020	 7.8030
 0.6030	 7.7890
 0.6040	 7.7750
 0.6050	 7.7580
 0.6060	 7.7380
 0.6070	 7.7130
 0.6080	 7.6860
 0.6090	 7.6550
 0.6100	 7.6140
 0.6110	 7.5640
 0.6120	 7.5380
 0.6130	 7.5250
 0.6140	 7.5130
 0.6150	 7.4980
 0.6160	 7.4800
 0.6170	 7.4610
 0.6180	 7.4420
 0.6190	 7.4270
 0.6200	 7.4130
 0.6210	 7.4000
 0.6220	 7.3900
 0.6230	 7.3830
 0.6240	 7.3760
 0.6250	 7.3680
 0.6260	 7.3650
 0.6270	 7.3640
 0.6280	 7.3620
 0.6290	 7.3600
 0.6300	 7.3550
 0.6310	 7.3510
 0.6320	 7.3500
 0.6330	 7.3540
 0.6340	 7.3510
 0.6350	 7.3450
 0.6360	 7.3390
 0.6370	 7.3260
 0.6380	 7.3120
 0.6390	 7.2990
 0.6400	 7.2830
 0.6410	 7.2690
 0.6420	 7.2540
 0.6430	 7.2350
 0.6440	 7.2190
 0.6450	 7.2040
 0.6460	 7.1910
 0.6470	 7.1790
 0.6480	 7.1660
 0.6490	 7.1560
 0.6500	 7.1490
 0.6510	 7.1430
 0.6520	 7.1380
 0.6530	 7.1340
 0.6540	 7.1320
 0.6550	 7.1280
 0.6560	 7.1220
 0.6570	 7.1170
 0.6580	 7.1110
 0.6590	 7.1050
 0.6600	 7.0970
 0.6610	 7.0900
 0.6620	 7.0820
 0.6630	 7.0780
 0.6640	 7.0770
 0.6650	 7.0770
 0.6660	 7.0790
 0.6670	 7.0830
 0.6680	 7.0890
 0.6690	 7.0970
 0.6700	 7.1080
 0.6710	 7.1210
 0.6720	 7.1390
 0.6730	 7.1590
 0.6740	 7.1800
 0.6750	 7.2040
 0.6760	 7.2320
 0.6770	 7.2600
 0.6780	 7.2920
 0.6790	 7.3270
 0.6800	 7.3600
 0.6810	 7.3980
 0.6820	 7.4400
 0.6830	 7.4810
 0.6840	 7.5210
 0.6850	 7.5610
 0.6860	 7.6010
 0.6870	 7.6400
 0.6880	 7.6830
 0.6890	 7.7330
 0.6900	 7.7930
 0.6910	 7.8700
 0.6920	 7.9670
 0.6930	 8.0880
 0.6940	 8.2360
 0.6950	 8.4210
 0.6960	 8.6420
 0.6970	 8.9030
 0.6980	 9.2060
 0.6990	 9.5520
 0.7000	 9.9400
 0.7010	10.3680
 0.7020	10.8350
 0.7030	11.3370
 0.7040	11.8720
 0.7050	12.4370
 0.7060	13.0300
 0.7070	13.6520
 0.7080	14.3000
 0.7090	14.9740
 0.7100	15.6740
 0.7110	16.4010
 0.7120	17.1530
 0.7130	17.9330
 0.7140	18.7390
 0.7150	19.5700
 0.7160	20.4220
 0.7170	21.2980
 0.7180	22.1930
 0.7190	23.1040
 0.7200	24.0290
 0.7210	24.9660
 0.7220	25.9130
 0.7230	26.8650
 0.7240	27.8160
 0.7250	28.7660
 0.7260	29.7080
 0.7270	30.6380
 0.7280	31.5530
 0.7290	32.4530
 0.7300	33.3340
 0.7310	34.1920
 0.7320	35.0260
 0.7330	35.8330
 0.7340	36.6090
 0.7350	37.3550
 0.7360	38.0710
 0.7370	38.7560
 0.7380	39.4080
 0.7390	40.0270
 0.7400	40.6120
 0.7410	41.1640
 0.7420	41.6840
 0.7430	42.1690
 0.7440	42.6220
 0.7450	43.0430
 0.7460	43.4350
 0.7470	43.7970
 0.7480	44.1300
 0.7490	44.4340
 0.7500	44.7190
 0.7510	44.9800
 0.7520	45.2160
 0.7530	45.4310
 0.7540	45.6300
 0.7550	45.8110
 0.7560	45.9760
 0.7570	46.1280
 0.7580	46.2650
 0.7590	46.3930
 0.7600	46.5100
 0.7610	46.6140
 0.7620	46.7110
 0.7630	46.7980
 0.7640	46.8750
 0.7650	46.9470
 0.7660	47.0150
 0.7670	47.0760
 0.7680	47.1280
 0.7690	47.1760
 0.7700	47.2200
 0.7710	47.2630
 0.7720	47.3050
 0.7730	47.3420
 0.7740	47.3770
 0.7750	47.4140
 0.7760	47.4440
 0.7770	47.4740
 0.7780	47.5050
 0.7790	47.5350
 0.7800	47.5640
 0.7810	47.5920
 0.7820	47.6180
 0.7830	47.6430
 0.7840	47.6670
 0.7850	47.6910
 0.7860	47.7140
 0.7870	47.7360
 0.7880	47.7570
 0.7890	47.7760
 0.7900	47.7920
 0.7910	47.8110
 0.7920	47.8310
 0.7930	47.8480
 0.7940	47.8630
 0.7950	47.8760
 0.7960	47.8900
 0.7970	47.9020
 0.7980	47.9140
 0.7990	47.9260
 0.8000	47.9370
 0.8010	47.9460
 0.8020	47.9550
 0.8030	47.9640
 0.8040	47.9720
 0.8050	47.9810
 0.8060	47.9880
 0.8070	47.9930
 0.8080	47.9970
 0.8090	48.0030
 0.8100	48.0080
 0.8110	48.0130
 0.8120	48.0160
 0.8130	48.0140
 0.8140	48.0160
 0.8150	48.0200
 0.8160	48.0240
 0.8170	48.0250
 0.8180	48.0280
 0.8190	48.0310
 0.8200	48.0320
 0.8210	48.0340
 0.8220	48.0340
 0.8230	48.0330
 0.8240	48.0340
 0.8250	48.0350
 0.8260	48.0350
 0.8270	48.0360
 0.8280	48.0370
 0.8290	48.0370
 0.8300	48.0370
 0.8310	48.0390
 0.8320	48.0390
 0.8330	48.0440
 0.8340	48.0490
 0.8350	48.0500
 0.8360	48.0520
 0.8370	48.0570
 0.8380	48.0630
 0.8390	48.0680
 0.8400	48.0750
 0.8410	48.0820
 0.8420	48.0890
 0.8430	48.0940
 0.8440	48.1040
 0.8450	48.1130
 0.8460	48.1190
 0.8470	48.1300
 0.8480	48.1410
 0.8490	48.1510
 0.8500	48.1600
 0.8510	48.1690
 0.8520	48.1790
 0.8530	48.1890
 0.8540	48.1990
 0.8550	48.2100
 0.8560	48.2210
 0.8570	48.2320
 0.8580	48.2440
 0.8590	48.2580
 0.8600	48.2720
 0.8610	48.2870
 0.8620	48.2990
 0.8630	48.3120
 0.8640	48.3260
 0.8650	48.3390
 0.8660	48.3540
 0.8670	48.3700
 0.8680	48.3870
 0.8690	48.4020
 0.8700	48.4180
 0.8710	48.4350
 0.8720	48.4520
 0.8730	48.4630
 0.8740	48.4830
 0.8750	48.5030
 0.8760	48.5180
 0.8770	48.5290
 0.8780	48.5400
 0.8790	48.5560
 0.8800	48.5750
 0.8810	48.5920
 0.8820	48.6100
 0.8830	48.6280
 0.8840	48.6450
 0.8850	48.6550
 0.8860	48.6680
 0.8870	48.6840
 0.8880	48.6970
 0.8890	48.7080
 0.8900	48.7260
 0.8910	48.7440
 0.8920	48.7530
 0.8930	48.7650
 0.8940	48.7780
 0.8950	48.7910
 0.8960	48.8040
 0.8970	48.8180
 0.8980	48.8330
 0.8990	48.8470
 0.9000	48.8620
 0.9010	48.8740
 0.9020	48.8840
 0.9030	48.8960
 0.9040	48.9130
 0.9050	48.9220
 0.9060	48.9320
 0.9070	48.9480
 0.9080	48.9590
 0.9090	48.9670
 0.9100	48.9760
 0.9110	48.9870
 0.9120	48.9990
 0.9130	49.0080
 0.9140	49.0140
 0.9150	49.0220
 0.9160	49.0330
 0.9170	49.0390
 0.9180	49.0440
 0.9190	49.0560
 0.9200	49.0600
 0.9210	49.0600
 0.9220	49.0620
 0.9230	49.0710
 0.9240	49.0750
 0.9250	49.0700
 0.9260	49.0650
 0.9270	49.0720
 0.9280	49.0680
 0.9290	49.0560
 0.9300	49.0470
 0.9310	49.0520
 0.9320	49.0500
 0.9330	49.0420
 0.9340	49.0320
 0.9350	49.0180
 0.9360	49.0110
 0.9370	49.0020
 0.9380	48.9870
 0.9390	48.9770
 0.9400	48.9590
 0.9410	48.9420
 0.9420	48.9280
 0.9430	48.9120
 0.9440	48.8910
 0.9450	48.8610
 0.9460	48.8290
 0.9470	48.8050
 0.9480	48.7830
 0.9490	48.7540
 0.9500	48.7120
 0.9510	48.6650
 0.9520	48.6180
 0.9530	48.5720
 0.9540	48.5270
 0.9550	48.4750
 0.9560	48.4340
 0.9570	48.3940
 0.9580	48.3430
 0.9590	48.2960
 0.9600	48.2560
 0.9610	48.2240
 0.9620	48.1940
 0.9630	48.1610
 0.9640	48.1310
 0.9650	48.1070
 0.9660	48.0840
 0.9670	48.0600
 0.9680	48.0380
 0.9690	48.0220
 0.9700	48.0110
 0.9710	47.9880
 0.9720	47.9750
 0.9730	47.9730
 0.9740	47.9710
 0.9750	47.9550
 0.9760	47.9490
 0.9770	47.9530
 0.9780	47.9550
 0.9790	47.9530
 0.9800	47.9410
 0.9810	47.9310
 0.9820	47.9370
 0.9830	47.9450
 0.9840	47.9420
 0.9850	47.9370
 0.9860	47.9490
 0.9870	47.9590
 0.9880	47.9790
 0.9890	48.0000
 0.9900	48.0080
 0.9910	48.0170
 0.9920	48.0310
 0.9930	48.0500
 0.9940	48.0710
 0.9950	48.0990
 0.9960	48.1230
 0.9970	48.1350
 0.9980	48.1370
 0.9990	48.1580
 1.0000	48.1860
 1.0010	48.6540
 1.0020	48.6710
 1.0030	48.6890
 1.0040	48.7080
 1.0050	48.7260
 1.0060	48.7490
 1.0070	48.7740
 1.0080	48.7980
 1.0090	48.8250
 1.0100	48.8480
 1.0110	48.8710
 1.0120	48.8940
 1.0130	48.9180
 1.0140	48.9400
 1.0150	48.9630
 1.0160	48.9820
 1.0170	49.0030
 1.0180	49.0270
 1.0190	49.0500
 1.0200	49.0720
 1.0210	49.0920
 1.0220	49.1130
 1.0230	49.1360
 1.0240	49.1620
 1.0250	49.1840
 1.0260	49.2040
 1.0270	49.2260
 1.0280	49.2480
 1.0290	49.2690
 1.0300	49.2900
 1.0310	49.3110
 1.0320	49.3330
 1.0330	49.3500
 1.0340	49.3730
 1.0350	49.3950
 1.0360	49.4120
 1.0370	49.4280
 1.0380	49.4440
 1.0390	49.4570
 1.0400	49.4730
 1.0410	49.4890
 1.0420	49.5070
 1.0430	49.5260
 1.0440	49.5450
 1.0450	49.5690
 1.0460	49.5850
 1.0470	49.5960
 1.0480	49.6100
 1.0490	49.6200
 1.0500	49.6330
 1.0510	49.6510
 1.0520	49.6690
 1.0530	49.6830
 1.0540	49.6970
 1.0550	49.7090
 1.0560	49.7180
 1.0570	49.7290
 1.0580	49.7410
 1.0590	49.7540
 1.0600	49.7690
 1.0610	49.7830
 1.0620	49.8000
 1.0630	49.8140
 1.0640	49.8270
 1.0650	49.8390
 1.0660	49.8470
 1.0670	49.8580
 1.0680	49.8690
 1.0690	49.8830
 1.0700	49.8930
 1.0710	49.9020
 1.0720	49.9120
 1.0730	49.9200
 1.0740	49.9280
 1.0750	49.9380
 1.0760	49.9460
 1.0770	49.9510
 1.0780	49.9590
 1.0790	49.9700
 1.0800	49.9770
 1.0810	49.9840
 1.0820	49.9900
 1.0830	49.9940
 1.0840	49.9970
 1.0850	49.9980
 1.0860	50.0020
 1.0870	50.0040
 1.0880	50.0020
 1.0890	50.0050
 1.0900	50.0090
 1.0910	50.0110
 1.0920	50.0160
 1.0930	50.0170
 1.0940	50.0150
 1.0950	50.0130
 1.0960	50.0090
 1.0970	50.0080
 1.0980	50.0090
 1.0990	50.0060
 1.1000	50.0010
 1.1010	49.9970
 1.1020	49.9900
 1.1030	49.9840
 1.1040	49.9810
 1.1050	49.9790
 1.1060	49.9720
 1.1070	49.9620
 1.1080	49.9540
 1.1090	49.9440
 1.1100	49.9340
 1.1110	49.9270
 1.1120	49.9160
 1.1130	49.9040
 1.1140	49.8910
 1.1150	49.8780
 1.1160	49.8620
 1.1170	49.8450
 1.1180	49.8260
 1.1190	49.8070
 1.1200	49.7830
 1.1210	49.7570
 1.1220	49.7300
 1.1230	49.6960
 1.1240	49.6600
 1.1250	49.6190
 1.1260	49.5770
 1.1270	49.5270
 1.1280	49.4720
 1.1290	49.4120
 1.1300	49.3460
 1.1310	49.2740
 1.1320	49.1970
 1.1330	49.1140
 1.1340	49.0250
 1.1350	48.9300
 1.1360	48.8280
 1.1370	48.7210
 1.1380	48.6060
 1.1390	48.4860
 1.1400	48.3610
 1.1410	48.2340
 1.1420	48.1050
 1.1430	47.9740
 1.1440	47.8430
 1.1450	47.7110
 1.1460	47.5800
 1.1470	47.4480
 1.1480	47.3200
 1.1490	47.1920
 1.1500	47.0710
 1.1510	46.9530
 1.1520	46.8390
 1.1530	46.7280
 1.1540	46.6250
 1.1550	46.5290
 1.1560	46.4360
 1.1570	46.3520
 1.1580	46.2750
 1.1590	46.1990
 1.1600	46.1300
 1.1610	46.0660
 1.1620	46.0050
 1.1630	45.9500
 1.1640	45.9010
 1.1650	45.8530
 1.1660	45.8110
 1.1670	45.7700
 1.1680	45.7340
 1.1690	45.6970
 1.1700	45.6640
 1.1710	45.6310
 1.1720	45.5980
 1.1730	45.5650
 1.1740	45.5320
 1.1750	45.5010
 1.1760	45.4680
 1.1770	45.4370
 1.1780	45.4040
 1.1790	45.3710
 1.1800	45.3380
 1.1810	45.3050
 1.1820	45.2730
 1.1830	45.2430
 1.1840	45.2100
 1.1850	45.1790
 1.1860	45.1500
 1.1870	45.1210
 1.1880	45.0950
 1.1890	45.0720
 1.1900	45.0490
 1.1910	45.0260
 1.1920	45.0070
 1.1930	44.9890
 1.1940	44.9730
 1.1950	44.9580
 1.1960	44.9440
 1.1970	44.9330
 1.1980	44.9260
 1.1990	44.9200
 1.2000	44.9190
 1.2010	44.9170
 1.2020	44.9140
 1.2030	44.9150
 1.2040	44.9190
 1.2050	44.9250
 1.2060	44.9350
 1.2070	44.9480
 1.2080	44.9620
 1.2090	44.9790
 1.2100	45.0000
 1.2110	45.0230
 1.2120	45.0490
 1.2130	45.0800
 1.2140	45.1140
 1.2150	45.1510
 1.2160	45.1910
 1.2170	45.2320
 1.2180	45.2760
 1.2190	45.3230
 1.2200	45.3700
 1.2210	45.4200
 1.2220	45.4700
 1.2230	45.5210
 1.2240	45.5750
 1.2250	45.6260
 1.2260	45.6750
 1.2270	45.7250
 1.2280	45.7720
 1.2290	45.8180
 1.2300	45.8630
 1.2310	45.9060
 1.2320	45.9470
 1.2330	45.9870
 1.2340	46.0260
 1.2350	46.0640
 1.2360	46.1000
 1.2370	46.1340
 1.2380	46.1690
 1.2390	46.2010
 1.2400	46.2320
 1.2410	46.2630
 1.2420	46.2920
 1.2430	46.3190
 1.2440	46.3480
 1.2450	46.3740
 1.2460	46.3970
 1.2470	46.4210
 1.2480	46.4430
 1.2490	46.4670
 1.2500	46.4910
 1.2510	46.5140
 1.2520	46.5360
 1.2530	46.5550
 1.2540	46.5720
 1.2550	46.5900
 1.2560	46.6040
 1.2570	46.6210
 1.2580	46.6360
 1.2590	46.6500
 1.2600	46.6650
 1.2610	46.6770
 1.2620	46.6860
 1.2630	46.6940
 1.2640	46.7000
 1.2650	46.7030
 1.2660	46.7070
 1.2670	46.7110
 1.2680	46.7160
 1.2690	46.7200
 1.2700	46.7230
 1.2710	46.7240
 1.2720	46.7220
 1.2730	46.7190
 1.2740	46.7160
 1.2750	46.7100
 1.2760	46.7050
 1.2770	46.6980
 1.2780	46.6900
 1.2790	46.6830
 1.2800	46.6740
 1.2810	46.6640
 1.2820	46.6530
 1.2830	46.6400
 1.2840	46.6250
 1.2850	46.6110
 1.2860	46.5940
 1.2870	46.5740
 1.2880	46.5520
 1.2890	46.5320
 1.2900	46.5070
 1.2910	46.4820
 1.2920	46.4580
 1.2930	46.4280
 1.2940	46.3960
 1.2950	46.3640
 1.2960	46.3290
 1.2970	46.2930
 1.2980	46.2580
 1.2990	46.2190
 1.3000	46.1770
 1.3010	46.1310
 1.3020	46.0820
 1.3030	46.0310
 1.3040	45.9760
 1.3050	45.9200
 1.3060	45.8610
 1.3070	45.7990
 1.3080	45.7360
 1.3090	45.6710
 1.3100	45.6020
 1.3110	45.5310
 1.3120	45.4560
 1.3130	45.3790
 1.3140	45.2970
 1.3150	45.2130
 1.3160	45.1240
 1.3170	45.0310
 1.3180	44.9340
 1.3190	44.8350
 1.3200	44.7330
 1.3210	44.6290
 1.3220	44.5220
 1.3230	44.4130
 1.3240	44.3020
 1.3250	44.1870
 1.3260	44.0690
 1.3270	43.9460
 1.3280	43.8190
 1.3290	43.6880
 1.3300	43.5570
 1.3310	43.4230
 1.3320	43.2860
 1.3330	43.1480
 1.3340	43.0080
 1.3350	42.8680
 1.3360	42.7270
 1.3370	42.5840
 1.3380	42.4400
 1.3390	42.2960
 1.3400	42.1530
 1.3410	42.0100
 1.3420	41.8680
 1.3430	41.7270
 1.3440	41.5860
 1.3450	41.4480
 1.3460	41.3120
 1.3470	41.1770
 1.3480	41.0420
 1.3490	40.9110
 1.3500	40.7830
 1.3510	40.6540
 1.3520	40.5260
 1.3530	40.4020
 1.3540	40.2740
 1.3550	40.1480
 1.3560	40.0230
 1.3570	39.8970
 1.3580	39.7700
 1.3590	39.6410
 1.3600	39.5100
 1.3610	39.3770
 1.3620	39.2380
 1.3630	39.0960
 1.3640	38.9490
 1.3650	38.7940
 1.3660	38.6330
 1.3670	38.4650
 1.3680	38.2870
 1.3690	38.1010
 1.3700	37.9030
 1.3710	37.6940
 1.3720	37.4730
 1.3730	37.2340
 1.3740	36.9820
 1.3750	36.7120
 1.3760	36.4200
 1.3770	36.1090
 1.3780	35.7740
 1.3790	35.4170
 1.3800	35.0380
 1.3810	34.6330
 1.3820	34.2080
 1.3830	33.7600
 1.3840	33.2930
 1.3850	32.8040
 1.3860	32.2980
 1.3870	31.7670
 1.3880	31.2290
 1.3890	30.6750
 1.3900	30.1090
 1.3910	29.5420
 1.3920	28.9680
 1.3930	28.3880
 1.3940	27.8110
 1.3950	27.2300
 1.3960	26.6560
 1.3970	26.0920
 1.3980	25.5360
 1.3990	24.9970
 1.4000	24.4720
 1.4010	23.9580
 1.4020	23.4640
 1.4030	22.9840
 1.4040	22.5220
 1.4050	22.0800
 1.4060	21.6570
 1.4070	21.2590
 1.4080	20.8790
 1.4090	20.5180
 1.4100	20.1790
 1.4110	19.8570
 1.4120	19.5530
 1.4130	19.2700
 1.4140	19.0040
 1.4150	18.7580
 1.4160	18.5280
 1.4170	18.3130
 1.4180	18.1130
 1.4190	17.9250
 1.4200	17.7500
 1.4210	17.5860
 1.4220	17.4330
 1.4230	17.2930
 1.4240	17.1620
 1.4250	17.0410
 1.4260	16.9300
 1.4270	16.8250
 1.4280	16.7300
 1.4290	16.6410
 1.4300	16.5590
 1.4310	16.4830
 1.4320	16.4150
 1.4330	16.3530
 1.4340	16.2990
 1.4350	16.2490
 1.4360	16.2040
 1.4370	16.1630
 1.4380	16.1280
 1.4390	16.0950
 1.4400	16.0680
 1.4410	16.0440
 1.4420	16.0240
 1.4430	16.0080
 1.4440	15.9950
 1.4450	15.9830
 1.4460	15.9740
 1.4470	15.9680
 1.4480	15.9640
 1.4490	15.9620
 1.4500	15.9630
 1.4510	15.9650
 1.4520	15.9690
 1.4530	15.9750
 1.4540	15.9820
 1.4550	15.9910
 1.4560	16.0040
 1.4570	16.0180
 1.4580	16.0350
 1.4590	16.0560
 1.4600	16.0790
 1.4610	16.1060
 1.4620	16.1360
 1.4630	16.1700
 1.4640	16.2070
 1.4650	16.2490
 1.4660	16.2950
 1.4670	16.3450
 1.4680	16.4000
 1.4690	16.4600
 1.4700	16.5220
 1.4710	16.5890
 1.4720	16.6590
 1.4730	16.7320
 1.4740	16.8100
 1.4750	16.8900
 1.4760	16.9750
 1.4770	17.0600
 1.4780	17.1480
 1.4790	17.2380
 1.4800	17.3300
 1.4810	17.4240
 1.4820	17.5200
 1.4830	17.6180
 1.4840	17.7190
 1.4850	17.8200
 1.4860	17.9220
 1.4870	18.0250
 1.4880	18.1280
 1.4890	18.2330
 1.4900	18.3390
 1.4910	18.4460
 1.4920	18.5540
 1.4930	18.6640
 1.4940	18.7740
 1.4950	18.8840
 1.4960	18.9950
 1.4970	19.1030
 1.4980	19.2150
 1.4990	19.3260
 1.5000	19.4390
 1.5010	19.5540
 1.5020	19.6680
 1.5030	19.7820
 1.5040	19.8960
 1.5050	20.0080
 1.5060	20.1220
 1.5070	20.2350
 1.5080	20.3490
 1.5090	20.4630
 1.5100	20.5780
 1.5110	20.6930
 1.5120	20.8070
 1.5130	20.9210
 1.5140	21.0350
 1.5150	21.1480
 1.5160	21.2610
 1.5170	21.3740
 1.5180	21.4860
 1.5190	21.5980
 1.5200	21.7090
 1.5210	21.8190
 1.5220	21.9290
 1.5230	22.0380
 1.5240	22.1470
 1.5250	22.2560
 1.5260	22.3620
 1.5270	22.4680
 1.5280	22.5740
 1.5290	22.6770
 1.5300	22.7800
 1.5310	22.8830
 1.5320	22.9860
 1.5330	23.0880
 1.5340	23.1900
 1.5350	23.2900
 1.5360	23.3900
 1.5370	23.4890
 1.5380	23.5870
 1.5390	23.6860
 1.5400	23.7840
 1.5410	23.8810
 1.5420	23.9780
 1.5430	24.0730
 1.5440	24.1670
 1.5450	24.2600
 1.5460	24.3540
 1.5470	24.4470
 1.5480	24.5380
 1.5490	24.6300
 1.5500	24.7210
 1.5510	24.8110
 1.5520	24.9030
 1.5530	24.9900
 1.5540	25.0770
 1.5550	25.1650
 1.5560	25.2510
 1.5570	25.3360
 1.5580	25.4210
 1.5590	25.5040
 1.5600	25.5850
 1.5610	25.6650
 1.5620	25.7450
 1.5630	25.8240
 1.5640	25.9020
 1.5650	25.9820
 1.5660	26.0580
 1.5670	26.1350
 1.5680	26.2110
 1.5690	26.2850
 1.5700	26.3600
 1.5710	26.4350
 1.5720	26.5080
 1.5730	26.5840
 1.5740	26.6580
 1.5750	26.7320
 1.5760	26.8070
 1.5770	26.8790
 1.5780	26.9510
 1.5790	27.0230
 1.5800	27.0940
 1.5810	27.1660
 1.5820	27.2370
 1.5830	27.3080
 1.5840	27.3800
 1.5850	27.4510
 1.5860	27.5240
 1.5870	27.5970
 1.5880	27.6680
 1.5890	27.7410
 1.5900	27.8120
 1.5910	27.8830
 1.5920	27.9550
 1.5930	28.0270
 1.5940	28.0980
 1.5950	28.1710
 1.5960	28.2420
 1.5970	28.3120
 1.5980	28.3820
 1.5990	28.4520
 1.6000	28.5220
 1.6010	28.5910
 1.6020	28.6610
 1.6030	28.7300
 1.6040	28.7980
 1.6050	28.8650
 1.6060	28.9310
 1.6070	28.9950
 1.6080	29.0590
 1.6090	29.1210
 1.6100	29.1850
 1.6110	29.2500
 1.6120	29.3120
 1.6130	29.3740
 1.6140	29.4360
 1.6150	29.4940
 1.6160	29.5530
 1.6170	29.6100
 1.6180	29.6660
 1.6190	29.7220
 1.6200	29.7750
 1.6210	29.8270
 1.6220	29.8780
 1.6230	29.9280
 1.6240	29.9780
 1.6250	30.0270
 1.6260	30.0730
 1.6270	30.1190
 1.6280	30.1640
 1.6290	30.2090
 1.6300	30.2550
 1.6310	30.3000
 1.6320	30.3440
 1.6330	30.3860
 1.6340	30.4260
 1.6350	30.4660
 1.6360	30.5040
 1.6370	30.5420
 1.6380	30.5800
 1.6390	30.6140
 1.6400	30.6460
 1.6410	30.6750
 1.6420	30.7010
 1.6430	30.7250
 1.6440	30.7470
 1.6450	30.7680
 1.6460	30.7870
 1.6470	30.8040
 1.6480	30.8180
 1.6490	30.8270
 1.6500	30.8330
 1.6510	30.8340
 1.6520	30.8330
 1.6530	30.8320
 1.6540	30.8270
 1.6550	30.8180
 1.6560	30.8090
 1.6570	30.7950
 1.6580	30.7790
 1.6590	30.7630
 1.6600	30.7450
 1.6610	30.7260
 1.6620	30.7080
 1.6630	30.6910
 1.6640	30.6710
 1.6650	30.6490
 1.6660	30.6270
 1.6670	30.6030
 1.6680	30.5810
 1.6690	30.5610
 1.6700	30.5410
 1.6710	30.5200
 1.6720	30.4970
 1.6730	30.4710
 1.6740	30.4460
 1.6750	30.4200
 1.6760	30.3910
 1.6770	30.3620
 1.6780	30.3280
 1.6790	30.2930
 1.6800	30.2560
 1.6810	30.2190
 1.6820	30.1780
 1.6830	30.1320
 1.6840	30.0840
 1.6850	30.0310
 1.6860	29.9770
 1.6870	29.9220
 1.6880	29.8680
 1.6890	29.8110
 1.6900	29.7530
 1.6910	29.6950
 1.6920	29.6350
 1.6930	29.5750
 1.6940	29.5140
 1.6950	29.4520
 1.6960	29.3900
 1.6970	29.3280
 1.6980	29.2650
 1.6990	29.2030
 1.7000	29.1390
 1.7010	29.0720
 1.7020	29.0050
 1.7030	28.9350
 1.7040	28.8680
 1.7050	28.8000
 1.7060	28.7330
 1.7070	28.6670
 1.7080	28.5990
 1.7090	28.5300
 1.7100	28.4600
 1.7110	28.3890
 1.7120	28.3190
 1.7130	28.2500
 1.7140	28.1840
 1.7150	28.1190
 1.7160	28.0550
 1.7170	27.9930
 1.7180	27.9320
 1.7190	27.8710
 1.7200	27.8120
 1.7210	27.7550
 1.7220	27.6990
 1.7230	27.6480
 1.7240	27.5980
 1.7250	27.5510
 1.7260	27.5090
 1.7270	27.4710
 1.7280	27.4390
 1.7290	27.4130
 1.7300	27.3930
 1.7310	27.3770
 1.7320	27.3690
 1.7330	27.3610
 1.7340	27.3570
 1.7350	27.3520
 1.7360	27.3490
 1.7370	27.3440
 1.7380	27.3410
 1.7390	27.3290
 1.7400	27.3130
 1.7410	27.2940
 1.7420	27.2680
 1.7430	27.2390
 1.7440	27.2060
 1.7450	27.1690
 1.7460	27.1250
 1.7470	27.0810
 1.7480	27.0340
 1.7490	26.9870
 1.7500	26.9380
 1.7510	26.8910
 1.7520	26.8450
 1.7530	26.7960
 1.7540	26.7480
 1.7550	26.6960
 1.7560	26.6450
 1.7570	26.5970
 1.7580	26.5530
 1.7590	26.5130
 1.7600	26.4760
 1.7610	26.4390
 1.7620	26.4040
 1.7630	26.3690
 1.7640	26.3390
 1.7650	26.3130
 1.7660	26.2910
 1.7670	26.2730
 1.7680	26.2550
 1.7690	26.2410
 1.7700	26.2270
 1.7710	26.2140
 1.7720	26.2020
 1.7730	26.1910
 1.7740	26.1810
 1.7750	26.1720
 1.7760	26.1620
 1.7770	26.1510
 1.7780	26.1420
 1.7790	26.1310
 1.7800	26.1230
 1.7810	26.1170
 1.7820	26.1110
 1.7830	26.1050
 1.7840	26.1010
 1.7850	26.0980
 1.7860	26.0980
 1.7870	26.0990
 1.7880	26.1010
 1.7890	26.1060
 1.7900	26.1110
 1.7910	26.1180
 1.7920	26.1250
 1.7930	26.1340
 1.7940	26.1440
 1.7950	26.1560
 1.7960	26.1680
 1.7970	26.1810
 1.7980	26.1960
 1.7990	26.2110
 1.8000	26.2270
 1.8010	26.2440
 1.8020	26.2640
 1.8030	26.2820
 1.8040	26.3000
 1.8050	26.3180
 1.8060	26.3350
 1.8070	26.3520
 1.8080	26.3720
 1.8090	26.3880
 1.8100	26.4020
 1.8110	26.4160
 1.8120	26.4310
 1.8130	26.4450
 1.8140	26.4590
 1.8150	26.4730
 1.8160	26.4850
 1.8170	26.5010
 1.8180	26.5170
 1.8190	26.5280
 1.8200	26.5380
 1.8210	26.5420
 1.8220	26.5470
 1.8230	26.5520
 1.8240	26.5570
 1.8250	26.5640
 1.8260	26.5690
 1.8270	26.5760
 1.8280	26.5790
 1.8290	26.5800
 1.8300	26.5790
 1.8310	26.6010
 1.8320	26.5960
 1.8330	26.5880
 1.8340	26.5750
 1.8350	26.5570
 1.8360	26.5380
 1.8370	26.5180
 1.8380	26.4920
 1.8390	26.4610
 1.8400	26.4260
 1.8410	26.3850
 1.8420	26.3370
 1.8430	26.2840
 1.8440	26.2280
 1.8450	26.1650
 1.8460	26.0950
 1.8470	26.0170
 1.8480	25.9270
 1.8490	25.8240
 1.8500	25.7140
 1.8510	25.5930
 1.8520	25.4650
 1.8530	25.3250
 1.8540	25.1770
 1.8550	25.0160
 1.8560	24.8370
 1.8570	24.6500
 1.8580	24.4470
 1.8590	24.2310
 1.8600	24.0000
 1.8610	23.7570
 1.8620	23.4970
 1.8630	23.2260
 1.8640	22.9410
 1.8650	22.6380
 1.8660	22.3200
 1.8670	21.9810
 1.8680	21.6240
 1.8690	21.2510
 1.8700	20.8640
 1.8710	20.4610
 1.8720	20.0510
 1.8730	19.6300
 1.8740	19.1980
 1.8750	18.7560
 1.8760	18.3000
 1.8770	17.8390
 1.8780	17.3750
 1.8790	16.9070
 1.8800	16.4470
 1.8810	15.9890
 1.8820	15.5340
 1.8830	15.0830
 1.8840	14.6420
 1.8850	14.2060
 1.8860	13.7810
 1.8870	13.3700
 1.8880	12.9700
 1.8890	12.5910
 1.8900	12.2320
 1.8910	11.8900
 1.8920	11.5640
 1.8930	11.2600
 1.8940	10.9760
 1.8950	10.7130
 1.8960	10.4720
 1.8970	10.2510
 1.8980	10.0500
 1.8990	 9.8660
 1.9000	 9.6960
 1.9010	 9.5460
 1.9020	 9.4070
 1.9030	 9.2840
 1.9040	 9.1740
 1.9050	 9.0750
 1.9060	 8.9860
 1.9070	 8.9100
 1.9080	 8.8390
 1.9090	 8.7740
 1.9100	 8.7200
 1.9110	 8.6700
 1.9120	 8.6280
 1.9130	 8.5890
 1.9140	 8.5560
 1.9150	 8.5270
 1.9160	 8.5000
 1.9170	 8.4780
 1.9180	 8.4600
 1.9190	 8.4440
 1.9200	 8.4310
 1.9210	 8.4180
 1.9220	 8.4060
 1.9230	 8.3970
 1.9240	 8.3880
 1.9250	 8.3790
 1.9260	 8.3720
 1.9270	 8.3670
 1.9280	 8.3630
 1.9290	 8.3600
 1.9300	 8.3610
 1.9310	 8.3660
 1.9320	 8.3710
 1.9330	 8.3750
 1.9340	 8.3780
 1.9350	 8.3820
 1.9360	 8.3860
 1.9370	 8.3930
 1.9380	 8.4020
 1.9390	 8.4130
 1.9400	 8.4280
 1.9410	 8.4400
 1.9420	 8.4540
 1.9430	 8.4680
 1.9440	 8.4830
 1.9450	 8.4970
 1.9460	 8.5130
 1.9470	 8.5280
 1.9480	 8.5450
 1.9490	 8.5630
 1.9500	 8.5820
 1.9510	 8.6020
 1.9520	 8.6230
 1.9530	 8.6440
 1.9540	 8.6640
 1.9550	 8.6860
 1.9560	 8.7080
 1.9570	 8.7320
 1.9580	 8.7560
 1.9590	 8.7820
 1.9600	 8.8120
 1.9610	 8.8390
 1.9620	 8.8640
 1.9630	 8.8920
 1.9640	 8.9190
 1.9650	 8.9460
 1.9660	 8.9770
 1.9670	 9.0080
 1.9680	 9.0400
 1.9690	 9.0720
 1.9700	 9.1040
 1.9710	 9.1350
 1.9720	 9.1670
 1.9730	 9.1990
 1.9740	 9.2330
 1.9750	 9.2670
 1.9760	 9.3030
 1.9770	 9.3400
 1.9780	 9.3780
 1.9790	 9.4170
 1.9800	 9.4590
 1.9810	 9.5010
 1.9820	 9.5440
 1.9830	 9.5870
 1.9840	 9.6310
 1.9850	 9.6740
 1.9860	 9.7150
 1.9870	 9.7570
 1.9880	 9.8000
 1.9890	 9.8410
 1.9900	 9.8830
 1.9910	 9.9270
 1.9920	 9.9720
 1.9930	10.0190
 1.9940	10.0650
 1.9950	10.1140
 1.9960	10.1610
 1.9970	10.2070
 1.9980	10.2540
 1.9990	10.3000
 2.0000	10.3470
 2.0010	10.3940
 2.0020	10.4440
 2.0030	10.4940
 2.0040	10.5430
 2.0050	10.5900
 2.0060	10.6340
 2.0070	10.6810
 2.0080	10.7280
 2.0090	10.7770
 2.0100	10.8300
 2.0110	10.8790
 2.0120	10.9270
 2.0130	10.9750
 2.0140	11.0210
 2.0150	11.0670
 2.0160	11.1150
 2.0170	11.1610
 2.0180	11.2080
 2.0190	11.2550
 2.0200	11.3010
 2.0210	11.3480
 2.0220	11.3910
 2.0230	11.4330
 2.0240	11.4750
 2.0250	11.5140
 2.0260	11.5540
 2.0270	11.5930
 2.0280	11.6320
 2.0290	11.6700
 2.0300	11.7070
 2.0310	11.7440
 2.0320	11.7810
 2.0330	11.8170
 2.0340	11.8540
 2.0350	11.8870
 2.0360	11.9170
 2.0370	11.9480
 2.0380	11.9790
 2.0390	12.0080
 2.0400	12.0370
 2.0410	12.0650
 2.0420	12.0930
 2.0430	12.1170
 2.0440	12.1450
 2.0450	12.1750
 2.0460	12.2040
 2.0470	12.2330
 2.0480	12.2600
 2.0490	12.2850
 2.0500	12.3110
 2.0510	12.3350
 2.0520	12.3610
 2.0530	12.3900
 2.0540	12.4180
 2.0550	12.4440
 2.0560	12.4740
 2.0570	12.5030
 2.0580	12.5280
 2.0590	12.5550
 2.0600	12.5820
 2.0610	12.6090
 2.0620	12.6330
 2.0630	12.6630
 2.0640	12.6970
 2.0650	12.7280
 2.0660	12.7600
 2.0670	12.7920
 2.0680	12.8220
 2.0690	12.8530
 2.0700	12.8860
 2.0710	12.9190
 2.0720	12.9530
 2.0730	12.9820
 2.0740	13.0150
 2.0750	13.0470
 2.0760	13.0810
 2.0770	13.1170
 2.0780	13.1500
 2.0790	13.1830
 2.0800	13.2140
 2.0810	13.2380
 2.0820	13.2660
 2.0830	13.2930
 2.0840	13.3230
 2.0850	13.3560
 2.0860	13.3870
 2.0870	13.4190
 2.0880	13.4500
 2.0890	13.4800
 2.0900	13.5070
 2.0910	13.5380
 2.0920	13.5690
 2.0930	13.6000
 2.0940	13.6320
 2.0950	13.6630
 2.0960	13.6920
 2.0970	13.7210
 2.0980	13.7490
 2.0990	13.7760
 2.1000	13.8050
 2.1010	13.8310
 2.1020	13.8550
 2.1030	13.8820
 2.1040	13.9100
 2.1050	13.9380
 2.1060	13.9680
 2.1070	14.0030
 2.1080	14.0350
 2.1090	14.0690
 2.1100	14.0990
 2.1110	14.1280
 2.1120	14.1560
 2.1130	14.1820
 2.1140	14.2080
 2.1150	14.2320
 2.1160	14.2570
 2.1170	14.2800
 2.1180	14.3070
 2.1190	14.3380
 2.1200	14.3650
 2.1210	14.3930
 2.1220	14.4230
 2.1230	14.4490
 2.1240	14.4710
 2.1250	14.4940
 2.1260	14.5170
 2.1270	14.5400
 2.1280	14.5620
 2.1290	14.5860
 2.1300	14.6120
 2.1310	14.6360
 2.1320	14.6570
 2.1330	14.6800
 2.1340	14.7020
 2.1350	14.7230
 2.1360	14.7450
 2.1370	14.7660
 2.1380	14.7870
 2.1390	14.8070
 2.1400	14.8290
 2.1410	14.8480
 2.1420	14.8690
 2.1430	14.8880
 2.1440	14.9110
 2.1450	14.9370
 2.1460	14.9600
 2.1470	14.9840
 2.1480	15.0070
 2.1490	15.0290
 2.1500	15.0520
 2.1510	15.0790
 2.1520	15.1000
 2.1530	15.1190
 2.1540	15.1390
 2.1550	15.1580
 2.1560	15.1790
 2.1570	15.2050
 2.1580	15.2260
 2.1590	15.2470
 2.1600	15.2640
 2.1610	15.2840
 2.1620	15.3010
 2.1630	15.3200
 2.1640	15.3390
 2.1650	15.3580
 2.1660	15.3770
 2.1670	15.3970
 2.1680	15.4200
 2.1690	15.4410
 2.1700	15.4630
 2.1710	15.4850
 2.1720	15.5060
 2.1730	15.5290
 2.1740	15.5540
 2.1750	15.5770
 2.1760	15.6020
 2.1770	15.6240
 2.1780	15.6400
 2.1790	15.6620
 2.1800	15.6830
 2.1810	15.7070
 2.1820	15.7360
 2.1830	15.7650
 2.1840	15.7900
 2.1850	15.8110
 2.1860	15.8380
 2.1870	15.8620
 2.1880	15.8900
 2.1890	15.9250
 2.1900	15.9540
 2.1910	15.9830
 2.1920	16.0080
 2.1930	16.0290
 2.1940	16.0540
 2.1950	16.0790
 2.1960	16.1050
 2.1970	16.1370
 2.1980	16.1630
 2.1990	16.1860
 2.2000	16.2110
 2.2010	16.2340
 2.2020	16.2570
 2.2030	16.2800
 2.2040	16.3040
 2.2050	16.3290
 2.2060	16.3510
 2.2070	16.3700
 2.2080	16.3880
 2.2090	16.4040
 2.2100	16.4150
 2.2110	16.4300
 2.2120	16.4480
 2.2130	16.4610
 2.2140	16.4730
 2.2150	16.4830
 2.2160	16.4870
 2.2170	16.4930
 2.2180	16.5000
 2.2190	16.5040
 2.2200	16.5060
 2.2210	16.5070
 2.2220	16.5080
 2.2230	16.5040
 2.2240	16.4980
 2.2250	16.4880
 2.2260	16.4720
 2.2270	16.4550
 2.2280	16.4380
 2.2290	16.4160
 2.2300	16.3900
 2.2310	16.3600
 2.2320	16.3290
 2.2330	16.2890
 2.2340	16.2460
 2.2350	16.1980
 2.2360	16.1480
 2.2370	16.0910
 2.2380	16.0380
 2.2390	15.9840
 2.2400	15.9290
 2.2410	15.8740
 2.2420	15.8140
 2.2430	15.7480
 2.2440	15.6850
 2.2450	15.6220
 2.2460	15.5540
 2.2470	15.4850
 2.2480	15.4140
 2.2490	15.3320
 2.2500	15.2600
 2.2510	15.1930
 2.2520	15.1230
 2.2530	15.0540
 2.2540	14.9860
 2.2550	14.9140
 2.2560	14.8450
 2.2570	14.7810
 2.2580	14.7170
 2.2590	14.6540
 2.2600	14.5910
 2.2610	14.5270
 2.2620	14.4630
 2.2630	14.3990
 2.2640	14.3390
 2.2650	14.2830
 2.2660	14.2260
 2.2670	14.1700
 2.2680	14.1130
 2.2690	14.0600
 2.2700	14.0080
 2.2710	13.9610
 2.2720	13.9220
 2.2730	13.8810
 2.2740	13.8400
 2.2750	13.8020
 2.2760	13.7660
 2.2770	13.7290
 2.2780	13.6950
 2.2790	13.6610
 2.2800	13.6260
 2.2810	13.5930
 2.2820	13.5650
 2.2830	13.5310
 2.2840	13.4980
 2.2850	13.4610
 2.2860	13.4220
 2.2870	13.3830
 2.2880	13.3440
 2.2890	13.3050
 2.2900	13.2610
 2.2910	13.2220
 2.2920	13.1870
 2.2930	13.1490
 2.2940	13.1140
 2.2950	13.0740
 2.2960	13.0260
 2.2970	12.9800
 2.2980	12.9350
 2.2990	12.8870
 2.3000	12.8390
 2.3010	12.7950
 2.3020	12.7480
 2.3030	12.7000
 2.3040	12.6620
 2.3050	12.6160
 2.3060	12.5740
 2.3070	12.5370
 2.3080	12.5020
 2.3090	12.4790
 2.3100	12.4600
 2.3110	12.4410
 2.3120	12.4270
 2.3130	12.4130
 2.3140	12.4100
 2.3150	12.4180
 2.3160	12.4210
 2.3170	12.4310
 2.3180	12.4370
 2.3190	12.4400
 2.3200	12.4460
 2.3210	12.4570
 2.3220	12.4600
 2.3230	12.4620
 2.3240	12.4550
 2.3250	12.4400
 2.3260	12.4240
 2.3270	12.4000
 2.3280	12.3810
 2.3290	12.3630
 2.3300	12.3460
 2.3310	12.3350
 2.3320	12.3140
 2.3330	12.2890
 2.3340	12.2590
 2.3350	12.2180
 2.3360	12.1800
 2.3370	12.1390
 2.3380	12.1020
 2.3390	12.0630
 2.3400	12.0300
 2.3410	12.0010
 2.3420	11.9720
 2.3430	11.9490
 2.3440	11.9200
 2.3450	11.8880
 2.3460	11.8580
 2.3470	11.8200
 2.3480	11.7950
 2.3490	11.7760
 2.3500	11.7610
 2.3510	11.7600
 2.3520	11.7520
 2.3530	11.7400
 2.3540	11.7290
 2.3550	11.7160
 2.3560	11.7070
 2.3570	11.7020
 2.3580	11.6930
 2.3590	11.6740
 2.3600	11.6530
 2.3610	11.6320
 2.3620	11.6130
 2.3630	11.6100
 2.3640	11.6040
 2.3650	11.5870
 2.3660	11.5690
 2.3670	11.5450
 2.3680	11.5230
 2.3690	11.5020
 2.3700	11.4790
 2.3710	11.4570
 2.3720	11.4350
 2.3730	11.4140
 2.3740	11.3960
 2.3750	11.3770
 2.3760	11.3460
 2.3770	11.3120
 2.3780	11.2870
 2.3790	11.2570
 2.3800	11.2280
 2.3810	11.2110
 2.3820	11.1930
 2.3830	11.1660
 2.3840	11.1430
 2.3850	11.1210
 2.3860	11.0900
 2.3870	11.0600
 2.3880	11.0390
 2.3890	11.0180
 2.3900	10.9940
 2.3910	10.9710
 2.3920	10.9540
 2.3930	10.9260
 2.3940	10.9030
 2.3950	10.9000
 2.3960	10.8810
 2.3970	10.8520
 2.3980	10.8270
 2.3990	10.7900
 2.4000	10.7580
 2.4010	10.7420
 2.4020	10.7280
 2.4030	10.7020
 2.4040	10.6750
 2.4050	10.6430
 2.4060	10.6050
 2.4070	10.5870
 2.4080	10.5700
 2.4090	10.5370
 2.4100	10.5200
 2.4110	10.4970
 2.4120	10.4710
 2.4130	10.4580
 2.4140	10.4270
 2.4150	10.3900
 2.4160	10.3530
 2.4170	10.3280
 2.4180	10.3090
 2.4190	10.2790
 2.4200	10.2520
 2.4210	10.2160
 2.4220	10.1940
 2.4230	10.1770
 2.4240	10.1480
 2.4250	10.1390
 2.4260	10.1170
 2.4270	10.0820
 2.4280	10.0590
 2.4290	10.0190
 2.4300	 9.9830
 2.4310	 9.9610
 2.4320	 9.9400
 2.4330	 9.9140
 2.4340	 9.8800
 2.4350	 9.8460
 2.4360	 9.8280
 2.4370	 9.8160
 2.4380	 9.7860
 2.4390	 9.7590
 2.4400	 9.7200
 2.4410	 9.6660
 2.4420	 9.6440
 2.4430	 9.6270
 2.4440	 9.5940
 2.4450	 9.5770
 2.4460	 9.5520
 2.4470	 9.5280
 2.4480	 9.5160
 2.4490	 9.5020
 2.4500	 9.4900
 2.4510	 9.4610
 2.4520	 9.4420
 2.4530	 9.4260
 2.4540	 9.3930
 2.4550	 9.3620
 2.4560	 9.3210
 2.4570	 9.2830
 2.4580	 9.2570
 2.4590	 9.2350
 2.4600	 9.2290
 2.4610	 9.2240
 2.4620	 9.2190
 2.4630	 9.2280
 2.4640	 9.2080
 2.4650	 9.1720
 2.4660	 9.1600
 2.4670	 9.1420
 2.4680	 9.1230
 2.4690	 9.1130
 2.4700	 9.0960
 2.4710	 9.0800
 2.4720	 9.0640
 2.4730	 9.0460
 2.4740	 9.0310
 2.4750	 9.0030
 2.4760	 8.9860
 2.4770	 8.9890
 2.4780	 8.9800
 2.4790	 8.9640
 2.4800	 8.9530
 2.4810	 8.9300
 2.4820	 8.9270
 2.4830	 8.9380
 2.4840	 8.9190
 2.4850	 8.9070
 2.4860	 8.8960
 2.4870	 8.8810
 2.4880	 8.9050
 2.4890	 8.9310
 2.4900	 8.9430
 2.4910	 8.9630
 2.4920	 8.9420
 2.4930	 8.9080
 2.4940	 8.8850
 2.4950	 8.8360
 2.4960	 8.8780
 2.4970	 8.9370
 2.4980	 8.9450
 2.4990	 9.0130
 2.5000	 8.9880
