Name: Quercus rubra
Type: vegetation
Class: Tree
Genus: Quercus
Species: rubra
Sample No.: JPL156
Owner: JPL
Wavelength Range: VSWIR
Origin: 34.12537; -118.11533; WGS84
Collection Date: 9/14/2016
Description: Samples were collected at the Huntington Garden in San Marino California as part of a JPL Subcontract studying HyTES imagery. Samples were taken to JPL and processed within 48 hours of collection. The same leaves were processed in the Nicolet and then measured using the ASD.
Measurement: Bidirectional reflectance
First Column: X
Second Column: Y
X Units: Wavelength (micrometer)
Y Units: Reflectance (percentage)
First X Value: 0.35
Last X Value: 2.5
Number of X Values: 2151
Additional Information: vegetation.tree.quercus.rubra.vswir.jpl156.jpl.asd.ancillary.txt

 0.3500	12.2510
 0.3510	12.2550
 0.3520	12.3490
 0.3530	12.3510
 0.3540	12.1850
 0.3550	12.1720
 0.3560	12.1860
 0.3570	12.1680
 0.3580	12.1110
 0.3590	12.1150
 0.3600	12.1430
 0.3610	12.1370
 0.3620	12.0150
 0.3630	12.0470
 0.3640	12.1190
 0.3650	12.0820
 0.3660	12.0400
 0.3670	12.0490
 0.3680	12.0840
 0.3690	12.0780
 0.3700	12.1190
 0.3710	12.0920
 0.3720	11.9800
 0.3730	12.0020
 0.3740	12.0320
 0.3750	12.0180
 0.3760	11.9600
 0.3770	12.0200
 0.3780	12.0390
 0.3790	11.9880
 0.3800	11.9610
 0.3810	11.9460
 0.3820	11.9500
 0.3830	11.9750
 0.3840	12.0140
 0.3850	12.0550
 0.3860	12.0640
 0.3870	12.0220
 0.3880	12.0270
 0.3890	12.0260
 0.3900	12.0190
 0.3910	12.0680
 0.3920	12.0790
 0.3930	12.0910
 0.3940	12.1340
 0.3950	12.1250
 0.3960	12.1330
 0.3970	12.1520
 0.3980	12.1540
 0.3990	12.1830
 0.4000	12.2040
 0.4010	12.2040
 0.4020	12.2090
 0.4030	12.2060
 0.4040	12.2120
 0.4050	12.2400
 0.4060	12.2520
 0.4070	12.2620
 0.4080	12.2790
 0.4090	12.3010
 0.4100	12.3230
 0.4110	12.3380
 0.4120	12.3470
 0.4130	12.3550
 0.4140	12.3610
 0.4150	12.3660
 0.4160	12.3720
 0.4170	12.3960
 0.4180	12.4080
 0.4190	12.4050
 0.4200	12.4080
 0.4210	12.4150
 0.4220	12.4180
 0.4230	12.4100
 0.4240	12.4070
 0.4250	12.4010
 0.4260	12.3990
 0.4270	12.4090
 0.4280	12.4010
 0.4290	12.3860
 0.4300	12.3660
 0.4310	12.3240
 0.4320	12.2850
 0.4330	12.2510
 0.4340	12.2180
 0.4350	12.1910
 0.4360	12.1770
 0.4370	12.1850
 0.4380	12.2220
 0.4390	12.2640
 0.4400	12.3100
 0.4410	12.3540
 0.4420	12.3790
 0.4430	12.3990
 0.4440	12.4140
 0.4450	12.4230
 0.4460	12.4300
 0.4470	12.4370
 0.4480	12.4440
 0.4490	12.4520
 0.4500	12.4640
 0.4510	12.4730
 0.4520	12.4760
 0.4530	12.4790
 0.4540	12.4880
 0.4550	12.5000
 0.4560	12.5040
 0.4570	12.5140
 0.4580	12.5260
 0.4590	12.5330
 0.4600	12.5290
 0.4610	12.5270
 0.4620	12.5310
 0.4630	12.5370
 0.4640	12.5380
 0.4650	12.5390
 0.4660	12.5400
 0.4670	12.5390
 0.4680	12.5460
 0.4690	12.5570
 0.4700	12.5640
 0.4710	12.5620
 0.4720	12.5600
 0.4730	12.5640
 0.4740	12.5720
 0.4750	12.5710
 0.4760	12.5720
 0.4770	12.5800
 0.4780	12.5850
 0.4790	12.5880
 0.4800	12.5870
 0.4810	12.5800
 0.4820	12.5670
 0.4830	12.5520
 0.4840	12.5350
 0.4850	12.5210
 0.4860	12.5110
 0.4870	12.5090
 0.4880	12.5170
 0.4890	12.5270
 0.4900	12.5420
 0.4910	12.5670
 0.4920	12.6000
 0.4930	12.6320
 0.4940	12.6610
 0.4950	12.6920
 0.4960	12.7350
 0.4970	12.7820
 0.4980	12.8320
 0.4990	12.8870
 0.5000	12.9550
 0.5010	13.0260
 0.5020	13.0970
 0.5030	13.1730
 0.5040	13.2620
 0.5050	13.3620
 0.5060	13.4710
 0.5070	13.5980
 0.5080	13.7380
 0.5090	13.8880
 0.5100	14.0520
 0.5110	14.2320
 0.5120	14.4290
 0.5130	14.6410
 0.5140	14.8650
 0.5150	15.0980
 0.5160	15.3420
 0.5170	15.5990
 0.5180	15.8600
 0.5190	16.1250
 0.5200	16.3910
 0.5210	16.6570
 0.5220	16.9160
 0.5230	17.1640
 0.5240	17.4000
 0.5250	17.6270
 0.5260	17.8370
 0.5270	18.0270
 0.5280	18.1960
 0.5290	18.3510
 0.5300	18.4920
 0.5310	18.6160
 0.5320	18.7220
 0.5330	18.8110
 0.5340	18.8870
 0.5350	18.9510
 0.5360	18.9960
 0.5370	19.0270
 0.5380	19.0400
 0.5390	19.0290
 0.5400	18.9810
 0.5410	18.9000
 0.5420	18.8070
 0.5430	18.7460
 0.5440	18.7350
 0.5450	18.7750
 0.5460	18.8580
 0.5470	18.9630
 0.5480	19.0580
 0.5490	19.1210
 0.5500	19.1510
 0.5510	19.1690
 0.5520	19.1800
 0.5530	19.1860
 0.5540	19.1840
 0.5550	19.1660
 0.5560	19.1270
 0.5570	19.0670
 0.5580	18.9870
 0.5590	18.8910
 0.5600	18.7810
 0.5610	18.6580
 0.5620	18.5230
 0.5630	18.3800
 0.5640	18.2330
 0.5650	18.0810
 0.5660	17.9260
 0.5670	17.7690
 0.5680	17.6090
 0.5690	17.4490
 0.5700	17.2900
 0.5710	17.1350
 0.5720	16.9860
 0.5730	16.8470
 0.5740	16.7170
 0.5750	16.5940
 0.5760	16.4810
 0.5770	16.3750
 0.5780	16.2750
 0.5790	16.1780
 0.5800	16.0850
 0.5810	15.9960
 0.5820	15.9110
 0.5830	15.8290
 0.5840	15.7560
 0.5850	15.6930
 0.5860	15.6300
 0.5870	15.5620
 0.5880	15.5020
 0.5890	15.4610
 0.5900	15.4300
 0.5910	15.3950
 0.5920	15.3530
 0.5930	15.3120
 0.5940	15.2900
 0.5950	15.2790
 0.5960	15.2680
 0.5970	15.2540
 0.5980	15.2320
 0.5990	15.2080
 0.6000	15.1870
 0.6010	15.1670
 0.6020	15.1430
 0.6030	15.1100
 0.6040	15.0720
 0.6050	15.0290
 0.6060	14.9790
 0.6070	14.9190
 0.6080	14.8550
 0.6090	14.7530
 0.6100	14.5950
 0.6110	14.3960
 0.6120	14.3400
 0.6130	14.3660
 0.6140	14.4010
 0.6150	14.3850
 0.6160	14.3590
 0.6170	14.3270
 0.6180	14.2850
 0.6190	14.2370
 0.6200	14.1900
 0.6210	14.1540
 0.6220	14.1280
 0.6230	14.1090
 0.6240	14.0930
 0.6250	14.0800
 0.6260	14.0710
 0.6270	14.0620
 0.6280	14.0510
 0.6290	14.0350
 0.6300	14.0140
 0.6310	13.9980
 0.6320	13.9930
 0.6330	13.9900
 0.6340	13.9760
 0.6350	13.9470
 0.6360	13.9080
 0.6370	13.8580
 0.6380	13.8030
 0.6390	13.7450
 0.6400	13.6830
 0.6410	13.6200
 0.6420	13.5560
 0.6430	13.4930
 0.6440	13.4300
 0.6450	13.3730
 0.6460	13.3210
 0.6470	13.2700
 0.6480	13.2270
 0.6490	13.1890
 0.6500	13.1580
 0.6510	13.1370
 0.6520	13.1250
 0.6530	13.1170
 0.6540	13.1100
 0.6550	13.1030
 0.6560	13.0990
 0.6570	13.0940
 0.6580	13.0870
 0.6590	13.0830
 0.6600	13.0780
 0.6610	13.0720
 0.6620	13.0650
 0.6630	13.0600
 0.6640	13.0590
 0.6650	13.0610
 0.6660	13.0670
 0.6670	13.0730
 0.6680	13.0830
 0.6690	13.0990
 0.6700	13.1220
 0.6710	13.1480
 0.6720	13.1780
 0.6730	13.2110
 0.6740	13.2480
 0.6750	13.2890
 0.6760	13.3350
 0.6770	13.3860
 0.6780	13.4410
 0.6790	13.5000
 0.6800	13.5640
 0.6810	13.6320
 0.6820	13.7060
 0.6830	13.7830
 0.6840	13.8620
 0.6850	13.9480
 0.6860	14.0430
 0.6870	14.1490
 0.6880	14.2800
 0.6890	14.4480
 0.6900	14.6600
 0.6910	14.9250
 0.6920	15.2550
 0.6930	15.6590
 0.6940	16.1410
 0.6950	16.7120
 0.6960	17.3590
 0.6970	18.0810
 0.6980	18.8750
 0.6990	19.7300
 0.7000	20.6390
 0.7010	21.5920
 0.7020	22.5730
 0.7030	23.5780
 0.7040	24.5980
 0.7050	25.6290
 0.7060	26.6640
 0.7070	27.7020
 0.7080	28.7420
 0.7090	29.7870
 0.7100	30.8350
 0.7110	31.8800
 0.7120	32.9200
 0.7130	33.9610
 0.7140	35.0000
 0.7150	36.0350
 0.7160	37.0590
 0.7170	38.0700
 0.7180	39.0690
 0.7190	40.0580
 0.7200	41.0350
 0.7210	41.9930
 0.7220	42.9300
 0.7230	43.8450
 0.7240	44.7360
 0.7250	45.6010
 0.7260	46.4370
 0.7270	47.2420
 0.7280	48.0120
 0.7290	48.7540
 0.7300	49.4640
 0.7310	50.1390
 0.7320	50.7820
 0.7330	51.3930
 0.7340	51.9700
 0.7350	52.5140
 0.7360	53.0290
 0.7370	53.5130
 0.7380	53.9640
 0.7390	54.3900
 0.7400	54.7870
 0.7410	55.1560
 0.7420	55.5000
 0.7430	55.8160
 0.7440	56.1070
 0.7450	56.3730
 0.7460	56.6130
 0.7470	56.8310
 0.7480	57.0280
 0.7490	57.2060
 0.7500	57.3680
 0.7510	57.5160
 0.7520	57.6470
 0.7530	57.7620
 0.7540	57.8690
 0.7550	57.9650
 0.7560	58.0500
 0.7570	58.1270
 0.7580	58.1960
 0.7590	58.2570
 0.7600	58.3110
 0.7610	58.3610
 0.7620	58.4040
 0.7630	58.4420
 0.7640	58.4750
 0.7650	58.5070
 0.7660	58.5290
 0.7670	58.5460
 0.7680	58.5670
 0.7690	58.5830
 0.7700	58.5970
 0.7710	58.6100
 0.7720	58.6220
 0.7730	58.6310
 0.7740	58.6420
 0.7750	58.6560
 0.7760	58.6610
 0.7770	58.6680
 0.7780	58.6780
 0.7790	58.6890
 0.7800	58.6970
 0.7810	58.7060
 0.7820	58.7150
 0.7830	58.7220
 0.7840	58.7270
 0.7850	58.7330
 0.7860	58.7390
 0.7870	58.7420
 0.7880	58.7450
 0.7890	58.7470
 0.7900	58.7500
 0.7910	58.7530
 0.7920	58.7520
 0.7930	58.7500
 0.7940	58.7520
 0.7950	58.7540
 0.7960	58.7510
 0.7970	58.7440
 0.7980	58.7390
 0.7990	58.7280
 0.8000	58.7170
 0.8010	58.7080
 0.8020	58.6980
 0.8030	58.6910
 0.8040	58.6840
 0.8050	58.6710
 0.8060	58.6600
 0.8070	58.6440
 0.8080	58.6230
 0.8090	58.6070
 0.8100	58.5940
 0.8110	58.5790
 0.8120	58.5600
 0.8130	58.5430
 0.8140	58.5230
 0.8150	58.5030
 0.8160	58.4870
 0.8170	58.4670
 0.8180	58.4470
 0.8190	58.4290
 0.8200	58.4110
 0.8210	58.3940
 0.8220	58.3760
 0.8230	58.3560
 0.8240	58.3370
 0.8250	58.3180
 0.8260	58.3030
 0.8270	58.2880
 0.8280	58.2660
 0.8290	58.2480
 0.8300	58.2300
 0.8310	58.2080
 0.8320	58.1930
 0.8330	58.1800
 0.8340	58.1670
 0.8350	58.1530
 0.8360	58.1410
 0.8370	58.1280
 0.8380	58.1180
 0.8390	58.1150
 0.8400	58.1120
 0.8410	58.1070
 0.8420	58.1000
 0.8430	58.0930
 0.8440	58.0890
 0.8450	58.0860
 0.8460	58.0820
 0.8470	58.0820
 0.8480	58.0820
 0.8490	58.0820
 0.8500	58.0860
 0.8510	58.0860
 0.8520	58.0870
 0.8530	58.0890
 0.8540	58.0890
 0.8550	58.0950
 0.8560	58.1030
 0.8570	58.1100
 0.8580	58.1150
 0.8590	58.1230
 0.8600	58.1320
 0.8610	58.1410
 0.8620	58.1510
 0.8630	58.1620
 0.8640	58.1750
 0.8650	58.1900
 0.8660	58.1980
 0.8670	58.2110
 0.8680	58.2250
 0.8690	58.2380
 0.8700	58.2540
 0.8710	58.2670
 0.8720	58.2770
 0.8730	58.2850
 0.8740	58.3060
 0.8750	58.3290
 0.8760	58.3490
 0.8770	58.3670
 0.8780	58.3810
 0.8790	58.3960
 0.8800	58.4150
 0.8810	58.4280
 0.8820	58.4430
 0.8830	58.4600
 0.8840	58.4810
 0.8850	58.5000
 0.8860	58.5200
 0.8870	58.5350
 0.8880	58.5430
 0.8890	58.5620
 0.8900	58.5840
 0.8910	58.6050
 0.8920	58.6210
 0.8930	58.6360
 0.8940	58.6530
 0.8950	58.6720
 0.8960	58.6880
 0.8970	58.7040
 0.8980	58.7190
 0.8990	58.7320
 0.9000	58.7450
 0.9010	58.7640
 0.9020	58.7860
 0.9030	58.8040
 0.9040	58.8190
 0.9050	58.8300
 0.9060	58.8410
 0.9070	58.8560
 0.9080	58.8710
 0.9090	58.8770
 0.9100	58.8820
 0.9110	58.8950
 0.9120	58.9110
 0.9130	58.9230
 0.9140	58.9300
 0.9150	58.9360
 0.9160	58.9420
 0.9170	58.9510
 0.9180	58.9600
 0.9190	58.9630
 0.9200	58.9650
 0.9210	58.9660
 0.9220	58.9660
 0.9230	58.9620
 0.9240	58.9640
 0.9250	58.9610
 0.9260	58.9510
 0.9270	58.9410
 0.9280	58.9290
 0.9290	58.9150
 0.9300	58.9000
 0.9310	58.8840
 0.9320	58.8670
 0.9330	58.8520
 0.9340	58.8360
 0.9350	58.8140
 0.9360	58.8000
 0.9370	58.7780
 0.9380	58.7410
 0.9390	58.7160
 0.9400	58.7000
 0.9410	58.6800
 0.9420	58.6470
 0.9430	58.6130
 0.9440	58.5790
 0.9450	58.5480
 0.9460	58.5160
 0.9470	58.4670
 0.9480	58.4180
 0.9490	58.3680
 0.9500	58.3110
 0.9510	58.2540
 0.9520	58.2070
 0.9530	58.1550
 0.9540	58.0870
 0.9550	58.0270
 0.9560	57.9690
 0.9570	57.9150
 0.9580	57.8640
 0.9590	57.8120
 0.9600	57.7640
 0.9610	57.7200
 0.9620	57.6790
 0.9630	57.6380
 0.9640	57.6050
 0.9650	57.5790
 0.9660	57.5580
 0.9670	57.5430
 0.9680	57.5240
 0.9690	57.5040
 0.9700	57.4870
 0.9710	57.4640
 0.9720	57.4560
 0.9730	57.4480
 0.9740	57.4220
 0.9750	57.4270
 0.9760	57.4280
 0.9770	57.4260
 0.9780	57.4300
 0.9790	57.4100
 0.9800	57.4050
 0.9810	57.4100
 0.9820	57.4060
 0.9830	57.4180
 0.9840	57.4270
 0.9850	57.4280
 0.9860	57.4250
 0.9870	57.4290
 0.9880	57.4380
 0.9890	57.4480
 0.9900	57.4590
 0.9910	57.4790
 0.9920	57.4950
 0.9930	57.5010
 0.9940	57.5020
 0.9950	57.5150
 0.9960	57.5470
 0.9970	57.5720
 0.9980	57.5690
 0.9990	57.5890
 1.0000	57.6150
 1.0010	59.3930
 1.0020	59.4050
 1.0030	59.4160
 1.0040	59.4310
 1.0050	59.4450
 1.0060	59.4600
 1.0070	59.4790
 1.0080	59.4960
 1.0090	59.5110
 1.0100	59.5300
 1.0110	59.5560
 1.0120	59.5720
 1.0130	59.5830
 1.0140	59.5980
 1.0150	59.6080
 1.0160	59.6240
 1.0170	59.6440
 1.0180	59.6640
 1.0190	59.6810
 1.0200	59.6960
 1.0210	59.7160
 1.0220	59.7340
 1.0230	59.7500
 1.0240	59.7660
 1.0250	59.7800
 1.0260	59.7910
 1.0270	59.8050
 1.0280	59.8200
 1.0290	59.8370
 1.0300	59.8580
 1.0310	59.8750
 1.0320	59.8920
 1.0330	59.9050
 1.0340	59.9230
 1.0350	59.9360
 1.0360	59.9440
 1.0370	59.9610
 1.0380	59.9780
 1.0390	59.9940
 1.0400	60.0120
 1.0410	60.0370
 1.0420	60.0520
 1.0430	60.0570
 1.0440	60.0700
 1.0450	60.0810
 1.0460	60.0930
 1.0470	60.1100
 1.0480	60.1230
 1.0490	60.1310
 1.0500	60.1400
 1.0510	60.1500
 1.0520	60.1540
 1.0530	60.1610
 1.0540	60.1690
 1.0550	60.1760
 1.0560	60.1840
 1.0570	60.1920
 1.0580	60.1980
 1.0590	60.2050
 1.0600	60.2140
 1.0610	60.2180
 1.0620	60.2190
 1.0630	60.2220
 1.0640	60.2230
 1.0650	60.2240
 1.0660	60.2280
 1.0670	60.2290
 1.0680	60.2290
 1.0690	60.2260
 1.0700	60.2250
 1.0710	60.2230
 1.0720	60.2240
 1.0730	60.2280
 1.0740	60.2290
 1.0750	60.2320
 1.0760	60.2320
 1.0770	60.2300
 1.0780	60.2270
 1.0790	60.2230
 1.0800	60.2180
 1.0810	60.2080
 1.0820	60.2030
 1.0830	60.2010
 1.0840	60.1970
 1.0850	60.1950
 1.0860	60.1900
 1.0870	60.1860
 1.0880	60.1790
 1.0890	60.1760
 1.0900	60.1760
 1.0910	60.1720
 1.0920	60.1680
 1.0930	60.1630
 1.0940	60.1550
 1.0950	60.1470
 1.0960	60.1380
 1.0970	60.1320
 1.0980	60.1270
 1.0990	60.1220
 1.1000	60.1230
 1.1010	60.1200
 1.1020	60.1140
 1.1030	60.1090
 1.1040	60.1030
 1.1050	60.0970
 1.1060	60.0900
 1.1070	60.0870
 1.1080	60.0770
 1.1090	60.0620
 1.1100	60.0530
 1.1110	60.0430
 1.1120	60.0350
 1.1130	60.0340
 1.1140	60.0260
 1.1150	60.0130
 1.1160	59.9990
 1.1170	59.9830
 1.1180	59.9670
 1.1190	59.9510
 1.1200	59.9340
 1.1210	59.9140
 1.1220	59.8900
 1.1230	59.8600
 1.1240	59.8270
 1.1250	59.7900
 1.1260	59.7510
 1.1270	59.7060
 1.1280	59.6580
 1.1290	59.6020
 1.1300	59.5400
 1.1310	59.4710
 1.1320	59.3960
 1.1330	59.3130
 1.1340	59.2210
 1.1350	59.1260
 1.1360	59.0250
 1.1370	58.9180
 1.1380	58.8050
 1.1390	58.6890
 1.1400	58.5680
 1.1410	58.4430
 1.1420	58.3160
 1.1430	58.1890
 1.1440	58.0610
 1.1450	57.9310
 1.1460	57.8050
 1.1470	57.6780
 1.1480	57.5570
 1.1490	57.4380
 1.1500	57.3290
 1.1510	57.2250
 1.1520	57.1290
 1.1530	57.0410
 1.1540	56.9600
 1.1550	56.8860
 1.1560	56.8180
 1.1570	56.7580
 1.1580	56.7060
 1.1590	56.6610
 1.1600	56.6200
 1.1610	56.5850
 1.1620	56.5510
 1.1630	56.5190
 1.1640	56.4910
 1.1650	56.4670
 1.1660	56.4480
 1.1670	56.4310
 1.1680	56.4200
 1.1690	56.4050
 1.1700	56.3900
 1.1710	56.3760
 1.1720	56.3620
 1.1730	56.3500
 1.1740	56.3400
 1.1750	56.3300
 1.1760	56.3150
 1.1770	56.3010
 1.1780	56.2870
 1.1790	56.2700
 1.1800	56.2540
 1.1810	56.2380
 1.1820	56.2200
 1.1830	56.2010
 1.1840	56.1830
 1.1850	56.1670
 1.1860	56.1490
 1.1870	56.1330
 1.1880	56.1180
 1.1890	56.1050
 1.1900	56.0910
 1.1910	56.0790
 1.1920	56.0670
 1.1930	56.0540
 1.1940	56.0440
 1.1950	56.0360
 1.1960	56.0290
 1.1970	56.0250
 1.1980	56.0220
 1.1990	56.0210
 1.2000	56.0220
 1.2010	56.0210
 1.2020	56.0230
 1.2030	56.0270
 1.2040	56.0310
 1.2050	56.0380
 1.2060	56.0470
 1.2070	56.0570
 1.2080	56.0700
 1.2090	56.0840
 1.2100	56.0970
 1.2110	56.1120
 1.2120	56.1280
 1.2130	56.1450
 1.2140	56.1640
 1.2150	56.1840
 1.2160	56.2030
 1.2170	56.2230
 1.2180	56.2450
 1.2190	56.2680
 1.2200	56.2940
 1.2210	56.3170
 1.2220	56.3400
 1.2230	56.3650
 1.2240	56.3880
 1.2250	56.4130
 1.2260	56.4370
 1.2270	56.4620
 1.2280	56.4870
 1.2290	56.5110
 1.2300	56.5340
 1.2310	56.5540
 1.2320	56.5720
 1.2330	56.5880
 1.2340	56.6060
 1.2350	56.6240
 1.2360	56.6410
 1.2370	56.6560
 1.2380	56.6710
 1.2390	56.6860
 1.2400	56.6990
 1.2410	56.7120
 1.2420	56.7270
 1.2430	56.7390
 1.2440	56.7520
 1.2450	56.7630
 1.2460	56.7740
 1.2470	56.7870
 1.2480	56.7970
 1.2490	56.8070
 1.2500	56.8160
 1.2510	56.8220
 1.2520	56.8280
 1.2530	56.8360
 1.2540	56.8420
 1.2550	56.8450
 1.2560	56.8470
 1.2570	56.8470
 1.2580	56.8500
 1.2590	56.8520
 1.2600	56.8570
 1.2610	56.8570
 1.2620	56.8540
 1.2630	56.8500
 1.2640	56.8460
 1.2650	56.8430
 1.2660	56.8420
 1.2670	56.8380
 1.2680	56.8310
 1.2690	56.8250
 1.2700	56.8170
 1.2710	56.8080
 1.2720	56.8030
 1.2730	56.7940
 1.2740	56.7850
 1.2750	56.7760
 1.2760	56.7630
 1.2770	56.7480
 1.2780	56.7330
 1.2790	56.7160
 1.2800	56.6970
 1.2810	56.6780
 1.2820	56.6550
 1.2830	56.6280
 1.2840	56.6010
 1.2850	56.5720
 1.2860	56.5390
 1.2870	56.5060
 1.2880	56.4700
 1.2890	56.4320
 1.2900	56.3920
 1.2910	56.3510
 1.2920	56.3080
 1.2930	56.2610
 1.2940	56.2110
 1.2950	56.1590
 1.2960	56.1020
 1.2970	56.0450
 1.2980	55.9840
 1.2990	55.9200
 1.3000	55.8570
 1.3010	55.7930
 1.3020	55.7240
 1.3030	55.6560
 1.3040	55.5860
 1.3050	55.5140
 1.3060	55.4410
 1.3070	55.3640
 1.3080	55.2850
 1.3090	55.2050
 1.3100	55.1240
 1.3110	55.0430
 1.3120	54.9580
 1.3130	54.8710
 1.3140	54.7820
 1.3150	54.6900
 1.3160	54.5960
 1.3170	54.5010
 1.3180	54.4040
 1.3190	54.3060
 1.3200	54.2050
 1.3210	54.1030
 1.3220	54.0010
 1.3230	53.8940
 1.3240	53.7870
 1.3250	53.6780
 1.3260	53.5680
 1.3270	53.4570
 1.3280	53.3440
 1.3290	53.2270
 1.3300	53.1080
 1.3310	52.9870
 1.3320	52.8630
 1.3330	52.7410
 1.3340	52.6190
 1.3350	52.4970
 1.3360	52.3780
 1.3370	52.2550
 1.3380	52.1310
 1.3390	52.0090
 1.3400	51.8870
 1.3410	51.7700
 1.3420	51.6550
 1.3430	51.5380
 1.3440	51.4220
 1.3450	51.3070
 1.3460	51.1910
 1.3470	51.0770
 1.3480	50.9640
 1.3490	50.8540
 1.3500	50.7460
 1.3510	50.6370
 1.3520	50.5290
 1.3530	50.4210
 1.3540	50.3120
 1.3550	50.2010
 1.3560	50.0920
 1.3570	49.9810
 1.3580	49.8700
 1.3590	49.7570
 1.3600	49.6410
 1.3610	49.5200
 1.3620	49.3940
 1.3630	49.2620
 1.3640	49.1270
 1.3650	48.9820
 1.3660	48.8320
 1.3670	48.6730
 1.3680	48.5030
 1.3690	48.3220
 1.3700	48.1280
 1.3710	47.9210
 1.3720	47.6990
 1.3730	47.4620
 1.3740	47.2110
 1.3750	46.9410
 1.3760	46.6520
 1.3770	46.3440
 1.3780	46.0110
 1.3790	45.6600
 1.3800	45.2880
 1.3810	44.8910
 1.3820	44.4770
 1.3830	44.0420
 1.3840	43.5920
 1.3850	43.1210
 1.3860	42.6400
 1.3870	42.1400
 1.3880	41.6360
 1.3890	41.1220
 1.3900	40.5980
 1.3910	40.0750
 1.3920	39.5460
 1.3930	39.0130
 1.3940	38.4860
 1.3950	37.9590
 1.3960	37.4380
 1.3970	36.9300
 1.3980	36.4320
 1.3990	35.9520
 1.4000	35.4880
 1.4010	35.0360
 1.4020	34.6060
 1.4030	34.1920
 1.4040	33.7970
 1.4050	33.4240
 1.4060	33.0680
 1.4070	32.7330
 1.4080	32.4170
 1.4090	32.1190
 1.4100	31.8400
 1.4110	31.5780
 1.4120	31.3340
 1.4130	31.1080
 1.4140	30.8980
 1.4150	30.7050
 1.4160	30.5270
 1.4170	30.3600
 1.4180	30.2060
 1.4190	30.0630
 1.4200	29.9300
 1.4210	29.8090
 1.4220	29.6980
 1.4230	29.5980
 1.4240	29.5060
 1.4250	29.4210
 1.4260	29.3470
 1.4270	29.2770
 1.4280	29.2130
 1.4290	29.1570
 1.4300	29.1070
 1.4310	29.0630
 1.4320	29.0270
 1.4330	28.9940
 1.4340	28.9660
 1.4350	28.9420
 1.4360	28.9220
 1.4370	28.9070
 1.4380	28.8960
 1.4390	28.8860
 1.4400	28.8810
 1.4410	28.8780
 1.4420	28.8770
 1.4430	28.8790
 1.4440	28.8840
 1.4450	28.8900
 1.4460	28.9000
 1.4470	28.9110
 1.4480	28.9240
 1.4490	28.9380
 1.4500	28.9540
 1.4510	28.9700
 1.4520	28.9880
 1.4530	29.0080
 1.4540	29.0300
 1.4550	29.0560
 1.4560	29.0830
 1.4570	29.1120
 1.4580	29.1440
 1.4590	29.1790
 1.4600	29.2170
 1.4610	29.2600
 1.4620	29.3070
 1.4630	29.3580
 1.4640	29.4130
 1.4650	29.4700
 1.4660	29.5310
 1.4670	29.5970
 1.4680	29.6700
 1.4690	29.7470
 1.4700	29.8280
 1.4710	29.9140
 1.4720	30.0000
 1.4730	30.0900
 1.4740	30.1850
 1.4750	30.2820
 1.4760	30.3830
 1.4770	30.4860
 1.4780	30.5900
 1.4790	30.6970
 1.4800	30.8050
 1.4810	30.9140
 1.4820	31.0250
 1.4830	31.1380
 1.4840	31.2520
 1.4850	31.3680
 1.4860	31.4830
 1.4870	31.6010
 1.4880	31.7190
 1.4890	31.8380
 1.4900	31.9580
 1.4910	32.0790
 1.4920	32.2000
 1.4930	32.3230
 1.4940	32.4450
 1.4950	32.5690
 1.4960	32.6910
 1.4970	32.8110
 1.4980	32.9330
 1.4990	33.0560
 1.5000	33.1800
 1.5010	33.3050
 1.5020	33.4290
 1.5030	33.5520
 1.5040	33.6750
 1.5050	33.7980
 1.5060	33.9210
 1.5070	34.0440
 1.5080	34.1670
 1.5090	34.2880
 1.5100	34.4100
 1.5110	34.5310
 1.5120	34.6520
 1.5130	34.7740
 1.5140	34.8960
 1.5150	35.0170
 1.5160	35.1360
 1.5170	35.2540
 1.5180	35.3710
 1.5190	35.4880
 1.5200	35.6030
 1.5210	35.7170
 1.5220	35.8320
 1.5230	35.9480
 1.5240	36.0620
 1.5250	36.1780
 1.5260	36.2910
 1.5270	36.4020
 1.5280	36.5120
 1.5290	36.6210
 1.5300	36.7280
 1.5310	36.8370
 1.5320	36.9450
 1.5330	37.0520
 1.5340	37.1570
 1.5350	37.2600
 1.5360	37.3630
 1.5370	37.4660
 1.5380	37.5690
 1.5390	37.6720
 1.5400	37.7740
 1.5410	37.8750
 1.5420	37.9750
 1.5430	38.0740
 1.5440	38.1730
 1.5450	38.2710
 1.5460	38.3670
 1.5470	38.4660
 1.5480	38.5620
 1.5490	38.6560
 1.5500	38.7500
 1.5510	38.8420
 1.5520	38.9340
 1.5530	39.0250
 1.5540	39.1150
 1.5550	39.2050
 1.5560	39.2940
 1.5570	39.3810
 1.5580	39.4670
 1.5590	39.5520
 1.5600	39.6350
 1.5610	39.7180
 1.5620	39.8000
 1.5630	39.8810
 1.5640	39.9640
 1.5650	40.0460
 1.5660	40.1260
 1.5670	40.2060
 1.5680	40.2830
 1.5690	40.3590
 1.5700	40.4350
 1.5710	40.5110
 1.5720	40.5870
 1.5730	40.6640
 1.5740	40.7390
 1.5750	40.8130
 1.5760	40.8880
 1.5770	40.9600
 1.5780	41.0330
 1.5790	41.1050
 1.5800	41.1740
 1.5810	41.2430
 1.5820	41.3100
 1.5830	41.3770
 1.5840	41.4440
 1.5850	41.5100
 1.5860	41.5770
 1.5870	41.6430
 1.5880	41.7080
 1.5890	41.7730
 1.5900	41.8380
 1.5910	41.9030
 1.5920	41.9690
 1.5930	42.0360
 1.5940	42.1020
 1.5950	42.1660
 1.5960	42.2290
 1.5970	42.2920
 1.5980	42.3550
 1.5990	42.4190
 1.6000	42.4830
 1.6010	42.5420
 1.6020	42.6000
 1.6030	42.6580
 1.6040	42.7150
 1.6050	42.7730
 1.6060	42.8330
 1.6070	42.8900
 1.6080	42.9470
 1.6090	43.0040
 1.6100	43.0580
 1.6110	43.1120
 1.6120	43.1660
 1.6130	43.2180
 1.6140	43.2680
 1.6150	43.3180
 1.6160	43.3680
 1.6170	43.4160
 1.6180	43.4650
 1.6190	43.5150
 1.6200	43.5610
 1.6210	43.6090
 1.6220	43.6540
 1.6230	43.6990
 1.6240	43.7440
 1.6250	43.7880
 1.6260	43.8320
 1.6270	43.8760
 1.6280	43.9180
 1.6290	43.9580
 1.6300	43.9980
 1.6310	44.0360
 1.6320	44.0710
 1.6330	44.1070
 1.6340	44.1430
 1.6350	44.1780
 1.6360	44.2120
 1.6370	44.2460
 1.6380	44.2790
 1.6390	44.3100
 1.6400	44.3390
 1.6410	44.3680
 1.6420	44.3950
 1.6430	44.4200
 1.6440	44.4450
 1.6450	44.4670
 1.6460	44.4870
 1.6470	44.5080
 1.6480	44.5270
 1.6490	44.5460
 1.6500	44.5610
 1.6510	44.5730
 1.6520	44.5870
 1.6530	44.5980
 1.6540	44.6090
 1.6550	44.6190
 1.6560	44.6250
 1.6570	44.6300
 1.6580	44.6360
 1.6590	44.6410
 1.6600	44.6450
 1.6610	44.6490
 1.6620	44.6520
 1.6630	44.6540
 1.6640	44.6560
 1.6650	44.6590
 1.6660	44.6590
 1.6670	44.6580
 1.6680	44.6550
 1.6690	44.6500
 1.6700	44.6430
 1.6710	44.6380
 1.6720	44.6340
 1.6730	44.6290
 1.6740	44.6220
 1.6750	44.6130
 1.6760	44.6030
 1.6770	44.5920
 1.6780	44.5800
 1.6790	44.5680
 1.6800	44.5530
 1.6810	44.5360
 1.6820	44.5170
 1.6830	44.4960
 1.6840	44.4710
 1.6850	44.4480
 1.6860	44.4250
 1.6870	44.3980
 1.6880	44.3690
 1.6890	44.3350
 1.6900	44.3010
 1.6910	44.2660
 1.6920	44.2290
 1.6930	44.1900
 1.6940	44.1520
 1.6950	44.1140
 1.6960	44.0730
 1.6970	44.0330
 1.6980	43.9890
 1.6990	43.9400
 1.7000	43.8930
 1.7010	43.8470
 1.7020	43.8000
 1.7030	43.7530
 1.7040	43.7050
 1.7050	43.6560
 1.7060	43.6060
 1.7070	43.5550
 1.7080	43.5040
 1.7090	43.4520
 1.7100	43.4030
 1.7110	43.3570
 1.7120	43.3090
 1.7130	43.2590
 1.7140	43.2080
 1.7150	43.1550
 1.7160	43.1050
 1.7170	43.0570
 1.7180	43.0060
 1.7190	42.9560
 1.7200	42.9040
 1.7210	42.8520
 1.7220	42.8020
 1.7230	42.7520
 1.7240	42.7040
 1.7250	42.6570
 1.7260	42.6090
 1.7270	42.5640
 1.7280	42.5230
 1.7290	42.4810
 1.7300	42.4420
 1.7310	42.4030
 1.7320	42.3620
 1.7330	42.3230
 1.7340	42.2890
 1.7350	42.2520
 1.7360	42.2180
 1.7370	42.1780
 1.7380	42.1360
 1.7390	42.0920
 1.7400	42.0440
 1.7410	41.9930
 1.7420	41.9400
 1.7430	41.8830
 1.7440	41.8210
 1.7450	41.7600
 1.7460	41.6970
 1.7470	41.6340
 1.7480	41.5710
 1.7490	41.5070
 1.7500	41.4410
 1.7510	41.3760
 1.7520	41.3090
 1.7530	41.2450
 1.7540	41.1820
 1.7550	41.1190
 1.7560	41.0540
 1.7570	40.9920
 1.7580	40.9330
 1.7590	40.8760
 1.7600	40.8220
 1.7610	40.7660
 1.7620	40.7130
 1.7630	40.6580
 1.7640	40.6070
 1.7650	40.5600
 1.7660	40.5150
 1.7670	40.4750
 1.7680	40.4340
 1.7690	40.3940
 1.7700	40.3550
 1.7710	40.3160
 1.7720	40.2790
 1.7730	40.2440
 1.7740	40.2080
 1.7750	40.1730
 1.7760	40.1410
 1.7770	40.1110
 1.7780	40.0810
 1.7790	40.0550
 1.7800	40.0280
 1.7810	39.9990
 1.7820	39.9760
 1.7830	39.9550
 1.7840	39.9350
 1.7850	39.9190
 1.7860	39.9030
 1.7870	39.8890
 1.7880	39.8750
 1.7890	39.8630
 1.7900	39.8530
 1.7910	39.8440
 1.7920	39.8390
 1.7930	39.8350
 1.7940	39.8320
 1.7950	39.8300
 1.7960	39.8300
 1.7970	39.8310
 1.7980	39.8320
 1.7990	39.8350
 1.8000	39.8390
 1.8010	39.8430
 1.8020	39.8480
 1.8030	39.8530
 1.8040	39.8600
 1.8050	39.8670
 1.8060	39.8750
 1.8070	39.8800
 1.8080	39.8830
 1.8090	39.8880
 1.8100	39.8910
 1.8110	39.8970
 1.8120	39.9030
 1.8130	39.9070
 1.8140	39.9110
 1.8150	39.9150
 1.8160	39.9170
 1.8170	39.9200
 1.8180	39.9210
 1.8190	39.9190
 1.8200	39.9180
 1.8210	39.9180
 1.8220	39.9150
 1.8230	39.9130
 1.8240	39.9070
 1.8250	39.8960
 1.8260	39.8850
 1.8270	39.8740
 1.8280	39.8600
 1.8290	39.8440
 1.8300	39.8290
 1.8310	39.7170
 1.8320	39.6940
 1.8330	39.6640
 1.8340	39.6320
 1.8350	39.6030
 1.8360	39.5630
 1.8370	39.5160
 1.8380	39.4690
 1.8390	39.4170
 1.8400	39.3630
 1.8410	39.3030
 1.8420	39.2430
 1.8430	39.1710
 1.8440	39.0880
 1.8450	39.0030
 1.8460	38.9070
 1.8470	38.8050
 1.8480	38.6990
 1.8490	38.5810
 1.8500	38.4550
 1.8510	38.3220
 1.8520	38.1760
 1.8530	38.0190
 1.8540	37.8510
 1.8550	37.6690
 1.8560	37.4760
 1.8570	37.2680
 1.8580	37.0480
 1.8590	36.8170
 1.8600	36.5730
 1.8610	36.3120
 1.8620	36.0410
 1.8630	35.7550
 1.8640	35.4510
 1.8650	35.1310
 1.8660	34.7960
 1.8670	34.4420
 1.8680	34.0740
 1.8690	33.6910
 1.8700	33.2890
 1.8710	32.8690
 1.8720	32.4410
 1.8730	32.0020
 1.8740	31.5520
 1.8750	31.1010
 1.8760	30.6350
 1.8770	30.1680
 1.8780	29.6990
 1.8790	29.2210
 1.8800	28.7470
 1.8810	28.2760
 1.8820	27.8030
 1.8830	27.3270
 1.8840	26.8630
 1.8850	26.3950
 1.8860	25.9320
 1.8870	25.4830
 1.8880	25.0360
 1.8890	24.6060
 1.8900	24.1940
 1.8910	23.7960
 1.8920	23.4100
 1.8930	23.0450
 1.8940	22.6960
 1.8950	22.3650
 1.8960	22.0540
 1.8970	21.7610
 1.8980	21.4920
 1.8990	21.2420
 1.9000	21.0070
 1.9010	20.7930
 1.9020	20.5920
 1.9030	20.4080
 1.9040	20.2360
 1.9050	20.0790
 1.9060	19.9410
 1.9070	19.8170
 1.9080	19.7090
 1.9090	19.6120
 1.9100	19.5280
 1.9110	19.4500
 1.9120	19.3820
 1.9130	19.3200
 1.9140	19.2670
 1.9150	19.2160
 1.9160	19.1710
 1.9170	19.1330
 1.9180	19.0980
 1.9190	19.0680
 1.9200	19.0450
 1.9210	19.0280
 1.9220	19.0140
 1.9230	19.0060
 1.9240	18.9990
 1.9250	18.9970
 1.9260	18.9980
 1.9270	19.0030
 1.9280	19.0100
 1.9290	19.0210
 1.9300	19.0340
 1.9310	19.0490
 1.9320	19.0650
 1.9330	19.0830
 1.9340	19.1020
 1.9350	19.1240
 1.9360	19.1480
 1.9370	19.1740
 1.9380	19.2030
 1.9390	19.2330
 1.9400	19.2630
 1.9410	19.2960
 1.9420	19.3330
 1.9430	19.3720
 1.9440	19.4110
 1.9450	19.4520
 1.9460	19.4950
 1.9470	19.5400
 1.9480	19.5870
 1.9490	19.6370
 1.9500	19.6890
 1.9510	19.7390
 1.9520	19.7890
 1.9530	19.8390
 1.9540	19.8900
 1.9550	19.9450
 1.9560	20.0020
 1.9570	20.0600
 1.9580	20.1200
 1.9590	20.1810
 1.9600	20.2400
 1.9610	20.3010
 1.9620	20.3640
 1.9630	20.4280
 1.9640	20.4930
 1.9650	20.5590
 1.9660	20.6270
 1.9670	20.6920
 1.9680	20.7570
 1.9690	20.8190
 1.9700	20.8870
 1.9710	20.9570
 1.9720	21.0290
 1.9730	21.1060
 1.9740	21.1820
 1.9750	21.2550
 1.9760	21.3280
 1.9770	21.4010
 1.9780	21.4730
 1.9790	21.5470
 1.9800	21.6200
 1.9810	21.6960
 1.9820	21.7750
 1.9830	21.8510
 1.9840	21.9290
 1.9850	22.0060
 1.9860	22.0800
 1.9870	22.1520
 1.9880	22.2290
 1.9890	22.3080
 1.9900	22.3860
 1.9910	22.4670
 1.9920	22.5450
 1.9930	22.6220
 1.9940	22.7000
 1.9950	22.7760
 1.9960	22.8570
 1.9970	22.9400
 1.9980	23.0230
 1.9990	23.1070
 2.0000	23.1910
 2.0010	23.2710
 2.0020	23.3540
 2.0030	23.4330
 2.0040	23.5090
 2.0050	23.5880
 2.0060	23.6660
 2.0070	23.7450
 2.0080	23.8270
 2.0090	23.9050
 2.0100	23.9800
 2.0110	24.0560
 2.0120	24.1300
 2.0130	24.2050
 2.0140	24.2840
 2.0150	24.3610
 2.0160	24.4370
 2.0170	24.5130
 2.0180	24.5880
 2.0190	24.6630
 2.0200	24.7360
 2.0210	24.8080
 2.0220	24.8800
 2.0230	24.9490
 2.0240	25.0180
 2.0250	25.0870
 2.0260	25.1560
 2.0270	25.2240
 2.0280	25.2920
 2.0290	25.3590
 2.0300	25.4240
 2.0310	25.4880
 2.0320	25.5490
 2.0330	25.6120
 2.0340	25.6760
 2.0350	25.7390
 2.0360	25.8020
 2.0370	25.8640
 2.0380	25.9260
 2.0390	25.9840
 2.0400	26.0360
 2.0410	26.0920
 2.0420	26.1460
 2.0430	26.2010
 2.0440	26.2550
 2.0450	26.3110
 2.0460	26.3620
 2.0470	26.4090
 2.0480	26.4600
 2.0490	26.5120
 2.0500	26.5630
 2.0510	26.6160
 2.0520	26.6650
 2.0530	26.7090
 2.0540	26.7570
 2.0550	26.8040
 2.0560	26.8530
 2.0570	26.9060
 2.0580	26.9580
 2.0590	27.0090
 2.0600	27.0590
 2.0610	27.1080
 2.0620	27.1550
 2.0630	27.2060
 2.0640	27.2590
 2.0650	27.3110
 2.0660	27.3690
 2.0670	27.4220
 2.0680	27.4720
 2.0690	27.5220
 2.0700	27.5710
 2.0710	27.6200
 2.0720	27.6700
 2.0730	27.7200
 2.0740	27.7710
 2.0750	27.8240
 2.0760	27.8740
 2.0770	27.9230
 2.0780	27.9720
 2.0790	28.0190
 2.0800	28.0670
 2.0810	28.1170
 2.0820	28.1660
 2.0830	28.2170
 2.0840	28.2660
 2.0850	28.3140
 2.0860	28.3630
 2.0870	28.4110
 2.0880	28.4620
 2.0890	28.5100
 2.0900	28.5590
 2.0910	28.6080
 2.0920	28.6550
 2.0930	28.7050
 2.0940	28.7590
 2.0950	28.8090
 2.0960	28.8560
 2.0970	28.9040
 2.0980	28.9470
 2.0990	28.9950
 2.1000	29.0470
 2.1010	29.0950
 2.1020	29.1430
 2.1030	29.1920
 2.1040	29.2400
 2.1050	29.2880
 2.1060	29.3360
 2.1070	29.3870
 2.1080	29.4340
 2.1090	29.4780
 2.1100	29.5230
 2.1110	29.5660
 2.1120	29.6110
 2.1130	29.6580
 2.1140	29.7050
 2.1150	29.7570
 2.1160	29.8030
 2.1170	29.8460
 2.1180	29.8910
 2.1190	29.9360
 2.1200	29.9810
 2.1210	30.0270
 2.1220	30.0760
 2.1230	30.1210
 2.1240	30.1630
 2.1250	30.2070
 2.1260	30.2520
 2.1270	30.2950
 2.1280	30.3390
 2.1290	30.3780
 2.1300	30.4140
 2.1310	30.4520
 2.1320	30.4890
 2.1330	30.5240
 2.1340	30.5610
 2.1350	30.5960
 2.1360	30.6300
 2.1370	30.6610
 2.1380	30.6890
 2.1390	30.7190
 2.1400	30.7480
 2.1410	30.7750
 2.1420	30.8030
 2.1430	30.8320
 2.1440	30.8590
 2.1450	30.8810
 2.1460	30.9070
 2.1470	30.9340
 2.1480	30.9610
 2.1490	30.9890
 2.1500	31.0160
 2.1510	31.0440
 2.1520	31.0690
 2.1530	31.0950
 2.1540	31.1170
 2.1550	31.1360
 2.1560	31.1550
 2.1570	31.1720
 2.1580	31.1900
 2.1590	31.2100
 2.1600	31.2270
 2.1610	31.2420
 2.1620	31.2610
 2.1630	31.2780
 2.1640	31.2950
 2.1650	31.3110
 2.1660	31.3260
 2.1670	31.3420
 2.1680	31.3570
 2.1690	31.3720
 2.1700	31.3900
 2.1710	31.4040
 2.1720	31.4150
 2.1730	31.4290
 2.1740	31.4430
 2.1750	31.4580
 2.1760	31.4760
 2.1770	31.4900
 2.1780	31.5030
 2.1790	31.5170
 2.1800	31.5260
 2.1810	31.5400
 2.1820	31.5540
 2.1830	31.5710
 2.1840	31.5900
 2.1850	31.6130
 2.1860	31.6310
 2.1870	31.6500
 2.1880	31.6660
 2.1890	31.6810
 2.1900	31.6930
 2.1910	31.6990
 2.1920	31.7110
 2.1930	31.7190
 2.1940	31.7310
 2.1950	31.7480
 2.1960	31.7630
 2.1970	31.7770
 2.1980	31.7930
 2.1990	31.8110
 2.2000	31.8260
 2.2010	31.8430
 2.2020	31.8550
 2.2030	31.8620
 2.2040	31.8720
 2.2050	31.8830
 2.2060	31.8890
 2.2070	31.8970
 2.2080	31.9060
 2.2090	31.9120
 2.2100	31.9160
 2.2110	31.9210
 2.2120	31.9260
 2.2130	31.9340
 2.2140	31.9460
 2.2150	31.9520
 2.2160	31.9590
 2.2170	31.9620
 2.2180	31.9590
 2.2190	31.9570
 2.2200	31.9520
 2.2210	31.9480
 2.2220	31.9420
 2.2230	31.9350
 2.2240	31.9280
 2.2250	31.9180
 2.2260	31.9050
 2.2270	31.8920
 2.2280	31.8760
 2.2290	31.8610
 2.2300	31.8460
 2.2310	31.8300
 2.2320	31.8140
 2.2330	31.7940
 2.2340	31.7650
 2.2350	31.7260
 2.2360	31.6920
 2.2370	31.6520
 2.2380	31.6160
 2.2390	31.5830
 2.2400	31.5460
 2.2410	31.5050
 2.2420	31.4660
 2.2430	31.4290
 2.2440	31.3860
 2.2450	31.3390
 2.2460	31.2910
 2.2470	31.2360
 2.2480	31.1840
 2.2490	31.1330
 2.2500	31.0810
 2.2510	31.0310
 2.2520	30.9740
 2.2530	30.9150
 2.2540	30.8530
 2.2550	30.7840
 2.2560	30.7200
 2.2570	30.6580
 2.2580	30.5960
 2.2590	30.5360
 2.2600	30.4760
 2.2610	30.4180
 2.2620	30.3590
 2.2630	30.3030
 2.2640	30.2470
 2.2650	30.1880
 2.2660	30.1320
 2.2670	30.0710
 2.2680	30.0040
 2.2690	29.9460
 2.2700	29.8880
 2.2710	29.8350
 2.2720	29.7890
 2.2730	29.7430
 2.2740	29.6950
 2.2750	29.6540
 2.2760	29.6180
 2.2770	29.5800
 2.2780	29.5470
 2.2790	29.5080
 2.2800	29.4600
 2.2810	29.4210
 2.2820	29.3870
 2.2830	29.3470
 2.2840	29.3060
 2.2850	29.2680
 2.2860	29.2250
 2.2870	29.1860
 2.2880	29.1560
 2.2890	29.1190
 2.2900	29.0800
 2.2910	29.0350
 2.2920	28.9850
 2.2930	28.9360
 2.2940	28.8800
 2.2950	28.8280
 2.2960	28.7780
 2.2970	28.7260
 2.2980	28.6700
 2.2990	28.6190
 2.3000	28.5650
 2.3010	28.5170
 2.3020	28.4770
 2.3030	28.4280
 2.3040	28.3850
 2.3050	28.3470
 2.3060	28.3030
 2.3070	28.2700
 2.3080	28.2380
 2.3090	28.2070
 2.3100	28.1870
 2.3110	28.1700
 2.3120	28.1520
 2.3130	28.1370
 2.3140	28.1230
 2.3150	28.1110
 2.3160	28.0940
 2.3170	28.0820
 2.3180	28.0600
 2.3190	28.0260
 2.3200	28.0000
 2.3210	27.9720
 2.3220	27.9470
 2.3230	27.9330
 2.3240	27.9050
 2.3250	27.8690
 2.3260	27.8360
 2.3270	27.7920
 2.3280	27.7530
 2.3290	27.7190
 2.3300	27.6810
 2.3310	27.6430
 2.3320	27.6030
 2.3330	27.5660
 2.3340	27.5230
 2.3350	27.4760
 2.3360	27.4270
 2.3370	27.3720
 2.3380	27.3230
 2.3390	27.2770
 2.3400	27.2300
 2.3410	27.1840
 2.3420	27.1400
 2.3430	27.0940
 2.3440	27.0530
 2.3450	27.0180
 2.3460	26.9840
 2.3470	26.9560
 2.3480	26.9240
 2.3490	26.8930
 2.3500	26.8590
 2.3510	26.8190
 2.3520	26.7840
 2.3530	26.7520
 2.3540	26.7200
 2.3550	26.6950
 2.3560	26.6690
 2.3570	26.6380
 2.3580	26.6070
 2.3590	26.5680
 2.3600	26.5340
 2.3610	26.5000
 2.3620	26.4650
 2.3630	26.4340
 2.3640	26.3950
 2.3650	26.3610
 2.3660	26.3280
 2.3670	26.2870
 2.3680	26.2500
 2.3690	26.2170
 2.3700	26.1790
 2.3710	26.1480
 2.3720	26.1260
 2.3730	26.0860
 2.3740	26.0470
 2.3750	26.0070
 2.3760	25.9540
 2.3770	25.9070
 2.3780	25.8610
 2.3790	25.8180
 2.3800	25.7870
 2.3810	25.7600
 2.3820	25.7260
 2.3830	25.6790
 2.3840	25.6290
 2.3850	25.5750
 2.3860	25.5290
 2.3870	25.5040
 2.3880	25.4770
 2.3890	25.4380
 2.3900	25.4060
 2.3910	25.3640
 2.3920	25.3070
 2.3930	25.2690
 2.3940	25.2350
 2.3950	25.1900
 2.3960	25.1620
 2.3970	25.1280
 2.3980	25.0760
 2.3990	25.0360
 2.4000	25.0040
 2.4010	24.9660
 2.4020	24.9250
 2.4030	24.8790
 2.4040	24.8300
 2.4050	24.7900
 2.4060	24.7560
 2.4070	24.7240
 2.4080	24.6840
 2.4090	24.6290
 2.4100	24.5760
 2.4110	24.5260
 2.4120	24.4840
 2.4130	24.4470
 2.4140	24.4070
 2.4150	24.3710
 2.4160	24.3320
 2.4170	24.2900
 2.4180	24.2530
 2.4190	24.2130
 2.4200	24.1660
 2.4210	24.1230
 2.4220	24.0720
 2.4230	24.0240
 2.4240	23.9710
 2.4250	23.9170
 2.4260	23.8840
 2.4270	23.8540
 2.4280	23.8190
 2.4290	23.7750
 2.4300	23.7360
 2.4310	23.6870
 2.4320	23.6300
 2.4330	23.5910
 2.4340	23.5390
 2.4350	23.4870
 2.4360	23.4390
 2.4370	23.3840
 2.4380	23.3420
 2.4390	23.3090
 2.4400	23.2670
 2.4410	23.2290
 2.4420	23.1980
 2.4430	23.1410
 2.4440	23.0850
 2.4450	23.0430
 2.4460	22.9690
 2.4470	22.9020
 2.4480	22.8660
 2.4490	22.8210
 2.4500	22.7740
 2.4510	22.7510
 2.4520	22.7180
 2.4530	22.6760
 2.4540	22.6630
 2.4550	22.6310
 2.4560	22.5670
 2.4570	22.5080
 2.4580	22.4530
 2.4590	22.3900
 2.4600	22.3320
 2.4610	22.3110
 2.4620	22.2660
 2.4630	22.2180
 2.4640	22.2050
 2.4650	22.1600
 2.4660	22.1130
 2.4670	22.0720
 2.4680	22.0160
 2.4690	21.9180
 2.4700	21.8680
 2.4710	21.8230
 2.4720	21.8040
 2.4730	21.8590
 2.4740	21.8430
 2.4750	21.8010
 2.4760	21.7700
 2.4770	21.6950
 2.4780	21.6620
 2.4790	21.6590
 2.4800	21.6480
 2.4810	21.6380
 2.4820	21.6130
 2.4830	21.6510
 2.4840	21.6390
 2.4850	21.6300
 2.4860	21.6120
 2.4870	21.5370
 2.4880	21.5030
 2.4890	21.4820
 2.4900	21.4600
 2.4910	21.4610
 2.4920	21.4340
 2.4930	21.3800
 2.4940	21.3520
 2.4950	21.3010
 2.4960	21.2520
 2.4970	21.2940
 2.4980	21.3140
 2.4990	21.3010
 2.5000	21.3280
