Name: Peltophorum africanum
Type: vegetation
Class: Tree
Genus: Peltophorum
Species: africanum
Sample No.: JPL261
Owner: JPL
Wavelength Range: VSWIR
Origin: 34.13112; -118.11238; WGS84
Collection Date: 10/6/2016
Description: Samples were collected at the Huntington Garden in San Marino California as part of a JPL Subcontract studying HyTES imagery. Samples were taken to JPL and processed within 48 hours of collection. The same leaves were processed in the Nicolet and then measured using the ASD.
Measurement: Bidirectional reflectance
First Column: X
Second Column: Y
X Units: Wavelength (micrometer)
Y Units: Reflectance (percentage)
First X Value: 0.35
Last X Value: 2.5
Number of X Values: 2151
Additional Information: vegetation.tree.peltophorum.africanum.vswir.jpl261.jpl.asd.ancillary.txt

 0.3500	 3.7700
 0.3510	 3.6610
 0.3520	 3.5230
 0.3530	 3.4050
 0.3540	 3.3330
 0.3550	 3.4580
 0.3560	 3.4630
 0.3570	 3.3670
 0.3580	 3.3580
 0.3590	 3.4320
 0.3600	 3.4660
 0.3610	 3.4170
 0.3620	 3.3630
 0.3630	 3.3780
 0.3640	 3.3880
 0.3650	 3.3260
 0.3660	 3.2780
 0.3670	 3.2770
 0.3680	 3.2990
 0.3690	 3.2920
 0.3700	 3.3260
 0.3710	 3.3250
 0.3720	 3.2670
 0.3730	 3.2520
 0.3740	 3.2600
 0.3750	 3.2740
 0.3760	 3.2790
 0.3770	 3.2770
 0.3780	 3.2250
 0.3790	 3.1730
 0.3800	 3.2340
 0.3810	 3.2670
 0.3820	 3.2590
 0.3830	 3.2280
 0.3840	 3.2190
 0.3850	 3.2230
 0.3860	 3.2260
 0.3870	 3.2170
 0.3880	 3.2070
 0.3890	 3.1990
 0.3900	 3.2000
 0.3910	 3.2210
 0.3920	 3.2170
 0.3930	 3.1980
 0.3940	 3.1850
 0.3950	 3.1930
 0.3960	 3.2060
 0.3970	 3.2120
 0.3980	 3.2060
 0.3990	 3.1900
 0.4000	 3.2040
 0.4010	 3.2390
 0.4020	 3.2240
 0.4030	 3.2090
 0.4040	 3.2030
 0.4050	 3.2070
 0.4060	 3.2130
 0.4070	 3.2160
 0.4080	 3.2170
 0.4090	 3.2200
 0.4100	 3.2300
 0.4110	 3.2400
 0.4120	 3.2450
 0.4130	 3.2470
 0.4140	 3.2540
 0.4150	 3.2650
 0.4160	 3.2790
 0.4170	 3.2830
 0.4180	 3.2830
 0.4190	 3.2860
 0.4200	 3.2920
 0.4210	 3.3020
 0.4220	 3.3070
 0.4230	 3.3050
 0.4240	 3.3200
 0.4250	 3.3240
 0.4260	 3.3220
 0.4270	 3.3320
 0.4280	 3.3340
 0.4290	 3.3300
 0.4300	 3.3250
 0.4310	 3.3320
 0.4320	 3.3340
 0.4330	 3.3370
 0.4340	 3.3470
 0.4350	 3.3480
 0.4360	 3.3500
 0.4370	 3.3510
 0.4380	 3.3440
 0.4390	 3.3430
 0.4400	 3.3480
 0.4410	 3.3500
 0.4420	 3.3430
 0.4430	 3.3430
 0.4440	 3.3480
 0.4450	 3.3550
 0.4460	 3.3570
 0.4470	 3.3540
 0.4480	 3.3500
 0.4490	 3.3520
 0.4500	 3.3580
 0.4510	 3.3670
 0.4520	 3.3730
 0.4530	 3.3700
 0.4540	 3.3750
 0.4550	 3.3840
 0.4560	 3.3800
 0.4570	 3.3760
 0.4580	 3.3750
 0.4590	 3.3760
 0.4600	 3.3800
 0.4610	 3.3800
 0.4620	 3.3780
 0.4630	 3.3790
 0.4640	 3.3800
 0.4650	 3.3780
 0.4660	 3.3730
 0.4670	 3.3680
 0.4680	 3.3640
 0.4690	 3.3640
 0.4700	 3.3700
 0.4710	 3.3670
 0.4720	 3.3610
 0.4730	 3.3580
 0.4740	 3.3610
 0.4750	 3.3620
 0.4760	 3.3630
 0.4770	 3.3640
 0.4780	 3.3660
 0.4790	 3.3650
 0.4800	 3.3610
 0.4810	 3.3590
 0.4820	 3.3630
 0.4830	 3.3650
 0.4840	 3.3660
 0.4850	 3.3700
 0.4860	 3.3720
 0.4870	 3.3760
 0.4880	 3.3840
 0.4890	 3.3750
 0.4900	 3.3740
 0.4910	 3.3810
 0.4920	 3.3860
 0.4930	 3.3900
 0.4940	 3.3970
 0.4950	 3.4050
 0.4960	 3.4050
 0.4970	 3.4140
 0.4980	 3.4260
 0.4990	 3.4360
 0.5000	 3.4430
 0.5010	 3.4560
 0.5020	 3.4730
 0.5030	 3.4900
 0.5040	 3.5110
 0.5050	 3.5330
 0.5060	 3.5580
 0.5070	 3.5940
 0.5080	 3.6320
 0.5090	 3.6710
 0.5100	 3.7180
 0.5110	 3.7750
 0.5120	 3.8390
 0.5130	 3.9080
 0.5140	 3.9880
 0.5150	 4.0720
 0.5160	 4.1640
 0.5170	 4.2710
 0.5180	 4.3880
 0.5190	 4.5120
 0.5200	 4.6460
 0.5210	 4.7870
 0.5220	 4.9300
 0.5230	 5.0760
 0.5240	 5.2240
 0.5250	 5.3690
 0.5260	 5.5150
 0.5270	 5.6580
 0.5280	 5.7910
 0.5290	 5.9170
 0.5300	 6.0360
 0.5310	 6.1460
 0.5320	 6.2480
 0.5330	 6.3430
 0.5340	 6.4250
 0.5350	 6.4930
 0.5360	 6.5540
 0.5370	 6.6090
 0.5380	 6.6600
 0.5390	 6.7040
 0.5400	 6.7480
 0.5410	 6.7890
 0.5420	 6.8260
 0.5430	 6.8620
 0.5440	 6.8890
 0.5450	 6.9090
 0.5460	 6.9230
 0.5470	 6.9300
 0.5480	 6.9370
 0.5490	 6.9450
 0.5500	 6.9530
 0.5510	 6.9570
 0.5520	 6.9530
 0.5530	 6.9390
 0.5540	 6.9200
 0.5550	 6.8920
 0.5560	 6.8530
 0.5570	 6.8020
 0.5580	 6.7450
 0.5590	 6.6810
 0.5600	 6.6060
 0.5610	 6.5230
 0.5620	 6.4380
 0.5630	 6.3510
 0.5640	 6.2590
 0.5650	 6.1620
 0.5660	 6.0620
 0.5670	 5.9620
 0.5680	 5.8600
 0.5690	 5.7580
 0.5700	 5.6560
 0.5710	 5.5560
 0.5720	 5.4550
 0.5730	 5.3600
 0.5740	 5.2740
 0.5750	 5.1970
 0.5760	 5.1260
 0.5770	 5.0590
 0.5780	 4.9960
 0.5790	 4.9360
 0.5800	 4.8770
 0.5810	 4.8240
 0.5820	 4.7800
 0.5830	 4.7420
 0.5840	 4.7040
 0.5850	 4.6650
 0.5860	 4.6280
 0.5870	 4.5920
 0.5880	 4.5560
 0.5890	 4.5230
 0.5900	 4.4950
 0.5910	 4.4700
 0.5920	 4.4470
 0.5930	 4.4280
 0.5940	 4.4090
 0.5950	 4.3920
 0.5960	 4.3770
 0.5970	 4.3630
 0.5980	 4.3490
 0.5990	 4.3340
 0.6000	 4.3190
 0.6010	 4.3040
 0.6020	 4.2870
 0.6030	 4.2680
 0.6040	 4.2480
 0.6050	 4.2230
 0.6060	 4.1980
 0.6070	 4.1720
 0.6080	 4.1420
 0.6090	 4.1150
 0.6100	 4.0910
 0.6110	 4.0670
 0.6120	 4.0380
 0.6130	 4.0030
 0.6140	 3.9650
 0.6150	 3.9350
 0.6160	 3.9070
 0.6170	 3.8800
 0.6180	 3.8530
 0.6190	 3.8330
 0.6200	 3.8150
 0.6210	 3.7990
 0.6220	 3.7850
 0.6230	 3.7710
 0.6240	 3.7600
 0.6250	 3.7510
 0.6260	 3.7420
 0.6270	 3.7360
 0.6280	 3.7330
 0.6290	 3.7300
 0.6300	 3.7230
 0.6310	 3.7180
 0.6320	 3.7140
 0.6330	 3.7070
 0.6340	 3.6970
 0.6350	 3.6840
 0.6360	 3.6690
 0.6370	 3.6490
 0.6380	 3.6270
 0.6390	 3.6030
 0.6400	 3.5790
 0.6410	 3.5550
 0.6420	 3.5310
 0.6430	 3.5080
 0.6440	 3.4860
 0.6450	 3.4670
 0.6460	 3.4510
 0.6470	 3.4360
 0.6480	 3.4230
 0.6490	 3.4130
 0.6500	 3.4070
 0.6510	 3.4030
 0.6520	 3.4000
 0.6530	 3.3980
 0.6540	 3.3980
 0.6550	 3.3990
 0.6560	 3.3980
 0.6570	 3.3960
 0.6580	 3.3940
 0.6590	 3.3940
 0.6600	 3.3930
 0.6610	 3.3910
 0.6620	 3.3950
 0.6630	 3.3980
 0.6640	 3.4030
 0.6650	 3.4130
 0.6660	 3.4230
 0.6670	 3.4370
 0.6680	 3.4540
 0.6690	 3.4740
 0.6700	 3.4950
 0.6710	 3.5200
 0.6720	 3.5480
 0.6730	 3.5780
 0.6740	 3.6100
 0.6750	 3.6440
 0.6760	 3.6830
 0.6770	 3.7260
 0.6780	 3.7730
 0.6790	 3.8220
 0.6800	 3.8720
 0.6810	 3.9230
 0.6820	 3.9730
 0.6830	 4.0210
 0.6840	 4.0670
 0.6850	 4.1080
 0.6860	 4.1460
 0.6870	 4.1830
 0.6880	 4.2230
 0.6890	 4.2680
 0.6900	 4.3270
 0.6910	 4.4080
 0.6920	 4.5220
 0.6930	 4.6720
 0.6940	 4.8660
 0.6950	 5.1140
 0.6960	 5.4170
 0.6970	 5.7750
 0.6980	 6.1870
 0.6990	 6.6560
 0.7000	 7.1750
 0.7010	 7.7390
 0.7020	 8.3410
 0.7030	 8.9820
 0.7040	 9.6530
 0.7050	10.3490
 0.7060	11.0670
 0.7070	11.8070
 0.7080	12.5670
 0.7090	13.3440
 0.7100	14.1390
 0.7110	14.9500
 0.7120	15.7760
 0.7130	16.6150
 0.7140	17.4660
 0.7150	18.3280
 0.7160	19.1960
 0.7170	20.0710
 0.7180	20.9490
 0.7190	21.8270
 0.7200	22.7000
 0.7210	23.5700
 0.7220	24.4310
 0.7230	25.2770
 0.7240	26.1070
 0.7250	26.9180
 0.7260	27.7090
 0.7270	28.4780
 0.7280	29.2190
 0.7290	29.9330
 0.7300	30.6180
 0.7310	31.2740
 0.7320	31.8980
 0.7330	32.4940
 0.7340	33.0600
 0.7350	33.5910
 0.7360	34.0900
 0.7370	34.5580
 0.7380	34.9930
 0.7390	35.4010
 0.7400	35.7770
 0.7410	36.1230
 0.7420	36.4430
 0.7430	36.7340
 0.7440	36.9980
 0.7450	37.2370
 0.7460	37.4490
 0.7470	37.6400
 0.7480	37.8100
 0.7490	37.9610
 0.7500	38.0940
 0.7510	38.2100
 0.7520	38.3110
 0.7530	38.4000
 0.7540	38.4760
 0.7550	38.5440
 0.7560	38.6050
 0.7570	38.6550
 0.7580	38.7000
 0.7590	38.7380
 0.7600	38.7700
 0.7610	38.7980
 0.7620	38.8190
 0.7630	38.8340
 0.7640	38.8440
 0.7650	38.8510
 0.7660	38.8540
 0.7670	38.8540
 0.7680	38.8530
 0.7690	38.8520
 0.7700	38.8480
 0.7710	38.8410
 0.7720	38.8360
 0.7730	38.8320
 0.7740	38.8260
 0.7750	38.8190
 0.7760	38.8160
 0.7770	38.8090
 0.7780	38.8020
 0.7790	38.7980
 0.7800	38.7940
 0.7810	38.7920
 0.7820	38.7920
 0.7830	38.7910
 0.7840	38.7890
 0.7850	38.7850
 0.7860	38.7820
 0.7870	38.7770
 0.7880	38.7720
 0.7890	38.7680
 0.7900	38.7650
 0.7910	38.7570
 0.7920	38.7530
 0.7930	38.7510
 0.7940	38.7430
 0.7950	38.7370
 0.7960	38.7330
 0.7970	38.7260
 0.7980	38.7150
 0.7990	38.7050
 0.8000	38.6950
 0.8010	38.6870
 0.8020	38.6770
 0.8030	38.6660
 0.8040	38.6550
 0.8050	38.6450
 0.8060	38.6300
 0.8070	38.6180
 0.8080	38.6090
 0.8090	38.5960
 0.8100	38.5820
 0.8110	38.5690
 0.8120	38.5570
 0.8130	38.5400
 0.8140	38.5220
 0.8150	38.5050
 0.8160	38.4880
 0.8170	38.4750
 0.8180	38.4620
 0.8190	38.4470
 0.8200	38.4310
 0.8210	38.4130
 0.8220	38.3970
 0.8230	38.3840
 0.8240	38.3690
 0.8250	38.3520
 0.8260	38.3350
 0.8270	38.3210
 0.8280	38.3070
 0.8290	38.2880
 0.8300	38.2700
 0.8310	38.2550
 0.8320	38.2420
 0.8330	38.2280
 0.8340	38.2140
 0.8350	38.2010
 0.8360	38.1910
 0.8370	38.1800
 0.8380	38.1680
 0.8390	38.1510
 0.8400	38.1400
 0.8410	38.1330
 0.8420	38.1270
 0.8430	38.1160
 0.8440	38.1070
 0.8450	38.1000
 0.8460	38.0960
 0.8470	38.0870
 0.8480	38.0800
 0.8490	38.0760
 0.8500	38.0700
 0.8510	38.0660
 0.8520	38.0610
 0.8530	38.0560
 0.8540	38.0540
 0.8550	38.0540
 0.8560	38.0500
 0.8570	38.0450
 0.8580	38.0440
 0.8590	38.0440
 0.8600	38.0410
 0.8610	38.0380
 0.8620	38.0450
 0.8630	38.0490
 0.8640	38.0490
 0.8650	38.0490
 0.8660	38.0510
 0.8670	38.0500
 0.8680	38.0510
 0.8690	38.0560
 0.8700	38.0610
 0.8710	38.0650
 0.8720	38.0710
 0.8730	38.0790
 0.8740	38.0810
 0.8750	38.0860
 0.8760	38.0950
 0.8770	38.1000
 0.8780	38.1000
 0.8790	38.1030
 0.8800	38.1120
 0.8810	38.1190
 0.8820	38.1220
 0.8830	38.1250
 0.8840	38.1330
 0.8850	38.1400
 0.8860	38.1460
 0.8870	38.1510
 0.8880	38.1540
 0.8890	38.1640
 0.8900	38.1720
 0.8910	38.1790
 0.8920	38.1830
 0.8930	38.1830
 0.8940	38.1880
 0.8950	38.1970
 0.8960	38.2040
 0.8970	38.2060
 0.8980	38.2110
 0.8990	38.2190
 0.9000	38.2250
 0.9010	38.2320
 0.9020	38.2360
 0.9030	38.2370
 0.9040	38.2440
 0.9050	38.2520
 0.9060	38.2540
 0.9070	38.2520
 0.9080	38.2550
 0.9090	38.2610
 0.9100	38.2650
 0.9110	38.2640
 0.9120	38.2620
 0.9130	38.2600
 0.9140	38.2640
 0.9150	38.2740
 0.9160	38.2730
 0.9170	38.2690
 0.9180	38.2670
 0.9190	38.2680
 0.9200	38.2650
 0.9210	38.2580
 0.9220	38.2510
 0.9230	38.2520
 0.9240	38.2540
 0.9250	38.2500
 0.9260	38.2400
 0.9270	38.2320
 0.9280	38.2200
 0.9290	38.2090
 0.9300	38.2010
 0.9310	38.1880
 0.9320	38.1740
 0.9330	38.1640
 0.9340	38.1570
 0.9350	38.1410
 0.9360	38.1240
 0.9370	38.1070
 0.9380	38.0910
 0.9390	38.0790
 0.9400	38.0660
 0.9410	38.0520
 0.9420	38.0350
 0.9430	38.0110
 0.9440	37.9870
 0.9450	37.9660
 0.9460	37.9500
 0.9470	37.9290
 0.9480	37.9010
 0.9490	37.8650
 0.9500	37.8250
 0.9510	37.8000
 0.9520	37.7730
 0.9530	37.7410
 0.9540	37.7040
 0.9550	37.6630
 0.9560	37.6260
 0.9570	37.5950
 0.9580	37.5680
 0.9590	37.5400
 0.9600	37.5050
 0.9610	37.4680
 0.9620	37.4390
 0.9630	37.4130
 0.9640	37.3940
 0.9650	37.3770
 0.9660	37.3570
 0.9670	37.3440
 0.9680	37.3300
 0.9690	37.3140
 0.9700	37.2970
 0.9710	37.2890
 0.9720	37.2720
 0.9730	37.2530
 0.9740	37.2460
 0.9750	37.2420
 0.9760	37.2290
 0.9770	37.2150
 0.9780	37.2140
 0.9790	37.2130
 0.9800	37.2030
 0.9810	37.1930
 0.9820	37.1930
 0.9830	37.1890
 0.9840	37.1790
 0.9850	37.1670
 0.9860	37.1590
 0.9870	37.1610
 0.9880	37.1650
 0.9890	37.1690
 0.9900	37.1680
 0.9910	37.1560
 0.9920	37.1530
 0.9930	37.1600
 0.9940	37.1660
 0.9950	37.1550
 0.9960	37.1520
 0.9970	37.1620
 0.9980	37.1740
 0.9990	37.1740
 1.0000	37.1790
 1.0010	38.0450
 1.0020	38.0530
 1.0030	38.0580
 1.0040	38.0640
 1.0050	38.0730
 1.0060	38.0780
 1.0070	38.0800
 1.0080	38.0860
 1.0090	38.0950
 1.0100	38.1000
 1.0110	38.1040
 1.0120	38.1100
 1.0130	38.1140
 1.0140	38.1180
 1.0150	38.1230
 1.0160	38.1320
 1.0170	38.1350
 1.0180	38.1360
 1.0190	38.1440
 1.0200	38.1490
 1.0210	38.1540
 1.0220	38.1630
 1.0230	38.1690
 1.0240	38.1730
 1.0250	38.1790
 1.0260	38.1870
 1.0270	38.1930
 1.0280	38.1990
 1.0290	38.2060
 1.0300	38.2100
 1.0310	38.2170
 1.0320	38.2260
 1.0330	38.2350
 1.0340	38.2440
 1.0350	38.2520
 1.0360	38.2570
 1.0370	38.2650
 1.0380	38.2720
 1.0390	38.2790
 1.0400	38.2850
 1.0410	38.2890
 1.0420	38.2950
 1.0430	38.3010
 1.0440	38.3070
 1.0450	38.3140
 1.0460	38.3210
 1.0470	38.3290
 1.0480	38.3350
 1.0490	38.3430
 1.0500	38.3480
 1.0510	38.3480
 1.0520	38.3490
 1.0530	38.3540
 1.0540	38.3600
 1.0550	38.3640
 1.0560	38.3700
 1.0570	38.3720
 1.0580	38.3710
 1.0590	38.3720
 1.0600	38.3760
 1.0610	38.3770
 1.0620	38.3750
 1.0630	38.3740
 1.0640	38.3720
 1.0650	38.3700
 1.0660	38.3680
 1.0670	38.3670
 1.0680	38.3670
 1.0690	38.3670
 1.0700	38.3660
 1.0710	38.3680
 1.0720	38.3650
 1.0730	38.3580
 1.0740	38.3530
 1.0750	38.3450
 1.0760	38.3400
 1.0770	38.3370
 1.0780	38.3320
 1.0790	38.3270
 1.0800	38.3230
 1.0810	38.3190
 1.0820	38.3160
 1.0830	38.3160
 1.0840	38.3120
 1.0850	38.3070
 1.0860	38.3020
 1.0870	38.2950
 1.0880	38.2850
 1.0890	38.2780
 1.0900	38.2720
 1.0910	38.2650
 1.0920	38.2600
 1.0930	38.2550
 1.0940	38.2500
 1.0950	38.2420
 1.0960	38.2320
 1.0970	38.2240
 1.0980	38.2170
 1.0990	38.2090
 1.1000	38.2040
 1.1010	38.1980
 1.1020	38.1910
 1.1030	38.1860
 1.1040	38.1780
 1.1050	38.1690
 1.1060	38.1610
 1.1070	38.1510
 1.1080	38.1440
 1.1090	38.1390
 1.1100	38.1300
 1.1110	38.1210
 1.1120	38.1100
 1.1130	38.0980
 1.1140	38.0860
 1.1150	38.0740
 1.1160	38.0610
 1.1170	38.0480
 1.1180	38.0330
 1.1190	38.0160
 1.1200	37.9990
 1.1210	37.9830
 1.1220	37.9650
 1.1230	37.9450
 1.1240	37.9260
 1.1250	37.9040
 1.1260	37.8810
 1.1270	37.8550
 1.1280	37.8280
 1.1290	37.7970
 1.1300	37.7610
 1.1310	37.7240
 1.1320	37.6850
 1.1330	37.6430
 1.1340	37.6000
 1.1350	37.5520
 1.1360	37.5020
 1.1370	37.4480
 1.1380	37.3890
 1.1390	37.3290
 1.1400	37.2650
 1.1410	37.2000
 1.1420	37.1350
 1.1430	37.0680
 1.1440	37.0000
 1.1450	36.9290
 1.1460	36.8610
 1.1470	36.7900
 1.1480	36.7220
 1.1490	36.6540
 1.1500	36.5920
 1.1510	36.5330
 1.1520	36.4750
 1.1530	36.4200
 1.1540	36.3690
 1.1550	36.3200
 1.1560	36.2740
 1.1570	36.2330
 1.1580	36.1970
 1.1590	36.1640
 1.1600	36.1340
 1.1610	36.1070
 1.1620	36.0850
 1.1630	36.0630
 1.1640	36.0430
 1.1650	36.0260
 1.1660	36.0130
 1.1670	35.9980
 1.1680	35.9840
 1.1690	35.9730
 1.1700	35.9600
 1.1710	35.9500
 1.1720	35.9450
 1.1730	35.9360
 1.1740	35.9260
 1.1750	35.9180
 1.1760	35.9090
 1.1770	35.8980
 1.1780	35.8880
 1.1790	35.8790
 1.1800	35.8700
 1.1810	35.8610
 1.1820	35.8530
 1.1830	35.8440
 1.1840	35.8320
 1.1850	35.8220
 1.1860	35.8110
 1.1870	35.7990
 1.1880	35.7880
 1.1890	35.7790
 1.1900	35.7700
 1.1910	35.7640
 1.1920	35.7570
 1.1930	35.7530
 1.1940	35.7460
 1.1950	35.7390
 1.1960	35.7330
 1.1970	35.7290
 1.1980	35.7230
 1.1990	35.7200
 1.2000	35.7160
 1.2010	35.7140
 1.2020	35.7140
 1.2030	35.7150
 1.2040	35.7180
 1.2050	35.7210
 1.2060	35.7220
 1.2070	35.7230
 1.2080	35.7250
 1.2090	35.7280
 1.2100	35.7330
 1.2110	35.7380
 1.2120	35.7420
 1.2130	35.7480
 1.2140	35.7530
 1.2150	35.7610
 1.2160	35.7710
 1.2170	35.7810
 1.2180	35.7890
 1.2190	35.7970
 1.2200	35.8060
 1.2210	35.8140
 1.2220	35.8230
 1.2230	35.8340
 1.2240	35.8420
 1.2250	35.8500
 1.2260	35.8590
 1.2270	35.8680
 1.2280	35.8760
 1.2290	35.8840
 1.2300	35.8910
 1.2310	35.8970
 1.2320	35.9040
 1.2330	35.9100
 1.2340	35.9150
 1.2350	35.9220
 1.2360	35.9270
 1.2370	35.9310
 1.2380	35.9350
 1.2390	35.9400
 1.2400	35.9440
 1.2410	35.9500
 1.2420	35.9560
 1.2430	35.9600
 1.2440	35.9650
 1.2450	35.9680
 1.2460	35.9690
 1.2470	35.9720
 1.2480	35.9730
 1.2490	35.9740
 1.2500	35.9770
 1.2510	35.9790
 1.2520	35.9810
 1.2530	35.9830
 1.2540	35.9830
 1.2550	35.9830
 1.2560	35.9810
 1.2570	35.9800
 1.2580	35.9810
 1.2590	35.9800
 1.2600	35.9820
 1.2610	35.9800
 1.2620	35.9760
 1.2630	35.9710
 1.2640	35.9670
 1.2650	35.9620
 1.2660	35.9590
 1.2670	35.9550
 1.2680	35.9510
 1.2690	35.9450
 1.2700	35.9390
 1.2710	35.9350
 1.2720	35.9280
 1.2730	35.9210
 1.2740	35.9170
 1.2750	35.9100
 1.2760	35.9010
 1.2770	35.8930
 1.2780	35.8840
 1.2790	35.8740
 1.2800	35.8660
 1.2810	35.8560
 1.2820	35.8440
 1.2830	35.8320
 1.2840	35.8180
 1.2850	35.8030
 1.2860	35.7860
 1.2870	35.7690
 1.2880	35.7520
 1.2890	35.7330
 1.2900	35.7130
 1.2910	35.6910
 1.2920	35.6670
 1.2930	35.6400
 1.2940	35.6120
 1.2950	35.5850
 1.2960	35.5570
 1.2970	35.5270
 1.2980	35.4950
 1.2990	35.4610
 1.3000	35.4220
 1.3010	35.3850
 1.3020	35.3460
 1.3030	35.3070
 1.3040	35.2700
 1.3050	35.2300
 1.3060	35.1890
 1.3070	35.1450
 1.3080	35.0980
 1.3090	35.0520
 1.3100	35.0050
 1.3110	34.9580
 1.3120	34.9100
 1.3130	34.8610
 1.3140	34.8100
 1.3150	34.7570
 1.3160	34.7020
 1.3170	34.6460
 1.3180	34.5880
 1.3190	34.5280
 1.3200	34.4670
 1.3210	34.4050
 1.3220	34.3420
 1.3230	34.2780
 1.3240	34.2130
 1.3250	34.1480
 1.3260	34.0850
 1.3270	34.0180
 1.3280	33.9490
 1.3290	33.8790
 1.3300	33.8050
 1.3310	33.7310
 1.3320	33.6560
 1.3330	33.5800
 1.3340	33.5030
 1.3350	33.4260
 1.3360	33.3490
 1.3370	33.2700
 1.3380	33.1900
 1.3390	33.1120
 1.3400	33.0330
 1.3410	32.9560
 1.3420	32.8800
 1.3430	32.8040
 1.3440	32.7290
 1.3450	32.6540
 1.3460	32.5780
 1.3470	32.5030
 1.3480	32.4270
 1.3490	32.3530
 1.3500	32.2810
 1.3510	32.2070
 1.3520	32.1340
 1.3530	32.0610
 1.3540	31.9880
 1.3550	31.9140
 1.3560	31.8420
 1.3570	31.7680
 1.3580	31.6930
 1.3590	31.6170
 1.3600	31.5390
 1.3610	31.4610
 1.3620	31.3790
 1.3630	31.2940
 1.3640	31.2050
 1.3650	31.1100
 1.3660	31.0120
 1.3670	30.9090
 1.3680	30.8000
 1.3690	30.6840
 1.3700	30.5570
 1.3710	30.4220
 1.3720	30.2770
 1.3730	30.1200
 1.3740	29.9520
 1.3750	29.7730
 1.3760	29.5770
 1.3770	29.3680
 1.3780	29.1410
 1.3790	28.8970
 1.3800	28.6380
 1.3810	28.3590
 1.3820	28.0660
 1.3830	27.7590
 1.3840	27.4330
 1.3850	27.0910
 1.3860	26.7330
 1.3870	26.3560
 1.3880	25.9700
 1.3890	25.5700
 1.3900	25.1570
 1.3910	24.7410
 1.3920	24.3140
 1.3930	23.8790
 1.3940	23.4410
 1.3950	22.9960
 1.3960	22.5520
 1.3970	22.1110
 1.3980	21.6740
 1.3990	21.2490
 1.4000	20.8300
 1.4010	20.4200
 1.4020	20.0210
 1.4030	19.6290
 1.4040	19.2510
 1.4050	18.8870
 1.4060	18.5380
 1.4070	18.2070
 1.4080	17.8920
 1.4090	17.5910
 1.4100	17.3080
 1.4110	17.0390
 1.4120	16.7860
 1.4130	16.5490
 1.4140	16.3280
 1.4150	16.1230
 1.4160	15.9320
 1.4170	15.7530
 1.4180	15.5880
 1.4190	15.4340
 1.4200	15.2920
 1.4210	15.1600
 1.4220	15.0380
 1.4230	14.9280
 1.4240	14.8250
 1.4250	14.7310
 1.4260	14.6450
 1.4270	14.5650
 1.4280	14.4930
 1.4290	14.4260
 1.4300	14.3660
 1.4310	14.3100
 1.4320	14.2610
 1.4330	14.2160
 1.4340	14.1750
 1.4350	14.1370
 1.4360	14.1040
 1.4370	14.0750
 1.4380	14.0510
 1.4390	14.0300
 1.4400	14.0120
 1.4410	13.9960
 1.4420	13.9810
 1.4430	13.9690
 1.4440	13.9600
 1.4450	13.9530
 1.4460	13.9490
 1.4470	13.9470
 1.4480	13.9480
 1.4490	13.9490
 1.4500	13.9520
 1.4510	13.9590
 1.4520	13.9660
 1.4530	13.9740
 1.4540	13.9840
 1.4550	13.9950
 1.4560	14.0090
 1.4570	14.0260
 1.4580	14.0450
 1.4590	14.0680
 1.4600	14.0950
 1.4610	14.1240
 1.4620	14.1570
 1.4630	14.1950
 1.4640	14.2360
 1.4650	14.2810
 1.4660	14.3300
 1.4670	14.3840
 1.4680	14.4420
 1.4690	14.5030
 1.4700	14.5700
 1.4710	14.6410
 1.4720	14.7150
 1.4730	14.7920
 1.4740	14.8720
 1.4750	14.9550
 1.4760	15.0410
 1.4770	15.1300
 1.4780	15.2220
 1.4790	15.3160
 1.4800	15.4100
 1.4810	15.5070
 1.4820	15.6060
 1.4830	15.7040
 1.4840	15.8030
 1.4850	15.9040
 1.4860	16.0050
 1.4870	16.1070
 1.4880	16.2120
 1.4890	16.3160
 1.4900	16.4190
 1.4910	16.5240
 1.4920	16.6280
 1.4930	16.7300
 1.4940	16.8340
 1.4950	16.9380
 1.4960	17.0430
 1.4970	17.1470
 1.4980	17.2520
 1.4990	17.3570
 1.5000	17.4600
 1.5010	17.5640
 1.5020	17.6670
 1.5030	17.7690
 1.5040	17.8710
 1.5050	17.9710
 1.5060	18.0730
 1.5070	18.1750
 1.5080	18.2770
 1.5090	18.3780
 1.5100	18.4800
 1.5110	18.5790
 1.5120	18.6790
 1.5130	18.7770
 1.5140	18.8740
 1.5150	18.9720
 1.5160	19.0680
 1.5170	19.1640
 1.5180	19.2580
 1.5190	19.3520
 1.5200	19.4460
 1.5210	19.5380
 1.5220	19.6300
 1.5230	19.7230
 1.5240	19.8140
 1.5250	19.9040
 1.5260	19.9940
 1.5270	20.0830
 1.5280	20.1710
 1.5290	20.2580
 1.5300	20.3450
 1.5310	20.4300
 1.5320	20.5150
 1.5330	20.5980
 1.5340	20.6810
 1.5350	20.7620
 1.5360	20.8430
 1.5370	20.9230
 1.5380	21.0020
 1.5390	21.0800
 1.5400	21.1570
 1.5410	21.2340
 1.5420	21.3110
 1.5430	21.3860
 1.5440	21.4610
 1.5450	21.5350
 1.5460	21.6090
 1.5470	21.6830
 1.5480	21.7550
 1.5490	21.8250
 1.5500	21.8950
 1.5510	21.9620
 1.5520	22.0310
 1.5530	22.0990
 1.5540	22.1640
 1.5550	22.2300
 1.5560	22.2950
 1.5570	22.3580
 1.5580	22.4210
 1.5590	22.4830
 1.5600	22.5430
 1.5610	22.6010
 1.5620	22.6590
 1.5630	22.7180
 1.5640	22.7760
 1.5650	22.8340
 1.5660	22.8900
 1.5670	22.9440
 1.5680	22.9980
 1.5690	23.0520
 1.5700	23.1040
 1.5710	23.1580
 1.5720	23.2110
 1.5730	23.2640
 1.5740	23.3160
 1.5750	23.3670
 1.5760	23.4180
 1.5770	23.4670
 1.5780	23.5160
 1.5790	23.5640
 1.5800	23.6120
 1.5810	23.6590
 1.5820	23.7050
 1.5830	23.7510
 1.5840	23.7970
 1.5850	23.8430
 1.5860	23.8870
 1.5870	23.9320
 1.5880	23.9760
 1.5890	24.0190
 1.5900	24.0620
 1.5910	24.1040
 1.5920	24.1460
 1.5930	24.1870
 1.5940	24.2290
 1.5950	24.2690
 1.5960	24.3090
 1.5970	24.3480
 1.5980	24.3860
 1.5990	24.4250
 1.6000	24.4640
 1.6010	24.5010
 1.6020	24.5370
 1.6030	24.5740
 1.6040	24.6110
 1.6050	24.6480
 1.6060	24.6830
 1.6070	24.7180
 1.6080	24.7510
 1.6090	24.7830
 1.6100	24.8160
 1.6110	24.8480
 1.6120	24.8780
 1.6130	24.9090
 1.6140	24.9380
 1.6150	24.9680
 1.6160	24.9970
 1.6170	25.0260
 1.6180	25.0540
 1.6190	25.0820
 1.6200	25.1080
 1.6210	25.1330
 1.6220	25.1570
 1.6230	25.1800
 1.6240	25.2040
 1.6250	25.2260
 1.6260	25.2490
 1.6270	25.2720
 1.6280	25.2910
 1.6290	25.3120
 1.6300	25.3340
 1.6310	25.3520
 1.6320	25.3700
 1.6330	25.3860
 1.6340	25.3990
 1.6350	25.4120
 1.6360	25.4260
 1.6370	25.4370
 1.6380	25.4460
 1.6390	25.4530
 1.6400	25.4590
 1.6410	25.4620
 1.6420	25.4610
 1.6430	25.4590
 1.6440	25.4550
 1.6450	25.4480
 1.6460	25.4400
 1.6470	25.4310
 1.6480	25.4180
 1.6490	25.4050
 1.6500	25.3900
 1.6510	25.3750
 1.6520	25.3590
 1.6530	25.3440
 1.6540	25.3290
 1.6550	25.3130
 1.6560	25.2970
 1.6570	25.2830
 1.6580	25.2710
 1.6590	25.2610
 1.6600	25.2540
 1.6610	25.2480
 1.6620	25.2450
 1.6630	25.2450
 1.6640	25.2460
 1.6650	25.2510
 1.6660	25.2570
 1.6670	25.2630
 1.6680	25.2720
 1.6690	25.2800
 1.6700	25.2900
 1.6710	25.3010
 1.6720	25.3110
 1.6730	25.3200
 1.6740	25.3310
 1.6750	25.3420
 1.6760	25.3510
 1.6770	25.3590
 1.6780	25.3640
 1.6790	25.3670
 1.6800	25.3680
 1.6810	25.3700
 1.6820	25.3690
 1.6830	25.3650
 1.6840	25.3580
 1.6850	25.3490
 1.6860	25.3390
 1.6870	25.3280
 1.6880	25.3150
 1.6890	25.3000
 1.6900	25.2830
 1.6910	25.2640
 1.6920	25.2450
 1.6930	25.2260
 1.6940	25.2060
 1.6950	25.1860
 1.6960	25.1650
 1.6970	25.1430
 1.6980	25.1210
 1.6990	25.0980
 1.7000	25.0750
 1.7010	25.0520
 1.7020	25.0280
 1.7030	25.0020
 1.7040	24.9770
 1.7050	24.9520
 1.7060	24.9270
 1.7070	24.9030
 1.7080	24.8790
 1.7090	24.8560
 1.7100	24.8310
 1.7110	24.8050
 1.7120	24.7790
 1.7130	24.7510
 1.7140	24.7240
 1.7150	24.6960
 1.7160	24.6660
 1.7170	24.6360
 1.7180	24.6050
 1.7190	24.5740
 1.7200	24.5440
 1.7210	24.5130
 1.7220	24.4820
 1.7230	24.4500
 1.7240	24.4170
 1.7250	24.3820
 1.7260	24.3460
 1.7270	24.3120
 1.7280	24.2800
 1.7290	24.2490
 1.7300	24.2210
 1.7310	24.1910
 1.7320	24.1610
 1.7330	24.1330
 1.7340	24.1050
 1.7350	24.0790
 1.7360	24.0560
 1.7370	24.0290
 1.7380	24.0020
 1.7390	23.9730
 1.7400	23.9420
 1.7410	23.9110
 1.7420	23.8790
 1.7430	23.8440
 1.7440	23.8070
 1.7450	23.7700
 1.7460	23.7310
 1.7470	23.6920
 1.7480	23.6530
 1.7490	23.6130
 1.7500	23.5720
 1.7510	23.5310
 1.7520	23.4890
 1.7530	23.4480
 1.7540	23.4070
 1.7550	23.3670
 1.7560	23.3260
 1.7570	23.2860
 1.7580	23.2480
 1.7590	23.2090
 1.7600	23.1710
 1.7610	23.1330
 1.7620	23.0970
 1.7630	23.0620
 1.7640	23.0280
 1.7650	22.9950
 1.7660	22.9630
 1.7670	22.9320
 1.7680	22.9030
 1.7690	22.8790
 1.7700	22.8530
 1.7710	22.8280
 1.7720	22.8020
 1.7730	22.7760
 1.7740	22.7510
 1.7750	22.7280
 1.7760	22.7040
 1.7770	22.6800
 1.7780	22.6580
 1.7790	22.6370
 1.7800	22.6180
 1.7810	22.6000
 1.7820	22.5830
 1.7830	22.5660
 1.7840	22.5500
 1.7850	22.5360
 1.7860	22.5230
 1.7870	22.5120
 1.7880	22.4990
 1.7890	22.4890
 1.7900	22.4800
 1.7910	22.4720
 1.7920	22.4660
 1.7930	22.4610
 1.7940	22.4580
 1.7950	22.4550
 1.7960	22.4520
 1.7970	22.4500
 1.7980	22.4480
 1.7990	22.4480
 1.8000	22.4470
 1.8010	22.4490
 1.8020	22.4540
 1.8030	22.4560
 1.8040	22.4590
 1.8050	22.4620
 1.8060	22.4630
 1.8070	22.4670
 1.8080	22.4730
 1.8090	22.4770
 1.8100	22.4820
 1.8110	22.4850
 1.8120	22.4850
 1.8130	22.4860
 1.8140	22.4860
 1.8150	22.4870
 1.8160	22.4900
 1.8170	22.4920
 1.8180	22.4910
 1.8190	22.4910
 1.8200	22.4900
 1.8210	22.4870
 1.8220	22.4840
 1.8230	22.4790
 1.8240	22.4750
 1.8250	22.4730
 1.8260	22.4680
 1.8270	22.4620
 1.8280	22.4540
 1.8290	22.4410
 1.8300	22.4290
 1.8310	22.4930
 1.8320	22.4730
 1.8330	22.4530
 1.8340	22.4280
 1.8350	22.4050
 1.8360	22.3830
 1.8370	22.3580
 1.8380	22.3280
 1.8390	22.2930
 1.8400	22.2520
 1.8410	22.2080
 1.8420	22.1580
 1.8430	22.1040
 1.8440	22.0460
 1.8450	21.9830
 1.8460	21.9140
 1.8470	21.8420
 1.8480	21.7640
 1.8490	21.6780
 1.8500	21.5850
 1.8510	21.4870
 1.8520	21.3760
 1.8530	21.2570
 1.8540	21.1330
 1.8550	20.9970
 1.8560	20.8510
 1.8570	20.6950
 1.8580	20.5270
 1.8590	20.3480
 1.8600	20.1580
 1.8610	19.9570
 1.8620	19.7390
 1.8630	19.5110
 1.8640	19.2660
 1.8650	19.0020
 1.8660	18.7280
 1.8670	18.4370
 1.8680	18.1300
 1.8690	17.8070
 1.8700	17.4670
 1.8710	17.1100
 1.8720	16.7410
 1.8730	16.3580
 1.8740	15.9600
 1.8750	15.5530
 1.8760	15.1290
 1.8770	14.6960
 1.8780	14.2580
 1.8790	13.8110
 1.8800	13.3640
 1.8810	12.9130
 1.8820	12.4580
 1.8830	11.9980
 1.8840	11.5410
 1.8850	11.0800
 1.8860	10.6220
 1.8870	10.1740
 1.8880	 9.7330
 1.8890	 9.3070
 1.8900	 8.8960
 1.8910	 8.5010
 1.8920	 8.1190
 1.8930	 7.7560
 1.8940	 7.4090
 1.8950	 7.0840
 1.8960	 6.7760
 1.8970	 6.4880
 1.8980	 6.2250
 1.8990	 5.9790
 1.9000	 5.7520
 1.9010	 5.5500
 1.9020	 5.3590
 1.9030	 5.1830
 1.9040	 5.0260
 1.9050	 4.8870
 1.9060	 4.7590
 1.9070	 4.6490
 1.9080	 4.5520
 1.9090	 4.4620
 1.9100	 4.3860
 1.9110	 4.3160
 1.9120	 4.2570
 1.9130	 4.2020
 1.9140	 4.1540
 1.9150	 4.1100
 1.9160	 4.0720
 1.9170	 4.0410
 1.9180	 4.0150
 1.9190	 3.9940
 1.9200	 3.9760
 1.9210	 3.9600
 1.9220	 3.9480
 1.9230	 3.9400
 1.9240	 3.9330
 1.9250	 3.9290
 1.9260	 3.9270
 1.9270	 3.9270
 1.9280	 3.9280
 1.9290	 3.9340
 1.9300	 3.9420
 1.9310	 3.9500
 1.9320	 3.9610
 1.9330	 3.9710
 1.9340	 3.9790
 1.9350	 3.9930
 1.9360	 4.0090
 1.9370	 4.0260
 1.9380	 4.0470
 1.9390	 4.0700
 1.9400	 4.0910
 1.9410	 4.1140
 1.9420	 4.1370
 1.9430	 4.1580
 1.9440	 4.1840
 1.9450	 4.2120
 1.9460	 4.2400
 1.9470	 4.2690
 1.9480	 4.2990
 1.9490	 4.3290
 1.9500	 4.3620
 1.9510	 4.3970
 1.9520	 4.4340
 1.9530	 4.4680
 1.9540	 4.5010
 1.9550	 4.5360
 1.9560	 4.5700
 1.9570	 4.6070
 1.9580	 4.6490
 1.9590	 4.6890
 1.9600	 4.7300
 1.9610	 4.7710
 1.9620	 4.8120
 1.9630	 4.8540
 1.9640	 4.8960
 1.9650	 4.9410
 1.9660	 4.9880
 1.9670	 5.0360
 1.9680	 5.0860
 1.9690	 5.1380
 1.9700	 5.1900
 1.9710	 5.2440
 1.9720	 5.2970
 1.9730	 5.3490
 1.9740	 5.4000
 1.9750	 5.4510
 1.9760	 5.5060
 1.9770	 5.5580
 1.9780	 5.6120
 1.9790	 5.6680
 1.9800	 5.7240
 1.9810	 5.7820
 1.9820	 5.8430
 1.9830	 5.9030
 1.9840	 5.9640
 1.9850	 6.0240
 1.9860	 6.0840
 1.9870	 6.1460
 1.9880	 6.2100
 1.9890	 6.2720
 1.9900	 6.3350
 1.9910	 6.4000
 1.9920	 6.4640
 1.9930	 6.5260
 1.9940	 6.5910
 1.9950	 6.6570
 1.9960	 6.7230
 1.9970	 6.7920
 1.9980	 6.8580
 1.9990	 6.9240
 2.0000	 6.9870
 2.0010	 7.0500
 2.0020	 7.1160
 2.0030	 7.1810
 2.0040	 7.2490
 2.0050	 7.3160
 2.0060	 7.3850
 2.0070	 7.4510
 2.0080	 7.5170
 2.0090	 7.5820
 2.0100	 7.6440
 2.0110	 7.7080
 2.0120	 7.7730
 2.0130	 7.8370
 2.0140	 7.9010
 2.0150	 7.9640
 2.0160	 8.0270
 2.0170	 8.0920
 2.0180	 8.1550
 2.0190	 8.2170
 2.0200	 8.2800
 2.0210	 8.3420
 2.0220	 8.4040
 2.0230	 8.4690
 2.0240	 8.5300
 2.0250	 8.5900
 2.0260	 8.6480
 2.0270	 8.7040
 2.0280	 8.7590
 2.0290	 8.8140
 2.0300	 8.8680
 2.0310	 8.9230
 2.0320	 8.9790
 2.0330	 9.0320
 2.0340	 9.0860
 2.0350	 9.1370
 2.0360	 9.1860
 2.0370	 9.2350
 2.0380	 9.2790
 2.0390	 9.3250
 2.0400	 9.3710
 2.0410	 9.4160
 2.0420	 9.4590
 2.0430	 9.5050
 2.0440	 9.5490
 2.0450	 9.5920
 2.0460	 9.6340
 2.0470	 9.6750
 2.0480	 9.7170
 2.0490	 9.7610
 2.0500	 9.8020
 2.0510	 9.8410
 2.0520	 9.8810
 2.0530	 9.9190
 2.0540	 9.9580
 2.0550	 9.9980
 2.0560	10.0390
 2.0570	10.0770
 2.0580	10.1150
 2.0590	10.1550
 2.0600	10.1950
 2.0610	10.2350
 2.0620	10.2760
 2.0630	10.3160
 2.0640	10.3570
 2.0650	10.3970
 2.0660	10.4390
 2.0670	10.4800
 2.0680	10.5240
 2.0690	10.5630
 2.0700	10.6000
 2.0710	10.6370
 2.0720	10.6730
 2.0730	10.7090
 2.0740	10.7440
 2.0750	10.7800
 2.0760	10.8170
 2.0770	10.8530
 2.0780	10.8890
 2.0790	10.9300
 2.0800	10.9650
 2.0810	10.9950
 2.0820	11.0280
 2.0830	11.0560
 2.0840	11.0870
 2.0850	11.1210
 2.0860	11.1530
 2.0870	11.1850
 2.0880	11.2160
 2.0890	11.2450
 2.0900	11.2730
 2.0910	11.3010
 2.0920	11.3270
 2.0930	11.3540
 2.0940	11.3830
 2.0950	11.4090
 2.0960	11.4350
 2.0970	11.4590
 2.0980	11.4820
 2.0990	11.5050
 2.1000	11.5270
 2.1010	11.5500
 2.1020	11.5730
 2.1030	11.5950
 2.1040	11.6160
 2.1050	11.6370
 2.1060	11.6580
 2.1070	11.6790
 2.1080	11.6960
 2.1090	11.7130
 2.1100	11.7280
 2.1110	11.7400
 2.1120	11.7530
 2.1130	11.7680
 2.1140	11.7820
 2.1150	11.7960
 2.1160	11.8080
 2.1170	11.8190
 2.1180	11.8300
 2.1190	11.8380
 2.1200	11.8490
 2.1210	11.8620
 2.1220	11.8750
 2.1230	11.8840
 2.1240	11.8940
 2.1250	11.9030
 2.1260	11.9070
 2.1270	11.9160
 2.1280	11.9280
 2.1290	11.9380
 2.1300	11.9470
 2.1310	11.9570
 2.1320	11.9660
 2.1330	11.9770
 2.1340	11.9890
 2.1350	12.0020
 2.1360	12.0150
 2.1370	12.0310
 2.1380	12.0480
 2.1390	12.0650
 2.1400	12.0830
 2.1410	12.1040
 2.1420	12.1240
 2.1430	12.1450
 2.1440	12.1660
 2.1450	12.1870
 2.1460	12.2100
 2.1470	12.2340
 2.1480	12.2600
 2.1490	12.2890
 2.1500	12.3160
 2.1510	12.3470
 2.1520	12.3740
 2.1530	12.3970
 2.1540	12.4240
 2.1550	12.4520
 2.1560	12.4800
 2.1570	12.5130
 2.1580	12.5420
 2.1590	12.5690
 2.1600	12.5930
 2.1610	12.6160
 2.1620	12.6400
 2.1630	12.6630
 2.1640	12.6850
 2.1650	12.7060
 2.1660	12.7260
 2.1670	12.7460
 2.1680	12.7630
 2.1690	12.7830
 2.1700	12.8000
 2.1710	12.8190
 2.1720	12.8420
 2.1730	12.8640
 2.1740	12.8860
 2.1750	12.9080
 2.1760	12.9310
 2.1770	12.9530
 2.1780	12.9770
 2.1790	13.0010
 2.1800	13.0250
 2.1810	13.0480
 2.1820	13.0710
 2.1830	13.0950
 2.1840	13.1190
 2.1850	13.1430
 2.1860	13.1670
 2.1870	13.1950
 2.1880	13.2190
 2.1890	13.2420
 2.1900	13.2670
 2.1910	13.2920
 2.1920	13.3180
 2.1930	13.3480
 2.1940	13.3730
 2.1950	13.3960
 2.1960	13.4190
 2.1970	13.4410
 2.1980	13.4640
 2.1990	13.4880
 2.2000	13.5130
 2.2010	13.5390
 2.2020	13.5630
 2.2030	13.5860
 2.2040	13.6110
 2.2050	13.6360
 2.2060	13.6610
 2.2070	13.6830
 2.2080	13.7050
 2.2090	13.7280
 2.2100	13.7480
 2.2110	13.7680
 2.2120	13.7890
 2.2130	13.8080
 2.2140	13.8210
 2.2150	13.8380
 2.2160	13.8600
 2.2170	13.8770
 2.2180	13.8940
 2.2190	13.9080
 2.2200	13.9180
 2.2210	13.9290
 2.2220	13.9400
 2.2230	13.9500
 2.2240	13.9620
 2.2250	13.9690
 2.2260	13.9750
 2.2270	13.9760
 2.2280	13.9710
 2.2290	13.9680
 2.2300	13.9630
 2.2310	13.9560
 2.2320	13.9510
 2.2330	13.9440
 2.2340	13.9330
 2.2350	13.9200
 2.2360	13.9040
 2.2370	13.8820
 2.2380	13.8620
 2.2390	13.8400
 2.2400	13.8160
 2.2410	13.7920
 2.2420	13.7660
 2.2430	13.7370
 2.2440	13.7070
 2.2450	13.6760
 2.2460	13.6440
 2.2470	13.6130
 2.2480	13.5770
 2.2490	13.5390
 2.2500	13.4980
 2.2510	13.4500
 2.2520	13.4070
 2.2530	13.3640
 2.2540	13.3220
 2.2550	13.2850
 2.2560	13.2450
 2.2570	13.2040
 2.2580	13.1610
 2.2590	13.1120
 2.2600	13.0690
 2.2610	13.0270
 2.2620	12.9870
 2.2630	12.9440
 2.2640	12.9080
 2.2650	12.8680
 2.2660	12.8270
 2.2670	12.7890
 2.2680	12.7550
 2.2690	12.7200
 2.2700	12.6860
 2.2710	12.6530
 2.2720	12.6250
 2.2730	12.5920
 2.2740	12.5570
 2.2750	12.5250
 2.2760	12.4940
 2.2770	12.4610
 2.2780	12.4310
 2.2790	12.3970
 2.2800	12.3550
 2.2810	12.3190
 2.2820	12.2860
 2.2830	12.2510
 2.2840	12.2180
 2.2850	12.1840
 2.2860	12.1490
 2.2870	12.1110
 2.2880	12.0730
 2.2890	12.0320
 2.2900	11.9870
 2.2910	11.9430
 2.2920	11.9000
 2.2930	11.8540
 2.2940	11.8030
 2.2950	11.7580
 2.2960	11.7180
 2.2970	11.6740
 2.2980	11.6350
 2.2990	11.5930
 2.3000	11.5400
 2.3010	11.4890
 2.3020	11.4410
 2.3030	11.3920
 2.3040	11.3440
 2.3050	11.2920
 2.3060	11.2430
 2.3070	11.1960
 2.3080	11.1580
 2.3090	11.1270
 2.3100	11.0960
 2.3110	11.0690
 2.3120	11.0410
 2.3130	11.0120
 2.3140	10.9890
 2.3150	10.9680
 2.3160	10.9490
 2.3170	10.9340
 2.3180	10.9170
 2.3190	10.9010
 2.3200	10.8820
 2.3210	10.8610
 2.3220	10.8370
 2.3230	10.8070
 2.3240	10.7800
 2.3250	10.7550
 2.3260	10.7260
 2.3270	10.6990
 2.3280	10.6670
 2.3290	10.6280
 2.3300	10.5950
 2.3310	10.5650
 2.3320	10.5330
 2.3330	10.5060
 2.3340	10.4700
 2.3350	10.4280
 2.3360	10.3870
 2.3370	10.3400
 2.3380	10.3000
 2.3390	10.2660
 2.3400	10.2250
 2.3410	10.1790
 2.3420	10.1390
 2.3430	10.0920
 2.3440	10.0570
 2.3450	10.0380
 2.3460	10.0070
 2.3470	 9.9750
 2.3480	 9.9390
 2.3490	 9.8870
 2.3500	 9.8470
 2.3510	 9.8080
 2.3520	 9.7750
 2.3530	 9.7490
 2.3540	 9.7330
 2.3550	 9.7120
 2.3560	 9.6980
 2.3570	 9.6790
 2.3580	 9.6600
 2.3590	 9.6400
 2.3600	 9.6100
 2.3610	 9.5850
 2.3620	 9.5490
 2.3630	 9.5090
 2.3640	 9.4770
 2.3650	 9.4420
 2.3660	 9.4030
 2.3670	 9.3650
 2.3680	 9.3300
 2.3690	 9.2930
 2.3700	 9.2590
 2.3710	 9.2190
 2.3720	 9.1750
 2.3730	 9.1350
 2.3740	 9.0930
 2.3750	 9.0580
 2.3760	 9.0240
 2.3770	 8.9870
 2.3780	 8.9470
 2.3790	 8.8990
 2.3800	 8.8550
 2.3810	 8.8140
 2.3820	 8.7700
 2.3830	 8.7360
 2.3840	 8.6990
 2.3850	 8.6550
 2.3860	 8.6140
 2.3870	 8.5760
 2.3880	 8.5410
 2.3890	 8.4980
 2.3900	 8.4560
 2.3910	 8.4130
 2.3920	 8.3590
 2.3930	 8.3210
 2.3940	 8.2880
 2.3950	 8.2420
 2.3960	 8.2020
 2.3970	 8.1550
 2.3980	 8.0980
 2.3990	 8.0560
 2.4000	 8.0200
 2.4010	 7.9790
 2.4020	 7.9410
 2.4030	 7.8970
 2.4040	 7.8450
 2.4050	 7.7960
 2.4060	 7.7520
 2.4070	 7.7130
 2.4080	 7.6710
 2.4090	 7.6300
 2.4100	 7.5840
 2.4110	 7.5300
 2.4120	 7.4800
 2.4130	 7.4300
 2.4140	 7.3890
 2.4150	 7.3500
 2.4160	 7.3050
 2.4170	 7.2610
 2.4180	 7.2040
 2.4190	 7.1560
 2.4200	 7.1060
 2.4210	 7.0660
 2.4220	 7.0410
 2.4230	 6.9970
 2.4240	 6.9520
 2.4250	 6.9070
 2.4260	 6.8610
 2.4270	 6.8200
 2.4280	 6.7900
 2.4290	 6.7500
 2.4300	 6.6990
 2.4310	 6.6530
 2.4320	 6.5950
 2.4330	 6.5440
 2.4340	 6.5070
 2.4350	 6.4660
 2.4360	 6.4300
 2.4370	 6.3890
 2.4380	 6.3350
 2.4390	 6.2890
 2.4400	 6.2490
 2.4410	 6.2130
 2.4420	 6.1790
 2.4430	 6.1350
 2.4440	 6.0800
 2.4450	 6.0150
 2.4460	 5.9620
 2.4470	 5.9330
 2.4480	 5.9060
 2.4490	 5.8830
 2.4500	 5.8560
 2.4510	 5.8160
 2.4520	 5.7830
 2.4530	 5.7570
 2.4540	 5.7280
 2.4550	 5.6820
 2.4560	 5.6300
 2.4570	 5.5950
 2.4580	 5.5570
 2.4590	 5.5090
 2.4600	 5.4780
 2.4610	 5.4470
 2.4620	 5.4070
 2.4630	 5.3820
 2.4640	 5.3590
 2.4650	 5.3160
 2.4660	 5.2780
 2.4670	 5.2500
 2.4680	 5.2200
 2.4690	 5.1880
 2.4700	 5.1700
 2.4710	 5.1820
 2.4720	 5.1540
 2.4730	 5.1030
 2.4740	 5.0740
 2.4750	 5.0200
 2.4760	 4.9900
 2.4770	 4.9980
 2.4780	 4.9770
 2.4790	 4.9450
 2.4800	 4.9410
 2.4810	 4.9610
 2.4820	 4.9600
 2.4830	 4.9380
 2.4840	 4.9170
 2.4850	 4.8590
 2.4860	 4.8420
 2.4870	 4.8450
 2.4880	 4.8040
 2.4890	 4.8040
 2.4900	 4.8010
 2.4910	 4.7370
 2.4920	 4.7140
 2.4930	 4.6900
 2.4940	 4.6410
 2.4950	 4.6640
 2.4960	 4.7220
 2.4970	 4.7610
 2.4980	 4.7530
 2.4990	 4.7380
 2.5000	 4.7340
