Name: Salix babylonica
Type: vegetation
Class: Tree
Genus: Salix
Species: babylonica
Sample No.: JPL130
Owner: JPL
Wavelength Range: VSWIR
Origin: 34.12804; -118.11607;; WGS84
Collection Date: 9/7/2016
Description: Samples were collected at the Huntington Garden in San Marino California as part of a JPL Subcontract studying HyTES imagery. Samples were taken to JPL and processed within 48 hours of collection. The same leaves were processed in the Nicolet and then measured using the ASD.
Measurement: Bidirectional reflectance
First Column: X
Second Column: Y
X Units: Wavelength (micrometer)
Y Units: Reflectance (percentage)
First X Value: 0.35
Last X Value: 2.5
Number of X Values: 2151
Additional Information: vegetation.tree.salix.babylonica.vswir.jpl130.jpl.asd.ancillary.txt

 0.3500	 5.8360
 0.3510	 5.7840
 0.3520	 5.6870
 0.3530	 5.6400
 0.3540	 5.6990
 0.3550	 5.7960
 0.3560	 5.7120
 0.3570	 5.5870
 0.3580	 5.6990
 0.3590	 5.7990
 0.3600	 5.8020
 0.3610	 5.7240
 0.3620	 5.6940
 0.3630	 5.6640
 0.3640	 5.6280
 0.3650	 5.6110
 0.3660	 5.7210
 0.3670	 5.7430
 0.3680	 5.6720
 0.3690	 5.6510
 0.3700	 5.6540
 0.3710	 5.6650
 0.3720	 5.6590
 0.3730	 5.5860
 0.3740	 5.5830
 0.3750	 5.6450
 0.3760	 5.7090
 0.3770	 5.6840
 0.3780	 5.6540
 0.3790	 5.6620
 0.3800	 5.7040
 0.3810	 5.6520
 0.3820	 5.6310
 0.3830	 5.6960
 0.3840	 5.6730
 0.3850	 5.6340
 0.3860	 5.6070
 0.3870	 5.6070
 0.3880	 5.6630
 0.3890	 5.6890
 0.3900	 5.6700
 0.3910	 5.6750
 0.3920	 5.6780
 0.3930	 5.6590
 0.3940	 5.6360
 0.3950	 5.7170
 0.3960	 5.7430
 0.3970	 5.7170
 0.3980	 5.7130
 0.3990	 5.6920
 0.4000	 5.6870
 0.4010	 5.6970
 0.4020	 5.6640
 0.4030	 5.6770
 0.4040	 5.6940
 0.4050	 5.6760
 0.4060	 5.6990
 0.4070	 5.7200
 0.4080	 5.7180
 0.4090	 5.6950
 0.4100	 5.6930
 0.4110	 5.7000
 0.4120	 5.7010
 0.4130	 5.6910
 0.4140	 5.6980
 0.4150	 5.7140
 0.4160	 5.7210
 0.4170	 5.7090
 0.4180	 5.7040
 0.4190	 5.7130
 0.4200	 5.7200
 0.4210	 5.7210
 0.4220	 5.7200
 0.4230	 5.7210
 0.4240	 5.7230
 0.4250	 5.7200
 0.4260	 5.7180
 0.4270	 5.7240
 0.4280	 5.7280
 0.4290	 5.7240
 0.4300	 5.7110
 0.4310	 5.6910
 0.4320	 5.6840
 0.4330	 5.6830
 0.4340	 5.6750
 0.4350	 5.6660
 0.4360	 5.6650
 0.4370	 5.6690
 0.4380	 5.6700
 0.4390	 5.6780
 0.4400	 5.6920
 0.4410	 5.7060
 0.4420	 5.7010
 0.4430	 5.7090
 0.4440	 5.7240
 0.4450	 5.7340
 0.4460	 5.7310
 0.4470	 5.7370
 0.4480	 5.7510
 0.4490	 5.7440
 0.4500	 5.7420
 0.4510	 5.7500
 0.4520	 5.7680
 0.4530	 5.7790
 0.4540	 5.7820
 0.4550	 5.7800
 0.4560	 5.7760
 0.4570	 5.7900
 0.4580	 5.7970
 0.4590	 5.7900
 0.4600	 5.7920
 0.4610	 5.7940
 0.4620	 5.7930
 0.4630	 5.7900
 0.4640	 5.7900
 0.4650	 5.7900
 0.4660	 5.7910
 0.4670	 5.7950
 0.4680	 5.7940
 0.4690	 5.7940
 0.4700	 5.7950
 0.4710	 5.7940
 0.4720	 5.7980
 0.4730	 5.8040
 0.4740	 5.8040
 0.4750	 5.8110
 0.4760	 5.8150
 0.4770	 5.8130
 0.4780	 5.8100
 0.4790	 5.8080
 0.4800	 5.8100
 0.4810	 5.8150
 0.4820	 5.8240
 0.4830	 5.8240
 0.4840	 5.8170
 0.4850	 5.8160
 0.4860	 5.8170
 0.4870	 5.8210
 0.4880	 5.8290
 0.4890	 5.8290
 0.4900	 5.8390
 0.4910	 5.8560
 0.4920	 5.8680
 0.4930	 5.8870
 0.4940	 5.9070
 0.4950	 5.9230
 0.4960	 5.9400
 0.4970	 5.9620
 0.4980	 5.9870
 0.4990	 6.0160
 0.5000	 6.0480
 0.5010	 6.0840
 0.5020	 6.1230
 0.5030	 6.1670
 0.5040	 6.2190
 0.5050	 6.2750
 0.5060	 6.3340
 0.5070	 6.4040
 0.5080	 6.4800
 0.5090	 6.5640
 0.5100	 6.6610
 0.5110	 6.7650
 0.5120	 6.8810
 0.5130	 7.0090
 0.5140	 7.1470
 0.5150	 7.2960
 0.5160	 7.4560
 0.5170	 7.6270
 0.5180	 7.8060
 0.5190	 7.9950
 0.5200	 8.1930
 0.5210	 8.3910
 0.5220	 8.5990
 0.5230	 8.8070
 0.5240	 9.0110
 0.5250	 9.2080
 0.5260	 9.3990
 0.5270	 9.5800
 0.5280	 9.7510
 0.5290	 9.9120
 0.5300	10.0610
 0.5310	10.1960
 0.5320	10.3160
 0.5330	10.4170
 0.5340	10.5060
 0.5350	10.5890
 0.5360	10.6610
 0.5370	10.7260
 0.5380	10.7830
 0.5390	10.8250
 0.5400	10.8590
 0.5410	10.8900
 0.5420	10.9180
 0.5430	10.9440
 0.5440	10.9700
 0.5450	10.9960
 0.5460	11.0210
 0.5470	11.0470
 0.5480	11.0700
 0.5490	11.0890
 0.5500	11.0990
 0.5510	11.1040
 0.5520	11.1000
 0.5530	11.0850
 0.5540	11.0630
 0.5550	11.0310
 0.5560	10.9880
 0.5570	10.9340
 0.5580	10.8670
 0.5590	10.7890
 0.5600	10.7020
 0.5610	10.6060
 0.5620	10.5010
 0.5630	10.3880
 0.5640	10.2700
 0.5650	10.1430
 0.5660	10.0110
 0.5670	 9.8750
 0.5680	 9.7370
 0.5690	 9.5970
 0.5700	 9.4610
 0.5710	 9.3300
 0.5720	 9.2050
 0.5730	 9.0860
 0.5740	 8.9760
 0.5750	 8.8800
 0.5760	 8.7960
 0.5770	 8.7160
 0.5780	 8.6370
 0.5790	 8.5600
 0.5800	 8.4860
 0.5810	 8.4150
 0.5820	 8.3480
 0.5830	 8.2890
 0.5840	 8.2370
 0.5850	 8.1880
 0.5860	 8.1410
 0.5870	 8.0890
 0.5880	 8.0340
 0.5890	 7.9820
 0.5900	 7.9410
 0.5910	 7.9090
 0.5920	 7.8820
 0.5930	 7.8570
 0.5940	 7.8310
 0.5950	 7.8080
 0.5960	 7.7890
 0.5970	 7.7690
 0.5980	 7.7480
 0.5990	 7.7280
 0.6000	 7.7110
 0.6010	 7.6910
 0.6020	 7.6660
 0.6030	 7.6360
 0.6040	 7.6040
 0.6050	 7.5690
 0.6060	 7.5290
 0.6070	 7.4840
 0.6080	 7.4390
 0.6090	 7.3850
 0.6100	 7.3200
 0.6110	 7.2510
 0.6120	 7.2040
 0.6130	 7.1680
 0.6140	 7.1340
 0.6150	 7.0930
 0.6160	 7.0530
 0.6170	 7.0140
 0.6180	 6.9770
 0.6190	 6.9400
 0.6200	 6.9060
 0.6210	 6.8760
 0.6220	 6.8520
 0.6230	 6.8320
 0.6240	 6.8150
 0.6250	 6.8010
 0.6260	 6.7870
 0.6270	 6.7770
 0.6280	 6.7670
 0.6290	 6.7570
 0.6300	 6.7490
 0.6310	 6.7400
 0.6320	 6.7290
 0.6330	 6.7180
 0.6340	 6.7010
 0.6350	 6.6800
 0.6360	 6.6530
 0.6370	 6.6190
 0.6380	 6.5820
 0.6390	 6.5420
 0.6400	 6.4950
 0.6410	 6.4500
 0.6420	 6.4080
 0.6430	 6.3650
 0.6440	 6.3180
 0.6450	 6.2760
 0.6460	 6.2380
 0.6470	 6.2030
 0.6480	 6.1740
 0.6490	 6.1500
 0.6500	 6.1310
 0.6510	 6.1180
 0.6520	 6.1040
 0.6530	 6.0920
 0.6540	 6.0840
 0.6550	 6.0730
 0.6560	 6.0620
 0.6570	 6.0500
 0.6580	 6.0330
 0.6590	 6.0160
 0.6600	 5.9980
 0.6610	 5.9810
 0.6620	 5.9650
 0.6630	 5.9520
 0.6640	 5.9410
 0.6650	 5.9320
 0.6660	 5.9260
 0.6670	 5.9230
 0.6680	 5.9250
 0.6690	 5.9320
 0.6700	 5.9400
 0.6710	 5.9510
 0.6720	 5.9670
 0.6730	 5.9840
 0.6740	 6.0020
 0.6750	 6.0230
 0.6760	 6.0500
 0.6770	 6.0770
 0.6780	 6.1060
 0.6790	 6.1390
 0.6800	 6.1760
 0.6810	 6.2150
 0.6820	 6.2570
 0.6830	 6.3020
 0.6840	 6.3520
 0.6850	 6.4060
 0.6860	 6.4660
 0.6870	 6.5350
 0.6880	 6.6180
 0.6890	 6.7230
 0.6900	 6.8590
 0.6910	 7.0290
 0.6920	 7.2390
 0.6930	 7.4960
 0.6940	 7.8070
 0.6950	 8.1750
 0.6960	 8.6000
 0.6970	 9.0820
 0.6980	 9.6210
 0.6990	10.2090
 0.7000	10.8430
 0.7010	11.5180
 0.7020	12.2290
 0.7030	12.9680
 0.7040	13.7300
 0.7050	14.5110
 0.7060	15.3080
 0.7070	16.1160
 0.7080	16.9330
 0.7090	17.7590
 0.7100	18.5930
 0.7110	19.4320
 0.7120	20.2760
 0.7130	21.1210
 0.7140	21.9690
 0.7150	22.8160
 0.7160	23.6590
 0.7170	24.4990
 0.7180	25.3350
 0.7190	26.1630
 0.7200	26.9780
 0.7210	27.7790
 0.7220	28.5660
 0.7230	29.3340
 0.7240	30.0820
 0.7250	30.8060
 0.7260	31.5050
 0.7270	32.1800
 0.7280	32.8280
 0.7290	33.4480
 0.7300	34.0400
 0.7310	34.6030
 0.7320	35.1360
 0.7330	35.6420
 0.7340	36.1210
 0.7350	36.5720
 0.7360	36.9960
 0.7370	37.3940
 0.7380	37.7640
 0.7390	38.1120
 0.7400	38.4360
 0.7410	38.7370
 0.7420	39.0150
 0.7430	39.2710
 0.7440	39.5070
 0.7450	39.7250
 0.7460	39.9250
 0.7470	40.1070
 0.7480	40.2720
 0.7490	40.4210
 0.7500	40.5550
 0.7510	40.6770
 0.7520	40.7890
 0.7530	40.8900
 0.7540	40.9810
 0.7550	41.0630
 0.7560	41.1370
 0.7570	41.2030
 0.7580	41.2620
 0.7590	41.3170
 0.7600	41.3670
 0.7610	41.4100
 0.7620	41.4470
 0.7630	41.4800
 0.7640	41.5120
 0.7650	41.5380
 0.7660	41.5620
 0.7670	41.5840
 0.7680	41.6000
 0.7690	41.6170
 0.7700	41.6320
 0.7710	41.6430
 0.7720	41.6520
 0.7730	41.6620
 0.7740	41.6730
 0.7750	41.6820
 0.7760	41.6880
 0.7770	41.6940
 0.7780	41.7010
 0.7790	41.7080
 0.7800	41.7130
 0.7810	41.7170
 0.7820	41.7190
 0.7830	41.7250
 0.7840	41.7280
 0.7850	41.7300
 0.7860	41.7320
 0.7870	41.7320
 0.7880	41.7310
 0.7890	41.7310
 0.7900	41.7310
 0.7910	41.7300
 0.7920	41.7260
 0.7930	41.7210
 0.7940	41.7170
 0.7950	41.7130
 0.7960	41.7070
 0.7970	41.7000
 0.7980	41.6930
 0.7990	41.6830
 0.8000	41.6730
 0.8010	41.6660
 0.8020	41.6570
 0.8030	41.6440
 0.8040	41.6300
 0.8050	41.6180
 0.8060	41.6060
 0.8070	41.5910
 0.8080	41.5740
 0.8090	41.5600
 0.8100	41.5440
 0.8110	41.5300
 0.8120	41.5180
 0.8130	41.5020
 0.8140	41.4820
 0.8150	41.4610
 0.8160	41.4420
 0.8170	41.4290
 0.8180	41.4120
 0.8190	41.3930
 0.8200	41.3780
 0.8210	41.3580
 0.8220	41.3370
 0.8230	41.3160
 0.8240	41.2990
 0.8250	41.2760
 0.8260	41.2540
 0.8270	41.2370
 0.8280	41.2190
 0.8290	41.2000
 0.8300	41.1790
 0.8310	41.1560
 0.8320	41.1360
 0.8330	41.1190
 0.8340	41.1030
 0.8350	41.0850
 0.8360	41.0670
 0.8370	41.0480
 0.8380	41.0320
 0.8390	41.0180
 0.8400	41.0030
 0.8410	40.9900
 0.8420	40.9780
 0.8430	40.9680
 0.8440	40.9550
 0.8450	40.9420
 0.8460	40.9300
 0.8470	40.9170
 0.8480	40.9060
 0.8490	40.8990
 0.8500	40.8920
 0.8510	40.8780
 0.8520	40.8690
 0.8530	40.8640
 0.8540	40.8560
 0.8550	40.8500
 0.8560	40.8410
 0.8570	40.8310
 0.8580	40.8270
 0.8590	40.8280
 0.8600	40.8280
 0.8610	40.8230
 0.8620	40.8200
 0.8630	40.8160
 0.8640	40.8120
 0.8650	40.8110
 0.8660	40.8080
 0.8670	40.8100
 0.8680	40.8130
 0.8690	40.8100
 0.8700	40.8080
 0.8710	40.8090
 0.8720	40.8100
 0.8730	40.8120
 0.8740	40.8130
 0.8750	40.8180
 0.8760	40.8240
 0.8770	40.8280
 0.8780	40.8320
 0.8790	40.8350
 0.8800	40.8370
 0.8810	40.8400
 0.8820	40.8450
 0.8830	40.8510
 0.8840	40.8590
 0.8850	40.8630
 0.8860	40.8650
 0.8870	40.8690
 0.8880	40.8760
 0.8890	40.8800
 0.8900	40.8880
 0.8910	40.8940
 0.8920	40.8960
 0.8930	40.9010
 0.8940	40.9080
 0.8950	40.9150
 0.8960	40.9220
 0.8970	40.9250
 0.8980	40.9290
 0.8990	40.9370
 0.9000	40.9440
 0.9010	40.9450
 0.9020	40.9500
 0.9030	40.9600
 0.9040	40.9690
 0.9050	40.9710
 0.9060	40.9690
 0.9070	40.9680
 0.9080	40.9710
 0.9090	40.9750
 0.9100	40.9770
 0.9110	40.9770
 0.9120	40.9780
 0.9130	40.9800
 0.9140	40.9810
 0.9150	40.9810
 0.9160	40.9830
 0.9170	40.9830
 0.9180	40.9790
 0.9190	40.9750
 0.9200	40.9790
 0.9210	40.9740
 0.9220	40.9610
 0.9230	40.9550
 0.9240	40.9470
 0.9250	40.9390
 0.9260	40.9310
 0.9270	40.9230
 0.9280	40.9100
 0.9290	40.8990
 0.9300	40.8880
 0.9310	40.8650
 0.9320	40.8510
 0.9330	40.8340
 0.9340	40.8100
 0.9350	40.7940
 0.9360	40.7770
 0.9370	40.7610
 0.9380	40.7450
 0.9390	40.7240
 0.9400	40.6940
 0.9410	40.6680
 0.9420	40.6500
 0.9430	40.6240
 0.9440	40.5970
 0.9450	40.5690
 0.9460	40.5380
 0.9470	40.5050
 0.9480	40.4690
 0.9490	40.4260
 0.9500	40.3790
 0.9510	40.3370
 0.9520	40.2970
 0.9530	40.2540
 0.9540	40.2100
 0.9550	40.1720
 0.9560	40.1320
 0.9570	40.0900
 0.9580	40.0490
 0.9590	39.9990
 0.9600	39.9680
 0.9610	39.9480
 0.9620	39.9190
 0.9630	39.8870
 0.9640	39.8660
 0.9650	39.8510
 0.9660	39.8350
 0.9670	39.8120
 0.9680	39.7980
 0.9690	39.7880
 0.9700	39.7660
 0.9710	39.7410
 0.9720	39.7240
 0.9730	39.7220
 0.9740	39.7310
 0.9750	39.7130
 0.9760	39.7020
 0.9770	39.6990
 0.9780	39.6940
 0.9790	39.6900
 0.9800	39.6880
 0.9810	39.6910
 0.9820	39.6960
 0.9830	39.6880
 0.9840	39.6790
 0.9850	39.6770
 0.9860	39.6820
 0.9870	39.6970
 0.9880	39.6930
 0.9890	39.6850
 0.9900	39.6940
 0.9910	39.7030
 0.9920	39.6990
 0.9930	39.6930
 0.9940	39.7020
 0.9950	39.7040
 0.9960	39.7100
 0.9970	39.7190
 0.9980	39.7250
 0.9990	39.7270
 1.0000	39.7310
 1.0010	40.2930
 1.0020	40.3050
 1.0030	40.3130
 1.0040	40.3200
 1.0050	40.3270
 1.0060	40.3340
 1.0070	40.3420
 1.0080	40.3480
 1.0090	40.3530
 1.0100	40.3590
 1.0110	40.3610
 1.0120	40.3670
 1.0130	40.3770
 1.0140	40.3850
 1.0150	40.3930
 1.0160	40.3990
 1.0170	40.4040
 1.0180	40.4100
 1.0190	40.4160
 1.0200	40.4200
 1.0210	40.4250
 1.0220	40.4320
 1.0230	40.4370
 1.0240	40.4420
 1.0250	40.4480
 1.0260	40.4560
 1.0270	40.4610
 1.0280	40.4640
 1.0290	40.4700
 1.0300	40.4770
 1.0310	40.4830
 1.0320	40.4910
 1.0330	40.5020
 1.0340	40.5100
 1.0350	40.5160
 1.0360	40.5230
 1.0370	40.5270
 1.0380	40.5320
 1.0390	40.5340
 1.0400	40.5390
 1.0410	40.5440
 1.0420	40.5510
 1.0430	40.5620
 1.0440	40.5680
 1.0450	40.5720
 1.0460	40.5760
 1.0470	40.5750
 1.0480	40.5780
 1.0490	40.5850
 1.0500	40.5880
 1.0510	40.5920
 1.0520	40.5920
 1.0530	40.5930
 1.0540	40.5920
 1.0550	40.5930
 1.0560	40.5970
 1.0570	40.5970
 1.0580	40.5950
 1.0590	40.5940
 1.0600	40.5910
 1.0610	40.5890
 1.0620	40.5890
 1.0630	40.5860
 1.0640	40.5820
 1.0650	40.5790
 1.0660	40.5760
 1.0670	40.5730
 1.0680	40.5700
 1.0690	40.5700
 1.0700	40.5660
 1.0710	40.5590
 1.0720	40.5550
 1.0730	40.5490
 1.0740	40.5440
 1.0750	40.5390
 1.0760	40.5350
 1.0770	40.5290
 1.0780	40.5230
 1.0790	40.5200
 1.0800	40.5150
 1.0810	40.5100
 1.0820	40.5040
 1.0830	40.4970
 1.0840	40.4910
 1.0850	40.4860
 1.0860	40.4810
 1.0870	40.4760
 1.0880	40.4710
 1.0890	40.4650
 1.0900	40.4590
 1.0910	40.4520
 1.0920	40.4460
 1.0930	40.4400
 1.0940	40.4320
 1.0950	40.4240
 1.0960	40.4170
 1.0970	40.4090
 1.0980	40.4030
 1.0990	40.3960
 1.1000	40.3910
 1.1010	40.3840
 1.1020	40.3780
 1.1030	40.3710
 1.1040	40.3630
 1.1050	40.3560
 1.1060	40.3490
 1.1070	40.3430
 1.1080	40.3360
 1.1090	40.3290
 1.1100	40.3220
 1.1110	40.3130
 1.1120	40.3060
 1.1130	40.2980
 1.1140	40.2890
 1.1150	40.2790
 1.1160	40.2690
 1.1170	40.2610
 1.1180	40.2490
 1.1190	40.2360
 1.1200	40.2230
 1.1210	40.2050
 1.1220	40.1850
 1.1230	40.1650
 1.1240	40.1420
 1.1250	40.1170
 1.1260	40.0910
 1.1270	40.0590
 1.1280	40.0270
 1.1290	39.9890
 1.1300	39.9450
 1.1310	39.8980
 1.1320	39.8490
 1.1330	39.7940
 1.1340	39.7350
 1.1350	39.6720
 1.1360	39.6030
 1.1370	39.5300
 1.1380	39.4530
 1.1390	39.3750
 1.1400	39.2910
 1.1410	39.2070
 1.1420	39.1230
 1.1430	39.0360
 1.1440	38.9500
 1.1450	38.8640
 1.1460	38.7800
 1.1470	38.6950
 1.1480	38.6160
 1.1490	38.5390
 1.1500	38.4670
 1.1510	38.3990
 1.1520	38.3360
 1.1530	38.2790
 1.1540	38.2250
 1.1550	38.1760
 1.1560	38.1320
 1.1570	38.0930
 1.1580	38.0610
 1.1590	38.0320
 1.1600	38.0060
 1.1610	37.9840
 1.1620	37.9640
 1.1630	37.9470
 1.1640	37.9320
 1.1650	37.9170
 1.1660	37.9040
 1.1670	37.8930
 1.1680	37.8850
 1.1690	37.8770
 1.1700	37.8720
 1.1710	37.8650
 1.1720	37.8570
 1.1730	37.8510
 1.1740	37.8470
 1.1750	37.8430
 1.1760	37.8380
 1.1770	37.8320
 1.1780	37.8240
 1.1790	37.8140
 1.1800	37.8030
 1.1810	37.7940
 1.1820	37.7830
 1.1830	37.7710
 1.1840	37.7620
 1.1850	37.7520
 1.1860	37.7430
 1.1870	37.7350
 1.1880	37.7270
 1.1890	37.7180
 1.1900	37.7110
 1.1910	37.7030
 1.1920	37.6960
 1.1930	37.6890
 1.1940	37.6840
 1.1950	37.6790
 1.1960	37.6770
 1.1970	37.6760
 1.1980	37.6740
 1.1990	37.6740
 1.2000	37.6740
 1.2010	37.6760
 1.2020	37.6780
 1.2030	37.6800
 1.2040	37.6840
 1.2050	37.6880
 1.2060	37.6900
 1.2070	37.6940
 1.2080	37.6990
 1.2090	37.7040
 1.2100	37.7100
 1.2110	37.7170
 1.2120	37.7250
 1.2130	37.7320
 1.2140	37.7400
 1.2150	37.7480
 1.2160	37.7570
 1.2170	37.7660
 1.2180	37.7750
 1.2190	37.7860
 1.2200	37.7950
 1.2210	37.8040
 1.2220	37.8140
 1.2230	37.8240
 1.2240	37.8350
 1.2250	37.8450
 1.2260	37.8550
 1.2270	37.8640
 1.2280	37.8730
 1.2290	37.8810
 1.2300	37.8880
 1.2310	37.8930
 1.2320	37.9010
 1.2330	37.9090
 1.2340	37.9160
 1.2350	37.9250
 1.2360	37.9330
 1.2370	37.9390
 1.2380	37.9440
 1.2390	37.9480
 1.2400	37.9530
 1.2410	37.9580
 1.2420	37.9630
 1.2430	37.9690
 1.2440	37.9750
 1.2450	37.9780
 1.2460	37.9810
 1.2470	37.9840
 1.2480	37.9860
 1.2490	37.9880
 1.2500	37.9900
 1.2510	37.9920
 1.2520	37.9930
 1.2530	37.9930
 1.2540	37.9930
 1.2550	37.9910
 1.2560	37.9890
 1.2570	37.9880
 1.2580	37.9860
 1.2590	37.9840
 1.2600	37.9820
 1.2610	37.9790
 1.2620	37.9750
 1.2630	37.9700
 1.2640	37.9640
 1.2650	37.9570
 1.2660	37.9510
 1.2670	37.9460
 1.2680	37.9400
 1.2690	37.9330
 1.2700	37.9240
 1.2710	37.9160
 1.2720	37.9070
 1.2730	37.8980
 1.2740	37.8890
 1.2750	37.8800
 1.2760	37.8700
 1.2770	37.8580
 1.2780	37.8440
 1.2790	37.8290
 1.2800	37.8140
 1.2810	37.7980
 1.2820	37.7820
 1.2830	37.7650
 1.2840	37.7450
 1.2850	37.7220
 1.2860	37.6990
 1.2870	37.6740
 1.2880	37.6470
 1.2890	37.6200
 1.2900	37.5930
 1.2910	37.5630
 1.2920	37.5300
 1.2930	37.4960
 1.2940	37.4590
 1.2950	37.4200
 1.2960	37.3800
 1.2970	37.3400
 1.2980	37.2980
 1.2990	37.2540
 1.3000	37.2110
 1.3010	37.1660
 1.3020	37.1200
 1.3030	37.0720
 1.3040	37.0210
 1.3050	36.9690
 1.3060	36.9160
 1.3070	36.8630
 1.3080	36.8090
 1.3090	36.7530
 1.3100	36.6960
 1.3110	36.6360
 1.3120	36.5760
 1.3130	36.5140
 1.3140	36.4500
 1.3150	36.3850
 1.3160	36.3180
 1.3170	36.2500
 1.3180	36.1800
 1.3190	36.1090
 1.3200	36.0370
 1.3210	35.9630
 1.3220	35.8880
 1.3230	35.8140
 1.3240	35.7380
 1.3250	35.6610
 1.3260	35.5820
 1.3270	35.5000
 1.3280	35.4170
 1.3290	35.3320
 1.3300	35.2470
 1.3310	35.1620
 1.3320	35.0760
 1.3330	34.9890
 1.3340	34.9020
 1.3350	34.8140
 1.3360	34.7260
 1.3370	34.6370
 1.3380	34.5480
 1.3390	34.4590
 1.3400	34.3690
 1.3410	34.2810
 1.3420	34.1950
 1.3430	34.1080
 1.3440	34.0210
 1.3450	33.9360
 1.3460	33.8500
 1.3470	33.7660
 1.3480	33.6810
 1.3490	33.5980
 1.3500	33.5160
 1.3510	33.4320
 1.3520	33.3500
 1.3530	33.2680
 1.3540	33.1840
 1.3550	33.0990
 1.3560	33.0140
 1.3570	32.9280
 1.3580	32.8420
 1.3590	32.7540
 1.3600	32.6630
 1.3610	32.5680
 1.3620	32.4700
 1.3630	32.3670
 1.3640	32.2600
 1.3650	32.1450
 1.3660	32.0270
 1.3670	31.9020
 1.3680	31.7690
 1.3690	31.6260
 1.3700	31.4720
 1.3710	31.3080
 1.3720	31.1320
 1.3730	30.9430
 1.3740	30.7420
 1.3750	30.5250
 1.3760	30.2910
 1.3770	30.0390
 1.3780	29.7660
 1.3790	29.4760
 1.3800	29.1660
 1.3810	28.8350
 1.3820	28.4890
 1.3830	28.1260
 1.3840	27.7450
 1.3850	27.3480
 1.3860	26.9380
 1.3870	26.5080
 1.3880	26.0740
 1.3890	25.6280
 1.3900	25.1730
 1.3910	24.7170
 1.3920	24.2550
 1.3930	23.7890
 1.3940	23.3240
 1.3950	22.8580
 1.3960	22.3970
 1.3970	21.9450
 1.3980	21.5000
 1.3990	21.0720
 1.4000	20.6560
 1.4010	20.2510
 1.4020	19.8650
 1.4030	19.4930
 1.4040	19.1380
 1.4050	18.8040
 1.4060	18.4860
 1.4070	18.1890
 1.4080	17.9100
 1.4090	17.6460
 1.4100	17.4030
 1.4110	17.1750
 1.4120	16.9630
 1.4130	16.7680
 1.4140	16.5870
 1.4150	16.4220
 1.4160	16.2710
 1.4170	16.1310
 1.4180	16.0030
 1.4190	15.8850
 1.4200	15.7770
 1.4210	15.6790
 1.4220	15.5900
 1.4230	15.5090
 1.4240	15.4370
 1.4250	15.3700
 1.4260	15.3120
 1.4270	15.2580
 1.4280	15.2110
 1.4290	15.1680
 1.4300	15.1310
 1.4310	15.0980
 1.4320	15.0710
 1.4330	15.0470
 1.4340	15.0280
 1.4350	15.0120
 1.4360	15.0010
 1.4370	14.9920
 1.4380	14.9870
 1.4390	14.9840
 1.4400	14.9840
 1.4410	14.9860
 1.4420	14.9910
 1.4430	14.9970
 1.4440	15.0050
 1.4450	15.0150
 1.4460	15.0270
 1.4470	15.0390
 1.4480	15.0530
 1.4490	15.0690
 1.4500	15.0850
 1.4510	15.1030
 1.4520	15.1220
 1.4530	15.1420
 1.4540	15.1640
 1.4550	15.1890
 1.4560	15.2160
 1.4570	15.2450
 1.4580	15.2770
 1.4590	15.3100
 1.4600	15.3480
 1.4610	15.3900
 1.4620	15.4350
 1.4630	15.4860
 1.4640	15.5400
 1.4650	15.5970
 1.4660	15.6590
 1.4670	15.7250
 1.4680	15.7960
 1.4690	15.8710
 1.4700	15.9490
 1.4710	16.0310
 1.4720	16.1150
 1.4730	16.2030
 1.4740	16.2940
 1.4750	16.3870
 1.4760	16.4840
 1.4770	16.5820
 1.4780	16.6820
 1.4790	16.7840
 1.4800	16.8870
 1.4810	16.9910
 1.4820	17.0980
 1.4830	17.2050
 1.4840	17.3150
 1.4850	17.4250
 1.4860	17.5350
 1.4870	17.6460
 1.4880	17.7570
 1.4890	17.8690
 1.4900	17.9810
 1.4910	18.0940
 1.4920	18.2090
 1.4930	18.3240
 1.4940	18.4390
 1.4950	18.5550
 1.4960	18.6700
 1.4970	18.7830
 1.4980	18.8980
 1.4990	19.0130
 1.5000	19.1290
 1.5010	19.2470
 1.5020	19.3630
 1.5030	19.4800
 1.5040	19.5960
 1.5050	19.7100
 1.5060	19.8250
 1.5070	19.9400
 1.5080	20.0540
 1.5090	20.1690
 1.5100	20.2840
 1.5110	20.3980
 1.5120	20.5110
 1.5130	20.6230
 1.5140	20.7350
 1.5150	20.8470
 1.5160	20.9580
 1.5170	21.0690
 1.5180	21.1780
 1.5190	21.2880
 1.5200	21.3980
 1.5210	21.5050
 1.5220	21.6130
 1.5230	21.7200
 1.5240	21.8250
 1.5250	21.9310
 1.5260	22.0340
 1.5270	22.1370
 1.5280	22.2390
 1.5290	22.3390
 1.5300	22.4390
 1.5310	22.5390
 1.5320	22.6370
 1.5330	22.7370
 1.5340	22.8360
 1.5350	22.9330
 1.5360	23.0300
 1.5370	23.1250
 1.5380	23.2170
 1.5390	23.3110
 1.5400	23.4030
 1.5410	23.4950
 1.5420	23.5870
 1.5430	23.6770
 1.5440	23.7670
 1.5450	23.8540
 1.5460	23.9410
 1.5470	24.0290
 1.5480	24.1140
 1.5490	24.1990
 1.5500	24.2820
 1.5510	24.3640
 1.5520	24.4460
 1.5530	24.5260
 1.5540	24.6050
 1.5550	24.6840
 1.5560	24.7610
 1.5570	24.8370
 1.5580	24.9140
 1.5590	24.9890
 1.5600	25.0630
 1.5610	25.1350
 1.5620	25.2060
 1.5630	25.2780
 1.5640	25.3480
 1.5650	25.4180
 1.5660	25.4860
 1.5670	25.5530
 1.5680	25.6200
 1.5690	25.6850
 1.5700	25.7490
 1.5710	25.8120
 1.5720	25.8740
 1.5730	25.9370
 1.5740	26.0000
 1.5750	26.0620
 1.5760	26.1240
 1.5770	26.1830
 1.5780	26.2420
 1.5790	26.3000
 1.5800	26.3570
 1.5810	26.4140
 1.5820	26.4710
 1.5830	26.5270
 1.5840	26.5820
 1.5850	26.6350
 1.5860	26.6890
 1.5870	26.7420
 1.5880	26.7950
 1.5890	26.8470
 1.5900	26.8980
 1.5910	26.9490
 1.5920	26.9990
 1.5930	27.0480
 1.5940	27.0970
 1.5950	27.1460
 1.5960	27.1930
 1.5970	27.2390
 1.5980	27.2840
 1.5990	27.3290
 1.6000	27.3740
 1.6010	27.4180
 1.6020	27.4630
 1.6030	27.5060
 1.6040	27.5490
 1.6050	27.5910
 1.6060	27.6320
 1.6070	27.6730
 1.6080	27.7130
 1.6090	27.7530
 1.6100	27.7910
 1.6110	27.8300
 1.6120	27.8680
 1.6130	27.9040
 1.6140	27.9400
 1.6150	27.9760
 1.6160	28.0100
 1.6170	28.0440
 1.6180	28.0770
 1.6190	28.1090
 1.6200	28.1410
 1.6210	28.1730
 1.6220	28.2030
 1.6230	28.2350
 1.6240	28.2650
 1.6250	28.2920
 1.6260	28.3220
 1.6270	28.3500
 1.6280	28.3770
 1.6290	28.4030
 1.6300	28.4280
 1.6310	28.4540
 1.6320	28.4820
 1.6330	28.5070
 1.6340	28.5310
 1.6350	28.5550
 1.6360	28.5760
 1.6370	28.5980
 1.6380	28.6190
 1.6390	28.6400
 1.6400	28.6600
 1.6410	28.6800
 1.6420	28.6980
 1.6430	28.7160
 1.6440	28.7320
 1.6450	28.7480
 1.6460	28.7620
 1.6470	28.7750
 1.6480	28.7870
 1.6490	28.7970
 1.6500	28.8060
 1.6510	28.8140
 1.6520	28.8210
 1.6530	28.8260
 1.6540	28.8300
 1.6550	28.8340
 1.6560	28.8370
 1.6570	28.8380
 1.6580	28.8400
 1.6590	28.8400
 1.6600	28.8390
 1.6610	28.8370
 1.6620	28.8340
 1.6630	28.8310
 1.6640	28.8290
 1.6650	28.8250
 1.6660	28.8210
 1.6670	28.8160
 1.6680	28.8100
 1.6690	28.8040
 1.6700	28.7960
 1.6710	28.7890
 1.6720	28.7830
 1.6730	28.7750
 1.6740	28.7670
 1.6750	28.7570
 1.6760	28.7460
 1.6770	28.7330
 1.6780	28.7190
 1.6790	28.7040
 1.6800	28.6880
 1.6810	28.6730
 1.6820	28.6570
 1.6830	28.6390
 1.6840	28.6190
 1.6850	28.5970
 1.6860	28.5740
 1.6870	28.5500
 1.6880	28.5260
 1.6890	28.5020
 1.6900	28.4770
 1.6910	28.4530
 1.6920	28.4280
 1.6930	28.4040
 1.6940	28.3780
 1.6950	28.3520
 1.6960	28.3240
 1.6970	28.2940
 1.6980	28.2650
 1.6990	28.2360
 1.7000	28.2070
 1.7010	28.1770
 1.7020	28.1460
 1.7030	28.1150
 1.7040	28.0830
 1.7050	28.0500
 1.7060	28.0170
 1.7070	27.9840
 1.7080	27.9500
 1.7090	27.9150
 1.7100	27.8800
 1.7110	27.8460
 1.7120	27.8130
 1.7130	27.7790
 1.7140	27.7440
 1.7150	27.7080
 1.7160	27.6690
 1.7170	27.6290
 1.7180	27.5900
 1.7190	27.5510
 1.7200	27.5120
 1.7210	27.4720
 1.7220	27.4310
 1.7230	27.3880
 1.7240	27.3450
 1.7250	27.3010
 1.7260	27.2580
 1.7270	27.2150
 1.7280	27.1730
 1.7290	27.1300
 1.7300	27.0890
 1.7310	27.0490
 1.7320	27.0120
 1.7330	26.9740
 1.7340	26.9370
 1.7350	26.8980
 1.7360	26.8580
 1.7370	26.8170
 1.7380	26.7760
 1.7390	26.7340
 1.7400	26.6900
 1.7410	26.6460
 1.7420	26.6000
 1.7430	26.5530
 1.7440	26.5040
 1.7450	26.4540
 1.7460	26.4020
 1.7470	26.3500
 1.7480	26.2960
 1.7490	26.2420
 1.7500	26.1870
 1.7510	26.1320
 1.7520	26.0760
 1.7530	26.0210
 1.7540	25.9670
 1.7550	25.9120
 1.7560	25.8570
 1.7570	25.8020
 1.7580	25.7470
 1.7590	25.6930
 1.7600	25.6380
 1.7610	25.5850
 1.7620	25.5340
 1.7630	25.4810
 1.7640	25.4320
 1.7650	25.3860
 1.7660	25.3410
 1.7670	25.2980
 1.7680	25.2550
 1.7690	25.2120
 1.7700	25.1720
 1.7710	25.1330
 1.7720	25.0950
 1.7730	25.0580
 1.7740	25.0230
 1.7750	24.9880
 1.7760	24.9560
 1.7770	24.9240
 1.7780	24.8950
 1.7790	24.8670
 1.7800	24.8400
 1.7810	24.8150
 1.7820	24.7900
 1.7830	24.7660
 1.7840	24.7440
 1.7850	24.7220
 1.7860	24.7030
 1.7870	24.6850
 1.7880	24.6680
 1.7890	24.6510
 1.7900	24.6380
 1.7910	24.6250
 1.7920	24.6160
 1.7930	24.6070
 1.7940	24.5990
 1.7950	24.5920
 1.7960	24.5860
 1.7970	24.5810
 1.7980	24.5780
 1.7990	24.5750
 1.8000	24.5750
 1.8010	24.5730
 1.8020	24.5710
 1.8030	24.5710
 1.8040	24.5710
 1.8050	24.5710
 1.8060	24.5720
 1.8070	24.5720
 1.8080	24.5700
 1.8090	24.5700
 1.8100	24.5700
 1.8110	24.5680
 1.8120	24.5660
 1.8130	24.5640
 1.8140	24.5610
 1.8150	24.5580
 1.8160	24.5540
 1.8170	24.5480
 1.8180	24.5410
 1.8190	24.5360
 1.8200	24.5290
 1.8210	24.5210
 1.8220	24.5120
 1.8230	24.5020
 1.8240	24.4910
 1.8250	24.4800
 1.8260	24.4680
 1.8270	24.4560
 1.8280	24.4390
 1.8290	24.4180
 1.8300	24.3970
 1.8310	23.9290
 1.8320	23.9010
 1.8330	23.8700
 1.8340	23.8360
 1.8350	23.8000
 1.8360	23.7600
 1.8370	23.7160
 1.8380	23.6690
 1.8390	23.6190
 1.8400	23.5650
 1.8410	23.5040
 1.8420	23.4390
 1.8430	23.3670
 1.8440	23.2870
 1.8450	23.2040
 1.8460	23.1150
 1.8470	23.0190
 1.8480	22.9190
 1.8490	22.8090
 1.8500	22.6890
 1.8510	22.5610
 1.8520	22.4240
 1.8530	22.2760
 1.8540	22.1190
 1.8550	21.9540
 1.8560	21.7780
 1.8570	21.5900
 1.8580	21.3910
 1.8590	21.1790
 1.8600	20.9550
 1.8610	20.7170
 1.8620	20.4680
 1.8630	20.2070
 1.8640	19.9310
 1.8650	19.6440
 1.8660	19.3410
 1.8670	19.0190
 1.8680	18.6820
 1.8690	18.3310
 1.8700	17.9650
 1.8710	17.5840
 1.8720	17.1950
 1.8730	16.7950
 1.8740	16.3850
 1.8750	15.9700
 1.8760	15.5490
 1.8770	15.1260
 1.8780	14.7070
 1.8790	14.2860
 1.8800	13.8750
 1.8810	13.4690
 1.8820	13.0670
 1.8830	12.6670
 1.8840	12.2780
 1.8850	11.8930
 1.8860	11.5200
 1.8870	11.1630
 1.8880	10.8160
 1.8890	10.4880
 1.8900	10.1780
 1.8910	 9.8860
 1.8920	 9.6070
 1.8930	 9.3520
 1.8940	 9.1140
 1.8950	 8.8950
 1.8960	 8.6960
 1.8970	 8.5130
 1.8980	 8.3490
 1.8990	 8.2020
 1.9000	 8.0670
 1.9010	 7.9480
 1.9020	 7.8390
 1.9030	 7.7420
 1.9040	 7.6550
 1.9050	 7.5810
 1.9060	 7.5140
 1.9070	 7.4570
 1.9080	 7.4080
 1.9090	 7.3640
 1.9100	 7.3270
 1.9110	 7.2920
 1.9120	 7.2610
 1.9130	 7.2340
 1.9140	 7.2130
 1.9150	 7.1930
 1.9160	 7.1790
 1.9170	 7.1660
 1.9180	 7.1550
 1.9190	 7.1470
 1.9200	 7.1390
 1.9210	 7.1340
 1.9220	 7.1300
 1.9230	 7.1270
 1.9240	 7.1250
 1.9250	 7.1240
 1.9260	 7.1240
 1.9270	 7.1270
 1.9280	 7.1310
 1.9290	 7.1360
 1.9300	 7.1430
 1.9310	 7.1480
 1.9320	 7.1530
 1.9330	 7.1600
 1.9340	 7.1660
 1.9350	 7.1740
 1.9360	 7.1850
 1.9370	 7.1970
 1.9380	 7.2100
 1.9390	 7.2250
 1.9400	 7.2390
 1.9410	 7.2540
 1.9420	 7.2700
 1.9430	 7.2860
 1.9440	 7.3040
 1.9450	 7.3240
 1.9460	 7.3430
 1.9470	 7.3630
 1.9480	 7.3840
 1.9490	 7.4030
 1.9500	 7.4240
 1.9510	 7.4460
 1.9520	 7.4690
 1.9530	 7.4940
 1.9540	 7.5200
 1.9550	 7.5460
 1.9560	 7.5730
 1.9570	 7.6010
 1.9580	 7.6280
 1.9590	 7.6570
 1.9600	 7.6870
 1.9610	 7.7180
 1.9620	 7.7480
 1.9630	 7.7800
 1.9640	 7.8140
 1.9650	 7.8470
 1.9660	 7.8800
 1.9670	 7.9140
 1.9680	 7.9490
 1.9690	 7.9820
 1.9700	 8.0190
 1.9710	 8.0580
 1.9720	 8.0970
 1.9730	 8.1380
 1.9740	 8.1790
 1.9750	 8.2180
 1.9760	 8.2610
 1.9770	 8.3020
 1.9780	 8.3440
 1.9790	 8.3870
 1.9800	 8.4310
 1.9810	 8.4760
 1.9820	 8.5210
 1.9830	 8.5670
 1.9840	 8.6140
 1.9850	 8.6610
 1.9860	 8.7100
 1.9870	 8.7600
 1.9880	 8.8110
 1.9890	 8.8620
 1.9900	 8.9130
 1.9910	 8.9630
 1.9920	 9.0130
 1.9930	 9.0640
 1.9940	 9.1150
 1.9950	 9.1630
 1.9960	 9.2160
 1.9970	 9.2710
 1.9980	 9.3250
 1.9990	 9.3810
 2.0000	 9.4370
 2.0010	 9.4920
 2.0020	 9.5480
 2.0030	 9.6030
 2.0040	 9.6580
 2.0050	 9.7130
 2.0060	 9.7680
 2.0070	 9.8230
 2.0080	 9.8790
 2.0090	 9.9350
 2.0100	 9.9920
 2.0110	10.0490
 2.0120	10.1050
 2.0130	10.1620
 2.0140	10.2170
 2.0150	10.2720
 2.0160	10.3280
 2.0170	10.3840
 2.0180	10.4390
 2.0190	10.4950
 2.0200	10.5500
 2.0210	10.6040
 2.0220	10.6580
 2.0230	10.7130
 2.0240	10.7680
 2.0250	10.8240
 2.0260	10.8780
 2.0270	10.9330
 2.0280	10.9860
 2.0290	11.0390
 2.0300	11.0920
 2.0310	11.1440
 2.0320	11.1950
 2.0330	11.2460
 2.0340	11.2950
 2.0350	11.3460
 2.0360	11.3970
 2.0370	11.4470
 2.0380	11.4980
 2.0390	11.5470
 2.0400	11.5950
 2.0410	11.6430
 2.0420	11.6910
 2.0430	11.7390
 2.0440	11.7860
 2.0450	11.8330
 2.0460	11.8800
 2.0470	11.9280
 2.0480	11.9750
 2.0490	12.0220
 2.0500	12.0690
 2.0510	12.1150
 2.0520	12.1620
 2.0530	12.2100
 2.0540	12.2580
 2.0550	12.3050
 2.0560	12.3530
 2.0570	12.4030
 2.0580	12.4520
 2.0590	12.5000
 2.0600	12.5500
 2.0610	12.5990
 2.0620	12.6460
 2.0630	12.6950
 2.0640	12.7450
 2.0650	12.7950
 2.0660	12.8460
 2.0670	12.8950
 2.0680	12.9450
 2.0690	12.9950
 2.0700	13.0440
 2.0710	13.0940
 2.0720	13.1450
 2.0730	13.1940
 2.0740	13.2440
 2.0750	13.2950
 2.0760	13.3450
 2.0770	13.3930
 2.0780	13.4430
 2.0790	13.4930
 2.0800	13.5430
 2.0810	13.5930
 2.0820	13.6430
 2.0830	13.6910
 2.0840	13.7390
 2.0850	13.7860
 2.0860	13.8330
 2.0870	13.8810
 2.0880	13.9280
 2.0890	13.9750
 2.0900	14.0220
 2.0910	14.0680
 2.0920	14.1130
 2.0930	14.1590
 2.0940	14.2050
 2.0950	14.2520
 2.0960	14.2990
 2.0970	14.3460
 2.0980	14.3920
 2.0990	14.4380
 2.1000	14.4830
 2.1010	14.5270
 2.1020	14.5720
 2.1030	14.6160
 2.1040	14.6590
 2.1050	14.7020
 2.1060	14.7460
 2.1070	14.7910
 2.1080	14.8350
 2.1090	14.8780
 2.1100	14.9210
 2.1110	14.9650
 2.1120	15.0080
 2.1130	15.0520
 2.1140	15.0950
 2.1150	15.1350
 2.1160	15.1760
 2.1170	15.2170
 2.1180	15.2570
 2.1190	15.2960
 2.1200	15.3340
 2.1210	15.3720
 2.1220	15.4110
 2.1230	15.4500
 2.1240	15.4900
 2.1250	15.5270
 2.1260	15.5630
 2.1270	15.5990
 2.1280	15.6320
 2.1290	15.6660
 2.1300	15.7000
 2.1310	15.7330
 2.1320	15.7620
 2.1330	15.7930
 2.1340	15.8250
 2.1350	15.8540
 2.1360	15.8820
 2.1370	15.9100
 2.1380	15.9350
 2.1390	15.9610
 2.1400	15.9880
 2.1410	16.0120
 2.1420	16.0370
 2.1430	16.0610
 2.1440	16.0860
 2.1450	16.1110
 2.1460	16.1350
 2.1470	16.1590
 2.1480	16.1820
 2.1490	16.2010
 2.1500	16.2230
 2.1510	16.2440
 2.1520	16.2650
 2.1530	16.2890
 2.1540	16.3110
 2.1550	16.3320
 2.1560	16.3500
 2.1570	16.3670
 2.1580	16.3820
 2.1590	16.3950
 2.1600	16.4060
 2.1610	16.4190
 2.1620	16.4290
 2.1630	16.4430
 2.1640	16.4580
 2.1650	16.4730
 2.1660	16.4890
 2.1670	16.5030
 2.1680	16.5160
 2.1690	16.5300
 2.1700	16.5440
 2.1710	16.5570
 2.1720	16.5720
 2.1730	16.5860
 2.1740	16.5990
 2.1750	16.6130
 2.1760	16.6280
 2.1770	16.6430
 2.1780	16.6570
 2.1790	16.6710
 2.1800	16.6860
 2.1810	16.7000
 2.1820	16.7160
 2.1830	16.7300
 2.1840	16.7450
 2.1850	16.7590
 2.1860	16.7730
 2.1870	16.7890
 2.1880	16.8040
 2.1890	16.8180
 2.1900	16.8330
 2.1910	16.8470
 2.1920	16.8620
 2.1930	16.8770
 2.1940	16.8920
 2.1950	16.9060
 2.1960	16.9200
 2.1970	16.9320
 2.1980	16.9440
 2.1990	16.9550
 2.2000	16.9670
 2.2010	16.9790
 2.2020	16.9900
 2.2030	17.0000
 2.2040	17.0100
 2.2050	17.0180
 2.2060	17.0270
 2.2070	17.0340
 2.2080	17.0420
 2.2090	17.0500
 2.2100	17.0560
 2.2110	17.0630
 2.2120	17.0710
 2.2130	17.0760
 2.2140	17.0780
 2.2150	17.0810
 2.2160	17.0800
 2.2170	17.0810
 2.2180	17.0830
 2.2190	17.0820
 2.2200	17.0780
 2.2210	17.0750
 2.2220	17.0690
 2.2230	17.0650
 2.2240	17.0640
 2.2250	17.0590
 2.2260	17.0510
 2.2270	17.0430
 2.2280	17.0330
 2.2290	17.0220
 2.2300	17.0110
 2.2310	16.9970
 2.2320	16.9780
 2.2330	16.9580
 2.2340	16.9380
 2.2350	16.9140
 2.2360	16.8930
 2.2370	16.8740
 2.2380	16.8500
 2.2390	16.8230
 2.2400	16.7940
 2.2410	16.7620
 2.2420	16.7320
 2.2430	16.7010
 2.2440	16.6710
 2.2450	16.6410
 2.2460	16.6090
 2.2470	16.5760
 2.2480	16.5420
 2.2490	16.5050
 2.2500	16.4680
 2.2510	16.4280
 2.2520	16.3880
 2.2530	16.3460
 2.2540	16.3050
 2.2550	16.2640
 2.2560	16.2220
 2.2570	16.1790
 2.2580	16.1370
 2.2590	16.0950
 2.2600	16.0530
 2.2610	16.0120
 2.2620	15.9710
 2.2630	15.9290
 2.2640	15.8850
 2.2650	15.8420
 2.2660	15.7990
 2.2670	15.7570
 2.2680	15.7140
 2.2690	15.6710
 2.2700	15.6260
 2.2710	15.5850
 2.2720	15.5450
 2.2730	15.5050
 2.2740	15.4680
 2.2750	15.4280
 2.2760	15.3870
 2.2770	15.3480
 2.2780	15.3100
 2.2790	15.2730
 2.2800	15.2360
 2.2810	15.2000
 2.2820	15.1650
 2.2830	15.1290
 2.2840	15.0930
 2.2850	15.0550
 2.2860	15.0170
 2.2870	14.9780
 2.2880	14.9390
 2.2890	14.9010
 2.2900	14.8630
 2.2910	14.8250
 2.2920	14.7890
 2.2930	14.7500
 2.2940	14.7090
 2.2950	14.6670
 2.2960	14.6220
 2.2970	14.5790
 2.2980	14.5360
 2.2990	14.4930
 2.3000	14.4520
 2.3010	14.4140
 2.3020	14.3750
 2.3030	14.3350
 2.3040	14.2940
 2.3050	14.2500
 2.3060	14.2070
 2.3070	14.1660
 2.3080	14.1260
 2.3090	14.0940
 2.3100	14.0640
 2.3110	14.0360
 2.3120	14.0090
 2.3130	13.9840
 2.3140	13.9590
 2.3150	13.9360
 2.3160	13.9130
 2.3170	13.8890
 2.3180	13.8670
 2.3190	13.8460
 2.3200	13.8250
 2.3210	13.8040
 2.3220	13.7820
 2.3230	13.7600
 2.3240	13.7340
 2.3250	13.7060
 2.3260	13.6750
 2.3270	13.6360
 2.3280	13.6020
 2.3290	13.5660
 2.3300	13.5320
 2.3310	13.5010
 2.3320	13.4670
 2.3330	13.4330
 2.3340	13.3950
 2.3350	13.3540
 2.3360	13.3130
 2.3370	13.2670
 2.3380	13.2260
 2.3390	13.1880
 2.3400	13.1470
 2.3410	13.1090
 2.3420	13.0670
 2.3430	13.0180
 2.3440	12.9760
 2.3450	12.9380
 2.3460	12.9000
 2.3470	12.8670
 2.3480	12.8320
 2.3490	12.7940
 2.3500	12.7600
 2.3510	12.7290
 2.3520	12.6950
 2.3530	12.6590
 2.3540	12.6290
 2.3550	12.5990
 2.3560	12.5680
 2.3570	12.5410
 2.3580	12.5110
 2.3590	12.4740
 2.3600	12.4420
 2.3610	12.4120
 2.3620	12.3790
 2.3630	12.3500
 2.3640	12.3180
 2.3650	12.2760
 2.3660	12.2410
 2.3670	12.2060
 2.3680	12.1690
 2.3690	12.1400
 2.3700	12.1060
 2.3710	12.0630
 2.3720	12.0270
 2.3730	11.9910
 2.3740	11.9520
 2.3750	11.9140
 2.3760	11.8750
 2.3770	11.8380
 2.3780	11.8040
 2.3790	11.7700
 2.3800	11.7360
 2.3810	11.6970
 2.3820	11.6620
 2.3830	11.6330
 2.3840	11.5990
 2.3850	11.5640
 2.3860	11.5300
 2.3870	11.4950
 2.3880	11.4600
 2.3890	11.4270
 2.3900	11.3920
 2.3910	11.3560
 2.3920	11.3190
 2.3930	11.2870
 2.3940	11.2550
 2.3950	11.2160
 2.3960	11.1770
 2.3970	11.1350
 2.3980	11.0900
 2.3990	11.0570
 2.4000	11.0290
 2.4010	11.0000
 2.4020	10.9690
 2.4030	10.9380
 2.4040	10.9070
 2.4050	10.8800
 2.4060	10.8540
 2.4070	10.8220
 2.4080	10.7830
 2.4090	10.7450
 2.4100	10.7150
 2.4110	10.6820
 2.4120	10.6460
 2.4130	10.6090
 2.4140	10.5650
 2.4150	10.5350
 2.4160	10.5040
 2.4170	10.4720
 2.4180	10.4410
 2.4190	10.3920
 2.4200	10.3530
 2.4210	10.3150
 2.4220	10.2740
 2.4230	10.2450
 2.4240	10.2110
 2.4250	10.1780
 2.4260	10.1510
 2.4270	10.1170
 2.4280	10.0810
 2.4290	10.0400
 2.4300	 9.9980
 2.4310	 9.9700
 2.4320	 9.9440
 2.4330	 9.9230
 2.4340	 9.9040
 2.4350	 9.8740
 2.4360	 9.8410
 2.4370	 9.8150
 2.4380	 9.7930
 2.4390	 9.7630
 2.4400	 9.7280
 2.4410	 9.6900
 2.4420	 9.6380
 2.4430	 9.5920
 2.4440	 9.5680
 2.4450	 9.5420
 2.4460	 9.5130
 2.4470	 9.4970
 2.4480	 9.4700
 2.4490	 9.4380
 2.4500	 9.4170
 2.4510	 9.3940
 2.4520	 9.3570
 2.4530	 9.3240
 2.4540	 9.2930
 2.4550	 9.2530
 2.4560	 9.2230
 2.4570	 9.1980
 2.4580	 9.1730
 2.4590	 9.1550
 2.4600	 9.1340
 2.4610	 9.1110
 2.4620	 9.0740
 2.4630	 9.0320
 2.4640	 9.0080
 2.4650	 8.9870
 2.4660	 8.9640
 2.4670	 8.9490
 2.4680	 8.9280
 2.4690	 8.9090
 2.4700	 8.8890
 2.4710	 8.8670
 2.4720	 8.8430
 2.4730	 8.8100
 2.4740	 8.7880
 2.4750	 8.7800
 2.4760	 8.7650
 2.4770	 8.7460
 2.4780	 8.7280
 2.4790	 8.7040
 2.4800	 8.6930
 2.4810	 8.6920
 2.4820	 8.6980
 2.4830	 8.6920
 2.4840	 8.6640
 2.4850	 8.6500
 2.4860	 8.6620
 2.4870	 8.6530
 2.4880	 8.6390
 2.4890	 8.6420
 2.4900	 8.6140
 2.4910	 8.5840
 2.4920	 8.5840
 2.4930	 8.5640
 2.4940	 8.5480
 2.4950	 8.5520
 2.4960	 8.5330
 2.4970	 8.5300
 2.4980	 8.5420
 2.4990	 8.5390
 2.5000	 8.5270
