Name: Quercus agrifolia 2
Type: vegetation
Class: Tree
Genus: Quercus
Species: agrifolia
Sample No.: VH275
Owner: UCSB
Wavelength Range: TIR
Origin: 34.7156; -120.0603; WGS84
Collection Date: 11/2/2013
Description: Samples were collected as part of the HyspIRI Airborne Campaign. 48 individual plants were sampled in three times in 2013 - spring  summer  and fall. The name of the sample includes a 1  2  or 3 which references a different individual of the species. Samples were taken to JPL and processed within 48 hours of collection. The same leaves were processed in the Nicolet and then measured using the ASD.
Measurement: Hemispherical reflectance
First Column: X
Second Column: Y
X Units: Wavelength (micrometers)
Y Units: Reflectance (percentage)
First X Value: 2.501
Last X Value: 15.387
Number of X Values: 1737
Additional Information: vegetation.tree.quercus.agrifolia.tir.vh275.ucsb.nicolet.ancillary.txt

 2.5010	 6.5740
 2.5030	 6.5100
 2.5040	 6.6050
 2.5050	 6.6710
 2.5060	 6.6770
 2.5070	 6.5920
 2.5090	 6.5570
 2.5100	 6.5650
 2.5110	 6.5310
 2.5120	 6.3310
 2.5140	 6.3260
 2.5150	 6.4410
 2.5160	 6.4230
 2.5170	 6.2920
 2.5180	 6.3440
 2.5200	 6.4220
 2.5210	 6.3290
 2.5220	 6.3960
 2.5230	 6.4940
 2.5250	 6.4900
 2.5260	 6.4820
 2.5270	 6.5180
 2.5280	 6.6610
 2.5290	 6.6490
 2.5310	 6.4920
 2.5320	 6.4060
 2.5330	 6.4120
 2.5340	 6.3960
 2.5360	 6.4640
 2.5370	 6.2970
 2.5380	 6.1610
 2.5390	 6.3170
 2.5410	 6.3730
 2.5420	 6.3020
 2.5430	 6.4200
 2.5440	 6.4750
 2.5460	 6.4740
 2.5470	 6.3480
 2.5480	 6.2540
 2.5490	 6.3260
 2.5510	 6.5700
 2.5520	 6.6740
 2.5530	 6.5570
 2.5540	 6.5200
 2.5560	 6.6720
 2.5570	 6.5530
 2.5580	 6.4290
 2.5590	 6.5300
 2.5610	 6.5740
 2.5620	 6.5290
 2.5630	 6.5880
 2.5640	 6.6140
 2.5660	 6.4130
 2.5670	 6.4080
 2.5680	 6.5370
 2.5700	 6.4020
 2.5710	 6.3560
 2.5720	 6.5180
 2.5730	 6.5950
 2.5750	 6.5520
 2.5760	 6.4930
 2.5770	 6.4940
 2.5790	 6.5890
 2.5800	 6.5290
 2.5810	 6.3390
 2.5820	 6.3300
 2.5840	 6.3670
 2.5850	 6.3130
 2.5860	 6.2570
 2.5880	 6.4550
 2.5890	 6.5950
 2.5900	 6.5050
 2.5910	 6.5770
 2.5930	 6.5910
 2.5940	 6.3980
 2.5950	 6.1140
 2.5970	 6.1220
 2.5980	 6.3250
 2.5990	 6.4110
 2.6000	 6.4670
 2.6020	 6.4170
 2.6030	 6.3490
 2.6040	 6.4280
 2.6060	 6.3110
 2.6070	 6.2080
 2.6080	 6.3400
 2.6100	 6.3860
 2.6110	 6.1970
 2.6120	 6.2180
 2.6140	 6.2450
 2.6150	 6.1640
 2.6160	 6.1450
 2.6180	 6.3170
 2.6190	 6.2710
 2.6200	 6.0690
 2.6220	 5.9830
 2.6230	 6.1140
 2.6240	 6.1810
 2.6260	 6.1050
 2.6270	 5.9450
 2.6280	 5.9540
 2.6300	 5.9400
 2.6310	 5.9230
 2.6320	 5.9270
 2.6340	 5.9280
 2.6350	 5.9420
 2.6360	 5.9650
 2.6380	 5.9770
 2.6390	 5.9260
 2.6400	 5.7950
 2.6420	 5.7330
 2.6430	 5.6810
 2.6440	 5.7110
 2.6460	 5.6940
 2.6470	 5.6420
 2.6480	 5.6230
 2.6500	 5.6650
 2.6510	 5.6320
 2.6520	 5.6290
 2.6540	 5.6620
 2.6550	 5.6780
 2.6560	 5.5860
 2.6580	 5.5980
 2.6590	 5.5170
 2.6610	 5.3890
 2.6620	 5.4130
 2.6630	 5.4270
 2.6650	 5.3110
 2.6660	 5.2570
 2.6670	 5.1860
 2.6690	 5.2720
 2.6700	 5.2170
 2.6720	 5.2230
 2.6730	 5.3160
 2.6740	 5.3740
 2.6760	 5.3180
 2.6770	 5.2600
 2.6780	 5.3040
 2.6800	 5.1620
 2.6810	 5.1500
 2.6830	 5.3360
 2.6840	 5.1760
 2.6850	 5.0360
 2.6870	 4.9160
 2.6880	 4.9920
 2.6900	 4.9800
 2.6910	 4.9380
 2.6920	 4.8920
 2.6940	 4.8710
 2.6950	 4.9540
 2.6970	 4.8260
 2.6980	 4.8790
 2.6990	 5.3450
 2.7010	 5.3970
 2.7020	 5.2370
 2.7040	 5.1140
 2.7050	 4.9900
 2.7060	 5.0400
 2.7080	 5.0470
 2.7090	 4.8450
 2.7110	 4.7990
 2.7120	 4.9190
 2.7130	 4.9680
 2.7150	 5.0930
 2.7160	 5.0490
 2.7180	 4.9370
 2.7190	 4.9600
 2.7210	 4.7740
 2.7220	 4.5880
 2.7230	 4.6920
 2.7250	 4.9450
 2.7260	 4.8340
 2.7280	 4.8520
 2.7290	 4.8880
 2.7310	 4.8530
 2.7320	 4.8970
 2.7330	 4.8600
 2.7350	 4.7240
 2.7360	 4.6680
 2.7380	 4.6140
 2.7390	 4.4580
 2.7410	 4.5680
 2.7420	 4.9380
 2.7440	 4.9460
 2.7450	 4.9630
 2.7470	 5.2070
 2.7480	 5.1100
 2.7490	 4.8670
 2.7510	 4.8810
 2.7520	 4.6240
 2.7540	 4.5820
 2.7550	 4.6910
 2.7570	 4.7240
 2.7580	 4.8340
 2.7600	 5.0560
 2.7610	 4.8550
 2.7630	 4.5040
 2.7640	 4.6100
 2.7660	 4.9270
 2.7670	 4.8790
 2.7680	 4.8560
 2.7700	 4.6730
 2.7710	 4.4440
 2.7730	 4.3830
 2.7740	 4.6430
 2.7760	 4.6430
 2.7770	 4.5560
 2.7790	 4.6200
 2.7800	 4.7710
 2.7820	 4.6090
 2.7830	 4.4590
 2.7850	 4.5550
 2.7860	 4.8160
 2.7880	 4.8370
 2.7890	 4.8470
 2.7910	 4.8230
 2.7920	 4.7920
 2.7940	 4.7940
 2.7950	 4.9750
 2.7970	 4.8780
 2.7980	 4.6540
 2.8000	 4.5770
 2.8010	 4.5150
 2.8030	 4.4860
 2.8040	 4.6850
 2.8060	 4.8450
 2.8070	 4.7690
 2.8090	 4.7280
 2.8110	 4.7790
 2.8120	 4.8260
 2.8140	 4.8100
 2.8150	 4.8260
 2.8170	 4.7190
 2.8180	 4.6820
 2.8200	 4.6720
 2.8210	 4.6140
 2.8230	 4.7000
 2.8240	 4.8310
 2.8260	 4.8160
 2.8270	 4.7520
 2.8290	 4.6800
 2.8300	 4.6630
 2.8320	 4.6560
 2.8340	 4.7110
 2.8350	 4.7090
 2.8370	 4.6250
 2.8380	 4.5990
 2.8400	 4.8200
 2.8410	 4.9290
 2.8430	 4.7860
 2.8440	 4.7850
 2.8460	 4.8860
 2.8480	 4.9430
 2.8490	 4.7570
 2.8510	 4.7040
 2.8520	 4.8470
 2.8540	 4.8810
 2.8550	 4.7520
 2.8570	 4.7040
 2.8590	 4.6570
 2.8600	 4.7690
 2.8620	 4.8970
 2.8630	 4.9210
 2.8650	 4.7770
 2.8660	 4.5200
 2.8680	 4.6470
 2.8700	 4.8570
 2.8710	 4.8860
 2.8730	 4.7540
 2.8740	 4.7000
 2.8760	 4.8490
 2.8780	 5.1080
 2.8790	 5.0210
 2.8810	 4.8360
 2.8820	 4.9440
 2.8840	 4.9440
 2.8860	 4.7840
 2.8870	 4.6540
 2.8890	 4.6640
 2.8900	 4.9330
 2.8920	 5.0830
 2.8940	 4.8000
 2.8950	 4.7560
 2.8970	 4.8120
 2.8980	 4.8240
 2.9000	 4.9630
 2.9020	 4.8990
 2.9030	 4.7820
 2.9050	 4.8520
 2.9070	 4.9510
 2.9080	 5.0040
 2.9100	 5.0090
 2.9120	 4.9880
 2.9130	 4.7700
 2.9150	 4.8550
 2.9160	 4.9850
 2.9180	 4.8470
 2.9200	 4.7970
 2.9210	 5.0730
 2.9230	 5.0800
 2.9250	 4.9020
 2.9260	 4.9070
 2.9280	 4.7530
 2.9300	 4.6890
 2.9310	 4.7950
 2.9330	 4.9030
 2.9350	 4.9400
 2.9360	 4.9460
 2.9380	 4.9020
 2.9400	 4.8030
 2.9410	 4.4860
 2.9430	 4.3460
 2.9450	 4.3130
 2.9460	 4.6540
 2.9480	 4.8090
 2.9500	 4.7810
 2.9510	 4.8780
 2.9530	 4.9520
 2.9550	 5.1650
 2.9560	 5.2370
 2.9580	 4.9420
 2.9600	 5.1460
 2.9610	 5.1950
 2.9630	 4.8390
 2.9650	 4.5840
 2.9660	 4.6290
 2.9680	 5.7860
 2.9700	 6.2910
 2.9720	 5.5990
 2.9730	 4.3540
 2.9750	 4.2310
 2.9770	 4.7410
 2.9780	 3.8400
 2.9800	 3.6390
 2.9820	 4.5010
 2.9840	 4.8450
 2.9850	 4.7140
 2.9870	 4.6280
 2.9890	 4.6260
 2.9900	 5.2530
 2.9920	 6.5420
 2.9940	 4.9940
 2.9960	 2.2650
 2.9970	 2.9710
 2.9990	 5.3400
 3.0010	 4.9580
 3.0030	 4.4730
 3.0040	 4.6970
 3.0060	 4.5340
 3.0080	 4.5700
 3.0100	 5.0910
 3.0110	 5.7230
 3.0130	 5.6440
 3.0150	 4.6760
 3.0170	 4.7550
 3.0180	 5.0430
 3.0200	 4.6850
 3.0220	 4.8020
 3.0240	 5.1230
 3.0250	 5.2200
 3.0270	 4.6670
 3.0290	 4.6170
 3.0310	 4.9500
 3.0320	 5.0440
 3.0340	 4.1990
 3.0360	 4.3130
 3.0380	 5.0220
 3.0400	 5.2740
 3.0410	 5.4110
 3.0430	 4.9120
 3.0450	 4.4680
 3.0470	 4.8440
 3.0480	 5.6800
 3.0500	 5.8950
 3.0520	 5.3680
 3.0540	 3.5950
 3.0560	 3.2470
 3.0570	 4.2200
 3.0590	 4.8680
 3.0610	 4.5080
 3.0630	 4.1300
 3.0650	 4.3370
 3.0660	 5.1540
 3.0680	 5.1500
 3.0700	 4.8970
 3.0720	 4.6580
 3.0740	 4.3390
 3.0760	 4.1960
 3.0770	 4.5100
 3.0790	 4.7540
 3.0810	 4.8900
 3.0830	 4.8870
 3.0850	 4.9460
 3.0870	 4.9140
 3.0880	 5.0030
 3.0900	 4.8740
 3.0920	 4.6900
 3.0940	 4.6800
 3.0960	 4.8080
 3.0980	 4.6400
 3.0990	 4.7680
 3.1010	 4.8500
 3.1030	 4.7830
 3.1050	 4.7070
 3.1070	 4.8510
 3.1090	 4.8200
 3.1110	 4.9150
 3.1120	 4.9860
 3.1140	 4.8050
 3.1160	 4.6800
 3.1180	 4.7880
 3.1200	 4.8130
 3.1220	 4.9580
 3.1240	 4.9910
 3.1260	 4.8930
 3.1270	 4.8340
 3.1290	 5.1440
 3.1310	 4.9830
 3.1330	 4.9480
 3.1350	 4.7700
 3.1370	 4.2000
 3.1390	 4.0640
 3.1410	 4.5460
 3.1430	 5.2150
 3.1450	 5.1820
 3.1460	 3.7630
 3.1480	 4.4440
 3.1500	 5.3800
 3.1520	 4.4530
 3.1540	 4.2040
 3.1560	 4.7760
 3.1580	 5.0070
 3.1600	 4.6660
 3.1620	 4.0600
 3.1640	 4.2400
 3.1660	 4.5680
 3.1680	 4.5970
 3.1700	 4.7260
 3.1710	 5.7860
 3.1730	 6.5560
 3.1750	 6.1570
 3.1770	 5.4690
 3.1790	 5.3290
 3.1810	 4.9330
 3.1830	 3.9570
 3.1850	 4.0540
 3.1870	 4.4220
 3.1890	 4.7840
 3.1910	 4.8210
 3.1930	 4.6270
 3.1950	 4.5020
 3.1970	 4.6110
 3.1990	 4.7330
 3.2010	 4.7660
 3.2030	 4.6390
 3.2050	 4.5920
 3.2070	 4.6380
 3.2090	 4.5810
 3.2110	 4.6780
 3.2130	 4.6740
 3.2150	 4.4590
 3.2170	 4.3430
 3.2190	 4.3880
 3.2210	 4.5860
 3.2230	 4.6580
 3.2250	 4.6340
 3.2270	 4.5110
 3.2290	 4.5290
 3.2310	 4.6750
 3.2330	 4.7170
 3.2350	 4.7730
 3.2370	 4.6620
 3.2390	 4.7150
 3.2410	 5.1190
 3.2430	 4.8580
 3.2450	 4.8420
 3.2470	 4.9350
 3.2490	 4.6180
 3.2510	 4.3700
 3.2530	 4.4110
 3.2550	 4.5160
 3.2570	 4.5970
 3.2590	 4.5720
 3.2610	 4.4800
 3.2630	 4.6020
 3.2650	 4.6260
 3.2670	 4.4930
 3.2690	 4.6750
 3.2720	 4.7110
 3.2740	 4.5500
 3.2760	 4.5410
 3.2780	 4.5680
 3.2800	 4.5000
 3.2820	 4.4230
 3.2840	 4.4720
 3.2860	 4.5040
 3.2880	 4.4690
 3.2900	 4.3980
 3.2920	 4.3690
 3.2940	 4.4650
 3.2960	 4.4540
 3.2990	 4.5760
 3.3010	 4.6980
 3.3030	 4.4570
 3.3050	 4.1030
 3.3070	 4.1910
 3.3090	 4.4030
 3.3110	 4.3610
 3.3130	 4.4150
 3.3150	 4.4630
 3.3180	 4.6140
 3.3200	 4.5780
 3.3220	 4.5660
 3.3240	 4.6500
 3.3260	 4.5950
 3.3280	 4.5050
 3.3300	 4.4940
 3.3330	 4.4610
 3.3350	 4.2770
 3.3370	 4.0570
 3.3390	 4.0760
 3.3410	 4.1540
 3.3430	 4.2150
 3.3450	 4.2410
 3.3480	 4.3440
 3.3500	 4.2930
 3.3520	 4.0560
 3.3540	 3.9370
 3.3560	 4.0690
 3.3580	 4.0140
 3.3610	 4.0090
 3.3630	 4.0370
 3.3650	 4.0280
 3.3670	 4.0400
 3.3690	 3.9920
 3.3720	 3.8810
 3.3740	 3.8950
 3.3760	 3.9700
 3.3780	 3.8300
 3.3800	 3.6270
 3.3830	 3.7700
 3.3850	 3.9000
 3.3870	 3.7840
 3.3890	 3.6390
 3.3910	 3.5990
 3.3940	 3.5740
 3.3960	 3.4500
 3.3980	 3.3810
 3.4000	 3.4080
 3.4020	 3.4660
 3.4050	 3.5440
 3.4070	 3.3530
 3.4090	 3.1410
 3.4110	 3.1310
 3.4140	 3.2070
 3.4160	 3.2940
 3.4180	 3.6000
 3.4200	 4.2070
 3.4230	 5.2060
 3.4250	 6.5870
 3.4270	 8.0720
 3.4290	 9.1610
 3.4320	 9.4290
 3.4340	 8.7390
 3.4360	 7.8110
 3.4390	 7.2400
 3.4410	 6.9130
 3.4430	 6.4210
 3.4450	 6.1720
 3.4480	 6.1060
 3.4500	 6.2900
 3.4520	 6.2320
 3.4550	 6.0790
 3.4570	 6.2470
 3.4590	 6.1030
 3.4620	 5.8790
 3.4640	 5.7990
 3.4660	 5.8600
 3.4680	 5.8530
 3.4710	 5.6830
 3.4730	 5.5310
 3.4750	 5.4090
 3.4780	 5.2330
 3.4800	 5.1950
 3.4820	 5.2260
 3.4850	 5.2260
 3.4870	 5.1920
 3.4890	 4.9720
 3.4920	 4.8310
 3.4940	 4.6930
 3.4970	 4.4640
 3.4990	 4.2430
 3.5010	 4.1560
 3.5040	 4.3180
 3.5060	 4.7990
 3.5080	 6.2130
 3.5110	 8.0080
 3.5130	 8.5720
 3.5160	 8.0730
 3.5180	 7.5950
 3.5200	 7.1800
 3.5230	 6.9440
 3.5250	 6.7990
 3.5270	 6.5150
 3.5300	 6.2390
 3.5320	 5.9810
 3.5350	 5.9380
 3.5370	 5.9220
 3.5400	 5.9000
 3.5420	 5.9240
 3.5440	 5.9150
 3.5470	 5.8720
 3.5490	 5.8660
 3.5520	 5.6900
 3.5540	 5.6370
 3.5570	 5.6470
 3.5590	 5.6060
 3.5610	 5.6210
 3.5640	 5.6060
 3.5660	 5.6960
 3.5690	 5.7280
 3.5710	 5.6450
 3.5740	 5.6000
 3.5760	 5.6070
 3.5790	 5.5480
 3.5810	 5.4530
 3.5840	 5.4880
 3.5860	 5.5440
 3.5890	 5.4350
 3.5910	 5.4120
 3.5930	 5.5190
 3.5960	 5.5440
 3.5980	 5.4850
 3.6010	 5.3260
 3.6030	 5.4020
 3.6060	 5.4300
 3.6080	 5.3640
 3.6110	 5.3110
 3.6140	 5.4000
 3.6160	 5.4740
 3.6190	 5.4940
 3.6210	 5.5390
 3.6240	 5.5510
 3.6260	 5.4030
 3.6290	 5.2160
 3.6310	 5.1820
 3.6340	 5.2660
 3.6360	 5.2750
 3.6390	 5.2920
 3.6410	 5.3180
 3.6440	 5.2390
 3.6470	 5.2160
 3.6490	 5.2360
 3.6520	 5.2920
 3.6540	 5.3300
 3.6570	 5.3590
 3.6590	 5.4210
 3.6620	 5.3490
 3.6650	 5.3260
 3.6670	 5.4110
 3.6700	 5.4150
 3.6720	 5.3780
 3.6750	 5.3800
 3.6780	 5.2690
 3.6800	 5.1050
 3.6830	 5.1770
 3.6850	 5.2530
 3.6880	 5.2600
 3.6910	 5.2450
 3.6930	 5.2090
 3.6960	 5.2080
 3.6990	 5.1450
 3.7010	 5.1980
 3.7040	 5.2820
 3.7060	 5.1550
 3.7090	 5.2000
 3.7120	 5.3300
 3.7140	 5.1750
 3.7170	 5.1180
 3.7200	 5.1780
 3.7220	 5.3000
 3.7250	 5.3920
 3.7280	 5.4780
 3.7300	 5.3970
 3.7330	 5.2600
 3.7360	 5.1470
 3.7390	 5.0230
 3.7410	 5.0530
 3.7440	 5.2140
 3.7470	 5.2910
 3.7490	 5.2310
 3.7520	 5.3570
 3.7550	 5.4210
 3.7580	 5.3570
 3.7600	 5.2110
 3.7630	 5.0440
 3.7660	 5.0710
 3.7680	 5.2210
 3.7710	 5.2800
 3.7740	 5.2110
 3.7770	 5.2030
 3.7790	 5.1630
 3.7820	 5.1190
 3.7850	 5.2130
 3.7880	 5.1810
 3.7900	 5.1760
 3.7930	 5.2680
 3.7960	 5.3220
 3.7990	 5.3350
 3.8020	 5.1790
 3.8040	 5.0260
 3.8070	 5.0800
 3.8100	 5.0940
 3.8130	 5.0990
 3.8160	 5.2340
 3.8180	 5.3450
 3.8210	 5.3050
 3.8240	 5.1440
 3.8270	 5.0330
 3.8300	 5.0210
 3.8330	 5.1350
 3.8350	 5.2070
 3.8380	 5.1180
 3.8410	 5.1140
 3.8440	 5.1810
 3.8470	 5.2410
 3.8500	 5.1310
 3.8520	 5.0340
 3.8550	 5.1610
 3.8580	 5.2790
 3.8610	 5.2020
 3.8640	 5.1630
 3.8670	 5.1910
 3.8700	 5.1810
 3.8730	 5.1110
 3.8750	 5.0970
 3.8780	 5.1290
 3.8810	 5.1860
 3.8840	 5.2420
 3.8870	 5.2300
 3.8900	 5.1660
 3.8930	 5.1360
 3.8960	 5.1700
 3.8990	 5.2500
 3.9020	 5.1940
 3.9050	 5.1100
 3.9080	 5.1810
 3.9110	 5.2420
 3.9140	 5.1720
 3.9160	 5.1100
 3.9190	 5.1100
 3.9220	 5.0840
 3.9250	 5.2650
 3.9280	 5.3690
 3.9310	 5.3010
 3.9340	 5.3390
 3.9370	 5.2860
 3.9400	 5.2050
 3.9430	 5.2100
 3.9460	 5.1830
 3.9490	 5.1580
 3.9520	 5.1330
 3.9550	 5.2350
 3.9580	 5.3240
 3.9610	 5.2580
 3.9640	 5.1870
 3.9670	 5.1620
 3.9700	 5.1850
 3.9730	 5.1560
 3.9770	 5.1500
 3.9800	 5.1880
 3.9830	 5.2630
 3.9860	 5.2980
 3.9890	 5.2390
 3.9920	 5.1240
 3.9950	 5.1690
 3.9980	 5.2430
 4.0010	 5.2770
 4.0040	 5.1840
 4.0070	 5.1190
 4.0100	 5.1310
 4.0130	 5.1720
 4.0170	 5.1950
 4.0200	 5.1620
 4.0230	 5.1270
 4.0260	 5.1360
 4.0290	 5.1340
 4.0320	 5.2090
 4.0350	 5.2280
 4.0380	 5.1360
 4.0420	 5.1580
 4.0450	 5.2260
 4.0480	 5.2470
 4.0510	 5.2060
 4.0540	 5.1710
 4.0570	 5.1640
 4.0610	 5.0920
 4.0640	 5.1090
 4.0670	 5.1650
 4.0700	 5.0980
 4.0730	 5.0850
 4.0770	 5.1700
 4.0800	 5.2170
 4.0830	 5.2590
 4.0860	 5.1950
 4.0890	 5.1290
 4.0930	 5.0690
 4.0960	 5.1080
 4.0990	 5.1430
 4.1020	 5.1340
 4.1060	 5.2070
 4.1090	 5.2780
 4.1120	 5.2160
 4.1150	 5.2260
 4.1190	 5.2390
 4.1220	 5.1860
 4.1250	 5.1270
 4.1280	 5.1070
 4.1320	 5.1040
 4.1350	 5.1120
 4.1380	 5.0460
 4.1420	 4.9980
 4.1450	 5.0160
 4.1480	 5.0120
 4.1520	 5.0170
 4.1550	 5.1390
 4.1580	 5.1670
 4.1620	 5.1720
 4.1650	 5.1650
 4.1680	 5.1700
 4.1720	 5.1110
 4.1750	 5.0370
 4.1780	 5.0360
 4.1820	 5.0960
 4.1850	 5.1880
 4.1890	 5.2040
 4.1920	 5.1060
 4.1950	 5.0890
 4.1990	 5.0580
 4.2020	 5.0840
 4.2060	 5.1930
 4.2090	 5.2840
 4.2120	 5.2260
 4.2160	 5.2680
 4.2190	 5.2870
 4.2230	 5.1240
 4.2260	 4.8330
 4.2300	 4.9390
 4.2330	 4.9530
 4.2360	 4.8590
 4.2400	 5.1300
 4.2430	 5.6690
 4.2470	 5.5470
 4.2500	 5.4350
 4.2540	 5.4110
 4.2570	 5.6450
 4.2610	 5.7620
 4.2640	 5.3200
 4.2680	 4.9770
 4.2710	 5.1040
 4.2750	 5.2550
 4.2780	 5.4580
 4.2820	 5.3350
 4.2850	 5.2030
 4.2890	 5.1770
 4.2930	 5.2560
 4.2960	 5.3650
 4.3000	 5.3810
 4.3030	 5.1260
 4.3070	 5.1420
 4.3100	 4.9750
 4.3140	 4.9720
 4.3180	 5.1380
 4.3210	 5.1090
 4.3250	 4.9350
 4.3280	 4.8470
 4.3320	 4.9620
 4.3360	 5.1310
 4.3390	 5.0710
 4.3430	 5.0590
 4.3470	 5.0430
 4.3500	 4.9670
 4.3540	 4.9000
 4.3570	 4.9850
 4.3610	 5.0450
 4.3650	 5.0830
 4.3680	 5.0960
 4.3720	 5.1580
 4.3760	 5.1210
 4.3800	 5.1070
 4.3830	 5.1420
 4.3870	 5.1710
 4.3910	 5.1660
 4.3940	 5.1800
 4.3980	 5.1000
 4.4020	 5.0310
 4.4060	 5.0280
 4.4090	 4.9680
 4.4130	 4.9970
 4.4170	 5.0950
 4.4210	 5.0650
 4.4240	 5.0710
 4.4280	 5.0560
 4.4320	 4.9460
 4.4360	 4.8900
 4.4400	 5.0270
 4.4430	 5.0760
 4.4470	 5.0250
 4.4510	 4.9770
 4.4550	 4.9860
 4.4590	 5.0000
 4.4620	 5.0120
 4.4660	 4.9670
 4.4700	 5.0630
 4.4740	 5.0830
 4.4780	 5.0320
 4.4820	 5.0040
 4.4860	 4.9250
 4.4900	 4.9080
 4.4930	 4.9620
 4.4970	 4.9070
 4.5010	 4.9090
 4.5050	 4.9900
 4.5090	 4.9970
 4.5130	 4.8730
 4.5170	 4.8440
 4.5210	 4.9410
 4.5250	 5.0500
 4.5290	 5.0560
 4.5330	 4.9680
 4.5370	 4.9480
 4.5410	 5.0250
 4.5450	 5.0120
 4.5490	 4.9640
 4.5530	 4.9810
 4.5570	 5.0300
 4.5610	 4.9590
 4.5650	 4.9090
 4.5690	 4.9180
 4.5730	 5.0170
 4.5770	 4.9890
 4.5810	 4.9280
 4.5850	 4.8740
 4.5890	 4.9120
 4.5930	 4.8990
 4.5970	 4.8440
 4.6010	 4.7700
 4.6050	 4.9450
 4.6090	 5.0120
 4.6130	 4.9520
 4.6170	 4.9010
 4.6220	 4.8500
 4.6260	 4.8910
 4.6300	 5.1010
 4.6340	 5.0800
 4.6380	 4.9570
 4.6420	 4.9300
 4.6460	 4.9870
 4.6510	 4.9660
 4.6550	 4.9160
 4.6590	 4.8650
 4.6630	 4.8460
 4.6670	 4.8530
 4.6720	 4.9020
 4.6760	 4.9500
 4.6800	 4.9450
 4.6840	 4.8270
 4.6880	 4.9130
 4.6930	 4.9040
 4.6970	 4.8870
 4.7010	 4.9250
 4.7050	 4.9340
 4.7100	 4.8470
 4.7140	 4.8410
 4.7180	 4.8330
 4.7230	 4.9090
 4.7270	 4.9290
 4.7310	 4.8860
 4.7360	 4.8990
 4.7400	 4.9880
 4.7440	 4.9830
 4.7490	 4.9130
 4.7530	 4.8520
 4.7570	 4.8650
 4.7620	 4.8900
 4.7660	 4.8240
 4.7700	 4.8610
 4.7750	 5.0370
 4.7790	 5.0110
 4.7840	 4.9630
 4.7880	 4.9050
 4.7920	 4.9830
 4.7970	 5.0200
 4.8010	 5.0450
 4.8060	 4.9470
 4.8100	 4.9670
 4.8150	 4.8500
 4.8190	 4.7860
 4.8240	 4.8300
 4.8280	 4.9430
 4.8330	 4.9570
 4.8370	 4.9540
 4.8420	 4.8580
 4.8460	 4.8520
 4.8510	 4.8840
 4.8550	 4.9920
 4.8600	 4.9360
 4.8640	 4.8770
 4.8690	 4.8310
 4.8730	 4.8770
 4.8780	 4.9050
 4.8830	 4.9740
 4.8870	 4.9220
 4.8920	 4.7680
 4.8960	 4.7490
 4.9010	 4.9510
 4.9060	 5.0350
 4.9100	 4.9980
 4.9150	 4.9340
 4.9200	 4.8770
 4.9240	 4.8420
 4.9290	 4.8830
 4.9340	 4.8460
 4.9380	 4.8980
 4.9430	 4.8870
 4.9480	 4.9500
 4.9530	 4.9300
 4.9570	 4.9710
 4.9620	 4.9020
 4.9670	 4.8630
 4.9720	 4.8350
 4.9760	 4.9150
 4.9810	 4.9030
 4.9860	 4.9230
 4.9910	 4.8900
 4.9960	 4.9270
 5.0000	 4.9730
 5.0050	 4.9960
 5.0100	 4.9490
 5.0150	 5.0150
 5.0200	 4.9570
 5.0250	 4.8880
 5.0290	 4.9080
 5.0340	 4.9770
 5.0390	 4.9690
 5.0440	 4.8520
 5.0490	 4.7860
 5.0540	 4.9030
 5.0590	 4.8720
 5.0640	 4.9060
 5.0690	 4.9300
 5.0740	 5.0490
 5.0790	 5.1730
 5.0840	 5.0560
 5.0890	 4.9000
 5.0940	 4.8520
 5.0990	 4.8830
 5.1040	 4.9310
 5.1090	 4.8590
 5.1140	 4.9080
 5.1190	 4.8700
 5.1240	 4.8530
 5.1290	 4.8870
 5.1340	 4.8000
 5.1390	 4.7430
 5.1440	 4.8430
 5.1490	 4.8390
 5.1540	 4.9120
 5.1600	 4.9340
 5.1650	 4.9390
 5.1700	 4.9070
 5.1750	 4.9390
 5.1800	 4.9000
 5.1850	 4.9100
 5.1910	 4.9230
 5.1960	 4.9060
 5.2010	 4.7920
 5.2060	 4.8520
 5.2110	 4.9550
 5.2170	 4.9950
 5.2220	 4.8770
 5.2270	 4.8500
 5.2320	 4.8680
 5.2380	 4.8940
 5.2430	 4.8860
 5.2480	 4.9290
 5.2540	 4.9020
 5.2590	 4.9350
 5.2640	 4.8900
 5.2700	 4.8870
 5.2750	 4.8520
 5.2800	 4.9310
 5.2860	 4.9790
 5.2910	 4.8600
 5.2970	 4.7490
 5.3020	 4.8560
 5.3070	 4.8950
 5.3130	 4.8940
 5.3180	 4.7760
 5.3240	 4.7980
 5.3290	 4.8510
 5.3350	 4.9110
 5.3400	 4.8830
 5.3460	 4.8430
 5.3510	 4.7730
 5.3570	 4.8710
 5.3620	 4.8840
 5.3680	 4.8770
 5.3730	 4.8150
 5.3790	 4.7560
 5.3850	 4.7450
 5.3900	 4.8380
 5.3960	 4.7750
 5.4010	 4.7980
 5.4070	 4.8160
 5.4130	 4.8740
 5.4180	 4.8060
 5.4240	 4.8180
 5.4300	 4.8290
 5.4350	 4.8230
 5.4410	 4.6730
 5.4470	 4.6040
 5.4530	 4.7010
 5.4580	 4.8270
 5.4640	 4.7090
 5.4700	 4.6710
 5.4760	 4.6580
 5.4810	 4.7330
 5.4870	 4.8020
 5.4930	 4.8450
 5.4990	 4.7890
 5.5050	 4.7590
 5.5110	 4.6510
 5.5160	 4.6440
 5.5220	 4.6170
 5.5280	 4.6550
 5.5340	 4.7020
 5.5400	 4.7280
 5.5460	 4.6860
 5.5520	 4.6510
 5.5580	 4.6280
 5.5640	 4.6130
 5.5700	 4.5440
 5.5760	 4.6190
 5.5820	 4.6450
 5.5880	 4.6500
 5.5940	 4.6050
 5.6000	 4.6360
 5.6060	 4.5630
 5.6120	 4.6020
 5.6180	 4.5150
 5.6240	 4.5340
 5.6300	 4.5210
 5.6360	 4.5340
 5.6420	 4.4490
 5.6490	 4.4220
 5.6550	 4.4080
 5.6610	 4.5410
 5.6670	 4.5440
 5.6730	 4.3960
 5.6800	 4.3780
 5.6860	 4.4370
 5.6920	 4.3870
 5.6980	 4.4840
 5.7040	 4.4950
 5.7110	 4.4100
 5.7170	 4.2750
 5.7230	 4.2790
 5.7300	 4.2310
 5.7360	 4.2710
 5.7420	 4.2710
 5.7490	 4.3320
 5.7550	 4.3700
 5.7620	 4.4740
 5.7680	 4.4150
 5.7740	 4.5760
 5.7810	 4.6840
 5.7870	 4.7010
 5.7940	 4.6530
 5.8000	 4.6200
 5.8070	 4.5740
 5.8130	 4.6510
 5.8200	 4.5130
 5.8260	 4.5950
 5.8330	 4.8070
 5.8390	 5.0580
 5.8460	 5.0750
 5.8530	 5.0180
 5.8590	 4.9540
 5.8660	 4.9470
 5.8720	 4.8580
 5.8790	 4.6620
 5.8860	 4.6820
 5.8920	 4.9450
 5.8990	 4.9660
 5.9060	 5.0880
 5.9130	 5.0900
 5.9190	 5.1540
 5.9260	 5.0710
 5.9330	 4.9090
 5.9400	 4.8370
 5.9470	 5.0160
 5.9530	 5.0690
 5.9600	 5.1190
 5.9670	 5.0010
 5.9740	 5.0720
 5.9810	 5.0620
 5.9880	 4.9890
 5.9950	 4.9250
 6.0020	 5.0760
 6.0090	 5.0490
 6.0160	 5.0810
 6.0230	 5.1410
 6.0300	 5.1930
 6.0370	 5.0390
 6.0440	 4.9830
 6.0510	 4.9370
 6.0580	 5.1480
 6.0650	 5.0670
 6.0720	 5.0550
 6.0790	 5.0880
 6.0860	 5.1070
 6.0930	 5.1030
 6.1000	 5.1920
 6.1080	 4.9650
 6.1150	 4.8310
 6.1220	 5.1010
 6.1290	 5.3160
 6.1370	 5.0850
 6.1440	 5.1200
 6.1510	 5.1480
 6.1580	 5.1190
 6.1660	 4.9930
 6.1730	 5.0720
 6.1800	 5.1540
 6.1880	 5.0770
 6.1950	 5.0190
 6.2030	 5.1340
 6.2100	 5.1340
 6.2170	 5.1880
 6.2250	 5.1320
 6.2320	 5.1780
 6.2400	 5.1220
 6.2470	 5.1750
 6.2550	 5.2650
 6.2630	 5.3890
 6.2700	 5.2090
 6.2780	 5.1250
 6.2850	 5.0110
 6.2930	 5.1210
 6.3010	 5.0250
 6.3080	 5.1460
 6.3160	 5.1600
 6.3240	 5.1280
 6.3310	 5.0840
 6.3390	 5.0330
 6.3470	 4.7880
 6.3550	 4.9320
 6.3620	 5.0540
 6.3700	 5.0440
 6.3780	 4.9620
 6.3860	 5.1040
 6.3940	 5.0510
 6.4020	 5.0290
 6.4100	 4.7410
 6.4180	 4.5710
 6.4260	 4.7070
 6.4330	 4.7980
 6.4410	 4.7090
 6.4490	 4.8190
 6.4580	 4.7990
 6.4660	 4.8190
 6.4740	 4.7610
 6.4820	 4.7570
 6.4900	 4.6120
 6.4980	 4.6790
 6.5060	 4.7930
 6.5140	 4.8530
 6.5230	 4.7020
 6.5310	 4.7420
 6.5390	 4.6620
 6.5470	 4.7280
 6.5550	 4.6290
 6.5640	 4.6520
 6.5720	 4.5200
 6.5800	 4.5760
 6.5890	 4.5990
 6.5970	 4.6850
 6.6060	 4.7830
 6.6140	 4.8440
 6.6220	 4.6490
 6.6310	 4.6060
 6.6390	 4.3680
 6.6480	 4.4560
 6.6560	 4.5570
 6.6650	 4.5600
 6.6740	 4.4410
 6.6820	 4.5340
 6.6910	 4.6390
 6.6990	 4.6850
 6.7080	 4.4320
 6.7170	 4.4200
 6.7260	 4.3340
 6.7340	 4.4010
 6.7430	 4.3670
 6.7520	 4.2810
 6.7610	 4.0790
 6.7690	 4.0240
 6.7780	 3.9410
 6.7870	 4.5650
 6.7960	 5.2910
 6.8050	 5.3080
 6.8140	 4.8480
 6.8230	 4.6740
 6.8320	 4.9460
 6.8410	 5.6800
 6.8500	 5.7730
 6.8590	 5.4820
 6.8680	 5.2210
 6.8770	 5.4070
 6.8860	 5.3700
 6.8950	 5.3190
 6.9050	 5.2170
 6.9140	 5.1620
 6.9230	 5.1860
 6.9320	 5.2980
 6.9420	 5.1480
 6.9510	 5.0680
 6.9600	 5.0190
 6.9700	 5.2440
 6.9790	 5.0450
 6.9880	 5.0680
 6.9980	 5.1840
 7.0070	 5.2410
 7.0170	 5.1780
 7.0260	 5.1620
 7.0360	 5.0310
 7.0450	 5.0470
 7.0550	 5.0460
 7.0650	 5.0870
 7.0740	 4.9470
 7.0840	 5.0290
 7.0940	 4.9320
 7.1030	 5.1400
 7.1130	 5.1830
 7.1230	 5.1940
 7.1330	 5.0650
 7.1420	 5.0610
 7.1520	 5.0730
 7.1620	 5.1950
 7.1720	 4.9700
 7.1820	 5.0410
 7.1920	 5.0690
 7.2020	 5.0780
 7.2120	 4.9840
 7.2220	 5.1710
 7.2320	 5.1450
 7.2420	 5.1540
 7.2520	 5.0290
 7.2620	 5.0680
 7.2730	 5.0930
 7.2830	 5.1550
 7.2930	 5.0090
 7.3030	 5.1120
 7.3140	 5.0460
 7.3240	 5.0750
 7.3340	 5.0560
 7.3450	 5.1280
 7.3550	 5.0560
 7.3660	 5.0340
 7.3760	 4.8810
 7.3870	 5.0040
 7.3970	 5.0060
 7.4080	 5.0590
 7.4180	 4.9590
 7.4290	 4.9910
 7.4400	 4.8970
 7.4500	 5.0160
 7.4610	 4.9360
 7.4720	 4.9960
 7.4830	 4.8920
 7.4930	 4.9260
 7.5040	 4.7750
 7.5150	 4.8320
 7.5260	 4.8820
 7.5370	 5.0230
 7.5480	 4.9720
 7.5590	 4.9250
 7.5700	 4.7600
 7.5810	 4.8810
 7.5920	 4.8550
 7.6030	 4.8330
 7.6140	 4.7730
 7.6260	 4.9300
 7.6370	 4.8890
 7.6480	 4.8560
 7.6590	 4.7420
 7.6710	 4.9170
 7.6820	 4.9130
 7.6930	 4.9650
 7.7050	 4.9280
 7.7160	 5.0260
 7.7280	 4.9830
 7.7390	 5.0030
 7.7510	 4.9450
 7.7630	 5.0680
 7.7740	 4.9360
 7.7860	 4.9530
 7.7980	 4.8860
 7.8090	 5.0170
 7.8210	 5.0990
 7.8330	 5.1360
 7.8450	 4.8840
 7.8570	 4.8060
 7.8690	 4.6820
 7.8810	 4.8150
 7.8930	 4.7050
 7.9050	 4.7060
 7.9170	 4.7320
 7.9290	 4.9600
 7.9410	 4.8640
 7.9530	 4.8250
 7.9650	 4.6410
 7.9780	 4.8310
 7.9900	 4.9020
 8.0020	 4.9660
 8.0150	 4.7820
 8.0270	 4.7750
 8.0390	 4.6370
 8.0520	 4.7250
 8.0640	 4.6220
 8.0770	 4.8230
 8.0900	 4.9340
 8.1020	 5.1140
 8.1150	 4.8730
 8.1280	 4.8520
 8.1400	 4.8750
 8.1530	 5.1200
 8.1660	 5.0230
 8.1790	 4.9470
 8.1920	 4.8250
 8.2050	 4.9350
 8.2180	 4.8120
 8.2310	 4.9890
 8.2440	 4.9130
 8.2570	 4.9310
 8.2700	 4.7770
 8.2830	 4.7410
 8.2970	 4.4840
 8.3100	 4.6330
 8.3230	 4.6920
 8.3370	 5.0320
 8.3500	 4.9150
 8.3640	 4.9560
 8.3770	 4.8280
 8.3910	 5.0110
 8.4040	 4.7910
 8.4180	 4.8680
 8.4320	 4.7890
 8.4450	 4.9480
 8.4590	 4.8860
 8.4730	 4.9480
 8.4870	 4.7790
 8.5010	 5.0140
 8.5150	 4.9640
 8.5290	 4.9700
 8.5430	 4.8340
 8.5570	 5.0850
 8.5710	 5.0380
 8.5850	 5.1190
 8.5990	 4.7430
 8.6140	 4.7190
 8.6280	 4.8170
 8.6420	 5.0960
 8.6570	 4.7420
 8.6710	 4.6120
 8.6860	 4.5490
 8.7000	 4.7190
 8.7150	 4.7440
 8.7300	 4.9950
 8.7440	 4.8130
 8.7590	 5.1030
 8.7740	 5.1390
 8.7890	 5.1010
 8.8040	 4.8370
 8.8190	 4.9910
 8.8340	 4.8410
 8.8490	 4.9700
 8.8640	 4.7210
 8.8790	 4.8310
 8.8940	 4.9200
 8.9100	 5.1250
 8.9250	 4.8420
 8.9400	 4.8400
 8.9560	 4.7770
 8.9710	 5.0590
 8.9870	 4.9380
 9.0020	 4.9780
 9.0180	 4.9640
 9.0340	 4.9560
 9.0500	 4.6980
 9.0650	 5.1260
 9.0810	 5.0240
 9.0970	 4.9850
 9.1130	 4.7950
 9.1290	 4.9440
 9.1450	 4.8240
 9.1610	 4.8950
 9.1780	 4.7960
 9.1940	 4.9370
 9.2100	 4.6910
 9.2270	 4.9010
 9.2430	 4.9450
 9.2600	 5.0380
 9.2760	 4.6820
 9.2930	 4.8480
 9.3090	 4.7800
 9.3260	 4.9230
 9.3430	 4.7920
 9.3600	 5.0020
 9.3770	 4.8770
 9.3940	 5.1230
 9.4110	 4.8630
 9.4280	 4.8200
 9.4450	 4.9040
 9.4620	 5.1890
 9.4800	 4.8920
 9.4970	 5.0640
 9.5140	 4.9580
 9.5320	 5.1030
 9.5500	 5.0730
 9.5670	 5.1530
 9.5850	 4.9120
 9.6030	 4.9290
 9.6200	 4.8320
 9.6380	 5.1800
 9.6560	 5.1280
 9.6740	 5.2020
 9.6920	 4.9780
 9.7100	 5.0560
 9.7290	 5.0000
 9.7470	 5.3160
 9.7650	 5.1820
 9.7840	 5.2250
 9.8020	 5.0030
 9.8210	 5.0800
 9.8390	 4.8630
 9.8580	 5.2090
 9.8770	 5.2060
 9.8960	 5.2020
 9.9150	 4.9950
 9.9340	 5.1780
 9.9530	 4.9740
 9.9720	 5.1760
 9.9910	 4.9800
10.0100	 5.1420
10.0300	 5.1070
10.0490	 5.1800
10.0690	 5.0500
10.0880	 5.1810
10.1080	 4.8820
10.1280	 4.8790
10.1480	 4.8140
10.1670	 4.9430
10.1870	 4.7560
10.2070	 5.0030
10.2280	 5.0070
10.2480	 5.1100
10.2680	 4.8490
10.2890	 4.8910
10.3090	 4.8300
10.3300	 5.0940
10.3500	 4.9060
10.3710	 4.9900
10.3920	 4.7720
10.4120	 4.7930
10.4330	 4.8610
10.4540	 5.1750
10.4760	 5.0710
10.4970	 5.2170
10.5180	 5.0220
10.5390	 5.0940
10.5610	 4.8030
10.5820	 4.7490
10.6040	 4.5520
10.6260	 4.6890
10.6480	 4.6040
10.6700	 4.8630
10.6920	 4.6560
10.7140	 4.8350
10.7360	 4.7020
10.7580	 4.8520
10.7800	 4.6740
10.8030	 4.8310
10.8250	 4.7080
10.8480	 4.9590
10.8710	 4.8110
10.8940	 4.8790
10.9170	 4.7590
10.9400	 4.9730
10.9630	 4.7300
10.9860	 4.7240
11.0090	 4.5610
11.0330	 4.9220
11.0560	 4.7460
11.0800	 4.8920
11.1040	 4.7610
11.1270	 4.8030
11.1510	 4.6850
11.1750	 5.0850
11.2000	 4.7300
11.2240	 4.7520
11.2480	 4.7690
11.2730	 4.7680
11.2970	 4.3160
11.3220	 4.5970
11.3470	 4.5820
11.3720	 4.8220
11.3970	 4.7690
11.4220	 4.8740
11.4470	 4.7860
11.4720	 5.1640
11.4980	 4.7430
11.5230	 4.7900
11.5490	 4.8060
11.5750	 5.0150
11.6000	 4.6320
11.6260	 4.8540
11.6530	 4.7440
11.6790	 4.8200
11.7050	 4.6670
11.7320	 4.9660
11.7580	 4.7030
11.7850	 4.8620
11.8120	 4.6940
11.8390	 4.8120
11.8660	 4.5820
11.8930	 4.8670
11.9200	 4.9830
11.9480	 5.2490
11.9760	 4.8520
12.0030	 4.9050
12.0310	 4.5480
12.0590	 4.5700
12.0870	 4.2270
12.1150	 4.6280
12.1440	 4.8220
12.1720	 5.2390
12.2010	 4.9070
12.2300	 5.0050
12.2590	 4.5560
12.2880	 4.7430
12.3170	 4.4470
12.3460	 4.6550
12.3760	 4.6560
12.4050	 4.9960
12.4350	 4.5640
12.4650	 4.6380
12.4950	 4.2750
12.5250	 4.5190
12.5550	 4.3780
12.5860	 4.8390
12.6170	 4.7160
12.6470	 4.8360
12.6780	 4.5380
12.7090	 4.7610
12.7410	 4.4910
12.7720	 4.5420
12.8030	 4.1080
12.8350	 4.6240
12.8670	 4.8110
12.8990	 4.9610
12.9310	 4.3760
12.9640	 4.5940
12.9960	 4.4840
13.0290	 5.0600
13.0610	 4.8230
13.0940	 4.8870
13.1280	 4.5610
13.1610	 4.8680
13.1940	 4.7360
13.2280	 5.0530
13.2620	 4.6180
13.2960	 4.6650
13.3300	 4.1760
13.3640	 4.5210
13.3990	 4.3220
13.4340	 4.8640
13.4690	 4.7280
13.5040	 4.7670
13.5390	 4.4260
13.5740	 4.6110
13.6100	 3.8710
13.6460	 4.1500
13.6820	 4.6710
13.7180	 5.2750
13.7540	 4.1350
13.7910	 4.2350
13.8280	 4.2440
13.8650	 4.7680
13.9020	 5.5300
13.9390	 6.4060
13.9770	 5.6080
14.0150	 5.4280
14.0530	 4.7440
14.0910	 4.9780
14.1290	 4.7540
14.1680	 5.0940
14.2070	 4.8950
14.2460	 5.2660
14.2850	 4.8290
14.3240	 5.2640
14.3640	 4.8250
14.4040	 5.2170
14.4440	 4.7090
14.4840	 4.8480
14.5250	 4.4180
14.5660	 5.2950
14.6070	 4.8720
14.6480	 5.0650
14.6900	 4.5480
14.7310	 5.3120
14.7730	 5.1390
14.8150	 5.3870
14.8580	 4.3360
14.9010	 4.5560
14.9440	 3.5840
14.9870	 5.1360
15.0300	 4.7260
15.0740	 4.9610
15.1180	 4.1400
15.1620	 4.9550
15.2060	 4.5670
15.2510	 5.0470
15.2960	 3.8620
15.3410	 4.5910
15.3870	 4.2440
