Name: Baccharis pilularis 1
Type: vegetation
Class: Shrub
Genus: Baccharis
Species: pilularis
Sample No.: VH110
Owner: UCSB
Wavelength Range: VSWIR
Origin: 34.5084; -119.7687; WGS84
Collection Date: 6/3/2013
Description: Samples were collected as part of the HyspIRI Airborne Campaign. 48 individual plants were sampled in three times in 2013 - spring  summer  and fall. The name of the sample includes a 1  2  or 3 which references a different individual of the species. Samples were taken to JPL and processed within 48 hours of collection. The same leaves were processed in the Nicolet and then measured using the ASD.
Measurement: Bidirectional reflectance
First Column: X
Second Column: Y
X Units: Wavelength (micrometers)
Y Units: Reflectance (percentage)
First X Value: 0.35
Last X Value: 2.5
Number of X Values: 2151
Additional Information: vegetation.shrub.baccharis.pilularis.vswir.vh110.ucsb.asd.ancillary.txt

 0.3500	 5.9140
 0.3510	 5.8480
 0.3520	 5.6100
 0.3530	 5.4850
 0.3540	 5.6230
 0.3550	 5.5820
 0.3560	 5.6210
 0.3570	 5.7320
 0.3580	 5.7690
 0.3590	 5.6420
 0.3600	 5.5140
 0.3610	 5.4920
 0.3620	 5.5780
 0.3630	 5.6120
 0.3640	 5.5570
 0.3650	 5.4630
 0.3660	 5.5360
 0.3670	 5.5950
 0.3680	 5.5480
 0.3690	 5.3990
 0.3700	 5.4880
 0.3710	 5.6160
 0.3720	 5.6090
 0.3730	 5.4550
 0.3740	 5.4370
 0.3750	 5.5050
 0.3760	 5.5240
 0.3770	 5.5710
 0.3780	 5.5840
 0.3790	 5.5300
 0.3800	 5.4100
 0.3810	 5.4760
 0.3820	 5.6160
 0.3830	 5.7030
 0.3840	 5.7150
 0.3850	 5.6290
 0.3860	 5.5570
 0.3870	 5.6110
 0.3880	 5.6120
 0.3890	 5.6490
 0.3900	 5.7240
 0.3910	 5.7380
 0.3920	 5.6700
 0.3930	 5.6260
 0.3940	 5.6720
 0.3950	 5.7270
 0.3960	 5.7400
 0.3970	 5.7260
 0.3980	 5.7260
 0.3990	 5.7420
 0.4000	 5.7590
 0.4010	 5.7730
 0.4020	 5.7970
 0.4030	 5.8000
 0.4040	 5.8120
 0.4050	 5.8500
 0.4060	 5.8420
 0.4070	 5.8350
 0.4080	 5.8480
 0.4090	 5.8790
 0.4100	 5.8960
 0.4110	 5.8990
 0.4120	 5.8990
 0.4130	 5.9190
 0.4140	 5.9370
 0.4150	 5.9380
 0.4160	 5.9260
 0.4170	 5.9760
 0.4180	 6.0130
 0.4190	 6.0240
 0.4200	 6.0540
 0.4210	 6.0820
 0.4220	 6.0970
 0.4230	 6.1010
 0.4240	 6.1220
 0.4250	 6.1430
 0.4260	 6.1620
 0.4270	 6.1800
 0.4280	 6.1740
 0.4290	 6.1800
 0.4300	 6.2080
 0.4310	 6.2190
 0.4320	 6.2310
 0.4330	 6.2430
 0.4340	 6.2550
 0.4350	 6.2790
 0.4360	 6.2840
 0.4370	 6.2750
 0.4380	 6.2890
 0.4390	 6.3050
 0.4400	 6.3160
 0.4410	 6.3240
 0.4420	 6.3410
 0.4430	 6.3630
 0.4440	 6.3800
 0.4450	 6.3830
 0.4460	 6.3920
 0.4470	 6.4070
 0.4480	 6.4250
 0.4490	 6.4390
 0.4500	 6.4590
 0.4510	 6.4750
 0.4520	 6.4800
 0.4530	 6.4720
 0.4540	 6.4770
 0.4550	 6.4950
 0.4560	 6.5100
 0.4570	 6.5180
 0.4580	 6.5210
 0.4590	 6.5250
 0.4600	 6.5310
 0.4610	 6.5410
 0.4620	 6.5570
 0.4630	 6.5750
 0.4640	 6.5730
 0.4650	 6.5740
 0.4660	 6.5810
 0.4670	 6.5790
 0.4680	 6.5800
 0.4690	 6.5780
 0.4700	 6.5730
 0.4710	 6.5930
 0.4720	 6.6030
 0.4730	 6.6010
 0.4740	 6.6030
 0.4750	 6.6060
 0.4760	 6.6150
 0.4770	 6.6270
 0.4780	 6.6100
 0.4790	 6.6090
 0.4800	 6.6200
 0.4810	 6.6240
 0.4820	 6.6270
 0.4830	 6.6370
 0.4840	 6.6480
 0.4850	 6.6450
 0.4860	 6.6490
 0.4870	 6.6570
 0.4880	 6.6650
 0.4890	 6.6830
 0.4900	 6.6980
 0.4910	 6.7080
 0.4920	 6.7170
 0.4930	 6.7330
 0.4940	 6.7430
 0.4950	 6.7510
 0.4960	 6.7810
 0.4970	 6.8070
 0.4980	 6.8290
 0.4990	 6.8530
 0.5000	 6.8830
 0.5010	 6.9170
 0.5020	 6.9540
 0.5030	 6.9950
 0.5040	 7.0390
 0.5050	 7.0910
 0.5060	 7.1550
 0.5070	 7.2270
 0.5080	 7.3050
 0.5090	 7.3880
 0.5100	 7.4780
 0.5110	 7.5850
 0.5120	 7.7050
 0.5130	 7.8350
 0.5140	 7.9720
 0.5150	 8.1370
 0.5160	 8.3190
 0.5170	 8.5080
 0.5180	 8.7090
 0.5190	 8.9180
 0.5200	 9.1380
 0.5210	 9.3760
 0.5220	 9.6080
 0.5230	 9.8410
 0.5240	10.0810
 0.5250	10.3270
 0.5260	10.5620
 0.5270	10.7840
 0.5280	10.9960
 0.5290	11.1940
 0.5300	11.3810
 0.5310	11.5590
 0.5320	11.7210
 0.5330	11.8770
 0.5340	12.0210
 0.5350	12.1480
 0.5360	12.2620
 0.5370	12.3650
 0.5380	12.4600
 0.5390	12.5510
 0.5400	12.6350
 0.5410	12.7150
 0.5420	12.7920
 0.5430	12.8630
 0.5440	12.9320
 0.5450	13.0000
 0.5460	13.0640
 0.5470	13.1150
 0.5480	13.1630
 0.5490	13.2090
 0.5500	13.2440
 0.5510	13.2730
 0.5520	13.2880
 0.5530	13.2820
 0.5540	13.2680
 0.5550	13.2350
 0.5560	13.1840
 0.5570	13.1230
 0.5580	13.0470
 0.5590	12.9590
 0.5600	12.8610
 0.5610	12.7520
 0.5620	12.6380
 0.5630	12.5200
 0.5640	12.3910
 0.5650	12.2530
 0.5660	12.1060
 0.5670	11.9510
 0.5680	11.7900
 0.5690	11.6260
 0.5700	11.4620
 0.5710	11.3000
 0.5720	11.1400
 0.5730	10.9880
 0.5740	10.8480
 0.5750	10.7230
 0.5760	10.6040
 0.5770	10.4920
 0.5780	10.3870
 0.5790	10.2850
 0.5800	10.1880
 0.5810	10.1020
 0.5820	10.0290
 0.5830	 9.9560
 0.5840	 9.8870
 0.5850	 9.8230
 0.5860	 9.7560
 0.5870	 9.6930
 0.5880	 9.6350
 0.5890	 9.5830
 0.5900	 9.5480
 0.5910	 9.5290
 0.5920	 9.5160
 0.5930	 9.4960
 0.5940	 9.4710
 0.5950	 9.4470
 0.5960	 9.4270
 0.5970	 9.4020
 0.5980	 9.3730
 0.5990	 9.3410
 0.6000	 9.3070
 0.6010	 9.2700
 0.6020	 9.2270
 0.6030	 9.1800
 0.6040	 9.1310
 0.6050	 9.0750
 0.6060	 9.0110
 0.6070	 8.9410
 0.6080	 8.8700
 0.6090	 8.7970
 0.6100	 8.7230
 0.6110	 8.6520
 0.6120	 8.5810
 0.6130	 8.5100
 0.6140	 8.4390
 0.6150	 8.3700
 0.6160	 8.3100
 0.6170	 8.2550
 0.6180	 8.2030
 0.6190	 8.1590
 0.6200	 8.1190
 0.6210	 8.0820
 0.6220	 8.0480
 0.6230	 8.0210
 0.6240	 7.9980
 0.6250	 7.9800
 0.6260	 7.9630
 0.6270	 7.9500
 0.6280	 7.9410
 0.6290	 7.9340
 0.6300	 7.9280
 0.6310	 7.9210
 0.6320	 7.9130
 0.6330	 7.9050
 0.6340	 7.8940
 0.6350	 7.8770
 0.6360	 7.8540
 0.6370	 7.8270
 0.6380	 7.7930
 0.6390	 7.7530
 0.6400	 7.7090
 0.6410	 7.6650
 0.6420	 7.6170
 0.6430	 7.5630
 0.6440	 7.5050
 0.6450	 7.4490
 0.6460	 7.3950
 0.6470	 7.3410
 0.6480	 7.2920
 0.6490	 7.2450
 0.6500	 7.2020
 0.6510	 7.1670
 0.6520	 7.1320
 0.6530	 7.0970
 0.6540	 7.0640
 0.6550	 7.0320
 0.6560	 6.9960
 0.6570	 6.9590
 0.6580	 6.9240
 0.6590	 6.8900
 0.6600	 6.8560
 0.6610	 6.8200
 0.6620	 6.7900
 0.6630	 6.7630
 0.6640	 6.7410
 0.6650	 6.7240
 0.6660	 6.7120
 0.6670	 6.7030
 0.6680	 6.6980
 0.6690	 6.6970
 0.6700	 6.6970
 0.6710	 6.7010
 0.6720	 6.7100
 0.6730	 6.7210
 0.6740	 6.7330
 0.6750	 6.7460
 0.6760	 6.7630
 0.6770	 6.7800
 0.6780	 6.8030
 0.6790	 6.8300
 0.6800	 6.8570
 0.6810	 6.8860
 0.6820	 6.9200
 0.6830	 6.9600
 0.6840	 7.0050
 0.6850	 7.0620
 0.6860	 7.1320
 0.6870	 7.2140
 0.6880	 7.3190
 0.6890	 7.4550
 0.6900	 7.6290
 0.6910	 7.8470
 0.6920	 8.1250
 0.6930	 8.4690
 0.6940	 8.8870
 0.6950	 9.3870
 0.6960	 9.9660
 0.6970	10.6280
 0.6980	11.3760
 0.6990	12.2030
 0.7000	13.0960
 0.7010	14.0490
 0.7020	15.0610
 0.7030	16.1110
 0.7040	17.1880
 0.7050	18.2820
 0.7060	19.3890
 0.7070	20.4970
 0.7080	21.6020
 0.7090	22.7060
 0.7100	23.7980
 0.7110	24.8740
 0.7120	25.9360
 0.7130	26.9840
 0.7140	28.0040
 0.7150	29.0000
 0.7160	29.9740
 0.7170	30.9190
 0.7180	31.8360
 0.7190	32.7230
 0.7200	33.5780
 0.7210	34.3990
 0.7220	35.1920
 0.7230	35.9550
 0.7240	36.6770
 0.7250	37.3650
 0.7260	38.0210
 0.7270	38.6440
 0.7280	39.2330
 0.7290	39.7840
 0.7300	40.3020
 0.7310	40.7930
 0.7320	41.2540
 0.7330	41.6840
 0.7340	42.0880
 0.7350	42.4710
 0.7360	42.8250
 0.7370	43.1550
 0.7380	43.4680
 0.7390	43.7570
 0.7400	44.0240
 0.7410	44.2730
 0.7420	44.5060
 0.7430	44.7220
 0.7440	44.9230
 0.7450	45.1100
 0.7460	45.2780
 0.7470	45.4350
 0.7480	45.5800
 0.7490	45.7110
 0.7500	45.8350
 0.7510	45.9500
 0.7520	46.0520
 0.7530	46.1430
 0.7540	46.2290
 0.7550	46.3090
 0.7560	46.3810
 0.7570	46.4470
 0.7580	46.5090
 0.7590	46.5650
 0.7600	46.6160
 0.7610	46.6640
 0.7620	46.7100
 0.7630	46.7490
 0.7640	46.7810
 0.7650	46.8210
 0.7660	46.8570
 0.7670	46.8850
 0.7680	46.9130
 0.7690	46.9390
 0.7700	46.9640
 0.7710	46.9870
 0.7720	47.0120
 0.7730	47.0310
 0.7740	47.0500
 0.7750	47.0720
 0.7760	47.0880
 0.7770	47.1090
 0.7780	47.1310
 0.7790	47.1480
 0.7800	47.1660
 0.7810	47.1860
 0.7820	47.2070
 0.7830	47.2220
 0.7840	47.2320
 0.7850	47.2450
 0.7860	47.2670
 0.7870	47.2840
 0.7880	47.2950
 0.7890	47.3060
 0.7900	47.3190
 0.7910	47.3340
 0.7920	47.3450
 0.7930	47.3540
 0.7940	47.3640
 0.7950	47.3770
 0.7960	47.3890
 0.7970	47.3960
 0.7980	47.4040
 0.7990	47.4080
 0.8000	47.4130
 0.8010	47.4190
 0.8020	47.4180
 0.8030	47.4220
 0.8040	47.4300
 0.8050	47.4340
 0.8060	47.4300
 0.8070	47.4280
 0.8080	47.4290
 0.8090	47.4290
 0.8100	47.4270
 0.8110	47.4240
 0.8120	47.4240
 0.8130	47.4250
 0.8140	47.4220
 0.8150	47.4150
 0.8160	47.4080
 0.8170	47.4060
 0.8180	47.4020
 0.8190	47.3980
 0.8200	47.3930
 0.8210	47.3900
 0.8220	47.3840
 0.8230	47.3730
 0.8240	47.3650
 0.8250	47.3500
 0.8260	47.3420
 0.8270	47.3440
 0.8280	47.3310
 0.8290	47.3210
 0.8300	47.3120
 0.8310	47.3030
 0.8320	47.2920
 0.8330	47.2870
 0.8340	47.2830
 0.8350	47.2710
 0.8360	47.2590
 0.8370	47.2550
 0.8380	47.2560
 0.8390	47.2490
 0.8400	47.2460
 0.8410	47.2440
 0.8420	47.2420
 0.8430	47.2440
 0.8440	47.2410
 0.8450	47.2380
 0.8460	47.2390
 0.8470	47.2390
 0.8480	47.2360
 0.8490	47.2330
 0.8500	47.2320
 0.8510	47.2330
 0.8520	47.2350
 0.8530	47.2380
 0.8540	47.2420
 0.8550	47.2470
 0.8560	47.2480
 0.8570	47.2470
 0.8580	47.2520
 0.8590	47.2610
 0.8600	47.2620
 0.8610	47.2560
 0.8620	47.2610
 0.8630	47.2650
 0.8640	47.2670
 0.8650	47.2680
 0.8660	47.2720
 0.8670	47.2790
 0.8680	47.2860
 0.8690	47.2900
 0.8700	47.2920
 0.8710	47.2970
 0.8720	47.3060
 0.8730	47.3160
 0.8740	47.3200
 0.8750	47.3220
 0.8760	47.3280
 0.8770	47.3370
 0.8780	47.3490
 0.8790	47.3570
 0.8800	47.3600
 0.8810	47.3690
 0.8820	47.3810
 0.8830	47.3900
 0.8840	47.3910
 0.8850	47.3940
 0.8860	47.4050
 0.8870	47.4140
 0.8880	47.4150
 0.8890	47.4200
 0.8900	47.4280
 0.8910	47.4370
 0.8920	47.4420
 0.8930	47.4440
 0.8940	47.4500
 0.8950	47.4560
 0.8960	47.4570
 0.8970	47.4610
 0.8980	47.4690
 0.8990	47.4770
 0.9000	47.4720
 0.9010	47.4790
 0.9020	47.4870
 0.9030	47.4910
 0.9040	47.4960
 0.9050	47.5020
 0.9060	47.5080
 0.9070	47.5130
 0.9080	47.5150
 0.9090	47.5170
 0.9100	47.5240
 0.9110	47.5320
 0.9120	47.5320
 0.9130	47.5390
 0.9140	47.5460
 0.9150	47.5430
 0.9160	47.5400
 0.9170	47.5390
 0.9180	47.5390
 0.9190	47.5390
 0.9200	47.5390
 0.9210	47.5370
 0.9220	47.5320
 0.9230	47.5230
 0.9240	47.5170
 0.9250	47.5070
 0.9260	47.4960
 0.9270	47.4900
 0.9280	47.4870
 0.9290	47.4710
 0.9300	47.4460
 0.9310	47.4350
 0.9320	47.4160
 0.9330	47.3940
 0.9340	47.3730
 0.9350	47.3540
 0.9360	47.3300
 0.9370	47.3070
 0.9380	47.2860
 0.9390	47.2590
 0.9400	47.2370
 0.9410	47.2150
 0.9420	47.1850
 0.9430	47.1400
 0.9440	47.1040
 0.9450	47.0700
 0.9460	47.0330
 0.9470	46.9980
 0.9480	46.9430
 0.9490	46.8820
 0.9500	46.8260
 0.9510	46.7570
 0.9520	46.6920
 0.9530	46.6270
 0.9540	46.5590
 0.9550	46.4870
 0.9560	46.4140
 0.9570	46.3430
 0.9580	46.2790
 0.9590	46.2180
 0.9600	46.1590
 0.9610	46.1050
 0.9620	46.0590
 0.9630	46.0130
 0.9640	45.9710
 0.9650	45.9380
 0.9660	45.9140
 0.9670	45.8830
 0.9680	45.8690
 0.9690	45.8600
 0.9700	45.8370
 0.9710	45.8210
 0.9720	45.8070
 0.9730	45.7910
 0.9740	45.7730
 0.9750	45.7720
 0.9760	45.7780
 0.9770	45.7730
 0.9780	45.7470
 0.9790	45.7580
 0.9800	45.7680
 0.9810	45.7690
 0.9820	45.7700
 0.9830	45.7860
 0.9840	45.8060
 0.9850	45.8220
 0.9860	45.8330
 0.9870	45.8390
 0.9880	45.8530
 0.9890	45.8760
 0.9900	45.9010
 0.9910	45.9220
 0.9920	46.0040
 0.9930	46.0860
 0.9940	46.1680
 0.9950	46.2490
 0.9960	46.3310
 0.9970	46.4130
 0.9980	46.4950
 0.9990	46.5770
 1.0000	46.6590
 1.0010	46.7410
 1.0020	46.8220
 1.0030	46.9040
 1.0040	46.9860
 1.0050	47.0680
 1.0060	47.1500
 1.0070	47.2320
 1.0080	47.3130
 1.0090	47.3950
 1.0100	47.3950
 1.0110	47.4240
 1.0120	47.4460
 1.0130	47.4620
 1.0140	47.4850
 1.0150	47.5090
 1.0160	47.5290
 1.0170	47.5550
 1.0180	47.5780
 1.0190	47.6000
 1.0200	47.6230
 1.0210	47.6410
 1.0220	47.6650
 1.0230	47.6870
 1.0240	47.7080
 1.0250	47.7290
 1.0260	47.7530
 1.0270	47.7750
 1.0280	47.7970
 1.0290	47.8170
 1.0300	47.8320
 1.0310	47.8520
 1.0320	47.8730
 1.0330	47.8920
 1.0340	47.9180
 1.0350	47.9410
 1.0360	47.9550
 1.0370	47.9650
 1.0380	47.9810
 1.0390	47.9960
 1.0400	48.0130
 1.0410	48.0380
 1.0420	48.0560
 1.0430	48.0660
 1.0440	48.0810
 1.0450	48.0960
 1.0460	48.1120
 1.0470	48.1330
 1.0480	48.1480
 1.0490	48.1590
 1.0500	48.1720
 1.0510	48.1820
 1.0520	48.1910
 1.0530	48.2000
 1.0540	48.2100
 1.0550	48.2190
 1.0560	48.2270
 1.0570	48.2340
 1.0580	48.2400
 1.0590	48.2460
 1.0600	48.2490
 1.0610	48.2550
 1.0620	48.2650
 1.0630	48.2710
 1.0640	48.2790
 1.0650	48.2850
 1.0660	48.2890
 1.0670	48.2910
 1.0680	48.2930
 1.0690	48.2960
 1.0700	48.2960
 1.0710	48.2930
 1.0720	48.2910
 1.0730	48.2900
 1.0740	48.2860
 1.0750	48.2790
 1.0760	48.2740
 1.0770	48.2670
 1.0780	48.2640
 1.0790	48.2660
 1.0800	48.2630
 1.0810	48.2590
 1.0820	48.2550
 1.0830	48.2510
 1.0840	48.2470
 1.0850	48.2450
 1.0860	48.2400
 1.0870	48.2330
 1.0880	48.2220
 1.0890	48.2130
 1.0900	48.2030
 1.0910	48.1930
 1.0920	48.1820
 1.0930	48.1720
 1.0940	48.1620
 1.0950	48.1510
 1.0960	48.1430
 1.0970	48.1300
 1.0980	48.1090
 1.0990	48.0950
 1.1000	48.0850
 1.1010	48.0730
 1.1020	48.0630
 1.1030	48.0530
 1.1040	48.0370
 1.1050	48.0170
 1.1060	48.0000
 1.1070	47.9840
 1.1080	47.9670
 1.1090	47.9510
 1.1100	47.9330
 1.1110	47.9120
 1.1120	47.8900
 1.1130	47.8680
 1.1140	47.8440
 1.1150	47.8210
 1.1160	47.7950
 1.1170	47.7680
 1.1180	47.7360
 1.1190	47.7010
 1.1200	47.6610
 1.1210	47.6190
 1.1220	47.5710
 1.1230	47.5210
 1.1240	47.4690
 1.1250	47.4120
 1.1260	47.3540
 1.1270	47.2850
 1.1280	47.2110
 1.1290	47.1290
 1.1300	47.0400
 1.1310	46.9440
 1.1320	46.8440
 1.1330	46.7350
 1.1340	46.6160
 1.1350	46.4910
 1.1360	46.3570
 1.1370	46.2170
 1.1380	46.0710
 1.1390	45.9210
 1.1400	45.7650
 1.1410	45.6080
 1.1420	45.4470
 1.1430	45.2820
 1.1440	45.1190
 1.1450	44.9530
 1.1460	44.7950
 1.1470	44.6370
 1.1480	44.4870
 1.1490	44.3400
 1.1500	44.2020
 1.1510	44.0660
 1.1520	43.9430
 1.1530	43.8280
 1.1540	43.7230
 1.1550	43.6250
 1.1560	43.5400
 1.1570	43.4610
 1.1580	43.3900
 1.1590	43.3290
 1.1600	43.2750
 1.1610	43.2290
 1.1620	43.1910
 1.1630	43.1580
 1.1640	43.1280
 1.1650	43.1020
 1.1660	43.0830
 1.1670	43.0640
 1.1680	43.0490
 1.1690	43.0330
 1.1700	43.0190
 1.1710	43.0060
 1.1720	42.9960
 1.1730	42.9830
 1.1740	42.9680
 1.1750	42.9520
 1.1760	42.9370
 1.1770	42.9220
 1.1780	42.9060
 1.1790	42.8900
 1.1800	42.8710
 1.1810	42.8490
 1.1820	42.8290
 1.1830	42.8090
 1.1840	42.7880
 1.1850	42.7670
 1.1860	42.7500
 1.1870	42.7330
 1.1880	42.7150
 1.1890	42.6960
 1.1900	42.6800
 1.1910	42.6630
 1.1920	42.6500
 1.1930	42.6390
 1.1940	42.6310
 1.1950	42.6240
 1.1960	42.6190
 1.1970	42.6180
 1.1980	42.6170
 1.1990	42.6180
 1.2000	42.6210
 1.2010	42.6250
 1.2020	42.6330
 1.2030	42.6440
 1.2040	42.6570
 1.2050	42.6730
 1.2060	42.6900
 1.2070	42.7080
 1.2080	42.7290
 1.2090	42.7530
 1.2100	42.7810
 1.2110	42.8110
 1.2120	42.8450
 1.2130	42.8790
 1.2140	42.9130
 1.2150	42.9490
 1.2160	42.9860
 1.2170	43.0240
 1.2180	43.0620
 1.2190	43.1030
 1.2200	43.1460
 1.2210	43.1880
 1.2220	43.2320
 1.2230	43.2760
 1.2240	43.3190
 1.2250	43.3620
 1.2260	43.4030
 1.2270	43.4410
 1.2280	43.4770
 1.2290	43.5120
 1.2300	43.5470
 1.2310	43.5810
 1.2320	43.6140
 1.2330	43.6460
 1.2340	43.6760
 1.2350	43.7040
 1.2360	43.7320
 1.2370	43.7590
 1.2380	43.7850
 1.2390	43.8110
 1.2400	43.8370
 1.2410	43.8610
 1.2420	43.8840
 1.2430	43.9060
 1.2440	43.9260
 1.2450	43.9460
 1.2460	43.9640
 1.2470	43.9820
 1.2480	43.9990
 1.2490	44.0160
 1.2500	44.0320
 1.2510	44.0450
 1.2520	44.0580
 1.2530	44.0700
 1.2540	44.0790
 1.2550	44.0880
 1.2560	44.0970
 1.2570	44.1040
 1.2580	44.1080
 1.2590	44.1130
 1.2600	44.1180
 1.2610	44.1220
 1.2620	44.1250
 1.2630	44.1280
 1.2640	44.1270
 1.2650	44.1250
 1.2660	44.1220
 1.2670	44.1190
 1.2680	44.1170
 1.2690	44.1120
 1.2700	44.1070
 1.2710	44.0990
 1.2720	44.0910
 1.2730	44.0830
 1.2740	44.0740
 1.2750	44.0670
 1.2760	44.0580
 1.2770	44.0450
 1.2780	44.0310
 1.2790	44.0150
 1.2800	43.9960
 1.2810	43.9760
 1.2820	43.9540
 1.2830	43.9320
 1.2840	43.9090
 1.2850	43.8840
 1.2860	43.8580
 1.2870	43.8290
 1.2880	43.7970
 1.2890	43.7610
 1.2900	43.7240
 1.2910	43.6850
 1.2920	43.6420
 1.2930	43.5990
 1.2940	43.5530
 1.2950	43.5030
 1.2960	43.4530
 1.2970	43.4010
 1.2980	43.3460
 1.2990	43.2870
 1.3000	43.2230
 1.3010	43.1580
 1.3020	43.0910
 1.3030	43.0200
 1.3040	42.9480
 1.3050	42.8720
 1.3060	42.7910
 1.3070	42.7080
 1.3080	42.6250
 1.3090	42.5360
 1.3100	42.4430
 1.3110	42.3480
 1.3120	42.2500
 1.3130	42.1490
 1.3140	42.0430
 1.3150	41.9330
 1.3160	41.8200
 1.3170	41.7040
 1.3180	41.5840
 1.3190	41.4620
 1.3200	41.3380
 1.3210	41.2060
 1.3220	41.0730
 1.3230	40.9360
 1.3240	40.7920
 1.3250	40.6470
 1.3260	40.4990
 1.3270	40.3480
 1.3280	40.1990
 1.3290	40.0450
 1.3300	39.8890
 1.3310	39.7300
 1.3320	39.5660
 1.3330	39.4030
 1.3340	39.2380
 1.3350	39.0720
 1.3360	38.9050
 1.3370	38.7380
 1.3380	38.5720
 1.3390	38.4060
 1.3400	38.2390
 1.3410	38.0750
 1.3420	37.9120
 1.3430	37.7490
 1.3440	37.5860
 1.3450	37.4250
 1.3460	37.2630
 1.3470	37.1040
 1.3480	36.9490
 1.3490	36.7930
 1.3500	36.6400
 1.3510	36.4850
 1.3520	36.3300
 1.3530	36.1780
 1.3540	36.0240
 1.3550	35.8720
 1.3560	35.7190
 1.3570	35.5620
 1.3580	35.4040
 1.3590	35.2460
 1.3600	35.0830
 1.3610	34.9200
 1.3620	34.7520
 1.3630	34.5780
 1.3640	34.3960
 1.3650	34.2070
 1.3660	34.0120
 1.3670	33.8080
 1.3680	33.5920
 1.3690	33.3660
 1.3700	33.1220
 1.3710	32.8660
 1.3720	32.5970
 1.3730	32.3080
 1.3740	32.0070
 1.3750	31.6860
 1.3760	31.3420
 1.3770	30.9780
 1.3780	30.5850
 1.3790	30.1730
 1.3800	29.7410
 1.3810	29.2830
 1.3820	28.8080
 1.3830	28.3150
 1.3840	27.8050
 1.3850	27.2750
 1.3860	26.7360
 1.3870	26.1790
 1.3880	25.6220
 1.3890	25.0560
 1.3900	24.4820
 1.3910	23.9120
 1.3920	23.3390
 1.3930	22.7630
 1.3940	22.1960
 1.3950	21.6310
 1.3960	21.0760
 1.3970	20.5360
 1.3980	20.0080
 1.3990	19.5050
 1.4000	19.0180
 1.4010	18.5470
 1.4020	18.0990
 1.4030	17.6690
 1.4040	17.2590
 1.4050	16.8760
 1.4060	16.5140
 1.4070	16.1770
 1.4080	15.8630
 1.4090	15.5690
 1.4100	15.2960
 1.4110	15.0420
 1.4120	14.8080
 1.4130	14.5930
 1.4140	14.3960
 1.4150	14.2180
 1.4160	14.0550
 1.4170	13.9050
 1.4180	13.7690
 1.4190	13.6450
 1.4200	13.5320
 1.4210	13.4320
 1.4220	13.3420
 1.4230	13.2630
 1.4240	13.1930
 1.4250	13.1290
 1.4260	13.0740
 1.4270	13.0240
 1.4280	12.9830
 1.4290	12.9460
 1.4300	12.9160
 1.4310	12.8910
 1.4320	12.8720
 1.4330	12.8560
 1.4340	12.8470
 1.4350	12.8400
 1.4360	12.8370
 1.4370	12.8390
 1.4380	12.8420
 1.4390	12.8490
 1.4400	12.8590
 1.4410	12.8710
 1.4420	12.8840
 1.4430	12.9000
 1.4440	12.9180
 1.4450	12.9370
 1.4460	12.9570
 1.4470	12.9790
 1.4480	13.0000
 1.4490	13.0230
 1.4500	13.0470
 1.4510	13.0720
 1.4520	13.0980
 1.4530	13.1240
 1.4540	13.1500
 1.4550	13.1790
 1.4560	13.2090
 1.4570	13.2410
 1.4580	13.2750
 1.4590	13.3100
 1.4600	13.3480
 1.4610	13.3890
 1.4620	13.4340
 1.4630	13.4840
 1.4640	13.5370
 1.4650	13.5930
 1.4660	13.6530
 1.4670	13.7170
 1.4680	13.7850
 1.4690	13.8570
 1.4700	13.9340
 1.4710	14.0140
 1.4720	14.0970
 1.4730	14.1840
 1.4740	14.2740
 1.4750	14.3660
 1.4760	14.4610
 1.4770	14.5590
 1.4780	14.6600
 1.4790	14.7630
 1.4800	14.8660
 1.4810	14.9720
 1.4820	15.0780
 1.4830	15.1840
 1.4840	15.2930
 1.4850	15.4030
 1.4860	15.5130
 1.4870	15.6250
 1.4880	15.7360
 1.4890	15.8480
 1.4900	15.9620
 1.4910	16.0770
 1.4920	16.1910
 1.4930	16.3070
 1.4940	16.4210
 1.4950	16.5360
 1.4960	16.6510
 1.4970	16.7660
 1.4980	16.8820
 1.4990	16.9990
 1.5000	17.1150
 1.5010	17.2320
 1.5020	17.3490
 1.5030	17.4660
 1.5040	17.5820
 1.5050	17.6980
 1.5060	17.8150
 1.5070	17.9320
 1.5080	18.0490
 1.5090	18.1660
 1.5100	18.2810
 1.5110	18.3940
 1.5120	18.5090
 1.5130	18.6220
 1.5140	18.7360
 1.5150	18.8500
 1.5160	18.9620
 1.5170	19.0740
 1.5180	19.1860
 1.5190	19.2960
 1.5200	19.4060
 1.5210	19.5140
 1.5220	19.6210
 1.5230	19.7280
 1.5240	19.8320
 1.5250	19.9370
 1.5260	20.0420
 1.5270	20.1460
 1.5280	20.2490
 1.5290	20.3510
 1.5300	20.4530
 1.5310	20.5540
 1.5320	20.6530
 1.5330	20.7520
 1.5340	20.8490
 1.5350	20.9460
 1.5360	21.0440
 1.5370	21.1420
 1.5380	21.2380
 1.5390	21.3330
 1.5400	21.4270
 1.5410	21.5200
 1.5420	21.6110
 1.5430	21.7020
 1.5440	21.7920
 1.5450	21.8820
 1.5460	21.9710
 1.5470	22.0610
 1.5480	22.1490
 1.5490	22.2370
 1.5500	22.3260
 1.5510	22.4130
 1.5520	22.5000
 1.5530	22.5840
 1.5540	22.6680
 1.5550	22.7520
 1.5560	22.8340
 1.5570	22.9150
 1.5580	22.9960
 1.5590	23.0750
 1.5600	23.1540
 1.5610	23.2320
 1.5620	23.3090
 1.5630	23.3860
 1.5640	23.4620
 1.5650	23.5380
 1.5660	23.6130
 1.5670	23.6880
 1.5680	23.7620
 1.5690	23.8360
 1.5700	23.9080
 1.5710	23.9800
 1.5720	24.0510
 1.5730	24.1210
 1.5740	24.1900
 1.5750	24.2590
 1.5760	24.3300
 1.5770	24.4000
 1.5780	24.4690
 1.5790	24.5400
 1.5800	24.6090
 1.5810	24.6790
 1.5820	24.7490
 1.5830	24.8160
 1.5840	24.8820
 1.5850	24.9490
 1.5860	25.0150
 1.5870	25.0810
 1.5880	25.1460
 1.5890	25.2120
 1.5900	25.2780
 1.5910	25.3440
 1.5920	25.4090
 1.5930	25.4750
 1.5940	25.5390
 1.5950	25.6020
 1.5960	25.6660
 1.5970	25.7290
 1.5980	25.7930
 1.5990	25.8580
 1.6000	25.9210
 1.6010	25.9830
 1.6020	26.0430
 1.6030	26.1010
 1.6040	26.1610
 1.6050	26.2180
 1.6060	26.2770
 1.6070	26.3350
 1.6080	26.3910
 1.6090	26.4460
 1.6100	26.5010
 1.6110	26.5540
 1.6120	26.6070
 1.6130	26.6620
 1.6140	26.7150
 1.6150	26.7660
 1.6160	26.8170
 1.6170	26.8670
 1.6180	26.9140
 1.6190	26.9610
 1.6200	27.0070
 1.6210	27.0520
 1.6220	27.0950
 1.6230	27.1390
 1.6240	27.1840
 1.6250	27.2250
 1.6260	27.2660
 1.6270	27.3060
 1.6280	27.3420
 1.6290	27.3800
 1.6300	27.4180
 1.6310	27.4540
 1.6320	27.4900
 1.6330	27.5240
 1.6340	27.5570
 1.6350	27.5870
 1.6360	27.6170
 1.6370	27.6450
 1.6380	27.6710
 1.6390	27.6950
 1.6400	27.7200
 1.6410	27.7390
 1.6420	27.7550
 1.6430	27.7690
 1.6440	27.7810
 1.6450	27.7900
 1.6460	27.7950
 1.6470	27.7990
 1.6480	27.7990
 1.6490	27.7960
 1.6500	27.7890
 1.6510	27.7780
 1.6520	27.7650
 1.6530	27.7490
 1.6540	27.7300
 1.6550	27.7090
 1.6560	27.6850
 1.6570	27.6600
 1.6580	27.6340
 1.6590	27.6080
 1.6600	27.5810
 1.6610	27.5510
 1.6620	27.5210
 1.6630	27.4930
 1.6640	27.4660
 1.6650	27.4400
 1.6660	27.4170
 1.6670	27.3940
 1.6680	27.3710
 1.6690	27.3490
 1.6700	27.3290
 1.6710	27.3100
 1.6720	27.2920
 1.6730	27.2770
 1.6740	27.2610
 1.6750	27.2450
 1.6760	27.2280
 1.6770	27.2110
 1.6780	27.1940
 1.6790	27.1750
 1.6800	27.1560
 1.6810	27.1360
 1.6820	27.1130
 1.6830	27.0890
 1.6840	27.0630
 1.6850	27.0350
 1.6860	27.0060
 1.6870	26.9770
 1.6880	26.9470
 1.6890	26.9140
 1.6900	26.8790
 1.6910	26.8420
 1.6920	26.8030
 1.6930	26.7600
 1.6940	26.7160
 1.6950	26.6710
 1.6960	26.6220
 1.6970	26.5710
 1.6980	26.5170
 1.6990	26.4580
 1.7000	26.3990
 1.7010	26.3380
 1.7020	26.2780
 1.7030	26.2180
 1.7040	26.1560
 1.7050	26.0930
 1.7060	26.0290
 1.7070	25.9630
 1.7080	25.8980
 1.7090	25.8330
 1.7100	25.7700
 1.7110	25.7070
 1.7120	25.6450
 1.7130	25.5850
 1.7140	25.5240
 1.7150	25.4630
 1.7160	25.4030
 1.7170	25.3440
 1.7180	25.2850
 1.7190	25.2290
 1.7200	25.1760
 1.7210	25.1210
 1.7220	25.0680
 1.7230	25.0160
 1.7240	24.9640
 1.7250	24.9160
 1.7260	24.8700
 1.7270	24.8260
 1.7280	24.7890
 1.7290	24.7520
 1.7300	24.7200
 1.7310	24.6870
 1.7320	24.6570
 1.7330	24.6260
 1.7340	24.5960
 1.7350	24.5630
 1.7360	24.5280
 1.7370	24.4900
 1.7380	24.4470
 1.7390	24.4030
 1.7400	24.3580
 1.7410	24.3090
 1.7420	24.2580
 1.7430	24.2050
 1.7440	24.1500
 1.7450	24.0910
 1.7460	24.0290
 1.7470	23.9690
 1.7480	23.9050
 1.7490	23.8440
 1.7500	23.7840
 1.7510	23.7240
 1.7520	23.6640
 1.7530	23.6050
 1.7540	23.5460
 1.7550	23.4900
 1.7560	23.4370
 1.7570	23.3860
 1.7580	23.3380
 1.7590	23.2920
 1.7600	23.2460
 1.7610	23.2030
 1.7620	23.1610
 1.7630	23.1180
 1.7640	23.0780
 1.7650	23.0390
 1.7660	23.0030
 1.7670	22.9730
 1.7680	22.9410
 1.7690	22.9120
 1.7700	22.8820
 1.7710	22.8500
 1.7720	22.8190
 1.7730	22.7880
 1.7740	22.7580
 1.7750	22.7290
 1.7760	22.7010
 1.7770	22.6740
 1.7780	22.6480
 1.7790	22.6220
 1.7800	22.5970
 1.7810	22.5740
 1.7820	22.5500
 1.7830	22.5260
 1.7840	22.5060
 1.7850	22.4860
 1.7860	22.4690
 1.7870	22.4550
 1.7880	22.4390
 1.7890	22.4270
 1.7900	22.4160
 1.7910	22.4050
 1.7920	22.3930
 1.7930	22.3840
 1.7940	22.3770
 1.7950	22.3730
 1.7960	22.3760
 1.7970	22.3750
 1.7980	22.3760
 1.7990	22.3770
 1.8000	22.3750
 1.8010	22.3770
 1.8020	22.3840
 1.8030	22.3870
 1.8040	22.3930
 1.8050	22.3960
 1.8060	22.3960
 1.8070	22.3980
 1.8080	22.3990
 1.8090	22.4020
 1.8100	22.4050
 1.8110	22.4090
 1.8120	22.4130
 1.8130	22.4160
 1.8140	22.4170
 1.8150	22.4180
 1.8160	22.4200
 1.8170	22.4160
 1.8180	22.4120
 1.8190	22.4100
 1.8200	22.4070
 1.8210	22.4060
 1.8220	22.4030
 1.8230	22.3960
 1.8240	22.3890
 1.8250	22.3830
 1.8260	22.3740
 1.8270	22.3630
 1.8280	22.3520
 1.8290	22.3420
 1.8300	22.3310
 1.8310	22.3210
 1.8320	22.3100
 1.8330	22.3000
 1.8340	22.2890
 1.8350	22.2890
 1.8360	22.2520
 1.8370	22.2110
 1.8380	22.1630
 1.8390	22.1110
 1.8400	22.0550
 1.8410	21.9940
 1.8420	21.9290
 1.8430	21.8590
 1.8440	21.7800
 1.8450	21.6970
 1.8460	21.6070
 1.8470	21.5040
 1.8480	21.3960
 1.8490	21.2780
 1.8500	21.1490
 1.8510	21.0100
 1.8520	20.8640
 1.8530	20.7010
 1.8540	20.5290
 1.8550	20.3480
 1.8560	20.1530
 1.8570	19.9490
 1.8580	19.7360
 1.8590	19.5080
 1.8600	19.2650
 1.8610	19.0120
 1.8620	18.7470
 1.8630	18.4680
 1.8640	18.1770
 1.8650	17.8690
 1.8660	17.5450
 1.8670	17.2030
 1.8680	16.8490
 1.8690	16.4830
 1.8700	16.1030
 1.8710	15.7110
 1.8720	15.3150
 1.8730	14.9090
 1.8740	14.4960
 1.8750	14.0840
 1.8760	13.6670
 1.8770	13.2550
 1.8780	12.8520
 1.8790	12.4480
 1.8800	12.0540
 1.8810	11.6670
 1.8820	11.2870
 1.8830	10.9140
 1.8840	10.5550
 1.8850	10.2080
 1.8860	 9.8730
 1.8870	 9.5520
 1.8880	 9.2470
 1.8890	 8.9610
 1.8900	 8.6930
 1.8910	 8.4440
 1.8920	 8.2140
 1.8930	 8.0030
 1.8940	 7.8070
 1.8950	 7.6290
 1.8960	 7.4670
 1.8970	 7.3210
 1.8980	 7.1910
 1.8990	 7.0730
 1.9000	 6.9660
 1.9010	 6.8720
 1.9020	 6.7870
 1.9030	 6.7160
 1.9040	 6.6540
 1.9050	 6.6000
 1.9060	 6.5560
 1.9070	 6.5150
 1.9080	 6.4780
 1.9090	 6.4470
 1.9100	 6.4180
 1.9110	 6.3920
 1.9120	 6.3710
 1.9130	 6.3520
 1.9140	 6.3370
 1.9150	 6.3230
 1.9160	 6.3120
 1.9170	 6.3040
 1.9180	 6.2990
 1.9190	 6.2960
 1.9200	 6.2940
 1.9210	 6.2930
 1.9220	 6.2920
 1.9230	 6.2870
 1.9240	 6.2870
 1.9250	 6.2870
 1.9260	 6.2880
 1.9270	 6.2910
 1.9280	 6.2960
 1.9290	 6.3030
 1.9300	 6.3100
 1.9310	 6.3150
 1.9320	 6.3200
 1.9330	 6.3270
 1.9340	 6.3340
 1.9350	 6.3420
 1.9360	 6.3530
 1.9370	 6.3640
 1.9380	 6.3760
 1.9390	 6.3880
 1.9400	 6.4020
 1.9410	 6.4160
 1.9420	 6.4250
 1.9430	 6.4380
 1.9440	 6.4510
 1.9450	 6.4630
 1.9460	 6.4780
 1.9470	 6.4950
 1.9480	 6.5110
 1.9490	 6.5280
 1.9500	 6.5460
 1.9510	 6.5640
 1.9520	 6.5830
 1.9530	 6.6020
 1.9540	 6.6210
 1.9550	 6.6400
 1.9560	 6.6600
 1.9570	 6.6800
 1.9580	 6.7030
 1.9590	 6.7240
 1.9600	 6.7460
 1.9610	 6.7690
 1.9620	 6.7920
 1.9630	 6.8150
 1.9640	 6.8410
 1.9650	 6.8670
 1.9660	 6.8910
 1.9670	 6.9180
 1.9680	 6.9450
 1.9690	 6.9720
 1.9700	 7.0010
 1.9710	 7.0330
 1.9720	 7.0630
 1.9730	 7.0920
 1.9740	 7.1240
 1.9750	 7.1560
 1.9760	 7.1870
 1.9770	 7.2210
 1.9780	 7.2550
 1.9790	 7.2890
 1.9800	 7.3230
 1.9810	 7.3600
 1.9820	 7.3980
 1.9830	 7.4350
 1.9840	 7.4740
 1.9850	 7.5120
 1.9860	 7.5500
 1.9870	 7.5900
 1.9880	 7.6280
 1.9890	 7.6660
 1.9900	 7.7070
 1.9910	 7.7460
 1.9920	 7.7880
 1.9930	 7.8350
 1.9940	 7.8780
 1.9950	 7.9200
 1.9960	 7.9630
 1.9970	 8.0040
 1.9980	 8.0470
 1.9990	 8.0940
 2.0000	 8.1410
 2.0010	 8.1840
 2.0020	 8.2280
 2.0030	 8.2700
 2.0040	 8.3110
 2.0050	 8.3540
 2.0060	 8.3990
 2.0070	 8.4430
 2.0080	 8.4880
 2.0090	 8.5320
 2.0100	 8.5760
 2.0110	 8.6190
 2.0120	 8.6610
 2.0130	 8.7010
 2.0140	 8.7420
 2.0150	 8.7830
 2.0160	 8.8220
 2.0170	 8.8650
 2.0180	 8.9070
 2.0190	 8.9470
 2.0200	 8.9870
 2.0210	 9.0270
 2.0220	 9.0660
 2.0230	 9.1030
 2.0240	 9.1410
 2.0250	 9.1780
 2.0260	 9.2140
 2.0270	 9.2470
 2.0280	 9.2810
 2.0290	 9.3120
 2.0300	 9.3420
 2.0310	 9.3720
 2.0320	 9.4030
 2.0330	 9.4330
 2.0340	 9.4620
 2.0350	 9.4910
 2.0360	 9.5210
 2.0370	 9.5490
 2.0380	 9.5780
 2.0390	 9.6060
 2.0400	 9.6320
 2.0410	 9.6570
 2.0420	 9.6810
 2.0430	 9.7030
 2.0440	 9.7280
 2.0450	 9.7540
 2.0460	 9.7780
 2.0470	 9.8040
 2.0480	 9.8280
 2.0490	 9.8500
 2.0500	 9.8720
 2.0510	 9.8920
 2.0520	 9.9130
 2.0530	 9.9320
 2.0540	 9.9540
 2.0550	 9.9770
 2.0560	10.0020
 2.0570	10.0280
 2.0580	10.0540
 2.0590	10.0800
 2.0600	10.1070
 2.0610	10.1320
 2.0620	10.1550
 2.0630	10.1790
 2.0640	10.2010
 2.0650	10.2240
 2.0660	10.2480
 2.0670	10.2720
 2.0680	10.2960
 2.0690	10.3190
 2.0700	10.3400
 2.0710	10.3630
 2.0720	10.3880
 2.0730	10.4100
 2.0740	10.4330
 2.0750	10.4570
 2.0760	10.4800
 2.0770	10.5000
 2.0780	10.5240
 2.0790	10.5490
 2.0800	10.5740
 2.0810	10.6000
 2.0820	10.6240
 2.0830	10.6440
 2.0840	10.6670
 2.0850	10.6880
 2.0860	10.7110
 2.0870	10.7340
 2.0880	10.7590
 2.0890	10.7840
 2.0900	10.8100
 2.0910	10.8340
 2.0920	10.8590
 2.0930	10.8810
 2.0940	10.9000
 2.0950	10.9230
 2.0960	10.9450
 2.0970	10.9690
 2.0980	10.9960
 2.0990	11.0190
 2.1000	11.0420
 2.1010	11.0650
 2.1020	11.0850
 2.1030	11.1080
 2.1040	11.1330
 2.1050	11.1570
 2.1060	11.1810
 2.1070	11.2050
 2.1080	11.2260
 2.1090	11.2440
 2.1100	11.2650
 2.1110	11.2840
 2.1120	11.3040
 2.1130	11.3250
 2.1140	11.3460
 2.1150	11.3660
 2.1160	11.3870
 2.1170	11.4100
 2.1180	11.4300
 2.1190	11.4500
 2.1200	11.4690
 2.1210	11.4870
 2.1220	11.5060
 2.1230	11.5240
 2.1240	11.5410
 2.1250	11.5580
 2.1260	11.5750
 2.1270	11.5920
 2.1280	11.6110
 2.1290	11.6290
 2.1300	11.6480
 2.1310	11.6650
 2.1320	11.6790
 2.1330	11.6960
 2.1340	11.7150
 2.1350	11.7300
 2.1360	11.7460
 2.1370	11.7620
 2.1380	11.7750
 2.1390	11.7900
 2.1400	11.8070
 2.1410	11.8260
 2.1420	11.8440
 2.1430	11.8630
 2.1440	11.8790
 2.1450	11.8950
 2.1460	11.9120
 2.1470	11.9270
 2.1480	11.9460
 2.1490	11.9680
 2.1500	11.9910
 2.1510	12.0160
 2.1520	12.0400
 2.1530	12.0660
 2.1540	12.0890
 2.1550	12.1070
 2.1560	12.1290
 2.1570	12.1520
 2.1580	12.1730
 2.1590	12.1960
 2.1600	12.2180
 2.1610	12.2360
 2.1620	12.2570
 2.1630	12.2760
 2.1640	12.2940
 2.1650	12.3150
 2.1660	12.3380
 2.1670	12.3610
 2.1680	12.3880
 2.1690	12.4110
 2.1700	12.4300
 2.1710	12.4510
 2.1720	12.4700
 2.1730	12.4910
 2.1740	12.5130
 2.1750	12.5340
 2.1760	12.5570
 2.1770	12.5780
 2.1780	12.5960
 2.1790	12.6160
 2.1800	12.6340
 2.1810	12.6530
 2.1820	12.6740
 2.1830	12.6950
 2.1840	12.7160
 2.1850	12.7380
 2.1860	12.7600
 2.1870	12.7830
 2.1880	12.8060
 2.1890	12.8280
 2.1900	12.8510
 2.1910	12.8750
 2.1920	12.8960
 2.1930	12.9160
 2.1940	12.9370
 2.1950	12.9570
 2.1960	12.9760
 2.1970	12.9970
 2.1980	13.0160
 2.1990	13.0340
 2.2000	13.0520
 2.2010	13.0700
 2.2020	13.0860
 2.2030	13.1000
 2.2040	13.1150
 2.2050	13.1310
 2.2060	13.1450
 2.2070	13.1620
 2.2080	13.1840
 2.2090	13.1970
 2.2100	13.2090
 2.2110	13.2200
 2.2120	13.2270
 2.2130	13.2380
 2.2140	13.2540
 2.2150	13.2630
 2.2160	13.2690
 2.2170	13.2740
 2.2180	13.2770
 2.2190	13.2770
 2.2200	13.2790
 2.2210	13.2770
 2.2220	13.2690
 2.2230	13.2640
 2.2240	13.2630
 2.2250	13.2550
 2.2260	13.2470
 2.2270	13.2340
 2.2280	13.2160
 2.2290	13.1980
 2.2300	13.1780
 2.2310	13.1580
 2.2320	13.1400
 2.2330	13.1190
 2.2340	13.0910
 2.2350	13.0610
 2.2360	13.0280
 2.2370	12.9870
 2.2380	12.9500
 2.2390	12.9150
 2.2400	12.8770
 2.2410	12.8390
 2.2420	12.7960
 2.2430	12.7490
 2.2440	12.7030
 2.2450	12.6540
 2.2460	12.6030
 2.2470	12.5500
 2.2480	12.4970
 2.2490	12.4370
 2.2500	12.3820
 2.2510	12.3320
 2.2520	12.2780
 2.2530	12.2250
 2.2540	12.1720
 2.2550	12.1170
 2.2560	12.0630
 2.2570	12.0140
 2.2580	11.9600
 2.2590	11.8990
 2.2600	11.8430
 2.2610	11.7880
 2.2620	11.7320
 2.2630	11.6810
 2.2640	11.6340
 2.2650	11.5860
 2.2660	11.5400
 2.2670	11.4940
 2.2680	11.4480
 2.2690	11.4070
 2.2700	11.3690
 2.2710	11.3260
 2.2720	11.2850
 2.2730	11.2440
 2.2740	11.1970
 2.2750	11.1590
 2.2760	11.1310
 2.2770	11.0950
 2.2780	11.0570
 2.2790	11.0190
 2.2800	10.9760
 2.2810	10.9390
 2.2820	10.9030
 2.2830	10.8700
 2.2840	10.8410
 2.2850	10.8070
 2.2860	10.7760
 2.2870	10.7380
 2.2880	10.6940
 2.2890	10.6530
 2.2900	10.6090
 2.2910	10.5680
 2.2920	10.5330
 2.2930	10.4930
 2.2940	10.4500
 2.2950	10.4080
 2.2960	10.3640
 2.2970	10.3230
 2.2980	10.2850
 2.2990	10.2520
 2.3000	10.2170
 2.3010	10.1820
 2.3020	10.1500
 2.3030	10.1180
 2.3040	10.0880
 2.3050	10.0630
 2.3060	10.0390
 2.3070	10.0180
 2.3080	10.0030
 2.3090	 9.9860
 2.3100	 9.9700
 2.3110	 9.9580
 2.3120	 9.9450
 2.3130	 9.9310
 2.3140	 9.9210
 2.3150	 9.9130
 2.3160	 9.9030
 2.3170	 9.8970
 2.3180	 9.8870
 2.3190	 9.8750
 2.3200	 9.8640
 2.3210	 9.8560
 2.3220	 9.8390
 2.3230	 9.8190
 2.3240	 9.7960
 2.3250	 9.7610
 2.3260	 9.7340
 2.3270	 9.7140
 2.3280	 9.6870
 2.3290	 9.6580
 2.3300	 9.6320
 2.3310	 9.6050
 2.3320	 9.5760
 2.3330	 9.5500
 2.3340	 9.5210
 2.3350	 9.4850
 2.3360	 9.4550
 2.3370	 9.4270
 2.3380	 9.3990
 2.3390	 9.3700
 2.3400	 9.3430
 2.3410	 9.3160
 2.3420	 9.2910
 2.3430	 9.2700
 2.3440	 9.2460
 2.3450	 9.2200
 2.3460	 9.1960
 2.3470	 9.1730
 2.3480	 9.1510
 2.3490	 9.1300
 2.3500	 9.1110
 2.3510	 9.0920
 2.3520	 9.0740
 2.3530	 9.0580
 2.3540	 9.0460
 2.3550	 9.0310
 2.3560	 9.0160
 2.3570	 8.9990
 2.3580	 8.9740
 2.3590	 8.9510
 2.3600	 8.9280
 2.3610	 8.9060
 2.3620	 8.8920
 2.3630	 8.8780
 2.3640	 8.8610
 2.3650	 8.8370
 2.3660	 8.8110
 2.3670	 8.7920
 2.3680	 8.7700
 2.3690	 8.7530
 2.3700	 8.7380
 2.3710	 8.7120
 2.3720	 8.6900
 2.3730	 8.6650
 2.3740	 8.6360
 2.3750	 8.6230
 2.3760	 8.6070
 2.3770	 8.5850
 2.3780	 8.5780
 2.3790	 8.5530
 2.3800	 8.5240
 2.3810	 8.5000
 2.3820	 8.4690
 2.3830	 8.4510
 2.3840	 8.4310
 2.3850	 8.4010
 2.3860	 8.3870
 2.3870	 8.3700
 2.3880	 8.3420
 2.3890	 8.3320
 2.3900	 8.3230
 2.3910	 8.2940
 2.3920	 8.2700
 2.3930	 8.2510
 2.3940	 8.2240
 2.3950	 8.2040
 2.3960	 8.1860
 2.3970	 8.1550
 2.3980	 8.1280
 2.3990	 8.1010
 2.4000	 8.0780
 2.4010	 8.0620
 2.4020	 8.0350
 2.4030	 8.0080
 2.4040	 7.9850
 2.4050	 7.9530
 2.4060	 7.9180
 2.4070	 7.8870
 2.4080	 7.8610
 2.4090	 7.8390
 2.4100	 7.8170
 2.4110	 7.8030
 2.4120	 7.7860
 2.4130	 7.7600
 2.4140	 7.7460
 2.4150	 7.7230
 2.4160	 7.6930
 2.4170	 7.6800
 2.4180	 7.6580
 2.4190	 7.6420
 2.4200	 7.6280
 2.4210	 7.5880
 2.4220	 7.5580
 2.4230	 7.5290
 2.4240	 7.4850
 2.4250	 7.4690
 2.4260	 7.4430
 2.4270	 7.4130
 2.4280	 7.4080
 2.4290	 7.3820
 2.4300	 7.3530
 2.4310	 7.3300
 2.4320	 7.2880
 2.4330	 7.2540
 2.4340	 7.2240
 2.4350	 7.1990
 2.4360	 7.1820
 2.4370	 7.1600
 2.4380	 7.1510
 2.4390	 7.1360
 2.4400	 7.1030
 2.4410	 7.0780
 2.4420	 7.0540
 2.4430	 7.0250
 2.4440	 7.0100
 2.4450	 7.0020
 2.4460	 6.9820
 2.4470	 6.9620
 2.4480	 6.9310
 2.4490	 6.8900
 2.4500	 6.8680
 2.4510	 6.8440
 2.4520	 6.8270
 2.4530	 6.8190
 2.4540	 6.7820
 2.4550	 6.7500
 2.4560	 6.7310
 2.4570	 6.7130
 2.4580	 6.7190
 2.4590	 6.7250
 2.4600	 6.7060
 2.4610	 6.6840
 2.4620	 6.6550
 2.4630	 6.6220
 2.4640	 6.6100
 2.4650	 6.5970
 2.4660	 6.5650
 2.4670	 6.5310
 2.4680	 6.5180
 2.4690	 6.5240
 2.4700	 6.5210
 2.4710	 6.5280
 2.4720	 6.5200
 2.4730	 6.4860
 2.4740	 6.4800
 2.4750	 6.4990
 2.4760	 6.4890
 2.4770	 6.4890
 2.4780	 6.4760
 2.4790	 6.4250
 2.4800	 6.3890
 2.4810	 6.3430
 2.4820	 6.3030
 2.4830	 6.2710
 2.4840	 6.2780
 2.4850	 6.3070
 2.4860	 6.3430
 2.4870	 6.3890
 2.4880	 6.3690
 2.4890	 6.3280
 2.4900	 6.2960
 2.4910	 6.2630
 2.4920	 6.2640
 2.4930	 6.2840
 2.4940	 6.3130
 2.4950	 6.3070
 2.4960	 6.2730
 2.4970	 6.2620
 2.4980	 6.2380
 2.4990	 6.2230
 2.5000	 6.2550
