Name: Calocedrus decrruens 1
Type: vegetation
Class: Tree
Genus: Calocedrus
Species: decurrens
Sample No.: VH145
Owner: UCSB
Wavelength Range: VSWIR
Origin: 37.0432; -119.304; WGS84
Collection Date: 6/8/2013
Description: Samples were collected as part of the HyspIRI Airborne Campaign. 48 individual plants were sampled in three times in 2013 - spring  summer  and fall. The name of the sample includes a 1  2  or 3 which references a different individual of the species. Samples were taken to JPL and processed within 48 hours of collection. The same leaves were processed in the Nicolet and then measured using the ASD.
Measurement: Bidirectional reflectance
First Column: X
Second Column: Y
X Units: Wavelength (micrometers)
Y Units: Reflectance (percentage)
First X Value: 0.35
Last X Value: 2.5
Number of X Values: 2151
Additional Information: vegetation.tree.calocedrus.decurrens.vswir.vh145.ucsb.asd.ancillary.txt

 0.3500	 3.7430
 0.3510	 3.7920
 0.3520	 3.7080
 0.3530	 3.6310
 0.3540	 3.7010
 0.3550	 3.8100
 0.3560	 3.7400
 0.3570	 3.5810
 0.3580	 3.5440
 0.3590	 3.5240
 0.3600	 3.4770
 0.3610	 3.4220
 0.3620	 3.4450
 0.3630	 3.4070
 0.3640	 3.3330
 0.3650	 3.3040
 0.3660	 3.4180
 0.3670	 3.4910
 0.3680	 3.4740
 0.3690	 3.4120
 0.3700	 3.3930
 0.3710	 3.4010
 0.3720	 3.4080
 0.3730	 3.3800
 0.3740	 3.3660
 0.3750	 3.3650
 0.3760	 3.3720
 0.3770	 3.4060
 0.3780	 3.3980
 0.3790	 3.3650
 0.3800	 3.4020
 0.3810	 3.4030
 0.3820	 3.4020
 0.3830	 3.4150
 0.3840	 3.3770
 0.3850	 3.3640
 0.3860	 3.3510
 0.3870	 3.3020
 0.3880	 3.3120
 0.3890	 3.3240
 0.3900	 3.3410
 0.3910	 3.4200
 0.3920	 3.4220
 0.3930	 3.3950
 0.3940	 3.3940
 0.3950	 3.3990
 0.3960	 3.4390
 0.3970	 3.4810
 0.3980	 3.4730
 0.3990	 3.5240
 0.4000	 3.5280
 0.4010	 3.4870
 0.4020	 3.5600
 0.4030	 3.6030
 0.4040	 3.6250
 0.4050	 3.6520
 0.4060	 3.6800
 0.4070	 3.6980
 0.4080	 3.7160
 0.4090	 3.7550
 0.4100	 3.7910
 0.4110	 3.8210
 0.4120	 3.8590
 0.4130	 3.9440
 0.4140	 3.9920
 0.4150	 4.0130
 0.4160	 4.0540
 0.4170	 4.0930
 0.4180	 4.1350
 0.4190	 4.1760
 0.4200	 4.1990
 0.4210	 4.2360
 0.4220	 4.2850
 0.4230	 4.3360
 0.4240	 4.3830
 0.4250	 4.4190
 0.4260	 4.4460
 0.4270	 4.4730
 0.4280	 4.4980
 0.4290	 4.5330
 0.4300	 4.5720
 0.4310	 4.5860
 0.4320	 4.6030
 0.4330	 4.6390
 0.4340	 4.6940
 0.4350	 4.7160
 0.4360	 4.7380
 0.4370	 4.7700
 0.4380	 4.8060
 0.4390	 4.8240
 0.4400	 4.8520
 0.4410	 4.8990
 0.4420	 4.9200
 0.4430	 4.9420
 0.4440	 4.9770
 0.4450	 5.0140
 0.4460	 5.0620
 0.4470	 5.0890
 0.4480	 5.1020
 0.4490	 5.1480
 0.4500	 5.1850
 0.4510	 5.2210
 0.4520	 5.2710
 0.4530	 5.2980
 0.4540	 5.3160
 0.4550	 5.3460
 0.4560	 5.3930
 0.4570	 5.4070
 0.4580	 5.4100
 0.4590	 5.4270
 0.4600	 5.4630
 0.4610	 5.4940
 0.4620	 5.5120
 0.4630	 5.5140
 0.4640	 5.5160
 0.4650	 5.5250
 0.4660	 5.5470
 0.4670	 5.5650
 0.4680	 5.5720
 0.4690	 5.5780
 0.4700	 5.5900
 0.4710	 5.5930
 0.4720	 5.6090
 0.4730	 5.6330
 0.4740	 5.6350
 0.4750	 5.6470
 0.4760	 5.6630
 0.4770	 5.6770
 0.4780	 5.6890
 0.4790	 5.7020
 0.4800	 5.7150
 0.4810	 5.7340
 0.4820	 5.7390
 0.4830	 5.7440
 0.4840	 5.7570
 0.4850	 5.7910
 0.4860	 5.8050
 0.4870	 5.8190
 0.4880	 5.8470
 0.4890	 5.8730
 0.4900	 5.9080
 0.4910	 5.9460
 0.4920	 5.9830
 0.4930	 6.0260
 0.4940	 6.0810
 0.4950	 6.1460
 0.4960	 6.2050
 0.4970	 6.2740
 0.4980	 6.3560
 0.4990	 6.4480
 0.5000	 6.5450
 0.5010	 6.6520
 0.5020	 6.7700
 0.5030	 6.8990
 0.5040	 7.0370
 0.5050	 7.1880
 0.5060	 7.3470
 0.5070	 7.5190
 0.5080	 7.7110
 0.5090	 7.9190
 0.5100	 8.1290
 0.5110	 8.3560
 0.5120	 8.6030
 0.5130	 8.8630
 0.5140	 9.1240
 0.5150	 9.4070
 0.5160	 9.6990
 0.5170	 9.9880
 0.5180	10.2760
 0.5190	10.5730
 0.5200	10.8750
 0.5210	11.1660
 0.5220	11.4480
 0.5230	11.7250
 0.5240	11.9960
 0.5250	12.2510
 0.5260	12.4890
 0.5270	12.7110
 0.5280	12.9220
 0.5290	13.1160
 0.5300	13.2880
 0.5310	13.4420
 0.5320	13.5900
 0.5330	13.7270
 0.5340	13.8480
 0.5350	13.9510
 0.5360	14.0490
 0.5370	14.1410
 0.5380	14.2260
 0.5390	14.3000
 0.5400	14.3730
 0.5410	14.4460
 0.5420	14.5170
 0.5430	14.5850
 0.5440	14.6490
 0.5450	14.7070
 0.5460	14.7610
 0.5470	14.8050
 0.5480	14.8420
 0.5490	14.8790
 0.5500	14.9170
 0.5510	14.9420
 0.5520	14.9580
 0.5530	14.9660
 0.5540	14.9620
 0.5550	14.9400
 0.5560	14.9010
 0.5570	14.8470
 0.5580	14.7870
 0.5590	14.7120
 0.5600	14.6190
 0.5610	14.5180
 0.5620	14.4070
 0.5630	14.2860
 0.5640	14.1560
 0.5650	14.0160
 0.5660	13.8740
 0.5670	13.7300
 0.5680	13.5730
 0.5690	13.4080
 0.5700	13.2400
 0.5710	13.0750
 0.5720	12.9160
 0.5730	12.7620
 0.5740	12.6140
 0.5750	12.4710
 0.5760	12.3380
 0.5770	12.2100
 0.5780	12.0870
 0.5790	11.9730
 0.5800	11.8590
 0.5810	11.7510
 0.5820	11.6550
 0.5830	11.5730
 0.5840	11.4970
 0.5850	11.4210
 0.5860	11.3420
 0.5870	11.2640
 0.5880	11.1940
 0.5890	11.1310
 0.5900	11.0700
 0.5910	11.0190
 0.5920	10.9740
 0.5930	10.9270
 0.5940	10.8890
 0.5950	10.8530
 0.5960	10.8160
 0.5970	10.7870
 0.5980	10.7500
 0.5990	10.7130
 0.6000	10.6790
 0.6010	10.6370
 0.6020	10.5910
 0.6030	10.5430
 0.6040	10.4920
 0.6050	10.4330
 0.6060	10.3650
 0.6070	10.2900
 0.6080	10.2130
 0.6090	10.1350
 0.6100	10.0550
 0.6110	 9.9810
 0.6120	 9.8890
 0.6130	 9.7920
 0.6140	 9.6990
 0.6150	 9.6130
 0.6160	 9.5270
 0.6170	 9.4430
 0.6180	 9.3640
 0.6190	 9.3000
 0.6200	 9.2430
 0.6210	 9.1900
 0.6220	 9.1460
 0.6230	 9.1080
 0.6240	 9.0770
 0.6250	 9.0540
 0.6260	 9.0330
 0.6270	 9.0170
 0.6280	 9.0050
 0.6290	 8.9990
 0.6300	 8.9890
 0.6310	 8.9800
 0.6320	 8.9650
 0.6330	 8.9360
 0.6340	 8.9030
 0.6350	 8.8600
 0.6360	 8.8030
 0.6370	 8.7240
 0.6380	 8.6350
 0.6390	 8.5370
 0.6400	 8.4290
 0.6410	 8.3140
 0.6420	 8.1920
 0.6430	 8.0670
 0.6440	 7.9340
 0.6450	 7.8040
 0.6460	 7.6840
 0.6470	 7.5690
 0.6480	 7.4650
 0.6490	 7.3740
 0.6500	 7.2990
 0.6510	 7.2330
 0.6520	 7.1760
 0.6530	 7.1260
 0.6540	 7.0770
 0.6550	 7.0210
 0.6560	 6.9650
 0.6570	 6.9010
 0.6580	 6.8300
 0.6590	 6.7450
 0.6600	 6.6530
 0.6610	 6.5630
 0.6620	 6.4720
 0.6630	 6.3840
 0.6640	 6.2950
 0.6650	 6.2130
 0.6660	 6.1410
 0.6670	 6.0790
 0.6680	 6.0260
 0.6690	 5.9860
 0.6700	 5.9480
 0.6710	 5.9180
 0.6720	 5.9010
 0.6730	 5.8920
 0.6740	 5.8880
 0.6750	 5.8890
 0.6760	 5.8980
 0.6770	 5.9130
 0.6780	 5.9320
 0.6790	 5.9640
 0.6800	 6.0040
 0.6810	 6.0590
 0.6820	 6.1280
 0.6830	 6.2210
 0.6840	 6.3360
 0.6850	 6.4840
 0.6860	 6.6730
 0.6870	 6.9080
 0.6880	 7.1930
 0.6890	 7.5420
 0.6900	 7.9630
 0.6910	 8.4540
 0.6920	 9.0260
 0.6930	 9.6660
 0.6940	10.3700
 0.6950	11.1370
 0.6960	11.9620
 0.6970	12.8370
 0.6980	13.7500
 0.6990	14.6970
 0.7000	15.6670
 0.7010	16.6550
 0.7020	17.6570
 0.7030	18.6630
 0.7040	19.6700
 0.7050	20.6740
 0.7060	21.6650
 0.7070	22.6480
 0.7080	23.6250
 0.7090	24.5930
 0.7100	25.5520
 0.7110	26.4990
 0.7120	27.4350
 0.7130	28.3650
 0.7140	29.2870
 0.7150	30.1990
 0.7160	31.0980
 0.7170	31.9830
 0.7180	32.8550
 0.7190	33.7140
 0.7200	34.5580
 0.7210	35.3840
 0.7220	36.1930
 0.7230	36.9820
 0.7240	37.7440
 0.7250	38.4770
 0.7260	39.1850
 0.7270	39.8700
 0.7280	40.5220
 0.7290	41.1470
 0.7300	41.7470
 0.7310	42.3190
 0.7320	42.8610
 0.7330	43.3750
 0.7340	43.8620
 0.7350	44.3210
 0.7360	44.7510
 0.7370	45.1560
 0.7380	45.5410
 0.7390	45.9070
 0.7400	46.2430
 0.7410	46.5520
 0.7420	46.8430
 0.7430	47.1220
 0.7440	47.3800
 0.7450	47.6150
 0.7460	47.8370
 0.7470	48.0380
 0.7480	48.2190
 0.7490	48.3820
 0.7500	48.5370
 0.7510	48.6820
 0.7520	48.8140
 0.7530	48.9310
 0.7540	49.0380
 0.7550	49.1390
 0.7560	49.2330
 0.7570	49.3150
 0.7580	49.3990
 0.7590	49.4760
 0.7600	49.5420
 0.7610	49.6030
 0.7620	49.6550
 0.7630	49.7030
 0.7640	49.7520
 0.7650	49.7970
 0.7660	49.8350
 0.7670	49.8700
 0.7680	49.9070
 0.7690	49.9420
 0.7700	49.9710
 0.7710	49.9990
 0.7720	50.0380
 0.7730	50.0660
 0.7740	50.0880
 0.7750	50.1110
 0.7760	50.1390
 0.7770	50.1640
 0.7780	50.1830
 0.7790	50.2030
 0.7800	50.2210
 0.7810	50.2400
 0.7820	50.2610
 0.7830	50.2860
 0.7840	50.3100
 0.7850	50.3360
 0.7860	50.3620
 0.7870	50.3780
 0.7880	50.3950
 0.7890	50.4160
 0.7900	50.4380
 0.7910	50.4500
 0.7920	50.4630
 0.7930	50.4830
 0.7940	50.5060
 0.7950	50.5150
 0.7960	50.5260
 0.7970	50.5460
 0.7980	50.5680
 0.7990	50.5850
 0.8000	50.5960
 0.8010	50.6040
 0.8020	50.6180
 0.8030	50.6340
 0.8040	50.6500
 0.8050	50.6640
 0.8060	50.6710
 0.8070	50.6830
 0.8080	50.6980
 0.8090	50.7010
 0.8100	50.7050
 0.8110	50.7150
 0.8120	50.7320
 0.8130	50.7430
 0.8140	50.7520
 0.8150	50.7610
 0.8160	50.7710
 0.8170	50.7790
 0.8180	50.7830
 0.8190	50.7900
 0.8200	50.8050
 0.8210	50.8180
 0.8220	50.8250
 0.8230	50.8280
 0.8240	50.8360
 0.8250	50.8430
 0.8260	50.8470
 0.8270	50.8500
 0.8280	50.8670
 0.8290	50.8720
 0.8300	50.8690
 0.8310	50.8670
 0.8320	50.8730
 0.8330	50.8730
 0.8340	50.8730
 0.8350	50.8850
 0.8360	50.8950
 0.8370	50.9030
 0.8380	50.9150
 0.8390	50.9360
 0.8400	50.9490
 0.8410	50.9580
 0.8420	50.9680
 0.8430	50.9810
 0.8440	50.9930
 0.8450	51.0050
 0.8460	51.0190
 0.8470	51.0320
 0.8480	51.0450
 0.8490	51.0580
 0.8500	51.0680
 0.8510	51.0870
 0.8520	51.0960
 0.8530	51.0980
 0.8540	51.1060
 0.8550	51.1290
 0.8560	51.1440
 0.8570	51.1490
 0.8580	51.1650
 0.8590	51.1840
 0.8600	51.1940
 0.8610	51.1970
 0.8620	51.2140
 0.8630	51.2350
 0.8640	51.2490
 0.8650	51.2530
 0.8660	51.2610
 0.8670	51.2680
 0.8680	51.2770
 0.8690	51.2930
 0.8700	51.3020
 0.8710	51.3080
 0.8720	51.3160
 0.8730	51.3310
 0.8740	51.3390
 0.8750	51.3440
 0.8760	51.3510
 0.8770	51.3710
 0.8780	51.3770
 0.8790	51.3820
 0.8800	51.3910
 0.8810	51.3940
 0.8820	51.3970
 0.8830	51.4010
 0.8840	51.4120
 0.8850	51.4310
 0.8860	51.4380
 0.8870	51.4380
 0.8880	51.4410
 0.8890	51.4470
 0.8900	51.4540
 0.8910	51.4550
 0.8920	51.4460
 0.8930	51.4520
 0.8940	51.4600
 0.8950	51.4630
 0.8960	51.4650
 0.8970	51.4660
 0.8980	51.4700
 0.8990	51.4780
 0.9000	51.4860
 0.9010	51.4720
 0.9020	51.4680
 0.9030	51.4780
 0.9040	51.4710
 0.9050	51.4600
 0.9060	51.4560
 0.9070	51.4650
 0.9080	51.4820
 0.9090	51.4920
 0.9100	51.4880
 0.9110	51.4710
 0.9120	51.4630
 0.9130	51.4640
 0.9140	51.4650
 0.9150	51.4600
 0.9160	51.4660
 0.9170	51.4740
 0.9180	51.4710
 0.9190	51.4530
 0.9200	51.4390
 0.9210	51.4330
 0.9220	51.4270
 0.9230	51.4100
 0.9240	51.4010
 0.9250	51.3900
 0.9260	51.3750
 0.9270	51.3590
 0.9280	51.3370
 0.9290	51.3190
 0.9300	51.3060
 0.9310	51.2910
 0.9320	51.2570
 0.9330	51.2270
 0.9340	51.2070
 0.9350	51.1750
 0.9360	51.1430
 0.9370	51.1120
 0.9380	51.0780
 0.9390	51.0280
 0.9400	50.9870
 0.9410	50.9480
 0.9420	50.9060
 0.9430	50.8680
 0.9440	50.8190
 0.9450	50.7680
 0.9460	50.7170
 0.9470	50.6450
 0.9480	50.5650
 0.9490	50.4810
 0.9500	50.3970
 0.9510	50.3250
 0.9520	50.2320
 0.9530	50.1220
 0.9540	50.0110
 0.9550	49.9240
 0.9560	49.8270
 0.9570	49.7210
 0.9580	49.6190
 0.9590	49.5360
 0.9600	49.4660
 0.9610	49.4070
 0.9620	49.3540
 0.9630	49.2820
 0.9640	49.2220
 0.9650	49.1850
 0.9660	49.1670
 0.9670	49.1400
 0.9680	49.1070
 0.9690	49.0780
 0.9700	49.0640
 0.9710	49.0430
 0.9720	49.0120
 0.9730	48.9880
 0.9740	48.9930
 0.9750	48.9930
 0.9760	48.9790
 0.9770	48.9610
 0.9780	48.9580
 0.9790	48.9760
 0.9800	48.9960
 0.9810	49.0020
 0.9820	48.9950
 0.9830	48.9960
 0.9840	49.0290
 0.9850	49.0750
 0.9860	49.1020
 0.9870	49.1300
 0.9880	49.1620
 0.9890	49.1920
 0.9900	49.2180
 0.9910	49.2610
 0.9920	49.2910
 0.9930	49.3180
 0.9940	49.3640
 0.9950	49.4020
 0.9960	49.4430
 0.9970	49.4890
 0.9980	49.5390
 0.9990	49.5590
 1.0000	49.5860
 1.0010	49.5890
 1.0020	49.6410
 1.0030	49.6910
 1.0040	49.7390
 1.0050	49.7890
 1.0060	49.8340
 1.0070	49.8800
 1.0080	49.9270
 1.0090	49.9760
 1.0100	50.0220
 1.0110	50.0690
 1.0120	50.1170
 1.0130	50.1650
 1.0140	50.2130
 1.0150	50.2630
 1.0160	50.3100
 1.0170	50.3540
 1.0180	50.4030
 1.0190	50.4510
 1.0200	50.4950
 1.0210	50.5380
 1.0220	50.5840
 1.0230	50.6300
 1.0240	50.6770
 1.0250	50.7240
 1.0260	50.7740
 1.0270	50.8200
 1.0280	50.8630
 1.0290	50.9080
 1.0300	50.9540
 1.0310	50.9960
 1.0320	51.0360
 1.0330	51.0740
 1.0340	51.1170
 1.0350	51.1510
 1.0360	51.1840
 1.0370	51.2240
 1.0380	51.2590
 1.0390	51.2860
 1.0400	51.3200
 1.0410	51.3570
 1.0420	51.3890
 1.0430	51.4190
 1.0440	51.4500
 1.0450	51.4790
 1.0460	51.5080
 1.0470	51.5400
 1.0480	51.5700
 1.0490	51.5960
 1.0500	51.6240
 1.0510	51.6550
 1.0520	51.6820
 1.0530	51.7070
 1.0540	51.7310
 1.0550	51.7550
 1.0560	51.7760
 1.0570	51.7990
 1.0580	51.8240
 1.0590	51.8470
 1.0600	51.8720
 1.0610	51.8920
 1.0620	51.9070
 1.0630	51.9270
 1.0640	51.9470
 1.0650	51.9630
 1.0660	51.9810
 1.0670	51.9980
 1.0680	52.0130
 1.0690	52.0230
 1.0700	52.0380
 1.0710	52.0550
 1.0720	52.0680
 1.0730	52.0790
 1.0740	52.0900
 1.0750	52.0970
 1.0760	52.1080
 1.0770	52.1200
 1.0780	52.1290
 1.0790	52.1400
 1.0800	52.1480
 1.0810	52.1570
 1.0820	52.1600
 1.0830	52.1560
 1.0840	52.1570
 1.0850	52.1580
 1.0860	52.1560
 1.0870	52.1570
 1.0880	52.1640
 1.0890	52.1620
 1.0900	52.1540
 1.0910	52.1490
 1.0920	52.1430
 1.0930	52.1350
 1.0940	52.1290
 1.0950	52.1180
 1.0960	52.0980
 1.0970	52.0860
 1.0980	52.0750
 1.0990	52.0630
 1.1000	52.0560
 1.1010	52.0450
 1.1020	52.0310
 1.1030	52.0150
 1.1040	51.9980
 1.1050	51.9810
 1.1060	51.9610
 1.1070	51.9400
 1.1080	51.9190
 1.1090	51.8970
 1.1100	51.8730
 1.1110	51.8490
 1.1120	51.8220
 1.1130	51.7940
 1.1140	51.7630
 1.1150	51.7310
 1.1160	51.6940
 1.1170	51.6540
 1.1180	51.6120
 1.1190	51.5670
 1.1200	51.5190
 1.1210	51.4640
 1.1220	51.4060
 1.1230	51.3390
 1.1240	51.2640
 1.1250	51.1820
 1.1260	51.0960
 1.1270	50.9950
 1.1280	50.8840
 1.1290	50.7610
 1.1300	50.6280
 1.1310	50.4830
 1.1320	50.3300
 1.1330	50.1630
 1.1340	49.9810
 1.1350	49.7910
 1.1360	49.5900
 1.1370	49.3810
 1.1380	49.1630
 1.1390	48.9410
 1.1400	48.7080
 1.1410	48.4690
 1.1420	48.2310
 1.1430	47.9880
 1.1440	47.7490
 1.1450	47.5060
 1.1460	47.2740
 1.1470	47.0410
 1.1480	46.8210
 1.1490	46.6060
 1.1500	46.4050
 1.1510	46.2150
 1.1520	46.0350
 1.1530	45.8640
 1.1540	45.7070
 1.1550	45.5610
 1.1560	45.4260
 1.1570	45.3040
 1.1580	45.1970
 1.1590	45.0980
 1.1600	45.0070
 1.1610	44.9270
 1.1620	44.8550
 1.1630	44.7890
 1.1640	44.7310
 1.1650	44.6760
 1.1660	44.6270
 1.1670	44.5830
 1.1680	44.5460
 1.1690	44.5080
 1.1700	44.4730
 1.1710	44.4390
 1.1720	44.4090
 1.1730	44.3750
 1.1740	44.3410
 1.1750	44.3100
 1.1760	44.2760
 1.1770	44.2390
 1.1780	44.2020
 1.1790	44.1640
 1.1800	44.1240
 1.1810	44.0830
 1.1820	44.0440
 1.1830	44.0060
 1.1840	43.9650
 1.1850	43.9260
 1.1860	43.8860
 1.1870	43.8450
 1.1880	43.8070
 1.1890	43.7680
 1.1900	43.7320
 1.1910	43.6970
 1.1920	43.6660
 1.1930	43.6380
 1.1940	43.6120
 1.1950	43.5890
 1.1960	43.5700
 1.1970	43.5540
 1.1980	43.5420
 1.1990	43.5340
 1.2000	43.5310
 1.2010	43.5330
 1.2020	43.5420
 1.2030	43.5570
 1.2040	43.5770
 1.2050	43.6010
 1.2060	43.6280
 1.2070	43.6620
 1.2080	43.6990
 1.2090	43.7390
 1.2100	43.7860
 1.2110	43.8370
 1.2120	43.8910
 1.2130	43.9490
 1.2140	44.0110
 1.2150	44.0760
 1.2160	44.1450
 1.2170	44.2170
 1.2180	44.2900
 1.2190	44.3660
 1.2200	44.4430
 1.2210	44.5200
 1.2220	44.5980
 1.2230	44.6760
 1.2240	44.7540
 1.2250	44.8300
 1.2260	44.9060
 1.2270	44.9800
 1.2280	45.0530
 1.2290	45.1230
 1.2300	45.1910
 1.2310	45.2570
 1.2320	45.3200
 1.2330	45.3810
 1.2340	45.4420
 1.2350	45.5020
 1.2360	45.5600
 1.2370	45.6170
 1.2380	45.6720
 1.2390	45.7250
 1.2400	45.7730
 1.2410	45.8230
 1.2420	45.8730
 1.2430	45.9170
 1.2440	45.9650
 1.2450	46.0110
 1.2460	46.0530
 1.2470	46.0950
 1.2480	46.1330
 1.2490	46.1680
 1.2500	46.2010
 1.2510	46.2320
 1.2520	46.2650
 1.2530	46.2950
 1.2540	46.3250
 1.2550	46.3520
 1.2560	46.3770
 1.2570	46.4040
 1.2580	46.4270
 1.2590	46.4490
 1.2600	46.4700
 1.2610	46.4890
 1.2620	46.5060
 1.2630	46.5210
 1.2640	46.5350
 1.2650	46.5460
 1.2660	46.5540
 1.2670	46.5620
 1.2680	46.5690
 1.2690	46.5760
 1.2700	46.5800
 1.2710	46.5810
 1.2720	46.5820
 1.2730	46.5790
 1.2740	46.5750
 1.2750	46.5690
 1.2760	46.5620
 1.2770	46.5510
 1.2780	46.5390
 1.2790	46.5250
 1.2800	46.5100
 1.2810	46.4920
 1.2820	46.4710
 1.2830	46.4460
 1.2840	46.4190
 1.2850	46.3890
 1.2860	46.3570
 1.2870	46.3240
 1.2880	46.2900
 1.2890	46.2520
 1.2900	46.2110
 1.2910	46.1680
 1.2920	46.1210
 1.2930	46.0700
 1.2940	46.0150
 1.2950	45.9590
 1.2960	45.8990
 1.2970	45.8370
 1.2980	45.7720
 1.2990	45.7030
 1.3000	45.6310
 1.3010	45.5540
 1.3020	45.4710
 1.3030	45.3860
 1.3040	45.2970
 1.3050	45.2050
 1.3060	45.1110
 1.3070	45.0120
 1.3080	44.9060
 1.3090	44.7950
 1.3100	44.6770
 1.3110	44.5540
 1.3120	44.4270
 1.3130	44.2950
 1.3140	44.1600
 1.3150	44.0220
 1.3160	43.8790
 1.3170	43.7320
 1.3180	43.5810
 1.3190	43.4230
 1.3200	43.2610
 1.3210	43.0920
 1.3220	42.9170
 1.3230	42.7420
 1.3240	42.5610
 1.3250	42.3790
 1.3260	42.1970
 1.3270	42.0070
 1.3280	41.8150
 1.3290	41.6200
 1.3300	41.4220
 1.3310	41.2230
 1.3320	41.0230
 1.3330	40.8210
 1.3340	40.6190
 1.3350	40.4170
 1.3360	40.2140
 1.3370	40.0110
 1.3380	39.8090
 1.3390	39.6080
 1.3400	39.4090
 1.3410	39.2130
 1.3420	39.0210
 1.3430	38.8300
 1.3440	38.6420
 1.3450	38.4580
 1.3460	38.2750
 1.3470	38.0950
 1.3480	37.9160
 1.3490	37.7420
 1.3500	37.5700
 1.3510	37.4020
 1.3520	37.2360
 1.3530	37.0700
 1.3540	36.9040
 1.3550	36.7390
 1.3560	36.5750
 1.3570	36.4090
 1.3580	36.2440
 1.3590	36.0740
 1.3600	35.8990
 1.3610	35.7220
 1.3620	35.5390
 1.3630	35.3510
 1.3640	35.1580
 1.3650	34.9550
 1.3660	34.7450
 1.3670	34.5270
 1.3680	34.2980
 1.3690	34.0590
 1.3700	33.8050
 1.3710	33.5400
 1.3720	33.2600
 1.3730	32.9640
 1.3740	32.6570
 1.3750	32.3320
 1.3760	31.9850
 1.3770	31.6190
 1.3780	31.2290
 1.3790	30.8170
 1.3800	30.3870
 1.3810	29.9320
 1.3820	29.4640
 1.3830	28.9790
 1.3840	28.4790
 1.3850	27.9610
 1.3860	27.4360
 1.3870	26.8950
 1.3880	26.3550
 1.3890	25.8090
 1.3900	25.2580
 1.3910	24.7130
 1.3920	24.1660
 1.3930	23.6210
 1.3940	23.0850
 1.3950	22.5500
 1.3960	22.0270
 1.3970	21.5180
 1.3980	21.0200
 1.3990	20.5430
 1.4000	20.0810
 1.4010	19.6330
 1.4020	19.2060
 1.4030	18.7940
 1.4040	18.4020
 1.4050	18.0310
 1.4060	17.6770
 1.4070	17.3460
 1.4080	17.0340
 1.4090	16.7390
 1.4100	16.4640
 1.4110	16.2040
 1.4120	15.9600
 1.4130	15.7350
 1.4140	15.5230
 1.4150	15.3290
 1.4160	15.1490
 1.4170	14.9810
 1.4180	14.8260
 1.4190	14.6820
 1.4200	14.5480
 1.4210	14.4250
 1.4220	14.3120
 1.4230	14.2090
 1.4240	14.1140
 1.4250	14.0270
 1.4260	13.9480
 1.4270	13.8750
 1.4280	13.8100
 1.4290	13.7500
 1.4300	13.6970
 1.4310	13.6490
 1.4320	13.6080
 1.4330	13.5710
 1.4340	13.5360
 1.4350	13.5070
 1.4360	13.4830
 1.4370	13.4630
 1.4380	13.4480
 1.4390	13.4370
 1.4400	13.4280
 1.4410	13.4210
 1.4420	13.4180
 1.4430	13.4180
 1.4440	13.4190
 1.4450	13.4230
 1.4460	13.4280
 1.4470	13.4340
 1.4480	13.4420
 1.4490	13.4520
 1.4500	13.4640
 1.4510	13.4770
 1.4520	13.4910
 1.4530	13.5080
 1.4540	13.5250
 1.4550	13.5440
 1.4560	13.5650
 1.4570	13.5890
 1.4580	13.6150
 1.4590	13.6440
 1.4600	13.6760
 1.4610	13.7100
 1.4620	13.7470
 1.4630	13.7890
 1.4640	13.8340
 1.4650	13.8840
 1.4660	13.9370
 1.4670	13.9930
 1.4680	14.0540
 1.4690	14.1180
 1.4700	14.1860
 1.4710	14.2580
 1.4720	14.3320
 1.4730	14.4080
 1.4740	14.4880
 1.4750	14.5710
 1.4760	14.6570
 1.4770	14.7450
 1.4780	14.8350
 1.4790	14.9280
 1.4800	15.0200
 1.4810	15.1150
 1.4820	15.2130
 1.4830	15.3100
 1.4840	15.4100
 1.4850	15.5120
 1.4860	15.6140
 1.4870	15.7180
 1.4880	15.8210
 1.4890	15.9250
 1.4900	16.0300
 1.4910	16.1340
 1.4920	16.2400
 1.4930	16.3480
 1.4940	16.4560
 1.4950	16.5650
 1.4960	16.6740
 1.4970	16.7820
 1.4980	16.8920
 1.4990	17.0020
 1.5000	17.1120
 1.5010	17.2210
 1.5020	17.3310
 1.5030	17.4410
 1.5040	17.5500
 1.5050	17.6590
 1.5060	17.7690
 1.5070	17.8760
 1.5080	17.9850
 1.5090	18.0950
 1.5100	18.2050
 1.5110	18.3130
 1.5120	18.4210
 1.5130	18.5260
 1.5140	18.6320
 1.5150	18.7370
 1.5160	18.8410
 1.5170	18.9470
 1.5180	19.0500
 1.5190	19.1540
 1.5200	19.2580
 1.5210	19.3580
 1.5220	19.4590
 1.5230	19.5580
 1.5240	19.6570
 1.5250	19.7560
 1.5260	19.8550
 1.5270	19.9530
 1.5280	20.0510
 1.5290	20.1460
 1.5300	20.2430
 1.5310	20.3380
 1.5320	20.4310
 1.5330	20.5230
 1.5340	20.6130
 1.5350	20.7020
 1.5360	20.7930
 1.5370	20.8830
 1.5380	20.9720
 1.5390	21.0610
 1.5400	21.1470
 1.5410	21.2340
 1.5420	21.3210
 1.5430	21.4080
 1.5440	21.4940
 1.5450	21.5780
 1.5460	21.6620
 1.5470	21.7450
 1.5480	21.8280
 1.5490	21.9120
 1.5500	21.9950
 1.5510	22.0760
 1.5520	22.1580
 1.5530	22.2380
 1.5540	22.3190
 1.5550	22.3990
 1.5560	22.4770
 1.5570	22.5560
 1.5580	22.6340
 1.5590	22.7110
 1.5600	22.7890
 1.5610	22.8650
 1.5620	22.9410
 1.5630	23.0170
 1.5640	23.0900
 1.5650	23.1640
 1.5660	23.2370
 1.5670	23.3100
 1.5680	23.3850
 1.5690	23.4570
 1.5700	23.5290
 1.5710	23.6020
 1.5720	23.6740
 1.5730	23.7460
 1.5740	23.8190
 1.5750	23.8900
 1.5760	23.9620
 1.5770	24.0320
 1.5780	24.1030
 1.5790	24.1730
 1.5800	24.2410
 1.5810	24.3100
 1.5820	24.3790
 1.5830	24.4470
 1.5840	24.5160
 1.5850	24.5850
 1.5860	24.6510
 1.5870	24.7190
 1.5880	24.7860
 1.5890	24.8540
 1.5900	24.9240
 1.5910	24.9910
 1.5920	25.0590
 1.5930	25.1270
 1.5940	25.1940
 1.5950	25.2640
 1.5960	25.3330
 1.5970	25.4030
 1.5980	25.4720
 1.5990	25.5390
 1.6000	25.6070
 1.6010	25.6740
 1.6020	25.7410
 1.6030	25.8090
 1.6040	25.8750
 1.6050	25.9410
 1.6060	26.0060
 1.6070	26.0710
 1.6080	26.1370
 1.6090	26.2020
 1.6100	26.2660
 1.6110	26.3300
 1.6120	26.3910
 1.6130	26.4520
 1.6140	26.5120
 1.6150	26.5690
 1.6160	26.6270
 1.6170	26.6840
 1.6180	26.7400
 1.6190	26.7960
 1.6200	26.8520
 1.6210	26.9070
 1.6220	26.9600
 1.6230	27.0120
 1.6240	27.0650
 1.6250	27.1150
 1.6260	27.1630
 1.6270	27.2100
 1.6280	27.2550
 1.6290	27.3010
 1.6300	27.3480
 1.6310	27.3930
 1.6320	27.4370
 1.6330	27.4810
 1.6340	27.5240
 1.6350	27.5650
 1.6360	27.6050
 1.6370	27.6420
 1.6380	27.6760
 1.6390	27.7100
 1.6400	27.7440
 1.6410	27.7760
 1.6420	27.8070
 1.6430	27.8350
 1.6440	27.8620
 1.6450	27.8850
 1.6460	27.9060
 1.6470	27.9240
 1.6480	27.9390
 1.6490	27.9510
 1.6500	27.9630
 1.6510	27.9700
 1.6520	27.9740
 1.6530	27.9770
 1.6540	27.9760
 1.6550	27.9730
 1.6560	27.9700
 1.6570	27.9630
 1.6580	27.9560
 1.6590	27.9460
 1.6600	27.9340
 1.6610	27.9210
 1.6620	27.9050
 1.6630	27.8900
 1.6640	27.8760
 1.6650	27.8640
 1.6660	27.8530
 1.6670	27.8410
 1.6680	27.8290
 1.6690	27.8150
 1.6700	27.8010
 1.6710	27.7900
 1.6720	27.7760
 1.6730	27.7630
 1.6740	27.7490
 1.6750	27.7320
 1.6760	27.7130
 1.6770	27.6910
 1.6780	27.6660
 1.6790	27.6390
 1.6800	27.6070
 1.6810	27.5700
 1.6820	27.5290
 1.6830	27.4840
 1.6840	27.4330
 1.6850	27.3810
 1.6860	27.3260
 1.6870	27.2650
 1.6880	27.2020
 1.6890	27.1360
 1.6900	27.0680
 1.6910	26.9970
 1.6920	26.9250
 1.6930	26.8480
 1.6940	26.7720
 1.6950	26.6960
 1.6960	26.6190
 1.6970	26.5440
 1.6980	26.4640
 1.6990	26.3820
 1.7000	26.3000
 1.7010	26.2180
 1.7020	26.1360
 1.7030	26.0580
 1.7040	25.9770
 1.7050	25.8950
 1.7060	25.8130
 1.7070	25.7290
 1.7080	25.6470
 1.7090	25.5660
 1.7100	25.4880
 1.7110	25.4120
 1.7120	25.3420
 1.7130	25.2750
 1.7140	25.2130
 1.7150	25.1540
 1.7160	25.0970
 1.7170	25.0430
 1.7180	24.9920
 1.7190	24.9440
 1.7200	24.9010
 1.7210	24.8580
 1.7220	24.8170
 1.7230	24.7770
 1.7240	24.7380
 1.7250	24.7020
 1.7260	24.6710
 1.7270	24.6420
 1.7280	24.6150
 1.7290	24.5910
 1.7300	24.5730
 1.7310	24.5560
 1.7320	24.5440
 1.7330	24.5290
 1.7340	24.5170
 1.7350	24.5000
 1.7360	24.4840
 1.7370	24.4630
 1.7380	24.4390
 1.7390	24.4100
 1.7400	24.3780
 1.7410	24.3390
 1.7420	24.2900
 1.7430	24.2410
 1.7440	24.1860
 1.7450	24.1300
 1.7460	24.0730
 1.7470	24.0120
 1.7480	23.9460
 1.7490	23.8820
 1.7500	23.8160
 1.7510	23.7540
 1.7520	23.6930
 1.7530	23.6340
 1.7540	23.5770
 1.7550	23.5230
 1.7560	23.4690
 1.7570	23.4170
 1.7580	23.3660
 1.7590	23.3200
 1.7600	23.2760
 1.7610	23.2360
 1.7620	23.1970
 1.7630	23.1570
 1.7640	23.1230
 1.7650	23.0930
 1.7660	23.0630
 1.7670	23.0360
 1.7680	23.0090
 1.7690	22.9810
 1.7700	22.9540
 1.7710	22.9290
 1.7720	22.9040
 1.7730	22.8780
 1.7740	22.8550
 1.7750	22.8340
 1.7760	22.8130
 1.7770	22.7910
 1.7780	22.7720
 1.7790	22.7530
 1.7800	22.7410
 1.7810	22.7340
 1.7820	22.7270
 1.7830	22.7250
 1.7840	22.7230
 1.7850	22.7230
 1.7860	22.7240
 1.7870	22.7260
 1.7880	22.7320
 1.7890	22.7390
 1.7900	22.7510
 1.7910	22.7620
 1.7920	22.7730
 1.7930	22.7840
 1.7940	22.7940
 1.7950	22.8060
 1.7960	22.8190
 1.7970	22.8330
 1.7980	22.8470
 1.7990	22.8610
 1.8000	22.8750
 1.8010	22.8880
 1.8020	22.9010
 1.8030	22.9150
 1.8040	22.9310
 1.8050	22.9460
 1.8060	22.9610
 1.8070	22.9770
 1.8080	22.9950
 1.8090	23.0090
 1.8100	23.0240
 1.8110	23.0360
 1.8120	23.0470
 1.8130	23.0580
 1.8140	23.0690
 1.8150	23.0790
 1.8160	23.0880
 1.8170	23.0950
 1.8180	23.1020
 1.8190	23.1090
 1.8200	23.1140
 1.8210	23.1190
 1.8220	23.1230
 1.8230	23.1260
 1.8240	23.1270
 1.8250	23.1270
 1.8260	23.1260
 1.8270	23.1230
 1.8280	23.1180
 1.8290	23.1120
 1.8300	23.0730
 1.8310	23.0090
 1.8320	22.9600
 1.8330	22.9410
 1.8340	22.9200
 1.8350	22.8940
 1.8360	22.8670
 1.8370	22.8360
 1.8380	22.7980
 1.8390	22.7570
 1.8400	22.7120
 1.8410	22.6610
 1.8420	22.6060
 1.8430	22.5480
 1.8440	22.4800
 1.8450	22.4030
 1.8460	22.3190
 1.8470	22.2260
 1.8480	22.1250
 1.8490	22.0140
 1.8500	21.8950
 1.8510	21.7670
 1.8520	21.6310
 1.8530	21.4850
 1.8540	21.3310
 1.8550	21.1600
 1.8560	20.9760
 1.8570	20.7840
 1.8580	20.5760
 1.8590	20.3580
 1.8600	20.1290
 1.8610	19.8890
 1.8620	19.6320
 1.8630	19.3640
 1.8640	19.0830
 1.8650	18.7890
 1.8660	18.4840
 1.8670	18.1590
 1.8680	17.8190
 1.8690	17.4640
 1.8700	17.0920
 1.8710	16.7020
 1.8720	16.3050
 1.8730	15.8970
 1.8740	15.4800
 1.8750	15.0570
 1.8760	14.6250
 1.8770	14.1930
 1.8780	13.7620
 1.8790	13.3270
 1.8800	12.9010
 1.8810	12.4820
 1.8820	12.0610
 1.8830	11.6370
 1.8840	11.2240
 1.8850	10.8130
 1.8860	10.4100
 1.8870	10.0200
 1.8880	 9.6400
 1.8890	 9.2780
 1.8900	 8.9280
 1.8910	 8.5950
 1.8920	 8.2750
 1.8930	 7.9790
 1.8940	 7.6950
 1.8950	 7.4270
 1.8960	 7.1850
 1.8970	 6.9530
 1.8980	 6.7400
 1.8990	 6.5440
 1.9000	 6.3610
 1.9010	 6.1970
 1.9020	 6.0440
 1.9030	 5.9040
 1.9040	 5.7780
 1.9050	 5.6640
 1.9060	 5.5580
 1.9070	 5.4660
 1.9080	 5.3840
 1.9090	 5.3110
 1.9100	 5.2470
 1.9110	 5.1870
 1.9120	 5.1390
 1.9130	 5.0910
 1.9140	 5.0470
 1.9150	 5.0070
 1.9160	 4.9720
 1.9170	 4.9440
 1.9180	 4.9230
 1.9190	 4.9030
 1.9200	 4.8880
 1.9210	 4.8730
 1.9220	 4.8600
 1.9230	 4.8480
 1.9240	 4.8390
 1.9250	 4.8340
 1.9260	 4.8310
 1.9270	 4.8300
 1.9280	 4.8310
 1.9290	 4.8340
 1.9300	 4.8400
 1.9310	 4.8480
 1.9320	 4.8570
 1.9330	 4.8670
 1.9340	 4.8790
 1.9350	 4.8910
 1.9360	 4.9050
 1.9370	 4.9220
 1.9380	 4.9390
 1.9390	 4.9600
 1.9400	 4.9810
 1.9410	 5.0000
 1.9420	 5.0230
 1.9430	 5.0450
 1.9440	 5.0700
 1.9450	 5.0960
 1.9460	 5.1240
 1.9470	 5.1550
 1.9480	 5.1840
 1.9490	 5.2150
 1.9500	 5.2480
 1.9510	 5.2800
 1.9520	 5.3110
 1.9530	 5.3450
 1.9540	 5.3810
 1.9550	 5.4170
 1.9560	 5.4550
 1.9570	 5.4930
 1.9580	 5.5290
 1.9590	 5.5690
 1.9600	 5.6100
 1.9610	 5.6520
 1.9620	 5.6950
 1.9630	 5.7350
 1.9640	 5.7790
 1.9650	 5.8230
 1.9660	 5.8640
 1.9670	 5.9080
 1.9680	 5.9540
 1.9690	 5.9940
 1.9700	 6.0430
 1.9710	 6.0920
 1.9720	 6.1400
 1.9730	 6.1950
 1.9740	 6.2490
 1.9750	 6.3000
 1.9760	 6.3500
 1.9770	 6.4010
 1.9780	 6.4510
 1.9790	 6.5030
 1.9800	 6.5550
 1.9810	 6.6070
 1.9820	 6.6610
 1.9830	 6.7160
 1.9840	 6.7720
 1.9850	 6.8280
 1.9860	 6.8870
 1.9870	 6.9430
 1.9880	 6.9990
 1.9890	 7.0530
 1.9900	 7.1080
 1.9910	 7.1650
 1.9920	 7.2190
 1.9930	 7.2770
 1.9940	 7.3320
 1.9950	 7.3850
 1.9960	 7.4430
 1.9970	 7.5030
 1.9980	 7.5590
 1.9990	 7.6190
 2.0000	 7.6790
 2.0010	 7.7380
 2.0020	 7.7930
 2.0030	 7.8480
 2.0040	 7.9030
 2.0050	 7.9570
 2.0060	 8.0100
 2.0070	 8.0650
 2.0080	 8.1210
 2.0090	 8.1770
 2.0100	 8.2350
 2.0110	 8.2890
 2.0120	 8.3430
 2.0130	 8.3940
 2.0140	 8.4440
 2.0150	 8.4950
 2.0160	 8.5490
 2.0170	 8.6020
 2.0180	 8.6510
 2.0190	 8.7020
 2.0200	 8.7520
 2.0210	 8.8010
 2.0220	 8.8500
 2.0230	 8.9000
 2.0240	 8.9470
 2.0250	 8.9960
 2.0260	 9.0420
 2.0270	 9.0840
 2.0280	 9.1270
 2.0290	 9.1680
 2.0300	 9.2070
 2.0310	 9.2480
 2.0320	 9.2870
 2.0330	 9.3260
 2.0340	 9.3640
 2.0350	 9.4020
 2.0360	 9.4410
 2.0370	 9.4770
 2.0380	 9.5120
 2.0390	 9.5450
 2.0400	 9.5770
 2.0410	 9.6100
 2.0420	 9.6410
 2.0430	 9.6740
 2.0440	 9.7040
 2.0450	 9.7360
 2.0460	 9.7660
 2.0470	 9.8000
 2.0480	 9.8310
 2.0490	 9.8610
 2.0500	 9.8920
 2.0510	 9.9170
 2.0520	 9.9430
 2.0530	 9.9710
 2.0540	 9.9990
 2.0550	10.0260
 2.0560	10.0550
 2.0570	10.0860
 2.0580	10.1170
 2.0590	10.1460
 2.0600	10.1730
 2.0610	10.2000
 2.0620	10.2260
 2.0630	10.2540
 2.0640	10.2840
 2.0650	10.3110
 2.0660	10.3360
 2.0670	10.3630
 2.0680	10.3890
 2.0690	10.4160
 2.0700	10.4440
 2.0710	10.4690
 2.0720	10.4940
 2.0730	10.5190
 2.0740	10.5460
 2.0750	10.5770
 2.0760	10.6040
 2.0770	10.6330
 2.0780	10.6620
 2.0790	10.6870
 2.0800	10.7140
 2.0810	10.7420
 2.0820	10.7700
 2.0830	10.7940
 2.0840	10.8200
 2.0850	10.8460
 2.0860	10.8710
 2.0870	10.8970
 2.0880	10.9220
 2.0890	10.9520
 2.0900	10.9830
 2.0910	11.0130
 2.0920	11.0490
 2.0930	11.0780
 2.0940	11.1040
 2.0950	11.1320
 2.0960	11.1610
 2.0970	11.1900
 2.0980	11.2220
 2.0990	11.2530
 2.1000	11.2820
 2.1010	11.3130
 2.1020	11.3440
 2.1030	11.3760
 2.1040	11.4080
 2.1050	11.4450
 2.1060	11.4770
 2.1070	11.5090
 2.1080	11.5410
 2.1090	11.5720
 2.1100	11.6040
 2.1110	11.6380
 2.1120	11.6710
 2.1130	11.7010
 2.1140	11.7340
 2.1150	11.7680
 2.1160	11.8000
 2.1170	11.8320
 2.1180	11.8640
 2.1190	11.8950
 2.1200	11.9260
 2.1210	11.9560
 2.1220	11.9880
 2.1230	12.0180
 2.1240	12.0460
 2.1250	12.0770
 2.1260	12.1100
 2.1270	12.1410
 2.1280	12.1720
 2.1290	12.2010
 2.1300	12.2280
 2.1310	12.2570
 2.1320	12.2870
 2.1330	12.3160
 2.1340	12.3440
 2.1350	12.3720
 2.1360	12.3980
 2.1370	12.4250
 2.1380	12.4540
 2.1390	12.4840
 2.1400	12.5150
 2.1410	12.5470
 2.1420	12.5780
 2.1430	12.6100
 2.1440	12.6390
 2.1450	12.6670
 2.1460	12.6950
 2.1470	12.7210
 2.1480	12.7490
 2.1490	12.7770
 2.1500	12.8070
 2.1510	12.8410
 2.1520	12.8710
 2.1530	12.8990
 2.1540	12.9270
 2.1550	12.9500
 2.1560	12.9770
 2.1570	13.0060
 2.1580	13.0350
 2.1590	13.0650
 2.1600	13.0940
 2.1610	13.1220
 2.1620	13.1490
 2.1630	13.1790
 2.1640	13.2100
 2.1650	13.2400
 2.1660	13.2730
 2.1670	13.3020
 2.1680	13.3280
 2.1690	13.3570
 2.1700	13.3900
 2.1710	13.4180
 2.1720	13.4450
 2.1730	13.4720
 2.1740	13.4960
 2.1750	13.5220
 2.1760	13.5490
 2.1770	13.5760
 2.1780	13.6040
 2.1790	13.6310
 2.1800	13.6580
 2.1810	13.6840
 2.1820	13.7070
 2.1830	13.7300
 2.1840	13.7530
 2.1850	13.7750
 2.1860	13.7980
 2.1870	13.8210
 2.1880	13.8440
 2.1890	13.8670
 2.1900	13.8910
 2.1910	13.9140
 2.1920	13.9370
 2.1930	13.9630
 2.1940	13.9850
 2.1950	14.0030
 2.1960	14.0230
 2.1970	14.0430
 2.1980	14.0620
 2.1990	14.0840
 2.2000	14.1010
 2.2010	14.1150
 2.2020	14.1300
 2.2030	14.1430
 2.2040	14.1560
 2.2050	14.1710
 2.2060	14.1800
 2.2070	14.1930
 2.2080	14.2080
 2.2090	14.2170
 2.2100	14.2250
 2.2110	14.2310
 2.2120	14.2330
 2.2130	14.2340
 2.2140	14.2360
 2.2150	14.2360
 2.2160	14.2320
 2.2170	14.2300
 2.2180	14.2310
 2.2190	14.2290
 2.2200	14.2270
 2.2210	14.2200
 2.2220	14.2090
 2.2230	14.1960
 2.2240	14.1790
 2.2250	14.1600
 2.2260	14.1400
 2.2270	14.1180
 2.2280	14.0940
 2.2290	14.0670
 2.2300	14.0360
 2.2310	14.0030
 2.2320	13.9670
 2.2330	13.9310
 2.2340	13.8920
 2.2350	13.8520
 2.2360	13.8080
 2.2370	13.7620
 2.2380	13.7120
 2.2390	13.6590
 2.2400	13.6060
 2.2410	13.5490
 2.2420	13.4930
 2.2430	13.4390
 2.2440	13.3790
 2.2450	13.3170
 2.2460	13.2540
 2.2470	13.1900
 2.2480	13.1210
 2.2490	13.0510
 2.2500	12.9780
 2.2510	12.9000
 2.2520	12.8230
 2.2530	12.7420
 2.2540	12.6620
 2.2550	12.5810
 2.2560	12.5000
 2.2570	12.4200
 2.2580	12.3390
 2.2590	12.2580
 2.2600	12.1770
 2.2610	12.0970
 2.2620	12.0160
 2.2630	11.9360
 2.2640	11.8580
 2.2650	11.7840
 2.2660	11.7120
 2.2670	11.6430
 2.2680	11.5800
 2.2690	11.5130
 2.2700	11.4440
 2.2710	11.3780
 2.2720	11.3090
 2.2730	11.2490
 2.2740	11.1960
 2.2750	11.1430
 2.2760	11.0930
 2.2770	11.0440
 2.2780	10.9970
 2.2790	10.9500
 2.2800	10.9030
 2.2810	10.8600
 2.2820	10.8200
 2.2830	10.7810
 2.2840	10.7510
 2.2850	10.7120
 2.2860	10.6690
 2.2870	10.6240
 2.2880	10.5720
 2.2890	10.5220
 2.2900	10.4730
 2.2910	10.4210
 2.2920	10.3660
 2.2930	10.3130
 2.2940	10.2560
 2.2950	10.2010
 2.2960	10.1420
 2.2970	10.0880
 2.2980	10.0360
 2.2990	 9.9840
 2.3000	 9.9340
 2.3010	 9.8810
 2.3020	 9.8320
 2.3030	 9.7840
 2.3040	 9.7370
 2.3050	 9.7030
 2.3060	 9.6660
 2.3070	 9.6320
 2.3080	 9.6100
 2.3090	 9.5900
 2.3100	 9.5830
 2.3110	 9.5830
 2.3120	 9.5790
 2.3130	 9.5760
 2.3140	 9.5750
 2.3150	 9.5710
 2.3160	 9.5690
 2.3170	 9.5720
 2.3180	 9.5710
 2.3190	 9.5740
 2.3200	 9.5670
 2.3210	 9.5560
 2.3220	 9.5450
 2.3230	 9.5250
 2.3240	 9.5120
 2.3250	 9.5040
 2.3260	 9.4890
 2.3270	 9.4710
 2.3280	 9.4480
 2.3290	 9.4180
 2.3300	 9.3870
 2.3310	 9.3460
 2.3320	 9.3130
 2.3330	 9.2730
 2.3340	 9.2390
 2.3350	 9.2070
 2.3360	 9.1750
 2.3370	 9.1460
 2.3380	 9.1150
 2.3390	 9.0820
 2.3400	 9.0500
 2.3410	 9.0170
 2.3420	 8.9820
 2.3430	 8.9470
 2.3440	 8.9120
 2.3450	 8.8750
 2.3460	 8.8400
 2.3470	 8.8020
 2.3480	 8.7720
 2.3490	 8.7450
 2.3500	 8.7210
 2.3510	 8.7040
 2.3520	 8.6900
 2.3530	 8.6770
 2.3540	 8.6670
 2.3550	 8.6600
 2.3560	 8.6490
 2.3570	 8.6350
 2.3580	 8.6240
 2.3590	 8.6020
 2.3600	 8.5760
 2.3610	 8.5550
 2.3620	 8.5310
 2.3630	 8.5070
 2.3640	 8.4840
 2.3650	 8.4570
 2.3660	 8.4210
 2.3670	 8.3940
 2.3680	 8.3740
 2.3690	 8.3450
 2.3700	 8.3290
 2.3710	 8.3110
 2.3720	 8.2820
 2.3730	 8.2640
 2.3740	 8.2370
 2.3750	 8.2040
 2.3760	 8.1780
 2.3770	 8.1520
 2.3780	 8.1240
 2.3790	 8.1020
 2.3800	 8.0780
 2.3810	 8.0520
 2.3820	 8.0280
 2.3830	 7.9970
 2.3840	 7.9630
 2.3850	 7.9330
 2.3860	 7.9080
 2.3870	 7.8870
 2.3880	 7.8710
 2.3890	 7.8550
 2.3900	 7.8270
 2.3910	 7.7950
 2.3920	 7.7610
 2.3930	 7.7210
 2.3940	 7.6840
 2.3950	 7.6510
 2.3960	 7.6200
 2.3970	 7.5980
 2.3980	 7.5730
 2.3990	 7.5360
 2.4000	 7.5080
 2.4010	 7.4910
 2.4020	 7.4550
 2.4030	 7.4300
 2.4040	 7.4090
 2.4050	 7.3700
 2.4060	 7.3430
 2.4070	 7.3180
 2.4080	 7.2880
 2.4090	 7.2600
 2.4100	 7.2310
 2.4110	 7.1960
 2.4120	 7.1530
 2.4130	 7.1270
 2.4140	 7.0920
 2.4150	 7.0580
 2.4160	 7.0260
 2.4170	 6.9760
 2.4180	 6.9360
 2.4190	 6.9020
 2.4200	 6.8720
 2.4210	 6.8550
 2.4220	 6.8340
 2.4230	 6.8140
 2.4240	 6.7890
 2.4250	 6.7490
 2.4260	 6.7150
 2.4270	 6.6750
 2.4280	 6.6340
 2.4290	 6.6060
 2.4300	 6.5670
 2.4310	 6.5240
 2.4320	 6.4770
 2.4330	 6.4130
 2.4340	 6.3640
 2.4350	 6.3260
 2.4360	 6.2910
 2.4370	 6.2780
 2.4380	 6.2560
 2.4390	 6.2230
 2.4400	 6.1890
 2.4410	 6.1570
 2.4420	 6.1320
 2.4430	 6.1070
 2.4440	 6.0840
 2.4450	 6.0590
 2.4460	 6.0190
 2.4470	 5.9760
 2.4480	 5.9340
 2.4490	 5.8810
 2.4500	 5.8470
 2.4510	 5.8310
 2.4520	 5.8040
 2.4530	 5.7850
 2.4540	 5.7470
 2.4550	 5.7090
 2.4560	 5.6840
 2.4570	 5.6320
 2.4580	 5.5990
 2.4590	 5.5870
 2.4600	 5.5570
 2.4610	 5.5380
 2.4620	 5.5270
 2.4630	 5.4740
 2.4640	 5.4190
 2.4650	 5.3780
 2.4660	 5.3450
 2.4670	 5.3330
 2.4680	 5.3180
 2.4690	 5.2890
 2.4700	 5.2700
 2.4710	 5.2470
 2.4720	 5.2300
 2.4730	 5.2220
 2.4740	 5.2070
 2.4750	 5.1790
 2.4760	 5.1670
 2.4770	 5.1830
 2.4780	 5.1780
 2.4790	 5.1720
 2.4800	 5.1470
 2.4810	 5.0870
 2.4820	 5.0440
 2.4830	 5.0020
 2.4840	 4.9820
 2.4850	 4.9810
 2.4860	 4.9550
 2.4870	 4.9370
 2.4880	 4.9410
 2.4890	 4.9650
 2.4900	 4.9800
 2.4910	 5.0070
 2.4920	 5.0200
 2.4930	 4.9980
 2.4940	 4.9940
 2.4950	 4.9790
 2.4960	 4.9570
 2.4970	 4.9350
 2.4980	 4.9210
 2.4990	 4.9320
 2.5000	 4.8970
