Name: Bambusa tuldoides
Type: vegetation
Class: Tree
Genus: Bambusa
Species: tuldoides
Sample No.: JPL216
Owner: JPL
Wavelength Range: VSWIR
Origin: 34.125377; -118.111364; WGS84
Collection Date: 10/3/2016
Description: Samples were collected at the Huntington Garden in San Marino California as part of a JPL Subcontract studying HyTES imagery. Samples were taken to JPL and processed within 48 hours of collection. The same leaves were processed in the Nicolet and then measured using the ASD.
Measurement: Bidirectional reflectance
First Column: X
Second Column: Y
X Units: Wavelength (micrometer)
Y Units: Reflectance (percentage)
First X Value: 0.35
Last X Value: 2.5
Number of X Values: 2151
Additional Information: vegetation.tree.bambusa.tuldoides.vswir.jpl216.jpl.asd.ancillary.txt

 0.3500	 7.2210
 0.3510	 7.2360
 0.3520	 7.2210
 0.3530	 7.0880
 0.3540	 6.8760
 0.3550	 6.9820
 0.3560	 7.0830
 0.3570	 7.0190
 0.3580	 6.7890
 0.3590	 6.8300
 0.3600	 6.9600
 0.3610	 7.0080
 0.3620	 6.9020
 0.3630	 6.8710
 0.3640	 6.8770
 0.3650	 6.8380
 0.3660	 6.7690
 0.3670	 6.7880
 0.3680	 6.8510
 0.3690	 6.8190
 0.3700	 6.8380
 0.3710	 6.8480
 0.3720	 6.8130
 0.3730	 6.7770
 0.3740	 6.8460
 0.3750	 6.9050
 0.3760	 6.8250
 0.3770	 6.7820
 0.3780	 6.7280
 0.3790	 6.7110
 0.3800	 6.8410
 0.3810	 6.8280
 0.3820	 6.7640
 0.3830	 6.7550
 0.3840	 6.7920
 0.3850	 6.8270
 0.3860	 6.8390
 0.3870	 6.8280
 0.3880	 6.8530
 0.3890	 6.8710
 0.3900	 6.8680
 0.3910	 6.8660
 0.3920	 6.8400
 0.3930	 6.8290
 0.3940	 6.8530
 0.3950	 6.8420
 0.3960	 6.8660
 0.3970	 6.8980
 0.3980	 6.8800
 0.3990	 6.8640
 0.4000	 6.8600
 0.4010	 6.8650
 0.4020	 6.8580
 0.4030	 6.8680
 0.4040	 6.8820
 0.4050	 6.8810
 0.4060	 6.8500
 0.4070	 6.8560
 0.4080	 6.8860
 0.4090	 6.8830
 0.4100	 6.8940
 0.4110	 6.8910
 0.4120	 6.8680
 0.4130	 6.8810
 0.4140	 6.9050
 0.4150	 6.9200
 0.4160	 6.9150
 0.4170	 6.9160
 0.4180	 6.9270
 0.4190	 6.9380
 0.4200	 6.9340
 0.4210	 6.9400
 0.4220	 6.9350
 0.4230	 6.9130
 0.4240	 6.9140
 0.4250	 6.9200
 0.4260	 6.9220
 0.4270	 6.9200
 0.4280	 6.9270
 0.4290	 6.9270
 0.4300	 6.9130
 0.4310	 6.8990
 0.4320	 6.8910
 0.4330	 6.8870
 0.4340	 6.8780
 0.4350	 6.8660
 0.4360	 6.8500
 0.4370	 6.8420
 0.4380	 6.8590
 0.4390	 6.8740
 0.4400	 6.8830
 0.4410	 6.8890
 0.4420	 6.8980
 0.4430	 6.8990
 0.4440	 6.9020
 0.4450	 6.9160
 0.4460	 6.9210
 0.4470	 6.9230
 0.4480	 6.9250
 0.4490	 6.9290
 0.4500	 6.9390
 0.4510	 6.9490
 0.4520	 6.9530
 0.4530	 6.9590
 0.4540	 6.9600
 0.4550	 6.9610
 0.4560	 6.9670
 0.4570	 6.9720
 0.4580	 6.9730
 0.4590	 6.9720
 0.4600	 6.9770
 0.4610	 6.9840
 0.4620	 6.9860
 0.4630	 6.9800
 0.4640	 6.9780
 0.4650	 6.9800
 0.4660	 6.9800
 0.4670	 6.9760
 0.4680	 6.9840
 0.4690	 6.9900
 0.4700	 6.9860
 0.4710	 6.9830
 0.4720	 6.9870
 0.4730	 6.9920
 0.4740	 6.9900
 0.4750	 6.9860
 0.4760	 6.9890
 0.4770	 6.9980
 0.4780	 6.9980
 0.4790	 6.9980
 0.4800	 7.0010
 0.4810	 7.0020
 0.4820	 7.0030
 0.4830	 7.0040
 0.4840	 7.0030
 0.4850	 6.9980
 0.4860	 6.9940
 0.4870	 6.9990
 0.4880	 7.0150
 0.4890	 7.0150
 0.4900	 7.0210
 0.4910	 7.0350
 0.4920	 7.0510
 0.4930	 7.0660
 0.4940	 7.0850
 0.4950	 7.1080
 0.4960	 7.1270
 0.4970	 7.1490
 0.4980	 7.1770
 0.4990	 7.2100
 0.5000	 7.2430
 0.5010	 7.2790
 0.5020	 7.3200
 0.5030	 7.3670
 0.5040	 7.4140
 0.5050	 7.4650
 0.5060	 7.5260
 0.5070	 7.5980
 0.5080	 7.6750
 0.5090	 7.7560
 0.5100	 7.8490
 0.5110	 7.9530
 0.5120	 8.0650
 0.5130	 8.1860
 0.5140	 8.3190
 0.5150	 8.4630
 0.5160	 8.6170
 0.5170	 8.7820
 0.5180	 8.9560
 0.5190	 9.1400
 0.5200	 9.3310
 0.5210	 9.5280
 0.5220	 9.7230
 0.5230	 9.9190
 0.5240	10.1180
 0.5250	10.3080
 0.5260	10.4940
 0.5270	10.6740
 0.5280	10.8460
 0.5290	11.0080
 0.5300	11.1600
 0.5310	11.2980
 0.5320	11.4240
 0.5330	11.5370
 0.5340	11.6400
 0.5350	11.7330
 0.5360	11.8110
 0.5370	11.8820
 0.5380	11.9450
 0.5390	11.9960
 0.5400	12.0350
 0.5410	12.0660
 0.5420	12.0950
 0.5430	12.1270
 0.5440	12.1620
 0.5450	12.1980
 0.5460	12.2370
 0.5470	12.2790
 0.5480	12.3180
 0.5490	12.3480
 0.5500	12.3680
 0.5510	12.3850
 0.5520	12.3960
 0.5530	12.3970
 0.5540	12.3860
 0.5550	12.3640
 0.5560	12.3300
 0.5570	12.2850
 0.5580	12.2260
 0.5590	12.1550
 0.5600	12.0730
 0.5610	11.9850
 0.5620	11.8870
 0.5630	11.7800
 0.5640	11.6690
 0.5650	11.5540
 0.5660	11.4370
 0.5670	11.3180
 0.5680	11.1930
 0.5690	11.0650
 0.5700	10.9380
 0.5710	10.8150
 0.5720	10.6990
 0.5730	10.5920
 0.5740	10.4890
 0.5750	10.3900
 0.5760	10.2970
 0.5770	10.2100
 0.5780	10.1300
 0.5790	10.0560
 0.5800	 9.9830
 0.5810	 9.9120
 0.5820	 9.8470
 0.5830	 9.7880
 0.5840	 9.7340
 0.5850	 9.6830
 0.5860	 9.6360
 0.5870	 9.5920
 0.5880	 9.5510
 0.5890	 9.5140
 0.5900	 9.4790
 0.5910	 9.4440
 0.5920	 9.4120
 0.5930	 9.3870
 0.5940	 9.3620
 0.5950	 9.3400
 0.5960	 9.3200
 0.5970	 9.3040
 0.5980	 9.2840
 0.5990	 9.2630
 0.6000	 9.2440
 0.6010	 9.2230
 0.6020	 9.1990
 0.6030	 9.1710
 0.6040	 9.1400
 0.6050	 9.1080
 0.6060	 9.0710
 0.6070	 9.0310
 0.6080	 8.9890
 0.6090	 8.9370
 0.6100	 8.8740
 0.6110	 8.8050
 0.6120	 8.7600
 0.6130	 8.7300
 0.6140	 8.7040
 0.6150	 8.6670
 0.6160	 8.6270
 0.6170	 8.5880
 0.6180	 8.5550
 0.6190	 8.5200
 0.6200	 8.4870
 0.6210	 8.4570
 0.6220	 8.4340
 0.6230	 8.4150
 0.6240	 8.3980
 0.6250	 8.3830
 0.6260	 8.3740
 0.6270	 8.3670
 0.6280	 8.3590
 0.6290	 8.3510
 0.6300	 8.3400
 0.6310	 8.3310
 0.6320	 8.3220
 0.6330	 8.3050
 0.6340	 8.2820
 0.6350	 8.2510
 0.6360	 8.2140
 0.6370	 8.1670
 0.6380	 8.1160
 0.6390	 8.0610
 0.6400	 8.0000
 0.6410	 7.9400
 0.6420	 7.8820
 0.6430	 7.8270
 0.6440	 7.7700
 0.6450	 7.7150
 0.6460	 7.6640
 0.6470	 7.6180
 0.6480	 7.5770
 0.6490	 7.5440
 0.6500	 7.5190
 0.6510	 7.5000
 0.6520	 7.4860
 0.6530	 7.4760
 0.6540	 7.4700
 0.6550	 7.4630
 0.6560	 7.4560
 0.6570	 7.4450
 0.6580	 7.4310
 0.6590	 7.4160
 0.6600	 7.3990
 0.6610	 7.3810
 0.6620	 7.3620
 0.6630	 7.3460
 0.6640	 7.3350
 0.6650	 7.3270
 0.6660	 7.3180
 0.6670	 7.3130
 0.6680	 7.3130
 0.6690	 7.3170
 0.6700	 7.3240
 0.6710	 7.3350
 0.6720	 7.3530
 0.6730	 7.3770
 0.6740	 7.4040
 0.6750	 7.4350
 0.6760	 7.4690
 0.6770	 7.5050
 0.6780	 7.5470
 0.6790	 7.5950
 0.6800	 7.6490
 0.6810	 7.7080
 0.6820	 7.7720
 0.6830	 7.8430
 0.6840	 7.9210
 0.6850	 8.0090
 0.6860	 8.1080
 0.6870	 8.2240
 0.6880	 8.3590
 0.6890	 8.5190
 0.6900	 8.7090
 0.6910	 8.9400
 0.6920	 9.2110
 0.6930	 9.5290
 0.6940	 9.8980
 0.6950	10.3210
 0.6960	10.7990
 0.6970	11.3320
 0.6980	11.9160
 0.6990	12.5470
 0.7000	13.2170
 0.7010	13.9200
 0.7020	14.6490
 0.7030	15.3930
 0.7040	16.1470
 0.7050	16.9060
 0.7060	17.6690
 0.7070	18.4320
 0.7080	19.1930
 0.7090	19.9540
 0.7100	20.7200
 0.7110	21.4890
 0.7120	22.2570
 0.7130	23.0270
 0.7140	23.8010
 0.7150	24.5790
 0.7160	25.3590
 0.7170	26.1440
 0.7180	26.9290
 0.7190	27.7140
 0.7200	28.5000
 0.7210	29.2820
 0.7220	30.0610
 0.7230	30.8380
 0.7240	31.6060
 0.7250	32.3630
 0.7260	33.1080
 0.7270	33.8400
 0.7280	34.5560
 0.7290	35.2570
 0.7300	35.9390
 0.7310	36.6000
 0.7320	37.2410
 0.7330	37.8600
 0.7340	38.4540
 0.7350	39.0220
 0.7360	39.5680
 0.7370	40.0890
 0.7380	40.5830
 0.7390	41.0540
 0.7400	41.4970
 0.7410	41.9130
 0.7420	42.3050
 0.7430	42.6680
 0.7440	43.0040
 0.7450	43.3160
 0.7460	43.6050
 0.7470	43.8720
 0.7480	44.1160
 0.7490	44.3370
 0.7500	44.5390
 0.7510	44.7220
 0.7520	44.8890
 0.7530	45.0420
 0.7540	45.1790
 0.7550	45.3030
 0.7560	45.4140
 0.7570	45.5160
 0.7580	45.6060
 0.7590	45.6890
 0.7600	45.7640
 0.7610	45.8280
 0.7620	45.8840
 0.7630	45.9320
 0.7640	45.9760
 0.7650	46.0150
 0.7660	46.0490
 0.7670	46.0790
 0.7680	46.1030
 0.7690	46.1240
 0.7700	46.1420
 0.7710	46.1580
 0.7720	46.1710
 0.7730	46.1830
 0.7740	46.1940
 0.7750	46.2030
 0.7760	46.2120
 0.7770	46.2190
 0.7780	46.2250
 0.7790	46.2330
 0.7800	46.2400
 0.7810	46.2430
 0.7820	46.2450
 0.7830	46.2500
 0.7840	46.2530
 0.7850	46.2530
 0.7860	46.2540
 0.7870	46.2540
 0.7880	46.2540
 0.7890	46.2530
 0.7900	46.2500
 0.7910	46.2460
 0.7920	46.2420
 0.7930	46.2380
 0.7940	46.2360
 0.7950	46.2290
 0.7960	46.2210
 0.7970	46.2140
 0.7980	46.2070
 0.7990	46.1970
 0.8000	46.1860
 0.8010	46.1750
 0.8020	46.1630
 0.8030	46.1520
 0.8040	46.1400
 0.8050	46.1280
 0.8060	46.1130
 0.8070	46.0980
 0.8080	46.0820
 0.8090	46.0700
 0.8100	46.0550
 0.8110	46.0390
 0.8120	46.0230
 0.8130	46.0050
 0.8140	45.9870
 0.8150	45.9670
 0.8160	45.9460
 0.8170	45.9300
 0.8180	45.9150
 0.8190	45.8990
 0.8200	45.8780
 0.8210	45.8590
 0.8220	45.8400
 0.8230	45.8200
 0.8240	45.8030
 0.8250	45.7890
 0.8260	45.7740
 0.8270	45.7560
 0.8280	45.7350
 0.8290	45.7190
 0.8300	45.7030
 0.8310	45.6840
 0.8320	45.6660
 0.8330	45.6490
 0.8340	45.6340
 0.8350	45.6200
 0.8360	45.6090
 0.8370	45.5970
 0.8380	45.5820
 0.8390	45.5680
 0.8400	45.5580
 0.8410	45.5480
 0.8420	45.5390
 0.8430	45.5310
 0.8440	45.5200
 0.8450	45.5110
 0.8460	45.5050
 0.8470	45.4970
 0.8480	45.4910
 0.8490	45.4850
 0.8500	45.4770
 0.8510	45.4720
 0.8520	45.4670
 0.8530	45.4610
 0.8540	45.4570
 0.8550	45.4590
 0.8560	45.4600
 0.8570	45.4570
 0.8580	45.4540
 0.8590	45.4520
 0.8600	45.4500
 0.8610	45.4490
 0.8620	45.4540
 0.8630	45.4540
 0.8640	45.4520
 0.8650	45.4540
 0.8660	45.4610
 0.8670	45.4600
 0.8680	45.4590
 0.8690	45.4660
 0.8700	45.4730
 0.8710	45.4760
 0.8720	45.4790
 0.8730	45.4890
 0.8740	45.4940
 0.8750	45.4990
 0.8760	45.5050
 0.8770	45.5130
 0.8780	45.5180
 0.8790	45.5240
 0.8800	45.5330
 0.8810	45.5390
 0.8820	45.5480
 0.8830	45.5580
 0.8840	45.5650
 0.8850	45.5680
 0.8860	45.5750
 0.8870	45.5820
 0.8880	45.5860
 0.8890	45.5930
 0.8900	45.6040
 0.8910	45.6120
 0.8920	45.6150
 0.8930	45.6200
 0.8940	45.6310
 0.8950	45.6440
 0.8960	45.6510
 0.8970	45.6540
 0.8980	45.6600
 0.8990	45.6680
 0.9000	45.6710
 0.9010	45.6800
 0.9020	45.6900
 0.9030	45.6960
 0.9040	45.7030
 0.9050	45.7080
 0.9060	45.7140
 0.9070	45.7200
 0.9080	45.7240
 0.9090	45.7240
 0.9100	45.7250
 0.9110	45.7300
 0.9120	45.7360
 0.9130	45.7340
 0.9140	45.7320
 0.9150	45.7410
 0.9160	45.7520
 0.9170	45.7530
 0.9180	45.7480
 0.9190	45.7490
 0.9200	45.7510
 0.9210	45.7490
 0.9220	45.7440
 0.9230	45.7410
 0.9240	45.7380
 0.9250	45.7370
 0.9260	45.7360
 0.9270	45.7290
 0.9280	45.7180
 0.9290	45.7050
 0.9300	45.6960
 0.9310	45.6900
 0.9320	45.6780
 0.9330	45.6700
 0.9340	45.6660
 0.9350	45.6530
 0.9360	45.6370
 0.9370	45.6200
 0.9380	45.6070
 0.9390	45.6030
 0.9400	45.5900
 0.9410	45.5710
 0.9420	45.5520
 0.9430	45.5330
 0.9440	45.5190
 0.9450	45.5050
 0.9460	45.4820
 0.9470	45.4520
 0.9480	45.4230
 0.9490	45.4030
 0.9500	45.3910
 0.9510	45.3570
 0.9520	45.3240
 0.9530	45.2970
 0.9540	45.2730
 0.9550	45.2540
 0.9560	45.2210
 0.9570	45.1840
 0.9580	45.1570
 0.9590	45.1340
 0.9600	45.1100
 0.9610	45.0860
 0.9620	45.0680
 0.9630	45.0480
 0.9640	45.0290
 0.9650	45.0140
 0.9660	45.0030
 0.9670	44.9910
 0.9680	44.9700
 0.9690	44.9500
 0.9700	44.9420
 0.9710	44.9420
 0.9720	44.9300
 0.9730	44.9120
 0.9740	44.9000
 0.9750	44.9000
 0.9760	44.8870
 0.9770	44.8740
 0.9780	44.8840
 0.9790	44.8810
 0.9800	44.8680
 0.9810	44.8580
 0.9820	44.8570
 0.9830	44.8430
 0.9840	44.8390
 0.9850	44.8420
 0.9860	44.8390
 0.9870	44.8380
 0.9880	44.8490
 0.9890	44.8520
 0.9900	44.8270
 0.9910	44.8150
 0.9920	44.8200
 0.9930	44.8350
 0.9940	44.8440
 0.9950	44.8300
 0.9960	44.8300
 0.9970	44.8320
 0.9980	44.8120
 0.9990	44.8310
 1.0000	44.8290
 1.0010	45.3560
 1.0020	45.3560
 1.0030	45.3560
 1.0040	45.3560
 1.0050	45.3590
 1.0060	45.3640
 1.0070	45.3630
 1.0080	45.3660
 1.0090	45.3760
 1.0100	45.3780
 1.0110	45.3760
 1.0120	45.3790
 1.0130	45.3780
 1.0140	45.3770
 1.0150	45.3760
 1.0160	45.3780
 1.0170	45.3770
 1.0180	45.3780
 1.0190	45.3790
 1.0200	45.3800
 1.0210	45.3800
 1.0220	45.3800
 1.0230	45.3830
 1.0240	45.3920
 1.0250	45.3940
 1.0260	45.3930
 1.0270	45.3960
 1.0280	45.3990
 1.0290	45.4010
 1.0300	45.4050
 1.0310	45.4080
 1.0320	45.4080
 1.0330	45.4080
 1.0340	45.4120
 1.0350	45.4140
 1.0360	45.4170
 1.0370	45.4230
 1.0380	45.4260
 1.0390	45.4310
 1.0400	45.4340
 1.0410	45.4350
 1.0420	45.4370
 1.0430	45.4380
 1.0440	45.4390
 1.0450	45.4380
 1.0460	45.4410
 1.0470	45.4490
 1.0480	45.4520
 1.0490	45.4540
 1.0500	45.4560
 1.0510	45.4570
 1.0520	45.4550
 1.0530	45.4550
 1.0540	45.4570
 1.0550	45.4560
 1.0560	45.4510
 1.0570	45.4490
 1.0580	45.4480
 1.0590	45.4480
 1.0600	45.4500
 1.0610	45.4520
 1.0620	45.4570
 1.0630	45.4570
 1.0640	45.4550
 1.0650	45.4520
 1.0660	45.4410
 1.0670	45.4350
 1.0680	45.4310
 1.0690	45.4280
 1.0700	45.4250
 1.0710	45.4260
 1.0720	45.4230
 1.0730	45.4180
 1.0740	45.4160
 1.0750	45.4180
 1.0760	45.4150
 1.0770	45.4140
 1.0780	45.4110
 1.0790	45.4020
 1.0800	45.3960
 1.0810	45.3920
 1.0820	45.3870
 1.0830	45.3840
 1.0840	45.3810
 1.0850	45.3750
 1.0860	45.3720
 1.0870	45.3700
 1.0880	45.3680
 1.0890	45.3640
 1.0900	45.3590
 1.0910	45.3530
 1.0920	45.3440
 1.0930	45.3390
 1.0940	45.3370
 1.0950	45.3330
 1.0960	45.3270
 1.0970	45.3220
 1.0980	45.3160
 1.0990	45.3100
 1.1000	45.3040
 1.1010	45.3000
 1.1020	45.2970
 1.1030	45.2910
 1.1040	45.2880
 1.1050	45.2870
 1.1060	45.2830
 1.1070	45.2780
 1.1080	45.2740
 1.1090	45.2670
 1.1100	45.2620
 1.1110	45.2570
 1.1120	45.2520
 1.1130	45.2480
 1.1140	45.2430
 1.1150	45.2370
 1.1160	45.2310
 1.1170	45.2230
 1.1180	45.2150
 1.1190	45.2070
 1.1200	45.1970
 1.1210	45.1840
 1.1220	45.1710
 1.1230	45.1550
 1.1240	45.1390
 1.1250	45.1230
 1.1260	45.1100
 1.1270	45.0900
 1.1280	45.0700
 1.1290	45.0450
 1.1300	45.0150
 1.1310	44.9840
 1.1320	44.9500
 1.1330	44.9150
 1.1340	44.8800
 1.1350	44.8390
 1.1360	44.7920
 1.1370	44.7460
 1.1380	44.6960
 1.1390	44.6430
 1.1400	44.5910
 1.1410	44.5390
 1.1420	44.4830
 1.1430	44.4270
 1.1440	44.3710
 1.1450	44.3120
 1.1460	44.2560
 1.1470	44.1990
 1.1480	44.1450
 1.1490	44.0930
 1.1500	44.0420
 1.1510	43.9900
 1.1520	43.9440
 1.1530	43.8990
 1.1540	43.8590
 1.1550	43.8220
 1.1560	43.7900
 1.1570	43.7600
 1.1580	43.7340
 1.1590	43.7100
 1.1600	43.6870
 1.1610	43.6660
 1.1620	43.6450
 1.1630	43.6260
 1.1640	43.6090
 1.1650	43.5940
 1.1660	43.5810
 1.1670	43.5690
 1.1680	43.5610
 1.1690	43.5510
 1.1700	43.5420
 1.1710	43.5340
 1.1720	43.5250
 1.1730	43.5160
 1.1740	43.5070
 1.1750	43.4960
 1.1760	43.4850
 1.1770	43.4740
 1.1780	43.4660
 1.1790	43.4570
 1.1800	43.4460
 1.1810	43.4350
 1.1820	43.4240
 1.1830	43.4120
 1.1840	43.4000
 1.1850	43.3890
 1.1860	43.3760
 1.1870	43.3640
 1.1880	43.3540
 1.1890	43.3450
 1.1900	43.3370
 1.1910	43.3310
 1.1920	43.3230
 1.1930	43.3130
 1.1940	43.3060
 1.1950	43.2980
 1.1960	43.2930
 1.1970	43.2890
 1.1980	43.2840
 1.1990	43.2800
 1.2000	43.2750
 1.2010	43.2720
 1.2020	43.2720
 1.2030	43.2710
 1.2040	43.2720
 1.2050	43.2730
 1.2060	43.2710
 1.2070	43.2730
 1.2080	43.2740
 1.2090	43.2730
 1.2100	43.2760
 1.2110	43.2790
 1.2120	43.2820
 1.2130	43.2860
 1.2140	43.2910
 1.2150	43.2950
 1.2160	43.2990
 1.2170	43.3040
 1.2180	43.3090
 1.2190	43.3130
 1.2200	43.3180
 1.2210	43.3260
 1.2220	43.3350
 1.2230	43.3430
 1.2240	43.3500
 1.2250	43.3550
 1.2260	43.3610
 1.2270	43.3700
 1.2280	43.3780
 1.2290	43.3870
 1.2300	43.3940
 1.2310	43.3990
 1.2320	43.4050
 1.2330	43.4080
 1.2340	43.4120
 1.2350	43.4170
 1.2360	43.4200
 1.2370	43.4220
 1.2380	43.4250
 1.2390	43.4280
 1.2400	43.4300
 1.2410	43.4340
 1.2420	43.4380
 1.2430	43.4420
 1.2440	43.4440
 1.2450	43.4460
 1.2460	43.4470
 1.2470	43.4480
 1.2480	43.4500
 1.2490	43.4520
 1.2500	43.4550
 1.2510	43.4560
 1.2520	43.4550
 1.2530	43.4530
 1.2540	43.4500
 1.2550	43.4490
 1.2560	43.4490
 1.2570	43.4490
 1.2580	43.4480
 1.2590	43.4470
 1.2600	43.4450
 1.2610	43.4420
 1.2620	43.4390
 1.2630	43.4340
 1.2640	43.4290
 1.2650	43.4220
 1.2660	43.4150
 1.2670	43.4110
 1.2680	43.4060
 1.2690	43.4010
 1.2700	43.3960
 1.2710	43.3870
 1.2720	43.3770
 1.2730	43.3680
 1.2740	43.3600
 1.2750	43.3540
 1.2760	43.3480
 1.2770	43.3400
 1.2780	43.3310
 1.2790	43.3210
 1.2800	43.3110
 1.2810	43.3000
 1.2820	43.2870
 1.2830	43.2760
 1.2840	43.2630
 1.2850	43.2480
 1.2860	43.2320
 1.2870	43.2150
 1.2880	43.1950
 1.2890	43.1770
 1.2900	43.1570
 1.2910	43.1370
 1.2920	43.1160
 1.2930	43.0930
 1.2940	43.0690
 1.2950	43.0420
 1.2960	43.0150
 1.2970	42.9880
 1.2980	42.9580
 1.2990	42.9290
 1.3000	42.8990
 1.3010	42.8670
 1.3020	42.8350
 1.3030	42.8020
 1.3040	42.7680
 1.3050	42.7350
 1.3060	42.6980
 1.3070	42.6600
 1.3080	42.6220
 1.3090	42.5800
 1.3100	42.5390
 1.3110	42.5000
 1.3120	42.4590
 1.3130	42.4170
 1.3140	42.3740
 1.3150	42.3280
 1.3160	42.2840
 1.3170	42.2380
 1.3180	42.1940
 1.3190	42.1480
 1.3200	42.0990
 1.3210	42.0490
 1.3220	41.9980
 1.3230	41.9450
 1.3240	41.8930
 1.3250	41.8400
 1.3260	41.7840
 1.3270	41.7280
 1.3280	41.6710
 1.3290	41.6130
 1.3300	41.5550
 1.3310	41.4970
 1.3320	41.4370
 1.3330	41.3770
 1.3340	41.3150
 1.3350	41.2530
 1.3360	41.1890
 1.3370	41.1250
 1.3380	41.0630
 1.3390	41.0000
 1.3400	40.9370
 1.3410	40.8740
 1.3420	40.8090
 1.3430	40.7460
 1.3440	40.6830
 1.3450	40.6200
 1.3460	40.5580
 1.3470	40.4960
 1.3480	40.4330
 1.3490	40.3710
 1.3500	40.3090
 1.3510	40.2450
 1.3520	40.1810
 1.3530	40.1180
 1.3540	40.0530
 1.3550	39.9880
 1.3560	39.9240
 1.3570	39.8570
 1.3580	39.7890
 1.3590	39.7210
 1.3600	39.6520
 1.3610	39.5800
 1.3620	39.5060
 1.3630	39.4300
 1.3640	39.3500
 1.3650	39.2660
 1.3660	39.1790
 1.3670	39.0850
 1.3680	38.9860
 1.3690	38.8830
 1.3700	38.7680
 1.3710	38.6460
 1.3720	38.5140
 1.3730	38.3710
 1.3740	38.2190
 1.3750	38.0550
 1.3760	37.8750
 1.3770	37.6810
 1.3780	37.4690
 1.3790	37.2420
 1.3800	36.9980
 1.3810	36.7350
 1.3820	36.4570
 1.3830	36.1650
 1.3840	35.8540
 1.3850	35.5260
 1.3860	35.1820
 1.3870	34.8200
 1.3880	34.4480
 1.3890	34.0610
 1.3900	33.6630
 1.3910	33.2570
 1.3920	32.8400
 1.3930	32.4140
 1.3940	31.9830
 1.3950	31.5440
 1.3960	31.1060
 1.3970	30.6710
 1.3980	30.2380
 1.3990	29.8160
 1.4000	29.3990
 1.4010	28.9890
 1.4020	28.5920
 1.4030	28.2040
 1.4040	27.8290
 1.4050	27.4690
 1.4060	27.1240
 1.4070	26.7980
 1.4080	26.4870
 1.4090	26.1900
 1.4100	25.9110
 1.4110	25.6450
 1.4120	25.3970
 1.4130	25.1640
 1.4140	24.9450
 1.4150	24.7440
 1.4160	24.5570
 1.4170	24.3820
 1.4180	24.2220
 1.4190	24.0710
 1.4200	23.9310
 1.4210	23.8020
 1.4220	23.6830
 1.4230	23.5740
 1.4240	23.4740
 1.4250	23.3810
 1.4260	23.2970
 1.4270	23.2190
 1.4280	23.1480
 1.4290	23.0840
 1.4300	23.0280
 1.4310	22.9770
 1.4320	22.9310
 1.4330	22.8910
 1.4340	22.8570
 1.4350	22.8280
 1.4360	22.8030
 1.4370	22.7830
 1.4380	22.7670
 1.4390	22.7540
 1.4400	22.7450
 1.4410	22.7380
 1.4420	22.7340
 1.4430	22.7330
 1.4440	22.7350
 1.4450	22.7390
 1.4460	22.7450
 1.4470	22.7530
 1.4480	22.7620
 1.4490	22.7720
 1.4500	22.7840
 1.4510	22.7980
 1.4520	22.8140
 1.4530	22.8320
 1.4540	22.8510
 1.4550	22.8730
 1.4560	22.8970
 1.4570	22.9240
 1.4580	22.9540
 1.4590	22.9860
 1.4600	23.0220
 1.4610	23.0640
 1.4620	23.1110
 1.4630	23.1620
 1.4640	23.2180
 1.4650	23.2760
 1.4660	23.3400
 1.4670	23.4080
 1.4680	23.4810
 1.4690	23.5590
 1.4700	23.6410
 1.4710	23.7280
 1.4720	23.8160
 1.4730	23.9080
 1.4740	24.0040
 1.4750	24.1030
 1.4760	24.2060
 1.4770	24.3110
 1.4780	24.4160
 1.4790	24.5230
 1.4800	24.6300
 1.4810	24.7390
 1.4820	24.8500
 1.4830	24.9620
 1.4840	25.0750
 1.4850	25.1890
 1.4860	25.3030
 1.4870	25.4190
 1.4880	25.5340
 1.4890	25.6500
 1.4900	25.7660
 1.4910	25.8830
 1.4920	25.9990
 1.4930	26.1150
 1.4940	26.2310
 1.4950	26.3490
 1.4960	26.4660
 1.4970	26.5830
 1.4980	26.6990
 1.4990	26.8130
 1.5000	26.9290
 1.5010	27.0450
 1.5020	27.1610
 1.5030	27.2800
 1.5040	27.3950
 1.5050	27.5090
 1.5060	27.6230
 1.5070	27.7350
 1.5080	27.8480
 1.5090	27.9620
 1.5100	28.0760
 1.5110	28.1900
 1.5120	28.3020
 1.5130	28.4120
 1.5140	28.5200
 1.5150	28.6280
 1.5160	28.7350
 1.5170	28.8430
 1.5180	28.9500
 1.5190	29.0560
 1.5200	29.1610
 1.5210	29.2640
 1.5220	29.3650
 1.5230	29.4670
 1.5240	29.5670
 1.5250	29.6650
 1.5260	29.7630
 1.5270	29.8570
 1.5280	29.9510
 1.5290	30.0460
 1.5300	30.1400
 1.5310	30.2350
 1.5320	30.3290
 1.5330	30.4200
 1.5340	30.5080
 1.5350	30.5950
 1.5360	30.6810
 1.5370	30.7640
 1.5380	30.8480
 1.5390	30.9320
 1.5400	31.0140
 1.5410	31.0970
 1.5420	31.1790
 1.5430	31.2590
 1.5440	31.3380
 1.5450	31.4150
 1.5460	31.4920
 1.5470	31.5690
 1.5480	31.6440
 1.5490	31.7180
 1.5500	31.7910
 1.5510	31.8620
 1.5520	31.9330
 1.5530	32.0030
 1.5540	32.0730
 1.5550	32.1410
 1.5560	32.2090
 1.5570	32.2770
 1.5580	32.3440
 1.5590	32.4090
 1.5600	32.4720
 1.5610	32.5310
 1.5620	32.5900
 1.5630	32.6500
 1.5640	32.7090
 1.5650	32.7690
 1.5660	32.8270
 1.5670	32.8830
 1.5680	32.9370
 1.5690	32.9900
 1.5700	33.0450
 1.5710	33.0980
 1.5720	33.1500
 1.5730	33.2020
 1.5740	33.2530
 1.5750	33.3030
 1.5760	33.3550
 1.5770	33.4060
 1.5780	33.4550
 1.5790	33.5060
 1.5800	33.5550
 1.5810	33.6030
 1.5820	33.6520
 1.5830	33.6990
 1.5840	33.7470
 1.5850	33.7930
 1.5860	33.8400
 1.5870	33.8880
 1.5880	33.9340
 1.5890	33.9820
 1.5900	34.0300
 1.5910	34.0760
 1.5920	34.1220
 1.5930	34.1670
 1.5940	34.2120
 1.5950	34.2570
 1.5960	34.3020
 1.5970	34.3470
 1.5980	34.3920
 1.5990	34.4370
 1.6000	34.4810
 1.6010	34.5250
 1.6020	34.5670
 1.6030	34.6080
 1.6040	34.6470
 1.6050	34.6880
 1.6060	34.7290
 1.6070	34.7680
 1.6080	34.8070
 1.6090	34.8440
 1.6100	34.8810
 1.6110	34.9170
 1.6120	34.9530
 1.6130	34.9890
 1.6140	35.0230
 1.6150	35.0570
 1.6160	35.0920
 1.6170	35.1240
 1.6180	35.1550
 1.6190	35.1860
 1.6200	35.2140
 1.6210	35.2460
 1.6220	35.2760
 1.6230	35.3040
 1.6240	35.3320
 1.6250	35.3580
 1.6260	35.3830
 1.6270	35.4100
 1.6280	35.4350
 1.6290	35.4610
 1.6300	35.4880
 1.6310	35.5130
 1.6320	35.5370
 1.6330	35.5600
 1.6340	35.5830
 1.6350	35.6040
 1.6360	35.6270
 1.6370	35.6480
 1.6380	35.6670
 1.6390	35.6850
 1.6400	35.7010
 1.6410	35.7170
 1.6420	35.7330
 1.6430	35.7480
 1.6440	35.7640
 1.6450	35.7790
 1.6460	35.7900
 1.6470	35.8010
 1.6480	35.8110
 1.6490	35.8190
 1.6500	35.8280
 1.6510	35.8340
 1.6520	35.8380
 1.6530	35.8410
 1.6540	35.8410
 1.6550	35.8410
 1.6560	35.8390
 1.6570	35.8360
 1.6580	35.8310
 1.6590	35.8250
 1.6600	35.8200
 1.6610	35.8120
 1.6620	35.8060
 1.6630	35.7980
 1.6640	35.7910
 1.6650	35.7850
 1.6660	35.7780
 1.6670	35.7700
 1.6680	35.7590
 1.6690	35.7470
 1.6700	35.7350
 1.6710	35.7200
 1.6720	35.7050
 1.6730	35.6910
 1.6740	35.6760
 1.6750	35.6610
 1.6760	35.6430
 1.6770	35.6240
 1.6780	35.6010
 1.6790	35.5780
 1.6800	35.5540
 1.6810	35.5300
 1.6820	35.5030
 1.6830	35.4750
 1.6840	35.4470
 1.6850	35.4170
 1.6860	35.3860
 1.6870	35.3570
 1.6880	35.3250
 1.6890	35.2950
 1.6900	35.2640
 1.6910	35.2310
 1.6920	35.2010
 1.6930	35.1710
 1.6940	35.1410
 1.6950	35.1140
 1.6960	35.0840
 1.6970	35.0510
 1.6980	35.0190
 1.6990	34.9870
 1.7000	34.9550
 1.7010	34.9260
 1.7020	34.8940
 1.7030	34.8620
 1.7040	34.8290
 1.7050	34.7950
 1.7060	34.7610
 1.7070	34.7270
 1.7080	34.6930
 1.7090	34.6580
 1.7100	34.6230
 1.7110	34.5880
 1.7120	34.5530
 1.7130	34.5190
 1.7140	34.4870
 1.7150	34.4540
 1.7160	34.4210
 1.7170	34.3890
 1.7180	34.3580
 1.7190	34.3250
 1.7200	34.2930
 1.7210	34.2610
 1.7220	34.2300
 1.7230	34.2000
 1.7240	34.1710
 1.7250	34.1420
 1.7260	34.1130
 1.7270	34.0860
 1.7280	34.0590
 1.7290	34.0330
 1.7300	34.0080
 1.7310	33.9840
 1.7320	33.9620
 1.7330	33.9400
 1.7340	33.9180
 1.7350	33.8960
 1.7360	33.8720
 1.7370	33.8480
 1.7380	33.8230
 1.7390	33.7970
 1.7400	33.7700
 1.7410	33.7380
 1.7420	33.7030
 1.7430	33.6670
 1.7440	33.6270
 1.7450	33.5870
 1.7460	33.5470
 1.7470	33.5030
 1.7480	33.4580
 1.7490	33.4120
 1.7500	33.3620
 1.7510	33.3160
 1.7520	33.2710
 1.7530	33.2240
 1.7540	33.1780
 1.7550	33.1310
 1.7560	33.0810
 1.7570	33.0340
 1.7580	32.9880
 1.7590	32.9430
 1.7600	32.8990
 1.7610	32.8530
 1.7620	32.8100
 1.7630	32.7690
 1.7640	32.7300
 1.7650	32.6930
 1.7660	32.6580
 1.7670	32.6250
 1.7680	32.5910
 1.7690	32.5580
 1.7700	32.5260
 1.7710	32.4930
 1.7720	32.4640
 1.7730	32.4380
 1.7740	32.4110
 1.7750	32.3860
 1.7760	32.3610
 1.7770	32.3360
 1.7780	32.3140
 1.7790	32.2920
 1.7800	32.2720
 1.7810	32.2560
 1.7820	32.2390
 1.7830	32.2250
 1.7840	32.2110
 1.7850	32.1980
 1.7860	32.1860
 1.7870	32.1740
 1.7880	32.1660
 1.7890	32.1600
 1.7900	32.1560
 1.7910	32.1530
 1.7920	32.1480
 1.7930	32.1450
 1.7940	32.1430
 1.7950	32.1420
 1.7960	32.1430
 1.7970	32.1440
 1.7980	32.1450
 1.7990	32.1470
 1.8000	32.1480
 1.8010	32.1510
 1.8020	32.1570
 1.8030	32.1610
 1.8040	32.1650
 1.8050	32.1680
 1.8060	32.1700
 1.8070	32.1720
 1.8080	32.1730
 1.8090	32.1750
 1.8100	32.1800
 1.8110	32.1810
 1.8120	32.1820
 1.8130	32.1820
 1.8140	32.1830
 1.8150	32.1860
 1.8160	32.1880
 1.8170	32.1840
 1.8180	32.1770
 1.8190	32.1730
 1.8200	32.1680
 1.8210	32.1660
 1.8220	32.1610
 1.8230	32.1490
 1.8240	32.1400
 1.8250	32.1310
 1.8260	32.1220
 1.8270	32.1130
 1.8280	32.1030
 1.8290	32.0900
 1.8300	32.0760
 1.8310	32.0500
 1.8320	32.0300
 1.8330	32.0070
 1.8340	31.9800
 1.8350	31.9450
 1.8360	31.9080
 1.8370	31.8750
 1.8380	31.8370
 1.8390	31.7950
 1.8400	31.7530
 1.8410	31.7050
 1.8420	31.6520
 1.8430	31.5950
 1.8440	31.5320
 1.8450	31.4640
 1.8460	31.3910
 1.8470	31.3100
 1.8480	31.2250
 1.8490	31.1350
 1.8500	31.0310
 1.8510	30.9180
 1.8520	30.7930
 1.8530	30.6570
 1.8540	30.5100
 1.8550	30.3560
 1.8560	30.1900
 1.8570	30.0120
 1.8580	29.8250
 1.8590	29.6210
 1.8600	29.4030
 1.8610	29.1730
 1.8620	28.9290
 1.8630	28.6650
 1.8640	28.3840
 1.8650	28.0880
 1.8660	27.7700
 1.8670	27.4310
 1.8680	27.0760
 1.8690	26.6980
 1.8700	26.2980
 1.8710	25.8770
 1.8720	25.4430
 1.8730	24.9890
 1.8740	24.5160
 1.8750	24.0320
 1.8760	23.5290
 1.8770	23.0190
 1.8780	22.5000
 1.8790	21.9690
 1.8800	21.4380
 1.8810	20.9040
 1.8820	20.3580
 1.8830	19.8080
 1.8840	19.2580
 1.8850	18.7040
 1.8860	18.1600
 1.8870	17.6240
 1.8880	17.0960
 1.8890	16.5840
 1.8900	16.0850
 1.8910	15.6050
 1.8920	15.1380
 1.8930	14.6970
 1.8940	14.2760
 1.8950	13.8760
 1.8960	13.5030
 1.8970	13.1540
 1.8980	12.8310
 1.8990	12.5340
 1.9000	12.2590
 1.9010	12.0110
 1.9020	11.7800
 1.9030	11.5700
 1.9040	11.3800
 1.9050	11.2080
 1.9060	11.0500
 1.9070	10.9120
 1.9080	10.7890
 1.9090	10.6770
 1.9100	10.5810
 1.9110	10.4930
 1.9120	10.4170
 1.9130	10.3470
 1.9140	10.2850
 1.9150	10.2280
 1.9160	10.1810
 1.9170	10.1410
 1.9180	10.1060
 1.9190	10.0780
 1.9200	10.0530
 1.9210	10.0340
 1.9220	10.0180
 1.9230	10.0080
 1.9240	 9.9990
 1.9250	 9.9930
 1.9260	 9.9900
 1.9270	 9.9900
 1.9280	 9.9930
 1.9290	10.0030
 1.9300	10.0140
 1.9310	10.0270
 1.9320	10.0450
 1.9330	10.0630
 1.9340	10.0810
 1.9350	10.1030
 1.9360	10.1260
 1.9370	10.1520
 1.9380	10.1800
 1.9390	10.2130
 1.9400	10.2470
 1.9410	10.2830
 1.9420	10.3190
 1.9430	10.3590
 1.9440	10.4010
 1.9450	10.4460
 1.9460	10.4910
 1.9470	10.5390
 1.9480	10.5880
 1.9490	10.6390
 1.9500	10.6900
 1.9510	10.7440
 1.9520	10.8000
 1.9530	10.8550
 1.9540	10.9110
 1.9550	10.9690
 1.9560	11.0270
 1.9570	11.0870
 1.9580	11.1480
 1.9590	11.2120
 1.9600	11.2780
 1.9610	11.3440
 1.9620	11.4090
 1.9630	11.4770
 1.9640	11.5440
 1.9650	11.6140
 1.9660	11.6880
 1.9670	11.7610
 1.9680	11.8340
 1.9690	11.9050
 1.9700	11.9800
 1.9710	12.0550
 1.9720	12.1340
 1.9730	12.2180
 1.9740	12.3020
 1.9750	12.3830
 1.9760	12.4680
 1.9770	12.5510
 1.9780	12.6310
 1.9790	12.7140
 1.9800	12.8000
 1.9810	12.8840
 1.9820	12.9690
 1.9830	13.0550
 1.9840	13.1410
 1.9850	13.2290
 1.9860	13.3200
 1.9870	13.4090
 1.9880	13.5010
 1.9890	13.5930
 1.9900	13.6860
 1.9910	13.7800
 1.9920	13.8730
 1.9930	13.9660
 1.9940	14.0600
 1.9950	14.1540
 1.9960	14.2470
 1.9970	14.3420
 1.9980	14.4350
 1.9990	14.5270
 2.0000	14.6170
 2.0010	14.7090
 2.0020	14.7990
 2.0030	14.8900
 2.0040	14.9820
 2.0050	15.0760
 2.0060	15.1730
 2.0070	15.2650
 2.0080	15.3590
 2.0090	15.4490
 2.0100	15.5340
 2.0110	15.6220
 2.0120	15.7110
 2.0130	15.7990
 2.0140	15.8870
 2.0150	15.9740
 2.0160	16.0620
 2.0170	16.1490
 2.0180	16.2320
 2.0190	16.3120
 2.0200	16.3930
 2.0210	16.4720
 2.0220	16.5520
 2.0230	16.6350
 2.0240	16.7150
 2.0250	16.7930
 2.0260	16.8700
 2.0270	16.9470
 2.0280	17.0220
 2.0290	17.0950
 2.0300	17.1660
 2.0310	17.2360
 2.0320	17.3040
 2.0330	17.3710
 2.0340	17.4380
 2.0350	17.5030
 2.0360	17.5650
 2.0370	17.6280
 2.0380	17.6930
 2.0390	17.7550
 2.0400	17.8160
 2.0410	17.8770
 2.0420	17.9370
 2.0430	17.9940
 2.0440	18.0490
 2.0450	18.1060
 2.0460	18.1590
 2.0470	18.2060
 2.0480	18.2580
 2.0490	18.3100
 2.0500	18.3630
 2.0510	18.4200
 2.0520	18.4740
 2.0530	18.5260
 2.0540	18.5790
 2.0550	18.6300
 2.0560	18.6830
 2.0570	18.7380
 2.0580	18.7920
 2.0590	18.8460
 2.0600	18.9000
 2.0610	18.9540
 2.0620	19.0060
 2.0630	19.0630
 2.0640	19.1230
 2.0650	19.1790
 2.0660	19.2350
 2.0670	19.2920
 2.0680	19.3440
 2.0690	19.4000
 2.0700	19.4630
 2.0710	19.5200
 2.0720	19.5720
 2.0730	19.6270
 2.0740	19.6810
 2.0750	19.7310
 2.0760	19.7830
 2.0770	19.8380
 2.0780	19.8940
 2.0790	19.9530
 2.0800	20.0090
 2.0810	20.0640
 2.0820	20.1210
 2.0830	20.1760
 2.0840	20.2330
 2.0850	20.2980
 2.0860	20.3560
 2.0870	20.4100
 2.0880	20.4630
 2.0890	20.5160
 2.0900	20.5650
 2.0910	20.6180
 2.0920	20.6730
 2.0930	20.7260
 2.0940	20.7810
 2.0950	20.8310
 2.0960	20.8750
 2.0970	20.9250
 2.0980	20.9750
 2.0990	21.0250
 2.1000	21.0800
 2.1010	21.1330
 2.1020	21.1860
 2.1030	21.2360
 2.1040	21.2840
 2.1050	21.3330
 2.1060	21.3800
 2.1070	21.4240
 2.1080	21.4720
 2.1090	21.5240
 2.1100	21.5740
 2.1110	21.6240
 2.1120	21.6730
 2.1130	21.7190
 2.1140	21.7670
 2.1150	21.8180
 2.1160	21.8670
 2.1170	21.9170
 2.1180	21.9650
 2.1190	22.0130
 2.1200	22.0600
 2.1210	22.1090
 2.1220	22.1590
 2.1230	22.2030
 2.1240	22.2450
 2.1250	22.2880
 2.1260	22.3290
 2.1270	22.3720
 2.1280	22.4170
 2.1290	22.4600
 2.1300	22.5010
 2.1310	22.5410
 2.1320	22.5800
 2.1330	22.6180
 2.1340	22.6550
 2.1350	22.6920
 2.1360	22.7330
 2.1370	22.7690
 2.1380	22.8010
 2.1390	22.8340
 2.1400	22.8640
 2.1410	22.8950
 2.1420	22.9290
 2.1430	22.9670
 2.1440	23.0010
 2.1450	23.0350
 2.1460	23.0660
 2.1470	23.0940
 2.1480	23.1220
 2.1490	23.1500
 2.1500	23.1750
 2.1510	23.1970
 2.1520	23.2210
 2.1530	23.2460
 2.1540	23.2680
 2.1550	23.2900
 2.1560	23.3100
 2.1570	23.3280
 2.1580	23.3450
 2.1590	23.3620
 2.1600	23.3780
 2.1610	23.3920
 2.1620	23.4060
 2.1630	23.4220
 2.1640	23.4380
 2.1650	23.4550
 2.1660	23.4750
 2.1670	23.4910
 2.1680	23.5080
 2.1690	23.5230
 2.1700	23.5360
 2.1710	23.5510
 2.1720	23.5700
 2.1730	23.5850
 2.1740	23.5980
 2.1750	23.6120
 2.1760	23.6240
 2.1770	23.6360
 2.1780	23.6480
 2.1790	23.6630
 2.1800	23.6810
 2.1810	23.6960
 2.1820	23.7060
 2.1830	23.7200
 2.1840	23.7340
 2.1850	23.7430
 2.1860	23.7580
 2.1870	23.7790
 2.1880	23.7980
 2.1890	23.8200
 2.1900	23.8370
 2.1910	23.8550
 2.1920	23.8680
 2.1930	23.8770
 2.1940	23.8870
 2.1950	23.8930
 2.1960	23.9020
 2.1970	23.9130
 2.1980	23.9210
 2.1990	23.9280
 2.2000	23.9370
 2.2010	23.9480
 2.2020	23.9560
 2.2030	23.9680
 2.2040	23.9750
 2.2050	23.9750
 2.2060	23.9760
 2.2070	23.9770
 2.2080	23.9770
 2.2090	23.9740
 2.2100	23.9700
 2.2110	23.9660
 2.2120	23.9580
 2.2130	23.9520
 2.2140	23.9500
 2.2150	23.9440
 2.2160	23.9370
 2.2170	23.9280
 2.2180	23.9170
 2.2190	23.9070
 2.2200	23.8990
 2.2210	23.8830
 2.2220	23.8650
 2.2230	23.8440
 2.2240	23.8150
 2.2250	23.7910
 2.2260	23.7710
 2.2270	23.7440
 2.2280	23.7180
 2.2290	23.6850
 2.2300	23.6430
 2.2310	23.6000
 2.2320	23.5550
 2.2330	23.5070
 2.2340	23.4550
 2.2350	23.4000
 2.2360	23.3420
 2.2370	23.2770
 2.2380	23.2140
 2.2390	23.1500
 2.2400	23.0830
 2.2410	23.0120
 2.2420	22.9460
 2.2430	22.8820
 2.2440	22.8180
 2.2450	22.7590
 2.2460	22.6980
 2.2470	22.6360
 2.2480	22.5730
 2.2490	22.5090
 2.2500	22.4470
 2.2510	22.3860
 2.2520	22.3270
 2.2530	22.2720
 2.2540	22.2180
 2.2550	22.1660
 2.2560	22.1110
 2.2570	22.0560
 2.2580	22.0000
 2.2590	21.9380
 2.2600	21.8780
 2.2610	21.8210
 2.2620	21.7610
 2.2630	21.6990
 2.2640	21.6380
 2.2650	21.5810
 2.2660	21.5230
 2.2670	21.4680
 2.2680	21.4190
 2.2690	21.3680
 2.2700	21.3150
 2.2710	21.2640
 2.2720	21.2120
 2.2730	21.1650
 2.2740	21.1210
 2.2750	21.0790
 2.2760	21.0420
 2.2770	21.0090
 2.2780	20.9810
 2.2790	20.9500
 2.2800	20.9250
 2.2810	20.8920
 2.2820	20.8500
 2.2830	20.8130
 2.2840	20.7750
 2.2850	20.7380
 2.2860	20.7030
 2.2870	20.6690
 2.2880	20.6410
 2.2890	20.6060
 2.2900	20.5720
 2.2910	20.5330
 2.2920	20.4880
 2.2930	20.4420
 2.2940	20.3930
 2.2950	20.3430
 2.2960	20.2890
 2.2970	20.2360
 2.2980	20.1840
 2.2990	20.1260
 2.3000	20.0730
 2.3010	20.0120
 2.3020	19.9500
 2.3030	19.8920
 2.3040	19.8310
 2.3050	19.7720
 2.3060	19.7230
 2.3070	19.6750
 2.3080	19.6270
 2.3090	19.5820
 2.3100	19.5270
 2.3110	19.4740
 2.3120	19.4300
 2.3130	19.3880
 2.3140	19.3540
 2.3150	19.3330
 2.3160	19.3050
 2.3170	19.2790
 2.3180	19.2520
 2.3190	19.2270
 2.3200	19.1960
 2.3210	19.1590
 2.3220	19.1270
 2.3230	19.0930
 2.3240	19.0610
 2.3250	19.0340
 2.3260	19.0010
 2.3270	18.9610
 2.3280	18.9260
 2.3290	18.8920
 2.3300	18.8540
 2.3310	18.8130
 2.3320	18.7730
 2.3330	18.7280
 2.3340	18.6870
 2.3350	18.6550
 2.3360	18.6140
 2.3370	18.5680
 2.3380	18.5250
 2.3390	18.4750
 2.3400	18.4310
 2.3410	18.3930
 2.3420	18.3520
 2.3430	18.3120
 2.3440	18.2710
 2.3450	18.2300
 2.3460	18.1890
 2.3470	18.1460
 2.3480	18.1060
 2.3490	18.0630
 2.3500	18.0260
 2.3510	17.9960
 2.3520	17.9600
 2.3530	17.9210
 2.3540	17.8880
 2.3550	17.8480
 2.3560	17.8180
 2.3570	17.7960
 2.3580	17.7690
 2.3590	17.7400
 2.3600	17.7090
 2.3610	17.6740
 2.3620	17.6350
 2.3630	17.5950
 2.3640	17.5560
 2.3650	17.5140
 2.3660	17.4700
 2.3670	17.4330
 2.3680	17.3930
 2.3690	17.3500
 2.3700	17.3160
 2.3710	17.2780
 2.3720	17.2340
 2.3730	17.1980
 2.3740	17.1590
 2.3750	17.1110
 2.3760	17.0700
 2.3770	17.0300
 2.3780	16.9750
 2.3790	16.9220
 2.3800	16.8730
 2.3810	16.8220
 2.3820	16.7770
 2.3830	16.7360
 2.3840	16.6920
 2.3850	16.6500
 2.3860	16.6080
 2.3870	16.5630
 2.3880	16.5280
 2.3890	16.4830
 2.3900	16.4320
 2.3910	16.3850
 2.3920	16.3220
 2.3930	16.2550
 2.3940	16.1980
 2.3950	16.1510
 2.3960	16.1120
 2.3970	16.0730
 2.3980	16.0280
 2.3990	15.9770
 2.4000	15.9210
 2.4010	15.8710
 2.4020	15.8300
 2.4030	15.7760
 2.4040	15.7240
 2.4050	15.6770
 2.4060	15.6250
 2.4070	15.5800
 2.4080	15.5400
 2.4090	15.4880
 2.4100	15.4330
 2.4110	15.3840
 2.4120	15.3330
 2.4130	15.2800
 2.4140	15.2180
 2.4150	15.1520
 2.4160	15.0810
 2.4170	15.0150
 2.4180	14.9840
 2.4190	14.9500
 2.4200	14.9120
 2.4210	14.8720
 2.4220	14.8010
 2.4230	14.7410
 2.4240	14.6960
 2.4250	14.6470
 2.4260	14.6070
 2.4270	14.5480
 2.4280	14.4640
 2.4290	14.3810
 2.4300	14.3190
 2.4310	14.2700
 2.4320	14.2290
 2.4330	14.2000
 2.4340	14.1520
 2.4350	14.0800
 2.4360	14.0190
 2.4370	13.9530
 2.4380	13.8920
 2.4390	13.8690
 2.4400	13.8290
 2.4410	13.7830
 2.4420	13.7350
 2.4430	13.6490
 2.4440	13.5640
 2.4450	13.4830
 2.4460	13.3930
 2.4470	13.3330
 2.4480	13.2820
 2.4490	13.2210
 2.4500	13.1780
 2.4510	13.1290
 2.4520	13.0700
 2.4530	13.0240
 2.4540	12.9850
 2.4550	12.9490
 2.4560	12.9120
 2.4570	12.8660
 2.4580	12.8080
 2.4590	12.7420
 2.4600	12.6730
 2.4610	12.6070
 2.4620	12.5550
 2.4630	12.5210
 2.4640	12.4730
 2.4650	12.4230
 2.4660	12.3980
 2.4670	12.3490
 2.4680	12.2970
 2.4690	12.3010
 2.4700	12.2570
 2.4710	12.1800
 2.4720	12.1350
 2.4730	12.0750
 2.4740	12.0230
 2.4750	12.0030
 2.4760	11.9640
 2.4770	11.8920
 2.4780	11.8590
 2.4790	11.8650
 2.4800	11.8420
 2.4810	11.8340
 2.4820	11.7820
 2.4830	11.7100
 2.4840	11.6700
 2.4850	11.6340
 2.4860	11.6360
 2.4870	11.6310
 2.4880	11.5870
 2.4890	11.5670
 2.4900	11.5520
 2.4910	11.5650
 2.4920	11.6020
 2.4930	11.5830
 2.4940	11.5340
 2.4950	11.4540
 2.4960	11.3660
 2.4970	11.3500
 2.4980	11.3320
 2.4990	11.3140
 2.5000	11.3420
