Name: Umbellularia californica 1
Type: vegetation
Class: Shrub
Genus: Umbellularia
Species: californica
Sample No.: VH104
Owner: UCSB
Wavelength Range: VSWIR
Origin: 34.5074; -119.7634; WGS84
Collection Date: 6/3/2013
Description: Samples were collected as part of the HyspIRI Airborne Campaign. 48 individual plants were sampled in three times in 2013 - spring  summer  and fall. The name of the sample includes a 1  2  or 3 which references a different individual of the species. Samples were taken to JPL and processed within 48 hours of collection. The same leaves were processed in the Nicolet and then measured using the ASD.
Measurement: Bidirectional reflectance
First Column: X
Second Column: Y
X Units: Wavelength (micrometers)
Y Units: Reflectance (percentage)
First X Value: 0.35
Last X Value: 2.5
Number of X Values: 2151
Additional Information: vegetation.shrub.umbellularia.californica.vswir.vh104.ucsb.asd.ancillary.txt

 0.3500	 4.4660
 0.3510	 4.3450
 0.3520	 4.5490
 0.3530	 4.6830
 0.3540	 4.5060
 0.3550	 4.5430
 0.3560	 4.5710
 0.3570	 4.5670
 0.3580	 4.6040
 0.3590	 4.5800
 0.3600	 4.5550
 0.3610	 4.5480
 0.3620	 4.5060
 0.3630	 4.4910
 0.3640	 4.4670
 0.3650	 4.4120
 0.3660	 4.4530
 0.3670	 4.4790
 0.3680	 4.4740
 0.3690	 4.4870
 0.3700	 4.5020
 0.3710	 4.4830
 0.3720	 4.4170
 0.3730	 4.3130
 0.3740	 4.3520
 0.3750	 4.4230
 0.3760	 4.3780
 0.3770	 4.3710
 0.3780	 4.3760
 0.3790	 4.3800
 0.3800	 4.3870
 0.3810	 4.4050
 0.3820	 4.4050
 0.3830	 4.3800
 0.3840	 4.3970
 0.3850	 4.3960
 0.3860	 4.3790
 0.3870	 4.3670
 0.3880	 4.3590
 0.3890	 4.3610
 0.3900	 4.3720
 0.3910	 4.3750
 0.3920	 4.3700
 0.3930	 4.3530
 0.3940	 4.3270
 0.3950	 4.3230
 0.3960	 4.3380
 0.3970	 4.3480
 0.3980	 4.3350
 0.3990	 4.3710
 0.4000	 4.4010
 0.4010	 4.3970
 0.4020	 4.3710
 0.4030	 4.3490
 0.4040	 4.3530
 0.4050	 4.3850
 0.4060	 4.3820
 0.4070	 4.3730
 0.4080	 4.3710
 0.4090	 4.3740
 0.4100	 4.3790
 0.4110	 4.3870
 0.4120	 4.3980
 0.4130	 4.4130
 0.4140	 4.4380
 0.4150	 4.4500
 0.4160	 4.4320
 0.4170	 4.4610
 0.4180	 4.4720
 0.4190	 4.4560
 0.4200	 4.4640
 0.4210	 4.4920
 0.4220	 4.5140
 0.4230	 4.5150
 0.4240	 4.5300
 0.4250	 4.5660
 0.4260	 4.5990
 0.4270	 4.6000
 0.4280	 4.6200
 0.4290	 4.6520
 0.4300	 4.6810
 0.4310	 4.6920
 0.4320	 4.7240
 0.4330	 4.7700
 0.4340	 4.8140
 0.4350	 4.8560
 0.4360	 4.8740
 0.4370	 4.8680
 0.4380	 4.8580
 0.4390	 4.8590
 0.4400	 4.8720
 0.4410	 4.8920
 0.4420	 4.9010
 0.4430	 4.9160
 0.4440	 4.9400
 0.4450	 4.9700
 0.4460	 4.9860
 0.4470	 4.9940
 0.4480	 5.0000
 0.4490	 5.0130
 0.4500	 5.0360
 0.4510	 5.0640
 0.4520	 5.0890
 0.4530	 5.1010
 0.4540	 5.1120
 0.4550	 5.1230
 0.4560	 5.1290
 0.4570	 5.1410
 0.4580	 5.1550
 0.4590	 5.1670
 0.4600	 5.1740
 0.4610	 5.1830
 0.4620	 5.1940
 0.4630	 5.2030
 0.4640	 5.2120
 0.4650	 5.2120
 0.4660	 5.2060
 0.4670	 5.2130
 0.4680	 5.2150
 0.4690	 5.2110
 0.4700	 5.2060
 0.4710	 5.2080
 0.4720	 5.2170
 0.4730	 5.2320
 0.4740	 5.2480
 0.4750	 5.2460
 0.4760	 5.2390
 0.4770	 5.2400
 0.4780	 5.2480
 0.4790	 5.2410
 0.4800	 5.2350
 0.4810	 5.2480
 0.4820	 5.2600
 0.4830	 5.2820
 0.4840	 5.3080
 0.4850	 5.3210
 0.4860	 5.3360
 0.4870	 5.3600
 0.4880	 5.3930
 0.4890	 5.4140
 0.4900	 5.4400
 0.4910	 5.4750
 0.4920	 5.5200
 0.4930	 5.5670
 0.4940	 5.6190
 0.4950	 5.6780
 0.4960	 5.7420
 0.4970	 5.8100
 0.4980	 5.8850
 0.4990	 5.9710
 0.5000	 6.0740
 0.5010	 6.1840
 0.5020	 6.3010
 0.5030	 6.4330
 0.5040	 6.5800
 0.5050	 6.7440
 0.5060	 6.9230
 0.5070	 7.1180
 0.5080	 7.3280
 0.5090	 7.5550
 0.5100	 7.8000
 0.5110	 8.0580
 0.5120	 8.3390
 0.5130	 8.6460
 0.5140	 8.9640
 0.5150	 9.2980
 0.5160	 9.6530
 0.5170	10.0280
 0.5180	10.4130
 0.5190	10.8070
 0.5200	11.2090
 0.5210	11.6200
 0.5220	12.0340
 0.5230	12.4520
 0.5240	12.8690
 0.5250	13.2720
 0.5260	13.6660
 0.5270	14.0510
 0.5280	14.4210
 0.5290	14.7820
 0.5300	15.1190
 0.5310	15.4320
 0.5320	15.7330
 0.5330	16.0200
 0.5340	16.2880
 0.5350	16.5340
 0.5360	16.7600
 0.5370	16.9710
 0.5380	17.1710
 0.5390	17.3660
 0.5400	17.5630
 0.5410	17.7620
 0.5420	17.9510
 0.5430	18.1080
 0.5440	18.2540
 0.5450	18.3850
 0.5460	18.4880
 0.5470	18.5580
 0.5480	18.6200
 0.5490	18.6870
 0.5500	18.7550
 0.5510	18.8080
 0.5520	18.8390
 0.5530	18.8470
 0.5540	18.8370
 0.5550	18.8060
 0.5560	18.7500
 0.5570	18.6750
 0.5580	18.5800
 0.5590	18.4640
 0.5600	18.3290
 0.5610	18.1840
 0.5620	18.0310
 0.5630	17.8690
 0.5640	17.6880
 0.5650	17.4910
 0.5660	17.2730
 0.5670	17.0340
 0.5680	16.7790
 0.5690	16.5210
 0.5700	16.2650
 0.5710	16.0110
 0.5720	15.7590
 0.5730	15.5110
 0.5740	15.2830
 0.5750	15.0900
 0.5760	14.9250
 0.5770	14.7650
 0.5780	14.5990
 0.5790	14.4430
 0.5800	14.2890
 0.5810	14.1390
 0.5820	14.0000
 0.5830	13.8640
 0.5840	13.7230
 0.5850	13.5810
 0.5860	13.4490
 0.5870	13.3210
 0.5880	13.1980
 0.5890	13.0840
 0.5900	13.0010
 0.5910	12.9390
 0.5920	12.8840
 0.5930	12.8190
 0.5940	12.7470
 0.5950	12.6740
 0.5960	12.6020
 0.5970	12.5320
 0.5980	12.4670
 0.5990	12.4040
 0.6000	12.3390
 0.6010	12.2670
 0.6020	12.1910
 0.6030	12.1110
 0.6040	12.0290
 0.6050	11.9380
 0.6060	11.8390
 0.6070	11.7320
 0.6080	11.6170
 0.6090	11.5080
 0.6100	11.4110
 0.6110	11.3210
 0.6120	11.1870
 0.6130	11.0230
 0.6140	10.8570
 0.6150	10.7200
 0.6160	10.5850
 0.6170	10.4550
 0.6180	10.3380
 0.6190	10.2360
 0.6200	10.1480
 0.6210	10.0700
 0.6220	 9.9960
 0.6230	 9.9330
 0.6240	 9.8820
 0.6250	 9.8400
 0.6260	 9.8070
 0.6270	 9.7790
 0.6280	 9.7570
 0.6290	 9.7420
 0.6300	 9.7260
 0.6310	 9.7060
 0.6320	 9.6740
 0.6330	 9.6270
 0.6340	 9.5650
 0.6350	 9.4870
 0.6360	 9.3890
 0.6370	 9.2660
 0.6380	 9.1240
 0.6390	 8.9680
 0.6400	 8.8040
 0.6410	 8.6220
 0.6420	 8.4340
 0.6430	 8.2470
 0.6440	 8.0600
 0.6450	 7.8760
 0.6460	 7.6980
 0.6470	 7.5300
 0.6480	 7.3870
 0.6490	 7.2640
 0.6500	 7.1590
 0.6510	 7.0710
 0.6520	 6.9950
 0.6530	 6.9290
 0.6540	 6.8670
 0.6550	 6.7980
 0.6560	 6.7210
 0.6570	 6.6330
 0.6580	 6.5320
 0.6590	 6.4230
 0.6600	 6.3080
 0.6610	 6.1890
 0.6620	 6.0670
 0.6630	 5.9460
 0.6640	 5.8320
 0.6650	 5.7300
 0.6660	 5.6360
 0.6670	 5.5530
 0.6680	 5.4840
 0.6690	 5.4250
 0.6700	 5.3780
 0.6710	 5.3400
 0.6720	 5.3090
 0.6730	 5.2830
 0.6740	 5.2700
 0.6750	 5.2640
 0.6760	 5.2610
 0.6770	 5.2640
 0.6780	 5.2760
 0.6790	 5.2990
 0.6800	 5.3310
 0.6810	 5.3770
 0.6820	 5.4440
 0.6830	 5.5400
 0.6840	 5.6730
 0.6850	 5.8460
 0.6860	 6.0740
 0.6870	 6.3710
 0.6880	 6.7480
 0.6890	 7.2180
 0.6900	 7.7880
 0.6910	 8.4630
 0.6920	 9.2520
 0.6930	10.1510
 0.6940	11.1520
 0.6950	12.2420
 0.6960	13.4130
 0.6970	14.6520
 0.6980	15.9420
 0.6990	17.2700
 0.7000	18.6200
 0.7010	19.9740
 0.7020	21.3210
 0.7030	22.6500
 0.7040	23.9520
 0.7050	25.2190
 0.7060	26.4530
 0.7070	27.6530
 0.7080	28.8190
 0.7090	29.9500
 0.7100	31.0530
 0.7110	32.1380
 0.7120	33.2020
 0.7130	34.2330
 0.7140	35.2430
 0.7150	36.2350
 0.7160	37.2080
 0.7170	38.1600
 0.7180	39.0900
 0.7190	40.0010
 0.7200	40.8940
 0.7210	41.7670
 0.7220	42.6120
 0.7230	43.4300
 0.7240	44.2250
 0.7250	44.9910
 0.7260	45.7270
 0.7270	46.4340
 0.7280	47.1170
 0.7290	47.7700
 0.7300	48.3910
 0.7310	48.9750
 0.7320	49.5310
 0.7330	50.0610
 0.7340	50.5650
 0.7350	51.0410
 0.7360	51.4870
 0.7370	51.9080
 0.7380	52.3050
 0.7390	52.6770
 0.7400	53.0280
 0.7410	53.3560
 0.7420	53.6600
 0.7430	53.9430
 0.7440	54.2100
 0.7450	54.4600
 0.7460	54.6870
 0.7470	54.8990
 0.7480	55.0920
 0.7490	55.2660
 0.7500	55.4390
 0.7510	55.5860
 0.7520	55.7170
 0.7530	55.8470
 0.7540	55.9670
 0.7550	56.0770
 0.7560	56.1750
 0.7570	56.2570
 0.7580	56.3400
 0.7590	56.4130
 0.7600	56.4730
 0.7610	56.5420
 0.7620	56.5970
 0.7630	56.6430
 0.7640	56.6930
 0.7650	56.7350
 0.7660	56.7710
 0.7670	56.8060
 0.7680	56.8470
 0.7690	56.8750
 0.7700	56.8970
 0.7710	56.9190
 0.7720	56.9400
 0.7730	56.9690
 0.7740	56.9940
 0.7750	57.0070
 0.7760	57.0230
 0.7770	57.0400
 0.7780	57.0560
 0.7790	57.0710
 0.7800	57.0800
 0.7810	57.0940
 0.7820	57.1110
 0.7830	57.1180
 0.7840	57.1290
 0.7850	57.1460
 0.7860	57.1640
 0.7870	57.1600
 0.7880	57.1630
 0.7890	57.1720
 0.7900	57.1790
 0.7910	57.1850
 0.7920	57.1890
 0.7930	57.1920
 0.7940	57.1990
 0.7950	57.2030
 0.7960	57.2030
 0.7970	57.2000
 0.7980	57.1930
 0.7990	57.1950
 0.8000	57.1950
 0.8010	57.1830
 0.8020	57.1850
 0.8030	57.1840
 0.8040	57.1790
 0.8050	57.1730
 0.8060	57.1620
 0.8070	57.1530
 0.8080	57.1470
 0.8090	57.1420
 0.8100	57.1290
 0.8110	57.1200
 0.8120	57.1200
 0.8130	57.1120
 0.8140	57.0950
 0.8150	57.0800
 0.8160	57.0740
 0.8170	57.0710
 0.8180	57.0580
 0.8190	57.0390
 0.8200	57.0280
 0.8210	57.0190
 0.8220	57.0110
 0.8230	57.0000
 0.8240	56.9820
 0.8250	56.9650
 0.8260	56.9490
 0.8270	56.9340
 0.8280	56.9160
 0.8290	56.9030
 0.8300	56.8920
 0.8310	56.8790
 0.8320	56.8720
 0.8330	56.8600
 0.8340	56.8450
 0.8350	56.8330
 0.8360	56.8160
 0.8370	56.8040
 0.8380	56.8000
 0.8390	56.7950
 0.8400	56.7990
 0.8410	56.7990
 0.8420	56.7920
 0.8430	56.7920
 0.8440	56.7860
 0.8450	56.7810
 0.8460	56.7830
 0.8470	56.7750
 0.8480	56.7820
 0.8490	56.7920
 0.8500	56.7890
 0.8510	56.7780
 0.8520	56.7700
 0.8530	56.7730
 0.8540	56.7840
 0.8550	56.7780
 0.8560	56.7770
 0.8570	56.7860
 0.8580	56.7900
 0.8590	56.7910
 0.8600	56.7880
 0.8610	56.7820
 0.8620	56.7850
 0.8630	56.7920
 0.8640	56.7970
 0.8650	56.8010
 0.8660	56.8100
 0.8670	56.8100
 0.8680	56.8050
 0.8690	56.8050
 0.8700	56.8140
 0.8710	56.8190
 0.8720	56.8180
 0.8730	56.8210
 0.8740	56.8180
 0.8750	56.8210
 0.8760	56.8300
 0.8770	56.8330
 0.8780	56.8300
 0.8790	56.8320
 0.8800	56.8400
 0.8810	56.8460
 0.8820	56.8460
 0.8830	56.8460
 0.8840	56.8490
 0.8850	56.8490
 0.8860	56.8500
 0.8870	56.8570
 0.8880	56.8680
 0.8890	56.8660
 0.8900	56.8610
 0.8910	56.8580
 0.8920	56.8600
 0.8930	56.8640
 0.8940	56.8670
 0.8950	56.8670
 0.8960	56.8670
 0.8970	56.8750
 0.8980	56.8800
 0.8990	56.8800
 0.9000	56.8770
 0.9010	56.8770
 0.9020	56.8820
 0.9030	56.8880
 0.9040	56.8860
 0.9050	56.8830
 0.9060	56.8810
 0.9070	56.8800
 0.9080	56.8730
 0.9090	56.8710
 0.9100	56.8700
 0.9110	56.8640
 0.9120	56.8610
 0.9130	56.8650
 0.9140	56.8610
 0.9150	56.8400
 0.9160	56.8310
 0.9170	56.8280
 0.9180	56.8200
 0.9190	56.8050
 0.9200	56.8030
 0.9210	56.7970
 0.9220	56.7770
 0.9230	56.7470
 0.9240	56.7410
 0.9250	56.7320
 0.9260	56.7040
 0.9270	56.6640
 0.9280	56.6310
 0.9290	56.5980
 0.9300	56.5620
 0.9310	56.5270
 0.9320	56.4930
 0.9330	56.4560
 0.9340	56.4180
 0.9350	56.3850
 0.9360	56.3340
 0.9370	56.2790
 0.9380	56.2280
 0.9390	56.1690
 0.9400	56.1080
 0.9410	56.0600
 0.9420	56.0220
 0.9430	55.9560
 0.9440	55.8880
 0.9450	55.8150
 0.9460	55.7360
 0.9470	55.6610
 0.9480	55.5630
 0.9490	55.4600
 0.9500	55.3690
 0.9510	55.2750
 0.9520	55.1640
 0.9530	55.0410
 0.9540	54.9220
 0.9550	54.8220
 0.9560	54.7130
 0.9570	54.6080
 0.9580	54.5210
 0.9590	54.4250
 0.9600	54.3480
 0.9610	54.2820
 0.9620	54.2140
 0.9630	54.1560
 0.9640	54.1110
 0.9650	54.0780
 0.9660	54.0530
 0.9670	54.0270
 0.9680	54.0030
 0.9690	53.9770
 0.9700	53.9490
 0.9710	53.9300
 0.9720	53.9250
 0.9730	53.9190
 0.9740	53.8960
 0.9750	53.8820
 0.9760	53.8800
 0.9770	53.8850
 0.9780	53.8890
 0.9790	53.8840
 0.9800	53.8890
 0.9810	53.9020
 0.9820	53.9130
 0.9830	53.9060
 0.9840	53.9340
 0.9850	53.9750
 0.9860	53.9810
 0.9870	53.9890
 0.9880	53.9960
 0.9890	54.0110
 0.9900	54.0430
 0.9910	54.0830
 0.9920	54.1280
 0.9930	54.1730
 0.9940	54.2180
 0.9950	54.2630
 0.9960	54.3080
 0.9970	54.3530
 0.9980	54.3980
 0.9990	54.4430
 1.0000	54.4880
 1.0010	54.5330
 1.0020	54.5770
 1.0030	54.6220
 1.0040	54.6670
 1.0050	54.7120
 1.0060	54.7570
 1.0070	54.8020
 1.0080	54.8470
 1.0090	54.8920
 1.0100	54.8920
 1.0110	54.9250
 1.0120	54.9600
 1.0130	54.9990
 1.0140	55.0330
 1.0150	55.0650
 1.0160	55.1030
 1.0170	55.1350
 1.0180	55.1620
 1.0190	55.1960
 1.0200	55.2310
 1.0210	55.2650
 1.0220	55.3010
 1.0230	55.3370
 1.0240	55.3730
 1.0250	55.4050
 1.0260	55.4370
 1.0270	55.4680
 1.0280	55.4940
 1.0290	55.5230
 1.0300	55.5550
 1.0310	55.5840
 1.0320	55.6090
 1.0330	55.6390
 1.0340	55.6690
 1.0350	55.6950
 1.0360	55.7220
 1.0370	55.7450
 1.0380	55.7640
 1.0390	55.7780
 1.0400	55.7950
 1.0410	55.8100
 1.0420	55.8290
 1.0430	55.8510
 1.0440	55.8710
 1.0450	55.8920
 1.0460	55.9100
 1.0470	55.9260
 1.0480	55.9430
 1.0490	55.9660
 1.0500	55.9810
 1.0510	55.9930
 1.0520	56.0030
 1.0530	56.0120
 1.0540	56.0140
 1.0550	56.0240
 1.0560	56.0380
 1.0570	56.0500
 1.0580	56.0640
 1.0590	56.0740
 1.0600	56.0800
 1.0610	56.0880
 1.0620	56.0930
 1.0630	56.1000
 1.0640	56.1130
 1.0650	56.1170
 1.0660	56.1130
 1.0670	56.1160
 1.0680	56.1190
 1.0690	56.1190
 1.0700	56.1210
 1.0710	56.1320
 1.0720	56.1350
 1.0730	56.1330
 1.0740	56.1310
 1.0750	56.1250
 1.0760	56.1210
 1.0770	56.1180
 1.0780	56.1110
 1.0790	56.1070
 1.0800	56.1000
 1.0810	56.0870
 1.0820	56.0770
 1.0830	56.0700
 1.0840	56.0610
 1.0850	56.0510
 1.0860	56.0410
 1.0870	56.0300
 1.0880	56.0200
 1.0890	56.0040
 1.0900	55.9860
 1.0910	55.9680
 1.0920	55.9460
 1.0930	55.9280
 1.0940	55.9180
 1.0950	55.8990
 1.0960	55.8760
 1.0970	55.8540
 1.0980	55.8270
 1.0990	55.8030
 1.1000	55.7830
 1.1010	55.7610
 1.1020	55.7390
 1.1030	55.7170
 1.1040	55.6920
 1.1050	55.6680
 1.1060	55.6430
 1.1070	55.6180
 1.1080	55.5910
 1.1090	55.5630
 1.1100	55.5340
 1.1110	55.5020
 1.1120	55.4690
 1.1130	55.4390
 1.1140	55.4030
 1.1150	55.3640
 1.1160	55.3230
 1.1170	55.2810
 1.1180	55.2360
 1.1190	55.1930
 1.1200	55.1420
 1.1210	55.0860
 1.1220	55.0260
 1.1230	54.9590
 1.1240	54.8870
 1.1250	54.8050
 1.1260	54.7190
 1.1270	54.6200
 1.1280	54.5120
 1.1290	54.3920
 1.1300	54.2630
 1.1310	54.1210
 1.1320	53.9680
 1.1330	53.8000
 1.1340	53.6200
 1.1350	53.4280
 1.1360	53.2240
 1.1370	53.0080
 1.1380	52.7870
 1.1390	52.5590
 1.1400	52.3250
 1.1410	52.0930
 1.1420	51.8550
 1.1430	51.6110
 1.1440	51.3760
 1.1450	51.1370
 1.1460	50.9120
 1.1470	50.6910
 1.1480	50.4840
 1.1490	50.2820
 1.1500	50.0970
 1.1510	49.9240
 1.1520	49.7640
 1.1530	49.6140
 1.1540	49.4810
 1.1550	49.3620
 1.1560	49.2520
 1.1570	49.1550
 1.1580	49.0720
 1.1590	48.9980
 1.1600	48.9320
 1.1610	48.8770
 1.1620	48.8290
 1.1630	48.7870
 1.1640	48.7510
 1.1650	48.7190
 1.1660	48.6940
 1.1670	48.6690
 1.1680	48.6470
 1.1690	48.6260
 1.1700	48.6090
 1.1710	48.5930
 1.1720	48.5790
 1.1730	48.5640
 1.1740	48.5500
 1.1750	48.5360
 1.1760	48.5200
 1.1770	48.5030
 1.1780	48.4820
 1.1790	48.4620
 1.1800	48.4450
 1.1810	48.4270
 1.1820	48.4090
 1.1830	48.3910
 1.1840	48.3730
 1.1850	48.3520
 1.1860	48.3300
 1.1870	48.3110
 1.1880	48.2930
 1.1890	48.2740
 1.1900	48.2590
 1.1910	48.2490
 1.1920	48.2390
 1.1930	48.2300
 1.1940	48.2240
 1.1950	48.2220
 1.1960	48.2220
 1.1970	48.2230
 1.1980	48.2300
 1.1990	48.2400
 1.2000	48.2490
 1.2010	48.2610
 1.2020	48.2740
 1.2030	48.2860
 1.2040	48.3000
 1.2050	48.3190
 1.2060	48.3390
 1.2070	48.3620
 1.2080	48.3870
 1.2090	48.4130
 1.2100	48.4390
 1.2110	48.4670
 1.2120	48.4960
 1.2130	48.5250
 1.2140	48.5550
 1.2150	48.5870
 1.2160	48.6200
 1.2170	48.6540
 1.2180	48.6890
 1.2190	48.7260
 1.2200	48.7650
 1.2210	48.8000
 1.2220	48.8370
 1.2230	48.8750
 1.2240	48.9110
 1.2250	48.9450
 1.2260	48.9800
 1.2270	49.0130
 1.2280	49.0430
 1.2290	49.0760
 1.2300	49.1080
 1.2310	49.1390
 1.2320	49.1700
 1.2330	49.1990
 1.2340	49.2290
 1.2350	49.2580
 1.2360	49.2860
 1.2370	49.3150
 1.2380	49.3420
 1.2390	49.3660
 1.2400	49.3910
 1.2410	49.4150
 1.2420	49.4380
 1.2430	49.4610
 1.2440	49.4820
 1.2450	49.5000
 1.2460	49.5190
 1.2470	49.5390
 1.2480	49.5550
 1.2490	49.5720
 1.2500	49.5900
 1.2510	49.6050
 1.2520	49.6200
 1.2530	49.6360
 1.2540	49.6500
 1.2550	49.6620
 1.2560	49.6730
 1.2570	49.6800
 1.2580	49.6860
 1.2590	49.6920
 1.2600	49.6970
 1.2610	49.6990
 1.2620	49.7000
 1.2630	49.6990
 1.2640	49.6960
 1.2650	49.6920
 1.2660	49.6870
 1.2670	49.6780
 1.2680	49.6660
 1.2690	49.6540
 1.2700	49.6430
 1.2710	49.6290
 1.2720	49.6130
 1.2730	49.5920
 1.2740	49.5670
 1.2750	49.5420
 1.2760	49.5150
 1.2770	49.4840
 1.2780	49.4520
 1.2790	49.4170
 1.2800	49.3820
 1.2810	49.3470
 1.2820	49.3100
 1.2830	49.2700
 1.2840	49.2260
 1.2850	49.1780
 1.2860	49.1290
 1.2870	49.0780
 1.2880	49.0250
 1.2890	48.9730
 1.2900	48.9180
 1.2910	48.8590
 1.2920	48.8000
 1.2930	48.7380
 1.2940	48.6710
 1.2950	48.6010
 1.2960	48.5270
 1.2970	48.4500
 1.2980	48.3700
 1.2990	48.2840
 1.3000	48.1970
 1.3010	48.1060
 1.3020	48.0120
 1.3030	47.9160
 1.3040	47.8130
 1.3050	47.7070
 1.3060	47.5930
 1.3070	47.4720
 1.3080	47.3540
 1.3090	47.2320
 1.3100	47.1070
 1.3110	46.9800
 1.3120	46.8440
 1.3130	46.7010
 1.3140	46.5530
 1.3150	46.3980
 1.3160	46.2410
 1.3170	46.0800
 1.3180	45.9160
 1.3190	45.7470
 1.3200	45.5740
 1.3210	45.3950
 1.3220	45.2120
 1.3230	45.0230
 1.3240	44.8310
 1.3250	44.6390
 1.3260	44.4430
 1.3270	44.2440
 1.3280	44.0430
 1.3290	43.8360
 1.3300	43.6260
 1.3310	43.4170
 1.3320	43.2050
 1.3330	42.9930
 1.3340	42.7820
 1.3350	42.5700
 1.3360	42.3570
 1.3370	42.1460
 1.3380	41.9370
 1.3390	41.7280
 1.3400	41.5210
 1.3410	41.3190
 1.3420	41.1170
 1.3430	40.9180
 1.3440	40.7230
 1.3450	40.5280
 1.3460	40.3320
 1.3470	40.1430
 1.3480	39.9560
 1.3490	39.7720
 1.3500	39.5930
 1.3510	39.4160
 1.3520	39.2360
 1.3530	39.0570
 1.3540	38.8800
 1.3550	38.7010
 1.3560	38.5230
 1.3570	38.3440
 1.3580	38.1610
 1.3590	37.9750
 1.3600	37.7840
 1.3610	37.5850
 1.3620	37.3790
 1.3630	37.1660
 1.3640	36.9430
 1.3650	36.7110
 1.3660	36.4690
 1.3670	36.2120
 1.3680	35.9400
 1.3690	35.6540
 1.3700	35.3470
 1.3710	35.0250
 1.3720	34.6840
 1.3730	34.3170
 1.3740	33.9330
 1.3750	33.5250
 1.3760	33.0890
 1.3770	32.6270
 1.3780	32.1340
 1.3790	31.6150
 1.3800	31.0720
 1.3810	30.4990
 1.3820	29.9090
 1.3830	29.2980
 1.3840	28.6710
 1.3850	28.0240
 1.3860	27.3710
 1.3870	26.6970
 1.3880	26.0280
 1.3890	25.3520
 1.3900	24.6740
 1.3910	24.0070
 1.3920	23.3430
 1.3930	22.6840
 1.3940	22.0400
 1.3950	21.4040
 1.3960	20.7860
 1.3970	20.1890
 1.3980	19.6130
 1.3990	19.0660
 1.4000	18.5430
 1.4010	18.0420
 1.4020	17.5710
 1.4030	17.1210
 1.4040	16.6970
 1.4050	16.2990
 1.4060	15.9260
 1.4070	15.5810
 1.4080	15.2590
 1.4090	14.9600
 1.4100	14.6830
 1.4110	14.4240
 1.4120	14.1850
 1.4130	13.9660
 1.4140	13.7630
 1.4150	13.5790
 1.4160	13.4090
 1.4170	13.2520
 1.4180	13.1090
 1.4190	12.9760
 1.4200	12.8540
 1.4210	12.7420
 1.4220	12.6390
 1.4230	12.5480
 1.4240	12.4640
 1.4250	12.3870
 1.4260	12.3180
 1.4270	12.2550
 1.4280	12.1970
 1.4290	12.1460
 1.4300	12.1000
 1.4310	12.0590
 1.4320	12.0240
 1.4330	11.9930
 1.4340	11.9650
 1.4350	11.9420
 1.4360	11.9230
 1.4370	11.9070
 1.4380	11.8940
 1.4390	11.8840
 1.4400	11.8750
 1.4410	11.8700
 1.4420	11.8680
 1.4430	11.8690
 1.4440	11.8700
 1.4450	11.8740
 1.4460	11.8790
 1.4470	11.8860
 1.4480	11.8950
 1.4490	11.9060
 1.4500	11.9180
 1.4510	11.9310
 1.4520	11.9480
 1.4530	11.9660
 1.4540	11.9860
 1.4550	12.0090
 1.4560	12.0330
 1.4570	12.0600
 1.4580	12.0900
 1.4590	12.1220
 1.4600	12.1600
 1.4610	12.2020
 1.4620	12.2470
 1.4630	12.2970
 1.4640	12.3510
 1.4650	12.4100
 1.4660	12.4740
 1.4670	12.5420
 1.4680	12.6150
 1.4690	12.6920
 1.4700	12.7730
 1.4710	12.8590
 1.4720	12.9470
 1.4730	13.0400
 1.4740	13.1360
 1.4750	13.2350
 1.4760	13.3380
 1.4770	13.4440
 1.4780	13.5510
 1.4790	13.6620
 1.4800	13.7730
 1.4810	13.8860
 1.4820	14.0020
 1.4830	14.1190
 1.4840	14.2380
 1.4850	14.3590
 1.4860	14.4800
 1.4870	14.6040
 1.4880	14.7290
 1.4890	14.8540
 1.4900	14.9800
 1.4910	15.1080
 1.4920	15.2370
 1.4930	15.3670
 1.4940	15.4980
 1.4950	15.6300
 1.4960	15.7630
 1.4970	15.8970
 1.4980	16.0310
 1.4990	16.1670
 1.5000	16.3010
 1.5010	16.4350
 1.5020	16.5710
 1.5030	16.7100
 1.5040	16.8480
 1.5050	16.9870
 1.5060	17.1250
 1.5070	17.2630
 1.5080	17.4010
 1.5090	17.5400
 1.5100	17.6800
 1.5110	17.8180
 1.5120	17.9570
 1.5130	18.0940
 1.5140	18.2310
 1.5150	18.3700
 1.5160	18.5080
 1.5170	18.6470
 1.5180	18.7840
 1.5190	18.9210
 1.5200	19.0590
 1.5210	19.1940
 1.5220	19.3310
 1.5230	19.4670
 1.5240	19.5990
 1.5250	19.7350
 1.5260	19.8700
 1.5270	20.0030
 1.5280	20.1380
 1.5290	20.2690
 1.5300	20.3990
 1.5310	20.5320
 1.5320	20.6630
 1.5330	20.7930
 1.5340	20.9210
 1.5350	21.0470
 1.5360	21.1730
 1.5370	21.2990
 1.5380	21.4250
 1.5390	21.5530
 1.5400	21.6780
 1.5410	21.8040
 1.5420	21.9280
 1.5430	22.0500
 1.5440	22.1720
 1.5450	22.2910
 1.5460	22.4110
 1.5470	22.5330
 1.5480	22.6530
 1.5490	22.7750
 1.5500	22.8940
 1.5510	23.0120
 1.5520	23.1280
 1.5530	23.2420
 1.5540	23.3560
 1.5550	23.4700
 1.5560	23.5810
 1.5570	23.6900
 1.5580	23.7990
 1.5590	23.9080
 1.5600	24.0180
 1.5610	24.1260
 1.5620	24.2330
 1.5630	24.3390
 1.5640	24.4410
 1.5650	24.5450
 1.5660	24.6470
 1.5670	24.7480
 1.5680	24.8510
 1.5690	24.9500
 1.5700	25.0490
 1.5710	25.1470
 1.5720	25.2440
 1.5730	25.3410
 1.5740	25.4370
 1.5750	25.5330
 1.5760	25.6280
 1.5770	25.7200
 1.5780	25.8120
 1.5790	25.9040
 1.5800	25.9940
 1.5810	26.0850
 1.5820	26.1760
 1.5830	26.2630
 1.5840	26.3490
 1.5850	26.4330
 1.5860	26.5180
 1.5870	26.6030
 1.5880	26.6890
 1.5890	26.7740
 1.5900	26.8550
 1.5910	26.9340
 1.5920	27.0130
 1.5930	27.0910
 1.5940	27.1700
 1.5950	27.2490
 1.5960	27.3260
 1.5970	27.4010
 1.5980	27.4760
 1.5990	27.5510
 1.6000	27.6260
 1.6010	27.6980
 1.6020	27.7690
 1.6030	27.8390
 1.6040	27.9060
 1.6050	27.9750
 1.6060	28.0420
 1.6070	28.1070
 1.6080	28.1720
 1.6090	28.2350
 1.6100	28.2960
 1.6110	28.3580
 1.6120	28.4190
 1.6130	28.4800
 1.6140	28.5410
 1.6150	28.6000
 1.6160	28.6570
 1.6170	28.7140
 1.6180	28.7710
 1.6190	28.8250
 1.6200	28.8770
 1.6210	28.9280
 1.6220	28.9750
 1.6230	29.0220
 1.6240	29.0690
 1.6250	29.1130
 1.6260	29.1570
 1.6270	29.2010
 1.6280	29.2430
 1.6290	29.2840
 1.6300	29.3230
 1.6310	29.3620
 1.6320	29.4040
 1.6330	29.4430
 1.6340	29.4810
 1.6350	29.5200
 1.6360	29.5590
 1.6370	29.5970
 1.6380	29.6370
 1.6390	29.6750
 1.6400	29.7130
 1.6410	29.7490
 1.6420	29.7860
 1.6430	29.8190
 1.6440	29.8510
 1.6450	29.8800
 1.6460	29.9060
 1.6470	29.9310
 1.6480	29.9520
 1.6490	29.9730
 1.6500	29.9910
 1.6510	30.0070
 1.6520	30.0210
 1.6530	30.0330
 1.6540	30.0430
 1.6550	30.0500
 1.6560	30.0550
 1.6570	30.0600
 1.6580	30.0620
 1.6590	30.0650
 1.6600	30.0680
 1.6610	30.0670
 1.6620	30.0650
 1.6630	30.0640
 1.6640	30.0600
 1.6650	30.0590
 1.6660	30.0580
 1.6670	30.0540
 1.6680	30.0470
 1.6690	30.0380
 1.6700	30.0290
 1.6710	30.0190
 1.6720	30.0070
 1.6730	29.9960
 1.6740	29.9820
 1.6750	29.9680
 1.6760	29.9520
 1.6770	29.9330
 1.6780	29.9140
 1.6790	29.8930
 1.6800	29.8700
 1.6810	29.8460
 1.6820	29.8190
 1.6830	29.7890
 1.6840	29.7590
 1.6850	29.7250
 1.6860	29.6900
 1.6870	29.6520
 1.6880	29.6130
 1.6890	29.5750
 1.6900	29.5360
 1.6910	29.4950
 1.6920	29.4550
 1.6930	29.4150
 1.6940	29.3730
 1.6950	29.3340
 1.6960	29.2910
 1.6970	29.2430
 1.6980	29.1970
 1.6990	29.1500
 1.7000	29.1030
 1.7010	29.0590
 1.7020	29.0120
 1.7030	28.9630
 1.7040	28.9140
 1.7050	28.8620
 1.7060	28.8100
 1.7070	28.7560
 1.7080	28.7020
 1.7090	28.6460
 1.7100	28.5910
 1.7110	28.5370
 1.7120	28.4810
 1.7130	28.4240
 1.7140	28.3670
 1.7150	28.3100
 1.7160	28.2530
 1.7170	28.1950
 1.7180	28.1380
 1.7190	28.0800
 1.7200	28.0200
 1.7210	27.9600
 1.7220	27.8970
 1.7230	27.8340
 1.7240	27.7710
 1.7250	27.7090
 1.7260	27.6470
 1.7270	27.5870
 1.7280	27.5270
 1.7290	27.4660
 1.7300	27.4060
 1.7310	27.3470
 1.7320	27.2910
 1.7330	27.2330
 1.7340	27.1780
 1.7350	27.1190
 1.7360	27.0570
 1.7370	26.9940
 1.7380	26.9290
 1.7390	26.8630
 1.7400	26.7940
 1.7410	26.7230
 1.7420	26.6510
 1.7430	26.5750
 1.7440	26.4970
 1.7450	26.4160
 1.7460	26.3330
 1.7470	26.2490
 1.7480	26.1640
 1.7490	26.0790
 1.7500	25.9930
 1.7510	25.9070
 1.7520	25.8200
 1.7530	25.7330
 1.7540	25.6450
 1.7550	25.5580
 1.7560	25.4730
 1.7570	25.3880
 1.7580	25.3060
 1.7590	25.2250
 1.7600	25.1430
 1.7610	25.0640
 1.7620	24.9880
 1.7630	24.9140
 1.7640	24.8410
 1.7650	24.7680
 1.7660	24.6990
 1.7670	24.6310
 1.7680	24.5670
 1.7690	24.5070
 1.7700	24.4490
 1.7710	24.3920
 1.7720	24.3360
 1.7730	24.2820
 1.7740	24.2300
 1.7750	24.1800
 1.7760	24.1310
 1.7770	24.0850
 1.7780	24.0410
 1.7790	23.9980
 1.7800	23.9590
 1.7810	23.9230
 1.7820	23.8880
 1.7830	23.8580
 1.7840	23.8270
 1.7850	23.7950
 1.7860	23.7700
 1.7870	23.7480
 1.7880	23.7280
 1.7890	23.7110
 1.7900	23.6930
 1.7910	23.6770
 1.7920	23.6620
 1.7930	23.6490
 1.7940	23.6370
 1.7950	23.6280
 1.7960	23.6230
 1.7970	23.6180
 1.7980	23.6140
 1.7990	23.6110
 1.8000	23.6110
 1.8010	23.6090
 1.8020	23.6070
 1.8030	23.6060
 1.8040	23.6050
 1.8050	23.6060
 1.8060	23.6100
 1.8070	23.6130
 1.8080	23.6170
 1.8090	23.6200
 1.8100	23.6230
 1.8110	23.6210
 1.8120	23.6200
 1.8130	23.6170
 1.8140	23.6150
 1.8150	23.6120
 1.8160	23.6080
 1.8170	23.6050
 1.8180	23.6000
 1.8190	23.5940
 1.8200	23.5860
 1.8210	23.5760
 1.8220	23.5630
 1.8230	23.5490
 1.8240	23.5310
 1.8250	23.5070
 1.8260	23.4860
 1.8270	23.4250
 1.8280	23.3640
 1.8290	23.3020
 1.8300	23.2410
 1.8310	23.1800
 1.8320	23.1190
 1.8330	23.0570
 1.8340	22.9960
 1.8350	22.9960
 1.8360	22.9300
 1.8370	22.8580
 1.8380	22.7840
 1.8390	22.7030
 1.8400	22.6150
 1.8410	22.5200
 1.8420	22.4220
 1.8430	22.3130
 1.8440	22.1940
 1.8450	22.0680
 1.8460	21.9320
 1.8470	21.7860
 1.8480	21.6300
 1.8490	21.4640
 1.8500	21.2860
 1.8510	21.1000
 1.8520	20.8990
 1.8530	20.6820
 1.8540	20.4530
 1.8550	20.2110
 1.8560	19.9540
 1.8570	19.6870
 1.8580	19.4040
 1.8590	19.1070
 1.8600	18.7950
 1.8610	18.4690
 1.8620	18.1290
 1.8630	17.7790
 1.8640	17.4120
 1.8650	17.0270
 1.8660	16.6290
 1.8670	16.2100
 1.8680	15.7770
 1.8690	15.3320
 1.8700	14.8740
 1.8710	14.4020
 1.8720	13.9270
 1.8730	13.4450
 1.8740	12.9590
 1.8750	12.4760
 1.8760	11.9910
 1.8770	11.5140
 1.8780	11.0420
 1.8790	10.5740
 1.8800	10.1220
 1.8810	 9.6820
 1.8820	 9.2500
 1.8830	 8.8270
 1.8840	 8.4230
 1.8850	 8.0300
 1.8860	 7.6510
 1.8870	 7.2910
 1.8880	 6.9510
 1.8890	 6.6320
 1.8900	 6.3330
 1.8910	 6.0550
 1.8920	 5.7970
 1.8930	 5.5610
 1.8940	 5.3420
 1.8950	 5.1410
 1.8960	 4.9600
 1.8970	 4.7970
 1.8980	 4.6490
 1.8990	 4.5190
 1.9000	 4.3980
 1.9010	 4.2930
 1.9020	 4.1970
 1.9030	 4.1160
 1.9040	 4.0390
 1.9050	 3.9730
 1.9060	 3.9160
 1.9070	 3.8630
 1.9080	 3.8200
 1.9090	 3.7830
 1.9100	 3.7480
 1.9110	 3.7190
 1.9120	 3.6970
 1.9130	 3.6760
 1.9140	 3.6590
 1.9150	 3.6460
 1.9160	 3.6310
 1.9170	 3.6180
 1.9180	 3.6030
 1.9190	 3.5890
 1.9200	 3.5790
 1.9210	 3.5700
 1.9220	 3.5630
 1.9230	 3.5590
 1.9240	 3.5560
 1.9250	 3.5540
 1.9260	 3.5530
 1.9270	 3.5530
 1.9280	 3.5530
 1.9290	 3.5520
 1.9300	 3.5530
 1.9310	 3.5530
 1.9320	 3.5550
 1.9330	 3.5600
 1.9340	 3.5680
 1.9350	 3.5750
 1.9360	 3.5870
 1.9370	 3.5960
 1.9380	 3.6040
 1.9390	 3.6100
 1.9400	 3.6180
 1.9410	 3.6260
 1.9420	 3.6350
 1.9430	 3.6490
 1.9440	 3.6620
 1.9450	 3.6770
 1.9460	 3.6920
 1.9470	 3.7080
 1.9480	 3.7240
 1.9490	 3.7390
 1.9500	 3.7550
 1.9510	 3.7720
 1.9520	 3.7900
 1.9530	 3.8090
 1.9540	 3.8280
 1.9550	 3.8480
 1.9560	 3.8680
 1.9570	 3.8890
 1.9580	 3.9120
 1.9590	 3.9340
 1.9600	 3.9570
 1.9610	 3.9820
 1.9620	 4.0080
 1.9630	 4.0340
 1.9640	 4.0640
 1.9650	 4.0950
 1.9660	 4.1250
 1.9670	 4.1540
 1.9680	 4.1810
 1.9690	 4.2050
 1.9700	 4.2330
 1.9710	 4.2610
 1.9720	 4.2900
 1.9730	 4.3220
 1.9740	 4.3560
 1.9750	 4.3890
 1.9760	 4.4250
 1.9770	 4.4620
 1.9780	 4.4960
 1.9790	 4.5320
 1.9800	 4.5670
 1.9810	 4.6030
 1.9820	 4.6380
 1.9830	 4.6760
 1.9840	 4.7160
 1.9850	 4.7560
 1.9860	 4.8000
 1.9870	 4.8430
 1.9880	 4.8840
 1.9890	 4.9260
 1.9900	 4.9700
 1.9910	 5.0110
 1.9920	 5.0540
 1.9930	 5.0980
 1.9940	 5.1440
 1.9950	 5.1910
 1.9960	 5.2380
 1.9970	 5.2870
 1.9980	 5.3340
 1.9990	 5.3800
 2.0000	 5.4250
 2.0010	 5.4700
 2.0020	 5.5150
 2.0030	 5.5620
 2.0040	 5.6100
 2.0050	 5.6590
 2.0060	 5.7120
 2.0070	 5.7630
 2.0080	 5.8160
 2.0090	 5.8660
 2.0100	 5.9100
 2.0110	 5.9590
 2.0120	 6.0080
 2.0130	 6.0590
 2.0140	 6.1130
 2.0150	 6.1690
 2.0160	 6.2220
 2.0170	 6.2730
 2.0180	 6.3240
 2.0190	 6.3720
 2.0200	 6.4230
 2.0210	 6.4750
 2.0220	 6.5250
 2.0230	 6.5770
 2.0240	 6.6270
 2.0250	 6.6760
 2.0260	 6.7250
 2.0270	 6.7740
 2.0280	 6.8230
 2.0290	 6.8710
 2.0300	 6.9190
 2.0310	 6.9670
 2.0320	 7.0150
 2.0330	 7.0620
 2.0340	 7.1060
 2.0350	 7.1530
 2.0360	 7.2000
 2.0370	 7.2490
 2.0380	 7.3030
 2.0390	 7.3530
 2.0400	 7.4020
 2.0410	 7.4510
 2.0420	 7.4970
 2.0430	 7.5460
 2.0440	 7.5920
 2.0450	 7.6370
 2.0460	 7.6820
 2.0470	 7.7240
 2.0480	 7.7690
 2.0490	 7.8170
 2.0500	 7.8620
 2.0510	 7.9080
 2.0520	 7.9530
 2.0530	 7.9940
 2.0540	 8.0390
 2.0550	 8.0860
 2.0560	 8.1330
 2.0570	 8.1810
 2.0580	 8.2330
 2.0590	 8.2830
 2.0600	 8.3340
 2.0610	 8.3830
 2.0620	 8.4310
 2.0630	 8.4790
 2.0640	 8.5270
 2.0650	 8.5770
 2.0660	 8.6310
 2.0670	 8.6820
 2.0680	 8.7360
 2.0690	 8.7870
 2.0700	 8.8360
 2.0710	 8.8850
 2.0720	 8.9330
 2.0730	 8.9800
 2.0740	 9.0280
 2.0750	 9.0740
 2.0760	 9.1250
 2.0770	 9.1790
 2.0780	 9.2300
 2.0790	 9.2820
 2.0800	 9.3310
 2.0810	 9.3750
 2.0820	 9.4240
 2.0830	 9.4740
 2.0840	 9.5240
 2.0850	 9.5760
 2.0860	 9.6270
 2.0870	 9.6780
 2.0880	 9.7280
 2.0890	 9.7770
 2.0900	 9.8270
 2.0910	 9.8740
 2.0920	 9.9180
 2.0930	 9.9660
 2.0940	10.0140
 2.0950	10.0630
 2.0960	10.1160
 2.0970	10.1660
 2.0980	10.2130
 2.0990	10.2620
 2.1000	10.3110
 2.1010	10.3590
 2.1020	10.4070
 2.1030	10.4550
 2.1040	10.5040
 2.1050	10.5550
 2.1060	10.6000
 2.1070	10.6440
 2.1080	10.6890
 2.1090	10.7290
 2.1100	10.7740
 2.1110	10.8220
 2.1120	10.8680
 2.1130	10.9140
 2.1140	10.9590
 2.1150	11.0040
 2.1160	11.0490
 2.1170	11.0930
 2.1180	11.1380
 2.1190	11.1840
 2.1200	11.2290
 2.1210	11.2750
 2.1220	11.3190
 2.1230	11.3600
 2.1240	11.3990
 2.1250	11.4370
 2.1260	11.4740
 2.1270	11.5110
 2.1280	11.5470
 2.1290	11.5840
 2.1300	11.6220
 2.1310	11.6600
 2.1320	11.7000
 2.1330	11.7360
 2.1340	11.7710
 2.1350	11.8040
 2.1360	11.8350
 2.1370	11.8660
 2.1380	11.8930
 2.1390	11.9230
 2.1400	11.9530
 2.1410	11.9840
 2.1420	12.0130
 2.1430	12.0430
 2.1440	12.0730
 2.1450	12.1030
 2.1460	12.1340
 2.1470	12.1670
 2.1480	12.1970
 2.1490	12.2260
 2.1500	12.2530
 2.1510	12.2780
 2.1520	12.3040
 2.1530	12.3270
 2.1540	12.3520
 2.1550	12.3820
 2.1560	12.4080
 2.1570	12.4340
 2.1580	12.4590
 2.1590	12.4800
 2.1600	12.5020
 2.1610	12.5250
 2.1620	12.5480
 2.1630	12.5710
 2.1640	12.5970
 2.1650	12.6200
 2.1660	12.6420
 2.1670	12.6640
 2.1680	12.6850
 2.1690	12.7040
 2.1700	12.7220
 2.1710	12.7420
 2.1720	12.7620
 2.1730	12.7820
 2.1740	12.8020
 2.1750	12.8230
 2.1760	12.8420
 2.1770	12.8630
 2.1780	12.8860
 2.1790	12.9060
 2.1800	12.9260
 2.1810	12.9440
 2.1820	12.9640
 2.1830	12.9780
 2.1840	12.9920
 2.1850	13.0050
 2.1860	13.0210
 2.1870	13.0390
 2.1880	13.0550
 2.1890	13.0730
 2.1900	13.0900
 2.1910	13.1040
 2.1920	13.1190
 2.1930	13.1360
 2.1940	13.1520
 2.1950	13.1670
 2.1960	13.1800
 2.1970	13.1910
 2.1980	13.2040
 2.1990	13.2130
 2.2000	13.2240
 2.2010	13.2400
 2.2020	13.2500
 2.2030	13.2580
 2.2040	13.2650
 2.2050	13.2690
 2.2060	13.2710
 2.2070	13.2740
 2.2080	13.2770
 2.2090	13.2800
 2.2100	13.2830
 2.2110	13.2830
 2.2120	13.2820
 2.2130	13.2800
 2.2140	13.2740
 2.2150	13.2710
 2.2160	13.2720
 2.2170	13.2660
 2.2180	13.2570
 2.2190	13.2490
 2.2200	13.2350
 2.2210	13.2240
 2.2220	13.2190
 2.2230	13.2080
 2.2240	13.1940
 2.2250	13.1770
 2.2260	13.1550
 2.2270	13.1330
 2.2280	13.1110
 2.2290	13.0860
 2.2300	13.0550
 2.2310	13.0270
 2.2320	12.9970
 2.2330	12.9650
 2.2340	12.9330
 2.2350	12.9010
 2.2360	12.8670
 2.2370	12.8280
 2.2380	12.7930
 2.2390	12.7580
 2.2400	12.7220
 2.2410	12.6860
 2.2420	12.6510
 2.2430	12.6170
 2.2440	12.5800
 2.2450	12.5450
 2.2460	12.5080
 2.2470	12.4660
 2.2480	12.4290
 2.2490	12.3920
 2.2500	12.3560
 2.2510	12.3250
 2.2520	12.2880
 2.2530	12.2480
 2.2540	12.2100
 2.2550	12.1680
 2.2560	12.1270
 2.2570	12.0930
 2.2580	12.0500
 2.2590	12.0000
 2.2600	11.9530
 2.2610	11.9040
 2.2620	11.8540
 2.2630	11.8110
 2.2640	11.7690
 2.2650	11.7240
 2.2660	11.6760
 2.2670	11.6310
 2.2680	11.5870
 2.2690	11.5400
 2.2700	11.4940
 2.2710	11.4460
 2.2720	11.3940
 2.2730	11.3480
 2.2740	11.3060
 2.2750	11.2630
 2.2760	11.2220
 2.2770	11.1780
 2.2780	11.1300
 2.2790	11.0850
 2.2800	11.0390
 2.2810	10.9930
 2.2820	10.9480
 2.2830	10.9030
 2.2840	10.8570
 2.2850	10.8120
 2.2860	10.7660
 2.2870	10.7210
 2.2880	10.6760
 2.2890	10.6300
 2.2900	10.5880
 2.2910	10.5400
 2.2920	10.4880
 2.2930	10.4380
 2.2940	10.3840
 2.2950	10.3340
 2.2960	10.2890
 2.2970	10.2400
 2.2980	10.1880
 2.2990	10.1390
 2.3000	10.0890
 2.3010	10.0310
 2.3020	 9.9770
 2.3030	 9.9310
 2.3040	 9.8850
 2.3050	 9.8420
 2.3060	 9.8000
 2.3070	 9.7550
 2.3080	 9.7110
 2.3090	 9.6700
 2.3100	 9.6380
 2.3110	 9.6120
 2.3120	 9.5840
 2.3130	 9.5620
 2.3140	 9.5350
 2.3150	 9.5030
 2.3160	 9.4770
 2.3170	 9.4540
 2.3180	 9.4280
 2.3190	 9.4040
 2.3200	 9.3770
 2.3210	 9.3480
 2.3220	 9.3170
 2.3230	 9.2850
 2.3240	 9.2530
 2.3250	 9.2160
 2.3260	 9.1820
 2.3270	 9.1520
 2.3280	 9.1170
 2.3290	 9.0850
 2.3300	 9.0460
 2.3310	 8.9970
 2.3320	 8.9530
 2.3330	 8.9080
 2.3340	 8.8630
 2.3350	 8.8230
 2.3360	 8.7790
 2.3370	 8.7290
 2.3380	 8.6860
 2.3390	 8.6460
 2.3400	 8.6010
 2.3410	 8.5590
 2.3420	 8.5140
 2.3430	 8.4610
 2.3440	 8.4150
 2.3450	 8.3690
 2.3460	 8.3280
 2.3470	 8.2950
 2.3480	 8.2610
 2.3490	 8.2320
 2.3500	 8.2010
 2.3510	 8.1700
 2.3520	 8.1320
 2.3530	 8.0880
 2.3540	 8.0470
 2.3550	 8.0090
 2.3560	 7.9700
 2.3570	 7.9360
 2.3580	 7.9030
 2.3590	 7.8640
 2.3600	 7.8280
 2.3610	 7.8020
 2.3620	 7.7720
 2.3630	 7.7460
 2.3640	 7.7180
 2.3650	 7.6790
 2.3660	 7.6470
 2.3670	 7.6130
 2.3680	 7.5720
 2.3690	 7.5360
 2.3700	 7.4920
 2.3710	 7.4450
 2.3720	 7.4030
 2.3730	 7.3640
 2.3740	 7.3300
 2.3750	 7.2940
 2.3760	 7.2540
 2.3770	 7.2130
 2.3780	 7.1760
 2.3790	 7.1450
 2.3800	 7.1190
 2.3810	 7.0900
 2.3820	 7.0520
 2.3830	 7.0140
 2.3840	 6.9720
 2.3850	 6.9290
 2.3860	 6.8900
 2.3870	 6.8490
 2.3880	 6.8010
 2.3890	 6.7630
 2.3900	 6.7340
 2.3910	 6.6920
 2.3920	 6.6580
 2.3930	 6.6280
 2.3940	 6.5890
 2.3950	 6.5580
 2.3960	 6.5280
 2.3970	 6.4910
 2.3980	 6.4500
 2.3990	 6.4090
 2.4000	 6.3750
 2.4010	 6.3440
 2.4020	 6.3190
 2.4030	 6.2890
 2.4040	 6.2530
 2.4050	 6.2150
 2.4060	 6.1700
 2.4070	 6.1280
 2.4080	 6.0880
 2.4090	 6.0350
 2.4100	 5.9960
 2.4110	 5.9670
 2.4120	 5.9290
 2.4130	 5.8960
 2.4140	 5.8580
 2.4150	 5.8180
 2.4160	 5.7830
 2.4170	 5.7620
 2.4180	 5.7590
 2.4190	 5.7360
 2.4200	 5.7010
 2.4210	 5.6550
 2.4220	 5.5990
 2.4230	 5.5620
 2.4240	 5.5350
 2.4250	 5.5100
 2.4260	 5.4840
 2.4270	 5.4450
 2.4280	 5.4070
 2.4290	 5.3780
 2.4300	 5.3410
 2.4310	 5.3170
 2.4320	 5.3070
 2.4330	 5.2800
 2.4340	 5.2710
 2.4350	 5.2440
 2.4360	 5.1840
 2.4370	 5.1490
 2.4380	 5.1230
 2.4390	 5.0810
 2.4400	 5.0520
 2.4410	 5.0200
 2.4420	 4.9670
 2.4430	 4.9390
 2.4440	 4.9200
 2.4450	 4.9010
 2.4460	 4.8910
 2.4470	 4.8480
 2.4480	 4.8110
 2.4490	 4.7890
 2.4500	 4.7410
 2.4510	 4.7120
 2.4520	 4.6950
 2.4530	 4.6610
 2.4540	 4.6420
 2.4550	 4.6260
 2.4560	 4.6110
 2.4570	 4.5890
 2.4580	 4.5410
 2.4590	 4.4870
 2.4600	 4.4430
 2.4610	 4.4170
 2.4620	 4.4090
 2.4630	 4.4200
 2.4640	 4.4140
 2.4650	 4.3700
 2.4660	 4.3300
 2.4670	 4.3000
 2.4680	 4.2760
 2.4690	 4.2880
 2.4700	 4.2760
 2.4710	 4.2480
 2.4720	 4.2380
 2.4730	 4.2310
 2.4740	 4.2240
 2.4750	 4.2270
 2.4760	 4.2140
 2.4770	 4.1920
 2.4780	 4.1700
 2.4790	 4.1410
 2.4800	 4.1240
 2.4810	 4.1240
 2.4820	 4.0770
 2.4830	 4.0380
 2.4840	 4.0280
 2.4850	 3.9840
 2.4860	 3.9770
 2.4870	 3.9920
 2.4880	 3.9420
 2.4890	 3.8940
 2.4900	 3.8770
 2.4910	 3.8670
 2.4920	 3.8840
 2.4930	 3.9060
 2.4940	 3.9100
 2.4950	 3.8860
 2.4960	 3.8760
 2.4970	 3.8560
 2.4980	 3.7980
 2.4990	 3.8020
 2.5000	 3.8160
