Name: Podocarpus gracilior
Type: vegetation
Class: Tree
Genus: Podocarpus
Species: gracilior
Sample No.: JPL155
Owner: JPL
Wavelength Range: VSWIR
Origin: 34.12605; -118.11517; WGS84
Collection Date: 9/14/2016
Description: Samples were collected at the Huntington Garden in San Marino California as part of a JPL Subcontract studying HyTES imagery. Samples were taken to JPL and processed within 48 hours of collection. The same leaves were processed in the Nicolet and then measured using the ASD.
Measurement: Bidirectional reflectance
First Column: X
Second Column: Y
X Units: Wavelength (micrometer)
Y Units: Reflectance (percentage)
First X Value: 0.35
Last X Value: 2.5
Number of X Values: 2151
Additional Information: vegetation.tree.podocarpus.gracilior.vswir.jpl155.jpl.asd.ancillary.txt

 0.3500	 6.7910
 0.3510	 6.8890
 0.3520	 6.9960
 0.3530	 6.9530
 0.3540	 6.7510
 0.3550	 6.7580
 0.3560	 6.8360
 0.3570	 6.8830
 0.3580	 6.8340
 0.3590	 6.7230
 0.3600	 6.6890
 0.3610	 6.7580
 0.3620	 6.7850
 0.3630	 6.7710
 0.3640	 6.7570
 0.3650	 6.7770
 0.3660	 6.7740
 0.3670	 6.7560
 0.3680	 6.7140
 0.3690	 6.6460
 0.3700	 6.7090
 0.3710	 6.7620
 0.3720	 6.7250
 0.3730	 6.6840
 0.3740	 6.6560
 0.3750	 6.6500
 0.3760	 6.6640
 0.3770	 6.6910
 0.3780	 6.6750
 0.3790	 6.6350
 0.3800	 6.6470
 0.3810	 6.6640
 0.3820	 6.6650
 0.3830	 6.6560
 0.3840	 6.6860
 0.3850	 6.6500
 0.3860	 6.6020
 0.3870	 6.6330
 0.3880	 6.6860
 0.3890	 6.6990
 0.3900	 6.6730
 0.3910	 6.6690
 0.3920	 6.6950
 0.3930	 6.7290
 0.3940	 6.7390
 0.3950	 6.6880
 0.3960	 6.6960
 0.3970	 6.7220
 0.3980	 6.6730
 0.3990	 6.6740
 0.4000	 6.6810
 0.4010	 6.6830
 0.4020	 6.7270
 0.4030	 6.7270
 0.4040	 6.7190
 0.4050	 6.7410
 0.4060	 6.7350
 0.4070	 6.7350
 0.4080	 6.7490
 0.4090	 6.7670
 0.4100	 6.7780
 0.4110	 6.7850
 0.4120	 6.7880
 0.4130	 6.7830
 0.4140	 6.7960
 0.4150	 6.8180
 0.4160	 6.8290
 0.4170	 6.8460
 0.4180	 6.8610
 0.4190	 6.8740
 0.4200	 6.8860
 0.4210	 6.8790
 0.4220	 6.8840
 0.4230	 6.9160
 0.4240	 6.9260
 0.4250	 6.9320
 0.4260	 6.9410
 0.4270	 6.9530
 0.4280	 6.9580
 0.4290	 6.9590
 0.4300	 6.9610
 0.4310	 6.9630
 0.4320	 6.9610
 0.4330	 6.9550
 0.4340	 6.9490
 0.4350	 6.9580
 0.4360	 6.9710
 0.4370	 6.9840
 0.4380	 6.9980
 0.4390	 7.0220
 0.4400	 7.0510
 0.4410	 7.0790
 0.4420	 7.1000
 0.4430	 7.1150
 0.4440	 7.1250
 0.4450	 7.1350
 0.4460	 7.1440
 0.4470	 7.1530
 0.4480	 7.1630
 0.4490	 7.1700
 0.4500	 7.1780
 0.4510	 7.1920
 0.4520	 7.2080
 0.4530	 7.2160
 0.4540	 7.2170
 0.4550	 7.2180
 0.4560	 7.2260
 0.4570	 7.2390
 0.4580	 7.2490
 0.4590	 7.2540
 0.4600	 7.2590
 0.4610	 7.2690
 0.4620	 7.2780
 0.4630	 7.2790
 0.4640	 7.2760
 0.4650	 7.2820
 0.4660	 7.2950
 0.4670	 7.2950
 0.4680	 7.2960
 0.4690	 7.3050
 0.4700	 7.3210
 0.4710	 7.3220
 0.4720	 7.3240
 0.4730	 7.3250
 0.4740	 7.3210
 0.4750	 7.3290
 0.4760	 7.3420
 0.4770	 7.3500
 0.4780	 7.3500
 0.4790	 7.3500
 0.4800	 7.3510
 0.4810	 7.3530
 0.4820	 7.3580
 0.4830	 7.3610
 0.4840	 7.3600
 0.4850	 7.3540
 0.4860	 7.3510
 0.4870	 7.3540
 0.4880	 7.3620
 0.4890	 7.3740
 0.4900	 7.3840
 0.4910	 7.3940
 0.4920	 7.4090
 0.4930	 7.4310
 0.4940	 7.4510
 0.4950	 7.4640
 0.4960	 7.4770
 0.4970	 7.4900
 0.4980	 7.5070
 0.4990	 7.5300
 0.5000	 7.5530
 0.5010	 7.5750
 0.5020	 7.5980
 0.5030	 7.6220
 0.5040	 7.6540
 0.5050	 7.6870
 0.5060	 7.7180
 0.5070	 7.7460
 0.5080	 7.7780
 0.5090	 7.8160
 0.5100	 7.8630
 0.5110	 7.9070
 0.5120	 7.9550
 0.5130	 8.0120
 0.5140	 8.0750
 0.5150	 8.1380
 0.5160	 8.2080
 0.5170	 8.2860
 0.5180	 8.3690
 0.5190	 8.4560
 0.5200	 8.5470
 0.5210	 8.6410
 0.5220	 8.7370
 0.5230	 8.8350
 0.5240	 8.9360
 0.5250	 9.0400
 0.5260	 9.1370
 0.5270	 9.2310
 0.5280	 9.3290
 0.5290	 9.4110
 0.5300	 9.4860
 0.5310	 9.5620
 0.5320	 9.6340
 0.5330	 9.6980
 0.5340	 9.7560
 0.5350	 9.8100
 0.5360	 9.8560
 0.5370	 9.8910
 0.5380	 9.9190
 0.5390	 9.9440
 0.5400	 9.9560
 0.5410	 9.9560
 0.5420	 9.9520
 0.5430	 9.9540
 0.5440	 9.9680
 0.5450	 9.9990
 0.5460	10.0460
 0.5470	10.0960
 0.5480	10.1430
 0.5490	10.1790
 0.5500	10.2030
 0.5510	10.2220
 0.5520	10.2360
 0.5530	10.2480
 0.5540	10.2530
 0.5550	10.2500
 0.5560	10.2380
 0.5570	10.2170
 0.5580	10.1900
 0.5590	10.1550
 0.5600	10.1140
 0.5610	10.0720
 0.5620	10.0260
 0.5630	 9.9760
 0.5640	 9.9210
 0.5650	 9.8680
 0.5660	 9.8130
 0.5670	 9.7560
 0.5680	 9.7000
 0.5690	 9.6440
 0.5700	 9.5890
 0.5710	 9.5320
 0.5720	 9.4790
 0.5730	 9.4290
 0.5740	 9.3820
 0.5750	 9.3370
 0.5760	 9.2960
 0.5770	 9.2560
 0.5780	 9.2180
 0.5790	 9.1850
 0.5800	 9.1570
 0.5810	 9.1320
 0.5820	 9.1120
 0.5830	 9.0890
 0.5840	 9.0700
 0.5850	 9.0570
 0.5860	 9.0490
 0.5870	 9.0410
 0.5880	 9.0330
 0.5890	 9.0280
 0.5900	 9.0220
 0.5910	 9.0130
 0.5920	 9.0050
 0.5930	 9.0040
 0.5940	 9.0050
 0.5950	 9.0100
 0.5960	 9.0180
 0.5970	 9.0270
 0.5980	 9.0330
 0.5990	 9.0340
 0.6000	 9.0340
 0.6010	 9.0330
 0.6020	 9.0320
 0.6030	 9.0290
 0.6040	 9.0190
 0.6050	 9.0030
 0.6060	 8.9850
 0.6070	 8.9680
 0.6080	 8.9460
 0.6090	 8.9130
 0.6100	 8.8630
 0.6110	 8.8020
 0.6120	 8.7830
 0.6130	 8.7870
 0.6140	 8.7950
 0.6150	 8.7870
 0.6160	 8.7790
 0.6170	 8.7720
 0.6180	 8.7610
 0.6190	 8.7490
 0.6200	 8.7400
 0.6210	 8.7360
 0.6220	 8.7340
 0.6230	 8.7300
 0.6240	 8.7300
 0.6250	 8.7350
 0.6260	 8.7390
 0.6270	 8.7430
 0.6280	 8.7480
 0.6290	 8.7530
 0.6300	 8.7560
 0.6310	 8.7600
 0.6320	 8.7670
 0.6330	 8.7800
 0.6340	 8.7880
 0.6350	 8.7920
 0.6360	 8.7920
 0.6370	 8.7910
 0.6380	 8.7880
 0.6390	 8.7820
 0.6400	 8.7760
 0.6410	 8.7710
 0.6420	 8.7640
 0.6430	 8.7560
 0.6440	 8.7480
 0.6450	 8.7420
 0.6460	 8.7380
 0.6470	 8.7330
 0.6480	 8.7300
 0.6490	 8.7270
 0.6500	 8.7270
 0.6510	 8.7300
 0.6520	 8.7350
 0.6530	 8.7420
 0.6540	 8.7470
 0.6550	 8.7500
 0.6560	 8.7540
 0.6570	 8.7570
 0.6580	 8.7570
 0.6590	 8.7580
 0.6600	 8.7610
 0.6610	 8.7630
 0.6620	 8.7630
 0.6630	 8.7640
 0.6640	 8.7700
 0.6650	 8.7810
 0.6660	 8.7910
 0.6670	 8.8030
 0.6680	 8.8180
 0.6690	 8.8400
 0.6700	 8.8650
 0.6710	 8.8910
 0.6720	 8.9180
 0.6730	 8.9500
 0.6740	 8.9860
 0.6750	 9.0270
 0.6760	 9.0710
 0.6770	 9.1150
 0.6780	 9.1620
 0.6790	 9.2130
 0.6800	 9.2700
 0.6810	 9.3300
 0.6820	 9.3910
 0.6830	 9.4520
 0.6840	 9.5170
 0.6850	 9.5830
 0.6860	 9.6480
 0.6870	 9.7130
 0.6880	 9.7820
 0.6890	 9.8570
 0.6900	 9.9410
 0.6910	10.0400
 0.6920	10.1560
 0.6930	10.2950
 0.6940	10.4650
 0.6950	10.6700
 0.6960	10.9160
 0.6970	11.2050
 0.6980	11.5330
 0.6990	11.9040
 0.7000	12.3150
 0.7010	12.7660
 0.7020	13.2510
 0.7030	13.7620
 0.7040	14.2980
 0.7050	14.8560
 0.7060	15.4310
 0.7070	16.0220
 0.7080	16.6270
 0.7090	17.2470
 0.7100	17.8800
 0.7110	18.5250
 0.7120	19.1790
 0.7130	19.8450
 0.7140	20.5190
 0.7150	21.2000
 0.7160	21.8880
 0.7170	22.5810
 0.7180	23.2770
 0.7190	23.9720
 0.7200	24.6650
 0.7210	25.3570
 0.7220	26.0440
 0.7230	26.7220
 0.7240	27.3920
 0.7250	28.0490
 0.7260	28.6910
 0.7270	29.3170
 0.7280	29.9240
 0.7290	30.5120
 0.7300	31.0810
 0.7310	31.6300
 0.7320	32.1560
 0.7330	32.6600
 0.7340	33.1420
 0.7350	33.6000
 0.7360	34.0360
 0.7370	34.4490
 0.7380	34.8400
 0.7390	35.2080
 0.7400	35.5540
 0.7410	35.8780
 0.7420	36.1830
 0.7430	36.4670
 0.7440	36.7290
 0.7450	36.9720
 0.7460	37.2000
 0.7470	37.4070
 0.7480	37.5970
 0.7490	37.7730
 0.7500	37.9320
 0.7510	38.0780
 0.7520	38.2140
 0.7530	38.3400
 0.7540	38.4530
 0.7550	38.5590
 0.7560	38.6580
 0.7570	38.7460
 0.7580	38.8260
 0.7590	38.9010
 0.7600	38.9720
 0.7610	39.0390
 0.7620	39.0980
 0.7630	39.1520
 0.7640	39.2030
 0.7650	39.2530
 0.7660	39.2980
 0.7670	39.3380
 0.7680	39.3730
 0.7690	39.4080
 0.7700	39.4420
 0.7710	39.4720
 0.7720	39.5010
 0.7730	39.5300
 0.7740	39.5570
 0.7750	39.5830
 0.7760	39.6090
 0.7770	39.6340
 0.7780	39.6570
 0.7790	39.6790
 0.7800	39.7010
 0.7810	39.7250
 0.7820	39.7490
 0.7830	39.7690
 0.7840	39.7900
 0.7850	39.8090
 0.7860	39.8250
 0.7870	39.8410
 0.7880	39.8580
 0.7890	39.8750
 0.7900	39.8900
 0.7910	39.9030
 0.7920	39.9150
 0.7930	39.9270
 0.7940	39.9400
 0.7950	39.9520
 0.7960	39.9610
 0.7970	39.9680
 0.7980	39.9740
 0.7990	39.9810
 0.8000	39.9880
 0.8010	39.9940
 0.8020	40.0000
 0.8030	40.0050
 0.8040	40.0080
 0.8050	40.0090
 0.8060	40.0100
 0.8070	40.0120
 0.8080	40.0120
 0.8090	40.0110
 0.8100	40.0120
 0.8110	40.0110
 0.8120	40.0060
 0.8130	40.0050
 0.8140	40.0020
 0.8150	39.9980
 0.8160	39.9970
 0.8170	39.9930
 0.8180	39.9870
 0.8190	39.9820
 0.8200	39.9790
 0.8210	39.9750
 0.8220	39.9690
 0.8230	39.9600
 0.8240	39.9520
 0.8250	39.9490
 0.8260	39.9470
 0.8270	39.9430
 0.8280	39.9340
 0.8290	39.9250
 0.8300	39.9190
 0.8310	39.9160
 0.8320	39.9130
 0.8330	39.9070
 0.8340	39.9010
 0.8350	39.8970
 0.8360	39.8930
 0.8370	39.8900
 0.8380	39.8890
 0.8390	39.8870
 0.8400	39.8830
 0.8410	39.8810
 0.8420	39.8820
 0.8430	39.8830
 0.8440	39.8830
 0.8450	39.8830
 0.8460	39.8840
 0.8470	39.8850
 0.8480	39.8890
 0.8490	39.8930
 0.8500	39.8930
 0.8510	39.8970
 0.8520	39.9030
 0.8530	39.9100
 0.8540	39.9170
 0.8550	39.9190
 0.8560	39.9200
 0.8570	39.9250
 0.8580	39.9380
 0.8590	39.9490
 0.8600	39.9590
 0.8610	39.9670
 0.8620	39.9750
 0.8630	39.9820
 0.8640	39.9950
 0.8650	40.0140
 0.8660	40.0260
 0.8670	40.0360
 0.8680	40.0470
 0.8690	40.0610
 0.8700	40.0730
 0.8710	40.0870
 0.8720	40.1040
 0.8730	40.1230
 0.8740	40.1340
 0.8750	40.1510
 0.8760	40.1710
 0.8770	40.1850
 0.8780	40.2010
 0.8790	40.2170
 0.8800	40.2310
 0.8810	40.2460
 0.8820	40.2650
 0.8830	40.2840
 0.8840	40.3020
 0.8850	40.3150
 0.8860	40.3290
 0.8870	40.3460
 0.8880	40.3620
 0.8890	40.3820
 0.8900	40.3940
 0.8910	40.4060
 0.8920	40.4300
 0.8930	40.4500
 0.8940	40.4680
 0.8950	40.4810
 0.8960	40.4860
 0.8970	40.5030
 0.8980	40.5220
 0.8990	40.5380
 0.9000	40.5500
 0.9010	40.5670
 0.9020	40.5840
 0.9030	40.6000
 0.9040	40.6120
 0.9050	40.6220
 0.9060	40.6320
 0.9070	40.6440
 0.9080	40.6550
 0.9090	40.6610
 0.9100	40.6670
 0.9110	40.6780
 0.9120	40.6960
 0.9130	40.7060
 0.9140	40.7130
 0.9150	40.7230
 0.9160	40.7300
 0.9170	40.7360
 0.9180	40.7410
 0.9190	40.7430
 0.9200	40.7460
 0.9210	40.7540
 0.9220	40.7600
 0.9230	40.7610
 0.9240	40.7660
 0.9250	40.7700
 0.9260	40.7680
 0.9270	40.7600
 0.9280	40.7590
 0.9290	40.7570
 0.9300	40.7510
 0.9310	40.7460
 0.9320	40.7420
 0.9330	40.7350
 0.9340	40.7290
 0.9350	40.7240
 0.9360	40.7140
 0.9370	40.7040
 0.9380	40.6960
 0.9390	40.6920
 0.9400	40.6830
 0.9410	40.6730
 0.9420	40.6640
 0.9430	40.6460
 0.9440	40.6270
 0.9450	40.6180
 0.9460	40.6120
 0.9470	40.5750
 0.9480	40.5530
 0.9490	40.5360
 0.9500	40.5100
 0.9510	40.4830
 0.9520	40.4540
 0.9530	40.4300
 0.9540	40.4130
 0.9550	40.3890
 0.9560	40.3570
 0.9570	40.3290
 0.9580	40.3120
 0.9590	40.2820
 0.9600	40.2550
 0.9610	40.2360
 0.9620	40.2200
 0.9630	40.1940
 0.9640	40.1770
 0.9650	40.1640
 0.9660	40.1460
 0.9670	40.1320
 0.9680	40.1170
 0.9690	40.1070
 0.9700	40.1090
 0.9710	40.0950
 0.9720	40.0760
 0.9730	40.0620
 0.9740	40.0590
 0.9750	40.0500
 0.9760	40.0380
 0.9770	40.0320
 0.9780	40.0360
 0.9790	40.0250
 0.9800	40.0190
 0.9810	40.0180
 0.9820	40.0140
 0.9830	40.0100
 0.9840	40.0030
 0.9850	39.9980
 0.9860	40.0000
 0.9870	39.9960
 0.9880	40.0020
 0.9890	40.0160
 0.9900	40.0270
 0.9910	40.0120
 0.9920	40.0030
 0.9930	40.0080
 0.9940	40.0200
 0.9950	40.0160
 0.9960	40.0130
 0.9970	40.0180
 0.9980	40.0230
 0.9990	40.0180
 1.0000	40.0170
 1.0010	40.8590
 1.0020	40.8610
 1.0030	40.8690
 1.0040	40.8680
 1.0050	40.8700
 1.0060	40.8740
 1.0070	40.8750
 1.0080	40.8810
 1.0090	40.8910
 1.0100	40.8960
 1.0110	40.8990
 1.0120	40.9030
 1.0130	40.9050
 1.0140	40.9100
 1.0150	40.9180
 1.0160	40.9260
 1.0170	40.9340
 1.0180	40.9370
 1.0190	40.9420
 1.0200	40.9480
 1.0210	40.9500
 1.0220	40.9550
 1.0230	40.9620
 1.0240	40.9680
 1.0250	40.9750
 1.0260	40.9890
 1.0270	40.9970
 1.0280	41.0010
 1.0290	41.0070
 1.0300	41.0120
 1.0310	41.0190
 1.0320	41.0270
 1.0330	41.0340
 1.0340	41.0410
 1.0350	41.0470
 1.0360	41.0520
 1.0370	41.0590
 1.0380	41.0680
 1.0390	41.0810
 1.0400	41.0880
 1.0410	41.0930
 1.0420	41.1010
 1.0430	41.1060
 1.0440	41.1130
 1.0450	41.1230
 1.0460	41.1310
 1.0470	41.1350
 1.0480	41.1400
 1.0490	41.1450
 1.0500	41.1500
 1.0510	41.1540
 1.0520	41.1560
 1.0530	41.1590
 1.0540	41.1630
 1.0550	41.1680
 1.0560	41.1750
 1.0570	41.1800
 1.0580	41.1850
 1.0590	41.1900
 1.0600	41.1950
 1.0610	41.1980
 1.0620	41.2010
 1.0630	41.2040
 1.0640	41.2050
 1.0650	41.2070
 1.0660	41.2100
 1.0670	41.2120
 1.0680	41.2130
 1.0690	41.2110
 1.0700	41.2120
 1.0710	41.2120
 1.0720	41.2150
 1.0730	41.2210
 1.0740	41.2220
 1.0750	41.2220
 1.0760	41.2220
 1.0770	41.2170
 1.0780	41.2160
 1.0790	41.2180
 1.0800	41.2180
 1.0810	41.2170
 1.0820	41.2170
 1.0830	41.2180
 1.0840	41.2170
 1.0850	41.2160
 1.0860	41.2140
 1.0870	41.2130
 1.0880	41.2100
 1.0890	41.2100
 1.0900	41.2140
 1.0910	41.2140
 1.0920	41.2130
 1.0930	41.2100
 1.0940	41.2050
 1.0950	41.2020
 1.0960	41.2010
 1.0970	41.1980
 1.0980	41.1950
 1.0990	41.1920
 1.1000	41.1890
 1.1010	41.1870
 1.1020	41.1860
 1.1030	41.1840
 1.1040	41.1820
 1.1050	41.1800
 1.1060	41.1770
 1.1070	41.1720
 1.1080	41.1690
 1.1090	41.1650
 1.1100	41.1620
 1.1110	41.1610
 1.1120	41.1570
 1.1130	41.1510
 1.1140	41.1460
 1.1150	41.1390
 1.1160	41.1320
 1.1170	41.1280
 1.1180	41.1210
 1.1190	41.1110
 1.1200	41.1000
 1.1210	41.0870
 1.1220	41.0740
 1.1230	41.0580
 1.1240	41.0420
 1.1250	41.0250
 1.1260	41.0090
 1.1270	40.9880
 1.1280	40.9660
 1.1290	40.9390
 1.1300	40.9080
 1.1310	40.8740
 1.1320	40.8390
 1.1330	40.7990
 1.1340	40.7550
 1.1350	40.7090
 1.1360	40.6600
 1.1370	40.6080
 1.1380	40.5530
 1.1390	40.4970
 1.1400	40.4380
 1.1410	40.3780
 1.1420	40.3160
 1.1430	40.2520
 1.1440	40.1880
 1.1450	40.1230
 1.1460	40.0590
 1.1470	39.9940
 1.1480	39.9310
 1.1490	39.8680
 1.1500	39.8090
 1.1510	39.7490
 1.1520	39.6950
 1.1530	39.6430
 1.1540	39.5950
 1.1550	39.5510
 1.1560	39.5090
 1.1570	39.4670
 1.1580	39.4280
 1.1590	39.3930
 1.1600	39.3600
 1.1610	39.3300
 1.1620	39.3040
 1.1630	39.2790
 1.1640	39.2540
 1.1650	39.2310
 1.1660	39.2090
 1.1670	39.1890
 1.1680	39.1700
 1.1690	39.1520
 1.1700	39.1380
 1.1710	39.1210
 1.1720	39.1040
 1.1730	39.0880
 1.1740	39.0700
 1.1750	39.0540
 1.1760	39.0400
 1.1770	39.0240
 1.1780	39.0070
 1.1790	38.9890
 1.1800	38.9710
 1.1810	38.9540
 1.1820	38.9390
 1.1830	38.9260
 1.1840	38.9100
 1.1850	38.8940
 1.1860	38.8780
 1.1870	38.8630
 1.1880	38.8500
 1.1890	38.8390
 1.1900	38.8280
 1.1910	38.8170
 1.1920	38.8060
 1.1930	38.7960
 1.1940	38.7870
 1.1950	38.7790
 1.1960	38.7720
 1.1970	38.7680
 1.1980	38.7640
 1.1990	38.7610
 1.2000	38.7570
 1.2010	38.7540
 1.2020	38.7500
 1.2030	38.7480
 1.2040	38.7480
 1.2050	38.7490
 1.2060	38.7510
 1.2070	38.7550
 1.2080	38.7610
 1.2090	38.7660
 1.2100	38.7710
 1.2110	38.7770
 1.2120	38.7830
 1.2130	38.7920
 1.2140	38.8040
 1.2150	38.8150
 1.2160	38.8270
 1.2170	38.8390
 1.2180	38.8510
 1.2190	38.8640
 1.2200	38.8810
 1.2210	38.8990
 1.2220	38.9150
 1.2230	38.9330
 1.2240	38.9510
 1.2250	38.9660
 1.2260	38.9810
 1.2270	38.9980
 1.2280	39.0130
 1.2290	39.0300
 1.2300	39.0460
 1.2310	39.0610
 1.2320	39.0750
 1.2330	39.0870
 1.2340	39.0990
 1.2350	39.1100
 1.2360	39.1200
 1.2370	39.1290
 1.2380	39.1370
 1.2390	39.1440
 1.2400	39.1510
 1.2410	39.1590
 1.2420	39.1670
 1.2430	39.1780
 1.2440	39.1860
 1.2450	39.1940
 1.2460	39.2020
 1.2470	39.2070
 1.2480	39.2110
 1.2490	39.2170
 1.2500	39.2190
 1.2510	39.2230
 1.2520	39.2280
 1.2530	39.2330
 1.2540	39.2370
 1.2550	39.2410
 1.2560	39.2430
 1.2570	39.2450
 1.2580	39.2460
 1.2590	39.2460
 1.2600	39.2460
 1.2610	39.2450
 1.2620	39.2440
 1.2630	39.2420
 1.2640	39.2400
 1.2650	39.2380
 1.2660	39.2360
 1.2670	39.2330
 1.2680	39.2300
 1.2690	39.2260
 1.2700	39.2220
 1.2710	39.2170
 1.2720	39.2130
 1.2730	39.2090
 1.2740	39.2040
 1.2750	39.2000
 1.2760	39.1930
 1.2770	39.1860
 1.2780	39.1780
 1.2790	39.1690
 1.2800	39.1600
 1.2810	39.1500
 1.2820	39.1420
 1.2830	39.1310
 1.2840	39.1170
 1.2850	39.1040
 1.2860	39.0910
 1.2870	39.0750
 1.2880	39.0590
 1.2890	39.0420
 1.2900	39.0240
 1.2910	39.0020
 1.2920	38.9810
 1.2930	38.9590
 1.2940	38.9350
 1.2950	38.9100
 1.2960	38.8820
 1.2970	38.8530
 1.2980	38.8240
 1.2990	38.7960
 1.3000	38.7670
 1.3010	38.7340
 1.3020	38.7000
 1.3030	38.6620
 1.3040	38.6250
 1.3050	38.5900
 1.3060	38.5530
 1.3070	38.5140
 1.3080	38.4750
 1.3090	38.4330
 1.3100	38.3900
 1.3110	38.3490
 1.3120	38.3050
 1.3130	38.2610
 1.3140	38.2160
 1.3150	38.1690
 1.3160	38.1210
 1.3170	38.0730
 1.3180	38.0230
 1.3190	37.9710
 1.3200	37.9180
 1.3210	37.8640
 1.3220	37.8080
 1.3230	37.7520
 1.3240	37.6960
 1.3250	37.6380
 1.3260	37.5780
 1.3270	37.5160
 1.3280	37.4540
 1.3290	37.3890
 1.3300	37.3250
 1.3310	37.2590
 1.3320	37.1910
 1.3330	37.1240
 1.3340	37.0560
 1.3350	36.9890
 1.3360	36.9200
 1.3370	36.8500
 1.3380	36.7800
 1.3390	36.7110
 1.3400	36.6420
 1.3410	36.5720
 1.3420	36.5020
 1.3430	36.4320
 1.3440	36.3610
 1.3450	36.2920
 1.3460	36.2240
 1.3470	36.1560
 1.3480	36.0870
 1.3490	36.0210
 1.3500	35.9540
 1.3510	35.8880
 1.3520	35.8230
 1.3530	35.7590
 1.3540	35.6940
 1.3550	35.6280
 1.3560	35.5620
 1.3570	35.4940
 1.3580	35.4250
 1.3590	35.3550
 1.3600	35.2840
 1.3610	35.2110
 1.3620	35.1360
 1.3630	35.0580
 1.3640	34.9780
 1.3650	34.8940
 1.3660	34.8070
 1.3670	34.7150
 1.3680	34.6170
 1.3690	34.5120
 1.3700	34.4010
 1.3710	34.2820
 1.3720	34.1530
 1.3730	34.0140
 1.3740	33.8670
 1.3750	33.7070
 1.3760	33.5350
 1.3770	33.3490
 1.3780	33.1450
 1.3790	32.9270
 1.3800	32.6930
 1.3810	32.4400
 1.3820	32.1740
 1.3830	31.8930
 1.3840	31.5970
 1.3850	31.2860
 1.3860	30.9610
 1.3870	30.6190
 1.3880	30.2680
 1.3890	29.9030
 1.3900	29.5280
 1.3910	29.1500
 1.3920	28.7610
 1.3930	28.3650
 1.3940	27.9660
 1.3950	27.5590
 1.3960	27.1540
 1.3970	26.7520
 1.3980	26.3510
 1.3990	25.9580
 1.4000	25.5710
 1.4010	25.1890
 1.4020	24.8190
 1.4030	24.4570
 1.4040	24.1060
 1.4050	23.7670
 1.4060	23.4390
 1.4070	23.1280
 1.4080	22.8300
 1.4090	22.5450
 1.4100	22.2770
 1.4110	22.0190
 1.4120	21.7750
 1.4130	21.5450
 1.4140	21.3290
 1.4150	21.1290
 1.4160	20.9410
 1.4170	20.7630
 1.4180	20.5980
 1.4190	20.4420
 1.4200	20.2960
 1.4210	20.1610
 1.4220	20.0340
 1.4230	19.9170
 1.4240	19.8090
 1.4250	19.7080
 1.4260	19.6160
 1.4270	19.5300
 1.4280	19.4530
 1.4290	19.3800
 1.4300	19.3140
 1.4310	19.2530
 1.4320	19.1990
 1.4330	19.1500
 1.4340	19.1060
 1.4350	19.0670
 1.4360	19.0310
 1.4370	19.0000
 1.4380	18.9730
 1.4390	18.9500
 1.4400	18.9320
 1.4410	18.9160
 1.4420	18.9040
 1.4430	18.8940
 1.4440	18.8870
 1.4450	18.8820
 1.4460	18.8790
 1.4470	18.8790
 1.4480	18.8800
 1.4490	18.8830
 1.4500	18.8880
 1.4510	18.8950
 1.4520	18.9020
 1.4530	18.9120
 1.4540	18.9230
 1.4550	18.9370
 1.4560	18.9520
 1.4570	18.9700
 1.4580	18.9910
 1.4590	19.0150
 1.4600	19.0420
 1.4610	19.0740
 1.4620	19.1060
 1.4630	19.1430
 1.4640	19.1840
 1.4650	19.2280
 1.4660	19.2770
 1.4670	19.3300
 1.4680	19.3860
 1.4690	19.4470
 1.4700	19.5120
 1.4710	19.5800
 1.4720	19.6510
 1.4730	19.7240
 1.4740	19.8010
 1.4750	19.8810
 1.4760	19.9630
 1.4770	20.0480
 1.4780	20.1330
 1.4790	20.2200
 1.4800	20.3080
 1.4810	20.3970
 1.4820	20.4890
 1.4830	20.5800
 1.4840	20.6730
 1.4850	20.7660
 1.4860	20.8590
 1.4870	20.9530
 1.4880	21.0480
 1.4890	21.1430
 1.4900	21.2380
 1.4910	21.3350
 1.4920	21.4320
 1.4930	21.5310
 1.4940	21.6290
 1.4950	21.7280
 1.4960	21.8260
 1.4970	21.9220
 1.4980	22.0200
 1.4990	22.1180
 1.5000	22.2160
 1.5010	22.3160
 1.5020	22.4140
 1.5030	22.5120
 1.5040	22.6090
 1.5050	22.7060
 1.5060	22.8030
 1.5070	22.9000
 1.5080	22.9970
 1.5090	23.0950
 1.5100	23.1920
 1.5110	23.2870
 1.5120	23.3850
 1.5130	23.4800
 1.5140	23.5730
 1.5150	23.6670
 1.5160	23.7570
 1.5170	23.8490
 1.5180	23.9400
 1.5190	24.0290
 1.5200	24.1190
 1.5210	24.2070
 1.5220	24.2950
 1.5230	24.3840
 1.5240	24.4720
 1.5250	24.5580
 1.5260	24.6430
 1.5270	24.7270
 1.5280	24.8110
 1.5290	24.8920
 1.5300	24.9730
 1.5310	25.0550
 1.5320	25.1350
 1.5330	25.2150
 1.5340	25.2930
 1.5350	25.3690
 1.5360	25.4440
 1.5370	25.5180
 1.5380	25.5910
 1.5390	25.6650
 1.5400	25.7380
 1.5410	25.8120
 1.5420	25.8850
 1.5430	25.9580
 1.5440	26.0290
 1.5450	26.0990
 1.5460	26.1690
 1.5470	26.2390
 1.5480	26.3080
 1.5490	26.3760
 1.5500	26.4430
 1.5510	26.5090
 1.5520	26.5750
 1.5530	26.6390
 1.5540	26.7020
 1.5550	26.7660
 1.5560	26.8280
 1.5570	26.8880
 1.5580	26.9480
 1.5590	27.0060
 1.5600	27.0630
 1.5610	27.1210
 1.5620	27.1780
 1.5630	27.2350
 1.5640	27.2920
 1.5650	27.3460
 1.5660	27.3990
 1.5670	27.4540
 1.5680	27.5070
 1.5690	27.5600
 1.5700	27.6140
 1.5710	27.6650
 1.5720	27.7160
 1.5730	27.7680
 1.5740	27.8180
 1.5750	27.8680
 1.5760	27.9190
 1.5770	27.9690
 1.5780	28.0200
 1.5790	28.0700
 1.5800	28.1190
 1.5810	28.1680
 1.5820	28.2180
 1.5830	28.2660
 1.5840	28.3160
 1.5850	28.3650
 1.5860	28.4130
 1.5870	28.4600
 1.5880	28.5050
 1.5890	28.5500
 1.5900	28.5950
 1.5910	28.6410
 1.5920	28.6890
 1.5930	28.7350
 1.5940	28.7800
 1.5950	28.8260
 1.5960	28.8700
 1.5970	28.9140
 1.5980	28.9590
 1.5990	29.0030
 1.6000	29.0480
 1.6010	29.0910
 1.6020	29.1330
 1.6030	29.1740
 1.6040	29.2140
 1.6050	29.2530
 1.6060	29.2930
 1.6070	29.3340
 1.6080	29.3730
 1.6090	29.4110
 1.6100	29.4490
 1.6110	29.4870
 1.6120	29.5240
 1.6130	29.5610
 1.6140	29.5980
 1.6150	29.6320
 1.6160	29.6660
 1.6170	29.7010
 1.6180	29.7340
 1.6190	29.7660
 1.6200	29.7970
 1.6210	29.8260
 1.6220	29.8540
 1.6230	29.8830
 1.6240	29.9120
 1.6250	29.9410
 1.6260	29.9720
 1.6270	30.0020
 1.6280	30.0320
 1.6290	30.0600
 1.6300	30.0870
 1.6310	30.1120
 1.6320	30.1340
 1.6330	30.1570
 1.6340	30.1800
 1.6350	30.2040
 1.6360	30.2290
 1.6370	30.2510
 1.6380	30.2710
 1.6390	30.2910
 1.6400	30.3100
 1.6410	30.3270
 1.6420	30.3450
 1.6430	30.3590
 1.6440	30.3710
 1.6450	30.3820
 1.6460	30.3940
 1.6470	30.4060
 1.6480	30.4160
 1.6490	30.4220
 1.6500	30.4250
 1.6510	30.4250
 1.6520	30.4260
 1.6530	30.4270
 1.6540	30.4270
 1.6550	30.4240
 1.6560	30.4190
 1.6570	30.4140
 1.6580	30.4080
 1.6590	30.4010
 1.6600	30.3930
 1.6610	30.3830
 1.6620	30.3740
 1.6630	30.3640
 1.6640	30.3550
 1.6650	30.3430
 1.6660	30.3300
 1.6670	30.3180
 1.6680	30.3050
 1.6690	30.2920
 1.6700	30.2790
 1.6710	30.2660
 1.6720	30.2520
 1.6730	30.2350
 1.6740	30.2180
 1.6750	30.1990
 1.6760	30.1770
 1.6770	30.1560
 1.6780	30.1350
 1.6790	30.1090
 1.6800	30.0830
 1.6810	30.0560
 1.6820	30.0260
 1.6830	29.9960
 1.6840	29.9640
 1.6850	29.9280
 1.6860	29.8930
 1.6870	29.8570
 1.6880	29.8190
 1.6890	29.7820
 1.6900	29.7450
 1.6910	29.7070
 1.6920	29.6690
 1.6930	29.6320
 1.6940	29.5950
 1.6950	29.5590
 1.6960	29.5220
 1.6970	29.4860
 1.6980	29.4490
 1.6990	29.4090
 1.7000	29.3710
 1.7010	29.3340
 1.7020	29.2950
 1.7030	29.2560
 1.7040	29.2160
 1.7050	29.1740
 1.7060	29.1320
 1.7070	29.0900
 1.7080	29.0480
 1.7090	29.0040
 1.7100	28.9610
 1.7110	28.9190
 1.7120	28.8770
 1.7130	28.8360
 1.7140	28.7930
 1.7150	28.7520
 1.7160	28.7110
 1.7170	28.6690
 1.7180	28.6280
 1.7190	28.5890
 1.7200	28.5480
 1.7210	28.5080
 1.7220	28.4690
 1.7230	28.4300
 1.7240	28.3910
 1.7250	28.3530
 1.7260	28.3160
 1.7270	28.2810
 1.7280	28.2510
 1.7290	28.2230
 1.7300	28.2020
 1.7310	28.1820
 1.7320	28.1650
 1.7330	28.1510
 1.7340	28.1380
 1.7350	28.1270
 1.7360	28.1230
 1.7370	28.1120
 1.7380	28.1020
 1.7390	28.0890
 1.7400	28.0740
 1.7410	28.0570
 1.7420	28.0390
 1.7430	28.0170
 1.7440	27.9920
 1.7450	27.9640
 1.7460	27.9330
 1.7470	27.9020
 1.7480	27.8690
 1.7490	27.8360
 1.7500	27.8040
 1.7510	27.7700
 1.7520	27.7350
 1.7530	27.6990
 1.7540	27.6600
 1.7550	27.6240
 1.7560	27.5860
 1.7570	27.5470
 1.7580	27.5110
 1.7590	27.4760
 1.7600	27.4430
 1.7610	27.4090
 1.7620	27.3780
 1.7630	27.3480
 1.7640	27.3220
 1.7650	27.3010
 1.7660	27.2810
 1.7670	27.2620
 1.7680	27.2440
 1.7690	27.2270
 1.7700	27.2120
 1.7710	27.1970
 1.7720	27.1830
 1.7730	27.1710
 1.7740	27.1590
 1.7750	27.1470
 1.7760	27.1340
 1.7770	27.1200
 1.7780	27.1090
 1.7790	27.0980
 1.7800	27.0890
 1.7810	27.0850
 1.7820	27.0790
 1.7830	27.0730
 1.7840	27.0670
 1.7850	27.0590
 1.7860	27.0540
 1.7870	27.0490
 1.7880	27.0470
 1.7890	27.0460
 1.7900	27.0460
 1.7910	27.0470
 1.7920	27.0480
 1.7930	27.0500
 1.7940	27.0520
 1.7950	27.0560
 1.7960	27.0630
 1.7970	27.0690
 1.7980	27.0760
 1.7990	27.0840
 1.8000	27.0950
 1.8010	27.1040
 1.8020	27.1150
 1.8030	27.1250
 1.8040	27.1330
 1.8050	27.1420
 1.8060	27.1510
 1.8070	27.1610
 1.8080	27.1720
 1.8090	27.1820
 1.8100	27.1930
 1.8110	27.2020
 1.8120	27.2110
 1.8130	27.2190
 1.8140	27.2280
 1.8150	27.2360
 1.8160	27.2400
 1.8170	27.2450
 1.8180	27.2510
 1.8190	27.2570
 1.8200	27.2610
 1.8210	27.2640
 1.8220	27.2670
 1.8230	27.2700
 1.8240	27.2720
 1.8250	27.2740
 1.8260	27.2770
 1.8270	27.2820
 1.8280	27.2810
 1.8290	27.2790
 1.8300	27.2750
 1.8310	27.4590
 1.8320	27.4450
 1.8330	27.4320
 1.8340	27.4140
 1.8350	27.3910
 1.8360	27.3700
 1.8370	27.3450
 1.8380	27.3190
 1.8390	27.2910
 1.8400	27.2630
 1.8410	27.2290
 1.8420	27.1920
 1.8430	27.1500
 1.8440	27.1010
 1.8450	27.0440
 1.8460	26.9840
 1.8470	26.9160
 1.8480	26.8470
 1.8490	26.7730
 1.8500	26.6890
 1.8510	26.5990
 1.8520	26.4980
 1.8530	26.3840
 1.8540	26.2650
 1.8550	26.1340
 1.8560	25.9960
 1.8570	25.8560
 1.8580	25.6960
 1.8590	25.5260
 1.8600	25.3440
 1.8610	25.1540
 1.8620	24.9420
 1.8630	24.7240
 1.8640	24.4990
 1.8650	24.2470
 1.8660	23.9800
 1.8670	23.7020
 1.8680	23.4030
 1.8690	23.0900
 1.8700	22.7620
 1.8710	22.4210
 1.8720	22.0640
 1.8730	21.6930
 1.8740	21.3090
 1.8750	20.9130
 1.8760	20.5030
 1.8770	20.0850
 1.8780	19.6590
 1.8790	19.2240
 1.8800	18.7900
 1.8810	18.3530
 1.8820	17.9100
 1.8830	17.4660
 1.8840	17.0240
 1.8850	16.5790
 1.8860	16.1380
 1.8870	15.7050
 1.8880	15.2780
 1.8890	14.8670
 1.8900	14.4720
 1.8910	14.0920
 1.8920	13.7230
 1.8930	13.3750
 1.8940	13.0400
 1.8950	12.7220
 1.8960	12.4260
 1.8970	12.1460
 1.8980	11.8900
 1.8990	11.6530
 1.9000	11.4320
 1.9010	11.2290
 1.9020	11.0430
 1.9030	10.8760
 1.9040	10.7240
 1.9050	10.5890
 1.9060	10.4680
 1.9070	10.3560
 1.9080	10.2550
 1.9090	10.1670
 1.9100	10.0850
 1.9110	10.0120
 1.9120	 9.9530
 1.9130	 9.8960
 1.9140	 9.8450
 1.9150	 9.8030
 1.9160	 9.7630
 1.9170	 9.7240
 1.9180	 9.6910
 1.9190	 9.6600
 1.9200	 9.6350
 1.9210	 9.6150
 1.9220	 9.5980
 1.9230	 9.5840
 1.9240	 9.5720
 1.9250	 9.5620
 1.9260	 9.5580
 1.9270	 9.5560
 1.9280	 9.5530
 1.9290	 9.5550
 1.9300	 9.5610
 1.9310	 9.5620
 1.9320	 9.5680
 1.9330	 9.5760
 1.9340	 9.5860
 1.9350	 9.5980
 1.9360	 9.6170
 1.9370	 9.6340
 1.9380	 9.6520
 1.9390	 9.6690
 1.9400	 9.6880
 1.9410	 9.7100
 1.9420	 9.7310
 1.9430	 9.7530
 1.9440	 9.7780
 1.9450	 9.8030
 1.9460	 9.8320
 1.9470	 9.8670
 1.9480	 9.8990
 1.9490	 9.9320
 1.9500	 9.9640
 1.9510	 9.9940
 1.9520	10.0260
 1.9530	10.0630
 1.9540	10.1010
 1.9550	10.1400
 1.9560	10.1840
 1.9570	10.2240
 1.9580	10.2620
 1.9590	10.3020
 1.9600	10.3430
 1.9610	10.3850
 1.9620	10.4290
 1.9630	10.4740
 1.9640	10.5200
 1.9650	10.5680
 1.9660	10.6160
 1.9670	10.6660
 1.9680	10.7170
 1.9690	10.7690
 1.9700	10.8200
 1.9710	10.8720
 1.9720	10.9260
 1.9730	10.9800
 1.9740	11.0350
 1.9750	11.0900
 1.9760	11.1440
 1.9770	11.1990
 1.9780	11.2540
 1.9790	11.3130
 1.9800	11.3770
 1.9810	11.4380
 1.9820	11.4990
 1.9830	11.5620
 1.9840	11.6260
 1.9850	11.6880
 1.9860	11.7490
 1.9870	11.8120
 1.9880	11.8750
 1.9890	11.9340
 1.9900	11.9980
 1.9910	12.0650
 1.9920	12.1310
 1.9930	12.1960
 1.9940	12.2630
 1.9950	12.3280
 1.9960	12.3960
 1.9970	12.4650
 1.9980	12.5330
 1.9990	12.6000
 2.0000	12.6690
 2.0010	12.7360
 2.0020	12.8020
 2.0030	12.8690
 2.0040	12.9350
 2.0050	12.9990
 2.0060	13.0610
 2.0070	13.1260
 2.0080	13.1930
 2.0090	13.2580
 2.0100	13.3240
 2.0110	13.3880
 2.0120	13.4490
 2.0130	13.5090
 2.0140	13.5710
 2.0150	13.6350
 2.0160	13.6990
 2.0170	13.7590
 2.0180	13.8170
 2.0190	13.8690
 2.0200	13.9250
 2.0210	13.9780
 2.0220	14.0340
 2.0230	14.0960
 2.0240	14.1510
 2.0250	14.2060
 2.0260	14.2580
 2.0270	14.3070
 2.0280	14.3550
 2.0290	14.4040
 2.0300	14.4530
 2.0310	14.5000
 2.0320	14.5460
 2.0330	14.5900
 2.0340	14.6320
 2.0350	14.6740
 2.0360	14.7160
 2.0370	14.7560
 2.0380	14.7930
 2.0390	14.8300
 2.0400	14.8680
 2.0410	14.9030
 2.0420	14.9370
 2.0430	14.9750
 2.0440	15.0100
 2.0450	15.0420
 2.0460	15.0760
 2.0470	15.1100
 2.0480	15.1450
 2.0490	15.1840
 2.0500	15.2190
 2.0510	15.2540
 2.0520	15.2890
 2.0530	15.3210
 2.0540	15.3560
 2.0550	15.3910
 2.0560	15.4280
 2.0570	15.4650
 2.0580	15.5010
 2.0590	15.5400
 2.0600	15.5800
 2.0610	15.6210
 2.0620	15.6630
 2.0630	15.7060
 2.0640	15.7510
 2.0650	15.7950
 2.0660	15.8410
 2.0670	15.8850
 2.0680	15.9250
 2.0690	15.9680
 2.0700	16.0110
 2.0710	16.0530
 2.0720	16.0960
 2.0730	16.1410
 2.0740	16.1830
 2.0750	16.2220
 2.0760	16.2610
 2.0770	16.2990
 2.0780	16.3380
 2.0790	16.3780
 2.0800	16.4180
 2.0810	16.4600
 2.0820	16.4990
 2.0830	16.5350
 2.0840	16.5720
 2.0850	16.6090
 2.0860	16.6460
 2.0870	16.6810
 2.0880	16.7200
 2.0890	16.7550
 2.0900	16.7860
 2.0910	16.8240
 2.0920	16.8660
 2.0930	16.9030
 2.0940	16.9410
 2.0950	16.9790
 2.0960	17.0120
 2.0970	17.0480
 2.0980	17.0850
 2.0990	17.1220
 2.1000	17.1590
 2.1010	17.1940
 2.1020	17.2300
 2.1030	17.2660
 2.1040	17.2990
 2.1050	17.3300
 2.1060	17.3630
 2.1070	17.3950
 2.1080	17.4290
 2.1090	17.4640
 2.1100	17.4980
 2.1110	17.5350
 2.1120	17.5700
 2.1130	17.6040
 2.1140	17.6380
 2.1150	17.6730
 2.1160	17.7060
 2.1170	17.7350
 2.1180	17.7660
 2.1190	17.7970
 2.1200	17.8270
 2.1210	17.8580
 2.1220	17.8910
 2.1230	17.9190
 2.1240	17.9460
 2.1250	17.9710
 2.1260	17.9950
 2.1270	18.0190
 2.1280	18.0420
 2.1290	18.0660
 2.1300	18.0910
 2.1310	18.1150
 2.1320	18.1390
 2.1330	18.1620
 2.1340	18.1880
 2.1350	18.2100
 2.1360	18.2290
 2.1370	18.2480
 2.1380	18.2630
 2.1390	18.2790
 2.1400	18.2940
 2.1410	18.3160
 2.1420	18.3350
 2.1430	18.3550
 2.1440	18.3740
 2.1450	18.3960
 2.1460	18.4140
 2.1470	18.4290
 2.1480	18.4450
 2.1490	18.4590
 2.1500	18.4760
 2.1510	18.4940
 2.1520	18.5100
 2.1530	18.5250
 2.1540	18.5400
 2.1550	18.5550
 2.1560	18.5690
 2.1570	18.5840
 2.1580	18.5990
 2.1590	18.6130
 2.1600	18.6280
 2.1610	18.6380
 2.1620	18.6490
 2.1630	18.6600
 2.1640	18.6690
 2.1650	18.6800
 2.1660	18.6940
 2.1670	18.7070
 2.1680	18.7170
 2.1690	18.7310
 2.1700	18.7470
 2.1710	18.7620
 2.1720	18.7750
 2.1730	18.7920
 2.1740	18.8110
 2.1750	18.8290
 2.1760	18.8510
 2.1770	18.8700
 2.1780	18.8860
 2.1790	18.9030
 2.1800	18.9190
 2.1810	18.9370
 2.1820	18.9570
 2.1830	18.9750
 2.1840	18.9960
 2.1850	19.0180
 2.1860	19.0410
 2.1870	19.0660
 2.1880	19.0900
 2.1890	19.1140
 2.1900	19.1380
 2.1910	19.1600
 2.1920	19.1840
 2.1930	19.2100
 2.1940	19.2350
 2.1950	19.2610
 2.1960	19.2870
 2.1970	19.3150
 2.1980	19.3380
 2.1990	19.3590
 2.2000	19.3790
 2.2010	19.3930
 2.2020	19.4100
 2.2030	19.4310
 2.2040	19.4490
 2.2050	19.4660
 2.2060	19.4860
 2.2070	19.5020
 2.2080	19.5160
 2.2090	19.5300
 2.2100	19.5420
 2.2110	19.5570
 2.2120	19.5740
 2.2130	19.5870
 2.2140	19.6020
 2.2150	19.6130
 2.2160	19.6180
 2.2170	19.6250
 2.2180	19.6310
 2.2190	19.6350
 2.2200	19.6370
 2.2210	19.6380
 2.2220	19.6370
 2.2230	19.6340
 2.2240	19.6320
 2.2250	19.6260
 2.2260	19.6170
 2.2270	19.6070
 2.2280	19.5950
 2.2290	19.5780
 2.2300	19.5590
 2.2310	19.5340
 2.2320	19.5000
 2.2330	19.4690
 2.2340	19.4360
 2.2350	19.4010
 2.2360	19.3650
 2.2370	19.3310
 2.2380	19.2890
 2.2390	19.2440
 2.2400	19.1980
 2.2410	19.1480
 2.2420	19.0960
 2.2430	19.0440
 2.2440	18.9910
 2.2450	18.9350
 2.2460	18.8790
 2.2470	18.8240
 2.2480	18.7630
 2.2490	18.6930
 2.2500	18.6290
 2.2510	18.5650
 2.2520	18.5030
 2.2530	18.4480
 2.2540	18.3860
 2.2550	18.3140
 2.2560	18.2470
 2.2570	18.1810
 2.2580	18.1120
 2.2590	18.0410
 2.2600	17.9750
 2.2610	17.9080
 2.2620	17.8440
 2.2630	17.7870
 2.2640	17.7330
 2.2650	17.6760
 2.2660	17.6180
 2.2670	17.5630
 2.2680	17.5090
 2.2690	17.4560
 2.2700	17.4020
 2.2710	17.3550
 2.2720	17.3100
 2.2730	17.2660
 2.2740	17.2260
 2.2750	17.1850
 2.2760	17.1450
 2.2770	17.1050
 2.2780	17.0680
 2.2790	17.0280
 2.2800	16.9810
 2.2810	16.9410
 2.2820	16.9040
 2.2830	16.8630
 2.2840	16.8200
 2.2850	16.7800
 2.2860	16.7380
 2.2870	16.6970
 2.2880	16.6620
 2.2890	16.6230
 2.2900	16.5830
 2.2910	16.5400
 2.2920	16.4860
 2.2930	16.4420
 2.2940	16.4040
 2.2950	16.3590
 2.2960	16.3210
 2.2970	16.2770
 2.2980	16.2200
 2.2990	16.1660
 2.3000	16.1180
 2.3010	16.0660
 2.3020	16.0190
 2.3030	15.9690
 2.3040	15.9190
 2.3050	15.8740
 2.3060	15.8260
 2.3070	15.7890
 2.3080	15.7510
 2.3090	15.7090
 2.3100	15.6850
 2.3110	15.6640
 2.3120	15.6500
 2.3130	15.6510
 2.3140	15.6430
 2.3150	15.6340
 2.3160	15.6330
 2.3170	15.6350
 2.3180	15.6390
 2.3190	15.6530
 2.3200	15.6580
 2.3210	15.6600
 2.3220	15.6590
 2.3230	15.6560
 2.3240	15.6490
 2.3250	15.6380
 2.3260	15.6230
 2.3270	15.6020
 2.3280	15.5810
 2.3290	15.5540
 2.3300	15.5320
 2.3310	15.5130
 2.3320	15.4880
 2.3330	15.4640
 2.3340	15.4340
 2.3350	15.3980
 2.3360	15.3590
 2.3370	15.3090
 2.3380	15.2690
 2.3390	15.2290
 2.3400	15.1900
 2.3410	15.1590
 2.3420	15.1250
 2.3430	15.0900
 2.3440	15.0560
 2.3450	15.0210
 2.3460	14.9870
 2.3470	14.9540
 2.3480	14.9200
 2.3490	14.8810
 2.3500	14.8520
 2.3510	14.8230
 2.3520	14.8010
 2.3530	14.7910
 2.3540	14.7770
 2.3550	14.7600
 2.3560	14.7510
 2.3570	14.7380
 2.3580	14.7260
 2.3590	14.7190
 2.3600	14.7010
 2.3610	14.6740
 2.3620	14.6490
 2.3630	14.6240
 2.3640	14.6060
 2.3650	14.5950
 2.3660	14.5800
 2.3670	14.5550
 2.3680	14.5220
 2.3690	14.4880
 2.3700	14.4610
 2.3710	14.4420
 2.3720	14.4240
 2.3730	14.3980
 2.3740	14.3650
 2.3750	14.3240
 2.3760	14.2780
 2.3770	14.2500
 2.3780	14.2150
 2.3790	14.1760
 2.3800	14.1520
 2.3810	14.1170
 2.3820	14.0900
 2.3830	14.0740
 2.3840	14.0500
 2.3850	14.0230
 2.3860	13.9840
 2.3870	13.9460
 2.3880	13.9060
 2.3890	13.8640
 2.3900	13.8390
 2.3910	13.8100
 2.3920	13.7770
 2.3930	13.7500
 2.3940	13.7130
 2.3950	13.6720
 2.3960	13.6340
 2.3970	13.5930
 2.3980	13.5590
 2.3990	13.5350
 2.4000	13.5030
 2.4010	13.4760
 2.4020	13.4400
 2.4030	13.3890
 2.4040	13.3600
 2.4050	13.3300
 2.4060	13.2940
 2.4070	13.2740
 2.4080	13.2430
 2.4090	13.1960
 2.4100	13.1650
 2.4110	13.1380
 2.4120	13.0920
 2.4130	13.0560
 2.4140	13.0260
 2.4150	12.9850
 2.4160	12.9560
 2.4170	12.9280
 2.4180	12.8930
 2.4190	12.8540
 2.4200	12.8090
 2.4210	12.7760
 2.4220	12.7320
 2.4230	12.6810
 2.4240	12.6410
 2.4250	12.5820
 2.4260	12.5290
 2.4270	12.4860
 2.4280	12.4450
 2.4290	12.4270
 2.4300	12.4020
 2.4310	12.3820
 2.4320	12.3470
 2.4330	12.2880
 2.4340	12.2430
 2.4350	12.1900
 2.4360	12.1380
 2.4370	12.0850
 2.4380	12.0430
 2.4390	12.0230
 2.4400	11.9990
 2.4410	11.9740
 2.4420	11.9300
 2.4430	11.8830
 2.4440	11.8510
 2.4450	11.8300
 2.4460	11.8350
 2.4470	11.8200
 2.4480	11.7820
 2.4490	11.7450
 2.4500	11.6770
 2.4510	11.6130
 2.4520	11.5590
 2.4530	11.5060
 2.4540	11.4780
 2.4550	11.4590
 2.4560	11.4390
 2.4570	11.4300
 2.4580	11.4220
 2.4590	11.3960
 2.4600	11.3690
 2.4610	11.3420
 2.4620	11.3050
 2.4630	11.2810
 2.4640	11.2530
 2.4650	11.2030
 2.4660	11.1640
 2.4670	11.1540
 2.4680	11.1430
 2.4690	11.1150
 2.4700	11.0910
 2.4710	11.0340
 2.4720	11.0040
 2.4730	11.0130
 2.4740	10.9940
 2.4750	10.9540
 2.4760	10.9370
 2.4770	10.9340
 2.4780	10.9120
 2.4790	10.9050
 2.4800	10.8690
 2.4810	10.7800
 2.4820	10.7420
 2.4830	10.7230
 2.4840	10.7030
 2.4850	10.6920
 2.4860	10.6520
 2.4870	10.6460
 2.4880	10.6670
 2.4890	10.6550
 2.4900	10.6700
 2.4910	10.6460
 2.4920	10.6190
 2.4930	10.6320
 2.4940	10.6430
 2.4950	10.6210
 2.4960	10.5630
 2.4970	10.5510
 2.4980	10.5160
 2.4990	10.4930
 2.5000	10.5350
