Name: Quercus virginana
Type: vegetation
Class: Tree
Genus: Quercus
Species: virginana
Sample No.: JPL174
Owner: JPL
Wavelength Range: VSWIR
Origin: 34.12893; -118.11242; WGS84
Collection Date: 10/3/2016
Description: Samples were collected at the Huntington Garden in San Marino California as part of a JPL Subcontract studying HyTES imagery. Samples were taken to JPL and processed within 48 hours of collection. The same leaves were processed in the Nicolet and then measured using the ASD.
Measurement: Bidirectional reflectance
First Column: X
Second Column: Y
X Units: Wavelength (micrometer)
Y Units: Reflectance (percentage)
First X Value: 0.35
Last X Value: 2.5
Number of X Values: 2151
Additional Information: vegetation.tree.quercus.virginana.vswir.jpl174.jpl.asd.ancillary.txt

 0.3500	 8.6690
 0.3510	 8.7200
 0.3520	 8.8480
 0.3530	 8.8060
 0.3540	 8.5690
 0.3550	 8.7550
 0.3560	 8.7930
 0.3570	 8.6490
 0.3580	 8.5760
 0.3590	 8.6050
 0.3600	 8.6260
 0.3610	 8.5960
 0.3620	 8.5800
 0.3630	 8.5600
 0.3640	 8.5500
 0.3650	 8.5640
 0.3660	 8.5770
 0.3670	 8.5400
 0.3680	 8.4910
 0.3690	 8.5180
 0.3700	 8.4880
 0.3710	 8.4880
 0.3720	 8.5420
 0.3730	 8.5150
 0.3740	 8.4860
 0.3750	 8.4510
 0.3760	 8.4010
 0.3770	 8.4210
 0.3780	 8.4260
 0.3790	 8.3980
 0.3800	 8.3860
 0.3810	 8.4270
 0.3820	 8.4440
 0.3830	 8.4050
 0.3840	 8.4300
 0.3850	 8.4060
 0.3860	 8.3710
 0.3870	 8.3990
 0.3880	 8.4230
 0.3890	 8.4050
 0.3900	 8.3590
 0.3910	 8.3430
 0.3920	 8.3740
 0.3930	 8.4130
 0.3940	 8.4200
 0.3950	 8.3900
 0.3960	 8.3630
 0.3970	 8.3520
 0.3980	 8.3550
 0.3990	 8.3500
 0.4000	 8.3510
 0.4010	 8.3600
 0.4020	 8.3620
 0.4030	 8.3480
 0.4040	 8.3430
 0.4050	 8.3610
 0.4060	 8.3630
 0.4070	 8.3710
 0.4080	 8.3860
 0.4090	 8.3960
 0.4100	 8.4100
 0.4110	 8.4210
 0.4120	 8.4270
 0.4130	 8.4340
 0.4140	 8.4550
 0.4150	 8.4720
 0.4160	 8.4640
 0.4170	 8.4850
 0.4180	 8.4970
 0.4190	 8.4970
 0.4200	 8.5130
 0.4210	 8.5300
 0.4220	 8.5390
 0.4230	 8.5350
 0.4240	 8.5430
 0.4250	 8.5540
 0.4260	 8.5640
 0.4270	 8.5700
 0.4280	 8.5840
 0.4290	 8.5840
 0.4300	 8.5680
 0.4310	 8.5590
 0.4320	 8.5460
 0.4330	 8.5270
 0.4340	 8.5020
 0.4350	 8.4900
 0.4360	 8.4970
 0.4370	 8.5170
 0.4380	 8.5380
 0.4390	 8.5650
 0.4400	 8.5950
 0.4410	 8.6210
 0.4420	 8.6410
 0.4430	 8.6580
 0.4440	 8.6660
 0.4450	 8.6560
 0.4460	 8.6610
 0.4470	 8.6770
 0.4480	 8.6930
 0.4490	 8.6930
 0.4500	 8.7000
 0.4510	 8.7120
 0.4520	 8.7230
 0.4530	 8.7260
 0.4540	 8.7320
 0.4550	 8.7410
 0.4560	 8.7500
 0.4570	 8.7550
 0.4580	 8.7560
 0.4590	 8.7550
 0.4600	 8.7610
 0.4610	 8.7650
 0.4620	 8.7690
 0.4630	 8.7750
 0.4640	 8.7810
 0.4650	 8.7860
 0.4660	 8.7890
 0.4670	 8.7870
 0.4680	 8.7920
 0.4690	 8.7960
 0.4700	 8.7930
 0.4710	 8.7990
 0.4720	 8.7990
 0.4730	 8.7960
 0.4740	 8.8030
 0.4750	 8.8020
 0.4760	 8.8000
 0.4770	 8.8000
 0.4780	 8.8000
 0.4790	 8.8000
 0.4800	 8.8000
 0.4810	 8.7980
 0.4820	 8.7980
 0.4830	 8.7880
 0.4840	 8.7720
 0.4850	 8.7640
 0.4860	 8.7660
 0.4870	 8.7680
 0.4880	 8.7670
 0.4890	 8.7690
 0.4900	 8.7870
 0.4910	 8.8100
 0.4920	 8.8230
 0.4930	 8.8420
 0.4940	 8.8620
 0.4950	 8.8820
 0.4960	 8.9080
 0.4970	 8.9400
 0.4980	 8.9700
 0.4990	 8.9940
 0.5000	 9.0290
 0.5010	 9.0650
 0.5020	 9.0990
 0.5030	 9.1360
 0.5040	 9.1770
 0.5050	 9.2260
 0.5060	 9.2810
 0.5070	 9.3350
 0.5080	 9.3950
 0.5090	 9.4630
 0.5100	 9.5330
 0.5110	 9.6090
 0.5120	 9.6990
 0.5130	 9.8020
 0.5140	 9.9030
 0.5150	10.0150
 0.5160	10.1390
 0.5170	10.2700
 0.5180	10.4080
 0.5190	10.5460
 0.5200	10.6890
 0.5210	10.8510
 0.5220	11.0070
 0.5230	11.1610
 0.5240	11.3210
 0.5250	11.4790
 0.5260	11.6320
 0.5270	11.7760
 0.5280	11.9080
 0.5290	12.0400
 0.5300	12.1630
 0.5310	12.2730
 0.5320	12.3740
 0.5330	12.4670
 0.5340	12.5510
 0.5350	12.6270
 0.5360	12.6970
 0.5370	12.7550
 0.5380	12.7970
 0.5390	12.8220
 0.5400	12.8300
 0.5410	12.8230
 0.5420	12.8090
 0.5430	12.8050
 0.5440	12.8240
 0.5450	12.8670
 0.5460	12.9280
 0.5470	13.0040
 0.5480	13.0730
 0.5490	13.1200
 0.5500	13.1460
 0.5510	13.1690
 0.5520	13.1860
 0.5530	13.1920
 0.5540	13.1880
 0.5550	13.1710
 0.5560	13.1410
 0.5570	13.0960
 0.5580	13.0400
 0.5590	12.9750
 0.5600	12.9000
 0.5610	12.8180
 0.5620	12.7300
 0.5630	12.6370
 0.5640	12.5430
 0.5650	12.4500
 0.5660	12.3580
 0.5670	12.2640
 0.5680	12.1630
 0.5690	12.0600
 0.5700	11.9610
 0.5710	11.8670
 0.5720	11.7720
 0.5730	11.6810
 0.5740	11.5910
 0.5750	11.4930
 0.5760	11.3970
 0.5770	11.3140
 0.5780	11.2420
 0.5790	11.1690
 0.5800	11.1040
 0.5810	11.0480
 0.5820	10.9980
 0.5830	10.9450
 0.5840	10.9040
 0.5850	10.8760
 0.5860	10.8500
 0.5870	10.8200
 0.5880	10.7880
 0.5890	10.7570
 0.5900	10.7230
 0.5910	10.6820
 0.5920	10.6440
 0.5930	10.6230
 0.5940	10.6190
 0.5950	10.6200
 0.5960	10.6170
 0.5970	10.6110
 0.5980	10.6030
 0.5990	10.5920
 0.6000	10.5820
 0.6010	10.5720
 0.6020	10.5560
 0.6030	10.5320
 0.6040	10.5020
 0.6050	10.4690
 0.6060	10.4280
 0.6070	10.3780
 0.6080	10.3290
 0.6090	10.2590
 0.6100	10.1600
 0.6110	10.0440
 0.6120	 9.9960
 0.6130	 9.9900
 0.6140	 9.9910
 0.6150	 9.9650
 0.6160	 9.9360
 0.6170	 9.9070
 0.6180	 9.8740
 0.6190	 9.8410
 0.6200	 9.8080
 0.6210	 9.7800
 0.6220	 9.7630
 0.6230	 9.7500
 0.6240	 9.7380
 0.6250	 9.7260
 0.6260	 9.7200
 0.6270	 9.7140
 0.6280	 9.7090
 0.6290	 9.7050
 0.6300	 9.6970
 0.6310	 9.6900
 0.6320	 9.6870
 0.6330	 9.6890
 0.6340	 9.6890
 0.6350	 9.6800
 0.6360	 9.6630
 0.6370	 9.6450
 0.6380	 9.6220
 0.6390	 9.5950
 0.6400	 9.5680
 0.6410	 9.5350
 0.6420	 9.5020
 0.6430	 9.4710
 0.6440	 9.4400
 0.6450	 9.4070
 0.6460	 9.3740
 0.6470	 9.3420
 0.6480	 9.3170
 0.6490	 9.2920
 0.6500	 9.2670
 0.6510	 9.2480
 0.6520	 9.2330
 0.6530	 9.2190
 0.6540	 9.2030
 0.6550	 9.1860
 0.6560	 9.1680
 0.6570	 9.1480
 0.6580	 9.1260
 0.6590	 9.1010
 0.6600	 9.0760
 0.6610	 9.0520
 0.6620	 9.0270
 0.6630	 9.0060
 0.6640	 8.9900
 0.6650	 8.9780
 0.6660	 8.9670
 0.6670	 8.9560
 0.6680	 8.9500
 0.6690	 8.9530
 0.6700	 8.9560
 0.6710	 8.9620
 0.6720	 8.9720
 0.6730	 8.9870
 0.6740	 9.0030
 0.6750	 9.0200
 0.6760	 9.0400
 0.6770	 9.0640
 0.6780	 9.0930
 0.6790	 9.1240
 0.6800	 9.1580
 0.6810	 9.1930
 0.6820	 9.2340
 0.6830	 9.2810
 0.6840	 9.3320
 0.6850	 9.3860
 0.6860	 9.4470
 0.6870	 9.5170
 0.6880	 9.5990
 0.6890	 9.6960
 0.6900	 9.8140
 0.6910	 9.9590
 0.6920	10.1370
 0.6930	10.3530
 0.6940	10.6150
 0.6950	10.9260
 0.6960	11.2870
 0.6970	11.6980
 0.6980	12.1610
 0.6990	12.6750
 0.7000	13.2340
 0.7010	13.8340
 0.7020	14.4720
 0.7030	15.1410
 0.7040	15.8350
 0.7050	16.5480
 0.7060	17.2820
 0.7070	18.0330
 0.7080	18.7980
 0.7090	19.5810
 0.7100	20.3880
 0.7110	21.2110
 0.7120	22.0460
 0.7130	22.8930
 0.7140	23.7580
 0.7150	24.6380
 0.7160	25.5280
 0.7170	26.4300
 0.7180	27.3370
 0.7190	28.2500
 0.7200	29.1700
 0.7210	30.0890
 0.7220	31.0050
 0.7230	31.9140
 0.7240	32.8140
 0.7250	33.7040
 0.7260	34.5780
 0.7270	35.4340
 0.7280	36.2690
 0.7290	37.0790
 0.7300	37.8630
 0.7310	38.6230
 0.7320	39.3520
 0.7330	40.0540
 0.7340	40.7260
 0.7350	41.3650
 0.7360	41.9730
 0.7370	42.5530
 0.7380	43.1040
 0.7390	43.6180
 0.7400	44.1040
 0.7410	44.5620
 0.7420	44.9910
 0.7430	45.3930
 0.7440	45.7650
 0.7450	46.1070
 0.7460	46.4270
 0.7470	46.7240
 0.7480	46.9970
 0.7490	47.2450
 0.7500	47.4740
 0.7510	47.6880
 0.7520	47.8830
 0.7530	48.0560
 0.7540	48.2120
 0.7550	48.3580
 0.7560	48.4940
 0.7570	48.6170
 0.7580	48.7280
 0.7590	48.8290
 0.7600	48.9220
 0.7610	49.0090
 0.7620	49.0870
 0.7630	49.1560
 0.7640	49.2190
 0.7650	49.2790
 0.7660	49.3310
 0.7670	49.3750
 0.7680	49.4170
 0.7690	49.4590
 0.7700	49.4980
 0.7710	49.5330
 0.7720	49.5650
 0.7730	49.5930
 0.7740	49.6200
 0.7750	49.6480
 0.7760	49.6730
 0.7770	49.6960
 0.7780	49.7200
 0.7790	49.7430
 0.7800	49.7630
 0.7810	49.7830
 0.7820	49.8030
 0.7830	49.8200
 0.7840	49.8350
 0.7850	49.8500
 0.7860	49.8670
 0.7870	49.8820
 0.7880	49.8950
 0.7890	49.9080
 0.7900	49.9210
 0.7910	49.9300
 0.7920	49.9380
 0.7930	49.9470
 0.7940	49.9570
 0.7950	49.9650
 0.7960	49.9710
 0.7970	49.9740
 0.7980	49.9820
 0.7990	49.9850
 0.8000	49.9870
 0.8010	49.9910
 0.8020	49.9940
 0.8030	49.9970
 0.8040	49.9980
 0.8050	49.9960
 0.8060	49.9960
 0.8070	49.9950
 0.8080	49.9910
 0.8090	49.9890
 0.8100	49.9880
 0.8110	49.9850
 0.8120	49.9820
 0.8130	49.9820
 0.8140	49.9780
 0.8150	49.9700
 0.8160	49.9600
 0.8170	49.9580
 0.8180	49.9580
 0.8190	49.9560
 0.8200	49.9500
 0.8210	49.9460
 0.8220	49.9410
 0.8230	49.9350
 0.8240	49.9280
 0.8250	49.9250
 0.8260	49.9230
 0.8270	49.9200
 0.8280	49.9120
 0.8290	49.9060
 0.8300	49.9000
 0.8310	49.8910
 0.8320	49.8890
 0.8330	49.8880
 0.8340	49.8870
 0.8350	49.8840
 0.8360	49.8850
 0.8370	49.8860
 0.8380	49.8850
 0.8390	49.8860
 0.8400	49.8870
 0.8410	49.8880
 0.8420	49.8910
 0.8430	49.8930
 0.8440	49.8960
 0.8450	49.9000
 0.8460	49.9060
 0.8470	49.9140
 0.8480	49.9190
 0.8490	49.9240
 0.8500	49.9330
 0.8510	49.9350
 0.8520	49.9420
 0.8530	49.9510
 0.8540	49.9570
 0.8550	49.9690
 0.8560	49.9780
 0.8570	49.9840
 0.8580	49.9920
 0.8590	50.0030
 0.8600	50.0130
 0.8610	50.0220
 0.8620	50.0300
 0.8630	50.0440
 0.8640	50.0560
 0.8650	50.0620
 0.8660	50.0720
 0.8670	50.0870
 0.8680	50.1030
 0.8690	50.1150
 0.8700	50.1290
 0.8710	50.1390
 0.8720	50.1480
 0.8730	50.1630
 0.8740	50.1760
 0.8750	50.1880
 0.8760	50.2020
 0.8770	50.2200
 0.8780	50.2350
 0.8790	50.2470
 0.8800	50.2560
 0.8810	50.2680
 0.8820	50.2820
 0.8830	50.2960
 0.8840	50.3090
 0.8850	50.3250
 0.8860	50.3380
 0.8870	50.3470
 0.8880	50.3540
 0.8890	50.3640
 0.8900	50.3790
 0.8910	50.3930
 0.8920	50.3980
 0.8930	50.4140
 0.8940	50.4280
 0.8950	50.4370
 0.8960	50.4470
 0.8970	50.4570
 0.8980	50.4690
 0.8990	50.4800
 0.9000	50.4840
 0.9010	50.4950
 0.9020	50.5090
 0.9030	50.5210
 0.9040	50.5290
 0.9050	50.5360
 0.9060	50.5450
 0.9070	50.5550
 0.9080	50.5660
 0.9090	50.5760
 0.9100	50.5820
 0.9110	50.5840
 0.9120	50.5900
 0.9130	50.6000
 0.9140	50.6100
 0.9150	50.6160
 0.9160	50.6170
 0.9170	50.6200
 0.9180	50.6260
 0.9190	50.6300
 0.9200	50.6340
 0.9210	50.6360
 0.9220	50.6360
 0.9230	50.6350
 0.9240	50.6270
 0.9250	50.6270
 0.9260	50.6310
 0.9270	50.6190
 0.9280	50.6090
 0.9290	50.5980
 0.9300	50.5860
 0.9310	50.5750
 0.9320	50.5610
 0.9330	50.5500
 0.9340	50.5400
 0.9350	50.5240
 0.9360	50.5060
 0.9370	50.4820
 0.9380	50.4570
 0.9390	50.4470
 0.9400	50.4240
 0.9410	50.3940
 0.9420	50.3670
 0.9430	50.3400
 0.9440	50.3180
 0.9450	50.2910
 0.9460	50.2520
 0.9470	50.2080
 0.9480	50.1650
 0.9490	50.1220
 0.9500	50.0760
 0.9510	50.0260
 0.9520	49.9720
 0.9530	49.9140
 0.9540	49.8570
 0.9550	49.7980
 0.9560	49.7470
 0.9570	49.6940
 0.9580	49.6330
 0.9590	49.5880
 0.9600	49.5430
 0.9610	49.4990
 0.9620	49.4610
 0.9630	49.4290
 0.9640	49.4060
 0.9650	49.3820
 0.9660	49.3470
 0.9670	49.3170
 0.9680	49.3000
 0.9690	49.2820
 0.9700	49.2500
 0.9710	49.2300
 0.9720	49.2120
 0.9730	49.2000
 0.9740	49.2000
 0.9750	49.1810
 0.9760	49.1700
 0.9770	49.1650
 0.9780	49.1580
 0.9790	49.1540
 0.9800	49.1590
 0.9810	49.1670
 0.9820	49.1720
 0.9830	49.1740
 0.9840	49.1730
 0.9850	49.1740
 0.9860	49.1810
 0.9870	49.1920
 0.9880	49.2030
 0.9890	49.2110
 0.9900	49.2180
 0.9910	49.2220
 0.9920	49.2400
 0.9930	49.2690
 0.9940	49.2940
 0.9950	49.3000
 0.9960	49.3180
 0.9970	49.3410
 0.9980	49.3490
 0.9990	49.3750
 1.0000	49.3900
 1.0010	50.6800
 1.0020	50.7030
 1.0030	50.7210
 1.0040	50.7390
 1.0050	50.7590
 1.0060	50.7800
 1.0070	50.8060
 1.0080	50.8280
 1.0090	50.8460
 1.0100	50.8700
 1.0110	50.8980
 1.0120	50.9210
 1.0130	50.9450
 1.0140	50.9680
 1.0150	50.9860
 1.0160	51.0060
 1.0170	51.0330
 1.0180	51.0550
 1.0190	51.0780
 1.0200	51.1040
 1.0210	51.1240
 1.0220	51.1430
 1.0230	51.1630
 1.0240	51.1810
 1.0250	51.2030
 1.0260	51.2290
 1.0270	51.2530
 1.0280	51.2760
 1.0290	51.3000
 1.0300	51.3240
 1.0310	51.3450
 1.0320	51.3660
 1.0330	51.3860
 1.0340	51.4070
 1.0350	51.4310
 1.0360	51.4560
 1.0370	51.4800
 1.0380	51.5030
 1.0390	51.5240
 1.0400	51.5440
 1.0410	51.5630
 1.0420	51.5830
 1.0430	51.6030
 1.0440	51.6220
 1.0450	51.6420
 1.0460	51.6610
 1.0470	51.6780
 1.0480	51.6940
 1.0490	51.7130
 1.0500	51.7290
 1.0510	51.7440
 1.0520	51.7560
 1.0530	51.7680
 1.0540	51.7790
 1.0550	51.7890
 1.0560	51.7980
 1.0570	51.8060
 1.0580	51.8130
 1.0590	51.8200
 1.0600	51.8280
 1.0610	51.8340
 1.0620	51.8390
 1.0630	51.8450
 1.0640	51.8550
 1.0650	51.8600
 1.0660	51.8620
 1.0670	51.8650
 1.0680	51.8670
 1.0690	51.8670
 1.0700	51.8650
 1.0710	51.8620
 1.0720	51.8610
 1.0730	51.8560
 1.0740	51.8550
 1.0750	51.8620
 1.0760	51.8620
 1.0770	51.8580
 1.0780	51.8560
 1.0790	51.8520
 1.0800	51.8480
 1.0810	51.8460
 1.0820	51.8430
 1.0830	51.8400
 1.0840	51.8370
 1.0850	51.8350
 1.0860	51.8320
 1.0870	51.8290
 1.0880	51.8260
 1.0890	51.8210
 1.0900	51.8150
 1.0910	51.8090
 1.0920	51.8040
 1.0930	51.7960
 1.0940	51.7870
 1.0950	51.7800
 1.0960	51.7710
 1.0970	51.7630
 1.0980	51.7550
 1.0990	51.7480
 1.1000	51.7400
 1.1010	51.7340
 1.1020	51.7300
 1.1030	51.7280
 1.1040	51.7220
 1.1050	51.7160
 1.1060	51.7110
 1.1070	51.7070
 1.1080	51.7010
 1.1090	51.6950
 1.1100	51.6870
 1.1110	51.6760
 1.1120	51.6670
 1.1130	51.6590
 1.1140	51.6490
 1.1150	51.6400
 1.1160	51.6270
 1.1170	51.6110
 1.1180	51.5930
 1.1190	51.5740
 1.1200	51.5520
 1.1210	51.5290
 1.1220	51.5020
 1.1230	51.4710
 1.1240	51.4370
 1.1250	51.3980
 1.1260	51.3560
 1.1270	51.3070
 1.1280	51.2540
 1.1290	51.1970
 1.1300	51.1360
 1.1310	51.0660
 1.1320	50.9920
 1.1330	50.9100
 1.1340	50.8180
 1.1350	50.7220
 1.1360	50.6210
 1.1370	50.5120
 1.1380	50.3960
 1.1390	50.2750
 1.1400	50.1490
 1.1410	50.0210
 1.1420	49.8890
 1.1430	49.7550
 1.1440	49.6190
 1.1450	49.4790
 1.1460	49.3430
 1.1470	49.2050
 1.1480	49.0720
 1.1490	48.9380
 1.1500	48.8130
 1.1510	48.6910
 1.1520	48.5760
 1.1530	48.4670
 1.1540	48.3640
 1.1550	48.2660
 1.1560	48.1750
 1.1570	48.0920
 1.1580	48.0180
 1.1590	47.9510
 1.1600	47.8900
 1.1610	47.8350
 1.1620	47.7850
 1.1630	47.7400
 1.1640	47.6970
 1.1650	47.6590
 1.1660	47.6240
 1.1670	47.5940
 1.1680	47.5690
 1.1690	47.5440
 1.1700	47.5220
 1.1710	47.5000
 1.1720	47.4790
 1.1730	47.4570
 1.1740	47.4360
 1.1750	47.4180
 1.1760	47.3990
 1.1770	47.3780
 1.1780	47.3590
 1.1790	47.3400
 1.1800	47.3190
 1.1810	47.2980
 1.1820	47.2770
 1.1830	47.2550
 1.1840	47.2350
 1.1850	47.2150
 1.1860	47.1940
 1.1870	47.1740
 1.1880	47.1570
 1.1890	47.1410
 1.1900	47.1270
 1.1910	47.1160
 1.1920	47.1060
 1.1930	47.0960
 1.1940	47.0880
 1.1950	47.0820
 1.1960	47.0790
 1.1970	47.0780
 1.1980	47.0790
 1.1990	47.0830
 1.2000	47.0880
 1.2010	47.0920
 1.2020	47.0990
 1.2030	47.1070
 1.2040	47.1160
 1.2050	47.1290
 1.2060	47.1450
 1.2070	47.1630
 1.2080	47.1800
 1.2090	47.1980
 1.2100	47.2180
 1.2110	47.2410
 1.2120	47.2660
 1.2130	47.2920
 1.2140	47.3220
 1.2150	47.3500
 1.2160	47.3770
 1.2170	47.4060
 1.2180	47.4350
 1.2190	47.4660
 1.2200	47.4970
 1.2210	47.5270
 1.2220	47.5580
 1.2230	47.5900
 1.2240	47.6230
 1.2250	47.6540
 1.2260	47.6860
 1.2270	47.7170
 1.2280	47.7490
 1.2290	47.7800
 1.2300	47.8090
 1.2310	47.8390
 1.2320	47.8660
 1.2330	47.8930
 1.2340	47.9200
 1.2350	47.9490
 1.2360	47.9760
 1.2370	48.0020
 1.2380	48.0290
 1.2390	48.0540
 1.2400	48.0770
 1.2410	48.1010
 1.2420	48.1230
 1.2430	48.1420
 1.2440	48.1610
 1.2450	48.1810
 1.2460	48.2010
 1.2470	48.2210
 1.2480	48.2380
 1.2490	48.2550
 1.2500	48.2700
 1.2510	48.2860
 1.2520	48.3050
 1.2530	48.3200
 1.2540	48.3340
 1.2550	48.3470
 1.2560	48.3570
 1.2570	48.3690
 1.2580	48.3800
 1.2590	48.3890
 1.2600	48.4000
 1.2610	48.4080
 1.2620	48.4130
 1.2630	48.4160
 1.2640	48.4190
 1.2650	48.4200
 1.2660	48.4210
 1.2670	48.4250
 1.2680	48.4280
 1.2690	48.4300
 1.2700	48.4300
 1.2710	48.4300
 1.2720	48.4270
 1.2730	48.4230
 1.2740	48.4220
 1.2750	48.4170
 1.2760	48.4130
 1.2770	48.4090
 1.2780	48.4030
 1.2790	48.3960
 1.2800	48.3860
 1.2810	48.3750
 1.2820	48.3620
 1.2830	48.3470
 1.2840	48.3310
 1.2850	48.3100
 1.2860	48.2870
 1.2870	48.2620
 1.2880	48.2320
 1.2890	48.2010
 1.2900	48.1680
 1.2910	48.1320
 1.2920	48.0930
 1.2930	48.0510
 1.2940	48.0060
 1.2950	47.9580
 1.2960	47.9040
 1.2970	47.8500
 1.2980	47.7930
 1.2990	47.7310
 1.3000	47.6690
 1.3010	47.6020
 1.3020	47.5320
 1.3030	47.4600
 1.3040	47.3860
 1.3050	47.3090
 1.3060	47.2290
 1.3070	47.1480
 1.3080	47.0650
 1.3090	46.9800
 1.3100	46.8920
 1.3110	46.8040
 1.3120	46.7120
 1.3130	46.6160
 1.3140	46.5170
 1.3150	46.4170
 1.3160	46.3140
 1.3170	46.2070
 1.3180	46.1020
 1.3190	45.9930
 1.3200	45.8810
 1.3210	45.7670
 1.3220	45.6470
 1.3230	45.5260
 1.3240	45.4040
 1.3250	45.2810
 1.3260	45.1570
 1.3270	45.0280
 1.3280	44.8980
 1.3290	44.7650
 1.3300	44.6290
 1.3310	44.4950
 1.3320	44.3560
 1.3330	44.2150
 1.3340	44.0740
 1.3350	43.9310
 1.3360	43.7870
 1.3370	43.6430
 1.3380	43.4990
 1.3390	43.3540
 1.3400	43.2110
 1.3410	43.0690
 1.3420	42.9270
 1.3430	42.7870
 1.3440	42.6480
 1.3450	42.5110
 1.3460	42.3740
 1.3470	42.2400
 1.3480	42.1050
 1.3490	41.9730
 1.3500	41.8440
 1.3510	41.7170
 1.3520	41.5900
 1.3530	41.4640
 1.3540	41.3370
 1.3550	41.2100
 1.3560	41.0840
 1.3570	40.9570
 1.3580	40.8290
 1.3590	40.6970
 1.3600	40.5600
 1.3610	40.4210
 1.3620	40.2780
 1.3630	40.1310
 1.3640	39.9800
 1.3650	39.8200
 1.3660	39.6540
 1.3670	39.4780
 1.3680	39.2920
 1.3690	39.0960
 1.3700	38.8840
 1.3710	38.6620
 1.3720	38.4270
 1.3730	38.1720
 1.3740	37.9040
 1.3750	37.6160
 1.3760	37.3060
 1.3770	36.9740
 1.3780	36.6150
 1.3790	36.2330
 1.3800	35.8270
 1.3810	35.3930
 1.3820	34.9390
 1.3830	34.4640
 1.3840	33.9660
 1.3850	33.4470
 1.3860	32.9110
 1.3870	32.3500
 1.3880	31.7850
 1.3890	31.2050
 1.3900	30.6140
 1.3910	30.0220
 1.3920	29.4250
 1.3930	28.8230
 1.3940	28.2250
 1.3950	27.6240
 1.3960	27.0320
 1.3970	26.4490
 1.3980	25.8770
 1.3990	25.3270
 1.4000	24.7910
 1.4010	24.2690
 1.4020	23.7710
 1.4030	23.2870
 1.4040	22.8250
 1.4050	22.3870
 1.4060	21.9680
 1.4070	21.5760
 1.4080	21.2060
 1.4090	20.8550
 1.4100	20.5280
 1.4110	20.2190
 1.4120	19.9290
 1.4130	19.6600
 1.4140	19.4090
 1.4150	19.1780
 1.4160	18.9630
 1.4170	18.7620
 1.4180	18.5780
 1.4190	18.4060
 1.4200	18.2460
 1.4210	18.1000
 1.4220	17.9640
 1.4230	17.8390
 1.4240	17.7260
 1.4250	17.6200
 1.4260	17.5240
 1.4270	17.4340
 1.4280	17.3540
 1.4290	17.2790
 1.4300	17.2110
 1.4310	17.1500
 1.4320	17.0970
 1.4330	17.0470
 1.4340	17.0030
 1.4350	16.9640
 1.4360	16.9290
 1.4370	16.8980
 1.4380	16.8730
 1.4390	16.8520
 1.4400	16.8330
 1.4410	16.8180
 1.4420	16.8040
 1.4430	16.7950
 1.4440	16.7880
 1.4450	16.7830
 1.4460	16.7810
 1.4470	16.7810
 1.4480	16.7830
 1.4490	16.7870
 1.4500	16.7930
 1.4510	16.8000
 1.4520	16.8080
 1.4530	16.8170
 1.4540	16.8270
 1.4550	16.8390
 1.4560	16.8540
 1.4570	16.8720
 1.4580	16.8930
 1.4590	16.9160
 1.4600	16.9430
 1.4610	16.9720
 1.4620	17.0050
 1.4630	17.0420
 1.4640	17.0810
 1.4650	17.1250
 1.4660	17.1730
 1.4670	17.2270
 1.4680	17.2850
 1.4690	17.3450
 1.4700	17.4100
 1.4710	17.4790
 1.4720	17.5510
 1.4730	17.6270
 1.4740	17.7070
 1.4750	17.7900
 1.4760	17.8760
 1.4770	17.9640
 1.4780	18.0540
 1.4790	18.1460
 1.4800	18.2390
 1.4810	18.3350
 1.4820	18.4350
 1.4830	18.5350
 1.4840	18.6380
 1.4850	18.7410
 1.4860	18.8450
 1.4870	18.9520
 1.4880	19.0580
 1.4890	19.1650
 1.4900	19.2730
 1.4910	19.3810
 1.4920	19.4910
 1.4930	19.6030
 1.4940	19.7140
 1.4950	19.8270
 1.4960	19.9390
 1.4970	20.0510
 1.4980	20.1650
 1.4990	20.2790
 1.5000	20.3940
 1.5010	20.5110
 1.5020	20.6260
 1.5030	20.7410
 1.5040	20.8570
 1.5050	20.9730
 1.5060	21.0890
 1.5070	21.2060
 1.5080	21.3230
 1.5090	21.4390
 1.5100	21.5560
 1.5110	21.6720
 1.5120	21.7900
 1.5130	21.9060
 1.5140	22.0210
 1.5150	22.1360
 1.5160	22.2480
 1.5170	22.3620
 1.5180	22.4760
 1.5190	22.5890
 1.5200	22.7010
 1.5210	22.8120
 1.5220	22.9220
 1.5230	23.0320
 1.5240	23.1420
 1.5250	23.2520
 1.5260	23.3610
 1.5270	23.4670
 1.5280	23.5740
 1.5290	23.6770
 1.5300	23.7810
 1.5310	23.8860
 1.5320	23.9910
 1.5330	24.0960
 1.5340	24.1990
 1.5350	24.3010
 1.5360	24.4020
 1.5370	24.5010
 1.5380	24.6010
 1.5390	24.6990
 1.5400	24.7960
 1.5410	24.8940
 1.5420	24.9900
 1.5430	25.0850
 1.5440	25.1820
 1.5450	25.2770
 1.5460	25.3710
 1.5470	25.4660
 1.5480	25.5580
 1.5490	25.6500
 1.5500	25.7420
 1.5510	25.8320
 1.5520	25.9230
 1.5530	26.0120
 1.5540	26.0990
 1.5550	26.1870
 1.5560	26.2720
 1.5570	26.3580
 1.5580	26.4430
 1.5590	26.5270
 1.5600	26.6110
 1.5610	26.6940
 1.5620	26.7760
 1.5630	26.8570
 1.5640	26.9360
 1.5650	27.0150
 1.5660	27.0920
 1.5670	27.1690
 1.5680	27.2460
 1.5690	27.3220
 1.5700	27.3990
 1.5710	27.4760
 1.5720	27.5520
 1.5730	27.6280
 1.5740	27.7030
 1.5750	27.7770
 1.5760	27.8510
 1.5770	27.9250
 1.5780	27.9980
 1.5790	28.0700
 1.5800	28.1420
 1.5810	28.2150
 1.5820	28.2870
 1.5830	28.3600
 1.5840	28.4330
 1.5850	28.5050
 1.5860	28.5770
 1.5870	28.6500
 1.5880	28.7220
 1.5890	28.7940
 1.5900	28.8660
 1.5910	28.9370
 1.5920	29.0090
 1.5930	29.0800
 1.5940	29.1500
 1.5950	29.2200
 1.5960	29.2900
 1.5970	29.3610
 1.5980	29.4330
 1.5990	29.5030
 1.6000	29.5720
 1.6010	29.6400
 1.6020	29.7070
 1.6030	29.7740
 1.6040	29.8420
 1.6050	29.9100
 1.6060	29.9770
 1.6070	30.0430
 1.6080	30.1080
 1.6090	30.1720
 1.6100	30.2350
 1.6110	30.2980
 1.6120	30.3590
 1.6130	30.4200
 1.6140	30.4800
 1.6150	30.5380
 1.6160	30.5970
 1.6170	30.6550
 1.6180	30.7100
 1.6190	30.7660
 1.6200	30.8210
 1.6210	30.8750
 1.6220	30.9290
 1.6230	30.9830
 1.6240	31.0360
 1.6250	31.0860
 1.6260	31.1350
 1.6270	31.1830
 1.6280	31.2300
 1.6290	31.2760
 1.6300	31.3190
 1.6310	31.3630
 1.6320	31.4070
 1.6330	31.4500
 1.6340	31.4920
 1.6350	31.5330
 1.6360	31.5730
 1.6370	31.6110
 1.6380	31.6470
 1.6390	31.6800
 1.6400	31.7120
 1.6410	31.7400
 1.6420	31.7660
 1.6430	31.7900
 1.6440	31.8120
 1.6450	31.8330
 1.6460	31.8530
 1.6470	31.8710
 1.6480	31.8830
 1.6490	31.8920
 1.6500	31.8990
 1.6510	31.9020
 1.6520	31.9030
 1.6530	31.9020
 1.6540	31.8980
 1.6550	31.8930
 1.6560	31.8870
 1.6570	31.8800
 1.6580	31.8710
 1.6590	31.8630
 1.6600	31.8530
 1.6610	31.8440
 1.6620	31.8360
 1.6630	31.8260
 1.6640	31.8170
 1.6650	31.8100
 1.6660	31.8020
 1.6670	31.7960
 1.6680	31.7900
 1.6690	31.7840
 1.6700	31.7790
 1.6710	31.7740
 1.6720	31.7700
 1.6730	31.7640
 1.6740	31.7570
 1.6750	31.7500
 1.6760	31.7380
 1.6770	31.7250
 1.6780	31.7110
 1.6790	31.6950
 1.6800	31.6770
 1.6810	31.6560
 1.6820	31.6320
 1.6830	31.6040
 1.6840	31.5750
 1.6850	31.5430
 1.6860	31.5090
 1.6870	31.4730
 1.6880	31.4360
 1.6890	31.3960
 1.6900	31.3560
 1.6910	31.3150
 1.6920	31.2740
 1.6930	31.2350
 1.6940	31.1950
 1.6950	31.1550
 1.6960	31.1150
 1.6970	31.0770
 1.6980	31.0360
 1.6990	30.9940
 1.7000	30.9530
 1.7010	30.9100
 1.7020	30.8680
 1.7030	30.8260
 1.7040	30.7830
 1.7050	30.7390
 1.7060	30.6940
 1.7070	30.6470
 1.7080	30.6000
 1.7090	30.5500
 1.7100	30.5020
 1.7110	30.4530
 1.7120	30.4080
 1.7130	30.3620
 1.7140	30.3170
 1.7150	30.2740
 1.7160	30.2270
 1.7170	30.1800
 1.7180	30.1320
 1.7190	30.0830
 1.7200	30.0380
 1.7210	29.9930
 1.7220	29.9520
 1.7230	29.9120
 1.7240	29.8710
 1.7250	29.8320
 1.7260	29.7940
 1.7270	29.7560
 1.7280	29.7200
 1.7290	29.6820
 1.7300	29.6450
 1.7310	29.6080
 1.7320	29.5720
 1.7330	29.5350
 1.7340	29.5000
 1.7350	29.4610
 1.7360	29.4220
 1.7370	29.3800
 1.7380	29.3350
 1.7390	29.2900
 1.7400	29.2450
 1.7410	29.1970
 1.7420	29.1470
 1.7430	29.0960
 1.7440	29.0420
 1.7450	28.9890
 1.7460	28.9350
 1.7470	28.8810
 1.7480	28.8250
 1.7490	28.7700
 1.7500	28.7130
 1.7510	28.6570
 1.7520	28.5990
 1.7530	28.5420
 1.7540	28.4820
 1.7550	28.4290
 1.7560	28.3770
 1.7570	28.3270
 1.7580	28.2770
 1.7590	28.2240
 1.7600	28.1720
 1.7610	28.1190
 1.7620	28.0700
 1.7630	28.0260
 1.7640	27.9810
 1.7650	27.9380
 1.7660	27.8960
 1.7670	27.8540
 1.7680	27.8140
 1.7690	27.7770
 1.7700	27.7410
 1.7710	27.7080
 1.7720	27.6740
 1.7730	27.6390
 1.7740	27.6070
 1.7750	27.5730
 1.7760	27.5450
 1.7770	27.5220
 1.7780	27.4970
 1.7790	27.4740
 1.7800	27.4520
 1.7810	27.4280
 1.7820	27.4090
 1.7830	27.3940
 1.7840	27.3800
 1.7850	27.3700
 1.7860	27.3600
 1.7870	27.3520
 1.7880	27.3460
 1.7890	27.3410
 1.7900	27.3370
 1.7910	27.3360
 1.7920	27.3390
 1.7930	27.3420
 1.7940	27.3460
 1.7950	27.3500
 1.7960	27.3550
 1.7970	27.3610
 1.7980	27.3690
 1.7990	27.3790
 1.8000	27.3930
 1.8010	27.4050
 1.8020	27.4190
 1.8030	27.4310
 1.8040	27.4420
 1.8050	27.4550
 1.8060	27.4680
 1.8070	27.4800
 1.8080	27.4920
 1.8090	27.5040
 1.8100	27.5170
 1.8110	27.5310
 1.8120	27.5430
 1.8130	27.5520
 1.8140	27.5610
 1.8150	27.5690
 1.8160	27.5780
 1.8170	27.5880
 1.8180	27.5960
 1.8190	27.5980
 1.8200	27.6040
 1.8210	27.6090
 1.8220	27.6150
 1.8230	27.6260
 1.8240	27.6310
 1.8250	27.6310
 1.8260	27.6330
 1.8270	27.6340
 1.8280	27.6320
 1.8290	27.6310
 1.8300	27.6230
 1.8310	26.9480
 1.8320	26.9320
 1.8330	26.9110
 1.8340	26.8870
 1.8350	26.8650
 1.8360	26.8390
 1.8370	26.8070
 1.8380	26.7750
 1.8390	26.7350
 1.8400	26.6910
 1.8410	26.6410
 1.8420	26.5860
 1.8430	26.5240
 1.8440	26.4550
 1.8450	26.3790
 1.8460	26.2950
 1.8470	26.2030
 1.8480	26.1030
 1.8490	25.9920
 1.8500	25.8720
 1.8510	25.7440
 1.8520	25.6040
 1.8530	25.4500
 1.8540	25.2900
 1.8550	25.1170
 1.8560	24.9330
 1.8570	24.7370
 1.8580	24.5260
 1.8590	24.3030
 1.8600	24.0680
 1.8610	23.8200
 1.8620	23.5580
 1.8630	23.2870
 1.8640	22.9980
 1.8650	22.6920
 1.8660	22.3720
 1.8670	22.0290
 1.8680	21.6690
 1.8690	21.2930
 1.8700	20.9040
 1.8710	20.4980
 1.8720	20.0880
 1.8730	19.6660
 1.8740	19.2350
 1.8750	18.8010
 1.8760	18.3570
 1.8770	17.9160
 1.8780	17.4780
 1.8790	17.0370
 1.8800	16.6050
 1.8810	16.1780
 1.8820	15.7560
 1.8830	15.3420
 1.8840	14.9400
 1.8850	14.5440
 1.8860	14.1610
 1.8870	13.7900
 1.8880	13.4340
 1.8890	13.1010
 1.8900	12.7870
 1.8910	12.4900
 1.8920	12.2110
 1.8930	11.9530
 1.8940	11.7130
 1.8950	11.4900
 1.8960	11.2880
 1.8970	11.1040
 1.8980	10.9360
 1.8990	10.7830
 1.9000	10.6460
 1.9010	10.5260
 1.9020	10.4160
 1.9030	10.3230
 1.9040	10.2390
 1.9050	10.1660
 1.9060	10.1020
 1.9070	10.0450
 1.9080	 9.9950
 1.9090	 9.9490
 1.9100	 9.9090
 1.9110	 9.8750
 1.9120	 9.8500
 1.9130	 9.8250
 1.9140	 9.8050
 1.9150	 9.7870
 1.9160	 9.7680
 1.9170	 9.7520
 1.9180	 9.7380
 1.9190	 9.7250
 1.9200	 9.7160
 1.9210	 9.7120
 1.9220	 9.7060
 1.9230	 9.7030
 1.9240	 9.7000
 1.9250	 9.6980
 1.9260	 9.6930
 1.9270	 9.6920
 1.9280	 9.6930
 1.9290	 9.6950
 1.9300	 9.7020
 1.9310	 9.7080
 1.9320	 9.7100
 1.9330	 9.7150
 1.9340	 9.7200
 1.9350	 9.7260
 1.9360	 9.7340
 1.9370	 9.7410
 1.9380	 9.7460
 1.9390	 9.7540
 1.9400	 9.7630
 1.9410	 9.7750
 1.9420	 9.7870
 1.9430	 9.7990
 1.9440	 9.8120
 1.9450	 9.8220
 1.9460	 9.8350
 1.9470	 9.8490
 1.9480	 9.8650
 1.9490	 9.8820
 1.9500	 9.9020
 1.9510	 9.9200
 1.9520	 9.9400
 1.9530	 9.9570
 1.9540	 9.9730
 1.9550	 9.9920
 1.9560	10.0110
 1.9570	10.0310
 1.9580	10.0540
 1.9590	10.0760
 1.9600	10.0960
 1.9610	10.1190
 1.9620	10.1440
 1.9630	10.1690
 1.9640	10.1930
 1.9650	10.2140
 1.9660	10.2370
 1.9670	10.2570
 1.9680	10.2820
 1.9690	10.3110
 1.9700	10.3390
 1.9710	10.3660
 1.9720	10.3960
 1.9730	10.4280
 1.9740	10.4580
 1.9750	10.4880
 1.9760	10.5180
 1.9770	10.5470
 1.9780	10.5780
 1.9790	10.6110
 1.9800	10.6480
 1.9810	10.6830
 1.9820	10.7210
 1.9830	10.7560
 1.9840	10.7890
 1.9850	10.8260
 1.9860	10.8660
 1.9870	10.9040
 1.9880	10.9420
 1.9890	10.9830
 1.9900	11.0240
 1.9910	11.0630
 1.9920	11.1050
 1.9930	11.1510
 1.9940	11.1940
 1.9950	11.2380
 1.9960	11.2810
 1.9970	11.3240
 1.9980	11.3660
 1.9990	11.4070
 2.0000	11.4470
 2.0010	11.4910
 2.0020	11.5340
 2.0030	11.5760
 2.0040	11.6240
 2.0050	11.6670
 2.0060	11.7060
 2.0070	11.7500
 2.0080	11.7960
 2.0090	11.8400
 2.0100	11.8850
 2.0110	11.9290
 2.0120	11.9720
 2.0130	12.0140
 2.0140	12.0560
 2.0150	12.1010
 2.0160	12.1460
 2.0170	12.1900
 2.0180	12.2330
 2.0190	12.2750
 2.0200	12.3150
 2.0210	12.3540
 2.0220	12.3940
 2.0230	12.4330
 2.0240	12.4720
 2.0250	12.5100
 2.0260	12.5490
 2.0270	12.5880
 2.0280	12.6280
 2.0290	12.6670
 2.0300	12.7040
 2.0310	12.7410
 2.0320	12.7750
 2.0330	12.8110
 2.0340	12.8470
 2.0350	12.8800
 2.0360	12.9110
 2.0370	12.9420
 2.0380	12.9710
 2.0390	13.0010
 2.0400	13.0320
 2.0410	13.0630
 2.0420	13.0940
 2.0430	13.1240
 2.0440	13.1530
 2.0450	13.1840
 2.0460	13.2100
 2.0470	13.2350
 2.0480	13.2600
 2.0490	13.2800
 2.0500	13.3040
 2.0510	13.3310
 2.0520	13.3560
 2.0530	13.3810
 2.0540	13.4060
 2.0550	13.4290
 2.0560	13.4550
 2.0570	13.4840
 2.0580	13.5110
 2.0590	13.5400
 2.0600	13.5700
 2.0610	13.6000
 2.0620	13.6310
 2.0630	13.6600
 2.0640	13.6910
 2.0650	13.7200
 2.0660	13.7490
 2.0670	13.7770
 2.0680	13.8050
 2.0690	13.8320
 2.0700	13.8590
 2.0710	13.8850
 2.0720	13.9090
 2.0730	13.9320
 2.0740	13.9590
 2.0750	13.9890
 2.0760	14.0190
 2.0770	14.0540
 2.0780	14.0840
 2.0790	14.1120
 2.0800	14.1400
 2.0810	14.1680
 2.0820	14.1950
 2.0830	14.2220
 2.0840	14.2490
 2.0850	14.2760
 2.0860	14.3020
 2.0870	14.3270
 2.0880	14.3520
 2.0890	14.3790
 2.0900	14.4070
 2.0910	14.4350
 2.0920	14.4660
 2.0930	14.4920
 2.0940	14.5150
 2.0950	14.5410
 2.0960	14.5680
 2.0970	14.5950
 2.0980	14.6240
 2.0990	14.6530
 2.1000	14.6840
 2.1010	14.7130
 2.1020	14.7420
 2.1030	14.7690
 2.1040	14.7900
 2.1050	14.8140
 2.1060	14.8380
 2.1070	14.8590
 2.1080	14.8840
 2.1090	14.9120
 2.1100	14.9390
 2.1110	14.9680
 2.1120	14.9930
 2.1130	15.0150
 2.1140	15.0410
 2.1150	15.0660
 2.1160	15.0910
 2.1170	15.1220
 2.1180	15.1470
 2.1190	15.1680
 2.1200	15.1910
 2.1210	15.2150
 2.1220	15.2380
 2.1230	15.2610
 2.1240	15.2850
 2.1250	15.3080
 2.1260	15.3290
 2.1270	15.3510
 2.1280	15.3710
 2.1290	15.3930
 2.1300	15.4170
 2.1310	15.4380
 2.1320	15.4620
 2.1330	15.4830
 2.1340	15.5000
 2.1350	15.5210
 2.1360	15.5430
 2.1370	15.5650
 2.1380	15.5900
 2.1390	15.6120
 2.1400	15.6290
 2.1410	15.6500
 2.1420	15.6700
 2.1430	15.6890
 2.1440	15.7110
 2.1450	15.7360
 2.1460	15.7580
 2.1470	15.7790
 2.1480	15.7990
 2.1490	15.8170
 2.1500	15.8380
 2.1510	15.8620
 2.1520	15.8840
 2.1530	15.9080
 2.1540	15.9290
 2.1550	15.9470
 2.1560	15.9660
 2.1570	15.9830
 2.1580	16.0020
 2.1590	16.0240
 2.1600	16.0430
 2.1610	16.0610
 2.1620	16.0810
 2.1630	16.0980
 2.1640	16.1130
 2.1650	16.1280
 2.1660	16.1420
 2.1670	16.1570
 2.1680	16.1690
 2.1690	16.1860
 2.1700	16.2040
 2.1710	16.2220
 2.1720	16.2420
 2.1730	16.2610
 2.1740	16.2800
 2.1750	16.3000
 2.1760	16.3190
 2.1770	16.3390
 2.1780	16.3580
 2.1790	16.3790
 2.1800	16.4040
 2.1810	16.4270
 2.1820	16.4520
 2.1830	16.4740
 2.1840	16.4950
 2.1850	16.5130
 2.1860	16.5340
 2.1870	16.5540
 2.1880	16.5770
 2.1890	16.6010
 2.1900	16.6260
 2.1910	16.6550
 2.1920	16.6800
 2.1930	16.7060
 2.1940	16.7290
 2.1950	16.7490
 2.1960	16.7700
 2.1970	16.7920
 2.1980	16.8130
 2.1990	16.8330
 2.2000	16.8550
 2.2010	16.8770
 2.2020	16.8990
 2.2030	16.9200
 2.2040	16.9430
 2.2050	16.9690
 2.2060	16.9910
 2.2070	17.0130
 2.2080	17.0370
 2.2090	17.0540
 2.2100	17.0650
 2.2110	17.0800
 2.2120	17.0930
 2.2130	17.1080
 2.2140	17.1270
 2.2150	17.1420
 2.2160	17.1560
 2.2170	17.1650
 2.2180	17.1690
 2.2190	17.1720
 2.2200	17.1690
 2.2210	17.1690
 2.2220	17.1720
 2.2230	17.1710
 2.2240	17.1720
 2.2250	17.1680
 2.2260	17.1620
 2.2270	17.1530
 2.2280	17.1440
 2.2290	17.1300
 2.2300	17.1090
 2.2310	17.0910
 2.2320	17.0670
 2.2330	17.0410
 2.2340	17.0130
 2.2350	16.9850
 2.2360	16.9520
 2.2370	16.9140
 2.2380	16.8790
 2.2390	16.8440
 2.2400	16.8050
 2.2410	16.7670
 2.2420	16.7240
 2.2430	16.6750
 2.2440	16.6250
 2.2450	16.5680
 2.2460	16.5170
 2.2470	16.4660
 2.2480	16.4150
 2.2490	16.3700
 2.2500	16.3170
 2.2510	16.2580
 2.2520	16.2040
 2.2530	16.1480
 2.2540	16.0950
 2.2550	16.0480
 2.2560	15.9980
 2.2570	15.9440
 2.2580	15.8950
 2.2590	15.8470
 2.2600	15.8000
 2.2610	15.7560
 2.2620	15.7120
 2.2630	15.6700
 2.2640	15.6210
 2.2650	15.5700
 2.2660	15.5250
 2.2670	15.4820
 2.2680	15.4360
 2.2690	15.4000
 2.2700	15.3710
 2.2710	15.3370
 2.2720	15.3070
 2.2730	15.2730
 2.2740	15.2330
 2.2750	15.1980
 2.2760	15.1630
 2.2770	15.1320
 2.2780	15.1050
 2.2790	15.0780
 2.2800	15.0540
 2.2810	15.0290
 2.2820	15.0060
 2.2830	14.9820
 2.2840	14.9610
 2.2850	14.9360
 2.2860	14.9080
 2.2870	14.8810
 2.2880	14.8510
 2.2890	14.8240
 2.2900	14.7970
 2.2910	14.7710
 2.2920	14.7480
 2.2930	14.7230
 2.2940	14.7030
 2.2950	14.6760
 2.2960	14.6420
 2.2970	14.6090
 2.2980	14.5720
 2.2990	14.5390
 2.3000	14.5060
 2.3010	14.4740
 2.3020	14.4440
 2.3030	14.4160
 2.3040	14.3830
 2.3050	14.3550
 2.3060	14.3260
 2.3070	14.2980
 2.3080	14.2760
 2.3090	14.2530
 2.3100	14.2260
 2.3110	14.2020
 2.3120	14.1780
 2.3130	14.1520
 2.3140	14.1340
 2.3150	14.1230
 2.3160	14.1070
 2.3170	14.0970
 2.3180	14.0780
 2.3190	14.0530
 2.3200	14.0320
 2.3210	14.0070
 2.3220	13.9880
 2.3230	13.9720
 2.3240	13.9560
 2.3250	13.9480
 2.3260	13.9290
 2.3270	13.9030
 2.3280	13.8820
 2.3290	13.8560
 2.3300	13.8320
 2.3310	13.8100
 2.3320	13.7870
 2.3330	13.7610
 2.3340	13.7360
 2.3350	13.7130
 2.3360	13.6910
 2.3370	13.6700
 2.3380	13.6470
 2.3390	13.6250
 2.3400	13.5990
 2.3410	13.5660
 2.3420	13.5370
 2.3430	13.5090
 2.3440	13.4820
 2.3450	13.4550
 2.3460	13.4330
 2.3470	13.4110
 2.3480	13.3940
 2.3490	13.3880
 2.3500	13.3730
 2.3510	13.3520
 2.3520	13.3360
 2.3530	13.3160
 2.3540	13.2980
 2.3550	13.2910
 2.3560	13.2850
 2.3570	13.2730
 2.3580	13.2530
 2.3590	13.2260
 2.3600	13.2130
 2.3610	13.1940
 2.3620	13.1690
 2.3630	13.1560
 2.3640	13.1330
 2.3650	13.1030
 2.3660	13.0880
 2.3670	13.0740
 2.3680	13.0530
 2.3690	13.0310
 2.3700	13.0130
 2.3710	12.9930
 2.3720	12.9620
 2.3730	12.9390
 2.3740	12.9210
 2.3750	12.8930
 2.3760	12.8720
 2.3770	12.8580
 2.3780	12.8350
 2.3790	12.8060
 2.3800	12.7780
 2.3810	12.7380
 2.3820	12.6990
 2.3830	12.6770
 2.3840	12.6600
 2.3850	12.6470
 2.3860	12.6380
 2.3870	12.6170
 2.3880	12.5910
 2.3890	12.5730
 2.3900	12.5560
 2.3910	12.5250
 2.3920	12.4910
 2.3930	12.4600
 2.3940	12.4250
 2.3950	12.4030
 2.3960	12.3830
 2.3970	12.3550
 2.3980	12.3250
 2.3990	12.3030
 2.4000	12.2940
 2.4010	12.2770
 2.4020	12.2560
 2.4030	12.2350
 2.4040	12.2020
 2.4050	12.1770
 2.4060	12.1550
 2.4070	12.1180
 2.4080	12.0840
 2.4090	12.0570
 2.4100	12.0330
 2.4110	12.0090
 2.4120	11.9930
 2.4130	11.9820
 2.4140	11.9550
 2.4150	11.9360
 2.4160	11.9100
 2.4170	11.8680
 2.4180	11.8360
 2.4190	11.8030
 2.4200	11.7730
 2.4210	11.7530
 2.4220	11.7330
 2.4230	11.7240
 2.4240	11.7120
 2.4250	11.6790
 2.4260	11.6400
 2.4270	11.5970
 2.4280	11.5610
 2.4290	11.5390
 2.4300	11.5290
 2.4310	11.5060
 2.4320	11.4670
 2.4330	11.4410
 2.4340	11.4040
 2.4350	11.3850
 2.4360	11.3810
 2.4370	11.3450
 2.4380	11.3190
 2.4390	11.2870
 2.4400	11.2390
 2.4410	11.2470
 2.4420	11.2460
 2.4430	11.2080
 2.4440	11.2030
 2.4450	11.1640
 2.4460	11.1240
 2.4470	11.1290
 2.4480	11.1070
 2.4490	11.0830
 2.4500	11.0530
 2.4510	11.0190
 2.4520	10.9980
 2.4530	10.9810
 2.4540	10.9750
 2.4550	10.9600
 2.4560	10.9590
 2.4570	10.9440
 2.4580	10.9050
 2.4590	10.8860
 2.4600	10.8480
 2.4610	10.8190
 2.4620	10.8280
 2.4630	10.8050
 2.4640	10.7790
 2.4650	10.7780
 2.4660	10.7520
 2.4670	10.7390
 2.4680	10.7590
 2.4690	10.7840
 2.4700	10.7810
 2.4710	10.7780
 2.4720	10.7460
 2.4730	10.6570
 2.4740	10.6170
 2.4750	10.5870
 2.4760	10.5760
 2.4770	10.6030
 2.4780	10.6020
 2.4790	10.5920
 2.4800	10.5780
 2.4810	10.5530
 2.4820	10.5540
 2.4830	10.5820
 2.4840	10.5980
 2.4850	10.5730
 2.4860	10.5280
 2.4870	10.4840
 2.4880	10.4710
 2.4890	10.4590
 2.4900	10.4710
 2.4910	10.5090
 2.4920	10.5340
 2.4930	10.5450
 2.4940	10.5480
 2.4950	10.5500
 2.4960	10.5400
 2.4970	10.5440
 2.4980	10.5110
 2.4990	10.4670
 2.5000	10.4620
