Name: Adenostoma fasciculatum 1
Type: vegetation
Class: Shrub
Genus: Adenostoma
Species: fasciculatum
Sample No.: VH218
Owner: UCSB
Wavelength Range: VSWIR
Origin: 34.5084; -119.7687; WGS84
Collection Date: 10/13/2013
Description: Samples were collected as part of the HyspIRI Airborne Campaign. 48 individual plants were sampled in three times in 2013 - spring  summer  and fall. The name of the sample includes a 1  2  or 3 which references a different individual of the species. Samples were taken to JPL and processed within 48 hours of collection. The same leaves were processed in the Nicolet and then measured using the ASD.
Measurement: Bidirectional reflectance
First Column: X
Second Column: Y
X Units: Wavelength (micrometers)
Y Units: Reflectance (percentage)
First X Value: 0.35
Last X Value: 2.5
Number of X Values: 2151
Additional Information: vegetation.shrub.adenostoma.fasciculatum.vswir.vh218.ucsb.asd.ancillary.txt

 0.3500	 1.5720
 0.3510	 1.7030
 0.3520	 1.7100
 0.3530	 1.5200
 0.3540	 1.2720
 0.3550	 1.4750
 0.3560	 1.6080
 0.3570	 1.6140
 0.3580	 1.6550
 0.3590	 1.4970
 0.3600	 1.4110
 0.3610	 1.5010
 0.3620	 1.5890
 0.3630	 1.6310
 0.3640	 1.6290
 0.3650	 1.6100
 0.3660	 1.6210
 0.3670	 1.6760
 0.3680	 1.7300
 0.3690	 1.7070
 0.3700	 1.7050
 0.3710	 1.6900
 0.3720	 1.6490
 0.3730	 1.6580
 0.3740	 1.5150
 0.3750	 1.4070
 0.3760	 1.5350
 0.3770	 1.5260
 0.3780	 1.4950
 0.3790	 1.5240
 0.3800	 1.6360
 0.3810	 1.6680
 0.3820	 1.6630
 0.3830	 1.6380
 0.3840	 1.4340
 0.3850	 1.4590
 0.3860	 1.6230
 0.3870	 1.6780
 0.3880	 1.6780
 0.3890	 1.6430
 0.3900	 1.6040
 0.3910	 1.6060
 0.3920	 1.6280
 0.3930	 1.6950
 0.3940	 1.7760
 0.3950	 1.6460
 0.3960	 1.6200
 0.3970	 1.6740
 0.3980	 1.6440
 0.3990	 1.6020
 0.4000	 1.6120
 0.4010	 1.6570
 0.4020	 1.6210
 0.4030	 1.6840
 0.4040	 1.7520
 0.4050	 1.7290
 0.4060	 1.7500
 0.4070	 1.7660
 0.4080	 1.7650
 0.4090	 1.7650
 0.4100	 1.7560
 0.4110	 1.7610
 0.4120	 1.7810
 0.4130	 1.7660
 0.4140	 1.8040
 0.4150	 1.8520
 0.4160	 1.8510
 0.4170	 1.8820
 0.4180	 1.8960
 0.4190	 1.8970
 0.4200	 1.9440
 0.4210	 1.9470
 0.4220	 1.9500
 0.4230	 1.9850
 0.4240	 2.0090
 0.4250	 2.0290
 0.4260	 2.0500
 0.4270	 2.0750
 0.4280	 2.0730
 0.4290	 2.0860
 0.4300	 2.1240
 0.4310	 2.1460
 0.4320	 2.1520
 0.4330	 2.1670
 0.4340	 2.2030
 0.4350	 2.1730
 0.4360	 2.1910
 0.4370	 2.2460
 0.4380	 2.2370
 0.4390	 2.2330
 0.4400	 2.2510
 0.4410	 2.2790
 0.4420	 2.2650
 0.4430	 2.2720
 0.4440	 2.3000
 0.4450	 2.3220
 0.4460	 2.3330
 0.4470	 2.3290
 0.4480	 2.3250
 0.4490	 2.3580
 0.4500	 2.3820
 0.4510	 2.4060
 0.4520	 2.4340
 0.4530	 2.4280
 0.4540	 2.4320
 0.4550	 2.4430
 0.4560	 2.4340
 0.4570	 2.4390
 0.4580	 2.4540
 0.4590	 2.4710
 0.4600	 2.4790
 0.4610	 2.4910
 0.4620	 2.4940
 0.4630	 2.4820
 0.4640	 2.5130
 0.4650	 2.5250
 0.4660	 2.5150
 0.4670	 2.5440
 0.4680	 2.5690
 0.4690	 2.5740
 0.4700	 2.5570
 0.4710	 2.5460
 0.4720	 2.5470
 0.4730	 2.5600
 0.4740	 2.5800
 0.4750	 2.5850
 0.4760	 2.5910
 0.4770	 2.6050
 0.4780	 2.6140
 0.4790	 2.6110
 0.4800	 2.6040
 0.4810	 2.6050
 0.4820	 2.6050
 0.4830	 2.6200
 0.4840	 2.6440
 0.4850	 2.6480
 0.4860	 2.6440
 0.4870	 2.6540
 0.4880	 2.6810
 0.4890	 2.6760
 0.4900	 2.6880
 0.4910	 2.7190
 0.4920	 2.7430
 0.4930	 2.7630
 0.4940	 2.7880
 0.4950	 2.8140
 0.4960	 2.8260
 0.4970	 2.8550
 0.4980	 2.8900
 0.4990	 2.9180
 0.5000	 2.9550
 0.5010	 2.9850
 0.5020	 3.0170
 0.5030	 3.0760
 0.5040	 3.1280
 0.5050	 3.1900
 0.5060	 3.2680
 0.5070	 3.3220
 0.5080	 3.4000
 0.5090	 3.4900
 0.5100	 3.5620
 0.5110	 3.6290
 0.5120	 3.7180
 0.5130	 3.8320
 0.5140	 3.9380
 0.5150	 4.0380
 0.5160	 4.1460
 0.5170	 4.2720
 0.5180	 4.3890
 0.5190	 4.5200
 0.5200	 4.6600
 0.5210	 4.7890
 0.5220	 4.9260
 0.5230	 5.0580
 0.5240	 5.1800
 0.5250	 5.3070
 0.5260	 5.4220
 0.5270	 5.5360
 0.5280	 5.6600
 0.5290	 5.7700
 0.5300	 5.8660
 0.5310	 5.9550
 0.5320	 6.0480
 0.5330	 6.1300
 0.5340	 6.2040
 0.5350	 6.2740
 0.5360	 6.3270
 0.5370	 6.3900
 0.5380	 6.4580
 0.5390	 6.5070
 0.5400	 6.5700
 0.5410	 6.6310
 0.5420	 6.6810
 0.5430	 6.7370
 0.5440	 6.7920
 0.5450	 6.8390
 0.5460	 6.8700
 0.5470	 6.8880
 0.5480	 6.9060
 0.5490	 6.9260
 0.5500	 6.9360
 0.5510	 6.9650
 0.5520	 6.9930
 0.5530	 7.0030
 0.5540	 7.0050
 0.5550	 6.9980
 0.5560	 6.9810
 0.5570	 6.9550
 0.5580	 6.9310
 0.5590	 6.9060
 0.5600	 6.8740
 0.5610	 6.8290
 0.5620	 6.7800
 0.5630	 6.7290
 0.5640	 6.6730
 0.5650	 6.6180
 0.5660	 6.5570
 0.5670	 6.4900
 0.5680	 6.4290
 0.5690	 6.3550
 0.5700	 6.2780
 0.5710	 6.2100
 0.5720	 6.1330
 0.5730	 6.0630
 0.5740	 5.9990
 0.5750	 5.9320
 0.5760	 5.8640
 0.5770	 5.7990
 0.5780	 5.7390
 0.5790	 5.6850
 0.5800	 5.6320
 0.5810	 5.5830
 0.5820	 5.5440
 0.5830	 5.5040
 0.5840	 5.4730
 0.5850	 5.4500
 0.5860	 5.4220
 0.5870	 5.3990
 0.5880	 5.3770
 0.5890	 5.3500
 0.5900	 5.3250
 0.5910	 5.2970
 0.5920	 5.2720
 0.5930	 5.2590
 0.5940	 5.2460
 0.5950	 5.2280
 0.5960	 5.2090
 0.5970	 5.1980
 0.5980	 5.1900
 0.5990	 5.1790
 0.6000	 5.1640
 0.6010	 5.1490
 0.6020	 5.1350
 0.6030	 5.1190
 0.6040	 5.0950
 0.6050	 5.0630
 0.6060	 5.0290
 0.6070	 4.9970
 0.6080	 4.9640
 0.6090	 4.9330
 0.6100	 4.9060
 0.6110	 4.8850
 0.6120	 4.8460
 0.6130	 4.7910
 0.6140	 4.7330
 0.6150	 4.6940
 0.6160	 4.6570
 0.6170	 4.6180
 0.6180	 4.5760
 0.6190	 4.5440
 0.6200	 4.5180
 0.6210	 4.4970
 0.6220	 4.4800
 0.6230	 4.4620
 0.6240	 4.4440
 0.6250	 4.4330
 0.6260	 4.4280
 0.6270	 4.4210
 0.6280	 4.4150
 0.6290	 4.4180
 0.6300	 4.4210
 0.6310	 4.4170
 0.6320	 4.4070
 0.6330	 4.3980
 0.6340	 4.3860
 0.6350	 4.3710
 0.6360	 4.3520
 0.6370	 4.3230
 0.6380	 4.2840
 0.6390	 4.2410
 0.6400	 4.2010
 0.6410	 4.1520
 0.6420	 4.1020
 0.6430	 4.0560
 0.6440	 4.0100
 0.6450	 3.9560
 0.6460	 3.9010
 0.6470	 3.8550
 0.6480	 3.8110
 0.6490	 3.7730
 0.6500	 3.7430
 0.6510	 3.7160
 0.6520	 3.6900
 0.6530	 3.6660
 0.6540	 3.6420
 0.6550	 3.6130
 0.6560	 3.5870
 0.6570	 3.5570
 0.6580	 3.5180
 0.6590	 3.4830
 0.6600	 3.4450
 0.6610	 3.4020
 0.6620	 3.3620
 0.6630	 3.3250
 0.6640	 3.2890
 0.6650	 3.2520
 0.6660	 3.2190
 0.6670	 3.1950
 0.6680	 3.1780
 0.6690	 3.1590
 0.6700	 3.1510
 0.6710	 3.1440
 0.6720	 3.1370
 0.6730	 3.1360
 0.6740	 3.1410
 0.6750	 3.1490
 0.6760	 3.1590
 0.6770	 3.1730
 0.6780	 3.1940
 0.6790	 3.2180
 0.6800	 3.2400
 0.6810	 3.2740
 0.6820	 3.3110
 0.6830	 3.3540
 0.6840	 3.4190
 0.6850	 3.4930
 0.6860	 3.5780
 0.6870	 3.6810
 0.6880	 3.8050
 0.6890	 3.9630
 0.6900	 4.1570
 0.6910	 4.3760
 0.6920	 4.6380
 0.6930	 4.9410
 0.6940	 5.2850
 0.6950	 5.6660
 0.6960	 6.0800
 0.6970	 6.5350
 0.6980	 7.0320
 0.6990	 7.5520
 0.7000	 8.0950
 0.7010	 8.6630
 0.7020	 9.2550
 0.7030	 9.8500
 0.7040	10.4570
 0.7050	11.0820
 0.7060	11.7060
 0.7070	12.3340
 0.7080	12.9670
 0.7090	13.6060
 0.7100	14.2500
 0.7110	14.9010
 0.7120	15.5580
 0.7130	16.2160
 0.7140	16.8800
 0.7150	17.5510
 0.7160	18.2240
 0.7170	18.8970
 0.7180	19.5710
 0.7190	20.2400
 0.7200	20.9000
 0.7210	21.5680
 0.7220	22.2270
 0.7230	22.8710
 0.7240	23.5080
 0.7250	24.1210
 0.7260	24.7270
 0.7270	25.3300
 0.7280	25.8840
 0.7290	26.4300
 0.7300	26.9610
 0.7310	27.4560
 0.7320	27.9400
 0.7330	28.3980
 0.7340	28.8280
 0.7350	29.2430
 0.7360	29.6340
 0.7370	30.0020
 0.7380	30.3500
 0.7390	30.6890
 0.7400	31.0000
 0.7410	31.2840
 0.7420	31.5520
 0.7430	31.8190
 0.7440	32.0610
 0.7450	32.2750
 0.7460	32.4820
 0.7470	32.6610
 0.7480	32.8300
 0.7490	33.0000
 0.7500	33.1580
 0.7510	33.2940
 0.7520	33.4170
 0.7530	33.5360
 0.7540	33.6490
 0.7550	33.7490
 0.7560	33.8390
 0.7570	33.9280
 0.7580	34.0060
 0.7590	34.0860
 0.7600	34.1700
 0.7610	34.2350
 0.7620	34.2920
 0.7630	34.3420
 0.7640	34.3860
 0.7650	34.4440
 0.7660	34.4950
 0.7670	34.5380
 0.7680	34.5860
 0.7690	34.6240
 0.7700	34.6590
 0.7710	34.6990
 0.7720	34.7430
 0.7730	34.7810
 0.7740	34.8110
 0.7750	34.8340
 0.7760	34.8680
 0.7770	34.9030
 0.7780	34.9350
 0.7790	34.9650
 0.7800	34.9850
 0.7810	35.0100
 0.7820	35.0460
 0.7830	35.0850
 0.7840	35.1130
 0.7850	35.1420
 0.7860	35.1760
 0.7870	35.1940
 0.7880	35.2240
 0.7890	35.2610
 0.7900	35.2880
 0.7910	35.3100
 0.7920	35.3290
 0.7930	35.3510
 0.7940	35.3810
 0.7950	35.4000
 0.7960	35.4130
 0.7970	35.4360
 0.7980	35.4830
 0.7990	35.5060
 0.8000	35.5250
 0.8010	35.5590
 0.8020	35.5760
 0.8030	35.5910
 0.8040	35.6090
 0.8050	35.6290
 0.8060	35.6620
 0.8070	35.6850
 0.8080	35.6970
 0.8090	35.7090
 0.8100	35.7280
 0.8110	35.7460
 0.8120	35.7620
 0.8130	35.7860
 0.8140	35.8010
 0.8150	35.8150
 0.8160	35.8370
 0.8170	35.8640
 0.8180	35.8830
 0.8190	35.8950
 0.8200	35.9080
 0.8210	35.9290
 0.8220	35.9460
 0.8230	35.9620
 0.8240	35.9860
 0.8250	35.9990
 0.8260	36.0030
 0.8270	36.0080
 0.8280	36.0340
 0.8290	36.0520
 0.8300	36.0600
 0.8310	36.0670
 0.8320	36.0910
 0.8330	36.1050
 0.8340	36.1150
 0.8350	36.1340
 0.8360	36.1430
 0.8370	36.1610
 0.8380	36.1840
 0.8390	36.1920
 0.8400	36.2080
 0.8410	36.2260
 0.8420	36.2420
 0.8430	36.2570
 0.8440	36.2680
 0.8450	36.2910
 0.8460	36.3290
 0.8470	36.3310
 0.8480	36.3500
 0.8490	36.3780
 0.8500	36.3920
 0.8510	36.4090
 0.8520	36.4230
 0.8530	36.4300
 0.8540	36.4340
 0.8550	36.4610
 0.8560	36.5020
 0.8570	36.5430
 0.8580	36.5600
 0.8590	36.5420
 0.8600	36.5410
 0.8610	36.5730
 0.8620	36.5920
 0.8630	36.5990
 0.8640	36.6040
 0.8650	36.6170
 0.8660	36.6420
 0.8670	36.6520
 0.8680	36.6630
 0.8690	36.6910
 0.8700	36.7040
 0.8710	36.7290
 0.8720	36.7550
 0.8730	36.7570
 0.8740	36.7680
 0.8750	36.7820
 0.8760	36.7950
 0.8770	36.8170
 0.8780	36.8290
 0.8790	36.8480
 0.8800	36.8720
 0.8810	36.8640
 0.8820	36.8700
 0.8830	36.8890
 0.8840	36.9070
 0.8850	36.9120
 0.8860	36.9210
 0.8870	36.9270
 0.8880	36.9240
 0.8890	36.9360
 0.8900	36.9460
 0.8910	36.9520
 0.8920	36.9600
 0.8930	36.9690
 0.8940	36.9860
 0.8950	37.0050
 0.8960	37.0130
 0.8970	37.0120
 0.8980	37.0070
 0.8990	37.0040
 0.9000	37.0080
 0.9010	37.0230
 0.9020	37.0230
 0.9030	37.0100
 0.9040	37.0270
 0.9050	37.0370
 0.9060	37.0510
 0.9070	37.0670
 0.9080	37.0580
 0.9090	37.0500
 0.9100	37.0550
 0.9110	37.0710
 0.9120	37.0620
 0.9130	37.0620
 0.9140	37.0730
 0.9150	37.0840
 0.9160	37.0670
 0.9170	37.0810
 0.9180	37.1110
 0.9190	37.1150
 0.9200	37.1060
 0.9210	37.0980
 0.9220	37.0930
 0.9230	37.0920
 0.9240	37.1010
 0.9250	37.1060
 0.9260	37.0980
 0.9270	37.0790
 0.9280	37.0730
 0.9290	37.0670
 0.9300	37.0580
 0.9310	37.0510
 0.9320	37.0540
 0.9330	37.0470
 0.9340	37.0220
 0.9350	36.9940
 0.9360	36.9950
 0.9370	36.9870
 0.9380	36.9510
 0.9390	36.9170
 0.9400	36.8940
 0.9410	36.8690
 0.9420	36.8410
 0.9430	36.8310
 0.9440	36.8000
 0.9450	36.7530
 0.9460	36.7020
 0.9470	36.6600
 0.9480	36.6210
 0.9490	36.5790
 0.9500	36.5270
 0.9510	36.4700
 0.9520	36.3890
 0.9530	36.2970
 0.9540	36.2150
 0.9550	36.1600
 0.9560	36.1050
 0.9570	36.0320
 0.9580	35.9410
 0.9590	35.8820
 0.9600	35.8190
 0.9610	35.7490
 0.9620	35.6830
 0.9630	35.6470
 0.9640	35.6270
 0.9650	35.6090
 0.9660	35.5820
 0.9670	35.5510
 0.9680	35.5080
 0.9690	35.4740
 0.9700	35.4680
 0.9710	35.4290
 0.9720	35.4100
 0.9730	35.4130
 0.9740	35.4120
 0.9750	35.3880
 0.9760	35.3900
 0.9770	35.4000
 0.9780	35.3850
 0.9790	35.3820
 0.9800	35.3890
 0.9810	35.3920
 0.9820	35.3850
 0.9830	35.4410
 0.9840	35.4560
 0.9850	35.4470
 0.9860	35.4770
 0.9870	35.5010
 0.9880	35.5360
 0.9890	35.5620
 0.9900	35.5590
 0.9910	35.5520
 0.9920	35.6140
 0.9930	35.6750
 0.9940	35.7360
 0.9950	35.7980
 0.9960	35.8590
 0.9970	35.9200
 0.9980	35.9820
 0.9990	36.0430
 1.0000	36.1050
 1.0010	36.1660
 1.0020	36.2270
 1.0030	36.2890
 1.0040	36.3500
 1.0050	36.4110
 1.0060	36.4730
 1.0070	36.5340
 1.0080	36.5960
 1.0090	36.6570
 1.0100	36.6570
 1.0110	36.6950
 1.0120	36.7360
 1.0130	36.7780
 1.0140	36.8190
 1.0150	36.8610
 1.0160	36.9000
 1.0170	36.9500
 1.0180	36.9960
 1.0190	37.0500
 1.0200	37.1050
 1.0210	37.1420
 1.0220	37.1780
 1.0230	37.2150
 1.0240	37.2420
 1.0250	37.2820
 1.0260	37.3330
 1.0270	37.3760
 1.0280	37.4220
 1.0290	37.4630
 1.0300	37.4960
 1.0310	37.5320
 1.0320	37.5660
 1.0330	37.5990
 1.0340	37.6340
 1.0350	37.6730
 1.0360	37.7200
 1.0370	37.7580
 1.0380	37.7970
 1.0390	37.8380
 1.0400	37.8700
 1.0410	37.8920
 1.0420	37.9250
 1.0430	37.9580
 1.0440	37.9910
 1.0450	38.0340
 1.0460	38.0670
 1.0470	38.0900
 1.0480	38.1180
 1.0490	38.1450
 1.0500	38.1730
 1.0510	38.2110
 1.0520	38.2380
 1.0530	38.2640
 1.0540	38.2860
 1.0550	38.3080
 1.0560	38.3210
 1.0570	38.3450
 1.0580	38.3750
 1.0590	38.3990
 1.0600	38.4290
 1.0610	38.4500
 1.0620	38.4620
 1.0630	38.4790
 1.0640	38.4950
 1.0650	38.5090
 1.0660	38.5220
 1.0670	38.5360
 1.0680	38.5500
 1.0690	38.5620
 1.0700	38.5740
 1.0710	38.5900
 1.0720	38.6000
 1.0730	38.6070
 1.0740	38.6160
 1.0750	38.6240
 1.0760	38.6310
 1.0770	38.6370
 1.0780	38.6420
 1.0790	38.6400
 1.0800	38.6440
 1.0810	38.6550
 1.0820	38.6590
 1.0830	38.6650
 1.0840	38.6680
 1.0850	38.6650
 1.0860	38.6660
 1.0870	38.6630
 1.0880	38.6580
 1.0890	38.6580
 1.0900	38.6570
 1.0910	38.6520
 1.0920	38.6510
 1.0930	38.6430
 1.0940	38.6250
 1.0950	38.6150
 1.0960	38.6080
 1.0970	38.6000
 1.0980	38.5980
 1.0990	38.5890
 1.1000	38.5770
 1.1010	38.5650
 1.1020	38.5520
 1.1030	38.5340
 1.1040	38.5180
 1.1050	38.5080
 1.1060	38.4970
 1.1070	38.4900
 1.1080	38.4750
 1.1090	38.4590
 1.1100	38.4390
 1.1110	38.4180
 1.1120	38.3900
 1.1130	38.3560
 1.1140	38.3230
 1.1150	38.2850
 1.1160	38.2470
 1.1170	38.2120
 1.1180	38.1730
 1.1190	38.1340
 1.1200	38.0860
 1.1210	38.0390
 1.1220	37.9850
 1.1230	37.9200
 1.1240	37.8540
 1.1250	37.7800
 1.1260	37.6980
 1.1270	37.6120
 1.1280	37.5240
 1.1290	37.4210
 1.1300	37.3100
 1.1310	37.1890
 1.1320	37.0520
 1.1330	36.9130
 1.1340	36.7690
 1.1350	36.6170
 1.1360	36.4600
 1.1370	36.2950
 1.1380	36.1180
 1.1390	35.9360
 1.1400	35.7470
 1.1410	35.5540
 1.1420	35.3570
 1.1430	35.1520
 1.1440	34.9500
 1.1450	34.7430
 1.1460	34.5440
 1.1470	34.3470
 1.1480	34.1570
 1.1490	33.9670
 1.1500	33.7880
 1.1510	33.6160
 1.1520	33.4500
 1.1530	33.2890
 1.1540	33.1410
 1.1550	33.0010
 1.1560	32.8710
 1.1570	32.7550
 1.1580	32.6490
 1.1590	32.5480
 1.1600	32.4510
 1.1610	32.3650
 1.1620	32.2850
 1.1630	32.2110
 1.1640	32.1450
 1.1650	32.0800
 1.1660	32.0170
 1.1670	31.9610
 1.1680	31.9110
 1.1690	31.8620
 1.1700	31.8170
 1.1710	31.7740
 1.1720	31.7340
 1.1730	31.6950
 1.1740	31.6580
 1.1750	31.6230
 1.1760	31.5850
 1.1770	31.5430
 1.1780	31.5010
 1.1790	31.4580
 1.1800	31.4160
 1.1810	31.3780
 1.1820	31.3380
 1.1830	31.2960
 1.1840	31.2570
 1.1850	31.2160
 1.1860	31.1760
 1.1870	31.1390
 1.1880	31.1060
 1.1890	31.0760
 1.1900	31.0480
 1.1910	31.0220
 1.1920	30.9990
 1.1930	30.9780
 1.1940	30.9580
 1.1950	30.9400
 1.1960	30.9270
 1.1970	30.9150
 1.1980	30.9020
 1.1990	30.8950
 1.2000	30.8920
 1.2010	30.8920
 1.2020	30.9000
 1.2030	30.9150
 1.2040	30.9350
 1.2050	30.9630
 1.2060	30.9930
 1.2070	31.0280
 1.2080	31.0700
 1.2090	31.1120
 1.2100	31.1600
 1.2110	31.2120
 1.2120	31.2670
 1.2130	31.3240
 1.2140	31.3870
 1.2150	31.4490
 1.2160	31.5100
 1.2170	31.5760
 1.2180	31.6430
 1.2190	31.7100
 1.2200	31.7820
 1.2210	31.8540
 1.2220	31.9210
 1.2230	31.9940
 1.2240	32.0680
 1.2250	32.1340
 1.2260	32.2020
 1.2270	32.2710
 1.2280	32.3340
 1.2290	32.3950
 1.2300	32.4530
 1.2310	32.5080
 1.2320	32.5620
 1.2330	32.6200
 1.2340	32.6750
 1.2350	32.7310
 1.2360	32.7840
 1.2370	32.8350
 1.2380	32.8820
 1.2390	32.9290
 1.2400	32.9750
 1.2410	33.0170
 1.2420	33.0580
 1.2430	33.0980
 1.2440	33.1380
 1.2450	33.1750
 1.2460	33.2120
 1.2470	33.2490
 1.2480	33.2880
 1.2490	33.3230
 1.2500	33.3530
 1.2510	33.3820
 1.2520	33.4100
 1.2530	33.4390
 1.2540	33.4710
 1.2550	33.5020
 1.2560	33.5270
 1.2570	33.5510
 1.2580	33.5750
 1.2590	33.5960
 1.2600	33.6150
 1.2610	33.6330
 1.2620	33.6510
 1.2630	33.6630
 1.2640	33.6770
 1.2650	33.6880
 1.2660	33.7000
 1.2670	33.7140
 1.2680	33.7240
 1.2690	33.7330
 1.2700	33.7420
 1.2710	33.7470
 1.2720	33.7540
 1.2730	33.7590
 1.2740	33.7600
 1.2750	33.7560
 1.2760	33.7520
 1.2770	33.7510
 1.2780	33.7490
 1.2790	33.7440
 1.2800	33.7350
 1.2810	33.7210
 1.2820	33.7010
 1.2830	33.6830
 1.2840	33.6670
 1.2850	33.6460
 1.2860	33.6250
 1.2870	33.6020
 1.2880	33.5760
 1.2890	33.5450
 1.2900	33.5150
 1.2910	33.4820
 1.2920	33.4450
 1.2930	33.4050
 1.2940	33.3630
 1.2950	33.3200
 1.2960	33.2700
 1.2970	33.2170
 1.2980	33.1590
 1.2990	33.0950
 1.3000	33.0340
 1.3010	32.9690
 1.3020	32.9010
 1.3030	32.8310
 1.3040	32.7540
 1.3050	32.6720
 1.3060	32.5870
 1.3070	32.4960
 1.3080	32.4010
 1.3090	32.3060
 1.3100	32.2070
 1.3110	32.1040
 1.3120	31.9990
 1.3130	31.8900
 1.3140	31.7760
 1.3150	31.6580
 1.3160	31.5360
 1.3170	31.4100
 1.3180	31.2790
 1.3190	31.1480
 1.3200	31.0140
 1.3210	30.8770
 1.3220	30.7360
 1.3230	30.5900
 1.3240	30.4360
 1.3250	30.2800
 1.3260	30.1230
 1.3270	29.9610
 1.3280	29.7990
 1.3290	29.6370
 1.3300	29.4700
 1.3310	29.3000
 1.3320	29.1280
 1.3330	28.9540
 1.3340	28.7810
 1.3350	28.6120
 1.3360	28.4420
 1.3370	28.2670
 1.3380	28.0960
 1.3390	27.9230
 1.3400	27.7470
 1.3410	27.5780
 1.3420	27.4100
 1.3430	27.2410
 1.3440	27.0750
 1.3450	26.9120
 1.3460	26.7490
 1.3470	26.5910
 1.3480	26.4370
 1.3490	26.2840
 1.3500	26.1350
 1.3510	25.9890
 1.3520	25.8420
 1.3530	25.6960
 1.3540	25.5520
 1.3550	25.4080
 1.3560	25.2650
 1.3570	25.1240
 1.3580	24.9850
 1.3590	24.8420
 1.3600	24.6970
 1.3610	24.5520
 1.3620	24.4040
 1.3630	24.2520
 1.3640	24.0960
 1.3650	23.9330
 1.3660	23.7650
 1.3670	23.5900
 1.3680	23.4080
 1.3690	23.2180
 1.3700	23.0190
 1.3710	22.8120
 1.3720	22.5930
 1.3730	22.3620
 1.3740	22.1190
 1.3750	21.8620
 1.3760	21.5920
 1.3770	21.3060
 1.3780	21.0020
 1.3790	20.6800
 1.3800	20.3440
 1.3810	19.9890
 1.3820	19.6250
 1.3830	19.2500
 1.3840	18.8640
 1.3850	18.4680
 1.3860	18.0650
 1.3870	17.6490
 1.3880	17.2360
 1.3890	16.8170
 1.3900	16.3970
 1.3910	15.9830
 1.3920	15.5690
 1.3930	15.1550
 1.3940	14.7490
 1.3950	14.3470
 1.3960	13.9540
 1.3970	13.5720
 1.3980	13.1980
 1.3990	12.8370
 1.4000	12.4880
 1.4010	12.1520
 1.4020	11.8310
 1.4030	11.5230
 1.4040	11.2310
 1.4050	10.9540
 1.4060	10.6910
 1.4070	10.4460
 1.4080	10.2130
 1.4090	 9.9910
 1.4100	 9.7840
 1.4110	 9.5900
 1.4120	 9.4080
 1.4130	 9.2390
 1.4140	 9.0810
 1.4150	 8.9350
 1.4160	 8.8000
 1.4170	 8.6740
 1.4180	 8.5590
 1.4190	 8.4510
 1.4200	 8.3500
 1.4210	 8.2570
 1.4220	 8.1720
 1.4230	 8.0930
 1.4240	 8.0200
 1.4250	 7.9520
 1.4260	 7.8920
 1.4270	 7.8370
 1.4280	 7.7890
 1.4290	 7.7430
 1.4300	 7.7020
 1.4310	 7.6630
 1.4320	 7.6270
 1.4330	 7.5940
 1.4340	 7.5660
 1.4350	 7.5410
 1.4360	 7.5190
 1.4370	 7.5000
 1.4380	 7.4830
 1.4390	 7.4680
 1.4400	 7.4550
 1.4410	 7.4440
 1.4420	 7.4350
 1.4430	 7.4300
 1.4440	 7.4270
 1.4450	 7.4240
 1.4460	 7.4220
 1.4470	 7.4230
 1.4480	 7.4240
 1.4490	 7.4270
 1.4500	 7.4320
 1.4510	 7.4360
 1.4520	 7.4410
 1.4530	 7.4480
 1.4540	 7.4560
 1.4550	 7.4660
 1.4560	 7.4760
 1.4570	 7.4880
 1.4580	 7.5010
 1.4590	 7.5150
 1.4600	 7.5340
 1.4610	 7.5520
 1.4620	 7.5710
 1.4630	 7.5940
 1.4640	 7.6180
 1.4650	 7.6450
 1.4660	 7.6750
 1.4670	 7.7050
 1.4680	 7.7390
 1.4690	 7.7750
 1.4700	 7.8130
 1.4710	 7.8560
 1.4720	 7.8990
 1.4730	 7.9440
 1.4740	 7.9920
 1.4750	 8.0410
 1.4760	 8.0950
 1.4770	 8.1480
 1.4780	 8.2020
 1.4790	 8.2580
 1.4800	 8.3140
 1.4810	 8.3740
 1.4820	 8.4360
 1.4830	 8.4960
 1.4840	 8.5600
 1.4850	 8.6210
 1.4860	 8.6820
 1.4870	 8.7470
 1.4880	 8.8110
 1.4890	 8.8760
 1.4900	 8.9420
 1.4910	 9.0100
 1.4920	 9.0770
 1.4930	 9.1440
 1.4940	 9.2120
 1.4950	 9.2810
 1.4960	 9.3490
 1.4970	 9.4150
 1.4980	 9.4840
 1.4990	 9.5550
 1.5000	 9.6260
 1.5010	 9.6990
 1.5020	 9.7690
 1.5030	 9.8380
 1.5040	 9.9060
 1.5050	 9.9730
 1.5060	10.0430
 1.5070	10.1160
 1.5080	10.1880
 1.5090	10.2630
 1.5100	10.3360
 1.5110	10.4050
 1.5120	10.4740
 1.5130	10.5420
 1.5140	10.6110
 1.5150	10.6790
 1.5160	10.7490
 1.5170	10.8180
 1.5180	10.8840
 1.5190	10.9540
 1.5200	11.0240
 1.5210	11.0910
 1.5220	11.1590
 1.5230	11.2260
 1.5240	11.2890
 1.5250	11.3540
 1.5260	11.4160
 1.5270	11.4790
 1.5280	11.5450
 1.5290	11.6080
 1.5300	11.6740
 1.5310	11.7390
 1.5320	11.7990
 1.5330	11.8590
 1.5340	11.9200
 1.5350	11.9810
 1.5360	12.0420
 1.5370	12.1010
 1.5380	12.1570
 1.5390	12.2130
 1.5400	12.2700
 1.5410	12.3310
 1.5420	12.3910
 1.5430	12.4500
 1.5440	12.5090
 1.5450	12.5650
 1.5460	12.6210
 1.5470	12.6770
 1.5480	12.7320
 1.5490	12.7880
 1.5500	12.8450
 1.5510	12.9030
 1.5520	12.9610
 1.5530	13.0170
 1.5540	13.0720
 1.5550	13.1260
 1.5560	13.1780
 1.5570	13.2290
 1.5580	13.2790
 1.5590	13.3270
 1.5600	13.3750
 1.5610	13.4220
 1.5620	13.4710
 1.5630	13.5230
 1.5640	13.5750
 1.5650	13.6280
 1.5660	13.6820
 1.5670	13.7330
 1.5680	13.7860
 1.5690	13.8380
 1.5700	13.8860
 1.5710	13.9370
 1.5720	13.9850
 1.5730	14.0310
 1.5740	14.0820
 1.5750	14.1300
 1.5760	14.1780
 1.5770	14.2290
 1.5780	14.2790
 1.5790	14.3270
 1.5800	14.3750
 1.5810	14.4230
 1.5820	14.4690
 1.5830	14.5170
 1.5840	14.5640
 1.5850	14.6100
 1.5860	14.6570
 1.5870	14.7040
 1.5880	14.7510
 1.5890	14.7990
 1.5900	14.8460
 1.5910	14.8910
 1.5920	14.9380
 1.5930	14.9840
 1.5940	15.0300
 1.5950	15.0780
 1.5960	15.1260
 1.5970	15.1770
 1.5980	15.2260
 1.5990	15.2730
 1.6000	15.3230
 1.6010	15.3700
 1.6020	15.4170
 1.6030	15.4650
 1.6040	15.5060
 1.6050	15.5490
 1.6060	15.5930
 1.6070	15.6370
 1.6080	15.6830
 1.6090	15.7260
 1.6100	15.7700
 1.6110	15.8110
 1.6120	15.8500
 1.6130	15.8890
 1.6140	15.9280
 1.6150	15.9650
 1.6160	16.0060
 1.6170	16.0470
 1.6180	16.0830
 1.6190	16.1210
 1.6200	16.1530
 1.6210	16.1840
 1.6220	16.2210
 1.6230	16.2550
 1.6240	16.2930
 1.6250	16.3300
 1.6260	16.3620
 1.6270	16.3940
 1.6280	16.4230
 1.6290	16.4540
 1.6300	16.4850
 1.6310	16.5150
 1.6320	16.5450
 1.6330	16.5720
 1.6340	16.5970
 1.6350	16.6220
 1.6360	16.6460
 1.6370	16.6690
 1.6380	16.6920
 1.6390	16.7140
 1.6400	16.7360
 1.6410	16.7520
 1.6420	16.7680
 1.6430	16.7790
 1.6440	16.7840
 1.6450	16.7910
 1.6460	16.7940
 1.6470	16.7970
 1.6480	16.7980
 1.6490	16.7970
 1.6500	16.7970
 1.6510	16.7890
 1.6520	16.7780
 1.6530	16.7660
 1.6540	16.7510
 1.6550	16.7380
 1.6560	16.7210
 1.6570	16.7020
 1.6580	16.6830
 1.6590	16.6610
 1.6600	16.6440
 1.6610	16.6270
 1.6620	16.6060
 1.6630	16.5880
 1.6640	16.5710
 1.6650	16.5560
 1.6660	16.5440
 1.6670	16.5320
 1.6680	16.5190
 1.6690	16.5060
 1.6700	16.4910
 1.6710	16.4760
 1.6720	16.4660
 1.6730	16.4550
 1.6740	16.4380
 1.6750	16.4180
 1.6760	16.3950
 1.6770	16.3680
 1.6780	16.3430
 1.6790	16.3210
 1.6800	16.2930
 1.6810	16.2600
 1.6820	16.2280
 1.6830	16.1890
 1.6840	16.1460
 1.6850	16.1030
 1.6860	16.0570
 1.6870	16.0090
 1.6880	15.9610
 1.6890	15.9080
 1.6900	15.8530
 1.6910	15.7940
 1.6920	15.7350
 1.6930	15.6750
 1.6940	15.6160
 1.6950	15.5560
 1.6960	15.4970
 1.6970	15.4390
 1.6980	15.3810
 1.6990	15.3250
 1.7000	15.2690
 1.7010	15.2130
 1.7020	15.1570
 1.7030	15.1020
 1.7040	15.0450
 1.7050	14.9860
 1.7060	14.9270
 1.7070	14.8670
 1.7080	14.8080
 1.7090	14.7470
 1.7100	14.6910
 1.7110	14.6360
 1.7120	14.5920
 1.7130	14.5490
 1.7140	14.5090
 1.7150	14.4730
 1.7160	14.4350
 1.7170	14.4010
 1.7180	14.3740
 1.7190	14.3490
 1.7200	14.3280
 1.7210	14.3100
 1.7220	14.2940
 1.7230	14.2800
 1.7240	14.2650
 1.7250	14.2530
 1.7260	14.2450
 1.7270	14.2350
 1.7280	14.2280
 1.7290	14.2240
 1.7300	14.2190
 1.7310	14.2160
 1.7320	14.2160
 1.7330	14.2140
 1.7340	14.2160
 1.7350	14.2110
 1.7360	14.2040
 1.7370	14.1910
 1.7380	14.1730
 1.7390	14.1500
 1.7400	14.1220
 1.7410	14.0940
 1.7420	14.0610
 1.7430	14.0290
 1.7440	13.9990
 1.7450	13.9670
 1.7460	13.9320
 1.7470	13.8980
 1.7480	13.8640
 1.7490	13.8290
 1.7500	13.7930
 1.7510	13.7570
 1.7520	13.7190
 1.7530	13.6870
 1.7540	13.6580
 1.7550	13.6290
 1.7560	13.6050
 1.7570	13.5840
 1.7580	13.5640
 1.7590	13.5450
 1.7600	13.5260
 1.7610	13.5040
 1.7620	13.4860
 1.7630	13.4740
 1.7640	13.4620
 1.7650	13.4520
 1.7660	13.4410
 1.7670	13.4300
 1.7680	13.4190
 1.7690	13.4070
 1.7700	13.3970
 1.7710	13.3890
 1.7720	13.3790
 1.7730	13.3720
 1.7740	13.3620
 1.7750	13.3480
 1.7760	13.3370
 1.7770	13.3260
 1.7780	13.3180
 1.7790	13.3110
 1.7800	13.3090
 1.7810	13.3100
 1.7820	13.3120
 1.7830	13.3180
 1.7840	13.3220
 1.7850	13.3260
 1.7860	13.3300
 1.7870	13.3340
 1.7880	13.3380
 1.7890	13.3450
 1.7900	13.3560
 1.7910	13.3630
 1.7920	13.3650
 1.7930	13.3750
 1.7940	13.3890
 1.7950	13.4010
 1.7960	13.4180
 1.7970	13.4320
 1.7980	13.4400
 1.7990	13.4500
 1.8000	13.4590
 1.8010	13.4710
 1.8020	13.4820
 1.8030	13.4960
 1.8040	13.5170
 1.8050	13.5320
 1.8060	13.5460
 1.8070	13.5570
 1.8080	13.5640
 1.8090	13.5750
 1.8100	13.5870
 1.8110	13.6020
 1.8120	13.6170
 1.8130	13.6290
 1.8140	13.6370
 1.8150	13.6470
 1.8160	13.6520
 1.8170	13.6560
 1.8180	13.6650
 1.8190	13.6650
 1.8200	13.6690
 1.8210	13.6730
 1.8220	13.6780
 1.8230	13.6900
 1.8240	13.6930
 1.8250	13.6880
 1.8260	13.6880
 1.8270	13.7120
 1.8280	13.7360
 1.8290	13.7610
 1.8300	13.7850
 1.8310	13.8090
 1.8320	13.8330
 1.8330	13.8580
 1.8340	13.8820
 1.8350	13.8820
 1.8360	13.8610
 1.8370	13.8380
 1.8380	13.8220
 1.8390	13.7990
 1.8400	13.7790
 1.8410	13.7480
 1.8420	13.7130
 1.8430	13.6670
 1.8440	13.6190
 1.8450	13.5750
 1.8460	13.5280
 1.8470	13.4760
 1.8480	13.4130
 1.8490	13.3440
 1.8500	13.2700
 1.8510	13.1900
 1.8520	13.0960
 1.8530	13.0010
 1.8540	12.9010
 1.8550	12.7850
 1.8560	12.6680
 1.8570	12.5390
 1.8580	12.4000
 1.8590	12.2540
 1.8600	12.1000
 1.8610	11.9370
 1.8620	11.7670
 1.8630	11.5870
 1.8640	11.4010
 1.8650	11.2100
 1.8660	11.0040
 1.8670	10.7880
 1.8680	10.5640
 1.8690	10.3260
 1.8700	10.0820
 1.8710	 9.8300
 1.8720	 9.5780
 1.8730	 9.3130
 1.8740	 9.0400
 1.8750	 8.7710
 1.8760	 8.4890
 1.8770	 8.2070
 1.8780	 7.9360
 1.8790	 7.6600
 1.8800	 7.3870
 1.8810	 7.1190
 1.8820	 6.8570
 1.8830	 6.5840
 1.8840	 6.3140
 1.8850	 6.0500
 1.8860	 5.7910
 1.8870	 5.5450
 1.8880	 5.3120
 1.8890	 5.0840
 1.8900	 4.8610
 1.8910	 4.6500
 1.8920	 4.4440
 1.8930	 4.2520
 1.8940	 4.0720
 1.8950	 3.9080
 1.8960	 3.7580
 1.8970	 3.6090
 1.8980	 3.4720
 1.8990	 3.3510
 1.9000	 3.2360
 1.9010	 3.1290
 1.9020	 3.0310
 1.9030	 2.9430
 1.9040	 2.8600
 1.9050	 2.7850
 1.9060	 2.7260
 1.9070	 2.6750
 1.9080	 2.6250
 1.9090	 2.5830
 1.9100	 2.5410
 1.9110	 2.5010
 1.9120	 2.4630
 1.9130	 2.4320
 1.9140	 2.4080
 1.9150	 2.3820
 1.9160	 2.3610
 1.9170	 2.3430
 1.9180	 2.3220
 1.9190	 2.3070
 1.9200	 2.2950
 1.9210	 2.2810
 1.9220	 2.2710
 1.9230	 2.2610
 1.9240	 2.2580
 1.9250	 2.2610
 1.9260	 2.2700
 1.9270	 2.2730
 1.9280	 2.2720
 1.9290	 2.2730
 1.9300	 2.2700
 1.9310	 2.2700
 1.9320	 2.2740
 1.9330	 2.2750
 1.9340	 2.2700
 1.9350	 2.2730
 1.9360	 2.2750
 1.9370	 2.2820
 1.9380	 2.2980
 1.9390	 2.3110
 1.9400	 2.3210
 1.9410	 2.3330
 1.9420	 2.3400
 1.9430	 2.3480
 1.9440	 2.3590
 1.9450	 2.3680
 1.9460	 2.3830
 1.9470	 2.4040
 1.9480	 2.4210
 1.9490	 2.4380
 1.9500	 2.4620
 1.9510	 2.4840
 1.9520	 2.5060
 1.9530	 2.5320
 1.9540	 2.5570
 1.9550	 2.5780
 1.9560	 2.5910
 1.9570	 2.6090
 1.9580	 2.6230
 1.9590	 2.6430
 1.9600	 2.6710
 1.9610	 2.6950
 1.9620	 2.7220
 1.9630	 2.7470
 1.9640	 2.7660
 1.9650	 2.7800
 1.9660	 2.7950
 1.9670	 2.8150
 1.9680	 2.8400
 1.9690	 2.8760
 1.9700	 2.9040
 1.9710	 2.9330
 1.9720	 2.9600
 1.9730	 2.9840
 1.9740	 3.0070
 1.9750	 3.0360
 1.9760	 3.0700
 1.9770	 3.1030
 1.9780	 3.1310
 1.9790	 3.1620
 1.9800	 3.1930
 1.9810	 3.2240
 1.9820	 3.2580
 1.9830	 3.2900
 1.9840	 3.3230
 1.9850	 3.3530
 1.9860	 3.3800
 1.9870	 3.4070
 1.9880	 3.4370
 1.9890	 3.4690
 1.9900	 3.4990
 1.9910	 3.5280
 1.9920	 3.5600
 1.9930	 3.5920
 1.9940	 3.6250
 1.9950	 3.6620
 1.9960	 3.6990
 1.9970	 3.7360
 1.9980	 3.7690
 1.9990	 3.8040
 2.0000	 3.8340
 2.0010	 3.8580
 2.0020	 3.8850
 2.0030	 3.9190
 2.0040	 3.9530
 2.0050	 3.9840
 2.0060	 4.0170
 2.0070	 4.0510
 2.0080	 4.0840
 2.0090	 4.1150
 2.0100	 4.1470
 2.0110	 4.1780
 2.0120	 4.2000
 2.0130	 4.2280
 2.0140	 4.2600
 2.0150	 4.2880
 2.0160	 4.3180
 2.0170	 4.3460
 2.0180	 4.3720
 2.0190	 4.3940
 2.0200	 4.4220
 2.0210	 4.4520
 2.0220	 4.4790
 2.0230	 4.5140
 2.0240	 4.5390
 2.0250	 4.5560
 2.0260	 4.5780
 2.0270	 4.6010
 2.0280	 4.6190
 2.0290	 4.6430
 2.0300	 4.6670
 2.0310	 4.6900
 2.0320	 4.7140
 2.0330	 4.7390
 2.0340	 4.7660
 2.0350	 4.7910
 2.0360	 4.8170
 2.0370	 4.8370
 2.0380	 4.8500
 2.0390	 4.8650
 2.0400	 4.8740
 2.0410	 4.8870
 2.0420	 4.9000
 2.0430	 4.9170
 2.0440	 4.9360
 2.0450	 4.9600
 2.0460	 4.9800
 2.0470	 5.0030
 2.0480	 5.0190
 2.0490	 5.0270
 2.0500	 5.0400
 2.0510	 5.0520
 2.0520	 5.0650
 2.0530	 5.0790
 2.0540	 5.0940
 2.0550	 5.1060
 2.0560	 5.1260
 2.0570	 5.1490
 2.0580	 5.1620
 2.0590	 5.1790
 2.0600	 5.1970
 2.0610	 5.2120
 2.0620	 5.2250
 2.0630	 5.2390
 2.0640	 5.2490
 2.0650	 5.2620
 2.0660	 5.2790
 2.0670	 5.2930
 2.0680	 5.3080
 2.0690	 5.3200
 2.0700	 5.3290
 2.0710	 5.3380
 2.0720	 5.3420
 2.0730	 5.3510
 2.0740	 5.3670
 2.0750	 5.3880
 2.0760	 5.4080
 2.0770	 5.4390
 2.0780	 5.4580
 2.0790	 5.4700
 2.0800	 5.4870
 2.0810	 5.5040
 2.0820	 5.5200
 2.0830	 5.5380
 2.0840	 5.5530
 2.0850	 5.5620
 2.0860	 5.5770
 2.0870	 5.5960
 2.0880	 5.6090
 2.0890	 5.6260
 2.0900	 5.6470
 2.0910	 5.6650
 2.0920	 5.6840
 2.0930	 5.7000
 2.0940	 5.7140
 2.0950	 5.7280
 2.0960	 5.7380
 2.0970	 5.7510
 2.0980	 5.7660
 2.0990	 5.7800
 2.1000	 5.7930
 2.1010	 5.8070
 2.1020	 5.8210
 2.1030	 5.8360
 2.1040	 5.8510
 2.1050	 5.8700
 2.1060	 5.8850
 2.1070	 5.8990
 2.1080	 5.9140
 2.1090	 5.9240
 2.1100	 5.9430
 2.1110	 5.9690
 2.1120	 5.9890
 2.1130	 6.0140
 2.1140	 6.0310
 2.1150	 6.0400
 2.1160	 6.0510
 2.1170	 6.0580
 2.1180	 6.0670
 2.1190	 6.0750
 2.1200	 6.0850
 2.1210	 6.0970
 2.1220	 6.1120
 2.1230	 6.1270
 2.1240	 6.1430
 2.1250	 6.1610
 2.1260	 6.1830
 2.1270	 6.1980
 2.1280	 6.2150
 2.1290	 6.2250
 2.1300	 6.2230
 2.1310	 6.2310
 2.1320	 6.2380
 2.1330	 6.2500
 2.1340	 6.2720
 2.1350	 6.2900
 2.1360	 6.3090
 2.1370	 6.3260
 2.1380	 6.3420
 2.1390	 6.3580
 2.1400	 6.3720
 2.1410	 6.3870
 2.1420	 6.4050
 2.1430	 6.4250
 2.1440	 6.4420
 2.1450	 6.4580
 2.1460	 6.4750
 2.1470	 6.4880
 2.1480	 6.5070
 2.1490	 6.5330
 2.1500	 6.5530
 2.1510	 6.5700
 2.1520	 6.5900
 2.1530	 6.6090
 2.1540	 6.6290
 2.1550	 6.6530
 2.1560	 6.6750
 2.1570	 6.6960
 2.1580	 6.7160
 2.1590	 6.7330
 2.1600	 6.7550
 2.1610	 6.7680
 2.1620	 6.7740
 2.1630	 6.7900
 2.1640	 6.8080
 2.1650	 6.8250
 2.1660	 6.8520
 2.1670	 6.8700
 2.1680	 6.8760
 2.1690	 6.8950
 2.1700	 6.9220
 2.1710	 6.9420
 2.1720	 6.9660
 2.1730	 6.9870
 2.1740	 7.0020
 2.1750	 7.0220
 2.1760	 7.0420
 2.1770	 7.0660
 2.1780	 7.1000
 2.1790	 7.1210
 2.1800	 7.1380
 2.1810	 7.1540
 2.1820	 7.1580
 2.1830	 7.1630
 2.1840	 7.1750
 2.1850	 7.1890
 2.1860	 7.2090
 2.1870	 7.2330
 2.1880	 7.2530
 2.1890	 7.2800
 2.1900	 7.2970
 2.1910	 7.3070
 2.1920	 7.3200
 2.1930	 7.3290
 2.1940	 7.3430
 2.1950	 7.3550
 2.1960	 7.3740
 2.1970	 7.4050
 2.1980	 7.4230
 2.1990	 7.4370
 2.2000	 7.4510
 2.2010	 7.4520
 2.2020	 7.4590
 2.2030	 7.4720
 2.2040	 7.4840
 2.2050	 7.4960
 2.2060	 7.5070
 2.2070	 7.5220
 2.2080	 7.5430
 2.2090	 7.5550
 2.2100	 7.5670
 2.2110	 7.5740
 2.2120	 7.5710
 2.2130	 7.5790
 2.2140	 7.5900
 2.2150	 7.5960
 2.2160	 7.6040
 2.2170	 7.6080
 2.2180	 7.6080
 2.2190	 7.6070
 2.2200	 7.6080
 2.2210	 7.6050
 2.2220	 7.5940
 2.2230	 7.5900
 2.2240	 7.5960
 2.2250	 7.5910
 2.2260	 7.5850
 2.2270	 7.5780
 2.2280	 7.5610
 2.2290	 7.5480
 2.2300	 7.5420
 2.2310	 7.5320
 2.2320	 7.5090
 2.2330	 7.4880
 2.2340	 7.4580
 2.2350	 7.4160
 2.2360	 7.3820
 2.2370	 7.3500
 2.2380	 7.3110
 2.2390	 7.2700
 2.2400	 7.2300
 2.2410	 7.1840
 2.2420	 7.1430
 2.2430	 7.1070
 2.2440	 7.0650
 2.2450	 7.0200
 2.2460	 6.9730
 2.2470	 6.9240
 2.2480	 6.8710
 2.2490	 6.8080
 2.2500	 6.7580
 2.2510	 6.7090
 2.2520	 6.6620
 2.2530	 6.6320
 2.2540	 6.5870
 2.2550	 6.5310
 2.2560	 6.4800
 2.2570	 6.4280
 2.2580	 6.3730
 2.2590	 6.3120
 2.2600	 6.2630
 2.2610	 6.2160
 2.2620	 6.1720
 2.2630	 6.1400
 2.2640	 6.1070
 2.2650	 6.0650
 2.2660	 6.0140
 2.2670	 5.9680
 2.2680	 5.9150
 2.2690	 5.8760
 2.2700	 5.8440
 2.2710	 5.8090
 2.2720	 5.7790
 2.2730	 5.7490
 2.2740	 5.7200
 2.2750	 5.6890
 2.2760	 5.6620
 2.2770	 5.6320
 2.2780	 5.5930
 2.2790	 5.5640
 2.2800	 5.5520
 2.2810	 5.5190
 2.2820	 5.4780
 2.2830	 5.4450
 2.2840	 5.3990
 2.2850	 5.3650
 2.2860	 5.3520
 2.2870	 5.3200
 2.2880	 5.2800
 2.2890	 5.2390
 2.2900	 5.1760
 2.2910	 5.1380
 2.2920	 5.1050
 2.2930	 5.0820
 2.2940	 5.0890
 2.2950	 5.0760
 2.2960	 5.0660
 2.2970	 5.0390
 2.2980	 4.9880
 2.2990	 4.9370
 2.3000	 4.9010
 2.3010	 4.8600
 2.3020	 4.8420
 2.3030	 4.8370
 2.3040	 4.8200
 2.3050	 4.8010
 2.3060	 4.7840
 2.3070	 4.7650
 2.3080	 4.7410
 2.3090	 4.7230
 2.3100	 4.7120
 2.3110	 4.7040
 2.3120	 4.7090
 2.3130	 4.7350
 2.3140	 4.7490
 2.3150	 4.7720
 2.3160	 4.7780
 2.3170	 4.7750
 2.3180	 4.7640
 2.3190	 4.7340
 2.3200	 4.7190
 2.3210	 4.7020
 2.3220	 4.6960
 2.3230	 4.7090
 2.3240	 4.7010
 2.3250	 4.6900
 2.3260	 4.6720
 2.3270	 4.6340
 2.3280	 4.6180
 2.3290	 4.6090
 2.3300	 4.6010
 2.3310	 4.6060
 2.3320	 4.6050
 2.3330	 4.6050
 2.3340	 4.5940
 2.3350	 4.5820
 2.3360	 4.5580
 2.3370	 4.5040
 2.3380	 4.4790
 2.3390	 4.4560
 2.3400	 4.4450
 2.3410	 4.4670
 2.3420	 4.4630
 2.3430	 4.4490
 2.3440	 4.4350
 2.3450	 4.4000
 2.3460	 4.3820
 2.3470	 4.3720
 2.3480	 4.3710
 2.3490	 4.4000
 2.3500	 4.3990
 2.3510	 4.3900
 2.3520	 4.3750
 2.3530	 4.3370
 2.3540	 4.3000
 2.3550	 4.2790
 2.3560	 4.2540
 2.3570	 4.2490
 2.3580	 4.2550
 2.3590	 4.2570
 2.3600	 4.2630
 2.3610	 4.2360
 2.3620	 4.2170
 2.3630	 4.2110
 2.3640	 4.1960
 2.3650	 4.2210
 2.3660	 4.2230
 2.3670	 4.2030
 2.3680	 4.1980
 2.3690	 4.1660
 2.3700	 4.1390
 2.3710	 4.1320
 2.3720	 4.1210
 2.3730	 4.1140
 2.3740	 4.1140
 2.3750	 4.0980
 2.3760	 4.0710
 2.3770	 4.0710
 2.3780	 4.0520
 2.3790	 4.0170
 2.3800	 4.0180
 2.3810	 3.9980
 2.3820	 3.9850
 2.3830	 3.9950
 2.3840	 3.9840
 2.3850	 3.9680
 2.3860	 3.9590
 2.3870	 3.9540
 2.3880	 3.9430
 2.3890	 3.9330
 2.3900	 3.8940
 2.3910	 3.8560
 2.3920	 3.8570
 2.3930	 3.8460
 2.3940	 3.8470
 2.3950	 3.8440
 2.3960	 3.8040
 2.3970	 3.7750
 2.3980	 3.7250
 2.3990	 3.6650
 2.4000	 3.6400
 2.4010	 3.6280
 2.4020	 3.6510
 2.4030	 3.6820
 2.4040	 3.6780
 2.4050	 3.6700
 2.4060	 3.6560
 2.4070	 3.6360
 2.4080	 3.6420
 2.4090	 3.6230
 2.4100	 3.5690
 2.4110	 3.5350
 2.4120	 3.5040
 2.4130	 3.5180
 2.4140	 3.5240
 2.4150	 3.4900
 2.4160	 3.4950
 2.4170	 3.4560
 2.4180	 3.4140
 2.4190	 3.4320
 2.4200	 3.3990
 2.4210	 3.3650
 2.4220	 3.3730
 2.4230	 3.3440
 2.4240	 3.3160
 2.4250	 3.2970
 2.4260	 3.2550
 2.4270	 3.2340
 2.4280	 3.2450
 2.4290	 3.2790
 2.4300	 3.2950
 2.4310	 3.2680
 2.4320	 3.2240
 2.4330	 3.1350
 2.4340	 3.0410
 2.4350	 3.0150
 2.4360	 3.0160
 2.4370	 3.0250
 2.4380	 3.0630
 2.4390	 3.0410
 2.4400	 2.9940
 2.4410	 2.9980
 2.4420	 2.9600
 2.4430	 2.9340
 2.4440	 2.9560
 2.4450	 2.9320
 2.4460	 2.8860
 2.4470	 2.8730
 2.4480	 2.8400
 2.4490	 2.7540
 2.4500	 2.7530
 2.4510	 2.7760
 2.4520	 2.7520
 2.4530	 2.7830
 2.4540	 2.7760
 2.4550	 2.7180
 2.4560	 2.7150
 2.4570	 2.7330
 2.4580	 2.7050
 2.4590	 2.6830
 2.4600	 2.6620
 2.4610	 2.5980
 2.4620	 2.5560
 2.4630	 2.5210
 2.4640	 2.4740
 2.4650	 2.4430
 2.4660	 2.4440
 2.4670	 2.4820
 2.4680	 2.5090
 2.4690	 2.4770
 2.4700	 2.4600
 2.4710	 2.4270
 2.4720	 2.4160
 2.4730	 2.4150
 2.4740	 2.4410
 2.4750	 2.4930
 2.4760	 2.5040
 2.4770	 2.5380
 2.4780	 2.5430
 2.4790	 2.4850
 2.4800	 2.4920
 2.4810	 2.5310
 2.4820	 2.6250
 2.4830	 2.6320
 2.4840	 2.5990
 2.4850	 2.5410
 2.4860	 2.4360
 2.4870	 2.3970
 2.4880	 2.3530
 2.4890	 2.3320
 2.4900	 2.3490
 2.4910	 2.3600
 2.4920	 2.4020
 2.4930	 2.3020
 2.4940	 2.2050
 2.4950	 2.1930
 2.4960	 2.2370
 2.4970	 2.3740
 2.4980	 2.4790
 2.4990	 2.5320
 2.5000	 2.4470
