Name: Arctostaphylos glandulosa 3
Type: vegetation
Class: Shrub
Genus: Arctostaphylos
Species: glandulosa
Sample No.: VH252
Owner: UCSB
Wavelength Range: VSWIR
Origin: 37.0443; -119.3026; WGS84
Collection Date: 11/2/2013
Description: Samples were collected as part of the HyspIRI Airborne Campaign. 48 individual plants were sampled in three times in 2013 - spring  summer  and fall. The name of the sample includes a 1  2  or 3 which references a different individual of the species. Samples were taken to JPL and processed within 48 hours of collection. The same leaves were processed in the Nicolet and then measured using the ASD.
Measurement: Bidirectional reflectance
First Column: X
Second Column: Y
X Units: Wavelength (micrometers)
Y Units: Reflectance (percentage)
First X Value: 0.35
Last X Value: 2.5
Number of X Values: 2151
Additional Information: vegetation.shrub.arctostaphylos.glandulosa.vswir.vh252.ucsb.asd.ancillary.txt

 0.3500	 4.3310
 0.3510	 4.4280
 0.3520	 4.3500
 0.3530	 4.2600
 0.3540	 4.2930
 0.3550	 4.2120
 0.3560	 4.2140
 0.3570	 4.2800
 0.3580	 4.2900
 0.3590	 4.2530
 0.3600	 4.2280
 0.3610	 4.2400
 0.3620	 4.2680
 0.3630	 4.2360
 0.3640	 4.2320
 0.3650	 4.3220
 0.3660	 4.3330
 0.3670	 4.3370
 0.3680	 4.3530
 0.3690	 4.3580
 0.3700	 4.3520
 0.3710	 4.3020
 0.3720	 4.2380
 0.3730	 4.3120
 0.3740	 4.3590
 0.3750	 4.3740
 0.3760	 4.3930
 0.3770	 4.3630
 0.3780	 4.3350
 0.3790	 4.3370
 0.3800	 4.3640
 0.3810	 4.3820
 0.3820	 4.3660
 0.3830	 4.3270
 0.3840	 4.3530
 0.3850	 4.3510
 0.3860	 4.3470
 0.3870	 4.3910
 0.3880	 4.3630
 0.3890	 4.3610
 0.3900	 4.4020
 0.3910	 4.4080
 0.3920	 4.4230
 0.3930	 4.4380
 0.3940	 4.4380
 0.3950	 4.4150
 0.3960	 4.4580
 0.3970	 4.5110
 0.3980	 4.4790
 0.3990	 4.5240
 0.4000	 4.5600
 0.4010	 4.5610
 0.4020	 4.6010
 0.4030	 4.6420
 0.4040	 4.6860
 0.4050	 4.7400
 0.4060	 4.7940
 0.4070	 4.8430
 0.4080	 4.8850
 0.4090	 4.9250
 0.4100	 4.9820
 0.4110	 5.0430
 0.4120	 5.0980
 0.4130	 5.1510
 0.4140	 5.1940
 0.4150	 5.2420
 0.4160	 5.3070
 0.4170	 5.3770
 0.4180	 5.4260
 0.4190	 5.4610
 0.4200	 5.5180
 0.4210	 5.5490
 0.4220	 5.5850
 0.4230	 5.6430
 0.4240	 5.6690
 0.4250	 5.7070
 0.4260	 5.7520
 0.4270	 5.7840
 0.4280	 5.8250
 0.4290	 5.8530
 0.4300	 5.8670
 0.4310	 5.9070
 0.4320	 5.9330
 0.4330	 5.9540
 0.4340	 5.9790
 0.4350	 5.9800
 0.4360	 6.0040
 0.4370	 6.0450
 0.4380	 6.0620
 0.4390	 6.0870
 0.4400	 6.1160
 0.4410	 6.1410
 0.4420	 6.1580
 0.4430	 6.1820
 0.4440	 6.2050
 0.4450	 6.2150
 0.4460	 6.2410
 0.4470	 6.2620
 0.4480	 6.2770
 0.4490	 6.3110
 0.4500	 6.3290
 0.4510	 6.3490
 0.4520	 6.3840
 0.4530	 6.3960
 0.4540	 6.4130
 0.4550	 6.4370
 0.4560	 6.4550
 0.4570	 6.4690
 0.4580	 6.4800
 0.4590	 6.4900
 0.4600	 6.5030
 0.4610	 6.5090
 0.4620	 6.5140
 0.4630	 6.5270
 0.4640	 6.5360
 0.4650	 6.5440
 0.4660	 6.5510
 0.4670	 6.5530
 0.4680	 6.5590
 0.4690	 6.5700
 0.4700	 6.5800
 0.4710	 6.5780
 0.4720	 6.5800
 0.4730	 6.5900
 0.4740	 6.5970
 0.4750	 6.6030
 0.4760	 6.6050
 0.4770	 6.6050
 0.4780	 6.6130
 0.4790	 6.6130
 0.4800	 6.6140
 0.4810	 6.6260
 0.4820	 6.6330
 0.4830	 6.6400
 0.4840	 6.6480
 0.4850	 6.6530
 0.4860	 6.6590
 0.4870	 6.6720
 0.4880	 6.6960
 0.4890	 6.7160
 0.4900	 6.7390
 0.4910	 6.7660
 0.4920	 6.7910
 0.4930	 6.8200
 0.4940	 6.8580
 0.4950	 6.9070
 0.4960	 6.9600
 0.4970	 7.0160
 0.4980	 7.0740
 0.4990	 7.1360
 0.5000	 7.2070
 0.5010	 7.2930
 0.5020	 7.3870
 0.5030	 7.4790
 0.5040	 7.5880
 0.5050	 7.7070
 0.5060	 7.8330
 0.5070	 7.9850
 0.5080	 8.1390
 0.5090	 8.2990
 0.5100	 8.4760
 0.5110	 8.6710
 0.5120	 8.8800
 0.5130	 9.0990
 0.5140	 9.3330
 0.5150	 9.5770
 0.5160	 9.8290
 0.5170	10.0890
 0.5180	10.3540
 0.5190	10.6280
 0.5200	10.9080
 0.5210	11.1900
 0.5220	11.4740
 0.5230	11.7490
 0.5240	12.0120
 0.5250	12.2710
 0.5260	12.5100
 0.5270	12.7320
 0.5280	12.9470
 0.5290	13.1440
 0.5300	13.3250
 0.5310	13.4950
 0.5320	13.6540
 0.5330	13.7980
 0.5340	13.9260
 0.5350	14.0410
 0.5360	14.1410
 0.5370	14.2300
 0.5380	14.3110
 0.5390	14.3860
 0.5400	14.4510
 0.5410	14.5050
 0.5420	14.5510
 0.5430	14.6050
 0.5440	14.6560
 0.5450	14.7080
 0.5460	14.7690
 0.5470	14.8330
 0.5480	14.8950
 0.5490	14.9470
 0.5500	14.9860
 0.5510	15.0170
 0.5520	15.0380
 0.5530	15.0460
 0.5540	15.0410
 0.5550	15.0200
 0.5560	14.9830
 0.5570	14.9310
 0.5580	14.8650
 0.5590	14.7850
 0.5600	14.6920
 0.5610	14.5870
 0.5620	14.4690
 0.5630	14.3410
 0.5640	14.2050
 0.5650	14.0600
 0.5660	13.9110
 0.5670	13.7610
 0.5680	13.6080
 0.5690	13.4470
 0.5700	13.2800
 0.5710	13.1140
 0.5720	12.9530
 0.5730	12.7990
 0.5740	12.6490
 0.5750	12.4990
 0.5760	12.3540
 0.5770	12.2200
 0.5780	12.0990
 0.5790	11.9880
 0.5800	11.8800
 0.5810	11.7760
 0.5820	11.6770
 0.5830	11.5800
 0.5840	11.4880
 0.5850	11.4050
 0.5860	11.3290
 0.5870	11.2590
 0.5880	11.1990
 0.5890	11.1500
 0.5900	11.0910
 0.5910	11.0320
 0.5920	10.9760
 0.5930	10.9250
 0.5940	10.8840
 0.5950	10.8490
 0.5960	10.8170
 0.5970	10.7830
 0.5980	10.7480
 0.5990	10.7080
 0.6000	10.6610
 0.6010	10.6190
 0.6020	10.5740
 0.6030	10.5220
 0.6040	10.4610
 0.6050	10.4000
 0.6060	10.3360
 0.6070	10.2630
 0.6080	10.1880
 0.6090	10.1050
 0.6100	10.0130
 0.6110	 9.9150
 0.6120	 9.8380
 0.6130	 9.7660
 0.6140	 9.6890
 0.6150	 9.6140
 0.6160	 9.5420
 0.6170	 9.4720
 0.6180	 9.4030
 0.6190	 9.3420
 0.6200	 9.2890
 0.6210	 9.2450
 0.6220	 9.2030
 0.6230	 9.1690
 0.6240	 9.1420
 0.6250	 9.1220
 0.6260	 9.1020
 0.6270	 9.0880
 0.6280	 9.0800
 0.6290	 9.0760
 0.6300	 9.0680
 0.6310	 9.0580
 0.6320	 9.0460
 0.6330	 9.0280
 0.6340	 9.0030
 0.6350	 8.9690
 0.6360	 8.9220
 0.6370	 8.8590
 0.6380	 8.7910
 0.6390	 8.7150
 0.6400	 8.6200
 0.6410	 8.5190
 0.6420	 8.4160
 0.6430	 8.3110
 0.6440	 8.2000
 0.6450	 8.0920
 0.6460	 7.9880
 0.6470	 7.8880
 0.6480	 7.8010
 0.6490	 7.7200
 0.6500	 7.6480
 0.6510	 7.5900
 0.6520	 7.5410
 0.6530	 7.4960
 0.6540	 7.4510
 0.6550	 7.4020
 0.6560	 7.3520
 0.6570	 7.2980
 0.6580	 7.2390
 0.6590	 7.1680
 0.6600	 7.0930
 0.6610	 7.0190
 0.6620	 6.9450
 0.6630	 6.8730
 0.6640	 6.8060
 0.6650	 6.7420
 0.6660	 6.6870
 0.6670	 6.6380
 0.6680	 6.5980
 0.6690	 6.5650
 0.6700	 6.5400
 0.6710	 6.5210
 0.6720	 6.5080
 0.6730	 6.5020
 0.6740	 6.5020
 0.6750	 6.5070
 0.6760	 6.5180
 0.6770	 6.5300
 0.6780	 6.5490
 0.6790	 6.5780
 0.6800	 6.6170
 0.6810	 6.6640
 0.6820	 6.7200
 0.6830	 6.7890
 0.6840	 6.8810
 0.6850	 6.9980
 0.6860	 7.1420
 0.6870	 7.3150
 0.6880	 7.5300
 0.6890	 7.8010
 0.6900	 8.1320
 0.6910	 8.5270
 0.6920	 8.9930
 0.6930	 9.5320
 0.6940	10.1460
 0.6950	10.8310
 0.6960	11.5780
 0.6970	12.3870
 0.6980	13.2560
 0.6990	14.1740
 0.7000	15.1390
 0.7010	16.1430
 0.7020	17.1740
 0.7030	18.2240
 0.7040	19.2910
 0.7050	20.3740
 0.7060	21.4730
 0.7070	22.5730
 0.7080	23.6760
 0.7090	24.7910
 0.7100	25.9110
 0.7110	27.0290
 0.7120	28.1470
 0.7130	29.2720
 0.7140	30.3940
 0.7150	31.5150
 0.7160	32.6350
 0.7170	33.7440
 0.7180	34.8490
 0.7190	35.9510
 0.7200	37.0450
 0.7210	38.1240
 0.7220	39.1890
 0.7230	40.2350
 0.7240	41.2610
 0.7250	42.2550
 0.7260	43.2200
 0.7270	44.1570
 0.7280	45.0610
 0.7290	45.9560
 0.7300	46.8130
 0.7310	47.5920
 0.7320	48.3550
 0.7330	49.0990
 0.7340	49.8140
 0.7350	50.4890
 0.7360	51.1230
 0.7370	51.7260
 0.7380	52.2990
 0.7390	52.8260
 0.7400	53.3370
 0.7410	53.8240
 0.7420	54.2670
 0.7430	54.6820
 0.7440	55.0720
 0.7450	55.4410
 0.7460	55.7920
 0.7470	56.1070
 0.7480	56.3900
 0.7490	56.6520
 0.7500	56.9080
 0.7510	57.1440
 0.7520	57.3540
 0.7530	57.5370
 0.7540	57.6940
 0.7550	57.8510
 0.7560	58.0030
 0.7570	58.1210
 0.7580	58.2410
 0.7590	58.3540
 0.7600	58.4520
 0.7610	58.5390
 0.7620	58.6290
 0.7630	58.7060
 0.7640	58.7600
 0.7650	58.8220
 0.7660	58.8800
 0.7670	58.9280
 0.7680	58.9630
 0.7690	59.0010
 0.7700	59.0380
 0.7710	59.0720
 0.7720	59.1060
 0.7730	59.1390
 0.7740	59.1700
 0.7750	59.1980
 0.7760	59.2140
 0.7770	59.2410
 0.7780	59.2690
 0.7790	59.2800
 0.7800	59.3020
 0.7810	59.3250
 0.7820	59.3440
 0.7830	59.3640
 0.7840	59.3870
 0.7850	59.4080
 0.7860	59.4250
 0.7870	59.4400
 0.7880	59.4730
 0.7890	59.5020
 0.7900	59.5070
 0.7910	59.5260
 0.7920	59.5540
 0.7930	59.5800
 0.7940	59.5930
 0.7950	59.6000
 0.7960	59.6240
 0.7970	59.6610
 0.7980	59.6700
 0.7990	59.6950
 0.8000	59.7190
 0.8010	59.7300
 0.8020	59.7610
 0.8030	59.7920
 0.8040	59.8140
 0.8050	59.8240
 0.8060	59.8450
 0.8070	59.8670
 0.8080	59.8860
 0.8090	59.9020
 0.8100	59.9060
 0.8110	59.9170
 0.8120	59.9470
 0.8130	59.9840
 0.8140	60.0060
 0.8150	60.0190
 0.8160	60.0380
 0.8170	60.0680
 0.8180	60.0930
 0.8190	60.1160
 0.8200	60.1410
 0.8210	60.1710
 0.8220	60.1760
 0.8230	60.1680
 0.8240	60.1940
 0.8250	60.2100
 0.8260	60.2210
 0.8270	60.2300
 0.8280	60.2250
 0.8290	60.2350
 0.8300	60.2470
 0.8310	60.2510
 0.8320	60.2730
 0.8330	60.2790
 0.8340	60.2770
 0.8350	60.2910
 0.8360	60.3150
 0.8370	60.3300
 0.8380	60.3330
 0.8390	60.3330
 0.8400	60.3380
 0.8410	60.3540
 0.8420	60.3780
 0.8430	60.4010
 0.8440	60.3960
 0.8450	60.3880
 0.8460	60.3980
 0.8470	60.4010
 0.8480	60.4210
 0.8490	60.4470
 0.8500	60.4590
 0.8510	60.4510
 0.8520	60.4360
 0.8530	60.4350
 0.8540	60.4580
 0.8550	60.4660
 0.8560	60.4620
 0.8570	60.4550
 0.8580	60.4530
 0.8590	60.4650
 0.8600	60.4680
 0.8610	60.4560
 0.8620	60.4580
 0.8630	60.4690
 0.8640	60.4680
 0.8650	60.4450
 0.8660	60.4380
 0.8670	60.4370
 0.8680	60.4310
 0.8690	60.4110
 0.8700	60.3980
 0.8710	60.3810
 0.8720	60.3670
 0.8730	60.3690
 0.8740	60.3510
 0.8750	60.3410
 0.8760	60.3440
 0.8770	60.3370
 0.8780	60.3220
 0.8790	60.3030
 0.8800	60.2790
 0.8810	60.2550
 0.8820	60.2400
 0.8830	60.2280
 0.8840	60.2110
 0.8850	60.1930
 0.8860	60.1620
 0.8870	60.1350
 0.8880	60.1280
 0.8890	60.1040
 0.8900	60.0810
 0.8910	60.0630
 0.8920	60.0440
 0.8930	60.0120
 0.8940	60.0000
 0.8950	59.9970
 0.8960	59.9640
 0.8970	59.9250
 0.8980	59.9000
 0.8990	59.8860
 0.9000	59.8600
 0.9010	59.8420
 0.9020	59.8230
 0.9030	59.7970
 0.9040	59.7690
 0.9050	59.7300
 0.9060	59.6970
 0.9070	59.6750
 0.9080	59.6490
 0.9090	59.6240
 0.9100	59.6060
 0.9110	59.5940
 0.9120	59.5890
 0.9130	59.5640
 0.9140	59.5330
 0.9150	59.5130
 0.9160	59.4790
 0.9170	59.4490
 0.9180	59.4270
 0.9190	59.4080
 0.9200	59.3880
 0.9210	59.3530
 0.9220	59.3160
 0.9230	59.2960
 0.9240	59.2610
 0.9250	59.2080
 0.9260	59.1590
 0.9270	59.1420
 0.9280	59.1080
 0.9290	59.0690
 0.9300	59.0300
 0.9310	58.9870
 0.9320	58.9530
 0.9330	58.9150
 0.9340	58.8660
 0.9350	58.8090
 0.9360	58.7550
 0.9370	58.7030
 0.9380	58.6540
 0.9390	58.6210
 0.9400	58.5660
 0.9410	58.4980
 0.9420	58.4310
 0.9430	58.3740
 0.9440	58.3110
 0.9450	58.2430
 0.9460	58.1660
 0.9470	58.0590
 0.9480	57.9620
 0.9490	57.8650
 0.9500	57.7530
 0.9510	57.6420
 0.9520	57.5100
 0.9530	57.3740
 0.9540	57.2460
 0.9550	57.0920
 0.9560	56.9640
 0.9570	56.8500
 0.9580	56.7320
 0.9590	56.6340
 0.9600	56.5340
 0.9610	56.4440
 0.9620	56.3750
 0.9630	56.2950
 0.9640	56.2420
 0.9650	56.2060
 0.9660	56.1640
 0.9670	56.1270
 0.9680	56.0820
 0.9690	56.0430
 0.9700	56.0280
 0.9710	56.0230
 0.9720	56.0230
 0.9730	56.0070
 0.9740	55.9720
 0.9750	55.9860
 0.9760	55.9850
 0.9770	55.9700
 0.9780	55.9730
 0.9790	55.9780
 0.9800	56.0010
 0.9810	56.0280
 0.9820	56.0420
 0.9830	56.0890
 0.9840	56.1250
 0.9850	56.1490
 0.9860	56.1810
 0.9870	56.2200
 0.9880	56.2570
 0.9890	56.2910
 0.9900	56.3240
 0.9910	56.3710
 0.9920	56.4390
 0.9930	56.4950
 0.9940	56.5150
 0.9950	56.5630
 0.9960	56.6430
 0.9970	56.7260
 0.9980	56.7780
 0.9990	56.8170
 1.0000	57.0140
 1.0010	57.2910
 1.0020	57.4870
 1.0030	57.5490
 1.0040	57.6150
 1.0050	57.6730
 1.0060	57.7380
 1.0070	57.8100
 1.0080	57.8700
 1.0090	57.9230
 1.0100	57.9800
 1.0110	58.0280
 1.0120	58.0900
 1.0130	58.1630
 1.0140	58.2300
 1.0150	58.3020
 1.0160	58.3670
 1.0170	58.4210
 1.0180	58.4760
 1.0190	58.5320
 1.0200	58.5900
 1.0210	58.6490
 1.0220	58.7050
 1.0230	58.7630
 1.0240	58.8230
 1.0250	58.8790
 1.0260	58.9360
 1.0270	58.9910
 1.0280	59.0420
 1.0290	59.0920
 1.0300	59.1440
 1.0310	59.1950
 1.0320	59.2450
 1.0330	59.2910
 1.0340	59.3350
 1.0350	59.3740
 1.0360	59.4080
 1.0370	59.4490
 1.0380	59.4940
 1.0390	59.5470
 1.0400	59.5890
 1.0410	59.6340
 1.0420	59.6710
 1.0430	59.6970
 1.0440	59.7300
 1.0450	59.7640
 1.0460	59.7980
 1.0470	59.8340
 1.0480	59.8650
 1.0490	59.8880
 1.0500	59.9170
 1.0510	59.9500
 1.0520	59.9740
 1.0530	60.0050
 1.0540	60.0450
 1.0550	60.0730
 1.0560	60.0960
 1.0570	60.1210
 1.0580	60.1410
 1.0590	60.1610
 1.0600	60.1820
 1.0610	60.2010
 1.0620	60.2170
 1.0630	60.2340
 1.0640	60.2550
 1.0650	60.2700
 1.0660	60.2830
 1.0670	60.2940
 1.0680	60.3030
 1.0690	60.3070
 1.0700	60.3160
 1.0710	60.3240
 1.0720	60.3340
 1.0730	60.3470
 1.0740	60.3550
 1.0750	60.3630
 1.0760	60.3660
 1.0770	60.3630
 1.0780	60.3630
 1.0790	60.3630
 1.0800	60.3630
 1.0810	60.3700
 1.0820	60.3690
 1.0830	60.3630
 1.0840	60.3570
 1.0850	60.3510
 1.0860	60.3390
 1.0870	60.3250
 1.0880	60.3100
 1.0890	60.2940
 1.0900	60.2700
 1.0910	60.2530
 1.0920	60.2420
 1.0930	60.2220
 1.0940	60.2020
 1.0950	60.1790
 1.0960	60.1500
 1.0970	60.1220
 1.0980	60.0930
 1.0990	60.0650
 1.1000	60.0390
 1.1010	60.0090
 1.1020	59.9790
 1.1030	59.9480
 1.1040	59.9140
 1.1050	59.8780
 1.1060	59.8420
 1.1070	59.8060
 1.1080	59.7670
 1.1090	59.7260
 1.1100	59.6830
 1.1110	59.6390
 1.1120	59.5950
 1.1130	59.5530
 1.1140	59.5050
 1.1150	59.4540
 1.1160	59.4000
 1.1170	59.3470
 1.1180	59.2850
 1.1190	59.2190
 1.1200	59.1480
 1.1210	59.0660
 1.1220	58.9760
 1.1230	58.8800
 1.1240	58.7800
 1.1250	58.6660
 1.1260	58.5470
 1.1270	58.4070
 1.1280	58.2530
 1.1290	58.0870
 1.1300	57.9100
 1.1310	57.7150
 1.1320	57.5050
 1.1330	57.2830
 1.1340	57.0430
 1.1350	56.7940
 1.1360	56.5330
 1.1370	56.2600
 1.1380	55.9730
 1.1390	55.6780
 1.1400	55.3740
 1.1410	55.0650
 1.1420	54.7580
 1.1430	54.4480
 1.1440	54.1410
 1.1450	53.8320
 1.1460	53.5350
 1.1470	53.2380
 1.1480	52.9580
 1.1490	52.6840
 1.1500	52.4300
 1.1510	52.1870
 1.1520	51.9620
 1.1530	51.7550
 1.1540	51.5620
 1.1550	51.3830
 1.1560	51.2200
 1.1570	51.0750
 1.1580	50.9440
 1.1590	50.8290
 1.1600	50.7240
 1.1610	50.6300
 1.1620	50.5470
 1.1630	50.4720
 1.1640	50.4060
 1.1650	50.3450
 1.1660	50.2910
 1.1670	50.2410
 1.1680	50.2000
 1.1690	50.1600
 1.1700	50.1270
 1.1710	50.0910
 1.1720	50.0580
 1.1730	50.0220
 1.1740	49.9850
 1.1750	49.9490
 1.1760	49.9110
 1.1770	49.8720
 1.1780	49.8320
 1.1790	49.7910
 1.1800	49.7480
 1.1810	49.7050
 1.1820	49.6630
 1.1830	49.6180
 1.1840	49.5750
 1.1850	49.5350
 1.1860	49.4900
 1.1870	49.4460
 1.1880	49.4040
 1.1890	49.3580
 1.1900	49.3180
 1.1910	49.2820
 1.1920	49.2480
 1.1930	49.2160
 1.1940	49.1880
 1.1950	49.1630
 1.1960	49.1430
 1.1970	49.1260
 1.1980	49.1120
 1.1990	49.1020
 1.2000	49.0980
 1.2010	49.1010
 1.2020	49.1090
 1.2030	49.1240
 1.2040	49.1470
 1.2050	49.1760
 1.2060	49.2120
 1.2070	49.2580
 1.2080	49.3080
 1.2090	49.3620
 1.2100	49.4220
 1.2110	49.4850
 1.2120	49.5520
 1.2130	49.6240
 1.2140	49.7040
 1.2150	49.7850
 1.2160	49.8700
 1.2170	49.9590
 1.2180	50.0500
 1.2190	50.1440
 1.2200	50.2400
 1.2210	50.3370
 1.2220	50.4360
 1.2230	50.5310
 1.2240	50.6250
 1.2250	50.7210
 1.2260	50.8140
 1.2270	50.9050
 1.2280	50.9960
 1.2290	51.0820
 1.2300	51.1640
 1.2310	51.2480
 1.2320	51.3280
 1.2330	51.4030
 1.2340	51.4790
 1.2350	51.5550
 1.2360	51.6280
 1.2370	51.6990
 1.2380	51.7710
 1.2390	51.8350
 1.2400	51.8970
 1.2410	51.9570
 1.2420	52.0140
 1.2430	52.0730
 1.2440	52.1280
 1.2450	52.1780
 1.2460	52.2280
 1.2470	52.2750
 1.2480	52.3210
 1.2490	52.3650
 1.2500	52.4060
 1.2510	52.4480
 1.2520	52.4880
 1.2530	52.5260
 1.2540	52.5640
 1.2550	52.5970
 1.2560	52.6280
 1.2570	52.6600
 1.2580	52.6870
 1.2590	52.7120
 1.2600	52.7350
 1.2610	52.7560
 1.2620	52.7730
 1.2630	52.7910
 1.2640	52.8040
 1.2650	52.8130
 1.2660	52.8210
 1.2670	52.8260
 1.2680	52.8300
 1.2690	52.8370
 1.2700	52.8400
 1.2710	52.8360
 1.2720	52.8320
 1.2730	52.8260
 1.2740	52.8170
 1.2750	52.8100
 1.2760	52.7990
 1.2770	52.7820
 1.2780	52.7630
 1.2790	52.7390
 1.2800	52.7160
 1.2810	52.6930
 1.2820	52.6650
 1.2830	52.6340
 1.2840	52.6010
 1.2850	52.5640
 1.2860	52.5250
 1.2870	52.4840
 1.2880	52.4430
 1.2890	52.3950
 1.2900	52.3440
 1.2910	52.2890
 1.2920	52.2290
 1.2930	52.1630
 1.2940	52.0940
 1.2950	52.0230
 1.2960	51.9470
 1.2970	51.8650
 1.2980	51.7790
 1.2990	51.6880
 1.3000	51.5910
 1.3010	51.4930
 1.3020	51.3890
 1.3030	51.2800
 1.3040	51.1710
 1.3050	51.0530
 1.3060	50.9260
 1.3070	50.7960
 1.3080	50.6590
 1.3090	50.5190
 1.3100	50.3770
 1.3110	50.2250
 1.3120	50.0680
 1.3130	49.9070
 1.3140	49.7420
 1.3150	49.5740
 1.3160	49.3970
 1.3170	49.2160
 1.3180	49.0260
 1.3190	48.8280
 1.3200	48.6270
 1.3210	48.4210
 1.3220	48.2120
 1.3230	48.0000
 1.3240	47.7780
 1.3250	47.5550
 1.3260	47.3280
 1.3270	47.0970
 1.3280	46.8650
 1.3290	46.6270
 1.3300	46.3900
 1.3310	46.1500
 1.3320	45.9070
 1.3330	45.6680
 1.3340	45.4270
 1.3350	45.1820
 1.3360	44.9410
 1.3370	44.6980
 1.3380	44.4560
 1.3390	44.2190
 1.3400	43.9790
 1.3410	43.7430
 1.3420	43.5110
 1.3430	43.2800
 1.3440	43.0550
 1.3450	42.8330
 1.3460	42.6130
 1.3470	42.3990
 1.3480	42.1880
 1.3490	41.9800
 1.3500	41.7760
 1.3510	41.5750
 1.3520	41.3750
 1.3530	41.1780
 1.3540	40.9810
 1.3550	40.7860
 1.3560	40.5910
 1.3570	40.3930
 1.3580	40.1960
 1.3590	39.9960
 1.3600	39.7910
 1.3610	39.5830
 1.3620	39.3670
 1.3630	39.1440
 1.3640	38.9170
 1.3650	38.6790
 1.3660	38.4330
 1.3670	38.1780
 1.3680	37.9080
 1.3690	37.6270
 1.3700	37.3320
 1.3710	37.0230
 1.3720	36.7000
 1.3730	36.3590
 1.3740	36.0040
 1.3750	35.6270
 1.3760	35.2280
 1.3770	34.8090
 1.3780	34.3650
 1.3790	33.9000
 1.3800	33.4140
 1.3810	32.9030
 1.3820	32.3780
 1.3830	31.8350
 1.3840	31.2780
 1.3850	30.7020
 1.3860	30.1190
 1.3870	29.5160
 1.3880	28.9170
 1.3890	28.3100
 1.3900	27.7010
 1.3910	27.1020
 1.3920	26.5040
 1.3930	25.9100
 1.3940	25.3240
 1.3950	24.7410
 1.3960	24.1700
 1.3970	23.6160
 1.3980	23.0770
 1.3990	22.5620
 1.4000	22.0630
 1.4010	21.5800
 1.4020	21.1190
 1.4030	20.6750
 1.4040	20.2550
 1.4050	19.8580
 1.4060	19.4810
 1.4070	19.1270
 1.4080	18.7940
 1.4090	18.4790
 1.4100	18.1890
 1.4110	17.9150
 1.4120	17.6600
 1.4130	17.4230
 1.4140	17.2020
 1.4150	17.0010
 1.4160	16.8160
 1.4170	16.6450
 1.4180	16.4870
 1.4190	16.3390
 1.4200	16.2030
 1.4210	16.0790
 1.4220	15.9660
 1.4230	15.8640
 1.4240	15.7720
 1.4250	15.6870
 1.4260	15.6120
 1.4270	15.5420
 1.4280	15.4800
 1.4290	15.4250
 1.4300	15.3790
 1.4310	15.3370
 1.4320	15.3030
 1.4330	15.2720
 1.4340	15.2470
 1.4350	15.2260
 1.4360	15.2100
 1.4370	15.1970
 1.4380	15.1880
 1.4390	15.1830
 1.4400	15.1810
 1.4410	15.1820
 1.4420	15.1870
 1.4430	15.1940
 1.4440	15.2040
 1.4450	15.2160
 1.4460	15.2290
 1.4470	15.2450
 1.4480	15.2610
 1.4490	15.2790
 1.4500	15.2970
 1.4510	15.3170
 1.4520	15.3400
 1.4530	15.3630
 1.4540	15.3860
 1.4550	15.4120
 1.4560	15.4390
 1.4570	15.4690
 1.4580	15.5020
 1.4590	15.5390
 1.4600	15.5780
 1.4610	15.6200
 1.4620	15.6670
 1.4630	15.7170
 1.4640	15.7710
 1.4650	15.8290
 1.4660	15.8900
 1.4670	15.9550
 1.4680	16.0260
 1.4690	16.0990
 1.4700	16.1770
 1.4710	16.2600
 1.4720	16.3460
 1.4730	16.4360
 1.4740	16.5320
 1.4750	16.6280
 1.4760	16.7270
 1.4770	16.8280
 1.4780	16.9300
 1.4790	17.0360
 1.4800	17.1420
 1.4810	17.2500
 1.4820	17.3600
 1.4830	17.4710
 1.4840	17.5840
 1.4850	17.6990
 1.4860	17.8140
 1.4870	17.9310
 1.4880	18.0460
 1.4890	18.1630
 1.4900	18.2800
 1.4910	18.3980
 1.4920	18.5160
 1.4930	18.6360
 1.4940	18.7570
 1.4950	18.8780
 1.4960	19.0000
 1.4970	19.1210
 1.4980	19.2440
 1.4990	19.3650
 1.5000	19.4880
 1.5010	19.6130
 1.5020	19.7360
 1.5030	19.8580
 1.5040	19.9800
 1.5050	20.0990
 1.5060	20.2200
 1.5070	20.3430
 1.5080	20.4640
 1.5090	20.5840
 1.5100	20.7040
 1.5110	20.8220
 1.5120	20.9400
 1.5130	21.0570
 1.5140	21.1740
 1.5150	21.2910
 1.5160	21.4060
 1.5170	21.5210
 1.5180	21.6360
 1.5190	21.7490
 1.5200	21.8630
 1.5210	21.9770
 1.5220	22.0900
 1.5230	22.2030
 1.5240	22.3130
 1.5250	22.4220
 1.5260	22.5320
 1.5270	22.6400
 1.5280	22.7470
 1.5290	22.8530
 1.5300	22.9580
 1.5310	23.0630
 1.5320	23.1660
 1.5330	23.2690
 1.5340	23.3710
 1.5350	23.4730
 1.5360	23.5740
 1.5370	23.6740
 1.5380	23.7740
 1.5390	23.8730
 1.5400	23.9700
 1.5410	24.0670
 1.5420	24.1660
 1.5430	24.2610
 1.5440	24.3580
 1.5450	24.4540
 1.5460	24.5480
 1.5470	24.6430
 1.5480	24.7370
 1.5490	24.8320
 1.5500	24.9260
 1.5510	25.0180
 1.5520	25.1090
 1.5530	25.1970
 1.5540	25.2850
 1.5550	25.3720
 1.5560	25.4590
 1.5570	25.5480
 1.5580	25.6360
 1.5590	25.7230
 1.5600	25.8090
 1.5610	25.8940
 1.5620	25.9780
 1.5630	26.0610
 1.5640	26.1450
 1.5650	26.2270
 1.5660	26.3100
 1.5670	26.3930
 1.5680	26.4750
 1.5690	26.5570
 1.5700	26.6370
 1.5710	26.7140
 1.5720	26.7930
 1.5730	26.8720
 1.5740	26.9530
 1.5750	27.0350
 1.5760	27.1170
 1.5770	27.1960
 1.5780	27.2750
 1.5790	27.3540
 1.5800	27.4300
 1.5810	27.5060
 1.5820	27.5810
 1.5830	27.6570
 1.5840	27.7350
 1.5850	27.8130
 1.5860	27.8900
 1.5870	27.9670
 1.5880	28.0430
 1.5890	28.1200
 1.5900	28.1970
 1.5910	28.2720
 1.5920	28.3480
 1.5930	28.4210
 1.5940	28.4960
 1.5950	28.5730
 1.5960	28.6480
 1.5970	28.7240
 1.5980	28.7990
 1.5990	28.8730
 1.6000	28.9490
 1.6010	29.0220
 1.6020	29.0960
 1.6030	29.1700
 1.6040	29.2420
 1.6050	29.3150
 1.6060	29.3870
 1.6070	29.4580
 1.6080	29.5280
 1.6090	29.5960
 1.6100	29.6660
 1.6110	29.7350
 1.6120	29.8030
 1.6130	29.8710
 1.6140	29.9360
 1.6150	29.9990
 1.6160	30.0610
 1.6170	30.1180
 1.6180	30.1740
 1.6190	30.2310
 1.6200	30.2850
 1.6210	30.3390
 1.6220	30.3930
 1.6230	30.4440
 1.6240	30.4940
 1.6250	30.5450
 1.6260	30.5940
 1.6270	30.6410
 1.6280	30.6890
 1.6290	30.7370
 1.6300	30.7840
 1.6310	30.8310
 1.6320	30.8770
 1.6330	30.9230
 1.6340	30.9680
 1.6350	31.0140
 1.6360	31.0610
 1.6370	31.1050
 1.6380	31.1500
 1.6390	31.1900
 1.6400	31.2270
 1.6410	31.2630
 1.6420	31.2990
 1.6430	31.3290
 1.6440	31.3570
 1.6450	31.3820
 1.6460	31.4020
 1.6470	31.4230
 1.6480	31.4370
 1.6490	31.4470
 1.6500	31.4580
 1.6510	31.4620
 1.6520	31.4650
 1.6530	31.4680
 1.6540	31.4650
 1.6550	31.4600
 1.6560	31.4550
 1.6570	31.4470
 1.6580	31.4370
 1.6590	31.4260
 1.6600	31.4110
 1.6610	31.3960
 1.6620	31.3800
 1.6630	31.3620
 1.6640	31.3410
 1.6650	31.3200
 1.6660	31.2970
 1.6670	31.2770
 1.6680	31.2570
 1.6690	31.2370
 1.6700	31.2160
 1.6710	31.1930
 1.6720	31.1700
 1.6730	31.1450
 1.6740	31.1180
 1.6750	31.0880
 1.6760	31.0550
 1.6770	31.0220
 1.6780	30.9860
 1.6790	30.9460
 1.6800	30.9020
 1.6810	30.8520
 1.6820	30.7990
 1.6830	30.7430
 1.6840	30.6810
 1.6850	30.6170
 1.6860	30.5470
 1.6870	30.4730
 1.6880	30.3980
 1.6890	30.3170
 1.6900	30.2330
 1.6910	30.1450
 1.6920	30.0560
 1.6930	29.9630
 1.6940	29.8700
 1.6950	29.7780
 1.6960	29.6840
 1.6970	29.5860
 1.6980	29.4890
 1.6990	29.3930
 1.7000	29.2940
 1.7010	29.1950
 1.7020	29.0940
 1.7030	28.9910
 1.7040	28.8870
 1.7050	28.7800
 1.7060	28.6730
 1.7070	28.5620
 1.7080	28.4580
 1.7090	28.3560
 1.7100	28.2590
 1.7110	28.1690
 1.7120	28.0810
 1.7130	27.9960
 1.7140	27.9180
 1.7150	27.8440
 1.7160	27.7770
 1.7170	27.7160
 1.7180	27.6570
 1.7190	27.6010
 1.7200	27.5470
 1.7210	27.4960
 1.7220	27.4490
 1.7230	27.4070
 1.7240	27.3680
 1.7250	27.3310
 1.7260	27.3020
 1.7270	27.2740
 1.7280	27.2510
 1.7290	27.2340
 1.7300	27.2230
 1.7310	27.2110
 1.7320	27.2030
 1.7330	27.1920
 1.7340	27.1820
 1.7350	27.1700
 1.7360	27.1580
 1.7370	27.1390
 1.7380	27.1180
 1.7390	27.0900
 1.7400	27.0590
 1.7410	27.0190
 1.7420	26.9710
 1.7430	26.9190
 1.7440	26.8570
 1.7450	26.7960
 1.7460	26.7330
 1.7470	26.6640
 1.7480	26.5900
 1.7490	26.5190
 1.7500	26.4450
 1.7510	26.3750
 1.7520	26.3070
 1.7530	26.2410
 1.7540	26.1730
 1.7550	26.1160
 1.7560	26.0590
 1.7570	26.0040
 1.7580	25.9530
 1.7590	25.9020
 1.7600	25.8550
 1.7610	25.8160
 1.7620	25.7760
 1.7630	25.7360
 1.7640	25.6990
 1.7650	25.6620
 1.7660	25.6300
 1.7670	25.6040
 1.7680	25.5770
 1.7690	25.5510
 1.7700	25.5240
 1.7710	25.4960
 1.7720	25.4680
 1.7730	25.4410
 1.7740	25.4140
 1.7750	25.3850
 1.7760	25.3610
 1.7770	25.3380
 1.7780	25.3180
 1.7790	25.3020
 1.7800	25.2880
 1.7810	25.2740
 1.7820	25.2640
 1.7830	25.2580
 1.7840	25.2540
 1.7850	25.2530
 1.7860	25.2540
 1.7870	25.2580
 1.7880	25.2660
 1.7890	25.2730
 1.7900	25.2800
 1.7910	25.2880
 1.7920	25.2980
 1.7930	25.3060
 1.7940	25.3120
 1.7950	25.3220
 1.7960	25.3340
 1.7970	25.3440
 1.7980	25.3570
 1.7990	25.3690
 1.8000	25.3770
 1.8010	25.3880
 1.8020	25.3990
 1.8030	25.4130
 1.8040	25.4270
 1.8050	25.4430
 1.8060	25.4630
 1.8070	25.4780
 1.8080	25.4920
 1.8090	25.5040
 1.8100	25.5110
 1.8110	25.5230
 1.8120	25.5350
 1.8130	25.5470
 1.8140	25.5560
 1.8150	25.5610
 1.8160	25.5650
 1.8170	25.5690
 1.8180	25.5740
 1.8190	25.5780
 1.8200	25.5810
 1.8210	25.5830
 1.8220	25.5860
 1.8230	25.5900
 1.8240	25.5900
 1.8250	25.5880
 1.8260	25.5840
 1.8270	25.5770
 1.8280	25.5670
 1.8290	25.5530
 1.8300	25.5280
 1.8310	25.5060
 1.8320	25.4730
 1.8330	25.4500
 1.8340	25.4250
 1.8350	25.3990
 1.8360	25.3640
 1.8370	25.3240
 1.8380	25.2790
 1.8390	25.2290
 1.8400	25.1740
 1.8410	25.1150
 1.8420	25.0540
 1.8430	24.9860
 1.8440	24.9090
 1.8450	24.8240
 1.8460	24.7290
 1.8470	24.6250
 1.8480	24.5130
 1.8490	24.3910
 1.8500	24.2560
 1.8510	24.1100
 1.8520	23.9520
 1.8530	23.7810
 1.8540	23.6030
 1.8550	23.4190
 1.8560	23.2210
 1.8570	23.0100
 1.8580	22.7850
 1.8590	22.5460
 1.8600	22.2920
 1.8610	22.0270
 1.8620	21.7460
 1.8630	21.4540
 1.8640	21.1480
 1.8650	20.8250
 1.8660	20.4900
 1.8670	20.1350
 1.8680	19.7620
 1.8690	19.3770
 1.8700	18.9720
 1.8710	18.5490
 1.8720	18.1180
 1.8730	17.6770
 1.8740	17.2230
 1.8750	16.7650
 1.8760	16.2990
 1.8770	15.8300
 1.8780	15.3610
 1.8790	14.8920
 1.8800	14.4290
 1.8810	13.9700
 1.8820	13.5110
 1.8830	13.0530
 1.8840	12.6020
 1.8850	12.1510
 1.8860	11.7130
 1.8870	11.2860
 1.8880	10.8720
 1.8890	10.4800
 1.8900	10.1030
 1.8910	 9.7430
 1.8920	 9.3980
 1.8930	 9.0760
 1.8940	 8.7680
 1.8950	 8.4810
 1.8960	 8.2160
 1.8970	 7.9650
 1.8980	 7.7360
 1.8990	 7.5250
 1.9000	 7.3290
 1.9010	 7.1560
 1.9020	 6.9900
 1.9030	 6.8380
 1.9040	 6.7000
 1.9050	 6.5760
 1.9060	 6.4640
 1.9070	 6.3680
 1.9080	 6.2840
 1.9090	 6.2100
 1.9100	 6.1430
 1.9110	 6.0820
 1.9120	 6.0290
 1.9130	 5.9800
 1.9140	 5.9350
 1.9150	 5.8970
 1.9160	 5.8660
 1.9170	 5.8410
 1.9180	 5.8200
 1.9190	 5.7990
 1.9200	 5.7800
 1.9210	 5.7640
 1.9220	 5.7530
 1.9230	 5.7480
 1.9240	 5.7440
 1.9250	 5.7450
 1.9260	 5.7470
 1.9270	 5.7500
 1.9280	 5.7520
 1.9290	 5.7570
 1.9300	 5.7660
 1.9310	 5.7760
 1.9320	 5.7910
 1.9330	 5.8050
 1.9340	 5.8190
 1.9350	 5.8350
 1.9360	 5.8510
 1.9370	 5.8700
 1.9380	 5.8910
 1.9390	 5.9160
 1.9400	 5.9420
 1.9410	 5.9690
 1.9420	 5.9990
 1.9430	 6.0280
 1.9440	 6.0590
 1.9450	 6.0920
 1.9460	 6.1250
 1.9470	 6.1600
 1.9480	 6.1970
 1.9490	 6.2350
 1.9500	 6.2740
 1.9510	 6.3160
 1.9520	 6.3550
 1.9530	 6.3920
 1.9540	 6.4320
 1.9550	 6.4740
 1.9560	 6.5150
 1.9570	 6.5580
 1.9580	 6.6020
 1.9590	 6.6490
 1.9600	 6.6960
 1.9610	 6.7450
 1.9620	 6.7980
 1.9630	 6.8480
 1.9640	 6.9000
 1.9650	 6.9510
 1.9660	 7.0040
 1.9670	 7.0590
 1.9680	 7.1120
 1.9690	 7.1630
 1.9700	 7.2180
 1.9710	 7.2720
 1.9720	 7.3280
 1.9730	 7.3860
 1.9740	 7.4450
 1.9750	 7.5020
 1.9760	 7.5610
 1.9770	 7.6230
 1.9780	 7.6840
 1.9790	 7.7460
 1.9800	 7.8090
 1.9810	 7.8720
 1.9820	 7.9360
 1.9830	 8.0000
 1.9840	 8.0650
 1.9850	 8.1300
 1.9860	 8.1930
 1.9870	 8.2570
 1.9880	 8.3200
 1.9890	 8.3820
 1.9900	 8.4460
 1.9910	 8.5100
 1.9920	 8.5750
 1.9930	 8.6410
 1.9940	 8.7080
 1.9950	 8.7780
 1.9960	 8.8440
 1.9970	 8.9100
 1.9980	 8.9760
 1.9990	 9.0420
 2.0000	 9.1070
 2.0010	 9.1730
 2.0020	 9.2390
 2.0030	 9.3020
 2.0040	 9.3680
 2.0050	 9.4340
 2.0060	 9.5040
 2.0070	 9.5700
 2.0080	 9.6360
 2.0090	 9.7000
 2.0100	 9.7630
 2.0110	 9.8250
 2.0120	 9.8860
 2.0130	 9.9470
 2.0140	10.0090
 2.0150	10.0690
 2.0160	10.1280
 2.0170	10.1860
 2.0180	10.2420
 2.0190	10.2940
 2.0200	10.3500
 2.0210	10.4080
 2.0220	10.4640
 2.0230	10.5220
 2.0240	10.5770
 2.0250	10.6310
 2.0260	10.6830
 2.0270	10.7350
 2.0280	10.7850
 2.0290	10.8350
 2.0300	10.8780
 2.0310	10.9230
 2.0320	10.9670
 2.0330	11.0120
 2.0340	11.0580
 2.0350	11.1020
 2.0360	11.1440
 2.0370	11.1850
 2.0380	11.2250
 2.0390	11.2640
 2.0400	11.3040
 2.0410	11.3430
 2.0420	11.3830
 2.0430	11.4200
 2.0440	11.4570
 2.0450	11.4930
 2.0460	11.5280
 2.0470	11.5630
 2.0480	11.5950
 2.0490	11.6240
 2.0500	11.6560
 2.0510	11.6870
 2.0520	11.7190
 2.0530	11.7530
 2.0540	11.7860
 2.0550	11.8220
 2.0560	11.8530
 2.0570	11.8840
 2.0580	11.9160
 2.0590	11.9470
 2.0600	11.9760
 2.0610	12.0070
 2.0620	12.0370
 2.0630	12.0700
 2.0640	12.1060
 2.0650	12.1410
 2.0660	12.1780
 2.0670	12.2130
 2.0680	12.2430
 2.0690	12.2760
 2.0700	12.3100
 2.0710	12.3420
 2.0720	12.3730
 2.0730	12.4050
 2.0740	12.4360
 2.0750	12.4670
 2.0760	12.4990
 2.0770	12.5320
 2.0780	12.5650
 2.0790	12.6000
 2.0800	12.6320
 2.0810	12.6630
 2.0820	12.6940
 2.0830	12.7200
 2.0840	12.7490
 2.0850	12.7810
 2.0860	12.8120
 2.0870	12.8440
 2.0880	12.8790
 2.0890	12.9120
 2.0900	12.9460
 2.0910	12.9790
 2.0920	13.0130
 2.0930	13.0470
 2.0940	13.0840
 2.0950	13.1180
 2.0960	13.1510
 2.0970	13.1840
 2.0980	13.2150
 2.0990	13.2490
 2.1000	13.2830
 2.1010	13.3180
 2.1020	13.3530
 2.1030	13.3900
 2.1040	13.4290
 2.1050	13.4680
 2.1060	13.5060
 2.1070	13.5440
 2.1080	13.5810
 2.1090	13.6140
 2.1100	13.6520
 2.1110	13.6900
 2.1120	13.7270
 2.1130	13.7660
 2.1140	13.8030
 2.1150	13.8390
 2.1160	13.8750
 2.1170	13.9090
 2.1180	13.9450
 2.1190	13.9820
 2.1200	14.0170
 2.1210	14.0520
 2.1220	14.0870
 2.1230	14.1190
 2.1240	14.1490
 2.1250	14.1780
 2.1260	14.2030
 2.1270	14.2320
 2.1280	14.2590
 2.1290	14.2890
 2.1300	14.3250
 2.1310	14.3560
 2.1320	14.3870
 2.1330	14.4170
 2.1340	14.4450
 2.1350	14.4740
 2.1360	14.5050
 2.1370	14.5350
 2.1380	14.5670
 2.1390	14.5960
 2.1400	14.6230
 2.1410	14.6500
 2.1420	14.6770
 2.1430	14.7010
 2.1440	14.7310
 2.1450	14.7640
 2.1460	14.7930
 2.1470	14.8240
 2.1480	14.8520
 2.1490	14.8750
 2.1500	14.9020
 2.1510	14.9330
 2.1520	14.9590
 2.1530	14.9830
 2.1540	15.0090
 2.1550	15.0340
 2.1560	15.0600
 2.1570	15.0910
 2.1580	15.1180
 2.1590	15.1430
 2.1600	15.1680
 2.1610	15.1940
 2.1620	15.2160
 2.1630	15.2410
 2.1640	15.2660
 2.1650	15.2930
 2.1660	15.3210
 2.1670	15.3480
 2.1680	15.3760
 2.1690	15.4030
 2.1700	15.4260
 2.1710	15.4530
 2.1720	15.4830
 2.1730	15.5090
 2.1740	15.5360
 2.1750	15.5620
 2.1760	15.5840
 2.1770	15.6100
 2.1780	15.6420
 2.1790	15.6690
 2.1800	15.6970
 2.1810	15.7220
 2.1820	15.7470
 2.1830	15.7650
 2.1840	15.7840
 2.1850	15.8000
 2.1860	15.8190
 2.1870	15.8370
 2.1880	15.8570
 2.1890	15.8810
 2.1900	15.9020
 2.1910	15.9200
 2.1920	15.9430
 2.1930	15.9680
 2.1940	15.9920
 2.1950	16.0200
 2.1960	16.0430
 2.1970	16.0650
 2.1980	16.0850
 2.1990	16.1030
 2.2000	16.1190
 2.2010	16.1300
 2.2020	16.1430
 2.2030	16.1520
 2.2040	16.1630
 2.2050	16.1770
 2.2060	16.1880
 2.2070	16.1980
 2.2080	16.2070
 2.2090	16.2130
 2.2100	16.2150
 2.2110	16.2210
 2.2120	16.2270
 2.2130	16.2300
 2.2140	16.2350
 2.2150	16.2360
 2.2160	16.2360
 2.2170	16.2320
 2.2180	16.2240
 2.2190	16.2170
 2.2200	16.2090
 2.2210	16.1990
 2.2220	16.1900
 2.2230	16.1770
 2.2240	16.1590
 2.2250	16.1390
 2.2260	16.1200
 2.2270	16.0960
 2.2280	16.0680
 2.2290	16.0380
 2.2300	16.0060
 2.2310	15.9710
 2.2320	15.9340
 2.2330	15.8980
 2.2340	15.8540
 2.2350	15.8050
 2.2360	15.7570
 2.2370	15.7070
 2.2380	15.6560
 2.2390	15.6080
 2.2400	15.5530
 2.2410	15.4950
 2.2420	15.4330
 2.2430	15.3630
 2.2440	15.2970
 2.2450	15.2280
 2.2460	15.1600
 2.2470	15.0970
 2.2480	15.0290
 2.2490	14.9570
 2.2500	14.8850
 2.2510	14.8120
 2.2520	14.7350
 2.2530	14.6540
 2.2540	14.5730
 2.2550	14.4890
 2.2560	14.4040
 2.2570	14.3150
 2.2580	14.2300
 2.2590	14.1460
 2.2600	14.0600
 2.2610	13.9750
 2.2620	13.8940
 2.2630	13.8100
 2.2640	13.7280
 2.2650	13.6550
 2.2660	13.5830
 2.2670	13.5080
 2.2680	13.4320
 2.2690	13.3590
 2.2700	13.2810
 2.2710	13.2140
 2.2720	13.1550
 2.2730	13.0950
 2.2740	13.0400
 2.2750	12.9880
 2.2760	12.9380
 2.2770	12.8890
 2.2780	12.8440
 2.2790	12.7990
 2.2800	12.7520
 2.2810	12.7070
 2.2820	12.6660
 2.2830	12.6220
 2.2840	12.5800
 2.2850	12.5340
 2.2860	12.4870
 2.2870	12.4370
 2.2880	12.3820
 2.2890	12.3270
 2.2900	12.2690
 2.2910	12.2100
 2.2920	12.1500
 2.2930	12.0880
 2.2940	12.0220
 2.2950	11.9580
 2.2960	11.8930
 2.2970	11.8290
 2.2980	11.7640
 2.2990	11.7000
 2.3000	11.6420
 2.3010	11.5840
 2.3020	11.5270
 2.3030	11.4780
 2.3040	11.4320
 2.3050	11.3890
 2.3060	11.3610
 2.3070	11.3340
 2.3080	11.3040
 2.3090	11.2820
 2.3100	11.2650
 2.3110	11.2570
 2.3120	11.2500
 2.3130	11.2550
 2.3140	11.2560
 2.3150	11.2560
 2.3160	11.2620
 2.3170	11.2750
 2.3180	11.2830
 2.3190	11.2940
 2.3200	11.2950
 2.3210	11.2920
 2.3220	11.2830
 2.3230	11.2630
 2.3240	11.2450
 2.3250	11.2240
 2.3260	11.2000
 2.3270	11.1730
 2.3280	11.1440
 2.3290	11.1110
 2.3300	11.0790
 2.3310	11.0470
 2.3320	11.0120
 2.3330	10.9750
 2.3340	10.9370
 2.3350	10.8970
 2.3360	10.8580
 2.3370	10.8210
 2.3380	10.7830
 2.3390	10.7470
 2.3400	10.7060
 2.3410	10.6620
 2.3420	10.6180
 2.3430	10.5660
 2.3440	10.5260
 2.3450	10.4930
 2.3460	10.4630
 2.3470	10.4460
 2.3480	10.4210
 2.3490	10.3890
 2.3500	10.3640
 2.3510	10.3390
 2.3520	10.3170
 2.3530	10.3020
 2.3540	10.2920
 2.3550	10.2730
 2.3560	10.2580
 2.3570	10.2420
 2.3580	10.2230
 2.3590	10.2120
 2.3600	10.1910
 2.3610	10.1670
 2.3620	10.1520
 2.3630	10.1310
 2.3640	10.1100
 2.3650	10.0940
 2.3660	10.0660
 2.3670	10.0270
 2.3680	 9.9960
 2.3690	 9.9620
 2.3700	 9.9280
 2.3710	 9.9090
 2.3720	 9.8820
 2.3730	 9.8570
 2.3740	 9.8360
 2.3750	 9.7980
 2.3760	 9.7680
 2.3770	 9.7340
 2.3780	 9.6980
 2.3790	 9.6790
 2.3800	 9.6530
 2.3810	 9.6250
 2.3820	 9.5990
 2.3830	 9.5710
 2.3840	 9.5390
 2.3850	 9.5120
 2.3860	 9.4890
 2.3870	 9.4640
 2.3880	 9.4440
 2.3890	 9.4160
 2.3900	 9.3810
 2.3910	 9.3460
 2.3920	 9.3070
 2.3930	 9.2740
 2.3940	 9.2520
 2.3950	 9.2250
 2.3960	 9.1930
 2.3970	 9.1670
 2.3980	 9.1290
 2.3990	 9.0970
 2.4000	 9.0750
 2.4010	 9.0470
 2.4020	 9.0170
 2.4030	 8.9810
 2.4040	 8.9450
 2.4050	 8.9080
 2.4060	 8.8820
 2.4070	 8.8670
 2.4080	 8.8440
 2.4090	 8.8240
 2.4100	 8.7910
 2.4110	 8.7440
 2.4120	 8.6990
 2.4130	 8.6470
 2.4140	 8.6040
 2.4150	 8.5780
 2.4160	 8.5490
 2.4170	 8.5210
 2.4180	 8.4990
 2.4190	 8.4550
 2.4200	 8.4060
 2.4210	 8.3570
 2.4220	 8.3000
 2.4230	 8.2640
 2.4240	 8.2240
 2.4250	 8.1870
 2.4260	 8.1600
 2.4270	 8.1070
 2.4280	 8.0630
 2.4290	 8.0280
 2.4300	 7.9900
 2.4310	 7.9520
 2.4320	 7.9160
 2.4330	 7.8870
 2.4340	 7.8460
 2.4350	 7.8210
 2.4360	 7.8020
 2.4370	 7.7610
 2.4380	 7.7140
 2.4390	 7.6630
 2.4400	 7.6170
 2.4410	 7.5710
 2.4420	 7.5280
 2.4430	 7.4890
 2.4440	 7.4380
 2.4450	 7.3980
 2.4460	 7.3580
 2.4470	 7.3210
 2.4480	 7.2880
 2.4490	 7.2370
 2.4500	 7.1980
 2.4510	 7.1650
 2.4520	 7.1300
 2.4530	 7.1140
 2.4540	 7.0890
 2.4550	 7.0660
 2.4560	 7.0420
 2.4570	 7.0080
 2.4580	 6.9760
 2.4590	 6.9250
 2.4600	 6.8910
 2.4610	 6.8610
 2.4620	 6.8130
 2.4630	 6.7860
 2.4640	 6.7540
 2.4650	 6.7260
 2.4660	 6.6960
 2.4670	 6.6440
 2.4680	 6.6060
 2.4690	 6.5540
 2.4700	 6.5240
 2.4710	 6.5390
 2.4720	 6.5160
 2.4730	 6.4790
 2.4740	 6.4650
 2.4750	 6.4590
 2.4760	 6.4390
 2.4770	 6.4110
 2.4780	 6.3740
 2.4790	 6.3210
 2.4800	 6.2640
 2.4810	 6.1990
 2.4820	 6.1760
 2.4830	 6.1750
 2.4840	 6.2170
 2.4850	 6.2370
 2.4860	 6.2500
 2.4870	 6.2460
 2.4880	 6.1800
 2.4890	 6.1160
 2.4900	 6.0580
 2.4910	 6.0060
 2.4920	 6.0280
 2.4930	 6.1050
 2.4940	 6.1700
 2.4950	 6.1770
 2.4960	 6.0990
 2.4970	 6.0470
 2.4980	 6.0370
 2.4990	 6.0120
 2.5000	 6.0050
