Name: Cedrus deodara
Type: vegetation
Class: Tree
Genus: Cedrus
Species: deodara
Sample No.: JPL212
Owner: JPL
Wavelength Range: VSWIR
Origin: 34.12495; -118.11089; WGS84
Collection Date: 10/3/2016
Description: Samples were collected at the Huntington Garden in San Marino California as part of a JPL Subcontract studying HyTES imagery. Samples were taken to JPL and processed within 48 hours of collection. The same leaves were processed in the Nicolet and then measured using the ASD.
Measurement: Bidirectional reflectance
First Column: X
Second Column: Y
X Units: Wavelength (micrometer)
Y Units: Reflectance (percentage)
First X Value: 0.35
Last X Value: 2.5
Number of X Values: 2151
Additional Information: vegetation.tree.cedrus.deodara.vswir.jpl212.jpl.asd.ancillary.txt

 0.3500	 4.3000
 0.3510	 4.4080
 0.3520	 4.3820
 0.3530	 4.3470
 0.3540	 4.4240
 0.3550	 4.3980
 0.3560	 4.3790
 0.3570	 4.3920
 0.3580	 4.4100
 0.3590	 4.3460
 0.3600	 4.2990
 0.3610	 4.3000
 0.3620	 4.2560
 0.3630	 4.2990
 0.3640	 4.3310
 0.3650	 4.2680
 0.3660	 4.3070
 0.3670	 4.3310
 0.3680	 4.3060
 0.3690	 4.2590
 0.3700	 4.2180
 0.3710	 4.1960
 0.3720	 4.1990
 0.3730	 4.2220
 0.3740	 4.2390
 0.3750	 4.2740
 0.3760	 4.3420
 0.3770	 4.3640
 0.3780	 4.3280
 0.3790	 4.2670
 0.3800	 4.2470
 0.3810	 4.2390
 0.3820	 4.2400
 0.3830	 4.2530
 0.3840	 4.2920
 0.3850	 4.2900
 0.3860	 4.2510
 0.3870	 4.2130
 0.3880	 4.2490
 0.3890	 4.2850
 0.3900	 4.2870
 0.3910	 4.2650
 0.3920	 4.2570
 0.3930	 4.2590
 0.3940	 4.2660
 0.3950	 4.2910
 0.3960	 4.3150
 0.3970	 4.3350
 0.3980	 4.3490
 0.3990	 4.3390
 0.4000	 4.3210
 0.4010	 4.3150
 0.4020	 4.3310
 0.4030	 4.3750
 0.4040	 4.4130
 0.4050	 4.4190
 0.4060	 4.4280
 0.4070	 4.4340
 0.4080	 4.4450
 0.4090	 4.4680
 0.4100	 4.4990
 0.4110	 4.5340
 0.4120	 4.5620
 0.4130	 4.5610
 0.4140	 4.5760
 0.4150	 4.6090
 0.4160	 4.6460
 0.4170	 4.6700
 0.4180	 4.6820
 0.4190	 4.6940
 0.4200	 4.7300
 0.4210	 4.7530
 0.4220	 4.7750
 0.4230	 4.8050
 0.4240	 4.8210
 0.4250	 4.8430
 0.4260	 4.8700
 0.4270	 4.8910
 0.4280	 4.9040
 0.4290	 4.9170
 0.4300	 4.9350
 0.4310	 4.9620
 0.4320	 4.9700
 0.4330	 4.9740
 0.4340	 4.9880
 0.4350	 4.9910
 0.4360	 5.0010
 0.4370	 5.0180
 0.4380	 5.0290
 0.4390	 5.0460
 0.4400	 5.0650
 0.4410	 5.0830
 0.4420	 5.0980
 0.4430	 5.1080
 0.4440	 5.1140
 0.4450	 5.1200
 0.4460	 5.1300
 0.4470	 5.1370
 0.4480	 5.1440
 0.4490	 5.1660
 0.4500	 5.1760
 0.4510	 5.1820
 0.4520	 5.1950
 0.4530	 5.2000
 0.4540	 5.2090
 0.4550	 5.2200
 0.4560	 5.2210
 0.4570	 5.2330
 0.4580	 5.2420
 0.4590	 5.2420
 0.4600	 5.2420
 0.4610	 5.2470
 0.4620	 5.2530
 0.4630	 5.2540
 0.4640	 5.2600
 0.4650	 5.2650
 0.4660	 5.2670
 0.4670	 5.2690
 0.4680	 5.2650
 0.4690	 5.2640
 0.4700	 5.2700
 0.4710	 5.2800
 0.4720	 5.2780
 0.4730	 5.2720
 0.4740	 5.2760
 0.4750	 5.2830
 0.4760	 5.2890
 0.4770	 5.2930
 0.4780	 5.2940
 0.4790	 5.3000
 0.4800	 5.3050
 0.4810	 5.3020
 0.4820	 5.3060
 0.4830	 5.3100
 0.4840	 5.3140
 0.4850	 5.3170
 0.4860	 5.3160
 0.4870	 5.3200
 0.4880	 5.3320
 0.4890	 5.3420
 0.4900	 5.3480
 0.4910	 5.3540
 0.4920	 5.3680
 0.4930	 5.3760
 0.4940	 5.3860
 0.4950	 5.3980
 0.4960	 5.4100
 0.4970	 5.4270
 0.4980	 5.4480
 0.4990	 5.4710
 0.5000	 5.4910
 0.5010	 5.5160
 0.5020	 5.5450
 0.5030	 5.5730
 0.5040	 5.6040
 0.5050	 5.6390
 0.5060	 5.6810
 0.5070	 5.7280
 0.5080	 5.7760
 0.5090	 5.8250
 0.5100	 5.8800
 0.5110	 5.9410
 0.5120	 6.0120
 0.5130	 6.0900
 0.5140	 6.1660
 0.5150	 6.2510
 0.5160	 6.3450
 0.5170	 6.4450
 0.5180	 6.5410
 0.5190	 6.6420
 0.5200	 6.7490
 0.5210	 6.8570
 0.5220	 6.9700
 0.5230	 7.0810
 0.5240	 7.1860
 0.5250	 7.2910
 0.5260	 7.3910
 0.5270	 7.4840
 0.5280	 7.5710
 0.5290	 7.6470
 0.5300	 7.7180
 0.5310	 7.7850
 0.5320	 7.8480
 0.5330	 7.9040
 0.5340	 7.9530
 0.5350	 7.9960
 0.5360	 8.0280
 0.5370	 8.0580
 0.5380	 8.0880
 0.5390	 8.1160
 0.5400	 8.1390
 0.5410	 8.1580
 0.5420	 8.1740
 0.5430	 8.1880
 0.5440	 8.2070
 0.5450	 8.2270
 0.5460	 8.2410
 0.5470	 8.2560
 0.5480	 8.2680
 0.5490	 8.2750
 0.5500	 8.2840
 0.5510	 8.2890
 0.5520	 8.2900
 0.5530	 8.2850
 0.5540	 8.2740
 0.5550	 8.2550
 0.5560	 8.2280
 0.5570	 8.1990
 0.5580	 8.1620
 0.5590	 8.1200
 0.5600	 8.0760
 0.5610	 8.0260
 0.5620	 7.9720
 0.5630	 7.9160
 0.5640	 7.8570
 0.5650	 7.7930
 0.5660	 7.7230
 0.5670	 7.6490
 0.5680	 7.5720
 0.5690	 7.4970
 0.5700	 7.4250
 0.5710	 7.3530
 0.5720	 7.2860
 0.5730	 7.2220
 0.5740	 7.1630
 0.5750	 7.1100
 0.5760	 7.0650
 0.5770	 7.0230
 0.5780	 6.9810
 0.5790	 6.9410
 0.5800	 6.9050
 0.5810	 6.8710
 0.5820	 6.8350
 0.5830	 6.8000
 0.5840	 6.7710
 0.5850	 6.7460
 0.5860	 6.7220
 0.5870	 6.6950
 0.5880	 6.6680
 0.5890	 6.6440
 0.5900	 6.6220
 0.5910	 6.6080
 0.5920	 6.5990
 0.5930	 6.5890
 0.5940	 6.5790
 0.5950	 6.5680
 0.5960	 6.5570
 0.5970	 6.5480
 0.5980	 6.5390
 0.5990	 6.5300
 0.6000	 6.5190
 0.6010	 6.5030
 0.6020	 6.4890
 0.6030	 6.4780
 0.6040	 6.4600
 0.6050	 6.4420
 0.6060	 6.4220
 0.6070	 6.3970
 0.6080	 6.3720
 0.6090	 6.3460
 0.6100	 6.3150
 0.6110	 6.2800
 0.6120	 6.2540
 0.6130	 6.2320
 0.6140	 6.2090
 0.6150	 6.1870
 0.6160	 6.1650
 0.6170	 6.1440
 0.6180	 6.1220
 0.6190	 6.0990
 0.6200	 6.0810
 0.6210	 6.0680
 0.6220	 6.0570
 0.6230	 6.0440
 0.6240	 6.0340
 0.6250	 6.0300
 0.6260	 6.0220
 0.6270	 6.0170
 0.6280	 6.0140
 0.6290	 6.0120
 0.6300	 6.0080
 0.6310	 6.0040
 0.6320	 6.0010
 0.6330	 5.9960
 0.6340	 5.9900
 0.6350	 5.9800
 0.6360	 5.9660
 0.6370	 5.9510
 0.6380	 5.9310
 0.6390	 5.9080
 0.6400	 5.8850
 0.6410	 5.8630
 0.6420	 5.8380
 0.6430	 5.8120
 0.6440	 5.7890
 0.6450	 5.7660
 0.6460	 5.7450
 0.6470	 5.7270
 0.6480	 5.7110
 0.6490	 5.6950
 0.6500	 5.6810
 0.6510	 5.6740
 0.6520	 5.6670
 0.6530	 5.6620
 0.6540	 5.6590
 0.6550	 5.6580
 0.6560	 5.6530
 0.6570	 5.6450
 0.6580	 5.6370
 0.6590	 5.6310
 0.6600	 5.6230
 0.6610	 5.6130
 0.6620	 5.6050
 0.6630	 5.5990
 0.6640	 5.5970
 0.6650	 5.5960
 0.6660	 5.5970
 0.6670	 5.6010
 0.6680	 5.6080
 0.6690	 5.6200
 0.6700	 5.6320
 0.6710	 5.6480
 0.6720	 5.6690
 0.6730	 5.6920
 0.6740	 5.7170
 0.6750	 5.7450
 0.6760	 5.7770
 0.6770	 5.8130
 0.6780	 5.8500
 0.6790	 5.8900
 0.6800	 5.9330
 0.6810	 5.9770
 0.6820	 6.0240
 0.6830	 6.0710
 0.6840	 6.1180
 0.6850	 6.1650
 0.6860	 6.2150
 0.6870	 6.2670
 0.6880	 6.3220
 0.6890	 6.3880
 0.6900	 6.4720
 0.6910	 6.5780
 0.6920	 6.7100
 0.6930	 6.8730
 0.6940	 7.0730
 0.6950	 7.3120
 0.6960	 7.5910
 0.6970	 7.9090
 0.6980	 8.2640
 0.6990	 8.6560
 0.7000	 9.0820
 0.7010	 9.5380
 0.7020	10.0170
 0.7030	10.5210
 0.7040	11.0440
 0.7050	11.5840
 0.7060	12.1410
 0.7070	12.7140
 0.7080	13.3010
 0.7090	13.9050
 0.7100	14.5210
 0.7110	15.1550
 0.7120	15.8050
 0.7130	16.4660
 0.7140	17.1430
 0.7150	17.8330
 0.7160	18.5320
 0.7170	19.2470
 0.7180	19.9680
 0.7190	20.6950
 0.7200	21.4320
 0.7210	22.1690
 0.7220	22.9070
 0.7230	23.6430
 0.7240	24.3730
 0.7250	25.0930
 0.7260	25.8030
 0.7270	26.5020
 0.7280	27.1860
 0.7290	27.8510
 0.7300	28.4950
 0.7310	29.1190
 0.7320	29.7220
 0.7330	30.3030
 0.7340	30.8570
 0.7350	31.3870
 0.7360	31.8920
 0.7370	32.3720
 0.7380	32.8270
 0.7390	33.2550
 0.7400	33.6580
 0.7410	34.0360
 0.7420	34.3890
 0.7430	34.7170
 0.7440	35.0190
 0.7450	35.2980
 0.7460	35.5540
 0.7470	35.7880
 0.7480	36.0020
 0.7490	36.1980
 0.7500	36.3750
 0.7510	36.5400
 0.7520	36.6900
 0.7530	36.8230
 0.7540	36.9440
 0.7550	37.0550
 0.7560	37.1570
 0.7570	37.2490
 0.7580	37.3340
 0.7590	37.4120
 0.7600	37.4820
 0.7610	37.5450
 0.7620	37.6010
 0.7630	37.6520
 0.7640	37.7000
 0.7650	37.7430
 0.7660	37.7810
 0.7670	37.8130
 0.7680	37.8440
 0.7690	37.8730
 0.7700	37.9010
 0.7710	37.9270
 0.7720	37.9540
 0.7730	37.9790
 0.7740	38.0030
 0.7750	38.0260
 0.7760	38.0450
 0.7770	38.0670
 0.7780	38.0910
 0.7790	38.1140
 0.7800	38.1360
 0.7810	38.1580
 0.7820	38.1800
 0.7830	38.2020
 0.7840	38.2220
 0.7850	38.2400
 0.7860	38.2550
 0.7870	38.2750
 0.7880	38.2950
 0.7890	38.3150
 0.7900	38.3350
 0.7910	38.3510
 0.7920	38.3650
 0.7930	38.3780
 0.7940	38.3960
 0.7950	38.4110
 0.7960	38.4240
 0.7970	38.4360
 0.7980	38.4460
 0.7990	38.4560
 0.8000	38.4660
 0.8010	38.4740
 0.8020	38.4860
 0.8030	38.4970
 0.8040	38.5060
 0.8050	38.5140
 0.8060	38.5210
 0.8070	38.5270
 0.8080	38.5320
 0.8090	38.5340
 0.8100	38.5390
 0.8110	38.5460
 0.8120	38.5530
 0.8130	38.5580
 0.8140	38.5610
 0.8150	38.5640
 0.8160	38.5670
 0.8170	38.5710
 0.8180	38.5790
 0.8190	38.5870
 0.8200	38.5920
 0.8210	38.5980
 0.8220	38.6010
 0.8230	38.6010
 0.8240	38.6080
 0.8250	38.6120
 0.8260	38.6160
 0.8270	38.6210
 0.8280	38.6280
 0.8290	38.6330
 0.8300	38.6370
 0.8310	38.6400
 0.8320	38.6470
 0.8330	38.6530
 0.8340	38.6580
 0.8350	38.6690
 0.8360	38.6750
 0.8370	38.6830
 0.8380	38.6950
 0.8390	38.7080
 0.8400	38.7180
 0.8410	38.7290
 0.8420	38.7410
 0.8430	38.7540
 0.8440	38.7720
 0.8450	38.7890
 0.8460	38.8010
 0.8470	38.8150
 0.8480	38.8300
 0.8490	38.8460
 0.8500	38.8610
 0.8510	38.8770
 0.8520	38.8910
 0.8530	38.9050
 0.8540	38.9230
 0.8550	38.9420
 0.8560	38.9570
 0.8570	38.9730
 0.8580	38.9950
 0.8590	39.0130
 0.8600	39.0300
 0.8610	39.0480
 0.8620	39.0650
 0.8630	39.0830
 0.8640	39.1040
 0.8650	39.1280
 0.8660	39.1450
 0.8670	39.1610
 0.8680	39.1790
 0.8690	39.1970
 0.8700	39.2140
 0.8710	39.2320
 0.8720	39.2520
 0.8730	39.2730
 0.8740	39.2910
 0.8750	39.3100
 0.8760	39.3300
 0.8770	39.3480
 0.8780	39.3700
 0.8790	39.3910
 0.8800	39.4080
 0.8810	39.4280
 0.8820	39.4460
 0.8830	39.4630
 0.8840	39.4780
 0.8850	39.4980
 0.8860	39.5190
 0.8870	39.5360
 0.8880	39.5500
 0.8890	39.5710
 0.8900	39.5880
 0.8910	39.6030
 0.8920	39.6180
 0.8930	39.6320
 0.8940	39.6510
 0.8950	39.6720
 0.8960	39.6860
 0.8970	39.7020
 0.8980	39.7170
 0.8990	39.7310
 0.9000	39.7480
 0.9010	39.7580
 0.9020	39.7730
 0.9030	39.7920
 0.9040	39.8020
 0.9050	39.8140
 0.9060	39.8280
 0.9070	39.8420
 0.9080	39.8540
 0.9090	39.8620
 0.9100	39.8720
 0.9110	39.8850
 0.9120	39.9000
 0.9130	39.9080
 0.9140	39.9170
 0.9150	39.9360
 0.9160	39.9390
 0.9170	39.9390
 0.9180	39.9410
 0.9190	39.9460
 0.9200	39.9580
 0.9210	39.9630
 0.9220	39.9610
 0.9230	39.9610
 0.9240	39.9630
 0.9250	39.9600
 0.9260	39.9540
 0.9270	39.9520
 0.9280	39.9420
 0.9290	39.9310
 0.9300	39.9210
 0.9310	39.9100
 0.9320	39.8910
 0.9330	39.8760
 0.9340	39.8670
 0.9350	39.8500
 0.9360	39.8270
 0.9370	39.8060
 0.9380	39.7880
 0.9390	39.7600
 0.9400	39.7390
 0.9410	39.7130
 0.9420	39.6770
 0.9430	39.6450
 0.9440	39.6160
 0.9450	39.5810
 0.9460	39.5370
 0.9470	39.4920
 0.9480	39.4380
 0.9490	39.3770
 0.9500	39.3140
 0.9510	39.2580
 0.9520	39.2030
 0.9530	39.1380
 0.9540	39.0580
 0.9550	38.9940
 0.9560	38.9270
 0.9570	38.8660
 0.9580	38.8160
 0.9590	38.7580
 0.9600	38.7020
 0.9610	38.6550
 0.9620	38.6150
 0.9630	38.5780
 0.9640	38.5430
 0.9650	38.5160
 0.9660	38.5040
 0.9670	38.4800
 0.9680	38.4500
 0.9690	38.4270
 0.9700	38.4220
 0.9710	38.4040
 0.9720	38.3940
 0.9730	38.3900
 0.9740	38.3780
 0.9750	38.3690
 0.9760	38.3660
 0.9770	38.3660
 0.9780	38.3660
 0.9790	38.3710
 0.9800	38.3780
 0.9810	38.3870
 0.9820	38.3950
 0.9830	38.3930
 0.9840	38.3990
 0.9850	38.4150
 0.9860	38.4310
 0.9870	38.4440
 0.9880	38.4680
 0.9890	38.4910
 0.9900	38.5000
 0.9910	38.5160
 0.9920	38.5440
 0.9930	38.5730
 0.9940	38.5960
 0.9950	38.6260
 0.9960	38.6540
 0.9970	38.6790
 0.9980	38.7050
 0.9990	38.7360
 1.0000	38.7660
 1.0010	39.2190
 1.0020	39.2510
 1.0030	39.2860
 1.0040	39.3190
 1.0050	39.3550
 1.0060	39.3920
 1.0070	39.4260
 1.0080	39.4610
 1.0090	39.4970
 1.0100	39.5310
 1.0110	39.5660
 1.0120	39.6000
 1.0130	39.6320
 1.0140	39.6670
 1.0150	39.7020
 1.0160	39.7350
 1.0170	39.7730
 1.0180	39.8090
 1.0190	39.8450
 1.0200	39.8810
 1.0210	39.9170
 1.0220	39.9600
 1.0230	39.9950
 1.0240	40.0290
 1.0250	40.0630
 1.0260	40.0910
 1.0270	40.1220
 1.0280	40.1550
 1.0290	40.1890
 1.0300	40.2260
 1.0310	40.2600
 1.0320	40.2950
 1.0330	40.3300
 1.0340	40.3630
 1.0350	40.3940
 1.0360	40.4260
 1.0370	40.4560
 1.0380	40.4860
 1.0390	40.5150
 1.0400	40.5430
 1.0410	40.5730
 1.0420	40.6010
 1.0430	40.6260
 1.0440	40.6520
 1.0450	40.6770
 1.0460	40.7030
 1.0470	40.7300
 1.0480	40.7550
 1.0490	40.7790
 1.0500	40.8020
 1.0510	40.8260
 1.0520	40.8450
 1.0530	40.8680
 1.0540	40.8940
 1.0550	40.9150
 1.0560	40.9350
 1.0570	40.9540
 1.0580	40.9680
 1.0590	40.9840
 1.0600	41.0020
 1.0610	41.0210
 1.0620	41.0410
 1.0630	41.0580
 1.0640	41.0720
 1.0650	41.0870
 1.0660	41.1000
 1.0670	41.1130
 1.0680	41.1260
 1.0690	41.1410
 1.0700	41.1530
 1.0710	41.1630
 1.0720	41.1740
 1.0730	41.1860
 1.0740	41.1970
 1.0750	41.2080
 1.0760	41.2180
 1.0770	41.2270
 1.0780	41.2350
 1.0790	41.2440
 1.0800	41.2500
 1.0810	41.2530
 1.0820	41.2570
 1.0830	41.2620
 1.0840	41.2660
 1.0850	41.2730
 1.0860	41.2770
 1.0870	41.2790
 1.0880	41.2790
 1.0890	41.2780
 1.0900	41.2730
 1.0910	41.2710
 1.0920	41.2690
 1.0930	41.2680
 1.0940	41.2700
 1.0950	41.2690
 1.0960	41.2690
 1.0970	41.2670
 1.0980	41.2620
 1.0990	41.2570
 1.1000	41.2500
 1.1010	41.2430
 1.1020	41.2350
 1.1030	41.2270
 1.1040	41.2190
 1.1050	41.2090
 1.1060	41.2010
 1.1070	41.1930
 1.1080	41.1840
 1.1090	41.1750
 1.1100	41.1640
 1.1110	41.1530
 1.1120	41.1400
 1.1130	41.1270
 1.1140	41.1120
 1.1150	41.0950
 1.1160	41.0760
 1.1170	41.0560
 1.1180	41.0310
 1.1190	41.0030
 1.1200	40.9720
 1.1210	40.9390
 1.1220	40.9020
 1.1230	40.8620
 1.1240	40.8180
 1.1250	40.7650
 1.1260	40.7070
 1.1270	40.6410
 1.1280	40.5670
 1.1290	40.4870
 1.1300	40.4020
 1.1310	40.3060
 1.1320	40.2030
 1.1330	40.0910
 1.1340	39.9690
 1.1350	39.8390
 1.1360	39.7010
 1.1370	39.5530
 1.1380	39.3980
 1.1390	39.2370
 1.1400	39.0710
 1.1410	38.9030
 1.1420	38.7340
 1.1430	38.5620
 1.1440	38.3920
 1.1450	38.2200
 1.1460	38.0540
 1.1470	37.8850
 1.1480	37.7270
 1.1490	37.5710
 1.1500	37.4260
 1.1510	37.2870
 1.1520	37.1570
 1.1530	37.0330
 1.1540	36.9180
 1.1550	36.8130
 1.1560	36.7150
 1.1570	36.6240
 1.1580	36.5420
 1.1590	36.4660
 1.1600	36.3970
 1.1610	36.3360
 1.1620	36.2800
 1.1630	36.2310
 1.1640	36.1870
 1.1650	36.1440
 1.1660	36.1040
 1.1670	36.0680
 1.1680	36.0350
 1.1690	36.0030
 1.1700	35.9770
 1.1710	35.9510
 1.1720	35.9260
 1.1730	35.9020
 1.1740	35.8780
 1.1750	35.8560
 1.1760	35.8330
 1.1770	35.8090
 1.1780	35.7850
 1.1790	35.7580
 1.1800	35.7310
 1.1810	35.7050
 1.1820	35.6770
 1.1830	35.6520
 1.1840	35.6260
 1.1850	35.5990
 1.1860	35.5740
 1.1870	35.5490
 1.1880	35.5250
 1.1890	35.5030
 1.1900	35.4820
 1.1910	35.4610
 1.1920	35.4440
 1.1930	35.4310
 1.1940	35.4160
 1.1950	35.4030
 1.1960	35.3920
 1.1970	35.3800
 1.1980	35.3700
 1.1990	35.3660
 1.2000	35.3650
 1.2010	35.3660
 1.2020	35.3720
 1.2030	35.3770
 1.2040	35.3860
 1.2050	35.4000
 1.2060	35.4160
 1.2070	35.4350
 1.2080	35.4560
 1.2090	35.4760
 1.2100	35.5000
 1.2110	35.5260
 1.2120	35.5520
 1.2130	35.5830
 1.2140	35.6170
 1.2150	35.6520
 1.2160	35.6890
 1.2170	35.7300
 1.2180	35.7700
 1.2190	35.8120
 1.2200	35.8540
 1.2210	35.8990
 1.2220	35.9440
 1.2230	35.9900
 1.2240	36.0350
 1.2250	36.0800
 1.2260	36.1250
 1.2270	36.1700
 1.2280	36.2140
 1.2290	36.2570
 1.2300	36.2980
 1.2310	36.3370
 1.2320	36.3780
 1.2330	36.4170
 1.2340	36.4550
 1.2350	36.4920
 1.2360	36.5280
 1.2370	36.5620
 1.2380	36.5960
 1.2390	36.6290
 1.2400	36.6590
 1.2410	36.6900
 1.2420	36.7200
 1.2430	36.7490
 1.2440	36.7800
 1.2450	36.8070
 1.2460	36.8340
 1.2470	36.8610
 1.2480	36.8860
 1.2490	36.9100
 1.2500	36.9310
 1.2510	36.9540
 1.2520	36.9750
 1.2530	36.9950
 1.2540	37.0170
 1.2550	37.0360
 1.2560	37.0540
 1.2570	37.0710
 1.2580	37.0860
 1.2590	37.1010
 1.2600	37.1150
 1.2610	37.1270
 1.2620	37.1400
 1.2630	37.1500
 1.2640	37.1580
 1.2650	37.1650
 1.2660	37.1710
 1.2670	37.1750
 1.2680	37.1800
 1.2690	37.1830
 1.2700	37.1830
 1.2710	37.1830
 1.2720	37.1810
 1.2730	37.1780
 1.2740	37.1740
 1.2750	37.1680
 1.2760	37.1620
 1.2770	37.1520
 1.2780	37.1400
 1.2790	37.1290
 1.2800	37.1140
 1.2810	37.0980
 1.2820	37.0820
 1.2830	37.0600
 1.2840	37.0370
 1.2850	37.0130
 1.2860	36.9840
 1.2870	36.9530
 1.2880	36.9210
 1.2890	36.8880
 1.2900	36.8510
 1.2910	36.8150
 1.2920	36.7770
 1.2930	36.7340
 1.2940	36.6880
 1.2950	36.6400
 1.2960	36.5870
 1.2970	36.5350
 1.2980	36.4810
 1.2990	36.4210
 1.3000	36.3590
 1.3010	36.2950
 1.3020	36.2270
 1.3030	36.1570
 1.3040	36.0840
 1.3050	36.0080
 1.3060	35.9280
 1.3070	35.8440
 1.3080	35.7600
 1.3090	35.6710
 1.3100	35.5810
 1.3110	35.4880
 1.3120	35.3900
 1.3130	35.2890
 1.3140	35.1830
 1.3150	35.0710
 1.3160	34.9580
 1.3170	34.8440
 1.3180	34.7260
 1.3190	34.6040
 1.3200	34.4790
 1.3210	34.3490
 1.3220	34.2160
 1.3230	34.0810
 1.3240	33.9450
 1.3250	33.8070
 1.3260	33.6660
 1.3270	33.5240
 1.3280	33.3780
 1.3290	33.2290
 1.3300	33.0790
 1.3310	32.9280
 1.3320	32.7760
 1.3330	32.6250
 1.3340	32.4720
 1.3350	32.3200
 1.3360	32.1670
 1.3370	32.0150
 1.3380	31.8630
 1.3390	31.7120
 1.3400	31.5620
 1.3410	31.4140
 1.3420	31.2680
 1.3430	31.1250
 1.3440	30.9850
 1.3450	30.8460
 1.3460	30.7090
 1.3470	30.5740
 1.3480	30.4390
 1.3490	30.3080
 1.3500	30.1790
 1.3510	30.0530
 1.3520	29.9290
 1.3530	29.8060
 1.3540	29.6820
 1.3550	29.5580
 1.3560	29.4340
 1.3570	29.3090
 1.3580	29.1850
 1.3590	29.0580
 1.3600	28.9280
 1.3610	28.7960
 1.3620	28.6590
 1.3630	28.5160
 1.3640	28.3710
 1.3650	28.2190
 1.3660	28.0610
 1.3670	27.8960
 1.3680	27.7210
 1.3690	27.5370
 1.3700	27.3400
 1.3710	27.1330
 1.3720	26.9150
 1.3730	26.6810
 1.3740	26.4370
 1.3750	26.1770
 1.3760	25.8970
 1.3770	25.6000
 1.3780	25.2820
 1.3790	24.9480
 1.3800	24.5960
 1.3810	24.2250
 1.3820	23.8410
 1.3830	23.4430
 1.3840	23.0310
 1.3850	22.6050
 1.3860	22.1730
 1.3870	21.7240
 1.3880	21.2780
 1.3890	20.8260
 1.3900	20.3710
 1.3910	19.9190
 1.3920	19.4700
 1.3930	19.0230
 1.3940	18.5840
 1.3950	18.1480
 1.3960	17.7220
 1.3970	17.3080
 1.3980	16.9050
 1.3990	16.5210
 1.4000	16.1510
 1.4010	15.7940
 1.4020	15.4550
 1.4030	15.1290
 1.4040	14.8190
 1.4050	14.5270
 1.4060	14.2510
 1.4070	13.9930
 1.4080	13.7490
 1.4090	13.5170
 1.4100	13.3010
 1.4110	13.0980
 1.4120	12.9080
 1.4130	12.7310
 1.4140	12.5650
 1.4150	12.4130
 1.4160	12.2710
 1.4170	12.1380
 1.4180	12.0150
 1.4190	11.8990
 1.4200	11.7900
 1.4210	11.6900
 1.4220	11.5960
 1.4230	11.5090
 1.4240	11.4280
 1.4250	11.3530
 1.4260	11.2850
 1.4270	11.2200
 1.4280	11.1620
 1.4290	11.1070
 1.4300	11.0560
 1.4310	11.0090
 1.4320	10.9670
 1.4330	10.9270
 1.4340	10.8910
 1.4350	10.8590
 1.4360	10.8290
 1.4370	10.8030
 1.4380	10.7800
 1.4390	10.7600
 1.4400	10.7420
 1.4410	10.7270
 1.4420	10.7150
 1.4430	10.7030
 1.4440	10.6940
 1.4450	10.6870
 1.4460	10.6800
 1.4470	10.6760
 1.4480	10.6730
 1.4490	10.6720
 1.4500	10.6730
 1.4510	10.6740
 1.4520	10.6760
 1.4530	10.6800
 1.4540	10.6850
 1.4550	10.6930
 1.4560	10.7020
 1.4570	10.7130
 1.4580	10.7250
 1.4590	10.7380
 1.4600	10.7550
 1.4610	10.7740
 1.4620	10.7950
 1.4630	10.8200
 1.4640	10.8480
 1.4650	10.8780
 1.4660	10.9120
 1.4670	10.9470
 1.4680	10.9850
 1.4690	11.0260
 1.4700	11.0680
 1.4710	11.1140
 1.4720	11.1620
 1.4730	11.2120
 1.4740	11.2650
 1.4750	11.3210
 1.4760	11.3790
 1.4770	11.4390
 1.4780	11.4990
 1.4790	11.5610
 1.4800	11.6250
 1.4810	11.6890
 1.4820	11.7570
 1.4830	11.8250
 1.4840	11.8930
 1.4850	11.9640
 1.4860	12.0350
 1.4870	12.1080
 1.4880	12.1810
 1.4890	12.2550
 1.4900	12.3310
 1.4910	12.4060
 1.4920	12.4830
 1.4930	12.5620
 1.4940	12.6410
 1.4950	12.7210
 1.4960	12.8010
 1.4970	12.8810
 1.4980	12.9610
 1.4990	13.0420
 1.5000	13.1240
 1.5010	13.2060
 1.5020	13.2880
 1.5030	13.3700
 1.5040	13.4520
 1.5050	13.5350
 1.5060	13.6190
 1.5070	13.7040
 1.5080	13.7880
 1.5090	13.8720
 1.5100	13.9560
 1.5110	14.0400
 1.5120	14.1240
 1.5130	14.2080
 1.5140	14.2930
 1.5150	14.3770
 1.5160	14.4610
 1.5170	14.5450
 1.5180	14.6270
 1.5190	14.7110
 1.5200	14.7950
 1.5210	14.8770
 1.5220	14.9600
 1.5230	15.0440
 1.5240	15.1270
 1.5250	15.2100
 1.5260	15.2930
 1.5270	15.3740
 1.5280	15.4560
 1.5290	15.5370
 1.5300	15.6180
 1.5310	15.6990
 1.5320	15.7800
 1.5330	15.8610
 1.5340	15.9420
 1.5350	16.0210
 1.5360	16.1010
 1.5370	16.1790
 1.5380	16.2560
 1.5390	16.3340
 1.5400	16.4120
 1.5410	16.4910
 1.5420	16.5690
 1.5430	16.6460
 1.5440	16.7230
 1.5450	16.7980
 1.5460	16.8730
 1.5470	16.9490
 1.5480	17.0250
 1.5490	17.0990
 1.5500	17.1730
 1.5510	17.2470
 1.5520	17.3200
 1.5530	17.3920
 1.5540	17.4640
 1.5550	17.5350
 1.5560	17.6060
 1.5570	17.6780
 1.5580	17.7470
 1.5590	17.8160
 1.5600	17.8850
 1.5610	17.9510
 1.5620	18.0180
 1.5630	18.0850
 1.5640	18.1510
 1.5650	18.2190
 1.5660	18.2870
 1.5670	18.3540
 1.5680	18.4200
 1.5690	18.4830
 1.5700	18.5450
 1.5710	18.6090
 1.5720	18.6720
 1.5730	18.7350
 1.5740	18.7970
 1.5750	18.8580
 1.5760	18.9180
 1.5770	18.9780
 1.5780	19.0380
 1.5790	19.0990
 1.5800	19.1570
 1.5810	19.2180
 1.5820	19.2780
 1.5830	19.3360
 1.5840	19.3960
 1.5850	19.4540
 1.5860	19.5120
 1.5870	19.5700
 1.5880	19.6270
 1.5890	19.6840
 1.5900	19.7410
 1.5910	19.7970
 1.5920	19.8530
 1.5930	19.9100
 1.5940	19.9650
 1.5950	20.0220
 1.5960	20.0780
 1.5970	20.1340
 1.5980	20.1900
 1.5990	20.2450
 1.6000	20.3010
 1.6010	20.3560
 1.6020	20.4110
 1.6030	20.4650
 1.6040	20.5190
 1.6050	20.5720
 1.6060	20.6230
 1.6070	20.6750
 1.6080	20.7270
 1.6090	20.7770
 1.6100	20.8280
 1.6110	20.8770
 1.6120	20.9260
 1.6130	20.9750
 1.6140	21.0230
 1.6150	21.0690
 1.6160	21.1150
 1.6170	21.1600
 1.6180	21.2040
 1.6190	21.2480
 1.6200	21.2900
 1.6210	21.3330
 1.6220	21.3750
 1.6230	21.4150
 1.6240	21.4570
 1.6250	21.4960
 1.6260	21.5330
 1.6270	21.5710
 1.6280	21.6110
 1.6290	21.6490
 1.6300	21.6860
 1.6310	21.7230
 1.6320	21.7570
 1.6330	21.7910
 1.6340	21.8250
 1.6350	21.8580
 1.6360	21.8890
 1.6370	21.9200
 1.6380	21.9500
 1.6390	21.9790
 1.6400	22.0050
 1.6410	22.0310
 1.6420	22.0550
 1.6430	22.0780
 1.6440	22.1010
 1.6450	22.1220
 1.6460	22.1420
 1.6470	22.1590
 1.6480	22.1750
 1.6490	22.1890
 1.6500	22.2000
 1.6510	22.2100
 1.6520	22.2190
 1.6530	22.2270
 1.6540	22.2340
 1.6550	22.2410
 1.6560	22.2470
 1.6570	22.2500
 1.6580	22.2520
 1.6590	22.2540
 1.6600	22.2540
 1.6610	22.2530
 1.6620	22.2530
 1.6630	22.2510
 1.6640	22.2510
 1.6650	22.2510
 1.6660	22.2510
 1.6670	22.2510
 1.6680	22.2490
 1.6690	22.2460
 1.6700	22.2430
 1.6710	22.2390
 1.6720	22.2350
 1.6730	22.2290
 1.6740	22.2230
 1.6750	22.2140
 1.6760	22.2060
 1.6770	22.1990
 1.6780	22.1890
 1.6790	22.1780
 1.6800	22.1650
 1.6810	22.1470
 1.6820	22.1280
 1.6830	22.1070
 1.6840	22.0830
 1.6850	22.0570
 1.6860	22.0300
 1.6870	21.9980
 1.6880	21.9650
 1.6890	21.9320
 1.6900	21.8960
 1.6910	21.8600
 1.6920	21.8220
 1.6930	21.7800
 1.6940	21.7390
 1.6950	21.6980
 1.6960	21.6560
 1.6970	21.6150
 1.6980	21.5720
 1.6990	21.5280
 1.7000	21.4830
 1.7010	21.4360
 1.7020	21.3870
 1.7030	21.3380
 1.7040	21.2860
 1.7050	21.2310
 1.7060	21.1780
 1.7070	21.1250
 1.7080	21.0710
 1.7090	21.0160
 1.7100	20.9630
 1.7110	20.9100
 1.7120	20.8600
 1.7130	20.8120
 1.7140	20.7650
 1.7150	20.7180
 1.7160	20.6750
 1.7170	20.6340
 1.7180	20.5930
 1.7190	20.5540
 1.7200	20.5140
 1.7210	20.4730
 1.7220	20.4340
 1.7230	20.3950
 1.7240	20.3570
 1.7250	20.3190
 1.7260	20.2820
 1.7270	20.2450
 1.7280	20.2110
 1.7290	20.1800
 1.7300	20.1530
 1.7310	20.1270
 1.7320	20.1010
 1.7330	20.0780
 1.7340	20.0570
 1.7350	20.0350
 1.7360	20.0180
 1.7370	19.9960
 1.7380	19.9730
 1.7390	19.9460
 1.7400	19.9160
 1.7410	19.8840
 1.7420	19.8480
 1.7430	19.8120
 1.7440	19.7720
 1.7450	19.7310
 1.7460	19.6870
 1.7470	19.6430
 1.7480	19.5970
 1.7490	19.5520
 1.7500	19.5060
 1.7510	19.4590
 1.7520	19.4100
 1.7530	19.3630
 1.7540	19.3170
 1.7550	19.2700
 1.7560	19.2250
 1.7570	19.1790
 1.7580	19.1350
 1.7590	19.0950
 1.7600	19.0550
 1.7610	19.0150
 1.7620	18.9770
 1.7630	18.9410
 1.7640	18.9060
 1.7650	18.8750
 1.7660	18.8440
 1.7670	18.8150
 1.7680	18.7870
 1.7690	18.7600
 1.7700	18.7340
 1.7710	18.7070
 1.7720	18.6810
 1.7730	18.6560
 1.7740	18.6320
 1.7750	18.6080
 1.7760	18.5870
 1.7770	18.5670
 1.7780	18.5490
 1.7790	18.5350
 1.7800	18.5220
 1.7810	18.5110
 1.7820	18.5020
 1.7830	18.4960
 1.7840	18.4900
 1.7850	18.4870
 1.7860	18.4840
 1.7870	18.4820
 1.7880	18.4820
 1.7890	18.4850
 1.7900	18.4890
 1.7910	18.4940
 1.7920	18.5000
 1.7930	18.5060
 1.7940	18.5120
 1.7950	18.5190
 1.7960	18.5270
 1.7970	18.5350
 1.7980	18.5430
 1.7990	18.5530
 1.8000	18.5640
 1.8010	18.5740
 1.8020	18.5860
 1.8030	18.5970
 1.8040	18.6070
 1.8050	18.6150
 1.8060	18.6220
 1.8070	18.6310
 1.8080	18.6380
 1.8090	18.6470
 1.8100	18.6590
 1.8110	18.6680
 1.8120	18.6750
 1.8130	18.6820
 1.8140	18.6880
 1.8150	18.6930
 1.8160	18.6970
 1.8170	18.6990
 1.8180	18.7010
 1.8190	18.7070
 1.8200	18.7100
 1.8210	18.7130
 1.8220	18.7150
 1.8230	18.7170
 1.8240	18.7170
 1.8250	18.7180
 1.8260	18.7150
 1.8270	18.7090
 1.8280	18.7020
 1.8290	18.6900
 1.8300	18.6800
 1.8310	18.4950
 1.8320	18.4790
 1.8330	18.4630
 1.8340	18.4440
 1.8350	18.4190
 1.8360	18.3910
 1.8370	18.3630
 1.8380	18.3310
 1.8390	18.2950
 1.8400	18.2550
 1.8410	18.2110
 1.8420	18.1630
 1.8430	18.1120
 1.8440	18.0520
 1.8450	17.9900
 1.8460	17.9230
 1.8470	17.8470
 1.8480	17.7660
 1.8490	17.6770
 1.8500	17.5800
 1.8510	17.4750
 1.8520	17.3630
 1.8530	17.2420
 1.8540	17.1140
 1.8550	16.9810
 1.8560	16.8340
 1.8570	16.6790
 1.8580	16.5190
 1.8590	16.3470
 1.8600	16.1630
 1.8610	15.9730
 1.8620	15.7750
 1.8630	15.5620
 1.8640	15.3450
 1.8650	15.1150
 1.8660	14.8730
 1.8670	14.6230
 1.8680	14.3600
 1.8690	14.0890
 1.8700	13.8070
 1.8710	13.5150
 1.8720	13.2170
 1.8730	12.9130
 1.8740	12.6020
 1.8750	12.2920
 1.8760	11.9790
 1.8770	11.6630
 1.8780	11.3510
 1.8790	11.0390
 1.8800	10.7330
 1.8810	10.4290
 1.8820	10.1300
 1.8830	 9.8350
 1.8840	 9.5470
 1.8850	 9.2640
 1.8860	 8.9880
 1.8870	 8.7250
 1.8880	 8.4660
 1.8890	 8.2200
 1.8900	 7.9890
 1.8910	 7.7660
 1.8920	 7.5510
 1.8930	 7.3500
 1.8940	 7.1630
 1.8950	 6.9870
 1.8960	 6.8250
 1.8970	 6.6760
 1.8980	 6.5380
 1.8990	 6.4120
 1.9000	 6.2970
 1.9010	 6.1970
 1.9020	 6.1020
 1.9030	 6.0150
 1.9040	 5.9360
 1.9050	 5.8650
 1.9060	 5.8030
 1.9070	 5.7490
 1.9080	 5.7030
 1.9090	 5.6610
 1.9100	 5.6190
 1.9110	 5.5810
 1.9120	 5.5470
 1.9130	 5.5150
 1.9140	 5.4850
 1.9150	 5.4600
 1.9160	 5.4380
 1.9170	 5.4200
 1.9180	 5.4060
 1.9190	 5.3950
 1.9200	 5.3830
 1.9210	 5.3730
 1.9220	 5.3630
 1.9230	 5.3510
 1.9240	 5.3420
 1.9250	 5.3370
 1.9260	 5.3310
 1.9270	 5.3310
 1.9280	 5.3310
 1.9290	 5.3320
 1.9300	 5.3330
 1.9310	 5.3310
 1.9320	 5.3310
 1.9330	 5.3340
 1.9340	 5.3370
 1.9350	 5.3420
 1.9360	 5.3500
 1.9370	 5.3560
 1.9380	 5.3630
 1.9390	 5.3700
 1.9400	 5.3790
 1.9410	 5.3890
 1.9420	 5.3970
 1.9430	 5.4050
 1.9440	 5.4150
 1.9450	 5.4250
 1.9460	 5.4380
 1.9470	 5.4560
 1.9480	 5.4710
 1.9490	 5.4850
 1.9500	 5.5010
 1.9510	 5.5170
 1.9520	 5.5330
 1.9530	 5.5530
 1.9540	 5.5720
 1.9550	 5.5890
 1.9560	 5.6040
 1.9570	 5.6210
 1.9580	 5.6350
 1.9590	 5.6540
 1.9600	 5.6760
 1.9610	 5.6970
 1.9620	 5.7200
 1.9630	 5.7420
 1.9640	 5.7610
 1.9650	 5.7820
 1.9660	 5.8030
 1.9670	 5.8250
 1.9680	 5.8490
 1.9690	 5.8760
 1.9700	 5.9010
 1.9710	 5.9270
 1.9720	 5.9520
 1.9730	 5.9760
 1.9740	 6.0000
 1.9750	 6.0250
 1.9760	 6.0520
 1.9770	 6.0790
 1.9780	 6.1080
 1.9790	 6.1370
 1.9800	 6.1670
 1.9810	 6.1950
 1.9820	 6.2240
 1.9830	 6.2550
 1.9840	 6.2850
 1.9850	 6.3160
 1.9860	 6.3480
 1.9870	 6.3780
 1.9880	 6.4060
 1.9890	 6.4370
 1.9900	 6.4690
 1.9910	 6.5010
 1.9920	 6.5330
 1.9930	 6.5670
 1.9940	 6.5990
 1.9950	 6.6280
 1.9960	 6.6610
 1.9970	 6.6940
 1.9980	 6.7260
 1.9990	 6.7600
 2.0000	 6.7940
 2.0010	 6.8240
 2.0020	 6.8580
 2.0030	 6.8940
 2.0040	 6.9300
 2.0050	 6.9650
 2.0060	 7.0020
 2.0070	 7.0370
 2.0080	 7.0720
 2.0090	 7.1060
 2.0100	 7.1390
 2.0110	 7.1740
 2.0120	 7.2090
 2.0130	 7.2420
 2.0140	 7.2750
 2.0150	 7.3080
 2.0160	 7.3430
 2.0170	 7.3780
 2.0180	 7.4120
 2.0190	 7.4480
 2.0200	 7.4810
 2.0210	 7.5120
 2.0220	 7.5440
 2.0230	 7.5770
 2.0240	 7.6100
 2.0250	 7.6440
 2.0260	 7.6760
 2.0270	 7.7080
 2.0280	 7.7410
 2.0290	 7.7730
 2.0300	 7.8060
 2.0310	 7.8380
 2.0320	 7.8720
 2.0330	 7.9050
 2.0340	 7.9350
 2.0350	 7.9670
 2.0360	 7.9990
 2.0370	 8.0290
 2.0380	 8.0580
 2.0390	 8.0870
 2.0400	 8.1160
 2.0410	 8.1440
 2.0420	 8.1730
 2.0430	 8.1990
 2.0440	 8.2260
 2.0450	 8.2520
 2.0460	 8.2780
 2.0470	 8.3040
 2.0480	 8.3300
 2.0490	 8.3540
 2.0500	 8.3800
 2.0510	 8.4040
 2.0520	 8.4310
 2.0530	 8.4590
 2.0540	 8.4860
 2.0550	 8.5140
 2.0560	 8.5420
 2.0570	 8.5690
 2.0580	 8.5930
 2.0590	 8.6190
 2.0600	 8.6430
 2.0610	 8.6690
 2.0620	 8.6950
 2.0630	 8.7220
 2.0640	 8.7490
 2.0650	 8.7770
 2.0660	 8.8060
 2.0670	 8.8330
 2.0680	 8.8590
 2.0690	 8.8850
 2.0700	 8.9100
 2.0710	 8.9360
 2.0720	 8.9650
 2.0730	 8.9940
 2.0740	 9.0210
 2.0750	 9.0480
 2.0760	 9.0740
 2.0770	 9.0970
 2.0780	 9.1230
 2.0790	 9.1490
 2.0800	 9.1750
 2.0810	 9.2000
 2.0820	 9.2270
 2.0830	 9.2560
 2.0840	 9.2830
 2.0850	 9.3140
 2.0860	 9.3410
 2.0870	 9.3670
 2.0880	 9.3910
 2.0890	 9.4180
 2.0900	 9.4480
 2.0910	 9.4740
 2.0920	 9.5020
 2.0930	 9.5280
 2.0940	 9.5500
 2.0950	 9.5730
 2.0960	 9.5980
 2.0970	 9.6230
 2.0980	 9.6470
 2.0990	 9.6750
 2.1000	 9.7080
 2.1010	 9.7350
 2.1020	 9.7600
 2.1030	 9.7860
 2.1040	 9.8110
 2.1050	 9.8360
 2.1060	 9.8610
 2.1070	 9.8890
 2.1080	 9.9150
 2.1090	 9.9370
 2.1100	 9.9630
 2.1110	 9.9930
 2.1120	10.0190
 2.1130	10.0450
 2.1140	10.0700
 2.1150	10.0930
 2.1160	10.1180
 2.1170	10.1430
 2.1180	10.1680
 2.1190	10.1940
 2.1200	10.2200
 2.1210	10.2460
 2.1220	10.2710
 2.1230	10.2960
 2.1240	10.3200
 2.1250	10.3450
 2.1260	10.3700
 2.1270	10.3930
 2.1280	10.4140
 2.1290	10.4370
 2.1300	10.4610
 2.1310	10.4830
 2.1320	10.5050
 2.1330	10.5270
 2.1340	10.5450
 2.1350	10.5670
 2.1360	10.5930
 2.1370	10.6180
 2.1380	10.6460
 2.1390	10.6710
 2.1400	10.6930
 2.1410	10.7140
 2.1420	10.7350
 2.1430	10.7520
 2.1440	10.7730
 2.1450	10.7950
 2.1460	10.8150
 2.1470	10.8350
 2.1480	10.8550
 2.1490	10.8720
 2.1500	10.8920
 2.1510	10.9140
 2.1520	10.9360
 2.1530	10.9600
 2.1540	10.9780
 2.1550	10.9910
 2.1560	11.0090
 2.1570	11.0240
 2.1580	11.0410
 2.1590	11.0620
 2.1600	11.0810
 2.1610	11.0950
 2.1620	11.1110
 2.1630	11.1300
 2.1640	11.1500
 2.1650	11.1670
 2.1660	11.1880
 2.1670	11.2040
 2.1680	11.2140
 2.1690	11.2300
 2.1700	11.2500
 2.1710	11.2670
 2.1720	11.2880
 2.1730	11.3070
 2.1740	11.3210
 2.1750	11.3380
 2.1760	11.3580
 2.1770	11.3750
 2.1780	11.3920
 2.1790	11.4080
 2.1800	11.4210
 2.1810	11.4370
 2.1820	11.4550
 2.1830	11.4770
 2.1840	11.4970
 2.1850	11.5210
 2.1860	11.5370
 2.1870	11.5490
 2.1880	11.5630
 2.1890	11.5720
 2.1900	11.5860
 2.1910	11.6020
 2.1920	11.6170
 2.1930	11.6290
 2.1940	11.6460
 2.1950	11.6680
 2.1960	11.6850
 2.1970	11.7040
 2.1980	11.7190
 2.1990	11.7270
 2.2000	11.7390
 2.2010	11.7490
 2.2020	11.7610
 2.2030	11.7750
 2.2040	11.7870
 2.2050	11.7980
 2.2060	11.8120
 2.2070	11.8210
 2.2080	11.8280
 2.2090	11.8370
 2.2100	11.8430
 2.2110	11.8500
 2.2120	11.8590
 2.2130	11.8670
 2.2140	11.8760
 2.2150	11.8820
 2.2160	11.8880
 2.2170	11.8920
 2.2180	11.8920
 2.2190	11.8930
 2.2200	11.8920
 2.2210	11.8910
 2.2220	11.8900
 2.2230	11.8860
 2.2240	11.8780
 2.2250	11.8720
 2.2260	11.8640
 2.2270	11.8540
 2.2280	11.8420
 2.2290	11.8310
 2.2300	11.8200
 2.2310	11.8080
 2.2320	11.7970
 2.2330	11.7810
 2.2340	11.7590
 2.2350	11.7270
 2.2360	11.7030
 2.2370	11.6760
 2.2380	11.6510
 2.2390	11.6310
 2.2400	11.6050
 2.2410	11.5790
 2.2420	11.5480
 2.2430	11.5130
 2.2440	11.4770
 2.2450	11.4370
 2.2460	11.3990
 2.2470	11.3620
 2.2480	11.3260
 2.2490	11.2940
 2.2500	11.2560
 2.2510	11.2140
 2.2520	11.1730
 2.2530	11.1280
 2.2540	11.0810
 2.2550	11.0320
 2.2560	10.9850
 2.2570	10.9360
 2.2580	10.8870
 2.2590	10.8370
 2.2600	10.7900
 2.2610	10.7440
 2.2620	10.6960
 2.2630	10.6500
 2.2640	10.6050
 2.2650	10.5560
 2.2660	10.5080
 2.2670	10.4650
 2.2680	10.4240
 2.2690	10.3860
 2.2700	10.3500
 2.2710	10.3160
 2.2720	10.2880
 2.2730	10.2550
 2.2740	10.2230
 2.2750	10.1900
 2.2760	10.1520
 2.2770	10.1220
 2.2780	10.0940
 2.2790	10.0680
 2.2800	10.0470
 2.2810	10.0260
 2.2820	10.0090
 2.2830	 9.9880
 2.2840	 9.9690
 2.2850	 9.9480
 2.2860	 9.9250
 2.2870	 9.8980
 2.2880	 9.8660
 2.2890	 9.8340
 2.2900	 9.7970
 2.2910	 9.7640
 2.2920	 9.7360
 2.2930	 9.7020
 2.2940	 9.6670
 2.2950	 9.6300
 2.2960	 9.5870
 2.2970	 9.5480
 2.2980	 9.5130
 2.2990	 9.4780
 2.3000	 9.4440
 2.3010	 9.4090
 2.3020	 9.3750
 2.3030	 9.3350
 2.3040	 9.2940
 2.3050	 9.2580
 2.3060	 9.2190
 2.3070	 9.1860
 2.3080	 9.1640
 2.3090	 9.1420
 2.3100	 9.1220
 2.3110	 9.1080
 2.3120	 9.0950
 2.3130	 9.0830
 2.3140	 9.0740
 2.3150	 9.0720
 2.3160	 9.0670
 2.3170	 9.0610
 2.3180	 9.0600
 2.3190	 9.0640
 2.3200	 9.0600
 2.3210	 9.0560
 2.3220	 9.0480
 2.3230	 9.0310
 2.3240	 9.0180
 2.3250	 9.0050
 2.3260	 8.9920
 2.3270	 8.9810
 2.3280	 8.9600
 2.3290	 8.9340
 2.3300	 8.9080
 2.3310	 8.8720
 2.3320	 8.8470
 2.3330	 8.8330
 2.3340	 8.8110
 2.3350	 8.7880
 2.3360	 8.7670
 2.3370	 8.7390
 2.3380	 8.7150
 2.3390	 8.7000
 2.3400	 8.6790
 2.3410	 8.6600
 2.3420	 8.6340
 2.3430	 8.6010
 2.3440	 8.5710
 2.3450	 8.5310
 2.3460	 8.5030
 2.3470	 8.4880
 2.3480	 8.4640
 2.3490	 8.4420
 2.3500	 8.4200
 2.3510	 8.3900
 2.3520	 8.3680
 2.3530	 8.3570
 2.3540	 8.3440
 2.3550	 8.3320
 2.3560	 8.3200
 2.3570	 8.3010
 2.3580	 8.2820
 2.3590	 8.2640
 2.3600	 8.2420
 2.3610	 8.2260
 2.3620	 8.2140
 2.3630	 8.1990
 2.3640	 8.1890
 2.3650	 8.1720
 2.3660	 8.1480
 2.3670	 8.1290
 2.3680	 8.1100
 2.3690	 8.0930
 2.3700	 8.0820
 2.3710	 8.0740
 2.3720	 8.0530
 2.3730	 8.0280
 2.3740	 8.0080
 2.3750	 7.9790
 2.3760	 7.9560
 2.3770	 7.9460
 2.3780	 7.9330
 2.3790	 7.9170
 2.3800	 7.9100
 2.3810	 7.8840
 2.3820	 7.8530
 2.3830	 7.8290
 2.3840	 7.7950
 2.3850	 7.7760
 2.3860	 7.7540
 2.3870	 7.7210
 2.3880	 7.7030
 2.3890	 7.6870
 2.3900	 7.6770
 2.3910	 7.6690
 2.3920	 7.6530
 2.3930	 7.6360
 2.3940	 7.6180
 2.3950	 7.6030
 2.3960	 7.5890
 2.3970	 7.5690
 2.3980	 7.5470
 2.3990	 7.5180
 2.4000	 7.4880
 2.4010	 7.4600
 2.4020	 7.4360
 2.4030	 7.4230
 2.4040	 7.4100
 2.4050	 7.4000
 2.4060	 7.3840
 2.4070	 7.3620
 2.4080	 7.3380
 2.4090	 7.3080
 2.4100	 7.2820
 2.4110	 7.2590
 2.4120	 7.2380
 2.4130	 7.2120
 2.4140	 7.1920
 2.4150	 7.1710
 2.4160	 7.1480
 2.4170	 7.1380
 2.4180	 7.1220
 2.4190	 7.1030
 2.4200	 7.0810
 2.4210	 7.0530
 2.4220	 7.0300
 2.4230	 7.0060
 2.4240	 6.9830
 2.4250	 6.9690
 2.4260	 6.9510
 2.4270	 6.9280
 2.4280	 6.9180
 2.4290	 6.9090
 2.4300	 6.8840
 2.4310	 6.8600
 2.4320	 6.8420
 2.4330	 6.8130
 2.4340	 6.7810
 2.4350	 6.7440
 2.4360	 6.7100
 2.4370	 6.6830
 2.4380	 6.6560
 2.4390	 6.6500
 2.4400	 6.6470
 2.4410	 6.6280
 2.4420	 6.6200
 2.4430	 6.6100
 2.4440	 6.5720
 2.4450	 6.5500
 2.4460	 6.5370
 2.4470	 6.5200
 2.4480	 6.5130
 2.4490	 6.4900
 2.4500	 6.4700
 2.4510	 6.4470
 2.4520	 6.4280
 2.4530	 6.4210
 2.4540	 6.4010
 2.4550	 6.3850
 2.4560	 6.3650
 2.4570	 6.3500
 2.4580	 6.3360
 2.4590	 6.2990
 2.4600	 6.2750
 2.4610	 6.2430
 2.4620	 6.2000
 2.4630	 6.2000
 2.4640	 6.2040
 2.4650	 6.2010
 2.4660	 6.1990
 2.4670	 6.1710
 2.4680	 6.1250
 2.4690	 6.0820
 2.4700	 6.0620
 2.4710	 6.0730
 2.4720	 6.0730
 2.4730	 6.0810
 2.4740	 6.0740
 2.4750	 6.0420
 2.4760	 6.0320
 2.4770	 6.0340
 2.4780	 6.0220
 2.4790	 6.0240
 2.4800	 6.0060
 2.4810	 5.9610
 2.4820	 5.9790
 2.4830	 5.9580
 2.4840	 5.9540
 2.4850	 5.9510
 2.4860	 5.9190
 2.4870	 5.9200
 2.4880	 5.9290
 2.4890	 5.9140
 2.4900	 5.8950
 2.4910	 5.8820
 2.4920	 5.8700
 2.4930	 5.8680
 2.4940	 5.8840
 2.4950	 5.8870
 2.4960	 5.8860
 2.4970	 5.9000
 2.4980	 5.9180
 2.4990	 5.9140
 2.5000	 5.9290
