Name: Adenostoma fasciculatum 3
Type: vegetation
Class: Shrub
Genus: Adenostoma
Species: fasciculatum
Sample No.: VH115
Owner: UCSB
Wavelength Range: VSWIR
Origin: 34.5084; -119.7686; WGS84
Collection Date: 6/3/2013
Description: Samples were collected as part of the HyspIRI Airborne Campaign. 48 individual plants were sampled in three times in 2013 - spring  summer  and fall. The name of the sample includes a 1  2  or 3 which references a different individual of the species. Samples were taken to JPL and processed within 48 hours of collection. The same leaves were processed in the Nicolet and then measured using the ASD.
Measurement: Bidirectional reflectance
First Column: X
Second Column: Y
X Units: Wavelength (micrometers)
Y Units: Reflectance (percentage)
First X Value: 0.35
Last X Value: 2.5
Number of X Values: 2151
Additional Information: vegetation.shrub.adenostoma.fasciculatum.vswir.vh115.ucsb.asd.ancillary.txt

 0.3500	 1.3640
 0.3510	 1.4040
 0.3520	 1.3420
 0.3530	 1.2750
 0.3540	 1.3070
 0.3550	 1.4360
 0.3560	 1.4310
 0.3570	 1.3060
 0.3580	 1.2090
 0.3590	 1.1700
 0.3600	 1.1530
 0.3610	 1.1370
 0.3620	 1.1330
 0.3630	 1.1930
 0.3640	 1.2690
 0.3650	 1.2930
 0.3660	 1.2220
 0.3670	 1.2270
 0.3680	 1.2860
 0.3690	 1.2510
 0.3700	 1.2730
 0.3710	 1.2330
 0.3720	 1.1040
 0.3730	 1.0930
 0.3740	 1.2010
 0.3750	 1.2790
 0.3760	 1.1980
 0.3770	 1.1870
 0.3780	 1.1990
 0.3790	 1.2230
 0.3800	 1.2790
 0.3810	 1.2700
 0.3820	 1.2500
 0.3830	 1.2500
 0.3840	 1.1900
 0.3850	 1.1740
 0.3860	 1.2110
 0.3870	 1.2590
 0.3880	 1.2270
 0.3890	 1.2030
 0.3900	 1.2280
 0.3910	 1.2790
 0.3920	 1.2670
 0.3930	 1.2450
 0.3940	 1.2670
 0.3950	 1.2990
 0.3960	 1.2940
 0.3970	 1.2650
 0.3980	 1.2530
 0.3990	 1.2780
 0.4000	 1.2750
 0.4010	 1.2380
 0.4020	 1.2400
 0.4030	 1.2910
 0.4040	 1.3220
 0.4050	 1.2910
 0.4060	 1.3050
 0.4070	 1.3230
 0.4080	 1.3330
 0.4090	 1.3480
 0.4100	 1.3450
 0.4110	 1.3470
 0.4120	 1.3680
 0.4130	 1.3980
 0.4140	 1.3900
 0.4150	 1.3730
 0.4160	 1.3860
 0.4170	 1.3910
 0.4180	 1.4060
 0.4190	 1.4340
 0.4200	 1.4610
 0.4210	 1.4680
 0.4220	 1.4620
 0.4230	 1.4590
 0.4240	 1.4620
 0.4250	 1.4760
 0.4260	 1.4990
 0.4270	 1.5210
 0.4280	 1.5340
 0.4290	 1.5410
 0.4300	 1.5480
 0.4310	 1.5620
 0.4320	 1.5690
 0.4330	 1.5770
 0.4340	 1.5930
 0.4350	 1.6150
 0.4360	 1.6180
 0.4370	 1.6070
 0.4380	 1.6120
 0.4390	 1.6220
 0.4400	 1.6330
 0.4410	 1.6420
 0.4420	 1.6560
 0.4430	 1.6570
 0.4440	 1.6520
 0.4450	 1.6560
 0.4460	 1.6690
 0.4470	 1.6830
 0.4480	 1.6970
 0.4490	 1.7150
 0.4500	 1.7190
 0.4510	 1.7180
 0.4520	 1.7210
 0.4530	 1.7260
 0.4540	 1.7350
 0.4550	 1.7480
 0.4560	 1.7660
 0.4570	 1.7710
 0.4580	 1.7730
 0.4590	 1.7810
 0.4600	 1.7860
 0.4610	 1.7930
 0.4620	 1.7950
 0.4630	 1.7880
 0.4640	 1.8020
 0.4650	 1.8210
 0.4660	 1.8270
 0.4670	 1.8020
 0.4680	 1.8050
 0.4690	 1.8230
 0.4700	 1.8340
 0.4710	 1.8340
 0.4720	 1.8380
 0.4730	 1.8470
 0.4740	 1.8580
 0.4750	 1.8500
 0.4760	 1.8450
 0.4770	 1.8530
 0.4780	 1.8570
 0.4790	 1.8610
 0.4800	 1.8660
 0.4810	 1.8730
 0.4820	 1.8890
 0.4830	 1.8910
 0.4840	 1.8830
 0.4850	 1.8970
 0.4860	 1.9070
 0.4870	 1.9090
 0.4880	 1.9070
 0.4890	 1.9110
 0.4900	 1.9240
 0.4910	 1.9380
 0.4920	 1.9450
 0.4930	 1.9590
 0.4940	 1.9680
 0.4950	 1.9720
 0.4960	 1.9900
 0.4970	 2.0090
 0.4980	 2.0260
 0.4990	 2.0420
 0.5000	 2.0640
 0.5010	 2.0810
 0.5020	 2.0980
 0.5030	 2.1250
 0.5040	 2.1550
 0.5050	 2.1870
 0.5060	 2.2220
 0.5070	 2.2620
 0.5080	 2.2990
 0.5090	 2.3360
 0.5100	 2.3790
 0.5110	 2.4250
 0.5120	 2.4770
 0.5130	 2.5350
 0.5140	 2.5960
 0.5150	 2.6600
 0.5160	 2.7270
 0.5170	 2.7950
 0.5180	 2.8690
 0.5190	 2.9400
 0.5200	 3.0100
 0.5210	 3.0910
 0.5220	 3.1710
 0.5230	 3.2490
 0.5240	 3.3260
 0.5250	 3.4080
 0.5260	 3.4770
 0.5270	 3.5410
 0.5280	 3.6140
 0.5290	 3.6850
 0.5300	 3.7450
 0.5310	 3.7960
 0.5320	 3.8540
 0.5330	 3.9050
 0.5340	 3.9500
 0.5350	 3.9920
 0.5360	 4.0310
 0.5370	 4.0680
 0.5380	 4.1050
 0.5390	 4.1410
 0.5400	 4.1710
 0.5410	 4.2030
 0.5420	 4.2400
 0.5430	 4.2690
 0.5440	 4.3000
 0.5450	 4.3290
 0.5460	 4.3510
 0.5470	 4.3640
 0.5480	 4.3710
 0.5490	 4.3790
 0.5500	 4.4000
 0.5510	 4.4170
 0.5520	 4.4260
 0.5530	 4.4320
 0.5540	 4.4310
 0.5550	 4.4250
 0.5560	 4.4140
 0.5570	 4.4020
 0.5580	 4.3830
 0.5590	 4.3610
 0.5600	 4.3390
 0.5610	 4.3130
 0.5620	 4.2860
 0.5630	 4.2560
 0.5640	 4.2250
 0.5650	 4.1910
 0.5660	 4.1570
 0.5670	 4.1190
 0.5680	 4.0730
 0.5690	 4.0290
 0.5700	 3.9850
 0.5710	 3.9420
 0.5720	 3.8990
 0.5730	 3.8540
 0.5740	 3.8090
 0.5750	 3.7680
 0.5760	 3.7320
 0.5770	 3.6980
 0.5780	 3.6660
 0.5790	 3.6450
 0.5800	 3.6220
 0.5810	 3.5970
 0.5820	 3.5700
 0.5830	 3.5460
 0.5840	 3.5230
 0.5850	 3.5030
 0.5860	 3.4840
 0.5870	 3.4730
 0.5880	 3.4600
 0.5890	 3.4400
 0.5900	 3.4220
 0.5910	 3.4060
 0.5920	 3.3940
 0.5930	 3.3840
 0.5940	 3.3820
 0.5950	 3.3810
 0.5960	 3.3760
 0.5970	 3.3710
 0.5980	 3.3700
 0.5990	 3.3690
 0.6000	 3.3630
 0.6010	 3.3550
 0.6020	 3.3470
 0.6030	 3.3390
 0.6040	 3.3290
 0.6050	 3.3110
 0.6060	 3.2910
 0.6070	 3.2750
 0.6080	 3.2600
 0.6090	 3.2440
 0.6100	 3.2310
 0.6110	 3.2220
 0.6120	 3.1980
 0.6130	 3.1680
 0.6140	 3.1400
 0.6150	 3.1170
 0.6160	 3.0930
 0.6170	 3.0700
 0.6180	 3.0520
 0.6190	 3.0420
 0.6200	 3.0290
 0.6210	 3.0140
 0.6220	 3.0050
 0.6230	 2.9980
 0.6240	 2.9930
 0.6250	 2.9890
 0.6260	 2.9840
 0.6270	 2.9830
 0.6280	 2.9830
 0.6290	 2.9820
 0.6300	 2.9870
 0.6310	 2.9890
 0.6320	 2.9860
 0.6330	 2.9840
 0.6340	 2.9780
 0.6350	 2.9700
 0.6360	 2.9620
 0.6370	 2.9460
 0.6380	 2.9250
 0.6390	 2.9040
 0.6400	 2.8890
 0.6410	 2.8660
 0.6420	 2.8410
 0.6430	 2.8180
 0.6440	 2.7940
 0.6450	 2.7700
 0.6460	 2.7450
 0.6470	 2.7190
 0.6480	 2.6930
 0.6490	 2.6720
 0.6500	 2.6580
 0.6510	 2.6480
 0.6520	 2.6360
 0.6530	 2.6220
 0.6540	 2.6080
 0.6550	 2.5940
 0.6560	 2.5810
 0.6570	 2.5650
 0.6580	 2.5430
 0.6590	 2.5240
 0.6600	 2.5020
 0.6610	 2.4790
 0.6620	 2.4600
 0.6630	 2.4390
 0.6640	 2.4170
 0.6650	 2.3980
 0.6660	 2.3830
 0.6670	 2.3690
 0.6680	 2.3570
 0.6690	 2.3480
 0.6700	 2.3420
 0.6710	 2.3380
 0.6720	 2.3360
 0.6730	 2.3400
 0.6740	 2.3460
 0.6750	 2.3520
 0.6760	 2.3580
 0.6770	 2.3650
 0.6780	 2.3760
 0.6790	 2.3930
 0.6800	 2.4130
 0.6810	 2.4320
 0.6820	 2.4560
 0.6830	 2.4880
 0.6840	 2.5250
 0.6850	 2.5720
 0.6860	 2.6250
 0.6870	 2.6830
 0.6880	 2.7600
 0.6890	 2.8490
 0.6900	 2.9530
 0.6910	 3.0800
 0.6920	 3.2280
 0.6930	 3.3960
 0.6940	 3.5880
 0.6950	 3.8070
 0.6960	 4.0510
 0.6970	 4.3190
 0.6980	 4.6080
 0.6990	 4.9180
 0.7000	 5.2540
 0.7010	 5.6110
 0.7020	 5.9750
 0.7030	 6.3540
 0.7040	 6.7460
 0.7050	 7.1490
 0.7060	 7.5590
 0.7070	 7.9800
 0.7080	 8.4100
 0.7090	 8.8490
 0.7100	 9.2940
 0.7110	 9.7490
 0.7120	10.2150
 0.7130	10.6940
 0.7140	11.1760
 0.7150	11.6640
 0.7160	12.1610
 0.7170	12.6660
 0.7180	13.1810
 0.7190	13.7010
 0.7200	14.2240
 0.7210	14.7480
 0.7220	15.2750
 0.7230	15.8030
 0.7240	16.3260
 0.7250	16.8420
 0.7260	17.3520
 0.7270	17.8540
 0.7280	18.3410
 0.7290	18.8160
 0.7300	19.2800
 0.7310	19.7290
 0.7320	20.1640
 0.7330	20.5810
 0.7340	20.9810
 0.7350	21.3670
 0.7360	21.7370
 0.7370	22.0900
 0.7380	22.4240
 0.7390	22.7410
 0.7400	23.0380
 0.7410	23.3180
 0.7420	23.5850
 0.7430	23.8330
 0.7440	24.0700
 0.7450	24.2960
 0.7460	24.5020
 0.7470	24.6930
 0.7480	24.8720
 0.7490	25.0400
 0.7500	25.1950
 0.7510	25.3400
 0.7520	25.4740
 0.7530	25.5960
 0.7540	25.7120
 0.7550	25.8220
 0.7560	25.9250
 0.7570	26.0150
 0.7580	26.1040
 0.7590	26.1870
 0.7600	26.2630
 0.7610	26.3320
 0.7620	26.4000
 0.7630	26.4650
 0.7640	26.5230
 0.7650	26.5780
 0.7660	26.6310
 0.7670	26.6840
 0.7680	26.7350
 0.7690	26.7790
 0.7700	26.8240
 0.7710	26.8730
 0.7720	26.9140
 0.7730	26.9540
 0.7740	26.9930
 0.7750	27.0320
 0.7760	27.0710
 0.7770	27.1090
 0.7780	27.1450
 0.7790	27.1800
 0.7800	27.2170
 0.7810	27.2530
 0.7820	27.2860
 0.7830	27.3200
 0.7840	27.3530
 0.7850	27.3880
 0.7860	27.4230
 0.7870	27.4590
 0.7880	27.4890
 0.7890	27.5160
 0.7900	27.5480
 0.7910	27.5800
 0.7920	27.6110
 0.7930	27.6420
 0.7940	27.6720
 0.7950	27.7020
 0.7960	27.7330
 0.7970	27.7660
 0.7980	27.7970
 0.7990	27.8260
 0.8000	27.8530
 0.8010	27.8780
 0.8020	27.9010
 0.8030	27.9290
 0.8040	27.9600
 0.8050	27.9840
 0.8060	28.0140
 0.8070	28.0420
 0.8080	28.0660
 0.8090	28.0890
 0.8100	28.1140
 0.8110	28.1420
 0.8120	28.1690
 0.8130	28.1920
 0.8140	28.2140
 0.8150	28.2360
 0.8160	28.2580
 0.8170	28.2830
 0.8180	28.3060
 0.8190	28.3290
 0.8200	28.3550
 0.8210	28.3810
 0.8220	28.4050
 0.8230	28.4270
 0.8240	28.4480
 0.8250	28.4700
 0.8260	28.4900
 0.8270	28.5090
 0.8280	28.5310
 0.8290	28.5490
 0.8300	28.5700
 0.8310	28.5980
 0.8320	28.6140
 0.8330	28.6300
 0.8340	28.6480
 0.8350	28.6690
 0.8360	28.6930
 0.8370	28.7170
 0.8380	28.7400
 0.8390	28.7670
 0.8400	28.7860
 0.8410	28.8070
 0.8420	28.8340
 0.8430	28.8590
 0.8440	28.8830
 0.8450	28.9030
 0.8460	28.9210
 0.8470	28.9540
 0.8480	28.9780
 0.8490	28.9970
 0.8500	29.0200
 0.8510	29.0440
 0.8520	29.0690
 0.8530	29.0950
 0.8540	29.1180
 0.8550	29.1380
 0.8560	29.1600
 0.8570	29.1840
 0.8580	29.2040
 0.8590	29.2250
 0.8600	29.2460
 0.8610	29.2670
 0.8620	29.2950
 0.8630	29.3160
 0.8640	29.3340
 0.8650	29.3570
 0.8660	29.3740
 0.8670	29.3920
 0.8680	29.4150
 0.8690	29.4410
 0.8700	29.4610
 0.8710	29.4790
 0.8720	29.5000
 0.8730	29.5250
 0.8740	29.5440
 0.8750	29.5620
 0.8760	29.5840
 0.8770	29.6050
 0.8780	29.6220
 0.8790	29.6450
 0.8800	29.6710
 0.8810	29.6760
 0.8820	29.6880
 0.8830	29.7070
 0.8840	29.7250
 0.8850	29.7440
 0.8860	29.7680
 0.8870	29.7820
 0.8880	29.7800
 0.8890	29.8060
 0.8900	29.8190
 0.8910	29.8260
 0.8920	29.8440
 0.8930	29.8590
 0.8940	29.8700
 0.8950	29.8820
 0.8960	29.8970
 0.8970	29.9030
 0.8980	29.9140
 0.8990	29.9340
 0.9000	29.9520
 0.9010	29.9640
 0.9020	29.9730
 0.9030	29.9830
 0.9040	29.9910
 0.9050	30.0040
 0.9060	30.0160
 0.9070	30.0250
 0.9080	30.0370
 0.9090	30.0490
 0.9100	30.0590
 0.9110	30.0700
 0.9120	30.0810
 0.9130	30.0980
 0.9140	30.1140
 0.9150	30.1220
 0.9160	30.1240
 0.9170	30.1290
 0.9180	30.1390
 0.9190	30.1550
 0.9200	30.1630
 0.9210	30.1620
 0.9220	30.1580
 0.9230	30.1570
 0.9240	30.1680
 0.9250	30.1720
 0.9260	30.1710
 0.9270	30.1760
 0.9280	30.1730
 0.9290	30.1660
 0.9300	30.1590
 0.9310	30.1520
 0.9320	30.1370
 0.9330	30.1270
 0.9340	30.1220
 0.9350	30.1110
 0.9360	30.0990
 0.9370	30.0840
 0.9380	30.0700
 0.9390	30.0690
 0.9400	30.0530
 0.9410	30.0270
 0.9420	30.0010
 0.9430	29.9800
 0.9440	29.9470
 0.9450	29.9080
 0.9460	29.8710
 0.9470	29.8270
 0.9480	29.7830
 0.9490	29.7380
 0.9500	29.6910
 0.9510	29.6470
 0.9520	29.5830
 0.9530	29.5090
 0.9540	29.4410
 0.9550	29.3760
 0.9560	29.3150
 0.9570	29.2530
 0.9580	29.1890
 0.9590	29.1310
 0.9600	29.0820
 0.9610	29.0390
 0.9620	28.9990
 0.9630	28.9680
 0.9640	28.9290
 0.9650	28.8960
 0.9660	28.8860
 0.9670	28.8650
 0.9680	28.8420
 0.9690	28.8220
 0.9700	28.8100
 0.9710	28.8050
 0.9720	28.8020
 0.9730	28.7960
 0.9740	28.7850
 0.9750	28.7740
 0.9760	28.7820
 0.9770	28.7930
 0.9780	28.7850
 0.9790	28.8000
 0.9800	28.8070
 0.9810	28.8180
 0.9820	28.8560
 0.9830	28.8670
 0.9840	28.8770
 0.9850	28.8930
 0.9860	28.9070
 0.9870	28.9280
 0.9880	28.9550
 0.9890	28.9880
 0.9900	29.0240
 0.9910	29.0440
 0.9920	29.0880
 0.9930	29.1330
 0.9940	29.1780
 0.9950	29.2220
 0.9960	29.2670
 0.9970	29.3110
 0.9980	29.3560
 0.9990	29.4010
 1.0000	29.4450
 1.0010	29.4900
 1.0020	29.5350
 1.0030	29.5790
 1.0040	29.6240
 1.0050	29.6680
 1.0060	29.7130
 1.0070	29.7580
 1.0080	29.8020
 1.0090	29.8470
 1.0100	29.8470
 1.0110	29.8900
 1.0120	29.9340
 1.0130	29.9810
 1.0140	30.0250
 1.0150	30.0670
 1.0160	30.1110
 1.0170	30.1520
 1.0180	30.1930
 1.0190	30.2340
 1.0200	30.2760
 1.0210	30.3180
 1.0220	30.3630
 1.0230	30.4050
 1.0240	30.4460
 1.0250	30.4840
 1.0260	30.5150
 1.0270	30.5530
 1.0280	30.5940
 1.0290	30.6330
 1.0300	30.6760
 1.0310	30.7150
 1.0320	30.7530
 1.0330	30.7860
 1.0340	30.8210
 1.0350	30.8580
 1.0360	30.8930
 1.0370	30.9290
 1.0380	30.9640
 1.0390	31.0010
 1.0400	31.0360
 1.0410	31.0720
 1.0420	31.1060
 1.0430	31.1390
 1.0440	31.1720
 1.0450	31.2060
 1.0460	31.2370
 1.0470	31.2650
 1.0480	31.2940
 1.0490	31.3190
 1.0500	31.3460
 1.0510	31.3750
 1.0520	31.4030
 1.0530	31.4270
 1.0540	31.4500
 1.0550	31.4740
 1.0560	31.4970
 1.0570	31.5210
 1.0580	31.5480
 1.0590	31.5710
 1.0600	31.5930
 1.0610	31.6140
 1.0620	31.6330
 1.0630	31.6520
 1.0640	31.6700
 1.0650	31.6900
 1.0660	31.7100
 1.0670	31.7290
 1.0680	31.7470
 1.0690	31.7660
 1.0700	31.7820
 1.0710	31.7960
 1.0720	31.8100
 1.0730	31.8210
 1.0740	31.8340
 1.0750	31.8450
 1.0760	31.8570
 1.0770	31.8700
 1.0780	31.8810
 1.0790	31.8910
 1.0800	31.8990
 1.0810	31.9030
 1.0820	31.9100
 1.0830	31.9160
 1.0840	31.9220
 1.0850	31.9280
 1.0860	31.9340
 1.0870	31.9380
 1.0880	31.9410
 1.0890	31.9420
 1.0900	31.9420
 1.0910	31.9400
 1.0920	31.9360
 1.0930	31.9340
 1.0940	31.9310
 1.0950	31.9280
 1.0960	31.9250
 1.0970	31.9220
 1.0980	31.9200
 1.0990	31.9150
 1.1000	31.9100
 1.1010	31.9030
 1.1020	31.8940
 1.1030	31.8820
 1.1040	31.8700
 1.1050	31.8600
 1.1060	31.8480
 1.1070	31.8360
 1.1080	31.8240
 1.1090	31.8100
 1.1100	31.7950
 1.1110	31.7780
 1.1120	31.7590
 1.1130	31.7410
 1.1140	31.7170
 1.1150	31.6930
 1.1160	31.6640
 1.1170	31.6320
 1.1180	31.5970
 1.1190	31.5610
 1.1200	31.5220
 1.1210	31.4790
 1.1220	31.4310
 1.1230	31.3780
 1.1240	31.3190
 1.1250	31.2540
 1.1260	31.1850
 1.1270	31.1070
 1.1280	31.0220
 1.1290	30.9310
 1.1300	30.8340
 1.1310	30.7270
 1.1320	30.6130
 1.1330	30.4930
 1.1340	30.3650
 1.1350	30.2300
 1.1360	30.0890
 1.1370	29.9400
 1.1380	29.7850
 1.1390	29.6230
 1.1400	29.4580
 1.1410	29.2910
 1.1420	29.1180
 1.1430	28.9440
 1.1440	28.7700
 1.1450	28.5930
 1.1460	28.4220
 1.1470	28.2500
 1.1480	28.0870
 1.1490	27.9270
 1.1500	27.7760
 1.1510	27.6310
 1.1520	27.4940
 1.1530	27.3640
 1.1540	27.2430
 1.1550	27.1310
 1.1560	27.0250
 1.1570	26.9260
 1.1580	26.8390
 1.1590	26.7580
 1.1600	26.6850
 1.1610	26.6200
 1.1620	26.5610
 1.1630	26.5060
 1.1640	26.4570
 1.1650	26.4120
 1.1660	26.3740
 1.1670	26.3360
 1.1680	26.3030
 1.1690	26.2720
 1.1700	26.2450
 1.1710	26.2160
 1.1720	26.1900
 1.1730	26.1630
 1.1740	26.1370
 1.1750	26.1090
 1.1760	26.0830
 1.1770	26.0570
 1.1780	26.0290
 1.1790	26.0020
 1.1800	25.9750
 1.1810	25.9460
 1.1820	25.9190
 1.1830	25.8920
 1.1840	25.8660
 1.1850	25.8410
 1.1860	25.8190
 1.1870	25.7970
 1.1880	25.7770
 1.1890	25.7580
 1.1900	25.7410
 1.1910	25.7240
 1.1920	25.7110
 1.1930	25.7000
 1.1940	25.6910
 1.1950	25.6850
 1.1960	25.6800
 1.1970	25.6760
 1.1980	25.6750
 1.1990	25.6760
 1.2000	25.6830
 1.2010	25.6940
 1.2020	25.7080
 1.2030	25.7260
 1.2040	25.7460
 1.2050	25.7680
 1.2060	25.7950
 1.2070	25.8240
 1.2080	25.8550
 1.2090	25.8900
 1.2100	25.9270
 1.2110	25.9670
 1.2120	26.0080
 1.2130	26.0530
 1.2140	26.1000
 1.2150	26.1480
 1.2160	26.1990
 1.2170	26.2510
 1.2180	26.3040
 1.2190	26.3580
 1.2200	26.4130
 1.2210	26.4700
 1.2220	26.5270
 1.2230	26.5840
 1.2240	26.6400
 1.2250	26.6940
 1.2260	26.7480
 1.2270	26.8010
 1.2280	26.8530
 1.2290	26.9040
 1.2300	26.9540
 1.2310	27.0030
 1.2320	27.0500
 1.2330	27.0960
 1.2340	27.1400
 1.2350	27.1820
 1.2360	27.2240
 1.2370	27.2640
 1.2380	27.3040
 1.2390	27.3440
 1.2400	27.3840
 1.2410	27.4250
 1.2420	27.4620
 1.2430	27.4990
 1.2440	27.5330
 1.2450	27.5660
 1.2460	27.6000
 1.2470	27.6320
 1.2480	27.6630
 1.2490	27.6950
 1.2500	27.7240
 1.2510	27.7520
 1.2520	27.7800
 1.2530	27.8070
 1.2540	27.8350
 1.2550	27.8620
 1.2560	27.8860
 1.2570	27.9080
 1.2580	27.9290
 1.2590	27.9490
 1.2600	27.9700
 1.2610	27.9890
 1.2620	28.0060
 1.2630	28.0220
 1.2640	28.0380
 1.2650	28.0520
 1.2660	28.0630
 1.2670	28.0740
 1.2680	28.0830
 1.2690	28.0890
 1.2700	28.0940
 1.2710	28.0990
 1.2720	28.1020
 1.2730	28.1030
 1.2740	28.1030
 1.2750	28.1030
 1.2760	28.1010
 1.2770	28.0970
 1.2780	28.0910
 1.2790	28.0830
 1.2800	28.0760
 1.2810	28.0670
 1.2820	28.0560
 1.2830	28.0440
 1.2840	28.0290
 1.2850	28.0110
 1.2860	27.9920
 1.2870	27.9700
 1.2880	27.9450
 1.2890	27.9180
 1.2900	27.8890
 1.2910	27.8580
 1.2920	27.8250
 1.2930	27.7910
 1.2940	27.7540
 1.2950	27.7140
 1.2960	27.6680
 1.2970	27.6200
 1.2980	27.5680
 1.2990	27.5140
 1.3000	27.4600
 1.3010	27.4020
 1.3020	27.3400
 1.3030	27.2750
 1.3040	27.2070
 1.3050	27.1370
 1.3060	27.0640
 1.3070	26.9860
 1.3080	26.9060
 1.3090	26.8190
 1.3100	26.7300
 1.3110	26.6390
 1.3120	26.5430
 1.3130	26.4450
 1.3140	26.3420
 1.3150	26.2330
 1.3160	26.1230
 1.3170	26.0100
 1.3180	25.8950
 1.3190	25.7760
 1.3200	25.6540
 1.3210	25.5260
 1.3220	25.3960
 1.3230	25.2640
 1.3240	25.1290
 1.3250	24.9930
 1.3260	24.8550
 1.3270	24.7160
 1.3280	24.5750
 1.3290	24.4300
 1.3300	24.2850
 1.3310	24.1370
 1.3320	23.9880
 1.3330	23.8400
 1.3340	23.6910
 1.3350	23.5420
 1.3360	23.3940
 1.3370	23.2450
 1.3380	23.0980
 1.3390	22.9520
 1.3400	22.8070
 1.3410	22.6630
 1.3420	22.5220
 1.3430	22.3820
 1.3440	22.2430
 1.3450	22.1070
 1.3460	21.9720
 1.3470	21.8390
 1.3480	21.7080
 1.3490	21.5800
 1.3500	21.4560
 1.3510	21.3340
 1.3520	21.2120
 1.3530	21.0910
 1.3540	20.9710
 1.3550	20.8490
 1.3560	20.7290
 1.3570	20.6100
 1.3580	20.4910
 1.3590	20.3730
 1.3600	20.2510
 1.3610	20.1280
 1.3620	20.0030
 1.3630	19.8750
 1.3640	19.7420
 1.3650	19.6050
 1.3660	19.4650
 1.3670	19.3190
 1.3680	19.1660
 1.3690	19.0060
 1.3700	18.8360
 1.3710	18.6570
 1.3720	18.4690
 1.3730	18.2710
 1.3740	18.0640
 1.3750	17.8440
 1.3760	17.6110
 1.3770	17.3650
 1.3780	17.1020
 1.3790	16.8260
 1.3800	16.5390
 1.3810	16.2370
 1.3820	15.9280
 1.3830	15.6090
 1.3840	15.2820
 1.3850	14.9450
 1.3860	14.6060
 1.3870	14.2570
 1.3880	13.9120
 1.3890	13.5640
 1.3900	13.2140
 1.3910	12.8700
 1.3920	12.5260
 1.3930	12.1860
 1.3940	11.8510
 1.3950	11.5200
 1.3960	11.1990
 1.3970	10.8880
 1.3980	10.5860
 1.3990	10.2980
 1.4000	10.0200
 1.4010	 9.7520
 1.4020	 9.4980
 1.4030	 9.2550
 1.4040	 9.0230
 1.4050	 8.8060
 1.4060	 8.6000
 1.4070	 8.4070
 1.4080	 8.2260
 1.4090	 8.0560
 1.4100	 7.8970
 1.4110	 7.7470
 1.4120	 7.6080
 1.4130	 7.4780
 1.4140	 7.3580
 1.4150	 7.2480
 1.4160	 7.1460
 1.4170	 7.0500
 1.4180	 6.9620
 1.4190	 6.8790
 1.4200	 6.8030
 1.4210	 6.7330
 1.4220	 6.6690
 1.4230	 6.6100
 1.4240	 6.5550
 1.4250	 6.5050
 1.4260	 6.4580
 1.4270	 6.4150
 1.4280	 6.3770
 1.4290	 6.3420
 1.4300	 6.3110
 1.4310	 6.2820
 1.4320	 6.2560
 1.4330	 6.2320
 1.4340	 6.2110
 1.4350	 6.1910
 1.4360	 6.1740
 1.4370	 6.1590
 1.4380	 6.1470
 1.4390	 6.1370
 1.4400	 6.1280
 1.4410	 6.1210
 1.4420	 6.1150
 1.4430	 6.1110
 1.4440	 6.1090
 1.4450	 6.1060
 1.4460	 6.1050
 1.4470	 6.1050
 1.4480	 6.1060
 1.4490	 6.1090
 1.4500	 6.1120
 1.4510	 6.1160
 1.4520	 6.1220
 1.4530	 6.1270
 1.4540	 6.1340
 1.4550	 6.1420
 1.4560	 6.1500
 1.4570	 6.1590
 1.4580	 6.1710
 1.4590	 6.1820
 1.4600	 6.1950
 1.4610	 6.2110
 1.4620	 6.2270
 1.4630	 6.2460
 1.4640	 6.2670
 1.4650	 6.2900
 1.4660	 6.3150
 1.4670	 6.3410
 1.4680	 6.3690
 1.4690	 6.3990
 1.4700	 6.4310
 1.4710	 6.4650
 1.4720	 6.5010
 1.4730	 6.5380
 1.4740	 6.5770
 1.4750	 6.6170
 1.4760	 6.6590
 1.4770	 6.7030
 1.4780	 6.7480
 1.4790	 6.7940
 1.4800	 6.8410
 1.4810	 6.8880
 1.4820	 6.9360
 1.4830	 6.9850
 1.4840	 7.0350
 1.4850	 7.0860
 1.4860	 7.1370
 1.4870	 7.1900
 1.4880	 7.2420
 1.4890	 7.2950
 1.4900	 7.3490
 1.4910	 7.4030
 1.4920	 7.4580
 1.4930	 7.5140
 1.4940	 7.5690
 1.4950	 7.6250
 1.4960	 7.6810
 1.4970	 7.7360
 1.4980	 7.7930
 1.4990	 7.8510
 1.5000	 7.9090
 1.5010	 7.9670
 1.5020	 8.0250
 1.5030	 8.0830
 1.5040	 8.1410
 1.5050	 8.1980
 1.5060	 8.2570
 1.5070	 8.3150
 1.5080	 8.3730
 1.5090	 8.4320
 1.5100	 8.4910
 1.5110	 8.5500
 1.5120	 8.6090
 1.5130	 8.6670
 1.5140	 8.7250
 1.5150	 8.7840
 1.5160	 8.8420
 1.5170	 8.9010
 1.5180	 8.9590
 1.5190	 9.0170
 1.5200	 9.0750
 1.5210	 9.1320
 1.5220	 9.1880
 1.5230	 9.2450
 1.5240	 9.3010
 1.5250	 9.3570
 1.5260	 9.4130
 1.5270	 9.4690
 1.5280	 9.5240
 1.5290	 9.5780
 1.5300	 9.6330
 1.5310	 9.6860
 1.5320	 9.7390
 1.5330	 9.7930
 1.5340	 9.8460
 1.5350	 9.8990
 1.5360	 9.9530
 1.5370	10.0060
 1.5380	10.0580
 1.5390	10.1110
 1.5400	10.1630
 1.5410	10.2140
 1.5420	10.2660
 1.5430	10.3170
 1.5440	10.3690
 1.5450	10.4200
 1.5460	10.4690
 1.5470	10.5190
 1.5480	10.5680
 1.5490	10.6170
 1.5500	10.6650
 1.5510	10.7130
 1.5520	10.7620
 1.5530	10.8100
 1.5540	10.8590
 1.5550	10.9070
 1.5560	10.9550
 1.5570	11.0030
 1.5580	11.0500
 1.5590	11.0950
 1.5600	11.1410
 1.5610	11.1860
 1.5620	11.2310
 1.5630	11.2770
 1.5640	11.3200
 1.5650	11.3640
 1.5660	11.4070
 1.5670	11.4500
 1.5680	11.4940
 1.5690	11.5370
 1.5700	11.5800
 1.5710	11.6240
 1.5720	11.6660
 1.5730	11.7090
 1.5740	11.7520
 1.5750	11.7940
 1.5760	11.8370
 1.5770	11.8780
 1.5780	11.9210
 1.5790	11.9630
 1.5800	12.0040
 1.5810	12.0450
 1.5820	12.0860
 1.5830	12.1270
 1.5840	12.1690
 1.5850	12.2110
 1.5860	12.2520
 1.5870	12.2930
 1.5880	12.3340
 1.5890	12.3760
 1.5900	12.4170
 1.5910	12.4580
 1.5920	12.4980
 1.5930	12.5390
 1.5940	12.5810
 1.5950	12.6210
 1.5960	12.6620
 1.5970	12.7020
 1.5980	12.7410
 1.5990	12.7800
 1.6000	12.8190
 1.6010	12.8570
 1.6020	12.8950
 1.6030	12.9330
 1.6040	12.9700
 1.6050	13.0090
 1.6060	13.0470
 1.6070	13.0850
 1.6080	13.1220
 1.6090	13.1580
 1.6100	13.1940
 1.6110	13.2290
 1.6120	13.2640
 1.6130	13.2990
 1.6140	13.3330
 1.6150	13.3660
 1.6160	13.3990
 1.6170	13.4300
 1.6180	13.4610
 1.6190	13.4930
 1.6200	13.5240
 1.6210	13.5550
 1.6220	13.5850
 1.6230	13.6140
 1.6240	13.6430
 1.6250	13.6710
 1.6260	13.6980
 1.6270	13.7250
 1.6280	13.7510
 1.6290	13.7760
 1.6300	13.8030
 1.6310	13.8280
 1.6320	13.8520
 1.6330	13.8750
 1.6340	13.8970
 1.6350	13.9190
 1.6360	13.9390
 1.6370	13.9590
 1.6380	13.9790
 1.6390	13.9960
 1.6400	14.0120
 1.6410	14.0250
 1.6420	14.0370
 1.6430	14.0480
 1.6440	14.0580
 1.6450	14.0650
 1.6460	14.0690
 1.6470	14.0720
 1.6480	14.0720
 1.6490	14.0710
 1.6500	14.0700
 1.6510	14.0670
 1.6520	14.0620
 1.6530	14.0540
 1.6540	14.0430
 1.6550	14.0310
 1.6560	14.0170
 1.6570	14.0020
 1.6580	13.9880
 1.6590	13.9750
 1.6600	13.9610
 1.6610	13.9470
 1.6620	13.9320
 1.6630	13.9180
 1.6640	13.9040
 1.6650	13.8930
 1.6660	13.8840
 1.6670	13.8750
 1.6680	13.8670
 1.6690	13.8600
 1.6700	13.8520
 1.6710	13.8440
 1.6720	13.8380
 1.6730	13.8300
 1.6740	13.8220
 1.6750	13.8130
 1.6760	13.8020
 1.6770	13.7890
 1.6780	13.7740
 1.6790	13.7560
 1.6800	13.7370
 1.6810	13.7170
 1.6820	13.6930
 1.6830	13.6680
 1.6840	13.6410
 1.6850	13.6110
 1.6860	13.5810
 1.6870	13.5490
 1.6880	13.5160
 1.6890	13.4820
 1.6900	13.4460
 1.6910	13.4060
 1.6920	13.3680
 1.6930	13.3270
 1.6940	13.2870
 1.6950	13.2480
 1.6960	13.2080
 1.6970	13.1680
 1.6980	13.1260
 1.6990	13.0840
 1.7000	13.0430
 1.7010	13.0010
 1.7020	12.9590
 1.7030	12.9180
 1.7040	12.8760
 1.7050	12.8320
 1.7060	12.7900
 1.7070	12.7480
 1.7080	12.7070
 1.7090	12.6660
 1.7100	12.6270
 1.7110	12.5900
 1.7120	12.5540
 1.7130	12.5200
 1.7140	12.4870
 1.7150	12.4560
 1.7160	12.4260
 1.7170	12.3970
 1.7180	12.3700
 1.7190	12.3460
 1.7200	12.3230
 1.7210	12.3010
 1.7220	12.2820
 1.7230	12.2650
 1.7240	12.2480
 1.7250	12.2340
 1.7260	12.2210
 1.7270	12.2080
 1.7280	12.1970
 1.7290	12.1880
 1.7300	12.1790
 1.7310	12.1710
 1.7320	12.1640
 1.7330	12.1570
 1.7340	12.1500
 1.7350	12.1400
 1.7360	12.1280
 1.7370	12.1150
 1.7380	12.0990
 1.7390	12.0810
 1.7400	12.0620
 1.7410	12.0400
 1.7420	12.0130
 1.7430	11.9860
 1.7440	11.9560
 1.7450	11.9260
 1.7460	11.8930
 1.7470	11.8610
 1.7480	11.8270
 1.7490	11.7960
 1.7500	11.7660
 1.7510	11.7360
 1.7520	11.7060
 1.7530	11.6760
 1.7540	11.6440
 1.7550	11.6160
 1.7560	11.5910
 1.7570	11.5680
 1.7580	11.5460
 1.7590	11.5240
 1.7600	11.5030
 1.7610	11.4840
 1.7620	11.4650
 1.7630	11.4490
 1.7640	11.4330
 1.7650	11.4170
 1.7660	11.4030
 1.7670	11.3920
 1.7680	11.3790
 1.7690	11.3670
 1.7700	11.3560
 1.7710	11.3450
 1.7720	11.3330
 1.7730	11.3240
 1.7740	11.3140
 1.7750	11.3030
 1.7760	11.2940
 1.7770	11.2850
 1.7780	11.2770
 1.7790	11.2680
 1.7800	11.2610
 1.7810	11.2550
 1.7820	11.2500
 1.7830	11.2460
 1.7840	11.2420
 1.7850	11.2390
 1.7860	11.2370
 1.7870	11.2370
 1.7880	11.2380
 1.7890	11.2410
 1.7900	11.2440
 1.7910	11.2480
 1.7920	11.2520
 1.7930	11.2560
 1.7940	11.2610
 1.7950	11.2660
 1.7960	11.2720
 1.7970	11.2780
 1.7980	11.2830
 1.7990	11.2890
 1.8000	11.2970
 1.8010	11.3050
 1.8020	11.3140
 1.8030	11.3220
 1.8040	11.3300
 1.8050	11.3380
 1.8060	11.3440
 1.8070	11.3510
 1.8080	11.3590
 1.8090	11.3670
 1.8100	11.3760
 1.8110	11.3820
 1.8120	11.3880
 1.8130	11.3950
 1.8140	11.3990
 1.8150	11.4030
 1.8160	11.4070
 1.8170	11.4100
 1.8180	11.4130
 1.8190	11.4190
 1.8200	11.4240
 1.8210	11.4270
 1.8220	11.4300
 1.8230	11.4310
 1.8240	11.4310
 1.8250	11.4280
 1.8260	11.4260
 1.8270	11.3830
 1.8280	11.3400
 1.8290	11.2970
 1.8300	11.2540
 1.8310	11.2110
 1.8320	11.1690
 1.8330	11.1260
 1.8340	11.0830
 1.8350	11.0830
 1.8360	11.0680
 1.8370	11.0540
 1.8380	11.0330
 1.8390	11.0090
 1.8400	10.9830
 1.8410	10.9540
 1.8420	10.9210
 1.8430	10.8860
 1.8440	10.8480
 1.8450	10.8050
 1.8460	10.7590
 1.8470	10.7110
 1.8480	10.6560
 1.8490	10.5980
 1.8500	10.5340
 1.8510	10.4650
 1.8520	10.3910
 1.8530	10.3120
 1.8540	10.2270
 1.8550	10.1360
 1.8560	10.0380
 1.8570	 9.9330
 1.8580	 9.8210
 1.8590	 9.7030
 1.8600	 9.5780
 1.8610	 9.4480
 1.8620	 9.3110
 1.8630	 9.1690
 1.8640	 9.0180
 1.8650	 8.8580
 1.8660	 8.6880
 1.8670	 8.5110
 1.8680	 8.3280
 1.8690	 8.1370
 1.8700	 7.9420
 1.8710	 7.7420
 1.8720	 7.5370
 1.8730	 7.3280
 1.8740	 7.1160
 1.8750	 6.9000
 1.8760	 6.6810
 1.8770	 6.4640
 1.8780	 6.2480
 1.8790	 6.0330
 1.8800	 5.8220
 1.8810	 5.6130
 1.8820	 5.4060
 1.8830	 5.2020
 1.8840	 5.0020
 1.8850	 4.8060
 1.8860	 4.6140
 1.8870	 4.4270
 1.8880	 4.2460
 1.8890	 4.0720
 1.8900	 3.9070
 1.8910	 3.7500
 1.8920	 3.5990
 1.8930	 3.4570
 1.8940	 3.3240
 1.8950	 3.1980
 1.8960	 3.0820
 1.8970	 2.9760
 1.8980	 2.8770
 1.8990	 2.7880
 1.9000	 2.7040
 1.9010	 2.6280
 1.9020	 2.5560
 1.9030	 2.4900
 1.9040	 2.4290
 1.9050	 2.3740
 1.9060	 2.3230
 1.9070	 2.2800
 1.9080	 2.2420
 1.9090	 2.2070
 1.9100	 2.1740
 1.9110	 2.1450
 1.9120	 2.1200
 1.9130	 2.0960
 1.9140	 2.0730
 1.9150	 2.0540
 1.9160	 2.0390
 1.9170	 2.0260
 1.9180	 2.0150
 1.9190	 2.0050
 1.9200	 1.9930
 1.9210	 1.9810
 1.9220	 1.9720
 1.9230	 1.9660
 1.9240	 1.9600
 1.9250	 1.9570
 1.9260	 1.9550
 1.9270	 1.9510
 1.9280	 1.9500
 1.9290	 1.9500
 1.9300	 1.9520
 1.9310	 1.9570
 1.9320	 1.9610
 1.9330	 1.9650
 1.9340	 1.9680
 1.9350	 1.9720
 1.9360	 1.9750
 1.9370	 1.9800
 1.9380	 1.9870
 1.9390	 1.9950
 1.9400	 2.0040
 1.9410	 2.0150
 1.9420	 2.0230
 1.9430	 2.0310
 1.9440	 2.0410
 1.9450	 2.0500
 1.9460	 2.0620
 1.9470	 2.0770
 1.9480	 2.0900
 1.9490	 2.1030
 1.9500	 2.1150
 1.9510	 2.1260
 1.9520	 2.1380
 1.9530	 2.1510
 1.9540	 2.1650
 1.9550	 2.1800
 1.9560	 2.1970
 1.9570	 2.2140
 1.9580	 2.2320
 1.9590	 2.2500
 1.9600	 2.2670
 1.9610	 2.2830
 1.9620	 2.2980
 1.9630	 2.3110
 1.9640	 2.3240
 1.9650	 2.3380
 1.9660	 2.3540
 1.9670	 2.3720
 1.9680	 2.3910
 1.9690	 2.4100
 1.9700	 2.4290
 1.9710	 2.4470
 1.9720	 2.4660
 1.9730	 2.4820
 1.9740	 2.5030
 1.9750	 2.5240
 1.9760	 2.5460
 1.9770	 2.5680
 1.9780	 2.5900
 1.9790	 2.6120
 1.9800	 2.6330
 1.9810	 2.6550
 1.9820	 2.6770
 1.9830	 2.6990
 1.9840	 2.7190
 1.9850	 2.7410
 1.9860	 2.7620
 1.9870	 2.7860
 1.9880	 2.8100
 1.9890	 2.8350
 1.9900	 2.8580
 1.9910	 2.8790
 1.9920	 2.9030
 1.9930	 2.9290
 1.9940	 2.9540
 1.9950	 2.9810
 1.9960	 3.0050
 1.9970	 3.0250
 1.9980	 3.0470
 1.9990	 3.0690
 2.0000	 3.0920
 2.0010	 3.1160
 2.0020	 3.1430
 2.0030	 3.1670
 2.0040	 3.1910
 2.0050	 3.2140
 2.0060	 3.2360
 2.0070	 3.2600
 2.0080	 3.2870
 2.0090	 3.3110
 2.0100	 3.3340
 2.0110	 3.3580
 2.0120	 3.3820
 2.0130	 3.4040
 2.0140	 3.4270
 2.0150	 3.4470
 2.0160	 3.4670
 2.0170	 3.4870
 2.0180	 3.5070
 2.0190	 3.5310
 2.0200	 3.5520
 2.0210	 3.5730
 2.0220	 3.5940
 2.0230	 3.6140
 2.0240	 3.6350
 2.0250	 3.6550
 2.0260	 3.6740
 2.0270	 3.6930
 2.0280	 3.7120
 2.0290	 3.7280
 2.0300	 3.7430
 2.0310	 3.7610
 2.0320	 3.7800
 2.0330	 3.7980
 2.0340	 3.8180
 2.0350	 3.8350
 2.0360	 3.8490
 2.0370	 3.8640
 2.0380	 3.8800
 2.0390	 3.8940
 2.0400	 3.9070
 2.0410	 3.9210
 2.0420	 3.9340
 2.0430	 3.9490
 2.0440	 3.9630
 2.0450	 3.9790
 2.0460	 3.9930
 2.0470	 4.0060
 2.0480	 4.0200
 2.0490	 4.0350
 2.0500	 4.0480
 2.0510	 4.0610
 2.0520	 4.0730
 2.0530	 4.0810
 2.0540	 4.0920
 2.0550	 4.1030
 2.0560	 4.1160
 2.0570	 4.1300
 2.0580	 4.1440
 2.0590	 4.1590
 2.0600	 4.1740
 2.0610	 4.1890
 2.0620	 4.2050
 2.0630	 4.2190
 2.0640	 4.2300
 2.0650	 4.2430
 2.0660	 4.2570
 2.0670	 4.2710
 2.0680	 4.2870
 2.0690	 4.3010
 2.0700	 4.3150
 2.0710	 4.3280
 2.0720	 4.3420
 2.0730	 4.3540
 2.0740	 4.3670
 2.0750	 4.3810
 2.0760	 4.3950
 2.0770	 4.4110
 2.0780	 4.4260
 2.0790	 4.4410
 2.0800	 4.4560
 2.0810	 4.4700
 2.0820	 4.4830
 2.0830	 4.4960
 2.0840	 4.5080
 2.0850	 4.5190
 2.0860	 4.5310
 2.0870	 4.5430
 2.0880	 4.5550
 2.0890	 4.5680
 2.0900	 4.5820
 2.0910	 4.5950
 2.0920	 4.6080
 2.0930	 4.6220
 2.0940	 4.6350
 2.0950	 4.6490
 2.0960	 4.6650
 2.0970	 4.6790
 2.0980	 4.6940
 2.0990	 4.7070
 2.1000	 4.7190
 2.1010	 4.7320
 2.1020	 4.7450
 2.1030	 4.7570
 2.1040	 4.7690
 2.1050	 4.7800
 2.1060	 4.7920
 2.1070	 4.8020
 2.1080	 4.8150
 2.1090	 4.8300
 2.1100	 4.8430
 2.1110	 4.8580
 2.1120	 4.8710
 2.1130	 4.8840
 2.1140	 4.8960
 2.1150	 4.9080
 2.1160	 4.9200
 2.1170	 4.9320
 2.1180	 4.9440
 2.1190	 4.9590
 2.1200	 4.9720
 2.1210	 4.9820
 2.1220	 4.9950
 2.1230	 5.0050
 2.1240	 5.0130
 2.1250	 5.0210
 2.1260	 5.0260
 2.1270	 5.0350
 2.1280	 5.0450
 2.1290	 5.0550
 2.1300	 5.0660
 2.1310	 5.0760
 2.1320	 5.0850
 2.1330	 5.0960
 2.1340	 5.1080
 2.1350	 5.1210
 2.1360	 5.1350
 2.1370	 5.1480
 2.1380	 5.1620
 2.1390	 5.1740
 2.1400	 5.1860
 2.1410	 5.1980
 2.1420	 5.2080
 2.1430	 5.2180
 2.1440	 5.2290
 2.1450	 5.2390
 2.1460	 5.2520
 2.1470	 5.2670
 2.1480	 5.2810
 2.1490	 5.2970
 2.1500	 5.3120
 2.1510	 5.3270
 2.1520	 5.3410
 2.1530	 5.3550
 2.1540	 5.3690
 2.1550	 5.3840
 2.1560	 5.3970
 2.1570	 5.4100
 2.1580	 5.4230
 2.1590	 5.4370
 2.1600	 5.4510
 2.1610	 5.4640
 2.1620	 5.4810
 2.1630	 5.4960
 2.1640	 5.5130
 2.1650	 5.5260
 2.1660	 5.5390
 2.1670	 5.5520
 2.1680	 5.5610
 2.1690	 5.5740
 2.1700	 5.5910
 2.1710	 5.6050
 2.1720	 5.6190
 2.1730	 5.6340
 2.1740	 5.6490
 2.1750	 5.6620
 2.1760	 5.6740
 2.1770	 5.6860
 2.1780	 5.6940
 2.1790	 5.7050
 2.1800	 5.7140
 2.1810	 5.7270
 2.1820	 5.7420
 2.1830	 5.7570
 2.1840	 5.7720
 2.1850	 5.7870
 2.1860	 5.8000
 2.1870	 5.8110
 2.1880	 5.8220
 2.1890	 5.8340
 2.1900	 5.8460
 2.1910	 5.8570
 2.1920	 5.8700
 2.1930	 5.8860
 2.1940	 5.9000
 2.1950	 5.9150
 2.1960	 5.9290
 2.1970	 5.9420
 2.1980	 5.9540
 2.1990	 5.9650
 2.2000	 5.9760
 2.2010	 5.9870
 2.2020	 5.9970
 2.2030	 6.0060
 2.2040	 6.0140
 2.2050	 6.0160
 2.2060	 6.0270
 2.2070	 6.0360
 2.2080	 6.0450
 2.2090	 6.0530
 2.2100	 6.0630
 2.2110	 6.0690
 2.2120	 6.0730
 2.2130	 6.0770
 2.2140	 6.0780
 2.2150	 6.0820
 2.2160	 6.0870
 2.2170	 6.0910
 2.2180	 6.1000
 2.2190	 6.1020
 2.2200	 6.1000
 2.2210	 6.0980
 2.2220	 6.0930
 2.2230	 6.0880
 2.2240	 6.0840
 2.2250	 6.0790
 2.2260	 6.0760
 2.2270	 6.0680
 2.2280	 6.0550
 2.2290	 6.0440
 2.2300	 6.0300
 2.2310	 6.0130
 2.2320	 5.9980
 2.2330	 5.9810
 2.2340	 5.9620
 2.2350	 5.9370
 2.2360	 5.9160
 2.2370	 5.8950
 2.2380	 5.8700
 2.2390	 5.8440
 2.2400	 5.8170
 2.2410	 5.7870
 2.2420	 5.7560
 2.2430	 5.7230
 2.2440	 5.6890
 2.2450	 5.6500
 2.2460	 5.6150
 2.2470	 5.5830
 2.2480	 5.5460
 2.2490	 5.5060
 2.2500	 5.4680
 2.2510	 5.4280
 2.2520	 5.3890
 2.2530	 5.3510
 2.2540	 5.3150
 2.2550	 5.2780
 2.2560	 5.2420
 2.2570	 5.2110
 2.2580	 5.1770
 2.2590	 5.1420
 2.2600	 5.1080
 2.2610	 5.0730
 2.2620	 5.0380
 2.2630	 5.0020
 2.2640	 4.9680
 2.2650	 4.9390
 2.2660	 4.9110
 2.2670	 4.8830
 2.2680	 4.8610
 2.2690	 4.8340
 2.2700	 4.8030
 2.2710	 4.7770
 2.2720	 4.7510
 2.2730	 4.7270
 2.2740	 4.7060
 2.2750	 4.6840
 2.2760	 4.6640
 2.2770	 4.6420
 2.2780	 4.6180
 2.2790	 4.5960
 2.2800	 4.5720
 2.2810	 4.5500
 2.2820	 4.5320
 2.2830	 4.5100
 2.2840	 4.4870
 2.2850	 4.4640
 2.2860	 4.4410
 2.2870	 4.4170
 2.2880	 4.3950
 2.2890	 4.3690
 2.2900	 4.3410
 2.2910	 4.3130
 2.2920	 4.2820
 2.2930	 4.2540
 2.2940	 4.2270
 2.2950	 4.2030
 2.2960	 4.1830
 2.2970	 4.1590
 2.2980	 4.1320
 2.2990	 4.1090
 2.3000	 4.0860
 2.3010	 4.0650
 2.3020	 4.0470
 2.3030	 4.0290
 2.3040	 4.0150
 2.3050	 4.0020
 2.3060	 3.9930
 2.3070	 3.9860
 2.3080	 3.9790
 2.3090	 3.9740
 2.3100	 3.9620
 2.3110	 3.9610
 2.3120	 3.9620
 2.3130	 3.9670
 2.3140	 3.9670
 2.3150	 3.9730
 2.3160	 3.9700
 2.3170	 3.9580
 2.3180	 3.9520
 2.3190	 3.9470
 2.3200	 3.9430
 2.3210	 3.9420
 2.3220	 3.9390
 2.3230	 3.9400
 2.3240	 3.9330
 2.3250	 3.9210
 2.3260	 3.9090
 2.3270	 3.8870
 2.3280	 3.8760
 2.3290	 3.8710
 2.3300	 3.8590
 2.3310	 3.8490
 2.3320	 3.8350
 2.3330	 3.8130
 2.3340	 3.7940
 2.3350	 3.7770
 2.3360	 3.7610
 2.3370	 3.7410
 2.3380	 3.7270
 2.3390	 3.7200
 2.3400	 3.7080
 2.3410	 3.6960
 2.3420	 3.6860
 2.3430	 3.6730
 2.3440	 3.6620
 2.3450	 3.6560
 2.3460	 3.6440
 2.3470	 3.6270
 2.3480	 3.6120
 2.3490	 3.5930
 2.3500	 3.5770
 2.3510	 3.5620
 2.3520	 3.5500
 2.3530	 3.5410
 2.3540	 3.5330
 2.3550	 3.5330
 2.3560	 3.5320
 2.3570	 3.5250
 2.3580	 3.5220
 2.3590	 3.5180
 2.3600	 3.5140
 2.3610	 3.5140
 2.3620	 3.5080
 2.3630	 3.4940
 2.3640	 3.4770
 2.3650	 3.4600
 2.3660	 3.4480
 2.3670	 3.4390
 2.3680	 3.4310
 2.3690	 3.4210
 2.3700	 3.4120
 2.3710	 3.4070
 2.3720	 3.3990
 2.3730	 3.3920
 2.3740	 3.3890
 2.3750	 3.3780
 2.3760	 3.3620
 2.3770	 3.3430
 2.3780	 3.3300
 2.3790	 3.3170
 2.3800	 3.3050
 2.3810	 3.3010
 2.3820	 3.2890
 2.3830	 3.2730
 2.3840	 3.2690
 2.3850	 3.2630
 2.3860	 3.2480
 2.3870	 3.2330
 2.3880	 3.2130
 2.3890	 3.1930
 2.3900	 3.1760
 2.3910	 3.1640
 2.3920	 3.1570
 2.3930	 3.1460
 2.3940	 3.1390
 2.3950	 3.1360
 2.3960	 3.1250
 2.3970	 3.1100
 2.3980	 3.0880
 2.3990	 3.0610
 2.4000	 3.0450
 2.4010	 3.0370
 2.4020	 3.0320
 2.4030	 3.0280
 2.4040	 3.0150
 2.4050	 2.9910
 2.4060	 2.9690
 2.4070	 2.9500
 2.4080	 2.9260
 2.4090	 2.9100
 2.4100	 2.8950
 2.4110	 2.8830
 2.4120	 2.8830
 2.4130	 2.8710
 2.4140	 2.8570
 2.4150	 2.8470
 2.4160	 2.8230
 2.4170	 2.8080
 2.4180	 2.8080
 2.4190	 2.7910
 2.4200	 2.7720
 2.4210	 2.7600
 2.4220	 2.7340
 2.4230	 2.7220
 2.4240	 2.7200
 2.4250	 2.7090
 2.4260	 2.6920
 2.4270	 2.6710
 2.4280	 2.6510
 2.4290	 2.6310
 2.4300	 2.6210
 2.4310	 2.6110
 2.4320	 2.5980
 2.4330	 2.5990
 2.4340	 2.6000
 2.4350	 2.5940
 2.4360	 2.5780
 2.4370	 2.5450
 2.4380	 2.5190
 2.4390	 2.5000
 2.4400	 2.4750
 2.4410	 2.4650
 2.4420	 2.4490
 2.4430	 2.4360
 2.4440	 2.4330
 2.4450	 2.4110
 2.4460	 2.3900
 2.4470	 2.3760
 2.4480	 2.3590
 2.4490	 2.3590
 2.4500	 2.3590
 2.4510	 2.3390
 2.4520	 2.3240
 2.4530	 2.3050
 2.4540	 2.2700
 2.4550	 2.2460
 2.4560	 2.2260
 2.4570	 2.2080
 2.4580	 2.2190
 2.4590	 2.2400
 2.4600	 2.2460
 2.4610	 2.2300
 2.4620	 2.2020
 2.4630	 2.1800
 2.4640	 2.1450
 2.4650	 2.1270
 2.4660	 2.1270
 2.4670	 2.1100
 2.4680	 2.1100
 2.4690	 2.1120
 2.4700	 2.1090
 2.4710	 2.0980
 2.4720	 2.0850
 2.4730	 2.0740
 2.4740	 2.0640
 2.4750	 2.0500
 2.4760	 2.0440
 2.4770	 2.0470
 2.4780	 2.0350
 2.4790	 2.0210
 2.4800	 2.0010
 2.4810	 1.9570
 2.4820	 1.9690
 2.4830	 1.9630
 2.4840	 1.9760
 2.4850	 2.0180
 2.4860	 2.0080
 2.4870	 1.9780
 2.4880	 1.9640
 2.4890	 1.9120
 2.4900	 1.8680
 2.4910	 1.8600
 2.4920	 1.8630
 2.4930	 1.8820
 2.4940	 1.8970
 2.4950	 1.9410
 2.4960	 1.9470
 2.4970	 1.8860
 2.4980	 1.8520
 2.4990	 1.7990
 2.5000	 1.7520
