Name: Ehretia austin-smithii
Type: vegetation
Class: Tree
Genus: Ehretia
Species: austin-smithii
Sample No.: JPL172
Owner: JPL
Wavelength Range: VSWIR
Origin: 34.12625; -118.1137; WGS84
Collection Date: 9/14/2016
Description: Samples were collected at the Huntington Garden in San Marino California as part of a JPL Subcontract studying HyTES imagery. Samples were taken to JPL and processed within 48 hours of collection. The same leaves were processed in the Nicolet and then measured using the ASD.
Measurement: Bidirectional reflectance
First Column: X
Second Column: Y
X Units: Wavelength (micrometer)
Y Units: Reflectance (percentage)
First X Value: 0.35
Last X Value: 2.5
Number of X Values: 2151
Additional Information: vegetation.tree.ehretia.austin-smithii.vswir.jpl172.jpl.asd.ancillary.txt

 0.3500	 7.2510
 0.3510	 7.1180
 0.3520	 7.1470
 0.3530	 7.2180
 0.3540	 7.2020
 0.3550	 7.1730
 0.3560	 7.0800
 0.3570	 7.0070
 0.3580	 7.0720
 0.3590	 7.0910
 0.3600	 7.0870
 0.3610	 7.0860
 0.3620	 7.0840
 0.3630	 7.0740
 0.3640	 7.0560
 0.3650	 7.0480
 0.3660	 7.1380
 0.3670	 7.1440
 0.3680	 7.0720
 0.3690	 7.0560
 0.3700	 7.0710
 0.3710	 7.0930
 0.3720	 7.0830
 0.3730	 6.9660
 0.3740	 6.9550
 0.3750	 7.0070
 0.3760	 7.0190
 0.3770	 7.0510
 0.3780	 7.0900
 0.3790	 7.0920
 0.3800	 7.0020
 0.3810	 6.9570
 0.3820	 6.9690
 0.3830	 7.0080
 0.3840	 6.9900
 0.3850	 6.9870
 0.3860	 7.0040
 0.3870	 7.0160
 0.3880	 7.0020
 0.3890	 6.9810
 0.3900	 6.9770
 0.3910	 7.0110
 0.3920	 6.9970
 0.3930	 6.9870
 0.3940	 7.0210
 0.3950	 7.0560
 0.3960	 7.0610
 0.3970	 7.0360
 0.3980	 7.0070
 0.3990	 7.0210
 0.4000	 7.0370
 0.4010	 7.0390
 0.4020	 7.0580
 0.4030	 7.0530
 0.4040	 7.0400
 0.4050	 7.0400
 0.4060	 7.0240
 0.4070	 7.0310
 0.4080	 7.0570
 0.4090	 7.0690
 0.4100	 7.0530
 0.4110	 7.0350
 0.4120	 7.0360
 0.4130	 7.0520
 0.4140	 7.0710
 0.4150	 7.0810
 0.4160	 7.0750
 0.4170	 7.0680
 0.4180	 7.0770
 0.4190	 7.0890
 0.4200	 7.0710
 0.4210	 7.0700
 0.4220	 7.0790
 0.4230	 7.0850
 0.4240	 7.0840
 0.4250	 7.0760
 0.4260	 7.0710
 0.4270	 7.0780
 0.4280	 7.0860
 0.4290	 7.0850
 0.4300	 7.0760
 0.4310	 7.0770
 0.4320	 7.0610
 0.4330	 7.0410
 0.4340	 7.0340
 0.4350	 7.0240
 0.4360	 7.0230
 0.4370	 7.0330
 0.4380	 7.0470
 0.4390	 7.0650
 0.4400	 7.0820
 0.4410	 7.0980
 0.4420	 7.1110
 0.4430	 7.1150
 0.4440	 7.1160
 0.4450	 7.1270
 0.4460	 7.1330
 0.4470	 7.1390
 0.4480	 7.1440
 0.4490	 7.1470
 0.4500	 7.1520
 0.4510	 7.1570
 0.4520	 7.1630
 0.4530	 7.1740
 0.4540	 7.1800
 0.4550	 7.1790
 0.4560	 7.1780
 0.4570	 7.1910
 0.4580	 7.2010
 0.4590	 7.1990
 0.4600	 7.2050
 0.4610	 7.2110
 0.4620	 7.2140
 0.4630	 7.2140
 0.4640	 7.2240
 0.4650	 7.2250
 0.4660	 7.2150
 0.4670	 7.2180
 0.4680	 7.2320
 0.4690	 7.2410
 0.4700	 7.2370
 0.4710	 7.2380
 0.4720	 7.2430
 0.4730	 7.2490
 0.4740	 7.2500
 0.4750	 7.2630
 0.4760	 7.2700
 0.4770	 7.2670
 0.4780	 7.2700
 0.4790	 7.2700
 0.4800	 7.2700
 0.4810	 7.2720
 0.4820	 7.2760
 0.4830	 7.2750
 0.4840	 7.2700
 0.4850	 7.2680
 0.4860	 7.2650
 0.4870	 7.2680
 0.4880	 7.2770
 0.4890	 7.2860
 0.4900	 7.2950
 0.4910	 7.3050
 0.4920	 7.3160
 0.4930	 7.3300
 0.4940	 7.3460
 0.4950	 7.3640
 0.4960	 7.3820
 0.4970	 7.4020
 0.4980	 7.4210
 0.4990	 7.4360
 0.5000	 7.4650
 0.5010	 7.4940
 0.5020	 7.5220
 0.5030	 7.5590
 0.5040	 7.5910
 0.5050	 7.6290
 0.5060	 7.6780
 0.5070	 7.7200
 0.5080	 7.7700
 0.5090	 7.8290
 0.5100	 7.8870
 0.5110	 7.9530
 0.5120	 8.0280
 0.5130	 8.1100
 0.5140	 8.1960
 0.5150	 8.2920
 0.5160	 8.3960
 0.5170	 8.5060
 0.5180	 8.6200
 0.5190	 8.7370
 0.5200	 8.8600
 0.5210	 8.9920
 0.5220	 9.1220
 0.5230	 9.2520
 0.5240	 9.3860
 0.5250	 9.5170
 0.5260	 9.6440
 0.5270	 9.7650
 0.5280	 9.8780
 0.5290	 9.9890
 0.5300	10.0930
 0.5310	10.1870
 0.5320	10.2760
 0.5330	10.3600
 0.5340	10.4370
 0.5350	10.5060
 0.5360	10.5650
 0.5370	10.6160
 0.5380	10.6600
 0.5390	10.6960
 0.5400	10.7180
 0.5410	10.7300
 0.5420	10.7370
 0.5430	10.7550
 0.5440	10.7860
 0.5450	10.8280
 0.5460	10.8780
 0.5470	10.9310
 0.5480	10.9800
 0.5490	11.0210
 0.5500	11.0480
 0.5510	11.0700
 0.5520	11.0860
 0.5530	11.0960
 0.5540	11.0970
 0.5550	11.0910
 0.5560	11.0750
 0.5570	11.0440
 0.5580	11.0080
 0.5590	10.9650
 0.5600	10.9130
 0.5610	10.8550
 0.5620	10.7910
 0.5630	10.7240
 0.5640	10.6570
 0.5650	10.5890
 0.5660	10.5170
 0.5670	10.4400
 0.5680	10.3620
 0.5690	10.2840
 0.5700	10.2050
 0.5710	10.1260
 0.5720	10.0470
 0.5730	 9.9720
 0.5740	 9.9010
 0.5750	 9.8320
 0.5760	 9.7690
 0.5770	 9.7090
 0.5780	 9.6530
 0.5790	 9.6030
 0.5800	 9.5540
 0.5810	 9.5090
 0.5820	 9.4720
 0.5830	 9.4330
 0.5840	 9.3980
 0.5850	 9.3670
 0.5860	 9.3380
 0.5870	 9.3100
 0.5880	 9.2860
 0.5890	 9.2680
 0.5900	 9.2490
 0.5910	 9.2310
 0.5920	 9.2130
 0.5930	 9.1940
 0.5940	 9.1880
 0.5950	 9.1820
 0.5960	 9.1720
 0.5970	 9.1670
 0.5980	 9.1590
 0.5990	 9.1490
 0.6000	 9.1380
 0.6010	 9.1270
 0.6020	 9.1130
 0.6030	 9.0950
 0.6040	 9.0740
 0.6050	 9.0470
 0.6060	 9.0160
 0.6070	 8.9810
 0.6080	 8.9440
 0.6090	 8.8940
 0.6100	 8.8280
 0.6110	 8.7530
 0.6120	 8.7160
 0.6130	 8.6990
 0.6140	 8.6860
 0.6150	 8.6580
 0.6160	 8.6300
 0.6170	 8.6020
 0.6180	 8.5750
 0.6190	 8.5460
 0.6200	 8.5190
 0.6210	 8.4970
 0.6220	 8.4790
 0.6230	 8.4670
 0.6240	 8.4560
 0.6250	 8.4470
 0.6260	 8.4410
 0.6270	 8.4370
 0.6280	 8.4320
 0.6290	 8.4270
 0.6300	 8.4210
 0.6310	 8.4180
 0.6320	 8.4160
 0.6330	 8.4130
 0.6340	 8.4060
 0.6350	 8.3930
 0.6360	 8.3780
 0.6370	 8.3570
 0.6380	 8.3340
 0.6390	 8.3080
 0.6400	 8.2770
 0.6410	 8.2450
 0.6420	 8.2130
 0.6430	 8.1800
 0.6440	 8.1480
 0.6450	 8.1140
 0.6460	 8.0800
 0.6470	 8.0480
 0.6480	 8.0220
 0.6490	 7.9970
 0.6500	 7.9750
 0.6510	 7.9570
 0.6520	 7.9440
 0.6530	 7.9330
 0.6540	 7.9210
 0.6550	 7.9050
 0.6560	 7.8900
 0.6570	 7.8750
 0.6580	 7.8570
 0.6590	 7.8370
 0.6600	 7.8150
 0.6610	 7.7920
 0.6620	 7.7680
 0.6630	 7.7510
 0.6640	 7.7370
 0.6650	 7.7240
 0.6660	 7.7130
 0.6670	 7.7040
 0.6680	 7.7000
 0.6690	 7.7030
 0.6700	 7.7070
 0.6710	 7.7130
 0.6720	 7.7240
 0.6730	 7.7370
 0.6740	 7.7550
 0.6750	 7.7750
 0.6760	 7.7960
 0.6770	 7.8210
 0.6780	 7.8510
 0.6790	 7.8850
 0.6800	 7.9210
 0.6810	 7.9600
 0.6820	 8.0030
 0.6830	 8.0510
 0.6840	 8.1030
 0.6850	 8.1620
 0.6860	 8.2280
 0.6870	 8.3020
 0.6880	 8.3870
 0.6890	 8.4900
 0.6900	 8.6140
 0.6910	 8.7620
 0.6920	 8.9410
 0.6930	 9.1560
 0.6940	 9.4120
 0.6950	 9.7120
 0.6960	10.0580
 0.6970	10.4480
 0.6980	10.8790
 0.6990	11.3490
 0.7000	11.8560
 0.7010	12.3920
 0.7020	12.9500
 0.7030	13.5240
 0.7040	14.1110
 0.7050	14.7080
 0.7060	15.3090
 0.7070	15.9140
 0.7080	16.5240
 0.7090	17.1360
 0.7100	17.7530
 0.7110	18.3730
 0.7120	18.9970
 0.7130	19.6210
 0.7140	20.2440
 0.7150	20.8680
 0.7160	21.4900
 0.7170	22.1080
 0.7180	22.7210
 0.7190	23.3300
 0.7200	23.9300
 0.7210	24.5210
 0.7220	25.1030
 0.7230	25.6730
 0.7240	26.2270
 0.7250	26.7690
 0.7260	27.2940
 0.7270	27.7990
 0.7280	28.2870
 0.7290	28.7580
 0.7300	29.2100
 0.7310	29.6410
 0.7320	30.0540
 0.7330	30.4470
 0.7340	30.8220
 0.7350	31.1800
 0.7360	31.5190
 0.7370	31.8390
 0.7380	32.1410
 0.7390	32.4250
 0.7400	32.6920
 0.7410	32.9440
 0.7420	33.1830
 0.7430	33.4050
 0.7440	33.6130
 0.7450	33.8060
 0.7460	33.9860
 0.7470	34.1540
 0.7480	34.3100
 0.7490	34.4560
 0.7500	34.5920
 0.7510	34.7190
 0.7520	34.8380
 0.7530	34.9500
 0.7540	35.0550
 0.7550	35.1550
 0.7560	35.2490
 0.7570	35.3370
 0.7580	35.4210
 0.7590	35.5030
 0.7600	35.5810
 0.7610	35.6530
 0.7620	35.7220
 0.7630	35.7890
 0.7640	35.8540
 0.7650	35.9160
 0.7660	35.9740
 0.7670	36.0320
 0.7680	36.0900
 0.7690	36.1440
 0.7700	36.1970
 0.7710	36.2510
 0.7720	36.3040
 0.7730	36.3550
 0.7740	36.4050
 0.7750	36.4560
 0.7760	36.5080
 0.7770	36.5580
 0.7780	36.6080
 0.7790	36.6610
 0.7800	36.7080
 0.7810	36.7560
 0.7820	36.8070
 0.7830	36.8550
 0.7840	36.9080
 0.7850	36.9570
 0.7860	37.0000
 0.7870	37.0500
 0.7880	37.0980
 0.7890	37.1440
 0.7900	37.1880
 0.7910	37.2350
 0.7920	37.2800
 0.7930	37.3220
 0.7940	37.3650
 0.7950	37.4080
 0.7960	37.4500
 0.7970	37.4890
 0.7980	37.5280
 0.7990	37.5680
 0.8000	37.6070
 0.8010	37.6440
 0.8020	37.6800
 0.8030	37.7170
 0.8040	37.7540
 0.8050	37.7880
 0.8060	37.8200
 0.8070	37.8510
 0.8080	37.8810
 0.8090	37.9120
 0.8100	37.9420
 0.8110	37.9720
 0.8120	38.0000
 0.8130	38.0250
 0.8140	38.0520
 0.8150	38.0790
 0.8160	38.1040
 0.8170	38.1300
 0.8180	38.1540
 0.8190	38.1760
 0.8200	38.2010
 0.8210	38.2260
 0.8220	38.2480
 0.8230	38.2690
 0.8240	38.2900
 0.8250	38.3120
 0.8260	38.3340
 0.8270	38.3540
 0.8280	38.3730
 0.8290	38.3930
 0.8300	38.4130
 0.8310	38.4330
 0.8320	38.4550
 0.8330	38.4730
 0.8340	38.4930
 0.8350	38.5180
 0.8360	38.5430
 0.8370	38.5620
 0.8380	38.5800
 0.8390	38.6030
 0.8400	38.6270
 0.8410	38.6510
 0.8420	38.6750
 0.8430	38.7010
 0.8440	38.7270
 0.8450	38.7530
 0.8460	38.7790
 0.8470	38.8050
 0.8480	38.8340
 0.8490	38.8650
 0.8500	38.8960
 0.8510	38.9250
 0.8520	38.9540
 0.8530	38.9850
 0.8540	39.0190
 0.8550	39.0530
 0.8560	39.0910
 0.8570	39.1310
 0.8580	39.1720
 0.8590	39.2110
 0.8600	39.2500
 0.8610	39.2920
 0.8620	39.3360
 0.8630	39.3780
 0.8640	39.4210
 0.8650	39.4690
 0.8660	39.5150
 0.8670	39.5630
 0.8680	39.6140
 0.8690	39.6690
 0.8700	39.7210
 0.8710	39.7740
 0.8720	39.8270
 0.8730	39.8820
 0.8740	39.9400
 0.8750	40.0010
 0.8760	40.0610
 0.8770	40.1190
 0.8780	40.1820
 0.8790	40.2460
 0.8800	40.3100
 0.8810	40.3740
 0.8820	40.4380
 0.8830	40.5020
 0.8840	40.5680
 0.8850	40.6370
 0.8860	40.7030
 0.8870	40.7700
 0.8880	40.8420
 0.8890	40.9110
 0.8900	40.9810
 0.8910	41.0520
 0.8920	41.1200
 0.8930	41.1910
 0.8940	41.2580
 0.8950	41.3240
 0.8960	41.3910
 0.8970	41.4650
 0.8980	41.5360
 0.8990	41.6000
 0.9000	41.6630
 0.9010	41.7330
 0.9020	41.8030
 0.9030	41.8700
 0.9040	41.9360
 0.9050	42.0070
 0.9060	42.0750
 0.9070	42.1360
 0.9080	42.2000
 0.9090	42.2630
 0.9100	42.3260
 0.9110	42.3880
 0.9120	42.4400
 0.9130	42.4960
 0.9140	42.5580
 0.9150	42.6200
 0.9160	42.6740
 0.9170	42.7300
 0.9180	42.7850
 0.9190	42.8360
 0.9200	42.8830
 0.9210	42.9310
 0.9220	42.9820
 0.9230	43.0330
 0.9240	43.0840
 0.9250	43.1260
 0.9260	43.1630
 0.9270	43.2000
 0.9280	43.2390
 0.9290	43.2800
 0.9300	43.3190
 0.9310	43.3500
 0.9320	43.3810
 0.9330	43.4130
 0.9340	43.4450
 0.9350	43.4730
 0.9360	43.5040
 0.9370	43.5340
 0.9380	43.5590
 0.9390	43.5860
 0.9400	43.6070
 0.9410	43.6270
 0.9420	43.6490
 0.9430	43.6720
 0.9440	43.6940
 0.9450	43.7120
 0.9460	43.7250
 0.9470	43.7320
 0.9480	43.7430
 0.9490	43.7490
 0.9500	43.7470
 0.9510	43.7590
 0.9520	43.7700
 0.9530	43.7740
 0.9540	43.7690
 0.9550	43.7680
 0.9560	43.7700
 0.9570	43.7740
 0.9580	43.7770
 0.9590	43.7790
 0.9600	43.7750
 0.9610	43.7730
 0.9620	43.7850
 0.9630	43.7950
 0.9640	43.7970
 0.9650	43.8010
 0.9660	43.8160
 0.9670	43.8210
 0.9680	43.8310
 0.9690	43.8420
 0.9700	43.8440
 0.9710	43.8580
 0.9720	43.8770
 0.9730	43.8920
 0.9740	43.8970
 0.9750	43.8990
 0.9760	43.9090
 0.9770	43.9190
 0.9780	43.9180
 0.9790	43.9330
 0.9800	43.9500
 0.9810	43.9700
 0.9820	43.9950
 0.9830	43.9910
 0.9840	44.0000
 0.9850	44.0200
 0.9860	44.0280
 0.9870	44.0420
 0.9880	44.0610
 0.9890	44.0730
 0.9900	44.0730
 0.9910	44.0920
 0.9920	44.1030
 0.9930	44.1060
 0.9940	44.1160
 0.9950	44.1400
 0.9960	44.1640
 0.9970	44.1750
 0.9980	44.1740
 0.9990	44.1790
 1.0000	44.1880
 1.0010	44.3770
 1.0020	44.3890
 1.0030	44.4020
 1.0040	44.4180
 1.0050	44.4320
 1.0060	44.4450
 1.0070	44.4560
 1.0080	44.4690
 1.0090	44.4810
 1.0100	44.4940
 1.0110	44.5090
 1.0120	44.5230
 1.0130	44.5390
 1.0140	44.5510
 1.0150	44.5610
 1.0160	44.5750
 1.0170	44.5870
 1.0180	44.5970
 1.0190	44.6130
 1.0200	44.6270
 1.0210	44.6410
 1.0220	44.6570
 1.0230	44.6720
 1.0240	44.6900
 1.0250	44.7010
 1.0260	44.7080
 1.0270	44.7180
 1.0280	44.7240
 1.0290	44.7360
 1.0300	44.7530
 1.0310	44.7680
 1.0320	44.7840
 1.0330	44.8000
 1.0340	44.8080
 1.0350	44.8170
 1.0360	44.8260
 1.0370	44.8330
 1.0380	44.8440
 1.0390	44.8600
 1.0400	44.8720
 1.0410	44.8830
 1.0420	44.8950
 1.0430	44.9050
 1.0440	44.9160
 1.0450	44.9300
 1.0460	44.9410
 1.0470	44.9500
 1.0480	44.9590
 1.0490	44.9670
 1.0500	44.9760
 1.0510	44.9870
 1.0520	44.9950
 1.0530	45.0050
 1.0540	45.0160
 1.0550	45.0260
 1.0560	45.0370
 1.0570	45.0480
 1.0580	45.0570
 1.0590	45.0680
 1.0600	45.0800
 1.0610	45.0900
 1.0620	45.1000
 1.0630	45.1100
 1.0640	45.1200
 1.0650	45.1290
 1.0660	45.1380
 1.0670	45.1470
 1.0680	45.1570
 1.0690	45.1650
 1.0700	45.1740
 1.0710	45.1860
 1.0720	45.1940
 1.0730	45.2020
 1.0740	45.2100
 1.0750	45.2160
 1.0760	45.2220
 1.0770	45.2290
 1.0780	45.2360
 1.0790	45.2420
 1.0800	45.2490
 1.0810	45.2580
 1.0820	45.2640
 1.0830	45.2660
 1.0840	45.2720
 1.0850	45.2790
 1.0860	45.2850
 1.0870	45.2920
 1.0880	45.3040
 1.0890	45.3100
 1.0900	45.3120
 1.0910	45.3180
 1.0920	45.3250
 1.0930	45.3290
 1.0940	45.3300
 1.0950	45.3350
 1.0960	45.3370
 1.0970	45.3420
 1.0980	45.3520
 1.0990	45.3570
 1.1000	45.3580
 1.1010	45.3600
 1.1020	45.3600
 1.1030	45.3630
 1.1040	45.3660
 1.1050	45.3680
 1.1060	45.3690
 1.1070	45.3680
 1.1080	45.3690
 1.1090	45.3710
 1.1100	45.3720
 1.1110	45.3750
 1.1120	45.3760
 1.1130	45.3770
 1.1140	45.3760
 1.1150	45.3730
 1.1160	45.3710
 1.1170	45.3690
 1.1180	45.3660
 1.1190	45.3620
 1.1200	45.3580
 1.1210	45.3520
 1.1220	45.3450
 1.1230	45.3370
 1.1240	45.3290
 1.1250	45.3170
 1.1260	45.3010
 1.1270	45.2870
 1.1280	45.2740
 1.1290	45.2540
 1.1300	45.2340
 1.1310	45.2090
 1.1320	45.1780
 1.1330	45.1460
 1.1340	45.1120
 1.1350	45.0760
 1.1360	45.0380
 1.1370	44.9970
 1.1380	44.9540
 1.1390	44.9100
 1.1400	44.8660
 1.1410	44.8190
 1.1420	44.7710
 1.1430	44.7240
 1.1440	44.6750
 1.1450	44.6240
 1.1460	44.5760
 1.1470	44.5280
 1.1480	44.4820
 1.1490	44.4370
 1.1500	44.3940
 1.1510	44.3500
 1.1520	44.3110
 1.1530	44.2710
 1.1540	44.2370
 1.1550	44.2080
 1.1560	44.1830
 1.1570	44.1610
 1.1580	44.1390
 1.1590	44.1190
 1.1600	44.0990
 1.1610	44.0820
 1.1620	44.0670
 1.1630	44.0530
 1.1640	44.0430
 1.1650	44.0330
 1.1660	44.0260
 1.1670	44.0170
 1.1680	44.0080
 1.1690	44.0010
 1.1700	43.9930
 1.1710	43.9870
 1.1720	43.9830
 1.1730	43.9800
 1.1740	43.9790
 1.1750	43.9770
 1.1760	43.9730
 1.1770	43.9670
 1.1780	43.9610
 1.1790	43.9570
 1.1800	43.9520
 1.1810	43.9490
 1.1820	43.9450
 1.1830	43.9390
 1.1840	43.9330
 1.1850	43.9290
 1.1860	43.9230
 1.1870	43.9170
 1.1880	43.9130
 1.1890	43.9100
 1.1900	43.9070
 1.1910	43.9080
 1.1920	43.9070
 1.1930	43.9060
 1.1940	43.9060
 1.1950	43.9060
 1.1960	43.9070
 1.1970	43.9090
 1.1980	43.9110
 1.1990	43.9150
 1.2000	43.9180
 1.2010	43.9220
 1.2020	43.9270
 1.2030	43.9310
 1.2040	43.9350
 1.2050	43.9410
 1.2060	43.9480
 1.2070	43.9560
 1.2080	43.9640
 1.2090	43.9730
 1.2100	43.9810
 1.2110	43.9890
 1.2120	43.9970
 1.2130	44.0050
 1.2140	44.0120
 1.2150	44.0210
 1.2160	44.0320
 1.2170	44.0420
 1.2180	44.0520
 1.2190	44.0640
 1.2200	44.0740
 1.2210	44.0840
 1.2220	44.0980
 1.2230	44.1080
 1.2240	44.1160
 1.2250	44.1250
 1.2260	44.1330
 1.2270	44.1420
 1.2280	44.1530
 1.2290	44.1640
 1.2300	44.1750
 1.2310	44.1840
 1.2320	44.1930
 1.2330	44.2020
 1.2340	44.2100
 1.2350	44.2160
 1.2360	44.2240
 1.2370	44.2330
 1.2380	44.2390
 1.2390	44.2460
 1.2400	44.2520
 1.2410	44.2570
 1.2420	44.2620
 1.2430	44.2670
 1.2440	44.2720
 1.2450	44.2780
 1.2460	44.2830
 1.2470	44.2900
 1.2480	44.2960
 1.2490	44.3010
 1.2500	44.3050
 1.2510	44.3090
 1.2520	44.3120
 1.2530	44.3140
 1.2540	44.3180
 1.2550	44.3210
 1.2560	44.3250
 1.2570	44.3270
 1.2580	44.3290
 1.2590	44.3310
 1.2600	44.3320
 1.2610	44.3330
 1.2620	44.3340
 1.2630	44.3340
 1.2640	44.3340
 1.2650	44.3320
 1.2660	44.3320
 1.2670	44.3310
 1.2680	44.3290
 1.2690	44.3260
 1.2700	44.3210
 1.2710	44.3160
 1.2720	44.3100
 1.2730	44.3060
 1.2740	44.3020
 1.2750	44.2970
 1.2760	44.2910
 1.2770	44.2850
 1.2780	44.2780
 1.2790	44.2710
 1.2800	44.2670
 1.2810	44.2620
 1.2820	44.2550
 1.2830	44.2480
 1.2840	44.2400
 1.2850	44.2300
 1.2860	44.2190
 1.2870	44.2080
 1.2880	44.1970
 1.2890	44.1850
 1.2900	44.1720
 1.2910	44.1600
 1.2920	44.1470
 1.2930	44.1320
 1.2940	44.1160
 1.2950	44.1010
 1.2960	44.0830
 1.2970	44.0660
 1.2980	44.0490
 1.2990	44.0290
 1.3000	44.0080
 1.3010	43.9870
 1.3020	43.9640
 1.3030	43.9400
 1.3040	43.9140
 1.3050	43.8880
 1.3060	43.8600
 1.3070	43.8320
 1.3080	43.8040
 1.3090	43.7750
 1.3100	43.7440
 1.3110	43.7100
 1.3120	43.6750
 1.3130	43.6410
 1.3140	43.6050
 1.3150	43.5680
 1.3160	43.5290
 1.3170	43.4900
 1.3180	43.4470
 1.3190	43.4020
 1.3200	43.3590
 1.3210	43.3140
 1.3220	43.2660
 1.3230	43.2190
 1.3240	43.1700
 1.3250	43.1200
 1.3260	43.0710
 1.3270	43.0190
 1.3280	42.9650
 1.3290	42.9100
 1.3300	42.8540
 1.3310	42.7980
 1.3320	42.7410
 1.3330	42.6840
 1.3340	42.6240
 1.3350	42.5630
 1.3360	42.5010
 1.3370	42.4410
 1.3380	42.3790
 1.3390	42.3160
 1.3400	42.2540
 1.3410	42.1940
 1.3420	42.1330
 1.3430	42.0730
 1.3440	42.0120
 1.3450	41.9510
 1.3460	41.8870
 1.3470	41.8240
 1.3480	41.7620
 1.3490	41.7020
 1.3500	41.6420
 1.3510	41.5830
 1.3520	41.5240
 1.3530	41.4650
 1.3540	41.4060
 1.3550	41.3470
 1.3560	41.2870
 1.3570	41.2260
 1.3580	41.1650
 1.3590	41.1000
 1.3600	41.0370
 1.3610	40.9710
 1.3620	40.9020
 1.3630	40.8320
 1.3640	40.7570
 1.3650	40.6790
 1.3660	40.5980
 1.3670	40.5120
 1.3680	40.4220
 1.3690	40.3250
 1.3700	40.2200
 1.3710	40.1070
 1.3720	39.9840
 1.3730	39.8500
 1.3740	39.7100
 1.3750	39.5590
 1.3760	39.3930
 1.3770	39.2170
 1.3780	39.0220
 1.3790	38.8110
 1.3800	38.5860
 1.3810	38.3420
 1.3820	38.0850
 1.3830	37.8150
 1.3840	37.5280
 1.3850	37.2250
 1.3860	36.9070
 1.3870	36.5710
 1.3880	36.2250
 1.3890	35.8660
 1.3900	35.4940
 1.3910	35.1160
 1.3920	34.7280
 1.3930	34.3290
 1.3940	33.9260
 1.3950	33.5150
 1.3960	33.1020
 1.3970	32.6920
 1.3980	32.2830
 1.3990	31.8830
 1.4000	31.4870
 1.4010	31.0960
 1.4020	30.7160
 1.4030	30.3420
 1.4040	29.9810
 1.4050	29.6340
 1.4060	29.3000
 1.4070	28.9820
 1.4080	28.6790
 1.4090	28.3890
 1.4100	28.1150
 1.4110	27.8530
 1.4120	27.6080
 1.4130	27.3770
 1.4140	27.1610
 1.4150	26.9620
 1.4160	26.7750
 1.4170	26.6000
 1.4180	26.4380
 1.4190	26.2860
 1.4200	26.1440
 1.4210	26.0140
 1.4220	25.8930
 1.4230	25.7830
 1.4240	25.6820
 1.4250	25.5880
 1.4260	25.5030
 1.4270	25.4240
 1.4280	25.3530
 1.4290	25.2880
 1.4300	25.2310
 1.4310	25.1790
 1.4320	25.1340
 1.4330	25.0920
 1.4340	25.0560
 1.4350	25.0230
 1.4360	24.9950
 1.4370	24.9720
 1.4380	24.9520
 1.4390	24.9370
 1.4400	24.9240
 1.4410	24.9140
 1.4420	24.9060
 1.4430	24.9000
 1.4440	24.8960
 1.4450	24.8950
 1.4460	24.8950
 1.4470	24.8980
 1.4480	24.9020
 1.4490	24.9080
 1.4500	24.9160
 1.4510	24.9250
 1.4520	24.9350
 1.4530	24.9470
 1.4540	24.9600
 1.4550	24.9760
 1.4560	24.9930
 1.4570	25.0130
 1.4580	25.0350
 1.4590	25.0610
 1.4600	25.0900
 1.4610	25.1240
 1.4620	25.1620
 1.4630	25.2040
 1.4640	25.2500
 1.4650	25.2990
 1.4660	25.3530
 1.4670	25.4110
 1.4680	25.4740
 1.4690	25.5420
 1.4700	25.6120
 1.4710	25.6890
 1.4720	25.7680
 1.4730	25.8510
 1.4740	25.9360
 1.4750	26.0250
 1.4760	26.1170
 1.4770	26.2110
 1.4780	26.3080
 1.4790	26.4070
 1.4800	26.5040
 1.4810	26.6040
 1.4820	26.7050
 1.4830	26.8070
 1.4840	26.9100
 1.4850	27.0120
 1.4860	27.1140
 1.4870	27.2190
 1.4880	27.3240
 1.4890	27.4290
 1.4900	27.5340
 1.4910	27.6400
 1.4920	27.7460
 1.4930	27.8530
 1.4940	27.9590
 1.4950	28.0660
 1.4960	28.1720
 1.4970	28.2780
 1.4980	28.3830
 1.4990	28.4880
 1.5000	28.5930
 1.5010	28.6980
 1.5020	28.8020
 1.5030	28.9080
 1.5040	29.0120
 1.5050	29.1140
 1.5060	29.2170
 1.5070	29.3200
 1.5080	29.4230
 1.5090	29.5270
 1.5100	29.6290
 1.5110	29.7300
 1.5120	29.8300
 1.5130	29.9280
 1.5140	30.0270
 1.5150	30.1260
 1.5160	30.2220
 1.5170	30.3190
 1.5180	30.4140
 1.5190	30.5090
 1.5200	30.6040
 1.5210	30.6960
 1.5220	30.7870
 1.5230	30.8780
 1.5240	30.9670
 1.5250	31.0560
 1.5260	31.1450
 1.5270	31.2320
 1.5280	31.3200
 1.5290	31.4050
 1.5300	31.4890
 1.5310	31.5740
 1.5320	31.6560
 1.5330	31.7390
 1.5340	31.8230
 1.5350	31.9040
 1.5360	31.9850
 1.5370	32.0640
 1.5380	32.1410
 1.5390	32.2180
 1.5400	32.2930
 1.5410	32.3680
 1.5420	32.4440
 1.5430	32.5180
 1.5440	32.5930
 1.5450	32.6640
 1.5460	32.7350
 1.5470	32.8050
 1.5480	32.8740
 1.5490	32.9430
 1.5500	33.0120
 1.5510	33.0780
 1.5520	33.1430
 1.5530	33.2080
 1.5540	33.2730
 1.5550	33.3370
 1.5560	33.4000
 1.5570	33.4620
 1.5580	33.5200
 1.5590	33.5790
 1.5600	33.6370
 1.5610	33.6940
 1.5620	33.7500
 1.5630	33.8050
 1.5640	33.8570
 1.5650	33.9090
 1.5660	33.9630
 1.5670	34.0160
 1.5680	34.0700
 1.5690	34.1200
 1.5700	34.1700
 1.5710	34.2210
 1.5720	34.2690
 1.5730	34.3190
 1.5740	34.3690
 1.5750	34.4160
 1.5760	34.4640
 1.5770	34.5090
 1.5780	34.5540
 1.5790	34.6000
 1.5800	34.6460
 1.5810	34.6920
 1.5820	34.7380
 1.5830	34.7820
 1.5840	34.8250
 1.5850	34.8670
 1.5860	34.9090
 1.5870	34.9510
 1.5880	34.9930
 1.5890	35.0340
 1.5900	35.0750
 1.5910	35.1150
 1.5920	35.1550
 1.5930	35.1950
 1.5940	35.2340
 1.5950	35.2730
 1.5960	35.3110
 1.5970	35.3480
 1.5980	35.3850
 1.5990	35.4210
 1.6000	35.4590
 1.6010	35.4960
 1.6020	35.5320
 1.6030	35.5680
 1.6040	35.6000
 1.6050	35.6320
 1.6060	35.6640
 1.6070	35.6960
 1.6080	35.7270
 1.6090	35.7570
 1.6100	35.7880
 1.6110	35.8180
 1.6120	35.8490
 1.6130	35.8790
 1.6140	35.9080
 1.6150	35.9360
 1.6160	35.9630
 1.6170	35.9900
 1.6180	36.0170
 1.6190	36.0430
 1.6200	36.0680
 1.6210	36.0940
 1.6220	36.1170
 1.6230	36.1400
 1.6240	36.1640
 1.6250	36.1860
 1.6260	36.2080
 1.6270	36.2300
 1.6280	36.2490
 1.6290	36.2700
 1.6300	36.2910
 1.6310	36.3110
 1.6320	36.3310
 1.6330	36.3490
 1.6340	36.3660
 1.6350	36.3830
 1.6360	36.4000
 1.6370	36.4150
 1.6380	36.4280
 1.6390	36.4410
 1.6400	36.4530
 1.6410	36.4640
 1.6420	36.4750
 1.6430	36.4860
 1.6440	36.4970
 1.6450	36.5070
 1.6460	36.5170
 1.6470	36.5240
 1.6480	36.5280
 1.6490	36.5310
 1.6500	36.5320
 1.6510	36.5310
 1.6520	36.5300
 1.6530	36.5290
 1.6540	36.5240
 1.6550	36.5180
 1.6560	36.5120
 1.6570	36.5030
 1.6580	36.4930
 1.6590	36.4820
 1.6600	36.4680
 1.6610	36.4520
 1.6620	36.4350
 1.6630	36.4160
 1.6640	36.3980
 1.6650	36.3820
 1.6660	36.3640
 1.6670	36.3470
 1.6680	36.3300
 1.6690	36.3110
 1.6700	36.2940
 1.6710	36.2760
 1.6720	36.2580
 1.6730	36.2410
 1.6740	36.2240
 1.6750	36.2090
 1.6760	36.1960
 1.6770	36.1820
 1.6780	36.1680
 1.6790	36.1540
 1.6800	36.1380
 1.6810	36.1190
 1.6820	36.1010
 1.6830	36.0810
 1.6840	36.0620
 1.6850	36.0440
 1.6860	36.0220
 1.6870	36.0010
 1.6880	35.9820
 1.6890	35.9620
 1.6900	35.9410
 1.6910	35.9200
 1.6920	35.8990
 1.6930	35.8790
 1.6940	35.8590
 1.6950	35.8400
 1.6960	35.8200
 1.6970	35.8000
 1.6980	35.7800
 1.6990	35.7600
 1.7000	35.7390
 1.7010	35.7170
 1.7020	35.6930
 1.7030	35.6680
 1.7040	35.6420
 1.7050	35.6140
 1.7060	35.5870
 1.7070	35.5600
 1.7080	35.5320
 1.7090	35.5050
 1.7100	35.4750
 1.7110	35.4430
 1.7120	35.4120
 1.7130	35.3780
 1.7140	35.3440
 1.7150	35.3090
 1.7160	35.2740
 1.7170	35.2400
 1.7180	35.2050
 1.7190	35.1700
 1.7200	35.1330
 1.7210	35.0940
 1.7220	35.0580
 1.7230	35.0230
 1.7240	34.9870
 1.7250	34.9520
 1.7260	34.9160
 1.7270	34.8820
 1.7280	34.8500
 1.7290	34.8200
 1.7300	34.7920
 1.7310	34.7640
 1.7320	34.7360
 1.7330	34.7110
 1.7340	34.6880
 1.7350	34.6660
 1.7360	34.6490
 1.7370	34.6280
 1.7380	34.6080
 1.7390	34.5850
 1.7400	34.5590
 1.7410	34.5330
 1.7420	34.5060
 1.7430	34.4800
 1.7440	34.4550
 1.7450	34.4280
 1.7460	34.4020
 1.7470	34.3720
 1.7480	34.3400
 1.7490	34.3070
 1.7500	34.2700
 1.7510	34.2360
 1.7520	34.2040
 1.7530	34.1690
 1.7540	34.1340
 1.7550	34.0990
 1.7560	34.0640
 1.7570	34.0300
 1.7580	33.9960
 1.7590	33.9600
 1.7600	33.9250
 1.7610	33.8920
 1.7620	33.8610
 1.7630	33.8320
 1.7640	33.8030
 1.7650	33.7750
 1.7660	33.7470
 1.7670	33.7200
 1.7680	33.6940
 1.7690	33.6700
 1.7700	33.6460
 1.7710	33.6210
 1.7720	33.5980
 1.7730	33.5750
 1.7740	33.5540
 1.7750	33.5360
 1.7760	33.5180
 1.7770	33.5010
 1.7780	33.4830
 1.7790	33.4660
 1.7800	33.4500
 1.7810	33.4340
 1.7820	33.4190
 1.7830	33.4050
 1.7840	33.3930
 1.7850	33.3820
 1.7860	33.3730
 1.7870	33.3680
 1.7880	33.3610
 1.7890	33.3570
 1.7900	33.3540
 1.7910	33.3510
 1.7920	33.3500
 1.7930	33.3480
 1.7940	33.3430
 1.7950	33.3420
 1.7960	33.3420
 1.7970	33.3430
 1.7980	33.3460
 1.7990	33.3480
 1.8000	33.3500
 1.8010	33.3530
 1.8020	33.3560
 1.8030	33.3590
 1.8040	33.3620
 1.8050	33.3670
 1.8060	33.3750
 1.8070	33.3810
 1.8080	33.3880
 1.8090	33.3940
 1.8100	33.3980
 1.8110	33.4030
 1.8120	33.4070
 1.8130	33.4130
 1.8140	33.4190
 1.8150	33.4220
 1.8160	33.4250
 1.8170	33.4260
 1.8180	33.4250
 1.8190	33.4270
 1.8200	33.4270
 1.8210	33.4260
 1.8220	33.4250
 1.8230	33.4240
 1.8240	33.4200
 1.8250	33.4140
 1.8260	33.4070
 1.8270	33.3960
 1.8280	33.3870
 1.8290	33.3800
 1.8300	33.3690
 1.8310	33.1760
 1.8320	33.1610
 1.8330	33.1450
 1.8340	33.1230
 1.8350	33.0970
 1.8360	33.0720
 1.8370	33.0450
 1.8380	33.0140
 1.8390	32.9770
 1.8400	32.9360
 1.8410	32.8900
 1.8420	32.8390
 1.8430	32.7850
 1.8440	32.7300
 1.8450	32.6680
 1.8460	32.6030
 1.8470	32.5340
 1.8480	32.4570
 1.8490	32.3700
 1.8500	32.2750
 1.8510	32.1730
 1.8520	32.0610
 1.8530	31.9400
 1.8540	31.8130
 1.8550	31.6790
 1.8560	31.5270
 1.8570	31.3640
 1.8580	31.1930
 1.8590	31.0080
 1.8600	30.8100
 1.8610	30.6020
 1.8620	30.3800
 1.8630	30.1410
 1.8640	29.8870
 1.8650	29.6120
 1.8660	29.3210
 1.8670	29.0120
 1.8680	28.6870
 1.8690	28.3450
 1.8700	27.9830
 1.8710	27.6030
 1.8720	27.2050
 1.8730	26.7880
 1.8740	26.3540
 1.8750	25.9040
 1.8760	25.4380
 1.8770	24.9650
 1.8780	24.4790
 1.8790	23.9810
 1.8800	23.4810
 1.8810	22.9770
 1.8820	22.4620
 1.8830	21.9380
 1.8840	21.4140
 1.8850	20.8790
 1.8860	20.3470
 1.8870	19.8200
 1.8880	19.2950
 1.8890	18.7830
 1.8900	18.2820
 1.8910	17.7960
 1.8920	17.3180
 1.8930	16.8640
 1.8940	16.4240
 1.8950	16.0030
 1.8960	15.6050
 1.8970	15.2280
 1.8980	14.8800
 1.8990	14.5530
 1.9000	14.2450
 1.9010	13.9610
 1.9020	13.6960
 1.9030	13.4500
 1.9040	13.2240
 1.9050	13.0210
 1.9060	12.8350
 1.9070	12.6670
 1.9080	12.5160
 1.9090	12.3790
 1.9100	12.2560
 1.9110	12.1450
 1.9120	12.0500
 1.9130	11.9630
 1.9140	11.8870
 1.9150	11.8200
 1.9160	11.7590
 1.9170	11.7050
 1.9180	11.6570
 1.9190	11.6140
 1.9200	11.5810
 1.9210	11.5530
 1.9220	11.5300
 1.9230	11.5140
 1.9240	11.4990
 1.9250	11.4880
 1.9260	11.4820
 1.9270	11.4790
 1.9280	11.4800
 1.9290	11.4860
 1.9300	11.4930
 1.9310	11.5040
 1.9320	11.5180
 1.9330	11.5340
 1.9340	11.5510
 1.9350	11.5730
 1.9360	11.5960
 1.9370	11.6230
 1.9380	11.6560
 1.9390	11.6880
 1.9400	11.7230
 1.9410	11.7600
 1.9420	11.7960
 1.9430	11.8350
 1.9440	11.8770
 1.9450	11.9220
 1.9460	11.9680
 1.9470	12.0160
 1.9480	12.0650
 1.9490	12.1160
 1.9500	12.1680
 1.9510	12.2200
 1.9520	12.2750
 1.9530	12.3310
 1.9540	12.3880
 1.9550	12.4470
 1.9560	12.5080
 1.9570	12.5700
 1.9580	12.6310
 1.9590	12.6940
 1.9600	12.7590
 1.9610	12.8240
 1.9620	12.8900
 1.9630	12.9590
 1.9640	13.0290
 1.9650	13.1010
 1.9660	13.1740
 1.9670	13.2480
 1.9680	13.3220
 1.9690	13.3950
 1.9700	13.4690
 1.9710	13.5440
 1.9720	13.6200
 1.9730	13.6960
 1.9740	13.7720
 1.9750	13.8530
 1.9760	13.9340
 1.9770	14.0160
 1.9780	14.0990
 1.9790	14.1820
 1.9800	14.2640
 1.9810	14.3470
 1.9820	14.4310
 1.9830	14.5160
 1.9840	14.6010
 1.9850	14.6870
 1.9860	14.7750
 1.9870	14.8640
 1.9880	14.9530
 1.9890	15.0410
 1.9900	15.1270
 1.9910	15.2180
 1.9920	15.3070
 1.9930	15.3950
 1.9940	15.4840
 1.9950	15.5730
 1.9960	15.6620
 1.9970	15.7490
 1.9980	15.8380
 1.9990	15.9270
 2.0000	16.0170
 2.0010	16.1060
 2.0020	16.1990
 2.0030	16.2920
 2.0040	16.3820
 2.0050	16.4730
 2.0060	16.5650
 2.0070	16.6550
 2.0080	16.7440
 2.0090	16.8320
 2.0100	16.9200
 2.0110	17.0070
 2.0120	17.0930
 2.0130	17.1770
 2.0140	17.2610
 2.0150	17.3440
 2.0160	17.4290
 2.0170	17.5130
 2.0180	17.5970
 2.0190	17.6810
 2.0200	17.7630
 2.0210	17.8450
 2.0220	17.9250
 2.0230	18.0040
 2.0240	18.0820
 2.0250	18.1580
 2.0260	18.2330
 2.0270	18.3090
 2.0280	18.3830
 2.0290	18.4560
 2.0300	18.5280
 2.0310	18.5980
 2.0320	18.6670
 2.0330	18.7340
 2.0340	18.7980
 2.0350	18.8630
 2.0360	18.9270
 2.0370	18.9910
 2.0380	19.0550
 2.0390	19.1180
 2.0400	19.1800
 2.0410	19.2390
 2.0420	19.2970
 2.0430	19.3540
 2.0440	19.4110
 2.0450	19.4650
 2.0460	19.5200
 2.0470	19.5770
 2.0480	19.6320
 2.0490	19.6830
 2.0500	19.7370
 2.0510	19.7920
 2.0520	19.8470
 2.0530	19.9040
 2.0540	19.9610
 2.0550	20.0180
 2.0560	20.0730
 2.0570	20.1310
 2.0580	20.1900
 2.0590	20.2500
 2.0600	20.3110
 2.0610	20.3730
 2.0620	20.4390
 2.0630	20.5020
 2.0640	20.5670
 2.0650	20.6300
 2.0660	20.6910
 2.0670	20.7550
 2.0680	20.8200
 2.0690	20.8840
 2.0700	20.9490
 2.0710	21.0140
 2.0720	21.0770
 2.0730	21.1400
 2.0740	21.2020
 2.0750	21.2660
 2.0760	21.3280
 2.0770	21.3890
 2.0780	21.4490
 2.0790	21.5060
 2.0800	21.5650
 2.0810	21.6240
 2.0820	21.6820
 2.0830	21.7410
 2.0840	21.7980
 2.0850	21.8500
 2.0860	21.9040
 2.0870	21.9590
 2.0880	22.0140
 2.0890	22.0700
 2.0900	22.1270
 2.0910	22.1800
 2.0920	22.2310
 2.0930	22.2820
 2.0940	22.3320
 2.0950	22.3810
 2.0960	22.4280
 2.0970	22.4780
 2.0980	22.5290
 2.0990	22.5780
 2.1000	22.6300
 2.1010	22.6790
 2.1020	22.7260
 2.1030	22.7740
 2.1040	22.8210
 2.1050	22.8700
 2.1060	22.9160
 2.1070	22.9600
 2.1080	23.0050
 2.1090	23.0490
 2.1100	23.0940
 2.1110	23.1410
 2.1120	23.1860
 2.1130	23.2290
 2.1140	23.2720
 2.1150	23.3140
 2.1160	23.3550
 2.1170	23.3950
 2.1180	23.4340
 2.1190	23.4710
 2.1200	23.5080
 2.1210	23.5450
 2.1220	23.5810
 2.1230	23.6170
 2.1240	23.6550
 2.1250	23.6880
 2.1260	23.7210
 2.1270	23.7510
 2.1280	23.7790
 2.1290	23.8050
 2.1300	23.8290
 2.1310	23.8530
 2.1320	23.8750
 2.1330	23.8990
 2.1340	23.9250
 2.1350	23.9470
 2.1360	23.9690
 2.1370	23.9890
 2.1380	24.0060
 2.1390	24.0240
 2.1400	24.0430
 2.1410	24.0590
 2.1420	24.0740
 2.1430	24.0880
 2.1440	24.1020
 2.1450	24.1110
 2.1460	24.1260
 2.1470	24.1470
 2.1480	24.1630
 2.1490	24.1810
 2.1500	24.1980
 2.1510	24.2120
 2.1520	24.2260
 2.1530	24.2380
 2.1540	24.2520
 2.1550	24.2640
 2.1560	24.2780
 2.1570	24.2950
 2.1580	24.3100
 2.1590	24.3220
 2.1600	24.3350
 2.1610	24.3470
 2.1620	24.3580
 2.1630	24.3710
 2.1640	24.3850
 2.1650	24.4000
 2.1660	24.4180
 2.1670	24.4320
 2.1680	24.4450
 2.1690	24.4580
 2.1700	24.4680
 2.1710	24.4810
 2.1720	24.4970
 2.1730	24.5120
 2.1740	24.5300
 2.1750	24.5460
 2.1760	24.5610
 2.1770	24.5770
 2.1780	24.5920
 2.1790	24.6100
 2.1800	24.6310
 2.1810	24.6510
 2.1820	24.6690
 2.1830	24.6880
 2.1840	24.7090
 2.1850	24.7280
 2.1860	24.7500
 2.1870	24.7760
 2.1880	24.7970
 2.1890	24.8150
 2.1900	24.8350
 2.1910	24.8520
 2.1920	24.8730
 2.1930	24.8980
 2.1940	24.9200
 2.1950	24.9420
 2.1960	24.9630
 2.1970	24.9820
 2.1980	25.0000
 2.1990	25.0170
 2.2000	25.0340
 2.2010	25.0460
 2.2020	25.0610
 2.2030	25.0780
 2.2040	25.0950
 2.2050	25.1140
 2.2060	25.1310
 2.2070	25.1460
 2.2080	25.1590
 2.2090	25.1710
 2.2100	25.1820
 2.2110	25.1930
 2.2120	25.2020
 2.2130	25.2120
 2.2140	25.2210
 2.2150	25.2280
 2.2160	25.2340
 2.2170	25.2410
 2.2180	25.2480
 2.2190	25.2540
 2.2200	25.2610
 2.2210	25.2640
 2.2220	25.2640
 2.2230	25.2630
 2.2240	25.2610
 2.2250	25.2560
 2.2260	25.2500
 2.2270	25.2410
 2.2280	25.2310
 2.2290	25.2170
 2.2300	25.1970
 2.2310	25.1770
 2.2320	25.1550
 2.2330	25.1330
 2.2340	25.1080
 2.2350	25.0830
 2.2360	25.0540
 2.2370	25.0190
 2.2380	24.9850
 2.2390	24.9530
 2.2400	24.9150
 2.2410	24.8740
 2.2420	24.8330
 2.2430	24.7870
 2.2440	24.7420
 2.2450	24.6970
 2.2460	24.6500
 2.2470	24.6010
 2.2480	24.5500
 2.2490	24.4960
 2.2500	24.4420
 2.2510	24.3840
 2.2520	24.3280
 2.2530	24.2730
 2.2540	24.2170
 2.2550	24.1620
 2.2560	24.1050
 2.2570	24.0520
 2.2580	23.9930
 2.2590	23.9280
 2.2600	23.8630
 2.2610	23.7950
 2.2620	23.7270
 2.2630	23.6600
 2.2640	23.5910
 2.2650	23.5220
 2.2660	23.4570
 2.2670	23.3950
 2.2680	23.3380
 2.2690	23.2790
 2.2700	23.2230
 2.2710	23.1680
 2.2720	23.1150
 2.2730	23.0610
 2.2740	23.0100
 2.2750	22.9560
 2.2760	22.8970
 2.2770	22.8420
 2.2780	22.7870
 2.2790	22.7330
 2.2800	22.6780
 2.2810	22.6290
 2.2820	22.5850
 2.2830	22.5390
 2.2840	22.4940
 2.2850	22.4490
 2.2860	22.3980
 2.2870	22.3510
 2.2880	22.3080
 2.2890	22.2640
 2.2900	22.2230
 2.2910	22.1790
 2.2920	22.1380
 2.2930	22.0940
 2.2940	22.0470
 2.2950	21.9990
 2.2960	21.9500
 2.2970	21.9010
 2.2980	21.8550
 2.2990	21.8040
 2.3000	21.7520
 2.3010	21.7030
 2.3020	21.6540
 2.3030	21.6100
 2.3040	21.5690
 2.3050	21.5270
 2.3060	21.4860
 2.3070	21.4410
 2.3080	21.3950
 2.3090	21.3580
 2.3100	21.3240
 2.3110	21.2960
 2.3120	21.2700
 2.3130	21.2490
 2.3140	21.2290
 2.3150	21.2090
 2.3160	21.1900
 2.3170	21.1750
 2.3180	21.1570
 2.3190	21.1370
 2.3200	21.1180
 2.3210	21.1010
 2.3220	21.0810
 2.3230	21.0660
 2.3240	21.0400
 2.3250	21.0090
 2.3260	20.9760
 2.3270	20.9340
 2.3280	20.8950
 2.3290	20.8560
 2.3300	20.8150
 2.3310	20.7710
 2.3320	20.7270
 2.3330	20.6790
 2.3340	20.6340
 2.3350	20.5880
 2.3360	20.5420
 2.3370	20.4990
 2.3380	20.4540
 2.3390	20.4100
 2.3400	20.3620
 2.3410	20.3110
 2.3420	20.2590
 2.3430	20.2030
 2.3440	20.1490
 2.3450	20.0940
 2.3460	20.0410
 2.3470	19.9810
 2.3480	19.9340
 2.3490	19.8970
 2.3500	19.8570
 2.3510	19.8250
 2.3520	19.7910
 2.3530	19.7560
 2.3540	19.7210
 2.3550	19.6860
 2.3560	19.6520
 2.3570	19.6150
 2.3580	19.5670
 2.3590	19.5250
 2.3600	19.4850
 2.3610	19.4460
 2.3620	19.4100
 2.3630	19.3670
 2.3640	19.3240
 2.3650	19.2790
 2.3660	19.2360
 2.3670	19.2030
 2.3680	19.1600
 2.3690	19.1190
 2.3700	19.0770
 2.3710	19.0200
 2.3720	18.9710
 2.3730	18.9210
 2.3740	18.8690
 2.3750	18.8300
 2.3760	18.7890
 2.3770	18.7410
 2.3780	18.6950
 2.3790	18.6370
 2.3800	18.5810
 2.3810	18.5410
 2.3820	18.4930
 2.3830	18.4510
 2.3840	18.4040
 2.3850	18.3450
 2.3860	18.2890
 2.3870	18.2290
 2.3880	18.1750
 2.3890	18.1180
 2.3900	18.0610
 2.3910	18.0090
 2.3920	17.9460
 2.3930	17.8860
 2.3940	17.8320
 2.3950	17.7790
 2.3960	17.7290
 2.3970	17.6810
 2.3980	17.6370
 2.3990	17.5840
 2.4000	17.5350
 2.4010	17.4870
 2.4020	17.4250
 2.4030	17.3650
 2.4040	17.3070
 2.4050	17.2560
 2.4060	17.2170
 2.4070	17.1710
 2.4080	17.1260
 2.4090	17.0660
 2.4100	16.9930
 2.4110	16.9310
 2.4120	16.8640
 2.4130	16.8100
 2.4140	16.7600
 2.4150	16.7020
 2.4160	16.6590
 2.4170	16.6010
 2.4180	16.5370
 2.4190	16.4840
 2.4200	16.4180
 2.4210	16.3550
 2.4220	16.3060
 2.4230	16.2450
 2.4240	16.1810
 2.4250	16.1220
 2.4260	16.0640
 2.4270	16.0130
 2.4280	15.9610
 2.4290	15.9140
 2.4300	15.8560
 2.4310	15.7820
 2.4320	15.7220
 2.4330	15.6640
 2.4340	15.5990
 2.4350	15.5580
 2.4360	15.5260
 2.4370	15.4780
 2.4380	15.4380
 2.4390	15.3770
 2.4400	15.3000
 2.4410	15.2370
 2.4420	15.1720
 2.4430	15.1170
 2.4440	15.0640
 2.4450	14.9980
 2.4460	14.9290
 2.4470	14.8620
 2.4480	14.8060
 2.4490	14.7590
 2.4500	14.7080
 2.4510	14.6490
 2.4520	14.5930
 2.4530	14.5310
 2.4540	14.4740
 2.4550	14.4270
 2.4560	14.3660
 2.4570	14.3060
 2.4580	14.2630
 2.4590	14.2340
 2.4600	14.2000
 2.4610	14.1560
 2.4620	14.0950
 2.4630	14.0200
 2.4640	13.9470
 2.4650	13.8850
 2.4660	13.8420
 2.4670	13.8170
 2.4680	13.7940
 2.4690	13.7770
 2.4700	13.7470
 2.4710	13.6880
 2.4720	13.6420
 2.4730	13.5940
 2.4740	13.5380
 2.4750	13.4790
 2.4760	13.4310
 2.4770	13.3840
 2.4780	13.3590
 2.4790	13.3650
 2.4800	13.3340
 2.4810	13.2920
 2.4820	13.2340
 2.4830	13.1610
 2.4840	13.1340
 2.4850	13.1090
 2.4860	13.0620
 2.4870	13.0550
 2.4880	13.0250
 2.4890	12.9690
 2.4900	12.9580
 2.4910	12.9550
 2.4920	12.9280
 2.4930	12.9310
 2.4940	12.9600
 2.4950	12.9540
 2.4960	12.9290
 2.4970	12.9290
 2.4980	12.9090
 2.4990	12.8690
 2.5000	12.8700
