Name: Baccharis pilularis 3
Type: vegetation
Class: Shrub
Genus: Baccharis
Species: pilularis
Sample No.: VH125
Owner: UCSB
Wavelength Range: VSWIR
Origin: 34.5088; -119.7683; WGS84
Collection Date: 6/3/2013
Description: Samples were collected as part of the HyspIRI Airborne Campaign. 48 individual plants were sampled in three times in 2013 - spring  summer  and fall. The name of the sample includes a 1  2  or 3 which references a different individual of the species. Samples were taken to JPL and processed within 48 hours of collection. The same leaves were processed in the Nicolet and then measured using the ASD.
Measurement: Bidirectional reflectance
First Column: X
Second Column: Y
X Units: Wavelength (micrometers)
Y Units: Reflectance (percentage)
First X Value: 0.35
Last X Value: 2.5
Number of X Values: 2151
Additional Information: vegetation.shrub.baccharis.pilularis.vswir.vh125.ucsb.asd.ancillary.txt

 0.3500	 4.4660
 0.3510	 4.3700
 0.3520	 4.4230
 0.3530	 4.4050
 0.3540	 4.2100
 0.3550	 4.2310
 0.3560	 4.2940
 0.3570	 4.3520
 0.3580	 4.4150
 0.3590	 4.3340
 0.3600	 4.3260
 0.3610	 4.4220
 0.3620	 4.3470
 0.3630	 4.3450
 0.3640	 4.3830
 0.3650	 4.3700
 0.3660	 4.2630
 0.3670	 4.3000
 0.3680	 4.3980
 0.3690	 4.2930
 0.3700	 4.3300
 0.3710	 4.3950
 0.3720	 4.3800
 0.3730	 4.2930
 0.3740	 4.2780
 0.3750	 4.3010
 0.3760	 4.2940
 0.3770	 4.3180
 0.3780	 4.3310
 0.3790	 4.3010
 0.3800	 4.2100
 0.3810	 4.1940
 0.3820	 4.2130
 0.3830	 4.2270
 0.3840	 4.2610
 0.3850	 4.2870
 0.3860	 4.3010
 0.3870	 4.3090
 0.3880	 4.3370
 0.3890	 4.3210
 0.3900	 4.2720
 0.3910	 4.2820
 0.3920	 4.3080
 0.3930	 4.3190
 0.3940	 4.3030
 0.3950	 4.2860
 0.3960	 4.3130
 0.3970	 4.3540
 0.3980	 4.3530
 0.3990	 4.3470
 0.4000	 4.3620
 0.4010	 4.3760
 0.4020	 4.2920
 0.4030	 4.2860
 0.4040	 4.3230
 0.4050	 4.3430
 0.4060	 4.3870
 0.4070	 4.4100
 0.4080	 4.3910
 0.4090	 4.3380
 0.4100	 4.3240
 0.4110	 4.3430
 0.4120	 4.3710
 0.4130	 4.3830
 0.4140	 4.3940
 0.4150	 4.4070
 0.4160	 4.4200
 0.4170	 4.4390
 0.4180	 4.4400
 0.4190	 4.4320
 0.4200	 4.4470
 0.4210	 4.4560
 0.4220	 4.4620
 0.4230	 4.4740
 0.4240	 4.4960
 0.4250	 4.5000
 0.4260	 4.5010
 0.4270	 4.5270
 0.4280	 4.5330
 0.4290	 4.5490
 0.4300	 4.5780
 0.4310	 4.5820
 0.4320	 4.5930
 0.4330	 4.6080
 0.4340	 4.6200
 0.4350	 4.6290
 0.4360	 4.6280
 0.4370	 4.6220
 0.4380	 4.6300
 0.4390	 4.6520
 0.4400	 4.6730
 0.4410	 4.6810
 0.4420	 4.6580
 0.4430	 4.6610
 0.4440	 4.6820
 0.4450	 4.6890
 0.4460	 4.6870
 0.4470	 4.6860
 0.4480	 4.6950
 0.4490	 4.7170
 0.4500	 4.7350
 0.4510	 4.7430
 0.4520	 4.7420
 0.4530	 4.7510
 0.4540	 4.7600
 0.4550	 4.7640
 0.4560	 4.7650
 0.4570	 4.7660
 0.4580	 4.7670
 0.4590	 4.7700
 0.4600	 4.7830
 0.4610	 4.7840
 0.4620	 4.7810
 0.4630	 4.7880
 0.4640	 4.7930
 0.4650	 4.7880
 0.4660	 4.7790
 0.4670	 4.7910
 0.4680	 4.7990
 0.4690	 4.8000
 0.4700	 4.8010
 0.4710	 4.8010
 0.4720	 4.8050
 0.4730	 4.8070
 0.4740	 4.8000
 0.4750	 4.8020
 0.4760	 4.8050
 0.4770	 4.8060
 0.4780	 4.8190
 0.4790	 4.8220
 0.4800	 4.8160
 0.4810	 4.8110
 0.4820	 4.8180
 0.4830	 4.8210
 0.4840	 4.8170
 0.4850	 4.8170
 0.4860	 4.8250
 0.4870	 4.8320
 0.4880	 4.8320
 0.4890	 4.8390
 0.4900	 4.8440
 0.4910	 4.8480
 0.4920	 4.8550
 0.4930	 4.8660
 0.4940	 4.8740
 0.4950	 4.8780
 0.4960	 4.8900
 0.4970	 4.9030
 0.4980	 4.9140
 0.4990	 4.9210
 0.5000	 4.9350
 0.5010	 4.9530
 0.5020	 4.9760
 0.5030	 5.0050
 0.5040	 5.0290
 0.5050	 5.0500
 0.5060	 5.0750
 0.5070	 5.1130
 0.5080	 5.1490
 0.5090	 5.1880
 0.5100	 5.2400
 0.5110	 5.2920
 0.5120	 5.3470
 0.5130	 5.4060
 0.5140	 5.4730
 0.5150	 5.5520
 0.5160	 5.6400
 0.5170	 5.7360
 0.5180	 5.8400
 0.5190	 5.9490
 0.5200	 6.0660
 0.5210	 6.1930
 0.5220	 6.3190
 0.5230	 6.4440
 0.5240	 6.5710
 0.5250	 6.7020
 0.5260	 6.8310
 0.5270	 6.9540
 0.5280	 7.0720
 0.5290	 7.1930
 0.5300	 7.3040
 0.5310	 7.3990
 0.5320	 7.4930
 0.5330	 7.5800
 0.5340	 7.6620
 0.5350	 7.7390
 0.5360	 7.8030
 0.5370	 7.8620
 0.5380	 7.9180
 0.5390	 7.9700
 0.5400	 8.0150
 0.5410	 8.0570
 0.5420	 8.1010
 0.5430	 8.1440
 0.5440	 8.1870
 0.5450	 8.2280
 0.5460	 8.2630
 0.5470	 8.2880
 0.5480	 8.3100
 0.5490	 8.3330
 0.5500	 8.3550
 0.5510	 8.3700
 0.5520	 8.3770
 0.5530	 8.3770
 0.5540	 8.3690
 0.5550	 8.3510
 0.5560	 8.3200
 0.5570	 8.2750
 0.5580	 8.2240
 0.5590	 8.1680
 0.5600	 8.1050
 0.5610	 8.0340
 0.5620	 7.9570
 0.5630	 7.8770
 0.5640	 7.7940
 0.5650	 7.7060
 0.5660	 7.6160
 0.5670	 7.5230
 0.5680	 7.4300
 0.5690	 7.3350
 0.5700	 7.2410
 0.5710	 7.1480
 0.5720	 7.0580
 0.5730	 6.9710
 0.5740	 6.8900
 0.5750	 6.8160
 0.5760	 6.7510
 0.5770	 6.6910
 0.5780	 6.6340
 0.5790	 6.5790
 0.5800	 6.5290
 0.5810	 6.4830
 0.5820	 6.4390
 0.5830	 6.4000
 0.5840	 6.3630
 0.5850	 6.3260
 0.5860	 6.2900
 0.5870	 6.2530
 0.5880	 6.2220
 0.5890	 6.1980
 0.5900	 6.1710
 0.5910	 6.1500
 0.5920	 6.1370
 0.5930	 6.1300
 0.5940	 6.1170
 0.5950	 6.1030
 0.5960	 6.0910
 0.5970	 6.0750
 0.5980	 6.0620
 0.5990	 6.0500
 0.6000	 6.0330
 0.6010	 6.0150
 0.6020	 5.9960
 0.6030	 5.9760
 0.6040	 5.9550
 0.6050	 5.9280
 0.6060	 5.8990
 0.6070	 5.8710
 0.6080	 5.8400
 0.6090	 5.8090
 0.6100	 5.7810
 0.6110	 5.7570
 0.6120	 5.7240
 0.6130	 5.6850
 0.6140	 5.6470
 0.6150	 5.6110
 0.6160	 5.5810
 0.6170	 5.5570
 0.6180	 5.5340
 0.6190	 5.5090
 0.6200	 5.4890
 0.6210	 5.4730
 0.6220	 5.4590
 0.6230	 5.4430
 0.6240	 5.4300
 0.6250	 5.4220
 0.6260	 5.4160
 0.6270	 5.4080
 0.6280	 5.4010
 0.6290	 5.3960
 0.6300	 5.3910
 0.6310	 5.3890
 0.6320	 5.3870
 0.6330	 5.3780
 0.6340	 5.3680
 0.6350	 5.3550
 0.6360	 5.3390
 0.6370	 5.3200
 0.6380	 5.3030
 0.6390	 5.2870
 0.6400	 5.2650
 0.6410	 5.2440
 0.6420	 5.2190
 0.6430	 5.1900
 0.6440	 5.1640
 0.6450	 5.1410
 0.6460	 5.1180
 0.6470	 5.0950
 0.6480	 5.0780
 0.6490	 5.0620
 0.6500	 5.0460
 0.6510	 5.0320
 0.6520	 5.0210
 0.6530	 5.0100
 0.6540	 5.0000
 0.6550	 4.9880
 0.6560	 4.9740
 0.6570	 4.9620
 0.6580	 4.9530
 0.6590	 4.9330
 0.6600	 4.9170
 0.6610	 4.9050
 0.6620	 4.8930
 0.6630	 4.8840
 0.6640	 4.8750
 0.6650	 4.8630
 0.6660	 4.8570
 0.6670	 4.8530
 0.6680	 4.8500
 0.6690	 4.8520
 0.6700	 4.8540
 0.6710	 4.8570
 0.6720	 4.8620
 0.6730	 4.8690
 0.6740	 4.8820
 0.6750	 4.8940
 0.6760	 4.9030
 0.6770	 4.9130
 0.6780	 4.9270
 0.6790	 4.9440
 0.6800	 4.9650
 0.6810	 4.9850
 0.6820	 5.0060
 0.6830	 5.0300
 0.6840	 5.0580
 0.6850	 5.0880
 0.6860	 5.1240
 0.6870	 5.1660
 0.6880	 5.2090
 0.6890	 5.2670
 0.6900	 5.3450
 0.6910	 5.4430
 0.6920	 5.5640
 0.6930	 5.7190
 0.6940	 5.9150
 0.6950	 6.1550
 0.6960	 6.4460
 0.6970	 6.7920
 0.6980	 7.1940
 0.6990	 7.6560
 0.7000	 8.1770
 0.7010	 8.7530
 0.7020	 9.3830
 0.7030	10.0620
 0.7040	10.7860
 0.7050	11.5510
 0.7060	12.3520
 0.7070	13.1880
 0.7080	14.0550
 0.7090	14.9510
 0.7100	15.8750
 0.7110	16.8250
 0.7120	17.8000
 0.7130	18.7970
 0.7140	19.8130
 0.7150	20.8520
 0.7160	21.9130
 0.7170	22.9800
 0.7180	24.0570
 0.7190	25.1420
 0.7200	26.2340
 0.7210	27.3240
 0.7220	28.4100
 0.7230	29.4870
 0.7240	30.5520
 0.7250	31.5980
 0.7260	32.6250
 0.7270	33.6300
 0.7280	34.6070
 0.7290	35.5550
 0.7300	36.4700
 0.7310	37.3480
 0.7320	38.1910
 0.7330	39.0030
 0.7340	39.7840
 0.7350	40.5250
 0.7360	41.2250
 0.7370	41.8900
 0.7380	42.5240
 0.7390	43.1250
 0.7400	43.6840
 0.7410	44.2090
 0.7420	44.7140
 0.7430	45.1770
 0.7440	45.6130
 0.7450	46.0270
 0.7460	46.4090
 0.7470	46.7660
 0.7480	47.0940
 0.7490	47.3910
 0.7500	47.6730
 0.7510	47.9310
 0.7520	48.1690
 0.7530	48.3930
 0.7540	48.5940
 0.7550	48.7780
 0.7560	48.9460
 0.7570	49.0960
 0.7580	49.2390
 0.7590	49.3760
 0.7600	49.5030
 0.7610	49.6130
 0.7620	49.7150
 0.7630	49.8130
 0.7640	49.9050
 0.7650	49.9870
 0.7660	50.0560
 0.7670	50.1190
 0.7680	50.1900
 0.7690	50.2530
 0.7700	50.3090
 0.7710	50.3590
 0.7720	50.4140
 0.7730	50.4620
 0.7740	50.5070
 0.7750	50.5530
 0.7760	50.5960
 0.7770	50.6340
 0.7780	50.6680
 0.7790	50.6980
 0.7800	50.7360
 0.7810	50.7740
 0.7820	50.8070
 0.7830	50.8380
 0.7840	50.8690
 0.7850	50.9050
 0.7860	50.9440
 0.7870	50.9700
 0.7880	50.9990
 0.7890	51.0270
 0.7900	51.0460
 0.7910	51.0710
 0.7920	51.0950
 0.7930	51.1200
 0.7940	51.1490
 0.7950	51.1720
 0.7960	51.1930
 0.7970	51.2110
 0.7980	51.2220
 0.7990	51.2410
 0.8000	51.2640
 0.8010	51.2840
 0.8020	51.2990
 0.8030	51.3120
 0.8040	51.3260
 0.8050	51.3410
 0.8060	51.3610
 0.8070	51.3760
 0.8080	51.3840
 0.8090	51.3850
 0.8100	51.3960
 0.8110	51.4130
 0.8120	51.4270
 0.8130	51.4390
 0.8140	51.4430
 0.8150	51.4470
 0.8160	51.4570
 0.8170	51.4740
 0.8180	51.4800
 0.8190	51.4820
 0.8200	51.4940
 0.8210	51.5070
 0.8220	51.5150
 0.8230	51.5180
 0.8240	51.5210
 0.8250	51.5270
 0.8260	51.5290
 0.8270	51.5270
 0.8280	51.5370
 0.8290	51.5420
 0.8300	51.5420
 0.8310	51.5410
 0.8320	51.5510
 0.8330	51.5590
 0.8340	51.5630
 0.8350	51.5690
 0.8360	51.5740
 0.8370	51.5800
 0.8380	51.5880
 0.8390	51.5960
 0.8400	51.6100
 0.8410	51.6220
 0.8420	51.6310
 0.8430	51.6510
 0.8440	51.6590
 0.8450	51.6660
 0.8460	51.6830
 0.8470	51.6930
 0.8480	51.7110
 0.8490	51.7290
 0.8500	51.7360
 0.8510	51.7440
 0.8520	51.7560
 0.8530	51.7730
 0.8540	51.7890
 0.8550	51.8040
 0.8560	51.8200
 0.8570	51.8350
 0.8580	51.8470
 0.8590	51.8640
 0.8600	51.8770
 0.8610	51.8850
 0.8620	51.9060
 0.8630	51.9210
 0.8640	51.9350
 0.8650	51.9520
 0.8660	51.9670
 0.8670	51.9800
 0.8680	51.9930
 0.8690	52.0100
 0.8700	52.0230
 0.8710	52.0330
 0.8720	52.0450
 0.8730	52.0650
 0.8740	52.0820
 0.8750	52.0960
 0.8760	52.1100
 0.8770	52.1320
 0.8780	52.1440
 0.8790	52.1550
 0.8800	52.1730
 0.8810	52.1930
 0.8820	52.2070
 0.8830	52.2160
 0.8840	52.2260
 0.8850	52.2460
 0.8860	52.2640
 0.8870	52.2780
 0.8880	52.2930
 0.8890	52.3120
 0.8900	52.3170
 0.8910	52.3170
 0.8920	52.3320
 0.8930	52.3530
 0.8940	52.3670
 0.8950	52.3730
 0.8960	52.3790
 0.8970	52.3910
 0.8980	52.4000
 0.8990	52.4070
 0.9000	52.4200
 0.9010	52.4320
 0.9020	52.4410
 0.9030	52.4480
 0.9040	52.4610
 0.9050	52.4710
 0.9060	52.4770
 0.9070	52.4850
 0.9080	52.5030
 0.9090	52.5120
 0.9100	52.5200
 0.9110	52.5320
 0.9120	52.5340
 0.9130	52.5460
 0.9140	52.5610
 0.9150	52.5650
 0.9160	52.5690
 0.9170	52.5760
 0.9180	52.5780
 0.9190	52.5710
 0.9200	52.5890
 0.9210	52.5980
 0.9220	52.5960
 0.9230	52.5960
 0.9240	52.5900
 0.9250	52.5790
 0.9260	52.5690
 0.9270	52.5660
 0.9280	52.5560
 0.9290	52.5490
 0.9300	52.5400
 0.9310	52.5100
 0.9320	52.4980
 0.9330	52.4870
 0.9340	52.4710
 0.9350	52.4540
 0.9360	52.4220
 0.9370	52.3870
 0.9380	52.3600
 0.9390	52.3350
 0.9400	52.2990
 0.9410	52.2700
 0.9420	52.2520
 0.9430	52.2220
 0.9440	52.1760
 0.9450	52.1230
 0.9460	52.0700
 0.9470	52.0110
 0.9480	51.9560
 0.9490	51.8960
 0.9500	51.8230
 0.9510	51.7510
 0.9520	51.6700
 0.9530	51.5820
 0.9540	51.4910
 0.9550	51.4020
 0.9560	51.3330
 0.9570	51.2630
 0.9580	51.1750
 0.9590	51.0980
 0.9600	51.0350
 0.9610	50.9800
 0.9620	50.9290
 0.9630	50.8840
 0.9640	50.8430
 0.9650	50.8100
 0.9660	50.7860
 0.9670	50.7660
 0.9680	50.7370
 0.9690	50.7060
 0.9700	50.6820
 0.9710	50.6600
 0.9720	50.6560
 0.9730	50.6590
 0.9740	50.6500
 0.9750	50.6440
 0.9760	50.6350
 0.9770	50.6240
 0.9780	50.6220
 0.9790	50.6370
 0.9800	50.6610
 0.9810	50.6770
 0.9820	50.6750
 0.9830	50.6770
 0.9840	50.6940
 0.9850	50.7210
 0.9860	50.7460
 0.9870	50.7600
 0.9880	50.7810
 0.9890	50.8080
 0.9900	50.8390
 0.9910	50.9030
 0.9920	50.9920
 0.9930	51.0810
 0.9940	51.1700
 0.9950	51.2590
 0.9960	51.3480
 0.9970	51.4380
 0.9980	51.5270
 0.9990	51.6160
 1.0000	51.7050
 1.0010	51.7940
 1.0020	51.8830
 1.0030	51.9730
 1.0040	52.0620
 1.0050	52.1510
 1.0060	52.2400
 1.0070	52.3290
 1.0080	52.4180
 1.0090	52.5080
 1.0100	52.5080
 1.0110	52.5410
 1.0120	52.5780
 1.0130	52.6220
 1.0140	52.6600
 1.0150	52.6980
 1.0160	52.7320
 1.0170	52.7630
 1.0180	52.7960
 1.0190	52.8330
 1.0200	52.8730
 1.0210	52.9090
 1.0220	52.9420
 1.0230	52.9760
 1.0240	53.0040
 1.0250	53.0380
 1.0260	53.0790
 1.0270	53.1150
 1.0280	53.1520
 1.0290	53.1870
 1.0300	53.2220
 1.0310	53.2550
 1.0320	53.2880
 1.0330	53.3170
 1.0340	53.3480
 1.0350	53.3800
 1.0360	53.4060
 1.0370	53.4350
 1.0380	53.4650
 1.0390	53.4920
 1.0400	53.5200
 1.0410	53.5490
 1.0420	53.5770
 1.0430	53.6040
 1.0440	53.6290
 1.0450	53.6540
 1.0460	53.6770
 1.0470	53.6970
 1.0480	53.7180
 1.0490	53.7400
 1.0500	53.7610
 1.0510	53.7800
 1.0520	53.7990
 1.0530	53.8170
 1.0540	53.8340
 1.0550	53.8520
 1.0560	53.8700
 1.0570	53.8850
 1.0580	53.8980
 1.0590	53.9110
 1.0600	53.9200
 1.0610	53.9320
 1.0620	53.9460
 1.0630	53.9600
 1.0640	53.9790
 1.0650	53.9910
 1.0660	53.9970
 1.0670	54.0060
 1.0680	54.0140
 1.0690	54.0190
 1.0700	54.0250
 1.0710	54.0340
 1.0720	54.0390
 1.0730	54.0430
 1.0740	54.0450
 1.0750	54.0460
 1.0760	54.0460
 1.0770	54.0450
 1.0780	54.0430
 1.0790	54.0390
 1.0800	54.0390
 1.0810	54.0420
 1.0820	54.0420
 1.0830	54.0460
 1.0840	54.0460
 1.0850	54.0400
 1.0860	54.0340
 1.0870	54.0270
 1.0880	54.0180
 1.0890	54.0110
 1.0900	54.0030
 1.0910	53.9970
 1.0920	53.9930
 1.0930	53.9860
 1.0940	53.9780
 1.0950	53.9700
 1.0960	53.9610
 1.0970	53.9510
 1.0980	53.9410
 1.0990	53.9280
 1.1000	53.9130
 1.1010	53.8980
 1.1020	53.8820
 1.1030	53.8640
 1.1040	53.8460
 1.1050	53.8270
 1.1060	53.8080
 1.1070	53.7880
 1.1080	53.7680
 1.1090	53.7480
 1.1100	53.7260
 1.1110	53.7040
 1.1120	53.6800
 1.1130	53.6560
 1.1140	53.6280
 1.1150	53.6010
 1.1160	53.5700
 1.1170	53.5360
 1.1180	53.4980
 1.1190	53.4590
 1.1200	53.4130
 1.1210	53.3650
 1.1220	53.3130
 1.1230	53.2510
 1.1240	53.1850
 1.1250	53.1100
 1.1260	53.0250
 1.1270	52.9360
 1.1280	52.8410
 1.1290	52.7350
 1.1300	52.6240
 1.1310	52.4970
 1.1320	52.3570
 1.1330	52.2100
 1.1340	52.0530
 1.1350	51.8880
 1.1360	51.7180
 1.1370	51.5380
 1.1380	51.3500
 1.1390	51.1550
 1.1400	50.9520
 1.1410	50.7460
 1.1420	50.5380
 1.1430	50.3280
 1.1440	50.1210
 1.1450	49.9130
 1.1460	49.7120
 1.1470	49.5110
 1.1480	49.3220
 1.1490	49.1370
 1.1500	48.9640
 1.1510	48.8010
 1.1520	48.6470
 1.1530	48.5010
 1.1540	48.3660
 1.1550	48.2390
 1.1560	48.1220
 1.1570	48.0150
 1.1580	47.9220
 1.1590	47.8410
 1.1600	47.7670
 1.1610	47.7020
 1.1620	47.6420
 1.1630	47.5860
 1.1640	47.5400
 1.1650	47.4990
 1.1660	47.4650
 1.1670	47.4330
 1.1680	47.4080
 1.1690	47.3810
 1.1700	47.3570
 1.1710	47.3330
 1.1720	47.3080
 1.1730	47.2850
 1.1740	47.2620
 1.1750	47.2400
 1.1760	47.2170
 1.1770	47.1920
 1.1780	47.1650
 1.1790	47.1380
 1.1800	47.1090
 1.1810	47.0800
 1.1820	47.0510
 1.1830	47.0220
 1.1840	46.9940
 1.1850	46.9690
 1.1860	46.9440
 1.1870	46.9180
 1.1880	46.8960
 1.1890	46.8750
 1.1900	46.8580
 1.1910	46.8450
 1.1920	46.8340
 1.1930	46.8240
 1.1940	46.8160
 1.1950	46.8090
 1.1960	46.8050
 1.1970	46.8040
 1.1980	46.8050
 1.1990	46.8110
 1.2000	46.8210
 1.2010	46.8340
 1.2020	46.8510
 1.2030	46.8690
 1.2040	46.8900
 1.2050	46.9160
 1.2060	46.9410
 1.2070	46.9680
 1.2080	46.9980
 1.2090	47.0300
 1.2100	47.0670
 1.2110	47.1060
 1.2120	47.1490
 1.2130	47.1940
 1.2140	47.2410
 1.2150	47.2890
 1.2160	47.3390
 1.2170	47.3920
 1.2180	47.4440
 1.2190	47.4970
 1.2200	47.5520
 1.2210	47.6070
 1.2220	47.6640
 1.2230	47.7190
 1.2240	47.7750
 1.2250	47.8280
 1.2260	47.8810
 1.2270	47.9310
 1.2280	47.9770
 1.2290	48.0230
 1.2300	48.0680
 1.2310	48.1120
 1.2320	48.1550
 1.2330	48.1950
 1.2340	48.2350
 1.2350	48.2750
 1.2360	48.3130
 1.2370	48.3500
 1.2380	48.3890
 1.2390	48.4260
 1.2400	48.4580
 1.2410	48.4910
 1.2420	48.5240
 1.2430	48.5540
 1.2440	48.5820
 1.2450	48.6110
 1.2460	48.6400
 1.2470	48.6680
 1.2480	48.6940
 1.2490	48.7180
 1.2500	48.7370
 1.2510	48.7560
 1.2520	48.7750
 1.2530	48.7950
 1.2540	48.8150
 1.2550	48.8330
 1.2560	48.8490
 1.2570	48.8640
 1.2580	48.8760
 1.2590	48.8880
 1.2600	48.8970
 1.2610	48.9050
 1.2620	48.9090
 1.2630	48.9160
 1.2640	48.9190
 1.2650	48.9220
 1.2660	48.9250
 1.2670	48.9250
 1.2680	48.9250
 1.2690	48.9210
 1.2700	48.9140
 1.2710	48.9060
 1.2720	48.8950
 1.2730	48.8870
 1.2740	48.8780
 1.2750	48.8660
 1.2760	48.8550
 1.2770	48.8410
 1.2780	48.8240
 1.2790	48.8080
 1.2800	48.7870
 1.2810	48.7630
 1.2820	48.7390
 1.2830	48.7120
 1.2840	48.6840
 1.2850	48.6540
 1.2860	48.6200
 1.2870	48.5840
 1.2880	48.5450
 1.2890	48.5030
 1.2900	48.4570
 1.2910	48.4110
 1.2920	48.3620
 1.2930	48.3080
 1.2940	48.2510
 1.2950	48.1900
 1.2960	48.1250
 1.2970	48.0580
 1.2980	47.9870
 1.2990	47.9150
 1.3000	47.8400
 1.3010	47.7590
 1.3020	47.6730
 1.3030	47.5850
 1.3040	47.4930
 1.3050	47.4010
 1.3060	47.3040
 1.3070	47.2020
 1.3080	47.0950
 1.3090	46.9830
 1.3100	46.8700
 1.3110	46.7540
 1.3120	46.6320
 1.3130	46.5070
 1.3140	46.3780
 1.3150	46.2440
 1.3160	46.1040
 1.3170	45.9610
 1.3180	45.8120
 1.3190	45.6590
 1.3200	45.5020
 1.3210	45.3410
 1.3220	45.1770
 1.3230	45.0090
 1.3240	44.8360
 1.3250	44.6630
 1.3260	44.4840
 1.3270	44.3020
 1.3280	44.1200
 1.3290	43.9310
 1.3300	43.7420
 1.3310	43.5510
 1.3320	43.3540
 1.3330	43.1580
 1.3340	42.9590
 1.3350	42.7610
 1.3360	42.5630
 1.3370	42.3630
 1.3380	42.1640
 1.3390	41.9660
 1.3400	41.7670
 1.3410	41.5720
 1.3420	41.3770
 1.3430	41.1850
 1.3440	40.9950
 1.3450	40.8060
 1.3460	40.6180
 1.3470	40.4340
 1.3480	40.2500
 1.3490	40.0690
 1.3500	39.8930
 1.3510	39.7160
 1.3520	39.5400
 1.3530	39.3660
 1.3540	39.1920
 1.3550	39.0170
 1.3560	38.8420
 1.3570	38.6660
 1.3580	38.4890
 1.3590	38.3080
 1.3600	38.1250
 1.3610	37.9370
 1.3620	37.7410
 1.3630	37.5420
 1.3640	37.3350
 1.3650	37.1180
 1.3660	36.8950
 1.3670	36.6610
 1.3680	36.4150
 1.3690	36.1550
 1.3700	35.8780
 1.3710	35.5860
 1.3720	35.2770
 1.3730	34.9470
 1.3740	34.6000
 1.3750	34.2310
 1.3760	33.8380
 1.3770	33.4220
 1.3780	32.9770
 1.3790	32.5080
 1.3800	32.0160
 1.3810	31.4940
 1.3820	30.9540
 1.3830	30.3920
 1.3840	29.8130
 1.3850	29.2130
 1.3860	28.6020
 1.3870	27.9700
 1.3880	27.3390
 1.3890	26.6970
 1.3900	26.0490
 1.3910	25.4080
 1.3920	24.7640
 1.3930	24.1210
 1.3940	23.4880
 1.3950	22.8560
 1.3960	22.2370
 1.3970	21.6360
 1.3980	21.0490
 1.3990	20.4880
 1.4000	19.9480
 1.4010	19.4240
 1.4020	18.9260
 1.4030	18.4480
 1.4040	17.9930
 1.4050	17.5640
 1.4060	17.1600
 1.4070	16.7840
 1.4080	16.4310
 1.4090	16.0990
 1.4100	15.7910
 1.4110	15.5020
 1.4120	15.2330
 1.4130	14.9870
 1.4140	14.7570
 1.4150	14.5470
 1.4160	14.3550
 1.4170	14.1770
 1.4180	14.0140
 1.4190	13.8640
 1.4200	13.7270
 1.4210	13.6010
 1.4220	13.4850
 1.4230	13.3810
 1.4240	13.2870
 1.4250	13.2010
 1.4260	13.1250
 1.4270	13.0560
 1.4280	12.9940
 1.4290	12.9390
 1.4300	12.8920
 1.4310	12.8500
 1.4320	12.8150
 1.4330	12.7830
 1.4340	12.7560
 1.4350	12.7340
 1.4360	12.7170
 1.4370	12.7040
 1.4380	12.6950
 1.4390	12.6890
 1.4400	12.6850
 1.4410	12.6840
 1.4420	12.6870
 1.4430	12.6910
 1.4440	12.6990
 1.4450	12.7080
 1.4460	12.7190
 1.4470	12.7310
 1.4480	12.7440
 1.4490	12.7590
 1.4500	12.7760
 1.4510	12.7940
 1.4520	12.8130
 1.4530	12.8330
 1.4540	12.8540
 1.4550	12.8780
 1.4560	12.9030
 1.4570	12.9300
 1.4580	12.9610
 1.4590	12.9930
 1.4600	13.0300
 1.4610	13.0700
 1.4620	13.1140
 1.4630	13.1630
 1.4640	13.2140
 1.4650	13.2700
 1.4660	13.3300
 1.4670	13.3940
 1.4680	13.4630
 1.4690	13.5360
 1.4700	13.6130
 1.4710	13.6960
 1.4720	13.7810
 1.4730	13.8690
 1.4740	13.9610
 1.4750	14.0560
 1.4760	14.1540
 1.4770	14.2540
 1.4780	14.3570
 1.4790	14.4620
 1.4800	14.5670
 1.4810	14.6760
 1.4820	14.7860
 1.4830	14.8970
 1.4840	15.0110
 1.4850	15.1250
 1.4860	15.2390
 1.4870	15.3560
 1.4880	15.4730
 1.4890	15.5890
 1.4900	15.7080
 1.4910	15.8270
 1.4920	15.9470
 1.4930	16.0710
 1.4940	16.1920
 1.4950	16.3150
 1.4960	16.4380
 1.4970	16.5580
 1.4980	16.6810
 1.4990	16.8040
 1.5000	16.9280
 1.5010	17.0530
 1.5020	17.1780
 1.5030	17.3030
 1.5040	17.4280
 1.5050	17.5510
 1.5060	17.6770
 1.5070	17.8020
 1.5080	17.9270
 1.5090	18.0540
 1.5100	18.1790
 1.5110	18.3030
 1.5120	18.4290
 1.5130	18.5520
 1.5140	18.6760
 1.5150	18.8000
 1.5160	18.9220
 1.5170	19.0450
 1.5180	19.1680
 1.5190	19.2910
 1.5200	19.4130
 1.5210	19.5320
 1.5220	19.6510
 1.5230	19.7700
 1.5240	19.8900
 1.5250	20.0110
 1.5260	20.1310
 1.5270	20.2490
 1.5280	20.3660
 1.5290	20.4800
 1.5300	20.5940
 1.5310	20.7090
 1.5320	20.8220
 1.5330	20.9370
 1.5340	21.0490
 1.5350	21.1600
 1.5360	21.2720
 1.5370	21.3810
 1.5380	21.4910
 1.5390	21.6010
 1.5400	21.7070
 1.5410	21.8140
 1.5420	21.9210
 1.5430	22.0260
 1.5440	22.1320
 1.5450	22.2350
 1.5460	22.3390
 1.5470	22.4420
 1.5480	22.5430
 1.5490	22.6440
 1.5500	22.7460
 1.5510	22.8460
 1.5520	22.9450
 1.5530	23.0430
 1.5540	23.1400
 1.5550	23.2350
 1.5560	23.3290
 1.5570	23.4230
 1.5580	23.5160
 1.5590	23.6080
 1.5600	23.6990
 1.5610	23.7890
 1.5620	23.8770
 1.5630	23.9650
 1.5640	24.0500
 1.5650	24.1370
 1.5660	24.2230
 1.5670	24.3080
 1.5680	24.3930
 1.5690	24.4760
 1.5700	24.5590
 1.5710	24.6420
 1.5720	24.7220
 1.5730	24.8050
 1.5740	24.8870
 1.5750	24.9680
 1.5760	25.0510
 1.5770	25.1320
 1.5780	25.2090
 1.5790	25.2880
 1.5800	25.3660
 1.5810	25.4440
 1.5820	25.5240
 1.5830	25.6030
 1.5840	25.6820
 1.5850	25.7590
 1.5860	25.8350
 1.5870	25.9130
 1.5880	25.9890
 1.5890	26.0650
 1.5900	26.1410
 1.5910	26.2140
 1.5920	26.2870
 1.5930	26.3610
 1.5940	26.4350
 1.5950	26.5080
 1.5960	26.5810
 1.5970	26.6530
 1.5980	26.7240
 1.5990	26.7940
 1.6000	26.8660
 1.6010	26.9350
 1.6020	27.0050
 1.6030	27.0750
 1.6040	27.1440
 1.6050	27.2120
 1.6060	27.2780
 1.6070	27.3410
 1.6080	27.4050
 1.6090	27.4650
 1.6100	27.5270
 1.6110	27.5910
 1.6120	27.6500
 1.6130	27.7110
 1.6140	27.7710
 1.6150	27.8250
 1.6160	27.8810
 1.6170	27.9360
 1.6180	27.9890
 1.6190	28.0440
 1.6200	28.0990
 1.6210	28.1510
 1.6220	28.2010
 1.6230	28.2510
 1.6240	28.2970
 1.6250	28.3420
 1.6260	28.3900
 1.6270	28.4360
 1.6280	28.4850
 1.6290	28.5290
 1.6300	28.5710
 1.6310	28.6130
 1.6320	28.6550
 1.6330	28.6950
 1.6340	28.7360
 1.6350	28.7730
 1.6360	28.8090
 1.6370	28.8420
 1.6380	28.8740
 1.6390	28.9060
 1.6400	28.9360
 1.6410	28.9620
 1.6420	28.9880
 1.6430	29.0080
 1.6440	29.0230
 1.6450	29.0380
 1.6460	29.0510
 1.6470	29.0590
 1.6480	29.0650
 1.6490	29.0680
 1.6500	29.0670
 1.6510	29.0620
 1.6520	29.0560
 1.6530	29.0440
 1.6540	29.0290
 1.6550	29.0110
 1.6560	28.9900
 1.6570	28.9670
 1.6580	28.9430
 1.6590	28.9160
 1.6600	28.8870
 1.6610	28.8580
 1.6620	28.8280
 1.6630	28.7990
 1.6640	28.7710
 1.6650	28.7440
 1.6660	28.7160
 1.6670	28.6890
 1.6680	28.6620
 1.6690	28.6350
 1.6700	28.6090
 1.6710	28.5830
 1.6720	28.5570
 1.6730	28.5330
 1.6740	28.5080
 1.6750	28.4810
 1.6760	28.4550
 1.6770	28.4250
 1.6780	28.3930
 1.6790	28.3590
 1.6800	28.3230
 1.6810	28.2870
 1.6820	28.2510
 1.6830	28.2150
 1.6840	28.1750
 1.6850	28.1340
 1.6860	28.0920
 1.6870	28.0500
 1.6880	28.0070
 1.6890	27.9610
 1.6900	27.9140
 1.6910	27.8660
 1.6920	27.8160
 1.6930	27.7650
 1.6940	27.7120
 1.6950	27.6570
 1.6960	27.6020
 1.6970	27.5450
 1.6980	27.4860
 1.6990	27.4240
 1.7000	27.3620
 1.7010	27.3010
 1.7020	27.2370
 1.7030	27.1720
 1.7040	27.1060
 1.7050	27.0370
 1.7060	26.9690
 1.7070	26.9030
 1.7080	26.8370
 1.7090	26.7710
 1.7100	26.7050
 1.7110	26.6410
 1.7120	26.5770
 1.7130	26.5140
 1.7140	26.4530
 1.7150	26.3940
 1.7160	26.3350
 1.7170	26.2760
 1.7180	26.2180
 1.7190	26.1610
 1.7200	26.1060
 1.7210	26.0540
 1.7220	26.0010
 1.7230	25.9470
 1.7240	25.8960
 1.7250	25.8470
 1.7260	25.7990
 1.7270	25.7550
 1.7280	25.7130
 1.7290	25.6720
 1.7300	25.6380
 1.7310	25.6000
 1.7320	25.5630
 1.7330	25.5250
 1.7340	25.4870
 1.7350	25.4480
 1.7360	25.4120
 1.7370	25.3710
 1.7380	25.3270
 1.7390	25.2820
 1.7400	25.2320
 1.7410	25.1800
 1.7420	25.1270
 1.7430	25.0720
 1.7440	25.0130
 1.7450	24.9530
 1.7460	24.8920
 1.7470	24.8300
 1.7480	24.7660
 1.7490	24.7040
 1.7500	24.6410
 1.7510	24.5800
 1.7520	24.5210
 1.7530	24.4610
 1.7540	24.4020
 1.7550	24.3440
 1.7560	24.2880
 1.7570	24.2350
 1.7580	24.1830
 1.7590	24.1310
 1.7600	24.0810
 1.7610	24.0310
 1.7620	23.9850
 1.7630	23.9410
 1.7640	23.8990
 1.7650	23.8610
 1.7660	23.8240
 1.7670	23.7880
 1.7680	23.7530
 1.7690	23.7180
 1.7700	23.6850
 1.7710	23.6510
 1.7720	23.6200
 1.7730	23.5930
 1.7740	23.5640
 1.7750	23.5360
 1.7760	23.5080
 1.7770	23.4770
 1.7780	23.4510
 1.7790	23.4270
 1.7800	23.4030
 1.7810	23.3820
 1.7820	23.3630
 1.7830	23.3450
 1.7840	23.3280
 1.7850	23.3150
 1.7860	23.3020
 1.7870	23.2880
 1.7880	23.2800
 1.7890	23.2730
 1.7900	23.2660
 1.7910	23.2610
 1.7920	23.2580
 1.7930	23.2560
 1.7940	23.2570
 1.7950	23.2570
 1.7960	23.2550
 1.7970	23.2580
 1.7980	23.2610
 1.7990	23.2670
 1.8000	23.2760
 1.8010	23.2850
 1.8020	23.2930
 1.8030	23.3010
 1.8040	23.3090
 1.8050	23.3170
 1.8060	23.3250
 1.8070	23.3320
 1.8080	23.3410
 1.8090	23.3480
 1.8100	23.3550
 1.8110	23.3640
 1.8120	23.3680
 1.8130	23.3720
 1.8140	23.3760
 1.8150	23.3820
 1.8160	23.3880
 1.8170	23.3930
 1.8180	23.3970
 1.8190	23.3970
 1.8200	23.3970
 1.8210	23.3960
 1.8220	23.3940
 1.8230	23.3910
 1.8240	23.3860
 1.8250	23.3780
 1.8260	23.3690
 1.8270	23.3370
 1.8280	23.3060
 1.8290	23.2750
 1.8300	23.2440
 1.8310	23.2130
 1.8320	23.1810
 1.8330	23.1500
 1.8340	23.1190
 1.8350	23.1190
 1.8360	23.0770
 1.8370	23.0290
 1.8380	22.9770
 1.8390	22.9190
 1.8400	22.8580
 1.8410	22.7910
 1.8420	22.7190
 1.8430	22.6420
 1.8440	22.5560
 1.8450	22.4650
 1.8460	22.3640
 1.8470	22.2520
 1.8480	22.1350
 1.8490	22.0050
 1.8500	21.8630
 1.8510	21.7080
 1.8520	21.5450
 1.8530	21.3670
 1.8540	21.1780
 1.8550	20.9810
 1.8560	20.7670
 1.8570	20.5370
 1.8580	20.2970
 1.8590	20.0430
 1.8600	19.7730
 1.8610	19.4930
 1.8620	19.2010
 1.8630	18.8890
 1.8640	18.5640
 1.8650	18.2220
 1.8660	17.8610
 1.8670	17.4820
 1.8680	17.0900
 1.8690	16.6820
 1.8700	16.2600
 1.8710	15.8250
 1.8720	15.3860
 1.8730	14.9340
 1.8740	14.4710
 1.8750	14.0090
 1.8760	13.5400
 1.8770	13.0720
 1.8780	12.6120
 1.8790	12.1530
 1.8800	11.7040
 1.8810	11.2610
 1.8820	10.8250
 1.8830	10.3980
 1.8840	 9.9820
 1.8850	 9.5770
 1.8860	 9.1870
 1.8870	 8.8130
 1.8880	 8.4540
 1.8890	 8.1150
 1.8900	 7.7940
 1.8910	 7.4940
 1.8920	 7.2110
 1.8930	 6.9520
 1.8940	 6.7130
 1.8950	 6.4940
 1.8960	 6.2940
 1.8970	 6.1110
 1.8980	 5.9460
 1.8990	 5.7960
 1.9000	 5.6600
 1.9010	 5.5420
 1.9020	 5.4330
 1.9030	 5.3390
 1.9040	 5.2540
 1.9050	 5.1770
 1.9060	 5.1080
 1.9070	 5.0510
 1.9080	 5.0010
 1.9090	 4.9590
 1.9100	 4.9230
 1.9110	 4.8890
 1.9120	 4.8580
 1.9130	 4.8310
 1.9140	 4.8070
 1.9150	 4.7870
 1.9160	 4.7700
 1.9170	 4.7540
 1.9180	 4.7430
 1.9190	 4.7340
 1.9200	 4.7250
 1.9210	 4.7170
 1.9220	 4.7100
 1.9230	 4.7020
 1.9240	 4.6990
 1.9250	 4.6980
 1.9260	 4.7000
 1.9270	 4.7020
 1.9280	 4.7060
 1.9290	 4.7080
 1.9300	 4.7130
 1.9310	 4.7180
 1.9320	 4.7240
 1.9330	 4.7300
 1.9340	 4.7370
 1.9350	 4.7450
 1.9360	 4.7540
 1.9370	 4.7630
 1.9380	 4.7740
 1.9390	 4.7860
 1.9400	 4.7970
 1.9410	 4.8080
 1.9420	 4.8210
 1.9430	 4.8340
 1.9440	 4.8490
 1.9450	 4.8660
 1.9460	 4.8830
 1.9470	 4.8990
 1.9480	 4.9170
 1.9490	 4.9360
 1.9500	 4.9560
 1.9510	 4.9770
 1.9520	 4.9980
 1.9530	 5.0190
 1.9540	 5.0380
 1.9550	 5.0600
 1.9560	 5.0820
 1.9570	 5.1040
 1.9580	 5.1280
 1.9590	 5.1530
 1.9600	 5.1780
 1.9610	 5.2040
 1.9620	 5.2330
 1.9630	 5.2610
 1.9640	 5.2890
 1.9650	 5.3170
 1.9660	 5.3470
 1.9670	 5.3760
 1.9680	 5.4070
 1.9690	 5.4390
 1.9700	 5.4700
 1.9710	 5.5010
 1.9720	 5.5340
 1.9730	 5.5670
 1.9740	 5.6010
 1.9750	 5.6340
 1.9760	 5.6690
 1.9770	 5.7040
 1.9780	 5.7400
 1.9790	 5.7780
 1.9800	 5.8180
 1.9810	 5.8580
 1.9820	 5.8980
 1.9830	 5.9380
 1.9840	 5.9760
 1.9850	 6.0170
 1.9860	 6.0600
 1.9870	 6.1050
 1.9880	 6.1480
 1.9890	 6.1930
 1.9900	 6.2370
 1.9910	 6.2810
 1.9920	 6.3260
 1.9930	 6.3730
 1.9940	 6.4200
 1.9950	 6.4650
 1.9960	 6.5120
 1.9970	 6.5600
 1.9980	 6.6090
 1.9990	 6.6590
 2.0000	 6.7090
 2.0010	 6.7570
 2.0020	 6.8030
 2.0030	 6.8500
 2.0040	 6.8970
 2.0050	 6.9440
 2.0060	 6.9920
 2.0070	 7.0410
 2.0080	 7.0920
 2.0090	 7.1410
 2.0100	 7.1920
 2.0110	 7.2420
 2.0120	 7.2890
 2.0130	 7.3360
 2.0140	 7.3830
 2.0150	 7.4320
 2.0160	 7.4800
 2.0170	 7.5270
 2.0180	 7.5740
 2.0190	 7.6210
 2.0200	 7.6670
 2.0210	 7.7120
 2.0220	 7.7560
 2.0230	 7.7980
 2.0240	 7.8410
 2.0250	 7.8830
 2.0260	 7.9250
 2.0270	 7.9660
 2.0280	 8.0080
 2.0290	 8.0480
 2.0300	 8.0870
 2.0310	 8.1250
 2.0320	 8.1620
 2.0330	 8.1980
 2.0340	 8.2330
 2.0350	 8.2670
 2.0360	 8.3000
 2.0370	 8.3330
 2.0380	 8.3650
 2.0390	 8.3960
 2.0400	 8.4250
 2.0410	 8.4560
 2.0420	 8.4870
 2.0430	 8.5180
 2.0440	 8.5470
 2.0450	 8.5770
 2.0460	 8.6050
 2.0470	 8.6290
 2.0480	 8.6580
 2.0490	 8.6910
 2.0500	 8.7210
 2.0510	 8.7530
 2.0520	 8.7830
 2.0530	 8.8110
 2.0540	 8.8410
 2.0550	 8.8700
 2.0560	 8.9040
 2.0570	 8.9350
 2.0580	 8.9650
 2.0590	 8.9970
 2.0600	 9.0290
 2.0610	 9.0620
 2.0620	 9.0960
 2.0630	 9.1290
 2.0640	 9.1620
 2.0650	 9.1970
 2.0660	 9.2330
 2.0670	 9.2680
 2.0680	 9.3040
 2.0690	 9.3380
 2.0700	 9.3730
 2.0710	 9.4070
 2.0720	 9.4400
 2.0730	 9.4720
 2.0740	 9.5050
 2.0750	 9.5360
 2.0760	 9.5690
 2.0770	 9.6040
 2.0780	 9.6390
 2.0790	 9.6760
 2.0800	 9.7090
 2.0810	 9.7420
 2.0820	 9.7740
 2.0830	 9.8040
 2.0840	 9.8340
 2.0850	 9.8640
 2.0860	 9.8940
 2.0870	 9.9250
 2.0880	 9.9550
 2.0890	 9.9860
 2.0900	10.0170
 2.0910	10.0490
 2.0920	10.0830
 2.0930	10.1160
 2.0940	10.1490
 2.0950	10.1810
 2.0960	10.2100
 2.0970	10.2400
 2.0980	10.2700
 2.0990	10.3000
 2.1000	10.3300
 2.1010	10.3590
 2.1020	10.3870
 2.1030	10.4160
 2.1040	10.4440
 2.1050	10.4720
 2.1060	10.5020
 2.1070	10.5350
 2.1080	10.5640
 2.1090	10.5930
 2.1100	10.6200
 2.1110	10.6430
 2.1120	10.6690
 2.1130	10.6950
 2.1140	10.7210
 2.1150	10.7460
 2.1160	10.7720
 2.1170	10.7970
 2.1180	10.8220
 2.1190	10.8490
 2.1200	10.8740
 2.1210	10.8960
 2.1220	10.9190
 2.1230	10.9390
 2.1240	10.9560
 2.1250	10.9770
 2.1260	10.9990
 2.1270	11.0190
 2.1280	11.0400
 2.1290	11.0580
 2.1300	11.0740
 2.1310	11.0900
 2.1320	11.1070
 2.1330	11.1230
 2.1340	11.1390
 2.1350	11.1550
 2.1360	11.1700
 2.1370	11.1860
 2.1380	11.2020
 2.1390	11.2190
 2.1400	11.2370
 2.1410	11.2580
 2.1420	11.2780
 2.1430	11.2990
 2.1440	11.3160
 2.1450	11.3300
 2.1460	11.3470
 2.1470	11.3640
 2.1480	11.3820
 2.1490	11.4030
 2.1500	11.4230
 2.1510	11.4410
 2.1520	11.4600
 2.1530	11.4810
 2.1540	11.5010
 2.1550	11.5210
 2.1560	11.5420
 2.1570	11.5630
 2.1580	11.5860
 2.1590	11.6110
 2.1600	11.6350
 2.1610	11.6560
 2.1620	11.6780
 2.1630	11.7000
 2.1640	11.7200
 2.1650	11.7410
 2.1660	11.7660
 2.1670	11.7860
 2.1680	11.8000
 2.1690	11.8200
 2.1700	11.8410
 2.1710	11.8610
 2.1720	11.8860
 2.1730	11.9070
 2.1740	11.9240
 2.1750	11.9450
 2.1760	11.9680
 2.1770	11.9910
 2.1780	12.0160
 2.1790	12.0400
 2.1800	12.0640
 2.1810	12.0880
 2.1820	12.1140
 2.1830	12.1380
 2.1840	12.1640
 2.1850	12.1890
 2.1860	12.2150
 2.1870	12.2420
 2.1880	12.2680
 2.1890	12.2960
 2.1900	12.3200
 2.1910	12.3420
 2.1920	12.3650
 2.1930	12.3860
 2.1940	12.4090
 2.1950	12.4350
 2.1960	12.4580
 2.1970	12.4780
 2.1980	12.5020
 2.1990	12.5290
 2.2000	12.5520
 2.2010	12.5790
 2.2020	12.6020
 2.2030	12.6210
 2.2040	12.6400
 2.2050	12.6570
 2.2060	12.6730
 2.2070	12.6900
 2.2080	12.7050
 2.2090	12.7210
 2.2100	12.7420
 2.2110	12.7550
 2.2120	12.7640
 2.2130	12.7750
 2.2140	12.7840
 2.2150	12.7930
 2.2160	12.8070
 2.2170	12.8130
 2.2180	12.8120
 2.2190	12.8160
 2.2200	12.8210
 2.2210	12.8220
 2.2220	12.8230
 2.2230	12.8220
 2.2240	12.8170
 2.2250	12.8100
 2.2260	12.8050
 2.2270	12.7950
 2.2280	12.7780
 2.2290	12.7620
 2.2300	12.7450
 2.2310	12.7250
 2.2320	12.7030
 2.2330	12.6780
 2.2340	12.6510
 2.2350	12.6230
 2.2360	12.5890
 2.2370	12.5520
 2.2380	12.5120
 2.2390	12.4640
 2.2400	12.4190
 2.2410	12.3730
 2.2420	12.3260
 2.2430	12.2770
 2.2440	12.2260
 2.2450	12.1750
 2.2460	12.1190
 2.2470	12.0580
 2.2480	11.9990
 2.2490	11.9370
 2.2500	11.8760
 2.2510	11.8170
 2.2520	11.7550
 2.2530	11.6900
 2.2540	11.6280
 2.2550	11.5670
 2.2560	11.5070
 2.2570	11.4490
 2.2580	11.3890
 2.2590	11.3250
 2.2600	11.2620
 2.2610	11.1970
 2.2620	11.1340
 2.2630	11.0740
 2.2640	11.0160
 2.2650	10.9670
 2.2660	10.9180
 2.2670	10.8680
 2.2680	10.8220
 2.2690	10.7750
 2.2700	10.7260
 2.2710	10.6780
 2.2720	10.6330
 2.2730	10.5850
 2.2740	10.5320
 2.2750	10.4890
 2.2760	10.4490
 2.2770	10.4100
 2.2780	10.3780
 2.2790	10.3400
 2.2800	10.3000
 2.2810	10.2590
 2.2820	10.2150
 2.2830	10.1730
 2.2840	10.1300
 2.2850	10.0890
 2.2860	10.0510
 2.2870	10.0100
 2.2880	 9.9690
 2.2890	 9.9260
 2.2900	 9.8770
 2.2910	 9.8320
 2.2920	 9.7890
 2.2930	 9.7440
 2.2940	 9.6990
 2.2950	 9.6540
 2.2960	 9.6070
 2.2970	 9.5620
 2.2980	 9.5190
 2.2990	 9.4780
 2.3000	 9.4380
 2.3010	 9.4000
 2.3020	 9.3690
 2.3030	 9.3390
 2.3040	 9.3120
 2.3050	 9.2830
 2.3060	 9.2500
 2.3070	 9.2200
 2.3080	 9.1930
 2.3090	 9.1670
 2.3100	 9.1480
 2.3110	 9.1330
 2.3120	 9.1180
 2.3130	 9.1090
 2.3140	 9.0980
 2.3150	 9.0880
 2.3160	 9.0770
 2.3170	 9.0660
 2.3180	 9.0540
 2.3190	 9.0420
 2.3200	 9.0280
 2.3210	 9.0130
 2.3220	 8.9940
 2.3230	 8.9720
 2.3240	 8.9470
 2.3250	 8.9170
 2.3260	 8.8930
 2.3270	 8.8690
 2.3280	 8.8440
 2.3290	 8.8250
 2.3300	 8.7990
 2.3310	 8.7660
 2.3320	 8.7350
 2.3330	 8.7020
 2.3340	 8.6690
 2.3350	 8.6340
 2.3360	 8.6010
 2.3370	 8.5690
 2.3380	 8.5370
 2.3390	 8.5070
 2.3400	 8.4740
 2.3410	 8.4370
 2.3420	 8.4010
 2.3430	 8.3660
 2.3440	 8.3290
 2.3450	 8.2880
 2.3460	 8.2550
 2.3470	 8.2240
 2.3480	 8.1960
 2.3490	 8.1740
 2.3500	 8.1530
 2.3510	 8.1350
 2.3520	 8.1140
 2.3530	 8.0910
 2.3540	 8.0760
 2.3550	 8.0560
 2.3560	 8.0320
 2.3570	 8.0120
 2.3580	 7.9920
 2.3590	 7.9780
 2.3600	 7.9660
 2.3610	 7.9440
 2.3620	 7.9170
 2.3630	 7.8840
 2.3640	 7.8520
 2.3650	 7.8300
 2.3660	 7.8150
 2.3670	 7.7970
 2.3680	 7.7740
 2.3690	 7.7490
 2.3700	 7.7220
 2.3710	 7.6930
 2.3720	 7.6680
 2.3730	 7.6430
 2.3740	 7.6180
 2.3750	 7.6000
 2.3760	 7.5800
 2.3770	 7.5510
 2.3780	 7.5230
 2.3790	 7.4980
 2.3800	 7.4680
 2.3810	 7.4410
 2.3820	 7.4250
 2.3830	 7.4030
 2.3840	 7.3760
 2.3850	 7.3450
 2.3860	 7.3070
 2.3870	 7.2710
 2.3880	 7.2320
 2.3890	 7.2060
 2.3900	 7.1850
 2.3910	 7.1530
 2.3920	 7.1280
 2.3930	 7.0920
 2.3940	 7.0550
 2.3950	 7.0270
 2.3960	 6.9920
 2.3970	 6.9740
 2.3980	 6.9620
 2.3990	 6.9410
 2.4000	 6.9170
 2.4010	 6.8830
 2.4020	 6.8430
 2.4030	 6.8000
 2.4040	 6.7630
 2.4050	 6.7380
 2.4060	 6.7060
 2.4070	 6.6800
 2.4080	 6.6650
 2.4090	 6.6350
 2.4100	 6.6020
 2.4110	 6.5810
 2.4120	 6.5510
 2.4130	 6.5110
 2.4140	 6.4850
 2.4150	 6.4580
 2.4160	 6.4190
 2.4170	 6.3970
 2.4180	 6.3750
 2.4190	 6.3460
 2.4200	 6.3270
 2.4210	 6.3040
 2.4220	 6.2780
 2.4230	 6.2550
 2.4240	 6.2210
 2.4250	 6.1880
 2.4260	 6.1610
 2.4270	 6.1330
 2.4280	 6.1040
 2.4290	 6.0720
 2.4300	 6.0410
 2.4310	 6.0060
 2.4320	 5.9700
 2.4330	 5.9390
 2.4340	 5.9120
 2.4350	 5.8900
 2.4360	 5.8680
 2.4370	 5.8470
 2.4380	 5.8110
 2.4390	 5.7580
 2.4400	 5.7250
 2.4410	 5.7110
 2.4420	 5.6940
 2.4430	 5.6860
 2.4440	 5.6670
 2.4450	 5.6290
 2.4460	 5.6090
 2.4470	 5.5880
 2.4480	 5.5550
 2.4490	 5.5290
 2.4500	 5.5050
 2.4510	 5.4740
 2.4520	 5.4470
 2.4530	 5.4270
 2.4540	 5.3820
 2.4550	 5.3470
 2.4560	 5.3360
 2.4570	 5.3080
 2.4580	 5.2790
 2.4590	 5.2660
 2.4600	 5.2340
 2.4610	 5.2010
 2.4620	 5.2080
 2.4630	 5.2080
 2.4640	 5.2010
 2.4650	 5.2030
 2.4660	 5.1730
 2.4670	 5.1360
 2.4680	 5.1020
 2.4690	 5.0760
 2.4700	 5.0580
 2.4710	 5.0420
 2.4720	 5.0230
 2.4730	 5.0130
 2.4740	 4.9940
 2.4750	 4.9750
 2.4760	 4.9580
 2.4770	 4.9340
 2.4780	 4.9280
 2.4790	 4.9290
 2.4800	 4.9110
 2.4810	 4.9070
 2.4820	 4.8530
 2.4830	 4.8230
 2.4840	 4.8280
 2.4850	 4.8190
 2.4860	 4.8110
 2.4870	 4.8140
 2.4880	 4.8020
 2.4890	 4.7930
 2.4900	 4.8060
 2.4910	 4.8180
 2.4920	 4.8220
 2.4930	 4.8260
 2.4940	 4.8270
 2.4950	 4.7900
 2.4960	 4.7320
 2.4970	 4.7260
 2.4980	 4.7180
 2.4990	 4.7110
 2.5000	 4.7110
