Name: Phyllostachys aurea
Type: vegetation
Class: Tree
Genus: Phyllostachys
Species: aurea
Sample No.: JPL089
Owner: JPL
Wavelength Range: TIR
Origin: 34.12517; - 118.1154; WGS84
Collection Date: 2/2/2016
Description: Samples were collected at the Huntington Garden in San Marino California as part of a JPL Subcontract studying HyTES imagery. Samples were taken to JPL and processed within 48 hours of collection. The same leaves were processed in the Nicolet and then measured using the ASD.
Measurement: Hemispherical reflectance
First Column: X
Second Column: Y
X Units: Wavelength (micrometer)
Y Units: Reflectance (percentage)
First X Value: 2.501
Last X Value: 15.387
Number of X Values: 1737
Additional Information: 

 2.5010	 9.4350
 2.5030	 9.4320
 2.5040	 9.4740
 2.5050	 9.3880
 2.5060	 9.2990
 2.5070	 9.2920
 2.5090	 9.3370
 2.5100	 9.2960
 2.5110	 9.2930
 2.5120	 9.2480
 2.5140	 9.2160
 2.5150	 9.1830
 2.5160	 9.1960
 2.5170	 9.1650
 2.5180	 9.1770
 2.5200	 9.1580
 2.5210	 9.1550
 2.5220	 9.1740
 2.5230	 9.1980
 2.5250	 9.1430
 2.5260	 9.1300
 2.5270	 9.1460
 2.5280	 9.1620
 2.5300	 9.1290
 2.5310	 9.1710
 2.5320	 9.1360
 2.5330	 9.0950
 2.5340	 9.0580
 2.5360	 9.0870
 2.5370	 9.1220
 2.5380	 9.1700
 2.5390	 9.1730
 2.5410	 9.2420
 2.5420	 9.1830
 2.5430	 9.1780
 2.5440	 9.1880
 2.5460	 9.2210
 2.5470	 9.1650
 2.5480	 9.1440
 2.5490	 9.2120
 2.5510	 9.2600
 2.5520	 9.2430
 2.5530	 9.2860
 2.5540	 9.3350
 2.5560	 9.3900
 2.5570	 9.3990
 2.5580	 9.3750
 2.5590	 9.2680
 2.5610	 9.3030
 2.5620	 9.2980
 2.5630	 9.3370
 2.5650	 9.3900
 2.5660	 9.4640
 2.5670	 9.5020
 2.5680	 9.4970
 2.5700	 9.4510
 2.5710	 9.4640
 2.5720	 9.4760
 2.5730	 9.4340
 2.5750	 9.3800
 2.5760	 9.3860
 2.5770	 9.3790
 2.5790	 9.4130
 2.5800	 9.3850
 2.5810	 9.4020
 2.5820	 9.3250
 2.5840	 9.2410
 2.5850	 9.2040
 2.5860	 9.2290
 2.5880	 9.1870
 2.5890	 9.2340
 2.5900	 9.2820
 2.5910	 9.2860
 2.5930	 9.1940
 2.5940	 9.0300
 2.5950	 8.8830
 2.5970	 9.0690
 2.5980	 9.1560
 2.5990	 9.0590
 2.6010	 8.9030
 2.6020	 8.8430
 2.6030	 8.8220
 2.6040	 8.7550
 2.6060	 8.6220
 2.6070	 8.6140
 2.6080	 8.6380
 2.6100	 8.6100
 2.6110	 8.5430
 2.6120	 8.5260
 2.6140	 8.3660
 2.6150	 8.3000
 2.6160	 8.1870
 2.6180	 8.0200
 2.6190	 7.9670
 2.6200	 7.9100
 2.6220	 7.8370
 2.6230	 7.8150
 2.6240	 7.7210
 2.6260	 7.6820
 2.6270	 7.5350
 2.6280	 7.5010
 2.6300	 7.3480
 2.6310	 7.1400
 2.6320	 7.1170
 2.6340	 7.1630
 2.6350	 7.0590
 2.6360	 6.9710
 2.6380	 6.8150
 2.6390	 6.6650
 2.6400	 6.5440
 2.6420	 6.5330
 2.6430	 6.4500
 2.6440	 6.3830
 2.6460	 6.2610
 2.6470	 6.2520
 2.6480	 6.1960
 2.6500	 6.0590
 2.6510	 5.8970
 2.6520	 5.7750
 2.6540	 5.7160
 2.6550	 5.6630
 2.6570	 5.5260
 2.6580	 5.4680
 2.6590	 5.3440
 2.6610	 5.2220
 2.6620	 5.1230
 2.6630	 5.0910
 2.6650	 4.8890
 2.6660	 4.7200
 2.6670	 4.6100
 2.6690	 4.6330
 2.6700	 4.5080
 2.6720	 4.3750
 2.6730	 4.3440
 2.6740	 4.3180
 2.6760	 4.2070
 2.6770	 4.1240
 2.6780	 4.0020
 2.6800	 3.9020
 2.6810	 3.7780
 2.6830	 3.7350
 2.6840	 3.6340
 2.6850	 3.5680
 2.6870	 3.4720
 2.6880	 3.3670
 2.6900	 3.2680
 2.6910	 3.2550
 2.6920	 3.1740
 2.6940	 3.1000
 2.6950	 3.0130
 2.6970	 2.9520
 2.6980	 2.8400
 2.6990	 2.7270
 2.7010	 2.6620
 2.7020	 2.6950
 2.7040	 2.6740
 2.7050	 2.6450
 2.7060	 2.5770
 2.7080	 2.5750
 2.7090	 2.5240
 2.7110	 2.4970
 2.7120	 2.4300
 2.7130	 2.4270
 2.7150	 2.3760
 2.7160	 2.4360
 2.7180	 2.4130
 2.7190	 2.3690
 2.7210	 2.2960
 2.7220	 2.3230
 2.7230	 2.3590
 2.7250	 2.3960
 2.7260	 2.3500
 2.7280	 2.3640
 2.7290	 2.3170
 2.7310	 2.3150
 2.7320	 2.3580
 2.7340	 2.4210
 2.7350	 2.3480
 2.7360	 2.3440
 2.7380	 2.3280
 2.7390	 2.3150
 2.7410	 2.3500
 2.7420	 2.3930
 2.7440	 2.3350
 2.7450	 2.3350
 2.7470	 2.3890
 2.7480	 2.3710
 2.7490	 2.3030
 2.7510	 2.2810
 2.7520	 2.2770
 2.7540	 2.3330
 2.7550	 2.3020
 2.7570	 2.3670
 2.7580	 2.4220
 2.7600	 2.4630
 2.7610	 2.3970
 2.7630	 2.3260
 2.7640	 2.3170
 2.7660	 2.4160
 2.7670	 2.3480
 2.7690	 2.3300
 2.7700	 2.3290
 2.7720	 2.3150
 2.7730	 2.2820
 2.7740	 2.3190
 2.7760	 2.3080
 2.7770	 2.3690
 2.7790	 2.3230
 2.7800	 2.3110
 2.7820	 2.3270
 2.7830	 2.3550
 2.7850	 2.3390
 2.7860	 2.3070
 2.7880	 2.2660
 2.7890	 2.3150
 2.7910	 2.2850
 2.7920	 2.2370
 2.7940	 2.2690
 2.7950	 2.3940
 2.7970	 2.3710
 2.7980	 2.2780
 2.8000	 2.1750
 2.8010	 2.2240
 2.8030	 2.2800
 2.8040	 2.3080
 2.8060	 2.2720
 2.8080	 2.3030
 2.8090	 2.3110
 2.8110	 2.3450
 2.8120	 2.2680
 2.8140	 2.2590
 2.8150	 2.2590
 2.8170	 2.3310
 2.8180	 2.3820
 2.8200	 2.3500
 2.8210	 2.3010
 2.8230	 2.3320
 2.8240	 2.3360
 2.8260	 2.3970
 2.8270	 2.3500
 2.8290	 2.3350
 2.8310	 2.3500
 2.8320	 2.3310
 2.8340	 2.2770
 2.8350	 2.2650
 2.8370	 2.2570
 2.8380	 2.3590
 2.8400	 2.3250
 2.8410	 2.2690
 2.8430	 2.2640
 2.8440	 2.2810
 2.8460	 2.2480
 2.8480	 2.2960
 2.8490	 2.2520
 2.8510	 2.2730
 2.8520	 2.2500
 2.8540	 2.2660
 2.8550	 2.2740
 2.8570	 2.3280
 2.8590	 2.3000
 2.8600	 2.2920
 2.8620	 2.2020
 2.8630	 2.2600
 2.8650	 2.3210
 2.8660	 2.3730
 2.8680	 2.2980
 2.8700	 2.2850
 2.8710	 2.3060
 2.8730	 2.3510
 2.8740	 2.3250
 2.8760	 2.3090
 2.8780	 2.2560
 2.8790	 2.2480
 2.8810	 2.2550
 2.8820	 2.3160
 2.8840	 2.2380
 2.8860	 2.2090
 2.8870	 2.1660
 2.8890	 2.2130
 2.8900	 2.2060
 2.8920	 2.2360
 2.8940	 2.2540
 2.8950	 2.3040
 2.8970	 2.2550
 2.8990	 2.3000
 2.9000	 2.3090
 2.9020	 2.3210
 2.9030	 2.3410
 2.9050	 2.3600
 2.9070	 2.3030
 2.9080	 2.3120
 2.9100	 2.2860
 2.9120	 2.3020
 2.9130	 2.2950
 2.9150	 2.3200
 2.9160	 2.2940
 2.9180	 2.2990
 2.9200	 2.2490
 2.9210	 2.2690
 2.9230	 2.2620
 2.9250	 2.2990
 2.9260	 2.2510
 2.9280	 2.3040
 2.9300	 2.3410
 2.9310	 2.3170
 2.9330	 2.2370
 2.9350	 2.2900
 2.9360	 2.2510
 2.9380	 2.2300
 2.9400	 2.2070
 2.9410	 2.2690
 2.9430	 2.3280
 2.9450	 2.3590
 2.9460	 2.2420
 2.9480	 2.2740
 2.9500	 2.2580
 2.9510	 2.2360
 2.9530	 2.2480
 2.9550	 2.2630
 2.9560	 2.1990
 2.9580	 2.2400
 2.9600	 2.2280
 2.9610	 2.2760
 2.9630	 2.2630
 2.9650	 2.2750
 2.9670	 2.1900
 2.9680	 2.1860
 2.9700	 2.2700
 2.9720	 2.2920
 2.9730	 2.2120
 2.9750	 2.1830
 2.9770	 2.1980
 2.9780	 2.2290
 2.9800	 2.2400
 2.9820	 2.2710
 2.9840	 2.1660
 2.9850	 2.1640
 2.9870	 2.2130
 2.9890	 2.2640
 2.9900	 2.2430
 2.9920	 2.2550
 2.9940	 2.2280
 2.9960	 2.2260
 2.9970	 2.1750
 2.9990	 2.2050
 3.0010	 2.2220
 3.0030	 2.2090
 3.0040	 2.1130
 3.0060	 2.1410
 3.0080	 2.2130
 3.0100	 2.2420
 3.0110	 2.1660
 3.0130	 2.1720
 3.0150	 2.1700
 3.0170	 2.1830
 3.0180	 2.1380
 3.0200	 2.2240
 3.0220	 2.2040
 3.0240	 2.1760
 3.0250	 2.1720
 3.0270	 2.2440
 3.0290	 2.2080
 3.0310	 2.1370
 3.0320	 2.1050
 3.0340	 2.1620
 3.0360	 2.1860
 3.0380	 2.1900
 3.0400	 2.1510
 3.0410	 2.1730
 3.0430	 2.1540
 3.0450	 2.1730
 3.0470	 2.1770
 3.0480	 2.1780
 3.0500	 2.1620
 3.0520	 2.1940
 3.0540	 2.2140
 3.0560	 2.1650
 3.0570	 2.1000
 3.0590	 2.1830
 3.0610	 2.2140
 3.0630	 2.2630
 3.0650	 2.2420
 3.0670	 2.1960
 3.0680	 2.1270
 3.0700	 2.1660
 3.0720	 2.1210
 3.0740	 2.1160
 3.0760	 2.1250
 3.0770	 2.1590
 3.0790	 2.1160
 3.0810	 2.1160
 3.0830	 2.1430
 3.0850	 2.1700
 3.0870	 2.1010
 3.0880	 2.0810
 3.0900	 2.0990
 3.0920	 2.1960
 3.0940	 2.2200
 3.0960	 2.2050
 3.0980	 2.1770
 3.1000	 2.1690
 3.1010	 2.0970
 3.1030	 2.1110
 3.1050	 2.0970
 3.1070	 2.1310
 3.1090	 2.1770
 3.1110	 2.1660
 3.1130	 2.1050
 3.1140	 2.1750
 3.1160	 2.2010
 3.1180	 2.1930
 3.1200	 2.1600
 3.1220	 2.1750
 3.1240	 2.1310
 3.1260	 2.1290
 3.1280	 2.1150
 3.1290	 2.1490
 3.1310	 2.1500
 3.1330	 2.1530
 3.1350	 2.1130
 3.1370	 2.1360
 3.1390	 2.1310
 3.1410	 2.1330
 3.1430	 2.1330
 3.1450	 2.1580
 3.1470	 2.1320
 3.1480	 2.1460
 3.1500	 2.1060
 3.1520	 2.1080
 3.1540	 2.0800
 3.1560	 2.0880
 3.1580	 2.0860
 3.1600	 2.1000
 3.1620	 2.0810
 3.1640	 2.1120
 3.1660	 2.1370
 3.1680	 2.1200
 3.1700	 2.0880
 3.1720	 2.0900
 3.1730	 2.0620
 3.1750	 2.0840
 3.1770	 2.1020
 3.1790	 2.0990
 3.1810	 2.0530
 3.1830	 2.0780
 3.1850	 2.0260
 3.1870	 2.0530
 3.1890	 2.1050
 3.1910	 2.0910
 3.1930	 2.0370
 3.1950	 2.0380
 3.1970	 2.0580
 3.1990	 2.0990
 3.2010	 2.0270
 3.2030	 2.0180
 3.2050	 2.0270
 3.2070	 2.0630
 3.2090	 2.0640
 3.2110	 2.1170
 3.2130	 2.0990
 3.2150	 2.0890
 3.2170	 2.0560
 3.2190	 2.0250
 3.2210	 2.0430
 3.2230	 2.1210
 3.2250	 2.0590
 3.2270	 2.0430
 3.2290	 2.0740
 3.2310	 2.1220
 3.2330	 2.1090
 3.2350	 2.0650
 3.2370	 1.9700
 3.2390	 1.9880
 3.2410	 2.0300
 3.2430	 2.0760
 3.2450	 2.0600
 3.2470	 2.0830
 3.2490	 2.0860
 3.2510	 2.0890
 3.2530	 2.0550
 3.2550	 2.0470
 3.2570	 2.0650
 3.2590	 2.1140
 3.2610	 2.0810
 3.2630	 2.1260
 3.2650	 2.1160
 3.2670	 2.0770
 3.2700	 2.0760
 3.2720	 2.0840
 3.2740	 2.0400
 3.2760	 2.0350
 3.2780	 2.0240
 3.2800	 1.9960
 3.2820	 1.9800
 3.2840	 2.0360
 3.2860	 2.0320
 3.2880	 2.0070
 3.2900	 1.9740
 3.2920	 1.9960
 3.2940	 2.0290
 3.2970	 2.0640
 3.2990	 2.0410
 3.3010	 2.0510
 3.3030	 2.0090
 3.3050	 1.9680
 3.3070	 1.9900
 3.3090	 2.0500
 3.3110	 2.0530
 3.3130	 2.0420
 3.3160	 1.9880
 3.3180	 1.9730
 3.3200	 1.9760
 3.3220	 1.9690
 3.3240	 1.9490
 3.3260	 2.0060
 3.3280	 1.9830
 3.3300	 1.9470
 3.3330	 1.9050
 3.3350	 1.9180
 3.3370	 1.9510
 3.3390	 1.9810
 3.3410	 1.9340
 3.3430	 1.9520
 3.3450	 1.9240
 3.3480	 1.9230
 3.3500	 1.8890
 3.3520	 1.8790
 3.3540	 1.8430
 3.3560	 1.8430
 3.3580	 1.8370
 3.3610	 1.8600
 3.3630	 1.8480
 3.3650	 1.8550
 3.3670	 1.8590
 3.3690	 1.8650
 3.3720	 1.8530
 3.3740	 1.8030
 3.3760	 1.7350
 3.3780	 1.7860
 3.3800	 1.7780
 3.3830	 1.8270
 3.3850	 1.8530
 3.3870	 1.8420
 3.3890	 1.7880
 3.3910	 1.7740
 3.3940	 1.7490
 3.3960	 1.7350
 3.3980	 1.7220
 3.4000	 1.7650
 3.4030	 1.7670
 3.4050	 1.7920
 3.4070	 1.7810
 3.4090	 1.7910
 3.4110	 1.8040
 3.4140	 1.9210
 3.4160	 2.0590
 3.4180	 2.2110
 3.4200	 2.4080
 3.4230	 2.7380
 3.4250	 3.1040
 3.4270	 3.5030
 3.4300	 3.7440
 3.4320	 3.7200
 3.4340	 3.4710
 3.4360	 3.2600
 3.4390	 3.0950
 3.4410	 2.9800
 3.4430	 2.8340
 3.4450	 2.7670
 3.4480	 2.7330
 3.4500	 2.7130
 3.4520	 2.6830
 3.4550	 2.6560
 3.4570	 2.6140
 3.4590	 2.6000
 3.4620	 2.5800
 3.4640	 2.6100
 3.4660	 2.5970
 3.4690	 2.5630
 3.4710	 2.4700
 3.4730	 2.4790
 3.4760	 2.4530
 3.4780	 2.4330
 3.4800	 2.3770
 3.4830	 2.3230
 3.4850	 2.2710
 3.4870	 2.2490
 3.4900	 2.2250
 3.4920	 2.2240
 3.4940	 2.1900
 3.4970	 2.2080
 3.4990	 2.1950
 3.5010	 2.1910
 3.5040	 2.2760
 3.5060	 2.5700
 3.5080	 3.0620
 3.5110	 3.5810
 3.5130	 3.6590
 3.5160	 3.5000
 3.5180	 3.3030
 3.5200	 3.1850
 3.5230	 3.0510
 3.5250	 2.9480
 3.5280	 2.8840
 3.5300	 2.8780
 3.5320	 2.8460
 3.5350	 2.8280
 3.5370	 2.7790
 3.5400	 2.7700
 3.5420	 2.7600
 3.5440	 2.7810
 3.5470	 2.8070
 3.5490	 2.7960
 3.5520	 2.7290
 3.5540	 2.7140
 3.5570	 2.7060
 3.5590	 2.7080
 3.5610	 2.7210
 3.5640	 2.7400
 3.5660	 2.7070
 3.5690	 2.7010
 3.5710	 2.6790
 3.5740	 2.7080
 3.5760	 2.7490
 3.5790	 2.7300
 3.5810	 2.6980
 3.5840	 2.7210
 3.5860	 2.6940
 3.5890	 2.6980
 3.5910	 2.7340
 3.5940	 2.7810
 3.5960	 2.7540
 3.5990	 2.7570
 3.6010	 2.7200
 3.6040	 2.7240
 3.6060	 2.7220
 3.6090	 2.7560
 3.6110	 2.7710
 3.6140	 2.7960
 3.6160	 2.7850
 3.6190	 2.7620
 3.6210	 2.7470
 3.6240	 2.7880
 3.6260	 2.7870
 3.6290	 2.8320
 3.6310	 2.8540
 3.6340	 2.8240
 3.6360	 2.7940
 3.6390	 2.8180
 3.6410	 2.8280
 3.6440	 2.8920
 3.6470	 2.8970
 3.6490	 2.8980
 3.6520	 2.9190
 3.6540	 2.9410
 3.6570	 2.9080
 3.6590	 2.8600
 3.6620	 2.8460
 3.6650	 2.8940
 3.6670	 2.9430
 3.6700	 2.9580
 3.6720	 2.9450
 3.6750	 2.9420
 3.6780	 2.9180
 3.6800	 2.9570
 3.6830	 2.9800
 3.6850	 3.0160
 3.6880	 3.0480
 3.6910	 3.1040
 3.6930	 3.1140
 3.6960	 3.1160
 3.6990	 3.0590
 3.7010	 3.0740
 3.7040	 3.1030
 3.7070	 3.1530
 3.7090	 3.1770
 3.7120	 3.1840
 3.7150	 3.2040
 3.7170	 3.2330
 3.7200	 3.2340
 3.7230	 3.2520
 3.7250	 3.2460
 3.7280	 3.2770
 3.7310	 3.2900
 3.7330	 3.2990
 3.7360	 3.3300
 3.7390	 3.3840
 3.7410	 3.3940
 3.7440	 3.4190
 3.7470	 3.4330
 3.7490	 3.4690
 3.7520	 3.4690
 3.7550	 3.4840
 3.7580	 3.4910
 3.7600	 3.5140
 3.7630	 3.5240
 3.7660	 3.5410
 3.7690	 3.5370
 3.7710	 3.6010
 3.7740	 3.6160
 3.7770	 3.6280
 3.7790	 3.6340
 3.7820	 3.6890
 3.7850	 3.7210
 3.7880	 3.7440
 3.7910	 3.7580
 3.7930	 3.7760
 3.7960	 3.7740
 3.7990	 3.7980
 3.8020	 3.8340
 3.8040	 3.9100
 3.8070	 3.8760
 3.8100	 3.8740
 3.8130	 3.9200
 3.8160	 3.9700
 3.8180	 3.9730
 3.8210	 3.9940
 3.8240	 4.0270
 3.8270	 4.0370
 3.8300	 4.0460
 3.8330	 4.0650
 3.8350	 4.0450
 3.8380	 4.0730
 3.8410	 4.0970
 3.8440	 4.0990
 3.8470	 4.1450
 3.8500	 4.1760
 3.8520	 4.1700
 3.8550	 4.1930
 3.8580	 4.1970
 3.8610	 4.2470
 3.8640	 4.2530
 3.8670	 4.2430
 3.8700	 4.2410
 3.8730	 4.2770
 3.8760	 4.2970
 3.8780	 4.3140
 3.8810	 4.3020
 3.8840	 4.3250
 3.8870	 4.3250
 3.8900	 4.2880
 3.8930	 4.2690
 3.8960	 4.3120
 3.8990	 4.3500
 3.9020	 4.3560
 3.9050	 4.3360
 3.9080	 4.3490
 3.9110	 4.3420
 3.9140	 4.3610
 3.9170	 4.3270
 3.9190	 4.3080
 3.9220	 4.3160
 3.9250	 4.3510
 3.9280	 4.3640
 3.9310	 4.3600
 3.9340	 4.3430
 3.9370	 4.3540
 3.9400	 4.3490
 3.9430	 4.3340
 3.9460	 4.3510
 3.9490	 4.3680
 3.9520	 4.3710
 3.9550	 4.3620
 3.9580	 4.3470
 3.9610	 4.3510
 3.9640	 4.3100
 3.9670	 4.3410
 3.9700	 4.3740
 3.9740	 4.3870
 3.9770	 4.3770
 3.9800	 4.3760
 3.9830	 4.3660
 3.9860	 4.3940
 3.9890	 4.4150
 3.9920	 4.4290
 3.9950	 4.3860
 3.9980	 4.3610
 4.0010	 4.3380
 4.0040	 4.3590
 4.0070	 4.3790
 4.0100	 4.4040
 4.0140	 4.4110
 4.0170	 4.4030
 4.0200	 4.3640
 4.0230	 4.3710
 4.0260	 4.4240
 4.0290	 4.4450
 4.0320	 4.3910
 4.0350	 4.3840
 4.0390	 4.3980
 4.0420	 4.3750
 4.0450	 4.3470
 4.0480	 4.3450
 4.0510	 4.3540
 4.0540	 4.3450
 4.0570	 4.3340
 4.0610	 4.3750
 4.0640	 4.3550
 4.0670	 4.3320
 4.0700	 4.3440
 4.0730	 4.3730
 4.0770	 4.3510
 4.0800	 4.3180
 4.0830	 4.2920
 4.0860	 4.2920
 4.0890	 4.3320
 4.0930	 4.3580
 4.0960	 4.3390
 4.0990	 4.3090
 4.1020	 4.2860
 4.1060	 4.3150
 4.1090	 4.3000
 4.1120	 4.2480
 4.1150	 4.2260
 4.1190	 4.2370
 4.1220	 4.2380
 4.1250	 4.2350
 4.1290	 4.2210
 4.1320	 4.2240
 4.1350	 4.1950
 4.1380	 4.1860
 4.1420	 4.2140
 4.1450	 4.2290
 4.1480	 4.2300
 4.1520	 4.2120
 4.1550	 4.2010
 4.1580	 4.1940
 4.1620	 4.1590
 4.1650	 4.1400
 4.1680	 4.1220
 4.1720	 4.1180
 4.1750	 4.1000
 4.1780	 4.0790
 4.1820	 4.0750
 4.1850	 4.0860
 4.1890	 4.0630
 4.1920	 4.0010
 4.1950	 4.0030
 4.1990	 4.0320
 4.2020	 4.0290
 4.2060	 4.0420
 4.2090	 4.0590
 4.2120	 4.1070
 4.2160	 4.1000
 4.2190	 4.0470
 4.2230	 4.1090
 4.2260	 4.1130
 4.2300	 3.9780
 4.2330	 3.9530
 4.2360	 3.9570
 4.2400	 3.9360
 4.2430	 3.8750
 4.2470	 3.8740
 4.2500	 3.8530
 4.2540	 3.8420
 4.2570	 3.8110
 4.2610	 3.8330
 4.2640	 3.8770
 4.2680	 3.8690
 4.2710	 3.8070
 4.2750	 3.7220
 4.2780	 3.6860
 4.2820	 3.7000
 4.2850	 3.7330
 4.2890	 3.7210
 4.2930	 3.6030
 4.2960	 3.6210
 4.3000	 3.7000
 4.3030	 3.6730
 4.3070	 3.5660
 4.3100	 3.5010
 4.3140	 3.4660
 4.3180	 3.4940
 4.3210	 3.4950
 4.3250	 3.4570
 4.3280	 3.4170
 4.3320	 3.4440
 4.3360	 3.4410
 4.3390	 3.4090
 4.3430	 3.3600
 4.3470	 3.3530
 4.3500	 3.3590
 4.3540	 3.3590
 4.3580	 3.3240
 4.3610	 3.2400
 4.3650	 3.2260
 4.3690	 3.2510
 4.3720	 3.2560
 4.3760	 3.2480
 4.3800	 3.2130
 4.3830	 3.2080
 4.3870	 3.1890
 4.3910	 3.1830
 4.3940	 3.1740
 4.3980	 3.1480
 4.4020	 3.1190
 4.4060	 3.1090
 4.4090	 3.1190
 4.4130	 3.1160
 4.4170	 3.0930
 4.4210	 3.1020
 4.4240	 3.0760
 4.4280	 3.0290
 4.4320	 3.0350
 4.4360	 3.0390
 4.4400	 3.0370
 4.4430	 3.0480
 4.4470	 3.0070
 4.4510	 3.0060
 4.4550	 2.9970
 4.4590	 2.9510
 4.4630	 2.9170
 4.4660	 2.9250
 4.4700	 2.9180
 4.4740	 2.9100
 4.4780	 2.9160
 4.4820	 2.9010
 4.4860	 2.8940
 4.4900	 2.8610
 4.4930	 2.8540
 4.4970	 2.8580
 4.5010	 2.8660
 4.5050	 2.8780
 4.5090	 2.8810
 4.5130	 2.8560
 4.5170	 2.8300
 4.5210	 2.8240
 4.5250	 2.8150
 4.5290	 2.8230
 4.5330	 2.8400
 4.5370	 2.8420
 4.5410	 2.7850
 4.5450	 2.7720
 4.5490	 2.7730
 4.5530	 2.7810
 4.5570	 2.7770
 4.5610	 2.7490
 4.5650	 2.7300
 4.5690	 2.7160
 4.5730	 2.7190
 4.5770	 2.6850
 4.5810	 2.6440
 4.5850	 2.6740
 4.5890	 2.7070
 4.5930	 2.6920
 4.5970	 2.6800
 4.6010	 2.6840
 4.6050	 2.7130
 4.6090	 2.6830
 4.6130	 2.6920
 4.6170	 2.6820
 4.6220	 2.6310
 4.6260	 2.6320
 4.6300	 2.6750
 4.6340	 2.6840
 4.6380	 2.6580
 4.6420	 2.6490
 4.6460	 2.6580
 4.6510	 2.6370
 4.6550	 2.6290
 4.6590	 2.6710
 4.6630	 2.6660
 4.6670	 2.6210
 4.6720	 2.6320
 4.6760	 2.6530
 4.6800	 2.6670
 4.6840	 2.6490
 4.6880	 2.6020
 4.6930	 2.6160
 4.6970	 2.6310
 4.7010	 2.6230
 4.7050	 2.6410
 4.7100	 2.6480
 4.7140	 2.6380
 4.7180	 2.6380
 4.7230	 2.6520
 4.7270	 2.6200
 4.7310	 2.6060
 4.7360	 2.6050
 4.7400	 2.6130
 4.7440	 2.6130
 4.7490	 2.6370
 4.7530	 2.6690
 4.7570	 2.6820
 4.7620	 2.6200
 4.7660	 2.5910
 4.7700	 2.6010
 4.7750	 2.6550
 4.7790	 2.6760
 4.7840	 2.6690
 4.7880	 2.6570
 4.7920	 2.6650
 4.7970	 2.6570
 4.8010	 2.6550
 4.8060	 2.6720
 4.8100	 2.7380
 4.8150	 2.7410
 4.8190	 2.7070
 4.8240	 2.6790
 4.8280	 2.7050
 4.8330	 2.7030
 4.8370	 2.6930
 4.8420	 2.7060
 4.8460	 2.7590
 4.8510	 2.7530
 4.8550	 2.7280
 4.8600	 2.7700
 4.8640	 2.8050
 4.8690	 2.7670
 4.8740	 2.7580
 4.8780	 2.7750
 4.8830	 2.8020
 4.8870	 2.7880
 4.8920	 2.7730
 4.8970	 2.7780
 4.9010	 2.8540
 4.9060	 2.8690
 4.9100	 2.8460
 4.9150	 2.8560
 4.9200	 2.8920
 4.9240	 2.8590
 4.9290	 2.8570
 4.9340	 2.9160
 4.9390	 2.9590
 4.9430	 2.9450
 4.9480	 2.9740
 4.9530	 2.9950
 4.9570	 2.9680
 4.9620	 2.9320
 4.9670	 2.9480
 4.9720	 2.9980
 4.9760	 3.0250
 4.9810	 3.0350
 4.9860	 3.0660
 4.9910	 3.0530
 4.9960	 3.0710
 5.0000	 3.0880
 5.0050	 3.1310
 5.0100	 3.1590
 5.0150	 3.1750
 5.0200	 3.2030
 5.0250	 3.2510
 5.0300	 3.2500
 5.0340	 3.2350
 5.0390	 3.2330
 5.0440	 3.2660
 5.0490	 3.2740
 5.0540	 3.3240
 5.0590	 3.3590
 5.0640	 3.3440
 5.0690	 3.3360
 5.0740	 3.3500
 5.0790	 3.3630
 5.0840	 3.3910
 5.0890	 3.4180
 5.0940	 3.4490
 5.0990	 3.4230
 5.1040	 3.4670
 5.1090	 3.5360
 5.1140	 3.5640
 5.1190	 3.5270
 5.1240	 3.5330
 5.1290	 3.5460
 5.1340	 3.5690
 5.1390	 3.5660
 5.1440	 3.5930
 5.1490	 3.6020
 5.1550	 3.6240
 5.1600	 3.6180
 5.1650	 3.6380
 5.1700	 3.6090
 5.1750	 3.6260
 5.1800	 3.6760
 5.1850	 3.7300
 5.1910	 3.7250
 5.1960	 3.7560
 5.2010	 3.7430
 5.2060	 3.7500
 5.2110	 3.7380
 5.2170	 3.7640
 5.2220	 3.7900
 5.2270	 3.7880
 5.2330	 3.7780
 5.2380	 3.7960
 5.2430	 3.7590
 5.2480	 3.7780
 5.2540	 3.8250
 5.2590	 3.8410
 5.2640	 3.7850
 5.2700	 3.7930
 5.2750	 3.8090
 5.2800	 3.8330
 5.2860	 3.8260
 5.2910	 3.8240
 5.2970	 3.8120
 5.3020	 3.8070
 5.3080	 3.7790
 5.3130	 3.8070
 5.3180	 3.8440
 5.3240	 3.8530
 5.3290	 3.8230
 5.3350	 3.8340
 5.3400	 3.8250
 5.3460	 3.8130
 5.3510	 3.7780
 5.3570	 3.7790
 5.3620	 3.7680
 5.3680	 3.7690
 5.3740	 3.7830
 5.3790	 3.8170
 5.3850	 3.7920
 5.3900	 3.8100
 5.3960	 3.7810
 5.4010	 3.7150
 5.4070	 3.7010
 5.4130	 3.7070
 5.4180	 3.6410
 5.4240	 3.6130
 5.4300	 3.5860
 5.4350	 3.6020
 5.4410	 3.6060
 5.4470	 3.6080
 5.4530	 3.5470
 5.4580	 3.5130
 5.4640	 3.4810
 5.4700	 3.4820
 5.4760	 3.4500
 5.4810	 3.4210
 5.4870	 3.4090
 5.4930	 3.4020
 5.4990	 3.3540
 5.5050	 3.3520
 5.5110	 3.3210
 5.5160	 3.3070
 5.5220	 3.2600
 5.5280	 3.2280
 5.5340	 3.2190
 5.5400	 3.2060
 5.5460	 3.1220
 5.5520	 3.1030
 5.5580	 3.0700
 5.5640	 3.0360
 5.5700	 2.9980
 5.5760	 2.9790
 5.5820	 2.9240
 5.5880	 2.9050
 5.5940	 2.8770
 5.6000	 2.8690
 5.6060	 2.8170
 5.6120	 2.7910
 5.6180	 2.7250
 5.6240	 2.7190
 5.6300	 2.7110
 5.6360	 2.6600
 5.6420	 2.5510
 5.6490	 2.5080
 5.6550	 2.4760
 5.6610	 2.4760
 5.6670	 2.4350
 5.6730	 2.3980
 5.6800	 2.3540
 5.6860	 2.3340
 5.6920	 2.2850
 5.6980	 2.2760
 5.7050	 2.2010
 5.7110	 2.1800
 5.7170	 2.1290
 5.7230	 2.0760
 5.7300	 2.0370
 5.7360	 2.0340
 5.7420	 2.0210
 5.7490	 2.0730
 5.7550	 2.1080
 5.7620	 2.1200
 5.7680	 2.1620
 5.7740	 2.2780
 5.7810	 2.3280
 5.7870	 2.4130
 5.7940	 2.4150
 5.8000	 2.4050
 5.8070	 2.4070
 5.8130	 2.4750
 5.8200	 2.4390
 5.8260	 2.4100
 5.8330	 2.4410
 5.8390	 2.5200
 5.8460	 2.5600
 5.8530	 2.6000
 5.8590	 2.5510
 5.8660	 2.5260
 5.8730	 2.5040
 5.8790	 2.5110
 5.8860	 2.4860
 5.8930	 2.5200
 5.8990	 2.5050
 5.9060	 2.5570
 5.9130	 2.5450
 5.9190	 2.5380
 5.9260	 2.4920
 5.9330	 2.4440
 5.9400	 2.4050
 5.9470	 2.4650
 5.9530	 2.4080
 5.9600	 2.4310
 5.9670	 2.3910
 5.9740	 2.4120
 5.9810	 2.3870
 5.9880	 2.3720
 5.9950	 2.3530
 6.0020	 2.3840
 6.0090	 2.3830
 6.0160	 2.3800
 6.0230	 2.3100
 6.0300	 2.3040
 6.0370	 2.2790
 6.0440	 2.2820
 6.0510	 2.2690
 6.0580	 2.3580
 6.0650	 2.3380
 6.0720	 2.3200
 6.0790	 2.2560
 6.0860	 2.2840
 6.0930	 2.2640
 6.1010	 2.2930
 6.1080	 2.2700
 6.1150	 2.2440
 6.1220	 2.2160
 6.1290	 2.3120
 6.1370	 2.3310
 6.1440	 2.3530
 6.1510	 2.3060
 6.1580	 2.2820
 6.1660	 2.2840
 6.1730	 2.3440
 6.1800	 2.2790
 6.1880	 2.2750
 6.1950	 2.3000
 6.2030	 2.3650
 6.2100	 2.3230
 6.2180	 2.3650
 6.2250	 2.3690
 6.2320	 2.3920
 6.2400	 2.3810
 6.2480	 2.3760
 6.2550	 2.3660
 6.2630	 2.3780
 6.2700	 2.3470
 6.2780	 2.3660
 6.2850	 2.3660
 6.2930	 2.4250
 6.3010	 2.3980
 6.3080	 2.3960
 6.3160	 2.3400
 6.3240	 2.4030
 6.3310	 2.4350
 6.3390	 2.4450
 6.3470	 2.3670
 6.3550	 2.4140
 6.3620	 2.3950
 6.3700	 2.3580
 6.3780	 2.3220
 6.3860	 2.3450
 6.3940	 2.3070
 6.4020	 2.2740
 6.4100	 2.1900
 6.4180	 2.2120
 6.4260	 2.2360
 6.4340	 2.2910
 6.4420	 2.2810
 6.4500	 2.3670
 6.4580	 2.3400
 6.4660	 2.3230
 6.4740	 2.2900
 6.4820	 2.2970
 6.4900	 2.2640
 6.4980	 2.3210
 6.5060	 2.2920
 6.5140	 2.2760
 6.5230	 2.2150
 6.5310	 2.2640
 6.5390	 2.2160
 6.5470	 2.2040
 6.5560	 2.1910
 6.5640	 2.2060
 6.5720	 2.1460
 6.5800	 2.2020
 6.5890	 2.1710
 6.5970	 2.1810
 6.6060	 2.1630
 6.6140	 2.1680
 6.6230	 2.1270
 6.6310	 2.1600
 6.6390	 2.0990
 6.6480	 2.1550
 6.6570	 2.1810
 6.6650	 2.1840
 6.6740	 2.1380
 6.6820	 2.1830
 6.6910	 2.1570
 6.7000	 2.1610
 6.7080	 2.1010
 6.7170	 2.1130
 6.7260	 2.0990
 6.7340	 2.1370
 6.7430	 2.0900
 6.7520	 2.1080
 6.7610	 2.0290
 6.7690	 1.9870
 6.7780	 2.0050
 6.7870	 2.2090
 6.7960	 2.2590
 6.8050	 2.1810
 6.8140	 2.1050
 6.8230	 2.1590
 6.8320	 2.2740
 6.8410	 2.4630
 6.8500	 2.3950
 6.8590	 2.3270
 6.8680	 2.2440
 6.8770	 2.3040
 6.8860	 2.2560
 6.8960	 2.2690
 6.9050	 2.2450
 6.9140	 2.2730
 6.9230	 2.2190
 6.9320	 2.2390
 6.9420	 2.2330
 6.9510	 2.2290
 6.9600	 2.1680
 6.9700	 2.2280
 6.9790	 2.1880
 6.9880	 2.2180
 6.9980	 2.2180
 7.0070	 2.2340
 7.0170	 2.1750
 7.0260	 2.2590
 7.0360	 2.2480
 7.0450	 2.2120
 7.0550	 2.1170
 7.0650	 2.1420
 7.0740	 2.1550
 7.0840	 2.2200
 7.0940	 2.1750
 7.1030	 2.1880
 7.1130	 2.1150
 7.1230	 2.1510
 7.1330	 2.1390
 7.1420	 2.1710
 7.1520	 2.0860
 7.1620	 2.1080
 7.1720	 2.0810
 7.1820	 2.1250
 7.1920	 2.0780
 7.2020	 2.0470
 7.2120	 2.0230
 7.2220	 2.0610
 7.2320	 2.0180
 7.2420	 2.1090
 7.2520	 2.1220
 7.2620	 2.1570
 7.2730	 2.0440
 7.2830	 2.0560
 7.2930	 2.0380
 7.3030	 2.0430
 7.3140	 2.0150
 7.3240	 2.0760
 7.3340	 2.0020
 7.3450	 2.0300
 7.3550	 2.0330
 7.3660	 2.0730
 7.3760	 2.0230
 7.3870	 2.0670
 7.3970	 2.0200
 7.4080	 2.0680
 7.4180	 2.0560
 7.4290	 2.1220
 7.4400	 2.0740
 7.4500	 2.0840
 7.4610	 2.0020
 7.4720	 2.0410
 7.4830	 2.0220
 7.4930	 2.0300
 7.5040	 1.9680
 7.5150	 2.0190
 7.5260	 1.9870
 7.5370	 2.0370
 7.5480	 1.9680
 7.5590	 1.9890
 7.5700	 1.9440
 7.5810	 1.9950
 7.5920	 1.9340
 7.6030	 1.9850
 7.6140	 1.9540
 7.6260	 1.9450
 7.6370	 1.9420
 7.6480	 2.0460
 7.6590	 1.9610
 7.6710	 1.9810
 7.6820	 1.9440
 7.6940	 1.9330
 7.7050	 1.8650
 7.7160	 1.9400
 7.7280	 1.8990
 7.7390	 1.9260
 7.7510	 1.9040
 7.7630	 1.9560
 7.7740	 1.8420
 7.7860	 1.8570
 7.7980	 1.8140
 7.8090	 1.8700
 7.8210	 1.8310
 7.8330	 1.8440
 7.8450	 1.7860
 7.8570	 1.8210
 7.8690	 1.8020
 7.8810	 1.8330
 7.8930	 1.7690
 7.9050	 1.8130
 7.9170	 1.7110
 7.9290	 1.7730
 7.9410	 1.7550
 7.9530	 1.8160
 7.9650	 1.7690
 7.9780	 1.8230
 7.9900	 1.7810
 8.0020	 1.7770
 8.0150	 1.6890
 8.0270	 1.7680
 8.0390	 1.7510
 8.0520	 1.7770
 8.0640	 1.7330
 8.0770	 1.8270
 8.0900	 1.8080
 8.1020	 1.8290
 8.1150	 1.7510
 8.1280	 1.8400
 8.1400	 1.7630
 8.1530	 1.7890
 8.1660	 1.7190
 8.1790	 1.7900
 8.1920	 1.7540
 8.2050	 1.8850
 8.2180	 1.8320
 8.2310	 1.8840
 8.2440	 1.8110
 8.2570	 1.8380
 8.2700	 1.7760
 8.2830	 1.8630
 8.2970	 1.7820
 8.3100	 1.7960
 8.3230	 1.7210
 8.3370	 1.8250
 8.3500	 1.7870
 8.3640	 1.8450
 8.3770	 1.7940
 8.3910	 1.8640
 8.4040	 1.8410
 8.4180	 1.9020
 8.4320	 1.7940
 8.4450	 1.8470
 8.4590	 1.7660
 8.4730	 1.8740
 8.4870	 1.8150
 8.5010	 1.8600
 8.5150	 1.7730
 8.5290	 1.8550
 8.5430	 1.7750
 8.5570	 1.7930
 8.5710	 1.7120
 8.5850	 1.8510
 8.5990	 1.7880
 8.6140	 1.8250
 8.6280	 1.7810
 8.6420	 1.8840
 8.6570	 1.8450
 8.6710	 1.8870
 8.6860	 1.8490
 8.7000	 1.9650
 8.7150	 1.8960
 8.7300	 1.9810
 8.7440	 1.9040
 8.7590	 1.9300
 8.7740	 1.7910
 8.7890	 1.8550
 8.8040	 1.8250
 8.8190	 1.8930
 8.8340	 1.7980
 8.8490	 1.8440
 8.8640	 1.7930
 8.8790	 1.8840
 8.8940	 1.8360
 8.9100	 1.9440
 8.9250	 1.8880
 8.9400	 2.0000
 8.9560	 1.9710
 8.9710	 2.1200
 8.9870	 2.0610
 9.0020	 2.1580
 9.0180	 2.1120
 9.0340	 2.2260
 9.0500	 2.2130
 9.0650	 2.3320
 9.0810	 2.2920
 9.0970	 2.3820
 9.1130	 2.3220
 9.1290	 2.4710
 9.1450	 2.4930
 9.1620	 2.6030
 9.1780	 2.5500
 9.1940	 2.6090
 9.2100	 2.4970
 9.2270	 2.5980
 9.2430	 2.5390
 9.2600	 2.6080
 9.2760	 2.4670
 9.2930	 2.5790
 9.3100	 2.4810
 9.3260	 2.5750
 9.3430	 2.5300
 9.3600	 2.5770
 9.3770	 2.4320
 9.3940	 2.5240
 9.4110	 2.4190
 9.4280	 2.5030
 9.4450	 2.4580
 9.4620	 2.5710
 9.4800	 2.4810
 9.4970	 2.5980
 9.5150	 2.5480
 9.5320	 2.7300
 9.5500	 2.6320
 9.5670	 2.7890
 9.5850	 2.8160
 9.6030	 2.9360
 9.6200	 2.8410
 9.6380	 2.9790
 9.6560	 2.9540
 9.6740	 3.1120
 9.6920	 3.1600
 9.7110	 3.3180
 9.7290	 3.2150
 9.7470	 3.2880
 9.7650	 3.1500
 9.7840	 3.1520
 9.8020	 2.9980
 9.8210	 3.1620
 9.8390	 3.0720
 9.8580	 3.0720
 9.8770	 2.9110
 9.8960	 2.9600
 9.9150	 2.8110
 9.9340	 2.8200
 9.9530	 2.7320
 9.9720	 2.8020
 9.9910	 2.6690
10.0100	 2.7460
10.0300	 2.6520
10.0490	 2.6810
10.0690	 2.5020
10.0880	 2.5830
10.1080	 2.5280
10.1280	 2.6560
10.1480	 2.5850
10.1670	 2.6840
10.1870	 2.5950
10.2070	 2.7230
10.2280	 2.6700
10.2480	 2.7190
10.2680	 2.6820
10.2890	 2.8830
10.3090	 2.8390
10.3300	 2.8100
10.3500	 2.7200
10.3710	 2.8130
10.3920	 2.7310
10.4120	 2.9060
10.4330	 2.7990
10.4540	 2.8240
10.4760	 2.7570
10.4970	 2.8150
10.5180	 2.7400
10.5390	 2.8650
10.5610	 2.8650
10.5820	 2.9980
10.6040	 2.8910
10.6260	 2.9510
10.6480	 2.8430
10.6700	 2.8990
10.6920	 2.8210
10.7140	 2.8510
10.7360	 2.7810
10.7580	 2.9270
10.7800	 2.8430
10.8030	 2.9270
10.8250	 2.7510
10.8480	 2.7750
10.8710	 2.6800
10.8940	 2.7770
10.9170	 2.6870
10.9400	 2.7570
10.9630	 2.6770
10.9860	 2.7290
11.0090	 2.5700
11.0330	 2.6170
11.0560	 2.5370
11.0800	 2.6230
11.1040	 2.4640
11.1270	 2.5170
11.1510	 2.4790
11.1750	 2.6530
11.2000	 2.5780
11.2240	 2.7140
11.2480	 2.6230
11.2730	 2.6630
11.2970	 2.5450
11.3220	 2.7280
11.3470	 2.6110
11.3720	 2.6600
11.3970	 2.5490
11.4220	 2.6660
11.4470	 2.5650
11.4720	 2.7260
11.4980	 2.6380
11.5230	 2.6940
11.5490	 2.5720
11.5750	 2.6940
11.6000	 2.5100
11.6260	 2.6110
11.6530	 2.5230
11.6790	 2.6160
11.7050	 2.5330
11.7320	 2.6490
11.7580	 2.5170
11.7850	 2.6470
11.8120	 2.5040
11.8390	 2.5470
11.8660	 2.3620
11.8930	 2.5010
11.9200	 2.4280
11.9480	 2.5920
11.9760	 2.4770
12.0030	 2.5970
12.0310	 2.4960
12.0590	 2.5840
12.0870	 2.4510
12.1150	 2.6120
12.1440	 2.4430
12.1720	 2.5590
12.2010	 2.3900
12.2300	 2.4820
12.2590	 2.3680
12.2880	 2.5250
12.3170	 2.3910
12.3460	 2.5260
12.3760	 2.3750
12.4050	 2.5190
12.4350	 2.3750
12.4650	 2.5160
12.4950	 2.3530
12.5250	 2.5140
12.5550	 2.4760
12.5860	 2.6200
12.6170	 2.3380
12.6470	 2.5090
12.6780	 2.4620
12.7090	 2.6190
12.7410	 2.4130
12.7720	 2.4860
12.8030	 2.3540
12.8350	 2.5840
12.8670	 2.4490
12.8990	 2.5290
12.9310	 2.3520
12.9640	 2.4580
12.9960	 2.2390
13.0290	 2.3950
13.0610	 2.2840
13.0940	 2.5110
13.1280	 2.4190
13.1610	 2.6240
13.1940	 2.3590
13.2280	 2.4340
13.2620	 2.2960
13.2960	 2.4270
13.3300	 2.2460
13.3640	 2.3560
13.3990	 2.1880
13.4340	 2.4130
13.4690	 2.2090
13.5040	 2.3670
13.5390	 2.2100
13.5740	 2.3120
13.6100	 2.1590
13.6460	 2.4460
13.6820	 2.3560
13.7180	 2.4680
13.7540	 2.2720
13.7910	 2.4600
13.8280	 2.1300
13.8650	 2.3040
13.9020	 2.1360
13.9390	 2.4040
13.9770	 2.2690
14.0150	 2.4360
14.0530	 2.0530
14.0910	 2.1020
14.1290	 1.8710
14.1680	 2.1090
14.2070	 1.8780
14.2460	 2.1970
14.2850	 2.0060
14.3240	 2.1570
14.3640	 1.9440
14.4040	 2.1970
14.4440	 1.9690
14.4840	 2.1890
14.5250	 1.9260
14.5660	 2.2580
14.6070	 1.8680
14.6480	 2.0260
14.6900	 1.7050
14.7310	 2.0370
14.7730	 1.6580
14.8150	 1.8220
14.8580	 1.4480
14.9010	 2.0120
14.9440	 1.9330
14.9870	 2.4260
15.0300	 1.8600
15.0740	 2.2210
15.1180	 1.9220
15.1620	 2.2010
15.2060	 1.6880
15.2510	 2.0410
15.2960	 1.7470
15.3410	 2.1030
15.3870	 1.6790
