Name: Umbellularia californica 3
Type: vegetation
Class: Shrub
Genus: Umbellularia
Species: californica
Sample No.: VH240
Owner: UCSB
Wavelength Range: VSWIR
Origin: 34.5075; -119.763; WGS84
Collection Date: 10/13/2013
Description: Samples were collected as part of the HyspIRI Airborne Campaign. 48 individual plants were sampled in three times in 2013 - spring  summer  and fall. The name of the sample includes a 1  2  or 3 which references a different individual of the species. Samples were taken to JPL and processed within 48 hours of collection. The same leaves were processed in the Nicolet and then measured using the ASD.
Measurement: Bidirectional reflectance
First Column: X
Second Column: Y
X Units: Wavelength (micrometers)
Y Units: Reflectance (percentage)
First X Value: 0.35
Last X Value: 2.5
Number of X Values: 2151
Additional Information: vegetation.shrub.umbellularia.californica.vswir.vh240.ucsb.asd.ancillary.txt

 0.3500	 8.8830
 0.3510	 9.0940
 0.3520	 8.9800
 0.3530	 8.7320
 0.3540	 8.6230
 0.3550	 8.4990
 0.3560	 8.4890
 0.3570	 8.5890
 0.3580	 8.6990
 0.3590	 8.6030
 0.3600	 8.4800
 0.3610	 8.4230
 0.3620	 8.3310
 0.3630	 8.3550
 0.3640	 8.4770
 0.3650	 8.5890
 0.3660	 8.4220
 0.3670	 8.3060
 0.3680	 8.3030
 0.3690	 8.2850
 0.3700	 8.3640
 0.3710	 8.3660
 0.3720	 8.2780
 0.3730	 8.4450
 0.3740	 8.5380
 0.3750	 8.4480
 0.3760	 8.2210
 0.3770	 8.2120
 0.3780	 8.3600
 0.3790	 8.5050
 0.3800	 8.4520
 0.3810	 8.4200
 0.3820	 8.4280
 0.3830	 8.4210
 0.3840	 8.2360
 0.3850	 8.2030
 0.3860	 8.2800
 0.3870	 8.3070
 0.3880	 8.3610
 0.3890	 8.3600
 0.3900	 8.3120
 0.3910	 8.3210
 0.3920	 8.2640
 0.3930	 8.2480
 0.3940	 8.3270
 0.3950	 8.3010
 0.3960	 8.3560
 0.3970	 8.4020
 0.3980	 8.2780
 0.3990	 8.2810
 0.4000	 8.3480
 0.4010	 8.3910
 0.4020	 8.3340
 0.4030	 8.3290
 0.4040	 8.3550
 0.4050	 8.3610
 0.4060	 8.3840
 0.4070	 8.3750
 0.4080	 8.3690
 0.4090	 8.4380
 0.4100	 8.4590
 0.4110	 8.4760
 0.4120	 8.5060
 0.4130	 8.4770
 0.4140	 8.4870
 0.4150	 8.5310
 0.4160	 8.5710
 0.4170	 8.5830
 0.4180	 8.5970
 0.4190	 8.6220
 0.4200	 8.6450
 0.4210	 8.6950
 0.4220	 8.7260
 0.4230	 8.7230
 0.4240	 8.7680
 0.4250	 8.8080
 0.4260	 8.8360
 0.4270	 8.8650
 0.4280	 8.9010
 0.4290	 8.9200
 0.4300	 8.9210
 0.4310	 8.9450
 0.4320	 8.9690
 0.4330	 8.9960
 0.4340	 9.0240
 0.4350	 9.0200
 0.4360	 9.0280
 0.4370	 9.0520
 0.4380	 9.0710
 0.4390	 9.0820
 0.4400	 9.1130
 0.4410	 9.1700
 0.4420	 9.1930
 0.4430	 9.2040
 0.4440	 9.2180
 0.4450	 9.2460
 0.4460	 9.2820
 0.4470	 9.3020
 0.4480	 9.3070
 0.4490	 9.3220
 0.4500	 9.3360
 0.4510	 9.3560
 0.4520	 9.3840
 0.4530	 9.4090
 0.4540	 9.4370
 0.4550	 9.4620
 0.4560	 9.4760
 0.4570	 9.4870
 0.4580	 9.4880
 0.4590	 9.4840
 0.4600	 9.5080
 0.4610	 9.5250
 0.4620	 9.5290
 0.4630	 9.5290
 0.4640	 9.5550
 0.4650	 9.5710
 0.4660	 9.5660
 0.4670	 9.5620
 0.4680	 9.5630
 0.4690	 9.5710
 0.4700	 9.5860
 0.4710	 9.6020
 0.4720	 9.6220
 0.4730	 9.6330
 0.4740	 9.6190
 0.4750	 9.6130
 0.4760	 9.6180
 0.4770	 9.6290
 0.4780	 9.6370
 0.4790	 9.6430
 0.4800	 9.6490
 0.4810	 9.6560
 0.4820	 9.6670
 0.4830	 9.6760
 0.4840	 9.6800
 0.4850	 9.6790
 0.4860	 9.6880
 0.4870	 9.7110
 0.4880	 9.7390
 0.4890	 9.7440
 0.4900	 9.7750
 0.4910	 9.8160
 0.4920	 9.8340
 0.4930	 9.8870
 0.4940	 9.9410
 0.4950	 9.9830
 0.4960	10.0470
 0.4970	10.1120
 0.4980	10.1830
 0.4990	10.2630
 0.5000	10.3390
 0.5010	10.4150
 0.5020	10.5060
 0.5030	10.6310
 0.5040	10.7520
 0.5050	10.8830
 0.5060	11.0390
 0.5070	11.2050
 0.5080	11.3800
 0.5090	11.5660
 0.5100	11.7710
 0.5110	11.9890
 0.5120	12.2310
 0.5130	12.4960
 0.5140	12.7590
 0.5150	13.0510
 0.5160	13.3590
 0.5170	13.6690
 0.5180	13.9910
 0.5190	14.3260
 0.5200	14.6700
 0.5210	15.0180
 0.5220	15.3590
 0.5230	15.7000
 0.5240	16.0400
 0.5250	16.3590
 0.5260	16.6620
 0.5270	16.9570
 0.5280	17.2530
 0.5290	17.5140
 0.5300	17.7580
 0.5310	17.9920
 0.5320	18.2000
 0.5330	18.3960
 0.5340	18.5780
 0.5350	18.7430
 0.5360	18.8910
 0.5370	19.0270
 0.5380	19.1540
 0.5390	19.2640
 0.5400	19.3520
 0.5410	19.4330
 0.5420	19.5150
 0.5430	19.5830
 0.5440	19.6630
 0.5450	19.7500
 0.5460	19.8310
 0.5470	19.9390
 0.5480	20.0390
 0.5490	20.1120
 0.5500	20.1630
 0.5510	20.1990
 0.5520	20.2230
 0.5530	20.2360
 0.5540	20.2310
 0.5550	20.2000
 0.5560	20.1500
 0.5570	20.0890
 0.5580	20.0000
 0.5590	19.8930
 0.5600	19.7790
 0.5610	19.6480
 0.5620	19.5040
 0.5630	19.3490
 0.5640	19.1820
 0.5650	19.0020
 0.5660	18.8100
 0.5670	18.6100
 0.5680	18.4050
 0.5690	18.1970
 0.5700	17.9840
 0.5710	17.7660
 0.5720	17.5510
 0.5730	17.3550
 0.5740	17.1790
 0.5750	17.0160
 0.5760	16.8510
 0.5770	16.6960
 0.5780	16.5600
 0.5790	16.4300
 0.5800	16.3110
 0.5810	16.1970
 0.5820	16.0790
 0.5830	15.9660
 0.5840	15.8600
 0.5850	15.7640
 0.5860	15.6760
 0.5870	15.5850
 0.5880	15.4950
 0.5890	15.4160
 0.5900	15.3450
 0.5910	15.2820
 0.5920	15.2240
 0.5930	15.1680
 0.5940	15.1230
 0.5950	15.0890
 0.5960	15.0590
 0.5970	15.0140
 0.5980	14.9690
 0.5990	14.9200
 0.6000	14.8590
 0.6010	14.8000
 0.6020	14.7360
 0.6030	14.6660
 0.6040	14.5930
 0.6050	14.5100
 0.6060	14.4180
 0.6070	14.3220
 0.6080	14.2180
 0.6090	14.1000
 0.6100	13.9650
 0.6110	13.8250
 0.6120	13.7250
 0.6130	13.6460
 0.6140	13.5660
 0.6150	13.4770
 0.6160	13.3850
 0.6170	13.2980
 0.6180	13.2210
 0.6190	13.1500
 0.6200	13.0820
 0.6210	13.0210
 0.6220	12.9740
 0.6230	12.9360
 0.6240	12.9060
 0.6250	12.8830
 0.6260	12.8600
 0.6270	12.8410
 0.6280	12.8260
 0.6290	12.8190
 0.6300	12.8060
 0.6310	12.7930
 0.6320	12.7830
 0.6330	12.7650
 0.6340	12.7380
 0.6350	12.6980
 0.6360	12.6420
 0.6370	12.5760
 0.6380	12.4950
 0.6390	12.3960
 0.6400	12.2800
 0.6410	12.1620
 0.6420	12.0430
 0.6430	11.9190
 0.6440	11.7870
 0.6450	11.6630
 0.6460	11.5440
 0.6470	11.4280
 0.6480	11.3190
 0.6490	11.2250
 0.6500	11.1450
 0.6510	11.0710
 0.6520	11.0110
 0.6530	10.9560
 0.6540	10.8990
 0.6550	10.8430
 0.6560	10.7790
 0.6570	10.7130
 0.6580	10.6490
 0.6590	10.5740
 0.6600	10.4970
 0.6610	10.4240
 0.6620	10.3570
 0.6630	10.2910
 0.6640	10.2320
 0.6650	10.1830
 0.6660	10.1300
 0.6670	10.0960
 0.6680	10.0750
 0.6690	10.0500
 0.6700	10.0370
 0.6710	10.0360
 0.6720	10.0420
 0.6730	10.0470
 0.6740	10.0610
 0.6750	10.0830
 0.6760	10.1070
 0.6770	10.1340
 0.6780	10.1710
 0.6790	10.2160
 0.6800	10.2650
 0.6810	10.3290
 0.6820	10.4000
 0.6830	10.4780
 0.6840	10.5780
 0.6850	10.7120
 0.6860	10.8760
 0.6870	11.0690
 0.6880	11.3120
 0.6890	11.6220
 0.6900	12.0050
 0.6910	12.4690
 0.6920	13.0220
 0.6930	13.6760
 0.6940	14.4380
 0.6950	15.3170
 0.6960	16.2960
 0.6970	17.3690
 0.6980	18.5310
 0.6990	19.7790
 0.7000	21.0860
 0.7010	22.4360
 0.7020	23.8250
 0.7030	25.2340
 0.7040	26.6440
 0.7050	28.0370
 0.7060	29.4130
 0.7070	30.7730
 0.7080	32.1100
 0.7090	33.4240
 0.7100	34.7150
 0.7110	35.9570
 0.7120	37.1540
 0.7130	38.3380
 0.7140	39.4800
 0.7150	40.5860
 0.7160	41.6600
 0.7170	42.6840
 0.7180	43.6790
 0.7190	44.6370
 0.7200	45.5460
 0.7210	46.4190
 0.7220	47.2620
 0.7230	48.0790
 0.7240	48.8690
 0.7250	49.6180
 0.7260	50.3140
 0.7270	50.9630
 0.7280	51.6140
 0.7290	52.2230
 0.7300	52.7830
 0.7310	53.3020
 0.7320	53.8110
 0.7330	54.2850
 0.7340	54.7260
 0.7350	55.1610
 0.7360	55.5570
 0.7370	55.9180
 0.7380	56.2540
 0.7390	56.5710
 0.7400	56.8880
 0.7410	57.1860
 0.7420	57.4400
 0.7430	57.6850
 0.7440	57.9070
 0.7450	58.1100
 0.7460	58.3180
 0.7470	58.4950
 0.7480	58.6460
 0.7490	58.7820
 0.7500	58.9200
 0.7510	59.0360
 0.7520	59.1320
 0.7530	59.2200
 0.7540	59.3310
 0.7550	59.4150
 0.7560	59.4740
 0.7570	59.5490
 0.7580	59.6030
 0.7590	59.6480
 0.7600	59.6900
 0.7610	59.7210
 0.7620	59.7600
 0.7630	59.8000
 0.7640	59.8280
 0.7650	59.8390
 0.7660	59.8600
 0.7670	59.8810
 0.7680	59.8810
 0.7690	59.9010
 0.7700	59.9190
 0.7710	59.9220
 0.7720	59.9240
 0.7730	59.9370
 0.7740	59.9490
 0.7750	59.9480
 0.7760	59.9450
 0.7770	59.9370
 0.7780	59.9360
 0.7790	59.9560
 0.7800	59.9730
 0.7810	59.9670
 0.7820	59.9550
 0.7830	59.9810
 0.7840	59.9930
 0.7850	59.9890
 0.7860	59.9820
 0.7870	60.0000
 0.7880	60.0050
 0.7890	60.0050
 0.7900	60.0130
 0.7910	60.0080
 0.7920	60.0050
 0.7930	60.0100
 0.7940	60.0180
 0.7950	60.0290
 0.7960	60.0320
 0.7970	60.0230
 0.7980	60.0150
 0.7990	60.0280
 0.8000	60.0450
 0.8010	60.0490
 0.8020	60.0520
 0.8030	60.0570
 0.8040	60.0610
 0.8050	60.0560
 0.8060	60.0690
 0.8070	60.0580
 0.8080	60.0380
 0.8090	60.0660
 0.8100	60.1020
 0.8110	60.1030
 0.8120	60.0740
 0.8130	60.0900
 0.8140	60.0910
 0.8150	60.0840
 0.8160	60.0870
 0.8170	60.0800
 0.8180	60.1030
 0.8190	60.1370
 0.8200	60.1410
 0.8210	60.1150
 0.8220	60.1150
 0.8230	60.1370
 0.8240	60.1280
 0.8250	60.1350
 0.8260	60.1430
 0.8270	60.1450
 0.8280	60.1560
 0.8290	60.1640
 0.8300	60.1650
 0.8310	60.1580
 0.8320	60.1530
 0.8330	60.1500
 0.8340	60.1580
 0.8350	60.1810
 0.8360	60.1840
 0.8370	60.1830
 0.8380	60.1900
 0.8390	60.2060
 0.8400	60.2100
 0.8410	60.2060
 0.8420	60.2010
 0.8430	60.2010
 0.8440	60.2020
 0.8450	60.2130
 0.8460	60.2340
 0.8470	60.2390
 0.8480	60.2450
 0.8490	60.2400
 0.8500	60.2230
 0.8510	60.2670
 0.8520	60.2970
 0.8530	60.2890
 0.8540	60.2650
 0.8550	60.2790
 0.8560	60.3010
 0.8570	60.3050
 0.8580	60.2830
 0.8590	60.2730
 0.8600	60.2890
 0.8610	60.3160
 0.8620	60.3000
 0.8630	60.2750
 0.8640	60.2750
 0.8650	60.3080
 0.8660	60.3210
 0.8670	60.3160
 0.8680	60.3010
 0.8690	60.2890
 0.8700	60.2980
 0.8710	60.3060
 0.8720	60.2960
 0.8730	60.2670
 0.8740	60.2910
 0.8750	60.3130
 0.8760	60.3110
 0.8770	60.2990
 0.8780	60.2790
 0.8790	60.2760
 0.8800	60.2900
 0.8810	60.2920
 0.8820	60.2870
 0.8830	60.2730
 0.8840	60.2530
 0.8850	60.2470
 0.8860	60.2440
 0.8870	60.2410
 0.8880	60.2440
 0.8890	60.2480
 0.8900	60.2620
 0.8910	60.2700
 0.8920	60.2550
 0.8930	60.2490
 0.8940	60.2340
 0.8950	60.2110
 0.8960	60.1990
 0.8970	60.2200
 0.8980	60.2260
 0.8990	60.2040
 0.9000	60.1860
 0.9010	60.1760
 0.9020	60.1590
 0.9030	60.1490
 0.9040	60.1850
 0.9050	60.1840
 0.9060	60.1520
 0.9070	60.1190
 0.9080	60.1250
 0.9090	60.1320
 0.9100	60.1360
 0.9110	60.1310
 0.9120	60.0940
 0.9130	60.0910
 0.9140	60.1130
 0.9150	60.1240
 0.9160	60.0890
 0.9170	60.0670
 0.9180	60.0730
 0.9190	60.0920
 0.9200	60.1000
 0.9210	60.0770
 0.9220	60.0380
 0.9230	60.0140
 0.9240	60.0120
 0.9250	60.0220
 0.9260	60.0280
 0.9270	60.0130
 0.9280	59.9860
 0.9290	59.9620
 0.9300	59.9360
 0.9310	59.8940
 0.9320	59.8900
 0.9330	59.8940
 0.9340	59.8910
 0.9350	59.8930
 0.9360	59.8670
 0.9370	59.8190
 0.9380	59.7720
 0.9390	59.7580
 0.9400	59.7710
 0.9410	59.7720
 0.9420	59.7360
 0.9430	59.6810
 0.9440	59.6250
 0.9450	59.5930
 0.9460	59.5910
 0.9470	59.6020
 0.9480	59.5790
 0.9490	59.5240
 0.9500	59.4590
 0.9510	59.4010
 0.9520	59.3480
 0.9530	59.2960
 0.9540	59.2410
 0.9550	59.1700
 0.9560	59.1360
 0.9570	59.1120
 0.9580	59.0600
 0.9590	59.0200
 0.9600	58.9770
 0.9610	58.9310
 0.9620	58.8890
 0.9630	58.8730
 0.9640	58.8340
 0.9650	58.8090
 0.9660	58.8290
 0.9670	58.7650
 0.9680	58.7240
 0.9690	58.7260
 0.9700	58.7390
 0.9710	58.7280
 0.9720	58.7140
 0.9730	58.7000
 0.9740	58.6880
 0.9750	58.7170
 0.9760	58.6970
 0.9770	58.6610
 0.9780	58.6820
 0.9790	58.7110
 0.9800	58.7490
 0.9810	58.7450
 0.9820	58.6710
 0.9830	58.7070
 0.9840	58.7320
 0.9850	58.7340
 0.9860	58.7610
 0.9870	58.8160
 0.9880	58.8350
 0.9890	58.8290
 0.9900	58.8420
 0.9910	58.8600
 0.9920	58.9220
 0.9930	58.9850
 0.9940	59.0470
 0.9950	59.1100
 0.9960	59.1730
 0.9970	59.2350
 0.9980	59.2980
 0.9990	59.3600
 1.0000	59.4230
 1.0010	59.4850
 1.0020	59.5480
 1.0030	59.6100
 1.0040	59.6730
 1.0050	59.7350
 1.0060	59.7980
 1.0070	59.8600
 1.0080	59.9230
 1.0090	59.9850
 1.0100	59.9850
 1.0110	59.9930
 1.0120	60.0080
 1.0130	60.0350
 1.0140	60.0560
 1.0150	60.0860
 1.0160	60.0920
 1.0170	60.0900
 1.0180	60.1130
 1.0190	60.1420
 1.0200	60.1620
 1.0210	60.1910
 1.0220	60.2130
 1.0230	60.2310
 1.0240	60.2390
 1.0250	60.2560
 1.0260	60.2740
 1.0270	60.2890
 1.0280	60.3150
 1.0290	60.3210
 1.0300	60.3010
 1.0310	60.3060
 1.0320	60.3190
 1.0330	60.3230
 1.0340	60.3390
 1.0350	60.3750
 1.0360	60.3890
 1.0370	60.3890
 1.0380	60.3990
 1.0390	60.4140
 1.0400	60.4190
 1.0410	60.4200
 1.0420	60.4270
 1.0430	60.4330
 1.0440	60.4360
 1.0450	60.4420
 1.0460	60.4450
 1.0470	60.4410
 1.0480	60.4400
 1.0490	60.4380
 1.0500	60.4400
 1.0510	60.4400
 1.0520	60.4470
 1.0530	60.4510
 1.0540	60.4590
 1.0550	60.4650
 1.0560	60.4710
 1.0570	60.4690
 1.0580	60.4650
 1.0590	60.4620
 1.0600	60.4460
 1.0610	60.4450
 1.0620	60.4550
 1.0630	60.4600
 1.0640	60.4720
 1.0650	60.4800
 1.0660	60.4880
 1.0670	60.4920
 1.0680	60.4930
 1.0690	60.4930
 1.0700	60.4900
 1.0710	60.4840
 1.0720	60.4750
 1.0730	60.4630
 1.0740	60.4540
 1.0750	60.4400
 1.0760	60.4340
 1.0770	60.4350
 1.0780	60.4360
 1.0790	60.4430
 1.0800	60.4440
 1.0810	60.4450
 1.0820	60.4420
 1.0830	60.4310
 1.0840	60.4270
 1.0850	60.4280
 1.0860	60.4230
 1.0870	60.4210
 1.0880	60.4260
 1.0890	60.4210
 1.0900	60.4070
 1.0910	60.4030
 1.0920	60.4050
 1.0930	60.3960
 1.0940	60.3860
 1.0950	60.3760
 1.0960	60.3580
 1.0970	60.3450
 1.0980	60.3430
 1.0990	60.3290
 1.1000	60.3040
 1.1010	60.2850
 1.1020	60.2630
 1.1030	60.2410
 1.1040	60.2310
 1.1050	60.2190
 1.1060	60.2080
 1.1070	60.2030
 1.1080	60.1900
 1.1090	60.1730
 1.1100	60.1570
 1.1110	60.1380
 1.1120	60.1200
 1.1130	60.1030
 1.1140	60.0850
 1.1150	60.0700
 1.1160	60.0470
 1.1170	60.0240
 1.1180	59.9940
 1.1190	59.9540
 1.1200	59.9150
 1.1210	59.8750
 1.1220	59.8310
 1.1230	59.7920
 1.1240	59.7490
 1.1250	59.7030
 1.1260	59.6580
 1.1270	59.6060
 1.1280	59.5500
 1.1290	59.4860
 1.1300	59.4170
 1.1310	59.3410
 1.1320	59.2580
 1.1330	59.1690
 1.1340	59.0730
 1.1350	58.9730
 1.1360	58.8690
 1.1370	58.7550
 1.1380	58.6330
 1.1390	58.5100
 1.1400	58.3800
 1.1410	58.2490
 1.1420	58.1160
 1.1430	57.9840
 1.1440	57.8490
 1.1450	57.7100
 1.1460	57.5730
 1.1470	57.4320
 1.1480	57.3020
 1.1490	57.1740
 1.1500	57.0530
 1.1510	56.9380
 1.1520	56.8340
 1.1530	56.7340
 1.1540	56.6450
 1.1550	56.5710
 1.1560	56.4990
 1.1570	56.4250
 1.1580	56.3620
 1.1590	56.3020
 1.1600	56.2440
 1.1610	56.1980
 1.1620	56.1570
 1.1630	56.1190
 1.1640	56.0900
 1.1650	56.0590
 1.1660	56.0310
 1.1670	56.0050
 1.1680	55.9800
 1.1690	55.9570
 1.1700	55.9380
 1.1710	55.9160
 1.1720	55.8900
 1.1730	55.8710
 1.1740	55.8550
 1.1750	55.8390
 1.1760	55.8270
 1.1770	55.8150
 1.1780	55.7930
 1.1790	55.7710
 1.1800	55.7500
 1.1810	55.7200
 1.1820	55.6910
 1.1830	55.6630
 1.1840	55.6320
 1.1850	55.6030
 1.1860	55.5780
 1.1870	55.5570
 1.1880	55.5350
 1.1890	55.5160
 1.1900	55.4990
 1.1910	55.4820
 1.1920	55.4660
 1.1930	55.4560
 1.1940	55.4440
 1.1950	55.4320
 1.1960	55.4180
 1.1970	55.4050
 1.1980	55.3940
 1.1990	55.3900
 1.2000	55.3920
 1.2010	55.4010
 1.2020	55.4110
 1.2030	55.4250
 1.2040	55.4470
 1.2050	55.4690
 1.2060	55.4970
 1.2070	55.5240
 1.2080	55.5470
 1.2090	55.5770
 1.2100	55.6110
 1.2110	55.6450
 1.2120	55.6830
 1.2130	55.7210
 1.2140	55.7630
 1.2150	55.8020
 1.2160	55.8400
 1.2170	55.8800
 1.2180	55.9200
 1.2190	55.9540
 1.2200	55.9920
 1.2210	56.0320
 1.2220	56.0690
 1.2230	56.1080
 1.2240	56.1440
 1.2250	56.1800
 1.2260	56.2160
 1.2270	56.2490
 1.2280	56.2890
 1.2290	56.3290
 1.2300	56.3730
 1.2310	56.4180
 1.2320	56.4500
 1.2330	56.4830
 1.2340	56.5180
 1.2350	56.5510
 1.2360	56.5840
 1.2370	56.6220
 1.2380	56.6540
 1.2390	56.6810
 1.2400	56.6970
 1.2410	56.7190
 1.2420	56.7460
 1.2430	56.7690
 1.2440	56.7960
 1.2450	56.8190
 1.2460	56.8360
 1.2470	56.8490
 1.2480	56.8550
 1.2490	56.8700
 1.2500	56.8860
 1.2510	56.9030
 1.2520	56.9250
 1.2530	56.9350
 1.2540	56.9380
 1.2550	56.9450
 1.2560	56.9480
 1.2570	56.9500
 1.2580	56.9580
 1.2590	56.9660
 1.2600	56.9720
 1.2610	56.9820
 1.2620	56.9990
 1.2630	57.0090
 1.2640	57.0060
 1.2650	57.0150
 1.2660	57.0180
 1.2670	57.0050
 1.2680	57.0010
 1.2690	56.9930
 1.2700	56.9820
 1.2710	56.9780
 1.2720	56.9700
 1.2730	56.9560
 1.2740	56.9390
 1.2750	56.9180
 1.2760	56.9030
 1.2770	56.8910
 1.2780	56.8710
 1.2790	56.8500
 1.2800	56.8340
 1.2810	56.8130
 1.2820	56.7900
 1.2830	56.7730
 1.2840	56.7490
 1.2850	56.7250
 1.2860	56.7080
 1.2870	56.6860
 1.2880	56.6600
 1.2890	56.6350
 1.2900	56.6120
 1.2910	56.5760
 1.2920	56.5440
 1.2930	56.5120
 1.2940	56.4730
 1.2950	56.4470
 1.2960	56.4180
 1.2970	56.3880
 1.2980	56.3630
 1.2990	56.3240
 1.3000	56.2800
 1.3010	56.2380
 1.3020	56.1890
 1.3030	56.1410
 1.3040	56.0930
 1.3050	56.0410
 1.3060	55.9880
 1.3070	55.9270
 1.3080	55.8570
 1.3090	55.7900
 1.3100	55.7130
 1.3110	55.6320
 1.3120	55.5540
 1.3130	55.4680
 1.3140	55.3820
 1.3150	55.2980
 1.3160	55.2070
 1.3170	55.1130
 1.3180	55.0170
 1.3190	54.9160
 1.3200	54.8050
 1.3210	54.6910
 1.3220	54.5770
 1.3230	54.4620
 1.3240	54.3460
 1.3250	54.2330
 1.3260	54.1150
 1.3270	53.9860
 1.3280	53.8560
 1.3290	53.7210
 1.3300	53.5810
 1.3310	53.4470
 1.3320	53.3070
 1.3330	53.1630
 1.3340	53.0160
 1.3350	52.8680
 1.3360	52.7170
 1.3370	52.5660
 1.3380	52.4170
 1.3390	52.2650
 1.3400	52.1100
 1.3410	51.9590
 1.3420	51.8100
 1.3430	51.6580
 1.3440	51.5090
 1.3450	51.3620
 1.3460	51.2180
 1.3470	51.0740
 1.3480	50.9320
 1.3490	50.7900
 1.3500	50.6490
 1.3510	50.5070
 1.3520	50.3650
 1.3530	50.2270
 1.3540	50.0860
 1.3550	49.9410
 1.3560	49.7940
 1.3570	49.6480
 1.3580	49.5010
 1.3590	49.3520
 1.3600	49.1970
 1.3610	49.0330
 1.3620	48.8670
 1.3630	48.6990
 1.3640	48.5220
 1.3650	48.3410
 1.3660	48.1500
 1.3670	47.9430
 1.3680	47.7210
 1.3690	47.4890
 1.3700	47.2440
 1.3710	46.9860
 1.3720	46.7160
 1.3730	46.4260
 1.3740	46.1150
 1.3750	45.7850
 1.3760	45.4340
 1.3770	45.0580
 1.3780	44.6590
 1.3790	44.2380
 1.3800	43.7930
 1.3810	43.3220
 1.3820	42.8260
 1.3830	42.3090
 1.3840	41.7630
 1.3850	41.1880
 1.3860	40.5990
 1.3870	39.9840
 1.3880	39.3610
 1.3890	38.7230
 1.3900	38.0720
 1.3910	37.4150
 1.3920	36.7470
 1.3930	36.0750
 1.3940	35.4020
 1.3950	34.7240
 1.3960	34.0540
 1.3970	33.3980
 1.3980	32.7520
 1.3990	32.1280
 1.4000	31.5190
 1.4010	30.9200
 1.4020	30.3440
 1.4030	29.7860
 1.4040	29.2530
 1.4050	28.7500
 1.4060	28.2660
 1.4070	27.8150
 1.4080	27.3890
 1.4090	26.9820
 1.4100	26.6050
 1.4110	26.2450
 1.4120	25.9080
 1.4130	25.6040
 1.4140	25.3250
 1.4150	25.0720
 1.4160	24.8420
 1.4170	24.6300
 1.4180	24.4360
 1.4190	24.2590
 1.4200	24.0990
 1.4210	23.9560
 1.4220	23.8290
 1.4230	23.7150
 1.4240	23.6130
 1.4250	23.5220
 1.4260	23.4420
 1.4270	23.3690
 1.4280	23.3060
 1.4290	23.2540
 1.4300	23.2130
 1.4310	23.1770
 1.4320	23.1540
 1.4330	23.1330
 1.4340	23.1150
 1.4350	23.1060
 1.4360	23.1060
 1.4370	23.1080
 1.4380	23.1160
 1.4390	23.1310
 1.4400	23.1480
 1.4410	23.1670
 1.4420	23.1890
 1.4430	23.2130
 1.4440	23.2420
 1.4450	23.2740
 1.4460	23.3080
 1.4470	23.3460
 1.4480	23.3800
 1.4490	23.4120
 1.4500	23.4490
 1.4510	23.4860
 1.4520	23.5250
 1.4530	23.5680
 1.4540	23.6080
 1.4550	23.6490
 1.4560	23.6920
 1.4570	23.7390
 1.4580	23.7950
 1.4590	23.8560
 1.4600	23.9220
 1.4610	23.9920
 1.4620	24.0650
 1.4630	24.1440
 1.4640	24.2300
 1.4650	24.3240
 1.4660	24.4210
 1.4670	24.5220
 1.4680	24.6280
 1.4690	24.7380
 1.4700	24.8550
 1.4710	24.9810
 1.4720	25.1110
 1.4730	25.2430
 1.4740	25.3800
 1.4750	25.5190
 1.4760	25.6610
 1.4770	25.8060
 1.4780	25.9530
 1.4790	26.1020
 1.4800	26.2530
 1.4810	26.4080
 1.4820	26.5640
 1.4830	26.7210
 1.4840	26.8830
 1.4850	27.0430
 1.4860	27.2030
 1.4870	27.3660
 1.4880	27.5270
 1.4890	27.6880
 1.4900	27.8490
 1.4910	28.0090
 1.4920	28.1690
 1.4930	28.3270
 1.4940	28.4870
 1.4950	28.6500
 1.4960	28.8130
 1.4970	28.9750
 1.4980	29.1360
 1.4990	29.2940
 1.5000	29.4550
 1.5010	29.6180
 1.5020	29.7780
 1.5030	29.9410
 1.5040	30.1010
 1.5050	30.2540
 1.5060	30.4120
 1.5070	30.5730
 1.5080	30.7280
 1.5090	30.8800
 1.5100	31.0340
 1.5110	31.1860
 1.5120	31.3350
 1.5130	31.4850
 1.5140	31.6360
 1.5150	31.7830
 1.5160	31.9300
 1.5170	32.0790
 1.5180	32.2200
 1.5190	32.3580
 1.5200	32.4950
 1.5210	32.6290
 1.5220	32.7660
 1.5230	32.9040
 1.5240	33.0380
 1.5250	33.1730
 1.5260	33.3060
 1.5270	33.4330
 1.5280	33.5620
 1.5290	33.6860
 1.5300	33.8100
 1.5310	33.9350
 1.5320	34.0560
 1.5330	34.1770
 1.5340	34.2970
 1.5350	34.4140
 1.5360	34.5350
 1.5370	34.6530
 1.5380	34.7700
 1.5390	34.8830
 1.5400	34.9910
 1.5410	35.0970
 1.5420	35.2050
 1.5430	35.3170
 1.5440	35.4290
 1.5450	35.5360
 1.5460	35.6420
 1.5470	35.7470
 1.5480	35.8500
 1.5490	35.9570
 1.5500	36.0570
 1.5510	36.1540
 1.5520	36.2540
 1.5530	36.3490
 1.5540	36.4450
 1.5550	36.5410
 1.5560	36.6300
 1.5570	36.7200
 1.5580	36.8120
 1.5590	36.9000
 1.5600	36.9910
 1.5610	37.0770
 1.5620	37.1630
 1.5630	37.2520
 1.5640	37.3370
 1.5650	37.4240
 1.5660	37.5110
 1.5670	37.5940
 1.5680	37.6790
 1.5690	37.7630
 1.5700	37.8440
 1.5710	37.9280
 1.5720	38.0070
 1.5730	38.0850
 1.5740	38.1650
 1.5750	38.2450
 1.5760	38.3280
 1.5770	38.4130
 1.5780	38.4940
 1.5790	38.5750
 1.5800	38.6540
 1.5810	38.7300
 1.5820	38.8130
 1.5830	38.8940
 1.5840	38.9720
 1.5850	39.0520
 1.5860	39.1290
 1.5870	39.2010
 1.5880	39.2730
 1.5890	39.3470
 1.5900	39.4190
 1.5910	39.4940
 1.5920	39.5710
 1.5930	39.6410
 1.5940	39.7090
 1.5950	39.7800
 1.5960	39.8460
 1.5970	39.9090
 1.5980	39.9780
 1.5990	40.0400
 1.6000	40.1040
 1.6010	40.1750
 1.6020	40.2390
 1.6030	40.3060
 1.6040	40.3740
 1.6050	40.4370
 1.6060	40.5030
 1.6070	40.5630
 1.6080	40.6220
 1.6090	40.6830
 1.6100	40.7430
 1.6110	40.8030
 1.6120	40.8630
 1.6130	40.9180
 1.6140	40.9690
 1.6150	41.0240
 1.6160	41.0780
 1.6170	41.1310
 1.6180	41.1790
 1.6190	41.2230
 1.6200	41.2700
 1.6210	41.3170
 1.6220	41.3650
 1.6230	41.4150
 1.6240	41.4620
 1.6250	41.5060
 1.6260	41.5470
 1.6270	41.5890
 1.6280	41.6250
 1.6290	41.6580
 1.6300	41.6910
 1.6310	41.7210
 1.6320	41.7430
 1.6330	41.7710
 1.6340	41.8020
 1.6350	41.8290
 1.6360	41.8540
 1.6370	41.8820
 1.6380	41.9080
 1.6390	41.9370
 1.6400	41.9720
 1.6410	42.0020
 1.6420	42.0320
 1.6430	42.0590
 1.6440	42.0880
 1.6450	42.1140
 1.6460	42.1350
 1.6470	42.1490
 1.6480	42.1520
 1.6490	42.1480
 1.6500	42.1450
 1.6510	42.1470
 1.6520	42.1460
 1.6530	42.1460
 1.6540	42.1440
 1.6550	42.1350
 1.6560	42.1230
 1.6570	42.1090
 1.6580	42.0910
 1.6590	42.0710
 1.6600	42.0510
 1.6610	42.0310
 1.6620	42.0110
 1.6630	41.9880
 1.6640	41.9610
 1.6650	41.9290
 1.6660	41.8940
 1.6670	41.8620
 1.6680	41.8300
 1.6690	41.7970
 1.6700	41.7630
 1.6710	41.7230
 1.6720	41.6820
 1.6730	41.6420
 1.6740	41.5960
 1.6750	41.5440
 1.6760	41.4860
 1.6770	41.4180
 1.6780	41.3420
 1.6790	41.2630
 1.6800	41.1770
 1.6810	41.0850
 1.6820	40.9940
 1.6830	40.8960
 1.6840	40.8000
 1.6850	40.7030
 1.6860	40.5960
 1.6870	40.4860
 1.6880	40.3740
 1.6890	40.2630
 1.6900	40.1510
 1.6910	40.0390
 1.6920	39.9280
 1.6930	39.8110
 1.6940	39.7010
 1.6950	39.5940
 1.6960	39.4970
 1.6970	39.4130
 1.6980	39.3190
 1.6990	39.2290
 1.7000	39.1350
 1.7010	39.0320
 1.7020	38.9350
 1.7030	38.8440
 1.7040	38.7460
 1.7050	38.6440
 1.7060	38.5410
 1.7070	38.4340
 1.7080	38.3330
 1.7090	38.2330
 1.7100	38.1390
 1.7110	38.0490
 1.7120	37.9620
 1.7130	37.8770
 1.7140	37.7970
 1.7150	37.7290
 1.7160	37.6690
 1.7170	37.6140
 1.7180	37.5650
 1.7190	37.5160
 1.7200	37.4760
 1.7210	37.4430
 1.7220	37.4130
 1.7230	37.3900
 1.7240	37.3590
 1.7250	37.3320
 1.7260	37.3110
 1.7270	37.2840
 1.7280	37.2630
 1.7290	37.2440
 1.7300	37.2240
 1.7310	37.2090
 1.7320	37.2040
 1.7330	37.1920
 1.7340	37.1810
 1.7350	37.1660
 1.7360	37.1490
 1.7370	37.1250
 1.7380	37.0990
 1.7390	37.0640
 1.7400	37.0160
 1.7410	36.9710
 1.7420	36.9220
 1.7430	36.8680
 1.7440	36.8130
 1.7450	36.7510
 1.7460	36.6800
 1.7470	36.6090
 1.7480	36.5320
 1.7490	36.4560
 1.7500	36.3780
 1.7510	36.3000
 1.7520	36.2210
 1.7530	36.1460
 1.7540	36.0660
 1.7550	35.9960
 1.7560	35.9320
 1.7570	35.8690
 1.7580	35.8160
 1.7590	35.7720
 1.7600	35.7250
 1.7610	35.6860
 1.7620	35.6440
 1.7630	35.5980
 1.7640	35.5560
 1.7650	35.5120
 1.7660	35.4730
 1.7670	35.4420
 1.7680	35.4040
 1.7690	35.3670
 1.7700	35.3270
 1.7710	35.2770
 1.7720	35.2400
 1.7730	35.2130
 1.7740	35.1830
 1.7750	35.1630
 1.7760	35.1350
 1.7770	35.0980
 1.7780	35.0740
 1.7790	35.0540
 1.7800	35.0370
 1.7810	35.0280
 1.7820	35.0160
 1.7830	34.9980
 1.7840	34.9970
 1.7850	35.0040
 1.7860	35.0170
 1.7870	35.0460
 1.7880	35.0700
 1.7890	35.0940
 1.7900	35.1170
 1.7910	35.1360
 1.7920	35.1490
 1.7930	35.1620
 1.7940	35.1760
 1.7950	35.1870
 1.7960	35.1990
 1.7970	35.2080
 1.7980	35.2130
 1.7990	35.2210
 1.8000	35.2270
 1.8010	35.2370
 1.8020	35.2490
 1.8030	35.2650
 1.8040	35.2880
 1.8050	35.3060
 1.8060	35.3270
 1.8070	35.3420
 1.8080	35.3490
 1.8090	35.3580
 1.8100	35.3630
 1.8110	35.3750
 1.8120	35.3900
 1.8130	35.4010
 1.8140	35.4070
 1.8150	35.4050
 1.8160	35.3970
 1.8170	35.3960
 1.8180	35.4050
 1.8190	35.4040
 1.8200	35.4080
 1.8210	35.4100
 1.8220	35.4140
 1.8230	35.4300
 1.8240	35.4330
 1.8250	35.4290
 1.8260	35.4190
 1.8270	35.2750
 1.8280	35.1300
 1.8290	34.9860
 1.8300	34.8420
 1.8310	34.6980
 1.8320	34.5540
 1.8330	34.4100
 1.8340	34.2660
 1.8350	34.2660
 1.8360	34.2180
 1.8370	34.1780
 1.8380	34.1370
 1.8390	34.0820
 1.8400	34.0200
 1.8410	33.9430
 1.8420	33.8550
 1.8430	33.7630
 1.8440	33.6500
 1.8450	33.5430
 1.8460	33.4440
 1.8470	33.3290
 1.8480	33.2040
 1.8490	33.0640
 1.8500	32.9040
 1.8510	32.7200
 1.8520	32.5200
 1.8530	32.3160
 1.8540	32.1100
 1.8550	31.8910
 1.8560	31.6630
 1.8570	31.4080
 1.8580	31.1310
 1.8590	30.8430
 1.8600	30.5410
 1.8610	30.2140
 1.8620	29.8730
 1.8630	29.5080
 1.8640	29.1200
 1.8650	28.7140
 1.8660	28.2820
 1.8670	27.8320
 1.8680	27.3660
 1.8690	26.8690
 1.8700	26.3530
 1.8710	25.8150
 1.8720	25.2650
 1.8730	24.6950
 1.8740	24.1130
 1.8750	23.5250
 1.8760	22.9300
 1.8770	22.3320
 1.8780	21.7260
 1.8790	21.1140
 1.8800	20.5100
 1.8810	19.9040
 1.8820	19.3000
 1.8830	18.7090
 1.8840	18.1370
 1.8850	17.5670
 1.8860	17.0100
 1.8870	16.4770
 1.8880	15.9580
 1.8890	15.4640
 1.8900	14.9970
 1.8910	14.5550
 1.8920	14.1370
 1.8930	13.7430
 1.8940	13.3730
 1.8950	13.0390
 1.8960	12.7270
 1.8970	12.4380
 1.8980	12.1800
 1.8990	11.9400
 1.9000	11.7230
 1.9010	11.5350
 1.9020	11.3650
 1.9030	11.2200
 1.9040	11.0890
 1.9050	10.9740
 1.9060	10.8620
 1.9070	10.7620
 1.9080	10.6820
 1.9090	10.6040
 1.9100	10.5380
 1.9110	10.4790
 1.9120	10.4260
 1.9130	10.3770
 1.9140	10.3380
 1.9150	10.3070
 1.9160	10.2790
 1.9170	10.2630
 1.9180	10.2550
 1.9190	10.2430
 1.9200	10.2260
 1.9210	10.2160
 1.9220	10.2100
 1.9230	10.2040
 1.9240	10.2010
 1.9250	10.2030
 1.9260	10.2040
 1.9270	10.2080
 1.9280	10.2160
 1.9290	10.2310
 1.9300	10.2510
 1.9310	10.2680
 1.9320	10.2850
 1.9330	10.3050
 1.9340	10.3310
 1.9350	10.3490
 1.9360	10.3610
 1.9370	10.3840
 1.9380	10.4090
 1.9390	10.4360
 1.9400	10.4680
 1.9410	10.5060
 1.9420	10.5350
 1.9430	10.5620
 1.9440	10.5930
 1.9450	10.6230
 1.9460	10.6600
 1.9470	10.6990
 1.9480	10.7430
 1.9490	10.7930
 1.9500	10.8460
 1.9510	10.8980
 1.9520	10.9400
 1.9530	10.9840
 1.9540	11.0290
 1.9550	11.0730
 1.9560	11.1140
 1.9570	11.1660
 1.9580	11.2240
 1.9590	11.2770
 1.9600	11.3350
 1.9610	11.3900
 1.9620	11.4380
 1.9630	11.4930
 1.9640	11.5570
 1.9650	11.6250
 1.9660	11.6920
 1.9670	11.7540
 1.9680	11.8170
 1.9690	11.8740
 1.9700	11.9400
 1.9710	12.0110
 1.9720	12.0820
 1.9730	12.1570
 1.9740	12.2290
 1.9750	12.3010
 1.9760	12.3780
 1.9770	12.4550
 1.9780	12.5320
 1.9790	12.6160
 1.9800	12.7120
 1.9810	12.7950
 1.9820	12.8820
 1.9830	12.9600
 1.9840	13.0190
 1.9850	13.0910
 1.9860	13.1650
 1.9870	13.2440
 1.9880	13.3290
 1.9890	13.4140
 1.9900	13.4990
 1.9910	13.5800
 1.9920	13.6620
 1.9930	13.7410
 1.9940	13.8260
 1.9950	13.9140
 1.9960	13.9990
 1.9970	14.0890
 1.9980	14.1740
 1.9990	14.2580
 2.0000	14.3350
 2.0010	14.4150
 2.0020	14.4960
 2.0030	14.5790
 2.0040	14.6610
 2.0050	14.7430
 2.0060	14.8240
 2.0070	14.9050
 2.0080	14.9850
 2.0090	15.0670
 2.0100	15.1550
 2.0110	15.2390
 2.0120	15.3210
 2.0130	15.4040
 2.0140	15.4890
 2.0150	15.5580
 2.0160	15.6250
 2.0170	15.6970
 2.0180	15.7650
 2.0190	15.8250
 2.0200	15.8990
 2.0210	15.9850
 2.0220	16.0580
 2.0230	16.1310
 2.0240	16.2010
 2.0250	16.2550
 2.0260	16.3220
 2.0270	16.4010
 2.0280	16.4840
 2.0290	16.5450
 2.0300	16.6080
 2.0310	16.6670
 2.0320	16.7110
 2.0330	16.7650
 2.0340	16.8270
 2.0350	16.8830
 2.0360	16.9350
 2.0370	16.9890
 2.0380	17.0510
 2.0390	17.1040
 2.0400	17.1540
 2.0410	17.2010
 2.0420	17.2390
 2.0430	17.2790
 2.0440	17.3250
 2.0450	17.3720
 2.0460	17.4180
 2.0470	17.4660
 2.0480	17.5140
 2.0490	17.5590
 2.0500	17.6060
 2.0510	17.6580
 2.0520	17.7060
 2.0530	17.7470
 2.0540	17.7930
 2.0550	17.8430
 2.0560	17.8860
 2.0570	17.9260
 2.0580	17.9700
 2.0590	18.0090
 2.0600	18.0360
 2.0610	18.0760
 2.0620	18.1220
 2.0630	18.1680
 2.0640	18.2260
 2.0650	18.2710
 2.0660	18.3100
 2.0670	18.3490
 2.0680	18.3750
 2.0690	18.4160
 2.0700	18.4710
 2.0710	18.5210
 2.0720	18.5730
 2.0730	18.6330
 2.0740	18.6820
 2.0750	18.7250
 2.0760	18.7650
 2.0770	18.7970
 2.0780	18.8370
 2.0790	18.8730
 2.0800	18.9150
 2.0810	18.9660
 2.0820	19.0130
 2.0830	19.0630
 2.0840	19.1080
 2.0850	19.1490
 2.0860	19.1930
 2.0870	19.2360
 2.0880	19.2780
 2.0890	19.3280
 2.0900	19.3880
 2.0910	19.4380
 2.0920	19.4860
 2.0930	19.5340
 2.0940	19.5760
 2.0950	19.6230
 2.0960	19.6740
 2.0970	19.7210
 2.0980	19.7640
 2.0990	19.8080
 2.1000	19.8460
 2.1010	19.8910
 2.1020	19.9450
 2.1030	19.9920
 2.1040	20.0440
 2.1050	20.0920
 2.1060	20.1350
 2.1070	20.1700
 2.1080	20.2080
 2.1090	20.2410
 2.1100	20.2820
 2.1110	20.3230
 2.1120	20.3710
 2.1130	20.4290
 2.1140	20.4800
 2.1150	20.5350
 2.1160	20.5840
 2.1170	20.6290
 2.1180	20.6740
 2.1190	20.7090
 2.1200	20.7560
 2.1210	20.8090
 2.1220	20.8640
 2.1230	20.9150
 2.1240	20.9730
 2.1250	21.0230
 2.1260	21.0640
 2.1270	21.1100
 2.1280	21.1640
 2.1290	21.2020
 2.1300	21.2300
 2.1310	21.2630
 2.1320	21.2850
 2.1330	21.3170
 2.1340	21.3560
 2.1350	21.3920
 2.1360	21.4280
 2.1370	21.4640
 2.1380	21.4980
 2.1390	21.5370
 2.1400	21.5810
 2.1410	21.6200
 2.1420	21.6580
 2.1430	21.6980
 2.1440	21.7320
 2.1450	21.7610
 2.1460	21.7900
 2.1470	21.8210
 2.1480	21.8420
 2.1490	21.8530
 2.1500	21.8720
 2.1510	21.8940
 2.1520	21.9050
 2.1530	21.9110
 2.1540	21.9250
 2.1550	21.9290
 2.1560	21.9450
 2.1570	21.9770
 2.1580	22.0070
 2.1590	22.0330
 2.1600	22.0670
 2.1610	22.1100
 2.1620	22.1660
 2.1630	22.2110
 2.1640	22.2640
 2.1650	22.3010
 2.1660	22.3290
 2.1670	22.3500
 2.1680	22.3550
 2.1690	22.3720
 2.1700	22.3830
 2.1710	22.4020
 2.1720	22.4340
 2.1730	22.4590
 2.1740	22.4810
 2.1750	22.5050
 2.1760	22.5310
 2.1770	22.5530
 2.1780	22.5720
 2.1790	22.5910
 2.1800	22.5960
 2.1810	22.6170
 2.1820	22.6490
 2.1830	22.6820
 2.1840	22.7070
 2.1850	22.7370
 2.1860	22.7650
 2.1870	22.7800
 2.1880	22.8070
 2.1890	22.8460
 2.1900	22.8750
 2.1910	22.9020
 2.1920	22.9270
 2.1930	22.9490
 2.1940	22.9690
 2.1950	22.9870
 2.1960	23.0020
 2.1970	23.0110
 2.1980	23.0220
 2.1990	23.0360
 2.2000	23.0410
 2.2010	23.0340
 2.2020	23.0410
 2.2030	23.0460
 2.2040	23.0550
 2.2050	23.0770
 2.2060	23.1010
 2.2070	23.1180
 2.2080	23.1310
 2.2090	23.1410
 2.2100	23.1500
 2.2110	23.1560
 2.2120	23.1590
 2.2130	23.1570
 2.2140	23.1480
 2.2150	23.1470
 2.2160	23.1430
 2.2170	23.1400
 2.2180	23.1510
 2.2190	23.1440
 2.2200	23.1330
 2.2210	23.1110
 2.2220	23.0730
 2.2230	23.0400
 2.2240	23.0010
 2.2250	22.9600
 2.2260	22.9190
 2.2270	22.8790
 2.2280	22.8350
 2.2290	22.7910
 2.2300	22.7540
 2.2310	22.7060
 2.2320	22.6520
 2.2330	22.6030
 2.2340	22.5440
 2.2350	22.4780
 2.2360	22.4140
 2.2370	22.3420
 2.2380	22.2760
 2.2390	22.2190
 2.2400	22.1480
 2.2410	22.0740
 2.2420	21.9870
 2.2430	21.8810
 2.2440	21.7880
 2.2450	21.6900
 2.2460	21.6010
 2.2470	21.5250
 2.2480	21.4410
 2.2490	21.3610
 2.2500	21.2730
 2.2510	21.1890
 2.2520	21.0890
 2.2530	20.9670
 2.2540	20.8590
 2.2550	20.7430
 2.2560	20.6330
 2.2570	20.5390
 2.2580	20.4360
 2.2590	20.3310
 2.2600	20.2210
 2.2610	20.1040
 2.2620	19.9870
 2.2630	19.8760
 2.2640	19.7820
 2.2650	19.7060
 2.2660	19.6260
 2.2670	19.5400
 2.2680	19.4510
 2.2690	19.3630
 2.2700	19.2650
 2.2710	19.1800
 2.2720	19.1000
 2.2730	19.0250
 2.2740	18.9530
 2.2750	18.8900
 2.2760	18.8400
 2.2770	18.7760
 2.2780	18.7070
 2.2790	18.6470
 2.2800	18.5750
 2.2810	18.5260
 2.2820	18.5120
 2.2830	18.4630
 2.2840	18.4080
 2.2850	18.3420
 2.2860	18.2380
 2.2870	18.1650
 2.2880	18.1070
 2.2890	18.0440
 2.2900	17.9950
 2.2910	17.9360
 2.2920	17.8690
 2.2930	17.8040
 2.2940	17.7430
 2.2950	17.6780
 2.2960	17.6150
 2.2970	17.5420
 2.2980	17.4600
 2.2990	17.3700
 2.3000	17.2940
 2.3010	17.2220
 2.3020	17.1680
 2.3030	17.1300
 2.3040	17.0880
 2.3050	17.0520
 2.3060	17.0210
 2.3070	16.9920
 2.3080	16.9690
 2.3090	16.9290
 2.3100	16.8870
 2.3110	16.8560
 2.3120	16.8430
 2.3130	16.8440
 2.3140	16.8460
 2.3150	16.8760
 2.3160	16.8700
 2.3170	16.8440
 2.3180	16.8330
 2.3190	16.8140
 2.3200	16.8070
 2.3210	16.8170
 2.3220	16.8150
 2.3230	16.8120
 2.3240	16.7970
 2.3250	16.7760
 2.3260	16.7540
 2.3270	16.7190
 2.3280	16.6930
 2.3290	16.6740
 2.3300	16.6420
 2.3310	16.6010
 2.3320	16.5700
 2.3330	16.5370
 2.3340	16.5020
 2.3350	16.4710
 2.3360	16.4420
 2.3370	16.4160
 2.3380	16.3850
 2.3390	16.3610
 2.3400	16.3270
 2.3410	16.2720
 2.3420	16.2250
 2.3430	16.1750
 2.3440	16.1360
 2.3450	16.1050
 2.3460	16.0800
 2.3470	16.0730
 2.3480	16.0540
 2.3490	16.0340
 2.3500	16.0070
 2.3510	15.9700
 2.3520	15.9370
 2.3530	15.8940
 2.3540	15.8710
 2.3550	15.8610
 2.3560	15.8230
 2.3570	15.7910
 2.3580	15.7680
 2.3590	15.7160
 2.3600	15.6860
 2.3610	15.6770
 2.3620	15.6520
 2.3630	15.6310
 2.3640	15.6250
 2.3650	15.6170
 2.3660	15.5960
 2.3670	15.5650
 2.3680	15.5370
 2.3690	15.5080
 2.3700	15.4650
 2.3710	15.4380
 2.3720	15.4260
 2.3730	15.3970
 2.3740	15.3800
 2.3750	15.3850
 2.3760	15.3590
 2.3770	15.2950
 2.3780	15.2440
 2.3790	15.1760
 2.3800	15.1190
 2.3810	15.1280
 2.3820	15.1240
 2.3830	15.0860
 2.3840	15.0480
 2.3850	14.9870
 2.3860	14.9250
 2.3870	14.9040
 2.3880	14.8830
 2.3890	14.8500
 2.3900	14.8170
 2.3910	14.7540
 2.3920	14.6760
 2.3930	14.6070
 2.3940	14.5250
 2.3950	14.4610
 2.3960	14.4680
 2.3970	14.4970
 2.3980	14.4780
 2.3990	14.4560
 2.4000	14.4450
 2.4010	14.3900
 2.4020	14.3530
 2.4030	14.3250
 2.4040	14.2550
 2.4050	14.1970
 2.4060	14.1910
 2.4070	14.1920
 2.4080	14.1630
 2.4090	14.1220
 2.4100	14.0310
 2.4110	13.9260
 2.4120	13.8900
 2.4130	13.8400
 2.4140	13.7900
 2.4150	13.7910
 2.4160	13.7250
 2.4170	13.6530
 2.4180	13.6370
 2.4190	13.6190
 2.4200	13.5980
 2.4210	13.5680
 2.4220	13.5390
 2.4230	13.4800
 2.4240	13.4300
 2.4250	13.4370
 2.4260	13.4290
 2.4270	13.3790
 2.4280	13.3160
 2.4290	13.2130
 2.4300	13.0790
 2.4310	12.9880
 2.4320	12.9380
 2.4330	12.9570
 2.4340	13.0100
 2.4350	13.0040
 2.4360	12.9830
 2.4370	12.9270
 2.4380	12.8750
 2.4390	12.8310
 2.4400	12.7670
 2.4410	12.7320
 2.4420	12.6370
 2.4430	12.6030
 2.4440	12.5860
 2.4450	12.4900
 2.4460	12.4830
 2.4470	12.4030
 2.4480	12.3180
 2.4490	12.3110
 2.4500	12.2100
 2.4510	12.1620
 2.4520	12.1680
 2.4530	12.1130
 2.4540	12.1180
 2.4550	12.1480
 2.4560	12.1240
 2.4570	12.1190
 2.4580	12.0840
 2.4590	12.0630
 2.4600	12.0410
 2.4610	11.9310
 2.4620	11.7900
 2.4630	11.6290
 2.4640	11.5630
 2.4650	11.5700
 2.4660	11.6250
 2.4670	11.7140
 2.4680	11.5940
 2.4690	11.4550
 2.4700	11.3810
 2.4710	11.2890
 2.4720	11.2570
 2.4730	11.2630
 2.4740	11.3080
 2.4750	11.3810
 2.4760	11.4170
 2.4770	11.5700
 2.4780	11.5900
 2.4790	11.4880
 2.4800	11.4430
 2.4810	11.3010
 2.4820	11.2760
 2.4830	11.3440
 2.4840	11.3510
 2.4850	11.3920
 2.4860	11.4490
 2.4870	11.3660
 2.4880	11.3780
 2.4890	11.3410
 2.4900	11.1430
 2.4910	11.0720
 2.4920	10.9940
 2.4930	10.9280
 2.4940	10.9510
 2.4950	11.0290
 2.4960	11.1380
 2.4970	11.1740
 2.4980	11.2670
 2.4990	11.2770
 2.5000	11.1770
