Name: Baccharis pilularis 3
Type: vegetation
Class: Shrub
Genus: Baccharis
Species: pilularis
Sample No.: VH006
Owner: UCSB
Wavelength Range: VSWIR
Origin: 34.418; -119.8456; WGS84
Collection Date: 4/1/2013
Description: Samples were collected as part of the HyspIRI Airborne Campaign. 48 individual plants were sampled in three times in 2013 - spring  summer  and fall. The name of the sample includes a 1  2  or 3 which references a different individual of the species. Samples were taken to JPL and processed within 48 hours of collection. The same leaves were processed in the Nicolet and then measured using the ASD.
Measurement: Bidirectional reflectance
First Column: X
Second Column: Y
X Units: Wavelength (micrometers)
Y Units: Reflectance (percentage)
First X Value: 0.35
Last X Value: 2.5
Number of X Values: 2151
Additional Information: vegetation.shrub.baccharis.pilularis.vswir.vh006.ucsb.asd.ancillary.txt

 0.3500	 3.8040
 0.3510	 3.7450
 0.3520	 3.5470
 0.3530	 3.3350
 0.3540	 3.2230
 0.3550	 3.2170
 0.3560	 3.2740
 0.3570	 3.3350
 0.3580	 3.3560
 0.3590	 3.4000
 0.3600	 3.3950
 0.3610	 3.3560
 0.3620	 3.4350
 0.3630	 3.4270
 0.3640	 3.4090
 0.3650	 3.4620
 0.3660	 3.4080
 0.3670	 3.4080
 0.3680	 3.4360
 0.3690	 3.3520
 0.3700	 3.3450
 0.3710	 3.3560
 0.3720	 3.3530
 0.3730	 3.4020
 0.3740	 3.4160
 0.3750	 3.3950
 0.3760	 3.3720
 0.3770	 3.3890
 0.3780	 3.4620
 0.3790	 3.5180
 0.3800	 3.4360
 0.3810	 3.5320
 0.3820	 3.5940
 0.3830	 3.4940
 0.3840	 3.4780
 0.3850	 3.5010
 0.3860	 3.5270
 0.3870	 3.5220
 0.3880	 3.4890
 0.3890	 3.4640
 0.3900	 3.4690
 0.3910	 3.5100
 0.3920	 3.5300
 0.3930	 3.5430
 0.3940	 3.5570
 0.3950	 3.5200
 0.3960	 3.5490
 0.3970	 3.5990
 0.3980	 3.5690
 0.3990	 3.5470
 0.4000	 3.5700
 0.4010	 3.6080
 0.4020	 3.5640
 0.4030	 3.5810
 0.4040	 3.6270
 0.4050	 3.6470
 0.4060	 3.6560
 0.4070	 3.6850
 0.4080	 3.7330
 0.4090	 3.7750
 0.4100	 3.7940
 0.4110	 3.8160
 0.4120	 3.8510
 0.4130	 3.8800
 0.4140	 3.9060
 0.4150	 3.9300
 0.4160	 3.9550
 0.4170	 3.9870
 0.4180	 4.0170
 0.4190	 4.0510
 0.4200	 4.1130
 0.4210	 4.1410
 0.4220	 4.1560
 0.4230	 4.1840
 0.4240	 4.2360
 0.4250	 4.2670
 0.4260	 4.2880
 0.4270	 4.3370
 0.4280	 4.3880
 0.4290	 4.4260
 0.4300	 4.4510
 0.4310	 4.4810
 0.4320	 4.5100
 0.4330	 4.5370
 0.4340	 4.5680
 0.4350	 4.6180
 0.4360	 4.6590
 0.4370	 4.6820
 0.4380	 4.6960
 0.4390	 4.7110
 0.4400	 4.7270
 0.4410	 4.7430
 0.4420	 4.7690
 0.4430	 4.8000
 0.4440	 4.8290
 0.4450	 4.8520
 0.4460	 4.9060
 0.4470	 4.9440
 0.4480	 4.9560
 0.4490	 4.9820
 0.4500	 5.0080
 0.4510	 5.0330
 0.4520	 5.0590
 0.4530	 5.0860
 0.4540	 5.1200
 0.4550	 5.1510
 0.4560	 5.1680
 0.4570	 5.1860
 0.4580	 5.2040
 0.4590	 5.2210
 0.4600	 5.2320
 0.4610	 5.2530
 0.4620	 5.2780
 0.4630	 5.2950
 0.4640	 5.3030
 0.4650	 5.3140
 0.4660	 5.3280
 0.4670	 5.3330
 0.4680	 5.3430
 0.4690	 5.3540
 0.4700	 5.3630
 0.4710	 5.3820
 0.4720	 5.3810
 0.4730	 5.3770
 0.4740	 5.4040
 0.4750	 5.4140
 0.4760	 5.4140
 0.4770	 5.4170
 0.4780	 5.4330
 0.4790	 5.4480
 0.4800	 5.4580
 0.4810	 5.4650
 0.4820	 5.4740
 0.4830	 5.4910
 0.4840	 5.5110
 0.4850	 5.5250
 0.4860	 5.5400
 0.4870	 5.5600
 0.4880	 5.5870
 0.4890	 5.6200
 0.4900	 5.6590
 0.4910	 5.7020
 0.4920	 5.7490
 0.4930	 5.7900
 0.4940	 5.8340
 0.4950	 5.8870
 0.4960	 5.9630
 0.4970	 6.0320
 0.4980	 6.1010
 0.4990	 6.1880
 0.5000	 6.2870
 0.5010	 6.3810
 0.5020	 6.4770
 0.5030	 6.6030
 0.5040	 6.7330
 0.5050	 6.8700
 0.5060	 7.0200
 0.5070	 7.1880
 0.5080	 7.3750
 0.5090	 7.5760
 0.5100	 7.7820
 0.5110	 8.0090
 0.5120	 8.2570
 0.5130	 8.5220
 0.5140	 8.7950
 0.5150	 9.0830
 0.5160	 9.3870
 0.5170	 9.7070
 0.5180	10.0360
 0.5190	10.3770
 0.5200	10.7240
 0.5210	11.0650
 0.5220	11.4100
 0.5230	11.7530
 0.5240	12.0900
 0.5250	12.4270
 0.5260	12.7550
 0.5270	13.0610
 0.5280	13.3410
 0.5290	13.6080
 0.5300	13.8610
 0.5310	14.1000
 0.5320	14.3200
 0.5330	14.5260
 0.5340	14.7140
 0.5350	14.8800
 0.5360	15.0390
 0.5370	15.1820
 0.5380	15.3100
 0.5390	15.4270
 0.5400	15.5500
 0.5410	15.6710
 0.5420	15.7820
 0.5430	15.8830
 0.5440	15.9800
 0.5450	16.0680
 0.5460	16.1390
 0.5470	16.1910
 0.5480	16.2360
 0.5490	16.2830
 0.5500	16.3290
 0.5510	16.3640
 0.5520	16.3830
 0.5530	16.3830
 0.5540	16.3680
 0.5550	16.3420
 0.5560	16.3030
 0.5570	16.2450
 0.5580	16.1710
 0.5590	16.0870
 0.5600	15.9930
 0.5610	15.8820
 0.5620	15.7610
 0.5630	15.6310
 0.5640	15.4940
 0.5650	15.3430
 0.5660	15.1790
 0.5670	15.0060
 0.5680	14.8330
 0.5690	14.6560
 0.5700	14.4750
 0.5710	14.2900
 0.5720	14.1030
 0.5730	13.9170
 0.5740	13.7420
 0.5750	13.5940
 0.5760	13.4560
 0.5770	13.3220
 0.5780	13.1890
 0.5790	13.0650
 0.5800	12.9430
 0.5810	12.8230
 0.5820	12.7110
 0.5830	12.6060
 0.5840	12.5100
 0.5850	12.4210
 0.5860	12.3390
 0.5870	12.2560
 0.5880	12.1720
 0.5890	12.0920
 0.5900	12.0260
 0.5910	11.9830
 0.5920	11.9540
 0.5930	11.9220
 0.5940	11.8860
 0.5950	11.8450
 0.5960	11.8020
 0.5970	11.7680
 0.5980	11.7330
 0.5990	11.6970
 0.6000	11.6580
 0.6010	11.6100
 0.6020	11.5560
 0.6030	11.4930
 0.6040	11.4150
 0.6050	11.3280
 0.6060	11.2330
 0.6070	11.1310
 0.6080	11.0220
 0.6090	10.9080
 0.6100	10.7960
 0.6110	10.6910
 0.6120	10.5690
 0.6130	10.4370
 0.6140	10.3090
 0.6150	10.1910
 0.6160	10.0790
 0.6170	 9.9720
 0.6180	 9.8750
 0.6190	 9.7940
 0.6200	 9.7210
 0.6210	 9.6530
 0.6220	 9.5920
 0.6230	 9.5360
 0.6240	 9.4890
 0.6250	 9.4550
 0.6260	 9.4250
 0.6270	 9.4010
 0.6280	 9.3820
 0.6290	 9.3690
 0.6300	 9.3630
 0.6310	 9.3530
 0.6320	 9.3360
 0.6330	 9.3150
 0.6340	 9.2870
 0.6350	 9.2500
 0.6360	 9.2030
 0.6370	 9.1460
 0.6380	 9.0770
 0.6390	 8.9940
 0.6400	 8.8990
 0.6410	 8.7930
 0.6420	 8.6810
 0.6430	 8.5630
 0.6440	 8.4420
 0.6450	 8.3130
 0.6460	 8.1840
 0.6470	 8.0600
 0.6480	 7.9390
 0.6490	 7.8220
 0.6500	 7.7130
 0.6510	 7.6110
 0.6520	 7.5190
 0.6530	 7.4290
 0.6540	 7.3350
 0.6550	 7.2360
 0.6560	 7.1280
 0.6570	 7.0140
 0.6580	 6.8980
 0.6590	 6.7670
 0.6600	 6.6340
 0.6610	 6.5060
 0.6620	 6.3810
 0.6630	 6.2630
 0.6640	 6.1550
 0.6650	 6.0600
 0.6660	 5.9720
 0.6670	 5.8990
 0.6680	 5.8410
 0.6690	 5.7940
 0.6700	 5.7540
 0.6710	 5.7250
 0.6720	 5.7060
 0.6730	 5.6930
 0.6740	 5.6920
 0.6750	 5.6980
 0.6760	 5.7110
 0.6770	 5.7340
 0.6780	 5.7630
 0.6790	 5.8000
 0.6800	 5.8480
 0.6810	 5.9100
 0.6820	 5.9890
 0.6830	 6.0900
 0.6840	 6.2180
 0.6850	 6.3800
 0.6860	 6.5820
 0.6870	 6.8280
 0.6880	 7.1320
 0.6890	 7.4980
 0.6900	 7.9340
 0.6910	 8.4440
 0.6920	 9.0270
 0.6930	 9.6860
 0.6940	10.4160
 0.6950	11.2070
 0.6960	12.0600
 0.6970	12.9660
 0.6980	13.9120
 0.6990	14.8940
 0.7000	15.9010
 0.7010	16.9220
 0.7020	17.9440
 0.7030	18.9620
 0.7040	19.9670
 0.7050	20.9500
 0.7060	21.9140
 0.7070	22.8520
 0.7080	23.7620
 0.7090	24.6470
 0.7100	25.4990
 0.7110	26.3250
 0.7120	27.1280
 0.7130	27.9010
 0.7140	28.6410
 0.7150	29.3530
 0.7160	30.0400
 0.7170	30.6960
 0.7180	31.3260
 0.7190	31.9280
 0.7200	32.4970
 0.7210	33.0450
 0.7220	33.5660
 0.7230	34.0600
 0.7240	34.5280
 0.7250	34.9630
 0.7260	35.3720
 0.7270	35.7630
 0.7280	36.1310
 0.7290	36.4700
 0.7300	36.7860
 0.7310	37.0880
 0.7320	37.3740
 0.7330	37.6350
 0.7340	37.8710
 0.7350	38.0930
 0.7360	38.3020
 0.7370	38.4940
 0.7380	38.6680
 0.7390	38.8420
 0.7400	39.0070
 0.7410	39.1570
 0.7420	39.2860
 0.7430	39.4040
 0.7440	39.5260
 0.7450	39.6450
 0.7460	39.7410
 0.7470	39.8240
 0.7480	39.9040
 0.7490	39.9840
 0.7500	40.0470
 0.7510	40.1070
 0.7520	40.1660
 0.7530	40.2220
 0.7540	40.2670
 0.7550	40.3070
 0.7560	40.3450
 0.7570	40.3780
 0.7580	40.4120
 0.7590	40.4470
 0.7600	40.4790
 0.7610	40.5090
 0.7620	40.5310
 0.7630	40.5530
 0.7640	40.5830
 0.7650	40.6080
 0.7660	40.6160
 0.7670	40.6220
 0.7680	40.6530
 0.7690	40.6740
 0.7700	40.6860
 0.7710	40.6950
 0.7720	40.7070
 0.7730	40.7270
 0.7740	40.7460
 0.7750	40.7590
 0.7760	40.7710
 0.7770	40.7880
 0.7780	40.8050
 0.7790	40.8120
 0.7800	40.8250
 0.7810	40.8400
 0.7820	40.8560
 0.7830	40.8770
 0.7840	40.8890
 0.7850	40.8980
 0.7860	40.9120
 0.7870	40.9400
 0.7880	40.9510
 0.7890	40.9530
 0.7900	40.9620
 0.7910	40.9740
 0.7920	40.9870
 0.7930	41.0020
 0.7940	41.0190
 0.7950	41.0300
 0.7960	41.0330
 0.7970	41.0330
 0.7980	41.0470
 0.7990	41.0600
 0.8000	41.0650
 0.8010	41.0640
 0.8020	41.0730
 0.8030	41.0770
 0.8040	41.0800
 0.8050	41.0900
 0.8060	41.0880
 0.8070	41.0920
 0.8080	41.1000
 0.8090	41.0930
 0.8100	41.0890
 0.8110	41.0880
 0.8120	41.0860
 0.8130	41.0870
 0.8140	41.0820
 0.8150	41.0770
 0.8160	41.0750
 0.8170	41.0680
 0.8180	41.0580
 0.8190	41.0510
 0.8200	41.0500
 0.8210	41.0420
 0.8220	41.0320
 0.8230	41.0270
 0.8240	41.0310
 0.8250	41.0150
 0.8260	40.9910
 0.8270	40.9750
 0.8280	40.9730
 0.8290	40.9660
 0.8300	40.9560
 0.8310	40.9480
 0.8320	40.9330
 0.8330	40.9190
 0.8340	40.9080
 0.8350	40.9010
 0.8360	40.8940
 0.8370	40.8870
 0.8380	40.8810
 0.8390	40.8790
 0.8400	40.8680
 0.8410	40.8590
 0.8420	40.8610
 0.8430	40.8730
 0.8440	40.8600
 0.8450	40.8490
 0.8460	40.8630
 0.8470	40.8600
 0.8480	40.8550
 0.8490	40.8540
 0.8500	40.8580
 0.8510	40.8630
 0.8520	40.8630
 0.8530	40.8620
 0.8540	40.8670
 0.8550	40.8720
 0.8560	40.8770
 0.8570	40.8830
 0.8580	40.8840
 0.8590	40.8940
 0.8600	40.8980
 0.8610	40.8920
 0.8620	40.9020
 0.8630	40.9090
 0.8640	40.9130
 0.8650	40.9180
 0.8660	40.9350
 0.8670	40.9520
 0.8680	40.9580
 0.8690	40.9500
 0.8700	40.9680
 0.8710	40.9850
 0.8720	40.9950
 0.8730	41.0080
 0.8740	41.0340
 0.8750	41.0510
 0.8760	41.0590
 0.8770	41.0720
 0.8780	41.0880
 0.8790	41.1020
 0.8800	41.1150
 0.8810	41.1300
 0.8820	41.1420
 0.8830	41.1630
 0.8840	41.1930
 0.8850	41.2010
 0.8860	41.2120
 0.8870	41.2330
 0.8880	41.2600
 0.8890	41.2660
 0.8900	41.2880
 0.8910	41.3150
 0.8920	41.3260
 0.8930	41.3480
 0.8940	41.3750
 0.8950	41.3960
 0.8960	41.4000
 0.8970	41.4210
 0.8980	41.4460
 0.8990	41.4650
 0.9000	41.4840
 0.9010	41.5020
 0.9020	41.5140
 0.9030	41.5260
 0.9040	41.5570
 0.9050	41.5760
 0.9060	41.5900
 0.9070	41.6080
 0.9080	41.6210
 0.9090	41.6450
 0.9100	41.6680
 0.9110	41.6790
 0.9120	41.6820
 0.9130	41.6830
 0.9140	41.6960
 0.9150	41.7290
 0.9160	41.7360
 0.9170	41.7480
 0.9180	41.7650
 0.9190	41.7770
 0.9200	41.7890
 0.9210	41.7960
 0.9220	41.7960
 0.9230	41.7920
 0.9240	41.7860
 0.9250	41.7900
 0.9260	41.7950
 0.9270	41.7800
 0.9280	41.7650
 0.9290	41.7520
 0.9300	41.7440
 0.9310	41.7430
 0.9320	41.7290
 0.9330	41.7100
 0.9340	41.6880
 0.9350	41.6530
 0.9360	41.6350
 0.9370	41.6190
 0.9380	41.5890
 0.9390	41.5520
 0.9400	41.5270
 0.9410	41.5060
 0.9420	41.4780
 0.9430	41.4390
 0.9440	41.4020
 0.9450	41.3590
 0.9460	41.3050
 0.9470	41.2480
 0.9480	41.1910
 0.9490	41.1340
 0.9500	41.0720
 0.9510	40.9850
 0.9520	40.9000
 0.9530	40.8180
 0.9540	40.7390
 0.9550	40.6750
 0.9560	40.6040
 0.9570	40.5350
 0.9580	40.4790
 0.9590	40.4010
 0.9600	40.3650
 0.9610	40.3370
 0.9620	40.2730
 0.9630	40.2260
 0.9640	40.2100
 0.9650	40.2040
 0.9660	40.1820
 0.9670	40.1730
 0.9680	40.1680
 0.9690	40.1620
 0.9700	40.1530
 0.9710	40.1410
 0.9720	40.1430
 0.9730	40.1510
 0.9740	40.1530
 0.9750	40.1610
 0.9760	40.1750
 0.9770	40.1820
 0.9780	40.1760
 0.9790	40.1870
 0.9800	40.2050
 0.9810	40.2210
 0.9820	40.2310
 0.9830	40.2530
 0.9840	40.2690
 0.9850	40.2930
 0.9860	40.3380
 0.9870	40.3550
 0.9880	40.3730
 0.9890	40.3990
 0.9900	40.4300
 0.9910	40.4600
 0.9920	40.5420
 0.9930	40.6230
 0.9940	40.7050
 0.9950	40.7860
 0.9960	40.8680
 0.9970	40.9490
 0.9980	41.0310
 0.9990	41.1120
 1.0000	41.1940
 1.0010	41.2750
 1.0020	41.3570
 1.0030	41.4380
 1.0040	41.5200
 1.0050	41.6010
 1.0060	41.6830
 1.0070	41.7640
 1.0080	41.8460
 1.0090	41.9270
 1.0100	41.9270
 1.0110	41.9510
 1.0120	41.9750
 1.0130	41.9980
 1.0140	42.0210
 1.0150	42.0430
 1.0160	42.0690
 1.0170	42.0960
 1.0180	42.1210
 1.0190	42.1530
 1.0200	42.1820
 1.0210	42.2060
 1.0220	42.2300
 1.0230	42.2540
 1.0240	42.2760
 1.0250	42.2980
 1.0260	42.3210
 1.0270	42.3420
 1.0280	42.3580
 1.0290	42.3790
 1.0300	42.4020
 1.0310	42.4250
 1.0320	42.4510
 1.0330	42.4740
 1.0340	42.4900
 1.0350	42.5080
 1.0360	42.5260
 1.0370	42.5440
 1.0380	42.5670
 1.0390	42.5970
 1.0400	42.6170
 1.0410	42.6340
 1.0420	42.6530
 1.0430	42.6700
 1.0440	42.6860
 1.0450	42.7050
 1.0460	42.7190
 1.0470	42.7230
 1.0480	42.7350
 1.0490	42.7530
 1.0500	42.7660
 1.0510	42.7810
 1.0520	42.7960
 1.0530	42.8080
 1.0540	42.8170
 1.0550	42.8260
 1.0560	42.8380
 1.0570	42.8440
 1.0580	42.8460
 1.0590	42.8480
 1.0600	42.8450
 1.0610	42.8450
 1.0620	42.8460
 1.0630	42.8470
 1.0640	42.8520
 1.0650	42.8520
 1.0660	42.8460
 1.0670	42.8450
 1.0680	42.8440
 1.0690	42.8430
 1.0700	42.8400
 1.0710	42.8400
 1.0720	42.8330
 1.0730	42.8200
 1.0740	42.8110
 1.0750	42.8020
 1.0760	42.7940
 1.0770	42.7860
 1.0780	42.7780
 1.0790	42.7700
 1.0800	42.7620
 1.0810	42.7530
 1.0820	42.7430
 1.0830	42.7310
 1.0840	42.7200
 1.0850	42.7100
 1.0860	42.6960
 1.0870	42.6820
 1.0880	42.6670
 1.0890	42.6520
 1.0900	42.6330
 1.0910	42.6170
 1.0920	42.6030
 1.0930	42.5860
 1.0940	42.5680
 1.0950	42.5490
 1.0960	42.5260
 1.0970	42.5070
 1.0980	42.4900
 1.0990	42.4720
 1.1000	42.4540
 1.1010	42.4370
 1.1020	42.4170
 1.1030	42.4000
 1.1040	42.3850
 1.1050	42.3690
 1.1060	42.3520
 1.1070	42.3330
 1.1080	42.3160
 1.1090	42.2990
 1.1100	42.2820
 1.1110	42.2690
 1.1120	42.2490
 1.1130	42.2270
 1.1140	42.2050
 1.1150	42.1800
 1.1160	42.1540
 1.1170	42.1300
 1.1180	42.1000
 1.1190	42.0680
 1.1200	42.0320
 1.1210	41.9910
 1.1220	41.9470
 1.1230	41.8950
 1.1240	41.8400
 1.1250	41.7780
 1.1260	41.7110
 1.1270	41.6360
 1.1280	41.5560
 1.1290	41.4670
 1.1300	41.3720
 1.1310	41.2640
 1.1320	41.1480
 1.1330	41.0220
 1.1340	40.8850
 1.1350	40.7410
 1.1360	40.5910
 1.1370	40.4310
 1.1380	40.2630
 1.1390	40.0900
 1.1400	39.9080
 1.1410	39.7240
 1.1420	39.5390
 1.1430	39.3540
 1.1440	39.1720
 1.1450	38.9880
 1.1460	38.8140
 1.1470	38.6420
 1.1480	38.4830
 1.1490	38.3320
 1.1500	38.1920
 1.1510	38.0590
 1.1520	37.9410
 1.1530	37.8360
 1.1540	37.7410
 1.1550	37.6590
 1.1560	37.5870
 1.1570	37.5230
 1.1580	37.4700
 1.1590	37.4240
 1.1600	37.3860
 1.1610	37.3530
 1.1620	37.3240
 1.1630	37.3030
 1.1640	37.2870
 1.1650	37.2720
 1.1660	37.2640
 1.1670	37.2560
 1.1680	37.2500
 1.1690	37.2430
 1.1700	37.2390
 1.1710	37.2340
 1.1720	37.2290
 1.1730	37.2240
 1.1740	37.2200
 1.1750	37.2150
 1.1760	37.2100
 1.1770	37.2030
 1.1780	37.1940
 1.1790	37.1840
 1.1800	37.1750
 1.1810	37.1650
 1.1820	37.1570
 1.1830	37.1490
 1.1840	37.1380
 1.1850	37.1270
 1.1860	37.1170
 1.1870	37.1060
 1.1880	37.0970
 1.1890	37.0900
 1.1900	37.0850
 1.1910	37.0810
 1.1920	37.0800
 1.1930	37.0800
 1.1940	37.0830
 1.1950	37.0880
 1.1960	37.0960
 1.1970	37.1050
 1.1980	37.1170
 1.1990	37.1300
 1.2000	37.1420
 1.2010	37.1580
 1.2020	37.1740
 1.2030	37.1920
 1.2040	37.2120
 1.2050	37.2330
 1.2060	37.2530
 1.2070	37.2730
 1.2080	37.2960
 1.2090	37.3220
 1.2100	37.3480
 1.2110	37.3750
 1.2120	37.4050
 1.2130	37.4340
 1.2140	37.4630
 1.2150	37.4930
 1.2160	37.5240
 1.2170	37.5540
 1.2180	37.5830
 1.2190	37.6130
 1.2200	37.6440
 1.2210	37.6740
 1.2220	37.7040
 1.2230	37.7330
 1.2240	37.7630
 1.2250	37.7920
 1.2260	37.8190
 1.2270	37.8460
 1.2280	37.8710
 1.2290	37.8970
 1.2300	37.9240
 1.2310	37.9510
 1.2320	37.9760
 1.2330	37.9970
 1.2340	38.0190
 1.2350	38.0400
 1.2360	38.0610
 1.2370	38.0810
 1.2380	38.1040
 1.2390	38.1250
 1.2400	38.1450
 1.2410	38.1650
 1.2420	38.1830
 1.2430	38.2000
 1.2440	38.2150
 1.2450	38.2290
 1.2460	38.2440
 1.2470	38.2590
 1.2480	38.2720
 1.2490	38.2840
 1.2500	38.2970
 1.2510	38.3080
 1.2520	38.3190
 1.2530	38.3300
 1.2540	38.3370
 1.2550	38.3440
 1.2560	38.3500
 1.2570	38.3530
 1.2580	38.3570
 1.2590	38.3580
 1.2600	38.3560
 1.2610	38.3550
 1.2620	38.3550
 1.2630	38.3530
 1.2640	38.3490
 1.2650	38.3440
 1.2660	38.3390
 1.2670	38.3310
 1.2680	38.3230
 1.2690	38.3160
 1.2700	38.3050
 1.2710	38.2940
 1.2720	38.2810
 1.2730	38.2670
 1.2740	38.2530
 1.2750	38.2390
 1.2760	38.2220
 1.2770	38.2020
 1.2780	38.1810
 1.2790	38.1570
 1.2800	38.1330
 1.2810	38.1090
 1.2820	38.0820
 1.2830	38.0530
 1.2840	38.0210
 1.2850	37.9870
 1.2860	37.9490
 1.2870	37.9080
 1.2880	37.8640
 1.2890	37.8190
 1.2900	37.7690
 1.2910	37.7180
 1.2920	37.6660
 1.2930	37.6100
 1.2940	37.5510
 1.2950	37.4900
 1.2960	37.4230
 1.2970	37.3510
 1.2980	37.2760
 1.2990	37.2000
 1.3000	37.1240
 1.3010	37.0460
 1.3020	36.9630
 1.3030	36.8760
 1.3040	36.7840
 1.3050	36.6910
 1.3060	36.5950
 1.3070	36.4980
 1.3080	36.3980
 1.3090	36.2940
 1.3100	36.1870
 1.3110	36.0760
 1.3120	35.9620
 1.3130	35.8450
 1.3140	35.7250
 1.3150	35.6020
 1.3160	35.4760
 1.3170	35.3470
 1.3180	35.2150
 1.3190	35.0820
 1.3200	34.9460
 1.3210	34.8060
 1.3220	34.6640
 1.3230	34.5200
 1.3240	34.3720
 1.3250	34.2260
 1.3260	34.0770
 1.3270	33.9250
 1.3280	33.7710
 1.3290	33.6120
 1.3300	33.4540
 1.3310	33.2970
 1.3320	33.1390
 1.3330	32.9810
 1.3340	32.8240
 1.3350	32.6650
 1.3360	32.5070
 1.3370	32.3470
 1.3380	32.1890
 1.3390	32.0310
 1.3400	31.8730
 1.3410	31.7170
 1.3420	31.5630
 1.3430	31.4120
 1.3440	31.2610
 1.3450	31.1130
 1.3460	30.9660
 1.3470	30.8210
 1.3480	30.6750
 1.3490	30.5320
 1.3500	30.3910
 1.3510	30.2500
 1.3520	30.1090
 1.3530	29.9690
 1.3540	29.8270
 1.3550	29.6830
 1.3560	29.5390
 1.3570	29.3930
 1.3580	29.2450
 1.3590	29.0930
 1.3600	28.9370
 1.3610	28.7750
 1.3620	28.6050
 1.3630	28.4300
 1.3640	28.2490
 1.3650	28.0590
 1.3660	27.8610
 1.3670	27.6520
 1.3680	27.4290
 1.3690	27.1950
 1.3700	26.9450
 1.3710	26.6820
 1.3720	26.4050
 1.3730	26.1090
 1.3740	25.7980
 1.3750	25.4680
 1.3760	25.1160
 1.3770	24.7450
 1.3780	24.3500
 1.3790	23.9370
 1.3800	23.5060
 1.3810	23.0540
 1.3820	22.5910
 1.3830	22.1110
 1.3840	21.6220
 1.3850	21.1180
 1.3860	20.6100
 1.3870	20.0870
 1.3880	19.5710
 1.3890	19.0500
 1.3900	18.5290
 1.3910	18.0180
 1.3920	17.5120
 1.3930	17.0110
 1.3940	16.5220
 1.3950	16.0420
 1.3960	15.5780
 1.3970	15.1330
 1.3980	14.7050
 1.3990	14.3010
 1.4000	13.9170
 1.4010	13.5500
 1.4020	13.2070
 1.4030	12.8820
 1.4040	12.5790
 1.4050	12.2970
 1.4060	12.0350
 1.4070	11.7950
 1.4080	11.5730
 1.4090	11.3690
 1.4100	11.1820
 1.4110	11.0100
 1.4120	10.8520
 1.4130	10.7100
 1.4140	10.5800
 1.4150	10.4650
 1.4160	10.3610
 1.4170	10.2670
 1.4180	10.1830
 1.4190	10.1050
 1.4200	10.0350
 1.4210	 9.9730
 1.4220	 9.9190
 1.4230	 9.8720
 1.4240	 9.8300
 1.4250	 9.7920
 1.4260	 9.7600
 1.4270	 9.7310
 1.4280	 9.7080
 1.4290	 9.6880
 1.4300	 9.6710
 1.4310	 9.6580
 1.4320	 9.6480
 1.4330	 9.6410
 1.4340	 9.6370
 1.4350	 9.6350
 1.4360	 9.6360
 1.4370	 9.6390
 1.4380	 9.6430
 1.4390	 9.6500
 1.4400	 9.6580
 1.4410	 9.6680
 1.4420	 9.6800
 1.4430	 9.6920
 1.4440	 9.7040
 1.4450	 9.7180
 1.4460	 9.7330
 1.4470	 9.7490
 1.4480	 9.7660
 1.4490	 9.7830
 1.4500	 9.8010
 1.4510	 9.8190
 1.4520	 9.8400
 1.4530	 9.8610
 1.4540	 9.8830
 1.4550	 9.9080
 1.4560	 9.9330
 1.4570	 9.9590
 1.4580	 9.9900
 1.4590	10.0220
 1.4600	10.0570
 1.4610	10.0960
 1.4620	10.1380
 1.4630	10.1840
 1.4640	10.2330
 1.4650	10.2860
 1.4660	10.3420
 1.4670	10.4010
 1.4680	10.4650
 1.4690	10.5320
 1.4700	10.6020
 1.4710	10.6760
 1.4720	10.7530
 1.4730	10.8320
 1.4740	10.9130
 1.4750	10.9960
 1.4760	11.0830
 1.4770	11.1700
 1.4780	11.2600
 1.4790	11.3530
 1.4800	11.4460
 1.4810	11.5420
 1.4820	11.6390
 1.4830	11.7350
 1.4840	11.8340
 1.4850	11.9350
 1.4860	12.0360
 1.4870	12.1400
 1.4880	12.2430
 1.4890	12.3450
 1.4900	12.4490
 1.4910	12.5530
 1.4920	12.6590
 1.4930	12.7680
 1.4940	12.8760
 1.4950	12.9860
 1.4960	13.0960
 1.4970	13.2040
 1.4980	13.3150
 1.4990	13.4250
 1.5000	13.5370
 1.5010	13.6520
 1.5020	13.7640
 1.5030	13.8770
 1.5040	13.9900
 1.5050	14.1030
 1.5060	14.2170
 1.5070	14.3320
 1.5080	14.4470
 1.5090	14.5620
 1.5100	14.6770
 1.5110	14.7920
 1.5120	14.9070
 1.5130	15.0190
 1.5140	15.1330
 1.5150	15.2480
 1.5160	15.3610
 1.5170	15.4760
 1.5180	15.5900
 1.5190	15.7030
 1.5200	15.8170
 1.5210	15.9280
 1.5220	16.0400
 1.5230	16.1530
 1.5240	16.2640
 1.5250	16.3780
 1.5260	16.4890
 1.5270	16.5990
 1.5280	16.7110
 1.5290	16.8180
 1.5300	16.9250
 1.5310	17.0340
 1.5320	17.1410
 1.5330	17.2500
 1.5340	17.3570
 1.5350	17.4640
 1.5360	17.5700
 1.5370	17.6740
 1.5380	17.7800
 1.5390	17.8850
 1.5400	17.9880
 1.5410	18.0920
 1.5420	18.1950
 1.5430	18.2960
 1.5440	18.3980
 1.5450	18.4980
 1.5460	18.5970
 1.5470	18.6970
 1.5480	18.7940
 1.5490	18.8930
 1.5500	18.9900
 1.5510	19.0850
 1.5520	19.1820
 1.5530	19.2770
 1.5540	19.3700
 1.5550	19.4640
 1.5560	19.5560
 1.5570	19.6480
 1.5580	19.7390
 1.5590	19.8290
 1.5600	19.9170
 1.5610	20.0040
 1.5620	20.0910
 1.5630	20.1770
 1.5640	20.2630
 1.5650	20.3490
 1.5660	20.4330
 1.5670	20.5170
 1.5680	20.6000
 1.5690	20.6810
 1.5700	20.7610
 1.5710	20.8410
 1.5720	20.9200
 1.5730	21.0000
 1.5740	21.0800
 1.5750	21.1580
 1.5760	21.2350
 1.5770	21.3080
 1.5780	21.3820
 1.5790	21.4550
 1.5800	21.5270
 1.5810	21.6000
 1.5820	21.6700
 1.5830	21.7380
 1.5840	21.8070
 1.5850	21.8760
 1.5860	21.9440
 1.5870	22.0140
 1.5880	22.0820
 1.5890	22.1480
 1.5900	22.2140
 1.5910	22.2790
 1.5920	22.3440
 1.5930	22.4070
 1.5940	22.4700
 1.5950	22.5310
 1.5960	22.5910
 1.5970	22.6510
 1.5980	22.7090
 1.5990	22.7670
 1.6000	22.8240
 1.6010	22.8810
 1.6020	22.9350
 1.6030	22.9870
 1.6040	23.0380
 1.6050	23.0890
 1.6060	23.1400
 1.6070	23.1900
 1.6080	23.2370
 1.6090	23.2830
 1.6100	23.3290
 1.6110	23.3740
 1.6120	23.4190
 1.6130	23.4630
 1.6140	23.5060
 1.6150	23.5480
 1.6160	23.5890
 1.6170	23.6300
 1.6180	23.6690
 1.6190	23.7080
 1.6200	23.7470
 1.6210	23.7860
 1.6220	23.8260
 1.6230	23.8630
 1.6240	23.8980
 1.6250	23.9320
 1.6260	23.9650
 1.6270	23.9990
 1.6280	24.0330
 1.6290	24.0650
 1.6300	24.0930
 1.6310	24.1230
 1.6320	24.1530
 1.6330	24.1840
 1.6340	24.2170
 1.6350	24.2480
 1.6360	24.2790
 1.6370	24.3090
 1.6380	24.3370
 1.6390	24.3650
 1.6400	24.3940
 1.6410	24.4200
 1.6420	24.4460
 1.6430	24.4700
 1.6440	24.4930
 1.6450	24.5150
 1.6460	24.5360
 1.6470	24.5550
 1.6480	24.5710
 1.6490	24.5840
 1.6500	24.5970
 1.6510	24.6070
 1.6520	24.6150
 1.6530	24.6210
 1.6540	24.6240
 1.6550	24.6250
 1.6560	24.6260
 1.6570	24.6230
 1.6580	24.6180
 1.6590	24.6140
 1.6600	24.6080
 1.6610	24.6040
 1.6620	24.5990
 1.6630	24.5930
 1.6640	24.5870
 1.6650	24.5800
 1.6660	24.5700
 1.6670	24.5610
 1.6680	24.5500
 1.6690	24.5370
 1.6700	24.5240
 1.6710	24.5090
 1.6720	24.4910
 1.6730	24.4730
 1.6740	24.4520
 1.6750	24.4290
 1.6760	24.4050
 1.6770	24.3770
 1.6780	24.3470
 1.6790	24.3140
 1.6800	24.2760
 1.6810	24.2360
 1.6820	24.1950
 1.6830	24.1540
 1.6840	24.1110
 1.6850	24.0670
 1.6860	24.0240
 1.6870	23.9790
 1.6880	23.9330
 1.6890	23.8870
 1.6900	23.8410
 1.6910	23.7940
 1.6920	23.7480
 1.6930	23.7030
 1.6940	23.6570
 1.6950	23.6100
 1.6960	23.5640
 1.6970	23.5170
 1.6980	23.4700
 1.6990	23.4240
 1.7000	23.3780
 1.7010	23.3330
 1.7020	23.2870
 1.7030	23.2400
 1.7040	23.1930
 1.7050	23.1450
 1.7060	23.0970
 1.7070	23.0490
 1.7080	23.0010
 1.7090	22.9540
 1.7100	22.9060
 1.7110	22.8600
 1.7120	22.8130
 1.7130	22.7660
 1.7140	22.7190
 1.7150	22.6740
 1.7160	22.6290
 1.7170	22.5850
 1.7180	22.5420
 1.7190	22.5000
 1.7200	22.4560
 1.7210	22.4100
 1.7220	22.3630
 1.7230	22.3160
 1.7240	22.2720
 1.7250	22.2280
 1.7260	22.1850
 1.7270	22.1420
 1.7280	22.0960
 1.7290	22.0520
 1.7300	22.0100
 1.7310	21.9680
 1.7320	21.9270
 1.7330	21.8840
 1.7340	21.8400
 1.7350	21.7950
 1.7360	21.7490
 1.7370	21.7010
 1.7380	21.6510
 1.7390	21.5980
 1.7400	21.5420
 1.7410	21.4850
 1.7420	21.4250
 1.7430	21.3650
 1.7440	21.3040
 1.7450	21.2410
 1.7460	21.1780
 1.7470	21.1120
 1.7480	21.0410
 1.7490	20.9720
 1.7500	20.9030
 1.7510	20.8340
 1.7520	20.7650
 1.7530	20.6950
 1.7540	20.6250
 1.7550	20.5560
 1.7560	20.4860
 1.7570	20.4170
 1.7580	20.3490
 1.7590	20.2840
 1.7600	20.2190
 1.7610	20.1530
 1.7620	20.0900
 1.7630	20.0230
 1.7640	19.9610
 1.7650	19.9030
 1.7660	19.8480
 1.7670	19.7960
 1.7680	19.7450
 1.7690	19.6960
 1.7700	19.6480
 1.7710	19.6030
 1.7720	19.5570
 1.7730	19.5120
 1.7740	19.4700
 1.7750	19.4290
 1.7760	19.3900
 1.7770	19.3540
 1.7780	19.3180
 1.7790	19.2840
 1.7800	19.2510
 1.7810	19.2210
 1.7820	19.1910
 1.7830	19.1620
 1.7840	19.1340
 1.7850	19.1080
 1.7860	19.0860
 1.7870	19.0660
 1.7880	19.0470
 1.7890	19.0300
 1.7900	19.0100
 1.7910	18.9930
 1.7920	18.9770
 1.7930	18.9650
 1.7940	18.9580
 1.7950	18.9490
 1.7960	18.9410
 1.7970	18.9330
 1.7980	18.9240
 1.7990	18.9180
 1.8000	18.9160
 1.8010	18.9120
 1.8020	18.9090
 1.8030	18.9050
 1.8040	18.9000
 1.8050	18.8970
 1.8060	18.8960
 1.8070	18.8920
 1.8080	18.8870
 1.8090	18.8830
 1.8100	18.8790
 1.8110	18.8770
 1.8120	18.8750
 1.8130	18.8700
 1.8140	18.8610
 1.8150	18.8540
 1.8160	18.8470
 1.8170	18.8410
 1.8180	18.8340
 1.8190	18.8230
 1.8200	18.8120
 1.8210	18.7990
 1.8220	18.7850
 1.8230	18.7690
 1.8240	18.7530
 1.8250	18.7370
 1.8260	18.7170
 1.8270	18.7150
 1.8280	18.7130
 1.8290	18.7110
 1.8300	18.7090
 1.8310	18.7070
 1.8320	18.7050
 1.8330	18.7030
 1.8340	18.7000
 1.8350	18.7000
 1.8360	18.6450
 1.8370	18.5830
 1.8380	18.5160
 1.8390	18.4440
 1.8400	18.3670
 1.8410	18.2830
 1.8420	18.1950
 1.8430	18.0990
 1.8440	17.9970
 1.8450	17.8850
 1.8460	17.7700
 1.8470	17.6500
 1.8480	17.5180
 1.8490	17.3770
 1.8500	17.2260
 1.8510	17.0670
 1.8520	16.8960
 1.8530	16.7150
 1.8540	16.5280
 1.8550	16.3270
 1.8560	16.1150
 1.8570	15.8900
 1.8580	15.6520
 1.8590	15.4070
 1.8600	15.1520
 1.8610	14.8860
 1.8620	14.6080
 1.8630	14.3230
 1.8640	14.0250
 1.8650	13.7130
 1.8660	13.3920
 1.8670	13.0600
 1.8680	12.7210
 1.8690	12.3750
 1.8700	12.0210
 1.8710	11.6590
 1.8720	11.2960
 1.8730	10.9300
 1.8740	10.5650
 1.8750	10.2080
 1.8760	 9.8510
 1.8770	 9.5000
 1.8780	 9.1570
 1.8790	 8.8200
 1.8800	 8.4970
 1.8810	 8.1850
 1.8820	 7.8820
 1.8830	 7.5900
 1.8840	 7.3140
 1.8850	 7.0470
 1.8860	 6.7950
 1.8870	 6.5580
 1.8880	 6.3340
 1.8890	 6.1280
 1.8900	 5.9350
 1.8910	 5.7560
 1.8920	 5.5910
 1.8930	 5.4390
 1.8940	 5.2990
 1.8950	 5.1740
 1.8960	 5.0600
 1.8970	 4.9580
 1.8980	 4.8690
 1.8990	 4.7900
 1.9000	 4.7160
 1.9010	 4.6550
 1.9020	 4.5960
 1.9030	 4.5430
 1.9040	 4.4950
 1.9050	 4.4550
 1.9060	 4.4200
 1.9070	 4.3890
 1.9080	 4.3640
 1.9090	 4.3410
 1.9100	 4.3180
 1.9110	 4.2990
 1.9120	 4.2860
 1.9130	 4.2710
 1.9140	 4.2550
 1.9150	 4.2460
 1.9160	 4.2410
 1.9170	 4.2340
 1.9180	 4.2310
 1.9190	 4.2280
 1.9200	 4.2210
 1.9210	 4.2170
 1.9220	 4.2150
 1.9230	 4.2140
 1.9240	 4.2140
 1.9250	 4.2160
 1.9260	 4.2160
 1.9270	 4.2190
 1.9280	 4.2230
 1.9290	 4.2240
 1.9300	 4.2290
 1.9310	 4.2340
 1.9320	 4.2370
 1.9330	 4.2430
 1.9340	 4.2520
 1.9350	 4.2590
 1.9360	 4.2660
 1.9370	 4.2750
 1.9380	 4.2840
 1.9390	 4.2940
 1.9400	 4.3050
 1.9410	 4.3150
 1.9420	 4.3280
 1.9430	 4.3400
 1.9440	 4.3520
 1.9450	 4.3650
 1.9460	 4.3790
 1.9470	 4.3910
 1.9480	 4.4050
 1.9490	 4.4220
 1.9500	 4.4380
 1.9510	 4.4510
 1.9520	 4.4660
 1.9530	 4.4810
 1.9540	 4.4940
 1.9550	 4.5090
 1.9560	 4.5250
 1.9570	 4.5420
 1.9580	 4.5610
 1.9590	 4.5800
 1.9600	 4.5990
 1.9610	 4.6200
 1.9620	 4.6420
 1.9630	 4.6640
 1.9640	 4.6870
 1.9650	 4.7110
 1.9660	 4.7320
 1.9670	 4.7530
 1.9680	 4.7750
 1.9690	 4.7980
 1.9700	 4.8220
 1.9710	 4.8470
 1.9720	 4.8700
 1.9730	 4.8930
 1.9740	 4.9180
 1.9750	 4.9420
 1.9760	 4.9690
 1.9770	 4.9980
 1.9780	 5.0250
 1.9790	 5.0510
 1.9800	 5.0770
 1.9810	 5.1040
 1.9820	 5.1300
 1.9830	 5.1580
 1.9840	 5.1890
 1.9850	 5.2200
 1.9860	 5.2500
 1.9870	 5.2810
 1.9880	 5.3130
 1.9890	 5.3440
 1.9900	 5.3780
 1.9910	 5.4130
 1.9920	 5.4470
 1.9930	 5.4820
 1.9940	 5.5160
 1.9950	 5.5500
 1.9960	 5.5860
 1.9970	 5.6250
 1.9980	 5.6600
 1.9990	 5.6960
 2.0000	 5.7310
 2.0010	 5.7630
 2.0020	 5.7990
 2.0030	 5.8330
 2.0040	 5.8690
 2.0050	 5.9060
 2.0060	 5.9420
 2.0070	 5.9790
 2.0080	 6.0200
 2.0090	 6.0570
 2.0100	 6.0940
 2.0110	 6.1310
 2.0120	 6.1670
 2.0130	 6.2020
 2.0140	 6.2400
 2.0150	 6.2780
 2.0160	 6.3170
 2.0170	 6.3570
 2.0180	 6.3970
 2.0190	 6.4390
 2.0200	 6.4790
 2.0210	 6.5190
 2.0220	 6.5570
 2.0230	 6.5950
 2.0240	 6.6320
 2.0250	 6.6690
 2.0260	 6.7060
 2.0270	 6.7410
 2.0280	 6.7770
 2.0290	 6.8120
 2.0300	 6.8480
 2.0310	 6.8850
 2.0320	 6.9250
 2.0330	 6.9630
 2.0340	 7.0010
 2.0350	 7.0390
 2.0360	 7.0770
 2.0370	 7.1140
 2.0380	 7.1520
 2.0390	 7.1890
 2.0400	 7.2230
 2.0410	 7.2580
 2.0420	 7.2910
 2.0430	 7.3270
 2.0440	 7.3630
 2.0450	 7.4000
 2.0460	 7.4360
 2.0470	 7.4730
 2.0480	 7.5100
 2.0490	 7.5460
 2.0500	 7.5830
 2.0510	 7.6250
 2.0520	 7.6620
 2.0530	 7.6970
 2.0540	 7.7330
 2.0550	 7.7680
 2.0560	 7.8010
 2.0570	 7.8390
 2.0580	 7.8790
 2.0590	 7.9180
 2.0600	 7.9590
 2.0610	 7.9970
 2.0620	 8.0330
 2.0630	 8.0720
 2.0640	 8.1100
 2.0650	 8.1490
 2.0660	 8.1920
 2.0670	 8.2320
 2.0680	 8.2730
 2.0690	 8.3110
 2.0700	 8.3460
 2.0710	 8.3840
 2.0720	 8.4220
 2.0730	 8.4590
 2.0740	 8.4980
 2.0750	 8.5410
 2.0760	 8.5810
 2.0770	 8.6190
 2.0780	 8.6590
 2.0790	 8.7010
 2.0800	 8.7410
 2.0810	 8.7810
 2.0820	 8.8200
 2.0830	 8.8580
 2.0840	 8.8960
 2.0850	 8.9350
 2.0860	 8.9730
 2.0870	 9.0080
 2.0880	 9.0460
 2.0890	 9.0850
 2.0900	 9.1240
 2.0910	 9.1630
 2.0920	 9.2020
 2.0930	 9.2410
 2.0940	 9.2800
 2.0950	 9.3180
 2.0960	 9.3540
 2.0970	 9.3910
 2.0980	 9.4280
 2.0990	 9.4660
 2.1000	 9.5070
 2.1010	 9.5450
 2.1020	 9.5790
 2.1030	 9.6140
 2.1040	 9.6470
 2.1050	 9.6810
 2.1060	 9.7160
 2.1070	 9.7510
 2.1080	 9.7880
 2.1090	 9.8260
 2.1100	 9.8620
 2.1110	 9.8970
 2.1120	 9.9320
 2.1130	 9.9660
 2.1140	10.0000
 2.1150	10.0330
 2.1160	10.0660
 2.1170	10.0980
 2.1180	10.1310
 2.1190	10.1630
 2.1200	10.1940
 2.1210	10.2260
 2.1220	10.2560
 2.1230	10.2850
 2.1240	10.3110
 2.1250	10.3410
 2.1260	10.3720
 2.1270	10.3990
 2.1280	10.4280
 2.1290	10.4540
 2.1300	10.4730
 2.1310	10.4970
 2.1320	10.5220
 2.1330	10.5470
 2.1340	10.5750
 2.1350	10.5990
 2.1360	10.6230
 2.1370	10.6440
 2.1380	10.6590
 2.1390	10.6780
 2.1400	10.6990
 2.1410	10.7170
 2.1420	10.7370
 2.1430	10.7600
 2.1440	10.7810
 2.1450	10.7990
 2.1460	10.8180
 2.1470	10.8360
 2.1480	10.8540
 2.1490	10.8720
 2.1500	10.8900
 2.1510	10.9100
 2.1520	10.9290
 2.1530	10.9470
 2.1540	10.9650
 2.1550	10.9850
 2.1560	11.0020
 2.1570	11.0160
 2.1580	11.0300
 2.1590	11.0450
 2.1600	11.0550
 2.1610	11.0680
 2.1620	11.0830
 2.1630	11.0950
 2.1640	11.1060
 2.1650	11.1170
 2.1660	11.1270
 2.1670	11.1380
 2.1680	11.1510
 2.1690	11.1630
 2.1700	11.1770
 2.1710	11.1870
 2.1720	11.1960
 2.1730	11.2060
 2.1740	11.2130
 2.1750	11.2220
 2.1760	11.2300
 2.1770	11.2400
 2.1780	11.2520
 2.1790	11.2630
 2.1800	11.2770
 2.1810	11.2890
 2.1820	11.2980
 2.1830	11.3070
 2.1840	11.3150
 2.1850	11.3200
 2.1860	11.3300
 2.1870	11.3400
 2.1880	11.3490
 2.1890	11.3600
 2.1900	11.3690
 2.1910	11.3750
 2.1920	11.3810
 2.1930	11.3890
 2.1940	11.3940
 2.1950	11.3990
 2.1960	11.4030
 2.1970	11.4060
 2.1980	11.4090
 2.1990	11.4090
 2.2000	11.4130
 2.2010	11.4210
 2.2020	11.4250
 2.2030	11.4290
 2.2040	11.4290
 2.2050	11.4240
 2.2060	11.4150
 2.2070	11.4070
 2.2080	11.3970
 2.2090	11.3900
 2.2100	11.3850
 2.2110	11.3780
 2.2120	11.3710
 2.2130	11.3650
 2.2140	11.3580
 2.2150	11.3510
 2.2160	11.3480
 2.2170	11.3390
 2.2180	11.3240
 2.2190	11.3130
 2.2200	11.3040
 2.2210	11.2920
 2.2220	11.2840
 2.2230	11.2710
 2.2240	11.2510
 2.2250	11.2350
 2.2260	11.2230
 2.2270	11.2060
 2.2280	11.1910
 2.2290	11.1710
 2.2300	11.1480
 2.2310	11.1190
 2.2320	11.0910
 2.2330	11.0570
 2.2340	11.0240
 2.2350	10.9890
 2.2360	10.9550
 2.2370	10.9210
 2.2380	10.8890
 2.2390	10.8580
 2.2400	10.8230
 2.2410	10.7840
 2.2420	10.7490
 2.2430	10.7120
 2.2440	10.6770
 2.2450	10.6450
 2.2460	10.6110
 2.2470	10.5740
 2.2480	10.5400
 2.2490	10.5060
 2.2500	10.4720
 2.2510	10.4410
 2.2520	10.4060
 2.2530	10.3730
 2.2540	10.3360
 2.2550	10.2960
 2.2560	10.2550
 2.2570	10.2120
 2.2580	10.1700
 2.2590	10.1270
 2.2600	10.0830
 2.2610	10.0380
 2.2620	 9.9950
 2.2630	 9.9500
 2.2640	 9.9040
 2.2650	 9.8590
 2.2660	 9.8130
 2.2670	 9.7700
 2.2680	 9.7280
 2.2690	 9.6870
 2.2700	 9.6470
 2.2710	 9.6070
 2.2720	 9.5680
 2.2730	 9.5290
 2.2740	 9.4890
 2.2750	 9.4520
 2.2760	 9.4180
 2.2770	 9.3810
 2.2780	 9.3440
 2.2790	 9.3090
 2.2800	 9.2720
 2.2810	 9.2360
 2.2820	 9.2050
 2.2830	 9.1710
 2.2840	 9.1320
 2.2850	 9.0970
 2.2860	 9.0640
 2.2870	 9.0300
 2.2880	 8.9960
 2.2890	 8.9650
 2.2900	 8.9360
 2.2910	 8.9020
 2.2920	 8.8680
 2.2930	 8.8320
 2.2940	 8.7900
 2.2950	 8.7520
 2.2960	 8.7170
 2.2970	 8.6830
 2.2980	 8.6500
 2.2990	 8.6150
 2.3000	 8.5760
 2.3010	 8.5420
 2.3020	 8.5080
 2.3030	 8.4790
 2.3040	 8.4550
 2.3050	 8.4310
 2.3060	 8.4090
 2.3070	 8.3860
 2.3080	 8.3630
 2.3090	 8.3470
 2.3100	 8.3250
 2.3110	 8.3050
 2.3120	 8.2890
 2.3130	 8.2750
 2.3140	 8.2570
 2.3150	 8.2420
 2.3160	 8.2250
 2.3170	 8.2060
 2.3180	 8.1850
 2.3190	 8.1620
 2.3200	 8.1420
 2.3210	 8.1200
 2.3220	 8.0970
 2.3230	 8.0800
 2.3240	 8.0550
 2.3250	 8.0210
 2.3260	 7.9940
 2.3270	 7.9700
 2.3280	 7.9400
 2.3290	 7.9090
 2.3300	 7.8800
 2.3310	 7.8480
 2.3320	 7.8190
 2.3330	 7.7960
 2.3340	 7.7690
 2.3350	 7.7390
 2.3360	 7.7110
 2.3370	 7.6860
 2.3380	 7.6560
 2.3390	 7.6260
 2.3400	 7.5940
 2.3410	 7.5530
 2.3420	 7.5200
 2.3430	 7.4930
 2.3440	 7.4640
 2.3450	 7.4360
 2.3460	 7.4130
 2.3470	 7.3930
 2.3480	 7.3720
 2.3490	 7.3610
 2.3500	 7.3360
 2.3510	 7.2950
 2.3520	 7.2650
 2.3530	 7.2330
 2.3540	 7.2050
 2.3550	 7.1910
 2.3560	 7.1740
 2.3570	 7.1440
 2.3580	 7.1170
 2.3590	 7.0860
 2.3600	 7.0580
 2.3610	 7.0450
 2.3620	 7.0250
 2.3630	 6.9960
 2.3640	 6.9740
 2.3650	 6.9410
 2.3660	 6.9020
 2.3670	 6.8800
 2.3680	 6.8530
 2.3690	 6.8360
 2.3700	 6.8310
 2.3710	 6.8080
 2.3720	 6.7890
 2.3730	 6.7660
 2.3740	 6.7270
 2.3750	 6.6970
 2.3760	 6.6720
 2.3770	 6.6470
 2.3780	 6.6210
 2.3790	 6.5910
 2.3800	 6.5620
 2.3810	 6.5300
 2.3820	 6.5040
 2.3830	 6.4880
 2.3840	 6.4710
 2.3850	 6.4530
 2.3860	 6.4330
 2.3870	 6.4150
 2.3880	 6.4000
 2.3890	 6.3680
 2.3900	 6.3370
 2.3910	 6.3010
 2.3920	 6.2610
 2.3930	 6.2370
 2.3940	 6.2110
 2.3950	 6.1780
 2.3960	 6.1460
 2.3970	 6.1060
 2.3980	 6.0720
 2.3990	 6.0610
 2.4000	 6.0520
 2.4010	 6.0320
 2.4020	 6.0190
 2.4030	 5.9930
 2.4040	 5.9500
 2.4050	 5.9150
 2.4060	 5.8840
 2.4070	 5.8520
 2.4080	 5.8280
 2.4090	 5.8280
 2.4100	 5.8230
 2.4110	 5.8130
 2.4120	 5.8100
 2.4130	 5.7830
 2.4140	 5.7480
 2.4150	 5.7150
 2.4160	 5.6770
 2.4170	 5.6460
 2.4180	 5.6240
 2.4190	 5.6060
 2.4200	 5.5820
 2.4210	 5.5780
 2.4220	 5.5530
 2.4230	 5.5050
 2.4240	 5.4800
 2.4250	 5.4270
 2.4260	 5.3890
 2.4270	 5.3870
 2.4280	 5.3730
 2.4290	 5.3580
 2.4300	 5.3440
 2.4310	 5.3250
 2.4320	 5.2910
 2.4330	 5.2690
 2.4340	 5.2700
 2.4350	 5.2620
 2.4360	 5.2540
 2.4370	 5.2530
 2.4380	 5.2230
 2.4390	 5.2000
 2.4400	 5.1920
 2.4410	 5.1650
 2.4420	 5.1380
 2.4430	 5.0840
 2.4440	 5.0480
 2.4450	 5.0390
 2.4460	 5.0140
 2.4470	 5.0170
 2.4480	 5.0090
 2.4490	 4.9650
 2.4500	 4.9440
 2.4510	 4.9360
 2.4520	 4.9030
 2.4530	 4.8750
 2.4540	 4.8570
 2.4550	 4.8310
 2.4560	 4.8230
 2.4570	 4.8110
 2.4580	 4.7990
 2.4590	 4.7950
 2.4600	 4.7790
 2.4610	 4.7800
 2.4620	 4.7770
 2.4630	 4.7420
 2.4640	 4.7090
 2.4650	 4.6730
 2.4660	 4.6430
 2.4670	 4.6360
 2.4680	 4.6370
 2.4690	 4.6450
 2.4700	 4.6420
 2.4710	 4.6140
 2.4720	 4.6090
 2.4730	 4.6420
 2.4740	 4.6300
 2.4750	 4.5970
 2.4760	 4.5700
 2.4770	 4.4870
 2.4780	 4.4650
 2.4790	 4.5010
 2.4800	 4.5060
 2.4810	 4.5350
 2.4820	 4.4990
 2.4830	 4.4650
 2.4840	 4.4530
 2.4850	 4.4400
 2.4860	 4.4580
 2.4870	 4.4620
 2.4880	 4.4410
 2.4890	 4.4050
 2.4900	 4.3600
 2.4910	 4.3650
 2.4920	 4.3670
 2.4930	 4.3470
 2.4940	 4.3460
 2.4950	 4.3240
 2.4960	 4.2860
 2.4970	 4.2740
 2.4980	 4.2830
 2.4990	 4.2700
 2.5000	 4.2990
