Name: Acer pensylvanicum
Type: Vegetation
Class: Tree
Genus: Acer
Species: pensylvanicum
Sample No.: ACPE-2-69
Owner: UCSB
Wavelength Range: VSWIR
Origin: USA; Massachusetts; Harvard Forest
Collection Date: 7/8/2013
Description: Samples were collected as part of NSF Macrosystem Biology proposal titled: Collaborative Research: Thermal controls on ecosystem metabolism and function: scaling from leaves to canopies to regions. Samples were collected and overnighted to JPL facilities for processing. The same leaves were processed in the Nicolet and then measured using the ASD.
Measurement: Bidirectional reflectance
First Column: X
Second Column: Y
X Units: Wavelength (micrometers)
Y Units: Reflectance (percentage)
First X Value: 0.35
Last X Value: 2.5
Number of X Values: 2151
Additional Information: vegetation.tree.acer.pensylvanicum.vswir.acpe-2-69.ucsb.asd.ancillary.txt

 0.3500	 4.4720
 0.3510	 4.6300
 0.3520	 4.6640
 0.3530	 4.6720
 0.3540	 4.7580
 0.3550	 4.6460
 0.3560	 4.7760
 0.3570	 4.9300
 0.3580	 4.6550
 0.3590	 4.5320
 0.3600	 4.5870
 0.3610	 4.7140
 0.3620	 4.7160
 0.3630	 4.7110
 0.3640	 4.7350
 0.3650	 4.7580
 0.3660	 4.5630
 0.3670	 4.4570
 0.3680	 4.5280
 0.3690	 4.6860
 0.3700	 4.7740
 0.3710	 4.7770
 0.3720	 4.6960
 0.3730	 4.4930
 0.3740	 4.5820
 0.3750	 4.7430
 0.3760	 4.6660
 0.3770	 4.6680
 0.3780	 4.6470
 0.3790	 4.6060
 0.3800	 4.6380
 0.3810	 4.6940
 0.3820	 4.7000
 0.3830	 4.6540
 0.3840	 4.7330
 0.3850	 4.7480
 0.3860	 4.6760
 0.3870	 4.5890
 0.3880	 4.6970
 0.3890	 4.7880
 0.3900	 4.7670
 0.3910	 4.6920
 0.3920	 4.6690
 0.3930	 4.7200
 0.3940	 4.8090
 0.3950	 4.8080
 0.3960	 4.7900
 0.3970	 4.7790
 0.3980	 4.7800
 0.3990	 4.7870
 0.4000	 4.8020
 0.4010	 4.8110
 0.4020	 4.7750
 0.4030	 4.7690
 0.4040	 4.7910
 0.4050	 4.8230
 0.4060	 4.8750
 0.4070	 4.9090
 0.4080	 4.9050
 0.4090	 4.8660
 0.4100	 4.8710
 0.4110	 4.9030
 0.4120	 4.9310
 0.4130	 4.9210
 0.4140	 4.9330
 0.4150	 4.9430
 0.4160	 4.9170
 0.4170	 4.9290
 0.4180	 4.9440
 0.4190	 4.9440
 0.4200	 4.9350
 0.4210	 4.9430
 0.4220	 4.9690
 0.4230	 4.9990
 0.4240	 5.0030
 0.4250	 5.0040
 0.4260	 5.0040
 0.4270	 4.9970
 0.4280	 5.0140
 0.4290	 5.0280
 0.4300	 5.0240
 0.4310	 5.0150
 0.4320	 5.0100
 0.4330	 5.0130
 0.4340	 5.0230
 0.4350	 5.0290
 0.4360	 5.0280
 0.4370	 5.0270
 0.4380	 5.0380
 0.4390	 5.0570
 0.4400	 5.0630
 0.4410	 5.0500
 0.4420	 5.0530
 0.4430	 5.0490
 0.4440	 5.0490
 0.4450	 5.0670
 0.4460	 5.0880
 0.4470	 5.0990
 0.4480	 5.1000
 0.4490	 5.1140
 0.4500	 5.1150
 0.4510	 5.1210
 0.4520	 5.1450
 0.4530	 5.1420
 0.4540	 5.1420
 0.4550	 5.1520
 0.4560	 5.1650
 0.4570	 5.1640
 0.4580	 5.1610
 0.4590	 5.1630
 0.4600	 5.1550
 0.4610	 5.1660
 0.4620	 5.1800
 0.4630	 5.1770
 0.4640	 5.1660
 0.4650	 5.1580
 0.4660	 5.1590
 0.4670	 5.1730
 0.4680	 5.1740
 0.4690	 5.1720
 0.4700	 5.1760
 0.4710	 5.1780
 0.4720	 5.1770
 0.4730	 5.1760
 0.4740	 5.1810
 0.4750	 5.1810
 0.4760	 5.1750
 0.4770	 5.1690
 0.4780	 5.1750
 0.4790	 5.1760
 0.4800	 5.1780
 0.4810	 5.1870
 0.4820	 5.2000
 0.4830	 5.2030
 0.4840	 5.1980
 0.4850	 5.1940
 0.4860	 5.1990
 0.4870	 5.2150
 0.4880	 5.2330
 0.4890	 5.2260
 0.4900	 5.2390
 0.4910	 5.2630
 0.4920	 5.2700
 0.4930	 5.2780
 0.4940	 5.2910
 0.4950	 5.3120
 0.4960	 5.3410
 0.4970	 5.3580
 0.4980	 5.3780
 0.4990	 5.4200
 0.5000	 5.4480
 0.5010	 5.4820
 0.5020	 5.5270
 0.5030	 5.5780
 0.5040	 5.6310
 0.5050	 5.6870
 0.5060	 5.7530
 0.5070	 5.8370
 0.5080	 5.9260
 0.5090	 6.0270
 0.5100	 6.1520
 0.5110	 6.2640
 0.5120	 6.3970
 0.5130	 6.5640
 0.5140	 6.7470
 0.5150	 6.9320
 0.5160	 7.1320
 0.5170	 7.3590
 0.5180	 7.5820
 0.5190	 7.8240
 0.5200	 8.0840
 0.5210	 8.3450
 0.5220	 8.6080
 0.5230	 8.8760
 0.5240	 9.1440
 0.5250	 9.3900
 0.5260	 9.6320
 0.5270	 9.8680
 0.5280	10.0850
 0.5290	10.2900
 0.5300	10.4740
 0.5310	10.6350
 0.5320	10.7930
 0.5330	10.9220
 0.5340	11.0340
 0.5350	11.1390
 0.5360	11.2210
 0.5370	11.2950
 0.5380	11.3660
 0.5390	11.4270
 0.5400	11.4740
 0.5410	11.5180
 0.5420	11.5650
 0.5430	11.6070
 0.5440	11.6510
 0.5450	11.6960
 0.5460	11.7350
 0.5470	11.7580
 0.5480	11.7770
 0.5490	11.7950
 0.5500	11.8060
 0.5510	11.8170
 0.5520	11.8200
 0.5530	11.8110
 0.5540	11.7910
 0.5550	11.7490
 0.5560	11.6860
 0.5570	11.6160
 0.5580	11.5320
 0.5590	11.4350
 0.5600	11.3260
 0.5610	11.2040
 0.5620	11.0670
 0.5630	10.9180
 0.5640	10.7620
 0.5650	10.6010
 0.5660	10.4310
 0.5670	10.2540
 0.5680	10.0820
 0.5690	 9.9050
 0.5700	 9.7270
 0.5710	 9.5570
 0.5720	 9.3960
 0.5730	 9.2390
 0.5740	 9.0880
 0.5750	 8.9510
 0.5760	 8.8230
 0.5770	 8.7070
 0.5780	 8.6000
 0.5790	 8.4990
 0.5800	 8.4000
 0.5810	 8.3020
 0.5820	 8.2120
 0.5830	 8.1310
 0.5840	 8.0570
 0.5850	 7.9870
 0.5860	 7.9170
 0.5870	 7.8540
 0.5880	 7.7950
 0.5890	 7.7360
 0.5900	 7.6860
 0.5910	 7.6370
 0.5920	 7.5920
 0.5930	 7.5600
 0.5940	 7.5300
 0.5950	 7.5000
 0.5960	 7.4680
 0.5970	 7.4390
 0.5980	 7.4120
 0.5990	 7.3850
 0.6000	 7.3560
 0.6010	 7.3270
 0.6020	 7.2990
 0.6030	 7.2680
 0.6040	 7.2300
 0.6050	 7.1890
 0.6060	 7.1440
 0.6070	 7.0940
 0.6080	 7.0450
 0.6090	 6.9980
 0.6100	 6.9470
 0.6110	 6.8840
 0.6120	 6.8250
 0.6130	 6.7710
 0.6140	 6.7190
 0.6150	 6.6650
 0.6160	 6.6150
 0.6170	 6.5690
 0.6180	 6.5270
 0.6190	 6.4830
 0.6200	 6.4450
 0.6210	 6.4160
 0.6220	 6.3930
 0.6230	 6.3670
 0.6240	 6.3450
 0.6250	 6.3330
 0.6260	 6.3180
 0.6270	 6.3070
 0.6280	 6.2960
 0.6290	 6.2820
 0.6300	 6.2730
 0.6310	 6.2640
 0.6320	 6.2520
 0.6330	 6.2370
 0.6340	 6.2060
 0.6350	 6.1710
 0.6360	 6.1410
 0.6370	 6.0980
 0.6380	 6.0470
 0.6390	 5.9940
 0.6400	 5.9430
 0.6410	 5.8910
 0.6420	 5.8350
 0.6430	 5.7770
 0.6440	 5.7290
 0.6450	 5.6860
 0.6460	 5.6460
 0.6470	 5.6070
 0.6480	 5.5710
 0.6490	 5.5440
 0.6500	 5.5250
 0.6510	 5.5090
 0.6520	 5.4930
 0.6530	 5.4810
 0.6540	 5.4750
 0.6550	 5.4640
 0.6560	 5.4530
 0.6570	 5.4420
 0.6580	 5.4310
 0.6590	 5.4190
 0.6600	 5.4040
 0.6610	 5.3880
 0.6620	 5.3750
 0.6630	 5.3590
 0.6640	 5.3480
 0.6650	 5.3470
 0.6660	 5.3470
 0.6670	 5.3490
 0.6680	 5.3530
 0.6690	 5.3590
 0.6700	 5.3780
 0.6710	 5.3990
 0.6720	 5.4180
 0.6730	 5.4400
 0.6740	 5.4680
 0.6750	 5.5020
 0.6760	 5.5390
 0.6770	 5.5780
 0.6780	 5.6210
 0.6790	 5.6680
 0.6800	 5.7210
 0.6810	 5.7710
 0.6820	 5.8240
 0.6830	 5.8820
 0.6840	 5.9400
 0.6850	 6.0030
 0.6860	 6.0720
 0.6870	 6.1500
 0.6880	 6.2420
 0.6890	 6.3530
 0.6900	 6.4950
 0.6910	 6.6830
 0.6920	 6.9270
 0.6930	 7.2360
 0.6940	 7.6150
 0.6950	 8.0770
 0.6960	 8.6280
 0.6970	 9.2670
 0.6980	 9.9860
 0.6990	10.7690
 0.7000	11.6110
 0.7010	12.5070
 0.7020	13.4450
 0.7030	14.4010
 0.7040	15.3650
 0.7050	16.3330
 0.7060	17.2930
 0.7070	18.2510
 0.7080	19.1990
 0.7090	20.1260
 0.7100	21.0440
 0.7110	21.9570
 0.7120	22.8630
 0.7130	23.7540
 0.7140	24.6320
 0.7150	25.4940
 0.7160	26.3400
 0.7170	27.1800
 0.7180	27.9960
 0.7190	28.7920
 0.7200	29.5780
 0.7210	30.3430
 0.7220	31.0860
 0.7230	31.8080
 0.7240	32.5080
 0.7250	33.1760
 0.7260	33.8200
 0.7270	34.4450
 0.7280	35.0370
 0.7290	35.6120
 0.7300	36.1640
 0.7310	36.6780
 0.7320	37.1760
 0.7330	37.6420
 0.7340	38.0780
 0.7350	38.5010
 0.7360	38.8830
 0.7370	39.2440
 0.7380	39.5940
 0.7390	39.8970
 0.7400	40.1960
 0.7410	40.4840
 0.7420	40.7310
 0.7430	40.9550
 0.7440	41.1660
 0.7450	41.3660
 0.7460	41.5410
 0.7470	41.6930
 0.7480	41.8260
 0.7490	41.9460
 0.7500	42.0700
 0.7510	42.1670
 0.7520	42.2480
 0.7530	42.3320
 0.7540	42.3960
 0.7550	42.4580
 0.7560	42.5220
 0.7570	42.5790
 0.7580	42.6130
 0.7590	42.6440
 0.7600	42.6780
 0.7610	42.6970
 0.7620	42.7210
 0.7630	42.7490
 0.7640	42.7740
 0.7650	42.7820
 0.7660	42.7790
 0.7670	42.7800
 0.7680	42.7980
 0.7690	42.7930
 0.7700	42.7910
 0.7710	42.8020
 0.7720	42.8100
 0.7730	42.8010
 0.7740	42.7980
 0.7750	42.8160
 0.7760	42.8210
 0.7770	42.8160
 0.7780	42.8040
 0.7790	42.7920
 0.7800	42.8020
 0.7810	42.8150
 0.7820	42.8200
 0.7830	42.8160
 0.7840	42.8110
 0.7850	42.8080
 0.7860	42.8100
 0.7870	42.8210
 0.7880	42.8280
 0.7890	42.8290
 0.7900	42.8270
 0.7910	42.8240
 0.7920	42.8250
 0.7930	42.8290
 0.7940	42.8250
 0.7950	42.8310
 0.7960	42.8390
 0.7970	42.8380
 0.7980	42.8230
 0.7990	42.8250
 0.8000	42.8320
 0.8010	42.8320
 0.8020	42.8310
 0.8030	42.8290
 0.8040	42.8230
 0.8050	42.8120
 0.8060	42.7990
 0.8070	42.8000
 0.8080	42.8080
 0.8090	42.7950
 0.8100	42.7970
 0.8110	42.7990
 0.8120	42.7880
 0.8130	42.7560
 0.8140	42.7500
 0.8150	42.7620
 0.8160	42.7700
 0.8170	42.7600
 0.8180	42.7450
 0.8190	42.7330
 0.8200	42.7230
 0.8210	42.7270
 0.8220	42.7250
 0.8230	42.7150
 0.8240	42.7080
 0.8250	42.6970
 0.8260	42.6950
 0.8270	42.6970
 0.8280	42.6770
 0.8290	42.6800
 0.8300	42.6830
 0.8310	42.6610
 0.8320	42.6360
 0.8330	42.6360
 0.8340	42.6480
 0.8350	42.6430
 0.8360	42.6340
 0.8370	42.6300
 0.8380	42.6310
 0.8390	42.6300
 0.8400	42.6210
 0.8410	42.6140
 0.8420	42.6090
 0.8430	42.5980
 0.8440	42.5930
 0.8450	42.5920
 0.8460	42.5910
 0.8470	42.5900
 0.8480	42.5970
 0.8490	42.6020
 0.8500	42.5930
 0.8510	42.5840
 0.8520	42.5740
 0.8530	42.5750
 0.8540	42.5950
 0.8550	42.5930
 0.8560	42.5880
 0.8570	42.5870
 0.8580	42.5820
 0.8590	42.5850
 0.8600	42.5870
 0.8610	42.5850
 0.8620	42.5860
 0.8630	42.5770
 0.8640	42.5690
 0.8650	42.5720
 0.8660	42.5880
 0.8670	42.5890
 0.8680	42.5870
 0.8690	42.6010
 0.8700	42.6010
 0.8710	42.5990
 0.8720	42.5990
 0.8730	42.5980
 0.8740	42.6030
 0.8750	42.6120
 0.8760	42.6200
 0.8770	42.6160
 0.8780	42.6190
 0.8790	42.6250
 0.8800	42.6250
 0.8810	42.6100
 0.8820	42.6090
 0.8830	42.6240
 0.8840	42.6400
 0.8850	42.6140
 0.8860	42.6250
 0.8870	42.6460
 0.8880	42.6390
 0.8890	42.6480
 0.8900	42.6440
 0.8910	42.6380
 0.8920	42.6520
 0.8930	42.6570
 0.8940	42.6660
 0.8950	42.6740
 0.8960	42.6670
 0.8970	42.6550
 0.8980	42.6530
 0.8990	42.6640
 0.9000	42.6810
 0.9010	42.6690
 0.9020	42.6740
 0.9030	42.7000
 0.9040	42.6950
 0.9050	42.6820
 0.9060	42.6790
 0.9070	42.6910
 0.9080	42.7050
 0.9090	42.7080
 0.9100	42.7030
 0.9110	42.6980
 0.9120	42.7060
 0.9130	42.7210
 0.9140	42.7240
 0.9150	42.7060
 0.9160	42.7140
 0.9170	42.7070
 0.9180	42.6970
 0.9190	42.7080
 0.9200	42.7260
 0.9210	42.7200
 0.9220	42.7090
 0.9230	42.7230
 0.9240	42.7290
 0.9250	42.7130
 0.9260	42.6900
 0.9270	42.6840
 0.9280	42.6880
 0.9290	42.6960
 0.9300	42.6960
 0.9310	42.6720
 0.9320	42.6490
 0.9330	42.6480
 0.9340	42.6570
 0.9350	42.6350
 0.9360	42.6370
 0.9370	42.6360
 0.9380	42.6200
 0.9390	42.6120
 0.9400	42.5910
 0.9410	42.5900
 0.9420	42.6070
 0.9430	42.5740
 0.9440	42.5670
 0.9450	42.5650
 0.9460	42.5440
 0.9470	42.5220
 0.9480	42.5050
 0.9490	42.4850
 0.9500	42.4560
 0.9510	42.4320
 0.9520	42.4100
 0.9530	42.3750
 0.9540	42.3260
 0.9550	42.3210
 0.9560	42.3130
 0.9570	42.2900
 0.9580	42.2590
 0.9590	42.2370
 0.9600	42.2100
 0.9610	42.1830
 0.9620	42.1670
 0.9630	42.1600
 0.9640	42.1450
 0.9650	42.1370
 0.9660	42.1500
 0.9670	42.1300
 0.9680	42.1080
 0.9690	42.0920
 0.9700	42.0820
 0.9710	42.0960
 0.9720	42.0860
 0.9730	42.0690
 0.9740	42.0810
 0.9750	42.0870
 0.9760	42.0990
 0.9770	42.0950
 0.9780	42.0570
 0.9790	42.0540
 0.9800	42.0630
 0.9810	42.0590
 0.9820	42.0280
 0.9830	42.0200
 0.9840	42.0060
 0.9850	42.0090
 0.9860	42.0550
 0.9870	42.0750
 0.9880	42.0770
 0.9890	42.0650
 0.9900	42.0440
 0.9910	42.0370
 0.9920	42.0410
 0.9930	42.0450
 0.9940	42.0500
 0.9950	42.0540
 0.9960	42.0580
 0.9970	42.0620
 0.9980	42.0670
 0.9990	42.0710
 1.0000	42.0750
 1.0010	42.0790
 1.0020	42.0840
 1.0030	42.0880
 1.0040	42.0920
 1.0050	42.0960
 1.0060	42.1010
 1.0070	42.1050
 1.0080	42.1090
 1.0090	42.1130
 1.0100	42.1130
 1.0110	42.1250
 1.0120	42.1350
 1.0130	42.1480
 1.0140	42.1550
 1.0150	42.1610
 1.0160	42.1620
 1.0170	42.1590
 1.0180	42.1640
 1.0190	42.1670
 1.0200	42.1690
 1.0210	42.1750
 1.0220	42.1790
 1.0230	42.1830
 1.0240	42.1880
 1.0250	42.1950
 1.0260	42.2010
 1.0270	42.2080
 1.0280	42.2180
 1.0290	42.2270
 1.0300	42.2410
 1.0310	42.2480
 1.0320	42.2500
 1.0330	42.2560
 1.0340	42.2570
 1.0350	42.2540
 1.0360	42.2600
 1.0370	42.2600
 1.0380	42.2640
 1.0390	42.2650
 1.0400	42.2720
 1.0410	42.2860
 1.0420	42.2930
 1.0430	42.3020
 1.0440	42.3070
 1.0450	42.3050
 1.0460	42.3070
 1.0470	42.3110
 1.0480	42.3140
 1.0490	42.3150
 1.0500	42.3170
 1.0510	42.3160
 1.0520	42.3190
 1.0530	42.3210
 1.0540	42.3230
 1.0550	42.3270
 1.0560	42.3330
 1.0570	42.3380
 1.0580	42.3450
 1.0590	42.3510
 1.0600	42.3570
 1.0610	42.3620
 1.0620	42.3660
 1.0630	42.3700
 1.0640	42.3710
 1.0650	42.3720
 1.0660	42.3730
 1.0670	42.3730
 1.0680	42.3720
 1.0690	42.3680
 1.0700	42.3700
 1.0710	42.3740
 1.0720	42.3760
 1.0730	42.3790
 1.0740	42.3800
 1.0750	42.3750
 1.0760	42.3730
 1.0770	42.3730
 1.0780	42.3710
 1.0790	42.3670
 1.0800	42.3650
 1.0810	42.3630
 1.0820	42.3640
 1.0830	42.3720
 1.0840	42.3730
 1.0850	42.3760
 1.0860	42.3730
 1.0870	42.3680
 1.0880	42.3570
 1.0890	42.3500
 1.0900	42.3420
 1.0910	42.3350
 1.0920	42.3270
 1.0930	42.3220
 1.0940	42.3160
 1.0950	42.3120
 1.0960	42.3110
 1.0970	42.3090
 1.0980	42.3050
 1.0990	42.3030
 1.1000	42.3030
 1.1010	42.3000
 1.1020	42.2940
 1.1030	42.2870
 1.1040	42.2810
 1.1050	42.2720
 1.1060	42.2640
 1.1070	42.2560
 1.1080	42.2480
 1.1090	42.2390
 1.1100	42.2310
 1.1110	42.2260
 1.1120	42.2170
 1.1130	42.2070
 1.1140	42.1970
 1.1150	42.1830
 1.1160	42.1740
 1.1170	42.1670
 1.1180	42.1580
 1.1190	42.1500
 1.1200	42.1450
 1.1210	42.1360
 1.1220	42.1260
 1.1230	42.1120
 1.1240	42.0940
 1.1250	42.0750
 1.1260	42.0510
 1.1270	42.0250
 1.1280	41.9950
 1.1290	41.9670
 1.1300	41.9370
 1.1310	41.9050
 1.1320	41.8720
 1.1330	41.8360
 1.1340	41.7980
 1.1350	41.7540
 1.1360	41.7050
 1.1370	41.6570
 1.1380	41.6010
 1.1390	41.5430
 1.1400	41.4870
 1.1410	41.4290
 1.1420	41.3650
 1.1430	41.3020
 1.1440	41.2450
 1.1450	41.1880
 1.1460	41.1320
 1.1470	41.0790
 1.1480	41.0270
 1.1490	40.9710
 1.1500	40.9230
 1.1510	40.8830
 1.1520	40.8420
 1.1530	40.8020
 1.1540	40.7660
 1.1550	40.7340
 1.1560	40.7050
 1.1570	40.6770
 1.1580	40.6560
 1.1590	40.6330
 1.1600	40.6110
 1.1610	40.5940
 1.1620	40.5810
 1.1630	40.5700
 1.1640	40.5580
 1.1650	40.5490
 1.1660	40.5400
 1.1670	40.5330
 1.1680	40.5310
 1.1690	40.5280
 1.1700	40.5280
 1.1710	40.5240
 1.1720	40.5190
 1.1730	40.5150
 1.1740	40.5070
 1.1750	40.5020
 1.1760	40.5010
 1.1770	40.4960
 1.1780	40.4890
 1.1790	40.4850
 1.1800	40.4790
 1.1810	40.4750
 1.1820	40.4700
 1.1830	40.4640
 1.1840	40.4580
 1.1850	40.4480
 1.1860	40.4400
 1.1870	40.4350
 1.1880	40.4300
 1.1890	40.4260
 1.1900	40.4220
 1.1910	40.4210
 1.1920	40.4170
 1.1930	40.4110
 1.1940	40.4070
 1.1950	40.4010
 1.1960	40.4010
 1.1970	40.4000
 1.1980	40.4000
 1.1990	40.4020
 1.2000	40.4000
 1.2010	40.4030
 1.2020	40.4080
 1.2030	40.4110
 1.2040	40.4140
 1.2050	40.4150
 1.2060	40.4170
 1.2070	40.4180
 1.2080	40.4210
 1.2090	40.4250
 1.2100	40.4290
 1.2110	40.4350
 1.2120	40.4460
 1.2130	40.4540
 1.2140	40.4620
 1.2150	40.4700
 1.2160	40.4750
 1.2170	40.4820
 1.2180	40.4930
 1.2190	40.5010
 1.2200	40.5080
 1.2210	40.5160
 1.2220	40.5220
 1.2230	40.5320
 1.2240	40.5440
 1.2250	40.5520
 1.2260	40.5620
 1.2270	40.5700
 1.2280	40.5760
 1.2290	40.5870
 1.2300	40.5950
 1.2310	40.6020
 1.2320	40.6080
 1.2330	40.6120
 1.2340	40.6180
 1.2350	40.6250
 1.2360	40.6320
 1.2370	40.6410
 1.2380	40.6490
 1.2390	40.6520
 1.2400	40.6550
 1.2410	40.6590
 1.2420	40.6610
 1.2430	40.6650
 1.2440	40.6690
 1.2450	40.6730
 1.2460	40.6760
 1.2470	40.6800
 1.2480	40.6850
 1.2490	40.6880
 1.2500	40.6930
 1.2510	40.7020
 1.2520	40.7060
 1.2530	40.7100
 1.2540	40.7160
 1.2550	40.7150
 1.2560	40.7170
 1.2570	40.7210
 1.2580	40.7170
 1.2590	40.7160
 1.2600	40.7160
 1.2610	40.7140
 1.2620	40.7100
 1.2630	40.7100
 1.2640	40.7090
 1.2650	40.7030
 1.2660	40.6990
 1.2670	40.6930
 1.2680	40.6860
 1.2690	40.6830
 1.2700	40.6750
 1.2710	40.6680
 1.2720	40.6640
 1.2730	40.6580
 1.2740	40.6540
 1.2750	40.6530
 1.2760	40.6460
 1.2770	40.6380
 1.2780	40.6310
 1.2790	40.6200
 1.2800	40.6120
 1.2810	40.6060
 1.2820	40.5950
 1.2830	40.5880
 1.2840	40.5820
 1.2850	40.5730
 1.2860	40.5650
 1.2870	40.5560
 1.2880	40.5450
 1.2890	40.5330
 1.2900	40.5240
 1.2910	40.5130
 1.2920	40.5030
 1.2930	40.4930
 1.2940	40.4780
 1.2950	40.4610
 1.2960	40.4420
 1.2970	40.4210
 1.2980	40.4010
 1.2990	40.3790
 1.3000	40.3600
 1.3010	40.3400
 1.3020	40.3180
 1.3030	40.2930
 1.3040	40.2630
 1.3050	40.2320
 1.3060	40.1990
 1.3070	40.1650
 1.3080	40.1330
 1.3090	40.0990
 1.3100	40.0640
 1.3110	40.0320
 1.3120	39.9950
 1.3130	39.9550
 1.3140	39.9130
 1.3150	39.8690
 1.3160	39.8210
 1.3170	39.7690
 1.3180	39.7200
 1.3190	39.6680
 1.3200	39.6140
 1.3210	39.5620
 1.3220	39.5060
 1.3230	39.4480
 1.3240	39.3920
 1.3250	39.3350
 1.3260	39.2790
 1.3270	39.2240
 1.3280	39.1620
 1.3290	39.1000
 1.3300	39.0380
 1.3310	38.9710
 1.3320	38.9060
 1.3330	38.8420
 1.3340	38.7790
 1.3350	38.7140
 1.3360	38.6460
 1.3370	38.5760
 1.3380	38.5040
 1.3390	38.4330
 1.3400	38.3640
 1.3410	38.2950
 1.3420	38.2260
 1.3430	38.1550
 1.3440	38.0830
 1.3450	38.0130
 1.3460	37.9430
 1.3470	37.8750
 1.3480	37.8100
 1.3490	37.7450
 1.3500	37.6820
 1.3510	37.6150
 1.3520	37.5500
 1.3530	37.4830
 1.3540	37.4140
 1.3550	37.3480
 1.3560	37.2810
 1.3570	37.2140
 1.3580	37.1490
 1.3590	37.0810
 1.3600	37.0100
 1.3610	36.9350
 1.3620	36.8580
 1.3630	36.7810
 1.3640	36.7010
 1.3650	36.6200
 1.3660	36.5350
 1.3670	36.4430
 1.3680	36.3450
 1.3690	36.2400
 1.3700	36.1270
 1.3710	36.0050
 1.3720	35.8740
 1.3730	35.7320
 1.3740	35.5810
 1.3750	35.4200
 1.3760	35.2460
 1.3770	35.0580
 1.3780	34.8560
 1.3790	34.6390
 1.3800	34.4080
 1.3810	34.1610
 1.3820	33.8990
 1.3830	33.6230
 1.3840	33.3320
 1.3850	33.0260
 1.3860	32.7090
 1.3870	32.3770
 1.3880	32.0390
 1.3890	31.6910
 1.3900	31.3330
 1.3910	30.9690
 1.3920	30.5950
 1.3930	30.2120
 1.3940	29.8260
 1.3950	29.4330
 1.3960	29.0410
 1.3970	28.6530
 1.3980	28.2650
 1.3990	27.8890
 1.4000	27.5190
 1.4010	27.1550
 1.4020	26.8040
 1.4030	26.4590
 1.4040	26.1240
 1.4050	25.8060
 1.4060	25.5010
 1.4070	25.2150
 1.4080	24.9440
 1.4090	24.6830
 1.4100	24.4370
 1.4110	24.2030
 1.4120	23.9840
 1.4130	23.7810
 1.4140	23.5930
 1.4150	23.4200
 1.4160	23.2580
 1.4170	23.1080
 1.4180	22.9690
 1.4190	22.8390
 1.4200	22.7200
 1.4210	22.6140
 1.4220	22.5160
 1.4230	22.4280
 1.4240	22.3490
 1.4250	22.2750
 1.4260	22.2090
 1.4270	22.1490
 1.4280	22.0960
 1.4290	22.0490
 1.4300	22.0060
 1.4310	21.9700
 1.4320	21.9420
 1.4330	21.9170
 1.4340	21.8990
 1.4350	21.8830
 1.4360	21.8690
 1.4370	21.8590
 1.4380	21.8540
 1.4390	21.8520
 1.4400	21.8530
 1.4410	21.8570
 1.4420	21.8630
 1.4430	21.8710
 1.4440	21.8810
 1.4450	21.8940
 1.4460	21.9070
 1.4470	21.9230
 1.4480	21.9420
 1.4490	21.9610
 1.4500	21.9810
 1.4510	22.0010
 1.4520	22.0210
 1.4530	22.0430
 1.4540	22.0690
 1.4550	22.0970
 1.4560	22.1270
 1.4570	22.1600
 1.4580	22.1940
 1.4590	22.2280
 1.4600	22.2680
 1.4610	22.3140
 1.4620	22.3630
 1.4630	22.4170
 1.4640	22.4760
 1.4650	22.5390
 1.4660	22.6060
 1.4670	22.6800
 1.4680	22.7580
 1.4690	22.8400
 1.4700	22.9240
 1.4710	23.0120
 1.4720	23.1040
 1.4730	23.1990
 1.4740	23.2980
 1.4750	23.3970
 1.4760	23.4970
 1.4770	23.5980
 1.4780	23.6990
 1.4790	23.8050
 1.4800	23.9120
 1.4810	24.0200
 1.4820	24.1300
 1.4830	24.2380
 1.4840	24.3460
 1.4850	24.4560
 1.4860	24.5640
 1.4870	24.6740
 1.4880	24.7860
 1.4890	24.8960
 1.4900	25.0060
 1.4910	25.1170
 1.4920	25.2270
 1.4930	25.3370
 1.4940	25.4460
 1.4950	25.5570
 1.4960	25.6670
 1.4970	25.7730
 1.4980	25.8820
 1.4990	25.9930
 1.5000	26.1020
 1.5010	26.2120
 1.5020	26.3190
 1.5030	26.4230
 1.5040	26.5280
 1.5050	26.6320
 1.5060	26.7350
 1.5070	26.8350
 1.5080	26.9360
 1.5090	27.0350
 1.5100	27.1350
 1.5110	27.2370
 1.5120	27.3380
 1.5130	27.4370
 1.5140	27.5340
 1.5150	27.6310
 1.5160	27.7250
 1.5170	27.8190
 1.5180	27.9130
 1.5190	28.0040
 1.5200	28.0950
 1.5210	28.1830
 1.5220	28.2710
 1.5230	28.3590
 1.5240	28.4460
 1.5250	28.5350
 1.5260	28.6220
 1.5270	28.7050
 1.5280	28.7880
 1.5290	28.8720
 1.5300	28.9550
 1.5310	29.0380
 1.5320	29.1180
 1.5330	29.1970
 1.5340	29.2750
 1.5350	29.3530
 1.5360	29.4300
 1.5370	29.5020
 1.5380	29.5740
 1.5390	29.6440
 1.5400	29.7130
 1.5410	29.7830
 1.5420	29.8540
 1.5430	29.9240
 1.5440	29.9930
 1.5450	30.0620
 1.5460	30.1290
 1.5470	30.1930
 1.5480	30.2570
 1.5490	30.3220
 1.5500	30.3870
 1.5510	30.4500
 1.5520	30.5140
 1.5530	30.5750
 1.5540	30.6340
 1.5550	30.6930
 1.5560	30.7460
 1.5570	30.7990
 1.5580	30.8540
 1.5590	30.9090
 1.5600	30.9670
 1.5610	31.0240
 1.5620	31.0780
 1.5630	31.1300
 1.5640	31.1810
 1.5650	31.2310
 1.5660	31.2820
 1.5670	31.3340
 1.5680	31.3860
 1.5690	31.4340
 1.5700	31.4820
 1.5710	31.5300
 1.5720	31.5750
 1.5730	31.6210
 1.5740	31.6650
 1.5750	31.7090
 1.5760	31.7550
 1.5770	31.8000
 1.5780	31.8450
 1.5790	31.8880
 1.5800	31.9270
 1.5810	31.9660
 1.5820	32.0050
 1.5830	32.0470
 1.5840	32.0910
 1.5850	32.1350
 1.5860	32.1780
 1.5870	32.2180
 1.5880	32.2580
 1.5890	32.3000
 1.5900	32.3360
 1.5910	32.3720
 1.5920	32.4060
 1.5930	32.4380
 1.5940	32.4740
 1.5950	32.5100
 1.5960	32.5440
 1.5970	32.5810
 1.5980	32.6150
 1.5990	32.6500
 1.6000	32.6860
 1.6010	32.7160
 1.6020	32.7470
 1.6030	32.7770
 1.6040	32.8030
 1.6050	32.8320
 1.6060	32.8610
 1.6070	32.8890
 1.6080	32.9200
 1.6090	32.9490
 1.6100	32.9760
 1.6110	33.0030
 1.6120	33.0290
 1.6130	33.0550
 1.6140	33.0820
 1.6150	33.1080
 1.6160	33.1330
 1.6170	33.1580
 1.6180	33.1820
 1.6190	33.2050
 1.6200	33.2270
 1.6210	33.2480
 1.6220	33.2680
 1.6230	33.2880
 1.6240	33.3090
 1.6250	33.3300
 1.6260	33.3520
 1.6270	33.3740
 1.6280	33.3950
 1.6290	33.4170
 1.6300	33.4390
 1.6310	33.4580
 1.6320	33.4740
 1.6330	33.4910
 1.6340	33.5050
 1.6350	33.5220
 1.6360	33.5420
 1.6370	33.5580
 1.6380	33.5720
 1.6390	33.5850
 1.6400	33.5960
 1.6410	33.6060
 1.6420	33.6180
 1.6430	33.6280
 1.6440	33.6370
 1.6450	33.6460
 1.6460	33.6490
 1.6470	33.6530
 1.6480	33.6600
 1.6490	33.6630
 1.6500	33.6710
 1.6510	33.6760
 1.6520	33.6800
 1.6530	33.6860
 1.6540	33.6860
 1.6550	33.6880
 1.6560	33.6920
 1.6570	33.6910
 1.6580	33.6910
 1.6590	33.6890
 1.6600	33.6840
 1.6610	33.6830
 1.6620	33.6830
 1.6630	33.6820
 1.6640	33.6800
 1.6650	33.6760
 1.6660	33.6740
 1.6670	33.6780
 1.6680	33.6820
 1.6690	33.6850
 1.6700	33.6830
 1.6710	33.6730
 1.6720	33.6620
 1.6730	33.6530
 1.6740	33.6430
 1.6750	33.6330
 1.6760	33.6270
 1.6770	33.6180
 1.6780	33.6100
 1.6790	33.6030
 1.6800	33.5900
 1.6810	33.5740
 1.6820	33.5550
 1.6830	33.5350
 1.6840	33.5180
 1.6850	33.5030
 1.6860	33.4860
 1.6870	33.4710
 1.6880	33.4550
 1.6890	33.4380
 1.6900	33.4180
 1.6910	33.3940
 1.6920	33.3710
 1.6930	33.3450
 1.6940	33.3210
 1.6950	33.2980
 1.6960	33.2740
 1.6970	33.2500
 1.6980	33.2250
 1.6990	33.1990
 1.7000	33.1720
 1.7010	33.1450
 1.7020	33.1190
 1.7030	33.0900
 1.7040	33.0640
 1.7050	33.0410
 1.7060	33.0150
 1.7070	32.9880
 1.7080	32.9620
 1.7090	32.9330
 1.7100	32.9070
 1.7110	32.8860
 1.7120	32.8560
 1.7130	32.8270
 1.7140	32.7980
 1.7150	32.7690
 1.7160	32.7410
 1.7170	32.7140
 1.7180	32.6840
 1.7190	32.6520
 1.7200	32.6180
 1.7210	32.5820
 1.7220	32.5460
 1.7230	32.5120
 1.7240	32.4810
 1.7250	32.4520
 1.7260	32.4200
 1.7270	32.3870
 1.7280	32.3550
 1.7290	32.3220
 1.7300	32.2880
 1.7310	32.2570
 1.7320	32.2290
 1.7330	32.2000
 1.7340	32.1740
 1.7350	32.1450
 1.7360	32.1100
 1.7370	32.0780
 1.7380	32.0490
 1.7390	32.0170
 1.7400	31.9850
 1.7410	31.9520
 1.7420	31.9180
 1.7430	31.8810
 1.7440	31.8420
 1.7450	31.8050
 1.7460	31.7680
 1.7470	31.7290
 1.7480	31.6930
 1.7490	31.6510
 1.7500	31.6010
 1.7510	31.5580
 1.7520	31.5140
 1.7530	31.4730
 1.7540	31.4360
 1.7550	31.3950
 1.7560	31.3520
 1.7570	31.3070
 1.7580	31.2630
 1.7590	31.2190
 1.7600	31.1770
 1.7610	31.1360
 1.7620	31.0950
 1.7630	31.0550
 1.7640	31.0160
 1.7650	30.9750
 1.7660	30.9390
 1.7670	30.9070
 1.7680	30.8750
 1.7690	30.8460
 1.7700	30.8160
 1.7710	30.7830
 1.7720	30.7540
 1.7730	30.7260
 1.7740	30.6990
 1.7750	30.6730
 1.7760	30.6480
 1.7770	30.6230
 1.7780	30.5990
 1.7790	30.5730
 1.7800	30.5500
 1.7810	30.5270
 1.7820	30.5050
 1.7830	30.4850
 1.7840	30.4680
 1.7850	30.4530
 1.7860	30.4350
 1.7870	30.4190
 1.7880	30.4010
 1.7890	30.3850
 1.7900	30.3760
 1.7910	30.3670
 1.7920	30.3630
 1.7930	30.3560
 1.7940	30.3460
 1.7950	30.3410
 1.7960	30.3390
 1.7970	30.3350
 1.7980	30.3320
 1.7990	30.3290
 1.8000	30.3210
 1.8010	30.3170
 1.8020	30.3170
 1.8030	30.3160
 1.8040	30.3150
 1.8050	30.3170
 1.8060	30.3240
 1.8070	30.3240
 1.8080	30.3230
 1.8090	30.3180
 1.8100	30.3070
 1.8110	30.3010
 1.8120	30.2970
 1.8130	30.2910
 1.8140	30.2880
 1.8150	30.2820
 1.8160	30.2730
 1.8170	30.2690
 1.8180	30.2670
 1.8190	30.2640
 1.8200	30.2600
 1.8210	30.2520
 1.8220	30.2440
 1.8230	30.2380
 1.8240	30.2280
 1.8250	30.2130
 1.8260	30.2050
 1.8270	30.1570
 1.8280	30.1100
 1.8290	30.0630
 1.8300	30.0150
 1.8310	29.9680
 1.8320	29.9210
 1.8330	29.8730
 1.8340	29.8260
 1.8350	29.8260
 1.8360	29.7910
 1.8370	29.7490
 1.8380	29.7070
 1.8390	29.6600
 1.8400	29.6050
 1.8410	29.5510
 1.8420	29.4990
 1.8430	29.4400
 1.8440	29.3780
 1.8450	29.3150
 1.8460	29.2470
 1.8470	29.1720
 1.8480	29.0860
 1.8490	28.9920
 1.8500	28.8900
 1.8510	28.7770
 1.8520	28.6610
 1.8530	28.5400
 1.8540	28.4080
 1.8550	28.2640
 1.8560	28.1060
 1.8570	27.9360
 1.8580	27.7560
 1.8590	27.5650
 1.8600	27.3650
 1.8610	27.1520
 1.8620	26.9190
 1.8630	26.6720
 1.8640	26.4040
 1.8650	26.1130
 1.8660	25.8090
 1.8670	25.4830
 1.8680	25.1400
 1.8690	24.7740
 1.8700	24.3890
 1.8710	23.9820
 1.8720	23.5620
 1.8730	23.1210
 1.8740	22.6720
 1.8750	22.2080
 1.8760	21.7200
 1.8770	21.2250
 1.8780	20.7190
 1.8790	20.2000
 1.8800	19.6830
 1.8810	19.1630
 1.8820	18.6360
 1.8830	18.0980
 1.8840	17.5550
 1.8850	17.0030
 1.8860	16.4540
 1.8870	15.9140
 1.8880	15.3800
 1.8890	14.8570
 1.8900	14.3440
 1.8910	13.8500
 1.8920	13.3640
 1.8930	12.9040
 1.8940	12.4660
 1.8950	12.0520
 1.8960	11.6580
 1.8970	11.2840
 1.8980	10.9340
 1.8990	10.6080
 1.9000	10.3040
 1.9010	10.0270
 1.9020	 9.7700
 1.9030	 9.5350
 1.9040	 9.3240
 1.9050	 9.1380
 1.9060	 8.9630
 1.9070	 8.8100
 1.9080	 8.6710
 1.9090	 8.5390
 1.9100	 8.4270
 1.9110	 8.3230
 1.9120	 8.2330
 1.9130	 8.1530
 1.9140	 8.0830
 1.9150	 8.0250
 1.9160	 7.9810
 1.9170	 7.9460
 1.9180	 7.9110
 1.9190	 7.8810
 1.9200	 7.8610
 1.9210	 7.8420
 1.9220	 7.8260
 1.9230	 7.8200
 1.9240	 7.8130
 1.9250	 7.8050
 1.9260	 7.8030
 1.9270	 7.8130
 1.9280	 7.8230
 1.9290	 7.8380
 1.9300	 7.8600
 1.9310	 7.8820
 1.9320	 7.9080
 1.9330	 7.9400
 1.9340	 7.9770
 1.9350	 8.0150
 1.9360	 8.0580
 1.9370	 8.1000
 1.9380	 8.1400
 1.9390	 8.1850
 1.9400	 8.2300
 1.9410	 8.2770
 1.9420	 8.3300
 1.9430	 8.3820
 1.9440	 8.4390
 1.9450	 8.5040
 1.9460	 8.5630
 1.9470	 8.6200
 1.9480	 8.6820
 1.9490	 8.7450
 1.9500	 8.8080
 1.9510	 8.8780
 1.9520	 8.9520
 1.9530	 9.0260
 1.9540	 9.1000
 1.9550	 9.1770
 1.9560	 9.2570
 1.9570	 9.3340
 1.9580	 9.4110
 1.9590	 9.4880
 1.9600	 9.5620
 1.9610	 9.6420
 1.9620	 9.7240
 1.9630	 9.8100
 1.9640	 9.9020
 1.9650	 9.9900
 1.9660	10.0790
 1.9670	10.1710
 1.9680	10.2600
 1.9690	10.3440
 1.9700	10.4340
 1.9710	10.5270
 1.9720	10.6190
 1.9730	10.7130
 1.9740	10.8100
 1.9750	10.9040
 1.9760	10.9970
 1.9770	11.0920
 1.9780	11.1900
 1.9790	11.2880
 1.9800	11.3890
 1.9810	11.4870
 1.9820	11.5850
 1.9830	11.6850
 1.9840	11.7840
 1.9850	11.8840
 1.9860	11.9850
 1.9870	12.0850
 1.9880	12.1870
 1.9890	12.2940
 1.9900	12.4030
 1.9910	12.5070
 1.9920	12.6090
 1.9930	12.7050
 1.9940	12.8040
 1.9950	12.8980
 1.9960	12.9990
 1.9970	13.1050
 1.9980	13.2070
 1.9990	13.3070
 2.0000	13.4100
 2.0010	13.5110
 2.0020	13.6100
 2.0030	13.7100
 2.0040	13.8080
 2.0050	13.9020
 2.0060	13.9910
 2.0070	14.0840
 2.0080	14.1750
 2.0090	14.2690
 2.0100	14.3690
 2.0110	14.4640
 2.0120	14.5570
 2.0130	14.6510
 2.0140	14.7430
 2.0150	14.8340
 2.0160	14.9300
 2.0170	15.0290
 2.0180	15.1230
 2.0190	15.2150
 2.0200	15.3040
 2.0210	15.3850
 2.0220	15.4710
 2.0230	15.5590
 2.0240	15.6430
 2.0250	15.7280
 2.0260	15.8090
 2.0270	15.8840
 2.0280	15.9610
 2.0290	16.0370
 2.0300	16.1080
 2.0310	16.1820
 2.0320	16.2550
 2.0330	16.3260
 2.0340	16.3980
 2.0350	16.4680
 2.0360	16.5360
 2.0370	16.6020
 2.0380	16.6640
 2.0390	16.7290
 2.0400	16.7930
 2.0410	16.8570
 2.0420	16.9220
 2.0430	16.9880
 2.0440	17.0510
 2.0450	17.1100
 2.0460	17.1700
 2.0470	17.2260
 2.0480	17.2850
 2.0490	17.3430
 2.0500	17.4050
 2.0510	17.4750
 2.0520	17.5380
 2.0530	17.6000
 2.0540	17.6600
 2.0550	17.7150
 2.0560	17.7710
 2.0570	17.8310
 2.0580	17.8870
 2.0590	17.9460
 2.0600	18.0050
 2.0610	18.0660
 2.0620	18.1280
 2.0630	18.1920
 2.0640	18.2590
 2.0650	18.3220
 2.0660	18.3840
 2.0670	18.4440
 2.0680	18.4960
 2.0690	18.5540
 2.0700	18.6140
 2.0710	18.6730
 2.0720	18.7330
 2.0730	18.7950
 2.0740	18.8560
 2.0750	18.9140
 2.0760	18.9720
 2.0770	19.0320
 2.0780	19.0890
 2.0790	19.1430
 2.0800	19.1990
 2.0810	19.2550
 2.0820	19.3110
 2.0830	19.3690
 2.0840	19.4250
 2.0850	19.4830
 2.0860	19.5360
 2.0870	19.5840
 2.0880	19.6350
 2.0890	19.6850
 2.0900	19.7330
 2.0910	19.7810
 2.0920	19.8310
 2.0930	19.8820
 2.0940	19.9320
 2.0950	19.9820
 2.0960	20.0350
 2.0970	20.0840
 2.0980	20.1290
 2.0990	20.1760
 2.1000	20.2270
 2.1010	20.2720
 2.1020	20.3130
 2.1030	20.3560
 2.1040	20.3930
 2.1050	20.4350
 2.1060	20.4810
 2.1070	20.5320
 2.1080	20.5790
 2.1090	20.6240
 2.1100	20.6740
 2.1110	20.7260
 2.1120	20.7740
 2.1130	20.8290
 2.1140	20.8760
 2.1150	20.9160
 2.1160	20.9570
 2.1170	20.9960
 2.1180	21.0350
 2.1190	21.0740
 2.1200	21.1120
 2.1210	21.1500
 2.1220	21.1880
 2.1230	21.2240
 2.1240	21.2590
 2.1250	21.2910
 2.1260	21.3200
 2.1270	21.3530
 2.1280	21.3860
 2.1290	21.4210
 2.1300	21.4630
 2.1310	21.4970
 2.1320	21.5290
 2.1330	21.5620
 2.1340	21.5940
 2.1350	21.6240
 2.1360	21.6510
 2.1370	21.6810
 2.1380	21.7080
 2.1390	21.7370
 2.1400	21.7700
 2.1410	21.8020
 2.1420	21.8290
 2.1430	21.8520
 2.1440	21.8760
 2.1450	21.8990
 2.1460	21.9200
 2.1470	21.9380
 2.1480	21.9600
 2.1490	21.9830
 2.1500	22.0040
 2.1510	22.0320
 2.1520	22.0530
 2.1530	22.0690
 2.1540	22.0850
 2.1550	22.0960
 2.1560	22.1090
 2.1570	22.1180
 2.1580	22.1300
 2.1590	22.1430
 2.1600	22.1530
 2.1610	22.1670
 2.1620	22.1810
 2.1630	22.1930
 2.1640	22.2030
 2.1650	22.2150
 2.1660	22.2250
 2.1670	22.2380
 2.1680	22.2550
 2.1690	22.2680
 2.1700	22.2810
 2.1710	22.2920
 2.1720	22.3030
 2.1730	22.3140
 2.1740	22.3260
 2.1750	22.3360
 2.1760	22.3420
 2.1770	22.3530
 2.1780	22.3640
 2.1790	22.3750
 2.1800	22.3910
 2.1810	22.4050
 2.1820	22.4200
 2.1830	22.4320
 2.1840	22.4430
 2.1850	22.4520
 2.1860	22.4610
 2.1870	22.4660
 2.1880	22.4790
 2.1890	22.5000
 2.1900	22.5150
 2.1910	22.5320
 2.1920	22.5460
 2.1930	22.5510
 2.1940	22.5650
 2.1950	22.5830
 2.1960	22.6010
 2.1970	22.6240
 2.1980	22.6420
 2.1990	22.6560
 2.2000	22.6700
 2.2010	22.6830
 2.2020	22.6930
 2.2030	22.6970
 2.2040	22.7040
 2.2050	22.7060
 2.2060	22.7090
 2.2070	22.7230
 2.2080	22.7450
 2.2090	22.7600
 2.2100	22.7820
 2.2110	22.7920
 2.2120	22.7940
 2.2130	22.7980
 2.2140	22.7970
 2.2150	22.7990
 2.2160	22.8030
 2.2170	22.8020
 2.2180	22.8010
 2.2190	22.7940
 2.2200	22.7790
 2.2210	22.7680
 2.2220	22.7570
 2.2230	22.7480
 2.2240	22.7440
 2.2250	22.7340
 2.2260	22.7220
 2.2270	22.7090
 2.2280	22.6900
 2.2290	22.6720
 2.2300	22.6550
 2.2310	22.6340
 2.2320	22.6110
 2.2330	22.5910
 2.2340	22.5620
 2.2350	22.5270
 2.2360	22.4960
 2.2370	22.4620
 2.2380	22.4290
 2.2390	22.3960
 2.2400	22.3670
 2.2410	22.3390
 2.2420	22.3050
 2.2430	22.2700
 2.2440	22.2340
 2.2450	22.1900
 2.2460	22.1490
 2.2470	22.1150
 2.2480	22.0740
 2.2490	22.0310
 2.2500	21.9860
 2.2510	21.9400
 2.2520	21.8890
 2.2530	21.8300
 2.2540	21.7740
 2.2550	21.7130
 2.2560	21.6560
 2.2570	21.5970
 2.2580	21.5460
 2.2590	21.5070
 2.2600	21.4560
 2.2610	21.4050
 2.2620	21.3520
 2.2630	21.2910
 2.2640	21.2220
 2.2650	21.1610
 2.2660	21.1100
 2.2670	21.0570
 2.2680	21.0080
 2.2690	20.9550
 2.2700	20.9030
 2.2710	20.8500
 2.2720	20.7910
 2.2730	20.7450
 2.2740	20.7100
 2.2750	20.6620
 2.2760	20.6140
 2.2770	20.5650
 2.2780	20.5050
 2.2790	20.4560
 2.2800	20.4160
 2.2810	20.3710
 2.2820	20.3250
 2.2830	20.2830
 2.2840	20.2450
 2.2850	20.2010
 2.2860	20.1560
 2.2870	20.1080
 2.2880	20.0460
 2.2890	19.9940
 2.2900	19.9460
 2.2910	19.8950
 2.2920	19.8480
 2.2930	19.7960
 2.2940	19.7330
 2.2950	19.6760
 2.2960	19.6190
 2.2970	19.5620
 2.2980	19.5080
 2.2990	19.4510
 2.3000	19.4020
 2.3010	19.3470
 2.3020	19.2980
 2.3030	19.2580
 2.3040	19.2040
 2.3050	19.1490
 2.3060	19.0920
 2.3070	19.0270
 2.3080	18.9750
 2.3090	18.9300
 2.3100	18.8870
 2.3110	18.8470
 2.3120	18.8080
 2.3130	18.7660
 2.3140	18.7320
 2.3150	18.7030
 2.3160	18.6780
 2.3170	18.6600
 2.3180	18.6370
 2.3190	18.6180
 2.3200	18.5870
 2.3210	18.5470
 2.3220	18.5120
 2.3230	18.4720
 2.3240	18.4400
 2.3250	18.4200
 2.3260	18.3870
 2.3270	18.3510
 2.3280	18.3170
 2.3290	18.2820
 2.3300	18.2350
 2.3310	18.1870
 2.3320	18.1300
 2.3330	18.0470
 2.3340	17.9880
 2.3350	17.9370
 2.3360	17.8840
 2.3370	17.8450
 2.3380	17.7920
 2.3390	17.7270
 2.3400	17.6680
 2.3410	17.6040
 2.3420	17.5510
 2.3430	17.5050
 2.3440	17.4580
 2.3450	17.4220
 2.3460	17.3750
 2.3470	17.3260
 2.3480	17.2730
 2.3490	17.2120
 2.3500	17.1570
 2.3510	17.0960
 2.3520	17.0440
 2.3530	16.9980
 2.3540	16.9580
 2.3550	16.9330
 2.3560	16.9060
 2.3570	16.8700
 2.3580	16.8350
 2.3590	16.7880
 2.3600	16.7290
 2.3610	16.6910
 2.3620	16.6530
 2.3630	16.6130
 2.3640	16.5780
 2.3650	16.5260
 2.3660	16.4630
 2.3670	16.3970
 2.3680	16.3430
 2.3690	16.3160
 2.3700	16.2670
 2.3710	16.2150
 2.3720	16.1690
 2.3730	16.0980
 2.3740	16.0470
 2.3750	16.0170
 2.3760	15.9700
 2.3770	15.9200
 2.3780	15.8800
 2.3790	15.8330
 2.3800	15.7790
 2.3810	15.7300
 2.3820	15.6730
 2.3830	15.6190
 2.3840	15.5700
 2.3850	15.5090
 2.3860	15.4490
 2.3870	15.3860
 2.3880	15.3240
 2.3890	15.2710
 2.3900	15.2230
 2.3910	15.1780
 2.3920	15.1130
 2.3930	15.0480
 2.3940	14.9950
 2.3950	14.9340
 2.3960	14.8810
 2.3970	14.8260
 2.3980	14.7560
 2.3990	14.6820
 2.4000	14.6100
 2.4010	14.5510
 2.4020	14.4990
 2.4030	14.4540
 2.4040	14.4030
 2.4050	14.3380
 2.4060	14.2630
 2.4070	14.1670
 2.4080	14.0940
 2.4090	14.0430
 2.4100	13.9800
 2.4110	13.9300
 2.4120	13.8640
 2.4130	13.7890
 2.4140	13.7480
 2.4150	13.7260
 2.4160	13.6950
 2.4170	13.6230
 2.4180	13.5210
 2.4190	13.4090
 2.4200	13.3010
 2.4210	13.2280
 2.4220	13.1800
 2.4230	13.1350
 2.4240	13.0770
 2.4250	13.0130
 2.4260	12.9460
 2.4270	12.8720
 2.4280	12.8160
 2.4290	12.7630
 2.4300	12.6920
 2.4310	12.6140
 2.4320	12.5410
 2.4330	12.4510
 2.4340	12.3670
 2.4350	12.3070
 2.4360	12.2340
 2.4370	12.1760
 2.4380	12.1310
 2.4390	12.0640
 2.4400	12.0020
 2.4410	11.9470
 2.4420	11.8800
 2.4430	11.8150
 2.4440	11.7400
 2.4450	11.6550
 2.4460	11.5720
 2.4470	11.4940
 2.4480	11.4210
 2.4490	11.3410
 2.4500	11.2680
 2.4510	11.2150
 2.4520	11.1710
 2.4530	11.1430
 2.4540	11.0980
 2.4550	11.0420
 2.4560	10.9730
 2.4570	10.8950
 2.4580	10.8440
 2.4590	10.7840
 2.4600	10.7260
 2.4610	10.6610
 2.4620	10.5930
 2.4630	10.5410
 2.4640	10.4620
 2.4650	10.3730
 2.4660	10.3070
 2.4670	10.2180
 2.4680	10.1510
 2.4690	10.1350
 2.4700	10.0950
 2.4710	10.0680
 2.4720	10.0360
 2.4730	 9.9940
 2.4740	 9.9330
 2.4750	 9.8670
 2.4760	 9.8070
 2.4770	 9.7200
 2.4780	 9.6750
 2.4790	 9.6560
 2.4800	 9.6170
 2.4810	 9.5980
 2.4820	 9.5340
 2.4830	 9.4520
 2.4840	 9.3780
 2.4850	 9.3760
 2.4860	 9.3820
 2.4870	 9.3750
 2.4880	 9.3610
 2.4890	 9.2840
 2.4900	 9.2540
 2.4910	 9.2260
 2.4920	 9.1410
 2.4930	 9.1010
 2.4940	 9.0040
 2.4950	 8.9080
 2.4960	 8.8870
 2.4970	 8.8360
 2.4980	 8.8180
 2.4990	 8.8480
 2.5000	 8.8580
