Name: Baccharis pilularis 2
Type: vegetation
Class: Shrub
Genus: Baccharis
Species: pilularis
Sample No.: VH123
Owner: UCSB
Wavelength Range: TIR
Origin: 34.5084; -119.7683; WGS84
Collection Date: 6/3/2013
Description: Samples were collected as part of the HyspIRI Airborne Campaign. 48 individual plants were sampled in three times in 2013 - spring  summer  and fall. The name of the sample includes a 1  2  or 3 which references a different individual of the species. Samples were taken to JPL and processed within 48 hours of collection. The same leaves were processed in the Nicolet and then measured using the ASD.
Measurement: Hemispherical reflectance
First Column: X
Second Column: Y
X Units: Wavelength (micrometers)
Y Units: Reflectance (percentage)
First X Value: 2.501
Last X Value: 15.387
Number of X Values: 1737
Additional Information: vegetation.shrub.baccharis.pilularis.tir.vh123.ucsb.nicolet.ancillary.txt

 2.5010	 7.0210
 2.5030	 7.0330
 2.5040	 6.9950
 2.5050	 6.8990
 2.5060	 6.8140
 2.5070	 6.8100
 2.5090	 6.9240
 2.5100	 6.8460
 2.5110	 6.8290
 2.5120	 6.8120
 2.5140	 6.8020
 2.5150	 6.7690
 2.5160	 6.8030
 2.5170	 6.8190
 2.5180	 6.8500
 2.5200	 6.7250
 2.5210	 6.7820
 2.5220	 6.8080
 2.5230	 6.7140
 2.5250	 6.7690
 2.5260	 6.9150
 2.5270	 6.8210
 2.5280	 6.7450
 2.5290	 6.7850
 2.5310	 6.8620
 2.5320	 6.8190
 2.5330	 6.8080
 2.5340	 6.7970
 2.5360	 6.9250
 2.5370	 6.9070
 2.5380	 6.8490
 2.5390	 6.8260
 2.5410	 6.9760
 2.5420	 6.8800
 2.5430	 6.8890
 2.5440	 6.8240
 2.5460	 6.7800
 2.5470	 6.7900
 2.5480	 6.8840
 2.5490	 6.9170
 2.5510	 6.9290
 2.5520	 6.9570
 2.5530	 7.0270
 2.5540	 6.9190
 2.5560	 6.8410
 2.5570	 6.8820
 2.5580	 6.9430
 2.5590	 6.8850
 2.5610	 6.8940
 2.5620	 6.8630
 2.5630	 6.9880
 2.5640	 7.0340
 2.5660	 6.9210
 2.5670	 6.8870
 2.5680	 7.0880
 2.5700	 7.0390
 2.5710	 7.0500
 2.5720	 7.0820
 2.5730	 7.1110
 2.5750	 7.1160
 2.5760	 7.0780
 2.5770	 6.9840
 2.5790	 7.0130
 2.5800	 6.9740
 2.5810	 6.9100
 2.5820	 6.8530
 2.5840	 6.8940
 2.5850	 6.8550
 2.5860	 6.9110
 2.5880	 7.0000
 2.5890	 7.0310
 2.5900	 6.8900
 2.5910	 6.8940
 2.5930	 6.8470
 2.5940	 6.8210
 2.5950	 6.8720
 2.5970	 6.8840
 2.5980	 6.8240
 2.5990	 6.8530
 2.6000	 6.7890
 2.6020	 6.7610
 2.6030	 6.7740
 2.6040	 6.9460
 2.6060	 6.8570
 2.6070	 6.7600
 2.6080	 6.7250
 2.6100	 6.8390
 2.6110	 6.9180
 2.6120	 6.9020
 2.6140	 6.7810
 2.6150	 6.9890
 2.6160	 6.9210
 2.6180	 6.7250
 2.6190	 6.7090
 2.6200	 6.7440
 2.6220	 6.7310
 2.6230	 6.7120
 2.6240	 6.6040
 2.6260	 6.6970
 2.6270	 6.6820
 2.6280	 6.6670
 2.6300	 6.6670
 2.6310	 6.6710
 2.6320	 6.5890
 2.6340	 6.5320
 2.6350	 6.5520
 2.6360	 6.6600
 2.6380	 6.6360
 2.6390	 6.6210
 2.6400	 6.5420
 2.6420	 6.4770
 2.6430	 6.3750
 2.6440	 6.4780
 2.6460	 6.5910
 2.6470	 6.5310
 2.6480	 6.5340
 2.6500	 6.4940
 2.6510	 6.4160
 2.6520	 6.5740
 2.6540	 6.5000
 2.6550	 6.4640
 2.6560	 6.4580
 2.6580	 6.4960
 2.6590	 6.4760
 2.6610	 6.3960
 2.6620	 6.3420
 2.6630	 6.4290
 2.6650	 6.4360
 2.6660	 6.4280
 2.6670	 6.2550
 2.6690	 6.1500
 2.6700	 6.1900
 2.6720	 6.2270
 2.6730	 6.2730
 2.6740	 6.2930
 2.6760	 6.1680
 2.6770	 6.2510
 2.6780	 6.2350
 2.6800	 6.2240
 2.6810	 6.1820
 2.6830	 6.1920
 2.6840	 6.0960
 2.6850	 6.1280
 2.6870	 6.0730
 2.6880	 6.1020
 2.6900	 6.0890
 2.6910	 6.0750
 2.6920	 6.0000
 2.6940	 5.9590
 2.6950	 5.9900
 2.6970	 6.0040
 2.6980	 5.9340
 2.6990	 5.9560
 2.7010	 5.9170
 2.7020	 5.8600
 2.7040	 5.7870
 2.7050	 5.7680
 2.7060	 5.6640
 2.7080	 5.7800
 2.7090	 5.8540
 2.7110	 5.8300
 2.7120	 5.7850
 2.7130	 5.7540
 2.7150	 5.6500
 2.7160	 5.6240
 2.7180	 5.5880
 2.7190	 5.6070
 2.7210	 5.4610
 2.7220	 5.3740
 2.7230	 5.3220
 2.7250	 5.3070
 2.7260	 5.1760
 2.7280	 5.1250
 2.7290	 5.0510
 2.7310	 5.0350
 2.7320	 5.0120
 2.7330	 5.0960
 2.7350	 5.0350
 2.7360	 4.9030
 2.7380	 4.7660
 2.7390	 4.9000
 2.7410	 4.9350
 2.7420	 4.8240
 2.7440	 4.7520
 2.7450	 4.7180
 2.7470	 4.6910
 2.7480	 4.7580
 2.7490	 4.6940
 2.7510	 4.6770
 2.7520	 4.5570
 2.7540	 4.5530
 2.7550	 4.5230
 2.7570	 4.5170
 2.7580	 4.4890
 2.7600	 4.4780
 2.7610	 4.3890
 2.7630	 4.4010
 2.7640	 4.2920
 2.7660	 4.3290
 2.7670	 4.3930
 2.7680	 4.3880
 2.7700	 4.2600
 2.7710	 4.2820
 2.7730	 4.2580
 2.7740	 4.1820
 2.7760	 4.1860
 2.7770	 4.2830
 2.7790	 4.2210
 2.7800	 4.1690
 2.7820	 4.1820
 2.7830	 4.1310
 2.7850	 3.9460
 2.7860	 4.0640
 2.7880	 4.2250
 2.7890	 4.2280
 2.7910	 4.0730
 2.7920	 4.0860
 2.7940	 4.0670
 2.7950	 4.1740
 2.7970	 4.1990
 2.7980	 4.1570
 2.8000	 4.0450
 2.8010	 4.0400
 2.8030	 3.9910
 2.8040	 3.9360
 2.8060	 3.9150
 2.8070	 4.0850
 2.8090	 3.9860
 2.8110	 3.8950
 2.8120	 3.9230
 2.8140	 3.9560
 2.8150	 4.0020
 2.8170	 4.1490
 2.8180	 4.0650
 2.8200	 4.0070
 2.8210	 3.9660
 2.8230	 3.9810
 2.8240	 4.0600
 2.8260	 4.0380
 2.8270	 3.9180
 2.8290	 3.9290
 2.8300	 3.9390
 2.8320	 3.9690
 2.8340	 3.8690
 2.8350	 3.8900
 2.8370	 3.8680
 2.8380	 3.8640
 2.8400	 3.8830
 2.8410	 3.9640
 2.8430	 3.8670
 2.8440	 3.8470
 2.8460	 3.6810
 2.8480	 3.7120
 2.8490	 3.8240
 2.8510	 3.9080
 2.8520	 3.8840
 2.8540	 3.9190
 2.8550	 3.8360
 2.8570	 3.8950
 2.8590	 3.8200
 2.8600	 3.8020
 2.8620	 3.7960
 2.8630	 3.7990
 2.8650	 3.7390
 2.8660	 3.7530
 2.8680	 3.7430
 2.8700	 3.7530
 2.8710	 3.7810
 2.8730	 3.7920
 2.8740	 3.7240
 2.8760	 3.8290
 2.8780	 3.7450
 2.8790	 3.6380
 2.8810	 3.7370
 2.8820	 3.8610
 2.8840	 3.7560
 2.8860	 3.7890
 2.8870	 3.8650
 2.8890	 3.8520
 2.8900	 3.7260
 2.8920	 3.7520
 2.8940	 3.8650
 2.8950	 3.8910
 2.8970	 3.7480
 2.8980	 3.7890
 2.9000	 3.8370
 2.9020	 3.8510
 2.9030	 3.7430
 2.9050	 3.7530
 2.9070	 3.6810
 2.9080	 3.6520
 2.9100	 3.6500
 2.9120	 3.7490
 2.9130	 3.7290
 2.9150	 3.7450
 2.9160	 3.7660
 2.9180	 3.8440
 2.9200	 3.8240
 2.9210	 3.8650
 2.9230	 3.8470
 2.9250	 3.8310
 2.9260	 3.8110
 2.9280	 3.8010
 2.9300	 3.7410
 2.9310	 3.7040
 2.9330	 3.6630
 2.9350	 3.8050
 2.9360	 3.7380
 2.9380	 3.7800
 2.9400	 3.8180
 2.9410	 3.9000
 2.9430	 3.9000
 2.9450	 3.8310
 2.9460	 3.7340
 2.9480	 3.8280
 2.9500	 3.8410
 2.9510	 3.8920
 2.9530	 3.8090
 2.9550	 3.8080
 2.9560	 3.8310
 2.9580	 3.8470
 2.9600	 3.7860
 2.9610	 3.8660
 2.9630	 3.8620
 2.9650	 3.8200
 2.9660	 3.7800
 2.9680	 3.8370
 2.9700	 3.7470
 2.9720	 3.7680
 2.9730	 3.8450
 2.9750	 3.8640
 2.9770	 3.8020
 2.9780	 3.8190
 2.9800	 3.7630
 2.9820	 3.8290
 2.9840	 3.9210
 2.9850	 3.9650
 2.9870	 3.9470
 2.9890	 3.9140
 2.9900	 3.8530
 2.9920	 3.9360
 2.9940	 3.8790
 2.9960	 3.7980
 2.9970	 3.7970
 2.9990	 3.8400
 3.0010	 3.7710
 3.0030	 3.8300
 3.0040	 3.8650
 3.0060	 3.8970
 3.0080	 3.7940
 3.0100	 3.8290
 3.0110	 3.8680
 3.0130	 4.0060
 3.0150	 4.0380
 3.0170	 3.9840
 3.0180	 3.8750
 3.0200	 3.8940
 3.0220	 3.8890
 3.0240	 3.9320
 3.0250	 3.8920
 3.0270	 3.8890
 3.0290	 3.8740
 3.0310	 3.8540
 3.0320	 3.8050
 3.0340	 3.9060
 3.0360	 3.9020
 3.0380	 3.9270
 3.0400	 3.9490
 3.0410	 3.9860
 3.0430	 3.8940
 3.0450	 3.9680
 3.0470	 4.0290
 3.0480	 4.0300
 3.0500	 3.9310
 3.0520	 3.9400
 3.0540	 3.9000
 3.0560	 3.8590
 3.0570	 3.8450
 3.0590	 3.9180
 3.0610	 3.7770
 3.0630	 3.8850
 3.0650	 3.9710
 3.0660	 3.9450
 3.0680	 3.8480
 3.0700	 3.8500
 3.0720	 3.8180
 3.0740	 3.8070
 3.0760	 3.7950
 3.0770	 3.8350
 3.0790	 3.8540
 3.0810	 3.9750
 3.0830	 4.0210
 3.0850	 4.0370
 3.0870	 4.0180
 3.0880	 4.0640
 3.0900	 3.9040
 3.0920	 3.8500
 3.0940	 3.8650
 3.0960	 3.9260
 3.0980	 3.9320
 3.0990	 4.0730
 3.1010	 4.1020
 3.1030	 4.0080
 3.1050	 3.9490
 3.1070	 3.9850
 3.1090	 3.8960
 3.1110	 3.9540
 3.1120	 3.9700
 3.1140	 3.9840
 3.1160	 3.9870
 3.1180	 4.0530
 3.1200	 3.9650
 3.1220	 3.9320
 3.1240	 3.9200
 3.1260	 3.9790
 3.1270	 4.0300
 3.1290	 4.0670
 3.1310	 4.0450
 3.1330	 4.1200
 3.1350	 4.1110
 3.1370	 4.1220
 3.1390	 4.2020
 3.1410	 4.2840
 3.1430	 4.1660
 3.1450	 4.1400
 3.1460	 4.1240
 3.1480	 4.1550
 3.1500	 4.1070
 3.1520	 4.0450
 3.1540	 4.1010
 3.1560	 4.1840
 3.1580	 4.1330
 3.1600	 4.1610
 3.1620	 4.1180
 3.1640	 4.1410
 3.1660	 4.1260
 3.1680	 4.0820
 3.1700	 4.0990
 3.1710	 4.1880
 3.1730	 4.1410
 3.1750	 4.1660
 3.1770	 4.1880
 3.1790	 4.2460
 3.1810	 4.1640
 3.1830	 4.1970
 3.1850	 4.2350
 3.1870	 4.2920
 3.1890	 4.2770
 3.1910	 4.2400
 3.1930	 4.1070
 3.1950	 4.1540
 3.1970	 4.2130
 3.1990	 4.3030
 3.2010	 4.2860
 3.2030	 4.2550
 3.2050	 4.2240
 3.2070	 4.3460
 3.2090	 4.3040
 3.2110	 4.2780
 3.2130	 4.2000
 3.2150	 4.2030
 3.2170	 4.2220
 3.2190	 4.2510
 3.2210	 4.2050
 3.2230	 4.2870
 3.2250	 4.2470
 3.2270	 4.2300
 3.2290	 4.3040
 3.2310	 4.3500
 3.2330	 4.2840
 3.2350	 4.3250
 3.2370	 4.3260
 3.2390	 4.3360
 3.2410	 4.3460
 3.2430	 4.3880
 3.2450	 4.3490
 3.2470	 4.4510
 3.2490	 4.5210
 3.2510	 4.4330
 3.2530	 4.3940
 3.2550	 4.4840
 3.2570	 4.4520
 3.2590	 4.4170
 3.2610	 4.3310
 3.2630	 4.4100
 3.2650	 4.4430
 3.2670	 4.4740
 3.2690	 4.4910
 3.2720	 4.4880
 3.2740	 4.4310
 3.2760	 4.4600
 3.2780	 4.4370
 3.2800	 4.4040
 3.2820	 4.3820
 3.2840	 4.4620
 3.2860	 4.4220
 3.2880	 4.3950
 3.2900	 4.4890
 3.2920	 4.5480
 3.2940	 4.4130
 3.2960	 4.3270
 3.2990	 4.2990
 3.3010	 4.3790
 3.3030	 4.4390
 3.3050	 4.5440
 3.3070	 4.4630
 3.3090	 4.4360
 3.3110	 4.4430
 3.3130	 4.4720
 3.3150	 4.4810
 3.3180	 4.4960
 3.3200	 4.3780
 3.3220	 4.3130
 3.3240	 4.3070
 3.3260	 4.3830
 3.3280	 4.3120
 3.3300	 4.2010
 3.3330	 4.2400
 3.3350	 4.3150
 3.3370	 4.3620
 3.3390	 4.4030
 3.3410	 4.2630
 3.3430	 4.2210
 3.3450	 4.2210
 3.3480	 4.1900
 3.3500	 4.1390
 3.3520	 4.1820
 3.3540	 4.1840
 3.3560	 4.1810
 3.3580	 4.1250
 3.3610	 4.1040
 3.3630	 4.1060
 3.3650	 4.1140
 3.3670	 4.0330
 3.3690	 3.9460
 3.3720	 3.9750
 3.3740	 4.1180
 3.3760	 4.1650
 3.3780	 4.2230
 3.3800	 4.1610
 3.3830	 4.1330
 3.3850	 4.0730
 3.3870	 4.0760
 3.3890	 3.9900
 3.3910	 3.9150
 3.3940	 3.8450
 3.3960	 3.8600
 3.3980	 3.8730
 3.4000	 3.9010
 3.4020	 3.9640
 3.4050	 4.1280
 3.4070	 4.3160
 3.4090	 4.5030
 3.4110	 4.6470
 3.4140	 4.8310
 3.4160	 5.0490
 3.4180	 5.4010
 3.4200	 5.7730
 3.4230	 6.2160
 3.4250	 6.7380
 3.4270	 7.3900
 3.4290	 7.6920
 3.4320	 7.3930
 3.4340	 6.6570
 3.4360	 6.0390
 3.4390	 5.6040
 3.4410	 5.4630
 3.4430	 5.3500
 3.4450	 5.2260
 3.4480	 5.0550
 3.4500	 4.9960
 3.4520	 5.0070
 3.4550	 5.0410
 3.4570	 4.9940
 3.4590	 4.9590
 3.4620	 4.8990
 3.4640	 4.8770
 3.4660	 4.8360
 3.4680	 4.8570
 3.4710	 4.8300
 3.4730	 4.8000
 3.4750	 4.7180
 3.4780	 4.6980
 3.4800	 4.6270
 3.4820	 4.6190
 3.4850	 4.5870
 3.4870	 4.5920
 3.4890	 4.6120
 3.4920	 4.6270
 3.4940	 4.5730
 3.4970	 4.6370
 3.4990	 4.7650
 3.5010	 4.9420
 3.5040	 5.2110
 3.5060	 5.8660
 3.5080	 6.6980
 3.5110	 7.3480
 3.5130	 7.2310
 3.5160	 6.6340
 3.5180	 6.0870
 3.5200	 5.7940
 3.5230	 5.6310
 3.5250	 5.5680
 3.5270	 5.5550
 3.5300	 5.5520
 3.5320	 5.5140
 3.5350	 5.5390
 3.5370	 5.5090
 3.5400	 5.5170
 3.5420	 5.4730
 3.5440	 5.4470
 3.5470	 5.4140
 3.5490	 5.4400
 3.5520	 5.4110
 3.5540	 5.3920
 3.5570	 5.4250
 3.5590	 5.4410
 3.5610	 5.4220
 3.5640	 5.4320
 3.5660	 5.4210
 3.5690	 5.5190
 3.5710	 5.5500
 3.5740	 5.5080
 3.5760	 5.4330
 3.5790	 5.4520
 3.5810	 5.4510
 3.5840	 5.4780
 3.5860	 5.4990
 3.5890	 5.5140
 3.5910	 5.4880
 3.5930	 5.5470
 3.5960	 5.5190
 3.5980	 5.5020
 3.6010	 5.4840
 3.6030	 5.4670
 3.6060	 5.4750
 3.6080	 5.5350
 3.6110	 5.5420
 3.6140	 5.6220
 3.6160	 5.6190
 3.6190	 5.4980
 3.6210	 5.4050
 3.6240	 5.4640
 3.6260	 5.4260
 3.6290	 5.4490
 3.6310	 5.4570
 3.6340	 5.4620
 3.6360	 5.4750
 3.6390	 5.5010
 3.6410	 5.5080
 3.6440	 5.5470
 3.6470	 5.5210
 3.6490	 5.5280
 3.6520	 5.5280
 3.6540	 5.4790
 3.6570	 5.4700
 3.6590	 5.5450
 3.6620	 5.5630
 3.6650	 5.5490
 3.6670	 5.5200
 3.6700	 5.5250
 3.6720	 5.4430
 3.6750	 5.4930
 3.6780	 5.5530
 3.6800	 5.5430
 3.6830	 5.4930
 3.6850	 5.4720
 3.6880	 5.5050
 3.6910	 5.5720
 3.6930	 5.5270
 3.6960	 5.5180
 3.6990	 5.5430
 3.7010	 5.6070
 3.7040	 5.5380
 3.7060	 5.5690
 3.7090	 5.6290
 3.7120	 5.6380
 3.7140	 5.6280
 3.7170	 5.6520
 3.7200	 5.6490
 3.7220	 5.6490
 3.7250	 5.6270
 3.7280	 5.6160
 3.7300	 5.6430
 3.7330	 5.7380
 3.7360	 5.7330
 3.7390	 5.7570
 3.7410	 5.7150
 3.7440	 5.6720
 3.7470	 5.6180
 3.7490	 5.6560
 3.7520	 5.6810
 3.7550	 5.6450
 3.7580	 5.6520
 3.7600	 5.6890
 3.7630	 5.6800
 3.7660	 5.7140
 3.7680	 5.7610
 3.7710	 5.7500
 3.7740	 5.6870
 3.7770	 5.7710
 3.7790	 5.7830
 3.7820	 5.7350
 3.7850	 5.6620
 3.7880	 5.6710
 3.7900	 5.7290
 3.7930	 5.7900
 3.7960	 5.7460
 3.7990	 5.7770
 3.8020	 5.8190
 3.8040	 5.8330
 3.8070	 5.7930
 3.8100	 5.7570
 3.8130	 5.7260
 3.8160	 5.7370
 3.8180	 5.7700
 3.8210	 5.8570
 3.8240	 5.8200
 3.8270	 5.7370
 3.8300	 5.7610
 3.8330	 5.7890
 3.8350	 5.7810
 3.8380	 5.8230
 3.8410	 5.8230
 3.8440	 5.8160
 3.8470	 5.7170
 3.8500	 5.6960
 3.8520	 5.7750
 3.8550	 5.8820
 3.8580	 5.8690
 3.8610	 5.8650
 3.8640	 5.8830
 3.8670	 5.9370
 3.8700	 5.9310
 3.8730	 5.9100
 3.8750	 5.8720
 3.8780	 5.8750
 3.8810	 5.9130
 3.8840	 5.8940
 3.8870	 5.8440
 3.8900	 5.8670
 3.8930	 5.8590
 3.8960	 5.9240
 3.8990	 5.9160
 3.9020	 5.8310
 3.9050	 5.8030
 3.9080	 5.8470
 3.9110	 5.8140
 3.9140	 5.8290
 3.9160	 5.8670
 3.9190	 5.8570
 3.9220	 5.8410
 3.9250	 5.9150
 3.9280	 5.8660
 3.9310	 5.8050
 3.9340	 5.7730
 3.9370	 5.7730
 3.9400	 5.8180
 3.9430	 5.9150
 3.9460	 5.9320
 3.9490	 5.9140
 3.9520	 5.8410
 3.9550	 5.8440
 3.9580	 5.8730
 3.9610	 5.8940
 3.9640	 5.8930
 3.9670	 5.9120
 3.9700	 5.8690
 3.9730	 5.8280
 3.9770	 5.8280
 3.9800	 5.8400
 3.9830	 5.8820
 3.9860	 5.9470
 3.9890	 5.9710
 3.9920	 6.0040
 3.9950	 6.0360
 3.9980	 5.9650
 4.0010	 5.9020
 4.0040	 5.9440
 4.0070	 5.9410
 4.0100	 5.9460
 4.0130	 5.9990
 4.0170	 6.0670
 4.0200	 6.0180
 4.0230	 5.9830
 4.0260	 5.9740
 4.0290	 5.9770
 4.0320	 5.9850
 4.0350	 5.9770
 4.0380	 5.9490
 4.0420	 5.9620
 4.0450	 5.9520
 4.0480	 5.9830
 4.0510	 5.9990
 4.0540	 5.9740
 4.0570	 6.0050
 4.0610	 6.0530
 4.0640	 6.0030
 4.0670	 5.9930
 4.0700	 6.0240
 4.0730	 6.0570
 4.0770	 6.0680
 4.0800	 6.0700
 4.0830	 6.0690
 4.0860	 6.0320
 4.0890	 6.0220
 4.0930	 6.0690
 4.0960	 6.0990
 4.0990	 6.1390
 4.1020	 6.1220
 4.1060	 6.0800
 4.1090	 6.0390
 4.1120	 6.0320
 4.1150	 6.0790
 4.1190	 6.0720
 4.1220	 6.0850
 4.1250	 6.0860
 4.1280	 6.0920
 4.1320	 6.1420
 4.1350	 6.1140
 4.1380	 6.1010
 4.1420	 6.0980
 4.1450	 6.0920
 4.1480	 6.1240
 4.1520	 6.1590
 4.1550	 6.1260
 4.1580	 6.1190
 4.1620	 6.1490
 4.1650	 6.1740
 4.1680	 6.0800
 4.1720	 5.9910
 4.1750	 6.0410
 4.1780	 6.1510
 4.1820	 6.1720
 4.1850	 6.1230
 4.1890	 6.0690
 4.1920	 6.0840
 4.1950	 6.0610
 4.1990	 6.0830
 4.2020	 6.1490
 4.2060	 6.1640
 4.2090	 6.1240
 4.2120	 6.2080
 4.2160	 6.2840
 4.2190	 6.1530
 4.2230	 6.0800
 4.2260	 6.1600
 4.2300	 6.1280
 4.2330	 6.0740
 4.2360	 6.0980
 4.2400	 6.0930
 4.2430	 6.0530
 4.2470	 6.1370
 4.2500	 6.1720
 4.2540	 6.0490
 4.2570	 6.0580
 4.2610	 6.1150
 4.2640	 6.1120
 4.2680	 6.1480
 4.2710	 6.0870
 4.2750	 6.0690
 4.2780	 6.1100
 4.2820	 6.1850
 4.2850	 6.0950
 4.2890	 5.9890
 4.2930	 6.0830
 4.2960	 6.1470
 4.3000	 6.0250
 4.3030	 5.9980
 4.3070	 6.0570
 4.3100	 6.1850
 4.3140	 6.1020
 4.3180	 6.0080
 4.3210	 6.0710
 4.3250	 6.0510
 4.3280	 5.9610
 4.3320	 5.9880
 4.3360	 6.0070
 4.3390	 6.0390
 4.3430	 6.0460
 4.3470	 6.0610
 4.3500	 6.0410
 4.3540	 6.0500
 4.3570	 6.0760
 4.3610	 6.0250
 4.3650	 5.9570
 4.3680	 5.9930
 4.3720	 5.9470
 4.3760	 5.8800
 4.3800	 5.8550
 4.3830	 5.8910
 4.3870	 5.9410
 4.3910	 5.9810
 4.3940	 6.0040
 4.3980	 6.0050
 4.4020	 5.9970
 4.4060	 5.9690
 4.4090	 5.9800
 4.4130	 5.9850
 4.4170	 5.9710
 4.4210	 6.0040
 4.4240	 5.9810
 4.4280	 5.9790
 4.4320	 5.9760
 4.4360	 5.9020
 4.4400	 5.8550
 4.4430	 5.9270
 4.4470	 6.0160
 4.4510	 5.9860
 4.4550	 5.8960
 4.4590	 5.8710
 4.4620	 5.8290
 4.4660	 5.8250
 4.4700	 5.9350
 4.4740	 5.9680
 4.4780	 5.9050
 4.4820	 5.8550
 4.4860	 5.8790
 4.4900	 5.9320
 4.4930	 5.8970
 4.4970	 5.8730
 4.5010	 5.9090
 4.5050	 5.8890
 4.5090	 5.8660
 4.5130	 5.8650
 4.5170	 5.8910
 4.5210	 5.9200
 4.5250	 5.9190
 4.5290	 5.9200
 4.5330	 5.9170
 4.5370	 5.8550
 4.5410	 5.8120
 4.5450	 5.8460
 4.5490	 5.9330
 4.5530	 5.9200
 4.5570	 5.8360
 4.5610	 5.8050
 4.5650	 5.7910
 4.5690	 5.7600
 4.5730	 5.7780
 4.5770	 5.7830
 4.5810	 5.7970
 4.5850	 5.8070
 4.5890	 5.7620
 4.5930	 5.7280
 4.5970	 5.7370
 4.6010	 5.7780
 4.6050	 5.8170
 4.6090	 5.7890
 4.6130	 5.7630
 4.6170	 5.7330
 4.6220	 5.7450
 4.6260	 5.7180
 4.6300	 5.6920
 4.6340	 5.7190
 4.6380	 5.7040
 4.6420	 5.6580
 4.6460	 5.6620
 4.6510	 5.7150
 4.6550	 5.7180
 4.6590	 5.6780
 4.6630	 5.6480
 4.6670	 5.6410
 4.6720	 5.6710
 4.6760	 5.6160
 4.6800	 5.5940
 4.6840	 5.6200
 4.6880	 5.6800
 4.6930	 5.6750
 4.6970	 5.6650
 4.7010	 5.6740
 4.7050	 5.7150
 4.7100	 5.6830
 4.7140	 5.6970
 4.7180	 5.7050
 4.7230	 5.6970
 4.7270	 5.6620
 4.7310	 5.6810
 4.7360	 5.7550
 4.7400	 5.7600
 4.7440	 5.7030
 4.7490	 5.6990
 4.7530	 5.7300
 4.7570	 5.7170
 4.7620	 5.6770
 4.7660	 5.6740
 4.7700	 5.6530
 4.7750	 5.6900
 4.7790	 5.7230
 4.7840	 5.7200
 4.7880	 5.7200
 4.7920	 5.7650
 4.7970	 5.7290
 4.8010	 5.6970
 4.8060	 5.7150
 4.8100	 5.7660
 4.8150	 5.7540
 4.8190	 5.7300
 4.8240	 5.6990
 4.8280	 5.6900
 4.8330	 5.6970
 4.8370	 5.7490
 4.8420	 5.7210
 4.8460	 5.7200
 4.8510	 5.7740
 4.8550	 5.8060
 4.8600	 5.7550
 4.8640	 5.7390
 4.8690	 5.7160
 4.8730	 5.7650
 4.8780	 5.7860
 4.8830	 5.7270
 4.8870	 5.6980
 4.8920	 5.6960
 4.8960	 5.7150
 4.9010	 5.8050
 4.9060	 5.8410
 4.9100	 5.8540
 4.9150	 5.8010
 4.9200	 5.7850
 4.9240	 5.7830
 4.9290	 5.8140
 4.9340	 5.8050
 4.9380	 5.7680
 4.9430	 5.7420
 4.9480	 5.7790
 4.9530	 5.7720
 4.9570	 5.7380
 4.9620	 5.7430
 4.9670	 5.8560
 4.9720	 5.8890
 4.9760	 5.8620
 4.9810	 5.8350
 4.9860	 5.8710
 4.9910	 5.9020
 4.9960	 5.9220
 5.0000	 5.8460
 5.0050	 5.7900
 5.0100	 5.7310
 5.0150	 5.7390
 5.0200	 5.7800
 5.0250	 5.8160
 5.0290	 5.8350
 5.0340	 5.8400
 5.0390	 5.8630
 5.0440	 5.8850
 5.0490	 5.9010
 5.0540	 5.9730
 5.0590	 5.9800
 5.0640	 5.9150
 5.0690	 5.8590
 5.0740	 5.8560
 5.0790	 5.8330
 5.0840	 5.8210
 5.0890	 5.8100
 5.0940	 5.8600
 5.0990	 5.8680
 5.1040	 5.8540
 5.1090	 5.8460
 5.1140	 5.8520
 5.1190	 5.8190
 5.1240	 5.8940
 5.1290	 5.9270
 5.1340	 5.9300
 5.1390	 5.8920
 5.1440	 5.8790
 5.1490	 5.8230
 5.1540	 5.9300
 5.1600	 5.9470
 5.1650	 5.8630
 5.1700	 5.8350
 5.1750	 5.8710
 5.1800	 5.8460
 5.1850	 5.8740
 5.1910	 5.9080
 5.1960	 5.9340
 5.2010	 5.9010
 5.2060	 5.8660
 5.2110	 5.8700
 5.2170	 5.9460
 5.2220	 5.9910
 5.2270	 5.9700
 5.2320	 5.8730
 5.2380	 5.8690
 5.2430	 5.8570
 5.2480	 5.9110
 5.2540	 5.8850
 5.2590	 5.8740
 5.2640	 5.8710
 5.2700	 5.8900
 5.2750	 5.8710
 5.2800	 5.8980
 5.2860	 5.8650
 5.2910	 5.8740
 5.2970	 5.8340
 5.3020	 5.8190
 5.3070	 5.8120
 5.3130	 5.8010
 5.3180	 5.8050
 5.3240	 5.8770
 5.3290	 5.8580
 5.3350	 5.8150
 5.3400	 5.7910
 5.3460	 5.8310
 5.3510	 5.8080
 5.3570	 5.8150
 5.3620	 5.8080
 5.3680	 5.7700
 5.3730	 5.7740
 5.3790	 5.8080
 5.3850	 5.7620
 5.3900	 5.8030
 5.3960	 5.7920
 5.4010	 5.7030
 5.4070	 5.6870
 5.4130	 5.8140
 5.4180	 5.7740
 5.4240	 5.7640
 5.4300	 5.7430
 5.4350	 5.7020
 5.4410	 5.6110
 5.4470	 5.6060
 5.4530	 5.6490
 5.4580	 5.6490
 5.4640	 5.6030
 5.4700	 5.5590
 5.4760	 5.5480
 5.4810	 5.6080
 5.4870	 5.5410
 5.4930	 5.4800
 5.4990	 5.4450
 5.5050	 5.4980
 5.5110	 5.4760
 5.5160	 5.4730
 5.5220	 5.4300
 5.5280	 5.4460
 5.5340	 5.4150
 5.5400	 5.3220
 5.5460	 5.2770
 5.5520	 5.3040
 5.5580	 5.2900
 5.5640	 5.2950
 5.5700	 5.2440
 5.5760	 5.2140
 5.5820	 5.1640
 5.5880	 5.1490
 5.5940	 5.0090
 5.6000	 4.9520
 5.6060	 4.9420
 5.6120	 4.9730
 5.6180	 4.8950
 5.6240	 4.8510
 5.6300	 4.8200
 5.6360	 4.7710
 5.6420	 4.6510
 5.6490	 4.5910
 5.6550	 4.4630
 5.6610	 4.3730
 5.6670	 4.2250
 5.6730	 4.1680
 5.6800	 4.1270
 5.6860	 4.0470
 5.6920	 3.8640
 5.6980	 3.8050
 5.7040	 3.6590
 5.7110	 3.5480
 5.7170	 3.4950
 5.7230	 3.5060
 5.7300	 3.4440
 5.7360	 3.3830
 5.7420	 3.2690
 5.7490	 3.2850
 5.7550	 3.3670
 5.7620	 3.5880
 5.7680	 3.6390
 5.7740	 3.6870
 5.7810	 3.6960
 5.7870	 3.8000
 5.7940	 3.8330
 5.8000	 3.9340
 5.8070	 4.0160
 5.8130	 4.1330
 5.8200	 4.1560
 5.8260	 4.2480
 5.8330	 4.2590
 5.8390	 4.3780
 5.8460	 4.4230
 5.8530	 4.5070
 5.8590	 4.5530
 5.8660	 4.6320
 5.8720	 4.6090
 5.8790	 4.6780
 5.8860	 4.7050
 5.8920	 4.7200
 5.8990	 4.6500
 5.9060	 4.7690
 5.9130	 4.8310
 5.9190	 4.8390
 5.9260	 4.8760
 5.9330	 4.9240
 5.9400	 4.9410
 5.9470	 5.1130
 5.9530	 5.1210
 5.9600	 5.1480
 5.9670	 5.1840
 5.9740	 5.1450
 5.9810	 4.9860
 5.9880	 4.9650
 5.9950	 4.9240
 6.0020	 4.9610
 6.0090	 4.9070
 6.0160	 4.8610
 6.0230	 4.7880
 6.0300	 4.7830
 6.0370	 4.6660
 6.0440	 4.6990
 6.0510	 4.6920
 6.0580	 4.7050
 6.0650	 4.6820
 6.0720	 4.7240
 6.0790	 4.6470
 6.0860	 4.6810
 6.0930	 4.6510
 6.1000	 4.7070
 6.1080	 4.6770
 6.1150	 4.6860
 6.1220	 4.6200
 6.1290	 4.6790
 6.1370	 4.7290
 6.1440	 4.7740
 6.1510	 4.7000
 6.1580	 4.7630
 6.1660	 4.7700
 6.1730	 4.7870
 6.1800	 4.7640
 6.1880	 4.8160
 6.1950	 4.8170
 6.2030	 4.8730
 6.2100	 4.7940
 6.2170	 4.8300
 6.2250	 4.8350
 6.2320	 4.9050
 6.2400	 4.9000
 6.2470	 4.9120
 6.2550	 4.8170
 6.2630	 4.8910
 6.2700	 4.8840
 6.2780	 4.9620
 6.2850	 4.9870
 6.2930	 5.1040
 6.3010	 5.0920
 6.3080	 5.0870
 6.3160	 5.0580
 6.3240	 5.0810
 6.3310	 5.0090
 6.3390	 5.1090
 6.3470	 5.1300
 6.3550	 5.1380
 6.3620	 5.0910
 6.3700	 5.1950
 6.3780	 5.2080
 6.3860	 5.2780
 6.3940	 5.2250
 6.4020	 5.2280
 6.4100	 5.1190
 6.4180	 5.0750
 6.4260	 5.0080
 6.4330	 5.0590
 6.4410	 5.0920
 6.4490	 5.1190
 6.4580	 5.0260
 6.4660	 5.0590
 6.4740	 5.0330
 6.4820	 5.0570
 6.4900	 5.0320
 6.4980	 5.0970
 6.5060	 4.9930
 6.5140	 5.0000
 6.5230	 4.9190
 6.5310	 4.9120
 6.5390	 4.9240
 6.5470	 4.9930
 6.5550	 4.8390
 6.5640	 4.7680
 6.5720	 4.7210
 6.5800	 4.7920
 6.5890	 4.7960
 6.5970	 4.8380
 6.6060	 4.8250
 6.6140	 4.8870
 6.6220	 4.8450
 6.6310	 4.8550
 6.6390	 4.7970
 6.6480	 4.8640
 6.6560	 4.8410
 6.6650	 4.8240
 6.6740	 4.7420
 6.6820	 4.7760
 6.6910	 4.7580
 6.6990	 4.7860
 6.7080	 4.6500
 6.7170	 4.6230
 6.7260	 4.5550
 6.7340	 4.6230
 6.7430	 4.4750
 6.7520	 4.4320
 6.7610	 4.4110
 6.7690	 4.3850
 6.7780	 4.2570
 6.7870	 4.3730
 6.7960	 4.2960
 6.8050	 4.2070
 6.8140	 4.0520
 6.8230	 4.1070
 6.8320	 4.1810
 6.8410	 4.2500
 6.8500	 4.1710
 6.8590	 4.2650
 6.8680	 4.2690
 6.8770	 4.3240
 6.8860	 4.2550
 6.8950	 4.2870
 6.9050	 4.1970
 6.9140	 4.1970
 6.9230	 4.1620
 6.9320	 4.2160
 6.9420	 4.1000
 6.9510	 4.1890
 6.9600	 4.1550
 6.9700	 4.1510
 6.9790	 4.0820
 6.9880	 4.1030
 6.9980	 4.1050
 7.0070	 4.1470
 7.0170	 4.1200
 7.0260	 4.1740
 7.0360	 4.1490
 7.0450	 4.2670
 7.0550	 4.1720
 7.0650	 4.1510
 7.0740	 4.1460
 7.0840	 4.2650
 7.0940	 4.2440
 7.1030	 4.2940
 7.1130	 4.1730
 7.1230	 4.2660
 7.1330	 4.1670
 7.1420	 4.1470
 7.1520	 4.0630
 7.1620	 4.1290
 7.1720	 4.0330
 7.1820	 3.9500
 7.1920	 3.8830
 7.2020	 3.9360
 7.2120	 3.8350
 7.2220	 3.9530
 7.2320	 3.9140
 7.2420	 3.8620
 7.2520	 3.7750
 7.2620	 3.9010
 7.2730	 3.7760
 7.2830	 3.7730
 7.2930	 3.7870
 7.3030	 3.8840
 7.3140	 3.8470
 7.3240	 3.8840
 7.3340	 3.8280
 7.3450	 3.9590
 7.3550	 3.9790
 7.3660	 4.0560
 7.3760	 4.0280
 7.3870	 4.1290
 7.3970	 4.0760
 7.4080	 4.1190
 7.4180	 4.0360
 7.4290	 4.0840
 7.4400	 4.0350
 7.4500	 4.0610
 7.4610	 4.0010
 7.4720	 4.0450
 7.4830	 3.9280
 7.4930	 3.9510
 7.5040	 3.8060
 7.5150	 3.8370
 7.5260	 3.8400
 7.5370	 3.9140
 7.5480	 3.8670
 7.5590	 3.9150
 7.5700	 3.8800
 7.5810	 4.0230
 7.5920	 3.9320
 7.6030	 3.8800
 7.6140	 3.8120
 7.6260	 3.9110
 7.6370	 3.8460
 7.6480	 3.9560
 7.6590	 3.9390
 7.6710	 4.0290
 7.6820	 3.9380
 7.6930	 3.9650
 7.7050	 3.9160
 7.7160	 3.9940
 7.7280	 3.9340
 7.7390	 3.9430
 7.7510	 3.8600
 7.7630	 3.9120
 7.7740	 3.7790
 7.7860	 3.7650
 7.7980	 3.7130
 7.8090	 3.7620
 7.8210	 3.7480
 7.8330	 3.8390
 7.8450	 3.7530
 7.8570	 3.8360
 7.8690	 3.8170
 7.8810	 3.8970
 7.8930	 3.8370
 7.9050	 3.8450
 7.9170	 3.6810
 7.9290	 3.7390
 7.9410	 3.7000
 7.9530	 3.7740
 7.9650	 3.6490
 7.9780	 3.7470
 7.9900	 3.7040
 8.0020	 3.7260
 8.0150	 3.6430
 8.0270	 3.7410
 8.0390	 3.6760
 8.0520	 3.7740
 8.0640	 3.7400
 8.0770	 3.8700
 8.0900	 3.7980
 8.1020	 3.9640
 8.1150	 3.9210
 8.1280	 4.0350
 8.1400	 4.0770
 8.1530	 4.1690
 8.1660	 4.0050
 8.1790	 4.1500
 8.1920	 4.0490
 8.2050	 4.1580
 8.2180	 4.1120
 8.2310	 4.2630
 8.2440	 4.0090
 8.2570	 4.0020
 8.2700	 4.0520
 8.2830	 4.3200
 8.2970	 4.2930
 8.3100	 4.3380
 8.3230	 4.1900
 8.3370	 4.2500
 8.3500	 4.2220
 8.3640	 4.3190
 8.3770	 4.2170
 8.3910	 4.2740
 8.4040	 4.1190
 8.4180	 4.1810
 8.4320	 4.0320
 8.4450	 4.2040
 8.4590	 4.1510
 8.4730	 4.2390
 8.4870	 4.0480
 8.5010	 4.1400
 8.5150	 4.0430
 8.5290	 4.1990
 8.5430	 4.2410
 8.5570	 4.4140
 8.5710	 4.2610
 8.5850	 4.4820
 8.5990	 4.4900
 8.6140	 4.5630
 8.6280	 4.4930
 8.6420	 4.6640
 8.6570	 4.4960
 8.6710	 4.5870
 8.6860	 4.5350
 8.7000	 4.7100
 8.7150	 4.5920
 8.7300	 4.5610
 8.7440	 4.3730
 8.7590	 4.4540
 8.7740	 4.4200
 8.7890	 4.5260
 8.8040	 4.3070
 8.8190	 4.2880
 8.8340	 4.0860
 8.8490	 4.1940
 8.8640	 4.1570
 8.8790	 4.4160
 8.8940	 4.2770
 8.9100	 4.3260
 8.9250	 4.2140
 8.9400	 4.3590
 8.9560	 4.1480
 8.9710	 4.1230
 8.9870	 4.1600
 9.0020	 4.3200
 9.0180	 4.1270
 9.0340	 4.2740
 9.0500	 4.2090
 9.0650	 4.3430
 9.0810	 4.1640
 9.0970	 4.3130
 9.1130	 4.2900
 9.1290	 4.4320
 9.1450	 4.2260
 9.1610	 4.2860
 9.1780	 4.1360
 9.1940	 4.1620
 9.2100	 3.9890
 9.2270	 4.1970
 9.2430	 4.1130
 9.2600	 4.2920
 9.2760	 4.1960
 9.2930	 4.3480
 9.3090	 4.2610
 9.3260	 4.3610
 9.3430	 4.2850
 9.3600	 4.4170
 9.3770	 4.3360
 9.3940	 4.6140
 9.4110	 4.4800
 9.4280	 4.4950
 9.4450	 4.3320
 9.4620	 4.4470
 9.4800	 4.3080
 9.4970	 4.5700
 9.5140	 4.5510
 9.5320	 4.5910
 9.5500	 4.3000
 9.5670	 4.5330
 9.5850	 4.5420
 9.6030	 4.5800
 9.6200	 4.4670
 9.6380	 4.6730
 9.6560	 4.5330
 9.6740	 4.7150
 9.6920	 4.5710
 9.7100	 4.7600
 9.7290	 4.5850
 9.7470	 4.7070
 9.7650	 4.6990
 9.7840	 4.8130
 9.8020	 4.6320
 9.8210	 4.8720
 9.8390	 4.7440
 9.8580	 4.7340
 9.8770	 4.5680
 9.8960	 4.6790
 9.9150	 4.5390
 9.9340	 4.7190
 9.9530	 4.5180
 9.9720	 4.6170
 9.9910	 4.4620
10.0100	 4.5330
10.0300	 4.4530
10.0490	 4.6780
10.0690	 4.5820
10.0880	 4.8620
10.1080	 4.7970
10.1280	 4.8500
10.1480	 4.6810
10.1670	 4.8910
10.1870	 4.8240
10.2070	 4.9400
10.2280	 4.8620
10.2480	 5.0640
10.2680	 4.8730
10.2890	 4.9050
10.3090	 4.7750
10.3300	 4.9040
10.3500	 4.8910
10.3710	 5.1420
10.3920	 4.9170
10.4120	 5.1510
10.4330	 5.3360
10.4540	 5.6010
10.4760	 5.3450
10.4970	 5.4700
10.5180	 5.4140
10.5390	 5.5290
10.5610	 5.4520
10.5820	 5.6650
10.6040	 5.6220
10.6260	 5.8020
10.6480	 5.6650
10.6700	 5.6940
10.6920	 5.4580
10.7140	 5.5130
10.7360	 5.3080
10.7580	 5.4730
10.7800	 5.3800
10.8030	 5.5520
10.8250	 5.2850
10.8480	 5.3680
10.8710	 5.3200
10.8940	 5.4700
10.9170	 5.2280
10.9400	 5.3120
10.9630	 5.2850
10.9860	 5.5090
11.0090	 5.3180
11.0330	 5.2580
11.0560	 4.9380
11.0800	 5.0680
11.1040	 4.8580
11.1270	 4.8680
11.1510	 4.7230
11.1750	 4.9530
11.2000	 4.9490
11.2240	 5.2140
11.2480	 4.9330
11.2730	 5.1410
11.2970	 5.1520
11.3220	 5.3950
11.3470	 5.1940
11.3720	 5.3400
11.3970	 5.1740
11.4220	 5.2790
11.4470	 4.9740
11.4720	 5.0020
11.4980	 4.9580
11.5230	 5.2560
11.5490	 5.0360
11.5750	 5.2370
11.6000	 5.1040
11.6260	 5.2500
11.6530	 5.0840
11.6790	 5.3080
11.7050	 5.0070
11.7320	 5.1010
11.7580	 5.0220
11.7850	 5.1730
11.8120	 4.9520
11.8390	 5.0210
11.8660	 4.8160
11.8930	 5.1150
11.9200	 5.0380
11.9480	 5.1950
11.9760	 4.8960
12.0030	 5.1210
12.0310	 5.0730
12.0590	 5.2950
12.0870	 4.9160
12.1150	 5.0380
12.1440	 4.9260
12.1720	 5.0680
12.2010	 4.8810
12.2300	 5.1490
12.2590	 4.9680
12.2880	 5.1460
12.3170	 4.9420
12.3460	 5.0360
12.3760	 4.7350
12.4050	 4.9680
12.4350	 4.7760
12.4650	 5.0670
12.4950	 4.8520
12.5250	 5.0500
12.5550	 4.8130
12.5860	 4.9970
12.6170	 4.6930
12.6470	 4.9770
12.6780	 4.7190
12.7090	 4.8340
12.7410	 4.6140
12.7720	 5.0250
12.8030	 4.8050
12.8350	 4.9220
12.8670	 4.6470
12.8990	 4.6800
12.9310	 4.4830
12.9640	 4.8780
12.9960	 4.7090
13.0290	 4.9350
13.0610	 4.6860
13.0940	 4.9240
13.1280	 4.6050
13.1610	 4.8350
13.1940	 4.6500
13.2280	 4.8780
13.2620	 4.5370
13.2960	 4.7860
13.3300	 4.7030
13.3640	 4.9240
13.3990	 4.3900
13.4340	 4.4800
13.4690	 4.3790
13.5040	 4.9740
13.5390	 4.8610
13.5740	 5.0480
13.6100	 4.6370
13.6460	 4.9830
13.6820	 4.8210
13.7180	 4.9520
13.7540	 4.3200
13.7910	 4.4280
13.8280	 4.4620
13.8650	 5.0680
13.9020	 4.8960
13.9390	 5.0640
13.9770	 4.6480
14.0150	 4.9550
14.0530	 4.6940
14.0910	 5.0620
14.1290	 4.7210
14.1680	 5.0520
14.2070	 4.5470
14.2460	 4.8960
14.2850	 4.4410
14.3240	 4.6940
14.3640	 4.3360
14.4040	 4.9940
14.4440	 4.6310
14.4840	 4.7810
14.5250	 4.3350
14.5660	 4.8990
14.6070	 4.5210
14.6480	 4.8890
14.6900	 4.6280
14.7310	 5.0250
14.7730	 4.7200
14.8150	 5.0940
14.8580	 4.1520
14.9010	 4.4540
14.9440	 3.8810
14.9870	 4.2840
15.0300	 4.0740
15.0740	 4.6150
15.1180	 4.1050
15.1620	 4.8790
15.2060	 4.4150
15.2510	 5.0940
15.2960	 4.6380
15.3410	 5.4590
15.3870	 4.5650
