Name: Acer rubrum
Type: Vegetation
Class: Tree
Genus: Acer
Species: rubrum
Sample No.: ACRU-2-17
Owner: UCSB
Wavelength Range: VSWIR
Origin: USA; Massachusetts; Harvard Forest
Collection Date: 7/8/2013
Description: Samples were collected as part of NSF Macrosystem Biology proposal titled: Collaborative Research: Thermal controls on ecosystem metabolism and function: scaling from leaves to canopies to regions. Samples were collected and overnighted to JPL facilities for processing. The same leaves were processed in the Nicolet and then measured using the ASD.
Measurement: Bidirectional reflectance
First Column: X
Second Column: Y
X Units: Wavelength (micrometers)
Y Units: Reflectance (percentage)
First X Value: 0.35
Last X Value: 2.5
Number of X Values: 2151
Additional Information: vegetation.tree.acer.rubrum.vswir.acru-2-17.ucsb.asd.ancillary.txt

 0.3500	 8.4490
 0.3510	 8.8950
 0.3520	 8.8510
 0.3530	 8.9060
 0.3540	 9.4470
 0.3550	 9.0620
 0.3560	 8.7320
 0.3570	 8.7490
 0.3580	 8.9680
 0.3590	 8.9330
 0.3600	 8.8100
 0.3610	 8.7300
 0.3620	 8.6670
 0.3630	 8.7810
 0.3640	 8.8860
 0.3650	 8.8130
 0.3660	 8.7770
 0.3670	 8.6920
 0.3680	 8.6250
 0.3690	 8.7210
 0.3700	 8.7560
 0.3710	 8.8110
 0.3720	 8.8900
 0.3730	 8.7700
 0.3740	 8.7340
 0.3750	 8.7580
 0.3760	 8.7340
 0.3770	 8.6660
 0.3780	 8.6500
 0.3790	 8.6770
 0.3800	 8.6620
 0.3810	 8.7650
 0.3820	 8.7830
 0.3830	 8.6270
 0.3840	 8.5530
 0.3850	 8.6790
 0.3860	 8.7640
 0.3870	 8.5620
 0.3880	 8.6250
 0.3890	 8.6310
 0.3900	 8.5380
 0.3910	 8.6280
 0.3920	 8.6060
 0.3930	 8.5920
 0.3940	 8.6880
 0.3950	 8.7640
 0.3960	 8.7580
 0.3970	 8.6940
 0.3980	 8.6420
 0.3990	 8.6640
 0.4000	 8.6900
 0.4010	 8.6870
 0.4020	 8.6860
 0.4030	 8.7220
 0.4040	 8.7340
 0.4050	 8.6770
 0.4060	 8.6360
 0.4070	 8.6270
 0.4080	 8.6470
 0.4090	 8.6740
 0.4100	 8.6660
 0.4110	 8.6560
 0.4120	 8.6630
 0.4130	 8.6530
 0.4140	 8.6770
 0.4150	 8.7000
 0.4160	 8.6850
 0.4170	 8.7060
 0.4180	 8.7190
 0.4190	 8.7070
 0.4200	 8.6890
 0.4210	 8.6800
 0.4220	 8.6880
 0.4230	 8.7130
 0.4240	 8.7440
 0.4250	 8.7370
 0.4260	 8.7070
 0.4270	 8.7030
 0.4280	 8.7300
 0.4290	 8.7430
 0.4300	 8.7300
 0.4310	 8.7320
 0.4320	 8.7300
 0.4330	 8.7210
 0.4340	 8.7100
 0.4350	 8.7180
 0.4360	 8.7150
 0.4370	 8.7100
 0.4380	 8.7340
 0.4390	 8.7350
 0.4400	 8.7200
 0.4410	 8.7040
 0.4420	 8.6980
 0.4430	 8.7070
 0.4440	 8.7210
 0.4450	 8.7250
 0.4460	 8.7220
 0.4470	 8.7140
 0.4480	 8.7060
 0.4490	 8.7100
 0.4500	 8.7270
 0.4510	 8.7360
 0.4520	 8.7230
 0.4530	 8.7350
 0.4540	 8.7450
 0.4550	 8.7450
 0.4560	 8.7370
 0.4570	 8.7360
 0.4580	 8.7400
 0.4590	 8.7470
 0.4600	 8.7430
 0.4610	 8.7430
 0.4620	 8.7450
 0.4630	 8.7470
 0.4640	 8.7510
 0.4650	 8.7450
 0.4660	 8.7320
 0.4670	 8.7330
 0.4680	 8.7340
 0.4690	 8.7350
 0.4700	 8.7380
 0.4710	 8.7410
 0.4720	 8.7280
 0.4730	 8.7180
 0.4740	 8.7420
 0.4750	 8.7350
 0.4760	 8.7350
 0.4770	 8.7520
 0.4780	 8.7460
 0.4790	 8.7310
 0.4800	 8.7190
 0.4810	 8.7200
 0.4820	 8.7310
 0.4830	 8.7400
 0.4840	 8.7380
 0.4850	 8.7280
 0.4860	 8.7290
 0.4870	 8.7370
 0.4880	 8.7460
 0.4890	 8.7580
 0.4900	 8.7630
 0.4910	 8.7660
 0.4920	 8.7720
 0.4930	 8.7740
 0.4940	 8.7790
 0.4950	 8.7920
 0.4960	 8.8230
 0.4970	 8.8420
 0.4980	 8.8530
 0.4990	 8.8670
 0.5000	 8.8840
 0.5010	 8.9060
 0.5020	 8.9310
 0.5030	 8.9620
 0.5040	 8.9930
 0.5050	 9.0240
 0.5060	 9.0560
 0.5070	 9.1000
 0.5080	 9.1390
 0.5090	 9.1820
 0.5100	 9.2440
 0.5110	 9.3240
 0.5120	 9.4050
 0.5130	 9.4900
 0.5140	 9.6050
 0.5150	 9.7070
 0.5160	 9.8110
 0.5170	 9.9390
 0.5180	10.0710
 0.5190	10.2230
 0.5200	10.3920
 0.5210	10.5560
 0.5220	10.7200
 0.5230	10.8880
 0.5240	11.0600
 0.5250	11.2260
 0.5260	11.3860
 0.5270	11.5400
 0.5280	11.6850
 0.5290	11.8230
 0.5300	11.9470
 0.5310	12.0570
 0.5320	12.1620
 0.5330	12.2550
 0.5340	12.3340
 0.5350	12.4010
 0.5360	12.4670
 0.5370	12.5150
 0.5380	12.5480
 0.5390	12.5840
 0.5400	12.6200
 0.5410	12.6390
 0.5420	12.6420
 0.5430	12.6680
 0.5440	12.7030
 0.5450	12.7420
 0.5460	12.7780
 0.5470	12.8090
 0.5480	12.8330
 0.5490	12.8500
 0.5500	12.8580
 0.5510	12.8610
 0.5520	12.8550
 0.5530	12.8400
 0.5540	12.8170
 0.5550	12.7790
 0.5560	12.7230
 0.5570	12.6550
 0.5580	12.5820
 0.5590	12.5080
 0.5600	12.4300
 0.5610	12.3380
 0.5620	12.2410
 0.5630	12.1400
 0.5640	12.0300
 0.5650	11.9140
 0.5660	11.7990
 0.5670	11.6820
 0.5680	11.5500
 0.5690	11.4260
 0.5700	11.3070
 0.5710	11.1860
 0.5720	11.0680
 0.5730	10.9570
 0.5740	10.8600
 0.5750	10.7820
 0.5760	10.7020
 0.5770	10.6290
 0.5780	10.5680
 0.5790	10.5120
 0.5800	10.4600
 0.5810	10.4090
 0.5820	10.3550
 0.5830	10.3020
 0.5840	10.2460
 0.5850	10.1900
 0.5860	10.1380
 0.5870	10.0960
 0.5880	10.0620
 0.5890	10.0340
 0.5900	10.0140
 0.5910	 9.9990
 0.5920	 9.9830
 0.5930	 9.9660
 0.5940	 9.9500
 0.5950	 9.9370
 0.5960	 9.9260
 0.5970	 9.9160
 0.5980	 9.8980
 0.5990	 9.8750
 0.6000	 9.8520
 0.6010	 9.8340
 0.6020	 9.8100
 0.6030	 9.7810
 0.6040	 9.7550
 0.6050	 9.7340
 0.6060	 9.7100
 0.6070	 9.6810
 0.6080	 9.6550
 0.6090	 9.6180
 0.6100	 9.5670
 0.6110	 9.5070
 0.6120	 9.4790
 0.6130	 9.4660
 0.6140	 9.4500
 0.6150	 9.4280
 0.6160	 9.3970
 0.6170	 9.3700
 0.6180	 9.3540
 0.6190	 9.3340
 0.6200	 9.3140
 0.6210	 9.2950
 0.6220	 9.2740
 0.6230	 9.2620
 0.6240	 9.2520
 0.6250	 9.2390
 0.6260	 9.2370
 0.6270	 9.2300
 0.6280	 9.2230
 0.6290	 9.2220
 0.6300	 9.2130
 0.6310	 9.2050
 0.6320	 9.2020
 0.6330	 9.1970
 0.6340	 9.1860
 0.6350	 9.1710
 0.6360	 9.1560
 0.6370	 9.1350
 0.6380	 9.1160
 0.6390	 9.0950
 0.6400	 9.0700
 0.6410	 9.0420
 0.6420	 9.0160
 0.6430	 8.9950
 0.6440	 8.9730
 0.6450	 8.9510
 0.6460	 8.9280
 0.6470	 8.9070
 0.6480	 8.8910
 0.6490	 8.8780
 0.6500	 8.8680
 0.6510	 8.8640
 0.6520	 8.8520
 0.6530	 8.8410
 0.6540	 8.8350
 0.6550	 8.8320
 0.6560	 8.8310
 0.6570	 8.8270
 0.6580	 8.8130
 0.6590	 8.8040
 0.6600	 8.7950
 0.6610	 8.7870
 0.6620	 8.7890
 0.6630	 8.7810
 0.6640	 8.7730
 0.6650	 8.7760
 0.6660	 8.7770
 0.6670	 8.7750
 0.6680	 8.7760
 0.6690	 8.7880
 0.6700	 8.7950
 0.6710	 8.8030
 0.6720	 8.8140
 0.6730	 8.8300
 0.6740	 8.8490
 0.6750	 8.8680
 0.6760	 8.8860
 0.6770	 8.9150
 0.6780	 8.9390
 0.6790	 8.9600
 0.6800	 8.9910
 0.6810	 9.0220
 0.6820	 9.0570
 0.6830	 9.0950
 0.6840	 9.1250
 0.6850	 9.1620
 0.6860	 9.2040
 0.6870	 9.2520
 0.6880	 9.3040
 0.6890	 9.3660
 0.6900	 9.4410
 0.6910	 9.5330
 0.6920	 9.6600
 0.6930	 9.8200
 0.6940	10.0150
 0.6950	10.2650
 0.6960	10.5770
 0.6970	10.9560
 0.6980	11.4070
 0.6990	11.9280
 0.7000	12.5220
 0.7010	13.1860
 0.7020	13.9060
 0.7030	14.6760
 0.7040	15.4880
 0.7050	16.3360
 0.7060	17.2090
 0.7070	18.1060
 0.7080	19.0250
 0.7090	19.9620
 0.7100	20.9000
 0.7110	21.8520
 0.7120	22.8180
 0.7130	23.7780
 0.7140	24.7460
 0.7150	25.7190
 0.7160	26.6920
 0.7170	27.6580
 0.7180	28.6080
 0.7190	29.5500
 0.7200	30.4950
 0.7210	31.4240
 0.7220	32.3330
 0.7230	33.2260
 0.7240	34.1160
 0.7250	34.9860
 0.7260	35.8300
 0.7270	36.6460
 0.7280	37.4250
 0.7290	38.1790
 0.7300	38.9150
 0.7310	39.6270
 0.7320	40.2960
 0.7330	40.9370
 0.7340	41.5550
 0.7350	42.1420
 0.7360	42.7010
 0.7370	43.2220
 0.7380	43.7050
 0.7390	44.1750
 0.7400	44.6200
 0.7410	45.0370
 0.7420	45.4270
 0.7430	45.7870
 0.7440	46.1230
 0.7450	46.4350
 0.7460	46.7150
 0.7470	46.9680
 0.7480	47.2020
 0.7490	47.4230
 0.7500	47.6330
 0.7510	47.8190
 0.7520	47.9780
 0.7530	48.1190
 0.7540	48.2670
 0.7550	48.3910
 0.7560	48.4920
 0.7570	48.5930
 0.7580	48.6820
 0.7590	48.7590
 0.7600	48.8270
 0.7610	48.8920
 0.7620	48.9660
 0.7630	49.0250
 0.7640	49.0520
 0.7650	49.0850
 0.7660	49.1110
 0.7670	49.1370
 0.7680	49.1770
 0.7690	49.2170
 0.7700	49.2310
 0.7710	49.2250
 0.7720	49.2470
 0.7730	49.2610
 0.7740	49.2690
 0.7750	49.2810
 0.7760	49.2970
 0.7770	49.3160
 0.7780	49.3310
 0.7790	49.3310
 0.7800	49.3290
 0.7810	49.3350
 0.7820	49.3510
 0.7830	49.3650
 0.7840	49.3620
 0.7850	49.3620
 0.7860	49.3770
 0.7870	49.3830
 0.7880	49.3880
 0.7890	49.3950
 0.7900	49.4050
 0.7910	49.4120
 0.7920	49.4060
 0.7930	49.4020
 0.7940	49.4200
 0.7950	49.4190
 0.7960	49.4160
 0.7970	49.4170
 0.7980	49.3980
 0.7990	49.4040
 0.8000	49.4210
 0.8010	49.4260
 0.8020	49.4120
 0.8030	49.3850
 0.8040	49.3730
 0.8050	49.4000
 0.8060	49.4020
 0.8070	49.3890
 0.8080	49.3770
 0.8090	49.3850
 0.8100	49.3880
 0.8110	49.3820
 0.8120	49.3660
 0.8130	49.3480
 0.8140	49.3600
 0.8150	49.3680
 0.8160	49.3430
 0.8170	49.3310
 0.8180	49.3270
 0.8190	49.3190
 0.8200	49.3010
 0.8210	49.2910
 0.8220	49.2970
 0.8230	49.3090
 0.8240	49.3010
 0.8250	49.3040
 0.8260	49.2980
 0.8270	49.2790
 0.8280	49.2720
 0.8290	49.2530
 0.8300	49.2370
 0.8310	49.2400
 0.8320	49.2400
 0.8330	49.2330
 0.8340	49.2240
 0.8350	49.2180
 0.8360	49.2310
 0.8370	49.2340
 0.8380	49.2240
 0.8390	49.2230
 0.8400	49.2240
 0.8410	49.2150
 0.8420	49.2020
 0.8430	49.2190
 0.8440	49.2210
 0.8450	49.2020
 0.8460	49.1810
 0.8470	49.2190
 0.8480	49.2310
 0.8490	49.2190
 0.8500	49.2100
 0.8510	49.2070
 0.8520	49.2120
 0.8530	49.2280
 0.8540	49.2490
 0.8550	49.2460
 0.8560	49.2290
 0.8570	49.2200
 0.8580	49.2370
 0.8590	49.2390
 0.8600	49.2400
 0.8610	49.2450
 0.8620	49.2360
 0.8630	49.2400
 0.8640	49.2460
 0.8650	49.2450
 0.8660	49.2750
 0.8670	49.2740
 0.8680	49.2590
 0.8690	49.2620
 0.8700	49.2600
 0.8710	49.2550
 0.8720	49.2590
 0.8730	49.2860
 0.8740	49.3050
 0.8750	49.3160
 0.8760	49.3170
 0.8770	49.3070
 0.8780	49.3050
 0.8790	49.3090
 0.8800	49.3130
 0.8810	49.3180
 0.8820	49.3270
 0.8830	49.3260
 0.8840	49.3140
 0.8850	49.3240
 0.8860	49.3420
 0.8870	49.3550
 0.8880	49.3580
 0.8890	49.3620
 0.8900	49.3620
 0.8910	49.3580
 0.8920	49.3550
 0.8930	49.3660
 0.8940	49.3620
 0.8950	49.3510
 0.8960	49.3610
 0.8970	49.3880
 0.8980	49.3950
 0.8990	49.3830
 0.9000	49.3830
 0.9010	49.3680
 0.9020	49.3740
 0.9030	49.4080
 0.9040	49.4350
 0.9050	49.4260
 0.9060	49.4060
 0.9070	49.4000
 0.9080	49.4100
 0.9090	49.4250
 0.9100	49.4390
 0.9110	49.4430
 0.9120	49.4080
 0.9130	49.3940
 0.9140	49.4080
 0.9150	49.4320
 0.9160	49.4430
 0.9170	49.4460
 0.9180	49.4410
 0.9190	49.4300
 0.9200	49.4330
 0.9210	49.4390
 0.9220	49.4360
 0.9230	49.4220
 0.9240	49.4120
 0.9250	49.4130
 0.9260	49.4210
 0.9270	49.4170
 0.9280	49.3900
 0.9290	49.3800
 0.9300	49.3880
 0.9310	49.3770
 0.9320	49.3610
 0.9330	49.3310
 0.9340	49.3030
 0.9350	49.3160
 0.9360	49.2920
 0.9370	49.2640
 0.9380	49.2600
 0.9390	49.2760
 0.9400	49.2690
 0.9410	49.2490
 0.9420	49.2220
 0.9430	49.1700
 0.9440	49.1540
 0.9450	49.1470
 0.9460	49.1170
 0.9470	49.0670
 0.9480	49.0470
 0.9490	49.0360
 0.9500	49.0080
 0.9510	48.9830
 0.9520	48.9440
 0.9530	48.8960
 0.9540	48.8520
 0.9550	48.8220
 0.9560	48.7790
 0.9570	48.7400
 0.9580	48.7140
 0.9590	48.6460
 0.9600	48.6160
 0.9610	48.6100
 0.9620	48.5890
 0.9630	48.5600
 0.9640	48.5420
 0.9650	48.5170
 0.9660	48.4720
 0.9670	48.4790
 0.9680	48.4790
 0.9690	48.4710
 0.9700	48.4710
 0.9710	48.4500
 0.9720	48.4160
 0.9730	48.3920
 0.9740	48.3980
 0.9750	48.4140
 0.9760	48.4030
 0.9770	48.3840
 0.9780	48.3930
 0.9790	48.3920
 0.9800	48.3590
 0.9810	48.3410
 0.9820	48.3880
 0.9830	48.3990
 0.9840	48.3900
 0.9850	48.3970
 0.9860	48.4430
 0.9870	48.4390
 0.9880	48.4220
 0.9890	48.4100
 0.9900	48.4060
 0.9910	48.4220
 0.9920	48.4950
 0.9930	48.5680
 0.9940	48.6410
 0.9950	48.7140
 0.9960	48.7870
 0.9970	48.8600
 0.9980	48.9330
 0.9990	49.0060
 1.0000	49.0790
 1.0010	49.1520
 1.0020	49.2250
 1.0030	49.2980
 1.0040	49.3700
 1.0050	49.4430
 1.0060	49.5160
 1.0070	49.5890
 1.0080	49.6620
 1.0090	49.7350
 1.0100	49.7350
 1.0110	49.7460
 1.0120	49.7570
 1.0130	49.7630
 1.0140	49.7710
 1.0150	49.7840
 1.0160	49.7920
 1.0170	49.7930
 1.0180	49.7960
 1.0190	49.8080
 1.0200	49.8190
 1.0210	49.8280
 1.0220	49.8380
 1.0230	49.8490
 1.0240	49.8570
 1.0250	49.8630
 1.0260	49.8720
 1.0270	49.8770
 1.0280	49.8730
 1.0290	49.8770
 1.0300	49.8860
 1.0310	49.8930
 1.0320	49.8990
 1.0330	49.9070
 1.0340	49.9090
 1.0350	49.9160
 1.0360	49.9260
 1.0370	49.9270
 1.0380	49.9330
 1.0390	49.9410
 1.0400	49.9490
 1.0410	49.9590
 1.0420	49.9680
 1.0430	49.9820
 1.0440	49.9850
 1.0450	49.9780
 1.0460	49.9790
 1.0470	49.9750
 1.0480	49.9780
 1.0490	49.9990
 1.0500	50.0070
 1.0510	50.0140
 1.0520	50.0100
 1.0530	50.0100
 1.0540	50.0040
 1.0550	50.0010
 1.0560	49.9990
 1.0570	50.0010
 1.0580	50.0020
 1.0590	50.0040
 1.0600	50.0140
 1.0610	50.0160
 1.0620	50.0090
 1.0630	50.0110
 1.0640	50.0180
 1.0650	50.0220
 1.0660	50.0300
 1.0670	50.0340
 1.0680	50.0350
 1.0690	50.0300
 1.0700	50.0290
 1.0710	50.0310
 1.0720	50.0280
 1.0730	50.0220
 1.0740	50.0180
 1.0750	50.0080
 1.0760	50.0050
 1.0770	50.0060
 1.0780	50.0060
 1.0790	50.0100
 1.0800	50.0090
 1.0810	50.0060
 1.0820	50.0010
 1.0830	49.9960
 1.0840	49.9860
 1.0850	49.9710
 1.0860	49.9590
 1.0870	49.9500
 1.0880	49.9390
 1.0890	49.9310
 1.0900	49.9310
 1.0910	49.9220
 1.0920	49.9080
 1.0930	49.8950
 1.0940	49.8760
 1.0950	49.8650
 1.0960	49.8590
 1.0970	49.8490
 1.0980	49.8410
 1.0990	49.8320
 1.1000	49.8180
 1.1010	49.8050
 1.1020	49.7950
 1.1030	49.7840
 1.1040	49.7650
 1.1050	49.7460
 1.1060	49.7320
 1.1070	49.7190
 1.1080	49.7010
 1.1090	49.6820
 1.1100	49.6660
 1.1110	49.6460
 1.1120	49.6270
 1.1130	49.6150
 1.1140	49.5950
 1.1150	49.5640
 1.1160	49.5400
 1.1170	49.5180
 1.1180	49.4950
 1.1190	49.4750
 1.1200	49.4540
 1.1210	49.4280
 1.1220	49.4000
 1.1230	49.3680
 1.1240	49.3370
 1.1250	49.3060
 1.1260	49.2790
 1.1270	49.2430
 1.1280	49.2050
 1.1290	49.1630
 1.1300	49.1120
 1.1310	49.0620
 1.1320	49.0130
 1.1330	48.9600
 1.1340	48.9080
 1.1350	48.8440
 1.1360	48.7700
 1.1370	48.6980
 1.1380	48.6150
 1.1390	48.5280
 1.1400	48.4450
 1.1410	48.3570
 1.1420	48.2660
 1.1430	48.1750
 1.1440	48.0840
 1.1450	47.9880
 1.1460	47.8970
 1.1470	47.8060
 1.1480	47.7190
 1.1490	47.6340
 1.1500	47.5580
 1.1510	47.4880
 1.1520	47.4220
 1.1530	47.3670
 1.1540	47.3110
 1.1550	47.2570
 1.1560	47.2110
 1.1570	47.1660
 1.1580	47.1250
 1.1590	47.0900
 1.1600	47.0590
 1.1610	47.0330
 1.1620	47.0130
 1.1630	46.9940
 1.1640	46.9800
 1.1650	46.9680
 1.1660	46.9610
 1.1670	46.9510
 1.1680	46.9410
 1.1690	46.9330
 1.1700	46.9240
 1.1710	46.9170
 1.1720	46.9130
 1.1730	46.9090
 1.1740	46.9050
 1.1750	46.9000
 1.1760	46.8920
 1.1770	46.8870
 1.1780	46.8820
 1.1790	46.8770
 1.1800	46.8740
 1.1810	46.8690
 1.1820	46.8590
 1.1830	46.8530
 1.1840	46.8480
 1.1850	46.8390
 1.1860	46.8360
 1.1870	46.8340
 1.1880	46.8270
 1.1890	46.8190
 1.1900	46.8130
 1.1910	46.8030
 1.1920	46.7960
 1.1930	46.7910
 1.1940	46.7870
 1.1950	46.7850
 1.1960	46.7810
 1.1970	46.7780
 1.1980	46.7760
 1.1990	46.7720
 1.2000	46.7700
 1.2010	46.7730
 1.2020	46.7790
 1.2030	46.7860
 1.2040	46.7920
 1.2050	46.7960
 1.2060	46.7970
 1.2070	46.7970
 1.2080	46.8000
 1.2090	46.8060
 1.2100	46.8140
 1.2110	46.8220
 1.2120	46.8310
 1.2130	46.8420
 1.2140	46.8550
 1.2150	46.8660
 1.2160	46.8800
 1.2170	46.8910
 1.2180	46.9030
 1.2190	46.9140
 1.2200	46.9280
 1.2210	46.9470
 1.2220	46.9600
 1.2230	46.9740
 1.2240	46.9910
 1.2250	47.0000
 1.2260	47.0110
 1.2270	47.0250
 1.2280	47.0330
 1.2290	47.0470
 1.2300	47.0640
 1.2310	47.0750
 1.2320	47.0860
 1.2330	47.0920
 1.2340	47.0970
 1.2350	47.0930
 1.2360	47.0970
 1.2370	47.1030
 1.2380	47.1100
 1.2390	47.1190
 1.2400	47.1230
 1.2410	47.1260
 1.2420	47.1290
 1.2430	47.1360
 1.2440	47.1470
 1.2450	47.1600
 1.2460	47.1710
 1.2470	47.1760
 1.2480	47.1810
 1.2490	47.1870
 1.2500	47.1890
 1.2510	47.1920
 1.2520	47.1930
 1.2530	47.1900
 1.2540	47.1860
 1.2550	47.1850
 1.2560	47.1860
 1.2570	47.1880
 1.2580	47.1890
 1.2590	47.1920
 1.2600	47.1970
 1.2610	47.1950
 1.2620	47.1890
 1.2630	47.1860
 1.2640	47.1780
 1.2650	47.1690
 1.2660	47.1640
 1.2670	47.1570
 1.2680	47.1480
 1.2690	47.1390
 1.2700	47.1290
 1.2710	47.1200
 1.2720	47.1130
 1.2730	47.1050
 1.2740	47.1020
 1.2750	47.0930
 1.2760	47.0780
 1.2770	47.0700
 1.2780	47.0560
 1.2790	47.0440
 1.2800	47.0370
 1.2810	47.0200
 1.2820	47.0020
 1.2830	46.9850
 1.2840	46.9690
 1.2850	46.9550
 1.2860	46.9380
 1.2870	46.9200
 1.2880	46.8980
 1.2890	46.8750
 1.2900	46.8530
 1.2910	46.8340
 1.2920	46.8170
 1.2930	46.7970
 1.2940	46.7710
 1.2950	46.7440
 1.2960	46.7120
 1.2970	46.6760
 1.2980	46.6400
 1.2990	46.6040
 1.3000	46.5650
 1.3010	46.5260
 1.3020	46.4900
 1.3030	46.4500
 1.3040	46.4070
 1.3050	46.3610
 1.3060	46.3110
 1.3070	46.2650
 1.3080	46.2150
 1.3090	46.1630
 1.3100	46.1100
 1.3110	46.0490
 1.3120	45.9880
 1.3130	45.9300
 1.3140	45.8680
 1.3150	45.8080
 1.3160	45.7400
 1.3170	45.6690
 1.3180	45.5910
 1.3190	45.5110
 1.3200	45.4290
 1.3210	45.3490
 1.3220	45.2720
 1.3230	45.1940
 1.3240	45.1120
 1.3250	45.0270
 1.3260	44.9340
 1.3270	44.8380
 1.3280	44.7400
 1.3290	44.6430
 1.3300	44.5490
 1.3310	44.4530
 1.3320	44.3560
 1.3330	44.2560
 1.3340	44.1520
 1.3350	44.0470
 1.3360	43.9440
 1.3370	43.8400
 1.3380	43.7380
 1.3390	43.6370
 1.3400	43.5310
 1.3410	43.4270
 1.3420	43.3250
 1.3430	43.2200
 1.3440	43.1150
 1.3450	43.0100
 1.3460	42.9020
 1.3470	42.7980
 1.3480	42.6940
 1.3490	42.5920
 1.3500	42.4950
 1.3510	42.3940
 1.3520	42.2920
 1.3530	42.1920
 1.3540	42.0920
 1.3550	41.9920
 1.3560	41.8920
 1.3570	41.7920
 1.3580	41.6900
 1.3590	41.5890
 1.3600	41.4840
 1.3610	41.3740
 1.3620	41.2570
 1.3630	41.1360
 1.3640	41.0110
 1.3650	40.8810
 1.3660	40.7470
 1.3670	40.6070
 1.3680	40.4550
 1.3690	40.2930
 1.3700	40.1210
 1.3710	39.9370
 1.3720	39.7430
 1.3730	39.5380
 1.3740	39.3180
 1.3750	39.0800
 1.3760	38.8220
 1.3770	38.5460
 1.3780	38.2450
 1.3790	37.9230
 1.3800	37.5830
 1.3810	37.2190
 1.3820	36.8400
 1.3830	36.4460
 1.3840	36.0290
 1.3850	35.5920
 1.3860	35.1370
 1.3870	34.6570
 1.3880	34.1720
 1.3890	33.6740
 1.3900	33.1600
 1.3910	32.6410
 1.3920	32.1100
 1.3930	31.5680
 1.3940	31.0270
 1.3950	30.4800
 1.3960	29.9370
 1.3970	29.4040
 1.3980	28.8760
 1.3990	28.3660
 1.4000	27.8680
 1.4010	27.3780
 1.4020	26.9070
 1.4030	26.4490
 1.4040	26.0090
 1.4050	25.5910
 1.4060	25.1910
 1.4070	24.8150
 1.4080	24.4630
 1.4090	24.1300
 1.4100	23.8210
 1.4110	23.5300
 1.4120	23.2600
 1.4130	23.0090
 1.4140	22.7770
 1.4150	22.5680
 1.4160	22.3760
 1.4170	22.2020
 1.4180	22.0480
 1.4190	21.9060
 1.4200	21.7770
 1.4210	21.6620
 1.4220	21.5580
 1.4230	21.4650
 1.4240	21.3820
 1.4250	21.3080
 1.4260	21.2440
 1.4270	21.1870
 1.4280	21.1410
 1.4290	21.1010
 1.4300	21.0680
 1.4310	21.0410
 1.4320	21.0220
 1.4330	21.0060
 1.4340	20.9970
 1.4350	20.9890
 1.4360	20.9850
 1.4370	20.9840
 1.4380	20.9860
 1.4390	20.9920
 1.4400	21.0020
 1.4410	21.0150
 1.4420	21.0320
 1.4430	21.0480
 1.4440	21.0680
 1.4450	21.0880
 1.4460	21.1080
 1.4470	21.1320
 1.4480	21.1540
 1.4490	21.1790
 1.4500	21.2080
 1.4510	21.2360
 1.4520	21.2660
 1.4530	21.2980
 1.4540	21.3330
 1.4550	21.3700
 1.4560	21.4080
 1.4570	21.4500
 1.4580	21.4930
 1.4590	21.5390
 1.4600	21.5920
 1.4610	21.6470
 1.4620	21.7080
 1.4630	21.7750
 1.4640	21.8470
 1.4650	21.9230
 1.4660	22.0030
 1.4670	22.0880
 1.4680	22.1820
 1.4690	22.2790
 1.4700	22.3810
 1.4710	22.4910
 1.4720	22.6010
 1.4730	22.7140
 1.4740	22.8330
 1.4750	22.9530
 1.4760	23.0780
 1.4770	23.2020
 1.4780	23.3270
 1.4790	23.4550
 1.4800	23.5830
 1.4810	23.7130
 1.4820	23.8460
 1.4830	23.9790
 1.4840	24.1140
 1.4850	24.2490
 1.4860	24.3850
 1.4870	24.5220
 1.4880	24.6570
 1.4890	24.7950
 1.4900	24.9330
 1.4910	25.0710
 1.4920	25.2090
 1.4930	25.3480
 1.4940	25.4840
 1.4950	25.6210
 1.4960	25.7560
 1.4970	25.8900
 1.4980	26.0240
 1.4990	26.1560
 1.5000	26.2880
 1.5010	26.4180
 1.5020	26.5490
 1.5030	26.6820
 1.5040	26.8140
 1.5050	26.9440
 1.5060	27.0730
 1.5070	27.2020
 1.5080	27.3280
 1.5090	27.4500
 1.5100	27.5770
 1.5110	27.7000
 1.5120	27.8230
 1.5130	27.9470
 1.5140	28.0670
 1.5150	28.1850
 1.5160	28.3040
 1.5170	28.4210
 1.5180	28.5360
 1.5190	28.6530
 1.5200	28.7700
 1.5210	28.8840
 1.5220	28.9990
 1.5230	29.1150
 1.5240	29.2280
 1.5250	29.3420
 1.5260	29.4530
 1.5270	29.5590
 1.5280	29.6670
 1.5290	29.7710
 1.5300	29.8710
 1.5310	29.9710
 1.5320	30.0670
 1.5330	30.1640
 1.5340	30.2640
 1.5350	30.3620
 1.5360	30.4610
 1.5370	30.5590
 1.5380	30.6530
 1.5390	30.7500
 1.5400	30.8440
 1.5410	30.9380
 1.5420	31.0270
 1.5430	31.1140
 1.5440	31.2020
 1.5450	31.2870
 1.5460	31.3740
 1.5470	31.4640
 1.5480	31.5500
 1.5490	31.6350
 1.5500	31.7200
 1.5510	31.8040
 1.5520	31.8870
 1.5530	31.9680
 1.5540	32.0440
 1.5550	32.1170
 1.5560	32.1880
 1.5570	32.2590
 1.5580	32.3310
 1.5590	32.4020
 1.5600	32.4770
 1.5610	32.5480
 1.5620	32.6170
 1.5630	32.6840
 1.5640	32.7490
 1.5650	32.8150
 1.5660	32.8840
 1.5670	32.9520
 1.5680	33.0170
 1.5690	33.0780
 1.5700	33.1380
 1.5710	33.2000
 1.5720	33.2630
 1.5730	33.3240
 1.5740	33.3870
 1.5750	33.4490
 1.5760	33.5080
 1.5770	33.5690
 1.5780	33.6260
 1.5790	33.6770
 1.5800	33.7300
 1.5810	33.7840
 1.5820	33.8370
 1.5830	33.8920
 1.5840	33.9460
 1.5850	33.9960
 1.5860	34.0460
 1.5870	34.0990
 1.5880	34.1530
 1.5890	34.2090
 1.5900	34.2640
 1.5910	34.3160
 1.5920	34.3630
 1.5930	34.4050
 1.5940	34.4470
 1.5950	34.4930
 1.5960	34.5390
 1.5970	34.5840
 1.5980	34.6280
 1.5990	34.6720
 1.6000	34.7110
 1.6010	34.7510
 1.6020	34.7940
 1.6030	34.8350
 1.6040	34.8780
 1.6050	34.9220
 1.6060	34.9640
 1.6070	35.0010
 1.6080	35.0400
 1.6090	35.0770
 1.6100	35.1130
 1.6110	35.1510
 1.6120	35.1860
 1.6130	35.2200
 1.6140	35.2510
 1.6150	35.2790
 1.6160	35.3110
 1.6170	35.3420
 1.6180	35.3720
 1.6190	35.4010
 1.6200	35.4310
 1.6210	35.4580
 1.6220	35.4860
 1.6230	35.5170
 1.6240	35.5420
 1.6250	35.5670
 1.6260	35.5940
 1.6270	35.6190
 1.6280	35.6440
 1.6290	35.6640
 1.6300	35.6810
 1.6310	35.6980
 1.6320	35.7140
 1.6330	35.7260
 1.6340	35.7380
 1.6350	35.7450
 1.6360	35.7450
 1.6370	35.7480
 1.6380	35.7520
 1.6390	35.7500
 1.6400	35.7480
 1.6410	35.7390
 1.6420	35.7240
 1.6430	35.7100
 1.6440	35.6930
 1.6450	35.6760
 1.6460	35.6590
 1.6470	35.6440
 1.6480	35.6310
 1.6490	35.6130
 1.6500	35.5950
 1.6510	35.5720
 1.6520	35.5500
 1.6530	35.5330
 1.6540	35.5200
 1.6550	35.5130
 1.6560	35.5050
 1.6570	35.5020
 1.6580	35.5060
 1.6590	35.5100
 1.6600	35.5210
 1.6610	35.5380
 1.6620	35.5500
 1.6630	35.5670
 1.6640	35.5840
 1.6650	35.6000
 1.6660	35.6240
 1.6670	35.6430
 1.6680	35.6570
 1.6690	35.6720
 1.6700	35.6820
 1.6710	35.6900
 1.6720	35.6980
 1.6730	35.7020
 1.6740	35.7040
 1.6750	35.7020
 1.6760	35.7020
 1.6770	35.7020
 1.6780	35.6940
 1.6790	35.6870
 1.6800	35.6740
 1.6810	35.6500
 1.6820	35.6260
 1.6830	35.5990
 1.6840	35.5700
 1.6850	35.5430
 1.6860	35.5110
 1.6870	35.4770
 1.6880	35.4400
 1.6890	35.4000
 1.6900	35.3640
 1.6910	35.3290
 1.6920	35.2950
 1.6930	35.2610
 1.6940	35.2270
 1.6950	35.1930
 1.6960	35.1590
 1.6970	35.1250
 1.6980	35.0910
 1.6990	35.0580
 1.7000	35.0240
 1.7010	34.9910
 1.7020	34.9520
 1.7030	34.9110
 1.7040	34.8690
 1.7050	34.8220
 1.7060	34.7770
 1.7070	34.7320
 1.7080	34.6890
 1.7090	34.6480
 1.7100	34.6060
 1.7110	34.5650
 1.7120	34.5200
 1.7130	34.4720
 1.7140	34.4240
 1.7150	34.3760
 1.7160	34.3290
 1.7170	34.2840
 1.7180	34.2430
 1.7190	34.2040
 1.7200	34.1590
 1.7210	34.1140
 1.7220	34.0670
 1.7230	34.0140
 1.7240	33.9690
 1.7250	33.9280
 1.7260	33.8900
 1.7270	33.8600
 1.7280	33.8240
 1.7290	33.7910
 1.7300	33.7630
 1.7310	33.7320
 1.7320	33.7050
 1.7330	33.6750
 1.7340	33.6380
 1.7350	33.6040
 1.7360	33.5720
 1.7370	33.5400
 1.7380	33.5090
 1.7390	33.4730
 1.7400	33.4320
 1.7410	33.3920
 1.7420	33.3500
 1.7430	33.3060
 1.7440	33.2650
 1.7450	33.2160
 1.7460	33.1610
 1.7470	33.1070
 1.7480	33.0500
 1.7490	32.9900
 1.7500	32.9260
 1.7510	32.8660
 1.7520	32.8020
 1.7530	32.7440
 1.7540	32.6940
 1.7550	32.6350
 1.7560	32.5790
 1.7570	32.5220
 1.7580	32.4600
 1.7590	32.4030
 1.7600	32.3450
 1.7610	32.2890
 1.7620	32.2340
 1.7630	32.1810
 1.7640	32.1290
 1.7650	32.0750
 1.7660	32.0260
 1.7670	31.9830
 1.7680	31.9360
 1.7690	31.8880
 1.7700	31.8440
 1.7710	31.7950
 1.7720	31.7520
 1.7730	31.7170
 1.7740	31.6800
 1.7750	31.6440
 1.7760	31.6090
 1.7770	31.5760
 1.7780	31.5420
 1.7790	31.5090
 1.7800	31.4760
 1.7810	31.4410
 1.7820	31.4100
 1.7830	31.3790
 1.7840	31.3520
 1.7850	31.3260
 1.7860	31.3010
 1.7870	31.2760
 1.7880	31.2550
 1.7890	31.2360
 1.7900	31.2250
 1.7910	31.2100
 1.7920	31.1940
 1.7930	31.1780
 1.7940	31.1570
 1.7950	31.1440
 1.7960	31.1380
 1.7970	31.1320
 1.7980	31.1310
 1.7990	31.1270
 1.8000	31.1200
 1.8010	31.1130
 1.8020	31.1040
 1.8030	31.0960
 1.8040	31.0840
 1.8050	31.0790
 1.8060	31.0790
 1.8070	31.0740
 1.8080	31.0720
 1.8090	31.0680
 1.8100	31.0600
 1.8110	31.0570
 1.8120	31.0550
 1.8130	31.0540
 1.8140	31.0490
 1.8150	31.0460
 1.8160	31.0410
 1.8170	31.0320
 1.8180	31.0260
 1.8190	31.0170
 1.8200	31.0120
 1.8210	31.0110
 1.8220	31.0060
 1.8230	31.0020
 1.8240	30.9930
 1.8250	30.9750
 1.8260	30.9600
 1.8270	30.9240
 1.8280	30.8870
 1.8290	30.8500
 1.8300	30.8140
 1.8310	30.7770
 1.8320	30.7410
 1.8330	30.7040
 1.8340	30.6670
 1.8350	30.6670
 1.8360	30.6140
 1.8370	30.5660
 1.8380	30.5160
 1.8390	30.4610
 1.8400	30.4110
 1.8410	30.3480
 1.8420	30.2810
 1.8430	30.2030
 1.8440	30.1160
 1.8450	30.0080
 1.8460	29.8920
 1.8470	29.7790
 1.8480	29.6580
 1.8490	29.5290
 1.8500	29.3930
 1.8510	29.2570
 1.8520	29.0990
 1.8530	28.9260
 1.8540	28.7530
 1.8550	28.5650
 1.8560	28.3620
 1.8570	28.1540
 1.8580	27.9250
 1.8590	27.6810
 1.8600	27.4200
 1.8610	27.1460
 1.8620	26.8510
 1.8630	26.5440
 1.8640	26.2250
 1.8650	25.8790
 1.8660	25.5110
 1.8670	25.1210
 1.8680	24.7040
 1.8690	24.2740
 1.8700	23.8270
 1.8710	23.3670
 1.8720	22.8870
 1.8730	22.3930
 1.8740	21.8820
 1.8750	21.3560
 1.8760	20.8180
 1.8770	20.2760
 1.8780	19.7270
 1.8790	19.1730
 1.8800	18.6270
 1.8810	18.0830
 1.8820	17.5380
 1.8830	16.9940
 1.8840	16.4510
 1.8850	15.9140
 1.8860	15.3900
 1.8870	14.8760
 1.8880	14.3790
 1.8890	13.9040
 1.8900	13.4510
 1.8910	13.0230
 1.8920	12.6180
 1.8930	12.2440
 1.8940	11.8920
 1.8950	11.5580
 1.8960	11.2500
 1.8970	10.9670
 1.8980	10.7080
 1.8990	10.4760
 1.9000	10.2650
 1.9010	10.0850
 1.9020	 9.9110
 1.9030	 9.7560
 1.9040	 9.6120
 1.9050	 9.4900
 1.9060	 9.3810
 1.9070	 9.2870
 1.9080	 9.2130
 1.9090	 9.1430
 1.9100	 9.0760
 1.9110	 9.0190
 1.9120	 8.9750
 1.9130	 8.9330
 1.9140	 8.8970
 1.9150	 8.8690
 1.9160	 8.8440
 1.9170	 8.8230
 1.9180	 8.8090
 1.9190	 8.7990
 1.9200	 8.7970
 1.9210	 8.7930
 1.9220	 8.7870
 1.9230	 8.7780
 1.9240	 8.7780
 1.9250	 8.7790
 1.9260	 8.7890
 1.9270	 8.8060
 1.9280	 8.8240
 1.9290	 8.8410
 1.9300	 8.8560
 1.9310	 8.8690
 1.9320	 8.8860
 1.9330	 8.9040
 1.9340	 8.9180
 1.9350	 8.9390
 1.9360	 8.9670
 1.9370	 8.9930
 1.9380	 9.0210
 1.9390	 9.0520
 1.9400	 9.0810
 1.9410	 9.1140
 1.9420	 9.1490
 1.9430	 9.1800
 1.9440	 9.2140
 1.9450	 9.2500
 1.9460	 9.2850
 1.9470	 9.3170
 1.9480	 9.3560
 1.9490	 9.3990
 1.9500	 9.4400
 1.9510	 9.4900
 1.9520	 9.5390
 1.9530	 9.5870
 1.9540	 9.6370
 1.9550	 9.6850
 1.9560	 9.7300
 1.9570	 9.7790
 1.9580	 9.8280
 1.9590	 9.8830
 1.9600	 9.9440
 1.9610	10.0020
 1.9620	10.0620
 1.9630	10.1170
 1.9640	10.1750
 1.9650	10.2310
 1.9660	10.2880
 1.9670	10.3520
 1.9680	10.4140
 1.9690	10.4750
 1.9700	10.5400
 1.9710	10.6070
 1.9720	10.6730
 1.9730	10.7410
 1.9740	10.8090
 1.9750	10.8810
 1.9760	10.9540
 1.9770	11.0230
 1.9780	11.0970
 1.9790	11.1730
 1.9800	11.2490
 1.9810	11.3280
 1.9820	11.4180
 1.9830	11.5000
 1.9840	11.5800
 1.9850	11.6600
 1.9860	11.7380
 1.9870	11.8150
 1.9880	11.8930
 1.9890	11.9790
 1.9900	12.0710
 1.9910	12.1570
 1.9920	12.2430
 1.9930	12.3290
 1.9940	12.4130
 1.9950	12.4890
 1.9960	12.5740
 1.9970	12.6630
 1.9980	12.7490
 1.9990	12.8380
 2.0000	12.9230
 2.0010	13.0090
 2.0020	13.0910
 2.0030	13.1720
 2.0040	13.2610
 2.0050	13.3480
 2.0060	13.4370
 2.0070	13.5220
 2.0080	13.6070
 2.0090	13.6900
 2.0100	13.7700
 2.0110	13.8510
 2.0120	13.9290
 2.0130	14.0100
 2.0140	14.0900
 2.0150	14.1680
 2.0160	14.2510
 2.0170	14.3310
 2.0180	14.4110
 2.0190	14.4910
 2.0200	14.5690
 2.0210	14.6450
 2.0220	14.7210
 2.0230	14.7980
 2.0240	14.8690
 2.0250	14.9360
 2.0260	15.0030
 2.0270	15.0650
 2.0280	15.1270
 2.0290	15.1950
 2.0300	15.2570
 2.0310	15.3200
 2.0320	15.3830
 2.0330	15.4430
 2.0340	15.5000
 2.0350	15.5590
 2.0360	15.6180
 2.0370	15.6760
 2.0380	15.7370
 2.0390	15.7940
 2.0400	15.8500
 2.0410	15.9020
 2.0420	15.9500
 2.0430	15.9960
 2.0440	16.0430
 2.0450	16.0850
 2.0460	16.1310
 2.0470	16.1800
 2.0480	16.2270
 2.0490	16.2750
 2.0500	16.3230
 2.0510	16.3690
 2.0520	16.4170
 2.0530	16.4690
 2.0540	16.5180
 2.0550	16.5670
 2.0560	16.6150
 2.0570	16.6640
 2.0580	16.7100
 2.0590	16.7600
 2.0600	16.8150
 2.0610	16.8630
 2.0620	16.9100
 2.0630	16.9550
 2.0640	16.9940
 2.0650	17.0400
 2.0660	17.0870
 2.0670	17.1350
 2.0680	17.1900
 2.0690	17.2390
 2.0700	17.2840
 2.0710	17.3320
 2.0720	17.3800
 2.0730	17.4260
 2.0740	17.4710
 2.0750	17.5200
 2.0760	17.5630
 2.0770	17.6010
 2.0780	17.6420
 2.0790	17.6830
 2.0800	17.7240
 2.0810	17.7630
 2.0820	17.8060
 2.0830	17.8520
 2.0840	17.8960
 2.0850	17.9460
 2.0860	17.9910
 2.0870	18.0310
 2.0880	18.0720
 2.0890	18.1160
 2.0900	18.1620
 2.0910	18.2030
 2.0920	18.2480
 2.0930	18.2860
 2.0940	18.3160
 2.0950	18.3480
 2.0960	18.3790
 2.0970	18.4100
 2.0980	18.4400
 2.0990	18.4700
 2.1000	18.5010
 2.1010	18.5300
 2.1020	18.5560
 2.1030	18.5850
 2.1040	18.6130
 2.1050	18.6510
 2.1060	18.6800
 2.1070	18.7120
 2.1080	18.7370
 2.1090	18.7530
 2.1100	18.7780
 2.1110	18.8080
 2.1120	18.8350
 2.1130	18.8670
 2.1140	18.8900
 2.1150	18.9030
 2.1160	18.9230
 2.1170	18.9420
 2.1180	18.9620
 2.1190	18.9900
 2.1200	19.0110
 2.1210	19.0280
 2.1220	19.0450
 2.1230	19.0610
 2.1240	19.0740
 2.1250	19.0870
 2.1260	19.0980
 2.1270	19.1120
 2.1280	19.1240
 2.1290	19.1400
 2.1300	19.1580
 2.1310	19.1790
 2.1320	19.2040
 2.1330	19.2240
 2.1340	19.2450
 2.1350	19.2660
 2.1360	19.2790
 2.1370	19.2990
 2.1380	19.3270
 2.1390	19.3530
 2.1400	19.3840
 2.1410	19.4100
 2.1420	19.4390
 2.1430	19.4670
 2.1440	19.4930
 2.1450	19.5190
 2.1460	19.5440
 2.1470	19.5650
 2.1480	19.5900
 2.1490	19.6180
 2.1500	19.6450
 2.1510	19.6770
 2.1520	19.7000
 2.1530	19.7180
 2.1540	19.7370
 2.1550	19.7530
 2.1560	19.7680
 2.1570	19.7870
 2.1580	19.8010
 2.1590	19.8070
 2.1600	19.8180
 2.1610	19.8350
 2.1620	19.8450
 2.1630	19.8600
 2.1640	19.8800
 2.1650	19.8900
 2.1660	19.8920
 2.1670	19.9040
 2.1680	19.9160
 2.1690	19.9300
 2.1700	19.9560
 2.1710	19.9720
 2.1720	19.9810
 2.1730	19.9960
 2.1740	20.0120
 2.1750	20.0280
 2.1760	20.0470
 2.1770	20.0660
 2.1780	20.0870
 2.1790	20.1050
 2.1800	20.1230
 2.1810	20.1400
 2.1820	20.1530
 2.1830	20.1640
 2.1840	20.1810
 2.1850	20.2000
 2.1860	20.2190
 2.1870	20.2450
 2.1880	20.2630
 2.1890	20.2770
 2.1900	20.2920
 2.1910	20.2990
 2.1920	20.3170
 2.1930	20.3430
 2.1940	20.3670
 2.1950	20.4000
 2.1960	20.4270
 2.1970	20.4540
 2.1980	20.4760
 2.1990	20.4910
 2.2000	20.5090
 2.2010	20.5210
 2.2020	20.5370
 2.2030	20.5560
 2.2040	20.5720
 2.2050	20.5880
 2.2060	20.6040
 2.2070	20.6170
 2.2080	20.6270
 2.2090	20.6380
 2.2100	20.6410
 2.2110	20.6560
 2.2120	20.6810
 2.2130	20.6960
 2.2140	20.7130
 2.2150	20.7320
 2.2160	20.7440
 2.2170	20.7600
 2.2180	20.7900
 2.2190	20.8050
 2.2200	20.8100
 2.2210	20.8170
 2.2220	20.8230
 2.2230	20.8210
 2.2240	20.8140
 2.2250	20.8040
 2.2260	20.7830
 2.2270	20.7670
 2.2280	20.7590
 2.2290	20.7400
 2.2300	20.7180
 2.2310	20.6890
 2.2320	20.6520
 2.2330	20.6220
 2.2340	20.5950
 2.2350	20.5740
 2.2360	20.5480
 2.2370	20.5270
 2.2380	20.4900
 2.2390	20.4430
 2.2400	20.3950
 2.2410	20.3380
 2.2420	20.2800
 2.2430	20.2150
 2.2440	20.1600
 2.2450	20.1070
 2.2460	20.0520
 2.2470	20.0030
 2.2480	19.9560
 2.2490	19.9120
 2.2500	19.8570
 2.2510	19.7980
 2.2520	19.7430
 2.2530	19.6720
 2.2540	19.6200
 2.2550	19.5930
 2.2560	19.5530
 2.2570	19.5130
 2.2580	19.4730
 2.2590	19.4270
 2.2600	19.3800
 2.2610	19.3330
 2.2620	19.2870
 2.2630	19.2420
 2.2640	19.1940
 2.2650	19.1500
 2.2660	19.1080
 2.2670	19.0600
 2.2680	19.0080
 2.2690	18.9580
 2.2700	18.9040
 2.2710	18.8590
 2.2720	18.8190
 2.2730	18.7770
 2.2740	18.7440
 2.2750	18.6990
 2.2760	18.6430
 2.2770	18.5990
 2.2780	18.5510
 2.2790	18.5180
 2.2800	18.5050
 2.2810	18.4750
 2.2820	18.4460
 2.2830	18.4100
 2.2840	18.3660
 2.2850	18.3200
 2.2860	18.2660
 2.2870	18.2200
 2.2880	18.1670
 2.2890	18.1240
 2.2900	18.1060
 2.2910	18.0630
 2.2920	18.0070
 2.2930	17.9510
 2.2940	17.8740
 2.2950	17.8100
 2.2960	17.7600
 2.2970	17.6980
 2.2980	17.6330
 2.2990	17.5640
 2.3000	17.4850
 2.3010	17.4140
 2.3020	17.3670
 2.3030	17.3150
 2.3040	17.2600
 2.3050	17.2230
 2.3060	17.1790
 2.3070	17.1260
 2.3080	17.0760
 2.3090	17.0140
 2.3100	16.9620
 2.3110	16.9240
 2.3120	16.8880
 2.3130	16.8730
 2.3140	16.8440
 2.3150	16.8100
 2.3160	16.7740
 2.3170	16.7380
 2.3180	16.7010
 2.3190	16.6540
 2.3200	16.6190
 2.3210	16.5860
 2.3220	16.5610
 2.3230	16.5520
 2.3240	16.5290
 2.3250	16.5050
 2.3260	16.4750
 2.3270	16.4360
 2.3280	16.3940
 2.3290	16.3470
 2.3300	16.3020
 2.3310	16.2490
 2.3320	16.2000
 2.3330	16.1580
 2.3340	16.1110
 2.3350	16.0560
 2.3360	16.0100
 2.3370	15.9710
 2.3380	15.9200
 2.3390	15.8610
 2.3400	15.8110
 2.3410	15.7510
 2.3420	15.7010
 2.3430	15.6680
 2.3440	15.6310
 2.3450	15.5960
 2.3460	15.5600
 2.3470	15.5280
 2.3480	15.4900
 2.3490	15.4480
 2.3500	15.4050
 2.3510	15.3570
 2.3520	15.3150
 2.3530	15.2690
 2.3540	15.2330
 2.3550	15.2040
 2.3560	15.1620
 2.3570	15.1250
 2.3580	15.1020
 2.3590	15.0720
 2.3600	15.0480
 2.3610	15.0250
 2.3620	14.9880
 2.3630	14.9500
 2.3640	14.9160
 2.3650	14.8780
 2.3660	14.8390
 2.3670	14.7970
 2.3680	14.7400
 2.3690	14.6870
 2.3700	14.6300
 2.3710	14.5690
 2.3720	14.5380
 2.3730	14.5030
 2.3740	14.4640
 2.3750	14.4400
 2.3760	14.3900
 2.3770	14.3210
 2.3780	14.2610
 2.3790	14.1990
 2.3800	14.1620
 2.3810	14.1250
 2.3820	14.0760
 2.3830	14.0330
 2.3840	13.9730
 2.3850	13.9200
 2.3860	13.8660
 2.3870	13.7980
 2.3880	13.7420
 2.3890	13.6900
 2.3900	13.6470
 2.3910	13.6020
 2.3920	13.5500
 2.3930	13.5020
 2.3940	13.4630
 2.3950	13.4350
 2.3960	13.3930
 2.3970	13.3360
 2.3980	13.2660
 2.3990	13.1770
 2.4000	13.1110
 2.4010	13.0540
 2.4020	13.0030
 2.4030	12.9820
 2.4040	12.9380
 2.4050	12.8680
 2.4060	12.7980
 2.4070	12.7290
 2.4080	12.6740
 2.4090	12.6400
 2.4100	12.6120
 2.4110	12.5520
 2.4120	12.4760
 2.4130	12.4010
 2.4140	12.3130
 2.4150	12.2580
 2.4160	12.2270
 2.4170	12.1770
 2.4180	12.1320
 2.4190	12.0660
 2.4200	12.0000
 2.4210	11.9570
 2.4220	11.9070
 2.4230	11.8570
 2.4240	11.8050
 2.4250	11.7450
 2.4260	11.6920
 2.4270	11.6520
 2.4280	11.5870
 2.4290	11.5310
 2.4300	11.4820
 2.4310	11.4170
 2.4320	11.3810
 2.4330	11.3340
 2.4340	11.2790
 2.4350	11.2390
 2.4360	11.2010
 2.4370	11.1760
 2.4380	11.1240
 2.4390	11.0520
 2.4400	10.9880
 2.4410	10.8930
 2.4420	10.8290
 2.4430	10.7930
 2.4440	10.7180
 2.4450	10.6470
 2.4460	10.5730
 2.4470	10.5010
 2.4480	10.4370
 2.4490	10.3860
 2.4500	10.3550
 2.4510	10.2990
 2.4520	10.2980
 2.4530	10.3110
 2.4540	10.2730
 2.4550	10.2730
 2.4560	10.2480
 2.4570	10.1640
 2.4580	10.1130
 2.4590	10.0540
 2.4600	 9.9890
 2.4610	 9.9720
 2.4620	 9.9290
 2.4630	 9.8670
 2.4640	 9.8040
 2.4650	 9.7230
 2.4660	 9.6910
 2.4670	 9.6470
 2.4680	 9.6090
 2.4690	 9.5780
 2.4700	 9.5390
 2.4710	 9.5590
 2.4720	 9.5130
 2.4730	 9.4280
 2.4740	 9.3830
 2.4750	 9.3070
 2.4760	 9.2530
 2.4770	 9.1800
 2.4780	 9.1570
 2.4790	 9.2100
 2.4800	 9.2250
 2.4810	 9.2880
 2.4820	 9.2940
 2.4830	 9.2460
 2.4840	 9.2300
 2.4850	 9.2090
 2.4860	 9.2040
 2.4870	 9.1680
 2.4880	 9.1240
 2.4890	 9.1720
 2.4900	 9.1000
 2.4910	 9.0160
 2.4920	 8.9760
 2.4930	 8.8480
 2.4940	 8.8490
 2.4950	 8.8840
 2.4960	 8.7910
 2.4970	 8.7900
 2.4980	 8.8360
 2.4990	 8.7660
 2.5000	 8.8470
