Name: Pinus ponderosa 1
Type: vegetation
Class: Tree
Genus: Pinus
Species: ponderosa
Sample No.: VH154
Owner: UCSB
Wavelength Range: VSWIR
Origin: 37.0443; -119.3026; WGS84
Collection Date: 6/8/2013
Description: Samples were collected as part of the HyspIRI Airborne Campaign. 48 individual plants were sampled in three times in 2013 - spring  summer  and fall. The name of the sample includes a 1  2  or 3 which references a different individual of the species. Samples were taken to JPL and processed within 48 hours of collection. The same leaves were processed in the Nicolet and then measured using the ASD.
Measurement: Bidirectional reflectance
First Column: X
Second Column: Y
X Units: Wavelength (micrometers)
Y Units: Reflectance (percentage)
First X Value: 0.35
Last X Value: 2.5
Number of X Values: 2151
Additional Information: vegetation.tree.pinus.ponderosa.vswir.vh154.ucsb.asd.ancillary.txt

 0.3500	 8.3410
 0.3510	 8.3980
 0.3520	 8.5080
 0.3530	 8.5910
 0.3540	 8.6120
 0.3550	 8.5920
 0.3560	 8.6240
 0.3570	 8.6390
 0.3580	 8.5100
 0.3590	 8.4610
 0.3600	 8.4500
 0.3610	 8.4440
 0.3620	 8.4470
 0.3630	 8.4800
 0.3640	 8.5080
 0.3650	 8.4980
 0.3660	 8.4620
 0.3670	 8.5270
 0.3680	 8.6130
 0.3690	 8.5180
 0.3700	 8.4210
 0.3710	 8.4040
 0.3720	 8.4680
 0.3730	 8.5040
 0.3740	 8.5240
 0.3750	 8.5260
 0.3760	 8.5000
 0.3770	 8.4360
 0.3780	 8.4050
 0.3790	 8.4200
 0.3800	 8.4390
 0.3810	 8.4120
 0.3820	 8.3930
 0.3830	 8.4250
 0.3840	 8.4780
 0.3850	 8.4740
 0.3860	 8.4350
 0.3870	 8.4180
 0.3880	 8.4530
 0.3890	 8.4410
 0.3900	 8.4000
 0.3910	 8.4880
 0.3920	 8.5240
 0.3930	 8.5360
 0.3940	 8.5640
 0.3950	 8.5830
 0.3960	 8.5940
 0.3970	 8.5890
 0.3980	 8.5700
 0.3990	 8.5850
 0.4000	 8.6280
 0.4010	 8.6730
 0.4020	 8.6730
 0.4030	 8.6840
 0.4040	 8.7070
 0.4050	 8.7350
 0.4060	 8.7610
 0.4070	 8.7940
 0.4080	 8.8430
 0.4090	 8.9040
 0.4100	 8.9810
 0.4110	 9.0440
 0.4120	 9.0740
 0.4130	 9.1150
 0.4140	 9.1700
 0.4150	 9.2380
 0.4160	 9.3090
 0.4170	 9.3560
 0.4180	 9.4160
 0.4190	 9.4880
 0.4200	 9.5340
 0.4210	 9.5840
 0.4220	 9.6430
 0.4230	 9.7100
 0.4240	 9.7640
 0.4250	 9.8160
 0.4260	 9.8630
 0.4270	 9.8950
 0.4280	 9.9370
 0.4290	 9.9730
 0.4300	 9.9990
 0.4310	10.0470
 0.4320	10.0730
 0.4330	10.0860
 0.4340	10.1080
 0.4350	10.1370
 0.4360	10.1680
 0.4370	10.1980
 0.4380	10.2300
 0.4390	10.2600
 0.4400	10.2950
 0.4410	10.3370
 0.4420	10.3630
 0.4430	10.3890
 0.4440	10.4240
 0.4450	10.4740
 0.4460	10.5030
 0.4470	10.5310
 0.4480	10.5680
 0.4490	10.6040
 0.4500	10.6490
 0.4510	10.6970
 0.4520	10.7350
 0.4530	10.7700
 0.4540	10.7960
 0.4550	10.8140
 0.4560	10.8300
 0.4570	10.8540
 0.4580	10.8730
 0.4590	10.8790
 0.4600	10.8980
 0.4610	10.9070
 0.4620	10.9130
 0.4630	10.9200
 0.4640	10.9120
 0.4650	10.9200
 0.4660	10.9400
 0.4670	10.9340
 0.4680	10.9360
 0.4690	10.9390
 0.4700	10.9360
 0.4710	10.9360
 0.4720	10.9330
 0.4730	10.9340
 0.4740	10.9480
 0.4750	10.9500
 0.4760	10.9550
 0.4770	10.9700
 0.4780	10.9780
 0.4790	10.9870
 0.4800	10.9930
 0.4810	10.9930
 0.4820	11.0100
 0.4830	11.0240
 0.4840	11.0310
 0.4850	11.0380
 0.4860	11.0620
 0.4870	11.0930
 0.4880	11.1240
 0.4890	11.1580
 0.4900	11.2060
 0.4910	11.2590
 0.4920	11.3050
 0.4930	11.3710
 0.4940	11.4450
 0.4950	11.5210
 0.4960	11.6240
 0.4970	11.7280
 0.4980	11.8360
 0.4990	11.9560
 0.5000	12.0900
 0.5010	12.2450
 0.5020	12.4160
 0.5030	12.5910
 0.5040	12.7770
 0.5050	12.9820
 0.5060	13.2110
 0.5070	13.4470
 0.5080	13.7030
 0.5090	13.9790
 0.5100	14.2680
 0.5110	14.5740
 0.5120	14.9020
 0.5130	15.2500
 0.5140	15.6070
 0.5150	15.9720
 0.5160	16.3460
 0.5170	16.7310
 0.5180	17.1260
 0.5190	17.5280
 0.5200	17.9260
 0.5210	18.3110
 0.5220	18.6950
 0.5230	19.0710
 0.5240	19.4310
 0.5250	19.7670
 0.5260	20.0880
 0.5270	20.3900
 0.5280	20.6660
 0.5290	20.9220
 0.5300	21.1580
 0.5310	21.3700
 0.5320	21.5600
 0.5330	21.7360
 0.5340	21.8940
 0.5350	22.0320
 0.5360	22.1600
 0.5370	22.2770
 0.5380	22.3790
 0.5390	22.4650
 0.5400	22.5520
 0.5410	22.6350
 0.5420	22.7090
 0.5430	22.7870
 0.5440	22.8610
 0.5450	22.9340
 0.5460	23.0070
 0.5470	23.0710
 0.5480	23.1320
 0.5490	23.1880
 0.5500	23.2280
 0.5510	23.2550
 0.5520	23.2680
 0.5530	23.2640
 0.5540	23.2410
 0.5550	23.1970
 0.5560	23.1310
 0.5570	23.0430
 0.5580	22.9360
 0.5590	22.8130
 0.5600	22.6770
 0.5610	22.5320
 0.5620	22.3750
 0.5630	22.2050
 0.5640	22.0250
 0.5650	21.8310
 0.5660	21.6320
 0.5670	21.4300
 0.5680	21.2190
 0.5690	21.0040
 0.5700	20.7850
 0.5710	20.5690
 0.5720	20.3600
 0.5730	20.1610
 0.5740	19.9740
 0.5750	19.8040
 0.5760	19.6400
 0.5770	19.4810
 0.5780	19.3290
 0.5790	19.1920
 0.5800	19.0630
 0.5810	18.9370
 0.5820	18.8110
 0.5830	18.6880
 0.5840	18.5700
 0.5850	18.4590
 0.5860	18.3550
 0.5870	18.2570
 0.5880	18.1590
 0.5890	18.0590
 0.5900	17.9720
 0.5910	17.9030
 0.5920	17.8470
 0.5930	17.7910
 0.5940	17.7500
 0.5950	17.7170
 0.5960	17.6840
 0.5970	17.6500
 0.5980	17.6060
 0.5990	17.5560
 0.6000	17.5030
 0.6010	17.4410
 0.6020	17.3730
 0.6030	17.3020
 0.6040	17.2220
 0.6050	17.1350
 0.6060	17.0360
 0.6070	16.9250
 0.6080	16.8080
 0.6090	16.6840
 0.6100	16.5510
 0.6110	16.4160
 0.6120	16.2890
 0.6130	16.1680
 0.6140	16.0500
 0.6150	15.9310
 0.6160	15.8150
 0.6170	15.7060
 0.6180	15.6040
 0.6190	15.5110
 0.6200	15.4290
 0.6210	15.3570
 0.6220	15.2960
 0.6230	15.2400
 0.6240	15.1910
 0.6250	15.1530
 0.6260	15.1230
 0.6270	15.1030
 0.6280	15.0890
 0.6290	15.0730
 0.6300	15.0610
 0.6310	15.0460
 0.6320	15.0270
 0.6330	14.9990
 0.6340	14.9530
 0.6350	14.8910
 0.6360	14.8150
 0.6370	14.7110
 0.6380	14.5900
 0.6390	14.4550
 0.6400	14.3060
 0.6410	14.1420
 0.6420	13.9720
 0.6430	13.8000
 0.6440	13.6210
 0.6450	13.4440
 0.6460	13.2720
 0.6470	13.1090
 0.6480	12.9660
 0.6490	12.8370
 0.6500	12.7260
 0.6510	12.6380
 0.6520	12.5600
 0.6530	12.4850
 0.6540	12.4100
 0.6550	12.3290
 0.6560	12.2470
 0.6570	12.1540
 0.6580	12.0410
 0.6590	11.9180
 0.6600	11.7880
 0.6610	11.6520
 0.6620	11.5160
 0.6630	11.3810
 0.6640	11.2530
 0.6650	11.1380
 0.6660	11.0320
 0.6670	10.9370
 0.6680	10.8560
 0.6690	10.7900
 0.6700	10.7360
 0.6710	10.6950
 0.6720	10.6650
 0.6730	10.6460
 0.6740	10.6390
 0.6750	10.6390
 0.6760	10.6450
 0.6770	10.6630
 0.6780	10.6890
 0.6790	10.7250
 0.6800	10.7850
 0.6810	10.8590
 0.6820	10.9620
 0.6830	11.1030
 0.6840	11.2830
 0.6850	11.5160
 0.6860	11.8100
 0.6870	12.1750
 0.6880	12.6280
 0.6890	13.1680
 0.6900	13.8000
 0.6910	14.5280
 0.6920	15.3420
 0.6930	16.2360
 0.6940	17.2010
 0.6950	18.2160
 0.6960	19.2810
 0.6970	20.3840
 0.6980	21.5120
 0.6990	22.6550
 0.7000	23.8080
 0.7010	24.9640
 0.7020	26.1180
 0.7030	27.2630
 0.7040	28.3930
 0.7050	29.5070
 0.7060	30.6090
 0.7070	31.6970
 0.7080	32.7700
 0.7090	33.8300
 0.7100	34.8770
 0.7110	35.9170
 0.7120	36.9500
 0.7130	37.9650
 0.7140	38.9810
 0.7150	39.9840
 0.7160	40.9680
 0.7170	41.9570
 0.7180	42.9320
 0.7190	43.8930
 0.7200	44.8430
 0.7210	45.7780
 0.7220	46.7010
 0.7230	47.6070
 0.7240	48.4910
 0.7250	49.3490
 0.7260	50.1820
 0.7270	50.9930
 0.7280	51.7770
 0.7290	52.5250
 0.7300	53.2420
 0.7310	53.9390
 0.7320	54.5990
 0.7330	55.2280
 0.7340	55.8280
 0.7350	56.3950
 0.7360	56.9390
 0.7370	57.4560
 0.7380	57.9410
 0.7390	58.3990
 0.7400	58.8350
 0.7410	59.2480
 0.7420	59.6320
 0.7430	59.9900
 0.7440	60.3270
 0.7450	60.6440
 0.7460	60.9300
 0.7470	61.2000
 0.7480	61.4520
 0.7490	61.6840
 0.7500	61.8910
 0.7510	62.0780
 0.7520	62.2540
 0.7530	62.4210
 0.7540	62.5740
 0.7550	62.7100
 0.7560	62.8290
 0.7570	62.9380
 0.7580	63.0430
 0.7590	63.1400
 0.7600	63.2290
 0.7610	63.3120
 0.7620	63.3810
 0.7630	63.4440
 0.7640	63.5080
 0.7650	63.5720
 0.7660	63.6270
 0.7670	63.6770
 0.7680	63.7280
 0.7690	63.7660
 0.7700	63.8020
 0.7710	63.8430
 0.7720	63.8750
 0.7730	63.9140
 0.7740	63.9490
 0.7750	63.9720
 0.7760	63.9980
 0.7770	64.0320
 0.7780	64.0650
 0.7790	64.0850
 0.7800	64.1070
 0.7810	64.1390
 0.7820	64.1750
 0.7830	64.2020
 0.7840	64.2230
 0.7850	64.2460
 0.7860	64.2720
 0.7870	64.2960
 0.7880	64.3160
 0.7890	64.3360
 0.7900	64.3560
 0.7910	64.3810
 0.7920	64.4010
 0.7930	64.4170
 0.7940	64.4360
 0.7950	64.4470
 0.7960	64.4590
 0.7970	64.4770
 0.7980	64.4930
 0.7990	64.5060
 0.8000	64.5180
 0.8010	64.5310
 0.8020	64.5380
 0.8030	64.5440
 0.8040	64.5530
 0.8050	64.5620
 0.8060	64.5630
 0.8070	64.5630
 0.8080	64.5660
 0.8090	64.5710
 0.8100	64.5670
 0.8110	64.5680
 0.8120	64.5790
 0.8130	64.5820
 0.8140	64.5770
 0.8150	64.5720
 0.8160	64.5740
 0.8170	64.5750
 0.8180	64.5690
 0.8190	64.5580
 0.8200	64.5510
 0.8210	64.5520
 0.8220	64.5480
 0.8230	64.5350
 0.8240	64.5150
 0.8250	64.4920
 0.8260	64.4710
 0.8270	64.4520
 0.8280	64.4290
 0.8290	64.3950
 0.8300	64.3590
 0.8310	64.3330
 0.8320	64.3120
 0.8330	64.2970
 0.8340	64.2830
 0.8350	64.2650
 0.8360	64.2590
 0.8370	64.2490
 0.8380	64.2390
 0.8390	64.2440
 0.8400	64.2480
 0.8410	64.2420
 0.8420	64.2320
 0.8430	64.2440
 0.8440	64.2540
 0.8450	64.2560
 0.8460	64.2500
 0.8470	64.2510
 0.8480	64.2620
 0.8490	64.2720
 0.8500	64.2720
 0.8510	64.2820
 0.8520	64.2870
 0.8530	64.2870
 0.8540	64.2900
 0.8550	64.2940
 0.8560	64.3000
 0.8570	64.3060
 0.8580	64.3120
 0.8590	64.3190
 0.8600	64.3190
 0.8610	64.3150
 0.8620	64.3230
 0.8630	64.3250
 0.8640	64.3240
 0.8650	64.3250
 0.8660	64.3180
 0.8670	64.3280
 0.8680	64.3430
 0.8690	64.3440
 0.8700	64.3420
 0.8710	64.3340
 0.8720	64.3280
 0.8730	64.3340
 0.8740	64.3380
 0.8750	64.3340
 0.8760	64.3260
 0.8770	64.3260
 0.8780	64.3200
 0.8790	64.3210
 0.8800	64.3260
 0.8810	64.3120
 0.8820	64.3000
 0.8830	64.2920
 0.8840	64.2830
 0.8850	64.2650
 0.8860	64.2590
 0.8870	64.2600
 0.8880	64.2560
 0.8890	64.2330
 0.8900	64.2170
 0.8910	64.2100
 0.8920	64.2030
 0.8930	64.1850
 0.8940	64.1720
 0.8950	64.1630
 0.8960	64.1460
 0.8970	64.1290
 0.8980	64.1090
 0.8990	64.0890
 0.9000	64.0820
 0.9010	64.0560
 0.9020	64.0330
 0.9030	64.0270
 0.9040	64.0250
 0.9050	64.0020
 0.9060	63.9730
 0.9070	63.9480
 0.9080	63.9150
 0.9090	63.8900
 0.9100	63.8640
 0.9110	63.8310
 0.9120	63.8110
 0.9130	63.7790
 0.9140	63.7450
 0.9150	63.7190
 0.9160	63.6980
 0.9170	63.6580
 0.9180	63.6070
 0.9190	63.5620
 0.9200	63.5120
 0.9210	63.4550
 0.9220	63.3950
 0.9230	63.3360
 0.9240	63.2590
 0.9250	63.1730
 0.9260	63.0820
 0.9270	62.9860
 0.9280	62.8790
 0.9290	62.7680
 0.9300	62.6550
 0.9310	62.5380
 0.9320	62.4150
 0.9330	62.2880
 0.9340	62.1560
 0.9350	62.0090
 0.9360	61.8600
 0.9370	61.7030
 0.9380	61.5370
 0.9390	61.3770
 0.9400	61.2180
 0.9410	61.0520
 0.9420	60.8760
 0.9430	60.7100
 0.9440	60.5110
 0.9450	60.2910
 0.9460	60.0660
 0.9470	59.8370
 0.9480	59.5990
 0.9490	59.3410
 0.9500	59.0640
 0.9510	58.7760
 0.9520	58.4910
 0.9530	58.1950
 0.9540	57.8850
 0.9550	57.6080
 0.9560	57.3420
 0.9570	57.0910
 0.9580	56.8660
 0.9590	56.6520
 0.9600	56.4600
 0.9610	56.2950
 0.9620	56.1510
 0.9630	56.0160
 0.9640	55.9050
 0.9650	55.8080
 0.9660	55.7180
 0.9670	55.6750
 0.9680	55.6180
 0.9690	55.5480
 0.9700	55.4940
 0.9710	55.4500
 0.9720	55.4140
 0.9730	55.3850
 0.9740	55.3620
 0.9750	55.3370
 0.9760	55.3180
 0.9770	55.3130
 0.9780	55.3200
 0.9790	55.3200
 0.9800	55.3220
 0.9810	55.3360
 0.9820	55.3690
 0.9830	55.3990
 0.9840	55.4340
 0.9850	55.4770
 0.9860	55.5250
 0.9870	55.5760
 0.9880	55.6370
 0.9890	55.6980
 0.9900	55.7490
 0.9910	55.8050
 0.9920	55.8740
 0.9930	55.9470
 0.9940	56.0190
 0.9950	56.1230
 0.9960	56.2110
 0.9970	56.2870
 0.9980	56.3770
 0.9990	56.4740
 1.0000	57.0150
 1.0010	57.9440
 1.0020	58.5090
 1.0030	58.6030
 1.0040	58.7100
 1.0050	58.8210
 1.0060	58.9250
 1.0070	59.0330
 1.0080	59.1390
 1.0090	59.2430
 1.0100	59.3480
 1.0110	59.4510
 1.0120	59.5590
 1.0130	59.6720
 1.0140	59.7810
 1.0150	59.8890
 1.0160	60.0000
 1.0170	60.1120
 1.0180	60.2190
 1.0190	60.3340
 1.0200	60.4500
 1.0210	60.5600
 1.0220	60.6760
 1.0230	60.7870
 1.0240	60.8950
 1.0250	61.0010
 1.0260	61.1020
 1.0270	61.2060
 1.0280	61.3140
 1.0290	61.4170
 1.0300	61.5180
 1.0310	61.6230
 1.0320	61.7310
 1.0330	61.8330
 1.0340	61.9360
 1.0350	62.0350
 1.0360	62.1300
 1.0370	62.2260
 1.0380	62.3190
 1.0390	62.4140
 1.0400	62.5060
 1.0410	62.5950
 1.0420	62.6800
 1.0430	62.7640
 1.0440	62.8450
 1.0450	62.9180
 1.0460	62.9920
 1.0470	63.0670
 1.0480	63.1380
 1.0490	63.2100
 1.0500	63.2760
 1.0510	63.3380
 1.0520	63.3990
 1.0530	63.4570
 1.0540	63.5140
 1.0550	63.5670
 1.0560	63.6190
 1.0570	63.6660
 1.0580	63.7080
 1.0590	63.7460
 1.0600	63.7800
 1.0610	63.8130
 1.0620	63.8420
 1.0630	63.8700
 1.0640	63.8980
 1.0650	63.9190
 1.0660	63.9350
 1.0670	63.9490
 1.0680	63.9600
 1.0690	63.9650
 1.0700	63.9720
 1.0710	63.9780
 1.0720	63.9810
 1.0730	63.9840
 1.0740	63.9780
 1.0750	63.9670
 1.0760	63.9540
 1.0770	63.9360
 1.0780	63.9160
 1.0790	63.8940
 1.0800	63.8700
 1.0810	63.8420
 1.0820	63.8120
 1.0830	63.7820
 1.0840	63.7460
 1.0850	63.7060
 1.0860	63.6630
 1.0870	63.6170
 1.0880	63.5680
 1.0890	63.5180
 1.0900	63.4670
 1.0910	63.4130
 1.0920	63.3540
 1.0930	63.2980
 1.0940	63.2430
 1.0950	63.1820
 1.0960	63.1210
 1.0970	63.0570
 1.0980	62.9860
 1.0990	62.9170
 1.1000	62.8480
 1.1010	62.7790
 1.1020	62.7090
 1.1030	62.6360
 1.1040	62.5620
 1.1050	62.4850
 1.1060	62.4090
 1.1070	62.3300
 1.1080	62.2530
 1.1090	62.1810
 1.1100	62.1000
 1.1110	62.0160
 1.1120	61.9310
 1.1130	61.8450
 1.1140	61.7510
 1.1150	61.6570
 1.1160	61.5540
 1.1170	61.4440
 1.1180	61.3250
 1.1190	61.2030
 1.1200	61.0690
 1.1210	60.9230
 1.1220	60.7620
 1.1230	60.5850
 1.1240	60.3920
 1.1250	60.1780
 1.1260	59.9480
 1.1270	59.6940
 1.1280	59.4220
 1.1290	59.1240
 1.1300	58.8050
 1.1310	58.4590
 1.1320	58.0850
 1.1330	57.6930
 1.1340	57.2750
 1.1350	56.8430
 1.1360	56.3930
 1.1370	55.9260
 1.1380	55.4500
 1.1390	54.9700
 1.1400	54.4790
 1.1410	53.9930
 1.1420	53.5120
 1.1430	53.0310
 1.1440	52.5670
 1.1450	52.1100
 1.1460	51.6770
 1.1470	51.2530
 1.1480	50.8610
 1.1490	50.4900
 1.1500	50.1470
 1.1510	49.8290
 1.1520	49.5370
 1.1530	49.2700
 1.1540	49.0270
 1.1550	48.8100
 1.1560	48.6140
 1.1570	48.4380
 1.1580	48.2830
 1.1590	48.1440
 1.1600	48.0210
 1.1610	47.9140
 1.1620	47.8200
 1.1630	47.7340
 1.1640	47.6590
 1.1650	47.5890
 1.1660	47.5310
 1.1670	47.4750
 1.1680	47.4270
 1.1690	47.3800
 1.1700	47.3410
 1.1710	47.2990
 1.1720	47.2580
 1.1730	47.2180
 1.1740	47.1780
 1.1750	47.1370
 1.1760	47.0990
 1.1770	47.0620
 1.1780	47.0230
 1.1790	46.9850
 1.1800	46.9470
 1.1810	46.9080
 1.1820	46.8680
 1.1830	46.8280
 1.1840	46.7870
 1.1850	46.7460
 1.1860	46.7060
 1.1870	46.6690
 1.1880	46.6350
 1.1890	46.6010
 1.1900	46.5730
 1.1910	46.5460
 1.1920	46.5250
 1.1930	46.5090
 1.1940	46.4960
 1.1950	46.4880
 1.1960	46.4850
 1.1970	46.4830
 1.1980	46.4810
 1.1990	46.4830
 1.2000	46.4900
 1.2010	46.5020
 1.2020	46.5210
 1.2030	46.5420
 1.2040	46.5660
 1.2050	46.5910
 1.2060	46.6180
 1.2070	46.6490
 1.2080	46.6800
 1.2090	46.7140
 1.2100	46.7500
 1.2110	46.7900
 1.2120	46.8320
 1.2130	46.8770
 1.2140	46.9270
 1.2150	46.9770
 1.2160	47.0290
 1.2170	47.0800
 1.2180	47.1340
 1.2190	47.1890
 1.2200	47.2460
 1.2210	47.3040
 1.2220	47.3620
 1.2230	47.4190
 1.2240	47.4750
 1.2250	47.5330
 1.2260	47.5900
 1.2270	47.6470
 1.2280	47.7030
 1.2290	47.7600
 1.2300	47.8160
 1.2310	47.8700
 1.2320	47.9260
 1.2330	47.9800
 1.2340	48.0320
 1.2350	48.0820
 1.2360	48.1330
 1.2370	48.1820
 1.2380	48.2330
 1.2390	48.2820
 1.2400	48.3320
 1.2410	48.3810
 1.2420	48.4270
 1.2430	48.4720
 1.2440	48.5190
 1.2450	48.5640
 1.2460	48.6080
 1.2470	48.6540
 1.2480	48.6960
 1.2490	48.7370
 1.2500	48.7770
 1.2510	48.8130
 1.2520	48.8460
 1.2530	48.8780
 1.2540	48.9080
 1.2550	48.9350
 1.2560	48.9610
 1.2570	48.9850
 1.2580	49.0060
 1.2590	49.0270
 1.2600	49.0480
 1.2610	49.0640
 1.2620	49.0770
 1.2630	49.0870
 1.2640	49.0950
 1.2650	49.0990
 1.2660	49.1010
 1.2670	49.1010
 1.2680	49.0980
 1.2690	49.0910
 1.2700	49.0830
 1.2710	49.0720
 1.2720	49.0570
 1.2730	49.0400
 1.2740	49.0200
 1.2750	48.9990
 1.2760	48.9770
 1.2770	48.9470
 1.2780	48.9150
 1.2790	48.8810
 1.2800	48.8400
 1.2810	48.7970
 1.2820	48.7500
 1.2830	48.6980
 1.2840	48.6430
 1.2850	48.5840
 1.2860	48.5200
 1.2870	48.4500
 1.2880	48.3760
 1.2890	48.2960
 1.2900	48.2120
 1.2910	48.1240
 1.2920	48.0280
 1.2930	47.9290
 1.2940	47.8230
 1.2950	47.7100
 1.2960	47.5930
 1.2970	47.4690
 1.2980	47.3400
 1.2990	47.2060
 1.3000	47.0690
 1.3010	46.9240
 1.3020	46.7680
 1.3030	46.6090
 1.3040	46.4410
 1.3050	46.2700
 1.3060	46.0970
 1.3070	45.9140
 1.3080	45.7290
 1.3090	45.5400
 1.3100	45.3440
 1.3110	45.1460
 1.3120	44.9420
 1.3130	44.7320
 1.3140	44.5160
 1.3150	44.2950
 1.3160	44.0700
 1.3170	43.8430
 1.3180	43.6120
 1.3190	43.3740
 1.3200	43.1370
 1.3210	42.8930
 1.3220	42.6460
 1.3230	42.3990
 1.3240	42.1480
 1.3250	41.8990
 1.3260	41.6480
 1.3270	41.3950
 1.3280	41.1440
 1.3290	40.8900
 1.3300	40.6340
 1.3310	40.3790
 1.3320	40.1240
 1.3330	39.8710
 1.3340	39.6210
 1.3350	39.3740
 1.3360	39.1310
 1.3370	38.8890
 1.3380	38.6500
 1.3390	38.4170
 1.3400	38.1830
 1.3410	37.9570
 1.3420	37.7350
 1.3430	37.5170
 1.3440	37.3040
 1.3450	37.0950
 1.3460	36.8900
 1.3470	36.6900
 1.3480	36.4940
 1.3490	36.3030
 1.3500	36.1160
 1.3510	35.9320
 1.3520	35.7500
 1.3530	35.5710
 1.3540	35.3920
 1.3550	35.2130
 1.3560	35.0350
 1.3570	34.8550
 1.3580	34.6740
 1.3590	34.4900
 1.3600	34.3020
 1.3610	34.1090
 1.3620	33.9100
 1.3630	33.7050
 1.3640	33.4920
 1.3650	33.2680
 1.3660	33.0380
 1.3670	32.7970
 1.3680	32.5430
 1.3690	32.2770
 1.3700	31.9950
 1.3710	31.7000
 1.3720	31.3920
 1.3730	31.0650
 1.3740	30.7250
 1.3750	30.3660
 1.3760	29.9880
 1.3770	29.5910
 1.3780	29.1700
 1.3790	28.7320
 1.3800	28.2760
 1.3810	27.8000
 1.3820	27.3160
 1.3830	26.8180
 1.3840	26.3130
 1.3850	25.7970
 1.3860	25.2810
 1.3870	24.7540
 1.3880	24.2370
 1.3890	23.7190
 1.3900	23.2030
 1.3910	22.7010
 1.3920	22.2070
 1.3930	21.7200
 1.3940	21.2500
 1.3950	20.7880
 1.3960	20.3430
 1.3970	19.9160
 1.3980	19.5070
 1.3990	19.1210
 1.4000	18.7530
 1.4010	18.4010
 1.4020	18.0720
 1.4030	17.7590
 1.4040	17.4650
 1.4050	17.1920
 1.4060	16.9340
 1.4070	16.6960
 1.4080	16.4740
 1.4090	16.2650
 1.4100	16.0730
 1.4110	15.8930
 1.4120	15.7240
 1.4130	15.5700
 1.4140	15.4260
 1.4150	15.2940
 1.4160	15.1730
 1.4170	15.0600
 1.4180	14.9560
 1.4190	14.8590
 1.4200	14.7680
 1.4210	14.6840
 1.4220	14.6070
 1.4230	14.5370
 1.4240	14.4730
 1.4250	14.4120
 1.4260	14.3580
 1.4270	14.3070
 1.4280	14.2600
 1.4290	14.2170
 1.4300	14.1790
 1.4310	14.1440
 1.4320	14.1120
 1.4330	14.0840
 1.4340	14.0580
 1.4350	14.0350
 1.4360	14.0150
 1.4370	13.9970
 1.4380	13.9820
 1.4390	13.9700
 1.4400	13.9590
 1.4410	13.9510
 1.4420	13.9440
 1.4430	13.9380
 1.4440	13.9340
 1.4450	13.9320
 1.4460	13.9310
 1.4470	13.9320
 1.4480	13.9340
 1.4490	13.9360
 1.4500	13.9390
 1.4510	13.9440
 1.4520	13.9500
 1.4530	13.9570
 1.4540	13.9670
 1.4550	13.9770
 1.4560	13.9880
 1.4570	14.0010
 1.4580	14.0150
 1.4590	14.0320
 1.4600	14.0530
 1.4610	14.0750
 1.4620	14.0990
 1.4630	14.1260
 1.4640	14.1560
 1.4650	14.1900
 1.4660	14.2270
 1.4670	14.2660
 1.4680	14.3080
 1.4690	14.3530
 1.4700	14.4000
 1.4710	14.4500
 1.4720	14.5020
 1.4730	14.5560
 1.4740	14.6120
 1.4750	14.6710
 1.4760	14.7320
 1.4770	14.7940
 1.4780	14.8580
 1.4790	14.9230
 1.4800	14.9880
 1.4810	15.0570
 1.4820	15.1270
 1.4830	15.1970
 1.4840	15.2700
 1.4850	15.3430
 1.4860	15.4190
 1.4870	15.4960
 1.4880	15.5730
 1.4890	15.6510
 1.4900	15.7290
 1.4910	15.8080
 1.4920	15.8880
 1.4930	15.9710
 1.4940	16.0530
 1.4950	16.1370
 1.4960	16.2200
 1.4970	16.3030
 1.4980	16.3870
 1.4990	16.4710
 1.5000	16.5570
 1.5010	16.6440
 1.5020	16.7310
 1.5030	16.8190
 1.5040	16.9070
 1.5050	16.9940
 1.5060	17.0820
 1.5070	17.1710
 1.5080	17.2610
 1.5090	17.3520
 1.5100	17.4430
 1.5110	17.5350
 1.5120	17.6270
 1.5130	17.7170
 1.5140	17.8080
 1.5150	17.8990
 1.5160	17.9900
 1.5170	18.0830
 1.5180	18.1740
 1.5190	18.2640
 1.5200	18.3550
 1.5210	18.4450
 1.5220	18.5350
 1.5230	18.6260
 1.5240	18.7150
 1.5250	18.8070
 1.5260	18.8980
 1.5270	18.9870
 1.5280	19.0790
 1.5290	19.1670
 1.5300	19.2560
 1.5310	19.3460
 1.5320	19.4350
 1.5330	19.5250
 1.5340	19.6150
 1.5350	19.7040
 1.5360	19.7940
 1.5370	19.8810
 1.5380	19.9670
 1.5390	20.0550
 1.5400	20.1430
 1.5410	20.2300
 1.5420	20.3180
 1.5430	20.4040
 1.5440	20.4900
 1.5450	20.5740
 1.5460	20.6600
 1.5470	20.7450
 1.5480	20.8310
 1.5490	20.9160
 1.5500	21.0010
 1.5510	21.0860
 1.5520	21.1720
 1.5530	21.2550
 1.5540	21.3380
 1.5550	21.4220
 1.5560	21.5040
 1.5570	21.5860
 1.5580	21.6700
 1.5590	21.7520
 1.5600	21.8340
 1.5610	21.9170
 1.5620	21.9970
 1.5630	22.0760
 1.5640	22.1540
 1.5650	22.2320
 1.5660	22.3110
 1.5670	22.3880
 1.5680	22.4670
 1.5690	22.5430
 1.5700	22.6190
 1.5710	22.6950
 1.5720	22.7700
 1.5730	22.8460
 1.5740	22.9210
 1.5750	22.9960
 1.5760	23.0690
 1.5770	23.1410
 1.5780	23.2120
 1.5790	23.2840
 1.5800	23.3560
 1.5810	23.4290
 1.5820	23.5000
 1.5830	23.5710
 1.5840	23.6410
 1.5850	23.7110
 1.5860	23.7800
 1.5870	23.8490
 1.5880	23.9180
 1.5890	23.9870
 1.5900	24.0560
 1.5910	24.1250
 1.5920	24.1940
 1.5930	24.2630
 1.5940	24.3310
 1.5950	24.3980
 1.5960	24.4660
 1.5970	24.5330
 1.5980	24.6000
 1.5990	24.6670
 1.6000	24.7330
 1.6010	24.8000
 1.6020	24.8670
 1.6030	24.9330
 1.6040	24.9970
 1.6050	25.0590
 1.6060	25.1210
 1.6070	25.1840
 1.6080	25.2470
 1.6090	25.3070
 1.6100	25.3670
 1.6110	25.4260
 1.6120	25.4840
 1.6130	25.5430
 1.6140	25.6020
 1.6150	25.6590
 1.6160	25.7150
 1.6170	25.7700
 1.6180	25.8240
 1.6190	25.8780
 1.6200	25.9310
 1.6210	25.9830
 1.6220	26.0340
 1.6230	26.0820
 1.6240	26.1290
 1.6250	26.1750
 1.6260	26.2210
 1.6270	26.2670
 1.6280	26.3110
 1.6290	26.3530
 1.6300	26.3920
 1.6310	26.4330
 1.6320	26.4740
 1.6330	26.5140
 1.6340	26.5580
 1.6350	26.5980
 1.6360	26.6360
 1.6370	26.6750
 1.6380	26.7130
 1.6390	26.7510
 1.6400	26.7900
 1.6410	26.8260
 1.6420	26.8590
 1.6430	26.8920
 1.6440	26.9210
 1.6450	26.9510
 1.6460	26.9780
 1.6470	27.0030
 1.6480	27.0260
 1.6490	27.0480
 1.6500	27.0670
 1.6510	27.0840
 1.6520	27.1000
 1.6530	27.1120
 1.6540	27.1250
 1.6550	27.1360
 1.6560	27.1430
 1.6570	27.1500
 1.6580	27.1560
 1.6590	27.1620
 1.6600	27.1680
 1.6610	27.1720
 1.6620	27.1750
 1.6630	27.1770
 1.6640	27.1780
 1.6650	27.1820
 1.6660	27.1850
 1.6670	27.1870
 1.6680	27.1890
 1.6690	27.1890
 1.6700	27.1880
 1.6710	27.1860
 1.6720	27.1820
 1.6730	27.1810
 1.6740	27.1770
 1.6750	27.1720
 1.6760	27.1660
 1.6770	27.1590
 1.6780	27.1500
 1.6790	27.1400
 1.6800	27.1290
 1.6810	27.1120
 1.6820	27.0950
 1.6830	27.0760
 1.6840	27.0560
 1.6850	27.0340
 1.6860	27.0090
 1.6870	26.9800
 1.6880	26.9520
 1.6890	26.9220
 1.6900	26.8920
 1.6910	26.8620
 1.6920	26.8310
 1.6930	26.7990
 1.6940	26.7670
 1.6950	26.7340
 1.6960	26.7010
 1.6970	26.6650
 1.6980	26.6310
 1.6990	26.5970
 1.7000	26.5620
 1.7010	26.5280
 1.7020	26.4900
 1.7030	26.4510
 1.7040	26.4090
 1.7050	26.3650
 1.7060	26.3220
 1.7070	26.2780
 1.7080	26.2360
 1.7090	26.1950
 1.7100	26.1520
 1.7110	26.1090
 1.7120	26.0660
 1.7130	26.0210
 1.7140	25.9750
 1.7150	25.9300
 1.7160	25.8820
 1.7170	25.8330
 1.7180	25.7830
 1.7190	25.7350
 1.7200	25.6850
 1.7210	25.6360
 1.7220	25.5860
 1.7230	25.5360
 1.7240	25.4860
 1.7250	25.4370
 1.7260	25.3870
 1.7270	25.3390
 1.7280	25.2910
 1.7290	25.2410
 1.7300	25.1940
 1.7310	25.1460
 1.7320	25.0990
 1.7330	25.0500
 1.7340	24.9990
 1.7350	24.9490
 1.7360	24.8990
 1.7370	24.8460
 1.7380	24.7910
 1.7390	24.7360
 1.7400	24.6780
 1.7410	24.6190
 1.7420	24.5580
 1.7430	24.4970
 1.7440	24.4350
 1.7450	24.3710
 1.7460	24.3060
 1.7470	24.2410
 1.7480	24.1740
 1.7490	24.1090
 1.7500	24.0450
 1.7510	23.9800
 1.7520	23.9170
 1.7530	23.8520
 1.7540	23.7860
 1.7550	23.7220
 1.7560	23.6570
 1.7570	23.5940
 1.7580	23.5350
 1.7590	23.4760
 1.7600	23.4170
 1.7610	23.3570
 1.7620	23.3000
 1.7630	23.2460
 1.7640	23.1930
 1.7650	23.1430
 1.7660	23.0920
 1.7670	23.0410
 1.7680	22.9910
 1.7690	22.9400
 1.7700	22.8940
 1.7710	22.8510
 1.7720	22.8100
 1.7730	22.7720
 1.7740	22.7330
 1.7750	22.6940
 1.7760	22.6590
 1.7770	22.6260
 1.7780	22.5940
 1.7790	22.5640
 1.7800	22.5370
 1.7810	22.5120
 1.7820	22.4890
 1.7830	22.4690
 1.7840	22.4490
 1.7850	22.4300
 1.7860	22.4140
 1.7870	22.3990
 1.7880	22.3860
 1.7890	22.3750
 1.7900	22.3690
 1.7910	22.3610
 1.7920	22.3530
 1.7930	22.3470
 1.7940	22.3380
 1.7950	22.3350
 1.7960	22.3400
 1.7970	22.3410
 1.7980	22.3430
 1.7990	22.3460
 1.8000	22.3480
 1.8010	22.3520
 1.8020	22.3600
 1.8030	22.3660
 1.8040	22.3700
 1.8050	22.3740
 1.8060	22.3780
 1.8070	22.3830
 1.8080	22.3870
 1.8090	22.3910
 1.8100	22.3960
 1.8110	22.4010
 1.8120	22.4040
 1.8130	22.4090
 1.8140	22.4120
 1.8150	22.4130
 1.8160	22.4140
 1.8170	22.4130
 1.8180	22.4110
 1.8190	22.4090
 1.8200	22.4070
 1.8210	22.4040
 1.8220	22.4010
 1.8230	22.4000
 1.8240	22.3940
 1.8250	22.3860
 1.8260	22.3770
 1.8270	22.3630
 1.8280	22.3510
 1.8290	22.3440
 1.8300	22.2340
 1.8310	22.0450
 1.8320	21.9230
 1.8330	21.8930
 1.8340	21.8600
 1.8350	21.8240
 1.8360	21.7850
 1.8370	21.7400
 1.8380	21.6900
 1.8390	21.6360
 1.8400	21.5810
 1.8410	21.5180
 1.8420	21.4520
 1.8430	21.3770
 1.8440	21.2940
 1.8450	21.2080
 1.8460	21.1140
 1.8470	21.0160
 1.8480	20.9130
 1.8490	20.8000
 1.8500	20.6780
 1.8510	20.5510
 1.8520	20.4110
 1.8530	20.2610
 1.8540	20.1060
 1.8550	19.9400
 1.8560	19.7660
 1.8570	19.5830
 1.8580	19.3900
 1.8590	19.1910
 1.8600	18.9820
 1.8610	18.7670
 1.8620	18.5440
 1.8630	18.3110
 1.8640	18.0700
 1.8650	17.8160
 1.8660	17.5500
 1.8670	17.2760
 1.8680	16.9930
 1.8690	16.7010
 1.8700	16.4030
 1.8710	16.1000
 1.8720	15.7960
 1.8730	15.4860
 1.8740	15.1720
 1.8750	14.8620
 1.8760	14.5490
 1.8770	14.2380
 1.8780	13.9330
 1.8790	13.6350
 1.8800	13.3430
 1.8810	13.0580
 1.8820	12.7750
 1.8830	12.4980
 1.8840	12.2260
 1.8850	11.9610
 1.8860	11.7090
 1.8870	11.4660
 1.8880	11.2350
 1.8890	11.0100
 1.8900	10.7990
 1.8910	10.6000
 1.8920	10.4130
 1.8930	10.2370
 1.8940	10.0740
 1.8950	 9.9200
 1.8960	 9.7750
 1.8970	 9.6450
 1.8980	 9.5250
 1.8990	 9.4150
 1.9000	 9.3130
 1.9010	 9.2230
 1.9020	 9.1370
 1.9030	 9.0580
 1.9040	 8.9870
 1.9050	 8.9240
 1.9060	 8.8670
 1.9070	 8.8180
 1.9080	 8.7730
 1.9090	 8.7320
 1.9100	 8.6970
 1.9110	 8.6620
 1.9120	 8.6330
 1.9130	 8.6060
 1.9140	 8.5790
 1.9150	 8.5560
 1.9160	 8.5350
 1.9170	 8.5160
 1.9180	 8.5020
 1.9190	 8.4890
 1.9200	 8.4770
 1.9210	 8.4720
 1.9220	 8.4640
 1.9230	 8.4590
 1.9240	 8.4550
 1.9250	 8.4520
 1.9260	 8.4490
 1.9270	 8.4470
 1.9280	 8.4470
 1.9290	 8.4490
 1.9300	 8.4530
 1.9310	 8.4530
 1.9320	 8.4550
 1.9330	 8.4570
 1.9340	 8.4570
 1.9350	 8.4610
 1.9360	 8.4700
 1.9370	 8.4790
 1.9380	 8.4890
 1.9390	 8.5010
 1.9400	 8.5090
 1.9410	 8.5210
 1.9420	 8.5310
 1.9430	 8.5400
 1.9440	 8.5510
 1.9450	 8.5560
 1.9460	 8.5690
 1.9470	 8.5860
 1.9480	 8.6030
 1.9490	 8.6190
 1.9500	 8.6400
 1.9510	 8.6580
 1.9520	 8.6770
 1.9530	 8.6980
 1.9540	 8.7180
 1.9550	 8.7370
 1.9560	 8.7570
 1.9570	 8.7790
 1.9580	 8.7980
 1.9590	 8.8200
 1.9600	 8.8470
 1.9610	 8.8700
 1.9620	 8.8930
 1.9630	 8.9190
 1.9640	 8.9410
 1.9650	 8.9620
 1.9660	 8.9850
 1.9670	 9.0080
 1.9680	 9.0340
 1.9690	 9.0590
 1.9700	 9.0850
 1.9710	 9.1130
 1.9720	 9.1370
 1.9730	 9.1640
 1.9740	 9.1880
 1.9750	 9.2160
 1.9760	 9.2430
 1.9770	 9.2730
 1.9780	 9.3030
 1.9790	 9.3310
 1.9800	 9.3580
 1.9810	 9.3890
 1.9820	 9.4190
 1.9830	 9.4490
 1.9840	 9.4790
 1.9850	 9.5110
 1.9860	 9.5420
 1.9870	 9.5720
 1.9880	 9.6050
 1.9890	 9.6390
 1.9900	 9.6720
 1.9910	 9.7070
 1.9920	 9.7400
 1.9930	 9.7730
 1.9940	 9.8070
 1.9950	 9.8410
 1.9960	 9.8760
 1.9970	 9.9100
 1.9980	 9.9450
 1.9990	 9.9810
 2.0000	10.0160
 2.0010	10.0510
 2.0020	10.0880
 2.0030	10.1230
 2.0040	10.1570
 2.0050	10.1910
 2.0060	10.2200
 2.0070	10.2530
 2.0080	10.2870
 2.0090	10.3220
 2.0100	10.3600
 2.0110	10.3970
 2.0120	10.4340
 2.0130	10.4670
 2.0140	10.4970
 2.0150	10.5290
 2.0160	10.5620
 2.0170	10.5950
 2.0180	10.6280
 2.0190	10.6650
 2.0200	10.7010
 2.0210	10.7320
 2.0220	10.7670
 2.0230	10.8010
 2.0240	10.8350
 2.0250	10.8730
 2.0260	10.9060
 2.0270	10.9390
 2.0280	10.9700
 2.0290	10.9990
 2.0300	11.0260
 2.0310	11.0570
 2.0320	11.0880
 2.0330	11.1180
 2.0340	11.1510
 2.0350	11.1810
 2.0360	11.2090
 2.0370	11.2370
 2.0380	11.2620
 2.0390	11.2890
 2.0400	11.3150
 2.0410	11.3410
 2.0420	11.3700
 2.0430	11.3980
 2.0440	11.4250
 2.0450	11.4490
 2.0460	11.4760
 2.0470	11.5020
 2.0480	11.5300
 2.0490	11.5620
 2.0500	11.5880
 2.0510	11.6140
 2.0520	11.6410
 2.0530	11.6630
 2.0540	11.6880
 2.0550	11.7140
 2.0560	11.7450
 2.0570	11.7760
 2.0580	11.8030
 2.0590	11.8300
 2.0600	11.8550
 2.0610	11.8800
 2.0620	11.9010
 2.0630	11.9260
 2.0640	11.9530
 2.0650	11.9800
 2.0660	12.0110
 2.0670	12.0370
 2.0680	12.0630
 2.0690	12.0900
 2.0700	12.1130
 2.0710	12.1410
 2.0720	12.1700
 2.0730	12.1980
 2.0740	12.2270
 2.0750	12.2580
 2.0760	12.2870
 2.0770	12.3140
 2.0780	12.3400
 2.0790	12.3670
 2.0800	12.3920
 2.0810	12.4140
 2.0820	12.4390
 2.0830	12.4640
 2.0840	12.4900
 2.0850	12.5190
 2.0860	12.5460
 2.0870	12.5740
 2.0880	12.6030
 2.0890	12.6300
 2.0900	12.6560
 2.0910	12.6830
 2.0920	12.7130
 2.0930	12.7410
 2.0940	12.7750
 2.0950	12.8030
 2.0960	12.8300
 2.0970	12.8590
 2.0980	12.8870
 2.0990	12.9160
 2.1000	12.9440
 2.1010	12.9720
 2.1020	13.0000
 2.1030	13.0280
 2.1040	13.0580
 2.1050	13.0890
 2.1060	13.1170
 2.1070	13.1480
 2.1080	13.1760
 2.1090	13.2040
 2.1100	13.2330
 2.1110	13.2600
 2.1120	13.2880
 2.1130	13.3190
 2.1140	13.3470
 2.1150	13.3730
 2.1160	13.3990
 2.1170	13.4220
 2.1180	13.4500
 2.1190	13.4780
 2.1200	13.5060
 2.1210	13.5350
 2.1220	13.5640
 2.1230	13.5920
 2.1240	13.6200
 2.1250	13.6490
 2.1260	13.6780
 2.1270	13.7060
 2.1280	13.7330
 2.1290	13.7610
 2.1300	13.7910
 2.1310	13.8170
 2.1320	13.8410
 2.1330	13.8660
 2.1340	13.8880
 2.1350	13.9120
 2.1360	13.9400
 2.1370	13.9650
 2.1380	13.9860
 2.1390	14.0080
 2.1400	14.0300
 2.1410	14.0510
 2.1420	14.0710
 2.1430	14.0930
 2.1440	14.1140
 2.1450	14.1340
 2.1460	14.1540
 2.1470	14.1780
 2.1480	14.1980
 2.1490	14.2150
 2.1500	14.2340
 2.1510	14.2520
 2.1520	14.2700
 2.1530	14.2880
 2.1540	14.3070
 2.1550	14.3280
 2.1560	14.3450
 2.1570	14.3610
 2.1580	14.3760
 2.1590	14.3890
 2.1600	14.4000
 2.1610	14.4130
 2.1620	14.4280
 2.1630	14.4440
 2.1640	14.4610
 2.1650	14.4770
 2.1660	14.4950
 2.1670	14.5090
 2.1680	14.5190
 2.1690	14.5310
 2.1700	14.5400
 2.1710	14.5530
 2.1720	14.5690
 2.1730	14.5830
 2.1740	14.5980
 2.1750	14.6120
 2.1760	14.6230
 2.1770	14.6350
 2.1780	14.6450
 2.1790	14.6570
 2.1800	14.6710
 2.1810	14.6840
 2.1820	14.6990
 2.1830	14.7110
 2.1840	14.7230
 2.1850	14.7320
 2.1860	14.7440
 2.1870	14.7560
 2.1880	14.7680
 2.1890	14.7790
 2.1900	14.7910
 2.1910	14.8030
 2.1920	14.8130
 2.1930	14.8230
 2.1940	14.8300
 2.1950	14.8340
 2.1960	14.8400
 2.1970	14.8490
 2.1980	14.8550
 2.1990	14.8610
 2.2000	14.8680
 2.2010	14.8740
 2.2020	14.8800
 2.2030	14.8900
 2.2040	14.8970
 2.2050	14.9010
 2.2060	14.9040
 2.2070	14.9090
 2.2080	14.9140
 2.2090	14.9170
 2.2100	14.9210
 2.2110	14.9210
 2.2120	14.9170
 2.2130	14.9160
 2.2140	14.9160
 2.2150	14.9130
 2.2160	14.9070
 2.2170	14.9030
 2.2180	14.8990
 2.2190	14.8940
 2.2200	14.8950
 2.2210	14.8870
 2.2220	14.8720
 2.2230	14.8610
 2.2240	14.8440
 2.2250	14.8330
 2.2260	14.8270
 2.2270	14.8170
 2.2280	14.8070
 2.2290	14.7940
 2.2300	14.7780
 2.2310	14.7580
 2.2320	14.7370
 2.2330	14.7100
 2.2340	14.6870
 2.2350	14.6620
 2.2360	14.6380
 2.2370	14.6170
 2.2380	14.5900
 2.2390	14.5600
 2.2400	14.5310
 2.2410	14.4980
 2.2420	14.4670
 2.2430	14.4370
 2.2440	14.4060
 2.2450	14.3730
 2.2460	14.3400
 2.2470	14.3070
 2.2480	14.2730
 2.2490	14.2410
 2.2500	14.2070
 2.2510	14.1700
 2.2520	14.1360
 2.2530	14.1020
 2.2540	14.0650
 2.2550	14.0260
 2.2560	13.9870
 2.2570	13.9440
 2.2580	13.9030
 2.2590	13.8640
 2.2600	13.8240
 2.2610	13.7850
 2.2620	13.7470
 2.2630	13.7050
 2.2640	13.6630
 2.2650	13.6190
 2.2660	13.5770
 2.2670	13.5420
 2.2680	13.5130
 2.2690	13.4830
 2.2700	13.4580
 2.2710	13.4300
 2.2720	13.4000
 2.2730	13.3700
 2.2740	13.3360
 2.2750	13.3080
 2.2760	13.2850
 2.2770	13.2620
 2.2780	13.2440
 2.2790	13.2220
 2.2800	13.2010
 2.2810	13.1770
 2.2820	13.1490
 2.2830	13.1250
 2.2840	13.0990
 2.2850	13.0730
 2.2860	13.0490
 2.2870	13.0280
 2.2880	13.0080
 2.2890	12.9850
 2.2900	12.9630
 2.2910	12.9400
 2.2920	12.9110
 2.2930	12.8820
 2.2940	12.8540
 2.2950	12.8230
 2.2960	12.7890
 2.2970	12.7580
 2.2980	12.7300
 2.2990	12.7040
 2.3000	12.6760
 2.3010	12.6510
 2.3020	12.6210
 2.3030	12.5900
 2.3040	12.5660
 2.3050	12.5430
 2.3060	12.5260
 2.3070	12.5070
 2.3080	12.4860
 2.3090	12.4610
 2.3100	12.4360
 2.3110	12.4120
 2.3120	12.3920
 2.3130	12.3730
 2.3140	12.3540
 2.3150	12.3400
 2.3160	12.3250
 2.3170	12.3100
 2.3180	12.2910
 2.3190	12.2670
 2.3200	12.2470
 2.3210	12.2240
 2.3220	12.2050
 2.3230	12.1900
 2.3240	12.1690
 2.3250	12.1420
 2.3260	12.1200
 2.3270	12.0990
 2.3280	12.0750
 2.3290	12.0550
 2.3300	12.0320
 2.3310	12.0070
 2.3320	11.9820
 2.3330	11.9560
 2.3340	11.9310
 2.3350	11.9050
 2.3360	11.8820
 2.3370	11.8650
 2.3380	11.8390
 2.3390	11.8130
 2.3400	11.7850
 2.3410	11.7430
 2.3420	11.7160
 2.3430	11.6960
 2.3440	11.6720
 2.3450	11.6520
 2.3460	11.6350
 2.3470	11.6180
 2.3480	11.6010
 2.3490	11.5880
 2.3500	11.5680
 2.3510	11.5400
 2.3520	11.5150
 2.3530	11.4880
 2.3540	11.4650
 2.3550	11.4490
 2.3560	11.4310
 2.3570	11.4120
 2.3580	11.4010
 2.3590	11.3840
 2.3600	11.3660
 2.3610	11.3510
 2.3620	11.3270
 2.3630	11.3030
 2.3640	11.2780
 2.3650	11.2460
 2.3660	11.2260
 2.3670	11.2070
 2.3680	11.1860
 2.3690	11.1630
 2.3700	11.1380
 2.3710	11.1150
 2.3720	11.0890
 2.3730	11.0710
 2.3740	11.0560
 2.3750	11.0350
 2.3760	11.0140
 2.3770	11.0000
 2.3780	10.9890
 2.3790	10.9740
 2.3800	10.9540
 2.3810	10.9290
 2.3820	10.9010
 2.3830	10.8780
 2.3840	10.8610
 2.3850	10.8440
 2.3860	10.8220
 2.3870	10.7970
 2.3880	10.7680
 2.3890	10.7400
 2.3900	10.7170
 2.3910	10.6880
 2.3920	10.6690
 2.3930	10.6600
 2.3940	10.6450
 2.3950	10.6300
 2.3960	10.6080
 2.3970	10.5840
 2.3980	10.5690
 2.3990	10.5570
 2.4000	10.5420
 2.4010	10.5210
 2.4020	10.4960
 2.4030	10.4700
 2.4040	10.4490
 2.4050	10.4310
 2.4060	10.4050
 2.4070	10.3860
 2.4080	10.3640
 2.4090	10.3340
 2.4100	10.3060
 2.4110	10.2830
 2.4120	10.2650
 2.4130	10.2460
 2.4140	10.2350
 2.4150	10.2150
 2.4160	10.1810
 2.4170	10.1650
 2.4180	10.1480
 2.4190	10.1290
 2.4200	10.1150
 2.4210	10.0940
 2.4220	10.0760
 2.4230	10.0530
 2.4240	10.0280
 2.4250	10.0020
 2.4260	 9.9660
 2.4270	 9.9260
 2.4280	 9.8900
 2.4290	 9.8690
 2.4300	 9.8460
 2.4310	 9.8170
 2.4320	 9.7960
 2.4330	 9.7750
 2.4340	 9.7590
 2.4350	 9.7420
 2.4360	 9.7330
 2.4370	 9.7110
 2.4380	 9.6770
 2.4390	 9.6730
 2.4400	 9.6560
 2.4410	 9.6140
 2.4420	 9.5850
 2.4430	 9.5500
 2.4440	 9.5160
 2.4450	 9.5090
 2.4460	 9.5050
 2.4470	 9.4880
 2.4480	 9.4640
 2.4490	 9.4370
 2.4500	 9.4120
 2.4510	 9.3860
 2.4520	 9.3670
 2.4530	 9.3380
 2.4540	 9.2990
 2.4550	 9.2710
 2.4560	 9.2470
 2.4570	 9.2530
 2.4580	 9.2500
 2.4590	 9.2240
 2.4600	 9.2180
 2.4610	 9.1810
 2.4620	 9.1510
 2.4630	 9.1530
 2.4640	 9.1250
 2.4650	 9.1010
 2.4660	 9.0800
 2.4670	 9.0420
 2.4680	 9.0120
 2.4690	 8.9830
 2.4700	 8.9810
 2.4710	 9.0150
 2.4720	 9.0090
 2.4730	 8.9950
 2.4740	 8.9820
 2.4750	 8.9360
 2.4760	 8.9150
 2.4770	 8.9110
 2.4780	 8.9090
 2.4790	 8.9150
 2.4800	 8.9090
 2.4810	 8.9160
 2.4820	 8.8880
 2.4830	 8.8340
 2.4840	 8.7860
 2.4850	 8.7700
 2.4860	 8.7770
 2.4870	 8.7920
 2.4880	 8.8110
 2.4890	 8.8100
 2.4900	 8.7830
 2.4910	 8.7540
 2.4920	 8.7440
 2.4930	 8.7230
 2.4940	 8.7310
 2.4950	 8.7420
 2.4960	 8.7480
 2.4970	 8.7830
 2.4980	 8.8060
 2.4990	 8.8050
 2.5000	 8.8010
