Name: Bambusa beecheyana
Type: vegetation
Class: Tree
Genus: Bambusa
Species: beecheyana
Sample No.: JPL237
Owner: JPL
Wavelength Range: TIR
Origin: 34.12719; -118.11127; WGS84
Collection Date: 10/6/2016
Description: Samples were collected at the Huntington Garden in San Marino California as part of a JPL Subcontract studying HyTES imagery. Samples were taken to JPL and processed within 48 hours of collection. The same leaves were processed in the Nicolet and then measured using the ASD.
Measurement: Hemispherical reflectance
First Column: X
Second Column: Y
X Units: Wavelength (micrometer)
Y Units: Reflectance (percentage)
First X Value: 2.501
Last X Value: 15.387
Number of X Values: 1737
Additional Information: vegetation.tree.bambusa.beecheyana.tir.jpl237.jpl.nicolet.ancillary.txt

 2.5010	 9.6540
 2.5030	 9.6280
 2.5040	 9.6770
 2.5050	 9.6960
 2.5060	 9.6370
 2.5070	 9.5540
 2.5090	 9.6090
 2.5100	 9.5580
 2.5110	 9.5190
 2.5120	 9.4660
 2.5140	 9.5240
 2.5150	 9.5020
 2.5160	 9.4170
 2.5170	 9.3640
 2.5180	 9.3980
 2.5200	 9.3620
 2.5210	 9.3470
 2.5220	 9.3540
 2.5230	 9.3520
 2.5250	 9.3560
 2.5260	 9.3520
 2.5270	 9.2920
 2.5280	 9.3340
 2.5300	 9.3180
 2.5310	 9.3050
 2.5320	 9.2410
 2.5330	 9.2470
 2.5340	 9.2720
 2.5360	 9.2510
 2.5370	 9.2160
 2.5380	 9.3400
 2.5390	 9.3350
 2.5410	 9.3250
 2.5420	 9.3020
 2.5430	 9.2600
 2.5440	 9.2750
 2.5460	 9.3650
 2.5470	 9.3660
 2.5480	 9.3360
 2.5490	 9.3730
 2.5510	 9.3900
 2.5520	 9.2950
 2.5530	 9.2400
 2.5540	 9.3660
 2.5560	 9.4670
 2.5570	 9.4410
 2.5580	 9.5190
 2.5590	 9.4540
 2.5610	 9.1860
 2.5620	 8.9440
 2.5630	 9.0150
 2.5650	 9.1350
 2.5660	 9.4100
 2.5670	 9.6100
 2.5680	 9.5400
 2.5700	 9.3030
 2.5710	 9.3380
 2.5720	 9.3530
 2.5730	 9.0880
 2.5750	 9.2130
 2.5760	 9.3340
 2.5770	 9.1440
 2.5790	 9.3740
 2.5800	 9.5090
 2.5810	 9.2430
 2.5820	 9.1420
 2.5840	 8.9170
 2.5850	 8.8660
 2.5860	 9.0820
 2.5880	 8.9390
 2.5890	 9.0920
 2.5900	 9.1970
 2.5910	 9.2850
 2.5930	 9.0650
 2.5940	 8.3850
 2.5950	 7.7890
 2.5970	 8.4020
 2.5980	 9.0100
 2.5990	 9.1900
 2.6010	 9.0740
 2.6020	 8.8900
 2.6030	 8.7020
 2.6040	 8.4050
 2.6060	 8.0710
 2.6070	 8.1730
 2.6080	 8.3230
 2.6100	 8.3830
 2.6110	 8.4480
 2.6120	 8.4570
 2.6140	 8.2910
 2.6150	 8.2570
 2.6160	 7.8510
 2.6180	 7.5870
 2.6190	 7.7830
 2.6200	 7.5710
 2.6220	 7.5040
 2.6230	 7.8420
 2.6240	 7.8900
 2.6260	 7.6840
 2.6270	 7.2480
 2.6280	 7.2870
 2.6300	 7.1150
 2.6310	 6.8350
 2.6320	 7.0150
 2.6340	 7.0750
 2.6350	 7.0080
 2.6360	 7.0890
 2.6380	 6.9470
 2.6390	 6.8370
 2.6400	 6.7240
 2.6420	 6.6270
 2.6430	 6.5660
 2.6440	 6.5500
 2.6460	 6.3570
 2.6470	 6.3020
 2.6480	 6.2450
 2.6500	 6.1970
 2.6510	 6.1010
 2.6520	 5.8890
 2.6540	 5.6760
 2.6550	 5.6590
 2.6570	 5.6320
 2.6580	 5.6850
 2.6590	 5.4550
 2.6610	 5.3130
 2.6620	 5.1990
 2.6630	 5.1780
 2.6650	 4.8580
 2.6660	 4.6240
 2.6670	 4.5230
 2.6690	 4.6140
 2.6700	 4.3350
 2.6720	 4.2490
 2.6730	 4.5210
 2.6740	 4.5990
 2.6760	 4.3050
 2.6770	 4.0680
 2.6780	 4.0170
 2.6800	 4.0150
 2.6810	 4.0450
 2.6830	 4.0440
 2.6840	 3.9600
 2.6850	 3.9540
 2.6870	 3.8770
 2.6880	 3.8660
 2.6900	 3.7910
 2.6910	 3.7000
 2.6920	 3.5340
 2.6940	 3.3830
 2.6950	 3.3430
 2.6970	 3.4190
 2.6980	 3.4820
 2.6990	 3.5080
 2.7010	 3.3980
 2.7020	 3.3700
 2.7040	 3.3970
 2.7050	 3.4050
 2.7060	 3.3490
 2.7080	 3.3020
 2.7090	 3.1540
 2.7110	 3.0680
 2.7120	 3.1010
 2.7130	 3.2820
 2.7150	 3.2640
 2.7160	 3.2770
 2.7180	 3.2270
 2.7190	 3.1260
 2.7210	 2.8730
 2.7220	 2.9790
 2.7230	 3.0480
 2.7250	 2.9530
 2.7260	 3.0670
 2.7280	 3.2290
 2.7290	 3.1720
 2.7310	 3.1920
 2.7320	 3.1850
 2.7340	 3.1480
 2.7350	 3.0080
 2.7360	 3.1120
 2.7380	 3.1790
 2.7390	 3.0120
 2.7410	 2.8600
 2.7420	 2.9660
 2.7440	 3.0940
 2.7450	 3.1760
 2.7470	 3.1370
 2.7480	 3.1450
 2.7490	 3.1010
 2.7510	 3.1150
 2.7520	 3.0780
 2.7540	 3.0500
 2.7550	 2.8800
 2.7570	 3.0070
 2.7580	 3.1820
 2.7600	 3.1890
 2.7610	 3.0680
 2.7630	 3.0270
 2.7640	 3.0000
 2.7660	 3.0150
 2.7670	 2.9920
 2.7690	 3.0860
 2.7700	 3.0660
 2.7720	 3.0480
 2.7730	 3.0760
 2.7740	 3.1620
 2.7760	 3.1570
 2.7770	 3.1380
 2.7790	 3.1190
 2.7800	 3.1130
 2.7820	 3.0560
 2.7830	 3.0730
 2.7850	 3.0740
 2.7860	 3.1000
 2.7880	 3.0310
 2.7890	 3.0920
 2.7910	 3.1230
 2.7920	 3.1630
 2.7940	 3.1320
 2.7950	 3.1140
 2.7970	 3.0850
 2.7980	 3.1640
 2.8000	 3.1780
 2.8010	 3.1160
 2.8030	 3.0090
 2.8040	 3.0650
 2.8060	 3.0500
 2.8080	 3.0760
 2.8090	 3.0610
 2.8110	 3.0530
 2.8120	 3.0160
 2.8140	 3.0610
 2.8150	 3.0710
 2.8170	 3.1080
 2.8180	 3.0760
 2.8200	 3.1090
 2.8210	 3.1180
 2.8230	 3.1120
 2.8240	 3.0690
 2.8260	 3.0730
 2.8270	 3.0930
 2.8290	 3.1360
 2.8310	 3.0530
 2.8320	 3.0500
 2.8340	 3.0390
 2.8350	 3.0530
 2.8370	 2.9680
 2.8380	 3.0410
 2.8400	 3.0910
 2.8410	 3.1190
 2.8430	 3.1070
 2.8440	 3.1180
 2.8460	 3.0530
 2.8480	 3.0620
 2.8490	 3.0660
 2.8510	 3.0790
 2.8520	 3.0760
 2.8540	 3.0810
 2.8550	 3.0000
 2.8570	 3.0120
 2.8590	 2.9920
 2.8600	 3.0510
 2.8620	 3.0850
 2.8630	 3.0880
 2.8650	 3.0120
 2.8660	 3.0060
 2.8680	 2.9780
 2.8700	 3.0170
 2.8710	 2.9570
 2.8730	 2.9520
 2.8740	 2.9560
 2.8760	 3.0130
 2.8780	 3.0120
 2.8790	 3.0410
 2.8810	 3.0010
 2.8820	 3.0740
 2.8840	 3.0870
 2.8860	 3.0780
 2.8870	 2.9870
 2.8890	 3.0060
 2.8900	 3.0430
 2.8920	 3.1060
 2.8940	 3.0240
 2.8950	 2.9830
 2.8970	 2.9870
 2.8990	 3.0440
 2.9000	 2.9920
 2.9020	 2.9740
 2.9030	 2.9550
 2.9050	 2.9960
 2.9070	 2.9270
 2.9080	 2.9320
 2.9100	 2.9330
 2.9120	 3.0330
 2.9130	 3.0270
 2.9150	 2.9960
 2.9160	 2.9790
 2.9180	 3.0130
 2.9200	 2.9320
 2.9210	 2.9610
 2.9230	 2.9460
 2.9250	 2.9540
 2.9260	 2.9250
 2.9280	 2.9500
 2.9300	 3.0140
 2.9310	 3.0580
 2.9330	 2.9570
 2.9350	 2.9400
 2.9360	 2.8930
 2.9380	 2.9290
 2.9400	 2.9250
 2.9410	 2.9910
 2.9430	 2.9940
 2.9450	 3.0030
 2.9460	 2.9710
 2.9480	 2.9940
 2.9500	 2.9770
 2.9510	 2.9590
 2.9530	 2.9030
 2.9550	 2.9100
 2.9560	 2.9290
 2.9580	 2.9280
 2.9600	 2.8750
 2.9610	 2.9540
 2.9630	 2.9350
 2.9650	 2.9130
 2.9670	 2.8620
 2.9680	 2.8880
 2.9700	 2.8820
 2.9720	 2.8960
 2.9730	 2.8450
 2.9750	 2.9170
 2.9770	 2.9320
 2.9780	 2.9310
 2.9800	 2.8740
 2.9820	 2.9090
 2.9840	 2.8590
 2.9850	 2.8490
 2.9870	 2.8440
 2.9890	 2.9070
 2.9900	 2.9480
 2.9920	 2.9590
 2.9940	 2.8990
 2.9960	 2.8490
 2.9970	 2.7500
 2.9990	 2.8460
 3.0010	 2.8710
 3.0030	 2.9000
 3.0040	 2.9250
 3.0060	 2.9050
 3.0080	 2.8140
 3.0100	 2.8380
 3.0110	 2.8890
 3.0130	 2.9570
 3.0150	 2.9230
 3.0170	 2.8720
 3.0180	 2.8580
 3.0200	 2.8980
 3.0220	 2.8460
 3.0240	 2.8600
 3.0250	 2.8460
 3.0270	 2.8620
 3.0290	 2.8210
 3.0310	 2.8810
 3.0320	 2.8930
 3.0340	 2.8920
 3.0360	 2.8160
 3.0380	 2.8480
 3.0400	 2.8290
 3.0410	 2.8480
 3.0430	 2.8440
 3.0450	 2.8770
 3.0470	 2.8370
 3.0480	 2.8600
 3.0500	 2.8540
 3.0520	 2.8630
 3.0540	 2.8340
 3.0560	 2.8330
 3.0570	 2.7800
 3.0590	 2.8040
 3.0610	 2.8170
 3.0630	 2.8620
 3.0650	 2.8380
 3.0670	 2.8550
 3.0680	 2.8560
 3.0700	 2.8280
 3.0720	 2.7990
 3.0740	 2.8570
 3.0760	 2.8530
 3.0770	 2.8190
 3.0790	 2.7660
 3.0810	 2.8570
 3.0830	 2.8600
 3.0850	 2.8330
 3.0870	 2.7980
 3.0880	 2.8210
 3.0900	 2.7940
 3.0920	 2.8200
 3.0940	 2.8020
 3.0960	 2.8570
 3.0980	 2.8220
 3.1000	 2.7970
 3.1010	 2.7270
 3.1030	 2.7650
 3.1050	 2.8120
 3.1070	 2.8150
 3.1090	 2.7600
 3.1110	 2.7390
 3.1130	 2.7630
 3.1140	 2.8340
 3.1160	 2.8370
 3.1180	 2.8280
 3.1200	 2.7670
 3.1220	 2.8220
 3.1240	 2.8200
 3.1260	 2.8440
 3.1280	 2.8140
 3.1290	 2.8040
 3.1310	 2.7370
 3.1330	 2.6880
 3.1350	 2.7080
 3.1370	 2.8240
 3.1390	 2.8290
 3.1410	 2.8020
 3.1430	 2.7220
 3.1450	 2.7720
 3.1470	 2.7890
 3.1480	 2.7850
 3.1500	 2.7620
 3.1520	 2.7880
 3.1540	 2.7770
 3.1560	 2.7870
 3.1580	 2.7800
 3.1600	 2.8230
 3.1620	 2.8010
 3.1640	 2.8100
 3.1660	 2.7640
 3.1680	 2.7630
 3.1700	 2.7640
 3.1720	 2.7930
 3.1730	 2.8030
 3.1750	 2.8430
 3.1770	 2.7970
 3.1790	 2.7890
 3.1810	 2.7720
 3.1830	 2.7940
 3.1850	 2.8010
 3.1870	 2.8180
 3.1890	 2.7810
 3.1910	 2.7720
 3.1930	 2.7390
 3.1950	 2.7620
 3.1970	 2.7700
 3.1990	 2.7500
 3.2010	 2.7150
 3.2030	 2.7460
 3.2050	 2.7300
 3.2070	 2.7370
 3.2090	 2.7110
 3.2110	 2.7250
 3.2130	 2.7610
 3.2150	 2.8200
 3.2170	 2.7780
 3.2190	 2.7800
 3.2210	 2.7610
 3.2230	 2.7780
 3.2250	 2.7440
 3.2270	 2.7700
 3.2290	 2.7380
 3.2310	 2.7180
 3.2330	 2.6830
 3.2350	 2.7250
 3.2370	 2.7570
 3.2390	 2.7810
 3.2410	 2.7630
 3.2430	 2.7380
 3.2450	 2.6990
 3.2470	 2.7480
 3.2490	 2.7490
 3.2510	 2.7370
 3.2530	 2.7070
 3.2550	 2.7490
 3.2570	 2.7420
 3.2590	 2.7440
 3.2610	 2.7180
 3.2630	 2.7380
 3.2650	 2.7010
 3.2670	 2.6930
 3.2700	 2.7050
 3.2720	 2.7160
 3.2740	 2.6720
 3.2760	 2.6720
 3.2780	 2.6720
 3.2800	 2.7320
 3.2820	 2.7190
 3.2840	 2.7310
 3.2860	 2.7200
 3.2880	 2.7220
 3.2900	 2.6750
 3.2920	 2.6770
 3.2940	 2.6570
 3.2970	 2.6450
 3.2990	 2.6480
 3.3010	 2.6590
 3.3030	 2.6420
 3.3050	 2.6790
 3.3070	 2.6770
 3.3090	 2.6870
 3.3110	 2.6350
 3.3130	 2.6390
 3.3160	 2.6110
 3.3180	 2.6170
 3.3200	 2.5840
 3.3220	 2.6160
 3.3240	 2.6290
 3.3260	 2.6130
 3.3280	 2.5730
 3.3300	 2.6050
 3.3330	 2.5930
 3.3350	 2.5980
 3.3370	 2.5760
 3.3390	 2.5930
 3.3410	 2.5280
 3.3430	 2.5330
 3.3450	 2.5040
 3.3480	 2.5150
 3.3500	 2.5310
 3.3520	 2.5600
 3.3540	 2.5510
 3.3560	 2.5190
 3.3580	 2.4330
 3.3610	 2.4400
 3.3630	 2.4840
 3.3650	 2.5430
 3.3670	 2.5030
 3.3690	 2.4790
 3.3720	 2.4390
 3.3740	 2.4410
 3.3760	 2.4120
 3.3780	 2.4160
 3.3800	 2.4190
 3.3830	 2.5170
 3.3850	 2.5250
 3.3870	 2.5250
 3.3890	 2.5010
 3.3910	 2.5390
 3.3940	 2.4790
 3.3960	 2.4440
 3.3980	 2.4310
 3.4000	 2.4710
 3.4030	 2.4780
 3.4050	 2.4850
 3.4070	 2.5290
 3.4090	 2.6330
 3.4110	 2.7290
 3.4140	 2.8800
 3.4160	 2.9790
 3.4180	 3.1850
 3.4200	 3.5270
 3.4230	 4.0880
 3.4250	 4.6460
 3.4270	 5.2210
 3.4300	 5.6110
 3.4320	 5.5900
 3.4340	 5.1670
 3.4360	 4.7790
 3.4390	 4.5020
 3.4410	 4.2610
 3.4430	 4.0820
 3.4450	 3.9980
 3.4480	 3.8870
 3.4500	 3.8400
 3.4520	 3.8010
 3.4550	 3.7840
 3.4570	 3.7130
 3.4590	 3.7210
 3.4620	 3.7070
 3.4640	 3.6480
 3.4660	 3.6240
 3.4690	 3.6240
 3.4710	 3.5180
 3.4730	 3.4380
 3.4760	 3.3890
 3.4780	 3.3710
 3.4800	 3.2900
 3.4830	 3.2730
 3.4850	 3.2210
 3.4870	 3.1650
 3.4900	 3.1110
 3.4920	 3.0840
 3.4940	 3.0550
 3.4970	 3.0900
 3.4990	 3.0790
 3.5010	 3.1480
 3.5040	 3.2930
 3.5060	 3.7030
 3.5080	 4.4720
 3.5110	 5.2550
 3.5130	 5.4050
 3.5160	 5.0960
 3.5180	 4.6870
 3.5200	 4.3940
 3.5230	 4.1570
 3.5250	 4.0530
 3.5280	 3.9750
 3.5300	 3.9290
 3.5320	 3.8680
 3.5350	 3.8420
 3.5370	 3.7970
 3.5400	 3.7660
 3.5420	 3.7080
 3.5440	 3.6830
 3.5470	 3.6370
 3.5490	 3.6510
 3.5520	 3.6600
 3.5540	 3.6350
 3.5570	 3.5500
 3.5590	 3.5930
 3.5610	 3.5940
 3.5640	 3.5800
 3.5660	 3.5890
 3.5690	 3.6310
 3.5710	 3.5820
 3.5740	 3.5930
 3.5760	 3.5870
 3.5790	 3.5650
 3.5810	 3.5540
 3.5840	 3.5530
 3.5860	 3.5210
 3.5890	 3.5150
 3.5910	 3.5180
 3.5940	 3.5580
 3.5960	 3.5400
 3.5990	 3.5320
 3.6010	 3.5310
 3.6040	 3.5530
 3.6060	 3.5400
 3.6090	 3.5480
 3.6110	 3.5610
 3.6140	 3.5670
 3.6160	 3.5480
 3.6190	 3.5690
 3.6210	 3.5820
 3.6240	 3.5740
 3.6260	 3.5400
 3.6290	 3.5930
 3.6310	 3.5820
 3.6340	 3.5790
 3.6360	 3.5750
 3.6390	 3.5700
 3.6410	 3.5690
 3.6440	 3.6160
 3.6470	 3.6010
 3.6490	 3.5840
 3.6520	 3.5640
 3.6540	 3.5890
 3.6570	 3.6070
 3.6590	 3.6610
 3.6620	 3.6650
 3.6650	 3.6700
 3.6670	 3.6560
 3.6700	 3.6800
 3.6720	 3.6970
 3.6750	 3.6970
 3.6780	 3.6910
 3.6800	 3.7190
 3.6830	 3.7310
 3.6850	 3.7350
 3.6880	 3.7290
 3.6910	 3.7430
 3.6930	 3.7740
 3.6960	 3.8270
 3.6990	 3.8010
 3.7010	 3.8280
 3.7040	 3.8310
 3.7070	 3.8220
 3.7090	 3.7720
 3.7120	 3.8080
 3.7150	 3.8240
 3.7170	 3.8480
 3.7200	 3.8530
 3.7230	 3.8980
 3.7250	 3.9230
 3.7280	 3.9380
 3.7310	 3.9280
 3.7330	 3.9500
 3.7360	 3.9740
 3.7390	 3.9950
 3.7410	 4.0120
 3.7440	 4.0390
 3.7470	 4.0030
 3.7490	 4.0240
 3.7520	 4.0620
 3.7550	 4.0940
 3.7580	 4.0860
 3.7600	 4.1260
 3.7630	 4.1710
 3.7660	 4.2130
 3.7690	 4.2140
 3.7710	 4.2190
 3.7740	 4.2060
 3.7770	 4.1970
 3.7790	 4.2120
 3.7820	 4.2760
 3.7850	 4.3180
 3.7880	 4.3480
 3.7910	 4.3340
 3.7930	 4.3080
 3.7960	 4.3300
 3.7990	 4.3920
 3.8020	 4.3970
 3.8040	 4.4450
 3.8070	 4.4510
 3.8100	 4.4600
 3.8130	 4.4650
 3.8160	 4.4820
 3.8180	 4.4780
 3.8210	 4.5360
 3.8240	 4.5790
 3.8270	 4.6010
 3.8300	 4.5810
 3.8330	 4.6050
 3.8350	 4.6350
 3.8380	 4.6590
 3.8410	 4.6240
 3.8440	 4.6400
 3.8470	 4.6680
 3.8500	 4.7100
 3.8520	 4.7100
 3.8550	 4.7360
 3.8580	 4.7350
 3.8610	 4.7660
 3.8640	 4.7830
 3.8670	 4.7840
 3.8700	 4.7410
 3.8730	 4.7500
 3.8760	 4.7810
 3.8780	 4.8160
 3.8810	 4.7940
 3.8840	 4.8260
 3.8870	 4.8170
 3.8900	 4.8180
 3.8930	 4.8190
 3.8960	 4.8480
 3.8990	 4.8210
 3.9020	 4.8060
 3.9050	 4.8160
 3.9080	 4.8600
 3.9110	 4.8490
 3.9140	 4.8130
 3.9170	 4.7950
 3.9190	 4.7980
 3.9220	 4.7980
 3.9250	 4.8680
 3.9280	 4.8710
 3.9310	 4.8200
 3.9340	 4.7880
 3.9370	 4.8380
 3.9400	 4.8400
 3.9430	 4.8260
 3.9460	 4.8140
 3.9490	 4.8170
 3.9520	 4.8270
 3.9550	 4.8600
 3.9580	 4.8460
 3.9610	 4.8500
 3.9640	 4.8260
 3.9670	 4.8350
 3.9700	 4.8430
 3.9740	 4.8530
 3.9770	 4.8400
 3.9800	 4.8410
 3.9830	 4.8190
 3.9860	 4.8240
 3.9890	 4.7990
 3.9920	 4.8190
 3.9950	 4.8220
 3.9980	 4.7990
 4.0010	 4.8060
 4.0040	 4.8590
 4.0070	 4.8570
 4.0100	 4.8830
 4.0140	 4.8850
 4.0170	 4.8710
 4.0200	 4.8270
 4.0230	 4.8310
 4.0260	 4.8390
 4.0290	 4.8600
 4.0320	 4.8500
 4.0350	 4.8470
 4.0390	 4.8230
 4.0420	 4.8220
 4.0450	 4.7960
 4.0480	 4.8150
 4.0510	 4.8050
 4.0540	 4.8090
 4.0570	 4.8390
 4.0610	 4.8420
 4.0640	 4.7870
 4.0670	 4.7740
 4.0700	 4.7940
 4.0730	 4.7830
 4.0770	 4.7690
 4.0800	 4.7910
 4.0830	 4.7550
 4.0860	 4.7430
 4.0890	 4.7460
 4.0930	 4.7350
 4.0960	 4.7260
 4.0990	 4.7320
 4.1020	 4.7300
 4.1060	 4.7640
 4.1090	 4.7480
 4.1120	 4.7110
 4.1150	 4.6960
 4.1190	 4.6790
 4.1220	 4.6590
 4.1250	 4.6750
 4.1290	 4.6470
 4.1320	 4.6490
 4.1350	 4.6640
 4.1380	 4.6750
 4.1420	 4.6460
 4.1450	 4.6310
 4.1480	 4.6140
 4.1520	 4.5880
 4.1550	 4.5500
 4.1580	 4.5450
 4.1620	 4.5390
 4.1650	 4.5670
 4.1680	 4.5780
 4.1720	 4.5630
 4.1750	 4.5110
 4.1780	 4.4890
 4.1820	 4.4780
 4.1850	 4.4790
 4.1890	 4.4730
 4.1920	 4.4820
 4.1950	 4.4910
 4.1990	 4.4800
 4.2020	 4.4800
 4.2060	 4.5240
 4.2090	 4.4890
 4.2120	 4.4970
 4.2160	 4.5720
 4.2190	 4.6040
 4.2230	 4.5780
 4.2260	 4.5500
 4.2300	 4.5720
 4.2330	 4.6490
 4.2360	 4.5800
 4.2400	 4.5490
 4.2430	 4.4260
 4.2470	 4.3660
 4.2500	 4.3720
 4.2540	 4.3980
 4.2570	 4.3460
 4.2610	 4.3400
 4.2640	 4.3390
 4.2680	 4.3200
 4.2710	 4.2800
 4.2750	 4.3090
 4.2780	 4.2870
 4.2820	 4.2960
 4.2850	 4.2480
 4.2890	 4.2060
 4.2930	 4.1460
 4.2960	 4.1590
 4.3000	 4.1770
 4.3030	 4.1420
 4.3070	 4.0800
 4.3100	 4.0410
 4.3140	 4.0200
 4.3180	 4.0510
 4.3210	 4.0220
 4.3250	 4.0370
 4.3280	 3.9910
 4.3320	 3.9530
 4.3360	 3.9450
 4.3390	 3.9310
 4.3430	 3.9200
 4.3470	 3.9140
 4.3500	 3.8760
 4.3540	 3.8640
 4.3580	 3.8590
 4.3610	 3.8360
 4.3650	 3.8190
 4.3690	 3.8040
 4.3720	 3.7940
 4.3760	 3.7940
 4.3800	 3.7870
 4.3830	 3.7310
 4.3870	 3.7020
 4.3910	 3.7290
 4.3940	 3.7220
 4.3980	 3.7200
 4.4020	 3.6810
 4.4060	 3.6770
 4.4090	 3.6930
 4.4130	 3.6870
 4.4170	 3.6700
 4.4210	 3.6450
 4.4240	 3.6300
 4.4280	 3.6320
 4.4320	 3.5860
 4.4360	 3.5710
 4.4400	 3.5740
 4.4430	 3.5450
 4.4470	 3.5560
 4.4510	 3.5870
 4.4550	 3.5700
 4.4590	 3.5470
 4.4630	 3.4950
 4.4660	 3.4840
 4.4700	 3.4850
 4.4740	 3.4650
 4.4780	 3.4730
 4.4820	 3.4610
 4.4860	 3.4630
 4.4900	 3.4920
 4.4930	 3.4870
 4.4970	 3.4730
 4.5010	 3.4610
 4.5050	 3.4480
 4.5090	 3.4230
 4.5130	 3.4360
 4.5170	 3.4120
 4.5210	 3.3710
 4.5250	 3.3660
 4.5290	 3.3950
 4.5330	 3.4010
 4.5370	 3.4050
 4.5410	 3.3960
 4.5450	 3.3790
 4.5490	 3.3850
 4.5530	 3.4050
 4.5570	 3.3810
 4.5610	 3.3700
 4.5650	 3.3310
 4.5690	 3.2990
 4.5730	 3.3110
 4.5770	 3.3370
 4.5810	 3.3470
 4.5850	 3.3160
 4.5890	 3.3200
 4.5930	 3.3360
 4.5970	 3.3140
 4.6010	 3.3230
 4.6050	 3.3360
 4.6090	 3.3250
 4.6130	 3.3110
 4.6170	 3.3290
 4.6220	 3.3120
 4.6260	 3.2770
 4.6300	 3.2950
 4.6340	 3.2890
 4.6380	 3.2670
 4.6420	 3.2660
 4.6460	 3.2580
 4.6510	 3.2620
 4.6550	 3.2730
 4.6590	 3.2740
 4.6630	 3.2630
 4.6670	 3.2620
 4.6720	 3.2540
 4.6760	 3.2560
 4.6800	 3.2490
 4.6840	 3.2420
 4.6880	 3.2610
 4.6930	 3.2760
 4.6970	 3.2600
 4.7010	 3.2180
 4.7050	 3.1870
 4.7100	 3.2050
 4.7140	 3.2360
 4.7180	 3.2450
 4.7230	 3.2420
 4.7270	 3.2430
 4.7310	 3.2600
 4.7360	 3.2690
 4.7400	 3.2590
 4.7440	 3.2470
 4.7490	 3.2720
 4.7530	 3.2660
 4.7570	 3.2600
 4.7620	 3.2690
 4.7660	 3.2570
 4.7700	 3.2530
 4.7750	 3.2690
 4.7790	 3.3110
 4.7840	 3.3110
 4.7880	 3.2960
 4.7920	 3.2970
 4.7970	 3.2990
 4.8010	 3.2920
 4.8060	 3.2560
 4.8100	 3.2370
 4.8150	 3.2410
 4.8190	 3.2690
 4.8240	 3.2750
 4.8280	 3.2600
 4.8330	 3.2520
 4.8370	 3.3000
 4.8420	 3.3170
 4.8460	 3.3060
 4.8510	 3.3240
 4.8550	 3.3580
 4.8600	 3.3460
 4.8640	 3.3150
 4.8690	 3.2980
 4.8740	 3.3230
 4.8780	 3.3510
 4.8830	 3.3420
 4.8870	 3.3230
 4.8920	 3.3220
 4.8970	 3.3330
 4.9010	 3.3580
 4.9060	 3.3870
 4.9100	 3.3890
 4.9150	 3.3880
 4.9200	 3.4180
 4.9240	 3.4380
 4.9290	 3.4390
 4.9340	 3.4320
 4.9390	 3.4480
 4.9430	 3.4300
 4.9480	 3.4210
 4.9530	 3.4580
 4.9570	 3.4870
 4.9620	 3.4780
 4.9670	 3.4790
 4.9720	 3.5240
 4.9760	 3.5410
 4.9810	 3.5200
 4.9860	 3.5440
 4.9910	 3.5740
 4.9960	 3.5890
 5.0000	 3.5790
 5.0050	 3.6030
 5.0100	 3.6240
 5.0150	 3.6230
 5.0200	 3.6020
 5.0250	 3.6550
 5.0300	 3.6900
 5.0340	 3.6630
 5.0390	 3.6370
 5.0440	 3.6800
 5.0490	 3.7110
 5.0540	 3.7100
 5.0590	 3.7380
 5.0640	 3.7880
 5.0690	 3.8140
 5.0740	 3.8260
 5.0790	 3.8080
 5.0840	 3.8100
 5.0890	 3.8370
 5.0940	 3.8290
 5.0990	 3.8240
 5.1040	 3.8710
 5.1090	 3.9060
 5.1140	 3.9280
 5.1190	 3.9230
 5.1240	 3.9320
 5.1290	 3.9640
 5.1340	 4.0040
 5.1390	 4.0120
 5.1440	 3.9870
 5.1490	 3.9700
 5.1550	 4.0140
 5.1600	 4.0390
 5.1650	 4.0710
 5.1700	 4.1130
 5.1750	 4.1190
 5.1800	 4.1060
 5.1850	 4.1500
 5.1910	 4.1260
 5.1960	 4.1080
 5.2010	 4.0700
 5.2060	 4.0830
 5.2110	 4.0580
 5.2170	 4.0890
 5.2220	 4.1610
 5.2270	 4.1940
 5.2330	 4.1780
 5.2380	 4.1610
 5.2430	 4.1680
 5.2480	 4.1700
 5.2540	 4.1610
 5.2590	 4.1660
 5.2640	 4.1780
 5.2700	 4.1970
 5.2750	 4.1810
 5.2800	 4.1780
 5.2860	 4.1940
 5.2910	 4.2000
 5.2970	 4.2110
 5.3020	 4.2290
 5.3080	 4.2000
 5.3130	 4.2120
 5.3180	 4.1890
 5.3240	 4.1540
 5.3290	 4.1330
 5.3350	 4.1780
 5.3400	 4.1740
 5.3460	 4.0990
 5.3510	 4.0400
 5.3570	 4.1160
 5.3620	 4.1610
 5.3680	 4.1770
 5.3740	 4.1500
 5.3790	 4.1350
 5.3850	 4.1220
 5.3900	 4.1380
 5.3960	 4.1250
 5.4010	 4.1040
 5.4070	 4.0680
 5.4130	 4.0490
 5.4180	 3.9420
 5.4240	 3.8650
 5.4300	 3.9600
 5.4350	 3.9990
 5.4410	 3.9610
 5.4470	 3.9410
 5.4530	 3.9030
 5.4580	 3.8620
 5.4640	 3.7640
 5.4700	 3.7530
 5.4760	 3.7330
 5.4810	 3.7260
 5.4870	 3.7560
 5.4930	 3.7650
 5.4990	 3.7490
 5.5050	 3.7280
 5.5110	 3.6640
 5.5160	 3.6060
 5.5220	 3.5930
 5.5280	 3.5860
 5.5340	 3.5540
 5.5400	 3.5510
 5.5460	 3.5050
 5.5520	 3.4090
 5.5580	 3.3770
 5.5640	 3.4340
 5.5700	 3.3760
 5.5760	 3.2470
 5.5820	 3.2160
 5.5880	 3.3000
 5.5940	 3.2840
 5.6000	 3.2080
 5.6060	 3.1650
 5.6120	 3.1760
 5.6180	 3.1640
 5.6240	 3.1740
 5.6300	 3.1060
 5.6360	 2.9650
 5.6420	 2.7820
 5.6490	 2.8150
 5.6550	 2.8470
 5.6610	 2.8510
 5.6670	 2.8520
 5.6730	 2.7640
 5.6800	 2.7160
 5.6860	 2.7700
 5.6920	 2.7190
 5.6980	 2.7310
 5.7050	 2.6710
 5.7110	 2.5660
 5.7170	 2.5230
 5.7230	 2.5420
 5.7300	 2.5480
 5.7360	 2.5490
 5.7420	 2.5240
 5.7490	 2.5390
 5.7550	 2.6520
 5.7620	 2.6250
 5.7680	 2.5200
 5.7740	 2.7220
 5.7810	 2.8450
 5.7870	 2.9180
 5.7940	 2.9510
 5.8000	 2.9360
 5.8070	 2.9080
 5.8130	 2.8320
 5.8200	 2.6680
 5.8260	 2.7390
 5.8330	 2.8420
 5.8390	 2.9410
 5.8460	 2.9970
 5.8530	 3.0260
 5.8590	 2.9760
 5.8660	 2.9670
 5.8730	 2.9620
 5.8790	 2.7330
 5.8860	 2.7160
 5.8930	 2.8410
 5.8990	 2.8280
 5.9060	 3.0110
 5.9130	 3.0350
 5.9190	 2.9870
 5.9260	 2.9470
 5.9330	 2.7680
 5.9400	 2.6400
 5.9470	 2.8580
 5.9530	 2.9110
 5.9600	 2.8940
 5.9670	 2.7820
 5.9740	 2.8400
 5.9810	 2.9140
 5.9880	 2.8800
 5.9950	 2.8430
 6.0020	 2.9080
 6.0090	 2.8430
 6.0160	 2.8120
 6.0230	 2.8560
 6.0300	 2.8810
 6.0370	 2.7970
 6.0440	 2.5730
 6.0510	 2.3460
 6.0580	 2.6020
 6.0650	 2.7060
 6.0720	 2.6240
 6.0790	 2.6710
 6.0860	 2.8110
 6.0930	 2.8220
 6.1010	 2.8400
 6.1080	 2.6840
 6.1150	 2.5930
 6.1220	 2.7160
 6.1290	 2.8590
 6.1370	 2.8060
 6.1440	 2.8040
 6.1510	 2.7940
 6.1580	 2.7720
 6.1660	 2.8390
 6.1730	 2.9570
 6.1800	 2.8620
 6.1880	 2.8230
 6.1950	 2.9040
 6.2030	 2.9570
 6.2100	 2.9300
 6.2180	 2.9930
 6.2250	 3.0080
 6.2320	 3.0260
 6.2400	 2.9890
 6.2480	 3.0220
 6.2550	 3.0130
 6.2630	 3.0850
 6.2700	 3.0910
 6.2780	 3.0970
 6.2850	 3.1150
 6.2930	 3.1250
 6.3010	 3.0970
 6.3080	 3.1450
 6.3160	 3.1440
 6.3240	 3.1700
 6.3310	 3.1340
 6.3390	 2.9690
 6.3470	 2.8790
 6.3550	 3.1060
 6.3620	 3.1120
 6.3700	 3.0180
 6.3780	 3.0050
 6.3860	 3.0520
 6.3940	 3.0200
 6.4020	 2.9900
 6.4100	 2.6280
 6.4180	 2.5520
 6.4260	 2.7880
 6.4340	 2.9070
 6.4420	 2.9530
 6.4500	 2.9570
 6.4580	 2.9240
 6.4660	 2.9420
 6.4740	 2.8130
 6.4820	 2.7240
 6.4900	 2.5530
 6.4980	 2.5720
 6.5060	 2.7730
 6.5140	 2.8270
 6.5230	 2.7320
 6.5310	 2.8620
 6.5390	 2.8690
 6.5470	 2.8210
 6.5560	 2.7110
 6.5640	 2.6560
 6.5720	 2.4960
 6.5800	 2.5940
 6.5890	 2.6490
 6.5970	 2.7170
 6.6060	 2.7910
 6.6140	 2.7780
 6.6230	 2.6980
 6.6310	 2.5300
 6.6390	 2.4020
 6.6480	 2.6840
 6.6570	 2.8520
 6.6650	 2.8240
 6.6740	 2.6900
 6.6820	 2.6440
 6.6910	 2.6900
 6.7000	 2.7710
 6.7080	 2.6470
 6.7170	 2.6650
 6.7260	 2.7380
 6.7340	 2.7990
 6.7430	 2.7510
 6.7520	 2.7550
 6.7610	 2.7430
 6.7690	 2.6760
 6.7780	 2.5920
 6.7870	 2.7450
 6.7960	 2.8980
 6.8050	 2.9930
 6.8140	 2.8870
 6.8230	 2.8080
 6.8320	 2.9860
 6.8410	 3.3500
 6.8500	 3.2160
 6.8590	 2.8730
 6.8680	 2.7600
 6.8770	 3.0220
 6.8860	 3.0680
 6.8960	 3.0780
 6.9050	 2.9880
 6.9140	 2.9760
 6.9230	 2.9680
 6.9320	 3.0330
 6.9420	 3.0030
 6.9510	 2.9280
 6.9600	 2.7740
 6.9700	 2.9070
 6.9790	 3.0040
 6.9880	 2.9760
 6.9980	 2.9250
 7.0070	 3.0140
 7.0170	 2.9830
 7.0260	 2.9770
 7.0360	 2.9110
 7.0450	 2.8500
 7.0550	 2.8980
 7.0650	 3.0450
 7.0740	 3.0390
 7.0840	 3.0320
 7.0940	 2.9960
 7.1030	 3.0390
 7.1130	 2.9290
 7.1230	 2.9120
 7.1330	 2.9160
 7.1420	 2.9010
 7.1520	 2.7930
 7.1620	 2.7810
 7.1720	 2.7290
 7.1820	 2.7790
 7.1920	 2.7330
 7.2020	 2.7210
 7.2120	 2.7040
 7.2220	 2.8110
 7.2320	 2.7750
 7.2420	 2.7870
 7.2520	 2.7540
 7.2620	 2.7840
 7.2730	 2.7240
 7.2830	 2.7390
 7.2930	 2.7150
 7.3030	 2.7500
 7.3140	 2.7570
 7.3240	 2.8070
 7.3340	 2.7060
 7.3450	 2.7270
 7.3550	 2.7710
 7.3660	 2.8340
 7.3760	 2.7710
 7.3870	 2.7830
 7.3970	 2.7730
 7.4080	 2.7930
 7.4180	 2.7640
 7.4290	 2.7670
 7.4400	 2.7070
 7.4500	 2.7380
 7.4610	 2.7000
 7.4720	 2.7350
 7.4830	 2.7000
 7.4930	 2.7460
 7.5040	 2.6960
 7.5150	 2.7510
 7.5260	 2.7020
 7.5370	 2.6920
 7.5480	 2.6550
 7.5590	 2.7020
 7.5700	 2.6320
 7.5810	 2.6310
 7.5920	 2.6050
 7.6030	 2.6680
 7.6140	 2.6560
 7.6260	 2.6750
 7.6370	 2.5760
 7.6480	 2.5970
 7.6590	 2.6010
 7.6710	 2.6520
 7.6820	 2.5890
 7.6940	 2.6290
 7.7050	 2.5890
 7.7160	 2.5960
 7.7280	 2.5460
 7.7390	 2.6020
 7.7510	 2.5730
 7.7630	 2.5660
 7.7740	 2.4970
 7.7860	 2.5290
 7.7980	 2.4530
 7.8090	 2.4430
 7.8210	 2.4110
 7.8330	 2.4660
 7.8450	 2.4390
 7.8570	 2.4710
 7.8690	 2.4000
 7.8810	 2.4360
 7.8930	 2.3850
 7.9050	 2.4150
 7.9170	 2.3870
 7.9290	 2.4060
 7.9410	 2.3410
 7.9530	 2.3250
 7.9650	 2.2720
 7.9780	 2.3420
 7.9900	 2.2890
 8.0020	 2.3250
 8.0150	 2.2580
 8.0270	 2.3250
 8.0390	 2.3090
 8.0520	 2.3990
 8.0640	 2.3530
 8.0770	 2.3960
 8.0900	 2.3620
 8.1020	 2.4060
 8.1150	 2.3690
 8.1280	 2.4250
 8.1400	 2.3410
 8.1530	 2.4190
 8.1660	 2.3660
 8.1790	 2.4100
 8.1920	 2.3830
 8.2050	 2.4520
 8.2180	 2.3800
 8.2310	 2.4800
 8.2440	 2.4140
 8.2570	 2.4540
 8.2700	 2.3980
 8.2830	 2.4400
 8.2970	 2.3410
 8.3100	 2.3940
 8.3230	 2.3510
 8.3370	 2.4310
 8.3500	 2.3800
 8.3640	 2.4610
 8.3770	 2.3950
 8.3910	 2.3980
 8.4040	 2.3220
 8.4180	 2.4070
 8.4320	 2.4000
 8.4450	 2.4790
 8.4590	 2.4010
 8.4730	 2.4600
 8.4870	 2.3760
 8.5010	 2.4040
 8.5150	 2.4030
 8.5290	 2.4000
 8.5430	 2.2950
 8.5570	 2.3890
 8.5710	 2.3190
 8.5850	 2.3960
 8.5990	 2.3790
 8.6140	 2.5190
 8.6280	 2.5240
 8.6420	 2.5590
 8.6570	 2.5100
 8.6710	 2.6400
 8.6860	 2.6080
 8.7000	 2.6480
 8.7150	 2.5510
 8.7300	 2.6230
 8.7440	 2.5430
 8.7590	 2.5500
 8.7740	 2.4740
 8.7890	 2.5860
 8.8040	 2.5450
 8.8190	 2.6630
 8.8340	 2.6240
 8.8490	 2.6590
 8.8640	 2.5530
 8.8790	 2.7050
 8.8940	 2.6850
 8.9100	 2.8170
 8.9250	 2.8630
 8.9400	 3.0520
 8.9560	 3.0500
 8.9710	 3.1510
 8.9870	 3.1290
 9.0020	 3.3120
 9.0180	 3.3660
 9.0340	 3.5560
 9.0500	 3.5820
 9.0650	 3.7330
 9.0810	 3.7280
 9.0970	 3.9040
 9.1130	 3.9560
 9.1290	 4.0590
 9.1450	 4.0020
 9.1620	 4.1750
 9.1780	 4.1800
 9.1940	 4.2910
 9.2100	 4.2180
 9.2270	 4.2710
 9.2430	 4.1340
 9.2600	 4.2450
 9.2760	 4.2170
 9.2930	 4.2820
 9.3100	 4.1990
 9.3260	 4.3130
 9.3430	 4.2790
 9.3600	 4.3190
 9.3770	 4.1620
 9.3940	 4.2150
 9.4110	 4.0490
 9.4280	 4.0070
 9.4450	 3.8050
 9.4620	 3.8650
 9.4800	 3.8760
 9.4970	 4.0790
 9.5150	 4.1270
 9.5320	 4.3480
 9.5500	 4.3740
 9.5670	 4.5750
 9.5850	 4.6260
 9.6030	 4.8200
 9.6200	 4.8350
 9.6380	 5.0210
 9.6560	 5.0540
 9.6740	 5.2080
 9.6920	 5.1720
 9.7110	 5.2570
 9.7290	 5.1650
 9.7470	 5.1970
 9.7650	 5.0580
 9.7840	 5.1300
 9.8020	 4.9910
 9.8210	 5.0330
 9.8390	 4.9430
 9.8580	 4.9090
 9.8770	 4.6980
 9.8960	 4.6710
 9.9150	 4.4760
 9.9340	 4.3910
 9.9530	 4.2370
 9.9720	 4.2720
 9.9910	 4.1150
10.0100	 4.1230
10.0300	 3.9630
10.0490	 4.0240
10.0690	 3.8960
10.0880	 3.9000
10.1080	 3.8140
10.1280	 3.8600
10.1480	 3.7750
10.1670	 3.9350
10.1870	 3.8640
10.2070	 3.8920
10.2280	 3.8070
10.2480	 3.8750
10.2680	 3.8210
10.2890	 3.8970
10.3090	 3.8350
10.3300	 3.8910
10.3500	 3.8190
10.3710	 3.8860
10.3920	 3.7790
10.4120	 3.8380
10.4330	 3.8130
10.4540	 3.8860
10.4760	 3.7800
10.4970	 3.8510
10.5180	 3.7570
10.5390	 3.8240
10.5610	 3.7150
10.5820	 3.7270
10.6040	 3.5630
10.6260	 3.5960
10.6480	 3.4700
10.6700	 3.5320
10.6920	 3.4610
10.7140	 3.4820
10.7360	 3.3240
10.7580	 3.3740
10.7800	 3.2920
10.8030	 3.4620
10.8250	 3.2920
10.8480	 3.2000
10.8710	 3.0380
10.8940	 3.1330
10.9170	 3.0660
10.9400	 3.0790
10.9630	 2.9310
10.9860	 2.9820
11.0090	 2.8350
11.0330	 2.8660
11.0560	 2.7760
11.0800	 2.8690
11.1040	 2.7260
11.1270	 2.8050
11.1510	 2.7170
11.1750	 2.7990
11.2000	 2.7170
11.2240	 2.7890
11.2480	 2.7090
11.2730	 2.8360
11.2970	 2.7270
11.3220	 2.8240
11.3470	 2.7190
11.3720	 2.7470
11.3970	 2.6330
11.4220	 2.7630
11.4470	 2.7110
11.4720	 2.8840
11.4980	 2.6860
11.5230	 2.6850
11.5490	 2.5280
11.5750	 2.6160
11.6000	 2.4760
11.6260	 2.6300
11.6530	 2.5970
11.6790	 2.6560
11.7050	 2.5020
11.7320	 2.5670
11.7580	 2.4350
11.7850	 2.4830
11.8120	 2.3500
11.8390	 2.4570
11.8660	 2.3390
11.8930	 2.4650
11.9200	 2.4320
11.9480	 2.5860
11.9760	 2.4620
12.0030	 2.5670
12.0310	 2.4490
12.0590	 2.5720
12.0870	 2.4540
12.1150	 2.6650
12.1440	 2.6600
12.1720	 2.8250
12.2010	 2.7060
12.2300	 2.7750
12.2590	 2.6020
12.2880	 2.7520
12.3170	 2.6510
12.3460	 2.7590
12.3760	 2.5910
12.4050	 2.7620
12.4350	 2.7510
12.4650	 2.8880
12.4950	 2.7270
12.5250	 2.8980
12.5550	 2.7780
12.5860	 2.8090
12.6170	 2.6440
12.6470	 2.8210
12.6780	 2.7480
12.7090	 2.9290
12.7410	 2.7800
12.7720	 2.9240
12.8030	 2.7860
12.8350	 2.9140
12.8670	 2.8070
12.8990	 2.9530
12.9310	 2.8090
12.9640	 2.9480
12.9960	 2.8380
13.0290	 3.0390
13.0610	 2.8390
13.0940	 2.9140
13.1280	 2.8320
13.1610	 3.0120
13.1940	 2.7930
13.2280	 2.8900
13.2620	 2.7840
13.2960	 2.9590
13.3300	 2.7800
13.3640	 2.9850
13.3990	 2.8800
13.4340	 3.0040
13.4690	 2.7680
13.5040	 2.9050
13.5390	 2.8170
13.5740	 3.0660
13.6100	 2.8990
13.6460	 3.1840
13.6820	 3.1150
13.7180	 3.3170
13.7540	 3.0730
13.7910	 3.1260
13.8280	 2.8960
13.8650	 3.2250
13.9020	 3.1480
13.9390	 3.1810
13.9770	 2.8510
14.0150	 2.9870
14.0530	 2.7400
14.0910	 2.9290
14.1290	 2.7280
14.1680	 3.0620
14.2070	 2.9020
14.2460	 3.0730
14.2850	 2.8720
14.3240	 3.0790
14.3640	 2.8720
14.4040	 3.1720
14.4440	 2.9680
14.4840	 3.1130
14.5250	 2.8610
14.5660	 3.1610
14.6070	 2.8450
14.6480	 3.0280
14.6900	 2.7180
14.7310	 2.9950
14.7730	 2.6980
14.8150	 3.0410
14.8580	 2.8230
14.9010	 3.1340
14.9440	 2.7930
14.9870	 3.3160
15.0300	 2.8680
15.0740	 3.2140
15.1180	 2.7600
15.1620	 2.9790
15.2060	 2.7230
15.2510	 3.2010
15.2960	 2.7940
15.3410	 3.0990
15.3870	 2.6430
