Name: Betula lenta
Type: Vegetation
Class: Tree
Genus: Betula
Species: lenta
Sample No.: BELE-2-61
Owner: UCSB
Wavelength Range: VSWIR
Origin: USA; Massachusetts; Harvard Forest
Collection Date: 7/8/2013
Description: Samples were collected as part of NSF Macrosystem Biology proposal titled: Collaborative Research: Thermal controls on ecosystem metabolism and function: scaling from leaves to canopies to regions. Samples were collected and overnighted to JPL facilities for processing. The same leaves were processed in the Nicolet and then measured using the ASD.
Measurement: Bidirectional reflectance
First Column: X
Second Column: Y
X Units: Wavelength (micrometers)
Y Units: Reflectance (percentage)
First X Value: 0.35
Last X Value: 2.5
Number of X Values: 2151
Additional Information: vegetation.tree.betula.lenta.vswir.bele-2-61.ucsb.asd.ancillary.txt

 0.3500	 7.6820
 0.3510	 7.3370
 0.3520	 7.2140
 0.3530	 7.4360
 0.3540	 7.8350
 0.3550	 7.6310
 0.3560	 7.5260
 0.3570	 7.5670
 0.3580	 7.4810
 0.3590	 7.4870
 0.3600	 7.4710
 0.3610	 7.4140
 0.3620	 7.4770
 0.3630	 7.5050
 0.3640	 7.4940
 0.3650	 7.4730
 0.3660	 7.4390
 0.3670	 7.3850
 0.3680	 7.4110
 0.3690	 7.6450
 0.3700	 7.6770
 0.3710	 7.5710
 0.3720	 7.4500
 0.3730	 7.4120
 0.3740	 7.4150
 0.3750	 7.4090
 0.3760	 7.3690
 0.3770	 7.4350
 0.3780	 7.4110
 0.3790	 7.3280
 0.3800	 7.3970
 0.3810	 7.4430
 0.3820	 7.4610
 0.3830	 7.4590
 0.3840	 7.4140
 0.3850	 7.4210
 0.3860	 7.4570
 0.3870	 7.4730
 0.3880	 7.5700
 0.3890	 7.5100
 0.3900	 7.3360
 0.3910	 7.3860
 0.3920	 7.4600
 0.3930	 7.4870
 0.3940	 7.4570
 0.3950	 7.4510
 0.3960	 7.4640
 0.3970	 7.4730
 0.3980	 7.4590
 0.3990	 7.4760
 0.4000	 7.5030
 0.4010	 7.5190
 0.4020	 7.5120
 0.4030	 7.4920
 0.4040	 7.4850
 0.4050	 7.5060
 0.4060	 7.5210
 0.4070	 7.5230
 0.4080	 7.5290
 0.4090	 7.5680
 0.4100	 7.5120
 0.4110	 7.4860
 0.4120	 7.5400
 0.4130	 7.5410
 0.4140	 7.5260
 0.4150	 7.5330
 0.4160	 7.5800
 0.4170	 7.5460
 0.4180	 7.5400
 0.4190	 7.5760
 0.4200	 7.5760
 0.4210	 7.5790
 0.4220	 7.5730
 0.4230	 7.5530
 0.4240	 7.5520
 0.4250	 7.5510
 0.4260	 7.5470
 0.4270	 7.5450
 0.4280	 7.5700
 0.4290	 7.5780
 0.4300	 7.5580
 0.4310	 7.5530
 0.4320	 7.5340
 0.4330	 7.5130
 0.4340	 7.5060
 0.4350	 7.4880
 0.4360	 7.4900
 0.4370	 7.5110
 0.4380	 7.5280
 0.4390	 7.5420
 0.4400	 7.5330
 0.4410	 7.5060
 0.4420	 7.5340
 0.4430	 7.5370
 0.4440	 7.5220
 0.4450	 7.5230
 0.4460	 7.5100
 0.4470	 7.5070
 0.4480	 7.5190
 0.4490	 7.5220
 0.4500	 7.5250
 0.4510	 7.5310
 0.4520	 7.5380
 0.4530	 7.5500
 0.4540	 7.5410
 0.4550	 7.5260
 0.4560	 7.5370
 0.4570	 7.5450
 0.4580	 7.5300
 0.4590	 7.5030
 0.4600	 7.5340
 0.4610	 7.5390
 0.4620	 7.5250
 0.4630	 7.5250
 0.4640	 7.5090
 0.4650	 7.5070
 0.4660	 7.5160
 0.4670	 7.4970
 0.4680	 7.5020
 0.4690	 7.5190
 0.4700	 7.5240
 0.4710	 7.5090
 0.4720	 7.4880
 0.4730	 7.4750
 0.4740	 7.4790
 0.4750	 7.4850
 0.4760	 7.4830
 0.4770	 7.4740
 0.4780	 7.4730
 0.4790	 7.4760
 0.4800	 7.4820
 0.4810	 7.4880
 0.4820	 7.4800
 0.4830	 7.4790
 0.4840	 7.4870
 0.4850	 7.4920
 0.4860	 7.4840
 0.4870	 7.4810
 0.4880	 7.4940
 0.4890	 7.4990
 0.4900	 7.5090
 0.4910	 7.5250
 0.4920	 7.5410
 0.4930	 7.5500
 0.4940	 7.5570
 0.4950	 7.5680
 0.4960	 7.5890
 0.4970	 7.6120
 0.4980	 7.6330
 0.4990	 7.6500
 0.5000	 7.6770
 0.5010	 7.7080
 0.5020	 7.7450
 0.5030	 7.8000
 0.5040	 7.8430
 0.5050	 7.8850
 0.5060	 7.9400
 0.5070	 8.0270
 0.5080	 8.1130
 0.5090	 8.1960
 0.5100	 8.2890
 0.5110	 8.4040
 0.5120	 8.5340
 0.5130	 8.6740
 0.5140	 8.8240
 0.5150	 8.9970
 0.5160	 9.1870
 0.5170	 9.3870
 0.5180	 9.6070
 0.5190	 9.8380
 0.5200	10.0770
 0.5210	10.3240
 0.5220	10.5780
 0.5230	10.8280
 0.5240	11.0680
 0.5250	11.3090
 0.5260	11.5490
 0.5270	11.7790
 0.5280	11.9900
 0.5290	12.1870
 0.5300	12.3700
 0.5310	12.5360
 0.5320	12.6830
 0.5330	12.8110
 0.5340	12.9300
 0.5350	13.0440
 0.5360	13.1250
 0.5370	13.1960
 0.5380	13.2650
 0.5390	13.3260
 0.5400	13.3740
 0.5410	13.4100
 0.5420	13.4440
 0.5430	13.4900
 0.5440	13.5350
 0.5450	13.5780
 0.5460	13.6240
 0.5470	13.6680
 0.5480	13.7090
 0.5490	13.7400
 0.5500	13.7580
 0.5510	13.7730
 0.5520	13.7800
 0.5530	13.7710
 0.5540	13.7520
 0.5550	13.7190
 0.5560	13.6690
 0.5570	13.6010
 0.5580	13.5170
 0.5590	13.4210
 0.5600	13.3140
 0.5610	13.1900
 0.5620	13.0600
 0.5630	12.9220
 0.5640	12.7730
 0.5650	12.6230
 0.5660	12.4590
 0.5670	12.2850
 0.5680	12.1280
 0.5690	11.9510
 0.5700	11.7720
 0.5710	11.6090
 0.5720	11.4500
 0.5730	11.3000
 0.5740	11.1610
 0.5750	11.0270
 0.5760	10.9080
 0.5770	10.8010
 0.5780	10.6990
 0.5790	10.6020
 0.5800	10.5110
 0.5810	10.4260
 0.5820	10.3420
 0.5830	10.2630
 0.5840	10.1900
 0.5850	10.1240
 0.5860	10.0660
 0.5870	10.0010
 0.5880	 9.9410
 0.5890	 9.8960
 0.5900	 9.8510
 0.5910	 9.8130
 0.5920	 9.7800
 0.5930	 9.7440
 0.5940	 9.7160
 0.5950	 9.6950
 0.5960	 9.6770
 0.5970	 9.6520
 0.5980	 9.6260
 0.5990	 9.5980
 0.6000	 9.5680
 0.6010	 9.5420
 0.6020	 9.5140
 0.6030	 9.4810
 0.6040	 9.4420
 0.6050	 9.3940
 0.6060	 9.3430
 0.6070	 9.2940
 0.6080	 9.2450
 0.6090	 9.1820
 0.6100	 9.1100
 0.6110	 9.0400
 0.6120	 8.9860
 0.6130	 8.9450
 0.6140	 8.9080
 0.6150	 8.8610
 0.6160	 8.8160
 0.6170	 8.7730
 0.6180	 8.7290
 0.6190	 8.6910
 0.6200	 8.6540
 0.6210	 8.6230
 0.6220	 8.6040
 0.6230	 8.5790
 0.6240	 8.5550
 0.6250	 8.5390
 0.6260	 8.5280
 0.6270	 8.5170
 0.6280	 8.5040
 0.6290	 8.4900
 0.6300	 8.4760
 0.6310	 8.4650
 0.6320	 8.4540
 0.6330	 8.4400
 0.6340	 8.4200
 0.6350	 8.3950
 0.6360	 8.3650
 0.6370	 8.3230
 0.6380	 8.2780
 0.6390	 8.2330
 0.6400	 8.1860
 0.6410	 8.1320
 0.6420	 8.0800
 0.6430	 8.0310
 0.6440	 7.9850
 0.6450	 7.9420
 0.6460	 7.9020
 0.6470	 7.8660
 0.6480	 7.8320
 0.6490	 7.8040
 0.6500	 7.7820
 0.6510	 7.7610
 0.6520	 7.7450
 0.6530	 7.7310
 0.6540	 7.7160
 0.6550	 7.7030
 0.6560	 7.6910
 0.6570	 7.6780
 0.6580	 7.6590
 0.6590	 7.6420
 0.6600	 7.6280
 0.6610	 7.6140
 0.6620	 7.6000
 0.6630	 7.5880
 0.6640	 7.5810
 0.6650	 7.5780
 0.6660	 7.5700
 0.6670	 7.5680
 0.6680	 7.5730
 0.6690	 7.5790
 0.6700	 7.5890
 0.6710	 7.6030
 0.6720	 7.6200
 0.6730	 7.6390
 0.6740	 7.6600
 0.6750	 7.6840
 0.6760	 7.7150
 0.6770	 7.7430
 0.6780	 7.7730
 0.6790	 7.8080
 0.6800	 7.8530
 0.6810	 7.8930
 0.6820	 7.9360
 0.6830	 7.9850
 0.6840	 8.0330
 0.6850	 8.0820
 0.6860	 8.1380
 0.6870	 8.2060
 0.6880	 8.2870
 0.6890	 8.3870
 0.6900	 8.5170
 0.6910	 8.6880
 0.6920	 8.9100
 0.6930	 9.1930
 0.6940	 9.5480
 0.6950	 9.9820
 0.6960	10.5030
 0.6970	11.1140
 0.6980	11.8130
 0.6990	12.5910
 0.7000	13.4450
 0.7010	14.3650
 0.7020	15.3380
 0.7030	16.3450
 0.7040	17.3800
 0.7050	18.4370
 0.7060	19.5040
 0.7070	20.5790
 0.7080	21.6470
 0.7090	22.6980
 0.7100	23.7530
 0.7110	24.7970
 0.7120	25.8220
 0.7130	26.8290
 0.7140	27.8180
 0.7150	28.7850
 0.7160	29.7290
 0.7170	30.6550
 0.7180	31.5500
 0.7190	32.4130
 0.7200	33.2500
 0.7210	34.0580
 0.7220	34.8370
 0.7230	35.5830
 0.7240	36.2900
 0.7250	36.9790
 0.7260	37.6310
 0.7270	38.2360
 0.7280	38.8200
 0.7290	39.3710
 0.7300	39.8920
 0.7310	40.3880
 0.7320	40.8450
 0.7330	41.2720
 0.7340	41.6760
 0.7350	42.0670
 0.7360	42.4240
 0.7370	42.7510
 0.7380	43.0540
 0.7390	43.3410
 0.7400	43.5960
 0.7410	43.8310
 0.7420	44.0640
 0.7430	44.2790
 0.7440	44.4650
 0.7450	44.6230
 0.7460	44.7720
 0.7470	44.9130
 0.7480	45.0360
 0.7490	45.1400
 0.7500	45.2440
 0.7510	45.3380
 0.7520	45.4210
 0.7530	45.4910
 0.7540	45.5540
 0.7550	45.6030
 0.7560	45.6460
 0.7570	45.6970
 0.7580	45.7330
 0.7590	45.7670
 0.7600	45.8070
 0.7610	45.8320
 0.7620	45.8500
 0.7630	45.8640
 0.7640	45.8780
 0.7650	45.8980
 0.7660	45.9080
 0.7670	45.9130
 0.7680	45.9320
 0.7690	45.9160
 0.7700	45.9110
 0.7710	45.9340
 0.7720	45.9400
 0.7730	45.9450
 0.7740	45.9470
 0.7750	45.9450
 0.7760	45.9510
 0.7770	45.9520
 0.7780	45.9530
 0.7790	45.9690
 0.7800	45.9880
 0.7810	45.9840
 0.7820	45.9650
 0.7830	45.9690
 0.7840	45.9900
 0.7850	46.0080
 0.7860	46.0100
 0.7870	45.9990
 0.7880	46.0110
 0.7890	46.0230
 0.7900	46.0110
 0.7910	46.0360
 0.7920	46.0450
 0.7930	46.0360
 0.7940	46.0430
 0.7950	46.0550
 0.7960	46.0560
 0.7970	46.0470
 0.7980	46.0570
 0.7990	46.0770
 0.8000	46.0830
 0.8010	46.0660
 0.8020	46.0710
 0.8030	46.0810
 0.8040	46.0840
 0.8050	46.0730
 0.8060	46.0710
 0.8070	46.0740
 0.8080	46.0740
 0.8090	46.0660
 0.8100	46.0630
 0.8110	46.0610
 0.8120	46.0590
 0.8130	46.0580
 0.8140	46.0590
 0.8150	46.0570
 0.8160	46.0510
 0.8170	46.0520
 0.8180	46.0530
 0.8190	46.0510
 0.8200	46.0450
 0.8210	46.0380
 0.8220	46.0280
 0.8230	46.0220
 0.8240	46.0290
 0.8250	46.0230
 0.8260	46.0220
 0.8270	46.0300
 0.8280	46.0110
 0.8290	45.9980
 0.8300	45.9950
 0.8310	45.9930
 0.8320	45.9940
 0.8330	45.9930
 0.8340	45.9870
 0.8350	45.9760
 0.8360	45.9710
 0.8370	45.9820
 0.8380	45.9960
 0.8390	45.9920
 0.8400	45.9920
 0.8410	45.9860
 0.8420	45.9740
 0.8430	45.9860
 0.8440	45.9950
 0.8450	45.9960
 0.8460	45.9910
 0.8470	45.9890
 0.8480	45.9900
 0.8490	45.9970
 0.8500	46.0130
 0.8510	46.0210
 0.8520	46.0130
 0.8530	46.0060
 0.8540	46.0230
 0.8550	46.0300
 0.8560	46.0240
 0.8570	46.0190
 0.8580	46.0350
 0.8590	46.0430
 0.8600	46.0420
 0.8610	46.0400
 0.8620	46.0620
 0.8630	46.0680
 0.8640	46.0600
 0.8650	46.0560
 0.8660	46.0820
 0.8670	46.0840
 0.8680	46.0760
 0.8690	46.0900
 0.8700	46.1000
 0.8710	46.1180
 0.8720	46.1400
 0.8730	46.1530
 0.8740	46.1400
 0.8750	46.1390
 0.8760	46.1610
 0.8770	46.1870
 0.8780	46.1940
 0.8790	46.1870
 0.8800	46.1770
 0.8810	46.1790
 0.8820	46.1790
 0.8830	46.1910
 0.8840	46.2210
 0.8850	46.2440
 0.8860	46.2550
 0.8870	46.2580
 0.8880	46.2610
 0.8890	46.2670
 0.8900	46.2730
 0.8910	46.2740
 0.8920	46.2700
 0.8930	46.2940
 0.8940	46.3090
 0.8950	46.3040
 0.8960	46.2980
 0.8970	46.3240
 0.8980	46.3520
 0.8990	46.3640
 0.9000	46.3650
 0.9010	46.3620
 0.9020	46.3680
 0.9030	46.3850
 0.9040	46.3950
 0.9050	46.4100
 0.9060	46.4180
 0.9070	46.4180
 0.9080	46.4400
 0.9090	46.4530
 0.9100	46.4520
 0.9110	46.4520
 0.9120	46.4780
 0.9130	46.5010
 0.9140	46.5100
 0.9150	46.5030
 0.9160	46.4820
 0.9170	46.4750
 0.9180	46.4940
 0.9190	46.5280
 0.9200	46.5200
 0.9210	46.5070
 0.9220	46.5040
 0.9230	46.5150
 0.9240	46.5500
 0.9250	46.5630
 0.9260	46.5510
 0.9270	46.5430
 0.9280	46.5360
 0.9290	46.5310
 0.9300	46.5340
 0.9310	46.5470
 0.9320	46.5370
 0.9330	46.5350
 0.9340	46.5440
 0.9350	46.5290
 0.9360	46.5280
 0.9370	46.5270
 0.9380	46.5210
 0.9390	46.5300
 0.9400	46.4960
 0.9410	46.4610
 0.9420	46.4590
 0.9430	46.4840
 0.9440	46.4790
 0.9450	46.4510
 0.9460	46.4270
 0.9470	46.4270
 0.9480	46.4110
 0.9490	46.3840
 0.9500	46.3610
 0.9510	46.3430
 0.9520	46.3340
 0.9530	46.3190
 0.9540	46.2880
 0.9550	46.2480
 0.9560	46.2250
 0.9570	46.2090
 0.9580	46.1890
 0.9590	46.1750
 0.9600	46.1650
 0.9610	46.1340
 0.9620	46.0840
 0.9630	46.1330
 0.9640	46.1280
 0.9650	46.0870
 0.9660	46.0850
 0.9670	46.1140
 0.9680	46.1050
 0.9690	46.0680
 0.9700	46.0500
 0.9710	46.0850
 0.9720	46.0730
 0.9730	46.0330
 0.9740	46.0340
 0.9750	46.0600
 0.9760	46.0730
 0.9770	46.0630
 0.9780	46.0500
 0.9790	46.0740
 0.9800	46.0570
 0.9810	46.0360
 0.9820	46.0790
 0.9830	46.0870
 0.9840	46.0690
 0.9850	46.0670
 0.9860	46.1110
 0.9870	46.1150
 0.9880	46.1260
 0.9890	46.1340
 0.9900	46.1160
 0.9910	46.1080
 0.9920	46.1430
 0.9930	46.1780
 0.9940	46.2130
 0.9950	46.2490
 0.9960	46.2840
 0.9970	46.3190
 0.9980	46.3540
 0.9990	46.3890
 1.0000	46.4240
 1.0010	46.4590
 1.0020	46.4940
 1.0030	46.5290
 1.0040	46.5640
 1.0050	46.5990
 1.0060	46.6340
 1.0070	46.6690
 1.0080	46.7040
 1.0090	46.7390
 1.0100	46.7390
 1.0110	46.7340
 1.0120	46.7360
 1.0130	46.7340
 1.0140	46.7430
 1.0150	46.7570
 1.0160	46.7820
 1.0170	46.8090
 1.0180	46.8280
 1.0190	46.8330
 1.0200	46.8410
 1.0210	46.8440
 1.0220	46.8500
 1.0230	46.8580
 1.0240	46.8710
 1.0250	46.8810
 1.0260	46.8910
 1.0270	46.8990
 1.0280	46.9030
 1.0290	46.9100
 1.0300	46.9170
 1.0310	46.9230
 1.0320	46.9280
 1.0330	46.9390
 1.0340	46.9430
 1.0350	46.9530
 1.0360	46.9660
 1.0370	46.9730
 1.0380	46.9840
 1.0390	46.9950
 1.0400	47.0080
 1.0410	47.0220
 1.0420	47.0350
 1.0430	47.0540
 1.0440	47.0620
 1.0450	47.0610
 1.0460	47.0690
 1.0470	47.0750
 1.0480	47.0810
 1.0490	47.0920
 1.0500	47.1020
 1.0510	47.1090
 1.0520	47.1160
 1.0530	47.1240
 1.0540	47.1370
 1.0550	47.1460
 1.0560	47.1550
 1.0570	47.1590
 1.0580	47.1600
 1.0590	47.1610
 1.0600	47.1520
 1.0610	47.1550
 1.0620	47.1640
 1.0630	47.1710
 1.0640	47.1830
 1.0650	47.1930
 1.0660	47.2030
 1.0670	47.2110
 1.0680	47.2180
 1.0690	47.2280
 1.0700	47.2350
 1.0710	47.2370
 1.0720	47.2460
 1.0730	47.2600
 1.0740	47.2660
 1.0750	47.2720
 1.0760	47.2740
 1.0770	47.2670
 1.0780	47.2680
 1.0790	47.2730
 1.0800	47.2740
 1.0810	47.2770
 1.0820	47.2790
 1.0830	47.2790
 1.0840	47.2800
 1.0850	47.2810
 1.0860	47.2850
 1.0870	47.2870
 1.0880	47.2910
 1.0890	47.2910
 1.0900	47.2900
 1.0910	47.2860
 1.0920	47.2750
 1.0930	47.2700
 1.0940	47.2680
 1.0950	47.2610
 1.0960	47.2520
 1.0970	47.2470
 1.0980	47.2420
 1.0990	47.2390
 1.1000	47.2420
 1.1010	47.2430
 1.1020	47.2450
 1.1030	47.2420
 1.1040	47.2350
 1.1050	47.2290
 1.1060	47.2240
 1.1070	47.2150
 1.1080	47.2090
 1.1090	47.2080
 1.1100	47.2000
 1.1110	47.1890
 1.1120	47.1790
 1.1130	47.1660
 1.1140	47.1560
 1.1150	47.1500
 1.1160	47.1410
 1.1170	47.1330
 1.1180	47.1230
 1.1190	47.1150
 1.1200	47.0980
 1.1210	47.0790
 1.1220	47.0650
 1.1230	47.0460
 1.1240	47.0270
 1.1250	47.0090
 1.1260	46.9930
 1.1270	46.9690
 1.1280	46.9430
 1.1290	46.9140
 1.1300	46.8810
 1.1310	46.8450
 1.1320	46.8080
 1.1330	46.7670
 1.1340	46.7190
 1.1350	46.6720
 1.1360	46.6220
 1.1370	46.5710
 1.1380	46.5230
 1.1390	46.4670
 1.1400	46.4070
 1.1410	46.3490
 1.1420	46.2850
 1.1430	46.2210
 1.1440	46.1580
 1.1450	46.0940
 1.1460	46.0340
 1.1470	45.9760
 1.1480	45.9190
 1.1490	45.8650
 1.1500	45.8130
 1.1510	45.7570
 1.1520	45.7110
 1.1530	45.6700
 1.1540	45.6320
 1.1550	45.5970
 1.1560	45.5710
 1.1570	45.5470
 1.1580	45.5280
 1.1590	45.5120
 1.1600	45.4960
 1.1610	45.4790
 1.1620	45.4620
 1.1630	45.4500
 1.1640	45.4410
 1.1650	45.4350
 1.1660	45.4340
 1.1670	45.4310
 1.1680	45.4310
 1.1690	45.4300
 1.1700	45.4280
 1.1710	45.4260
 1.1720	45.4220
 1.1730	45.4210
 1.1740	45.4210
 1.1750	45.4190
 1.1760	45.4190
 1.1770	45.4170
 1.1780	45.4170
 1.1790	45.4140
 1.1800	45.4080
 1.1810	45.4080
 1.1820	45.4060
 1.1830	45.3960
 1.1840	45.3910
 1.1850	45.3890
 1.1860	45.3900
 1.1870	45.3930
 1.1880	45.3910
 1.1890	45.3890
 1.1900	45.3860
 1.1910	45.3800
 1.1920	45.3760
 1.1930	45.3750
 1.1940	45.3720
 1.1950	45.3690
 1.1960	45.3660
 1.1970	45.3630
 1.1980	45.3650
 1.1990	45.3640
 1.2000	45.3640
 1.2010	45.3720
 1.2020	45.3760
 1.2030	45.3790
 1.2040	45.3840
 1.2050	45.3870
 1.2060	45.3910
 1.2070	45.3990
 1.2080	45.4080
 1.2090	45.4130
 1.2100	45.4200
 1.2110	45.4270
 1.2120	45.4310
 1.2130	45.4390
 1.2140	45.4510
 1.2150	45.4590
 1.2160	45.4670
 1.2170	45.4770
 1.2180	45.4820
 1.2190	45.4850
 1.2200	45.4940
 1.2210	45.5050
 1.2220	45.5150
 1.2230	45.5240
 1.2240	45.5360
 1.2250	45.5430
 1.2260	45.5500
 1.2270	45.5600
 1.2280	45.5670
 1.2290	45.5730
 1.2300	45.5810
 1.2310	45.5880
 1.2320	45.5950
 1.2330	45.6020
 1.2340	45.6090
 1.2350	45.6150
 1.2360	45.6190
 1.2370	45.6210
 1.2380	45.6270
 1.2390	45.6310
 1.2400	45.6360
 1.2410	45.6420
 1.2420	45.6420
 1.2430	45.6440
 1.2440	45.6460
 1.2450	45.6500
 1.2460	45.6590
 1.2470	45.6650
 1.2480	45.6670
 1.2490	45.6670
 1.2500	45.6680
 1.2510	45.6700
 1.2520	45.6710
 1.2530	45.6730
 1.2540	45.6740
 1.2550	45.6710
 1.2560	45.6710
 1.2570	45.6740
 1.2580	45.6740
 1.2590	45.6740
 1.2600	45.6750
 1.2610	45.6750
 1.2620	45.6740
 1.2630	45.6710
 1.2640	45.6690
 1.2650	45.6640
 1.2660	45.6540
 1.2670	45.6500
 1.2680	45.6520
 1.2690	45.6480
 1.2700	45.6440
 1.2710	45.6400
 1.2720	45.6290
 1.2730	45.6190
 1.2740	45.6120
 1.2750	45.6030
 1.2760	45.5910
 1.2770	45.5790
 1.2780	45.5700
 1.2790	45.5600
 1.2800	45.5520
 1.2810	45.5440
 1.2820	45.5320
 1.2830	45.5210
 1.2840	45.5080
 1.2850	45.4960
 1.2860	45.4840
 1.2870	45.4690
 1.2880	45.4520
 1.2890	45.4380
 1.2900	45.4200
 1.2910	45.4030
 1.2920	45.3910
 1.2930	45.3760
 1.2940	45.3600
 1.2950	45.3410
 1.2960	45.3200
 1.2970	45.3020
 1.2980	45.2840
 1.2990	45.2620
 1.3000	45.2390
 1.3010	45.2160
 1.3020	45.1880
 1.3030	45.1560
 1.3040	45.1250
 1.3050	45.0920
 1.3060	45.0620
 1.3070	45.0330
 1.3080	45.0000
 1.3090	44.9620
 1.3100	44.9190
 1.3110	44.8760
 1.3120	44.8370
 1.3130	44.7930
 1.3140	44.7470
 1.3150	44.6990
 1.3160	44.6470
 1.3170	44.5920
 1.3180	44.5360
 1.3190	44.4790
 1.3200	44.4200
 1.3210	44.3570
 1.3220	44.2920
 1.3230	44.2210
 1.3240	44.1510
 1.3250	44.0830
 1.3260	44.0140
 1.3270	43.9460
 1.3280	43.8750
 1.3290	43.8010
 1.3300	43.7270
 1.3310	43.6490
 1.3320	43.5680
 1.3330	43.4900
 1.3340	43.4120
 1.3350	43.3330
 1.3360	43.2530
 1.3370	43.1700
 1.3380	43.0880
 1.3390	43.0080
 1.3400	42.9290
 1.3410	42.8510
 1.3420	42.7720
 1.3430	42.6940
 1.3440	42.6140
 1.3450	42.5350
 1.3460	42.4570
 1.3470	42.3770
 1.3480	42.2970
 1.3490	42.2200
 1.3500	42.1440
 1.3510	42.0680
 1.3520	41.9940
 1.3530	41.9140
 1.3540	41.8300
 1.3550	41.7490
 1.3560	41.6690
 1.3570	41.5900
 1.3580	41.5140
 1.3590	41.4360
 1.3600	41.3520
 1.3610	41.2650
 1.3620	41.1760
 1.3630	41.0800
 1.3640	40.9820
 1.3650	40.8810
 1.3660	40.7760
 1.3670	40.6650
 1.3680	40.5430
 1.3690	40.4120
 1.3700	40.2700
 1.3710	40.1200
 1.3720	39.9620
 1.3730	39.7910
 1.3740	39.6100
 1.3750	39.4150
 1.3760	39.2050
 1.3770	38.9790
 1.3780	38.7340
 1.3790	38.4700
 1.3800	38.1880
 1.3810	37.8850
 1.3820	37.5680
 1.3830	37.2370
 1.3840	36.8890
 1.3850	36.5260
 1.3860	36.1470
 1.3870	35.7460
 1.3880	35.3380
 1.3890	34.9170
 1.3900	34.4820
 1.3910	34.0420
 1.3920	33.5960
 1.3930	33.1400
 1.3940	32.6820
 1.3950	32.2180
 1.3960	31.7540
 1.3970	31.2960
 1.3980	30.8420
 1.3990	30.3990
 1.4000	29.9630
 1.4010	29.5350
 1.4020	29.1220
 1.4030	28.7200
 1.4040	28.3330
 1.4050	27.9660
 1.4060	27.6130
 1.4070	27.2820
 1.4080	26.9700
 1.4090	26.6720
 1.4100	26.3940
 1.4110	26.1350
 1.4120	25.8930
 1.4130	25.6700
 1.4140	25.4640
 1.4150	25.2760
 1.4160	25.1020
 1.4170	24.9410
 1.4180	24.7950
 1.4190	24.6610
 1.4200	24.5380
 1.4210	24.4290
 1.4220	24.3310
 1.4230	24.2450
 1.4240	24.1720
 1.4250	24.1050
 1.4260	24.0500
 1.4270	24.0000
 1.4280	23.9580
 1.4290	23.9220
 1.4300	23.8930
 1.4310	23.8690
 1.4320	23.8520
 1.4330	23.8380
 1.4340	23.8260
 1.4350	23.8210
 1.4360	23.8200
 1.4370	23.8220
 1.4380	23.8280
 1.4390	23.8400
 1.4400	23.8520
 1.4410	23.8690
 1.4420	23.8900
 1.4430	23.9130
 1.4440	23.9370
 1.4450	23.9640
 1.4460	23.9930
 1.4470	24.0230
 1.4480	24.0540
 1.4490	24.0860
 1.4500	24.1160
 1.4510	24.1480
 1.4520	24.1820
 1.4530	24.2150
 1.4540	24.2490
 1.4550	24.2850
 1.4560	24.3240
 1.4570	24.3690
 1.4580	24.4160
 1.4590	24.4670
 1.4600	24.5210
 1.4610	24.5780
 1.4620	24.6410
 1.4630	24.7090
 1.4640	24.7810
 1.4650	24.8620
 1.4660	24.9490
 1.4670	25.0430
 1.4680	25.1410
 1.4690	25.2400
 1.4700	25.3440
 1.4710	25.4520
 1.4720	25.5630
 1.4730	25.6790
 1.4740	25.7960
 1.4750	25.9140
 1.4760	26.0360
 1.4770	26.1590
 1.4780	26.2850
 1.4790	26.4110
 1.4800	26.5370
 1.4810	26.6630
 1.4820	26.7920
 1.4830	26.9210
 1.4840	27.0500
 1.4850	27.1800
 1.4860	27.3110
 1.4870	27.4410
 1.4880	27.5730
 1.4890	27.7070
 1.4900	27.8390
 1.4910	27.9700
 1.4920	28.1030
 1.4930	28.2360
 1.4940	28.3670
 1.4950	28.4980
 1.4960	28.6270
 1.4970	28.7530
 1.4980	28.8800
 1.4990	29.0070
 1.5000	29.1340
 1.5010	29.2620
 1.5020	29.3880
 1.5030	29.5150
 1.5040	29.6410
 1.5050	29.7660
 1.5060	29.8910
 1.5070	30.0150
 1.5080	30.1380
 1.5090	30.2610
 1.5100	30.3800
 1.5110	30.4960
 1.5120	30.6140
 1.5130	30.7310
 1.5140	30.8460
 1.5150	30.9600
 1.5160	31.0720
 1.5170	31.1860
 1.5180	31.2970
 1.5190	31.4070
 1.5200	31.5180
 1.5210	31.6230
 1.5220	31.7290
 1.5230	31.8360
 1.5240	31.9400
 1.5250	32.0430
 1.5260	32.1430
 1.5270	32.2420
 1.5280	32.3430
 1.5290	32.4440
 1.5300	32.5450
 1.5310	32.6430
 1.5320	32.7380
 1.5330	32.8320
 1.5340	32.9240
 1.5350	33.0160
 1.5360	33.1070
 1.5370	33.1930
 1.5380	33.2780
 1.5390	33.3620
 1.5400	33.4440
 1.5410	33.5270
 1.5420	33.6090
 1.5430	33.6920
 1.5440	33.7770
 1.5450	33.8590
 1.5460	33.9410
 1.5470	34.0210
 1.5480	34.0980
 1.5490	34.1790
 1.5500	34.2590
 1.5510	34.3380
 1.5520	34.4200
 1.5530	34.4950
 1.5540	34.5660
 1.5550	34.6380
 1.5560	34.7070
 1.5570	34.7780
 1.5580	34.8500
 1.5590	34.9190
 1.5600	34.9840
 1.5610	35.0430
 1.5620	35.1000
 1.5630	35.1570
 1.5640	35.2150
 1.5650	35.2780
 1.5660	35.3430
 1.5670	35.4080
 1.5680	35.4710
 1.5690	35.5280
 1.5700	35.5850
 1.5710	35.6450
 1.5720	35.7020
 1.5730	35.7610
 1.5740	35.8190
 1.5750	35.8730
 1.5760	35.9250
 1.5770	35.9770
 1.5780	36.0290
 1.5790	36.0770
 1.5800	36.1280
 1.5810	36.1830
 1.5820	36.2360
 1.5830	36.2910
 1.5840	36.3470
 1.5850	36.4000
 1.5860	36.4510
 1.5870	36.4990
 1.5880	36.5440
 1.5890	36.5880
 1.5900	36.6320
 1.5910	36.6740
 1.5920	36.7170
 1.5930	36.7590
 1.5940	36.7990
 1.5950	36.8420
 1.5960	36.8830
 1.5970	36.9240
 1.5980	36.9660
 1.5990	37.0090
 1.6000	37.0520
 1.6010	37.0920
 1.6020	37.1310
 1.6030	37.1680
 1.6040	37.2020
 1.6050	37.2370
 1.6060	37.2740
 1.6070	37.3110
 1.6080	37.3460
 1.6090	37.3810
 1.6100	37.4150
 1.6110	37.4490
 1.6120	37.4830
 1.6130	37.5170
 1.6140	37.5520
 1.6150	37.5870
 1.6160	37.6190
 1.6170	37.6510
 1.6180	37.6790
 1.6190	37.7020
 1.6200	37.7250
 1.6210	37.7470
 1.6220	37.7690
 1.6230	37.7920
 1.6240	37.8150
 1.6250	37.8390
 1.6260	37.8640
 1.6270	37.8900
 1.6280	37.9190
 1.6290	37.9450
 1.6300	37.9700
 1.6310	37.9940
 1.6320	38.0160
 1.6330	38.0400
 1.6340	38.0630
 1.6350	38.0860
 1.6360	38.1120
 1.6370	38.1330
 1.6380	38.1520
 1.6390	38.1700
 1.6400	38.1840
 1.6410	38.1980
 1.6420	38.2140
 1.6430	38.2260
 1.6440	38.2370
 1.6450	38.2450
 1.6460	38.2520
 1.6470	38.2590
 1.6480	38.2670
 1.6490	38.2760
 1.6500	38.2830
 1.6510	38.2920
 1.6520	38.2970
 1.6530	38.3000
 1.6540	38.3050
 1.6550	38.3030
 1.6560	38.2990
 1.6570	38.2960
 1.6580	38.2920
 1.6590	38.2900
 1.6600	38.2920
 1.6610	38.2880
 1.6620	38.2800
 1.6630	38.2740
 1.6640	38.2650
 1.6650	38.2560
 1.6660	38.2520
 1.6670	38.2490
 1.6680	38.2430
 1.6690	38.2390
 1.6700	38.2350
 1.6710	38.2280
 1.6720	38.2210
 1.6730	38.2140
 1.6740	38.2070
 1.6750	38.1960
 1.6760	38.1820
 1.6770	38.1770
 1.6780	38.1670
 1.6790	38.1530
 1.6800	38.1470
 1.6810	38.1360
 1.6820	38.1190
 1.6830	38.1110
 1.6840	38.0980
 1.6850	38.0820
 1.6860	38.0680
 1.6870	38.0480
 1.6880	38.0260
 1.6890	38.0060
 1.6900	37.9840
 1.6910	37.9630
 1.6920	37.9410
 1.6930	37.9130
 1.6940	37.8890
 1.6950	37.8660
 1.6960	37.8430
 1.6970	37.8200
 1.6980	37.7950
 1.6990	37.7660
 1.7000	37.7400
 1.7010	37.7150
 1.7020	37.6880
 1.7030	37.6620
 1.7040	37.6360
 1.7050	37.6080
 1.7060	37.5810
 1.7070	37.5550
 1.7080	37.5270
 1.7090	37.4960
 1.7100	37.4640
 1.7110	37.4300
 1.7120	37.3970
 1.7130	37.3650
 1.7140	37.3310
 1.7150	37.2990
 1.7160	37.2680
 1.7170	37.2310
 1.7180	37.1950
 1.7190	37.1580
 1.7200	37.1150
 1.7210	37.0740
 1.7220	37.0320
 1.7230	36.9900
 1.7240	36.9480
 1.7250	36.9090
 1.7260	36.8740
 1.7270	36.8390
 1.7280	36.8040
 1.7290	36.7660
 1.7300	36.7220
 1.7310	36.6840
 1.7320	36.6480
 1.7330	36.6130
 1.7340	36.5860
 1.7350	36.5510
 1.7360	36.5130
 1.7370	36.4740
 1.7380	36.4270
 1.7390	36.3860
 1.7400	36.3510
 1.7410	36.3110
 1.7420	36.2710
 1.7430	36.2290
 1.7440	36.1840
 1.7450	36.1370
 1.7460	36.0880
 1.7470	36.0430
 1.7480	35.9970
 1.7490	35.9530
 1.7500	35.9160
 1.7510	35.8690
 1.7520	35.8170
 1.7530	35.7630
 1.7540	35.7030
 1.7550	35.6460
 1.7560	35.5900
 1.7570	35.5380
 1.7580	35.4870
 1.7590	35.4370
 1.7600	35.3900
 1.7610	35.3460
 1.7620	35.3000
 1.7630	35.2530
 1.7640	35.2070
 1.7650	35.1570
 1.7660	35.1130
 1.7670	35.0740
 1.7680	35.0330
 1.7690	34.9930
 1.7700	34.9550
 1.7710	34.9140
 1.7720	34.8780
 1.7730	34.8450
 1.7740	34.8110
 1.7750	34.7800
 1.7760	34.7460
 1.7770	34.7100
 1.7780	34.6760
 1.7790	34.6400
 1.7800	34.6080
 1.7810	34.5770
 1.7820	34.5500
 1.7830	34.5270
 1.7840	34.5030
 1.7850	34.4810
 1.7860	34.4640
 1.7870	34.4490
 1.7880	34.4350
 1.7890	34.4290
 1.7900	34.4140
 1.7910	34.4000
 1.7920	34.3820
 1.7930	34.3700
 1.7940	34.3640
 1.7950	34.3550
 1.7960	34.3480
 1.7970	34.3430
 1.7980	34.3370
 1.7990	34.3340
 1.8000	34.3410
 1.8010	34.3420
 1.8020	34.3430
 1.8030	34.3420
 1.8040	34.3370
 1.8050	34.3330
 1.8060	34.3260
 1.8070	34.3210
 1.8080	34.3180
 1.8090	34.3110
 1.8100	34.3020
 1.8110	34.2880
 1.8120	34.2820
 1.8130	34.2830
 1.8140	34.2850
 1.8150	34.2930
 1.8160	34.2920
 1.8170	34.2850
 1.8180	34.2800
 1.8190	34.2710
 1.8200	34.2630
 1.8210	34.2540
 1.8220	34.2440
 1.8230	34.2390
 1.8240	34.2250
 1.8250	34.2050
 1.8260	34.1830
 1.8270	34.1430
 1.8280	34.1030
 1.8290	34.0630
 1.8300	34.0240
 1.8310	33.9840
 1.8320	33.9440
 1.8330	33.9040
 1.8340	33.8640
 1.8350	33.8640
 1.8360	33.8170
 1.8370	33.7660
 1.8380	33.7090
 1.8390	33.6490
 1.8400	33.5830
 1.8410	33.5150
 1.8420	33.4430
 1.8430	33.3680
 1.8440	33.2950
 1.8450	33.2140
 1.8460	33.1230
 1.8470	33.0290
 1.8480	32.9230
 1.8490	32.8050
 1.8500	32.6730
 1.8510	32.5310
 1.8520	32.3770
 1.8530	32.2100
 1.8540	32.0310
 1.8550	31.8460
 1.8560	31.6480
 1.8570	31.4270
 1.8580	31.1950
 1.8590	30.9560
 1.8600	30.7070
 1.8610	30.4390
 1.8620	30.1580
 1.8630	29.8650
 1.8640	29.5390
 1.8650	29.1930
 1.8660	28.8340
 1.8670	28.4500
 1.8680	28.0390
 1.8690	27.6060
 1.8700	27.1510
 1.8710	26.6710
 1.8720	26.1740
 1.8730	25.6600
 1.8740	25.1270
 1.8750	24.5780
 1.8760	24.0060
 1.8770	23.4240
 1.8780	22.8390
 1.8790	22.2380
 1.8800	21.6420
 1.8810	21.0440
 1.8820	20.4420
 1.8830	19.8310
 1.8840	19.2250
 1.8850	18.6130
 1.8860	18.0020
 1.8870	17.4080
 1.8880	16.8210
 1.8890	16.2530
 1.8900	15.7030
 1.8910	15.1810
 1.8920	14.6750
 1.8930	14.2030
 1.8940	13.7570
 1.8950	13.3430
 1.8960	12.9550
 1.8970	12.5870
 1.8980	12.2480
 1.8990	11.9350
 1.9000	11.6440
 1.9010	11.3800
 1.9020	11.1370
 1.9030	10.9200
 1.9040	10.7220
 1.9050	10.5440
 1.9060	10.3890
 1.9070	10.2530
 1.9080	10.1310
 1.9090	10.0210
 1.9100	 9.9250
 1.9110	 9.8430
 1.9120	 9.7790
 1.9130	 9.7190
 1.9140	 9.6730
 1.9150	 9.6340
 1.9160	 9.5960
 1.9170	 9.5650
 1.9180	 9.5400
 1.9190	 9.5170
 1.9200	 9.5020
 1.9210	 9.4910
 1.9220	 9.4820
 1.9230	 9.4780
 1.9240	 9.4800
 1.9250	 9.4870
 1.9260	 9.4960
 1.9270	 9.5140
 1.9280	 9.5350
 1.9290	 9.5570
 1.9300	 9.5820
 1.9310	 9.6130
 1.9320	 9.6460
 1.9330	 9.6810
 1.9340	 9.7230
 1.9350	 9.7620
 1.9360	 9.7980
 1.9370	 9.8390
 1.9380	 9.8800
 1.9390	 9.9240
 1.9400	 9.9700
 1.9410	10.0210
 1.9420	10.0760
 1.9430	10.1340
 1.9440	10.1930
 1.9450	10.2530
 1.9460	10.3150
 1.9470	10.3780
 1.9480	10.4410
 1.9490	10.5030
 1.9500	10.5700
 1.9510	10.6370
 1.9520	10.7060
 1.9530	10.7830
 1.9540	10.8590
 1.9550	10.9380
 1.9560	11.0210
 1.9570	11.0990
 1.9580	11.1780
 1.9590	11.2580
 1.9600	11.3340
 1.9610	11.4160
 1.9620	11.5030
 1.9630	11.5900
 1.9640	11.6810
 1.9650	11.7730
 1.9660	11.8580
 1.9670	11.9470
 1.9680	12.0390
 1.9690	12.1330
 1.9700	12.2260
 1.9710	12.3200
 1.9720	12.4190
 1.9730	12.5200
 1.9740	12.6200
 1.9750	12.7240
 1.9760	12.8300
 1.9770	12.9290
 1.9780	13.0320
 1.9790	13.1370
 1.9800	13.2440
 1.9810	13.3510
 1.9820	13.4610
 1.9830	13.5710
 1.9840	13.6860
 1.9850	13.7980
 1.9860	13.9080
 1.9870	14.0180
 1.9880	14.1270
 1.9890	14.2360
 1.9900	14.3530
 1.9910	14.4690
 1.9920	14.5820
 1.9930	14.6950
 1.9940	14.8080
 1.9950	14.9180
 1.9960	15.0290
 1.9970	15.1450
 1.9980	15.2580
 1.9990	15.3690
 2.0000	15.4780
 2.0010	15.5900
 2.0020	15.7030
 2.0030	15.8170
 2.0040	15.9280
 2.0050	16.0380
 2.0060	16.1460
 2.0070	16.2550
 2.0080	16.3640
 2.0090	16.4710
 2.0100	16.5770
 2.0110	16.6810
 2.0120	16.7800
 2.0130	16.8840
 2.0140	16.9930
 2.0150	17.0940
 2.0160	17.2010
 2.0170	17.3070
 2.0180	17.4080
 2.0190	17.5060
 2.0200	17.6040
 2.0210	17.6980
 2.0220	17.7960
 2.0230	17.8950
 2.0240	17.9910
 2.0250	18.0870
 2.0260	18.1800
 2.0270	18.2700
 2.0280	18.3610
 2.0290	18.4480
 2.0300	18.5330
 2.0310	18.6150
 2.0320	18.6890
 2.0330	18.7680
 2.0340	18.8470
 2.0350	18.9270
 2.0360	19.0110
 2.0370	19.0890
 2.0380	19.1600
 2.0390	19.2350
 2.0400	19.3120
 2.0410	19.3860
 2.0420	19.4570
 2.0430	19.5380
 2.0440	19.6140
 2.0450	19.6870
 2.0460	19.7550
 2.0470	19.8190
 2.0480	19.8870
 2.0490	19.9460
 2.0500	20.0160
 2.0510	20.0930
 2.0520	20.1680
 2.0530	20.2440
 2.0540	20.3190
 2.0550	20.3900
 2.0560	20.4680
 2.0570	20.5420
 2.0580	20.6120
 2.0590	20.6860
 2.0600	20.7600
 2.0610	20.8350
 2.0620	20.9160
 2.0630	20.9880
 2.0640	21.0590
 2.0650	21.1240
 2.0660	21.1750
 2.0670	21.2390
 2.0680	21.3090
 2.0690	21.3770
 2.0700	21.4530
 2.0710	21.5240
 2.0720	21.5890
 2.0730	21.6550
 2.0740	21.7210
 2.0750	21.7860
 2.0760	21.8550
 2.0770	21.9250
 2.0780	21.9930
 2.0790	22.0640
 2.0800	22.1320
 2.0810	22.1980
 2.0820	22.2650
 2.0830	22.3330
 2.0840	22.4020
 2.0850	22.4760
 2.0860	22.5440
 2.0870	22.6070
 2.0880	22.6770
 2.0890	22.7420
 2.0900	22.8000
 2.0910	22.8630
 2.0920	22.9330
 2.0930	22.9940
 2.0940	23.0540
 2.0950	23.1100
 2.0960	23.1570
 2.0970	23.2110
 2.0980	23.2660
 2.0990	23.3220
 2.1000	23.3830
 2.1010	23.4390
 2.1020	23.4890
 2.1030	23.5430
 2.1040	23.5980
 2.1050	23.6530
 2.1060	23.7110
 2.1070	23.7750
 2.1080	23.8350
 2.1090	23.8950
 2.1100	23.9570
 2.1110	24.0230
 2.1120	24.0840
 2.1130	24.1460
 2.1140	24.2030
 2.1150	24.2550
 2.1160	24.3060
 2.1170	24.3560
 2.1180	24.4040
 2.1190	24.4490
 2.1200	24.4960
 2.1210	24.5440
 2.1220	24.5900
 2.1230	24.6360
 2.1240	24.6860
 2.1250	24.7250
 2.1260	24.7580
 2.1270	24.7930
 2.1280	24.8190
 2.1290	24.8570
 2.1300	24.9020
 2.1310	24.9450
 2.1320	24.9960
 2.1330	25.0370
 2.1340	25.0700
 2.1350	25.1080
 2.1360	25.1460
 2.1370	25.1820
 2.1380	25.2200
 2.1390	25.2550
 2.1400	25.2850
 2.1410	25.3140
 2.1420	25.3440
 2.1430	25.3740
 2.1440	25.4040
 2.1450	25.4320
 2.1460	25.4620
 2.1470	25.4950
 2.1480	25.5230
 2.1490	25.5480
 2.1500	25.5730
 2.1510	25.5960
 2.1520	25.6180
 2.1530	25.6420
 2.1540	25.6650
 2.1550	25.6850
 2.1560	25.7080
 2.1570	25.7350
 2.1580	25.7560
 2.1590	25.7760
 2.1600	25.7920
 2.1610	25.8060
 2.1620	25.8190
 2.1630	25.8270
 2.1640	25.8310
 2.1650	25.8380
 2.1660	25.8390
 2.1670	25.8520
 2.1680	25.8750
 2.1690	25.8910
 2.1700	25.9070
 2.1710	25.9280
 2.1720	25.9490
 2.1730	25.9740
 2.1740	26.0080
 2.1750	26.0340
 2.1760	26.0550
 2.1770	26.0770
 2.1780	26.1010
 2.1790	26.1190
 2.1800	26.1320
 2.1810	26.1470
 2.1820	26.1590
 2.1830	26.1710
 2.1840	26.1830
 2.1850	26.1970
 2.1860	26.2150
 2.1870	26.2340
 2.1880	26.2520
 2.1890	26.2770
 2.1900	26.2960
 2.1910	26.3120
 2.1920	26.3270
 2.1930	26.3390
 2.1940	26.3530
 2.1950	26.3610
 2.1960	26.3770
 2.1970	26.4040
 2.1980	26.4220
 2.1990	26.4370
 2.2000	26.4550
 2.2010	26.4750
 2.2020	26.4870
 2.2030	26.4940
 2.2040	26.5070
 2.2050	26.5160
 2.2060	26.5280
 2.2070	26.5390
 2.2080	26.5590
 2.2090	26.5730
 2.2100	26.5810
 2.2110	26.5940
 2.2120	26.6120
 2.2130	26.6260
 2.2140	26.6350
 2.2150	26.6500
 2.2160	26.6730
 2.2170	26.6820
 2.2180	26.6860
 2.2190	26.6920
 2.2200	26.6880
 2.2210	26.6890
 2.2220	26.7020
 2.2230	26.7010
 2.2240	26.6890
 2.2250	26.6800
 2.2260	26.6720
 2.2270	26.6540
 2.2280	26.6280
 2.2290	26.6070
 2.2300	26.5760
 2.2310	26.5490
 2.2320	26.5280
 2.2330	26.5130
 2.2340	26.4900
 2.2350	26.4640
 2.2360	26.4360
 2.2370	26.4060
 2.2380	26.3770
 2.2390	26.3470
 2.2400	26.3140
 2.2410	26.2860
 2.2420	26.2470
 2.2430	26.1950
 2.2440	26.1510
 2.2450	26.1060
 2.2460	26.0610
 2.2470	26.0200
 2.2480	25.9760
 2.2490	25.9270
 2.2500	25.8800
 2.2510	25.8360
 2.2520	25.7860
 2.2530	25.7290
 2.2540	25.6780
 2.2550	25.6290
 2.2560	25.5790
 2.2570	25.5420
 2.2580	25.4910
 2.2590	25.4290
 2.2600	25.3700
 2.2610	25.3040
 2.2620	25.2370
 2.2630	25.1820
 2.2640	25.1290
 2.2650	25.0840
 2.2660	25.0440
 2.2670	24.9930
 2.2680	24.9410
 2.2690	24.8860
 2.2700	24.8190
 2.2710	24.7700
 2.2720	24.7320
 2.2730	24.6890
 2.2740	24.6580
 2.2750	24.6080
 2.2760	24.5410
 2.2770	24.4870
 2.2780	24.4260
 2.2790	24.3800
 2.2800	24.3480
 2.2810	24.3120
 2.2820	24.2870
 2.2830	24.2460
 2.2840	24.2030
 2.2850	24.1490
 2.2860	24.0730
 2.2870	24.0130
 2.2880	23.9490
 2.2890	23.8970
 2.2900	23.8670
 2.2910	23.8220
 2.2920	23.7770
 2.2930	23.7280
 2.2940	23.6620
 2.2950	23.6090
 2.2960	23.5630
 2.2970	23.5140
 2.2980	23.4720
 2.2990	23.4240
 2.3000	23.3680
 2.3010	23.3180
 2.3020	23.2640
 2.3030	23.2030
 2.3040	23.1420
 2.3050	23.0750
 2.3060	23.0200
 2.3070	22.9740
 2.3080	22.9330
 2.3090	22.9030
 2.3100	22.8620
 2.3110	22.8200
 2.3120	22.7840
 2.3130	22.7460
 2.3140	22.7170
 2.3150	22.6990
 2.3160	22.6700
 2.3170	22.6400
 2.3180	22.6120
 2.3190	22.5740
 2.3200	22.5490
 2.3210	22.5400
 2.3220	22.5120
 2.3230	22.4850
 2.3240	22.4470
 2.3250	22.3920
 2.3260	22.3470
 2.3270	22.3020
 2.3280	22.2600
 2.3290	22.2180
 2.3300	22.1780
 2.3310	22.1410
 2.3320	22.1020
 2.3330	22.0650
 2.3340	22.0250
 2.3350	21.9790
 2.3360	21.9360
 2.3370	21.8940
 2.3380	21.8490
 2.3390	21.8080
 2.3400	21.7550
 2.3410	21.6880
 2.3420	21.6310
 2.3430	21.5690
 2.3440	21.5110
 2.3450	21.4660
 2.3460	21.4120
 2.3470	21.3450
 2.3480	21.2920
 2.3490	21.2440
 2.3500	21.1990
 2.3510	21.1730
 2.3520	21.1330
 2.3530	21.0890
 2.3540	21.0330
 2.3550	20.9940
 2.3560	20.9630
 2.3570	20.9330
 2.3580	20.9060
 2.3590	20.8560
 2.3600	20.7950
 2.3610	20.7410
 2.3620	20.6870
 2.3630	20.6610
 2.3640	20.6260
 2.3650	20.5680
 2.3660	20.5350
 2.3670	20.4840
 2.3680	20.4320
 2.3690	20.3990
 2.3700	20.3410
 2.3710	20.2660
 2.3720	20.1920
 2.3730	20.1330
 2.3740	20.0920
 2.3750	20.0670
 2.3760	20.0420
 2.3770	19.9970
 2.3780	19.9460
 2.3790	19.8760
 2.3800	19.8080
 2.3810	19.7680
 2.3820	19.7150
 2.3830	19.6790
 2.3840	19.6540
 2.3850	19.5930
 2.3860	19.5360
 2.3870	19.4730
 2.3880	19.3790
 2.3890	19.3070
 2.3900	19.2520
 2.3910	19.1890
 2.3920	19.1460
 2.3930	19.1000
 2.3940	19.0270
 2.3950	18.9730
 2.3960	18.9330
 2.3970	18.8770
 2.3980	18.8150
 2.3990	18.7400
 2.4000	18.6580
 2.4010	18.6050
 2.4020	18.5600
 2.4030	18.5010
 2.4040	18.4480
 2.4050	18.3810
 2.4060	18.3170
 2.4070	18.2780
 2.4080	18.2120
 2.4090	18.1400
 2.4100	18.0800
 2.4110	18.0060
 2.4120	17.9570
 2.4130	17.8910
 2.4140	17.7920
 2.4150	17.7200
 2.4160	17.6570
 2.4170	17.6230
 2.4180	17.5990
 2.4190	17.5530
 2.4200	17.4880
 2.4210	17.4100
 2.4220	17.3310
 2.4230	17.2630
 2.4240	17.2200
 2.4250	17.1720
 2.4260	17.1160
 2.4270	17.0750
 2.4280	17.0270
 2.4290	16.9530
 2.4300	16.8940
 2.4310	16.8100
 2.4320	16.7120
 2.4330	16.6500
 2.4340	16.5760
 2.4350	16.5160
 2.4360	16.4720
 2.4370	16.4230
 2.4380	16.3740
 2.4390	16.3400
 2.4400	16.3020
 2.4410	16.2380
 2.4420	16.1950
 2.4430	16.1290
 2.4440	16.0280
 2.4450	15.9400
 2.4460	15.8590
 2.4470	15.8010
 2.4480	15.7610
 2.4490	15.7280
 2.4500	15.6820
 2.4510	15.6190
 2.4520	15.5740
 2.4530	15.5340
 2.4540	15.4720
 2.4550	15.3890
 2.4560	15.3160
 2.4570	15.2220
 2.4580	15.1180
 2.4590	15.0600
 2.4600	15.0210
 2.4610	14.9770
 2.4620	14.9420
 2.4630	14.9430
 2.4640	14.9090
 2.4650	14.8690
 2.4660	14.8730
 2.4670	14.7670
 2.4680	14.6660
 2.4690	14.5790
 2.4700	14.5120
 2.4710	14.5490
 2.4720	14.5050
 2.4730	14.4270
 2.4740	14.3750
 2.4750	14.2650
 2.4760	14.2080
 2.4770	14.2150
 2.4780	14.1760
 2.4790	14.1310
 2.4800	14.1030
 2.4810	14.0320
 2.4820	14.0390
 2.4830	14.1170
 2.4840	14.1620
 2.4850	14.1480
 2.4860	14.1270
 2.4870	14.0540
 2.4880	13.9490
 2.4890	13.9010
 2.4900	13.8330
 2.4910	13.7510
 2.4920	13.7130
 2.4930	13.6960
 2.4940	13.6560
 2.4950	13.6310
 2.4960	13.6900
 2.4970	13.7730
 2.4980	13.8470
 2.4990	13.9250
 2.5000	13.9950
