Name: Quercus robur
Type: vegetation
Class: Tree
Genus: Quercus
Species: robur
Sample No.: JPL250
Owner: JPL
Wavelength Range: VSWIR
Origin: 34.12896; -118.11382; WGS84
Collection Date: 10/6/2016
Description: Samples were collected at the Huntington Garden in San Marino California as part of a JPL Subcontract studying HyTES imagery. Samples were taken to JPL and processed within 48 hours of collection. The same leaves were processed in the Nicolet and then measured using the ASD.
Measurement: Bidirectional reflectance
First Column: X
Second Column: Y
X Units: Wavelength (micrometer)
Y Units: Reflectance (percentage)
First X Value: 0.35
Last X Value: 2.5
Number of X Values: 2151
Additional Information: vegetation.tree.quercus.robur.vswir.jpl250.jpl.asd.ancillary.txt

 0.3500	 5.6560
 0.3510	 5.4310
 0.3520	 5.2220
 0.3530	 5.1920
 0.3540	 5.3330
 0.3550	 5.2740
 0.3560	 5.2520
 0.3570	 5.2920
 0.3580	 5.3100
 0.3590	 5.3090
 0.3600	 5.2590
 0.3610	 5.1790
 0.3620	 5.1460
 0.3630	 5.1410
 0.3640	 5.1720
 0.3650	 5.2210
 0.3660	 5.1690
 0.3670	 5.1210
 0.3680	 5.1120
 0.3690	 5.1260
 0.3700	 5.1160
 0.3710	 5.1220
 0.3720	 5.1500
 0.3730	 5.1360
 0.3740	 5.1050
 0.3750	 5.0630
 0.3760	 5.0290
 0.3770	 5.1070
 0.3780	 5.1280
 0.3790	 5.0870
 0.3800	 5.1180
 0.3810	 5.1630
 0.3820	 5.1720
 0.3830	 5.1340
 0.3840	 5.1170
 0.3850	 5.0850
 0.3860	 5.0820
 0.3870	 5.1500
 0.3880	 5.1810
 0.3890	 5.1660
 0.3900	 5.1270
 0.3910	 5.1060
 0.3920	 5.1100
 0.3930	 5.1250
 0.3940	 5.1410
 0.3950	 5.1730
 0.3960	 5.1920
 0.3970	 5.2070
 0.3980	 5.2420
 0.3990	 5.2680
 0.4000	 5.2740
 0.4010	 5.2740
 0.4020	 5.3080
 0.4030	 5.3360
 0.4040	 5.3480
 0.4050	 5.3500
 0.4060	 5.3710
 0.4070	 5.3980
 0.4080	 5.4210
 0.4090	 5.4370
 0.4100	 5.4390
 0.4110	 5.4450
 0.4120	 5.4640
 0.4130	 5.4840
 0.4140	 5.5110
 0.4150	 5.5320
 0.4160	 5.5360
 0.4170	 5.5580
 0.4180	 5.5840
 0.4190	 5.6050
 0.4200	 5.6230
 0.4210	 5.6260
 0.4220	 5.6330
 0.4230	 5.6520
 0.4240	 5.6460
 0.4250	 5.6540
 0.4260	 5.6740
 0.4270	 5.6810
 0.4280	 5.6890
 0.4290	 5.6960
 0.4300	 5.7020
 0.4310	 5.7100
 0.4320	 5.7090
 0.4330	 5.7120
 0.4340	 5.7260
 0.4350	 5.7330
 0.4360	 5.7380
 0.4370	 5.7410
 0.4380	 5.7390
 0.4390	 5.7460
 0.4400	 5.7490
 0.4410	 5.7430
 0.4420	 5.7460
 0.4430	 5.7480
 0.4440	 5.7490
 0.4450	 5.7510
 0.4460	 5.7610
 0.4470	 5.7720
 0.4480	 5.7780
 0.4490	 5.7800
 0.4500	 5.7870
 0.4510	 5.7950
 0.4520	 5.7970
 0.4530	 5.8000
 0.4540	 5.8000
 0.4550	 5.8020
 0.4560	 5.8150
 0.4570	 5.8180
 0.4580	 5.8160
 0.4590	 5.8150
 0.4600	 5.8140
 0.4610	 5.8150
 0.4620	 5.8170
 0.4630	 5.8170
 0.4640	 5.8190
 0.4650	 5.8160
 0.4660	 5.8110
 0.4670	 5.8120
 0.4680	 5.8160
 0.4690	 5.8180
 0.4700	 5.8180
 0.4710	 5.8120
 0.4720	 5.8140
 0.4730	 5.8190
 0.4740	 5.8140
 0.4750	 5.8100
 0.4760	 5.8120
 0.4770	 5.8170
 0.4780	 5.8130
 0.4790	 5.8110
 0.4800	 5.8090
 0.4810	 5.8070
 0.4820	 5.8160
 0.4830	 5.8260
 0.4840	 5.8310
 0.4850	 5.8290
 0.4860	 5.8320
 0.4870	 5.8380
 0.4880	 5.8440
 0.4890	 5.8520
 0.4900	 5.8570
 0.4910	 5.8630
 0.4920	 5.8730
 0.4930	 5.8840
 0.4940	 5.8970
 0.4950	 5.9120
 0.4960	 5.9300
 0.4970	 5.9460
 0.4980	 5.9620
 0.4990	 5.9820
 0.5000	 6.0060
 0.5010	 6.0380
 0.5020	 6.0760
 0.5030	 6.1150
 0.5040	 6.1540
 0.5050	 6.2010
 0.5060	 6.2620
 0.5070	 6.3260
 0.5080	 6.3990
 0.5090	 6.4780
 0.5100	 6.5640
 0.5110	 6.6680
 0.5120	 6.7850
 0.5130	 6.9100
 0.5140	 7.0460
 0.5150	 7.1990
 0.5160	 7.3670
 0.5170	 7.5480
 0.5180	 7.7430
 0.5190	 7.9480
 0.5200	 8.1630
 0.5210	 8.3850
 0.5220	 8.6090
 0.5230	 8.8380
 0.5240	 9.0710
 0.5250	 9.2970
 0.5260	 9.5190
 0.5270	 9.7350
 0.5280	 9.9390
 0.5290	10.1290
 0.5300	10.3070
 0.5310	10.4750
 0.5320	10.6300
 0.5330	10.7730
 0.5340	10.9020
 0.5350	11.0200
 0.5360	11.1260
 0.5370	11.2190
 0.5380	11.3030
 0.5390	11.3840
 0.5400	11.4650
 0.5410	11.5500
 0.5420	11.6350
 0.5430	11.7080
 0.5440	11.7650
 0.5450	11.8060
 0.5460	11.8340
 0.5470	11.8520
 0.5480	11.8710
 0.5490	11.8950
 0.5500	11.9210
 0.5510	11.9390
 0.5520	11.9440
 0.5530	11.9370
 0.5540	11.9140
 0.5550	11.8740
 0.5560	11.8180
 0.5570	11.7510
 0.5580	11.6670
 0.5590	11.5720
 0.5600	11.4690
 0.5610	11.3550
 0.5620	11.2340
 0.5630	11.1090
 0.5640	10.9790
 0.5650	10.8480
 0.5660	10.7140
 0.5670	10.5770
 0.5680	10.4340
 0.5690	10.2870
 0.5700	10.1380
 0.5710	 9.9880
 0.5720	 9.8420
 0.5730	 9.7020
 0.5740	 9.5680
 0.5750	 9.4400
 0.5760	 9.3230
 0.5770	 9.2130
 0.5780	 9.1100
 0.5790	 9.0160
 0.5800	 8.9310
 0.5810	 8.8520
 0.5820	 8.7750
 0.5830	 8.7060
 0.5840	 8.6410
 0.5850	 8.5770
 0.5860	 8.5110
 0.5870	 8.4510
 0.5880	 8.3970
 0.5890	 8.3490
 0.5900	 8.3040
 0.5910	 8.2630
 0.5920	 8.2250
 0.5930	 8.1930
 0.5940	 8.1640
 0.5950	 8.1400
 0.5960	 8.1200
 0.5970	 8.0990
 0.5980	 8.0770
 0.5990	 8.0540
 0.6000	 8.0280
 0.6010	 7.9980
 0.6020	 7.9630
 0.6030	 7.9230
 0.6040	 7.8790
 0.6050	 7.8290
 0.6060	 7.7740
 0.6070	 7.7130
 0.6080	 7.6500
 0.6090	 7.5910
 0.6100	 7.5370
 0.6110	 7.4850
 0.6120	 7.4210
 0.6130	 7.3460
 0.6140	 7.2690
 0.6150	 7.2040
 0.6160	 7.1420
 0.6170	 7.0850
 0.6180	 7.0350
 0.6190	 6.9940
 0.6200	 6.9570
 0.6210	 6.9220
 0.6220	 6.8910
 0.6230	 6.8630
 0.6240	 6.8400
 0.6250	 6.8210
 0.6260	 6.8060
 0.6270	 6.7950
 0.6280	 6.7870
 0.6290	 6.7810
 0.6300	 6.7740
 0.6310	 6.7670
 0.6320	 6.7580
 0.6330	 6.7490
 0.6340	 6.7340
 0.6350	 6.7130
 0.6360	 6.6880
 0.6370	 6.6530
 0.6380	 6.6150
 0.6390	 6.5750
 0.6400	 6.5290
 0.6410	 6.4810
 0.6420	 6.4320
 0.6430	 6.3800
 0.6440	 6.3290
 0.6450	 6.2820
 0.6460	 6.2380
 0.6470	 6.1980
 0.6480	 6.1570
 0.6490	 6.1240
 0.6500	 6.0970
 0.6510	 6.0730
 0.6520	 6.0480
 0.6530	 6.0280
 0.6540	 6.0120
 0.6550	 5.9890
 0.6560	 5.9640
 0.6570	 5.9400
 0.6580	 5.9160
 0.6590	 5.8880
 0.6600	 5.8590
 0.6610	 5.8320
 0.6620	 5.8090
 0.6630	 5.7900
 0.6640	 5.7750
 0.6650	 5.7630
 0.6660	 5.7540
 0.6670	 5.7500
 0.6680	 5.7520
 0.6690	 5.7570
 0.6700	 5.7640
 0.6710	 5.7760
 0.6720	 5.7940
 0.6730	 5.8140
 0.6740	 5.8380
 0.6750	 5.8640
 0.6760	 5.8930
 0.6770	 5.9250
 0.6780	 5.9640
 0.6790	 6.0060
 0.6800	 6.0480
 0.6810	 6.0950
 0.6820	 6.1460
 0.6830	 6.2010
 0.6840	 6.2550
 0.6850	 6.3140
 0.6860	 6.3790
 0.6870	 6.4520
 0.6880	 6.5380
 0.6890	 6.6470
 0.6900	 6.7900
 0.6910	 6.9800
 0.6920	 7.2270
 0.6930	 7.5400
 0.6940	 7.9280
 0.6950	 8.3950
 0.6960	 8.9440
 0.6970	 9.5700
 0.6980	10.2690
 0.6990	11.0330
 0.7000	11.8510
 0.7010	12.7130
 0.7020	13.6050
 0.7030	14.5160
 0.7040	15.4390
 0.7050	16.3670
 0.7060	17.2940
 0.7070	18.2160
 0.7080	19.1300
 0.7090	20.0350
 0.7100	20.9300
 0.7110	21.8190
 0.7120	22.6990
 0.7130	23.5680
 0.7140	24.4240
 0.7150	25.2690
 0.7160	26.1030
 0.7170	26.9270
 0.7180	27.7350
 0.7190	28.5230
 0.7200	29.2920
 0.7210	30.0410
 0.7220	30.7690
 0.7230	31.4720
 0.7240	32.1500
 0.7250	32.8050
 0.7260	33.4340
 0.7270	34.0330
 0.7280	34.6030
 0.7290	35.1470
 0.7300	35.6640
 0.7310	36.1530
 0.7320	36.6150
 0.7330	37.0500
 0.7340	37.4590
 0.7350	37.8390
 0.7360	38.1970
 0.7370	38.5330
 0.7380	38.8460
 0.7390	39.1370
 0.7400	39.4060
 0.7410	39.6560
 0.7420	39.8850
 0.7430	40.0930
 0.7440	40.2830
 0.7450	40.4550
 0.7460	40.6120
 0.7470	40.7520
 0.7480	40.8770
 0.7490	40.9880
 0.7500	41.0890
 0.7510	41.1810
 0.7520	41.2620
 0.7530	41.3340
 0.7540	41.3960
 0.7550	41.4510
 0.7560	41.5000
 0.7570	41.5450
 0.7580	41.5820
 0.7590	41.6170
 0.7600	41.6490
 0.7610	41.6740
 0.7620	41.6950
 0.7630	41.7130
 0.7640	41.7280
 0.7650	41.7420
 0.7660	41.7520
 0.7670	41.7590
 0.7680	41.7620
 0.7690	41.7630
 0.7700	41.7650
 0.7710	41.7680
 0.7720	41.7700
 0.7730	41.7710
 0.7740	41.7730
 0.7750	41.7740
 0.7760	41.7720
 0.7770	41.7700
 0.7780	41.7690
 0.7790	41.7680
 0.7800	41.7680
 0.7810	41.7710
 0.7820	41.7740
 0.7830	41.7750
 0.7840	41.7760
 0.7850	41.7760
 0.7860	41.7720
 0.7870	41.7700
 0.7880	41.7690
 0.7890	41.7660
 0.7900	41.7620
 0.7910	41.7590
 0.7920	41.7560
 0.7930	41.7540
 0.7940	41.7520
 0.7950	41.7510
 0.7960	41.7470
 0.7970	41.7410
 0.7980	41.7350
 0.7990	41.7290
 0.8000	41.7230
 0.8010	41.7160
 0.8020	41.7120
 0.8030	41.7050
 0.8040	41.6970
 0.8050	41.6930
 0.8060	41.6850
 0.8070	41.6770
 0.8080	41.6700
 0.8090	41.6640
 0.8100	41.6550
 0.8110	41.6460
 0.8120	41.6380
 0.8130	41.6280
 0.8140	41.6180
 0.8150	41.6090
 0.8160	41.6010
 0.8170	41.5910
 0.8180	41.5830
 0.8190	41.5760
 0.8200	41.5660
 0.8210	41.5570
 0.8220	41.5470
 0.8230	41.5380
 0.8240	41.5300
 0.8250	41.5200
 0.8260	41.5110
 0.8270	41.5040
 0.8280	41.4980
 0.8290	41.4880
 0.8300	41.4770
 0.8310	41.4710
 0.8320	41.4610
 0.8330	41.4540
 0.8340	41.4500
 0.8350	41.4430
 0.8360	41.4350
 0.8370	41.4280
 0.8380	41.4230
 0.8390	41.4190
 0.8400	41.4130
 0.8410	41.4100
 0.8420	41.4080
 0.8430	41.4030
 0.8440	41.3980
 0.8450	41.3940
 0.8460	41.3890
 0.8470	41.3880
 0.8480	41.3880
 0.8490	41.3870
 0.8500	41.3810
 0.8510	41.3760
 0.8520	41.3730
 0.8530	41.3720
 0.8540	41.3720
 0.8550	41.3700
 0.8560	41.3670
 0.8570	41.3640
 0.8580	41.3630
 0.8590	41.3640
 0.8600	41.3660
 0.8610	41.3690
 0.8620	41.3670
 0.8630	41.3690
 0.8640	41.3710
 0.8650	41.3700
 0.8660	41.3690
 0.8670	41.3710
 0.8680	41.3730
 0.8690	41.3720
 0.8700	41.3740
 0.8710	41.3790
 0.8720	41.3840
 0.8730	41.3860
 0.8740	41.3890
 0.8750	41.3930
 0.8760	41.3960
 0.8770	41.3940
 0.8780	41.3910
 0.8790	41.3920
 0.8800	41.3980
 0.8810	41.4030
 0.8820	41.4040
 0.8830	41.4070
 0.8840	41.4140
 0.8850	41.4140
 0.8860	41.4160
 0.8870	41.4190
 0.8880	41.4200
 0.8890	41.4210
 0.8900	41.4260
 0.8910	41.4320
 0.8920	41.4320
 0.8930	41.4360
 0.8940	41.4370
 0.8950	41.4360
 0.8960	41.4380
 0.8970	41.4430
 0.8980	41.4450
 0.8990	41.4440
 0.9000	41.4490
 0.9010	41.4510
 0.9020	41.4520
 0.9030	41.4550
 0.9040	41.4580
 0.9050	41.4610
 0.9060	41.4630
 0.9070	41.4630
 0.9080	41.4660
 0.9090	41.4660
 0.9100	41.4640
 0.9110	41.4630
 0.9120	41.4650
 0.9130	41.4650
 0.9140	41.4650
 0.9150	41.4640
 0.9160	41.4650
 0.9170	41.4640
 0.9180	41.4620
 0.9190	41.4620
 0.9200	41.4640
 0.9210	41.4610
 0.9220	41.4540
 0.9230	41.4480
 0.9240	41.4500
 0.9250	41.4450
 0.9260	41.4330
 0.9270	41.4300
 0.9280	41.4250
 0.9290	41.4150
 0.9300	41.4040
 0.9310	41.4010
 0.9320	41.3940
 0.9330	41.3850
 0.9340	41.3740
 0.9350	41.3580
 0.9360	41.3500
 0.9370	41.3430
 0.9380	41.3310
 0.9390	41.3170
 0.9400	41.3030
 0.9410	41.2910
 0.9420	41.2810
 0.9430	41.2640
 0.9440	41.2460
 0.9450	41.2280
 0.9460	41.2100
 0.9470	41.1910
 0.9480	41.1800
 0.9490	41.1650
 0.9500	41.1400
 0.9510	41.1220
 0.9520	41.0950
 0.9530	41.0660
 0.9540	41.0430
 0.9550	41.0160
 0.9560	40.9960
 0.9570	40.9770
 0.9580	40.9540
 0.9590	40.9280
 0.9600	40.9060
 0.9610	40.8850
 0.9620	40.8620
 0.9630	40.8420
 0.9640	40.8340
 0.9650	40.8260
 0.9660	40.8070
 0.9670	40.7980
 0.9680	40.7820
 0.9690	40.7650
 0.9700	40.7600
 0.9710	40.7520
 0.9720	40.7420
 0.9730	40.7340
 0.9740	40.7310
 0.9750	40.7310
 0.9760	40.7290
 0.9770	40.7250
 0.9780	40.7180
 0.9790	40.7040
 0.9800	40.6930
 0.9810	40.6860
 0.9820	40.6840
 0.9830	40.6840
 0.9840	40.6780
 0.9850	40.6670
 0.9860	40.6610
 0.9870	40.6600
 0.9880	40.6710
 0.9890	40.6820
 0.9900	40.6810
 0.9910	40.6750
 0.9920	40.6690
 0.9930	40.6700
 0.9940	40.6840
 0.9950	40.6880
 0.9960	40.6930
 0.9970	40.6930
 0.9980	40.6820
 0.9990	40.6830
 1.0000	40.6830
 1.0010	41.0460
 1.0020	41.0480
 1.0030	41.0490
 1.0040	41.0520
 1.0050	41.0560
 1.0060	41.0620
 1.0070	41.0690
 1.0080	41.0740
 1.0090	41.0820
 1.0100	41.0850
 1.0110	41.0860
 1.0120	41.0890
 1.0130	41.0910
 1.0140	41.0940
 1.0150	41.1010
 1.0160	41.1030
 1.0170	41.1050
 1.0180	41.1080
 1.0190	41.1100
 1.0200	41.1130
 1.0210	41.1160
 1.0220	41.1170
 1.0230	41.1200
 1.0240	41.1260
 1.0250	41.1280
 1.0260	41.1310
 1.0270	41.1350
 1.0280	41.1360
 1.0290	41.1400
 1.0300	41.1460
 1.0310	41.1500
 1.0320	41.1560
 1.0330	41.1590
 1.0340	41.1620
 1.0350	41.1660
 1.0360	41.1680
 1.0370	41.1690
 1.0380	41.1700
 1.0390	41.1700
 1.0400	41.1710
 1.0410	41.1730
 1.0420	41.1770
 1.0430	41.1840
 1.0440	41.1870
 1.0450	41.1920
 1.0460	41.1930
 1.0470	41.1900
 1.0480	41.1910
 1.0490	41.1910
 1.0500	41.1900
 1.0510	41.1900
 1.0520	41.1920
 1.0530	41.1930
 1.0540	41.1930
 1.0550	41.1920
 1.0560	41.1900
 1.0570	41.1900
 1.0580	41.1900
 1.0590	41.1890
 1.0600	41.1890
 1.0610	41.1890
 1.0620	41.1890
 1.0630	41.1870
 1.0640	41.1870
 1.0650	41.1860
 1.0660	41.1790
 1.0670	41.1760
 1.0680	41.1740
 1.0690	41.1740
 1.0700	41.1720
 1.0710	41.1720
 1.0720	41.1710
 1.0730	41.1680
 1.0740	41.1650
 1.0750	41.1630
 1.0760	41.1600
 1.0770	41.1570
 1.0780	41.1540
 1.0790	41.1510
 1.0800	41.1480
 1.0810	41.1440
 1.0820	41.1410
 1.0830	41.1400
 1.0840	41.1370
 1.0850	41.1330
 1.0860	41.1290
 1.0870	41.1230
 1.0880	41.1130
 1.0890	41.1090
 1.0900	41.1070
 1.0910	41.1030
 1.0920	41.1040
 1.0930	41.1010
 1.0940	41.0940
 1.0950	41.0880
 1.0960	41.0820
 1.0970	41.0770
 1.0980	41.0750
 1.0990	41.0700
 1.1000	41.0620
 1.1010	41.0570
 1.1020	41.0510
 1.1030	41.0480
 1.1040	41.0440
 1.1050	41.0390
 1.1060	41.0330
 1.1070	41.0220
 1.1080	41.0160
 1.1090	41.0130
 1.1100	41.0080
 1.1110	41.0030
 1.1120	40.9970
 1.1130	40.9890
 1.1140	40.9830
 1.1150	40.9800
 1.1160	40.9730
 1.1170	40.9640
 1.1180	40.9560
 1.1190	40.9480
 1.1200	40.9370
 1.1210	40.9270
 1.1220	40.9170
 1.1230	40.9040
 1.1240	40.8910
 1.1250	40.8750
 1.1260	40.8590
 1.1270	40.8380
 1.1280	40.8150
 1.1290	40.7900
 1.1300	40.7650
 1.1310	40.7350
 1.1320	40.7040
 1.1330	40.6700
 1.1340	40.6330
 1.1350	40.5940
 1.1360	40.5520
 1.1370	40.5090
 1.1380	40.4610
 1.1390	40.4110
 1.1400	40.3590
 1.1410	40.3060
 1.1420	40.2520
 1.1430	40.1970
 1.1440	40.1430
 1.1450	40.0880
 1.1460	40.0350
 1.1470	39.9820
 1.1480	39.9310
 1.1490	39.8790
 1.1500	39.8300
 1.1510	39.7840
 1.1520	39.7390
 1.1530	39.6960
 1.1540	39.6570
 1.1550	39.6220
 1.1560	39.5860
 1.1570	39.5550
 1.1580	39.5260
 1.1590	39.4950
 1.1600	39.4670
 1.1610	39.4430
 1.1620	39.4200
 1.1630	39.4030
 1.1640	39.3880
 1.1650	39.3710
 1.1660	39.3550
 1.1670	39.3410
 1.1680	39.3270
 1.1690	39.3140
 1.1700	39.3040
 1.1710	39.2920
 1.1720	39.2790
 1.1730	39.2670
 1.1740	39.2550
 1.1750	39.2440
 1.1760	39.2330
 1.1770	39.2210
 1.1780	39.2060
 1.1790	39.1920
 1.1800	39.1790
 1.1810	39.1670
 1.1820	39.1560
 1.1830	39.1460
 1.1840	39.1330
 1.1850	39.1200
 1.1860	39.1100
 1.1870	39.0970
 1.1880	39.0860
 1.1890	39.0780
 1.1900	39.0700
 1.1910	39.0620
 1.1920	39.0550
 1.1930	39.0490
 1.1940	39.0410
 1.1950	39.0330
 1.1960	39.0260
 1.1970	39.0210
 1.1980	39.0160
 1.1990	39.0150
 1.2000	39.0160
 1.2010	39.0150
 1.2020	39.0150
 1.2030	39.0160
 1.2040	39.0140
 1.2050	39.0140
 1.2060	39.0130
 1.2070	39.0150
 1.2080	39.0160
 1.2090	39.0210
 1.2100	39.0270
 1.2110	39.0310
 1.2120	39.0360
 1.2130	39.0430
 1.2140	39.0480
 1.2150	39.0550
 1.2160	39.0630
 1.2170	39.0710
 1.2180	39.0790
 1.2190	39.0880
 1.2200	39.0960
 1.2210	39.1050
 1.2220	39.1140
 1.2230	39.1240
 1.2240	39.1350
 1.2250	39.1460
 1.2260	39.1560
 1.2270	39.1670
 1.2280	39.1770
 1.2290	39.1860
 1.2300	39.1930
 1.2310	39.1990
 1.2320	39.2060
 1.2330	39.2140
 1.2340	39.2210
 1.2350	39.2280
 1.2360	39.2340
 1.2370	39.2390
 1.2380	39.2450
 1.2390	39.2500
 1.2400	39.2560
 1.2410	39.2620
 1.2420	39.2670
 1.2430	39.2700
 1.2440	39.2740
 1.2450	39.2770
 1.2460	39.2790
 1.2470	39.2810
 1.2480	39.2830
 1.2490	39.2880
 1.2500	39.2920
 1.2510	39.2950
 1.2520	39.2980
 1.2530	39.2980
 1.2540	39.2980
 1.2550	39.3010
 1.2560	39.3010
 1.2570	39.3020
 1.2580	39.3010
 1.2590	39.3010
 1.2600	39.3010
 1.2610	39.2990
 1.2620	39.2970
 1.2630	39.2940
 1.2640	39.2900
 1.2650	39.2850
 1.2660	39.2810
 1.2670	39.2780
 1.2680	39.2740
 1.2690	39.2700
 1.2700	39.2670
 1.2710	39.2630
 1.2720	39.2590
 1.2730	39.2520
 1.2740	39.2450
 1.2750	39.2370
 1.2760	39.2290
 1.2770	39.2220
 1.2780	39.2160
 1.2790	39.2090
 1.2800	39.2000
 1.2810	39.1910
 1.2820	39.1810
 1.2830	39.1710
 1.2840	39.1610
 1.2850	39.1480
 1.2860	39.1340
 1.2870	39.1190
 1.2880	39.1020
 1.2890	39.0860
 1.2900	39.0700
 1.2910	39.0530
 1.2920	39.0350
 1.2930	39.0150
 1.2940	38.9920
 1.2950	38.9700
 1.2960	38.9480
 1.2970	38.9270
 1.2980	38.9050
 1.2990	38.8810
 1.3000	38.8560
 1.3010	38.8290
 1.3020	38.8020
 1.3030	38.7750
 1.3040	38.7450
 1.3050	38.7150
 1.3060	38.6830
 1.3070	38.6490
 1.3080	38.6180
 1.3090	38.5850
 1.3100	38.5520
 1.3110	38.5170
 1.3120	38.4800
 1.3130	38.4440
 1.3140	38.4060
 1.3150	38.3690
 1.3160	38.3290
 1.3170	38.2880
 1.3180	38.2440
 1.3190	38.1990
 1.3200	38.1520
 1.3210	38.1050
 1.3220	38.0600
 1.3230	38.0120
 1.3240	37.9660
 1.3250	37.9180
 1.3260	37.8660
 1.3270	37.8130
 1.3280	37.7590
 1.3290	37.7030
 1.3300	37.6470
 1.3310	37.5900
 1.3320	37.5330
 1.3330	37.4750
 1.3340	37.4170
 1.3350	37.3590
 1.3360	37.3000
 1.3370	37.2390
 1.3380	37.1790
 1.3390	37.1190
 1.3400	37.0580
 1.3410	36.9990
 1.3420	36.9400
 1.3430	36.8790
 1.3440	36.8200
 1.3450	36.7610
 1.3460	36.7020
 1.3470	36.6440
 1.3480	36.5850
 1.3490	36.5280
 1.3500	36.4720
 1.3510	36.4160
 1.3520	36.3590
 1.3530	36.3040
 1.3540	36.2470
 1.3550	36.1890
 1.3560	36.1330
 1.3570	36.0740
 1.3580	36.0160
 1.3590	35.9570
 1.3600	35.8960
 1.3610	35.8340
 1.3620	35.7680
 1.3630	35.7000
 1.3640	35.6280
 1.3650	35.5500
 1.3660	35.4670
 1.3670	35.3800
 1.3680	35.2870
 1.3690	35.1890
 1.3700	35.0830
 1.3710	34.9710
 1.3720	34.8500
 1.3730	34.7180
 1.3740	34.5770
 1.3750	34.4260
 1.3760	34.2600
 1.3770	34.0820
 1.3780	33.8890
 1.3790	33.6810
 1.3800	33.4570
 1.3810	33.2160
 1.3820	32.9600
 1.3830	32.6890
 1.3840	32.4010
 1.3850	32.0980
 1.3860	31.7800
 1.3870	31.4440
 1.3880	31.0980
 1.3890	30.7370
 1.3900	30.3630
 1.3910	29.9830
 1.3920	29.5930
 1.3930	29.1940
 1.3940	28.7900
 1.3950	28.3800
 1.3960	27.9690
 1.3970	27.5600
 1.3980	27.1510
 1.3990	26.7510
 1.4000	26.3550
 1.4010	25.9640
 1.4020	25.5840
 1.4030	25.2110
 1.4040	24.8480
 1.4050	24.5000
 1.4060	24.1620
 1.4070	23.8390
 1.4080	23.5310
 1.4090	23.2350
 1.4100	22.9550
 1.4110	22.6880
 1.4120	22.4340
 1.4130	22.1960
 1.4140	21.9710
 1.4150	21.7610
 1.4160	21.5660
 1.4170	21.3810
 1.4180	21.2090
 1.4190	21.0470
 1.4200	20.8940
 1.4210	20.7520
 1.4220	20.6200
 1.4230	20.4970
 1.4240	20.3850
 1.4250	20.2800
 1.4260	20.1830
 1.4270	20.0930
 1.4280	20.0110
 1.4290	19.9340
 1.4300	19.8650
 1.4310	19.8000
 1.4320	19.7430
 1.4330	19.6900
 1.4340	19.6430
 1.4350	19.6000
 1.4360	19.5610
 1.4370	19.5270
 1.4380	19.4980
 1.4390	19.4730
 1.4400	19.4530
 1.4410	19.4350
 1.4420	19.4200
 1.4430	19.4080
 1.4440	19.3980
 1.4450	19.3920
 1.4460	19.3880
 1.4470	19.3860
 1.4480	19.3870
 1.4490	19.3910
 1.4500	19.3950
 1.4510	19.4020
 1.4520	19.4100
 1.4530	19.4200
 1.4540	19.4310
 1.4550	19.4460
 1.4560	19.4630
 1.4570	19.4840
 1.4580	19.5070
 1.4590	19.5330
 1.4600	19.5630
 1.4610	19.5970
 1.4620	19.6350
 1.4630	19.6770
 1.4640	19.7240
 1.4650	19.7750
 1.4660	19.8300
 1.4670	19.8900
 1.4680	19.9550
 1.4690	20.0240
 1.4700	20.0960
 1.4710	20.1740
 1.4720	20.2550
 1.4730	20.3390
 1.4740	20.4260
 1.4750	20.5140
 1.4760	20.6070
 1.4770	20.7010
 1.4780	20.7980
 1.4790	20.8970
 1.4800	20.9960
 1.4810	21.0950
 1.4820	21.1970
 1.4830	21.3000
 1.4840	21.4040
 1.4850	21.5090
 1.4860	21.6140
 1.4870	21.7210
 1.4880	21.8260
 1.4890	21.9330
 1.4900	22.0400
 1.4910	22.1480
 1.4920	22.2560
 1.4930	22.3640
 1.4940	22.4710
 1.4950	22.5800
 1.4960	22.6870
 1.4970	22.7940
 1.4980	22.9020
 1.4990	23.0090
 1.5000	23.1170
 1.5010	23.2250
 1.5020	23.3330
 1.5030	23.4410
 1.5040	23.5480
 1.5050	23.6520
 1.5060	23.7580
 1.5070	23.8640
 1.5080	23.9680
 1.5090	24.0740
 1.5100	24.1780
 1.5110	24.2810
 1.5120	24.3830
 1.5130	24.4850
 1.5140	24.5860
 1.5150	24.6850
 1.5160	24.7830
 1.5170	24.8820
 1.5180	24.9790
 1.5190	25.0760
 1.5200	25.1720
 1.5210	25.2670
 1.5220	25.3610
 1.5230	25.4540
 1.5240	25.5460
 1.5250	25.6380
 1.5260	25.7300
 1.5270	25.8210
 1.5280	25.9090
 1.5290	25.9950
 1.5300	26.0800
 1.5310	26.1650
 1.5320	26.2490
 1.5330	26.3320
 1.5340	26.4140
 1.5350	26.4940
 1.5360	26.5730
 1.5370	26.6530
 1.5380	26.7310
 1.5390	26.8080
 1.5400	26.8840
 1.5410	26.9600
 1.5420	27.0350
 1.5430	27.1090
 1.5440	27.1820
 1.5450	27.2540
 1.5460	27.3260
 1.5470	27.3970
 1.5480	27.4670
 1.5490	27.5380
 1.5500	27.6060
 1.5510	27.6740
 1.5520	27.7420
 1.5530	27.8070
 1.5540	27.8710
 1.5550	27.9360
 1.5560	27.9980
 1.5570	28.0600
 1.5580	28.1210
 1.5590	28.1820
 1.5600	28.2420
 1.5610	28.3000
 1.5620	28.3590
 1.5630	28.4150
 1.5640	28.4700
 1.5650	28.5250
 1.5660	28.5800
 1.5670	28.6340
 1.5680	28.6870
 1.5690	28.7400
 1.5700	28.7910
 1.5710	28.8440
 1.5720	28.8960
 1.5730	28.9480
 1.5740	28.9990
 1.5750	29.0470
 1.5760	29.0950
 1.5770	29.1420
 1.5780	29.1890
 1.5790	29.2390
 1.5800	29.2870
 1.5810	29.3340
 1.5820	29.3810
 1.5830	29.4270
 1.5840	29.4730
 1.5850	29.5180
 1.5860	29.5640
 1.5870	29.6090
 1.5880	29.6540
 1.5890	29.6990
 1.5900	29.7430
 1.5910	29.7870
 1.5920	29.8300
 1.5930	29.8710
 1.5940	29.9130
 1.5950	29.9550
 1.5960	29.9950
 1.5970	30.0360
 1.5980	30.0760
 1.5990	30.1140
 1.6000	30.1520
 1.6010	30.1910
 1.6020	30.2300
 1.6030	30.2690
 1.6040	30.3060
 1.6050	30.3420
 1.6060	30.3780
 1.6070	30.4130
 1.6080	30.4470
 1.6090	30.4810
 1.6100	30.5150
 1.6110	30.5470
 1.6120	30.5790
 1.6130	30.6120
 1.6140	30.6440
 1.6150	30.6760
 1.6160	30.7070
 1.6170	30.7370
 1.6180	30.7670
 1.6190	30.7960
 1.6200	30.8250
 1.6210	30.8540
 1.6220	30.8800
 1.6230	30.9050
 1.6240	30.9330
 1.6250	30.9600
 1.6260	30.9870
 1.6270	31.0120
 1.6280	31.0360
 1.6290	31.0590
 1.6300	31.0830
 1.6310	31.1070
 1.6320	31.1310
 1.6330	31.1530
 1.6340	31.1760
 1.6350	31.1980
 1.6360	31.2170
 1.6370	31.2370
 1.6380	31.2570
 1.6390	31.2750
 1.6400	31.2940
 1.6410	31.3110
 1.6420	31.3260
 1.6430	31.3410
 1.6440	31.3540
 1.6450	31.3690
 1.6460	31.3840
 1.6470	31.3970
 1.6480	31.4090
 1.6490	31.4190
 1.6500	31.4270
 1.6510	31.4330
 1.6520	31.4390
 1.6530	31.4440
 1.6540	31.4470
 1.6550	31.4490
 1.6560	31.4490
 1.6570	31.4490
 1.6580	31.4480
 1.6590	31.4460
 1.6600	31.4450
 1.6610	31.4410
 1.6620	31.4370
 1.6630	31.4360
 1.6640	31.4330
 1.6650	31.4280
 1.6660	31.4230
 1.6670	31.4140
 1.6680	31.4070
 1.6690	31.4010
 1.6700	31.3930
 1.6710	31.3850
 1.6720	31.3750
 1.6730	31.3610
 1.6740	31.3480
 1.6750	31.3330
 1.6760	31.3160
 1.6770	31.2990
 1.6780	31.2790
 1.6790	31.2600
 1.6800	31.2380
 1.6810	31.2130
 1.6820	31.1870
 1.6830	31.1590
 1.6840	31.1290
 1.6850	31.0990
 1.6860	31.0680
 1.6870	31.0380
 1.6880	31.0060
 1.6890	30.9740
 1.6900	30.9410
 1.6910	30.9060
 1.6920	30.8730
 1.6930	30.8410
 1.6940	30.8090
 1.6950	30.7780
 1.6960	30.7470
 1.6970	30.7180
 1.6980	30.6860
 1.6990	30.6550
 1.7000	30.6220
 1.7010	30.5890
 1.7020	30.5550
 1.7030	30.5210
 1.7040	30.4880
 1.7050	30.4570
 1.7060	30.4250
 1.7070	30.3950
 1.7080	30.3630
 1.7090	30.3290
 1.7100	30.2960
 1.7110	30.2640
 1.7120	30.2310
 1.7130	30.1980
 1.7140	30.1660
 1.7150	30.1330
 1.7160	30.1000
 1.7170	30.0680
 1.7180	30.0350
 1.7190	30.0010
 1.7200	29.9680
 1.7210	29.9360
 1.7220	29.9020
 1.7230	29.8680
 1.7240	29.8330
 1.7250	29.7980
 1.7260	29.7660
 1.7270	29.7340
 1.7280	29.7030
 1.7290	29.6750
 1.7300	29.6480
 1.7310	29.6230
 1.7320	29.6020
 1.7330	29.5800
 1.7340	29.5570
 1.7350	29.5360
 1.7360	29.5160
 1.7370	29.4950
 1.7380	29.4770
 1.7390	29.4540
 1.7400	29.4270
 1.7410	29.3990
 1.7420	29.3670
 1.7430	29.3360
 1.7440	29.3030
 1.7450	29.2700
 1.7460	29.2370
 1.7470	29.2020
 1.7480	29.1650
 1.7490	29.1280
 1.7500	29.0890
 1.7510	29.0490
 1.7520	29.0080
 1.7530	28.9680
 1.7540	28.9270
 1.7550	28.8860
 1.7560	28.8460
 1.7570	28.8070
 1.7580	28.7680
 1.7590	28.7320
 1.7600	28.6970
 1.7610	28.6600
 1.7620	28.6250
 1.7630	28.5890
 1.7640	28.5570
 1.7650	28.5290
 1.7660	28.5010
 1.7670	28.4770
 1.7680	28.4510
 1.7690	28.4250
 1.7700	28.4020
 1.7710	28.3800
 1.7720	28.3580
 1.7730	28.3390
 1.7740	28.3190
 1.7750	28.2990
 1.7760	28.2790
 1.7770	28.2590
 1.7780	28.2420
 1.7790	28.2260
 1.7800	28.2110
 1.7810	28.1980
 1.7820	28.1870
 1.7830	28.1790
 1.7840	28.1690
 1.7850	28.1620
 1.7860	28.1550
 1.7870	28.1460
 1.7880	28.1410
 1.7890	28.1390
 1.7900	28.1380
 1.7910	28.1360
 1.7920	28.1340
 1.7930	28.1340
 1.7940	28.1350
 1.7950	28.1370
 1.7960	28.1400
 1.7970	28.1430
 1.7980	28.1470
 1.7990	28.1520
 1.8000	28.1560
 1.8010	28.1620
 1.8020	28.1710
 1.8030	28.1770
 1.8040	28.1830
 1.8050	28.1900
 1.8060	28.1950
 1.8070	28.2010
 1.8080	28.2110
 1.8090	28.2190
 1.8100	28.2250
 1.8110	28.2310
 1.8120	28.2370
 1.8130	28.2400
 1.8140	28.2420
 1.8150	28.2440
 1.8160	28.2450
 1.8170	28.2470
 1.8180	28.2500
 1.8190	28.2540
 1.8200	28.2540
 1.8210	28.2520
 1.8220	28.2500
 1.8230	28.2470
 1.8240	28.2430
 1.8250	28.2390
 1.8260	28.2340
 1.8270	28.2270
 1.8280	28.2220
 1.8290	28.2190
 1.8300	28.2130
 1.8310	27.8820
 1.8320	27.8700
 1.8330	27.8540
 1.8340	27.8380
 1.8350	27.8170
 1.8360	27.7920
 1.8370	27.7670
 1.8380	27.7320
 1.8390	27.6950
 1.8400	27.6570
 1.8410	27.6150
 1.8420	27.5690
 1.8430	27.5230
 1.8440	27.4730
 1.8450	27.4110
 1.8460	27.3450
 1.8470	27.2710
 1.8480	27.1880
 1.8490	27.0990
 1.8500	27.0050
 1.8510	26.9050
 1.8520	26.7980
 1.8530	26.6810
 1.8540	26.5570
 1.8550	26.4210
 1.8560	26.2710
 1.8570	26.1090
 1.8580	25.9350
 1.8590	25.7520
 1.8600	25.5570
 1.8610	25.3510
 1.8620	25.1270
 1.8630	24.8920
 1.8640	24.6400
 1.8650	24.3680
 1.8660	24.0830
 1.8670	23.7770
 1.8680	23.4500
 1.8690	23.1090
 1.8700	22.7500
 1.8710	22.3730
 1.8720	21.9820
 1.8730	21.5750
 1.8740	21.1470
 1.8750	20.7060
 1.8760	20.2460
 1.8770	19.7720
 1.8780	19.2890
 1.8790	18.7930
 1.8800	18.2940
 1.8810	17.7880
 1.8820	17.2760
 1.8830	16.7570
 1.8840	16.2360
 1.8850	15.7090
 1.8860	15.1850
 1.8870	14.6720
 1.8880	14.1620
 1.8890	13.6660
 1.8900	13.1850
 1.8910	12.7200
 1.8920	12.2650
 1.8930	11.8300
 1.8940	11.4160
 1.8950	11.0230
 1.8960	10.6520
 1.8970	10.3050
 1.8980	 9.9830
 1.8990	 9.6860
 1.9000	 9.4070
 1.9010	 9.1510
 1.9020	 8.9130
 1.9030	 8.6960
 1.9040	 8.4970
 1.9050	 8.3190
 1.9060	 8.1590
 1.9070	 8.0130
 1.9080	 7.8800
 1.9090	 7.7610
 1.9100	 7.6530
 1.9110	 7.5550
 1.9120	 7.4730
 1.9130	 7.3960
 1.9140	 7.3280
 1.9150	 7.2690
 1.9160	 7.2160
 1.9170	 7.1690
 1.9180	 7.1280
 1.9190	 7.0890
 1.9200	 7.0570
 1.9210	 7.0310
 1.9220	 7.0070
 1.9230	 6.9880
 1.9240	 6.9710
 1.9250	 6.9560
 1.9260	 6.9450
 1.9270	 6.9380
 1.9280	 6.9340
 1.9290	 6.9360
 1.9300	 6.9370
 1.9310	 6.9410
 1.9320	 6.9510
 1.9330	 6.9620
 1.9340	 6.9760
 1.9350	 6.9930
 1.9360	 7.0120
 1.9370	 7.0320
 1.9380	 7.0530
 1.9390	 7.0800
 1.9400	 7.1060
 1.9410	 7.1330
 1.9420	 7.1650
 1.9430	 7.1980
 1.9440	 7.2330
 1.9450	 7.2710
 1.9460	 7.3090
 1.9470	 7.3470
 1.9480	 7.3870
 1.9490	 7.4310
 1.9500	 7.4750
 1.9510	 7.5200
 1.9520	 7.5700
 1.9530	 7.6210
 1.9540	 7.6710
 1.9550	 7.7240
 1.9560	 7.7780
 1.9570	 7.8320
 1.9580	 7.8870
 1.9590	 7.9430
 1.9600	 8.0000
 1.9610	 8.0590
 1.9620	 8.1200
 1.9630	 8.1800
 1.9640	 8.2430
 1.9650	 8.3070
 1.9660	 8.3710
 1.9670	 8.4400
 1.9680	 8.5080
 1.9690	 8.5760
 1.9700	 8.6460
 1.9710	 8.7170
 1.9720	 8.7860
 1.9730	 8.8540
 1.9740	 8.9250
 1.9750	 8.9960
 1.9760	 9.0670
 1.9770	 9.1420
 1.9780	 9.2180
 1.9790	 9.2930
 1.9800	 9.3700
 1.9810	 9.4480
 1.9820	 9.5270
 1.9830	 9.6060
 1.9840	 9.6880
 1.9850	 9.7700
 1.9860	 9.8510
 1.9870	 9.9330
 1.9880	10.0160
 1.9890	10.0990
 1.9900	10.1820
 1.9910	10.2650
 1.9920	10.3490
 1.9930	10.4320
 1.9940	10.5150
 1.9950	10.5980
 1.9960	10.6810
 1.9970	10.7610
 1.9980	10.8430
 1.9990	10.9240
 2.0000	11.0080
 2.0010	11.0920
 2.0020	11.1750
 2.0030	11.2600
 2.0040	11.3420
 2.0050	11.4250
 2.0060	11.5070
 2.0070	11.5880
 2.0080	11.6680
 2.0090	11.7500
 2.0100	11.8350
 2.0110	11.9160
 2.0120	11.9970
 2.0130	12.0740
 2.0140	12.1490
 2.0150	12.2240
 2.0160	12.3000
 2.0170	12.3760
 2.0180	12.4510
 2.0190	12.5280
 2.0200	12.6010
 2.0210	12.6740
 2.0220	12.7440
 2.0230	12.8100
 2.0240	12.8780
 2.0250	12.9440
 2.0260	13.0120
 2.0270	13.0810
 2.0280	13.1490
 2.0290	13.2180
 2.0300	13.2830
 2.0310	13.3450
 2.0320	13.4040
 2.0330	13.4640
 2.0340	13.5230
 2.0350	13.5810
 2.0360	13.6410
 2.0370	13.6980
 2.0380	13.7530
 2.0390	13.8070
 2.0400	13.8590
 2.0410	13.9090
 2.0420	13.9560
 2.0430	14.0020
 2.0440	14.0490
 2.0450	14.0930
 2.0460	14.1420
 2.0470	14.1920
 2.0480	14.2410
 2.0490	14.2910
 2.0500	14.3410
 2.0510	14.3900
 2.0520	14.4390
 2.0530	14.4870
 2.0540	14.5350
 2.0550	14.5820
 2.0560	14.6290
 2.0570	14.6810
 2.0580	14.7310
 2.0590	14.7820
 2.0600	14.8330
 2.0610	14.8870
 2.0620	14.9430
 2.0630	14.9980
 2.0640	15.0570
 2.0650	15.1120
 2.0660	15.1620
 2.0670	15.2160
 2.0680	15.2710
 2.0690	15.3250
 2.0700	15.3790
 2.0710	15.4330
 2.0720	15.4880
 2.0730	15.5400
 2.0740	15.5930
 2.0750	15.6450
 2.0760	15.6960
 2.0770	15.7430
 2.0780	15.7960
 2.0790	15.8520
 2.0800	15.9040
 2.0810	15.9600
 2.0820	16.0110
 2.0830	16.0540
 2.0840	16.1020
 2.0850	16.1510
 2.0860	16.1990
 2.0870	16.2490
 2.0880	16.2980
 2.0890	16.3460
 2.0900	16.3930
 2.0910	16.4390
 2.0920	16.4830
 2.0930	16.5290
 2.0940	16.5730
 2.0950	16.6200
 2.0960	16.6690
 2.0970	16.7160
 2.0980	16.7620
 2.0990	16.8090
 2.1000	16.8550
 2.1010	16.9010
 2.1020	16.9470
 2.1030	16.9920
 2.1040	17.0370
 2.1050	17.0780
 2.1060	17.1210
 2.1070	17.1650
 2.1080	17.2090
 2.1090	17.2540
 2.1100	17.2960
 2.1110	17.3370
 2.1120	17.3780
 2.1130	17.4170
 2.1140	17.4570
 2.1150	17.4990
 2.1160	17.5400
 2.1170	17.5820
 2.1180	17.6240
 2.1190	17.6680
 2.1200	17.7100
 2.1210	17.7510
 2.1220	17.7910
 2.1230	17.8260
 2.1240	17.8560
 2.1250	17.8890
 2.1260	17.9180
 2.1270	17.9540
 2.1280	17.9970
 2.1290	18.0320
 2.1300	18.0690
 2.1310	18.1000
 2.1320	18.1240
 2.1330	18.1520
 2.1340	18.1800
 2.1350	18.2080
 2.1360	18.2340
 2.1370	18.2620
 2.1380	18.2900
 2.1390	18.3160
 2.1400	18.3430
 2.1410	18.3670
 2.1420	18.3910
 2.1430	18.4130
 2.1440	18.4360
 2.1450	18.4600
 2.1460	18.4830
 2.1470	18.5060
 2.1480	18.5260
 2.1490	18.5430
 2.1500	18.5620
 2.1510	18.5810
 2.1520	18.6000
 2.1530	18.6230
 2.1540	18.6410
 2.1550	18.6580
 2.1560	18.6730
 2.1570	18.6830
 2.1580	18.6960
 2.1590	18.7100
 2.1600	18.7210
 2.1610	18.7370
 2.1620	18.7510
 2.1630	18.7650
 2.1640	18.7790
 2.1650	18.7930
 2.1660	18.8060
 2.1670	18.8200
 2.1680	18.8340
 2.1690	18.8510
 2.1700	18.8710
 2.1710	18.8880
 2.1720	18.9070
 2.1730	18.9250
 2.1740	18.9410
 2.1750	18.9570
 2.1760	18.9680
 2.1770	18.9850
 2.1780	19.0050
 2.1790	19.0240
 2.1800	19.0480
 2.1810	19.0690
 2.1820	19.0880
 2.1830	19.1070
 2.1840	19.1280
 2.1850	19.1490
 2.1860	19.1720
 2.1870	19.1960
 2.1880	19.2210
 2.1890	19.2500
 2.1900	19.2750
 2.1910	19.2990
 2.1920	19.3210
 2.1930	19.3400
 2.1940	19.3610
 2.1950	19.3810
 2.1960	19.4020
 2.1970	19.4250
 2.1980	19.4460
 2.1990	19.4660
 2.2000	19.4860
 2.2010	19.5080
 2.2020	19.5270
 2.2030	19.5420
 2.2040	19.5590
 2.2050	19.5780
 2.2060	19.5930
 2.2070	19.6090
 2.2080	19.6260
 2.2090	19.6380
 2.2100	19.6440
 2.2110	19.6550
 2.2120	19.6660
 2.2130	19.6770
 2.2140	19.6920
 2.2150	19.7030
 2.2160	19.7130
 2.2170	19.7210
 2.2180	19.7290
 2.2190	19.7330
 2.2200	19.7310
 2.2210	19.7340
 2.2220	19.7390
 2.2230	19.7390
 2.2240	19.7410
 2.2250	19.7370
 2.2260	19.7250
 2.2270	19.7130
 2.2280	19.7000
 2.2290	19.6870
 2.2300	19.6730
 2.2310	19.6560
 2.2320	19.6380
 2.2330	19.6160
 2.2340	19.5900
 2.2350	19.5590
 2.2360	19.5280
 2.2370	19.4950
 2.2380	19.4590
 2.2390	19.4190
 2.2400	19.3780
 2.2410	19.3360
 2.2420	19.2890
 2.2430	19.2390
 2.2440	19.1880
 2.2450	19.1330
 2.2460	19.0760
 2.2470	19.0140
 2.2480	18.9570
 2.2490	18.8970
 2.2500	18.8380
 2.2510	18.7850
 2.2520	18.7250
 2.2530	18.6570
 2.2540	18.5920
 2.2550	18.5220
 2.2560	18.4560
 2.2570	18.3920
 2.2580	18.3280
 2.2590	18.2660
 2.2600	18.2020
 2.2610	18.1340
 2.2620	18.0730
 2.2630	18.0150
 2.2640	17.9520
 2.2650	17.8960
 2.2660	17.8370
 2.2670	17.7770
 2.2680	17.7140
 2.2690	17.6550
 2.2700	17.5970
 2.2710	17.5440
 2.2720	17.4960
 2.2730	17.4480
 2.2740	17.4050
 2.2750	17.3580
 2.2760	17.3120
 2.2770	17.2620
 2.2780	17.2050
 2.2790	17.1570
 2.2800	17.1120
 2.2810	17.0690
 2.2820	17.0340
 2.2830	16.9930
 2.2840	16.9480
 2.2850	16.9050
 2.2860	16.8600
 2.2870	16.8170
 2.2880	16.7740
 2.2890	16.7310
 2.2900	16.6910
 2.2910	16.6460
 2.2920	16.5980
 2.2930	16.5510
 2.2940	16.5020
 2.2950	16.4510
 2.2960	16.3990
 2.2970	16.3480
 2.2980	16.2950
 2.2990	16.2430
 2.3000	16.1940
 2.3010	16.1470
 2.3020	16.0980
 2.3030	16.0470
 2.3040	15.9950
 2.3050	15.9390
 2.3060	15.8850
 2.3070	15.8330
 2.3080	15.7870
 2.3090	15.7510
 2.3100	15.7190
 2.3110	15.6930
 2.3120	15.6630
 2.3130	15.6320
 2.3140	15.6100
 2.3150	15.5870
 2.3160	15.5740
 2.3170	15.5740
 2.3180	15.5650
 2.3190	15.5580
 2.3200	15.5450
 2.3210	15.5310
 2.3220	15.5110
 2.3230	15.4840
 2.3240	15.4590
 2.3250	15.4290
 2.3260	15.4010
 2.3270	15.3740
 2.3280	15.3440
 2.3290	15.3100
 2.3300	15.2760
 2.3310	15.2400
 2.3320	15.2050
 2.3330	15.1690
 2.3340	15.1300
 2.3350	15.0910
 2.3360	15.0470
 2.3370	14.9980
 2.3380	14.9480
 2.3390	14.8920
 2.3400	14.8440
 2.3410	14.8020
 2.3420	14.7580
 2.3430	14.7190
 2.3440	14.6750
 2.3450	14.6230
 2.3460	14.5740
 2.3470	14.5230
 2.3480	14.4790
 2.3490	14.4390
 2.3500	14.4000
 2.3510	14.3650
 2.3520	14.3320
 2.3530	14.2980
 2.3540	14.2650
 2.3550	14.2410
 2.3560	14.2110
 2.3570	14.1790
 2.3580	14.1530
 2.3590	14.1200
 2.3600	14.0860
 2.3610	14.0550
 2.3620	14.0250
 2.3630	13.9950
 2.3640	13.9610
 2.3650	13.9280
 2.3660	13.8930
 2.3670	13.8620
 2.3680	13.8340
 2.3690	13.7900
 2.3700	13.7400
 2.3710	13.6920
 2.3720	13.6390
 2.3730	13.5910
 2.3740	13.5560
 2.3750	13.5240
 2.3760	13.4900
 2.3770	13.4570
 2.3780	13.4180
 2.3790	13.3670
 2.3800	13.3170
 2.3810	13.2740
 2.3820	13.2300
 2.3830	13.1820
 2.3840	13.1330
 2.3850	13.0740
 2.3860	13.0230
 2.3870	12.9840
 2.3880	12.9370
 2.3890	12.8950
 2.3900	12.8580
 2.3910	12.8010
 2.3920	12.7510
 2.3930	12.7150
 2.3940	12.6600
 2.3950	12.6160
 2.3960	12.5790
 2.3970	12.5270
 2.3980	12.4870
 2.3990	12.4440
 2.4000	12.3950
 2.4010	12.3390
 2.4020	12.2850
 2.4030	12.2430
 2.4040	12.1950
 2.4050	12.1620
 2.4060	12.1230
 2.4070	12.0580
 2.4080	11.9970
 2.4090	11.9320
 2.4100	11.8820
 2.4110	11.8460
 2.4120	11.8060
 2.4130	11.7550
 2.4140	11.6830
 2.4150	11.6220
 2.4160	11.5700
 2.4170	11.5210
 2.4180	11.4720
 2.4190	11.4100
 2.4200	11.3450
 2.4210	11.2830
 2.4220	11.2300
 2.4230	11.1810
 2.4240	11.1290
 2.4250	11.0960
 2.4260	11.0610
 2.4270	11.0100
 2.4280	10.9530
 2.4290	10.8780
 2.4300	10.8110
 2.4310	10.7570
 2.4320	10.7150
 2.4330	10.6730
 2.4340	10.6110
 2.4350	10.5410
 2.4360	10.4740
 2.4370	10.4300
 2.4380	10.3870
 2.4390	10.3390
 2.4400	10.3020
 2.4410	10.2370
 2.4420	10.1690
 2.4430	10.1230
 2.4440	10.0660
 2.4450	10.0050
 2.4460	 9.9530
 2.4470	 9.8950
 2.4480	 9.8380
 2.4490	 9.8000
 2.4500	 9.7710
 2.4510	 9.7310
 2.4520	 9.6720
 2.4530	 9.5960
 2.4540	 9.5110
 2.4550	 9.4600
 2.4560	 9.4250
 2.4570	 9.3840
 2.4580	 9.3470
 2.4590	 9.2910
 2.4600	 9.2380
 2.4610	 9.1980
 2.4620	 9.1700
 2.4630	 9.1510
 2.4640	 9.1150
 2.4650	 9.0710
 2.4660	 9.0100
 2.4670	 8.9420
 2.4680	 8.8980
 2.4690	 8.8760
 2.4700	 8.8360
 2.4710	 8.7750
 2.4720	 8.7290
 2.4730	 8.6910
 2.4740	 8.6550
 2.4750	 8.6250
 2.4760	 8.6000
 2.4770	 8.5820
 2.4780	 8.5510
 2.4790	 8.5250
 2.4800	 8.5040
 2.4810	 8.4700
 2.4820	 8.4620
 2.4830	 8.4560
 2.4840	 8.3830
 2.4850	 8.3330
 2.4860	 8.3270
 2.4870	 8.3070
 2.4880	 8.3220
 2.4890	 8.2830
 2.4900	 8.2280
 2.4910	 8.2210
 2.4920	 8.1880
 2.4930	 8.1980
 2.4940	 8.1950
 2.4950	 8.1560
 2.4960	 8.1360
 2.4970	 8.0950
 2.4980	 8.0790
 2.4990	 8.0670
 2.5000	 8.0460
