Name: Salix babylonica
Type: vegetation
Class: Tree
Genus: Salix
Species: babylonica
Sample No.: JPL129
Owner: JPL
Wavelength Range: VSWIR
Origin: 34.12797; -118.11609;; WGS84
Collection Date: 9/7/2016
Description: Samples were collected at the Huntington Garden in San Marino California as part of a JPL Subcontract studying HyTES imagery. Samples were taken to JPL and processed within 48 hours of collection. The same leaves were processed in the Nicolet and then measured using the ASD.
Measurement: Bidirectional reflectance
First Column: X
Second Column: Y
X Units: Wavelength (micrometer)
Y Units: Reflectance (percentage)
First X Value: 0.35
Last X Value: 2.5
Number of X Values: 2151
Additional Information: vegetation.tree.salix.babylonica.vswir.jpl129.jpl.asd.ancillary.txt

 0.3500	 5.8890
 0.3510	 5.7930
 0.3520	 5.8320
 0.3530	 5.8680
 0.3540	 5.7870
 0.3550	 5.7390
 0.3560	 5.7210
 0.3570	 5.7110
 0.3580	 5.6830
 0.3590	 5.6950
 0.3600	 5.6970
 0.3610	 5.6700
 0.3620	 5.6470
 0.3630	 5.6460
 0.3640	 5.6600
 0.3650	 5.6700
 0.3660	 5.6220
 0.3670	 5.5870
 0.3680	 5.5940
 0.3690	 5.6360
 0.3700	 5.6600
 0.3710	 5.6660
 0.3720	 5.6560
 0.3730	 5.6290
 0.3740	 5.6010
 0.3750	 5.5710
 0.3760	 5.5450
 0.3770	 5.5750
 0.3780	 5.5970
 0.3790	 5.6000
 0.3800	 5.6150
 0.3810	 5.5860
 0.3820	 5.5640
 0.3830	 5.5770
 0.3840	 5.5840
 0.3850	 5.5770
 0.3860	 5.5730
 0.3870	 5.5870
 0.3880	 5.5530
 0.3890	 5.5300
 0.3900	 5.5340
 0.3910	 5.5270
 0.3920	 5.5470
 0.3930	 5.5660
 0.3940	 5.5590
 0.3950	 5.5480
 0.3960	 5.5520
 0.3970	 5.5680
 0.3980	 5.5780
 0.3990	 5.5770
 0.4000	 5.5620
 0.4010	 5.5370
 0.4020	 5.5080
 0.4030	 5.5250
 0.4040	 5.5460
 0.4050	 5.5330
 0.4060	 5.5440
 0.4070	 5.5520
 0.4080	 5.5580
 0.4090	 5.5750
 0.4100	 5.5780
 0.4110	 5.5740
 0.4120	 5.5730
 0.4130	 5.5740
 0.4140	 5.5620
 0.4150	 5.5600
 0.4160	 5.5870
 0.4170	 5.5880
 0.4180	 5.5890
 0.4190	 5.5960
 0.4200	 5.5930
 0.4210	 5.5910
 0.4220	 5.5960
 0.4230	 5.6060
 0.4240	 5.6120
 0.4250	 5.6180
 0.4260	 5.6210
 0.4270	 5.6120
 0.4280	 5.6040
 0.4290	 5.6030
 0.4300	 5.6090
 0.4310	 5.6020
 0.4320	 5.5910
 0.4330	 5.5820
 0.4340	 5.5790
 0.4350	 5.5820
 0.4360	 5.5840
 0.4370	 5.5840
 0.4380	 5.5840
 0.4390	 5.5940
 0.4400	 5.6070
 0.4410	 5.6170
 0.4420	 5.6210
 0.4430	 5.6230
 0.4440	 5.6240
 0.4450	 5.6280
 0.4460	 5.6350
 0.4470	 5.6370
 0.4480	 5.6380
 0.4490	 5.6530
 0.4500	 5.6650
 0.4510	 5.6720
 0.4520	 5.6750
 0.4530	 5.6670
 0.4540	 5.6720
 0.4550	 5.6850
 0.4560	 5.6890
 0.4570	 5.6960
 0.4580	 5.6990
 0.4590	 5.6940
 0.4600	 5.6900
 0.4610	 5.6950
 0.4620	 5.7030
 0.4630	 5.7070
 0.4640	 5.7020
 0.4650	 5.7040
 0.4660	 5.7110
 0.4670	 5.7110
 0.4680	 5.7080
 0.4690	 5.7070
 0.4700	 5.7080
 0.4710	 5.7130
 0.4720	 5.7140
 0.4730	 5.7150
 0.4740	 5.7190
 0.4750	 5.7190
 0.4760	 5.7210
 0.4770	 5.7260
 0.4780	 5.7300
 0.4790	 5.7370
 0.4800	 5.7380
 0.4810	 5.7290
 0.4820	 5.7270
 0.4830	 5.7330
 0.4840	 5.7400
 0.4850	 5.7430
 0.4860	 5.7470
 0.4870	 5.7510
 0.4880	 5.7560
 0.4890	 5.7640
 0.4900	 5.7750
 0.4910	 5.7860
 0.4920	 5.8000
 0.4930	 5.8190
 0.4940	 5.8400
 0.4950	 5.8600
 0.4960	 5.8760
 0.4970	 5.8940
 0.4980	 5.9200
 0.4990	 5.9560
 0.5000	 5.9950
 0.5010	 6.0320
 0.5020	 6.0710
 0.5030	 6.1170
 0.5040	 6.1690
 0.5050	 6.2290
 0.5060	 6.2970
 0.5070	 6.3660
 0.5080	 6.4440
 0.5090	 6.5340
 0.5100	 6.6360
 0.5110	 6.7500
 0.5120	 6.8720
 0.5130	 7.0010
 0.5140	 7.1450
 0.5150	 7.3040
 0.5160	 7.4740
 0.5170	 7.6550
 0.5180	 7.8470
 0.5190	 8.0490
 0.5200	 8.2580
 0.5210	 8.4750
 0.5220	 8.6960
 0.5230	 8.9160
 0.5240	 9.1330
 0.5250	 9.3440
 0.5260	 9.5490
 0.5270	 9.7460
 0.5280	 9.9310
 0.5290	10.1030
 0.5300	10.2610
 0.5310	10.4060
 0.5320	10.5390
 0.5330	10.6600
 0.5340	10.7710
 0.5350	10.8680
 0.5360	10.9500
 0.5370	11.0210
 0.5380	11.0870
 0.5390	11.1480
 0.5400	11.2000
 0.5410	11.2500
 0.5420	11.2990
 0.5430	11.3360
 0.5440	11.3710
 0.5450	11.4070
 0.5460	11.4420
 0.5470	11.4710
 0.5480	11.4960
 0.5490	11.5190
 0.5500	11.5390
 0.5510	11.5530
 0.5520	11.5550
 0.5530	11.5460
 0.5540	11.5270
 0.5550	11.4960
 0.5560	11.4490
 0.5570	11.3850
 0.5580	11.3080
 0.5590	11.2220
 0.5600	11.1250
 0.5610	11.0170
 0.5620	10.9000
 0.5630	10.7790
 0.5640	10.6580
 0.5650	10.5340
 0.5660	10.4070
 0.5670	10.2770
 0.5680	10.1470
 0.5690	10.0110
 0.5700	 9.8740
 0.5710	 9.7400
 0.5720	 9.6090
 0.5730	 9.4800
 0.5740	 9.3570
 0.5750	 9.2410
 0.5760	 9.1300
 0.5770	 9.0240
 0.5780	 8.9230
 0.5790	 8.8270
 0.5800	 8.7380
 0.5810	 8.6580
 0.5820	 8.5920
 0.5830	 8.5360
 0.5840	 8.4850
 0.5850	 8.4340
 0.5860	 8.3840
 0.5870	 8.3350
 0.5880	 8.2890
 0.5890	 8.2480
 0.5900	 8.2120
 0.5910	 8.1760
 0.5920	 8.1400
 0.5930	 8.1080
 0.5940	 8.0800
 0.5950	 8.0540
 0.5960	 8.0320
 0.5970	 8.0100
 0.5980	 7.9860
 0.5990	 7.9620
 0.6000	 7.9390
 0.6010	 7.9130
 0.6020	 7.8840
 0.6030	 7.8500
 0.6040	 7.8120
 0.6050	 7.7690
 0.6060	 7.7220
 0.6070	 7.6710
 0.6080	 7.6170
 0.6090	 7.5600
 0.6100	 7.4980
 0.6110	 7.4320
 0.6120	 7.3760
 0.6130	 7.3240
 0.6140	 7.2730
 0.6150	 7.2210
 0.6160	 7.1730
 0.6170	 7.1260
 0.6180	 7.0810
 0.6190	 7.0390
 0.6200	 7.0010
 0.6210	 6.9680
 0.6220	 6.9400
 0.6230	 6.9150
 0.6240	 6.8930
 0.6250	 6.8770
 0.6260	 6.8630
 0.6270	 6.8500
 0.6280	 6.8390
 0.6290	 6.8300
 0.6300	 6.8200
 0.6310	 6.8090
 0.6320	 6.7970
 0.6330	 6.7850
 0.6340	 6.7670
 0.6350	 6.7440
 0.6360	 6.7150
 0.6370	 6.6790
 0.6380	 6.6400
 0.6390	 6.5980
 0.6400	 6.5520
 0.6410	 6.5030
 0.6420	 6.4520
 0.6430	 6.4010
 0.6440	 6.3530
 0.6450	 6.3070
 0.6460	 6.2640
 0.6470	 6.2220
 0.6480	 6.1860
 0.6490	 6.1550
 0.6500	 6.1280
 0.6510	 6.1080
 0.6520	 6.0900
 0.6530	 6.0730
 0.6540	 6.0570
 0.6550	 6.0450
 0.6560	 6.0250
 0.6570	 6.0020
 0.6580	 5.9800
 0.6590	 5.9560
 0.6600	 5.9310
 0.6610	 5.9050
 0.6620	 5.8790
 0.6630	 5.8570
 0.6640	 5.8380
 0.6650	 5.8220
 0.6660	 5.8090
 0.6670	 5.7990
 0.6680	 5.7940
 0.6690	 5.7940
 0.6700	 5.7950
 0.6710	 5.7980
 0.6720	 5.8070
 0.6730	 5.8210
 0.6740	 5.8370
 0.6750	 5.8520
 0.6760	 5.8680
 0.6770	 5.8920
 0.6780	 5.9190
 0.6790	 5.9480
 0.6800	 5.9790
 0.6810	 6.0140
 0.6820	 6.0530
 0.6830	 6.0960
 0.6840	 6.1450
 0.6850	 6.2030
 0.6860	 6.2690
 0.6870	 6.3470
 0.6880	 6.4440
 0.6890	 6.5670
 0.6900	 6.7200
 0.6910	 6.9110
 0.6920	 7.1490
 0.6930	 7.4390
 0.6940	 7.7870
 0.6950	 8.1950
 0.6960	 8.6650
 0.6970	 9.1950
 0.6980	 9.7820
 0.6990	10.4200
 0.7000	11.1040
 0.7010	11.8290
 0.7020	12.5880
 0.7030	13.3730
 0.7040	14.1780
 0.7050	14.9980
 0.7060	15.8330
 0.7070	16.6710
 0.7080	17.5130
 0.7090	18.3610
 0.7100	19.2120
 0.7110	20.0680
 0.7120	20.9260
 0.7130	21.7770
 0.7140	22.6250
 0.7150	23.4700
 0.7160	24.3070
 0.7170	25.1360
 0.7180	25.9530
 0.7190	26.7580
 0.7200	27.5510
 0.7210	28.3270
 0.7220	29.0810
 0.7230	29.8140
 0.7240	30.5230
 0.7250	31.2090
 0.7260	31.8690
 0.7270	32.4990
 0.7280	33.1030
 0.7290	33.6770
 0.7300	34.2210
 0.7310	34.7390
 0.7320	35.2280
 0.7330	35.6900
 0.7340	36.1250
 0.7350	36.5340
 0.7360	36.9170
 0.7370	37.2750
 0.7380	37.6090
 0.7390	37.9190
 0.7400	38.2110
 0.7410	38.4820
 0.7420	38.7320
 0.7430	38.9640
 0.7440	39.1780
 0.7450	39.3720
 0.7460	39.5490
 0.7470	39.7120
 0.7480	39.8630
 0.7490	39.9990
 0.7500	40.1220
 0.7510	40.2340
 0.7520	40.3350
 0.7530	40.4300
 0.7540	40.5150
 0.7550	40.5910
 0.7560	40.6590
 0.7570	40.7210
 0.7580	40.7790
 0.7590	40.8310
 0.7600	40.8770
 0.7610	40.9180
 0.7620	40.9560
 0.7630	40.9910
 0.7640	41.0230
 0.7650	41.0490
 0.7660	41.0730
 0.7670	41.0950
 0.7680	41.1130
 0.7690	41.1310
 0.7700	41.1460
 0.7710	41.1590
 0.7720	41.1740
 0.7730	41.1850
 0.7740	41.1940
 0.7750	41.2020
 0.7760	41.2110
 0.7770	41.2210
 0.7780	41.2300
 0.7790	41.2340
 0.7800	41.2400
 0.7810	41.2450
 0.7820	41.2500
 0.7830	41.2530
 0.7840	41.2550
 0.7850	41.2560
 0.7860	41.2570
 0.7870	41.2570
 0.7880	41.2560
 0.7890	41.2540
 0.7900	41.2520
 0.7910	41.2490
 0.7920	41.2460
 0.7930	41.2410
 0.7940	41.2350
 0.7950	41.2290
 0.7960	41.2200
 0.7970	41.2100
 0.7980	41.2030
 0.7990	41.1940
 0.8000	41.1820
 0.8010	41.1690
 0.8020	41.1570
 0.8030	41.1430
 0.8040	41.1300
 0.8050	41.1170
 0.8060	41.1030
 0.8070	41.0880
 0.8080	41.0730
 0.8090	41.0580
 0.8100	41.0410
 0.8110	41.0240
 0.8120	41.0050
 0.8130	40.9860
 0.8140	40.9670
 0.8150	40.9480
 0.8160	40.9320
 0.8170	40.9110
 0.8180	40.8920
 0.8190	40.8760
 0.8200	40.8570
 0.8210	40.8370
 0.8220	40.8160
 0.8230	40.7970
 0.8240	40.7770
 0.8250	40.7580
 0.8260	40.7380
 0.8270	40.7190
 0.8280	40.7010
 0.8290	40.6800
 0.8300	40.6570
 0.8310	40.6370
 0.8320	40.6190
 0.8330	40.6030
 0.8340	40.5850
 0.8350	40.5650
 0.8360	40.5480
 0.8370	40.5340
 0.8380	40.5210
 0.8390	40.5050
 0.8400	40.4910
 0.8410	40.4800
 0.8420	40.4730
 0.8430	40.4610
 0.8440	40.4480
 0.8450	40.4370
 0.8460	40.4280
 0.8470	40.4210
 0.8480	40.4110
 0.8490	40.4000
 0.8500	40.3930
 0.8510	40.3900
 0.8520	40.3840
 0.8530	40.3770
 0.8540	40.3700
 0.8550	40.3650
 0.8560	40.3620
 0.8570	40.3590
 0.8580	40.3550
 0.8590	40.3530
 0.8600	40.3530
 0.8610	40.3530
 0.8620	40.3540
 0.8630	40.3530
 0.8640	40.3530
 0.8650	40.3570
 0.8660	40.3540
 0.8670	40.3530
 0.8680	40.3550
 0.8690	40.3580
 0.8700	40.3630
 0.8710	40.3660
 0.8720	40.3700
 0.8730	40.3780
 0.8740	40.3830
 0.8750	40.3870
 0.8760	40.3930
 0.8770	40.4020
 0.8780	40.4050
 0.8790	40.4110
 0.8800	40.4210
 0.8810	40.4270
 0.8820	40.4370
 0.8830	40.4450
 0.8840	40.4480
 0.8850	40.4540
 0.8860	40.4600
 0.8870	40.4660
 0.8880	40.4750
 0.8890	40.4840
 0.8900	40.4940
 0.8910	40.5030
 0.8920	40.5080
 0.8930	40.5160
 0.8940	40.5220
 0.8950	40.5280
 0.8960	40.5380
 0.8970	40.5490
 0.8980	40.5550
 0.8990	40.5580
 0.9000	40.5620
 0.9010	40.5670
 0.9020	40.5750
 0.9030	40.5830
 0.9040	40.5910
 0.9050	40.5980
 0.9060	40.6050
 0.9070	40.6140
 0.9080	40.6170
 0.9090	40.6190
 0.9100	40.6200
 0.9110	40.6190
 0.9120	40.6220
 0.9130	40.6260
 0.9140	40.6290
 0.9150	40.6270
 0.9160	40.6250
 0.9170	40.6260
 0.9180	40.6260
 0.9190	40.6190
 0.9200	40.6160
 0.9210	40.6100
 0.9220	40.6020
 0.9230	40.6020
 0.9240	40.5960
 0.9250	40.5860
 0.9260	40.5740
 0.9270	40.5620
 0.9280	40.5430
 0.9290	40.5310
 0.9300	40.5250
 0.9310	40.5030
 0.9320	40.4860
 0.9330	40.4710
 0.9340	40.4530
 0.9350	40.4330
 0.9360	40.4160
 0.9370	40.3950
 0.9380	40.3670
 0.9390	40.3440
 0.9400	40.3230
 0.9410	40.2990
 0.9420	40.2720
 0.9430	40.2490
 0.9440	40.2240
 0.9450	40.1940
 0.9460	40.1580
 0.9470	40.1090
 0.9480	40.0760
 0.9490	40.0450
 0.9500	40.0010
 0.9510	39.9620
 0.9520	39.9150
 0.9530	39.8620
 0.9540	39.8100
 0.9550	39.7650
 0.9560	39.7230
 0.9570	39.6810
 0.9580	39.6350
 0.9590	39.6010
 0.9600	39.5710
 0.9610	39.5400
 0.9620	39.5060
 0.9630	39.4680
 0.9640	39.4450
 0.9650	39.4300
 0.9660	39.4080
 0.9670	39.3870
 0.9680	39.3670
 0.9690	39.3500
 0.9700	39.3350
 0.9710	39.3190
 0.9720	39.3120
 0.9730	39.3090
 0.9740	39.3020
 0.9750	39.2710
 0.9760	39.2580
 0.9770	39.2610
 0.9780	39.2570
 0.9790	39.2390
 0.9800	39.2390
 0.9810	39.2470
 0.9820	39.2400
 0.9830	39.2230
 0.9840	39.2160
 0.9850	39.2210
 0.9860	39.2300
 0.9870	39.2360
 0.9880	39.2330
 0.9890	39.2280
 0.9900	39.2300
 0.9910	39.2260
 0.9920	39.2220
 0.9930	39.2290
 0.9940	39.2460
 0.9950	39.2380
 0.9960	39.2370
 0.9970	39.2530
 0.9980	39.2790
 0.9990	39.2710
 1.0000	39.2750
 1.0010	39.3350
 1.0020	39.3400
 1.0030	39.3410
 1.0040	39.3450
 1.0050	39.3520
 1.0060	39.3610
 1.0070	39.3700
 1.0080	39.3770
 1.0090	39.3810
 1.0100	39.3880
 1.0110	39.3910
 1.0120	39.3990
 1.0130	39.4140
 1.0140	39.4230
 1.0150	39.4310
 1.0160	39.4360
 1.0170	39.4380
 1.0180	39.4430
 1.0190	39.4510
 1.0200	39.4590
 1.0210	39.4660
 1.0220	39.4720
 1.0230	39.4790
 1.0240	39.4860
 1.0250	39.4930
 1.0260	39.5010
 1.0270	39.5070
 1.0280	39.5080
 1.0290	39.5130
 1.0300	39.5190
 1.0310	39.5240
 1.0320	39.5300
 1.0330	39.5380
 1.0340	39.5450
 1.0350	39.5520
 1.0360	39.5600
 1.0370	39.5680
 1.0380	39.5730
 1.0390	39.5760
 1.0400	39.5790
 1.0410	39.5790
 1.0420	39.5830
 1.0430	39.5870
 1.0440	39.5910
 1.0450	39.5970
 1.0460	39.6010
 1.0470	39.6020
 1.0480	39.6040
 1.0490	39.6030
 1.0500	39.6040
 1.0510	39.6060
 1.0520	39.6100
 1.0530	39.6120
 1.0540	39.6150
 1.0550	39.6160
 1.0560	39.6170
 1.0570	39.6190
 1.0580	39.6210
 1.0590	39.6220
 1.0600	39.6240
 1.0610	39.6240
 1.0620	39.6220
 1.0630	39.6230
 1.0640	39.6270
 1.0650	39.6280
 1.0660	39.6280
 1.0670	39.6290
 1.0680	39.6280
 1.0690	39.6230
 1.0700	39.6220
 1.0710	39.6240
 1.0720	39.6240
 1.0730	39.6230
 1.0740	39.6210
 1.0750	39.6180
 1.0760	39.6160
 1.0770	39.6150
 1.0780	39.6120
 1.0790	39.6110
 1.0800	39.6090
 1.0810	39.6040
 1.0820	39.6010
 1.0830	39.5970
 1.0840	39.5930
 1.0850	39.5900
 1.0860	39.5890
 1.0870	39.5850
 1.0880	39.5810
 1.0890	39.5770
 1.0900	39.5700
 1.0910	39.5650
 1.0920	39.5610
 1.0930	39.5570
 1.0940	39.5540
 1.0950	39.5490
 1.0960	39.5440
 1.0970	39.5380
 1.0980	39.5280
 1.0990	39.5210
 1.1000	39.5160
 1.1010	39.5100
 1.1020	39.5040
 1.1030	39.4990
 1.1040	39.4910
 1.1050	39.4830
 1.1060	39.4750
 1.1070	39.4680
 1.1080	39.4590
 1.1090	39.4480
 1.1100	39.4390
 1.1110	39.4300
 1.1120	39.4190
 1.1130	39.4100
 1.1140	39.4000
 1.1150	39.3870
 1.1160	39.3740
 1.1170	39.3610
 1.1180	39.3450
 1.1190	39.3260
 1.1200	39.3080
 1.1210	39.2870
 1.1220	39.2650
 1.1230	39.2420
 1.1240	39.2170
 1.1250	39.1880
 1.1260	39.1590
 1.1270	39.1240
 1.1280	39.0870
 1.1290	39.0450
 1.1300	39.0000
 1.1310	38.9480
 1.1320	38.8920
 1.1330	38.8330
 1.1340	38.7680
 1.1350	38.6990
 1.1360	38.6280
 1.1370	38.5520
 1.1380	38.4710
 1.1390	38.3860
 1.1400	38.2980
 1.1410	38.2090
 1.1420	38.1170
 1.1430	38.0260
 1.1440	37.9350
 1.1450	37.8410
 1.1460	37.7530
 1.1470	37.6650
 1.1480	37.5820
 1.1490	37.5000
 1.1500	37.4240
 1.1510	37.3490
 1.1520	37.2820
 1.1530	37.2210
 1.1540	37.1630
 1.1550	37.1110
 1.1560	37.0610
 1.1570	37.0160
 1.1580	36.9760
 1.1590	36.9410
 1.1600	36.9110
 1.1610	36.8840
 1.1620	36.8610
 1.1630	36.8410
 1.1640	36.8230
 1.1650	36.8070
 1.1660	36.7950
 1.1670	36.7820
 1.1680	36.7720
 1.1690	36.7610
 1.1700	36.7510
 1.1710	36.7420
 1.1720	36.7330
 1.1730	36.7240
 1.1740	36.7150
 1.1750	36.7070
 1.1760	36.6990
 1.1770	36.6900
 1.1780	36.6790
 1.1790	36.6700
 1.1800	36.6600
 1.1810	36.6500
 1.1820	36.6420
 1.1830	36.6310
 1.1840	36.6190
 1.1850	36.6060
 1.1860	36.5930
 1.1870	36.5810
 1.1880	36.5700
 1.1890	36.5610
 1.1900	36.5520
 1.1910	36.5430
 1.1920	36.5350
 1.1930	36.5290
 1.1940	36.5230
 1.1950	36.5180
 1.1960	36.5140
 1.1970	36.5120
 1.1980	36.5090
 1.1990	36.5070
 1.2000	36.5070
 1.2010	36.5060
 1.2020	36.5060
 1.2030	36.5080
 1.2040	36.5110
 1.2050	36.5140
 1.2060	36.5180
 1.2070	36.5230
 1.2080	36.5290
 1.2090	36.5320
 1.2100	36.5390
 1.2110	36.5450
 1.2120	36.5500
 1.2130	36.5580
 1.2140	36.5680
 1.2150	36.5780
 1.2160	36.5870
 1.2170	36.5990
 1.2180	36.6090
 1.2190	36.6200
 1.2200	36.6310
 1.2210	36.6420
 1.2220	36.6530
 1.2230	36.6650
 1.2240	36.6770
 1.2250	36.6880
 1.2260	36.7010
 1.2270	36.7130
 1.2280	36.7220
 1.2290	36.7310
 1.2300	36.7400
 1.2310	36.7480
 1.2320	36.7570
 1.2330	36.7650
 1.2340	36.7730
 1.2350	36.7780
 1.2360	36.7850
 1.2370	36.7930
 1.2380	36.8000
 1.2390	36.8060
 1.2400	36.8120
 1.2410	36.8170
 1.2420	36.8210
 1.2430	36.8260
 1.2440	36.8320
 1.2450	36.8370
 1.2460	36.8430
 1.2470	36.8480
 1.2480	36.8510
 1.2490	36.8540
 1.2500	36.8560
 1.2510	36.8580
 1.2520	36.8600
 1.2530	36.8620
 1.2540	36.8630
 1.2550	36.8630
 1.2560	36.8630
 1.2570	36.8630
 1.2580	36.8610
 1.2590	36.8590
 1.2600	36.8570
 1.2610	36.8530
 1.2620	36.8490
 1.2630	36.8450
 1.2640	36.8410
 1.2650	36.8360
 1.2660	36.8300
 1.2670	36.8230
 1.2680	36.8150
 1.2690	36.8070
 1.2700	36.7980
 1.2710	36.7870
 1.2720	36.7760
 1.2730	36.7660
 1.2740	36.7550
 1.2750	36.7410
 1.2760	36.7290
 1.2770	36.7150
 1.2780	36.7000
 1.2790	36.6850
 1.2800	36.6690
 1.2810	36.6530
 1.2820	36.6340
 1.2830	36.6160
 1.2840	36.5960
 1.2850	36.5740
 1.2860	36.5520
 1.2870	36.5290
 1.2880	36.5030
 1.2890	36.4770
 1.2900	36.4500
 1.2910	36.4200
 1.2920	36.3930
 1.2930	36.3630
 1.2940	36.3310
 1.2950	36.2990
 1.2960	36.2650
 1.2970	36.2310
 1.2980	36.1940
 1.2990	36.1560
 1.3000	36.1160
 1.3010	36.0740
 1.3020	36.0320
 1.3030	35.9900
 1.3040	35.9460
 1.3050	35.9000
 1.3060	35.8530
 1.3070	35.8030
 1.3080	35.7540
 1.3090	35.7020
 1.3100	35.6490
 1.3110	35.5940
 1.3120	35.5350
 1.3130	35.4750
 1.3140	35.4140
 1.3150	35.3490
 1.3160	35.2840
 1.3170	35.2180
 1.3180	35.1490
 1.3190	35.0780
 1.3200	35.0060
 1.3210	34.9300
 1.3220	34.8540
 1.3230	34.7760
 1.3240	34.6960
 1.3250	34.6150
 1.3260	34.5310
 1.3270	34.4460
 1.3280	34.3610
 1.3290	34.2730
 1.3300	34.1830
 1.3310	34.0920
 1.3320	33.9990
 1.3330	33.9080
 1.3340	33.8150
 1.3350	33.7210
 1.3360	33.6250
 1.3370	33.5290
 1.3380	33.4330
 1.3390	33.3380
 1.3400	33.2440
 1.3410	33.1510
 1.3420	33.0570
 1.3430	32.9640
 1.3440	32.8720
 1.3450	32.7790
 1.3460	32.6850
 1.3470	32.5930
 1.3480	32.5010
 1.3490	32.4100
 1.3500	32.3200
 1.3510	32.2310
 1.3520	32.1410
 1.3530	32.0510
 1.3540	31.9610
 1.3550	31.8700
 1.3560	31.7790
 1.3570	31.6860
 1.3580	31.5930
 1.3590	31.4970
 1.3600	31.3990
 1.3610	31.2990
 1.3620	31.1940
 1.3630	31.0860
 1.3640	30.9730
 1.3650	30.8550
 1.3660	30.7320
 1.3670	30.6010
 1.3680	30.4620
 1.3690	30.3140
 1.3700	30.1540
 1.3710	29.9840
 1.3720	29.8020
 1.3730	29.6050
 1.3740	29.3970
 1.3750	29.1750
 1.3760	28.9350
 1.3770	28.6780
 1.3780	28.4000
 1.3790	28.1020
 1.3800	27.7870
 1.3810	27.4490
 1.3820	27.0960
 1.3830	26.7260
 1.3840	26.3380
 1.3850	25.9310
 1.3860	25.5130
 1.3870	25.0770
 1.3880	24.6360
 1.3890	24.1840
 1.3900	23.7230
 1.3910	23.2600
 1.3920	22.7900
 1.3930	22.3160
 1.3940	21.8440
 1.3950	21.3690
 1.3960	20.9000
 1.3970	20.4400
 1.3980	19.9880
 1.3990	19.5540
 1.4000	19.1310
 1.4010	18.7200
 1.4020	18.3280
 1.4030	17.9480
 1.4040	17.5860
 1.4050	17.2440
 1.4060	16.9180
 1.4070	16.6150
 1.4080	16.3290
 1.4090	16.0590
 1.4100	15.8080
 1.4110	15.5720
 1.4120	15.3530
 1.4130	15.1510
 1.4140	14.9630
 1.4150	14.7920
 1.4160	14.6350
 1.4170	14.4890
 1.4180	14.3560
 1.4190	14.2320
 1.4200	14.1170
 1.4210	14.0130
 1.4220	13.9190
 1.4230	13.8340
 1.4240	13.7570
 1.4250	13.6860
 1.4260	13.6230
 1.4270	13.5650
 1.4280	13.5120
 1.4290	13.4660
 1.4300	13.4250
 1.4310	13.3890
 1.4320	13.3590
 1.4330	13.3320
 1.4340	13.3100
 1.4350	13.2900
 1.4360	13.2740
 1.4370	13.2630
 1.4380	13.2540
 1.4390	13.2480
 1.4400	13.2450
 1.4410	13.2440
 1.4420	13.2460
 1.4430	13.2500
 1.4440	13.2560
 1.4450	13.2630
 1.4460	13.2710
 1.4470	13.2820
 1.4480	13.2940
 1.4490	13.3070
 1.4500	13.3220
 1.4510	13.3370
 1.4520	13.3540
 1.4530	13.3720
 1.4540	13.3920
 1.4550	13.4140
 1.4560	13.4380
 1.4570	13.4640
 1.4580	13.4930
 1.4590	13.5240
 1.4600	13.5590
 1.4610	13.5970
 1.4620	13.6390
 1.4630	13.6850
 1.4640	13.7340
 1.4650	13.7880
 1.4660	13.8460
 1.4670	13.9080
 1.4680	13.9750
 1.4690	14.0460
 1.4700	14.1200
 1.4710	14.1990
 1.4720	14.2790
 1.4730	14.3620
 1.4740	14.4490
 1.4750	14.5380
 1.4760	14.6300
 1.4770	14.7250
 1.4780	14.8210
 1.4790	14.9210
 1.4800	15.0200
 1.4810	15.1210
 1.4820	15.2240
 1.4830	15.3260
 1.4840	15.4320
 1.4850	15.5380
 1.4860	15.6440
 1.4870	15.7530
 1.4880	15.8610
 1.4890	15.9700
 1.4900	16.0790
 1.4910	16.1890
 1.4920	16.2990
 1.4930	16.4110
 1.4940	16.5230
 1.4950	16.6350
 1.4960	16.7470
 1.4970	16.8580
 1.4980	16.9700
 1.4990	17.0820
 1.5000	17.1950
 1.5010	17.3080
 1.5020	17.4210
 1.5030	17.5330
 1.5040	17.6450
 1.5050	17.7570
 1.5060	17.8690
 1.5070	17.9810
 1.5080	18.0920
 1.5090	18.2030
 1.5100	18.3140
 1.5110	18.4250
 1.5120	18.5360
 1.5130	18.6440
 1.5140	18.7520
 1.5150	18.8610
 1.5160	18.9680
 1.5170	19.0750
 1.5180	19.1830
 1.5190	19.2890
 1.5200	19.3950
 1.5210	19.4980
 1.5220	19.6010
 1.5230	19.7040
 1.5240	19.8060
 1.5250	19.9090
 1.5260	20.0110
 1.5270	20.1120
 1.5280	20.2120
 1.5290	20.3090
 1.5300	20.4060
 1.5310	20.5010
 1.5320	20.5950
 1.5330	20.6900
 1.5340	20.7840
 1.5350	20.8780
 1.5360	20.9710
 1.5370	21.0610
 1.5380	21.1510
 1.5390	21.2420
 1.5400	21.3300
 1.5410	21.4190
 1.5420	21.5080
 1.5430	21.5940
 1.5440	21.6800
 1.5450	21.7640
 1.5460	21.8470
 1.5470	21.9300
 1.5480	22.0130
 1.5490	22.0950
 1.5500	22.1760
 1.5510	22.2550
 1.5520	22.3350
 1.5530	22.4120
 1.5540	22.4870
 1.5550	22.5640
 1.5560	22.6380
 1.5570	22.7120
 1.5580	22.7850
 1.5590	22.8560
 1.5600	22.9270
 1.5610	22.9970
 1.5620	23.0660
 1.5630	23.1350
 1.5640	23.2020
 1.5650	23.2680
 1.5660	23.3330
 1.5670	23.3970
 1.5680	23.4620
 1.5690	23.5260
 1.5700	23.5890
 1.5710	23.6510
 1.5720	23.7120
 1.5730	23.7730
 1.5740	23.8330
 1.5750	23.8920
 1.5760	23.9520
 1.5770	24.0100
 1.5780	24.0670
 1.5790	24.1250
 1.5800	24.1820
 1.5810	24.2390
 1.5820	24.2950
 1.5830	24.3500
 1.5840	24.4040
 1.5850	24.4580
 1.5860	24.5110
 1.5870	24.5630
 1.5880	24.6150
 1.5890	24.6650
 1.5900	24.7160
 1.5910	24.7660
 1.5920	24.8160
 1.5930	24.8650
 1.5940	24.9120
 1.5950	24.9600
 1.5960	25.0070
 1.5970	25.0540
 1.5980	25.1010
 1.5990	25.1460
 1.6000	25.1910
 1.6010	25.2360
 1.6020	25.2800
 1.6030	25.3230
 1.6040	25.3660
 1.6050	25.4090
 1.6060	25.4520
 1.6070	25.4930
 1.6080	25.5330
 1.6090	25.5720
 1.6100	25.6100
 1.6110	25.6480
 1.6120	25.6860
 1.6130	25.7240
 1.6140	25.7610
 1.6150	25.7970
 1.6160	25.8310
 1.6170	25.8650
 1.6180	25.8980
 1.6190	25.9310
 1.6200	25.9640
 1.6210	25.9960
 1.6220	26.0260
 1.6230	26.0560
 1.6240	26.0850
 1.6250	26.1130
 1.6260	26.1420
 1.6270	26.1720
 1.6280	26.2000
 1.6290	26.2280
 1.6300	26.2540
 1.6310	26.2810
 1.6320	26.3050
 1.6330	26.3300
 1.6340	26.3550
 1.6350	26.3790
 1.6360	26.4030
 1.6370	26.4250
 1.6380	26.4470
 1.6390	26.4680
 1.6400	26.4870
 1.6410	26.5050
 1.6420	26.5220
 1.6430	26.5380
 1.6440	26.5520
 1.6450	26.5660
 1.6460	26.5800
 1.6470	26.5920
 1.6480	26.6030
 1.6490	26.6120
 1.6500	26.6210
 1.6510	26.6270
 1.6520	26.6320
 1.6530	26.6350
 1.6540	26.6370
 1.6550	26.6390
 1.6560	26.6390
 1.6570	26.6390
 1.6580	26.6380
 1.6590	26.6350
 1.6600	26.6310
 1.6610	26.6270
 1.6620	26.6220
 1.6630	26.6170
 1.6640	26.6120
 1.6650	26.6050
 1.6660	26.5990
 1.6670	26.5930
 1.6680	26.5870
 1.6690	26.5820
 1.6700	26.5750
 1.6710	26.5680
 1.6720	26.5610
 1.6730	26.5530
 1.6740	26.5450
 1.6750	26.5370
 1.6760	26.5260
 1.6770	26.5150
 1.6780	26.5030
 1.6790	26.4880
 1.6800	26.4730
 1.6810	26.4570
 1.6820	26.4400
 1.6830	26.4230
 1.6840	26.4030
 1.6850	26.3830
 1.6860	26.3610
 1.6870	26.3370
 1.6880	26.3120
 1.6890	26.2870
 1.6900	26.2620
 1.6910	26.2390
 1.6920	26.2140
 1.6930	26.1870
 1.6940	26.1600
 1.6950	26.1310
 1.6960	26.1030
 1.6970	26.0750
 1.6980	26.0460
 1.6990	26.0150
 1.7000	25.9850
 1.7010	25.9520
 1.7020	25.9200
 1.7030	25.8890
 1.7040	25.8560
 1.7050	25.8220
 1.7060	25.7880
 1.7070	25.7520
 1.7080	25.7170
 1.7090	25.6820
 1.7100	25.6460
 1.7110	25.6090
 1.7120	25.5720
 1.7130	25.5340
 1.7140	25.4980
 1.7150	25.4610
 1.7160	25.4210
 1.7170	25.3810
 1.7180	25.3400
 1.7190	25.2990
 1.7200	25.2600
 1.7210	25.2200
 1.7220	25.1770
 1.7230	25.1340
 1.7240	25.0890
 1.7250	25.0430
 1.7260	24.9980
 1.7270	24.9540
 1.7280	24.9120
 1.7290	24.8700
 1.7300	24.8290
 1.7310	24.7890
 1.7320	24.7490
 1.7330	24.7110
 1.7340	24.6750
 1.7350	24.6370
 1.7360	24.6020
 1.7370	24.5630
 1.7380	24.5240
 1.7390	24.4830
 1.7400	24.4410
 1.7410	24.3970
 1.7420	24.3530
 1.7430	24.3070
 1.7440	24.2600
 1.7450	24.2110
 1.7460	24.1620
 1.7470	24.1110
 1.7480	24.0570
 1.7490	24.0050
 1.7500	23.9520
 1.7510	23.8990
 1.7520	23.8470
 1.7530	23.7940
 1.7540	23.7390
 1.7550	23.6840
 1.7560	23.6300
 1.7570	23.5760
 1.7580	23.5240
 1.7590	23.4720
 1.7600	23.4210
 1.7610	23.3690
 1.7620	23.3200
 1.7630	23.2710
 1.7640	23.2240
 1.7650	23.1800
 1.7660	23.1360
 1.7670	23.0930
 1.7680	23.0520
 1.7690	23.0110
 1.7700	22.9720
 1.7710	22.9340
 1.7720	22.8980
 1.7730	22.8620
 1.7740	22.8280
 1.7750	22.7950
 1.7760	22.7640
 1.7770	22.7340
 1.7780	22.7050
 1.7790	22.6760
 1.7800	22.6490
 1.7810	22.6230
 1.7820	22.5990
 1.7830	22.5770
 1.7840	22.5560
 1.7850	22.5360
 1.7860	22.5180
 1.7870	22.5010
 1.7880	22.4850
 1.7890	22.4720
 1.7900	22.4590
 1.7910	22.4480
 1.7920	22.4380
 1.7930	22.4290
 1.7940	22.4230
 1.7950	22.4160
 1.7960	22.4090
 1.7970	22.4040
 1.7980	22.4000
 1.7990	22.3970
 1.8000	22.3950
 1.8010	22.3940
 1.8020	22.3930
 1.8030	22.3920
 1.8040	22.3920
 1.8050	22.3920
 1.8060	22.3920
 1.8070	22.3910
 1.8080	22.3910
 1.8090	22.3910
 1.8100	22.3900
 1.8110	22.3900
 1.8120	22.3890
 1.8130	22.3870
 1.8140	22.3840
 1.8150	22.3790
 1.8160	22.3720
 1.8170	22.3660
 1.8180	22.3580
 1.8190	22.3540
 1.8200	22.3470
 1.8210	22.3400
 1.8220	22.3300
 1.8230	22.3160
 1.8240	22.3040
 1.8250	22.2920
 1.8260	22.2780
 1.8270	22.2630
 1.8280	22.2460
 1.8290	22.2250
 1.8300	22.2020
 1.8310	22.2550
 1.8320	22.2260
 1.8330	22.1930
 1.8340	22.1590
 1.8350	22.1210
 1.8360	22.0810
 1.8370	22.0390
 1.8380	21.9940
 1.8390	21.9440
 1.8400	21.8900
 1.8410	21.8320
 1.8420	21.7700
 1.8430	21.7020
 1.8440	21.6250
 1.8450	21.5430
 1.8460	21.4530
 1.8470	21.3560
 1.8480	21.2540
 1.8490	21.1450
 1.8500	21.0260
 1.8510	20.9000
 1.8520	20.7650
 1.8530	20.6180
 1.8540	20.4620
 1.8550	20.2960
 1.8560	20.1170
 1.8570	19.9270
 1.8580	19.7240
 1.8590	19.5110
 1.8600	19.2860
 1.8610	19.0490
 1.8620	18.7970
 1.8630	18.5340
 1.8640	18.2570
 1.8650	17.9620
 1.8660	17.6560
 1.8670	17.3330
 1.8680	16.9940
 1.8690	16.6380
 1.8700	16.2680
 1.8710	15.8820
 1.8720	15.4870
 1.8730	15.0840
 1.8740	14.6730
 1.8750	14.2560
 1.8760	13.8320
 1.8770	13.4090
 1.8780	12.9880
 1.8790	12.5660
 1.8800	12.1530
 1.8810	11.7450
 1.8820	11.3400
 1.8830	10.9370
 1.8840	10.5450
 1.8850	10.1590
 1.8860	 9.7820
 1.8870	 9.4200
 1.8880	 9.0710
 1.8890	 8.7420
 1.8900	 8.4310
 1.8910	 8.1370
 1.8920	 7.8580
 1.8930	 7.6020
 1.8940	 7.3620
 1.8950	 7.1420
 1.8960	 6.9400
 1.8970	 6.7550
 1.8980	 6.5890
 1.8990	 6.4370
 1.9000	 6.3000
 1.9010	 6.1810
 1.9020	 6.0700
 1.9030	 5.9730
 1.9040	 5.8860
 1.9050	 5.8100
 1.9060	 5.7430
 1.9070	 5.6860
 1.9080	 5.6360
 1.9090	 5.5920
 1.9100	 5.5540
 1.9110	 5.5190
 1.9120	 5.4890
 1.9130	 5.4620
 1.9140	 5.4400
 1.9150	 5.4200
 1.9160	 5.4020
 1.9170	 5.3880
 1.9180	 5.3750
 1.9190	 5.3640
 1.9200	 5.3550
 1.9210	 5.3490
 1.9220	 5.3440
 1.9230	 5.3410
 1.9240	 5.3390
 1.9250	 5.3390
 1.9260	 5.3380
 1.9270	 5.3400
 1.9280	 5.3430
 1.9290	 5.3460
 1.9300	 5.3500
 1.9310	 5.3550
 1.9320	 5.3620
 1.9330	 5.3700
 1.9340	 5.3790
 1.9350	 5.3870
 1.9360	 5.3960
 1.9370	 5.4070
 1.9380	 5.4190
 1.9390	 5.4320
 1.9400	 5.4460
 1.9410	 5.4610
 1.9420	 5.4760
 1.9430	 5.4910
 1.9440	 5.5070
 1.9450	 5.5240
 1.9460	 5.5420
 1.9470	 5.5620
 1.9480	 5.5820
 1.9490	 5.6020
 1.9500	 5.6230
 1.9510	 5.6450
 1.9520	 5.6670
 1.9530	 5.6910
 1.9540	 5.7150
 1.9550	 5.7400
 1.9560	 5.7670
 1.9570	 5.7930
 1.9580	 5.8200
 1.9590	 5.8470
 1.9600	 5.8740
 1.9610	 5.9030
 1.9620	 5.9330
 1.9630	 5.9630
 1.9640	 5.9950
 1.9650	 6.0270
 1.9660	 6.0590
 1.9670	 6.0920
 1.9680	 6.1250
 1.9690	 6.1600
 1.9700	 6.1960
 1.9710	 6.2310
 1.9720	 6.2670
 1.9730	 6.3040
 1.9740	 6.3420
 1.9750	 6.3810
 1.9760	 6.4220
 1.9770	 6.4630
 1.9780	 6.5040
 1.9790	 6.5460
 1.9800	 6.5870
 1.9810	 6.6290
 1.9820	 6.6720
 1.9830	 6.7160
 1.9840	 6.7630
 1.9850	 6.8090
 1.9860	 6.8550
 1.9870	 6.9030
 1.9880	 6.9510
 1.9890	 6.9980
 1.9900	 7.0450
 1.9910	 7.0940
 1.9920	 7.1430
 1.9930	 7.1920
 1.9940	 7.2410
 1.9950	 7.2920
 1.9960	 7.3430
 1.9970	 7.3940
 1.9980	 7.4460
 1.9990	 7.4990
 2.0000	 7.5520
 2.0010	 7.6020
 2.0020	 7.6540
 2.0030	 7.7050
 2.0040	 7.7560
 2.0050	 7.8090
 2.0060	 7.8630
 2.0070	 7.9170
 2.0080	 7.9700
 2.0090	 8.0240
 2.0100	 8.0770
 2.0110	 8.1310
 2.0120	 8.1860
 2.0130	 8.2400
 2.0140	 8.2920
 2.0150	 8.3450
 2.0160	 8.3990
 2.0170	 8.4520
 2.0180	 8.5040
 2.0190	 8.5580
 2.0200	 8.6100
 2.0210	 8.6600
 2.0220	 8.7110
 2.0230	 8.7610
 2.0240	 8.8130
 2.0250	 8.8650
 2.0260	 8.9160
 2.0270	 8.9660
 2.0280	 9.0170
 2.0290	 9.0660
 2.0300	 9.1130
 2.0310	 9.1610
 2.0320	 9.2100
 2.0330	 9.2570
 2.0340	 9.3050
 2.0350	 9.3520
 2.0360	 9.3970
 2.0370	 9.4420
 2.0380	 9.4870
 2.0390	 9.5320
 2.0400	 9.5770
 2.0410	 9.6220
 2.0420	 9.6670
 2.0430	 9.7100
 2.0440	 9.7540
 2.0450	 9.7970
 2.0460	 9.8380
 2.0470	 9.8780
 2.0480	 9.9200
 2.0490	 9.9620
 2.0500	10.0040
 2.0510	10.0480
 2.0520	10.0900
 2.0530	10.1300
 2.0540	10.1720
 2.0550	10.2150
 2.0560	10.2590
 2.0570	10.3020
 2.0580	10.3460
 2.0590	10.3900
 2.0600	10.4330
 2.0610	10.4780
 2.0620	10.5240
 2.0630	10.5700
 2.0640	10.6150
 2.0650	10.6590
 2.0660	10.7020
 2.0670	10.7460
 2.0680	10.7900
 2.0690	10.8340
 2.0700	10.8790
 2.0710	10.9240
 2.0720	10.9690
 2.0730	11.0130
 2.0740	11.0570
 2.0750	11.1020
 2.0760	11.1470
 2.0770	11.1920
 2.0780	11.2370
 2.0790	11.2830
 2.0800	11.3270
 2.0810	11.3710
 2.0820	11.4140
 2.0830	11.4550
 2.0840	11.4970
 2.0850	11.5380
 2.0860	11.5790
 2.0870	11.6210
 2.0880	11.6650
 2.0890	11.7070
 2.0900	11.7490
 2.0910	11.7910
 2.0920	11.8320
 2.0930	11.8730
 2.0940	11.9140
 2.0950	11.9550
 2.0960	11.9950
 2.0970	12.0350
 2.0980	12.0770
 2.0990	12.1180
 2.1000	12.1600
 2.1010	12.2010
 2.1020	12.2430
 2.1030	12.2830
 2.1040	12.3210
 2.1050	12.3610
 2.1060	12.4000
 2.1070	12.4400
 2.1080	12.4790
 2.1090	12.5180
 2.1100	12.5560
 2.1110	12.5930
 2.1120	12.6310
 2.1130	12.6680
 2.1140	12.7060
 2.1150	12.7440
 2.1160	12.7820
 2.1170	12.8210
 2.1180	12.8580
 2.1190	12.8950
 2.1200	12.9310
 2.1210	12.9650
 2.1220	12.9990
 2.1230	13.0330
 2.1240	13.0670
 2.1250	13.0980
 2.1260	13.1290
 2.1270	13.1590
 2.1280	13.1890
 2.1290	13.2190
 2.1300	13.2500
 2.1310	13.2790
 2.1320	13.3070
 2.1330	13.3350
 2.1340	13.3620
 2.1350	13.3900
 2.1360	13.4180
 2.1370	13.4440
 2.1380	13.4690
 2.1390	13.4940
 2.1400	13.5180
 2.1410	13.5410
 2.1420	13.5640
 2.1430	13.5860
 2.1440	13.6100
 2.1450	13.6340
 2.1460	13.6570
 2.1470	13.6810
 2.1480	13.7040
 2.1490	13.7270
 2.1500	13.7490
 2.1510	13.7710
 2.1520	13.7910
 2.1530	13.8090
 2.1540	13.8280
 2.1550	13.8460
 2.1560	13.8650
 2.1570	13.8840
 2.1580	13.9020
 2.1590	13.9220
 2.1600	13.9420
 2.1610	13.9610
 2.1620	13.9780
 2.1630	13.9960
 2.1640	14.0130
 2.1650	14.0300
 2.1660	14.0470
 2.1670	14.0640
 2.1680	14.0800
 2.1690	14.0940
 2.1700	14.1060
 2.1710	14.1200
 2.1720	14.1330
 2.1730	14.1490
 2.1740	14.1690
 2.1750	14.1860
 2.1760	14.2010
 2.1770	14.2180
 2.1780	14.2340
 2.1790	14.2490
 2.1800	14.2660
 2.1810	14.2830
 2.1820	14.2990
 2.1830	14.3140
 2.1840	14.3310
 2.1850	14.3490
 2.1860	14.3670
 2.1870	14.3860
 2.1880	14.4030
 2.1890	14.4210
 2.1900	14.4360
 2.1910	14.4490
 2.1920	14.4650
 2.1930	14.4820
 2.1940	14.4970
 2.1950	14.5140
 2.1960	14.5300
 2.1970	14.5450
 2.1980	14.5600
 2.1990	14.5740
 2.2000	14.5870
 2.2010	14.5980
 2.2020	14.6090
 2.2030	14.6190
 2.2040	14.6290
 2.2050	14.6390
 2.2060	14.6480
 2.2070	14.6560
 2.2080	14.6640
 2.2090	14.6720
 2.2100	14.6790
 2.2110	14.6860
 2.2120	14.6940
 2.2130	14.6990
 2.2140	14.7040
 2.2150	14.7080
 2.2160	14.7100
 2.2170	14.7110
 2.2180	14.7110
 2.2190	14.7100
 2.2200	14.7100
 2.2210	14.7090
 2.2220	14.7080
 2.2230	14.7040
 2.2240	14.6970
 2.2250	14.6900
 2.2260	14.6810
 2.2270	14.6710
 2.2280	14.6590
 2.2290	14.6470
 2.2300	14.6330
 2.2310	14.6180
 2.2320	14.6030
 2.2330	14.5860
 2.2340	14.5680
 2.2350	14.5480
 2.2360	14.5240
 2.2370	14.4990
 2.2380	14.4710
 2.2390	14.4400
 2.2400	14.4080
 2.2410	14.3730
 2.2420	14.3390
 2.2430	14.3050
 2.2440	14.2690
 2.2450	14.2330
 2.2460	14.1960
 2.2470	14.1550
 2.2480	14.1150
 2.2490	14.0750
 2.2500	14.0330
 2.2510	13.9900
 2.2520	13.9470
 2.2530	13.9030
 2.2540	13.8580
 2.2550	13.8140
 2.2560	13.7680
 2.2570	13.7190
 2.2580	13.6710
 2.2590	13.6230
 2.2600	13.5750
 2.2610	13.5270
 2.2620	13.4800
 2.2630	13.4330
 2.2640	13.3870
 2.2650	13.3410
 2.2660	13.2940
 2.2670	13.2480
 2.2680	13.2010
 2.2690	13.1550
 2.2700	13.1100
 2.2710	13.0660
 2.2720	13.0230
 2.2730	12.9810
 2.2740	12.9410
 2.2750	12.9010
 2.2760	12.8620
 2.2770	12.8220
 2.2780	12.7810
 2.2790	12.7410
 2.2800	12.6990
 2.2810	12.6610
 2.2820	12.6270
 2.2830	12.5880
 2.2840	12.5470
 2.2850	12.5070
 2.2860	12.4640
 2.2870	12.4240
 2.2880	12.3870
 2.2890	12.3480
 2.2900	12.3090
 2.2910	12.2680
 2.2920	12.2260
 2.2930	12.1840
 2.2940	12.1420
 2.2950	12.0990
 2.2960	12.0570
 2.2970	12.0150
 2.2980	11.9720
 2.2990	11.9290
 2.3000	11.8840
 2.3010	11.8400
 2.3020	11.7960
 2.3030	11.7510
 2.3040	11.7060
 2.3050	11.6640
 2.3060	11.6240
 2.3070	11.5850
 2.3080	11.5490
 2.3090	11.5150
 2.3100	11.4780
 2.3110	11.4440
 2.3120	11.4140
 2.3130	11.3870
 2.3140	11.3620
 2.3150	11.3440
 2.3160	11.3210
 2.3170	11.2960
 2.3180	11.2720
 2.3190	11.2460
 2.3200	11.2210
 2.3210	11.1970
 2.3220	11.1710
 2.3230	11.1450
 2.3240	11.1190
 2.3250	11.0940
 2.3260	11.0640
 2.3270	11.0310
 2.3280	10.9980
 2.3290	10.9590
 2.3300	10.9230
 2.3310	10.8890
 2.3320	10.8530
 2.3330	10.8170
 2.3340	10.7780
 2.3350	10.7370
 2.3360	10.6950
 2.3370	10.6500
 2.3380	10.6090
 2.3390	10.5690
 2.3400	10.5290
 2.3410	10.4910
 2.3420	10.4520
 2.3430	10.4120
 2.3440	10.3720
 2.3450	10.3310
 2.3460	10.2920
 2.3470	10.2500
 2.3480	10.2120
 2.3490	10.1770
 2.3500	10.1430
 2.3510	10.1110
 2.3520	10.0790
 2.3530	10.0490
 2.3540	10.0160
 2.3550	 9.9830
 2.3560	 9.9520
 2.3570	 9.9190
 2.3580	 9.8870
 2.3590	 9.8540
 2.3600	 9.8240
 2.3610	 9.7970
 2.3620	 9.7680
 2.3630	 9.7380
 2.3640	 9.7070
 2.3650	 9.6730
 2.3660	 9.6360
 2.3670	 9.6000
 2.3680	 9.5630
 2.3690	 9.5250
 2.3700	 9.4880
 2.3710	 9.4530
 2.3720	 9.4190
 2.3730	 9.3850
 2.3740	 9.3550
 2.3750	 9.3250
 2.3760	 9.2950
 2.3770	 9.2650
 2.3780	 9.2280
 2.3790	 9.1910
 2.3800	 9.1490
 2.3810	 9.1050
 2.3820	 9.0680
 2.3830	 9.0330
 2.3840	 8.9970
 2.3850	 8.9640
 2.3860	 8.9260
 2.3870	 8.8880
 2.3880	 8.8520
 2.3890	 8.8160
 2.3900	 8.7860
 2.3910	 8.7540
 2.3920	 8.7220
 2.3930	 8.6900
 2.3940	 8.6490
 2.3950	 8.6090
 2.3960	 8.5720
 2.3970	 8.5320
 2.3980	 8.4960
 2.3990	 8.4620
 2.4000	 8.4220
 2.4010	 8.3890
 2.4020	 8.3580
 2.4030	 8.3240
 2.4040	 8.2950
 2.4050	 8.2530
 2.4060	 8.2160
 2.4070	 8.1870
 2.4080	 8.1500
 2.4090	 8.1220
 2.4100	 8.0890
 2.4110	 8.0490
 2.4120	 8.0140
 2.4130	 7.9740
 2.4140	 7.9370
 2.4150	 7.9010
 2.4160	 7.8620
 2.4170	 7.8260
 2.4180	 7.7890
 2.4190	 7.7510
 2.4200	 7.7180
 2.4210	 7.6860
 2.4220	 7.6550
 2.4230	 7.6230
 2.4240	 7.5870
 2.4250	 7.5580
 2.4260	 7.5270
 2.4270	 7.4930
 2.4280	 7.4630
 2.4290	 7.4240
 2.4300	 7.3840
 2.4310	 7.3500
 2.4320	 7.3150
 2.4330	 7.2830
 2.4340	 7.2560
 2.4350	 7.2270
 2.4360	 7.2000
 2.4370	 7.1690
 2.4380	 7.1370
 2.4390	 7.1080
 2.4400	 7.0710
 2.4410	 7.0430
 2.4420	 7.0090
 2.4430	 6.9690
 2.4440	 6.9440
 2.4450	 6.9040
 2.4460	 6.8710
 2.4470	 6.8460
 2.4480	 6.8120
 2.4490	 6.7900
 2.4500	 6.7710
 2.4510	 6.7490
 2.4520	 6.7260
 2.4530	 6.6940
 2.4540	 6.6590
 2.4550	 6.6190
 2.4560	 6.5830
 2.4570	 6.5580
 2.4580	 6.5410
 2.4590	 6.5280
 2.4600	 6.5140
 2.4610	 6.4920
 2.4620	 6.4540
 2.4630	 6.4160
 2.4640	 6.3830
 2.4650	 6.3580
 2.4660	 6.3490
 2.4670	 6.3340
 2.4680	 6.3160
 2.4690	 6.2860
 2.4700	 6.2650
 2.4710	 6.2500
 2.4720	 6.2360
 2.4730	 6.2360
 2.4740	 6.2230
 2.4750	 6.1910
 2.4760	 6.1710
 2.4770	 6.1480
 2.4780	 6.1260
 2.4790	 6.1180
 2.4800	 6.1040
 2.4810	 6.0790
 2.4820	 6.0680
 2.4830	 6.0600
 2.4840	 6.0440
 2.4850	 6.0260
 2.4860	 6.0200
 2.4870	 6.0020
 2.4880	 5.9840
 2.4890	 5.9850
 2.4900	 5.9770
 2.4910	 5.9610
 2.4920	 5.9390
 2.4930	 5.9150
 2.4940	 5.9010
 2.4950	 5.8810
 2.4960	 5.8760
 2.4970	 5.8560
 2.4980	 5.8210
 2.4990	 5.8190
 2.5000	 5.8210
