Name: Olea africana
Type: vegetation
Class: Tree
Genus: Olea
Species: africana
Sample No.: JPL226
Owner: JPL
Wavelength Range: TIR
Origin: 34.12663; -118.11491; WGS84
Collection Date: 10/3/2016
Description: Samples were collected at the Huntington Garden in San Marino California as part of a JPL Subcontract studying HyTES imagery. Samples were taken to JPL and processed within 48 hours of collection. The same leaves were processed in the Nicolet and then measured using the ASD.
Measurement: Hemispherical reflectance
First Column: X
Second Column: Y
X Units: Wavelength (micrometer)
Y Units: Reflectance (percentage)
First X Value: 2.501
Last X Value: 15.387
Number of X Values: 1737
Additional Information: vegetation.tree.olea.africana.tir.jpl226.jpl.nicolet.ancillary.txt

 2.5010	 6.4240
 2.5030	 6.3920
 2.5040	 6.4240
 2.5050	 6.4010
 2.5060	 6.4590
 2.5070	 6.4520
 2.5090	 6.4800
 2.5100	 6.4650
 2.5110	 6.4370
 2.5120	 6.4000
 2.5140	 6.4580
 2.5150	 6.4180
 2.5160	 6.3880
 2.5170	 6.3640
 2.5180	 6.4170
 2.5200	 6.4150
 2.5210	 6.4100
 2.5220	 6.3820
 2.5230	 6.4060
 2.5250	 6.3840
 2.5260	 6.3780
 2.5270	 6.3060
 2.5280	 6.3360
 2.5300	 6.3800
 2.5310	 6.4430
 2.5320	 6.4620
 2.5330	 6.4410
 2.5340	 6.3680
 2.5360	 6.3910
 2.5370	 6.3990
 2.5380	 6.4320
 2.5390	 6.3800
 2.5410	 6.3890
 2.5420	 6.3820
 2.5430	 6.4010
 2.5440	 6.3220
 2.5460	 6.3920
 2.5470	 6.4430
 2.5480	 6.4310
 2.5490	 6.3580
 2.5510	 6.3730
 2.5520	 6.3770
 2.5530	 6.4200
 2.5540	 6.4290
 2.5560	 6.4490
 2.5570	 6.4040
 2.5580	 6.4420
 2.5590	 6.4330
 2.5610	 6.4840
 2.5620	 6.4730
 2.5630	 6.4550
 2.5650	 6.4210
 2.5660	 6.4390
 2.5670	 6.4130
 2.5680	 6.4300
 2.5700	 6.3910
 2.5710	 6.4230
 2.5720	 6.4740
 2.5730	 6.4430
 2.5750	 6.4060
 2.5760	 6.4290
 2.5770	 6.4100
 2.5790	 6.4120
 2.5800	 6.3410
 2.5810	 6.3550
 2.5820	 6.3960
 2.5840	 6.4050
 2.5850	 6.3360
 2.5860	 6.3850
 2.5880	 6.4000
 2.5890	 6.4360
 2.5900	 6.3930
 2.5910	 6.4210
 2.5930	 6.3390
 2.5940	 6.2270
 2.5950	 6.2250
 2.5970	 6.3730
 2.5980	 6.3820
 2.5990	 6.3600
 2.6010	 6.3030
 2.6020	 6.3430
 2.6030	 6.3600
 2.6040	 6.3260
 2.6060	 6.2400
 2.6070	 6.2780
 2.6080	 6.2510
 2.6100	 6.2600
 2.6110	 6.2530
 2.6120	 6.2360
 2.6140	 6.2050
 2.6150	 6.2630
 2.6160	 6.2400
 2.6180	 6.2540
 2.6190	 6.2150
 2.6200	 6.1830
 2.6220	 6.1700
 2.6230	 6.2120
 2.6240	 6.1860
 2.6260	 6.1650
 2.6270	 6.0840
 2.6280	 6.0970
 2.6300	 5.9930
 2.6310	 5.9770
 2.6320	 6.0550
 2.6340	 6.0820
 2.6350	 6.0680
 2.6360	 6.1060
 2.6380	 6.0340
 2.6390	 6.0290
 2.6400	 6.0590
 2.6420	 6.0720
 2.6430	 6.0520
 2.6440	 6.0500
 2.6460	 5.9590
 2.6470	 6.0160
 2.6480	 6.0370
 2.6500	 5.9490
 2.6510	 5.8690
 2.6520	 5.9060
 2.6540	 5.9230
 2.6550	 5.9880
 2.6570	 5.9700
 2.6580	 5.9390
 2.6590	 5.8790
 2.6610	 5.8860
 2.6620	 5.8470
 2.6630	 5.8580
 2.6650	 5.7880
 2.6660	 5.8100
 2.6670	 5.8290
 2.6690	 5.8780
 2.6700	 5.8470
 2.6720	 5.8460
 2.6730	 5.8910
 2.6740	 5.9270
 2.6760	 5.8400
 2.6770	 5.8530
 2.6780	 5.8290
 2.6800	 5.8620
 2.6810	 5.8720
 2.6830	 5.8620
 2.6840	 5.8070
 2.6850	 5.8250
 2.6870	 5.8050
 2.6880	 5.8230
 2.6900	 5.8100
 2.6910	 5.8460
 2.6920	 5.8000
 2.6940	 5.7690
 2.6950	 5.7160
 2.6970	 5.7100
 2.6980	 5.6950
 2.6990	 5.7560
 2.7010	 5.7500
 2.7020	 5.8110
 2.7040	 5.7870
 2.7050	 5.7700
 2.7060	 5.7340
 2.7080	 5.7300
 2.7090	 5.7090
 2.7110	 5.6920
 2.7120	 5.6330
 2.7130	 5.6780
 2.7150	 5.6660
 2.7160	 5.6770
 2.7180	 5.6620
 2.7190	 5.6860
 2.7210	 5.6340
 2.7220	 5.6320
 2.7230	 5.5740
 2.7250	 5.6330
 2.7260	 5.6350
 2.7280	 5.6060
 2.7290	 5.5710
 2.7310	 5.5730
 2.7320	 5.5460
 2.7340	 5.5380
 2.7350	 5.5360
 2.7360	 5.5550
 2.7380	 5.4960
 2.7390	 5.4850
 2.7410	 5.4950
 2.7420	 5.5750
 2.7440	 5.5150
 2.7450	 5.4600
 2.7470	 5.4120
 2.7480	 5.4290
 2.7490	 5.4610
 2.7510	 5.4420
 2.7520	 5.4300
 2.7540	 5.4990
 2.7550	 5.4200
 2.7570	 5.3820
 2.7580	 5.3260
 2.7600	 5.4080
 2.7610	 5.3630
 2.7630	 5.3420
 2.7640	 5.3360
 2.7660	 5.4070
 2.7670	 5.3880
 2.7690	 5.3330
 2.7700	 5.2800
 2.7720	 5.3340
 2.7730	 5.2620
 2.7740	 5.2590
 2.7760	 5.3280
 2.7770	 5.3930
 2.7790	 5.3870
 2.7800	 5.3890
 2.7820	 5.3210
 2.7830	 5.3270
 2.7850	 5.3340
 2.7860	 5.3340
 2.7880	 5.2520
 2.7890	 5.2700
 2.7910	 5.2180
 2.7920	 5.2340
 2.7940	 5.2080
 2.7950	 5.2060
 2.7970	 5.1660
 2.7980	 5.1580
 2.8000	 5.1500
 2.8010	 5.1350
 2.8030	 5.0860
 2.8040	 5.1830
 2.8060	 5.1890
 2.8080	 5.1760
 2.8090	 5.1160
 2.8110	 5.1770
 2.8120	 5.1760
 2.8140	 5.1730
 2.8150	 5.0990
 2.8170	 5.0850
 2.8180	 5.0150
 2.8200	 5.0660
 2.8210	 5.0970
 2.8230	 5.1270
 2.8240	 5.1270
 2.8260	 5.1170
 2.8270	 5.0530
 2.8290	 5.1490
 2.8310	 5.1280
 2.8320	 5.0760
 2.8340	 5.0300
 2.8350	 5.0530
 2.8370	 5.0290
 2.8380	 5.0460
 2.8400	 4.9960
 2.8410	 5.0420
 2.8430	 5.0940
 2.8440	 5.1480
 2.8460	 5.1080
 2.8480	 5.1250
 2.8490	 5.1030
 2.8510	 5.0940
 2.8520	 5.0210
 2.8540	 5.0190
 2.8550	 5.0220
 2.8570	 4.9970
 2.8590	 4.9720
 2.8600	 4.9920
 2.8620	 4.9850
 2.8630	 5.0500
 2.8650	 5.0590
 2.8660	 5.0300
 2.8680	 5.0130
 2.8700	 5.0800
 2.8710	 5.0040
 2.8730	 4.9800
 2.8740	 4.9880
 2.8760	 5.0040
 2.8780	 4.9540
 2.8790	 4.9550
 2.8810	 4.9170
 2.8820	 4.9530
 2.8840	 4.9250
 2.8860	 4.9230
 2.8870	 4.9580
 2.8890	 4.9360
 2.8900	 4.8410
 2.8920	 4.8690
 2.8940	 4.9570
 2.8950	 5.1030
 2.8970	 5.0850
 2.8990	 5.0770
 2.9000	 5.0190
 2.9020	 5.0070
 2.9030	 4.9270
 2.9050	 4.9170
 2.9070	 4.9330
 2.9080	 4.9930
 2.9100	 5.0200
 2.9120	 5.0570
 2.9130	 5.0010
 2.9150	 5.0720
 2.9160	 5.0840
 2.9180	 5.0240
 2.9200	 4.9600
 2.9210	 4.9750
 2.9230	 4.9380
 2.9250	 5.0290
 2.9260	 4.9950
 2.9280	 5.0010
 2.9300	 5.0430
 2.9310	 5.0770
 2.9330	 4.9750
 2.9350	 4.9450
 2.9360	 4.9400
 2.9380	 4.9510
 2.9400	 4.9600
 2.9410	 4.9960
 2.9430	 4.9620
 2.9450	 5.0970
 2.9460	 5.1040
 2.9480	 5.0120
 2.9500	 4.9790
 2.9510	 5.1340
 2.9530	 5.0830
 2.9550	 4.9590
 2.9560	 4.9090
 2.9580	 5.0260
 2.9600	 5.0250
 2.9610	 5.0810
 2.9630	 5.0980
 2.9650	 5.0640
 2.9670	 5.0170
 2.9680	 5.0600
 2.9700	 5.0660
 2.9720	 5.0680
 2.9730	 5.0430
 2.9750	 5.1140
 2.9770	 5.0930
 2.9780	 5.0800
 2.9800	 5.0300
 2.9820	 5.0340
 2.9840	 5.0270
 2.9850	 5.0380
 2.9870	 5.0160
 2.9890	 5.0760
 2.9900	 5.0940
 2.9920	 5.1180
 2.9940	 5.0420
 2.9960	 5.1050
 2.9970	 5.1340
 2.9990	 5.1280
 3.0010	 5.0680
 3.0030	 5.1030
 3.0040	 5.0810
 3.0060	 5.1020
 3.0080	 5.0600
 3.0100	 5.1040
 3.0110	 5.0630
 3.0130	 5.1080
 3.0150	 5.0920
 3.0170	 5.1070
 3.0180	 5.0940
 3.0200	 5.1510
 3.0220	 5.1380
 3.0240	 5.1270
 3.0250	 5.0830
 3.0270	 5.0830
 3.0290	 5.0660
 3.0310	 5.0970
 3.0320	 5.0910
 3.0340	 5.1350
 3.0360	 5.0690
 3.0380	 5.1490
 3.0400	 5.2020
 3.0410	 5.2280
 3.0430	 5.1350
 3.0450	 5.0940
 3.0470	 5.1170
 3.0480	 5.1470
 3.0500	 5.1480
 3.0520	 5.1810
 3.0540	 5.1330
 3.0560	 5.2000
 3.0570	 5.1910
 3.0590	 5.1660
 3.0610	 5.1180
 3.0630	 5.1580
 3.0650	 5.1370
 3.0670	 5.1140
 3.0680	 5.0560
 3.0700	 5.1000
 3.0720	 5.0870
 3.0740	 5.1180
 3.0760	 5.1610
 3.0770	 5.1790
 3.0790	 5.1260
 3.0810	 5.1860
 3.0830	 5.1220
 3.0850	 5.1470
 3.0870	 5.1540
 3.0880	 5.1810
 3.0900	 5.1460
 3.0920	 5.1390
 3.0940	 5.1350
 3.0960	 5.1950
 3.0980	 5.1940
 3.1000	 5.1940
 3.1010	 5.1930
 3.1030	 5.1890
 3.1050	 5.1690
 3.1070	 5.1980
 3.1090	 5.1320
 3.1110	 5.1500
 3.1130	 5.1670
 3.1140	 5.1960
 3.1160	 5.1590
 3.1180	 5.1780
 3.1200	 5.1890
 3.1220	 5.2110
 3.1240	 5.1400
 3.1260	 5.1300
 3.1280	 5.1620
 3.1290	 5.2020
 3.1310	 5.1620
 3.1330	 5.2030
 3.1350	 5.1880
 3.1370	 5.1930
 3.1390	 5.1720
 3.1410	 5.1880
 3.1430	 5.2050
 3.1450	 5.2100
 3.1470	 5.1730
 3.1480	 5.2150
 3.1500	 5.1940
 3.1520	 5.1990
 3.1540	 5.1460
 3.1560	 5.1720
 3.1580	 5.1840
 3.1600	 5.2440
 3.1620	 5.2350
 3.1640	 5.2430
 3.1660	 5.2180
 3.1680	 5.2380
 3.1700	 5.2100
 3.1720	 5.1950
 3.1730	 5.1780
 3.1750	 5.2560
 3.1770	 5.2570
 3.1790	 5.2330
 3.1810	 5.2230
 3.1830	 5.2490
 3.1850	 5.2150
 3.1870	 5.2170
 3.1890	 5.1780
 3.1910	 5.2300
 3.1930	 5.2250
 3.1950	 5.1830
 3.1970	 5.1630
 3.1990	 5.1970
 3.2010	 5.2310
 3.2030	 5.2210
 3.2050	 5.1950
 3.2070	 5.2280
 3.2090	 5.2690
 3.2110	 5.3240
 3.2130	 5.2440
 3.2150	 5.2110
 3.2170	 5.2030
 3.2190	 5.1960
 3.2210	 5.1300
 3.2230	 5.1510
 3.2250	 5.1420
 3.2270	 5.1870
 3.2290	 5.2050
 3.2310	 5.2250
 3.2330	 5.1920
 3.2350	 5.2170
 3.2370	 5.1790
 3.2390	 5.1920
 3.2410	 5.2290
 3.2430	 5.2100
 3.2450	 5.1590
 3.2470	 5.1730
 3.2490	 5.1700
 3.2510	 5.2210
 3.2530	 5.2030
 3.2550	 5.1800
 3.2570	 5.1580
 3.2590	 5.1910
 3.2610	 5.1550
 3.2630	 5.1530
 3.2650	 5.1720
 3.2670	 5.2010
 3.2700	 5.1880
 3.2720	 5.2070
 3.2740	 5.1830
 3.2760	 5.2270
 3.2780	 5.2220
 3.2800	 5.1690
 3.2820	 5.0850
 3.2840	 5.1330
 3.2860	 5.1920
 3.2880	 5.2570
 3.2900	 5.2450
 3.2920	 5.1940
 3.2940	 5.1130
 3.2970	 5.1180
 3.2990	 5.1110
 3.3010	 5.1600
 3.3030	 5.1270
 3.3050	 5.1180
 3.3070	 5.1240
 3.3090	 5.0800
 3.3110	 5.0400
 3.3130	 5.0920
 3.3160	 5.0680
 3.3180	 5.0790
 3.3200	 5.0380
 3.3220	 5.0140
 3.3240	 5.0060
 3.3260	 5.0440
 3.3280	 5.0030
 3.3300	 4.9950
 3.3330	 4.9710
 3.3350	 4.9480
 3.3370	 4.9250
 3.3390	 4.9740
 3.3410	 5.0050
 3.3430	 4.9620
 3.3450	 4.8710
 3.3480	 4.9020
 3.3500	 4.9030
 3.3520	 4.8620
 3.3540	 4.8290
 3.3560	 4.8660
 3.3580	 4.8730
 3.3610	 4.8830
 3.3630	 4.8350
 3.3650	 4.8220
 3.3670	 4.7730
 3.3690	 4.7560
 3.3720	 4.7400
 3.3740	 4.7840
 3.3760	 4.7790
 3.3780	 4.7930
 3.3800	 4.8020
 3.3830	 4.8060
 3.3850	 4.7530
 3.3870	 4.7240
 3.3890	 4.6990
 3.3910	 4.7050
 3.3940	 4.6620
 3.3960	 4.7140
 3.3980	 4.7290
 3.4000	 4.7910
 3.4030	 4.8350
 3.4050	 4.8790
 3.4070	 4.9380
 3.4090	 5.0450
 3.4110	 5.1390
 3.4140	 5.3000
 3.4160	 5.4840
 3.4180	 5.7320
 3.4200	 5.9860
 3.4230	 6.3640
 3.4250	 6.7750
 3.4270	 7.1710
 3.4300	 7.3860
 3.4320	 7.1830
 3.4340	 6.6880
 3.4360	 6.2970
 3.4390	 5.9900
 3.4410	 5.8430
 3.4430	 5.7920
 3.4450	 5.7680
 3.4480	 5.7100
 3.4500	 5.7260
 3.4520	 5.7070
 3.4550	 5.6640
 3.4570	 5.6450
 3.4590	 5.6640
 3.4620	 5.6330
 3.4640	 5.5870
 3.4660	 5.5300
 3.4690	 5.5470
 3.4710	 5.5200
 3.4730	 5.4850
 3.4760	 5.4240
 3.4780	 5.4320
 3.4800	 5.4160
 3.4830	 5.4220
 3.4850	 5.4040
 3.4870	 5.4010
 3.4900	 5.3470
 3.4920	 5.2980
 3.4940	 5.2270
 3.4970	 5.2630
 3.4990	 5.3100
 3.5010	 5.4570
 3.5040	 5.6680
 3.5060	 6.0500
 3.5080	 6.6020
 3.5110	 7.0830
 3.5130	 6.9980
 3.5160	 6.5790
 3.5180	 6.2640
 3.5200	 6.1230
 3.5230	 6.0260
 3.5250	 5.9670
 3.5280	 5.9170
 3.5300	 5.8930
 3.5320	 5.8380
 3.5350	 5.8350
 3.5370	 5.8160
 3.5400	 5.8460
 3.5420	 5.8760
 3.5440	 5.8570
 3.5470	 5.7840
 3.5490	 5.7910
 3.5520	 5.7800
 3.5540	 5.7890
 3.5570	 5.7290
 3.5590	 5.6940
 3.5610	 5.6790
 3.5640	 5.7050
 3.5660	 5.6870
 3.5690	 5.6730
 3.5710	 5.6320
 3.5740	 5.6560
 3.5760	 5.6980
 3.5790	 5.7030
 3.5810	 5.6610
 3.5840	 5.6560
 3.5860	 5.6280
 3.5890	 5.6570
 3.5910	 5.6640
 3.5940	 5.6530
 3.5960	 5.6330
 3.5990	 5.6580
 3.6010	 5.6450
 3.6040	 5.6630
 3.6060	 5.6660
 3.6090	 5.6680
 3.6110	 5.6250
 3.6140	 5.6170
 3.6160	 5.5930
 3.6190	 5.5970
 3.6210	 5.6140
 3.6240	 5.6040
 3.6260	 5.5780
 3.6290	 5.6090
 3.6310	 5.6030
 3.6340	 5.5970
 3.6360	 5.5980
 3.6390	 5.6270
 3.6410	 5.6210
 3.6440	 5.6030
 3.6470	 5.5820
 3.6490	 5.5760
 3.6520	 5.5690
 3.6540	 5.5880
 3.6570	 5.5830
 3.6590	 5.6020
 3.6620	 5.6340
 3.6650	 5.6460
 3.6670	 5.6320
 3.6700	 5.6160
 3.6720	 5.5650
 3.6750	 5.5750
 3.6780	 5.5760
 3.6800	 5.6110
 3.6830	 5.5910
 3.6850	 5.5890
 3.6880	 5.6070
 3.6910	 5.6180
 3.6930	 5.5770
 3.6960	 5.5490
 3.6990	 5.5530
 3.7010	 5.5890
 3.7040	 5.6130
 3.7070	 5.6010
 3.7090	 5.5470
 3.7120	 5.5460
 3.7150	 5.5620
 3.7170	 5.5740
 3.7200	 5.5710
 3.7230	 5.5640
 3.7250	 5.5350
 3.7280	 5.5790
 3.7310	 5.5420
 3.7330	 5.5270
 3.7360	 5.5300
 3.7390	 5.5490
 3.7410	 5.5480
 3.7440	 5.5790
 3.7470	 5.5590
 3.7490	 5.5520
 3.7520	 5.5750
 3.7550	 5.5920
 3.7580	 5.5930
 3.7600	 5.5970
 3.7630	 5.5920
 3.7660	 5.5980
 3.7690	 5.5690
 3.7710	 5.5950
 3.7740	 5.5860
 3.7770	 5.5740
 3.7790	 5.5530
 3.7820	 5.5580
 3.7850	 5.5740
 3.7880	 5.5850
 3.7910	 5.5540
 3.7930	 5.5680
 3.7960	 5.5790
 3.7990	 5.5940
 3.8020	 5.5990
 3.8040	 5.5930
 3.8070	 5.5850
 3.8100	 5.5930
 3.8130	 5.5920
 3.8160	 5.6200
 3.8180	 5.6230
 3.8210	 5.6260
 3.8240	 5.5580
 3.8270	 5.5460
 3.8300	 5.5810
 3.8330	 5.6050
 3.8350	 5.5820
 3.8380	 5.5910
 3.8410	 5.5930
 3.8440	 5.5940
 3.8470	 5.5790
 3.8500	 5.5810
 3.8520	 5.5670
 3.8550	 5.5720
 3.8580	 5.5910
 3.8610	 5.5810
 3.8640	 5.5500
 3.8670	 5.6010
 3.8700	 5.5950
 3.8730	 5.5730
 3.8760	 5.5710
 3.8780	 5.6050
 3.8810	 5.6020
 3.8840	 5.6280
 3.8870	 5.6100
 3.8900	 5.6010
 3.8930	 5.5850
 3.8960	 5.5630
 3.8990	 5.5430
 3.9020	 5.5530
 3.9050	 5.5430
 3.9080	 5.5380
 3.9110	 5.5360
 3.9140	 5.5670
 3.9170	 5.5820
 3.9190	 5.5980
 3.9220	 5.5960
 3.9250	 5.5750
 3.9280	 5.5520
 3.9310	 5.5610
 3.9340	 5.5420
 3.9370	 5.5460
 3.9400	 5.5440
 3.9430	 5.5730
 3.9460	 5.5840
 3.9490	 5.5960
 3.9520	 5.5750
 3.9550	 5.5890
 3.9580	 5.5660
 3.9610	 5.5670
 3.9640	 5.5870
 3.9670	 5.5960
 3.9700	 5.5830
 3.9740	 5.5770
 3.9770	 5.5610
 3.9800	 5.5930
 3.9830	 5.5920
 3.9860	 5.6100
 3.9890	 5.5990
 3.9920	 5.5790
 3.9950	 5.5960
 3.9980	 5.6550
 4.0010	 5.6240
 4.0040	 5.5990
 4.0070	 5.5610
 4.0100	 5.5690
 4.0140	 5.5960
 4.0170	 5.6130
 4.0200	 5.6100
 4.0230	 5.6160
 4.0260	 5.6050
 4.0290	 5.5990
 4.0320	 5.5720
 4.0350	 5.5710
 4.0390	 5.5960
 4.0420	 5.6190
 4.0450	 5.5800
 4.0480	 5.6090
 4.0510	 5.6170
 4.0540	 5.6050
 4.0570	 5.5840
 4.0610	 5.5780
 4.0640	 5.5870
 4.0670	 5.5810
 4.0700	 5.5790
 4.0730	 5.5860
 4.0770	 5.5870
 4.0800	 5.5980
 4.0830	 5.5740
 4.0860	 5.5570
 4.0890	 5.5450
 4.0930	 5.5730
 4.0960	 5.5680
 4.0990	 5.5620
 4.1020	 5.5540
 4.1060	 5.5580
 4.1090	 5.5610
 4.1120	 5.5680
 4.1150	 5.5750
 4.1190	 5.6200
 4.1220	 5.6030
 4.1250	 5.5650
 4.1290	 5.5580
 4.1320	 5.5870
 4.1350	 5.5940
 4.1380	 5.5760
 4.1420	 5.5200
 4.1450	 5.5240
 4.1480	 5.5730
 4.1520	 5.5960
 4.1550	 5.5690
 4.1580	 5.5760
 4.1620	 5.5630
 4.1650	 5.5580
 4.1680	 5.5590
 4.1720	 5.5840
 4.1750	 5.5690
 4.1780	 5.5480
 4.1820	 5.5440
 4.1850	 5.5540
 4.1890	 5.5440
 4.1920	 5.5570
 4.1950	 5.5470
 4.1990	 5.5470
 4.2020	 5.5700
 4.2060	 5.5520
 4.2090	 5.5650
 4.2120	 5.6220
 4.2160	 5.6040
 4.2190	 5.5820
 4.2230	 5.5950
 4.2260	 5.6610
 4.2300	 5.6820
 4.2330	 5.7230
 4.2360	 5.7230
 4.2400	 5.7590
 4.2430	 5.7970
 4.2470	 5.7720
 4.2500	 5.7190
 4.2540	 5.6890
 4.2570	 5.6190
 4.2610	 5.5900
 4.2640	 5.6390
 4.2680	 5.6760
 4.2710	 5.6480
 4.2750	 5.6270
 4.2780	 5.6300
 4.2820	 5.6690
 4.2850	 5.6370
 4.2890	 5.6070
 4.2930	 5.5840
 4.2960	 5.5450
 4.3000	 5.5230
 4.3030	 5.5980
 4.3070	 5.5950
 4.3100	 5.5350
 4.3140	 5.5040
 4.3180	 5.5170
 4.3210	 5.5510
 4.3250	 5.6280
 4.3280	 5.6260
 4.3320	 5.5830
 4.3360	 5.5840
 4.3390	 5.6020
 4.3430	 5.5810
 4.3470	 5.5610
 4.3500	 5.5490
 4.3540	 5.5400
 4.3580	 5.5080
 4.3610	 5.5320
 4.3650	 5.5260
 4.3690	 5.4910
 4.3720	 5.4770
 4.3760	 5.4650
 4.3800	 5.4620
 4.3830	 5.4710
 4.3870	 5.4610
 4.3910	 5.4720
 4.3940	 5.4760
 4.3980	 5.4690
 4.4020	 5.4600
 4.4060	 5.4760
 4.4090	 5.4710
 4.4130	 5.4670
 4.4170	 5.4990
 4.4210	 5.5190
 4.4240	 5.4860
 4.4280	 5.4720
 4.4320	 5.4700
 4.4360	 5.4770
 4.4400	 5.4730
 4.4430	 5.4690
 4.4470	 5.4600
 4.4510	 5.4660
 4.4550	 5.4790
 4.4590	 5.4750
 4.4630	 5.4770
 4.4660	 5.4790
 4.4700	 5.4690
 4.4740	 5.4790
 4.4780	 5.4690
 4.4820	 5.4640
 4.4860	 5.4620
 4.4900	 5.4550
 4.4930	 5.4450
 4.4970	 5.4260
 4.5010	 5.4370
 4.5050	 5.4510
 4.5090	 5.4390
 4.5130	 5.4250
 4.5170	 5.4100
 4.5210	 5.4500
 4.5250	 5.4840
 4.5290	 5.4520
 4.5330	 5.4110
 4.5370	 5.3840
 4.5410	 5.4100
 4.5450	 5.4340
 4.5490	 5.4310
 4.5530	 5.4070
 4.5570	 5.3890
 4.5610	 5.3930
 4.5650	 5.4130
 4.5690	 5.4100
 4.5730	 5.4310
 4.5770	 5.4280
 4.5810	 5.4010
 4.5850	 5.3960
 4.5890	 5.4300
 4.5930	 5.4390
 4.5970	 5.4490
 4.6010	 5.4510
 4.6050	 5.4210
 4.6090	 5.3880
 4.6130	 5.3920
 4.6170	 5.3730
 4.6220	 5.3730
 4.6260	 5.3770
 4.6300	 5.3820
 4.6340	 5.3720
 4.6380	 5.3750
 4.6420	 5.3850
 4.6460	 5.3900
 4.6510	 5.3910
 4.6550	 5.3910
 4.6590	 5.4080
 4.6630	 5.3940
 4.6670	 5.4040
 4.6720	 5.3830
 4.6760	 5.3420
 4.6800	 5.3510
 4.6840	 5.3590
 4.6880	 5.3670
 4.6930	 5.3780
 4.6970	 5.3870
 4.7010	 5.3520
 4.7050	 5.3640
 4.7100	 5.4010
 4.7140	 5.3780
 4.7180	 5.3550
 4.7230	 5.3800
 4.7270	 5.3780
 4.7310	 5.3840
 4.7360	 5.3820
 4.7400	 5.3760
 4.7440	 5.3550
 4.7490	 5.3300
 4.7530	 5.3310
 4.7570	 5.3540
 4.7620	 5.3850
 4.7660	 5.3860
 4.7700	 5.3590
 4.7750	 5.3760
 4.7790	 5.3930
 4.7840	 5.3800
 4.7880	 5.3630
 4.7920	 5.3600
 4.7970	 5.3610
 4.8010	 5.3520
 4.8060	 5.3380
 4.8100	 5.3680
 4.8150	 5.3840
 4.8190	 5.3780
 4.8240	 5.3630
 4.8280	 5.3490
 4.8330	 5.3340
 4.8370	 5.3260
 4.8420	 5.3390
 4.8460	 5.3430
 4.8510	 5.3310
 4.8550	 5.3490
 4.8600	 5.3630
 4.8640	 5.3690
 4.8690	 5.3470
 4.8740	 5.3070
 4.8780	 5.3250
 4.8830	 5.3720
 4.8870	 5.3610
 4.8920	 5.3680
 4.8970	 5.3520
 4.9010	 5.3360
 4.9060	 5.3320
 4.9100	 5.3300
 4.9150	 5.3330
 4.9200	 5.3520
 4.9240	 5.3630
 4.9290	 5.3780
 4.9340	 5.3330
 4.9390	 5.3100
 4.9430	 5.3080
 4.9480	 5.3320
 4.9530	 5.3290
 4.9570	 5.2850
 4.9620	 5.2850
 4.9670	 5.3440
 4.9720	 5.3540
 4.9760	 5.3060
 4.9810	 5.3090
 4.9860	 5.3490
 4.9910	 5.3290
 4.9960	 5.3150
 5.0000	 5.3160
 5.0050	 5.3340
 5.0100	 5.3460
 5.0150	 5.3290
 5.0200	 5.3000
 5.0250	 5.3150
 5.0300	 5.3130
 5.0340	 5.3050
 5.0390	 5.2900
 5.0440	 5.3000
 5.0490	 5.3280
 5.0540	 5.3550
 5.0590	 5.3230
 5.0640	 5.3020
 5.0690	 5.2960
 5.0740	 5.3300
 5.0790	 5.3350
 5.0840	 5.3150
 5.0890	 5.2680
 5.0940	 5.2900
 5.0990	 5.3320
 5.1040	 5.3450
 5.1090	 5.3060
 5.1140	 5.2820
 5.1190	 5.2780
 5.1240	 5.2820
 5.1290	 5.2660
 5.1340	 5.2770
 5.1390	 5.2690
 5.1440	 5.3040
 5.1490	 5.3170
 5.1550	 5.2890
 5.1600	 5.2600
 5.1650	 5.2820
 5.1700	 5.2690
 5.1750	 5.2620
 5.1800	 5.2590
 5.1850	 5.2790
 5.1910	 5.2750
 5.1960	 5.2760
 5.2010	 5.2560
 5.2060	 5.2670
 5.2110	 5.2770
 5.2170	 5.2770
 5.2220	 5.2830
 5.2270	 5.3010
 5.2330	 5.2830
 5.2380	 5.2760
 5.2430	 5.2600
 5.2480	 5.2860
 5.2540	 5.2770
 5.2590	 5.2670
 5.2640	 5.2660
 5.2700	 5.2800
 5.2750	 5.2670
 5.2800	 5.2730
 5.2860	 5.2370
 5.2910	 5.2350
 5.2970	 5.2600
 5.3020	 5.2340
 5.3080	 5.2000
 5.3130	 5.2050
 5.3180	 5.2030
 5.3240	 5.2280
 5.3290	 5.1970
 5.3350	 5.1900
 5.3400	 5.1850
 5.3460	 5.2120
 5.3510	 5.2190
 5.3570	 5.2180
 5.3620	 5.1860
 5.3680	 5.1970
 5.3740	 5.1530
 5.3790	 5.1520
 5.3850	 5.1690
 5.3900	 5.1770
 5.3960	 5.1510
 5.4010	 5.1620
 5.4070	 5.1540
 5.4130	 5.1750
 5.4180	 5.1710
 5.4240	 5.1690
 5.4300	 5.1820
 5.4350	 5.1860
 5.4410	 5.1460
 5.4470	 5.1440
 5.4530	 5.1450
 5.4580	 5.1510
 5.4640	 5.1050
 5.4700	 5.1070
 5.4760	 5.0940
 5.4810	 5.1100
 5.4870	 5.1060
 5.4930	 5.0810
 5.4990	 5.0700
 5.5050	 5.1030
 5.5110	 5.1000
 5.5160	 5.1030
 5.5220	 5.0460
 5.5280	 5.0280
 5.5340	 5.0230
 5.5400	 5.0290
 5.5460	 5.0040
 5.5520	 5.0040
 5.5580	 4.9980
 5.5640	 5.0050
 5.5700	 5.0050
 5.5760	 5.0010
 5.5820	 4.9690
 5.5880	 4.9620
 5.5940	 4.9220
 5.6000	 4.9040
 5.6060	 4.8690
 5.6120	 4.8870
 5.6180	 4.8810
 5.6240	 4.8550
 5.6300	 4.8150
 5.6360	 4.7960
 5.6420	 4.7420
 5.6490	 4.7650
 5.6550	 4.7300
 5.6610	 4.7070
 5.6670	 4.6950
 5.6730	 4.6960
 5.6800	 4.6690
 5.6860	 4.6880
 5.6920	 4.6250
 5.6980	 4.6140
 5.7050	 4.5960
 5.7110	 4.5320
 5.7170	 4.4680
 5.7230	 4.4920
 5.7300	 4.4520
 5.7360	 4.4540
 5.7420	 4.4700
 5.7490	 4.5410
 5.7550	 4.6060
 5.7620	 4.6250
 5.7680	 4.6430
 5.7740	 4.7540
 5.7810	 4.8190
 5.7870	 4.8840
 5.7940	 4.8690
 5.8000	 4.9000
 5.8070	 4.8990
 5.8130	 4.9390
 5.8200	 4.9130
 5.8260	 4.9160
 5.8330	 4.9190
 5.8390	 4.9680
 5.8460	 4.9960
 5.8530	 5.0690
 5.8590	 5.0030
 5.8660	 4.9590
 5.8730	 4.9810
 5.8790	 4.9890
 5.8860	 4.9430
 5.8930	 4.9050
 5.8990	 4.9090
 5.9060	 4.9930
 5.9130	 4.9550
 5.9190	 4.9740
 5.9260	 5.0080
 5.9330	 5.1020
 5.9400	 5.1510
 5.9470	 5.2580
 5.9530	 5.2970
 5.9600	 5.3260
 5.9670	 5.2760
 5.9740	 5.2710
 5.9810	 5.2450
 5.9880	 5.2470
 5.9950	 5.2280
 6.0020	 5.2780
 6.0090	 5.2390
 6.0160	 5.2080
 6.0230	 5.1720
 6.0300	 5.1910
 6.0370	 5.1880
 6.0440	 5.1370
 6.0510	 5.0720
 6.0580	 5.1360
 6.0650	 5.1430
 6.0720	 5.1130
 6.0790	 5.1300
 6.0860	 5.2130
 6.0930	 5.1510
 6.1010	 5.1650
 6.1080	 5.1480
 6.1150	 5.1690
 6.1220	 5.1580
 6.1290	 5.1890
 6.1370	 5.1790
 6.1440	 5.2040
 6.1510	 5.2020
 6.1580	 5.2250
 6.1660	 5.1780
 6.1730	 5.1880
 6.1800	 5.1460
 6.1880	 5.1580
 6.1950	 5.1730
 6.2030	 5.2430
 6.2100	 5.2120
 6.2180	 5.2040
 6.2250	 5.1860
 6.2320	 5.1890
 6.2400	 5.1740
 6.2480	 5.1870
 6.2550	 5.1410
 6.2630	 5.1670
 6.2700	 5.1740
 6.2780	 5.1970
 6.2850	 5.1830
 6.2930	 5.1980
 6.3010	 5.1380
 6.3080	 5.1470
 6.3160	 5.1620
 6.3240	 5.2080
 6.3310	 5.1620
 6.3390	 5.1750
 6.3470	 5.1250
 6.3550	 5.1670
 6.3620	 5.1370
 6.3700	 5.1380
 6.3780	 5.1440
 6.3860	 5.1900
 6.3940	 5.1320
 6.4020	 5.1400
 6.4100	 5.0940
 6.4180	 5.1140
 6.4260	 5.1340
 6.4340	 5.1690
 6.4420	 5.1400
 6.4500	 5.1670
 6.4580	 5.1280
 6.4660	 5.1190
 6.4740	 5.0720
 6.4820	 5.0620
 6.4900	 5.0230
 6.4980	 5.0640
 6.5060	 5.0580
 6.5140	 5.0850
 6.5230	 5.0490
 6.5310	 5.0870
 6.5390	 5.0670
 6.5470	 5.0520
 6.5560	 4.9770
 6.5640	 4.9880
 6.5720	 4.9310
 6.5800	 4.9260
 6.5890	 4.9030
 6.5970	 4.9490
 6.6060	 4.9160
 6.6140	 4.9230
 6.6230	 4.9040
 6.6310	 4.9150
 6.6390	 4.8810
 6.6480	 4.9290
 6.6570	 4.9010
 6.6650	 4.8970
 6.6740	 4.8490
 6.6820	 4.8760
 6.6910	 4.8490
 6.7000	 4.8770
 6.7080	 4.8060
 6.7170	 4.7760
 6.7260	 4.7400
 6.7340	 4.7450
 6.7430	 4.6790
 6.7520	 4.6890
 6.7610	 4.6840
 6.7690	 4.7130
 6.7780	 4.6980
 6.7870	 4.7840
 6.7960	 4.7480
 6.8050	 4.7360
 6.8140	 4.7540
 6.8230	 4.8370
 6.8320	 4.8530
 6.8410	 4.9230
 6.8500	 4.8680
 6.8590	 4.8700
 6.8680	 4.8530
 6.8770	 4.9570
 6.8860	 4.9480
 6.8960	 4.9590
 6.9050	 4.9440
 6.9140	 4.9910
 6.9230	 4.9570
 6.9320	 4.9870
 6.9420	 4.9600
 6.9510	 4.9400
 6.9600	 4.8430
 6.9700	 4.9130
 6.9790	 4.9190
 6.9880	 4.9780
 6.9980	 4.9800
 7.0070	 5.0070
 7.0170	 4.9650
 7.0260	 4.9620
 7.0360	 4.9320
 7.0450	 5.0050
 7.0550	 4.9720
 7.0650	 4.9610
 7.0740	 4.9450
 7.0840	 5.0130
 7.0940	 4.9900
 7.1030	 5.0140
 7.1130	 4.9190
 7.1230	 4.9110
 7.1330	 4.9060
 7.1420	 4.9500
 7.1520	 4.8780
 7.1620	 4.8680
 7.1720	 4.7950
 7.1820	 4.8150
 7.1920	 4.7700
 7.2020	 4.8170
 7.2120	 4.8590
 7.2220	 4.9370
 7.2320	 4.9070
 7.2420	 4.9450
 7.2520	 4.8760
 7.2620	 4.8830
 7.2730	 4.8590
 7.2830	 4.8800
 7.2930	 4.8460
 7.3030	 4.8820
 7.3140	 4.8590
 7.3240	 4.9100
 7.3340	 4.8800
 7.3450	 4.8880
 7.3550	 4.8440
 7.3660	 4.9160
 7.3760	 4.9400
 7.3870	 4.9660
 7.3970	 4.9030
 7.4080	 4.9680
 7.4180	 4.9230
 7.4290	 4.9140
 7.4400	 4.8540
 7.4500	 4.8860
 7.4610	 4.8440
 7.4720	 4.8660
 7.4830	 4.8140
 7.4930	 4.8410
 7.5040	 4.8070
 7.5150	 4.8770
 7.5260	 4.8760
 7.5370	 4.9260
 7.5480	 4.8610
 7.5590	 4.8850
 7.5700	 4.8520
 7.5810	 4.9080
 7.5920	 4.9130
 7.6030	 4.9440
 7.6140	 4.8650
 7.6260	 4.8830
 7.6370	 4.8560
 7.6480	 4.8800
 7.6590	 4.8580
 7.6710	 4.8840
 7.6820	 4.8510
 7.6940	 4.8800
 7.7050	 4.7800
 7.7160	 4.8240
 7.7280	 4.8040
 7.7390	 4.8270
 7.7510	 4.7440
 7.7630	 4.7500
 7.7740	 4.7070
 7.7860	 4.7890
 7.7980	 4.7520
 7.8090	 4.7750
 7.8210	 4.7460
 7.8330	 4.7790
 7.8450	 4.7820
 7.8570	 4.8820
 7.8690	 4.8750
 7.8810	 4.9370
 7.8930	 4.9250
 7.9050	 4.9610
 7.9170	 4.8690
 7.9290	 4.9120
 7.9410	 4.8890
 7.9530	 4.9290
 7.9650	 4.8520
 7.9780	 4.8890
 7.9900	 4.8410
 8.0020	 4.9250
 8.0150	 4.8970
 8.0270	 4.9700
 8.0390	 4.9180
 8.0520	 4.9650
 8.0640	 4.9470
 8.0770	 5.0360
 8.0900	 5.0090
 8.1020	 5.0810
 8.1150	 4.9970
 8.1280	 5.0110
 8.1400	 5.0180
 8.1530	 5.0750
 8.1660	 4.9620
 8.1790	 5.0620
 8.1920	 4.9130
 8.2050	 4.8950
 8.2180	 4.8520
 8.2310	 4.9610
 8.2440	 4.9650
 8.2570	 5.0590
 8.2700	 4.8970
 8.2830	 4.9090
 8.2970	 4.9020
 8.3100	 4.9990
 8.3230	 4.9450
 8.3370	 5.0210
 8.3500	 4.9520
 8.3640	 4.9880
 8.3770	 4.9120
 8.3910	 4.9690
 8.4040	 4.8990
 8.4180	 4.9910
 8.4320	 4.9480
 8.4450	 4.9960
 8.4590	 4.9130
 8.4730	 4.9550
 8.4870	 4.8740
 8.5010	 4.9090
 8.5150	 4.8320
 8.5290	 4.9660
 8.5430	 4.9720
 8.5570	 5.0570
 8.5710	 5.0220
 8.5850	 5.1600
 8.5990	 5.1500
 8.6140	 5.1970
 8.6280	 5.0790
 8.6420	 5.1550
 8.6570	 5.1050
 8.6710	 5.1710
 8.6860	 5.0810
 8.7000	 5.1720
 8.7150	 5.1080
 8.7300	 5.1510
 8.7440	 5.0670
 8.7590	 5.1640
 8.7740	 5.0570
 8.7890	 5.1320
 8.8040	 5.0760
 8.8190	 5.0900
 8.8340	 4.9680
 8.8490	 5.1030
 8.8640	 5.0580
 8.8790	 5.0910
 8.8940	 4.9820
 8.9100	 5.0580
 8.9250	 4.9600
 8.9400	 5.0370
 8.9560	 4.9910
 8.9710	 5.0980
 8.9870	 5.0700
 9.0020	 5.1570
 9.0180	 5.0620
 9.0340	 5.1790
 9.0500	 5.1250
 9.0650	 5.1850
 9.0810	 5.1450
 9.0970	 5.2520
 9.1130	 5.0670
 9.1290	 5.1350
 9.1450	 5.0910
 9.1620	 5.2300
 9.1780	 5.1470
 9.1940	 5.2160
 9.2100	 5.1910
 9.2270	 5.3000
 9.2430	 5.2210
 9.2600	 5.3100
 9.2760	 5.1780
 9.2930	 5.2880
 9.3100	 5.2170
 9.3260	 5.2670
 9.3430	 5.2070
 9.3600	 5.3530
 9.3770	 5.2440
 9.3940	 5.2970
 9.4110	 5.2230
 9.4280	 5.3310
 9.4450	 5.2710
 9.4620	 5.3790
 9.4800	 5.2170
 9.4970	 5.2800
 9.5150	 5.2130
 9.5320	 5.2490
 9.5500	 5.1150
 9.5670	 5.2470
 9.5850	 5.2230
 9.6030	 5.2940
 9.6200	 5.2390
 9.6380	 5.3140
 9.6560	 5.2050
 9.6740	 5.3750
 9.6920	 5.3520
 9.7110	 5.4630
 9.7290	 5.4270
 9.7470	 5.5120
 9.7650	 5.4160
 9.7840	 5.5250
 9.8020	 5.4270
 9.8210	 5.3770
 9.8390	 5.2510
 9.8580	 5.4730
 9.8770	 5.4200
 9.8960	 5.5380
 9.9150	 5.4680
 9.9340	 5.5260
 9.9530	 5.4110
 9.9720	 5.4770
 9.9910	 5.3920
10.0100	 5.5040
10.0300	 5.4350
10.0490	 5.5080
10.0690	 5.4160
10.0880	 5.5460
10.1080	 5.5250
10.1280	 5.6840
10.1480	 5.6080
10.1670	 5.6050
10.1870	 5.4980
10.2070	 5.5240
10.2280	 5.4230
10.2480	 5.5700
10.2680	 5.4540
10.2890	 5.5070
10.3090	 5.4230
10.3300	 5.5160
10.3500	 5.4660
10.3710	 5.5630
10.3920	 5.4660
10.4120	 5.6090
10.4330	 5.5220
10.4540	 5.6220
10.4760	 5.5160
10.4970	 5.5610
10.5180	 5.4890
10.5390	 5.6240
10.5610	 5.5520
10.5820	 5.6470
10.6040	 5.5080
10.6260	 5.5970
10.6480	 5.5120
10.6700	 5.5790
10.6920	 5.4670
10.7140	 5.5330
10.7360	 5.4430
10.7580	 5.5540
10.7800	 5.4290
10.8030	 5.5090
10.8250	 5.4190
10.8480	 5.4910
10.8710	 5.4170
10.8940	 5.4890
10.9170	 5.3620
10.9400	 5.5120
10.9630	 5.3540
10.9860	 5.4530
11.0090	 5.4180
11.0330	 5.5590
11.0560	 5.4680
11.0800	 5.4390
11.1040	 5.3170
11.1270	 5.5190
11.1510	 5.4780
11.1750	 5.5530
11.2000	 5.3550
11.2240	 5.4220
11.2480	 5.2940
11.2730	 5.3710
11.2970	 5.3150
11.3220	 5.4660
11.3470	 5.4490
11.3720	 5.6120
11.3970	 5.4610
11.4220	 5.5670
11.4470	 5.5310
11.4720	 5.6960
11.4980	 5.4620
11.5230	 5.4760
11.5490	 5.3450
11.5750	 5.4970
11.6000	 5.4600
11.6260	 5.5450
11.6530	 5.3670
11.6790	 5.4760
11.7050	 5.3920
11.7320	 5.5220
11.7580	 5.4090
11.7850	 5.5040
11.8120	 5.3370
11.8390	 5.4730
11.8660	 5.4020
11.8930	 5.5240
11.9200	 5.3370
11.9480	 5.4460
11.9760	 5.3760
12.0030	 5.5480
12.0310	 5.4460
12.0590	 5.5340
12.0870	 5.3790
12.1150	 5.5570
12.1440	 5.3930
12.1720	 5.4460
12.2010	 5.3080
12.2300	 5.3820
12.2590	 5.2800
12.2880	 5.4780
12.3170	 5.4270
12.3460	 5.6440
12.3760	 5.5460
12.4050	 5.7250
12.4350	 5.5350
12.4650	 5.6120
12.4950	 5.4890
12.5250	 5.6780
12.5550	 5.5200
12.5860	 5.7000
12.6170	 5.4810
12.6470	 5.5750
12.6780	 5.3860
12.7090	 5.5730
12.7410	 5.4980
12.7720	 5.6930
12.8030	 5.4960
12.8350	 5.5810
12.8670	 5.4590
12.8990	 5.6650
12.9310	 5.4920
12.9640	 5.6190
12.9960	 5.5350
13.0290	 5.7780
13.0610	 5.6330
13.0940	 5.7910
13.1280	 5.6660
13.1610	 5.8190
13.1940	 5.6200
13.2280	 5.7590
13.2620	 5.6050
13.2960	 5.7780
13.3300	 5.5200
13.3640	 5.6270
13.3990	 5.4540
13.4340	 5.6640
13.4690	 5.4380
13.5040	 5.6060
13.5390	 5.4960
13.5740	 5.6450
13.6100	 5.4450
13.6460	 5.6450
13.6820	 5.4380
13.7180	 5.5800
13.7540	 5.3550
13.7910	 5.5880
13.8280	 5.4530
13.8650	 5.6060
13.9020	 5.4360
13.9390	 5.7430
13.9770	 5.5870
14.0150	 5.8070
14.0530	 5.5830
14.0910	 5.6560
14.1290	 5.3810
14.1680	 5.5990
14.2070	 5.4960
14.2460	 5.7700
14.2850	 5.4770
14.3240	 5.6490
14.3640	 5.4080
14.4040	 5.6800
14.4440	 5.4460
14.4840	 5.5590
14.5250	 5.1980
14.5660	 5.5700
14.6070	 5.4030
14.6480	 5.5630
14.6900	 5.1800
14.7310	 5.5960
14.7730	 5.4130
14.8150	 5.7460
14.8580	 5.3600
14.9010	 5.8060
14.9440	 5.6240
14.9870	 6.0130
15.0300	 5.3740
15.0740	 5.4590
15.1180	 5.0660
15.1620	 5.6860
15.2060	 5.3460
15.2510	 5.5620
15.2960	 5.1820
15.3410	 5.6260
15.3870	 5.0380
