Name: Arctostaphylos glandulosa 1
Type: vegetation
Class: Shrub
Genus: Arctostaphylos
Species: glandulosa
Sample No.: VH035
Owner: UCSB
Wavelength Range: TIR
Origin: 34.5084; -119.7682; WGS84
Collection Date: 4/1/2013
Description: Samples were collected as part of the HyspIRI Airborne Campaign. 48 individual plants were sampled in three times in 2013 - spring  summer  and fall. The name of the sample includes a 1  2  or 3 which references a different individual of the species. Samples were taken to JPL and processed within 48 hours of collection. The same leaves were processed in the Nicolet and then measured using the ASD.
Measurement: Hemispherical reflectance
First Column: X
Second Column: Y
X Units: Wavelength (micrometers)
Y Units: Reflectance (percentage)
First X Value: 2.501
Last X Value: 15.387
Number of X Values: 1737
Additional Information: vegetation.shrub.arctostaphylos.glandulosa.tir.vh035.ucsb.nicolet.ancillary.txt

 2.5010	 7.1400
 2.5030	 7.0270
 2.5040	 7.0160
 2.5050	 7.0280
 2.5060	 7.0260
 2.5070	 7.0760
 2.5090	 7.0460
 2.5100	 6.9370
 2.5110	 7.0100
 2.5120	 7.0270
 2.5140	 7.1270
 2.5150	 7.1530
 2.5160	 7.1880
 2.5170	 7.1320
 2.5180	 7.1360
 2.5200	 7.0450
 2.5210	 6.9860
 2.5220	 7.0020
 2.5230	 7.2220
 2.5250	 7.3040
 2.5260	 7.2890
 2.5270	 7.1870
 2.5280	 7.0780
 2.5290	 7.0000
 2.5310	 7.0510
 2.5320	 7.0420
 2.5330	 7.1240
 2.5340	 7.0640
 2.5360	 7.0000
 2.5370	 6.9910
 2.5380	 7.0070
 2.5390	 6.9490
 2.5410	 6.9130
 2.5420	 6.9340
 2.5430	 7.1010
 2.5440	 7.1070
 2.5460	 7.0680
 2.5470	 7.0180
 2.5480	 7.0460
 2.5490	 7.0920
 2.5510	 7.1450
 2.5520	 7.1290
 2.5530	 7.1700
 2.5540	 7.0640
 2.5560	 7.0490
 2.5570	 7.0910
 2.5580	 7.1530
 2.5590	 7.1280
 2.5610	 7.0980
 2.5620	 7.0390
 2.5630	 7.1240
 2.5640	 7.1270
 2.5660	 7.1060
 2.5670	 7.0560
 2.5680	 7.0550
 2.5700	 7.0890
 2.5710	 7.1930
 2.5720	 7.0730
 2.5730	 7.0220
 2.5750	 7.0820
 2.5760	 7.1560
 2.5770	 7.0830
 2.5790	 7.0790
 2.5800	 7.0840
 2.5810	 7.0670
 2.5820	 7.0760
 2.5840	 7.1770
 2.5850	 7.0480
 2.5860	 7.0620
 2.5880	 7.0570
 2.5890	 7.0740
 2.5900	 7.0000
 2.5910	 7.0000
 2.5930	 6.9600
 2.5940	 7.0410
 2.5950	 6.9970
 2.5970	 7.0280
 2.5980	 7.0660
 2.5990	 7.0380
 2.6000	 7.0520
 2.6020	 7.1970
 2.6030	 7.1680
 2.6040	 7.0620
 2.6060	 6.9020
 2.6070	 6.9900
 2.6080	 6.9660
 2.6100	 6.9580
 2.6110	 6.8790
 2.6120	 6.8200
 2.6140	 6.8470
 2.6150	 6.8700
 2.6160	 6.7760
 2.6180	 6.8390
 2.6190	 6.9870
 2.6200	 6.9850
 2.6220	 6.8790
 2.6230	 6.9520
 2.6240	 6.9510
 2.6260	 7.0030
 2.6270	 6.7840
 2.6280	 6.6720
 2.6300	 6.6920
 2.6310	 6.7320
 2.6320	 6.7230
 2.6340	 6.8020
 2.6350	 6.7610
 2.6360	 6.8520
 2.6380	 6.8520
 2.6390	 6.8290
 2.6400	 6.7600
 2.6420	 6.7660
 2.6430	 6.8070
 2.6440	 6.8810
 2.6460	 6.8250
 2.6470	 6.7300
 2.6480	 6.6930
 2.6500	 6.7680
 2.6510	 6.6230
 2.6520	 6.6520
 2.6540	 6.7070
 2.6550	 6.7390
 2.6560	 6.6840
 2.6580	 6.6310
 2.6590	 6.5870
 2.6610	 6.5670
 2.6620	 6.4970
 2.6630	 6.5090
 2.6650	 6.5400
 2.6660	 6.5960
 2.6670	 6.5290
 2.6690	 6.5380
 2.6700	 6.4170
 2.6720	 6.3990
 2.6730	 6.4810
 2.6740	 6.5360
 2.6760	 6.4520
 2.6770	 6.4530
 2.6780	 6.4380
 2.6800	 6.3340
 2.6810	 6.3630
 2.6830	 6.5020
 2.6840	 6.4800
 2.6850	 6.4340
 2.6870	 6.2830
 2.6880	 6.2500
 2.6900	 6.2820
 2.6910	 6.3870
 2.6920	 6.3690
 2.6940	 6.4400
 2.6950	 6.3660
 2.6970	 6.2230
 2.6980	 6.1720
 2.6990	 6.2980
 2.7010	 6.3090
 2.7020	 6.2610
 2.7040	 6.1770
 2.7050	 6.2040
 2.7060	 6.2230
 2.7080	 6.2140
 2.7090	 6.0360
 2.7110	 5.9920
 2.7120	 5.9510
 2.7130	 6.0420
 2.7150	 6.0390
 2.7160	 5.9510
 2.7180	 5.9850
 2.7190	 6.1040
 2.7210	 5.8980
 2.7220	 5.7470
 2.7230	 5.7600
 2.7250	 5.8280
 2.7260	 5.7770
 2.7280	 5.7820
 2.7290	 5.7550
 2.7310	 5.7880
 2.7320	 5.8600
 2.7330	 5.8640
 2.7350	 5.8170
 2.7360	 5.7760
 2.7380	 5.6590
 2.7390	 5.6660
 2.7410	 5.6230
 2.7420	 5.6450
 2.7440	 5.5410
 2.7450	 5.5040
 2.7470	 5.5680
 2.7480	 5.6710
 2.7490	 5.7370
 2.7510	 5.7390
 2.7520	 5.5390
 2.7540	 5.4750
 2.7550	 5.5310
 2.7570	 5.5810
 2.7580	 5.5610
 2.7600	 5.6180
 2.7610	 5.6260
 2.7630	 5.5750
 2.7640	 5.3910
 2.7660	 5.4780
 2.7670	 5.5260
 2.7680	 5.5110
 2.7700	 5.4140
 2.7710	 5.4240
 2.7730	 5.4730
 2.7740	 5.5290
 2.7760	 5.5120
 2.7770	 5.6030
 2.7790	 5.6440
 2.7800	 5.5360
 2.7820	 5.3100
 2.7830	 5.3440
 2.7850	 5.3320
 2.7860	 5.3530
 2.7880	 5.3750
 2.7890	 5.4390
 2.7910	 5.3640
 2.7920	 5.3590
 2.7940	 5.3460
 2.7950	 5.3740
 2.7970	 5.2910
 2.7980	 5.4000
 2.8000	 5.3980
 2.8010	 5.3030
 2.8030	 5.1720
 2.8040	 5.1310
 2.8060	 5.1070
 2.8070	 5.1860
 2.8090	 5.2060
 2.8110	 5.2590
 2.8120	 5.1390
 2.8140	 5.0850
 2.8150	 5.1230
 2.8170	 5.1940
 2.8180	 5.0800
 2.8200	 5.1310
 2.8210	 5.2000
 2.8230	 5.2370
 2.8240	 5.1460
 2.8260	 5.0790
 2.8270	 5.0120
 2.8290	 5.0610
 2.8300	 4.9990
 2.8320	 5.0970
 2.8340	 5.0740
 2.8350	 5.0370
 2.8370	 5.0000
 2.8380	 5.0590
 2.8400	 5.0490
 2.8410	 5.1230
 2.8430	 5.1480
 2.8440	 5.1880
 2.8460	 5.1400
 2.8480	 5.0690
 2.8490	 5.0330
 2.8510	 5.1760
 2.8520	 5.1410
 2.8540	 5.1110
 2.8550	 5.0640
 2.8570	 4.9860
 2.8590	 4.8360
 2.8600	 4.9330
 2.8620	 5.0030
 2.8630	 5.0420
 2.8650	 5.0270
 2.8660	 5.0020
 2.8680	 5.0210
 2.8700	 5.0990
 2.8710	 5.0500
 2.8730	 4.9920
 2.8740	 4.9750
 2.8760	 5.0900
 2.8780	 5.0260
 2.8790	 5.0000
 2.8810	 4.9810
 2.8820	 4.8810
 2.8840	 4.8380
 2.8860	 5.0260
 2.8870	 5.0870
 2.8890	 5.1090
 2.8900	 5.1140
 2.8920	 5.1530
 2.8940	 5.1000
 2.8950	 5.0550
 2.8970	 4.9480
 2.8980	 5.0220
 2.9000	 5.0240
 2.9020	 5.1140
 2.9030	 5.1600
 2.9050	 5.1900
 2.9070	 5.1650
 2.9080	 5.0710
 2.9100	 5.0040
 2.9120	 5.0020
 2.9130	 4.9210
 2.9150	 5.0270
 2.9160	 5.0190
 2.9180	 5.0560
 2.9200	 5.0030
 2.9210	 5.0090
 2.9230	 5.0050
 2.9250	 5.0780
 2.9260	 5.0160
 2.9280	 5.0370
 2.9300	 5.0970
 2.9310	 5.0680
 2.9330	 4.9860
 2.9350	 5.0640
 2.9360	 5.0120
 2.9380	 5.0500
 2.9400	 4.9460
 2.9410	 4.9880
 2.9430	 5.0910
 2.9450	 5.0040
 2.9460	 4.9880
 2.9480	 5.0750
 2.9500	 5.0220
 2.9510	 5.0680
 2.9530	 5.0800
 2.9550	 5.0800
 2.9560	 5.0590
 2.9580	 5.1060
 2.9600	 5.0580
 2.9610	 4.9570
 2.9630	 4.5710
 2.9650	 4.6660
 2.9660	 4.8040
 2.9680	 4.8810
 2.9700	 5.0140
 2.9720	 4.9860
 2.9730	 4.7250
 2.9750	 4.9070
 2.9770	 4.9870
 2.9780	 4.8650
 2.9800	 4.7680
 2.9820	 5.3110
 2.9840	 5.4720
 2.9850	 5.0120
 2.9870	 5.0000
 2.9890	 5.1820
 2.9900	 5.2670
 2.9920	 5.5230
 2.9940	 5.3160
 2.9960	 5.4160
 2.9970	 5.2670
 2.9990	 5.0100
 3.0010	 5.0490
 3.0030	 4.9920
 3.0040	 4.8680
 3.0060	 4.9920
 3.0080	 4.9270
 3.0100	 5.1580
 3.0110	 5.4000
 3.0130	 5.2200
 3.0150	 5.0480
 3.0170	 4.4960
 3.0180	 4.5890
 3.0200	 5.3580
 3.0220	 5.3680
 3.0240	 5.0800
 3.0250	 4.6570
 3.0270	 4.6770
 3.0290	 5.0340
 3.0310	 5.1770
 3.0320	 4.6570
 3.0340	 4.3040
 3.0360	 4.3430
 3.0380	 4.8090
 3.0400	 5.0660
 3.0410	 5.4460
 3.0430	 5.2800
 3.0450	 5.3320
 3.0470	 5.4140
 3.0480	 5.2760
 3.0500	 5.3640
 3.0520	 5.6770
 3.0540	 5.2130
 3.0560	 4.8030
 3.0570	 5.1300
 3.0590	 5.2290
 3.0610	 5.0290
 3.0630	 5.1920
 3.0650	 5.0600
 3.0660	 5.1720
 3.0680	 5.3670
 3.0700	 5.3380
 3.0720	 5.1250
 3.0740	 5.0840
 3.0760	 5.2290
 3.0770	 5.2710
 3.0790	 5.2110
 3.0810	 5.0720
 3.0830	 4.9470
 3.0850	 4.9810
 3.0870	 4.9120
 3.0880	 5.2390
 3.0900	 5.3490
 3.0920	 5.2090
 3.0940	 5.2300
 3.0960	 5.3240
 3.0980	 5.2430
 3.0990	 5.4070
 3.1010	 5.6220
 3.1030	 5.5060
 3.1050	 5.4350
 3.1070	 5.4300
 3.1090	 5.2490
 3.1110	 5.2650
 3.1120	 5.3510
 3.1140	 5.3420
 3.1160	 5.3190
 3.1180	 5.3640
 3.1200	 5.2620
 3.1220	 5.2080
 3.1240	 5.2890
 3.1260	 5.3690
 3.1270	 5.3690
 3.1290	 5.2540
 3.1310	 5.0160
 3.1330	 5.1380
 3.1350	 5.2120
 3.1370	 5.3920
 3.1390	 5.5440
 3.1410	 5.5290
 3.1430	 5.4110
 3.1450	 5.4190
 3.1460	 5.4020
 3.1480	 5.4710
 3.1500	 5.4100
 3.1520	 5.1710
 3.1540	 4.9660
 3.1560	 5.1460
 3.1580	 5.3850
 3.1600	 5.5840
 3.1620	 5.5880
 3.1640	 5.3590
 3.1660	 5.2910
 3.1680	 5.2530
 3.1700	 5.1300
 3.1710	 5.2100
 3.1730	 4.9990
 3.1750	 5.2460
 3.1770	 5.5520
 3.1790	 5.3350
 3.1810	 5.0330
 3.1830	 5.1500
 3.1850	 4.9740
 3.1870	 4.9360
 3.1890	 5.0530
 3.1910	 5.2980
 3.1930	 5.3400
 3.1950	 5.4960
 3.1970	 5.4770
 3.1990	 5.4550
 3.2010	 5.3550
 3.2030	 5.2450
 3.2050	 5.2960
 3.2070	 5.4640
 3.2090	 5.3990
 3.2110	 5.4150
 3.2130	 5.4340
 3.2150	 5.3970
 3.2170	 5.3620
 3.2190	 5.4420
 3.2210	 5.3660
 3.2230	 5.3640
 3.2250	 5.3960
 3.2270	 5.4520
 3.2290	 5.3840
 3.2310	 5.2930
 3.2330	 5.3330
 3.2350	 5.4570
 3.2370	 5.5110
 3.2390	 5.5830
 3.2410	 5.6270
 3.2430	 5.5770
 3.2450	 5.3290
 3.2470	 5.2860
 3.2490	 5.4020
 3.2510	 5.4130
 3.2530	 5.2970
 3.2550	 5.2500
 3.2570	 5.2590
 3.2590	 5.4280
 3.2610	 5.3810
 3.2630	 5.4310
 3.2650	 5.4660
 3.2670	 5.3910
 3.2690	 5.3100
 3.2720	 5.3890
 3.2740	 5.3790
 3.2760	 5.3550
 3.2780	 5.3460
 3.2800	 5.3430
 3.2820	 5.2490
 3.2840	 5.3030
 3.2860	 5.3270
 3.2880	 5.3610
 3.2900	 5.3400
 3.2920	 5.3320
 3.2940	 5.3570
 3.2960	 5.3390
 3.2990	 5.2530
 3.3010	 5.3300
 3.3030	 5.3650
 3.3050	 5.3820
 3.3070	 5.3050
 3.3090	 5.2970
 3.3110	 5.2930
 3.3130	 5.2960
 3.3150	 5.2200
 3.3180	 5.1830
 3.3200	 5.2010
 3.3220	 5.2580
 3.3240	 5.2290
 3.3260	 5.1930
 3.3280	 5.1520
 3.3300	 5.1200
 3.3330	 5.0370
 3.3350	 4.9790
 3.3370	 4.9340
 3.3390	 4.9750
 3.3410	 5.0010
 3.3430	 5.0530
 3.3450	 5.0120
 3.3480	 4.9920
 3.3500	 4.9260
 3.3520	 4.8400
 3.3540	 4.7740
 3.3560	 4.7900
 3.3580	 4.7910
 3.3610	 4.8360
 3.3630	 4.7350
 3.3650	 4.6740
 3.3670	 4.6510
 3.3690	 4.6570
 3.3720	 4.5030
 3.3740	 4.4180
 3.3760	 4.4460
 3.3780	 4.4610
 3.3800	 4.3540
 3.3830	 4.3940
 3.3850	 4.4480
 3.3870	 4.5040
 3.3890	 4.3970
 3.3910	 4.3760
 3.3940	 4.2760
 3.3960	 4.1350
 3.3980	 3.9990
 3.4000	 4.0000
 3.4020	 3.9110
 3.4050	 3.7660
 3.4070	 3.5810
 3.4090	 3.4690
 3.4110	 3.4290
 3.4140	 3.4690
 3.4160	 3.6270
 3.4180	 4.0910
 3.4200	 4.9340
 3.4230	 6.3020
 3.4250	 7.9990
 3.4270	 9.6030
 3.4290	10.4810
 3.4320	10.3660
 3.4340	 9.4800
 3.4360	 8.5480
 3.4390	 7.8980
 3.4410	 7.5030
 3.4430	 7.2060
 3.4450	 7.0370
 3.4480	 6.8360
 3.4500	 6.7480
 3.4520	 6.6470
 3.4550	 6.4280
 3.4570	 6.2470
 3.4590	 6.2620
 3.4620	 6.2560
 3.4640	 6.2890
 3.4660	 6.2540
 3.4680	 6.2100
 3.4710	 6.0630
 3.4730	 5.9700
 3.4750	 5.8890
 3.4780	 5.8770
 3.4800	 5.7860
 3.4820	 5.6960
 3.4850	 5.6260
 3.4870	 5.5990
 3.4890	 5.4160
 3.4920	 5.2890
 3.4940	 5.1600
 3.4970	 4.9900
 3.4990	 4.8470
 3.5010	 4.7360
 3.5040	 4.7270
 3.5060	 5.3880
 3.5080	 7.2260
 3.5110	 9.2620
 3.5130	 9.8520
 3.5160	 9.3990
 3.5180	 8.6540
 3.5200	 8.1140
 3.5230	 7.7070
 3.5250	 7.4400
 3.5270	 7.2590
 3.5300	 7.1640
 3.5320	 7.0740
 3.5350	 6.9970
 3.5370	 6.8640
 3.5400	 6.8090
 3.5420	 6.7550
 3.5440	 6.6710
 3.5470	 6.6240
 3.5490	 6.6310
 3.5520	 6.6200
 3.5540	 6.6290
 3.5570	 6.5430
 3.5590	 6.4680
 3.5610	 6.4140
 3.5640	 6.4420
 3.5660	 6.4120
 3.5690	 6.4000
 3.5710	 6.4420
 3.5740	 6.4940
 3.5760	 6.3450
 3.5790	 6.3350
 3.5810	 6.4270
 3.5840	 6.4420
 3.5860	 6.3790
 3.5890	 6.2730
 3.5910	 6.2920
 3.5930	 6.3670
 3.5960	 6.3110
 3.5980	 6.1920
 3.6010	 6.1820
 3.6030	 6.2170
 3.6060	 6.2260
 3.6080	 6.2630
 3.6110	 6.2370
 3.6140	 6.3160
 3.6160	 6.3150
 3.6190	 6.2890
 3.6210	 6.2560
 3.6240	 6.2030
 3.6260	 6.1750
 3.6290	 6.2210
 3.6310	 6.2010
 3.6340	 6.2310
 3.6360	 6.2810
 3.6390	 6.2540
 3.6410	 6.2100
 3.6440	 6.2740
 3.6470	 6.2360
 3.6490	 6.2420
 3.6520	 6.1820
 3.6540	 6.1620
 3.6570	 6.1800
 3.6590	 6.1600
 3.6620	 6.1000
 3.6650	 6.1550
 3.6670	 6.1780
 3.6700	 6.2180
 3.6720	 6.1740
 3.6750	 6.1290
 3.6780	 6.1060
 3.6800	 6.1530
 3.6830	 6.1780
 3.6850	 6.1470
 3.6880	 6.0920
 3.6910	 6.1170
 3.6930	 6.1730
 3.6960	 6.2090
 3.6990	 6.2060
 3.7010	 6.2090
 3.7040	 6.1720
 3.7060	 6.1530
 3.7090	 6.1400
 3.7120	 6.1630
 3.7140	 6.1210
 3.7170	 6.1250
 3.7200	 6.0870
 3.7220	 6.1210
 3.7250	 6.1330
 3.7280	 6.1920
 3.7300	 6.1990
 3.7330	 6.1380
 3.7360	 6.0100
 3.7390	 6.0180
 3.7410	 6.0650
 3.7440	 6.1320
 3.7470	 6.1330
 3.7490	 6.1060
 3.7520	 6.0880
 3.7550	 6.1240
 3.7580	 6.1040
 3.7600	 6.1020
 3.7630	 6.0770
 3.7660	 6.0170
 3.7680	 6.0630
 3.7710	 6.1640
 3.7740	 6.1880
 3.7770	 6.2170
 3.7790	 6.1560
 3.7820	 6.1120
 3.7850	 6.1040
 3.7880	 6.1750
 3.7900	 6.1400
 3.7930	 6.0740
 3.7960	 6.0590
 3.7990	 6.1090
 3.8020	 6.1280
 3.8040	 6.1580
 3.8070	 6.1740
 3.8100	 6.1450
 3.8130	 6.1480
 3.8160	 6.1900
 3.8180	 6.1880
 3.8210	 6.1520
 3.8240	 6.1140
 3.8270	 6.1640
 3.8300	 6.1890
 3.8330	 6.1650
 3.8350	 6.1220
 3.8380	 6.1620
 3.8410	 6.1850
 3.8440	 6.1810
 3.8470	 6.1640
 3.8500	 6.1450
 3.8520	 6.1180
 3.8550	 6.1160
 3.8580	 6.0770
 3.8610	 6.0910
 3.8640	 6.1500
 3.8670	 6.2180
 3.8700	 6.2480
 3.8730	 6.2910
 3.8750	 6.2060
 3.8780	 6.1540
 3.8810	 6.2050
 3.8840	 6.1930
 3.8870	 6.1950
 3.8900	 6.2440
 3.8930	 6.1880
 3.8960	 6.1910
 3.8990	 6.1320
 3.9020	 6.0630
 3.9050	 6.0580
 3.9080	 6.0900
 3.9110	 6.1930
 3.9140	 6.2160
 3.9160	 6.1500
 3.9190	 6.1980
 3.9220	 6.1630
 3.9250	 6.1380
 3.9280	 6.1370
 3.9310	 6.1840
 3.9340	 6.2170
 3.9370	 6.2730
 3.9400	 6.2870
 3.9430	 6.2560
 3.9460	 6.1880
 3.9490	 6.1850
 3.9520	 6.2150
 3.9550	 6.2320
 3.9580	 6.1860
 3.9610	 6.2000
 3.9640	 6.2200
 3.9670	 6.2390
 3.9700	 6.2180
 3.9730	 6.1840
 3.9770	 6.1460
 3.9800	 6.2260
 3.9830	 6.2380
 3.9860	 6.2290
 3.9890	 6.2180
 3.9920	 6.2080
 3.9950	 6.1740
 3.9980	 6.1790
 4.0010	 6.2000
 4.0040	 6.1950
 4.0070	 6.1700
 4.0100	 6.1720
 4.0130	 6.1920
 4.0170	 6.1910
 4.0200	 6.2070
 4.0230	 6.2690
 4.0260	 6.2300
 4.0290	 6.2480
 4.0320	 6.2560
 4.0350	 6.2620
 4.0380	 6.2560
 4.0420	 6.2480
 4.0450	 6.1840
 4.0480	 6.2510
 4.0510	 6.2970
 4.0540	 6.2670
 4.0570	 6.2250
 4.0610	 6.2140
 4.0640	 6.1910
 4.0670	 6.1870
 4.0700	 6.2630
 4.0730	 6.3160
 4.0770	 6.2630
 4.0800	 6.2390
 4.0830	 6.2130
 4.0860	 6.1580
 4.0890	 6.1660
 4.0930	 6.2330
 4.0960	 6.2100
 4.0990	 6.2240
 4.1020	 6.2640
 4.1060	 6.2240
 4.1090	 6.2140
 4.1120	 6.2570
 4.1150	 6.2590
 4.1190	 6.2850
 4.1220	 6.2690
 4.1250	 6.2370
 4.1280	 6.2320
 4.1320	 6.2980
 4.1350	 6.3130
 4.1380	 6.2640
 4.1420	 6.2140
 4.1450	 6.2180
 4.1480	 6.2260
 4.1520	 6.2510
 4.1550	 6.2610
 4.1580	 6.2540
 4.1620	 6.2020
 4.1650	 6.2640
 4.1680	 6.2570
 4.1720	 6.2360
 4.1750	 6.2580
 4.1780	 6.3190
 4.1820	 6.3030
 4.1850	 6.2240
 4.1890	 6.1770
 4.1920	 6.2680
 4.1950	 6.3490
 4.1990	 6.4550
 4.2020	 6.5000
 4.2060	 6.5090
 4.2090	 6.6110
 4.2120	 6.7920
 4.2160	 6.7640
 4.2190	 6.7560
 4.2230	 6.7000
 4.2260	 6.7040
 4.2300	 6.6710
 4.2330	 6.9540
 4.2360	 7.2320
 4.2400	 7.2870
 4.2430	 7.1180
 4.2470	 7.0020
 4.2500	 6.8610
 4.2540	 6.6110
 4.2570	 6.5410
 4.2610	 6.7580
 4.2640	 7.0110
 4.2680	 6.9690
 4.2710	 6.7520
 4.2750	 6.7550
 4.2780	 6.7550
 4.2820	 6.8020
 4.2850	 6.8420
 4.2890	 6.8540
 4.2930	 6.8550
 4.2960	 6.7930
 4.3000	 6.6470
 4.3030	 6.6860
 4.3070	 6.6830
 4.3100	 6.6410
 4.3140	 6.5810
 4.3180	 6.4650
 4.3210	 6.3740
 4.3250	 6.4160
 4.3280	 6.4830
 4.3320	 6.4280
 4.3360	 6.3430
 4.3390	 6.3210
 4.3430	 6.3010
 4.3470	 6.3420
 4.3500	 6.3270
 4.3540	 6.2760
 4.3570	 6.2450
 4.3610	 6.2480
 4.3650	 6.2510
 4.3680	 6.2350
 4.3720	 6.2080
 4.3760	 6.1910
 4.3800	 6.2120
 4.3830	 6.2260
 4.3870	 6.2160
 4.3910	 6.2130
 4.3940	 6.1920
 4.3980	 6.1460
 4.4020	 6.1710
 4.4060	 6.2100
 4.4090	 6.1810
 4.4130	 6.1380
 4.4170	 6.1300
 4.4210	 6.1780
 4.4240	 6.1460
 4.4280	 6.0580
 4.4320	 6.0620
 4.4360	 6.1250
 4.4400	 6.1280
 4.4430	 6.1270
 4.4470	 6.1540
 4.4510	 6.1890
 4.4550	 6.1750
 4.4590	 6.1480
 4.4620	 6.1290
 4.4660	 6.1270
 4.4700	 6.1460
 4.4740	 6.1250
 4.4780	 6.0800
 4.4820	 6.0760
 4.4860	 6.0940
 4.4900	 6.1300
 4.4930	 6.1080
 4.4970	 6.0770
 4.5010	 6.0800
 4.5050	 6.1250
 4.5090	 6.1210
 4.5130	 6.0660
 4.5170	 6.0950
 4.5210	 6.1340
 4.5250	 6.1040
 4.5290	 6.1100
 4.5330	 6.1570
 4.5370	 6.1570
 4.5410	 6.1040
 4.5450	 6.0720
 4.5490	 6.0290
 4.5530	 6.0110
 4.5570	 6.0330
 4.5610	 6.0220
 4.5650	 6.0010
 4.5690	 6.0650
 4.5730	 6.0930
 4.5770	 6.0420
 4.5810	 6.0280
 4.5850	 6.0850
 4.5890	 6.0490
 4.5930	 6.0030
 4.5970	 6.0050
 4.6010	 6.0060
 4.6050	 6.0510
 4.6090	 6.0490
 4.6130	 6.0260
 4.6170	 5.9810
 4.6220	 5.9540
 4.6260	 5.9760
 4.6300	 5.9870
 4.6340	 5.9750
 4.6380	 5.9540
 4.6420	 5.9250
 4.6460	 5.9540
 4.6510	 6.0070
 4.6550	 5.9680
 4.6590	 5.9310
 4.6630	 6.0280
 4.6670	 6.0840
 4.6720	 6.1080
 4.6760	 6.0610
 4.6800	 5.9890
 4.6840	 5.9810
 4.6880	 5.9960
 4.6930	 6.0090
 4.6970	 5.9820
 4.7010	 5.9480
 4.7050	 5.9260
 4.7100	 5.9500
 4.7140	 5.9920
 4.7180	 5.9630
 4.7230	 5.9710
 4.7270	 5.9780
 4.7310	 5.9790
 4.7360	 5.9580
 4.7400	 5.9660
 4.7440	 5.9530
 4.7490	 5.9550
 4.7530	 6.0100
 4.7570	 6.0010
 4.7620	 5.9990
 4.7660	 5.9710
 4.7700	 5.9230
 4.7750	 5.9270
 4.7790	 5.9240
 4.7840	 5.9600
 4.7880	 5.9340
 4.7920	 5.9480
 4.7970	 5.9790
 4.8010	 6.0080
 4.8060	 6.0440
 4.8100	 6.0620
 4.8150	 6.0340
 4.8190	 5.9930
 4.8240	 5.9450
 4.8280	 5.9380
 4.8330	 5.9900
 4.8370	 6.0160
 4.8420	 6.0230
 4.8460	 5.9660
 4.8510	 5.9200
 4.8550	 5.9720
 4.8600	 5.9620
 4.8640	 5.9960
 4.8690	 5.9600
 4.8730	 5.9450
 4.8780	 6.0030
 4.8830	 6.0210
 4.8870	 6.0170
 4.8920	 6.0150
 4.8960	 6.0280
 4.9010	 6.0230
 4.9060	 5.9880
 4.9100	 6.0240
 4.9150	 5.9860
 4.9200	 6.0080
 4.9240	 6.0500
 4.9290	 6.0590
 4.9340	 6.0240
 4.9380	 6.0200
 4.9430	 6.0330
 4.9480	 6.0190
 4.9530	 6.0030
 4.9570	 6.0030
 4.9620	 5.9800
 4.9670	 6.0120
 4.9720	 6.0400
 4.9760	 6.0010
 4.9810	 5.9870
 4.9860	 5.9970
 4.9910	 5.9730
 4.9960	 5.9840
 5.0000	 6.0030
 5.0050	 6.0160
 5.0100	 5.9900
 5.0150	 5.9950
 5.0200	 6.0070
 5.0250	 6.0610
 5.0290	 6.1140
 5.0340	 6.0960
 5.0390	 6.0880
 5.0440	 6.0720
 5.0490	 6.0160
 5.0540	 6.0430
 5.0590	 6.0170
 5.0640	 5.9930
 5.0690	 6.0290
 5.0740	 6.0200
 5.0790	 5.9630
 5.0840	 5.9910
 5.0890	 6.0380
 5.0940	 6.0450
 5.0990	 6.0050
 5.1040	 6.0140
 5.1090	 6.0630
 5.1140	 6.0640
 5.1190	 5.9700
 5.1240	 5.9920
 5.1290	 6.0580
 5.1340	 6.1050
 5.1390	 6.0550
 5.1440	 5.9900
 5.1490	 5.9920
 5.1540	 6.0370
 5.1600	 6.0700
 5.1650	 6.1410
 5.1700	 6.1270
 5.1750	 6.1150
 5.1800	 6.0380
 5.1850	 6.0400
 5.1910	 6.0680
 5.1960	 6.0490
 5.2010	 6.0390
 5.2060	 6.0440
 5.2110	 6.0020
 5.2170	 6.0080
 5.2220	 6.0190
 5.2270	 6.0240
 5.2320	 6.0380
 5.2380	 6.0110
 5.2430	 5.9750
 5.2480	 6.0060
 5.2540	 5.9880
 5.2590	 5.9930
 5.2640	 6.0440
 5.2700	 6.0870
 5.2750	 6.0950
 5.2800	 6.0890
 5.2860	 6.0430
 5.2910	 5.9990
 5.2970	 5.9930
 5.3020	 6.0480
 5.3070	 6.0990
 5.3130	 6.1250
 5.3180	 6.0500
 5.3240	 6.0400
 5.3290	 6.0550
 5.3350	 6.0300
 5.3400	 5.9810
 5.3460	 5.9490
 5.3510	 5.9570
 5.3570	 5.9950
 5.3620	 6.0080
 5.3680	 6.0110
 5.3730	 5.9570
 5.3790	 6.0080
 5.3850	 6.0480
 5.3900	 6.0450
 5.3960	 6.0520
 5.4010	 6.0370
 5.4070	 5.9880
 5.4130	 5.9360
 5.4180	 5.9110
 5.4240	 5.9820
 5.4300	 5.9930
 5.4350	 6.0070
 5.4410	 5.9710
 5.4470	 5.9720
 5.4530	 5.9490
 5.4580	 5.9720
 5.4640	 5.9450
 5.4700	 5.9580
 5.4760	 5.9300
 5.4810	 5.8540
 5.4870	 5.8390
 5.4930	 5.9590
 5.4990	 5.9960
 5.5050	 5.9230
 5.5110	 5.8410
 5.5160	 5.8120
 5.5220	 5.8300
 5.5280	 5.9550
 5.5340	 5.9530
 5.5400	 5.9080
 5.5460	 5.8500
 5.5520	 5.8700
 5.5580	 5.8460
 5.5640	 5.8560
 5.5700	 5.8690
 5.5760	 5.8130
 5.5820	 5.7350
 5.5880	 5.7770
 5.5940	 5.7850
 5.6000	 5.8160
 5.6060	 5.8020
 5.6120	 5.8380
 5.6180	 5.8130
 5.6240	 5.7310
 5.6300	 5.6530
 5.6360	 5.6440
 5.6420	 5.5700
 5.6490	 5.6430
 5.6550	 5.6900
 5.6610	 5.6780
 5.6670	 5.6610
 5.6730	 5.7010
 5.6800	 5.6670
 5.6860	 5.6310
 5.6920	 5.5920
 5.6980	 5.6030
 5.7040	 5.5500
 5.7110	 5.4990
 5.7170	 5.4860
 5.7230	 5.4560
 5.7300	 5.3810
 5.7360	 5.3710
 5.7420	 5.2620
 5.7490	 5.2370
 5.7550	 5.1960
 5.7620	 5.1620
 5.7680	 5.1980
 5.7740	 5.3250
 5.7810	 5.4950
 5.7870	 5.7000
 5.7940	 5.7340
 5.8000	 5.6840
 5.8070	 5.6240
 5.8130	 5.6420
 5.8200	 5.5650
 5.8260	 5.5240
 5.8330	 5.5330
 5.8390	 5.5540
 5.8460	 5.5360
 5.8530	 5.5590
 5.8590	 5.4730
 5.8660	 5.4920
 5.8720	 5.5180
 5.8790	 5.5260
 5.8860	 5.5440
 5.8920	 5.5840
 5.8990	 5.6050
 5.9060	 5.6560
 5.9130	 5.6200
 5.9190	 5.6680
 5.9260	 5.6340
 5.9330	 5.5840
 5.9400	 5.5630
 5.9470	 5.6500
 5.9530	 5.6070
 5.9600	 5.5910
 5.9670	 5.5800
 5.9740	 5.5630
 5.9810	 5.5430
 5.9880	 5.6070
 5.9950	 5.5980
 6.0020	 5.6730
 6.0090	 5.6660
 6.0160	 5.7020
 6.0230	 5.7080
 6.0300	 5.7520
 6.0370	 5.7120
 6.0440	 5.6980
 6.0510	 5.6680
 6.0580	 5.7190
 6.0650	 5.7340
 6.0720	 5.7450
 6.0790	 5.7230
 6.0860	 5.7850
 6.0930	 5.7750
 6.1000	 5.7200
 6.1080	 5.6560
 6.1150	 5.7200
 6.1220	 5.7540
 6.1290	 5.8330
 6.1370	 5.8160
 6.1440	 5.8290
 6.1510	 5.7880
 6.1580	 5.8130
 6.1660	 5.7370
 6.1730	 5.7790
 6.1800	 5.7580
 6.1880	 5.8090
 6.1950	 5.8270
 6.2030	 5.8570
 6.2100	 5.8000
 6.2170	 5.8460
 6.2250	 5.8810
 6.2320	 5.9610
 6.2400	 5.8800
 6.2470	 5.8470
 6.2550	 5.8720
 6.2630	 5.9400
 6.2700	 5.8410
 6.2780	 5.9150
 6.2850	 5.9530
 6.2930	 5.8860
 6.3010	 5.7890
 6.3080	 5.9050
 6.3160	 5.9640
 6.3240	 5.9190
 6.3310	 5.8310
 6.3390	 5.8590
 6.3470	 5.7720
 6.3550	 5.8420
 6.3620	 5.8990
 6.3700	 5.9660
 6.3780	 5.9520
 6.3860	 5.9140
 6.3940	 5.7510
 6.4020	 5.7560
 6.4100	 5.7410
 6.4180	 5.7580
 6.4260	 5.7900
 6.4330	 5.8230
 6.4410	 5.7900
 6.4490	 5.8460
 6.4580	 5.8050
 6.4660	 5.8240
 6.4740	 5.7410
 6.4820	 5.7660
 6.4900	 5.7640
 6.4980	 5.7620
 6.5060	 5.7560
 6.5140	 5.8040
 6.5230	 5.7520
 6.5310	 5.7640
 6.5390	 5.6730
 6.5470	 5.7140
 6.5550	 5.6880
 6.5640	 5.7160
 6.5720	 5.6600
 6.5800	 5.6610
 6.5890	 5.6400
 6.5970	 5.6670
 6.6060	 5.5780
 6.6140	 5.5560
 6.6220	 5.4840
 6.6310	 5.4700
 6.6390	 5.4150
 6.6480	 5.4900
 6.6560	 5.4930
 6.6650	 5.5350
 6.6740	 5.4780
 6.6820	 5.4660
 6.6910	 5.4520
 6.6990	 5.4800
 6.7080	 5.3810
 6.7170	 5.2900
 6.7260	 5.1830
 6.7340	 5.2000
 6.7430	 5.0730
 6.7520	 4.9600
 6.7610	 4.8050
 6.7690	 4.6660
 6.7780	 4.6800
 6.7870	 5.8200
 6.7960	 6.6680
 6.8050	 6.3170
 6.8140	 5.7000
 6.8230	 5.4410
 6.8320	 5.8910
 6.8410	 7.0060
 6.8500	 7.2420
 6.8590	 6.8230
 6.8680	 6.4340
 6.8770	 6.2670
 6.8860	 6.1210
 6.8950	 6.1100
 6.9050	 5.9890
 6.9140	 5.9430
 6.9230	 5.9430
 6.9320	 5.9630
 6.9420	 5.8500
 6.9510	 5.8090
 6.9600	 5.7560
 6.9700	 5.8060
 6.9790	 5.7730
 6.9880	 5.8110
 6.9980	 5.7500
 7.0070	 5.6790
 7.0170	 5.6020
 7.0260	 5.7130
 7.0360	 5.7960
 7.0450	 5.8620
 7.0550	 5.7630
 7.0650	 5.8200
 7.0740	 5.8310
 7.0840	 5.8460
 7.0940	 5.8400
 7.1030	 5.9120
 7.1130	 5.8740
 7.1230	 5.9380
 7.1330	 5.9000
 7.1420	 5.9510
 7.1520	 5.9390
 7.1620	 5.9450
 7.1720	 5.8610
 7.1820	 5.8930
 7.1920	 5.7910
 7.2020	 5.7940
 7.2120	 5.6620
 7.2220	 5.6250
 7.2320	 5.5320
 7.2420	 5.5470
 7.2520	 5.5780
 7.2620	 5.7500
 7.2730	 5.7370
 7.2830	 5.6740
 7.2930	 5.5890
 7.3030	 5.6290
 7.3140	 5.5370
 7.3240	 5.5630
 7.3340	 5.5320
 7.3450	 5.5700
 7.3550	 5.5620
 7.3660	 5.5610
 7.3760	 5.5040
 7.3870	 5.5780
 7.3970	 5.5620
 7.4080	 5.5940
 7.4180	 5.5510
 7.4290	 5.6440
 7.4400	 5.6160
 7.4500	 5.6150
 7.4610	 5.5330
 7.4720	 5.6220
 7.4830	 5.6210
 7.4930	 5.5640
 7.5040	 5.5000
 7.5150	 5.5500
 7.5260	 5.5510
 7.5370	 5.6280
 7.5480	 5.5430
 7.5590	 5.5710
 7.5700	 5.5510
 7.5810	 5.5880
 7.5920	 5.5870
 7.6030	 5.5770
 7.6140	 5.4450
 7.6260	 5.5050
 7.6370	 5.5270
 7.6480	 5.6170
 7.6590	 5.5280
 7.6710	 5.6380
 7.6820	 5.5360
 7.6930	 5.5810
 7.7050	 5.6170
 7.7160	 5.6110
 7.7280	 5.4390
 7.7390	 5.4070
 7.7510	 5.4080
 7.7630	 5.4950
 7.7740	 5.4350
 7.7860	 5.4880
 7.7980	 5.4780
 7.8090	 5.5680
 7.8210	 5.4750
 7.8330	 5.5480
 7.8450	 5.4850
 7.8570	 5.4270
 7.8690	 5.2670
 7.8810	 5.3430
 7.8930	 5.3510
 7.9050	 5.4040
 7.9170	 5.3370
 7.9290	 5.4340
 7.9410	 5.3080
 7.9530	 5.2800
 7.9650	 5.2470
 7.9780	 5.2940
 7.9900	 5.2480
 8.0020	 5.3190
 8.0150	 5.2460
 8.0270	 5.3040
 8.0390	 5.2130
 8.0520	 5.2730
 8.0640	 5.2500
 8.0770	 5.2940
 8.0900	 5.2680
 8.1020	 5.3330
 8.1150	 5.1980
 8.1280	 5.3110
 8.1400	 5.2790
 8.1530	 5.2380
 8.1660	 5.1410
 8.1790	 5.2600
 8.1920	 5.1720
 8.2050	 5.2200
 8.2180	 5.2050
 8.2310	 5.2390
 8.2440	 5.1030
 8.2570	 5.2250
 8.2700	 5.1770
 8.2830	 5.2540
 8.2970	 5.1720
 8.3100	 5.1590
 8.3230	 5.0300
 8.3370	 5.1620
 8.3500	 5.2010
 8.3640	 5.2990
 8.3770	 5.1960
 8.3910	 5.2910
 8.4040	 5.1600
 8.4180	 5.1500
 8.4320	 4.9990
 8.4450	 5.0810
 8.4590	 4.9450
 8.4730	 4.9820
 8.4870	 4.9880
 8.5010	 5.0680
 8.5150	 4.8170
 8.5290	 4.8260
 8.5430	 4.7710
 8.5570	 4.9290
 8.5710	 4.9640
 8.5850	 5.0080
 8.5990	 4.8690
 8.6140	 4.9480
 8.6280	 4.8690
 8.6420	 4.9230
 8.6570	 4.8210
 8.6710	 4.8540
 8.6860	 4.8330
 8.7000	 5.0550
 8.7150	 4.8830
 8.7300	 5.0420
 8.7440	 5.0040
 8.7590	 5.0130
 8.7740	 4.9350
 8.7890	 5.0410
 8.8040	 4.9490
 8.8190	 5.0430
 8.8340	 4.9830
 8.8490	 5.1210
 8.8640	 5.0960
 8.8790	 5.2830
 8.8940	 5.2380
 8.9100	 5.3290
 8.9250	 5.1200
 8.9400	 5.1840
 8.9560	 5.1620
 8.9710	 5.1750
 8.9870	 4.9810
 9.0020	 5.1050
 9.0180	 5.1610
 9.0340	 5.3770
 9.0500	 5.2810
 9.0650	 5.2720
 9.0810	 5.1280
 9.0970	 5.2640
 9.1130	 5.2110
 9.1290	 5.3160
 9.1450	 5.1170
 9.1610	 5.1130
 9.1780	 5.0190
 9.1940	 5.1760
 9.2100	 5.0100
 9.2270	 5.1110
 9.2430	 5.0720
 9.2600	 5.3160
 9.2760	 5.2250
 9.2930	 5.2710
 9.3090	 5.1980
 9.3260	 5.3570
 9.3430	 5.2610
 9.3600	 5.3680
 9.3770	 5.3740
 9.3940	 5.4600
 9.4110	 5.2530
 9.4280	 5.3690
 9.4450	 5.2650
 9.4620	 5.4470
 9.4800	 5.3290
 9.4970	 5.2980
 9.5140	 5.1250
 9.5320	 5.3670
 9.5500	 5.3280
 9.5670	 5.3940
 9.5850	 5.2710
 9.6030	 5.3310
 9.6200	 5.2110
 9.6380	 5.4610
 9.6560	 5.3130
 9.6740	 5.4030
 9.6920	 5.2160
 9.7100	 5.1680
 9.7290	 5.0480
 9.7470	 5.2320
 9.7650	 5.1650
 9.7840	 5.3180
 9.8020	 5.2260
 9.8210	 5.6290
 9.8390	 5.6560
 9.8580	 5.5070
 9.8770	 5.3010
 9.8960	 5.3910
 9.9150	 5.3100
 9.9340	 5.4590
 9.9530	 5.4040
 9.9720	 5.4200
 9.9910	 5.2440
10.0100	 5.3390
10.0300	 5.2110
10.0490	 5.2750
10.0690	 5.2360
10.0880	 5.3200
10.1080	 5.2610
10.1280	 5.4260
10.1480	 5.3170
10.1670	 5.4940
10.1870	 5.4590
10.2070	 5.6500
10.2280	 5.5310
10.2480	 5.5580
10.2680	 5.5090
10.2890	 5.5820
10.3090	 5.4420
10.3300	 5.6120
10.3500	 5.6320
10.3710	 5.7460
10.3920	 5.6210
10.4120	 5.7270
10.4330	 5.6430
10.4540	 5.7890
10.4760	 5.7240
10.4970	 5.9320
10.5180	 5.7200
10.5390	 5.7890
10.5610	 5.8770
10.5820	 5.9600
10.6040	 5.7710
10.6260	 5.8070
10.6480	 5.6500
10.6700	 5.7180
10.6920	 5.6200
10.7140	 5.8300
10.7360	 5.6830
10.7580	 5.7540
10.7800	 5.7380
10.8030	 5.8880
10.8250	 5.7720
10.8480	 5.9100
10.8710	 5.6950
10.8940	 5.7010
10.9170	 5.5980
10.9400	 5.8530
10.9630	 5.7050
10.9860	 5.7680
11.0090	 5.6430
11.0330	 5.7300
11.0560	 5.6660
11.0800	 5.8130
11.1040	 5.5060
11.1270	 5.5150
11.1510	 5.5400
11.1750	 5.8100
11.2000	 5.7410
11.2240	 5.9180
11.2480	 5.8830
11.2730	 6.0020
11.2970	 5.9500
11.3220	 5.9430
11.3470	 5.6160
11.3720	 6.0050
11.3970	 5.9540
11.4220	 5.9590
11.4470	 5.9050
11.4720	 6.1080
11.4980	 5.9320
11.5230	 6.1020
11.5490	 5.9220
11.5750	 5.9510
11.6000	 5.8080
11.6260	 5.8990
11.6530	 5.7630
11.6790	 5.9650
11.7050	 5.7890
11.7320	 6.0060
11.7580	 5.8840
11.7850	 5.9830
11.8120	 5.8610
11.8390	 6.0250
11.8660	 5.8260
11.8930	 6.0770
11.9200	 5.9840
11.9480	 6.0350
11.9760	 5.7370
12.0030	 5.8610
12.0310	 5.7700
12.0590	 5.9890
12.0870	 5.8020
12.1150	 5.9700
12.1440	 5.7980
12.1720	 5.9090
12.2010	 5.8270
12.2300	 6.0440
12.2590	 5.8040
12.2880	 6.0110
12.3170	 5.8310
12.3460	 5.9470
12.3760	 5.8080
12.4050	 6.0300
12.4350	 5.7190
12.4650	 5.8180
12.4950	 5.6680
12.5250	 5.9880
12.5550	 5.9840
12.5860	 6.1290
12.6170	 5.8770
12.6470	 6.1550
12.6780	 5.9920
12.7090	 6.1700
12.7410	 5.9080
12.7720	 6.0370
12.8030	 5.7670
12.8350	 5.8980
12.8670	 5.7310
12.8990	 5.8690
12.9310	 5.6580
12.9640	 5.9230
12.9960	 5.6760
13.0290	 5.7610
13.0610	 5.6690
13.0940	 5.8900
13.1280	 5.6230
13.1610	 5.8050
13.1940	 5.6860
13.2280	 5.9620
13.2620	 5.6580
13.2960	 5.6820
13.3300	 5.4720
13.3640	 5.6520
13.3990	 5.5150
13.4340	 5.6560
13.4690	 5.3000
13.5040	 5.6080
13.5390	 5.4380
13.5740	 5.6940
13.6100	 5.3620
13.6460	 5.8430
13.6820	 6.5710
13.7180	 7.1670
13.7540	 6.3870
13.7910	 6.1950
13.8280	 5.9440
13.8650	 6.8030
13.9020	 7.6130
13.9390	 7.9730
13.9770	 7.1610
14.0150	 6.8500
14.0530	 6.3260
14.0910	 6.5930
14.1290	 6.3220
14.1680	 6.3370
14.2070	 5.9930
14.2460	 6.2640
14.2850	 6.0080
14.3240	 6.5720
14.3640	 6.1730
14.4040	 6.3330
14.4440	 5.9650
14.4840	 6.2460
14.5250	 6.0350
14.5660	 6.4720
14.6070	 6.1290
14.6480	 6.4950
14.6900	 5.9840
14.7310	 6.2100
14.7730	 5.8870
14.8150	 6.5540
14.8580	 6.1560
14.9010	 6.4540
14.9440	 6.1180
14.9870	 6.9510
15.0300	 6.0370
15.0740	 6.3280
15.1180	 5.9060
15.1620	 6.5370
15.2060	 6.0460
15.2510	 6.6410
15.2960	 6.3060
15.3410	 7.0170
15.3870	 6.3180
