Name: Quercus lobata 1
Type: vegetation
Class: Tree
Genus: Quercus
Species: lobata
Sample No.: VH085
Owner: UCSB
Wavelength Range: VSWIR
Origin: 34.7139; -120.0598; WGS84
Collection Date: 4/21/2013
Description: Samples were collected as part of the HyspIRI Airborne Campaign. 48 individual plants were sampled in three times in 2013 - spring  summer  and fall. The name of the sample includes a 1  2  or 3 which references a different individual of the species. Samples were taken to JPL and processed within 48 hours of collection. The same leaves were processed in the Nicolet and then measured using the ASD.
Measurement: Bidirectional reflectance
First Column: X
Second Column: Y
X Units: Wavelength (micrometers)
Y Units: Reflectance (percentage)
First X Value: 0.35
Last X Value: 2.5
Number of X Values: 2151
Additional Information: vegetation.tree.quercus.lobata.vswir.vh085.ucsb.asd.ancillary.txt

 0.3500	 5.5480
 0.3510	 5.3070
 0.3520	 5.2470
 0.3530	 5.2810
 0.3540	 5.2550
 0.3550	 5.1160
 0.3560	 5.0380
 0.3570	 5.0360
 0.3580	 5.0420
 0.3590	 5.0430
 0.3600	 5.0610
 0.3610	 5.0600
 0.3620	 4.9060
 0.3630	 4.9400
 0.3640	 5.0800
 0.3650	 5.1730
 0.3660	 5.2340
 0.3670	 5.2170
 0.3680	 5.1360
 0.3690	 5.0580
 0.3700	 5.1660
 0.3710	 5.2480
 0.3720	 5.1870
 0.3730	 5.1310
 0.3740	 5.1420
 0.3750	 5.1750
 0.3760	 5.1680
 0.3770	 5.1940
 0.3780	 5.1590
 0.3790	 5.1310
 0.3800	 5.2930
 0.3810	 5.3570
 0.3820	 5.3480
 0.3830	 5.3320
 0.3840	 5.3350
 0.3850	 5.3560
 0.3860	 5.3510
 0.3870	 5.2940
 0.3880	 5.3630
 0.3890	 5.3810
 0.3900	 5.3460
 0.3910	 5.4410
 0.3920	 5.4540
 0.3930	 5.4610
 0.3940	 5.5420
 0.3950	 5.6380
 0.3960	 5.7010
 0.3970	 5.7110
 0.3980	 5.6800
 0.3990	 5.7370
 0.4000	 5.8280
 0.4010	 5.9040
 0.4020	 5.9390
 0.4030	 5.9850
 0.4040	 6.0410
 0.4050	 6.0980
 0.4060	 6.1580
 0.4070	 6.2160
 0.4080	 6.2750
 0.4090	 6.3400
 0.4100	 6.4210
 0.4110	 6.4930
 0.4120	 6.5480
 0.4130	 6.6000
 0.4140	 6.6760
 0.4150	 6.7550
 0.4160	 6.8110
 0.4170	 6.8860
 0.4180	 6.9550
 0.4190	 7.0050
 0.4200	 7.0350
 0.4210	 7.0840
 0.4220	 7.1430
 0.4230	 7.2000
 0.4240	 7.2550
 0.4250	 7.2970
 0.4260	 7.3340
 0.4270	 7.3810
 0.4280	 7.4240
 0.4290	 7.4520
 0.4300	 7.4620
 0.4310	 7.4670
 0.4320	 7.5130
 0.4330	 7.5640
 0.4340	 7.5830
 0.4350	 7.6100
 0.4360	 7.6300
 0.4370	 7.6480
 0.4380	 7.6750
 0.4390	 7.6820
 0.4400	 7.6940
 0.4410	 7.7240
 0.4420	 7.7410
 0.4430	 7.7450
 0.4440	 7.7450
 0.4450	 7.7540
 0.4460	 7.7700
 0.4470	 7.7910
 0.4480	 7.8070
 0.4490	 7.8060
 0.4500	 7.8250
 0.4510	 7.8560
 0.4520	 7.8790
 0.4530	 7.8810
 0.4540	 7.8920
 0.4550	 7.9070
 0.4560	 7.9020
 0.4570	 7.9060
 0.4580	 7.9140
 0.4590	 7.9170
 0.4600	 7.9180
 0.4610	 7.9350
 0.4620	 7.9480
 0.4630	 7.9320
 0.4640	 7.9440
 0.4650	 7.9490
 0.4660	 7.9440
 0.4670	 7.9570
 0.4680	 7.9640
 0.4690	 7.9620
 0.4700	 7.9550
 0.4710	 7.9600
 0.4720	 7.9650
 0.4730	 7.9640
 0.4740	 7.9600
 0.4750	 7.9680
 0.4760	 7.9790
 0.4770	 7.9830
 0.4780	 7.9730
 0.4790	 7.9750
 0.4800	 7.9840
 0.4810	 7.9860
 0.4820	 7.9850
 0.4830	 7.9860
 0.4840	 7.9920
 0.4850	 8.0070
 0.4860	 8.0090
 0.4870	 8.0160
 0.4880	 8.0380
 0.4890	 8.0480
 0.4900	 8.0510
 0.4910	 8.0590
 0.4920	 8.0790
 0.4930	 8.0960
 0.4940	 8.1140
 0.4950	 8.1370
 0.4960	 8.1670
 0.4970	 8.1860
 0.4980	 8.2100
 0.4990	 8.2500
 0.5000	 8.2730
 0.5010	 8.3060
 0.5020	 8.3550
 0.5030	 8.4120
 0.5040	 8.4650
 0.5050	 8.5210
 0.5060	 8.5860
 0.5070	 8.6640
 0.5080	 8.7490
 0.5090	 8.8430
 0.5100	 8.9530
 0.5110	 9.0610
 0.5120	 9.1790
 0.5130	 9.3130
 0.5140	 9.4620
 0.5150	 9.6170
 0.5160	 9.7870
 0.5170	 9.9770
 0.5180	10.1650
 0.5190	10.3600
 0.5200	10.5660
 0.5210	10.7830
 0.5220	10.9990
 0.5230	11.2160
 0.5240	11.4340
 0.5250	11.6360
 0.5260	11.8410
 0.5270	12.0420
 0.5280	12.2230
 0.5290	12.3910
 0.5300	12.5540
 0.5310	12.7100
 0.5320	12.8510
 0.5330	12.9790
 0.5340	13.0980
 0.5350	13.2090
 0.5360	13.3060
 0.5370	13.4010
 0.5380	13.4900
 0.5390	13.5660
 0.5400	13.6410
 0.5410	13.7180
 0.5420	13.7960
 0.5430	13.8710
 0.5440	13.9370
 0.5450	13.9940
 0.5460	14.0440
 0.5470	14.0880
 0.5480	14.1300
 0.5490	14.1690
 0.5500	14.2000
 0.5510	14.2240
 0.5520	14.2350
 0.5530	14.2310
 0.5540	14.2190
 0.5550	14.1920
 0.5560	14.1480
 0.5570	14.0900
 0.5580	14.0190
 0.5590	13.9400
 0.5600	13.8550
 0.5610	13.7630
 0.5620	13.6600
 0.5630	13.5530
 0.5640	13.4500
 0.5650	13.3280
 0.5660	13.1920
 0.5670	13.0500
 0.5680	12.9110
 0.5690	12.7650
 0.5700	12.6150
 0.5710	12.4680
 0.5720	12.3380
 0.5730	12.2210
 0.5740	12.1200
 0.5750	12.0330
 0.5760	11.9420
 0.5770	11.8560
 0.5780	11.7770
 0.5790	11.6990
 0.5800	11.6200
 0.5810	11.5470
 0.5820	11.4840
 0.5830	11.4180
 0.5840	11.3530
 0.5850	11.2860
 0.5860	11.2100
 0.5870	11.1290
 0.5880	11.0560
 0.5890	11.0040
 0.5900	10.9740
 0.5910	10.9550
 0.5920	10.9450
 0.5930	10.9430
 0.5940	10.9300
 0.5950	10.9080
 0.5960	10.8810
 0.5970	10.8490
 0.5980	10.8180
 0.5990	10.7860
 0.6000	10.7510
 0.6010	10.7170
 0.6020	10.6820
 0.6030	10.6430
 0.6040	10.6010
 0.6050	10.5560
 0.6060	10.5050
 0.6070	10.4490
 0.6080	10.3920
 0.6090	10.3300
 0.6100	10.2670
 0.6110	10.2100
 0.6120	10.1480
 0.6130	10.0800
 0.6140	10.0100
 0.6150	 9.9480
 0.6160	 9.8910
 0.6170	 9.8370
 0.6180	 9.7890
 0.6190	 9.7440
 0.6200	 9.7030
 0.6210	 9.6650
 0.6220	 9.6330
 0.6230	 9.6090
 0.6240	 9.5870
 0.6250	 9.5640
 0.6260	 9.5450
 0.6270	 9.5310
 0.6280	 9.5210
 0.6290	 9.5140
 0.6300	 9.5070
 0.6310	 9.5010
 0.6320	 9.4940
 0.6330	 9.4840
 0.6340	 9.4670
 0.6350	 9.4460
 0.6360	 9.4210
 0.6370	 9.3890
 0.6380	 9.3470
 0.6390	 9.2990
 0.6400	 9.2520
 0.6410	 9.1970
 0.6420	 9.1420
 0.6430	 9.0900
 0.6440	 9.0320
 0.6450	 8.9780
 0.6460	 8.9270
 0.6470	 8.8750
 0.6480	 8.8240
 0.6490	 8.7840
 0.6500	 8.7530
 0.6510	 8.7190
 0.6520	 8.6900
 0.6530	 8.6640
 0.6540	 8.6380
 0.6550	 8.6070
 0.6560	 8.5730
 0.6570	 8.5390
 0.6580	 8.5080
 0.6590	 8.4700
 0.6600	 8.4320
 0.6610	 8.3980
 0.6620	 8.3660
 0.6630	 8.3280
 0.6640	 8.2930
 0.6650	 8.2680
 0.6660	 8.2460
 0.6670	 8.2290
 0.6680	 8.2170
 0.6690	 8.2090
 0.6700	 8.2020
 0.6710	 8.1990
 0.6720	 8.2000
 0.6730	 8.2010
 0.6740	 8.2060
 0.6750	 8.2160
 0.6760	 8.2260
 0.6770	 8.2410
 0.6780	 8.2560
 0.6790	 8.2750
 0.6800	 8.2990
 0.6810	 8.3250
 0.6820	 8.3570
 0.6830	 8.3950
 0.6840	 8.4420
 0.6850	 8.4980
 0.6860	 8.5660
 0.6870	 8.6510
 0.6880	 8.7570
 0.6890	 8.8940
 0.6900	 9.0700
 0.6910	 9.2860
 0.6920	 9.5470
 0.6930	 9.8630
 0.6940	10.2400
 0.6950	10.6760
 0.6960	11.1720
 0.6970	11.7280
 0.6980	12.3410
 0.6990	13.0040
 0.7000	13.7110
 0.7010	14.4550
 0.7020	15.2250
 0.7030	16.0110
 0.7040	16.8090
 0.7050	17.6160
 0.7060	18.4260
 0.7070	19.2320
 0.7080	20.0330
 0.7090	20.8290
 0.7100	21.6150
 0.7110	22.3950
 0.7120	23.1660
 0.7130	23.9190
 0.7140	24.6670
 0.7150	25.4060
 0.7160	26.1290
 0.7170	26.8300
 0.7180	27.5190
 0.7190	28.1930
 0.7200	28.8470
 0.7210	29.4890
 0.7220	30.1100
 0.7230	30.7070
 0.7240	31.2900
 0.7250	31.8500
 0.7260	32.3830
 0.7270	32.8900
 0.7280	33.3800
 0.7290	33.8440
 0.7300	34.2830
 0.7310	34.6990
 0.7320	35.0970
 0.7330	35.4720
 0.7340	35.8230
 0.7350	36.1510
 0.7360	36.4660
 0.7370	36.7620
 0.7380	37.0370
 0.7390	37.2970
 0.7400	37.5410
 0.7410	37.7700
 0.7420	37.9830
 0.7430	38.1800
 0.7440	38.3590
 0.7450	38.5250
 0.7460	38.6860
 0.7470	38.8320
 0.7480	38.9660
 0.7490	39.0910
 0.7500	39.2030
 0.7510	39.3070
 0.7520	39.4010
 0.7530	39.4860
 0.7540	39.5680
 0.7550	39.6410
 0.7560	39.7040
 0.7570	39.7640
 0.7580	39.8230
 0.7590	39.8770
 0.7600	39.9260
 0.7610	39.9700
 0.7620	40.0070
 0.7630	40.0380
 0.7640	40.0690
 0.7650	40.1020
 0.7660	40.1340
 0.7670	40.1620
 0.7680	40.1850
 0.7690	40.2030
 0.7700	40.2250
 0.7710	40.2510
 0.7720	40.2640
 0.7730	40.2770
 0.7740	40.2950
 0.7750	40.3140
 0.7760	40.3220
 0.7770	40.3350
 0.7780	40.3500
 0.7790	40.3600
 0.7800	40.3680
 0.7810	40.3800
 0.7820	40.3940
 0.7830	40.4080
 0.7840	40.4190
 0.7850	40.4240
 0.7860	40.4260
 0.7870	40.4360
 0.7880	40.4490
 0.7890	40.4590
 0.7900	40.4650
 0.7910	40.4650
 0.7920	40.4700
 0.7930	40.4800
 0.7940	40.4840
 0.7950	40.4910
 0.7960	40.4930
 0.7970	40.4900
 0.7980	40.4980
 0.7990	40.5000
 0.8000	40.4990
 0.8010	40.5020
 0.8020	40.4950
 0.8030	40.4920
 0.8040	40.4920
 0.8050	40.4860
 0.8060	40.4850
 0.8070	40.4840
 0.8080	40.4810
 0.8090	40.4770
 0.8100	40.4690
 0.8110	40.4650
 0.8120	40.4670
 0.8130	40.4620
 0.8140	40.4540
 0.8150	40.4450
 0.8160	40.4370
 0.8170	40.4340
 0.8180	40.4270
 0.8190	40.4180
 0.8200	40.4120
 0.8210	40.3990
 0.8220	40.3960
 0.8230	40.3980
 0.8240	40.3820
 0.8250	40.3720
 0.8260	40.3610
 0.8270	40.3460
 0.8280	40.3420
 0.8290	40.3370
 0.8300	40.3280
 0.8310	40.3160
 0.8320	40.3090
 0.8330	40.3010
 0.8340	40.2930
 0.8350	40.2850
 0.8360	40.2780
 0.8370	40.2740
 0.8380	40.2710
 0.8390	40.2680
 0.8400	40.2620
 0.8410	40.2550
 0.8420	40.2490
 0.8430	40.2500
 0.8440	40.2460
 0.8450	40.2390
 0.8460	40.2380
 0.8470	40.2460
 0.8480	40.2450
 0.8490	40.2380
 0.8500	40.2340
 0.8510	40.2390
 0.8520	40.2370
 0.8530	40.2320
 0.8540	40.2390
 0.8550	40.2400
 0.8560	40.2400
 0.8570	40.2390
 0.8580	40.2360
 0.8590	40.2410
 0.8600	40.2460
 0.8610	40.2480
 0.8620	40.2520
 0.8630	40.2550
 0.8640	40.2590
 0.8650	40.2640
 0.8660	40.2670
 0.8670	40.2740
 0.8680	40.2810
 0.8690	40.2810
 0.8700	40.2790
 0.8710	40.2770
 0.8720	40.2830
 0.8730	40.3000
 0.8740	40.3070
 0.8750	40.3060
 0.8760	40.3050
 0.8770	40.3160
 0.8780	40.3190
 0.8790	40.3220
 0.8800	40.3290
 0.8810	40.3380
 0.8820	40.3410
 0.8830	40.3440
 0.8840	40.3520
 0.8850	40.3610
 0.8860	40.3580
 0.8870	40.3580
 0.8880	40.3770
 0.8890	40.3840
 0.8900	40.3870
 0.8910	40.3880
 0.8920	40.3900
 0.8930	40.3960
 0.8940	40.4030
 0.8950	40.4080
 0.8960	40.4090
 0.8970	40.4140
 0.8980	40.4180
 0.8990	40.4180
 0.9000	40.4150
 0.9010	40.4290
 0.9020	40.4400
 0.9030	40.4360
 0.9040	40.4300
 0.9050	40.4490
 0.9060	40.4640
 0.9070	40.4570
 0.9080	40.4500
 0.9090	40.4570
 0.9100	40.4690
 0.9110	40.4760
 0.9120	40.4860
 0.9130	40.4860
 0.9140	40.4810
 0.9150	40.4810
 0.9160	40.4820
 0.9170	40.4800
 0.9180	40.4740
 0.9190	40.4670
 0.9200	40.4670
 0.9210	40.4700
 0.9220	40.4710
 0.9230	40.4700
 0.9240	40.4740
 0.9250	40.4700
 0.9260	40.4590
 0.9270	40.4490
 0.9280	40.4340
 0.9290	40.4270
 0.9300	40.4260
 0.9310	40.4090
 0.9320	40.3870
 0.9330	40.3690
 0.9340	40.3600
 0.9350	40.3530
 0.9360	40.3460
 0.9370	40.3270
 0.9380	40.2970
 0.9390	40.2730
 0.9400	40.2590
 0.9410	40.2460
 0.9420	40.2270
 0.9430	40.2080
 0.9440	40.1920
 0.9450	40.1660
 0.9460	40.1280
 0.9470	40.1060
 0.9480	40.0700
 0.9490	40.0290
 0.9500	39.9940
 0.9510	39.9570
 0.9520	39.9210
 0.9530	39.8800
 0.9540	39.8330
 0.9550	39.7910
 0.9560	39.7490
 0.9570	39.7080
 0.9580	39.6720
 0.9590	39.6430
 0.9600	39.6080
 0.9610	39.5670
 0.9620	39.5290
 0.9630	39.5050
 0.9640	39.4910
 0.9650	39.4740
 0.9660	39.4480
 0.9670	39.4630
 0.9680	39.4500
 0.9690	39.4240
 0.9700	39.4260
 0.9710	39.4120
 0.9720	39.4010
 0.9730	39.3960
 0.9740	39.3900
 0.9750	39.3850
 0.9760	39.3770
 0.9770	39.3730
 0.9780	39.3820
 0.9790	39.3800
 0.9800	39.3650
 0.9810	39.3650
 0.9820	39.3980
 0.9830	39.3990
 0.9840	39.3860
 0.9850	39.3850
 0.9860	39.4080
 0.9870	39.4110
 0.9880	39.4140
 0.9890	39.4340
 0.9900	39.4680
 0.9910	39.4530
 0.9920	39.4630
 0.9930	39.4740
 0.9940	39.4840
 0.9950	39.4940
 0.9960	39.5040
 0.9970	39.5150
 0.9980	39.5250
 0.9990	39.5350
 1.0000	39.5450
 1.0010	39.5560
 1.0020	39.5660
 1.0030	39.5760
 1.0040	39.5870
 1.0050	39.5970
 1.0060	39.6070
 1.0070	39.6170
 1.0080	39.6280
 1.0090	39.6380
 1.0100	39.6380
 1.0110	39.6540
 1.0120	39.6690
 1.0130	39.6850
 1.0140	39.6980
 1.0150	39.7110
 1.0160	39.7220
 1.0170	39.7320
 1.0180	39.7420
 1.0190	39.7530
 1.0200	39.7660
 1.0210	39.7770
 1.0220	39.7840
 1.0230	39.7950
 1.0240	39.8080
 1.0250	39.8170
 1.0260	39.8250
 1.0270	39.8340
 1.0280	39.8400
 1.0290	39.8480
 1.0300	39.8600
 1.0310	39.8700
 1.0320	39.8800
 1.0330	39.8920
 1.0340	39.8970
 1.0350	39.9010
 1.0360	39.9090
 1.0370	39.9150
 1.0380	39.9210
 1.0390	39.9290
 1.0400	39.9360
 1.0410	39.9400
 1.0420	39.9470
 1.0430	39.9590
 1.0440	39.9640
 1.0450	39.9660
 1.0460	39.9710
 1.0470	39.9740
 1.0480	39.9800
 1.0490	39.9910
 1.0500	39.9980
 1.0510	40.0000
 1.0520	40.0050
 1.0530	40.0120
 1.0540	40.0200
 1.0550	40.0270
 1.0560	40.0380
 1.0570	40.0430
 1.0580	40.0400
 1.0590	40.0450
 1.0600	40.0530
 1.0610	40.0590
 1.0620	40.0690
 1.0630	40.0760
 1.0640	40.0820
 1.0650	40.0840
 1.0660	40.0820
 1.0670	40.0840
 1.0680	40.0860
 1.0690	40.0860
 1.0700	40.0870
 1.0710	40.0920
 1.0720	40.0940
 1.0730	40.0930
 1.0740	40.0950
 1.0750	40.1010
 1.0760	40.1030
 1.0770	40.1060
 1.0780	40.1070
 1.0790	40.1060
 1.0800	40.1030
 1.0810	40.0950
 1.0820	40.0920
 1.0830	40.0920
 1.0840	40.0890
 1.0850	40.0890
 1.0860	40.0870
 1.0870	40.0830
 1.0880	40.0750
 1.0890	40.0710
 1.0900	40.0680
 1.0910	40.0620
 1.0920	40.0560
 1.0930	40.0490
 1.0940	40.0410
 1.0950	40.0360
 1.0960	40.0350
 1.0970	40.0300
 1.0980	40.0230
 1.0990	40.0180
 1.1000	40.0130
 1.1010	40.0060
 1.1020	40.0000
 1.1030	39.9920
 1.1040	39.9790
 1.1050	39.9660
 1.1060	39.9540
 1.1070	39.9440
 1.1080	39.9340
 1.1090	39.9250
 1.1100	39.9130
 1.1110	39.9000
 1.1120	39.8870
 1.1130	39.8710
 1.1140	39.8580
 1.1150	39.8460
 1.1160	39.8310
 1.1170	39.8160
 1.1180	39.8000
 1.1190	39.7820
 1.1200	39.7610
 1.1210	39.7430
 1.1220	39.7230
 1.1230	39.6990
 1.1240	39.6740
 1.1250	39.6440
 1.1260	39.6120
 1.1270	39.5750
 1.1280	39.5350
 1.1290	39.4910
 1.1300	39.4430
 1.1310	39.3910
 1.1320	39.3360
 1.1330	39.2750
 1.1340	39.2090
 1.1350	39.1390
 1.1360	39.0640
 1.1370	38.9860
 1.1380	38.9030
 1.1390	38.8190
 1.1400	38.7310
 1.1410	38.6390
 1.1420	38.5430
 1.1430	38.4470
 1.1440	38.3530
 1.1450	38.2580
 1.1460	38.1660
 1.1470	38.0770
 1.1480	37.9910
 1.1490	37.9050
 1.1500	37.8250
 1.1510	37.7490
 1.1520	37.6810
 1.1530	37.6170
 1.1540	37.5600
 1.1550	37.5090
 1.1560	37.4650
 1.1570	37.4270
 1.1580	37.3930
 1.1590	37.3640
 1.1600	37.3400
 1.1610	37.3190
 1.1620	37.3010
 1.1630	37.2860
 1.1640	37.2750
 1.1650	37.2660
 1.1660	37.2580
 1.1670	37.2520
 1.1680	37.2510
 1.1690	37.2470
 1.1700	37.2450
 1.1710	37.2420
 1.1720	37.2370
 1.1730	37.2350
 1.1740	37.2340
 1.1750	37.2320
 1.1760	37.2300
 1.1770	37.2290
 1.1780	37.2260
 1.1790	37.2210
 1.1800	37.2160
 1.1810	37.2090
 1.1820	37.2020
 1.1830	37.1950
 1.1840	37.1870
 1.1850	37.1810
 1.1860	37.1760
 1.1870	37.1720
 1.1880	37.1680
 1.1890	37.1650
 1.1900	37.1620
 1.1910	37.1600
 1.1920	37.1590
 1.1930	37.1590
 1.1940	37.1590
 1.1950	37.1590
 1.1960	37.1610
 1.1970	37.1650
 1.1980	37.1690
 1.1990	37.1740
 1.2000	37.1810
 1.2010	37.1850
 1.2020	37.1900
 1.2030	37.1990
 1.2040	37.2070
 1.2050	37.2140
 1.2060	37.2240
 1.2070	37.2350
 1.2080	37.2450
 1.2090	37.2540
 1.2100	37.2650
 1.2110	37.2770
 1.2120	37.2890
 1.2130	37.3010
 1.2140	37.3180
 1.2150	37.3320
 1.2160	37.3450
 1.2170	37.3590
 1.2180	37.3750
 1.2190	37.3890
 1.2200	37.4030
 1.2210	37.4190
 1.2220	37.4320
 1.2230	37.4470
 1.2240	37.4650
 1.2250	37.4810
 1.2260	37.4950
 1.2270	37.5100
 1.2280	37.5230
 1.2290	37.5350
 1.2300	37.5490
 1.2310	37.5630
 1.2320	37.5750
 1.2330	37.5880
 1.2340	37.6010
 1.2350	37.6150
 1.2360	37.6260
 1.2370	37.6350
 1.2380	37.6460
 1.2390	37.6540
 1.2400	37.6620
 1.2410	37.6710
 1.2420	37.6790
 1.2430	37.6870
 1.2440	37.6960
 1.2450	37.7060
 1.2460	37.7160
 1.2470	37.7240
 1.2480	37.7330
 1.2490	37.7390
 1.2500	37.7430
 1.2510	37.7510
 1.2520	37.7580
 1.2530	37.7640
 1.2540	37.7710
 1.2550	37.7750
 1.2560	37.7790
 1.2570	37.7820
 1.2580	37.7850
 1.2590	37.7870
 1.2600	37.7910
 1.2610	37.7920
 1.2620	37.7930
 1.2630	37.7930
 1.2640	37.7910
 1.2650	37.7900
 1.2660	37.7880
 1.2670	37.7850
 1.2680	37.7810
 1.2690	37.7760
 1.2700	37.7690
 1.2710	37.7620
 1.2720	37.7560
 1.2730	37.7480
 1.2740	37.7380
 1.2750	37.7280
 1.2760	37.7180
 1.2770	37.7060
 1.2780	37.6950
 1.2790	37.6850
 1.2800	37.6730
 1.2810	37.6580
 1.2820	37.6440
 1.2830	37.6300
 1.2840	37.6110
 1.2850	37.5950
 1.2860	37.5790
 1.2870	37.5620
 1.2880	37.5430
 1.2890	37.5250
 1.2900	37.5060
 1.2910	37.4850
 1.2920	37.4660
 1.2930	37.4450
 1.2940	37.4230
 1.2950	37.4000
 1.2960	37.3750
 1.2970	37.3470
 1.2980	37.3180
 1.2990	37.2880
 1.3000	37.2560
 1.3010	37.2230
 1.3020	37.1900
 1.3030	37.1540
 1.3040	37.1140
 1.3050	37.0760
 1.3060	37.0360
 1.3070	36.9920
 1.3080	36.9500
 1.3090	36.9030
 1.3100	36.8520
 1.3110	36.7990
 1.3120	36.7410
 1.3130	36.6780
 1.3140	36.6150
 1.3150	36.5490
 1.3160	36.4810
 1.3170	36.4130
 1.3180	36.3410
 1.3190	36.2670
 1.3200	36.1910
 1.3210	36.1110
 1.3220	36.0310
 1.3230	35.9490
 1.3240	35.8630
 1.3250	35.7780
 1.3260	35.6890
 1.3270	35.5970
 1.3280	35.5040
 1.3290	35.4080
 1.3300	35.3130
 1.3310	35.2170
 1.3320	35.1210
 1.3330	35.0230
 1.3340	34.9220
 1.3350	34.8190
 1.3360	34.7160
 1.3370	34.6110
 1.3380	34.5080
 1.3390	34.4060
 1.3400	34.3050
 1.3410	34.2050
 1.3420	34.1030
 1.3430	34.0020
 1.3440	33.9020
 1.3450	33.8020
 1.3460	33.7020
 1.3470	33.6050
 1.3480	33.5080
 1.3490	33.4110
 1.3500	33.3160
 1.3510	33.2210
 1.3520	33.1260
 1.3530	33.0290
 1.3540	32.9330
 1.3550	32.8380
 1.3560	32.7420
 1.3570	32.6450
 1.3580	32.5470
 1.3590	32.4460
 1.3600	32.3420
 1.3610	32.2350
 1.3620	32.1240
 1.3630	32.0110
 1.3640	31.8920
 1.3650	31.7680
 1.3660	31.6380
 1.3670	31.5000
 1.3680	31.3550
 1.3690	31.2020
 1.3700	31.0350
 1.3710	30.8590
 1.3720	30.6700
 1.3730	30.4660
 1.3740	30.2500
 1.3750	30.0180
 1.3760	29.7690
 1.3770	29.5040
 1.3780	29.2200
 1.3790	28.9180
 1.3800	28.5970
 1.3810	28.2540
 1.3820	27.8980
 1.3830	27.5250
 1.3840	27.1390
 1.3850	26.7380
 1.3860	26.3260
 1.3870	25.8970
 1.3880	25.4650
 1.3890	25.0230
 1.3900	24.5720
 1.3910	24.1210
 1.3920	23.6660
 1.3930	23.2070
 1.3940	22.7520
 1.3950	22.2950
 1.3960	21.8450
 1.3970	21.4060
 1.3980	20.9770
 1.3990	20.5670
 1.4000	20.1690
 1.4010	19.7840
 1.4020	19.4170
 1.4030	19.0640
 1.4040	18.7300
 1.4050	18.4140
 1.4060	18.1150
 1.4070	17.8370
 1.4080	17.5760
 1.4090	17.3310
 1.4100	17.1060
 1.4110	16.8970
 1.4120	16.7040
 1.4130	16.5260
 1.4140	16.3630
 1.4150	16.2160
 1.4160	16.0820
 1.4170	15.9600
 1.4180	15.8500
 1.4190	15.7500
 1.4200	15.6600
 1.4210	15.5790
 1.4220	15.5070
 1.4230	15.4430
 1.4240	15.3870
 1.4250	15.3370
 1.4260	15.2950
 1.4270	15.2560
 1.4280	15.2240
 1.4290	15.1960
 1.4300	15.1730
 1.4310	15.1540
 1.4320	15.1410
 1.4330	15.1300
 1.4340	15.1230
 1.4350	15.1190
 1.4360	15.1170
 1.4370	15.1180
 1.4380	15.1210
 1.4390	15.1260
 1.4400	15.1330
 1.4410	15.1430
 1.4420	15.1540
 1.4430	15.1660
 1.4440	15.1800
 1.4450	15.1950
 1.4460	15.2120
 1.4470	15.2290
 1.4480	15.2460
 1.4490	15.2630
 1.4500	15.2810
 1.4510	15.3000
 1.4520	15.3200
 1.4530	15.3410
 1.4540	15.3650
 1.4550	15.3890
 1.4560	15.4130
 1.4570	15.4410
 1.4580	15.4710
 1.4590	15.5040
 1.4600	15.5400
 1.4610	15.5790
 1.4620	15.6210
 1.4630	15.6670
 1.4640	15.7170
 1.4650	15.7700
 1.4660	15.8280
 1.4670	15.8890
 1.4680	15.9550
 1.4690	16.0270
 1.4700	16.1000
 1.4710	16.1790
 1.4720	16.2590
 1.4730	16.3410
 1.4740	16.4270
 1.4750	16.5160
 1.4760	16.6070
 1.4770	16.7000
 1.4780	16.7940
 1.4790	16.8900
 1.4800	16.9860
 1.4810	17.0840
 1.4820	17.1830
 1.4830	17.2830
 1.4840	17.3860
 1.4850	17.4890
 1.4860	17.5910
 1.4870	17.6960
 1.4880	17.7980
 1.4890	17.9010
 1.4900	18.0050
 1.4910	18.1110
 1.4920	18.2160
 1.4930	18.3220
 1.4940	18.4270
 1.4950	18.5320
 1.4960	18.6360
 1.4970	18.7410
 1.4980	18.8460
 1.4990	18.9520
 1.5000	19.0580
 1.5010	19.1670
 1.5020	19.2730
 1.5030	19.3780
 1.5040	19.4830
 1.5050	19.5870
 1.5060	19.6920
 1.5070	19.8000
 1.5080	19.9050
 1.5090	20.0100
 1.5100	20.1140
 1.5110	20.2170
 1.5120	20.3180
 1.5130	20.4190
 1.5140	20.5200
 1.5150	20.6220
 1.5160	20.7220
 1.5170	20.8220
 1.5180	20.9230
 1.5190	21.0240
 1.5200	21.1230
 1.5210	21.2210
 1.5220	21.3180
 1.5230	21.4150
 1.5240	21.5100
 1.5250	21.6050
 1.5260	21.7000
 1.5270	21.7930
 1.5280	21.8860
 1.5290	21.9780
 1.5300	22.0680
 1.5310	22.1600
 1.5320	22.2490
 1.5330	22.3380
 1.5340	22.4250
 1.5350	22.5110
 1.5360	22.5970
 1.5370	22.6820
 1.5380	22.7680
 1.5390	22.8520
 1.5400	22.9350
 1.5410	23.0190
 1.5420	23.1010
 1.5430	23.1820
 1.5440	23.2620
 1.5450	23.3410
 1.5460	23.4190
 1.5470	23.4960
 1.5480	23.5720
 1.5490	23.6480
 1.5500	23.7240
 1.5510	23.7990
 1.5520	23.8750
 1.5530	23.9480
 1.5540	24.0220
 1.5550	24.0960
 1.5560	24.1670
 1.5570	24.2380
 1.5580	24.3070
 1.5590	24.3740
 1.5600	24.4420
 1.5610	24.5080
 1.5620	24.5740
 1.5630	24.6400
 1.5640	24.7040
 1.5650	24.7690
 1.5660	24.8330
 1.5670	24.8940
 1.5680	24.9550
 1.5690	25.0150
 1.5700	25.0730
 1.5710	25.1320
 1.5720	25.1890
 1.5730	25.2470
 1.5740	25.3050
 1.5750	25.3610
 1.5760	25.4180
 1.5770	25.4730
 1.5780	25.5260
 1.5790	25.5800
 1.5800	25.6330
 1.5810	25.6860
 1.5820	25.7410
 1.5830	25.7960
 1.5840	25.8490
 1.5850	25.9010
 1.5860	25.9510
 1.5870	25.9990
 1.5880	26.0500
 1.5890	26.0990
 1.5900	26.1490
 1.5910	26.2000
 1.5920	26.2480
 1.5930	26.2950
 1.5940	26.3410
 1.5950	26.3870
 1.5960	26.4330
 1.5970	26.4790
 1.5980	26.5250
 1.5990	26.5680
 1.6000	26.6090
 1.6010	26.6500
 1.6020	26.6930
 1.6030	26.7330
 1.6040	26.7740
 1.6050	26.8160
 1.6060	26.8550
 1.6070	26.8940
 1.6080	26.9320
 1.6090	26.9690
 1.6100	27.0070
 1.6110	27.0430
 1.6120	27.0800
 1.6130	27.1150
 1.6140	27.1490
 1.6150	27.1840
 1.6160	27.2180
 1.6170	27.2510
 1.6180	27.2840
 1.6190	27.3150
 1.6200	27.3470
 1.6210	27.3800
 1.6220	27.4120
 1.6230	27.4430
 1.6240	27.4730
 1.6250	27.5000
 1.6260	27.5280
 1.6270	27.5540
 1.6280	27.5800
 1.6290	27.6060
 1.6300	27.6330
 1.6310	27.6580
 1.6320	27.6830
 1.6330	27.7060
 1.6340	27.7270
 1.6350	27.7490
 1.6360	27.7710
 1.6370	27.7910
 1.6380	27.8090
 1.6390	27.8270
 1.6400	27.8420
 1.6410	27.8580
 1.6420	27.8760
 1.6430	27.8880
 1.6440	27.8980
 1.6450	27.9070
 1.6460	27.9130
 1.6470	27.9200
 1.6480	27.9250
 1.6490	27.9310
 1.6500	27.9360
 1.6510	27.9370
 1.6520	27.9370
 1.6530	27.9360
 1.6540	27.9340
 1.6550	27.9350
 1.6560	27.9350
 1.6570	27.9350
 1.6580	27.9340
 1.6590	27.9330
 1.6600	27.9310
 1.6610	27.9280
 1.6620	27.9260
 1.6630	27.9240
 1.6640	27.9240
 1.6650	27.9260
 1.6660	27.9280
 1.6670	27.9280
 1.6680	27.9270
 1.6690	27.9230
 1.6700	27.9200
 1.6710	27.9190
 1.6720	27.9160
 1.6730	27.9130
 1.6740	27.9100
 1.6750	27.9010
 1.6760	27.8910
 1.6770	27.8810
 1.6780	27.8670
 1.6790	27.8500
 1.6800	27.8320
 1.6810	27.8130
 1.6820	27.7910
 1.6830	27.7690
 1.6840	27.7460
 1.6850	27.7200
 1.6860	27.6930
 1.6870	27.6680
 1.6880	27.6400
 1.6890	27.6110
 1.6900	27.5810
 1.6910	27.5480
 1.6920	27.5170
 1.6930	27.4860
 1.6940	27.4540
 1.6950	27.4220
 1.6960	27.3890
 1.6970	27.3560
 1.6980	27.3220
 1.6990	27.2880
 1.7000	27.2520
 1.7010	27.2140
 1.7020	27.1770
 1.7030	27.1390
 1.7040	27.1020
 1.7050	27.0650
 1.7060	27.0280
 1.7070	26.9910
 1.7080	26.9530
 1.7090	26.9130
 1.7100	26.8750
 1.7110	26.8360
 1.7120	26.8000
 1.7130	26.7640
 1.7140	26.7270
 1.7150	26.6890
 1.7160	26.6500
 1.7170	26.6140
 1.7180	26.5770
 1.7190	26.5420
 1.7200	26.5070
 1.7210	26.4680
 1.7220	26.4300
 1.7230	26.3930
 1.7240	26.3570
 1.7250	26.3230
 1.7260	26.2900
 1.7270	26.2560
 1.7280	26.2220
 1.7290	26.1890
 1.7300	26.1560
 1.7310	26.1240
 1.7320	26.0940
 1.7330	26.0620
 1.7340	26.0290
 1.7350	25.9940
 1.7360	25.9560
 1.7370	25.9180
 1.7380	25.8790
 1.7390	25.8390
 1.7400	25.7980
 1.7410	25.7540
 1.7420	25.7080
 1.7430	25.6630
 1.7440	25.6160
 1.7450	25.5680
 1.7460	25.5190
 1.7470	25.4700
 1.7480	25.4220
 1.7490	25.3730
 1.7500	25.3240
 1.7510	25.2730
 1.7520	25.2200
 1.7530	25.1690
 1.7540	25.1170
 1.7550	25.0660
 1.7560	25.0170
 1.7570	24.9660
 1.7580	24.9170
 1.7590	24.8680
 1.7600	24.8200
 1.7610	24.7700
 1.7620	24.7220
 1.7630	24.6750
 1.7640	24.6290
 1.7650	24.5860
 1.7660	24.5430
 1.7670	24.5010
 1.7680	24.4610
 1.7690	24.4230
 1.7700	24.3850
 1.7710	24.3460
 1.7720	24.3100
 1.7730	24.2750
 1.7740	24.2400
 1.7750	24.2070
 1.7760	24.1740
 1.7770	24.1410
 1.7780	24.1090
 1.7790	24.0750
 1.7800	24.0460
 1.7810	24.0190
 1.7820	23.9940
 1.7830	23.9740
 1.7840	23.9510
 1.7850	23.9270
 1.7860	23.9050
 1.7870	23.8850
 1.7880	23.8640
 1.7890	23.8480
 1.7900	23.8330
 1.7910	23.8200
 1.7920	23.8120
 1.7930	23.8020
 1.7940	23.7910
 1.7950	23.7820
 1.7960	23.7750
 1.7970	23.7670
 1.7980	23.7570
 1.7990	23.7510
 1.8000	23.7460
 1.8010	23.7430
 1.8020	23.7450
 1.8030	23.7420
 1.8040	23.7370
 1.8050	23.7350
 1.8060	23.7310
 1.8070	23.7290
 1.8080	23.7300
 1.8090	23.7270
 1.8100	23.7240
 1.8110	23.7200
 1.8120	23.7170
 1.8130	23.7140
 1.8140	23.7110
 1.8150	23.7070
 1.8160	23.7030
 1.8170	23.7000
 1.8180	23.6970
 1.8190	23.6950
 1.8200	23.6890
 1.8210	23.6790
 1.8220	23.6700
 1.8230	23.6600
 1.8240	23.6490
 1.8250	23.6380
 1.8260	23.6260
 1.8270	23.5520
 1.8280	23.4780
 1.8290	23.4040
 1.8300	23.3290
 1.8310	23.2550
 1.8320	23.1810
 1.8330	23.1070
 1.8340	23.0320
 1.8350	23.0320
 1.8360	22.9930
 1.8370	22.9490
 1.8380	22.9060
 1.8390	22.8560
 1.8400	22.8010
 1.8410	22.7390
 1.8420	22.6730
 1.8430	22.6000
 1.8440	22.5240
 1.8450	22.4480
 1.8460	22.3660
 1.8470	22.2760
 1.8480	22.1740
 1.8490	22.0620
 1.8500	21.9440
 1.8510	21.8170
 1.8520	21.6810
 1.8530	21.5390
 1.8540	21.3880
 1.8550	21.2250
 1.8560	21.0510
 1.8570	20.8670
 1.8580	20.6690
 1.8590	20.4600
 1.8600	20.2390
 1.8610	20.0080
 1.8620	19.7640
 1.8630	19.5110
 1.8640	19.2460
 1.8650	18.9640
 1.8660	18.6710
 1.8670	18.3610
 1.8680	18.0370
 1.8690	17.7040
 1.8700	17.3580
 1.8710	16.9980
 1.8720	16.6310
 1.8730	16.2580
 1.8740	15.8790
 1.8750	15.4990
 1.8760	15.1130
 1.8770	14.7290
 1.8780	14.3450
 1.8790	13.9590
 1.8800	13.5840
 1.8810	13.2160
 1.8820	12.8510
 1.8830	12.4930
 1.8840	12.1500
 1.8850	11.8130
 1.8860	11.4880
 1.8870	11.1780
 1.8880	10.8780
 1.8890	10.5940
 1.8900	10.3270
 1.8910	10.0780
 1.8920	 9.8440
 1.8930	 9.6310
 1.8940	 9.4330
 1.8950	 9.2520
 1.8960	 9.0840
 1.8970	 8.9300
 1.8980	 8.7910
 1.8990	 8.6640
 1.9000	 8.5510
 1.9010	 8.4540
 1.9020	 8.3640
 1.9030	 8.2860
 1.9040	 8.2190
 1.9050	 8.1570
 1.9060	 8.1030
 1.9070	 8.0570
 1.9080	 8.0170
 1.9090	 7.9800
 1.9100	 7.9490
 1.9110	 7.9220
 1.9120	 7.9010
 1.9130	 7.8800
 1.9140	 7.8640
 1.9150	 7.8530
 1.9160	 7.8400
 1.9170	 7.8290
 1.9180	 7.8220
 1.9190	 7.8140
 1.9200	 7.8080
 1.9210	 7.8060
 1.9220	 7.8040
 1.9230	 7.8050
 1.9240	 7.8050
 1.9250	 7.8060
 1.9260	 7.8080
 1.9270	 7.8110
 1.9280	 7.8140
 1.9290	 7.8220
 1.9300	 7.8290
 1.9310	 7.8370
 1.9320	 7.8470
 1.9330	 7.8570
 1.9340	 7.8680
 1.9350	 7.8800
 1.9360	 7.8930
 1.9370	 7.9040
 1.9380	 7.9160
 1.9390	 7.9260
 1.9400	 7.9380
 1.9410	 7.9530
 1.9420	 7.9690
 1.9430	 7.9880
 1.9440	 8.0060
 1.9450	 8.0250
 1.9460	 8.0430
 1.9470	 8.0620
 1.9480	 8.0800
 1.9490	 8.0960
 1.9500	 8.1140
 1.9510	 8.1320
 1.9520	 8.1520
 1.9530	 8.1750
 1.9540	 8.1970
 1.9550	 8.2200
 1.9560	 8.2440
 1.9570	 8.2680
 1.9580	 8.2920
 1.9590	 8.3170
 1.9600	 8.3430
 1.9610	 8.3690
 1.9620	 8.3960
 1.9630	 8.4220
 1.9640	 8.4510
 1.9650	 8.4830
 1.9660	 8.5170
 1.9670	 8.5490
 1.9680	 8.5810
 1.9690	 8.6120
 1.9700	 8.6430
 1.9710	 8.6720
 1.9720	 8.7030
 1.9730	 8.7360
 1.9740	 8.7690
 1.9750	 8.8070
 1.9760	 8.8470
 1.9770	 8.8860
 1.9780	 8.9240
 1.9790	 8.9630
 1.9800	 8.9990
 1.9810	 9.0380
 1.9820	 9.0830
 1.9830	 9.1230
 1.9840	 9.1630
 1.9850	 9.2050
 1.9860	 9.2450
 1.9870	 9.2840
 1.9880	 9.3280
 1.9890	 9.3700
 1.9900	 9.4140
 1.9910	 9.4610
 1.9920	 9.5070
 1.9930	 9.5540
 1.9940	 9.6000
 1.9950	 9.6460
 1.9960	 9.6920
 1.9970	 9.7380
 1.9980	 9.7840
 1.9990	 9.8300
 2.0000	 9.8760
 2.0010	 9.9230
 2.0020	 9.9690
 2.0030	10.0160
 2.0040	10.0650
 2.0050	10.1130
 2.0060	10.1620
 2.0070	10.2110
 2.0080	10.2590
 2.0090	10.3070
 2.0100	10.3550
 2.0110	10.4020
 2.0120	10.4490
 2.0130	10.4960
 2.0140	10.5440
 2.0150	10.5910
 2.0160	10.6410
 2.0170	10.6930
 2.0180	10.7420
 2.0190	10.7910
 2.0200	10.8370
 2.0210	10.8790
 2.0220	10.9230
 2.0230	10.9670
 2.0240	11.0110
 2.0250	11.0530
 2.0260	11.0950
 2.0270	11.1380
 2.0280	11.1810
 2.0290	11.2210
 2.0300	11.2650
 2.0310	11.3060
 2.0320	11.3480
 2.0330	11.3870
 2.0340	11.4260
 2.0350	11.4640
 2.0360	11.5010
 2.0370	11.5390
 2.0380	11.5810
 2.0390	11.6200
 2.0400	11.6590
 2.0410	11.6960
 2.0420	11.7300
 2.0430	11.7650
 2.0440	11.7980
 2.0450	11.8310
 2.0460	11.8650
 2.0470	11.8990
 2.0480	11.9340
 2.0490	11.9710
 2.0500	12.0060
 2.0510	12.0390
 2.0520	12.0730
 2.0530	12.1030
 2.0540	12.1360
 2.0550	12.1700
 2.0560	12.2040
 2.0570	12.2390
 2.0580	12.2760
 2.0590	12.3100
 2.0600	12.3430
 2.0610	12.3770
 2.0620	12.4120
 2.0630	12.4470
 2.0640	12.4820
 2.0650	12.5180
 2.0660	12.5510
 2.0670	12.5880
 2.0680	12.6270
 2.0690	12.6650
 2.0700	12.7060
 2.0710	12.7420
 2.0720	12.7750
 2.0730	12.8090
 2.0740	12.8420
 2.0750	12.8700
 2.0760	12.9030
 2.0770	12.9360
 2.0780	12.9700
 2.0790	13.0060
 2.0800	13.0400
 2.0810	13.0710
 2.0820	13.1040
 2.0830	13.1370
 2.0840	13.1700
 2.0850	13.2070
 2.0860	13.2410
 2.0870	13.2740
 2.0880	13.3080
 2.0890	13.3390
 2.0900	13.3680
 2.0910	13.3980
 2.0920	13.4250
 2.0930	13.4550
 2.0940	13.4870
 2.0950	13.5180
 2.0960	13.5520
 2.0970	13.5830
 2.0980	13.6120
 2.0990	13.6430
 2.1000	13.6730
 2.1010	13.7020
 2.1020	13.7320
 2.1030	13.7600
 2.1040	13.7880
 2.1050	13.8150
 2.1060	13.8410
 2.1070	13.8650
 2.1080	13.8900
 2.1090	13.9110
 2.1100	13.9370
 2.1110	13.9660
 2.1120	13.9910
 2.1130	14.0160
 2.1140	14.0420
 2.1150	14.0630
 2.1160	14.0880
 2.1170	14.1150
 2.1180	14.1420
 2.1190	14.1730
 2.1200	14.1990
 2.1210	14.2250
 2.1220	14.2500
 2.1230	14.2740
 2.1240	14.2950
 2.1250	14.3170
 2.1260	14.3400
 2.1270	14.3630
 2.1280	14.3850
 2.1290	14.4070
 2.1300	14.4300
 2.1310	14.4500
 2.1320	14.4690
 2.1330	14.4870
 2.1340	14.5010
 2.1350	14.5170
 2.1360	14.5320
 2.1370	14.5480
 2.1380	14.5650
 2.1390	14.5790
 2.1400	14.5940
 2.1410	14.6010
 2.1420	14.6130
 2.1430	14.6230
 2.1440	14.6370
 2.1450	14.6530
 2.1460	14.6690
 2.1470	14.6870
 2.1480	14.7020
 2.1490	14.7180
 2.1500	14.7300
 2.1510	14.7380
 2.1520	14.7490
 2.1530	14.7600
 2.1540	14.7710
 2.1550	14.7860
 2.1560	14.7980
 2.1570	14.8080
 2.1580	14.8180
 2.1590	14.8260
 2.1600	14.8380
 2.1610	14.8500
 2.1620	14.8580
 2.1630	14.8640
 2.1640	14.8680
 2.1650	14.8740
 2.1660	14.8760
 2.1670	14.8830
 2.1680	14.8900
 2.1690	14.9000
 2.1700	14.9130
 2.1710	14.9230
 2.1720	14.9320
 2.1730	14.9440
 2.1740	14.9570
 2.1750	14.9660
 2.1760	14.9730
 2.1770	14.9840
 2.1780	14.9920
 2.1790	15.0020
 2.1800	15.0160
 2.1810	15.0290
 2.1820	15.0420
 2.1830	15.0550
 2.1840	15.0660
 2.1850	15.0770
 2.1860	15.0880
 2.1870	15.0970
 2.1880	15.1100
 2.1890	15.1270
 2.1900	15.1400
 2.1910	15.1510
 2.1920	15.1640
 2.1930	15.1770
 2.1940	15.1880
 2.1950	15.1960
 2.1960	15.2070
 2.1970	15.2160
 2.1980	15.2280
 2.1990	15.2450
 2.2000	15.2580
 2.2010	15.2680
 2.2020	15.2780
 2.2030	15.2870
 2.2040	15.2970
 2.2050	15.3050
 2.2060	15.3170
 2.2070	15.3280
 2.2080	15.3390
 2.2090	15.3510
 2.2100	15.3640
 2.2110	15.3730
 2.2120	15.3800
 2.2130	15.3880
 2.2140	15.3940
 2.2150	15.4000
 2.2160	15.4070
 2.2170	15.4090
 2.2180	15.4070
 2.2190	15.4040
 2.2200	15.3970
 2.2210	15.3940
 2.2220	15.3930
 2.2230	15.3910
 2.2240	15.3960
 2.2250	15.3930
 2.2260	15.3840
 2.2270	15.3750
 2.2280	15.3620
 2.2290	15.3480
 2.2300	15.3320
 2.2310	15.3160
 2.2320	15.2990
 2.2330	15.2820
 2.2340	15.2640
 2.2350	15.2500
 2.2360	15.2290
 2.2370	15.2020
 2.2380	15.1780
 2.2390	15.1530
 2.2400	15.1250
 2.2410	15.0990
 2.2420	15.0700
 2.2430	15.0370
 2.2440	15.0050
 2.2450	14.9750
 2.2460	14.9420
 2.2470	14.9070
 2.2480	14.8710
 2.2490	14.8300
 2.2500	14.7920
 2.2510	14.7530
 2.2520	14.7170
 2.2530	14.6880
 2.2540	14.6530
 2.2550	14.6180
 2.2560	14.5820
 2.2570	14.5420
 2.2580	14.5040
 2.2590	14.4670
 2.2600	14.4290
 2.2610	14.3860
 2.2620	14.3500
 2.2630	14.3160
 2.2640	14.2790
 2.2650	14.2490
 2.2660	14.2130
 2.2670	14.1770
 2.2680	14.1400
 2.2690	14.1030
 2.2700	14.0630
 2.2710	14.0270
 2.2720	13.9920
 2.2730	13.9560
 2.2740	13.9210
 2.2750	13.8900
 2.2760	13.8590
 2.2770	13.8270
 2.2780	13.7980
 2.2790	13.7660
 2.2800	13.7280
 2.2810	13.6950
 2.2820	13.6670
 2.2830	13.6340
 2.2840	13.6010
 2.2850	13.5670
 2.2860	13.5280
 2.2870	13.4920
 2.2880	13.4540
 2.2890	13.4210
 2.2900	13.3970
 2.2910	13.3640
 2.2920	13.3300
 2.2930	13.2950
 2.2940	13.2550
 2.2950	13.2180
 2.2960	13.1810
 2.2970	13.1470
 2.2980	13.1170
 2.2990	13.0810
 2.3000	13.0500
 2.3010	13.0170
 2.3020	12.9780
 2.3030	12.9410
 2.3040	12.9030
 2.3050	12.8720
 2.3060	12.8470
 2.3070	12.8160
 2.3080	12.7880
 2.3090	12.7660
 2.3100	12.7420
 2.3110	12.7170
 2.3120	12.6970
 2.3130	12.6800
 2.3140	12.6640
 2.3150	12.6560
 2.3160	12.6380
 2.3170	12.6190
 2.3180	12.5960
 2.3190	12.5640
 2.3200	12.5430
 2.3210	12.5260
 2.3220	12.5040
 2.3230	12.4880
 2.3240	12.4650
 2.3250	12.4320
 2.3260	12.4050
 2.3270	12.3810
 2.3280	12.3510
 2.3290	12.3220
 2.3300	12.2910
 2.3310	12.2520
 2.3320	12.2190
 2.3330	12.1880
 2.3340	12.1560
 2.3350	12.1230
 2.3360	12.0920
 2.3370	12.0640
 2.3380	12.0290
 2.3390	11.9920
 2.3400	11.9580
 2.3410	11.9170
 2.3420	11.8850
 2.3430	11.8650
 2.3440	11.8350
 2.3450	11.7990
 2.3460	11.7690
 2.3470	11.7370
 2.3480	11.7070
 2.3490	11.6840
 2.3500	11.6570
 2.3510	11.6220
 2.3520	11.5950
 2.3530	11.5710
 2.3540	11.5510
 2.3550	11.5320
 2.3560	11.5150
 2.3570	11.4920
 2.3580	11.4770
 2.3590	11.4650
 2.3600	11.4440
 2.3610	11.4190
 2.3620	11.3870
 2.3630	11.3520
 2.3640	11.3220
 2.3650	11.2950
 2.3660	11.2650
 2.3670	11.2420
 2.3680	11.2210
 2.3690	11.1920
 2.3700	11.1690
 2.3710	11.1340
 2.3720	11.0940
 2.3730	11.0710
 2.3740	11.0450
 2.3750	11.0240
 2.3760	11.0080
 2.3770	10.9690
 2.3780	10.9340
 2.3790	10.9080
 2.3800	10.8750
 2.3810	10.8490
 2.3820	10.8240
 2.3830	10.7920
 2.3840	10.7570
 2.3850	10.7270
 2.3860	10.7010
 2.3870	10.6740
 2.3880	10.6430
 2.3890	10.6170
 2.3900	10.5910
 2.3910	10.5590
 2.3920	10.5290
 2.3930	10.4900
 2.3940	10.4490
 2.3950	10.4100
 2.3960	10.3750
 2.3970	10.3630
 2.3980	10.3490
 2.3990	10.3220
 2.4000	10.3070
 2.4010	10.2810
 2.4020	10.2520
 2.4030	10.2420
 2.4040	10.2160
 2.4050	10.1800
 2.4060	10.1500
 2.4070	10.1190
 2.4080	10.0880
 2.4090	10.0540
 2.4100	10.0230
 2.4110	 9.9860
 2.4120	 9.9600
 2.4130	 9.9420
 2.4140	 9.9120
 2.4150	 9.8900
 2.4160	 9.8540
 2.4170	 9.8060
 2.4180	 9.7700
 2.4190	 9.7250
 2.4200	 9.6770
 2.4210	 9.6340
 2.4220	 9.5940
 2.4230	 9.5780
 2.4240	 9.5620
 2.4250	 9.5390
 2.4260	 9.5230
 2.4270	 9.4990
 2.4280	 9.4620
 2.4290	 9.4360
 2.4300	 9.4200
 2.4310	 9.3860
 2.4320	 9.3430
 2.4330	 9.3060
 2.4340	 9.2790
 2.4350	 9.2590
 2.4360	 9.2590
 2.4370	 9.2480
 2.4380	 9.2050
 2.4390	 9.1640
 2.4400	 9.1170
 2.4410	 9.0870
 2.4420	 9.0760
 2.4430	 9.0480
 2.4440	 9.0110
 2.4450	 8.9760
 2.4460	 8.9520
 2.4470	 8.9350
 2.4480	 8.9210
 2.4490	 8.8970
 2.4500	 8.8690
 2.4510	 8.8560
 2.4520	 8.8500
 2.4530	 8.8350
 2.4540	 8.8030
 2.4550	 8.7650
 2.4560	 8.7190
 2.4570	 8.6870
 2.4580	 8.6660
 2.4590	 8.6400
 2.4600	 8.6250
 2.4610	 8.6070
 2.4620	 8.5930
 2.4630	 8.5820
 2.4640	 8.5450
 2.4650	 8.5320
 2.4660	 8.5190
 2.4670	 8.4710
 2.4680	 8.4400
 2.4690	 8.3840
 2.4700	 8.3650
 2.4710	 8.4050
 2.4720	 8.4010
 2.4730	 8.3830
 2.4740	 8.3740
 2.4750	 8.3410
 2.4760	 8.3080
 2.4770	 8.3010
 2.4780	 8.2840
 2.4790	 8.2380
 2.4800	 8.2190
 2.4810	 8.2120
 2.4820	 8.1950
 2.4830	 8.1940
 2.4840	 8.2270
 2.4850	 8.2250
 2.4860	 8.1860
 2.4870	 8.1890
 2.4880	 8.1770
 2.4890	 8.1260
 2.4900	 8.0930
 2.4910	 8.0620
 2.4920	 8.0380
 2.4930	 8.0870
 2.4940	 8.1470
 2.4950	 8.1650
 2.4960	 8.1200
 2.4970	 8.0500
 2.4980	 8.0510
 2.4990	 8.0780
 2.5000	 8.0980
