Name: Umbellularia californica 3
Type: vegetation
Class: Shrub
Genus: Umbellularia
Species: californica
Sample No.: VH108
Owner: UCSB
Wavelength Range: TIR
Origin: 34.5075; -119.763; WGS84
Collection Date: 6/3/2013
Description: Samples were collected as part of the HyspIRI Airborne Campaign. 48 individual plants were sampled in three times in 2013 - spring  summer  and fall. The name of the sample includes a 1  2  or 3 which references a different individual of the species. Samples were taken to JPL and processed within 48 hours of collection. The same leaves were processed in the Nicolet and then measured using the ASD.
Measurement: Hemispherical reflectance
First Column: X
Second Column: Y
X Units: Wavelength (micrometers)
Y Units: Reflectance (percentage)
First X Value: 2.501
Last X Value: 15.387
Number of X Values: 1737
Additional Information: vegetation.shrub.umbellularia.californica.tir.vh108.ucsb.nicolet.ancillary.txt

 2.5010	 2.9330
 2.5030	 2.9150
 2.5040	 2.9270
 2.5050	 2.8720
 2.5060	 2.8840
 2.5070	 2.9290
 2.5090	 2.9470
 2.5100	 2.8740
 2.5110	 2.9030
 2.5120	 2.8930
 2.5140	 2.8730
 2.5150	 2.8870
 2.5160	 2.9020
 2.5170	 2.8590
 2.5180	 2.8880
 2.5200	 2.9150
 2.5210	 2.9320
 2.5220	 2.9330
 2.5230	 2.9480
 2.5250	 2.8800
 2.5260	 2.8990
 2.5270	 2.9160
 2.5280	 2.9110
 2.5290	 2.9130
 2.5310	 2.9350
 2.5320	 2.8830
 2.5330	 2.8950
 2.5340	 2.9180
 2.5360	 2.9290
 2.5370	 2.8860
 2.5380	 2.9090
 2.5390	 2.8690
 2.5410	 2.8840
 2.5420	 2.9170
 2.5430	 2.9570
 2.5440	 2.9390
 2.5460	 2.9310
 2.5470	 2.9110
 2.5480	 2.9180
 2.5490	 2.9100
 2.5510	 2.9500
 2.5520	 2.9450
 2.5530	 2.9460
 2.5540	 2.8880
 2.5560	 2.9330
 2.5570	 2.9760
 2.5580	 2.9720
 2.5590	 2.9750
 2.5610	 2.9780
 2.5620	 2.9950
 2.5630	 3.0980
 2.5640	 3.0730
 2.5660	 3.0010
 2.5670	 3.0160
 2.5680	 3.0340
 2.5700	 2.9770
 2.5710	 2.9970
 2.5720	 3.0230
 2.5730	 3.0300
 2.5750	 2.9740
 2.5760	 2.9760
 2.5770	 2.9840
 2.5790	 2.9910
 2.5800	 2.9760
 2.5810	 3.0550
 2.5820	 3.0290
 2.5840	 2.9910
 2.5850	 2.9840
 2.5860	 3.0150
 2.5880	 2.9960
 2.5890	 3.0180
 2.5900	 3.0340
 2.5910	 3.0380
 2.5930	 3.0080
 2.5940	 2.9880
 2.5950	 2.9420
 2.5970	 2.9470
 2.5980	 2.9500
 2.5990	 3.0220
 2.6000	 3.0050
 2.6020	 3.0030
 2.6030	 2.9940
 2.6040	 3.0040
 2.6060	 2.9700
 2.6070	 2.9930
 2.6080	 3.0170
 2.6100	 3.0170
 2.6110	 2.9460
 2.6120	 2.9910
 2.6140	 3.0460
 2.6150	 3.0030
 2.6160	 2.8900
 2.6180	 2.8790
 2.6190	 2.8430
 2.6200	 2.8630
 2.6220	 2.8740
 2.6230	 2.8990
 2.6240	 2.9100
 2.6260	 2.8720
 2.6270	 2.8100
 2.6280	 2.8580
 2.6300	 2.8210
 2.6310	 2.8220
 2.6320	 2.8480
 2.6340	 2.8380
 2.6350	 2.7900
 2.6360	 2.8090
 2.6380	 2.7680
 2.6390	 2.7590
 2.6400	 2.7740
 2.6420	 2.8040
 2.6430	 2.7570
 2.6440	 2.7380
 2.6460	 2.6890
 2.6470	 2.7050
 2.6480	 2.7450
 2.6500	 2.7950
 2.6510	 2.7490
 2.6520	 2.7210
 2.6540	 2.6620
 2.6550	 2.6460
 2.6560	 2.6270
 2.6580	 2.6320
 2.6590	 2.5970
 2.6610	 2.6180
 2.6620	 2.6200
 2.6630	 2.6280
 2.6650	 2.6000
 2.6660	 2.5920
 2.6670	 2.5910
 2.6690	 2.6130
 2.6700	 2.5630
 2.6720	 2.5280
 2.6730	 2.4840
 2.6740	 2.4930
 2.6760	 2.4980
 2.6770	 2.4980
 2.6780	 2.4490
 2.6800	 2.4640
 2.6810	 2.4700
 2.6830	 2.4700
 2.6840	 2.4350
 2.6850	 2.4960
 2.6870	 2.5210
 2.6880	 2.5180
 2.6900	 2.4830
 2.6910	 2.4750
 2.6920	 2.4400
 2.6940	 2.4200
 2.6950	 2.3720
 2.6970	 2.3950
 2.6980	 2.3960
 2.6990	 2.3840
 2.7010	 2.3510
 2.7020	 2.3910
 2.7040	 2.3300
 2.7050	 2.3230
 2.7060	 2.3150
 2.7080	 2.3140
 2.7090	 2.3100
 2.7110	 2.3130
 2.7120	 2.2510
 2.7130	 2.2380
 2.7150	 2.2520
 2.7160	 2.3060
 2.7180	 2.2760
 2.7190	 2.2830
 2.7210	 2.2930
 2.7220	 2.2800
 2.7230	 2.2620
 2.7250	 2.2670
 2.7260	 2.2640
 2.7280	 2.3000
 2.7290	 2.2540
 2.7310	 2.2720
 2.7320	 2.2300
 2.7330	 2.2500
 2.7350	 2.2180
 2.7360	 2.2080
 2.7380	 2.1860
 2.7390	 2.1790
 2.7410	 2.1720
 2.7420	 2.1900
 2.7440	 2.1830
 2.7450	 2.2040
 2.7470	 2.2010
 2.7480	 2.2480
 2.7490	 2.2470
 2.7510	 2.2600
 2.7520	 2.2060
 2.7540	 2.1980
 2.7550	 2.1740
 2.7570	 2.1730
 2.7580	 2.1540
 2.7600	 2.1470
 2.7610	 2.1270
 2.7630	 2.1530
 2.7640	 2.1090
 2.7660	 2.1360
 2.7670	 2.1620
 2.7680	 2.1720
 2.7700	 2.1450
 2.7710	 2.1650
 2.7730	 2.1690
 2.7740	 2.1610
 2.7760	 2.1440
 2.7770	 2.1600
 2.7790	 2.1020
 2.7800	 2.0930
 2.7820	 2.1080
 2.7830	 2.1480
 2.7850	 2.1150
 2.7860	 2.1250
 2.7880	 2.1090
 2.7890	 2.1470
 2.7910	 2.1260
 2.7920	 2.1400
 2.7940	 2.1220
 2.7950	 2.1400
 2.7970	 2.1130
 2.7980	 2.1090
 2.8000	 2.0720
 2.8010	 2.0900
 2.8030	 2.0710
 2.8040	 2.1120
 2.8060	 2.1150
 2.8070	 2.1320
 2.8090	 2.1350
 2.8110	 2.1090
 2.8120	 2.0410
 2.8140	 2.0580
 2.8150	 2.0450
 2.8170	 2.0820
 2.8180	 2.0380
 2.8200	 2.0450
 2.8210	 2.0680
 2.8230	 2.1090
 2.8240	 2.0980
 2.8260	 2.0940
 2.8270	 2.0700
 2.8290	 2.0780
 2.8300	 2.0840
 2.8320	 2.1090
 2.8340	 2.0470
 2.8350	 2.0390
 2.8370	 2.0220
 2.8380	 2.0330
 2.8400	 2.0760
 2.8410	 2.1390
 2.8430	 2.1210
 2.8440	 2.1280
 2.8460	 2.0840
 2.8480	 2.0690
 2.8490	 2.0290
 2.8510	 2.0450
 2.8520	 2.0370
 2.8540	 2.0010
 2.8550	 2.0140
 2.8570	 2.0680
 2.8590	 2.0810
 2.8600	 2.1090
 2.8620	 2.0710
 2.8630	 2.0530
 2.8650	 2.0190
 2.8660	 2.0340
 2.8680	 2.0510
 2.8700	 2.1440
 2.8710	 2.1060
 2.8730	 2.1130
 2.8740	 2.1020
 2.8760	 2.0920
 2.8780	 2.0060
 2.8790	 1.9960
 2.8810	 1.9990
 2.8820	 2.0360
 2.8840	 2.0500
 2.8860	 2.0800
 2.8870	 2.0400
 2.8890	 2.0730
 2.8900	 2.0770
 2.8920	 2.0770
 2.8940	 2.0660
 2.8950	 2.0710
 2.8970	 2.0710
 2.8980	 2.0800
 2.9000	 2.0470
 2.9020	 2.0600
 2.9030	 2.0710
 2.9050	 2.1060
 2.9070	 2.0620
 2.9080	 2.0710
 2.9100	 2.1100
 2.9120	 2.1390
 2.9130	 2.1130
 2.9150	 2.1040
 2.9160	 2.1060
 2.9180	 2.1280
 2.9200	 2.0670
 2.9210	 2.0790
 2.9230	 2.1010
 2.9250	 2.1110
 2.9260	 2.1310
 2.9280	 2.1240
 2.9300	 2.1140
 2.9310	 2.1710
 2.9330	 2.1410
 2.9350	 2.1390
 2.9360	 2.1490
 2.9380	 2.1640
 2.9400	 2.1210
 2.9410	 2.1110
 2.9430	 2.1000
 2.9450	 2.1820
 2.9460	 2.2090
 2.9480	 2.2080
 2.9500	 2.1600
 2.9510	 2.2010
 2.9530	 2.2310
 2.9550	 2.2150
 2.9560	 2.1560
 2.9580	 2.1920
 2.9600	 2.2230
 2.9610	 2.2280
 2.9630	 2.1980
 2.9650	 2.2420
 2.9660	 2.2270
 2.9680	 2.2310
 2.9700	 2.2470
 2.9720	 2.2430
 2.9730	 2.2030
 2.9750	 2.2330
 2.9770	 2.1830
 2.9780	 2.1570
 2.9800	 2.1630
 2.9820	 2.2140
 2.9840	 2.2110
 2.9850	 2.2670
 2.9870	 2.2690
 2.9890	 2.2580
 2.9900	 2.2690
 2.9920	 2.2970
 2.9940	 2.2590
 2.9960	 2.2850
 2.9970	 2.2500
 2.9990	 2.2070
 3.0010	 2.1880
 3.0030	 2.2890
 3.0040	 2.3340
 3.0060	 2.2950
 3.0080	 2.2030
 3.0100	 2.2440
 3.0110	 2.2340
 3.0130	 2.2350
 3.0150	 2.3070
 3.0170	 2.3620
 3.0180	 2.3360
 3.0200	 2.3530
 3.0220	 2.3500
 3.0240	 2.3790
 3.0250	 2.3650
 3.0270	 2.3600
 3.0290	 2.3210
 3.0310	 2.3500
 3.0320	 2.3630
 3.0340	 2.3780
 3.0360	 2.3500
 3.0380	 2.3520
 3.0400	 2.3640
 3.0410	 2.3550
 3.0430	 2.3160
 3.0450	 2.4020
 3.0470	 2.4560
 3.0480	 2.4750
 3.0500	 2.4200
 3.0520	 2.4180
 3.0540	 2.3850
 3.0560	 2.4120
 3.0570	 2.4270
 3.0590	 2.4090
 3.0610	 2.3880
 3.0630	 2.4510
 3.0650	 2.4390
 3.0660	 2.4470
 3.0680	 2.4440
 3.0700	 2.4620
 3.0720	 2.4700
 3.0740	 2.4510
 3.0760	 2.4040
 3.0770	 2.4490
 3.0790	 2.4520
 3.0810	 2.4950
 3.0830	 2.4820
 3.0850	 2.4730
 3.0870	 2.4770
 3.0880	 2.5110
 3.0900	 2.4910
 3.0920	 2.5080
 3.0940	 2.5060
 3.0960	 2.5250
 3.0980	 2.5300
 3.0990	 2.5360
 3.1010	 2.4730
 3.1030	 2.4900
 3.1050	 2.5280
 3.1070	 2.5760
 3.1090	 2.5370
 3.1110	 2.5220
 3.1120	 2.5230
 3.1140	 2.5400
 3.1160	 2.5500
 3.1180	 2.5880
 3.1200	 2.5510
 3.1220	 2.6320
 3.1240	 2.6520
 3.1260	 2.6420
 3.1270	 2.5780
 3.1290	 2.5770
 3.1310	 2.5750
 3.1330	 2.6070
 3.1350	 2.6390
 3.1370	 2.6380
 3.1390	 2.5920
 3.1410	 2.6570
 3.1430	 2.6740
 3.1450	 2.6850
 3.1460	 2.6620
 3.1480	 2.6540
 3.1500	 2.6220
 3.1520	 2.6420
 3.1540	 2.5960
 3.1560	 2.6240
 3.1580	 2.6440
 3.1600	 2.6840
 3.1620	 2.7190
 3.1640	 2.7960
 3.1660	 2.7680
 3.1680	 2.7100
 3.1700	 2.6810
 3.1710	 2.7230
 3.1730	 2.7040
 3.1750	 2.7080
 3.1770	 2.7070
 3.1790	 2.7310
 3.1810	 2.7350
 3.1830	 2.7810
 3.1850	 2.7620
 3.1870	 2.7140
 3.1890	 2.6650
 3.1910	 2.7060
 3.1930	 2.7080
 3.1950	 2.7220
 3.1970	 2.7320
 3.1990	 2.7710
 3.2010	 2.7510
 3.2030	 2.7570
 3.2050	 2.7830
 3.2070	 2.8090
 3.2090	 2.7920
 3.2110	 2.8200
 3.2130	 2.7740
 3.2150	 2.7690
 3.2170	 2.7730
 3.2190	 2.7610
 3.2210	 2.7130
 3.2230	 2.7360
 3.2250	 2.7980
 3.2270	 2.8370
 3.2290	 2.7960
 3.2310	 2.8260
 3.2330	 2.8300
 3.2350	 2.8350
 3.2370	 2.7930
 3.2390	 2.8240
 3.2410	 2.8340
 3.2430	 2.8310
 3.2450	 2.7780
 3.2470	 2.8080
 3.2490	 2.8210
 3.2510	 2.8350
 3.2530	 2.8660
 3.2550	 2.8960
 3.2570	 2.8600
 3.2590	 2.8360
 3.2610	 2.8070
 3.2630	 2.8510
 3.2650	 2.7930
 3.2670	 2.8060
 3.2690	 2.8310
 3.2720	 2.8500
 3.2740	 2.8370
 3.2760	 2.8470
 3.2780	 2.8610
 3.2800	 2.8990
 3.2820	 2.8550
 3.2840	 2.8680
 3.2860	 2.8400
 3.2880	 2.8400
 3.2900	 2.8290
 3.2920	 2.8610
 3.2940	 2.8530
 3.2960	 2.8160
 3.2990	 2.8260
 3.3010	 2.8960
 3.3030	 2.8870
 3.3050	 2.9160
 3.3070	 2.9050
 3.3090	 2.8620
 3.3110	 2.8450
 3.3130	 2.8430
 3.3150	 2.7860
 3.3180	 2.8070
 3.3200	 2.8390
 3.3220	 2.8230
 3.3240	 2.7690
 3.3260	 2.7710
 3.3280	 2.7240
 3.3300	 2.7500
 3.3330	 2.7500
 3.3350	 2.7450
 3.3370	 2.7480
 3.3390	 2.7880
 3.3410	 2.7680
 3.3430	 2.7380
 3.3450	 2.6640
 3.3480	 2.6500
 3.3500	 2.6120
 3.3520	 2.5860
 3.3540	 2.5580
 3.3560	 2.5870
 3.3580	 2.5950
 3.3610	 2.5710
 3.3630	 2.5100
 3.3650	 2.5040
 3.3670	 2.4850
 3.3690	 2.4810
 3.3720	 2.4760
 3.3740	 2.5160
 3.3760	 2.4960
 3.3780	 2.4500
 3.3800	 2.4220
 3.3830	 2.4800
 3.3850	 2.4650
 3.3870	 2.4860
 3.3890	 2.4860
 3.3910	 2.4270
 3.3940	 2.3360
 3.3960	 2.3300
 3.3980	 2.3450
 3.4000	 2.3960
 3.4020	 2.3800
 3.4050	 2.4640
 3.4070	 2.5430
 3.4090	 2.5940
 3.4110	 2.6820
 3.4140	 2.8810
 3.4160	 3.0590
 3.4180	 3.3460
 3.4200	 3.7650
 3.4230	 4.3520
 3.4250	 5.0250
 3.4270	 5.7980
 3.4290	 6.3720
 3.4320	 6.3770
 3.4340	 5.7740
 3.4360	 5.1940
 3.4390	 4.7570
 3.4410	 4.5260
 3.4430	 4.3620
 3.4450	 4.2770
 3.4480	 4.1700
 3.4500	 4.1530
 3.4520	 4.1100
 3.4550	 4.0600
 3.4570	 4.0170
 3.4590	 3.9810
 3.4620	 3.9150
 3.4640	 3.9040
 3.4660	 3.8800
 3.4680	 3.8390
 3.4710	 3.7830
 3.4730	 3.7300
 3.4750	 3.6360
 3.4780	 3.5720
 3.4800	 3.5140
 3.4820	 3.4800
 3.4850	 3.3950
 3.4870	 3.3200
 3.4890	 3.2600
 3.4920	 3.2190
 3.4940	 3.1540
 3.4970	 3.1710
 3.4990	 3.2220
 3.5010	 3.3580
 3.5040	 3.6200
 3.5060	 4.2240
 3.5080	 5.2620
 3.5110	 6.2350
 3.5130	 6.3720
 3.5160	 5.8490
 3.5180	 5.2720
 3.5200	 4.9500
 3.5230	 4.7090
 3.5250	 4.5340
 3.5270	 4.4450
 3.5300	 4.4040
 3.5320	 4.3020
 3.5350	 4.2320
 3.5370	 4.1900
 3.5400	 4.2170
 3.5420	 4.2380
 3.5440	 4.2610
 3.5470	 4.1860
 3.5490	 4.1450
 3.5520	 4.1140
 3.5540	 4.0930
 3.5570	 4.0860
 3.5590	 4.1180
 3.5610	 4.0860
 3.5640	 4.0930
 3.5660	 4.0450
 3.5690	 4.0630
 3.5710	 4.0590
 3.5740	 4.0410
 3.5760	 4.0550
 3.5790	 4.0680
 3.5810	 4.0280
 3.5840	 4.0640
 3.5860	 4.0650
 3.5890	 4.0450
 3.5910	 3.9520
 3.5930	 3.9520
 3.5960	 3.9550
 3.5980	 3.9630
 3.6010	 3.9620
 3.6030	 3.9660
 3.6060	 3.9500
 3.6080	 3.9410
 3.6110	 3.9470
 3.6140	 3.9860
 3.6160	 3.9880
 3.6190	 4.0230
 3.6210	 3.9960
 3.6240	 3.9790
 3.6260	 3.9380
 3.6290	 3.9610
 3.6310	 3.9850
 3.6340	 4.0420
 3.6360	 4.0250
 3.6390	 4.0100
 3.6410	 3.9640
 3.6440	 3.9740
 3.6470	 3.9700
 3.6490	 3.9670
 3.6520	 3.9810
 3.6540	 4.0010
 3.6570	 3.9880
 3.6590	 4.0050
 3.6620	 4.0180
 3.6650	 4.0800
 3.6670	 4.0580
 3.6700	 4.0260
 3.6720	 3.9940
 3.6750	 4.0250
 3.6780	 4.0250
 3.6800	 4.0270
 3.6830	 4.0120
 3.6850	 4.0530
 3.6880	 4.0210
 3.6910	 4.0140
 3.6930	 4.0230
 3.6960	 4.0800
 3.6990	 4.0860
 3.7010	 4.0960
 3.7040	 4.0830
 3.7060	 4.0880
 3.7090	 4.0740
 3.7120	 4.0840
 3.7140	 4.0720
 3.7170	 4.0920
 3.7200	 4.0820
 3.7220	 4.0620
 3.7250	 4.0610
 3.7280	 4.0340
 3.7300	 4.0280
 3.7330	 4.1150
 3.7360	 4.0910
 3.7390	 4.0570
 3.7410	 4.0270
 3.7440	 4.0460
 3.7470	 4.0750
 3.7490	 4.1430
 3.7520	 4.1530
 3.7550	 4.1620
 3.7580	 4.1470
 3.7600	 4.1380
 3.7630	 4.1340
 3.7660	 4.1610
 3.7680	 4.1530
 3.7710	 4.1810
 3.7740	 4.1630
 3.7770	 4.1600
 3.7790	 4.1590
 3.7820	 4.1770
 3.7850	 4.1720
 3.7880	 4.2320
 3.7900	 4.2370
 3.7930	 4.2270
 3.7960	 4.1920
 3.7990	 4.2070
 3.8020	 4.2310
 3.8040	 4.2590
 3.8070	 4.2150
 3.8100	 4.1960
 3.8130	 4.1920
 3.8160	 4.1820
 3.8180	 4.2230
 3.8210	 4.2220
 3.8240	 4.1700
 3.8270	 4.2340
 3.8300	 4.2260
 3.8330	 4.2330
 3.8350	 4.2020
 3.8380	 4.2210
 3.8410	 4.2220
 3.8440	 4.2360
 3.8470	 4.2380
 3.8500	 4.2510
 3.8520	 4.2840
 3.8550	 4.3240
 3.8580	 4.2970
 3.8610	 4.2950
 3.8640	 4.3180
 3.8670	 4.3310
 3.8700	 4.3180
 3.8730	 4.2880
 3.8750	 4.2830
 3.8780	 4.3250
 3.8810	 4.3140
 3.8840	 4.2950
 3.8870	 4.2640
 3.8900	 4.2660
 3.8930	 4.2710
 3.8960	 4.2940
 3.8990	 4.3000
 3.9020	 4.3410
 3.9050	 4.3410
 3.9080	 4.3340
 3.9110	 4.3270
 3.9140	 4.3250
 3.9160	 4.3240
 3.9190	 4.3540
 3.9220	 4.3420
 3.9250	 4.3440
 3.9280	 4.3470
 3.9310	 4.3640
 3.9340	 4.3240
 3.9370	 4.3520
 3.9400	 4.3830
 3.9430	 4.3650
 3.9460	 4.2990
 3.9490	 4.3530
 3.9520	 4.3870
 3.9550	 4.3520
 3.9580	 4.3300
 3.9610	 4.3800
 3.9640	 4.3840
 3.9670	 4.3680
 3.9700	 4.3780
 3.9730	 4.4140
 3.9770	 4.4110
 3.9800	 4.3830
 3.9830	 4.2980
 3.9860	 4.3140
 3.9890	 4.3440
 3.9920	 4.4200
 3.9950	 4.4300
 3.9980	 4.3760
 4.0010	 4.3790
 4.0040	 4.3830
 4.0070	 4.3750
 4.0100	 4.4120
 4.0130	 4.4060
 4.0170	 4.3980
 4.0200	 4.3290
 4.0230	 4.3080
 4.0260	 4.3400
 4.0290	 4.3790
 4.0320	 4.3520
 4.0350	 4.3320
 4.0380	 4.3500
 4.0420	 4.3620
 4.0450	 4.3620
 4.0480	 4.3740
 4.0510	 4.3460
 4.0540	 4.3820
 4.0570	 4.4040
 4.0610	 4.3910
 4.0640	 4.3730
 4.0670	 4.3810
 4.0700	 4.3480
 4.0730	 4.3560
 4.0770	 4.3360
 4.0800	 4.3640
 4.0830	 4.3910
 4.0860	 4.4010
 4.0890	 4.3840
 4.0930	 4.3550
 4.0960	 4.3100
 4.0990	 4.3250
 4.1020	 4.3140
 4.1060	 4.3600
 4.1090	 4.3840
 4.1120	 4.3740
 4.1150	 4.3410
 4.1190	 4.3630
 4.1220	 4.3520
 4.1250	 4.3800
 4.1280	 4.3810
 4.1320	 4.3560
 4.1350	 4.3490
 4.1380	 4.3560
 4.1420	 4.3340
 4.1450	 4.3610
 4.1480	 4.3910
 4.1520	 4.4650
 4.1550	 4.4370
 4.1580	 4.3780
 4.1620	 4.3020
 4.1650	 4.2800
 4.1680	 4.2960
 4.1720	 4.3160
 4.1750	 4.3070
 4.1780	 4.3380
 4.1820	 4.3290
 4.1850	 4.2860
 4.1890	 4.2640
 4.1920	 4.3010
 4.1950	 4.2150
 4.1990	 4.0890
 4.2020	 3.9390
 4.2060	 3.6710
 4.2090	 3.3480
 4.2120	 3.1070
 4.2160	 2.9050
 4.2190	 2.6980
 4.2230	 2.4530
 4.2260	 2.2910
 4.2300	 2.1820
 4.2330	 2.1250
 4.2360	 2.0960
 4.2400	 2.1800
 4.2430	 2.2420
 4.2470	 2.3670
 4.2500	 2.6430
 4.2540	 3.0420
 4.2570	 3.2830
 4.2610	 3.1000
 4.2640	 2.7770
 4.2680	 2.5900
 4.2710	 2.5270
 4.2750	 2.5440
 4.2780	 2.5250
 4.2820	 2.5320
 4.2850	 2.5550
 4.2890	 2.6170
 4.2930	 2.7070
 4.2960	 2.7740
 4.3000	 2.7870
 4.3030	 2.8600
 4.3070	 2.9860
 4.3100	 3.1000
 4.3140	 3.2060
 4.3180	 3.2940
 4.3210	 3.3730
 4.3250	 3.4610
 4.3280	 3.5710
 4.3320	 3.7210
 4.3360	 3.8010
 4.3390	 3.8320
 4.3430	 3.8280
 4.3470	 3.8570
 4.3500	 3.9380
 4.3540	 4.0060
 4.3570	 4.0260
 4.3610	 4.0280
 4.3650	 4.0050
 4.3680	 4.0390
 4.3720	 4.1150
 4.3760	 4.1210
 4.3800	 4.0930
 4.3830	 4.0470
 4.3870	 4.0410
 4.3910	 4.0490
 4.3940	 4.0400
 4.3980	 4.0330
 4.4020	 4.0190
 4.4060	 4.0700
 4.4090	 4.0600
 4.4130	 4.0550
 4.4170	 4.1040
 4.4210	 4.1780
 4.4240	 4.1340
 4.4280	 4.0830
 4.4320	 4.0610
 4.4360	 4.0600
 4.4400	 4.0690
 4.4430	 4.0690
 4.4470	 4.0830
 4.4510	 4.0720
 4.4550	 4.0630
 4.4590	 4.0280
 4.4620	 4.0320
 4.4660	 4.0780
 4.4700	 4.0680
 4.4740	 4.0580
 4.4780	 4.0600
 4.4820	 4.0430
 4.4860	 4.0430
 4.4900	 4.1300
 4.4930	 4.1290
 4.4970	 4.0660
 4.5010	 4.0690
 4.5050	 4.0840
 4.5090	 4.0490
 4.5130	 4.0200
 4.5170	 4.0400
 4.5210	 4.0710
 4.5250	 4.0450
 4.5290	 4.0320
 4.5330	 4.0130
 4.5370	 4.0030
 4.5410	 4.0340
 4.5450	 4.0530
 4.5490	 4.0280
 4.5530	 4.0520
 4.5570	 4.0770
 4.5610	 4.0560
 4.5650	 4.0350
 4.5690	 4.0310
 4.5730	 4.0260
 4.5770	 4.0380
 4.5810	 4.0610
 4.5850	 4.0720
 4.5890	 4.0360
 4.5930	 4.0020
 4.5970	 4.0060
 4.6010	 4.0250
 4.6050	 4.0400
 4.6090	 4.0480
 4.6130	 4.0470
 4.6170	 4.0710
 4.6220	 4.0570
 4.6260	 4.0380
 4.6300	 4.0450
 4.6340	 4.0370
 4.6380	 4.0370
 4.6420	 4.0110
 4.6460	 3.9890
 4.6510	 4.0290
 4.6550	 4.0610
 4.6590	 4.0610
 4.6630	 4.0170
 4.6670	 4.0150
 4.6720	 3.9940
 4.6760	 3.9500
 4.6800	 3.9720
 4.6840	 4.0060
 4.6880	 4.0240
 4.6930	 4.0700
 4.6970	 4.0680
 4.7010	 3.9770
 4.7050	 3.9460
 4.7100	 3.9740
 4.7140	 3.9770
 4.7180	 3.9960
 4.7230	 4.0420
 4.7270	 4.0150
 4.7310	 4.0250
 4.7360	 4.0710
 4.7400	 4.0330
 4.7440	 3.9780
 4.7490	 4.0460
 4.7530	 4.0650
 4.7570	 4.0120
 4.7620	 3.9930
 4.7660	 4.0150
 4.7700	 3.9630
 4.7750	 3.9420
 4.7790	 3.9700
 4.7840	 3.9540
 4.7880	 3.8930
 4.7920	 3.9340
 4.7970	 3.9880
 4.8010	 3.9890
 4.8060	 3.9520
 4.8100	 3.9060
 4.8150	 3.9210
 4.8190	 3.9490
 4.8240	 3.9190
 4.8280	 3.9320
 4.8330	 3.9230
 4.8370	 3.9020
 4.8420	 3.9150
 4.8460	 3.9480
 4.8510	 3.9370
 4.8550	 3.9130
 4.8600	 3.8890
 4.8640	 3.9120
 4.8690	 3.8950
 4.8730	 3.8800
 4.8780	 3.8940
 4.8830	 3.9120
 4.8870	 3.9010
 4.8920	 3.8980
 4.8960	 3.9200
 4.9010	 3.9300
 4.9060	 3.9180
 4.9100	 3.9260
 4.9150	 3.9070
 4.9200	 3.8950
 4.9240	 3.8890
 4.9290	 3.8870
 4.9340	 3.9020
 4.9380	 3.8770
 4.9430	 3.8870
 4.9480	 3.9080
 4.9530	 3.8830
 4.9570	 3.9280
 4.9620	 3.9260
 4.9670	 3.9380
 4.9720	 3.9260
 4.9760	 3.9030
 4.9810	 3.8590
 4.9860	 3.8270
 4.9910	 3.8230
 4.9960	 3.8580
 5.0000	 3.8900
 5.0050	 3.8960
 5.0100	 3.8720
 5.0150	 3.8770
 5.0200	 3.8650
 5.0250	 3.8660
 5.0290	 3.8870
 5.0340	 3.8900
 5.0390	 3.8670
 5.0440	 3.8340
 5.0490	 3.8410
 5.0540	 3.8830
 5.0590	 3.8830
 5.0640	 3.8680
 5.0690	 3.8690
 5.0740	 3.8630
 5.0790	 3.8310
 5.0840	 3.8800
 5.0890	 3.8970
 5.0940	 3.9270
 5.0990	 3.9290
 5.1040	 3.9280
 5.1090	 3.9020
 5.1140	 3.9020
 5.1190	 3.9070
 5.1240	 3.9040
 5.1290	 3.9080
 5.1340	 3.9320
 5.1390	 3.9220
 5.1440	 3.8770
 5.1490	 3.8690
 5.1540	 3.9180
 5.1600	 3.8920
 5.1650	 3.8590
 5.1700	 3.8290
 5.1750	 3.8930
 5.1800	 3.9310
 5.1850	 3.8920
 5.1910	 3.8720
 5.1960	 3.9090
 5.2010	 3.8950
 5.2060	 3.8710
 5.2110	 3.8620
 5.2170	 3.8900
 5.2220	 3.8890
 5.2270	 3.8490
 5.2320	 3.8260
 5.2380	 3.8830
 5.2430	 3.9070
 5.2480	 3.8780
 5.2540	 3.8530
 5.2590	 3.8700
 5.2640	 3.8250
 5.2700	 3.8210
 5.2750	 3.8220
 5.2800	 3.8410
 5.2860	 3.8250
 5.2910	 3.8010
 5.2970	 3.8110
 5.3020	 3.8850
 5.3070	 3.8940
 5.3130	 3.8930
 5.3180	 3.8600
 5.3240	 3.8450
 5.3290	 3.8270
 5.3350	 3.8070
 5.3400	 3.7710
 5.3460	 3.8110
 5.3510	 3.8030
 5.3570	 3.7790
 5.3620	 3.7630
 5.3680	 3.7990
 5.3730	 3.8130
 5.3790	 3.8090
 5.3850	 3.7800
 5.3900	 3.8040
 5.3960	 3.8210
 5.4010	 3.8240
 5.4070	 3.8190
 5.4130	 3.8270
 5.4180	 3.7800
 5.4240	 3.7250
 5.4300	 3.7210
 5.4350	 3.7870
 5.4410	 3.7940
 5.4470	 3.7740
 5.4530	 3.7340
 5.4580	 3.7490
 5.4640	 3.7600
 5.4700	 3.7540
 5.4760	 3.7260
 5.4810	 3.7050
 5.4870	 3.6690
 5.4930	 3.6850
 5.4990	 3.6780
 5.5050	 3.6990
 5.5110	 3.6610
 5.5160	 3.6390
 5.5220	 3.6240
 5.5280	 3.6500
 5.5340	 3.6490
 5.5400	 3.6700
 5.5460	 3.6460
 5.5520	 3.6240
 5.5580	 3.5680
 5.5640	 3.5610
 5.5700	 3.5320
 5.5760	 3.5170
 5.5820	 3.4850
 5.5880	 3.4720
 5.5940	 3.4520
 5.6000	 3.4830
 5.6060	 3.4550
 5.6120	 3.4600
 5.6180	 3.4590
 5.6240	 3.4430
 5.6300	 3.3810
 5.6360	 3.3450
 5.6420	 3.3340
 5.6490	 3.3100
 5.6550	 3.2600
 5.6610	 3.2560
 5.6670	 3.1960
 5.6730	 3.1320
 5.6800	 3.0670
 5.6860	 3.0570
 5.6920	 3.0320
 5.6980	 3.0180
 5.7040	 2.9030
 5.7110	 2.8530
 5.7170	 2.8340
 5.7230	 2.7640
 5.7300	 2.6010
 5.7360	 2.5550
 5.7420	 2.5300
 5.7490	 2.6030
 5.7550	 2.6710
 5.7620	 2.7550
 5.7680	 2.8380
 5.7740	 2.9680
 5.7810	 3.0610
 5.7870	 3.1970
 5.7940	 3.2400
 5.8000	 3.3090
 5.8070	 3.3230
 5.8130	 3.3340
 5.8200	 3.2920
 5.8260	 3.3520
 5.8330	 3.3880
 5.8390	 3.4310
 5.8460	 3.4490
 5.8530	 3.5010
 5.8590	 3.5130
 5.8660	 3.4940
 5.8720	 3.4890
 5.8790	 3.5380
 5.8860	 3.5190
 5.8920	 3.4780
 5.8990	 3.4520
 5.9060	 3.5160
 5.9130	 3.5230
 5.9190	 3.4810
 5.9260	 3.4160
 5.9330	 3.4060
 5.9400	 3.3250
 5.9470	 3.3080
 5.9530	 3.3230
 5.9600	 3.3580
 5.9670	 3.2980
 5.9740	 3.2820
 5.9810	 3.2270
 5.9880	 3.1910
 5.9950	 3.0970
 6.0020	 3.0580
 6.0090	 3.0250
 6.0160	 3.0590
 6.0230	 3.0500
 6.0300	 3.0690
 6.0370	 3.0400
 6.0440	 3.0310
 6.0510	 2.9710
 6.0580	 2.9850
 6.0650	 3.0010
 6.0720	 3.0310
 6.0790	 2.9930
 6.0860	 3.0230
 6.0930	 3.0280
 6.1000	 3.0470
 6.1080	 2.9710
 6.1150	 2.9590
 6.1220	 2.9800
 6.1290	 3.0170
 6.1370	 2.9930
 6.1440	 3.0110
 6.1510	 2.9640
 6.1580	 2.9660
 6.1660	 2.8880
 6.1730	 2.8470
 6.1800	 2.8250
 6.1880	 2.8630
 6.1950	 2.9040
 6.2030	 2.9390
 6.2100	 2.8980
 6.2170	 2.8880
 6.2250	 2.8740
 6.2320	 2.9520
 6.2400	 2.9590
 6.2470	 2.9560
 6.2550	 2.9750
 6.2630	 2.9910
 6.2700	 2.9460
 6.2780	 2.9830
 6.2850	 2.9980
 6.2930	 3.0410
 6.3010	 3.0340
 6.3080	 3.0780
 6.3160	 3.0690
 6.3240	 3.0990
 6.3310	 3.0490
 6.3390	 3.0180
 6.3470	 2.9960
 6.3550	 3.1110
 6.3620	 3.1100
 6.3700	 3.1080
 6.3780	 3.0880
 6.3860	 3.0950
 6.3940	 3.0600
 6.4020	 3.1210
 6.4100	 3.0800
 6.4180	 3.1110
 6.4260	 3.1690
 6.4330	 3.1930
 6.4410	 3.1340
 6.4490	 3.1450
 6.4580	 3.1010
 6.4660	 3.1630
 6.4740	 3.1430
 6.4820	 3.1170
 6.4900	 3.1100
 6.4980	 3.1510
 6.5060	 3.1200
 6.5140	 3.1840
 6.5230	 3.1320
 6.5310	 3.0730
 6.5390	 3.0520
 6.5470	 3.1150
 6.5550	 3.0550
 6.5640	 3.0430
 6.5720	 2.9960
 6.5800	 2.9840
 6.5890	 2.9300
 6.5970	 2.9520
 6.6060	 3.0080
 6.6140	 3.0710
 6.6220	 3.0620
 6.6310	 3.0990
 6.6390	 3.0680
 6.6480	 3.1270
 6.6560	 3.0720
 6.6650	 3.0660
 6.6740	 3.0750
 6.6820	 3.1040
 6.6910	 3.0780
 6.6990	 3.1220
 6.7080	 3.1080
 6.7170	 3.1200
 6.7260	 3.0690
 6.7340	 3.0270
 6.7430	 2.9120
 6.7520	 2.9550
 6.7610	 2.9220
 6.7690	 2.8760
 6.7780	 2.8630
 6.7870	 3.0160
 6.7960	 3.0160
 6.8050	 2.9040
 6.8140	 2.7820
 6.8230	 2.8750
 6.8320	 3.0200
 6.8410	 3.1350
 6.8500	 3.0100
 6.8590	 2.9380
 6.8680	 2.9060
 6.8770	 2.9770
 6.8860	 2.9790
 6.8950	 2.9700
 6.9050	 2.9120
 6.9140	 2.9470
 6.9230	 2.9060
 6.9320	 2.9470
 6.9420	 2.9400
 6.9510	 2.9640
 6.9600	 2.9420
 6.9700	 2.9850
 6.9790	 2.9460
 6.9880	 2.9350
 6.9980	 2.8900
 7.0070	 2.9220
 7.0170	 2.9140
 7.0260	 2.9100
 7.0360	 2.8550
 7.0450	 2.8460
 7.0550	 2.7550
 7.0650	 2.8140
 7.0740	 2.8290
 7.0840	 2.8570
 7.0940	 2.8060
 7.1030	 2.8380
 7.1130	 2.7560
 7.1230	 2.7300
 7.1330	 2.7000
 7.1420	 2.7100
 7.1520	 2.6220
 7.1620	 2.6740
 7.1720	 2.6790
 7.1820	 2.6620
 7.1920	 2.6190
 7.2020	 2.6890
 7.2120	 2.7210
 7.2220	 2.7570
 7.2320	 2.6510
 7.2420	 2.6790
 7.2520	 2.6910
 7.2620	 2.7290
 7.2730	 2.6850
 7.2830	 2.6870
 7.2930	 2.6830
 7.3030	 2.7360
 7.3140	 2.6790
 7.3240	 2.7000
 7.3340	 2.6640
 7.3450	 2.6430
 7.3550	 2.6100
 7.3660	 2.7220
 7.3760	 2.7360
 7.3870	 2.7610
 7.3970	 2.7190
 7.4080	 2.7610
 7.4180	 2.7310
 7.4290	 2.7740
 7.4400	 2.7050
 7.4500	 2.7630
 7.4610	 2.7700
 7.4720	 2.7880
 7.4830	 2.7070
 7.4930	 2.7050
 7.5040	 2.7070
 7.5150	 2.7410
 7.5260	 2.6530
 7.5370	 2.6700
 7.5480	 2.6020
 7.5590	 2.6420
 7.5700	 2.6370
 7.5810	 2.6290
 7.5920	 2.5850
 7.6030	 2.6000
 7.6140	 2.5100
 7.6260	 2.5610
 7.6370	 2.6140
 7.6480	 2.6950
 7.6590	 2.5730
 7.6710	 2.5780
 7.6820	 2.5630
 7.6930	 2.6370
 7.7050	 2.5730
 7.7160	 2.5250
 7.7280	 2.4700
 7.7390	 2.5140
 7.7510	 2.4640
 7.7630	 2.4550
 7.7740	 2.4020
 7.7860	 2.4610
 7.7980	 2.4420
 7.8090	 2.4770
 7.8210	 2.4410
 7.8330	 2.4590
 7.8450	 2.3940
 7.8570	 2.4320
 7.8690	 2.3630
 7.8810	 2.4190
 7.8930	 2.3520
 7.9050	 2.3590
 7.9170	 2.3020
 7.9290	 2.3230
 7.9410	 2.2670
 7.9530	 2.3040
 7.9650	 2.2960
 7.9780	 2.3120
 7.9900	 2.2050
 8.0020	 2.2920
 8.0150	 2.2750
 8.0270	 2.2270
 8.0390	 2.1100
 8.0520	 2.1300
 8.0640	 2.0550
 8.0770	 2.0130
 8.0900	 1.9420
 8.1020	 2.0310
 8.1150	 2.0160
 8.1280	 2.0380
 8.1400	 1.9870
 8.1530	 2.0050
 8.1660	 1.9060
 8.1790	 1.9010
 8.1920	 1.8710
 8.2050	 1.8910
 8.2180	 1.8540
 8.2310	 1.8870
 8.2440	 1.8460
 8.2570	 1.8980
 8.2700	 1.8810
 8.2830	 1.9470
 8.2970	 1.8650
 8.3100	 1.8810
 8.3230	 1.8480
 8.3370	 1.9490
 8.3500	 1.9640
 8.3640	 1.9660
 8.3770	 1.8770
 8.3910	 1.9160
 8.4040	 1.8860
 8.4180	 1.9570
 8.4320	 1.9520
 8.4450	 1.9960
 8.4590	 1.9160
 8.4730	 1.9580
 8.4870	 1.9630
 8.5010	 2.0490
 8.5150	 2.0080
 8.5290	 2.1160
 8.5430	 2.1520
 8.5570	 2.2300
 8.5710	 2.2090
 8.5850	 2.2810
 8.5990	 2.2830
 8.6140	 2.3160
 8.6280	 2.2450
 8.6420	 2.3400
 8.6570	 2.3020
 8.6710	 2.3660
 8.6860	 2.3140
 8.7000	 2.3270
 8.7150	 2.2790
 8.7300	 2.3220
 8.7440	 2.2440
 8.7590	 2.2850
 8.7740	 2.2530
 8.7890	 2.3330
 8.8040	 2.2810
 8.8190	 2.2750
 8.8340	 2.2380
 8.8490	 2.2330
 8.8640	 2.1110
 8.8790	 2.1890
 8.8940	 2.2040
 8.9100	 2.2450
 8.9250	 2.1560
 8.9400	 2.1960
 8.9560	 2.1180
 8.9710	 2.1370
 8.9870	 2.0600
 9.0020	 2.1320
 9.0180	 2.0920
 9.0340	 2.1160
 9.0500	 2.0630
 9.0650	 2.0960
 9.0810	 2.0490
 9.0970	 2.0980
 9.1130	 2.0500
 9.1290	 2.0960
 9.1450	 2.0270
 9.1610	 2.0650
 9.1780	 2.0180
 9.1940	 2.0770
 9.2100	 2.0530
 9.2270	 2.1200
 9.2430	 2.0230
 9.2600	 2.0440
 9.2760	 2.0160
 9.2930	 2.0640
 9.3090	 2.0470
 9.3260	 2.1220
 9.3430	 2.0500
 9.3600	 2.0940
 9.3770	 2.0230
 9.3940	 2.0250
 9.4110	 2.0130
 9.4280	 2.0780
 9.4450	 1.9900
 9.4620	 2.0370
 9.4800	 1.9580
 9.4970	 2.0090
 9.5140	 1.9860
 9.5320	 2.0420
 9.5500	 1.9620
 9.5670	 2.0110
 9.5850	 2.0180
 9.6030	 2.0780
 9.6200	 1.9930
 9.6380	 2.0490
 9.6560	 2.0100
 9.6740	 2.0570
 9.6920	 2.0280
 9.7100	 2.1190
 9.7290	 2.0290
 9.7470	 2.0570
 9.7650	 2.0160
 9.7840	 2.0830
 9.8020	 2.0220
 9.8210	 2.0640
 9.8390	 2.0380
 9.8580	 2.1170
 9.8770	 2.0770
 9.8960	 2.1140
 9.9150	 2.0550
 9.9340	 2.1430
 9.9530	 2.0720
 9.9720	 2.1210
 9.9910	 2.0930
10.0100	 2.2030
10.0300	 2.1690
10.0490	 2.2310
10.0690	 2.1830
10.0880	 2.2240
10.1080	 2.1560
10.1280	 2.1910
10.1480	 2.1710
10.1670	 2.2840
10.1870	 2.2100
10.2070	 2.2520
10.2280	 2.2710
10.2480	 2.3970
10.2680	 2.2840
10.2890	 2.2760
10.3090	 2.2470
10.3300	 2.3380
10.3500	 2.3260
10.3710	 2.4230
10.3920	 2.3690
10.4120	 2.4380
10.4330	 2.3790
10.4540	 2.4320
10.4760	 2.4020
10.4970	 2.4800
10.5180	 2.4600
10.5390	 2.5230
10.5610	 2.4130
10.5820	 2.4530
10.6040	 2.4290
10.6260	 2.4680
10.6480	 2.3840
10.6700	 2.4790
10.6920	 2.4030
10.7140	 2.4130
10.7360	 2.3490
10.7580	 2.4090
10.7800	 2.2880
10.8030	 2.3300
10.8250	 2.3210
10.8480	 2.4240
10.8710	 2.3740
10.8940	 2.4310
10.9170	 2.3500
10.9400	 2.3950
10.9630	 2.3710
10.9860	 2.4290
11.0090	 2.2770
11.0330	 2.3120
11.0560	 2.2420
11.0800	 2.3200
11.1040	 2.3090
11.1270	 2.3160
11.1510	 2.1920
11.1750	 2.2420
11.2000	 2.1420
11.2240	 2.1950
11.2480	 2.1010
11.2730	 2.1570
11.2970	 2.1340
11.3220	 2.2570
11.3470	 2.2220
11.3720	 2.2980
11.3970	 2.2250
11.4220	 2.2210
11.4470	 2.1300
11.4720	 2.2090
11.4980	 2.1540
11.5230	 2.2170
11.5490	 2.0620
11.5750	 2.0870
11.6000	 2.0380
11.6260	 2.1150
11.6530	 2.0620
11.6790	 2.0930
11.7050	 1.9540
11.7320	 1.9930
11.7580	 1.9160
11.7850	 1.9190
11.8120	 1.8250
11.8390	 1.8750
11.8660	 1.8330
11.8930	 1.9770
11.9200	 1.8850
11.9480	 1.9110
11.9760	 1.7940
12.0030	 1.8980
12.0310	 1.8480
12.0590	 1.9060
12.0870	 1.8060
12.1150	 1.8560
12.1440	 1.7930
12.1720	 1.8660
12.2010	 1.7580
12.2300	 1.7690
12.2590	 1.6630
12.2880	 1.7280
12.3170	 1.6480
12.3460	 1.6970
12.3760	 1.6450
12.4050	 1.6750
12.4350	 1.6140
12.4650	 1.7260
12.4950	 1.6170
12.5250	 1.6840
12.5550	 1.6180
12.5860	 1.6710
12.6170	 1.5410
12.6470	 1.6170
12.6780	 1.5490
12.7090	 1.6390
12.7410	 1.5500
12.7720	 1.6070
12.8030	 1.5240
12.8350	 1.6100
12.8670	 1.4610
12.8990	 1.4840
12.9310	 1.3690
12.9640	 1.4040
12.9960	 1.3320
13.0290	 1.4280
13.0610	 1.3410
13.0940	 1.3740
13.1280	 1.2380
13.1610	 1.2610
13.1940	 1.2140
13.2280	 1.4990
13.2620	 1.3650
13.2960	 1.2950
13.3300	 1.1950
13.3640	 1.2370
13.3990	 1.1010
13.4340	 1.1480
13.4690	 1.0940
13.5040	 1.1170
13.5390	 1.0360
13.5740	 1.1200
13.6100	 1.0180
13.6460	 1.1230
13.6820	 1.0930
13.7180	 1.1650
13.7540	 1.0770
13.7910	 1.1110
13.8280	 1.0300
13.8650	 1.1610
13.9020	 1.0790
13.9390	 1.1350
13.9770	 1.0410
14.0150	 1.1440
14.0530	 1.0100
14.0910	 1.0260
14.1290	 0.9280
14.1680	 1.0210
14.2070	 0.9130
14.2460	 0.9780
14.2850	 0.8360
14.3240	 0.9040
14.3640	 0.8850
14.4040	 0.9520
14.4440	 0.8180
14.4840	 0.9180
14.5250	 0.7730
14.5660	 0.8580
14.6070	 0.7900
14.6480	 0.8050
14.6900	 0.6630
14.7310	 0.7640
14.7730	 0.6960
14.8150	 0.8230
14.8580	 0.7680
14.9010	 0.8420
14.9440	 0.5850
14.9870	 0.6370
15.0300	 0.7100
15.0740	 0.7900
15.1180	 0.6260
15.1620	 0.7270
15.2060	 0.6630
15.2510	 0.6990
15.2960	 0.5560
15.3410	 0.6450
15.3870	 0.5850
