Name: Baccharis pilularis 3
Type: vegetation
Class: Shrub
Genus: Baccharis
Species: pilularis
Sample No.: VH102
Owner: UCSB
Wavelength Range: VSWIR
Origin: 34.418; -119.8456; WGS84
Collection Date: 6/3/2013
Description: Samples were collected as part of the HyspIRI Airborne Campaign. 48 individual plants were sampled in three times in 2013 - spring  summer  and fall. The name of the sample includes a 1  2  or 3 which references a different individual of the species. Samples were taken to JPL and processed within 48 hours of collection. The same leaves were processed in the Nicolet and then measured using the ASD.
Measurement: Bidirectional reflectance
First Column: X
Second Column: Y
X Units: Wavelength (micrometers)
Y Units: Reflectance (percentage)
First X Value: 0.35
Last X Value: 2.5
Number of X Values: 2151
Additional Information: vegetation.shrub.baccharis.pilularis.vswir.vh102.ucsb.asd.ancillary.txt

 0.3500	 3.3050
 0.3510	 3.0680
 0.3520	 3.1680
 0.3530	 3.3590
 0.3540	 3.3370
 0.3550	 3.0970
 0.3560	 3.0330
 0.3570	 3.1280
 0.3580	 3.1550
 0.3590	 3.0790
 0.3600	 3.0080
 0.3610	 3.0190
 0.3620	 3.1360
 0.3630	 3.0720
 0.3640	 2.9780
 0.3650	 3.0260
 0.3660	 3.0040
 0.3670	 3.0550
 0.3680	 3.1410
 0.3690	 3.1180
 0.3700	 3.1220
 0.3710	 3.1610
 0.3720	 3.1860
 0.3730	 3.0700
 0.3740	 3.0480
 0.3750	 3.1300
 0.3760	 3.2260
 0.3770	 3.1650
 0.3780	 3.1170
 0.3790	 3.1330
 0.3800	 3.1460
 0.3810	 3.1200
 0.3820	 3.1110
 0.3830	 3.1570
 0.3840	 3.2420
 0.3850	 3.2360
 0.3860	 3.1810
 0.3870	 3.1750
 0.3880	 3.2370
 0.3890	 3.2780
 0.3900	 3.2600
 0.3910	 3.2080
 0.3920	 3.2450
 0.3930	 3.3120
 0.3940	 3.3450
 0.3950	 3.3730
 0.3960	 3.3860
 0.3970	 3.3820
 0.3980	 3.3640
 0.3990	 3.3970
 0.4000	 3.4460
 0.4010	 3.4790
 0.4020	 3.4770
 0.4030	 3.5180
 0.4040	 3.5610
 0.4050	 3.5650
 0.4060	 3.6100
 0.4070	 3.6420
 0.4080	 3.6690
 0.4090	 3.7310
 0.4100	 3.7550
 0.4110	 3.7800
 0.4120	 3.8300
 0.4130	 3.8660
 0.4140	 3.9020
 0.4150	 3.9360
 0.4160	 3.9670
 0.4170	 3.9930
 0.4180	 4.0300
 0.4190	 4.0750
 0.4200	 4.1130
 0.4210	 4.1670
 0.4220	 4.2170
 0.4230	 4.2500
 0.4240	 4.2820
 0.4250	 4.3180
 0.4260	 4.3570
 0.4270	 4.3910
 0.4280	 4.4260
 0.4290	 4.4600
 0.4300	 4.4920
 0.4310	 4.5160
 0.4320	 4.5610
 0.4330	 4.6050
 0.4340	 4.6220
 0.4350	 4.6500
 0.4360	 4.6820
 0.4370	 4.7110
 0.4380	 4.7330
 0.4390	 4.7570
 0.4400	 4.7840
 0.4410	 4.8120
 0.4420	 4.8310
 0.4430	 4.8470
 0.4440	 4.8670
 0.4450	 4.8950
 0.4460	 4.9280
 0.4470	 4.9650
 0.4480	 4.9990
 0.4490	 5.0180
 0.4500	 5.0410
 0.4510	 5.0670
 0.4520	 5.0910
 0.4530	 5.1200
 0.4540	 5.1460
 0.4550	 5.1630
 0.4560	 5.1730
 0.4570	 5.1820
 0.4580	 5.2030
 0.4590	 5.2340
 0.4600	 5.2340
 0.4610	 5.2380
 0.4620	 5.2550
 0.4630	 5.2830
 0.4640	 5.2900
 0.4650	 5.2930
 0.4660	 5.2980
 0.4670	 5.3010
 0.4680	 5.3040
 0.4690	 5.3100
 0.4700	 5.3220
 0.4710	 5.3360
 0.4720	 5.3440
 0.4730	 5.3490
 0.4740	 5.3560
 0.4750	 5.3640
 0.4760	 5.3680
 0.4770	 5.3740
 0.4780	 5.3950
 0.4790	 5.4020
 0.4800	 5.3970
 0.4810	 5.3940
 0.4820	 5.4110
 0.4830	 5.4270
 0.4840	 5.4400
 0.4850	 5.4620
 0.4860	 5.4830
 0.4870	 5.5030
 0.4880	 5.5250
 0.4890	 5.5420
 0.4900	 5.5680
 0.4910	 5.5950
 0.4920	 5.6110
 0.4930	 5.6410
 0.4940	 5.6810
 0.4950	 5.7230
 0.4960	 5.7630
 0.4970	 5.8000
 0.4980	 5.8440
 0.4990	 5.9030
 0.5000	 5.9570
 0.5010	 6.0210
 0.5020	 6.0990
 0.5030	 6.1810
 0.5040	 6.2640
 0.5050	 6.3530
 0.5060	 6.4520
 0.5070	 6.5570
 0.5080	 6.6800
 0.5090	 6.8160
 0.5100	 6.9520
 0.5110	 7.1040
 0.5120	 7.2680
 0.5130	 7.4400
 0.5140	 7.6130
 0.5150	 7.8060
 0.5160	 8.0130
 0.5170	 8.2230
 0.5180	 8.4490
 0.5190	 8.6810
 0.5200	 8.9150
 0.5210	 9.1540
 0.5220	 9.3970
 0.5230	 9.6320
 0.5240	 9.8560
 0.5250	10.0850
 0.5260	10.3080
 0.5270	10.5200
 0.5280	10.7180
 0.5290	10.9050
 0.5300	11.0810
 0.5310	11.2460
 0.5320	11.4050
 0.5330	11.5430
 0.5340	11.6680
 0.5350	11.7900
 0.5360	11.8930
 0.5370	11.9890
 0.5380	12.0810
 0.5390	12.1680
 0.5400	12.2530
 0.5410	12.3330
 0.5420	12.4100
 0.5430	12.4840
 0.5440	12.5540
 0.5450	12.6180
 0.5460	12.6710
 0.5470	12.7120
 0.5480	12.7520
 0.5490	12.7930
 0.5500	12.8240
 0.5510	12.8530
 0.5520	12.8720
 0.5530	12.8760
 0.5540	12.8730
 0.5550	12.8490
 0.5560	12.8070
 0.5570	12.7570
 0.5580	12.6930
 0.5590	12.6200
 0.5600	12.5410
 0.5610	12.4560
 0.5620	12.3650
 0.5630	12.2680
 0.5640	12.1610
 0.5650	12.0490
 0.5660	11.9300
 0.5670	11.8040
 0.5680	11.6720
 0.5690	11.5310
 0.5700	11.3880
 0.5710	11.2450
 0.5720	11.1000
 0.5730	10.9610
 0.5740	10.8310
 0.5750	10.7130
 0.5760	10.6020
 0.5770	10.4930
 0.5780	10.3840
 0.5790	10.2820
 0.5800	10.1890
 0.5810	10.1050
 0.5820	10.0270
 0.5830	 9.9560
 0.5840	 9.8840
 0.5850	 9.8100
 0.5860	 9.7440
 0.5870	 9.6860
 0.5880	 9.6340
 0.5890	 9.5850
 0.5900	 9.5420
 0.5910	 9.5050
 0.5920	 9.4730
 0.5930	 9.4450
 0.5940	 9.4190
 0.5950	 9.3960
 0.5960	 9.3720
 0.5970	 9.3450
 0.5980	 9.3170
 0.5990	 9.2870
 0.6000	 9.2540
 0.6010	 9.2210
 0.6020	 9.1850
 0.6030	 9.1450
 0.6040	 9.0970
 0.6050	 9.0440
 0.6060	 8.9850
 0.6070	 8.9210
 0.6080	 8.8500
 0.6090	 8.7810
 0.6100	 8.7170
 0.6110	 8.6550
 0.6120	 8.5810
 0.6130	 8.4940
 0.6140	 8.4040
 0.6150	 8.3250
 0.6160	 8.2550
 0.6170	 8.1910
 0.6180	 8.1300
 0.6190	 8.0740
 0.6200	 8.0260
 0.6210	 7.9830
 0.6220	 7.9460
 0.6230	 7.9130
 0.6240	 7.8870
 0.6250	 7.8650
 0.6260	 7.8440
 0.6270	 7.8290
 0.6280	 7.8190
 0.6290	 7.8130
 0.6300	 7.8040
 0.6310	 7.7930
 0.6320	 7.7780
 0.6330	 7.7570
 0.6340	 7.7320
 0.6350	 7.6990
 0.6360	 7.6570
 0.6370	 7.6130
 0.6380	 7.5560
 0.6390	 7.4910
 0.6400	 7.4290
 0.6410	 7.3560
 0.6420	 7.2800
 0.6430	 7.2040
 0.6440	 7.1240
 0.6450	 7.0470
 0.6460	 6.9710
 0.6470	 6.8960
 0.6480	 6.8290
 0.6490	 6.7680
 0.6500	 6.7130
 0.6510	 6.6670
 0.6520	 6.6220
 0.6530	 6.5770
 0.6540	 6.5320
 0.6550	 6.4840
 0.6560	 6.4330
 0.6570	 6.3770
 0.6580	 6.3170
 0.6590	 6.2520
 0.6600	 6.1860
 0.6610	 6.1180
 0.6620	 6.0500
 0.6630	 5.9900
 0.6640	 5.9340
 0.6650	 5.8800
 0.6660	 5.8380
 0.6670	 5.8000
 0.6680	 5.7670
 0.6690	 5.7410
 0.6700	 5.7220
 0.6710	 5.7100
 0.6720	 5.7050
 0.6730	 5.7050
 0.6740	 5.7090
 0.6750	 5.7160
 0.6760	 5.7260
 0.6770	 5.7440
 0.6780	 5.7700
 0.6790	 5.8020
 0.6800	 5.8370
 0.6810	 5.8810
 0.6820	 5.9360
 0.6830	 6.0040
 0.6840	 6.0860
 0.6850	 6.1870
 0.6860	 6.3110
 0.6870	 6.4620
 0.6880	 6.6500
 0.6890	 6.8760
 0.6900	 7.1490
 0.6910	 7.4770
 0.6920	 7.8610
 0.6930	 8.3050
 0.6940	 8.8080
 0.6950	 9.3700
 0.6960	 9.9880
 0.6970	10.6560
 0.6980	11.3690
 0.6990	12.1290
 0.7000	12.9270
 0.7010	13.7550
 0.7020	14.6040
 0.7030	15.4700
 0.7040	16.3470
 0.7050	17.2320
 0.7060	18.1240
 0.7070	19.0180
 0.7080	19.9110
 0.7090	20.8030
 0.7100	21.6880
 0.7110	22.5740
 0.7120	23.4590
 0.7130	24.3360
 0.7140	25.2040
 0.7150	26.0670
 0.7160	26.9210
 0.7170	27.7640
 0.7180	28.5970
 0.7190	29.4160
 0.7200	30.2180
 0.7210	31.0050
 0.7220	31.7740
 0.7230	32.5220
 0.7240	33.2450
 0.7250	33.9460
 0.7260	34.6220
 0.7270	35.2690
 0.7280	35.8910
 0.7290	36.4850
 0.7300	37.0520
 0.7310	37.5890
 0.7320	38.0990
 0.7330	38.5830
 0.7340	39.0400
 0.7350	39.4700
 0.7360	39.8760
 0.7370	40.2610
 0.7380	40.6240
 0.7390	40.9590
 0.7400	41.2760
 0.7410	41.5740
 0.7420	41.8500
 0.7430	42.1030
 0.7440	42.3430
 0.7450	42.5710
 0.7460	42.7750
 0.7470	42.9660
 0.7480	43.1420
 0.7490	43.3020
 0.7500	43.4530
 0.7510	43.5900
 0.7520	43.7160
 0.7530	43.8340
 0.7540	43.9430
 0.7550	44.0410
 0.7560	44.1300
 0.7570	44.2150
 0.7580	44.2970
 0.7590	44.3710
 0.7600	44.4380
 0.7610	44.5090
 0.7620	44.5670
 0.7630	44.6180
 0.7640	44.6730
 0.7650	44.7190
 0.7660	44.7660
 0.7670	44.8130
 0.7680	44.8510
 0.7690	44.8900
 0.7700	44.9270
 0.7710	44.9610
 0.7720	44.9970
 0.7730	45.0320
 0.7740	45.0640
 0.7750	45.0940
 0.7760	45.1230
 0.7770	45.1550
 0.7780	45.1900
 0.7790	45.2240
 0.7800	45.2510
 0.7810	45.2810
 0.7820	45.3130
 0.7830	45.3420
 0.7840	45.3690
 0.7850	45.3950
 0.7860	45.4230
 0.7870	45.4560
 0.7880	45.4850
 0.7890	45.5120
 0.7900	45.5400
 0.7910	45.5700
 0.7920	45.5930
 0.7930	45.6140
 0.7940	45.6450
 0.7950	45.6700
 0.7960	45.6950
 0.7970	45.7220
 0.7980	45.7450
 0.7990	45.7670
 0.8000	45.7880
 0.8010	45.8080
 0.8020	45.8310
 0.8030	45.8540
 0.8040	45.8750
 0.8050	45.8960
 0.8060	45.9100
 0.8070	45.9260
 0.8080	45.9460
 0.8090	45.9580
 0.8100	45.9770
 0.8110	45.9980
 0.8120	46.0160
 0.8130	46.0370
 0.8140	46.0480
 0.8150	46.0580
 0.8160	46.0740
 0.8170	46.0930
 0.8180	46.1080
 0.8190	46.1180
 0.8200	46.1270
 0.8210	46.1440
 0.8220	46.1600
 0.8230	46.1710
 0.8240	46.1730
 0.8250	46.1840
 0.8260	46.1930
 0.8270	46.1960
 0.8280	46.2000
 0.8290	46.2120
 0.8300	46.2250
 0.8310	46.2290
 0.8320	46.2310
 0.8330	46.2410
 0.8340	46.2520
 0.8350	46.2560
 0.8360	46.2640
 0.8370	46.2760
 0.8380	46.2900
 0.8390	46.3030
 0.8400	46.3150
 0.8410	46.3270
 0.8420	46.3420
 0.8430	46.3620
 0.8440	46.3720
 0.8450	46.3820
 0.8460	46.4010
 0.8470	46.4130
 0.8480	46.4270
 0.8490	46.4430
 0.8500	46.4560
 0.8510	46.4720
 0.8520	46.4860
 0.8530	46.5010
 0.8540	46.5210
 0.8550	46.5360
 0.8560	46.5500
 0.8570	46.5660
 0.8580	46.5840
 0.8590	46.6020
 0.8600	46.6200
 0.8610	46.6360
 0.8620	46.6450
 0.8630	46.6630
 0.8640	46.6860
 0.8650	46.7040
 0.8660	46.7210
 0.8670	46.7370
 0.8680	46.7530
 0.8690	46.7710
 0.8700	46.7840
 0.8710	46.7990
 0.8720	46.8190
 0.8730	46.8410
 0.8740	46.8580
 0.8750	46.8770
 0.8760	46.9000
 0.8770	46.9200
 0.8780	46.9320
 0.8790	46.9510
 0.8800	46.9770
 0.8810	46.9970
 0.8820	47.0140
 0.8830	47.0360
 0.8840	47.0620
 0.8850	47.0730
 0.8860	47.0880
 0.8870	47.1090
 0.8880	47.1310
 0.8890	47.1550
 0.8900	47.1720
 0.8910	47.1890
 0.8920	47.2130
 0.8930	47.2340
 0.8940	47.2480
 0.8950	47.2590
 0.8960	47.2790
 0.8970	47.3020
 0.8980	47.3230
 0.8990	47.3400
 0.9000	47.3590
 0.9010	47.3760
 0.9020	47.3940
 0.9030	47.4160
 0.9040	47.4360
 0.9050	47.4540
 0.9060	47.4700
 0.9070	47.4860
 0.9080	47.5090
 0.9090	47.5210
 0.9100	47.5320
 0.9110	47.5530
 0.9120	47.5640
 0.9130	47.5750
 0.9140	47.5880
 0.9150	47.6010
 0.9160	47.6150
 0.9170	47.6320
 0.9180	47.6460
 0.9190	47.6530
 0.9200	47.6550
 0.9210	47.6600
 0.9220	47.6670
 0.9230	47.6690
 0.9240	47.6730
 0.9250	47.6610
 0.9260	47.6390
 0.9270	47.6280
 0.9280	47.6240
 0.9290	47.6170
 0.9300	47.6030
 0.9310	47.5880
 0.9320	47.5660
 0.9330	47.5450
 0.9340	47.5240
 0.9350	47.4970
 0.9360	47.4730
 0.9370	47.4460
 0.9380	47.4130
 0.9390	47.3810
 0.9400	47.3420
 0.9410	47.3030
 0.9420	47.2630
 0.9430	47.2150
 0.9440	47.1590
 0.9450	47.1040
 0.9460	47.0520
 0.9470	46.9980
 0.9480	46.9280
 0.9490	46.8450
 0.9500	46.7560
 0.9510	46.6730
 0.9520	46.5790
 0.9530	46.4850
 0.9540	46.3970
 0.9550	46.2970
 0.9560	46.2080
 0.9570	46.1240
 0.9580	46.0360
 0.9590	45.9690
 0.9600	45.9170
 0.9610	45.8660
 0.9620	45.8100
 0.9630	45.7770
 0.9640	45.7460
 0.9650	45.7190
 0.9660	45.7010
 0.9670	45.6840
 0.9680	45.6730
 0.9690	45.6690
 0.9700	45.6710
 0.9710	45.6620
 0.9720	45.6630
 0.9730	45.6690
 0.9740	45.6680
 0.9750	45.6680
 0.9760	45.6770
 0.9770	45.7010
 0.9780	45.7340
 0.9790	45.7380
 0.9800	45.7500
 0.9810	45.7750
 0.9820	45.8020
 0.9830	45.8310
 0.9840	45.8500
 0.9850	45.8710
 0.9860	45.9110
 0.9870	45.9370
 0.9880	45.9750
 0.9890	46.0190
 0.9900	46.0510
 0.9910	46.0980
 0.9920	46.1350
 0.9930	46.1720
 0.9940	46.2090
 0.9950	46.2460
 0.9960	46.2830
 0.9970	46.3200
 0.9980	46.3570
 0.9990	46.3940
 1.0000	46.4310
 1.0010	46.4680
 1.0020	46.5050
 1.0030	46.5420
 1.0040	46.5780
 1.0050	46.6150
 1.0060	46.6520
 1.0070	46.6890
 1.0080	46.7260
 1.0090	46.7630
 1.0100	46.7630
 1.0110	46.8090
 1.0120	46.8580
 1.0130	46.9090
 1.0140	46.9560
 1.0150	47.0020
 1.0160	47.0490
 1.0170	47.0930
 1.0180	47.1360
 1.0190	47.1850
 1.0200	47.2340
 1.0210	47.2780
 1.0220	47.3210
 1.0230	47.3660
 1.0240	47.4120
 1.0250	47.4560
 1.0260	47.5000
 1.0270	47.5440
 1.0280	47.5860
 1.0290	47.6270
 1.0300	47.6690
 1.0310	47.7080
 1.0320	47.7440
 1.0330	47.7790
 1.0340	47.8120
 1.0350	47.8500
 1.0360	47.8870
 1.0370	47.9210
 1.0380	47.9530
 1.0390	47.9810
 1.0400	48.0130
 1.0410	48.0450
 1.0420	48.0740
 1.0430	48.1030
 1.0440	48.1310
 1.0450	48.1540
 1.0460	48.1780
 1.0470	48.2030
 1.0480	48.2290
 1.0490	48.2530
 1.0500	48.2790
 1.0510	48.3090
 1.0520	48.3390
 1.0530	48.3640
 1.0540	48.3860
 1.0550	48.4080
 1.0560	48.4260
 1.0570	48.4440
 1.0580	48.4650
 1.0590	48.4820
 1.0600	48.4920
 1.0610	48.5070
 1.0620	48.5240
 1.0630	48.5390
 1.0640	48.5560
 1.0650	48.5720
 1.0660	48.5840
 1.0670	48.5970
 1.0680	48.6100
 1.0690	48.6230
 1.0700	48.6340
 1.0710	48.6430
 1.0720	48.6530
 1.0730	48.6620
 1.0740	48.6680
 1.0750	48.6700
 1.0760	48.6750
 1.0770	48.6770
 1.0780	48.6820
 1.0790	48.6920
 1.0800	48.6950
 1.0810	48.6920
 1.0820	48.6930
 1.0830	48.6950
 1.0840	48.6930
 1.0850	48.6890
 1.0860	48.6890
 1.0870	48.6850
 1.0880	48.6760
 1.0890	48.6680
 1.0900	48.6600
 1.0910	48.6520
 1.0920	48.6400
 1.0930	48.6300
 1.0940	48.6200
 1.0950	48.6080
 1.0960	48.5970
 1.0970	48.5820
 1.0980	48.5660
 1.0990	48.5500
 1.1000	48.5310
 1.1010	48.5120
 1.1020	48.4950
 1.1030	48.4750
 1.1040	48.4580
 1.1050	48.4410
 1.1060	48.4230
 1.1070	48.4060
 1.1080	48.3850
 1.1090	48.3620
 1.1100	48.3380
 1.1110	48.3130
 1.1120	48.2860
 1.1130	48.2580
 1.1140	48.2280
 1.1150	48.1980
 1.1160	48.1650
 1.1170	48.1320
 1.1180	48.0920
 1.1190	48.0520
 1.1200	48.0020
 1.1210	47.9480
 1.1220	47.8880
 1.1230	47.8180
 1.1240	47.7460
 1.1250	47.6660
 1.1260	47.5790
 1.1270	47.4810
 1.1280	47.3780
 1.1290	47.2570
 1.1300	47.1260
 1.1310	46.9800
 1.1320	46.8180
 1.1330	46.6470
 1.1340	46.4640
 1.1350	46.2700
 1.1360	46.0650
 1.1370	45.8500
 1.1380	45.6280
 1.1390	45.3970
 1.1400	45.1610
 1.1410	44.9260
 1.1420	44.6870
 1.1430	44.4490
 1.1440	44.2150
 1.1450	43.9790
 1.1460	43.7550
 1.1470	43.5330
 1.1480	43.3260
 1.1490	43.1270
 1.1500	42.9430
 1.1510	42.7690
 1.1520	42.6100
 1.1530	42.4640
 1.1540	42.3330
 1.1550	42.2150
 1.1560	42.1110
 1.1570	42.0200
 1.1580	41.9430
 1.1590	41.8760
 1.1600	41.8160
 1.1610	41.7640
 1.1620	41.7220
 1.1630	41.6850
 1.1640	41.6540
 1.1650	41.6260
 1.1660	41.6040
 1.1670	41.5840
 1.1680	41.5660
 1.1690	41.5500
 1.1700	41.5390
 1.1710	41.5270
 1.1720	41.5180
 1.1730	41.5080
 1.1740	41.4990
 1.1750	41.4890
 1.1760	41.4790
 1.1770	41.4690
 1.1780	41.4550
 1.1790	41.4400
 1.1800	41.4250
 1.1810	41.4090
 1.1820	41.3950
 1.1830	41.3820
 1.1840	41.3700
 1.1850	41.3590
 1.1860	41.3470
 1.1870	41.3340
 1.1880	41.3240
 1.1890	41.3130
 1.1900	41.3060
 1.1910	41.3010
 1.1920	41.3000
 1.1930	41.3030
 1.1940	41.3080
 1.1950	41.3160
 1.1960	41.3260
 1.1970	41.3400
 1.1980	41.3530
 1.1990	41.3700
 1.2000	41.3880
 1.2010	41.4100
 1.2020	41.4350
 1.2030	41.4620
 1.2040	41.4930
 1.2050	41.5210
 1.2060	41.5510
 1.2070	41.5850
 1.2080	41.6170
 1.2090	41.6540
 1.2100	41.6930
 1.2110	41.7310
 1.2120	41.7680
 1.2130	41.8080
 1.2140	41.8470
 1.2150	41.8900
 1.2160	41.9370
 1.2170	41.9840
 1.2180	42.0300
 1.2190	42.0790
 1.2200	42.1280
 1.2210	42.1750
 1.2220	42.2230
 1.2230	42.2700
 1.2240	42.3180
 1.2250	42.3640
 1.2260	42.4090
 1.2270	42.4550
 1.2280	42.5000
 1.2290	42.5440
 1.2300	42.5870
 1.2310	42.6300
 1.2320	42.6700
 1.2330	42.7090
 1.2340	42.7480
 1.2350	42.7870
 1.2360	42.8240
 1.2370	42.8600
 1.2380	42.8950
 1.2390	42.9300
 1.2400	42.9640
 1.2410	42.9990
 1.2420	43.0330
 1.2430	43.0650
 1.2440	43.0960
 1.2450	43.1260
 1.2460	43.1550
 1.2470	43.1810
 1.2480	43.2100
 1.2490	43.2380
 1.2500	43.2620
 1.2510	43.2900
 1.2520	43.3150
 1.2530	43.3360
 1.2540	43.3570
 1.2550	43.3770
 1.2560	43.3940
 1.2570	43.4090
 1.2580	43.4250
 1.2590	43.4370
 1.2600	43.4460
 1.2610	43.4550
 1.2620	43.4630
 1.2630	43.4690
 1.2640	43.4760
 1.2650	43.4830
 1.2660	43.4870
 1.2670	43.4870
 1.2680	43.4840
 1.2690	43.4790
 1.2700	43.4710
 1.2710	43.4620
 1.2720	43.4510
 1.2730	43.4340
 1.2740	43.4180
 1.2750	43.4010
 1.2760	43.3810
 1.2770	43.3620
 1.2780	43.3380
 1.2790	43.3110
 1.2800	43.2810
 1.2810	43.2510
 1.2820	43.2200
 1.2830	43.1860
 1.2840	43.1500
 1.2850	43.1110
 1.2860	43.0660
 1.2870	43.0200
 1.2880	42.9700
 1.2890	42.9200
 1.2900	42.8670
 1.2910	42.8130
 1.2920	42.7570
 1.2930	42.6980
 1.2940	42.6380
 1.2950	42.5770
 1.2960	42.5110
 1.2970	42.4410
 1.2980	42.3680
 1.2990	42.2910
 1.3000	42.2110
 1.3010	42.1280
 1.3020	42.0410
 1.3030	41.9500
 1.3040	41.8540
 1.3050	41.7560
 1.3060	41.6540
 1.3070	41.5450
 1.3080	41.4330
 1.3090	41.3160
 1.3100	41.1940
 1.3110	41.0690
 1.3120	40.9350
 1.3130	40.7980
 1.3140	40.6560
 1.3150	40.5060
 1.3160	40.3550
 1.3170	40.2030
 1.3180	40.0420
 1.3190	39.8780
 1.3200	39.7090
 1.3210	39.5310
 1.3220	39.3530
 1.3230	39.1730
 1.3240	38.9880
 1.3250	38.8010
 1.3260	38.6090
 1.3270	38.4120
 1.3280	38.2140
 1.3290	38.0130
 1.3300	37.8120
 1.3310	37.6090
 1.3320	37.4020
 1.3330	37.1960
 1.3340	36.9910
 1.3350	36.7860
 1.3360	36.5810
 1.3370	36.3770
 1.3380	36.1740
 1.3390	35.9720
 1.3400	35.7720
 1.3410	35.5760
 1.3420	35.3830
 1.3430	35.1910
 1.3440	35.0020
 1.3450	34.8150
 1.3460	34.6280
 1.3470	34.4480
 1.3480	34.2710
 1.3490	34.0950
 1.3500	33.9240
 1.3510	33.7520
 1.3520	33.5790
 1.3530	33.4080
 1.3540	33.2370
 1.3550	33.0660
 1.3560	32.8950
 1.3570	32.7210
 1.3580	32.5470
 1.3590	32.3710
 1.3600	32.1900
 1.3610	32.0040
 1.3620	31.8100
 1.3630	31.6100
 1.3640	31.4020
 1.3650	31.1830
 1.3660	30.9580
 1.3670	30.7220
 1.3680	30.4720
 1.3690	30.2090
 1.3700	29.9270
 1.3710	29.6310
 1.3720	29.3190
 1.3730	28.9880
 1.3740	28.6420
 1.3750	28.2750
 1.3760	27.8840
 1.3770	27.4720
 1.3780	27.0320
 1.3790	26.5710
 1.3800	26.0920
 1.3810	25.5870
 1.3820	25.0700
 1.3830	24.5360
 1.3840	23.9910
 1.3850	23.4280
 1.3860	22.8630
 1.3870	22.2830
 1.3880	21.7100
 1.3890	21.1340
 1.3900	20.5580
 1.3910	19.9930
 1.3920	19.4320
 1.3930	18.8770
 1.3940	18.3370
 1.3950	17.8050
 1.3960	17.2920
 1.3970	16.7990
 1.3980	16.3240
 1.3990	15.8750
 1.4000	15.4460
 1.4010	15.0370
 1.4020	14.6530
 1.4030	14.2880
 1.4040	13.9470
 1.4050	13.6300
 1.4060	13.3330
 1.4070	13.0590
 1.4080	12.8050
 1.4090	12.5690
 1.4100	12.3520
 1.4110	12.1510
 1.4120	11.9650
 1.4130	11.7950
 1.4140	11.6390
 1.4150	11.4980
 1.4160	11.3700
 1.4170	11.2510
 1.4180	11.1440
 1.4190	11.0460
 1.4200	10.9550
 1.4210	10.8730
 1.4220	10.7990
 1.4230	10.7310
 1.4240	10.6710
 1.4250	10.6160
 1.4260	10.5670
 1.4270	10.5220
 1.4280	10.4830
 1.4290	10.4480
 1.4300	10.4170
 1.4310	10.3890
 1.4320	10.3660
 1.4330	10.3460
 1.4340	10.3310
 1.4350	10.3170
 1.4360	10.3060
 1.4370	10.2970
 1.4380	10.2910
 1.4390	10.2870
 1.4400	10.2840
 1.4410	10.2850
 1.4420	10.2870
 1.4430	10.2910
 1.4440	10.2970
 1.4450	10.3040
 1.4460	10.3120
 1.4470	10.3200
 1.4480	10.3300
 1.4490	10.3400
 1.4500	10.3520
 1.4510	10.3650
 1.4520	10.3790
 1.4530	10.3950
 1.4540	10.4130
 1.4550	10.4320
 1.4560	10.4520
 1.4570	10.4740
 1.4580	10.4990
 1.4590	10.5270
 1.4600	10.5580
 1.4610	10.5930
 1.4620	10.6310
 1.4630	10.6730
 1.4640	10.7190
 1.4650	10.7690
 1.4660	10.8210
 1.4670	10.8780
 1.4680	10.9380
 1.4690	11.0010
 1.4700	11.0690
 1.4710	11.1410
 1.4720	11.2140
 1.4730	11.2890
 1.4740	11.3680
 1.4750	11.4490
 1.4760	11.5330
 1.4770	11.6200
 1.4780	11.7080
 1.4790	11.7980
 1.4800	11.8900
 1.4810	11.9830
 1.4820	12.0780
 1.4830	12.1740
 1.4840	12.2730
 1.4850	12.3730
 1.4860	12.4740
 1.4870	12.5750
 1.4880	12.6780
 1.4890	12.7810
 1.4900	12.8860
 1.4910	12.9920
 1.4920	13.0990
 1.4930	13.2070
 1.4940	13.3160
 1.4950	13.4260
 1.4960	13.5370
 1.4970	13.6460
 1.4980	13.7580
 1.4990	13.8700
 1.5000	13.9830
 1.5010	14.0980
 1.5020	14.2120
 1.5030	14.3260
 1.5040	14.4410
 1.5050	14.5570
 1.5060	14.6730
 1.5070	14.7910
 1.5080	14.9070
 1.5090	15.0240
 1.5100	15.1400
 1.5110	15.2560
 1.5120	15.3740
 1.5130	15.4900
 1.5140	15.6070
 1.5150	15.7250
 1.5160	15.8420
 1.5170	15.9600
 1.5180	16.0770
 1.5190	16.1940
 1.5200	16.3110
 1.5210	16.4270
 1.5220	16.5440
 1.5230	16.6600
 1.5240	16.7760
 1.5250	16.8920
 1.5260	17.0060
 1.5270	17.1190
 1.5280	17.2340
 1.5290	17.3460
 1.5300	17.4590
 1.5310	17.5720
 1.5320	17.6840
 1.5330	17.7960
 1.5340	17.9070
 1.5350	18.0180
 1.5360	18.1290
 1.5370	18.2400
 1.5380	18.3500
 1.5390	18.4590
 1.5400	18.5680
 1.5410	18.6770
 1.5420	18.7860
 1.5430	18.8940
 1.5440	19.0020
 1.5450	19.1080
 1.5460	19.2140
 1.5470	19.3200
 1.5480	19.4240
 1.5490	19.5280
 1.5500	19.6310
 1.5510	19.7330
 1.5520	19.8350
 1.5530	19.9360
 1.5540	20.0360
 1.5550	20.1380
 1.5560	20.2360
 1.5570	20.3350
 1.5580	20.4330
 1.5590	20.5280
 1.5600	20.6230
 1.5610	20.7170
 1.5620	20.8100
 1.5630	20.9020
 1.5640	20.9940
 1.5650	21.0850
 1.5660	21.1750
 1.5670	21.2640
 1.5680	21.3540
 1.5690	21.4410
 1.5700	21.5290
 1.5710	21.6160
 1.5720	21.7020
 1.5730	21.7870
 1.5740	21.8700
 1.5750	21.9540
 1.5760	22.0390
 1.5770	22.1210
 1.5780	22.2020
 1.5790	22.2830
 1.5800	22.3630
 1.5810	22.4430
 1.5820	22.5230
 1.5830	22.6020
 1.5840	22.6800
 1.5850	22.7550
 1.5860	22.8320
 1.5870	22.9070
 1.5880	22.9810
 1.5890	23.0560
 1.5900	23.1300
 1.5910	23.2020
 1.5920	23.2750
 1.5930	23.3460
 1.5940	23.4170
 1.5950	23.4880
 1.5960	23.5590
 1.5970	23.6280
 1.5980	23.6980
 1.5990	23.7650
 1.6000	23.8310
 1.6010	23.8940
 1.6020	23.9570
 1.6030	24.0190
 1.6040	24.0830
 1.6050	24.1460
 1.6060	24.2050
 1.6070	24.2630
 1.6080	24.3220
 1.6090	24.3780
 1.6100	24.4350
 1.6110	24.4910
 1.6120	24.5440
 1.6130	24.5970
 1.6140	24.6490
 1.6150	24.7010
 1.6160	24.7530
 1.6170	24.8030
 1.6180	24.8520
 1.6190	24.9010
 1.6200	24.9480
 1.6210	24.9960
 1.6220	25.0410
 1.6230	25.0860
 1.6240	25.1300
 1.6250	25.1720
 1.6260	25.2140
 1.6270	25.2550
 1.6280	25.2930
 1.6290	25.3320
 1.6300	25.3690
 1.6310	25.4060
 1.6320	25.4420
 1.6330	25.4770
 1.6340	25.5110
 1.6350	25.5450
 1.6360	25.5800
 1.6370	25.6130
 1.6380	25.6470
 1.6390	25.6790
 1.6400	25.7100
 1.6410	25.7390
 1.6420	25.7690
 1.6430	25.7960
 1.6440	25.8240
 1.6450	25.8480
 1.6460	25.8700
 1.6470	25.8880
 1.6480	25.9040
 1.6490	25.9180
 1.6500	25.9290
 1.6510	25.9380
 1.6520	25.9440
 1.6530	25.9470
 1.6540	25.9480
 1.6550	25.9470
 1.6560	25.9440
 1.6570	25.9400
 1.6580	25.9340
 1.6590	25.9270
 1.6600	25.9180
 1.6610	25.9080
 1.6620	25.8970
 1.6630	25.8870
 1.6640	25.8760
 1.6650	25.8660
 1.6660	25.8540
 1.6670	25.8410
 1.6680	25.8270
 1.6690	25.8110
 1.6700	25.7950
 1.6710	25.7780
 1.6720	25.7590
 1.6730	25.7390
 1.6740	25.7180
 1.6750	25.6940
 1.6760	25.6650
 1.6770	25.6340
 1.6780	25.5990
 1.6790	25.5640
 1.6800	25.5290
 1.6810	25.4910
 1.6820	25.4510
 1.6830	25.4080
 1.6840	25.3620
 1.6850	25.3140
 1.6860	25.2640
 1.6870	25.2140
 1.6880	25.1640
 1.6890	25.1130
 1.6900	25.0640
 1.6910	25.0160
 1.6920	24.9670
 1.6930	24.9210
 1.6940	24.8740
 1.6950	24.8240
 1.6960	24.7760
 1.6970	24.7280
 1.6980	24.6800
 1.6990	24.6330
 1.7000	24.5850
 1.7010	24.5370
 1.7020	24.4880
 1.7030	24.4390
 1.7040	24.3890
 1.7050	24.3370
 1.7060	24.2840
 1.7070	24.2300
 1.7080	24.1760
 1.7090	24.1200
 1.7100	24.0670
 1.7110	24.0140
 1.7120	23.9620
 1.7130	23.9100
 1.7140	23.8580
 1.7150	23.8070
 1.7160	23.7550
 1.7170	23.7050
 1.7180	23.6560
 1.7190	23.6070
 1.7200	23.5590
 1.7210	23.5090
 1.7220	23.4580
 1.7230	23.4090
 1.7240	23.3610
 1.7250	23.3130
 1.7260	23.2680
 1.7270	23.2230
 1.7280	23.1780
 1.7290	23.1340
 1.7300	23.0890
 1.7310	23.0450
 1.7320	23.0020
 1.7330	22.9590
 1.7340	22.9190
 1.7350	22.8760
 1.7360	22.8340
 1.7370	22.7870
 1.7380	22.7380
 1.7390	22.6880
 1.7400	22.6350
 1.7410	22.5800
 1.7420	22.5230
 1.7430	22.4630
 1.7440	22.4000
 1.7450	22.3360
 1.7460	22.2710
 1.7470	22.2040
 1.7480	22.1340
 1.7490	22.0640
 1.7500	21.9940
 1.7510	21.9230
 1.7520	21.8520
 1.7530	21.7800
 1.7540	21.7060
 1.7550	21.6350
 1.7560	21.5630
 1.7570	21.4920
 1.7580	21.4230
 1.7590	21.3540
 1.7600	21.2840
 1.7610	21.2120
 1.7620	21.1470
 1.7630	21.0850
 1.7640	21.0250
 1.7650	20.9700
 1.7660	20.9140
 1.7670	20.8570
 1.7680	20.8040
 1.7690	20.7530
 1.7700	20.7050
 1.7710	20.6610
 1.7720	20.6170
 1.7730	20.5770
 1.7740	20.5360
 1.7750	20.4960
 1.7760	20.4580
 1.7770	20.4210
 1.7780	20.3860
 1.7790	20.3530
 1.7800	20.3230
 1.7810	20.2970
 1.7820	20.2710
 1.7830	20.2480
 1.7840	20.2250
 1.7850	20.2020
 1.7860	20.1800
 1.7870	20.1590
 1.7880	20.1410
 1.7890	20.1260
 1.7900	20.1140
 1.7910	20.1020
 1.7920	20.0910
 1.7930	20.0830
 1.7940	20.0760
 1.7950	20.0700
 1.7960	20.0670
 1.7970	20.0640
 1.7980	20.0620
 1.7990	20.0610
 1.8000	20.0620
 1.8010	20.0630
 1.8020	20.0630
 1.8030	20.0640
 1.8040	20.0650
 1.8050	20.0670
 1.8060	20.0700
 1.8070	20.0710
 1.8080	20.0710
 1.8090	20.0720
 1.8100	20.0720
 1.8110	20.0750
 1.8120	20.0770
 1.8130	20.0770
 1.8140	20.0760
 1.8150	20.0750
 1.8160	20.0700
 1.8170	20.0650
 1.8180	20.0600
 1.8190	20.0530
 1.8200	20.0450
 1.8210	20.0360
 1.8220	20.0270
 1.8230	20.0180
 1.8240	20.0060
 1.8250	19.9920
 1.8260	19.9770
 1.8270	19.9440
 1.8280	19.9120
 1.8290	19.8800
 1.8300	19.8470
 1.8310	19.8150
 1.8320	19.7820
 1.8330	19.7500
 1.8340	19.7170
 1.8350	19.7170
 1.8360	19.6650
 1.8370	19.6090
 1.8380	19.5470
 1.8390	19.4770
 1.8400	19.4050
 1.8410	19.3240
 1.8420	19.2350
 1.8430	19.1390
 1.8440	19.0420
 1.8450	18.9350
 1.8460	18.8200
 1.8470	18.6990
 1.8480	18.5640
 1.8490	18.4200
 1.8500	18.2660
 1.8510	18.1020
 1.8520	17.9280
 1.8530	17.7430
 1.8540	17.5490
 1.8550	17.3430
 1.8560	17.1260
 1.8570	16.8980
 1.8580	16.6560
 1.8590	16.4040
 1.8600	16.1410
 1.8610	15.8660
 1.8620	15.5800
 1.8630	15.2870
 1.8640	14.9800
 1.8650	14.6580
 1.8660	14.3280
 1.8670	13.9840
 1.8680	13.6300
 1.8690	13.2680
 1.8700	12.8970
 1.8710	12.5150
 1.8720	12.1320
 1.8730	11.7430
 1.8740	11.3530
 1.8750	10.9680
 1.8760	10.5820
 1.8770	10.2040
 1.8780	 9.8330
 1.8790	 9.4700
 1.8800	 9.1200
 1.8810	 8.7800
 1.8820	 8.4470
 1.8830	 8.1250
 1.8840	 7.8150
 1.8850	 7.5160
 1.8860	 7.2300
 1.8870	 6.9610
 1.8880	 6.7040
 1.8890	 6.4630
 1.8900	 6.2400
 1.8910	 6.0290
 1.8920	 5.8320
 1.8930	 5.6520
 1.8940	 5.4880
 1.8950	 5.3380
 1.8960	 5.2020
 1.8970	 5.0800
 1.8980	 4.9690
 1.8990	 4.8680
 1.9000	 4.7740
 1.9010	 4.6920
 1.9020	 4.6170
 1.9030	 4.5500
 1.9040	 4.4910
 1.9050	 4.4390
 1.9060	 4.3930
 1.9070	 4.3540
 1.9080	 4.3170
 1.9090	 4.2870
 1.9100	 4.2600
 1.9110	 4.2350
 1.9120	 4.2130
 1.9130	 4.1930
 1.9140	 4.1750
 1.9150	 4.1600
 1.9160	 4.1480
 1.9170	 4.1380
 1.9180	 4.1280
 1.9190	 4.1200
 1.9200	 4.1120
 1.9210	 4.1050
 1.9220	 4.1000
 1.9230	 4.0970
 1.9240	 4.0950
 1.9250	 4.0940
 1.9260	 4.0930
 1.9270	 4.0930
 1.9280	 4.0940
 1.9290	 4.0960
 1.9300	 4.1000
 1.9310	 4.1060
 1.9320	 4.1100
 1.9330	 4.1160
 1.9340	 4.1220
 1.9350	 4.1290
 1.9360	 4.1350
 1.9370	 4.1430
 1.9380	 4.1520
 1.9390	 4.1600
 1.9400	 4.1690
 1.9410	 4.1810
 1.9420	 4.1930
 1.9430	 4.2060
 1.9440	 4.2180
 1.9450	 4.2280
 1.9460	 4.2410
 1.9470	 4.2550
 1.9480	 4.2680
 1.9490	 4.2810
 1.9500	 4.2990
 1.9510	 4.3140
 1.9520	 4.3310
 1.9530	 4.3500
 1.9540	 4.3660
 1.9550	 4.3820
 1.9560	 4.3970
 1.9570	 4.4140
 1.9580	 4.4320
 1.9590	 4.4500
 1.9600	 4.4680
 1.9610	 4.4880
 1.9620	 4.5100
 1.9630	 4.5310
 1.9640	 4.5540
 1.9650	 4.5770
 1.9660	 4.6000
 1.9670	 4.6250
 1.9680	 4.6500
 1.9690	 4.6750
 1.9700	 4.7010
 1.9710	 4.7280
 1.9720	 4.7550
 1.9730	 4.7820
 1.9740	 4.8100
 1.9750	 4.8350
 1.9760	 4.8620
 1.9770	 4.8900
 1.9780	 4.9170
 1.9790	 4.9450
 1.9800	 4.9740
 1.9810	 5.0040
 1.9820	 5.0340
 1.9830	 5.0650
 1.9840	 5.0970
 1.9850	 5.1290
 1.9860	 5.1600
 1.9870	 5.1920
 1.9880	 5.2230
 1.9890	 5.2540
 1.9900	 5.2900
 1.9910	 5.3240
 1.9920	 5.3580
 1.9930	 5.3930
 1.9940	 5.4280
 1.9950	 5.4610
 1.9960	 5.4970
 1.9970	 5.5370
 1.9980	 5.5740
 1.9990	 5.6110
 2.0000	 5.6480
 2.0010	 5.6850
 2.0020	 5.7230
 2.0030	 5.7630
 2.0040	 5.8010
 2.0050	 5.8380
 2.0060	 5.8730
 2.0070	 5.9110
 2.0080	 5.9500
 2.0090	 5.9880
 2.0100	 6.0300
 2.0110	 6.0690
 2.0120	 6.1050
 2.0130	 6.1430
 2.0140	 6.1820
 2.0150	 6.2190
 2.0160	 6.2600
 2.0170	 6.3010
 2.0180	 6.3410
 2.0190	 6.3820
 2.0200	 6.4210
 2.0210	 6.4570
 2.0220	 6.4960
 2.0230	 6.5350
 2.0240	 6.5740
 2.0250	 6.6160
 2.0260	 6.6550
 2.0270	 6.6940
 2.0280	 6.7330
 2.0290	 6.7690
 2.0300	 6.8040
 2.0310	 6.8420
 2.0320	 6.8800
 2.0330	 6.9180
 2.0340	 6.9580
 2.0350	 6.9960
 2.0360	 7.0300
 2.0370	 7.0660
 2.0380	 7.1030
 2.0390	 7.1380
 2.0400	 7.1740
 2.0410	 7.2100
 2.0420	 7.2470
 2.0430	 7.2820
 2.0440	 7.3180
 2.0450	 7.3560
 2.0460	 7.3920
 2.0470	 7.4280
 2.0480	 7.4640
 2.0490	 7.4970
 2.0500	 7.5320
 2.0510	 7.5650
 2.0520	 7.6010
 2.0530	 7.6400
 2.0540	 7.6780
 2.0550	 7.7170
 2.0560	 7.7560
 2.0570	 7.7950
 2.0580	 7.8320
 2.0590	 7.8690
 2.0600	 7.9060
 2.0610	 7.9430
 2.0620	 7.9780
 2.0630	 8.0150
 2.0640	 8.0540
 2.0650	 8.0920
 2.0660	 8.1300
 2.0670	 8.1700
 2.0680	 8.2100
 2.0690	 8.2490
 2.0700	 8.2910
 2.0710	 8.3310
 2.0720	 8.3690
 2.0730	 8.4060
 2.0740	 8.4450
 2.0750	 8.4830
 2.0760	 8.5220
 2.0770	 8.5630
 2.0780	 8.6030
 2.0790	 8.6430
 2.0800	 8.6830
 2.0810	 8.7230
 2.0820	 8.7620
 2.0830	 8.7990
 2.0840	 8.8380
 2.0850	 8.8760
 2.0860	 8.9150
 2.0870	 8.9550
 2.0880	 8.9950
 2.0890	 9.0340
 2.0900	 9.0740
 2.0910	 9.1100
 2.0920	 9.1440
 2.0930	 9.1800
 2.0940	 9.2150
 2.0950	 9.2520
 2.0960	 9.2930
 2.0970	 9.3320
 2.0980	 9.3720
 2.0990	 9.4110
 2.1000	 9.4500
 2.1010	 9.4870
 2.1020	 9.5210
 2.1030	 9.5570
 2.1040	 9.5950
 2.1050	 9.6340
 2.1060	 9.6710
 2.1070	 9.7120
 2.1080	 9.7480
 2.1090	 9.7790
 2.1100	 9.8140
 2.1110	 9.8490
 2.1120	 9.8830
 2.1130	 9.9200
 2.1140	 9.9550
 2.1150	 9.9880
 2.1160	10.0230
 2.1170	10.0590
 2.1180	10.0930
 2.1190	10.1250
 2.1200	10.1590
 2.1210	10.1930
 2.1220	10.2260
 2.1230	10.2600
 2.1240	10.2980
 2.1250	10.3310
 2.1260	10.3630
 2.1270	10.3930
 2.1280	10.4210
 2.1290	10.4480
 2.1300	10.4710
 2.1310	10.4970
 2.1320	10.5220
 2.1330	10.5470
 2.1340	10.5730
 2.1350	10.5980
 2.1360	10.6200
 2.1370	10.6430
 2.1380	10.6680
 2.1390	10.6920
 2.1400	10.7160
 2.1410	10.7390
 2.1420	10.7620
 2.1430	10.7850
 2.1440	10.8080
 2.1450	10.8310
 2.1460	10.8530
 2.1470	10.8760
 2.1480	10.8970
 2.1490	10.9140
 2.1500	10.9350
 2.1510	10.9550
 2.1520	10.9760
 2.1530	11.0000
 2.1540	11.0210
 2.1550	11.0360
 2.1560	11.0550
 2.1570	11.0730
 2.1580	11.0920
 2.1590	11.1130
 2.1600	11.1300
 2.1610	11.1470
 2.1620	11.1640
 2.1630	11.1800
 2.1640	11.1940
 2.1650	11.2100
 2.1660	11.2250
 2.1670	11.2420
 2.1680	11.2610
 2.1690	11.2780
 2.1700	11.2930
 2.1710	11.3080
 2.1720	11.3200
 2.1730	11.3340
 2.1740	11.3480
 2.1750	11.3640
 2.1760	11.3810
 2.1770	11.3980
 2.1780	11.4170
 2.1790	11.4330
 2.1800	11.4480
 2.1810	11.4620
 2.1820	11.4720
 2.1830	11.4820
 2.1840	11.4950
 2.1850	11.5090
 2.1860	11.5220
 2.1870	11.5390
 2.1880	11.5520
 2.1890	11.5620
 2.1900	11.5730
 2.1910	11.5830
 2.1920	11.5940
 2.1930	11.6060
 2.1940	11.6160
 2.1950	11.6240
 2.1960	11.6330
 2.1970	11.6410
 2.1980	11.6490
 2.1990	11.6570
 2.2000	11.6650
 2.2010	11.6710
 2.2020	11.6790
 2.2030	11.6900
 2.2040	11.6960
 2.2050	11.6980
 2.2060	11.6990
 2.2070	11.6980
 2.2080	11.6930
 2.2090	11.6910
 2.2100	11.6910
 2.2110	11.6880
 2.2120	11.6840
 2.2130	11.6780
 2.2140	11.6700
 2.2150	11.6640
 2.2160	11.6580
 2.2170	11.6510
 2.2180	11.6450
 2.2190	11.6370
 2.2200	11.6270
 2.2210	11.6160
 2.2220	11.6050
 2.2230	11.5940
 2.2240	11.5830
 2.2250	11.5680
 2.2260	11.5510
 2.2270	11.5320
 2.2280	11.5090
 2.2290	11.4850
 2.2300	11.4620
 2.2310	11.4330
 2.2320	11.4020
 2.2330	11.3710
 2.2340	11.3360
 2.2350	11.2970
 2.2360	11.2600
 2.2370	11.2200
 2.2380	11.1820
 2.2390	11.1460
 2.2400	11.1060
 2.2410	11.0650
 2.2420	11.0240
 2.2430	10.9820
 2.2440	10.9420
 2.2450	10.9050
 2.2460	10.8680
 2.2470	10.8320
 2.2480	10.7970
 2.2490	10.7650
 2.2500	10.7310
 2.2510	10.7020
 2.2520	10.6640
 2.2530	10.6200
 2.2540	10.5790
 2.2550	10.5310
 2.2560	10.4890
 2.2570	10.4520
 2.2580	10.4130
 2.2590	10.3770
 2.2600	10.3360
 2.2610	10.2940
 2.2620	10.2460
 2.2630	10.1980
 2.2640	10.1490
 2.2650	10.0960
 2.2660	10.0500
 2.2670	10.0040
 2.2680	 9.9600
 2.2690	 9.9170
 2.2700	 9.8770
 2.2710	 9.8340
 2.2720	 9.7870
 2.2730	 9.7430
 2.2740	 9.6990
 2.2750	 9.6580
 2.2760	 9.6200
 2.2770	 9.5820
 2.2780	 9.5490
 2.2790	 9.5120
 2.2800	 9.4730
 2.2810	 9.4360
 2.2820	 9.3980
 2.2830	 9.3610
 2.2840	 9.3250
 2.2850	 9.2870
 2.2860	 9.2460
 2.2870	 9.2060
 2.2880	 9.1640
 2.2890	 9.1260
 2.2900	 9.0900
 2.2910	 9.0540
 2.2920	 9.0230
 2.2930	 8.9890
 2.2940	 8.9550
 2.2950	 8.9180
 2.2960	 8.8730
 2.2970	 8.8350
 2.2980	 8.7980
 2.2990	 8.7590
 2.3000	 8.7270
 2.3010	 8.6950
 2.3020	 8.6570
 2.3030	 8.6220
 2.3040	 8.5850
 2.3050	 8.5490
 2.3060	 8.5200
 2.3070	 8.4930
 2.3080	 8.4660
 2.3090	 8.4380
 2.3100	 8.4180
 2.3110	 8.3980
 2.3120	 8.3810
 2.3130	 8.3740
 2.3140	 8.3570
 2.3150	 8.3340
 2.3160	 8.3160
 2.3170	 8.2970
 2.3180	 8.2790
 2.3190	 8.2660
 2.3200	 8.2480
 2.3210	 8.2280
 2.3220	 8.2090
 2.3230	 8.1860
 2.3240	 8.1670
 2.3250	 8.1520
 2.3260	 8.1310
 2.3270	 8.1100
 2.3280	 8.0840
 2.3290	 8.0510
 2.3300	 8.0220
 2.3310	 7.9910
 2.3320	 7.9620
 2.3330	 7.9340
 2.3340	 7.9060
 2.3350	 7.8800
 2.3360	 7.8510
 2.3370	 7.8160
 2.3380	 7.7870
 2.3390	 7.7600
 2.3400	 7.7310
 2.3410	 7.7090
 2.3420	 7.6790
 2.3430	 7.6410
 2.3440	 7.6070
 2.3450	 7.5660
 2.3460	 7.5340
 2.3470	 7.5110
 2.3480	 7.4810
 2.3490	 7.4490
 2.3500	 7.4230
 2.3510	 7.3970
 2.3520	 7.3720
 2.3530	 7.3530
 2.3540	 7.3380
 2.3550	 7.3130
 2.3560	 7.2900
 2.3570	 7.2710
 2.3580	 7.2450
 2.3590	 7.2230
 2.3600	 7.2020
 2.3610	 7.1820
 2.3620	 7.1640
 2.3630	 7.1420
 2.3640	 7.1200
 2.3650	 7.0940
 2.3660	 7.0660
 2.3670	 7.0380
 2.3680	 7.0110
 2.3690	 6.9880
 2.3700	 6.9590
 2.3710	 6.9250
 2.3720	 6.8910
 2.3730	 6.8610
 2.3740	 6.8330
 2.3750	 6.8100
 2.3760	 6.7890
 2.3770	 6.7640
 2.3780	 6.7400
 2.3790	 6.7150
 2.3800	 6.6900
 2.3810	 6.6560
 2.3820	 6.6220
 2.3830	 6.5890
 2.3840	 6.5540
 2.3850	 6.5260
 2.3860	 6.4960
 2.3870	 6.4680
 2.3880	 6.4480
 2.3890	 6.4280
 2.3900	 6.4050
 2.3910	 6.3790
 2.3920	 6.3480
 2.3930	 6.3200
 2.3940	 6.2910
 2.3950	 6.2620
 2.3960	 6.2400
 2.3970	 6.2190
 2.3980	 6.1960
 2.3990	 6.1710
 2.4000	 6.1380
 2.4010	 6.1020
 2.4020	 6.0640
 2.4030	 6.0380
 2.4040	 6.0200
 2.4050	 6.0050
 2.4060	 5.9860
 2.4070	 5.9510
 2.4080	 5.9180
 2.4090	 5.8810
 2.4100	 5.8460
 2.4110	 5.8240
 2.4120	 5.8070
 2.4130	 5.7910
 2.4140	 5.7740
 2.4150	 5.7620
 2.4160	 5.7460
 2.4170	 5.7220
 2.4180	 5.6960
 2.4190	 5.6550
 2.4200	 5.6220
 2.4210	 5.6000
 2.4220	 5.5740
 2.4230	 5.5690
 2.4240	 5.5550
 2.4250	 5.5170
 2.4260	 5.4900
 2.4270	 5.4570
 2.4280	 5.4180
 2.4290	 5.3850
 2.4300	 5.3590
 2.4310	 5.3350
 2.4320	 5.3060
 2.4330	 5.2780
 2.4340	 5.2530
 2.4350	 5.2230
 2.4360	 5.1990
 2.4370	 5.1930
 2.4380	 5.1770
 2.4390	 5.1470
 2.4400	 5.1250
 2.4410	 5.0980
 2.4420	 5.0760
 2.4430	 5.0740
 2.4440	 5.0660
 2.4450	 5.0500
 2.4460	 5.0240
 2.4470	 4.9820
 2.4480	 4.9450
 2.4490	 4.9010
 2.4500	 4.8580
 2.4510	 4.8380
 2.4520	 4.8330
 2.4530	 4.8290
 2.4540	 4.8260
 2.4550	 4.8210
 2.4560	 4.7860
 2.4570	 4.7530
 2.4580	 4.7430
 2.4590	 4.7240
 2.4600	 4.7120
 2.4610	 4.7110
 2.4620	 4.6910
 2.4630	 4.6670
 2.4640	 4.6560
 2.4650	 4.6230
 2.4660	 4.6050
 2.4670	 4.6020
 2.4680	 4.5970
 2.4690	 4.6230
 2.4700	 4.6150
 2.4710	 4.5990
 2.4720	 4.5670
 2.4730	 4.4920
 2.4740	 4.4620
 2.4750	 4.4480
 2.4760	 4.4280
 2.4770	 4.4310
 2.4780	 4.4250
 2.4790	 4.4150
 2.4800	 4.3950
 2.4810	 4.3770
 2.4820	 4.3400
 2.4830	 4.2950
 2.4840	 4.2800
 2.4850	 4.2640
 2.4860	 4.2560
 2.4870	 4.2490
 2.4880	 4.2200
 2.4890	 4.2260
 2.4900	 4.2550
 2.4910	 4.2800
 2.4920	 4.3110
 2.4930	 4.3010
 2.4940	 4.2350
 2.4950	 4.2110
 2.4960	 4.2330
 2.4970	 4.2540
 2.4980	 4.3160
 2.4990	 4.3500
 2.5000	 4.3340
