Name: Salvia leucophylla 1
Type: vegetation
Class: Shrub
Genus: Salvia
Species: leucophylla
Sample No.: VH287
Owner: UCSB
Wavelength Range: VSWIR
Origin: 34.698; -120.0477; WGS84
Collection Date: 11/2/2013
Description: Samples were collected as part of the HyspIRI Airborne Campaign. 48 individual plants were sampled in three times in 2013 - spring  summer  and fall. The name of the sample includes a 1  2  or 3 which references a different individual of the species. Samples were taken to JPL and processed within 48 hours of collection. The same leaves were processed in the Nicolet and then measured using the ASD.
Measurement: Bidirectional reflectance
First Column: X
Second Column: Y
X Units: Wavelength (micrometers)
Y Units: Reflectance (percentage)
First X Value: 0.35
Last X Value: 2.5
Number of X Values: 2151
Additional Information: vegetation.shrub.salvia.leucophylla.vswir.vh287.ucsb.asd.ancillary.txt

 0.3500	 7.3500
 0.3510	 7.7930
 0.3520	 7.8870
 0.3530	 7.7780
 0.3540	 7.8050
 0.3550	 8.1850
 0.3560	 8.0580
 0.3570	 7.7610
 0.3580	 8.1010
 0.3590	 8.2800
 0.3600	 8.2840
 0.3610	 8.2290
 0.3620	 8.2910
 0.3630	 8.5020
 0.3640	 8.6700
 0.3650	 8.6480
 0.3660	 8.6550
 0.3670	 8.7680
 0.3680	 8.9200
 0.3690	 8.9690
 0.3700	 9.0810
 0.3710	 9.2120
 0.3720	 9.3240
 0.3730	 9.4280
 0.3740	 9.5140
 0.3750	 9.6250
 0.3760	 9.7880
 0.3770	 9.8680
 0.3780	10.0570
 0.3790	10.3020
 0.3800	10.3550
 0.3810	10.4770
 0.3820	10.6890
 0.3830	10.9160
 0.3840	10.9620
 0.3850	11.0140
 0.3860	11.1370
 0.3870	11.3290
 0.3880	11.5130
 0.3890	11.6110
 0.3900	11.6540
 0.3910	11.7710
 0.3920	11.8530
 0.3930	11.9340
 0.3940	12.0640
 0.3950	12.2610
 0.3960	12.3870
 0.3970	12.4570
 0.3980	12.5550
 0.3990	12.7230
 0.4000	12.8300
 0.4010	12.8550
 0.4020	12.9380
 0.4030	13.0840
 0.4040	13.2100
 0.4050	13.2580
 0.4060	13.3320
 0.4070	13.4310
 0.4080	13.5210
 0.4090	13.5630
 0.4100	13.6290
 0.4110	13.7320
 0.4120	13.8400
 0.4130	13.8460
 0.4140	13.9080
 0.4150	14.0190
 0.4160	14.1130
 0.4170	14.1540
 0.4180	14.2170
 0.4190	14.3070
 0.4200	14.3700
 0.4210	14.4340
 0.4220	14.5030
 0.4230	14.5790
 0.4240	14.6680
 0.4250	14.7370
 0.4260	14.7880
 0.4270	14.8390
 0.4280	14.9080
 0.4290	14.9820
 0.4300	15.0530
 0.4310	15.1230
 0.4320	15.1910
 0.4330	15.2610
 0.4340	15.3360
 0.4350	15.4060
 0.4360	15.4600
 0.4370	15.5040
 0.4380	15.5560
 0.4390	15.6160
 0.4400	15.6650
 0.4410	15.6990
 0.4420	15.7440
 0.4430	15.7970
 0.4440	15.8500
 0.4450	15.8960
 0.4460	15.9270
 0.4470	15.9610
 0.4480	16.0080
 0.4490	16.0610
 0.4500	16.0960
 0.4510	16.1400
 0.4520	16.2070
 0.4530	16.2290
 0.4540	16.2610
 0.4550	16.3060
 0.4560	16.3360
 0.4570	16.3630
 0.4580	16.4000
 0.4590	16.4470
 0.4600	16.4810
 0.4610	16.5090
 0.4620	16.5380
 0.4630	16.5760
 0.4640	16.6160
 0.4650	16.6410
 0.4660	16.6600
 0.4670	16.7070
 0.4680	16.7330
 0.4690	16.7500
 0.4700	16.7770
 0.4710	16.8200
 0.4720	16.8560
 0.4730	16.8770
 0.4740	16.8940
 0.4750	16.9290
 0.4760	16.9500
 0.4770	16.9540
 0.4780	16.9930
 0.4790	17.0270
 0.4800	17.0520
 0.4810	17.0720
 0.4820	17.0930
 0.4830	17.1160
 0.4840	17.1450
 0.4850	17.1840
 0.4860	17.2110
 0.4870	17.2300
 0.4880	17.2520
 0.4890	17.2720
 0.4900	17.3060
 0.4910	17.3460
 0.4920	17.3740
 0.4930	17.3940
 0.4940	17.4230
 0.4950	17.4600
 0.4960	17.4820
 0.4970	17.5210
 0.4980	17.5660
 0.4990	17.6000
 0.5000	17.6330
 0.5010	17.6710
 0.5020	17.7170
 0.5030	17.7700
 0.5040	17.8070
 0.5050	17.8440
 0.5060	17.8980
 0.5070	17.9510
 0.5080	18.0110
 0.5090	18.0750
 0.5100	18.1350
 0.5110	18.1990
 0.5120	18.2680
 0.5130	18.3430
 0.5140	18.4200
 0.5150	18.4930
 0.5160	18.5600
 0.5170	18.6250
 0.5180	18.7110
 0.5190	18.8040
 0.5200	18.8920
 0.5210	18.9690
 0.5220	19.0400
 0.5230	19.1190
 0.5240	19.2100
 0.5250	19.2840
 0.5260	19.3620
 0.5270	19.4430
 0.5280	19.5180
 0.5290	19.5900
 0.5300	19.6640
 0.5310	19.7400
 0.5320	19.8100
 0.5330	19.8850
 0.5340	19.9610
 0.5350	20.0320
 0.5360	20.1020
 0.5370	20.1650
 0.5380	20.2270
 0.5390	20.2980
 0.5400	20.3810
 0.5410	20.4630
 0.5420	20.5400
 0.5430	20.6230
 0.5440	20.6950
 0.5450	20.7530
 0.5460	20.7970
 0.5470	20.8290
 0.5480	20.8620
 0.5490	20.9050
 0.5500	20.9510
 0.5510	21.0010
 0.5520	21.0490
 0.5530	21.0920
 0.5540	21.1240
 0.5550	21.1640
 0.5560	21.2090
 0.5570	21.2430
 0.5580	21.2790
 0.5590	21.3180
 0.5600	21.3610
 0.5610	21.3980
 0.5620	21.4450
 0.5630	21.4950
 0.5640	21.5330
 0.5650	21.5530
 0.5660	21.5580
 0.5670	21.5650
 0.5680	21.6050
 0.5690	21.6330
 0.5700	21.6500
 0.5710	21.6670
 0.5720	21.6750
 0.5730	21.6900
 0.5740	21.7150
 0.5750	21.7480
 0.5760	21.7760
 0.5770	21.7880
 0.5780	21.7870
 0.5790	21.8040
 0.5800	21.8190
 0.5810	21.8330
 0.5820	21.8510
 0.5830	21.8620
 0.5840	21.8620
 0.5850	21.8590
 0.5860	21.8730
 0.5870	21.9170
 0.5880	21.9710
 0.5890	22.0170
 0.5900	22.0650
 0.5910	22.0880
 0.5920	22.0910
 0.5930	22.0950
 0.5940	22.0940
 0.5950	22.1070
 0.5960	22.1350
 0.5970	22.1530
 0.5980	22.1850
 0.5990	22.2140
 0.6000	22.2210
 0.6010	22.2320
 0.6020	22.2470
 0.6030	22.2630
 0.6040	22.2700
 0.6050	22.2890
 0.6060	22.3150
 0.6070	22.3400
 0.6080	22.3590
 0.6090	22.3840
 0.6100	22.4270
 0.6110	22.4850
 0.6120	22.4950
 0.6130	22.4840
 0.6140	22.4790
 0.6150	22.4860
 0.6160	22.4910
 0.6170	22.4970
 0.6180	22.5120
 0.6190	22.5340
 0.6200	22.5560
 0.6210	22.5740
 0.6220	22.5930
 0.6230	22.6180
 0.6240	22.6440
 0.6250	22.6680
 0.6260	22.6940
 0.6270	22.7240
 0.6280	22.7600
 0.6290	22.7980
 0.6300	22.8240
 0.6310	22.8520
 0.6320	22.8810
 0.6330	22.8900
 0.6340	22.9040
 0.6350	22.9160
 0.6360	22.9190
 0.6370	22.9130
 0.6380	22.8980
 0.6390	22.8770
 0.6400	22.8520
 0.6410	22.8100
 0.6420	22.7690
 0.6430	22.7340
 0.6440	22.6870
 0.6450	22.6440
 0.6460	22.6050
 0.6470	22.5680
 0.6480	22.5430
 0.6490	22.5240
 0.6500	22.5070
 0.6510	22.4900
 0.6520	22.4920
 0.6530	22.4980
 0.6540	22.4970
 0.6550	22.4980
 0.6560	22.4930
 0.6570	22.4860
 0.6580	22.4850
 0.6590	22.4780
 0.6600	22.4630
 0.6610	22.4370
 0.6620	22.3960
 0.6630	22.3710
 0.6640	22.3410
 0.6650	22.2940
 0.6660	22.2640
 0.6670	22.2400
 0.6680	22.2170
 0.6690	22.1940
 0.6700	22.1780
 0.6710	22.1690
 0.6720	22.1660
 0.6730	22.1690
 0.6740	22.1800
 0.6750	22.1980
 0.6760	22.2220
 0.6770	22.2460
 0.6780	22.2730
 0.6790	22.3120
 0.6800	22.3700
 0.6810	22.4300
 0.6820	22.5100
 0.6830	22.6200
 0.6840	22.7520
 0.6850	22.9030
 0.6860	23.0810
 0.6870	23.2910
 0.6880	23.5310
 0.6890	23.7940
 0.6900	24.0800
 0.6910	24.3950
 0.6920	24.7180
 0.6930	25.0430
 0.6940	25.3740
 0.6950	25.7270
 0.6960	26.0800
 0.6970	26.4270
 0.6980	26.7670
 0.6990	27.1010
 0.7000	27.4250
 0.7010	27.7400
 0.7020	28.0500
 0.7030	28.3510
 0.7040	28.6390
 0.7050	28.9100
 0.7060	29.1620
 0.7070	29.4150
 0.7080	29.6610
 0.7090	29.8830
 0.7100	30.0800
 0.7110	30.2770
 0.7120	30.4730
 0.7130	30.6360
 0.7140	30.8060
 0.7150	30.9710
 0.7160	31.1190
 0.7170	31.2590
 0.7180	31.4070
 0.7190	31.5510
 0.7200	31.6720
 0.7210	31.7890
 0.7220	31.9120
 0.7230	32.0340
 0.7240	32.1330
 0.7250	32.2320
 0.7260	32.3360
 0.7270	32.4390
 0.7280	32.5210
 0.7290	32.6100
 0.7300	32.7060
 0.7310	32.7950
 0.7320	32.8800
 0.7330	32.9540
 0.7340	33.0250
 0.7350	33.1110
 0.7360	33.1760
 0.7370	33.2440
 0.7380	33.3300
 0.7390	33.4070
 0.7400	33.4750
 0.7410	33.5370
 0.7420	33.6010
 0.7430	33.6700
 0.7440	33.7340
 0.7450	33.7920
 0.7460	33.8490
 0.7470	33.9170
 0.7480	33.9840
 0.7490	34.0410
 0.7500	34.0920
 0.7510	34.1510
 0.7520	34.2100
 0.7530	34.2580
 0.7540	34.3150
 0.7550	34.3750
 0.7560	34.4340
 0.7570	34.4870
 0.7580	34.5330
 0.7590	34.5880
 0.7600	34.6530
 0.7610	34.6890
 0.7620	34.7370
 0.7630	34.7950
 0.7640	34.8530
 0.7650	34.8940
 0.7660	34.9400
 0.7670	34.9930
 0.7680	35.0390
 0.7690	35.0970
 0.7700	35.1430
 0.7710	35.1750
 0.7720	35.2230
 0.7730	35.2780
 0.7740	35.3300
 0.7750	35.3760
 0.7760	35.4270
 0.7770	35.4700
 0.7780	35.5150
 0.7790	35.5720
 0.7800	35.6210
 0.7810	35.6630
 0.7820	35.7060
 0.7830	35.7600
 0.7840	35.8110
 0.7850	35.8560
 0.7860	35.9000
 0.7870	35.9510
 0.7880	35.9960
 0.7890	36.0330
 0.7900	36.0720
 0.7910	36.1390
 0.7920	36.1940
 0.7930	36.2300
 0.7940	36.2690
 0.7950	36.3150
 0.7960	36.3700
 0.7970	36.4330
 0.7980	36.4910
 0.7990	36.5290
 0.8000	36.5640
 0.8010	36.6130
 0.8020	36.6750
 0.8030	36.7320
 0.8040	36.7790
 0.8050	36.8220
 0.8060	36.8660
 0.8070	36.9230
 0.8080	36.9780
 0.8090	37.0020
 0.8100	37.0680
 0.8110	37.1320
 0.8120	37.1680
 0.8130	37.2040
 0.8140	37.2590
 0.8150	37.3220
 0.8160	37.3770
 0.8170	37.4180
 0.8180	37.4720
 0.8190	37.5290
 0.8200	37.5700
 0.8210	37.6190
 0.8220	37.6680
 0.8230	37.7140
 0.8240	37.7630
 0.8250	37.8170
 0.8260	37.8660
 0.8270	37.9060
 0.8280	37.9530
 0.8290	38.0060
 0.8300	38.0670
 0.8310	38.1280
 0.8320	38.1630
 0.8330	38.1880
 0.8340	38.2250
 0.8350	38.2890
 0.8360	38.3530
 0.8370	38.4000
 0.8380	38.4350
 0.8390	38.4790
 0.8400	38.5360
 0.8410	38.5820
 0.8420	38.6200
 0.8430	38.6840
 0.8440	38.7260
 0.8450	38.7720
 0.8460	38.8390
 0.8470	38.8750
 0.8480	38.9200
 0.8490	38.9730
 0.8500	39.0190
 0.8510	39.0540
 0.8520	39.1050
 0.8530	39.1590
 0.8540	39.1880
 0.8550	39.2400
 0.8560	39.2830
 0.8570	39.3220
 0.8580	39.3950
 0.8590	39.4410
 0.8600	39.4710
 0.8610	39.5060
 0.8620	39.5540
 0.8630	39.6060
 0.8640	39.6560
 0.8650	39.7000
 0.8660	39.7420
 0.8670	39.7780
 0.8680	39.8180
 0.8690	39.8690
 0.8700	39.9000
 0.8710	39.9340
 0.8720	39.9830
 0.8730	40.0480
 0.8740	40.0880
 0.8750	40.1290
 0.8760	40.1790
 0.8770	40.2200
 0.8780	40.2580
 0.8790	40.3110
 0.8800	40.3720
 0.8810	40.4030
 0.8820	40.4330
 0.8830	40.4730
 0.8840	40.5220
 0.8850	40.5520
 0.8860	40.6030
 0.8870	40.6480
 0.8880	40.6680
 0.8890	40.7180
 0.8900	40.7640
 0.8910	40.7960
 0.8920	40.8250
 0.8930	40.8850
 0.8940	40.9380
 0.8950	40.9760
 0.8960	41.0110
 0.8970	41.0510
 0.8980	41.0830
 0.8990	41.1080
 0.9000	41.1440
 0.9010	41.1880
 0.9020	41.2340
 0.9030	41.2750
 0.9040	41.3070
 0.9050	41.3530
 0.9060	41.3950
 0.9070	41.4210
 0.9080	41.4530
 0.9090	41.4870
 0.9100	41.5280
 0.9110	41.5760
 0.9120	41.6080
 0.9130	41.6430
 0.9140	41.6790
 0.9150	41.7180
 0.9160	41.7720
 0.9170	41.8260
 0.9180	41.8640
 0.9190	41.8780
 0.9200	41.9080
 0.9210	41.9560
 0.9220	42.0200
 0.9230	42.0940
 0.9240	42.1270
 0.9250	42.1390
 0.9260	42.1540
 0.9270	42.1920
 0.9280	42.2490
 0.9290	42.2830
 0.9300	42.2940
 0.9310	42.3230
 0.9320	42.3870
 0.9330	42.4370
 0.9340	42.4580
 0.9350	42.4840
 0.9360	42.5040
 0.9370	42.5230
 0.9380	42.5550
 0.9390	42.6180
 0.9400	42.6620
 0.9410	42.6900
 0.9420	42.7080
 0.9430	42.7160
 0.9440	42.7360
 0.9450	42.7750
 0.9460	42.8240
 0.9470	42.8530
 0.9480	42.8620
 0.9490	42.8570
 0.9500	42.8560
 0.9510	42.8890
 0.9520	42.9120
 0.9530	42.9260
 0.9540	42.9450
 0.9550	42.9680
 0.9560	42.9690
 0.9570	42.9630
 0.9580	42.9750
 0.9590	43.0020
 0.9600	43.0060
 0.9610	43.0130
 0.9620	43.0530
 0.9630	43.0810
 0.9640	43.0900
 0.9650	43.1070
 0.9660	43.1490
 0.9670	43.1630
 0.9680	43.1910
 0.9690	43.2180
 0.9700	43.2200
 0.9710	43.2720
 0.9720	43.3050
 0.9730	43.3190
 0.9740	43.3440
 0.9750	43.3570
 0.9760	43.3710
 0.9770	43.4070
 0.9780	43.4700
 0.9790	43.5110
 0.9800	43.5340
 0.9810	43.5600
 0.9820	43.6070
 0.9830	43.6270
 0.9840	43.6280
 0.9850	43.6640
 0.9860	43.7640
 0.9870	43.7660
 0.9880	43.7910
 0.9890	43.8420
 0.9900	43.8730
 0.9910	43.9130
 0.9920	43.9470
 0.9930	43.9840
 0.9940	44.0360
 0.9950	44.0870
 0.9960	44.1130
 0.9970	44.1290
 0.9980	44.1640
 0.9990	44.2120
 1.0000	44.2430
 1.0010	44.2090
 1.0020	44.2400
 1.0030	44.2870
 1.0040	44.3330
 1.0050	44.3740
 1.0060	44.4110
 1.0070	44.4500
 1.0080	44.4920
 1.0090	44.5360
 1.0100	44.5810
 1.0110	44.6330
 1.0120	44.6770
 1.0130	44.7170
 1.0140	44.7610
 1.0150	44.8050
 1.0160	44.8450
 1.0170	44.8950
 1.0180	44.9330
 1.0190	44.9640
 1.0200	45.0010
 1.0210	45.0330
 1.0220	45.0720
 1.0230	45.1110
 1.0240	45.1530
 1.0250	45.1940
 1.0260	45.2350
 1.0270	45.2740
 1.0280	45.3120
 1.0290	45.3510
 1.0300	45.3840
 1.0310	45.4240
 1.0320	45.4690
 1.0330	45.5120
 1.0340	45.5540
 1.0350	45.5880
 1.0360	45.6210
 1.0370	45.6530
 1.0380	45.6870
 1.0390	45.7270
 1.0400	45.7590
 1.0410	45.7850
 1.0420	45.8180
 1.0430	45.8510
 1.0440	45.8840
 1.0450	45.9240
 1.0460	45.9580
 1.0470	45.9870
 1.0480	46.0190
 1.0490	46.0520
 1.0500	46.0840
 1.0510	46.1170
 1.0520	46.1500
 1.0530	46.1810
 1.0540	46.2080
 1.0550	46.2410
 1.0560	46.2750
 1.0570	46.3060
 1.0580	46.3390
 1.0590	46.3700
 1.0600	46.3980
 1.0610	46.4260
 1.0620	46.4560
 1.0630	46.4830
 1.0640	46.5080
 1.0650	46.5350
 1.0660	46.5670
 1.0670	46.5920
 1.0680	46.6130
 1.0690	46.6280
 1.0700	46.6520
 1.0710	46.6740
 1.0720	46.6980
 1.0730	46.7300
 1.0740	46.7580
 1.0750	46.7840
 1.0760	46.8070
 1.0770	46.8320
 1.0780	46.8530
 1.0790	46.8670
 1.0800	46.8870
 1.0810	46.9120
 1.0820	46.9360
 1.0830	46.9650
 1.0840	46.9880
 1.0850	47.0070
 1.0860	47.0230
 1.0870	47.0390
 1.0880	47.0500
 1.0890	47.0670
 1.0900	47.0880
 1.0910	47.1050
 1.0920	47.1230
 1.0930	47.1370
 1.0940	47.1480
 1.0950	47.1610
 1.0960	47.1750
 1.0970	47.1890
 1.0980	47.2010
 1.0990	47.2160
 1.1000	47.2360
 1.1010	47.2510
 1.1020	47.2650
 1.1030	47.2840
 1.1040	47.2980
 1.1050	47.3050
 1.1060	47.3160
 1.1070	47.3260
 1.1080	47.3370
 1.1090	47.3500
 1.1100	47.3590
 1.1110	47.3640
 1.1120	47.3730
 1.1130	47.3800
 1.1140	47.3890
 1.1150	47.4050
 1.1160	47.4140
 1.1170	47.4220
 1.1180	47.4240
 1.1190	47.4200
 1.1200	47.4180
 1.1210	47.4150
 1.1220	47.4090
 1.1230	47.4070
 1.1240	47.4010
 1.1250	47.3910
 1.1260	47.3790
 1.1270	47.3630
 1.1280	47.3430
 1.1290	47.3190
 1.1300	47.2940
 1.1310	47.2600
 1.1320	47.2220
 1.1330	47.1780
 1.1340	47.1230
 1.1350	47.0690
 1.1360	47.0120
 1.1370	46.9520
 1.1380	46.8930
 1.1390	46.8310
 1.1400	46.7650
 1.1410	46.6950
 1.1420	46.6230
 1.1430	46.5500
 1.1440	46.4770
 1.1450	46.4050
 1.1460	46.3320
 1.1470	46.2580
 1.1480	46.1860
 1.1490	46.1130
 1.1500	46.0470
 1.1510	45.9870
 1.1520	45.9260
 1.1530	45.8660
 1.1540	45.8100
 1.1550	45.7550
 1.1560	45.7020
 1.1570	45.6570
 1.1580	45.6140
 1.1590	45.5700
 1.1600	45.5330
 1.1610	45.4990
 1.1620	45.4640
 1.1630	45.4350
 1.1640	45.4070
 1.1650	45.3780
 1.1660	45.3510
 1.1670	45.3240
 1.1680	45.2960
 1.1690	45.2700
 1.1700	45.2480
 1.1710	45.2230
 1.1720	45.1990
 1.1730	45.1730
 1.1740	45.1460
 1.1750	45.1190
 1.1760	45.0890
 1.1770	45.0600
 1.1780	45.0280
 1.1790	44.9940
 1.1800	44.9630
 1.1810	44.9340
 1.1820	44.9050
 1.1830	44.8790
 1.1840	44.8550
 1.1850	44.8340
 1.1860	44.8180
 1.1870	44.8050
 1.1880	44.7960
 1.1890	44.7930
 1.1900	44.7930
 1.1910	44.7960
 1.1920	44.8030
 1.1930	44.8140
 1.1940	44.8270
 1.1950	44.8450
 1.1960	44.8640
 1.1970	44.8830
 1.1980	44.9020
 1.1990	44.9240
 1.2000	44.9460
 1.2010	44.9710
 1.2020	45.0000
 1.2030	45.0290
 1.2040	45.0620
 1.2050	45.0970
 1.2060	45.1340
 1.2070	45.1760
 1.2080	45.2180
 1.2090	45.2650
 1.2100	45.3160
 1.2110	45.3640
 1.2120	45.4120
 1.2130	45.4670
 1.2140	45.5190
 1.2150	45.5770
 1.2160	45.6430
 1.2170	45.7110
 1.2180	45.7750
 1.2190	45.8440
 1.2200	45.9130
 1.2210	45.9800
 1.2220	46.0460
 1.2230	46.1100
 1.2240	46.1750
 1.2250	46.2390
 1.2260	46.3010
 1.2270	46.3660
 1.2280	46.4260
 1.2290	46.4830
 1.2300	46.5410
 1.2310	46.5990
 1.2320	46.6580
 1.2330	46.7160
 1.2340	46.7680
 1.2350	46.8170
 1.2360	46.8620
 1.2370	46.9030
 1.2380	46.9440
 1.2390	46.9860
 1.2400	47.0310
 1.2410	47.0740
 1.2420	47.1140
 1.2430	47.1530
 1.2440	47.1900
 1.2450	47.2270
 1.2460	47.2650
 1.2470	47.2980
 1.2480	47.3300
 1.2490	47.3620
 1.2500	47.3940
 1.2510	47.4280
 1.2520	47.4620
 1.2530	47.4930
 1.2540	47.5230
 1.2550	47.5500
 1.2560	47.5760
 1.2570	47.6050
 1.2580	47.6310
 1.2590	47.6570
 1.2600	47.6840
 1.2610	47.7070
 1.2620	47.7260
 1.2630	47.7460
 1.2640	47.7660
 1.2650	47.7840
 1.2660	47.8000
 1.2670	47.8160
 1.2680	47.8330
 1.2690	47.8480
 1.2700	47.8690
 1.2710	47.8860
 1.2720	47.8990
 1.2730	47.9140
 1.2740	47.9260
 1.2750	47.9370
 1.2760	47.9480
 1.2770	47.9590
 1.2780	47.9670
 1.2790	47.9780
 1.2800	47.9910
 1.2810	48.0000
 1.2820	48.0110
 1.2830	48.0210
 1.2840	48.0270
 1.2850	48.0360
 1.2860	48.0420
 1.2870	48.0470
 1.2880	48.0490
 1.2890	48.0510
 1.2900	48.0490
 1.2910	48.0500
 1.2920	48.0480
 1.2930	48.0470
 1.2940	48.0440
 1.2950	48.0360
 1.2960	48.0300
 1.2970	48.0220
 1.2980	48.0110
 1.2990	47.9990
 1.3000	47.9830
 1.3010	47.9650
 1.3020	47.9470
 1.3030	47.9250
 1.3040	47.9020
 1.3050	47.8780
 1.3060	47.8520
 1.3070	47.8240
 1.3080	47.7930
 1.3090	47.7560
 1.3100	47.7180
 1.3110	47.6820
 1.3120	47.6460
 1.3130	47.6160
 1.3140	47.5790
 1.3150	47.5370
 1.3160	47.4940
 1.3170	47.4490
 1.3180	47.3970
 1.3190	47.3440
 1.3200	47.2910
 1.3210	47.2350
 1.3220	47.1750
 1.3230	47.1110
 1.3240	47.0440
 1.3250	46.9740
 1.3260	46.9040
 1.3270	46.8390
 1.3280	46.7710
 1.3290	46.7000
 1.3300	46.6300
 1.3310	46.5540
 1.3320	46.4770
 1.3330	46.4000
 1.3340	46.3200
 1.3350	46.2390
 1.3360	46.1560
 1.3370	46.0690
 1.3380	45.9830
 1.3390	45.8950
 1.3400	45.8060
 1.3410	45.7200
 1.3420	45.6320
 1.3430	45.5400
 1.3440	45.4500
 1.3450	45.3590
 1.3460	45.2640
 1.3470	45.1730
 1.3480	45.0830
 1.3490	44.9930
 1.3500	44.9040
 1.3510	44.8140
 1.3520	44.7210
 1.3530	44.6300
 1.3540	44.5350
 1.3550	44.4390
 1.3560	44.3450
 1.3570	44.2490
 1.3580	44.1550
 1.3590	44.0620
 1.3600	43.9670
 1.3610	43.8690
 1.3620	43.7720
 1.3630	43.6760
 1.3640	43.5760
 1.3650	43.4740
 1.3660	43.3710
 1.3670	43.2590
 1.3680	43.1400
 1.3690	43.0210
 1.3700	42.8930
 1.3710	42.7600
 1.3720	42.6220
 1.3730	42.4730
 1.3740	42.3170
 1.3750	42.1520
 1.3760	41.9780
 1.3770	41.7940
 1.3780	41.5980
 1.3790	41.3910
 1.3800	41.1710
 1.3810	40.9390
 1.3820	40.6980
 1.3830	40.4480
 1.3840	40.1850
 1.3850	39.9140
 1.3860	39.6320
 1.3870	39.3360
 1.3880	39.0390
 1.3890	38.7330
 1.3900	38.4210
 1.3910	38.1100
 1.3920	37.7970
 1.3930	37.4800
 1.3940	37.1630
 1.3950	36.8410
 1.3960	36.5210
 1.3970	36.2040
 1.3980	35.8880
 1.3990	35.5780
 1.4000	35.2710
 1.4010	34.9660
 1.4020	34.6710
 1.4030	34.3820
 1.4040	34.1020
 1.4050	33.8300
 1.4060	33.5630
 1.4070	33.3080
 1.4080	33.0640
 1.4090	32.8300
 1.4100	32.6110
 1.4110	32.4040
 1.4120	32.2090
 1.4130	32.0240
 1.4140	31.8500
 1.4150	31.6890
 1.4160	31.5400
 1.4170	31.4010
 1.4180	31.2720
 1.4190	31.1490
 1.4200	31.0360
 1.4210	30.9320
 1.4220	30.8360
 1.4230	30.7480
 1.4240	30.6670
 1.4250	30.5910
 1.4260	30.5220
 1.4270	30.4570
 1.4280	30.3980
 1.4290	30.3430
 1.4300	30.2930
 1.4310	30.2500
 1.4320	30.2110
 1.4330	30.1780
 1.4340	30.1500
 1.4350	30.1260
 1.4360	30.1070
 1.4370	30.0910
 1.4380	30.0760
 1.4390	30.0660
 1.4400	30.0600
 1.4410	30.0530
 1.4420	30.0500
 1.4430	30.0510
 1.4440	30.0500
 1.4450	30.0510
 1.4460	30.0540
 1.4470	30.0590
 1.4480	30.0680
 1.4490	30.0790
 1.4500	30.0930
 1.4510	30.1060
 1.4520	30.1180
 1.4530	30.1320
 1.4540	30.1480
 1.4550	30.1650
 1.4560	30.1830
 1.4570	30.2020
 1.4580	30.2200
 1.4590	30.2430
 1.4600	30.2670
 1.4610	30.2940
 1.4620	30.3250
 1.4630	30.3570
 1.4640	30.3890
 1.4650	30.4240
 1.4660	30.4630
 1.4670	30.5030
 1.4680	30.5480
 1.4690	30.5970
 1.4700	30.6470
 1.4710	30.6990
 1.4720	30.7560
 1.4730	30.8140
 1.4740	30.8740
 1.4750	30.9380
 1.4760	31.0010
 1.4770	31.0650
 1.4780	31.1310
 1.4790	31.1990
 1.4800	31.2670
 1.4810	31.3390
 1.4820	31.4120
 1.4830	31.4830
 1.4840	31.5550
 1.4850	31.6290
 1.4860	31.7030
 1.4870	31.7780
 1.4880	31.8550
 1.4890	31.9300
 1.4900	32.0050
 1.4910	32.0800
 1.4920	32.1560
 1.4930	32.2340
 1.4940	32.3110
 1.4950	32.3890
 1.4960	32.4660
 1.4970	32.5410
 1.4980	32.6160
 1.4990	32.6900
 1.5000	32.7650
 1.5010	32.8390
 1.5020	32.9140
 1.5030	32.9910
 1.5040	33.0670
 1.5050	33.1430
 1.5060	33.2200
 1.5070	33.2970
 1.5080	33.3750
 1.5090	33.4550
 1.5100	33.5330
 1.5110	33.6090
 1.5120	33.6850
 1.5130	33.7580
 1.5140	33.8310
 1.5150	33.9010
 1.5160	33.9720
 1.5170	34.0420
 1.5180	34.1100
 1.5190	34.1780
 1.5200	34.2450
 1.5210	34.3090
 1.5220	34.3740
 1.5230	34.4380
 1.5240	34.5000
 1.5250	34.5630
 1.5260	34.6240
 1.5270	34.6850
 1.5280	34.7460
 1.5290	34.8060
 1.5300	34.8640
 1.5310	34.9220
 1.5320	34.9800
 1.5330	35.0390
 1.5340	35.0980
 1.5350	35.1560
 1.5360	35.2140
 1.5370	35.2690
 1.5380	35.3230
 1.5390	35.3770
 1.5400	35.4280
 1.5410	35.4790
 1.5420	35.5300
 1.5430	35.5820
 1.5440	35.6350
 1.5450	35.6880
 1.5460	35.7410
 1.5470	35.7910
 1.5480	35.8420
 1.5490	35.8920
 1.5500	35.9390
 1.5510	35.9870
 1.5520	36.0340
 1.5530	36.0820
 1.5540	36.1340
 1.5550	36.1830
 1.5560	36.2260
 1.5570	36.2690
 1.5580	36.3090
 1.5590	36.3510
 1.5600	36.3950
 1.5610	36.4380
 1.5620	36.4820
 1.5630	36.5270
 1.5640	36.5690
 1.5650	36.6120
 1.5660	36.6540
 1.5670	36.6940
 1.5680	36.7390
 1.5690	36.7820
 1.5700	36.8220
 1.5710	36.8640
 1.5720	36.9020
 1.5730	36.9420
 1.5740	36.9860
 1.5750	37.0270
 1.5760	37.0690
 1.5770	37.1120
 1.5780	37.1510
 1.5790	37.1920
 1.5800	37.2310
 1.5810	37.2680
 1.5820	37.3060
 1.5830	37.3440
 1.5840	37.3860
 1.5850	37.4300
 1.5860	37.4730
 1.5870	37.5150
 1.5880	37.5550
 1.5890	37.5940
 1.5900	37.6330
 1.5910	37.6730
 1.5920	37.7120
 1.5930	37.7520
 1.5940	37.7930
 1.5950	37.8340
 1.5960	37.8780
 1.5970	37.9230
 1.5980	37.9650
 1.5990	38.0090
 1.6000	38.0490
 1.6010	38.0860
 1.6020	38.1260
 1.6030	38.1660
 1.6040	38.2050
 1.6050	38.2460
 1.6060	38.2860
 1.6070	38.3230
 1.6080	38.3600
 1.6090	38.3940
 1.6100	38.4290
 1.6110	38.4650
 1.6120	38.4970
 1.6130	38.5290
 1.6140	38.5590
 1.6150	38.5850
 1.6160	38.6130
 1.6170	38.6410
 1.6180	38.6670
 1.6190	38.6940
 1.6200	38.7220
 1.6210	38.7470
 1.6220	38.7690
 1.6230	38.7860
 1.6240	38.8010
 1.6250	38.8170
 1.6260	38.8360
 1.6270	38.8550
 1.6280	38.8740
 1.6290	38.8910
 1.6300	38.9050
 1.6310	38.9230
 1.6320	38.9430
 1.6330	38.9630
 1.6340	38.9860
 1.6350	39.0060
 1.6360	39.0220
 1.6370	39.0410
 1.6380	39.0580
 1.6390	39.0760
 1.6400	39.0980
 1.6410	39.1150
 1.6420	39.1290
 1.6430	39.1410
 1.6440	39.1500
 1.6450	39.1580
 1.6460	39.1670
 1.6470	39.1760
 1.6480	39.1820
 1.6490	39.1850
 1.6500	39.1850
 1.6510	39.1790
 1.6520	39.1690
 1.6530	39.1570
 1.6540	39.1420
 1.6550	39.1260
 1.6560	39.1070
 1.6570	39.0840
 1.6580	39.0570
 1.6590	39.0250
 1.6600	38.9910
 1.6610	38.9560
 1.6620	38.9200
 1.6630	38.8820
 1.6640	38.8440
 1.6650	38.8080
 1.6660	38.7690
 1.6670	38.7260
 1.6680	38.6770
 1.6690	38.6190
 1.6700	38.5560
 1.6710	38.4870
 1.6720	38.4140
 1.6730	38.3370
 1.6740	38.2520
 1.6750	38.1620
 1.6760	38.0680
 1.6770	37.9670
 1.6780	37.8620
 1.6790	37.7550
 1.6800	37.6450
 1.6810	37.5320
 1.6820	37.4190
 1.6830	37.3040
 1.6840	37.1880
 1.6850	37.0740
 1.6860	36.9590
 1.6870	36.8430
 1.6880	36.7280
 1.6890	36.6110
 1.6900	36.4980
 1.6910	36.3890
 1.6920	36.2810
 1.6930	36.1740
 1.6940	36.0710
 1.6950	35.9710
 1.6960	35.8740
 1.6970	35.7830
 1.6980	35.6940
 1.6990	35.6060
 1.7000	35.5220
 1.7010	35.4420
 1.7020	35.3660
 1.7030	35.2930
 1.7040	35.2250
 1.7050	35.1620
 1.7060	35.1000
 1.7070	35.0430
 1.7080	34.9840
 1.7090	34.9240
 1.7100	34.8680
 1.7110	34.8140
 1.7120	34.7650
 1.7130	34.7190
 1.7140	34.6730
 1.7150	34.6270
 1.7160	34.5840
 1.7170	34.5410
 1.7180	34.5030
 1.7190	34.4730
 1.7200	34.4400
 1.7210	34.4120
 1.7220	34.3940
 1.7230	34.3740
 1.7240	34.3610
 1.7250	34.3530
 1.7260	34.3460
 1.7270	34.3430
 1.7280	34.3490
 1.7290	34.3600
 1.7300	34.3760
 1.7310	34.3970
 1.7320	34.4260
 1.7330	34.4550
 1.7340	34.4890
 1.7350	34.5210
 1.7360	34.5540
 1.7370	34.5810
 1.7380	34.6090
 1.7390	34.6280
 1.7400	34.6410
 1.7410	34.6500
 1.7420	34.6520
 1.7430	34.6520
 1.7440	34.6500
 1.7450	34.6400
 1.7460	34.6210
 1.7470	34.6060
 1.7480	34.5830
 1.7490	34.5680
 1.7500	34.5560
 1.7510	34.5450
 1.7520	34.5370
 1.7530	34.5300
 1.7540	34.5270
 1.7550	34.5260
 1.7560	34.5230
 1.7570	34.5300
 1.7580	34.5400
 1.7590	34.5510
 1.7600	34.5670
 1.7610	34.5820
 1.7620	34.6020
 1.7630	34.6290
 1.7640	34.6590
 1.7650	34.6930
 1.7660	34.7270
 1.7670	34.7650
 1.7680	34.8020
 1.7690	34.8420
 1.7700	34.8790
 1.7710	34.9190
 1.7720	34.9540
 1.7730	34.9860
 1.7740	35.0170
 1.7750	35.0430
 1.7760	35.0730
 1.7770	35.1040
 1.7780	35.1320
 1.7790	35.1610
 1.7800	35.1850
 1.7810	35.2040
 1.7820	35.2270
 1.7830	35.2500
 1.7840	35.2710
 1.7850	35.2940
 1.7860	35.3110
 1.7870	35.3210
 1.7880	35.3310
 1.7890	35.3430
 1.7900	35.3570
 1.7910	35.3720
 1.7920	35.3890
 1.7930	35.4040
 1.7940	35.4190
 1.7950	35.4340
 1.7960	35.4460
 1.7970	35.4590
 1.7980	35.4710
 1.7990	35.4840
 1.8000	35.4990
 1.8010	35.5140
 1.8020	35.5320
 1.8030	35.5500
 1.8040	35.5690
 1.8050	35.5850
 1.8060	35.6000
 1.8070	35.6160
 1.8080	35.6320
 1.8090	35.6500
 1.8100	35.6700
 1.8110	35.6890
 1.8120	35.7050
 1.8130	35.7230
 1.8140	35.7420
 1.8150	35.7580
 1.8160	35.7760
 1.8170	35.7940
 1.8180	35.8060
 1.8190	35.8240
 1.8200	35.8380
 1.8210	35.8490
 1.8220	35.8640
 1.8230	35.8800
 1.8240	35.8940
 1.8250	35.9100
 1.8260	35.9240
 1.8270	35.9340
 1.8280	35.9420
 1.8290	35.9470
 1.8300	36.1980
 1.8310	36.6920
 1.8320	36.9410
 1.8330	36.9360
 1.8340	36.9280
 1.8350	36.9190
 1.8360	36.9120
 1.8370	36.9120
 1.8380	36.9040
 1.8390	36.8900
 1.8400	36.8720
 1.8410	36.8520
 1.8420	36.8240
 1.8430	36.7990
 1.8440	36.7800
 1.8450	36.7570
 1.8460	36.7300
 1.8470	36.6970
 1.8480	36.6570
 1.8490	36.6120
 1.8500	36.5640
 1.8510	36.5110
 1.8520	36.4520
 1.8530	36.3890
 1.8540	36.3180
 1.8550	36.2370
 1.8560	36.1440
 1.8570	36.0410
 1.8580	35.9310
 1.8590	35.8140
 1.8600	35.6900
 1.8610	35.5560
 1.8620	35.4100
 1.8630	35.2550
 1.8640	35.0860
 1.8650	34.9100
 1.8660	34.7290
 1.8670	34.5300
 1.8680	34.3190
 1.8690	34.0950
 1.8700	33.8560
 1.8710	33.6020
 1.8720	33.3410
 1.8730	33.0720
 1.8740	32.7930
 1.8750	32.5040
 1.8760	32.2070
 1.8770	31.9030
 1.8780	31.5920
 1.8790	31.2740
 1.8800	30.9510
 1.8810	30.6250
 1.8820	30.2890
 1.8830	29.9440
 1.8840	29.5970
 1.8850	29.2440
 1.8860	28.8890
 1.8870	28.5350
 1.8880	28.1810
 1.8890	27.8330
 1.8900	27.4930
 1.8910	27.1620
 1.8920	26.8350
 1.8930	26.5200
 1.8940	26.2110
 1.8950	25.9130
 1.8960	25.6290
 1.8970	25.3550
 1.8980	25.0970
 1.8990	24.8510
 1.9000	24.6160
 1.9010	24.3900
 1.9020	24.1780
 1.9030	23.9790
 1.9040	23.7950
 1.9050	23.6230
 1.9060	23.4670
 1.9070	23.3250
 1.9080	23.1910
 1.9090	23.0680
 1.9100	22.9540
 1.9110	22.8490
 1.9120	22.7540
 1.9130	22.6680
 1.9140	22.5910
 1.9150	22.5220
 1.9160	22.4600
 1.9170	22.4070
 1.9180	22.3590
 1.9190	22.3150
 1.9200	22.2790
 1.9210	22.2520
 1.9220	22.2280
 1.9230	22.2110
 1.9240	22.2000
 1.9250	22.1960
 1.9260	22.1930
 1.9270	22.1920
 1.9280	22.1980
 1.9290	22.2030
 1.9300	22.2130
 1.9310	22.2280
 1.9320	22.2450
 1.9330	22.2640
 1.9340	22.2850
 1.9350	22.3080
 1.9360	22.3330
 1.9370	22.3610
 1.9380	22.3940
 1.9390	22.4290
 1.9400	22.4660
 1.9410	22.5040
 1.9420	22.5430
 1.9430	22.5870
 1.9440	22.6300
 1.9450	22.6730
 1.9460	22.7180
 1.9470	22.7630
 1.9480	22.8090
 1.9490	22.8550
 1.9500	22.9070
 1.9510	22.9630
 1.9520	23.0180
 1.9530	23.0730
 1.9540	23.1290
 1.9550	23.1870
 1.9560	23.2450
 1.9570	23.3040
 1.9580	23.3690
 1.9590	23.4300
 1.9600	23.4900
 1.9610	23.5490
 1.9620	23.6060
 1.9630	23.6640
 1.9640	23.7240
 1.9650	23.7800
 1.9660	23.8390
 1.9670	23.9010
 1.9680	23.9620
 1.9690	24.0230
 1.9700	24.0860
 1.9710	24.1480
 1.9720	24.2150
 1.9730	24.2880
 1.9740	24.3570
 1.9750	24.4300
 1.9760	24.5050
 1.9770	24.5710
 1.9780	24.6380
 1.9790	24.7050
 1.9800	24.7710
 1.9810	24.8340
 1.9820	24.8930
 1.9830	24.9550
 1.9840	25.0140
 1.9850	25.0770
 1.9860	25.1420
 1.9870	25.2140
 1.9880	25.2820
 1.9890	25.3490
 1.9900	25.4180
 1.9910	25.4870
 1.9920	25.5530
 1.9930	25.6210
 1.9940	25.6840
 1.9950	25.7420
 1.9960	25.8010
 1.9970	25.8570
 1.9980	25.9150
 1.9990	25.9760
 2.0000	26.0330
 2.0010	26.0880
 2.0020	26.1430
 2.0030	26.1930
 2.0040	26.2490
 2.0050	26.3070
 2.0060	26.3680
 2.0070	26.4260
 2.0080	26.4880
 2.0090	26.5410
 2.0100	26.5900
 2.0110	26.6380
 2.0120	26.6810
 2.0130	26.7230
 2.0140	26.7690
 2.0150	26.8110
 2.0160	26.8530
 2.0170	26.8970
 2.0180	26.9370
 2.0190	26.9760
 2.0200	27.0120
 2.0210	27.0460
 2.0220	27.0790
 2.0230	27.1120
 2.0240	27.1420
 2.0250	27.1690
 2.0260	27.1930
 2.0270	27.2120
 2.0280	27.2300
 2.0290	27.2460
 2.0300	27.2630
 2.0310	27.2800
 2.0320	27.2980
 2.0330	27.3110
 2.0340	27.3240
 2.0350	27.3350
 2.0360	27.3450
 2.0370	27.3530
 2.0380	27.3610
 2.0390	27.3660
 2.0400	27.3690
 2.0410	27.3710
 2.0420	27.3710
 2.0430	27.3710
 2.0440	27.3720
 2.0450	27.3730
 2.0460	27.3740
 2.0470	27.3770
 2.0480	27.3780
 2.0490	27.3750
 2.0500	27.3750
 2.0510	27.3780
 2.0520	27.3800
 2.0530	27.3820
 2.0540	27.3860
 2.0550	27.3900
 2.0560	27.3950
 2.0570	27.4030
 2.0580	27.4090
 2.0590	27.4190
 2.0600	27.4310
 2.0610	27.4390
 2.0620	27.4480
 2.0630	27.4550
 2.0640	27.4580
 2.0650	27.4620
 2.0660	27.4640
 2.0670	27.4690
 2.0680	27.4700
 2.0690	27.4760
 2.0700	27.4880
 2.0710	27.5000
 2.0720	27.5150
 2.0730	27.5330
 2.0740	27.5450
 2.0750	27.5560
 2.0760	27.5700
 2.0770	27.5820
 2.0780	27.5960
 2.0790	27.6130
 2.0800	27.6300
 2.0810	27.6460
 2.0820	27.6640
 2.0830	27.6860
 2.0840	27.7070
 2.0850	27.7310
 2.0860	27.7490
 2.0870	27.7630
 2.0880	27.7740
 2.0890	27.7890
 2.0900	27.8000
 2.0910	27.8160
 2.0920	27.8370
 2.0930	27.8560
 2.0940	27.8730
 2.0950	27.8940
 2.0960	27.9170
 2.0970	27.9380
 2.0980	27.9590
 2.0990	27.9800
 2.1000	28.0000
 2.1010	28.0190
 2.1020	28.0380
 2.1030	28.0560
 2.1040	28.0730
 2.1050	28.0870
 2.1060	28.1040
 2.1070	28.1220
 2.1080	28.1380
 2.1090	28.1530
 2.1100	28.1700
 2.1110	28.1840
 2.1120	28.2020
 2.1130	28.2260
 2.1140	28.2450
 2.1150	28.2630
 2.1160	28.2830
 2.1170	28.3010
 2.1180	28.3220
 2.1190	28.3480
 2.1200	28.3710
 2.1210	28.3960
 2.1220	28.4160
 2.1230	28.4370
 2.1240	28.4570
 2.1250	28.4770
 2.1260	28.4970
 2.1270	28.5180
 2.1280	28.5410
 2.1290	28.5620
 2.1300	28.5890
 2.1310	28.6050
 2.1320	28.6130
 2.1330	28.6240
 2.1340	28.6280
 2.1350	28.6370
 2.1360	28.6510
 2.1370	28.6650
 2.1380	28.6840
 2.1390	28.6980
 2.1400	28.7090
 2.1410	28.7220
 2.1420	28.7330
 2.1430	28.7400
 2.1440	28.7500
 2.1450	28.7620
 2.1460	28.7750
 2.1470	28.7900
 2.1480	28.8030
 2.1490	28.8180
 2.1500	28.8320
 2.1510	28.8430
 2.1520	28.8550
 2.1530	28.8680
 2.1540	28.8820
 2.1550	28.8970
 2.1560	28.9110
 2.1570	28.9270
 2.1580	28.9400
 2.1590	28.9480
 2.1600	28.9600
 2.1610	28.9690
 2.1620	28.9840
 2.1630	28.9980
 2.1640	29.0150
 2.1650	29.0280
 2.1660	29.0410
 2.1670	29.0530
 2.1680	29.0620
 2.1690	29.0740
 2.1700	29.0860
 2.1710	29.0990
 2.1720	29.1120
 2.1730	29.1250
 2.1740	29.1350
 2.1750	29.1510
 2.1760	29.1750
 2.1770	29.1910
 2.1780	29.2090
 2.1790	29.2220
 2.1800	29.2180
 2.1810	29.2260
 2.1820	29.2420
 2.1830	29.2560
 2.1840	29.2710
 2.1850	29.2960
 2.1860	29.3100
 2.1870	29.3170
 2.1880	29.3260
 2.1890	29.3310
 2.1900	29.3410
 2.1910	29.3510
 2.1920	29.3620
 2.1930	29.3750
 2.1940	29.3870
 2.1950	29.3960
 2.1960	29.4110
 2.1970	29.4340
 2.1980	29.4480
 2.1990	29.4610
 2.2000	29.4720
 2.2010	29.4760
 2.2020	29.4830
 2.2030	29.4920
 2.2040	29.5000
 2.2050	29.5070
 2.2060	29.5120
 2.2070	29.5150
 2.2080	29.5180
 2.2090	29.5180
 2.2100	29.5160
 2.2110	29.5120
 2.2120	29.5050
 2.2130	29.4990
 2.2140	29.4890
 2.2150	29.4830
 2.2160	29.4840
 2.2170	29.4750
 2.2180	29.4620
 2.2190	29.4470
 2.2200	29.4270
 2.2210	29.4030
 2.2220	29.3790
 2.2230	29.3500
 2.2240	29.3120
 2.2250	29.2770
 2.2260	29.2430
 2.2270	29.2010
 2.2280	29.1580
 2.2290	29.1080
 2.2300	29.0450
 2.2310	28.9860
 2.2320	28.9330
 2.2330	28.8740
 2.2340	28.8140
 2.2350	28.7590
 2.2360	28.6920
 2.2370	28.6140
 2.2380	28.5370
 2.2390	28.4560
 2.2400	28.3690
 2.2410	28.2760
 2.2420	28.1820
 2.2430	28.0850
 2.2440	27.9810
 2.2450	27.8710
 2.2460	27.7620
 2.2470	27.6480
 2.2480	27.5300
 2.2490	27.4100
 2.2500	27.2880
 2.2510	27.1580
 2.2520	27.0280
 2.2530	26.8910
 2.2540	26.7630
 2.2550	26.6360
 2.2560	26.5100
 2.2570	26.3930
 2.2580	26.2750
 2.2590	26.1550
 2.2600	26.0360
 2.2610	25.9150
 2.2620	25.8030
 2.2630	25.6900
 2.2640	25.5820
 2.2650	25.4760
 2.2660	25.3800
 2.2670	25.2860
 2.2680	25.1950
 2.2690	25.1070
 2.2700	25.0290
 2.2710	24.9440
 2.2720	24.8610
 2.2730	24.7710
 2.2740	24.6750
 2.2750	24.5870
 2.2760	24.4980
 2.2770	24.4130
 2.2780	24.3330
 2.2790	24.2570
 2.2800	24.1820
 2.2810	24.1120
 2.2820	24.0570
 2.2830	23.9880
 2.2840	23.9130
 2.2850	23.8390
 2.2860	23.7640
 2.2870	23.6810
 2.2880	23.5960
 2.2890	23.5070
 2.2900	23.4080
 2.2910	23.3110
 2.2920	23.2160
 2.2930	23.1180
 2.2940	23.0130
 2.2950	22.9160
 2.2960	22.8100
 2.2970	22.7220
 2.2980	22.6460
 2.2990	22.5780
 2.3000	22.5210
 2.3010	22.4700
 2.3020	22.4240
 2.3030	22.3960
 2.3040	22.3760
 2.3050	22.3640
 2.3060	22.3680
 2.3070	22.3810
 2.3080	22.4030
 2.3090	22.4450
 2.3100	22.4940
 2.3110	22.5380
 2.3120	22.5930
 2.3130	22.6590
 2.3140	22.7240
 2.3150	22.7950
 2.3160	22.8640
 2.3170	22.9370
 2.3180	23.0000
 2.3190	23.0660
 2.3200	23.1180
 2.3210	23.1580
 2.3220	23.1980
 2.3230	23.2330
 2.3240	23.2590
 2.3250	23.2820
 2.3260	23.2940
 2.3270	23.2920
 2.3280	23.2890
 2.3290	23.2850
 2.3300	23.2670
 2.3310	23.2360
 2.3320	23.2010
 2.3330	23.1460
 2.3340	23.1070
 2.3350	23.0690
 2.3360	23.0360
 2.3370	23.0140
 2.3380	22.9870
 2.3390	22.9600
 2.3400	22.9290
 2.3410	22.8970
 2.3420	22.8610
 2.3430	22.8110
 2.3440	22.7750
 2.3450	22.7400
 2.3460	22.7190
 2.3470	22.7140
 2.3480	22.7090
 2.3490	22.7160
 2.3500	22.7210
 2.3510	22.7260
 2.3520	22.7360
 2.3530	22.7540
 2.3540	22.7640
 2.3550	22.7730
 2.3560	22.7910
 2.3570	22.8110
 2.3580	22.8320
 2.3590	22.8560
 2.3600	22.8880
 2.3610	22.9200
 2.3620	22.9340
 2.3630	22.9400
 2.3640	22.9510
 2.3650	22.9570
 2.3660	22.9620
 2.3670	22.9770
 2.3680	22.9750
 2.3690	22.9700
 2.3700	22.9650
 2.3710	22.9490
 2.3720	22.9470
 2.3730	22.9340
 2.3740	22.9220
 2.3750	22.9280
 2.3760	22.9220
 2.3770	22.9260
 2.3780	22.9340
 2.3790	22.9350
 2.3800	22.9380
 2.3810	22.9330
 2.3820	22.9160
 2.3830	22.8960
 2.3840	22.8840
 2.3850	22.8780
 2.3860	22.8730
 2.3870	22.8690
 2.3880	22.8520
 2.3890	22.8350
 2.3900	22.8300
 2.3910	22.8130
 2.3920	22.8110
 2.3930	22.8050
 2.3940	22.7800
 2.3950	22.7560
 2.3960	22.7250
 2.3970	22.6980
 2.3980	22.6800
 2.3990	22.6770
 2.4000	22.6770
 2.4010	22.6470
 2.4020	22.6170
 2.4030	22.5920
 2.4040	22.5630
 2.4050	22.5600
 2.4060	22.5460
 2.4070	22.5120
 2.4080	22.4890
 2.4090	22.4580
 2.4100	22.4200
 2.4110	22.4120
 2.4120	22.4160
 2.4130	22.4230
 2.4140	22.4320
 2.4150	22.4100
 2.4160	22.3690
 2.4170	22.3310
 2.4180	22.2840
 2.4190	22.2450
 2.4200	22.2190
 2.4210	22.1830
 2.4220	22.1660
 2.4230	22.1600
 2.4240	22.1390
 2.4250	22.1310
 2.4260	22.1140
 2.4270	22.0820
 2.4280	22.0580
 2.4290	22.0190
 2.4300	21.9770
 2.4310	21.9470
 2.4320	21.9130
 2.4330	21.8800
 2.4340	21.8380
 2.4350	21.7910
 2.4360	21.7580
 2.4370	21.7210
 2.4380	21.6980
 2.4390	21.6750
 2.4400	21.6340
 2.4410	21.6060
 2.4420	21.5590
 2.4430	21.5020
 2.4440	21.4570
 2.4450	21.4050
 2.4460	21.3430
 2.4470	21.2880
 2.4480	21.2530
 2.4490	21.1960
 2.4500	21.1370
 2.4510	21.1240
 2.4520	21.1060
 2.4530	21.0860
 2.4540	21.1110
 2.4550	21.1040
 2.4560	21.0500
 2.4570	21.0000
 2.4580	20.9390
 2.4590	20.8830
 2.4600	20.8420
 2.4610	20.8000
 2.4620	20.7220
 2.4630	20.6330
 2.4640	20.5810
 2.4650	20.5260
 2.4660	20.5010
 2.4670	20.5100
 2.4680	20.4690
 2.4690	20.4670
 2.4700	20.4610
 2.4710	20.4580
 2.4720	20.4360
 2.4730	20.3960
 2.4740	20.3730
 2.4750	20.3350
 2.4760	20.3120
 2.4770	20.3210
 2.4780	20.2890
 2.4790	20.2330
 2.4800	20.1990
 2.4810	20.1520
 2.4820	20.1340
 2.4830	20.1190
 2.4840	20.1120
 2.4850	20.1160
 2.4860	20.1500
 2.4870	20.1910
 2.4880	20.1810
 2.4890	20.1340
 2.4900	20.0730
 2.4910	20.0400
 2.4920	20.0640
 2.4930	20.1140
 2.4940	20.2230
 2.4950	20.2840
 2.4960	20.2120
 2.4970	20.1630
 2.4980	20.0740
 2.4990	19.9610
 2.5000	19.9780
