Name: Ficus macrophylla f. columnaris
Type: vegetation
Class: Tree
Genus: Ficus
Species: macrophylla_columnaris
Sample No.: JPL096
Owner: JPL
Wavelength Range: VSWIR
Origin: 34.12573; - 118.11237; WGS84
Collection Date: 2/2/2016
Description: Samples were collected at the Huntington Garden in San Marino California as part of a JPL Subcontract studying HyTES imagery. Samples were taken to JPL and processed within 48 hours of collection. The same leaves were processed in the Nicolet and then measured using the ASD.
Measurement: Bidirectional reflectance
First Column: X
Second Column: Y
X Units: Wavelength (micrometer)
Y Units: Reflectance (percentage)
First X Value: 0.35
Last X Value: 2.5
Number of X Values: 2151
Additional Information: 

 0.3500	16.9400
 0.3510	17.0910
 0.3520	16.3370
 0.3530	16.3810
 0.3540	17.9420
 0.3550	17.5500
 0.3560	17.1860
 0.3570	17.1480
 0.3580	16.8350
 0.3590	16.3130
 0.3600	16.1950
 0.3610	16.5820
 0.3620	16.9020
 0.3630	16.9560
 0.3640	16.8670
 0.3650	16.8030
 0.3660	16.7280
 0.3670	16.4180
 0.3680	16.0970
 0.3690	16.2710
 0.3700	16.6000
 0.3710	16.8500
 0.3720	16.8660
 0.3730	16.5150
 0.3740	16.4320
 0.3750	16.6300
 0.3760	16.8480
 0.3770	16.6350
 0.3780	16.6230
 0.3790	16.8670
 0.3800	16.9060
 0.3810	16.6620
 0.3820	16.2630
 0.3830	15.9210
 0.3840	15.9250
 0.3850	15.9930
 0.3860	16.2200
 0.3870	16.6510
 0.3880	16.2220
 0.3890	16.1240
 0.3900	16.5090
 0.3910	16.3650
 0.3920	16.0000
 0.3930	15.9390
 0.3940	16.3770
 0.3950	16.6140
 0.3960	16.6680
 0.3970	16.5070
 0.3980	16.1690
 0.3990	16.1680
 0.4000	16.2910
 0.4010	16.3260
 0.4020	16.1600
 0.4030	16.3370
 0.4040	16.5080
 0.4050	16.3050
 0.4060	16.0210
 0.4070	15.9330
 0.4080	16.0110
 0.4090	16.0410
 0.4100	16.2070
 0.4110	16.3060
 0.4120	16.2500
 0.4130	16.2060
 0.4140	16.2960
 0.4150	16.3170
 0.4160	16.0970
 0.4170	16.1240
 0.4180	16.2580
 0.4190	16.2950
 0.4200	16.0300
 0.4210	15.9690
 0.4220	16.1060
 0.4230	16.2960
 0.4240	16.3640
 0.4250	16.2660
 0.4260	16.1370
 0.4270	16.1630
 0.4280	16.1700
 0.4290	16.1540
 0.4300	16.1100
 0.4310	16.0050
 0.4320	15.9080
 0.4330	15.8780
 0.4340	15.9080
 0.4350	15.7550
 0.4360	15.6330
 0.4370	15.6510
 0.4380	15.8160
 0.4390	15.9320
 0.4400	15.9940
 0.4410	16.0240
 0.4420	16.0100
 0.4430	16.0420
 0.4440	16.0970
 0.4450	16.1150
 0.4460	16.1490
 0.4470	16.1350
 0.4480	16.0850
 0.4490	16.1030
 0.4500	16.1150
 0.4510	16.1060
 0.4520	16.0960
 0.4530	16.1840
 0.4540	16.2140
 0.4550	16.1830
 0.4560	16.1820
 0.4570	16.1280
 0.4580	16.1220
 0.4590	16.1900
 0.4600	16.1930
 0.4610	16.1860
 0.4620	16.1900
 0.4630	16.2020
 0.4640	16.1630
 0.4650	16.1520
 0.4660	16.1810
 0.4670	16.1910
 0.4680	16.1560
 0.4690	16.1440
 0.4700	16.1800
 0.4710	16.0880
 0.4720	16.1600
 0.4730	16.2880
 0.4740	16.1990
 0.4750	16.1810
 0.4760	16.2150
 0.4770	16.2460
 0.4780	16.2090
 0.4790	16.2070
 0.4800	16.2130
 0.4810	16.1840
 0.4820	16.1820
 0.4830	16.1370
 0.4840	16.0570
 0.4850	16.0210
 0.4860	15.9940
 0.4870	15.9630
 0.4880	15.9300
 0.4890	15.9090
 0.4900	15.9440
 0.4910	15.9960
 0.4920	15.9980
 0.4930	15.9960
 0.4940	16.0560
 0.4950	16.1450
 0.4960	16.0990
 0.4970	16.1080
 0.4980	16.1680
 0.4990	16.2200
 0.5000	16.2290
 0.5010	16.2500
 0.5020	16.2810
 0.5030	16.2790
 0.5040	16.2660
 0.5050	16.2860
 0.5060	16.3470
 0.5070	16.3670
 0.5080	16.4050
 0.5090	16.4410
 0.5100	16.4360
 0.5110	16.4750
 0.5120	16.5170
 0.5130	16.5490
 0.5140	16.6130
 0.5150	16.6720
 0.5160	16.7690
 0.5170	16.9220
 0.5180	16.9760
 0.5190	17.0290
 0.5200	17.1240
 0.5210	17.2540
 0.5220	17.3930
 0.5230	17.5250
 0.5240	17.6470
 0.5250	17.7800
 0.5260	17.9090
 0.5270	18.0210
 0.5280	18.1190
 0.5290	18.2590
 0.5300	18.4060
 0.5310	18.5260
 0.5320	18.5940
 0.5330	18.6860
 0.5340	18.7890
 0.5350	18.8660
 0.5360	18.8800
 0.5370	18.8970
 0.5380	18.9280
 0.5390	18.9350
 0.5400	18.8510
 0.5410	18.6960
 0.5420	18.5190
 0.5430	18.3870
 0.5440	18.3470
 0.5450	18.4130
 0.5460	18.5690
 0.5470	18.7700
 0.5480	18.9540
 0.5490	19.0720
 0.5500	19.0930
 0.5510	19.1210
 0.5520	19.1570
 0.5530	19.1830
 0.5540	19.2340
 0.5550	19.2460
 0.5560	19.2220
 0.5570	19.2090
 0.5580	19.1550
 0.5590	19.0890
 0.5600	19.0310
 0.5610	18.9500
 0.5620	18.8660
 0.5630	18.7650
 0.5640	18.6350
 0.5650	18.5330
 0.5660	18.4570
 0.5670	18.3840
 0.5680	18.2720
 0.5690	18.1590
 0.5700	18.0620
 0.5710	17.9800
 0.5720	17.8800
 0.5730	17.7820
 0.5740	17.6910
 0.5750	17.6020
 0.5760	17.5320
 0.5770	17.4670
 0.5780	17.3940
 0.5790	17.3180
 0.5800	17.2340
 0.5810	17.1630
 0.5820	17.1230
 0.5830	17.0990
 0.5840	17.0860
 0.5850	17.0760
 0.5860	17.0610
 0.5870	17.0070
 0.5880	16.9700
 0.5890	16.9890
 0.5900	16.9800
 0.5910	16.9860
 0.5920	16.9970
 0.5930	16.9810
 0.5940	16.9840
 0.5950	16.9740
 0.5960	16.9510
 0.5970	16.9810
 0.5980	16.9910
 0.5990	16.9840
 0.6000	16.9760
 0.6010	16.9490
 0.6020	16.9270
 0.6030	16.9120
 0.6040	16.8830
 0.6050	16.8760
 0.6060	16.8660
 0.6070	16.8290
 0.6080	16.7960
 0.6090	16.6660
 0.6100	16.4320
 0.6110	16.1700
 0.6120	16.1330
 0.6130	16.2580
 0.6140	16.4260
 0.6150	16.4550
 0.6160	16.4900
 0.6170	16.5210
 0.6180	16.5090
 0.6190	16.4800
 0.6200	16.4580
 0.6210	16.4380
 0.6220	16.3970
 0.6230	16.4070
 0.6240	16.4300
 0.6250	16.4380
 0.6260	16.4580
 0.6270	16.4610
 0.6280	16.4490
 0.6290	16.4380
 0.6300	16.4310
 0.6310	16.4210
 0.6320	16.4230
 0.6330	16.4670
 0.6340	16.4740
 0.6350	16.4530
 0.6360	16.4350
 0.6370	16.4490
 0.6380	16.4510
 0.6390	16.4350
 0.6400	16.4130
 0.6410	16.4240
 0.6420	16.4210
 0.6430	16.3940
 0.6440	16.3960
 0.6450	16.3920
 0.6460	16.3890
 0.6470	16.3990
 0.6480	16.4020
 0.6490	16.3920
 0.6500	16.3800
 0.6510	16.3850
 0.6520	16.3810
 0.6530	16.3970
 0.6540	16.4370
 0.6550	16.4370
 0.6560	16.4300
 0.6570	16.4380
 0.6580	16.4660
 0.6590	16.4530
 0.6600	16.4540
 0.6610	16.4750
 0.6620	16.4720
 0.6630	16.4780
 0.6640	16.4910
 0.6650	16.5030
 0.6660	16.5300
 0.6670	16.5260
 0.6680	16.5200
 0.6690	16.5680
 0.6700	16.6050
 0.6710	16.6230
 0.6720	16.6290
 0.6730	16.6500
 0.6740	16.6760
 0.6750	16.7160
 0.6760	16.7640
 0.6770	16.7650
 0.6780	16.7700
 0.6790	16.8040
 0.6800	16.8690
 0.6810	16.9210
 0.6820	16.9540
 0.6830	16.9780
 0.6840	17.0110
 0.6850	17.0220
 0.6860	17.0360
 0.6870	17.0810
 0.6880	17.1120
 0.6890	17.1300
 0.6900	17.1540
 0.6910	17.2110
 0.6920	17.2630
 0.6930	17.3630
 0.6940	17.5390
 0.6950	17.7460
 0.6960	18.0110
 0.6970	18.3490
 0.6980	18.7670
 0.6990	19.2290
 0.7000	19.7700
 0.7010	20.3970
 0.7020	21.0890
 0.7030	21.8050
 0.7040	22.5640
 0.7050	23.3770
 0.7060	24.2090
 0.7070	25.0890
 0.7080	26.0080
 0.7090	26.9510
 0.7100	27.9280
 0.7110	28.9240
 0.7120	29.9470
 0.7130	31.0340
 0.7140	32.1230
 0.7150	33.2220
 0.7160	34.3410
 0.7170	35.4770
 0.7180	36.6370
 0.7190	37.8140
 0.7200	38.9940
 0.7210	40.1570
 0.7220	41.3250
 0.7230	42.5070
 0.7240	43.6950
 0.7250	44.8540
 0.7260	45.9880
 0.7270	47.0970
 0.7280	48.1400
 0.7290	49.1810
 0.7300	50.2010
 0.7310	51.1560
 0.7320	52.0980
 0.7330	53.0050
 0.7340	53.8610
 0.7350	54.6620
 0.7360	55.3890
 0.7370	56.0980
 0.7380	56.8150
 0.7390	57.4400
 0.7400	58.0390
 0.7410	58.6050
 0.7420	59.1160
 0.7430	59.6030
 0.7440	60.0460
 0.7450	60.4480
 0.7460	60.8300
 0.7470	61.1610
 0.7480	61.4670
 0.7490	61.7600
 0.7500	62.0080
 0.7510	62.2380
 0.7520	62.4620
 0.7530	62.6750
 0.7540	62.7980
 0.7550	62.9320
 0.7560	63.0900
 0.7570	63.2170
 0.7580	63.3450
 0.7590	63.4520
 0.7600	63.5290
 0.7610	63.5950
 0.7620	63.6580
 0.7630	63.7280
 0.7640	63.8000
 0.7650	63.8490
 0.7660	63.8690
 0.7670	63.8940
 0.7680	63.9720
 0.7690	63.9940
 0.7700	63.9980
 0.7710	64.0070
 0.7720	63.9940
 0.7730	64.0110
 0.7740	64.0550
 0.7750	64.0990
 0.7760	64.0760
 0.7770	64.0740
 0.7780	64.0910
 0.7790	64.0870
 0.7800	64.1050
 0.7810	64.1100
 0.7820	64.0980
 0.7830	64.0970
 0.7840	64.1080
 0.7850	64.1060
 0.7860	64.0880
 0.7870	64.1070
 0.7880	64.1170
 0.7890	64.1020
 0.7900	64.0660
 0.7910	64.0620
 0.7920	64.0780
 0.7930	64.0930
 0.7940	64.0860
 0.7950	64.0560
 0.7960	64.0200
 0.7970	63.9930
 0.7980	63.9790
 0.7990	63.9990
 0.8000	64.0140
 0.8010	63.9940
 0.8020	63.9850
 0.8030	63.9730
 0.8040	63.9500
 0.8050	63.9100
 0.8060	63.8730
 0.8070	63.8540
 0.8080	63.8560
 0.8090	63.8610
 0.8100	63.8480
 0.8110	63.8000
 0.8120	63.7420
 0.8130	63.7600
 0.8140	63.7430
 0.8150	63.7200
 0.8160	63.7320
 0.8170	63.7450
 0.8180	63.7050
 0.8190	63.6410
 0.8200	63.6140
 0.8210	63.6310
 0.8220	63.6340
 0.8230	63.6160
 0.8240	63.6140
 0.8250	63.5630
 0.8260	63.5200
 0.8270	63.5180
 0.8280	63.5240
 0.8290	63.5300
 0.8300	63.5300
 0.8310	63.5250
 0.8320	63.5290
 0.8330	63.4870
 0.8340	63.4330
 0.8350	63.4320
 0.8360	63.4520
 0.8370	63.4600
 0.8380	63.4550
 0.8390	63.4650
 0.8400	63.4720
 0.8410	63.4700
 0.8420	63.4640
 0.8430	63.4650
 0.8440	63.4710
 0.8450	63.4800
 0.8460	63.4870
 0.8470	63.4870
 0.8480	63.5130
 0.8490	63.5330
 0.8500	63.5140
 0.8510	63.5380
 0.8520	63.5580
 0.8530	63.5630
 0.8540	63.5610
 0.8550	63.5740
 0.8560	63.6060
 0.8570	63.6370
 0.8580	63.6300
 0.8590	63.6460
 0.8600	63.6560
 0.8610	63.6500
 0.8620	63.6760
 0.8630	63.6720
 0.8640	63.6930
 0.8650	63.7750
 0.8660	63.8260
 0.8670	63.7980
 0.8680	63.7490
 0.8690	63.7570
 0.8700	63.7830
 0.8710	63.7800
 0.8720	63.7720
 0.8730	63.8080
 0.8740	63.8310
 0.8750	63.8980
 0.8760	63.9810
 0.8770	63.9810
 0.8780	63.9980
 0.8790	63.9760
 0.8800	63.9430
 0.8810	64.0710
 0.8820	64.0450
 0.8830	63.9990
 0.8840	64.0520
 0.8850	64.0660
 0.8860	64.1080
 0.8870	64.1410
 0.8880	64.1290
 0.8890	64.1370
 0.8900	64.1480
 0.8910	64.1500
 0.8920	64.1380
 0.8930	64.1730
 0.8940	64.2090
 0.8950	64.2230
 0.8960	64.2100
 0.8970	64.2170
 0.8980	64.2060
 0.8990	64.1960
 0.9000	64.2470
 0.9010	64.2530
 0.9020	64.2650
 0.9030	64.2950
 0.9040	64.2710
 0.9050	64.2250
 0.9060	64.2090
 0.9070	64.2440
 0.9080	64.2910
 0.9090	64.3050
 0.9100	64.2830
 0.9110	64.2460
 0.9120	64.2390
 0.9130	64.2190
 0.9140	64.2540
 0.9150	64.3710
 0.9160	64.3250
 0.9170	64.3050
 0.9180	64.3220
 0.9190	64.3130
 0.9200	64.2720
 0.9210	64.2800
 0.9220	64.3020
 0.9230	64.2590
 0.9240	64.2580
 0.9250	64.2400
 0.9260	64.2160
 0.9270	64.2400
 0.9280	64.1980
 0.9290	64.1490
 0.9300	64.1150
 0.9310	64.0700
 0.9320	64.1190
 0.9330	64.0810
 0.9340	63.9450
 0.9350	63.9270
 0.9360	63.9120
 0.9370	63.8840
 0.9380	63.8520
 0.9390	63.8290
 0.9400	63.7750
 0.9410	63.7400
 0.9420	63.7440
 0.9430	63.7200
 0.9440	63.7040
 0.9450	63.6140
 0.9460	63.4510
 0.9470	63.4170
 0.9480	63.3220
 0.9490	63.2640
 0.9500	63.2850
 0.9510	63.1150
 0.9520	62.9580
 0.9530	62.9100
 0.9540	62.9440
 0.9550	62.7880
 0.9560	62.7490
 0.9570	62.7700
 0.9580	62.7060
 0.9590	62.5750
 0.9600	62.4140
 0.9610	62.3130
 0.9620	62.3160
 0.9630	62.2540
 0.9640	62.2440
 0.9650	62.2470
 0.9660	62.1990
 0.9670	62.2160
 0.9680	62.1670
 0.9690	62.0680
 0.9700	62.0050
 0.9710	62.0090
 0.9720	62.0690
 0.9730	62.0830
 0.9740	61.9760
 0.9750	62.0020
 0.9760	62.0010
 0.9770	61.9840
 0.9780	62.0220
 0.9790	62.0330
 0.9800	62.0270
 0.9810	62.0280
 0.9820	62.0480
 0.9830	62.0480
 0.9840	62.0140
 0.9850	61.9940
 0.9860	62.0490
 0.9870	62.1800
 0.9880	62.1660
 0.9890	62.0640
 0.9900	62.0420
 0.9910	62.0370
 0.9920	62.0560
 0.9930	62.1140
 0.9940	62.2020
 0.9950	62.1950
 0.9960	62.1980
 0.9970	62.2240
 0.9980	62.2490
 0.9990	62.2870
 1.0000	62.3030
 1.0010	62.8140
 1.0020	62.8490
 1.0030	62.8780
 1.0040	62.8950
 1.0050	62.9010
 1.0060	62.9390
 1.0070	62.9940
 1.0080	63.0250
 1.0090	63.0310
 1.0100	63.0630
 1.0110	63.1160
 1.0120	63.1370
 1.0130	63.1590
 1.0140	63.1810
 1.0150	63.1720
 1.0160	63.1620
 1.0170	63.2180
 1.0180	63.2830
 1.0190	63.3290
 1.0200	63.3790
 1.0210	63.4240
 1.0220	63.4400
 1.0230	63.4630
 1.0240	63.4920
 1.0250	63.5140
 1.0260	63.5210
 1.0270	63.5430
 1.0280	63.5750
 1.0290	63.5950
 1.0300	63.5840
 1.0310	63.6140
 1.0320	63.6810
 1.0330	63.7200
 1.0340	63.7300
 1.0350	63.7710
 1.0360	63.7900
 1.0370	63.8370
 1.0380	63.8660
 1.0390	63.9340
 1.0400	63.9590
 1.0410	63.9320
 1.0420	63.9380
 1.0430	63.9570
 1.0440	63.9750
 1.0450	63.9840
 1.0460	64.0160
 1.0470	64.0950
 1.0480	64.1250
 1.0490	64.1240
 1.0500	64.1450
 1.0510	64.1370
 1.0520	64.1570
 1.0530	64.1740
 1.0540	64.2280
 1.0550	64.2420
 1.0560	64.2180
 1.0570	64.2340
 1.0580	64.2700
 1.0590	64.2810
 1.0600	64.3040
 1.0610	64.3090
 1.0620	64.2790
 1.0630	64.2670
 1.0640	64.2540
 1.0650	64.2490
 1.0660	64.2400
 1.0670	64.2460
 1.0680	64.2630
 1.0690	64.2990
 1.0700	64.3190
 1.0710	64.3520
 1.0720	64.3560
 1.0730	64.3460
 1.0740	64.3270
 1.0750	64.2860
 1.0760	64.2600
 1.0770	64.2160
 1.0780	64.2060
 1.0790	64.2210
 1.0800	64.2290
 1.0810	64.2660
 1.0820	64.2760
 1.0830	64.2640
 1.0840	64.2600
 1.0850	64.2550
 1.0860	64.2420
 1.0870	64.2300
 1.0880	64.2180
 1.0890	64.2130
 1.0900	64.2070
 1.0910	64.2000
 1.0920	64.2090
 1.0930	64.1950
 1.0940	64.1660
 1.0950	64.1440
 1.0960	64.0930
 1.0970	64.0820
 1.0980	64.1010
 1.0990	64.1070
 1.1000	64.1390
 1.1010	64.1550
 1.1020	64.1700
 1.1030	64.1570
 1.1040	64.1440
 1.1050	64.1200
 1.1060	64.1000
 1.1070	64.0740
 1.1080	64.0440
 1.1090	64.0070
 1.1100	63.9890
 1.1110	63.9640
 1.1120	63.9510
 1.1130	63.9690
 1.1140	63.9650
 1.1150	63.9580
 1.1160	63.9460
 1.1170	63.9290
 1.1180	63.9040
 1.1190	63.8720
 1.1200	63.8260
 1.1210	63.7840
 1.1220	63.7590
 1.1230	63.7440
 1.1240	63.7090
 1.1250	63.6520
 1.1260	63.5800
 1.1270	63.4950
 1.1280	63.3750
 1.1290	63.2830
 1.1300	63.1960
 1.1310	63.0960
 1.1320	63.0120
 1.1330	62.8940
 1.1340	62.7440
 1.1350	62.6090
 1.1360	62.4670
 1.1370	62.3170
 1.1380	62.1860
 1.1390	62.0270
 1.1400	61.8730
 1.1410	61.7100
 1.1420	61.5180
 1.1430	61.3310
 1.1440	61.1490
 1.1450	60.9510
 1.1460	60.7770
 1.1470	60.6270
 1.1480	60.4650
 1.1490	60.2980
 1.1500	60.1450
 1.1510	59.9910
 1.1520	59.8560
 1.1530	59.7320
 1.1540	59.6190
 1.1550	59.5190
 1.1560	59.4290
 1.1570	59.3600
 1.1580	59.2960
 1.1590	59.2400
 1.1600	59.1860
 1.1610	59.1130
 1.1620	59.0560
 1.1630	58.9870
 1.1640	58.9240
 1.1650	58.8810
 1.1660	58.8510
 1.1670	58.8180
 1.1680	58.8040
 1.1690	58.7800
 1.1700	58.7490
 1.1710	58.7250
 1.1720	58.7030
 1.1730	58.6840
 1.1740	58.6680
 1.1750	58.6560
 1.1760	58.6420
 1.1770	58.6300
 1.1780	58.6120
 1.1790	58.5900
 1.1800	58.5640
 1.1810	58.5210
 1.1820	58.4770
 1.1830	58.4440
 1.1840	58.4060
 1.1850	58.3810
 1.1860	58.3620
 1.1870	58.3190
 1.1880	58.2930
 1.1890	58.2710
 1.1900	58.2600
 1.1910	58.2650
 1.1920	58.2660
 1.1930	58.2820
 1.1940	58.2710
 1.1950	58.2420
 1.1960	58.2200
 1.1970	58.2010
 1.1980	58.1970
 1.1990	58.2120
 1.2000	58.2310
 1.2010	58.2430
 1.2020	58.2390
 1.2030	58.2330
 1.2040	58.2260
 1.2050	58.2180
 1.2060	58.2330
 1.2070	58.2560
 1.2080	58.2680
 1.2090	58.2750
 1.2100	58.2760
 1.2110	58.2910
 1.2120	58.3100
 1.2130	58.3360
 1.2140	58.3810
 1.2150	58.4160
 1.2160	58.4510
 1.2170	58.4780
 1.2180	58.5050
 1.2190	58.5260
 1.2200	58.5440
 1.2210	58.5690
 1.2220	58.6090
 1.2230	58.6560
 1.2240	58.7100
 1.2250	58.7640
 1.2260	58.8130
 1.2270	58.8520
 1.2280	58.8830
 1.2290	58.9170
 1.2300	58.9450
 1.2310	58.9680
 1.2320	58.9870
 1.2330	59.0060
 1.2340	59.0320
 1.2350	59.0650
 1.2360	59.0920
 1.2370	59.1210
 1.2380	59.1430
 1.2390	59.1670
 1.2400	59.1860
 1.2410	59.2060
 1.2420	59.2310
 1.2430	59.2520
 1.2440	59.2630
 1.2450	59.2830
 1.2460	59.3100
 1.2470	59.3170
 1.2480	59.3290
 1.2490	59.3610
 1.2500	59.3930
 1.2510	59.4240
 1.2520	59.4490
 1.2530	59.4490
 1.2540	59.4480
 1.2550	59.4460
 1.2560	59.4490
 1.2570	59.4800
 1.2580	59.5010
 1.2590	59.5120
 1.2600	59.5300
 1.2610	59.5350
 1.2620	59.5230
 1.2630	59.5090
 1.2640	59.5090
 1.2650	59.5100
 1.2660	59.5160
 1.2670	59.5280
 1.2680	59.5370
 1.2690	59.5430
 1.2700	59.5370
 1.2710	59.5120
 1.2720	59.4950
 1.2730	59.4800
 1.2740	59.4550
 1.2750	59.4510
 1.2760	59.4390
 1.2770	59.4040
 1.2780	59.3780
 1.2790	59.3520
 1.2800	59.3140
 1.2810	59.2830
 1.2820	59.2570
 1.2830	59.2230
 1.2840	59.1990
 1.2850	59.1710
 1.2860	59.1280
 1.2870	59.0780
 1.2880	59.0210
 1.2890	58.9500
 1.2900	58.8840
 1.2910	58.8290
 1.2920	58.7860
 1.2930	58.7410
 1.2940	58.6900
 1.2950	58.6350
 1.2960	58.5640
 1.2970	58.4930
 1.2980	58.4240
 1.2990	58.3590
 1.3000	58.2960
 1.3010	58.2300
 1.3020	58.1590
 1.3030	58.0720
 1.3040	57.9700
 1.3050	57.8770
 1.3060	57.7810
 1.3070	57.6770
 1.3080	57.5880
 1.3090	57.4890
 1.3100	57.3790
 1.3110	57.2820
 1.3120	57.1720
 1.3130	57.0410
 1.3140	56.9190
 1.3150	56.8010
 1.3160	56.6760
 1.3170	56.5470
 1.3180	56.4270
 1.3190	56.3000
 1.3200	56.1400
 1.3210	55.9800
 1.3220	55.8300
 1.3230	55.6750
 1.3240	55.5270
 1.3250	55.3840
 1.3260	55.2460
 1.3270	55.1050
 1.3280	54.9540
 1.3290	54.8060
 1.3300	54.6400
 1.3310	54.4560
 1.3320	54.2820
 1.3330	54.1150
 1.3340	53.9630
 1.3350	53.8170
 1.3360	53.6600
 1.3370	53.4880
 1.3380	53.3150
 1.3390	53.1470
 1.3400	52.9790
 1.3410	52.8230
 1.3420	52.6740
 1.3430	52.5110
 1.3440	52.3710
 1.3450	52.2310
 1.3460	52.0910
 1.3470	51.9470
 1.3480	51.8040
 1.3490	51.6600
 1.3500	51.5120
 1.3510	51.3750
 1.3520	51.2410
 1.3530	51.1050
 1.3540	50.9660
 1.3550	50.8360
 1.3560	50.7000
 1.3570	50.5590
 1.3580	50.4260
 1.3590	50.2810
 1.3600	50.1280
 1.3610	49.9750
 1.3620	49.8060
 1.3630	49.6250
 1.3640	49.4360
 1.3650	49.2470
 1.3660	49.0540
 1.3670	48.8530
 1.3680	48.6340
 1.3690	48.3920
 1.3700	48.1370
 1.3710	47.8630
 1.3720	47.5710
 1.3730	47.2630
 1.3740	46.9260
 1.3750	46.5640
 1.3760	46.1790
 1.3770	45.7690
 1.3780	45.3330
 1.3790	44.8730
 1.3800	44.3770
 1.3810	43.8550
 1.3820	43.3180
 1.3830	42.7580
 1.3840	42.1800
 1.3850	41.5900
 1.3860	40.9740
 1.3870	40.3250
 1.3880	39.6790
 1.3890	39.0170
 1.3900	38.3580
 1.3910	37.7090
 1.3920	37.0650
 1.3930	36.4250
 1.3940	35.7980
 1.3950	35.1750
 1.3960	34.5680
 1.3970	33.9800
 1.3980	33.4010
 1.3990	32.8470
 1.4000	32.3190
 1.4010	31.8060
 1.4020	31.3140
 1.4030	30.8450
 1.4040	30.3940
 1.4050	29.9730
 1.4060	29.5810
 1.4070	29.2180
 1.4080	28.8820
 1.4090	28.5630
 1.4100	28.2600
 1.4110	27.9760
 1.4120	27.7070
 1.4130	27.4550
 1.4140	27.2220
 1.4150	27.0110
 1.4160	26.8150
 1.4170	26.6310
 1.4180	26.4620
 1.4190	26.3010
 1.4200	26.1520
 1.4210	26.0160
 1.4220	25.8930
 1.4230	25.7810
 1.4240	25.6660
 1.4250	25.5620
 1.4260	25.4650
 1.4270	25.3770
 1.4280	25.2990
 1.4290	25.2290
 1.4300	25.1690
 1.4310	25.1110
 1.4320	25.0590
 1.4330	25.0080
 1.4340	24.9590
 1.4350	24.9140
 1.4360	24.8710
 1.4370	24.8370
 1.4380	24.8090
 1.4390	24.7880
 1.4400	24.7670
 1.4410	24.7490
 1.4420	24.7360
 1.4430	24.7210
 1.4440	24.7130
 1.4450	24.7090
 1.4460	24.7000
 1.4470	24.6980
 1.4480	24.6980
 1.4490	24.7000
 1.4500	24.7080
 1.4510	24.7070
 1.4520	24.7110
 1.4530	24.7170
 1.4540	24.7270
 1.4550	24.7480
 1.4560	24.7640
 1.4570	24.7830
 1.4580	24.8030
 1.4590	24.8240
 1.4600	24.8500
 1.4610	24.8820
 1.4620	24.9200
 1.4630	24.9620
 1.4640	25.0150
 1.4650	25.0720
 1.4660	25.1300
 1.4670	25.1890
 1.4680	25.2510
 1.4690	25.3170
 1.4700	25.3930
 1.4710	25.4740
 1.4720	25.5580
 1.4730	25.6430
 1.4740	25.7230
 1.4750	25.8050
 1.4760	25.8950
 1.4770	25.9880
 1.4780	26.0880
 1.4790	26.1920
 1.4800	26.3000
 1.4810	26.4130
 1.4820	26.5270
 1.4830	26.6410
 1.4840	26.7500
 1.4850	26.8600
 1.4860	26.9630
 1.4870	27.0710
 1.4880	27.1890
 1.4890	27.3030
 1.4900	27.4220
 1.4910	27.5510
 1.4920	27.6740
 1.4930	27.7940
 1.4940	27.9200
 1.4950	28.0480
 1.4960	28.1790
 1.4970	28.3140
 1.4980	28.4480
 1.4990	28.5840
 1.5000	28.7160
 1.5010	28.8450
 1.5020	28.9770
 1.5030	29.1100
 1.5040	29.2430
 1.5050	29.3800
 1.5060	29.5180
 1.5070	29.6520
 1.5080	29.7870
 1.5090	29.9230
 1.5100	30.0590
 1.5110	30.1880
 1.5120	30.3260
 1.5130	30.4660
 1.5140	30.6020
 1.5150	30.7410
 1.5160	30.8760
 1.5170	31.0060
 1.5180	31.1400
 1.5190	31.2840
 1.5200	31.4290
 1.5210	31.5750
 1.5220	31.7190
 1.5230	31.8560
 1.5240	31.9910
 1.5250	32.1250
 1.5260	32.2600
 1.5270	32.3970
 1.5280	32.5290
 1.5290	32.6640
 1.5300	32.7940
 1.5310	32.9220
 1.5320	33.0590
 1.5330	33.1920
 1.5340	33.3240
 1.5350	33.4610
 1.5360	33.5920
 1.5370	33.7170
 1.5380	33.8410
 1.5390	33.9700
 1.5400	34.0930
 1.5410	34.2180
 1.5420	34.3480
 1.5430	34.4730
 1.5440	34.5940
 1.5450	34.7170
 1.5460	34.8380
 1.5470	34.9600
 1.5480	35.0860
 1.5490	35.2090
 1.5500	35.3320
 1.5510	35.4490
 1.5520	35.5600
 1.5530	35.6690
 1.5540	35.7800
 1.5550	35.8870
 1.5560	35.9990
 1.5570	36.1160
 1.5580	36.2230
 1.5590	36.3390
 1.5600	36.4500
 1.5610	36.5550
 1.5620	36.6640
 1.5630	36.7640
 1.5640	36.8670
 1.5650	36.9710
 1.5660	37.0760
 1.5670	37.1820
 1.5680	37.2910
 1.5690	37.4000
 1.5700	37.5040
 1.5710	37.6070
 1.5720	37.7070
 1.5730	37.8040
 1.5740	37.8980
 1.5750	37.9990
 1.5760	38.1030
 1.5770	38.1930
 1.5780	38.2920
 1.5790	38.3920
 1.5800	38.4840
 1.5810	38.5840
 1.5820	38.6830
 1.5830	38.7710
 1.5840	38.8580
 1.5850	38.9480
 1.5860	39.0360
 1.5870	39.1240
 1.5880	39.2100
 1.5890	39.2900
 1.5900	39.3640
 1.5910	39.4330
 1.5920	39.5090
 1.5930	39.5980
 1.5940	39.6850
 1.5950	39.7800
 1.5960	39.8670
 1.5970	39.9360
 1.5980	40.0090
 1.5990	40.0700
 1.6000	40.1420
 1.6010	40.2270
 1.6020	40.3010
 1.6030	40.3880
 1.6040	40.4670
 1.6050	40.5360
 1.6060	40.6070
 1.6070	40.6710
 1.6080	40.7450
 1.6090	40.8150
 1.6100	40.8860
 1.6110	40.9570
 1.6120	41.0190
 1.6130	41.0890
 1.6140	41.1510
 1.6150	41.2180
 1.6160	41.2900
 1.6170	41.3490
 1.6180	41.4150
 1.6190	41.4790
 1.6200	41.5290
 1.6210	41.5810
 1.6220	41.6280
 1.6230	41.6760
 1.6240	41.7310
 1.6250	41.7780
 1.6260	41.8330
 1.6270	41.8910
 1.6280	41.9410
 1.6290	41.9900
 1.6300	42.0220
 1.6310	42.0730
 1.6320	42.1330
 1.6330	42.1880
 1.6340	42.2560
 1.6350	42.3110
 1.6360	42.3550
 1.6370	42.4030
 1.6380	42.4490
 1.6390	42.4940
 1.6400	42.5380
 1.6410	42.5780
 1.6420	42.6130
 1.6430	42.6510
 1.6440	42.6910
 1.6450	42.7250
 1.6460	42.7510
 1.6470	42.7860
 1.6480	42.8100
 1.6490	42.8390
 1.6500	42.8770
 1.6510	42.8960
 1.6520	42.9110
 1.6530	42.9160
 1.6540	42.9170
 1.6550	42.9320
 1.6560	42.9480
 1.6570	42.9680
 1.6580	42.9940
 1.6590	43.0080
 1.6600	43.0150
 1.6610	43.0320
 1.6620	43.0410
 1.6630	43.0480
 1.6640	43.0660
 1.6650	43.0650
 1.6660	43.0670
 1.6670	43.0660
 1.6680	43.0440
 1.6690	43.0470
 1.6700	43.0500
 1.6710	43.0440
 1.6720	43.0600
 1.6730	43.0680
 1.6740	43.0550
 1.6750	43.0490
 1.6760	43.0410
 1.6770	43.0170
 1.6780	43.0000
 1.6790	42.9940
 1.6800	42.9840
 1.6810	42.9760
 1.6820	42.9620
 1.6830	42.9350
 1.6840	42.9020
 1.6850	42.8590
 1.6860	42.8250
 1.6870	42.7970
 1.6880	42.7530
 1.6890	42.7180
 1.6900	42.6860
 1.6910	42.6540
 1.6920	42.6260
 1.6930	42.6060
 1.6940	42.5800
 1.6950	42.5480
 1.6960	42.5140
 1.6970	42.4880
 1.6980	42.4450
 1.6990	42.3970
 1.7000	42.3440
 1.7010	42.2680
 1.7020	42.2120
 1.7030	42.1580
 1.7040	42.1080
 1.7050	42.0750
 1.7060	42.0280
 1.7070	41.9830
 1.7080	41.9260
 1.7090	41.8520
 1.7100	41.7990
 1.7110	41.7440
 1.7120	41.7110
 1.7130	41.6720
 1.7140	41.5980
 1.7150	41.5260
 1.7160	41.4660
 1.7170	41.4070
 1.7180	41.3560
 1.7190	41.3130
 1.7200	41.2580
 1.7210	41.1880
 1.7220	41.1330
 1.7230	41.0680
 1.7240	40.9760
 1.7250	40.8860
 1.7260	40.8060
 1.7270	40.7360
 1.7280	40.6760
 1.7290	40.6270
 1.7300	40.5710
 1.7310	40.5160
 1.7320	40.4640
 1.7330	40.4190
 1.7340	40.3760
 1.7350	40.3410
 1.7360	40.3260
 1.7370	40.2960
 1.7380	40.2630
 1.7390	40.2230
 1.7400	40.1650
 1.7410	40.1160
 1.7420	40.0750
 1.7430	40.0120
 1.7440	39.9390
 1.7450	39.8690
 1.7460	39.7820
 1.7470	39.7070
 1.7480	39.6400
 1.7490	39.5700
 1.7500	39.4900
 1.7510	39.4310
 1.7520	39.3910
 1.7530	39.3220
 1.7540	39.2550
 1.7550	39.1580
 1.7560	39.0510
 1.7570	38.9760
 1.7580	38.8970
 1.7590	38.8280
 1.7600	38.7790
 1.7610	38.6870
 1.7620	38.6110
 1.7630	38.5250
 1.7640	38.4550
 1.7650	38.4110
 1.7660	38.3630
 1.7670	38.3180
 1.7680	38.2750
 1.7690	38.2410
 1.7700	38.1950
 1.7710	38.1410
 1.7720	38.0950
 1.7730	38.0380
 1.7740	38.0010
 1.7750	37.9880
 1.7760	37.9610
 1.7770	37.9410
 1.7780	37.9140
 1.7790	37.8780
 1.7800	37.8480
 1.7810	37.8170
 1.7820	37.7930
 1.7830	37.7680
 1.7840	37.7540
 1.7850	37.7470
 1.7860	37.7450
 1.7870	37.7560
 1.7880	37.7340
 1.7890	37.7240
 1.7900	37.6950
 1.7910	37.6780
 1.7920	37.6830
 1.7930	37.6760
 1.7940	37.6560
 1.7950	37.6530
 1.7960	37.6560
 1.7970	37.6590
 1.7980	37.6740
 1.7990	37.6850
 1.8000	37.6950
 1.8010	37.6970
 1.8020	37.6930
 1.8030	37.7000
 1.8040	37.7000
 1.8050	37.7150
 1.8060	37.7530
 1.8070	37.7710
 1.8080	37.7850
 1.8090	37.7960
 1.8100	37.7950
 1.8110	37.7980
 1.8120	37.8160
 1.8130	37.8340
 1.8140	37.8500
 1.8150	37.8650
 1.8160	37.8690
 1.8170	37.8690
 1.8180	37.8740
 1.8190	37.8760
 1.8200	37.8820
 1.8210	37.8930
 1.8220	37.8940
 1.8230	37.8970
 1.8240	37.8910
 1.8250	37.8750
 1.8260	37.8620
 1.8270	37.8440
 1.8280	37.8210
 1.8290	37.7890
 1.8300	37.7620
 1.8310	38.8930
 1.8320	38.8630
 1.8330	38.8190
 1.8340	38.8270
 1.8350	38.8080
 1.8360	38.7840
 1.8370	38.7190
 1.8380	38.6430
 1.8390	38.5980
 1.8400	38.5770
 1.8410	38.5200
 1.8420	38.4770
 1.8430	38.4170
 1.8440	38.3000
 1.8450	38.1960
 1.8460	38.0810
 1.8470	37.9590
 1.8480	37.8250
 1.8490	37.6800
 1.8500	37.5280
 1.8510	37.3700
 1.8520	37.1950
 1.8530	36.9970
 1.8540	36.7800
 1.8550	36.5460
 1.8560	36.2770
 1.8570	36.0060
 1.8580	35.7490
 1.8590	35.4710
 1.8600	35.1880
 1.8610	34.8880
 1.8620	34.5420
 1.8630	34.1650
 1.8640	33.7750
 1.8650	33.3600
 1.8660	32.9590
 1.8670	32.5450
 1.8680	32.1210
 1.8690	31.7110
 1.8700	31.2770
 1.8710	30.8300
 1.8720	30.3840
 1.8730	29.9180
 1.8740	29.4110
 1.8750	28.9150
 1.8760	28.4180
 1.8770	27.9150
 1.8780	27.4330
 1.8790	26.9510
 1.8800	26.4780
 1.8810	26.0090
 1.8820	25.5500
 1.8830	25.1060
 1.8840	24.6840
 1.8850	24.2700
 1.8860	23.8880
 1.8870	23.5230
 1.8880	23.1800
 1.8890	22.8780
 1.8900	22.5770
 1.8910	22.3060
 1.8920	22.0620
 1.8930	21.8430
 1.8940	21.6240
 1.8950	21.4320
 1.8960	21.2500
 1.8970	21.0720
 1.8980	20.9150
 1.8990	20.7920
 1.9000	20.6870
 1.9010	20.6230
 1.9020	20.5370
 1.9030	20.4560
 1.9040	20.3810
 1.9050	20.3180
 1.9060	20.2690
 1.9070	20.2460
 1.9080	20.2400
 1.9090	20.2170
 1.9100	20.1910
 1.9110	20.1740
 1.9120	20.1660
 1.9130	20.1540
 1.9140	20.1450
 1.9150	20.1320
 1.9160	20.1170
 1.9170	20.0980
 1.9180	20.0870
 1.9190	20.0850
 1.9200	20.0730
 1.9210	20.0670
 1.9220	20.0770
 1.9230	20.0970
 1.9240	20.1230
 1.9250	20.1750
 1.9260	20.2080
 1.9270	20.2220
 1.9280	20.1910
 1.9290	20.1540
 1.9300	20.1360
 1.9310	20.1150
 1.9320	20.1160
 1.9330	20.1260
 1.9340	20.1580
 1.9350	20.1680
 1.9360	20.1860
 1.9370	20.1940
 1.9380	20.1850
 1.9390	20.1690
 1.9400	20.1800
 1.9410	20.1790
 1.9420	20.1840
 1.9430	20.1990
 1.9440	20.2010
 1.9450	20.1930
 1.9460	20.1990
 1.9470	20.2070
 1.9480	20.2120
 1.9490	20.2280
 1.9500	20.2320
 1.9510	20.2330
 1.9520	20.2430
 1.9530	20.2520
 1.9540	20.2630
 1.9550	20.2750
 1.9560	20.2780
 1.9570	20.2980
 1.9580	20.3370
 1.9590	20.3670
 1.9600	20.4140
 1.9610	20.4380
 1.9620	20.4450
 1.9630	20.4370
 1.9640	20.4540
 1.9650	20.4700
 1.9660	20.5220
 1.9670	20.5720
 1.9680	20.6060
 1.9690	20.6410
 1.9700	20.6620
 1.9710	20.6580
 1.9720	20.6680
 1.9730	20.6780
 1.9740	20.6770
 1.9750	20.6850
 1.9760	20.7200
 1.9770	20.7660
 1.9780	20.8100
 1.9790	20.8520
 1.9800	20.9090
 1.9810	20.9390
 1.9820	20.9460
 1.9830	20.9710
 1.9840	20.9840
 1.9850	21.0180
 1.9860	21.0780
 1.9870	21.1210
 1.9880	21.1720
 1.9890	21.2130
 1.9900	21.2260
 1.9910	21.2730
 1.9920	21.3160
 1.9930	21.3640
 1.9940	21.4070
 1.9950	21.4600
 1.9960	21.4930
 1.9970	21.5170
 1.9980	21.5370
 1.9990	21.5320
 2.0000	21.5540
 2.0010	21.5830
 2.0020	21.6180
 2.0030	21.6890
 2.0040	21.7570
 2.0050	21.8170
 2.0060	21.8720
 2.0070	21.9330
 2.0080	21.9860
 2.0090	22.0460
 2.0100	22.1270
 2.0110	22.1850
 2.0120	22.2260
 2.0130	22.2860
 2.0140	22.3030
 2.0150	22.3080
 2.0160	22.3450
 2.0170	22.3570
 2.0180	22.3940
 2.0190	22.4620
 2.0200	22.5110
 2.0210	22.5460
 2.0220	22.6050
 2.0230	22.6770
 2.0240	22.7410
 2.0250	22.8270
 2.0260	22.8900
 2.0270	22.9340
 2.0280	22.9800
 2.0290	23.0260
 2.0300	23.0570
 2.0310	23.1140
 2.0320	23.1900
 2.0330	23.2490
 2.0340	23.3220
 2.0350	23.3800
 2.0360	23.4280
 2.0370	23.4660
 2.0380	23.4800
 2.0390	23.5180
 2.0400	23.5530
 2.0410	23.5930
 2.0420	23.6550
 2.0430	23.7120
 2.0440	23.7630
 2.0450	23.8060
 2.0460	23.8540
 2.0470	23.8980
 2.0480	23.9550
 2.0490	24.0250
 2.0500	24.0780
 2.0510	24.1330
 2.0520	24.1850
 2.0530	24.2140
 2.0540	24.2670
 2.0550	24.3170
 2.0560	24.4100
 2.0570	24.5110
 2.0580	24.5710
 2.0590	24.6270
 2.0600	24.6670
 2.0610	24.7110
 2.0620	24.7410
 2.0630	24.7820
 2.0640	24.8260
 2.0650	24.8780
 2.0660	24.9260
 2.0670	24.9820
 2.0680	25.0670
 2.0690	25.1240
 2.0700	25.1530
 2.0710	25.2080
 2.0720	25.2660
 2.0730	25.3240
 2.0740	25.3870
 2.0750	25.4770
 2.0760	25.5320
 2.0770	25.5630
 2.0780	25.6020
 2.0790	25.6290
 2.0800	25.6680
 2.0810	25.7030
 2.0820	25.7530
 2.0830	25.8200
 2.0840	25.8790
 2.0850	25.9590
 2.0860	26.0130
 2.0870	26.0380
 2.0880	26.0800
 2.0890	26.1270
 2.0900	26.1560
 2.0910	26.2330
 2.0920	26.3560
 2.0930	26.4380
 2.0940	26.5410
 2.0950	26.6030
 2.0960	26.6150
 2.0970	26.6570
 2.0980	26.7020
 2.0990	26.7370
 2.1000	26.7720
 2.1010	26.8070
 2.1020	26.8160
 2.1030	26.8510
 2.1040	26.8970
 2.1050	26.9650
 2.1060	27.0350
 2.1070	27.1280
 2.1080	27.1980
 2.1090	27.2690
 2.1100	27.3320
 2.1110	27.3890
 2.1120	27.4340
 2.1130	27.4660
 2.1140	27.5070
 2.1150	27.5290
 2.1160	27.5770
 2.1170	27.6520
 2.1180	27.7140
 2.1190	27.7780
 2.1200	27.8470
 2.1210	27.9160
 2.1220	27.9870
 2.1230	28.0460
 2.1240	28.1150
 2.1250	28.1540
 2.1260	28.1690
 2.1270	28.1880
 2.1280	28.1800
 2.1290	28.2080
 2.1300	28.2500
 2.1310	28.2870
 2.1320	28.3340
 2.1330	28.3880
 2.1340	28.4480
 2.1350	28.4990
 2.1360	28.5740
 2.1370	28.6220
 2.1380	28.6220
 2.1390	28.6590
 2.1400	28.7050
 2.1410	28.7610
 2.1420	28.8080
 2.1430	28.8720
 2.1440	28.9280
 2.1450	28.9720
 2.1460	29.0220
 2.1470	29.0960
 2.1480	29.1350
 2.1490	29.1470
 2.1500	29.1690
 2.1510	29.1730
 2.1520	29.1980
 2.1530	29.2430
 2.1540	29.2710
 2.1550	29.2890
 2.1560	29.3260
 2.1570	29.3880
 2.1580	29.4130
 2.1590	29.4320
 2.1600	29.4480
 2.1610	29.4330
 2.1620	29.4180
 2.1630	29.4340
 2.1640	29.4970
 2.1650	29.4940
 2.1660	29.4730
 2.1670	29.4580
 2.1680	29.3850
 2.1690	29.3890
 2.1700	29.4510
 2.1710	29.4780
 2.1720	29.5210
 2.1730	29.5590
 2.1740	29.5880
 2.1750	29.6100
 2.1760	29.6430
 2.1770	29.6590
 2.1780	29.6390
 2.1790	29.6430
 2.1800	29.6550
 2.1810	29.6690
 2.1820	29.6950
 2.1830	29.7160
 2.1840	29.7390
 2.1850	29.7560
 2.1860	29.7850
 2.1870	29.8340
 2.1880	29.8450
 2.1890	29.8390
 2.1900	29.8470
 2.1910	29.8300
 2.1920	29.8390
 2.1930	29.8770
 2.1940	29.9010
 2.1950	29.9200
 2.1960	29.9380
 2.1970	29.9690
 2.1980	29.9790
 2.1990	29.9720
 2.2000	29.9740
 2.2010	29.9580
 2.2020	29.9570
 2.2030	29.9630
 2.2040	29.9810
 2.2050	30.0070
 2.2060	30.0540
 2.2070	30.0770
 2.2080	30.1120
 2.2090	30.1140
 2.2100	30.0780
 2.2110	30.0790
 2.2120	30.0810
 2.2130	30.0910
 2.2140	30.1230
 2.2150	30.1420
 2.2160	30.1570
 2.2170	30.1670
 2.2180	30.1770
 2.2190	30.1820
 2.2200	30.1760
 2.2210	30.1770
 2.2220	30.1840
 2.2230	30.1840
 2.2240	30.1750
 2.2250	30.1750
 2.2260	30.1850
 2.2270	30.1810
 2.2280	30.1890
 2.2290	30.1710
 2.2300	30.1220
 2.2310	30.0560
 2.2320	30.0590
 2.2330	30.0600
 2.2340	30.0650
 2.2350	30.1260
 2.2360	30.1220
 2.2370	30.0700
 2.2380	30.0480
 2.2390	30.0290
 2.2400	30.0050
 2.2410	29.9820
 2.2420	29.9510
 2.2430	29.9220
 2.2440	29.8620
 2.2450	29.7800
 2.2460	29.7070
 2.2470	29.6090
 2.2480	29.5240
 2.2490	29.4500
 2.2500	29.3730
 2.2510	29.2900
 2.2520	29.2190
 2.2530	29.1400
 2.2540	29.0840
 2.2550	29.0150
 2.2560	29.0020
 2.2570	29.0770
 2.2580	29.0930
 2.2590	29.1470
 2.2600	29.1390
 2.2610	29.0600
 2.2620	28.9560
 2.2630	28.9010
 2.2640	28.8070
 2.2650	28.7270
 2.2660	28.6860
 2.2670	28.6030
 2.2680	28.4910
 2.2690	28.4170
 2.2700	28.3370
 2.2710	28.2870
 2.2720	28.2720
 2.2730	28.2370
 2.2740	28.2130
 2.2750	28.1680
 2.2760	28.1010
 2.2770	28.0620
 2.2780	28.0150
 2.2790	27.9970
 2.2800	28.0380
 2.2810	28.0150
 2.2820	27.9630
 2.2830	27.9280
 2.2840	27.8530
 2.2850	27.8100
 2.2860	27.8230
 2.2870	27.7910
 2.2880	27.7420
 2.2890	27.6970
 2.2900	27.6420
 2.2910	27.5750
 2.2920	27.4820
 2.2930	27.4160
 2.2940	27.3540
 2.2950	27.2800
 2.2960	27.2230
 2.2970	27.1660
 2.2980	27.0650
 2.2990	27.0280
 2.3000	27.0230
 2.3010	26.9920
 2.3020	26.9170
 2.3030	26.8670
 2.3040	26.8110
 2.3050	26.7750
 2.3060	26.8190
 2.3070	26.8110
 2.3080	26.7400
 2.3090	26.6560
 2.3100	26.5540
 2.3110	26.4830
 2.3120	26.4230
 2.3130	26.3870
 2.3140	26.3810
 2.3150	26.3960
 2.3160	26.4030
 2.3170	26.4480
 2.3180	26.4610
 2.3190	26.4660
 2.3200	26.4500
 2.3210	26.4380
 2.3220	26.3860
 2.3230	26.2560
 2.3240	26.2050
 2.3250	26.1740
 2.3260	26.1490
 2.3270	26.1720
 2.3280	26.1720
 2.3290	26.1710
 2.3300	26.1330
 2.3310	26.0800
 2.3320	26.0320
 2.3330	25.9280
 2.3340	25.8780
 2.3350	25.8810
 2.3360	25.8570
 2.3370	25.8290
 2.3380	25.8100
 2.3390	25.8230
 2.3400	25.7780
 2.3410	25.6980
 2.3420	25.6520
 2.3430	25.5380
 2.3440	25.5040
 2.3450	25.5700
 2.3460	25.5680
 2.3470	25.5830
 2.3480	25.5620
 2.3490	25.4690
 2.3500	25.4110
 2.3510	25.3620
 2.3520	25.2940
 2.3530	25.2000
 2.3540	25.1730
 2.3550	25.0720
 2.3560	25.0560
 2.3570	25.0850
 2.3580	25.0300
 2.3590	25.0770
 2.3600	25.0740
 2.3610	25.0330
 2.3620	25.0650
 2.3630	25.0120
 2.3640	24.9680
 2.3650	24.9730
 2.3660	24.9910
 2.3670	25.0280
 2.3680	25.0600
 2.3690	25.0290
 2.3700	24.9300
 2.3710	24.9020
 2.3720	24.8330
 2.3730	24.7350
 2.3740	24.7190
 2.3750	24.6350
 2.3760	24.5490
 2.3770	24.5360
 2.3780	24.5180
 2.3790	24.5450
 2.3800	24.5960
 2.3810	24.5870
 2.3820	24.5920
 2.3830	24.5680
 2.3840	24.4730
 2.3850	24.4550
 2.3860	24.3940
 2.3870	24.2910
 2.3880	24.2560
 2.3890	24.1620
 2.3900	24.0950
 2.3910	24.0030
 2.3920	23.8660
 2.3930	23.8620
 2.3940	23.8910
 2.3950	23.9520
 2.3960	23.9760
 2.3970	23.9110
 2.3980	23.8790
 2.3990	23.8500
 2.4000	23.9180
 2.4010	23.9510
 2.4020	23.8800
 2.4030	23.8140
 2.4040	23.7400
 2.4050	23.7900
 2.4060	23.7690
 2.4070	23.7070
 2.4080	23.7400
 2.4090	23.6360
 2.4100	23.5760
 2.4110	23.5310
 2.4120	23.4310
 2.4130	23.4640
 2.4140	23.4340
 2.4150	23.3800
 2.4160	23.3400
 2.4170	23.2300
 2.4180	23.2920
 2.4190	23.4540
 2.4200	23.5110
 2.4210	23.4910
 2.4220	23.3600
 2.4230	23.2320
 2.4240	23.2350
 2.4250	23.1800
 2.4260	23.1690
 2.4270	23.1150
 2.4280	22.9590
 2.4290	22.9570
 2.4300	22.9510
 2.4310	23.0200
 2.4320	23.0890
 2.4330	23.0600
 2.4340	23.0410
 2.4350	23.0050
 2.4360	22.9940
 2.4370	22.9980
 2.4380	23.0980
 2.4390	23.0980
 2.4400	22.9160
 2.4410	22.8680
 2.4420	22.8520
 2.4430	22.9010
 2.4440	23.0780
 2.4450	23.1160
 2.4460	23.1220
 2.4470	22.9850
 2.4480	22.6990
 2.4490	22.6120
 2.4500	22.4790
 2.4510	22.4110
 2.4520	22.6240
 2.4530	22.6550
 2.4540	22.5910
 2.4550	22.4560
 2.4560	22.1350
 2.4570	22.0550
 2.4580	22.0620
 2.4590	22.1570
 2.4600	22.4160
 2.4610	22.6520
 2.4620	22.8010
 2.4630	22.7290
 2.4640	22.6750
 2.4650	22.5070
 2.4660	22.3140
 2.4670	22.3180
 2.4680	22.2770
 2.4690	22.2040
 2.4700	22.1090
 2.4710	21.9750
 2.4720	21.9890
 2.4730	22.1610
 2.4740	22.2160
 2.4750	22.2200
 2.4760	22.2900
 2.4770	22.3310
 2.4780	22.2310
 2.4790	22.2210
 2.4800	22.0910
 2.4810	21.5240
 2.4820	21.5840
 2.4830	22.0220
 2.4840	22.6370
 2.4850	23.0670
 2.4860	23.0850
 2.4870	22.7740
 2.4880	22.3620
 2.4890	22.3990
 2.4900	22.7270
 2.4910	22.7470
 2.4920	22.8200
 2.4930	22.7330
 2.4940	22.4340
 2.4950	22.5430
 2.4960	22.6860
 2.4970	22.7160
 2.4980	22.5750
 2.4990	22.5880
 2.5000	22.7920
