Name: Salvia leucophylla 3
Type: vegetation
Class: Shrub
Genus: Salvia
Species: leucophylla
Sample No.: VH095
Owner: UCSB
Wavelength Range: TIR
Origin: 34.698; -120.0477; WGS84
Collection Date: 4/21/2013
Description: Samples were collected as part of the HyspIRI Airborne Campaign. 48 individual plants were sampled in three times in 2013 - spring  summer  and fall. The name of the sample includes a 1  2  or 3 which references a different individual of the species. Samples were taken to JPL and processed within 48 hours of collection. The same leaves were processed in the Nicolet and then measured using the ASD.
Measurement: Hemispherical reflectance
First Column: X
Second Column: Y
X Units: Wavelength (micrometers)
Y Units: Reflectance (percentage)
First X Value: 2.501
Last X Value: 15.387
Number of X Values: 1737
Additional Information: vegetation.shrub.salvia.leucophylla.tir.vh095.ucsb.nicolet.ancillary.txt

 2.5010	16.0130
 2.5030	16.0450
 2.5040	16.1360
 2.5050	16.0510
 2.5060	16.0030
 2.5070	15.9950
 2.5090	16.0330
 2.5100	15.9590
 2.5110	16.0290
 2.5120	16.0050
 2.5140	15.9820
 2.5150	15.8430
 2.5160	15.9300
 2.5170	15.9070
 2.5180	15.8080
 2.5200	15.7860
 2.5210	15.9350
 2.5220	15.8100
 2.5230	15.7830
 2.5250	15.7630
 2.5260	15.7120
 2.5270	15.6910
 2.5280	15.7980
 2.5290	15.7600
 2.5310	15.7540
 2.5320	15.8880
 2.5330	15.9750
 2.5340	15.9400
 2.5360	15.9770
 2.5370	15.9430
 2.5380	15.9520
 2.5390	16.0010
 2.5410	16.1220
 2.5420	16.0310
 2.5430	15.9400
 2.5440	15.9020
 2.5460	15.9450
 2.5470	15.9390
 2.5480	16.0270
 2.5490	15.9880
 2.5510	16.0250
 2.5520	16.0500
 2.5530	16.0370
 2.5540	15.9770
 2.5560	15.9880
 2.5570	15.9610
 2.5580	15.9670
 2.5590	15.9600
 2.5610	16.0260
 2.5620	16.0220
 2.5630	16.0170
 2.5640	16.0050
 2.5660	16.0560
 2.5670	16.0730
 2.5680	16.0480
 2.5700	15.9610
 2.5710	16.0140
 2.5720	16.0130
 2.5730	16.0020
 2.5750	15.9080
 2.5760	15.9640
 2.5770	15.9980
 2.5790	16.0380
 2.5800	16.0130
 2.5810	15.9780
 2.5820	15.9300
 2.5840	16.0280
 2.5850	16.0320
 2.5860	15.9890
 2.5880	15.9160
 2.5890	15.8870
 2.5900	15.8300
 2.5910	15.9280
 2.5930	16.0210
 2.5940	16.1210
 2.5950	16.0090
 2.5970	15.8680
 2.5980	15.7380
 2.5990	15.7580
 2.6000	15.7790
 2.6020	15.7890
 2.6030	15.7130
 2.6040	15.7070
 2.6060	15.6650
 2.6070	15.6200
 2.6080	15.5650
 2.6100	15.6200
 2.6110	15.5740
 2.6120	15.6090
 2.6140	15.6630
 2.6150	15.6440
 2.6160	15.4950
 2.6180	15.4520
 2.6190	15.3680
 2.6200	15.3620
 2.6220	15.3040
 2.6230	15.2400
 2.6240	15.1050
 2.6260	15.0860
 2.6270	15.1210
 2.6280	15.1500
 2.6300	15.0880
 2.6310	15.0540
 2.6320	14.8740
 2.6340	14.8450
 2.6350	14.8910
 2.6360	14.8170
 2.6380	14.7680
 2.6390	14.8410
 2.6400	14.7120
 2.6420	14.5990
 2.6430	14.5130
 2.6440	14.5650
 2.6460	14.6110
 2.6470	14.5270
 2.6480	14.3900
 2.6500	14.3990
 2.6510	14.3470
 2.6520	14.2550
 2.6540	14.2130
 2.6550	14.2900
 2.6560	14.1080
 2.6580	14.0870
 2.6590	14.1180
 2.6610	14.0550
 2.6620	13.9390
 2.6630	13.9150
 2.6650	13.8710
 2.6660	13.9230
 2.6670	13.8750
 2.6690	13.7480
 2.6700	13.7050
 2.6720	13.6390
 2.6730	13.4460
 2.6740	13.3960
 2.6760	13.4260
 2.6770	13.4810
 2.6780	13.3560
 2.6800	13.2370
 2.6810	13.2430
 2.6830	13.2460
 2.6840	13.1110
 2.6850	13.0590
 2.6870	12.9680
 2.6880	12.9030
 2.6900	12.8050
 2.6910	12.7800
 2.6920	12.7330
 2.6940	12.7330
 2.6950	12.5740
 2.6970	12.5470
 2.6980	12.4370
 2.6990	12.3690
 2.7010	12.3310
 2.7020	12.2680
 2.7040	12.1210
 2.7050	12.1140
 2.7060	12.0460
 2.7080	12.0410
 2.7090	11.9060
 2.7110	11.8220
 2.7120	11.7670
 2.7130	11.7950
 2.7150	11.7590
 2.7160	11.6350
 2.7180	11.3900
 2.7190	11.3270
 2.7210	11.3590
 2.7220	11.2900
 2.7230	11.1140
 2.7250	11.0070
 2.7260	10.8710
 2.7280	10.8160
 2.7290	10.7170
 2.7310	10.6110
 2.7320	10.5130
 2.7330	10.5770
 2.7350	10.5140
 2.7360	10.4650
 2.7380	10.3720
 2.7390	10.3280
 2.7410	10.1330
 2.7420	10.0150
 2.7440	 9.9320
 2.7450	 9.8960
 2.7470	 9.7540
 2.7480	 9.6190
 2.7490	 9.4110
 2.7510	 9.3400
 2.7520	 9.3440
 2.7540	 9.4720
 2.7550	 9.3890
 2.7570	 9.2770
 2.7580	 9.1030
 2.7600	 9.0880
 2.7610	 9.0950
 2.7630	 9.1380
 2.7640	 9.1040
 2.7660	 8.9950
 2.7670	 8.8210
 2.7680	 8.8730
 2.7700	 8.7980
 2.7710	 8.6910
 2.7730	 8.5880
 2.7740	 8.5290
 2.7760	 8.3620
 2.7770	 8.2510
 2.7790	 8.2240
 2.7800	 8.3380
 2.7820	 8.2800
 2.7830	 8.2180
 2.7850	 8.1190
 2.7860	 8.0980
 2.7880	 8.0280
 2.7890	 8.0700
 2.7910	 8.0970
 2.7920	 8.1250
 2.7940	 7.8890
 2.7950	 7.9030
 2.7970	 7.8400
 2.7980	 7.7730
 2.8000	 7.7320
 2.8010	 7.7400
 2.8030	 7.6360
 2.8040	 7.5410
 2.8060	 7.4580
 2.8070	 7.4840
 2.8090	 7.4270
 2.8110	 7.4110
 2.8120	 7.3450
 2.8140	 7.3080
 2.8150	 7.2150
 2.8170	 7.2960
 2.8180	 7.1670
 2.8200	 7.1160
 2.8210	 7.1940
 2.8230	 7.1580
 2.8240	 6.9810
 2.8260	 6.9910
 2.8270	 7.0080
 2.8290	 7.0020
 2.8300	 6.9310
 2.8320	 7.1020
 2.8340	 6.9940
 2.8350	 6.9010
 2.8370	 6.8850
 2.8380	 6.9150
 2.8400	 6.8770
 2.8410	 6.8670
 2.8430	 6.7740
 2.8440	 6.8610
 2.8460	 6.8610
 2.8480	 6.9050
 2.8490	 6.8670
 2.8510	 6.8090
 2.8520	 6.7330
 2.8540	 6.7390
 2.8550	 6.6680
 2.8570	 6.6530
 2.8590	 6.5790
 2.8600	 6.6320
 2.8620	 6.6930
 2.8630	 6.7460
 2.8650	 6.6720
 2.8660	 6.5990
 2.8680	 6.5200
 2.8700	 6.5470
 2.8710	 6.5730
 2.8730	 6.5180
 2.8740	 6.4180
 2.8760	 6.5090
 2.8780	 6.4080
 2.8790	 6.4320
 2.8810	 6.5530
 2.8820	 6.5050
 2.8840	 6.2860
 2.8860	 6.2320
 2.8870	 6.2020
 2.8890	 6.4200
 2.8900	 6.4370
 2.8920	 6.3030
 2.8940	 6.2830
 2.8950	 6.4590
 2.8970	 6.4360
 2.8980	 6.3180
 2.9000	 6.1930
 2.9020	 6.2360
 2.9030	 6.2450
 2.9050	 6.2520
 2.9070	 6.1690
 2.9080	 6.1900
 2.9100	 6.1220
 2.9120	 6.0750
 2.9130	 6.0970
 2.9150	 6.2210
 2.9160	 6.0970
 2.9180	 6.2240
 2.9200	 6.2480
 2.9210	 6.2340
 2.9230	 6.2030
 2.9250	 6.1310
 2.9260	 6.0620
 2.9280	 6.1730
 2.9300	 6.1480
 2.9310	 6.1940
 2.9330	 6.1750
 2.9350	 6.1450
 2.9360	 6.1900
 2.9380	 6.2650
 2.9400	 6.2300
 2.9410	 6.2380
 2.9430	 6.3130
 2.9450	 6.3740
 2.9460	 6.3020
 2.9480	 6.2310
 2.9500	 6.1670
 2.9510	 6.2080
 2.9530	 6.2100
 2.9550	 6.1810
 2.9560	 6.1100
 2.9580	 6.2270
 2.9600	 6.3060
 2.9610	 6.4060
 2.9630	 6.2840
 2.9650	 6.0080
 2.9660	 6.3070
 2.9680	 6.8330
 2.9700	 6.8880
 2.9720	 6.5870
 2.9730	 6.4730
 2.9750	 6.6350
 2.9770	 6.2990
 2.9780	 5.8350
 2.9800	 5.7380
 2.9820	 6.0760
 2.9840	 6.0200
 2.9850	 5.8960
 2.9870	 5.9200
 2.9890	 6.3130
 2.9900	 6.4280
 2.9920	 6.3650
 2.9940	 6.3200
 2.9960	 6.5540
 2.9970	 6.4100
 2.9990	 6.3300
 3.0010	 6.3130
 3.0030	 6.3910
 3.0040	 6.3660
 3.0060	 6.4220
 3.0080	 6.3470
 3.0100	 6.4330
 3.0110	 6.1580
 3.0130	 6.0330
 3.0150	 6.1740
 3.0170	 6.2960
 3.0180	 6.3310
 3.0200	 6.4000
 3.0220	 6.4910
 3.0240	 6.6280
 3.0250	 6.5310
 3.0270	 6.4820
 3.0290	 6.4240
 3.0310	 6.5670
 3.0320	 6.5840
 3.0340	 6.5100
 3.0360	 6.6160
 3.0380	 6.7100
 3.0400	 6.7570
 3.0410	 6.9280
 3.0430	 6.8830
 3.0450	 6.9240
 3.0470	 6.5230
 3.0480	 6.5390
 3.0500	 7.2280
 3.0520	 7.5410
 3.0540	 7.1270
 3.0560	 7.0050
 3.0570	 6.7870
 3.0590	 6.5030
 3.0610	 6.3750
 3.0630	 6.6730
 3.0650	 6.6870
 3.0660	 6.5660
 3.0680	 6.5800
 3.0700	 6.7230
 3.0720	 6.7680
 3.0740	 6.8110
 3.0760	 6.7600
 3.0770	 6.9090
 3.0790	 6.9250
 3.0810	 6.9020
 3.0830	 6.9080
 3.0850	 6.8580
 3.0870	 6.7890
 3.0880	 7.0150
 3.0900	 7.0120
 3.0920	 6.9700
 3.0940	 7.0100
 3.0960	 7.1260
 3.0980	 7.0590
 3.0990	 7.0570
 3.1010	 7.1100
 3.1030	 7.1780
 3.1050	 7.1310
 3.1070	 7.2560
 3.1090	 7.1530
 3.1110	 7.0710
 3.1120	 7.0520
 3.1140	 7.1830
 3.1160	 7.1790
 3.1180	 7.1590
 3.1200	 7.1970
 3.1220	 7.3130
 3.1240	 7.2650
 3.1260	 7.2340
 3.1270	 7.2370
 3.1290	 7.3270
 3.1310	 7.3220
 3.1330	 7.3310
 3.1350	 7.3300
 3.1370	 7.4870
 3.1390	 7.5470
 3.1410	 7.5810
 3.1430	 7.3440
 3.1450	 7.2790
 3.1460	 7.1660
 3.1480	 7.1440
 3.1500	 7.4860
 3.1520	 7.7390
 3.1540	 7.7790
 3.1560	 7.6620
 3.1580	 7.6430
 3.1600	 7.4230
 3.1620	 7.4110
 3.1640	 8.0440
 3.1660	 8.3150
 3.1680	 8.2790
 3.1700	 8.1540
 3.1710	 8.1350
 3.1730	 7.7160
 3.1750	 7.7820
 3.1770	 7.6500
 3.1790	 7.6940
 3.1810	 7.8320
 3.1830	 8.0440
 3.1850	 8.3170
 3.1870	 7.8890
 3.1890	 7.4070
 3.1910	 7.3890
 3.1930	 7.5730
 3.1950	 7.8380
 3.1970	 7.7400
 3.1990	 7.6890
 3.2010	 7.7130
 3.2030	 7.7550
 3.2050	 7.8540
 3.2070	 7.9100
 3.2090	 7.8780
 3.2110	 7.9300
 3.2130	 7.8820
 3.2150	 7.9070
 3.2170	 7.9470
 3.2190	 7.9240
 3.2210	 7.8760
 3.2230	 7.8400
 3.2250	 7.7820
 3.2270	 7.8220
 3.2290	 7.7870
 3.2310	 7.8020
 3.2330	 7.8400
 3.2350	 7.9620
 3.2370	 8.0240
 3.2390	 7.9690
 3.2410	 7.8640
 3.2430	 7.8880
 3.2450	 7.8510
 3.2470	 7.9180
 3.2490	 7.8800
 3.2510	 7.9520
 3.2530	 7.9990
 3.2550	 7.9290
 3.2570	 7.9120
 3.2590	 8.0170
 3.2610	 7.9250
 3.2630	 7.9440
 3.2650	 7.9750
 3.2670	 8.0840
 3.2690	 8.0560
 3.2720	 7.9720
 3.2740	 7.9670
 3.2760	 7.9970
 3.2780	 7.8960
 3.2800	 7.9280
 3.2820	 7.9740
 3.2840	 7.9910
 3.2860	 7.8620
 3.2880	 7.8220
 3.2900	 7.8460
 3.2920	 7.8870
 3.2940	 7.8320
 3.2960	 7.9160
 3.2990	 7.8640
 3.3010	 7.7630
 3.3030	 7.8220
 3.3050	 7.8670
 3.3070	 7.7840
 3.3090	 7.7760
 3.3110	 7.7270
 3.3130	 7.7240
 3.3150	 7.6790
 3.3180	 7.6680
 3.3200	 7.5820
 3.3220	 7.5470
 3.3240	 7.4340
 3.3260	 7.3730
 3.3280	 7.3250
 3.3300	 7.2550
 3.3330	 7.0880
 3.3350	 7.0570
 3.3370	 7.0140
 3.3390	 6.9090
 3.3410	 6.8240
 3.3430	 6.7940
 3.3450	 6.7410
 3.3480	 6.7560
 3.3500	 6.6270
 3.3520	 6.5380
 3.3540	 6.4570
 3.3560	 6.4640
 3.3580	 6.3700
 3.3610	 6.3840
 3.3630	 6.2460
 3.3650	 6.0850
 3.3670	 5.9860
 3.3690	 6.0380
 3.3720	 5.9880
 3.3740	 5.9760
 3.3760	 5.9050
 3.3780	 5.8610
 3.3800	 5.8060
 3.3830	 5.7770
 3.3850	 5.6600
 3.3870	 5.5430
 3.3890	 5.5180
 3.3910	 5.6390
 3.3940	 5.6280
 3.3960	 5.4860
 3.3980	 5.3100
 3.4000	 5.2670
 3.4020	 5.2070
 3.4050	 5.2240
 3.4070	 5.2500
 3.4090	 5.3610
 3.4110	 5.4150
 3.4140	 5.4000
 3.4160	 5.3900
 3.4180	 5.4890
 3.4200	 5.5970
 3.4230	 5.7110
 3.4250	 5.8400
 3.4270	 6.0340
 3.4290	 6.0570
 3.4320	 6.0970
 3.4340	 6.0880
 3.4360	 6.0650
 3.4390	 6.0110
 3.4410	 6.1110
 3.4430	 6.1350
 3.4450	 6.1800
 3.4480	 6.1920
 3.4500	 6.1830
 3.4520	 6.2890
 3.4550	 6.5050
 3.4570	 6.5270
 3.4590	 6.5580
 3.4620	 6.5580
 3.4640	 6.5330
 3.4660	 6.6090
 3.4680	 6.7030
 3.4710	 6.6800
 3.4730	 6.6810
 3.4750	 6.6000
 3.4780	 6.5880
 3.4800	 6.5350
 3.4820	 6.4950
 3.4850	 6.4750
 3.4870	 6.4490
 3.4890	 6.3130
 3.4920	 6.2290
 3.4940	 6.1640
 3.4970	 6.2120
 3.4990	 6.1380
 3.5010	 6.1440
 3.5040	 6.2300
 3.5060	 6.3440
 3.5080	 6.4200
 3.5110	 6.5790
 3.5130	 6.8180
 3.5160	 7.1290
 3.5180	 7.3170
 3.5200	 7.4280
 3.5230	 7.5150
 3.5250	 7.7100
 3.5270	 7.8250
 3.5300	 7.9290
 3.5320	 8.0490
 3.5350	 8.1820
 3.5370	 8.2070
 3.5400	 8.3050
 3.5420	 8.4320
 3.5440	 8.5420
 3.5470	 8.5760
 3.5490	 8.6530
 3.5520	 8.6880
 3.5540	 8.7120
 3.5570	 8.7460
 3.5590	 8.8300
 3.5610	 8.8750
 3.5640	 8.9450
 3.5660	 8.8990
 3.5690	 8.9040
 3.5710	 9.0490
 3.5740	 9.1590
 3.5760	 9.1320
 3.5790	 9.1100
 3.5810	 9.1060
 3.5840	 9.1470
 3.5860	 9.1770
 3.5890	 9.2250
 3.5910	 9.2130
 3.5930	 9.2810
 3.5960	 9.3680
 3.5980	 9.3770
 3.6010	 9.3400
 3.6030	 9.3930
 3.6060	 9.4310
 3.6080	 9.5120
 3.6110	 9.5160
 3.6140	 9.6130
 3.6160	 9.6170
 3.6190	 9.6160
 3.6210	 9.5920
 3.6240	 9.5740
 3.6260	 9.5240
 3.6290	 9.6080
 3.6310	 9.5840
 3.6340	 9.5930
 3.6360	 9.6090
 3.6390	 9.6100
 3.6410	 9.5920
 3.6440	 9.6260
 3.6470	 9.6480
 3.6490	 9.6220
 3.6520	 9.6520
 3.6540	 9.6990
 3.6570	 9.6570
 3.6590	 9.6810
 3.6620	 9.6770
 3.6650	 9.6420
 3.6670	 9.6020
 3.6700	 9.6420
 3.6720	 9.6390
 3.6750	 9.6760
 3.6780	 9.7250
 3.6800	 9.7380
 3.6830	 9.6350
 3.6850	 9.6480
 3.6880	 9.7100
 3.6910	 9.7420
 3.6930	 9.7290
 3.6960	 9.7450
 3.6990	 9.7780
 3.7010	 9.8430
 3.7040	 9.8020
 3.7060	 9.7770
 3.7090	 9.7620
 3.7120	 9.7880
 3.7140	 9.7800
 3.7170	 9.7170
 3.7200	 9.7430
 3.7220	 9.8070
 3.7250	 9.7750
 3.7280	 9.7430
 3.7300	 9.7770
 3.7330	 9.8830
 3.7360	 9.9610
 3.7390	 9.9750
 3.7410	 9.8550
 3.7440	 9.8750
 3.7470	 9.8860
 3.7490	 9.9070
 3.7520	 9.9890
 3.7550	 9.9980
 3.7580	 9.9440
 3.7600	 9.9650
 3.7630	 9.9260
 3.7660	 9.9530
 3.7680	 9.9610
 3.7710	 9.9730
 3.7740	 9.9790
 3.7770	 9.9950
 3.7790	10.0260
 3.7820	10.0970
 3.7850	10.1010
 3.7880	10.0350
 3.7900	10.0210
 3.7930	10.1080
 3.7960	10.1360
 3.7990	10.1100
 3.8020	10.0810
 3.8040	10.1250
 3.8070	10.1250
 3.8100	10.1770
 3.8130	10.1980
 3.8160	10.2020
 3.8180	10.1920
 3.8210	10.2730
 3.8240	10.3300
 3.8270	10.3400
 3.8300	10.3040
 3.8330	10.2410
 3.8350	10.1510
 3.8380	10.1640
 3.8410	10.2300
 3.8440	10.3050
 3.8470	10.2900
 3.8500	10.3430
 3.8520	10.4170
 3.8550	10.4040
 3.8580	10.3870
 3.8610	10.3840
 3.8640	10.3460
 3.8670	10.3850
 3.8700	10.4670
 3.8730	10.5260
 3.8750	10.5260
 3.8780	10.5630
 3.8810	10.5380
 3.8840	10.5760
 3.8870	10.5920
 3.8900	10.6550
 3.8930	10.6840
 3.8960	10.6590
 3.8990	10.6180
 3.9020	10.6330
 3.9050	10.6650
 3.9080	10.6850
 3.9110	10.6460
 3.9140	10.7000
 3.9160	10.7730
 3.9190	10.8070
 3.9220	10.7870
 3.9250	10.8250
 3.9280	10.8280
 3.9310	10.8230
 3.9340	10.7480
 3.9370	10.7620
 3.9400	10.8100
 3.9430	10.8460
 3.9460	10.8470
 3.9490	10.8760
 3.9520	10.9250
 3.9550	10.9660
 3.9580	10.9590
 3.9610	10.9860
 3.9640	10.9880
 3.9670	11.0210
 3.9700	11.0410
 3.9730	11.0820
 3.9770	11.1110
 3.9800	11.1060
 3.9830	11.0790
 3.9860	11.1490
 3.9890	11.1700
 3.9920	11.2130
 3.9950	11.2340
 3.9980	11.2690
 4.0010	11.2230
 4.0040	11.2260
 4.0070	11.2700
 4.0100	11.3010
 4.0130	11.3350
 4.0170	11.3830
 4.0200	11.3480
 4.0230	11.3550
 4.0260	11.3620
 4.0290	11.4000
 4.0320	11.3910
 4.0350	11.4450
 4.0380	11.4980
 4.0420	11.5030
 4.0450	11.5410
 4.0480	11.5800
 4.0510	11.5080
 4.0540	11.5150
 4.0570	11.6040
 4.0610	11.6670
 4.0640	11.6950
 4.0670	11.7320
 4.0700	11.7100
 4.0730	11.6860
 4.0770	11.7190
 4.0800	11.7690
 4.0830	11.7430
 4.0860	11.7630
 4.0890	11.7830
 4.0930	11.8190
 4.0960	11.8240
 4.0990	11.8240
 4.1020	11.8480
 4.1060	11.8910
 4.1090	11.8800
 4.1120	11.8920
 4.1150	11.8550
 4.1190	11.8220
 4.1220	11.8860
 4.1250	11.9320
 4.1280	11.9060
 4.1320	11.9130
 4.1350	11.9550
 4.1380	12.0060
 4.1420	11.9920
 4.1450	11.9970
 4.1480	12.0240
 4.1520	12.0590
 4.1550	12.0820
 4.1580	12.0870
 4.1620	12.0680
 4.1650	12.0680
 4.1680	12.0910
 4.1720	12.1100
 4.1750	12.0370
 4.1780	12.0390
 4.1820	12.0300
 4.1850	12.0690
 4.1890	12.0680
 4.1920	12.0750
 4.1950	12.0500
 4.1990	11.9790
 4.2020	11.8760
 4.2060	11.7900
 4.2090	11.7270
 4.2120	11.6450
 4.2160	11.5550
 4.2190	11.4950
 4.2230	11.3820
 4.2260	11.2970
 4.2300	11.2620
 4.2330	11.0440
 4.2360	10.7840
 4.2400	10.9430
 4.2430	11.1740
 4.2470	11.4590
 4.2500	11.5210
 4.2540	11.4810
 4.2570	11.5950
 4.2610	11.6870
 4.2640	11.5710
 4.2680	11.3720
 4.2710	11.2970
 4.2750	11.4350
 4.2780	11.5590
 4.2820	11.6140
 4.2850	11.4740
 4.2890	11.3640
 4.2930	11.3710
 4.2960	11.3870
 4.3000	11.4430
 4.3030	11.5580
 4.3070	11.5510
 4.3100	11.5530
 4.3140	11.6070
 4.3180	11.7290
 4.3210	11.7700
 4.3250	11.8600
 4.3280	11.9000
 4.3320	11.9460
 4.3360	12.0030
 4.3390	12.0020
 4.3430	11.9630
 4.3470	11.9820
 4.3500	12.0210
 4.3540	12.0590
 4.3570	12.0550
 4.3610	12.0610
 4.3650	12.0120
 4.3680	12.0540
 4.3720	12.1390
 4.3760	12.2170
 4.3800	12.1980
 4.3830	12.1700
 4.3870	12.1670
 4.3910	12.2020
 4.3940	12.2460
 4.3980	12.2350
 4.4020	12.1230
 4.4060	12.0810
 4.4090	12.0810
 4.4130	12.0880
 4.4170	12.1000
 4.4210	12.1140
 4.4240	12.1570
 4.4280	12.2030
 4.4320	12.1810
 4.4360	12.1080
 4.4400	12.0630
 4.4430	12.0960
 4.4470	12.1910
 4.4510	12.2170
 4.4550	12.1310
 4.4590	12.0800
 4.4620	12.0910
 4.4660	12.0720
 4.4700	12.0670
 4.4740	12.0530
 4.4780	12.0530
 4.4820	12.0590
 4.4860	12.0640
 4.4900	12.0910
 4.4930	12.0730
 4.4970	12.0710
 4.5010	12.0520
 4.5050	12.0260
 4.5090	12.0000
 4.5130	12.0060
 4.5170	12.0050
 4.5210	12.0480
 4.5250	12.0790
 4.5290	12.0680
 4.5330	12.0180
 4.5370	11.9790
 4.5410	11.9470
 4.5450	11.9100
 4.5490	11.9270
 4.5530	11.9870
 4.5570	11.9850
 4.5610	11.9820
 4.5650	12.0100
 4.5690	12.0340
 4.5730	12.0310
 4.5770	12.0450
 4.5810	12.0040
 4.5850	11.9190
 4.5890	11.8470
 4.5930	11.8350
 4.5970	11.9090
 4.6010	11.9260
 4.6050	11.9010
 4.6090	11.9390
 4.6130	11.9980
 4.6170	11.9280
 4.6220	11.8920
 4.6260	11.9310
 4.6300	11.8970
 4.6340	11.8630
 4.6380	11.8510
 4.6420	11.8730
 4.6460	11.8900
 4.6510	11.9000
 4.6550	11.8530
 4.6590	11.8390
 4.6630	11.8370
 4.6670	11.8470
 4.6720	11.8820
 4.6760	11.8960
 4.6800	11.9260
 4.6840	11.9490
 4.6880	11.9260
 4.6930	11.9060
 4.6970	11.9020
 4.7010	11.8630
 4.7050	11.8460
 4.7100	11.8880
 4.7140	11.8900
 4.7180	11.9200
 4.7230	11.9720
 4.7270	11.9760
 4.7310	11.9340
 4.7360	11.9640
 4.7400	11.9960
 4.7440	11.9510
 4.7490	11.9150
 4.7530	11.9300
 4.7570	11.9780
 4.7620	11.9430
 4.7660	11.9040
 4.7700	11.8950
 4.7750	11.9640
 4.7790	12.0450
 4.7840	12.0350
 4.7880	11.9440
 4.7920	11.9110
 4.7970	12.0770
 4.8010	12.1810
 4.8060	12.0620
 4.8100	12.0420
 4.8150	12.0480
 4.8190	12.0430
 4.8240	12.0590
 4.8280	12.0760
 4.8330	12.0850
 4.8370	12.0780
 4.8420	12.0810
 4.8460	12.0990
 4.8510	12.0990
 4.8550	12.0700
 4.8600	12.0190
 4.8640	12.0500
 4.8690	12.0850
 4.8730	12.0960
 4.8780	12.1210
 4.8830	12.1550
 4.8870	12.1640
 4.8920	12.1550
 4.8960	12.1060
 4.9010	12.1240
 4.9060	12.1200
 4.9100	12.1380
 4.9150	12.2000
 4.9200	12.2040
 4.9240	12.1610
 4.9290	12.2160
 4.9340	12.2510
 4.9380	12.2780
 4.9430	12.2980
 4.9480	12.2790
 4.9530	12.2500
 4.9570	12.2820
 4.9620	12.2510
 4.9670	12.2320
 4.9720	12.2480
 4.9760	12.3160
 4.9810	12.3390
 4.9860	12.3320
 4.9910	12.3160
 4.9960	12.3300
 5.0000	12.3200
 5.0050	12.3120
 5.0100	12.3710
 5.0150	12.4010
 5.0200	12.4450
 5.0250	12.5000
 5.0290	12.4870
 5.0340	12.4630
 5.0390	12.4400
 5.0440	12.4310
 5.0490	12.4210
 5.0540	12.4360
 5.0590	12.4450
 5.0640	12.4440
 5.0690	12.4650
 5.0740	12.4810
 5.0790	12.4530
 5.0840	12.4880
 5.0890	12.5070
 5.0940	12.5100
 5.0990	12.5320
 5.1040	12.4950
 5.1090	12.4800
 5.1140	12.5200
 5.1190	12.5070
 5.1240	12.5220
 5.1290	12.5320
 5.1340	12.5170
 5.1390	12.4820
 5.1440	12.5530
 5.1490	12.6200
 5.1540	12.5790
 5.1600	12.5280
 5.1650	12.5380
 5.1700	12.5540
 5.1750	12.5680
 5.1800	12.5170
 5.1850	12.5370
 5.1910	12.5490
 5.1960	12.5480
 5.2010	12.5500
 5.2060	12.5700
 5.2110	12.5720
 5.2170	12.5630
 5.2220	12.5350
 5.2270	12.5850
 5.2320	12.5590
 5.2380	12.5110
 5.2430	12.4900
 5.2480	12.4390
 5.2540	12.4150
 5.2590	12.4540
 5.2640	12.4920
 5.2700	12.5340
 5.2750	12.5100
 5.2800	12.5040
 5.2860	12.4750
 5.2910	12.4790
 5.2970	12.4610
 5.3020	12.4550
 5.3070	12.4100
 5.3130	12.4110
 5.3180	12.4550
 5.3240	12.4860
 5.3290	12.4020
 5.3350	12.3310
 5.3400	12.3040
 5.3460	12.3540
 5.3510	12.4000
 5.3570	12.4460
 5.3620	12.3730
 5.3680	12.3170
 5.3730	12.2720
 5.3790	12.2930
 5.3850	12.2750
 5.3900	12.2680
 5.3960	12.2310
 5.4010	12.1660
 5.4070	12.1270
 5.4130	12.1670
 5.4180	12.1550
 5.4240	12.1220
 5.4300	12.0780
 5.4350	12.0510
 5.4410	11.9980
 5.4470	12.0230
 5.4530	12.0630
 5.4580	12.0460
 5.4640	11.9650
 5.4700	11.9410
 5.4760	11.8820
 5.4810	11.8510
 5.4870	11.8320
 5.4930	11.8470
 5.4990	11.7760
 5.5050	11.6950
 5.5110	11.6880
 5.5160	11.7090
 5.5220	11.6150
 5.5280	11.5120
 5.5340	11.4270
 5.5400	11.4090
 5.5460	11.3600
 5.5520	11.3470
 5.5580	11.2590
 5.5640	11.1510
 5.5700	11.0600
 5.5760	10.9740
 5.5820	10.8510
 5.5880	10.7780
 5.5940	10.6430
 5.6000	10.5220
 5.6060	10.4000
 5.6120	10.3170
 5.6180	10.2090
 5.6240	10.0700
 5.6300	 9.8600
 5.6360	 9.7450
 5.6420	 9.7280
 5.6490	 9.6390
 5.6550	 9.4400
 5.6610	 9.2890
 5.6670	 9.0590
 5.6730	 8.8450
 5.6800	 8.6050
 5.6860	 8.3620
 5.6920	 8.0870
 5.6980	 7.8540
 5.7040	 7.6110
 5.7110	 7.3840
 5.7170	 7.0720
 5.7230	 6.7940
 5.7300	 6.5260
 5.7360	 6.3210
 5.7420	 6.1460
 5.7490	 6.0630
 5.7550	 5.9280
 5.7620	 5.9950
 5.7680	 6.1080
 5.7740	 6.1760
 5.7810	 6.2470
 5.7870	 6.4070
 5.7940	 6.5210
 5.8000	 6.6540
 5.8070	 6.6930
 5.8130	 6.7500
 5.8200	 6.8220
 5.8260	 6.9250
 5.8330	 7.0250
 5.8390	 7.0820
 5.8460	 7.0420
 5.8530	 7.1190
 5.8590	 7.1930
 5.8660	 7.2440
 5.8720	 7.2090
 5.8790	 7.2270
 5.8860	 7.1350
 5.8920	 7.0500
 5.8990	 6.9340
 5.9060	 6.8860
 5.9130	 6.8090
 5.9190	 6.8120
 5.9260	 6.8920
 5.9330	 7.1220
 5.9400	 7.3370
 5.9470	 7.5880
 5.9530	 7.8190
 5.9600	 8.0700
 5.9670	 8.2400
 5.9740	 8.3740
 5.9810	 8.4400
 5.9880	 8.5600
 5.9950	 8.6260
 6.0020	 8.6320
 6.0090	 8.5610
 6.0160	 8.5390
 6.0230	 8.4120
 6.0300	 8.4190
 6.0370	 8.4220
 6.0440	 8.4550
 6.0510	 8.4780
 6.0580	 8.5340
 6.0650	 8.4650
 6.0720	 8.4460
 6.0790	 8.3630
 6.0860	 8.3850
 6.0930	 8.4060
 6.1000	 8.4560
 6.1080	 8.5190
 6.1150	 8.6020
 6.1220	 8.5760
 6.1290	 8.6150
 6.1370	 8.6140
 6.1440	 8.6660
 6.1510	 8.6540
 6.1580	 8.7120
 6.1660	 8.7090
 6.1730	 8.6140
 6.1800	 8.5490
 6.1880	 8.5640
 6.1950	 8.5340
 6.2030	 8.5270
 6.2100	 8.3990
 6.2170	 8.3920
 6.2250	 8.3720
 6.2320	 8.4910
 6.2400	 8.5200
 6.2470	 8.5810
 6.2550	 8.6990
 6.2630	 8.8740
 6.2700	 8.9310
 6.2780	 9.0810
 6.2850	 9.1240
 6.2930	 9.2450
 6.3010	 9.3200
 6.3080	 9.4330
 6.3160	 9.4090
 6.3240	 9.4970
 6.3310	 9.6320
 6.3390	 9.7860
 6.3470	 9.8140
 6.3550	 9.8980
 6.3620	 9.8880
 6.3700	 9.9000
 6.3780	 9.9260
 6.3860	 9.9910
 6.3940	 9.9810
 6.4020	10.0880
 6.4100	10.2160
 6.4180	10.3210
 6.4260	10.2330
 6.4330	10.2040
 6.4410	10.1660
 6.4490	10.1880
 6.4580	10.1830
 6.4660	10.2540
 6.4740	10.2150
 6.4820	10.2440
 6.4900	10.2330
 6.4980	10.3160
 6.5060	10.2700
 6.5140	10.2830
 6.5230	10.2040
 6.5310	10.1860
 6.5390	10.1710
 6.5470	10.2090
 6.5550	10.1700
 6.5640	10.1170
 6.5720	 9.9630
 6.5800	 9.9230
 6.5890	 9.8520
 6.5970	 9.8010
 6.6060	 9.7460
 6.6140	 9.8300
 6.6220	 9.8610
 6.6310	 9.9420
 6.6390	 9.9400
 6.6480	 9.9320
 6.6560	 9.8990
 6.6650	 9.9840
 6.6740	 9.9220
 6.6820	 9.9270
 6.6910	 9.8280
 6.6990	 9.8050
 6.7080	 9.6580
 6.7170	 9.5440
 6.7260	 9.4320
 6.7340	 9.3420
 6.7430	 9.1250
 6.7520	 8.9250
 6.7610	 8.7020
 6.7690	 8.5420
 6.7780	 8.2690
 6.7870	 7.9990
 6.7960	 7.7270
 6.8050	 7.5240
 6.8140	 7.2810
 6.8230	 7.2340
 6.8320	 7.1830
 6.8410	 7.2580
 6.8500	 7.2050
 6.8590	 7.3160
 6.8680	 7.4510
 6.8770	 7.5540
 6.8860	 7.5400
 6.8950	 7.6370
 6.9050	 7.6840
 6.9140	 7.7680
 6.9230	 7.7170
 6.9320	 7.8000
 6.9420	 7.8250
 6.9510	 7.8790
 6.9600	 7.8490
 6.9700	 7.8280
 6.9790	 7.7510
 6.9880	 7.8150
 6.9980	 7.8030
 7.0070	 7.9180
 7.0170	 7.9100
 7.0260	 7.9240
 7.0360	 7.9060
 7.0450	 7.9070
 7.0550	 7.8300
 7.0650	 7.9420
 7.0740	 7.9250
 7.0840	 8.0060
 7.0940	 8.0690
 7.1030	 8.1390
 7.1130	 8.0570
 7.1230	 8.2160
 7.1330	 8.2180
 7.1420	 8.1960
 7.1520	 8.1180
 7.1620	 8.0600
 7.1720	 7.8680
 7.1820	 7.8090
 7.1920	 7.6560
 7.2020	 7.5730
 7.2120	 7.5010
 7.2220	 7.6060
 7.2320	 7.5840
 7.2420	 7.6540
 7.2520	 7.5320
 7.2620	 7.4800
 7.2730	 7.4670
 7.2830	 7.5390
 7.2930	 7.4390
 7.3030	 7.4050
 7.3140	 7.3920
 7.3240	 7.5270
 7.3340	 7.5070
 7.3450	 7.6140
 7.3550	 7.5700
 7.3660	 7.5770
 7.3760	 7.5510
 7.3870	 7.6600
 7.3970	 7.6780
 7.4080	 7.8100
 7.4180	 7.8060
 7.4290	 7.8400
 7.4400	 7.7750
 7.4500	 7.8180
 7.4610	 7.7400
 7.4720	 7.7080
 7.4830	 7.5900
 7.4930	 7.5920
 7.5040	 7.5080
 7.5150	 7.4890
 7.5260	 7.3720
 7.5370	 7.4820
 7.5480	 7.4410
 7.5590	 7.3460
 7.5700	 7.2460
 7.5810	 7.2930
 7.5920	 7.2170
 7.6030	 7.3070
 7.6140	 7.2460
 7.6260	 7.2820
 7.6370	 7.3290
 7.6480	 7.4860
 7.6590	 7.4570
 7.6710	 7.4650
 7.6820	 7.3940
 7.6930	 7.4660
 7.7050	 7.4240
 7.7160	 7.4750
 7.7280	 7.4090
 7.7390	 7.4160
 7.7510	 7.2760
 7.7630	 7.2970
 7.7740	 7.2270
 7.7860	 7.2520
 7.7980	 7.1360
 7.8090	 7.1320
 7.8210	 7.0570
 7.8330	 7.1660
 7.8450	 7.1790
 7.8570	 7.2380
 7.8690	 7.1280
 7.8810	 7.2050
 7.8930	 7.1420
 7.9050	 7.1640
 7.9170	 7.1280
 7.9290	 7.1670
 7.9410	 7.0630
 7.9530	 7.1000
 7.9650	 7.0650
 7.9780	 7.0300
 7.9900	 6.9120
 8.0020	 7.0220
 8.0150	 6.9860
 8.0270	 7.0320
 8.0390	 6.9950
 8.0520	 7.0100
 8.0640	 6.9160
 8.0770	 7.0440
 8.0900	 7.0200
 8.1020	 7.2010
 8.1150	 7.1900
 8.1280	 7.3270
 8.1400	 7.2810
 8.1530	 7.4370
 8.1660	 7.4370
 8.1790	 7.5260
 8.1920	 7.4040
 8.2050	 7.4240
 8.2180	 7.3750
 8.2310	 7.4890
 8.2440	 7.4370
 8.2570	 7.5460
 8.2700	 7.3630
 8.2830	 7.3450
 8.2970	 7.2280
 8.3100	 7.3110
 8.3230	 7.1850
 8.3370	 7.2250
 8.3500	 7.1840
 8.3640	 7.2330
 8.3770	 7.1520
 8.3910	 7.1980
 8.4040	 7.1350
 8.4180	 7.2190
 8.4320	 7.1550
 8.4450	 7.2330
 8.4590	 7.0720
 8.4730	 7.1800
 8.4870	 7.1310
 8.5010	 7.1110
 8.5150	 7.0030
 8.5290	 7.0780
 8.5430	 6.9530
 8.5570	 6.9160
 8.5710	 6.7770
 8.5850	 6.8850
 8.5990	 6.8760
 8.6140	 6.9920
 8.6280	 6.9510
 8.6420	 7.0980
 8.6570	 6.9900
 8.6710	 7.1980
 8.6860	 7.2280
 8.7000	 7.3510
 8.7150	 7.2350
 8.7300	 7.3760
 8.7440	 7.3050
 8.7590	 7.3710
 8.7740	 7.3600
 8.7890	 7.4440
 8.8040	 7.2510
 8.8190	 7.3930
 8.8340	 7.4240
 8.8490	 7.4800
 8.8640	 7.1850
 8.8790	 7.0800
 8.8940	 6.8180
 8.9100	 6.9140
 8.9250	 6.8190
 8.9400	 6.7560
 8.9560	 6.5480
 8.9710	 6.5870
 8.9870	 6.4450
 9.0020	 6.5450
 9.0180	 6.3850
 9.0340	 6.4560
 9.0500	 6.4250
 9.0650	 6.5600
 9.0810	 6.3910
 9.0970	 6.4770
 9.1130	 6.3950
 9.1290	 6.4890
 9.1450	 6.4710
 9.1610	 6.6480
 9.1780	 6.5820
 9.1940	 6.6380
 9.2100	 6.5270
 9.2270	 6.5680
 9.2430	 6.4650
 9.2600	 6.5040
 9.2760	 6.2320
 9.2930	 6.2340
 9.3090	 6.0810
 9.3260	 6.1890
 9.3430	 6.0900
 9.3600	 6.1230
 9.3770	 5.9720
 9.3940	 6.1900
 9.4110	 6.0010
 9.4280	 6.0630
 9.4450	 6.0280
 9.4620	 6.1460
 9.4800	 6.0510
 9.4970	 6.1120
 9.5140	 6.0400
 9.5320	 6.2390
 9.5500	 6.2080
 9.5670	 6.4590
 9.5850	 6.3060
 9.6030	 6.4250
 9.6200	 6.3380
 9.6380	 6.4790
 9.6560	 6.4350
 9.6740	 6.5330
 9.6920	 6.3680
 9.7100	 6.4740
 9.7290	 6.4510
 9.7470	 6.6380
 9.7650	 6.7140
 9.7840	 6.9420
 9.8020	 6.8670
 9.8210	 6.8630
 9.8390	 6.7450
 9.8580	 7.0520
 9.8770	 7.0480
 9.8960	 7.1580
 9.9150	 7.1210
 9.9340	 7.2800
 9.9530	 7.1980
 9.9720	 7.3680
 9.9910	 7.2910
10.0100	 7.4070
10.0300	 7.3770
10.0490	 7.6290
10.0690	 7.6110
10.0880	 7.9430
10.1080	 8.0460
10.1280	 8.1460
10.1480	 8.0780
10.1670	 8.3320
10.1870	 8.2570
10.2070	 8.3590
10.2280	 8.2810
10.2480	 8.4370
10.2680	 8.3730
10.2890	 8.5150
10.3090	 8.3580
10.3300	 8.4010
10.3500	 8.2790
10.3710	 8.3750
10.3920	 8.2450
10.4120	 8.4060
10.4330	 8.3760
10.4540	 8.4980
10.4760	 8.5860
10.4970	 8.8170
10.5180	 8.6350
10.5390	 8.7140
10.5610	 8.7890
10.5820	 9.1160
10.6040	 8.9890
10.6260	 9.0780
10.6480	 8.9890
10.6700	 9.1970
10.6920	 9.2060
10.7140	 9.3600
10.7360	 9.2160
10.7580	 9.2630
10.7800	 9.0890
10.8030	 9.2030
10.8250	 9.1030
10.8480	 9.2610
10.8710	 9.1830
10.8940	 9.2790
10.9170	 8.9920
10.9400	 8.9630
10.9630	 8.8750
10.9860	 9.0300
11.0090	 8.9590
11.0330	 8.9900
11.0560	 8.8440
11.0800	 9.1070
11.1040	 8.8920
11.1270	 8.8620
11.1510	 8.6390
11.1750	 8.7960
11.2000	 8.6920
11.2240	 8.7210
11.2480	 8.4610
11.2730	 8.6270
11.2970	 8.8900
11.3220	 9.1600
11.3470	 8.8750
11.3720	 8.9180
11.3970	 8.8610
11.4220	 9.1400
11.4470	 8.9930
11.4720	 9.0600
11.4980	 8.9140
11.5230	 9.0070
11.5490	 8.7650
11.5750	 8.7820
11.6000	 8.6270
11.6260	 8.7920
11.6530	 8.6220
11.6790	 8.6950
11.7050	 8.4680
11.7320	 8.6700
11.7580	 8.5720
11.7850	 8.6620
11.8120	 8.4380
11.8390	 8.6300
11.8660	 8.3390
11.8930	 8.3320
11.9200	 8.2720
11.9480	 8.4210
11.9760	 8.2630
12.0030	 8.2730
12.0310	 8.0320
12.0590	 8.1910
12.0870	 8.0650
12.1150	 8.2700
12.1440	 7.9360
12.1720	 7.9020
12.2010	 7.7050
12.2300	 7.7660
12.2590	 7.6590
12.2880	 7.9330
12.3170	 7.7480
12.3460	 7.9870
12.3760	 7.7960
12.4050	 7.9110
12.4350	 7.7550
12.4650	 7.8270
12.4950	 7.5930
12.5250	 7.7400
12.5550	 7.4450
12.5860	 7.5670
12.6170	 7.3300
12.6470	 7.5530
12.6780	 7.4840
12.7090	 7.6350
12.7410	 7.3970
12.7720	 7.5880
12.8030	 7.3570
12.8350	 7.4790
12.8670	 7.2450
12.8990	 7.3550
12.9310	 7.0660
12.9640	 7.1870
12.9960	 6.9930
13.0290	 7.3630
13.0610	 7.0890
13.0940	 7.1240
13.1280	 6.9200
13.1610	 7.1020
13.1940	 6.8960
13.2280	 7.1430
13.2620	 6.9790
13.2960	 7.2570
13.3300	 6.9680
13.3640	 7.0650
13.3990	 6.6570
13.4340	 6.8400
13.4690	 6.6340
13.5040	 6.9780
13.5390	 6.7080
13.5740	 6.7530
13.6100	 6.4870
13.6460	 6.8050
13.6820	 6.5010
13.7180	 6.4760
13.7540	 6.0400
13.7910	 6.3750
13.8280	 6.3590
13.8650	 6.6640
13.9020	 6.4150
13.9390	 6.5740
13.9770	 6.2800
14.0150	 6.8100
14.0530	 6.6610
14.0910	 6.8740
14.1290	 6.4800
14.1680	 6.7940
14.2070	 6.4230
14.2460	 6.6730
14.2850	 6.2470
14.3240	 6.3130
14.3640	 5.9800
14.4040	 6.2030
14.4440	 6.0110
14.4840	 6.5890
14.5250	 6.1610
14.5660	 6.3100
14.6070	 5.7040
14.6480	 6.1050
14.6900	 5.8070
14.7310	 6.0810
14.7730	 5.8110
14.8150	 6.4590
14.8580	 5.9460
14.9010	 6.3120
14.9440	 5.0760
14.9870	 5.8620
15.0300	 5.8900
15.0740	 6.4550
15.1180	 5.9810
15.1620	 6.2530
15.2060	 5.4730
15.2510	 6.2470
15.2960	 5.8530
15.3410	 6.3240
15.3870	 5.9410
