Name: Quercus douglasii 2
Type: vegetation
Class: Tree
Genus: Quercus
Species: douglasii
Sample No.: VH173
Owner: UCSB
Wavelength Range: VSWIR
Origin: 34.7157; -120.0601; WGS84
Collection Date: 6/9/2013
Description: Samples were collected as part of the HyspIRI Airborne Campaign. 48 individual plants were sampled in three times in 2013 - spring  summer  and fall. The name of the sample includes a 1  2  or 3 which references a different individual of the species. Samples were taken to JPL and processed within 48 hours of collection. The same leaves were processed in the Nicolet and then measured using the ASD.
Measurement: Bidirectional reflectance
First Column: X
Second Column: Y
X Units: Wavelength (micrometers)
Y Units: Reflectance (percentage)
First X Value: 0.35
Last X Value: 2.5
Number of X Values: 2151
Additional Information: vegetation.tree.quercus.douglasii.vswir.vh173.ucsb.asd.ancillary.txt

 0.3500	 6.2520
 0.3510	 6.1250
 0.3520	 6.0490
 0.3530	 6.0030
 0.3540	 5.9530
 0.3550	 6.0240
 0.3560	 6.1060
 0.3570	 6.1010
 0.3580	 5.9510
 0.3590	 5.9310
 0.3600	 5.9650
 0.3610	 6.0110
 0.3620	 6.1090
 0.3630	 6.1560
 0.3640	 6.1390
 0.3650	 6.0960
 0.3660	 6.1050
 0.3670	 6.0990
 0.3680	 6.0790
 0.3690	 6.0840
 0.3700	 6.0350
 0.3710	 5.9740
 0.3720	 5.9440
 0.3730	 5.9410
 0.3740	 5.9610
 0.3750	 6.0030
 0.3760	 6.0650
 0.3770	 6.1490
 0.3780	 6.1070
 0.3790	 6.0110
 0.3800	 6.1040
 0.3810	 6.1050
 0.3820	 6.0680
 0.3830	 6.0690
 0.3840	 6.1340
 0.3850	 6.1630
 0.3860	 6.1470
 0.3870	 6.1220
 0.3880	 6.1910
 0.3890	 6.2020
 0.3900	 6.1540
 0.3910	 6.2050
 0.3920	 6.2160
 0.3930	 6.2450
 0.3940	 6.3210
 0.3950	 6.3310
 0.3960	 6.3370
 0.3970	 6.3560
 0.3980	 6.3710
 0.3990	 6.3280
 0.4000	 6.3270
 0.4010	 6.3840
 0.4020	 6.3890
 0.4030	 6.3350
 0.4040	 6.3060
 0.4050	 6.3660
 0.4060	 6.4080
 0.4070	 6.4400
 0.4080	 6.4650
 0.4090	 6.4870
 0.4100	 6.5270
 0.4110	 6.5550
 0.4120	 6.5610
 0.4130	 6.5760
 0.4140	 6.6130
 0.4150	 6.6530
 0.4160	 6.6800
 0.4170	 6.6850
 0.4180	 6.7240
 0.4190	 6.7860
 0.4200	 6.7980
 0.4210	 6.8440
 0.4220	 6.8960
 0.4230	 6.9280
 0.4240	 6.9720
 0.4250	 6.9990
 0.4260	 7.0200
 0.4270	 7.0560
 0.4280	 7.0800
 0.4290	 7.1040
 0.4300	 7.1370
 0.4310	 7.1650
 0.4320	 7.1810
 0.4330	 7.1930
 0.4340	 7.2120
 0.4350	 7.2390
 0.4360	 7.2680
 0.4370	 7.2930
 0.4380	 7.3060
 0.4390	 7.3300
 0.4400	 7.3510
 0.4410	 7.3600
 0.4420	 7.3730
 0.4430	 7.3930
 0.4440	 7.4100
 0.4450	 7.4240
 0.4460	 7.4480
 0.4470	 7.4660
 0.4480	 7.4740
 0.4490	 7.4880
 0.4500	 7.4930
 0.4510	 7.5060
 0.4520	 7.5330
 0.4530	 7.5480
 0.4540	 7.5530
 0.4550	 7.5610
 0.4560	 7.5680
 0.4570	 7.5700
 0.4580	 7.5700
 0.4590	 7.5770
 0.4600	 7.5920
 0.4610	 7.5990
 0.4620	 7.5990
 0.4630	 7.6040
 0.4640	 7.6010
 0.4650	 7.6030
 0.4660	 7.6120
 0.4670	 7.6160
 0.4680	 7.6130
 0.4690	 7.6040
 0.4700	 7.5880
 0.4710	 7.6110
 0.4720	 7.6150
 0.4730	 7.6040
 0.4740	 7.6060
 0.4750	 7.6220
 0.4760	 7.6270
 0.4770	 7.6140
 0.4780	 7.6110
 0.4790	 7.6160
 0.4800	 7.6200
 0.4810	 7.6160
 0.4820	 7.6200
 0.4830	 7.6280
 0.4840	 7.6370
 0.4850	 7.6380
 0.4860	 7.6450
 0.4870	 7.6490
 0.4880	 7.6490
 0.4890	 7.6630
 0.4900	 7.6720
 0.4910	 7.6760
 0.4920	 7.6860
 0.4930	 7.6950
 0.4940	 7.7120
 0.4950	 7.7300
 0.4960	 7.7470
 0.4970	 7.7620
 0.4980	 7.7720
 0.4990	 7.7790
 0.5000	 7.8010
 0.5010	 7.8270
 0.5020	 7.8520
 0.5030	 7.8800
 0.5040	 7.9090
 0.5050	 7.9380
 0.5060	 7.9690
 0.5070	 8.0080
 0.5080	 8.0580
 0.5090	 8.1090
 0.5100	 8.1590
 0.5110	 8.2300
 0.5120	 8.3010
 0.5130	 8.3710
 0.5140	 8.4560
 0.5150	 8.5500
 0.5160	 8.6460
 0.5170	 8.7530
 0.5180	 8.8780
 0.5190	 9.0110
 0.5200	 9.1430
 0.5210	 9.2880
 0.5220	 9.4370
 0.5230	 9.5890
 0.5240	 9.7390
 0.5250	 9.8900
 0.5260	10.0320
 0.5270	10.1690
 0.5280	10.3030
 0.5290	10.4370
 0.5300	10.5580
 0.5310	10.6630
 0.5320	10.7660
 0.5330	10.8610
 0.5340	10.9440
 0.5350	11.0150
 0.5360	11.0840
 0.5370	11.1480
 0.5380	11.2070
 0.5390	11.2580
 0.5400	11.3010
 0.5410	11.3420
 0.5420	11.3850
 0.5430	11.4270
 0.5440	11.4660
 0.5450	11.5030
 0.5460	11.5390
 0.5470	11.5730
 0.5480	11.6090
 0.5490	11.6430
 0.5500	11.6620
 0.5510	11.6750
 0.5520	11.6830
 0.5530	11.6810
 0.5540	11.6580
 0.5550	11.6300
 0.5560	11.5950
 0.5570	11.5460
 0.5580	11.4860
 0.5590	11.4180
 0.5600	11.3450
 0.5610	11.2630
 0.5620	11.1780
 0.5630	11.0900
 0.5640	10.9960
 0.5650	10.8970
 0.5660	10.7940
 0.5670	10.6890
 0.5680	10.5820
 0.5690	10.4690
 0.5700	10.3580
 0.5710	10.2540
 0.5720	10.1520
 0.5730	10.0560
 0.5740	 9.9660
 0.5750	 9.8840
 0.5760	 9.8120
 0.5770	 9.7410
 0.5780	 9.6660
 0.5790	 9.6040
 0.5800	 9.5460
 0.5810	 9.4920
 0.5820	 9.4430
 0.5830	 9.4050
 0.5840	 9.3670
 0.5850	 9.3280
 0.5860	 9.2950
 0.5870	 9.2650
 0.5880	 9.2310
 0.5890	 9.1950
 0.5900	 9.1770
 0.5910	 9.1670
 0.5920	 9.1550
 0.5930	 9.1360
 0.5940	 9.1220
 0.5950	 9.1090
 0.5960	 9.0950
 0.5970	 9.0820
 0.5980	 9.0700
 0.5990	 9.0590
 0.6000	 9.0410
 0.6010	 9.0230
 0.6020	 9.0030
 0.6030	 8.9810
 0.6040	 8.9500
 0.6050	 8.9190
 0.6060	 8.8860
 0.6070	 8.8540
 0.6080	 8.8120
 0.6090	 8.7700
 0.6100	 8.7220
 0.6110	 8.6740
 0.6120	 8.6390
 0.6130	 8.6080
 0.6140	 8.5730
 0.6150	 8.5370
 0.6160	 8.5060
 0.6170	 8.4790
 0.6180	 8.4530
 0.6190	 8.4230
 0.6200	 8.3970
 0.6210	 8.3810
 0.6220	 8.3620
 0.6230	 8.3450
 0.6240	 8.3320
 0.6250	 8.3250
 0.6260	 8.3180
 0.6270	 8.3090
 0.6280	 8.3010
 0.6290	 8.2970
 0.6300	 8.2900
 0.6310	 8.2890
 0.6320	 8.2850
 0.6330	 8.2780
 0.6340	 8.2730
 0.6350	 8.2660
 0.6360	 8.2560
 0.6370	 8.2450
 0.6380	 8.2280
 0.6390	 8.2090
 0.6400	 8.1900
 0.6410	 8.1660
 0.6420	 8.1390
 0.6430	 8.1140
 0.6440	 8.0920
 0.6450	 8.0680
 0.6460	 8.0410
 0.6470	 8.0160
 0.6480	 7.9910
 0.6490	 7.9670
 0.6500	 7.9480
 0.6510	 7.9270
 0.6520	 7.9140
 0.6530	 7.8970
 0.6540	 7.8770
 0.6550	 7.8560
 0.6560	 7.8370
 0.6570	 7.8160
 0.6580	 7.7900
 0.6590	 7.7710
 0.6600	 7.7490
 0.6610	 7.7270
 0.6620	 7.7100
 0.6630	 7.6910
 0.6640	 7.6770
 0.6650	 7.6690
 0.6660	 7.6570
 0.6670	 7.6490
 0.6680	 7.6480
 0.6690	 7.6480
 0.6700	 7.6500
 0.6710	 7.6560
 0.6720	 7.6640
 0.6730	 7.6710
 0.6740	 7.6830
 0.6750	 7.6990
 0.6760	 7.7170
 0.6770	 7.7350
 0.6780	 7.7540
 0.6790	 7.7730
 0.6800	 7.7930
 0.6810	 7.8210
 0.6820	 7.8540
 0.6830	 7.8840
 0.6840	 7.9190
 0.6850	 7.9600
 0.6860	 8.0070
 0.6870	 8.0590
 0.6880	 8.1160
 0.6890	 8.1860
 0.6900	 8.2670
 0.6910	 8.3720
 0.6920	 8.4990
 0.6930	 8.6570
 0.6940	 8.8530
 0.6950	 9.0960
 0.6960	 9.3870
 0.6970	 9.7320
 0.6980	10.1400
 0.6990	10.6100
 0.7000	11.1440
 0.7010	11.7420
 0.7020	12.3990
 0.7030	13.1070
 0.7040	13.8640
 0.7050	14.6640
 0.7060	15.4970
 0.7070	16.3640
 0.7080	17.2600
 0.7090	18.1800
 0.7100	19.1140
 0.7110	20.0680
 0.7120	21.0380
 0.7130	22.0140
 0.7140	22.9980
 0.7150	23.9860
 0.7160	24.9720
 0.7170	25.9570
 0.7180	26.9350
 0.7190	27.9040
 0.7200	28.8670
 0.7210	29.8170
 0.7220	30.7510
 0.7230	31.6680
 0.7240	32.5670
 0.7250	33.4380
 0.7260	34.2830
 0.7270	35.1050
 0.7280	35.8970
 0.7290	36.6580
 0.7300	37.3890
 0.7310	38.0920
 0.7320	38.7660
 0.7330	39.4090
 0.7340	40.0210
 0.7350	40.6060
 0.7360	41.1610
 0.7370	41.6880
 0.7380	42.1870
 0.7390	42.6580
 0.7400	43.1040
 0.7410	43.5250
 0.7420	43.9200
 0.7430	44.2870
 0.7440	44.6320
 0.7450	44.9570
 0.7460	45.2610
 0.7470	45.5440
 0.7480	45.8080
 0.7490	46.0530
 0.7500	46.2770
 0.7510	46.4820
 0.7520	46.6720
 0.7530	46.8510
 0.7540	47.0150
 0.7550	47.1630
 0.7560	47.2970
 0.7570	47.4240
 0.7580	47.5360
 0.7590	47.6390
 0.7600	47.7360
 0.7610	47.8230
 0.7620	47.9030
 0.7630	47.9750
 0.7640	48.0390
 0.7650	48.1020
 0.7660	48.1620
 0.7670	48.2150
 0.7680	48.2580
 0.7690	48.3020
 0.7700	48.3450
 0.7710	48.3830
 0.7720	48.4190
 0.7730	48.4510
 0.7740	48.4790
 0.7750	48.5070
 0.7760	48.5370
 0.7770	48.5650
 0.7780	48.5890
 0.7790	48.6100
 0.7800	48.6330
 0.7810	48.6570
 0.7820	48.6790
 0.7830	48.7000
 0.7840	48.7200
 0.7850	48.7380
 0.7860	48.7540
 0.7870	48.7700
 0.7880	48.7840
 0.7890	48.7970
 0.7900	48.8080
 0.7910	48.8220
 0.7920	48.8350
 0.7930	48.8480
 0.7940	48.8610
 0.7950	48.8720
 0.7960	48.8820
 0.7970	48.8900
 0.7980	48.8970
 0.7990	48.9040
 0.8000	48.9090
 0.8010	48.9100
 0.8020	48.9170
 0.8030	48.9180
 0.8040	48.9160
 0.8050	48.9160
 0.8060	48.9190
 0.8070	48.9220
 0.8080	48.9230
 0.8090	48.9150
 0.8100	48.9150
 0.8110	48.9140
 0.8120	48.9090
 0.8130	48.9060
 0.8140	48.9000
 0.8150	48.8950
 0.8160	48.8950
 0.8170	48.8900
 0.8180	48.8850
 0.8190	48.8780
 0.8200	48.8640
 0.8210	48.8600
 0.8220	48.8550
 0.8230	48.8450
 0.8240	48.8390
 0.8250	48.8320
 0.8260	48.8250
 0.8270	48.8160
 0.8280	48.8050
 0.8290	48.7970
 0.8300	48.7890
 0.8310	48.7750
 0.8320	48.7670
 0.8330	48.7580
 0.8340	48.7500
 0.8350	48.7490
 0.8360	48.7410
 0.8370	48.7330
 0.8380	48.7300
 0.8390	48.7270
 0.8400	48.7250
 0.8410	48.7220
 0.8420	48.7170
 0.8430	48.7130
 0.8440	48.7110
 0.8450	48.7100
 0.8460	48.7080
 0.8470	48.7090
 0.8480	48.7120
 0.8490	48.7130
 0.8500	48.7100
 0.8510	48.7110
 0.8520	48.7100
 0.8530	48.7080
 0.8540	48.7110
 0.8550	48.7130
 0.8560	48.7160
 0.8570	48.7180
 0.8580	48.7170
 0.8590	48.7210
 0.8600	48.7270
 0.8610	48.7320
 0.8620	48.7320
 0.8630	48.7330
 0.8640	48.7370
 0.8650	48.7430
 0.8660	48.7520
 0.8670	48.7550
 0.8680	48.7570
 0.8690	48.7650
 0.8700	48.7700
 0.8710	48.7770
 0.8720	48.7850
 0.8730	48.7890
 0.8740	48.7950
 0.8750	48.8020
 0.8760	48.8090
 0.8770	48.8130
 0.8780	48.8150
 0.8790	48.8210
 0.8800	48.8310
 0.8810	48.8360
 0.8820	48.8430
 0.8830	48.8520
 0.8840	48.8600
 0.8850	48.8630
 0.8860	48.8720
 0.8870	48.8810
 0.8880	48.8830
 0.8890	48.8850
 0.8900	48.8930
 0.8910	48.9020
 0.8920	48.9060
 0.8930	48.9110
 0.8940	48.9210
 0.8950	48.9310
 0.8960	48.9300
 0.8970	48.9390
 0.8980	48.9460
 0.8990	48.9500
 0.9000	48.9620
 0.9010	48.9650
 0.9020	48.9720
 0.9030	48.9840
 0.9040	48.9880
 0.9050	49.0000
 0.9060	49.0070
 0.9070	49.0030
 0.9080	49.0110
 0.9090	49.0220
 0.9100	49.0300
 0.9110	49.0320
 0.9120	49.0420
 0.9130	49.0450
 0.9140	49.0460
 0.9150	49.0510
 0.9160	49.0540
 0.9170	49.0590
 0.9180	49.0610
 0.9190	49.0590
 0.9200	49.0770
 0.9210	49.0820
 0.9220	49.0720
 0.9230	49.0660
 0.9240	49.0690
 0.9250	49.0670
 0.9260	49.0610
 0.9270	49.0620
 0.9280	49.0480
 0.9290	49.0310
 0.9300	49.0190
 0.9310	49.0090
 0.9320	49.0120
 0.9330	48.9990
 0.9340	48.9700
 0.9350	48.9590
 0.9360	48.9580
 0.9370	48.9490
 0.9380	48.9250
 0.9390	48.8980
 0.9400	48.8760
 0.9410	48.8610
 0.9420	48.8420
 0.9430	48.7980
 0.9440	48.7750
 0.9450	48.7530
 0.9460	48.7150
 0.9470	48.6810
 0.9480	48.6540
 0.9490	48.6220
 0.9500	48.5770
 0.9510	48.5250
 0.9520	48.4830
 0.9530	48.4370
 0.9540	48.3750
 0.9550	48.3140
 0.9560	48.2640
 0.9570	48.2160
 0.9580	48.1600
 0.9590	48.1220
 0.9600	48.0760
 0.9610	48.0310
 0.9620	48.0000
 0.9630	47.9700
 0.9640	47.9440
 0.9650	47.9220
 0.9660	47.9000
 0.9670	47.8740
 0.9680	47.8590
 0.9690	47.8430
 0.9700	47.8120
 0.9710	47.8000
 0.9720	47.7960
 0.9730	47.7920
 0.9740	47.7830
 0.9750	47.7820
 0.9760	47.7730
 0.9770	47.7580
 0.9780	47.7490
 0.9790	47.7520
 0.9800	47.7600
 0.9810	47.7640
 0.9820	47.7590
 0.9830	47.7600
 0.9840	47.7670
 0.9850	47.7720
 0.9860	47.7680
 0.9870	47.7780
 0.9880	47.7960
 0.9890	47.8110
 0.9900	47.8160
 0.9910	47.8200
 0.9920	47.8300
 0.9930	47.8460
 0.9940	47.8620
 0.9950	47.8630
 0.9960	47.8810
 0.9970	47.9100
 0.9980	47.9260
 0.9990	47.9190
 1.0000	48.0770
 1.0010	48.3580
 1.0020	48.5110
 1.0030	48.5240
 1.0040	48.5470
 1.0050	48.5680
 1.0060	48.5810
 1.0070	48.5910
 1.0080	48.6050
 1.0090	48.6140
 1.0100	48.6270
 1.0110	48.6470
 1.0120	48.6620
 1.0130	48.6710
 1.0140	48.6840
 1.0150	48.6970
 1.0160	48.7100
 1.0170	48.7260
 1.0180	48.7420
 1.0190	48.7580
 1.0200	48.7740
 1.0210	48.7890
 1.0220	48.8040
 1.0230	48.8170
 1.0240	48.8280
 1.0250	48.8400
 1.0260	48.8520
 1.0270	48.8650
 1.0280	48.8800
 1.0290	48.8930
 1.0300	48.9060
 1.0310	48.9180
 1.0320	48.9270
 1.0330	48.9360
 1.0340	48.9470
 1.0350	48.9580
 1.0360	48.9690
 1.0370	48.9760
 1.0380	48.9840
 1.0390	48.9880
 1.0400	48.9950
 1.0410	49.0050
 1.0420	49.0140
 1.0430	49.0270
 1.0440	49.0340
 1.0450	49.0350
 1.0460	49.0410
 1.0470	49.0460
 1.0480	49.0520
 1.0490	49.0630
 1.0500	49.0710
 1.0510	49.0770
 1.0520	49.0820
 1.0530	49.0870
 1.0540	49.0890
 1.0550	49.0950
 1.0560	49.1030
 1.0570	49.1080
 1.0580	49.1160
 1.0590	49.1220
 1.0600	49.1270
 1.0610	49.1310
 1.0620	49.1370
 1.0630	49.1400
 1.0640	49.1390
 1.0650	49.1400
 1.0660	49.1420
 1.0670	49.1420
 1.0680	49.1430
 1.0690	49.1440
 1.0700	49.1440
 1.0710	49.1430
 1.0720	49.1440
 1.0730	49.1450
 1.0740	49.1450
 1.0750	49.1420
 1.0760	49.1410
 1.0770	49.1380
 1.0780	49.1360
 1.0790	49.1350
 1.0800	49.1340
 1.0810	49.1350
 1.0820	49.1330
 1.0830	49.1290
 1.0840	49.1250
 1.0850	49.1220
 1.0860	49.1170
 1.0870	49.1120
 1.0880	49.1080
 1.0890	49.1020
 1.0900	49.0930
 1.0910	49.0860
 1.0920	49.0790
 1.0930	49.0730
 1.0940	49.0670
 1.0950	49.0610
 1.0960	49.0570
 1.0970	49.0500
 1.0980	49.0410
 1.0990	49.0320
 1.1000	49.0190
 1.1010	49.0080
 1.1020	48.9990
 1.1030	48.9910
 1.1040	48.9790
 1.1050	48.9710
 1.1060	48.9590
 1.1070	48.9450
 1.1080	48.9310
 1.1090	48.9170
 1.1100	48.9030
 1.1110	48.8890
 1.1120	48.8740
 1.1130	48.8580
 1.1140	48.8420
 1.1150	48.8280
 1.1160	48.8100
 1.1170	48.7930
 1.1180	48.7720
 1.1190	48.7460
 1.1200	48.7200
 1.1210	48.6920
 1.1220	48.6600
 1.1230	48.6290
 1.1240	48.5970
 1.1250	48.5590
 1.1260	48.5210
 1.1270	48.4750
 1.1280	48.4230
 1.1290	48.3650
 1.1300	48.3000
 1.1310	48.2320
 1.1320	48.1590
 1.1330	48.0810
 1.1340	48.0020
 1.1350	47.9130
 1.1360	47.8190
 1.1370	47.7160
 1.1380	47.6080
 1.1390	47.4970
 1.1400	47.3830
 1.1410	47.2660
 1.1420	47.1460
 1.1430	47.0220
 1.1440	46.9000
 1.1450	46.7740
 1.1460	46.6510
 1.1470	46.5270
 1.1480	46.4100
 1.1490	46.2940
 1.1500	46.1850
 1.1510	46.0810
 1.1520	45.9850
 1.1530	45.8950
 1.1540	45.8130
 1.1550	45.7400
 1.1560	45.6740
 1.1570	45.6140
 1.1580	45.5610
 1.1590	45.5120
 1.1600	45.4710
 1.1610	45.4340
 1.1620	45.4000
 1.1630	45.3730
 1.1640	45.3510
 1.1650	45.3310
 1.1660	45.3140
 1.1670	45.2990
 1.1680	45.2840
 1.1690	45.2720
 1.1700	45.2620
 1.1710	45.2530
 1.1720	45.2470
 1.1730	45.2380
 1.1740	45.2290
 1.1750	45.2180
 1.1760	45.2060
 1.1770	45.1940
 1.1780	45.1830
 1.1790	45.1720
 1.1800	45.1620
 1.1810	45.1500
 1.1820	45.1360
 1.1830	45.1230
 1.1840	45.1110
 1.1850	45.0970
 1.1860	45.0860
 1.1870	45.0770
 1.1880	45.0670
 1.1890	45.0560
 1.1900	45.0490
 1.1910	45.0420
 1.1920	45.0360
 1.1930	45.0320
 1.1940	45.0300
 1.1950	45.0310
 1.1960	45.0320
 1.1970	45.0330
 1.1980	45.0340
 1.1990	45.0360
 1.2000	45.0410
 1.2010	45.0480
 1.2020	45.0570
 1.2030	45.0660
 1.2040	45.0760
 1.2050	45.0860
 1.2060	45.0980
 1.2070	45.1110
 1.2080	45.1230
 1.2090	45.1340
 1.2100	45.1460
 1.2110	45.1610
 1.2120	45.1790
 1.2130	45.1960
 1.2140	45.2140
 1.2150	45.2340
 1.2160	45.2530
 1.2170	45.2720
 1.2180	45.2940
 1.2190	45.3160
 1.2200	45.3360
 1.2210	45.3570
 1.2220	45.3770
 1.2230	45.3980
 1.2240	45.4230
 1.2250	45.4470
 1.2260	45.4690
 1.2270	45.4920
 1.2280	45.5110
 1.2290	45.5300
 1.2300	45.5490
 1.2310	45.5680
 1.2320	45.5850
 1.2330	45.6040
 1.2340	45.6220
 1.2350	45.6390
 1.2360	45.6550
 1.2370	45.6700
 1.2380	45.6830
 1.2390	45.6960
 1.2400	45.7110
 1.2410	45.7270
 1.2420	45.7420
 1.2430	45.7550
 1.2440	45.7680
 1.2450	45.7770
 1.2460	45.7880
 1.2470	45.7980
 1.2480	45.8070
 1.2490	45.8150
 1.2500	45.8220
 1.2510	45.8280
 1.2520	45.8350
 1.2530	45.8430
 1.2540	45.8490
 1.2550	45.8540
 1.2560	45.8570
 1.2570	45.8610
 1.2580	45.8620
 1.2590	45.8630
 1.2600	45.8640
 1.2610	45.8630
 1.2620	45.8610
 1.2630	45.8590
 1.2640	45.8580
 1.2650	45.8580
 1.2660	45.8580
 1.2670	45.8540
 1.2680	45.8500
 1.2690	45.8440
 1.2700	45.8330
 1.2710	45.8210
 1.2720	45.8110
 1.2730	45.8000
 1.2740	45.7900
 1.2750	45.7800
 1.2760	45.7690
 1.2770	45.7550
 1.2780	45.7400
 1.2790	45.7270
 1.2800	45.7140
 1.2810	45.7000
 1.2820	45.6840
 1.2830	45.6670
 1.2840	45.6470
 1.2850	45.6260
 1.2860	45.6040
 1.2870	45.5810
 1.2880	45.5550
 1.2890	45.5290
 1.2900	45.5010
 1.2910	45.4720
 1.2920	45.4430
 1.2930	45.4130
 1.2940	45.3790
 1.2950	45.3430
 1.2960	45.3040
 1.2970	45.2630
 1.2980	45.2210
 1.2990	45.1770
 1.3000	45.1310
 1.3010	45.0830
 1.3020	45.0320
 1.3030	44.9790
 1.3040	44.9240
 1.3050	44.8670
 1.3060	44.8090
 1.3070	44.7460
 1.3080	44.6810
 1.3090	44.6150
 1.3100	44.5460
 1.3110	44.4760
 1.3120	44.4010
 1.3130	44.3230
 1.3140	44.2410
 1.3150	44.1530
 1.3160	44.0650
 1.3170	43.9780
 1.3180	43.8860
 1.3190	43.7940
 1.3200	43.6970
 1.3210	43.5950
 1.3220	43.4910
 1.3230	43.3820
 1.3240	43.2710
 1.3250	43.1610
 1.3260	43.0470
 1.3270	42.9280
 1.3280	42.8090
 1.3290	42.6850
 1.3300	42.5580
 1.3310	42.4320
 1.3320	42.3050
 1.3330	42.1760
 1.3340	42.0450
 1.3350	41.9140
 1.3360	41.7810
 1.3370	41.6440
 1.3380	41.5080
 1.3390	41.3700
 1.3400	41.2320
 1.3410	41.0970
 1.3420	40.9620
 1.3430	40.8260
 1.3440	40.6920
 1.3450	40.5570
 1.3460	40.4220
 1.3470	40.2910
 1.3480	40.1620
 1.3490	40.0340
 1.3500	39.9080
 1.3510	39.7800
 1.3520	39.6510
 1.3530	39.5230
 1.3540	39.3940
 1.3550	39.2650
 1.3560	39.1370
 1.3570	39.0070
 1.3580	38.8790
 1.3590	38.7480
 1.3600	38.6130
 1.3610	38.4750
 1.3620	38.3320
 1.3630	38.1850
 1.3640	38.0330
 1.3650	37.8750
 1.3660	37.7110
 1.3670	37.5390
 1.3680	37.3570
 1.3690	37.1640
 1.3700	36.9590
 1.3710	36.7420
 1.3720	36.5110
 1.3730	36.2640
 1.3740	36.0040
 1.3750	35.7230
 1.3760	35.4230
 1.3770	35.1040
 1.3780	34.7600
 1.3790	34.3940
 1.3800	34.0060
 1.3810	33.5920
 1.3820	33.1620
 1.3830	32.7130
 1.3840	32.2440
 1.3850	31.7560
 1.3860	31.2520
 1.3870	30.7250
 1.3880	30.1920
 1.3890	29.6460
 1.3900	29.0890
 1.3910	28.5310
 1.3920	27.9660
 1.3930	27.3960
 1.3940	26.8290
 1.3950	26.2580
 1.3960	25.6920
 1.3970	25.1380
 1.3980	24.5910
 1.3990	24.0640
 1.4000	23.5510
 1.4010	23.0500
 1.4020	22.5710
 1.4030	22.1080
 1.4040	21.6650
 1.4050	21.2460
 1.4060	20.8470
 1.4070	20.4720
 1.4080	20.1200
 1.4090	19.7890
 1.4100	19.4810
 1.4110	19.1920
 1.4120	18.9240
 1.4130	18.6780
 1.4140	18.4500
 1.4150	18.2420
 1.4160	18.0530
 1.4170	17.8780
 1.4180	17.7190
 1.4190	17.5740
 1.4200	17.4430
 1.4210	17.3260
 1.4220	17.2200
 1.4230	17.1260
 1.4240	17.0420
 1.4250	16.9670
 1.4260	16.9020
 1.4270	16.8440
 1.4280	16.7950
 1.4290	16.7520
 1.4300	16.7180
 1.4310	16.6880
 1.4320	16.6660
 1.4330	16.6480
 1.4340	16.6350
 1.4350	16.6260
 1.4360	16.6230
 1.4370	16.6230
 1.4380	16.6260
 1.4390	16.6330
 1.4400	16.6420
 1.4410	16.6540
 1.4420	16.6700
 1.4430	16.6860
 1.4440	16.7040
 1.4450	16.7230
 1.4460	16.7440
 1.4470	16.7650
 1.4480	16.7880
 1.4490	16.8120
 1.4500	16.8380
 1.4510	16.8640
 1.4520	16.8920
 1.4530	16.9210
 1.4540	16.9510
 1.4550	16.9830
 1.4560	17.0160
 1.4570	17.0520
 1.4580	17.0900
 1.4590	17.1310
 1.4600	17.1770
 1.4610	17.2250
 1.4620	17.2780
 1.4630	17.3360
 1.4640	17.3970
 1.4650	17.4630
 1.4660	17.5330
 1.4670	17.6080
 1.4680	17.6880
 1.4690	17.7740
 1.4700	17.8640
 1.4710	17.9580
 1.4720	18.0560
 1.4730	18.1570
 1.4740	18.2620
 1.4750	18.3700
 1.4760	18.4810
 1.4770	18.5950
 1.4780	18.7110
 1.4790	18.8290
 1.4800	18.9470
 1.4810	19.0670
 1.4820	19.1880
 1.4830	19.3090
 1.4840	19.4330
 1.4850	19.5580
 1.4860	19.6810
 1.4870	19.8080
 1.4880	19.9330
 1.4890	20.0590
 1.4900	20.1850
 1.4910	20.3110
 1.4920	20.4370
 1.4930	20.5630
 1.4940	20.6890
 1.4950	20.8160
 1.4960	20.9420
 1.4970	21.0670
 1.4980	21.1930
 1.4990	21.3200
 1.5000	21.4460
 1.5010	21.5720
 1.5020	21.6970
 1.5030	21.8210
 1.5040	21.9450
 1.5050	22.0690
 1.5060	22.1940
 1.5070	22.3180
 1.5080	22.4410
 1.5090	22.5620
 1.5100	22.6850
 1.5110	22.8060
 1.5120	22.9280
 1.5130	23.0480
 1.5140	23.1660
 1.5150	23.2830
 1.5160	23.3980
 1.5170	23.5140
 1.5180	23.6300
 1.5190	23.7430
 1.5200	23.8560
 1.5210	23.9680
 1.5220	24.0780
 1.5230	24.1890
 1.5240	24.3000
 1.5250	24.4080
 1.5260	24.5150
 1.5270	24.6210
 1.5280	24.7250
 1.5290	24.8280
 1.5300	24.9300
 1.5310	25.0300
 1.5320	25.1300
 1.5330	25.2290
 1.5340	25.3270
 1.5350	25.4250
 1.5360	25.5230
 1.5370	25.6190
 1.5380	25.7140
 1.5390	25.8080
 1.5400	25.9000
 1.5410	25.9910
 1.5420	26.0820
 1.5430	26.1720
 1.5440	26.2640
 1.5450	26.3530
 1.5460	26.4410
 1.5470	26.5280
 1.5480	26.6140
 1.5490	26.6990
 1.5500	26.7850
 1.5510	26.8690
 1.5520	26.9520
 1.5530	27.0330
 1.5540	27.1130
 1.5550	27.1940
 1.5560	27.2730
 1.5570	27.3510
 1.5580	27.4290
 1.5590	27.5020
 1.5600	27.5760
 1.5610	27.6500
 1.5620	27.7210
 1.5630	27.7930
 1.5640	27.8650
 1.5650	27.9360
 1.5660	28.0090
 1.5670	28.0790
 1.5680	28.1500
 1.5690	28.2180
 1.5700	28.2850
 1.5710	28.3530
 1.5720	28.4210
 1.5730	28.4870
 1.5740	28.5530
 1.5750	28.6180
 1.5760	28.6820
 1.5770	28.7470
 1.5780	28.8130
 1.5790	28.8790
 1.5800	28.9440
 1.5810	29.0090
 1.5820	29.0750
 1.5830	29.1390
 1.5840	29.2040
 1.5850	29.2680
 1.5860	29.3290
 1.5870	29.3910
 1.5880	29.4530
 1.5890	29.5150
 1.5900	29.5780
 1.5910	29.6380
 1.5920	29.6980
 1.5930	29.7580
 1.5940	29.8170
 1.5950	29.8770
 1.5960	29.9360
 1.5970	29.9950
 1.5980	30.0540
 1.5990	30.1120
 1.6000	30.1700
 1.6010	30.2280
 1.6020	30.2840
 1.6030	30.3410
 1.6040	30.3970
 1.6050	30.4510
 1.6060	30.5040
 1.6070	30.5560
 1.6080	30.6080
 1.6090	30.6610
 1.6100	30.7130
 1.6110	30.7650
 1.6120	30.8160
 1.6130	30.8620
 1.6140	30.9090
 1.6150	30.9550
 1.6160	31.0010
 1.6170	31.0470
 1.6180	31.0930
 1.6190	31.1360
 1.6200	31.1780
 1.6210	31.2190
 1.6220	31.2610
 1.6230	31.3020
 1.6240	31.3430
 1.6250	31.3830
 1.6260	31.4210
 1.6270	31.4580
 1.6280	31.4930
 1.6290	31.5280
 1.6300	31.5600
 1.6310	31.5930
 1.6320	31.6250
 1.6330	31.6560
 1.6340	31.6900
 1.6350	31.7190
 1.6360	31.7470
 1.6370	31.7740
 1.6380	31.7980
 1.6390	31.8210
 1.6400	31.8450
 1.6410	31.8660
 1.6420	31.8840
 1.6430	31.9020
 1.6440	31.9190
 1.6450	31.9330
 1.6460	31.9440
 1.6470	31.9530
 1.6480	31.9610
 1.6490	31.9680
 1.6500	31.9740
 1.6510	31.9760
 1.6520	31.9750
 1.6530	31.9720
 1.6540	31.9690
 1.6550	31.9640
 1.6560	31.9580
 1.6570	31.9500
 1.6580	31.9400
 1.6590	31.9300
 1.6600	31.9200
 1.6610	31.9120
 1.6620	31.9050
 1.6630	31.8960
 1.6640	31.8870
 1.6650	31.8770
 1.6660	31.8680
 1.6670	31.8580
 1.6680	31.8500
 1.6690	31.8400
 1.6700	31.8280
 1.6710	31.8150
 1.6720	31.8010
 1.6730	31.7870
 1.6740	31.7700
 1.6750	31.7500
 1.6760	31.7280
 1.6770	31.7040
 1.6780	31.6760
 1.6790	31.6460
 1.6800	31.6150
 1.6810	31.5810
 1.6820	31.5440
 1.6830	31.5050
 1.6840	31.4630
 1.6850	31.4200
 1.6860	31.3740
 1.6870	31.3280
 1.6880	31.2800
 1.6890	31.2280
 1.6900	31.1790
 1.6910	31.1280
 1.6920	31.0800
 1.6930	31.0340
 1.6940	30.9870
 1.6950	30.9420
 1.6960	30.8960
 1.6970	30.8500
 1.6980	30.8030
 1.6990	30.7560
 1.7000	30.7100
 1.7010	30.6640
 1.7020	30.6170
 1.7030	30.5700
 1.7040	30.5230
 1.7050	30.4770
 1.7060	30.4280
 1.7070	30.3780
 1.7080	30.3290
 1.7090	30.2800
 1.7100	30.2300
 1.7110	30.1810
 1.7120	30.1340
 1.7130	30.0840
 1.7140	30.0360
 1.7150	29.9890
 1.7160	29.9390
 1.7170	29.8910
 1.7180	29.8440
 1.7190	29.7960
 1.7200	29.7490
 1.7210	29.7040
 1.7220	29.6600
 1.7230	29.6150
 1.7240	29.5710
 1.7250	29.5260
 1.7260	29.4830
 1.7270	29.4410
 1.7280	29.3980
 1.7290	29.3570
 1.7300	29.3140
 1.7310	29.2720
 1.7320	29.2320
 1.7330	29.1910
 1.7340	29.1510
 1.7350	29.1090
 1.7360	29.0670
 1.7370	29.0250
 1.7380	28.9820
 1.7390	28.9390
 1.7400	28.8960
 1.7410	28.8500
 1.7420	28.8030
 1.7430	28.7540
 1.7440	28.7010
 1.7450	28.6490
 1.7460	28.5940
 1.7470	28.5410
 1.7480	28.4870
 1.7490	28.4350
 1.7500	28.3850
 1.7510	28.3330
 1.7520	28.2810
 1.7530	28.2240
 1.7540	28.1630
 1.7550	28.1050
 1.7560	28.0460
 1.7570	27.9910
 1.7580	27.9380
 1.7590	27.8860
 1.7600	27.8340
 1.7610	27.7800
 1.7620	27.7290
 1.7630	27.6810
 1.7640	27.6340
 1.7650	27.5920
 1.7660	27.5490
 1.7670	27.5060
 1.7680	27.4630
 1.7690	27.4170
 1.7700	27.3760
 1.7710	27.3390
 1.7720	27.3010
 1.7730	27.2670
 1.7740	27.2320
 1.7750	27.1950
 1.7760	27.1610
 1.7770	27.1270
 1.7780	27.0960
 1.7790	27.0670
 1.7800	27.0390
 1.7810	27.0120
 1.7820	26.9860
 1.7830	26.9580
 1.7840	26.9350
 1.7850	26.9120
 1.7860	26.8940
 1.7870	26.8780
 1.7880	26.8630
 1.7890	26.8490
 1.7900	26.8380
 1.7910	26.8270
 1.7920	26.8190
 1.7930	26.8120
 1.7940	26.8030
 1.7950	26.7970
 1.7960	26.7940
 1.7970	26.7900
 1.7980	26.7870
 1.7990	26.7860
 1.8000	26.7840
 1.8010	26.7850
 1.8020	26.7910
 1.8030	26.7940
 1.8040	26.7960
 1.8050	26.7980
 1.8060	26.8000
 1.8070	26.8020
 1.8080	26.8040
 1.8090	26.8060
 1.8100	26.8080
 1.8110	26.8110
 1.8120	26.8110
 1.8130	26.8130
 1.8140	26.8140
 1.8150	26.8140
 1.8160	26.8160
 1.8170	26.8180
 1.8180	26.8160
 1.8190	26.8130
 1.8200	26.8100
 1.8210	26.8060
 1.8220	26.8000
 1.8230	26.7940
 1.8240	26.7880
 1.8250	26.7800
 1.8260	26.7720
 1.8270	26.7640
 1.8280	26.7540
 1.8290	26.7410
 1.8300	26.7340
 1.8310	26.7470
 1.8320	26.7300
 1.8330	26.7030
 1.8340	26.6720
 1.8350	26.6350
 1.8360	26.5950
 1.8370	26.5540
 1.8380	26.5080
 1.8390	26.4570
 1.8400	26.4070
 1.8410	26.3460
 1.8420	26.2780
 1.8430	26.2040
 1.8440	26.1230
 1.8450	26.0360
 1.8460	25.9410
 1.8470	25.8400
 1.8480	25.7320
 1.8490	25.6090
 1.8500	25.4760
 1.8510	25.3350
 1.8520	25.1820
 1.8530	25.0150
 1.8540	24.8420
 1.8550	24.6570
 1.8560	24.4590
 1.8570	24.2480
 1.8580	24.0180
 1.8590	23.7770
 1.8600	23.5200
 1.8610	23.2520
 1.8620	22.9670
 1.8630	22.6710
 1.8640	22.3580
 1.8650	22.0250
 1.8660	21.6760
 1.8670	21.3050
 1.8680	20.9180
 1.8690	20.5110
 1.8700	20.0870
 1.8710	19.6430
 1.8720	19.1940
 1.8730	18.7320
 1.8740	18.2590
 1.8750	17.7800
 1.8760	17.2890
 1.8770	16.7970
 1.8780	16.3050
 1.8790	15.8120
 1.8800	15.3290
 1.8810	14.8530
 1.8820	14.3770
 1.8830	13.9030
 1.8840	13.4430
 1.8850	12.9840
 1.8860	12.5360
 1.8870	12.1070
 1.8880	11.6890
 1.8890	11.2910
 1.8900	10.9140
 1.8910	10.5590
 1.8920	10.2200
 1.8930	 9.9060
 1.8940	 9.6120
 1.8950	 9.3430
 1.8960	 9.0950
 1.8970	 8.8650
 1.8980	 8.6570
 1.8990	 8.4660
 1.9000	 8.2910
 1.9010	 8.1380
 1.9020	 7.9980
 1.9030	 7.8780
 1.9040	 7.7670
 1.9050	 7.6670
 1.9060	 7.5790
 1.9070	 7.5050
 1.9080	 7.4380
 1.9090	 7.3810
 1.9100	 7.3300
 1.9110	 7.2870
 1.9120	 7.2490
 1.9130	 7.2170
 1.9140	 7.1920
 1.9150	 7.1680
 1.9160	 7.1490
 1.9170	 7.1350
 1.9180	 7.1240
 1.9190	 7.1180
 1.9200	 7.1090
 1.9210	 7.1040
 1.9220	 7.1030
 1.9230	 7.1030
 1.9240	 7.1040
 1.9250	 7.1050
 1.9260	 7.1100
 1.9270	 7.1140
 1.9280	 7.1200
 1.9290	 7.1300
 1.9300	 7.1390
 1.9310	 7.1500
 1.9320	 7.1640
 1.9330	 7.1790
 1.9340	 7.1930
 1.9350	 7.2100
 1.9360	 7.2300
 1.9370	 7.2490
 1.9380	 7.2710
 1.9390	 7.2920
 1.9400	 7.3110
 1.9410	 7.3320
 1.9420	 7.3550
 1.9430	 7.3820
 1.9440	 7.4090
 1.9450	 7.4410
 1.9460	 7.4720
 1.9470	 7.5010
 1.9480	 7.5310
 1.9490	 7.5640
 1.9500	 7.5970
 1.9510	 7.6300
 1.9520	 7.6640
 1.9530	 7.6980
 1.9540	 7.7290
 1.9550	 7.7660
 1.9560	 7.8020
 1.9570	 7.8400
 1.9580	 7.8790
 1.9590	 7.9200
 1.9600	 7.9590
 1.9610	 8.0030
 1.9620	 8.0430
 1.9630	 8.0870
 1.9640	 8.1340
 1.9650	 8.1810
 1.9660	 8.2290
 1.9670	 8.2800
 1.9680	 8.3270
 1.9690	 8.3710
 1.9700	 8.4210
 1.9710	 8.4700
 1.9720	 8.5210
 1.9730	 8.5730
 1.9740	 8.6260
 1.9750	 8.6780
 1.9760	 8.7340
 1.9770	 8.7880
 1.9780	 8.8410
 1.9790	 8.9000
 1.9800	 8.9610
 1.9810	 9.0200
 1.9820	 9.0800
 1.9830	 9.1400
 1.9840	 9.1960
 1.9850	 9.2590
 1.9860	 9.3210
 1.9870	 9.3860
 1.9880	 9.4520
 1.9890	 9.5170
 1.9900	 9.5820
 1.9910	 9.6440
 1.9920	 9.7100
 1.9930	 9.7740
 1.9940	 9.8380
 1.9950	 9.9050
 1.9960	 9.9710
 1.9970	10.0320
 1.9980	10.0970
 1.9990	10.1600
 2.0000	10.2250
 2.0010	10.2920
 2.0020	10.3590
 2.0030	10.4260
 2.0040	10.4910
 2.0050	10.5570
 2.0060	10.6240
 2.0070	10.6880
 2.0080	10.7520
 2.0090	10.8130
 2.0100	10.8730
 2.0110	10.9320
 2.0120	10.9890
 2.0130	11.0480
 2.0140	11.1080
 2.0150	11.1690
 2.0160	11.2290
 2.0170	11.2890
 2.0180	11.3460
 2.0190	11.4010
 2.0200	11.4560
 2.0210	11.5100
 2.0220	11.5630
 2.0230	11.6170
 2.0240	11.6680
 2.0250	11.7180
 2.0260	11.7680
 2.0270	11.8170
 2.0280	11.8640
 2.0290	11.9100
 2.0300	11.9560
 2.0310	12.0000
 2.0320	12.0420
 2.0330	12.0810
 2.0340	12.1190
 2.0350	12.1550
 2.0360	12.1900
 2.0370	12.2240
 2.0380	12.2570
 2.0390	12.2910
 2.0400	12.3260
 2.0410	12.3590
 2.0420	12.3930
 2.0430	12.4230
 2.0440	12.4530
 2.0450	12.4780
 2.0460	12.5060
 2.0470	12.5350
 2.0480	12.5630
 2.0490	12.5920
 2.0500	12.6200
 2.0510	12.6470
 2.0520	12.6740
 2.0530	12.6990
 2.0540	12.7270
 2.0550	12.7550
 2.0560	12.7850
 2.0570	12.8160
 2.0580	12.8470
 2.0590	12.8780
 2.0600	12.9080
 2.0610	12.9410
 2.0620	12.9770
 2.0630	13.0110
 2.0640	13.0470
 2.0650	13.0800
 2.0660	13.1080
 2.0670	13.1410
 2.0680	13.1740
 2.0690	13.2070
 2.0700	13.2430
 2.0710	13.2780
 2.0720	13.3090
 2.0730	13.3440
 2.0740	13.3780
 2.0750	13.4120
 2.0760	13.4460
 2.0770	13.4820
 2.0780	13.5150
 2.0790	13.5480
 2.0800	13.5810
 2.0810	13.6130
 2.0820	13.6440
 2.0830	13.6760
 2.0840	13.7060
 2.0850	13.7340
 2.0860	13.7620
 2.0870	13.7880
 2.0880	13.8150
 2.0890	13.8440
 2.0900	13.8740
 2.0910	13.9050
 2.0920	13.9390
 2.0930	13.9700
 2.0940	14.0020
 2.0950	14.0320
 2.0960	14.0620
 2.0970	14.0920
 2.0980	14.1240
 2.0990	14.1510
 2.1000	14.1750
 2.1010	14.2010
 2.1020	14.2250
 2.1030	14.2500
 2.1040	14.2760
 2.1050	14.3050
 2.1060	14.3320
 2.1070	14.3580
 2.1080	14.3880
 2.1090	14.4220
 2.1100	14.4500
 2.1110	14.4780
 2.1120	14.5060
 2.1130	14.5270
 2.1140	14.5540
 2.1150	14.5850
 2.1160	14.6140
 2.1170	14.6450
 2.1180	14.6730
 2.1190	14.6980
 2.1200	14.7240
 2.1210	14.7510
 2.1220	14.7770
 2.1230	14.8010
 2.1240	14.8270
 2.1250	14.8500
 2.1260	14.8710
 2.1270	14.8930
 2.1280	14.9150
 2.1290	14.9360
 2.1300	14.9560
 2.1310	14.9760
 2.1320	14.9940
 2.1330	15.0130
 2.1340	15.0330
 2.1350	15.0510
 2.1360	15.0680
 2.1370	15.0840
 2.1380	15.1000
 2.1390	15.1160
 2.1400	15.1330
 2.1410	15.1520
 2.1420	15.1710
 2.1430	15.1910
 2.1440	15.2110
 2.1450	15.2320
 2.1460	15.2510
 2.1470	15.2680
 2.1480	15.2850
 2.1490	15.3010
 2.1500	15.3170
 2.1510	15.3370
 2.1520	15.3520
 2.1530	15.3630
 2.1540	15.3760
 2.1550	15.3860
 2.1560	15.3980
 2.1570	15.4170
 2.1580	15.4310
 2.1590	15.4460
 2.1600	15.4560
 2.1610	15.4640
 2.1620	15.4740
 2.1630	15.4870
 2.1640	15.5020
 2.1650	15.5160
 2.1660	15.5330
 2.1670	15.5480
 2.1680	15.5580
 2.1690	15.5730
 2.1700	15.5900
 2.1710	15.6070
 2.1720	15.6270
 2.1730	15.6440
 2.1740	15.6590
 2.1750	15.6760
 2.1760	15.6930
 2.1770	15.7110
 2.1780	15.7350
 2.1790	15.7550
 2.1800	15.7710
 2.1810	15.7900
 2.1820	15.8070
 2.1830	15.8250
 2.1840	15.8480
 2.1850	15.8750
 2.1860	15.9010
 2.1870	15.9300
 2.1880	15.9550
 2.1890	15.9800
 2.1900	16.0050
 2.1910	16.0290
 2.1920	16.0540
 2.1930	16.0820
 2.1940	16.1050
 2.1950	16.1240
 2.1960	16.1460
 2.1970	16.1650
 2.1980	16.1880
 2.1990	16.2170
 2.2000	16.2420
 2.2010	16.2680
 2.2020	16.2890
 2.2030	16.3040
 2.2040	16.3230
 2.2050	16.3380
 2.2060	16.3580
 2.2070	16.3750
 2.2080	16.3940
 2.2090	16.4110
 2.2100	16.4270
 2.2110	16.4430
 2.2120	16.4620
 2.2130	16.4750
 2.2140	16.4860
 2.2150	16.4970
 2.2160	16.5040
 2.2170	16.5130
 2.2180	16.5250
 2.2190	16.5310
 2.2200	16.5390
 2.2210	16.5400
 2.2220	16.5360
 2.2230	16.5310
 2.2240	16.5180
 2.2250	16.5090
 2.2260	16.4980
 2.2270	16.4890
 2.2280	16.4880
 2.2290	16.4770
 2.2300	16.4620
 2.2310	16.4430
 2.2320	16.4210
 2.2330	16.3930
 2.2340	16.3650
 2.2350	16.3380
 2.2360	16.3040
 2.2370	16.2630
 2.2380	16.2220
 2.2390	16.1760
 2.2400	16.1320
 2.2410	16.0870
 2.2420	16.0390
 2.2430	15.9910
 2.2440	15.9390
 2.2450	15.8820
 2.2460	15.8280
 2.2470	15.7760
 2.2480	15.7210
 2.2490	15.6660
 2.2500	15.6090
 2.2510	15.5450
 2.2520	15.4850
 2.2530	15.4220
 2.2540	15.3640
 2.2550	15.3100
 2.2560	15.2550
 2.2570	15.2050
 2.2580	15.1480
 2.2590	15.0850
 2.2600	15.0260
 2.2610	14.9640
 2.2620	14.9020
 2.2630	14.8420
 2.2640	14.7860
 2.2650	14.7320
 2.2660	14.6770
 2.2670	14.6240
 2.2680	14.5760
 2.2690	14.5230
 2.2700	14.4650
 2.2710	14.4160
 2.2720	14.3690
 2.2730	14.3250
 2.2740	14.2870
 2.2750	14.2470
 2.2760	14.2080
 2.2770	14.1680
 2.2780	14.1290
 2.2790	14.0900
 2.2800	14.0520
 2.2810	14.0110
 2.2820	13.9690
 2.2830	13.9290
 2.2840	13.8850
 2.2850	13.8470
 2.2860	13.8140
 2.2870	13.7800
 2.2880	13.7510
 2.2890	13.7190
 2.2900	13.6880
 2.2910	13.6520
 2.2920	13.6110
 2.2930	13.5740
 2.2940	13.5380
 2.2950	13.5020
 2.2960	13.4700
 2.2970	13.4330
 2.2980	13.3920
 2.2990	13.3500
 2.3000	13.3060
 2.3010	13.2660
 2.3020	13.2330
 2.3030	13.1980
 2.3040	13.1630
 2.3050	13.1290
 2.3060	13.0930
 2.3070	13.0580
 2.3080	13.0260
 2.3090	12.9980
 2.3100	12.9740
 2.3110	12.9450
 2.3120	12.9210
 2.3130	12.9020
 2.3140	12.8800
 2.3150	12.8560
 2.3160	12.8370
 2.3170	12.8200
 2.3180	12.8020
 2.3190	12.7870
 2.3200	12.7670
 2.3210	12.7420
 2.3220	12.7190
 2.3230	12.6950
 2.3240	12.6700
 2.3250	12.6490
 2.3260	12.6220
 2.3270	12.5910
 2.3280	12.5600
 2.3290	12.5250
 2.3300	12.4930
 2.3310	12.4620
 2.3320	12.4300
 2.3330	12.4040
 2.3340	12.3720
 2.3350	12.3390
 2.3360	12.3060
 2.3370	12.2700
 2.3380	12.2340
 2.3390	12.1980
 2.3400	12.1630
 2.3410	12.1280
 2.3420	12.0950
 2.3430	12.0660
 2.3440	12.0360
 2.3450	12.0090
 2.3460	11.9800
 2.3470	11.9490
 2.3480	11.9210
 2.3490	11.8960
 2.3500	11.8740
 2.3510	11.8600
 2.3520	11.8400
 2.3530	11.8220
 2.3540	11.7980
 2.3550	11.7750
 2.3560	11.7520
 2.3570	11.7210
 2.3580	11.6900
 2.3590	11.6640
 2.3600	11.6360
 2.3610	11.6150
 2.3620	11.6020
 2.3630	11.5770
 2.3640	11.5480
 2.3650	11.5250
 2.3660	11.5010
 2.3670	11.4770
 2.3680	11.4500
 2.3690	11.4220
 2.3700	11.3880
 2.3710	11.3500
 2.3720	11.3240
 2.3730	11.3000
 2.3740	11.2740
 2.3750	11.2520
 2.3760	11.2240
 2.3770	11.1870
 2.3780	11.1580
 2.3790	11.1270
 2.3800	11.0940
 2.3810	11.0610
 2.3820	11.0200
 2.3830	10.9830
 2.3840	10.9470
 2.3850	10.9160
 2.3860	10.8900
 2.3870	10.8590
 2.3880	10.8330
 2.3890	10.8020
 2.3900	10.7660
 2.3910	10.7380
 2.3920	10.7000
 2.3930	10.6530
 2.3940	10.6060
 2.3950	10.5630
 2.3960	10.5240
 2.3970	10.4950
 2.3980	10.4670
 2.3990	10.4320
 2.4000	10.3920
 2.4010	10.3610
 2.4020	10.3230
 2.4030	10.2740
 2.4040	10.2350
 2.4050	10.1870
 2.4060	10.1340
 2.4070	10.0910
 2.4080	10.0570
 2.4090	10.0210
 2.4100	 9.9900
 2.4110	 9.9610
 2.4120	 9.9150
 2.4130	 9.8540
 2.4140	 9.7950
 2.4150	 9.7400
 2.4160	 9.7020
 2.4170	 9.6790
 2.4180	 9.6650
 2.4190	 9.6350
 2.4200	 9.5900
 2.4210	 9.5370
 2.4220	 9.4770
 2.4230	 9.4410
 2.4240	 9.4130
 2.4250	 9.3790
 2.4260	 9.3470
 2.4270	 9.2980
 2.4280	 9.2430
 2.4290	 9.2180
 2.4300	 9.1880
 2.4310	 9.1530
 2.4320	 9.1250
 2.4330	 9.0810
 2.4340	 9.0270
 2.4350	 8.9850
 2.4360	 8.9380
 2.4370	 8.8920
 2.4380	 8.8570
 2.4390	 8.8290
 2.4400	 8.8070
 2.4410	 8.7830
 2.4420	 8.7610
 2.4430	 8.7350
 2.4440	 8.6920
 2.4450	 8.6440
 2.4460	 8.5840
 2.4470	 8.5370
 2.4480	 8.5090
 2.4490	 8.4910
 2.4500	 8.4790
 2.4510	 8.4650
 2.4520	 8.4320
 2.4530	 8.3850
 2.4540	 8.3420
 2.4550	 8.2930
 2.4560	 8.2410
 2.4570	 8.2180
 2.4580	 8.1990
 2.4590	 8.1710
 2.4600	 8.1490
 2.4610	 8.1070
 2.4620	 8.0660
 2.4630	 8.0360
 2.4640	 7.9990
 2.4650	 7.9780
 2.4660	 7.9790
 2.4670	 7.9690
 2.4680	 7.9520
 2.4690	 7.9270
 2.4700	 7.8940
 2.4710	 7.8430
 2.4720	 7.8160
 2.4730	 7.8200
 2.4740	 7.8000
 2.4750	 7.7680
 2.4760	 7.7640
 2.4770	 7.7450
 2.4780	 7.7140
 2.4790	 7.7190
 2.4800	 7.7110
 2.4810	 7.6860
 2.4820	 7.6920
 2.4830	 7.6570
 2.4840	 7.6200
 2.4850	 7.5860
 2.4860	 7.5570
 2.4870	 7.5520
 2.4880	 7.5230
 2.4890	 7.5010
 2.4900	 7.4880
 2.4910	 7.4950
 2.4920	 7.5210
 2.4930	 7.4980
 2.4940	 7.4830
 2.4950	 7.4620
 2.4960	 7.4250
 2.4970	 7.4360
 2.4980	 7.4360
 2.4990	 7.4740
 2.5000	 7.5070
