Name: Adenostoma fasciculatum 2
Type: vegetation
Class: Shrub
Genus: Adenostoma
Species: fasciculatum
Sample No.: VH041
Owner: UCSB
Wavelength Range: VSWIR
Origin: 34.5084; -119.7687; WGS84
Collection Date: 4/1/2013
Description: Samples were collected as part of the HyspIRI Airborne Campaign. 48 individual plants were sampled in three times in 2013 - spring  summer  and fall. The name of the sample includes a 1  2  or 3 which references a different individual of the species. Samples were taken to JPL and processed within 48 hours of collection. The same leaves were processed in the Nicolet and then measured using the ASD.
Measurement: Bidirectional reflectance
First Column: X
Second Column: Y
X Units: Wavelength (micrometers)
Y Units: Reflectance (percentage)
First X Value: 0.35
Last X Value: 2.5
Number of X Values: 2151
Additional Information: vegetation.shrub.adenostoma.fasciculatum.vswir.vh041.ucsb.asd.ancillary.txt

 0.3500	 1.8710
 0.3510	 1.6420
 0.3520	 1.7660
 0.3530	 2.0060
 0.3540	 2.0270
 0.3550	 1.7230
 0.3560	 1.6560
 0.3570	 1.8050
 0.3580	 1.8510
 0.3590	 1.8510
 0.3600	 1.8270
 0.3610	 1.8230
 0.3620	 1.9230
 0.3630	 1.9130
 0.3640	 1.8470
 0.3650	 1.8180
 0.3660	 1.8010
 0.3670	 1.7950
 0.3680	 1.7860
 0.3690	 1.7480
 0.3700	 1.7360
 0.3710	 1.7310
 0.3720	 1.7130
 0.3730	 1.6640
 0.3740	 1.7600
 0.3750	 1.8590
 0.3760	 1.7900
 0.3770	 1.7830
 0.3780	 1.7880
 0.3790	 1.7900
 0.3800	 1.8060
 0.3810	 1.8250
 0.3820	 1.7860
 0.3830	 1.7050
 0.3840	 1.7860
 0.3850	 1.8010
 0.3860	 1.8020
 0.3870	 1.9010
 0.3880	 1.9410
 0.3890	 1.8630
 0.3900	 1.7480
 0.3910	 1.7930
 0.3920	 1.8210
 0.3930	 1.8130
 0.3940	 1.8000
 0.3950	 1.8390
 0.3960	 1.8690
 0.3970	 1.8780
 0.3980	 1.8800
 0.3990	 1.8550
 0.4000	 1.8510
 0.4010	 1.8790
 0.4020	 1.8990
 0.4030	 1.9090
 0.4040	 1.9230
 0.4050	 1.9510
 0.4060	 1.9700
 0.4070	 1.9570
 0.4080	 1.9450
 0.4090	 1.9960
 0.4100	 2.0440
 0.4110	 2.0630
 0.4120	 2.0590
 0.4130	 2.0740
 0.4140	 2.0840
 0.4150	 2.0990
 0.4160	 2.1300
 0.4170	 2.1470
 0.4180	 2.1600
 0.4190	 2.1820
 0.4200	 2.2240
 0.4210	 2.2520
 0.4220	 2.2650
 0.4230	 2.2740
 0.4240	 2.3140
 0.4250	 2.3240
 0.4260	 2.3250
 0.4270	 2.3670
 0.4280	 2.3860
 0.4290	 2.4110
 0.4300	 2.4460
 0.4310	 2.4490
 0.4320	 2.4750
 0.4330	 2.5030
 0.4340	 2.5100
 0.4350	 2.5280
 0.4360	 2.5420
 0.4370	 2.5510
 0.4380	 2.5580
 0.4390	 2.5610
 0.4400	 2.5650
 0.4410	 2.5750
 0.4420	 2.6030
 0.4430	 2.6170
 0.4440	 2.6280
 0.4450	 2.6530
 0.4460	 2.6610
 0.4470	 2.6740
 0.4480	 2.6940
 0.4490	 2.6990
 0.4500	 2.7080
 0.4510	 2.7220
 0.4520	 2.7380
 0.4530	 2.7480
 0.4540	 2.7530
 0.4550	 2.7650
 0.4560	 2.7940
 0.4570	 2.8010
 0.4580	 2.8030
 0.4590	 2.8110
 0.4600	 2.8140
 0.4610	 2.8220
 0.4620	 2.8360
 0.4630	 2.8490
 0.4640	 2.8450
 0.4650	 2.8470
 0.4660	 2.8580
 0.4670	 2.8650
 0.4680	 2.8740
 0.4690	 2.8760
 0.4700	 2.8710
 0.4710	 2.8780
 0.4720	 2.8920
 0.4730	 2.9010
 0.4740	 2.8920
 0.4750	 2.8980
 0.4760	 2.9100
 0.4770	 2.9190
 0.4780	 2.9210
 0.4790	 2.9220
 0.4800	 2.9260
 0.4810	 2.9330
 0.4820	 2.9420
 0.4830	 2.9490
 0.4840	 2.9530
 0.4850	 2.9640
 0.4860	 2.9700
 0.4870	 2.9840
 0.4880	 3.0080
 0.4890	 3.0120
 0.4900	 3.0180
 0.4910	 3.0310
 0.4920	 3.0460
 0.4930	 3.0740
 0.4940	 3.0920
 0.4950	 3.0960
 0.4960	 3.1140
 0.4970	 3.1410
 0.4980	 3.1720
 0.4990	 3.2020
 0.5000	 3.2260
 0.5010	 3.2610
 0.5020	 3.3040
 0.5030	 3.3410
 0.5040	 3.3860
 0.5050	 3.4350
 0.5060	 3.4840
 0.5070	 3.5430
 0.5080	 3.6030
 0.5090	 3.6650
 0.5100	 3.7360
 0.5110	 3.8190
 0.5120	 3.9030
 0.5130	 3.9860
 0.5140	 4.0700
 0.5150	 4.1740
 0.5160	 4.2920
 0.5170	 4.4120
 0.5180	 4.5320
 0.5190	 4.6570
 0.5200	 4.7880
 0.5210	 4.9180
 0.5220	 5.0490
 0.5230	 5.1820
 0.5240	 5.3170
 0.5250	 5.4450
 0.5260	 5.5710
 0.5270	 5.6940
 0.5280	 5.8120
 0.5290	 5.9170
 0.5300	 6.0140
 0.5310	 6.1060
 0.5320	 6.1920
 0.5330	 6.2720
 0.5340	 6.3460
 0.5350	 6.4160
 0.5360	 6.4800
 0.5370	 6.5350
 0.5380	 6.5820
 0.5390	 6.6300
 0.5400	 6.6760
 0.5410	 6.7240
 0.5420	 6.7740
 0.5430	 6.8260
 0.5440	 6.8660
 0.5450	 6.8990
 0.5460	 6.9320
 0.5470	 6.9530
 0.5480	 6.9730
 0.5490	 6.9970
 0.5500	 7.0190
 0.5510	 7.0370
 0.5520	 7.0510
 0.5530	 7.0570
 0.5540	 7.0570
 0.5550	 7.0480
 0.5560	 7.0300
 0.5570	 7.0030
 0.5580	 6.9700
 0.5590	 6.9310
 0.5600	 6.8850
 0.5610	 6.8370
 0.5620	 6.7820
 0.5630	 6.7210
 0.5640	 6.6550
 0.5650	 6.5870
 0.5660	 6.5170
 0.5670	 6.4440
 0.5680	 6.3670
 0.5690	 6.2880
 0.5700	 6.2050
 0.5710	 6.1190
 0.5720	 6.0390
 0.5730	 5.9630
 0.5740	 5.8910
 0.5750	 5.8200
 0.5760	 5.7550
 0.5770	 5.6950
 0.5780	 5.6410
 0.5790	 5.5970
 0.5800	 5.5540
 0.5810	 5.5090
 0.5820	 5.4640
 0.5830	 5.4210
 0.5840	 5.3780
 0.5850	 5.3390
 0.5860	 5.3060
 0.5870	 5.2800
 0.5880	 5.2560
 0.5890	 5.2290
 0.5900	 5.2050
 0.5910	 5.1850
 0.5920	 5.1670
 0.5930	 5.1480
 0.5940	 5.1370
 0.5950	 5.1240
 0.5960	 5.1080
 0.5970	 5.0990
 0.5980	 5.0970
 0.5990	 5.0930
 0.6000	 5.0790
 0.6010	 5.0630
 0.6020	 5.0490
 0.6030	 5.0320
 0.6040	 5.0080
 0.6050	 4.9850
 0.6060	 4.9580
 0.6070	 4.9240
 0.6080	 4.8920
 0.6090	 4.8570
 0.6100	 4.8260
 0.6110	 4.8030
 0.6120	 4.7700
 0.6130	 4.7260
 0.6140	 4.6810
 0.6150	 4.6490
 0.6160	 4.6150
 0.6170	 4.5810
 0.6180	 4.5480
 0.6190	 4.5250
 0.6200	 4.5040
 0.6210	 4.4850
 0.6220	 4.4700
 0.6230	 4.4580
 0.6240	 4.4450
 0.6250	 4.4300
 0.6260	 4.4300
 0.6270	 4.4270
 0.6280	 4.4230
 0.6290	 4.4230
 0.6300	 4.4210
 0.6310	 4.4210
 0.6320	 4.4200
 0.6330	 4.4120
 0.6340	 4.3990
 0.6350	 4.3850
 0.6360	 4.3690
 0.6370	 4.3450
 0.6380	 4.3150
 0.6390	 4.2820
 0.6400	 4.2450
 0.6410	 4.2130
 0.6420	 4.1750
 0.6430	 4.1310
 0.6440	 4.0930
 0.6450	 4.0560
 0.6460	 4.0170
 0.6470	 3.9760
 0.6480	 3.9420
 0.6490	 3.9120
 0.6500	 3.8870
 0.6510	 3.8660
 0.6520	 3.8490
 0.6530	 3.8330
 0.6540	 3.8150
 0.6550	 3.7970
 0.6560	 3.7770
 0.6570	 3.7530
 0.6580	 3.7240
 0.6590	 3.6980
 0.6600	 3.6660
 0.6610	 3.6290
 0.6620	 3.5980
 0.6630	 3.5710
 0.6640	 3.5440
 0.6650	 3.5170
 0.6660	 3.4960
 0.6670	 3.4790
 0.6680	 3.4630
 0.6690	 3.4480
 0.6700	 3.4380
 0.6710	 3.4370
 0.6720	 3.4420
 0.6730	 3.4420
 0.6740	 3.4450
 0.6750	 3.4540
 0.6760	 3.4670
 0.6770	 3.4820
 0.6780	 3.5020
 0.6790	 3.5260
 0.6800	 3.5530
 0.6810	 3.5820
 0.6820	 3.6190
 0.6830	 3.6650
 0.6840	 3.7180
 0.6850	 3.7830
 0.6860	 3.8600
 0.6870	 3.9480
 0.6880	 4.0540
 0.6890	 4.1840
 0.6900	 4.3430
 0.6910	 4.5310
 0.6920	 4.7500
 0.6930	 5.0090
 0.6940	 5.3100
 0.6950	 5.6460
 0.6960	 6.0270
 0.6970	 6.4500
 0.6980	 6.9090
 0.6990	 7.4120
 0.7000	 7.9480
 0.7010	 8.5110
 0.7020	 9.0970
 0.7030	 9.7100
 0.7040	10.3440
 0.7050	10.9920
 0.7060	11.6540
 0.7070	12.3310
 0.7080	13.0210
 0.7090	13.7270
 0.7100	14.4440
 0.7110	15.1780
 0.7120	15.9280
 0.7130	16.6900
 0.7140	17.4680
 0.7150	18.2590
 0.7160	19.0630
 0.7170	19.8810
 0.7180	20.7040
 0.7190	21.5340
 0.7200	22.3780
 0.7210	23.2270
 0.7220	24.0760
 0.7230	24.9240
 0.7240	25.7710
 0.7250	26.6140
 0.7260	27.4450
 0.7270	28.2620
 0.7280	29.0660
 0.7290	29.8520
 0.7300	30.6170
 0.7310	31.3600
 0.7320	32.0820
 0.7330	32.7820
 0.7340	33.4570
 0.7350	34.0990
 0.7360	34.7170
 0.7370	35.3080
 0.7380	35.8670
 0.7390	36.3980
 0.7400	36.9060
 0.7410	37.3890
 0.7420	37.8410
 0.7430	38.2700
 0.7440	38.6720
 0.7450	39.0470
 0.7460	39.3960
 0.7470	39.7220
 0.7480	40.0260
 0.7490	40.3070
 0.7500	40.5720
 0.7510	40.8160
 0.7520	41.0410
 0.7530	41.2500
 0.7540	41.4370
 0.7550	41.6100
 0.7560	41.7730
 0.7570	41.9270
 0.7580	42.0660
 0.7590	42.1930
 0.7600	42.3120
 0.7610	42.4210
 0.7620	42.5270
 0.7630	42.6220
 0.7640	42.7040
 0.7650	42.7860
 0.7660	42.8660
 0.7670	42.9410
 0.7680	43.0110
 0.7690	43.0740
 0.7700	43.1320
 0.7710	43.1850
 0.7720	43.2400
 0.7730	43.2960
 0.7740	43.3500
 0.7750	43.3970
 0.7760	43.4430
 0.7770	43.4860
 0.7780	43.5310
 0.7790	43.5830
 0.7800	43.6280
 0.7810	43.6660
 0.7820	43.7020
 0.7830	43.7480
 0.7840	43.7920
 0.7850	43.8290
 0.7860	43.8590
 0.7870	43.8980
 0.7880	43.9350
 0.7890	43.9720
 0.7900	44.0120
 0.7910	44.0540
 0.7920	44.0880
 0.7930	44.1190
 0.7940	44.1540
 0.7950	44.1860
 0.7960	44.2120
 0.7970	44.2350
 0.7980	44.2720
 0.7990	44.3030
 0.8000	44.3330
 0.8010	44.3640
 0.8020	44.3910
 0.8030	44.4120
 0.8040	44.4330
 0.8050	44.4630
 0.8060	44.4970
 0.8070	44.5210
 0.8080	44.5400
 0.8090	44.5690
 0.8100	44.5890
 0.8110	44.6120
 0.8120	44.6410
 0.8130	44.6590
 0.8140	44.6770
 0.8150	44.6950
 0.8160	44.7130
 0.8170	44.7330
 0.8180	44.7570
 0.8190	44.7790
 0.8200	44.7960
 0.8210	44.8170
 0.8220	44.8350
 0.8230	44.8500
 0.8240	44.8670
 0.8250	44.8870
 0.8260	44.9030
 0.8270	44.9140
 0.8280	44.9320
 0.8290	44.9430
 0.8300	44.9540
 0.8310	44.9690
 0.8320	44.9860
 0.8330	44.9970
 0.8340	45.0080
 0.8350	45.0240
 0.8360	45.0380
 0.8370	45.0600
 0.8380	45.0830
 0.8390	45.0930
 0.8400	45.1170
 0.8410	45.1450
 0.8420	45.1670
 0.8430	45.1900
 0.8440	45.2050
 0.8450	45.2210
 0.8460	45.2460
 0.8470	45.2770
 0.8480	45.2900
 0.8490	45.3030
 0.8500	45.3360
 0.8510	45.3540
 0.8520	45.3750
 0.8530	45.3990
 0.8540	45.4120
 0.8550	45.4280
 0.8560	45.4480
 0.8570	45.4740
 0.8580	45.5040
 0.8590	45.5220
 0.8600	45.5360
 0.8610	45.5530
 0.8620	45.5750
 0.8630	45.5960
 0.8640	45.6120
 0.8650	45.6260
 0.8660	45.6410
 0.8670	45.6640
 0.8680	45.6910
 0.8690	45.7130
 0.8700	45.7210
 0.8710	45.7350
 0.8720	45.7590
 0.8730	45.7810
 0.8740	45.7900
 0.8750	45.7970
 0.8760	45.8120
 0.8770	45.8410
 0.8780	45.8730
 0.8790	45.8940
 0.8800	45.9060
 0.8810	45.9220
 0.8820	45.9260
 0.8830	45.9340
 0.8840	45.9550
 0.8850	45.9790
 0.8860	45.9860
 0.8870	45.9860
 0.8880	45.9950
 0.8890	45.9940
 0.8900	45.9980
 0.8910	46.0090
 0.8920	46.0240
 0.8930	46.0330
 0.8940	46.0430
 0.8950	46.0520
 0.8960	46.0550
 0.8970	46.0570
 0.8980	46.0580
 0.8990	46.0630
 0.9000	46.0800
 0.9010	46.0900
 0.9020	46.0940
 0.9030	46.0960
 0.9040	46.1000
 0.9050	46.1050
 0.9060	46.1100
 0.9070	46.1130
 0.9080	46.1150
 0.9090	46.1270
 0.9100	46.1350
 0.9110	46.1330
 0.9120	46.1500
 0.9130	46.1560
 0.9140	46.1570
 0.9150	46.1640
 0.9160	46.1570
 0.9170	46.1540
 0.9180	46.1520
 0.9190	46.1460
 0.9200	46.1440
 0.9210	46.1500
 0.9220	46.1600
 0.9230	46.1660
 0.9240	46.1490
 0.9250	46.1330
 0.9260	46.1250
 0.9270	46.1160
 0.9280	46.0920
 0.9290	46.0760
 0.9300	46.0650
 0.9310	46.0310
 0.9320	46.0090
 0.9330	45.9810
 0.9340	45.9450
 0.9350	45.9240
 0.9360	45.8950
 0.9370	45.8570
 0.9380	45.8130
 0.9390	45.7720
 0.9400	45.7450
 0.9410	45.7110
 0.9420	45.6570
 0.9430	45.5990
 0.9440	45.5370
 0.9450	45.4780
 0.9460	45.4210
 0.9470	45.3570
 0.9480	45.2650
 0.9490	45.1620
 0.9500	45.0660
 0.9510	44.9700
 0.9520	44.8670
 0.9530	44.7550
 0.9540	44.6340
 0.9550	44.5020
 0.9560	44.3760
 0.9570	44.2770
 0.9580	44.2000
 0.9590	44.0820
 0.9600	43.9960
 0.9610	43.9290
 0.9620	43.8460
 0.9630	43.7720
 0.9640	43.7030
 0.9650	43.6510
 0.9660	43.6240
 0.9670	43.5890
 0.9680	43.5410
 0.9690	43.5030
 0.9700	43.4990
 0.9710	43.4730
 0.9720	43.4460
 0.9730	43.4230
 0.9740	43.4040
 0.9750	43.3950
 0.9760	43.3890
 0.9770	43.3820
 0.9780	43.3740
 0.9790	43.3820
 0.9800	43.3950
 0.9810	43.4070
 0.9820	43.4150
 0.9830	43.4350
 0.9840	43.4480
 0.9850	43.4660
 0.9860	43.5080
 0.9870	43.5460
 0.9880	43.5860
 0.9890	43.6110
 0.9900	43.6120
 0.9910	43.6720
 0.9920	43.7950
 0.9930	43.9170
 0.9940	44.0390
 0.9950	44.1620
 0.9960	44.2840
 0.9970	44.4060
 0.9980	44.5290
 0.9990	44.6510
 1.0000	44.7730
 1.0010	44.8960
 1.0020	45.0180
 1.0030	45.1400
 1.0040	45.2620
 1.0050	45.3850
 1.0060	45.5070
 1.0070	45.6290
 1.0080	45.7520
 1.0090	45.8740
 1.0100	45.8740
 1.0110	45.9320
 1.0120	45.9900
 1.0130	46.0540
 1.0140	46.1130
 1.0150	46.1670
 1.0160	46.2250
 1.0170	46.2830
 1.0180	46.3440
 1.0190	46.4060
 1.0200	46.4640
 1.0210	46.5240
 1.0220	46.5850
 1.0230	46.6430
 1.0240	46.7020
 1.0250	46.7600
 1.0260	46.8180
 1.0270	46.8750
 1.0280	46.9330
 1.0290	46.9900
 1.0300	47.0450
 1.0310	47.0990
 1.0320	47.1550
 1.0330	47.2060
 1.0340	47.2520
 1.0350	47.3040
 1.0360	47.3570
 1.0370	47.4090
 1.0380	47.4610
 1.0390	47.5160
 1.0400	47.5650
 1.0410	47.6100
 1.0420	47.6560
 1.0430	47.7000
 1.0440	47.7440
 1.0450	47.7900
 1.0460	47.8320
 1.0470	47.8740
 1.0480	47.9130
 1.0490	47.9500
 1.0500	47.9850
 1.0510	48.0180
 1.0520	48.0540
 1.0530	48.0860
 1.0540	48.1180
 1.0550	48.1470
 1.0560	48.1750
 1.0570	48.2020
 1.0580	48.2300
 1.0590	48.2560
 1.0600	48.2820
 1.0610	48.3060
 1.0620	48.3280
 1.0630	48.3490
 1.0640	48.3690
 1.0650	48.3870
 1.0660	48.4000
 1.0670	48.4170
 1.0680	48.4330
 1.0690	48.4520
 1.0700	48.4660
 1.0710	48.4810
 1.0720	48.4910
 1.0730	48.4970
 1.0740	48.5040
 1.0750	48.5100
 1.0760	48.5150
 1.0770	48.5190
 1.0780	48.5210
 1.0790	48.5190
 1.0800	48.5170
 1.0810	48.5080
 1.0820	48.5050
 1.0830	48.5090
 1.0840	48.5070
 1.0850	48.5030
 1.0860	48.4990
 1.0870	48.4930
 1.0880	48.4820
 1.0890	48.4730
 1.0900	48.4660
 1.0910	48.4550
 1.0920	48.4400
 1.0930	48.4250
 1.0940	48.4070
 1.0950	48.3910
 1.0960	48.3790
 1.0970	48.3610
 1.0980	48.3420
 1.0990	48.3250
 1.1000	48.3040
 1.1010	48.2840
 1.1020	48.2680
 1.1030	48.2500
 1.1040	48.2290
 1.1050	48.2060
 1.1060	48.1800
 1.1070	48.1530
 1.1080	48.1240
 1.1090	48.0920
 1.1100	48.0590
 1.1110	48.0250
 1.1120	47.9890
 1.1130	47.9520
 1.1140	47.9120
 1.1150	47.8730
 1.1160	47.8270
 1.1170	47.7780
 1.1180	47.7220
 1.1190	47.6610
 1.1200	47.5900
 1.1210	47.5150
 1.1220	47.4350
 1.1230	47.3450
 1.1240	47.2500
 1.1250	47.1420
 1.1260	47.0270
 1.1270	46.8980
 1.1280	46.7580
 1.1290	46.6070
 1.1300	46.4440
 1.1310	46.2690
 1.1320	46.0840
 1.1330	45.8860
 1.1340	45.6750
 1.1350	45.4510
 1.1360	45.2140
 1.1370	44.9660
 1.1380	44.7090
 1.1390	44.4440
 1.1400	44.1710
 1.1410	43.8950
 1.1420	43.6160
 1.1430	43.3310
 1.1440	43.0500
 1.1450	42.7650
 1.1460	42.4890
 1.1470	42.2110
 1.1480	41.9480
 1.1490	41.6900
 1.1500	41.4480
 1.1510	41.2150
 1.1520	40.9970
 1.1530	40.7910
 1.1540	40.5990
 1.1550	40.4190
 1.1560	40.2520
 1.1570	40.0970
 1.1580	39.9580
 1.1590	39.8300
 1.1600	39.7150
 1.1610	39.6110
 1.1620	39.5190
 1.1630	39.4340
 1.1640	39.3540
 1.1650	39.2790
 1.1660	39.2120
 1.1670	39.1500
 1.1680	39.0960
 1.1690	39.0430
 1.1700	38.9960
 1.1710	38.9480
 1.1720	38.9010
 1.1730	38.8550
 1.1740	38.8100
 1.1750	38.7660
 1.1760	38.7220
 1.1770	38.6750
 1.1780	38.6280
 1.1790	38.5780
 1.1800	38.5290
 1.1810	38.4810
 1.1820	38.4310
 1.1830	38.3830
 1.1840	38.3350
 1.1850	38.2890
 1.1860	38.2460
 1.1870	38.2080
 1.1880	38.1700
 1.1890	38.1350
 1.1900	38.1020
 1.1910	38.0710
 1.1920	38.0440
 1.1930	38.0200
 1.1940	38.0000
 1.1950	37.9840
 1.1960	37.9710
 1.1970	37.9610
 1.1980	37.9540
 1.1990	37.9540
 1.2000	37.9570
 1.2010	37.9660
 1.2020	37.9810
 1.2030	37.9990
 1.2040	38.0230
 1.2050	38.0530
 1.2060	38.0870
 1.2070	38.1280
 1.2080	38.1730
 1.2090	38.2220
 1.2100	38.2760
 1.2110	38.3330
 1.2120	38.3940
 1.2130	38.4600
 1.2140	38.5330
 1.2150	38.6070
 1.2160	38.6850
 1.2170	38.7650
 1.2180	38.8470
 1.2190	38.9300
 1.2200	39.0160
 1.2210	39.1010
 1.2220	39.1850
 1.2230	39.2720
 1.2240	39.3580
 1.2250	39.4430
 1.2260	39.5260
 1.2270	39.6090
 1.2280	39.6860
 1.2290	39.7620
 1.2300	39.8370
 1.2310	39.9060
 1.2320	39.9740
 1.2330	40.0410
 1.2340	40.1050
 1.2350	40.1680
 1.2360	40.2300
 1.2370	40.2890
 1.2380	40.3480
 1.2390	40.4060
 1.2400	40.4610
 1.2410	40.5140
 1.2420	40.5670
 1.2430	40.6180
 1.2440	40.6680
 1.2450	40.7190
 1.2460	40.7670
 1.2470	40.8120
 1.2480	40.8560
 1.2490	40.8990
 1.2500	40.9390
 1.2510	40.9770
 1.2520	41.0140
 1.2530	41.0490
 1.2540	41.0840
 1.2550	41.1180
 1.2560	41.1490
 1.2570	41.1790
 1.2580	41.2070
 1.2590	41.2310
 1.2600	41.2530
 1.2610	41.2750
 1.2620	41.2930
 1.2630	41.3100
 1.2640	41.3260
 1.2650	41.3410
 1.2660	41.3550
 1.2670	41.3660
 1.2680	41.3740
 1.2690	41.3830
 1.2700	41.3890
 1.2710	41.3930
 1.2720	41.3990
 1.2730	41.4010
 1.2740	41.4010
 1.2750	41.3990
 1.2760	41.3930
 1.2770	41.3860
 1.2780	41.3780
 1.2790	41.3660
 1.2800	41.3520
 1.2810	41.3350
 1.2820	41.3150
 1.2830	41.2920
 1.2840	41.2660
 1.2850	41.2350
 1.2860	41.2000
 1.2870	41.1620
 1.2880	41.1180
 1.2890	41.0720
 1.2900	41.0230
 1.2910	40.9680
 1.2920	40.9100
 1.2930	40.8460
 1.2940	40.7770
 1.2950	40.7030
 1.2960	40.6250
 1.2970	40.5440
 1.2980	40.4590
 1.2990	40.3690
 1.3000	40.2770
 1.3010	40.1790
 1.3020	40.0760
 1.3030	39.9700
 1.3040	39.8560
 1.3050	39.7390
 1.3060	39.6210
 1.3070	39.4970
 1.3080	39.3670
 1.3090	39.2310
 1.3100	39.0910
 1.3110	38.9440
 1.3120	38.7950
 1.3130	38.6460
 1.3140	38.4900
 1.3150	38.3300
 1.3160	38.1660
 1.3170	37.9980
 1.3180	37.8250
 1.3190	37.6480
 1.3200	37.4690
 1.3210	37.2830
 1.3220	37.0940
 1.3230	36.9030
 1.3240	36.7070
 1.3250	36.5110
 1.3260	36.3110
 1.3270	36.1070
 1.3280	35.9010
 1.3290	35.6900
 1.3300	35.4810
 1.3310	35.2710
 1.3320	35.0580
 1.3330	34.8450
 1.3340	34.6330
 1.3350	34.4190
 1.3360	34.2070
 1.3370	33.9980
 1.3380	33.7880
 1.3390	33.5790
 1.3400	33.3720
 1.3410	33.1690
 1.3420	32.9680
 1.3430	32.7700
 1.3440	32.5750
 1.3450	32.3820
 1.3460	32.1880
 1.3470	32.0010
 1.3480	31.8150
 1.3490	31.6330
 1.3500	31.4550
 1.3510	31.2810
 1.3520	31.1080
 1.3530	30.9360
 1.3540	30.7670
 1.3550	30.5980
 1.3560	30.4280
 1.3570	30.2580
 1.3580	30.0890
 1.3590	29.9170
 1.3600	29.7430
 1.3610	29.5690
 1.3620	29.3880
 1.3630	29.2040
 1.3640	29.0160
 1.3650	28.8190
 1.3660	28.6160
 1.3670	28.4060
 1.3680	28.1860
 1.3690	27.9570
 1.3700	27.7140
 1.3710	27.4590
 1.3720	27.1910
 1.3730	26.9050
 1.3740	26.6080
 1.3750	26.2940
 1.3760	25.9600
 1.3770	25.6100
 1.3780	25.2370
 1.3790	24.8450
 1.3800	24.4380
 1.3810	24.0110
 1.3820	23.5730
 1.3830	23.1220
 1.3840	22.6590
 1.3850	22.1820
 1.3860	21.7010
 1.3870	21.2060
 1.3880	20.7150
 1.3890	20.2190
 1.3900	19.7210
 1.3910	19.2320
 1.3920	18.7440
 1.3930	18.2590
 1.3940	17.7840
 1.3950	17.3120
 1.3960	16.8510
 1.3970	16.4030
 1.3980	15.9670
 1.3990	15.5530
 1.4000	15.1530
 1.4010	14.7680
 1.4020	14.4030
 1.4030	14.0500
 1.4040	13.7150
 1.4050	13.3980
 1.4060	13.0970
 1.4070	12.8170
 1.4080	12.5530
 1.4090	12.3040
 1.4100	12.0720
 1.4110	11.8540
 1.4120	11.6490
 1.4130	11.4590
 1.4140	11.2820
 1.4150	11.1190
 1.4160	10.9680
 1.4170	10.8270
 1.4180	10.6970
 1.4190	10.5750
 1.4200	10.4610
 1.4210	10.3570
 1.4220	10.2610
 1.4230	10.1730
 1.4240	10.0940
 1.4250	10.0190
 1.4260	 9.9510
 1.4270	 9.8880
 1.4280	 9.8300
 1.4290	 9.7780
 1.4300	 9.7310
 1.4310	 9.6880
 1.4320	 9.6500
 1.4330	 9.6150
 1.4340	 9.5840
 1.4350	 9.5560
 1.4360	 9.5320
 1.4370	 9.5130
 1.4380	 9.4950
 1.4390	 9.4810
 1.4400	 9.4700
 1.4410	 9.4600
 1.4420	 9.4540
 1.4430	 9.4490
 1.4440	 9.4470
 1.4450	 9.4450
 1.4460	 9.4460
 1.4470	 9.4470
 1.4480	 9.4510
 1.4490	 9.4550
 1.4500	 9.4620
 1.4510	 9.4690
 1.4520	 9.4780
 1.4530	 9.4890
 1.4540	 9.5000
 1.4550	 9.5130
 1.4560	 9.5270
 1.4570	 9.5420
 1.4580	 9.5590
 1.4590	 9.5780
 1.4600	 9.6000
 1.4610	 9.6240
 1.4620	 9.6500
 1.4630	 9.6790
 1.4640	 9.7100
 1.4650	 9.7440
 1.4660	 9.7820
 1.4670	 9.8220
 1.4680	 9.8660
 1.4690	 9.9120
 1.4700	 9.9600
 1.4710	10.0120
 1.4720	10.0650
 1.4730	10.1210
 1.4740	10.1810
 1.4750	10.2420
 1.4760	10.3060
 1.4770	10.3730
 1.4780	10.4400
 1.4790	10.5090
 1.4800	10.5780
 1.4810	10.6490
 1.4820	10.7220
 1.4830	10.7960
 1.4840	10.8720
 1.4850	10.9480
 1.4860	11.0250
 1.4870	11.1030
 1.4880	11.1810
 1.4890	11.2610
 1.4900	11.3410
 1.4910	11.4210
 1.4920	11.5030
 1.4930	11.5850
 1.4940	11.6680
 1.4950	11.7530
 1.4960	11.8370
 1.4970	11.9210
 1.4980	12.0050
 1.4990	12.0880
 1.5000	12.1730
 1.5010	12.2590
 1.5020	12.3450
 1.5030	12.4320
 1.5040	12.5180
 1.5050	12.6020
 1.5060	12.6880
 1.5070	12.7730
 1.5080	12.8580
 1.5090	12.9440
 1.5100	13.0300
 1.5110	13.1160
 1.5120	13.2020
 1.5130	13.2860
 1.5140	13.3700
 1.5150	13.4540
 1.5160	13.5380
 1.5170	13.6230
 1.5180	13.7080
 1.5190	13.7920
 1.5200	13.8750
 1.5210	13.9570
 1.5220	14.0400
 1.5230	14.1220
 1.5240	14.2040
 1.5250	14.2860
 1.5260	14.3680
 1.5270	14.4480
 1.5280	14.5270
 1.5290	14.6060
 1.5300	14.6840
 1.5310	14.7630
 1.5320	14.8410
 1.5330	14.9180
 1.5340	14.9950
 1.5350	15.0710
 1.5360	15.1480
 1.5370	15.2240
 1.5380	15.2980
 1.5390	15.3720
 1.5400	15.4440
 1.5410	15.5180
 1.5420	15.5920
 1.5430	15.6640
 1.5440	15.7370
 1.5450	15.8080
 1.5460	15.8790
 1.5470	15.9500
 1.5480	16.0210
 1.5490	16.0920
 1.5500	16.1620
 1.5510	16.2310
 1.5520	16.3000
 1.5530	16.3660
 1.5540	16.4330
 1.5550	16.5000
 1.5560	16.5660
 1.5570	16.6330
 1.5580	16.6990
 1.5590	16.7650
 1.5600	16.8310
 1.5610	16.8940
 1.5620	16.9580
 1.5630	17.0210
 1.5640	17.0840
 1.5650	17.1480
 1.5660	17.2100
 1.5670	17.2720
 1.5680	17.3350
 1.5690	17.3970
 1.5700	17.4580
 1.5710	17.5190
 1.5720	17.5790
 1.5730	17.6390
 1.5740	17.7000
 1.5750	17.7600
 1.5760	17.8200
 1.5770	17.8790
 1.5780	17.9390
 1.5790	17.9990
 1.5800	18.0590
 1.5810	18.1190
 1.5820	18.1800
 1.5830	18.2390
 1.5840	18.2990
 1.5850	18.3580
 1.5860	18.4170
 1.5870	18.4770
 1.5880	18.5370
 1.5890	18.5960
 1.5900	18.6540
 1.5910	18.7120
 1.5920	18.7700
 1.5930	18.8270
 1.5940	18.8860
 1.5950	18.9460
 1.5960	19.0050
 1.5970	19.0640
 1.5980	19.1210
 1.5990	19.1780
 1.6000	19.2350
 1.6010	19.2910
 1.6020	19.3470
 1.6030	19.4040
 1.6040	19.4600
 1.6050	19.5160
 1.6060	19.5710
 1.6070	19.6250
 1.6080	19.6800
 1.6090	19.7330
 1.6100	19.7850
 1.6110	19.8370
 1.6120	19.8870
 1.6130	19.9380
 1.6140	19.9870
 1.6150	20.0350
 1.6160	20.0840
 1.6170	20.1310
 1.6180	20.1790
 1.6190	20.2270
 1.6200	20.2720
 1.6210	20.3180
 1.6220	20.3620
 1.6230	20.4040
 1.6240	20.4470
 1.6250	20.4880
 1.6260	20.5270
 1.6270	20.5660
 1.6280	20.6040
 1.6290	20.6420
 1.6300	20.6800
 1.6310	20.7170
 1.6320	20.7520
 1.6330	20.7860
 1.6340	20.8200
 1.6350	20.8520
 1.6360	20.8820
 1.6370	20.9110
 1.6380	20.9410
 1.6390	20.9670
 1.6400	20.9930
 1.6410	21.0140
 1.6420	21.0310
 1.6430	21.0470
 1.6440	21.0610
 1.6450	21.0720
 1.6460	21.0800
 1.6470	21.0860
 1.6480	21.0890
 1.6490	21.0920
 1.6500	21.0920
 1.6510	21.0900
 1.6520	21.0860
 1.6530	21.0770
 1.6540	21.0650
 1.6550	21.0510
 1.6560	21.0350
 1.6570	21.0190
 1.6580	21.0020
 1.6590	20.9840
 1.6600	20.9650
 1.6610	20.9470
 1.6620	20.9270
 1.6630	20.9080
 1.6640	20.8900
 1.6650	20.8740
 1.6660	20.8580
 1.6670	20.8430
 1.6680	20.8280
 1.6690	20.8130
 1.6700	20.7990
 1.6710	20.7850
 1.6720	20.7690
 1.6730	20.7520
 1.6740	20.7340
 1.6750	20.7140
 1.6760	20.6910
 1.6770	20.6650
 1.6780	20.6350
 1.6790	20.6020
 1.6800	20.5680
 1.6810	20.5320
 1.6820	20.4920
 1.6830	20.4480
 1.6840	20.4000
 1.6850	20.3490
 1.6860	20.2970
 1.6870	20.2430
 1.6880	20.1870
 1.6890	20.1260
 1.6900	20.0650
 1.6910	20.0010
 1.6920	19.9360
 1.6930	19.8700
 1.6940	19.8030
 1.6950	19.7350
 1.6960	19.6690
 1.6970	19.6030
 1.6980	19.5370
 1.6990	19.4710
 1.7000	19.4050
 1.7010	19.3380
 1.7020	19.2720
 1.7030	19.2060
 1.7040	19.1400
 1.7050	19.0740
 1.7060	19.0090
 1.7070	18.9430
 1.7080	18.8810
 1.7090	18.8200
 1.7100	18.7610
 1.7110	18.7040
 1.7120	18.6500
 1.7130	18.5980
 1.7140	18.5490
 1.7150	18.5030
 1.7160	18.4630
 1.7170	18.4240
 1.7180	18.3890
 1.7190	18.3570
 1.7200	18.3260
 1.7210	18.2970
 1.7220	18.2700
 1.7230	18.2460
 1.7240	18.2240
 1.7250	18.2040
 1.7260	18.1890
 1.7270	18.1740
 1.7280	18.1620
 1.7290	18.1540
 1.7300	18.1460
 1.7310	18.1370
 1.7320	18.1290
 1.7330	18.1200
 1.7340	18.1110
 1.7350	18.0990
 1.7360	18.0880
 1.7370	18.0710
 1.7380	18.0520
 1.7390	18.0270
 1.7400	17.9980
 1.7410	17.9650
 1.7420	17.9290
 1.7430	17.8900
 1.7440	17.8470
 1.7450	17.8040
 1.7460	17.7590
 1.7470	17.7130
 1.7480	17.6650
 1.7490	17.6190
 1.7500	17.5700
 1.7510	17.5250
 1.7520	17.4810
 1.7530	17.4390
 1.7540	17.3980
 1.7550	17.3590
 1.7560	17.3220
 1.7570	17.2880
 1.7580	17.2570
 1.7590	17.2280
 1.7600	17.2000
 1.7610	17.1740
 1.7620	17.1500
 1.7630	17.1300
 1.7640	17.1100
 1.7650	17.0920
 1.7660	17.0750
 1.7670	17.0570
 1.7680	17.0410
 1.7690	17.0280
 1.7700	17.0140
 1.7710	17.0010
 1.7720	16.9870
 1.7730	16.9720
 1.7740	16.9590
 1.7750	16.9480
 1.7760	16.9360
 1.7770	16.9240
 1.7780	16.9140
 1.7790	16.9050
 1.7800	16.8980
 1.7810	16.8920
 1.7820	16.8880
 1.7830	16.8850
 1.7840	16.8840
 1.7850	16.8850
 1.7860	16.8850
 1.7870	16.8870
 1.7880	16.8900
 1.7890	16.8940
 1.7900	16.9000
 1.7910	16.9070
 1.7920	16.9150
 1.7930	16.9220
 1.7940	16.9290
 1.7950	16.9380
 1.7960	16.9470
 1.7970	16.9560
 1.7980	16.9670
 1.7990	16.9790
 1.8000	16.9920
 1.8010	17.0050
 1.8020	17.0180
 1.8030	17.0310
 1.8040	17.0440
 1.8050	17.0580
 1.8060	17.0730
 1.8070	17.0860
 1.8080	17.0970
 1.8090	17.1100
 1.8100	17.1240
 1.8110	17.1320
 1.8120	17.1430
 1.8130	17.1510
 1.8140	17.1590
 1.8150	17.1690
 1.8160	17.1760
 1.8170	17.1830
 1.8180	17.1910
 1.8190	17.1990
 1.8200	17.2060
 1.8210	17.2090
 1.8220	17.2130
 1.8230	17.2160
 1.8240	17.2200
 1.8250	17.2270
 1.8260	17.2290
 1.8270	17.2240
 1.8280	17.2190
 1.8290	17.2140
 1.8300	17.2090
 1.8310	17.2040
 1.8320	17.1990
 1.8330	17.1940
 1.8340	17.1890
 1.8350	17.1890
 1.8360	17.1670
 1.8370	17.1410
 1.8380	17.1110
 1.8390	17.0770
 1.8400	17.0410
 1.8410	16.9980
 1.8420	16.9510
 1.8430	16.9010
 1.8440	16.8440
 1.8450	16.7810
 1.8460	16.7170
 1.8470	16.6440
 1.8480	16.5620
 1.8490	16.4770
 1.8500	16.3840
 1.8510	16.2820
 1.8520	16.1740
 1.8530	16.0590
 1.8540	15.9360
 1.8550	15.8000
 1.8560	15.6530
 1.8570	15.5000
 1.8580	15.3360
 1.8590	15.1630
 1.8600	14.9800
 1.8610	14.7880
 1.8620	14.5840
 1.8630	14.3710
 1.8640	14.1490
 1.8650	13.9160
 1.8660	13.6690
 1.8670	13.4060
 1.8680	13.1330
 1.8690	12.8500
 1.8700	12.5560
 1.8710	12.2520
 1.8720	11.9450
 1.8730	11.6290
 1.8740	11.3080
 1.8750	10.9850
 1.8760	10.6540
 1.8770	10.3210
 1.8780	 9.9880
 1.8790	 9.6530
 1.8800	 9.3270
 1.8810	 9.0060
 1.8820	 8.6880
 1.8830	 8.3710
 1.8840	 8.0600
 1.8850	 7.7500
 1.8860	 7.4460
 1.8870	 7.1530
 1.8880	 6.8700
 1.8890	 6.5990
 1.8900	 6.3390
 1.8910	 6.0910
 1.8920	 5.8530
 1.8930	 5.6300
 1.8940	 5.4160
 1.8950	 5.2150
 1.8960	 5.0260
 1.8970	 4.8510
 1.8980	 4.6930
 1.8990	 4.5480
 1.9000	 4.4110
 1.9010	 4.2880
 1.9020	 4.1730
 1.9030	 4.0670
 1.9040	 3.9720
 1.9050	 3.8870
 1.9060	 3.8090
 1.9070	 3.7400
 1.9080	 3.6770
 1.9090	 3.6170
 1.9100	 3.5640
 1.9110	 3.5170
 1.9120	 3.4740
 1.9130	 3.4360
 1.9140	 3.4050
 1.9150	 3.3780
 1.9160	 3.3530
 1.9170	 3.3310
 1.9180	 3.3120
 1.9190	 3.2940
 1.9200	 3.2780
 1.9210	 3.2640
 1.9220	 3.2520
 1.9230	 3.2430
 1.9240	 3.2350
 1.9250	 3.2300
 1.9260	 3.2280
 1.9270	 3.2250
 1.9280	 3.2250
 1.9290	 3.2270
 1.9300	 3.2280
 1.9310	 3.2320
 1.9320	 3.2350
 1.9330	 3.2410
 1.9340	 3.2500
 1.9350	 3.2590
 1.9360	 3.2720
 1.9370	 3.2840
 1.9380	 3.2990
 1.9390	 3.3130
 1.9400	 3.3280
 1.9410	 3.3420
 1.9420	 3.3560
 1.9430	 3.3720
 1.9440	 3.3880
 1.9450	 3.4050
 1.9460	 3.4240
 1.9470	 3.4420
 1.9480	 3.4620
 1.9490	 3.4820
 1.9500	 3.5050
 1.9510	 3.5270
 1.9520	 3.5500
 1.9530	 3.5740
 1.9540	 3.5980
 1.9550	 3.6230
 1.9560	 3.6500
 1.9570	 3.6760
 1.9580	 3.7010
 1.9590	 3.7270
 1.9600	 3.7500
 1.9610	 3.7770
 1.9620	 3.8080
 1.9630	 3.8380
 1.9640	 3.8700
 1.9650	 3.9040
 1.9660	 3.9340
 1.9670	 3.9630
 1.9680	 3.9930
 1.9690	 4.0230
 1.9700	 4.0530
 1.9710	 4.0830
 1.9720	 4.1140
 1.9730	 4.1450
 1.9740	 4.1780
 1.9750	 4.2120
 1.9760	 4.2460
 1.9770	 4.2820
 1.9780	 4.3190
 1.9790	 4.3550
 1.9800	 4.3920
 1.9810	 4.4290
 1.9820	 4.4660
 1.9830	 4.5040
 1.9840	 4.5410
 1.9850	 4.5780
 1.9860	 4.6170
 1.9870	 4.6540
 1.9880	 4.6930
 1.9890	 4.7300
 1.9900	 4.7680
 1.9910	 4.8070
 1.9920	 4.8460
 1.9930	 4.8870
 1.9940	 4.9270
 1.9950	 4.9680
 1.9960	 5.0080
 1.9970	 5.0480
 1.9980	 5.0870
 1.9990	 5.1270
 2.0000	 5.1660
 2.0010	 5.2040
 2.0020	 5.2440
 2.0030	 5.2820
 2.0040	 5.3210
 2.0050	 5.3580
 2.0060	 5.3920
 2.0070	 5.4290
 2.0080	 5.4650
 2.0090	 5.5010
 2.0100	 5.5410
 2.0110	 5.5790
 2.0120	 5.6160
 2.0130	 5.6540
 2.0140	 5.6910
 2.0150	 5.7270
 2.0160	 5.7630
 2.0170	 5.7990
 2.0180	 5.8340
 2.0190	 5.8700
 2.0200	 5.9040
 2.0210	 5.9360
 2.0220	 5.9680
 2.0230	 5.9980
 2.0240	 6.0300
 2.0250	 6.0620
 2.0260	 6.0930
 2.0270	 6.1240
 2.0280	 6.1550
 2.0290	 6.1810
 2.0300	 6.2060
 2.0310	 6.2330
 2.0320	 6.2580
 2.0330	 6.2850
 2.0340	 6.3130
 2.0350	 6.3390
 2.0360	 6.3630
 2.0370	 6.3870
 2.0380	 6.4110
 2.0390	 6.4330
 2.0400	 6.4520
 2.0410	 6.4730
 2.0420	 6.4950
 2.0430	 6.5160
 2.0440	 6.5370
 2.0450	 6.5610
 2.0460	 6.5800
 2.0470	 6.5950
 2.0480	 6.6140
 2.0490	 6.6340
 2.0500	 6.6530
 2.0510	 6.6740
 2.0520	 6.6940
 2.0530	 6.7110
 2.0540	 6.7310
 2.0550	 6.7530
 2.0560	 6.7750
 2.0570	 6.7950
 2.0580	 6.8140
 2.0590	 6.8330
 2.0600	 6.8480
 2.0610	 6.8670
 2.0620	 6.8870
 2.0630	 6.9070
 2.0640	 6.9250
 2.0650	 6.9450
 2.0660	 6.9650
 2.0670	 6.9860
 2.0680	 7.0110
 2.0690	 7.0330
 2.0700	 7.0560
 2.0710	 7.0760
 2.0720	 7.0920
 2.0730	 7.1090
 2.0740	 7.1280
 2.0750	 7.1450
 2.0760	 7.1640
 2.0770	 7.1880
 2.0780	 7.2070
 2.0790	 7.2270
 2.0800	 7.2470
 2.0810	 7.2660
 2.0820	 7.2850
 2.0830	 7.3060
 2.0840	 7.3250
 2.0850	 7.3430
 2.0860	 7.3620
 2.0870	 7.3820
 2.0880	 7.4010
 2.0890	 7.4210
 2.0900	 7.4430
 2.0910	 7.4620
 2.0920	 7.4790
 2.0930	 7.4980
 2.0940	 7.5170
 2.0950	 7.5360
 2.0960	 7.5570
 2.0970	 7.5780
 2.0980	 7.6010
 2.0990	 7.6220
 2.1000	 7.6450
 2.1010	 7.6670
 2.1020	 7.6850
 2.1030	 7.7050
 2.1040	 7.7270
 2.1050	 7.7460
 2.1060	 7.7650
 2.1070	 7.7850
 2.1080	 7.8030
 2.1090	 7.8210
 2.1100	 7.8390
 2.1110	 7.8580
 2.1120	 7.8770
 2.1130	 7.8970
 2.1140	 7.9150
 2.1150	 7.9320
 2.1160	 7.9500
 2.1170	 7.9660
 2.1180	 7.9850
 2.1190	 8.0090
 2.1200	 8.0270
 2.1210	 8.0440
 2.1220	 8.0610
 2.1230	 8.0770
 2.1240	 8.0890
 2.1250	 8.1050
 2.1260	 8.1210
 2.1270	 8.1380
 2.1280	 8.1550
 2.1290	 8.1720
 2.1300	 8.1890
 2.1310	 8.2070
 2.1320	 8.2250
 2.1330	 8.2440
 2.1340	 8.2660
 2.1350	 8.2840
 2.1360	 8.3000
 2.1370	 8.3170
 2.1380	 8.3310
 2.1390	 8.3480
 2.1400	 8.3650
 2.1410	 8.3860
 2.1420	 8.4070
 2.1430	 8.4310
 2.1440	 8.4530
 2.1450	 8.4770
 2.1460	 8.4980
 2.1470	 8.5150
 2.1480	 8.5340
 2.1490	 8.5500
 2.1500	 8.5700
 2.1510	 8.5930
 2.1520	 8.6140
 2.1530	 8.6380
 2.1540	 8.6600
 2.1550	 8.6800
 2.1560	 8.7010
 2.1570	 8.7250
 2.1580	 8.7460
 2.1590	 8.7640
 2.1600	 8.7840
 2.1610	 8.8030
 2.1620	 8.8230
 2.1630	 8.8430
 2.1640	 8.8660
 2.1650	 8.8870
 2.1660	 8.9080
 2.1670	 8.9300
 2.1680	 8.9540
 2.1690	 8.9750
 2.1700	 8.9970
 2.1710	 9.0180
 2.1720	 9.0360
 2.1730	 9.0570
 2.1740	 9.0780
 2.1750	 9.0990
 2.1760	 9.1200
 2.1770	 9.1400
 2.1780	 9.1610
 2.1790	 9.1810
 2.1800	 9.2010
 2.1810	 9.2200
 2.1820	 9.2360
 2.1830	 9.2530
 2.1840	 9.2720
 2.1850	 9.2890
 2.1860	 9.3080
 2.1870	 9.3310
 2.1880	 9.3520
 2.1890	 9.3730
 2.1900	 9.3940
 2.1910	 9.4180
 2.1920	 9.4390
 2.1930	 9.4610
 2.1940	 9.4800
 2.1950	 9.4960
 2.1960	 9.5140
 2.1970	 9.5320
 2.1980	 9.5490
 2.1990	 9.5670
 2.2000	 9.5840
 2.2010	 9.6000
 2.2020	 9.6150
 2.2030	 9.6310
 2.2040	 9.6460
 2.2050	 9.6610
 2.2060	 9.6740
 2.2070	 9.6870
 2.2080	 9.7000
 2.2090	 9.7110
 2.2100	 9.7190
 2.2110	 9.7280
 2.2120	 9.7340
 2.2130	 9.7400
 2.2140	 9.7450
 2.2150	 9.7500
 2.2160	 9.7560
 2.2170	 9.7600
 2.2180	 9.7660
 2.2190	 9.7670
 2.2200	 9.7640
 2.2210	 9.7600
 2.2220	 9.7540
 2.2230	 9.7470
 2.2240	 9.7400
 2.2250	 9.7290
 2.2260	 9.7150
 2.2270	 9.6990
 2.2280	 9.6790
 2.2290	 9.6600
 2.2300	 9.6420
 2.2310	 9.6200
 2.2320	 9.5970
 2.2330	 9.5710
 2.2340	 9.5390
 2.2350	 9.5010
 2.2360	 9.4630
 2.2370	 9.4210
 2.2380	 9.3800
 2.2390	 9.3400
 2.2400	 9.2960
 2.2410	 9.2510
 2.2420	 9.2020
 2.2430	 9.1480
 2.2440	 9.0950
 2.2450	 9.0390
 2.2460	 8.9820
 2.2470	 8.9200
 2.2480	 8.8650
 2.2490	 8.8140
 2.2500	 8.7590
 2.2510	 8.7080
 2.2520	 8.6510
 2.2530	 8.5830
 2.2540	 8.5230
 2.2550	 8.4650
 2.2560	 8.4050
 2.2570	 8.3450
 2.2580	 8.2890
 2.2590	 8.2340
 2.2600	 8.1780
 2.2610	 8.1250
 2.2620	 8.0740
 2.2630	 8.0200
 2.2640	 7.9640
 2.2650	 7.9130
 2.2660	 7.8630
 2.2670	 7.8160
 2.2680	 7.7720
 2.2690	 7.7250
 2.2700	 7.6800
 2.2710	 7.6340
 2.2720	 7.5830
 2.2730	 7.5410
 2.2740	 7.5020
 2.2750	 7.4660
 2.2760	 7.4370
 2.2770	 7.4040
 2.2780	 7.3690
 2.2790	 7.3350
 2.2800	 7.3010
 2.2810	 7.2660
 2.2820	 7.2330
 2.2830	 7.1950
 2.2840	 7.1490
 2.2850	 7.1110
 2.2860	 7.0730
 2.2870	 7.0350
 2.2880	 7.0010
 2.2890	 6.9640
 2.2900	 6.9240
 2.2910	 6.8850
 2.2920	 6.8480
 2.2930	 6.8070
 2.2940	 6.7620
 2.2950	 6.7180
 2.2960	 6.6670
 2.2970	 6.6250
 2.2980	 6.5890
 2.2990	 6.5560
 2.3000	 6.5280
 2.3010	 6.5030
 2.3020	 6.4740
 2.3030	 6.4480
 2.3040	 6.4250
 2.3050	 6.4040
 2.3060	 6.3880
 2.3070	 6.3750
 2.3080	 6.3600
 2.3090	 6.3470
 2.3100	 6.3400
 2.3110	 6.3340
 2.3120	 6.3330
 2.3130	 6.3420
 2.3140	 6.3440
 2.3150	 6.3450
 2.3160	 6.3430
 2.3170	 6.3380
 2.3180	 6.3340
 2.3190	 6.3300
 2.3200	 6.3260
 2.3210	 6.3250
 2.3220	 6.3180
 2.3230	 6.3090
 2.3240	 6.2980
 2.3250	 6.2830
 2.3260	 6.2680
 2.3270	 6.2510
 2.3280	 6.2320
 2.3290	 6.2100
 2.3300	 6.1890
 2.3310	 6.1670
 2.3320	 6.1460
 2.3330	 6.1260
 2.3340	 6.1050
 2.3350	 6.0840
 2.3360	 6.0630
 2.3370	 6.0430
 2.3380	 6.0220
 2.3390	 6.0020
 2.3400	 5.9790
 2.3410	 5.9520
 2.3420	 5.9280
 2.3430	 5.9010
 2.3440	 5.8780
 2.3450	 5.8560
 2.3460	 5.8370
 2.3470	 5.8240
 2.3480	 5.8080
 2.3490	 5.7890
 2.3500	 5.7760
 2.3510	 5.7620
 2.3520	 5.7520
 2.3530	 5.7500
 2.3540	 5.7500
 2.3550	 5.7460
 2.3560	 5.7340
 2.3570	 5.7210
 2.3580	 5.7090
 2.3590	 5.6980
 2.3600	 5.6910
 2.3610	 5.6830
 2.3620	 5.6710
 2.3630	 5.6610
 2.3640	 5.6460
 2.3650	 5.6250
 2.3660	 5.6070
 2.3670	 5.5880
 2.3680	 5.5680
 2.3690	 5.5540
 2.3700	 5.5330
 2.3710	 5.5140
 2.3720	 5.5050
 2.3730	 5.4990
 2.3740	 5.4910
 2.3750	 5.4790
 2.3760	 5.4610
 2.3770	 5.4350
 2.3780	 5.4150
 2.3790	 5.3940
 2.3800	 5.3770
 2.3810	 5.3620
 2.3820	 5.3460
 2.3830	 5.3310
 2.3840	 5.3070
 2.3850	 5.2800
 2.3860	 5.2540
 2.3870	 5.2360
 2.3880	 5.2170
 2.3890	 5.2030
 2.3900	 5.1920
 2.3910	 5.1690
 2.3920	 5.1470
 2.3930	 5.1270
 2.3940	 5.1040
 2.3950	 5.0860
 2.3960	 5.0690
 2.3970	 5.0540
 2.3980	 5.0420
 2.3990	 5.0180
 2.4000	 4.9900
 2.4010	 4.9580
 2.4020	 4.9300
 2.4030	 4.9130
 2.4040	 4.9040
 2.4050	 4.8990
 2.4060	 4.8840
 2.4070	 4.8620
 2.4080	 4.8410
 2.4090	 4.8110
 2.4100	 4.7850
 2.4110	 4.7640
 2.4120	 4.7360
 2.4130	 4.7150
 2.4140	 4.6900
 2.4150	 4.6720
 2.4160	 4.6600
 2.4170	 4.6350
 2.4180	 4.6160
 2.4190	 4.5970
 2.4200	 4.5670
 2.4210	 4.5440
 2.4220	 4.5170
 2.4230	 4.4800
 2.4240	 4.4490
 2.4250	 4.4230
 2.4260	 4.4080
 2.4270	 4.3980
 2.4280	 4.3820
 2.4290	 4.3630
 2.4300	 4.3400
 2.4310	 4.3180
 2.4320	 4.2850
 2.4330	 4.2460
 2.4340	 4.2140
 2.4350	 4.1840
 2.4360	 4.1670
 2.4370	 4.1630
 2.4380	 4.1480
 2.4390	 4.1120
 2.4400	 4.0800
 2.4410	 4.0480
 2.4420	 4.0210
 2.4430	 4.0090
 2.4440	 3.9880
 2.4450	 3.9650
 2.4460	 3.9520
 2.4470	 3.9280
 2.4480	 3.9090
 2.4490	 3.8970
 2.4500	 3.8750
 2.4510	 3.8540
 2.4520	 3.8430
 2.4530	 3.8180
 2.4540	 3.7820
 2.4550	 3.7460
 2.4560	 3.7090
 2.4570	 3.6860
 2.4580	 3.6720
 2.4590	 3.6670
 2.4600	 3.6540
 2.4610	 3.6220
 2.4620	 3.5930
 2.4630	 3.5620
 2.4640	 3.5360
 2.4650	 3.5230
 2.4660	 3.5110
 2.4670	 3.4970
 2.4680	 3.4880
 2.4690	 3.4660
 2.4700	 3.4540
 2.4710	 3.4520
 2.4720	 3.4360
 2.4730	 3.4180
 2.4740	 3.3980
 2.4750	 3.3540
 2.4760	 3.3300
 2.4770	 3.3290
 2.4780	 3.3200
 2.4790	 3.3110
 2.4800	 3.3150
 2.4810	 3.3230
 2.4820	 3.3180
 2.4830	 3.3070
 2.4840	 3.2810
 2.4850	 3.2610
 2.4860	 3.2730
 2.4870	 3.2950
 2.4880	 3.2970
 2.4890	 3.2950
 2.4900	 3.2710
 2.4910	 3.2560
 2.4920	 3.2380
 2.4930	 3.2220
 2.4940	 3.2330
 2.4950	 3.2080
 2.4960	 3.1650
 2.4970	 3.1490
 2.4980	 3.1250
 2.4990	 3.1090
 2.5000	 3.1780
