Name: Puya venusta
Type: vegetation
Class: Shrub
Genus: Puya
Species: venusta
Sample No.: JPL081
Owner: JPL
Wavelength Range: VSWIR
Origin: 34.12562; - 118.1098; WGS84
Collection Date: 2/2/2016
Description: Samples were collected at the Huntington Garden in San Marino California as part of a JPL Subcontract studying HyTES imagery. Samples were taken to JPL and processed within 48 hours of collection. The same leaves were processed in the Nicolet and then measured using the ASD.
Measurement: Bidirectional reflectance
First Column: X
Second Column: Y
X Units: Wavelength (micrometer)
Y Units: Reflectance (percentage)
First X Value: 0.35
Last X Value: 2.5
Number of X Values: 2151
Additional Information: 

 0.3500	 9.2540
 0.3510	 6.6460
 0.3520	 6.4950
 0.3530	 7.4910
 0.3540	 7.7230
 0.3550	 6.9570
 0.3560	 6.8810
 0.3570	 7.4160
 0.3580	 7.6270
 0.3590	 8.0260
 0.3600	 8.2690
 0.3610	 8.3980
 0.3620	 9.1560
 0.3630	 7.9130
 0.3640	 6.8440
 0.3650	 8.0830
 0.3660	 8.2570
 0.3670	 7.6960
 0.3680	 7.2760
 0.3690	 7.9990
 0.3700	 8.1710
 0.3710	 8.1610
 0.3720	 8.2850
 0.3730	 8.2840
 0.3740	 8.0060
 0.3750	 7.7500
 0.3760	 7.8490
 0.3770	 7.9380
 0.3780	 8.3920
 0.3790	 8.9020
 0.3800	 8.6460
 0.3810	 8.6670
 0.3820	 8.7150
 0.3830	 8.5670
 0.3840	 8.5390
 0.3850	 8.4550
 0.3860	 8.3710
 0.3870	 8.3950
 0.3880	 8.4350
 0.3890	 8.5820
 0.3900	 8.7950
 0.3910	 8.9010
 0.3920	 9.1890
 0.3930	 9.3510
 0.3940	 9.2150
 0.3950	 9.2010
 0.3960	 9.6000
 0.3970	 9.8760
 0.3980	 9.3520
 0.3990	 9.3070
 0.4000	 9.2660
 0.4010	 9.1180
 0.4020	 9.4320
 0.4030	 9.7170
 0.4040	10.0100
 0.4050	10.3230
 0.4060	10.1100
 0.4070	10.1020
 0.4080	10.3780
 0.4090	10.5760
 0.4100	10.7670
 0.4110	10.8860
 0.4120	10.8970
 0.4130	10.7940
 0.4140	11.0470
 0.4150	11.3230
 0.4160	11.2280
 0.4170	11.4030
 0.4180	11.6780
 0.4190	11.9010
 0.4200	11.9940
 0.4210	12.0880
 0.4220	12.2680
 0.4230	12.5260
 0.4240	12.6700
 0.4250	12.7370
 0.4260	12.8280
 0.4270	13.0310
 0.4280	13.0960
 0.4290	13.2690
 0.4300	13.5570
 0.4310	13.5950
 0.4320	13.6330
 0.4330	13.7720
 0.4340	14.0000
 0.4350	14.0730
 0.4360	14.1930
 0.4370	14.3500
 0.4380	14.3790
 0.4390	14.3250
 0.4400	14.3430
 0.4410	14.4920
 0.4420	14.5720
 0.4430	14.6700
 0.4440	14.7570
 0.4450	14.7770
 0.4460	14.7350
 0.4470	14.8470
 0.4480	15.0750
 0.4490	15.0780
 0.4500	15.0180
 0.4510	15.0120
 0.4520	15.1050
 0.4530	15.1520
 0.4540	15.1710
 0.4550	15.1770
 0.4560	15.1870
 0.4570	15.2310
 0.4580	15.2880
 0.4590	15.3390
 0.4600	15.3740
 0.4610	15.4010
 0.4620	15.3950
 0.4630	15.3440
 0.4640	15.3380
 0.4650	15.3900
 0.4660	15.4660
 0.4670	15.4940
 0.4680	15.4420
 0.4690	15.4220
 0.4700	15.4970
 0.4710	15.5020
 0.4720	15.4900
 0.4730	15.4910
 0.4740	15.5170
 0.4750	15.5440
 0.4760	15.5940
 0.4770	15.6480
 0.4780	15.6060
 0.4790	15.5990
 0.4800	15.6070
 0.4810	15.5900
 0.4820	15.6340
 0.4830	15.6530
 0.4840	15.6590
 0.4850	15.7530
 0.4860	15.7760
 0.4870	15.7580
 0.4880	15.7570
 0.4890	15.8370
 0.4900	15.8830
 0.4910	15.8900
 0.4920	15.9080
 0.4930	15.9440
 0.4940	15.9690
 0.4950	15.9480
 0.4960	15.8400
 0.4970	15.9060
 0.4980	16.0300
 0.4990	16.0460
 0.5000	16.0640
 0.5010	16.1240
 0.5020	16.2090
 0.5030	16.2660
 0.5040	16.3090
 0.5050	16.3860
 0.5060	16.5020
 0.5070	16.5370
 0.5080	16.5770
 0.5090	16.6690
 0.5100	16.8220
 0.5110	16.9070
 0.5120	17.0100
 0.5130	17.1570
 0.5140	17.2710
 0.5150	17.3730
 0.5160	17.4990
 0.5170	17.6750
 0.5180	17.8610
 0.5190	17.9920
 0.5200	18.0910
 0.5210	18.2530
 0.5220	18.4420
 0.5230	18.5990
 0.5240	18.7170
 0.5250	18.9070
 0.5260	19.0590
 0.5270	19.1770
 0.5280	19.3020
 0.5290	19.3960
 0.5300	19.5070
 0.5310	19.6400
 0.5320	19.7350
 0.5330	19.8190
 0.5340	19.9040
 0.5350	19.9920
 0.5360	20.0540
 0.5370	20.1310
 0.5380	20.2230
 0.5390	20.3030
 0.5400	20.4150
 0.5410	20.5800
 0.5420	20.7790
 0.5430	20.9420
 0.5440	21.0180
 0.5450	21.0000
 0.5460	20.9150
 0.5470	20.8470
 0.5480	20.7710
 0.5490	20.6980
 0.5500	20.6980
 0.5510	20.6840
 0.5520	20.6590
 0.5530	20.6370
 0.5540	20.5830
 0.5550	20.5310
 0.5560	20.4910
 0.5570	20.4510
 0.5580	20.4210
 0.5590	20.3700
 0.5600	20.2970
 0.5610	20.2690
 0.5620	20.2450
 0.5630	20.1930
 0.5640	20.0930
 0.5650	20.0120
 0.5660	19.9460
 0.5670	19.8860
 0.5680	19.8270
 0.5690	19.7420
 0.5700	19.6410
 0.5710	19.5400
 0.5720	19.4580
 0.5730	19.3660
 0.5740	19.2660
 0.5750	19.1840
 0.5760	19.1540
 0.5770	19.1160
 0.5780	19.0440
 0.5790	19.0090
 0.5800	18.9990
 0.5810	18.9730
 0.5820	18.8950
 0.5830	18.8510
 0.5840	18.8060
 0.5850	18.7520
 0.5860	18.7240
 0.5870	18.6960
 0.5880	18.6510
 0.5890	18.5920
 0.5900	18.5670
 0.5910	18.5410
 0.5920	18.5120
 0.5930	18.4930
 0.5940	18.4690
 0.5950	18.4520
 0.5960	18.4420
 0.5970	18.4090
 0.5980	18.3980
 0.5990	18.3930
 0.6000	18.3650
 0.6010	18.3020
 0.6020	18.2640
 0.6030	18.2580
 0.6040	18.2370
 0.6050	18.1900
 0.6060	18.1370
 0.6070	18.0910
 0.6080	18.0360
 0.6090	18.0220
 0.6100	18.0760
 0.6110	18.1810
 0.6120	18.1320
 0.6130	17.9890
 0.6140	17.8290
 0.6150	17.7340
 0.6160	17.6500
 0.6170	17.5710
 0.6180	17.5060
 0.6190	17.4820
 0.6200	17.4630
 0.6210	17.4380
 0.6220	17.4160
 0.6230	17.3810
 0.6240	17.3430
 0.6250	17.3110
 0.6260	17.2880
 0.6270	17.2760
 0.6280	17.2700
 0.6290	17.2630
 0.6300	17.2480
 0.6310	17.2410
 0.6320	17.2360
 0.6330	17.2090
 0.6340	17.1750
 0.6350	17.1550
 0.6360	17.1570
 0.6370	17.1440
 0.6380	17.1160
 0.6390	17.0720
 0.6400	17.0130
 0.6410	16.9830
 0.6420	16.9350
 0.6430	16.8670
 0.6440	16.8540
 0.6450	16.8180
 0.6460	16.7560
 0.6470	16.6920
 0.6480	16.6580
 0.6490	16.6260
 0.6500	16.5850
 0.6510	16.5430
 0.6520	16.5190
 0.6530	16.4960
 0.6540	16.4610
 0.6550	16.4150
 0.6560	16.3670
 0.6570	16.3260
 0.6580	16.2900
 0.6590	16.2140
 0.6600	16.1530
 0.6610	16.1100
 0.6620	16.0350
 0.6630	15.9750
 0.6640	15.9320
 0.6650	15.8960
 0.6660	15.8390
 0.6670	15.8060
 0.6680	15.7750
 0.6690	15.7050
 0.6700	15.6640
 0.6710	15.6460
 0.6720	15.6350
 0.6730	15.6210
 0.6740	15.6090
 0.6750	15.6050
 0.6760	15.6150
 0.6770	15.6350
 0.6780	15.6500
 0.6790	15.6590
 0.6800	15.6710
 0.6810	15.6880
 0.6820	15.7150
 0.6830	15.7610
 0.6840	15.8450
 0.6850	15.9300
 0.6860	16.0240
 0.6870	16.1450
 0.6880	16.2840
 0.6890	16.4380
 0.6900	16.6180
 0.6910	16.8430
 0.6920	17.1010
 0.6930	17.3890
 0.6940	17.7070
 0.6950	18.0450
 0.6960	18.4140
 0.6970	18.8070
 0.6980	19.2170
 0.6990	19.6570
 0.7000	20.1090
 0.7010	20.5720
 0.7020	21.0680
 0.7030	21.5620
 0.7040	22.0580
 0.7050	22.5640
 0.7060	23.0980
 0.7070	23.6180
 0.7080	24.1290
 0.7090	24.6480
 0.7100	25.1700
 0.7110	25.6940
 0.7120	26.2270
 0.7130	26.7820
 0.7140	27.3160
 0.7150	27.8570
 0.7160	28.4240
 0.7170	28.9820
 0.7180	29.5400
 0.7190	30.0960
 0.7200	30.6450
 0.7210	31.1920
 0.7220	31.7440
 0.7230	32.2930
 0.7240	32.8180
 0.7250	33.3290
 0.7260	33.8190
 0.7270	34.2880
 0.7280	34.7700
 0.7290	35.2380
 0.7300	35.6670
 0.7310	36.0410
 0.7320	36.4230
 0.7330	36.7890
 0.7340	37.1280
 0.7350	37.4580
 0.7360	37.7700
 0.7370	38.0650
 0.7380	38.3430
 0.7390	38.5970
 0.7400	38.8240
 0.7410	39.0340
 0.7420	39.2430
 0.7430	39.4620
 0.7440	39.6440
 0.7450	39.7900
 0.7460	39.9390
 0.7470	40.0780
 0.7480	40.2120
 0.7490	40.3390
 0.7500	40.4420
 0.7510	40.5340
 0.7520	40.6210
 0.7530	40.7020
 0.7540	40.7690
 0.7550	40.8360
 0.7560	40.8980
 0.7570	40.9430
 0.7580	41.0040
 0.7590	41.0570
 0.7600	41.0860
 0.7610	41.1050
 0.7620	41.1480
 0.7630	41.1960
 0.7640	41.2210
 0.7650	41.2390
 0.7660	41.2480
 0.7670	41.2600
 0.7680	41.2870
 0.7690	41.3010
 0.7700	41.3140
 0.7710	41.3330
 0.7720	41.3620
 0.7730	41.3590
 0.7740	41.3550
 0.7750	41.3730
 0.7760	41.3660
 0.7770	41.3730
 0.7780	41.3890
 0.7790	41.3930
 0.7800	41.4160
 0.7810	41.4260
 0.7820	41.4190
 0.7830	41.4230
 0.7840	41.4260
 0.7850	41.4370
 0.7860	41.4520
 0.7870	41.4450
 0.7880	41.4470
 0.7890	41.4500
 0.7900	41.4410
 0.7910	41.4440
 0.7920	41.4490
 0.7930	41.4530
 0.7940	41.4560
 0.7950	41.4400
 0.7960	41.4290
 0.7970	41.4360
 0.7980	41.4480
 0.7990	41.4400
 0.8000	41.4280
 0.8010	41.4270
 0.8020	41.4190
 0.8030	41.4090
 0.8040	41.4040
 0.8050	41.4120
 0.8060	41.4270
 0.8070	41.4180
 0.8080	41.3950
 0.8090	41.3980
 0.8100	41.3950
 0.8110	41.3880
 0.8120	41.3780
 0.8130	41.3600
 0.8140	41.3530
 0.8150	41.3460
 0.8160	41.3310
 0.8170	41.3240
 0.8180	41.3070
 0.8190	41.2830
 0.8200	41.2710
 0.8210	41.2820
 0.8220	41.2750
 0.8230	41.2480
 0.8240	41.2290
 0.8250	41.2050
 0.8260	41.1860
 0.8270	41.1720
 0.8280	41.1320
 0.8290	41.1290
 0.8300	41.1230
 0.8310	41.0780
 0.8320	41.0530
 0.8330	41.0310
 0.8340	41.0080
 0.8350	40.9860
 0.8360	40.9830
 0.8370	40.9780
 0.8380	40.9650
 0.8390	40.9530
 0.8400	40.9630
 0.8410	40.9660
 0.8420	40.9510
 0.8430	40.9450
 0.8440	40.9510
 0.8450	40.9700
 0.8460	40.9870
 0.8470	40.9410
 0.8480	40.9490
 0.8490	40.9760
 0.8500	40.9580
 0.8510	40.9430
 0.8520	40.9440
 0.8530	40.9540
 0.8540	40.9540
 0.8550	40.9560
 0.8560	40.9550
 0.8570	40.9540
 0.8580	40.9640
 0.8590	40.9720
 0.8600	40.9700
 0.8610	40.9670
 0.8620	40.9940
 0.8630	40.9970
 0.8640	40.9980
 0.8650	41.0160
 0.8660	41.0100
 0.8670	41.0050
 0.8680	41.0020
 0.8690	40.9970
 0.8700	41.0030
 0.8710	40.9920
 0.8720	40.9680
 0.8730	40.9580
 0.8740	40.9920
 0.8750	41.0200
 0.8760	41.0190
 0.8770	40.9980
 0.8780	40.9940
 0.8790	40.9940
 0.8800	40.9890
 0.8810	40.9870
 0.8820	40.9940
 0.8830	40.9720
 0.8840	40.9200
 0.8850	40.9350
 0.8860	40.9860
 0.8870	40.9950
 0.8880	40.9270
 0.8890	40.9210
 0.8900	40.9280
 0.8910	40.9370
 0.8920	40.9480
 0.8930	40.9020
 0.8940	40.9090
 0.8950	40.9380
 0.8960	40.8810
 0.8970	40.8580
 0.8980	40.8520
 0.8990	40.8590
 0.9000	40.8860
 0.9010	40.8380
 0.9020	40.7990
 0.9030	40.8070
 0.9040	40.8150
 0.9050	40.7940
 0.9060	40.7590
 0.9070	40.7330
 0.9080	40.7270
 0.9090	40.7220
 0.9100	40.7260
 0.9110	40.7310
 0.9120	40.6590
 0.9130	40.6300
 0.9140	40.6310
 0.9150	40.6180
 0.9160	40.5980
 0.9170	40.5620
 0.9180	40.5060
 0.9190	40.4370
 0.9200	40.4090
 0.9210	40.3880
 0.9220	40.3360
 0.9230	40.2390
 0.9240	40.1960
 0.9250	40.1480
 0.9260	40.0750
 0.9270	39.9940
 0.9280	39.8970
 0.9290	39.8280
 0.9300	39.7690
 0.9310	39.6560
 0.9320	39.5500
 0.9330	39.4360
 0.9340	39.3270
 0.9350	39.2670
 0.9360	39.1340
 0.9370	38.9920
 0.9380	38.8830
 0.9390	38.7730
 0.9400	38.6900
 0.9410	38.5850
 0.9420	38.4350
 0.9430	38.2760
 0.9440	38.1180
 0.9450	37.9310
 0.9460	37.7220
 0.9470	37.5830
 0.9480	37.4680
 0.9490	37.2850
 0.9500	37.0010
 0.9510	36.7620
 0.9520	36.5770
 0.9530	36.3740
 0.9540	36.1190
 0.9550	35.9490
 0.9560	35.7570
 0.9570	35.5510
 0.9580	35.3720
 0.9590	35.2230
 0.9600	35.1080
 0.9610	35.0100
 0.9620	34.9130
 0.9630	34.8390
 0.9640	34.7320
 0.9650	34.6200
 0.9660	34.5610
 0.9670	34.5740
 0.9680	34.4910
 0.9690	34.3830
 0.9700	34.3800
 0.9710	34.3740
 0.9720	34.3990
 0.9730	34.4060
 0.9740	34.3450
 0.9750	34.3810
 0.9760	34.3230
 0.9770	34.2560
 0.9780	34.3360
 0.9790	34.3470
 0.9800	34.3880
 0.9810	34.4260
 0.9820	34.3870
 0.9830	34.3680
 0.9840	34.4340
 0.9850	34.5170
 0.9860	34.5210
 0.9870	34.5710
 0.9880	34.5840
 0.9890	34.5690
 0.9900	34.5930
 0.9910	34.7310
 0.9920	34.8490
 0.9930	34.8630
 0.9940	34.7760
 0.9950	34.7840
 0.9960	34.9340
 0.9970	35.0880
 0.9980	35.1050
 0.9990	35.2170
 1.0000	35.2550
 1.0010	35.3200
 1.0020	35.4030
 1.0030	35.5050
 1.0040	35.6030
 1.0050	35.6920
 1.0060	35.7610
 1.0070	35.8130
 1.0080	35.8740
 1.0090	35.9150
 1.0100	35.9960
 1.0110	36.1160
 1.0120	36.2050
 1.0130	36.2990
 1.0140	36.3820
 1.0150	36.4420
 1.0160	36.5090
 1.0170	36.5800
 1.0180	36.6580
 1.0190	36.7250
 1.0200	36.7810
 1.0210	36.8630
 1.0220	36.9660
 1.0230	37.0610
 1.0240	37.1720
 1.0250	37.2670
 1.0260	37.3630
 1.0270	37.4380
 1.0280	37.4950
 1.0290	37.5610
 1.0300	37.6070
 1.0310	37.6730
 1.0320	37.7570
 1.0330	37.8400
 1.0340	37.9150
 1.0350	37.9780
 1.0360	38.0020
 1.0370	38.0400
 1.0380	38.1100
 1.0390	38.2090
 1.0400	38.2650
 1.0410	38.3300
 1.0420	38.3950
 1.0430	38.4250
 1.0440	38.4710
 1.0450	38.5560
 1.0460	38.6110
 1.0470	38.6290
 1.0480	38.6680
 1.0490	38.7160
 1.0500	38.7610
 1.0510	38.8070
 1.0520	38.8610
 1.0530	38.9080
 1.0540	38.9560
 1.0550	38.9920
 1.0560	39.0360
 1.0570	39.0490
 1.0580	39.0210
 1.0590	39.0330
 1.0600	39.0430
 1.0610	39.0600
 1.0620	39.1070
 1.0630	39.1390
 1.0640	39.1660
 1.0650	39.1840
 1.0660	39.1960
 1.0670	39.2130
 1.0680	39.2280
 1.0690	39.2320
 1.0700	39.2430
 1.0710	39.2690
 1.0720	39.2730
 1.0730	39.2620
 1.0740	39.2560
 1.0750	39.2460
 1.0760	39.2310
 1.0770	39.2110
 1.0780	39.1920
 1.0790	39.1600
 1.0800	39.1440
 1.0810	39.1480
 1.0820	39.1340
 1.0830	39.1230
 1.0840	39.1030
 1.0850	39.0760
 1.0860	39.0340
 1.0870	38.9910
 1.0880	38.9440
 1.0890	38.8940
 1.0900	38.8210
 1.0910	38.7890
 1.0920	38.7780
 1.0930	38.7530
 1.0940	38.7530
 1.0950	38.7240
 1.0960	38.6720
 1.0970	38.6220
 1.0980	38.5560
 1.0990	38.5030
 1.1000	38.4500
 1.1010	38.4000
 1.1020	38.3510
 1.1030	38.3200
 1.1040	38.2790
 1.1050	38.2310
 1.1060	38.1850
 1.1070	38.1450
 1.1080	38.0850
 1.1090	38.0110
 1.1100	37.9480
 1.1110	37.8720
 1.1120	37.8150
 1.1130	37.7900
 1.1140	37.7320
 1.1150	37.6640
 1.1160	37.5970
 1.1170	37.5150
 1.1180	37.4310
 1.1190	37.3610
 1.1200	37.2660
 1.1210	37.1440
 1.1220	37.0210
 1.1230	36.9010
 1.1240	36.7720
 1.1250	36.6230
 1.1260	36.4840
 1.1270	36.2990
 1.1280	36.0800
 1.1290	35.8530
 1.1300	35.6060
 1.1310	35.3490
 1.1320	35.0820
 1.1330	34.7950
 1.1340	34.4980
 1.1350	34.1790
 1.1360	33.8350
 1.1370	33.4810
 1.1380	33.1240
 1.1390	32.7510
 1.1400	32.3790
 1.1410	32.0100
 1.1420	31.6380
 1.1430	31.2750
 1.1440	30.9180
 1.1450	30.5600
 1.1460	30.2260
 1.1470	29.8940
 1.1480	29.5950
 1.1490	29.3170
 1.1500	29.0650
 1.1510	28.8380
 1.1520	28.6310
 1.1530	28.4510
 1.1540	28.2830
 1.1550	28.1440
 1.1560	27.9970
 1.1570	27.8630
 1.1580	27.7420
 1.1590	27.6280
 1.1600	27.5350
 1.1610	27.4600
 1.1620	27.3920
 1.1630	27.3350
 1.1640	27.2880
 1.1650	27.2450
 1.1660	27.2100
 1.1670	27.1790
 1.1680	27.1550
 1.1690	27.1280
 1.1700	27.1060
 1.1710	27.0820
 1.1720	27.0540
 1.1730	27.0310
 1.1740	27.0150
 1.1750	26.9900
 1.1760	26.9680
 1.1770	26.9530
 1.1780	26.9340
 1.1790	26.9130
 1.1800	26.8930
 1.1810	26.8680
 1.1820	26.8420
 1.1830	26.8240
 1.1840	26.8110
 1.1850	26.7900
 1.1860	26.7620
 1.1870	26.7380
 1.1880	26.7190
 1.1890	26.6960
 1.1900	26.6820
 1.1910	26.6790
 1.1920	26.6720
 1.1930	26.6650
 1.1940	26.6560
 1.1950	26.6460
 1.1960	26.6390
 1.1970	26.6330
 1.1980	26.6380
 1.1990	26.6460
 1.2000	26.6480
 1.2010	26.6550
 1.2020	26.6670
 1.2030	26.6790
 1.2040	26.6930
 1.2050	26.7140
 1.2060	26.7320
 1.2070	26.7480
 1.2080	26.7730
 1.2090	26.7880
 1.2100	26.8030
 1.2110	26.8240
 1.2120	26.8500
 1.2130	26.8720
 1.2140	26.8940
 1.2150	26.9190
 1.2160	26.9440
 1.2170	26.9700
 1.2180	26.9990
 1.2190	27.0270
 1.2200	27.0540
 1.2210	27.0890
 1.2220	27.1360
 1.2230	27.1860
 1.2240	27.2330
 1.2250	27.2870
 1.2260	27.3400
 1.2270	27.3880
 1.2280	27.4310
 1.2290	27.4690
 1.2300	27.5000
 1.2310	27.5330
 1.2320	27.5710
 1.2330	27.6060
 1.2340	27.6390
 1.2350	27.6730
 1.2360	27.7030
 1.2370	27.7250
 1.2380	27.7630
 1.2390	27.7990
 1.2400	27.8360
 1.2410	27.8900
 1.2420	27.9330
 1.2430	27.9680
 1.2440	28.0070
 1.2450	28.0340
 1.2460	28.0570
 1.2470	28.0850
 1.2480	28.1200
 1.2490	28.1540
 1.2500	28.1820
 1.2510	28.2030
 1.2520	28.2210
 1.2530	28.2440
 1.2540	28.2670
 1.2550	28.2970
 1.2560	28.3230
 1.2570	28.3380
 1.2580	28.3510
 1.2590	28.3620
 1.2600	28.3700
 1.2610	28.3740
 1.2620	28.3760
 1.2630	28.3780
 1.2640	28.3800
 1.2650	28.3900
 1.2660	28.3970
 1.2670	28.3950
 1.2680	28.3810
 1.2690	28.3570
 1.2700	28.3350
 1.2710	28.3180
 1.2720	28.3090
 1.2730	28.2950
 1.2740	28.2780
 1.2750	28.2660
 1.2760	28.2480
 1.2770	28.2240
 1.2780	28.1930
 1.2790	28.1500
 1.2800	28.1090
 1.2810	28.0780
 1.2820	28.0380
 1.2830	27.9930
 1.2840	27.9440
 1.2850	27.8800
 1.2860	27.8130
 1.2870	27.7490
 1.2880	27.6880
 1.2890	27.6240
 1.2900	27.5600
 1.2910	27.4960
 1.2920	27.4260
 1.2930	27.3420
 1.2940	27.2490
 1.2950	27.1530
 1.2960	27.0530
 1.2970	26.9520
 1.2980	26.8560
 1.2990	26.7620
 1.3000	26.6610
 1.3010	26.5610
 1.3020	26.4520
 1.3030	26.3260
 1.3040	26.2010
 1.3050	26.0750
 1.3060	25.9450
 1.3070	25.8150
 1.3080	25.6720
 1.3090	25.5270
 1.3100	25.3730
 1.3110	25.2150
 1.3120	25.0660
 1.3130	24.9130
 1.3140	24.7550
 1.3150	24.6010
 1.3160	24.4370
 1.3170	24.2660
 1.3180	24.0890
 1.3190	23.9130
 1.3200	23.7320
 1.3210	23.5500
 1.3220	23.3740
 1.3230	23.1940
 1.3240	23.0170
 1.3250	22.8470
 1.3260	22.6710
 1.3270	22.4880
 1.3280	22.3020
 1.3290	22.1070
 1.3300	21.9190
 1.3310	21.7360
 1.3320	21.5520
 1.3330	21.3760
 1.3340	21.2020
 1.3350	21.0300
 1.3360	20.8660
 1.3370	20.7050
 1.3380	20.5420
 1.3390	20.3750
 1.3400	20.2100
 1.3410	20.0500
 1.3420	19.8900
 1.3430	19.7430
 1.3440	19.6010
 1.3450	19.4600
 1.3460	19.3260
 1.3470	19.1920
 1.3480	19.0560
 1.3490	18.9310
 1.3500	18.8130
 1.3510	18.6920
 1.3520	18.5780
 1.3530	18.4640
 1.3540	18.3430
 1.3550	18.2280
 1.3560	18.1180
 1.3570	18.0030
 1.3580	17.8910
 1.3590	17.7800
 1.3600	17.6610
 1.3610	17.5400
 1.3620	17.4150
 1.3630	17.2850
 1.3640	17.1570
 1.3650	17.0220
 1.3660	16.8800
 1.3670	16.7340
 1.3680	16.5820
 1.3690	16.4250
 1.3700	16.2590
 1.3710	16.0850
 1.3720	15.9040
 1.3730	15.7150
 1.3740	15.5200
 1.3750	15.3190
 1.3760	15.1090
 1.3770	14.8910
 1.3780	14.6650
 1.3790	14.4340
 1.3800	14.2000
 1.3810	13.9590
 1.3820	13.7210
 1.3830	13.4830
 1.3840	13.2490
 1.3850	13.0170
 1.3860	12.7880
 1.3870	12.5580
 1.3880	12.3350
 1.3890	12.1140
 1.3900	11.9040
 1.3910	11.7060
 1.3920	11.5150
 1.3930	11.3360
 1.3940	11.1660
 1.3950	11.0030
 1.3960	10.8570
 1.3970	10.7200
 1.3980	10.5880
 1.3990	10.4720
 1.4000	10.3590
 1.4010	10.2550
 1.4020	10.1600
 1.4030	10.0680
 1.4040	 9.9830
 1.4050	 9.9010
 1.4060	 9.8320
 1.4070	 9.7720
 1.4080	 9.7140
 1.4090	 9.6670
 1.4100	 9.6230
 1.4110	 9.5750
 1.4120	 9.5350
 1.4130	 9.4940
 1.4140	 9.4560
 1.4150	 9.4240
 1.4160	 9.3940
 1.4170	 9.3670
 1.4180	 9.3390
 1.4190	 9.3130
 1.4200	 9.2880
 1.4210	 9.2620
 1.4220	 9.2380
 1.4230	 9.2160
 1.4240	 9.1950
 1.4250	 9.1770
 1.4260	 9.1630
 1.4270	 9.1480
 1.4280	 9.1310
 1.4290	 9.1180
 1.4300	 9.1080
 1.4310	 9.1000
 1.4320	 9.0980
 1.4330	 9.0910
 1.4340	 9.0820
 1.4350	 9.0750
 1.4360	 9.0660
 1.4370	 9.0580
 1.4380	 9.0510
 1.4390	 9.0460
 1.4400	 9.0410
 1.4410	 9.0370
 1.4420	 9.0350
 1.4430	 9.0290
 1.4440	 9.0240
 1.4450	 9.0200
 1.4460	 9.0170
 1.4470	 9.0200
 1.4480	 9.0220
 1.4490	 9.0250
 1.4500	 9.0280
 1.4510	 9.0270
 1.4520	 9.0260
 1.4530	 9.0220
 1.4540	 9.0180
 1.4550	 9.0180
 1.4560	 9.0160
 1.4570	 9.0170
 1.4580	 9.0190
 1.4590	 9.0160
 1.4600	 9.0170
 1.4610	 9.0210
 1.4620	 9.0220
 1.4630	 9.0280
 1.4640	 9.0310
 1.4650	 9.0330
 1.4660	 9.0410
 1.4670	 9.0450
 1.4680	 9.0540
 1.4690	 9.0610
 1.4700	 9.0690
 1.4710	 9.0840
 1.4720	 9.1000
 1.4730	 9.1150
 1.4740	 9.1280
 1.4750	 9.1390
 1.4760	 9.1490
 1.4770	 9.1600
 1.4780	 9.1750
 1.4790	 9.1910
 1.4800	 9.2040
 1.4810	 9.2190
 1.4820	 9.2320
 1.4830	 9.2410
 1.4840	 9.2540
 1.4850	 9.2670
 1.4860	 9.2760
 1.4870	 9.2890
 1.4880	 9.3050
 1.4890	 9.3210
 1.4900	 9.3370
 1.4910	 9.3590
 1.4920	 9.3780
 1.4930	 9.3950
 1.4940	 9.4140
 1.4950	 9.4340
 1.4960	 9.4540
 1.4970	 9.4740
 1.4980	 9.4930
 1.4990	 9.5110
 1.5000	 9.5310
 1.5010	 9.5500
 1.5020	 9.5710
 1.5030	 9.5950
 1.5040	 9.6150
 1.5050	 9.6310
 1.5060	 9.6520
 1.5070	 9.6740
 1.5080	 9.6960
 1.5090	 9.7180
 1.5100	 9.7460
 1.5110	 9.7730
 1.5120	 9.7950
 1.5130	 9.8160
 1.5140	 9.8410
 1.5150	 9.8690
 1.5160	 9.9010
 1.5170	 9.9350
 1.5180	 9.9630
 1.5190	 9.9840
 1.5200	10.0060
 1.5210	10.0300
 1.5220	10.0570
 1.5230	10.0880
 1.5240	10.1120
 1.5250	10.1370
 1.5260	10.1620
 1.5270	10.1830
 1.5280	10.2140
 1.5290	10.2460
 1.5300	10.2810
 1.5310	10.3140
 1.5320	10.3400
 1.5330	10.3680
 1.5340	10.3920
 1.5350	10.4180
 1.5360	10.4510
 1.5370	10.4860
 1.5380	10.5200
 1.5390	10.5540
 1.5400	10.5860
 1.5410	10.6150
 1.5420	10.6460
 1.5430	10.6750
 1.5440	10.6990
 1.5450	10.7250
 1.5460	10.7540
 1.5470	10.7850
 1.5480	10.8170
 1.5490	10.8520
 1.5500	10.8820
 1.5510	10.9110
 1.5520	10.9450
 1.5530	10.9730
 1.5540	11.0040
 1.5550	11.0400
 1.5560	11.0720
 1.5570	11.1040
 1.5580	11.1400
 1.5590	11.1710
 1.5600	11.2000
 1.5610	11.2340
 1.5620	11.2620
 1.5630	11.2880
 1.5640	11.3150
 1.5650	11.3490
 1.5660	11.3870
 1.5670	11.4250
 1.5680	11.4650
 1.5690	11.4960
 1.5700	11.5270
 1.5710	11.5610
 1.5720	11.5950
 1.5730	11.6310
 1.5740	11.6620
 1.5750	11.6930
 1.5760	11.7260
 1.5770	11.7550
 1.5780	11.7820
 1.5790	11.8090
 1.5800	11.8320
 1.5810	11.8590
 1.5820	11.8950
 1.5830	11.9340
 1.5840	11.9760
 1.5850	12.0180
 1.5860	12.0480
 1.5870	12.0740
 1.5880	12.1010
 1.5890	12.1200
 1.5900	12.1500
 1.5910	12.1840
 1.5920	12.2180
 1.5930	12.2570
 1.5940	12.2900
 1.5950	12.3160
 1.5960	12.3360
 1.5970	12.3600
 1.5980	12.3880
 1.5990	12.4160
 1.6000	12.4560
 1.6010	12.4900
 1.6020	12.5220
 1.6030	12.5580
 1.6040	12.5860
 1.6050	12.6100
 1.6060	12.6330
 1.6070	12.6590
 1.6080	12.6950
 1.6090	12.7270
 1.6100	12.7630
 1.6110	12.8010
 1.6120	12.8250
 1.6130	12.8500
 1.6140	12.8740
 1.6150	12.8940
 1.6160	12.9220
 1.6170	12.9530
 1.6180	12.9870
 1.6190	13.0210
 1.6200	13.0420
 1.6210	13.0590
 1.6220	13.0740
 1.6230	13.0950
 1.6240	13.1260
 1.6250	13.1620
 1.6260	13.1920
 1.6270	13.2140
 1.6280	13.2290
 1.6290	13.2500
 1.6300	13.2710
 1.6310	13.2910
 1.6320	13.3160
 1.6330	13.3350
 1.6340	13.3470
 1.6350	13.3650
 1.6360	13.3820
 1.6370	13.4000
 1.6380	13.4190
 1.6390	13.4410
 1.6400	13.4630
 1.6410	13.4840
 1.6420	13.5090
 1.6430	13.5230
 1.6440	13.5280
 1.6450	13.5350
 1.6460	13.5460
 1.6470	13.5630
 1.6480	13.5760
 1.6490	13.5870
 1.6500	13.6000
 1.6510	13.6100
 1.6520	13.6210
 1.6530	13.6320
 1.6540	13.6340
 1.6550	13.6420
 1.6560	13.6520
 1.6570	13.6650
 1.6580	13.6830
 1.6590	13.6890
 1.6600	13.6890
 1.6610	13.6850
 1.6620	13.6770
 1.6630	13.6800
 1.6640	13.6900
 1.6650	13.7010
 1.6660	13.7090
 1.6670	13.7090
 1.6680	13.7040
 1.6690	13.6960
 1.6700	13.6890
 1.6710	13.6890
 1.6720	13.6920
 1.6730	13.6900
 1.6740	13.6860
 1.6750	13.6770
 1.6760	13.6640
 1.6770	13.6570
 1.6780	13.6470
 1.6790	13.6430
 1.6800	13.6440
 1.6810	13.6390
 1.6820	13.6360
 1.6830	13.6280
 1.6840	13.6160
 1.6850	13.6050
 1.6860	13.5980
 1.6870	13.5950
 1.6880	13.5880
 1.6890	13.5840
 1.6900	13.5720
 1.6910	13.5510
 1.6920	13.5370
 1.6930	13.5220
 1.6940	13.5080
 1.6950	13.4980
 1.6960	13.4860
 1.6970	13.4730
 1.6980	13.4600
 1.6990	13.4480
 1.7000	13.4320
 1.7010	13.4130
 1.7020	13.3910
 1.7030	13.3670
 1.7040	13.3420
 1.7050	13.3140
 1.7060	13.2820
 1.7070	13.2450
 1.7080	13.2140
 1.7090	13.1820
 1.7100	13.1510
 1.7110	13.1220
 1.7120	13.0980
 1.7130	13.0660
 1.7140	13.0430
 1.7150	13.0160
 1.7160	12.9770
 1.7170	12.9420
 1.7180	12.9090
 1.7190	12.8790
 1.7200	12.8510
 1.7210	12.8230
 1.7220	12.7900
 1.7230	12.7600
 1.7240	12.7280
 1.7250	12.6980
 1.7260	12.6710
 1.7270	12.6330
 1.7280	12.6050
 1.7290	12.5820
 1.7300	12.5530
 1.7310	12.5300
 1.7320	12.5050
 1.7330	12.4850
 1.7340	12.4750
 1.7350	12.4620
 1.7360	12.4520
 1.7370	12.4370
 1.7380	12.4200
 1.7390	12.4020
 1.7400	12.3810
 1.7410	12.3600
 1.7420	12.3390
 1.7430	12.3190
 1.7440	12.3030
 1.7450	12.2770
 1.7460	12.2490
 1.7470	12.2150
 1.7480	12.1670
 1.7490	12.1300
 1.7500	12.0930
 1.7510	12.0580
 1.7520	12.0290
 1.7530	11.9920
 1.7540	11.9520
 1.7550	11.9160
 1.7560	11.8740
 1.7570	11.8390
 1.7580	11.8060
 1.7590	11.7730
 1.7600	11.7470
 1.7610	11.7080
 1.7620	11.6770
 1.7630	11.6380
 1.7640	11.6120
 1.7650	11.6100
 1.7660	11.5940
 1.7670	11.5820
 1.7680	11.5610
 1.7690	11.5200
 1.7700	11.4940
 1.7710	11.4730
 1.7720	11.4530
 1.7730	11.4420
 1.7740	11.4280
 1.7750	11.4130
 1.7760	11.3990
 1.7770	11.3860
 1.7780	11.3710
 1.7790	11.3540
 1.7800	11.3400
 1.7810	11.3280
 1.7820	11.3180
 1.7830	11.3100
 1.7840	11.3060
 1.7850	11.3060
 1.7860	11.3010
 1.7870	11.2940
 1.7880	11.2940
 1.7890	11.2910
 1.7900	11.2950
 1.7910	11.2930
 1.7920	11.2800
 1.7930	11.2730
 1.7940	11.2660
 1.7950	11.2620
 1.7960	11.2620
 1.7970	11.2620
 1.7980	11.2620
 1.7990	11.2620
 1.8000	11.2630
 1.8010	11.2630
 1.8020	11.2630
 1.8030	11.2690
 1.8040	11.2780
 1.8050	11.2840
 1.8060	11.2960
 1.8070	11.2960
 1.8080	11.2890
 1.8090	11.2860
 1.8100	11.2760
 1.8110	11.2710
 1.8120	11.2760
 1.8130	11.2830
 1.8140	11.2900
 1.8150	11.2950
 1.8160	11.2920
 1.8170	11.2860
 1.8180	11.2800
 1.8190	11.2620
 1.8200	11.2530
 1.8210	11.2460
 1.8220	11.2380
 1.8230	11.2350
 1.8240	11.2330
 1.8250	11.2280
 1.8260	11.2250
 1.8270	11.2280
 1.8280	11.2350
 1.8290	11.2450
 1.8300	11.2450
 1.8310	11.4470
 1.8320	11.4370
 1.8330	11.4350
 1.8340	11.4310
 1.8350	11.4330
 1.8360	11.4270
 1.8370	11.4100
 1.8380	11.3880
 1.8390	11.3650
 1.8400	11.3410
 1.8410	11.3150
 1.8420	11.2920
 1.8430	11.2540
 1.8440	11.2060
 1.8450	11.1560
 1.8460	11.1080
 1.8470	11.0780
 1.8480	11.0580
 1.8490	11.0130
 1.8500	10.9690
 1.8510	10.9240
 1.8520	10.8630
 1.8530	10.7890
 1.8540	10.7350
 1.8550	10.6740
 1.8560	10.5980
 1.8570	10.5240
 1.8580	10.4630
 1.8590	10.4020
 1.8600	10.3420
 1.8610	10.2850
 1.8620	10.2340
 1.8630	10.1660
 1.8640	10.0930
 1.8650	10.0220
 1.8660	 9.9300
 1.8670	 9.8370
 1.8680	 9.7590
 1.8690	 9.6810
 1.8700	 9.6010
 1.8710	 9.5310
 1.8720	 9.4620
 1.8730	 9.3820
 1.8740	 9.2940
 1.8750	 9.2060
 1.8760	 9.1280
 1.8770	 9.0550
 1.8780	 8.9870
 1.8790	 8.9260
 1.8800	 8.8660
 1.8810	 8.8140
 1.8820	 8.7570
 1.8830	 8.6860
 1.8840	 8.6320
 1.8850	 8.5860
 1.8860	 8.5260
 1.8870	 8.4750
 1.8880	 8.4220
 1.8890	 8.3610
 1.8900	 8.3040
 1.8910	 8.2640
 1.8920	 8.2420
 1.8930	 8.2210
 1.8940	 8.1890
 1.8950	 8.1710
 1.8960	 8.1200
 1.8970	 8.0720
 1.8980	 8.0560
 1.8990	 8.0130
 1.9000	 7.9800
 1.9010	 7.9660
 1.9020	 7.9350
 1.9030	 7.8870
 1.9040	 7.8480
 1.9050	 7.8340
 1.9060	 7.8080
 1.9070	 7.7850
 1.9080	 7.7930
 1.9090	 7.7620
 1.9100	 7.7270
 1.9110	 7.7080
 1.9120	 7.6800
 1.9130	 7.6660
 1.9140	 7.6700
 1.9150	 7.6860
 1.9160	 7.6630
 1.9170	 7.6520
 1.9180	 7.6440
 1.9190	 7.6130
 1.9200	 7.6090
 1.9210	 7.6130
 1.9220	 7.6090
 1.9230	 7.6000
 1.9240	 7.5960
 1.9250	 7.5940
 1.9260	 7.5840
 1.9270	 7.5840
 1.9280	 7.5860
 1.9290	 7.5810
 1.9300	 7.5870
 1.9310	 7.5930
 1.9320	 7.5910
 1.9330	 7.5920
 1.9340	 7.5920
 1.9350	 7.5970
 1.9360	 7.6050
 1.9370	 7.6120
 1.9380	 7.6200
 1.9390	 7.6270
 1.9400	 7.6430
 1.9410	 7.6390
 1.9420	 7.6490
 1.9430	 7.6630
 1.9440	 7.6660
 1.9450	 7.6700
 1.9460	 7.6640
 1.9470	 7.6370
 1.9480	 7.6330
 1.9490	 7.6360
 1.9500	 7.6320
 1.9510	 7.6350
 1.9520	 7.6530
 1.9530	 7.6700
 1.9540	 7.6790
 1.9550	 7.6880
 1.9560	 7.7030
 1.9570	 7.7120
 1.9580	 7.7040
 1.9590	 7.7120
 1.9600	 7.7320
 1.9610	 7.7460
 1.9620	 7.7580
 1.9630	 7.7810
 1.9640	 7.7980
 1.9650	 7.8270
 1.9660	 7.8370
 1.9670	 7.8440
 1.9680	 7.8500
 1.9690	 7.8390
 1.9700	 7.8370
 1.9710	 7.8420
 1.9720	 7.8500
 1.9730	 7.8630
 1.9740	 7.8740
 1.9750	 7.8730
 1.9760	 7.8810
 1.9770	 7.8730
 1.9780	 7.8790
 1.9790	 7.8960
 1.9800	 7.9390
 1.9810	 7.9510
 1.9820	 7.9590
 1.9830	 7.9640
 1.9840	 7.9500
 1.9850	 7.9500
 1.9860	 7.9510
 1.9870	 7.9610
 1.9880	 7.9950
 1.9890	 8.0050
 1.9900	 8.0150
 1.9910	 8.0350
 1.9920	 8.0440
 1.9930	 8.0410
 1.9940	 8.0390
 1.9950	 8.0310
 1.9960	 8.0330
 1.9970	 8.0250
 1.9980	 8.0290
 1.9990	 8.0500
 2.0000	 8.0700
 2.0010	 8.0970
 2.0020	 8.1150
 2.0030	 8.1160
 2.0040	 8.1210
 2.0050	 8.1320
 2.0060	 8.1360
 2.0070	 8.1470
 2.0080	 8.1750
 2.0090	 8.1940
 2.0100	 8.2080
 2.0110	 8.2190
 2.0120	 8.2370
 2.0130	 8.2380
 2.0140	 8.2370
 2.0150	 8.2360
 2.0160	 8.2220
 2.0170	 8.2170
 2.0180	 8.2160
 2.0190	 8.2140
 2.0200	 8.2210
 2.0210	 8.2390
 2.0220	 8.2560
 2.0230	 8.2780
 2.0240	 8.2970
 2.0250	 8.3330
 2.0260	 8.3430
 2.0270	 8.3330
 2.0280	 8.3220
 2.0290	 8.3190
 2.0300	 8.3120
 2.0310	 8.3150
 2.0320	 8.3360
 2.0330	 8.3560
 2.0340	 8.3770
 2.0350	 8.3930
 2.0360	 8.4230
 2.0370	 8.4380
 2.0380	 8.4460
 2.0390	 8.4450
 2.0400	 8.4310
 2.0410	 8.4180
 2.0420	 8.3880
 2.0430	 8.3620
 2.0440	 8.3600
 2.0450	 8.3710
 2.0460	 8.3900
 2.0470	 8.4430
 2.0480	 8.4580
 2.0490	 8.4700
 2.0500	 8.4690
 2.0510	 8.4270
 2.0520	 8.4240
 2.0530	 8.4380
 2.0540	 8.4480
 2.0550	 8.4650
 2.0560	 8.5040
 2.0570	 8.5240
 2.0580	 8.5180
 2.0590	 8.5270
 2.0600	 8.5360
 2.0610	 8.5400
 2.0620	 8.5390
 2.0630	 8.5490
 2.0640	 8.5690
 2.0650	 8.5730
 2.0660	 8.5780
 2.0670	 8.5750
 2.0680	 8.5480
 2.0690	 8.5400
 2.0700	 8.5470
 2.0710	 8.5480
 2.0720	 8.5520
 2.0730	 8.5530
 2.0740	 8.5620
 2.0750	 8.5730
 2.0760	 8.5800
 2.0770	 8.5840
 2.0780	 8.6030
 2.0790	 8.6250
 2.0800	 8.6480
 2.0810	 8.6980
 2.0820	 8.7220
 2.0830	 8.7300
 2.0840	 8.7340
 2.0850	 8.7240
 2.0860	 8.7170
 2.0870	 8.6940
 2.0880	 8.6900
 2.0890	 8.6870
 2.0900	 8.6920
 2.0910	 8.6850
 2.0920	 8.6770
 2.0930	 8.6710
 2.0940	 8.6540
 2.0950	 8.6530
 2.0960	 8.6650
 2.0970	 8.6770
 2.0980	 8.6980
 2.0990	 8.7100
 2.1000	 8.7190
 2.1010	 8.7290
 2.1020	 8.7260
 2.1030	 8.7360
 2.1040	 8.7520
 2.1050	 8.7790
 2.1060	 8.8040
 2.1070	 8.8390
 2.1080	 8.8610
 2.1090	 8.8800
 2.1100	 8.8910
 2.1110	 8.8950
 2.1120	 8.8960
 2.1130	 8.8860
 2.1140	 8.8840
 2.1150	 8.8760
 2.1160	 8.8800
 2.1170	 8.8980
 2.1180	 8.9100
 2.1190	 8.9320
 2.1200	 8.9470
 2.1210	 8.9480
 2.1220	 8.9630
 2.1230	 8.9760
 2.1240	 8.9910
 2.1250	 9.0010
 2.1260	 9.0150
 2.1270	 9.0220
 2.1280	 9.0230
 2.1290	 9.0210
 2.1300	 9.0030
 2.1310	 9.0130
 2.1320	 9.0300
 2.1330	 9.0520
 2.1340	 9.1210
 2.1350	 9.1410
 2.1360	 9.1280
 2.1370	 9.1260
 2.1380	 9.0900
 2.1390	 9.0850
 2.1400	 9.1100
 2.1410	 9.1300
 2.1420	 9.1420
 2.1430	 9.1550
 2.1440	 9.1790
 2.1450	 9.2080
 2.1460	 9.2190
 2.1470	 9.2420
 2.1480	 9.2450
 2.1490	 9.2120
 2.1500	 9.2010
 2.1510	 9.1930
 2.1520	 9.1930
 2.1530	 9.2060
 2.1540	 9.2070
 2.1550	 9.2090
 2.1560	 9.2110
 2.1570	 9.2060
 2.1580	 9.1990
 2.1590	 9.1930
 2.1600	 9.1870
 2.1610	 9.1900
 2.1620	 9.1880
 2.1630	 9.1970
 2.1640	 9.2270
 2.1650	 9.2320
 2.1660	 9.2260
 2.1670	 9.2300
 2.1680	 9.2210
 2.1690	 9.2270
 2.1700	 9.2500
 2.1710	 9.2610
 2.1720	 9.2750
 2.1730	 9.2850
 2.1740	 9.2840
 2.1750	 9.2900
 2.1760	 9.3010
 2.1770	 9.3050
 2.1780	 9.3080
 2.1790	 9.3090
 2.1800	 9.3050
 2.1810	 9.2980
 2.1820	 9.2850
 2.1830	 9.2840
 2.1840	 9.2780
 2.1850	 9.2690
 2.1860	 9.2600
 2.1870	 9.2500
 2.1880	 9.2460
 2.1890	 9.2390
 2.1900	 9.2430
 2.1910	 9.2610
 2.1920	 9.2660
 2.1930	 9.2710
 2.1940	 9.2740
 2.1950	 9.2610
 2.1960	 9.2680
 2.1970	 9.2900
 2.1980	 9.2980
 2.1990	 9.3140
 2.2000	 9.3190
 2.2010	 9.2990
 2.2020	 9.2980
 2.2030	 9.3100
 2.2040	 9.3100
 2.2050	 9.3190
 2.2060	 9.3070
 2.2070	 9.3020
 2.2080	 9.2870
 2.2090	 9.2770
 2.2100	 9.2690
 2.2110	 9.2690
 2.2120	 9.2710
 2.2130	 9.2720
 2.2140	 9.2860
 2.2150	 9.2880
 2.2160	 9.2820
 2.2170	 9.2770
 2.2180	 9.2690
 2.2190	 9.2640
 2.2200	 9.2570
 2.2210	 9.2510
 2.2220	 9.2530
 2.2230	 9.2450
 2.2240	 9.2410
 2.2250	 9.2260
 2.2260	 9.1860
 2.2270	 9.1670
 2.2280	 9.1330
 2.2290	 9.1270
 2.2300	 9.1450
 2.2310	 9.1850
 2.2320	 9.2100
 2.2330	 9.2320
 2.2340	 9.2230
 2.2350	 9.1770
 2.2360	 9.1640
 2.2370	 9.1420
 2.2380	 9.1440
 2.2390	 9.1780
 2.2400	 9.1790
 2.2410	 9.1860
 2.2420	 9.1640
 2.2430	 9.1100
 2.2440	 9.0750
 2.2450	 9.0230
 2.2460	 8.9960
 2.2470	 8.9930
 2.2480	 8.9750
 2.2490	 8.9580
 2.2500	 8.9460
 2.2510	 8.9290
 2.2520	 8.9190
 2.2530	 8.9110
 2.2540	 8.9110
 2.2550	 8.9190
 2.2560	 8.9250
 2.2570	 8.9590
 2.2580	 8.9630
 2.2590	 8.9420
 2.2600	 8.9260
 2.2610	 8.8960
 2.2620	 8.8610
 2.2630	 8.8600
 2.2640	 8.8420
 2.2650	 8.7930
 2.2660	 8.7920
 2.2670	 8.7860
 2.2680	 8.7850
 2.2690	 8.7640
 2.2700	 8.7440
 2.2710	 8.7350
 2.2720	 8.6990
 2.2730	 8.7010
 2.2740	 8.7550
 2.2750	 8.7600
 2.2760	 8.7460
 2.2770	 8.7370
 2.2780	 8.7210
 2.2790	 8.7020
 2.2800	 8.6820
 2.2810	 8.6620
 2.2820	 8.6150
 2.2830	 8.6070
 2.2840	 8.6330
 2.2850	 8.6360
 2.2860	 8.6550
 2.2870	 8.6580
 2.2880	 8.6460
 2.2890	 8.6330
 2.2900	 8.6200
 2.2910	 8.6060
 2.2920	 8.5790
 2.2930	 8.5540
 2.2940	 8.5330
 2.2950	 8.5080
 2.2960	 8.4770
 2.2970	 8.4510
 2.2980	 8.4180
 2.2990	 8.4090
 2.3000	 8.4000
 2.3010	 8.3760
 2.3020	 8.4000
 2.3030	 8.3920
 2.3040	 8.3690
 2.3050	 8.3660
 2.3060	 8.3450
 2.3070	 8.3260
 2.3080	 8.3310
 2.3090	 8.3270
 2.3100	 8.2970
 2.3110	 8.2700
 2.3120	 8.2450
 2.3130	 8.2090
 2.3140	 8.1980
 2.3150	 8.1930
 2.3160	 8.2100
 2.3170	 8.2610
 2.3180	 8.2740
 2.3190	 8.2760
 2.3200	 8.2970
 2.3210	 8.2990
 2.3220	 8.3320
 2.3230	 8.4210
 2.3240	 8.4580
 2.3250	 8.4960
 2.3260	 8.4800
 2.3270	 8.4070
 2.3280	 8.3680
 2.3290	 8.2920
 2.3300	 8.2710
 2.3310	 8.2910
 2.3320	 8.2910
 2.3330	 8.3150
 2.3340	 8.3180
 2.3350	 8.3220
 2.3360	 8.3120
 2.3370	 8.2680
 2.3380	 8.2530
 2.3390	 8.2300
 2.3400	 8.2240
 2.3410	 8.2600
 2.3420	 8.2840
 2.3430	 8.3310
 2.3440	 8.3280
 2.3450	 8.2790
 2.3460	 8.2510
 2.3470	 8.1830
 2.3480	 8.1590
 2.3490	 8.1930
 2.3500	 8.2080
 2.3510	 8.2270
 2.3520	 8.2360
 2.3530	 8.2520
 2.3540	 8.2260
 2.3550	 8.2210
 2.3560	 8.2470
 2.3570	 8.2400
 2.3580	 8.2630
 2.3590	 8.2730
 2.3600	 8.2880
 2.3610	 8.3460
 2.3620	 8.3740
 2.3630	 8.4450
 2.3640	 8.4560
 2.3650	 8.4170
 2.3660	 8.4340
 2.3670	 8.3360
 2.3680	 8.2620
 2.3690	 8.2830
 2.3700	 8.2910
 2.3710	 8.3060
 2.3720	 8.3500
 2.3730	 8.3610
 2.3740	 8.2850
 2.3750	 8.2810
 2.3760	 8.2580
 2.3770	 8.1630
 2.3780	 8.1400
 2.3790	 8.0840
 2.3800	 8.0590
 2.3810	 8.1160
 2.3820	 8.1410
 2.3830	 8.1480
 2.3840	 8.1350
 2.3850	 8.0810
 2.3860	 8.0190
 2.3870	 8.0370
 2.3880	 8.0820
 2.3890	 8.0550
 2.3900	 8.0420
 2.3910	 8.0220
 2.3920	 7.9430
 2.3930	 7.9480
 2.3940	 8.0260
 2.3950	 8.0510
 2.3960	 8.0590
 2.3970	 8.0740
 2.3980	 8.0420
 2.3990	 8.0050
 2.4000	 7.9880
 2.4010	 7.9710
 2.4020	 7.9580
 2.4030	 7.9230
 2.4040	 7.9320
 2.4050	 7.9420
 2.4060	 7.9260
 2.4070	 7.9710
 2.4080	 7.9350
 2.4090	 7.8820
 2.4100	 7.8900
 2.4110	 7.8820
 2.4120	 8.0130
 2.4130	 8.0770
 2.4140	 8.0780
 2.4150	 8.0930
 2.4160	 7.9410
 2.4170	 7.9290
 2.4180	 7.9470
 2.4190	 7.9040
 2.4200	 7.9840
 2.4210	 7.9870
 2.4220	 7.9410
 2.4230	 7.9490
 2.4240	 7.9640
 2.4250	 7.9980
 2.4260	 8.0770
 2.4270	 8.0600
 2.4280	 8.0270
 2.4290	 7.9970
 2.4300	 7.8170
 2.4310	 7.8000
 2.4320	 7.7210
 2.4330	 7.5780
 2.4340	 7.6900
 2.4350	 7.7300
 2.4360	 7.8480
 2.4370	 7.9690
 2.4380	 7.9260
 2.4390	 7.9470
 2.4400	 7.9160
 2.4410	 7.9430
 2.4420	 7.9970
 2.4430	 7.9560
 2.4440	 7.9550
 2.4450	 7.8160
 2.4460	 7.6290
 2.4470	 7.5610
 2.4480	 7.5100
 2.4490	 7.5610
 2.4500	 7.6720
 2.4510	 7.7800
 2.4520	 7.7680
 2.4530	 7.6340
 2.4540	 7.6270
 2.4550	 7.6030
 2.4560	 7.5820
 2.4570	 7.6810
 2.4580	 7.6860
 2.4590	 7.6550
 2.4600	 7.6150
 2.4610	 7.5690
 2.4620	 7.5760
 2.4630	 7.6480
 2.4640	 7.7130
 2.4650	 7.6350
 2.4660	 7.6060
 2.4670	 7.6990
 2.4680	 7.7230
 2.4690	 7.9860
 2.4700	 8.0410
 2.4710	 7.8830
 2.4720	 7.7940
 2.4730	 7.5460
 2.4740	 7.4820
 2.4750	 7.5150
 2.4760	 7.5020
 2.4770	 7.6340
 2.4780	 7.6710
 2.4790	 7.6340
 2.4800	 7.6140
 2.4810	 7.6370
 2.4820	 7.5780
 2.4830	 7.5760
 2.4840	 7.7290
 2.4850	 7.7300
 2.4860	 7.8870
 2.4870	 7.9550
 2.4880	 7.8100
 2.4890	 7.8360
 2.4900	 7.8850
 2.4910	 7.9630
 2.4920	 8.1170
 2.4930	 8.0140
 2.4940	 8.0140
 2.4950	 7.8430
 2.4960	 7.6790
 2.4970	 8.1010
 2.4980	 8.1130
 2.4990	 8.1580
 2.5000	 8.5470
