Name: Umbellularia californica 1
Type: vegetation
Class: Shrub
Genus: Umbellularia
Species: californica
Sample No.: VH235
Owner: UCSB
Wavelength Range: VSWIR
Origin: 34.5074; -119.7634; WGS84
Collection Date: 10/13/2013
Description: Samples were collected as part of the HyspIRI Airborne Campaign. 48 individual plants were sampled in three times in 2013 - spring  summer  and fall. The name of the sample includes a 1  2  or 3 which references a different individual of the species. Samples were taken to JPL and processed within 48 hours of collection. The same leaves were processed in the Nicolet and then measured using the ASD.
Measurement: Bidirectional reflectance
First Column: X
Second Column: Y
X Units: Wavelength (micrometers)
Y Units: Reflectance (percentage)
First X Value: 0.35
Last X Value: 2.5
Number of X Values: 2151
Additional Information: vegetation.shrub.umbellularia.californica.vswir.vh235.ucsb.asd.ancillary.txt

 0.3500	 6.7480
 0.3510	 7.0370
 0.3520	 6.8390
 0.3530	 6.5100
 0.3540	 6.4720
 0.3550	 6.7000
 0.3560	 6.6650
 0.3570	 6.5360
 0.3580	 6.7520
 0.3590	 6.6440
 0.3600	 6.5320
 0.3610	 6.5370
 0.3620	 6.3740
 0.3630	 6.4040
 0.3640	 6.5180
 0.3650	 6.5540
 0.3660	 6.6280
 0.3670	 6.5220
 0.3680	 6.3380
 0.3690	 6.3730
 0.3700	 6.4240
 0.3710	 6.4710
 0.3720	 6.4950
 0.3730	 6.4220
 0.3740	 6.3870
 0.3750	 6.4230
 0.3760	 6.4940
 0.3770	 6.4000
 0.3780	 6.4590
 0.3790	 6.6100
 0.3800	 6.4880
 0.3810	 6.3960
 0.3820	 6.4040
 0.3830	 6.4800
 0.3840	 6.4780
 0.3850	 6.3960
 0.3860	 6.3590
 0.3870	 6.4700
 0.3880	 6.4130
 0.3890	 6.3950
 0.3900	 6.4660
 0.3910	 6.4860
 0.3920	 6.4750
 0.3930	 6.4650
 0.3940	 6.4670
 0.3950	 6.3930
 0.3960	 6.3900
 0.3970	 6.4730
 0.3980	 6.5730
 0.3990	 6.5500
 0.4000	 6.4640
 0.4010	 6.4070
 0.4020	 6.4840
 0.4030	 6.5410
 0.4040	 6.5680
 0.4050	 6.5840
 0.4060	 6.5650
 0.4070	 6.5730
 0.4080	 6.6070
 0.4090	 6.6290
 0.4100	 6.6700
 0.4110	 6.7220
 0.4120	 6.7710
 0.4130	 6.7930
 0.4140	 6.8010
 0.4150	 6.8320
 0.4160	 6.9080
 0.4170	 6.9520
 0.4180	 7.0090
 0.4190	 7.0750
 0.4200	 7.1050
 0.4210	 7.1700
 0.4220	 7.2440
 0.4230	 7.3020
 0.4240	 7.3690
 0.4250	 7.4460
 0.4260	 7.5070
 0.4270	 7.5250
 0.4280	 7.5880
 0.4290	 7.6710
 0.4300	 7.7440
 0.4310	 7.7900
 0.4320	 7.8390
 0.4330	 7.8850
 0.4340	 7.9200
 0.4350	 7.9820
 0.4360	 8.0490
 0.4370	 8.1080
 0.4380	 8.1570
 0.4390	 8.1900
 0.4400	 8.2300
 0.4410	 8.2830
 0.4420	 8.3210
 0.4430	 8.3550
 0.4440	 8.3950
 0.4450	 8.4470
 0.4460	 8.4890
 0.4470	 8.5310
 0.4480	 8.5740
 0.4490	 8.6060
 0.4500	 8.6380
 0.4510	 8.6730
 0.4520	 8.7090
 0.4530	 8.7420
 0.4540	 8.7760
 0.4550	 8.8070
 0.4560	 8.8290
 0.4570	 8.8530
 0.4580	 8.8720
 0.4590	 8.8860
 0.4600	 8.9180
 0.4610	 8.9370
 0.4620	 8.9430
 0.4630	 8.9520
 0.4640	 8.9850
 0.4650	 9.0080
 0.4660	 9.0110
 0.4670	 9.0050
 0.4680	 9.0050
 0.4690	 9.0220
 0.4700	 9.0520
 0.4710	 9.0600
 0.4720	 9.0540
 0.4730	 9.0540
 0.4740	 9.0760
 0.4750	 9.0810
 0.4760	 9.0770
 0.4770	 9.0760
 0.4780	 9.0790
 0.4790	 9.0770
 0.4800	 9.0860
 0.4810	 9.1190
 0.4820	 9.1330
 0.4830	 9.1380
 0.4840	 9.1470
 0.4850	 9.1780
 0.4860	 9.2030
 0.4870	 9.2310
 0.4880	 9.2690
 0.4890	 9.3020
 0.4900	 9.3400
 0.4910	 9.3880
 0.4920	 9.4480
 0.4930	 9.5110
 0.4940	 9.5760
 0.4950	 9.6440
 0.4960	 9.7120
 0.4970	 9.8010
 0.4980	 9.9020
 0.4990	10.0030
 0.5000	10.1180
 0.5010	10.2350
 0.5020	10.3570
 0.5030	10.4930
 0.5040	10.6400
 0.5050	10.7990
 0.5060	10.9730
 0.5070	11.1600
 0.5080	11.3600
 0.5090	11.5700
 0.5100	11.7890
 0.5110	12.0180
 0.5120	12.2620
 0.5130	12.5230
 0.5140	12.8070
 0.5150	13.0950
 0.5160	13.3880
 0.5170	13.6930
 0.5180	14.0070
 0.5190	14.3280
 0.5200	14.6570
 0.5210	14.9920
 0.5220	15.3320
 0.5230	15.6710
 0.5240	16.0010
 0.5250	16.3220
 0.5260	16.6420
 0.5270	16.9540
 0.5280	17.2480
 0.5290	17.5400
 0.5300	17.8160
 0.5310	18.0710
 0.5320	18.3140
 0.5330	18.5430
 0.5340	18.7600
 0.5350	18.9660
 0.5360	19.1550
 0.5370	19.3300
 0.5380	19.4920
 0.5390	19.6460
 0.5400	19.7930
 0.5410	19.9280
 0.5420	20.0520
 0.5430	20.1760
 0.5440	20.2940
 0.5450	20.4070
 0.5460	20.5130
 0.5470	20.6020
 0.5480	20.6840
 0.5490	20.7620
 0.5500	20.8280
 0.5510	20.8780
 0.5520	20.9140
 0.5530	20.9370
 0.5540	20.9400
 0.5550	20.9200
 0.5560	20.8770
 0.5570	20.8140
 0.5580	20.7370
 0.5590	20.6420
 0.5600	20.5260
 0.5610	20.4030
 0.5620	20.2590
 0.5630	20.0980
 0.5640	19.9310
 0.5650	19.7500
 0.5660	19.5640
 0.5670	19.3750
 0.5680	19.1790
 0.5690	18.9690
 0.5700	18.7560
 0.5710	18.5530
 0.5720	18.3550
 0.5730	18.1670
 0.5740	17.9870
 0.5750	17.8050
 0.5760	17.6350
 0.5770	17.4800
 0.5780	17.3360
 0.5790	17.1980
 0.5800	17.0630
 0.5810	16.9360
 0.5820	16.8200
 0.5830	16.6990
 0.5840	16.5850
 0.5850	16.4810
 0.5860	16.3840
 0.5870	16.2900
 0.5880	16.2040
 0.5890	16.1290
 0.5900	16.0580
 0.5910	15.9840
 0.5920	15.9130
 0.5930	15.8570
 0.5940	15.8060
 0.5950	15.7590
 0.5960	15.7140
 0.5970	15.6680
 0.5980	15.6220
 0.5990	15.5780
 0.6000	15.5300
 0.6010	15.4750
 0.6020	15.4060
 0.6030	15.3240
 0.6040	15.2450
 0.6050	15.1620
 0.6060	15.0670
 0.6070	14.9580
 0.6080	14.8540
 0.6090	14.7450
 0.6100	14.6310
 0.6110	14.5160
 0.6120	14.4070
 0.6130	14.2970
 0.6140	14.1860
 0.6150	14.0790
 0.6160	13.9780
 0.6170	13.8810
 0.6180	13.7860
 0.6190	13.7040
 0.6200	13.6310
 0.6210	13.5660
 0.6220	13.5060
 0.6230	13.4590
 0.6240	13.4210
 0.6250	13.3900
 0.6260	13.3630
 0.6270	13.3460
 0.6280	13.3320
 0.6290	13.3150
 0.6300	13.3050
 0.6310	13.2900
 0.6320	13.2650
 0.6330	13.2370
 0.6340	13.1990
 0.6350	13.1480
 0.6360	13.0830
 0.6370	13.0010
 0.6380	12.9000
 0.6390	12.7860
 0.6400	12.6610
 0.6410	12.5250
 0.6420	12.3840
 0.6430	12.2410
 0.6440	12.0910
 0.6450	11.9500
 0.6460	11.8130
 0.6470	11.6730
 0.6480	11.5440
 0.6490	11.4350
 0.6500	11.3420
 0.6510	11.2520
 0.6520	11.1740
 0.6530	11.1030
 0.6540	11.0320
 0.6550	10.9660
 0.6560	10.8800
 0.6570	10.7790
 0.6580	10.6810
 0.6590	10.5810
 0.6600	10.4670
 0.6610	10.3420
 0.6620	10.2290
 0.6630	10.1120
 0.6640	 9.9970
 0.6650	 9.8970
 0.6660	 9.8060
 0.6670	 9.7250
 0.6680	 9.6540
 0.6690	 9.5980
 0.6700	 9.5480
 0.6710	 9.5100
 0.6720	 9.4870
 0.6730	 9.4780
 0.6740	 9.4680
 0.6750	 9.4630
 0.6760	 9.4740
 0.6770	 9.4960
 0.6780	 9.5250
 0.6790	 9.5630
 0.6800	 9.6160
 0.6810	 9.6860
 0.6820	 9.7810
 0.6830	 9.9040
 0.6840	10.0550
 0.6850	10.2420
 0.6860	10.4760
 0.6870	10.7670
 0.6880	11.1210
 0.6890	11.5430
 0.6900	12.0370
 0.6910	12.6120
 0.6920	13.2710
 0.6930	14.0220
 0.6940	14.8630
 0.6950	15.7830
 0.6960	16.7860
 0.6970	17.8670
 0.6980	19.0170
 0.6990	20.2290
 0.7000	21.4920
 0.7010	22.7900
 0.7020	24.1050
 0.7030	25.4330
 0.7040	26.7640
 0.7050	28.0880
 0.7060	29.4050
 0.7070	30.6980
 0.7080	31.9630
 0.7090	33.2050
 0.7100	34.4280
 0.7110	35.6250
 0.7120	36.7880
 0.7130	37.9050
 0.7140	39.0050
 0.7150	40.0810
 0.7160	41.1230
 0.7170	42.1300
 0.7180	43.1050
 0.7190	44.0530
 0.7200	44.9710
 0.7210	45.8480
 0.7220	46.6970
 0.7230	47.5160
 0.7240	48.2900
 0.7250	49.0300
 0.7260	49.7420
 0.7270	50.4260
 0.7280	51.0700
 0.7290	51.6740
 0.7300	52.2540
 0.7310	52.8240
 0.7320	53.3340
 0.7330	53.8280
 0.7340	54.3060
 0.7350	54.7280
 0.7360	55.1300
 0.7370	55.5210
 0.7380	55.8990
 0.7390	56.2370
 0.7400	56.5470
 0.7410	56.8350
 0.7420	57.1080
 0.7430	57.3710
 0.7440	57.6110
 0.7450	57.8310
 0.7460	58.0400
 0.7470	58.2400
 0.7480	58.4180
 0.7490	58.5720
 0.7500	58.7180
 0.7510	58.8560
 0.7520	58.9750
 0.7530	59.0690
 0.7540	59.1860
 0.7550	59.2840
 0.7560	59.3550
 0.7570	59.4220
 0.7580	59.4900
 0.7590	59.5570
 0.7600	59.6150
 0.7610	59.6540
 0.7620	59.6850
 0.7630	59.7220
 0.7640	59.7710
 0.7650	59.7990
 0.7660	59.8280
 0.7670	59.8530
 0.7680	59.8530
 0.7690	59.8690
 0.7700	59.8940
 0.7710	59.9150
 0.7720	59.9200
 0.7730	59.9310
 0.7740	59.9410
 0.7750	59.9440
 0.7760	59.9580
 0.7770	59.9700
 0.7780	59.9690
 0.7790	59.9550
 0.7800	59.9740
 0.7810	59.9790
 0.7820	59.9700
 0.7830	60.0000
 0.7840	59.9970
 0.7850	59.9880
 0.7860	59.9950
 0.7870	59.9980
 0.7880	60.0000
 0.7890	60.0070
 0.7900	60.0190
 0.7910	60.0140
 0.7920	60.0170
 0.7930	60.0250
 0.7940	60.0240
 0.7950	60.0180
 0.7960	60.0190
 0.7970	60.0290
 0.7980	60.0340
 0.7990	60.0310
 0.8000	60.0300
 0.8010	60.0350
 0.8020	60.0360
 0.8030	60.0360
 0.8040	60.0390
 0.8050	60.0470
 0.8060	60.0650
 0.8070	60.0590
 0.8080	60.0420
 0.8090	60.0580
 0.8100	60.0540
 0.8110	60.0530
 0.8120	60.0700
 0.8130	60.0860
 0.8140	60.0770
 0.8150	60.0650
 0.8160	60.0720
 0.8170	60.0830
 0.8180	60.0930
 0.8190	60.1000
 0.8200	60.1010
 0.8210	60.0930
 0.8220	60.1070
 0.8230	60.1350
 0.8240	60.1320
 0.8250	60.1290
 0.8260	60.1270
 0.8270	60.1300
 0.8280	60.1460
 0.8290	60.1560
 0.8300	60.1580
 0.8310	60.1530
 0.8320	60.1490
 0.8330	60.1510
 0.8340	60.1560
 0.8350	60.1580
 0.8360	60.1540
 0.8370	60.1640
 0.8380	60.1800
 0.8390	60.1780
 0.8400	60.2050
 0.8410	60.2240
 0.8420	60.2180
 0.8430	60.2210
 0.8440	60.2260
 0.8450	60.2350
 0.8460	60.2470
 0.8470	60.2570
 0.8480	60.2600
 0.8490	60.2690
 0.8500	60.2870
 0.8510	60.2720
 0.8520	60.2620
 0.8530	60.2650
 0.8540	60.2720
 0.8550	60.2870
 0.8560	60.2980
 0.8570	60.2990
 0.8580	60.2980
 0.8590	60.3050
 0.8600	60.3100
 0.8610	60.3100
 0.8620	60.3170
 0.8630	60.3380
 0.8640	60.3440
 0.8650	60.3260
 0.8660	60.3370
 0.8670	60.3390
 0.8680	60.3300
 0.8690	60.3200
 0.8700	60.3090
 0.8710	60.3350
 0.8720	60.3640
 0.8730	60.3390
 0.8740	60.3190
 0.8750	60.3180
 0.8760	60.3290
 0.8770	60.3330
 0.8780	60.3300
 0.8790	60.3290
 0.8800	60.3320
 0.8810	60.3310
 0.8820	60.3230
 0.8830	60.3150
 0.8840	60.3130
 0.8850	60.3160
 0.8860	60.3270
 0.8870	60.3230
 0.8880	60.2940
 0.8890	60.3010
 0.8900	60.3010
 0.8910	60.3020
 0.8920	60.3180
 0.8930	60.3000
 0.8940	60.2850
 0.8950	60.2760
 0.8960	60.2560
 0.8970	60.2560
 0.8980	60.2620
 0.8990	60.2640
 0.9000	60.2580
 0.9010	60.2510
 0.9020	60.2390
 0.9030	60.2250
 0.9040	60.2200
 0.9050	60.2190
 0.9060	60.2160
 0.9070	60.2070
 0.9080	60.1960
 0.9090	60.1810
 0.9100	60.1730
 0.9110	60.1750
 0.9120	60.1560
 0.9130	60.1420
 0.9140	60.1420
 0.9150	60.1500
 0.9160	60.1490
 0.9170	60.1350
 0.9180	60.1350
 0.9190	60.1610
 0.9200	60.1160
 0.9210	60.0850
 0.9220	60.0840
 0.9230	60.0810
 0.9240	60.0850
 0.9250	60.0740
 0.9260	60.0530
 0.9270	60.0390
 0.9280	60.0120
 0.9290	59.9950
 0.9300	59.9910
 0.9310	59.9790
 0.9320	59.9610
 0.9330	59.9420
 0.9340	59.9290
 0.9350	59.9320
 0.9360	59.9200
 0.9370	59.8830
 0.9380	59.8350
 0.9390	59.8170
 0.9400	59.8100
 0.9410	59.7930
 0.9420	59.7610
 0.9430	59.7320
 0.9440	59.7090
 0.9450	59.6850
 0.9460	59.6530
 0.9470	59.6150
 0.9480	59.5670
 0.9490	59.5180
 0.9500	59.4770
 0.9510	59.4390
 0.9520	59.4020
 0.9530	59.3560
 0.9540	59.2970
 0.9550	59.2330
 0.9560	59.1720
 0.9570	59.1190
 0.9580	59.0730
 0.9590	59.0330
 0.9600	59.0130
 0.9610	58.9890
 0.9620	58.9390
 0.9630	58.9070
 0.9640	58.8720
 0.9650	58.8520
 0.9660	58.8580
 0.9670	58.8350
 0.9680	58.8230
 0.9690	58.8200
 0.9700	58.8020
 0.9710	58.7780
 0.9720	58.7830
 0.9730	58.7930
 0.9740	58.7710
 0.9750	58.7780
 0.9760	58.7600
 0.9770	58.7400
 0.9780	58.7590
 0.9790	58.7570
 0.9800	58.7680
 0.9810	58.7890
 0.9820	58.7910
 0.9830	58.7500
 0.9840	58.7560
 0.9850	58.7950
 0.9860	58.8070
 0.9870	58.8200
 0.9880	58.8610
 0.9890	58.8990
 0.9900	58.8920
 0.9910	58.9100
 0.9920	58.9670
 0.9930	59.0240
 0.9940	59.0820
 0.9950	59.1390
 0.9960	59.1960
 0.9970	59.2540
 0.9980	59.3110
 0.9990	59.3680
 1.0000	59.4260
 1.0010	59.4830
 1.0020	59.5400
 1.0030	59.5980
 1.0040	59.6550
 1.0050	59.7120
 1.0060	59.7700
 1.0070	59.8270
 1.0080	59.8840
 1.0090	59.9420
 1.0100	59.9420
 1.0110	59.9560
 1.0120	59.9690
 1.0130	59.9840
 1.0140	60.0030
 1.0150	60.0230
 1.0160	60.0370
 1.0170	60.0590
 1.0180	60.0780
 1.0190	60.0890
 1.0200	60.1100
 1.0210	60.1390
 1.0220	60.1590
 1.0230	60.1730
 1.0240	60.1840
 1.0250	60.1950
 1.0260	60.1970
 1.0270	60.2080
 1.0280	60.2260
 1.0290	60.2440
 1.0300	60.2630
 1.0310	60.2790
 1.0320	60.2970
 1.0330	60.3150
 1.0340	60.3310
 1.0350	60.3540
 1.0360	60.3740
 1.0370	60.3800
 1.0380	60.3900
 1.0390	60.3970
 1.0400	60.4000
 1.0410	60.3990
 1.0420	60.4030
 1.0430	60.4020
 1.0440	60.4060
 1.0450	60.4150
 1.0460	60.4290
 1.0470	60.4540
 1.0480	60.4660
 1.0490	60.4760
 1.0500	60.4850
 1.0510	60.4870
 1.0520	60.4830
 1.0530	60.4870
 1.0540	60.4980
 1.0550	60.5060
 1.0560	60.5180
 1.0570	60.5180
 1.0580	60.5100
 1.0590	60.5090
 1.0600	60.5010
 1.0610	60.5000
 1.0620	60.5090
 1.0630	60.5120
 1.0640	60.5120
 1.0650	60.5090
 1.0660	60.4990
 1.0670	60.4950
 1.0680	60.4910
 1.0690	60.4880
 1.0700	60.4830
 1.0710	60.4790
 1.0720	60.4760
 1.0730	60.4690
 1.0740	60.4650
 1.0750	60.4660
 1.0760	60.4620
 1.0770	60.4540
 1.0780	60.4490
 1.0790	60.4420
 1.0800	60.4400
 1.0810	60.4450
 1.0820	60.4440
 1.0830	60.4450
 1.0840	60.4430
 1.0850	60.4350
 1.0860	60.4270
 1.0870	60.4130
 1.0880	60.3920
 1.0890	60.3800
 1.0900	60.3680
 1.0910	60.3530
 1.0920	60.3440
 1.0930	60.3330
 1.0940	60.3170
 1.0950	60.3020
 1.0960	60.2850
 1.0970	60.2720
 1.0980	60.2570
 1.0990	60.2440
 1.1000	60.2380
 1.1010	60.2280
 1.1020	60.2180
 1.1030	60.1990
 1.1040	60.1760
 1.1050	60.1650
 1.1060	60.1520
 1.1070	60.1420
 1.1080	60.1280
 1.1090	60.1220
 1.1100	60.1010
 1.1110	60.0660
 1.1120	60.0430
 1.1130	60.0210
 1.1140	59.9950
 1.1150	59.9740
 1.1160	59.9480
 1.1170	59.9100
 1.1180	59.8810
 1.1190	59.8650
 1.1200	59.8350
 1.1210	59.7990
 1.1220	59.7640
 1.1230	59.7240
 1.1240	59.6840
 1.1250	59.6400
 1.1260	59.6070
 1.1270	59.5480
 1.1280	59.4710
 1.1290	59.3990
 1.1300	59.3170
 1.1310	59.2380
 1.1320	59.1680
 1.1330	59.0820
 1.1340	58.9910
 1.1350	58.8860
 1.1360	58.7680
 1.1370	58.6440
 1.1380	58.5150
 1.1390	58.3830
 1.1400	58.2450
 1.1410	58.1050
 1.1420	57.9640
 1.1430	57.8170
 1.1440	57.6760
 1.1450	57.5370
 1.1460	57.4040
 1.1470	57.2740
 1.1480	57.1470
 1.1490	57.0270
 1.1500	56.9090
 1.1510	56.7860
 1.1520	56.6800
 1.1530	56.5790
 1.1540	56.4920
 1.1550	56.4170
 1.1560	56.3520
 1.1570	56.2960
 1.1580	56.2420
 1.1590	56.1930
 1.1600	56.1480
 1.1610	56.1060
 1.1620	56.0740
 1.1630	56.0400
 1.1640	56.0050
 1.1650	55.9730
 1.1660	55.9380
 1.1670	55.9110
 1.1680	55.8920
 1.1690	55.8710
 1.1700	55.8550
 1.1710	55.8350
 1.1720	55.8190
 1.1730	55.7950
 1.1740	55.7670
 1.1750	55.7390
 1.1760	55.7070
 1.1770	55.6720
 1.1780	55.6460
 1.1790	55.6220
 1.1800	55.5940
 1.1810	55.5690
 1.1820	55.5380
 1.1830	55.5050
 1.1840	55.4760
 1.1850	55.4420
 1.1860	55.4050
 1.1870	55.3750
 1.1880	55.3490
 1.1890	55.3280
 1.1900	55.3090
 1.1910	55.2950
 1.1920	55.2800
 1.1930	55.2670
 1.1940	55.2530
 1.1950	55.2380
 1.1960	55.2330
 1.1970	55.2340
 1.1980	55.2360
 1.1990	55.2430
 1.2000	55.2530
 1.2010	55.2610
 1.2020	55.2730
 1.2030	55.2910
 1.2040	55.3050
 1.2050	55.3230
 1.2060	55.3430
 1.2070	55.3640
 1.2080	55.3900
 1.2090	55.4180
 1.2100	55.4400
 1.2110	55.4660
 1.2120	55.4910
 1.2130	55.5240
 1.2140	55.5610
 1.2150	55.5990
 1.2160	55.6430
 1.2170	55.6880
 1.2180	55.7260
 1.2190	55.7670
 1.2200	55.8170
 1.2210	55.8630
 1.2220	55.9080
 1.2230	55.9580
 1.2240	56.0050
 1.2250	56.0460
 1.2260	56.0890
 1.2270	56.1340
 1.2280	56.1750
 1.2290	56.2110
 1.2300	56.2480
 1.2310	56.2820
 1.2320	56.3140
 1.2330	56.3500
 1.2340	56.3850
 1.2350	56.4260
 1.2360	56.4570
 1.2370	56.4840
 1.2380	56.5090
 1.2390	56.5340
 1.2400	56.5530
 1.2410	56.5730
 1.2420	56.6000
 1.2430	56.6200
 1.2440	56.6410
 1.2450	56.6640
 1.2460	56.6770
 1.2470	56.6910
 1.2480	56.7050
 1.2490	56.7190
 1.2500	56.7360
 1.2510	56.7490
 1.2520	56.7570
 1.2530	56.7650
 1.2540	56.7720
 1.2550	56.7790
 1.2560	56.7890
 1.2570	56.7990
 1.2580	56.8050
 1.2590	56.8100
 1.2600	56.8120
 1.2610	56.8170
 1.2620	56.8220
 1.2630	56.8250
 1.2640	56.8310
 1.2650	56.8290
 1.2660	56.8210
 1.2670	56.8210
 1.2680	56.8190
 1.2690	56.8140
 1.2700	56.8100
 1.2710	56.8010
 1.2720	56.7880
 1.2730	56.7810
 1.2740	56.7750
 1.2750	56.7710
 1.2760	56.7660
 1.2770	56.7520
 1.2780	56.7360
 1.2790	56.7190
 1.2800	56.6930
 1.2810	56.6690
 1.2820	56.6490
 1.2830	56.6220
 1.2840	56.5950
 1.2850	56.5720
 1.2860	56.5460
 1.2870	56.5190
 1.2880	56.4930
 1.2890	56.4680
 1.2900	56.4380
 1.2910	56.4090
 1.2920	56.3780
 1.2930	56.3450
 1.2940	56.3080
 1.2950	56.2630
 1.2960	56.2160
 1.2970	56.1690
 1.2980	56.1230
 1.2990	56.0760
 1.3000	56.0320
 1.3010	55.9800
 1.3020	55.9210
 1.3030	55.8620
 1.3040	55.7930
 1.3050	55.7260
 1.3060	55.6630
 1.3070	55.5920
 1.3080	55.5230
 1.3090	55.4520
 1.3100	55.3800
 1.3110	55.3020
 1.3120	55.2240
 1.3130	55.1410
 1.3140	55.0550
 1.3150	54.9640
 1.3160	54.8730
 1.3170	54.7810
 1.3180	54.6860
 1.3190	54.5860
 1.3200	54.4760
 1.3210	54.3620
 1.3220	54.2470
 1.3230	54.1280
 1.3240	54.0140
 1.3250	53.9000
 1.3260	53.7810
 1.3270	53.6610
 1.3280	53.5360
 1.3290	53.4060
 1.3300	53.2740
 1.3310	53.1390
 1.3320	53.0030
 1.3330	52.8630
 1.3340	52.7250
 1.3350	52.5880
 1.3360	52.4450
 1.3370	52.3040
 1.3380	52.1640
 1.3390	52.0190
 1.3400	51.8690
 1.3410	51.7170
 1.3420	51.5680
 1.3430	51.4230
 1.3440	51.2810
 1.3450	51.1410
 1.3460	51.0060
 1.3470	50.8690
 1.3480	50.7320
 1.3490	50.5960
 1.3500	50.4630
 1.3510	50.3280
 1.3520	50.1880
 1.3530	50.0500
 1.3540	49.9100
 1.3550	49.7680
 1.3560	49.6290
 1.3570	49.4870
 1.3580	49.3430
 1.3590	49.1980
 1.3600	49.0490
 1.3610	48.8960
 1.3620	48.7380
 1.3630	48.5760
 1.3640	48.4040
 1.3650	48.2250
 1.3660	48.0400
 1.3670	47.8390
 1.3680	47.6310
 1.3690	47.4150
 1.3700	47.1810
 1.3710	46.9380
 1.3720	46.6810
 1.3730	46.4030
 1.3740	46.1060
 1.3750	45.7880
 1.3760	45.4460
 1.3770	45.0810
 1.3780	44.6890
 1.3790	44.2780
 1.3800	43.8410
 1.3810	43.3800
 1.3820	42.8970
 1.3830	42.3920
 1.3840	41.8650
 1.3850	41.3150
 1.3860	40.7470
 1.3870	40.1540
 1.3880	39.5560
 1.3890	38.9430
 1.3900	38.3180
 1.3910	37.6900
 1.3920	37.0510
 1.3930	36.4050
 1.3940	35.7610
 1.3950	35.1150
 1.3960	34.4760
 1.3970	33.8470
 1.3980	33.2260
 1.3990	32.6250
 1.4000	32.0420
 1.4010	31.4720
 1.4020	30.9250
 1.4030	30.3970
 1.4040	29.8890
 1.4050	29.4030
 1.4060	28.9380
 1.4070	28.5000
 1.4080	28.0840
 1.4090	27.6920
 1.4100	27.3270
 1.4110	26.9840
 1.4120	26.6630
 1.4130	26.3670
 1.4140	26.0930
 1.4150	25.8400
 1.4160	25.6080
 1.4170	25.3970
 1.4180	25.2040
 1.4190	25.0270
 1.4200	24.8650
 1.4210	24.7140
 1.4220	24.5760
 1.4230	24.4540
 1.4240	24.3460
 1.4250	24.2500
 1.4260	24.1730
 1.4270	24.0980
 1.4280	24.0330
 1.4290	23.9720
 1.4300	23.9170
 1.4310	23.8710
 1.4320	23.8340
 1.4330	23.8020
 1.4340	23.7790
 1.4350	23.7610
 1.4360	23.7480
 1.4370	23.7410
 1.4380	23.7380
 1.4390	23.7410
 1.4400	23.7460
 1.4410	23.7560
 1.4420	23.7690
 1.4430	23.7820
 1.4440	23.8000
 1.4450	23.8200
 1.4460	23.8430
 1.4470	23.8710
 1.4480	23.9000
 1.4490	23.9300
 1.4500	23.9610
 1.4510	23.9920
 1.4520	24.0270
 1.4530	24.0640
 1.4540	24.1010
 1.4550	24.1410
 1.4560	24.1840
 1.4570	24.2270
 1.4580	24.2740
 1.4590	24.3250
 1.4600	24.3800
 1.4610	24.4410
 1.4620	24.5080
 1.4630	24.5820
 1.4640	24.6600
 1.4650	24.7420
 1.4660	24.8300
 1.4670	24.9230
 1.4680	25.0240
 1.4690	25.1290
 1.4700	25.2390
 1.4710	25.3540
 1.4720	25.4720
 1.4730	25.5930
 1.4740	25.7190
 1.4750	25.8470
 1.4760	25.9820
 1.4770	26.1210
 1.4780	26.2590
 1.4790	26.4020
 1.4800	26.5440
 1.4810	26.6850
 1.4820	26.8320
 1.4830	26.9810
 1.4840	27.1310
 1.4850	27.2810
 1.4860	27.4310
 1.4870	27.5840
 1.4880	27.7370
 1.4890	27.8890
 1.4900	28.0430
 1.4910	28.1970
 1.4920	28.3510
 1.4930	28.5070
 1.4940	28.6620
 1.4950	28.8180
 1.4960	28.9720
 1.4970	29.1230
 1.4980	29.2760
 1.4990	29.4280
 1.5000	29.5810
 1.5010	29.7360
 1.5020	29.8900
 1.5030	30.0450
 1.5040	30.1970
 1.5050	30.3460
 1.5060	30.4970
 1.5070	30.6440
 1.5080	30.7920
 1.5090	30.9400
 1.5100	31.0890
 1.5110	31.2350
 1.5120	31.3820
 1.5130	31.5280
 1.5140	31.6690
 1.5150	31.8120
 1.5160	31.9510
 1.5170	32.0900
 1.5180	32.2280
 1.5190	32.3650
 1.5200	32.5000
 1.5210	32.6330
 1.5220	32.7670
 1.5230	32.9010
 1.5240	33.0320
 1.5250	33.1650
 1.5260	33.2910
 1.5270	33.4110
 1.5280	33.5370
 1.5290	33.6600
 1.5300	33.7850
 1.5310	33.9100
 1.5320	34.0330
 1.5330	34.1520
 1.5340	34.2680
 1.5350	34.3830
 1.5360	34.4980
 1.5370	34.6090
 1.5380	34.7240
 1.5390	34.8380
 1.5400	34.9490
 1.5410	35.0610
 1.5420	35.1680
 1.5430	35.2730
 1.5440	35.3830
 1.5450	35.4860
 1.5460	35.5890
 1.5470	35.6960
 1.5480	35.7990
 1.5490	35.9020
 1.5500	36.0030
 1.5510	36.1020
 1.5520	36.2050
 1.5530	36.3030
 1.5540	36.4030
 1.5550	36.5000
 1.5560	36.5900
 1.5570	36.6830
 1.5580	36.7760
 1.5590	36.8700
 1.5600	36.9660
 1.5610	37.0580
 1.5620	37.1470
 1.5630	37.2340
 1.5640	37.3130
 1.5650	37.3970
 1.5660	37.4850
 1.5670	37.5740
 1.5680	37.6630
 1.5690	37.7490
 1.5700	37.8280
 1.5710	37.9040
 1.5720	37.9800
 1.5730	38.0580
 1.5740	38.1380
 1.5750	38.2180
 1.5760	38.3010
 1.5770	38.3780
 1.5780	38.4540
 1.5790	38.5300
 1.5800	38.6010
 1.5810	38.6760
 1.5820	38.7510
 1.5830	38.8260
 1.5840	38.9050
 1.5850	38.9820
 1.5860	39.0580
 1.5870	39.1330
 1.5880	39.2060
 1.5890	39.2840
 1.5900	39.3580
 1.5910	39.4320
 1.5920	39.5050
 1.5930	39.5710
 1.5940	39.6340
 1.5950	39.7010
 1.5960	39.7670
 1.5970	39.8330
 1.5980	39.9060
 1.5990	39.9780
 1.6000	40.0450
 1.6010	40.1100
 1.6020	40.1740
 1.6030	40.2330
 1.6040	40.2920
 1.6050	40.3540
 1.6060	40.4130
 1.6070	40.4720
 1.6080	40.5330
 1.6090	40.5910
 1.6100	40.6480
 1.6110	40.7060
 1.6120	40.7600
 1.6130	40.8160
 1.6140	40.8700
 1.6150	40.9200
 1.6160	40.9710
 1.6170	41.0140
 1.6180	41.0570
 1.6190	41.1000
 1.6200	41.1390
 1.6210	41.1790
 1.6220	41.2170
 1.6230	41.2460
 1.6240	41.2730
 1.6250	41.2940
 1.6260	41.3120
 1.6270	41.3340
 1.6280	41.3560
 1.6290	41.3750
 1.6300	41.3940
 1.6310	41.4100
 1.6320	41.4230
 1.6330	41.4350
 1.6340	41.4440
 1.6350	41.4590
 1.6360	41.4730
 1.6370	41.4930
 1.6380	41.5180
 1.6390	41.5450
 1.6400	41.5760
 1.6410	41.6040
 1.6420	41.6340
 1.6430	41.6600
 1.6440	41.6860
 1.6450	41.7110
 1.6460	41.7290
 1.6470	41.7480
 1.6480	41.7620
 1.6490	41.7690
 1.6500	41.7750
 1.6510	41.7760
 1.6520	41.7710
 1.6530	41.7650
 1.6540	41.7570
 1.6550	41.7480
 1.6560	41.7380
 1.6570	41.7270
 1.6580	41.7160
 1.6590	41.7000
 1.6600	41.6800
 1.6610	41.6560
 1.6620	41.6280
 1.6630	41.5970
 1.6640	41.5660
 1.6650	41.5320
 1.6660	41.4960
 1.6670	41.4550
 1.6680	41.4100
 1.6690	41.3610
 1.6700	41.3070
 1.6710	41.2570
 1.6720	41.2010
 1.6730	41.1370
 1.6740	41.0730
 1.6750	40.9990
 1.6760	40.9170
 1.6770	40.8390
 1.6780	40.7580
 1.6790	40.6740
 1.6800	40.5960
 1.6810	40.5150
 1.6820	40.4300
 1.6830	40.3470
 1.6840	40.2610
 1.6850	40.1740
 1.6860	40.0820
 1.6870	39.9860
 1.6880	39.8930
 1.6890	39.8000
 1.6900	39.7140
 1.6910	39.6330
 1.6920	39.5560
 1.6930	39.4850
 1.6940	39.4110
 1.6950	39.3390
 1.6960	39.2680
 1.6970	39.1960
 1.6980	39.1250
 1.6990	39.0610
 1.7000	38.9890
 1.7010	38.9090
 1.7020	38.8400
 1.7030	38.7740
 1.7040	38.7080
 1.7050	38.6510
 1.7060	38.5910
 1.7070	38.5270
 1.7080	38.4670
 1.7090	38.4080
 1.7100	38.3560
 1.7110	38.3080
 1.7120	38.2590
 1.7130	38.2120
 1.7140	38.1610
 1.7150	38.1090
 1.7160	38.0610
 1.7170	38.0150
 1.7180	37.9660
 1.7190	37.9150
 1.7200	37.8670
 1.7210	37.8210
 1.7220	37.7740
 1.7230	37.7270
 1.7240	37.6830
 1.7250	37.6390
 1.7260	37.5970
 1.7270	37.5630
 1.7280	37.5360
 1.7290	37.5050
 1.7300	37.4840
 1.7310	37.4630
 1.7320	37.4410
 1.7330	37.4240
 1.7340	37.4130
 1.7350	37.4000
 1.7360	37.3920
 1.7370	37.3760
 1.7380	37.3550
 1.7390	37.3290
 1.7400	37.2960
 1.7410	37.2620
 1.7420	37.2250
 1.7430	37.1810
 1.7440	37.1300
 1.7450	37.0770
 1.7460	37.0150
 1.7470	36.9560
 1.7480	36.8970
 1.7490	36.8350
 1.7500	36.7720
 1.7510	36.7080
 1.7520	36.6420
 1.7530	36.5820
 1.7540	36.5240
 1.7550	36.4710
 1.7560	36.4150
 1.7570	36.3580
 1.7580	36.3060
 1.7590	36.2550
 1.7600	36.2120
 1.7610	36.1720
 1.7620	36.1340
 1.7630	36.1010
 1.7640	36.0670
 1.7650	36.0350
 1.7660	36.0050
 1.7670	35.9740
 1.7680	35.9490
 1.7690	35.9310
 1.7700	35.9110
 1.7710	35.8910
 1.7720	35.8740
 1.7730	35.8570
 1.7740	35.8420
 1.7750	35.8300
 1.7760	35.8200
 1.7770	35.8150
 1.7780	35.8060
 1.7790	35.7970
 1.7800	35.7870
 1.7810	35.7690
 1.7820	35.7610
 1.7830	35.7570
 1.7840	35.7520
 1.7850	35.7500
 1.7860	35.7500
 1.7870	35.7510
 1.7880	35.7560
 1.7890	35.7630
 1.7900	35.7670
 1.7910	35.7680
 1.7920	35.7620
 1.7930	35.7620
 1.7940	35.7570
 1.7950	35.7600
 1.7960	35.7720
 1.7970	35.7840
 1.7980	35.8040
 1.7990	35.8170
 1.8000	35.8230
 1.8010	35.8370
 1.8020	35.8540
 1.8030	35.8670
 1.8040	35.8810
 1.8050	35.8940
 1.8060	35.9010
 1.8070	35.9130
 1.8080	35.9350
 1.8090	35.9460
 1.8100	35.9520
 1.8110	35.9620
 1.8120	35.9650
 1.8130	35.9740
 1.8140	35.9800
 1.8150	35.9750
 1.8160	35.9750
 1.8170	35.9650
 1.8180	35.9600
 1.8190	35.9670
 1.8200	35.9670
 1.8210	35.9710
 1.8220	35.9700
 1.8230	35.9580
 1.8240	35.9540
 1.8250	35.9550
 1.8260	35.9530
 1.8270	35.9240
 1.8280	35.8960
 1.8290	35.8670
 1.8300	35.8390
 1.8310	35.8100
 1.8320	35.7820
 1.8330	35.7530
 1.8340	35.7250
 1.8350	35.7250
 1.8360	35.6880
 1.8370	35.6450
 1.8380	35.5980
 1.8390	35.5400
 1.8400	35.4770
 1.8410	35.4030
 1.8420	35.3190
 1.8430	35.2260
 1.8440	35.1260
 1.8450	35.0280
 1.8460	34.9220
 1.8470	34.8040
 1.8480	34.6770
 1.8490	34.5410
 1.8500	34.3890
 1.8510	34.2250
 1.8520	34.0420
 1.8530	33.8430
 1.8540	33.6320
 1.8550	33.4090
 1.8560	33.1740
 1.8570	32.9280
 1.8580	32.6690
 1.8590	32.3900
 1.8600	32.0920
 1.8610	31.7790
 1.8620	31.4470
 1.8630	31.0920
 1.8640	30.7160
 1.8650	30.3150
 1.8660	29.8890
 1.8670	29.4370
 1.8680	28.9610
 1.8690	28.4630
 1.8700	27.9460
 1.8710	27.4090
 1.8720	26.8580
 1.8730	26.2850
 1.8740	25.6970
 1.8750	25.0990
 1.8760	24.4790
 1.8770	23.8610
 1.8780	23.2440
 1.8790	22.6150
 1.8800	21.9900
 1.8810	21.3680
 1.8820	20.7400
 1.8830	20.1100
 1.8840	19.4940
 1.8850	18.8810
 1.8860	18.2770
 1.8870	17.6920
 1.8880	17.1180
 1.8890	16.5740
 1.8900	16.0550
 1.8910	15.5600
 1.8920	15.0880
 1.8930	14.6480
 1.8940	14.2240
 1.8950	13.8260
 1.8960	13.4540
 1.8970	13.1010
 1.8980	12.7790
 1.8990	12.4940
 1.9000	12.2270
 1.9010	11.9900
 1.9020	11.7660
 1.9030	11.5670
 1.9040	11.3780
 1.9050	11.2070
 1.9060	11.0610
 1.9070	10.9270
 1.9080	10.8050
 1.9090	10.7000
 1.9100	10.6000
 1.9110	10.5140
 1.9120	10.4480
 1.9130	10.3810
 1.9140	10.3200
 1.9150	10.2730
 1.9160	10.2310
 1.9170	10.1900
 1.9180	10.1630
 1.9190	10.1400
 1.9200	10.1240
 1.9210	10.1150
 1.9220	10.1040
 1.9230	10.0950
 1.9240	10.0940
 1.9250	10.0920
 1.9260	10.1000
 1.9270	10.1130
 1.9280	10.1250
 1.9290	10.1400
 1.9300	10.1510
 1.9310	10.1690
 1.9320	10.1990
 1.9330	10.2260
 1.9340	10.2540
 1.9350	10.2840
 1.9360	10.3130
 1.9370	10.3440
 1.9380	10.3770
 1.9390	10.4130
 1.9400	10.4550
 1.9410	10.5010
 1.9420	10.5480
 1.9430	10.6000
 1.9440	10.6520
 1.9450	10.7030
 1.9460	10.7550
 1.9470	10.8090
 1.9480	10.8640
 1.9490	10.9190
 1.9500	10.9720
 1.9510	11.0280
 1.9520	11.0860
 1.9530	11.1440
 1.9540	11.2080
 1.9550	11.2730
 1.9560	11.3440
 1.9570	11.4130
 1.9580	11.4850
 1.9590	11.5550
 1.9600	11.6260
 1.9610	11.6980
 1.9620	11.7710
 1.9630	11.8440
 1.9640	11.9160
 1.9650	11.9880
 1.9660	12.0620
 1.9670	12.1370
 1.9680	12.2130
 1.9690	12.2880
 1.9700	12.3700
 1.9710	12.4560
 1.9720	12.5430
 1.9730	12.6380
 1.9740	12.7320
 1.9750	12.8190
 1.9760	12.9100
 1.9770	13.0010
 1.9780	13.0880
 1.9790	13.1810
 1.9800	13.2770
 1.9810	13.3740
 1.9820	13.4750
 1.9830	13.5710
 1.9840	13.6640
 1.9850	13.7550
 1.9860	13.8410
 1.9870	13.9280
 1.9880	14.0210
 1.9890	14.1210
 1.9900	14.2230
 1.9910	14.3280
 1.9920	14.4280
 1.9930	14.5240
 1.9940	14.6230
 1.9950	14.7180
 1.9960	14.8170
 1.9970	14.9180
 1.9980	15.0190
 1.9990	15.1220
 2.0000	15.2230
 2.0010	15.3210
 2.0020	15.4220
 2.0030	15.5160
 2.0040	15.6070
 2.0050	15.6990
 2.0060	15.7880
 2.0070	15.8790
 2.0080	15.9740
 2.0090	16.0660
 2.0100	16.1590
 2.0110	16.2490
 2.0120	16.3390
 2.0130	16.4220
 2.0140	16.4980
 2.0150	16.5830
 2.0160	16.6650
 2.0170	16.7410
 2.0180	16.8270
 2.0190	16.9220
 2.0200	17.0070
 2.0210	17.0940
 2.0220	17.1730
 2.0230	17.2380
 2.0240	17.3100
 2.0250	17.3850
 2.0260	17.4540
 2.0270	17.5190
 2.0280	17.5940
 2.0290	17.6610
 2.0300	17.7220
 2.0310	17.7860
 2.0320	17.8500
 2.0330	17.9140
 2.0340	17.9770
 2.0350	18.0410
 2.0360	18.1100
 2.0370	18.1720
 2.0380	18.2290
 2.0390	18.2850
 2.0400	18.3370
 2.0410	18.3880
 2.0420	18.4300
 2.0430	18.4850
 2.0440	18.5360
 2.0450	18.5860
 2.0460	18.6350
 2.0470	18.6850
 2.0480	18.7330
 2.0490	18.7770
 2.0500	18.8230
 2.0510	18.8690
 2.0520	18.9160
 2.0530	18.9630
 2.0540	19.0100
 2.0550	19.0580
 2.0560	19.1040
 2.0570	19.1560
 2.0580	19.2070
 2.0590	19.2610
 2.0600	19.3230
 2.0610	19.3770
 2.0620	19.4280
 2.0630	19.4800
 2.0640	19.5260
 2.0650	19.5810
 2.0660	19.6470
 2.0670	19.7030
 2.0680	19.7610
 2.0690	19.8160
 2.0700	19.8650
 2.0710	19.9140
 2.0720	19.9650
 2.0730	20.0150
 2.0740	20.0630
 2.0750	20.1070
 2.0760	20.1550
 2.0770	20.2030
 2.0780	20.2530
 2.0790	20.3090
 2.0800	20.3540
 2.0810	20.3930
 2.0820	20.4370
 2.0830	20.4760
 2.0840	20.5170
 2.0850	20.5650
 2.0860	20.6110
 2.0870	20.6540
 2.0880	20.6950
 2.0890	20.7450
 2.0900	20.8040
 2.0910	20.8480
 2.0920	20.8890
 2.0930	20.9320
 2.0940	20.9650
 2.0950	21.0080
 2.0960	21.0620
 2.0970	21.1080
 2.0980	21.1480
 2.0990	21.1940
 2.1000	21.2380
 2.1010	21.2900
 2.1020	21.3570
 2.1030	21.4160
 2.1040	21.4700
 2.1050	21.5350
 2.1060	21.5870
 2.1070	21.6290
 2.1080	21.6780
 2.1090	21.7260
 2.1100	21.7750
 2.1110	21.8270
 2.1120	21.8800
 2.1130	21.9390
 2.1140	21.9880
 2.1150	22.0360
 2.1160	22.0810
 2.1170	22.1140
 2.1180	22.1540
 2.1190	22.1940
 2.1200	22.2390
 2.1210	22.2950
 2.1220	22.3420
 2.1230	22.3870
 2.1240	22.4370
 2.1250	22.4770
 2.1260	22.5070
 2.1270	22.5420
 2.1280	22.5740
 2.1290	22.6100
 2.1300	22.6480
 2.1310	22.6810
 2.1320	22.7150
 2.1330	22.7450
 2.1340	22.7640
 2.1350	22.7900
 2.1360	22.8180
 2.1370	22.8460
 2.1380	22.8780
 2.1390	22.9080
 2.1400	22.9350
 2.1410	22.9590
 2.1420	22.9880
 2.1430	23.0170
 2.1440	23.0500
 2.1450	23.0890
 2.1460	23.1210
 2.1470	23.1500
 2.1480	23.1820
 2.1490	23.2130
 2.1500	23.2440
 2.1510	23.2800
 2.1520	23.3110
 2.1530	23.3390
 2.1540	23.3620
 2.1550	23.3770
 2.1560	23.3970
 2.1570	23.4130
 2.1580	23.4320
 2.1590	23.4600
 2.1600	23.4840
 2.1610	23.5040
 2.1620	23.5290
 2.1630	23.5510
 2.1640	23.5710
 2.1650	23.5940
 2.1660	23.6180
 2.1670	23.6430
 2.1680	23.6670
 2.1690	23.6970
 2.1700	23.7350
 2.1710	23.7650
 2.1720	23.7980
 2.1730	23.8250
 2.1740	23.8380
 2.1750	23.8610
 2.1760	23.8870
 2.1770	23.9130
 2.1780	23.9460
 2.1790	23.9720
 2.1800	23.9910
 2.1810	24.0110
 2.1820	24.0260
 2.1830	24.0420
 2.1840	24.0660
 2.1850	24.0980
 2.1860	24.1230
 2.1870	24.1490
 2.1880	24.1790
 2.1890	24.2110
 2.1900	24.2340
 2.1910	24.2620
 2.1920	24.2820
 2.1930	24.2860
 2.1940	24.3000
 2.1950	24.3180
 2.1960	24.3360
 2.1970	24.3550
 2.1980	24.3760
 2.1990	24.4090
 2.2000	24.4270
 2.2010	24.4400
 2.2020	24.4480
 2.2030	24.4370
 2.2040	24.4360
 2.2050	24.4390
 2.2060	24.4460
 2.2070	24.4470
 2.2080	24.4520
 2.2090	24.4490
 2.2100	24.4360
 2.2110	24.4290
 2.2120	24.4230
 2.2130	24.4130
 2.2140	24.4020
 2.2150	24.3880
 2.2160	24.3760
 2.2170	24.3500
 2.2180	24.3110
 2.2190	24.2790
 2.2200	24.2410
 2.2210	24.2050
 2.2220	24.1810
 2.2230	24.1450
 2.2240	24.0930
 2.2250	24.0530
 2.2260	24.0160
 2.2270	23.9810
 2.2280	23.9590
 2.2290	23.9260
 2.2300	23.8890
 2.2310	23.8450
 2.2320	23.8030
 2.2330	23.7540
 2.2340	23.7090
 2.2350	23.6660
 2.2360	23.6160
 2.2370	23.5650
 2.2380	23.5030
 2.2390	23.4320
 2.2400	23.3620
 2.2410	23.2820
 2.2420	23.2040
 2.2430	23.1260
 2.2440	23.0480
 2.2450	22.9720
 2.2460	22.8890
 2.2470	22.8130
 2.2480	22.7190
 2.2490	22.6030
 2.2500	22.4990
 2.2510	22.3830
 2.2520	22.2820
 2.2530	22.1940
 2.2540	22.1030
 2.2550	22.0250
 2.2560	21.9280
 2.2570	21.8210
 2.2580	21.7130
 2.2590	21.5900
 2.2600	21.4700
 2.2610	21.3520
 2.2620	21.2320
 2.2630	21.1180
 2.2640	21.0070
 2.2650	20.9130
 2.2660	20.8200
 2.2670	20.7270
 2.2680	20.6380
 2.2690	20.5540
 2.2700	20.4680
 2.2710	20.3930
 2.2720	20.3220
 2.2730	20.2590
 2.2740	20.2080
 2.2750	20.1470
 2.2760	20.0920
 2.2770	20.0280
 2.2780	19.9500
 2.2790	19.8840
 2.2800	19.8210
 2.2810	19.7610
 2.2820	19.7070
 2.2830	19.6550
 2.2840	19.6100
 2.2850	19.5540
 2.2860	19.5000
 2.2870	19.4360
 2.2880	19.3520
 2.2890	19.2810
 2.2900	19.2150
 2.2910	19.1430
 2.2920	19.0760
 2.2930	19.0020
 2.2940	18.9120
 2.2950	18.8330
 2.2960	18.7630
 2.2970	18.6830
 2.2980	18.5960
 2.2990	18.5190
 2.3000	18.4360
 2.3010	18.3550
 2.3020	18.2860
 2.3030	18.2140
 2.3040	18.1480
 2.3050	18.0960
 2.3060	18.0650
 2.3070	18.0420
 2.3080	18.0220
 2.3090	18.0000
 2.3100	17.9680
 2.3110	17.9500
 2.3120	17.9450
 2.3130	17.9500
 2.3140	17.9590
 2.3150	17.9840
 2.3160	18.0050
 2.3170	18.0330
 2.3180	18.0530
 2.3190	18.0810
 2.3200	18.0900
 2.3210	18.0920
 2.3220	18.0790
 2.3230	18.0440
 2.3240	18.0240
 2.3250	18.0000
 2.3260	17.9700
 2.3270	17.9460
 2.3280	17.9120
 2.3290	17.8560
 2.3300	17.8240
 2.3310	17.8090
 2.3320	17.7790
 2.3330	17.7540
 2.3340	17.7180
 2.3350	17.6660
 2.3360	17.6140
 2.3370	17.5610
 2.3380	17.5050
 2.3390	17.4370
 2.3400	17.3800
 2.3410	17.3280
 2.3420	17.2740
 2.3430	17.2220
 2.3440	17.1750
 2.3450	17.1250
 2.3460	17.0770
 2.3470	17.0290
 2.3480	16.9910
 2.3490	16.9660
 2.3500	16.9420
 2.3510	16.9290
 2.3520	16.9120
 2.3530	16.9040
 2.3540	16.8710
 2.3550	16.8390
 2.3560	16.8240
 2.3570	16.7890
 2.3580	16.7440
 2.3590	16.7180
 2.3600	16.6880
 2.3610	16.6680
 2.3620	16.6750
 2.3630	16.6480
 2.3640	16.6070
 2.3650	16.5710
 2.3660	16.5140
 2.3670	16.4690
 2.3680	16.4380
 2.3690	16.4090
 2.3700	16.3740
 2.3710	16.3310
 2.3720	16.2870
 2.3730	16.2520
 2.3740	16.2230
 2.3750	16.2000
 2.3760	16.1860
 2.3770	16.1610
 2.3780	16.1180
 2.3790	16.0670
 2.3800	16.0270
 2.3810	15.9960
 2.3820	15.9640
 2.3830	15.9470
 2.3840	15.9280
 2.3850	15.8870
 2.3860	15.8480
 2.3870	15.8040
 2.3880	15.7310
 2.3890	15.6590
 2.3900	15.6140
 2.3910	15.5830
 2.3920	15.5510
 2.3930	15.5180
 2.3940	15.4610
 2.3950	15.3930
 2.3960	15.3470
 2.3970	15.3040
 2.3980	15.2600
 2.3990	15.2050
 2.4000	15.1430
 2.4010	15.0990
 2.4020	15.0570
 2.4030	15.0030
 2.4040	14.9720
 2.4050	14.9330
 2.4060	14.8620
 2.4070	14.8150
 2.4080	14.7560
 2.4090	14.7020
 2.4100	14.6710
 2.4110	14.6350
 2.4120	14.5910
 2.4130	14.5190
 2.4140	14.4560
 2.4150	14.4120
 2.4160	14.3700
 2.4170	14.3460
 2.4180	14.2930
 2.4190	14.2000
 2.4200	14.1240
 2.4210	14.0480
 2.4220	14.0050
 2.4230	14.0120
 2.4240	13.9920
 2.4250	13.9490
 2.4260	13.9000
 2.4270	13.8320
 2.4280	13.7640
 2.4290	13.7020
 2.4300	13.6260
 2.4310	13.5550
 2.4320	13.5010
 2.4330	13.4630
 2.4340	13.4360
 2.4350	13.3940
 2.4360	13.3530
 2.4370	13.3110
 2.4380	13.2590
 2.4390	13.2000
 2.4400	13.1110
 2.4410	13.0250
 2.4420	12.9530
 2.4430	12.8970
 2.4440	12.8540
 2.4450	12.8040
 2.4460	12.7590
 2.4470	12.7260
 2.4480	12.7030
 2.4490	12.6400
 2.4500	12.5740
 2.4510	12.5330
 2.4520	12.4400
 2.4530	12.3810
 2.4540	12.3780
 2.4550	12.2980
 2.4560	12.2370
 2.4570	12.2310
 2.4580	12.1850
 2.4590	12.1670
 2.4600	12.1650
 2.4610	12.1050
 2.4620	12.0280
 2.4630	11.9670
 2.4640	11.9500
 2.4650	11.9780
 2.4660	11.9700
 2.4670	11.9050
 2.4680	11.8100
 2.4690	11.7050
 2.4700	11.6240
 2.4710	11.5950
 2.4720	11.5350
 2.4730	11.4220
 2.4740	11.3790
 2.4750	11.3820
 2.4760	11.3570
 2.4770	11.3300
 2.4780	11.3220
 2.4790	11.3440
 2.4800	11.2990
 2.4810	11.2460
 2.4820	11.2560
 2.4830	11.1970
 2.4840	11.2220
 2.4850	11.2660
 2.4860	11.2450
 2.4870	11.1990
 2.4880	11.2330
 2.4890	11.2040
 2.4900	11.1850
 2.4910	11.2470
 2.4920	11.2160
 2.4930	11.2330
 2.4940	11.1830
 2.4950	11.0570
 2.4960	10.9970
 2.4970	10.9430
 2.4980	10.8890
 2.4990	10.8310
 2.5000	10.7200
