Name: Pinus ponderosa 3
Type: vegetation
Class: Tree
Genus: Pinus
Species: ponderosa
Sample No.: VH164
Owner: UCSB
Wavelength Range: VSWIR
Origin: 37.043; -119.3048; WGS84
Collection Date: 6/8/2013
Description: Samples were collected as part of the HyspIRI Airborne Campaign. 48 individual plants were sampled in three times in 2013 - spring  summer  and fall. The name of the sample includes a 1  2  or 3 which references a different individual of the species. Samples were taken to JPL and processed within 48 hours of collection. The same leaves were processed in the Nicolet and then measured using the ASD.
Measurement: Bidirectional reflectance
First Column: X
Second Column: Y
X Units: Wavelength (micrometers)
Y Units: Reflectance (percentage)
First X Value: 0.35
Last X Value: 2.5
Number of X Values: 2151
Additional Information: vegetation.tree.pinus.ponderosa.vswir.vh164.ucsb.asd.ancillary.txt

 0.3500	 5.8670
 0.3510	 5.9020
 0.3520	 6.0180
 0.3530	 5.9950
 0.3540	 5.7540
 0.3550	 5.7170
 0.3560	 5.8440
 0.3570	 5.9390
 0.3580	 5.7820
 0.3590	 5.6600
 0.3600	 5.6680
 0.3610	 5.7740
 0.3620	 5.8440
 0.3630	 5.7690
 0.3640	 5.6680
 0.3650	 5.6580
 0.3660	 5.5900
 0.3670	 5.6350
 0.3680	 5.7390
 0.3690	 5.7170
 0.3700	 5.7720
 0.3710	 5.7700
 0.3720	 5.6590
 0.3730	 5.6580
 0.3740	 5.6480
 0.3750	 5.6600
 0.3760	 5.7360
 0.3770	 5.7480
 0.3780	 5.7580
 0.3790	 5.7640
 0.3800	 5.7110
 0.3810	 5.7130
 0.3820	 5.7510
 0.3830	 5.7800
 0.3840	 5.7260
 0.3850	 5.6640
 0.3860	 5.6750
 0.3870	 5.7900
 0.3880	 5.7860
 0.3890	 5.7700
 0.3900	 5.7750
 0.3910	 5.7460
 0.3920	 5.8070
 0.3930	 5.8560
 0.3940	 5.8370
 0.3950	 5.9360
 0.3960	 5.9590
 0.3970	 5.9010
 0.3980	 5.8550
 0.3990	 5.9180
 0.4000	 5.9770
 0.4010	 5.9930
 0.4020	 6.0390
 0.4030	 6.0690
 0.4040	 6.1000
 0.4050	 6.1420
 0.4060	 6.1790
 0.4070	 6.2070
 0.4080	 6.2450
 0.4090	 6.3190
 0.4100	 6.3540
 0.4110	 6.3810
 0.4120	 6.4290
 0.4130	 6.5020
 0.4140	 6.5650
 0.4150	 6.6190
 0.4160	 6.6690
 0.4170	 6.7190
 0.4180	 6.7700
 0.4190	 6.8270
 0.4200	 6.8850
 0.4210	 6.9610
 0.4220	 7.0340
 0.4230	 7.0890
 0.4240	 7.1260
 0.4250	 7.1520
 0.4260	 7.1830
 0.4270	 7.2250
 0.4280	 7.2720
 0.4290	 7.3170
 0.4300	 7.3520
 0.4310	 7.3650
 0.4320	 7.3920
 0.4330	 7.4210
 0.4340	 7.4370
 0.4350	 7.4620
 0.4360	 7.4930
 0.4370	 7.5230
 0.4380	 7.5410
 0.4390	 7.5590
 0.4400	 7.5890
 0.4410	 7.6320
 0.4420	 7.6620
 0.4430	 7.6860
 0.4440	 7.7090
 0.4450	 7.7480
 0.4460	 7.7950
 0.4470	 7.8330
 0.4480	 7.8660
 0.4490	 7.9100
 0.4500	 7.9540
 0.4510	 7.9900
 0.4520	 8.0170
 0.4530	 8.0480
 0.4540	 8.0790
 0.4550	 8.1060
 0.4560	 8.1340
 0.4570	 8.1470
 0.4580	 8.1650
 0.4590	 8.1870
 0.4600	 8.1910
 0.4610	 8.1980
 0.4620	 8.2060
 0.4630	 8.2070
 0.4640	 8.2180
 0.4650	 8.2240
 0.4660	 8.2250
 0.4670	 8.2280
 0.4680	 8.2350
 0.4690	 8.2400
 0.4700	 8.2410
 0.4710	 8.2400
 0.4720	 8.2390
 0.4730	 8.2370
 0.4740	 8.2420
 0.4750	 8.2470
 0.4760	 8.2570
 0.4770	 8.2660
 0.4780	 8.2760
 0.4790	 8.2810
 0.4800	 8.2890
 0.4810	 8.3040
 0.4820	 8.3190
 0.4830	 8.3270
 0.4840	 8.3310
 0.4850	 8.3480
 0.4860	 8.3710
 0.4870	 8.3960
 0.4880	 8.4200
 0.4890	 8.4650
 0.4900	 8.5110
 0.4910	 8.5630
 0.4920	 8.6290
 0.4930	 8.6990
 0.4940	 8.7740
 0.4950	 8.8590
 0.4960	 8.9620
 0.4970	 9.0670
 0.4980	 9.1810
 0.4990	 9.3140
 0.5000	 9.4590
 0.5010	 9.6120
 0.5020	 9.7760
 0.5030	 9.9620
 0.5040	10.1720
 0.5050	10.3990
 0.5060	10.6370
 0.5070	10.8860
 0.5080	11.1510
 0.5090	11.4370
 0.5100	11.7430
 0.5110	12.0620
 0.5120	12.3950
 0.5130	12.7420
 0.5140	13.1050
 0.5150	13.4860
 0.5160	13.8800
 0.5170	14.2810
 0.5180	14.6850
 0.5190	15.0910
 0.5200	15.4970
 0.5210	15.9050
 0.5220	16.3050
 0.5230	16.6880
 0.5240	17.0530
 0.5250	17.3990
 0.5260	17.7270
 0.5270	18.0340
 0.5280	18.3160
 0.5290	18.5800
 0.5300	18.8190
 0.5310	19.0330
 0.5320	19.2270
 0.5330	19.4040
 0.5340	19.5650
 0.5350	19.7090
 0.5360	19.8380
 0.5370	19.9490
 0.5380	20.0420
 0.5390	20.1270
 0.5400	20.2110
 0.5410	20.2860
 0.5420	20.3520
 0.5430	20.4220
 0.5440	20.4910
 0.5450	20.5580
 0.5460	20.6250
 0.5470	20.6840
 0.5480	20.7360
 0.5490	20.7800
 0.5500	20.8140
 0.5510	20.8420
 0.5520	20.8550
 0.5530	20.8460
 0.5540	20.8220
 0.5550	20.7740
 0.5560	20.7040
 0.5570	20.6140
 0.5580	20.5040
 0.5590	20.3790
 0.5600	20.2440
 0.5610	20.0980
 0.5620	19.9410
 0.5630	19.7730
 0.5640	19.5950
 0.5650	19.4090
 0.5660	19.2140
 0.5670	19.0060
 0.5680	18.7830
 0.5690	18.5510
 0.5700	18.3160
 0.5710	18.0860
 0.5720	17.8670
 0.5730	17.6520
 0.5740	17.4430
 0.5750	17.2490
 0.5760	17.0650
 0.5770	16.8990
 0.5780	16.7500
 0.5790	16.6090
 0.5800	16.4720
 0.5810	16.3350
 0.5820	16.2010
 0.5830	16.0800
 0.5840	15.9690
 0.5850	15.8620
 0.5860	15.7520
 0.5870	15.6430
 0.5880	15.5420
 0.5890	15.4510
 0.5900	15.3640
 0.5910	15.2890
 0.5920	15.2260
 0.5930	15.1730
 0.5940	15.1300
 0.5950	15.0880
 0.5960	15.0430
 0.5970	14.9990
 0.5980	14.9530
 0.5990	14.9080
 0.6000	14.8650
 0.6010	14.8130
 0.6020	14.7510
 0.6030	14.6800
 0.6040	14.6010
 0.6050	14.5190
 0.6060	14.4240
 0.6070	14.3120
 0.6080	14.1950
 0.6090	14.0760
 0.6100	13.9520
 0.6110	13.8200
 0.6120	13.6960
 0.6130	13.5740
 0.6140	13.4510
 0.6150	13.3290
 0.6160	13.2140
 0.6170	13.1060
 0.6180	13.0050
 0.6190	12.9140
 0.6200	12.8330
 0.6210	12.7590
 0.6220	12.6910
 0.6230	12.6350
 0.6240	12.5910
 0.6250	12.5560
 0.6260	12.5220
 0.6270	12.5010
 0.6280	12.4890
 0.6290	12.4790
 0.6300	12.4650
 0.6310	12.4480
 0.6320	12.4280
 0.6330	12.3990
 0.6340	12.3560
 0.6350	12.2930
 0.6360	12.2080
 0.6370	12.1060
 0.6380	11.9840
 0.6390	11.8460
 0.6400	11.6940
 0.6410	11.5310
 0.6420	11.3620
 0.6430	11.1890
 0.6440	11.0110
 0.6450	10.8340
 0.6460	10.6600
 0.6470	10.4980
 0.6480	10.3570
 0.6490	10.2330
 0.6500	10.1260
 0.6510	10.0380
 0.6520	 9.9570
 0.6530	 9.8820
 0.6540	 9.8100
 0.6550	 9.7360
 0.6560	 9.6530
 0.6570	 9.5590
 0.6580	 9.4540
 0.6590	 9.3360
 0.6600	 9.2070
 0.6610	 9.0720
 0.6620	 8.9400
 0.6630	 8.8060
 0.6640	 8.6770
 0.6650	 8.5620
 0.6660	 8.4570
 0.6670	 8.3660
 0.6680	 8.2890
 0.6690	 8.2250
 0.6700	 8.1740
 0.6710	 8.1330
 0.6720	 8.1070
 0.6730	 8.0920
 0.6740	 8.0890
 0.6750	 8.0900
 0.6760	 8.1000
 0.6770	 8.1250
 0.6780	 8.1570
 0.6790	 8.2030
 0.6800	 8.2650
 0.6810	 8.3510
 0.6820	 8.4640
 0.6830	 8.6090
 0.6840	 8.7960
 0.6850	 9.0330
 0.6860	 9.3300
 0.6870	 9.7030
 0.6880	10.1540
 0.6890	10.7000
 0.6900	11.3390
 0.6910	12.0690
 0.6920	12.8850
 0.6930	13.7810
 0.6940	14.7480
 0.6950	15.7790
 0.6960	16.8600
 0.6970	17.9830
 0.6980	19.1370
 0.6990	20.3130
 0.7000	21.5060
 0.7010	22.7090
 0.7020	23.9130
 0.7030	25.1080
 0.7040	26.2950
 0.7050	27.4780
 0.7060	28.6490
 0.7070	29.8090
 0.7080	30.9590
 0.7090	32.1040
 0.7100	33.2390
 0.7110	34.3700
 0.7120	35.4970
 0.7130	36.6120
 0.7140	37.7240
 0.7150	38.8320
 0.7160	39.9310
 0.7170	41.0300
 0.7180	42.1200
 0.7190	43.2000
 0.7200	44.2690
 0.7210	45.3210
 0.7220	46.3620
 0.7230	47.3900
 0.7240	48.3870
 0.7250	49.3650
 0.7260	50.3160
 0.7270	51.2350
 0.7280	52.1180
 0.7290	52.9730
 0.7300	53.7960
 0.7310	54.5810
 0.7320	55.3320
 0.7330	56.0470
 0.7340	56.7260
 0.7350	57.3740
 0.7360	57.9860
 0.7370	58.5600
 0.7380	59.1030
 0.7390	59.6250
 0.7400	60.1170
 0.7410	60.5730
 0.7420	60.9970
 0.7430	61.4020
 0.7440	61.7700
 0.7450	62.1040
 0.7460	62.4260
 0.7470	62.7160
 0.7480	62.9800
 0.7490	63.2270
 0.7500	63.4510
 0.7510	63.6520
 0.7520	63.8360
 0.7530	64.0090
 0.7540	64.1710
 0.7550	64.3100
 0.7560	64.4290
 0.7570	64.5370
 0.7580	64.6570
 0.7590	64.7680
 0.7600	64.8540
 0.7610	64.9200
 0.7620	64.9880
 0.7630	65.0560
 0.7640	65.1140
 0.7650	65.1720
 0.7660	65.2220
 0.7670	65.2670
 0.7680	65.3190
 0.7690	65.3570
 0.7700	65.3900
 0.7710	65.4250
 0.7720	65.4580
 0.7730	65.4860
 0.7740	65.5140
 0.7750	65.5450
 0.7760	65.5720
 0.7770	65.6000
 0.7780	65.6280
 0.7790	65.6530
 0.7800	65.6770
 0.7810	65.7040
 0.7820	65.7300
 0.7830	65.7510
 0.7840	65.7790
 0.7850	65.8090
 0.7860	65.8330
 0.7870	65.8500
 0.7880	65.8690
 0.7890	65.8910
 0.7900	65.9110
 0.7910	65.9240
 0.7920	65.9470
 0.7930	65.9760
 0.7940	65.9940
 0.7950	66.0090
 0.7960	66.0220
 0.7970	66.0360
 0.7980	66.0580
 0.7990	66.0770
 0.8000	66.0910
 0.8010	66.0990
 0.8020	66.1070
 0.8030	66.1100
 0.8040	66.1160
 0.8050	66.1320
 0.8060	66.1340
 0.8070	66.1380
 0.8080	66.1470
 0.8090	66.1540
 0.8100	66.1520
 0.8110	66.1520
 0.8120	66.1570
 0.8130	66.1530
 0.8140	66.1490
 0.8150	66.1470
 0.8160	66.1480
 0.8170	66.1480
 0.8180	66.1390
 0.8190	66.1310
 0.8200	66.1350
 0.8210	66.1300
 0.8220	66.1160
 0.8230	66.0980
 0.8240	66.0900
 0.8250	66.0760
 0.8260	66.0560
 0.8270	66.0320
 0.8280	65.9990
 0.8290	65.9660
 0.8300	65.9360
 0.8310	65.9070
 0.8320	65.8740
 0.8330	65.8550
 0.8340	65.8440
 0.8350	65.8260
 0.8360	65.8080
 0.8370	65.7930
 0.8380	65.7850
 0.8390	65.7920
 0.8400	65.7940
 0.8410	65.7960
 0.8420	65.8020
 0.8430	65.8020
 0.8440	65.8020
 0.8450	65.8020
 0.8460	65.8000
 0.8470	65.8140
 0.8480	65.8190
 0.8490	65.8170
 0.8500	65.8150
 0.8510	65.8250
 0.8520	65.8320
 0.8530	65.8360
 0.8540	65.8410
 0.8550	65.8330
 0.8560	65.8350
 0.8570	65.8460
 0.8580	65.8420
 0.8590	65.8480
 0.8600	65.8600
 0.8610	65.8680
 0.8620	65.8660
 0.8630	65.8610
 0.8640	65.8610
 0.8650	65.8670
 0.8660	65.8680
 0.8670	65.8650
 0.8680	65.8600
 0.8690	65.8560
 0.8700	65.8600
 0.8710	65.8640
 0.8720	65.8620
 0.8730	65.8540
 0.8740	65.8520
 0.8750	65.8490
 0.8760	65.8440
 0.8770	65.8430
 0.8780	65.8310
 0.8790	65.8160
 0.8800	65.8040
 0.8810	65.7920
 0.8820	65.7840
 0.8830	65.7790
 0.8840	65.7740
 0.8850	65.7570
 0.8860	65.7490
 0.8870	65.7430
 0.8880	65.7290
 0.8890	65.7100
 0.8900	65.6940
 0.8910	65.6800
 0.8920	65.6610
 0.8930	65.6460
 0.8940	65.6300
 0.8950	65.6120
 0.8960	65.5940
 0.8970	65.5770
 0.8980	65.5540
 0.8990	65.5320
 0.9000	65.5280
 0.9010	65.5110
 0.9020	65.4790
 0.9030	65.4430
 0.9040	65.4220
 0.9050	65.4060
 0.9060	65.3860
 0.9070	65.3600
 0.9080	65.3330
 0.9090	65.3070
 0.9100	65.2810
 0.9110	65.2540
 0.9120	65.2170
 0.9130	65.1790
 0.9140	65.1460
 0.9150	65.1160
 0.9160	65.0700
 0.9170	65.0240
 0.9180	64.9760
 0.9190	64.9160
 0.9200	64.8610
 0.9210	64.7950
 0.9220	64.7210
 0.9230	64.6480
 0.9240	64.5730
 0.9250	64.4700
 0.9260	64.3490
 0.9270	64.2440
 0.9280	64.1470
 0.9290	64.0290
 0.9300	63.8910
 0.9310	63.7630
 0.9320	63.6210
 0.9330	63.4710
 0.9340	63.3150
 0.9350	63.1450
 0.9360	62.9830
 0.9370	62.8190
 0.9380	62.6440
 0.9390	62.4570
 0.9400	62.2640
 0.9410	62.0710
 0.9420	61.8740
 0.9430	61.6640
 0.9440	61.4350
 0.9450	61.2010
 0.9460	60.9590
 0.9470	60.6730
 0.9480	60.3860
 0.9490	60.0890
 0.9500	59.7720
 0.9510	59.4560
 0.9520	59.1180
 0.9530	58.7700
 0.9540	58.4330
 0.9550	58.1050
 0.9560	57.7900
 0.9570	57.4980
 0.9580	57.2390
 0.9590	56.9930
 0.9600	56.7710
 0.9610	56.5850
 0.9620	56.4350
 0.9630	56.2860
 0.9640	56.1530
 0.9650	56.0360
 0.9660	55.9360
 0.9670	55.8690
 0.9680	55.8030
 0.9690	55.7410
 0.9700	55.6940
 0.9710	55.6390
 0.9720	55.5920
 0.9730	55.5620
 0.9740	55.5440
 0.9750	55.5010
 0.9760	55.4860
 0.9770	55.4920
 0.9780	55.4840
 0.9790	55.4850
 0.9800	55.4990
 0.9810	55.5310
 0.9820	55.5780
 0.9830	55.6110
 0.9840	55.6330
 0.9850	55.6730
 0.9860	55.7510
 0.9870	55.8080
 0.9880	55.8680
 0.9890	55.9330
 0.9900	55.9970
 0.9910	56.0800
 0.9920	56.1690
 0.9930	56.2520
 0.9940	56.3280
 0.9950	56.4330
 0.9960	56.5390
 0.9970	56.6270
 0.9980	56.7000
 0.9990	56.7980
 1.0000	57.1060
 1.0010	57.5100
 1.0020	57.8320
 1.0030	57.9540
 1.0040	58.0710
 1.0050	58.1840
 1.0060	58.2960
 1.0070	58.4140
 1.0080	58.5320
 1.0090	58.6520
 1.0100	58.7720
 1.0110	58.8900
 1.0120	59.0130
 1.0130	59.1400
 1.0140	59.2670
 1.0150	59.3980
 1.0160	59.5270
 1.0170	59.6480
 1.0180	59.7720
 1.0190	59.8990
 1.0200	60.0250
 1.0210	60.1560
 1.0220	60.2870
 1.0230	60.4120
 1.0240	60.5310
 1.0250	60.6530
 1.0260	60.7740
 1.0270	60.8940
 1.0280	61.0160
 1.0290	61.1320
 1.0300	61.2420
 1.0310	61.3540
 1.0320	61.4670
 1.0330	61.5750
 1.0340	61.6800
 1.0350	61.7870
 1.0360	61.8940
 1.0370	61.9990
 1.0380	62.1020
 1.0390	62.2100
 1.0400	62.3060
 1.0410	62.3920
 1.0420	62.4800
 1.0430	62.5680
 1.0440	62.6490
 1.0450	62.7260
 1.0460	62.8030
 1.0470	62.8730
 1.0480	62.9460
 1.0490	63.0270
 1.0500	63.0990
 1.0510	63.1680
 1.0520	63.2370
 1.0530	63.2950
 1.0540	63.3430
 1.0550	63.3950
 1.0560	63.4440
 1.0570	63.4900
 1.0580	63.5350
 1.0590	63.5780
 1.0600	63.6180
 1.0610	63.6550
 1.0620	63.6930
 1.0630	63.7240
 1.0640	63.7480
 1.0650	63.7710
 1.0660	63.7920
 1.0670	63.8090
 1.0680	63.8230
 1.0690	63.8340
 1.0700	63.8420
 1.0710	63.8470
 1.0720	63.8480
 1.0730	63.8460
 1.0740	63.8410
 1.0750	63.8330
 1.0760	63.8210
 1.0770	63.8050
 1.0780	63.7860
 1.0790	63.7640
 1.0800	63.7390
 1.0810	63.7110
 1.0820	63.6800
 1.0830	63.6480
 1.0840	63.6100
 1.0850	63.5710
 1.0860	63.5270
 1.0870	63.4810
 1.0880	63.4280
 1.0890	63.3770
 1.0900	63.3280
 1.0910	63.2730
 1.0920	63.2190
 1.0930	63.1590
 1.0940	63.0940
 1.0950	63.0310
 1.0960	62.9690
 1.0970	62.9010
 1.0980	62.8310
 1.0990	62.7580
 1.1000	62.6820
 1.1010	62.6040
 1.1020	62.5240
 1.1030	62.4410
 1.1040	62.3600
 1.1050	62.2760
 1.1060	62.1910
 1.1070	62.1090
 1.1080	62.0220
 1.1090	61.9310
 1.1100	61.8420
 1.1110	61.7550
 1.1120	61.6600
 1.1130	61.5640
 1.1140	61.4600
 1.1150	61.3490
 1.1160	61.2320
 1.1170	61.1140
 1.1180	60.9810
 1.1190	60.8390
 1.1200	60.6860
 1.1210	60.5190
 1.1220	60.3360
 1.1230	60.1350
 1.1240	59.9180
 1.1250	59.6780
 1.1260	59.4220
 1.1270	59.1370
 1.1280	58.8320
 1.1290	58.4960
 1.1300	58.1350
 1.1310	57.7440
 1.1320	57.3230
 1.1330	56.8830
 1.1340	56.4160
 1.1350	55.9310
 1.1360	55.4250
 1.1370	54.8980
 1.1380	54.3580
 1.1390	53.8080
 1.1400	53.2490
 1.1410	52.7010
 1.1420	52.1570
 1.1430	51.6140
 1.1440	51.0900
 1.1450	50.5710
 1.1460	50.0830
 1.1470	49.6030
 1.1480	49.1620
 1.1490	48.7460
 1.1500	48.3610
 1.1510	48.0040
 1.1520	47.6740
 1.1530	47.3720
 1.1540	47.0970
 1.1550	46.8500
 1.1560	46.6300
 1.1570	46.4350
 1.1580	46.2630
 1.1590	46.1100
 1.1600	45.9750
 1.1610	45.8550
 1.1620	45.7480
 1.1630	45.6520
 1.1640	45.5670
 1.1650	45.4910
 1.1660	45.4280
 1.1670	45.3680
 1.1680	45.3180
 1.1690	45.2700
 1.1700	45.2280
 1.1710	45.1850
 1.1720	45.1460
 1.1730	45.1070
 1.1740	45.0670
 1.1750	45.0290
 1.1760	44.9920
 1.1770	44.9530
 1.1780	44.9140
 1.1790	44.8740
 1.1800	44.8320
 1.1810	44.7900
 1.1820	44.7500
 1.1830	44.7090
 1.1840	44.6680
 1.1850	44.6300
 1.1860	44.5910
 1.1870	44.5520
 1.1880	44.5170
 1.1890	44.4830
 1.1900	44.4540
 1.1910	44.4280
 1.1920	44.4050
 1.1930	44.3870
 1.1940	44.3720
 1.1950	44.3590
 1.1960	44.3520
 1.1970	44.3510
 1.1980	44.3540
 1.1990	44.3620
 1.2000	44.3740
 1.2010	44.3890
 1.2020	44.4060
 1.2030	44.4280
 1.2040	44.4540
 1.2050	44.4830
 1.2060	44.5150
 1.2070	44.5470
 1.2080	44.5800
 1.2090	44.6160
 1.2100	44.6580
 1.2110	44.7010
 1.2120	44.7460
 1.2130	44.7950
 1.2140	44.8450
 1.2150	44.8970
 1.2160	44.9530
 1.2170	45.0120
 1.2180	45.0690
 1.2190	45.1290
 1.2200	45.1890
 1.2210	45.2500
 1.2220	45.3110
 1.2230	45.3710
 1.2240	45.4320
 1.2250	45.4920
 1.2260	45.5510
 1.2270	45.6140
 1.2280	45.6740
 1.2290	45.7340
 1.2300	45.7950
 1.2310	45.8520
 1.2320	45.9100
 1.2330	45.9680
 1.2340	46.0240
 1.2350	46.0810
 1.2360	46.1380
 1.2370	46.1950
 1.2380	46.2500
 1.2390	46.3020
 1.2400	46.3540
 1.2410	46.4050
 1.2420	46.4550
 1.2430	46.5060
 1.2440	46.5570
 1.2450	46.6040
 1.2460	46.6480
 1.2470	46.6930
 1.2480	46.7390
 1.2490	46.7830
 1.2500	46.8240
 1.2510	46.8620
 1.2520	46.8990
 1.2530	46.9330
 1.2540	46.9650
 1.2550	46.9950
 1.2560	47.0240
 1.2570	47.0500
 1.2580	47.0730
 1.2590	47.0940
 1.2600	47.1150
 1.2610	47.1300
 1.2620	47.1400
 1.2630	47.1500
 1.2640	47.1560
 1.2650	47.1590
 1.2660	47.1610
 1.2670	47.1580
 1.2680	47.1500
 1.2690	47.1390
 1.2700	47.1260
 1.2710	47.1100
 1.2720	47.0900
 1.2730	47.0680
 1.2740	47.0430
 1.2750	47.0140
 1.2760	46.9820
 1.2770	46.9460
 1.2780	46.9030
 1.2790	46.8540
 1.2800	46.8030
 1.2810	46.7480
 1.2820	46.6910
 1.2830	46.6310
 1.2840	46.5680
 1.2850	46.4980
 1.2860	46.4200
 1.2870	46.3370
 1.2880	46.2480
 1.2890	46.1530
 1.2900	46.0530
 1.2910	45.9490
 1.2920	45.8410
 1.2930	45.7240
 1.2940	45.6010
 1.2950	45.4730
 1.2960	45.3390
 1.2970	45.2020
 1.2980	45.0590
 1.2990	44.9100
 1.3000	44.7550
 1.3010	44.5910
 1.3020	44.4220
 1.3030	44.2460
 1.3040	44.0630
 1.3050	43.8770
 1.3060	43.6850
 1.3070	43.4840
 1.3080	43.2800
 1.3090	43.0710
 1.3100	42.8570
 1.3110	42.6370
 1.3120	42.4090
 1.3130	42.1780
 1.3140	41.9400
 1.3150	41.6950
 1.3160	41.4480
 1.3170	41.1980
 1.3180	40.9400
 1.3190	40.6780
 1.3200	40.4140
 1.3210	40.1420
 1.3220	39.8690
 1.3230	39.5950
 1.3240	39.3150
 1.3250	39.0380
 1.3260	38.7580
 1.3270	38.4760
 1.3280	38.1950
 1.3290	37.9120
 1.3300	37.6300
 1.3310	37.3490
 1.3320	37.0660
 1.3330	36.7880
 1.3340	36.5130
 1.3350	36.2380
 1.3360	35.9670
 1.3370	35.6970
 1.3380	35.4300
 1.3390	35.1690
 1.3400	34.9110
 1.3410	34.6620
 1.3420	34.4200
 1.3430	34.1810
 1.3440	33.9500
 1.3450	33.7220
 1.3460	33.4960
 1.3470	33.2780
 1.3480	33.0630
 1.3490	32.8550
 1.3500	32.6530
 1.3510	32.4550
 1.3520	32.2590
 1.3530	32.0670
 1.3540	31.8740
 1.3550	31.6840
 1.3560	31.4930
 1.3570	31.2990
 1.3580	31.1060
 1.3590	30.9100
 1.3600	30.7090
 1.3610	30.5050
 1.3620	30.2940
 1.3630	30.0770
 1.3640	29.8520
 1.3650	29.6170
 1.3660	29.3740
 1.3670	29.1170
 1.3680	28.8490
 1.3690	28.5700
 1.3700	28.2730
 1.3710	27.9620
 1.3720	27.6390
 1.3730	27.2970
 1.3740	26.9410
 1.3750	26.5670
 1.3760	26.1720
 1.3770	25.7570
 1.3780	25.3190
 1.3790	24.8630
 1.3800	24.3920
 1.3810	23.9010
 1.3820	23.4040
 1.3830	22.8950
 1.3840	22.3790
 1.3850	21.8520
 1.3860	21.3270
 1.3870	20.7920
 1.3880	20.2690
 1.3890	19.7460
 1.3900	19.2300
 1.3910	18.7280
 1.3920	18.2350
 1.3930	17.7520
 1.3940	17.2850
 1.3950	16.8290
 1.3960	16.3920
 1.3970	15.9760
 1.3980	15.5770
 1.3990	15.2020
 1.4000	14.8460
 1.4010	14.5070
 1.4020	14.1900
 1.4030	13.8910
 1.4040	13.6100
 1.4050	13.3480
 1.4060	13.1030
 1.4070	12.8770
 1.4080	12.6670
 1.4090	12.4710
 1.4100	12.2900
 1.4110	12.1210
 1.4120	11.9640
 1.4130	11.8200
 1.4140	11.6860
 1.4150	11.5630
 1.4160	11.4500
 1.4170	11.3450
 1.4180	11.2480
 1.4190	11.1570
 1.4200	11.0740
 1.4210	10.9970
 1.4220	10.9240
 1.4230	10.8600
 1.4240	10.7990
 1.4250	10.7430
 1.4260	10.6920
 1.4270	10.6450
 1.4280	10.6040
 1.4290	10.5640
 1.4300	10.5270
 1.4310	10.4940
 1.4320	10.4630
 1.4330	10.4360
 1.4340	10.4110
 1.4350	10.3900
 1.4360	10.3710
 1.4370	10.3540
 1.4380	10.3390
 1.4390	10.3260
 1.4400	10.3160
 1.4410	10.3060
 1.4420	10.3000
 1.4430	10.2940
 1.4440	10.2910
 1.4450	10.2870
 1.4460	10.2850
 1.4470	10.2850
 1.4480	10.2870
 1.4490	10.2900
 1.4500	10.2940
 1.4510	10.2980
 1.4520	10.3020
 1.4530	10.3080
 1.4540	10.3160
 1.4550	10.3240
 1.4560	10.3350
 1.4570	10.3470
 1.4580	10.3620
 1.4590	10.3770
 1.4600	10.3950
 1.4610	10.4130
 1.4620	10.4340
 1.4630	10.4610
 1.4640	10.4890
 1.4650	10.5190
 1.4660	10.5530
 1.4670	10.5880
 1.4680	10.6270
 1.4690	10.6680
 1.4700	10.7100
 1.4710	10.7580
 1.4720	10.8050
 1.4730	10.8540
 1.4740	10.9050
 1.4750	10.9580
 1.4760	11.0140
 1.4770	11.0720
 1.4780	11.1320
 1.4790	11.1940
 1.4800	11.2550
 1.4810	11.3190
 1.4820	11.3830
 1.4830	11.4500
 1.4840	11.5180
 1.4850	11.5880
 1.4860	11.6550
 1.4870	11.7270
 1.4880	11.7980
 1.4890	11.8690
 1.4900	11.9420
 1.4910	12.0170
 1.4920	12.0910
 1.4930	12.1670
 1.4940	12.2430
 1.4950	12.3210
 1.4960	12.3990
 1.4970	12.4770
 1.4980	12.5560
 1.4990	12.6360
 1.5000	12.7170
 1.5010	12.7990
 1.5020	12.8810
 1.5030	12.9640
 1.5040	13.0470
 1.5050	13.1300
 1.5060	13.2140
 1.5070	13.2970
 1.5080	13.3810
 1.5090	13.4670
 1.5100	13.5530
 1.5110	13.6390
 1.5120	13.7260
 1.5130	13.8130
 1.5140	13.8990
 1.5150	13.9850
 1.5160	14.0720
 1.5170	14.1590
 1.5180	14.2450
 1.5190	14.3320
 1.5200	14.4180
 1.5210	14.5040
 1.5220	14.5910
 1.5230	14.6800
 1.5240	14.7680
 1.5250	14.8560
 1.5260	14.9430
 1.5270	15.0290
 1.5280	15.1150
 1.5290	15.2010
 1.5300	15.2870
 1.5310	15.3740
 1.5320	15.4600
 1.5330	15.5470
 1.5340	15.6330
 1.5350	15.7190
 1.5360	15.8060
 1.5370	15.8920
 1.5380	15.9790
 1.5390	16.0650
 1.5400	16.1500
 1.5410	16.2360
 1.5420	16.3210
 1.5430	16.4060
 1.5440	16.4920
 1.5450	16.5750
 1.5460	16.6580
 1.5470	16.7430
 1.5480	16.8270
 1.5490	16.9120
 1.5500	16.9960
 1.5510	17.0780
 1.5520	17.1600
 1.5530	17.2420
 1.5540	17.3230
 1.5550	17.4040
 1.5560	17.4850
 1.5570	17.5650
 1.5580	17.6460
 1.5590	17.7260
 1.5600	17.8060
 1.5610	17.8860
 1.5620	17.9640
 1.5630	18.0430
 1.5640	18.1210
 1.5650	18.1980
 1.5660	18.2750
 1.5670	18.3510
 1.5680	18.4270
 1.5690	18.5000
 1.5700	18.5750
 1.5710	18.6500
 1.5720	18.7230
 1.5730	18.7970
 1.5740	18.8700
 1.5750	18.9430
 1.5760	19.0170
 1.5770	19.0890
 1.5780	19.1610
 1.5790	19.2320
 1.5800	19.3020
 1.5810	19.3730
 1.5820	19.4420
 1.5830	19.5120
 1.5840	19.5830
 1.5850	19.6510
 1.5860	19.7190
 1.5870	19.7880
 1.5880	19.8560
 1.5890	19.9240
 1.5900	19.9930
 1.5910	20.0600
 1.5920	20.1280
 1.5930	20.1950
 1.5940	20.2620
 1.5950	20.3310
 1.5960	20.3980
 1.5970	20.4640
 1.5980	20.5310
 1.5990	20.5970
 1.6000	20.6620
 1.6010	20.7280
 1.6020	20.7910
 1.6030	20.8560
 1.6040	20.9190
 1.6050	20.9820
 1.6060	21.0460
 1.6070	21.1070
 1.6080	21.1680
 1.6090	21.2290
 1.6100	21.2880
 1.6110	21.3470
 1.6120	21.4050
 1.6130	21.4630
 1.6140	21.5180
 1.6150	21.5750
 1.6160	21.6310
 1.6170	21.6850
 1.6180	21.7410
 1.6190	21.7960
 1.6200	21.8480
 1.6210	21.9010
 1.6220	21.9510
 1.6230	22.0010
 1.6240	22.0490
 1.6250	22.0980
 1.6260	22.1460
 1.6270	22.1920
 1.6280	22.2390
 1.6290	22.2830
 1.6300	22.3260
 1.6310	22.3700
 1.6320	22.4140
 1.6330	22.4560
 1.6340	22.4990
 1.6350	22.5400
 1.6360	22.5790
 1.6370	22.6170
 1.6380	22.6540
 1.6390	22.6900
 1.6400	22.7250
 1.6410	22.7590
 1.6420	22.7910
 1.6430	22.8230
 1.6440	22.8530
 1.6450	22.8810
 1.6460	22.9080
 1.6470	22.9330
 1.6480	22.9560
 1.6490	22.9780
 1.6500	22.9990
 1.6510	23.0160
 1.6520	23.0330
 1.6530	23.0460
 1.6540	23.0570
 1.6550	23.0690
 1.6560	23.0790
 1.6570	23.0890
 1.6580	23.0970
 1.6590	23.1030
 1.6600	23.1080
 1.6610	23.1130
 1.6620	23.1180
 1.6630	23.1210
 1.6640	23.1250
 1.6650	23.1290
 1.6660	23.1330
 1.6670	23.1370
 1.6680	23.1410
 1.6690	23.1430
 1.6700	23.1420
 1.6710	23.1420
 1.6720	23.1410
 1.6730	23.1410
 1.6740	23.1410
 1.6750	23.1390
 1.6760	23.1370
 1.6770	23.1330
 1.6780	23.1280
 1.6790	23.1210
 1.6800	23.1120
 1.6810	23.1010
 1.6820	23.0890
 1.6830	23.0750
 1.6840	23.0600
 1.6850	23.0430
 1.6860	23.0240
 1.6870	23.0040
 1.6880	22.9820
 1.6890	22.9560
 1.6900	22.9300
 1.6910	22.9020
 1.6920	22.8740
 1.6930	22.8440
 1.6940	22.8150
 1.6950	22.7860
 1.6960	22.7570
 1.6970	22.7290
 1.6980	22.6980
 1.6990	22.6670
 1.7000	22.6320
 1.7010	22.5950
 1.7020	22.5580
 1.7030	22.5200
 1.7040	22.4820
 1.7050	22.4450
 1.7060	22.4040
 1.7070	22.3610
 1.7080	22.3200
 1.7090	22.2760
 1.7100	22.2330
 1.7110	22.1890
 1.7120	22.1440
 1.7130	22.0980
 1.7140	22.0520
 1.7150	22.0060
 1.7160	21.9580
 1.7170	21.9090
 1.7180	21.8590
 1.7190	21.8080
 1.7200	21.7560
 1.7210	21.7040
 1.7220	21.6510
 1.7230	21.5990
 1.7240	21.5460
 1.7250	21.4930
 1.7260	21.4420
 1.7270	21.3920
 1.7280	21.3410
 1.7290	21.2900
 1.7300	21.2360
 1.7310	21.1830
 1.7320	21.1300
 1.7330	21.0770
 1.7340	21.0240
 1.7350	20.9700
 1.7360	20.9160
 1.7370	20.8600
 1.7380	20.8030
 1.7390	20.7460
 1.7400	20.6870
 1.7410	20.6270
 1.7420	20.5670
 1.7430	20.5050
 1.7440	20.4400
 1.7450	20.3760
 1.7460	20.3100
 1.7470	20.2450
 1.7480	20.1790
 1.7490	20.1140
 1.7500	20.0470
 1.7510	19.9810
 1.7520	19.9160
 1.7530	19.8500
 1.7540	19.7830
 1.7550	19.7170
 1.7560	19.6510
 1.7570	19.5850
 1.7580	19.5230
 1.7590	19.4620
 1.7600	19.4020
 1.7610	19.3430
 1.7620	19.2850
 1.7630	19.2280
 1.7640	19.1720
 1.7650	19.1170
 1.7660	19.0660
 1.7670	19.0170
 1.7680	18.9680
 1.7690	18.9200
 1.7700	18.8750
 1.7710	18.8300
 1.7720	18.7870
 1.7730	18.7490
 1.7740	18.7100
 1.7750	18.6700
 1.7760	18.6340
 1.7770	18.5990
 1.7780	18.5660
 1.7790	18.5360
 1.7800	18.5060
 1.7810	18.4760
 1.7820	18.4490
 1.7830	18.4240
 1.7840	18.4020
 1.7850	18.3820
 1.7860	18.3650
 1.7870	18.3510
 1.7880	18.3380
 1.7890	18.3270
 1.7900	18.3190
 1.7910	18.3110
 1.7920	18.3040
 1.7930	18.2980
 1.7940	18.2910
 1.7950	18.2880
 1.7960	18.2890
 1.7970	18.2890
 1.7980	18.2920
 1.7990	18.2940
 1.8000	18.2950
 1.8010	18.2970
 1.8020	18.2990
 1.8030	18.3030
 1.8040	18.3100
 1.8050	18.3150
 1.8060	18.3230
 1.8070	18.3280
 1.8080	18.3300
 1.8090	18.3320
 1.8100	18.3330
 1.8110	18.3340
 1.8120	18.3370
 1.8130	18.3380
 1.8140	18.3380
 1.8150	18.3380
 1.8160	18.3360
 1.8170	18.3360
 1.8180	18.3360
 1.8190	18.3370
 1.8200	18.3360
 1.8210	18.3350
 1.8220	18.3300
 1.8230	18.3210
 1.8240	18.3130
 1.8250	18.3020
 1.8260	18.2910
 1.8270	18.2840
 1.8280	18.2710
 1.8290	18.2560
 1.8300	18.1570
 1.8310	17.9930
 1.8320	17.8850
 1.8330	17.8540
 1.8340	17.8190
 1.8350	17.7790
 1.8360	17.7370
 1.8370	17.6920
 1.8380	17.6450
 1.8390	17.5910
 1.8400	17.5350
 1.8410	17.4700
 1.8420	17.4020
 1.8430	17.3250
 1.8440	17.2430
 1.8450	17.1570
 1.8460	17.0630
 1.8470	16.9660
 1.8480	16.8630
 1.8490	16.7510
 1.8500	16.6330
 1.8510	16.5110
 1.8520	16.3780
 1.8530	16.2330
 1.8540	16.0830
 1.8550	15.9190
 1.8560	15.7470
 1.8570	15.5710
 1.8580	15.3830
 1.8590	15.1890
 1.8600	14.9880
 1.8610	14.7780
 1.8620	14.5590
 1.8630	14.3340
 1.8640	14.0980
 1.8650	13.8520
 1.8660	13.5990
 1.8670	13.3390
 1.8680	13.0720
 1.8690	12.7980
 1.8700	12.5180
 1.8710	12.2300
 1.8720	11.9410
 1.8730	11.6500
 1.8740	11.3580
 1.8750	11.0680
 1.8760	10.7730
 1.8770	10.4840
 1.8780	10.2040
 1.8790	 9.9290
 1.8800	 9.6610
 1.8810	 9.4060
 1.8820	 9.1530
 1.8830	 8.9060
 1.8840	 8.6640
 1.8850	 8.4260
 1.8860	 8.1990
 1.8870	 7.9810
 1.8880	 7.7730
 1.8890	 7.5810
 1.8900	 7.3970
 1.8910	 7.2240
 1.8920	 7.0630
 1.8930	 6.9170
 1.8940	 6.7780
 1.8950	 6.6490
 1.8960	 6.5280
 1.8970	 6.4150
 1.8980	 6.3130
 1.8990	 6.2200
 1.9000	 6.1340
 1.9010	 6.0600
 1.9020	 5.9890
 1.9030	 5.9250
 1.9040	 5.8660
 1.9050	 5.8170
 1.9060	 5.7700
 1.9070	 5.7310
 1.9080	 5.6950
 1.9090	 5.6600
 1.9100	 5.6250
 1.9110	 5.5970
 1.9120	 5.5730
 1.9130	 5.5520
 1.9140	 5.5310
 1.9150	 5.5170
 1.9160	 5.5060
 1.9170	 5.4920
 1.9180	 5.4770
 1.9190	 5.4660
 1.9200	 5.4510
 1.9210	 5.4400
 1.9220	 5.4330
 1.9230	 5.4280
 1.9240	 5.4240
 1.9250	 5.4180
 1.9260	 5.4170
 1.9270	 5.4110
 1.9280	 5.4090
 1.9290	 5.4100
 1.9300	 5.4100
 1.9310	 5.4150
 1.9320	 5.4190
 1.9330	 5.4240
 1.9340	 5.4310
 1.9350	 5.4360
 1.9360	 5.4380
 1.9370	 5.4430
 1.9380	 5.4470
 1.9390	 5.4530
 1.9400	 5.4610
 1.9410	 5.4720
 1.9420	 5.4830
 1.9430	 5.4920
 1.9440	 5.5010
 1.9450	 5.5110
 1.9460	 5.5210
 1.9470	 5.5310
 1.9480	 5.5430
 1.9490	 5.5540
 1.9500	 5.5720
 1.9510	 5.5910
 1.9520	 5.6060
 1.9530	 5.6180
 1.9540	 5.6310
 1.9550	 5.6470
 1.9560	 5.6630
 1.9570	 5.6800
 1.9580	 5.6950
 1.9590	 5.7120
 1.9600	 5.7300
 1.9610	 5.7460
 1.9620	 5.7660
 1.9630	 5.7860
 1.9640	 5.8060
 1.9650	 5.8230
 1.9660	 5.8400
 1.9670	 5.8610
 1.9680	 5.8820
 1.9690	 5.9040
 1.9700	 5.9250
 1.9710	 5.9510
 1.9720	 5.9720
 1.9730	 5.9940
 1.9740	 6.0140
 1.9750	 6.0350
 1.9760	 6.0560
 1.9770	 6.0780
 1.9780	 6.1010
 1.9790	 6.1250
 1.9800	 6.1510
 1.9810	 6.1770
 1.9820	 6.2040
 1.9830	 6.2300
 1.9840	 6.2560
 1.9850	 6.2830
 1.9860	 6.3090
 1.9870	 6.3340
 1.9880	 6.3610
 1.9890	 6.3850
 1.9900	 6.4100
 1.9910	 6.4390
 1.9920	 6.4680
 1.9930	 6.4950
 1.9940	 6.5220
 1.9950	 6.5470
 1.9960	 6.5750
 1.9970	 6.6010
 1.9980	 6.6280
 1.9990	 6.6590
 2.0000	 6.6870
 2.0010	 6.7170
 2.0020	 6.7460
 2.0030	 6.7740
 2.0040	 6.8030
 2.0050	 6.8330
 2.0060	 6.8620
 2.0070	 6.8920
 2.0080	 6.9230
 2.0090	 6.9530
 2.0100	 6.9820
 2.0110	 7.0110
 2.0120	 7.0370
 2.0130	 7.0680
 2.0140	 7.0970
 2.0150	 7.1280
 2.0160	 7.1570
 2.0170	 7.1890
 2.0180	 7.2160
 2.0190	 7.2430
 2.0200	 7.2710
 2.0210	 7.2990
 2.0220	 7.3270
 2.0230	 7.3530
 2.0240	 7.3810
 2.0250	 7.4130
 2.0260	 7.4420
 2.0270	 7.4730
 2.0280	 7.5010
 2.0290	 7.5300
 2.0300	 7.5530
 2.0310	 7.5790
 2.0320	 7.6040
 2.0330	 7.6270
 2.0340	 7.6570
 2.0350	 7.6830
 2.0360	 7.7090
 2.0370	 7.7360
 2.0380	 7.7640
 2.0390	 7.7880
 2.0400	 7.8090
 2.0410	 7.8340
 2.0420	 7.8600
 2.0430	 7.8840
 2.0440	 7.9080
 2.0450	 7.9350
 2.0460	 7.9600
 2.0470	 7.9820
 2.0480	 8.0060
 2.0490	 8.0290
 2.0500	 8.0520
 2.0510	 8.0770
 2.0520	 8.0990
 2.0530	 8.1230
 2.0540	 8.1460
 2.0550	 8.1660
 2.0560	 8.1850
 2.0570	 8.2070
 2.0580	 8.2320
 2.0590	 8.2540
 2.0600	 8.2800
 2.0610	 8.3040
 2.0620	 8.3240
 2.0630	 8.3470
 2.0640	 8.3730
 2.0650	 8.3970
 2.0660	 8.4250
 2.0670	 8.4500
 2.0680	 8.4750
 2.0690	 8.5000
 2.0700	 8.5230
 2.0710	 8.5480
 2.0720	 8.5710
 2.0730	 8.5940
 2.0740	 8.6220
 2.0750	 8.6490
 2.0760	 8.6740
 2.0770	 8.7010
 2.0780	 8.7240
 2.0790	 8.7460
 2.0800	 8.7700
 2.0810	 8.7990
 2.0820	 8.8250
 2.0830	 8.8490
 2.0840	 8.8740
 2.0850	 8.8970
 2.0860	 8.9220
 2.0870	 8.9480
 2.0880	 8.9720
 2.0890	 8.9960
 2.0900	 9.0190
 2.0910	 9.0450
 2.0920	 9.0690
 2.0930	 9.0960
 2.0940	 9.1230
 2.0950	 9.1490
 2.0960	 9.1750
 2.0970	 9.1990
 2.0980	 9.2190
 2.0990	 9.2440
 2.1000	 9.2720
 2.1010	 9.2990
 2.1020	 9.3280
 2.1030	 9.3540
 2.1040	 9.3770
 2.1050	 9.4000
 2.1060	 9.4240
 2.1070	 9.4460
 2.1080	 9.4730
 2.1090	 9.5020
 2.1100	 9.5300
 2.1110	 9.5600
 2.1120	 9.5860
 2.1130	 9.6110
 2.1140	 9.6380
 2.1150	 9.6620
 2.1160	 9.6880
 2.1170	 9.7170
 2.1180	 9.7440
 2.1190	 9.7680
 2.1200	 9.7940
 2.1210	 9.8230
 2.1220	 9.8450
 2.1230	 9.8710
 2.1240	 9.9000
 2.1250	 9.9260
 2.1260	 9.9510
 2.1270	 9.9750
 2.1280	10.0000
 2.1290	10.0230
 2.1300	10.0450
 2.1310	10.0670
 2.1320	10.0880
 2.1330	10.1100
 2.1340	10.1320
 2.1350	10.1560
 2.1360	10.1790
 2.1370	10.2010
 2.1380	10.2250
 2.1390	10.2480
 2.1400	10.2710
 2.1410	10.2940
 2.1420	10.3150
 2.1430	10.3340
 2.1440	10.3530
 2.1450	10.3710
 2.1460	10.3910
 2.1470	10.4110
 2.1480	10.4300
 2.1490	10.4470
 2.1500	10.4650
 2.1510	10.4820
 2.1520	10.4990
 2.1530	10.5160
 2.1540	10.5340
 2.1550	10.5540
 2.1560	10.5710
 2.1570	10.5910
 2.1580	10.6070
 2.1590	10.6230
 2.1600	10.6350
 2.1610	10.6460
 2.1620	10.6590
 2.1630	10.6740
 2.1640	10.6880
 2.1650	10.7030
 2.1660	10.7190
 2.1670	10.7350
 2.1680	10.7490
 2.1690	10.7640
 2.1700	10.7790
 2.1710	10.7940
 2.1720	10.8090
 2.1730	10.8240
 2.1740	10.8370
 2.1750	10.8510
 2.1760	10.8670
 2.1770	10.8800
 2.1780	10.8950
 2.1790	10.9070
 2.1800	10.9180
 2.1810	10.9290
 2.1820	10.9440
 2.1830	10.9520
 2.1840	10.9640
 2.1850	10.9750
 2.1860	10.9860
 2.1870	10.9970
 2.1880	11.0070
 2.1890	11.0170
 2.1900	11.0250
 2.1910	11.0310
 2.1920	11.0390
 2.1930	11.0480
 2.1940	11.0560
 2.1950	11.0650
 2.1960	11.0740
 2.1970	11.0810
 2.1980	11.0910
 2.1990	11.1050
 2.2000	11.1150
 2.2010	11.1210
 2.2020	11.1290
 2.2030	11.1370
 2.2040	11.1440
 2.2050	11.1520
 2.2060	11.1590
 2.2070	11.1630
 2.2080	11.1630
 2.2090	11.1680
 2.2100	11.1760
 2.2110	11.1790
 2.2120	11.1840
 2.2130	11.1840
 2.2140	11.1830
 2.2150	11.1810
 2.2160	11.1830
 2.2170	11.1810
 2.2180	11.1780
 2.2190	11.1720
 2.2200	11.1640
 2.2210	11.1560
 2.2220	11.1450
 2.2230	11.1370
 2.2240	11.1350
 2.2250	11.1260
 2.2260	11.1160
 2.2270	11.1060
 2.2280	11.0950
 2.2290	11.0810
 2.2300	11.0660
 2.2310	11.0560
 2.2320	11.0370
 2.2330	11.0150
 2.2340	10.9960
 2.2350	10.9790
 2.2360	10.9550
 2.2370	10.9300
 2.2380	10.9060
 2.2390	10.8770
 2.2400	10.8510
 2.2410	10.8270
 2.2420	10.8020
 2.2430	10.7730
 2.2440	10.7470
 2.2450	10.7240
 2.2460	10.6960
 2.2470	10.6690
 2.2480	10.6400
 2.2490	10.6070
 2.2500	10.5750
 2.2510	10.5390
 2.2520	10.5050
 2.2530	10.4700
 2.2540	10.4370
 2.2550	10.4070
 2.2560	10.3730
 2.2570	10.3390
 2.2580	10.3060
 2.2590	10.2740
 2.2600	10.2400
 2.2610	10.2050
 2.2620	10.1710
 2.2630	10.1320
 2.2640	10.0960
 2.2650	10.0620
 2.2660	10.0330
 2.2670	10.0000
 2.2680	 9.9700
 2.2690	 9.9370
 2.2700	 9.9000
 2.2710	 9.8690
 2.2720	 9.8410
 2.2730	 9.8150
 2.2740	 9.7930
 2.2750	 9.7690
 2.2760	 9.7480
 2.2770	 9.7260
 2.2780	 9.7020
 2.2790	 9.6820
 2.2800	 9.6640
 2.2810	 9.6460
 2.2820	 9.6300
 2.2830	 9.6110
 2.2840	 9.5900
 2.2850	 9.5690
 2.2860	 9.5490
 2.2870	 9.5280
 2.2880	 9.5120
 2.2890	 9.4910
 2.2900	 9.4700
 2.2910	 9.4480
 2.2920	 9.4250
 2.2930	 9.3990
 2.2940	 9.3700
 2.2950	 9.3440
 2.2960	 9.3160
 2.2970	 9.2930
 2.2980	 9.2760
 2.2990	 9.2580
 2.3000	 9.2330
 2.3010	 9.2050
 2.3020	 9.1740
 2.3030	 9.1390
 2.3040	 9.1060
 2.3050	 9.0840
 2.3060	 9.0670
 2.3070	 9.0520
 2.3080	 9.0370
 2.3090	 9.0180
 2.3100	 8.9980
 2.3110	 8.9750
 2.3120	 8.9540
 2.3130	 8.9350
 2.3140	 8.9190
 2.3150	 8.9030
 2.3160	 8.8860
 2.3170	 8.8710
 2.3180	 8.8530
 2.3190	 8.8330
 2.3200	 8.8110
 2.3210	 8.7860
 2.3220	 8.7650
 2.3230	 8.7440
 2.3240	 8.7250
 2.3250	 8.7110
 2.3260	 8.6870
 2.3270	 8.6550
 2.3280	 8.6280
 2.3290	 8.5910
 2.3300	 8.5670
 2.3310	 8.5480
 2.3320	 8.5240
 2.3330	 8.5040
 2.3340	 8.4820
 2.3350	 8.4560
 2.3360	 8.4350
 2.3370	 8.4130
 2.3380	 8.3930
 2.3390	 8.3710
 2.3400	 8.3500
 2.3410	 8.3280
 2.3420	 8.3030
 2.3430	 8.2700
 2.3440	 8.2470
 2.3450	 8.2220
 2.3460	 8.2000
 2.3470	 8.1750
 2.3480	 8.1580
 2.3490	 8.1400
 2.3500	 8.1260
 2.3510	 8.1240
 2.3520	 8.1130
 2.3530	 8.0960
 2.3540	 8.0760
 2.3550	 8.0510
 2.3560	 8.0280
 2.3570	 8.0010
 2.3580	 7.9800
 2.3590	 7.9640
 2.3600	 7.9410
 2.3610	 7.9240
 2.3620	 7.9100
 2.3630	 7.8850
 2.3640	 7.8670
 2.3650	 7.8500
 2.3660	 7.8230
 2.3670	 7.8050
 2.3680	 7.7850
 2.3690	 7.7610
 2.3700	 7.7420
 2.3710	 7.7210
 2.3720	 7.7040
 2.3730	 7.6890
 2.3740	 7.6700
 2.3750	 7.6570
 2.3760	 7.6430
 2.3770	 7.6210
 2.3780	 7.6020
 2.3790	 7.5780
 2.3800	 7.5540
 2.3810	 7.5370
 2.3820	 7.5160
 2.3830	 7.4940
 2.3840	 7.4680
 2.3850	 7.4400
 2.3860	 7.4180
 2.3870	 7.4000
 2.3880	 7.3860
 2.3890	 7.3670
 2.3900	 7.3520
 2.3910	 7.3370
 2.3920	 7.3190
 2.3930	 7.3030
 2.3940	 7.2890
 2.3950	 7.2830
 2.3960	 7.2790
 2.3970	 7.2740
 2.3980	 7.2700
 2.3990	 7.2540
 2.4000	 7.2290
 2.4010	 7.2060
 2.4020	 7.1760
 2.4030	 7.1500
 2.4040	 7.1290
 2.4050	 7.1090
 2.4060	 7.0900
 2.4070	 7.0710
 2.4080	 7.0460
 2.4090	 7.0210
 2.4100	 6.9990
 2.4110	 6.9660
 2.4120	 6.9420
 2.4130	 6.9200
 2.4140	 6.8910
 2.4150	 6.8730
 2.4160	 6.8620
 2.4170	 6.8520
 2.4180	 6.8390
 2.4190	 6.8200
 2.4200	 6.8000
 2.4210	 6.7760
 2.4220	 6.7620
 2.4230	 6.7470
 2.4240	 6.7240
 2.4250	 6.7010
 2.4260	 6.6760
 2.4270	 6.6610
 2.4280	 6.6490
 2.4290	 6.6190
 2.4300	 6.6000
 2.4310	 6.5780
 2.4320	 6.5450
 2.4330	 6.5260
 2.4340	 6.5090
 2.4350	 6.4840
 2.4360	 6.4720
 2.4370	 6.4640
 2.4380	 6.4490
 2.4390	 6.4400
 2.4400	 6.4200
 2.4410	 6.3970
 2.4420	 6.3710
 2.4430	 6.3260
 2.4440	 6.3090
 2.4450	 6.2860
 2.4460	 6.2510
 2.4470	 6.2450
 2.4480	 6.2340
 2.4490	 6.2240
 2.4500	 6.2270
 2.4510	 6.2190
 2.4520	 6.1900
 2.4530	 6.1670
 2.4540	 6.1440
 2.4550	 6.1260
 2.4560	 6.1270
 2.4570	 6.1250
 2.4580	 6.1090
 2.4590	 6.0960
 2.4600	 6.0610
 2.4610	 6.0210
 2.4620	 6.0180
 2.4630	 6.0090
 2.4640	 5.9860
 2.4650	 5.9670
 2.4660	 5.9270
 2.4670	 5.8910
 2.4680	 5.8750
 2.4690	 5.9050
 2.4700	 5.9020
 2.4710	 5.8980
 2.4720	 5.8880
 2.4730	 5.8490
 2.4740	 5.8320
 2.4750	 5.8320
 2.4760	 5.8200
 2.4770	 5.7870
 2.4780	 5.7790
 2.4790	 5.8010
 2.4800	 5.8010
 2.4810	 5.8180
 2.4820	 5.8150
 2.4830	 5.7610
 2.4840	 5.7520
 2.4850	 5.7340
 2.4860	 5.6950
 2.4870	 5.6820
 2.4880	 5.6590
 2.4890	 5.6490
 2.4900	 5.6600
 2.4910	 5.6720
 2.4920	 5.6860
 2.4930	 5.6810
 2.4940	 5.6760
 2.4950	 5.6840
 2.4960	 5.7140
 2.4970	 5.7340
 2.4980	 5.7200
 2.4990	 5.7250
 2.5000	 5.6990
