Name: Salvia leucophylla 1
Type: vegetation
Class: Shrub
Genus: Salvia
Species: leucophylla
Sample No.: VH091
Owner: UCSB
Wavelength Range: TIR
Origin: 34.698; -120.0477; WGS84
Collection Date: 4/21/2013
Description: Samples were collected as part of the HyspIRI Airborne Campaign. 48 individual plants were sampled in three times in 2013 - spring  summer  and fall. The name of the sample includes a 1  2  or 3 which references a different individual of the species. Samples were taken to JPL and processed within 48 hours of collection. The same leaves were processed in the Nicolet and then measured using the ASD.
Measurement: Hemispherical reflectance
First Column: X
Second Column: Y
X Units: Wavelength (micrometers)
Y Units: Reflectance (percentage)
First X Value: 2.501
Last X Value: 15.387
Number of X Values: 1737
Additional Information: vegetation.shrub.salvia.leucophylla.tir.vh091.ucsb.nicolet.ancillary.txt

 2.5010	14.4960
 2.5030	14.3680
 2.5040	14.3800
 2.5050	14.3650
 2.5060	14.4020
 2.5070	14.4410
 2.5090	14.4530
 2.5100	14.2750
 2.5110	14.2570
 2.5120	14.3770
 2.5140	14.4200
 2.5150	14.3110
 2.5160	14.2770
 2.5170	14.3120
 2.5180	14.3900
 2.5200	14.3210
 2.5210	14.3170
 2.5220	14.2330
 2.5230	14.2230
 2.5250	14.2490
 2.5260	14.3850
 2.5270	14.3730
 2.5280	14.3010
 2.5290	14.2070
 2.5310	14.2930
 2.5320	14.3090
 2.5330	14.3170
 2.5340	14.2820
 2.5360	14.3790
 2.5370	14.3820
 2.5380	14.4070
 2.5390	14.3400
 2.5410	14.3390
 2.5420	14.3420
 2.5430	14.4250
 2.5440	14.4430
 2.5460	14.4570
 2.5470	14.3840
 2.5480	14.3530
 2.5490	14.2640
 2.5510	14.3140
 2.5520	14.3910
 2.5530	14.5410
 2.5540	14.5330
 2.5560	14.4310
 2.5570	14.4750
 2.5580	14.6180
 2.5590	14.5650
 2.5610	14.6090
 2.5620	14.6280
 2.5630	14.5940
 2.5640	14.4590
 2.5660	14.4580
 2.5670	14.5150
 2.5680	14.5620
 2.5700	14.4930
 2.5710	14.4960
 2.5720	14.4830
 2.5730	14.5380
 2.5750	14.5130
 2.5760	14.5450
 2.5770	14.5370
 2.5790	14.5880
 2.5800	14.4820
 2.5810	14.4380
 2.5820	14.4860
 2.5840	14.6180
 2.5850	14.5600
 2.5860	14.4230
 2.5880	14.3750
 2.5890	14.3700
 2.5900	14.3590
 2.5910	14.3990
 2.5930	14.3500
 2.5940	14.4060
 2.5950	14.4470
 2.5970	14.3980
 2.5980	14.2800
 2.5990	14.3170
 2.6000	14.3100
 2.6020	14.3490
 2.6030	14.2460
 2.6040	14.2950
 2.6060	14.3250
 2.6070	14.3340
 2.6080	14.2510
 2.6100	14.1480
 2.6110	14.0200
 2.6120	13.9920
 2.6140	14.0110
 2.6150	14.0440
 2.6160	13.9300
 2.6180	13.8470
 2.6190	13.8170
 2.6200	13.9040
 2.6220	13.8120
 2.6230	13.7590
 2.6240	13.6480
 2.6260	13.5830
 2.6270	13.5650
 2.6280	13.5490
 2.6300	13.4890
 2.6310	13.5680
 2.6320	13.5080
 2.6340	13.4270
 2.6350	13.2980
 2.6360	13.2100
 2.6380	13.1670
 2.6390	13.1440
 2.6400	13.0880
 2.6420	13.0620
 2.6430	13.0350
 2.6440	13.1360
 2.6460	12.9930
 2.6470	12.9180
 2.6480	12.9040
 2.6500	12.9130
 2.6510	12.7940
 2.6520	12.7100
 2.6540	12.7310
 2.6550	12.8000
 2.6560	12.7500
 2.6580	12.6640
 2.6590	12.6180
 2.6610	12.6220
 2.6620	12.5720
 2.6630	12.5610
 2.6650	12.4630
 2.6660	12.4710
 2.6670	12.4110
 2.6690	12.3960
 2.6700	12.3860
 2.6720	12.2680
 2.6730	12.0870
 2.6740	12.0230
 2.6760	11.9310
 2.6770	11.9710
 2.6780	11.9980
 2.6800	11.9780
 2.6810	11.8350
 2.6830	11.8540
 2.6840	11.7460
 2.6850	11.6860
 2.6870	11.6000
 2.6880	11.5680
 2.6900	11.4720
 2.6910	11.4450
 2.6920	11.3090
 2.6940	11.3110
 2.6950	11.2840
 2.6970	11.1870
 2.6980	10.9620
 2.6990	10.9450
 2.7010	10.8910
 2.7020	10.7970
 2.7040	10.6500
 2.7050	10.6140
 2.7060	10.5410
 2.7080	10.4980
 2.7090	10.3840
 2.7110	10.3520
 2.7120	10.1720
 2.7130	10.0660
 2.7150	 9.9940
 2.7160	 9.9870
 2.7180	 9.8340
 2.7190	 9.6800
 2.7210	 9.5990
 2.7220	 9.4750
 2.7230	 9.3600
 2.7250	 9.4330
 2.7260	 9.3480
 2.7280	 9.1290
 2.7290	 8.9240
 2.7310	 8.8610
 2.7320	 8.7930
 2.7330	 8.7810
 2.7350	 8.6720
 2.7360	 8.5720
 2.7380	 8.4370
 2.7390	 8.4120
 2.7410	 8.3330
 2.7420	 8.2710
 2.7440	 8.1530
 2.7450	 8.0260
 2.7470	 7.9550
 2.7480	 7.9220
 2.7490	 7.8670
 2.7510	 7.7760
 2.7520	 7.7070
 2.7540	 7.8030
 2.7550	 7.7570
 2.7570	 7.6450
 2.7580	 7.4010
 2.7600	 7.2720
 2.7610	 7.1670
 2.7630	 7.2560
 2.7640	 7.2610
 2.7660	 7.1920
 2.7670	 7.1100
 2.7680	 7.1220
 2.7700	 6.9260
 2.7710	 6.8250
 2.7730	 6.7460
 2.7740	 6.8030
 2.7760	 6.7380
 2.7770	 6.6190
 2.7790	 6.4170
 2.7800	 6.4750
 2.7820	 6.4980
 2.7830	 6.5320
 2.7850	 6.5100
 2.7860	 6.4280
 2.7880	 6.3400
 2.7890	 6.2780
 2.7910	 6.0660
 2.7920	 6.0540
 2.7940	 6.1080
 2.7950	 6.1530
 2.7970	 6.0090
 2.7980	 5.9650
 2.8000	 5.8240
 2.8010	 5.7670
 2.8030	 5.8370
 2.8040	 5.7660
 2.8060	 5.5810
 2.8070	 5.6240
 2.8090	 5.6300
 2.8110	 5.7310
 2.8120	 5.6130
 2.8140	 5.4930
 2.8150	 5.4310
 2.8170	 5.4260
 2.8180	 5.3670
 2.8200	 5.3510
 2.8210	 5.2870
 2.8230	 5.3120
 2.8240	 5.1670
 2.8260	 5.2420
 2.8270	 5.2650
 2.8290	 5.0970
 2.8300	 4.9810
 2.8320	 5.0620
 2.8340	 5.0730
 2.8350	 5.0700
 2.8370	 5.0520
 2.8380	 5.0050
 2.8400	 4.8900
 2.8410	 4.8970
 2.8430	 4.8870
 2.8440	 4.8390
 2.8460	 4.8150
 2.8480	 4.8940
 2.8490	 4.8350
 2.8510	 4.8420
 2.8520	 4.7770
 2.8540	 4.8570
 2.8550	 4.7670
 2.8570	 4.6690
 2.8590	 4.7050
 2.8600	 4.8720
 2.8620	 4.7430
 2.8630	 4.6920
 2.8650	 4.6960
 2.8660	 4.6870
 2.8680	 4.5660
 2.8700	 4.6590
 2.8710	 4.6880
 2.8730	 4.7410
 2.8740	 4.7490
 2.8760	 4.5830
 2.8780	 4.4860
 2.8790	 4.5540
 2.8810	 4.5040
 2.8820	 4.4630
 2.8840	 4.3190
 2.8860	 4.3940
 2.8870	 4.3640
 2.8890	 4.3570
 2.8900	 4.4160
 2.8920	 4.4940
 2.8940	 4.4760
 2.8950	 4.5210
 2.8970	 4.4960
 2.8980	 4.4810
 2.9000	 4.4370
 2.9020	 4.5130
 2.9030	 4.4770
 2.9050	 4.4700
 2.9070	 4.3920
 2.9080	 4.3560
 2.9100	 4.3350
 2.9120	 4.3180
 2.9130	 4.2740
 2.9150	 4.3120
 2.9160	 4.2940
 2.9180	 4.3900
 2.9200	 4.2900
 2.9210	 4.3350
 2.9230	 4.3290
 2.9250	 4.2720
 2.9260	 4.2000
 2.9280	 4.4430
 2.9300	 4.5620
 2.9310	 4.4860
 2.9330	 4.3720
 2.9350	 4.3540
 2.9360	 4.4140
 2.9380	 4.4540
 2.9400	 4.4110
 2.9410	 4.4810
 2.9430	 4.3720
 2.9450	 4.2590
 2.9460	 4.2130
 2.9480	 4.3580
 2.9500	 4.4650
 2.9510	 4.5500
 2.9530	 4.5910
 2.9550	 4.5540
 2.9560	 4.4340
 2.9580	 4.4330
 2.9600	 4.4180
 2.9610	 4.2530
 2.9630	 4.3310
 2.9650	 4.5600
 2.9660	 4.4020
 2.9680	 3.8520
 2.9700	 4.0300
 2.9720	 4.3460
 2.9730	 4.2580
 2.9750	 4.2330
 2.9770	 3.8570
 2.9780	 3.9860
 2.9800	 4.4830
 2.9820	 4.7010
 2.9840	 4.4910
 2.9850	 4.4610
 2.9870	 4.4100
 2.9890	 4.3750
 2.9900	 4.0830
 2.9920	 4.2570
 2.9940	 4.5290
 2.9960	 4.5640
 2.9970	 4.2850
 2.9990	 4.3990
 3.0010	 4.3760
 3.0030	 4.4160
 3.0040	 4.5730
 3.0060	 4.7400
 3.0080	 4.6420
 3.0100	 4.7850
 3.0110	 5.1500
 3.0130	 5.0260
 3.0150	 4.6880
 3.0170	 4.6840
 3.0180	 4.6920
 3.0200	 5.0580
 3.0220	 5.0160
 3.0240	 4.7200
 3.0250	 4.6640
 3.0270	 4.8940
 3.0290	 4.8070
 3.0310	 4.8020
 3.0320	 4.7340
 3.0340	 4.9060
 3.0360	 4.7110
 3.0380	 4.6770
 3.0400	 4.7110
 3.0410	 4.9140
 3.0430	 5.3670
 3.0450	 5.3120
 3.0470	 5.1060
 3.0480	 5.4400
 3.0500	 5.2550
 3.0520	 4.8500
 3.0540	 4.9110
 3.0560	 5.1050
 3.0570	 4.9690
 3.0590	 4.9440
 3.0610	 4.8210
 3.0630	 4.8150
 3.0650	 4.7700
 3.0660	 4.9500
 3.0680	 5.0070
 3.0700	 5.0920
 3.0720	 5.2660
 3.0740	 5.3460
 3.0760	 5.1590
 3.0770	 5.1470
 3.0790	 5.1500
 3.0810	 5.1610
 3.0830	 5.1300
 3.0850	 5.1050
 3.0870	 5.0770
 3.0880	 5.1650
 3.0900	 5.1940
 3.0920	 5.2700
 3.0940	 5.2610
 3.0960	 5.2840
 3.0980	 5.2700
 3.0990	 5.3930
 3.1010	 5.4230
 3.1030	 5.4080
 3.1050	 5.3960
 3.1070	 5.3520
 3.1090	 5.2950
 3.1110	 5.3640
 3.1120	 5.4930
 3.1140	 5.5180
 3.1160	 5.4120
 3.1180	 5.4450
 3.1200	 5.4960
 3.1220	 5.5940
 3.1240	 5.4740
 3.1260	 5.4900
 3.1270	 5.5590
 3.1290	 5.6700
 3.1310	 5.6480
 3.1330	 5.6370
 3.1350	 5.5410
 3.1370	 5.4210
 3.1390	 5.2450
 3.1410	 5.1700
 3.1430	 5.3360
 3.1450	 5.7780
 3.1460	 6.0400
 3.1480	 6.0180
 3.1500	 5.9660
 3.1520	 5.9540
 3.1540	 5.8170
 3.1560	 5.7950
 3.1580	 5.6990
 3.1600	 5.8370
 3.1620	 5.7830
 3.1640	 5.7700
 3.1660	 5.8480
 3.1680	 5.8990
 3.1700	 5.9700
 3.1710	 5.8500
 3.1730	 6.0510
 3.1750	 6.0870
 3.1770	 5.7900
 3.1790	 6.0860
 3.1810	 6.4010
 3.1830	 6.0940
 3.1850	 5.8540
 3.1870	 6.0180
 3.1890	 5.8130
 3.1910	 5.9690
 3.1930	 6.1400
 3.1950	 6.1670
 3.1970	 6.1090
 3.1990	 6.1040
 3.2010	 6.0350
 3.2030	 6.1480
 3.2050	 6.1830
 3.2070	 6.1730
 3.2090	 6.0900
 3.2110	 6.1450
 3.2130	 6.1240
 3.2150	 6.1060
 3.2170	 6.0850
 3.2190	 6.1250
 3.2210	 6.0580
 3.2230	 6.1260
 3.2250	 6.1270
 3.2270	 6.2350
 3.2290	 6.3330
 3.2310	 6.3090
 3.2330	 6.1920
 3.2350	 6.2950
 3.2370	 6.2420
 3.2390	 6.1600
 3.2410	 6.1400
 3.2430	 6.2600
 3.2450	 6.3110
 3.2470	 6.3210
 3.2490	 6.2120
 3.2510	 6.2450
 3.2530	 6.2770
 3.2550	 6.2990
 3.2570	 6.1910
 3.2590	 6.2220
 3.2610	 6.3160
 3.2630	 6.4290
 3.2650	 6.3700
 3.2670	 6.3700
 3.2690	 6.3290
 3.2720	 6.3780
 3.2740	 6.3100
 3.2760	 6.3880
 3.2780	 6.4310
 3.2800	 6.4890
 3.2820	 6.3310
 3.2840	 6.2630
 3.2860	 6.2940
 3.2880	 6.3210
 3.2900	 6.2040
 3.2920	 6.1990
 3.2940	 6.2460
 3.2960	 6.2850
 3.2990	 6.2190
 3.3010	 6.1590
 3.3030	 6.2450
 3.3050	 6.2480
 3.3070	 6.1300
 3.3090	 6.1350
 3.3110	 6.0720
 3.3130	 6.0680
 3.3150	 6.0050
 3.3180	 5.9310
 3.3200	 5.8520
 3.3220	 5.8880
 3.3240	 5.7950
 3.3260	 5.7470
 3.3280	 5.6570
 3.3300	 5.6060
 3.3330	 5.5530
 3.3350	 5.5460
 3.3370	 5.3350
 3.3390	 5.1900
 3.3410	 5.1390
 3.3430	 5.1660
 3.3450	 5.1090
 3.3480	 5.0640
 3.3500	 4.9530
 3.3520	 4.9070
 3.3540	 4.9010
 3.3560	 4.8560
 3.3580	 4.7240
 3.3610	 4.6870
 3.3630	 4.6470
 3.3650	 4.5970
 3.3670	 4.4430
 3.3690	 4.4030
 3.3720	 4.3860
 3.3740	 4.2610
 3.3760	 4.2110
 3.3780	 4.3030
 3.3800	 4.2290
 3.3830	 4.1880
 3.3850	 4.1100
 3.3870	 4.0450
 3.3890	 3.9800
 3.3910	 3.8990
 3.3940	 3.7990
 3.3960	 3.7890
 3.3980	 3.7730
 3.4000	 3.7970
 3.4020	 3.7530
 3.4050	 3.6930
 3.4070	 3.6000
 3.4090	 3.6290
 3.4110	 3.6500
 3.4140	 3.7120
 3.4160	 3.7320
 3.4180	 3.8910
 3.4200	 3.9630
 3.4230	 4.0830
 3.4250	 4.2230
 3.4270	 4.3540
 3.4290	 4.3030
 3.4320	 4.3550
 3.4340	 4.4040
 3.4360	 4.3580
 3.4390	 4.3090
 3.4410	 4.3830
 3.4430	 4.3560
 3.4450	 4.4690
 3.4480	 4.5460
 3.4500	 4.5790
 3.4520	 4.5680
 3.4550	 4.7610
 3.4570	 4.8330
 3.4590	 4.8460
 3.4620	 4.8900
 3.4640	 5.0280
 3.4660	 5.0280
 3.4680	 5.0780
 3.4710	 5.0240
 3.4730	 4.9830
 3.4750	 4.9410
 3.4780	 4.9150
 3.4800	 4.8090
 3.4820	 4.8250
 3.4850	 4.8220
 3.4870	 4.7710
 3.4890	 4.7070
 3.4920	 4.6870
 3.4940	 4.5800
 3.4970	 4.5410
 3.4990	 4.5010
 3.5010	 4.5740
 3.5040	 4.6250
 3.5060	 4.7290
 3.5080	 4.7930
 3.5110	 5.0060
 3.5130	 5.2320
 3.5160	 5.4470
 3.5180	 5.5710
 3.5200	 5.8060
 3.5230	 5.9240
 3.5250	 6.0520
 3.5270	 6.0780
 3.5300	 6.2550
 3.5320	 6.4460
 3.5350	 6.5870
 3.5370	 6.6530
 3.5400	 6.7060
 3.5420	 6.7630
 3.5440	 6.8870
 3.5470	 6.9500
 3.5490	 7.0730
 3.5520	 7.1110
 3.5540	 7.1550
 3.5570	 7.1370
 3.5590	 7.2400
 3.5610	 7.2150
 3.5640	 7.2120
 3.5660	 7.1840
 3.5690	 7.2920
 3.5710	 7.3720
 3.5740	 7.3820
 3.5760	 7.4720
 3.5790	 7.5470
 3.5810	 7.5230
 3.5840	 7.5810
 3.5860	 7.5970
 3.5890	 7.6090
 3.5910	 7.6240
 3.5930	 7.7530
 3.5960	 7.7510
 3.5980	 7.7590
 3.6010	 7.8440
 3.6030	 7.8910
 3.6060	 7.8460
 3.6080	 7.9540
 3.6110	 7.9770
 3.6140	 7.9410
 3.6160	 7.8520
 3.6190	 7.9130
 3.6210	 7.9240
 3.6240	 7.9200
 3.6260	 7.8920
 3.6290	 7.9340
 3.6310	 7.9720
 3.6340	 8.0060
 3.6360	 7.9900
 3.6390	 7.9960
 3.6410	 7.9320
 3.6440	 7.9000
 3.6470	 7.9060
 3.6490	 7.9910
 3.6520	 8.0320
 3.6540	 8.0050
 3.6570	 7.9490
 3.6590	 7.9570
 3.6620	 8.0050
 3.6650	 8.0520
 3.6670	 8.0710
 3.6700	 8.0550
 3.6720	 8.0410
 3.6750	 8.1160
 3.6780	 8.0930
 3.6800	 8.0830
 3.6830	 8.1130
 3.6850	 8.1530
 3.6880	 8.0950
 3.6910	 8.0980
 3.6930	 8.1280
 3.6960	 8.1380
 3.6990	 8.1570
 3.7010	 8.1800
 3.7040	 8.1700
 3.7060	 8.2050
 3.7090	 8.2130
 3.7120	 8.2310
 3.7140	 8.1930
 3.7170	 8.2290
 3.7200	 8.1650
 3.7220	 8.1400
 3.7250	 8.1190
 3.7280	 8.1530
 3.7300	 8.1600
 3.7330	 8.1470
 3.7360	 8.1630
 3.7390	 8.2560
 3.7410	 8.1720
 3.7440	 8.1780
 3.7470	 8.2740
 3.7490	 8.2850
 3.7520	 8.2350
 3.7550	 8.2540
 3.7580	 8.2800
 3.7600	 8.3390
 3.7630	 8.3100
 3.7660	 8.2120
 3.7680	 8.1870
 3.7710	 8.2850
 3.7740	 8.3750
 3.7770	 8.4670
 3.7790	 8.4240
 3.7820	 8.4250
 3.7850	 8.4430
 3.7880	 8.4110
 3.7900	 8.3710
 3.7930	 8.4310
 3.7960	 8.4170
 3.7990	 8.4270
 3.8020	 8.4490
 3.8040	 8.4720
 3.8070	 8.5020
 3.8100	 8.5070
 3.8130	 8.4610
 3.8160	 8.4830
 3.8180	 8.4580
 3.8210	 8.5190
 3.8240	 8.5850
 3.8270	 8.5900
 3.8300	 8.5950
 3.8330	 8.6700
 3.8350	 8.6380
 3.8380	 8.6570
 3.8410	 8.6590
 3.8440	 8.6660
 3.8470	 8.6670
 3.8500	 8.6840
 3.8520	 8.7100
 3.8550	 8.7910
 3.8580	 8.8220
 3.8610	 8.8060
 3.8640	 8.7930
 3.8670	 8.8520
 3.8700	 8.8220
 3.8730	 8.8300
 3.8750	 8.8350
 3.8780	 8.9210
 3.8810	 8.9120
 3.8840	 8.9790
 3.8870	 9.0560
 3.8900	 9.0520
 3.8930	 9.0440
 3.8960	 9.0010
 3.8990	 8.9370
 3.9020	 8.9740
 3.9050	 8.9910
 3.9080	 9.0400
 3.9110	 9.0600
 3.9140	 9.0950
 3.9160	 9.1240
 3.9190	 9.1450
 3.9220	 9.1050
 3.9250	 9.1620
 3.9280	 9.1930
 3.9310	 9.1810
 3.9340	 9.1510
 3.9370	 9.2200
 3.9400	 9.2160
 3.9430	 9.2080
 3.9460	 9.1900
 3.9490	 9.2460
 3.9520	 9.2950
 3.9550	 9.2830
 3.9580	 9.3000
 3.9610	 9.3600
 3.9640	 9.3590
 3.9670	 9.3950
 3.9700	 9.4500
 3.9730	 9.4770
 3.9770	 9.4330
 3.9800	 9.4540
 3.9830	 9.5020
 3.9860	 9.4870
 3.9890	 9.5620
 3.9920	 9.6530
 3.9950	 9.6030
 3.9980	 9.6190
 4.0010	 9.6090
 4.0040	 9.6280
 4.0070	 9.6780
 4.0100	 9.7150
 4.0130	 9.7400
 4.0170	 9.7760
 4.0200	 9.7430
 4.0230	 9.7990
 4.0260	 9.8360
 4.0290	 9.8350
 4.0320	 9.8230
 4.0350	 9.8690
 4.0380	 9.8730
 4.0420	 9.8580
 4.0450	 9.8080
 4.0480	 9.8390
 4.0510	 9.8860
 4.0540	 9.9280
 4.0570	 9.9700
 4.0610	10.0290
 4.0640	10.0080
 4.0670	10.0580
 4.0700	10.1070
 4.0730	10.1160
 4.0770	10.1200
 4.0800	10.1080
 4.0830	10.1080
 4.0860	10.1340
 4.0890	10.1430
 4.0930	10.2340
 4.0960	10.2400
 4.0990	10.2250
 4.1020	10.1600
 4.1060	10.1800
 4.1090	10.2200
 4.1120	10.2610
 4.1150	10.2910
 4.1190	10.2900
 4.1220	10.2370
 4.1250	10.2590
 4.1280	10.2900
 4.1320	10.3250
 4.1350	10.3320
 4.1380	10.3680
 4.1420	10.3220
 4.1450	10.3220
 4.1480	10.3630
 4.1520	10.3360
 4.1550	10.3460
 4.1580	10.3650
 4.1620	10.3720
 4.1650	10.4180
 4.1680	10.3870
 4.1720	10.4040
 4.1750	10.4170
 4.1780	10.3900
 4.1820	10.3560
 4.1850	10.4150
 4.1890	10.4250
 4.1920	10.4510
 4.1950	10.4910
 4.1990	10.5370
 4.2020	10.5690
 4.2060	10.6440
 4.2090	10.7010
 4.2120	10.7980
 4.2160	10.8780
 4.2190	11.1010
 4.2230	11.3480
 4.2260	11.5100
 4.2300	11.4430
 4.2330	11.3590
 4.2360	11.4470
 4.2400	11.5940
 4.2430	11.2750
 4.2470	11.1530
 4.2500	11.1420
 4.2540	11.0240
 4.2570	10.9280
 4.2610	11.0590
 4.2640	11.2790
 4.2680	11.3120
 4.2710	11.2520
 4.2750	11.1890
 4.2780	11.0060
 4.2820	11.0300
 4.2850	11.1210
 4.2890	11.2100
 4.2930	11.1550
 4.2960	11.0920
 4.3000	11.1030
 4.3030	11.1260
 4.3070	10.9770
 4.3100	10.9710
 4.3140	10.9230
 4.3180	10.7650
 4.3210	10.6680
 4.3250	10.7150
 4.3280	10.6680
 4.3320	10.6970
 4.3360	10.7280
 4.3390	10.6790
 4.3430	10.5540
 4.3470	10.5120
 4.3500	10.5340
 4.3540	10.5470
 4.3570	10.5320
 4.3610	10.5140
 4.3650	10.5020
 4.3680	10.4890
 4.3720	10.4370
 4.3760	10.4280
 4.3800	10.4120
 4.3830	10.3770
 4.3870	10.3600
 4.3910	10.3680
 4.3940	10.3990
 4.3980	10.4350
 4.4020	10.4290
 4.4060	10.4140
 4.4090	10.4290
 4.4130	10.4490
 4.4170	10.4080
 4.4210	10.3910
 4.4240	10.4170
 4.4280	10.4220
 4.4320	10.3540
 4.4360	10.3330
 4.4400	10.3540
 4.4430	10.3780
 4.4470	10.3400
 4.4510	10.3320
 4.4550	10.3290
 4.4590	10.3030
 4.4620	10.2820
 4.4660	10.2680
 4.4700	10.2650
 4.4740	10.2790
 4.4780	10.2700
 4.4820	10.2720
 4.4860	10.2630
 4.4900	10.2190
 4.4930	10.2340
 4.4970	10.2560
 4.5010	10.1980
 4.5050	10.1980
 4.5090	10.2570
 4.5130	10.2470
 4.5170	10.2530
 4.5210	10.2700
 4.5250	10.2640
 4.5290	10.2190
 4.5330	10.2170
 4.5370	10.2320
 4.5410	10.2140
 4.5450	10.1790
 4.5490	10.1210
 4.5530	10.1380
 4.5570	10.1240
 4.5610	10.1080
 4.5650	10.1070
 4.5690	10.0570
 4.5730	10.0600
 4.5770	10.1160
 4.5810	10.1060
 4.5850	10.1540
 4.5890	10.1820
 4.5930	10.1860
 4.5970	10.1490
 4.6010	10.1110
 4.6050	10.0640
 4.6090	10.0230
 4.6130	10.0060
 4.6170	10.0720
 4.6220	10.2080
 4.6260	10.2410
 4.6300	10.1820
 4.6340	10.1300
 4.6380	10.1000
 4.6420	10.1200
 4.6460	10.1280
 4.6510	10.1260
 4.6550	10.0980
 4.6590	10.0390
 4.6630	10.0150
 4.6670	10.0720
 4.6720	10.1180
 4.6760	10.0990
 4.6800	10.1440
 4.6840	10.1760
 4.6880	10.1150
 4.6930	10.1080
 4.6970	10.0970
 4.7010	10.0670
 4.7050	10.0990
 4.7100	10.1240
 4.7140	10.1640
 4.7180	10.1800
 4.7230	10.1550
 4.7270	10.0910
 4.7310	10.0310
 4.7360	10.0690
 4.7400	10.1020
 4.7440	10.0900
 4.7490	10.0870
 4.7530	10.0920
 4.7570	10.0940
 4.7620	10.0930
 4.7660	10.0610
 4.7700	10.0260
 4.7750	10.0370
 4.7790	10.0540
 4.7840	10.0240
 4.7880	10.0760
 4.7920	10.1900
 4.7970	10.2820
 4.8010	10.2210
 4.8060	10.1630
 4.8100	10.1630
 4.8150	10.1820
 4.8190	10.1890
 4.8240	10.2080
 4.8280	10.1940
 4.8330	10.1570
 4.8370	10.1580
 4.8420	10.1960
 4.8460	10.1910
 4.8510	10.1710
 4.8550	10.2340
 4.8600	10.2820
 4.8640	10.2340
 4.8690	10.2240
 4.8730	10.2420
 4.8780	10.2320
 4.8830	10.2520
 4.8870	10.3040
 4.8920	10.2730
 4.8960	10.2270
 4.9010	10.2260
 4.9060	10.2320
 4.9100	10.2180
 4.9150	10.2400
 4.9200	10.2620
 4.9240	10.2900
 4.9290	10.3040
 4.9340	10.3080
 4.9380	10.3230
 4.9430	10.3010
 4.9480	10.3020
 4.9530	10.2780
 4.9570	10.3030
 4.9620	10.3690
 4.9670	10.4060
 4.9720	10.4420
 4.9760	10.4280
 4.9810	10.4130
 4.9860	10.4810
 4.9910	10.5020
 4.9960	10.4930
 5.0000	10.4420
 5.0050	10.4260
 5.0100	10.4480
 5.0150	10.4890
 5.0200	10.5230
 5.0250	10.5000
 5.0290	10.4720
 5.0340	10.4670
 5.0390	10.5100
 5.0440	10.5940
 5.0490	10.5860
 5.0540	10.5770
 5.0590	10.5820
 5.0640	10.5670
 5.0690	10.5760
 5.0740	10.5780
 5.0790	10.5270
 5.0840	10.5660
 5.0890	10.6350
 5.0940	10.6580
 5.0990	10.6250
 5.1040	10.6040
 5.1090	10.5810
 5.1140	10.5910
 5.1190	10.5710
 5.1240	10.5940
 5.1290	10.6620
 5.1340	10.6400
 5.1390	10.6330
 5.1440	10.6660
 5.1490	10.6400
 5.1540	10.6380
 5.1600	10.6050
 5.1650	10.5940
 5.1700	10.6200
 5.1750	10.6880
 5.1800	10.7230
 5.1850	10.6470
 5.1910	10.5980
 5.1960	10.6820
 5.2010	10.7210
 5.2060	10.6940
 5.2110	10.6790
 5.2170	10.6420
 5.2220	10.5670
 5.2270	10.5840
 5.2320	10.6210
 5.2380	10.5950
 5.2430	10.5750
 5.2480	10.5890
 5.2540	10.5910
 5.2590	10.5940
 5.2640	10.5820
 5.2700	10.6170
 5.2750	10.6230
 5.2800	10.5690
 5.2860	10.5340
 5.2910	10.5370
 5.2970	10.4800
 5.3020	10.4390
 5.3070	10.4530
 5.3130	10.5100
 5.3180	10.4980
 5.3240	10.4650
 5.3290	10.4190
 5.3350	10.4390
 5.3400	10.4230
 5.3460	10.3680
 5.3510	10.3560
 5.3570	10.3750
 5.3620	10.3610
 5.3680	10.3740
 5.3730	10.3090
 5.3790	10.2840
 5.3850	10.3030
 5.3900	10.2590
 5.3960	10.1850
 5.4010	10.2490
 5.4070	10.2500
 5.4130	10.2220
 5.4180	10.2280
 5.4240	10.2200
 5.4300	10.1210
 5.4350	10.1100
 5.4410	10.1220
 5.4470	10.1200
 5.4530	10.0490
 5.4580	 9.9690
 5.4640	 9.9720
 5.4700	 9.9830
 5.4760	 9.9240
 5.4810	 9.9180
 5.4870	 9.8940
 5.4930	 9.8180
 5.4990	 9.7390
 5.5050	 9.7700
 5.5110	 9.7620
 5.5160	 9.7130
 5.5220	 9.6330
 5.5280	 9.5740
 5.5340	 9.4840
 5.5400	 9.4730
 5.5460	 9.3570
 5.5520	 9.2470
 5.5580	 9.2100
 5.5640	 9.1970
 5.5700	 9.0760
 5.5760	 9.0090
 5.5820	 8.9490
 5.5880	 8.8340
 5.5940	 8.6650
 5.6000	 8.5910
 5.6060	 8.5200
 5.6120	 8.3520
 5.6180	 8.2200
 5.6240	 8.1960
 5.6300	 8.0440
 5.6360	 7.9410
 5.6420	 7.7820
 5.6490	 7.6410
 5.6550	 7.4920
 5.6610	 7.2840
 5.6670	 7.0350
 5.6730	 6.9060
 5.6800	 6.6870
 5.6860	 6.5170
 5.6920	 6.3130
 5.6980	 6.0160
 5.7040	 5.6740
 5.7110	 5.4500
 5.7170	 5.2580
 5.7230	 4.9590
 5.7300	 4.5660
 5.7360	 4.3300
 5.7420	 4.1820
 5.7490	 4.0910
 5.7550	 3.9680
 5.7620	 4.0550
 5.7680	 4.1470
 5.7740	 4.1970
 5.7810	 4.2850
 5.7870	 4.4190
 5.7940	 4.5130
 5.8000	 4.6480
 5.8070	 4.7180
 5.8130	 4.8060
 5.8200	 4.8890
 5.8260	 4.9950
 5.8330	 4.9990
 5.8390	 5.0480
 5.8460	 5.0920
 5.8530	 5.1560
 5.8590	 5.2120
 5.8660	 5.2750
 5.8720	 5.2420
 5.8790	 5.2280
 5.8860	 5.0710
 5.8920	 4.9860
 5.8990	 4.9060
 5.9060	 4.8850
 5.9130	 4.8790
 5.9190	 4.8640
 5.9260	 4.9640
 5.9330	 5.1790
 5.9400	 5.3730
 5.9470	 5.6350
 5.9530	 5.8690
 5.9600	 6.1050
 5.9670	 6.2890
 5.9740	 6.4940
 5.9810	 6.5010
 5.9880	 6.4970
 5.9950	 6.4910
 6.0020	 6.5110
 6.0090	 6.4120
 6.0160	 6.3650
 6.0230	 6.3850
 6.0300	 6.4000
 6.0370	 6.3500
 6.0440	 6.4540
 6.0510	 6.5240
 6.0580	 6.4890
 6.0650	 6.3980
 6.0720	 6.4070
 6.0790	 6.3450
 6.0860	 6.3900
 6.0930	 6.4930
 6.1000	 6.5410
 6.1080	 6.4730
 6.1150	 6.5300
 6.1220	 6.5110
 6.1290	 6.5200
 6.1370	 6.5630
 6.1440	 6.5730
 6.1510	 6.5010
 6.1580	 6.5400
 6.1660	 6.5250
 6.1730	 6.5110
 6.1800	 6.4500
 6.1880	 6.5400
 6.1950	 6.4820
 6.2030	 6.4180
 6.2100	 6.3450
 6.2170	 6.4620
 6.2250	 6.4860
 6.2320	 6.4440
 6.2400	 6.4310
 6.2470	 6.6030
 6.2550	 6.6520
 6.2630	 6.7830
 6.2700	 6.8870
 6.2780	 7.0160
 6.2850	 7.0780
 6.2930	 7.2080
 6.3010	 7.3270
 6.3080	 7.4510
 6.3160	 7.5030
 6.3240	 7.6150
 6.3310	 7.6700
 6.3390	 7.7980
 6.3470	 7.7990
 6.3550	 7.7500
 6.3620	 7.6860
 6.3700	 7.8020
 6.3780	 7.8790
 6.3860	 7.9960
 6.3940	 8.0200
 6.4020	 8.1020
 6.4100	 8.1340
 6.4180	 8.1620
 6.4260	 8.1010
 6.4330	 8.1340
 6.4410	 8.1290
 6.4490	 8.2090
 6.4580	 8.2340
 6.4660	 8.2040
 6.4740	 8.1990
 6.4820	 8.2840
 6.4900	 8.2830
 6.4980	 8.3080
 6.5060	 8.1750
 6.5140	 8.1880
 6.5230	 8.2440
 6.5310	 8.3120
 6.5390	 8.2820
 6.5470	 8.2640
 6.5550	 8.1770
 6.5640	 8.1760
 6.5720	 8.0600
 6.5800	 7.9310
 6.5890	 7.8790
 6.5970	 7.9660
 6.6060	 7.9100
 6.6140	 7.9430
 6.6220	 7.9430
 6.6310	 8.0610
 6.6390	 8.1120
 6.6480	 8.0630
 6.6560	 7.9510
 6.6650	 7.9700
 6.6740	 7.9360
 6.6820	 7.9570
 6.6910	 7.8480
 6.6990	 7.8170
 6.7080	 7.7300
 6.7170	 7.6420
 6.7260	 7.3630
 6.7340	 7.1620
 6.7430	 6.9680
 6.7520	 6.8080
 6.7610	 6.5940
 6.7690	 6.4880
 6.7780	 6.2160
 6.7870	 5.9940
 6.7960	 5.7230
 6.8050	 5.4930
 6.8140	 5.3270
 6.8230	 5.3070
 6.8320	 5.3070
 6.8410	 5.3810
 6.8500	 5.3750
 6.8590	 5.4560
 6.8680	 5.4420
 6.8770	 5.5040
 6.8860	 5.5040
 6.8950	 5.6640
 6.9050	 5.7460
 6.9140	 5.7550
 6.9230	 5.6940
 6.9320	 5.8120
 6.9420	 5.8130
 6.9510	 5.8570
 6.9600	 5.8000
 6.9700	 5.8390
 6.9790	 5.8350
 6.9880	 5.8810
 6.9980	 5.7990
 7.0070	 5.8400
 7.0170	 5.8420
 7.0260	 5.9110
 7.0360	 5.8940
 7.0450	 5.9720
 7.0550	 5.9260
 7.0650	 5.9870
 7.0740	 6.0070
 7.0840	 6.1400
 7.0940	 6.1530
 7.1030	 6.1960
 7.1130	 6.1650
 7.1230	 6.2080
 7.1330	 6.1140
 7.1420	 6.1280
 7.1520	 6.1160
 7.1620	 6.1570
 7.1720	 6.0220
 7.1820	 5.8770
 7.1920	 5.6410
 7.2020	 5.6380
 7.2120	 5.6260
 7.2220	 5.6930
 7.2320	 5.6380
 7.2420	 5.6420
 7.2520	 5.5630
 7.2620	 5.5490
 7.2730	 5.4200
 7.2830	 5.4500
 7.2930	 5.5000
 7.3030	 5.5250
 7.3140	 5.4880
 7.3240	 5.6630
 7.3340	 5.6630
 7.3450	 5.6910
 7.3550	 5.6140
 7.3660	 5.7170
 7.3760	 5.7810
 7.3870	 5.8250
 7.3970	 5.7630
 7.4080	 5.8830
 7.4180	 5.8650
 7.4290	 5.9320
 7.4400	 5.9120
 7.4500	 5.8910
 7.4610	 5.7380
 7.4720	 5.7420
 7.4830	 5.7170
 7.4930	 5.7730
 7.5040	 5.6560
 7.5150	 5.6070
 7.5260	 5.4850
 7.5370	 5.4790
 7.5480	 5.3850
 7.5590	 5.4200
 7.5700	 5.3260
 7.5810	 5.3570
 7.5920	 5.2580
 7.6030	 5.3440
 7.6140	 5.4830
 7.6260	 5.5800
 7.6370	 5.4370
 7.6480	 5.5370
 7.6590	 5.6060
 7.6710	 5.6730
 7.6820	 5.6430
 7.6930	 5.7460
 7.7050	 5.6270
 7.7160	 5.5760
 7.7280	 5.5440
 7.7390	 5.5560
 7.7510	 5.3250
 7.7630	 5.3120
 7.7740	 5.2740
 7.7860	 5.3220
 7.7980	 5.3290
 7.8090	 5.3990
 7.8210	 5.3270
 7.8330	 5.3560
 7.8450	 5.2810
 7.8570	 5.2700
 7.8690	 5.1710
 7.8810	 5.2520
 7.8930	 5.2210
 7.9050	 5.3320
 7.9170	 5.3430
 7.9290	 5.3600
 7.9410	 5.1940
 7.9530	 5.1870
 7.9650	 5.1620
 7.9780	 5.2580
 7.9900	 5.2270
 8.0020	 5.2770
 8.0150	 5.1470
 8.0270	 5.2010
 8.0390	 5.1920
 8.0520	 5.2120
 8.0640	 5.1700
 8.0770	 5.3600
 8.0900	 5.3850
 8.1020	 5.5320
 8.1150	 5.5890
 8.1280	 5.6290
 8.1400	 5.4380
 8.1530	 5.5740
 8.1660	 5.5600
 8.1790	 5.6460
 8.1920	 5.7140
 8.2050	 5.8310
 8.2180	 5.7210
 8.2310	 5.8160
 8.2440	 5.6810
 8.2570	 5.7220
 8.2700	 5.6040
 8.2830	 5.7510
 8.2970	 5.6640
 8.3100	 5.6380
 8.3230	 5.5270
 8.3370	 5.6040
 8.3500	 5.5710
 8.3640	 5.5090
 8.3770	 5.3630
 8.3910	 5.5380
 8.4040	 5.4620
 8.4180	 5.5850
 8.4320	 5.4750
 8.4450	 5.4080
 8.4590	 5.2440
 8.4730	 5.3240
 8.4870	 5.1920
 8.5010	 5.2500
 8.5150	 5.1590
 8.5290	 5.2280
 8.5430	 5.1220
 8.5570	 5.1390
 8.5710	 5.0930
 8.5850	 5.2470
 8.5990	 5.1600
 8.6140	 5.2540
 8.6280	 5.2510
 8.6420	 5.4650
 8.6570	 5.3890
 8.6710	 5.5010
 8.6860	 5.3610
 8.7000	 5.5400
 8.7150	 5.5830
 8.7300	 5.7240
 8.7440	 5.5700
 8.7590	 5.6860
 8.7740	 5.5870
 8.7890	 5.7830
 8.8040	 5.7310
 8.8190	 5.8190
 8.8340	 5.7120
 8.8490	 5.7260
 8.8640	 5.4680
 8.8790	 5.4070
 8.8940	 5.2250
 8.9100	 5.2410
 8.9250	 5.0470
 8.9400	 5.0890
 8.9560	 4.9450
 8.9710	 5.0150
 8.9870	 4.8330
 9.0020	 4.8310
 9.0180	 4.7010
 9.0340	 4.9270
 9.0500	 4.9530
 9.0650	 4.9970
 9.0810	 4.7180
 9.0970	 4.9410
 9.1130	 4.8680
 9.1290	 4.9720
 9.1450	 4.9310
 9.1610	 5.0780
 9.1780	 4.9980
 9.1940	 5.1190
 9.2100	 4.8690
 9.2270	 4.9450
 9.2430	 4.8460
 9.2600	 4.9160
 9.2760	 4.6600
 9.2930	 4.6310
 9.3090	 4.5060
 9.3260	 4.6000
 9.3430	 4.5630
 9.3600	 4.6190
 9.3770	 4.3140
 9.3940	 4.3330
 9.4110	 4.2380
 9.4280	 4.4140
 9.4450	 4.3590
 9.4620	 4.5420
 9.4800	 4.4600
 9.4970	 4.6020
 9.5140	 4.5770
 9.5320	 4.7820
 9.5500	 4.6830
 9.5670	 4.8080
 9.5850	 4.6630
 9.6030	 4.7330
 9.6200	 4.5380
 9.6380	 4.6590
 9.6560	 4.6640
 9.6740	 4.8600
 9.6920	 4.6590
 9.7100	 4.7740
 9.7290	 4.7640
 9.7470	 5.0140
 9.7650	 5.0980
 9.7840	 5.3650
 9.8020	 5.2240
 9.8210	 5.3770
 9.8390	 5.3180
 9.8580	 5.4140
 9.8770	 5.3750
 9.8960	 5.6500
 9.9150	 5.5450
 9.9340	 5.6050
 9.9530	 5.4740
 9.9720	 5.7550
 9.9910	 5.7450
10.0100	 5.6910
10.0300	 5.6240
10.0490	 5.9660
10.0690	 5.9580
10.0880	 6.0790
10.1080	 6.0750
10.1280	 6.3420
10.1480	 6.4280
10.1670	 6.6310
10.1870	 6.6170
10.2070	 6.7890
10.2280	 6.5780
10.2480	 6.6950
10.2680	 6.6520
10.2890	 6.7910
10.3090	 6.7980
10.3300	 6.8930
10.3500	 6.6990
10.3710	 6.7510
10.3920	 6.6400
10.4120	 6.7440
10.4330	 6.7390
10.4540	 6.9850
10.4760	 6.8760
10.4970	 7.0400
10.5180	 6.9310
10.5390	 7.0460
10.5610	 6.9590
10.5820	 7.1800
10.6040	 7.0960
10.6260	 7.3400
10.6480	 7.3850
10.6700	 7.5970
10.6920	 7.4590
10.7140	 7.5600
10.7360	 7.5020
10.7580	 7.5940
10.7800	 7.4150
10.8030	 7.4240
10.8250	 7.2150
10.8480	 7.3150
10.8710	 7.2180
10.8940	 7.3410
10.9170	 7.2390
10.9400	 7.3090
10.9630	 7.1760
10.9860	 7.3780
11.0090	 7.2350
11.0330	 7.3310
11.0560	 7.1430
11.0800	 7.1900
11.1040	 7.0330
11.1270	 7.1460
11.1510	 6.8960
11.1750	 6.9900
11.2000	 6.8390
11.2240	 7.0360
11.2480	 6.9180
11.2730	 7.0390
11.2970	 6.8050
11.3220	 7.0090
11.3470	 6.9100
11.3720	 7.1320
11.3970	 7.0810
11.4220	 7.2260
11.4470	 6.9770
11.4720	 7.1190
11.4980	 7.0590
11.5230	 7.1540
11.5490	 6.9190
11.5750	 7.0210
11.6000	 6.7970
11.6260	 6.9520
11.6530	 6.7960
11.6790	 6.9340
11.7050	 6.7470
11.7320	 6.7820
11.7580	 6.5570
11.7850	 6.6760
11.8120	 6.5960
11.8390	 6.7680
11.8660	 6.4250
11.8930	 6.4500
11.9200	 6.2820
11.9480	 6.4490
11.9760	 6.2010
12.0030	 6.3460
12.0310	 6.3090
12.0590	 6.5210
12.0870	 6.3140
12.1150	 6.4130
12.1440	 6.2200
12.1720	 6.4110
12.2010	 6.3510
12.2300	 6.6750
12.2590	 6.3080
12.2880	 6.3200
12.3170	 5.9500
12.3460	 6.0320
12.3760	 5.7920
12.4050	 6.1110
12.4350	 6.0750
12.4650	 6.3500
12.4950	 6.0450
12.5250	 5.9670
12.5550	 5.8240
12.5860	 6.1580
12.6170	 5.8250
12.6470	 5.9190
12.6780	 5.5760
12.7090	 5.6030
12.7410	 5.3950
12.7720	 5.6490
12.8030	 5.4540
12.8350	 5.6470
12.8670	 5.5370
12.8990	 5.6980
12.9310	 5.3570
12.9640	 5.5540
12.9960	 5.3330
13.0290	 5.5420
13.0610	 5.3440
13.0940	 5.5350
13.1280	 5.2930
13.1610	 5.3460
13.1940	 5.0910
13.2280	 5.4760
13.2620	 5.3850
13.2960	 5.5250
13.3300	 5.2260
13.3640	 5.4530
13.3990	 5.1110
13.4340	 5.4440
13.4690	 5.3580
13.5040	 5.5300
13.5390	 4.9220
13.5740	 5.0030
13.6100	 4.7780
13.6460	 5.0690
13.6820	 4.7330
13.7180	 4.7250
13.7540	 4.2940
13.7910	 4.7470
13.8280	 4.7060
13.8650	 5.1220
13.9020	 4.7650
13.9390	 4.8860
13.9770	 4.6030
14.0150	 4.8480
14.0530	 4.5290
14.0910	 4.8290
14.1290	 4.7190
14.1680	 5.0000
14.2070	 4.6230
14.2460	 4.7290
14.2850	 4.3450
14.3240	 4.7880
14.3640	 4.5020
14.4040	 4.8230
14.4440	 4.4070
14.4840	 4.9180
14.5250	 4.5670
14.5660	 4.9050
14.6070	 4.5090
14.6480	 5.0720
14.6900	 4.4960
14.7310	 4.7270
14.7730	 4.0550
14.8150	 4.4370
14.8580	 3.9530
14.9010	 4.5900
14.9440	 4.0100
14.9870	 4.8100
15.0300	 4.2160
15.0740	 4.7520
15.1180	 4.1880
15.1620	 4.4410
15.2060	 3.9760
15.2510	 4.9310
15.2960	 4.5240
15.3410	 4.7780
15.3870	 3.9640
