Name: Melaleuca linariifolia
Type: vegetation
Class: Tree
Genus: Melaleuca
Species: linariifolia
Sample No.: JPL162
Owner: JPL
Wavelength Range: VSWIR
Origin: 34.12556; -118.11365; WGS84
Collection Date: 9/14/2016
Description: Samples were collected at the Huntington Garden in San Marino California as part of a JPL Subcontract studying HyTES imagery. Samples were taken to JPL and processed within 48 hours of collection. The same leaves were processed in the Nicolet and then measured using the ASD.
Measurement: Bidirectional reflectance
First Column: X
Second Column: Y
X Units: Wavelength (micrometer)
Y Units: Reflectance (percentage)
First X Value: 0.35
Last X Value: 2.5
Number of X Values: 2151
Additional Information: vegetation.tree.melaleuca.linariifolia.vswir.jpl162.jpl.asd.ancillary.txt

 0.3500	 4.8750
 0.3510	 4.6980
 0.3520	 4.6480
 0.3530	 4.6640
 0.3540	 4.6560
 0.3550	 4.6440
 0.3560	 4.6530
 0.3570	 4.6580
 0.3580	 4.6150
 0.3590	 4.5450
 0.3600	 4.5100
 0.3610	 4.4890
 0.3620	 4.3340
 0.3630	 4.3280
 0.3640	 4.4270
 0.3650	 4.4960
 0.3660	 4.4150
 0.3670	 4.3890
 0.3680	 4.4320
 0.3690	 4.4240
 0.3700	 4.4030
 0.3710	 4.3630
 0.3720	 4.3310
 0.3730	 4.4040
 0.3740	 4.3880
 0.3750	 4.3220
 0.3760	 4.2980
 0.3770	 4.3000
 0.3780	 4.2780
 0.3790	 4.2440
 0.3800	 4.2540
 0.3810	 4.2590
 0.3820	 4.2810
 0.3830	 4.3150
 0.3840	 4.2560
 0.3850	 4.2010
 0.3860	 4.1800
 0.3870	 4.1920
 0.3880	 4.2210
 0.3890	 4.2460
 0.3900	 4.2600
 0.3910	 4.2720
 0.3920	 4.2630
 0.3930	 4.2620
 0.3940	 4.2830
 0.3950	 4.2770
 0.3960	 4.2600
 0.3970	 4.2560
 0.3980	 4.2860
 0.3990	 4.3220
 0.4000	 4.3300
 0.4010	 4.3120
 0.4020	 4.3270
 0.4030	 4.3350
 0.4040	 4.3500
 0.4050	 4.3850
 0.4060	 4.4190
 0.4070	 4.4490
 0.4080	 4.4710
 0.4090	 4.4830
 0.4100	 4.5160
 0.4110	 4.5650
 0.4120	 4.6120
 0.4130	 4.6160
 0.4140	 4.6390
 0.4150	 4.6790
 0.4160	 4.7170
 0.4170	 4.7440
 0.4180	 4.7770
 0.4190	 4.8140
 0.4200	 4.8320
 0.4210	 4.8700
 0.4220	 4.9100
 0.4230	 4.9350
 0.4240	 4.9550
 0.4250	 4.9800
 0.4260	 5.0040
 0.4270	 5.0130
 0.4280	 5.0340
 0.4290	 5.0520
 0.4300	 5.0650
 0.4310	 5.0910
 0.4320	 5.1070
 0.4330	 5.1220
 0.4340	 5.1450
 0.4350	 5.1600
 0.4360	 5.1660
 0.4370	 5.1710
 0.4380	 5.1870
 0.4390	 5.2040
 0.4400	 5.2160
 0.4410	 5.2210
 0.4420	 5.2380
 0.4430	 5.2620
 0.4440	 5.2920
 0.4450	 5.3270
 0.4460	 5.3630
 0.4470	 5.3980
 0.4480	 5.4320
 0.4490	 5.4710
 0.4500	 5.5050
 0.4510	 5.5360
 0.4520	 5.5680
 0.4530	 5.6050
 0.4540	 5.6340
 0.4550	 5.6540
 0.4560	 5.6690
 0.4570	 5.6900
 0.4580	 5.7040
 0.4590	 5.7040
 0.4600	 5.7080
 0.4610	 5.7110
 0.4620	 5.7170
 0.4630	 5.7260
 0.4640	 5.7190
 0.4650	 5.7130
 0.4660	 5.7150
 0.4670	 5.7120
 0.4680	 5.7130
 0.4690	 5.7140
 0.4700	 5.7110
 0.4710	 5.7030
 0.4720	 5.6960
 0.4730	 5.6950
 0.4740	 5.7040
 0.4750	 5.7090
 0.4760	 5.7100
 0.4770	 5.7110
 0.4780	 5.7180
 0.4790	 5.7210
 0.4800	 5.7210
 0.4810	 5.7250
 0.4820	 5.7320
 0.4830	 5.7440
 0.4840	 5.7600
 0.4850	 5.7780
 0.4860	 5.7990
 0.4870	 5.8200
 0.4880	 5.8450
 0.4890	 5.8820
 0.4900	 5.9300
 0.4910	 5.9780
 0.4920	 6.0160
 0.4930	 6.0730
 0.4940	 6.1430
 0.4950	 6.2240
 0.4960	 6.3100
 0.4970	 6.4050
 0.4980	 6.5120
 0.4990	 6.6300
 0.5000	 6.7630
 0.5010	 6.9060
 0.5020	 7.0590
 0.5030	 7.2290
 0.5040	 7.4170
 0.5050	 7.6170
 0.5060	 7.8280
 0.5070	 8.0530
 0.5080	 8.2950
 0.5090	 8.5540
 0.5100	 8.8260
 0.5110	 9.1130
 0.5120	 9.4160
 0.5130	 9.7330
 0.5140	10.0530
 0.5150	10.3880
 0.5160	10.7360
 0.5170	11.0930
 0.5180	11.4550
 0.5190	11.8240
 0.5200	12.1950
 0.5210	12.5600
 0.5220	12.9210
 0.5230	13.2740
 0.5240	13.6190
 0.5250	13.9500
 0.5260	14.2610
 0.5270	14.5520
 0.5280	14.8300
 0.5290	15.0890
 0.5300	15.3280
 0.5310	15.5460
 0.5320	15.7430
 0.5330	15.9280
 0.5340	16.0980
 0.5350	16.2480
 0.5360	16.3900
 0.5370	16.5170
 0.5380	16.6320
 0.5390	16.7490
 0.5400	16.8770
 0.5410	17.0190
 0.5420	17.1620
 0.5430	17.2810
 0.5440	17.3660
 0.5450	17.4140
 0.5460	17.4300
 0.5470	17.4280
 0.5480	17.4290
 0.5490	17.4440
 0.5500	17.4690
 0.5510	17.4880
 0.5520	17.4920
 0.5530	17.4770
 0.5540	17.4430
 0.5550	17.3910
 0.5560	17.3200
 0.5570	17.2330
 0.5580	17.1340
 0.5590	17.0210
 0.5600	16.8940
 0.5610	16.7590
 0.5620	16.6170
 0.5630	16.4680
 0.5640	16.3160
 0.5650	16.1520
 0.5660	15.9790
 0.5670	15.7990
 0.5680	15.6100
 0.5690	15.4170
 0.5700	15.2180
 0.5710	15.0150
 0.5720	14.8150
 0.5730	14.6230
 0.5740	14.4410
 0.5750	14.2690
 0.5760	14.1010
 0.5770	13.9390
 0.5780	13.7870
 0.5790	13.6450
 0.5800	13.5150
 0.5810	13.3960
 0.5820	13.2840
 0.5830	13.1810
 0.5840	13.0800
 0.5850	12.9790
 0.5860	12.8790
 0.5870	12.7920
 0.5880	12.7100
 0.5890	12.6260
 0.5900	12.5450
 0.5910	12.4710
 0.5920	12.4060
 0.5930	12.3510
 0.5940	12.2990
 0.5950	12.2480
 0.5960	12.1980
 0.5970	12.1530
 0.5980	12.1090
 0.5990	12.0630
 0.6000	12.0090
 0.6010	11.9460
 0.6020	11.8780
 0.6030	11.8040
 0.6040	11.7200
 0.6050	11.6280
 0.6060	11.5280
 0.6070	11.4210
 0.6080	11.3070
 0.6090	11.2030
 0.6100	11.1180
 0.6110	11.0460
 0.6120	10.9190
 0.6130	10.7570
 0.6140	10.5890
 0.6150	10.4480
 0.6160	10.3180
 0.6170	10.1960
 0.6180	10.0850
 0.6190	 9.9880
 0.6200	 9.9030
 0.6210	 9.8260
 0.6220	 9.7500
 0.6230	 9.6860
 0.6240	 9.6340
 0.6250	 9.5940
 0.6260	 9.5580
 0.6270	 9.5290
 0.6280	 9.5070
 0.6290	 9.4900
 0.6300	 9.4780
 0.6310	 9.4640
 0.6320	 9.4380
 0.6330	 9.3970
 0.6340	 9.3470
 0.6350	 9.2850
 0.6360	 9.2050
 0.6370	 9.1060
 0.6380	 8.9890
 0.6390	 8.8550
 0.6400	 8.7080
 0.6410	 8.5460
 0.6420	 8.3750
 0.6430	 8.1980
 0.6440	 8.0170
 0.6450	 7.8350
 0.6460	 7.6570
 0.6470	 7.4890
 0.6480	 7.3370
 0.6490	 7.2050
 0.6500	 7.0900
 0.6510	 6.9900
 0.6520	 6.9020
 0.6530	 6.8210
 0.6540	 6.7400
 0.6550	 6.6540
 0.6560	 6.5590
 0.6570	 6.4510
 0.6580	 6.3290
 0.6590	 6.1970
 0.6600	 6.0550
 0.6610	 5.9050
 0.6620	 5.7530
 0.6630	 5.6020
 0.6640	 5.4580
 0.6650	 5.3240
 0.6660	 5.2030
 0.6670	 5.0970
 0.6680	 5.0050
 0.6690	 4.9280
 0.6700	 4.8680
 0.6710	 4.8210
 0.6720	 4.7860
 0.6730	 4.7640
 0.6740	 4.7540
 0.6750	 4.7540
 0.6760	 4.7620
 0.6770	 4.7820
 0.6780	 4.8130
 0.6790	 4.8590
 0.6800	 4.9200
 0.6810	 5.0040
 0.6820	 5.1170
 0.6830	 5.2680
 0.6840	 5.4610
 0.6850	 5.7060
 0.6860	 6.0110
 0.6870	 6.3840
 0.6880	 6.8350
 0.6890	 7.3660
 0.6900	 7.9800
 0.6910	 8.6810
 0.6920	 9.4650
 0.6930	10.3190
 0.6940	11.2330
 0.6950	12.2020
 0.6960	13.2130
 0.6970	14.2580
 0.6980	15.3260
 0.6990	16.4060
 0.7000	17.4900
 0.7010	18.5690
 0.7020	19.6400
 0.7030	20.6930
 0.7040	21.7260
 0.7050	22.7360
 0.7060	23.7220
 0.7070	24.6830
 0.7080	25.6170
 0.7090	26.5270
 0.7100	27.4160
 0.7110	28.2880
 0.7120	29.1400
 0.7130	29.9660
 0.7140	30.7740
 0.7150	31.5630
 0.7160	32.3330
 0.7170	33.0870
 0.7180	33.8180
 0.7190	34.5260
 0.7200	35.2130
 0.7210	35.8770
 0.7220	36.5160
 0.7230	37.1270
 0.7240	37.7110
 0.7250	38.2700
 0.7260	38.8010
 0.7270	39.3030
 0.7280	39.7790
 0.7290	40.2260
 0.7300	40.6450
 0.7310	41.0400
 0.7320	41.4100
 0.7330	41.7570
 0.7340	42.0810
 0.7350	42.3840
 0.7360	42.6620
 0.7370	42.9210
 0.7380	43.1630
 0.7390	43.3850
 0.7400	43.5920
 0.7410	43.7840
 0.7420	43.9600
 0.7430	44.1170
 0.7440	44.2620
 0.7450	44.3960
 0.7460	44.5190
 0.7470	44.6290
 0.7480	44.7270
 0.7490	44.8140
 0.7500	44.8930
 0.7510	44.9630
 0.7520	45.0260
 0.7530	45.0830
 0.7540	45.1350
 0.7550	45.1800
 0.7560	45.2200
 0.7570	45.2580
 0.7580	45.2930
 0.7590	45.3260
 0.7600	45.3550
 0.7610	45.3810
 0.7620	45.4020
 0.7630	45.4220
 0.7640	45.4420
 0.7650	45.4560
 0.7660	45.4680
 0.7670	45.4810
 0.7680	45.4900
 0.7690	45.5010
 0.7700	45.5120
 0.7710	45.5200
 0.7720	45.5270
 0.7730	45.5340
 0.7740	45.5400
 0.7750	45.5470
 0.7760	45.5530
 0.7770	45.5580
 0.7780	45.5630
 0.7790	45.5690
 0.7800	45.5740
 0.7810	45.5770
 0.7820	45.5790
 0.7830	45.5830
 0.7840	45.5860
 0.7850	45.5870
 0.7860	45.5890
 0.7870	45.5880
 0.7880	45.5860
 0.7890	45.5840
 0.7900	45.5820
 0.7910	45.5790
 0.7920	45.5770
 0.7930	45.5760
 0.7940	45.5710
 0.7950	45.5630
 0.7960	45.5570
 0.7970	45.5530
 0.7980	45.5450
 0.7990	45.5360
 0.8000	45.5260
 0.8010	45.5130
 0.8020	45.5050
 0.8030	45.4960
 0.8040	45.4860
 0.8050	45.4730
 0.8060	45.4590
 0.8070	45.4430
 0.8080	45.4280
 0.8090	45.4160
 0.8100	45.4030
 0.8110	45.3860
 0.8120	45.3670
 0.8130	45.3490
 0.8140	45.3320
 0.8150	45.3160
 0.8160	45.2970
 0.8170	45.2810
 0.8180	45.2630
 0.8190	45.2460
 0.8200	45.2300
 0.8210	45.2130
 0.8220	45.1940
 0.8230	45.1750
 0.8240	45.1600
 0.8250	45.1400
 0.8260	45.1180
 0.8270	45.0990
 0.8280	45.0840
 0.8290	45.0650
 0.8300	45.0450
 0.8310	45.0260
 0.8320	45.0070
 0.8330	44.9890
 0.8340	44.9730
 0.8350	44.9590
 0.8360	44.9480
 0.8370	44.9360
 0.8380	44.9220
 0.8390	44.9120
 0.8400	44.9000
 0.8410	44.8910
 0.8420	44.8840
 0.8430	44.8750
 0.8440	44.8690
 0.8450	44.8640
 0.8460	44.8580
 0.8470	44.8520
 0.8480	44.8440
 0.8490	44.8380
 0.8500	44.8360
 0.8510	44.8320
 0.8520	44.8310
 0.8530	44.8310
 0.8540	44.8250
 0.8550	44.8210
 0.8560	44.8200
 0.8570	44.8200
 0.8580	44.8210
 0.8590	44.8230
 0.8600	44.8260
 0.8610	44.8290
 0.8620	44.8310
 0.8630	44.8350
 0.8640	44.8370
 0.8650	44.8360
 0.8660	44.8420
 0.8670	44.8450
 0.8680	44.8450
 0.8690	44.8510
 0.8700	44.8570
 0.8710	44.8610
 0.8720	44.8650
 0.8730	44.8700
 0.8740	44.8720
 0.8750	44.8790
 0.8760	44.8860
 0.8770	44.8880
 0.8780	44.8950
 0.8790	44.9010
 0.8800	44.9050
 0.8810	44.9130
 0.8820	44.9200
 0.8830	44.9210
 0.8840	44.9210
 0.8850	44.9270
 0.8860	44.9340
 0.8870	44.9400
 0.8880	44.9430
 0.8890	44.9450
 0.8900	44.9500
 0.8910	44.9540
 0.8920	44.9560
 0.8930	44.9630
 0.8940	44.9680
 0.8950	44.9700
 0.8960	44.9750
 0.8970	44.9760
 0.8980	44.9790
 0.8990	44.9820
 0.9000	44.9780
 0.9010	44.9770
 0.9020	44.9800
 0.9030	44.9860
 0.9040	44.9870
 0.9050	44.9820
 0.9060	44.9770
 0.9070	44.9750
 0.9080	44.9800
 0.9090	44.9820
 0.9100	44.9820
 0.9110	44.9820
 0.9120	44.9770
 0.9130	44.9780
 0.9140	44.9760
 0.9150	44.9670
 0.9160	44.9630
 0.9170	44.9680
 0.9180	44.9690
 0.9190	44.9530
 0.9200	44.9390
 0.9210	44.9350
 0.9220	44.9290
 0.9230	44.9080
 0.9240	44.8950
 0.9250	44.8800
 0.9260	44.8620
 0.9270	44.8470
 0.9280	44.8270
 0.9290	44.8020
 0.9300	44.7740
 0.9310	44.7480
 0.9320	44.7210
 0.9330	44.6950
 0.9340	44.6700
 0.9350	44.6410
 0.9360	44.6090
 0.9370	44.5710
 0.9380	44.5300
 0.9390	44.4930
 0.9400	44.4590
 0.9410	44.4200
 0.9420	44.3730
 0.9430	44.3250
 0.9440	44.2800
 0.9450	44.2290
 0.9460	44.1680
 0.9470	44.1040
 0.9480	44.0400
 0.9490	43.9770
 0.9500	43.9120
 0.9510	43.8330
 0.9520	43.7510
 0.9530	43.6710
 0.9540	43.5960
 0.9550	43.5230
 0.9560	43.4420
 0.9570	43.3620
 0.9580	43.2930
 0.9590	43.2330
 0.9600	43.1710
 0.9610	43.1150
 0.9620	43.0730
 0.9630	43.0150
 0.9640	42.9610
 0.9650	42.9220
 0.9660	42.8980
 0.9670	42.8600
 0.9680	42.8320
 0.9690	42.8100
 0.9700	42.7830
 0.9710	42.7710
 0.9720	42.7530
 0.9730	42.7250
 0.9740	42.6960
 0.9750	42.6860
 0.9760	42.6730
 0.9770	42.6580
 0.9780	42.6520
 0.9790	42.6520
 0.9800	42.6460
 0.9810	42.6330
 0.9820	42.6240
 0.9830	42.6270
 0.9840	42.6390
 0.9850	42.6450
 0.9860	42.6350
 0.9870	42.6380
 0.9880	42.6450
 0.9890	42.6530
 0.9900	42.6650
 0.9910	42.6770
 0.9920	42.6890
 0.9930	42.6960
 0.9940	42.7000
 0.9950	42.7190
 0.9960	42.7430
 0.9970	42.7580
 0.9980	42.7590
 0.9990	42.7890
 1.0000	42.8140
 1.0010	42.9670
 1.0020	42.9840
 1.0030	43.0010
 1.0040	43.0190
 1.0050	43.0420
 1.0060	43.0660
 1.0070	43.0910
 1.0080	43.1120
 1.0090	43.1270
 1.0100	43.1480
 1.0110	43.1690
 1.0120	43.1900
 1.0130	43.2160
 1.0140	43.2390
 1.0150	43.2620
 1.0160	43.2810
 1.0170	43.2990
 1.0180	43.3210
 1.0190	43.3420
 1.0200	43.3630
 1.0210	43.3850
 1.0220	43.4080
 1.0230	43.4290
 1.0240	43.4470
 1.0250	43.4660
 1.0260	43.4870
 1.0270	43.5070
 1.0280	43.5280
 1.0290	43.5470
 1.0300	43.5610
 1.0310	43.5790
 1.0320	43.5980
 1.0330	43.6170
 1.0340	43.6420
 1.0350	43.6610
 1.0360	43.6790
 1.0370	43.6980
 1.0380	43.7140
 1.0390	43.7280
 1.0400	43.7420
 1.0410	43.7530
 1.0420	43.7670
 1.0430	43.7830
 1.0440	43.7960
 1.0450	43.8110
 1.0460	43.8240
 1.0470	43.8340
 1.0480	43.8450
 1.0490	43.8570
 1.0500	43.8670
 1.0510	43.8780
 1.0520	43.8870
 1.0530	43.8990
 1.0540	43.9100
 1.0550	43.9210
 1.0560	43.9340
 1.0570	43.9440
 1.0580	43.9540
 1.0590	43.9610
 1.0600	43.9680
 1.0610	43.9730
 1.0620	43.9750
 1.0630	43.9800
 1.0640	43.9850
 1.0650	43.9900
 1.0660	43.9970
 1.0670	44.0020
 1.0680	44.0060
 1.0690	44.0100
 1.0700	44.0110
 1.0710	44.0110
 1.0720	44.0110
 1.0730	44.0080
 1.0740	44.0090
 1.0750	44.0120
 1.0760	44.0130
 1.0770	44.0140
 1.0780	44.0130
 1.0790	44.0080
 1.0800	44.0060
 1.0810	44.0050
 1.0820	44.0020
 1.0830	44.0020
 1.0840	43.9960
 1.0850	43.9870
 1.0860	43.9760
 1.0870	43.9670
 1.0880	43.9550
 1.0890	43.9460
 1.0900	43.9400
 1.0910	43.9310
 1.0920	43.9230
 1.0930	43.9120
 1.0940	43.8990
 1.0950	43.8860
 1.0960	43.8720
 1.0970	43.8580
 1.0980	43.8440
 1.0990	43.8280
 1.1000	43.8100
 1.1010	43.7940
 1.1020	43.7760
 1.1030	43.7600
 1.1040	43.7460
 1.1050	43.7300
 1.1060	43.7110
 1.1070	43.6910
 1.1080	43.6710
 1.1090	43.6500
 1.1100	43.6280
 1.1110	43.6070
 1.1120	43.5840
 1.1130	43.5600
 1.1140	43.5340
 1.1150	43.5080
 1.1160	43.4800
 1.1170	43.4500
 1.1180	43.4170
 1.1190	43.3840
 1.1200	43.3480
 1.1210	43.3090
 1.1220	43.2650
 1.1230	43.2150
 1.1240	43.1610
 1.1250	43.1020
 1.1260	43.0400
 1.1270	42.9690
 1.1280	42.8940
 1.1290	42.8080
 1.1300	42.7140
 1.1310	42.6130
 1.1320	42.5060
 1.1330	42.3890
 1.1340	42.2630
 1.1350	42.1290
 1.1360	41.9880
 1.1370	41.8370
 1.1380	41.6790
 1.1390	41.5160
 1.1400	41.3460
 1.1410	41.1720
 1.1420	40.9970
 1.1430	40.8200
 1.1440	40.6440
 1.1450	40.4640
 1.1460	40.2930
 1.1470	40.1230
 1.1480	39.9600
 1.1490	39.7990
 1.1500	39.6490
 1.1510	39.5040
 1.1520	39.3690
 1.1530	39.2430
 1.1540	39.1250
 1.1550	39.0140
 1.1560	38.9100
 1.1570	38.8150
 1.1580	38.7300
 1.1590	38.6510
 1.1600	38.5790
 1.1610	38.5150
 1.1620	38.4550
 1.1630	38.3980
 1.1640	38.3450
 1.1650	38.2960
 1.1660	38.2510
 1.1670	38.2080
 1.1680	38.1700
 1.1690	38.1310
 1.1700	38.0940
 1.1710	38.0580
 1.1720	38.0230
 1.1730	37.9870
 1.1740	37.9530
 1.1750	37.9160
 1.1760	37.8770
 1.1770	37.8410
 1.1780	37.8030
 1.1790	37.7650
 1.1800	37.7270
 1.1810	37.6890
 1.1820	37.6510
 1.1830	37.6150
 1.1840	37.5820
 1.1850	37.5490
 1.1860	37.5190
 1.1870	37.4900
 1.1880	37.4650
 1.1890	37.4400
 1.1900	37.4200
 1.1910	37.4020
 1.1920	37.3880
 1.1930	37.3770
 1.1940	37.3680
 1.1950	37.3600
 1.1960	37.3570
 1.1970	37.3550
 1.1980	37.3560
 1.1990	37.3600
 1.2000	37.3670
 1.2010	37.3760
 1.2020	37.3870
 1.2030	37.4010
 1.2040	37.4150
 1.2050	37.4320
 1.2060	37.4500
 1.2070	37.4700
 1.2080	37.4910
 1.2090	37.5130
 1.2100	37.5370
 1.2110	37.5630
 1.2120	37.5900
 1.2130	37.6180
 1.2140	37.6480
 1.2150	37.6790
 1.2160	37.7100
 1.2170	37.7450
 1.2180	37.7790
 1.2190	37.8140
 1.2200	37.8500
 1.2210	37.8850
 1.2220	37.9210
 1.2230	37.9590
 1.2240	37.9980
 1.2250	38.0350
 1.2260	38.0710
 1.2270	38.1050
 1.2280	38.1400
 1.2290	38.1730
 1.2300	38.2050
 1.2310	38.2350
 1.2320	38.2650
 1.2330	38.2930
 1.2340	38.3210
 1.2350	38.3510
 1.2360	38.3780
 1.2370	38.4040
 1.2380	38.4280
 1.2390	38.4520
 1.2400	38.4740
 1.2410	38.4950
 1.2420	38.5150
 1.2430	38.5360
 1.2440	38.5540
 1.2450	38.5710
 1.2460	38.5880
 1.2470	38.6040
 1.2480	38.6210
 1.2490	38.6380
 1.2500	38.6550
 1.2510	38.6710
 1.2520	38.6840
 1.2530	38.6950
 1.2540	38.7050
 1.2550	38.7140
 1.2560	38.7240
 1.2570	38.7330
 1.2580	38.7400
 1.2590	38.7470
 1.2600	38.7520
 1.2610	38.7560
 1.2620	38.7570
 1.2630	38.7590
 1.2640	38.7590
 1.2650	38.7580
 1.2660	38.7570
 1.2670	38.7530
 1.2680	38.7490
 1.2690	38.7440
 1.2700	38.7360
 1.2710	38.7280
 1.2720	38.7200
 1.2730	38.7090
 1.2740	38.6980
 1.2750	38.6840
 1.2760	38.6690
 1.2770	38.6530
 1.2780	38.6340
 1.2790	38.6130
 1.2800	38.5910
 1.2810	38.5670
 1.2820	38.5420
 1.2830	38.5190
 1.2840	38.4920
 1.2850	38.4620
 1.2860	38.4310
 1.2870	38.3980
 1.2880	38.3620
 1.2890	38.3250
 1.2900	38.2860
 1.2910	38.2450
 1.2920	38.2020
 1.2930	38.1570
 1.2940	38.1100
 1.2950	38.0620
 1.2960	38.0110
 1.2970	37.9570
 1.2980	37.9000
 1.2990	37.8420
 1.3000	37.7820
 1.3010	37.7190
 1.3020	37.6550
 1.3030	37.5850
 1.3040	37.5110
 1.3050	37.4360
 1.3060	37.3560
 1.3070	37.2720
 1.3080	37.1890
 1.3090	37.1020
 1.3100	37.0120
 1.3110	36.9200
 1.3120	36.8230
 1.3130	36.7210
 1.3140	36.6150
 1.3150	36.5050
 1.3160	36.3920
 1.3170	36.2760
 1.3180	36.1570
 1.3190	36.0360
 1.3200	35.9120
 1.3210	35.7840
 1.3220	35.6540
 1.3230	35.5190
 1.3240	35.3810
 1.3250	35.2420
 1.3260	35.1000
 1.3270	34.9560
 1.3280	34.8100
 1.3290	34.6610
 1.3300	34.5090
 1.3310	34.3540
 1.3320	34.1990
 1.3330	34.0430
 1.3340	33.8860
 1.3350	33.7270
 1.3360	33.5690
 1.3370	33.4100
 1.3380	33.2510
 1.3390	33.0930
 1.3400	32.9360
 1.3410	32.7810
 1.3420	32.6270
 1.3430	32.4750
 1.3440	32.3250
 1.3450	32.1750
 1.3460	32.0260
 1.3470	31.8800
 1.3480	31.7330
 1.3490	31.5900
 1.3500	31.4490
 1.3510	31.3090
 1.3520	31.1690
 1.3530	31.0310
 1.3540	30.8920
 1.3550	30.7520
 1.3560	30.6140
 1.3570	30.4740
 1.3580	30.3340
 1.3590	30.1920
 1.3600	30.0450
 1.3610	29.8970
 1.3620	29.7430
 1.3630	29.5850
 1.3640	29.4220
 1.3650	29.2520
 1.3660	29.0780
 1.3670	28.8940
 1.3680	28.7010
 1.3690	28.4980
 1.3700	28.2790
 1.3710	28.0480
 1.3720	27.8050
 1.3730	27.5430
 1.3740	27.2680
 1.3750	26.9750
 1.3760	26.6610
 1.3770	26.3280
 1.3780	25.9710
 1.3790	25.5940
 1.3800	25.1960
 1.3810	24.7740
 1.3820	24.3380
 1.3830	23.8840
 1.3840	23.4140
 1.3850	22.9250
 1.3860	22.4280
 1.3870	21.9110
 1.3880	21.3960
 1.3890	20.8720
 1.3900	20.3440
 1.3910	19.8210
 1.3920	19.2960
 1.3930	18.7730
 1.3940	18.2580
 1.3950	17.7450
 1.3960	17.2430
 1.3970	16.7560
 1.3980	16.2810
 1.3990	15.8280
 1.4000	15.3910
 1.4010	14.9700
 1.4020	14.5700
 1.4030	14.1860
 1.4040	13.8220
 1.4050	13.4790
 1.4060	13.1520
 1.4070	12.8480
 1.4080	12.5630
 1.4090	12.2930
 1.4100	12.0440
 1.4110	11.8080
 1.4120	11.5870
 1.4130	11.3830
 1.4140	11.1920
 1.4150	11.0180
 1.4160	10.8570
 1.4170	10.7050
 1.4180	10.5650
 1.4190	10.4340
 1.4200	10.3120
 1.4210	10.1990
 1.4220	10.0940
 1.4230	 9.9990
 1.4240	 9.9100
 1.4250	 9.8260
 1.4260	 9.7500
 1.4270	 9.6780
 1.4280	 9.6120
 1.4290	 9.5510
 1.4300	 9.4960
 1.4310	 9.4460
 1.4320	 9.4010
 1.4330	 9.3580
 1.4340	 9.3200
 1.4350	 9.2850
 1.4360	 9.2530
 1.4370	 9.2250
 1.4380	 9.2010
 1.4390	 9.1790
 1.4400	 9.1600
 1.4410	 9.1440
 1.4420	 9.1310
 1.4430	 9.1200
 1.4440	 9.1100
 1.4450	 9.1020
 1.4460	 9.0970
 1.4470	 9.0920
 1.4480	 9.0900
 1.4490	 9.0890
 1.4500	 9.0900
 1.4510	 9.0920
 1.4520	 9.0950
 1.4530	 9.1010
 1.4540	 9.1070
 1.4550	 9.1160
 1.4560	 9.1260
 1.4570	 9.1380
 1.4580	 9.1530
 1.4590	 9.1710
 1.4600	 9.1910
 1.4610	 9.2140
 1.4620	 9.2400
 1.4630	 9.2700
 1.4640	 9.3020
 1.4650	 9.3380
 1.4660	 9.3790
 1.4670	 9.4220
 1.4680	 9.4700
 1.4690	 9.5200
 1.4700	 9.5730
 1.4710	 9.6290
 1.4720	 9.6890
 1.4730	 9.7510
 1.4740	 9.8170
 1.4750	 9.8840
 1.4760	 9.9540
 1.4770	10.0270
 1.4780	10.1010
 1.4790	10.1780
 1.4800	10.2560
 1.4810	10.3360
 1.4820	10.4170
 1.4830	10.4980
 1.4840	10.5820
 1.4850	10.6690
 1.4860	10.7550
 1.4870	10.8440
 1.4880	10.9340
 1.4890	11.0230
 1.4900	11.1140
 1.4910	11.2050
 1.4920	11.2990
 1.4930	11.3930
 1.4940	11.4880
 1.4950	11.5860
 1.4960	11.6830
 1.4970	11.7780
 1.4980	11.8760
 1.4990	11.9750
 1.5000	12.0740
 1.5010	12.1750
 1.5020	12.2750
 1.5030	12.3750
 1.5040	12.4750
 1.5050	12.5730
 1.5060	12.6750
 1.5070	12.7780
 1.5080	12.8790
 1.5090	12.9820
 1.5100	13.0840
 1.5110	13.1850
 1.5120	13.2870
 1.5130	13.3870
 1.5140	13.4890
 1.5150	13.5910
 1.5160	13.6910
 1.5170	13.7920
 1.5180	13.8930
 1.5190	13.9930
 1.5200	14.0940
 1.5210	14.1940
 1.5220	14.2950
 1.5230	14.3950
 1.5240	14.4930
 1.5250	14.5920
 1.5260	14.6900
 1.5270	14.7880
 1.5280	14.8870
 1.5290	14.9840
 1.5300	15.0800
 1.5310	15.1750
 1.5320	15.2700
 1.5330	15.3660
 1.5340	15.4610
 1.5350	15.5550
 1.5360	15.6480
 1.5370	15.7400
 1.5380	15.8310
 1.5390	15.9240
 1.5400	16.0150
 1.5410	16.1060
 1.5420	16.1970
 1.5430	16.2850
 1.5440	16.3740
 1.5450	16.4630
 1.5460	16.5510
 1.5470	16.6390
 1.5480	16.7260
 1.5490	16.8130
 1.5500	16.8970
 1.5510	16.9800
 1.5520	17.0630
 1.5530	17.1470
 1.5540	17.2300
 1.5550	17.3130
 1.5560	17.3950
 1.5570	17.4740
 1.5580	17.5530
 1.5590	17.6310
 1.5600	17.7100
 1.5610	17.7880
 1.5620	17.8640
 1.5630	17.9410
 1.5640	18.0170
 1.5650	18.0920
 1.5660	18.1660
 1.5670	18.2400
 1.5680	18.3130
 1.5690	18.3840
 1.5700	18.4550
 1.5710	18.5260
 1.5720	18.5970
 1.5730	18.6680
 1.5740	18.7390
 1.5750	18.8100
 1.5760	18.8800
 1.5770	18.9480
 1.5780	19.0160
 1.5790	19.0840
 1.5800	19.1520
 1.5810	19.2190
 1.5820	19.2860
 1.5830	19.3520
 1.5840	19.4170
 1.5850	19.4830
 1.5860	19.5480
 1.5870	19.6140
 1.5880	19.6780
 1.5890	19.7420
 1.5900	19.8050
 1.5910	19.8690
 1.5920	19.9310
 1.5930	19.9930
 1.5940	20.0550
 1.5950	20.1160
 1.5960	20.1760
 1.5970	20.2370
 1.5980	20.2970
 1.5990	20.3560
 1.6000	20.4150
 1.6010	20.4730
 1.6020	20.5310
 1.6030	20.5900
 1.6040	20.6470
 1.6050	20.7030
 1.6060	20.7580
 1.6070	20.8130
 1.6080	20.8680
 1.6090	20.9210
 1.6100	20.9730
 1.6110	21.0250
 1.6120	21.0750
 1.6130	21.1270
 1.6140	21.1770
 1.6150	21.2260
 1.6160	21.2750
 1.6170	21.3220
 1.6180	21.3680
 1.6190	21.4130
 1.6200	21.4550
 1.6210	21.4980
 1.6220	21.5400
 1.6230	21.5810
 1.6240	21.6230
 1.6250	21.6600
 1.6260	21.6960
 1.6270	21.7320
 1.6280	21.7660
 1.6290	21.8000
 1.6300	21.8360
 1.6310	21.8690
 1.6320	21.9020
 1.6330	21.9340
 1.6340	21.9650
 1.6350	21.9970
 1.6360	22.0290
 1.6370	22.0600
 1.6380	22.0920
 1.6390	22.1230
 1.6400	22.1540
 1.6410	22.1830
 1.6420	22.2120
 1.6430	22.2380
 1.6440	22.2620
 1.6450	22.2830
 1.6460	22.3030
 1.6470	22.3200
 1.6480	22.3350
 1.6490	22.3500
 1.6500	22.3610
 1.6510	22.3710
 1.6520	22.3800
 1.6530	22.3870
 1.6540	22.3900
 1.6550	22.3920
 1.6560	22.3930
 1.6570	22.3920
 1.6580	22.3930
 1.6590	22.3910
 1.6600	22.3870
 1.6610	22.3830
 1.6620	22.3760
 1.6630	22.3690
 1.6640	22.3630
 1.6650	22.3560
 1.6660	22.3470
 1.6670	22.3370
 1.6680	22.3230
 1.6690	22.3080
 1.6700	22.2900
 1.6710	22.2710
 1.6720	22.2500
 1.6730	22.2220
 1.6740	22.1930
 1.6750	22.1590
 1.6760	22.1220
 1.6770	22.0850
 1.6780	22.0440
 1.6790	21.9990
 1.6800	21.9540
 1.6810	21.9050
 1.6820	21.8530
 1.6830	21.8010
 1.6840	21.7460
 1.6850	21.6900
 1.6860	21.6350
 1.6870	21.5760
 1.6880	21.5180
 1.6890	21.4590
 1.6900	21.3980
 1.6910	21.3350
 1.6920	21.2730
 1.6930	21.2100
 1.6940	21.1490
 1.6950	21.0910
 1.6960	21.0340
 1.6970	20.9790
 1.6980	20.9250
 1.6990	20.8730
 1.7000	20.8220
 1.7010	20.7710
 1.7020	20.7230
 1.7030	20.6770
 1.7040	20.6310
 1.7050	20.5850
 1.7060	20.5400
 1.7070	20.4940
 1.7080	20.4490
 1.7090	20.4050
 1.7100	20.3620
 1.7110	20.3210
 1.7120	20.2810
 1.7130	20.2410
 1.7140	20.2010
 1.7150	20.1600
 1.7160	20.1200
 1.7170	20.0820
 1.7180	20.0430
 1.7190	20.0050
 1.7200	19.9690
 1.7210	19.9290
 1.7220	19.8900
 1.7230	19.8520
 1.7240	19.8130
 1.7250	19.7750
 1.7260	19.7380
 1.7270	19.7010
 1.7280	19.6660
 1.7290	19.6310
 1.7300	19.5970
 1.7310	19.5650
 1.7320	19.5320
 1.7330	19.5000
 1.7340	19.4710
 1.7350	19.4410
 1.7360	19.4120
 1.7370	19.3800
 1.7380	19.3480
 1.7390	19.3120
 1.7400	19.2750
 1.7410	19.2340
 1.7420	19.1910
 1.7430	19.1450
 1.7440	19.0940
 1.7450	19.0430
 1.7460	18.9870
 1.7470	18.9320
 1.7480	18.8760
 1.7490	18.8210
 1.7500	18.7660
 1.7510	18.7120
 1.7520	18.6590
 1.7530	18.6070
 1.7540	18.5570
 1.7550	18.5070
 1.7560	18.4580
 1.7570	18.4110
 1.7580	18.3660
 1.7590	18.3230
 1.7600	18.2800
 1.7610	18.2370
 1.7620	18.1970
 1.7630	18.1600
 1.7640	18.1240
 1.7650	18.0910
 1.7660	18.0580
 1.7670	18.0260
 1.7680	17.9960
 1.7690	17.9660
 1.7700	17.9380
 1.7710	17.9130
 1.7720	17.8880
 1.7730	17.8650
 1.7740	17.8420
 1.7750	17.8190
 1.7760	17.7960
 1.7770	17.7720
 1.7780	17.7510
 1.7790	17.7300
 1.7800	17.7110
 1.7810	17.6950
 1.7820	17.6790
 1.7830	17.6650
 1.7840	17.6520
 1.7850	17.6400
 1.7860	17.6310
 1.7870	17.6230
 1.7880	17.6160
 1.7890	17.6130
 1.7900	17.6130
 1.7910	17.6120
 1.7920	17.6120
 1.7930	17.6130
 1.7940	17.6120
 1.7950	17.6140
 1.7960	17.6180
 1.7970	17.6230
 1.7980	17.6290
 1.7990	17.6340
 1.8000	17.6370
 1.8010	17.6440
 1.8020	17.6510
 1.8030	17.6590
 1.8040	17.6730
 1.8050	17.6820
 1.8060	17.6870
 1.8070	17.6950
 1.8080	17.7040
 1.8090	17.7110
 1.8100	17.7190
 1.8110	17.7250
 1.8120	17.7300
 1.8130	17.7380
 1.8140	17.7430
 1.8150	17.7470
 1.8160	17.7510
 1.8170	17.7500
 1.8180	17.7510
 1.8190	17.7550
 1.8200	17.7550
 1.8210	17.7560
 1.8220	17.7550
 1.8230	17.7500
 1.8240	17.7450
 1.8250	17.7400
 1.8260	17.7330
 1.8270	17.7240
 1.8280	17.7130
 1.8290	17.7000
 1.8300	17.6840
 1.8310	17.6360
 1.8320	17.6140
 1.8330	17.5890
 1.8340	17.5610
 1.8350	17.5280
 1.8360	17.4950
 1.8370	17.4600
 1.8380	17.4210
 1.8390	17.3750
 1.8400	17.3260
 1.8410	17.2700
 1.8420	17.2070
 1.8430	17.1390
 1.8440	17.0660
 1.8450	16.9860
 1.8460	16.8990
 1.8470	16.8050
 1.8480	16.7060
 1.8490	16.6000
 1.8500	16.4830
 1.8510	16.3600
 1.8520	16.2280
 1.8530	16.0830
 1.8540	15.9280
 1.8550	15.7610
 1.8560	15.5850
 1.8570	15.3980
 1.8580	15.1970
 1.8590	14.9860
 1.8600	14.7650
 1.8610	14.5310
 1.8620	14.2880
 1.8630	14.0360
 1.8640	13.7710
 1.8650	13.4960
 1.8660	13.2030
 1.8670	12.8950
 1.8680	12.5790
 1.8690	12.2500
 1.8700	11.9120
 1.8710	11.5640
 1.8720	11.2140
 1.8730	10.8550
 1.8740	10.4910
 1.8750	10.1240
 1.8760	 9.7540
 1.8770	 9.3880
 1.8780	 9.0260
 1.8790	 8.6670
 1.8800	 8.3150
 1.8810	 7.9680
 1.8820	 7.6230
 1.8830	 7.2860
 1.8840	 6.9590
 1.8850	 6.6390
 1.8860	 6.3330
 1.8870	 6.0350
 1.8880	 5.7510
 1.8890	 5.4860
 1.8900	 5.2320
 1.8910	 4.9930
 1.8920	 4.7670
 1.8930	 4.5590
 1.8940	 4.3630
 1.8950	 4.1820
 1.8960	 4.0180
 1.8970	 3.8660
 1.8980	 3.7280
 1.8990	 3.6030
 1.9000	 3.4860
 1.9010	 3.3800
 1.9020	 3.2840
 1.9030	 3.1990
 1.9040	 3.1220
 1.9050	 3.0550
 1.9060	 2.9920
 1.9070	 2.9360
 1.9080	 2.8880
 1.9090	 2.8450
 1.9100	 2.8090
 1.9110	 2.7730
 1.9120	 2.7400
 1.9130	 2.7110
 1.9140	 2.6860
 1.9150	 2.6610
 1.9160	 2.6410
 1.9170	 2.6250
 1.9180	 2.6100
 1.9190	 2.5960
 1.9200	 2.5860
 1.9210	 2.5780
 1.9220	 2.5700
 1.9230	 2.5650
 1.9240	 2.5590
 1.9250	 2.5530
 1.9260	 2.5470
 1.9270	 2.5410
 1.9280	 2.5370
 1.9290	 2.5360
 1.9300	 2.5380
 1.9310	 2.5410
 1.9320	 2.5440
 1.9330	 2.5470
 1.9340	 2.5470
 1.9350	 2.5510
 1.9360	 2.5580
 1.9370	 2.5650
 1.9380	 2.5740
 1.9390	 2.5850
 1.9400	 2.5940
 1.9410	 2.6010
 1.9420	 2.6110
 1.9430	 2.6210
 1.9440	 2.6320
 1.9450	 2.6430
 1.9460	 2.6560
 1.9470	 2.6720
 1.9480	 2.6850
 1.9490	 2.6980
 1.9500	 2.7120
 1.9510	 2.7280
 1.9520	 2.7410
 1.9530	 2.7570
 1.9540	 2.7740
 1.9550	 2.7910
 1.9560	 2.8080
 1.9570	 2.8260
 1.9580	 2.8470
 1.9590	 2.8670
 1.9600	 2.8840
 1.9610	 2.9020
 1.9620	 2.9200
 1.9630	 2.9400
 1.9640	 2.9650
 1.9650	 2.9890
 1.9660	 3.0120
 1.9670	 3.0360
 1.9680	 3.0590
 1.9690	 3.0790
 1.9700	 3.1030
 1.9710	 3.1310
 1.9720	 3.1580
 1.9730	 3.1860
 1.9740	 3.2120
 1.9750	 3.2370
 1.9760	 3.2620
 1.9770	 3.2870
 1.9780	 3.3120
 1.9790	 3.3400
 1.9800	 3.3690
 1.9810	 3.3970
 1.9820	 3.4280
 1.9830	 3.4570
 1.9840	 3.4860
 1.9850	 3.5160
 1.9860	 3.5470
 1.9870	 3.5790
 1.9880	 3.6120
 1.9890	 3.6420
 1.9900	 3.6750
 1.9910	 3.7080
 1.9920	 3.7410
 1.9930	 3.7760
 1.9940	 3.8100
 1.9950	 3.8430
 1.9960	 3.8770
 1.9970	 3.9120
 1.9980	 3.9460
 1.9990	 3.9810
 2.0000	 4.0170
 2.0010	 4.0500
 2.0020	 4.0850
 2.0030	 4.1210
 2.0040	 4.1550
 2.0050	 4.1890
 2.0060	 4.2220
 2.0070	 4.2570
 2.0080	 4.2910
 2.0090	 4.3260
 2.0100	 4.3630
 2.0110	 4.4000
 2.0120	 4.4390
 2.0130	 4.4730
 2.0140	 4.5100
 2.0150	 4.5480
 2.0160	 4.5820
 2.0170	 4.6190
 2.0180	 4.6560
 2.0190	 4.6930
 2.0200	 4.7280
 2.0210	 4.7630
 2.0220	 4.7980
 2.0230	 4.8320
 2.0240	 4.8660
 2.0250	 4.9020
 2.0260	 4.9360
 2.0270	 4.9660
 2.0280	 4.9980
 2.0290	 5.0320
 2.0300	 5.0670
 2.0310	 5.1010
 2.0320	 5.1350
 2.0330	 5.1690
 2.0340	 5.2000
 2.0350	 5.2320
 2.0360	 5.2670
 2.0370	 5.2980
 2.0380	 5.3270
 2.0390	 5.3570
 2.0400	 5.3860
 2.0410	 5.4170
 2.0420	 5.4500
 2.0430	 5.4820
 2.0440	 5.5120
 2.0450	 5.5420
 2.0460	 5.5710
 2.0470	 5.5970
 2.0480	 5.6240
 2.0490	 5.6500
 2.0500	 5.6780
 2.0510	 5.7080
 2.0520	 5.7360
 2.0530	 5.7660
 2.0540	 5.7940
 2.0550	 5.8190
 2.0560	 5.8450
 2.0570	 5.8740
 2.0580	 5.9010
 2.0590	 5.9300
 2.0600	 5.9610
 2.0610	 5.9900
 2.0620	 6.0190
 2.0630	 6.0490
 2.0640	 6.0810
 2.0650	 6.1100
 2.0660	 6.1370
 2.0670	 6.1660
 2.0680	 6.1950
 2.0690	 6.2240
 2.0700	 6.2590
 2.0710	 6.2900
 2.0720	 6.3210
 2.0730	 6.3480
 2.0740	 6.3770
 2.0750	 6.4040
 2.0760	 6.4340
 2.0770	 6.4650
 2.0780	 6.4960
 2.0790	 6.5290
 2.0800	 6.5600
 2.0810	 6.5890
 2.0820	 6.6190
 2.0830	 6.6470
 2.0840	 6.6780
 2.0850	 6.7110
 2.0860	 6.7420
 2.0870	 6.7730
 2.0880	 6.8030
 2.0890	 6.8330
 2.0900	 6.8620
 2.0910	 6.8910
 2.0920	 6.9230
 2.0930	 6.9510
 2.0940	 6.9780
 2.0950	 7.0050
 2.0960	 7.0320
 2.0970	 7.0610
 2.0980	 7.0920
 2.0990	 7.1210
 2.1000	 7.1500
 2.1010	 7.1800
 2.1020	 7.2070
 2.1030	 7.2370
 2.1040	 7.2690
 2.1050	 7.3020
 2.1060	 7.3350
 2.1070	 7.3700
 2.1080	 7.3990
 2.1090	 7.4270
 2.1100	 7.4540
 2.1110	 7.4740
 2.1120	 7.5010
 2.1130	 7.5330
 2.1140	 7.5620
 2.1150	 7.5960
 2.1160	 7.6250
 2.1170	 7.6490
 2.1180	 7.6760
 2.1190	 7.7020
 2.1200	 7.7310
 2.1210	 7.7620
 2.1220	 7.7930
 2.1230	 7.8220
 2.1240	 7.8510
 2.1250	 7.8800
 2.1260	 7.9070
 2.1270	 7.9340
 2.1280	 7.9590
 2.1290	 7.9860
 2.1300	 8.0120
 2.1310	 8.0360
 2.1320	 8.0580
 2.1330	 8.0830
 2.1340	 8.1080
 2.1350	 8.1320
 2.1360	 8.1600
 2.1370	 8.1860
 2.1380	 8.2070
 2.1390	 8.2300
 2.1400	 8.2550
 2.1410	 8.2790
 2.1420	 8.3050
 2.1430	 8.3320
 2.1440	 8.3580
 2.1450	 8.3870
 2.1460	 8.4120
 2.1470	 8.4370
 2.1480	 8.4610
 2.1490	 8.4840
 2.1500	 8.5070
 2.1510	 8.5270
 2.1520	 8.5510
 2.1530	 8.5740
 2.1540	 8.5980
 2.1550	 8.6260
 2.1560	 8.6490
 2.1570	 8.6660
 2.1580	 8.6870
 2.1590	 8.7090
 2.1600	 8.7280
 2.1610	 8.7510
 2.1620	 8.7720
 2.1630	 8.7910
 2.1640	 8.8070
 2.1650	 8.8240
 2.1660	 8.8390
 2.1670	 8.8560
 2.1680	 8.8730
 2.1690	 8.8910
 2.1700	 8.9110
 2.1710	 8.9290
 2.1720	 8.9450
 2.1730	 8.9620
 2.1740	 8.9770
 2.1750	 8.9930
 2.1760	 9.0110
 2.1770	 9.0270
 2.1780	 9.0410
 2.1790	 9.0550
 2.1800	 9.0690
 2.1810	 9.0830
 2.1820	 9.0990
 2.1830	 9.1140
 2.1840	 9.1290
 2.1850	 9.1450
 2.1860	 9.1590
 2.1870	 9.1710
 2.1880	 9.1860
 2.1890	 9.2010
 2.1900	 9.2150
 2.1910	 9.2320
 2.1920	 9.2470
 2.1930	 9.2570
 2.1940	 9.2710
 2.1950	 9.2880
 2.1960	 9.3020
 2.1970	 9.3160
 2.1980	 9.3270
 2.1990	 9.3340
 2.2000	 9.3440
 2.2010	 9.3560
 2.2020	 9.3660
 2.2030	 9.3770
 2.2040	 9.3870
 2.2050	 9.3960
 2.2060	 9.4030
 2.2070	 9.4110
 2.2080	 9.4190
 2.2090	 9.4260
 2.2100	 9.4340
 2.2110	 9.4370
 2.2120	 9.4370
 2.2130	 9.4380
 2.2140	 9.4370
 2.2150	 9.4400
 2.2160	 9.4510
 2.2170	 9.4500
 2.2180	 9.4430
 2.2190	 9.4350
 2.2200	 9.4170
 2.2210	 9.4050
 2.2220	 9.3990
 2.2230	 9.3860
 2.2240	 9.3700
 2.2250	 9.3540
 2.2260	 9.3370
 2.2270	 9.3180
 2.2280	 9.3040
 2.2290	 9.2820
 2.2300	 9.2570
 2.2310	 9.2270
 2.2320	 9.1920
 2.2330	 9.1600
 2.2340	 9.1260
 2.2350	 9.0930
 2.2360	 9.0550
 2.2370	 9.0170
 2.2380	 8.9740
 2.2390	 8.9270
 2.2400	 8.8800
 2.2410	 8.8280
 2.2420	 8.7800
 2.2430	 8.7330
 2.2440	 8.6820
 2.2450	 8.6310
 2.2460	 8.5760
 2.2470	 8.5130
 2.2480	 8.4550
 2.2490	 8.3990
 2.2500	 8.3430
 2.2510	 8.2890
 2.2520	 8.2340
 2.2530	 8.1810
 2.2540	 8.1250
 2.2550	 8.0660
 2.2560	 8.0100
 2.2570	 7.9550
 2.2580	 7.9000
 2.2590	 7.8490
 2.2600	 7.7990
 2.2610	 7.7480
 2.2620	 7.6970
 2.2630	 7.6460
 2.2640	 7.5960
 2.2650	 7.5480
 2.2660	 7.5020
 2.2670	 7.4610
 2.2680	 7.4240
 2.2690	 7.3850
 2.2700	 7.3490
 2.2710	 7.3100
 2.2720	 7.2700
 2.2730	 7.2330
 2.2740	 7.1940
 2.2750	 7.1620
 2.2760	 7.1340
 2.2770	 7.1060
 2.2780	 7.0810
 2.2790	 7.0550
 2.2800	 7.0270
 2.2810	 7.0000
 2.2820	 6.9750
 2.2830	 6.9490
 2.2840	 6.9250
 2.2850	 6.8980
 2.2860	 6.8670
 2.2870	 6.8370
 2.2880	 6.8040
 2.2890	 6.7700
 2.2900	 6.7410
 2.2910	 6.7050
 2.2920	 6.6640
 2.2930	 6.6250
 2.2940	 6.5800
 2.2950	 6.5390
 2.2960	 6.5020
 2.2970	 6.4640
 2.2980	 6.4270
 2.2990	 6.3880
 2.3000	 6.3470
 2.3010	 6.3120
 2.3020	 6.2810
 2.3030	 6.2560
 2.3040	 6.2350
 2.3050	 6.2070
 2.3060	 6.1780
 2.3070	 6.1530
 2.3080	 6.1290
 2.3090	 6.1090
 2.3100	 6.0960
 2.3110	 6.0830
 2.3120	 6.0720
 2.3130	 6.0660
 2.3140	 6.0570
 2.3150	 6.0470
 2.3160	 6.0390
 2.3170	 6.0290
 2.3180	 6.0210
 2.3190	 6.0160
 2.3200	 6.0080
 2.3210	 6.0000
 2.3220	 5.9900
 2.3230	 5.9810
 2.3240	 5.9700
 2.3250	 5.9580
 2.3260	 5.9420
 2.3270	 5.9180
 2.3280	 5.9000
 2.3290	 5.8820
 2.3300	 5.8620
 2.3310	 5.8480
 2.3320	 5.8260
 2.3330	 5.7950
 2.3340	 5.7700
 2.3350	 5.7400
 2.3360	 5.7170
 2.3370	 5.7020
 2.3380	 5.6800
 2.3390	 5.6630
 2.3400	 5.6390
 2.3410	 5.6060
 2.3420	 5.5790
 2.3430	 5.5540
 2.3440	 5.5270
 2.3450	 5.5060
 2.3460	 5.4800
 2.3470	 5.4440
 2.3480	 5.4170
 2.3490	 5.3900
 2.3500	 5.3660
 2.3510	 5.3490
 2.3520	 5.3330
 2.3530	 5.3180
 2.3540	 5.3090
 2.3550	 5.2930
 2.3560	 5.2830
 2.3570	 5.2710
 2.3580	 5.2520
 2.3590	 5.2390
 2.3600	 5.2210
 2.3610	 5.1990
 2.3620	 5.1810
 2.3630	 5.1660
 2.3640	 5.1460
 2.3650	 5.1240
 2.3660	 5.0990
 2.3670	 5.0780
 2.3680	 5.0630
 2.3690	 5.0510
 2.3700	 5.0430
 2.3710	 5.0290
 2.3720	 5.0130
 2.3730	 4.9940
 2.3740	 4.9650
 2.3750	 4.9390
 2.3760	 4.9170
 2.3770	 4.8930
 2.3780	 4.8760
 2.3790	 4.8570
 2.3800	 4.8280
 2.3810	 4.8010
 2.3820	 4.7760
 2.3830	 4.7570
 2.3840	 4.7420
 2.3850	 4.7330
 2.3860	 4.7200
 2.3870	 4.6910
 2.3880	 4.6620
 2.3890	 4.6310
 2.3900	 4.6120
 2.3910	 4.6110
 2.3920	 4.5960
 2.3930	 4.5740
 2.3940	 4.5470
 2.3950	 4.5190
 2.3960	 4.4980
 2.3970	 4.4780
 2.3980	 4.4510
 2.3990	 4.4150
 2.4000	 4.3860
 2.4010	 4.3570
 2.4020	 4.3330
 2.4030	 4.3150
 2.4040	 4.2880
 2.4050	 4.2700
 2.4060	 4.2560
 2.4070	 4.2330
 2.4080	 4.2110
 2.4090	 4.1790
 2.4100	 4.1540
 2.4110	 4.1500
 2.4120	 4.1410
 2.4130	 4.1260
 2.4140	 4.1050
 2.4150	 4.0660
 2.4160	 4.0330
 2.4170	 4.0100
 2.4180	 3.9860
 2.4190	 3.9630
 2.4200	 3.9360
 2.4210	 3.9130
 2.4220	 3.8900
 2.4230	 3.8710
 2.4240	 3.8600
 2.4250	 3.8390
 2.4260	 3.8180
 2.4270	 3.7870
 2.4280	 3.7550
 2.4290	 3.7310
 2.4300	 3.7100
 2.4310	 3.6880
 2.4320	 3.6640
 2.4330	 3.6500
 2.4340	 3.6340
 2.4350	 3.6210
 2.4360	 3.6140
 2.4370	 3.5890
 2.4380	 3.5620
 2.4390	 3.5540
 2.4400	 3.5500
 2.4410	 3.5330
 2.4420	 3.4990
 2.4430	 3.4460
 2.4440	 3.4040
 2.4450	 3.3800
 2.4460	 3.3660
 2.4470	 3.3860
 2.4480	 3.3820
 2.4490	 3.3570
 2.4500	 3.3420
 2.4510	 3.3050
 2.4520	 3.2520
 2.4530	 3.2200
 2.4540	 3.2000
 2.4550	 3.1810
 2.4560	 3.1920
 2.4570	 3.2110
 2.4580	 3.2250
 2.4590	 3.2250
 2.4600	 3.2070
 2.4610	 3.1840
 2.4620	 3.1330
 2.4630	 3.0940
 2.4640	 3.0860
 2.4650	 3.0710
 2.4660	 3.0520
 2.4670	 3.0300
 2.4680	 3.0110
 2.4690	 2.9900
 2.4700	 2.9780
 2.4710	 2.9990
 2.4720	 2.9890
 2.4730	 2.9530
 2.4740	 2.9460
 2.4750	 2.9470
 2.4760	 2.9300
 2.4770	 2.9250
 2.4780	 2.9140
 2.4790	 2.8710
 2.4800	 2.8560
 2.4810	 2.8620
 2.4820	 2.8370
 2.4830	 2.8340
 2.4840	 2.8240
 2.4850	 2.8440
 2.4860	 2.8360
 2.4870	 2.8150
 2.4880	 2.8200
 2.4890	 2.7820
 2.4900	 2.7550
 2.4910	 2.7690
 2.4920	 2.7850
 2.4930	 2.7880
 2.4940	 2.8200
 2.4950	 2.8630
 2.4960	 2.8250
 2.4970	 2.8020
 2.4980	 2.8360
 2.4990	 2.8450
 2.5000	 2.8880
