Name: Arctostaphylos glandulosa 2
Type: vegetation
Class: Shrub
Genus: Arctostaphylos
Species: glandulosa
Sample No.: VH248
Owner: UCSB
Wavelength Range: VSWIR
Origin: 37.0441; -119.3033; WGS84
Collection Date: 11/2/2013
Description: Samples were collected as part of the HyspIRI Airborne Campaign. 48 individual plants were sampled in three times in 2013 - spring  summer  and fall. The name of the sample includes a 1  2  or 3 which references a different individual of the species. Samples were taken to JPL and processed within 48 hours of collection. The same leaves were processed in the Nicolet and then measured using the ASD.
Measurement: Bidirectional reflectance
First Column: X
Second Column: Y
X Units: Wavelength (micrometers)
Y Units: Reflectance (percentage)
First X Value: 0.35
Last X Value: 2.5
Number of X Values: 2151
Additional Information: vegetation.shrub.arctostaphylos.glandulosa.vswir.vh248.ucsb.asd.ancillary.txt

 0.3500	 4.4620
 0.3510	 4.2180
 0.3520	 4.2520
 0.3530	 4.2300
 0.3540	 3.9530
 0.3550	 4.0100
 0.3560	 4.0600
 0.3570	 4.0030
 0.3580	 3.8920
 0.3590	 3.9470
 0.3600	 3.9650
 0.3610	 3.8800
 0.3620	 3.8650
 0.3630	 3.9100
 0.3640	 3.9210
 0.3650	 3.8410
 0.3660	 3.8340
 0.3670	 3.8680
 0.3680	 3.8810
 0.3690	 3.8080
 0.3700	 3.7550
 0.3710	 3.7780
 0.3720	 3.8580
 0.3730	 3.8670
 0.3740	 3.8830
 0.3750	 3.8750
 0.3760	 3.8110
 0.3770	 3.7930
 0.3780	 3.8230
 0.3790	 3.8520
 0.3800	 3.8080
 0.3810	 3.7940
 0.3820	 3.7880
 0.3830	 3.7770
 0.3840	 3.8360
 0.3850	 3.8230
 0.3860	 3.7890
 0.3870	 3.8310
 0.3880	 3.8290
 0.3890	 3.8300
 0.3900	 3.8480
 0.3910	 3.8480
 0.3920	 3.8440
 0.3930	 3.8570
 0.3940	 3.8940
 0.3950	 3.9300
 0.3960	 3.9800
 0.3970	 4.0220
 0.3980	 4.0210
 0.3990	 4.0000
 0.4000	 4.0190
 0.4010	 4.0900
 0.4020	 4.1640
 0.4030	 4.1940
 0.4040	 4.2130
 0.4050	 4.2660
 0.4060	 4.3420
 0.4070	 4.4020
 0.4080	 4.4480
 0.4090	 4.5060
 0.4100	 4.5580
 0.4110	 4.6070
 0.4120	 4.6590
 0.4130	 4.7300
 0.4140	 4.7890
 0.4150	 4.8440
 0.4160	 4.9110
 0.4170	 4.9660
 0.4180	 5.0130
 0.4190	 5.0580
 0.4200	 5.1080
 0.4210	 5.1540
 0.4220	 5.2070
 0.4230	 5.2660
 0.4240	 5.2910
 0.4250	 5.3310
 0.4260	 5.3760
 0.4270	 5.3970
 0.4280	 5.4350
 0.4290	 5.4660
 0.4300	 5.4880
 0.4310	 5.5410
 0.4320	 5.5620
 0.4330	 5.5680
 0.4340	 5.5880
 0.4350	 5.6140
 0.4360	 5.6430
 0.4370	 5.6690
 0.4380	 5.6860
 0.4390	 5.6990
 0.4400	 5.7140
 0.4410	 5.7360
 0.4420	 5.7630
 0.4430	 5.7840
 0.4440	 5.8020
 0.4450	 5.8280
 0.4460	 5.8620
 0.4470	 5.9020
 0.4480	 5.9420
 0.4490	 5.9700
 0.4500	 5.9980
 0.4510	 6.0320
 0.4520	 6.0690
 0.4530	 6.0890
 0.4540	 6.1070
 0.4550	 6.1270
 0.4560	 6.1490
 0.4570	 6.1880
 0.4580	 6.2100
 0.4590	 6.2060
 0.4600	 6.2200
 0.4610	 6.2390
 0.4620	 6.2490
 0.4630	 6.2440
 0.4640	 6.2580
 0.4650	 6.2660
 0.4660	 6.2570
 0.4670	 6.2510
 0.4680	 6.2670
 0.4690	 6.2810
 0.4700	 6.2760
 0.4710	 6.2830
 0.4720	 6.2920
 0.4730	 6.3000
 0.4740	 6.3050
 0.4750	 6.3150
 0.4760	 6.3220
 0.4770	 6.3260
 0.4780	 6.3430
 0.4790	 6.3440
 0.4800	 6.3390
 0.4810	 6.3470
 0.4820	 6.3660
 0.4830	 6.3830
 0.4840	 6.3980
 0.4850	 6.4140
 0.4860	 6.4290
 0.4870	 6.4480
 0.4880	 6.4730
 0.4890	 6.5010
 0.4900	 6.5350
 0.4910	 6.5740
 0.4920	 6.6140
 0.4930	 6.6680
 0.4940	 6.7320
 0.4950	 6.8000
 0.4960	 6.8700
 0.4970	 6.9450
 0.4980	 7.0330
 0.4990	 7.1410
 0.5000	 7.2570
 0.5010	 7.3820
 0.5020	 7.5150
 0.5030	 7.6600
 0.5040	 7.8230
 0.5050	 8.0040
 0.5060	 8.2010
 0.5070	 8.4120
 0.5080	 8.6370
 0.5090	 8.8800
 0.5100	 9.1450
 0.5110	 9.4270
 0.5120	 9.7190
 0.5130	10.0270
 0.5140	10.3640
 0.5150	10.7060
 0.5160	11.0540
 0.5170	11.4130
 0.5180	11.7830
 0.5190	12.1600
 0.5200	12.5370
 0.5210	12.9060
 0.5220	13.2670
 0.5230	13.6210
 0.5240	13.9640
 0.5250	14.2920
 0.5260	14.6020
 0.5270	14.8900
 0.5280	15.1550
 0.5290	15.4050
 0.5300	15.6340
 0.5310	15.8420
 0.5320	16.0350
 0.5330	16.2050
 0.5340	16.3580
 0.5350	16.4990
 0.5360	16.6170
 0.5370	16.7220
 0.5380	16.8190
 0.5390	16.9080
 0.5400	16.9830
 0.5410	17.0550
 0.5420	17.1280
 0.5430	17.1910
 0.5440	17.2600
 0.5450	17.3310
 0.5460	17.3950
 0.5470	17.4440
 0.5480	17.4850
 0.5490	17.5210
 0.5500	17.5560
 0.5510	17.5850
 0.5520	17.6020
 0.5530	17.6000
 0.5540	17.5820
 0.5550	17.5460
 0.5560	17.4900
 0.5570	17.4150
 0.5580	17.3210
 0.5590	17.2150
 0.5600	17.0960
 0.5610	16.9590
 0.5620	16.8070
 0.5630	16.6460
 0.5640	16.4780
 0.5650	16.2940
 0.5660	16.1030
 0.5670	15.9060
 0.5680	15.6980
 0.5690	15.4770
 0.5700	15.2500
 0.5710	15.0270
 0.5720	14.8220
 0.5730	14.6230
 0.5740	14.4280
 0.5750	14.2400
 0.5760	14.0600
 0.5770	13.8950
 0.5780	13.7460
 0.5790	13.6040
 0.5800	13.4640
 0.5810	13.3300
 0.5820	13.2130
 0.5830	13.1020
 0.5840	12.9940
 0.5850	12.8900
 0.5860	12.7930
 0.5870	12.7040
 0.5880	12.6190
 0.5890	12.5320
 0.5900	12.4430
 0.5910	12.3670
 0.5920	12.3050
 0.5930	12.2520
 0.5940	12.2040
 0.5950	12.1590
 0.5960	12.1140
 0.5970	12.0650
 0.5980	12.0170
 0.5990	11.9690
 0.6000	11.9170
 0.6010	11.8630
 0.6020	11.8040
 0.6030	11.7370
 0.6040	11.6610
 0.6050	11.5800
 0.6060	11.4920
 0.6070	11.3970
 0.6080	11.2970
 0.6090	11.1920
 0.6100	11.0840
 0.6110	10.9760
 0.6120	10.8680
 0.6130	10.7570
 0.6140	10.6440
 0.6150	10.5350
 0.6160	10.4300
 0.6170	10.3330
 0.6180	10.2440
 0.6190	10.1610
 0.6200	10.0850
 0.6210	10.0200
 0.6220	 9.9680
 0.6230	 9.9220
 0.6240	 9.8810
 0.6250	 9.8470
 0.6260	 9.8280
 0.6270	 9.8090
 0.6280	 9.7910
 0.6290	 9.7840
 0.6300	 9.7770
 0.6310	 9.7690
 0.6320	 9.7520
 0.6330	 9.7220
 0.6340	 9.6850
 0.6350	 9.6380
 0.6360	 9.5730
 0.6370	 9.4860
 0.6380	 9.3870
 0.6390	 9.2760
 0.6400	 9.1480
 0.6410	 9.0140
 0.6420	 8.8720
 0.6430	 8.7240
 0.6440	 8.5740
 0.6450	 8.4250
 0.6460	 8.2810
 0.6470	 8.1460
 0.6480	 8.0210
 0.6490	 7.9090
 0.6500	 7.8140
 0.6510	 7.7350
 0.6520	 7.6640
 0.6530	 7.6000
 0.6540	 7.5390
 0.6550	 7.4770
 0.6560	 7.4100
 0.6570	 7.3310
 0.6580	 7.2370
 0.6590	 7.1440
 0.6600	 7.0430
 0.6610	 6.9360
 0.6620	 6.8300
 0.6630	 6.7270
 0.6640	 6.6310
 0.6650	 6.5430
 0.6660	 6.4640
 0.6670	 6.3960
 0.6680	 6.3410
 0.6690	 6.2950
 0.6700	 6.2600
 0.6710	 6.2370
 0.6720	 6.2240
 0.6730	 6.2200
 0.6740	 6.2220
 0.6750	 6.2310
 0.6760	 6.2460
 0.6770	 6.2740
 0.6780	 6.3080
 0.6790	 6.3500
 0.6800	 6.4090
 0.6810	 6.4790
 0.6820	 6.5650
 0.6830	 6.6720
 0.6840	 6.8080
 0.6850	 6.9760
 0.6860	 7.1860
 0.6870	 7.4480
 0.6880	 7.7690
 0.6890	 8.1680
 0.6900	 8.6480
 0.6910	 9.2120
 0.6920	 9.8720
 0.6930	10.6250
 0.6940	11.4660
 0.6950	12.3900
 0.6960	13.3870
 0.6970	14.4490
 0.6980	15.5660
 0.6990	16.7340
 0.7000	17.9390
 0.7010	19.1740
 0.7020	20.4290
 0.7030	21.6950
 0.7040	22.9660
 0.7050	24.2370
 0.7060	25.5100
 0.7070	26.7710
 0.7080	28.0210
 0.7090	29.2670
 0.7100	30.5080
 0.7110	31.7440
 0.7120	32.9720
 0.7130	34.1840
 0.7140	35.3840
 0.7150	36.5730
 0.7160	37.7520
 0.7170	38.9120
 0.7180	40.0590
 0.7190	41.1850
 0.7200	42.2800
 0.7210	43.3610
 0.7220	44.4180
 0.7230	45.4450
 0.7240	46.4460
 0.7250	47.4140
 0.7260	48.3420
 0.7270	49.2280
 0.7280	50.0790
 0.7290	50.8890
 0.7300	51.6560
 0.7310	52.3850
 0.7320	53.0920
 0.7330	53.7520
 0.7340	54.3660
 0.7350	54.9660
 0.7360	55.5190
 0.7370	56.0290
 0.7380	56.5100
 0.7390	56.9780
 0.7400	57.4090
 0.7410	57.8000
 0.7420	58.1620
 0.7430	58.5040
 0.7440	58.8120
 0.7450	59.0880
 0.7460	59.3560
 0.7470	59.6010
 0.7480	59.8210
 0.7490	60.0190
 0.7500	60.2000
 0.7510	60.3550
 0.7520	60.4950
 0.7530	60.6350
 0.7540	60.7430
 0.7550	60.8500
 0.7560	60.9570
 0.7570	61.0390
 0.7580	61.1060
 0.7590	61.1700
 0.7600	61.2330
 0.7610	61.2800
 0.7620	61.3310
 0.7630	61.3780
 0.7640	61.4120
 0.7650	61.4360
 0.7660	61.4560
 0.7670	61.4760
 0.7680	61.4990
 0.7690	61.5170
 0.7700	61.5340
 0.7710	61.5490
 0.7720	61.5520
 0.7730	61.5570
 0.7740	61.5640
 0.7750	61.5700
 0.7760	61.5790
 0.7770	61.5880
 0.7780	61.5970
 0.7790	61.6030
 0.7800	61.6110
 0.7810	61.6140
 0.7820	61.6130
 0.7830	61.6180
 0.7840	61.6300
 0.7850	61.6450
 0.7860	61.6570
 0.7870	61.6610
 0.7880	61.6630
 0.7890	61.6650
 0.7900	61.6680
 0.7910	61.6840
 0.7920	61.6960
 0.7930	61.6960
 0.7940	61.6930
 0.7950	61.7030
 0.7960	61.7170
 0.7970	61.7260
 0.7980	61.7340
 0.7990	61.7370
 0.8000	61.7380
 0.8010	61.7450
 0.8020	61.7620
 0.8030	61.7720
 0.8040	61.7770
 0.8050	61.7850
 0.8060	61.7890
 0.8070	61.7970
 0.8080	61.8070
 0.8090	61.8100
 0.8100	61.8180
 0.8110	61.8270
 0.8120	61.8370
 0.8130	61.8470
 0.8140	61.8510
 0.8150	61.8550
 0.8160	61.8690
 0.8170	61.8870
 0.8180	61.8940
 0.8190	61.8970
 0.8200	61.9140
 0.8210	61.9130
 0.8220	61.9160
 0.8230	61.9270
 0.8240	61.9350
 0.8250	61.9470
 0.8260	61.9570
 0.8270	61.9580
 0.8280	61.9590
 0.8290	61.9760
 0.8300	61.9920
 0.8310	61.9920
 0.8320	61.9860
 0.8330	61.9870
 0.8340	61.9930
 0.8350	61.9960
 0.8360	62.0140
 0.8370	62.0220
 0.8380	62.0240
 0.8390	62.0410
 0.8400	62.0570
 0.8410	62.0700
 0.8420	62.0820
 0.8430	62.1040
 0.8440	62.1180
 0.8450	62.1270
 0.8460	62.1350
 0.8470	62.1410
 0.8480	62.1580
 0.8490	62.1780
 0.8500	62.1900
 0.8510	62.1910
 0.8520	62.2000
 0.8530	62.2120
 0.8540	62.2170
 0.8550	62.2280
 0.8560	62.2400
 0.8570	62.2510
 0.8580	62.2620
 0.8590	62.2710
 0.8600	62.2690
 0.8610	62.2620
 0.8620	62.2800
 0.8630	62.2870
 0.8640	62.2910
 0.8650	62.3040
 0.8660	62.3100
 0.8670	62.3110
 0.8680	62.3070
 0.8690	62.3030
 0.8700	62.3100
 0.8710	62.3170
 0.8720	62.3170
 0.8730	62.3120
 0.8740	62.3280
 0.8750	62.3380
 0.8760	62.3320
 0.8770	62.3180
 0.8780	62.3120
 0.8790	62.3070
 0.8800	62.3020
 0.8810	62.3140
 0.8820	62.3000
 0.8830	62.2840
 0.8840	62.2860
 0.8850	62.2950
 0.8860	62.2870
 0.8870	62.2660
 0.8880	62.2490
 0.8890	62.2430
 0.8900	62.2510
 0.8910	62.2590
 0.8920	62.2500
 0.8930	62.2320
 0.8940	62.2050
 0.8950	62.1900
 0.8960	62.2060
 0.8970	62.2000
 0.8980	62.1730
 0.8990	62.1470
 0.9000	62.1500
 0.9010	62.1380
 0.9020	62.1320
 0.9030	62.1340
 0.9040	62.1090
 0.9050	62.0930
 0.9060	62.0840
 0.9070	62.0740
 0.9080	62.0600
 0.9090	62.0310
 0.9100	62.0090
 0.9110	62.0090
 0.9120	62.0040
 0.9130	61.9950
 0.9140	61.9810
 0.9150	61.9660
 0.9160	61.9510
 0.9170	61.9210
 0.9180	61.8920
 0.9190	61.8810
 0.9200	61.8670
 0.9210	61.8470
 0.9220	61.8260
 0.9230	61.8040
 0.9240	61.7640
 0.9250	61.7430
 0.9260	61.7340
 0.9270	61.7010
 0.9280	61.6620
 0.9290	61.6320
 0.9300	61.6100
 0.9310	61.5790
 0.9320	61.5310
 0.9330	61.4880
 0.9340	61.4550
 0.9350	61.4050
 0.9360	61.3740
 0.9370	61.3460
 0.9380	61.3050
 0.9390	61.2450
 0.9400	61.1950
 0.9410	61.1470
 0.9420	61.0910
 0.9430	61.0240
 0.9440	60.9600
 0.9450	60.8950
 0.9460	60.8240
 0.9470	60.7490
 0.9480	60.6720
 0.9490	60.5870
 0.9500	60.4870
 0.9510	60.3690
 0.9520	60.2500
 0.9530	60.1430
 0.9540	60.0470
 0.9550	59.9240
 0.9560	59.8080
 0.9570	59.7060
 0.9580	59.6110
 0.9590	59.5160
 0.9600	59.4170
 0.9610	59.3280
 0.9620	59.2610
 0.9630	59.1950
 0.9640	59.1380
 0.9650	59.0910
 0.9660	59.0540
 0.9670	59.0210
 0.9680	58.9880
 0.9690	58.9580
 0.9700	58.9390
 0.9710	58.9330
 0.9720	58.9160
 0.9730	58.8950
 0.9740	58.8900
 0.9750	58.8900
 0.9760	58.8750
 0.9770	58.8510
 0.9780	58.8410
 0.9790	58.8650
 0.9800	58.8790
 0.9810	58.8860
 0.9820	58.9070
 0.9830	58.9410
 0.9840	58.9530
 0.9850	58.9610
 0.9860	58.9940
 0.9870	59.0260
 0.9880	59.0540
 0.9890	59.0800
 0.9900	59.1090
 0.9910	59.1560
 0.9920	59.1970
 0.9930	59.2300
 0.9940	59.2640
 0.9950	59.3080
 0.9960	59.3620
 0.9970	59.4240
 0.9980	59.4820
 0.9990	59.5020
 1.0000	59.6140
 1.0010	59.7420
 1.0020	59.8460
 1.0030	59.8890
 1.0040	59.9290
 1.0050	59.9760
 1.0060	60.0310
 1.0070	60.0820
 1.0080	60.1330
 1.0090	60.1840
 1.0100	60.2310
 1.0110	60.2710
 1.0120	60.3180
 1.0130	60.3620
 1.0140	60.4090
 1.0150	60.4640
 1.0160	60.5150
 1.0170	60.5600
 1.0180	60.6100
 1.0190	60.6570
 1.0200	60.7000
 1.0210	60.7450
 1.0220	60.7910
 1.0230	60.8380
 1.0240	60.8870
 1.0250	60.9300
 1.0260	60.9700
 1.0270	61.0130
 1.0280	61.0550
 1.0290	61.0960
 1.0300	61.1430
 1.0310	61.1830
 1.0320	61.2190
 1.0330	61.2500
 1.0340	61.2820
 1.0350	61.3150
 1.0360	61.3510
 1.0370	61.3900
 1.0380	61.4280
 1.0390	61.4700
 1.0400	61.5040
 1.0410	61.5330
 1.0420	61.5640
 1.0430	61.5930
 1.0440	61.6210
 1.0450	61.6500
 1.0460	61.6760
 1.0470	61.6980
 1.0480	61.7210
 1.0490	61.7450
 1.0500	61.7650
 1.0510	61.7820
 1.0520	61.8010
 1.0530	61.8210
 1.0540	61.8400
 1.0550	61.8570
 1.0560	61.8760
 1.0570	61.8940
 1.0580	61.9080
 1.0590	61.9220
 1.0600	61.9370
 1.0610	61.9500
 1.0620	61.9610
 1.0630	61.9710
 1.0640	61.9800
 1.0650	61.9880
 1.0660	61.9930
 1.0670	62.0000
 1.0680	62.0070
 1.0690	62.0160
 1.0700	62.0220
 1.0710	62.0270
 1.0720	62.0330
 1.0730	62.0370
 1.0740	62.0390
 1.0750	62.0400
 1.0760	62.0410
 1.0770	62.0410
 1.0780	62.0400
 1.0790	62.0410
 1.0800	62.0380
 1.0810	62.0290
 1.0820	62.0210
 1.0830	62.0150
 1.0840	62.0050
 1.0850	61.9930
 1.0860	61.9790
 1.0870	61.9640
 1.0880	61.9460
 1.0890	61.9290
 1.0900	61.9140
 1.0910	61.8970
 1.0920	61.8770
 1.0930	61.8580
 1.0940	61.8390
 1.0950	61.8180
 1.0960	61.7960
 1.0970	61.7740
 1.0980	61.7500
 1.0990	61.7270
 1.1000	61.7060
 1.1010	61.6810
 1.1020	61.6530
 1.1030	61.6240
 1.1040	61.5950
 1.1050	61.5660
 1.1060	61.5360
 1.1070	61.5070
 1.1080	61.4770
 1.1090	61.4460
 1.1100	61.4150
 1.1110	61.3850
 1.1120	61.3520
 1.1130	61.3190
 1.1140	61.2800
 1.1150	61.2370
 1.1160	61.1920
 1.1170	61.1420
 1.1180	61.0880
 1.1190	61.0320
 1.1200	60.9710
 1.1210	60.9090
 1.1220	60.8400
 1.1230	60.7620
 1.1240	60.6770
 1.1250	60.5790
 1.1260	60.4700
 1.1270	60.3520
 1.1280	60.2260
 1.1290	60.0880
 1.1300	59.9410
 1.1310	59.7800
 1.1320	59.6080
 1.1330	59.4240
 1.1340	59.2260
 1.1350	59.0170
 1.1360	58.7950
 1.1370	58.5610
 1.1380	58.3160
 1.1390	58.0660
 1.1400	57.8050
 1.1410	57.5420
 1.1420	57.2770
 1.1430	57.0080
 1.1440	56.7420
 1.1450	56.4720
 1.1460	56.2140
 1.1470	55.9560
 1.1480	55.7100
 1.1490	55.4700
 1.1500	55.2460
 1.1510	55.0280
 1.1520	54.8280
 1.1530	54.6430
 1.1540	54.4700
 1.1550	54.3110
 1.1560	54.1650
 1.1570	54.0300
 1.1580	53.9110
 1.1590	53.8010
 1.1600	53.7020
 1.1610	53.6150
 1.1620	53.5350
 1.1630	53.4620
 1.1640	53.3960
 1.1650	53.3350
 1.1660	53.2790
 1.1670	53.2290
 1.1680	53.1860
 1.1690	53.1450
 1.1700	53.1130
 1.1710	53.0760
 1.1720	53.0410
 1.1730	53.0040
 1.1740	52.9660
 1.1750	52.9260
 1.1760	52.8850
 1.1770	52.8460
 1.1780	52.8070
 1.1790	52.7650
 1.1800	52.7200
 1.1810	52.6760
 1.1820	52.6300
 1.1830	52.5830
 1.1840	52.5370
 1.1850	52.4890
 1.1860	52.4420
 1.1870	52.3970
 1.1880	52.3530
 1.1890	52.3120
 1.1900	52.2710
 1.1910	52.2290
 1.1920	52.1910
 1.1930	52.1530
 1.1940	52.1210
 1.1950	52.0920
 1.1960	52.0680
 1.1970	52.0470
 1.1980	52.0310
 1.1990	52.0180
 1.2000	52.0090
 1.2010	52.0060
 1.2020	52.0070
 1.2030	52.0170
 1.2040	52.0310
 1.2050	52.0490
 1.2060	52.0730
 1.2070	52.1010
 1.2080	52.1340
 1.2090	52.1720
 1.2100	52.2150
 1.2110	52.2630
 1.2120	52.3180
 1.2130	52.3760
 1.2140	52.4380
 1.2150	52.5050
 1.2160	52.5770
 1.2170	52.6490
 1.2180	52.7260
 1.2190	52.8060
 1.2200	52.8850
 1.2210	52.9690
 1.2220	53.0550
 1.2230	53.1380
 1.2240	53.2240
 1.2250	53.3030
 1.2260	53.3790
 1.2270	53.4580
 1.2280	53.5320
 1.2290	53.6060
 1.2300	53.6800
 1.2310	53.7490
 1.2320	53.8170
 1.2330	53.8830
 1.2340	53.9450
 1.2350	54.0040
 1.2360	54.0620
 1.2370	54.1160
 1.2380	54.1710
 1.2390	54.2240
 1.2400	54.2760
 1.2410	54.3270
 1.2420	54.3740
 1.2430	54.4180
 1.2440	54.4610
 1.2450	54.5000
 1.2460	54.5390
 1.2470	54.5770
 1.2480	54.6140
 1.2490	54.6510
 1.2500	54.6860
 1.2510	54.7190
 1.2520	54.7510
 1.2530	54.7810
 1.2540	54.8100
 1.2550	54.8370
 1.2560	54.8620
 1.2570	54.8860
 1.2580	54.9060
 1.2590	54.9240
 1.2600	54.9420
 1.2610	54.9570
 1.2620	54.9700
 1.2630	54.9810
 1.2640	54.9900
 1.2650	54.9960
 1.2660	55.0010
 1.2670	55.0070
 1.2680	55.0100
 1.2690	55.0110
 1.2700	55.0130
 1.2710	55.0090
 1.2720	55.0030
 1.2730	54.9960
 1.2740	54.9850
 1.2750	54.9740
 1.2760	54.9610
 1.2770	54.9450
 1.2780	54.9260
 1.2790	54.9050
 1.2800	54.8830
 1.2810	54.8610
 1.2820	54.8340
 1.2830	54.8030
 1.2840	54.7700
 1.2850	54.7360
 1.2860	54.6980
 1.2870	54.6570
 1.2880	54.6140
 1.2890	54.5680
 1.2900	54.5190
 1.2910	54.4680
 1.2920	54.4150
 1.2930	54.3580
 1.2940	54.2950
 1.2950	54.2290
 1.2960	54.1610
 1.2970	54.0880
 1.2980	54.0120
 1.2990	53.9320
 1.3000	53.8460
 1.3010	53.7550
 1.3020	53.6590
 1.3030	53.5580
 1.3040	53.4530
 1.3050	53.3470
 1.3060	53.2370
 1.3070	53.1210
 1.3080	53.0010
 1.3090	52.8760
 1.3100	52.7460
 1.3110	52.6110
 1.3120	52.4690
 1.3130	52.3210
 1.3140	52.1680
 1.3150	52.0100
 1.3160	51.8500
 1.3170	51.6870
 1.3180	51.5170
 1.3190	51.3430
 1.3200	51.1610
 1.3210	50.9700
 1.3220	50.7800
 1.3230	50.5870
 1.3240	50.3890
 1.3250	50.1950
 1.3260	49.9950
 1.3270	49.7880
 1.3280	49.5790
 1.3290	49.3610
 1.3300	49.1420
 1.3310	48.9230
 1.3320	48.6990
 1.3330	48.4760
 1.3340	48.2520
 1.3350	48.0270
 1.3360	47.8060
 1.3370	47.5840
 1.3380	47.3640
 1.3390	47.1450
 1.3400	46.9240
 1.3410	46.7080
 1.3420	46.4930
 1.3430	46.2800
 1.3440	46.0690
 1.3450	45.8620
 1.3460	45.6560
 1.3470	45.4550
 1.3480	45.2570
 1.3490	45.0620
 1.3500	44.8710
 1.3510	44.6810
 1.3520	44.4920
 1.3530	44.3070
 1.3540	44.1230
 1.3550	43.9400
 1.3560	43.7560
 1.3570	43.5680
 1.3580	43.3810
 1.3590	43.1900
 1.3600	42.9950
 1.3610	42.7970
 1.3620	42.5910
 1.3630	42.3760
 1.3640	42.1520
 1.3650	41.9180
 1.3660	41.6760
 1.3670	41.4240
 1.3680	41.1620
 1.3690	40.8860
 1.3700	40.5940
 1.3710	40.2880
 1.3720	39.9660
 1.3730	39.6240
 1.3740	39.2680
 1.3750	38.8910
 1.3760	38.4910
 1.3770	38.0680
 1.3780	37.6170
 1.3790	37.1450
 1.3800	36.6500
 1.3810	36.1260
 1.3820	35.5860
 1.3830	35.0240
 1.3840	34.4450
 1.3850	33.8450
 1.3860	33.2350
 1.3870	32.6050
 1.3880	31.9750
 1.3890	31.3350
 1.3900	30.6880
 1.3910	30.0480
 1.3920	29.4060
 1.3930	28.7650
 1.3940	28.1330
 1.3950	27.5030
 1.3960	26.8850
 1.3970	26.2830
 1.3980	25.6940
 1.3990	25.1290
 1.4000	24.5790
 1.4010	24.0460
 1.4020	23.5380
 1.4030	23.0470
 1.4040	22.5800
 1.4050	22.1370
 1.4060	21.7140
 1.4070	21.3190
 1.4080	20.9450
 1.4090	20.5910
 1.4100	20.2620
 1.4110	19.9510
 1.4120	19.6600
 1.4130	19.3900
 1.4140	19.1390
 1.4150	18.9090
 1.4160	18.6950
 1.4170	18.4960
 1.4180	18.3120
 1.4190	18.1400
 1.4200	17.9820
 1.4210	17.8380
 1.4220	17.7060
 1.4230	17.5850
 1.4240	17.4750
 1.4250	17.3720
 1.4260	17.2810
 1.4270	17.1960
 1.4280	17.1200
 1.4290	17.0510
 1.4300	16.9900
 1.4310	16.9350
 1.4320	16.8870
 1.4330	16.8450
 1.4340	16.8090
 1.4350	16.7780
 1.4360	16.7530
 1.4370	16.7330
 1.4380	16.7160
 1.4390	16.7050
 1.4400	16.6960
 1.4410	16.6920
 1.4420	16.6920
 1.4430	16.6940
 1.4440	16.6990
 1.4450	16.7070
 1.4460	16.7170
 1.4470	16.7290
 1.4480	16.7420
 1.4490	16.7570
 1.4500	16.7730
 1.4510	16.7890
 1.4520	16.8080
 1.4530	16.8270
 1.4540	16.8490
 1.4550	16.8750
 1.4560	16.9020
 1.4570	16.9330
 1.4580	16.9660
 1.4590	17.0030
 1.4600	17.0430
 1.4610	17.0860
 1.4620	17.1340
 1.4630	17.1880
 1.4640	17.2440
 1.4650	17.3050
 1.4660	17.3720
 1.4670	17.4420
 1.4680	17.5180
 1.4690	17.5990
 1.4700	17.6840
 1.4710	17.7740
 1.4720	17.8670
 1.4730	17.9630
 1.4740	18.0640
 1.4750	18.1670
 1.4760	18.2740
 1.4770	18.3820
 1.4780	18.4930
 1.4790	18.6070
 1.4800	18.7230
 1.4810	18.8410
 1.4820	18.9610
 1.4830	19.0820
 1.4840	19.2050
 1.4850	19.3280
 1.4860	19.4520
 1.4870	19.5780
 1.4880	19.7050
 1.4890	19.8330
 1.4900	19.9630
 1.4910	20.0940
 1.4920	20.2250
 1.4930	20.3580
 1.4940	20.4910
 1.4950	20.6240
 1.4960	20.7560
 1.4970	20.8890
 1.4980	21.0220
 1.4990	21.1550
 1.5000	21.2890
 1.5010	21.4240
 1.5020	21.5590
 1.5030	21.6940
 1.5040	21.8280
 1.5050	21.9600
 1.5060	22.0940
 1.5070	22.2280
 1.5080	22.3610
 1.5090	22.4950
 1.5100	22.6270
 1.5110	22.7570
 1.5120	22.8880
 1.5130	23.0180
 1.5140	23.1480
 1.5150	23.2770
 1.5160	23.4050
 1.5170	23.5330
 1.5180	23.6590
 1.5190	23.7850
 1.5200	23.9120
 1.5210	24.0350
 1.5220	24.1580
 1.5230	24.2800
 1.5240	24.4000
 1.5250	24.5210
 1.5260	24.6400
 1.5270	24.7590
 1.5280	24.8770
 1.5290	24.9920
 1.5300	25.1090
 1.5310	25.2230
 1.5320	25.3360
 1.5330	25.4490
 1.5340	25.5600
 1.5350	25.6720
 1.5360	25.7840
 1.5370	25.8950
 1.5380	26.0050
 1.5390	26.1140
 1.5400	26.2210
 1.5410	26.3290
 1.5420	26.4370
 1.5430	26.5430
 1.5440	26.6490
 1.5450	26.7540
 1.5460	26.8570
 1.5470	26.9600
 1.5480	27.0640
 1.5490	27.1660
 1.5500	27.2690
 1.5510	27.3710
 1.5520	27.4700
 1.5530	27.5680
 1.5540	27.6650
 1.5550	27.7620
 1.5560	27.8590
 1.5570	27.9550
 1.5580	28.0490
 1.5590	28.1420
 1.5600	28.2360
 1.5610	28.3290
 1.5620	28.4210
 1.5630	28.5130
 1.5640	28.6020
 1.5650	28.6920
 1.5660	28.7810
 1.5670	28.8700
 1.5680	28.9590
 1.5690	29.0470
 1.5700	29.1330
 1.5710	29.2210
 1.5720	29.3070
 1.5730	29.3940
 1.5740	29.4820
 1.5750	29.5670
 1.5760	29.6510
 1.5770	29.7340
 1.5780	29.8160
 1.5790	29.8990
 1.5800	29.9810
 1.5810	30.0640
 1.5820	30.1480
 1.5830	30.2320
 1.5840	30.3160
 1.5850	30.3960
 1.5860	30.4760
 1.5870	30.5570
 1.5880	30.6370
 1.5890	30.7190
 1.5900	30.8000
 1.5910	30.8820
 1.5920	30.9640
 1.5930	31.0440
 1.5940	31.1250
 1.5950	31.2060
 1.5960	31.2860
 1.5970	31.3690
 1.5980	31.4500
 1.5990	31.5310
 1.6000	31.6110
 1.6010	31.6880
 1.6020	31.7660
 1.6030	31.8440
 1.6040	31.9200
 1.6050	31.9960
 1.6060	32.0710
 1.6070	32.1460
 1.6080	32.2200
 1.6090	32.2930
 1.6100	32.3640
 1.6110	32.4340
 1.6120	32.5040
 1.6130	32.5750
 1.6140	32.6460
 1.6150	32.7150
 1.6160	32.7820
 1.6170	32.8450
 1.6180	32.9080
 1.6190	32.9720
 1.6200	33.0330
 1.6210	33.0930
 1.6220	33.1510
 1.6230	33.2040
 1.6240	33.2560
 1.6250	33.3090
 1.6260	33.3600
 1.6270	33.4120
 1.6280	33.4650
 1.6290	33.5160
 1.6300	33.5660
 1.6310	33.6160
 1.6320	33.6660
 1.6330	33.7150
 1.6340	33.7650
 1.6350	33.8130
 1.6360	33.8610
 1.6370	33.9060
 1.6380	33.9500
 1.6390	33.9910
 1.6400	34.0320
 1.6410	34.0690
 1.6420	34.1040
 1.6430	34.1370
 1.6440	34.1660
 1.6450	34.1920
 1.6460	34.2170
 1.6470	34.2370
 1.6480	34.2540
 1.6490	34.2700
 1.6500	34.2820
 1.6510	34.2910
 1.6520	34.2970
 1.6530	34.3010
 1.6540	34.3030
 1.6550	34.3020
 1.6560	34.2990
 1.6570	34.2940
 1.6580	34.2850
 1.6590	34.2750
 1.6600	34.2630
 1.6610	34.2490
 1.6620	34.2350
 1.6630	34.2200
 1.6640	34.2040
 1.6650	34.1900
 1.6660	34.1750
 1.6670	34.1580
 1.6680	34.1420
 1.6690	34.1240
 1.6700	34.1060
 1.6710	34.0890
 1.6720	34.0710
 1.6730	34.0530
 1.6740	34.0340
 1.6750	34.0120
 1.6760	33.9880
 1.6770	33.9610
 1.6780	33.9320
 1.6790	33.8990
 1.6800	33.8610
 1.6810	33.8210
 1.6820	33.7780
 1.6830	33.7290
 1.6840	33.6760
 1.6850	33.6160
 1.6860	33.5490
 1.6870	33.4790
 1.6880	33.4060
 1.6890	33.3310
 1.6900	33.2520
 1.6910	33.1690
 1.6920	33.0850
 1.6930	32.9980
 1.6940	32.9080
 1.6950	32.8170
 1.6960	32.7240
 1.6970	32.6270
 1.6980	32.5300
 1.6990	32.4310
 1.7000	32.3310
 1.7010	32.2310
 1.7020	32.1280
 1.7030	32.0240
 1.7040	31.9180
 1.7050	31.8090
 1.7060	31.7010
 1.7070	31.5910
 1.7080	31.4860
 1.7090	31.3820
 1.7100	31.2800
 1.7110	31.1800
 1.7120	31.0850
 1.7130	30.9940
 1.7140	30.9100
 1.7150	30.8310
 1.7160	30.7580
 1.7170	30.6890
 1.7180	30.6220
 1.7190	30.5600
 1.7200	30.4970
 1.7210	30.4370
 1.7220	30.3820
 1.7230	30.3320
 1.7240	30.2840
 1.7250	30.2390
 1.7260	30.1980
 1.7270	30.1630
 1.7280	30.1340
 1.7290	30.1110
 1.7300	30.0940
 1.7310	30.0780
 1.7320	30.0660
 1.7330	30.0550
 1.7340	30.0490
 1.7350	30.0380
 1.7360	30.0290
 1.7370	30.0110
 1.7380	29.9880
 1.7390	29.9590
 1.7400	29.9230
 1.7410	29.8810
 1.7420	29.8330
 1.7430	29.7790
 1.7440	29.7180
 1.7450	29.6530
 1.7460	29.5810
 1.7470	29.5100
 1.7480	29.4330
 1.7490	29.3590
 1.7500	29.2840
 1.7510	29.2110
 1.7520	29.1400
 1.7530	29.0690
 1.7540	28.9990
 1.7550	28.9300
 1.7560	28.8640
 1.7570	28.8010
 1.7580	28.7430
 1.7590	28.6880
 1.7600	28.6350
 1.7610	28.5850
 1.7620	28.5390
 1.7630	28.4990
 1.7640	28.4610
 1.7650	28.4260
 1.7660	28.3940
 1.7670	28.3650
 1.7680	28.3350
 1.7690	28.3070
 1.7700	28.2790
 1.7710	28.2490
 1.7720	28.2210
 1.7730	28.1920
 1.7740	28.1660
 1.7750	28.1410
 1.7760	28.1170
 1.7770	28.0960
 1.7780	28.0740
 1.7790	28.0510
 1.7800	28.0320
 1.7810	28.0150
 1.7820	28.0010
 1.7830	27.9910
 1.7840	27.9820
 1.7850	27.9760
 1.7860	27.9710
 1.7870	27.9680
 1.7880	27.9680
 1.7890	27.9700
 1.7900	27.9730
 1.7910	27.9770
 1.7920	27.9830
 1.7930	27.9880
 1.7940	27.9940
 1.7950	28.0030
 1.7960	28.0140
 1.7970	28.0250
 1.7980	28.0390
 1.7990	28.0520
 1.8000	28.0640
 1.8010	28.0760
 1.8020	28.0860
 1.8030	28.1000
 1.8040	28.1150
 1.8050	28.1280
 1.8060	28.1430
 1.8070	28.1570
 1.8080	28.1700
 1.8090	28.1830
 1.8100	28.1980
 1.8110	28.2100
 1.8120	28.2200
 1.8130	28.2330
 1.8140	28.2430
 1.8150	28.2490
 1.8160	28.2560
 1.8170	28.2620
 1.8180	28.2680
 1.8190	28.2770
 1.8200	28.2830
 1.8210	28.2880
 1.8220	28.2920
 1.8230	28.2950
 1.8240	28.2950
 1.8250	28.2930
 1.8260	28.2890
 1.8270	28.2830
 1.8280	28.2740
 1.8290	28.2610
 1.8300	28.2380
 1.8310	28.2200
 1.8320	28.1940
 1.8330	28.1720
 1.8340	28.1450
 1.8350	28.1130
 1.8360	28.0770
 1.8370	28.0380
 1.8380	27.9950
 1.8390	27.9440
 1.8400	27.8900
 1.8410	27.8270
 1.8420	27.7570
 1.8430	27.6770
 1.8440	27.5910
 1.8450	27.4980
 1.8460	27.3980
 1.8470	27.2900
 1.8480	27.1690
 1.8490	27.0380
 1.8500	26.8980
 1.8510	26.7490
 1.8520	26.5880
 1.8530	26.4160
 1.8540	26.2330
 1.8550	26.0310
 1.8560	25.8140
 1.8570	25.5830
 1.8580	25.3330
 1.8590	25.0730
 1.8600	24.7980
 1.8610	24.5100
 1.8620	24.2070
 1.8630	23.8940
 1.8640	23.5600
 1.8650	23.2030
 1.8660	22.8300
 1.8670	22.4390
 1.8680	22.0300
 1.8690	21.6040
 1.8700	21.1560
 1.8710	20.6900
 1.8720	20.2090
 1.8730	19.7110
 1.8740	19.2030
 1.8750	18.6900
 1.8760	18.1640
 1.8770	17.6340
 1.8780	17.1020
 1.8790	16.5630
 1.8800	16.0320
 1.8810	15.5020
 1.8820	14.9730
 1.8830	14.4460
 1.8840	13.9280
 1.8850	13.4140
 1.8860	12.9070
 1.8870	12.4120
 1.8880	11.9290
 1.8890	11.4630
 1.8900	11.0130
 1.8910	10.5850
 1.8920	10.1740
 1.8930	 9.7860
 1.8940	 9.4170
 1.8950	 9.0700
 1.8960	 8.7450
 1.8970	 8.4400
 1.8980	 8.1590
 1.8990	 7.9000
 1.9000	 7.6590
 1.9010	 7.4390
 1.9020	 7.2340
 1.9030	 7.0480
 1.9040	 6.8790
 1.9050	 6.7270
 1.9060	 6.5890
 1.9070	 6.4700
 1.9080	 6.3630
 1.9090	 6.2660
 1.9100	 6.1800
 1.9110	 6.1000
 1.9120	 6.0270
 1.9130	 5.9620
 1.9140	 5.9070
 1.9150	 5.8560
 1.9160	 5.8130
 1.9170	 5.7760
 1.9180	 5.7390
 1.9190	 5.7100
 1.9200	 5.6860
 1.9210	 5.6640
 1.9220	 5.6470
 1.9230	 5.6370
 1.9240	 5.6280
 1.9250	 5.6220
 1.9260	 5.6190
 1.9270	 5.6180
 1.9280	 5.6210
 1.9290	 5.6250
 1.9300	 5.6310
 1.9310	 5.6420
 1.9320	 5.6540
 1.9330	 5.6700
 1.9340	 5.6890
 1.9350	 5.7090
 1.9360	 5.7310
 1.9370	 5.7540
 1.9380	 5.7780
 1.9390	 5.8060
 1.9400	 5.8340
 1.9410	 5.8630
 1.9420	 5.8950
 1.9430	 5.9270
 1.9440	 5.9620
 1.9450	 6.0010
 1.9460	 6.0410
 1.9470	 6.0810
 1.9480	 6.1230
 1.9490	 6.1670
 1.9500	 6.2090
 1.9510	 6.2540
 1.9520	 6.3000
 1.9530	 6.3470
 1.9540	 6.3970
 1.9550	 6.4470
 1.9560	 6.4980
 1.9570	 6.5510
 1.9580	 6.6050
 1.9590	 6.6600
 1.9600	 6.7150
 1.9610	 6.7720
 1.9620	 6.8290
 1.9630	 6.8890
 1.9640	 6.9500
 1.9650	 7.0100
 1.9660	 7.0710
 1.9670	 7.1340
 1.9680	 7.1970
 1.9690	 7.2620
 1.9700	 7.3270
 1.9710	 7.3910
 1.9720	 7.4570
 1.9730	 7.5230
 1.9740	 7.5910
 1.9750	 7.6590
 1.9760	 7.7270
 1.9770	 7.7960
 1.9780	 7.8650
 1.9790	 7.9360
 1.9800	 8.0100
 1.9810	 8.0840
 1.9820	 8.1610
 1.9830	 8.2350
 1.9840	 8.3080
 1.9850	 8.3830
 1.9860	 8.4570
 1.9870	 8.5320
 1.9880	 8.6100
 1.9890	 8.6860
 1.9900	 8.7640
 1.9910	 8.8390
 1.9920	 8.9150
 1.9930	 8.9890
 1.9940	 9.0650
 1.9950	 9.1400
 1.9960	 9.2170
 1.9970	 9.2970
 1.9980	 9.3730
 1.9990	 9.4490
 2.0000	 9.5230
 2.0010	 9.5970
 2.0020	 9.6720
 2.0030	 9.7490
 2.0040	 9.8270
 2.0050	 9.9030
 2.0060	 9.9810
 2.0070	10.0550
 2.0080	10.1270
 2.0090	10.1990
 2.0100	10.2690
 2.0110	10.3400
 2.0120	10.4120
 2.0130	10.4830
 2.0140	10.5530
 2.0150	10.6250
 2.0160	10.6940
 2.0170	10.7610
 2.0180	10.8310
 2.0190	10.9020
 2.0200	10.9700
 2.0210	11.0380
 2.0220	11.1030
 2.0230	11.1650
 2.0240	11.2270
 2.0250	11.2900
 2.0260	11.3510
 2.0270	11.4100
 2.0280	11.4690
 2.0290	11.5260
 2.0300	11.5810
 2.0310	11.6370
 2.0320	11.6930
 2.0330	11.7470
 2.0340	11.8010
 2.0350	11.8530
 2.0360	11.9040
 2.0370	11.9530
 2.0380	12.0000
 2.0390	12.0490
 2.0400	12.0960
 2.0410	12.1430
 2.0420	12.1920
 2.0430	12.2380
 2.0440	12.2820
 2.0450	12.3250
 2.0460	12.3670
 2.0470	12.4050
 2.0480	12.4450
 2.0490	12.4840
 2.0500	12.5240
 2.0510	12.5660
 2.0520	12.6050
 2.0530	12.6430
 2.0540	12.6810
 2.0550	12.7180
 2.0560	12.7560
 2.0570	12.7930
 2.0580	12.8300
 2.0590	12.8690
 2.0600	12.9090
 2.0610	12.9480
 2.0620	12.9900
 2.0630	13.0300
 2.0640	13.0710
 2.0650	13.1090
 2.0660	13.1460
 2.0670	13.1840
 2.0680	13.2200
 2.0690	13.2580
 2.0700	13.2990
 2.0710	13.3390
 2.0720	13.3810
 2.0730	13.4190
 2.0740	13.4580
 2.0750	13.4960
 2.0760	13.5340
 2.0770	13.5730
 2.0780	13.6110
 2.0790	13.6490
 2.0800	13.6860
 2.0810	13.7200
 2.0820	13.7570
 2.0830	13.7940
 2.0840	13.8320
 2.0850	13.8770
 2.0860	13.9170
 2.0870	13.9570
 2.0880	13.9960
 2.0890	14.0340
 2.0900	14.0670
 2.0910	14.1050
 2.0920	14.1410
 2.0930	14.1830
 2.0940	14.2310
 2.0950	14.2740
 2.0960	14.3190
 2.0970	14.3610
 2.0980	14.3960
 2.0990	14.4370
 2.1000	14.4800
 2.1010	14.5230
 2.1020	14.5670
 2.1030	14.6100
 2.1040	14.6520
 2.1050	14.6940
 2.1060	14.7360
 2.1070	14.7760
 2.1080	14.8180
 2.1090	14.8610
 2.1100	14.9040
 2.1110	14.9500
 2.1120	14.9930
 2.1130	15.0360
 2.1140	15.0780
 2.1150	15.1160
 2.1160	15.1570
 2.1170	15.1990
 2.1180	15.2400
 2.1190	15.2840
 2.1200	15.3260
 2.1210	15.3700
 2.1220	15.4110
 2.1230	15.4490
 2.1240	15.4860
 2.1250	15.5220
 2.1260	15.5540
 2.1270	15.5890
 2.1280	15.6270
 2.1290	15.6620
 2.1300	15.6960
 2.1310	15.7310
 2.1320	15.7660
 2.1330	15.8010
 2.1340	15.8360
 2.1350	15.8710
 2.1360	15.9080
 2.1370	15.9420
 2.1380	15.9730
 2.1390	16.0080
 2.1400	16.0440
 2.1410	16.0800
 2.1420	16.1160
 2.1430	16.1560
 2.1440	16.1940
 2.1450	16.2310
 2.1460	16.2670
 2.1470	16.3040
 2.1480	16.3400
 2.1490	16.3730
 2.1500	16.4060
 2.1510	16.4390
 2.1520	16.4700
 2.1530	16.4960
 2.1540	16.5250
 2.1550	16.5540
 2.1560	16.5850
 2.1570	16.6200
 2.1580	16.6530
 2.1590	16.6880
 2.1600	16.7220
 2.1610	16.7560
 2.1620	16.7920
 2.1630	16.8270
 2.1640	16.8620
 2.1650	16.8950
 2.1660	16.9270
 2.1670	16.9600
 2.1680	16.9900
 2.1690	17.0220
 2.1700	17.0570
 2.1710	17.0880
 2.1720	17.1180
 2.1730	17.1500
 2.1740	17.1800
 2.1750	17.2100
 2.1760	17.2400
 2.1770	17.2700
 2.1780	17.3000
 2.1790	17.3280
 2.1800	17.3560
 2.1810	17.3840
 2.1820	17.4120
 2.1830	17.4370
 2.1840	17.4640
 2.1850	17.4910
 2.1860	17.5180
 2.1870	17.5450
 2.1880	17.5710
 2.1890	17.6000
 2.1900	17.6260
 2.1910	17.6490
 2.1920	17.6740
 2.1930	17.7000
 2.1940	17.7240
 2.1950	17.7470
 2.1960	17.7690
 2.1970	17.7880
 2.1980	17.8070
 2.1990	17.8270
 2.2000	17.8460
 2.2010	17.8620
 2.2020	17.8800
 2.2030	17.8990
 2.2040	17.9160
 2.2050	17.9340
 2.2060	17.9510
 2.2070	17.9640
 2.2080	17.9730
 2.2090	17.9820
 2.2100	17.9890
 2.2110	17.9970
 2.2120	18.0060
 2.2130	18.0100
 2.2140	18.0120
 2.2150	18.0110
 2.2160	18.0060
 2.2170	18.0010
 2.2180	17.9960
 2.2190	17.9880
 2.2200	17.9800
 2.2210	17.9680
 2.2220	17.9520
 2.2230	17.9360
 2.2240	17.9180
 2.2250	17.8980
 2.2260	17.8790
 2.2270	17.8560
 2.2280	17.8300
 2.2290	17.8000
 2.2300	17.7660
 2.2310	17.7320
 2.2320	17.6930
 2.2330	17.6470
 2.2340	17.6000
 2.2350	17.5480
 2.2360	17.4960
 2.2370	17.4410
 2.2380	17.3850
 2.2390	17.3280
 2.2400	17.2670
 2.2410	17.2020
 2.2420	17.1360
 2.2430	17.0670
 2.2440	16.9960
 2.2450	16.9220
 2.2460	16.8460
 2.2470	16.7670
 2.2480	16.6860
 2.2490	16.6010
 2.2500	16.5180
 2.2510	16.4370
 2.2520	16.3530
 2.2530	16.2720
 2.2540	16.1830
 2.2550	16.0870
 2.2560	15.9930
 2.2570	15.8920
 2.2580	15.7950
 2.2590	15.7010
 2.2600	15.6040
 2.2610	15.5050
 2.2620	15.4110
 2.2630	15.3150
 2.2640	15.2200
 2.2650	15.1280
 2.2660	15.0370
 2.2670	14.9510
 2.2680	14.8670
 2.2690	14.7840
 2.2700	14.7050
 2.2710	14.6290
 2.2720	14.5530
 2.2730	14.4860
 2.2740	14.4300
 2.2750	14.3690
 2.2760	14.3110
 2.2770	14.2520
 2.2780	14.1920
 2.2790	14.1360
 2.2800	14.0820
 2.2810	14.0310
 2.2820	13.9830
 2.2830	13.9310
 2.2840	13.8820
 2.2850	13.8290
 2.2860	13.7710
 2.2870	13.7120
 2.2880	13.6500
 2.2890	13.5870
 2.2900	13.5220
 2.2910	13.4560
 2.2920	13.3920
 2.2930	13.3200
 2.2940	13.2400
 2.2950	13.1630
 2.2960	13.0830
 2.2970	13.0040
 2.2980	12.9260
 2.2990	12.8530
 2.3000	12.7830
 2.3010	12.7080
 2.3020	12.6440
 2.3030	12.5850
 2.3040	12.5240
 2.3050	12.4760
 2.3060	12.4330
 2.3070	12.3930
 2.3080	12.3630
 2.3090	12.3390
 2.3100	12.3200
 2.3110	12.3090
 2.3120	12.3010
 2.3130	12.2990
 2.3140	12.2990
 2.3150	12.3040
 2.3160	12.3110
 2.3170	12.3280
 2.3180	12.3330
 2.3190	12.3420
 2.3200	12.3400
 2.3210	12.3230
 2.3220	12.3110
 2.3230	12.2990
 2.3240	12.2780
 2.3250	12.2530
 2.3260	12.2230
 2.3270	12.1850
 2.3280	12.1460
 2.3290	12.1020
 2.3300	12.0610
 2.3310	12.0180
 2.3320	11.9740
 2.3330	11.9320
 2.3340	11.8870
 2.3350	11.8390
 2.3360	11.7910
 2.3370	11.7420
 2.3380	11.6950
 2.3390	11.6490
 2.3400	11.6010
 2.3410	11.5500
 2.3420	11.5010
 2.3430	11.4460
 2.3440	11.3980
 2.3450	11.3560
 2.3460	11.3140
 2.3470	11.2680
 2.3480	11.2310
 2.3490	11.1990
 2.3500	11.1700
 2.3510	11.1540
 2.3520	11.1310
 2.3530	11.1070
 2.3540	11.0810
 2.3550	11.0490
 2.3560	11.0270
 2.3570	11.0050
 2.3580	10.9810
 2.3590	10.9610
 2.3600	10.9340
 2.3610	10.9070
 2.3620	10.8810
 2.3630	10.8450
 2.3640	10.8190
 2.3650	10.7960
 2.3660	10.7630
 2.3670	10.7350
 2.3680	10.7060
 2.3690	10.6690
 2.3700	10.6430
 2.3710	10.6180
 2.3720	10.5870
 2.3730	10.5610
 2.3740	10.5330
 2.3750	10.5020
 2.3760	10.4680
 2.3770	10.4230
 2.3780	10.3840
 2.3790	10.3480
 2.3800	10.3090
 2.3810	10.2720
 2.3820	10.2310
 2.3830	10.1840
 2.3840	10.1460
 2.3850	10.1200
 2.3860	10.0910
 2.3870	10.0600
 2.3880	10.0250
 2.3890	 9.9880
 2.3900	 9.9510
 2.3910	 9.9190
 2.3920	 9.8900
 2.3930	 9.8460
 2.3940	 9.7970
 2.3950	 9.7560
 2.3960	 9.7170
 2.3970	 9.6870
 2.3980	 9.6620
 2.3990	 9.6290
 2.4000	 9.5890
 2.4010	 9.5440
 2.4020	 9.5040
 2.4030	 9.4580
 2.4040	 9.4130
 2.4050	 9.3810
 2.4060	 9.3490
 2.4070	 9.3150
 2.4080	 9.2880
 2.4090	 9.2570
 2.4100	 9.2060
 2.4110	 9.1600
 2.4120	 9.1210
 2.4130	 9.0700
 2.4140	 9.0210
 2.4150	 8.9770
 2.4160	 8.9300
 2.4170	 8.8820
 2.4180	 8.8460
 2.4190	 8.8110
 2.4200	 8.7640
 2.4210	 8.7190
 2.4220	 8.6780
 2.4230	 8.6380
 2.4240	 8.5960
 2.4250	 8.5620
 2.4260	 8.5330
 2.4270	 8.4950
 2.4280	 8.4560
 2.4290	 8.4080
 2.4300	 8.3550
 2.4310	 8.2940
 2.4320	 8.2370
 2.4330	 8.1970
 2.4340	 8.1560
 2.4350	 8.1120
 2.4360	 8.0680
 2.4370	 8.0190
 2.4380	 7.9540
 2.4390	 7.8980
 2.4400	 7.8560
 2.4410	 7.7900
 2.4420	 7.7320
 2.4430	 7.6870
 2.4440	 7.6430
 2.4450	 7.6160
 2.4460	 7.5820
 2.4470	 7.5390
 2.4480	 7.5010
 2.4490	 7.4600
 2.4500	 7.4190
 2.4510	 7.3780
 2.4520	 7.3150
 2.4530	 7.2520
 2.4540	 7.2000
 2.4550	 7.1510
 2.4560	 7.1180
 2.4570	 7.0860
 2.4580	 7.0490
 2.4590	 7.0140
 2.4600	 6.9710
 2.4610	 6.9370
 2.4620	 6.9090
 2.4630	 6.8760
 2.4640	 6.8390
 2.4650	 6.7790
 2.4660	 6.7120
 2.4670	 6.6320
 2.4680	 6.5570
 2.4690	 6.5330
 2.4700	 6.4960
 2.4710	 6.4920
 2.4720	 6.4700
 2.4730	 6.4090
 2.4740	 6.3870
 2.4750	 6.4070
 2.4760	 6.3910
 2.4770	 6.3730
 2.4780	 6.3480
 2.4790	 6.2780
 2.4800	 6.2500
 2.4810	 6.2530
 2.4820	 6.2400
 2.4830	 6.2260
 2.4840	 6.1980
 2.4850	 6.1710
 2.4860	 6.1380
 2.4870	 6.1070
 2.4880	 6.0910
 2.4890	 6.0520
 2.4900	 6.0350
 2.4910	 6.0430
 2.4920	 6.0160
 2.4930	 6.0320
 2.4940	 6.0430
 2.4950	 5.9900
 2.4960	 5.9800
 2.4970	 5.9680
 2.4980	 5.9560
 2.4990	 6.0010
 2.5000	 6.0010
