Name: Quercus agrifolia 1
Type: vegetation
Class: Tree
Genus: Quercus
Species: agrifolia
Sample No.: VH076
Owner: UCSB
Wavelength Range: TIR
Origin: 34.7153; -120.0601; WGS84
Collection Date: 4/21/2013
Description: Samples were collected as part of the HyspIRI Airborne Campaign. 48 individual plants were sampled in three times in 2013 - spring  summer  and fall. The name of the sample includes a 1  2  or 3 which references a different individual of the species. Samples were taken to JPL and processed within 48 hours of collection. The same leaves were processed in the Nicolet and then measured using the ASD.
Measurement: Hemispherical reflectance
First Column: X
Second Column: Y
X Units: Wavelength (micrometers)
Y Units: Reflectance (percentage)
First X Value: 2.501
Last X Value: 15.387
Number of X Values: 1737
Additional Information: vegetation.tree.quercus.agrifolia.tir.vh076.ucsb.nicolet.ancillary.txt

 2.5010	 6.0960
 2.5030	 6.2020
 2.5040	 6.2770
 2.5050	 6.2830
 2.5060	 6.1410
 2.5070	 6.1000
 2.5090	 6.2950
 2.5100	 6.2270
 2.5110	 6.1490
 2.5120	 6.1980
 2.5140	 6.1810
 2.5150	 6.1390
 2.5160	 6.1770
 2.5170	 6.1460
 2.5180	 6.1240
 2.5200	 6.0310
 2.5210	 6.1410
 2.5220	 6.1780
 2.5230	 6.2010
 2.5250	 6.1260
 2.5260	 6.1010
 2.5270	 6.0760
 2.5280	 6.0980
 2.5290	 6.1080
 2.5310	 6.1550
 2.5320	 6.0470
 2.5330	 6.0300
 2.5340	 6.0050
 2.5360	 6.0260
 2.5370	 5.9100
 2.5380	 5.9000
 2.5390	 5.9840
 2.5410	 6.1740
 2.5420	 6.1680
 2.5430	 6.2080
 2.5440	 6.2700
 2.5460	 6.2080
 2.5470	 6.0540
 2.5480	 6.0820
 2.5490	 6.1820
 2.5510	 6.1470
 2.5520	 6.0900
 2.5530	 6.1600
 2.5540	 6.0240
 2.5560	 5.9890
 2.5570	 6.0900
 2.5580	 6.2650
 2.5590	 6.2300
 2.5610	 6.1630
 2.5620	 6.1270
 2.5630	 6.0850
 2.5640	 5.9670
 2.5660	 6.0190
 2.5670	 6.0360
 2.5680	 6.0170
 2.5700	 5.9670
 2.5710	 6.0750
 2.5720	 6.1870
 2.5730	 6.2270
 2.5750	 6.1530
 2.5760	 6.0760
 2.5770	 5.9940
 2.5790	 6.1390
 2.5800	 6.1870
 2.5810	 6.1450
 2.5820	 6.0040
 2.5840	 5.9820
 2.5850	 6.0070
 2.5860	 6.0710
 2.5880	 6.0240
 2.5890	 5.9710
 2.5900	 6.0290
 2.5910	 6.0800
 2.5930	 5.9680
 2.5940	 5.9770
 2.5950	 5.9680
 2.5970	 6.0310
 2.5980	 6.0660
 2.5990	 6.1000
 2.6000	 6.0630
 2.6020	 6.0580
 2.6030	 5.9390
 2.6040	 5.9430
 2.6060	 5.9400
 2.6070	 5.9070
 2.6080	 5.9250
 2.6100	 6.0170
 2.6110	 5.9690
 2.6120	 5.9330
 2.6140	 5.9070
 2.6150	 5.9720
 2.6160	 5.9760
 2.6180	 5.9610
 2.6190	 5.8890
 2.6200	 5.9610
 2.6220	 5.9160
 2.6230	 5.8490
 2.6240	 5.8750
 2.6260	 5.9430
 2.6270	 5.7450
 2.6280	 5.7350
 2.6300	 5.7980
 2.6310	 5.7540
 2.6320	 5.6130
 2.6340	 5.6560
 2.6350	 5.6360
 2.6360	 5.6900
 2.6380	 5.7140
 2.6390	 5.7140
 2.6400	 5.6900
 2.6420	 5.7820
 2.6430	 5.7030
 2.6440	 5.5900
 2.6460	 5.5260
 2.6470	 5.5500
 2.6480	 5.6680
 2.6500	 5.7970
 2.6510	 5.7080
 2.6520	 5.6910
 2.6540	 5.5880
 2.6550	 5.5080
 2.6560	 5.5130
 2.6580	 5.5240
 2.6590	 5.4650
 2.6610	 5.4550
 2.6620	 5.4890
 2.6630	 5.5350
 2.6650	 5.5270
 2.6660	 5.6500
 2.6670	 5.5940
 2.6690	 5.4990
 2.6700	 5.5410
 2.6720	 5.6450
 2.6730	 5.6360
 2.6740	 5.7000
 2.6760	 5.6310
 2.6770	 5.5910
 2.6780	 5.5520
 2.6800	 5.5670
 2.6810	 5.6040
 2.6830	 5.6750
 2.6840	 5.5610
 2.6850	 5.4680
 2.6870	 5.3270
 2.6880	 5.3770
 2.6900	 5.4790
 2.6910	 5.6080
 2.6920	 5.5920
 2.6940	 5.5700
 2.6950	 5.4270
 2.6970	 5.4320
 2.6980	 5.4270
 2.6990	 5.4210
 2.7010	 5.3780
 2.7020	 5.4330
 2.7040	 5.3930
 2.7050	 5.4420
 2.7060	 5.4470
 2.7080	 5.4750
 2.7090	 5.4290
 2.7110	 5.5030
 2.7120	 5.5470
 2.7130	 5.5590
 2.7150	 5.4820
 2.7160	 5.4310
 2.7180	 5.3290
 2.7190	 5.4300
 2.7210	 5.4750
 2.7220	 5.4460
 2.7230	 5.3140
 2.7250	 5.3480
 2.7260	 5.4400
 2.7280	 5.4110
 2.7290	 5.3550
 2.7310	 5.4380
 2.7320	 5.4230
 2.7330	 5.3810
 2.7350	 5.3310
 2.7360	 5.3480
 2.7380	 5.3400
 2.7390	 5.4150
 2.7410	 5.4220
 2.7420	 5.4630
 2.7440	 5.3370
 2.7450	 5.2620
 2.7470	 5.3560
 2.7480	 5.4810
 2.7490	 5.4160
 2.7510	 5.4650
 2.7520	 5.4750
 2.7540	 5.4710
 2.7550	 5.3370
 2.7570	 5.3010
 2.7580	 5.2810
 2.7600	 5.4430
 2.7610	 5.5970
 2.7630	 5.6390
 2.7640	 5.3580
 2.7660	 5.2320
 2.7670	 5.3020
 2.7680	 5.4030
 2.7700	 5.3580
 2.7710	 5.3070
 2.7730	 5.3450
 2.7740	 5.5150
 2.7760	 5.5380
 2.7770	 5.5610
 2.7790	 5.4840
 2.7800	 5.4640
 2.7820	 5.3940
 2.7830	 5.4260
 2.7850	 5.4290
 2.7860	 5.4920
 2.7880	 5.4250
 2.7890	 5.4360
 2.7910	 5.4210
 2.7920	 5.4070
 2.7940	 5.4300
 2.7950	 5.4970
 2.7970	 5.3930
 2.7980	 5.3720
 2.8000	 5.3650
 2.8010	 5.4120
 2.8030	 5.4580
 2.8040	 5.5240
 2.8060	 5.4190
 2.8070	 5.4860
 2.8090	 5.5440
 2.8110	 5.5850
 2.8120	 5.4970
 2.8140	 5.4230
 2.8150	 5.4280
 2.8170	 5.4890
 2.8180	 5.4210
 2.8200	 5.5080
 2.8210	 5.4400
 2.8230	 5.4290
 2.8240	 5.4920
 2.8260	 5.6020
 2.8270	 5.5230
 2.8290	 5.5260
 2.8300	 5.5040
 2.8320	 5.5650
 2.8340	 5.5250
 2.8350	 5.4910
 2.8370	 5.5010
 2.8380	 5.5570
 2.8400	 5.5490
 2.8410	 5.5650
 2.8430	 5.4750
 2.8440	 5.5140
 2.8460	 5.5490
 2.8480	 5.5800
 2.8490	 5.5180
 2.8510	 5.6760
 2.8520	 5.6720
 2.8540	 5.6080
 2.8550	 5.5100
 2.8570	 5.5500
 2.8590	 5.5040
 2.8600	 5.4760
 2.8620	 5.4050
 2.8630	 5.4940
 2.8650	 5.4380
 2.8660	 5.4460
 2.8680	 5.4320
 2.8700	 5.5300
 2.8710	 5.4980
 2.8730	 5.5090
 2.8740	 5.4740
 2.8760	 5.5500
 2.8780	 5.4940
 2.8790	 5.4440
 2.8810	 5.4550
 2.8820	 5.4360
 2.8840	 5.3920
 2.8860	 5.5720
 2.8870	 5.5420
 2.8890	 5.4360
 2.8900	 5.4780
 2.8920	 5.6200
 2.8940	 5.5560
 2.8950	 5.6580
 2.8970	 5.6100
 2.8980	 5.5440
 2.9000	 5.5370
 2.9020	 5.5330
 2.9030	 5.3550
 2.9050	 5.4140
 2.9070	 5.5710
 2.9080	 5.6840
 2.9100	 5.5840
 2.9120	 5.4620
 2.9130	 5.4130
 2.9150	 5.5390
 2.9160	 5.5560
 2.9180	 5.5320
 2.9200	 5.5020
 2.9210	 5.5380
 2.9230	 5.4450
 2.9250	 5.4220
 2.9260	 5.4260
 2.9280	 5.4810
 2.9300	 5.5190
 2.9310	 5.6260
 2.9330	 5.6260
 2.9350	 5.5420
 2.9360	 5.4080
 2.9380	 5.4460
 2.9400	 5.5030
 2.9410	 5.5290
 2.9430	 5.5510
 2.9450	 5.5640
 2.9460	 5.5000
 2.9480	 5.5620
 2.9500	 5.4400
 2.9510	 5.4030
 2.9530	 5.2470
 2.9550	 5.3130
 2.9560	 5.4160
 2.9580	 5.4810
 2.9600	 5.4430
 2.9610	 5.5080
 2.9630	 5.3290
 2.9650	 5.4440
 2.9660	 5.7290
 2.9680	 5.5860
 2.9700	 5.4990
 2.9720	 5.6680
 2.9730	 5.5210
 2.9750	 5.3500
 2.9770	 5.1130
 2.9780	 5.1430
 2.9800	 5.3330
 2.9820	 5.5830
 2.9840	 5.7800
 2.9850	 5.6760
 2.9870	 5.5210
 2.9890	 5.5600
 2.9900	 5.5790
 2.9920	 5.7940
 2.9940	 5.7710
 2.9960	 5.7430
 2.9970	 5.7560
 2.9990	 5.9370
 3.0010	 5.6900
 3.0030	 5.4450
 3.0040	 5.4730
 3.0060	 5.5990
 3.0080	 5.6180
 3.0100	 5.7280
 3.0110	 5.7110
 3.0130	 5.3870
 3.0150	 5.2600
 3.0170	 5.6160
 3.0180	 5.7250
 3.0200	 5.8420
 3.0220	 5.7530
 3.0240	 5.5510
 3.0250	 5.5190
 3.0270	 5.5040
 3.0290	 5.5200
 3.0310	 5.5750
 3.0320	 5.5720
 3.0340	 5.4700
 3.0360	 5.4150
 3.0380	 6.0260
 3.0400	 6.1030
 3.0410	 5.7440
 3.0430	 5.7230
 3.0450	 5.9410
 3.0470	 5.2620
 3.0480	 4.8610
 3.0500	 5.3170
 3.0520	 5.5500
 3.0540	 5.2930
 3.0560	 5.2400
 3.0570	 5.2000
 3.0590	 4.9580
 3.0610	 5.2720
 3.0630	 5.8330
 3.0650	 5.4460
 3.0660	 5.1070
 3.0680	 5.1870
 3.0700	 5.3740
 3.0720	 5.3520
 3.0740	 5.3350
 3.0760	 5.3410
 3.0770	 5.3700
 3.0790	 5.3880
 3.0810	 5.4420
 3.0830	 5.3520
 3.0850	 5.2570
 3.0870	 5.3020
 3.0880	 5.4170
 3.0900	 5.2990
 3.0920	 5.3000
 3.0940	 5.4180
 3.0960	 5.4290
 3.0980	 5.4040
 3.0990	 5.4800
 3.1010	 5.3600
 3.1030	 5.3850
 3.1050	 5.4600
 3.1070	 5.3950
 3.1090	 5.3420
 3.1110	 5.2910
 3.1120	 5.2410
 3.1140	 5.3230
 3.1160	 5.3940
 3.1180	 5.5470
 3.1200	 5.5030
 3.1220	 5.4440
 3.1240	 5.3820
 3.1260	 5.4330
 3.1270	 5.4330
 3.1290	 5.4070
 3.1310	 5.2590
 3.1330	 5.2700
 3.1350	 5.3490
 3.1370	 5.3250
 3.1390	 5.2990
 3.1410	 5.3050
 3.1430	 5.4160
 3.1450	 5.7650
 3.1460	 5.7300
 3.1480	 5.4780
 3.1500	 5.3320
 3.1520	 5.2150
 3.1540	 5.0760
 3.1560	 5.1270
 3.1580	 5.1090
 3.1600	 5.1560
 3.1620	 5.0960
 3.1640	 5.1370
 3.1660	 5.4440
 3.1680	 5.4860
 3.1700	 5.1250
 3.1710	 4.7260
 3.1730	 4.8220
 3.1750	 5.1600
 3.1770	 5.2510
 3.1790	 5.0990
 3.1810	 5.0430
 3.1830	 5.0320
 3.1850	 4.9740
 3.1870	 5.0660
 3.1890	 5.2290
 3.1910	 5.2980
 3.1930	 5.2400
 3.1950	 5.2370
 3.1970	 5.2930
 3.1990	 5.3470
 3.2010	 5.2800
 3.2030	 5.3190
 3.2050	 5.2290
 3.2070	 5.2770
 3.2090	 5.1940
 3.2110	 5.1860
 3.2130	 5.2220
 3.2150	 5.2790
 3.2170	 5.2290
 3.2190	 5.2590
 3.2210	 5.2440
 3.2230	 5.2990
 3.2250	 5.1930
 3.2270	 5.1120
 3.2290	 5.0520
 3.2310	 5.1060
 3.2330	 5.1650
 3.2350	 5.1850
 3.2370	 5.1250
 3.2390	 5.1430
 3.2410	 5.2070
 3.2430	 5.1930
 3.2450	 5.1210
 3.2470	 5.1720
 3.2490	 5.2300
 3.2510	 5.1510
 3.2530	 5.0420
 3.2550	 5.1340
 3.2570	 5.1350
 3.2590	 5.1290
 3.2610	 5.0680
 3.2630	 5.1560
 3.2650	 5.1750
 3.2670	 5.1380
 3.2690	 5.1420
 3.2720	 5.1870
 3.2740	 5.1020
 3.2760	 5.1170
 3.2780	 5.0880
 3.2800	 5.0380
 3.2820	 5.0030
 3.2840	 5.0640
 3.2860	 5.0460
 3.2880	 5.0580
 3.2900	 4.9920
 3.2920	 5.0460
 3.2940	 5.0270
 3.2960	 5.0420
 3.2990	 5.0260
 3.3010	 5.0520
 3.3030	 5.0660
 3.3050	 5.0440
 3.3070	 5.0140
 3.3090	 5.0790
 3.3110	 5.0150
 3.3130	 4.9550
 3.3150	 4.9650
 3.3180	 5.0480
 3.3200	 4.9840
 3.3220	 5.0170
 3.3240	 4.9770
 3.3260	 5.0240
 3.3280	 5.0050
 3.3300	 4.9060
 3.3330	 4.8100
 3.3350	 4.9100
 3.3370	 5.0030
 3.3390	 4.9870
 3.3410	 4.8700
 3.3430	 4.9130
 3.3450	 4.8680
 3.3480	 4.8640
 3.3500	 4.7730
 3.3520	 4.7370
 3.3540	 4.8060
 3.3560	 4.8380
 3.3580	 4.7920
 3.3610	 4.7860
 3.3630	 4.7020
 3.3650	 4.6610
 3.3670	 4.6050
 3.3690	 4.7210
 3.3720	 4.6980
 3.3740	 4.7110
 3.3760	 4.6750
 3.3780	 4.7100
 3.3800	 4.7070
 3.3830	 4.6990
 3.3850	 4.6010
 3.3870	 4.6390
 3.3890	 4.6060
 3.3910	 4.5830
 3.3940	 4.6160
 3.3960	 4.7220
 3.3980	 4.6260
 3.4000	 4.4840
 3.4020	 4.4230
 3.4050	 4.3600
 3.4070	 4.3570
 3.4090	 4.4840
 3.4110	 4.6050
 3.4140	 4.7580
 3.4160	 4.8920
 3.4180	 5.2270
 3.4200	 5.7080
 3.4230	 6.5000
 3.4250	 7.4580
 3.4270	 8.5250
 3.4290	 9.1530
 3.4320	 9.0230
 3.4340	 8.3980
 3.4360	 7.8390
 3.4390	 7.3870
 3.4410	 7.0670
 3.4430	 6.8290
 3.4450	 6.7430
 3.4480	 6.5930
 3.4500	 6.4970
 3.4520	 6.5530
 3.4550	 6.4880
 3.4570	 6.3210
 3.4590	 6.3620
 3.4620	 6.2880
 3.4640	 6.1690
 3.4660	 6.1040
 3.4680	 6.0770
 3.4710	 6.0220
 3.4730	 6.0400
 3.4750	 5.9210
 3.4780	 5.7830
 3.4800	 5.7100
 3.4820	 5.6600
 3.4850	 5.6420
 3.4870	 5.6380
 3.4890	 5.5410
 3.4920	 5.4340
 3.4940	 5.3100
 3.4970	 5.2780
 3.4990	 5.2180
 3.5010	 5.2720
 3.5040	 5.4330
 3.5060	 6.0120
 3.5080	 7.1750
 3.5110	 8.3480
 3.5130	 8.5660
 3.5160	 8.0930
 3.5180	 7.6040
 3.5200	 7.2180
 3.5230	 6.8630
 3.5250	 6.6810
 3.5270	 6.5710
 3.5300	 6.4920
 3.5320	 6.3880
 3.5350	 6.3020
 3.5370	 6.2080
 3.5400	 6.2010
 3.5420	 6.2180
 3.5440	 6.2220
 3.5470	 6.1150
 3.5490	 6.0590
 3.5520	 6.0110
 3.5540	 6.1160
 3.5570	 6.1250
 3.5590	 6.0530
 3.5610	 5.9440
 3.5640	 5.9540
 3.5660	 5.9040
 3.5690	 5.8600
 3.5710	 5.9220
 3.5740	 5.9810
 3.5760	 5.8980
 3.5790	 5.8590
 3.5810	 5.8340
 3.5840	 5.8230
 3.5860	 5.7810
 3.5890	 5.7940
 3.5910	 5.8010
 3.5930	 5.8370
 3.5960	 5.8230
 3.5980	 5.8320
 3.6010	 5.7110
 3.6030	 5.7010
 3.6060	 5.7980
 3.6080	 5.8530
 3.6110	 5.7740
 3.6140	 5.7680
 3.6160	 5.7780
 3.6190	 5.8180
 3.6210	 5.7690
 3.6240	 5.7810
 3.6260	 5.7660
 3.6290	 5.6730
 3.6310	 5.6380
 3.6340	 5.6740
 3.6360	 5.6460
 3.6390	 5.6660
 3.6410	 5.6820
 3.6440	 5.6890
 3.6470	 5.6470
 3.6490	 5.6380
 3.6520	 5.6630
 3.6540	 5.7030
 3.6570	 5.6180
 3.6590	 5.5760
 3.6620	 5.5450
 3.6650	 5.6310
 3.6670	 5.6860
 3.6700	 5.6810
 3.6720	 5.6420
 3.6750	 5.6330
 3.6780	 5.6390
 3.6800	 5.6240
 3.6830	 5.5850
 3.6850	 5.6360
 3.6880	 5.5680
 3.6910	 5.5260
 3.6930	 5.5490
 3.6960	 5.5890
 3.6990	 5.5600
 3.7010	 5.5910
 3.7040	 5.6050
 3.7060	 5.6060
 3.7090	 5.5690
 3.7120	 5.5910
 3.7140	 5.5810
 3.7170	 5.6110
 3.7200	 5.6320
 3.7220	 5.6580
 3.7250	 5.6440
 3.7280	 5.6350
 3.7300	 5.6210
 3.7330	 5.6520
 3.7360	 5.6420
 3.7390	 5.6670
 3.7410	 5.6250
 3.7440	 5.5910
 3.7470	 5.5960
 3.7490	 5.5970
 3.7520	 5.5690
 3.7550	 5.5640
 3.7580	 5.5150
 3.7600	 5.5630
 3.7630	 5.5760
 3.7660	 5.5650
 3.7680	 5.5140
 3.7710	 5.5520
 3.7740	 5.6140
 3.7770	 5.6470
 3.7790	 5.6460
 3.7820	 5.7000
 3.7850	 5.6460
 3.7880	 5.6290
 3.7900	 5.5630
 3.7930	 5.5330
 3.7960	 5.5920
 3.7990	 5.6840
 3.8020	 5.6100
 3.8040	 5.5480
 3.8070	 5.5960
 3.8100	 5.6120
 3.8130	 5.5750
 3.8160	 5.6430
 3.8180	 5.6200
 3.8210	 5.6000
 3.8240	 5.5900
 3.8270	 5.6210
 3.8300	 5.6380
 3.8330	 5.5610
 3.8350	 5.4930
 3.8380	 5.5080
 3.8410	 5.5150
 3.8440	 5.5530
 3.8470	 5.5670
 3.8500	 5.6350
 3.8520	 5.6120
 3.8550	 5.6350
 3.8580	 5.6280
 3.8610	 5.6010
 3.8640	 5.6130
 3.8670	 5.6200
 3.8700	 5.5920
 3.8730	 5.6190
 3.8750	 5.6380
 3.8780	 5.5850
 3.8810	 5.5210
 3.8840	 5.5420
 3.8870	 5.5030
 3.8900	 5.4430
 3.8930	 5.4780
 3.8960	 5.5510
 3.8990	 5.5450
 3.9020	 5.5940
 3.9050	 5.6000
 3.9080	 5.5940
 3.9110	 5.5380
 3.9140	 5.5460
 3.9160	 5.5780
 3.9190	 5.5450
 3.9220	 5.4720
 3.9250	 5.5220
 3.9280	 5.5510
 3.9310	 5.6060
 3.9340	 5.5970
 3.9370	 5.5970
 3.9400	 5.5690
 3.9430	 5.5720
 3.9460	 5.5780
 3.9490	 5.5510
 3.9520	 5.5590
 3.9550	 5.5960
 3.9580	 5.5890
 3.9610	 5.6030
 3.9640	 5.5970
 3.9670	 5.6290
 3.9700	 5.6100
 3.9730	 5.5610
 3.9770	 5.5510
 3.9800	 5.5610
 3.9830	 5.5520
 3.9860	 5.6090
 3.9890	 5.5640
 3.9920	 5.5610
 3.9950	 5.5800
 3.9980	 5.5640
 4.0010	 5.5200
 4.0040	 5.5200
 4.0070	 5.5180
 4.0100	 5.5100
 4.0130	 5.5350
 4.0170	 5.5870
 4.0200	 5.5540
 4.0230	 5.5120
 4.0260	 5.5150
 4.0290	 5.5130
 4.0320	 5.4890
 4.0350	 5.4860
 4.0380	 5.5020
 4.0420	 5.5290
 4.0450	 5.5390
 4.0480	 5.5620
 4.0510	 5.5820
 4.0540	 5.6030
 4.0570	 5.5760
 4.0610	 5.5270
 4.0640	 5.5340
 4.0670	 5.5830
 4.0700	 5.5430
 4.0730	 5.5000
 4.0770	 5.4780
 4.0800	 5.5100
 4.0830	 5.5230
 4.0860	 5.5190
 4.0890	 5.5510
 4.0930	 5.5760
 4.0960	 5.5960
 4.0990	 5.5910
 4.1020	 5.5120
 4.1060	 5.5010
 4.1090	 5.4830
 4.1120	 5.4590
 4.1150	 5.4300
 4.1190	 5.4230
 4.1220	 5.4270
 4.1250	 5.4590
 4.1280	 5.4500
 4.1320	 5.5080
 4.1350	 5.5110
 4.1380	 5.4850
 4.1420	 5.4700
 4.1450	 5.4710
 4.1480	 5.4510
 4.1520	 5.4810
 4.1550	 5.4980
 4.1580	 5.5230
 4.1620	 5.5140
 4.1650	 5.5260
 4.1680	 5.5240
 4.1720	 5.5030
 4.1750	 5.4990
 4.1780	 5.5390
 4.1820	 5.5100
 4.1850	 5.4690
 4.1890	 5.5510
 4.1920	 5.5970
 4.1950	 5.5340
 4.1990	 5.5660
 4.2020	 5.6320
 4.2060	 5.7210
 4.2090	 5.7680
 4.2120	 5.7360
 4.2160	 5.5970
 4.2190	 5.5280
 4.2230	 5.6610
 4.2260	 5.9350
 4.2300	 6.0190
 4.2330	 5.8230
 4.2360	 5.7860
 4.2400	 5.7100
 4.2430	 5.6440
 4.2470	 5.6220
 4.2500	 5.5280
 4.2540	 5.6680
 4.2570	 5.7150
 4.2610	 5.6270
 4.2640	 5.5650
 4.2680	 5.5540
 4.2710	 5.5060
 4.2750	 5.5670
 4.2780	 5.7510
 4.2820	 5.7920
 4.2850	 5.7050
 4.2890	 5.6910
 4.2930	 5.6970
 4.2960	 5.7420
 4.3000	 5.6810
 4.3030	 5.6860
 4.3070	 5.7120
 4.3100	 5.6410
 4.3140	 5.6960
 4.3180	 5.6920
 4.3210	 5.5870
 4.3250	 5.5830
 4.3280	 5.5690
 4.3320	 5.6720
 4.3360	 5.7050
 4.3390	 5.5940
 4.3430	 5.5660
 4.3470	 5.6010
 4.3500	 5.5540
 4.3540	 5.5670
 4.3570	 5.5970
 4.3610	 5.5670
 4.3650	 5.5240
 4.3680	 5.4970
 4.3720	 5.5280
 4.3760	 5.5410
 4.3800	 5.5150
 4.3830	 5.5110
 4.3870	 5.5230
 4.3910	 5.5230
 4.3940	 5.5220
 4.3980	 5.5400
 4.4020	 5.5280
 4.4060	 5.5420
 4.4090	 5.5860
 4.4130	 5.5110
 4.4170	 5.5100
 4.4210	 5.5720
 4.4240	 5.5350
 4.4280	 5.5410
 4.4320	 5.5280
 4.4360	 5.4890
 4.4400	 5.5070
 4.4430	 5.5640
 4.4470	 5.5760
 4.4510	 5.5710
 4.4550	 5.5920
 4.4590	 5.5940
 4.4620	 5.5630
 4.4660	 5.5390
 4.4700	 5.5520
 4.4740	 5.5350
 4.4780	 5.5300
 4.4820	 5.5160
 4.4860	 5.5170
 4.4900	 5.5470
 4.4930	 5.5780
 4.4970	 5.5510
 4.5010	 5.4830
 4.5050	 5.4510
 4.5090	 5.4640
 4.5130	 5.5090
 4.5170	 5.4780
 4.5210	 5.4380
 4.5250	 5.4680
 4.5290	 5.5240
 4.5330	 5.5860
 4.5370	 5.5930
 4.5410	 5.5700
 4.5450	 5.5230
 4.5490	 5.4630
 4.5530	 5.4220
 4.5570	 5.4470
 4.5610	 5.4680
 4.5650	 5.4700
 4.5690	 5.5040
 4.5730	 5.5020
 4.5770	 5.4750
 4.5810	 5.4930
 4.5850	 5.5250
 4.5890	 5.4810
 4.5930	 5.4970
 4.5970	 5.5410
 4.6010	 5.5230
 4.6050	 5.5680
 4.6090	 5.5910
 4.6130	 5.5300
 4.6170	 5.4300
 4.6220	 5.3990
 4.6260	 5.4260
 4.6300	 5.4840
 4.6340	 5.5760
 4.6380	 5.6050
 4.6420	 5.5340
 4.6460	 5.4880
 4.6510	 5.4990
 4.6550	 5.4870
 4.6590	 5.4840
 4.6630	 5.4900
 4.6670	 5.5010
 4.6720	 5.5010
 4.6760	 5.5120
 4.6800	 5.5070
 4.6840	 5.4520
 4.6880	 5.4130
 4.6930	 5.4440
 4.6970	 5.4570
 4.7010	 5.4680
 4.7050	 5.5040
 4.7100	 5.5420
 4.7140	 5.5650
 4.7180	 5.4900
 4.7230	 5.4680
 4.7270	 5.4890
 4.7310	 5.4700
 4.7360	 5.4850
 4.7400	 5.5040
 4.7440	 5.5150
 4.7490	 5.5210
 4.7530	 5.4760
 4.7570	 5.4460
 4.7620	 5.4280
 4.7660	 5.4000
 4.7700	 5.3730
 4.7750	 5.4650
 4.7790	 5.5950
 4.7840	 5.6260
 4.7880	 5.6240
 4.7920	 5.5400
 4.7970	 5.4420
 4.8010	 5.5230
 4.8060	 5.5580
 4.8100	 5.5080
 4.8150	 5.4960
 4.8190	 5.5490
 4.8240	 5.5050
 4.8280	 5.4940
 4.8330	 5.5050
 4.8370	 5.4700
 4.8420	 5.4910
 4.8460	 5.5030
 4.8510	 5.5260
 4.8550	 5.5430
 4.8600	 5.5230
 4.8640	 5.5470
 4.8690	 5.5530
 4.8730	 5.5700
 4.8780	 5.6060
 4.8830	 5.5890
 4.8870	 5.4690
 4.8920	 5.4890
 4.8960	 5.5220
 4.9010	 5.4710
 4.9060	 5.4400
 4.9100	 5.5110
 4.9150	 5.5290
 4.9200	 5.4990
 4.9240	 5.5190
 4.9290	 5.5170
 4.9340	 5.4860
 4.9380	 5.5530
 4.9430	 5.5920
 4.9480	 5.5560
 4.9530	 5.5330
 4.9570	 5.5950
 4.9620	 5.6390
 4.9670	 5.6350
 4.9720	 5.6170
 4.9760	 5.6510
 4.9810	 5.5990
 4.9860	 5.5310
 4.9910	 5.5140
 4.9960	 5.5210
 5.0000	 5.4970
 5.0050	 5.5400
 5.0100	 5.5680
 5.0150	 5.5650
 5.0200	 5.5950
 5.0250	 5.6050
 5.0290	 5.5580
 5.0340	 5.5510
 5.0390	 5.5530
 5.0440	 5.5840
 5.0490	 5.5810
 5.0540	 5.5710
 5.0590	 5.5340
 5.0640	 5.5230
 5.0690	 5.5410
 5.0740	 5.5430
 5.0790	 5.5120
 5.0840	 5.5240
 5.0890	 5.5400
 5.0940	 5.6000
 5.0990	 5.6050
 5.1040	 5.5400
 5.1090	 5.4910
 5.1140	 5.5500
 5.1190	 5.5970
 5.1240	 5.5570
 5.1290	 5.5450
 5.1340	 5.6090
 5.1390	 5.5250
 5.1440	 5.5100
 5.1490	 5.5320
 5.1540	 5.5810
 5.1600	 5.5850
 5.1650	 5.5790
 5.1700	 5.5250
 5.1750	 5.5040
 5.1800	 5.5210
 5.1850	 5.5440
 5.1910	 5.5080
 5.1960	 5.4920
 5.2010	 5.5280
 5.2060	 5.5620
 5.2110	 5.5130
 5.2170	 5.4830
 5.2220	 5.5160
 5.2270	 5.6070
 5.2320	 5.5240
 5.2380	 5.5420
 5.2430	 5.5990
 5.2480	 5.5690
 5.2540	 5.5410
 5.2590	 5.5580
 5.2640	 5.5440
 5.2700	 5.5510
 5.2750	 5.5400
 5.2800	 5.5720
 5.2860	 5.5870
 5.2910	 5.5840
 5.2970	 5.5550
 5.3020	 5.5730
 5.3070	 5.5990
 5.3130	 5.6200
 5.3180	 5.5160
 5.3240	 5.5160
 5.3290	 5.5520
 5.3350	 5.5690
 5.3400	 5.5460
 5.3460	 5.5460
 5.3510	 5.4480
 5.3570	 5.4560
 5.3620	 5.4760
 5.3680	 5.5310
 5.3730	 5.5290
 5.3790	 5.5040
 5.3850	 5.5080
 5.3900	 5.5960
 5.3960	 5.5980
 5.4010	 5.5650
 5.4070	 5.5040
 5.4130	 5.5040
 5.4180	 5.5130
 5.4240	 5.5250
 5.4300	 5.5150
 5.4350	 5.5110
 5.4410	 5.4640
 5.4470	 5.4840
 5.4530	 5.4730
 5.4580	 5.4650
 5.4640	 5.4120
 5.4700	 5.4420
 5.4760	 5.4940
 5.4810	 5.5260
 5.4870	 5.4140
 5.4930	 5.3680
 5.4990	 5.3650
 5.5050	 5.3840
 5.5110	 5.3510
 5.5160	 5.3740
 5.5220	 5.3950
 5.5280	 5.4160
 5.5340	 5.4030
 5.5400	 5.3830
 5.5460	 5.3740
 5.5520	 5.4310
 5.5580	 5.4180
 5.5640	 5.4260
 5.5700	 5.3620
 5.5760	 5.3940
 5.5820	 5.3730
 5.5880	 5.3340
 5.5940	 5.3360
 5.6000	 5.3280
 5.6060	 5.2820
 5.6120	 5.3780
 5.6180	 5.3110
 5.6240	 5.2510
 5.6300	 5.3140
 5.6360	 5.3330
 5.6420	 5.2470
 5.6490	 5.2700
 5.6550	 5.2280
 5.6610	 5.1700
 5.6670	 5.1380
 5.6730	 5.2000
 5.6800	 5.1690
 5.6860	 5.1830
 5.6920	 5.1570
 5.6980	 5.1490
 5.7040	 5.0930
 5.7110	 5.1250
 5.7170	 5.0690
 5.7230	 4.9540
 5.7300	 4.8200
 5.7360	 4.8150
 5.7420	 4.7740
 5.7490	 4.9040
 5.7550	 5.0820
 5.7620	 5.3260
 5.7680	 5.4550
 5.7740	 5.5890
 5.7810	 5.6120
 5.7870	 5.6870
 5.7940	 5.7250
 5.8000	 5.7870
 5.8070	 5.7100
 5.8130	 5.6590
 5.8200	 5.6920
 5.8260	 5.7400
 5.8330	 5.7060
 5.8390	 5.6990
 5.8460	 5.6400
 5.8530	 5.7330
 5.8590	 5.7320
 5.8660	 5.7100
 5.8720	 5.7000
 5.8790	 5.7940
 5.8860	 5.7640
 5.8920	 5.7610
 5.8990	 5.7140
 5.9060	 5.7590
 5.9130	 5.7330
 5.9190	 5.7510
 5.9260	 5.7670
 5.9330	 5.8030
 5.9400	 5.7180
 5.9470	 5.7120
 5.9530	 5.7120
 5.9600	 5.6620
 5.9670	 5.6950
 5.9740	 5.8120
 5.9810	 5.7580
 5.9880	 5.7320
 5.9950	 5.6990
 6.0020	 5.7380
 6.0090	 5.7570
 6.0160	 5.7590
 6.0230	 5.7630
 6.0300	 5.8890
 6.0370	 5.7780
 6.0440	 5.7140
 6.0510	 5.7070
 6.0580	 5.7290
 6.0650	 5.6600
 6.0720	 5.7260
 6.0790	 5.7290
 6.0860	 5.6870
 6.0930	 5.6530
 6.1000	 5.7120
 6.1080	 5.6830
 6.1150	 5.8190
 6.1220	 5.7890
 6.1290	 5.7690
 6.1370	 5.7150
 6.1440	 5.7270
 6.1510	 5.6950
 6.1580	 5.6910
 6.1660	 5.6760
 6.1730	 5.7200
 6.1800	 5.7110
 6.1880	 5.7640
 6.1950	 5.7260
 6.2030	 5.7720
 6.2100	 5.7880
 6.2170	 5.7750
 6.2250	 5.6550
 6.2320	 5.6920
 6.2400	 5.6100
 6.2470	 5.6580
 6.2550	 5.6330
 6.2630	 5.6990
 6.2700	 5.6190
 6.2780	 5.6090
 6.2850	 5.6170
 6.2930	 5.6680
 6.3010	 5.6100
 6.3080	 5.7170
 6.3160	 5.6940
 6.3240	 5.6600
 6.3310	 5.5850
 6.3390	 5.6510
 6.3470	 5.6360
 6.3550	 5.6500
 6.3620	 5.5980
 6.3700	 5.6670
 6.3780	 5.6340
 6.3860	 5.6010
 6.3940	 5.5860
 6.4020	 5.6250
 6.4100	 5.5510
 6.4180	 5.6080
 6.4260	 5.5930
 6.4330	 5.6710
 6.4410	 5.6510
 6.4490	 5.6080
 6.4580	 5.5230
 6.4660	 5.5820
 6.4740	 5.5400
 6.4820	 5.5470
 6.4900	 5.5150
 6.4980	 5.5450
 6.5060	 5.4600
 6.5140	 5.4780
 6.5230	 5.4270
 6.5310	 5.4090
 6.5390	 5.4010
 6.5470	 5.4710
 6.5550	 5.4450
 6.5640	 5.4720
 6.5720	 5.3980
 6.5800	 5.3860
 6.5890	 5.3700
 6.5970	 5.4330
 6.6060	 5.4390
 6.6140	 5.4700
 6.6220	 5.3840
 6.6310	 5.4420
 6.6390	 5.4460
 6.6480	 5.4610
 6.6560	 5.3620
 6.6650	 5.3040
 6.6740	 5.2710
 6.6820	 5.3140
 6.6910	 5.2920
 6.6990	 5.3750
 6.7080	 5.3460
 6.7170	 5.3240
 6.7260	 5.2700
 6.7340	 5.3170
 6.7430	 5.2560
 6.7520	 5.2670
 6.7610	 5.1840
 6.7690	 5.1470
 6.7780	 5.1140
 6.7870	 5.5350
 6.7960	 5.8400
 6.8050	 5.7420
 6.8140	 5.4690
 6.8230	 5.4670
 6.8320	 5.6890
 6.8410	 6.0990
 6.8500	 6.0330
 6.8590	 5.8700
 6.8680	 5.7320
 6.8770	 5.7410
 6.8860	 5.7520
 6.8950	 5.8310
 6.9050	 5.7250
 6.9140	 5.6890
 6.9230	 5.5960
 6.9320	 5.6380
 6.9420	 5.5760
 6.9510	 5.5550
 6.9600	 5.6070
 6.9700	 5.7010
 6.9790	 5.5750
 6.9880	 5.5930
 6.9980	 5.5540
 7.0070	 5.6260
 7.0170	 5.6260
 7.0260	 5.6490
 7.0360	 5.6100
 7.0450	 5.6180
 7.0550	 5.5340
 7.0650	 5.5780
 7.0740	 5.5510
 7.0840	 5.6520
 7.0940	 5.6060
 7.1030	 5.6030
 7.1130	 5.5590
 7.1230	 5.5940
 7.1330	 5.4980
 7.1420	 5.5590
 7.1520	 5.5130
 7.1620	 5.5890
 7.1720	 5.5430
 7.1820	 5.5220
 7.1920	 5.4180
 7.2020	 5.4970
 7.2120	 5.4640
 7.2220	 5.5100
 7.2320	 5.4630
 7.2420	 5.4300
 7.2520	 5.4040
 7.2620	 5.4970
 7.2730	 5.4750
 7.2830	 5.5320
 7.2930	 5.3960
 7.3030	 5.4370
 7.3140	 5.4530
 7.3240	 5.5480
 7.3340	 5.4790
 7.3450	 5.4760
 7.3550	 5.4410
 7.3660	 5.5140
 7.3760	 5.4130
 7.3870	 5.4420
 7.3970	 5.4550
 7.4080	 5.5350
 7.4180	 5.4590
 7.4290	 5.4780
 7.4400	 5.4280
 7.4500	 5.4690
 7.4610	 5.4170
 7.4720	 5.4500
 7.4830	 5.4050
 7.4930	 5.4120
 7.5040	 5.3440
 7.5150	 5.4440
 7.5260	 5.3690
 7.5370	 5.3680
 7.5480	 5.3500
 7.5590	 5.4580
 7.5700	 5.3460
 7.5810	 5.3570
 7.5920	 5.3410
 7.6030	 5.4450
 7.6140	 5.4240
 7.6260	 5.5190
 7.6370	 5.4000
 7.6480	 5.3240
 7.6590	 5.2590
 7.6710	 5.3450
 7.6820	 5.2770
 7.6930	 5.3120
 7.7050	 5.2820
 7.7160	 5.3280
 7.7280	 5.2500
 7.7390	 5.2970
 7.7510	 5.1830
 7.7630	 5.2620
 7.7740	 5.2330
 7.7860	 5.2600
 7.7980	 5.1760
 7.8090	 5.2620
 7.8210	 5.2070
 7.8330	 5.2380
 7.8450	 5.1780
 7.8570	 5.2530
 7.8690	 5.2290
 7.8810	 5.2960
 7.8930	 5.1740
 7.9050	 5.2120
 7.9170	 5.1640
 7.9290	 5.3130
 7.9410	 5.2800
 7.9530	 5.2860
 7.9650	 5.1130
 7.9780	 5.1960
 7.9900	 5.2380
 8.0020	 5.3190
 8.0150	 5.1690
 8.0270	 5.2000
 8.0390	 5.1450
 8.0520	 5.2910
 8.0640	 5.2380
 8.0770	 5.2630
 8.0900	 5.1960
 8.1020	 5.2780
 8.1150	 5.2930
 8.1280	 5.3840
 8.1400	 5.2940
 8.1530	 5.3850
 8.1660	 5.2800
 8.1790	 5.2630
 8.1920	 5.1250
 8.2050	 5.2220
 8.2180	 5.1240
 8.2310	 5.1960
 8.2440	 5.1580
 8.2570	 5.3230
 8.2700	 5.2740
 8.2830	 5.2850
 8.2970	 5.1860
 8.3100	 5.2820
 8.3230	 5.1390
 8.3370	 5.1830
 8.3500	 5.0060
 8.3640	 5.0320
 8.3770	 5.0740
 8.3910	 5.2670
 8.4040	 5.2390
 8.4180	 5.3570
 8.4320	 5.1920
 8.4450	 5.2330
 8.4590	 5.1680
 8.4730	 5.2980
 8.4870	 5.2710
 8.5010	 5.3360
 8.5150	 5.2930
 8.5290	 5.4090
 8.5430	 5.2790
 8.5570	 5.3720
 8.5710	 5.3540
 8.5850	 5.5250
 8.5990	 5.4370
 8.6140	 5.6000
 8.6280	 5.5660
 8.6420	 5.7300
 8.6570	 5.6840
 8.6710	 5.6020
 8.6860	 5.3160
 8.7000	 5.4840
 8.7150	 5.5530
 8.7300	 5.7580
 8.7440	 5.6190
 8.7590	 5.6050
 8.7740	 5.5720
 8.7890	 5.7640
 8.8040	 5.6730
 8.8190	 5.8070
 8.8340	 5.7090
 8.8490	 5.6900
 8.8640	 5.5410
 8.8790	 5.6610
 8.8940	 5.5850
 8.9100	 5.7160
 8.9250	 5.6080
 8.9400	 5.6900
 8.9560	 5.5170
 8.9710	 5.6250
 8.9870	 5.6010
 9.0020	 5.7330
 9.0180	 5.5830
 9.0340	 5.6620
 9.0500	 5.6080
 9.0650	 5.7160
 9.0810	 5.5570
 9.0970	 5.6960
 9.1130	 5.6090
 9.1290	 5.6470
 9.1450	 5.5740
 9.1610	 5.8530
 9.1780	 5.6970
 9.1940	 5.7450
 9.2100	 5.6610
 9.2270	 5.7620
 9.2430	 5.5340
 9.2600	 5.6820
 9.2760	 5.6480
 9.2930	 5.8230
 9.3090	 5.7180
 9.3260	 5.7790
 9.3430	 5.6670
 9.3600	 5.7850
 9.3770	 5.6410
 9.3940	 5.7570
 9.4110	 5.6840
 9.4280	 5.8070
 9.4450	 5.6510
 9.4620	 5.7720
 9.4800	 5.7120
 9.4970	 5.9560
 9.5140	 5.8410
 9.5320	 5.9410
 9.5500	 5.8020
 9.5670	 5.8730
 9.5850	 5.7320
 9.6030	 6.0030
 9.6200	 5.9970
 9.6380	 5.9990
 9.6560	 5.7750
 9.6740	 5.8050
 9.6920	 5.6340
 9.7100	 5.8150
 9.7290	 5.7280
 9.7470	 5.8070
 9.7650	 5.6570
 9.7840	 5.8210
 9.8020	 5.7400
 9.8210	 5.7910
 9.8390	 5.6060
 9.8580	 5.7090
 9.8770	 5.6870
 9.8960	 5.8760
 9.9150	 5.6420
 9.9340	 5.7480
 9.9530	 5.7540
 9.9720	 5.8320
 9.9910	 5.6590
10.0100	 5.6630
10.0300	 5.4710
10.0490	 5.6170
10.0690	 5.4810
10.0880	 5.5010
10.1080	 5.4080
10.1280	 5.5480
10.1480	 5.4500
10.1670	 5.5440
10.1870	 5.3670
10.2070	 5.5020
10.2280	 5.4270
10.2480	 5.5070
10.2680	 5.4190
10.2890	 5.4820
10.3090	 5.3800
10.3300	 5.4990
10.3500	 5.3330
10.3710	 5.5080
10.3920	 5.3080
10.4120	 5.4590
10.4330	 5.4950
10.4540	 5.6190
10.4760	 5.4530
10.4970	 5.4250
10.5180	 5.2310
10.5390	 5.4050
10.5610	 5.2780
10.5820	 5.4040
10.6040	 5.2060
10.6260	 5.2650
10.6480	 5.1540
10.6700	 5.3440
10.6920	 5.2970
10.7140	 5.3640
10.7360	 5.2830
10.7580	 5.4460
10.7800	 5.2330
10.8030	 5.3550
10.8250	 5.2100
10.8480	 5.2820
10.8710	 5.1580
10.8940	 5.2500
10.9170	 5.1110
10.9400	 5.2430
10.9630	 5.1140
10.9860	 5.2380
11.0090	 5.1290
11.0330	 5.2130
11.0560	 4.9710
11.0800	 4.9940
11.1040	 4.9330
11.1270	 5.3210
11.1510	 5.1770
11.1750	 5.1180
11.2000	 4.9800
11.2240	 5.1700
11.2480	 5.1220
11.2730	 5.5350
11.2970	 5.7170
11.3220	 5.6820
11.3470	 5.2900
11.3720	 5.2640
11.3970	 5.0600
11.4220	 5.3140
11.4470	 5.2870
11.4720	 5.7190
11.4980	 5.3610
11.5230	 5.2160
11.5490	 4.9480
11.5750	 5.2530
11.6000	 5.0370
11.6260	 5.1750
11.6530	 4.9900
11.6790	 5.0880
11.7050	 4.9750
11.7320	 5.1500
11.7580	 5.0050
11.7850	 5.2620
11.8120	 5.0270
11.8390	 5.0890
11.8660	 4.8440
11.8930	 4.9620
11.9200	 4.8180
11.9480	 5.1150
11.9760	 5.0030
12.0030	 5.1370
12.0310	 4.9680
12.0590	 5.1180
12.0870	 5.0410
12.1150	 5.3810
12.1440	 5.2550
12.1720	 5.4290
12.2010	 5.2500
12.2300	 5.4130
12.2590	 5.2430
12.2880	 5.4860
12.3170	 5.3310
12.3460	 5.4040
12.3760	 5.0830
12.4050	 5.1880
12.4350	 5.0140
12.4650	 5.2940
12.4950	 5.2290
12.5250	 5.5130
12.5550	 5.2170
12.5860	 5.2710
12.6170	 5.1940
12.6470	 5.4590
12.6780	 5.2480
12.7090	 5.4850
12.7410	 5.2760
12.7720	 5.5050
12.8030	 5.3790
12.8350	 5.6660
12.8670	 5.5380
12.8990	 5.6430
12.9310	 5.3340
12.9640	 5.6660
12.9960	 5.4910
13.0290	 5.5820
13.0610	 5.2960
13.0940	 5.4860
13.1280	 5.2950
13.1610	 5.6270
13.1940	 5.3930
13.2280	 5.6770
13.2620	 5.4820
13.2960	 5.7120
13.3300	 5.4480
13.3640	 5.6270
13.3990	 5.2020
13.4340	 5.2910
13.4690	 5.0560
13.5040	 5.5220
13.5390	 5.3860
13.5740	 5.4260
13.6100	 5.0860
13.6460	 5.3460
13.6820	 5.4730
13.7180	 6.1080
13.7540	 5.6660
13.7910	 5.7650
13.8280	 5.6310
13.8650	 6.1370
13.9020	 6.1240
13.9390	 6.3460
13.9770	 5.8350
14.0150	 6.0950
14.0530	 5.7770
14.0910	 6.0830
14.1290	 5.7850
14.1680	 6.0540
14.2070	 5.4780
14.2460	 5.7390
14.2850	 5.7300
14.3240	 6.1860
14.3640	 5.7500
14.4040	 5.9140
14.4440	 5.5250
14.4840	 6.0400
14.5250	 5.6530
14.5660	 6.1880
14.6070	 5.9720
14.6480	 6.2490
14.6900	 5.6050
14.7310	 5.9110
14.7730	 5.7150
14.8150	 6.5130
14.8580	 6.0740
14.9010	 6.2220
14.9440	 5.6380
14.9870	 5.9970
15.0300	 5.1390
15.0740	 5.8240
15.1180	 5.3880
15.1620	 5.9780
15.2060	 5.6330
15.2510	 6.2550
15.2960	 5.6550
15.3410	 6.0530
15.3870	 5.1320
