Name: Quercus lobata 1
Type: vegetation
Class: Tree
Genus: Quercus
Species: lobata
Sample No.: VH281
Owner: UCSB
Wavelength Range: TIR
Origin: 34.7139; -120.0598; WGS84
Collection Date: 11/2/2013
Description: Samples were collected as part of the HyspIRI Airborne Campaign. 48 individual plants were sampled in three times in 2013 - spring  summer  and fall. The name of the sample includes a 1  2  or 3 which references a different individual of the species. Samples were taken to JPL and processed within 48 hours of collection. The same leaves were processed in the Nicolet and then measured using the ASD.
Measurement: Hemispherical reflectance
First Column: X
Second Column: Y
X Units: Wavelength (micrometers)
Y Units: Reflectance (percentage)
First X Value: 2.501
Last X Value: 15.387
Number of X Values: 1737
Additional Information: vegetation.tree.quercus.lobata.tir.vh281.ucsb.nicolet.ancillary.txt

 2.5010	10.8140
 2.5030	10.6980
 2.5040	10.6930
 2.5050	10.6960
 2.5060	10.7750
 2.5070	10.8190
 2.5090	10.9100
 2.5100	10.9890
 2.5110	10.9180
 2.5120	10.6770
 2.5140	10.7420
 2.5150	10.8680
 2.5160	10.8420
 2.5170	10.7970
 2.5180	10.8550
 2.5200	10.8010
 2.5210	10.7320
 2.5220	10.7370
 2.5230	10.7960
 2.5250	10.7900
 2.5260	10.8390
 2.5270	10.7040
 2.5280	10.5940
 2.5290	10.5800
 2.5310	10.6660
 2.5320	10.6830
 2.5330	10.8410
 2.5340	10.8960
 2.5360	10.8900
 2.5370	10.8290
 2.5380	10.8440
 2.5390	10.8630
 2.5410	10.7860
 2.5420	10.7370
 2.5430	10.8380
 2.5440	10.8250
 2.5460	10.9170
 2.5470	10.8410
 2.5480	10.9120
 2.5490	10.9340
 2.5510	10.8090
 2.5520	10.8270
 2.5530	10.9530
 2.5540	10.8610
 2.5560	10.8580
 2.5570	10.8650
 2.5580	10.9460
 2.5590	10.9990
 2.5610	11.0090
 2.5620	11.0060
 2.5630	11.0740
 2.5640	11.0140
 2.5660	11.0910
 2.5670	11.0650
 2.5680	11.0720
 2.5700	11.0840
 2.5710	11.0560
 2.5720	11.0000
 2.5730	11.0570
 2.5750	10.9660
 2.5760	10.8290
 2.5770	10.7380
 2.5790	10.8140
 2.5800	10.7840
 2.5810	10.9980
 2.5820	11.1370
 2.5840	11.1220
 2.5850	10.9270
 2.5860	10.8270
 2.5880	10.8220
 2.5890	10.9470
 2.5900	10.9990
 2.5910	11.1110
 2.5930	11.1330
 2.5940	11.1580
 2.5950	11.1590
 2.5970	10.9700
 2.5980	10.7770
 2.5990	10.8480
 2.6000	10.8260
 2.6020	10.7740
 2.6030	10.7590
 2.6040	10.8080
 2.6060	10.8090
 2.6070	10.7890
 2.6080	10.7680
 2.6100	10.9130
 2.6110	10.8310
 2.6120	10.7540
 2.6140	10.8040
 2.6150	10.7590
 2.6160	10.7270
 2.6180	10.8350
 2.6190	10.7510
 2.6200	10.7450
 2.6220	10.7090
 2.6230	10.6470
 2.6240	10.6720
 2.6260	10.6480
 2.6270	10.5740
 2.6280	10.5120
 2.6300	10.5140
 2.6310	10.7070
 2.6320	10.6960
 2.6340	10.6690
 2.6350	10.4760
 2.6360	10.5690
 2.6380	10.5030
 2.6390	10.2760
 2.6400	10.2690
 2.6420	10.3440
 2.6430	10.2640
 2.6440	10.3030
 2.6460	10.3580
 2.6470	10.3270
 2.6480	10.2030
 2.6500	10.0870
 2.6510	10.1570
 2.6520	10.2260
 2.6540	10.1010
 2.6550	10.2500
 2.6560	10.3170
 2.6580	10.3020
 2.6590	10.1750
 2.6610	10.1180
 2.6620	10.1300
 2.6630	10.0930
 2.6650	10.0330
 2.6660	10.1240
 2.6670	 9.9940
 2.6690	 9.8870
 2.6700	 9.8410
 2.6720	 9.8690
 2.6730	 9.8800
 2.6740	 9.9850
 2.6760	 9.9860
 2.6770	 9.9620
 2.6780	 9.9070
 2.6800	10.0390
 2.6810	 9.9360
 2.6830	 9.6250
 2.6840	 9.4250
 2.6850	 9.5520
 2.6870	 9.6790
 2.6880	 9.6410
 2.6900	 9.5090
 2.6910	 9.5350
 2.6920	 9.5780
 2.6940	 9.5340
 2.6950	 9.4000
 2.6970	 9.2980
 2.6980	 9.1500
 2.6990	 9.2090
 2.7010	 9.2390
 2.7020	 9.1500
 2.7040	 8.9430
 2.7050	 8.7800
 2.7060	 8.7180
 2.7080	 8.7500
 2.7090	 8.7100
 2.7110	 8.7000
 2.7120	 8.5990
 2.7130	 8.5690
 2.7150	 8.4330
 2.7160	 8.3080
 2.7180	 8.3470
 2.7190	 8.4750
 2.7210	 8.3510
 2.7220	 8.2820
 2.7230	 8.2420
 2.7250	 8.1890
 2.7260	 7.9870
 2.7280	 7.7530
 2.7290	 7.6110
 2.7310	 7.6750
 2.7320	 7.6840
 2.7330	 7.4410
 2.7350	 7.2530
 2.7360	 7.1540
 2.7380	 7.1090
 2.7390	 7.1890
 2.7410	 6.9360
 2.7420	 6.7390
 2.7440	 6.7100
 2.7450	 6.7450
 2.7470	 6.8310
 2.7480	 6.8580
 2.7490	 6.6950
 2.7510	 6.7140
 2.7520	 6.8390
 2.7540	 6.5620
 2.7550	 6.2520
 2.7570	 6.5850
 2.7580	 6.4480
 2.7600	 6.1150
 2.7610	 6.0630
 2.7630	 6.2070
 2.7640	 6.0830
 2.7660	 6.0430
 2.7670	 6.0960
 2.7680	 6.1150
 2.7700	 5.9800
 2.7710	 5.8680
 2.7730	 5.8900
 2.7740	 5.9240
 2.7760	 5.8080
 2.7770	 5.8990
 2.7790	 5.8770
 2.7800	 5.8780
 2.7820	 5.9530
 2.7830	 5.8390
 2.7850	 5.6050
 2.7860	 5.4960
 2.7880	 5.6070
 2.7890	 5.6620
 2.7910	 5.4300
 2.7920	 5.4140
 2.7940	 5.5860
 2.7950	 5.6990
 2.7970	 5.7050
 2.7980	 5.5660
 2.8000	 5.4240
 2.8010	 5.6060
 2.8030	 5.4540
 2.8040	 5.3840
 2.8060	 5.5180
 2.8070	 5.6080
 2.8090	 5.4900
 2.8110	 5.3780
 2.8120	 5.2610
 2.8140	 5.3260
 2.8150	 5.4030
 2.8170	 5.4920
 2.8180	 5.3190
 2.8200	 5.2290
 2.8210	 5.2930
 2.8230	 5.2930
 2.8240	 5.1360
 2.8260	 5.2510
 2.8270	 5.3950
 2.8290	 5.3760
 2.8300	 5.2680
 2.8320	 5.3520
 2.8340	 5.3280
 2.8350	 5.3960
 2.8370	 5.4020
 2.8380	 5.1730
 2.8400	 5.0070
 2.8410	 5.1110
 2.8430	 5.0290
 2.8440	 5.0580
 2.8460	 5.1130
 2.8480	 5.2370
 2.8490	 5.3140
 2.8510	 5.2690
 2.8520	 5.1540
 2.8540	 5.0880
 2.8550	 5.0850
 2.8570	 5.2610
 2.8590	 5.2690
 2.8600	 5.2690
 2.8620	 5.0750
 2.8630	 5.1010
 2.8650	 5.2250
 2.8660	 5.1390
 2.8680	 5.0460
 2.8700	 5.0890
 2.8710	 5.0730
 2.8730	 5.1590
 2.8740	 5.1260
 2.8760	 5.0860
 2.8780	 5.0740
 2.8790	 5.4390
 2.8810	 5.2460
 2.8820	 4.9210
 2.8840	 4.9960
 2.8860	 5.0200
 2.8870	 4.7340
 2.8890	 4.7600
 2.8900	 5.0830
 2.8920	 5.1390
 2.8940	 4.9990
 2.8950	 5.0010
 2.8970	 5.0350
 2.8980	 5.1040
 2.9000	 5.1660
 2.9020	 5.1620
 2.9030	 4.8440
 2.9050	 4.8420
 2.9070	 4.9100
 2.9080	 4.8590
 2.9100	 4.8180
 2.9120	 4.9840
 2.9130	 4.9980
 2.9150	 5.2240
 2.9160	 5.2060
 2.9180	 5.1980
 2.9200	 5.3050
 2.9210	 5.2720
 2.9230	 5.0970
 2.9250	 5.0010
 2.9260	 4.8520
 2.9280	 4.8200
 2.9300	 5.0180
 2.9310	 5.1560
 2.9330	 5.0030
 2.9350	 4.9870
 2.9360	 4.9480
 2.9380	 5.0180
 2.9400	 5.1510
 2.9410	 5.2930
 2.9430	 5.1110
 2.9450	 5.1040
 2.9460	 5.1980
 2.9480	 5.2120
 2.9500	 5.2180
 2.9510	 4.9400
 2.9530	 5.0180
 2.9550	 5.6090
 2.9560	 5.3210
 2.9580	 5.2240
 2.9600	 5.1900
 2.9610	 4.7050
 2.9630	 5.0980
 2.9650	 5.9570
 2.9660	 5.7720
 2.9680	 5.7290
 2.9700	 5.1770
 2.9720	 4.2110
 2.9730	 4.5240
 2.9750	 5.7150
 2.9770	 6.1130
 2.9780	 5.5460
 2.9800	 4.8280
 2.9820	 4.2090
 2.9840	 4.6670
 2.9850	 4.7930
 2.9870	 4.3940
 2.9890	 4.1300
 2.9900	 4.7390
 2.9920	 6.0740
 2.9940	 6.9160
 2.9960	 5.6670
 2.9970	 4.2490
 2.9990	 4.4580
 3.0010	 4.4600
 3.0030	 4.8450
 3.0040	 4.9930
 3.0060	 5.0390
 3.0080	 4.9120
 3.0100	 5.5290
 3.0110	 5.3920
 3.0130	 4.8490
 3.0150	 5.0930
 3.0170	 5.1390
 3.0180	 4.9950
 3.0200	 4.8320
 3.0220	 4.9380
 3.0240	 5.4240
 3.0250	 5.4240
 3.0270	 5.2710
 3.0290	 5.2630
 3.0310	 5.3900
 3.0320	 5.4470
 3.0340	 5.3460
 3.0360	 5.0890
 3.0380	 5.3720
 3.0400	 5.0960
 3.0410	 4.9150
 3.0430	 5.7920
 3.0450	 5.5940
 3.0470	 3.9940
 3.0480	 4.3280
 3.0500	 5.1010
 3.0520	 5.2430
 3.0540	 6.0230
 3.0560	 6.0250
 3.0570	 5.6430
 3.0590	 5.3690
 3.0610	 4.9800
 3.0630	 4.9050
 3.0650	 4.9460
 3.0660	 5.3810
 3.0680	 5.8570
 3.0700	 5.7250
 3.0720	 5.0140
 3.0740	 5.0530
 3.0760	 5.5550
 3.0770	 5.8080
 3.0790	 5.5260
 3.0810	 5.4420
 3.0830	 5.4210
 3.0850	 5.6980
 3.0870	 5.6660
 3.0880	 5.6650
 3.0900	 5.5870
 3.0920	 5.5810
 3.0940	 5.5060
 3.0960	 5.5490
 3.0980	 5.6140
 3.0990	 5.5990
 3.1010	 5.6750
 3.1030	 5.7280
 3.1050	 5.5830
 3.1070	 5.6520
 3.1090	 5.7590
 3.1110	 5.6300
 3.1120	 5.5810
 3.1140	 5.6390
 3.1160	 5.4610
 3.1180	 5.3800
 3.1200	 5.4380
 3.1220	 5.6300
 3.1240	 5.6470
 3.1260	 5.7930
 3.1270	 5.9650
 3.1290	 5.9520
 3.1310	 5.8950
 3.1330	 5.9090
 3.1350	 5.6370
 3.1370	 5.5270
 3.1390	 5.6690
 3.1410	 5.2130
 3.1430	 4.2620
 3.1450	 4.6370
 3.1460	 6.2540
 3.1480	 5.6730
 3.1500	 5.1570
 3.1520	 5.5810
 3.1540	 5.4550
 3.1560	 5.6740
 3.1580	 5.3510
 3.1600	 5.5100
 3.1620	 6.0540
 3.1640	 6.5450
 3.1660	 5.9830
 3.1680	 5.1710
 3.1700	 6.2360
 3.1710	 6.7530
 3.1730	 6.1900
 3.1750	 4.7180
 3.1770	 4.2620
 3.1790	 5.0180
 3.1810	 5.7910
 3.1830	 6.0740
 3.1850	 5.4380
 3.1870	 5.4180
 3.1890	 5.7900
 3.1910	 5.8330
 3.1930	 5.6350
 3.1950	 5.9740
 3.1970	 6.0140
 3.1990	 6.0250
 3.2010	 5.9820
 3.2030	 6.1710
 3.2050	 6.1690
 3.2070	 6.0190
 3.2090	 5.8870
 3.2110	 5.9570
 3.2130	 6.0160
 3.2150	 6.2830
 3.2170	 6.2570
 3.2190	 6.1690
 3.2210	 6.0190
 3.2230	 6.1580
 3.2250	 6.3210
 3.2270	 6.3570
 3.2290	 6.2110
 3.2310	 6.1180
 3.2330	 6.1480
 3.2350	 6.4320
 3.2370	 6.3180
 3.2390	 6.0380
 3.2410	 5.8200
 3.2430	 6.0430
 3.2450	 6.2340
 3.2470	 6.3250
 3.2490	 6.3180
 3.2510	 6.4650
 3.2530	 6.4530
 3.2550	 6.4900
 3.2570	 6.3560
 3.2590	 6.4530
 3.2610	 6.5780
 3.2630	 6.5950
 3.2650	 6.5300
 3.2670	 6.5260
 3.2690	 6.3980
 3.2720	 6.4130
 3.2740	 6.5030
 3.2760	 6.6340
 3.2780	 6.7030
 3.2800	 6.7230
 3.2820	 6.6410
 3.2840	 6.7170
 3.2860	 6.6480
 3.2880	 6.6980
 3.2900	 6.7990
 3.2920	 6.9560
 3.2940	 6.7620
 3.2960	 6.7750
 3.2990	 6.8430
 3.3010	 6.6640
 3.3030	 6.5680
 3.3050	 6.6680
 3.3070	 6.5870
 3.3090	 6.7500
 3.3110	 6.8750
 3.3130	 6.9970
 3.3150	 6.8240
 3.3180	 6.7930
 3.3200	 6.8880
 3.3220	 6.8860
 3.3240	 6.7260
 3.3260	 6.7260
 3.3280	 6.6860
 3.3300	 6.6940
 3.3330	 6.6950
 3.3350	 6.7740
 3.3370	 6.8440
 3.3390	 6.8970
 3.3410	 6.7710
 3.3430	 6.7350
 3.3450	 6.7530
 3.3480	 6.7120
 3.3500	 6.6020
 3.3520	 6.5580
 3.3540	 6.5830
 3.3560	 6.6800
 3.3580	 6.5320
 3.3610	 6.4770
 3.3630	 6.3710
 3.3650	 6.3040
 3.3670	 6.3380
 3.3690	 6.4070
 3.3720	 6.3320
 3.3740	 6.3850
 3.3760	 6.2740
 3.3780	 6.1480
 3.3800	 6.1020
 3.3830	 6.1170
 3.3850	 6.0500
 3.3870	 6.0390
 3.3890	 5.9370
 3.3910	 5.9570
 3.3940	 6.0250
 3.3960	 6.1350
 3.3980	 6.0480
 3.4000	 6.0420
 3.4020	 5.9940
 3.4050	 6.0300
 3.4070	 5.9900
 3.4090	 6.0460
 3.4110	 6.1820
 3.4140	 6.3450
 3.4160	 6.5000
 3.4180	 6.6470
 3.4200	 6.6540
 3.4230	 6.7660
 3.4250	 6.8400
 3.4270	 7.0240
 3.4290	 7.2190
 3.4320	 7.2890
 3.4340	 7.0920
 3.4360	 7.0570
 3.4390	 7.1550
 3.4410	 7.0120
 3.4430	 6.8120
 3.4450	 6.8310
 3.4480	 6.8520
 3.4500	 6.9800
 3.4520	 6.8820
 3.4550	 6.8850
 3.4570	 6.8940
 3.4590	 6.9980
 3.4620	 7.0910
 3.4640	 7.1140
 3.4660	 7.0020
 3.4680	 6.9980
 3.4710	 6.9120
 3.4730	 6.8740
 3.4750	 6.9230
 3.4780	 6.9800
 3.4800	 6.8960
 3.4820	 6.8580
 3.4850	 6.7430
 3.4870	 6.6830
 3.4890	 6.6400
 3.4920	 6.6990
 3.4940	 6.7270
 3.4970	 6.6350
 3.4990	 6.5630
 3.5010	 6.7820
 3.5040	 6.9520
 3.5060	 7.2790
 3.5080	 7.5300
 3.5110	 7.7430
 3.5130	 7.8670
 3.5160	 7.9880
 3.5180	 7.9410
 3.5200	 7.9080
 3.5230	 7.9270
 3.5250	 8.0080
 3.5270	 8.0010
 3.5300	 8.0700
 3.5320	 8.1590
 3.5350	 8.1780
 3.5370	 8.1790
 3.5400	 8.1640
 3.5420	 8.1520
 3.5440	 8.1830
 3.5470	 8.1650
 3.5490	 8.2490
 3.5520	 8.2690
 3.5540	 8.2740
 3.5570	 8.2590
 3.5590	 8.3200
 3.5610	 8.3170
 3.5640	 8.3550
 3.5660	 8.3970
 3.5690	 8.3730
 3.5710	 8.4310
 3.5740	 8.4480
 3.5760	 8.3220
 3.5790	 8.3040
 3.5810	 8.3310
 3.5840	 8.2880
 3.5860	 8.1720
 3.5890	 8.3860
 3.5910	 8.3970
 3.5930	 8.3530
 3.5960	 8.3880
 3.5980	 8.4600
 3.6010	 8.5930
 3.6030	 8.6120
 3.6060	 8.4070
 3.6080	 8.2810
 3.6110	 8.3410
 3.6140	 8.3760
 3.6160	 8.2490
 3.6190	 8.2640
 3.6210	 8.4080
 3.6240	 8.4690
 3.6260	 8.4130
 3.6290	 8.4500
 3.6310	 8.5150
 3.6340	 8.5880
 3.6360	 8.5040
 3.6390	 8.4390
 3.6410	 8.4760
 3.6440	 8.5200
 3.6470	 8.4930
 3.6490	 8.5700
 3.6520	 8.5640
 3.6540	 8.4940
 3.6570	 8.4840
 3.6590	 8.6470
 3.6620	 8.6600
 3.6650	 8.6800
 3.6670	 8.5530
 3.6700	 8.5990
 3.6720	 8.6900
 3.6750	 8.6490
 3.6780	 8.5390
 3.6800	 8.6190
 3.6830	 8.6840
 3.6850	 8.6720
 3.6880	 8.6490
 3.6910	 8.6380
 3.6930	 8.5760
 3.6960	 8.5660
 3.6990	 8.5330
 3.7010	 8.6680
 3.7040	 8.7260
 3.7060	 8.6390
 3.7090	 8.6690
 3.7120	 8.7330
 3.7140	 8.6770
 3.7170	 8.6340
 3.7200	 8.6040
 3.7220	 8.6310
 3.7250	 8.5870
 3.7280	 8.6300
 3.7300	 8.6830
 3.7330	 8.7180
 3.7360	 8.7430
 3.7390	 8.7970
 3.7410	 8.7610
 3.7440	 8.7910
 3.7470	 8.7740
 3.7490	 8.7240
 3.7520	 8.7340
 3.7550	 8.7620
 3.7580	 8.6430
 3.7600	 8.6970
 3.7630	 8.8560
 3.7660	 8.9290
 3.7680	 8.9060
 3.7710	 8.9460
 3.7740	 8.9540
 3.7770	 8.9250
 3.7790	 8.7900
 3.7820	 8.8770
 3.7850	 8.9310
 3.7880	 8.9760
 3.7900	 8.9630
 3.7930	 8.9560
 3.7960	 8.9230
 3.7990	 8.9840
 3.8020	 8.9870
 3.8040	 8.8910
 3.8070	 8.8930
 3.8100	 9.0130
 3.8130	 8.9720
 3.8160	 8.8400
 3.8180	 8.8180
 3.8210	 8.9130
 3.8240	 8.8740
 3.8270	 8.8840
 3.8300	 8.9410
 3.8330	 9.0190
 3.8350	 9.0140
 3.8380	 9.0740
 3.8410	 9.0860
 3.8440	 9.1060
 3.8470	 9.1280
 3.8500	 9.0600
 3.8520	 9.0630
 3.8550	 9.1390
 3.8580	 9.1190
 3.8610	 9.1320
 3.8640	 9.0940
 3.8670	 9.1000
 3.8700	 9.0960
 3.8730	 9.1100
 3.8750	 9.1200
 3.8780	 9.1670
 3.8810	 9.0970
 3.8840	 9.0790
 3.8870	 9.1040
 3.8900	 9.1470
 3.8930	 9.1470
 3.8960	 9.1530
 3.8990	 9.1320
 3.9020	 9.1780
 3.9050	 9.1020
 3.9080	 8.9980
 3.9110	 9.1360
 3.9140	 9.2420
 3.9160	 9.1290
 3.9190	 9.1160
 3.9220	 9.1530
 3.9250	 9.1700
 3.9280	 9.0910
 3.9310	 9.1540
 3.9340	 9.2160
 3.9370	 9.2030
 3.9400	 9.1500
 3.9430	 9.2050
 3.9460	 9.1900
 3.9490	 9.1350
 3.9520	 9.0660
 3.9550	 9.1640
 3.9580	 9.2070
 3.9610	 9.2150
 3.9640	 9.2670
 3.9670	 9.3000
 3.9700	 9.2650
 3.9730	 9.2890
 3.9770	 9.2270
 3.9800	 9.1410
 3.9830	 9.1620
 3.9860	 9.1430
 3.9890	 9.1550
 3.9920	 9.2040
 3.9950	 9.2010
 3.9980	 9.2500
 4.0010	 9.2160
 4.0040	 9.2180
 4.0070	 9.2520
 4.0100	 9.3900
 4.0130	 9.4120
 4.0170	 9.3140
 4.0200	 9.2230
 4.0230	 9.2930
 4.0260	 9.3020
 4.0290	 9.2670
 4.0320	 9.2300
 4.0350	 9.2410
 4.0380	 9.2390
 4.0420	 9.2800
 4.0450	 9.3050
 4.0480	 9.2530
 4.0510	 9.2190
 4.0540	 9.2750
 4.0570	 9.2680
 4.0610	 9.2510
 4.0640	 9.1270
 4.0670	 9.1110
 4.0700	 9.1690
 4.0730	 9.2720
 4.0770	 9.2030
 4.0800	 9.2330
 4.0830	 9.3030
 4.0860	 9.2650
 4.0890	 9.2250
 4.0930	 9.2710
 4.0960	 9.2840
 4.0990	 9.3450
 4.1020	 9.4370
 4.1060	 9.4230
 4.1090	 9.3160
 4.1120	 9.3900
 4.1150	 9.5080
 4.1190	 9.4250
 4.1220	 9.3310
 4.1250	 9.3700
 4.1280	 9.3440
 4.1320	 9.3580
 4.1350	 9.3210
 4.1380	 9.3080
 4.1420	 9.3240
 4.1450	 9.3850
 4.1480	 9.3490
 4.1520	 9.3210
 4.1550	 9.3170
 4.1580	 9.2950
 4.1620	 9.2980
 4.1650	 9.3440
 4.1680	 9.3410
 4.1720	 9.3290
 4.1750	 9.2920
 4.1780	 9.3260
 4.1820	 9.3450
 4.1850	 9.3780
 4.1890	 9.3650
 4.1920	 9.2910
 4.1950	 9.2940
 4.1990	 9.4590
 4.2020	 9.4500
 4.2060	 9.4180
 4.2090	 9.4340
 4.2120	 9.3570
 4.2160	 9.3850
 4.2190	 9.4940
 4.2230	 9.3960
 4.2260	 9.4060
 4.2300	 9.5380
 4.2330	 9.8540
 4.2360	 9.8300
 4.2400	 9.6910
 4.2430	 9.5620
 4.2470	 9.6690
 4.2500	 9.4610
 4.2540	 9.2470
 4.2570	 9.3090
 4.2610	 9.4750
 4.2640	 9.5340
 4.2680	 9.6320
 4.2710	 9.5590
 4.2750	 9.4730
 4.2780	 9.4450
 4.2820	 9.5260
 4.2850	 9.5350
 4.2890	 9.4490
 4.2930	 9.3530
 4.2960	 9.4360
 4.3000	 9.6030
 4.3030	 9.5100
 4.3070	 9.5030
 4.3100	 9.4280
 4.3140	 9.3840
 4.3180	 9.3770
 4.3210	 9.2820
 4.3250	 9.2240
 4.3280	 9.3110
 4.3320	 9.3900
 4.3360	 9.3350
 4.3390	 9.2710
 4.3430	 9.1910
 4.3470	 9.2230
 4.3500	 9.2880
 4.3540	 9.2260
 4.3570	 9.2200
 4.3610	 9.2470
 4.3650	 9.2320
 4.3680	 9.2960
 4.3720	 9.2880
 4.3760	 9.2010
 4.3800	 9.1290
 4.3830	 9.1050
 4.3870	 9.0270
 4.3910	 9.0600
 4.3940	 9.0890
 4.3980	 9.1220
 4.4020	 9.0760
 4.4060	 9.0500
 4.4090	 9.0600
 4.4130	 9.0540
 4.4170	 9.0750
 4.4210	 9.0860
 4.4240	 9.0390
 4.4280	 9.0260
 4.4320	 9.0100
 4.4360	 9.0750
 4.4400	 9.1070
 4.4430	 9.0290
 4.4470	 8.9400
 4.4510	 8.9960
 4.4550	 8.9850
 4.4590	 8.9830
 4.4620	 9.0080
 4.4660	 8.9570
 4.4700	 8.9660
 4.4740	 9.0120
 4.4780	 8.9430
 4.4820	 8.9510
 4.4860	 8.9140
 4.4900	 8.8980
 4.4930	 8.9620
 4.4970	 8.9560
 4.5010	 8.9540
 4.5050	 8.9030
 4.5090	 8.8460
 4.5130	 8.8190
 4.5170	 8.8420
 4.5210	 8.8930
 4.5250	 8.8800
 4.5290	 8.8400
 4.5330	 8.8680
 4.5370	 8.9150
 4.5410	 8.9000
 4.5450	 8.8750
 4.5490	 8.9520
 4.5530	 9.0000
 4.5570	 8.8960
 4.5610	 8.8600
 4.5650	 8.9150
 4.5690	 8.9670
 4.5730	 8.9180
 4.5770	 8.8000
 4.5810	 8.7170
 4.5850	 8.7150
 4.5890	 8.7720
 4.5930	 8.7380
 4.5970	 8.6860
 4.6010	 8.7150
 4.6050	 8.7640
 4.6090	 8.7300
 4.6130	 8.7080
 4.6170	 8.7230
 4.6220	 8.6860
 4.6260	 8.6790
 4.6300	 8.6850
 4.6340	 8.6650
 4.6380	 8.7010
 4.6420	 8.7330
 4.6460	 8.7150
 4.6510	 8.7480
 4.6550	 8.7140
 4.6590	 8.5900
 4.6630	 8.6060
 4.6670	 8.6830
 4.6720	 8.6990
 4.6760	 8.7750
 4.6800	 8.7830
 4.6840	 8.7180
 4.6880	 8.7500
 4.6930	 8.7450
 4.6970	 8.6750
 4.7010	 8.6550
 4.7050	 8.7010
 4.7100	 8.7120
 4.7140	 8.6340
 4.7180	 8.6630
 4.7230	 8.6260
 4.7270	 8.6490
 4.7310	 8.7650
 4.7360	 8.7720
 4.7400	 8.7010
 4.7440	 8.6670
 4.7490	 8.7090
 4.7530	 8.7520
 4.7570	 8.7520
 4.7620	 8.7450
 4.7660	 8.7910
 4.7700	 8.8480
 4.7750	 8.8370
 4.7790	 8.7980
 4.7840	 8.7770
 4.7880	 8.7160
 4.7920	 8.7770
 4.7970	 8.8480
 4.8010	 8.8220
 4.8060	 8.7850
 4.8100	 8.6200
 4.8150	 8.6930
 4.8190	 8.7070
 4.8240	 8.7410
 4.8280	 8.7520
 4.8330	 8.6410
 4.8370	 8.5880
 4.8420	 8.6790
 4.8460	 8.7000
 4.8510	 8.7020
 4.8550	 8.6890
 4.8600	 8.6640
 4.8640	 8.6690
 4.8690	 8.6380
 4.8730	 8.6430
 4.8780	 8.7140
 4.8830	 8.7790
 4.8870	 8.7910
 4.8920	 8.7750
 4.8960	 8.7920
 4.9010	 8.7850
 4.9060	 8.7480
 4.9100	 8.7520
 4.9150	 8.7410
 4.9200	 8.7120
 4.9240	 8.7780
 4.9290	 8.8830
 4.9340	 8.8600
 4.9380	 8.7810
 4.9430	 8.7160
 4.9480	 8.7730
 4.9530	 8.8310
 4.9570	 8.8580
 4.9620	 8.9110
 4.9670	 8.8390
 4.9720	 8.7910
 4.9760	 8.8240
 4.9810	 8.7530
 4.9860	 8.7880
 4.9910	 8.8890
 4.9960	 8.8890
 5.0000	 8.8640
 5.0050	 8.8750
 5.0100	 8.8000
 5.0150	 8.7660
 5.0200	 8.8090
 5.0250	 8.8110
 5.0290	 8.7980
 5.0340	 8.8730
 5.0390	 8.8990
 5.0440	 8.8270
 5.0490	 8.8190
 5.0540	 8.8490
 5.0590	 8.7780
 5.0640	 8.7770
 5.0690	 8.8040
 5.0740	 8.7450
 5.0790	 8.7910
 5.0840	 8.8080
 5.0890	 8.7270
 5.0940	 8.7100
 5.0990	 8.7580
 5.1040	 8.7870
 5.1090	 8.8550
 5.1140	 8.8320
 5.1190	 8.8140
 5.1240	 8.8410
 5.1290	 8.8450
 5.1340	 8.8320
 5.1390	 8.7430
 5.1440	 8.7550
 5.1490	 8.8960
 5.1540	 8.8150
 5.1600	 8.6770
 5.1650	 8.7140
 5.1700	 8.7960
 5.1750	 8.8750
 5.1800	 8.8090
 5.1850	 8.7810
 5.1910	 8.7370
 5.1960	 8.7640
 5.2010	 8.7870
 5.2060	 8.7840
 5.2110	 8.7360
 5.2170	 8.7760
 5.2220	 8.7760
 5.2270	 8.7980
 5.2320	 8.7670
 5.2380	 8.5980
 5.2430	 8.4910
 5.2480	 8.6250
 5.2540	 8.6620
 5.2590	 8.6190
 5.2640	 8.7220
 5.2700	 8.6930
 5.2750	 8.6970
 5.2800	 8.7380
 5.2860	 8.6900
 5.2910	 8.6590
 5.2970	 8.5920
 5.3020	 8.5190
 5.3070	 8.4860
 5.3130	 8.5300
 5.3180	 8.5620
 5.3240	 8.5550
 5.3290	 8.5580
 5.3350	 8.5790
 5.3400	 8.5190
 5.3460	 8.4650
 5.3510	 8.4660
 5.3570	 8.4940
 5.3620	 8.4810
 5.3680	 8.4500
 5.3730	 8.4950
 5.3790	 8.5550
 5.3850	 8.4950
 5.3900	 8.4540
 5.3960	 8.4080
 5.4010	 8.4120
 5.4070	 8.3700
 5.4130	 8.4170
 5.4180	 8.4540
 5.4240	 8.3700
 5.4300	 8.2640
 5.4350	 8.2740
 5.4410	 8.3220
 5.4470	 8.3390
 5.4530	 8.2410
 5.4580	 8.1980
 5.4640	 8.1580
 5.4700	 8.1350
 5.4760	 8.1660
 5.4810	 8.1820
 5.4870	 8.0710
 5.4930	 8.0450
 5.4990	 7.9710
 5.5050	 7.8800
 5.5110	 7.8310
 5.5160	 7.8710
 5.5220	 7.9140
 5.5280	 7.8700
 5.5340	 7.7790
 5.5400	 7.7440
 5.5460	 7.7430
 5.5520	 7.7900
 5.5580	 7.6930
 5.5640	 7.5360
 5.5700	 7.4870
 5.5760	 7.5230
 5.5820	 7.4250
 5.5880	 7.3280
 5.5940	 7.2830
 5.6000	 7.1790
 5.6060	 7.0400
 5.6120	 6.9980
 5.6180	 6.9270
 5.6240	 6.9090
 5.6300	 6.8020
 5.6360	 6.7470
 5.6420	 6.6080
 5.6490	 6.3990
 5.6550	 6.2360
 5.6610	 6.1280
 5.6670	 5.9760
 5.6730	 5.8930
 5.6800	 5.8420
 5.6860	 5.8280
 5.6920	 5.6660
 5.6980	 5.5790
 5.7040	 5.5010
 5.7110	 5.5250
 5.7170	 5.4760
 5.7230	 5.4140
 5.7300	 5.2410
 5.7360	 5.0700
 5.7420	 5.0140
 5.7490	 4.9480
 5.7550	 4.9170
 5.7620	 5.1450
 5.7680	 5.2510
 5.7740	 5.2570
 5.7810	 5.2680
 5.7870	 5.4070
 5.7940	 5.4370
 5.8000	 5.5690
 5.8070	 5.7220
 5.8130	 5.7530
 5.8200	 5.7990
 5.8260	 5.9110
 5.8330	 5.8780
 5.8390	 5.9430
 5.8460	 6.0120
 5.8530	 6.1490
 5.8590	 6.2180
 5.8660	 6.3480
 5.8720	 6.4360
 5.8790	 6.5540
 5.8860	 6.6680
 5.8920	 6.7920
 5.8990	 6.7710
 5.9060	 6.6920
 5.9130	 6.6370
 5.9190	 6.5590
 5.9260	 6.5150
 5.9330	 6.6110
 5.9400	 6.5690
 5.9470	 6.4330
 5.9530	 6.3050
 5.9600	 6.2300
 5.9670	 6.1210
 5.9740	 6.1370
 5.9810	 6.1480
 5.9880	 6.1840
 5.9950	 6.0860
 6.0020	 5.8850
 6.0090	 5.8210
 6.0160	 5.7790
 6.0230	 5.5730
 6.0300	 5.6200
 6.0370	 5.6980
 6.0440	 5.9690
 6.0510	 5.9660
 6.0580	 5.9680
 6.0650	 6.0990
 6.0720	 6.1930
 6.0790	 6.0780
 6.0860	 5.9790
 6.0930	 6.0220
 6.1000	 6.2260
 6.1080	 6.3380
 6.1150	 6.2540
 6.1220	 6.0000
 6.1290	 5.9420
 6.1370	 5.9170
 6.1440	 6.1020
 6.1510	 6.0890
 6.1580	 5.8910
 6.1660	 5.8100
 6.1730	 5.9320
 6.1800	 5.8480
 6.1880	 5.9070
 6.1950	 5.9970
 6.2030	 6.0520
 6.2100	 6.0180
 6.2170	 6.1180
 6.2250	 6.1760
 6.2320	 6.1610
 6.2400	 6.0390
 6.2470	 6.1130
 6.2550	 6.2350
 6.2630	 6.4180
 6.2700	 6.4370
 6.2780	 6.4940
 6.2850	 6.5520
 6.2930	 6.6620
 6.3010	 6.6360
 6.3080	 6.6270
 6.3160	 6.5930
 6.3240	 6.7680
 6.3310	 6.8470
 6.3390	 6.8960
 6.3470	 6.8190
 6.3550	 6.7510
 6.3620	 6.7670
 6.3700	 6.9700
 6.3780	 6.9620
 6.3860	 6.9500
 6.3940	 6.9340
 6.4020	 6.9250
 6.4100	 6.9790
 6.4180	 7.1270
 6.4260	 7.1240
 6.4330	 7.1820
 6.4410	 7.1250
 6.4490	 7.0690
 6.4580	 6.9410
 6.4660	 6.9890
 6.4740	 7.0690
 6.4820	 7.1450
 6.4900	 7.1070
 6.4980	 7.1190
 6.5060	 6.9040
 6.5140	 6.9010
 6.5230	 6.8560
 6.5310	 6.6640
 6.5390	 6.4580
 6.5470	 6.3960
 6.5550	 6.2850
 6.5640	 6.2570
 6.5720	 6.1140
 6.5800	 5.9830
 6.5890	 6.0250
 6.5970	 6.2270
 6.6060	 6.2190
 6.6140	 6.2240
 6.6220	 6.2950
 6.6310	 6.5900
 6.6390	 6.6190
 6.6480	 6.5810
 6.6560	 6.5450
 6.6650	 6.6890
 6.6740	 6.8280
 6.6820	 6.8360
 6.6910	 6.6890
 6.6990	 6.6650
 6.7080	 6.6610
 6.7170	 6.6730
 6.7260	 6.5510
 6.7340	 6.4770
 6.7430	 6.4230
 6.7520	 6.4630
 6.7610	 6.3510
 6.7690	 6.3150
 6.7780	 6.2040
 6.7870	 6.1210
 6.7960	 5.8560
 6.8050	 5.7420
 6.8140	 5.7140
 6.8230	 5.7560
 6.8320	 5.7780
 6.8410	 5.8820
 6.8500	 5.8320
 6.8590	 5.9660
 6.8680	 5.9940
 6.8770	 5.9800
 6.8860	 6.0150
 6.8950	 6.0960
 6.9050	 6.0040
 6.9140	 5.9970
 6.9230	 6.0480
 6.9320	 5.9960
 6.9420	 5.8370
 6.9510	 5.8910
 6.9600	 5.8390
 6.9700	 5.9260
 6.9790	 5.8920
 6.9880	 5.8900
 6.9980	 5.9250
 7.0070	 6.0260
 7.0170	 5.9620
 7.0260	 5.9600
 7.0360	 5.9390
 7.0450	 5.9740
 7.0550	 5.9130
 7.0650	 6.0070
 7.0740	 6.0280
 7.0840	 6.1070
 7.0940	 6.1060
 7.1030	 6.1590
 7.1130	 6.0230
 7.1230	 6.0340
 7.1330	 6.0140
 7.1420	 5.9810
 7.1520	 5.8040
 7.1620	 5.7660
 7.1720	 5.7810
 7.1820	 5.8060
 7.1920	 5.6720
 7.2020	 5.5660
 7.2120	 5.4640
 7.2220	 5.3910
 7.2320	 5.1010
 7.2420	 5.0210
 7.2520	 5.1300
 7.2620	 5.2660
 7.2730	 5.2190
 7.2830	 5.3180
 7.2930	 5.3700
 7.3030	 5.5070
 7.3140	 5.4280
 7.3240	 5.4320
 7.3340	 5.4360
 7.3450	 5.4980
 7.3550	 5.5570
 7.3660	 5.7260
 7.3760	 5.7860
 7.3870	 5.8990
 7.3970	 5.8500
 7.4080	 5.8440
 7.4180	 5.7940
 7.4290	 5.8960
 7.4400	 5.7880
 7.4500	 5.8590
 7.4610	 5.8260
 7.4720	 5.8110
 7.4830	 5.7450
 7.4930	 5.7080
 7.5040	 5.4970
 7.5150	 5.4830
 7.5260	 5.5070
 7.5370	 5.5810
 7.5480	 5.4070
 7.5590	 5.3010
 7.5700	 5.1890
 7.5810	 5.2020
 7.5920	 5.1990
 7.6030	 5.3420
 7.6140	 5.3010
 7.6260	 5.3960
 7.6370	 5.3830
 7.6480	 5.5210
 7.6590	 5.4690
 7.6710	 5.4390
 7.6820	 5.4390
 7.6930	 5.5730
 7.7050	 5.4560
 7.7160	 5.3500
 7.7280	 5.1770
 7.7390	 5.2560
 7.7510	 5.2990
 7.7630	 5.3260
 7.7740	 5.3120
 7.7860	 5.3620
 7.7980	 5.2050
 7.8090	 5.1460
 7.8210	 5.1110
 7.8330	 5.2000
 7.8450	 5.1220
 7.8570	 5.0310
 7.8690	 4.9300
 7.8810	 5.1680
 7.8930	 5.2320
 7.9050	 5.2100
 7.9170	 5.1010
 7.9290	 5.1220
 7.9410	 5.1050
 7.9530	 5.1570
 7.9650	 5.0040
 7.9780	 5.0540
 7.9900	 5.1350
 8.0020	 5.2640
 8.0150	 5.2560
 8.0270	 5.3990
 8.0390	 5.4180
 8.0520	 5.5710
 8.0640	 5.4500
 8.0770	 5.4340
 8.0900	 5.3670
 8.1020	 5.5370
 8.1150	 5.6580
 8.1280	 5.6560
 8.1400	 5.4690
 8.1530	 5.6780
 8.1660	 5.7230
 8.1790	 5.7960
 8.1920	 5.7850
 8.2050	 6.0980
 8.2180	 6.0930
 8.2310	 6.0040
 8.2440	 5.9550
 8.2570	 6.1130
 8.2700	 6.0660
 8.2830	 6.1780
 8.2970	 6.2850
 8.3100	 6.4330
 8.3230	 6.1250
 8.3370	 6.0870
 8.3500	 6.0370
 8.3640	 6.2590
 8.3770	 6.2740
 8.3910	 6.3910
 8.4040	 6.2500
 8.4180	 6.2540
 8.4320	 5.9940
 8.4450	 5.9030
 8.4590	 5.8050
 8.4730	 6.1260
 8.4870	 6.1830
 8.5010	 6.3310
 8.5150	 6.3520
 8.5290	 6.4110
 8.5430	 6.2850
 8.5570	 6.4520
 8.5710	 6.4920
 8.5850	 6.5450
 8.5990	 6.3720
 8.6140	 6.5310
 8.6280	 6.5390
 8.6420	 6.6140
 8.6570	 6.4790
 8.6710	 6.6680
 8.6860	 6.7240
 8.7000	 6.7610
 8.7150	 6.5870
 8.7300	 6.6510
 8.7440	 6.5430
 8.7590	 6.5470
 8.7740	 6.3390
 8.7890	 6.3580
 8.8040	 6.1440
 8.8190	 6.0480
 8.8340	 5.9240
 8.8490	 6.1490
 8.8640	 6.1190
 8.8790	 6.1440
 8.8940	 5.9690
 8.9100	 6.1490
 8.9250	 6.0130
 8.9400	 6.0200
 8.9560	 5.8690
 8.9710	 5.9650
 8.9870	 5.8570
 9.0020	 6.0200
 9.0180	 6.0030
 9.0340	 6.0920
 9.0500	 5.9240
 9.0650	 6.1110
 9.0810	 6.0780
 9.0970	 6.1100
 9.1130	 5.9350
 9.1290	 6.1390
 9.1450	 6.2380
 9.1610	 6.3900
 9.1780	 6.1840
 9.1940	 6.2420
 9.2100	 6.0650
 9.2270	 6.0970
 9.2430	 6.0940
 9.2600	 6.4240
 9.2760	 6.4840
 9.2930	 6.4340
 9.3090	 6.1500
 9.3260	 6.2060
 9.3430	 6.0300
 9.3600	 6.0560
 9.3770	 6.0920
 9.3940	 6.4170
 9.4110	 6.3690
 9.4280	 6.5560
 9.4450	 6.6450
 9.4620	 6.7540
 9.4800	 6.6560
 9.4970	 6.7130
 9.5140	 6.4740
 9.5320	 6.7480
 9.5500	 6.8610
 9.5670	 7.0190
 9.5850	 6.8300
 9.6030	 6.8290
 9.6200	 6.6090
 9.6380	 6.8030
 9.6560	 6.9780
 9.6740	 7.1480
 9.6920	 6.9310
 9.7100	 7.0430
 9.7290	 6.9250
 9.7470	 6.8220
 9.7650	 6.7410
 9.7840	 7.0020
 9.8020	 7.0450
 9.8210	 7.2140
 9.8390	 6.9480
 9.8580	 7.0940
 9.8770	 7.1050
 9.8960	 7.2550
 9.9150	 7.1000
 9.9340	 6.9270
 9.9530	 6.6330
 9.9720	 7.0160
 9.9910	 7.0490
10.0100	 7.1610
10.0300	 7.0460
10.0490	 7.0790
10.0690	 7.0550
10.0880	 7.1460
10.1080	 6.9330
10.1280	 7.2160
10.1480	 7.1870
10.1670	 7.3880
10.1870	 7.3320
10.2070	 7.4280
10.2280	 7.3380
10.2480	 7.5090
10.2680	 7.3990
10.2890	 7.3910
10.3090	 7.2820
10.3300	 7.6880
10.3500	 7.6940
10.3710	 7.7380
10.3920	 7.7070
10.4120	 7.9720
10.4330	 7.8080
10.4540	 7.7840
10.4760	 7.7390
10.4970	 7.8210
10.5180	 7.6240
10.5390	 7.6800
10.5610	 7.5000
10.5820	 7.7580
10.6040	 7.6930
10.6260	 7.7750
10.6480	 7.6290
10.6700	 7.8240
10.6920	 7.6380
10.7140	 7.6910
10.7360	 7.6980
10.7580	 7.9010
10.7800	 7.6190
10.8030	 7.6140
10.8250	 7.4300
10.8480	 7.5950
10.8710	 7.4850
10.8940	 7.5160
10.9170	 7.3270
10.9400	 7.4300
10.9630	 7.2360
10.9860	 7.1790
11.0090	 7.0050
11.0330	 7.3190
11.0560	 7.1970
11.0800	 6.9980
11.1040	 6.7990
11.1270	 6.8890
11.1510	 6.7170
11.1750	 6.9140
11.2000	 6.8140
11.2240	 7.0990
11.2480	 6.9650
11.2730	 7.3140
11.2970	 7.2970
11.3220	 7.1910
11.3470	 7.0370
11.3720	 7.2320
11.3970	 6.9180
11.4220	 7.0870
11.4470	 6.8250
11.4720	 6.6190
11.4980	 6.6270
11.5230	 6.9550
11.5490	 6.7910
11.5750	 7.0210
11.6000	 6.7930
11.6260	 6.8240
11.6530	 6.6640
11.6790	 6.6880
11.7050	 6.4720
11.7320	 6.8170
11.7580	 6.6870
11.7850	 6.6830
11.8120	 6.4600
11.8390	 6.5580
11.8660	 6.5510
11.8930	 6.9980
11.9200	 6.9750
11.9480	 7.1380
11.9760	 6.7680
12.0030	 6.7190
12.0310	 6.6070
12.0590	 6.8310
12.0870	 6.7100
12.1150	 6.9360
12.1440	 6.7700
12.1720	 7.0350
12.2010	 6.9540
12.2300	 7.1020
12.2590	 6.7650
12.2880	 7.1000
12.3170	 6.9640
12.3460	 7.0900
12.3760	 6.8530
12.4050	 7.0170
12.4350	 6.8610
12.4650	 7.0560
12.4950	 6.8670
12.5250	 7.1080
12.5550	 6.8580
12.5860	 6.9970
12.6170	 6.7630
12.6470	 6.9880
12.6780	 6.8300
12.7090	 6.8510
12.7410	 6.6520
12.7720	 6.9460
12.8030	 6.9000
12.8350	 6.9810
12.8670	 6.6610
12.8990	 6.9980
12.9310	 6.8510
12.9640	 7.0950
12.9960	 6.8160
13.0290	 6.8670
13.0610	 6.6200
13.0940	 6.8670
13.1280	 6.6230
13.1610	 6.8080
13.1940	 6.3540
13.2280	 6.5980
13.2620	 6.6830
13.2960	 6.8990
13.3300	 6.5940
13.3640	 6.6670
13.3990	 6.4710
13.4340	 6.8320
13.4690	 6.4690
13.5040	 6.4060
13.5390	 6.3750
13.5740	 6.8370
13.6100	 6.5770
13.6460	 6.6060
13.6820	 6.2390
13.7180	 6.3080
13.7540	 6.0250
13.7910	 6.5100
13.8280	 6.2310
13.8650	 6.6910
13.9020	 6.6500
13.9390	 6.5910
13.9770	 6.2140
14.0150	 6.8240
14.0530	 6.8150
14.0910	 6.8380
14.1290	 6.0870
14.1680	 6.2470
14.2070	 6.1140
14.2460	 6.6400
14.2850	 6.6360
14.3240	 7.0020
14.3640	 6.3220
14.4040	 6.4180
14.4440	 6.3830
14.4840	 6.9090
14.5250	 6.4470
14.5660	 6.7760
14.6070	 6.4310
14.6480	 7.0230
14.6900	 6.8180
14.7310	 7.3050
14.7730	 6.5520
14.8150	 6.4940
14.8580	 6.1210
14.9010	 6.7440
14.9440	 6.7130
14.9870	 7.2280
15.0300	 5.8960
15.0740	 6.8300
15.1180	 7.0190
15.1620	 6.7580
15.2060	 5.9540
15.2510	 6.8420
15.2960	 6.0630
15.3410	 6.6050
15.3870	 6.0790
