Name: Arctostaphylos glandulosa 1
Type: vegetation
Class: Shrub
Genus: Arctostaphylos
Species: glandulosa
Sample No.: VH117
Owner: UCSB
Wavelength Range: VSWIR
Origin: 34.5084; -119.7682; WGS84
Collection Date: 6/3/2013
Description: Samples were collected as part of the HyspIRI Airborne Campaign. 48 individual plants were sampled in three times in 2013 - spring  summer  and fall. The name of the sample includes a 1  2  or 3 which references a different individual of the species. Samples were taken to JPL and processed within 48 hours of collection. The same leaves were processed in the Nicolet and then measured using the ASD.
Measurement: Bidirectional reflectance
First Column: X
Second Column: Y
X Units: Wavelength (micrometers)
Y Units: Reflectance (percentage)
First X Value: 0.35
Last X Value: 2.5
Number of X Values: 2151
Additional Information: vegetation.shrub.arctostaphylos.glandulosa.vswir.vh117.ucsb.asd.ancillary.txt

 0.3500	 4.9590
 0.3510	 4.9610
 0.3520	 4.9230
 0.3530	 4.8870
 0.3540	 4.8840
 0.3550	 4.8510
 0.3560	 4.8130
 0.3570	 4.7360
 0.3580	 4.5900
 0.3590	 4.6160
 0.3600	 4.7420
 0.3610	 4.8530
 0.3620	 4.8170
 0.3630	 4.7600
 0.3640	 4.7090
 0.3650	 4.6860
 0.3660	 4.8010
 0.3670	 4.8240
 0.3680	 4.7480
 0.3690	 4.7180
 0.3700	 4.6480
 0.3710	 4.6390
 0.3720	 4.7190
 0.3730	 4.7700
 0.3740	 4.7200
 0.3750	 4.6190
 0.3760	 4.5560
 0.3770	 4.5770
 0.3780	 4.6050
 0.3790	 4.6330
 0.3800	 4.7070
 0.3810	 4.6740
 0.3820	 4.6420
 0.3830	 4.6660
 0.3840	 4.5830
 0.3850	 4.5810
 0.3860	 4.6250
 0.3870	 4.6240
 0.3880	 4.6940
 0.3890	 4.6700
 0.3900	 4.5580
 0.3910	 4.5470
 0.3920	 4.5850
 0.3930	 4.6240
 0.3940	 4.6330
 0.3950	 4.6140
 0.3960	 4.6020
 0.3970	 4.5890
 0.3980	 4.5570
 0.3990	 4.5680
 0.4000	 4.5920
 0.4010	 4.5990
 0.4020	 4.5670
 0.4030	 4.5670
 0.4040	 4.5730
 0.4050	 4.5550
 0.4060	 4.5550
 0.4070	 4.5680
 0.4080	 4.5790
 0.4090	 4.5680
 0.4100	 4.5480
 0.4110	 4.5250
 0.4120	 4.5130
 0.4130	 4.5430
 0.4140	 4.5500
 0.4150	 4.5430
 0.4160	 4.5470
 0.4170	 4.5450
 0.4180	 4.5490
 0.4190	 4.5640
 0.4200	 4.5850
 0.4210	 4.5910
 0.4220	 4.5990
 0.4230	 4.6200
 0.4240	 4.6330
 0.4250	 4.6460
 0.4260	 4.6650
 0.4270	 4.6950
 0.4280	 4.7260
 0.4290	 4.7610
 0.4300	 4.7980
 0.4310	 4.8380
 0.4320	 4.8750
 0.4330	 4.9120
 0.4340	 4.9520
 0.4350	 4.9890
 0.4360	 5.0310
 0.4370	 5.0750
 0.4380	 5.1070
 0.4390	 5.1480
 0.4400	 5.1990
 0.4410	 5.2530
 0.4420	 5.2840
 0.4430	 5.3130
 0.4440	 5.3480
 0.4450	 5.3910
 0.4460	 5.4330
 0.4470	 5.4750
 0.4480	 5.5140
 0.4490	 5.5400
 0.4500	 5.5650
 0.4510	 5.5920
 0.4520	 5.6230
 0.4530	 5.6660
 0.4540	 5.6890
 0.4550	 5.6980
 0.4560	 5.7220
 0.4570	 5.7330
 0.4580	 5.7420
 0.4590	 5.7570
 0.4600	 5.7770
 0.4610	 5.7900
 0.4620	 5.7990
 0.4630	 5.8110
 0.4640	 5.8070
 0.4650	 5.8060
 0.4660	 5.8130
 0.4670	 5.8160
 0.4680	 5.8220
 0.4690	 5.8280
 0.4700	 5.8330
 0.4710	 5.8400
 0.4720	 5.8410
 0.4730	 5.8380
 0.4740	 5.8420
 0.4750	 5.8460
 0.4760	 5.8470
 0.4770	 5.8490
 0.4780	 5.8650
 0.4790	 5.8730
 0.4800	 5.8700
 0.4810	 5.8660
 0.4820	 5.8760
 0.4830	 5.8850
 0.4840	 5.8930
 0.4850	 5.9100
 0.4860	 5.9140
 0.4870	 5.9200
 0.4880	 5.9390
 0.4890	 5.9500
 0.4900	 5.9650
 0.4910	 5.9850
 0.4920	 6.0040
 0.4930	 6.0270
 0.4940	 6.0510
 0.4950	 6.0730
 0.4960	 6.0990
 0.4970	 6.1300
 0.4980	 6.1690
 0.4990	 6.2160
 0.5000	 6.2630
 0.5010	 6.3060
 0.5020	 6.3530
 0.5030	 6.4180
 0.5040	 6.4820
 0.5050	 6.5510
 0.5060	 6.6300
 0.5070	 6.7120
 0.5080	 6.8060
 0.5090	 6.9100
 0.5100	 7.0200
 0.5110	 7.1350
 0.5120	 7.2610
 0.5130	 7.3980
 0.5140	 7.5420
 0.5150	 7.6930
 0.5160	 7.8560
 0.5170	 8.0320
 0.5180	 8.2070
 0.5190	 8.3820
 0.5200	 8.5620
 0.5210	 8.7510
 0.5220	 8.9380
 0.5230	 9.1230
 0.5240	 9.3060
 0.5250	 9.4820
 0.5260	 9.6560
 0.5270	 9.8240
 0.5280	 9.9780
 0.5290	10.1220
 0.5300	10.2610
 0.5310	10.3940
 0.5320	10.5140
 0.5330	10.6220
 0.5340	10.7210
 0.5350	10.8100
 0.5360	10.8980
 0.5370	10.9820
 0.5380	11.0590
 0.5390	11.1300
 0.5400	11.1970
 0.5410	11.2710
 0.5420	11.3500
 0.5430	11.4190
 0.5440	11.4810
 0.5450	11.5350
 0.5460	11.5810
 0.5470	11.6110
 0.5480	11.6370
 0.5490	11.6680
 0.5500	11.7050
 0.5510	11.7310
 0.5520	11.7470
 0.5530	11.7540
 0.5540	11.7510
 0.5550	11.7350
 0.5560	11.7050
 0.5570	11.6630
 0.5580	11.6150
 0.5590	11.5580
 0.5600	11.4900
 0.5610	11.4190
 0.5620	11.3430
 0.5630	11.2600
 0.5640	11.1720
 0.5650	11.0750
 0.5660	10.9770
 0.5670	10.8780
 0.5680	10.7700
 0.5690	10.6570
 0.5700	10.5400
 0.5710	10.4210
 0.5720	10.3070
 0.5730	10.1940
 0.5740	10.0820
 0.5750	 9.9730
 0.5760	 9.8750
 0.5770	 9.7890
 0.5780	 9.7140
 0.5790	 9.6440
 0.5800	 9.5740
 0.5810	 9.5040
 0.5820	 9.4370
 0.5830	 9.3750
 0.5840	 9.3100
 0.5850	 9.2460
 0.5860	 9.1950
 0.5870	 9.1510
 0.5880	 9.1070
 0.5890	 9.0590
 0.5900	 9.0150
 0.5910	 8.9690
 0.5920	 8.9240
 0.5930	 8.8920
 0.5940	 8.8650
 0.5950	 8.8430
 0.5960	 8.8240
 0.5970	 8.8030
 0.5980	 8.7830
 0.5990	 8.7640
 0.6000	 8.7420
 0.6010	 8.7170
 0.6020	 8.6870
 0.6030	 8.6530
 0.6040	 8.6110
 0.6050	 8.5680
 0.6060	 8.5200
 0.6070	 8.4680
 0.6080	 8.4160
 0.6090	 8.3660
 0.6100	 8.3210
 0.6110	 8.2790
 0.6120	 8.2160
 0.6130	 8.1430
 0.6140	 8.0720
 0.6150	 8.0060
 0.6160	 7.9490
 0.6170	 7.8960
 0.6180	 7.8420
 0.6190	 7.8000
 0.6200	 7.7640
 0.6210	 7.7290
 0.6220	 7.6960
 0.6230	 7.6680
 0.6240	 7.6470
 0.6250	 7.6320
 0.6260	 7.6130
 0.6270	 7.5980
 0.6280	 7.5860
 0.6290	 7.5770
 0.6300	 7.5700
 0.6310	 7.5590
 0.6320	 7.5420
 0.6330	 7.5260
 0.6340	 7.5000
 0.6350	 7.4650
 0.6360	 7.4240
 0.6370	 7.3800
 0.6380	 7.3270
 0.6390	 7.2650
 0.6400	 7.2010
 0.6410	 7.1330
 0.6420	 7.0610
 0.6430	 6.9890
 0.6440	 6.9180
 0.6450	 6.8430
 0.6460	 6.7730
 0.6470	 6.7130
 0.6480	 6.6550
 0.6490	 6.6060
 0.6500	 6.5660
 0.6510	 6.5260
 0.6520	 6.4920
 0.6530	 6.4610
 0.6540	 6.4320
 0.6550	 6.4000
 0.6560	 6.3660
 0.6570	 6.3280
 0.6580	 6.2860
 0.6590	 6.2390
 0.6600	 6.1880
 0.6610	 6.1360
 0.6620	 6.0880
 0.6630	 6.0400
 0.6640	 5.9940
 0.6650	 5.9520
 0.6660	 5.9150
 0.6670	 5.8820
 0.6680	 5.8540
 0.6690	 5.8350
 0.6700	 5.8190
 0.6710	 5.8070
 0.6720	 5.7990
 0.6730	 5.7970
 0.6740	 5.7980
 0.6750	 5.8030
 0.6760	 5.8120
 0.6770	 5.8250
 0.6780	 5.8420
 0.6790	 5.8630
 0.6800	 5.8900
 0.6810	 5.9250
 0.6820	 5.9710
 0.6830	 6.0310
 0.6840	 6.1030
 0.6850	 6.1920
 0.6860	 6.3030
 0.6870	 6.4390
 0.6880	 6.6030
 0.6890	 6.8080
 0.6900	 7.0570
 0.6910	 7.3510
 0.6920	 7.7100
 0.6930	 8.1270
 0.6940	 8.5960
 0.6950	 9.1270
 0.6960	 9.7180
 0.6970	10.3640
 0.6980	11.0610
 0.6990	11.8080
 0.7000	12.5910
 0.7010	13.4040
 0.7020	14.2460
 0.7030	15.1050
 0.7040	15.9750
 0.7050	16.8490
 0.7060	17.7250
 0.7070	18.6020
 0.7080	19.4760
 0.7090	20.3420
 0.7100	21.2010
 0.7110	22.0560
 0.7120	22.9080
 0.7130	23.7490
 0.7140	24.5790
 0.7150	25.4000
 0.7160	26.2110
 0.7170	27.0110
 0.7180	27.7940
 0.7190	28.5640
 0.7200	29.3230
 0.7210	30.0560
 0.7220	30.7680
 0.7230	31.4590
 0.7240	32.1260
 0.7250	32.7700
 0.7260	33.3890
 0.7270	33.9800
 0.7280	34.5390
 0.7290	35.0710
 0.7300	35.5770
 0.7310	36.0550
 0.7320	36.5060
 0.7330	36.9310
 0.7340	37.3290
 0.7350	37.7030
 0.7360	38.0560
 0.7370	38.3870
 0.7380	38.6940
 0.7390	38.9810
 0.7400	39.2500
 0.7410	39.5000
 0.7420	39.7310
 0.7430	39.9420
 0.7440	40.1380
 0.7450	40.3220
 0.7460	40.4920
 0.7470	40.6420
 0.7480	40.7810
 0.7490	40.9130
 0.7500	41.0310
 0.7510	41.1390
 0.7520	41.2390
 0.7530	41.3310
 0.7540	41.4070
 0.7550	41.4800
 0.7560	41.5520
 0.7570	41.6120
 0.7580	41.6640
 0.7590	41.7150
 0.7600	41.7680
 0.7610	41.8120
 0.7620	41.8490
 0.7630	41.8820
 0.7640	41.9120
 0.7650	41.9380
 0.7660	41.9660
 0.7670	41.9930
 0.7680	42.0160
 0.7690	42.0380
 0.7700	42.0570
 0.7710	42.0740
 0.7720	42.0950
 0.7730	42.1140
 0.7740	42.1310
 0.7750	42.1470
 0.7760	42.1630
 0.7770	42.1720
 0.7780	42.1830
 0.7790	42.2040
 0.7800	42.2170
 0.7810	42.2270
 0.7820	42.2400
 0.7830	42.2560
 0.7840	42.2640
 0.7850	42.2720
 0.7860	42.2840
 0.7870	42.2950
 0.7880	42.3050
 0.7890	42.3130
 0.7900	42.3230
 0.7910	42.3310
 0.7920	42.3420
 0.7930	42.3510
 0.7940	42.3530
 0.7950	42.3620
 0.7960	42.3680
 0.7970	42.3720
 0.7980	42.3830
 0.7990	42.3890
 0.8000	42.3920
 0.8010	42.3940
 0.8020	42.3940
 0.8030	42.3960
 0.8040	42.3990
 0.8050	42.3990
 0.8060	42.3980
 0.8070	42.3980
 0.8080	42.4010
 0.8090	42.4050
 0.8100	42.4010
 0.8110	42.3980
 0.8120	42.4010
 0.8130	42.3980
 0.8140	42.3940
 0.8150	42.3900
 0.8160	42.3870
 0.8170	42.3850
 0.8180	42.3840
 0.8190	42.3790
 0.8200	42.3670
 0.8210	42.3710
 0.8220	42.3700
 0.8230	42.3600
 0.8240	42.3560
 0.8250	42.3480
 0.8260	42.3380
 0.8270	42.3290
 0.8280	42.3240
 0.8290	42.3150
 0.8300	42.3050
 0.8310	42.2970
 0.8320	42.2920
 0.8330	42.2870
 0.8340	42.2790
 0.8350	42.2700
 0.8360	42.2630
 0.8370	42.2570
 0.8380	42.2510
 0.8390	42.2470
 0.8400	42.2450
 0.8410	42.2430
 0.8420	42.2400
 0.8430	42.2370
 0.8440	42.2390
 0.8450	42.2400
 0.8460	42.2390
 0.8470	42.2430
 0.8480	42.2450
 0.8490	42.2400
 0.8500	42.2290
 0.8510	42.2370
 0.8520	42.2430
 0.8530	42.2400
 0.8540	42.2370
 0.8550	42.2400
 0.8560	42.2410
 0.8570	42.2400
 0.8580	42.2430
 0.8590	42.2410
 0.8600	42.2390
 0.8610	42.2390
 0.8620	42.2350
 0.8630	42.2390
 0.8640	42.2440
 0.8650	42.2440
 0.8660	42.2380
 0.8670	42.2350
 0.8680	42.2390
 0.8690	42.2490
 0.8700	42.2520
 0.8710	42.2550
 0.8720	42.2600
 0.8730	42.2670
 0.8740	42.2610
 0.8750	42.2630
 0.8760	42.2740
 0.8770	42.2720
 0.8780	42.2680
 0.8790	42.2660
 0.8800	42.2690
 0.8810	42.2700
 0.8820	42.2670
 0.8830	42.2650
 0.8840	42.2680
 0.8850	42.2710
 0.8860	42.2680
 0.8870	42.2620
 0.8880	42.2550
 0.8890	42.2490
 0.8900	42.2480
 0.8910	42.2480
 0.8920	42.2430
 0.8930	42.2370
 0.8940	42.2320
 0.8950	42.2280
 0.8960	42.2250
 0.8970	42.2210
 0.8980	42.2170
 0.8990	42.2140
 0.9000	42.2090
 0.9010	42.2040
 0.9020	42.1970
 0.9030	42.1900
 0.9040	42.1860
 0.9050	42.1810
 0.9060	42.1810
 0.9070	42.1810
 0.9080	42.1580
 0.9090	42.1520
 0.9100	42.1520
 0.9110	42.1420
 0.9120	42.1300
 0.9130	42.1240
 0.9140	42.1230
 0.9150	42.1180
 0.9160	42.1070
 0.9170	42.0960
 0.9180	42.0880
 0.9190	42.0800
 0.9200	42.0600
 0.9210	42.0450
 0.9220	42.0360
 0.9230	42.0240
 0.9240	42.0030
 0.9250	41.9910
 0.9260	41.9820
 0.9270	41.9550
 0.9280	41.9310
 0.9290	41.9100
 0.9300	41.8890
 0.9310	41.8580
 0.9320	41.8330
 0.9330	41.8030
 0.9340	41.7670
 0.9350	41.7390
 0.9360	41.7100
 0.9370	41.6810
 0.9380	41.6510
 0.9390	41.6090
 0.9400	41.5750
 0.9410	41.5360
 0.9420	41.4880
 0.9430	41.4500
 0.9440	41.4020
 0.9450	41.3480
 0.9460	41.2910
 0.9470	41.2240
 0.9480	41.1590
 0.9490	41.0930
 0.9500	41.0230
 0.9510	40.9470
 0.9520	40.8530
 0.9530	40.7490
 0.9540	40.6470
 0.9550	40.5660
 0.9560	40.4830
 0.9570	40.3900
 0.9580	40.2890
 0.9590	40.2010
 0.9600	40.1240
 0.9610	40.0520
 0.9620	39.9800
 0.9630	39.9160
 0.9640	39.8650
 0.9650	39.8210
 0.9660	39.7760
 0.9670	39.7200
 0.9680	39.6810
 0.9690	39.6530
 0.9700	39.6170
 0.9710	39.5890
 0.9720	39.5660
 0.9730	39.5450
 0.9740	39.5250
 0.9750	39.5120
 0.9760	39.5050
 0.9770	39.4980
 0.9780	39.4840
 0.9790	39.4550
 0.9800	39.4570
 0.9810	39.4730
 0.9820	39.4660
 0.9830	39.4700
 0.9840	39.4750
 0.9850	39.4810
 0.9860	39.4920
 0.9870	39.5110
 0.9880	39.5160
 0.9890	39.5250
 0.9900	39.5630
 0.9910	39.5790
 0.9920	39.6290
 0.9930	39.6790
 0.9940	39.7290
 0.9950	39.7790
 0.9960	39.8290
 0.9970	39.8790
 0.9980	39.9290
 0.9990	39.9790
 1.0000	40.0290
 1.0010	40.0800
 1.0020	40.1300
 1.0030	40.1800
 1.0040	40.2300
 1.0050	40.2800
 1.0060	40.3300
 1.0070	40.3800
 1.0080	40.4300
 1.0090	40.4800
 1.0100	40.4800
 1.0110	40.5170
 1.0120	40.5530
 1.0130	40.5880
 1.0140	40.6230
 1.0150	40.6580
 1.0160	40.6920
 1.0170	40.7240
 1.0180	40.7520
 1.0190	40.7790
 1.0200	40.8080
 1.0210	40.8420
 1.0220	40.8760
 1.0230	40.9110
 1.0240	40.9510
 1.0250	40.9820
 1.0260	41.0060
 1.0270	41.0350
 1.0280	41.0590
 1.0290	41.0880
 1.0300	41.1220
 1.0310	41.1520
 1.0320	41.1850
 1.0330	41.2090
 1.0340	41.2330
 1.0350	41.2600
 1.0360	41.2800
 1.0370	41.3010
 1.0380	41.3230
 1.0390	41.3430
 1.0400	41.3640
 1.0410	41.3900
 1.0420	41.4120
 1.0430	41.4310
 1.0440	41.4510
 1.0450	41.4680
 1.0460	41.4860
 1.0470	41.5050
 1.0480	41.5240
 1.0490	41.5450
 1.0500	41.5630
 1.0510	41.5800
 1.0520	41.5970
 1.0530	41.6110
 1.0540	41.6240
 1.0550	41.6360
 1.0560	41.6460
 1.0570	41.6590
 1.0580	41.6730
 1.0590	41.6840
 1.0600	41.6940
 1.0610	41.7050
 1.0620	41.7160
 1.0630	41.7260
 1.0640	41.7400
 1.0650	41.7500
 1.0660	41.7520
 1.0670	41.7590
 1.0680	41.7660
 1.0690	41.7750
 1.0700	41.7800
 1.0710	41.7860
 1.0720	41.7900
 1.0730	41.7900
 1.0740	41.7930
 1.0750	41.7980
 1.0760	41.7990
 1.0770	41.7990
 1.0780	41.7980
 1.0790	41.7950
 1.0800	41.7930
 1.0810	41.7950
 1.0820	41.7920
 1.0830	41.7890
 1.0840	41.7850
 1.0850	41.7810
 1.0860	41.7740
 1.0870	41.7650
 1.0880	41.7550
 1.0890	41.7450
 1.0900	41.7310
 1.0910	41.7200
 1.0920	41.7110
 1.0930	41.6980
 1.0940	41.6830
 1.0950	41.6690
 1.0960	41.6550
 1.0970	41.6390
 1.0980	41.6240
 1.0990	41.6070
 1.1000	41.5890
 1.1010	41.5680
 1.1020	41.5440
 1.1030	41.5220
 1.1040	41.4990
 1.1050	41.4740
 1.1060	41.4490
 1.1070	41.4260
 1.1080	41.3990
 1.1090	41.3720
 1.1100	41.3410
 1.1110	41.3090
 1.1120	41.2750
 1.1130	41.2400
 1.1140	41.2010
 1.1150	41.1630
 1.1160	41.1200
 1.1170	41.0730
 1.1180	41.0220
 1.1190	40.9660
 1.1200	40.9070
 1.1210	40.8460
 1.1220	40.7800
 1.1230	40.7090
 1.1240	40.6360
 1.1250	40.5580
 1.1260	40.4750
 1.1270	40.3850
 1.1280	40.2910
 1.1290	40.1900
 1.1300	40.0830
 1.1310	39.9680
 1.1320	39.8490
 1.1330	39.7220
 1.1340	39.5870
 1.1350	39.4450
 1.1360	39.2960
 1.1370	39.1390
 1.1380	38.9740
 1.1390	38.8040
 1.1400	38.6240
 1.1410	38.4400
 1.1420	38.2500
 1.1430	38.0550
 1.1440	37.8600
 1.1450	37.6600
 1.1460	37.4640
 1.1470	37.2650
 1.1480	37.0740
 1.1490	36.8830
 1.1500	36.7020
 1.1510	36.5250
 1.1520	36.3590
 1.1530	36.2010
 1.1540	36.0540
 1.1550	35.9160
 1.1560	35.7890
 1.1570	35.6730
 1.1580	35.5680
 1.1590	35.4720
 1.1600	35.3850
 1.1610	35.3080
 1.1620	35.2370
 1.1630	35.1750
 1.1640	35.1190
 1.1650	35.0660
 1.1660	35.0170
 1.1670	34.9740
 1.1680	34.9370
 1.1690	34.9020
 1.1700	34.8730
 1.1710	34.8420
 1.1720	34.8100
 1.1730	34.7800
 1.1740	34.7510
 1.1750	34.7200
 1.1760	34.6910
 1.1770	34.6610
 1.1780	34.6290
 1.1790	34.5950
 1.1800	34.5610
 1.1810	34.5280
 1.1820	34.4940
 1.1830	34.4580
 1.1840	34.4230
 1.1850	34.3890
 1.1860	34.3550
 1.1870	34.3260
 1.1880	34.2980
 1.1890	34.2720
 1.1900	34.2470
 1.1910	34.2240
 1.1920	34.2020
 1.1930	34.1800
 1.1940	34.1610
 1.1950	34.1430
 1.1960	34.1290
 1.1970	34.1200
 1.1980	34.1100
 1.1990	34.1050
 1.2000	34.1020
 1.2010	34.1000
 1.2020	34.1020
 1.2030	34.1070
 1.2040	34.1170
 1.2050	34.1310
 1.2060	34.1490
 1.2070	34.1720
 1.2080	34.1960
 1.2090	34.2240
 1.2100	34.2560
 1.2110	34.2910
 1.2120	34.3290
 1.2130	34.3700
 1.2140	34.4150
 1.2150	34.4610
 1.2160	34.5100
 1.2170	34.5610
 1.2180	34.6140
 1.2190	34.6660
 1.2200	34.7210
 1.2210	34.7780
 1.2220	34.8330
 1.2230	34.8900
 1.2240	34.9480
 1.2250	35.0030
 1.2260	35.0580
 1.2270	35.1120
 1.2280	35.1630
 1.2290	35.2120
 1.2300	35.2580
 1.2310	35.3040
 1.2320	35.3500
 1.2330	35.3920
 1.2340	35.4330
 1.2350	35.4730
 1.2360	35.5120
 1.2370	35.5490
 1.2380	35.5860
 1.2390	35.6230
 1.2400	35.6560
 1.2410	35.6880
 1.2420	35.7200
 1.2430	35.7490
 1.2440	35.7770
 1.2450	35.8070
 1.2460	35.8330
 1.2470	35.8590
 1.2480	35.8860
 1.2490	35.9110
 1.2500	35.9340
 1.2510	35.9560
 1.2520	35.9790
 1.2530	35.9990
 1.2540	36.0160
 1.2550	36.0320
 1.2560	36.0460
 1.2570	36.0580
 1.2580	36.0700
 1.2590	36.0810
 1.2600	36.0940
 1.2610	36.1030
 1.2620	36.1090
 1.2630	36.1160
 1.2640	36.1210
 1.2650	36.1250
 1.2660	36.1280
 1.2670	36.1290
 1.2680	36.1280
 1.2690	36.1260
 1.2700	36.1240
 1.2710	36.1210
 1.2720	36.1150
 1.2730	36.1090
 1.2740	36.1010
 1.2750	36.0900
 1.2760	36.0790
 1.2770	36.0670
 1.2780	36.0530
 1.2790	36.0390
 1.2800	36.0260
 1.2810	36.0080
 1.2820	35.9850
 1.2830	35.9640
 1.2840	35.9400
 1.2850	35.9130
 1.2860	35.8870
 1.2870	35.8580
 1.2880	35.8260
 1.2890	35.7900
 1.2900	35.7540
 1.2910	35.7150
 1.2920	35.6740
 1.2930	35.6310
 1.2940	35.5860
 1.2950	35.5380
 1.2960	35.4860
 1.2970	35.4320
 1.2980	35.3730
 1.2990	35.3090
 1.3000	35.2430
 1.3010	35.1710
 1.3020	35.0990
 1.3030	35.0250
 1.3040	34.9470
 1.3050	34.8640
 1.3060	34.7750
 1.3070	34.6840
 1.3080	34.5900
 1.3090	34.4920
 1.3100	34.3910
 1.3110	34.2870
 1.3120	34.1750
 1.3130	34.0610
 1.3140	33.9420
 1.3150	33.8190
 1.3160	33.6910
 1.3170	33.5590
 1.3180	33.4230
 1.3190	33.2810
 1.3200	33.1350
 1.3210	32.9850
 1.3220	32.8320
 1.3230	32.6750
 1.3240	32.5130
 1.3250	32.3500
 1.3260	32.1850
 1.3270	32.0170
 1.3280	31.8470
 1.3290	31.6710
 1.3300	31.4910
 1.3310	31.3110
 1.3320	31.1280
 1.3330	30.9480
 1.3340	30.7660
 1.3350	30.5820
 1.3360	30.3990
 1.3370	30.2140
 1.3380	30.0300
 1.3390	29.8460
 1.3400	29.6620
 1.3410	29.4810
 1.3420	29.3020
 1.3430	29.1240
 1.3440	28.9490
 1.3450	28.7750
 1.3460	28.6010
 1.3470	28.4320
 1.3480	28.2650
 1.3490	28.1010
 1.3500	27.9400
 1.3510	27.7810
 1.3520	27.6230
 1.3530	27.4650
 1.3540	27.3080
 1.3550	27.1530
 1.3560	26.9980
 1.3570	26.8430
 1.3580	26.6900
 1.3590	26.5330
 1.3600	26.3740
 1.3610	26.2130
 1.3620	26.0460
 1.3630	25.8770
 1.3640	25.7040
 1.3650	25.5240
 1.3660	25.3380
 1.3670	25.1440
 1.3680	24.9410
 1.3690	24.7290
 1.3700	24.5050
 1.3710	24.2690
 1.3720	24.0210
 1.3730	23.7580
 1.3740	23.4830
 1.3750	23.1930
 1.3760	22.8840
 1.3770	22.5590
 1.3780	22.2120
 1.3790	21.8480
 1.3800	21.4680
 1.3810	21.0670
 1.3820	20.6560
 1.3830	20.2300
 1.3840	19.7930
 1.3850	19.3410
 1.3860	18.8850
 1.3870	18.4140
 1.3880	17.9480
 1.3890	17.4770
 1.3900	17.0030
 1.3910	16.5360
 1.3920	16.0690
 1.3930	15.6030
 1.3940	15.1480
 1.3950	14.6970
 1.3960	14.2590
 1.3970	13.8360
 1.3980	13.4260
 1.3990	13.0360
 1.4000	12.6610
 1.4010	12.2990
 1.4020	11.9580
 1.4030	11.6310
 1.4040	11.3220
 1.4050	11.0330
 1.4060	10.7610
 1.4070	10.5080
 1.4080	10.2730
 1.4090	10.0530
 1.4100	 9.8510
 1.4110	 9.6620
 1.4120	 9.4870
 1.4130	 9.3260
 1.4140	 9.1780
 1.4150	 9.0440
 1.4160	 8.9220
 1.4170	 8.8090
 1.4180	 8.7060
 1.4190	 8.6120
 1.4200	 8.5250
 1.4210	 8.4470
 1.4220	 8.3750
 1.4230	 8.3100
 1.4240	 8.2510
 1.4250	 8.1970
 1.4260	 8.1500
 1.4270	 8.1070
 1.4280	 8.0680
 1.4290	 8.0330
 1.4300	 8.0020
 1.4310	 7.9750
 1.4320	 7.9520
 1.4330	 7.9300
 1.4340	 7.9130
 1.4350	 7.8960
 1.4360	 7.8820
 1.4370	 7.8700
 1.4380	 7.8600
 1.4390	 7.8530
 1.4400	 7.8470
 1.4410	 7.8440
 1.4420	 7.8430
 1.4430	 7.8410
 1.4440	 7.8420
 1.4450	 7.8430
 1.4460	 7.8450
 1.4470	 7.8480
 1.4480	 7.8530
 1.4490	 7.8580
 1.4500	 7.8630
 1.4510	 7.8690
 1.4520	 7.8760
 1.4530	 7.8850
 1.4540	 7.8930
 1.4550	 7.9040
 1.4560	 7.9150
 1.4570	 7.9260
 1.4580	 7.9390
 1.4590	 7.9530
 1.4600	 7.9690
 1.4610	 7.9870
 1.4620	 8.0060
 1.4630	 8.0280
 1.4640	 8.0520
 1.4650	 8.0760
 1.4660	 8.1040
 1.4670	 8.1340
 1.4680	 8.1660
 1.4690	 8.2020
 1.4700	 8.2400
 1.4710	 8.2800
 1.4720	 8.3220
 1.4730	 8.3650
 1.4740	 8.4110
 1.4750	 8.4580
 1.4760	 8.5080
 1.4770	 8.5610
 1.4780	 8.6140
 1.4790	 8.6690
 1.4800	 8.7250
 1.4810	 8.7810
 1.4820	 8.8400
 1.4830	 8.9000
 1.4840	 8.9610
 1.4850	 9.0220
 1.4860	 9.0830
 1.4870	 9.1450
 1.4880	 9.2080
 1.4890	 9.2730
 1.4900	 9.3370
 1.4910	 9.4020
 1.4920	 9.4680
 1.4930	 9.5340
 1.4940	 9.6010
 1.4950	 9.6680
 1.4960	 9.7360
 1.4970	 9.8030
 1.4980	 9.8720
 1.4990	 9.9420
 1.5000	10.0120
 1.5010	10.0800
 1.5020	10.1490
 1.5030	10.2190
 1.5040	10.2890
 1.5050	10.3590
 1.5060	10.4290
 1.5070	10.4980
 1.5080	10.5670
 1.5090	10.6370
 1.5100	10.7070
 1.5110	10.7770
 1.5120	10.8480
 1.5130	10.9180
 1.5140	10.9870
 1.5150	11.0570
 1.5160	11.1250
 1.5170	11.1930
 1.5180	11.2600
 1.5190	11.3270
 1.5200	11.3950
 1.5210	11.4620
 1.5220	11.5290
 1.5230	11.5970
 1.5240	11.6630
 1.5250	11.7290
 1.5260	11.7950
 1.5270	11.8590
 1.5280	11.9240
 1.5290	11.9890
 1.5300	12.0540
 1.5310	12.1190
 1.5320	12.1820
 1.5330	12.2450
 1.5340	12.3070
 1.5350	12.3690
 1.5360	12.4310
 1.5370	12.4910
 1.5380	12.5510
 1.5390	12.6110
 1.5400	12.6710
 1.5410	12.7300
 1.5420	12.7890
 1.5430	12.8460
 1.5440	12.9040
 1.5450	12.9620
 1.5460	13.0190
 1.5470	13.0770
 1.5480	13.1340
 1.5490	13.1900
 1.5500	13.2470
 1.5510	13.3020
 1.5520	13.3560
 1.5530	13.4100
 1.5540	13.4630
 1.5550	13.5170
 1.5560	13.5710
 1.5570	13.6240
 1.5580	13.6780
 1.5590	13.7300
 1.5600	13.7820
 1.5610	13.8330
 1.5620	13.8840
 1.5630	13.9350
 1.5640	13.9850
 1.5650	14.0350
 1.5660	14.0850
 1.5670	14.1360
 1.5680	14.1860
 1.5690	14.2340
 1.5700	14.2840
 1.5710	14.3320
 1.5720	14.3800
 1.5730	14.4290
 1.5740	14.4760
 1.5750	14.5240
 1.5760	14.5720
 1.5770	14.6200
 1.5780	14.6670
 1.5790	14.7150
 1.5800	14.7630
 1.5810	14.8100
 1.5820	14.8560
 1.5830	14.9030
 1.5840	14.9510
 1.5850	14.9980
 1.5860	15.0450
 1.5870	15.0910
 1.5880	15.1370
 1.5890	15.1840
 1.5900	15.2300
 1.5910	15.2750
 1.5920	15.3200
 1.5930	15.3650
 1.5940	15.4100
 1.5950	15.4560
 1.5960	15.5010
 1.5970	15.5460
 1.5980	15.5910
 1.5990	15.6350
 1.6000	15.6790
 1.6010	15.7230
 1.6020	15.7650
 1.6030	15.8080
 1.6040	15.8500
 1.6050	15.8930
 1.6060	15.9360
 1.6070	15.9770
 1.6080	16.0190
 1.6090	16.0600
 1.6100	16.1000
 1.6110	16.1400
 1.6120	16.1790
 1.6130	16.2170
 1.6140	16.2540
 1.6150	16.2910
 1.6160	16.3280
 1.6170	16.3650
 1.6180	16.4010
 1.6190	16.4370
 1.6200	16.4700
 1.6210	16.5010
 1.6220	16.5330
 1.6230	16.5650
 1.6240	16.5940
 1.6250	16.6230
 1.6260	16.6510
 1.6270	16.6780
 1.6280	16.7040
 1.6290	16.7290
 1.6300	16.7540
 1.6310	16.7780
 1.6320	16.8000
 1.6330	16.8200
 1.6340	16.8400
 1.6350	16.8580
 1.6360	16.8740
 1.6370	16.8870
 1.6380	16.8980
 1.6390	16.9060
 1.6400	16.9110
 1.6410	16.9130
 1.6420	16.9110
 1.6430	16.9070
 1.6440	16.8980
 1.6450	16.8870
 1.6460	16.8740
 1.6470	16.8580
 1.6480	16.8390
 1.6490	16.8170
 1.6500	16.7940
 1.6510	16.7690
 1.6520	16.7440
 1.6530	16.7190
 1.6540	16.6940
 1.6550	16.6690
 1.6560	16.6460
 1.6570	16.6240
 1.6580	16.6040
 1.6590	16.5880
 1.6600	16.5750
 1.6610	16.5650
 1.6620	16.5590
 1.6630	16.5590
 1.6640	16.5620
 1.6650	16.5700
 1.6660	16.5810
 1.6670	16.5950
 1.6680	16.6120
 1.6690	16.6300
 1.6700	16.6480
 1.6710	16.6660
 1.6720	16.6810
 1.6730	16.6960
 1.6740	16.7080
 1.6750	16.7170
 1.6760	16.7230
 1.6770	16.7240
 1.6780	16.7220
 1.6790	16.7150
 1.6800	16.7050
 1.6810	16.6900
 1.6820	16.6710
 1.6830	16.6490
 1.6840	16.6220
 1.6850	16.5910
 1.6860	16.5570
 1.6870	16.5200
 1.6880	16.4810
 1.6890	16.4400
 1.6900	16.3990
 1.6910	16.3550
 1.6920	16.3110
 1.6930	16.2670
 1.6940	16.2220
 1.6950	16.1760
 1.6960	16.1300
 1.6970	16.0820
 1.6980	16.0350
 1.6990	15.9880
 1.7000	15.9410
 1.7010	15.8920
 1.7020	15.8430
 1.7030	15.7940
 1.7040	15.7440
 1.7050	15.6930
 1.7060	15.6430
 1.7070	15.5930
 1.7080	15.5430
 1.7090	15.4920
 1.7100	15.4450
 1.7110	15.3970
 1.7120	15.3540
 1.7130	15.3120
 1.7140	15.2700
 1.7150	15.2310
 1.7160	15.1930
 1.7170	15.1550
 1.7180	15.1180
 1.7190	15.0860
 1.7200	15.0540
 1.7210	15.0240
 1.7220	14.9950
 1.7230	14.9650
 1.7240	14.9380
 1.7250	14.9140
 1.7260	14.8910
 1.7270	14.8700
 1.7280	14.8510
 1.7290	14.8340
 1.7300	14.8200
 1.7310	14.8070
 1.7320	14.7960
 1.7330	14.7840
 1.7340	14.7750
 1.7350	14.7630
 1.7360	14.7530
 1.7370	14.7390
 1.7380	14.7230
 1.7390	14.7030
 1.7400	14.6780
 1.7410	14.6520
 1.7420	14.6210
 1.7430	14.5880
 1.7440	14.5510
 1.7450	14.5130
 1.7460	14.4710
 1.7470	14.4300
 1.7480	14.3900
 1.7490	14.3480
 1.7500	14.3060
 1.7510	14.2640
 1.7520	14.2200
 1.7530	14.1780
 1.7540	14.1370
 1.7550	14.0950
 1.7560	14.0540
 1.7570	14.0150
 1.7580	13.9790
 1.7590	13.9450
 1.7600	13.9120
 1.7610	13.8770
 1.7620	13.8470
 1.7630	13.8180
 1.7640	13.7920
 1.7650	13.7710
 1.7660	13.7500
 1.7670	13.7300
 1.7680	13.7090
 1.7690	13.6860
 1.7700	13.6660
 1.7710	13.6460
 1.7720	13.6280
 1.7730	13.6130
 1.7740	13.5980
 1.7750	13.5840
 1.7760	13.5710
 1.7770	13.5590
 1.7780	13.5460
 1.7790	13.5320
 1.7800	13.5200
 1.7810	13.5080
 1.7820	13.4990
 1.7830	13.4910
 1.7840	13.4850
 1.7850	13.4810
 1.7860	13.4770
 1.7870	13.4750
 1.7880	13.4730
 1.7890	13.4710
 1.7900	13.4710
 1.7910	13.4710
 1.7920	13.4710
 1.7930	13.4740
 1.7940	13.4780
 1.7950	13.4830
 1.7960	13.4890
 1.7970	13.4950
 1.7980	13.4990
 1.7990	13.5050
 1.8000	13.5100
 1.8010	13.5160
 1.8020	13.5240
 1.8030	13.5310
 1.8040	13.5380
 1.8050	13.5450
 1.8060	13.5510
 1.8070	13.5590
 1.8080	13.5660
 1.8090	13.5730
 1.8100	13.5800
 1.8110	13.5870
 1.8120	13.5950
 1.8130	13.6010
 1.8140	13.6070
 1.8150	13.6090
 1.8160	13.6100
 1.8170	13.6110
 1.8180	13.6160
 1.8190	13.6210
 1.8200	13.6250
 1.8210	13.6280
 1.8220	13.6300
 1.8230	13.6290
 1.8240	13.6290
 1.8250	13.6260
 1.8260	13.6260
 1.8270	13.5690
 1.8280	13.5130
 1.8290	13.4570
 1.8300	13.4000
 1.8310	13.3440
 1.8320	13.2880
 1.8330	13.2320
 1.8340	13.1750
 1.8350	13.1750
 1.8360	13.1540
 1.8370	13.1330
 1.8380	13.1070
 1.8390	13.0800
 1.8400	13.0530
 1.8410	13.0200
 1.8420	12.9830
 1.8430	12.9420
 1.8440	12.8990
 1.8450	12.8500
 1.8460	12.7970
 1.8470	12.7400
 1.8480	12.6760
 1.8490	12.6040
 1.8500	12.5270
 1.8510	12.4450
 1.8520	12.3560
 1.8530	12.2610
 1.8540	12.1610
 1.8550	12.0520
 1.8560	11.9370
 1.8570	11.8160
 1.8580	11.6860
 1.8590	11.5490
 1.8600	11.4050
 1.8610	11.2550
 1.8620	11.0940
 1.8630	10.9280
 1.8640	10.7570
 1.8650	10.5740
 1.8660	10.3850
 1.8670	10.1870
 1.8680	 9.9770
 1.8690	 9.7610
 1.8700	 9.5390
 1.8710	 9.3090
 1.8720	 9.0760
 1.8730	 8.8430
 1.8740	 8.6070
 1.8750	 8.3710
 1.8760	 8.1360
 1.8770	 7.9040
 1.8780	 7.6720
 1.8790	 7.4460
 1.8800	 7.2270
 1.8810	 7.0120
 1.8820	 6.8000
 1.8830	 6.5970
 1.8840	 6.4020
 1.8850	 6.2130
 1.8860	 6.0310
 1.8870	 5.8580
 1.8880	 5.6930
 1.8890	 5.5390
 1.8900	 5.3950
 1.8910	 5.2600
 1.8920	 5.1340
 1.8930	 5.0190
 1.8940	 4.9140
 1.8950	 4.8170
 1.8960	 4.7290
 1.8970	 4.6490
 1.8980	 4.5760
 1.8990	 4.5100
 1.9000	 4.4490
 1.9010	 4.3960
 1.9020	 4.3470
 1.9030	 4.3050
 1.9040	 4.2660
 1.9050	 4.2330
 1.9060	 4.2060
 1.9070	 4.1810
 1.9080	 4.1610
 1.9090	 4.1440
 1.9100	 4.1260
 1.9110	 4.1090
 1.9120	 4.0930
 1.9130	 4.0790
 1.9140	 4.0650
 1.9150	 4.0560
 1.9160	 4.0480
 1.9170	 4.0430
 1.9180	 4.0400
 1.9190	 4.0350
 1.9200	 4.0290
 1.9210	 4.0230
 1.9220	 4.0200
 1.9230	 4.0150
 1.9240	 4.0140
 1.9250	 4.0150
 1.9260	 4.0180
 1.9270	 4.0200
 1.9280	 4.0200
 1.9290	 4.0210
 1.9300	 4.0220
 1.9310	 4.0230
 1.9320	 4.0250
 1.9330	 4.0270
 1.9340	 4.0310
 1.9350	 4.0340
 1.9360	 4.0370
 1.9370	 4.0410
 1.9380	 4.0440
 1.9390	 4.0470
 1.9400	 4.0510
 1.9410	 4.0560
 1.9420	 4.0630
 1.9430	 4.0700
 1.9440	 4.0770
 1.9450	 4.0850
 1.9460	 4.0930
 1.9470	 4.0990
 1.9480	 4.1060
 1.9490	 4.1110
 1.9500	 4.1180
 1.9510	 4.1250
 1.9520	 4.1340
 1.9530	 4.1450
 1.9540	 4.1540
 1.9550	 4.1640
 1.9560	 4.1730
 1.9570	 4.1820
 1.9580	 4.1900
 1.9590	 4.1990
 1.9600	 4.2060
 1.9610	 4.2150
 1.9620	 4.2250
 1.9630	 4.2350
 1.9640	 4.2440
 1.9650	 4.2550
 1.9660	 4.2650
 1.9670	 4.2750
 1.9680	 4.2850
 1.9690	 4.2950
 1.9700	 4.3070
 1.9710	 4.3200
 1.9720	 4.3330
 1.9730	 4.3480
 1.9740	 4.3650
 1.9750	 4.3760
 1.9760	 4.3890
 1.9770	 4.4050
 1.9780	 4.4180
 1.9790	 4.4330
 1.9800	 4.4510
 1.9810	 4.4680
 1.9820	 4.4830
 1.9830	 4.4990
 1.9840	 4.5140
 1.9850	 4.5310
 1.9860	 4.5470
 1.9870	 4.5650
 1.9880	 4.5830
 1.9890	 4.6000
 1.9900	 4.6160
 1.9910	 4.6310
 1.9920	 4.6480
 1.9930	 4.6660
 1.9940	 4.6830
 1.9950	 4.7030
 1.9960	 4.7210
 1.9970	 4.7380
 1.9980	 4.7570
 1.9990	 4.7770
 2.0000	 4.7940
 2.0010	 4.8110
 2.0020	 4.8320
 2.0030	 4.8490
 2.0040	 4.8660
 2.0050	 4.8850
 2.0060	 4.9050
 2.0070	 4.9240
 2.0080	 4.9430
 2.0090	 4.9620
 2.0100	 4.9780
 2.0110	 4.9950
 2.0120	 5.0130
 2.0130	 5.0320
 2.0140	 5.0520
 2.0150	 5.0700
 2.0160	 5.0880
 2.0170	 5.1060
 2.0180	 5.1230
 2.0190	 5.1390
 2.0200	 5.1550
 2.0210	 5.1690
 2.0220	 5.1860
 2.0230	 5.2050
 2.0240	 5.2230
 2.0250	 5.2440
 2.0260	 5.2610
 2.0270	 5.2760
 2.0280	 5.2910
 2.0290	 5.3040
 2.0300	 5.3200
 2.0310	 5.3340
 2.0320	 5.3490
 2.0330	 5.3620
 2.0340	 5.3740
 2.0350	 5.3870
 2.0360	 5.4010
 2.0370	 5.4140
 2.0380	 5.4270
 2.0390	 5.4400
 2.0400	 5.4530
 2.0410	 5.4640
 2.0420	 5.4750
 2.0430	 5.4850
 2.0440	 5.4950
 2.0450	 5.5040
 2.0460	 5.5140
 2.0470	 5.5270
 2.0480	 5.5370
 2.0490	 5.5460
 2.0500	 5.5560
 2.0510	 5.5650
 2.0520	 5.5740
 2.0530	 5.5860
 2.0540	 5.5940
 2.0550	 5.5990
 2.0560	 5.6060
 2.0570	 5.6140
 2.0580	 5.6180
 2.0590	 5.6260
 2.0600	 5.6360
 2.0610	 5.6460
 2.0620	 5.6570
 2.0630	 5.6660
 2.0640	 5.6750
 2.0650	 5.6830
 2.0660	 5.6910
 2.0670	 5.7000
 2.0680	 5.7090
 2.0690	 5.7180
 2.0700	 5.7270
 2.0710	 5.7360
 2.0720	 5.7450
 2.0730	 5.7540
 2.0740	 5.7630
 2.0750	 5.7710
 2.0760	 5.7800
 2.0770	 5.7910
 2.0780	 5.8000
 2.0790	 5.8110
 2.0800	 5.8200
 2.0810	 5.8270
 2.0820	 5.8350
 2.0830	 5.8430
 2.0840	 5.8510
 2.0850	 5.8570
 2.0860	 5.8650
 2.0870	 5.8750
 2.0880	 5.8830
 2.0890	 5.8930
 2.0900	 5.9030
 2.0910	 5.9110
 2.0920	 5.9150
 2.0930	 5.9230
 2.0940	 5.9310
 2.0950	 5.9390
 2.0960	 5.9500
 2.0970	 5.9590
 2.0980	 5.9660
 2.0990	 5.9740
 2.1000	 5.9840
 2.1010	 5.9920
 2.1020	 5.9990
 2.1030	 6.0060
 2.1040	 6.0140
 2.1050	 6.0200
 2.1060	 6.0280
 2.1070	 6.0370
 2.1080	 6.0450
 2.1090	 6.0530
 2.1100	 6.0610
 2.1110	 6.0690
 2.1120	 6.0760
 2.1130	 6.0840
 2.1140	 6.0900
 2.1150	 6.0950
 2.1160	 6.1000
 2.1170	 6.1040
 2.1180	 6.1100
 2.1190	 6.1200
 2.1200	 6.1260
 2.1210	 6.1320
 2.1220	 6.1400
 2.1230	 6.1450
 2.1240	 6.1470
 2.1250	 6.1520
 2.1260	 6.1600
 2.1270	 6.1660
 2.1280	 6.1740
 2.1290	 6.1800
 2.1300	 6.1850
 2.1310	 6.1920
 2.1320	 6.1990
 2.1330	 6.2070
 2.1340	 6.2180
 2.1350	 6.2270
 2.1360	 6.2350
 2.1370	 6.2440
 2.1380	 6.2490
 2.1390	 6.2580
 2.1400	 6.2680
 2.1410	 6.2800
 2.1420	 6.2910
 2.1430	 6.3040
 2.1440	 6.3160
 2.1450	 6.3270
 2.1460	 6.3380
 2.1470	 6.3500
 2.1480	 6.3620
 2.1490	 6.3750
 2.1500	 6.3880
 2.1510	 6.4040
 2.1520	 6.4170
 2.1530	 6.4300
 2.1540	 6.4420
 2.1550	 6.4510
 2.1560	 6.4640
 2.1570	 6.4790
 2.1580	 6.4920
 2.1590	 6.5060
 2.1600	 6.5200
 2.1610	 6.5340
 2.1620	 6.5490
 2.1630	 6.5630
 2.1640	 6.5780
 2.1650	 6.5910
 2.1660	 6.6000
 2.1670	 6.6120
 2.1680	 6.6230
 2.1690	 6.6340
 2.1700	 6.6470
 2.1710	 6.6580
 2.1720	 6.6700
 2.1730	 6.6800
 2.1740	 6.6920
 2.1750	 6.7010
 2.1760	 6.7060
 2.1770	 6.7150
 2.1780	 6.7240
 2.1790	 6.7330
 2.1800	 6.7450
 2.1810	 6.7570
 2.1820	 6.7690
 2.1830	 6.7810
 2.1840	 6.7940
 2.1850	 6.8080
 2.1860	 6.8200
 2.1870	 6.8310
 2.1880	 6.8420
 2.1890	 6.8530
 2.1900	 6.8640
 2.1910	 6.8750
 2.1920	 6.8850
 2.1930	 6.8930
 2.1940	 6.9060
 2.1950	 6.9220
 2.1960	 6.9360
 2.1970	 6.9520
 2.1980	 6.9640
 2.1990	 6.9710
 2.2000	 6.9800
 2.2010	 6.9890
 2.2020	 6.9990
 2.2030	 7.0120
 2.2040	 7.0230
 2.2050	 7.0310
 2.2060	 7.0400
 2.2070	 7.0480
 2.2080	 7.0560
 2.2090	 7.0630
 2.2100	 7.0690
 2.2110	 7.0770
 2.2120	 7.0850
 2.2130	 7.0940
 2.2140	 7.1070
 2.2150	 7.1160
 2.2160	 7.1210
 2.2170	 7.1290
 2.2180	 7.1360
 2.2190	 7.1400
 2.2200	 7.1430
 2.2210	 7.1450
 2.2220	 7.1410
 2.2230	 7.1400
 2.2240	 7.1400
 2.2250	 7.1390
 2.2260	 7.1400
 2.2270	 7.1380
 2.2280	 7.1360
 2.2290	 7.1290
 2.2300	 7.1170
 2.2310	 7.1030
 2.2320	 7.0850
 2.2330	 7.0680
 2.2340	 7.0530
 2.2350	 7.0410
 2.2360	 7.0270
 2.2370	 7.0130
 2.2380	 6.9960
 2.2390	 6.9780
 2.2400	 6.9590
 2.2410	 6.9400
 2.2420	 6.9180
 2.2430	 6.8940
 2.2440	 6.8680
 2.2450	 6.8380
 2.2460	 6.8080
 2.2470	 6.7760
 2.2480	 6.7460
 2.2490	 6.7170
 2.2500	 6.6870
 2.2510	 6.6560
 2.2520	 6.6260
 2.2530	 6.5960
 2.2540	 6.5670
 2.2550	 6.5370
 2.2560	 6.5070
 2.2570	 6.4780
 2.2580	 6.4470
 2.2590	 6.4140
 2.2600	 6.3810
 2.2610	 6.3450
 2.2620	 6.3150
 2.2630	 6.2830
 2.2640	 6.2550
 2.2650	 6.2320
 2.2660	 6.2030
 2.2670	 6.1760
 2.2680	 6.1490
 2.2690	 6.1220
 2.2700	 6.0950
 2.2710	 6.0720
 2.2720	 6.0510
 2.2730	 6.0310
 2.2740	 6.0150
 2.2750	 5.9950
 2.2760	 5.9730
 2.2770	 5.9560
 2.2780	 5.9400
 2.2790	 5.9220
 2.2800	 5.9030
 2.2810	 5.8860
 2.2820	 5.8660
 2.2830	 5.8480
 2.2840	 5.8330
 2.2850	 5.8150
 2.2860	 5.7930
 2.2870	 5.7720
 2.2880	 5.7520
 2.2890	 5.7310
 2.2900	 5.7100
 2.2910	 5.6880
 2.2920	 5.6650
 2.2930	 5.6410
 2.2940	 5.6140
 2.2950	 5.5890
 2.2960	 5.5640
 2.2970	 5.5410
 2.2980	 5.5190
 2.2990	 5.5030
 2.3000	 5.4830
 2.3010	 5.4620
 2.3020	 5.4440
 2.3030	 5.4230
 2.3040	 5.4070
 2.3050	 5.3960
 2.3060	 5.3830
 2.3070	 5.3710
 2.3080	 5.3540
 2.3090	 5.3390
 2.3100	 5.3340
 2.3110	 5.3280
 2.3120	 5.3220
 2.3130	 5.3220
 2.3140	 5.3240
 2.3150	 5.3240
 2.3160	 5.3260
 2.3170	 5.3370
 2.3180	 5.3400
 2.3190	 5.3380
 2.3200	 5.3380
 2.3210	 5.3380
 2.3220	 5.3340
 2.3230	 5.3280
 2.3240	 5.3210
 2.3250	 5.3120
 2.3260	 5.3040
 2.3270	 5.2950
 2.3280	 5.2880
 2.3290	 5.2830
 2.3300	 5.2740
 2.3310	 5.2660
 2.3320	 5.2570
 2.3330	 5.2460
 2.3340	 5.2350
 2.3350	 5.2240
 2.3360	 5.2150
 2.3370	 5.2080
 2.3380	 5.1990
 2.3390	 5.1860
 2.3400	 5.1770
 2.3410	 5.1690
 2.3420	 5.1570
 2.3430	 5.1470
 2.3440	 5.1380
 2.3450	 5.1200
 2.3460	 5.1080
 2.3470	 5.1000
 2.3480	 5.0930
 2.3490	 5.0890
 2.3500	 5.0860
 2.3510	 5.0920
 2.3520	 5.0900
 2.3530	 5.0840
 2.3540	 5.0820
 2.3550	 5.0730
 2.3560	 5.0640
 2.3570	 5.0570
 2.3580	 5.0490
 2.3590	 5.0450
 2.3600	 5.0370
 2.3610	 5.0310
 2.3620	 5.0310
 2.3630	 5.0280
 2.3640	 5.0190
 2.3650	 5.0120
 2.3660	 5.0030
 2.3670	 4.9990
 2.3680	 5.0020
 2.3690	 4.9920
 2.3700	 4.9780
 2.3710	 4.9650
 2.3720	 4.9470
 2.3730	 4.9350
 2.3740	 4.9310
 2.3750	 4.9260
 2.3760	 4.9210
 2.3770	 4.9210
 2.3780	 4.9170
 2.3790	 4.9060
 2.3800	 4.8950
 2.3810	 4.8940
 2.3820	 4.8930
 2.3830	 4.8990
 2.3840	 4.9050
 2.3850	 4.8830
 2.3860	 4.8640
 2.3870	 4.8430
 2.3880	 4.8180
 2.3890	 4.8080
 2.3900	 4.7970
 2.3910	 4.7890
 2.3920	 4.7800
 2.3930	 4.7670
 2.3940	 4.7610
 2.3950	 4.7550
 2.3960	 4.7410
 2.3970	 4.7300
 2.3980	 4.7190
 2.3990	 4.7020
 2.4000	 4.6900
 2.4010	 4.6860
 2.4020	 4.6810
 2.4030	 4.6750
 2.4040	 4.6670
 2.4050	 4.6530
 2.4060	 4.6390
 2.4070	 4.6290
 2.4080	 4.6190
 2.4090	 4.6060
 2.4100	 4.5970
 2.4110	 4.5800
 2.4120	 4.5660
 2.4130	 4.5630
 2.4140	 4.5510
 2.4150	 4.5450
 2.4160	 4.5460
 2.4170	 4.5300
 2.4180	 4.5310
 2.4190	 4.5320
 2.4200	 4.5140
 2.4210	 4.5090
 2.4220	 4.4940
 2.4230	 4.4720
 2.4240	 4.4580
 2.4250	 4.4440
 2.4260	 4.4330
 2.4270	 4.4220
 2.4280	 4.4100
 2.4290	 4.3950
 2.4300	 4.3860
 2.4310	 4.3800
 2.4320	 4.3710
 2.4330	 4.3530
 2.4340	 4.3350
 2.4350	 4.3250
 2.4360	 4.3160
 2.4370	 4.3170
 2.4380	 4.3200
 2.4390	 4.3060
 2.4400	 4.2950
 2.4410	 4.2910
 2.4420	 4.2880
 2.4430	 4.2940
 2.4440	 4.2990
 2.4450	 4.2930
 2.4460	 4.2800
 2.4470	 4.2640
 2.4480	 4.2530
 2.4490	 4.2520
 2.4500	 4.2500
 2.4510	 4.2300
 2.4520	 4.2120
 2.4530	 4.1960
 2.4540	 4.1670
 2.4550	 4.1540
 2.4560	 4.1460
 2.4570	 4.1340
 2.4580	 4.1410
 2.4590	 4.1530
 2.4600	 4.1530
 2.4610	 4.1300
 2.4620	 4.1030
 2.4630	 4.1010
 2.4640	 4.1080
 2.4650	 4.1200
 2.4660	 4.1390
 2.4670	 4.1330
 2.4680	 4.1140
 2.4690	 4.1260
 2.4700	 4.1240
 2.4710	 4.1200
 2.4720	 4.1140
 2.4730	 4.0930
 2.4740	 4.0890
 2.4750	 4.0920
 2.4760	 4.0890
 2.4770	 4.0930
 2.4780	 4.0870
 2.4790	 4.0720
 2.4800	 4.0550
 2.4810	 4.0410
 2.4820	 4.0340
 2.4830	 4.0210
 2.4840	 4.0460
 2.4850	 4.0420
 2.4860	 4.0090
 2.4870	 3.9790
 2.4880	 3.9300
 2.4890	 3.9030
 2.4900	 3.9180
 2.4910	 3.9530
 2.4920	 3.9870
 2.4930	 3.9810
 2.4940	 3.9840
 2.4950	 4.0080
 2.4960	 4.0200
 2.4970	 4.0490
 2.4980	 4.0730
 2.4990	 4.0820
 2.5000	 4.1020
