Name: Quercus suber
Type: vegetation
Class: Tree
Genus: Quercus
Species: suber
Sample No.: JPL106b
Owner: JPL
Wavelength Range: VSWIR
Origin: 34.12913; -118.11246;; WGS84
Collection Date: 9/7/2016
Description: Samples were collected at the Huntington Garden in San Marino California as part of a JPL Subcontract studying HyTES imagery. Samples were taken to JPL and processed within 48 hours of collection. The same leaves were processed in the Nicolet and then measured using the ASD.
Measurement: Bidirectional reflectance
First Column: X
Second Column: Y
X Units: Wavelength (micrometer)
Y Units: Reflectance (percentage)
First X Value: 0.35
Last X Value: 2.5
Number of X Values: 2151
Additional Information: vegetation.tree.quercus.suber.vswir.jpl106b.jpl.asd.ancillary.txt

 0.3500	 6.3130
 0.3510	 6.3040
 0.3520	 6.2430
 0.3530	 6.2140
 0.3540	 6.2780
 0.3550	 6.2430
 0.3560	 6.1750
 0.3570	 6.1020
 0.3580	 6.0350
 0.3590	 6.0340
 0.3600	 6.0600
 0.3610	 6.0840
 0.3620	 6.1060
 0.3630	 6.0760
 0.3640	 6.0270
 0.3650	 5.9950
 0.3660	 5.9420
 0.3670	 5.9510
 0.3680	 5.9880
 0.3690	 5.9530
 0.3700	 5.9850
 0.3710	 5.9970
 0.3720	 5.9540
 0.3730	 5.9600
 0.3740	 5.9550
 0.3750	 5.9150
 0.3760	 5.8530
 0.3770	 5.9070
 0.3780	 5.9430
 0.3790	 5.9400
 0.3800	 5.9730
 0.3810	 5.9210
 0.3820	 5.8630
 0.3830	 5.8760
 0.3840	 5.9730
 0.3850	 5.9830
 0.3860	 5.9020
 0.3870	 5.8100
 0.3880	 5.8530
 0.3890	 5.8990
 0.3900	 5.8900
 0.3910	 5.8680
 0.3920	 5.8870
 0.3930	 5.9080
 0.3940	 5.8970
 0.3950	 5.8810
 0.3960	 5.8580
 0.3970	 5.8460
 0.3980	 5.8690
 0.3990	 5.8660
 0.4000	 5.8740
 0.4010	 5.8980
 0.4020	 5.8920
 0.4030	 5.8940
 0.4040	 5.8940
 0.4050	 5.8850
 0.4060	 5.9170
 0.4070	 5.9320
 0.4080	 5.9320
 0.4090	 5.9610
 0.4100	 5.9570
 0.4110	 5.9460
 0.4120	 5.9470
 0.4130	 5.9460
 0.4140	 5.9730
 0.4150	 6.0020
 0.4160	 6.0040
 0.4170	 6.0130
 0.4180	 6.0220
 0.4190	 6.0320
 0.4200	 6.0620
 0.4210	 6.0860
 0.4220	 6.1060
 0.4230	 6.1230
 0.4240	 6.1310
 0.4250	 6.1470
 0.4260	 6.1720
 0.4270	 6.2010
 0.4280	 6.2190
 0.4290	 6.2320
 0.4300	 6.2450
 0.4310	 6.2620
 0.4320	 6.2710
 0.4330	 6.2760
 0.4340	 6.2850
 0.4350	 6.3060
 0.4360	 6.3220
 0.4370	 6.3360
 0.4380	 6.3640
 0.4390	 6.3930
 0.4400	 6.4230
 0.4410	 6.4530
 0.4420	 6.4690
 0.4430	 6.4780
 0.4440	 6.4910
 0.4450	 6.5130
 0.4460	 6.5190
 0.4470	 6.5260
 0.4480	 6.5420
 0.4490	 6.5650
 0.4500	 6.5740
 0.4510	 6.5780
 0.4520	 6.5890
 0.4530	 6.6050
 0.4540	 6.6160
 0.4550	 6.6230
 0.4560	 6.6350
 0.4570	 6.6370
 0.4580	 6.6420
 0.4590	 6.6570
 0.4600	 6.6640
 0.4610	 6.6740
 0.4620	 6.6840
 0.4630	 6.6870
 0.4640	 6.6890
 0.4650	 6.6940
 0.4660	 6.7020
 0.4670	 6.7060
 0.4680	 6.7160
 0.4690	 6.7260
 0.4700	 6.7290
 0.4710	 6.7290
 0.4720	 6.7310
 0.4730	 6.7360
 0.4740	 6.7430
 0.4750	 6.7480
 0.4760	 6.7540
 0.4770	 6.7610
 0.4780	 6.7660
 0.4790	 6.7730
 0.4800	 6.7770
 0.4810	 6.7740
 0.4820	 6.7760
 0.4830	 6.7810
 0.4840	 6.7850
 0.4850	 6.7850
 0.4860	 6.7860
 0.4870	 6.7910
 0.4880	 6.8000
 0.4890	 6.8060
 0.4900	 6.8230
 0.4910	 6.8410
 0.4920	 6.8410
 0.4930	 6.8570
 0.4940	 6.8730
 0.4950	 6.8820
 0.4960	 6.8990
 0.4970	 6.9190
 0.4980	 6.9410
 0.4990	 6.9680
 0.5000	 6.9840
 0.5010	 7.0040
 0.5020	 7.0340
 0.5030	 7.0740
 0.5040	 7.1080
 0.5050	 7.1460
 0.5060	 7.1940
 0.5070	 7.2400
 0.5080	 7.2920
 0.5090	 7.3490
 0.5100	 7.4080
 0.5110	 7.4780
 0.5120	 7.5570
 0.5130	 7.6440
 0.5140	 7.7330
 0.5150	 7.8330
 0.5160	 7.9430
 0.5170	 8.0610
 0.5180	 8.1830
 0.5190	 8.3100
 0.5200	 8.4460
 0.5210	 8.5930
 0.5220	 8.7410
 0.5230	 8.8900
 0.5240	 9.0380
 0.5250	 9.1850
 0.5260	 9.3270
 0.5270	 9.4640
 0.5280	 9.5970
 0.5290	 9.7260
 0.5300	 9.8480
 0.5310	 9.9630
 0.5320	10.0730
 0.5330	10.1740
 0.5340	10.2660
 0.5350	10.3520
 0.5360	10.4380
 0.5370	10.5190
 0.5380	10.5910
 0.5390	10.6490
 0.5400	10.7010
 0.5410	10.7500
 0.5420	10.7960
 0.5430	10.8400
 0.5440	10.8910
 0.5450	10.9480
 0.5460	11.0080
 0.5470	11.0690
 0.5480	11.1250
 0.5490	11.1720
 0.5500	11.2090
 0.5510	11.2380
 0.5520	11.2580
 0.5530	11.2670
 0.5540	11.2720
 0.5550	11.2680
 0.5560	11.2510
 0.5570	11.2220
 0.5580	11.1790
 0.5590	11.1280
 0.5600	11.0730
 0.5610	11.0080
 0.5620	10.9350
 0.5630	10.8560
 0.5640	10.7730
 0.5650	10.6890
 0.5660	10.6010
 0.5670	10.5090
 0.5680	10.4100
 0.5690	10.3130
 0.5700	10.2200
 0.5710	10.1280
 0.5720	10.0360
 0.5730	 9.9420
 0.5740	 9.8540
 0.5750	 9.7840
 0.5760	 9.7330
 0.5770	 9.6860
 0.5780	 9.6330
 0.5790	 9.5730
 0.5800	 9.5090
 0.5810	 9.4450
 0.5820	 9.3880
 0.5830	 9.3450
 0.5840	 9.3110
 0.5850	 9.2800
 0.5860	 9.2450
 0.5870	 9.2010
 0.5880	 9.1550
 0.5890	 9.1140
 0.5900	 9.0860
 0.5910	 9.0710
 0.5920	 9.0620
 0.5930	 9.0490
 0.5940	 9.0380
 0.5950	 9.0270
 0.5960	 9.0150
 0.5970	 9.0000
 0.5980	 8.9870
 0.5990	 8.9750
 0.6000	 8.9610
 0.6010	 8.9430
 0.6020	 8.9220
 0.6030	 8.8970
 0.6040	 8.8700
 0.6050	 8.8340
 0.6060	 8.7930
 0.6070	 8.7490
 0.6080	 8.6980
 0.6090	 8.6410
 0.6100	 8.5780
 0.6110	 8.5100
 0.6120	 8.4600
 0.6130	 8.4200
 0.6140	 8.3830
 0.6150	 8.3410
 0.6160	 8.3020
 0.6170	 8.2650
 0.6180	 8.2250
 0.6190	 8.1920
 0.6200	 8.1620
 0.6210	 8.1350
 0.6220	 8.1160
 0.6230	 8.0980
 0.6240	 8.0830
 0.6250	 8.0690
 0.6260	 8.0580
 0.6270	 8.0500
 0.6280	 8.0450
 0.6290	 8.0420
 0.6300	 8.0370
 0.6310	 8.0350
 0.6320	 8.0350
 0.6330	 8.0350
 0.6340	 8.0290
 0.6350	 8.0220
 0.6360	 8.0140
 0.6370	 8.0020
 0.6380	 7.9860
 0.6390	 7.9660
 0.6400	 7.9440
 0.6410	 7.9210
 0.6420	 7.8930
 0.6430	 7.8610
 0.6440	 7.8320
 0.6450	 7.8020
 0.6460	 7.7700
 0.6470	 7.7360
 0.6480	 7.7080
 0.6490	 7.6790
 0.6500	 7.6490
 0.6510	 7.6260
 0.6520	 7.5980
 0.6530	 7.5720
 0.6540	 7.5480
 0.6550	 7.5200
 0.6560	 7.4910
 0.6570	 7.4610
 0.6580	 7.4280
 0.6590	 7.3950
 0.6600	 7.3610
 0.6610	 7.3290
 0.6620	 7.2970
 0.6630	 7.2720
 0.6640	 7.2490
 0.6650	 7.2280
 0.6660	 7.2080
 0.6670	 7.1940
 0.6680	 7.1850
 0.6690	 7.1790
 0.6700	 7.1750
 0.6710	 7.1720
 0.6720	 7.1720
 0.6730	 7.1760
 0.6740	 7.1820
 0.6750	 7.1910
 0.6760	 7.2030
 0.6770	 7.2130
 0.6780	 7.2230
 0.6790	 7.2360
 0.6800	 7.2550
 0.6810	 7.2790
 0.6820	 7.3050
 0.6830	 7.3360
 0.6840	 7.3710
 0.6850	 7.4140
 0.6860	 7.4680
 0.6870	 7.5340
 0.6880	 7.6130
 0.6890	 7.7110
 0.6900	 7.8350
 0.6910	 7.9870
 0.6920	 8.1760
 0.6930	 8.4020
 0.6940	 8.6700
 0.6950	 8.9900
 0.6960	 9.3570
 0.6970	 9.7730
 0.6980	10.2380
 0.6990	10.7480
 0.7000	11.3010
 0.7010	11.8930
 0.7020	12.5180
 0.7030	13.1670
 0.7040	13.8410
 0.7050	14.5330
 0.7060	15.2330
 0.7070	15.9470
 0.7080	16.6730
 0.7090	17.4030
 0.7100	18.1370
 0.7110	18.8780
 0.7120	19.6250
 0.7130	20.3670
 0.7140	21.1130
 0.7150	21.8610
 0.7160	22.6050
 0.7170	23.3480
 0.7180	24.0840
 0.7190	24.8150
 0.7200	25.5460
 0.7210	26.2620
 0.7220	26.9670
 0.7230	27.6610
 0.7240	28.3420
 0.7250	29.0030
 0.7260	29.6450
 0.7270	30.2690
 0.7280	30.8710
 0.7290	31.4500
 0.7300	32.0060
 0.7310	32.5410
 0.7320	33.0530
 0.7330	33.5440
 0.7340	34.0130
 0.7350	34.4540
 0.7360	34.8730
 0.7370	35.2710
 0.7380	35.6500
 0.7390	36.0070
 0.7400	36.3440
 0.7410	36.6620
 0.7420	36.9620
 0.7430	37.2410
 0.7440	37.5020
 0.7450	37.7470
 0.7460	37.9700
 0.7470	38.1810
 0.7480	38.3810
 0.7490	38.5670
 0.7500	38.7310
 0.7510	38.8850
 0.7520	39.0330
 0.7530	39.1730
 0.7540	39.2980
 0.7550	39.4140
 0.7560	39.5200
 0.7570	39.6120
 0.7580	39.6960
 0.7590	39.7790
 0.7600	39.8610
 0.7610	39.9340
 0.7620	40.0010
 0.7630	40.0600
 0.7640	40.1130
 0.7650	40.1650
 0.7660	40.2160
 0.7670	40.2640
 0.7680	40.3070
 0.7690	40.3470
 0.7700	40.3840
 0.7710	40.4180
 0.7720	40.4510
 0.7730	40.4850
 0.7740	40.5150
 0.7750	40.5380
 0.7760	40.5670
 0.7770	40.5920
 0.7780	40.6170
 0.7790	40.6440
 0.7800	40.6700
 0.7810	40.6910
 0.7820	40.7090
 0.7830	40.7300
 0.7840	40.7470
 0.7850	40.7650
 0.7860	40.7850
 0.7870	40.7960
 0.7880	40.8130
 0.7890	40.8310
 0.7900	40.8420
 0.7910	40.8560
 0.7920	40.8690
 0.7930	40.8800
 0.7940	40.8950
 0.7950	40.9050
 0.7960	40.9150
 0.7970	40.9260
 0.7980	40.9400
 0.7990	40.9440
 0.8000	40.9470
 0.8010	40.9550
 0.8020	40.9620
 0.8030	40.9650
 0.8040	40.9680
 0.8050	40.9770
 0.8060	40.9790
 0.8070	40.9760
 0.8080	40.9740
 0.8090	40.9790
 0.8100	40.9800
 0.8110	40.9850
 0.8120	40.9940
 0.8130	40.9960
 0.8140	40.9880
 0.8150	40.9810
 0.8160	40.9830
 0.8170	40.9900
 0.8180	40.9910
 0.8190	40.9890
 0.8200	40.9890
 0.8210	40.9880
 0.8220	40.9850
 0.8230	40.9800
 0.8240	40.9730
 0.8250	40.9690
 0.8260	40.9690
 0.8270	40.9740
 0.8280	40.9770
 0.8290	40.9710
 0.8300	40.9630
 0.8310	40.9630
 0.8320	40.9610
 0.8330	40.9600
 0.8340	40.9580
 0.8350	40.9540
 0.8360	40.9530
 0.8370	40.9510
 0.8380	40.9490
 0.8390	40.9520
 0.8400	40.9530
 0.8410	40.9550
 0.8420	40.9590
 0.8430	40.9630
 0.8440	40.9690
 0.8450	40.9780
 0.8460	40.9840
 0.8470	40.9820
 0.8480	40.9840
 0.8490	40.9870
 0.8500	40.9880
 0.8510	40.9860
 0.8520	40.9880
 0.8530	40.9960
 0.8540	41.0010
 0.8550	41.0070
 0.8560	41.0110
 0.8570	41.0140
 0.8580	41.0220
 0.8590	41.0350
 0.8600	41.0490
 0.8610	41.0580
 0.8620	41.0660
 0.8630	41.0730
 0.8640	41.0780
 0.8650	41.0800
 0.8660	41.0820
 0.8670	41.0870
 0.8680	41.0960
 0.8690	41.1080
 0.8700	41.1140
 0.8710	41.1210
 0.8720	41.1300
 0.8730	41.1390
 0.8740	41.1520
 0.8750	41.1620
 0.8760	41.1720
 0.8770	41.1830
 0.8780	41.1940
 0.8790	41.2050
 0.8800	41.2160
 0.8810	41.2250
 0.8820	41.2360
 0.8830	41.2440
 0.8840	41.2490
 0.8850	41.2570
 0.8860	41.2680
 0.8870	41.2790
 0.8880	41.2870
 0.8890	41.3000
 0.8900	41.3110
 0.8910	41.3170
 0.8920	41.3190
 0.8930	41.3320
 0.8940	41.3430
 0.8950	41.3500
 0.8960	41.3600
 0.8970	41.3690
 0.8980	41.3770
 0.8990	41.3840
 0.9000	41.3950
 0.9010	41.4050
 0.9020	41.4160
 0.9030	41.4300
 0.9040	41.4470
 0.9050	41.4510
 0.9060	41.4550
 0.9070	41.4660
 0.9080	41.4640
 0.9090	41.4640
 0.9100	41.4710
 0.9110	41.4830
 0.9120	41.4840
 0.9130	41.4910
 0.9140	41.5010
 0.9150	41.5060
 0.9160	41.5070
 0.9170	41.5100
 0.9180	41.5160
 0.9190	41.5230
 0.9200	41.5300
 0.9210	41.5350
 0.9220	41.5370
 0.9230	41.5380
 0.9240	41.5370
 0.9250	41.5370
 0.9260	41.5340
 0.9270	41.5240
 0.9280	41.5200
 0.9290	41.5170
 0.9300	41.5120
 0.9310	41.5040
 0.9320	41.4900
 0.9330	41.4760
 0.9340	41.4660
 0.9350	41.4540
 0.9360	41.4370
 0.9370	41.4240
 0.9380	41.4170
 0.9390	41.4020
 0.9400	41.3890
 0.9410	41.3750
 0.9420	41.3580
 0.9430	41.3360
 0.9440	41.3140
 0.9450	41.2960
 0.9460	41.2790
 0.9470	41.2380
 0.9480	41.1980
 0.9490	41.1630
 0.9500	41.1310
 0.9510	41.0900
 0.9520	41.0420
 0.9530	40.9950
 0.9540	40.9560
 0.9550	40.9230
 0.9560	40.8970
 0.9570	40.8610
 0.9580	40.8040
 0.9590	40.7630
 0.9600	40.7220
 0.9610	40.6860
 0.9620	40.6590
 0.9630	40.6260
 0.9640	40.6030
 0.9650	40.5850
 0.9660	40.5620
 0.9670	40.5420
 0.9680	40.5200
 0.9690	40.5040
 0.9700	40.4990
 0.9710	40.4860
 0.9720	40.4690
 0.9730	40.4580
 0.9740	40.4590
 0.9750	40.4490
 0.9760	40.4390
 0.9770	40.4400
 0.9780	40.4560
 0.9790	40.4590
 0.9800	40.4550
 0.9810	40.4520
 0.9820	40.4550
 0.9830	40.4570
 0.9840	40.4570
 0.9850	40.4600
 0.9860	40.4750
 0.9870	40.4860
 0.9880	40.4990
 0.9890	40.5090
 0.9900	40.5110
 0.9910	40.5110
 0.9920	40.5200
 0.9930	40.5360
 0.9940	40.5500
 0.9950	40.5680
 0.9960	40.5780
 0.9970	40.5800
 0.9980	40.5850
 0.9990	40.6100
 1.0000	40.6290
 1.0010	41.6280
 1.0020	41.6460
 1.0030	41.6630
 1.0040	41.6760
 1.0050	41.6910
 1.0060	41.7050
 1.0070	41.7180
 1.0080	41.7340
 1.0090	41.7520
 1.0100	41.7670
 1.0110	41.7820
 1.0120	41.7980
 1.0130	41.8160
 1.0140	41.8310
 1.0150	41.8450
 1.0160	41.8600
 1.0170	41.8690
 1.0180	41.8790
 1.0190	41.8930
 1.0200	41.9080
 1.0210	41.9270
 1.0220	41.9450
 1.0230	41.9610
 1.0240	41.9780
 1.0250	41.9930
 1.0260	42.0050
 1.0270	42.0210
 1.0280	42.0370
 1.0290	42.0520
 1.0300	42.0660
 1.0310	42.0820
 1.0320	42.0960
 1.0330	42.1120
 1.0340	42.1320
 1.0350	42.1490
 1.0360	42.1680
 1.0370	42.1840
 1.0380	42.2000
 1.0390	42.2170
 1.0400	42.2310
 1.0410	42.2420
 1.0420	42.2560
 1.0430	42.2720
 1.0440	42.2860
 1.0450	42.2990
 1.0460	42.3140
 1.0470	42.3300
 1.0480	42.3430
 1.0490	42.3590
 1.0500	42.3720
 1.0510	42.3830
 1.0520	42.3920
 1.0530	42.4010
 1.0540	42.4090
 1.0550	42.4180
 1.0560	42.4270
 1.0570	42.4340
 1.0580	42.4400
 1.0590	42.4440
 1.0600	42.4440
 1.0610	42.4470
 1.0620	42.4520
 1.0630	42.4540
 1.0640	42.4560
 1.0650	42.4560
 1.0660	42.4540
 1.0670	42.4540
 1.0680	42.4540
 1.0690	42.4540
 1.0700	42.4530
 1.0710	42.4520
 1.0720	42.4480
 1.0730	42.4400
 1.0740	42.4370
 1.0750	42.4330
 1.0760	42.4300
 1.0770	42.4290
 1.0780	42.4260
 1.0790	42.4200
 1.0800	42.4160
 1.0810	42.4110
 1.0820	42.4070
 1.0830	42.4050
 1.0840	42.4010
 1.0850	42.3970
 1.0860	42.3930
 1.0870	42.3890
 1.0880	42.3850
 1.0890	42.3790
 1.0900	42.3730
 1.0910	42.3670
 1.0920	42.3580
 1.0930	42.3530
 1.0940	42.3510
 1.0950	42.3460
 1.0960	42.3410
 1.0970	42.3360
 1.0980	42.3320
 1.0990	42.3280
 1.1000	42.3230
 1.1010	42.3190
 1.1020	42.3150
 1.1030	42.3090
 1.1040	42.3050
 1.1050	42.3000
 1.1060	42.2940
 1.1070	42.2840
 1.1080	42.2770
 1.1090	42.2710
 1.1100	42.2640
 1.1110	42.2570
 1.1120	42.2500
 1.1130	42.2390
 1.1140	42.2300
 1.1150	42.2230
 1.1160	42.2130
 1.1170	42.2040
 1.1180	42.1920
 1.1190	42.1780
 1.1200	42.1630
 1.1210	42.1450
 1.1220	42.1250
 1.1230	42.1040
 1.1240	42.0800
 1.1250	42.0520
 1.1260	42.0220
 1.1270	41.9860
 1.1280	41.9450
 1.1290	41.9010
 1.1300	41.8550
 1.1310	41.8020
 1.1320	41.7470
 1.1330	41.6830
 1.1340	41.6110
 1.1350	41.5360
 1.1360	41.4580
 1.1370	41.3720
 1.1380	41.2870
 1.1390	41.1960
 1.1400	41.0980
 1.1410	41.0000
 1.1420	40.8970
 1.1430	40.7920
 1.1440	40.6870
 1.1450	40.5770
 1.1460	40.4710
 1.1470	40.3630
 1.1480	40.2590
 1.1490	40.1550
 1.1500	40.0570
 1.1510	39.9620
 1.1520	39.8720
 1.1530	39.7860
 1.1540	39.7070
 1.1550	39.6320
 1.1560	39.5650
 1.1570	39.5060
 1.1580	39.4510
 1.1590	39.4040
 1.1600	39.3610
 1.1610	39.3190
 1.1620	39.2840
 1.1630	39.2510
 1.1640	39.2210
 1.1650	39.1950
 1.1660	39.1740
 1.1670	39.1540
 1.1680	39.1350
 1.1690	39.1180
 1.1700	39.1040
 1.1710	39.0890
 1.1720	39.0770
 1.1730	39.0630
 1.1740	39.0490
 1.1750	39.0360
 1.1760	39.0220
 1.1770	39.0100
 1.1780	38.9970
 1.1790	38.9810
 1.1800	38.9640
 1.1810	38.9460
 1.1820	38.9280
 1.1830	38.9120
 1.1840	38.8970
 1.1850	38.8820
 1.1860	38.8670
 1.1870	38.8530
 1.1880	38.8400
 1.1890	38.8280
 1.1900	38.8170
 1.1910	38.8050
 1.1920	38.7960
 1.1930	38.7880
 1.1940	38.7820
 1.1950	38.7780
 1.1960	38.7750
 1.1970	38.7710
 1.1980	38.7680
 1.1990	38.7680
 1.2000	38.7680
 1.2010	38.7720
 1.2020	38.7780
 1.2030	38.7820
 1.2040	38.7890
 1.2050	38.7960
 1.2060	38.8050
 1.2070	38.8170
 1.2080	38.8300
 1.2090	38.8440
 1.2100	38.8610
 1.2110	38.8790
 1.2120	38.8970
 1.2130	38.9170
 1.2140	38.9390
 1.2150	38.9620
 1.2160	38.9860
 1.2170	39.0120
 1.2180	39.0390
 1.2190	39.0670
 1.2200	39.0960
 1.2210	39.1280
 1.2220	39.1590
 1.2230	39.1900
 1.2240	39.2200
 1.2250	39.2480
 1.2260	39.2750
 1.2270	39.3030
 1.2280	39.3290
 1.2290	39.3560
 1.2300	39.3820
 1.2310	39.4060
 1.2320	39.4290
 1.2330	39.4500
 1.2340	39.4720
 1.2350	39.4940
 1.2360	39.5150
 1.2370	39.5370
 1.2380	39.5560
 1.2390	39.5750
 1.2400	39.5930
 1.2410	39.6120
 1.2420	39.6290
 1.2430	39.6470
 1.2440	39.6650
 1.2450	39.6790
 1.2460	39.6950
 1.2470	39.7090
 1.2480	39.7220
 1.2490	39.7360
 1.2500	39.7490
 1.2510	39.7610
 1.2520	39.7720
 1.2530	39.7830
 1.2540	39.7940
 1.2550	39.8030
 1.2560	39.8110
 1.2570	39.8170
 1.2580	39.8220
 1.2590	39.8270
 1.2600	39.8310
 1.2610	39.8350
 1.2620	39.8380
 1.2630	39.8410
 1.2640	39.8420
 1.2650	39.8410
 1.2660	39.8420
 1.2670	39.8400
 1.2680	39.8390
 1.2690	39.8380
 1.2700	39.8390
 1.2710	39.8400
 1.2720	39.8410
 1.2730	39.8420
 1.2740	39.8410
 1.2750	39.8390
 1.2760	39.8370
 1.2770	39.8350
 1.2780	39.8320
 1.2790	39.8260
 1.2800	39.8190
 1.2810	39.8110
 1.2820	39.8010
 1.2830	39.7890
 1.2840	39.7770
 1.2850	39.7620
 1.2860	39.7440
 1.2870	39.7240
 1.2880	39.7040
 1.2890	39.6810
 1.2900	39.6560
 1.2910	39.6280
 1.2920	39.5980
 1.2930	39.5640
 1.2940	39.5280
 1.2950	39.4890
 1.2960	39.4470
 1.2970	39.4030
 1.2980	39.3560
 1.2990	39.3060
 1.3000	39.2570
 1.3010	39.2040
 1.3020	39.1500
 1.3030	39.0950
 1.3040	39.0360
 1.3050	38.9750
 1.3060	38.9150
 1.3070	38.8520
 1.3080	38.7880
 1.3090	38.7230
 1.3100	38.6540
 1.3110	38.5840
 1.3120	38.5120
 1.3130	38.4370
 1.3140	38.3620
 1.3150	38.2840
 1.3160	38.2050
 1.3170	38.1240
 1.3180	38.0430
 1.3190	37.9580
 1.3200	37.8710
 1.3210	37.7820
 1.3220	37.6920
 1.3230	37.6030
 1.3240	37.5120
 1.3250	37.4190
 1.3260	37.3250
 1.3270	37.2250
 1.3280	37.1240
 1.3290	37.0210
 1.3300	36.9150
 1.3310	36.8090
 1.3320	36.7010
 1.3330	36.5920
 1.3340	36.4830
 1.3350	36.3720
 1.3360	36.2590
 1.3370	36.1470
 1.3380	36.0350
 1.3390	35.9220
 1.3400	35.8090
 1.3410	35.6970
 1.3420	35.5860
 1.3430	35.4760
 1.3440	35.3660
 1.3450	35.2570
 1.3460	35.1490
 1.3470	35.0420
 1.3480	34.9350
 1.3490	34.8300
 1.3500	34.7270
 1.3510	34.6240
 1.3520	34.5210
 1.3530	34.4180
 1.3540	34.3140
 1.3550	34.2090
 1.3560	34.1040
 1.3570	33.9960
 1.3580	33.8890
 1.3590	33.7820
 1.3600	33.6710
 1.3610	33.5580
 1.3620	33.4400
 1.3630	33.3190
 1.3640	33.1930
 1.3650	33.0610
 1.3660	32.9260
 1.3670	32.7850
 1.3680	32.6350
 1.3690	32.4770
 1.3700	32.3070
 1.3710	32.1260
 1.3720	31.9350
 1.3730	31.7290
 1.3740	31.5110
 1.3750	31.2770
 1.3760	31.0250
 1.3770	30.7560
 1.3780	30.4630
 1.3790	30.1520
 1.3800	29.8210
 1.3810	29.4650
 1.3820	29.0950
 1.3830	28.7070
 1.3840	28.3010
 1.3850	27.8760
 1.3860	27.4370
 1.3870	26.9780
 1.3880	26.5140
 1.3890	26.0390
 1.3900	25.5540
 1.3910	25.0680
 1.3920	24.5770
 1.3930	24.0800
 1.3940	23.5830
 1.3950	23.0810
 1.3960	22.5850
 1.3970	22.0970
 1.3980	21.6170
 1.3990	21.1540
 1.4000	20.7030
 1.4010	20.2630
 1.4020	19.8410
 1.4030	19.4320
 1.4040	19.0410
 1.4050	18.6680
 1.4060	18.3130
 1.4070	17.9810
 1.4080	17.6670
 1.4090	17.3700
 1.4100	17.0940
 1.4110	16.8340
 1.4120	16.5920
 1.4130	16.3690
 1.4140	16.1620
 1.4150	15.9730
 1.4160	15.7990
 1.4170	15.6370
 1.4180	15.4880
 1.4190	15.3500
 1.4200	15.2240
 1.4210	15.1100
 1.4220	15.0060
 1.4230	14.9120
 1.4240	14.8270
 1.4250	14.7490
 1.4260	14.6790
 1.4270	14.6150
 1.4280	14.5610
 1.4290	14.5100
 1.4300	14.4660
 1.4310	14.4270
 1.4320	14.3940
 1.4330	14.3650
 1.4340	14.3410
 1.4350	14.3200
 1.4360	14.3030
 1.4370	14.2890
 1.4380	14.2790
 1.4390	14.2730
 1.4400	14.2690
 1.4410	14.2680
 1.4420	14.2700
 1.4430	14.2730
 1.4440	14.2770
 1.4450	14.2840
 1.4460	14.2910
 1.4470	14.3010
 1.4480	14.3110
 1.4490	14.3230
 1.4500	14.3360
 1.4510	14.3490
 1.4520	14.3640
 1.4530	14.3810
 1.4540	14.3980
 1.4550	14.4170
 1.4560	14.4370
 1.4570	14.4580
 1.4580	14.4810
 1.4590	14.5070
 1.4600	14.5370
 1.4610	14.5700
 1.4620	14.6060
 1.4630	14.6450
 1.4640	14.6860
 1.4650	14.7300
 1.4660	14.7790
 1.4670	14.8310
 1.4680	14.8880
 1.4690	14.9490
 1.4700	15.0140
 1.4710	15.0820
 1.4720	15.1530
 1.4730	15.2280
 1.4740	15.3060
 1.4750	15.3860
 1.4760	15.4700
 1.4770	15.5560
 1.4780	15.6430
 1.4790	15.7320
 1.4800	15.8210
 1.4810	15.9120
 1.4820	16.0050
 1.4830	16.1000
 1.4840	16.1950
 1.4850	16.2920
 1.4860	16.3900
 1.4870	16.4890
 1.4880	16.5880
 1.4890	16.6870
 1.4900	16.7870
 1.4910	16.8860
 1.4920	16.9870
 1.4930	17.0880
 1.4940	17.1900
 1.4950	17.2920
 1.4960	17.3940
 1.4970	17.4940
 1.4980	17.5960
 1.4990	17.6970
 1.5000	17.7990
 1.5010	17.9040
 1.5020	18.0060
 1.5030	18.1090
 1.5040	18.2110
 1.5050	18.3100
 1.5060	18.4120
 1.5070	18.5140
 1.5080	18.6160
 1.5090	18.7180
 1.5100	18.8200
 1.5110	18.9210
 1.5120	19.0220
 1.5130	19.1210
 1.5140	19.2200
 1.5150	19.3190
 1.5160	19.4180
 1.5170	19.5170
 1.5180	19.6150
 1.5190	19.7130
 1.5200	19.8100
 1.5210	19.9050
 1.5220	19.9990
 1.5230	20.0930
 1.5240	20.1850
 1.5250	20.2790
 1.5260	20.3710
 1.5270	20.4630
 1.5280	20.5540
 1.5290	20.6430
 1.5300	20.7310
 1.5310	20.8210
 1.5320	20.9080
 1.5330	20.9950
 1.5340	21.0820
 1.5350	21.1670
 1.5360	21.2520
 1.5370	21.3350
 1.5380	21.4180
 1.5390	21.5010
 1.5400	21.5840
 1.5410	21.6660
 1.5420	21.7460
 1.5430	21.8260
 1.5440	21.9060
 1.5450	21.9850
 1.5460	22.0650
 1.5470	22.1440
 1.5480	22.2210
 1.5490	22.2970
 1.5500	22.3730
 1.5510	22.4470
 1.5520	22.5220
 1.5530	22.5950
 1.5540	22.6670
 1.5550	22.7400
 1.5560	22.8110
 1.5570	22.8830
 1.5580	22.9520
 1.5590	23.0210
 1.5600	23.0900
 1.5610	23.1560
 1.5620	23.2230
 1.5630	23.2880
 1.5640	23.3530
 1.5650	23.4170
 1.5660	23.4800
 1.5670	23.5440
 1.5680	23.6080
 1.5690	23.6700
 1.5700	23.7320
 1.5710	23.7930
 1.5720	23.8540
 1.5730	23.9160
 1.5740	23.9770
 1.5750	24.0390
 1.5760	24.1000
 1.5770	24.1590
 1.5780	24.2190
 1.5790	24.2760
 1.5800	24.3330
 1.5810	24.3910
 1.5820	24.4490
 1.5830	24.5080
 1.5840	24.5670
 1.5850	24.6230
 1.5860	24.6800
 1.5870	24.7360
 1.5880	24.7920
 1.5890	24.8480
 1.5900	24.9040
 1.5910	24.9600
 1.5920	25.0180
 1.5930	25.0750
 1.5940	25.1310
 1.5950	25.1880
 1.5960	25.2430
 1.5970	25.2970
 1.5980	25.3520
 1.5990	25.4060
 1.6000	25.4610
 1.6010	25.5160
 1.6020	25.5700
 1.6030	25.6220
 1.6040	25.6740
 1.6050	25.7250
 1.6060	25.7750
 1.6070	25.8250
 1.6080	25.8740
 1.6090	25.9220
 1.6100	25.9700
 1.6110	26.0180
 1.6120	26.0640
 1.6130	26.1090
 1.6140	26.1540
 1.6150	26.1980
 1.6160	26.2430
 1.6170	26.2860
 1.6180	26.3270
 1.6190	26.3690
 1.6200	26.4090
 1.6210	26.4500
 1.6220	26.4900
 1.6230	26.5280
 1.6240	26.5670
 1.6250	26.6040
 1.6260	26.6410
 1.6270	26.6770
 1.6280	26.7120
 1.6290	26.7470
 1.6300	26.7790
 1.6310	26.8120
 1.6320	26.8430
 1.6330	26.8730
 1.6340	26.9020
 1.6350	26.9300
 1.6360	26.9570
 1.6370	26.9830
 1.6380	27.0080
 1.6390	27.0300
 1.6400	27.0510
 1.6410	27.0690
 1.6420	27.0860
 1.6430	27.1010
 1.6440	27.1140
 1.6450	27.1270
 1.6460	27.1370
 1.6470	27.1470
 1.6480	27.1530
 1.6490	27.1560
 1.6500	27.1570
 1.6510	27.1560
 1.6520	27.1520
 1.6530	27.1490
 1.6540	27.1440
 1.6550	27.1370
 1.6560	27.1290
 1.6570	27.1200
 1.6580	27.1090
 1.6590	27.0990
 1.6600	27.0880
 1.6610	27.0760
 1.6620	27.0650
 1.6630	27.0540
 1.6640	27.0430
 1.6650	27.0340
 1.6660	27.0250
 1.6670	27.0160
 1.6680	27.0070
 1.6690	26.9990
 1.6700	26.9910
 1.6710	26.9810
 1.6720	26.9720
 1.6730	26.9590
 1.6740	26.9450
 1.6750	26.9310
 1.6760	26.9160
 1.6770	26.9000
 1.6780	26.8830
 1.6790	26.8620
 1.6800	26.8380
 1.6810	26.8110
 1.6820	26.7810
 1.6830	26.7480
 1.6840	26.7130
 1.6850	26.6760
 1.6860	26.6370
 1.6870	26.5970
 1.6880	26.5550
 1.6890	26.5120
 1.6900	26.4690
 1.6910	26.4280
 1.6920	26.3840
 1.6930	26.3380
 1.6940	26.2940
 1.6950	26.2490
 1.6960	26.2040
 1.6970	26.1620
 1.6980	26.1170
 1.6990	26.0690
 1.7000	26.0220
 1.7010	25.9750
 1.7020	25.9270
 1.7030	25.8780
 1.7040	25.8290
 1.7050	25.7800
 1.7060	25.7310
 1.7070	25.6820
 1.7080	25.6320
 1.7090	25.5810
 1.7100	25.5310
 1.7110	25.4810
 1.7120	25.4320
 1.7130	25.3830
 1.7140	25.3360
 1.7150	25.2880
 1.7160	25.2420
 1.7170	25.1950
 1.7180	25.1500
 1.7190	25.1050
 1.7200	25.0620
 1.7210	25.0190
 1.7220	24.9800
 1.7230	24.9420
 1.7240	24.9040
 1.7250	24.8680
 1.7260	24.8330
 1.7270	24.7980
 1.7280	24.7670
 1.7290	24.7390
 1.7300	24.7130
 1.7310	24.6890
 1.7320	24.6690
 1.7330	24.6480
 1.7340	24.6310
 1.7350	24.6100
 1.7360	24.5890
 1.7370	24.5670
 1.7380	24.5440
 1.7390	24.5180
 1.7400	24.4930
 1.7410	24.4620
 1.7420	24.4270
 1.7430	24.3910
 1.7440	24.3500
 1.7450	24.3100
 1.7460	24.2700
 1.7470	24.2270
 1.7480	24.1830
 1.7490	24.1380
 1.7500	24.0920
 1.7510	24.0460
 1.7520	24.0010
 1.7530	23.9560
 1.7540	23.9110
 1.7550	23.8680
 1.7560	23.8250
 1.7570	23.7810
 1.7580	23.7390
 1.7590	23.6980
 1.7600	23.6570
 1.7610	23.6170
 1.7620	23.5790
 1.7630	23.5420
 1.7640	23.5070
 1.7650	23.4760
 1.7660	23.4470
 1.7670	23.4190
 1.7680	23.3930
 1.7690	23.3700
 1.7700	23.3470
 1.7710	23.3230
 1.7720	23.3010
 1.7730	23.2800
 1.7740	23.2590
 1.7750	23.2390
 1.7760	23.2190
 1.7770	23.1980
 1.7780	23.1790
 1.7790	23.1610
 1.7800	23.1440
 1.7810	23.1300
 1.7820	23.1150
 1.7830	23.1010
 1.7840	23.0880
 1.7850	23.0750
 1.7860	23.0660
 1.7870	23.0600
 1.7880	23.0530
 1.7890	23.0480
 1.7900	23.0410
 1.7910	23.0370
 1.7920	23.0360
 1.7930	23.0360
 1.7940	23.0370
 1.7950	23.0390
 1.7960	23.0420
 1.7970	23.0460
 1.7980	23.0510
 1.7990	23.0570
 1.8000	23.0640
 1.8010	23.0710
 1.8020	23.0780
 1.8030	23.0850
 1.8040	23.0920
 1.8050	23.1000
 1.8060	23.1090
 1.8070	23.1170
 1.8080	23.1270
 1.8090	23.1360
 1.8100	23.1430
 1.8110	23.1520
 1.8120	23.1600
 1.8130	23.1690
 1.8140	23.1790
 1.8150	23.1880
 1.8160	23.1960
 1.8170	23.2030
 1.8180	23.2100
 1.8190	23.2140
 1.8200	23.2190
 1.8210	23.2240
 1.8220	23.2290
 1.8230	23.2330
 1.8240	23.2380
 1.8250	23.2430
 1.8260	23.2460
 1.8270	23.2480
 1.8280	23.2470
 1.8290	23.2410
 1.8300	23.2380
 1.8310	21.9780
 1.8320	21.9640
 1.8330	21.9500
 1.8340	21.9320
 1.8350	21.9120
 1.8360	21.8910
 1.8370	21.8660
 1.8380	21.8370
 1.8390	21.8050
 1.8400	21.7710
 1.8410	21.7310
 1.8420	21.6880
 1.8430	21.6380
 1.8440	21.5840
 1.8450	21.5220
 1.8460	21.4550
 1.8470	21.3830
 1.8480	21.3040
 1.8490	21.2160
 1.8500	21.1200
 1.8510	21.0180
 1.8520	20.9070
 1.8530	20.7870
 1.8540	20.6580
 1.8550	20.5210
 1.8560	20.3720
 1.8570	20.2110
 1.8580	20.0420
 1.8590	19.8620
 1.8600	19.6690
 1.8610	19.4650
 1.8620	19.2520
 1.8630	19.0260
 1.8640	18.7880
 1.8650	18.5400
 1.8660	18.2780
 1.8670	18.0010
 1.8680	17.7110
 1.8690	17.4090
 1.8700	17.0940
 1.8710	16.7670
 1.8720	16.4310
 1.8730	16.0850
 1.8740	15.7310
 1.8750	15.3720
 1.8760	15.0060
 1.8770	14.6380
 1.8780	14.2710
 1.8790	13.9040
 1.8800	13.5450
 1.8810	13.1920
 1.8820	12.8430
 1.8830	12.4960
 1.8840	12.1540
 1.8850	11.8160
 1.8860	11.4880
 1.8870	11.1750
 1.8880	10.8760
 1.8890	10.5940
 1.8900	10.3280
 1.8910	10.0760
 1.8920	 9.8380
 1.8930	 9.6170
 1.8940	 9.4110
 1.8950	 9.2220
 1.8960	 9.0480
 1.8970	 8.8910
 1.8980	 8.7490
 1.8990	 8.6210
 1.9000	 8.5030
 1.9010	 8.4000
 1.9020	 8.3050
 1.9030	 8.2220
 1.9040	 8.1480
 1.9050	 8.0850
 1.9060	 8.0310
 1.9070	 7.9830
 1.9080	 7.9420
 1.9090	 7.9040
 1.9100	 7.8710
 1.9110	 7.8430
 1.9120	 7.8200
 1.9130	 7.7990
 1.9140	 7.7820
 1.9150	 7.7680
 1.9160	 7.7560
 1.9170	 7.7470
 1.9180	 7.7390
 1.9190	 7.7320
 1.9200	 7.7260
 1.9210	 7.7220
 1.9220	 7.7180
 1.9230	 7.7160
 1.9240	 7.7150
 1.9250	 7.7170
 1.9260	 7.7190
 1.9270	 7.7210
 1.9280	 7.7260
 1.9290	 7.7300
 1.9300	 7.7340
 1.9310	 7.7400
 1.9320	 7.7440
 1.9330	 7.7510
 1.9340	 7.7600
 1.9350	 7.7680
 1.9360	 7.7770
 1.9370	 7.7870
 1.9380	 7.7980
 1.9390	 7.8080
 1.9400	 7.8210
 1.9410	 7.8340
 1.9420	 7.8480
 1.9430	 7.8620
 1.9440	 7.8760
 1.9450	 7.8900
 1.9460	 7.9060
 1.9470	 7.9200
 1.9480	 7.9370
 1.9490	 7.9560
 1.9500	 7.9750
 1.9510	 7.9930
 1.9520	 8.0120
 1.9530	 8.0320
 1.9540	 8.0500
 1.9550	 8.0700
 1.9560	 8.0900
 1.9570	 8.1110
 1.9580	 8.1320
 1.9590	 8.1550
 1.9600	 8.1790
 1.9610	 8.2020
 1.9620	 8.2260
 1.9630	 8.2490
 1.9640	 8.2720
 1.9650	 8.2970
 1.9660	 8.3240
 1.9670	 8.3530
 1.9680	 8.3810
 1.9690	 8.4110
 1.9700	 8.4400
 1.9710	 8.4680
 1.9720	 8.4970
 1.9730	 8.5270
 1.9740	 8.5580
 1.9750	 8.5910
 1.9760	 8.6220
 1.9770	 8.6540
 1.9780	 8.6850
 1.9790	 8.7190
 1.9800	 8.7520
 1.9810	 8.7870
 1.9820	 8.8230
 1.9830	 8.8590
 1.9840	 8.8950
 1.9850	 8.9330
 1.9860	 8.9700
 1.9870	 9.0090
 1.9880	 9.0480
 1.9890	 9.0860
 1.9900	 9.1250
 1.9910	 9.1640
 1.9920	 9.2030
 1.9930	 9.2430
 1.9940	 9.2830
 1.9950	 9.3240
 1.9960	 9.3650
 1.9970	 9.4050
 1.9980	 9.4460
 1.9990	 9.4860
 2.0000	 9.5260
 2.0010	 9.5680
 2.0020	 9.6090
 2.0030	 9.6490
 2.0040	 9.6900
 2.0050	 9.7320
 2.0060	 9.7730
 2.0070	 9.8150
 2.0080	 9.8590
 2.0090	 9.9000
 2.0100	 9.9420
 2.0110	 9.9820
 2.0120	10.0230
 2.0130	10.0610
 2.0140	10.1000
 2.0150	10.1390
 2.0160	10.1780
 2.0170	10.2190
 2.0180	10.2570
 2.0190	10.2950
 2.0200	10.3340
 2.0210	10.3730
 2.0220	10.4110
 2.0230	10.4500
 2.0240	10.4870
 2.0250	10.5220
 2.0260	10.5570
 2.0270	10.5910
 2.0280	10.6250
 2.0290	10.6580
 2.0300	10.6890
 2.0310	10.7200
 2.0320	10.7500
 2.0330	10.7800
 2.0340	10.8120
 2.0350	10.8400
 2.0360	10.8670
 2.0370	10.8930
 2.0380	10.9150
 2.0390	10.9380
 2.0400	10.9610
 2.0410	10.9830
 2.0420	11.0040
 2.0430	11.0250
 2.0440	11.0460
 2.0450	11.0670
 2.0460	11.0890
 2.0470	11.1110
 2.0480	11.1330
 2.0490	11.1570
 2.0500	11.1790
 2.0510	11.2030
 2.0520	11.2250
 2.0530	11.2440
 2.0540	11.2650
 2.0550	11.2850
 2.0560	11.3050
 2.0570	11.3260
 2.0580	11.3470
 2.0590	11.3690
 2.0600	11.3910
 2.0610	11.4150
 2.0620	11.4410
 2.0630	11.4650
 2.0640	11.4910
 2.0650	11.5150
 2.0660	11.5380
 2.0670	11.5610
 2.0680	11.5820
 2.0690	11.6060
 2.0700	11.6330
 2.0710	11.6580
 2.0720	11.6820
 2.0730	11.7070
 2.0740	11.7310
 2.0750	11.7500
 2.0760	11.7720
 2.0770	11.7970
 2.0780	11.8200
 2.0790	11.8420
 2.0800	11.8640
 2.0810	11.8820
 2.0820	11.9030
 2.0830	11.9270
 2.0840	11.9490
 2.0850	11.9720
 2.0860	11.9940
 2.0870	12.0140
 2.0880	12.0320
 2.0890	12.0530
 2.0900	12.0740
 2.0910	12.0960
 2.0920	12.1190
 2.0930	12.1410
 2.0940	12.1640
 2.0950	12.1850
 2.0960	12.2040
 2.0970	12.2240
 2.0980	12.2420
 2.0990	12.2620
 2.1000	12.2830
 2.1010	12.3040
 2.1020	12.3260
 2.1030	12.3480
 2.1040	12.3700
 2.1050	12.3930
 2.1060	12.4140
 2.1070	12.4330
 2.1080	12.4530
 2.1090	12.4710
 2.1100	12.4900
 2.1110	12.5110
 2.1120	12.5290
 2.1130	12.5470
 2.1140	12.5650
 2.1150	12.5830
 2.1160	12.6010
 2.1170	12.6210
 2.1180	12.6400
 2.1190	12.6560
 2.1200	12.6730
 2.1210	12.6890
 2.1220	12.7060
 2.1230	12.7230
 2.1240	12.7410
 2.1250	12.7580
 2.1260	12.7770
 2.1270	12.7940
 2.1280	12.8100
 2.1290	12.8260
 2.1300	12.8420
 2.1310	12.8580
 2.1320	12.8750
 2.1330	12.8900
 2.1340	12.9050
 2.1350	12.9190
 2.1360	12.9290
 2.1370	12.9420
 2.1380	12.9550
 2.1390	12.9690
 2.1400	12.9820
 2.1410	12.9980
 2.1420	13.0120
 2.1430	13.0240
 2.1440	13.0390
 2.1450	13.0540
 2.1460	13.0700
 2.1470	13.0870
 2.1480	13.1030
 2.1490	13.1190
 2.1500	13.1340
 2.1510	13.1480
 2.1520	13.1620
 2.1530	13.1750
 2.1540	13.1900
 2.1550	13.2060
 2.1560	13.2210
 2.1570	13.2340
 2.1580	13.2470
 2.1590	13.2600
 2.1600	13.2720
 2.1610	13.2810
 2.1620	13.2930
 2.1630	13.3030
 2.1640	13.3120
 2.1650	13.3230
 2.1660	13.3350
 2.1670	13.3470
 2.1680	13.3590
 2.1690	13.3730
 2.1700	13.3890
 2.1710	13.4030
 2.1720	13.4170
 2.1730	13.4320
 2.1740	13.4470
 2.1750	13.4630
 2.1760	13.4810
 2.1770	13.4980
 2.1780	13.5160
 2.1790	13.5330
 2.1800	13.5480
 2.1810	13.5650
 2.1820	13.5830
 2.1830	13.5990
 2.1840	13.6150
 2.1850	13.6320
 2.1860	13.6470
 2.1870	13.6600
 2.1880	13.6770
 2.1890	13.6970
 2.1900	13.7160
 2.1910	13.7370
 2.1920	13.7570
 2.1930	13.7740
 2.1940	13.7940
 2.1950	13.8150
 2.1960	13.8360
 2.1970	13.8590
 2.1980	13.8780
 2.1990	13.8950
 2.2000	13.9140
 2.2010	13.9300
 2.2020	13.9470
 2.2030	13.9660
 2.2040	13.9840
 2.2050	13.9990
 2.2060	14.0160
 2.2070	14.0310
 2.2080	14.0450
 2.2090	14.0580
 2.2100	14.0690
 2.2110	14.0820
 2.2120	14.0950
 2.2130	14.1080
 2.2140	14.1240
 2.2150	14.1370
 2.2160	14.1480
 2.2170	14.1560
 2.2180	14.1580
 2.2190	14.1630
 2.2200	14.1700
 2.2210	14.1710
 2.2220	14.1690
 2.2230	14.1680
 2.2240	14.1620
 2.2250	14.1560
 2.2260	14.1550
 2.2270	14.1490
 2.2280	14.1400
 2.2290	14.1300
 2.2300	14.1180
 2.2310	14.1030
 2.2320	14.0850
 2.2330	14.0660
 2.2340	14.0420
 2.2350	14.0150
 2.2360	13.9860
 2.2370	13.9510
 2.2380	13.9190
 2.2390	13.8850
 2.2400	13.8500
 2.2410	13.8140
 2.2420	13.7760
 2.2430	13.7340
 2.2440	13.6920
 2.2450	13.6480
 2.2460	13.6060
 2.2470	13.5630
 2.2480	13.5200
 2.2490	13.4790
 2.2500	13.4350
 2.2510	13.3890
 2.2520	13.3440
 2.2530	13.2980
 2.2540	13.2530
 2.2550	13.2090
 2.2560	13.1650
 2.2570	13.1230
 2.2580	13.0790
 2.2590	13.0320
 2.2600	12.9880
 2.2610	12.9440
 2.2620	12.8990
 2.2630	12.8600
 2.2640	12.8220
 2.2650	12.7830
 2.2660	12.7450
 2.2670	12.7070
 2.2680	12.6680
 2.2690	12.6300
 2.2700	12.5920
 2.2710	12.5580
 2.2720	12.5280
 2.2730	12.4970
 2.2740	12.4690
 2.2750	12.4420
 2.2760	12.4160
 2.2770	12.3880
 2.2780	12.3610
 2.2790	12.3350
 2.2800	12.3080
 2.2810	12.2820
 2.2820	12.2590
 2.2830	12.2330
 2.2840	12.2050
 2.2850	12.1780
 2.2860	12.1520
 2.2870	12.1250
 2.2880	12.0960
 2.2890	12.0690
 2.2900	12.0430
 2.2910	12.0150
 2.2920	11.9870
 2.2930	11.9580
 2.2940	11.9240
 2.2950	11.8930
 2.2960	11.8630
 2.2970	11.8330
 2.2980	11.8030
 2.2990	11.7740
 2.3000	11.7440
 2.3010	11.7120
 2.3020	11.6790
 2.3030	11.6480
 2.3040	11.6220
 2.3050	11.5940
 2.3060	11.5680
 2.3070	11.5470
 2.3080	11.5250
 2.3090	11.5080
 2.3100	11.4980
 2.3110	11.4870
 2.3120	11.4770
 2.3130	11.4680
 2.3140	11.4630
 2.3150	11.4590
 2.3160	11.4560
 2.3170	11.4580
 2.3180	11.4550
 2.3190	11.4480
 2.3200	11.4420
 2.3210	11.4360
 2.3220	11.4270
 2.3230	11.4160
 2.3240	11.4040
 2.3250	11.3910
 2.3260	11.3760
 2.3270	11.3600
 2.3280	11.3450
 2.3290	11.3300
 2.3300	11.3130
 2.3310	11.2980
 2.3320	11.2770
 2.3330	11.2460
 2.3340	11.2210
 2.3350	11.1940
 2.3360	11.1700
 2.3370	11.1570
 2.3380	11.1350
 2.3390	11.1070
 2.3400	11.0840
 2.3410	11.0580
 2.3420	11.0340
 2.3430	11.0180
 2.3440	10.9980
 2.3450	10.9740
 2.3460	10.9550
 2.3470	10.9380
 2.3480	10.9200
 2.3490	10.9040
 2.3500	10.8880
 2.3510	10.8710
 2.3520	10.8550
 2.3530	10.8370
 2.3540	10.8270
 2.3550	10.8160
 2.3560	10.8090
 2.3570	10.8070
 2.3580	10.7990
 2.3590	10.7920
 2.3600	10.7840
 2.3610	10.7730
 2.3620	10.7580
 2.3630	10.7420
 2.3640	10.7300
 2.3650	10.7120
 2.3660	10.6960
 2.3670	10.6840
 2.3680	10.6660
 2.3690	10.6490
 2.3700	10.6370
 2.3710	10.6170
 2.3720	10.5940
 2.3730	10.5790
 2.3740	10.5650
 2.3750	10.5450
 2.3760	10.5290
 2.3770	10.5060
 2.3780	10.4790
 2.3790	10.4600
 2.3800	10.4450
 2.3810	10.4310
 2.3820	10.4180
 2.3830	10.4010
 2.3840	10.3830
 2.3850	10.3620
 2.3860	10.3340
 2.3870	10.3060
 2.3880	10.2840
 2.3890	10.2670
 2.3900	10.2550
 2.3910	10.2490
 2.3920	10.2320
 2.3930	10.2100
 2.3940	10.1900
 2.3950	10.1650
 2.3960	10.1420
 2.3970	10.1280
 2.3980	10.1170
 2.3990	10.1030
 2.4000	10.0880
 2.4010	10.0590
 2.4020	10.0260
 2.4030	10.0020
 2.4040	 9.9810
 2.4050	 9.9610
 2.4060	 9.9430
 2.4070	 9.9280
 2.4080	 9.9100
 2.4090	 9.8880
 2.4100	 9.8710
 2.4110	 9.8420
 2.4120	 9.8110
 2.4130	 9.7870
 2.4140	 9.7680
 2.4150	 9.7470
 2.4160	 9.7210
 2.4170	 9.7020
 2.4180	 9.6790
 2.4190	 9.6570
 2.4200	 9.6410
 2.4210	 9.6130
 2.4220	 9.5910
 2.4230	 9.5720
 2.4240	 9.5480
 2.4250	 9.5360
 2.4260	 9.5130
 2.4270	 9.4860
 2.4280	 9.4770
 2.4290	 9.4620
 2.4300	 9.4430
 2.4310	 9.4270
 2.4320	 9.3940
 2.4330	 9.3630
 2.4340	 9.3470
 2.4350	 9.3260
 2.4360	 9.3040
 2.4370	 9.2910
 2.4380	 9.2680
 2.4390	 9.2590
 2.4400	 9.2470
 2.4410	 9.2210
 2.4420	 9.2040
 2.4430	 9.1800
 2.4440	 9.1600
 2.4450	 9.1520
 2.4460	 9.1360
 2.4470	 9.1150
 2.4480	 9.1040
 2.4490	 9.0890
 2.4500	 9.0630
 2.4510	 9.0390
 2.4520	 9.0090
 2.4530	 8.9770
 2.4540	 8.9580
 2.4550	 8.9470
 2.4560	 8.9270
 2.4570	 8.9060
 2.4580	 8.8890
 2.4590	 8.8530
 2.4600	 8.8350
 2.4610	 8.8270
 2.4620	 8.8100
 2.4630	 8.8090
 2.4640	 8.8110
 2.4650	 8.8030
 2.4660	 8.7960
 2.4670	 8.7960
 2.4680	 8.7810
 2.4690	 8.7640
 2.4700	 8.7580
 2.4710	 8.7550
 2.4720	 8.7470
 2.4730	 8.7450
 2.4740	 8.7380
 2.4750	 8.7190
 2.4760	 8.7070
 2.4770	 8.6940
 2.4780	 8.6790
 2.4790	 8.6590
 2.4800	 8.6450
 2.4810	 8.6390
 2.4820	 8.6440
 2.4830	 8.6380
 2.4840	 8.6340
 2.4850	 8.6250
 2.4860	 8.5990
 2.4870	 8.5830
 2.4880	 8.5700
 2.4890	 8.5510
 2.4900	 8.5790
 2.4910	 8.6000
 2.4920	 8.5870
 2.4930	 8.5880
 2.4940	 8.5670
 2.4950	 8.5380
 2.4960	 8.5560
 2.4970	 8.5790
 2.4980	 8.5880
 2.4990	 8.5970
 2.5000	 8.5970
