Name: Baccharis pilularis 1
Type: vegetation
Class: Shrub
Genus: Baccharis
Species: pilularis
Sample No.: VH109
Owner: UCSB
Wavelength Range: VSWIR
Origin: 34.5084; -119.7687; WGS84
Collection Date: 6/3/2013
Description: Samples were collected as part of the HyspIRI Airborne Campaign. 48 individual plants were sampled in three times in 2013 - spring  summer  and fall. The name of the sample includes a 1  2  or 3 which references a different individual of the species. Samples were taken to JPL and processed within 48 hours of collection. The same leaves were processed in the Nicolet and then measured using the ASD.
Measurement: Bidirectional reflectance
First Column: X
Second Column: Y
X Units: Wavelength (micrometers)
Y Units: Reflectance (percentage)
First X Value: 0.35
Last X Value: 2.5
Number of X Values: 2151
Additional Information: vegetation.shrub.baccharis.pilularis.vswir.vh109.ucsb.asd.ancillary.txt

 0.3500	 4.8990
 0.3510	 4.8560
 0.3520	 4.7570
 0.3530	 4.6500
 0.3540	 4.5840
 0.3550	 4.6070
 0.3560	 4.6230
 0.3570	 4.6010
 0.3580	 4.5620
 0.3590	 4.6300
 0.3600	 4.7260
 0.3610	 4.7650
 0.3620	 4.6640
 0.3630	 4.6670
 0.3640	 4.6540
 0.3650	 4.5170
 0.3660	 4.5400
 0.3670	 4.6130
 0.3680	 4.6590
 0.3690	 4.6450
 0.3700	 4.6420
 0.3710	 4.6760
 0.3720	 4.7310
 0.3730	 4.7210
 0.3740	 4.7080
 0.3750	 4.6620
 0.3760	 4.5660
 0.3770	 4.6150
 0.3780	 4.6470
 0.3790	 4.6240
 0.3800	 4.6260
 0.3810	 4.6480
 0.3820	 4.7030
 0.3830	 4.7710
 0.3840	 4.7410
 0.3850	 4.6790
 0.3860	 4.6590
 0.3870	 4.7200
 0.3880	 4.6680
 0.3890	 4.6540
 0.3900	 4.7150
 0.3910	 4.7530
 0.3920	 4.7340
 0.3930	 4.7400
 0.3940	 4.8030
 0.3950	 4.7460
 0.3960	 4.7060
 0.3970	 4.7130
 0.3980	 4.7420
 0.3990	 4.7990
 0.4000	 4.8270
 0.4010	 4.8170
 0.4020	 4.8390
 0.4030	 4.8360
 0.4040	 4.8340
 0.4050	 4.8530
 0.4060	 4.8450
 0.4070	 4.8170
 0.4080	 4.8050
 0.4090	 4.8470
 0.4100	 4.8710
 0.4110	 4.8740
 0.4120	 4.8710
 0.4130	 4.8970
 0.4140	 4.9170
 0.4150	 4.9240
 0.4160	 4.9180
 0.4170	 4.9100
 0.4180	 4.9330
 0.4190	 4.9720
 0.4200	 4.9680
 0.4210	 4.9770
 0.4220	 4.9880
 0.4230	 4.9910
 0.4240	 5.0030
 0.4250	 4.9980
 0.4260	 4.9990
 0.4270	 5.0380
 0.4280	 5.0440
 0.4290	 5.0440
 0.4300	 5.0580
 0.4310	 5.0810
 0.4320	 5.0810
 0.4330	 5.0770
 0.4340	 5.0960
 0.4350	 5.1180
 0.4360	 5.1400
 0.4370	 5.1510
 0.4380	 5.1420
 0.4390	 5.1530
 0.4400	 5.1600
 0.4410	 5.1540
 0.4420	 5.1710
 0.4430	 5.1860
 0.4440	 5.1940
 0.4450	 5.2000
 0.4460	 5.2040
 0.4470	 5.2070
 0.4480	 5.2150
 0.4490	 5.2390
 0.4500	 5.2490
 0.4510	 5.2530
 0.4520	 5.2620
 0.4530	 5.2670
 0.4540	 5.2760
 0.4550	 5.2870
 0.4560	 5.2900
 0.4570	 5.3030
 0.4580	 5.3160
 0.4590	 5.3200
 0.4600	 5.3180
 0.4610	 5.3120
 0.4620	 5.3170
 0.4630	 5.3390
 0.4640	 5.3350
 0.4650	 5.3260
 0.4660	 5.3280
 0.4670	 5.3450
 0.4680	 5.3430
 0.4690	 5.3390
 0.4700	 5.3440
 0.4710	 5.3420
 0.4720	 5.3420
 0.4730	 5.3460
 0.4740	 5.3490
 0.4750	 5.3560
 0.4760	 5.3630
 0.4770	 5.3680
 0.4780	 5.3840
 0.4790	 5.3890
 0.4800	 5.3860
 0.4810	 5.3830
 0.4820	 5.3790
 0.4830	 5.3800
 0.4840	 5.3880
 0.4850	 5.4050
 0.4860	 5.4080
 0.4870	 5.4100
 0.4880	 5.4190
 0.4890	 5.4270
 0.4900	 5.4320
 0.4910	 5.4350
 0.4920	 5.4400
 0.4930	 5.4530
 0.4940	 5.4670
 0.4950	 5.4760
 0.4960	 5.4810
 0.4970	 5.4980
 0.4980	 5.5180
 0.4990	 5.5320
 0.5000	 5.5540
 0.5010	 5.5720
 0.5020	 5.5920
 0.5030	 5.6270
 0.5040	 5.6590
 0.5050	 5.6940
 0.5060	 5.7360
 0.5070	 5.7740
 0.5080	 5.8240
 0.5090	 5.8850
 0.5100	 5.9510
 0.5110	 6.0190
 0.5120	 6.0980
 0.5130	 6.1880
 0.5140	 6.2840
 0.5150	 6.3930
 0.5160	 6.5160
 0.5170	 6.6490
 0.5180	 6.7920
 0.5190	 6.9490
 0.5200	 7.1170
 0.5210	 7.2880
 0.5220	 7.4600
 0.5230	 7.6390
 0.5240	 7.8280
 0.5250	 8.0120
 0.5260	 8.1900
 0.5270	 8.3650
 0.5280	 8.5380
 0.5290	 8.7000
 0.5300	 8.8510
 0.5310	 8.9930
 0.5320	 9.1340
 0.5330	 9.2620
 0.5340	 9.3740
 0.5350	 9.4740
 0.5360	 9.5670
 0.5370	 9.6540
 0.5380	 9.7370
 0.5390	 9.8160
 0.5400	 9.8870
 0.5410	 9.9580
 0.5420	10.0340
 0.5430	10.0990
 0.5440	10.1620
 0.5450	10.2180
 0.5460	10.2620
 0.5470	10.2950
 0.5480	10.3230
 0.5490	10.3520
 0.5500	10.3820
 0.5510	10.4030
 0.5520	10.4150
 0.5530	10.4200
 0.5540	10.4060
 0.5550	10.3820
 0.5560	10.3460
 0.5570	10.2930
 0.5580	10.2310
 0.5590	10.1630
 0.5600	10.0870
 0.5610	 9.9990
 0.5620	 9.9060
 0.5630	 9.8050
 0.5640	 9.6930
 0.5650	 9.5760
 0.5660	 9.4560
 0.5670	 9.3350
 0.5680	 9.2190
 0.5690	 9.0950
 0.5700	 8.9680
 0.5710	 8.8440
 0.5720	 8.7210
 0.5730	 8.6060
 0.5740	 8.4980
 0.5750	 8.3930
 0.5760	 8.2940
 0.5770	 8.2060
 0.5780	 8.1290
 0.5790	 8.0500
 0.5800	 7.9830
 0.5810	 7.9240
 0.5820	 7.8590
 0.5830	 7.8000
 0.5840	 7.7480
 0.5850	 7.7000
 0.5860	 7.6530
 0.5870	 7.6100
 0.5880	 7.5700
 0.5890	 7.5320
 0.5900	 7.4970
 0.5910	 7.4680
 0.5920	 7.4430
 0.5930	 7.4220
 0.5940	 7.4030
 0.5950	 7.3870
 0.5960	 7.3730
 0.5970	 7.3600
 0.5980	 7.3460
 0.5990	 7.3280
 0.6000	 7.3060
 0.6010	 7.2810
 0.6020	 7.2520
 0.6030	 7.2180
 0.6040	 7.1790
 0.6050	 7.1390
 0.6060	 7.0950
 0.6070	 7.0480
 0.6080	 6.9930
 0.6090	 6.9470
 0.6100	 6.9080
 0.6110	 6.8670
 0.6120	 6.8140
 0.6130	 6.7560
 0.6140	 6.7000
 0.6150	 6.6490
 0.6160	 6.6030
 0.6170	 6.5600
 0.6180	 6.5170
 0.6190	 6.4850
 0.6200	 6.4570
 0.6210	 6.4300
 0.6220	 6.4060
 0.6230	 6.3880
 0.6240	 6.3760
 0.6250	 6.3670
 0.6260	 6.3480
 0.6270	 6.3340
 0.6280	 6.3290
 0.6290	 6.3290
 0.6300	 6.3260
 0.6310	 6.3170
 0.6320	 6.3060
 0.6330	 6.2990
 0.6340	 6.2880
 0.6350	 6.2750
 0.6360	 6.2610
 0.6370	 6.2370
 0.6380	 6.2120
 0.6390	 6.1860
 0.6400	 6.1580
 0.6410	 6.1250
 0.6420	 6.0900
 0.6430	 6.0540
 0.6440	 6.0180
 0.6450	 5.9800
 0.6460	 5.9430
 0.6470	 5.9120
 0.6480	 5.8790
 0.6490	 5.8500
 0.6500	 5.8240
 0.6510	 5.7980
 0.6520	 5.7780
 0.6530	 5.7620
 0.6540	 5.7460
 0.6550	 5.7260
 0.6560	 5.7040
 0.6570	 5.6820
 0.6580	 5.6590
 0.6590	 5.6350
 0.6600	 5.6130
 0.6610	 5.5920
 0.6620	 5.5740
 0.6630	 5.5570
 0.6640	 5.5420
 0.6650	 5.5320
 0.6660	 5.5240
 0.6670	 5.5190
 0.6680	 5.5170
 0.6690	 5.5160
 0.6700	 5.5190
 0.6710	 5.5240
 0.6720	 5.5310
 0.6730	 5.5390
 0.6740	 5.5490
 0.6750	 5.5610
 0.6760	 5.5760
 0.6770	 5.5910
 0.6780	 5.6090
 0.6790	 5.6290
 0.6800	 5.6490
 0.6810	 5.6710
 0.6820	 5.6980
 0.6830	 5.7270
 0.6840	 5.7580
 0.6850	 5.7940
 0.6860	 5.8350
 0.6870	 5.8850
 0.6880	 5.9490
 0.6890	 6.0310
 0.6900	 6.1350
 0.6910	 6.2670
 0.6920	 6.4450
 0.6930	 6.6700
 0.6940	 6.9450
 0.6950	 7.2810
 0.6960	 7.6860
 0.6970	 8.1590
 0.6980	 8.6960
 0.6990	 9.3050
 0.7000	 9.9760
 0.7010	10.7030
 0.7020	11.4840
 0.7030	12.3060
 0.7040	13.1650
 0.7050	14.0540
 0.7060	14.9630
 0.7070	15.8880
 0.7080	16.8230
 0.7090	17.7650
 0.7100	18.7120
 0.7110	19.6610
 0.7120	20.6110
 0.7130	21.5580
 0.7140	22.4960
 0.7150	23.4260
 0.7160	24.3460
 0.7170	25.2520
 0.7180	26.1400
 0.7190	27.0090
 0.7200	27.8590
 0.7210	28.6910
 0.7220	29.4990
 0.7230	30.2800
 0.7240	31.0300
 0.7250	31.7530
 0.7260	32.4450
 0.7270	33.1020
 0.7280	33.7350
 0.7290	34.3340
 0.7300	34.9000
 0.7310	35.4380
 0.7320	35.9430
 0.7330	36.4170
 0.7340	36.8630
 0.7350	37.2870
 0.7360	37.6820
 0.7370	38.0530
 0.7380	38.4000
 0.7390	38.7270
 0.7400	39.0280
 0.7410	39.3090
 0.7420	39.5760
 0.7430	39.8180
 0.7440	40.0400
 0.7450	40.2470
 0.7460	40.4370
 0.7470	40.6170
 0.7480	40.7810
 0.7490	40.9260
 0.7500	41.0660
 0.7510	41.1930
 0.7520	41.3090
 0.7530	41.4160
 0.7540	41.5100
 0.7550	41.5970
 0.7560	41.6790
 0.7570	41.7550
 0.7580	41.8230
 0.7590	41.8830
 0.7600	41.9360
 0.7610	41.9870
 0.7620	42.0330
 0.7630	42.0770
 0.7640	42.1170
 0.7650	42.1540
 0.7660	42.1900
 0.7670	42.2230
 0.7680	42.2510
 0.7690	42.2750
 0.7700	42.2970
 0.7710	42.3180
 0.7720	42.3410
 0.7730	42.3650
 0.7740	42.3870
 0.7750	42.4050
 0.7760	42.4230
 0.7770	42.4410
 0.7780	42.4580
 0.7790	42.4700
 0.7800	42.4900
 0.7810	42.5080
 0.7820	42.5220
 0.7830	42.5350
 0.7840	42.5470
 0.7850	42.5600
 0.7860	42.5750
 0.7870	42.5870
 0.7880	42.5980
 0.7890	42.6090
 0.7900	42.6220
 0.7910	42.6330
 0.7920	42.6440
 0.7930	42.6540
 0.7940	42.6620
 0.7950	42.6690
 0.7960	42.6770
 0.7970	42.6840
 0.7980	42.6870
 0.7990	42.6930
 0.8000	42.6980
 0.8010	42.7010
 0.8020	42.7090
 0.8030	42.7130
 0.8040	42.7140
 0.8050	42.7170
 0.8060	42.7160
 0.8070	42.7160
 0.8080	42.7170
 0.8090	42.7160
 0.8100	42.7190
 0.8110	42.7200
 0.8120	42.7160
 0.8130	42.7100
 0.8140	42.7080
 0.8150	42.7080
 0.8160	42.7070
 0.8170	42.6970
 0.8180	42.6990
 0.8190	42.7020
 0.8200	42.6900
 0.8210	42.6870
 0.8220	42.6830
 0.8230	42.6770
 0.8240	42.6800
 0.8250	42.6690
 0.8260	42.6560
 0.8270	42.6490
 0.8280	42.6470
 0.8290	42.6420
 0.8300	42.6330
 0.8310	42.6240
 0.8320	42.6210
 0.8330	42.6160
 0.8340	42.6110
 0.8350	42.6100
 0.8360	42.6040
 0.8370	42.6020
 0.8380	42.6020
 0.8390	42.5950
 0.8400	42.5900
 0.8410	42.5870
 0.8420	42.5860
 0.8430	42.5940
 0.8440	42.5950
 0.8450	42.5920
 0.8460	42.5930
 0.8470	42.5960
 0.8480	42.6000
 0.8490	42.6000
 0.8500	42.5940
 0.8510	42.6030
 0.8520	42.6110
 0.8530	42.6110
 0.8540	42.6030
 0.8550	42.6040
 0.8560	42.6120
 0.8570	42.6210
 0.8580	42.6220
 0.8590	42.6240
 0.8600	42.6280
 0.8610	42.6310
 0.8620	42.6340
 0.8630	42.6400
 0.8640	42.6440
 0.8650	42.6450
 0.8660	42.6500
 0.8670	42.6590
 0.8680	42.6670
 0.8690	42.6680
 0.8700	42.6720
 0.8710	42.6790
 0.8720	42.6860
 0.8730	42.6890
 0.8740	42.6940
 0.8750	42.7030
 0.8760	42.7140
 0.8770	42.7190
 0.8780	42.7240
 0.8790	42.7270
 0.8800	42.7310
 0.8810	42.7420
 0.8820	42.7510
 0.8830	42.7600
 0.8840	42.7690
 0.8850	42.7770
 0.8860	42.7810
 0.8870	42.7860
 0.8880	42.7930
 0.8890	42.7940
 0.8900	42.7990
 0.8910	42.8090
 0.8920	42.8190
 0.8930	42.8160
 0.8940	42.8160
 0.8950	42.8250
 0.8960	42.8340
 0.8970	42.8390
 0.8980	42.8410
 0.8990	42.8410
 0.9000	42.8460
 0.9010	42.8520
 0.9020	42.8580
 0.9030	42.8630
 0.9040	42.8630
 0.9050	42.8680
 0.9060	42.8740
 0.9070	42.8790
 0.9080	42.8820
 0.9090	42.8840
 0.9100	42.8870
 0.9110	42.8920
 0.9120	42.8940
 0.9130	42.9030
 0.9140	42.9080
 0.9150	42.9000
 0.9160	42.9000
 0.9170	42.9040
 0.9180	42.9080
 0.9190	42.9120
 0.9200	42.9160
 0.9210	42.9130
 0.9220	42.9030
 0.9230	42.8930
 0.9240	42.8890
 0.9250	42.8830
 0.9260	42.8750
 0.9270	42.8710
 0.9280	42.8670
 0.9290	42.8600
 0.9300	42.8480
 0.9310	42.8290
 0.9320	42.8150
 0.9330	42.8000
 0.9340	42.7810
 0.9350	42.7610
 0.9360	42.7480
 0.9370	42.7350
 0.9380	42.7180
 0.9390	42.7020
 0.9400	42.6810
 0.9410	42.6520
 0.9420	42.6210
 0.9430	42.6000
 0.9440	42.5770
 0.9450	42.5440
 0.9460	42.5020
 0.9470	42.4600
 0.9480	42.4160
 0.9490	42.3740
 0.9500	42.3360
 0.9510	42.2910
 0.9520	42.2350
 0.9530	42.1750
 0.9540	42.1200
 0.9550	42.0610
 0.9560	42.0000
 0.9570	41.9410
 0.9580	41.8900
 0.9590	41.8430
 0.9600	41.7980
 0.9610	41.7570
 0.9620	41.7210
 0.9630	41.6890
 0.9640	41.6600
 0.9650	41.6370
 0.9660	41.6190
 0.9670	41.5940
 0.9680	41.5670
 0.9690	41.5520
 0.9700	41.5500
 0.9710	41.5290
 0.9720	41.5100
 0.9730	41.5030
 0.9740	41.5050
 0.9750	41.4810
 0.9760	41.4720
 0.9770	41.4740
 0.9780	41.4700
 0.9790	41.4860
 0.9800	41.4880
 0.9810	41.4830
 0.9820	41.4900
 0.9830	41.4860
 0.9840	41.4970
 0.9850	41.5120
 0.9860	41.5080
 0.9870	41.5170
 0.9880	41.5420
 0.9890	41.5660
 0.9900	41.5720
 0.9910	41.5900
 0.9920	41.6340
 0.9930	41.6790
 0.9940	41.7230
 0.9950	41.7680
 0.9960	41.8120
 0.9970	41.8560
 0.9980	41.9010
 0.9990	41.9450
 1.0000	41.9900
 1.0010	42.0340
 1.0020	42.0790
 1.0030	42.1230
 1.0040	42.1670
 1.0050	42.2120
 1.0060	42.2560
 1.0070	42.3010
 1.0080	42.3450
 1.0090	42.3900
 1.0100	42.3900
 1.0110	42.4140
 1.0120	42.4360
 1.0130	42.4520
 1.0140	42.4700
 1.0150	42.4900
 1.0160	42.5090
 1.0170	42.5230
 1.0180	42.5340
 1.0190	42.5530
 1.0200	42.5720
 1.0210	42.5830
 1.0220	42.6030
 1.0230	42.6210
 1.0240	42.6370
 1.0250	42.6550
 1.0260	42.6810
 1.0270	42.6990
 1.0280	42.7120
 1.0290	42.7260
 1.0300	42.7370
 1.0310	42.7540
 1.0320	42.7750
 1.0330	42.7940
 1.0340	42.8130
 1.0350	42.8300
 1.0360	42.8430
 1.0370	42.8550
 1.0380	42.8690
 1.0390	42.8840
 1.0400	42.8990
 1.0410	42.9180
 1.0420	42.9310
 1.0430	42.9420
 1.0440	42.9540
 1.0450	42.9620
 1.0460	42.9740
 1.0470	42.9920
 1.0480	43.0050
 1.0490	43.0150
 1.0500	43.0260
 1.0510	43.0350
 1.0520	43.0420
 1.0530	43.0520
 1.0540	43.0640
 1.0550	43.0720
 1.0560	43.0780
 1.0570	43.0850
 1.0580	43.0880
 1.0590	43.0940
 1.0600	43.1020
 1.0610	43.1080
 1.0620	43.1120
 1.0630	43.1170
 1.0640	43.1230
 1.0650	43.1260
 1.0660	43.1280
 1.0670	43.1310
 1.0680	43.1350
 1.0690	43.1380
 1.0700	43.1420
 1.0710	43.1500
 1.0720	43.1490
 1.0730	43.1420
 1.0740	43.1410
 1.0750	43.1380
 1.0760	43.1380
 1.0770	43.1430
 1.0780	43.1440
 1.0790	43.1430
 1.0800	43.1410
 1.0810	43.1350
 1.0820	43.1290
 1.0830	43.1200
 1.0840	43.1140
 1.0850	43.1100
 1.0860	43.1080
 1.0870	43.1020
 1.0880	43.0960
 1.0890	43.0910
 1.0900	43.0840
 1.0910	43.0780
 1.0920	43.0770
 1.0930	43.0690
 1.0940	43.0580
 1.0950	43.0490
 1.0960	43.0390
 1.0970	43.0290
 1.0980	43.0210
 1.0990	43.0120
 1.1000	43.0030
 1.1010	42.9930
 1.1020	42.9840
 1.1030	42.9730
 1.1040	42.9610
 1.1050	42.9470
 1.1060	42.9340
 1.1070	42.9210
 1.1080	42.9080
 1.1090	42.8940
 1.1100	42.8800
 1.1110	42.8650
 1.1120	42.8500
 1.1130	42.8350
 1.1140	42.8170
 1.1150	42.7990
 1.1160	42.7800
 1.1170	42.7580
 1.1180	42.7350
 1.1190	42.7120
 1.1200	42.6850
 1.1210	42.6530
 1.1220	42.6200
 1.1230	42.5850
 1.1240	42.5450
 1.1250	42.5020
 1.1260	42.4580
 1.1270	42.4050
 1.1280	42.3430
 1.1290	42.2780
 1.1300	42.2080
 1.1310	42.1320
 1.1320	42.0520
 1.1330	41.9640
 1.1340	41.8690
 1.1350	41.7690
 1.1360	41.6630
 1.1370	41.5540
 1.1380	41.4400
 1.1390	41.3230
 1.1400	41.2020
 1.1410	41.0780
 1.1420	40.9510
 1.1430	40.8240
 1.1440	40.6970
 1.1450	40.5670
 1.1460	40.4420
 1.1470	40.3170
 1.1480	40.1970
 1.1490	40.0780
 1.1500	39.9670
 1.1510	39.8600
 1.1520	39.7620
 1.1530	39.6690
 1.1540	39.5840
 1.1550	39.5080
 1.1560	39.4370
 1.1570	39.3720
 1.1580	39.3150
 1.1590	39.2640
 1.1600	39.2180
 1.1610	39.1790
 1.1620	39.1470
 1.1630	39.1180
 1.1640	39.0920
 1.1650	39.0690
 1.1660	39.0490
 1.1670	39.0310
 1.1680	39.0190
 1.1690	39.0040
 1.1700	38.9900
 1.1710	38.9780
 1.1720	38.9680
 1.1730	38.9560
 1.1740	38.9470
 1.1750	38.9350
 1.1760	38.9220
 1.1770	38.9090
 1.1780	38.8930
 1.1790	38.8770
 1.1800	38.8600
 1.1810	38.8430
 1.1820	38.8280
 1.1830	38.8130
 1.1840	38.7970
 1.1850	38.7810
 1.1860	38.7640
 1.1870	38.7470
 1.1880	38.7330
 1.1890	38.7200
 1.1900	38.7080
 1.1910	38.6990
 1.1920	38.6910
 1.1930	38.6810
 1.1940	38.6750
 1.1950	38.6690
 1.1960	38.6660
 1.1970	38.6640
 1.1980	38.6640
 1.1990	38.6660
 1.2000	38.6690
 1.2010	38.6740
 1.2020	38.6820
 1.2030	38.6910
 1.2040	38.7020
 1.2050	38.7120
 1.2060	38.7250
 1.2070	38.7410
 1.2080	38.7580
 1.2090	38.7800
 1.2100	38.8020
 1.2110	38.8250
 1.2120	38.8470
 1.2130	38.8730
 1.2140	38.9000
 1.2150	38.9290
 1.2160	38.9610
 1.2170	38.9920
 1.2180	39.0230
 1.2190	39.0550
 1.2200	39.0860
 1.2210	39.1170
 1.2220	39.1490
 1.2230	39.1810
 1.2240	39.2150
 1.2250	39.2480
 1.2260	39.2770
 1.2270	39.3060
 1.2280	39.3350
 1.2290	39.3610
 1.2300	39.3890
 1.2310	39.4150
 1.2320	39.4390
 1.2330	39.4630
 1.2340	39.4870
 1.2350	39.5090
 1.2360	39.5310
 1.2370	39.5530
 1.2380	39.5730
 1.2390	39.5930
 1.2400	39.6120
 1.2410	39.6300
 1.2420	39.6470
 1.2430	39.6630
 1.2440	39.6790
 1.2450	39.6950
 1.2460	39.7110
 1.2470	39.7270
 1.2480	39.7430
 1.2490	39.7580
 1.2500	39.7700
 1.2510	39.7800
 1.2520	39.7900
 1.2530	39.7990
 1.2540	39.8080
 1.2550	39.8180
 1.2560	39.8260
 1.2570	39.8320
 1.2580	39.8360
 1.2590	39.8400
 1.2600	39.8420
 1.2610	39.8450
 1.2620	39.8460
 1.2630	39.8490
 1.2640	39.8510
 1.2650	39.8510
 1.2660	39.8500
 1.2670	39.8480
 1.2680	39.8440
 1.2690	39.8370
 1.2700	39.8320
 1.2710	39.8260
 1.2720	39.8210
 1.2730	39.8150
 1.2740	39.8080
 1.2750	39.7990
 1.2760	39.7890
 1.2770	39.7780
 1.2780	39.7650
 1.2790	39.7530
 1.2800	39.7410
 1.2810	39.7290
 1.2820	39.7180
 1.2830	39.7030
 1.2840	39.6880
 1.2850	39.6690
 1.2860	39.6470
 1.2870	39.6240
 1.2880	39.6000
 1.2890	39.5720
 1.2900	39.5440
 1.2910	39.5130
 1.2920	39.4800
 1.2930	39.4470
 1.2940	39.4110
 1.2950	39.3720
 1.2960	39.3300
 1.2970	39.2850
 1.2980	39.2370
 1.2990	39.1900
 1.3000	39.1400
 1.3010	39.0890
 1.3020	39.0370
 1.3030	38.9790
 1.3040	38.9150
 1.3050	38.8510
 1.3060	38.7850
 1.3070	38.7150
 1.3080	38.6450
 1.3090	38.5720
 1.3100	38.4960
 1.3110	38.4180
 1.3120	38.3360
 1.3130	38.2520
 1.3140	38.1650
 1.3150	38.0750
 1.3160	37.9830
 1.3170	37.8880
 1.3180	37.7890
 1.3190	37.6890
 1.3200	37.5850
 1.3210	37.4770
 1.3220	37.3670
 1.3230	37.2550
 1.3240	37.1380
 1.3250	37.0220
 1.3260	36.9050
 1.3270	36.7830
 1.3280	36.6600
 1.3290	36.5340
 1.3300	36.4050
 1.3310	36.2740
 1.3320	36.1420
 1.3330	36.0080
 1.3340	35.8760
 1.3350	35.7420
 1.3360	35.6070
 1.3370	35.4720
 1.3380	35.3370
 1.3390	35.2010
 1.3400	35.0640
 1.3410	34.9290
 1.3420	34.7940
 1.3430	34.6600
 1.3440	34.5280
 1.3450	34.3960
 1.3460	34.2640
 1.3470	34.1340
 1.3480	34.0030
 1.3490	33.8730
 1.3500	33.7450
 1.3510	33.6180
 1.3520	33.4880
 1.3530	33.3610
 1.3540	33.2340
 1.3550	33.1070
 1.3560	32.9810
 1.3570	32.8540
 1.3580	32.7250
 1.3590	32.5940
 1.3600	32.4590
 1.3610	32.3210
 1.3620	32.1790
 1.3630	32.0330
 1.3640	31.8830
 1.3650	31.7260
 1.3660	31.5630
 1.3670	31.3900
 1.3680	31.2080
 1.3690	31.0160
 1.3700	30.8100
 1.3710	30.5950
 1.3720	30.3660
 1.3730	30.1200
 1.3740	29.8630
 1.3750	29.5870
 1.3760	29.2910
 1.3770	28.9770
 1.3780	28.6390
 1.3790	28.2810
 1.3800	27.9040
 1.3810	27.5040
 1.3820	27.0880
 1.3830	26.6540
 1.3840	26.2040
 1.3850	25.7360
 1.3860	25.2580
 1.3870	24.7600
 1.3880	24.2610
 1.3890	23.7520
 1.3900	23.2350
 1.3910	22.7200
 1.3920	22.2000
 1.3930	21.6780
 1.3940	21.1620
 1.3950	20.6430
 1.3960	20.1350
 1.3970	19.6380
 1.3980	19.1500
 1.3990	18.6820
 1.4000	18.2290
 1.4010	17.7890
 1.4020	17.3700
 1.4030	16.9650
 1.4040	16.5810
 1.4050	16.2180
 1.4060	15.8730
 1.4070	15.5520
 1.4080	15.2500
 1.4090	14.9650
 1.4100	14.7020
 1.4110	14.4570
 1.4120	14.2290
 1.4130	14.0190
 1.4140	13.8240
 1.4150	13.6470
 1.4160	13.4840
 1.4170	13.3350
 1.4180	13.2000
 1.4190	13.0750
 1.4200	12.9610
 1.4210	12.8570
 1.4220	12.7640
 1.4230	12.6800
 1.4240	12.6060
 1.4250	12.5390
 1.4260	12.4810
 1.4270	12.4280
 1.4280	12.3810
 1.4290	12.3400
 1.4300	12.3070
 1.4310	12.2770
 1.4320	12.2550
 1.4330	12.2350
 1.4340	12.2190
 1.4350	12.2070
 1.4360	12.1980
 1.4370	12.1930
 1.4380	12.1920
 1.4390	12.1940
 1.4400	12.1990
 1.4410	12.2060
 1.4420	12.2160
 1.4430	12.2270
 1.4440	12.2400
 1.4450	12.2540
 1.4460	12.2700
 1.4470	12.2880
 1.4480	12.3060
 1.4490	12.3250
 1.4500	12.3450
 1.4510	12.3650
 1.4520	12.3870
 1.4530	12.4100
 1.4540	12.4340
 1.4550	12.4600
 1.4560	12.4870
 1.4570	12.5150
 1.4580	12.5450
 1.4590	12.5770
 1.4600	12.6120
 1.4610	12.6490
 1.4620	12.6910
 1.4630	12.7360
 1.4640	12.7850
 1.4650	12.8380
 1.4660	12.8940
 1.4670	12.9530
 1.4680	13.0170
 1.4690	13.0840
 1.4700	13.1560
 1.4710	13.2320
 1.4720	13.3100
 1.4730	13.3920
 1.4740	13.4770
 1.4750	13.5630
 1.4760	13.6530
 1.4770	13.7450
 1.4780	13.8380
 1.4790	13.9330
 1.4800	14.0290
 1.4810	14.1270
 1.4820	14.2260
 1.4830	14.3260
 1.4840	14.4280
 1.4850	14.5300
 1.4860	14.6330
 1.4870	14.7370
 1.4880	14.8400
 1.4890	14.9430
 1.4900	15.0470
 1.4910	15.1530
 1.4920	15.2590
 1.4930	15.3680
 1.4940	15.4750
 1.4950	15.5840
 1.4960	15.6910
 1.4970	15.7970
 1.4980	15.9050
 1.4990	16.0120
 1.5000	16.1200
 1.5010	16.2300
 1.5020	16.3380
 1.5030	16.4470
 1.5040	16.5550
 1.5050	16.6610
 1.5060	16.7690
 1.5070	16.8760
 1.5080	16.9840
 1.5090	17.0920
 1.5100	17.1990
 1.5110	17.3050
 1.5120	17.4100
 1.5130	17.5140
 1.5140	17.6170
 1.5150	17.7210
 1.5160	17.8250
 1.5170	17.9290
 1.5180	18.0310
 1.5190	18.1330
 1.5200	18.2340
 1.5210	18.3350
 1.5220	18.4350
 1.5230	18.5340
 1.5240	18.6320
 1.5250	18.7290
 1.5260	18.8260
 1.5270	18.9220
 1.5280	19.0180
 1.5290	19.1130
 1.5300	19.2080
 1.5310	19.3020
 1.5320	19.3950
 1.5330	19.4860
 1.5340	19.5760
 1.5350	19.6650
 1.5360	19.7550
 1.5370	19.8430
 1.5380	19.9310
 1.5390	20.0200
 1.5400	20.1060
 1.5410	20.1930
 1.5420	20.2780
 1.5430	20.3620
 1.5440	20.4460
 1.5450	20.5280
 1.5460	20.6100
 1.5470	20.6920
 1.5480	20.7720
 1.5490	20.8530
 1.5500	20.9320
 1.5510	21.0100
 1.5520	21.0890
 1.5530	21.1660
 1.5540	21.2420
 1.5550	21.3190
 1.5560	21.3940
 1.5570	21.4690
 1.5580	21.5420
 1.5590	21.6150
 1.5600	21.6880
 1.5610	21.7570
 1.5620	21.8260
 1.5630	21.8970
 1.5640	21.9660
 1.5650	22.0350
 1.5660	22.1040
 1.5670	22.1710
 1.5680	22.2380
 1.5690	22.3020
 1.5700	22.3660
 1.5710	22.4290
 1.5720	22.4920
 1.5730	22.5570
 1.5740	22.6210
 1.5750	22.6860
 1.5760	22.7500
 1.5770	22.8120
 1.5780	22.8740
 1.5790	22.9370
 1.5800	22.9980
 1.5810	23.0610
 1.5820	23.1220
 1.5830	23.1830
 1.5840	23.2440
 1.5850	23.3040
 1.5860	23.3630
 1.5870	23.4230
 1.5880	23.4820
 1.5890	23.5410
 1.5900	23.5990
 1.5910	23.6570
 1.5920	23.7160
 1.5930	23.7750
 1.5940	23.8330
 1.5950	23.8920
 1.5960	23.9480
 1.5970	24.0030
 1.5980	24.0590
 1.5990	24.1140
 1.6000	24.1690
 1.6010	24.2230
 1.6020	24.2780
 1.6030	24.3320
 1.6040	24.3850
 1.6050	24.4390
 1.6060	24.4920
 1.6070	24.5440
 1.6080	24.5960
 1.6090	24.6460
 1.6100	24.6940
 1.6110	24.7430
 1.6120	24.7900
 1.6130	24.8380
 1.6140	24.8850
 1.6150	24.9300
 1.6160	24.9740
 1.6170	25.0190
 1.6180	25.0610
 1.6190	25.1040
 1.6200	25.1470
 1.6210	25.1870
 1.6220	25.2250
 1.6230	25.2640
 1.6240	25.3030
 1.6250	25.3400
 1.6260	25.3770
 1.6270	25.4140
 1.6280	25.4480
 1.6290	25.4820
 1.6300	25.5170
 1.6310	25.5490
 1.6320	25.5810
 1.6330	25.6110
 1.6340	25.6410
 1.6350	25.6690
 1.6360	25.6960
 1.6370	25.7220
 1.6380	25.7460
 1.6390	25.7680
 1.6400	25.7890
 1.6410	25.8080
 1.6420	25.8270
 1.6430	25.8420
 1.6440	25.8540
 1.6450	25.8640
 1.6460	25.8700
 1.6470	25.8760
 1.6480	25.8800
 1.6490	25.8790
 1.6500	25.8760
 1.6510	25.8710
 1.6520	25.8610
 1.6530	25.8500
 1.6540	25.8360
 1.6550	25.8180
 1.6560	25.7990
 1.6570	25.7800
 1.6580	25.7610
 1.6590	25.7400
 1.6600	25.7200
 1.6610	25.6980
 1.6620	25.6760
 1.6630	25.6540
 1.6640	25.6320
 1.6650	25.6120
 1.6660	25.5930
 1.6670	25.5750
 1.6680	25.5570
 1.6690	25.5380
 1.6700	25.5190
 1.6710	25.5010
 1.6720	25.4870
 1.6730	25.4730
 1.6740	25.4600
 1.6750	25.4440
 1.6760	25.4260
 1.6770	25.4100
 1.6780	25.3940
 1.6790	25.3800
 1.6800	25.3660
 1.6810	25.3480
 1.6820	25.3280
 1.6830	25.3060
 1.6840	25.2840
 1.6850	25.2620
 1.6860	25.2390
 1.6870	25.2150
 1.6880	25.1890
 1.6890	25.1640
 1.6900	25.1360
 1.6910	25.1060
 1.6920	25.0750
 1.6930	25.0390
 1.6940	25.0030
 1.6950	24.9660
 1.6960	24.9270
 1.6970	24.8870
 1.6980	24.8450
 1.6990	24.8020
 1.7000	24.7560
 1.7010	24.7090
 1.7020	24.6600
 1.7030	24.6080
 1.7040	24.5560
 1.7050	24.5050
 1.7060	24.4530
 1.7070	24.4000
 1.7080	24.3480
 1.7090	24.2960
 1.7100	24.2440
 1.7110	24.1940
 1.7120	24.1440
 1.7130	24.0940
 1.7140	24.0430
 1.7150	23.9940
 1.7160	23.9440
 1.7170	23.8940
 1.7180	23.8460
 1.7190	23.7980
 1.7200	23.7510
 1.7210	23.7060
 1.7220	23.6600
 1.7230	23.6140
 1.7240	23.5680
 1.7250	23.5260
 1.7260	23.4850
 1.7270	23.4440
 1.7280	23.4060
 1.7290	23.3700
 1.7300	23.3370
 1.7310	23.3030
 1.7320	23.2710
 1.7330	23.2390
 1.7340	23.2090
 1.7350	23.1750
 1.7360	23.1410
 1.7370	23.1060
 1.7380	23.0670
 1.7390	23.0280
 1.7400	22.9870
 1.7410	22.9430
 1.7420	22.8950
 1.7430	22.8470
 1.7440	22.7970
 1.7450	22.7460
 1.7460	22.6950
 1.7470	22.6430
 1.7480	22.5880
 1.7490	22.5360
 1.7500	22.4840
 1.7510	22.4320
 1.7520	22.3830
 1.7530	22.3320
 1.7540	22.2800
 1.7550	22.2300
 1.7560	22.1810
 1.7570	22.1350
 1.7580	22.0910
 1.7590	22.0490
 1.7600	22.0090
 1.7610	21.9690
 1.7620	21.9300
 1.7630	21.8930
 1.7640	21.8570
 1.7650	21.8240
 1.7660	21.7900
 1.7670	21.7580
 1.7680	21.7260
 1.7690	21.6950
 1.7700	21.6650
 1.7710	21.6360
 1.7720	21.6080
 1.7730	21.5810
 1.7740	21.5550
 1.7750	21.5330
 1.7760	21.5070
 1.7770	21.4790
 1.7780	21.4540
 1.7790	21.4280
 1.7800	21.4050
 1.7810	21.3870
 1.7820	21.3670
 1.7830	21.3470
 1.7840	21.3290
 1.7850	21.3130
 1.7860	21.2980
 1.7870	21.2850
 1.7880	21.2720
 1.7890	21.2610
 1.7900	21.2550
 1.7910	21.2490
 1.7920	21.2460
 1.7930	21.2420
 1.7940	21.2360
 1.7950	21.2340
 1.7960	21.2340
 1.7970	21.2350
 1.7980	21.2380
 1.7990	21.2410
 1.8000	21.2440
 1.8010	21.2480
 1.8020	21.2530
 1.8030	21.2580
 1.8040	21.2630
 1.8050	21.2690
 1.8060	21.2750
 1.8070	21.2790
 1.8080	21.2820
 1.8090	21.2830
 1.8100	21.2820
 1.8110	21.2820
 1.8120	21.2850
 1.8130	21.2930
 1.8140	21.2970
 1.8150	21.2990
 1.8160	21.3000
 1.8170	21.2970
 1.8180	21.2960
 1.8190	21.2970
 1.8200	21.2950
 1.8210	21.2900
 1.8220	21.2860
 1.8230	21.2830
 1.8240	21.2780
 1.8250	21.2760
 1.8260	21.2690
 1.8270	21.2520
 1.8280	21.2350
 1.8290	21.2190
 1.8300	21.2020
 1.8310	21.1850
 1.8320	21.1680
 1.8330	21.1510
 1.8340	21.1340
 1.8350	21.1340
 1.8360	21.0970
 1.8370	21.0570
 1.8380	21.0190
 1.8390	20.9730
 1.8400	20.9260
 1.8410	20.8720
 1.8420	20.8140
 1.8430	20.7470
 1.8440	20.6720
 1.8450	20.5960
 1.8460	20.5140
 1.8470	20.4220
 1.8480	20.3240
 1.8490	20.2190
 1.8500	20.1020
 1.8510	19.9740
 1.8520	19.8380
 1.8530	19.6910
 1.8540	19.5340
 1.8550	19.3640
 1.8560	19.1870
 1.8570	18.9980
 1.8580	18.7950
 1.8590	18.5820
 1.8600	18.3610
 1.8610	18.1250
 1.8620	17.8720
 1.8630	17.6100
 1.8640	17.3340
 1.8650	17.0390
 1.8660	16.7330
 1.8670	16.4110
 1.8680	16.0730
 1.8690	15.7250
 1.8700	15.3620
 1.8710	14.9870
 1.8720	14.6020
 1.8730	14.2110
 1.8740	13.8110
 1.8750	13.4100
 1.8760	13.0040
 1.8770	12.5980
 1.8780	12.1960
 1.8790	11.7940
 1.8800	11.4030
 1.8810	11.0170
 1.8820	10.6390
 1.8830	10.2660
 1.8840	 9.9020
 1.8850	 9.5440
 1.8860	 9.1980
 1.8870	 8.8680
 1.8880	 8.5490
 1.8890	 8.2520
 1.8900	 7.9730
 1.8910	 7.7110
 1.8920	 7.4630
 1.8930	 7.2390
 1.8940	 7.0320
 1.8950	 6.8410
 1.8960	 6.6670
 1.8970	 6.5090
 1.8980	 6.3690
 1.8990	 6.2410
 1.9000	 6.1230
 1.9010	 6.0190
 1.9020	 5.9260
 1.9030	 5.8430
 1.9040	 5.7700
 1.9050	 5.7080
 1.9060	 5.6560
 1.9070	 5.6100
 1.9080	 5.5700
 1.9090	 5.5350
 1.9100	 5.5010
 1.9110	 5.4710
 1.9120	 5.4420
 1.9130	 5.4200
 1.9140	 5.4040
 1.9150	 5.3930
 1.9160	 5.3840
 1.9170	 5.3760
 1.9180	 5.3670
 1.9190	 5.3580
 1.9200	 5.3510
 1.9210	 5.3450
 1.9220	 5.3420
 1.9230	 5.3430
 1.9240	 5.3420
 1.9250	 5.3420
 1.9260	 5.3430
 1.9270	 5.3450
 1.9280	 5.3460
 1.9290	 5.3490
 1.9300	 5.3540
 1.9310	 5.3600
 1.9320	 5.3690
 1.9330	 5.3760
 1.9340	 5.3850
 1.9350	 5.3930
 1.9360	 5.4010
 1.9370	 5.4100
 1.9380	 5.4210
 1.9390	 5.4310
 1.9400	 5.4410
 1.9410	 5.4530
 1.9420	 5.4650
 1.9430	 5.4780
 1.9440	 5.4930
 1.9450	 5.5090
 1.9460	 5.5240
 1.9470	 5.5400
 1.9480	 5.5570
 1.9490	 5.5730
 1.9500	 5.5890
 1.9510	 5.6070
 1.9520	 5.6270
 1.9530	 5.6460
 1.9540	 5.6660
 1.9550	 5.6860
 1.9560	 5.7060
 1.9570	 5.7270
 1.9580	 5.7510
 1.9590	 5.7730
 1.9600	 5.7930
 1.9610	 5.8170
 1.9620	 5.8420
 1.9630	 5.8640
 1.9640	 5.8920
 1.9650	 5.9220
 1.9660	 5.9490
 1.9670	 5.9790
 1.9680	 6.0070
 1.9690	 6.0340
 1.9700	 6.0620
 1.9710	 6.0890
 1.9720	 6.1180
 1.9730	 6.1480
 1.9740	 6.1810
 1.9750	 6.2140
 1.9760	 6.2480
 1.9770	 6.2860
 1.9780	 6.3220
 1.9790	 6.3580
 1.9800	 6.3940
 1.9810	 6.4310
 1.9820	 6.4660
 1.9830	 6.5030
 1.9840	 6.5430
 1.9850	 6.5820
 1.9860	 6.6210
 1.9870	 6.6610
 1.9880	 6.7040
 1.9890	 6.7440
 1.9900	 6.7870
 1.9910	 6.8290
 1.9920	 6.8700
 1.9930	 6.9110
 1.9940	 6.9530
 1.9950	 6.9950
 1.9960	 7.0380
 1.9970	 7.0820
 1.9980	 7.1250
 1.9990	 7.1690
 2.0000	 7.2130
 2.0010	 7.2560
 2.0020	 7.2990
 2.0030	 7.3430
 2.0040	 7.3860
 2.0050	 7.4310
 2.0060	 7.4770
 2.0070	 7.5230
 2.0080	 7.5680
 2.0090	 7.6130
 2.0100	 7.6590
 2.0110	 7.7030
 2.0120	 7.7470
 2.0130	 7.7910
 2.0140	 7.8340
 2.0150	 7.8750
 2.0160	 7.9180
 2.0170	 7.9610
 2.0180	 8.0030
 2.0190	 8.0450
 2.0200	 8.0850
 2.0210	 8.1210
 2.0220	 8.1590
 2.0230	 8.1940
 2.0240	 8.2310
 2.0250	 8.2700
 2.0260	 8.3060
 2.0270	 8.3410
 2.0280	 8.3770
 2.0290	 8.4110
 2.0300	 8.4450
 2.0310	 8.4780
 2.0320	 8.5090
 2.0330	 8.5410
 2.0340	 8.5710
 2.0350	 8.6020
 2.0360	 8.6350
 2.0370	 8.6650
 2.0380	 8.6920
 2.0390	 8.7190
 2.0400	 8.7440
 2.0410	 8.7690
 2.0420	 8.7940
 2.0430	 8.8200
 2.0440	 8.8450
 2.0450	 8.8710
 2.0460	 8.8950
 2.0470	 8.9190
 2.0480	 8.9430
 2.0490	 8.9670
 2.0500	 8.9910
 2.0510	 9.0140
 2.0520	 9.0380
 2.0530	 9.0600
 2.0540	 9.0840
 2.0550	 9.1070
 2.0560	 9.1330
 2.0570	 9.1580
 2.0580	 9.1840
 2.0590	 9.2100
 2.0600	 9.2380
 2.0610	 9.2640
 2.0620	 9.2880
 2.0630	 9.3130
 2.0640	 9.3360
 2.0650	 9.3610
 2.0660	 9.3880
 2.0670	 9.4140
 2.0680	 9.4380
 2.0690	 9.4640
 2.0700	 9.4920
 2.0710	 9.5190
 2.0720	 9.5460
 2.0730	 9.5730
 2.0740	 9.5990
 2.0750	 9.6220
 2.0760	 9.6470
 2.0770	 9.6720
 2.0780	 9.6960
 2.0790	 9.7200
 2.0800	 9.7450
 2.0810	 9.7700
 2.0820	 9.7960
 2.0830	 9.8230
 2.0840	 9.8490
 2.0850	 9.8750
 2.0860	 9.9000
 2.0870	 9.9210
 2.0880	 9.9450
 2.0890	 9.9660
 2.0900	 9.9860
 2.0910	10.0090
 2.0920	10.0330
 2.0930	10.0560
 2.0940	10.0810
 2.0950	10.1050
 2.0960	10.1310
 2.0970	10.1540
 2.0980	10.1800
 2.0990	10.2020
 2.1000	10.2200
 2.1010	10.2420
 2.1020	10.2650
 2.1030	10.2870
 2.1040	10.3110
 2.1050	10.3350
 2.1060	10.3580
 2.1070	10.3810
 2.1080	10.4040
 2.1090	10.4280
 2.1100	10.4520
 2.1110	10.4750
 2.1120	10.4990
 2.1130	10.5240
 2.1140	10.5480
 2.1150	10.5720
 2.1160	10.5930
 2.1170	10.6150
 2.1180	10.6330
 2.1190	10.6460
 2.1200	10.6630
 2.1210	10.6800
 2.1220	10.6980
 2.1230	10.7160
 2.1240	10.7370
 2.1250	10.7560
 2.1260	10.7720
 2.1270	10.7890
 2.1280	10.8080
 2.1290	10.8240
 2.1300	10.8400
 2.1310	10.8560
 2.1320	10.8690
 2.1330	10.8860
 2.1340	10.9070
 2.1350	10.9240
 2.1360	10.9410
 2.1370	10.9570
 2.1380	10.9710
 2.1390	10.9850
 2.1400	11.0020
 2.1410	11.0180
 2.1420	11.0330
 2.1430	11.0470
 2.1440	11.0640
 2.1450	11.0820
 2.1460	11.1010
 2.1470	11.1210
 2.1480	11.1400
 2.1490	11.1570
 2.1500	11.1760
 2.1510	11.1970
 2.1520	11.2170
 2.1530	11.2390
 2.1540	11.2590
 2.1550	11.2750
 2.1560	11.2940
 2.1570	11.3160
 2.1580	11.3370
 2.1590	11.3590
 2.1600	11.3810
 2.1610	11.4010
 2.1620	11.4230
 2.1630	11.4450
 2.1640	11.4690
 2.1650	11.4900
 2.1660	11.5120
 2.1670	11.5330
 2.1680	11.5540
 2.1690	11.5740
 2.1700	11.5910
 2.1710	11.6120
 2.1720	11.6340
 2.1730	11.6550
 2.1740	11.6780
 2.1750	11.7010
 2.1760	11.7210
 2.1770	11.7430
 2.1780	11.7670
 2.1790	11.7880
 2.1800	11.8050
 2.1810	11.8240
 2.1820	11.8430
 2.1830	11.8620
 2.1840	11.8810
 2.1850	11.9000
 2.1860	11.9220
 2.1870	11.9450
 2.1880	11.9680
 2.1890	11.9950
 2.1900	12.0190
 2.1910	12.0410
 2.1920	12.0630
 2.1930	12.0850
 2.1940	12.1060
 2.1950	12.1260
 2.1960	12.1480
 2.1970	12.1700
 2.1980	12.1930
 2.1990	12.2160
 2.2000	12.2370
 2.2010	12.2580
 2.2020	12.2760
 2.2030	12.2910
 2.2040	12.3070
 2.2050	12.3210
 2.2060	12.3360
 2.2070	12.3500
 2.2080	12.3640
 2.2090	12.3780
 2.2100	12.3920
 2.2110	12.4060
 2.2120	12.4200
 2.2130	12.4310
 2.2140	12.4380
 2.2150	12.4440
 2.2160	12.4480
 2.2170	12.4520
 2.2180	12.4550
 2.2190	12.4590
 2.2200	12.4620
 2.2210	12.4640
 2.2220	12.4670
 2.2230	12.4680
 2.2240	12.4660
 2.2250	12.4620
 2.2260	12.4560
 2.2270	12.4460
 2.2280	12.4320
 2.2290	12.4160
 2.2300	12.3960
 2.2310	12.3750
 2.2320	12.3560
 2.2330	12.3310
 2.2340	12.3040
 2.2350	12.2750
 2.2360	12.2430
 2.2370	12.2070
 2.2380	12.1730
 2.2390	12.1380
 2.2400	12.1030
 2.2410	12.0670
 2.2420	12.0290
 2.2430	11.9910
 2.2440	11.9490
 2.2450	11.9020
 2.2460	11.8570
 2.2470	11.8100
 2.2480	11.7620
 2.2490	11.7140
 2.2500	11.6630
 2.2510	11.6050
 2.2520	11.5520
 2.2530	11.5020
 2.2540	11.4500
 2.2550	11.3990
 2.2560	11.3460
 2.2570	11.2900
 2.2580	11.2360
 2.2590	11.1820
 2.2600	11.1290
 2.2610	11.0780
 2.2620	11.0270
 2.2630	10.9780
 2.2640	10.9330
 2.2650	10.8830
 2.2660	10.8350
 2.2670	10.7870
 2.2680	10.7370
 2.2690	10.6940
 2.2700	10.6580
 2.2710	10.6180
 2.2720	10.5820
 2.2730	10.5420
 2.2740	10.4990
 2.2750	10.4610
 2.2760	10.4210
 2.2770	10.3860
 2.2780	10.3570
 2.2790	10.3230
 2.2800	10.2910
 2.2810	10.2550
 2.2820	10.2150
 2.2830	10.1770
 2.2840	10.1410
 2.2850	10.1020
 2.2860	10.0590
 2.2870	10.0240
 2.2880	 9.9960
 2.2890	 9.9630
 2.2900	 9.9380
 2.2910	 9.9030
 2.2920	 9.8560
 2.2930	 9.8140
 2.2940	 9.7670
 2.2950	 9.7250
 2.2960	 9.6860
 2.2970	 9.6490
 2.2980	 9.6160
 2.2990	 9.5820
 2.3000	 9.5490
 2.3010	 9.5160
 2.3020	 9.4770
 2.3030	 9.4440
 2.3040	 9.4150
 2.3050	 9.3850
 2.3060	 9.3630
 2.3070	 9.3440
 2.3080	 9.3220
 2.3090	 9.3040
 2.3100	 9.2850
 2.3110	 9.2620
 2.3120	 9.2460
 2.3130	 9.2340
 2.3140	 9.2210
 2.3150	 9.2130
 2.3160	 9.2020
 2.3170	 9.1920
 2.3180	 9.1750
 2.3190	 9.1550
 2.3200	 9.1380
 2.3210	 9.1160
 2.3220	 9.0990
 2.3230	 9.0890
 2.3240	 9.0720
 2.3250	 9.0530
 2.3260	 9.0320
 2.3270	 9.0050
 2.3280	 8.9780
 2.3290	 8.9500
 2.3300	 8.9230
 2.3310	 8.8950
 2.3320	 8.8670
 2.3330	 8.8380
 2.3340	 8.8080
 2.3350	 8.7770
 2.3360	 8.7470
 2.3370	 8.7220
 2.3380	 8.6900
 2.3390	 8.6490
 2.3400	 8.6150
 2.3410	 8.5760
 2.3420	 8.5450
 2.3430	 8.5250
 2.3440	 8.4990
 2.3450	 8.4710
 2.3460	 8.4430
 2.3470	 8.4120
 2.3480	 8.3870
 2.3490	 8.3650
 2.3500	 8.3440
 2.3510	 8.3280
 2.3520	 8.3070
 2.3530	 8.2810
 2.3540	 8.2670
 2.3550	 8.2480
 2.3560	 8.2320
 2.3570	 8.2250
 2.3580	 8.2140
 2.3590	 8.2020
 2.3600	 8.1860
 2.3610	 8.1610
 2.3620	 8.1370
 2.3630	 8.1120
 2.3640	 8.0860
 2.3650	 8.0610
 2.3660	 8.0330
 2.3670	 8.0070
 2.3680	 7.9900
 2.3690	 7.9740
 2.3700	 7.9610
 2.3710	 7.9450
 2.3720	 7.9260
 2.3730	 7.9070
 2.3740	 7.8770
 2.3750	 7.8450
 2.3760	 7.8150
 2.3770	 7.7850
 2.3780	 7.7640
 2.3790	 7.7430
 2.3800	 7.7210
 2.3810	 7.7030
 2.3820	 7.6830
 2.3830	 7.6660
 2.3840	 7.6430
 2.3850	 7.6170
 2.3860	 7.5900
 2.3870	 7.5590
 2.3880	 7.5270
 2.3890	 7.4990
 2.3900	 7.4710
 2.3910	 7.4370
 2.3920	 7.4060
 2.3930	 7.3770
 2.3940	 7.3570
 2.3950	 7.3430
 2.3960	 7.3270
 2.3970	 7.3050
 2.3980	 7.2680
 2.3990	 7.2470
 2.4000	 7.2250
 2.4010	 7.2000
 2.4020	 7.1860
 2.4030	 7.1510
 2.4040	 7.1110
 2.4050	 7.0790
 2.4060	 7.0500
 2.4070	 7.0220
 2.4080	 6.9970
 2.4090	 6.9780
 2.4100	 6.9460
 2.4110	 6.9120
 2.4120	 6.8920
 2.4130	 6.8690
 2.4140	 6.8390
 2.4150	 6.8190
 2.4160	 6.8010
 2.4170	 6.7740
 2.4180	 6.7520
 2.4190	 6.7250
 2.4200	 6.6940
 2.4210	 6.6710
 2.4220	 6.6490
 2.4230	 6.6390
 2.4240	 6.6280
 2.4250	 6.6130
 2.4260	 6.6020
 2.4270	 6.5710
 2.4280	 6.5340
 2.4290	 6.4990
 2.4300	 6.4560
 2.4310	 6.4220
 2.4320	 6.3940
 2.4330	 6.3550
 2.4340	 6.3260
 2.4350	 6.3060
 2.4360	 6.2780
 2.4370	 6.2500
 2.4380	 6.2220
 2.4390	 6.2020
 2.4400	 6.1820
 2.4410	 6.1630
 2.4420	 6.1440
 2.4430	 6.1130
 2.4440	 6.0820
 2.4450	 6.0630
 2.4460	 6.0520
 2.4470	 6.0290
 2.4480	 6.0000
 2.4490	 5.9700
 2.4500	 5.9380
 2.4510	 5.9070
 2.4520	 5.8980
 2.4530	 5.8950
 2.4540	 5.8770
 2.4550	 5.8760
 2.4560	 5.8650
 2.4570	 5.8360
 2.4580	 5.8280
 2.4590	 5.8050
 2.4600	 5.7750
 2.4610	 5.7540
 2.4620	 5.7330
 2.4630	 5.7250
 2.4640	 5.7180
 2.4650	 5.7150
 2.4660	 5.6920
 2.4670	 5.6480
 2.4680	 5.6120
 2.4690	 5.5720
 2.4700	 5.5560
 2.4710	 5.5600
 2.4720	 5.5510
 2.4730	 5.5510
 2.4740	 5.5370
 2.4750	 5.5080
 2.4760	 5.5050
 2.4770	 5.5180
 2.4780	 5.5220
 2.4790	 5.5320
 2.4800	 5.5230
 2.4810	 5.5000
 2.4820	 5.4760
 2.4830	 5.4480
 2.4840	 5.4340
 2.4850	 5.3880
 2.4860	 5.3530
 2.4870	 5.3550
 2.4880	 5.3590
 2.4890	 5.3640
 2.4900	 5.3580
 2.4910	 5.3550
 2.4920	 5.3520
 2.4930	 5.3770
 2.4940	 5.4170
 2.4950	 5.4490
 2.4960	 5.4640
 2.4970	 5.4470
 2.4980	 5.4320
 2.4990	 5.3750
 2.5000	 5.3030
