Name: Pinus ponderosa 3
Type: vegetation
Class: Tree
Genus: Pinus
Species: ponderosa
Sample No.: VH068
Owner: UCSB
Wavelength Range: VSWIR
Origin: 37.043; -119.3048; WGS84
Collection Date: 4/20/2013
Description: Samples were collected as part of the HyspIRI Airborne Campaign. 48 individual plants were sampled in three times in 2013 - spring  summer  and fall. The name of the sample includes a 1  2  or 3 which references a different individual of the species. Samples were taken to JPL and processed within 48 hours of collection. The same leaves were processed in the Nicolet and then measured using the ASD.
Measurement: Bidirectional reflectance
First Column: X
Second Column: Y
X Units: Wavelength (micrometers)
Y Units: Reflectance (percentage)
First X Value: 0.35
Last X Value: 2.5
Number of X Values: 2151
Additional Information: vegetation.tree.pinus.ponderosa.vswir.vh068.ucsb.asd.ancillary.txt

 0.3500	 5.8860
 0.3510	 6.0770
 0.3520	 5.9590
 0.3530	 5.8010
 0.3540	 5.8540
 0.3550	 5.8350
 0.3560	 5.8340
 0.3570	 5.8450
 0.3580	 5.8140
 0.3590	 5.7610
 0.3600	 5.7080
 0.3610	 5.6910
 0.3620	 5.7680
 0.3630	 5.7450
 0.3640	 5.6920
 0.3650	 5.6950
 0.3660	 5.5910
 0.3670	 5.5270
 0.3680	 5.5380
 0.3690	 5.5780
 0.3700	 5.5800
 0.3710	 5.5730
 0.3720	 5.5950
 0.3730	 5.6920
 0.3740	 5.6390
 0.3750	 5.4950
 0.3760	 5.4120
 0.3770	 5.4780
 0.3780	 5.4730
 0.3790	 5.4060
 0.3800	 5.4760
 0.3810	 5.4400
 0.3820	 5.3750
 0.3830	 5.3710
 0.3840	 5.4450
 0.3850	 5.4620
 0.3860	 5.4700
 0.3870	 5.5440
 0.3880	 5.4510
 0.3890	 5.3720
 0.3900	 5.3900
 0.3910	 5.4560
 0.3920	 5.4290
 0.3930	 5.3950
 0.3940	 5.4300
 0.3950	 5.4540
 0.3960	 5.4500
 0.3970	 5.4360
 0.3980	 5.4420
 0.3990	 5.4460
 0.4000	 5.4570
 0.4010	 5.4720
 0.4020	 5.4550
 0.4030	 5.4730
 0.4040	 5.4870
 0.4050	 5.4680
 0.4060	 5.4990
 0.4070	 5.5350
 0.4080	 5.5640
 0.4090	 5.5970
 0.4100	 5.6290
 0.4110	 5.6500
 0.4120	 5.6650
 0.4130	 5.7150
 0.4140	 5.7650
 0.4150	 5.8170
 0.4160	 5.8780
 0.4170	 5.9290
 0.4180	 5.9820
 0.4190	 6.0480
 0.4200	 6.1330
 0.4210	 6.1950
 0.4220	 6.2510
 0.4230	 6.3200
 0.4240	 6.3930
 0.4250	 6.4630
 0.4260	 6.5300
 0.4270	 6.6030
 0.4280	 6.6740
 0.4290	 6.7480
 0.4300	 6.8160
 0.4310	 6.8480
 0.4320	 6.9000
 0.4330	 6.9680
 0.4340	 7.0320
 0.4350	 7.0710
 0.4360	 7.1120
 0.4370	 7.1590
 0.4380	 7.2030
 0.4390	 7.2660
 0.4400	 7.3280
 0.4410	 7.3750
 0.4420	 7.4230
 0.4430	 7.4640
 0.4440	 7.5010
 0.4450	 7.5360
 0.4460	 7.5620
 0.4470	 7.5990
 0.4480	 7.6460
 0.4490	 7.6750
 0.4500	 7.7090
 0.4510	 7.7390
 0.4520	 7.7580
 0.4530	 7.7930
 0.4540	 7.8290
 0.4550	 7.8540
 0.4560	 7.8590
 0.4570	 7.8860
 0.4580	 7.9120
 0.4590	 7.9220
 0.4600	 7.9350
 0.4610	 7.9490
 0.4620	 7.9660
 0.4630	 7.9850
 0.4640	 7.9980
 0.4650	 8.0160
 0.4660	 8.0340
 0.4670	 8.0310
 0.4680	 8.0490
 0.4690	 8.0700
 0.4700	 8.0760
 0.4710	 8.0830
 0.4720	 8.0860
 0.4730	 8.0910
 0.4740	 8.1070
 0.4750	 8.1120
 0.4760	 8.1150
 0.4770	 8.1190
 0.4780	 8.1200
 0.4790	 8.1220
 0.4800	 8.1310
 0.4810	 8.1450
 0.4820	 8.1320
 0.4830	 8.1320
 0.4840	 8.1480
 0.4850	 8.1490
 0.4860	 8.1510
 0.4870	 8.1540
 0.4880	 8.1590
 0.4890	 8.1720
 0.4900	 8.1970
 0.4910	 8.2250
 0.4920	 8.2410
 0.4930	 8.2700
 0.4940	 8.2920
 0.4950	 8.3070
 0.4960	 8.3410
 0.4970	 8.3750
 0.4980	 8.4170
 0.4990	 8.4720
 0.5000	 8.5180
 0.5010	 8.5700
 0.5020	 8.6300
 0.5030	 8.6930
 0.5040	 8.7690
 0.5050	 8.8500
 0.5060	 8.9300
 0.5070	 9.0210
 0.5080	 9.1240
 0.5090	 9.2340
 0.5100	 9.3420
 0.5110	 9.4680
 0.5120	 9.6090
 0.5130	 9.7580
 0.5140	 9.9110
 0.5150	10.0720
 0.5160	10.2450
 0.5170	10.4300
 0.5180	10.6200
 0.5190	10.8190
 0.5200	11.0260
 0.5210	11.2300
 0.5220	11.4390
 0.5230	11.6480
 0.5240	11.8520
 0.5250	12.0510
 0.5260	12.2440
 0.5270	12.4320
 0.5280	12.6180
 0.5290	12.7860
 0.5300	12.9440
 0.5310	13.0960
 0.5320	13.2380
 0.5330	13.3670
 0.5340	13.4840
 0.5350	13.5910
 0.5360	13.6920
 0.5370	13.7820
 0.5380	13.8650
 0.5390	13.9450
 0.5400	14.0010
 0.5410	14.0450
 0.5420	14.0890
 0.5430	14.1390
 0.5440	14.1910
 0.5450	14.2470
 0.5460	14.3070
 0.5470	14.3890
 0.5480	14.4650
 0.5490	14.5220
 0.5500	14.5650
 0.5510	14.6000
 0.5520	14.6230
 0.5530	14.6300
 0.5540	14.6310
 0.5550	14.6150
 0.5560	14.5800
 0.5570	14.5300
 0.5580	14.4650
 0.5590	14.3880
 0.5600	14.3020
 0.5610	14.2120
 0.5620	14.1170
 0.5630	14.0150
 0.5640	13.9080
 0.5650	13.8000
 0.5660	13.6870
 0.5670	13.5680
 0.5680	13.4440
 0.5690	13.3140
 0.5700	13.1780
 0.5710	13.0400
 0.5720	12.9060
 0.5730	12.7790
 0.5740	12.6570
 0.5750	12.5410
 0.5760	12.4290
 0.5770	12.3270
 0.5780	12.2370
 0.5790	12.1590
 0.5800	12.0840
 0.5810	12.0150
 0.5820	11.9540
 0.5830	11.8860
 0.5840	11.8210
 0.5850	11.7650
 0.5860	11.7170
 0.5870	11.6680
 0.5880	11.6200
 0.5890	11.5730
 0.5900	11.5260
 0.5910	11.4860
 0.5920	11.4500
 0.5930	11.4160
 0.5940	11.3890
 0.5950	11.3660
 0.5960	11.3460
 0.5970	11.3270
 0.5980	11.3120
 0.5990	11.2920
 0.6000	11.2640
 0.6010	11.2400
 0.6020	11.2120
 0.6030	11.1750
 0.6040	11.1320
 0.6050	11.0780
 0.6060	11.0160
 0.6070	10.9500
 0.6080	10.8850
 0.6090	10.8100
 0.6100	10.7210
 0.6110	10.6230
 0.6120	10.5540
 0.6130	10.5020
 0.6140	10.4510
 0.6150	10.3930
 0.6160	10.3350
 0.6170	10.2830
 0.6180	10.2380
 0.6190	10.1870
 0.6200	10.1420
 0.6210	10.1070
 0.6220	10.0780
 0.6230	10.0510
 0.6240	10.0290
 0.6250	10.0130
 0.6260	10.0040
 0.6270	 9.9930
 0.6280	 9.9840
 0.6290	 9.9830
 0.6300	 9.9760
 0.6310	 9.9720
 0.6320	 9.9730
 0.6330	 9.9680
 0.6340	 9.9550
 0.6350	 9.9320
 0.6360	 9.9020
 0.6370	 9.8620
 0.6380	 9.8210
 0.6390	 9.7770
 0.6400	 9.7250
 0.6410	 9.6650
 0.6420	 9.6010
 0.6430	 9.5370
 0.6440	 9.4710
 0.6450	 9.4010
 0.6460	 9.3300
 0.6470	 9.2650
 0.6480	 9.2060
 0.6490	 9.1500
 0.6500	 9.0980
 0.6510	 9.0610
 0.6520	 9.0220
 0.6530	 8.9810
 0.6540	 8.9400
 0.6550	 8.8970
 0.6560	 8.8510
 0.6570	 8.7990
 0.6580	 8.7400
 0.6590	 8.6780
 0.6600	 8.6150
 0.6610	 8.5510
 0.6620	 8.4870
 0.6630	 8.4280
 0.6640	 8.3720
 0.6650	 8.3200
 0.6660	 8.2790
 0.6670	 8.2420
 0.6680	 8.2100
 0.6690	 8.1860
 0.6700	 8.1660
 0.6710	 8.1550
 0.6720	 8.1510
 0.6730	 8.1440
 0.6740	 8.1450
 0.6750	 8.1520
 0.6760	 8.1620
 0.6770	 8.1770
 0.6780	 8.1990
 0.6790	 8.2270
 0.6800	 8.2560
 0.6810	 8.2950
 0.6820	 8.3480
 0.6830	 8.4160
 0.6840	 8.4920
 0.6850	 8.5880
 0.6860	 8.7100
 0.6870	 8.8630
 0.6880	 9.0500
 0.6890	 9.2750
 0.6900	 9.5450
 0.6910	 9.8720
 0.6920	10.2550
 0.6930	10.6980
 0.6940	11.2030
 0.6950	11.7630
 0.6960	12.3770
 0.6970	13.0460
 0.6980	13.7680
 0.6990	14.5330
 0.7000	15.3330
 0.7010	16.1660
 0.7020	17.0370
 0.7030	17.9300
 0.7040	18.8440
 0.7050	19.7740
 0.7060	20.7230
 0.7070	21.6850
 0.7080	22.6610
 0.7090	23.6580
 0.7100	24.6710
 0.7110	25.7020
 0.7120	26.7520
 0.7130	27.8200
 0.7140	28.9030
 0.7150	30.0060
 0.7160	31.1280
 0.7170	32.2550
 0.7180	33.4050
 0.7190	34.5740
 0.7200	35.7510
 0.7210	36.9430
 0.7220	38.1400
 0.7230	39.3390
 0.7240	40.5400
 0.7250	41.7430
 0.7260	42.9360
 0.7270	44.1170
 0.7280	45.2920
 0.7290	46.4480
 0.7300	47.5790
 0.7310	48.6880
 0.7320	49.7790
 0.7330	50.8420
 0.7340	51.8730
 0.7350	52.8800
 0.7360	53.8530
 0.7370	54.7930
 0.7380	55.6980
 0.7390	56.5680
 0.7400	57.4050
 0.7410	58.2050
 0.7420	58.9600
 0.7430	59.6820
 0.7440	60.3710
 0.7450	61.0220
 0.7460	61.6280
 0.7470	62.2010
 0.7480	62.7420
 0.7490	63.2460
 0.7500	63.7090
 0.7510	64.1400
 0.7520	64.5390
 0.7530	64.9030
 0.7540	65.2470
 0.7550	65.5650
 0.7560	65.8530
 0.7570	66.1090
 0.7580	66.3480
 0.7590	66.5670
 0.7600	66.7670
 0.7610	66.9560
 0.7620	67.1310
 0.7630	67.2860
 0.7640	67.4170
 0.7650	67.5500
 0.7660	67.6760
 0.7670	67.7870
 0.7680	67.8800
 0.7690	67.9780
 0.7700	68.0660
 0.7710	68.1390
 0.7720	68.2180
 0.7730	68.2850
 0.7740	68.3460
 0.7750	68.4090
 0.7760	68.4640
 0.7770	68.5190
 0.7780	68.5760
 0.7790	68.6270
 0.7800	68.6740
 0.7810	68.7150
 0.7820	68.7540
 0.7830	68.8020
 0.7840	68.8440
 0.7850	68.8830
 0.7860	68.9230
 0.7870	68.9610
 0.7880	68.9990
 0.7890	69.0330
 0.7900	69.0610
 0.7910	69.0910
 0.7920	69.1280
 0.7930	69.1640
 0.7940	69.1850
 0.7950	69.2130
 0.7960	69.2460
 0.7970	69.2780
 0.7980	69.3060
 0.7990	69.3320
 0.8000	69.3630
 0.8010	69.3980
 0.8020	69.4150
 0.8030	69.4410
 0.8040	69.4730
 0.8050	69.4990
 0.8060	69.5340
 0.8070	69.5580
 0.8080	69.5730
 0.8090	69.5950
 0.8100	69.6210
 0.8110	69.6520
 0.8120	69.6860
 0.8130	69.7110
 0.8140	69.7290
 0.8150	69.7510
 0.8160	69.7850
 0.8170	69.8130
 0.8180	69.8420
 0.8190	69.8730
 0.8200	69.9020
 0.8210	69.9200
 0.8220	69.9420
 0.8230	69.9730
 0.8240	70.0070
 0.8250	70.0290
 0.8260	70.0470
 0.8270	70.0660
 0.8280	70.0790
 0.8290	70.0990
 0.8300	70.1220
 0.8310	70.1420
 0.8320	70.1600
 0.8330	70.1780
 0.8340	70.1960
 0.8350	70.2160
 0.8360	70.2300
 0.8370	70.2600
 0.8380	70.3030
 0.8390	70.3340
 0.8400	70.3680
 0.8410	70.4010
 0.8420	70.4310
 0.8430	70.4690
 0.8440	70.5100
 0.8450	70.5490
 0.8460	70.5830
 0.8470	70.6180
 0.8480	70.6470
 0.8490	70.6760
 0.8500	70.7130
 0.8510	70.7400
 0.8520	70.7680
 0.8530	70.7990
 0.8540	70.8240
 0.8550	70.8500
 0.8560	70.8800
 0.8570	70.9120
 0.8580	70.9400
 0.8590	70.9540
 0.8600	70.9680
 0.8610	70.9960
 0.8620	71.0330
 0.8630	71.0600
 0.8640	71.0760
 0.8650	71.0900
 0.8660	71.1070
 0.8670	71.1290
 0.8680	71.1480
 0.8690	71.1580
 0.8700	71.1680
 0.8710	71.1800
 0.8720	71.1880
 0.8730	71.1940
 0.8740	71.2130
 0.8750	71.2240
 0.8760	71.2290
 0.8770	71.2500
 0.8780	71.2560
 0.8790	71.2510
 0.8800	71.2490
 0.8810	71.2640
 0.8820	71.2640
 0.8830	71.2600
 0.8840	71.2640
 0.8850	71.2650
 0.8860	71.2550
 0.8870	71.2380
 0.8880	71.2250
 0.8890	71.2240
 0.8900	71.2090
 0.8910	71.1850
 0.8920	71.1690
 0.8930	71.1590
 0.8940	71.1480
 0.8950	71.1370
 0.8960	71.1350
 0.8970	71.1160
 0.8980	71.0870
 0.8990	71.0610
 0.9000	71.0500
 0.9010	71.0330
 0.9020	71.0140
 0.9030	70.9940
 0.9040	70.9690
 0.9050	70.9440
 0.9060	70.9170
 0.9070	70.8880
 0.9080	70.8580
 0.9090	70.8350
 0.9100	70.8140
 0.9110	70.7920
 0.9120	70.7780
 0.9130	70.7540
 0.9140	70.7270
 0.9150	70.7020
 0.9160	70.6700
 0.9170	70.6360
 0.9180	70.6050
 0.9190	70.5780
 0.9200	70.5420
 0.9210	70.5060
 0.9220	70.4710
 0.9230	70.4250
 0.9240	70.3710
 0.9250	70.3250
 0.9260	70.2820
 0.9270	70.2210
 0.9280	70.1370
 0.9290	70.0690
 0.9300	70.0120
 0.9310	69.9250
 0.9320	69.8270
 0.9330	69.7270
 0.9340	69.6370
 0.9350	69.5710
 0.9360	69.4730
 0.9370	69.3650
 0.9380	69.2620
 0.9390	69.1510
 0.9400	69.0290
 0.9410	68.9200
 0.9420	68.8180
 0.9430	68.6560
 0.9440	68.4930
 0.9450	68.3410
 0.9460	68.1850
 0.9470	67.9940
 0.9480	67.8020
 0.9490	67.5940
 0.9500	67.3610
 0.9510	67.1390
 0.9520	66.9030
 0.9530	66.6470
 0.9540	66.3800
 0.9550	66.1380
 0.9560	65.8770
 0.9570	65.6240
 0.9580	65.4100
 0.9590	65.2030
 0.9600	64.9950
 0.9610	64.8080
 0.9620	64.6640
 0.9630	64.5280
 0.9640	64.3920
 0.9650	64.2700
 0.9660	64.1700
 0.9670	64.0620
 0.9680	63.9740
 0.9690	63.9130
 0.9700	63.8640
 0.9710	63.7950
 0.9720	63.7360
 0.9730	63.6850
 0.9740	63.6330
 0.9750	63.6100
 0.9760	63.5770
 0.9770	63.5410
 0.9780	63.5280
 0.9790	63.5200
 0.9800	63.5140
 0.9810	63.5080
 0.9820	63.5060
 0.9830	63.5260
 0.9840	63.5510
 0.9850	63.5820
 0.9860	63.6230
 0.9870	63.6630
 0.9880	63.6890
 0.9890	63.7220
 0.9900	63.7910
 0.9910	63.8770
 0.9920	64.0110
 0.9930	64.1450
 0.9940	64.2800
 0.9950	64.4140
 0.9960	64.5480
 0.9970	64.6820
 0.9980	64.8160
 0.9990	64.9510
 1.0000	65.0850
 1.0010	65.2190
 1.0020	65.3530
 1.0030	65.4880
 1.0040	65.6220
 1.0050	65.7560
 1.0060	65.8900
 1.0070	66.0240
 1.0080	66.1590
 1.0090	66.2930
 1.0100	66.2930
 1.0110	66.3910
 1.0120	66.4970
 1.0130	66.6040
 1.0140	66.7130
 1.0150	66.8270
 1.0160	66.9450
 1.0170	67.0560
 1.0180	67.1660
 1.0190	67.2790
 1.0200	67.3910
 1.0210	67.4990
 1.0220	67.6100
 1.0230	67.7220
 1.0240	67.8350
 1.0250	67.9460
 1.0260	68.0600
 1.0270	68.1690
 1.0280	68.2730
 1.0290	68.3810
 1.0300	68.4920
 1.0310	68.5940
 1.0320	68.6970
 1.0330	68.7910
 1.0340	68.8810
 1.0350	68.9760
 1.0360	69.0690
 1.0370	69.1630
 1.0380	69.2530
 1.0390	69.3410
 1.0400	69.4290
 1.0410	69.5180
 1.0420	69.6060
 1.0430	69.6970
 1.0440	69.7800
 1.0450	69.8610
 1.0460	69.9360
 1.0470	69.9980
 1.0480	70.0660
 1.0490	70.1320
 1.0500	70.2000
 1.0510	70.2730
 1.0520	70.3430
 1.0530	70.4100
 1.0540	70.4760
 1.0550	70.5360
 1.0560	70.5920
 1.0570	70.6440
 1.0580	70.6900
 1.0590	70.7380
 1.0600	70.7800
 1.0610	70.8260
 1.0620	70.8770
 1.0630	70.9200
 1.0640	70.9640
 1.0650	71.0020
 1.0660	71.0330
 1.0670	71.0630
 1.0680	71.0910
 1.0690	71.1160
 1.0700	71.1410
 1.0710	71.1660
 1.0720	71.1850
 1.0730	71.2010
 1.0740	71.2140
 1.0750	71.2220
 1.0760	71.2300
 1.0770	71.2380
 1.0780	71.2440
 1.0790	71.2480
 1.0800	71.2510
 1.0810	71.2570
 1.0820	71.2520
 1.0830	71.2410
 1.0840	71.2270
 1.0850	71.2020
 1.0860	71.1810
 1.0870	71.1610
 1.0880	71.1430
 1.0890	71.1180
 1.0900	71.0930
 1.0910	71.0600
 1.0920	71.0200
 1.0930	70.9790
 1.0940	70.9350
 1.0950	70.8900
 1.0960	70.8450
 1.0970	70.7960
 1.0980	70.7450
 1.0990	70.6920
 1.1000	70.6400
 1.1010	70.5840
 1.1020	70.5240
 1.1030	70.4650
 1.1040	70.4030
 1.1050	70.3370
 1.1060	70.2670
 1.1070	70.1920
 1.1080	70.1170
 1.1090	70.0370
 1.1100	69.9570
 1.1110	69.8840
 1.1120	69.7980
 1.1130	69.7070
 1.1140	69.6100
 1.1150	69.5050
 1.1160	69.3950
 1.1170	69.2830
 1.1180	69.1590
 1.1190	69.0300
 1.1200	68.8890
 1.1210	68.7330
 1.1220	68.5590
 1.1230	68.3710
 1.1240	68.1660
 1.1250	67.9410
 1.1260	67.7020
 1.1270	67.4370
 1.1280	67.1510
 1.1290	66.8460
 1.1300	66.5250
 1.1310	66.1770
 1.1320	65.8090
 1.1330	65.4170
 1.1340	64.9950
 1.1350	64.5600
 1.1360	64.1070
 1.1370	63.6360
 1.1380	63.1550
 1.1390	62.6690
 1.1400	62.1690
 1.1410	61.6710
 1.1420	61.1740
 1.1430	60.6740
 1.1440	60.1890
 1.1450	59.7060
 1.1460	59.2390
 1.1470	58.7770
 1.1480	58.3410
 1.1490	57.9180
 1.1500	57.5210
 1.1510	57.1450
 1.1520	56.7910
 1.1530	56.4560
 1.1540	56.1470
 1.1550	55.8610
 1.1560	55.5950
 1.1570	55.3530
 1.1580	55.1330
 1.1590	54.9280
 1.1600	54.7380
 1.1610	54.5650
 1.1620	54.4050
 1.1630	54.2610
 1.1640	54.1310
 1.1650	54.0080
 1.1660	53.8980
 1.1670	53.7920
 1.1680	53.6940
 1.1690	53.6000
 1.1700	53.5140
 1.1710	53.4280
 1.1720	53.3470
 1.1730	53.2650
 1.1740	53.1840
 1.1750	53.1080
 1.1760	53.0310
 1.1770	52.9520
 1.1780	52.8690
 1.1790	52.7830
 1.1800	52.6950
 1.1810	52.6060
 1.1820	52.5170
 1.1830	52.4310
 1.1840	52.3490
 1.1850	52.2650
 1.1860	52.1840
 1.1870	52.1050
 1.1880	52.0310
 1.1890	51.9570
 1.1900	51.8930
 1.1910	51.8380
 1.1920	51.7850
 1.1930	51.7350
 1.1940	51.6940
 1.1950	51.6590
 1.1960	51.6280
 1.1970	51.6060
 1.1980	51.5920
 1.1990	51.5800
 1.2000	51.5750
 1.2010	51.5740
 1.2020	51.5790
 1.2030	51.5900
 1.2040	51.6080
 1.2050	51.6340
 1.2060	51.6620
 1.2070	51.6960
 1.2080	51.7350
 1.2090	51.7790
 1.2100	51.8320
 1.2110	51.8910
 1.2120	51.9590
 1.2130	52.0290
 1.2140	52.1010
 1.2150	52.1810
 1.2160	52.2680
 1.2170	52.3580
 1.2180	52.4560
 1.2190	52.5580
 1.2200	52.6580
 1.2210	52.7650
 1.2220	52.8710
 1.2230	52.9760
 1.2240	53.0840
 1.2250	53.1870
 1.2260	53.2900
 1.2270	53.3970
 1.2280	53.5000
 1.2290	53.6050
 1.2300	53.7070
 1.2310	53.8040
 1.2320	53.8990
 1.2330	53.9910
 1.2340	54.0800
 1.2350	54.1650
 1.2360	54.2490
 1.2370	54.3330
 1.2380	54.4150
 1.2390	54.4930
 1.2400	54.5710
 1.2410	54.6450
 1.2420	54.7140
 1.2430	54.7830
 1.2440	54.8520
 1.2450	54.9180
 1.2460	54.9820
 1.2470	55.0440
 1.2480	55.1030
 1.2490	55.1590
 1.2500	55.2120
 1.2510	55.2660
 1.2520	55.3180
 1.2530	55.3700
 1.2540	55.4190
 1.2550	55.4650
 1.2560	55.5090
 1.2570	55.5490
 1.2580	55.5870
 1.2590	55.6220
 1.2600	55.6540
 1.2610	55.6830
 1.2620	55.7090
 1.2630	55.7320
 1.2640	55.7540
 1.2650	55.7720
 1.2660	55.7870
 1.2670	55.8020
 1.2680	55.8110
 1.2690	55.8170
 1.2700	55.8200
 1.2710	55.8210
 1.2720	55.8190
 1.2730	55.8160
 1.2740	55.8100
 1.2750	55.7990
 1.2760	55.7850
 1.2770	55.7690
 1.2780	55.7510
 1.2790	55.7300
 1.2800	55.7040
 1.2810	55.6740
 1.2820	55.6420
 1.2830	55.6020
 1.2840	55.5560
 1.2850	55.5080
 1.2860	55.4550
 1.2870	55.3970
 1.2880	55.3360
 1.2890	55.2730
 1.2900	55.2010
 1.2910	55.1250
 1.2920	55.0470
 1.2930	54.9640
 1.2940	54.8750
 1.2950	54.7780
 1.2960	54.6730
 1.2970	54.5610
 1.2980	54.4460
 1.2990	54.3250
 1.3000	54.1990
 1.3010	54.0670
 1.3020	53.9270
 1.3030	53.7790
 1.3040	53.6200
 1.3050	53.4560
 1.3060	53.2870
 1.3070	53.1120
 1.3080	52.9330
 1.3090	52.7450
 1.3100	52.5500
 1.3110	52.3470
 1.3120	52.1360
 1.3130	51.9200
 1.3140	51.6950
 1.3150	51.4610
 1.3160	51.2220
 1.3170	50.9790
 1.3180	50.7290
 1.3190	50.4720
 1.3200	50.2130
 1.3210	49.9470
 1.3220	49.6750
 1.3230	49.3990
 1.3240	49.1160
 1.3250	48.8330
 1.3260	48.5480
 1.3270	48.2580
 1.3280	47.9650
 1.3290	47.6670
 1.3300	47.3680
 1.3310	47.0690
 1.3320	46.7680
 1.3330	46.4700
 1.3340	46.1710
 1.3350	45.8750
 1.3360	45.5800
 1.3370	45.2850
 1.3380	44.9910
 1.3390	44.7000
 1.3400	44.4130
 1.3410	44.1350
 1.3420	43.8610
 1.3430	43.5920
 1.3440	43.3270
 1.3450	43.0680
 1.3460	42.8110
 1.3470	42.5630
 1.3480	42.3190
 1.3490	42.0810
 1.3500	41.8470
 1.3510	41.6180
 1.3520	41.3920
 1.3530	41.1710
 1.3540	40.9530
 1.3550	40.7370
 1.3560	40.5210
 1.3570	40.3050
 1.3580	40.0910
 1.3590	39.8730
 1.3600	39.6510
 1.3610	39.4260
 1.3620	39.1940
 1.3630	38.9590
 1.3640	38.7170
 1.3650	38.4650
 1.3660	38.2080
 1.3670	37.9420
 1.3680	37.6640
 1.3690	37.3750
 1.3700	37.0690
 1.3710	36.7460
 1.3720	36.4080
 1.3730	36.0510
 1.3740	35.6810
 1.3750	35.2930
 1.3760	34.8820
 1.3770	34.4490
 1.3780	33.9900
 1.3790	33.5070
 1.3800	33.0040
 1.3810	32.4760
 1.3820	31.9340
 1.3830	31.3730
 1.3840	30.7990
 1.3850	30.2050
 1.3860	29.6070
 1.3870	28.9900
 1.3880	28.3800
 1.3890	27.7620
 1.3900	27.1440
 1.3910	26.5360
 1.3920	25.9290
 1.3930	25.3270
 1.3940	24.7370
 1.3950	24.1540
 1.3960	23.5880
 1.3970	23.0400
 1.3980	22.5070
 1.3990	22.0000
 1.4000	21.5110
 1.4010	21.0400
 1.4020	20.5920
 1.4030	20.1610
 1.4040	19.7510
 1.4050	19.3630
 1.4060	18.9940
 1.4070	18.6490
 1.4080	18.3230
 1.4090	18.0150
 1.4100	17.7260
 1.4110	17.4520
 1.4120	17.1960
 1.4130	16.9560
 1.4140	16.7300
 1.4150	16.5220
 1.4160	16.3260
 1.4170	16.1420
 1.4180	15.9710
 1.4190	15.8120
 1.4200	15.6620
 1.4210	15.5230
 1.4220	15.3920
 1.4230	15.2720
 1.4240	15.1590
 1.4250	15.0540
 1.4260	14.9590
 1.4270	14.8680
 1.4280	14.7850
 1.4290	14.7070
 1.4300	14.6340
 1.4310	14.5680
 1.4320	14.5090
 1.4330	14.4540
 1.4340	14.4050
 1.4350	14.3590
 1.4360	14.3180
 1.4370	14.2800
 1.4380	14.2470
 1.4390	14.2170
 1.4400	14.1910
 1.4410	14.1690
 1.4420	14.1480
 1.4430	14.1310
 1.4440	14.1170
 1.4450	14.1050
 1.4460	14.0950
 1.4470	14.0870
 1.4480	14.0810
 1.4490	14.0780
 1.4500	14.0750
 1.4510	14.0750
 1.4520	14.0770
 1.4530	14.0800
 1.4540	14.0850
 1.4550	14.0920
 1.4560	14.1000
 1.4570	14.1100
 1.4580	14.1230
 1.4590	14.1390
 1.4600	14.1570
 1.4610	14.1780
 1.4620	14.2000
 1.4630	14.2260
 1.4640	14.2560
 1.4650	14.2900
 1.4660	14.3270
 1.4670	14.3660
 1.4680	14.4090
 1.4690	14.4550
 1.4700	14.5050
 1.4710	14.5590
 1.4720	14.6150
 1.4730	14.6740
 1.4740	14.7360
 1.4750	14.8000
 1.4760	14.8670
 1.4770	14.9370
 1.4780	15.0080
 1.4790	15.0810
 1.4800	15.1550
 1.4810	15.2320
 1.4820	15.3100
 1.4830	15.3900
 1.4840	15.4730
 1.4850	15.5560
 1.4860	15.6400
 1.4870	15.7250
 1.4880	15.8110
 1.4890	15.8990
 1.4900	15.9870
 1.4910	16.0770
 1.4920	16.1670
 1.4930	16.2590
 1.4940	16.3500
 1.4950	16.4430
 1.4960	16.5360
 1.4970	16.6300
 1.4980	16.7240
 1.4990	16.8210
 1.5000	16.9160
 1.5010	17.0120
 1.5020	17.1080
 1.5030	17.2030
 1.5040	17.2990
 1.5050	17.3950
 1.5060	17.4920
 1.5070	17.5900
 1.5080	17.6880
 1.5090	17.7880
 1.5100	17.8870
 1.5110	17.9840
 1.5120	18.0820
 1.5130	18.1800
 1.5140	18.2780
 1.5150	18.3770
 1.5160	18.4740
 1.5170	18.5710
 1.5180	18.6670
 1.5190	18.7620
 1.5200	18.8580
 1.5210	18.9520
 1.5220	19.0450
 1.5230	19.1380
 1.5240	19.2300
 1.5250	19.3230
 1.5260	19.4160
 1.5270	19.5070
 1.5280	19.5980
 1.5290	19.6870
 1.5300	19.7760
 1.5310	19.8650
 1.5320	19.9530
 1.5330	20.0410
 1.5340	20.1280
 1.5350	20.2140
 1.5360	20.3020
 1.5370	20.3880
 1.5380	20.4760
 1.5390	20.5630
 1.5400	20.6470
 1.5410	20.7320
 1.5420	20.8180
 1.5430	20.9020
 1.5440	20.9870
 1.5450	21.0710
 1.5460	21.1550
 1.5470	21.2390
 1.5480	21.3220
 1.5490	21.4050
 1.5500	21.4860
 1.5510	21.5680
 1.5520	21.6500
 1.5530	21.7300
 1.5540	21.8110
 1.5550	21.8910
 1.5560	21.9700
 1.5570	22.0500
 1.5580	22.1280
 1.5590	22.2050
 1.5600	22.2840
 1.5610	22.3610
 1.5620	22.4360
 1.5630	22.5100
 1.5640	22.5840
 1.5650	22.6580
 1.5660	22.7330
 1.5670	22.8090
 1.5680	22.8820
 1.5690	22.9540
 1.5700	23.0260
 1.5710	23.0980
 1.5720	23.1710
 1.5730	23.2440
 1.5740	23.3170
 1.5750	23.3890
 1.5760	23.4610
 1.5770	23.5310
 1.5780	23.6010
 1.5790	23.6710
 1.5800	23.7420
 1.5810	23.8130
 1.5820	23.8840
 1.5830	23.9540
 1.5840	24.0250
 1.5850	24.0950
 1.5860	24.1650
 1.5870	24.2380
 1.5880	24.3100
 1.5890	24.3820
 1.5900	24.4550
 1.5910	24.5270
 1.5920	24.6000
 1.5930	24.6730
 1.5940	24.7460
 1.5950	24.8200
 1.5960	24.8950
 1.5970	24.9700
 1.5980	25.0450
 1.5990	25.1190
 1.6000	25.1940
 1.6010	25.2670
 1.6020	25.3410
 1.6030	25.4150
 1.6040	25.4890
 1.6050	25.5630
 1.6060	25.6370
 1.6070	25.7120
 1.6080	25.7850
 1.6090	25.8570
 1.6100	25.9280
 1.6110	25.9970
 1.6120	26.0650
 1.6130	26.1340
 1.6140	26.2030
 1.6150	26.2700
 1.6160	26.3360
 1.6170	26.4000
 1.6180	26.4640
 1.6190	26.5260
 1.6200	26.5850
 1.6210	26.6450
 1.6220	26.7020
 1.6230	26.7590
 1.6240	26.8150
 1.6250	26.8670
 1.6260	26.9190
 1.6270	26.9700
 1.6280	27.0180
 1.6290	27.0670
 1.6300	27.1150
 1.6310	27.1630
 1.6320	27.2100
 1.6330	27.2570
 1.6340	27.3050
 1.6350	27.3510
 1.6360	27.3970
 1.6370	27.4410
 1.6380	27.4840
 1.6390	27.5250
 1.6400	27.5660
 1.6410	27.6040
 1.6420	27.6400
 1.6430	27.6750
 1.6440	27.7080
 1.6450	27.7380
 1.6460	27.7650
 1.6470	27.7870
 1.6480	27.8050
 1.6490	27.8210
 1.6500	27.8340
 1.6510	27.8440
 1.6520	27.8530
 1.6530	27.8560
 1.6540	27.8560
 1.6550	27.8540
 1.6560	27.8490
 1.6570	27.8440
 1.6580	27.8390
 1.6590	27.8300
 1.6600	27.8200
 1.6610	27.8060
 1.6620	27.7940
 1.6630	27.7820
 1.6640	27.7700
 1.6650	27.7590
 1.6660	27.7470
 1.6670	27.7360
 1.6680	27.7240
 1.6690	27.7120
 1.6700	27.7010
 1.6710	27.6890
 1.6720	27.6760
 1.6730	27.6620
 1.6740	27.6480
 1.6750	27.6340
 1.6760	27.6190
 1.6770	27.6030
 1.6780	27.5840
 1.6790	27.5630
 1.6800	27.5400
 1.6810	27.5150
 1.6820	27.4870
 1.6830	27.4550
 1.6840	27.4190
 1.6850	27.3810
 1.6860	27.3400
 1.6870	27.2950
 1.6880	27.2480
 1.6890	27.1970
 1.6900	27.1460
 1.6910	27.0930
 1.6920	27.0380
 1.6930	26.9820
 1.6940	26.9250
 1.6950	26.8660
 1.6960	26.8070
 1.6970	26.7470
 1.6980	26.6860
 1.6990	26.6240
 1.7000	26.5630
 1.7010	26.5010
 1.7020	26.4420
 1.7030	26.3830
 1.7040	26.3260
 1.7050	26.2690
 1.7060	26.2140
 1.7070	26.1590
 1.7080	26.1070
 1.7090	26.0560
 1.7100	26.0070
 1.7110	25.9600
 1.7120	25.9120
 1.7130	25.8630
 1.7140	25.8150
 1.7150	25.7660
 1.7160	25.7170
 1.7170	25.6690
 1.7180	25.6200
 1.7190	25.5720
 1.7200	25.5240
 1.7210	25.4760
 1.7220	25.4280
 1.7230	25.3790
 1.7240	25.3310
 1.7250	25.2830
 1.7260	25.2390
 1.7270	25.1980
 1.7280	25.1590
 1.7290	25.1220
 1.7300	25.0900
 1.7310	25.0560
 1.7320	25.0250
 1.7330	24.9940
 1.7340	24.9630
 1.7350	24.9310
 1.7360	24.9010
 1.7370	24.8660
 1.7380	24.8280
 1.7390	24.7870
 1.7400	24.7420
 1.7410	24.6950
 1.7420	24.6440
 1.7430	24.5920
 1.7440	24.5380
 1.7450	24.4810
 1.7460	24.4210
 1.7470	24.3630
 1.7480	24.3030
 1.7490	24.2440
 1.7500	24.1850
 1.7510	24.1260
 1.7520	24.0660
 1.7530	24.0070
 1.7540	23.9470
 1.7550	23.8920
 1.7560	23.8370
 1.7570	23.7830
 1.7580	23.7320
 1.7590	23.6810
 1.7600	23.6320
 1.7610	23.5860
 1.7620	23.5430
 1.7630	23.5030
 1.7640	23.4650
 1.7650	23.4310
 1.7660	23.3980
 1.7670	23.3670
 1.7680	23.3380
 1.7690	23.3110
 1.7700	23.2830
 1.7710	23.2550
 1.7720	23.2290
 1.7730	23.2030
 1.7740	23.1800
 1.7750	23.1610
 1.7760	23.1410
 1.7770	23.1220
 1.7780	23.1040
 1.7790	23.0870
 1.7800	23.0720
 1.7810	23.0590
 1.7820	23.0500
 1.7830	23.0440
 1.7840	23.0390
 1.7850	23.0360
 1.7860	23.0330
 1.7870	23.0290
 1.7880	23.0310
 1.7890	23.0320
 1.7900	23.0360
 1.7910	23.0400
 1.7920	23.0440
 1.7930	23.0500
 1.7940	23.0570
 1.7950	23.0670
 1.7960	23.0800
 1.7970	23.0930
 1.7980	23.1060
 1.7990	23.1200
 1.8000	23.1320
 1.8010	23.1470
 1.8020	23.1650
 1.8030	23.1800
 1.8040	23.1950
 1.8050	23.2100
 1.8060	23.2230
 1.8070	23.2380
 1.8080	23.2540
 1.8090	23.2680
 1.8100	23.2800
 1.8110	23.2960
 1.8120	23.3100
 1.8130	23.3240
 1.8140	23.3360
 1.8150	23.3440
 1.8160	23.3510
 1.8170	23.3600
 1.8180	23.3700
 1.8190	23.3820
 1.8200	23.3920
 1.8210	23.4020
 1.8220	23.4090
 1.8230	23.4130
 1.8240	23.4170
 1.8250	23.4190
 1.8260	23.4210
 1.8270	23.3570
 1.8280	23.2930
 1.8290	23.2280
 1.8300	23.1640
 1.8310	23.1000
 1.8320	23.0360
 1.8330	22.9720
 1.8340	22.9080
 1.8350	22.9080
 1.8360	22.8810
 1.8370	22.8520
 1.8380	22.8190
 1.8390	22.7820
 1.8400	22.7480
 1.8410	22.7020
 1.8420	22.6500
 1.8430	22.5930
 1.8440	22.5230
 1.8450	22.4480
 1.8460	22.3680
 1.8470	22.2770
 1.8480	22.1810
 1.8490	22.0800
 1.8500	21.9700
 1.8510	21.8520
 1.8520	21.7260
 1.8530	21.5890
 1.8540	21.4370
 1.8550	21.2700
 1.8560	21.0950
 1.8570	20.9110
 1.8580	20.7200
 1.8590	20.5150
 1.8600	20.2990
 1.8610	20.0690
 1.8620	19.8250
 1.8630	19.5700
 1.8640	19.3050
 1.8650	19.0270
 1.8660	18.7340
 1.8670	18.4250
 1.8680	18.1040
 1.8690	17.7710
 1.8700	17.4270
 1.8710	17.0720
 1.8720	16.7120
 1.8730	16.3410
 1.8740	15.9620
 1.8750	15.5800
 1.8760	15.1910
 1.8770	14.8020
 1.8780	14.4170
 1.8790	14.0300
 1.8800	13.6500
 1.8810	13.2750
 1.8820	12.8990
 1.8830	12.5270
 1.8840	12.1640
 1.8850	11.8020
 1.8860	11.4510
 1.8870	11.1130
 1.8880	10.7820
 1.8890	10.4680
 1.8900	10.1660
 1.8910	 9.8780
 1.8920	 9.6000
 1.8930	 9.3380
 1.8940	 9.0890
 1.8950	 8.8590
 1.8960	 8.6420
 1.8970	 8.4400
 1.8980	 8.2540
 1.8990	 8.0810
 1.9000	 7.9210
 1.9010	 7.7790
 1.9020	 7.6420
 1.9030	 7.5170
 1.9040	 7.4000
 1.9050	 7.2900
 1.9060	 7.1920
 1.9070	 7.1050
 1.9080	 7.0270
 1.9090	 6.9590
 1.9100	 6.8980
 1.9110	 6.8390
 1.9120	 6.7840
 1.9130	 6.7350
 1.9140	 6.6900
 1.9150	 6.6490
 1.9160	 6.6120
 1.9170	 6.5810
 1.9180	 6.5510
 1.9190	 6.5220
 1.9200	 6.5010
 1.9210	 6.4820
 1.9220	 6.4660
 1.9230	 6.4550
 1.9240	 6.4440
 1.9250	 6.4330
 1.9260	 6.4260
 1.9270	 6.4200
 1.9280	 6.4160
 1.9290	 6.4170
 1.9300	 6.4180
 1.9310	 6.4190
 1.9320	 6.4220
 1.9330	 6.4260
 1.9340	 6.4290
 1.9350	 6.4350
 1.9360	 6.4430
 1.9370	 6.4520
 1.9380	 6.4620
 1.9390	 6.4750
 1.9400	 6.4890
 1.9410	 6.5030
 1.9420	 6.5220
 1.9430	 6.5390
 1.9440	 6.5560
 1.9450	 6.5740
 1.9460	 6.5940
 1.9470	 6.6150
 1.9480	 6.6360
 1.9490	 6.6590
 1.9500	 6.6820
 1.9510	 6.7040
 1.9520	 6.7300
 1.9530	 6.7560
 1.9540	 6.7830
 1.9550	 6.8110
 1.9560	 6.8410
 1.9570	 6.8690
 1.9580	 6.8960
 1.9590	 6.9250
 1.9600	 6.9520
 1.9610	 6.9820
 1.9620	 7.0170
 1.9630	 7.0490
 1.9640	 7.0830
 1.9650	 7.1200
 1.9660	 7.1520
 1.9670	 7.1880
 1.9680	 7.2230
 1.9690	 7.2570
 1.9700	 7.2940
 1.9710	 7.3340
 1.9720	 7.3720
 1.9730	 7.4100
 1.9740	 7.4480
 1.9750	 7.4820
 1.9760	 7.5190
 1.9770	 7.5590
 1.9780	 7.5980
 1.9790	 7.6390
 1.9800	 7.6840
 1.9810	 7.7260
 1.9820	 7.7650
 1.9830	 7.8070
 1.9840	 7.8490
 1.9850	 7.8910
 1.9860	 7.9340
 1.9870	 7.9770
 1.9880	 8.0200
 1.9890	 8.0630
 1.9900	 8.1070
 1.9910	 8.1500
 1.9920	 8.1920
 1.9930	 8.2330
 1.9940	 8.2760
 1.9950	 8.3190
 1.9960	 8.3640
 1.9970	 8.4110
 1.9980	 8.4570
 1.9990	 8.5040
 2.0000	 8.5500
 2.0010	 8.5930
 2.0020	 8.6350
 2.0030	 8.6790
 2.0040	 8.7240
 2.0050	 8.7700
 2.0060	 8.8180
 2.0070	 8.8630
 2.0080	 8.9060
 2.0090	 8.9480
 2.0100	 8.9860
 2.0110	 9.0270
 2.0120	 9.0680
 2.0130	 9.1090
 2.0140	 9.1510
 2.0150	 9.1930
 2.0160	 9.2360
 2.0170	 9.2780
 2.0180	 9.3180
 2.0190	 9.3580
 2.0200	 9.3960
 2.0210	 9.4310
 2.0220	 9.4660
 2.0230	 9.5010
 2.0240	 9.5360
 2.0250	 9.5730
 2.0260	 9.6060
 2.0270	 9.6380
 2.0280	 9.6680
 2.0290	 9.6970
 2.0300	 9.7270
 2.0310	 9.7580
 2.0320	 9.7900
 2.0330	 9.8200
 2.0340	 9.8500
 2.0350	 9.8790
 2.0360	 9.9080
 2.0370	 9.9340
 2.0380	 9.9570
 2.0390	 9.9810
 2.0400	10.0050
 2.0410	10.0280
 2.0420	10.0530
 2.0430	10.0770
 2.0440	10.0980
 2.0450	10.1170
 2.0460	10.1370
 2.0470	10.1560
 2.0480	10.1770
 2.0490	10.2010
 2.0500	10.2210
 2.0510	10.2370
 2.0520	10.2570
 2.0530	10.2750
 2.0540	10.2940
 2.0550	10.3160
 2.0560	10.3370
 2.0570	10.3590
 2.0580	10.3790
 2.0590	10.4010
 2.0600	10.4250
 2.0610	10.4470
 2.0620	10.4690
 2.0630	10.4900
 2.0640	10.5090
 2.0650	10.5310
 2.0660	10.5520
 2.0670	10.5730
 2.0680	10.5950
 2.0690	10.6170
 2.0700	10.6380
 2.0710	10.6580
 2.0720	10.6790
 2.0730	10.7000
 2.0740	10.7190
 2.0750	10.7380
 2.0760	10.7570
 2.0770	10.7760
 2.0780	10.7970
 2.0790	10.8180
 2.0800	10.8400
 2.0810	10.8610
 2.0820	10.8840
 2.0830	10.9070
 2.0840	10.9290
 2.0850	10.9530
 2.0860	10.9750
 2.0870	10.9960
 2.0880	11.0170
 2.0890	11.0400
 2.0900	11.0640
 2.0910	11.0850
 2.0920	11.1070
 2.0930	11.1280
 2.0940	11.1460
 2.0950	11.1670
 2.0960	11.1880
 2.0970	11.2130
 2.0980	11.2430
 2.0990	11.2690
 2.1000	11.2980
 2.1010	11.3230
 2.1020	11.3400
 2.1030	11.3610
 2.1040	11.3830
 2.1050	11.4030
 2.1060	11.4270
 2.1070	11.4520
 2.1080	11.4770
 2.1090	11.5040
 2.1100	11.5290
 2.1110	11.5530
 2.1120	11.5790
 2.1130	11.6050
 2.1140	11.6310
 2.1150	11.6590
 2.1160	11.6850
 2.1170	11.7100
 2.1180	11.7360
 2.1190	11.7610
 2.1200	11.7870
 2.1210	11.8170
 2.1220	11.8440
 2.1230	11.8690
 2.1240	11.8940
 2.1250	11.9190
 2.1260	11.9400
 2.1270	11.9640
 2.1280	11.9910
 2.1290	12.0160
 2.1300	12.0400
 2.1310	12.0630
 2.1320	12.0880
 2.1330	12.1110
 2.1340	12.1320
 2.1350	12.1540
 2.1360	12.1740
 2.1370	12.1960
 2.1380	12.2200
 2.1390	12.2440
 2.1400	12.2680
 2.1410	12.2940
 2.1420	12.3190
 2.1430	12.3440
 2.1440	12.3700
 2.1450	12.3980
 2.1460	12.4210
 2.1470	12.4410
 2.1480	12.4660
 2.1490	12.4910
 2.1500	12.5160
 2.1510	12.5470
 2.1520	12.5730
 2.1530	12.5970
 2.1540	12.6210
 2.1550	12.6430
 2.1560	12.6650
 2.1570	12.6850
 2.1580	12.7060
 2.1590	12.7260
 2.1600	12.7510
 2.1610	12.7780
 2.1620	12.8070
 2.1630	12.8320
 2.1640	12.8580
 2.1650	12.8800
 2.1660	12.8970
 2.1670	12.9190
 2.1680	12.9440
 2.1690	12.9670
 2.1700	12.9930
 2.1710	13.0160
 2.1720	13.0370
 2.1730	13.0590
 2.1740	13.0820
 2.1750	13.1060
 2.1760	13.1300
 2.1770	13.1560
 2.1780	13.1830
 2.1790	13.2080
 2.1800	13.2350
 2.1810	13.2600
 2.1820	13.2800
 2.1830	13.3020
 2.1840	13.3230
 2.1850	13.3440
 2.1860	13.3640
 2.1870	13.3830
 2.1880	13.4030
 2.1890	13.4210
 2.1900	13.4430
 2.1910	13.4710
 2.1920	13.4950
 2.1930	13.5200
 2.1940	13.5430
 2.1950	13.5630
 2.1960	13.5820
 2.1970	13.5980
 2.1980	13.6150
 2.1990	13.6280
 2.2000	13.6440
 2.2010	13.6610
 2.2020	13.6770
 2.2030	13.6930
 2.2040	13.7080
 2.2050	13.7220
 2.2060	13.7370
 2.2070	13.7510
 2.2080	13.7640
 2.2090	13.7790
 2.2100	13.7960
 2.2110	13.8070
 2.2120	13.8190
 2.2130	13.8250
 2.2140	13.8240
 2.2150	13.8280
 2.2160	13.8320
 2.2170	13.8340
 2.2180	13.8370
 2.2190	13.8370
 2.2200	13.8350
 2.2210	13.8300
 2.2220	13.8220
 2.2230	13.8110
 2.2240	13.7940
 2.2250	13.7780
 2.2260	13.7610
 2.2270	13.7440
 2.2280	13.7280
 2.2290	13.7090
 2.2300	13.6910
 2.2310	13.6660
 2.2320	13.6370
 2.2330	13.6060
 2.2340	13.5740
 2.2350	13.5390
 2.2360	13.5010
 2.2370	13.4610
 2.2380	13.4200
 2.2390	13.3720
 2.2400	13.3300
 2.2410	13.2910
 2.2420	13.2450
 2.2430	13.1990
 2.2440	13.1480
 2.2450	13.0930
 2.2460	13.0380
 2.2470	12.9820
 2.2480	12.9230
 2.2490	12.8600
 2.2500	12.7990
 2.2510	12.7360
 2.2520	12.6720
 2.2530	12.6060
 2.2540	12.5410
 2.2550	12.4750
 2.2560	12.4090
 2.2570	12.3460
 2.2580	12.2820
 2.2590	12.2170
 2.2600	12.1510
 2.2610	12.0820
 2.2620	12.0190
 2.2630	11.9580
 2.2640	11.8960
 2.2650	11.8390
 2.2660	11.7830
 2.2670	11.7280
 2.2680	11.6740
 2.2690	11.6220
 2.2700	11.5690
 2.2710	11.5260
 2.2720	11.4880
 2.2730	11.4490
 2.2740	11.4150
 2.2750	11.3830
 2.2760	11.3510
 2.2770	11.3230
 2.2780	11.3010
 2.2790	11.2780
 2.2800	11.2540
 2.2810	11.2330
 2.2820	11.2170
 2.2830	11.1970
 2.2840	11.1780
 2.2850	11.1570
 2.2860	11.1320
 2.2870	11.1100
 2.2880	11.0930
 2.2890	11.0710
 2.2900	11.0530
 2.2910	11.0270
 2.2920	10.9960
 2.2930	10.9650
 2.2940	10.9300
 2.2950	10.8940
 2.2960	10.8580
 2.2970	10.8210
 2.2980	10.7830
 2.2990	10.7450
 2.3000	10.7050
 2.3010	10.6670
 2.3020	10.6270
 2.3030	10.5850
 2.3040	10.5470
 2.3050	10.5120
 2.3060	10.4790
 2.3070	10.4540
 2.3080	10.4260
 2.3090	10.3960
 2.3100	10.3780
 2.3110	10.3620
 2.3120	10.3510
 2.3130	10.3520
 2.3140	10.3440
 2.3150	10.3300
 2.3160	10.3230
 2.3170	10.3190
 2.3180	10.3160
 2.3190	10.3190
 2.3200	10.3160
 2.3210	10.3110
 2.3220	10.3030
 2.3230	10.2930
 2.3240	10.2790
 2.3250	10.2620
 2.3260	10.2420
 2.3270	10.2160
 2.3280	10.1910
 2.3290	10.1610
 2.3300	10.1350
 2.3310	10.1100
 2.3320	10.0870
 2.3330	10.0660
 2.3340	10.0440
 2.3350	10.0240
 2.3360	10.0000
 2.3370	 9.9700
 2.3380	 9.9440
 2.3390	 9.9150
 2.3400	 9.8890
 2.3410	 9.8700
 2.3420	 9.8450
 2.3430	 9.8200
 2.3440	 9.7900
 2.3450	 9.7500
 2.3460	 9.7220
 2.3470	 9.6980
 2.3480	 9.6750
 2.3490	 9.6620
 2.3500	 9.6440
 2.3510	 9.6160
 2.3520	 9.6010
 2.3530	 9.5900
 2.3540	 9.5840
 2.3550	 9.5780
 2.3560	 9.5720
 2.3570	 9.5580
 2.3580	 9.5430
 2.3590	 9.5300
 2.3600	 9.5150
 2.3610	 9.4980
 2.3620	 9.4770
 2.3630	 9.4520
 2.3640	 9.4270
 2.3650	 9.4010
 2.3660	 9.3800
 2.3670	 9.3610
 2.3680	 9.3390
 2.3690	 9.3180
 2.3700	 9.2940
 2.3710	 9.2750
 2.3720	 9.2620
 2.3730	 9.2430
 2.3740	 9.2200
 2.3750	 9.1950
 2.3760	 9.1650
 2.3770	 9.1350
 2.3780	 9.1130
 2.3790	 9.0940
 2.3800	 9.0750
 2.3810	 9.0560
 2.3820	 9.0340
 2.3830	 9.0060
 2.3840	 8.9750
 2.3850	 8.9540
 2.3860	 8.9370
 2.3870	 8.9190
 2.3880	 8.9020
 2.3890	 8.8820
 2.3900	 8.8580
 2.3910	 8.8350
 2.3920	 8.8090
 2.3930	 8.7860
 2.3940	 8.7680
 2.3950	 8.7430
 2.3960	 8.7250
 2.3970	 8.7070
 2.3980	 8.6780
 2.3990	 8.6540
 2.4000	 8.6400
 2.4010	 8.6200
 2.4020	 8.5990
 2.4030	 8.5790
 2.4040	 8.5560
 2.4050	 8.5310
 2.4060	 8.5100
 2.4070	 8.4860
 2.4080	 8.4530
 2.4090	 8.4220
 2.4100	 8.3900
 2.4110	 8.3600
 2.4120	 8.3380
 2.4130	 8.3050
 2.4140	 8.2790
 2.4150	 8.2580
 2.4160	 8.2220
 2.4170	 8.1890
 2.4180	 8.1630
 2.4190	 8.1350
 2.4200	 8.1120
 2.4210	 8.0990
 2.4220	 8.0740
 2.4230	 8.0410
 2.4240	 8.0170
 2.4250	 7.9870
 2.4260	 7.9590
 2.4270	 7.9390
 2.4280	 7.9040
 2.4290	 7.8820
 2.4300	 7.8630
 2.4310	 7.8190
 2.4320	 7.7940
 2.4330	 7.7740
 2.4340	 7.7400
 2.4350	 7.7120
 2.4360	 7.6830
 2.4370	 7.6380
 2.4380	 7.5980
 2.4390	 7.5800
 2.4400	 7.5650
 2.4410	 7.5470
 2.4420	 7.5250
 2.4430	 7.4960
 2.4440	 7.4670
 2.4450	 7.4400
 2.4460	 7.4080
 2.4470	 7.3740
 2.4480	 7.3360
 2.4490	 7.2920
 2.4500	 7.2570
 2.4510	 7.2240
 2.4520	 7.1990
 2.4530	 7.1740
 2.4540	 7.1540
 2.4550	 7.1570
 2.4560	 7.1370
 2.4570	 7.1100
 2.4580	 7.0780
 2.4590	 7.0270
 2.4600	 7.0060
 2.4610	 7.0090
 2.4620	 7.0150
 2.4630	 7.0030
 2.4640	 6.9800
 2.4650	 6.9610
 2.4660	 6.9210
 2.4670	 6.8860
 2.4680	 6.8700
 2.4690	 6.8340
 2.4700	 6.8140
 2.4710	 6.8030
 2.4720	 6.7780
 2.4730	 6.7560
 2.4740	 6.7360
 2.4750	 6.7170
 2.4760	 6.6980
 2.4770	 6.6740
 2.4780	 6.6490
 2.4790	 6.6260
 2.4800	 6.6140
 2.4810	 6.6090
 2.4820	 6.6240
 2.4830	 6.5900
 2.4840	 6.5370
 2.4850	 6.5340
 2.4860	 6.5070
 2.4870	 6.4840
 2.4880	 6.5200
 2.4890	 6.5080
 2.4900	 6.4900
 2.4910	 6.5140
 2.4920	 6.4700
 2.4930	 6.4530
 2.4940	 6.4850
 2.4950	 6.4590
 2.4960	 6.4590
 2.4970	 6.5030
 2.4980	 6.5030
 2.4990	 6.5030
 2.5000	 6.5260
