Name: Arctostaphylos glandulosa 2
Type: vegetation
Class: Shrub
Genus: Arctostaphylos
Species: glandulosa
Sample No.: VH151
Owner: UCSB
Wavelength Range: VSWIR
Origin: 37.0441; -119.3033; WGS84
Collection Date: 6/8/2013
Description: Samples were collected as part of the HyspIRI Airborne Campaign. 48 individual plants were sampled in three times in 2013 - spring  summer  and fall. The name of the sample includes a 1  2  or 3 which references a different individual of the species. Samples were taken to JPL and processed within 48 hours of collection. The same leaves were processed in the Nicolet and then measured using the ASD.
Measurement: Bidirectional reflectance
First Column: X
Second Column: Y
X Units: Wavelength (micrometers)
Y Units: Reflectance (percentage)
First X Value: 0.35
Last X Value: 2.5
Number of X Values: 2151
Additional Information: vegetation.shrub.arctostaphylos.glandulosa.vswir.vh151.ucsb.asd.ancillary.txt

 0.3500	 5.6130
 0.3510	 5.7960
 0.3520	 5.8630
 0.3530	 5.8450
 0.3540	 5.8490
 0.3550	 5.8580
 0.3560	 5.7950
 0.3570	 5.6480
 0.3580	 5.4800
 0.3590	 5.6800
 0.3600	 5.7680
 0.3610	 5.6030
 0.3620	 5.6050
 0.3630	 5.7190
 0.3640	 5.7710
 0.3650	 5.6540
 0.3660	 5.6130
 0.3670	 5.6190
 0.3680	 5.6430
 0.3690	 5.6520
 0.3700	 5.6590
 0.3710	 5.6400
 0.3720	 5.5940
 0.3730	 5.5580
 0.3740	 5.6120
 0.3750	 5.6660
 0.3760	 5.6220
 0.3770	 5.5930
 0.3780	 5.5290
 0.3790	 5.4890
 0.3800	 5.6170
 0.3810	 5.6260
 0.3820	 5.5980
 0.3830	 5.6040
 0.3840	 5.5540
 0.3850	 5.5370
 0.3860	 5.5540
 0.3870	 5.5620
 0.3880	 5.5870
 0.3890	 5.6330
 0.3900	 5.6610
 0.3910	 5.5910
 0.3920	 5.6110
 0.3930	 5.6620
 0.3940	 5.6640
 0.3950	 5.6330
 0.3960	 5.6360
 0.3970	 5.6760
 0.3980	 5.7250
 0.3990	 5.7290
 0.4000	 5.7130
 0.4010	 5.7140
 0.4020	 5.7810
 0.4030	 5.8290
 0.4040	 5.8540
 0.4050	 5.8830
 0.4060	 5.9450
 0.4070	 5.9950
 0.4080	 6.0310
 0.4090	 6.0790
 0.4100	 6.1210
 0.4110	 6.1700
 0.4120	 6.2250
 0.4130	 6.2500
 0.4140	 6.2810
 0.4150	 6.3250
 0.4160	 6.3760
 0.4170	 6.4380
 0.4180	 6.4760
 0.4190	 6.5040
 0.4200	 6.5710
 0.4210	 6.6120
 0.4220	 6.6450
 0.4230	 6.6930
 0.4240	 6.7450
 0.4250	 6.7830
 0.4260	 6.8110
 0.4270	 6.8530
 0.4280	 6.8960
 0.4290	 6.9280
 0.4300	 6.9450
 0.4310	 6.9570
 0.4320	 6.9900
 0.4330	 7.0190
 0.4340	 7.0230
 0.4350	 7.0520
 0.4360	 7.0770
 0.4370	 7.0880
 0.4380	 7.1170
 0.4390	 7.1550
 0.4400	 7.1830
 0.4410	 7.1990
 0.4420	 7.2320
 0.4430	 7.2600
 0.4440	 7.2850
 0.4450	 7.3120
 0.4460	 7.3370
 0.4470	 7.3710
 0.4480	 7.4180
 0.4490	 7.4510
 0.4500	 7.4790
 0.4510	 7.5080
 0.4520	 7.5350
 0.4530	 7.5440
 0.4540	 7.5780
 0.4550	 7.6210
 0.4560	 7.6280
 0.4570	 7.6520
 0.4580	 7.6730
 0.4590	 7.6760
 0.4600	 7.6940
 0.4610	 7.7080
 0.4620	 7.7150
 0.4630	 7.7210
 0.4640	 7.7360
 0.4650	 7.7480
 0.4660	 7.7510
 0.4670	 7.7570
 0.4680	 7.7660
 0.4690	 7.7780
 0.4700	 7.7810
 0.4710	 7.7840
 0.4720	 7.7960
 0.4730	 7.8150
 0.4740	 7.8230
 0.4750	 7.8270
 0.4760	 7.8370
 0.4770	 7.8550
 0.4780	 7.8600
 0.4790	 7.8670
 0.4800	 7.8800
 0.4810	 7.8930
 0.4820	 7.9130
 0.4830	 7.9340
 0.4840	 7.9420
 0.4850	 7.9430
 0.4860	 7.9550
 0.4870	 7.9760
 0.4880	 8.0030
 0.4890	 8.0400
 0.4900	 8.0770
 0.4910	 8.1140
 0.4920	 8.1510
 0.4930	 8.2050
 0.4940	 8.2610
 0.4950	 8.3160
 0.4960	 8.3820
 0.4970	 8.4550
 0.4980	 8.5440
 0.4990	 8.6440
 0.5000	 8.7480
 0.5010	 8.8660
 0.5020	 9.0000
 0.5030	 9.1400
 0.5040	 9.2910
 0.5050	 9.4600
 0.5060	 9.6500
 0.5070	 9.8490
 0.5080	10.0670
 0.5090	10.3000
 0.5100	10.5400
 0.5110	10.8000
 0.5120	11.0760
 0.5130	11.3640
 0.5140	11.6570
 0.5150	11.9650
 0.5160	12.2840
 0.5170	12.6100
 0.5180	12.9380
 0.5190	13.2670
 0.5200	13.5950
 0.5210	13.9180
 0.5220	14.2250
 0.5230	14.5210
 0.5240	14.8100
 0.5250	15.0820
 0.5260	15.3410
 0.5270	15.5800
 0.5280	15.7920
 0.5290	15.9890
 0.5300	16.1700
 0.5310	16.3320
 0.5320	16.4750
 0.5330	16.6060
 0.5340	16.7240
 0.5350	16.8250
 0.5360	16.9210
 0.5370	17.0040
 0.5380	17.0710
 0.5390	17.1280
 0.5400	17.1820
 0.5410	17.2320
 0.5420	17.2740
 0.5430	17.3200
 0.5440	17.3700
 0.5450	17.4210
 0.5460	17.4730
 0.5470	17.5270
 0.5480	17.5790
 0.5490	17.6240
 0.5500	17.6630
 0.5510	17.6950
 0.5520	17.7140
 0.5530	17.7140
 0.5540	17.7050
 0.5550	17.6800
 0.5560	17.6350
 0.5570	17.5760
 0.5580	17.4990
 0.5590	17.4070
 0.5600	17.3030
 0.5610	17.1920
 0.5620	17.0710
 0.5630	16.9390
 0.5640	16.7950
 0.5650	16.6400
 0.5660	16.4770
 0.5670	16.3060
 0.5680	16.1270
 0.5690	15.9390
 0.5700	15.7500
 0.5710	15.5620
 0.5720	15.3820
 0.5730	15.2060
 0.5740	15.0360
 0.5750	14.8780
 0.5760	14.7270
 0.5770	14.5860
 0.5780	14.4560
 0.5790	14.3340
 0.5800	14.2180
 0.5810	14.1080
 0.5820	14.0060
 0.5830	13.9030
 0.5840	13.8080
 0.5850	13.7210
 0.5860	13.6340
 0.5870	13.5510
 0.5880	13.4730
 0.5890	13.4000
 0.5900	13.3310
 0.5910	13.2720
 0.5920	13.2220
 0.5930	13.1800
 0.5940	13.1410
 0.5950	13.1050
 0.5960	13.0700
 0.5970	13.0370
 0.5980	13.0030
 0.5990	12.9680
 0.6000	12.9340
 0.6010	12.8940
 0.6020	12.8510
 0.6030	12.8040
 0.6040	12.7480
 0.6050	12.6810
 0.6060	12.6080
 0.6070	12.5300
 0.6080	12.4460
 0.6090	12.3550
 0.6100	12.2570
 0.6110	12.1510
 0.6120	12.0570
 0.6130	11.9660
 0.6140	11.8760
 0.6150	11.7890
 0.6160	11.7000
 0.6170	11.6140
 0.6180	11.5340
 0.6190	11.4630
 0.6200	11.3980
 0.6210	11.3410
 0.6220	11.2940
 0.6230	11.2520
 0.6240	11.2180
 0.6250	11.1940
 0.6260	11.1730
 0.6270	11.1560
 0.6280	11.1440
 0.6290	11.1350
 0.6300	11.1200
 0.6310	11.1030
 0.6320	11.0860
 0.6330	11.0650
 0.6340	11.0290
 0.6350	10.9760
 0.6360	10.9100
 0.6370	10.8330
 0.6380	10.7450
 0.6390	10.6440
 0.6400	10.5330
 0.6410	10.4160
 0.6420	10.2900
 0.6430	10.1580
 0.6440	10.0350
 0.6450	 9.9100
 0.6460	 9.7920
 0.6470	 9.6830
 0.6480	 9.5760
 0.6490	 9.4860
 0.6500	 9.4130
 0.6510	 9.3520
 0.6520	 9.3000
 0.6530	 9.2530
 0.6540	 9.2040
 0.6550	 9.1570
 0.6560	 9.1030
 0.6570	 9.0400
 0.6580	 8.9700
 0.6590	 8.8920
 0.6600	 8.8100
 0.6610	 8.7240
 0.6620	 8.6390
 0.6630	 8.5560
 0.6640	 8.4790
 0.6650	 8.4130
 0.6660	 8.3530
 0.6670	 8.3020
 0.6680	 8.2630
 0.6690	 8.2380
 0.6700	 8.2170
 0.6710	 8.2030
 0.6720	 8.2010
 0.6730	 8.2120
 0.6740	 8.2310
 0.6750	 8.2540
 0.6760	 8.2770
 0.6770	 8.3100
 0.6780	 8.3530
 0.6790	 8.4060
 0.6800	 8.4700
 0.6810	 8.5480
 0.6820	 8.6370
 0.6830	 8.7390
 0.6840	 8.8700
 0.6850	 9.0250
 0.6860	 9.2120
 0.6870	 9.4480
 0.6880	 9.7320
 0.6890	10.0860
 0.6900	10.5150
 0.6910	11.0230
 0.6920	11.6160
 0.6930	12.2920
 0.6940	13.0540
 0.6950	13.8950
 0.6960	14.8030
 0.6970	15.7670
 0.6980	16.7790
 0.6990	17.8380
 0.7000	18.9290
 0.7010	20.0420
 0.7020	21.1690
 0.7030	22.3050
 0.7040	23.4390
 0.7050	24.5660
 0.7060	25.6900
 0.7070	26.8060
 0.7080	27.9130
 0.7090	29.0140
 0.7100	30.1090
 0.7110	31.1970
 0.7120	32.2770
 0.7130	33.3440
 0.7140	34.4070
 0.7150	35.4590
 0.7160	36.4950
 0.7170	37.5270
 0.7180	38.5420
 0.7190	39.5400
 0.7200	40.5240
 0.7210	41.4810
 0.7220	42.4190
 0.7230	43.3360
 0.7240	44.2230
 0.7250	45.0780
 0.7260	45.9030
 0.7270	46.7030
 0.7280	47.4690
 0.7290	48.2000
 0.7300	48.8970
 0.7310	49.5630
 0.7320	50.1940
 0.7330	50.7940
 0.7340	51.3620
 0.7350	51.8990
 0.7360	52.4020
 0.7370	52.8750
 0.7380	53.3220
 0.7390	53.7410
 0.7400	54.1300
 0.7410	54.4920
 0.7420	54.8300
 0.7430	55.1390
 0.7440	55.4260
 0.7450	55.6920
 0.7460	55.9320
 0.7470	56.1520
 0.7480	56.3520
 0.7490	56.5360
 0.7500	56.7050
 0.7510	56.8540
 0.7520	56.9860
 0.7530	57.1130
 0.7540	57.2270
 0.7550	57.3300
 0.7560	57.4230
 0.7570	57.5070
 0.7580	57.5900
 0.7590	57.6640
 0.7600	57.7250
 0.7610	57.7850
 0.7620	57.8400
 0.7630	57.8890
 0.7640	57.9350
 0.7650	57.9770
 0.7660	58.0130
 0.7670	58.0440
 0.7680	58.0710
 0.7690	58.1030
 0.7700	58.1310
 0.7710	58.1540
 0.7720	58.1810
 0.7730	58.2060
 0.7740	58.2290
 0.7750	58.2530
 0.7760	58.2720
 0.7770	58.2970
 0.7780	58.3250
 0.7790	58.3460
 0.7800	58.3710
 0.7810	58.3950
 0.7820	58.4160
 0.7830	58.4400
 0.7840	58.4640
 0.7850	58.4860
 0.7860	58.5080
 0.7870	58.5330
 0.7880	58.5540
 0.7890	58.5720
 0.7900	58.5910
 0.7910	58.6150
 0.7920	58.6410
 0.7930	58.6640
 0.7940	58.6840
 0.7950	58.7050
 0.7960	58.7270
 0.7970	58.7480
 0.7980	58.7640
 0.7990	58.7790
 0.8000	58.7960
 0.8010	58.8160
 0.8020	58.8350
 0.8030	58.8560
 0.8040	58.8740
 0.8050	58.8880
 0.8060	58.9020
 0.8070	58.9180
 0.8080	58.9350
 0.8090	58.9500
 0.8100	58.9620
 0.8110	58.9750
 0.8120	58.9920
 0.8130	59.0050
 0.8140	59.0180
 0.8150	59.0330
 0.8160	59.0490
 0.8170	59.0660
 0.8180	59.0750
 0.8190	59.0850
 0.8200	59.1070
 0.8210	59.1220
 0.8220	59.1320
 0.8230	59.1420
 0.8240	59.1560
 0.8250	59.1680
 0.8260	59.1770
 0.8270	59.1860
 0.8280	59.2010
 0.8290	59.2140
 0.8300	59.2240
 0.8310	59.2340
 0.8320	59.2430
 0.8330	59.2530
 0.8340	59.2660
 0.8350	59.2800
 0.8360	59.2950
 0.8370	59.3020
 0.8380	59.3090
 0.8390	59.3320
 0.8400	59.3570
 0.8410	59.3750
 0.8420	59.3880
 0.8430	59.4010
 0.8440	59.4190
 0.8450	59.4340
 0.8460	59.4440
 0.8470	59.4660
 0.8480	59.4910
 0.8490	59.5090
 0.8500	59.5190
 0.8510	59.5410
 0.8520	59.5630
 0.8530	59.5800
 0.8540	59.5940
 0.8550	59.6040
 0.8560	59.6200
 0.8570	59.6410
 0.8580	59.6630
 0.8590	59.6750
 0.8600	59.6870
 0.8610	59.7030
 0.8620	59.7200
 0.8630	59.7350
 0.8640	59.7500
 0.8650	59.7660
 0.8660	59.7780
 0.8670	59.7920
 0.8680	59.8060
 0.8690	59.8200
 0.8700	59.8370
 0.8710	59.8480
 0.8720	59.8580
 0.8730	59.8780
 0.8740	59.8950
 0.8750	59.9040
 0.8760	59.9100
 0.8770	59.9300
 0.8780	59.9470
 0.8790	59.9590
 0.8800	59.9700
 0.8810	59.9830
 0.8820	59.9890
 0.8830	59.9980
 0.8840	60.0130
 0.8850	60.0180
 0.8860	60.0260
 0.8870	60.0360
 0.8880	60.0430
 0.8890	60.0550
 0.8900	60.0710
 0.8910	60.0810
 0.8920	60.0810
 0.8930	60.0870
 0.8940	60.0930
 0.8950	60.0970
 0.8960	60.1000
 0.8970	60.1080
 0.8980	60.1160
 0.8990	60.1240
 0.9000	60.1320
 0.9010	60.1350
 0.9020	60.1360
 0.9030	60.1400
 0.9040	60.1550
 0.9050	60.1640
 0.9060	60.1660
 0.9070	60.1640
 0.9080	60.1690
 0.9090	60.1710
 0.9100	60.1700
 0.9110	60.1710
 0.9120	60.1820
 0.9130	60.1880
 0.9140	60.1880
 0.9150	60.1910
 0.9160	60.1950
 0.9170	60.1900
 0.9180	60.1830
 0.9190	60.1850
 0.9200	60.1830
 0.9210	60.1770
 0.9220	60.1770
 0.9230	60.1900
 0.9240	60.1820
 0.9250	60.1790
 0.9260	60.1790
 0.9270	60.1570
 0.9280	60.1430
 0.9290	60.1350
 0.9300	60.1260
 0.9310	60.1070
 0.9320	60.0920
 0.9330	60.0840
 0.9340	60.0750
 0.9350	60.0510
 0.9360	60.0250
 0.9370	60.0010
 0.9380	59.9790
 0.9390	59.9550
 0.9400	59.9230
 0.9410	59.8900
 0.9420	59.8590
 0.9430	59.8320
 0.9440	59.7970
 0.9450	59.7530
 0.9460	59.7040
 0.9470	59.6550
 0.9480	59.5880
 0.9490	59.5200
 0.9500	59.4580
 0.9510	59.3690
 0.9520	59.2900
 0.9530	59.2130
 0.9540	59.1230
 0.9550	59.0350
 0.9560	58.9420
 0.9570	58.8620
 0.9580	58.8050
 0.9590	58.7300
 0.9600	58.6550
 0.9610	58.5940
 0.9620	58.5510
 0.9630	58.4990
 0.9640	58.4440
 0.9650	58.4030
 0.9660	58.3830
 0.9670	58.3500
 0.9680	58.3320
 0.9690	58.3230
 0.9700	58.3040
 0.9710	58.2820
 0.9720	58.2790
 0.9730	58.2810
 0.9740	58.2630
 0.9750	58.2480
 0.9760	58.2510
 0.9770	58.2640
 0.9780	58.2690
 0.9790	58.2690
 0.9800	58.2710
 0.9810	58.2790
 0.9820	58.2940
 0.9830	58.3160
 0.9840	58.3380
 0.9850	58.3550
 0.9860	58.3700
 0.9870	58.3980
 0.9880	58.4190
 0.9890	58.4360
 0.9900	58.4680
 0.9910	58.5160
 0.9920	58.5550
 0.9930	58.5860
 0.9940	58.6220
 0.9950	58.6900
 0.9960	58.7270
 0.9970	58.7530
 0.9980	58.8110
 0.9990	58.8770
 1.0000	59.0240
 1.0010	59.2760
 1.0020	59.4430
 1.0030	59.4880
 1.0040	59.5370
 1.0050	59.5890
 1.0060	59.6370
 1.0070	59.6800
 1.0080	59.7260
 1.0090	59.7700
 1.0100	59.8190
 1.0110	59.8750
 1.0120	59.9260
 1.0130	59.9780
 1.0140	60.0280
 1.0150	60.0750
 1.0160	60.1250
 1.0170	60.1730
 1.0180	60.2200
 1.0190	60.2690
 1.0200	60.3160
 1.0210	60.3620
 1.0220	60.4120
 1.0230	60.4610
 1.0240	60.5080
 1.0250	60.5550
 1.0260	60.6030
 1.0270	60.6480
 1.0280	60.6910
 1.0290	60.7350
 1.0300	60.7790
 1.0310	60.8240
 1.0320	60.8720
 1.0330	60.9170
 1.0340	60.9580
 1.0350	60.9990
 1.0360	61.0400
 1.0370	61.0810
 1.0380	61.1220
 1.0390	61.1670
 1.0400	61.2060
 1.0410	61.2380
 1.0420	61.2760
 1.0430	61.3120
 1.0440	61.3500
 1.0450	61.3950
 1.0460	61.4320
 1.0470	61.4640
 1.0480	61.4980
 1.0490	61.5280
 1.0500	61.5600
 1.0510	61.5950
 1.0520	61.6290
 1.0530	61.6640
 1.0540	61.6990
 1.0550	61.7320
 1.0560	61.7660
 1.0570	61.7970
 1.0580	61.8240
 1.0590	61.8510
 1.0600	61.8760
 1.0610	61.9010
 1.0620	61.9260
 1.0630	61.9490
 1.0640	61.9690
 1.0650	61.9910
 1.0660	62.0090
 1.0670	62.0300
 1.0680	62.0530
 1.0690	62.0780
 1.0700	62.0980
 1.0710	62.1180
 1.0720	62.1340
 1.0730	62.1430
 1.0740	62.1570
 1.0750	62.1740
 1.0760	62.1850
 1.0770	62.1930
 1.0780	62.2040
 1.0790	62.2110
 1.0800	62.2220
 1.0810	62.2430
 1.0820	62.2540
 1.0830	62.2640
 1.0840	62.2700
 1.0850	62.2690
 1.0860	62.2680
 1.0870	62.2700
 1.0880	62.2730
 1.0890	62.2730
 1.0900	62.2730
 1.0910	62.2730
 1.0920	62.2710
 1.0930	62.2700
 1.0940	62.2740
 1.0950	62.2720
 1.0960	62.2670
 1.0970	62.2610
 1.0980	62.2520
 1.0990	62.2440
 1.1000	62.2350
 1.1010	62.2260
 1.1020	62.2190
 1.1030	62.2060
 1.1040	62.1940
 1.1050	62.1820
 1.1060	62.1690
 1.1070	62.1570
 1.1080	62.1410
 1.1090	62.1250
 1.1100	62.1080
 1.1110	62.0900
 1.1120	62.0700
 1.1130	62.0520
 1.1140	62.0300
 1.1150	62.0080
 1.1160	61.9800
 1.1170	61.9520
 1.1180	61.9160
 1.1190	61.8750
 1.1200	61.8320
 1.1210	61.7850
 1.1220	61.7310
 1.1230	61.6700
 1.1240	61.6040
 1.1250	61.5300
 1.1260	61.4520
 1.1270	61.3610
 1.1280	61.2660
 1.1290	61.1530
 1.1300	61.0270
 1.1310	60.8900
 1.1320	60.7400
 1.1330	60.5810
 1.1340	60.4140
 1.1350	60.2350
 1.1360	60.0440
 1.1370	59.8430
 1.1380	59.6310
 1.1390	59.4110
 1.1400	59.1840
 1.1410	58.9560
 1.1420	58.7260
 1.1430	58.4940
 1.1440	58.2640
 1.1450	58.0320
 1.1460	57.8040
 1.1470	57.5740
 1.1480	57.3570
 1.1490	57.1430
 1.1500	56.9440
 1.1510	56.7580
 1.1520	56.5810
 1.1530	56.4120
 1.1540	56.2550
 1.1550	56.1090
 1.1560	55.9730
 1.1570	55.8470
 1.1580	55.7350
 1.1590	55.6310
 1.1600	55.5330
 1.1610	55.4450
 1.1620	55.3650
 1.1630	55.2920
 1.1640	55.2280
 1.1650	55.1680
 1.1660	55.1160
 1.1670	55.0650
 1.1680	55.0190
 1.1690	54.9730
 1.1700	54.9290
 1.1710	54.8870
 1.1720	54.8490
 1.1730	54.8090
 1.1740	54.7700
 1.1750	54.7330
 1.1760	54.6900
 1.1770	54.6450
 1.1780	54.6020
 1.1790	54.5560
 1.1800	54.5130
 1.1810	54.4700
 1.1820	54.4220
 1.1830	54.3730
 1.1840	54.3240
 1.1850	54.2760
 1.1860	54.2320
 1.1870	54.1910
 1.1880	54.1490
 1.1890	54.1080
 1.1900	54.0680
 1.1910	54.0270
 1.1920	53.9910
 1.1930	53.9580
 1.1940	53.9280
 1.1950	53.9010
 1.1960	53.8750
 1.1970	53.8570
 1.1980	53.8430
 1.1990	53.8320
 1.2000	53.8290
 1.2010	53.8300
 1.2020	53.8330
 1.2030	53.8480
 1.2040	53.8720
 1.2050	53.9010
 1.2060	53.9370
 1.2070	53.9760
 1.2080	54.0180
 1.2090	54.0650
 1.2100	54.1190
 1.2110	54.1780
 1.2120	54.2430
 1.2130	54.3100
 1.2140	54.3830
 1.2150	54.4580
 1.2160	54.5380
 1.2170	54.6200
 1.2180	54.7060
 1.2190	54.7960
 1.2200	54.8890
 1.2210	54.9850
 1.2220	55.0790
 1.2230	55.1700
 1.2240	55.2600
 1.2250	55.3460
 1.2260	55.4340
 1.2270	55.5210
 1.2280	55.6060
 1.2290	55.6910
 1.2300	55.7710
 1.2310	55.8490
 1.2320	55.9250
 1.2330	55.9980
 1.2340	56.0700
 1.2350	56.1420
 1.2360	56.2100
 1.2370	56.2750
 1.2380	56.3380
 1.2390	56.3990
 1.2400	56.4600
 1.2410	56.5210
 1.2420	56.5800
 1.2430	56.6360
 1.2440	56.6900
 1.2450	56.7400
 1.2460	56.7890
 1.2470	56.8380
 1.2480	56.8830
 1.2490	56.9270
 1.2500	56.9720
 1.2510	57.0160
 1.2520	57.0600
 1.2530	57.1010
 1.2540	57.1370
 1.2550	57.1700
 1.2560	57.2000
 1.2570	57.2310
 1.2580	57.2610
 1.2590	57.2910
 1.2600	57.3200
 1.2610	57.3470
 1.2620	57.3700
 1.2630	57.3920
 1.2640	57.4130
 1.2650	57.4310
 1.2660	57.4500
 1.2670	57.4660
 1.2680	57.4790
 1.2690	57.4890
 1.2700	57.4960
 1.2710	57.5030
 1.2720	57.5090
 1.2730	57.5130
 1.2740	57.5190
 1.2750	57.5220
 1.2760	57.5230
 1.2770	57.5220
 1.2780	57.5160
 1.2790	57.5090
 1.2800	57.4980
 1.2810	57.4870
 1.2820	57.4740
 1.2830	57.4580
 1.2840	57.4410
 1.2850	57.4210
 1.2860	57.4000
 1.2870	57.3750
 1.2880	57.3460
 1.2890	57.3130
 1.2900	57.2780
 1.2910	57.2380
 1.2920	57.1970
 1.2930	57.1530
 1.2940	57.1060
 1.2950	57.0520
 1.2960	56.9940
 1.2970	56.9340
 1.2980	56.8690
 1.2990	56.8030
 1.3000	56.7340
 1.3010	56.6570
 1.3020	56.5760
 1.3030	56.4900
 1.3040	56.3980
 1.3050	56.3030
 1.3060	56.2030
 1.3070	56.0970
 1.3080	55.9880
 1.3090	55.8760
 1.3100	55.7610
 1.3110	55.6370
 1.3120	55.5060
 1.3130	55.3730
 1.3140	55.2350
 1.3150	55.0940
 1.3160	54.9470
 1.3170	54.7990
 1.3180	54.6390
 1.3190	54.4730
 1.3200	54.3050
 1.3210	54.1320
 1.3220	53.9560
 1.3230	53.7780
 1.3240	53.5930
 1.3250	53.4040
 1.3260	53.2090
 1.3270	53.0120
 1.3280	52.8160
 1.3290	52.6140
 1.3300	52.4140
 1.3310	52.2120
 1.3320	52.0050
 1.3330	51.7980
 1.3340	51.5880
 1.3350	51.3750
 1.3360	51.1640
 1.3370	50.9520
 1.3380	50.7430
 1.3390	50.5360
 1.3400	50.3280
 1.3410	50.1250
 1.3420	49.9240
 1.3430	49.7230
 1.3440	49.5250
 1.3450	49.3290
 1.3460	49.1300
 1.3470	48.9390
 1.3480	48.7540
 1.3490	48.5690
 1.3500	48.3880
 1.3510	48.2100
 1.3520	48.0320
 1.3530	47.8530
 1.3540	47.6750
 1.3550	47.4970
 1.3560	47.3180
 1.3570	47.1380
 1.3580	46.9590
 1.3590	46.7760
 1.3600	46.5890
 1.3610	46.3970
 1.3620	46.1980
 1.3630	45.9930
 1.3640	45.7830
 1.3650	45.5640
 1.3660	45.3370
 1.3670	45.1010
 1.3680	44.8540
 1.3690	44.5950
 1.3700	44.3200
 1.3710	44.0330
 1.3720	43.7290
 1.3730	43.4050
 1.3740	43.0660
 1.3750	42.7040
 1.3760	42.3180
 1.3770	41.9120
 1.3780	41.4770
 1.3790	41.0180
 1.3800	40.5380
 1.3810	40.0290
 1.3820	39.5040
 1.3830	38.9590
 1.3840	38.3940
 1.3850	37.8080
 1.3860	37.2110
 1.3870	36.5900
 1.3880	35.9700
 1.3890	35.3390
 1.3900	34.7010
 1.3910	34.0670
 1.3920	33.4300
 1.3930	32.7900
 1.3940	32.1570
 1.3950	31.5240
 1.3960	30.9020
 1.3970	30.2940
 1.3980	29.6980
 1.3990	29.1240
 1.4000	28.5670
 1.4010	28.0240
 1.4020	27.5040
 1.4030	27.0000
 1.4040	26.5160
 1.4050	26.0560
 1.4060	25.6150
 1.4070	25.2020
 1.4080	24.8100
 1.4090	24.4390
 1.4100	24.0910
 1.4110	23.7600
 1.4120	23.4490
 1.4130	23.1590
 1.4140	22.8870
 1.4150	22.6370
 1.4160	22.4040
 1.4170	22.1870
 1.4180	21.9850
 1.4190	21.7930
 1.4200	21.6150
 1.4210	21.4510
 1.4220	21.2980
 1.4230	21.1590
 1.4240	21.0310
 1.4250	20.9110
 1.4260	20.8020
 1.4270	20.7000
 1.4280	20.6070
 1.4290	20.5220
 1.4300	20.4460
 1.4310	20.3770
 1.4320	20.3150
 1.4330	20.2580
 1.4340	20.2090
 1.4350	20.1640
 1.4360	20.1260
 1.4370	20.0930
 1.4380	20.0650
 1.4390	20.0420
 1.4400	20.0230
 1.4410	20.0090
 1.4420	20.0000
 1.4430	19.9940
 1.4440	19.9900
 1.4450	19.9890
 1.4460	19.9910
 1.4470	19.9960
 1.4480	20.0040
 1.4490	20.0140
 1.4500	20.0260
 1.4510	20.0380
 1.4520	20.0520
 1.4530	20.0690
 1.4540	20.0890
 1.4550	20.1130
 1.4560	20.1390
 1.4570	20.1670
 1.4580	20.1980
 1.4590	20.2320
 1.4600	20.2700
 1.4610	20.3110
 1.4620	20.3570
 1.4630	20.4080
 1.4640	20.4630
 1.4650	20.5220
 1.4660	20.5870
 1.4670	20.6570
 1.4680	20.7320
 1.4690	20.8130
 1.4700	20.8980
 1.4710	20.9880
 1.4720	21.0800
 1.4730	21.1740
 1.4740	21.2720
 1.4750	21.3740
 1.4760	21.4790
 1.4770	21.5880
 1.4780	21.7000
 1.4790	21.8150
 1.4800	21.9310
 1.4810	22.0490
 1.4820	22.1700
 1.4830	22.2920
 1.4840	22.4160
 1.4850	22.5420
 1.4860	22.6680
 1.4870	22.7950
 1.4880	22.9240
 1.4890	23.0530
 1.4900	23.1830
 1.4910	23.3130
 1.4920	23.4450
 1.4930	23.5780
 1.4940	23.7110
 1.4950	23.8470
 1.4960	23.9810
 1.4970	24.1160
 1.4980	24.2510
 1.4990	24.3850
 1.5000	24.5200
 1.5010	24.6570
 1.5020	24.7920
 1.5030	24.9290
 1.5040	25.0640
 1.5050	25.1960
 1.5060	25.3290
 1.5070	25.4620
 1.5080	25.5950
 1.5090	25.7300
 1.5100	25.8640
 1.5110	25.9970
 1.5120	26.1300
 1.5130	26.2590
 1.5140	26.3900
 1.5150	26.5210
 1.5160	26.6490
 1.5170	26.7790
 1.5180	26.9060
 1.5190	27.0320
 1.5200	27.1570
 1.5210	27.2800
 1.5220	27.4030
 1.5230	27.5260
 1.5240	27.6470
 1.5250	27.7680
 1.5260	27.8860
 1.5270	28.0030
 1.5280	28.1200
 1.5290	28.2350
 1.5300	28.3500
 1.5310	28.4640
 1.5320	28.5760
 1.5330	28.6890
 1.5340	28.8000
 1.5350	28.9100
 1.5360	29.0200
 1.5370	29.1270
 1.5380	29.2350
 1.5390	29.3430
 1.5400	29.4500
 1.5410	29.5570
 1.5420	29.6610
 1.5430	29.7640
 1.5440	29.8690
 1.5450	29.9720
 1.5460	30.0740
 1.5470	30.1730
 1.5480	30.2700
 1.5490	30.3680
 1.5500	30.4670
 1.5510	30.5670
 1.5520	30.6650
 1.5530	30.7610
 1.5540	30.8570
 1.5550	30.9500
 1.5560	31.0420
 1.5570	31.1370
 1.5580	31.2310
 1.5590	31.3240
 1.5600	31.4160
 1.5610	31.5070
 1.5620	31.5940
 1.5630	31.6810
 1.5640	31.7680
 1.5650	31.8570
 1.5660	31.9460
 1.5670	32.0330
 1.5680	32.1200
 1.5690	32.2050
 1.5700	32.2910
 1.5710	32.3770
 1.5720	32.4640
 1.5730	32.5500
 1.5740	32.6330
 1.5750	32.7150
 1.5760	32.7980
 1.5770	32.8810
 1.5780	32.9640
 1.5790	33.0480
 1.5800	33.1290
 1.5810	33.2100
 1.5820	33.2900
 1.5830	33.3710
 1.5840	33.4520
 1.5850	33.5330
 1.5860	33.6160
 1.5870	33.6980
 1.5880	33.7800
 1.5890	33.8620
 1.5900	33.9440
 1.5910	34.0260
 1.5920	34.1070
 1.5930	34.1880
 1.5940	34.2690
 1.5950	34.3510
 1.5960	34.4340
 1.5970	34.5170
 1.5980	34.5980
 1.5990	34.6790
 1.6000	34.7590
 1.6010	34.8390
 1.6020	34.9190
 1.6030	35.0000
 1.6040	35.0800
 1.6050	35.1620
 1.6060	35.2420
 1.6070	35.3210
 1.6080	35.4010
 1.6090	35.4780
 1.6100	35.5550
 1.6110	35.6320
 1.6120	35.7060
 1.6130	35.7790
 1.6140	35.8510
 1.6150	35.9220
 1.6160	35.9940
 1.6170	36.0640
 1.6180	36.1300
 1.6190	36.1970
 1.6200	36.2620
 1.6210	36.3240
 1.6220	36.3860
 1.6230	36.4470
 1.6240	36.5050
 1.6250	36.5620
 1.6260	36.6190
 1.6270	36.6740
 1.6280	36.7290
 1.6290	36.7830
 1.6300	36.8350
 1.6310	36.8880
 1.6320	36.9420
 1.6330	36.9960
 1.6340	37.0500
 1.6350	37.1030
 1.6360	37.1560
 1.6370	37.2050
 1.6380	37.2530
 1.6390	37.2990
 1.6400	37.3430
 1.6410	37.3850
 1.6420	37.4270
 1.6430	37.4630
 1.6440	37.4960
 1.6450	37.5270
 1.6460	37.5530
 1.6470	37.5770
 1.6480	37.5990
 1.6490	37.6160
 1.6500	37.6330
 1.6510	37.6490
 1.6520	37.6590
 1.6530	37.6670
 1.6540	37.6710
 1.6550	37.6710
 1.6560	37.6690
 1.6570	37.6660
 1.6580	37.6610
 1.6590	37.6530
 1.6600	37.6430
 1.6610	37.6320
 1.6620	37.6210
 1.6630	37.6090
 1.6640	37.5960
 1.6650	37.5790
 1.6660	37.5610
 1.6670	37.5440
 1.6680	37.5250
 1.6690	37.5080
 1.6700	37.4900
 1.6710	37.4690
 1.6720	37.4470
 1.6730	37.4230
 1.6740	37.3950
 1.6750	37.3650
 1.6760	37.3320
 1.6770	37.2980
 1.6780	37.2590
 1.6790	37.2170
 1.6800	37.1680
 1.6810	37.1140
 1.6820	37.0530
 1.6830	36.9850
 1.6840	36.9130
 1.6850	36.8370
 1.6860	36.7580
 1.6870	36.6750
 1.6880	36.5860
 1.6890	36.4900
 1.6900	36.3910
 1.6910	36.2840
 1.6920	36.1800
 1.6930	36.0760
 1.6940	35.9710
 1.6950	35.8640
 1.6960	35.7590
 1.6970	35.6520
 1.6980	35.5440
 1.6990	35.4340
 1.7000	35.3260
 1.7010	35.2180
 1.7020	35.1090
 1.7030	35.0010
 1.7040	34.8910
 1.7050	34.7780
 1.7060	34.6680
 1.7070	34.5590
 1.7080	34.4530
 1.7090	34.3470
 1.7100	34.2450
 1.7110	34.1450
 1.7120	34.0510
 1.7130	33.9640
 1.7140	33.8860
 1.7150	33.8140
 1.7160	33.7490
 1.7170	33.6900
 1.7180	33.6330
 1.7190	33.5810
 1.7200	33.5330
 1.7210	33.4880
 1.7220	33.4480
 1.7230	33.4080
 1.7240	33.3680
 1.7250	33.3320
 1.7260	33.3000
 1.7270	33.2740
 1.7280	33.2520
 1.7290	33.2340
 1.7300	33.2210
 1.7310	33.2100
 1.7320	33.2070
 1.7330	33.2010
 1.7340	33.2000
 1.7350	33.1930
 1.7360	33.1850
 1.7370	33.1690
 1.7380	33.1490
 1.7390	33.1210
 1.7400	33.0870
 1.7410	33.0460
 1.7420	32.9960
 1.7430	32.9420
 1.7440	32.8800
 1.7450	32.8170
 1.7460	32.7460
 1.7470	32.6780
 1.7480	32.6060
 1.7490	32.5360
 1.7500	32.4650
 1.7510	32.3960
 1.7520	32.3260
 1.7530	32.2580
 1.7540	32.1900
 1.7550	32.1270
 1.7560	32.0670
 1.7570	32.0100
 1.7580	31.9560
 1.7590	31.9070
 1.7600	31.8600
 1.7610	31.8150
 1.7620	31.7740
 1.7630	31.7370
 1.7640	31.7020
 1.7650	31.6720
 1.7660	31.6430
 1.7670	31.6160
 1.7680	31.5880
 1.7690	31.5630
 1.7700	31.5370
 1.7710	31.5080
 1.7720	31.4830
 1.7730	31.4590
 1.7740	31.4360
 1.7750	31.4140
 1.7760	31.3950
 1.7770	31.3780
 1.7780	31.3640
 1.7790	31.3550
 1.7800	31.3470
 1.7810	31.3400
 1.7820	31.3390
 1.7830	31.3420
 1.7840	31.3480
 1.7850	31.3600
 1.7860	31.3720
 1.7870	31.3880
 1.7880	31.4030
 1.7890	31.4230
 1.7900	31.4430
 1.7910	31.4630
 1.7920	31.4840
 1.7930	31.5050
 1.7940	31.5280
 1.7950	31.5480
 1.7960	31.5680
 1.7970	31.5880
 1.7980	31.6080
 1.7990	31.6300
 1.8000	31.6540
 1.8010	31.6770
 1.8020	31.7010
 1.8030	31.7240
 1.8040	31.7470
 1.8050	31.7690
 1.8060	31.7900
 1.8070	31.8110
 1.8080	31.8290
 1.8090	31.8480
 1.8100	31.8680
 1.8110	31.8860
 1.8120	31.9050
 1.8130	31.9230
 1.8140	31.9380
 1.8150	31.9540
 1.8160	31.9690
 1.8170	31.9810
 1.8180	31.9950
 1.8190	32.0060
 1.8200	32.0160
 1.8210	32.0250
 1.8220	32.0330
 1.8230	32.0400
 1.8240	32.0440
 1.8250	32.0470
 1.8260	32.0510
 1.8270	32.0510
 1.8280	32.0510
 1.8290	32.0520
 1.8300	32.0320
 1.8310	32.0000
 1.8320	31.9690
 1.8330	31.9550
 1.8340	31.9350
 1.8350	31.9080
 1.8360	31.8740
 1.8370	31.8370
 1.8380	31.7930
 1.8390	31.7450
 1.8400	31.6930
 1.8410	31.6360
 1.8420	31.5740
 1.8430	31.5060
 1.8440	31.4330
 1.8450	31.3480
 1.8460	31.2530
 1.8470	31.1470
 1.8480	31.0300
 1.8490	30.9050
 1.8500	30.7650
 1.8510	30.6150
 1.8520	30.4500
 1.8530	30.2710
 1.8540	30.0810
 1.8550	29.8790
 1.8560	29.6610
 1.8570	29.4320
 1.8580	29.1870
 1.8590	28.9230
 1.8600	28.6420
 1.8610	28.3470
 1.8620	28.0300
 1.8630	27.6970
 1.8640	27.3500
 1.8650	26.9830
 1.8660	26.6010
 1.8670	26.1960
 1.8680	25.7690
 1.8690	25.3210
 1.8700	24.8520
 1.8710	24.3640
 1.8720	23.8630
 1.8730	23.3450
 1.8740	22.8150
 1.8750	22.2760
 1.8760	21.7220
 1.8770	21.1630
 1.8780	20.6010
 1.8790	20.0310
 1.8800	19.4670
 1.8810	18.9030
 1.8820	18.3390
 1.8830	17.7730
 1.8840	17.2140
 1.8850	16.6570
 1.8860	16.1080
 1.8870	15.5750
 1.8880	15.0530
 1.8890	14.5500
 1.8900	14.0660
 1.8910	13.6010
 1.8920	13.1500
 1.8930	12.7240
 1.8940	12.3200
 1.8950	11.9400
 1.8960	11.5850
 1.8970	11.2540
 1.8980	10.9440
 1.8990	10.6540
 1.9000	10.3870
 1.9010	10.1430
 1.9020	 9.9150
 1.9030	 9.7100
 1.9040	 9.5230
 1.9050	 9.3520
 1.9060	 9.1970
 1.9070	 9.0600
 1.9080	 8.9400
 1.9090	 8.8280
 1.9100	 8.7290
 1.9110	 8.6370
 1.9120	 8.5560
 1.9130	 8.4800
 1.9140	 8.4140
 1.9150	 8.3560
 1.9160	 8.3060
 1.9170	 8.2590
 1.9180	 8.2180
 1.9190	 8.1830
 1.9200	 8.1500
 1.9210	 8.1260
 1.9220	 8.1040
 1.9230	 8.0880
 1.9240	 8.0710
 1.9250	 8.0610
 1.9260	 8.0500
 1.9270	 8.0420
 1.9280	 8.0450
 1.9290	 8.0460
 1.9300	 8.0490
 1.9310	 8.0560
 1.9320	 8.0630
 1.9330	 8.0760
 1.9340	 8.0910
 1.9350	 8.1100
 1.9360	 8.1320
 1.9370	 8.1540
 1.9380	 8.1780
 1.9390	 8.2000
 1.9400	 8.2280
 1.9410	 8.2580
 1.9420	 8.2900
 1.9430	 8.3260
 1.9440	 8.3630
 1.9450	 8.4020
 1.9460	 8.4400
 1.9470	 8.4840
 1.9480	 8.5270
 1.9490	 8.5690
 1.9500	 8.6140
 1.9510	 8.6600
 1.9520	 8.7010
 1.9530	 8.7510
 1.9540	 8.8000
 1.9550	 8.8510
 1.9560	 8.9090
 1.9570	 8.9650
 1.9580	 9.0170
 1.9590	 9.0750
 1.9600	 9.1330
 1.9610	 9.1930
 1.9620	 9.2560
 1.9630	 9.3200
 1.9640	 9.3830
 1.9650	 9.4470
 1.9660	 9.5140
 1.9670	 9.5820
 1.9680	 9.6490
 1.9690	 9.7120
 1.9700	 9.7800
 1.9710	 9.8500
 1.9720	 9.9230
 1.9730	 9.9970
 1.9740	10.0730
 1.9750	10.1470
 1.9760	10.2200
 1.9770	10.2940
 1.9780	10.3670
 1.9790	10.4410
 1.9800	10.5160
 1.9810	10.5930
 1.9820	10.6690
 1.9830	10.7470
 1.9840	10.8260
 1.9850	10.9040
 1.9860	10.9820
 1.9870	11.0610
 1.9880	11.1410
 1.9890	11.2230
 1.9900	11.3030
 1.9910	11.3840
 1.9920	11.4640
 1.9930	11.5460
 1.9940	11.6270
 1.9950	11.7090
 1.9960	11.7900
 1.9970	11.8690
 1.9980	11.9490
 1.9990	12.0280
 2.0000	12.1080
 2.0010	12.1870
 2.0020	12.2680
 2.0030	12.3480
 2.0040	12.4250
 2.0050	12.5040
 2.0060	12.5830
 2.0070	12.6630
 2.0080	12.7460
 2.0090	12.8260
 2.0100	12.9090
 2.0110	12.9870
 2.0120	13.0610
 2.0130	13.1350
 2.0140	13.2090
 2.0150	13.2810
 2.0160	13.3520
 2.0170	13.4240
 2.0180	13.4960
 2.0190	13.5650
 2.0200	13.6350
 2.0210	13.7040
 2.0220	13.7720
 2.0230	13.8390
 2.0240	13.9050
 2.0250	13.9720
 2.0260	14.0370
 2.0270	14.1000
 2.0280	14.1620
 2.0290	14.2230
 2.0300	14.2810
 2.0310	14.3370
 2.0320	14.3900
 2.0330	14.4460
 2.0340	14.4990
 2.0350	14.5540
 2.0360	14.6120
 2.0370	14.6650
 2.0380	14.7130
 2.0390	14.7630
 2.0400	14.8100
 2.0410	14.8570
 2.0420	14.9040
 2.0430	14.9520
 2.0440	14.9950
 2.0450	15.0350
 2.0460	15.0770
 2.0470	15.1160
 2.0480	15.1580
 2.0490	15.2020
 2.0500	15.2440
 2.0510	15.2850
 2.0520	15.3230
 2.0530	15.3590
 2.0540	15.3940
 2.0550	15.4280
 2.0560	15.4620
 2.0570	15.4970
 2.0580	15.5330
 2.0590	15.5700
 2.0600	15.6080
 2.0610	15.6460
 2.0620	15.6860
 2.0630	15.7240
 2.0640	15.7620
 2.0650	15.8000
 2.0660	15.8370
 2.0670	15.8720
 2.0680	15.9050
 2.0690	15.9400
 2.0700	15.9740
 2.0710	16.0080
 2.0720	16.0440
 2.0730	16.0800
 2.0740	16.1170
 2.0750	16.1540
 2.0760	16.1910
 2.0770	16.2300
 2.0780	16.2680
 2.0790	16.3050
 2.0800	16.3410
 2.0810	16.3760
 2.0820	16.4120
 2.0830	16.4470
 2.0840	16.4840
 2.0850	16.5250
 2.0860	16.5630
 2.0870	16.6010
 2.0880	16.6380
 2.0890	16.6750
 2.0900	16.7100
 2.0910	16.7470
 2.0920	16.7860
 2.0930	16.8260
 2.0940	16.8710
 2.0950	16.9110
 2.0960	16.9520
 2.0970	16.9930
 2.0980	17.0320
 2.0990	17.0730
 2.1000	17.1160
 2.1010	17.1590
 2.1020	17.2030
 2.1030	17.2460
 2.1040	17.2900
 2.1050	17.3370
 2.1060	17.3800
 2.1070	17.4210
 2.1080	17.4640
 2.1090	17.5080
 2.1100	17.5520
 2.1110	17.6000
 2.1120	17.6440
 2.1130	17.6850
 2.1140	17.7260
 2.1150	17.7630
 2.1160	17.8050
 2.1170	17.8460
 2.1180	17.8900
 2.1190	17.9370
 2.1200	17.9840
 2.1210	18.0330
 2.1220	18.0800
 2.1230	18.1230
 2.1240	18.1650
 2.1250	18.2070
 2.1260	18.2450
 2.1270	18.2860
 2.1280	18.3290
 2.1290	18.3700
 2.1300	18.4110
 2.1310	18.4500
 2.1320	18.4840
 2.1330	18.5240
 2.1340	18.5640
 2.1350	18.6050
 2.1360	18.6500
 2.1370	18.6920
 2.1380	18.7310
 2.1390	18.7710
 2.1400	18.8110
 2.1410	18.8490
 2.1420	18.8860
 2.1430	18.9220
 2.1440	18.9600
 2.1450	18.9960
 2.1460	19.0350
 2.1470	19.0770
 2.1480	19.1160
 2.1490	19.1570
 2.1500	19.1960
 2.1510	19.2350
 2.1520	19.2710
 2.1530	19.3030
 2.1540	19.3370
 2.1550	19.3660
 2.1560	19.4000
 2.1570	19.4410
 2.1580	19.4790
 2.1590	19.5190
 2.1600	19.5590
 2.1610	19.5940
 2.1620	19.6270
 2.1630	19.6600
 2.1640	19.6900
 2.1650	19.7240
 2.1660	19.7610
 2.1670	19.7970
 2.1680	19.8320
 2.1690	19.8700
 2.1700	19.9080
 2.1710	19.9460
 2.1720	19.9880
 2.1730	20.0270
 2.1740	20.0660
 2.1750	20.1010
 2.1760	20.1330
 2.1770	20.1650
 2.1780	20.1930
 2.1790	20.2220
 2.1800	20.2520
 2.1810	20.2820
 2.1820	20.3100
 2.1830	20.3400
 2.1840	20.3730
 2.1850	20.4100
 2.1860	20.4440
 2.1870	20.4820
 2.1880	20.5140
 2.1890	20.5410
 2.1900	20.5710
 2.1910	20.6040
 2.1920	20.6320
 2.1930	20.6570
 2.1940	20.6840
 2.1950	20.7070
 2.1960	20.7310
 2.1970	20.7580
 2.1980	20.7840
 2.1990	20.8080
 2.2000	20.8320
 2.2010	20.8570
 2.2020	20.8790
 2.2030	20.8980
 2.2040	20.9150
 2.2050	20.9280
 2.2060	20.9390
 2.2070	20.9520
 2.2080	20.9640
 2.2090	20.9730
 2.2100	20.9830
 2.2110	20.9900
 2.2120	20.9920
 2.2130	20.9960
 2.2140	21.0020
 2.2150	21.0040
 2.2160	21.0050
 2.2170	21.0030
 2.2180	21.0000
 2.2190	20.9950
 2.2200	20.9880
 2.2210	20.9790
 2.2220	20.9700
 2.2230	20.9550
 2.2240	20.9390
 2.2250	20.9180
 2.2260	20.8950
 2.2270	20.8650
 2.2280	20.8270
 2.2290	20.7890
 2.2300	20.7460
 2.2310	20.7010
 2.2320	20.6580
 2.2330	20.6120
 2.2340	20.5630
 2.2350	20.5120
 2.2360	20.4530
 2.2370	20.3880
 2.2380	20.3210
 2.2390	20.2460
 2.2400	20.1780
 2.2410	20.1140
 2.2420	20.0400
 2.2430	19.9650
 2.2440	19.8820
 2.2450	19.7860
 2.2460	19.6950
 2.2470	19.6040
 2.2480	19.5090
 2.2490	19.4160
 2.2500	19.3170
 2.2510	19.2140
 2.2520	19.1080
 2.2530	18.9950
 2.2540	18.8850
 2.2550	18.7710
 2.2560	18.6590
 2.2570	18.5510
 2.2580	18.4380
 2.2590	18.3220
 2.2600	18.2090
 2.2610	18.0980
 2.2620	17.9850
 2.2630	17.8710
 2.2640	17.7600
 2.2650	17.6430
 2.2660	17.5290
 2.2670	17.4230
 2.2680	17.3220
 2.2690	17.2250
 2.2700	17.1360
 2.2710	17.0440
 2.2720	16.9540
 2.2730	16.8680
 2.2740	16.7840
 2.2750	16.7070
 2.2760	16.6350
 2.2770	16.5640
 2.2780	16.4940
 2.2790	16.4290
 2.2800	16.3690
 2.2810	16.3070
 2.2820	16.2530
 2.2830	16.1910
 2.2840	16.1260
 2.2850	16.0580
 2.2860	15.9840
 2.2870	15.9150
 2.2880	15.8480
 2.2890	15.7800
 2.2900	15.7180
 2.2910	15.6480
 2.2920	15.5700
 2.2930	15.4940
 2.2940	15.4170
 2.2950	15.3380
 2.2960	15.2600
 2.2970	15.1820
 2.2980	15.1030
 2.2990	15.0220
 2.3000	14.9510
 2.3010	14.8850
 2.3020	14.8200
 2.3030	14.7590
 2.3040	14.6960
 2.3050	14.6320
 2.3060	14.5790
 2.3070	14.5370
 2.3080	14.5040
 2.3090	14.4800
 2.3100	14.4640
 2.3110	14.4540
 2.3120	14.4520
 2.3130	14.4610
 2.3140	14.4690
 2.3150	14.4850
 2.3160	14.4960
 2.3170	14.5110
 2.3180	14.5180
 2.3190	14.5200
 2.3200	14.5210
 2.3210	14.5170
 2.3220	14.5090
 2.3230	14.5020
 2.3240	14.4850
 2.3250	14.4580
 2.3260	14.4310
 2.3270	14.3990
 2.3280	14.3640
 2.3290	14.3260
 2.3300	14.2900
 2.3310	14.2500
 2.3320	14.2140
 2.3330	14.1830
 2.3340	14.1460
 2.3350	14.1090
 2.3360	14.0670
 2.3370	14.0150
 2.3380	13.9680
 2.3390	13.9170
 2.3400	13.8700
 2.3410	13.8270
 2.3420	13.7860
 2.3430	13.7490
 2.3440	13.7110
 2.3450	13.6780
 2.3460	13.6370
 2.3470	13.5840
 2.3480	13.5450
 2.3490	13.5090
 2.3500	13.4770
 2.3510	13.4580
 2.3520	13.4340
 2.3530	13.4070
 2.3540	13.3820
 2.3550	13.3590
 2.3560	13.3390
 2.3570	13.3260
 2.3580	13.3090
 2.3590	13.2920
 2.3600	13.2770
 2.3610	13.2620
 2.3620	13.2460
 2.3630	13.2260
 2.3640	13.2000
 2.3650	13.1660
 2.3660	13.1250
 2.3670	13.0910
 2.3680	13.0660
 2.3690	13.0350
 2.3700	13.0040
 2.3710	12.9830
 2.3720	12.9510
 2.3730	12.9210
 2.3740	12.9020
 2.3750	12.8670
 2.3760	12.8310
 2.3770	12.8070
 2.3780	12.7710
 2.3790	12.7340
 2.3800	12.7040
 2.3810	12.6660
 2.3820	12.6290
 2.3830	12.5960
 2.3840	12.5580
 2.3850	12.5220
 2.3860	12.4850
 2.3870	12.4510
 2.3880	12.4140
 2.3890	12.3720
 2.3900	12.3380
 2.3910	12.3040
 2.3920	12.2660
 2.3930	12.2320
 2.3940	12.1910
 2.3950	12.1450
 2.3960	12.1030
 2.3970	12.0620
 2.3980	12.0250
 2.3990	11.9950
 2.4000	11.9650
 2.4010	11.9330
 2.4020	11.9000
 2.4030	11.8580
 2.4040	11.8170
 2.4050	11.7850
 2.4060	11.7470
 2.4070	11.7010
 2.4080	11.6520
 2.4090	11.6040
 2.4100	11.5610
 2.4110	11.5280
 2.4120	11.4970
 2.4130	11.4620
 2.4140	11.4150
 2.4150	11.3610
 2.4160	11.3100
 2.4170	11.2600
 2.4180	11.2130
 2.4190	11.1670
 2.4200	11.1180
 2.4210	11.0700
 2.4220	11.0200
 2.4230	10.9710
 2.4240	10.9170
 2.4250	10.8700
 2.4260	10.8310
 2.4270	10.7990
 2.4280	10.7700
 2.4290	10.7340
 2.4300	10.6760
 2.4310	10.6120
 2.4320	10.5600
 2.4330	10.5010
 2.4340	10.4410
 2.4350	10.3630
 2.4360	10.2910
 2.4370	10.2430
 2.4380	10.1880
 2.4390	10.1590
 2.4400	10.1380
 2.4410	10.0940
 2.4420	10.0580
 2.4430	10.0310
 2.4440	 9.9880
 2.4450	 9.9370
 2.4460	 9.8830
 2.4470	 9.8150
 2.4480	 9.7530
 2.4490	 9.7100
 2.4500	 9.6590
 2.4510	 9.6170
 2.4520	 9.5610
 2.4530	 9.4900
 2.4540	 9.4330
 2.4550	 9.3880
 2.4560	 9.3510
 2.4570	 9.3250
 2.4580	 9.2940
 2.4590	 9.2410
 2.4600	 9.1760
 2.4610	 9.1220
 2.4620	 9.0900
 2.4630	 9.0600
 2.4640	 9.0370
 2.4650	 9.0140
 2.4660	 8.9570
 2.4670	 8.9140
 2.4680	 8.8780
 2.4690	 8.8480
 2.4700	 8.8130
 2.4710	 8.7740
 2.4720	 8.7420
 2.4730	 8.7050
 2.4740	 8.6670
 2.4750	 8.6560
 2.4760	 8.6220
 2.4770	 8.5590
 2.4780	 8.5350
 2.4790	 8.5130
 2.4800	 8.4940
 2.4810	 8.5110
 2.4820	 8.4710
 2.4830	 8.4420
 2.4840	 8.4200
 2.4850	 8.3840
 2.4860	 8.3500
 2.4870	 8.3320
 2.4880	 8.3150
 2.4890	 8.3030
 2.4900	 8.3310
 2.4910	 8.3440
 2.4920	 8.3250
 2.4930	 8.3000
 2.4940	 8.2380
 2.4950	 8.1910
 2.4960	 8.1810
 2.4970	 8.1990
 2.4980	 8.2570
 2.4990	 8.3030
 2.5000	 8.2890
