Name: Brachychiton rupestris
Type: vegetation
Class: Tree
Genus: Brachychiton
Species: rupestris
Sample No.: JPL085
Owner: JPL
Wavelength Range: VSWIR
Origin: 34.12475; - 118.1142; WGS84
Collection Date: 2/2/2016
Description: Samples were collected at the Huntington Garden in San Marino California as part of a JPL Subcontract studying HyTES imagery. Samples were taken to JPL and processed within 48 hours of collection. The same leaves were processed in the Nicolet and then measured using the ASD.
Measurement: Bidirectional reflectance
First Column: X
Second Column: Y
X Units: Wavelength (micrometer)
Y Units: Reflectance (percentage)
First X Value: 0.35
Last X Value: 2.5
Number of X Values: 2151
Additional Information: 

 0.3500	 4.6280
 0.3510	 4.9790
 0.3520	 5.2800
 0.3530	 5.0200
 0.3540	 4.2660
 0.3550	 4.5990
 0.3560	 5.0610
 0.3570	 5.1280
 0.3580	 4.7830
 0.3590	 6.1370
 0.3600	 6.4570
 0.3610	 5.1100
 0.3620	 4.9230
 0.3630	 4.2550
 0.3640	 3.9290
 0.3650	 4.6700
 0.3660	 4.7370
 0.3670	 4.6730
 0.3680	 4.8500
 0.3690	 5.4190
 0.3700	 5.8040
 0.3710	 5.7140
 0.3720	 5.3440
 0.3730	 5.6670
 0.3740	 5.7200
 0.3750	 5.2750
 0.3760	 4.5920
 0.3770	 4.8650
 0.3780	 5.0510
 0.3790	 4.9470
 0.3800	 5.1430
 0.3810	 5.7260
 0.3820	 5.9710
 0.3830	 5.5990
 0.3840	 5.5530
 0.3850	 5.5660
 0.3860	 5.5460
 0.3870	 5.4580
 0.3880	 5.3430
 0.3890	 5.2060
 0.3900	 5.1250
 0.3910	 5.2420
 0.3920	 4.9950
 0.3930	 4.8710
 0.3940	 5.2360
 0.3950	 5.6180
 0.3960	 5.7180
 0.3970	 5.7890
 0.3980	 6.1890
 0.3990	 5.9090
 0.4000	 5.6320
 0.4010	 5.6790
 0.4020	 5.6930
 0.4030	 5.4070
 0.4040	 5.2890
 0.4050	 5.6420
 0.4060	 5.6200
 0.4070	 5.4660
 0.4080	 5.3840
 0.4090	 5.5110
 0.4100	 5.6780
 0.4110	 5.6980
 0.4120	 5.5530
 0.4130	 5.4850
 0.4140	 5.6300
 0.4150	 5.8080
 0.4160	 5.8010
 0.4170	 5.7500
 0.4180	 5.8200
 0.4190	 6.0020
 0.4200	 6.1340
 0.4210	 6.0700
 0.4220	 5.9930
 0.4230	 6.0340
 0.4240	 6.0310
 0.4250	 5.9480
 0.4260	 5.9280
 0.4270	 6.1290
 0.4280	 6.1820
 0.4290	 6.1990
 0.4300	 6.2170
 0.4310	 6.1100
 0.4320	 6.0990
 0.4330	 6.1690
 0.4340	 6.2320
 0.4350	 6.1920
 0.4360	 6.2250
 0.4370	 6.2970
 0.4380	 6.2370
 0.4390	 6.3310
 0.4400	 6.4120
 0.4410	 6.3850
 0.4420	 6.4890
 0.4430	 6.4870
 0.4440	 6.4150
 0.4450	 6.3980
 0.4460	 6.4450
 0.4470	 6.3900
 0.4480	 6.2800
 0.4490	 6.4150
 0.4500	 6.4270
 0.4510	 6.4330
 0.4520	 6.5460
 0.4530	 6.4810
 0.4540	 6.4610
 0.4550	 6.5090
 0.4560	 6.5190
 0.4570	 6.4880
 0.4580	 6.4640
 0.4590	 6.4910
 0.4600	 6.6020
 0.4610	 6.6310
 0.4620	 6.5650
 0.4630	 6.4780
 0.4640	 6.5730
 0.4650	 6.6120
 0.4660	 6.5700
 0.4670	 6.6470
 0.4680	 6.6250
 0.4690	 6.5670
 0.4700	 6.5600
 0.4710	 6.6230
 0.4720	 6.6220
 0.4730	 6.5560
 0.4740	 6.5030
 0.4750	 6.5100
 0.4760	 6.5660
 0.4770	 6.6290
 0.4780	 6.6250
 0.4790	 6.5630
 0.4800	 6.5480
 0.4810	 6.6550
 0.4820	 6.6910
 0.4830	 6.6220
 0.4840	 6.5290
 0.4850	 6.5810
 0.4860	 6.5960
 0.4870	 6.6070
 0.4880	 6.6480
 0.4890	 6.6590
 0.4900	 6.6840
 0.4910	 6.6920
 0.4920	 6.6360
 0.4930	 6.6470
 0.4940	 6.7040
 0.4950	 6.7570
 0.4960	 6.7400
 0.4970	 6.7620
 0.4980	 6.7740
 0.4990	 6.7320
 0.5000	 6.7920
 0.5010	 6.8420
 0.5020	 6.8630
 0.5030	 6.9170
 0.5040	 6.9790
 0.5050	 7.0070
 0.5060	 7.0020
 0.5070	 7.0610
 0.5080	 7.1800
 0.5090	 7.2880
 0.5100	 7.3080
 0.5110	 7.3710
 0.5120	 7.4450
 0.5130	 7.5300
 0.5140	 7.6820
 0.5150	 7.7880
 0.5160	 7.8740
 0.5170	 7.9970
 0.5180	 8.1720
 0.5190	 8.3640
 0.5200	 8.5480
 0.5210	 8.7200
 0.5220	 8.9310
 0.5230	 9.0970
 0.5240	 9.2050
 0.5250	 9.4490
 0.5260	 9.6630
 0.5270	 9.8320
 0.5280	10.0030
 0.5290	10.2140
 0.5300	10.3890
 0.5310	10.5180
 0.5320	10.6690
 0.5330	10.8140
 0.5340	10.9650
 0.5350	11.1290
 0.5360	11.2610
 0.5370	11.3730
 0.5380	11.4750
 0.5390	11.5730
 0.5400	11.6620
 0.5410	11.7720
 0.5420	11.8970
 0.5430	11.9550
 0.5440	12.0260
 0.5450	12.0910
 0.5460	12.1130
 0.5470	12.1530
 0.5480	12.2170
 0.5490	12.2820
 0.5500	12.2950
 0.5510	12.3180
 0.5520	12.3550
 0.5530	12.3860
 0.5540	12.3530
 0.5550	12.3220
 0.5560	12.3100
 0.5570	12.2880
 0.5580	12.2160
 0.5590	12.1370
 0.5600	12.0780
 0.5610	12.0100
 0.5620	11.9150
 0.5630	11.8080
 0.5640	11.7120
 0.5650	11.6210
 0.5660	11.5270
 0.5670	11.4160
 0.5680	11.2660
 0.5690	11.1190
 0.5700	10.9950
 0.5710	10.8900
 0.5720	10.7480
 0.5730	10.6140
 0.5740	10.4930
 0.5750	10.3650
 0.5760	10.2640
 0.5770	10.1720
 0.5780	10.0790
 0.5790	10.0020
 0.5800	 9.9250
 0.5810	 9.8540
 0.5820	 9.8010
 0.5830	 9.7460
 0.5840	 9.6770
 0.5850	 9.5980
 0.5860	 9.5300
 0.5870	 9.4890
 0.5880	 9.4580
 0.5890	 9.4160
 0.5900	 9.3490
 0.5910	 9.3130
 0.5920	 9.3140
 0.5930	 9.3220
 0.5940	 9.2870
 0.5950	 9.2510
 0.5960	 9.2400
 0.5970	 9.2370
 0.5980	 9.2110
 0.5990	 9.1740
 0.6000	 9.1470
 0.6010	 9.1040
 0.6020	 9.0640
 0.6030	 9.0400
 0.6040	 9.0230
 0.6050	 8.9630
 0.6060	 8.9040
 0.6070	 8.8700
 0.6080	 8.7860
 0.6090	 8.7160
 0.6100	 8.6610
 0.6110	 8.5910
 0.6120	 8.5370
 0.6130	 8.4840
 0.6140	 8.4170
 0.6150	 8.3220
 0.6160	 8.2610
 0.6170	 8.2190
 0.6180	 8.1660
 0.6190	 8.1340
 0.6200	 8.1100
 0.6210	 8.0750
 0.6220	 8.0090
 0.6230	 7.9700
 0.6240	 7.9630
 0.6250	 7.9710
 0.6260	 7.9400
 0.6270	 7.9290
 0.6280	 7.9350
 0.6290	 7.9300
 0.6300	 7.9150
 0.6310	 7.8890
 0.6320	 7.8660
 0.6330	 7.8750
 0.6340	 7.8580
 0.6350	 7.8400
 0.6360	 7.8420
 0.6370	 7.8130
 0.6380	 7.7740
 0.6390	 7.7340
 0.6400	 7.6960
 0.6410	 7.6410
 0.6420	 7.5980
 0.6430	 7.5720
 0.6440	 7.5340
 0.6450	 7.4760
 0.6460	 7.4130
 0.6470	 7.3630
 0.6480	 7.3220
 0.6490	 7.2840
 0.6500	 7.2510
 0.6510	 7.2270
 0.6520	 7.2290
 0.6530	 7.2230
 0.6540	 7.1880
 0.6550	 7.1480
 0.6560	 7.1180
 0.6570	 7.1030
 0.6580	 7.0950
 0.6590	 7.0440
 0.6600	 6.9900
 0.6610	 6.9540
 0.6620	 6.9200
 0.6630	 6.8950
 0.6640	 6.8580
 0.6650	 6.8090
 0.6660	 6.8100
 0.6670	 6.7940
 0.6680	 6.7640
 0.6690	 6.7530
 0.6700	 6.7300
 0.6710	 6.7160
 0.6720	 6.7170
 0.6730	 6.7090
 0.6740	 6.7060
 0.6750	 6.7150
 0.6760	 6.7360
 0.6770	 6.7560
 0.6780	 6.7750
 0.6790	 6.7900
 0.6800	 6.8020
 0.6810	 6.7960
 0.6820	 6.8270
 0.6830	 6.9020
 0.6840	 6.9320
 0.6850	 6.9820
 0.6860	 7.0530
 0.6870	 7.1310
 0.6880	 7.2110
 0.6890	 7.3300
 0.6900	 7.5050
 0.6910	 7.7300
 0.6920	 8.0120
 0.6930	 8.3430
 0.6940	 8.7270
 0.6950	 9.1930
 0.6960	 9.7410
 0.6970	10.3590
 0.6980	11.0320
 0.6990	11.7750
 0.7000	12.5690
 0.7010	13.4050
 0.7020	14.2720
 0.7030	15.1710
 0.7040	16.0860
 0.7050	17.0080
 0.7060	17.9360
 0.7070	18.8630
 0.7080	19.7770
 0.7090	20.6750
 0.7100	21.5840
 0.7110	22.4820
 0.7120	23.3570
 0.7130	24.2170
 0.7140	25.0750
 0.7150	25.9300
 0.7160	26.7750
 0.7170	27.6030
 0.7180	28.3920
 0.7190	29.1610
 0.7200	29.9360
 0.7210	30.6920
 0.7220	31.4040
 0.7230	32.0820
 0.7240	32.7640
 0.7250	33.4150
 0.7260	34.0400
 0.7270	34.6450
 0.7280	35.2020
 0.7290	35.7420
 0.7300	36.2540
 0.7310	36.7200
 0.7320	37.1810
 0.7330	37.6050
 0.7340	37.9930
 0.7350	38.3920
 0.7360	38.7510
 0.7370	39.0860
 0.7380	39.4100
 0.7390	39.6870
 0.7400	39.9590
 0.7410	40.2200
 0.7420	40.4510
 0.7430	40.6590
 0.7440	40.8680
 0.7450	41.0760
 0.7460	41.2600
 0.7470	41.4130
 0.7480	41.5480
 0.7490	41.6780
 0.7500	41.8140
 0.7510	41.9340
 0.7520	42.0320
 0.7530	42.1170
 0.7540	42.2230
 0.7550	42.3130
 0.7560	42.3800
 0.7570	42.4460
 0.7580	42.5100
 0.7590	42.5670
 0.7600	42.6180
 0.7610	42.6780
 0.7620	42.7220
 0.7630	42.7640
 0.7640	42.8160
 0.7650	42.8270
 0.7660	42.8420
 0.7670	42.8730
 0.7680	42.9040
 0.7690	42.9340
 0.7700	42.9500
 0.7710	42.9580
 0.7720	42.9840
 0.7730	42.9900
 0.7740	42.9980
 0.7750	43.0260
 0.7760	43.0390
 0.7770	43.0480
 0.7780	43.0480
 0.7790	43.0380
 0.7800	43.0680
 0.7810	43.0950
 0.7820	43.0930
 0.7830	43.0690
 0.7840	43.0880
 0.7850	43.1000
 0.7860	43.0730
 0.7870	43.0560
 0.7880	43.0510
 0.7890	43.0550
 0.7900	43.0590
 0.7910	43.0520
 0.7920	43.0570
 0.7930	43.0570
 0.7940	43.0180
 0.7950	43.0180
 0.7960	43.0370
 0.7970	43.0420
 0.7980	43.0130
 0.7990	43.0010
 0.8000	42.9890
 0.8010	42.9570
 0.8020	42.9480
 0.8030	42.9490
 0.8040	42.9460
 0.8050	42.9260
 0.8060	42.8930
 0.8070	42.8750
 0.8080	42.8780
 0.8090	42.8860
 0.8100	42.8430
 0.8110	42.8110
 0.8120	42.8170
 0.8130	42.7980
 0.8140	42.7830
 0.8150	42.7550
 0.8160	42.7120
 0.8170	42.7350
 0.8180	42.7220
 0.8190	42.6850
 0.8200	42.6820
 0.8210	42.6870
 0.8220	42.6540
 0.8230	42.6060
 0.8240	42.6140
 0.8250	42.6070
 0.8260	42.5860
 0.8270	42.5700
 0.8280	42.5810
 0.8290	42.5640
 0.8300	42.5470
 0.8310	42.5520
 0.8320	42.5220
 0.8330	42.5080
 0.8340	42.5080
 0.8350	42.4990
 0.8360	42.4820
 0.8370	42.4790
 0.8380	42.4860
 0.8390	42.4850
 0.8400	42.4910
 0.8410	42.4950
 0.8420	42.4950
 0.8430	42.5010
 0.8440	42.4770
 0.8450	42.4650
 0.8460	42.4880
 0.8470	42.4770
 0.8480	42.4600
 0.8490	42.4610
 0.8500	42.4930
 0.8510	42.5050
 0.8520	42.5270
 0.8530	42.5400
 0.8540	42.5120
 0.8550	42.5250
 0.8560	42.5540
 0.8570	42.5750
 0.8580	42.5770
 0.8590	42.6050
 0.8600	42.5980
 0.8610	42.5620
 0.8620	42.6350
 0.8630	42.6530
 0.8640	42.6230
 0.8650	42.5970
 0.8660	42.6300
 0.8670	42.6520
 0.8680	42.6640
 0.8690	42.6870
 0.8700	42.7330
 0.8710	42.7360
 0.8720	42.7160
 0.8730	42.7320
 0.8740	42.7690
 0.8750	42.7710
 0.8760	42.7440
 0.8770	42.7480
 0.8780	42.8130
 0.8790	42.8680
 0.8800	42.8610
 0.8810	42.7920
 0.8820	42.7960
 0.8830	42.8430
 0.8840	42.8770
 0.8850	42.8830
 0.8860	42.9080
 0.8870	42.9370
 0.8880	42.9460
 0.8890	42.9500
 0.8900	42.9810
 0.8910	42.9920
 0.8920	42.9400
 0.8930	42.9480
 0.8940	42.9930
 0.8950	43.0300
 0.8960	43.0130
 0.8970	42.9870
 0.8980	42.9950
 0.8990	43.0260
 0.9000	43.0250
 0.9010	43.0700
 0.9020	43.0710
 0.9030	43.0160
 0.9040	43.0160
 0.9050	43.0260
 0.9060	43.0600
 0.9070	43.0970
 0.9080	43.0510
 0.9090	43.0280
 0.9100	43.0690
 0.9110	43.1440
 0.9120	43.0920
 0.9130	43.0750
 0.9140	43.0890
 0.9150	43.0870
 0.9160	43.0550
 0.9170	43.0520
 0.9180	43.0620
 0.9190	43.0550
 0.9200	43.0850
 0.9210	43.0620
 0.9220	43.0100
 0.9230	43.0050
 0.9240	43.0030
 0.9250	43.0060
 0.9260	42.9900
 0.9270	42.9240
 0.9280	42.9210
 0.9290	42.9300
 0.9300	42.9180
 0.9310	42.8890
 0.9320	42.8940
 0.9330	42.9060
 0.9340	42.8700
 0.9350	42.7340
 0.9360	42.8060
 0.9370	42.9020
 0.9380	42.8800
 0.9390	42.7940
 0.9400	42.7100
 0.9410	42.6940
 0.9420	42.7280
 0.9430	42.6590
 0.9440	42.6410
 0.9450	42.6070
 0.9460	42.5230
 0.9470	42.5170
 0.9480	42.4760
 0.9490	42.4480
 0.9500	42.4600
 0.9510	42.3720
 0.9520	42.2320
 0.9530	42.1120
 0.9540	42.0560
 0.9550	42.0050
 0.9560	42.0390
 0.9570	42.0320
 0.9580	41.9040
 0.9590	41.9300
 0.9600	41.9200
 0.9610	41.8600
 0.9620	41.8010
 0.9630	41.7660
 0.9640	41.7850
 0.9650	41.8010
 0.9660	41.7400
 0.9670	41.6200
 0.9680	41.5930
 0.9690	41.6020
 0.9700	41.5410
 0.9710	41.5290
 0.9720	41.5850
 0.9730	41.6580
 0.9740	41.6730
 0.9750	41.5880
 0.9760	41.5950
 0.9770	41.6480
 0.9780	41.6030
 0.9790	41.4820
 0.9800	41.4570
 0.9810	41.4740
 0.9820	41.4170
 0.9830	41.4900
 0.9840	41.5370
 0.9850	41.5090
 0.9860	41.4430
 0.9870	41.4340
 0.9880	41.4700
 0.9890	41.5110
 0.9900	41.5170
 0.9910	41.5080
 0.9920	41.5170
 0.9930	41.4960
 0.9940	41.4090
 0.9950	41.4070
 0.9960	41.4570
 0.9970	41.5550
 0.9980	41.6710
 0.9990	41.6220
 1.0000	41.6290
 1.0010	41.8150
 1.0020	41.8160
 1.0030	41.8560
 1.0040	41.8700
 1.0050	41.8850
 1.0060	41.9300
 1.0070	41.9330
 1.0080	41.9390
 1.0090	41.9500
 1.0100	41.9600
 1.0110	41.9460
 1.0120	41.9560
 1.0130	41.9810
 1.0140	42.0120
 1.0150	42.0540
 1.0160	42.0910
 1.0170	42.1140
 1.0180	42.1220
 1.0190	42.1180
 1.0200	42.0840
 1.0210	42.0730
 1.0220	42.1200
 1.0230	42.1360
 1.0240	42.1610
 1.0250	42.1700
 1.0260	42.1500
 1.0270	42.1550
 1.0280	42.1770
 1.0290	42.1890
 1.0300	42.2130
 1.0310	42.2250
 1.0320	42.2210
 1.0330	42.2190
 1.0340	42.2310
 1.0350	42.2400
 1.0360	42.2370
 1.0370	42.2500
 1.0380	42.2800
 1.0390	42.3230
 1.0400	42.3590
 1.0410	42.4320
 1.0420	42.4500
 1.0430	42.4180
 1.0440	42.4260
 1.0450	42.4330
 1.0460	42.4400
 1.0470	42.4670
 1.0480	42.4840
 1.0490	42.4960
 1.0500	42.4990
 1.0510	42.4870
 1.0520	42.4830
 1.0530	42.5020
 1.0540	42.5210
 1.0550	42.5410
 1.0560	42.5980
 1.0570	42.6200
 1.0580	42.6200
 1.0590	42.6190
 1.0600	42.6030
 1.0610	42.5990
 1.0620	42.5880
 1.0630	42.5840
 1.0640	42.5930
 1.0650	42.6010
 1.0660	42.6140
 1.0670	42.6190
 1.0680	42.6230
 1.0690	42.6280
 1.0700	42.6310
 1.0710	42.6250
 1.0720	42.6310
 1.0730	42.6510
 1.0740	42.6560
 1.0750	42.6580
 1.0760	42.6580
 1.0770	42.6410
 1.0780	42.6460
 1.0790	42.6710
 1.0800	42.6760
 1.0810	42.6890
 1.0820	42.6890
 1.0830	42.6510
 1.0840	42.6440
 1.0850	42.6570
 1.0860	42.6610
 1.0870	42.6690
 1.0880	42.6960
 1.0890	42.7020
 1.0900	42.6980
 1.0910	42.6860
 1.0920	42.6600
 1.0930	42.6470
 1.0940	42.6220
 1.0950	42.6150
 1.0960	42.6330
 1.0970	42.6300
 1.0980	42.6160
 1.0990	42.6110
 1.1000	42.5970
 1.1010	42.5930
 1.1020	42.6100
 1.1030	42.6110
 1.1040	42.6070
 1.1050	42.6010
 1.1060	42.5840
 1.1070	42.5450
 1.1080	42.5340
 1.1090	42.5290
 1.1100	42.5220
 1.1110	42.5410
 1.1120	42.5310
 1.1130	42.4860
 1.1140	42.4740
 1.1150	42.4750
 1.1160	42.4600
 1.1170	42.4670
 1.1180	42.4480
 1.1190	42.4050
 1.1200	42.3480
 1.1210	42.2970
 1.1220	42.2550
 1.1230	42.2280
 1.1240	42.2220
 1.1250	42.2030
 1.1260	42.1990
 1.1270	42.1670
 1.1280	42.1210
 1.1290	42.0680
 1.1300	41.9970
 1.1310	41.9300
 1.1320	41.8640
 1.1330	41.7880
 1.1340	41.7040
 1.1350	41.6240
 1.1360	41.5410
 1.1370	41.4530
 1.1380	41.3620
 1.1390	41.2830
 1.1400	41.1900
 1.1410	41.0790
 1.1420	40.9810
 1.1430	40.8840
 1.1440	40.7810
 1.1450	40.6800
 1.1460	40.5800
 1.1470	40.4740
 1.1480	40.3720
 1.1490	40.2760
 1.1500	40.1830
 1.1510	40.0890
 1.1520	40.0000
 1.1530	39.9080
 1.1540	39.8300
 1.1550	39.7550
 1.1560	39.6960
 1.1570	39.6480
 1.1580	39.6160
 1.1590	39.5760
 1.1600	39.5290
 1.1610	39.4850
 1.1620	39.4350
 1.1630	39.3970
 1.1640	39.3650
 1.1650	39.3350
 1.1660	39.3140
 1.1670	39.2950
 1.1680	39.2830
 1.1690	39.2610
 1.1700	39.2340
 1.1710	39.2020
 1.1720	39.1540
 1.1730	39.1290
 1.1740	39.1070
 1.1750	39.1080
 1.1760	39.1180
 1.1770	39.1100
 1.1780	39.0930
 1.1790	39.0780
 1.1800	39.0560
 1.1810	39.0330
 1.1820	39.0110
 1.1830	38.9850
 1.1840	38.9610
 1.1850	38.9460
 1.1860	38.9290
 1.1870	38.9030
 1.1880	38.8830
 1.1890	38.8630
 1.1900	38.8450
 1.1910	38.8310
 1.1920	38.8170
 1.1930	38.7970
 1.1940	38.7890
 1.1950	38.7890
 1.1960	38.7940
 1.1970	38.7930
 1.1980	38.7870
 1.1990	38.7740
 1.2000	38.7530
 1.2010	38.7420
 1.2020	38.7320
 1.2030	38.7220
 1.2040	38.7340
 1.2050	38.7520
 1.2060	38.7730
 1.2070	38.7930
 1.2080	38.7940
 1.2090	38.8000
 1.2100	38.8070
 1.2110	38.8180
 1.2120	38.8400
 1.2130	38.8610
 1.2140	38.8820
 1.2150	38.9040
 1.2160	38.9270
 1.2170	38.9520
 1.2180	38.9830
 1.2190	39.0090
 1.2200	39.0470
 1.2210	39.0870
 1.2220	39.1160
 1.2230	39.1500
 1.2240	39.1840
 1.2250	39.2150
 1.2260	39.2470
 1.2270	39.2720
 1.2280	39.3030
 1.2290	39.3230
 1.2300	39.3390
 1.2310	39.3650
 1.2320	39.3810
 1.2330	39.3970
 1.2340	39.4120
 1.2350	39.4290
 1.2360	39.4440
 1.2370	39.4540
 1.2380	39.4650
 1.2390	39.4850
 1.2400	39.5030
 1.2410	39.5260
 1.2420	39.5490
 1.2430	39.5670
 1.2440	39.5900
 1.2450	39.6140
 1.2460	39.6300
 1.2470	39.6390
 1.2480	39.6460
 1.2490	39.6490
 1.2500	39.6560
 1.2510	39.6700
 1.2520	39.6780
 1.2530	39.6760
 1.2540	39.6800
 1.2550	39.6900
 1.2560	39.6930
 1.2570	39.7000
 1.2580	39.7070
 1.2590	39.7070
 1.2600	39.6960
 1.2610	39.6970
 1.2620	39.7010
 1.2630	39.6960
 1.2640	39.6960
 1.2650	39.7020
 1.2660	39.7030
 1.2670	39.7080
 1.2680	39.7270
 1.2690	39.7300
 1.2700	39.7200
 1.2710	39.7150
 1.2720	39.6900
 1.2730	39.6690
 1.2740	39.6740
 1.2750	39.6710
 1.2760	39.6610
 1.2770	39.6530
 1.2780	39.6310
 1.2790	39.6170
 1.2800	39.6190
 1.2810	39.6150
 1.2820	39.6110
 1.2830	39.5900
 1.2840	39.5520
 1.2850	39.5270
 1.2860	39.4990
 1.2870	39.4760
 1.2880	39.4600
 1.2890	39.4500
 1.2900	39.4250
 1.2910	39.4060
 1.2920	39.3840
 1.2930	39.3580
 1.2940	39.3420
 1.2950	39.3200
 1.2960	39.2950
 1.2970	39.2640
 1.2980	39.2300
 1.2990	39.2020
 1.3000	39.1650
 1.3010	39.1300
 1.3020	39.0940
 1.3030	39.0350
 1.3040	38.9800
 1.3050	38.9310
 1.3060	38.8670
 1.3070	38.8050
 1.3080	38.7490
 1.3090	38.6820
 1.3100	38.6320
 1.3110	38.5800
 1.3120	38.5200
 1.3130	38.4720
 1.3140	38.4080
 1.3150	38.3350
 1.3160	38.2590
 1.3170	38.1770
 1.3180	38.0850
 1.3190	38.0080
 1.3200	37.9220
 1.3210	37.8340
 1.3220	37.7500
 1.3230	37.6480
 1.3240	37.5490
 1.3250	37.4590
 1.3260	37.3650
 1.3270	37.2760
 1.3280	37.1810
 1.3290	37.0720
 1.3300	36.9600
 1.3310	36.8420
 1.3320	36.7270
 1.3330	36.6230
 1.3340	36.5170
 1.3350	36.4130
 1.3360	36.3060
 1.3370	36.1980
 1.3380	36.0890
 1.3390	35.9740
 1.3400	35.8650
 1.3410	35.7540
 1.3420	35.6470
 1.3430	35.5440
 1.3440	35.4380
 1.3450	35.3300
 1.3460	35.2210
 1.3470	35.1150
 1.3480	35.0070
 1.3490	34.9050
 1.3500	34.8100
 1.3510	34.7130
 1.3520	34.6130
 1.3530	34.5120
 1.3540	34.4020
 1.3550	34.2930
 1.3560	34.1860
 1.3570	34.0810
 1.3580	33.9860
 1.3590	33.8860
 1.3600	33.7790
 1.3610	33.6720
 1.3620	33.5600
 1.3630	33.4410
 1.3640	33.3160
 1.3650	33.1800
 1.3660	33.0470
 1.3670	32.9070
 1.3680	32.7560
 1.3690	32.6020
 1.3700	32.4250
 1.3710	32.2330
 1.3720	32.0400
 1.3730	31.8300
 1.3740	31.6050
 1.3750	31.3610
 1.3760	31.0950
 1.3770	30.8160
 1.3780	30.5210
 1.3790	30.2040
 1.3800	29.8660
 1.3810	29.5090
 1.3820	29.1330
 1.3830	28.7310
 1.3840	28.3230
 1.3850	27.9040
 1.3860	27.4650
 1.3870	27.0110
 1.3880	26.5460
 1.3890	26.0660
 1.3900	25.5710
 1.3910	25.0810
 1.3920	24.5840
 1.3930	24.0830
 1.3940	23.5870
 1.3950	23.0850
 1.3960	22.5920
 1.3970	22.1110
 1.3980	21.6370
 1.3990	21.1860
 1.4000	20.7460
 1.4010	20.3190
 1.4020	19.9050
 1.4030	19.5040
 1.4040	19.1190
 1.4050	18.7540
 1.4060	18.4100
 1.4070	18.0870
 1.4080	17.7830
 1.4090	17.4960
 1.4100	17.2280
 1.4110	16.9750
 1.4120	16.7360
 1.4130	16.5070
 1.4140	16.2940
 1.4150	16.1010
 1.4160	15.9210
 1.4170	15.7600
 1.4180	15.6120
 1.4190	15.4740
 1.4200	15.3470
 1.4210	15.2270
 1.4220	15.1190
 1.4230	15.0180
 1.4240	14.9220
 1.4250	14.8360
 1.4260	14.7590
 1.4270	14.6850
 1.4280	14.6200
 1.4290	14.5600
 1.4300	14.5050
 1.4310	14.4570
 1.4320	14.4190
 1.4330	14.3810
 1.4340	14.3480
 1.4350	14.3180
 1.4360	14.2890
 1.4370	14.2610
 1.4380	14.2440
 1.4390	14.2330
 1.4400	14.2280
 1.4410	14.2280
 1.4420	14.2230
 1.4430	14.2140
 1.4440	14.2050
 1.4450	14.2000
 1.4460	14.1960
 1.4470	14.1960
 1.4480	14.2030
 1.4490	14.2100
 1.4500	14.2200
 1.4510	14.2310
 1.4520	14.2370
 1.4530	14.2440
 1.4540	14.2510
 1.4550	14.2660
 1.4560	14.2850
 1.4570	14.3040
 1.4580	14.3290
 1.4590	14.3560
 1.4600	14.3820
 1.4610	14.4190
 1.4620	14.4620
 1.4630	14.5070
 1.4640	14.5560
 1.4650	14.6050
 1.4660	14.6520
 1.4670	14.6980
 1.4680	14.7510
 1.4690	14.8130
 1.4700	14.8800
 1.4710	14.9590
 1.4720	15.0370
 1.4730	15.1100
 1.4740	15.1920
 1.4750	15.2730
 1.4760	15.3560
 1.4770	15.4460
 1.4780	15.5350
 1.4790	15.6250
 1.4800	15.7170
 1.4810	15.8110
 1.4820	15.9060
 1.4830	16.0010
 1.4840	16.1020
 1.4850	16.2030
 1.4860	16.3020
 1.4870	16.4050
 1.4880	16.5070
 1.4890	16.6120
 1.4900	16.7170
 1.4910	16.8250
 1.4920	16.9300
 1.4930	17.0340
 1.4940	17.1370
 1.4950	17.2390
 1.4960	17.3430
 1.4970	17.4480
 1.4980	17.5510
 1.4990	17.6550
 1.5000	17.7610
 1.5010	17.8670
 1.5020	17.9780
 1.5030	18.0970
 1.5040	18.2100
 1.5050	18.3260
 1.5060	18.4370
 1.5070	18.5420
 1.5080	18.6510
 1.5090	18.7610
 1.5100	18.8650
 1.5110	18.9710
 1.5120	19.0770
 1.5130	19.1790
 1.5140	19.2870
 1.5150	19.3910
 1.5160	19.4920
 1.5170	19.5960
 1.5180	19.7020
 1.5190	19.8170
 1.5200	19.9340
 1.5210	20.0480
 1.5220	20.1590
 1.5230	20.2640
 1.5240	20.3660
 1.5250	20.4690
 1.5260	20.5690
 1.5270	20.6670
 1.5280	20.7670
 1.5290	20.8620
 1.5300	20.9590
 1.5310	21.0590
 1.5320	21.1520
 1.5330	21.2520
 1.5340	21.3470
 1.5350	21.4380
 1.5360	21.5360
 1.5370	21.6290
 1.5380	21.7170
 1.5390	21.8080
 1.5400	21.8970
 1.5410	21.9810
 1.5420	22.0700
 1.5430	22.1540
 1.5440	22.2350
 1.5450	22.3210
 1.5460	22.4120
 1.5470	22.5080
 1.5480	22.5980
 1.5490	22.6870
 1.5500	22.7750
 1.5510	22.8540
 1.5520	22.9310
 1.5530	23.0080
 1.5540	23.0840
 1.5550	23.1620
 1.5560	23.2450
 1.5570	23.3300
 1.5580	23.4110
 1.5590	23.4950
 1.5600	23.5780
 1.5610	23.6550
 1.5620	23.7300
 1.5630	23.8040
 1.5640	23.8790
 1.5650	23.9570
 1.5660	24.0300
 1.5670	24.0990
 1.5680	24.1670
 1.5690	24.2290
 1.5700	24.2960
 1.5710	24.3690
 1.5720	24.4340
 1.5730	24.5060
 1.5740	24.5730
 1.5750	24.6240
 1.5760	24.6770
 1.5770	24.7310
 1.5780	24.7840
 1.5790	24.8540
 1.5800	24.9230
 1.5810	24.9830
 1.5820	25.0530
 1.5830	25.1130
 1.5840	25.1740
 1.5850	25.2450
 1.5860	25.3070
 1.5870	25.3660
 1.5880	25.4230
 1.5890	25.4780
 1.5900	25.5330
 1.5910	25.5880
 1.5920	25.6520
 1.5930	25.7090
 1.5940	25.7690
 1.5950	25.8290
 1.5960	25.8800
 1.5970	25.9310
 1.5980	25.9730
 1.5990	26.0150
 1.6000	26.0600
 1.6010	26.1060
 1.6020	26.1640
 1.6030	26.2250
 1.6040	26.2770
 1.6050	26.3260
 1.6060	26.3730
 1.6070	26.4190
 1.6080	26.4710
 1.6090	26.5270
 1.6100	26.5800
 1.6110	26.6280
 1.6120	26.6720
 1.6130	26.7170
 1.6140	26.7560
 1.6150	26.7980
 1.6160	26.8410
 1.6170	26.8800
 1.6180	26.9210
 1.6190	26.9550
 1.6200	26.9840
 1.6210	27.0140
 1.6220	27.0440
 1.6230	27.0780
 1.6240	27.1140
 1.6250	27.1510
 1.6260	27.1850
 1.6270	27.2200
 1.6280	27.2510
 1.6290	27.2800
 1.6300	27.3010
 1.6310	27.3280
 1.6320	27.3590
 1.6330	27.3860
 1.6340	27.4160
 1.6350	27.4390
 1.6360	27.4560
 1.6370	27.4740
 1.6380	27.4920
 1.6390	27.5090
 1.6400	27.5210
 1.6410	27.5350
 1.6420	27.5470
 1.6430	27.5590
 1.6440	27.5750
 1.6450	27.5910
 1.6460	27.5970
 1.6470	27.6050
 1.6480	27.6180
 1.6490	27.6300
 1.6500	27.6440
 1.6510	27.6530
 1.6520	27.6480
 1.6530	27.6300
 1.6540	27.6100
 1.6550	27.5940
 1.6560	27.5850
 1.6570	27.5840
 1.6580	27.5850
 1.6590	27.5780
 1.6600	27.5700
 1.6610	27.5560
 1.6620	27.5390
 1.6630	27.5340
 1.6640	27.5190
 1.6650	27.5120
 1.6660	27.5190
 1.6670	27.5070
 1.6680	27.4950
 1.6690	27.4830
 1.6700	27.4600
 1.6710	27.4510
 1.6720	27.4520
 1.6730	27.4510
 1.6740	27.4450
 1.6750	27.4250
 1.6760	27.4050
 1.6770	27.3750
 1.6780	27.3450
 1.6790	27.3270
 1.6800	27.2980
 1.6810	27.2690
 1.6820	27.2420
 1.6830	27.2070
 1.6840	27.1740
 1.6850	27.1440
 1.6860	27.1070
 1.6870	27.0640
 1.6880	27.0180
 1.6890	26.9640
 1.6900	26.9180
 1.6910	26.8790
 1.6920	26.8310
 1.6930	26.7770
 1.6940	26.7270
 1.6950	26.6760
 1.6960	26.6260
 1.6970	26.5800
 1.6980	26.5330
 1.6990	26.4830
 1.7000	26.4330
 1.7010	26.3900
 1.7020	26.3340
 1.7030	26.2690
 1.7040	26.2070
 1.7050	26.1390
 1.7060	26.0740
 1.7070	26.0110
 1.7080	25.9460
 1.7090	25.8750
 1.7100	25.8170
 1.7110	25.7660
 1.7120	25.7120
 1.7130	25.6530
 1.7140	25.5800
 1.7150	25.5190
 1.7160	25.4700
 1.7170	25.4260
 1.7180	25.3750
 1.7190	25.3210
 1.7200	25.2660
 1.7210	25.2020
 1.7220	25.1530
 1.7230	25.1120
 1.7240	25.0630
 1.7250	25.0140
 1.7260	24.9680
 1.7270	24.9260
 1.7280	24.8940
 1.7290	24.8820
 1.7300	24.8670
 1.7310	24.8550
 1.7320	24.8410
 1.7330	24.8330
 1.7340	24.8420
 1.7350	24.8350
 1.7360	24.8200
 1.7370	24.8080
 1.7380	24.7930
 1.7390	24.7710
 1.7400	24.7480
 1.7410	24.7230
 1.7420	24.6910
 1.7430	24.6520
 1.7440	24.6100
 1.7450	24.5710
 1.7460	24.5250
 1.7470	24.4820
 1.7480	24.4470
 1.7490	24.4050
 1.7500	24.3560
 1.7510	24.3100
 1.7520	24.2680
 1.7530	24.2210
 1.7540	24.1720
 1.7550	24.1210
 1.7560	24.0640
 1.7570	24.0080
 1.7580	23.9590
 1.7590	23.9120
 1.7600	23.8680
 1.7610	23.8310
 1.7620	23.7950
 1.7630	23.7650
 1.7640	23.7360
 1.7650	23.7090
 1.7660	23.6820
 1.7670	23.6580
 1.7680	23.6330
 1.7690	23.6100
 1.7700	23.5860
 1.7710	23.5620
 1.7720	23.5400
 1.7730	23.5210
 1.7740	23.4980
 1.7750	23.4740
 1.7760	23.4510
 1.7770	23.4230
 1.7780	23.4040
 1.7790	23.3860
 1.7800	23.3770
 1.7810	23.3780
 1.7820	23.3680
 1.7830	23.3600
 1.7840	23.3500
 1.7850	23.3340
 1.7860	23.3200
 1.7870	23.3070
 1.7880	23.2920
 1.7890	23.2900
 1.7900	23.3050
 1.7910	23.3140
 1.7920	23.3270
 1.7930	23.3340
 1.7940	23.3310
 1.7950	23.3350
 1.7960	23.3470
 1.7970	23.3470
 1.7980	23.3460
 1.7990	23.3430
 1.8000	23.3210
 1.8010	23.3210
 1.8020	23.3380
 1.8030	23.3510
 1.8040	23.3740
 1.8050	23.3920
 1.8060	23.4100
 1.8070	23.4210
 1.8080	23.4330
 1.8090	23.4320
 1.8100	23.4130
 1.8110	23.4190
 1.8120	23.4230
 1.8130	23.4270
 1.8140	23.4350
 1.8150	23.4320
 1.8160	23.4310
 1.8170	23.4470
 1.8180	23.4660
 1.8190	23.4770
 1.8200	23.4880
 1.8210	23.5000
 1.8220	23.5040
 1.8230	23.5090
 1.8240	23.5050
 1.8250	23.4840
 1.8260	23.4740
 1.8270	23.4690
 1.8280	23.4590
 1.8290	23.4490
 1.8300	23.4320
 1.8310	23.6670
 1.8320	23.6390
 1.8330	23.6010
 1.8340	23.5910
 1.8350	23.5560
 1.8360	23.5070
 1.8370	23.4780
 1.8380	23.4290
 1.8390	23.3790
 1.8400	23.3290
 1.8410	23.2800
 1.8420	23.2190
 1.8430	23.1690
 1.8440	23.1170
 1.8450	23.0760
 1.8460	23.0270
 1.8470	22.9440
 1.8480	22.8380
 1.8490	22.7060
 1.8500	22.5770
 1.8510	22.4230
 1.8520	22.2770
 1.8530	22.1430
 1.8540	21.9990
 1.8550	21.8410
 1.8560	21.6680
 1.8570	21.4780
 1.8580	21.2910
 1.8590	21.0870
 1.8600	20.8700
 1.8610	20.6340
 1.8620	20.3830
 1.8630	20.1200
 1.8640	19.8230
 1.8650	19.5060
 1.8660	19.1890
 1.8670	18.8730
 1.8680	18.5680
 1.8690	18.2380
 1.8700	17.8860
 1.8710	17.5260
 1.8720	17.1260
 1.8730	16.7080
 1.8740	16.3190
 1.8750	15.8870
 1.8760	15.4470
 1.8770	15.0110
 1.8780	14.5460
 1.8790	14.1090
 1.8800	13.6920
 1.8810	13.2970
 1.8820	12.9020
 1.8830	12.5190
 1.8840	12.1200
 1.8850	11.7190
 1.8860	11.3270
 1.8870	10.9390
 1.8880	10.5920
 1.8890	10.2740
 1.8900	 9.9690
 1.8910	 9.6760
 1.8920	 9.4000
 1.8930	 9.1380
 1.8940	 8.8890
 1.8950	 8.6510
 1.8960	 8.4350
 1.8970	 8.2200
 1.8980	 8.0190
 1.8990	 7.8450
 1.9000	 7.6840
 1.9010	 7.5420
 1.9020	 7.4160
 1.9030	 7.3080
 1.9040	 7.2080
 1.9050	 7.1210
 1.9060	 7.0510
 1.9070	 7.0090
 1.9080	 6.9630
 1.9090	 6.9050
 1.9100	 6.8690
 1.9110	 6.8340
 1.9120	 6.7970
 1.9130	 6.7640
 1.9140	 6.7430
 1.9150	 6.7130
 1.9160	 6.6970
 1.9170	 6.6680
 1.9180	 6.6300
 1.9190	 6.5940
 1.9200	 6.5550
 1.9210	 6.5350
 1.9220	 6.5260
 1.9230	 6.5530
 1.9240	 6.5610
 1.9250	 6.5710
 1.9260	 6.5650
 1.9270	 6.5640
 1.9280	 6.5510
 1.9290	 6.5450
 1.9300	 6.5550
 1.9310	 6.5570
 1.9320	 6.5680
 1.9330	 6.5740
 1.9340	 6.5680
 1.9350	 6.5700
 1.9360	 6.5710
 1.9370	 6.5870
 1.9380	 6.6130
 1.9390	 6.6570
 1.9400	 6.6770
 1.9410	 6.6880
 1.9420	 6.6960
 1.9430	 6.7150
 1.9440	 6.7280
 1.9450	 6.7530
 1.9460	 6.7690
 1.9470	 6.7670
 1.9480	 6.7760
 1.9490	 6.7840
 1.9500	 6.8180
 1.9510	 6.8330
 1.9520	 6.8510
 1.9530	 6.8610
 1.9540	 6.8520
 1.9550	 6.8680
 1.9560	 6.8890
 1.9570	 6.9130
 1.9580	 6.9550
 1.9590	 6.9930
 1.9600	 7.0340
 1.9610	 7.0690
 1.9620	 7.1060
 1.9630	 7.1330
 1.9640	 7.1680
 1.9650	 7.2050
 1.9660	 7.2350
 1.9670	 7.2780
 1.9680	 7.3180
 1.9690	 7.3550
 1.9700	 7.3870
 1.9710	 7.4180
 1.9720	 7.4520
 1.9730	 7.4790
 1.9740	 7.5090
 1.9750	 7.5550
 1.9760	 7.6200
 1.9770	 7.6750
 1.9780	 7.7280
 1.9790	 7.7730
 1.9800	 7.8120
 1.9810	 7.8420
 1.9820	 7.8520
 1.9830	 7.8820
 1.9840	 7.9120
 1.9850	 7.9480
 1.9860	 8.0000
 1.9870	 8.0440
 1.9880	 8.1030
 1.9890	 8.1510
 1.9900	 8.1770
 1.9910	 8.2200
 1.9920	 8.2570
 1.9930	 8.2700
 1.9940	 8.3100
 1.9950	 8.3790
 1.9960	 8.4250
 1.9970	 8.4610
 1.9980	 8.5090
 1.9990	 8.5560
 2.0000	 8.5970
 2.0010	 8.6600
 2.0020	 8.7290
 2.0030	 8.7940
 2.0040	 8.8650
 2.0050	 8.9130
 2.0060	 8.9470
 2.0070	 8.9900
 2.0080	 9.0140
 2.0090	 9.0550
 2.0100	 9.1140
 2.0110	 9.1660
 2.0120	 9.2150
 2.0130	 9.2730
 2.0140	 9.3140
 2.0150	 9.3750
 2.0160	 9.4250
 2.0170	 9.4730
 2.0180	 9.5220
 2.0190	 9.5710
 2.0200	 9.6180
 2.0210	 9.6620
 2.0220	 9.7100
 2.0230	 9.7570
 2.0240	 9.8070
 2.0250	 9.8690
 2.0260	 9.9150
 2.0270	 9.9410
 2.0280	 9.9970
 2.0290	10.0400
 2.0300	10.0900
 2.0310	10.1350
 2.0320	10.1890
 2.0330	10.2310
 2.0340	10.2540
 2.0350	10.2960
 2.0360	10.3510
 2.0370	10.3990
 2.0380	10.4640
 2.0390	10.5060
 2.0400	10.5230
 2.0410	10.5520
 2.0420	10.5700
 2.0430	10.6030
 2.0440	10.6280
 2.0450	10.6540
 2.0460	10.6920
 2.0470	10.7310
 2.0480	10.7740
 2.0490	10.8320
 2.0500	10.8860
 2.0510	10.9410
 2.0520	10.9900
 2.0530	11.0490
 2.0540	11.0930
 2.0550	11.1190
 2.0560	11.1510
 2.0570	11.1810
 2.0580	11.2040
 2.0590	11.2400
 2.0600	11.2770
 2.0610	11.3220
 2.0620	11.3900
 2.0630	11.4330
 2.0640	11.4740
 2.0650	11.5070
 2.0660	11.5060
 2.0670	11.5360
 2.0680	11.5860
 2.0690	11.6250
 2.0700	11.6670
 2.0710	11.7130
 2.0720	11.7480
 2.0730	11.7890
 2.0740	11.8440
 2.0750	11.9190
 2.0760	11.9740
 2.0770	12.0320
 2.0780	12.0790
 2.0790	12.1110
 2.0800	12.1540
 2.0810	12.2030
 2.0820	12.2400
 2.0830	12.2790
 2.0840	12.3080
 2.0850	12.3110
 2.0860	12.3350
 2.0870	12.3630
 2.0880	12.3970
 2.0890	12.4410
 2.0900	12.5090
 2.0910	12.5520
 2.0920	12.5930
 2.0930	12.6280
 2.0940	12.6490
 2.0950	12.6770
 2.0960	12.6970
 2.0970	12.7360
 2.0980	12.7820
 2.0990	12.8320
 2.1000	12.9050
 2.1010	12.9600
 2.1020	13.0130
 2.1030	13.0530
 2.1040	13.0690
 2.1050	13.1020
 2.1060	13.1330
 2.1070	13.1600
 2.1080	13.1920
 2.1090	13.2380
 2.1100	13.2690
 2.1110	13.2870
 2.1120	13.3170
 2.1130	13.3470
 2.1140	13.3790
 2.1150	13.4300
 2.1160	13.4570
 2.1170	13.4630
 2.1180	13.4860
 2.1190	13.5020
 2.1200	13.5250
 2.1210	13.5530
 2.1220	13.6030
 2.1230	13.6350
 2.1240	13.6600
 2.1250	13.6930
 2.1260	13.7230
 2.1270	13.7640
 2.1280	13.8170
 2.1290	13.8600
 2.1300	13.9170
 2.1310	13.9510
 2.1320	13.9650
 2.1330	13.9870
 2.1340	14.0000
 2.1350	14.0160
 2.1360	14.0430
 2.1370	14.0560
 2.1380	14.0570
 2.1390	14.0640
 2.1400	14.0700
 2.1410	14.0620
 2.1420	14.0810
 2.1430	14.1120
 2.1440	14.1400
 2.1450	14.1840
 2.1460	14.2140
 2.1470	14.2400
 2.1480	14.2580
 2.1490	14.2590
 2.1500	14.2800
 2.1510	14.2930
 2.1520	14.3310
 2.1530	14.4160
 2.1540	14.4570
 2.1550	14.4900
 2.1560	14.5190
 2.1570	14.5120
 2.1580	14.5260
 2.1590	14.5540
 2.1600	14.5850
 2.1610	14.6200
 2.1620	14.6410
 2.1630	14.6440
 2.1640	14.6350
 2.1650	14.6180
 2.1660	14.5610
 2.1670	14.5560
 2.1680	14.5660
 2.1690	14.5750
 2.1700	14.6080
 2.1710	14.6350
 2.1720	14.6560
 2.1730	14.6820
 2.1740	14.7340
 2.1750	14.7570
 2.1760	14.7540
 2.1770	14.7620
 2.1780	14.7620
 2.1790	14.7620
 2.1800	14.7570
 2.1810	14.7710
 2.1820	14.7950
 2.1830	14.8190
 2.1840	14.8450
 2.1850	14.8850
 2.1860	14.9170
 2.1870	14.9380
 2.1880	14.9700
 2.1890	15.0260
 2.1900	15.0450
 2.1910	15.0410
 2.1920	15.0490
 2.1930	15.0390
 2.1940	15.0430
 2.1950	15.0530
 2.1960	15.0730
 2.1970	15.1070
 2.1980	15.1270
 2.1990	15.1510
 2.2000	15.1740
 2.2010	15.1910
 2.2020	15.1980
 2.2030	15.2030
 2.2040	15.2060
 2.2050	15.2090
 2.2060	15.1700
 2.2070	15.1670
 2.2080	15.1640
 2.2090	15.1940
 2.2100	15.2590
 2.2110	15.2870
 2.2120	15.3410
 2.2130	15.3410
 2.2140	15.2860
 2.2150	15.2570
 2.2160	15.1970
 2.2170	15.1850
 2.2180	15.2180
 2.2190	15.2140
 2.2200	15.2250
 2.2210	15.2130
 2.2220	15.1580
 2.2230	15.1240
 2.2240	15.0900
 2.2250	15.0660
 2.2260	15.0420
 2.2270	15.0280
 2.2280	15.0360
 2.2290	15.0320
 2.2300	15.0410
 2.2310	15.0310
 2.2320	14.9920
 2.2330	14.9600
 2.2340	14.9020
 2.2350	14.8120
 2.2360	14.7430
 2.2370	14.6670
 2.2380	14.6030
 2.2390	14.5460
 2.2400	14.4940
 2.2410	14.4460
 2.2420	14.3930
 2.2430	14.3290
 2.2440	14.2960
 2.2450	14.2770
 2.2460	14.2570
 2.2470	14.2760
 2.2480	14.2490
 2.2490	14.1890
 2.2500	14.1420
 2.2510	14.0740
 2.2520	14.0290
 2.2530	13.9910
 2.2540	13.9700
 2.2550	13.9960
 2.2560	13.9670
 2.2570	13.9250
 2.2580	13.8760
 2.2590	13.7660
 2.2600	13.6970
 2.2610	13.6500
 2.2620	13.6260
 2.2630	13.5620
 2.2640	13.5300
 2.2650	13.5170
 2.2660	13.4550
 2.2670	13.4060
 2.2680	13.3780
 2.2690	13.3150
 2.2700	13.2080
 2.2710	13.1570
 2.2720	13.1170
 2.2730	13.0810
 2.2740	13.0820
 2.2750	13.0450
 2.2760	12.9740
 2.2770	12.9490
 2.2780	12.9390
 2.2790	12.9170
 2.2800	12.9440
 2.2810	12.9070
 2.2820	12.8110
 2.2830	12.7480
 2.2840	12.6630
 2.2850	12.6060
 2.2860	12.5690
 2.2870	12.5460
 2.2880	12.5670
 2.2890	12.5340
 2.2900	12.4930
 2.2910	12.4370
 2.2920	12.3180
 2.2930	12.2420
 2.2940	12.1880
 2.2950	12.1330
 2.2960	12.0910
 2.2970	12.0450
 2.2980	11.9940
 2.2990	11.9550
 2.3000	11.9270
 2.3010	11.8710
 2.3020	11.8080
 2.3030	11.7470
 2.3040	11.6810
 2.3050	11.6530
 2.3060	11.6530
 2.3070	11.6340
 2.3080	11.5950
 2.3090	11.5520
 2.3100	11.4920
 2.3110	11.4500
 2.3120	11.4120
 2.3130	11.3820
 2.3140	11.3610
 2.3150	11.3310
 2.3160	11.3300
 2.3170	11.3510
 2.3180	11.3830
 2.3190	11.4510
 2.3200	11.5020
 2.3210	11.5780
 2.3220	11.5960
 2.3230	11.5900
 2.3240	11.5670
 2.3250	11.4870
 2.3260	11.4320
 2.3270	11.3620
 2.3280	11.3220
 2.3290	11.3040
 2.3300	11.2890
 2.3310	11.2960
 2.3320	11.2730
 2.3330	11.2300
 2.3340	11.1920
 2.3350	11.1590
 2.3360	11.1290
 2.3370	11.1060
 2.3380	11.0760
 2.3390	11.0420
 2.3400	10.9880
 2.3410	10.9080
 2.3420	10.8520
 2.3430	10.7860
 2.3440	10.7470
 2.3450	10.7480
 2.3460	10.7310
 2.3470	10.7190
 2.3480	10.6990
 2.3490	10.6740
 2.3500	10.6470
 2.3510	10.5980
 2.3520	10.5890
 2.3530	10.5990
 2.3540	10.6240
 2.3550	10.6510
 2.3560	10.6520
 2.3570	10.5610
 2.3580	10.4450
 2.3590	10.3890
 2.3600	10.3560
 2.3610	10.3850
 2.3620	10.4380
 2.3630	10.4370
 2.3640	10.4410
 2.3650	10.4620
 2.3660	10.4690
 2.3670	10.5000
 2.3680	10.5230
 2.3690	10.4820
 2.3700	10.4180
 2.3710	10.3500
 2.3720	10.2680
 2.3730	10.2210
 2.3740	10.2330
 2.3750	10.2330
 2.3760	10.1780
 2.3770	10.1260
 2.3780	10.0570
 2.3790	 9.9660
 2.3800	 9.9360
 2.3810	 9.8690
 2.3820	 9.8020
 2.3830	 9.8450
 2.3840	 9.8370
 2.3850	 9.8370
 2.3860	 9.9020
 2.3870	 9.8850
 2.3880	 9.8640
 2.3890	 9.8700
 2.3900	 9.8160
 2.3910	 9.7080
 2.3920	 9.6040
 2.3930	 9.5160
 2.3940	 9.4470
 2.3950	 9.3940
 2.3960	 9.4100
 2.3970	 9.4620
 2.3980	 9.4740
 2.3990	 9.4620
 2.4000	 9.4290
 2.4010	 9.4000
 2.4020	 9.3500
 2.4030	 9.4130
 2.4040	 9.4560
 2.4050	 9.3600
 2.4060	 9.3330
 2.4070	 9.2420
 2.4080	 9.1460
 2.4090	 9.1400
 2.4100	 9.0710
 2.4110	 9.0310
 2.4120	 9.0140
 2.4130	 9.0030
 2.4140	 9.0070
 2.4150	 8.9290
 2.4160	 8.9230
 2.4170	 8.8930
 2.4180	 8.8080
 2.4190	 8.8100
 2.4200	 8.7190
 2.4210	 8.6530
 2.4220	 8.6790
 2.4230	 8.6870
 2.4240	 8.6790
 2.4250	 8.6390
 2.4260	 8.6190
 2.4270	 8.5680
 2.4280	 8.5450
 2.4290	 8.5760
 2.4300	 8.5070
 2.4310	 8.4700
 2.4320	 8.4840
 2.4330	 8.4170
 2.4340	 8.4010
 2.4350	 8.4790
 2.4360	 8.4840
 2.4370	 8.4740
 2.4380	 8.4420
 2.4390	 8.2460
 2.4400	 8.1510
 2.4410	 8.1670
 2.4420	 8.0930
 2.4430	 8.0840
 2.4440	 8.0400
 2.4450	 7.8370
 2.4460	 7.8370
 2.4470	 7.8800
 2.4480	 7.7350
 2.4490	 7.7990
 2.4500	 7.7940
 2.4510	 7.7020
 2.4520	 7.8020
 2.4530	 7.7730
 2.4540	 7.7420
 2.4550	 7.7200
 2.4560	 7.7670
 2.4570	 7.9640
 2.4580	 7.9820
 2.4590	 8.0230
 2.4600	 7.9970
 2.4610	 7.7200
 2.4620	 7.5680
 2.4630	 7.5100
 2.4640	 7.4520
 2.4650	 7.5250
 2.4660	 7.6120
 2.4670	 7.5220
 2.4680	 7.3540
 2.4690	 7.0860
 2.4700	 7.0360
 2.4710	 7.2180
 2.4720	 7.3300
 2.4730	 7.5310
 2.4740	 7.6540
 2.4750	 7.7110
 2.4760	 7.7340
 2.4770	 7.6750
 2.4780	 7.7340
 2.4790	 7.8780
 2.4800	 7.9370
 2.4810	 8.0510
 2.4820	 8.1240
 2.4830	 8.1050
 2.4840	 8.0720
 2.4850	 7.8910
 2.4860	 7.6400
 2.4870	 7.3800
 2.4880	 7.2490
 2.4890	 7.3560
 2.4900	 7.4370
 2.4910	 7.5700
 2.4920	 7.7540
 2.4930	 7.6500
 2.4940	 7.5310
 2.4950	 7.4130
 2.4960	 7.1440
 2.4970	 7.2050
 2.4980	 7.5970
 2.4990	 7.5910
 2.5000	 7.3370
