Name: Ceanothus spinosus 3
Type: vegetation
Class: Shrub
Genus: Ceanothus
Species: spinosus
Sample No.: VH131
Owner: UCSB
Wavelength Range: TIR
Origin: 34.4906; -119.7908; WGS84
Collection Date: 6/3/2013
Description: Samples were collected as part of the HyspIRI Airborne Campaign. 48 individual plants were sampled in three times in 2013 - spring  summer  and fall. The name of the sample includes a 1  2  or 3 which references a different individual of the species. Samples were taken to JPL and processed within 48 hours of collection. The same leaves were processed in the Nicolet and then measured using the ASD.
Measurement: Hemispherical reflectance
First Column: X
Second Column: Y
X Units: Wavelength (micrometers)
Y Units: Reflectance (percentage)
First X Value: 2.501
Last X Value: 15.387
Number of X Values: 1737
Additional Information: vegetation.shrub.ceanothus.spinosus.tir.vh131.ucsb.nicolet.ancillary.txt

 2.5010	 6.6630
 2.5030	 6.6040
 2.5040	 6.6790
 2.5050	 6.6830
 2.5060	 6.6800
 2.5070	 6.6660
 2.5090	 6.7760
 2.5100	 6.8200
 2.5110	 6.7900
 2.5120	 6.5630
 2.5140	 6.5050
 2.5150	 6.5440
 2.5160	 6.4960
 2.5170	 6.3710
 2.5180	 6.4850
 2.5200	 6.5000
 2.5210	 6.4320
 2.5220	 6.3300
 2.5230	 6.3300
 2.5250	 6.4390
 2.5260	 6.5550
 2.5270	 6.4940
 2.5280	 6.4700
 2.5290	 6.4080
 2.5310	 6.5760
 2.5320	 6.5440
 2.5330	 6.4960
 2.5340	 6.4820
 2.5360	 6.4500
 2.5370	 6.4190
 2.5380	 6.4210
 2.5390	 6.3510
 2.5410	 6.3480
 2.5420	 6.3080
 2.5430	 6.4610
 2.5440	 6.5160
 2.5460	 6.4640
 2.5470	 6.4790
 2.5480	 6.4900
 2.5490	 6.4370
 2.5510	 6.4620
 2.5520	 6.4150
 2.5530	 6.4320
 2.5540	 6.4240
 2.5560	 6.4000
 2.5570	 6.3990
 2.5580	 6.5310
 2.5590	 6.5390
 2.5610	 6.6380
 2.5620	 6.6330
 2.5630	 6.5860
 2.5640	 6.5220
 2.5660	 6.6440
 2.5670	 6.5310
 2.5680	 6.4740
 2.5700	 6.4280
 2.5710	 6.4760
 2.5720	 6.4360
 2.5730	 6.4990
 2.5750	 6.4160
 2.5760	 6.3990
 2.5770	 6.4410
 2.5790	 6.5240
 2.5800	 6.4550
 2.5810	 6.5640
 2.5820	 6.5380
 2.5840	 6.4650
 2.5850	 6.4480
 2.5860	 6.5070
 2.5880	 6.4620
 2.5890	 6.4900
 2.5900	 6.4400
 2.5910	 6.4440
 2.5930	 6.4290
 2.5940	 6.4130
 2.5950	 6.3260
 2.5970	 6.3380
 2.5980	 6.3400
 2.5990	 6.4280
 2.6000	 6.3570
 2.6020	 6.3030
 2.6030	 6.2500
 2.6040	 6.3390
 2.6060	 6.3570
 2.6070	 6.3280
 2.6080	 6.1710
 2.6100	 6.1470
 2.6110	 6.0980
 2.6120	 6.1340
 2.6140	 6.1670
 2.6150	 6.2550
 2.6160	 6.1880
 2.6180	 6.0770
 2.6190	 5.9820
 2.6200	 5.9860
 2.6220	 5.9420
 2.6230	 5.9830
 2.6240	 6.0440
 2.6260	 6.0620
 2.6270	 5.8730
 2.6280	 5.7510
 2.6300	 5.7400
 2.6310	 5.7910
 2.6320	 5.7190
 2.6340	 5.6990
 2.6350	 5.6870
 2.6360	 5.7200
 2.6380	 5.5990
 2.6390	 5.6140
 2.6400	 5.6350
 2.6420	 5.7200
 2.6430	 5.5830
 2.6440	 5.5400
 2.6460	 5.4920
 2.6470	 5.4780
 2.6480	 5.5340
 2.6500	 5.5900
 2.6510	 5.5160
 2.6520	 5.4990
 2.6540	 5.4410
 2.6550	 5.5170
 2.6560	 5.4500
 2.6580	 5.4020
 2.6590	 5.3140
 2.6610	 5.3220
 2.6620	 5.2730
 2.6630	 5.3930
 2.6650	 5.3980
 2.6660	 5.3790
 2.6670	 5.3010
 2.6690	 5.3220
 2.6700	 5.3010
 2.6720	 5.2270
 2.6730	 5.1380
 2.6740	 5.1130
 2.6760	 5.1060
 2.6770	 5.2220
 2.6780	 5.1280
 2.6800	 5.1440
 2.6810	 5.1110
 2.6830	 5.1410
 2.6840	 5.1340
 2.6850	 5.1320
 2.6870	 5.0950
 2.6880	 4.9990
 2.6900	 4.8940
 2.6910	 5.0810
 2.6920	 5.1040
 2.6940	 5.1370
 2.6950	 5.1120
 2.6970	 5.1080
 2.6980	 5.0690
 2.6990	 5.0350
 2.7010	 5.0120
 2.7020	 5.1630
 2.7040	 5.1450
 2.7050	 5.1610
 2.7060	 5.0860
 2.7080	 5.1690
 2.7090	 5.2270
 2.7110	 5.3030
 2.7120	 5.1770
 2.7130	 5.2250
 2.7150	 5.2250
 2.7160	 5.1850
 2.7180	 5.1130
 2.7190	 5.2740
 2.7210	 5.3360
 2.7220	 5.3150
 2.7230	 5.2770
 2.7250	 5.2940
 2.7260	 5.2070
 2.7280	 5.1600
 2.7290	 5.1280
 2.7310	 5.2400
 2.7320	 5.2720
 2.7330	 5.3260
 2.7350	 5.2850
 2.7360	 5.3960
 2.7380	 5.3630
 2.7390	 5.3540
 2.7410	 5.3370
 2.7420	 5.4610
 2.7440	 5.4630
 2.7450	 5.5210
 2.7470	 5.6010
 2.7480	 5.6070
 2.7490	 5.5020
 2.7510	 5.5410
 2.7520	 5.5330
 2.7540	 5.4610
 2.7550	 5.4130
 2.7570	 5.5190
 2.7580	 5.5880
 2.7600	 5.6000
 2.7610	 5.5010
 2.7630	 5.5490
 2.7640	 5.4500
 2.7660	 5.3410
 2.7670	 5.3770
 2.7680	 5.5860
 2.7700	 5.6190
 2.7710	 5.6490
 2.7730	 5.6740
 2.7740	 5.6930
 2.7760	 5.4990
 2.7770	 5.5380
 2.7790	 5.6280
 2.7800	 5.6840
 2.7820	 5.5560
 2.7830	 5.6200
 2.7850	 5.6710
 2.7860	 5.6660
 2.7880	 5.6070
 2.7890	 5.6020
 2.7910	 5.6010
 2.7920	 5.7100
 2.7940	 5.7220
 2.7950	 5.7350
 2.7970	 5.5830
 2.7980	 5.5610
 2.8000	 5.5390
 2.8010	 5.4860
 2.8030	 5.5750
 2.8040	 5.6450
 2.8060	 5.5130
 2.8070	 5.6650
 2.8090	 5.6870
 2.8110	 5.6680
 2.8120	 5.5940
 2.8140	 5.5710
 2.8150	 5.5130
 2.8170	 5.5210
 2.8180	 5.6290
 2.8200	 5.7470
 2.8210	 5.7690
 2.8230	 5.7780
 2.8240	 5.6310
 2.8260	 5.7710
 2.8270	 5.8000
 2.8290	 5.7740
 2.8300	 5.7230
 2.8320	 5.8000
 2.8340	 5.7280
 2.8350	 5.6910
 2.8370	 5.7050
 2.8380	 5.8680
 2.8400	 5.7630
 2.8410	 5.7310
 2.8430	 5.6930
 2.8440	 5.7040
 2.8460	 5.6460
 2.8480	 5.7610
 2.8490	 5.7230
 2.8510	 5.7070
 2.8520	 5.8030
 2.8540	 6.0000
 2.8550	 6.0500
 2.8570	 5.9550
 2.8590	 5.7470
 2.8600	 5.7990
 2.8620	 5.7990
 2.8630	 5.8180
 2.8650	 5.7100
 2.8660	 5.7720
 2.8680	 5.8380
 2.8700	 5.8420
 2.8710	 5.7740
 2.8730	 5.8750
 2.8740	 5.7940
 2.8760	 5.7820
 2.8780	 5.7950
 2.8790	 5.7760
 2.8810	 5.6900
 2.8820	 5.7820
 2.8840	 5.8250
 2.8860	 5.9160
 2.8870	 5.8670
 2.8890	 5.9000
 2.8900	 5.8690
 2.8920	 5.8810
 2.8940	 5.7890
 2.8950	 5.8840
 2.8970	 5.8900
 2.8980	 5.8440
 2.9000	 5.8120
 2.9020	 5.8260
 2.9030	 5.7030
 2.9050	 5.7370
 2.9070	 5.6410
 2.9080	 5.6880
 2.9100	 5.7290
 2.9120	 5.7470
 2.9130	 5.7730
 2.9150	 5.8640
 2.9160	 5.8690
 2.9180	 5.8940
 2.9200	 5.7260
 2.9210	 5.8160
 2.9230	 5.8810
 2.9250	 5.8190
 2.9260	 5.6480
 2.9280	 5.6860
 2.9300	 5.5800
 2.9310	 5.7680
 2.9330	 5.7910
 2.9350	 5.6960
 2.9360	 5.6310
 2.9380	 5.6740
 2.9400	 5.6610
 2.9410	 5.7470
 2.9430	 5.6940
 2.9450	 5.7960
 2.9460	 5.7730
 2.9480	 5.7770
 2.9500	 5.6680
 2.9510	 5.5840
 2.9530	 5.6250
 2.9550	 5.6800
 2.9560	 5.5910
 2.9580	 5.5600
 2.9600	 5.5610
 2.9610	 5.6210
 2.9630	 5.6250
 2.9650	 5.6020
 2.9660	 5.4900
 2.9680	 5.5020
 2.9700	 5.3740
 2.9720	 5.5200
 2.9730	 5.7280
 2.9750	 5.6710
 2.9770	 5.4470
 2.9780	 5.4610
 2.9800	 5.4600
 2.9820	 5.5120
 2.9840	 5.4620
 2.9850	 5.5550
 2.9870	 5.5400
 2.9890	 5.5340
 2.9900	 5.4380
 2.9920	 5.5760
 2.9940	 5.6310
 2.9960	 5.5660
 2.9970	 5.5000
 2.9990	 5.5200
 3.0010	 5.3750
 3.0030	 5.3460
 3.0040	 5.2740
 3.0060	 5.3190
 3.0080	 5.3730
 3.0100	 5.4530
 3.0110	 5.3860
 3.0130	 5.3870
 3.0150	 5.3150
 3.0170	 5.3020
 3.0180	 5.2840
 3.0200	 5.3510
 3.0220	 5.2890
 3.0240	 5.2890
 3.0250	 5.2160
 3.0270	 5.2160
 3.0290	 5.2130
 3.0310	 5.2310
 3.0320	 5.2380
 3.0340	 5.2600
 3.0360	 5.1090
 3.0380	 5.1800
 3.0400	 5.1910
 3.0410	 5.1470
 3.0430	 5.1460
 3.0450	 5.4120
 3.0470	 5.4820
 3.0480	 5.3730
 3.0500	 5.2440
 3.0520	 5.2690
 3.0540	 5.2830
 3.0560	 5.2720
 3.0570	 5.1020
 3.0590	 5.0970
 3.0610	 5.0640
 3.0630	 5.1160
 3.0650	 5.0900
 3.0660	 5.0920
 3.0680	 5.0970
 3.0700	 5.1810
 3.0720	 5.1540
 3.0740	 5.1250
 3.0760	 5.0300
 3.0770	 4.9950
 3.0790	 4.9000
 3.0810	 5.0050
 3.0830	 5.0910
 3.0850	 5.0950
 3.0870	 5.0530
 3.0880	 5.0920
 3.0900	 5.0260
 3.0920	 5.0560
 3.0940	 4.9960
 3.0960	 5.0470
 3.0980	 4.9980
 3.0990	 4.9490
 3.1010	 4.8230
 3.1030	 4.9330
 3.1050	 4.9470
 3.1070	 4.9050
 3.1090	 4.9160
 3.1110	 4.9650
 3.1120	 4.9000
 3.1140	 4.9180
 3.1160	 4.8580
 3.1180	 4.8680
 3.1200	 4.8520
 3.1220	 4.8480
 3.1240	 4.8320
 3.1260	 4.9210
 3.1270	 4.7950
 3.1290	 4.8410
 3.1310	 4.8250
 3.1330	 4.8250
 3.1350	 4.7890
 3.1370	 4.8500
 3.1390	 4.8250
 3.1410	 4.8890
 3.1430	 4.8320
 3.1450	 4.8150
 3.1460	 4.7670
 3.1480	 4.8040
 3.1500	 4.8240
 3.1520	 4.8610
 3.1540	 4.7940
 3.1560	 4.7400
 3.1580	 4.7030
 3.1600	 4.7760
 3.1620	 4.7300
 3.1640	 4.7040
 3.1660	 4.7420
 3.1680	 4.7440
 3.1700	 4.6680
 3.1710	 4.7400
 3.1730	 4.7800
 3.1750	 4.8090
 3.1770	 4.7370
 3.1790	 4.7780
 3.1810	 4.7460
 3.1830	 4.7950
 3.1850	 4.6500
 3.1870	 4.5510
 3.1890	 4.5520
 3.1910	 4.6670
 3.1930	 4.6530
 3.1950	 4.6330
 3.1970	 4.6390
 3.1990	 4.7320
 3.2010	 4.6360
 3.2030	 4.6140
 3.2050	 4.6190
 3.2070	 4.6640
 3.2090	 4.6110
 3.2110	 4.6280
 3.2130	 4.5630
 3.2150	 4.5250
 3.2170	 4.5070
 3.2190	 4.6170
 3.2210	 4.5520
 3.2230	 4.4730
 3.2250	 4.4810
 3.2270	 4.5920
 3.2290	 4.5500
 3.2310	 4.5480
 3.2330	 4.5450
 3.2350	 4.5430
 3.2370	 4.5480
 3.2390	 4.6200
 3.2410	 4.5580
 3.2430	 4.5760
 3.2450	 4.5320
 3.2470	 4.4730
 3.2490	 4.3990
 3.2510	 4.4090
 3.2530	 4.4040
 3.2550	 4.4510
 3.2570	 4.4870
 3.2590	 4.5280
 3.2610	 4.3810
 3.2630	 4.4050
 3.2650	 4.4200
 3.2670	 4.4640
 3.2690	 4.4470
 3.2720	 4.4490
 3.2740	 4.3960
 3.2760	 4.4600
 3.2780	 4.4050
 3.2800	 4.3910
 3.2820	 4.3580
 3.2840	 4.4370
 3.2860	 4.4160
 3.2880	 4.4080
 3.2900	 4.3190
 3.2920	 4.3550
 3.2940	 4.3280
 3.2960	 4.3580
 3.2990	 4.3970
 3.3010	 4.4320
 3.3030	 4.3420
 3.3050	 4.3210
 3.3070	 4.3270
 3.3090	 4.3280
 3.3110	 4.3350
 3.3130	 4.4260
 3.3150	 4.3400
 3.3180	 4.2460
 3.3200	 4.1650
 3.3220	 4.2130
 3.3240	 4.2620
 3.3260	 4.2930
 3.3280	 4.2350
 3.3300	 4.1700
 3.3330	 4.0260
 3.3350	 3.9880
 3.3370	 3.9570
 3.3390	 3.9600
 3.3410	 3.9500
 3.3430	 4.0860
 3.3450	 4.0180
 3.3480	 4.0120
 3.3500	 4.0490
 3.3520	 4.1050
 3.3540	 4.0130
 3.3560	 3.9950
 3.3580	 3.9630
 3.3610	 3.9770
 3.3630	 3.9350
 3.3650	 3.9390
 3.3670	 3.9810
 3.3690	 4.0050
 3.3720	 3.8900
 3.3740	 3.8990
 3.3760	 3.8470
 3.3780	 3.8110
 3.3800	 3.7840
 3.3830	 3.8350
 3.3850	 3.8970
 3.3870	 3.9300
 3.3890	 3.9220
 3.3910	 3.9160
 3.3940	 3.8520
 3.3960	 3.8570
 3.3980	 3.7930
 3.4000	 3.7830
 3.4020	 3.8430
 3.4050	 4.0830
 3.4070	 4.2950
 3.4090	 4.4610
 3.4110	 4.5970
 3.4140	 4.9290
 3.4160	 5.2550
 3.4180	 5.5850
 3.4200	 6.0380
 3.4230	 6.7380
 3.4250	 7.6320
 3.4270	 8.5020
 3.4290	 8.9050
 3.4320	 8.7590
 3.4340	 8.0460
 3.4360	 7.3230
 3.4390	 6.8600
 3.4410	 6.5420
 3.4430	 6.2970
 3.4450	 6.2300
 3.4480	 6.1330
 3.4500	 6.1130
 3.4520	 6.0950
 3.4550	 6.0410
 3.4570	 5.9020
 3.4590	 5.8400
 3.4620	 5.7870
 3.4640	 5.7940
 3.4660	 5.7520
 3.4680	 5.7200
 3.4710	 5.5760
 3.4730	 5.5130
 3.4750	 5.4450
 3.4780	 5.3830
 3.4800	 5.3080
 3.4820	 5.2450
 3.4850	 5.1380
 3.4870	 5.1420
 3.4890	 5.0410
 3.4920	 4.9140
 3.4940	 4.8610
 3.4970	 5.0580
 3.4990	 5.2250
 3.5010	 5.3880
 3.5040	 5.6180
 3.5060	 6.2400
 3.5080	 7.2910
 3.5110	 8.2770
 3.5130	 8.2890
 3.5160	 7.6990
 3.5180	 7.1730
 3.5200	 6.8600
 3.5230	 6.5200
 3.5250	 6.2880
 3.5270	 6.1600
 3.5300	 6.1360
 3.5320	 5.9730
 3.5350	 5.8810
 3.5370	 5.8620
 3.5400	 5.8710
 3.5420	 5.7980
 3.5440	 5.7290
 3.5470	 5.6540
 3.5490	 5.7240
 3.5520	 5.6430
 3.5540	 5.5320
 3.5570	 5.5430
 3.5590	 5.5660
 3.5610	 5.4720
 3.5640	 5.4770
 3.5660	 5.4770
 3.5690	 5.4960
 3.5710	 5.4300
 3.5740	 5.3620
 3.5760	 5.3780
 3.5790	 5.4570
 3.5810	 5.4110
 3.5840	 5.3890
 3.5860	 5.3080
 3.5890	 5.3630
 3.5910	 5.3720
 3.5930	 5.3100
 3.5960	 5.2650
 3.5980	 5.3060
 3.6010	 5.2950
 3.6030	 5.2910
 3.6060	 5.2570
 3.6080	 5.2670
 3.6110	 5.2030
 3.6140	 5.2320
 3.6160	 5.2540
 3.6190	 5.2750
 3.6210	 5.2690
 3.6240	 5.2320
 3.6260	 5.1480
 3.6290	 5.1920
 3.6310	 5.2170
 3.6340	 5.2940
 3.6360	 5.2810
 3.6390	 5.2790
 3.6410	 5.1960
 3.6440	 5.1580
 3.6470	 5.1950
 3.6490	 5.1960
 3.6520	 5.1010
 3.6540	 5.0920
 3.6570	 5.1310
 3.6590	 5.1350
 3.6620	 5.0700
 3.6650	 5.1900
 3.6670	 5.1660
 3.6700	 5.0860
 3.6720	 5.0500
 3.6750	 5.0380
 3.6780	 5.0590
 3.6800	 5.1520
 3.6830	 5.1440
 3.6850	 5.1200
 3.6880	 5.0720
 3.6910	 5.1010
 3.6930	 5.1220
 3.6960	 5.1730
 3.6990	 5.1120
 3.7010	 5.0640
 3.7040	 5.0730
 3.7060	 5.0490
 3.7090	 5.0380
 3.7120	 5.0670
 3.7140	 5.0350
 3.7170	 5.0620
 3.7200	 5.1050
 3.7220	 5.1080
 3.7250	 5.0660
 3.7280	 5.1630
 3.7300	 5.1670
 3.7330	 5.1270
 3.7360	 5.0690
 3.7390	 5.0060
 3.7410	 4.9720
 3.7440	 5.0020
 3.7470	 4.9660
 3.7490	 5.0550
 3.7520	 5.0650
 3.7550	 5.0530
 3.7580	 5.0030
 3.7600	 5.0260
 3.7630	 5.0510
 3.7660	 5.0930
 3.7680	 5.0890
 3.7710	 5.1080
 3.7740	 5.0960
 3.7770	 5.1120
 3.7790	 5.0740
 3.7820	 5.0360
 3.7850	 5.0180
 3.7880	 5.0380
 3.7900	 5.0830
 3.7930	 5.1510
 3.7960	 5.1180
 3.7990	 5.0920
 3.8020	 5.0210
 3.8040	 5.0090
 3.8070	 5.0140
 3.8100	 5.0460
 3.8130	 5.0060
 3.8160	 5.0220
 3.8180	 5.0460
 3.8210	 5.0670
 3.8240	 4.9780
 3.8270	 4.9640
 3.8300	 4.9800
 3.8330	 5.0090
 3.8350	 5.0370
 3.8380	 5.1530
 3.8410	 5.1320
 3.8440	 5.0330
 3.8470	 4.9700
 3.8500	 5.0240
 3.8520	 5.0290
 3.8550	 5.0470
 3.8580	 5.0900
 3.8610	 5.1030
 3.8640	 5.0940
 3.8670	 5.0770
 3.8700	 4.9820
 3.8730	 5.0260
 3.8750	 5.0230
 3.8780	 5.0020
 3.8810	 5.0120
 3.8840	 5.0860
 3.8870	 5.1230
 3.8900	 5.1420
 3.8930	 5.0510
 3.8960	 5.0220
 3.8990	 5.0110
 3.9020	 5.0140
 3.9050	 5.0920
 3.9080	 5.1550
 3.9110	 5.1070
 3.9140	 5.0630
 3.9160	 5.0040
 3.9190	 5.0130
 3.9220	 5.0050
 3.9250	 5.0090
 3.9280	 5.0290
 3.9310	 5.0620
 3.9340	 5.0450
 3.9370	 5.0560
 3.9400	 5.0680
 3.9430	 5.1080
 3.9460	 5.1140
 3.9490	 5.1140
 3.9520	 5.0770
 3.9550	 5.0570
 3.9580	 5.0270
 3.9610	 5.0250
 3.9640	 4.9690
 3.9670	 5.0260
 3.9700	 5.0760
 3.9730	 5.1360
 3.9770	 5.1870
 3.9800	 5.1530
 3.9830	 5.1030
 3.9860	 5.1590
 3.9890	 5.0960
 3.9920	 5.0290
 3.9950	 5.0290
 3.9980	 5.0670
 4.0010	 5.1060
 4.0040	 5.0860
 4.0070	 5.0460
 4.0100	 5.0720
 4.0130	 5.1140
 4.0170	 5.1210
 4.0200	 5.0430
 4.0230	 5.0730
 4.0260	 5.1580
 4.0290	 5.1500
 4.0320	 5.1120
 4.0350	 5.1410
 4.0380	 5.1110
 4.0420	 5.0870
 4.0450	 5.0770
 4.0480	 5.0820
 4.0510	 5.1020
 4.0540	 5.1120
 4.0570	 5.0870
 4.0610	 5.1050
 4.0640	 5.1180
 4.0670	 5.0660
 4.0700	 5.0290
 4.0730	 5.0460
 4.0770	 5.0550
 4.0800	 5.1210
 4.0830	 5.1130
 4.0860	 5.0750
 4.0890	 5.1000
 4.0930	 5.1720
 4.0960	 5.1710
 4.0990	 5.1950
 4.1020	 5.1200
 4.1060	 5.0430
 4.1090	 5.0550
 4.1120	 5.1150
 4.1150	 5.1340
 4.1190	 5.1160
 4.1220	 5.0940
 4.1250	 5.1600
 4.1280	 5.1780
 4.1320	 5.1560
 4.1350	 5.0950
 4.1380	 5.0690
 4.1420	 5.0770
 4.1450	 5.0780
 4.1480	 5.0770
 4.1520	 5.1190
 4.1550	 5.1020
 4.1580	 5.1080
 4.1620	 5.1100
 4.1650	 5.0680
 4.1680	 5.0150
 4.1720	 5.0820
 4.1750	 5.1610
 4.1780	 5.1720
 4.1820	 5.1230
 4.1850	 5.1210
 4.1890	 5.1250
 4.1920	 5.1460
 4.1950	 5.1620
 4.1990	 5.1740
 4.2020	 5.1800
 4.2060	 5.1930
 4.2090	 5.1670
 4.2120	 5.1970
 4.2160	 5.2360
 4.2190	 5.2700
 4.2230	 5.3310
 4.2260	 5.3600
 4.2300	 5.2590
 4.2330	 5.2640
 4.2360	 5.3040
 4.2400	 5.3520
 4.2430	 5.3390
 4.2470	 5.3380
 4.2500	 5.2700
 4.2540	 5.1520
 4.2570	 5.0680
 4.2610	 5.1470
 4.2640	 5.1800
 4.2680	 5.2570
 4.2710	 5.3250
 4.2750	 5.1990
 4.2780	 5.1280
 4.2820	 5.2050
 4.2850	 5.3790
 4.2890	 5.4280
 4.2930	 5.3770
 4.2960	 5.1830
 4.3000	 5.1760
 4.3030	 5.3240
 4.3070	 5.2770
 4.3100	 5.2030
 4.3140	 5.2230
 4.3180	 5.2190
 4.3210	 5.2040
 4.3250	 5.2070
 4.3280	 5.1430
 4.3320	 5.1330
 4.3360	 5.0690
 4.3390	 5.0430
 4.3430	 5.0650
 4.3470	 5.0380
 4.3500	 5.0270
 4.3540	 5.0500
 4.3570	 5.0520
 4.3610	 5.0530
 4.3650	 4.9890
 4.3680	 4.9430
 4.3720	 5.0460
 4.3760	 5.0940
 4.3800	 5.0870
 4.3830	 5.0680
 4.3870	 5.0410
 4.3910	 4.9840
 4.3940	 5.0060
 4.3980	 5.0530
 4.4020	 4.9660
 4.4060	 4.9170
 4.4090	 4.9590
 4.4130	 5.0280
 4.4170	 5.0490
 4.4210	 5.0130
 4.4240	 5.0220
 4.4280	 5.0330
 4.4320	 5.0670
 4.4360	 5.1110
 4.4400	 5.0800
 4.4430	 5.0000
 4.4470	 4.9700
 4.4510	 4.9840
 4.4550	 4.9770
 4.4590	 4.9650
 4.4620	 4.9940
 4.4660	 5.0070
 4.4700	 4.9760
 4.4740	 5.0060
 4.4780	 5.0250
 4.4820	 4.9920
 4.4860	 4.9590
 4.4900	 4.9620
 4.4930	 5.0030
 4.4970	 4.9910
 4.5010	 4.9680
 4.5050	 4.9750
 4.5090	 4.9910
 4.5130	 5.0230
 4.5170	 5.0210
 4.5210	 4.9360
 4.5250	 4.9310
 4.5290	 5.0180
 4.5330	 5.0170
 4.5370	 5.0120
 4.5410	 4.9900
 4.5450	 4.9600
 4.5490	 4.9610
 4.5530	 4.9710
 4.5570	 4.9590
 4.5610	 4.9400
 4.5650	 4.9180
 4.5690	 4.8880
 4.5730	 4.9140
 4.5770	 4.9580
 4.5810	 5.0200
 4.5850	 5.0140
 4.5890	 4.9470
 4.5930	 4.9180
 4.5970	 4.9350
 4.6010	 4.9320
 4.6050	 4.9790
 4.6090	 4.9780
 4.6130	 4.9620
 4.6170	 4.9210
 4.6220	 4.9130
 4.6260	 5.0290
 4.6300	 5.0430
 4.6340	 4.9530
 4.6380	 4.9370
 4.6420	 4.9350
 4.6460	 4.9030
 4.6510	 4.8980
 4.6550	 4.9360
 4.6590	 4.9420
 4.6630	 4.9230
 4.6670	 4.9350
 4.6720	 4.9660
 4.6760	 4.9250
 4.6800	 4.9780
 4.6840	 5.0080
 4.6880	 4.9500
 4.6930	 4.9230
 4.6970	 4.9430
 4.7010	 4.9900
 4.7050	 5.0200
 4.7100	 4.9040
 4.7140	 4.8240
 4.7180	 4.8620
 4.7230	 4.9570
 4.7270	 4.9600
 4.7310	 4.9700
 4.7360	 4.9640
 4.7400	 4.9360
 4.7440	 4.9210
 4.7490	 4.9470
 4.7530	 4.9360
 4.7570	 4.9160
 4.7620	 4.8770
 4.7660	 4.8670
 4.7700	 4.8990
 4.7750	 4.9310
 4.7790	 4.9450
 4.7840	 4.9270
 4.7880	 4.9210
 4.7920	 4.9540
 4.7970	 4.9500
 4.8010	 4.9110
 4.8060	 4.9070
 4.8100	 4.9240
 4.8150	 4.9940
 4.8190	 5.0000
 4.8240	 4.9560
 4.8280	 4.9360
 4.8330	 4.9010
 4.8370	 4.8520
 4.8420	 4.8850
 4.8460	 4.9640
 4.8510	 4.9230
 4.8550	 4.9110
 4.8600	 4.9330
 4.8640	 4.9440
 4.8690	 4.9640
 4.8730	 4.9250
 4.8780	 4.8510
 4.8830	 4.8940
 4.8870	 4.9120
 4.8920	 4.9480
 4.8960	 4.9430
 4.9010	 4.9520
 4.9060	 4.9360
 4.9100	 4.9270
 4.9150	 4.9050
 4.9200	 4.9470
 4.9240	 4.9390
 4.9290	 4.9350
 4.9340	 4.9400
 4.9380	 4.9030
 4.9430	 4.8450
 4.9480	 4.8360
 4.9530	 4.8630
 4.9570	 4.8950
 4.9620	 4.9090
 4.9670	 4.9450
 4.9720	 4.8860
 4.9760	 4.9130
 4.9810	 4.9300
 4.9860	 4.9220
 4.9910	 4.9030
 4.9960	 4.9140
 5.0000	 4.9310
 5.0050	 4.9800
 5.0100	 4.9620
 5.0150	 4.9170
 5.0200	 4.9520
 5.0250	 5.0200
 5.0290	 5.0050
 5.0340	 4.9690
 5.0390	 4.9840
 5.0440	 4.9870
 5.0490	 4.9660
 5.0540	 4.9820
 5.0590	 4.9470
 5.0640	 4.9430
 5.0690	 4.8560
 5.0740	 4.8570
 5.0790	 4.9560
 5.0840	 4.9690
 5.0890	 4.9410
 5.0940	 5.0010
 5.0990	 5.0000
 5.1040	 4.9750
 5.1090	 4.8610
 5.1140	 4.8880
 5.1190	 5.0220
 5.1240	 5.0790
 5.1290	 5.0140
 5.1340	 4.9560
 5.1390	 4.8880
 5.1440	 4.8690
 5.1490	 4.9110
 5.1540	 4.9260
 5.1600	 4.8650
 5.1650	 4.8860
 5.1700	 4.9070
 5.1750	 4.9240
 5.1800	 4.9170
 5.1850	 4.8920
 5.1910	 4.8630
 5.1960	 4.9240
 5.2010	 4.9200
 5.2060	 4.9090
 5.2110	 4.8710
 5.2170	 4.8880
 5.2220	 4.8920
 5.2270	 4.9070
 5.2320	 4.8880
 5.2380	 4.8940
 5.2430	 4.9570
 5.2480	 5.0320
 5.2540	 4.9490
 5.2590	 4.8990
 5.2640	 4.8950
 5.2700	 4.9260
 5.2750	 4.9070
 5.2800	 4.9440
 5.2860	 4.8640
 5.2910	 4.8460
 5.2970	 4.9300
 5.3020	 4.9780
 5.3070	 4.9550
 5.3130	 4.9160
 5.3180	 4.9000
 5.3240	 4.9400
 5.3290	 4.9090
 5.3350	 4.9220
 5.3400	 4.8840
 5.3460	 4.8670
 5.3510	 4.8940
 5.3570	 4.9440
 5.3620	 4.8920
 5.3680	 4.8280
 5.3730	 4.8230
 5.3790	 4.8900
 5.3850	 4.8720
 5.3900	 4.8650
 5.3960	 4.8560
 5.4010	 4.8790
 5.4070	 4.8090
 5.4130	 4.8420
 5.4180	 4.8330
 5.4240	 4.8270
 5.4300	 4.8370
 5.4350	 4.8470
 5.4410	 4.7410
 5.4470	 4.7770
 5.4530	 4.8480
 5.4580	 4.8010
 5.4640	 4.7170
 5.4700	 4.7490
 5.4760	 4.7410
 5.4810	 4.7120
 5.4870	 4.6660
 5.4930	 4.7350
 5.4990	 4.7230
 5.5050	 4.7350
 5.5110	 4.7140
 5.5160	 4.7170
 5.5220	 4.6970
 5.5280	 4.6700
 5.5340	 4.6340
 5.5400	 4.6660
 5.5460	 4.6860
 5.5520	 4.6700
 5.5580	 4.5840
 5.5640	 4.5450
 5.5700	 4.4680
 5.5760	 4.5040
 5.5820	 4.4730
 5.5880	 4.4630
 5.5940	 4.4210
 5.6000	 4.4410
 5.6060	 4.4510
 5.6120	 4.4250
 5.6180	 4.3880
 5.6240	 4.4300
 5.6300	 4.4180
 5.6360	 4.3790
 5.6420	 4.3430
 5.6490	 4.3070
 5.6550	 4.2610
 5.6610	 4.2610
 5.6670	 4.1640
 5.6730	 4.1640
 5.6800	 4.1540
 5.6860	 4.0710
 5.6920	 3.9780
 5.6980	 3.9300
 5.7040	 3.8830
 5.7110	 3.8920
 5.7170	 3.8210
 5.7230	 3.8340
 5.7300	 3.7800
 5.7360	 3.8030
 5.7420	 3.8540
 5.7490	 4.0530
 5.7550	 4.2950
 5.7620	 4.5740
 5.7680	 4.7890
 5.7740	 5.0170
 5.7810	 5.1990
 5.7870	 5.3840
 5.7940	 5.4200
 5.8000	 5.5360
 5.8070	 5.5350
 5.8130	 5.5480
 5.8200	 5.5240
 5.8260	 5.6350
 5.8330	 5.7240
 5.8390	 5.8220
 5.8460	 5.8350
 5.8530	 5.8460
 5.8590	 5.8110
 5.8660	 5.8900
 5.8720	 5.9090
 5.8790	 5.8480
 5.8860	 5.7970
 5.8920	 5.8380
 5.8990	 5.7550
 5.9060	 5.7290
 5.9130	 5.6430
 5.9190	 5.5950
 5.9260	 5.5280
 5.9330	 5.5700
 5.9400	 5.5370
 5.9470	 5.5080
 5.9530	 5.4450
 5.9600	 5.4120
 5.9670	 5.3760
 5.9740	 5.3620
 5.9810	 5.3550
 5.9880	 5.3730
 5.9950	 5.2320
 6.0020	 5.2130
 6.0090	 5.1250
 6.0160	 5.1030
 6.0230	 5.0240
 6.0300	 5.0080
 6.0370	 4.8930
 6.0440	 4.9340
 6.0510	 5.0130
 6.0580	 4.9520
 6.0650	 4.8030
 6.0720	 4.7650
 6.0790	 4.7410
 6.0860	 4.8170
 6.0930	 4.7620
 6.1000	 4.7460
 6.1080	 4.6740
 6.1150	 4.7970
 6.1220	 4.8370
 6.1290	 4.8430
 6.1370	 4.7270
 6.1440	 4.7050
 6.1510	 4.6750
 6.1580	 4.7540
 6.1660	 4.7360
 6.1730	 4.7610
 6.1800	 4.7490
 6.1880	 4.8220
 6.1950	 4.7260
 6.2030	 4.7230
 6.2100	 4.6900
 6.2170	 4.7570
 6.2250	 4.7390
 6.2320	 4.7120
 6.2400	 4.6370
 6.2470	 4.7030
 6.2550	 4.6960
 6.2630	 4.7070
 6.2700	 4.6920
 6.2780	 4.7260
 6.2850	 4.6620
 6.2930	 4.7200
 6.3010	 4.6670
 6.3080	 4.6580
 6.3160	 4.5470
 6.3240	 4.5850
 6.3310	 4.6090
 6.3390	 4.6860
 6.3470	 4.6810
 6.3550	 4.6970
 6.3620	 4.5720
 6.3700	 4.5940
 6.3780	 4.5250
 6.3860	 4.5680
 6.3940	 4.6600
 6.4020	 4.7460
 6.4100	 4.6350
 6.4180	 4.6800
 6.4260	 4.6720
 6.4330	 4.6770
 6.4410	 4.6940
 6.4490	 4.7590
 6.4580	 4.7580
 6.4660	 4.7810
 6.4740	 4.6530
 6.4820	 4.6910
 6.4900	 4.6080
 6.4980	 4.5820
 6.5060	 4.5130
 6.5140	 4.5640
 6.5230	 4.5440
 6.5310	 4.5840
 6.5390	 4.5700
 6.5470	 4.6460
 6.5550	 4.5970
 6.5640	 4.5720
 6.5720	 4.4620
 6.5800	 4.5190
 6.5890	 4.5510
 6.5970	 4.5710
 6.6060	 4.4770
 6.6140	 4.5740
 6.6220	 4.6360
 6.6310	 4.7250
 6.6390	 4.6420
 6.6480	 4.6360
 6.6560	 4.6270
 6.6650	 4.6280
 6.6740	 4.5150
 6.6820	 4.5740
 6.6910	 4.5300
 6.6990	 4.5400
 6.7080	 4.5380
 6.7170	 4.5650
 6.7260	 4.4100
 6.7340	 4.3600
 6.7430	 4.3610
 6.7520	 4.4660
 6.7610	 4.4130
 6.7690	 4.3850
 6.7780	 4.3850
 6.7870	 4.6970
 6.7960	 4.7160
 6.8050	 4.5580
 6.8140	 4.5160
 6.8230	 4.7380
 6.8320	 4.9000
 6.8410	 5.0610
 6.8500	 4.9930
 6.8590	 5.0280
 6.8680	 5.0350
 6.8770	 5.0680
 6.8860	 4.9430
 6.8950	 4.9300
 6.9050	 4.8830
 6.9140	 4.8380
 6.9230	 4.7010
 6.9320	 4.7590
 6.9420	 4.6620
 6.9510	 4.6570
 6.9600	 4.7050
 6.9700	 4.8120
 6.9790	 4.6290
 6.9880	 4.6780
 6.9980	 4.6690
 7.0070	 4.7230
 7.0170	 4.6680
 7.0260	 4.7210
 7.0360	 4.6690
 7.0450	 4.6400
 7.0550	 4.5630
 7.0650	 4.6730
 7.0740	 4.6670
 7.0840	 4.6760
 7.0940	 4.5960
 7.1030	 4.7080
 7.1130	 4.5970
 7.1230	 4.5590
 7.1330	 4.5090
 7.1420	 4.5940
 7.1520	 4.5850
 7.1620	 4.6440
 7.1720	 4.5790
 7.1820	 4.6030
 7.1920	 4.5970
 7.2020	 4.7110
 7.2120	 4.6200
 7.2220	 4.6140
 7.2320	 4.5850
 7.2420	 4.7000
 7.2520	 4.6200
 7.2620	 4.6080
 7.2730	 4.5210
 7.2830	 4.6100
 7.2930	 4.5530
 7.3030	 4.6200
 7.3140	 4.5920
 7.3240	 4.6270
 7.3340	 4.5020
 7.3450	 4.5720
 7.3550	 4.6050
 7.3660	 4.6870
 7.3760	 4.6410
 7.3870	 4.7280
 7.3970	 4.6170
 7.4080	 4.6650
 7.4180	 4.5580
 7.4290	 4.5940
 7.4400	 4.5360
 7.4500	 4.5470
 7.4610	 4.5000
 7.4720	 4.4980
 7.4830	 4.4330
 7.4930	 4.5550
 7.5040	 4.5210
 7.5150	 4.5530
 7.5260	 4.4610
 7.5370	 4.5200
 7.5480	 4.4060
 7.5590	 4.4950
 7.5700	 4.4720
 7.5810	 4.5770
 7.5920	 4.5230
 7.6030	 4.5620
 7.6140	 4.4240
 7.6260	 4.4540
 7.6370	 4.4380
 7.6480	 4.5050
 7.6590	 4.4440
 7.6710	 4.5710
 7.6820	 4.5340
 7.6930	 4.5950
 7.7050	 4.5260
 7.7160	 4.5630
 7.7280	 4.4930
 7.7390	 4.5560
 7.7510	 4.4940
 7.7630	 4.6350
 7.7740	 4.5650
 7.7860	 4.6220
 7.7980	 4.5290
 7.8090	 4.6260
 7.8210	 4.6530
 7.8330	 4.6450
 7.8450	 4.4820
 7.8570	 4.6110
 7.8690	 4.5780
 7.8810	 4.7600
 7.8930	 4.7570
 7.9050	 4.8550
 7.9170	 4.8120
 7.9290	 4.8710
 7.9410	 4.8200
 7.9530	 4.8020
 7.9650	 4.6890
 7.9780	 4.8100
 7.9900	 4.7550
 8.0020	 4.8060
 8.0150	 4.7890
 8.0270	 4.8640
 8.0390	 4.7240
 8.0520	 4.8170
 8.0640	 4.7770
 8.0770	 4.9210
 8.0900	 4.8650
 8.1020	 5.0290
 8.1150	 4.9450
 8.1280	 5.0060
 8.1400	 4.8970
 8.1530	 5.0140
 8.1660	 4.9660
 8.1790	 5.1000
 8.1920	 4.9510
 8.2050	 4.9450
 8.2180	 4.8720
 8.2310	 5.0570
 8.2440	 4.8670
 8.2570	 5.0550
 8.2700	 5.1430
 8.2830	 5.2650
 8.2970	 5.1810
 8.3100	 5.4070
 8.3230	 5.4380
 8.3370	 5.5770
 8.3500	 5.4920
 8.3640	 5.6150
 8.3770	 5.3640
 8.3910	 5.4680
 8.4040	 5.6330
 8.4180	 5.8670
 8.4320	 5.8110
 8.4450	 5.8550
 8.4590	 5.8050
 8.4730	 5.9620
 8.4870	 5.8360
 8.5010	 5.9930
 8.5150	 5.9840
 8.5290	 6.1930
 8.5430	 6.1070
 8.5570	 6.1940
 8.5710	 6.0010
 8.5850	 5.9330
 8.5990	 5.7890
 8.6140	 5.7070
 8.6280	 5.5120
 8.6420	 5.5550
 8.6570	 5.4220
 8.6710	 5.4680
 8.6860	 5.3460
 8.7000	 5.4370
 8.7150	 5.3070
 8.7300	 5.3530
 8.7440	 5.2070
 8.7590	 5.3480
 8.7740	 5.3010
 8.7890	 5.5630
 8.8040	 5.4580
 8.8190	 5.5040
 8.8340	 5.3100
 8.8490	 5.5200
 8.8640	 5.4440
 8.8790	 5.4840
 8.8940	 5.1770
 8.9100	 5.2960
 8.9250	 5.0690
 8.9400	 5.0720
 8.9560	 4.9930
 8.9710	 5.0210
 8.9870	 4.7710
 9.0020	 4.8520
 9.0180	 4.6080
 9.0340	 4.5650
 9.0500	 4.4600
 9.0650	 4.5860
 9.0810	 4.4340
 9.0970	 4.6460
 9.1130	 4.5490
 9.1290	 4.7070
 9.1450	 4.5770
 9.1610	 4.7290
 9.1780	 4.5860
 9.1940	 4.7620
 9.2100	 4.8090
 9.2270	 4.8820
 9.2430	 4.5770
 9.2600	 4.6400
 9.2760	 4.4230
 9.2930	 4.4730
 9.3090	 4.2630
 9.3260	 4.2960
 9.3430	 4.0640
 9.3600	 4.2250
 9.3770	 3.9900
 9.3940	 4.0770
 9.4110	 3.9980
 9.4280	 4.1600
 9.4450	 4.0160
 9.4620	 4.1680
 9.4800	 4.0440
 9.4970	 4.2090
 9.5140	 4.0670
 9.5320	 4.1550
 9.5500	 4.0600
 9.5670	 4.2700
 9.5850	 4.2050
 9.6030	 4.3750
 9.6200	 4.2130
 9.6380	 4.2560
 9.6560	 4.0710
 9.6740	 4.2130
 9.6920	 4.0360
 9.7100	 4.1270
 9.7290	 3.9940
 9.7470	 4.1990
 9.7650	 4.0040
 9.7840	 4.1610
 9.8020	 4.0470
 9.8210	 4.0000
 9.8390	 3.8570
 9.8580	 4.1330
 9.8770	 4.1040
 9.8960	 4.2210
 9.9150	 3.9830
 9.9340	 4.1600
 9.9530	 4.1320
 9.9720	 4.3760
 9.9910	 4.2910
10.0100	 4.5640
10.0300	 4.4490
10.0490	 4.5330
10.0690	 4.4050
10.0880	 4.3740
10.1080	 4.3370
10.1280	 4.6460
10.1480	 4.4840
10.1670	 4.7150
10.1870	 4.5490
10.2070	 4.4880
10.2280	 4.3830
10.2480	 4.6820
10.2680	 4.5090
10.2890	 4.5610
10.3090	 4.3510
10.3300	 4.3860
10.3500	 4.2800
10.3710	 4.3870
10.3920	 4.2350
10.4120	 4.4000
10.4330	 4.2380
10.4540	 4.3840
10.4760	 4.2650
10.4970	 4.4060
10.5180	 4.2150
10.5390	 4.3530
10.5610	 4.3640
10.5820	 4.5780
10.6040	 4.4240
10.6260	 4.6080
10.6480	 4.4930
10.6700	 4.6290
10.6920	 4.3820
10.7140	 4.3790
10.7360	 4.2470
10.7580	 4.5280
10.7800	 4.2770
10.8030	 4.4900
10.8250	 4.4300
10.8480	 4.5300
10.8710	 4.3570
10.8940	 4.4740
10.9170	 4.2310
10.9400	 4.3660
10.9630	 4.2700
10.9860	 4.4710
11.0090	 4.2690
11.0330	 4.2840
11.0560	 4.1510
11.0800	 4.3880
11.1040	 4.2660
11.1270	 4.3440
11.1510	 4.0530
11.1750	 4.1970
11.2000	 4.0420
11.2240	 4.1840
11.2480	 3.8920
11.2730	 4.0880
11.2970	 3.9430
11.3220	 4.2080
11.3470	 4.1660
11.3720	 4.1880
11.3970	 3.8130
11.4220	 3.9600
11.4470	 3.9180
11.4720	 4.1500
11.4980	 3.9110
11.5230	 3.9500
11.5490	 3.6550
11.5750	 3.8250
11.6000	 3.7280
11.6260	 3.9390
11.6530	 3.7700
11.6790	 3.9740
11.7050	 3.7000
11.7320	 3.7870
11.7580	 3.5620
11.7850	 3.6320
11.8120	 3.3990
11.8390	 3.6450
11.8660	 3.5890
11.8930	 3.8370
11.9200	 3.5420
11.9480	 3.5720
11.9760	 3.3140
12.0030	 3.5440
12.0310	 3.2880
12.0590	 3.4620
12.0870	 3.3970
12.1150	 3.7440
12.1440	 3.5310
12.1720	 3.6010
12.2010	 3.2640
12.2300	 3.3980
12.2590	 3.0470
12.2880	 3.3540
12.3170	 3.3290
12.3460	 3.4970
12.3760	 3.0830
12.4050	 3.2540
12.4350	 3.0920
12.4650	 3.4320
12.4950	 3.2630
12.5250	 3.5120
12.5550	 3.1500
12.5860	 3.4600
12.6170	 3.2570
12.6470	 3.1930
12.6780	 2.9510
12.7090	 3.2280
12.7410	 2.7130
12.7720	 2.9290
12.8030	 2.7820
12.8350	 3.0880
12.8670	 2.8740
12.8990	 3.1170
12.9310	 2.9310
12.9640	 3.0790
12.9960	 2.7370
13.0290	 2.9400
13.0610	 2.6720
13.0940	 2.9950
13.1280	 2.6000
13.1610	 2.8570
13.1940	 2.6830
13.2280	 2.9810
13.2620	 2.7130
13.2960	 2.8800
13.3300	 2.5460
13.3640	 2.8170
13.3990	 2.6050
13.4340	 2.8720
13.4690	 2.3820
13.5040	 2.5470
13.5390	 2.2030
13.5740	 2.6680
13.6100	 2.5450
13.6460	 2.8300
13.6820	 2.5210
13.7180	 3.0230
13.7540	 2.6550
13.7910	 3.0210
13.8280	 2.6540
13.8650	 2.7540
13.9020	 2.6650
13.9390	 3.1290
13.9770	 2.6860
14.0150	 2.8820
14.0530	 2.4790
14.0910	 2.6840
14.1290	 2.0360
14.1680	 2.3720
14.2070	 2.1330
14.2460	 2.8130
14.2850	 2.4750
14.3240	 2.9130
14.3640	 2.4230
14.4040	 2.6990
14.4440	 2.2700
14.4840	 2.6890
14.5250	 2.0710
14.5660	 2.6960
14.6070	 2.5070
14.6480	 2.8440
14.6900	 2.4140
14.7310	 3.0910
14.7730	 2.6030
14.8150	 2.8340
14.8580	 2.1810
14.9010	 2.5340
14.9440	 1.9010
14.9870	 2.7540
15.0300	 2.3390
15.0740	 2.8040
15.1180	 2.0190
15.1620	 2.6830
15.2060	 2.1430
15.2510	 2.7800
15.2960	 2.3480
15.3410	 2.5740
15.3870	 1.7350
