Name: Arctostaphylos glandulosa 2
Type: vegetation
Class: Shrub
Genus: Arctostaphylos
Species: glandulosa
Sample No.: VH228
Owner: UCSB
Wavelength Range: VSWIR
Origin: 34.5084; -119.7682; WGS84
Collection Date: 10/13/2013
Description: Samples were collected as part of the HyspIRI Airborne Campaign. 48 individual plants were sampled in three times in 2013 - spring  summer  and fall. The name of the sample includes a 1  2  or 3 which references a different individual of the species. Samples were taken to JPL and processed within 48 hours of collection. The same leaves were processed in the Nicolet and then measured using the ASD.
Measurement: Bidirectional reflectance
First Column: X
Second Column: Y
X Units: Wavelength (micrometers)
Y Units: Reflectance (percentage)
First X Value: 0.35
Last X Value: 2.5
Number of X Values: 2151
Additional Information: vegetation.shrub.arctostaphylos.glandulosa.vswir.vh228.ucsb.asd.ancillary.txt

 0.3500	 8.5120
 0.3510	 8.5370
 0.3520	 8.4600
 0.3530	 8.3930
 0.3540	 8.4640
 0.3550	 8.6180
 0.3560	 8.7020
 0.3570	 8.7080
 0.3580	 8.6980
 0.3590	 8.5960
 0.3600	 8.4930
 0.3610	 8.4590
 0.3620	 8.5200
 0.3630	 8.4830
 0.3640	 8.3980
 0.3650	 8.3580
 0.3660	 8.3680
 0.3670	 8.3340
 0.3680	 8.2620
 0.3690	 8.2240
 0.3700	 8.2910
 0.3710	 8.3940
 0.3720	 8.4630
 0.3730	 8.4690
 0.3740	 8.4490
 0.3750	 8.4590
 0.3760	 8.5070
 0.3770	 8.3480
 0.3780	 8.3070
 0.3790	 8.4110
 0.3800	 8.4190
 0.3810	 8.3620
 0.3820	 8.3010
 0.3830	 8.2880
 0.3840	 8.3470
 0.3850	 8.3310
 0.3860	 8.2460
 0.3870	 8.1810
 0.3880	 8.3090
 0.3890	 8.3790
 0.3900	 8.3300
 0.3910	 8.3180
 0.3920	 8.2910
 0.3930	 8.3000
 0.3940	 8.3490
 0.3950	 8.2860
 0.3960	 8.2410
 0.3970	 8.2330
 0.3980	 8.2280
 0.3990	 8.2490
 0.4000	 8.2630
 0.4010	 8.2500
 0.4020	 8.2070
 0.4030	 8.1520
 0.4040	 8.1550
 0.4050	 8.2370
 0.4060	 8.2140
 0.4070	 8.1620
 0.4080	 8.1360
 0.4090	 8.1580
 0.4100	 8.1650
 0.4110	 8.1640
 0.4120	 8.1610
 0.4130	 8.1300
 0.4140	 8.1680
 0.4150	 8.2160
 0.4160	 8.1940
 0.4170	 8.1670
 0.4180	 8.1730
 0.4190	 8.2040
 0.4200	 8.2090
 0.4210	 8.2240
 0.4220	 8.2570
 0.4230	 8.2970
 0.4240	 8.3000
 0.4250	 8.3210
 0.4260	 8.3630
 0.4270	 8.4010
 0.4280	 8.4380
 0.4290	 8.4880
 0.4300	 8.5500
 0.4310	 8.5990
 0.4320	 8.6320
 0.4330	 8.6700
 0.4340	 8.7350
 0.4350	 8.8040
 0.4360	 8.8790
 0.4370	 8.9620
 0.4380	 9.0540
 0.4390	 9.1460
 0.4400	 9.2390
 0.4410	 9.3310
 0.4420	 9.4080
 0.4430	 9.4780
 0.4440	 9.5580
 0.4450	 9.6570
 0.4460	 9.7270
 0.4470	 9.7920
 0.4480	 9.8670
 0.4490	 9.9460
 0.4500	10.0160
 0.4510	10.0810
 0.4520	10.1460
 0.4530	10.2020
 0.4540	10.2580
 0.4550	10.3070
 0.4560	10.3350
 0.4570	10.3800
 0.4580	10.4410
 0.4590	10.4950
 0.4600	10.4820
 0.4610	10.5050
 0.4620	10.5500
 0.4630	10.5720
 0.4640	10.5830
 0.4650	10.6110
 0.4660	10.6470
 0.4670	10.6450
 0.4680	10.6520
 0.4690	10.6720
 0.4700	10.6930
 0.4710	10.6940
 0.4720	10.7120
 0.4730	10.7380
 0.4740	10.7420
 0.4750	10.7450
 0.4760	10.7620
 0.4770	10.7880
 0.4780	10.7860
 0.4790	10.7850
 0.4800	10.7930
 0.4810	10.8120
 0.4820	10.8160
 0.4830	10.8270
 0.4840	10.8460
 0.4850	10.8530
 0.4860	10.8610
 0.4870	10.8810
 0.4880	10.9140
 0.4890	10.9380
 0.4900	10.9700
 0.4910	11.0030
 0.4920	11.0280
 0.4930	11.0680
 0.4940	11.1240
 0.4950	11.1840
 0.4960	11.2200
 0.4970	11.2770
 0.4980	11.3480
 0.4990	11.4130
 0.5000	11.4730
 0.5010	11.5490
 0.5020	11.6400
 0.5030	11.7210
 0.5040	11.8140
 0.5050	11.9270
 0.5060	12.0540
 0.5070	12.1630
 0.5080	12.2880
 0.5090	12.4320
 0.5100	12.5830
 0.5110	12.7390
 0.5120	12.9020
 0.5130	13.0730
 0.5140	13.2520
 0.5150	13.4440
 0.5160	13.6490
 0.5170	13.8640
 0.5180	14.0750
 0.5190	14.2940
 0.5200	14.5210
 0.5210	14.7460
 0.5220	14.9710
 0.5230	15.1970
 0.5240	15.4230
 0.5250	15.6430
 0.5260	15.8570
 0.5270	16.0650
 0.5280	16.2690
 0.5290	16.4600
 0.5300	16.6460
 0.5310	16.8280
 0.5320	17.0060
 0.5330	17.1690
 0.5340	17.3230
 0.5350	17.4770
 0.5360	17.6170
 0.5370	17.7470
 0.5380	17.8700
 0.5390	17.9910
 0.5400	18.0960
 0.5410	18.1920
 0.5420	18.2850
 0.5430	18.3890
 0.5440	18.4760
 0.5450	18.5580
 0.5460	18.6560
 0.5470	18.7750
 0.5480	18.8880
 0.5490	18.9800
 0.5500	19.0610
 0.5510	19.1280
 0.5520	19.1800
 0.5530	19.2200
 0.5540	19.2480
 0.5550	19.2660
 0.5560	19.2730
 0.5570	19.2630
 0.5580	19.2330
 0.5590	19.1870
 0.5600	19.1270
 0.5610	19.0550
 0.5620	18.9680
 0.5630	18.8710
 0.5640	18.7710
 0.5650	18.6650
 0.5660	18.5550
 0.5670	18.4420
 0.5680	18.3300
 0.5690	18.2160
 0.5700	18.0950
 0.5710	17.9620
 0.5720	17.8250
 0.5730	17.6900
 0.5740	17.5570
 0.5750	17.4230
 0.5760	17.2910
 0.5770	17.1620
 0.5780	17.0420
 0.5790	16.9310
 0.5800	16.8260
 0.5810	16.7340
 0.5820	16.6590
 0.5830	16.5980
 0.5840	16.5520
 0.5850	16.5110
 0.5860	16.4490
 0.5870	16.3720
 0.5880	16.2920
 0.5890	16.2230
 0.5900	16.1640
 0.5910	16.1090
 0.5920	16.0610
 0.5930	16.0270
 0.5940	15.9800
 0.5950	15.9440
 0.5960	15.9270
 0.5970	15.9040
 0.5980	15.8880
 0.5990	15.8690
 0.6000	15.8380
 0.6010	15.8100
 0.6020	15.7750
 0.6030	15.7260
 0.6040	15.6620
 0.6050	15.6020
 0.6060	15.5360
 0.6070	15.4580
 0.6080	15.3790
 0.6090	15.2910
 0.6100	15.1930
 0.6110	15.0870
 0.6120	15.0050
 0.6130	14.9360
 0.6140	14.8680
 0.6150	14.7900
 0.6160	14.7180
 0.6170	14.6500
 0.6180	14.5830
 0.6190	14.5200
 0.6200	14.4650
 0.6210	14.4190
 0.6220	14.3770
 0.6230	14.3400
 0.6240	14.3090
 0.6250	14.2880
 0.6260	14.2720
 0.6270	14.2580
 0.6280	14.2460
 0.6290	14.2380
 0.6300	14.2320
 0.6310	14.2210
 0.6320	14.2040
 0.6330	14.1910
 0.6340	14.1630
 0.6350	14.1210
 0.6360	14.0680
 0.6370	14.0050
 0.6380	13.9340
 0.6390	13.8500
 0.6400	13.7480
 0.6410	13.6440
 0.6420	13.5380
 0.6430	13.4270
 0.6440	13.3080
 0.6450	13.1980
 0.6460	13.0910
 0.6470	12.9810
 0.6480	12.8860
 0.6490	12.7990
 0.6500	12.7200
 0.6510	12.6540
 0.6520	12.5930
 0.6530	12.5400
 0.6540	12.4910
 0.6550	12.4270
 0.6560	12.3600
 0.6570	12.2880
 0.6580	12.2050
 0.6590	12.1100
 0.6600	12.0080
 0.6610	11.9030
 0.6620	11.8010
 0.6630	11.7030
 0.6640	11.6070
 0.6650	11.5110
 0.6660	11.4260
 0.6670	11.3510
 0.6680	11.2860
 0.6690	11.2270
 0.6700	11.1750
 0.6710	11.1370
 0.6720	11.1110
 0.6730	11.0830
 0.6740	11.0650
 0.6750	11.0570
 0.6760	11.0570
 0.6770	11.0570
 0.6780	11.0630
 0.6790	11.0810
 0.6800	11.1190
 0.6810	11.1660
 0.6820	11.2290
 0.6830	11.3200
 0.6840	11.4450
 0.6850	11.5990
 0.6860	11.7870
 0.6870	12.0150
 0.6880	12.2970
 0.6890	12.6330
 0.6900	13.0260
 0.6910	13.4880
 0.6920	14.0130
 0.6930	14.6070
 0.6940	15.2740
 0.6950	16.0010
 0.6960	16.8010
 0.6970	17.6680
 0.6980	18.5940
 0.6990	19.5780
 0.7000	20.6070
 0.7010	21.6730
 0.7020	22.7690
 0.7030	23.8860
 0.7040	25.0130
 0.7050	26.1410
 0.7060	27.2700
 0.7070	28.3900
 0.7080	29.4980
 0.7090	30.5960
 0.7100	31.6740
 0.7110	32.7490
 0.7120	33.8140
 0.7130	34.8410
 0.7140	35.8560
 0.7150	36.8600
 0.7160	37.8430
 0.7170	38.7860
 0.7180	39.7060
 0.7190	40.6090
 0.7200	41.4910
 0.7210	42.3380
 0.7220	43.1590
 0.7230	43.9510
 0.7240	44.6930
 0.7250	45.4190
 0.7260	46.1160
 0.7270	46.7720
 0.7280	47.3940
 0.7290	47.9820
 0.7300	48.5330
 0.7310	49.0460
 0.7320	49.5470
 0.7330	50.0160
 0.7340	50.4500
 0.7350	50.8680
 0.7360	51.2440
 0.7370	51.5890
 0.7380	51.9160
 0.7390	52.2400
 0.7400	52.5300
 0.7410	52.7960
 0.7420	53.0540
 0.7430	53.2860
 0.7440	53.5050
 0.7450	53.7170
 0.7460	53.9180
 0.7470	54.0800
 0.7480	54.2280
 0.7490	54.3800
 0.7500	54.5250
 0.7510	54.6410
 0.7520	54.7450
 0.7530	54.8600
 0.7540	54.9670
 0.7550	55.0460
 0.7560	55.1080
 0.7570	55.1840
 0.7580	55.2560
 0.7590	55.3220
 0.7600	55.3830
 0.7610	55.4360
 0.7620	55.4680
 0.7630	55.5000
 0.7640	55.5510
 0.7650	55.5790
 0.7660	55.6020
 0.7670	55.6330
 0.7680	55.6760
 0.7690	55.7100
 0.7700	55.7220
 0.7710	55.7220
 0.7720	55.7520
 0.7730	55.7700
 0.7740	55.7800
 0.7750	55.7960
 0.7760	55.8150
 0.7770	55.8240
 0.7780	55.8310
 0.7790	55.8530
 0.7800	55.8660
 0.7810	55.8780
 0.7820	55.8920
 0.7830	55.9010
 0.7840	55.9130
 0.7850	55.9260
 0.7860	55.9350
 0.7870	55.9330
 0.7880	55.9450
 0.7890	55.9570
 0.7900	55.9560
 0.7910	55.9790
 0.7920	55.9990
 0.7930	56.0060
 0.7940	56.0040
 0.7950	56.0200
 0.7960	56.0330
 0.7970	56.0380
 0.7980	56.0580
 0.7990	56.0590
 0.8000	56.0580
 0.8010	56.0760
 0.8020	56.1090
 0.8030	56.1220
 0.8040	56.1250
 0.8050	56.1400
 0.8060	56.1320
 0.8070	56.1290
 0.8080	56.1450
 0.8090	56.1690
 0.8100	56.1830
 0.8110	56.1990
 0.8120	56.2190
 0.8130	56.2210
 0.8140	56.2320
 0.8150	56.2490
 0.8160	56.2640
 0.8170	56.2810
 0.8180	56.2840
 0.8190	56.2950
 0.8200	56.3380
 0.8210	56.3470
 0.8220	56.3580
 0.8230	56.3730
 0.8240	56.3630
 0.8250	56.3770
 0.8260	56.4020
 0.8270	56.4220
 0.8280	56.4270
 0.8290	56.4270
 0.8300	56.4340
 0.8310	56.4480
 0.8320	56.4440
 0.8330	56.4530
 0.8340	56.4650
 0.8350	56.4600
 0.8360	56.4760
 0.8370	56.4920
 0.8380	56.5040
 0.8390	56.5180
 0.8400	56.5260
 0.8410	56.5360
 0.8420	56.5510
 0.8430	56.5690
 0.8440	56.5940
 0.8450	56.5990
 0.8460	56.5800
 0.8470	56.6000
 0.8480	56.6050
 0.8490	56.6120
 0.8500	56.6460
 0.8510	56.6610
 0.8520	56.6620
 0.8530	56.6650
 0.8540	56.6830
 0.8550	56.6740
 0.8560	56.6880
 0.8570	56.7250
 0.8580	56.7250
 0.8590	56.7210
 0.8600	56.7180
 0.8610	56.7160
 0.8620	56.7130
 0.8630	56.7110
 0.8640	56.7050
 0.8650	56.6980
 0.8660	56.7230
 0.8670	56.7330
 0.8680	56.7340
 0.8690	56.7460
 0.8700	56.7470
 0.8710	56.7360
 0.8720	56.7240
 0.8730	56.7230
 0.8740	56.7440
 0.8750	56.7490
 0.8760	56.7280
 0.8770	56.7060
 0.8780	56.7140
 0.8790	56.7210
 0.8800	56.7150
 0.8810	56.7250
 0.8820	56.7330
 0.8830	56.7230
 0.8840	56.6960
 0.8850	56.6860
 0.8860	56.6800
 0.8870	56.6650
 0.8880	56.6390
 0.8890	56.6270
 0.8900	56.6290
 0.8910	56.6230
 0.8920	56.5970
 0.8930	56.6200
 0.8940	56.5970
 0.8950	56.5400
 0.8960	56.5270
 0.8970	56.5030
 0.8980	56.4880
 0.8990	56.4840
 0.9000	56.4690
 0.9010	56.4550
 0.9020	56.4430
 0.9030	56.4240
 0.9040	56.3830
 0.9050	56.3600
 0.9060	56.3550
 0.9070	56.3530
 0.9080	56.3270
 0.9090	56.3130
 0.9100	56.3060
 0.9110	56.2900
 0.9120	56.2610
 0.9130	56.2380
 0.9140	56.2240
 0.9150	56.2110
 0.9160	56.1890
 0.9170	56.1750
 0.9180	56.1610
 0.9190	56.1300
 0.9200	56.1040
 0.9210	56.0690
 0.9220	56.0320
 0.9230	56.0120
 0.9240	55.9840
 0.9250	55.9540
 0.9260	55.9280
 0.9270	55.9140
 0.9280	55.8900
 0.9290	55.8570
 0.9300	55.8170
 0.9310	55.7720
 0.9320	55.7370
 0.9330	55.6890
 0.9340	55.6310
 0.9350	55.6040
 0.9360	55.5590
 0.9370	55.5110
 0.9380	55.4670
 0.9390	55.4050
 0.9400	55.3430
 0.9410	55.2990
 0.9420	55.2650
 0.9430	55.1830
 0.9440	55.1110
 0.9450	55.0350
 0.9460	54.9440
 0.9470	54.8700
 0.9480	54.8060
 0.9490	54.7080
 0.9500	54.5640
 0.9510	54.4610
 0.9520	54.3890
 0.9530	54.2960
 0.9540	54.1470
 0.9550	54.0030
 0.9560	53.8960
 0.9570	53.7860
 0.9580	53.6380
 0.9590	53.5190
 0.9600	53.4410
 0.9610	53.3570
 0.9620	53.2350
 0.9630	53.1700
 0.9640	53.1150
 0.9650	53.0460
 0.9660	52.9660
 0.9670	52.9290
 0.9680	52.8900
 0.9690	52.8400
 0.9700	52.7940
 0.9710	52.7680
 0.9720	52.7660
 0.9730	52.7550
 0.9740	52.7040
 0.9750	52.6860
 0.9760	52.6660
 0.9770	52.6550
 0.9780	52.6680
 0.9790	52.6510
 0.9800	52.6600
 0.9810	52.6930
 0.9820	52.7180
 0.9830	52.7120
 0.9840	52.7140
 0.9850	52.7500
 0.9860	52.8190
 0.9870	52.8320
 0.9880	52.8360
 0.9890	52.8690
 0.9900	52.9480
 0.9910	53.0050
 0.9920	53.0720
 0.9930	53.1390
 0.9940	53.2060
 0.9950	53.2730
 0.9960	53.3400
 0.9970	53.4070
 0.9980	53.4740
 0.9990	53.5410
 1.0000	53.6080
 1.0010	53.6750
 1.0020	53.7420
 1.0030	53.8090
 1.0040	53.8760
 1.0050	53.9430
 1.0060	54.0100
 1.0070	54.0770
 1.0080	54.1440
 1.0090	54.2110
 1.0100	54.2110
 1.0110	54.2640
 1.0120	54.3220
 1.0130	54.3930
 1.0140	54.4540
 1.0150	54.5120
 1.0160	54.5670
 1.0170	54.6100
 1.0180	54.6510
 1.0190	54.7090
 1.0200	54.7580
 1.0210	54.8130
 1.0220	54.8770
 1.0230	54.9280
 1.0240	54.9750
 1.0250	55.0190
 1.0260	55.0560
 1.0270	55.0940
 1.0280	55.1280
 1.0290	55.1630
 1.0300	55.1930
 1.0310	55.2320
 1.0320	55.2790
 1.0330	55.3210
 1.0340	55.3610
 1.0350	55.3960
 1.0360	55.4290
 1.0370	55.4550
 1.0380	55.4840
 1.0390	55.5100
 1.0400	55.5490
 1.0410	55.5950
 1.0420	55.6340
 1.0430	55.6860
 1.0440	55.7210
 1.0450	55.7400
 1.0460	55.7640
 1.0470	55.7870
 1.0480	55.8060
 1.0490	55.8200
 1.0500	55.8370
 1.0510	55.8530
 1.0520	55.8650
 1.0530	55.8850
 1.0540	55.9150
 1.0550	55.9300
 1.0560	55.9430
 1.0570	55.9540
 1.0580	55.9560
 1.0590	55.9630
 1.0600	55.9720
 1.0610	55.9830
 1.0620	56.0010
 1.0630	56.0070
 1.0640	56.0040
 1.0650	56.0090
 1.0660	56.0070
 1.0670	56.0120
 1.0680	56.0220
 1.0690	56.0490
 1.0700	56.0550
 1.0710	56.0520
 1.0720	56.0550
 1.0730	56.0510
 1.0740	56.0530
 1.0750	56.0670
 1.0760	56.0680
 1.0770	56.0650
 1.0780	56.0620
 1.0790	56.0580
 1.0800	56.0480
 1.0810	56.0290
 1.0820	56.0160
 1.0830	55.9990
 1.0840	55.9830
 1.0850	55.9740
 1.0860	55.9640
 1.0870	55.9490
 1.0880	55.9280
 1.0890	55.9140
 1.0900	55.9010
 1.0910	55.8840
 1.0920	55.8710
 1.0930	55.8520
 1.0940	55.8290
 1.0950	55.8040
 1.0960	55.7720
 1.0970	55.7470
 1.0980	55.7260
 1.0990	55.6990
 1.1000	55.6730
 1.1010	55.6460
 1.1020	55.6160
 1.1030	55.5870
 1.1040	55.5600
 1.1050	55.5280
 1.1060	55.4940
 1.1070	55.4540
 1.1080	55.4180
 1.1090	55.3860
 1.1100	55.3440
 1.1110	55.2980
 1.1120	55.2510
 1.1130	55.2000
 1.1140	55.1460
 1.1150	55.0960
 1.1160	55.0340
 1.1170	54.9580
 1.1180	54.8830
 1.1190	54.8070
 1.1200	54.7220
 1.1210	54.6310
 1.1220	54.5360
 1.1230	54.4350
 1.1240	54.3260
 1.1250	54.2100
 1.1260	54.0910
 1.1270	53.9650
 1.1280	53.8330
 1.1290	53.6950
 1.1300	53.5560
 1.1310	53.4010
 1.1320	53.2350
 1.1330	53.0600
 1.1340	52.8800
 1.1350	52.6840
 1.1360	52.4750
 1.1370	52.2590
 1.1380	52.0370
 1.1390	51.8020
 1.1400	51.5620
 1.1410	51.3170
 1.1420	51.0620
 1.1430	50.7990
 1.1440	50.5310
 1.1450	50.2540
 1.1460	49.9840
 1.1470	49.7050
 1.1480	49.4380
 1.1490	49.1710
 1.1500	48.9190
 1.1510	48.6720
 1.1520	48.4430
 1.1530	48.2290
 1.1540	48.0280
 1.1550	47.8400
 1.1560	47.6640
 1.1570	47.5020
 1.1580	47.3570
 1.1590	47.2240
 1.1600	47.1020
 1.1610	46.9980
 1.1620	46.9030
 1.1630	46.8200
 1.1640	46.7500
 1.1650	46.6850
 1.1660	46.6280
 1.1670	46.5760
 1.1680	46.5330
 1.1690	46.4920
 1.1700	46.4580
 1.1710	46.4240
 1.1720	46.3930
 1.1730	46.3610
 1.1740	46.3290
 1.1750	46.2990
 1.1760	46.2630
 1.1770	46.2280
 1.1780	46.1910
 1.1790	46.1470
 1.1800	46.1050
 1.1810	46.0610
 1.1820	46.0160
 1.1830	45.9720
 1.1840	45.9310
 1.1850	45.8930
 1.1860	45.8540
 1.1870	45.8200
 1.1880	45.7860
 1.1890	45.7530
 1.1900	45.7240
 1.1910	45.6990
 1.1920	45.6700
 1.1930	45.6380
 1.1940	45.6120
 1.1950	45.5860
 1.1960	45.5630
 1.1970	45.5480
 1.1980	45.5410
 1.1990	45.5360
 1.2000	45.5290
 1.2010	45.5270
 1.2020	45.5320
 1.2030	45.5450
 1.2040	45.5680
 1.2050	45.5960
 1.2060	45.6220
 1.2070	45.6490
 1.2080	45.6820
 1.2090	45.7210
 1.2100	45.7670
 1.2110	45.8150
 1.2120	45.8690
 1.2130	45.9280
 1.2140	45.9940
 1.2150	46.0580
 1.2160	46.1270
 1.2170	46.1950
 1.2180	46.2630
 1.2190	46.3360
 1.2200	46.4150
 1.2210	46.4980
 1.2220	46.5800
 1.2230	46.6610
 1.2240	46.7400
 1.2250	46.8120
 1.2260	46.8840
 1.2270	46.9570
 1.2280	47.0260
 1.2290	47.0980
 1.2300	47.1670
 1.2310	47.2280
 1.2320	47.2860
 1.2330	47.3430
 1.2340	47.4000
 1.2350	47.4560
 1.2360	47.5110
 1.2370	47.5670
 1.2380	47.6180
 1.2390	47.6660
 1.2400	47.7140
 1.2410	47.7630
 1.2420	47.8100
 1.2430	47.8590
 1.2440	47.9020
 1.2450	47.9360
 1.2460	47.9710
 1.2470	48.0020
 1.2480	48.0380
 1.2490	48.0770
 1.2500	48.1070
 1.2510	48.1350
 1.2520	48.1590
 1.2530	48.1780
 1.2540	48.2060
 1.2550	48.2330
 1.2560	48.2500
 1.2570	48.2730
 1.2580	48.2950
 1.2590	48.3110
 1.2600	48.3230
 1.2610	48.3370
 1.2620	48.3480
 1.2630	48.3540
 1.2640	48.3660
 1.2650	48.3750
 1.2660	48.3820
 1.2670	48.3890
 1.2680	48.3900
 1.2690	48.3900
 1.2700	48.3890
 1.2710	48.3800
 1.2720	48.3740
 1.2730	48.3640
 1.2740	48.3490
 1.2750	48.3360
 1.2760	48.3240
 1.2770	48.3080
 1.2780	48.2910
 1.2790	48.2730
 1.2800	48.2480
 1.2810	48.2230
 1.2820	48.1910
 1.2830	48.1520
 1.2840	48.1180
 1.2850	48.0810
 1.2860	48.0430
 1.2870	48.0000
 1.2880	47.9560
 1.2890	47.9000
 1.2900	47.8430
 1.2910	47.7870
 1.2920	47.7320
 1.2930	47.6780
 1.2940	47.6170
 1.2950	47.5480
 1.2960	47.4750
 1.2970	47.3970
 1.2980	47.3100
 1.2990	47.2260
 1.3000	47.1400
 1.3010	47.0450
 1.3020	46.9550
 1.3030	46.8620
 1.3040	46.7570
 1.3050	46.6540
 1.3060	46.5460
 1.3070	46.4270
 1.3080	46.3120
 1.3090	46.1890
 1.3100	46.0550
 1.3110	45.9210
 1.3120	45.7730
 1.3130	45.6170
 1.3140	45.4610
 1.3150	45.3020
 1.3160	45.1370
 1.3170	44.9720
 1.3180	44.8020
 1.3190	44.6270
 1.3200	44.4440
 1.3210	44.2550
 1.3220	44.0660
 1.3230	43.8680
 1.3240	43.6650
 1.3250	43.4630
 1.3260	43.2530
 1.3270	43.0440
 1.3280	42.8290
 1.3290	42.6050
 1.3300	42.3810
 1.3310	42.1500
 1.3320	41.9140
 1.3330	41.6830
 1.3340	41.4520
 1.3350	41.2170
 1.3360	40.9850
 1.3370	40.7510
 1.3380	40.5170
 1.3390	40.2870
 1.3400	40.0580
 1.3410	39.8310
 1.3420	39.6100
 1.3430	39.3870
 1.3440	39.1680
 1.3450	38.9520
 1.3460	38.7370
 1.3470	38.5240
 1.3480	38.3150
 1.3490	38.1120
 1.3500	37.9120
 1.3510	37.7170
 1.3520	37.5240
 1.3530	37.3250
 1.3540	37.1240
 1.3550	36.9290
 1.3560	36.7380
 1.3570	36.5500
 1.3580	36.3630
 1.3590	36.1690
 1.3600	35.9680
 1.3610	35.7620
 1.3620	35.5500
 1.3630	35.3360
 1.3640	35.1190
 1.3650	34.8960
 1.3660	34.6670
 1.3670	34.4300
 1.3680	34.1790
 1.3690	33.9140
 1.3700	33.6360
 1.3710	33.3460
 1.3720	33.0420
 1.3730	32.7230
 1.3740	32.3900
 1.3750	32.0370
 1.3760	31.6650
 1.3770	31.2760
 1.3780	30.8640
 1.3790	30.4350
 1.3800	29.9840
 1.3810	29.5110
 1.3820	29.0240
 1.3830	28.5180
 1.3840	27.9990
 1.3850	27.4640
 1.3860	26.9230
 1.3870	26.3660
 1.3880	25.8120
 1.3890	25.2520
 1.3900	24.6900
 1.3910	24.1350
 1.3920	23.5820
 1.3930	23.0350
 1.3940	22.4990
 1.3950	21.9700
 1.3960	21.4540
 1.3970	20.9560
 1.3980	20.4720
 1.3990	20.0130
 1.4000	19.5710
 1.4010	19.1420
 1.4020	18.7370
 1.4030	18.3470
 1.4040	17.9790
 1.4050	17.6350
 1.4060	17.3090
 1.4070	17.0070
 1.4080	16.7250
 1.4090	16.4630
 1.4100	16.2210
 1.4110	15.9950
 1.4120	15.7860
 1.4130	15.5930
 1.4140	15.4160
 1.4150	15.2570
 1.4160	15.1130
 1.4170	14.9790
 1.4180	14.8580
 1.4190	14.7460
 1.4200	14.6430
 1.4210	14.5530
 1.4220	14.4710
 1.4230	14.3940
 1.4240	14.3270
 1.4250	14.2660
 1.4260	14.2110
 1.4270	14.1630
 1.4280	14.1240
 1.4290	14.0850
 1.4300	14.0490
 1.4310	14.0180
 1.4320	13.9900
 1.4330	13.9670
 1.4340	13.9490
 1.4350	13.9330
 1.4360	13.9210
 1.4370	13.9110
 1.4380	13.9050
 1.4390	13.8990
 1.4400	13.8960
 1.4410	13.8930
 1.4420	13.8940
 1.4430	13.8970
 1.4440	13.9010
 1.4450	13.9080
 1.4460	13.9130
 1.4470	13.9190
 1.4480	13.9270
 1.4490	13.9350
 1.4500	13.9450
 1.4510	13.9560
 1.4520	13.9670
 1.4530	13.9770
 1.4540	13.9910
 1.4550	14.0030
 1.4560	14.0130
 1.4570	14.0280
 1.4580	14.0460
 1.4590	14.0680
 1.4600	14.0930
 1.4610	14.1170
 1.4620	14.1410
 1.4630	14.1680
 1.4640	14.1970
 1.4650	14.2290
 1.4660	14.2650
 1.4670	14.3020
 1.4680	14.3420
 1.4690	14.3860
 1.4700	14.4300
 1.4710	14.4780
 1.4720	14.5270
 1.4730	14.5810
 1.4740	14.6370
 1.4750	14.6980
 1.4760	14.7620
 1.4770	14.8250
 1.4780	14.8890
 1.4790	14.9560
 1.4800	15.0220
 1.4810	15.0940
 1.4820	15.1700
 1.4830	15.2430
 1.4840	15.3180
 1.4850	15.3940
 1.4860	15.4690
 1.4870	15.5480
 1.4880	15.6260
 1.4890	15.7050
 1.4900	15.7830
 1.4910	15.8620
 1.4920	15.9400
 1.4930	16.0180
 1.4940	16.0970
 1.4950	16.1760
 1.4960	16.2560
 1.4970	16.3360
 1.4980	16.4160
 1.4990	16.4930
 1.5000	16.5730
 1.5010	16.6570
 1.5020	16.7380
 1.5030	16.8190
 1.5040	16.9010
 1.5050	16.9820
 1.5060	17.0630
 1.5070	17.1440
 1.5080	17.2270
 1.5090	17.3120
 1.5100	17.3960
 1.5110	17.4800
 1.5120	17.5650
 1.5130	17.6460
 1.5140	17.7270
 1.5150	17.8090
 1.5160	17.8900
 1.5170	17.9720
 1.5180	18.0540
 1.5190	18.1330
 1.5200	18.2120
 1.5210	18.2900
 1.5220	18.3670
 1.5230	18.4460
 1.5240	18.5250
 1.5250	18.6020
 1.5260	18.6780
 1.5270	18.7530
 1.5280	18.8280
 1.5290	18.9000
 1.5300	18.9740
 1.5310	19.0510
 1.5320	19.1230
 1.5330	19.1940
 1.5340	19.2650
 1.5350	19.3330
 1.5360	19.4020
 1.5370	19.4730
 1.5380	19.5450
 1.5390	19.6170
 1.5400	19.6920
 1.5410	19.7660
 1.5420	19.8340
 1.5430	19.9040
 1.5440	19.9740
 1.5450	20.0390
 1.5460	20.1070
 1.5470	20.1770
 1.5480	20.2410
 1.5490	20.3040
 1.5500	20.3690
 1.5510	20.4310
 1.5520	20.4920
 1.5530	20.5580
 1.5540	20.6210
 1.5550	20.6840
 1.5560	20.7480
 1.5570	20.8100
 1.5580	20.8720
 1.5590	20.9330
 1.5600	20.9950
 1.5610	21.0560
 1.5620	21.1150
 1.5630	21.1730
 1.5640	21.2310
 1.5650	21.2890
 1.5660	21.3490
 1.5670	21.4110
 1.5680	21.4720
 1.5690	21.5270
 1.5700	21.5820
 1.5710	21.6340
 1.5720	21.6840
 1.5730	21.7400
 1.5740	21.7960
 1.5750	21.8540
 1.5760	21.9120
 1.5770	21.9660
 1.5780	22.0210
 1.5790	22.0760
 1.5800	22.1290
 1.5810	22.1840
 1.5820	22.2390
 1.5830	22.2910
 1.5840	22.3460
 1.5850	22.4040
 1.5860	22.4580
 1.5870	22.5110
 1.5880	22.5640
 1.5890	22.6170
 1.5900	22.6720
 1.5910	22.7300
 1.5920	22.7860
 1.5930	22.8380
 1.5940	22.8880
 1.5950	22.9370
 1.5960	22.9850
 1.5970	23.0370
 1.5980	23.0890
 1.5990	23.1380
 1.6000	23.1880
 1.6010	23.2370
 1.6020	23.2850
 1.6030	23.3370
 1.6040	23.3890
 1.6050	23.4400
 1.6060	23.4930
 1.6070	23.5430
 1.6080	23.5930
 1.6090	23.6420
 1.6100	23.6880
 1.6110	23.7340
 1.6120	23.7750
 1.6130	23.8140
 1.6140	23.8540
 1.6150	23.8960
 1.6160	23.9410
 1.6170	23.9850
 1.6180	24.0250
 1.6190	24.0690
 1.6200	24.1080
 1.6210	24.1450
 1.6220	24.1870
 1.6230	24.2260
 1.6240	24.2620
 1.6250	24.2980
 1.6260	24.3330
 1.6270	24.3650
 1.6280	24.3980
 1.6290	24.4280
 1.6300	24.4570
 1.6310	24.4830
 1.6320	24.5080
 1.6330	24.5300
 1.6340	24.5500
 1.6350	24.5660
 1.6360	24.5770
 1.6370	24.5890
 1.6380	24.6000
 1.6390	24.6060
 1.6400	24.6100
 1.6410	24.6100
 1.6420	24.6050
 1.6430	24.5990
 1.6440	24.5960
 1.6450	24.5820
 1.6460	24.5650
 1.6470	24.5450
 1.6480	24.5180
 1.6490	24.4910
 1.6500	24.4620
 1.6510	24.4300
 1.6520	24.3990
 1.6530	24.3690
 1.6540	24.3360
 1.6550	24.3010
 1.6560	24.2690
 1.6570	24.2380
 1.6580	24.2120
 1.6590	24.1930
 1.6600	24.1740
 1.6610	24.1590
 1.6620	24.1510
 1.6630	24.1470
 1.6640	24.1510
 1.6650	24.1600
 1.6660	24.1700
 1.6670	24.1810
 1.6680	24.1970
 1.6690	24.2170
 1.6700	24.2360
 1.6710	24.2550
 1.6720	24.2750
 1.6730	24.2910
 1.6740	24.3070
 1.6750	24.3240
 1.6760	24.3370
 1.6770	24.3450
 1.6780	24.3500
 1.6790	24.3440
 1.6800	24.3320
 1.6810	24.3140
 1.6820	24.2860
 1.6830	24.2560
 1.6840	24.2210
 1.6850	24.1800
 1.6860	24.1390
 1.6870	24.0910
 1.6880	24.0430
 1.6890	23.9940
 1.6900	23.9430
 1.6910	23.8930
 1.6920	23.8380
 1.6930	23.7760
 1.6940	23.7180
 1.6950	23.6580
 1.6960	23.5990
 1.6970	23.5420
 1.6980	23.4850
 1.6990	23.4310
 1.7000	23.3710
 1.7010	23.3090
 1.7020	23.2470
 1.7030	23.1770
 1.7040	23.1150
 1.7050	23.0560
 1.7060	22.9940
 1.7070	22.9330
 1.7080	22.8720
 1.7090	22.8100
 1.7100	22.7490
 1.7110	22.6870
 1.7120	22.6280
 1.7130	22.5720
 1.7140	22.5180
 1.7150	22.4690
 1.7160	22.4220
 1.7170	22.3750
 1.7180	22.3320
 1.7190	22.2920
 1.7200	22.2560
 1.7210	22.2250
 1.7220	22.1960
 1.7230	22.1720
 1.7240	22.1430
 1.7250	22.1100
 1.7260	22.0860
 1.7270	22.0620
 1.7280	22.0420
 1.7290	22.0320
 1.7300	22.0130
 1.7310	22.0020
 1.7320	21.9980
 1.7330	21.9910
 1.7340	21.9910
 1.7350	21.9820
 1.7360	21.9670
 1.7370	21.9510
 1.7380	21.9310
 1.7390	21.9080
 1.7400	21.8860
 1.7410	21.8560
 1.7420	21.8200
 1.7430	21.7810
 1.7440	21.7360
 1.7450	21.6920
 1.7460	21.6440
 1.7470	21.5980
 1.7480	21.5550
 1.7490	21.5090
 1.7500	21.4610
 1.7510	21.4140
 1.7520	21.3640
 1.7530	21.3160
 1.7540	21.2680
 1.7550	21.2190
 1.7560	21.1720
 1.7570	21.1350
 1.7580	21.0970
 1.7590	21.0590
 1.7600	21.0240
 1.7610	20.9800
 1.7620	20.9450
 1.7630	20.9170
 1.7640	20.8890
 1.7650	20.8650
 1.7660	20.8410
 1.7670	20.8150
 1.7680	20.7940
 1.7690	20.7790
 1.7700	20.7630
 1.7710	20.7480
 1.7720	20.7340
 1.7730	20.7230
 1.7740	20.7060
 1.7750	20.6870
 1.7760	20.6700
 1.7770	20.6470
 1.7780	20.6300
 1.7790	20.6190
 1.7800	20.6070
 1.7810	20.5960
 1.7820	20.5870
 1.7830	20.5780
 1.7840	20.5720
 1.7850	20.5670
 1.7860	20.5650
 1.7870	20.5670
 1.7880	20.5660
 1.7890	20.5720
 1.7900	20.5770
 1.7910	20.5800
 1.7920	20.5840
 1.7930	20.5880
 1.7940	20.5900
 1.7950	20.5950
 1.7960	20.6040
 1.7970	20.6090
 1.7980	20.6150
 1.7990	20.6200
 1.8000	20.6190
 1.8010	20.6280
 1.8020	20.6450
 1.8030	20.6570
 1.8040	20.6750
 1.8050	20.6850
 1.8060	20.6870
 1.8070	20.6940
 1.8080	20.7000
 1.8090	20.7050
 1.8100	20.7100
 1.8110	20.7190
 1.8120	20.7250
 1.8130	20.7280
 1.8140	20.7320
 1.8150	20.7370
 1.8160	20.7450
 1.8170	20.7590
 1.8180	20.7720
 1.8190	20.7740
 1.8200	20.7760
 1.8210	20.7700
 1.8220	20.7700
 1.8230	20.7740
 1.8240	20.7740
 1.8250	20.7760
 1.8260	20.7790
 1.8270	20.8130
 1.8280	20.8470
 1.8290	20.8810
 1.8300	20.9150
 1.8310	20.9500
 1.8320	20.9840
 1.8330	21.0180
 1.8340	21.0520
 1.8350	21.0520
 1.8360	21.0380
 1.8370	21.0200
 1.8380	21.0010
 1.8390	20.9740
 1.8400	20.9400
 1.8410	20.8980
 1.8420	20.8480
 1.8430	20.8030
 1.8440	20.7420
 1.8450	20.6800
 1.8460	20.6090
 1.8470	20.5310
 1.8480	20.4610
 1.8490	20.3810
 1.8500	20.2940
 1.8510	20.2050
 1.8520	20.1020
 1.8530	19.9870
 1.8540	19.8720
 1.8550	19.7400
 1.8560	19.6000
 1.8570	19.4570
 1.8580	19.3080
 1.8590	19.1530
 1.8600	18.9940
 1.8610	18.8310
 1.8620	18.6570
 1.8630	18.4640
 1.8640	18.2580
 1.8650	18.0490
 1.8660	17.8240
 1.8670	17.5950
 1.8680	17.3770
 1.8690	17.1390
 1.8700	16.8880
 1.8710	16.6300
 1.8720	16.3690
 1.8730	16.0870
 1.8740	15.8100
 1.8750	15.5430
 1.8760	15.2700
 1.8770	15.0030
 1.8780	14.7360
 1.8790	14.4650
 1.8800	14.2020
 1.8810	13.9420
 1.8820	13.6850
 1.8830	13.4360
 1.8840	13.2000
 1.8850	12.9700
 1.8860	12.7500
 1.8870	12.5420
 1.8880	12.3430
 1.8890	12.1500
 1.8900	11.9660
 1.8910	11.7960
 1.8920	11.6320
 1.8930	11.4850
 1.8940	11.3550
 1.8950	11.2360
 1.8960	11.1260
 1.8970	11.0210
 1.8980	10.9270
 1.8990	10.8460
 1.9000	10.7700
 1.9010	10.7070
 1.9020	10.6450
 1.9030	10.5890
 1.9040	10.5340
 1.9050	10.4860
 1.9060	10.4430
 1.9070	10.4050
 1.9080	10.3770
 1.9090	10.3530
 1.9100	10.3300
 1.9110	10.3110
 1.9120	10.2950
 1.9130	10.2820
 1.9140	10.2730
 1.9150	10.2660
 1.9160	10.2560
 1.9170	10.2440
 1.9180	10.2260
 1.9190	10.2160
 1.9200	10.2100
 1.9210	10.2070
 1.9220	10.2060
 1.9230	10.2150
 1.9240	10.2110
 1.9250	10.2050
 1.9260	10.1950
 1.9270	10.1770
 1.9280	10.1700
 1.9290	10.1760
 1.9300	10.1880
 1.9310	10.2100
 1.9320	10.2230
 1.9330	10.2320
 1.9340	10.2330
 1.9350	10.2410
 1.9360	10.2500
 1.9370	10.2580
 1.9380	10.2700
 1.9390	10.2770
 1.9400	10.2860
 1.9410	10.2920
 1.9420	10.3010
 1.9430	10.3120
 1.9440	10.3260
 1.9450	10.3430
 1.9460	10.3570
 1.9470	10.3740
 1.9480	10.3870
 1.9490	10.3970
 1.9500	10.4040
 1.9510	10.4110
 1.9520	10.4240
 1.9530	10.4410
 1.9540	10.4550
 1.9550	10.4700
 1.9560	10.4910
 1.9570	10.5030
 1.9580	10.5060
 1.9590	10.5190
 1.9600	10.5320
 1.9610	10.5480
 1.9620	10.5710
 1.9630	10.5930
 1.9640	10.6170
 1.9650	10.6370
 1.9660	10.6600
 1.9670	10.6850
 1.9680	10.7070
 1.9690	10.7260
 1.9700	10.7460
 1.9710	10.7600
 1.9720	10.7810
 1.9730	10.8100
 1.9740	10.8330
 1.9750	10.8580
 1.9760	10.8870
 1.9770	10.8980
 1.9780	10.9150
 1.9790	10.9380
 1.9800	10.9600
 1.9810	10.9860
 1.9820	11.0270
 1.9830	11.0520
 1.9840	11.0680
 1.9850	11.0920
 1.9860	11.1160
 1.9870	11.1350
 1.9880	11.1630
 1.9890	11.1930
 1.9900	11.2250
 1.9910	11.2590
 1.9920	11.2880
 1.9930	11.3170
 1.9940	11.3450
 1.9950	11.3690
 1.9960	11.3920
 1.9970	11.4110
 1.9980	11.4350
 1.9990	11.4620
 2.0000	11.4840
 2.0010	11.5130
 2.0020	11.5430
 2.0030	11.5620
 2.0040	11.5840
 2.0050	11.6080
 2.0060	11.6290
 2.0070	11.6550
 2.0080	11.6870
 2.0090	11.7150
 2.0100	11.7450
 2.0110	11.7740
 2.0120	11.8010
 2.0130	11.8300
 2.0140	11.8580
 2.0150	11.8890
 2.0160	11.9180
 2.0170	11.9410
 2.0180	11.9650
 2.0190	11.9840
 2.0200	12.0050
 2.0210	12.0250
 2.0220	12.0470
 2.0230	12.0710
 2.0240	12.0910
 2.0250	12.1110
 2.0260	12.1320
 2.0270	12.1490
 2.0280	12.1690
 2.0290	12.1930
 2.0300	12.2190
 2.0310	12.2430
 2.0320	12.2690
 2.0330	12.2890
 2.0340	12.3050
 2.0350	12.3210
 2.0360	12.3300
 2.0370	12.3460
 2.0380	12.3670
 2.0390	12.3830
 2.0400	12.3980
 2.0410	12.4150
 2.0420	12.4370
 2.0430	12.4500
 2.0440	12.4620
 2.0450	12.4780
 2.0460	12.4870
 2.0470	12.4820
 2.0480	12.4920
 2.0490	12.5100
 2.0500	12.5240
 2.0510	12.5450
 2.0520	12.5610
 2.0530	12.5720
 2.0540	12.5830
 2.0550	12.5910
 2.0560	12.6010
 2.0570	12.6160
 2.0580	12.6260
 2.0590	12.6370
 2.0600	12.6530
 2.0610	12.6620
 2.0620	12.6630
 2.0630	12.6720
 2.0640	12.6830
 2.0650	12.6950
 2.0660	12.7150
 2.0670	12.7280
 2.0680	12.7350
 2.0690	12.7470
 2.0700	12.7590
 2.0710	12.7710
 2.0720	12.7790
 2.0730	12.8030
 2.0740	12.8160
 2.0750	12.8210
 2.0760	12.8340
 2.0770	12.8510
 2.0780	12.8630
 2.0790	12.8790
 2.0800	12.8910
 2.0810	12.8960
 2.0820	12.9040
 2.0830	12.9140
 2.0840	12.9200
 2.0850	12.9170
 2.0860	12.9260
 2.0870	12.9390
 2.0880	12.9530
 2.0890	12.9710
 2.0900	13.0040
 2.0910	13.0170
 2.0920	13.0260
 2.0930	13.0300
 2.0940	13.0210
 2.0950	13.0250
 2.0960	13.0290
 2.0970	13.0390
 2.0980	13.0620
 2.0990	13.0800
 2.1000	13.1020
 2.1010	13.1210
 2.1020	13.1420
 2.1030	13.1580
 2.1040	13.1670
 2.1050	13.1790
 2.1060	13.1880
 2.1070	13.1910
 2.1080	13.2000
 2.1090	13.2090
 2.1100	13.2190
 2.1110	13.2290
 2.1120	13.2430
 2.1130	13.2650
 2.1140	13.2760
 2.1150	13.2870
 2.1160	13.2930
 2.1170	13.2840
 2.1180	13.2880
 2.1190	13.3030
 2.1200	13.3110
 2.1210	13.3210
 2.1220	13.3340
 2.1230	13.3390
 2.1240	13.3370
 2.1250	13.3420
 2.1260	13.3490
 2.1270	13.3540
 2.1280	13.3600
 2.1290	13.3690
 2.1300	13.3770
 2.1310	13.3880
 2.1320	13.4080
 2.1330	13.4210
 2.1340	13.4330
 2.1350	13.4430
 2.1360	13.4500
 2.1370	13.4560
 2.1380	13.4540
 2.1390	13.4620
 2.1400	13.4740
 2.1410	13.4880
 2.1420	13.5040
 2.1430	13.5280
 2.1440	13.5420
 2.1450	13.5500
 2.1460	13.5640
 2.1470	13.5780
 2.1480	13.5900
 2.1490	13.6020
 2.1500	13.6150
 2.1510	13.6260
 2.1520	13.6390
 2.1530	13.6570
 2.1540	13.6710
 2.1550	13.6820
 2.1560	13.6950
 2.1570	13.7070
 2.1580	13.7190
 2.1590	13.7260
 2.1600	13.7380
 2.1610	13.7600
 2.1620	13.7730
 2.1630	13.7900
 2.1640	13.8160
 2.1650	13.8270
 2.1660	13.8270
 2.1670	13.8370
 2.1680	13.8460
 2.1690	13.8540
 2.1700	13.8710
 2.1710	13.8780
 2.1720	13.8690
 2.1730	13.8790
 2.1740	13.9020
 2.1750	13.9170
 2.1760	13.9400
 2.1770	13.9590
 2.1780	13.9710
 2.1790	13.9810
 2.1800	13.9950
 2.1810	14.0040
 2.1820	14.0000
 2.1830	14.0090
 2.1840	14.0160
 2.1850	14.0220
 2.1860	14.0320
 2.1870	14.0450
 2.1880	14.0570
 2.1890	14.0700
 2.1900	14.0870
 2.1910	14.1070
 2.1920	14.1230
 2.1930	14.1410
 2.1940	14.1520
 2.1950	14.1550
 2.1960	14.1600
 2.1970	14.1560
 2.1980	14.1650
 2.1990	14.1830
 2.2000	14.1970
 2.2010	14.2180
 2.2020	14.2360
 2.2030	14.2430
 2.2040	14.2590
 2.2050	14.2740
 2.2060	14.3030
 2.2070	14.3200
 2.2080	14.3410
 2.2090	14.3480
 2.2100	14.3450
 2.2110	14.3440
 2.2120	14.3340
 2.2130	14.3350
 2.2140	14.3370
 2.2150	14.3420
 2.2160	14.3570
 2.2170	14.3640
 2.2180	14.3660
 2.2190	14.3770
 2.2200	14.3930
 2.2210	14.4010
 2.2220	14.4140
 2.2230	14.4180
 2.2240	14.4070
 2.2250	14.4030
 2.2260	14.4060
 2.2270	14.4020
 2.2280	14.3940
 2.2290	14.3870
 2.2300	14.3750
 2.2310	14.3640
 2.2320	14.3570
 2.2330	14.3480
 2.2340	14.3350
 2.2350	14.3200
 2.2360	14.3020
 2.2370	14.2770
 2.2380	14.2640
 2.2390	14.2560
 2.2400	14.2400
 2.2410	14.2310
 2.2420	14.2070
 2.2430	14.1670
 2.2440	14.1370
 2.2450	14.1070
 2.2460	14.0750
 2.2470	14.0420
 2.2480	14.0080
 2.2490	13.9670
 2.2500	13.9310
 2.2510	13.8980
 2.2520	13.8630
 2.2530	13.8290
 2.2540	13.7900
 2.2550	13.7480
 2.2560	13.7030
 2.2570	13.6470
 2.2580	13.6010
 2.2590	13.5500
 2.2600	13.5130
 2.2610	13.4960
 2.2620	13.4700
 2.2630	13.4480
 2.2640	13.4230
 2.2650	13.3850
 2.2660	13.3580
 2.2670	13.3280
 2.2680	13.3020
 2.2690	13.2720
 2.2700	13.2340
 2.2710	13.2070
 2.2720	13.1860
 2.2730	13.1610
 2.2740	13.1430
 2.2750	13.1160
 2.2760	13.0780
 2.2770	13.0550
 2.2780	13.0400
 2.2790	13.0190
 2.2800	13.0020
 2.2810	12.9870
 2.2820	12.9700
 2.2830	12.9500
 2.2840	12.9380
 2.2850	12.9130
 2.2860	12.8670
 2.2870	12.8390
 2.2880	12.8190
 2.2890	12.7910
 2.2900	12.7670
 2.2910	12.7410
 2.2920	12.7010
 2.2930	12.6700
 2.2940	12.6520
 2.2950	12.6240
 2.2960	12.5880
 2.2970	12.5570
 2.2980	12.5170
 2.2990	12.4860
 2.3000	12.4660
 2.3010	12.4510
 2.3020	12.4460
 2.3030	12.4400
 2.3040	12.4390
 2.3050	12.4420
 2.3060	12.4280
 2.3070	12.4210
 2.3080	12.4090
 2.3090	12.3750
 2.3100	12.3640
 2.3110	12.3500
 2.3120	12.3490
 2.3130	12.3670
 2.3140	12.3780
 2.3150	12.3990
 2.3160	12.4030
 2.3170	12.3970
 2.3180	12.3910
 2.3190	12.3780
 2.3200	12.3700
 2.3210	12.3640
 2.3220	12.3570
 2.3230	12.3420
 2.3240	12.3460
 2.3250	12.3730
 2.3260	12.3770
 2.3270	12.3840
 2.3280	12.3840
 2.3290	12.3610
 2.3300	12.3510
 2.3310	12.3540
 2.3320	12.3430
 2.3330	12.3140
 2.3340	12.3080
 2.3350	12.3170
 2.3360	12.3120
 2.3370	12.3180
 2.3380	12.3050
 2.3390	12.2610
 2.3400	12.2340
 2.3410	12.2040
 2.3420	12.1890
 2.3430	12.1910
 2.3440	12.1850
 2.3450	12.1890
 2.3460	12.1870
 2.3470	12.1740
 2.3480	12.1680
 2.3490	12.1780
 2.3500	12.1670
 2.3510	12.1270
 2.3520	12.1220
 2.3530	12.1300
 2.3540	12.1310
 2.3550	12.1520
 2.3560	12.1590
 2.3570	12.1360
 2.3580	12.1060
 2.3590	12.0790
 2.3600	12.0760
 2.3610	12.0770
 2.3620	12.0690
 2.3630	12.0690
 2.3640	12.0830
 2.3650	12.0900
 2.3660	12.0830
 2.3670	12.0860
 2.3680	12.0840
 2.3690	12.0700
 2.3700	12.0680
 2.3710	12.0600
 2.3720	12.0190
 2.3730	11.9920
 2.3740	11.9790
 2.3750	11.9570
 2.3760	11.9600
 2.3770	11.9500
 2.3780	11.9260
 2.3790	11.9330
 2.3800	11.9290
 2.3810	11.9170
 2.3820	11.9050
 2.3830	11.8680
 2.3840	11.8260
 2.3850	11.7900
 2.3860	11.7680
 2.3870	11.7630
 2.3880	11.7660
 2.3890	11.7950
 2.3900	11.8130
 2.3910	11.8030
 2.3920	11.8010
 2.3930	11.7840
 2.3940	11.7680
 2.3950	11.7670
 2.3960	11.7470
 2.3970	11.7490
 2.3980	11.7590
 2.3990	11.7500
 2.4000	11.7420
 2.4010	11.7060
 2.4020	11.6530
 2.4030	11.6270
 2.4040	11.6400
 2.4050	11.6690
 2.4060	11.6730
 2.4070	11.6360
 2.4080	11.5970
 2.4090	11.6110
 2.4100	11.6170
 2.4110	11.6110
 2.4120	11.6250
 2.4130	11.5930
 2.4140	11.5530
 2.4150	11.5830
 2.4160	11.6120
 2.4170	11.5890
 2.4180	11.5500
 2.4190	11.5250
 2.4200	11.5000
 2.4210	11.4770
 2.4220	11.4830
 2.4230	11.4700
 2.4240	11.4550
 2.4250	11.4450
 2.4260	11.4330
 2.4270	11.4300
 2.4280	11.3690
 2.4290	11.3260
 2.4300	11.3410
 2.4310	11.3410
 2.4320	11.3870
 2.4330	11.4390
 2.4340	11.4310
 2.4350	11.4500
 2.4360	11.4340
 2.4370	11.3450
 2.4380	11.3080
 2.4390	11.2540
 2.4400	11.1660
 2.4410	11.1590
 2.4420	11.1940
 2.4430	11.1960
 2.4440	11.1820
 2.4450	11.2140
 2.4460	11.2100
 2.4470	11.1780
 2.4480	11.2290
 2.4490	11.2430
 2.4500	11.2230
 2.4510	11.2360
 2.4520	11.1990
 2.4530	11.1810
 2.4540	11.2060
 2.4550	11.1870
 2.4560	11.1380
 2.4570	11.1140
 2.4580	11.0870
 2.4590	11.0390
 2.4600	11.0950
 2.4610	11.1580
 2.4620	11.1100
 2.4630	11.0860
 2.4640	11.0880
 2.4650	11.0480
 2.4660	10.9990
 2.4670	11.0120
 2.4680	10.9600
 2.4690	10.9280
 2.4700	10.9070
 2.4710	10.8350
 2.4720	10.8140
 2.4730	10.8220
 2.4740	10.8440
 2.4750	10.9380
 2.4760	11.0010
 2.4770	11.0640
 2.4780	11.0630
 2.4790	10.9420
 2.4800	10.9180
 2.4810	10.9620
 2.4820	10.9800
 2.4830	11.0310
 2.4840	10.9800
 2.4850	11.0180
 2.4860	11.0680
 2.4870	11.0250
 2.4880	11.1110
 2.4890	11.0360
 2.4900	10.9790
 2.4910	11.0940
 2.4920	11.0180
 2.4930	10.9630
 2.4940	10.9230
 2.4950	10.6940
 2.4960	10.6340
 2.4970	10.6970
 2.4980	10.6540
 2.4990	10.7760
 2.5000	10.8970
