Name: Portulacaria afra 'Low Form'
Type: vegetation
Class: Shrub
Genus: Portulacaria
Species: afra_lowform
Sample No.: JPL065
Owner: JPL
Wavelength Range: VSWIR
Origin: 34.1269; - 118.11013; WGS84
Collection Date: 2/2/2016
Description: Samples were collected at the Huntington Garden in San Marino California as part of a JPL Subcontract studying HyTES imagery. Samples were taken to JPL and processed within 48 hours of collection. The same leaves were processed in the Nicolet and then measured using the ASD.
Measurement: Bidirectional reflectance
First Column: X
Second Column: Y
X Units: Wavelength (micrometer)
Y Units: Reflectance (percentage)
First X Value: 0.35
Last X Value: 2.5
Number of X Values: 2151
Additional Information: 

 0.3500	 5.4640
 0.3510	 5.5730
 0.3520	 4.6580
 0.3530	 4.0860
 0.3540	 4.6510
 0.3550	 4.3000
 0.3560	 4.7660
 0.3570	 5.4070
 0.3580	 4.7520
 0.3590	 5.1270
 0.3600	 5.5390
 0.3610	 5.4260
 0.3620	 5.3150
 0.3630	 5.0890
 0.3640	 4.7910
 0.3650	 4.5430
 0.3660	 4.7200
 0.3670	 4.9440
 0.3680	 4.9150
 0.3690	 4.4700
 0.3700	 4.1300
 0.3710	 4.1930
 0.3720	 4.5620
 0.3730	 4.4970
 0.3740	 4.6560
 0.3750	 4.8450
 0.3760	 4.7850
 0.3770	 5.0920
 0.3780	 5.1340
 0.3790	 4.6850
 0.3800	 3.9870
 0.3810	 4.3250
 0.3820	 4.7060
 0.3830	 4.4360
 0.3840	 4.2200
 0.3850	 4.6920
 0.3860	 5.2230
 0.3870	 4.9440
 0.3880	 4.6190
 0.3890	 4.4640
 0.3900	 4.5580
 0.3910	 4.8900
 0.3920	 5.0010
 0.3930	 5.0350
 0.3940	 5.1360
 0.3950	 5.1430
 0.3960	 4.7710
 0.3970	 4.4020
 0.3980	 4.6060
 0.3990	 4.7370
 0.4000	 5.0000
 0.4010	 5.2670
 0.4020	 4.9040
 0.4030	 4.5960
 0.4040	 4.6230
 0.4050	 5.0120
 0.4060	 5.4580
 0.4070	 5.4660
 0.4080	 5.1890
 0.4090	 5.1620
 0.4100	 5.0970
 0.4110	 5.1380
 0.4120	 5.3170
 0.4130	 5.3840
 0.4140	 5.3650
 0.4150	 5.3260
 0.4160	 5.3220
 0.4170	 5.2460
 0.4180	 5.2930
 0.4190	 5.5080
 0.4200	 5.7690
 0.4210	 5.7600
 0.4220	 5.5770
 0.4230	 5.4230
 0.4240	 5.5410
 0.4250	 5.7350
 0.4260	 5.8830
 0.4270	 5.9180
 0.4280	 5.9400
 0.4290	 5.9340
 0.4300	 5.9290
 0.4310	 6.0210
 0.4320	 6.1310
 0.4330	 6.1900
 0.4340	 6.1780
 0.4350	 6.2140
 0.4360	 6.2460
 0.4370	 6.2520
 0.4380	 6.2410
 0.4390	 6.3380
 0.4400	 6.4230
 0.4410	 6.4300
 0.4420	 6.5270
 0.4430	 6.5080
 0.4440	 6.4140
 0.4450	 6.3820
 0.4460	 6.4650
 0.4470	 6.6380
 0.4480	 6.7680
 0.4490	 6.6080
 0.4500	 6.5080
 0.4510	 6.5750
 0.4520	 6.7680
 0.4530	 6.8040
 0.4540	 6.7520
 0.4550	 6.7190
 0.4560	 6.8160
 0.4570	 6.8440
 0.4580	 6.8570
 0.4590	 6.8850
 0.4600	 6.8440
 0.4610	 6.8970
 0.4620	 6.9240
 0.4630	 6.7980
 0.4640	 6.9010
 0.4650	 6.9340
 0.4660	 6.8610
 0.4670	 6.9350
 0.4680	 6.9390
 0.4690	 6.9210
 0.4700	 6.9450
 0.4710	 6.9800
 0.4720	 6.9660
 0.4730	 6.9380
 0.4740	 6.9660
 0.4750	 6.9710
 0.4760	 6.9370
 0.4770	 6.8970
 0.4780	 6.9500
 0.4790	 6.9830
 0.4800	 6.9870
 0.4810	 6.9820
 0.4820	 6.9590
 0.4830	 6.9770
 0.4840	 7.0250
 0.4850	 7.0370
 0.4860	 7.0810
 0.4870	 7.1020
 0.4880	 7.0730
 0.4890	 7.1100
 0.4900	 7.1190
 0.4910	 7.1280
 0.4920	 7.1990
 0.4930	 7.1790
 0.4940	 7.1840
 0.4950	 7.2680
 0.4960	 7.3700
 0.4970	 7.4420
 0.4980	 7.4880
 0.4990	 7.5330
 0.5000	 7.5870
 0.5010	 7.6630
 0.5020	 7.7440
 0.5030	 7.7930
 0.5040	 7.9100
 0.5050	 8.0120
 0.5060	 8.0640
 0.5070	 8.1950
 0.5080	 8.3450
 0.5090	 8.4940
 0.5100	 8.6410
 0.5110	 8.7990
 0.5120	 8.9470
 0.5130	 9.0960
 0.5140	 9.3090
 0.5150	 9.4990
 0.5160	 9.6860
 0.5170	 9.9070
 0.5180	10.1390
 0.5190	10.3720
 0.5200	10.5880
 0.5210	10.7690
 0.5220	11.0170
 0.5230	11.2560
 0.5240	11.4480
 0.5250	11.6850
 0.5260	11.9340
 0.5270	12.1680
 0.5280	12.3650
 0.5290	12.5220
 0.5300	12.6760
 0.5310	12.8390
 0.5320	13.0010
 0.5330	13.1340
 0.5340	13.2530
 0.5350	13.3740
 0.5360	13.4970
 0.5370	13.5980
 0.5380	13.6690
 0.5390	13.7200
 0.5400	13.8120
 0.5410	13.9330
 0.5420	14.0550
 0.5430	14.1430
 0.5440	14.1950
 0.5450	14.2160
 0.5460	14.2210
 0.5470	14.2310
 0.5480	14.2130
 0.5490	14.1840
 0.5500	14.2270
 0.5510	14.2380
 0.5520	14.2140
 0.5530	14.1790
 0.5540	14.1570
 0.5550	14.1270
 0.5560	14.0840
 0.5570	14.0350
 0.5580	13.9660
 0.5590	13.8760
 0.5600	13.7740
 0.5610	13.6990
 0.5620	13.6240
 0.5630	13.5290
 0.5640	13.4070
 0.5650	13.3130
 0.5660	13.2170
 0.5670	13.0970
 0.5680	12.9550
 0.5690	12.8210
 0.5700	12.6880
 0.5710	12.5440
 0.5720	12.4000
 0.5730	12.2610
 0.5740	12.1230
 0.5750	11.9750
 0.5760	11.8700
 0.5770	11.7880
 0.5780	11.7090
 0.5790	11.6320
 0.5800	11.5540
 0.5810	11.4750
 0.5820	11.3950
 0.5830	11.3270
 0.5840	11.2760
 0.5850	11.2330
 0.5860	11.1800
 0.5870	11.1220
 0.5880	11.0780
 0.5890	11.0510
 0.5900	10.9930
 0.5910	10.9440
 0.5920	10.9060
 0.5930	10.8640
 0.5940	10.8370
 0.5950	10.8140
 0.5960	10.7880
 0.5970	10.7550
 0.5980	10.7510
 0.5990	10.7580
 0.6000	10.7460
 0.6010	10.7260
 0.6020	10.6860
 0.6030	10.6260
 0.6040	10.5680
 0.6050	10.5210
 0.6060	10.4790
 0.6070	10.4290
 0.6080	10.3250
 0.6090	10.2490
 0.6100	10.2120
 0.6110	10.1820
 0.6120	10.1210
 0.6130	10.0260
 0.6140	 9.9110
 0.6150	 9.8060
 0.6160	 9.7130
 0.6170	 9.6350
 0.6180	 9.5770
 0.6190	 9.5510
 0.6200	 9.5050
 0.6210	 9.4410
 0.6220	 9.3990
 0.6230	 9.3800
 0.6240	 9.3560
 0.6250	 9.3190
 0.6260	 9.3120
 0.6270	 9.3010
 0.6280	 9.2870
 0.6290	 9.2830
 0.6300	 9.3000
 0.6310	 9.3010
 0.6320	 9.2840
 0.6330	 9.2880
 0.6340	 9.2740
 0.6350	 9.2440
 0.6360	 9.2100
 0.6370	 9.1780
 0.6380	 9.1460
 0.6390	 9.1010
 0.6400	 9.0290
 0.6410	 8.9540
 0.6420	 8.8840
 0.6430	 8.8190
 0.6440	 8.7400
 0.6450	 8.6690
 0.6460	 8.6020
 0.6470	 8.5310
 0.6480	 8.4660
 0.6490	 8.4100
 0.6500	 8.3610
 0.6510	 8.3130
 0.6520	 8.2530
 0.6530	 8.2110
 0.6540	 8.1970
 0.6550	 8.1700
 0.6560	 8.0940
 0.6570	 7.9970
 0.6580	 7.9330
 0.6590	 7.8810
 0.6600	 7.8170
 0.6610	 7.7360
 0.6620	 7.6520
 0.6630	 7.5740
 0.6640	 7.5050
 0.6650	 7.4450
 0.6660	 7.3990
 0.6670	 7.3540
 0.6680	 7.3090
 0.6690	 7.2690
 0.6700	 7.2470
 0.6710	 7.2350
 0.6720	 7.2260
 0.6730	 7.2160
 0.6740	 7.2190
 0.6750	 7.2240
 0.6760	 7.2250
 0.6770	 7.2500
 0.6780	 7.2790
 0.6790	 7.3120
 0.6800	 7.3630
 0.6810	 7.4290
 0.6820	 7.5020
 0.6830	 7.5810
 0.6840	 7.6740
 0.6850	 7.7910
 0.6860	 7.9320
 0.6870	 8.0920
 0.6880	 8.2800
 0.6890	 8.5140
 0.6900	 8.7940
 0.6910	 9.1120
 0.6920	 9.4610
 0.6930	 9.8740
 0.6940	10.3620
 0.6950	10.8810
 0.6960	11.4430
 0.6970	12.0560
 0.6980	12.7250
 0.6990	13.4360
 0.7000	14.1660
 0.7010	14.9120
 0.7020	15.6910
 0.7030	16.4970
 0.7040	17.3130
 0.7050	18.1310
 0.7060	18.9560
 0.7070	19.7900
 0.7080	20.6320
 0.7090	21.4770
 0.7100	22.3050
 0.7110	23.1430
 0.7120	23.9950
 0.7130	24.8470
 0.7140	25.6860
 0.7150	26.5260
 0.7160	27.3730
 0.7170	28.2110
 0.7180	29.0350
 0.7190	29.8480
 0.7200	30.6560
 0.7210	31.4670
 0.7220	32.2320
 0.7230	32.9540
 0.7240	33.6900
 0.7250	34.3990
 0.7260	35.0690
 0.7270	35.7020
 0.7280	36.3050
 0.7290	36.8820
 0.7300	37.4310
 0.7310	37.9440
 0.7320	38.4320
 0.7330	38.8840
 0.7340	39.3020
 0.7350	39.7030
 0.7360	40.0720
 0.7370	40.4140
 0.7380	40.7370
 0.7390	41.0410
 0.7400	41.3210
 0.7410	41.5800
 0.7420	41.8190
 0.7430	42.0430
 0.7440	42.2490
 0.7450	42.4310
 0.7460	42.5880
 0.7470	42.7360
 0.7480	42.8790
 0.7490	43.0120
 0.7500	43.1180
 0.7510	43.2100
 0.7520	43.2940
 0.7530	43.3740
 0.7540	43.4440
 0.7550	43.5080
 0.7560	43.5670
 0.7570	43.6170
 0.7580	43.6640
 0.7590	43.7150
 0.7600	43.7650
 0.7610	43.7910
 0.7620	43.8200
 0.7630	43.8500
 0.7640	43.8740
 0.7650	43.8900
 0.7660	43.9090
 0.7670	43.9320
 0.7680	43.9520
 0.7690	43.9690
 0.7700	43.9830
 0.7710	43.9910
 0.7720	43.9850
 0.7730	43.9900
 0.7740	44.0010
 0.7750	44.0140
 0.7760	44.0320
 0.7770	44.0500
 0.7780	44.0530
 0.7790	44.0330
 0.7800	44.0280
 0.7810	44.0450
 0.7820	44.0730
 0.7830	44.0880
 0.7840	44.0770
 0.7850	44.0680
 0.7860	44.0830
 0.7870	44.1060
 0.7880	44.0920
 0.7890	44.0710
 0.7900	44.0880
 0.7910	44.1050
 0.7920	44.1160
 0.7930	44.1140
 0.7940	44.0940
 0.7950	44.0850
 0.7960	44.0960
 0.7970	44.1140
 0.7980	44.1040
 0.7990	44.0970
 0.8000	44.0870
 0.8010	44.0690
 0.8020	44.0650
 0.8030	44.0710
 0.8040	44.0740
 0.8050	44.0590
 0.8060	44.0500
 0.8070	44.0480
 0.8080	44.0480
 0.8090	44.0390
 0.8100	44.0160
 0.8110	44.0000
 0.8120	43.9930
 0.8130	43.9700
 0.8140	43.9470
 0.8150	43.9310
 0.8160	43.9230
 0.8170	43.8990
 0.8180	43.8970
 0.8190	43.8950
 0.8200	43.8620
 0.8210	43.8420
 0.8220	43.8160
 0.8230	43.7850
 0.8240	43.7670
 0.8250	43.7500
 0.8260	43.7120
 0.8270	43.6570
 0.8280	43.6260
 0.8290	43.5990
 0.8300	43.5660
 0.8310	43.5280
 0.8320	43.5050
 0.8330	43.4750
 0.8340	43.4400
 0.8350	43.4080
 0.8360	43.3790
 0.8370	43.3610
 0.8380	43.3600
 0.8390	43.3760
 0.8400	43.3630
 0.8410	43.3400
 0.8420	43.3210
 0.8430	43.2960
 0.8440	43.3070
 0.8450	43.3290
 0.8460	43.3330
 0.8470	43.3110
 0.8480	43.2970
 0.8490	43.3010
 0.8500	43.3190
 0.8510	43.3220
 0.8520	43.3300
 0.8530	43.3250
 0.8540	43.2880
 0.8550	43.3160
 0.8560	43.3250
 0.8570	43.3010
 0.8580	43.3190
 0.8590	43.3340
 0.8600	43.3490
 0.8610	43.3610
 0.8620	43.3380
 0.8630	43.3440
 0.8640	43.3530
 0.8650	43.3390
 0.8660	43.3520
 0.8670	43.3840
 0.8680	43.4010
 0.8690	43.3760
 0.8700	43.3690
 0.8710	43.3620
 0.8720	43.3600
 0.8730	43.3770
 0.8740	43.3810
 0.8750	43.3800
 0.8760	43.3780
 0.8770	43.3740
 0.8780	43.3750
 0.8790	43.3900
 0.8800	43.4040
 0.8810	43.3740
 0.8820	43.3810
 0.8830	43.3930
 0.8840	43.3820
 0.8850	43.3860
 0.8860	43.3660
 0.8870	43.3590
 0.8880	43.3920
 0.8890	43.3810
 0.8900	43.3460
 0.8910	43.3200
 0.8920	43.3310
 0.8930	43.3780
 0.8940	43.3710
 0.8950	43.3160
 0.8960	43.2880
 0.8970	43.3000
 0.8980	43.3240
 0.8990	43.3380
 0.9000	43.3320
 0.9010	43.3160
 0.9020	43.2940
 0.9030	43.2750
 0.9040	43.2800
 0.9050	43.2920
 0.9060	43.2960
 0.9070	43.2830
 0.9080	43.2510
 0.9090	43.2160
 0.9100	43.1990
 0.9110	43.1950
 0.9120	43.1370
 0.9130	43.0950
 0.9140	43.0600
 0.9150	43.0140
 0.9160	42.9890
 0.9170	42.9740
 0.9180	42.9450
 0.9190	42.8880
 0.9200	42.8230
 0.9210	42.7530
 0.9220	42.6900
 0.9230	42.6380
 0.9240	42.5360
 0.9250	42.4400
 0.9260	42.3740
 0.9270	42.3170
 0.9280	42.2220
 0.9290	42.0930
 0.9300	41.9370
 0.9310	41.7700
 0.9320	41.6740
 0.9330	41.5780
 0.9340	41.4480
 0.9350	41.3150
 0.9360	41.1320
 0.9370	40.9560
 0.9380	40.8110
 0.9390	40.6450
 0.9400	40.4780
 0.9410	40.3150
 0.9420	40.1400
 0.9430	39.9110
 0.9440	39.7230
 0.9450	39.5510
 0.9460	39.3470
 0.9470	39.0880
 0.9480	38.8330
 0.9490	38.5910
 0.9500	38.3490
 0.9510	38.0630
 0.9520	37.7730
 0.9530	37.4900
 0.9540	37.2070
 0.9550	36.9000
 0.9560	36.5970
 0.9570	36.3340
 0.9580	36.1340
 0.9590	35.9920
 0.9600	35.8230
 0.9610	35.6490
 0.9620	35.5310
 0.9630	35.4910
 0.9640	35.3770
 0.9650	35.2230
 0.9660	35.1220
 0.9670	35.0620
 0.9680	35.0480
 0.9690	35.0130
 0.9700	34.9010
 0.9710	34.8240
 0.9720	34.8510
 0.9730	34.9180
 0.9740	34.9160
 0.9750	34.8430
 0.9760	34.8230
 0.9770	34.8500
 0.9780	34.8650
 0.9790	34.9400
 0.9800	34.8830
 0.9810	34.8050
 0.9820	34.9070
 0.9830	35.0260
 0.9840	35.0220
 0.9850	34.9900
 0.9860	35.0950
 0.9870	35.2060
 0.9880	35.2690
 0.9890	35.2810
 0.9900	35.2870
 0.9910	35.3900
 0.9920	35.4520
 0.9930	35.4900
 0.9940	35.5830
 0.9950	35.6710
 0.9960	35.7270
 0.9970	35.7710
 0.9980	35.8510
 0.9990	36.0140
 1.0000	36.0830
 1.0010	36.6230
 1.0020	36.7290
 1.0030	36.8080
 1.0040	36.9160
 1.0050	37.0040
 1.0060	37.0750
 1.0070	37.1940
 1.0080	37.3020
 1.0090	37.4040
 1.0100	37.5230
 1.0110	37.6750
 1.0120	37.7860
 1.0130	37.8890
 1.0140	37.9790
 1.0150	38.0360
 1.0160	38.1040
 1.0170	38.2130
 1.0180	38.3370
 1.0190	38.4740
 1.0200	38.6340
 1.0210	38.7690
 1.0220	38.8950
 1.0230	38.9960
 1.0240	39.0640
 1.0250	39.1570
 1.0260	39.2450
 1.0270	39.3280
 1.0280	39.4060
 1.0290	39.5180
 1.0300	39.6420
 1.0310	39.7540
 1.0320	39.9040
 1.0330	40.0290
 1.0340	40.1170
 1.0350	40.1970
 1.0360	40.2760
 1.0370	40.3500
 1.0380	40.4250
 1.0390	40.4910
 1.0400	40.5660
 1.0410	40.6540
 1.0420	40.7270
 1.0430	40.8020
 1.0440	40.8590
 1.0450	40.8800
 1.0460	40.9340
 1.0470	41.0020
 1.0480	41.0640
 1.0490	41.1500
 1.0500	41.2170
 1.0510	41.2720
 1.0520	41.3050
 1.0530	41.3520
 1.0540	41.3950
 1.0550	41.4470
 1.0560	41.5070
 1.0570	41.5550
 1.0580	41.6060
 1.0590	41.6480
 1.0600	41.6870
 1.0610	41.7130
 1.0620	41.7250
 1.0630	41.7430
 1.0640	41.7560
 1.0650	41.7660
 1.0660	41.7880
 1.0670	41.7920
 1.0680	41.7860
 1.0690	41.7640
 1.0700	41.7510
 1.0710	41.7260
 1.0720	41.7190
 1.0730	41.7220
 1.0740	41.7220
 1.0750	41.7360
 1.0760	41.7310
 1.0770	41.7210
 1.0780	41.7070
 1.0790	41.6840
 1.0800	41.6590
 1.0810	41.6240
 1.0820	41.5990
 1.0830	41.5950
 1.0840	41.5610
 1.0850	41.4980
 1.0860	41.4630
 1.0870	41.4170
 1.0880	41.3440
 1.0890	41.3060
 1.0900	41.3030
 1.0910	41.2630
 1.0920	41.2220
 1.0930	41.1680
 1.0940	41.0880
 1.0950	41.0250
 1.0960	40.9660
 1.0970	40.9040
 1.0980	40.8450
 1.0990	40.7840
 1.1000	40.7180
 1.1010	40.6560
 1.1020	40.6000
 1.1030	40.5400
 1.1040	40.4760
 1.1050	40.4180
 1.1060	40.3540
 1.1070	40.2870
 1.1080	40.2180
 1.1090	40.1500
 1.1100	40.0730
 1.1110	39.9910
 1.1120	39.9050
 1.1130	39.8080
 1.1140	39.7200
 1.1150	39.6430
 1.1160	39.5510
 1.1170	39.4600
 1.1180	39.3580
 1.1190	39.2510
 1.1200	39.1270
 1.1210	38.9880
 1.1220	38.8340
 1.1230	38.6580
 1.1240	38.4680
 1.1250	38.2680
 1.1260	38.0640
 1.1270	37.8290
 1.1280	37.5790
 1.1290	37.3020
 1.1300	37.0020
 1.1310	36.6800
 1.1320	36.3400
 1.1330	35.9710
 1.1340	35.5680
 1.1350	35.1590
 1.1360	34.7280
 1.1370	34.2870
 1.1380	33.8360
 1.1390	33.3740
 1.1400	32.8940
 1.1410	32.4100
 1.1420	31.9500
 1.1430	31.4990
 1.1440	31.0650
 1.1450	30.6440
 1.1460	30.2510
 1.1470	29.8650
 1.1480	29.5140
 1.1490	29.1970
 1.1500	28.8950
 1.1510	28.6170
 1.1520	28.3580
 1.1530	28.1100
 1.1540	27.8970
 1.1550	27.7120
 1.1560	27.5440
 1.1570	27.4090
 1.1580	27.3040
 1.1590	27.2030
 1.1600	27.1160
 1.1610	27.0330
 1.1620	26.9520
 1.1630	26.8740
 1.1640	26.7970
 1.1650	26.7430
 1.1660	26.7070
 1.1670	26.6740
 1.1680	26.6660
 1.1690	26.6420
 1.1700	26.6070
 1.1710	26.5830
 1.1720	26.5580
 1.1730	26.5400
 1.1740	26.5350
 1.1750	26.5230
 1.1760	26.5070
 1.1770	26.4990
 1.1780	26.4790
 1.1790	26.4550
 1.1800	26.4410
 1.1810	26.4150
 1.1820	26.3900
 1.1830	26.3760
 1.1840	26.3430
 1.1850	26.3120
 1.1860	26.2930
 1.1870	26.2700
 1.1880	26.2560
 1.1890	26.2550
 1.1900	26.2460
 1.1910	26.2360
 1.1920	26.2280
 1.1930	26.2200
 1.1940	26.2140
 1.1950	26.2060
 1.1960	26.2050
 1.1970	26.2060
 1.1980	26.2070
 1.1990	26.2230
 1.2000	26.2380
 1.2010	26.2580
 1.2020	26.2830
 1.2030	26.3000
 1.2040	26.3250
 1.2050	26.3460
 1.2060	26.3650
 1.2070	26.4060
 1.2080	26.4330
 1.2090	26.4570
 1.2100	26.4920
 1.2110	26.5190
 1.2120	26.5340
 1.2130	26.5600
 1.2140	26.5910
 1.2150	26.6220
 1.2160	26.6560
 1.2170	26.6950
 1.2180	26.7390
 1.2190	26.7800
 1.2200	26.8160
 1.2210	26.8530
 1.2220	26.8890
 1.2230	26.9260
 1.2240	26.9700
 1.2250	27.0110
 1.2260	27.0490
 1.2270	27.0840
 1.2280	27.1100
 1.2290	27.1390
 1.2300	27.1680
 1.2310	27.1950
 1.2320	27.2400
 1.2330	27.2850
 1.2340	27.3240
 1.2350	27.3730
 1.2360	27.4070
 1.2370	27.4270
 1.2380	27.4530
 1.2390	27.4950
 1.2400	27.5250
 1.2410	27.5630
 1.2420	27.6030
 1.2430	27.6220
 1.2440	27.6470
 1.2450	27.6790
 1.2460	27.7030
 1.2470	27.7360
 1.2480	27.7720
 1.2490	27.8030
 1.2500	27.8410
 1.2510	27.8700
 1.2520	27.8900
 1.2530	27.9120
 1.2540	27.9270
 1.2550	27.9410
 1.2560	27.9560
 1.2570	27.9720
 1.2580	27.9870
 1.2590	27.9990
 1.2600	28.0110
 1.2610	28.0180
 1.2620	28.0190
 1.2630	28.0220
 1.2640	28.0220
 1.2650	28.0200
 1.2660	28.0220
 1.2670	28.0140
 1.2680	28.0060
 1.2690	28.0080
 1.2700	28.0020
 1.2710	27.9910
 1.2720	27.9760
 1.2730	27.9470
 1.2740	27.9110
 1.2750	27.8760
 1.2760	27.8380
 1.2770	27.8010
 1.2780	27.7640
 1.2790	27.7160
 1.2800	27.6620
 1.2810	27.6050
 1.2820	27.5500
 1.2830	27.4920
 1.2840	27.4280
 1.2850	27.3600
 1.2860	27.2860
 1.2870	27.2080
 1.2880	27.1240
 1.2890	27.0430
 1.2900	26.9590
 1.2910	26.8650
 1.2920	26.7610
 1.2930	26.6500
 1.2940	26.5250
 1.2950	26.4000
 1.2960	26.2920
 1.2970	26.1790
 1.2980	26.0690
 1.2990	25.9630
 1.3000	25.8360
 1.3010	25.7010
 1.3020	25.5600
 1.3030	25.4180
 1.3040	25.2730
 1.3050	25.1220
 1.3060	24.9730
 1.3070	24.8100
 1.3080	24.6370
 1.3090	24.4660
 1.3100	24.2950
 1.3110	24.1220
 1.3120	23.9530
 1.3130	23.7780
 1.3140	23.5990
 1.3150	23.4140
 1.3160	23.2320
 1.3170	23.0510
 1.3180	22.8670
 1.3190	22.6710
 1.3200	22.4720
 1.3210	22.2670
 1.3220	22.0620
 1.3230	21.8690
 1.3240	21.6840
 1.3250	21.4910
 1.3260	21.2970
 1.3270	21.1040
 1.3280	20.8960
 1.3290	20.6910
 1.3300	20.4890
 1.3310	20.2870
 1.3320	20.1030
 1.3330	19.9220
 1.3340	19.7420
 1.3350	19.5690
 1.3360	19.3880
 1.3370	19.2090
 1.3380	19.0410
 1.3390	18.8710
 1.3400	18.7060
 1.3410	18.5520
 1.3420	18.3910
 1.3430	18.2390
 1.3440	18.0980
 1.3450	17.9560
 1.3460	17.8170
 1.3470	17.6840
 1.3480	17.5530
 1.3490	17.4250
 1.3500	17.3010
 1.3510	17.1830
 1.3520	17.0690
 1.3530	16.9560
 1.3540	16.8460
 1.3550	16.7390
 1.3560	16.6280
 1.3570	16.5210
 1.3580	16.4160
 1.3590	16.2980
 1.3600	16.1770
 1.3610	16.0530
 1.3620	15.9280
 1.3630	15.8030
 1.3640	15.6770
 1.3650	15.5480
 1.3660	15.4060
 1.3670	15.2540
 1.3680	15.0980
 1.3690	14.9360
 1.3700	14.7680
 1.3710	14.5970
 1.3720	14.4190
 1.3730	14.2320
 1.3740	14.0370
 1.3750	13.8380
 1.3760	13.6300
 1.3770	13.4130
 1.3780	13.1870
 1.3790	12.9510
 1.3800	12.7120
 1.3810	12.4690
 1.3820	12.2280
 1.3830	11.9890
 1.3840	11.7520
 1.3850	11.5140
 1.3860	11.2800
 1.3870	11.0470
 1.3880	10.8190
 1.3890	10.5890
 1.3900	10.3730
 1.3910	10.1660
 1.3920	 9.9660
 1.3930	 9.7810
 1.3940	 9.6020
 1.3950	 9.4270
 1.3960	 9.2590
 1.3970	 9.0990
 1.3980	 8.9480
 1.3990	 8.8110
 1.4000	 8.6860
 1.4010	 8.5690
 1.4020	 8.4590
 1.4030	 8.3560
 1.4040	 8.2600
 1.4050	 8.1730
 1.4060	 8.0930
 1.4070	 8.0210
 1.4080	 7.9520
 1.4090	 7.8930
 1.4100	 7.8350
 1.4110	 7.7790
 1.4120	 7.7300
 1.4130	 7.6810
 1.4140	 7.6390
 1.4150	 7.6050
 1.4160	 7.5720
 1.4170	 7.5430
 1.4180	 7.5100
 1.4190	 7.4760
 1.4200	 7.4470
 1.4210	 7.4200
 1.4220	 7.3990
 1.4230	 7.3840
 1.4240	 7.3670
 1.4250	 7.3500
 1.4260	 7.3330
 1.4270	 7.3160
 1.4280	 7.2950
 1.4290	 7.2800
 1.4300	 7.2650
 1.4310	 7.2570
 1.4320	 7.2570
 1.4330	 7.2510
 1.4340	 7.2450
 1.4350	 7.2390
 1.4360	 7.2290
 1.4370	 7.2230
 1.4380	 7.2180
 1.4390	 7.2140
 1.4400	 7.2080
 1.4410	 7.2060
 1.4420	 7.2070
 1.4430	 7.2040
 1.4440	 7.2030
 1.4450	 7.1980
 1.4460	 7.1900
 1.4470	 7.1920
 1.4480	 7.1930
 1.4490	 7.1920
 1.4500	 7.1970
 1.4510	 7.2010
 1.4520	 7.2010
 1.4530	 7.2020
 1.4540	 7.2000
 1.4550	 7.1980
 1.4560	 7.2000
 1.4570	 7.2080
 1.4580	 7.2170
 1.4590	 7.2230
 1.4600	 7.2290
 1.4610	 7.2340
 1.4620	 7.2410
 1.4630	 7.2530
 1.4640	 7.2630
 1.4650	 7.2750
 1.4660	 7.2900
 1.4670	 7.2990
 1.4680	 7.3090
 1.4690	 7.3200
 1.4700	 7.3300
 1.4710	 7.3450
 1.4720	 7.3630
 1.4730	 7.3830
 1.4740	 7.4070
 1.4750	 7.4280
 1.4760	 7.4460
 1.4770	 7.4640
 1.4780	 7.4780
 1.4790	 7.4940
 1.4800	 7.5140
 1.4810	 7.5380
 1.4820	 7.5640
 1.4830	 7.5860
 1.4840	 7.6090
 1.4850	 7.6280
 1.4860	 7.6460
 1.4870	 7.6730
 1.4880	 7.7040
 1.4890	 7.7350
 1.4900	 7.7640
 1.4910	 7.7910
 1.4920	 7.8160
 1.4930	 7.8350
 1.4940	 7.8590
 1.4950	 7.8860
 1.4960	 7.9150
 1.4970	 7.9480
 1.4980	 7.9750
 1.4990	 7.9990
 1.5000	 8.0230
 1.5010	 8.0390
 1.5020	 8.0650
 1.5030	 8.0940
 1.5040	 8.1260
 1.5050	 8.1680
 1.5060	 8.2010
 1.5070	 8.2310
 1.5080	 8.2600
 1.5090	 8.2850
 1.5100	 8.3100
 1.5110	 8.3430
 1.5120	 8.3790
 1.5130	 8.4150
 1.5140	 8.4490
 1.5150	 8.4780
 1.5160	 8.5040
 1.5170	 8.5300
 1.5180	 8.5590
 1.5190	 8.5940
 1.5200	 8.6320
 1.5210	 8.6690
 1.5220	 8.7060
 1.5230	 8.7380
 1.5240	 8.7670
 1.5250	 8.7990
 1.5260	 8.8310
 1.5270	 8.8640
 1.5280	 8.9030
 1.5290	 8.9410
 1.5300	 8.9770
 1.5310	 9.0160
 1.5320	 9.0510
 1.5330	 9.0840
 1.5340	 9.1200
 1.5350	 9.1520
 1.5360	 9.1860
 1.5370	 9.2190
 1.5380	 9.2540
 1.5390	 9.2910
 1.5400	 9.3230
 1.5410	 9.3560
 1.5420	 9.3890
 1.5430	 9.4190
 1.5440	 9.4580
 1.5450	 9.4970
 1.5460	 9.5350
 1.5470	 9.5730
 1.5480	 9.6040
 1.5490	 9.6380
 1.5500	 9.6740
 1.5510	 9.7070
 1.5520	 9.7410
 1.5530	 9.7780
 1.5540	 9.8150
 1.5550	 9.8520
 1.5560	 9.8890
 1.5570	 9.9230
 1.5580	 9.9530
 1.5590	 9.9850
 1.5600	10.0220
 1.5610	10.0620
 1.5620	10.0990
 1.5630	10.1390
 1.5640	10.1730
 1.5650	10.2020
 1.5660	10.2330
 1.5670	10.2630
 1.5680	10.2970
 1.5690	10.3350
 1.5700	10.3720
 1.5710	10.4060
 1.5720	10.4360
 1.5730	10.4640
 1.5740	10.4910
 1.5750	10.5220
 1.5760	10.5580
 1.5770	10.5950
 1.5780	10.6310
 1.5790	10.6680
 1.5800	10.7030
 1.5810	10.7290
 1.5820	10.7600
 1.5830	10.7880
 1.5840	10.8170
 1.5850	10.8530
 1.5860	10.8850
 1.5870	10.9160
 1.5880	10.9450
 1.5890	10.9700
 1.5900	10.9960
 1.5910	11.0230
 1.5920	11.0510
 1.5930	11.0840
 1.5940	11.1190
 1.5950	11.1520
 1.5960	11.1800
 1.5970	11.2080
 1.5980	11.2380
 1.5990	11.2660
 1.6000	11.2980
 1.6010	11.3290
 1.6020	11.3570
 1.6030	11.3900
 1.6040	11.4180
 1.6050	11.4450
 1.6060	11.4730
 1.6070	11.4950
 1.6080	11.5210
 1.6090	11.5490
 1.6100	11.5720
 1.6110	11.5950
 1.6120	11.6160
 1.6130	11.6350
 1.6140	11.6550
 1.6150	11.6730
 1.6160	11.6950
 1.6170	11.7200
 1.6180	11.7440
 1.6190	11.7740
 1.6200	11.8010
 1.6210	11.8230
 1.6220	11.8410
 1.6230	11.8570
 1.6240	11.8770
 1.6250	11.9020
 1.6260	11.9260
 1.6270	11.9510
 1.6280	11.9630
 1.6290	11.9790
 1.6300	11.9960
 1.6310	12.0160
 1.6320	12.0420
 1.6330	12.0630
 1.6340	12.0870
 1.6350	12.1030
 1.6360	12.1120
 1.6370	12.1260
 1.6380	12.1360
 1.6390	12.1520
 1.6400	12.1770
 1.6410	12.1910
 1.6420	12.2030
 1.6430	12.2170
 1.6440	12.2250
 1.6450	12.2420
 1.6460	12.2600
 1.6470	12.2760
 1.6480	12.2880
 1.6490	12.3050
 1.6500	12.3190
 1.6510	12.3280
 1.6520	12.3430
 1.6530	12.3520
 1.6540	12.3590
 1.6550	12.3700
 1.6560	12.3770
 1.6570	12.3840
 1.6580	12.3840
 1.6590	12.3780
 1.6600	12.3750
 1.6610	12.3710
 1.6620	12.3760
 1.6630	12.3900
 1.6640	12.4040
 1.6650	12.4120
 1.6660	12.4170
 1.6670	12.4180
 1.6680	12.4210
 1.6690	12.4270
 1.6700	12.4310
 1.6710	12.4330
 1.6720	12.4330
 1.6730	12.4320
 1.6740	12.4360
 1.6750	12.4380
 1.6760	12.4400
 1.6770	12.4400
 1.6780	12.4380
 1.6790	12.4440
 1.6800	12.4440
 1.6810	12.4450
 1.6820	12.4450
 1.6830	12.4320
 1.6840	12.4210
 1.6850	12.4100
 1.6860	12.3960
 1.6870	12.3930
 1.6880	12.3900
 1.6890	12.3870
 1.6900	12.3810
 1.6910	12.3700
 1.6920	12.3600
 1.6930	12.3520
 1.6940	12.3420
 1.6950	12.3310
 1.6960	12.3170
 1.6970	12.3010
 1.6980	12.2860
 1.6990	12.2690
 1.7000	12.2550
 1.7010	12.2470
 1.7020	12.2350
 1.7030	12.2210
 1.7040	12.2050
 1.7050	12.1870
 1.7060	12.1670
 1.7070	12.1470
 1.7080	12.1270
 1.7090	12.1070
 1.7100	12.0870
 1.7110	12.0660
 1.7120	12.0410
 1.7130	12.0170
 1.7140	11.9890
 1.7150	11.9610
 1.7160	11.9370
 1.7170	11.9100
 1.7180	11.8820
 1.7190	11.8540
 1.7200	11.8270
 1.7210	11.8030
 1.7220	11.7780
 1.7230	11.7530
 1.7240	11.7250
 1.7250	11.6940
 1.7260	11.6640
 1.7270	11.6380
 1.7280	11.6190
 1.7290	11.5930
 1.7300	11.5550
 1.7310	11.5270
 1.7320	11.4970
 1.7330	11.4720
 1.7340	11.4630
 1.7350	11.4400
 1.7360	11.4120
 1.7370	11.3820
 1.7380	11.3440
 1.7390	11.3110
 1.7400	11.2790
 1.7410	11.2440
 1.7420	11.2090
 1.7430	11.1770
 1.7440	11.1450
 1.7450	11.1160
 1.7460	11.0940
 1.7470	11.0620
 1.7480	11.0240
 1.7490	10.9920
 1.7500	10.9560
 1.7510	10.9220
 1.7520	10.8920
 1.7530	10.8590
 1.7540	10.8240
 1.7550	10.7930
 1.7560	10.7630
 1.7570	10.7280
 1.7580	10.6950
 1.7590	10.6610
 1.7600	10.6260
 1.7610	10.5940
 1.7620	10.5630
 1.7630	10.5360
 1.7640	10.5060
 1.7650	10.4740
 1.7660	10.4440
 1.7670	10.4090
 1.7680	10.3820
 1.7690	10.3670
 1.7700	10.3420
 1.7710	10.3140
 1.7720	10.2910
 1.7730	10.2660
 1.7740	10.2450
 1.7750	10.2320
 1.7760	10.2160
 1.7770	10.1990
 1.7780	10.1820
 1.7790	10.1640
 1.7800	10.1530
 1.7810	10.1440
 1.7820	10.1360
 1.7830	10.1360
 1.7840	10.1280
 1.7850	10.1170
 1.7860	10.1010
 1.7870	10.0780
 1.7880	10.0700
 1.7890	10.0660
 1.7900	10.0720
 1.7910	10.0730
 1.7920	10.0640
 1.7930	10.0590
 1.7940	10.0570
 1.7950	10.0550
 1.7960	10.0530
 1.7970	10.0510
 1.7980	10.0460
 1.7990	10.0430
 1.8000	10.0390
 1.8010	10.0370
 1.8020	10.0340
 1.8030	10.0390
 1.8040	10.0510
 1.8050	10.0580
 1.8060	10.0720
 1.8070	10.0730
 1.8080	10.0630
 1.8090	10.0570
 1.8100	10.0470
 1.8110	10.0440
 1.8120	10.0400
 1.8130	10.0530
 1.8140	10.0570
 1.8150	10.0440
 1.8160	10.0300
 1.8170	10.0220
 1.8180	10.0100
 1.8190	10.0250
 1.8200	10.0310
 1.8210	10.0330
 1.8220	10.0280
 1.8230	10.0100
 1.8240	10.0020
 1.8250	 9.9970
 1.8260	 9.9850
 1.8270	 9.9720
 1.8280	 9.9710
 1.8290	 9.9680
 1.8300	 9.9640
 1.8310	10.1310
 1.8320	10.1140
 1.8330	10.0890
 1.8340	10.0400
 1.8350	10.0060
 1.8360	 9.9850
 1.8370	 9.9810
 1.8380	 9.9790
 1.8390	 9.9640
 1.8400	 9.9500
 1.8410	 9.9200
 1.8420	 9.8710
 1.8430	 9.8300
 1.8440	 9.7920
 1.8450	 9.7360
 1.8460	 9.6920
 1.8470	 9.6490
 1.8480	 9.5990
 1.8490	 9.5640
 1.8500	 9.5160
 1.8510	 9.4640
 1.8520	 9.4060
 1.8530	 9.3580
 1.8540	 9.2930
 1.8550	 9.2350
 1.8560	 9.1810
 1.8570	 9.1180
 1.8580	 9.0470
 1.8590	 8.9680
 1.8600	 8.8790
 1.8610	 8.7910
 1.8620	 8.7120
 1.8630	 8.6310
 1.8640	 8.5590
 1.8650	 8.4800
 1.8660	 8.3730
 1.8670	 8.2760
 1.8680	 8.1940
 1.8690	 8.1080
 1.8700	 8.0220
 1.8710	 7.9450
 1.8720	 7.8600
 1.8730	 7.7660
 1.8740	 7.6590
 1.8750	 7.5480
 1.8760	 7.4460
 1.8770	 7.3380
 1.8780	 7.2350
 1.8790	 7.1450
 1.8800	 7.0600
 1.8810	 6.9740
 1.8820	 6.8990
 1.8830	 6.8350
 1.8840	 6.7650
 1.8850	 6.6970
 1.8860	 6.6250
 1.8870	 6.5520
 1.8880	 6.4860
 1.8890	 6.4250
 1.8900	 6.3730
 1.8910	 6.3200
 1.8920	 6.2720
 1.8930	 6.2310
 1.8940	 6.1830
 1.8950	 6.1260
 1.8960	 6.0710
 1.8970	 6.0200
 1.8980	 5.9950
 1.8990	 5.9660
 1.9000	 5.9310
 1.9010	 5.9050
 1.9020	 5.8790
 1.9030	 5.8390
 1.9040	 5.8010
 1.9050	 5.8010
 1.9060	 5.7640
 1.9070	 5.7310
 1.9080	 5.7280
 1.9090	 5.6940
 1.9100	 5.6810
 1.9110	 5.6760
 1.9120	 5.6730
 1.9130	 5.6710
 1.9140	 5.6820
 1.9150	 5.6940
 1.9160	 5.6900
 1.9170	 5.6880
 1.9180	 5.6800
 1.9190	 5.6520
 1.9200	 5.6430
 1.9210	 5.6390
 1.9220	 5.6350
 1.9230	 5.6420
 1.9240	 5.6480
 1.9250	 5.6520
 1.9260	 5.6540
 1.9270	 5.6670
 1.9280	 5.6690
 1.9290	 5.6760
 1.9300	 5.6680
 1.9310	 5.6540
 1.9320	 5.6590
 1.9330	 5.6580
 1.9340	 5.6590
 1.9350	 5.6590
 1.9360	 5.6490
 1.9370	 5.6470
 1.9380	 5.6440
 1.9390	 5.6480
 1.9400	 5.6550
 1.9410	 5.6720
 1.9420	 5.6950
 1.9430	 5.7070
 1.9440	 5.7110
 1.9450	 5.7060
 1.9460	 5.7090
 1.9470	 5.7030
 1.9480	 5.7080
 1.9490	 5.7240
 1.9500	 5.7480
 1.9510	 5.7540
 1.9520	 5.7410
 1.9530	 5.7380
 1.9540	 5.7240
 1.9550	 5.7290
 1.9560	 5.7600
 1.9570	 5.7700
 1.9580	 5.7730
 1.9590	 5.7820
 1.9600	 5.7780
 1.9610	 5.7820
 1.9620	 5.7920
 1.9630	 5.8140
 1.9640	 5.8290
 1.9650	 5.8470
 1.9660	 5.8610
 1.9670	 5.8760
 1.9680	 5.8850
 1.9690	 5.8880
 1.9700	 5.8960
 1.9710	 5.9030
 1.9720	 5.9090
 1.9730	 5.9130
 1.9740	 5.9250
 1.9750	 5.9300
 1.9760	 5.9420
 1.9770	 5.9590
 1.9780	 5.9540
 1.9790	 5.9660
 1.9800	 5.9840
 1.9810	 5.9970
 1.9820	 6.0150
 1.9830	 6.0300
 1.9840	 6.0350
 1.9850	 6.0440
 1.9860	 6.0550
 1.9870	 6.0740
 1.9880	 6.0820
 1.9890	 6.0890
 1.9900	 6.0990
 1.9910	 6.1070
 1.9920	 6.1190
 1.9930	 6.1420
 1.9940	 6.1550
 1.9950	 6.1610
 1.9960	 6.1770
 1.9970	 6.1960
 1.9980	 6.2180
 1.9990	 6.2510
 2.0000	 6.2760
 2.0010	 6.3010
 2.0020	 6.2980
 2.0030	 6.2910
 2.0040	 6.3000
 2.0050	 6.3060
 2.0060	 6.3150
 2.0070	 6.3240
 2.0080	 6.3400
 2.0090	 6.3420
 2.0100	 6.3270
 2.0110	 6.3320
 2.0120	 6.3350
 2.0130	 6.3490
 2.0140	 6.3840
 2.0150	 6.4160
 2.0160	 6.4390
 2.0170	 6.4510
 2.0180	 6.4680
 2.0190	 6.4810
 2.0200	 6.4960
 2.0210	 6.5100
 2.0220	 6.5260
 2.0230	 6.5470
 2.0240	 6.5580
 2.0250	 6.5670
 2.0260	 6.5730
 2.0270	 6.5600
 2.0280	 6.5700
 2.0290	 6.5760
 2.0300	 6.5800
 2.0310	 6.5890
 2.0320	 6.6040
 2.0330	 6.6070
 2.0340	 6.6040
 2.0350	 6.6150
 2.0360	 6.6220
 2.0370	 6.6370
 2.0380	 6.6770
 2.0390	 6.6960
 2.0400	 6.7000
 2.0410	 6.7130
 2.0420	 6.7290
 2.0430	 6.7290
 2.0440	 6.7490
 2.0450	 6.7880
 2.0460	 6.8070
 2.0470	 6.8240
 2.0480	 6.8390
 2.0490	 6.8450
 2.0500	 6.8480
 2.0510	 6.8420
 2.0520	 6.8500
 2.0530	 6.8590
 2.0540	 6.8670
 2.0550	 6.8780
 2.0560	 6.9060
 2.0570	 6.9060
 2.0580	 6.9240
 2.0590	 6.9430
 2.0600	 6.9700
 2.0610	 6.9830
 2.0620	 6.9910
 2.0630	 7.0030
 2.0640	 7.0110
 2.0650	 7.0200
 2.0660	 7.0410
 2.0670	 7.0500
 2.0680	 7.0410
 2.0690	 7.0460
 2.0700	 7.0510
 2.0710	 7.0620
 2.0720	 7.0800
 2.0730	 7.1060
 2.0740	 7.1330
 2.0750	 7.1640
 2.0760	 7.1940
 2.0770	 7.2370
 2.0780	 7.2540
 2.0790	 7.2590
 2.0800	 7.2630
 2.0810	 7.2450
 2.0820	 7.2380
 2.0830	 7.2240
 2.0840	 7.2280
 2.0850	 7.2500
 2.0860	 7.2620
 2.0870	 7.2810
 2.0880	 7.3010
 2.0890	 7.3100
 2.0900	 7.3030
 2.0910	 7.3090
 2.0920	 7.3150
 2.0930	 7.3310
 2.0940	 7.3540
 2.0950	 7.3780
 2.0960	 7.4180
 2.0970	 7.4450
 2.0980	 7.4700
 2.0990	 7.4860
 2.1000	 7.4960
 2.1010	 7.5010
 2.1020	 7.4970
 2.1030	 7.4940
 2.1040	 7.4810
 2.1050	 7.4740
 2.1060	 7.4830
 2.1070	 7.5010
 2.1080	 7.5200
 2.1090	 7.5560
 2.1100	 7.5770
 2.1110	 7.5920
 2.1120	 7.6060
 2.1130	 7.6130
 2.1140	 7.6280
 2.1150	 7.6450
 2.1160	 7.6610
 2.1170	 7.6830
 2.1180	 7.7000
 2.1190	 7.7090
 2.1200	 7.7230
 2.1210	 7.7530
 2.1220	 7.7560
 2.1230	 7.7580
 2.1240	 7.7580
 2.1250	 7.7550
 2.1260	 7.7320
 2.1270	 7.7370
 2.1280	 7.7540
 2.1290	 7.7690
 2.1300	 7.8000
 2.1310	 7.8160
 2.1320	 7.8300
 2.1330	 7.8360
 2.1340	 7.8300
 2.1350	 7.8280
 2.1360	 7.8210
 2.1370	 7.8170
 2.1380	 7.8050
 2.1390	 7.8090
 2.1400	 7.8290
 2.1410	 7.8380
 2.1420	 7.8430
 2.1430	 7.8560
 2.1440	 7.8580
 2.1450	 7.8390
 2.1460	 7.8410
 2.1470	 7.8470
 2.1480	 7.8630
 2.1490	 7.8930
 2.1500	 7.9140
 2.1510	 7.9440
 2.1520	 7.9640
 2.1530	 7.9770
 2.1540	 7.9860
 2.1550	 7.9900
 2.1560	 7.9940
 2.1570	 7.9950
 2.1580	 7.9920
 2.1590	 7.9820
 2.1600	 7.9790
 2.1610	 7.9840
 2.1620	 7.9760
 2.1630	 7.9800
 2.1640	 7.9950
 2.1650	 8.0020
 2.1660	 8.0110
 2.1670	 8.0110
 2.1680	 8.0080
 2.1690	 8.0060
 2.1700	 7.9910
 2.1710	 7.9940
 2.1720	 8.0110
 2.1730	 8.0180
 2.1740	 8.0350
 2.1750	 8.0420
 2.1760	 8.0330
 2.1770	 8.0360
 2.1780	 8.0440
 2.1790	 8.0490
 2.1800	 8.0660
 2.1810	 8.0700
 2.1820	 8.0620
 2.1830	 8.0540
 2.1840	 8.0530
 2.1850	 8.0500
 2.1860	 8.0500
 2.1870	 8.0650
 2.1880	 8.0570
 2.1890	 8.0290
 2.1900	 8.0210
 2.1910	 8.0070
 2.1920	 8.0070
 2.1930	 8.0310
 2.1940	 8.0390
 2.1950	 8.0460
 2.1960	 8.0520
 2.1970	 8.0560
 2.1980	 8.0590
 2.1990	 8.0660
 2.2000	 8.0660
 2.2010	 8.0590
 2.2020	 8.0510
 2.2030	 8.0350
 2.2040	 8.0260
 2.2050	 8.0130
 2.2060	 8.0130
 2.2070	 8.0160
 2.2080	 8.0310
 2.2090	 8.0370
 2.2100	 8.0450
 2.2110	 8.0470
 2.2120	 8.0440
 2.2130	 8.0380
 2.2140	 8.0230
 2.2150	 8.0220
 2.2160	 8.0220
 2.2170	 8.0260
 2.2180	 8.0500
 2.2190	 8.0510
 2.2200	 8.0230
 2.2210	 8.0300
 2.2220	 8.0440
 2.2230	 8.0620
 2.2240	 8.1200
 2.2250	 8.1500
 2.2260	 8.1770
 2.2270	 8.1780
 2.2280	 8.1490
 2.2290	 8.1250
 2.2300	 8.0660
 2.2310	 8.0320
 2.2320	 8.0370
 2.2330	 8.0410
 2.2340	 8.0400
 2.2350	 8.0570
 2.2360	 8.0490
 2.2370	 8.0220
 2.2380	 8.0070
 2.2390	 7.9940
 2.2400	 7.9810
 2.2410	 7.9650
 2.2420	 7.9580
 2.2430	 7.9570
 2.2440	 7.9570
 2.2450	 7.9610
 2.2460	 7.9720
 2.2470	 7.9870
 2.2480	 8.0010
 2.2490	 8.0370
 2.2500	 8.0370
 2.2510	 8.0180
 2.2520	 7.9990
 2.2530	 7.9520
 2.2540	 7.9210
 2.2550	 7.8880
 2.2560	 7.8680
 2.2570	 7.8570
 2.2580	 7.8470
 2.2590	 7.8470
 2.2600	 7.8440
 2.2610	 7.8510
 2.2620	 7.8390
 2.2630	 7.8010
 2.2640	 7.8120
 2.2650	 7.8160
 2.2660	 7.8220
 2.2670	 7.8350
 2.2680	 7.8770
 2.2690	 7.8730
 2.2700	 7.8420
 2.2710	 7.8320
 2.2720	 7.8220
 2.2730	 7.8080
 2.2740	 7.7990
 2.2750	 7.7880
 2.2760	 7.7610
 2.2770	 7.7410
 2.2780	 7.7270
 2.2790	 7.7260
 2.2800	 7.7290
 2.2810	 7.7350
 2.2820	 7.7630
 2.2830	 7.7730
 2.2840	 7.7800
 2.2850	 7.7740
 2.2860	 7.7550
 2.2870	 7.7350
 2.2880	 7.6990
 2.2890	 7.6720
 2.2900	 7.6390
 2.2910	 7.6250
 2.2920	 7.6360
 2.2930	 7.6230
 2.2940	 7.6040
 2.2950	 7.5970
 2.2960	 7.5730
 2.2970	 7.5670
 2.2980	 7.5830
 2.2990	 7.6070
 2.3000	 7.6260
 2.3010	 7.5970
 2.3020	 7.5710
 2.3030	 7.5690
 2.3040	 7.5410
 2.3050	 7.5310
 2.3060	 7.5220
 2.3070	 7.4800
 2.3080	 7.4680
 2.3090	 7.4860
 2.3100	 7.4720
 2.3110	 7.4690
 2.3120	 7.4530
 2.3130	 7.4130
 2.3140	 7.3880
 2.3150	 7.3600
 2.3160	 7.3640
 2.3170	 7.3790
 2.3180	 7.4060
 2.3190	 7.4820
 2.3200	 7.4940
 2.3210	 7.4830
 2.3220	 7.4790
 2.3230	 7.4330
 2.3240	 7.4370
 2.3250	 7.4870
 2.3260	 7.4900
 2.3270	 7.4930
 2.3280	 7.4850
 2.3290	 7.4300
 2.3300	 7.4140
 2.3310	 7.4340
 2.3320	 7.4260
 2.3330	 7.4230
 2.3340	 7.4040
 2.3350	 7.3530
 2.3360	 7.3240
 2.3370	 7.2880
 2.3380	 7.2860
 2.3390	 7.3300
 2.3400	 7.3290
 2.3410	 7.3130
 2.3420	 7.3090
 2.3430	 7.2960
 2.3440	 7.2680
 2.3450	 7.2540
 2.3460	 7.2340
 2.3470	 7.1580
 2.3480	 7.1380
 2.3490	 7.1730
 2.3500	 7.1770
 2.3510	 7.2000
 2.3520	 7.2040
 2.3530	 7.1880
 2.3540	 7.1550
 2.3550	 7.1510
 2.3560	 7.1710
 2.3570	 7.2100
 2.3580	 7.2590
 2.3590	 7.2700
 2.3600	 7.2560
 2.3610	 7.2320
 2.3620	 7.1970
 2.3630	 7.1860
 2.3640	 7.1710
 2.3650	 7.1570
 2.3660	 7.1480
 2.3670	 7.1320
 2.3680	 7.1460
 2.3690	 7.1420
 2.3700	 7.1660
 2.3710	 7.1900
 2.3720	 7.1780
 2.3730	 7.1200
 2.3740	 7.0370
 2.3750	 7.0310
 2.3760	 7.0280
 2.3770	 7.0950
 2.3780	 7.1680
 2.3790	 7.1200
 2.3800	 7.0760
 2.3810	 7.0350
 2.3820	 7.0030
 2.3830	 6.9800
 2.3840	 6.9170
 2.3850	 6.8900
 2.3860	 6.8820
 2.3870	 6.9250
 2.3880	 7.0010
 2.3890	 7.0170
 2.3900	 7.0000
 2.3910	 6.9890
 2.3920	 7.0410
 2.3930	 7.1020
 2.3940	 7.1490
 2.3950	 7.1280
 2.3960	 7.0510
 2.3970	 6.9720
 2.3980	 6.8870
 2.3990	 6.8950
 2.4000	 6.9000
 2.4010	 6.8900
 2.4020	 6.9080
 2.4030	 6.8530
 2.4040	 6.8160
 2.4050	 6.8010
 2.4060	 6.7790
 2.4070	 6.8360
 2.4080	 6.8510
 2.4090	 6.9210
 2.4100	 6.9770
 2.4110	 6.9110
 2.4120	 6.9090
 2.4130	 6.8230
 2.4140	 6.7670
 2.4150	 6.8000
 2.4160	 6.8190
 2.4170	 6.8630
 2.4180	 6.8300
 2.4190	 6.7730
 2.4200	 6.7210
 2.4210	 6.7070
 2.4220	 6.7240
 2.4230	 6.7360
 2.4240	 6.7340
 2.4250	 6.6620
 2.4260	 6.6280
 2.4270	 6.6390
 2.4280	 6.7190
 2.4290	 6.7790
 2.4300	 6.7880
 2.4310	 6.8560
 2.4320	 6.7320
 2.4330	 6.6610
 2.4340	 6.7200
 2.4350	 6.6720
 2.4360	 6.7410
 2.4370	 6.7580
 2.4380	 6.7030
 2.4390	 6.6330
 2.4400	 6.5250
 2.4410	 6.5840
 2.4420	 6.6770
 2.4430	 6.8170
 2.4440	 6.9130
 2.4450	 6.8930
 2.4460	 6.8790
 2.4470	 6.7240
 2.4480	 6.6360
 2.4490	 6.5900
 2.4500	 6.5470
 2.4510	 6.5940
 2.4520	 6.6270
 2.4530	 6.6820
 2.4540	 6.6960
 2.4550	 6.7970
 2.4560	 6.8780
 2.4570	 6.8410
 2.4580	 6.7790
 2.4590	 6.6080
 2.4600	 6.5580
 2.4610	 6.6570
 2.4620	 6.6070
 2.4630	 6.4930
 2.4640	 6.3980
 2.4650	 6.2140
 2.4660	 6.2600
 2.4670	 6.4650
 2.4680	 6.5390
 2.4690	 6.7100
 2.4700	 6.7090
 2.4710	 6.5390
 2.4720	 6.5630
 2.4730	 6.5890
 2.4740	 6.6520
 2.4750	 6.9910
 2.4760	 6.9830
 2.4770	 6.6300
 2.4780	 6.5870
 2.4790	 6.5270
 2.4800	 6.5050
 2.4810	 6.7640
 2.4820	 6.7450
 2.4830	 6.7270
 2.4840	 6.7290
 2.4850	 6.6310
 2.4860	 6.7870
 2.4870	 6.8590
 2.4880	 6.7210
 2.4890	 6.7910
 2.4900	 6.6780
 2.4910	 6.5480
 2.4920	 6.4980
 2.4930	 6.1780
 2.4940	 6.0390
 2.4950	 5.7740
 2.4960	 5.5120
 2.4970	 5.8720
 2.4980	 6.0000
 2.4990	 6.0910
 2.5000	 6.5120
