Name: Ceanothus spinosus 3
Type: vegetation
Class: Shrub
Genus: Ceanothus
Species: spinosus
Sample No.: VH132
Owner: UCSB
Wavelength Range: VSWIR
Origin: 34.4906; -119.7908; WGS84
Collection Date: 6/3/2013
Description: Samples were collected as part of the HyspIRI Airborne Campaign. 48 individual plants were sampled in three times in 2013 - spring  summer  and fall. The name of the sample includes a 1  2  or 3 which references a different individual of the species. Samples were taken to JPL and processed within 48 hours of collection. The same leaves were processed in the Nicolet and then measured using the ASD.
Measurement: Bidirectional reflectance
First Column: X
Second Column: Y
X Units: Wavelength (micrometers)
Y Units: Reflectance (percentage)
First X Value: 0.35
Last X Value: 2.5
Number of X Values: 2151
Additional Information: vegetation.shrub.ceanothus.spinosus.vswir.vh132.ucsb.asd.ancillary.txt

 0.3500	 7.6040
 0.3510	 7.7150
 0.3520	 7.4960
 0.3530	 7.2240
 0.3540	 7.1650
 0.3550	 7.1910
 0.3560	 7.0720
 0.3570	 6.9450
 0.3580	 7.0820
 0.3590	 7.1500
 0.3600	 7.1540
 0.3610	 7.1350
 0.3620	 7.1250
 0.3630	 7.0920
 0.3640	 7.0390
 0.3650	 6.9830
 0.3660	 6.9590
 0.3670	 6.9690
 0.3680	 7.0310
 0.3690	 7.1520
 0.3700	 7.0650
 0.3710	 6.9780
 0.3720	 7.0000
 0.3730	 6.9460
 0.3740	 6.9110
 0.3750	 6.8820
 0.3760	 6.8390
 0.3770	 6.8850
 0.3780	 6.9280
 0.3790	 6.9120
 0.3800	 6.8320
 0.3810	 6.8460
 0.3820	 6.8300
 0.3830	 6.7440
 0.3840	 6.8520
 0.3850	 6.8800
 0.3860	 6.8500
 0.3870	 6.8740
 0.3880	 6.8910
 0.3890	 6.8670
 0.3900	 6.8280
 0.3910	 6.8560
 0.3920	 6.8540
 0.3930	 6.8110
 0.3940	 6.7570
 0.3950	 6.7780
 0.3960	 6.8280
 0.3970	 6.8740
 0.3980	 6.8920
 0.3990	 6.8580
 0.4000	 6.8230
 0.4010	 6.8170
 0.4020	 6.8230
 0.4030	 6.8480
 0.4040	 6.8670
 0.4050	 6.8640
 0.4060	 6.8760
 0.4070	 6.8700
 0.4080	 6.8680
 0.4090	 6.9120
 0.4100	 6.9270
 0.4110	 6.9310
 0.4120	 6.9410
 0.4130	 6.9460
 0.4140	 6.9610
 0.4150	 6.9840
 0.4160	 7.0100
 0.4170	 7.0330
 0.4180	 7.0500
 0.4190	 7.0680
 0.4200	 7.1070
 0.4210	 7.1280
 0.4220	 7.1410
 0.4230	 7.1570
 0.4240	 7.1740
 0.4250	 7.1820
 0.4260	 7.1920
 0.4270	 7.2150
 0.4280	 7.2150
 0.4290	 7.2290
 0.4300	 7.2640
 0.4310	 7.2710
 0.4320	 7.2810
 0.4330	 7.2960
 0.4340	 7.3100
 0.4350	 7.3220
 0.4360	 7.3280
 0.4370	 7.3310
 0.4380	 7.3390
 0.4390	 7.3370
 0.4400	 7.3480
 0.4410	 7.3790
 0.4420	 7.3810
 0.4430	 7.3840
 0.4440	 7.3910
 0.4450	 7.4030
 0.4460	 7.4180
 0.4470	 7.4280
 0.4480	 7.4310
 0.4490	 7.4390
 0.4500	 7.4440
 0.4510	 7.4550
 0.4520	 7.4750
 0.4530	 7.4850
 0.4540	 7.4850
 0.4550	 7.4890
 0.4560	 7.5120
 0.4570	 7.5160
 0.4580	 7.5150
 0.4590	 7.5200
 0.4600	 7.5230
 0.4610	 7.5250
 0.4620	 7.5260
 0.4630	 7.5280
 0.4640	 7.5370
 0.4650	 7.5400
 0.4660	 7.5330
 0.4670	 7.5220
 0.4680	 7.5280
 0.4690	 7.5330
 0.4700	 7.5260
 0.4710	 7.5370
 0.4720	 7.5410
 0.4730	 7.5340
 0.4740	 7.5280
 0.4750	 7.5310
 0.4760	 7.5410
 0.4770	 7.5490
 0.4780	 7.5360
 0.4790	 7.5360
 0.4800	 7.5450
 0.4810	 7.5480
 0.4820	 7.5540
 0.4830	 7.5600
 0.4840	 7.5660
 0.4850	 7.5750
 0.4860	 7.5930
 0.4870	 7.6090
 0.4880	 7.6140
 0.4890	 7.6260
 0.4900	 7.6430
 0.4910	 7.6630
 0.4920	 7.6830
 0.4930	 7.7030
 0.4940	 7.7240
 0.4950	 7.7500
 0.4960	 7.7790
 0.4970	 7.8100
 0.4980	 7.8440
 0.4990	 7.8810
 0.5000	 7.9260
 0.5010	 7.9690
 0.5020	 8.0150
 0.5030	 8.0760
 0.5040	 8.1420
 0.5050	 8.2110
 0.5060	 8.2800
 0.5070	 8.3590
 0.5080	 8.4480
 0.5090	 8.5470
 0.5100	 8.6530
 0.5110	 8.7720
 0.5120	 8.8980
 0.5130	 9.0290
 0.5140	 9.1830
 0.5150	 9.3400
 0.5160	 9.5060
 0.5170	 9.6880
 0.5180	 9.8800
 0.5190	10.0770
 0.5200	10.2800
 0.5210	10.4920
 0.5220	10.7080
 0.5230	10.9220
 0.5240	11.1330
 0.5250	11.3370
 0.5260	11.5340
 0.5270	11.7270
 0.5280	11.9160
 0.5290	12.0840
 0.5300	12.2390
 0.5310	12.3870
 0.5320	12.5230
 0.5330	12.6430
 0.5340	12.7550
 0.5350	12.8620
 0.5360	12.9550
 0.5370	13.0330
 0.5380	13.1020
 0.5390	13.1710
 0.5400	13.2340
 0.5410	13.2980
 0.5420	13.3650
 0.5430	13.4150
 0.5440	13.4650
 0.5450	13.5120
 0.5460	13.5470
 0.5470	13.5740
 0.5480	13.5990
 0.5490	13.6240
 0.5500	13.6460
 0.5510	13.6610
 0.5520	13.6680
 0.5530	13.6630
 0.5540	13.6470
 0.5550	13.6160
 0.5560	13.5710
 0.5570	13.5100
 0.5580	13.4360
 0.5590	13.3520
 0.5600	13.2620
 0.5610	13.1640
 0.5620	13.0550
 0.5630	12.9370
 0.5640	12.8130
 0.5650	12.6810
 0.5660	12.5430
 0.5670	12.4030
 0.5680	12.2680
 0.5690	12.1260
 0.5700	11.9800
 0.5710	11.8410
 0.5720	11.7150
 0.5730	11.5940
 0.5740	11.4780
 0.5750	11.3680
 0.5760	11.2590
 0.5770	11.1500
 0.5780	11.0450
 0.5790	10.9570
 0.5800	10.8800
 0.5810	10.8090
 0.5820	10.7400
 0.5830	10.6780
 0.5840	10.6160
 0.5850	10.5560
 0.5860	10.5030
 0.5870	10.4590
 0.5880	10.4210
 0.5890	10.3850
 0.5900	10.3520
 0.5910	10.3220
 0.5920	10.2960
 0.5930	10.2710
 0.5940	10.2420
 0.5950	10.2150
 0.5960	10.1940
 0.5970	10.1620
 0.5980	10.1340
 0.5990	10.1070
 0.6000	10.0790
 0.6010	10.0470
 0.6020	10.0090
 0.6030	 9.9660
 0.6040	 9.9240
 0.6050	 9.8770
 0.6060	 9.8300
 0.6070	 9.7830
 0.6080	 9.7290
 0.6090	 9.6760
 0.6100	 9.6280
 0.6110	 9.5820
 0.6120	 9.5260
 0.6130	 9.4590
 0.6140	 9.3890
 0.6150	 9.3300
 0.6160	 9.2770
 0.6170	 9.2250
 0.6180	 9.1760
 0.6190	 9.1360
 0.6200	 9.1030
 0.6210	 9.0720
 0.6220	 9.0410
 0.6230	 9.0140
 0.6240	 8.9940
 0.6250	 8.9780
 0.6260	 8.9590
 0.6270	 8.9450
 0.6280	 8.9360
 0.6290	 8.9270
 0.6300	 8.9220
 0.6310	 8.9170
 0.6320	 8.9060
 0.6330	 8.8900
 0.6340	 8.8700
 0.6350	 8.8460
 0.6360	 8.8150
 0.6370	 8.7820
 0.6380	 8.7400
 0.6390	 8.6930
 0.6400	 8.6440
 0.6410	 8.5890
 0.6420	 8.5310
 0.6430	 8.4740
 0.6440	 8.4170
 0.6450	 8.3630
 0.6460	 8.3100
 0.6470	 8.2590
 0.6480	 8.2130
 0.6490	 8.1710
 0.6500	 8.1340
 0.6510	 8.1030
 0.6520	 8.0720
 0.6530	 8.0420
 0.6540	 8.0140
 0.6550	 7.9890
 0.6560	 7.9600
 0.6570	 7.9260
 0.6580	 7.8910
 0.6590	 7.8530
 0.6600	 7.8140
 0.6610	 7.7760
 0.6620	 7.7390
 0.6630	 7.7020
 0.6640	 7.6700
 0.6650	 7.6450
 0.6660	 7.6180
 0.6670	 7.6000
 0.6680	 7.5860
 0.6690	 7.5740
 0.6700	 7.5700
 0.6710	 7.5700
 0.6720	 7.5730
 0.6730	 7.5770
 0.6740	 7.5890
 0.6750	 7.6030
 0.6760	 7.6150
 0.6770	 7.6360
 0.6780	 7.6590
 0.6790	 7.6840
 0.6800	 7.7170
 0.6810	 7.7510
 0.6820	 7.7910
 0.6830	 7.8400
 0.6840	 7.8970
 0.6850	 7.9630
 0.6860	 8.0410
 0.6870	 8.1360
 0.6880	 8.2530
 0.6890	 8.4000
 0.6900	 8.5800
 0.6910	 8.7960
 0.6920	 9.0580
 0.6930	 9.3740
 0.6940	 9.7480
 0.6950	10.1860
 0.6960	10.6850
 0.6970	11.2490
 0.6980	11.8790
 0.6990	12.5680
 0.7000	13.3120
 0.7010	14.1070
 0.7020	14.9470
 0.7030	15.8180
 0.7040	16.7180
 0.7050	17.6400
 0.7060	18.5820
 0.7070	19.5350
 0.7080	20.4930
 0.7090	21.4530
 0.7100	22.4220
 0.7110	23.3950
 0.7120	24.3680
 0.7130	25.3410
 0.7140	26.3090
 0.7150	27.2740
 0.7160	28.2330
 0.7170	29.1800
 0.7180	30.1180
 0.7190	31.0470
 0.7200	31.9640
 0.7210	32.8640
 0.7220	33.7450
 0.7230	34.6060
 0.7240	35.4470
 0.7250	36.2620
 0.7260	37.0520
 0.7270	37.8150
 0.7280	38.5490
 0.7290	39.2520
 0.7300	39.9270
 0.7310	40.5730
 0.7320	41.1870
 0.7330	41.7710
 0.7340	42.3270
 0.7350	42.8580
 0.7360	43.3620
 0.7370	43.8360
 0.7380	44.2810
 0.7390	44.7030
 0.7400	45.1040
 0.7410	45.4760
 0.7420	45.8160
 0.7430	46.1480
 0.7440	46.4580
 0.7450	46.7400
 0.7460	46.9990
 0.7470	47.2430
 0.7480	47.4680
 0.7490	47.6720
 0.7500	47.8690
 0.7510	48.0450
 0.7520	48.2040
 0.7530	48.3540
 0.7540	48.4910
 0.7550	48.6160
 0.7560	48.7280
 0.7570	48.8270
 0.7580	48.9250
 0.7590	49.0170
 0.7600	49.0980
 0.7610	49.1730
 0.7620	49.2380
 0.7630	49.2980
 0.7640	49.3560
 0.7650	49.4130
 0.7660	49.4590
 0.7670	49.4980
 0.7680	49.5370
 0.7690	49.5820
 0.7700	49.6210
 0.7710	49.6500
 0.7720	49.6760
 0.7730	49.7020
 0.7740	49.7270
 0.7750	49.7490
 0.7760	49.7830
 0.7770	49.8100
 0.7780	49.8290
 0.7790	49.8470
 0.7800	49.8680
 0.7810	49.8900
 0.7820	49.9120
 0.7830	49.9300
 0.7840	49.9430
 0.7850	49.9590
 0.7860	49.9810
 0.7870	49.9910
 0.7880	50.0090
 0.7890	50.0270
 0.7900	50.0370
 0.7910	50.0550
 0.7920	50.0650
 0.7930	50.0690
 0.7940	50.0840
 0.7950	50.0920
 0.7960	50.1030
 0.7970	50.1150
 0.7980	50.1150
 0.7990	50.1180
 0.8000	50.1270
 0.8010	50.1410
 0.8020	50.1470
 0.8030	50.1490
 0.8040	50.1510
 0.8050	50.1530
 0.8060	50.1560
 0.8070	50.1570
 0.8080	50.1550
 0.8090	50.1520
 0.8100	50.1530
 0.8110	50.1540
 0.8120	50.1520
 0.8130	50.1490
 0.8140	50.1440
 0.8150	50.1400
 0.8160	50.1350
 0.8170	50.1390
 0.8180	50.1330
 0.8190	50.1220
 0.8200	50.1200
 0.8210	50.1210
 0.8220	50.1170
 0.8230	50.1100
 0.8240	50.1110
 0.8250	50.1040
 0.8260	50.0940
 0.8270	50.0840
 0.8280	50.0740
 0.8290	50.0720
 0.8300	50.0710
 0.8310	50.0640
 0.8320	50.0450
 0.8330	50.0400
 0.8340	50.0430
 0.8350	50.0350
 0.8360	50.0290
 0.8370	50.0250
 0.8380	50.0230
 0.8390	50.0250
 0.8400	50.0250
 0.8410	50.0240
 0.8420	50.0230
 0.8430	50.0230
 0.8440	50.0250
 0.8450	50.0290
 0.8460	50.0340
 0.8470	50.0290
 0.8480	50.0300
 0.8490	50.0340
 0.8500	50.0310
 0.8510	50.0350
 0.8520	50.0410
 0.8530	50.0450
 0.8540	50.0480
 0.8550	50.0540
 0.8560	50.0600
 0.8570	50.0640
 0.8580	50.0670
 0.8590	50.0650
 0.8600	50.0680
 0.8610	50.0790
 0.8620	50.0860
 0.8630	50.0890
 0.8640	50.0960
 0.8650	50.1140
 0.8660	50.1240
 0.8670	50.1250
 0.8680	50.1250
 0.8690	50.1280
 0.8700	50.1320
 0.8710	50.1410
 0.8720	50.1520
 0.8730	50.1620
 0.8740	50.1660
 0.8750	50.1720
 0.8760	50.1830
 0.8770	50.1950
 0.8780	50.2030
 0.8790	50.2050
 0.8800	50.2070
 0.8810	50.2220
 0.8820	50.2340
 0.8830	50.2480
 0.8840	50.2630
 0.8850	50.2560
 0.8860	50.2570
 0.8870	50.2680
 0.8880	50.2810
 0.8890	50.2860
 0.8900	50.2930
 0.8910	50.2990
 0.8920	50.2960
 0.8930	50.3020
 0.8940	50.3100
 0.8950	50.3180
 0.8960	50.3270
 0.8970	50.3310
 0.8980	50.3350
 0.8990	50.3390
 0.9000	50.3410
 0.9010	50.3540
 0.9020	50.3650
 0.9030	50.3690
 0.9040	50.3760
 0.9050	50.3760
 0.9060	50.3830
 0.9070	50.3990
 0.9080	50.4000
 0.9090	50.3940
 0.9100	50.3890
 0.9110	50.3910
 0.9120	50.4020
 0.9130	50.4080
 0.9140	50.4110
 0.9150	50.4160
 0.9160	50.4240
 0.9170	50.4200
 0.9180	50.4130
 0.9190	50.4190
 0.9200	50.4210
 0.9210	50.4210
 0.9220	50.4150
 0.9230	50.4010
 0.9240	50.3990
 0.9250	50.3970
 0.9260	50.3890
 0.9270	50.3750
 0.9280	50.3630
 0.9290	50.3520
 0.9300	50.3440
 0.9310	50.3370
 0.9320	50.3070
 0.9330	50.2820
 0.9340	50.2700
 0.9350	50.2470
 0.9360	50.2190
 0.9370	50.1880
 0.9380	50.1570
 0.9390	50.1360
 0.9400	50.1220
 0.9410	50.0990
 0.9420	50.0610
 0.9430	50.0280
 0.9440	49.9950
 0.9450	49.9530
 0.9460	49.9060
 0.9470	49.8810
 0.9480	49.8400
 0.9490	49.7880
 0.9500	49.7330
 0.9510	49.6480
 0.9520	49.5880
 0.9530	49.5400
 0.9540	49.4780
 0.9550	49.4150
 0.9560	49.3410
 0.9570	49.2670
 0.9580	49.2050
 0.9590	49.1530
 0.9600	49.0980
 0.9610	49.0460
 0.9620	49.0070
 0.9630	48.9740
 0.9640	48.9330
 0.9650	48.8920
 0.9660	48.8640
 0.9670	48.8400
 0.9680	48.8180
 0.9690	48.7990
 0.9700	48.7840
 0.9710	48.7630
 0.9720	48.7370
 0.9730	48.7220
 0.9740	48.7300
 0.9750	48.7300
 0.9760	48.7100
 0.9770	48.6920
 0.9780	48.7000
 0.9790	48.6850
 0.9800	48.6810
 0.9810	48.6880
 0.9820	48.6930
 0.9830	48.7100
 0.9840	48.7100
 0.9850	48.7040
 0.9860	48.7160
 0.9870	48.7200
 0.9880	48.7310
 0.9890	48.7460
 0.9900	48.7580
 0.9910	48.7920
 0.9920	48.8010
 0.9930	48.8110
 0.9940	48.8210
 0.9950	48.8310
 0.9960	48.8410
 0.9970	48.8510
 0.9980	48.8610
 0.9990	48.8700
 1.0000	48.8800
 1.0010	48.8900
 1.0020	48.9000
 1.0030	48.9100
 1.0040	48.9200
 1.0050	48.9300
 1.0060	48.9390
 1.0070	48.9490
 1.0080	48.9590
 1.0090	48.9690
 1.0100	48.9690
 1.0110	48.9860
 1.0120	49.0050
 1.0130	49.0240
 1.0140	49.0450
 1.0150	49.0700
 1.0160	49.0900
 1.0170	49.1110
 1.0180	49.1350
 1.0190	49.1520
 1.0200	49.1720
 1.0210	49.1910
 1.0220	49.2090
 1.0230	49.2310
 1.0240	49.2600
 1.0250	49.2790
 1.0260	49.2950
 1.0270	49.3120
 1.0280	49.3230
 1.0290	49.3370
 1.0300	49.3530
 1.0310	49.3710
 1.0320	49.3890
 1.0330	49.4070
 1.0340	49.4270
 1.0350	49.4460
 1.0360	49.4590
 1.0370	49.4700
 1.0380	49.4820
 1.0390	49.4920
 1.0400	49.5050
 1.0410	49.5220
 1.0420	49.5340
 1.0430	49.5450
 1.0440	49.5570
 1.0450	49.5690
 1.0460	49.5800
 1.0470	49.5930
 1.0480	49.6050
 1.0490	49.6120
 1.0500	49.6220
 1.0510	49.6330
 1.0520	49.6440
 1.0530	49.6520
 1.0540	49.6590
 1.0550	49.6660
 1.0560	49.6700
 1.0570	49.6770
 1.0580	49.6860
 1.0590	49.6950
 1.0600	49.7060
 1.0610	49.7140
 1.0620	49.7220
 1.0630	49.7300
 1.0640	49.7370
 1.0650	49.7420
 1.0660	49.7440
 1.0670	49.7480
 1.0680	49.7510
 1.0690	49.7510
 1.0700	49.7540
 1.0710	49.7610
 1.0720	49.7640
 1.0730	49.7670
 1.0740	49.7690
 1.0750	49.7690
 1.0760	49.7700
 1.0770	49.7690
 1.0780	49.7710
 1.0790	49.7750
 1.0800	49.7760
 1.0810	49.7800
 1.0820	49.7800
 1.0830	49.7750
 1.0840	49.7710
 1.0850	49.7650
 1.0860	49.7580
 1.0870	49.7510
 1.0880	49.7440
 1.0890	49.7380
 1.0900	49.7320
 1.0910	49.7250
 1.0920	49.7190
 1.0930	49.7140
 1.0940	49.7100
 1.0950	49.7040
 1.0960	49.7020
 1.0970	49.6950
 1.0980	49.6820
 1.0990	49.6730
 1.1000	49.6670
 1.1010	49.6560
 1.1020	49.6430
 1.1030	49.6310
 1.1040	49.6190
 1.1050	49.6030
 1.1060	49.5880
 1.1070	49.5760
 1.1080	49.5600
 1.1090	49.5380
 1.1100	49.5200
 1.1110	49.5030
 1.1120	49.4840
 1.1130	49.4660
 1.1140	49.4450
 1.1150	49.4200
 1.1160	49.3950
 1.1170	49.3730
 1.1180	49.3450
 1.1190	49.3170
 1.1200	49.2850
 1.1210	49.2480
 1.1220	49.2080
 1.1230	49.1660
 1.1240	49.1210
 1.1250	49.0730
 1.1260	49.0240
 1.1270	48.9670
 1.1280	48.9060
 1.1290	48.8390
 1.1300	48.7670
 1.1310	48.6870
 1.1320	48.6010
 1.1330	48.5090
 1.1340	48.4130
 1.1350	48.3090
 1.1360	48.1980
 1.1370	48.0840
 1.1380	47.9610
 1.1390	47.8320
 1.1400	47.7020
 1.1410	47.5670
 1.1420	47.4280
 1.1430	47.2900
 1.1440	47.1490
 1.1450	47.0010
 1.1460	46.8620
 1.1470	46.7230
 1.1480	46.5910
 1.1490	46.4640
 1.1500	46.3430
 1.1510	46.2240
 1.1520	46.1140
 1.1530	46.0090
 1.1540	45.9110
 1.1550	45.8200
 1.1560	45.7380
 1.1570	45.6650
 1.1580	45.6010
 1.1590	45.5450
 1.1600	45.4960
 1.1610	45.4510
 1.1620	45.4110
 1.1630	45.3780
 1.1640	45.3500
 1.1650	45.3280
 1.1660	45.3140
 1.1670	45.2980
 1.1680	45.2850
 1.1690	45.2730
 1.1700	45.2630
 1.1710	45.2540
 1.1720	45.2470
 1.1730	45.2400
 1.1740	45.2330
 1.1750	45.2250
 1.1760	45.2170
 1.1770	45.2100
 1.1780	45.2030
 1.1790	45.1970
 1.1800	45.1890
 1.1810	45.1800
 1.1820	45.1710
 1.1830	45.1600
 1.1840	45.1480
 1.1850	45.1390
 1.1860	45.1290
 1.1870	45.1190
 1.1880	45.1100
 1.1890	45.1020
 1.1900	45.0970
 1.1910	45.0930
 1.1920	45.0910
 1.1930	45.0920
 1.1940	45.0930
 1.1950	45.0930
 1.1960	45.0950
 1.1970	45.0990
 1.1980	45.1020
 1.1990	45.1070
 1.2000	45.1130
 1.2010	45.1180
 1.2020	45.1270
 1.2030	45.1380
 1.2040	45.1500
 1.2050	45.1620
 1.2060	45.1760
 1.2070	45.1920
 1.2080	45.2090
 1.2090	45.2280
 1.2100	45.2500
 1.2110	45.2700
 1.2120	45.2880
 1.2130	45.3060
 1.2140	45.3220
 1.2150	45.3400
 1.2160	45.3590
 1.2170	45.3810
 1.2180	45.4080
 1.2190	45.4330
 1.2200	45.4580
 1.2210	45.4830
 1.2220	45.5060
 1.2230	45.5280
 1.2240	45.5500
 1.2250	45.5690
 1.2260	45.5890
 1.2270	45.6090
 1.2280	45.6280
 1.2290	45.6480
 1.2300	45.6690
 1.2310	45.6890
 1.2320	45.7080
 1.2330	45.7260
 1.2340	45.7430
 1.2350	45.7580
 1.2360	45.7730
 1.2370	45.7890
 1.2380	45.8030
 1.2390	45.8170
 1.2400	45.8310
 1.2410	45.8430
 1.2420	45.8550
 1.2430	45.8680
 1.2440	45.8790
 1.2450	45.8920
 1.2460	45.9060
 1.2470	45.9180
 1.2480	45.9310
 1.2490	45.9410
 1.2500	45.9520
 1.2510	45.9620
 1.2520	45.9720
 1.2530	45.9820
 1.2540	45.9900
 1.2550	45.9950
 1.2560	45.9970
 1.2570	46.0000
 1.2580	46.0050
 1.2590	46.0060
 1.2600	46.0080
 1.2610	46.0090
 1.2620	46.0070
 1.2630	46.0030
 1.2640	46.0000
 1.2650	45.9980
 1.2660	45.9930
 1.2670	45.9860
 1.2680	45.9780
 1.2690	45.9690
 1.2700	45.9600
 1.2710	45.9490
 1.2720	45.9380
 1.2730	45.9270
 1.2740	45.9180
 1.2750	45.9070
 1.2760	45.8960
 1.2770	45.8810
 1.2780	45.8630
 1.2790	45.8450
 1.2800	45.8280
 1.2810	45.8110
 1.2820	45.7910
 1.2830	45.7690
 1.2840	45.7450
 1.2850	45.7210
 1.2860	45.6980
 1.2870	45.6730
 1.2880	45.6480
 1.2890	45.6240
 1.2900	45.5960
 1.2910	45.5650
 1.2920	45.5330
 1.2930	45.4970
 1.2940	45.4610
 1.2950	45.4230
 1.2960	45.3810
 1.2970	45.3410
 1.2980	45.2960
 1.2990	45.2490
 1.3000	45.2030
 1.3010	45.1510
 1.3020	45.0970
 1.3030	45.0410
 1.3040	44.9800
 1.3050	44.9180
 1.3060	44.8550
 1.3070	44.7910
 1.3080	44.7250
 1.3090	44.6550
 1.3100	44.5820
 1.3110	44.5030
 1.3120	44.4210
 1.3130	44.3370
 1.3140	44.2500
 1.3150	44.1590
 1.3160	44.0650
 1.3170	43.9690
 1.3180	43.8680
 1.3190	43.7630
 1.3200	43.6560
 1.3210	43.5440
 1.3220	43.4320
 1.3230	43.3150
 1.3240	43.1920
 1.3250	43.0690
 1.3260	42.9410
 1.3270	42.8120
 1.3280	42.6820
 1.3290	42.5470
 1.3300	42.4100
 1.3310	42.2700
 1.3320	42.1260
 1.3330	41.9830
 1.3340	41.8400
 1.3350	41.6970
 1.3360	41.5540
 1.3370	41.4100
 1.3380	41.2640
 1.3390	41.1180
 1.3400	40.9720
 1.3410	40.8280
 1.3420	40.6860
 1.3430	40.5430
 1.3440	40.4010
 1.3450	40.2600
 1.3460	40.1180
 1.3470	39.9780
 1.3480	39.8390
 1.3490	39.7030
 1.3500	39.5690
 1.3510	39.4360
 1.3520	39.3050
 1.3530	39.1730
 1.3540	39.0390
 1.3550	38.9060
 1.3560	38.7740
 1.3570	38.6400
 1.3580	38.5060
 1.3590	38.3690
 1.3600	38.2280
 1.3610	38.0850
 1.3620	37.9400
 1.3630	37.7920
 1.3640	37.6380
 1.3650	37.4780
 1.3660	37.3100
 1.3670	37.1350
 1.3680	36.9500
 1.3690	36.7570
 1.3700	36.5500
 1.3710	36.3310
 1.3720	36.1000
 1.3730	35.8530
 1.3740	35.5940
 1.3750	35.3160
 1.3760	35.0170
 1.3770	34.7000
 1.3780	34.3580
 1.3790	33.9960
 1.3800	33.6160
 1.3810	33.2100
 1.3820	32.7890
 1.3830	32.3510
 1.3840	31.8950
 1.3850	31.4210
 1.3860	30.9340
 1.3870	30.4290
 1.3880	29.9180
 1.3890	29.3960
 1.3900	28.8640
 1.3910	28.3310
 1.3920	27.7910
 1.3930	27.2480
 1.3940	26.7060
 1.3950	26.1620
 1.3960	25.6250
 1.3970	25.0970
 1.3980	24.5770
 1.3990	24.0760
 1.4000	23.5870
 1.4010	23.1090
 1.4020	22.6530
 1.4030	22.2110
 1.4040	21.7870
 1.4050	21.3850
 1.4060	21.0000
 1.4070	20.6370
 1.4080	20.2950
 1.4090	19.9710
 1.4100	19.6700
 1.4110	19.3860
 1.4120	19.1230
 1.4130	18.8790
 1.4140	18.6520
 1.4150	18.4460
 1.4160	18.2550
 1.4170	18.0770
 1.4180	17.9150
 1.4190	17.7650
 1.4200	17.6260
 1.4210	17.5010
 1.4220	17.3880
 1.4230	17.2860
 1.4240	17.1950
 1.4250	17.1110
 1.4260	17.0380
 1.4270	16.9720
 1.4280	16.9140
 1.4290	16.8620
 1.4300	16.8180
 1.4310	16.7790
 1.4320	16.7470
 1.4330	16.7190
 1.4340	16.6990
 1.4350	16.6820
 1.4360	16.6690
 1.4370	16.6610
 1.4380	16.6560
 1.4390	16.6550
 1.4400	16.6560
 1.4410	16.6590
 1.4420	16.6670
 1.4430	16.6770
 1.4440	16.6900
 1.4450	16.7060
 1.4460	16.7220
 1.4470	16.7390
 1.4480	16.7580
 1.4490	16.7780
 1.4500	16.7990
 1.4510	16.8210
 1.4520	16.8440
 1.4530	16.8690
 1.4540	16.8950
 1.4550	16.9220
 1.4560	16.9500
 1.4570	16.9800
 1.4580	17.0130
 1.4590	17.0500
 1.4600	17.0900
 1.4610	17.1330
 1.4620	17.1790
 1.4630	17.2290
 1.4640	17.2810
 1.4650	17.3390
 1.4660	17.4010
 1.4670	17.4670
 1.4680	17.5390
 1.4690	17.6160
 1.4700	17.6950
 1.4710	17.7810
 1.4720	17.8680
 1.4730	17.9580
 1.4740	18.0510
 1.4750	18.1470
 1.4760	18.2460
 1.4770	18.3490
 1.4780	18.4540
 1.4790	18.5600
 1.4800	18.6670
 1.4810	18.7750
 1.4820	18.8840
 1.4830	18.9950
 1.4840	19.1080
 1.4850	19.2210
 1.4860	19.3340
 1.4870	19.4480
 1.4880	19.5610
 1.4890	19.6760
 1.4900	19.7910
 1.4910	19.9060
 1.4920	20.0220
 1.4930	20.1400
 1.4940	20.2570
 1.4950	20.3740
 1.4960	20.4900
 1.4970	20.6060
 1.4980	20.7210
 1.4990	20.8370
 1.5000	20.9520
 1.5010	21.0670
 1.5020	21.1810
 1.5030	21.2960
 1.5040	21.4090
 1.5050	21.5220
 1.5060	21.6350
 1.5070	21.7470
 1.5080	21.8580
 1.5090	21.9710
 1.5100	22.0800
 1.5110	22.1890
 1.5120	22.2990
 1.5130	22.4070
 1.5140	22.5140
 1.5150	22.6210
 1.5160	22.7280
 1.5170	22.8340
 1.5180	22.9400
 1.5190	23.0440
 1.5200	23.1470
 1.5210	23.2490
 1.5220	23.3500
 1.5230	23.4520
 1.5240	23.5510
 1.5250	23.6510
 1.5260	23.7510
 1.5270	23.8490
 1.5280	23.9470
 1.5290	24.0420
 1.5300	24.1350
 1.5310	24.2290
 1.5320	24.3220
 1.5330	24.4140
 1.5340	24.5060
 1.5350	24.5950
 1.5360	24.6860
 1.5370	24.7740
 1.5380	24.8610
 1.5390	24.9500
 1.5400	25.0350
 1.5410	25.1200
 1.5420	25.2060
 1.5430	25.2890
 1.5440	25.3740
 1.5450	25.4560
 1.5460	25.5370
 1.5470	25.6180
 1.5480	25.6960
 1.5490	25.7770
 1.5500	25.8550
 1.5510	25.9330
 1.5520	26.0110
 1.5530	26.0870
 1.5540	26.1620
 1.5550	26.2360
 1.5560	26.3080
 1.5570	26.3810
 1.5580	26.4520
 1.5590	26.5220
 1.5600	26.5920
 1.5610	26.6590
 1.5620	26.7270
 1.5630	26.7960
 1.5640	26.8620
 1.5650	26.9290
 1.5660	26.9940
 1.5670	27.0580
 1.5680	27.1210
 1.5690	27.1840
 1.5700	27.2460
 1.5710	27.3070
 1.5720	27.3700
 1.5730	27.4300
 1.5740	27.4890
 1.5750	27.5490
 1.5760	27.6090
 1.5770	27.6670
 1.5780	27.7300
 1.5790	27.7900
 1.5800	27.8470
 1.5810	27.9050
 1.5820	27.9620
 1.5830	28.0180
 1.5840	28.0750
 1.5850	28.1300
 1.5860	28.1840
 1.5870	28.2390
 1.5880	28.2940
 1.5890	28.3490
 1.5900	28.4030
 1.5910	28.4570
 1.5920	28.5110
 1.5930	28.5620
 1.5940	28.6130
 1.5950	28.6650
 1.5960	28.7160
 1.5970	28.7680
 1.5980	28.8180
 1.5990	28.8670
 1.6000	28.9170
 1.6010	28.9660
 1.6020	29.0130
 1.6030	29.0610
 1.6040	29.1070
 1.6050	29.1520
 1.6060	29.1980
 1.6070	29.2450
 1.6080	29.2900
 1.6090	29.3320
 1.6100	29.3750
 1.6110	29.4180
 1.6120	29.4600
 1.6130	29.5030
 1.6140	29.5450
 1.6150	29.5850
 1.6160	29.6260
 1.6170	29.6660
 1.6180	29.7040
 1.6190	29.7400
 1.6200	29.7730
 1.6210	29.8070
 1.6220	29.8420
 1.6230	29.8770
 1.6240	29.9130
 1.6250	29.9460
 1.6260	29.9790
 1.6270	30.0120
 1.6280	30.0450
 1.6290	30.0750
 1.6300	30.1030
 1.6310	30.1300
 1.6320	30.1570
 1.6330	30.1840
 1.6340	30.2110
 1.6350	30.2360
 1.6360	30.2580
 1.6370	30.2780
 1.6380	30.2950
 1.6390	30.3120
 1.6400	30.3280
 1.6410	30.3420
 1.6420	30.3560
 1.6430	30.3660
 1.6440	30.3730
 1.6450	30.3770
 1.6460	30.3780
 1.6470	30.3760
 1.6480	30.3730
 1.6490	30.3680
 1.6500	30.3610
 1.6510	30.3550
 1.6520	30.3460
 1.6530	30.3340
 1.6540	30.3230
 1.6550	30.3090
 1.6560	30.2930
 1.6570	30.2790
 1.6580	30.2650
 1.6590	30.2510
 1.6600	30.2400
 1.6610	30.2300
 1.6620	30.2210
 1.6630	30.2140
 1.6640	30.2080
 1.6650	30.2040
 1.6660	30.2010
 1.6670	30.1990
 1.6680	30.1970
 1.6690	30.1950
 1.6700	30.1950
 1.6710	30.1920
 1.6720	30.1910
 1.6730	30.1920
 1.6740	30.1910
 1.6750	30.1920
 1.6760	30.1920
 1.6770	30.1900
 1.6780	30.1850
 1.6790	30.1800
 1.6800	30.1730
 1.6810	30.1620
 1.6820	30.1500
 1.6830	30.1330
 1.6840	30.1140
 1.6850	30.0940
 1.6860	30.0730
 1.6870	30.0520
 1.6880	30.0300
 1.6890	30.0060
 1.6900	29.9810
 1.6910	29.9540
 1.6920	29.9250
 1.6930	29.8970
 1.6940	29.8670
 1.6950	29.8340
 1.6960	29.8040
 1.6970	29.7750
 1.6980	29.7440
 1.6990	29.7130
 1.7000	29.6800
 1.7010	29.6440
 1.7020	29.6080
 1.7030	29.5710
 1.7040	29.5350
 1.7050	29.4990
 1.7060	29.4620
 1.7070	29.4250
 1.7080	29.3870
 1.7090	29.3470
 1.7100	29.3070
 1.7110	29.2680
 1.7120	29.2280
 1.7130	29.1850
 1.7140	29.1400
 1.7150	29.0930
 1.7160	29.0470
 1.7170	29.0030
 1.7180	28.9570
 1.7190	28.9120
 1.7200	28.8650
 1.7210	28.8150
 1.7220	28.7650
 1.7230	28.7160
 1.7240	28.6670
 1.7250	28.6160
 1.7260	28.5660
 1.7270	28.5160
 1.7280	28.4670
 1.7290	28.4200
 1.7300	28.3740
 1.7310	28.3280
 1.7320	28.2800
 1.7330	28.2340
 1.7340	28.1890
 1.7350	28.1440
 1.7360	28.1020
 1.7370	28.0580
 1.7380	28.0120
 1.7390	27.9670
 1.7400	27.9200
 1.7410	27.8750
 1.7420	27.8300
 1.7430	27.7840
 1.7440	27.7390
 1.7450	27.6940
 1.7460	27.6470
 1.7470	27.6020
 1.7480	27.5580
 1.7490	27.5140
 1.7500	27.4710
 1.7510	27.4270
 1.7520	27.3810
 1.7530	27.3360
 1.7540	27.2910
 1.7550	27.2460
 1.7560	27.2030
 1.7570	27.1570
 1.7580	27.1120
 1.7590	27.0670
 1.7600	27.0200
 1.7610	26.9730
 1.7620	26.9280
 1.7630	26.8820
 1.7640	26.8390
 1.7650	26.7990
 1.7660	26.7590
 1.7670	26.7180
 1.7680	26.6780
 1.7690	26.6380
 1.7700	26.6000
 1.7710	26.5630
 1.7720	26.5270
 1.7730	26.4910
 1.7740	26.4570
 1.7750	26.4230
 1.7760	26.3890
 1.7770	26.3570
 1.7780	26.3260
 1.7790	26.2940
 1.7800	26.2640
 1.7810	26.2350
 1.7820	26.2080
 1.7830	26.1820
 1.7840	26.1590
 1.7850	26.1370
 1.7860	26.1170
 1.7870	26.0990
 1.7880	26.0820
 1.7890	26.0680
 1.7900	26.0560
 1.7910	26.0450
 1.7920	26.0380
 1.7930	26.0290
 1.7940	26.0190
 1.7950	26.0110
 1.7960	26.0030
 1.7970	25.9980
 1.7980	25.9990
 1.7990	25.9970
 1.8000	25.9960
 1.8010	25.9960
 1.8020	25.9960
 1.8030	25.9960
 1.8040	25.9990
 1.8050	25.9990
 1.8060	25.9970
 1.8070	25.9980
 1.8080	26.0020
 1.8090	26.0020
 1.8100	26.0030
 1.8110	26.0040
 1.8120	26.0050
 1.8130	26.0090
 1.8140	26.0110
 1.8150	26.0080
 1.8160	26.0040
 1.8170	25.9990
 1.8180	25.9970
 1.8190	25.9970
 1.8200	25.9940
 1.8210	25.9900
 1.8220	25.9850
 1.8230	25.9750
 1.8240	25.9690
 1.8250	25.9650
 1.8260	25.9570
 1.8270	25.9370
 1.8280	25.9170
 1.8290	25.8970
 1.8300	25.8770
 1.8310	25.8570
 1.8320	25.8370
 1.8330	25.8170
 1.8340	25.7970
 1.8350	25.7970
 1.8360	25.7660
 1.8370	25.7270
 1.8380	25.6830
 1.8390	25.6360
 1.8400	25.5840
 1.8410	25.5260
 1.8420	25.4630
 1.8430	25.3970
 1.8440	25.3240
 1.8450	25.2480
 1.8460	25.1640
 1.8470	25.0700
 1.8480	24.9680
 1.8490	24.8570
 1.8500	24.7370
 1.8510	24.6080
 1.8520	24.4750
 1.8530	24.3310
 1.8540	24.1750
 1.8550	24.0100
 1.8560	23.8290
 1.8570	23.6380
 1.8580	23.4340
 1.8590	23.2170
 1.8600	22.9880
 1.8610	22.7470
 1.8620	22.4870
 1.8630	22.2130
 1.8640	21.9270
 1.8650	21.6240
 1.8660	21.3060
 1.8670	20.9730
 1.8680	20.6180
 1.8690	20.2430
 1.8700	19.8540
 1.8710	19.4470
 1.8720	19.0300
 1.8730	18.6010
 1.8740	18.1600
 1.8750	17.7120
 1.8760	17.2510
 1.8770	16.7860
 1.8780	16.3210
 1.8790	15.8500
 1.8800	15.3830
 1.8810	14.9180
 1.8820	14.4510
 1.8830	13.9850
 1.8840	13.5270
 1.8850	13.0710
 1.8860	12.6210
 1.8870	12.1830
 1.8880	11.7550
 1.8890	11.3440
 1.8900	10.9510
 1.8910	10.5760
 1.8920	10.2170
 1.8930	 9.8790
 1.8940	 9.5600
 1.8950	 9.2640
 1.8960	 8.9870
 1.8970	 8.7290
 1.8980	 8.4930
 1.8990	 8.2740
 1.9000	 8.0720
 1.9010	 7.8890
 1.9020	 7.7200
 1.9030	 7.5700
 1.9040	 7.4350
 1.9050	 7.3140
 1.9060	 7.2080
 1.9070	 7.1110
 1.9080	 7.0250
 1.9090	 6.9510
 1.9100	 6.8850
 1.9110	 6.8250
 1.9120	 6.7770
 1.9130	 6.7320
 1.9140	 6.6920
 1.9150	 6.6600
 1.9160	 6.6350
 1.9170	 6.6130
 1.9180	 6.5950
 1.9190	 6.5800
 1.9200	 6.5660
 1.9210	 6.5550
 1.9220	 6.5470
 1.9230	 6.5410
 1.9240	 6.5390
 1.9250	 6.5400
 1.9260	 6.5440
 1.9270	 6.5500
 1.9280	 6.5570
 1.9290	 6.5660
 1.9300	 6.5790
 1.9310	 6.5910
 1.9320	 6.6020
 1.9330	 6.6170
 1.9340	 6.6330
 1.9350	 6.6510
 1.9360	 6.6710
 1.9370	 6.6910
 1.9380	 6.7120
 1.9390	 6.7320
 1.9400	 6.7560
 1.9410	 6.7820
 1.9420	 6.8120
 1.9430	 6.8430
 1.9440	 6.8730
 1.9450	 6.9050
 1.9460	 6.9370
 1.9470	 6.9670
 1.9480	 6.9990
 1.9490	 7.0330
 1.9500	 7.0680
 1.9510	 7.1060
 1.9520	 7.1450
 1.9530	 7.1840
 1.9540	 7.2230
 1.9550	 7.2630
 1.9560	 7.3010
 1.9570	 7.3420
 1.9580	 7.3840
 1.9590	 7.4280
 1.9600	 7.4720
 1.9610	 7.5190
 1.9620	 7.5680
 1.9630	 7.6170
 1.9640	 7.6690
 1.9650	 7.7180
 1.9660	 7.7660
 1.9670	 7.8170
 1.9680	 7.8660
 1.9690	 7.9130
 1.9700	 7.9640
 1.9710	 8.0180
 1.9720	 8.0720
 1.9730	 8.1280
 1.9740	 8.1840
 1.9750	 8.2390
 1.9760	 8.2960
 1.9770	 8.3550
 1.9780	 8.4150
 1.9790	 8.4750
 1.9800	 8.5340
 1.9810	 8.5950
 1.9820	 8.6540
 1.9830	 8.7170
 1.9840	 8.7820
 1.9850	 8.8470
 1.9860	 8.9130
 1.9870	 8.9780
 1.9880	 9.0420
 1.9890	 9.1050
 1.9900	 9.1700
 1.9910	 9.2350
 1.9920	 9.3010
 1.9930	 9.3690
 1.9940	 9.4360
 1.9950	 9.5030
 1.9960	 9.5700
 1.9970	 9.6350
 1.9980	 9.7020
 1.9990	 9.7700
 2.0000	 9.8400
 2.0010	 9.9090
 2.0020	 9.9790
 2.0030	10.0470
 2.0040	10.1110
 2.0050	10.1790
 2.0060	10.2480
 2.0070	10.3150
 2.0080	10.3840
 2.0090	10.4510
 2.0100	10.5170
 2.0110	10.5830
 2.0120	10.6480
 2.0130	10.7110
 2.0140	10.7740
 2.0150	10.8360
 2.0160	10.8970
 2.0170	10.9570
 2.0180	11.0150
 2.0190	11.0710
 2.0200	11.1270
 2.0210	11.1840
 2.0220	11.2390
 2.0230	11.2960
 2.0240	11.3510
 2.0250	11.4060
 2.0260	11.4600
 2.0270	11.5130
 2.0280	11.5650
 2.0290	11.6140
 2.0300	11.6620
 2.0310	11.7090
 2.0320	11.7540
 2.0330	11.8000
 2.0340	11.8470
 2.0350	11.8910
 2.0360	11.9350
 2.0370	11.9770
 2.0380	12.0150
 2.0390	12.0550
 2.0400	12.0960
 2.0410	12.1340
 2.0420	12.1720
 2.0430	12.2100
 2.0440	12.2460
 2.0450	12.2790
 2.0460	12.3140
 2.0470	12.3490
 2.0480	12.3830
 2.0490	12.4210
 2.0500	12.4530
 2.0510	12.4810
 2.0520	12.5120
 2.0530	12.5400
 2.0540	12.5700
 2.0550	12.6040
 2.0560	12.6380
 2.0570	12.6710
 2.0580	12.7040
 2.0590	12.7360
 2.0600	12.7660
 2.0610	12.7980
 2.0620	12.8300
 2.0630	12.8630
 2.0640	12.8960
 2.0650	12.9300
 2.0660	12.9660
 2.0670	13.0010
 2.0680	13.0350
 2.0690	13.0690
 2.0700	13.1030
 2.0710	13.1360
 2.0720	13.1700
 2.0730	13.2030
 2.0740	13.2340
 2.0750	13.2640
 2.0760	13.2940
 2.0770	13.3240
 2.0780	13.3540
 2.0790	13.3860
 2.0800	13.4160
 2.0810	13.4450
 2.0820	13.4740
 2.0830	13.5030
 2.0840	13.5320
 2.0850	13.5640
 2.0860	13.5920
 2.0870	13.6170
 2.0880	13.6420
 2.0890	13.6670
 2.0900	13.6860
 2.0910	13.7120
 2.0920	13.7400
 2.0930	13.7680
 2.0940	13.8000
 2.0950	13.8270
 2.0960	13.8510
 2.0970	13.8750
 2.0980	13.8930
 2.0990	13.9170
 2.1000	13.9420
 2.1010	13.9670
 2.1020	13.9930
 2.1030	14.0170
 2.1040	14.0390
 2.1050	14.0610
 2.1060	14.0840
 2.1070	14.1070
 2.1080	14.1290
 2.1090	14.1510
 2.1100	14.1740
 2.1110	14.1940
 2.1120	14.2170
 2.1130	14.2410
 2.1140	14.2650
 2.1150	14.2890
 2.1160	14.3120
 2.1170	14.3340
 2.1180	14.3560
 2.1190	14.3780
 2.1200	14.3980
 2.1210	14.4170
 2.1220	14.4360
 2.1230	14.4530
 2.1240	14.4680
 2.1250	14.4840
 2.1260	14.4990
 2.1270	14.5170
 2.1280	14.5370
 2.1290	14.5560
 2.1300	14.5770
 2.1310	14.5940
 2.1320	14.6080
 2.1330	14.6240
 2.1340	14.6390
 2.1350	14.6550
 2.1360	14.6750
 2.1370	14.6920
 2.1380	14.7050
 2.1390	14.7200
 2.1400	14.7340
 2.1410	14.7470
 2.1420	14.7660
 2.1430	14.7890
 2.1440	14.8110
 2.1450	14.8370
 2.1460	14.8600
 2.1470	14.8840
 2.1480	14.9070
 2.1490	14.9300
 2.1500	14.9520
 2.1510	14.9740
 2.1520	14.9960
 2.1530	15.0180
 2.1540	15.0400
 2.1550	15.0630
 2.1560	15.0850
 2.1570	15.1070
 2.1580	15.1280
 2.1590	15.1480
 2.1600	15.1700
 2.1610	15.1920
 2.1620	15.2120
 2.1630	15.2330
 2.1640	15.2530
 2.1650	15.2720
 2.1660	15.2900
 2.1670	15.3080
 2.1680	15.3230
 2.1690	15.3420
 2.1700	15.3630
 2.1710	15.3830
 2.1720	15.4070
 2.1730	15.4270
 2.1740	15.4460
 2.1750	15.4650
 2.1760	15.4840
 2.1770	15.5030
 2.1780	15.5230
 2.1790	15.5440
 2.1800	15.5670
 2.1810	15.5900
 2.1820	15.6140
 2.1830	15.6410
 2.1840	15.6660
 2.1850	15.6910
 2.1860	15.7150
 2.1870	15.7360
 2.1880	15.7600
 2.1890	15.7840
 2.1900	15.8090
 2.1910	15.8370
 2.1920	15.8610
 2.1930	15.8820
 2.1940	15.9050
 2.1950	15.9260
 2.1960	15.9480
 2.1970	15.9710
 2.1980	15.9950
 2.1990	16.0210
 2.2000	16.0440
 2.2010	16.0690
 2.2020	16.0920
 2.2030	16.1140
 2.2040	16.1350
 2.2050	16.1550
 2.2060	16.1760
 2.2070	16.1960
 2.2080	16.2170
 2.2090	16.2330
 2.2100	16.2500
 2.2110	16.2640
 2.2120	16.2720
 2.2130	16.2860
 2.2140	16.3020
 2.2150	16.3140
 2.2160	16.3270
 2.2170	16.3360
 2.2180	16.3420
 2.2190	16.3470
 2.2200	16.3530
 2.2210	16.3550
 2.2220	16.3550
 2.2230	16.3530
 2.2240	16.3490
 2.2250	16.3430
 2.2260	16.3370
 2.2270	16.3280
 2.2280	16.3190
 2.2290	16.3070
 2.2300	16.2950
 2.2310	16.2760
 2.2320	16.2560
 2.2330	16.2360
 2.2340	16.2140
 2.2350	16.1910
 2.2360	16.1670
 2.2370	16.1420
 2.2380	16.1140
 2.2390	16.0850
 2.2400	16.0540
 2.2410	16.0210
 2.2420	15.9850
 2.2430	15.9450
 2.2440	15.9060
 2.2450	15.8640
 2.2460	15.8230
 2.2470	15.7850
 2.2480	15.7440
 2.2490	15.7030
 2.2500	15.6600
 2.2510	15.6140
 2.2520	15.5690
 2.2530	15.5210
 2.2540	15.4760
 2.2550	15.4350
 2.2560	15.3890
 2.2570	15.3420
 2.2580	15.2940
 2.2590	15.2410
 2.2600	15.1920
 2.2610	15.1450
 2.2620	15.1010
 2.2630	15.0550
 2.2640	15.0120
 2.2650	14.9710
 2.2660	14.9260
 2.2670	14.8850
 2.2680	14.8470
 2.2690	14.8070
 2.2700	14.7680
 2.2710	14.7280
 2.2720	14.6870
 2.2730	14.6490
 2.2740	14.6140
 2.2750	14.5760
 2.2760	14.5400
 2.2770	14.5020
 2.2780	14.4580
 2.2790	14.4220
 2.2800	14.3900
 2.2810	14.3570
 2.2820	14.3280
 2.2830	14.2970
 2.2840	14.2640
 2.2850	14.2310
 2.2860	14.1960
 2.2870	14.1620
 2.2880	14.1270
 2.2890	14.0920
 2.2900	14.0590
 2.2910	14.0250
 2.2920	13.9900
 2.2930	13.9560
 2.2940	13.9240
 2.2950	13.8890
 2.2960	13.8520
 2.2970	13.8160
 2.2980	13.7790
 2.2990	13.7430
 2.3000	13.7090
 2.3010	13.6740
 2.3020	13.6360
 2.3030	13.5970
 2.3040	13.5610
 2.3050	13.5230
 2.3060	13.4890
 2.3070	13.4600
 2.3080	13.4280
 2.3090	13.3930
 2.3100	13.3570
 2.3110	13.3180
 2.3120	13.2860
 2.3130	13.2580
 2.3140	13.2300
 2.3150	13.2070
 2.3160	13.1810
 2.3170	13.1550
 2.3180	13.1270
 2.3190	13.0990
 2.3200	13.0720
 2.3210	13.0450
 2.3220	13.0160
 2.3230	12.9880
 2.3240	12.9580
 2.3250	12.9250
 2.3260	12.8920
 2.3270	12.8610
 2.3280	12.8270
 2.3290	12.7900
 2.3300	12.7530
 2.3310	12.7140
 2.3320	12.6760
 2.3330	12.6390
 2.3340	12.6010
 2.3350	12.5620
 2.3360	12.5240
 2.3370	12.4860
 2.3380	12.4480
 2.3390	12.4130
 2.3400	12.3770
 2.3410	12.3410
 2.3420	12.3050
 2.3430	12.2670
 2.3440	12.2310
 2.3450	12.1940
 2.3460	12.1580
 2.3470	12.1210
 2.3480	12.0880
 2.3490	12.0570
 2.3500	12.0250
 2.3510	11.9980
 2.3520	11.9680
 2.3530	11.9380
 2.3540	11.9060
 2.3550	11.8700
 2.3560	11.8340
 2.3570	11.8050
 2.3580	11.7780
 2.3590	11.7560
 2.3600	11.7320
 2.3610	11.6990
 2.3620	11.6620
 2.3630	11.6290
 2.3640	11.5950
 2.3650	11.5550
 2.3660	11.5210
 2.3670	11.4870
 2.3680	11.4560
 2.3690	11.4320
 2.3700	11.4030
 2.3710	11.3670
 2.3720	11.3250
 2.3730	11.2870
 2.3740	11.2550
 2.3750	11.2240
 2.3760	11.1940
 2.3770	11.1600
 2.3780	11.1250
 2.3790	11.0840
 2.3800	11.0430
 2.3810	11.0080
 2.3820	10.9710
 2.3830	10.9400
 2.3840	10.9050
 2.3850	10.8580
 2.3860	10.8090
 2.3870	10.7680
 2.3880	10.7330
 2.3890	10.6990
 2.3900	10.6670
 2.3910	10.6310
 2.3920	10.5920
 2.3930	10.5570
 2.3940	10.5230
 2.3950	10.4810
 2.3960	10.4400
 2.3970	10.3930
 2.3980	10.3500
 2.3990	10.3140
 2.4000	10.2730
 2.4010	10.2370
 2.4020	10.1930
 2.4030	10.1450
 2.4040	10.0990
 2.4050	10.0620
 2.4060	10.0260
 2.4070	 9.9770
 2.4080	 9.9320
 2.4090	 9.8780
 2.4100	 9.8220
 2.4110	 9.7850
 2.4120	 9.7480
 2.4130	 9.7120
 2.4140	 9.6820
 2.4150	 9.6380
 2.4160	 9.5910
 2.4170	 9.5490
 2.4180	 9.5000
 2.4190	 9.4520
 2.4200	 9.4120
 2.4210	 9.3730
 2.4220	 9.3320
 2.4230	 9.2980
 2.4240	 9.2550
 2.4250	 9.2060
 2.4260	 9.1630
 2.4270	 9.1260
 2.4280	 9.1010
 2.4290	 9.0690
 2.4300	 9.0300
 2.4310	 8.9840
 2.4320	 8.9240
 2.4330	 8.8680
 2.4340	 8.8140
 2.4350	 8.7670
 2.4360	 8.7310
 2.4370	 8.6920
 2.4380	 8.6580
 2.4390	 8.6280
 2.4400	 8.5920
 2.4410	 8.5570
 2.4420	 8.5250
 2.4430	 8.4800
 2.4440	 8.4310
 2.4450	 8.3850
 2.4460	 8.3290
 2.4470	 8.2700
 2.4480	 8.2070
 2.4490	 8.1610
 2.4500	 8.1380
 2.4510	 8.1060
 2.4520	 8.0890
 2.4530	 8.0630
 2.4540	 8.0160
 2.4550	 7.9960
 2.4560	 7.9760
 2.4570	 7.9340
 2.4580	 7.8970
 2.4590	 7.8570
 2.4600	 7.8160
 2.4610	 7.7810
 2.4620	 7.7580
 2.4630	 7.7400
 2.4640	 7.7210
 2.4650	 7.7030
 2.4660	 7.6890
 2.4670	 7.6710
 2.4680	 7.6270
 2.4690	 7.5820
 2.4700	 7.5430
 2.4710	 7.4860
 2.4720	 7.4520
 2.4730	 7.4410
 2.4740	 7.4230
 2.4750	 7.4030
 2.4760	 7.3920
 2.4770	 7.3970
 2.4780	 7.3890
 2.4790	 7.3800
 2.4800	 7.3630
 2.4810	 7.3400
 2.4820	 7.3010
 2.4830	 7.2850
 2.4840	 7.2510
 2.4850	 7.2060
 2.4860	 7.2050
 2.4870	 7.1890
 2.4880	 7.1740
 2.4890	 7.1700
 2.4900	 7.1520
 2.4910	 7.1390
 2.4920	 7.1460
 2.4930	 7.1450
 2.4940	 7.1110
 2.4950	 7.0750
 2.4960	 7.0050
 2.4970	 6.9580
 2.4980	 6.9650
 2.4990	 6.9590
 2.5000	 6.9780
