Name: Baccharis pilularis 3
Type: vegetation
Class: Shrub
Genus: Baccharis
Species: pilularis
Sample No.: VH197
Owner: UCSB
Wavelength Range: TIR
Origin: 34.4185; -119.8457; WGS84
Collection Date: 10/13/2013
Description: Samples were collected as part of the HyspIRI Airborne Campaign. 48 individual plants were sampled in three times in 2013 - spring  summer  and fall. The name of the sample includes a 1  2  or 3 which references a different individual of the species. Samples were taken to JPL and processed within 48 hours of collection. The same leaves were processed in the Nicolet and then measured using the ASD.
Measurement: Hemispherical reflectance
First Column: X
Second Column: Y
X Units: Wavelength (micrometers)
Y Units: Reflectance (percentage)
First X Value: 2.501
Last X Value: 15.387
Number of X Values: 1737
Additional Information: vegetation.shrub.baccharis.pilularis.tir.vh197.ucsb.nicolet.ancillary.txt

 2.5010	 9.8500
 2.5030	 9.6750
 2.5040	 9.4450
 2.5050	 9.3380
 2.5060	 9.4840
 2.5070	 9.3980
 2.5090	 9.1230
 2.5100	 9.1710
 2.5110	 9.4110
 2.5120	 9.4190
 2.5140	 9.3970
 2.5150	 9.3690
 2.5160	 9.5680
 2.5170	 9.4320
 2.5180	 9.3380
 2.5200	 9.2580
 2.5210	 9.2630
 2.5220	 9.2860
 2.5230	 9.2440
 2.5250	 9.2210
 2.5260	 9.2800
 2.5270	 9.1470
 2.5280	 9.1870
 2.5290	 9.3090
 2.5310	 9.3850
 2.5320	 9.5650
 2.5330	 9.6100
 2.5340	 9.4110
 2.5360	 9.1850
 2.5370	 9.1470
 2.5380	 9.3420
 2.5390	 9.3010
 2.5410	 9.2200
 2.5420	 9.3140
 2.5430	 9.4170
 2.5440	 9.1740
 2.5460	 9.0890
 2.5470	 9.4140
 2.5480	 9.6040
 2.5490	 9.4290
 2.5510	 9.2180
 2.5520	 9.0390
 2.5530	 9.1860
 2.5540	 9.3200
 2.5560	 9.4460
 2.5570	 9.5210
 2.5580	 9.4190
 2.5590	 9.4360
 2.5610	 9.4120
 2.5620	 9.1700
 2.5630	 9.2800
 2.5640	 9.3640
 2.5660	 9.3260
 2.5670	 9.3980
 2.5680	 9.4380
 2.5700	 9.3740
 2.5710	 9.4060
 2.5720	 9.2470
 2.5730	 9.2140
 2.5750	 9.4390
 2.5760	 9.7180
 2.5770	 9.5960
 2.5790	 9.3940
 2.5800	 9.2790
 2.5810	 9.5080
 2.5820	 9.6400
 2.5840	 9.7420
 2.5850	 9.5080
 2.5860	 9.1130
 2.5880	 9.1070
 2.5890	 9.4140
 2.5900	 9.4370
 2.5910	 9.2730
 2.5930	 9.2240
 2.5940	 9.3990
 2.5950	 9.4220
 2.5970	 9.4090
 2.5980	 9.2910
 2.5990	 9.1220
 2.6000	 9.0800
 2.6020	 9.1520
 2.6030	 9.2180
 2.6040	 9.2960
 2.6060	 9.2670
 2.6070	 9.1700
 2.6080	 9.1480
 2.6100	 9.2120
 2.6110	 9.1680
 2.6120	 9.1410
 2.6140	 9.1500
 2.6150	 9.0160
 2.6160	 8.8720
 2.6180	 8.9680
 2.6190	 8.8890
 2.6200	 8.8820
 2.6220	 8.8960
 2.6230	 8.9860
 2.6240	 8.8320
 2.6260	 8.6590
 2.6270	 8.6210
 2.6280	 8.5720
 2.6300	 8.5360
 2.6310	 8.7260
 2.6320	 8.6730
 2.6340	 8.6530
 2.6350	 8.7740
 2.6360	 8.9020
 2.6380	 8.7200
 2.6390	 8.5250
 2.6400	 8.3940
 2.6420	 8.5650
 2.6430	 8.4220
 2.6440	 8.3640
 2.6460	 8.4470
 2.6470	 8.4140
 2.6480	 8.4200
 2.6500	 8.3560
 2.6510	 8.3320
 2.6520	 8.3220
 2.6540	 8.1420
 2.6550	 7.9910
 2.6560	 7.9990
 2.6580	 8.3280
 2.6590	 8.2350
 2.6610	 7.9860
 2.6620	 7.8480
 2.6630	 8.0750
 2.6650	 8.0800
 2.6660	 8.0830
 2.6670	 8.0310
 2.6690	 7.9680
 2.6700	 7.9040
 2.6720	 7.8560
 2.6730	 7.6820
 2.6740	 7.9050
 2.6760	 8.1020
 2.6770	 8.1350
 2.6780	 7.9560
 2.6800	 7.8690
 2.6810	 7.8170
 2.6830	 7.8070
 2.6840	 7.6300
 2.6850	 7.6010
 2.6870	 7.4200
 2.6880	 7.4090
 2.6900	 7.5200
 2.6910	 7.5100
 2.6920	 7.3240
 2.6940	 7.1300
 2.6950	 7.0150
 2.6970	 6.9970
 2.6980	 6.9630
 2.6990	 6.8870
 2.7010	 6.8620
 2.7020	 7.1070
 2.7040	 6.9690
 2.7050	 6.8670
 2.7060	 6.8200
 2.7080	 6.8800
 2.7090	 6.8690
 2.7110	 6.9610
 2.7120	 7.0250
 2.7130	 6.9360
 2.7150	 6.7500
 2.7160	 6.7940
 2.7180	 6.9710
 2.7190	 6.8450
 2.7210	 6.7580
 2.7220	 6.7670
 2.7230	 6.5910
 2.7250	 6.6420
 2.7260	 6.4830
 2.7280	 6.4400
 2.7290	 6.4850
 2.7310	 6.3390
 2.7320	 6.1720
 2.7330	 6.2190
 2.7350	 6.4740
 2.7360	 6.5070
 2.7380	 6.2900
 2.7390	 6.2290
 2.7410	 6.1660
 2.7420	 5.9940
 2.7440	 5.8150
 2.7450	 5.6480
 2.7470	 5.7980
 2.7480	 6.2460
 2.7490	 5.8850
 2.7510	 5.9980
 2.7520	 6.0460
 2.7540	 6.3720
 2.7550	 6.6100
 2.7570	 6.4540
 2.7580	 6.1230
 2.7600	 5.9950
 2.7610	 5.7940
 2.7630	 5.8020
 2.7640	 5.6680
 2.7660	 6.0350
 2.7670	 6.3070
 2.7680	 6.1620
 2.7700	 5.6180
 2.7710	 5.5480
 2.7730	 5.5630
 2.7740	 5.8930
 2.7760	 5.7830
 2.7770	 5.6220
 2.7790	 5.8680
 2.7800	 5.9800
 2.7820	 5.4610
 2.7830	 5.1870
 2.7850	 5.4210
 2.7860	 5.7580
 2.7880	 5.5210
 2.7890	 5.5030
 2.7910	 5.4520
 2.7920	 5.4400
 2.7940	 5.4820
 2.7950	 5.5600
 2.7970	 5.6050
 2.7980	 5.7280
 2.8000	 5.8080
 2.8010	 5.7440
 2.8030	 5.5440
 2.8040	 5.4810
 2.8060	 5.3860
 2.8070	 5.4250
 2.8090	 5.4870
 2.8110	 5.5510
 2.8120	 5.5220
 2.8140	 5.5890
 2.8150	 5.5720
 2.8170	 5.6600
 2.8180	 5.6630
 2.8200	 5.5860
 2.8210	 5.4470
 2.8230	 5.5280
 2.8240	 5.5810
 2.8260	 5.3540
 2.8270	 5.1820
 2.8290	 5.3650
 2.8300	 5.2740
 2.8320	 5.0710
 2.8340	 4.9780
 2.8350	 5.4250
 2.8370	 5.5700
 2.8380	 5.5750
 2.8400	 5.4370
 2.8410	 5.3050
 2.8430	 5.0980
 2.8440	 5.1520
 2.8460	 5.2000
 2.8480	 5.2840
 2.8490	 5.3200
 2.8510	 5.3500
 2.8520	 5.2260
 2.8540	 5.2710
 2.8550	 5.1910
 2.8570	 5.2470
 2.8590	 5.2930
 2.8600	 5.2240
 2.8620	 5.2080
 2.8630	 5.1850
 2.8650	 5.0670
 2.8660	 5.4530
 2.8680	 5.6100
 2.8700	 5.2550
 2.8710	 4.8780
 2.8730	 5.0060
 2.8740	 5.2780
 2.8760	 5.6450
 2.8780	 5.2530
 2.8790	 4.7870
 2.8810	 4.8320
 2.8820	 5.1260
 2.8840	 5.5840
 2.8860	 5.5900
 2.8870	 5.1950
 2.8890	 5.0600
 2.8900	 5.2640
 2.8920	 5.1940
 2.8940	 5.0490
 2.8950	 5.4240
 2.8970	 5.6320
 2.8980	 5.7330
 2.9000	 5.7600
 2.9020	 5.6970
 2.9030	 5.6210
 2.9050	 5.5810
 2.9070	 5.3290
 2.9080	 5.1050
 2.9100	 4.7910
 2.9120	 4.9980
 2.9130	 5.1890
 2.9150	 5.2020
 2.9160	 5.3080
 2.9180	 5.6800
 2.9200	 5.5590
 2.9210	 5.3690
 2.9230	 5.3350
 2.9250	 5.4840
 2.9260	 5.4520
 2.9280	 5.4130
 2.9300	 5.4350
 2.9310	 5.5830
 2.9330	 5.4050
 2.9350	 5.3730
 2.9360	 5.3330
 2.9380	 5.3020
 2.9400	 5.1080
 2.9410	 5.3090
 2.9430	 5.3800
 2.9450	 5.2340
 2.9460	 5.2220
 2.9480	 4.8150
 2.9500	 4.8710
 2.9510	 5.5030
 2.9530	 5.5400
 2.9550	 5.5570
 2.9560	 5.7340
 2.9580	 5.8690
 2.9600	 5.8090
 2.9610	 6.1440
 2.9630	 5.4670
 2.9650	 4.4620
 2.9660	 3.4000
 2.9680	 3.5370
 2.9700	 3.0930
 2.9720	 3.5170
 2.9730	 4.3710
 2.9750	 5.9830
 2.9770	 5.9960
 2.9780	 3.9580
 2.9800	 3.7820
 2.9820	 5.7940
 2.9840	 6.1720
 2.9850	 5.6620
 2.9870	 6.5920
 2.9890	 4.5170
 2.9900	 3.0260
 2.9920	 3.9290
 2.9940	 4.5740
 2.9960	 5.5270
 2.9970	 3.5140
 2.9990	 2.5470
 3.0010	 5.2520
 3.0030	 6.1370
 3.0040	 6.8640
 3.0060	 6.8570
 3.0080	 5.1400
 3.0100	 4.7000
 3.0110	 4.7300
 3.0130	 3.8270
 3.0150	 5.1710
 3.0170	 7.1220
 3.0180	 6.3580
 3.0200	 6.0680
 3.0220	 5.5900
 3.0240	 5.7440
 3.0250	 4.7290
 3.0270	 4.9940
 3.0290	 5.9550
 3.0310	 5.8040
 3.0320	 5.3590
 3.0340	 3.8790
 3.0360	 3.0480
 3.0380	 4.2990
 3.0400	 3.5240
 3.0410	 4.0390
 3.0430	 4.2120
 3.0450	 3.0880
 3.0470	 2.9550
 3.0480	 3.2710
 3.0500	 4.3220
 3.0520	 6.2400
 3.0540	 7.0190
 3.0560	 5.1420
 3.0570	 5.8340
 3.0590	 6.0160
 3.0610	 5.4470
 3.0630	 6.1360
 3.0650	 6.6990
 3.0660	 6.2260
 3.0680	 5.7760
 3.0700	 4.5750
 3.0720	 4.3150
 3.0740	 4.9930
 3.0760	 5.5490
 3.0770	 5.5990
 3.0790	 5.5760
 3.0810	 5.7530
 3.0830	 5.7100
 3.0850	 5.4620
 3.0870	 5.1720
 3.0880	 4.8060
 3.0900	 4.8880
 3.0920	 4.8800
 3.0940	 5.1240
 3.0960	 5.7090
 3.0980	 5.6150
 3.0990	 5.3710
 3.1010	 5.4290
 3.1030	 5.7040
 3.1050	 5.7910
 3.1070	 5.8770
 3.1090	 5.6000
 3.1110	 5.5090
 3.1120	 5.5640
 3.1140	 5.7630
 3.1160	 5.6690
 3.1180	 5.5520
 3.1200	 5.2370
 3.1220	 5.2210
 3.1240	 5.4890
 3.1260	 5.6100
 3.1270	 5.5650
 3.1290	 5.1770
 3.1310	 5.2040
 3.1330	 5.8690
 3.1350	 6.0560
 3.1370	 5.9500
 3.1390	 6.0180
 3.1410	 6.4580
 3.1430	 5.7340
 3.1450	 4.3400
 3.1460	 3.8840
 3.1480	 4.1440
 3.1500	 5.1290
 3.1520	 5.8680
 3.1540	 4.8930
 3.1560	 4.3510
 3.1580	 3.5820
 3.1600	 2.7290
 3.1620	 4.0960
 3.1640	 7.4150
 3.1660	 9.7620
 3.1680	 7.7240
 3.1700	 6.2080
 3.1710	 6.2720
 3.1730	 5.6860
 3.1750	 2.3830
 3.1770	 1.6330
 3.1790	 4.9410
 3.1810	 5.4970
 3.1830	 5.2170
 3.1850	 5.5970
 3.1870	 5.0600
 3.1890	 4.8400
 3.1910	 4.9660
 3.1930	 4.7250
 3.1950	 4.8020
 3.1970	 5.1120
 3.1990	 5.3850
 3.2010	 5.6000
 3.2030	 5.8140
 3.2050	 5.7420
 3.2070	 5.4650
 3.2090	 5.2810
 3.2110	 5.0930
 3.2130	 5.3450
 3.2150	 5.4640
 3.2170	 5.3660
 3.2190	 5.2750
 3.2210	 5.4710
 3.2230	 5.6940
 3.2250	 5.6590
 3.2270	 5.6430
 3.2290	 5.4230
 3.2310	 5.1100
 3.2330	 5.3890
 3.2350	 5.6120
 3.2370	 5.7160
 3.2390	 5.6220
 3.2410	 5.7920
 3.2430	 5.7040
 3.2450	 5.5070
 3.2470	 5.5060
 3.2490	 5.3680
 3.2510	 5.7020
 3.2530	 5.8480
 3.2550	 5.7620
 3.2570	 5.6680
 3.2590	 5.4330
 3.2610	 4.9040
 3.2630	 5.0050
 3.2650	 5.5300
 3.2670	 5.8610
 3.2690	 5.8800
 3.2720	 5.5750
 3.2740	 5.2790
 3.2760	 5.2680
 3.2780	 5.5840
 3.2800	 5.8520
 3.2820	 5.3640
 3.2840	 4.9170
 3.2860	 5.0200
 3.2880	 5.0380
 3.2900	 5.1000
 3.2920	 5.4790
 3.2940	 5.7800
 3.2960	 5.5480
 3.2990	 5.4000
 3.3010	 5.3510
 3.3030	 5.3690
 3.3050	 5.3180
 3.3070	 5.4360
 3.3090	 5.7820
 3.3110	 5.6960
 3.3130	 5.4710
 3.3150	 5.0140
 3.3180	 4.8800
 3.3200	 5.0060
 3.3220	 5.2560
 3.3240	 5.3770
 3.3260	 5.2240
 3.3280	 5.2640
 3.3300	 5.3900
 3.3330	 5.3170
 3.3350	 5.3770
 3.3370	 5.2470
 3.3390	 5.2670
 3.3410	 5.2430
 3.3430	 5.4270
 3.3450	 5.3540
 3.3480	 5.2430
 3.3500	 5.2330
 3.3520	 4.8620
 3.3540	 4.6810
 3.3560	 4.9530
 3.3580	 5.1740
 3.3610	 5.1240
 3.3630	 4.8060
 3.3650	 4.8290
 3.3670	 4.9760
 3.3690	 4.9390
 3.3720	 4.8640
 3.3740	 4.8930
 3.3760	 4.9350
 3.3780	 5.0140
 3.3800	 5.0280
 3.3830	 5.1580
 3.3850	 5.1680
 3.3870	 5.0970
 3.3890	 5.0820
 3.3910	 5.1670
 3.3940	 5.2040
 3.3960	 5.3520
 3.3980	 5.3660
 3.4000	 5.2380
 3.4020	 5.0930
 3.4050	 5.0460
 3.4070	 5.1640
 3.4090	 5.3320
 3.4110	 5.3250
 3.4140	 5.3150
 3.4160	 5.4940
 3.4180	 5.6050
 3.4200	 5.6750
 3.4230	 5.8420
 3.4250	 5.7930
 3.4270	 6.1210
 3.4290	 6.4790
 3.4320	 6.5600
 3.4340	 6.3710
 3.4360	 6.0440
 3.4390	 5.8400
 3.4410	 5.9220
 3.4430	 5.7390
 3.4450	 5.5910
 3.4480	 5.7240
 3.4500	 5.8640
 3.4520	 5.8100
 3.4550	 5.6520
 3.4570	 5.8180
 3.4590	 5.9960
 3.4620	 5.8140
 3.4640	 5.5320
 3.4660	 5.3960
 3.4680	 5.4890
 3.4710	 5.6610
 3.4730	 5.7320
 3.4750	 5.6410
 3.4780	 5.7440
 3.4800	 5.7850
 3.4820	 5.7610
 3.4850	 5.7430
 3.4870	 5.7050
 3.4890	 5.5900
 3.4920	 5.6070
 3.4940	 5.6120
 3.4970	 5.6490
 3.4990	 5.6960
 3.5010	 5.7880
 3.5040	 5.7750
 3.5060	 6.0060
 3.5080	 6.3320
 3.5110	 6.7400
 3.5130	 6.7880
 3.5160	 6.4740
 3.5180	 6.3130
 3.5200	 6.1840
 3.5230	 6.0690
 3.5250	 6.0430
 3.5270	 6.0860
 3.5300	 6.0810
 3.5320	 6.0970
 3.5350	 6.1180
 3.5370	 6.0570
 3.5400	 6.0190
 3.5420	 6.0470
 3.5440	 5.9080
 3.5470	 5.9290
 3.5490	 6.1230
 3.5520	 6.1870
 3.5540	 6.0860
 3.5570	 6.0930
 3.5590	 6.1360
 3.5610	 6.1470
 3.5640	 6.1530
 3.5660	 6.0010
 3.5690	 5.9780
 3.5710	 6.2590
 3.5740	 6.2690
 3.5760	 5.9980
 3.5790	 6.0870
 3.5810	 5.9050
 3.5840	 5.8230
 3.5860	 6.1340
 3.5890	 6.3310
 3.5910	 6.3670
 3.5930	 6.4020
 3.5960	 6.0580
 3.5980	 5.9280
 3.6010	 6.2020
 3.6030	 6.3290
 3.6060	 6.4530
 3.6080	 6.4990
 3.6110	 6.3500
 3.6140	 6.1950
 3.6160	 6.2370
 3.6190	 6.2560
 3.6210	 6.0970
 3.6240	 6.0350
 3.6260	 6.0600
 3.6290	 5.9700
 3.6310	 5.9310
 3.6340	 6.0190
 3.6360	 5.9660
 3.6390	 6.0010
 3.6410	 6.0990
 3.6440	 6.1840
 3.6470	 6.1690
 3.6490	 6.0880
 3.6520	 5.9820
 3.6540	 5.9680
 3.6570	 6.0150
 3.6590	 6.0710
 3.6620	 6.0010
 3.6650	 5.9850
 3.6670	 6.1430
 3.6700	 6.1760
 3.6720	 6.0390
 3.6750	 6.0680
 3.6780	 6.1950
 3.6800	 6.3310
 3.6830	 6.2930
 3.6850	 6.1730
 3.6880	 5.9940
 3.6910	 5.9430
 3.6930	 6.0870
 3.6960	 6.1660
 3.6990	 6.0660
 3.7010	 6.0830
 3.7040	 6.1460
 3.7060	 6.1320
 3.7090	 6.1340
 3.7120	 6.0300
 3.7140	 6.0210
 3.7170	 6.1130
 3.7200	 6.0950
 3.7220	 6.1300
 3.7250	 6.2040
 3.7280	 6.2900
 3.7300	 6.2160
 3.7330	 6.2140
 3.7360	 6.1750
 3.7390	 6.0550
 3.7410	 6.0450
 3.7440	 6.1430
 3.7470	 6.1110
 3.7490	 6.1000
 3.7520	 6.0980
 3.7550	 6.1110
 3.7580	 6.0230
 3.7600	 6.2220
 3.7630	 6.3140
 3.7660	 6.2440
 3.7680	 6.0750
 3.7710	 6.1690
 3.7740	 6.3760
 3.7770	 6.2810
 3.7790	 6.2000
 3.7820	 6.1380
 3.7850	 6.0680
 3.7880	 6.1000
 3.7900	 6.1580
 3.7930	 6.2050
 3.7960	 6.2570
 3.7990	 6.2390
 3.8020	 6.2040
 3.8040	 6.2280
 3.8070	 6.2970
 3.8100	 6.2320
 3.8130	 6.1740
 3.8160	 6.2570
 3.8180	 6.2840
 3.8210	 6.3030
 3.8240	 6.3380
 3.8270	 6.4020
 3.8300	 6.4890
 3.8330	 6.4770
 3.8350	 6.4690
 3.8380	 6.3310
 3.8410	 6.2290
 3.8440	 6.4080
 3.8470	 6.3380
 3.8500	 6.3170
 3.8520	 6.4300
 3.8550	 6.3630
 3.8580	 6.2760
 3.8610	 6.3370
 3.8640	 6.2500
 3.8670	 6.1870
 3.8700	 6.2820
 3.8730	 6.3000
 3.8750	 6.2940
 3.8780	 6.3490
 3.8810	 6.3720
 3.8840	 6.3850
 3.8870	 6.3120
 3.8900	 6.2730
 3.8930	 6.3130
 3.8960	 6.4160
 3.8990	 6.4470
 3.9020	 6.4140
 3.9050	 6.5080
 3.9080	 6.5050
 3.9110	 6.4180
 3.9140	 6.2420
 3.9160	 6.2350
 3.9190	 6.4110
 3.9220	 6.4460
 3.9250	 6.3500
 3.9280	 6.3610
 3.9310	 6.3950
 3.9340	 6.3900
 3.9370	 6.4820
 3.9400	 6.3800
 3.9430	 6.2910
 3.9460	 6.4320
 3.9490	 6.4760
 3.9520	 6.4930
 3.9550	 6.4350
 3.9580	 6.4400
 3.9610	 6.4480
 3.9640	 6.4080
 3.9670	 6.4320
 3.9700	 6.4610
 3.9730	 6.5030
 3.9770	 6.4390
 3.9800	 6.4490
 3.9830	 6.5170
 3.9860	 6.5230
 3.9890	 6.4810
 3.9920	 6.5330
 3.9950	 6.5680
 3.9980	 6.5400
 4.0010	 6.4590
 4.0040	 6.4100
 4.0070	 6.4230
 4.0100	 6.4630
 4.0130	 6.4390
 4.0170	 6.4520
 4.0200	 6.4760
 4.0230	 6.4530
 4.0260	 6.5250
 4.0290	 6.5110
 4.0320	 6.4480
 4.0350	 6.4370
 4.0380	 6.4150
 4.0420	 6.4390
 4.0450	 6.5970
 4.0480	 6.5500
 4.0510	 6.3470
 4.0540	 6.3620
 4.0570	 6.4890
 4.0610	 6.4720
 4.0640	 6.6120
 4.0670	 6.7170
 4.0700	 6.5960
 4.0730	 6.5470
 4.0770	 6.5350
 4.0800	 6.4870
 4.0830	 6.4700
 4.0860	 6.5350
 4.0890	 6.5610
 4.0930	 6.5200
 4.0960	 6.5870
 4.0990	 6.6780
 4.1020	 6.7150
 4.1060	 6.7980
 4.1090	 6.7480
 4.1120	 6.5870
 4.1150	 6.6070
 4.1190	 6.5640
 4.1220	 6.4690
 4.1250	 6.4810
 4.1280	 6.4420
 4.1320	 6.5500
 4.1350	 6.6060
 4.1380	 6.5590
 4.1420	 6.5650
 4.1450	 6.5300
 4.1480	 6.5500
 4.1520	 6.6420
 4.1550	 6.6020
 4.1580	 6.5260
 4.1620	 6.5410
 4.1650	 6.5120
 4.1680	 6.5090
 4.1720	 6.6090
 4.1750	 6.5740
 4.1780	 6.4640
 4.1820	 6.4430
 4.1850	 6.6090
 4.1890	 6.6670
 4.1920	 6.6040
 4.1950	 6.5940
 4.1990	 6.5680
 4.2020	 6.6350
 4.2060	 6.7430
 4.2090	 6.7430
 4.2120	 6.8130
 4.2160	 6.7550
 4.2190	 6.6380
 4.2230	 6.8520
 4.2260	 6.9300
 4.2300	 6.6170
 4.2330	 6.2700
 4.2360	 6.1030
 4.2400	 5.9900
 4.2430	 6.3330
 4.2470	 6.8700
 4.2500	 6.6970
 4.2540	 6.3780
 4.2570	 6.7800
 4.2610	 7.2810
 4.2640	 6.9740
 4.2680	 6.6680
 4.2710	 6.5160
 4.2750	 6.2730
 4.2780	 6.5480
 4.2820	 6.4880
 4.2850	 6.5400
 4.2890	 6.6970
 4.2930	 6.7860
 4.2960	 6.6730
 4.3000	 6.3980
 4.3030	 6.3040
 4.3070	 6.2480
 4.3100	 6.4460
 4.3140	 6.5620
 4.3180	 6.5020
 4.3210	 6.4670
 4.3250	 6.3890
 4.3280	 6.3120
 4.3320	 6.3000
 4.3360	 6.3030
 4.3390	 6.3320
 4.3430	 6.4110
 4.3470	 6.3520
 4.3500	 6.2190
 4.3540	 6.2500
 4.3570	 6.3560
 4.3610	 6.3680
 4.3650	 6.3760
 4.3680	 6.2720
 4.3720	 6.2200
 4.3760	 6.2670
 4.3800	 6.3170
 4.3830	 6.3020
 4.3870	 6.3250
 4.3910	 6.3010
 4.3940	 6.3220
 4.3980	 6.3400
 4.4020	 6.3340
 4.4060	 6.4050
 4.4090	 6.3810
 4.4130	 6.2460
 4.4170	 6.2510
 4.4210	 6.2670
 4.4240	 6.3490
 4.4280	 6.3330
 4.4320	 6.2540
 4.4360	 6.2260
 4.4400	 6.2790
 4.4430	 6.3160
 4.4470	 6.2950
 4.4510	 6.2690
 4.4550	 6.2580
 4.4590	 6.2170
 4.4620	 6.2880
 4.4660	 6.2920
 4.4700	 6.2410
 4.4740	 6.2790
 4.4780	 6.2950
 4.4820	 6.2830
 4.4860	 6.3080
 4.4900	 6.3170
 4.4930	 6.2610
 4.4970	 6.2600
 4.5010	 6.2750
 4.5050	 6.2290
 4.5090	 6.2140
 4.5130	 6.2700
 4.5170	 6.3640
 4.5210	 6.2670
 4.5250	 6.1510
 4.5290	 6.2050
 4.5330	 6.2830
 4.5370	 6.2200
 4.5410	 6.1320
 4.5450	 6.0470
 4.5490	 6.0320
 4.5530	 6.1230
 4.5570	 6.2230
 4.5610	 6.1510
 4.5650	 6.0350
 4.5690	 6.0670
 4.5730	 6.0740
 4.5770	 5.9790
 4.5810	 6.0080
 4.5850	 6.1250
 4.5890	 6.0720
 4.5930	 5.9920
 4.5970	 6.0840
 4.6010	 6.1690
 4.6050	 6.1920
 4.6090	 6.2370
 4.6130	 6.1630
 4.6170	 6.1100
 4.6220	 6.0750
 4.6260	 6.0920
 4.6300	 6.1470
 4.6340	 6.0850
 4.6380	 5.9570
 4.6420	 5.7960
 4.6460	 5.9520
 4.6510	 6.1180
 4.6550	 6.1490
 4.6590	 6.0480
 4.6630	 5.9830
 4.6670	 6.0160
 4.6720	 6.1030
 4.6760	 6.1070
 4.6800	 6.0920
 4.6840	 5.9930
 4.6880	 5.9730
 4.6930	 6.0000
 4.6970	 6.0040
 4.7010	 6.0260
 4.7050	 6.0860
 4.7100	 6.0970
 4.7140	 6.0870
 4.7180	 6.0390
 4.7230	 6.0210
 4.7270	 5.9590
 4.7310	 5.9450
 4.7360	 5.9720
 4.7400	 6.0060
 4.7440	 5.9380
 4.7490	 5.8970
 4.7530	 5.9520
 4.7570	 6.0260
 4.7620	 6.0040
 4.7660	 5.9950
 4.7700	 5.8360
 4.7750	 5.8300
 4.7790	 5.9100
 4.7840	 6.2210
 4.7880	 6.3920
 4.7920	 5.7930
 4.7970	 5.6280
 4.8010	 5.8610
 4.8060	 5.9080
 4.8100	 5.8620
 4.8150	 5.9910
 4.8190	 5.9990
 4.8240	 5.9080
 4.8280	 5.8850
 4.8330	 5.8790
 4.8370	 6.0190
 4.8420	 6.0980
 4.8460	 5.9910
 4.8510	 5.9010
 4.8550	 5.9140
 4.8600	 5.9340
 4.8640	 5.9320
 4.8690	 5.9050
 4.8730	 5.9450
 4.8780	 5.9710
 4.8830	 5.9320
 4.8870	 5.9270
 4.8920	 5.9430
 4.8960	 5.9290
 4.9010	 5.8850
 4.9060	 5.8580
 4.9100	 5.9680
 4.9150	 5.9800
 4.9200	 5.9650
 4.9240	 5.9390
 4.9290	 5.9670
 4.9340	 6.0700
 4.9380	 6.0710
 4.9430	 5.9640
 4.9480	 5.9700
 4.9530	 5.9840
 4.9570	 6.0000
 4.9620	 5.9460
 4.9670	 5.9330
 4.9720	 6.0610
 4.9760	 6.1220
 4.9810	 5.9400
 4.9860	 5.8280
 4.9910	 5.8810
 4.9960	 6.0430
 5.0000	 6.1120
 5.0050	 6.1000
 5.0100	 6.0040
 5.0150	 5.8970
 5.0200	 5.8130
 5.0250	 5.9010
 5.0290	 5.9460
 5.0340	 5.9590
 5.0390	 5.9890
 5.0440	 6.0760
 5.0490	 6.0700
 5.0540	 5.9820
 5.0590	 5.9250
 5.0640	 6.0130
 5.0690	 6.0010
 5.0740	 5.9960
 5.0790	 6.0170
 5.0840	 6.0420
 5.0890	 6.0750
 5.0940	 6.0590
 5.0990	 6.0120
 5.1040	 6.0370
 5.1090	 5.9590
 5.1140	 5.9360
 5.1190	 5.9650
 5.1240	 5.9860
 5.1290	 5.9300
 5.1340	 6.0060
 5.1390	 6.0740
 5.1440	 6.0530
 5.1490	 5.9730
 5.1540	 5.9260
 5.1600	 5.9630
 5.1650	 6.0100
 5.1700	 6.0050
 5.1750	 5.9830
 5.1800	 5.9170
 5.1850	 5.8850
 5.1910	 5.9010
 5.1960	 5.9560
 5.2010	 5.9470
 5.2060	 5.9860
 5.2110	 5.9020
 5.2170	 5.9010
 5.2220	 5.9510
 5.2270	 6.0160
 5.2320	 5.9910
 5.2380	 5.9390
 5.2430	 5.9490
 5.2480	 6.0250
 5.2540	 5.9660
 5.2590	 5.9160
 5.2640	 5.9230
 5.2700	 6.0060
 5.2750	 6.0110
 5.2800	 5.9780
 5.2860	 5.8370
 5.2910	 5.8270
 5.2970	 5.7820
 5.3020	 5.8780
 5.3070	 5.8600
 5.3130	 5.8320
 5.3180	 5.8840
 5.3240	 5.9380
 5.3290	 5.8600
 5.3350	 5.8250
 5.3400	 5.7740
 5.3460	 5.7440
 5.3510	 5.7250
 5.3570	 5.7660
 5.3620	 5.7650
 5.3680	 5.7610
 5.3730	 5.7310
 5.3790	 5.8050
 5.3850	 5.7660
 5.3900	 5.7360
 5.3960	 5.7010
 5.4010	 5.7500
 5.4070	 5.7290
 5.4130	 5.6600
 5.4180	 5.5930
 5.4240	 5.6490
 5.4300	 5.7450
 5.4350	 5.7690
 5.4410	 5.7290
 5.4470	 5.6710
 5.4530	 5.5670
 5.4580	 5.6030
 5.4640	 5.5560
 5.4700	 5.5350
 5.4760	 5.4610
 5.4810	 5.5190
 5.4870	 5.4640
 5.4930	 5.4590
 5.4990	 5.4720
 5.5050	 5.4960
 5.5110	 5.3940
 5.5160	 5.2960
 5.5220	 5.2390
 5.5280	 5.2560
 5.5340	 5.2720
 5.5400	 5.2240
 5.5460	 5.1590
 5.5520	 5.1990
 5.5580	 5.0670
 5.5640	 4.9730
 5.5700	 4.9050
 5.5760	 4.9380
 5.5820	 4.9200
 5.5880	 4.9880
 5.5940	 5.0250
 5.6000	 4.9730
 5.6060	 4.8650
 5.6120	 4.8750
 5.6180	 4.8160
 5.6240	 4.8150
 5.6300	 4.8240
 5.6360	 4.7860
 5.6420	 4.7020
 5.6490	 4.6900
 5.6550	 4.6410
 5.6610	 4.6510
 5.6670	 4.6320
 5.6730	 4.5910
 5.6800	 4.4600
 5.6860	 4.4510
 5.6920	 4.4790
 5.6980	 4.5010
 5.7040	 4.3090
 5.7110	 4.3050
 5.7170	 4.4300
 5.7230	 4.3810
 5.7300	 4.2890
 5.7360	 4.4740
 5.7420	 4.5520
 5.7490	 4.5790
 5.7550	 4.5280
 5.7620	 4.5720
 5.7680	 4.6490
 5.7740	 4.7990
 5.7810	 4.8490
 5.7870	 4.9580
 5.7940	 4.9140
 5.8000	 4.8930
 5.8070	 4.8880
 5.8130	 5.0420
 5.8200	 5.0620
 5.8260	 5.0610
 5.8330	 5.1190
 5.8390	 5.2290
 5.8460	 5.1540
 5.8530	 5.1380
 5.8590	 5.2300
 5.8660	 5.3750
 5.8720	 5.3400
 5.8790	 5.4020
 5.8860	 5.3900
 5.8920	 5.3820
 5.8990	 5.2680
 5.9060	 5.1670
 5.9130	 5.1910
 5.9190	 5.3350
 5.9260	 5.3470
 5.9330	 5.4390
 5.9400	 5.5090
 5.9470	 5.5660
 5.9530	 5.5440
 5.9600	 5.5380
 5.9670	 5.4530
 5.9740	 5.3750
 5.9810	 5.3120
 5.9880	 5.4310
 5.9950	 5.4250
 6.0020	 5.3490
 6.0090	 5.3040
 6.0160	 5.4320
 6.0230	 5.2970
 6.0300	 5.2320
 6.0370	 5.2520
 6.0440	 5.4090
 6.0510	 5.4140
 6.0580	 5.3820
 6.0650	 5.3800
 6.0720	 5.4340
 6.0790	 5.4040
 6.0860	 5.4880
 6.0930	 5.3970
 6.1000	 5.2960
 6.1080	 5.1780
 6.1150	 5.3010
 6.1220	 5.3690
 6.1290	 5.3650
 6.1370	 5.2860
 6.1440	 5.4370
 6.1510	 5.4780
 6.1580	 5.4510
 6.1660	 5.2920
 6.1730	 5.4050
 6.1800	 5.4290
 6.1880	 5.4300
 6.1950	 5.3530
 6.2030	 5.5170
 6.2100	 5.5490
 6.2170	 5.4990
 6.2250	 5.3960
 6.2320	 5.4560
 6.2400	 5.4180
 6.2470	 5.4160
 6.2550	 5.4530
 6.2630	 5.4730
 6.2700	 5.3810
 6.2780	 5.5040
 6.2850	 5.5500
 6.2930	 5.5410
 6.3010	 5.3990
 6.3080	 5.4630
 6.3160	 5.4800
 6.3240	 5.5150
 6.3310	 5.5210
 6.3390	 5.6060
 6.3470	 5.5160
 6.3550	 5.3770
 6.3620	 5.3060
 6.3700	 5.4390
 6.3780	 5.3870
 6.3860	 5.4640
 6.3940	 5.5280
 6.4020	 5.5210
 6.4100	 5.5360
 6.4180	 5.5680
 6.4260	 5.4090
 6.4330	 5.3890
 6.4410	 5.3960
 6.4490	 5.4760
 6.4580	 5.3820
 6.4660	 5.4000
 6.4740	 5.3550
 6.4820	 5.3850
 6.4900	 5.3220
 6.4980	 5.3020
 6.5060	 5.2560
 6.5140	 5.4250
 6.5230	 5.3630
 6.5310	 5.3220
 6.5390	 5.2670
 6.5470	 5.2460
 6.5550	 5.1520
 6.5640	 5.1550
 6.5720	 5.0970
 6.5800	 5.1180
 6.5890	 5.0440
 6.5970	 5.1480
 6.6060	 5.1180
 6.6140	 5.1100
 6.6220	 4.9550
 6.6310	 4.9660
 6.6390	 4.9190
 6.6480	 5.0290
 6.6560	 4.9660
 6.6650	 4.9090
 6.6740	 4.8690
 6.6820	 4.9210
 6.6910	 4.8490
 6.6990	 4.9000
 6.7080	 4.8330
 6.7170	 4.8990
 6.7260	 4.8500
 6.7340	 4.7910
 6.7430	 4.6970
 6.7520	 4.7310
 6.7610	 4.6700
 6.7690	 4.6840
 6.7780	 4.6120
 6.7870	 4.6720
 6.7960	 4.6700
 6.8050	 4.7910
 6.8140	 4.7130
 6.8230	 4.7930
 6.8320	 4.7330
 6.8410	 4.8320
 6.8500	 4.8860
 6.8590	 4.9670
 6.8680	 4.9080
 6.8770	 4.9220
 6.8860	 4.9640
 6.8950	 5.0310
 6.9050	 4.9930
 6.9140	 4.9850
 6.9230	 4.9490
 6.9320	 5.0380
 6.9420	 5.0390
 6.9510	 5.0970
 6.9600	 4.9240
 6.9700	 4.9260
 6.9790	 5.0270
 6.9880	 5.2200
 6.9980	 5.1760
 7.0070	 5.2280
 7.0170	 5.1810
 7.0260	 5.2240
 7.0360	 5.2040
 7.0450	 5.1770
 7.0550	 5.0140
 7.0650	 5.1520
 7.0740	 5.1810
 7.0840	 5.2280
 7.0940	 5.1860
 7.1030	 5.2350
 7.1130	 5.1060
 7.1230	 4.9950
 7.1330	 4.9130
 7.1420	 5.0260
 7.1520	 4.9660
 7.1620	 4.8950
 7.1720	 4.7620
 7.1820	 4.8890
 7.1920	 4.9440
 7.2020	 4.9440
 7.2120	 4.9000
 7.2220	 4.9880
 7.2320	 5.0200
 7.2420	 5.0330
 7.2520	 4.8410
 7.2620	 4.9470
 7.2730	 4.9890
 7.2830	 5.0360
 7.2930	 4.9170
 7.3030	 4.9190
 7.3140	 4.8980
 7.3240	 5.0580
 7.3340	 5.0990
 7.3450	 5.2560
 7.3550	 5.2030
 7.3660	 5.1460
 7.3760	 5.0540
 7.3870	 5.1130
 7.3970	 5.1300
 7.4080	 5.1760
 7.4180	 5.0520
 7.4290	 5.1010
 7.4400	 4.9840
 7.4500	 5.1520
 7.4610	 5.2840
 7.4720	 5.2860
 7.4830	 5.1780
 7.4930	 5.1130
 7.5040	 4.9150
 7.5150	 5.0690
 7.5260	 5.0560
 7.5370	 5.1120
 7.5480	 4.9990
 7.5590	 5.0100
 7.5700	 4.9560
 7.5810	 5.0330
 7.5920	 4.9860
 7.6030	 5.0630
 7.6140	 4.9370
 7.6260	 4.8930
 7.6370	 4.7960
 7.6480	 4.9110
 7.6590	 4.8780
 7.6710	 4.9240
 7.6820	 4.9470
 7.6930	 5.0380
 7.7050	 4.9040
 7.7160	 5.0140
 7.7280	 5.0180
 7.7390	 4.9970
 7.7510	 4.9040
 7.7630	 5.0730
 7.7740	 4.9180
 7.7860	 4.8990
 7.7980	 4.8920
 7.8090	 4.9730
 7.8210	 4.9600
 7.8330	 5.0470
 7.8450	 4.9880
 7.8570	 5.0370
 7.8690	 4.9370
 7.8810	 4.9690
 7.8930	 4.9090
 7.9050	 5.0590
 7.9170	 5.0270
 7.9290	 5.1390
 7.9410	 5.0170
 7.9530	 5.0460
 7.9650	 4.9040
 7.9780	 4.9950
 7.9900	 5.0750
 8.0020	 5.1330
 8.0150	 5.0800
 8.0270	 5.1740
 8.0390	 5.0220
 8.0520	 5.0090
 8.0640	 5.0910
 8.0770	 5.4060
 8.0900	 5.2550
 8.1020	 5.2400
 8.1150	 5.1520
 8.1280	 5.3520
 8.1400	 5.2430
 8.1530	 5.3400
 8.1660	 5.2650
 8.1790	 5.4860
 8.1920	 5.3840
 8.2050	 5.3920
 8.2180	 5.2420
 8.2310	 5.3300
 8.2440	 5.2880
 8.2570	 5.4340
 8.2700	 5.3240
 8.2830	 5.3810
 8.2970	 5.3510
 8.3100	 5.4310
 8.3230	 5.2710
 8.3370	 5.4300
 8.3500	 5.4720
 8.3640	 5.5490
 8.3770	 5.4130
 8.3910	 5.5240
 8.4040	 5.4010
 8.4180	 5.4920
 8.4320	 5.2850
 8.4450	 5.3980
 8.4590	 5.4660
 8.4730	 5.6570
 8.4870	 5.4310
 8.5010	 5.3890
 8.5150	 5.4970
 8.5290	 5.7350
 8.5430	 5.5800
 8.5570	 5.6070
 8.5710	 5.5290
 8.5850	 5.7720
 8.5990	 5.7030
 8.6140	 5.6320
 8.6280	 5.6230
 8.6420	 5.8950
 8.6570	 5.6720
 8.6710	 5.6140
 8.6860	 5.5920
 8.7000	 5.8000
 8.7150	 5.8880
 8.7300	 6.0620
 8.7440	 6.0420
 8.7590	 6.2230
 8.7740	 6.0220
 8.7890	 5.9860
 8.8040	 5.9960
 8.8190	 6.1910
 8.8340	 5.9900
 8.8490	 6.1110
 8.8640	 6.0130
 8.8790	 6.0610
 8.8940	 5.8670
 8.9100	 6.1120
 8.9250	 6.1320
 8.9400	 6.1650
 8.9560	 6.1020
 8.9710	 6.2360
 8.9870	 5.9490
 9.0020	 5.8920
 9.0180	 5.8990
 9.0340	 6.1620
 9.0500	 6.0610
 9.0650	 6.1600
 9.0810	 6.0840
 9.0970	 6.1350
 9.1130	 6.0290
 9.1290	 6.0870
 9.1450	 5.9280
 9.1610	 6.1140
 9.1780	 6.1600
 9.1940	 6.4550
 9.2100	 6.2670
 9.2270	 6.2280
 9.2430	 5.9550
 9.2600	 5.9270
 9.2760	 5.8670
 9.2930	 6.3820
 9.3090	 6.4350
 9.3260	 6.3780
 9.3430	 6.2230
 9.3600	 6.3530
 9.3770	 6.0170
 9.3940	 5.9660
 9.4110	 5.9810
 9.4280	 6.2320
 9.4450	 6.1050
 9.4620	 6.3310
 9.4800	 6.1840
 9.4970	 6.1910
 9.5140	 6.0520
 9.5320	 6.3320
 9.5500	 6.1430
 9.5670	 6.1680
 9.5850	 6.2100
 9.6030	 6.5300
 9.6200	 6.4510
 9.6380	 6.4950
 9.6560	 6.1260
 9.6740	 6.1780
 9.6920	 6.2570
 9.7100	 6.5110
 9.7290	 6.4180
 9.7470	 6.5280
 9.7650	 6.3190
 9.7840	 6.3880
 9.8020	 6.2880
 9.8210	 6.4680
 9.8390	 6.2980
 9.8580	 6.3220
 9.8770	 6.0760
 9.8960	 6.2080
 9.9150	 6.1300
 9.9340	 6.4370
 9.9530	 6.3320
 9.9720	 6.3420
 9.9910	 6.0570
10.0100	 6.0440
10.0300	 6.0530
10.0490	 6.2500
10.0690	 6.0550
10.0880	 6.1220
10.1080	 5.9870
10.1280	 6.3510
10.1480	 6.1640
10.1670	 6.0890
10.1870	 6.0150
10.2070	 6.1100
10.2280	 5.9350
10.2480	 6.2430
10.2680	 6.2000
10.2890	 6.2220
10.3090	 5.9870
10.3300	 6.1740
10.3500	 6.0220
10.3710	 6.1100
10.3920	 5.9270
10.4120	 6.0660
10.4330	 5.9630
10.4540	 6.0670
10.4760	 5.9860
10.4970	 6.1090
10.5180	 6.0520
10.5390	 6.2350
10.5610	 5.9170
10.5820	 5.9060
10.6040	 5.5910
10.6260	 5.7530
10.6480	 5.7290
10.6700	 6.0160
10.6920	 5.8680
10.7140	 5.9420
10.7360	 5.8620
10.7580	 5.9800
10.7800	 5.6230
10.8030	 5.6780
10.8250	 5.6150
10.8480	 5.8630
10.8710	 5.7330
10.8940	 5.8690
10.9170	 5.9040
10.9400	 6.1350
10.9630	 5.9690
10.9860	 6.1350
11.0090	 5.8700
11.0330	 6.0380
11.0560	 5.9620
11.0800	 5.8270
11.1040	 5.6230
11.1270	 6.0210
11.1510	 6.0070
11.1750	 6.1140
11.2000	 5.9710
11.2240	 6.0700
11.2480	 5.8960
11.2730	 5.8310
11.2970	 5.5190
11.3220	 6.0710
11.3470	 5.8830
11.3720	 5.8620
11.3970	 5.5890
11.4220	 5.7820
11.4470	 5.7270
11.4720	 6.0810
11.4980	 5.7370
11.5230	 5.7650
11.5490	 5.7220
11.5750	 5.8230
11.6000	 5.4930
11.6260	 5.6620
11.6530	 5.6970
11.6790	 6.0180
11.7050	 5.8330
11.7320	 5.8160
11.7580	 5.4550
11.7850	 5.6130
11.8120	 5.5470
11.8390	 5.7110
11.8660	 5.3360
11.8930	 5.5600
11.9200	 5.5910
11.9480	 5.8050
11.9760	 5.5690
12.0030	 5.6960
12.0310	 5.5260
12.0590	 5.7780
12.0870	 5.5220
12.1150	 5.6560
12.1440	 5.4910
12.1720	 5.7220
12.2010	 5.6360
12.2300	 5.8650
12.2590	 5.7060
12.2880	 5.8000
12.3170	 5.5720
12.3460	 5.8900
12.3760	 5.6620
12.4050	 5.8180
12.4350	 5.5880
12.4650	 5.9970
12.4950	 5.9500
12.5250	 6.1270
12.5550	 5.7050
12.5860	 5.7740
12.6170	 5.7150
12.6470	 6.0300
12.6780	 5.5140
12.7090	 5.7070
12.7410	 5.7430
12.7720	 6.0800
12.8030	 5.8390
12.8350	 5.8840
12.8670	 5.6300
12.8990	 5.8210
12.9310	 5.4780
12.9640	 5.5860
12.9960	 5.4500
13.0290	 5.6710
13.0610	 5.3080
13.0940	 5.6630
13.1280	 5.5200
13.1610	 5.8390
13.1940	 5.5250
13.2280	 5.5360
13.2620	 5.4050
13.2960	 5.7910
13.3300	 5.4220
13.3640	 5.7830
13.3990	 5.6530
13.4340	 5.9920
13.4690	 5.8370
13.5040	 6.1130
13.5390	 5.8260
13.5740	 5.8830
13.6100	 5.3460
13.6460	 5.6170
13.6820	 5.5070
13.7180	 5.7830
13.7540	 5.2070
13.7910	 5.5510
13.8280	 5.4110
13.8650	 6.0340
13.9020	 5.8330
13.9390	 5.9600
13.9770	 5.4440
14.0150	 5.7920
14.0530	 5.4560
14.0910	 5.5520
14.1290	 5.2020
14.1680	 6.0140
14.2070	 6.0090
14.2460	 6.0980
14.2850	 5.6720
14.3240	 5.8790
14.3640	 5.0750
14.4040	 5.5730
14.4440	 5.4570
14.4840	 5.8370
14.5250	 5.5750
14.5660	 6.2760
14.6070	 5.3670
14.6480	 5.7620
14.6900	 5.7100
14.7310	 6.2330
14.7730	 5.6170
14.8150	 5.5890
14.8580	 4.9350
14.9010	 5.5250
14.9440	 5.0770
14.9870	 6.2440
15.0300	 5.2850
15.0740	 5.6040
15.1180	 4.8550
15.1620	 5.4080
15.2060	 5.4820
15.2510	 6.3400
15.2960	 5.2250
15.3410	 5.3670
15.3870	 4.8570
