Name: Arctostaphylos glandulosa 1
Type: vegetation
Class: Shrub
Genus: Arctostaphylos
Species: glandulosa
Sample No.: VH242
Owner: UCSB
Wavelength Range: TIR
Origin: 37.0432; -119.304; WGS84
Collection Date: 11/2/2013
Description: Samples were collected as part of the HyspIRI Airborne Campaign. 48 individual plants were sampled in three times in 2013 - spring  summer  and fall. The name of the sample includes a 1  2  or 3 which references a different individual of the species. Samples were taken to JPL and processed within 48 hours of collection. The same leaves were processed in the Nicolet and then measured using the ASD.
Measurement: Hemispherical reflectance
First Column: X
Second Column: Y
X Units: Wavelength (micrometers)
Y Units: Reflectance (percentage)
First X Value: 2.501
Last X Value: 15.387
Number of X Values: 1737
Additional Information: vegetation.shrub.arctostaphylos.glandulosa.tir.vh242.ucsb.nicolet.ancillary.txt

 2.5010	 7.9690
 2.5030	 7.9850
 2.5040	 7.9660
 2.5050	 8.0280
 2.5060	 8.0790
 2.5070	 7.9260
 2.5090	 7.9510
 2.5100	 7.9410
 2.5110	 7.9200
 2.5120	 8.0030
 2.5140	 7.9680
 2.5150	 8.0570
 2.5160	 7.9990
 2.5170	 7.7580
 2.5180	 7.6350
 2.5200	 7.7250
 2.5210	 7.9330
 2.5220	 8.0230
 2.5230	 7.8790
 2.5250	 7.8210
 2.5260	 7.8700
 2.5270	 7.8380
 2.5280	 7.8790
 2.5290	 7.9410
 2.5310	 7.9670
 2.5320	 7.8340
 2.5330	 7.7480
 2.5340	 7.8780
 2.5360	 7.8980
 2.5370	 7.6690
 2.5380	 7.6150
 2.5390	 7.6050
 2.5410	 7.6650
 2.5420	 7.7270
 2.5430	 7.9760
 2.5440	 8.0530
 2.5460	 7.9300
 2.5470	 7.8820
 2.5480	 7.9060
 2.5490	 7.9600
 2.5510	 7.8210
 2.5520	 7.7400
 2.5530	 7.8350
 2.5540	 7.8190
 2.5560	 7.8990
 2.5570	 7.9140
 2.5580	 7.9580
 2.5590	 7.9580
 2.5610	 7.8720
 2.5620	 7.8700
 2.5630	 7.8870
 2.5640	 7.9710
 2.5660	 8.1360
 2.5670	 7.9610
 2.5680	 7.7860
 2.5700	 7.6910
 2.5710	 7.7360
 2.5720	 7.8840
 2.5730	 7.9530
 2.5750	 7.7990
 2.5760	 7.7910
 2.5770	 7.6890
 2.5790	 7.7150
 2.5800	 7.7340
 2.5810	 7.6900
 2.5820	 7.8040
 2.5840	 7.8790
 2.5850	 7.8560
 2.5860	 7.7850
 2.5880	 7.6930
 2.5890	 7.8320
 2.5900	 7.8920
 2.5910	 7.8110
 2.5930	 7.7700
 2.5940	 7.7690
 2.5950	 7.6070
 2.5970	 7.7310
 2.5980	 7.7800
 2.5990	 7.7120
 2.6000	 7.6740
 2.6020	 7.5590
 2.6030	 7.4670
 2.6040	 7.4630
 2.6060	 7.4060
 2.6070	 7.5340
 2.6080	 7.6080
 2.6100	 7.4640
 2.6110	 7.3530
 2.6120	 7.4210
 2.6140	 7.2800
 2.6150	 7.2620
 2.6160	 7.3320
 2.6180	 7.3320
 2.6190	 7.2930
 2.6200	 7.2390
 2.6220	 7.1390
 2.6230	 7.2030
 2.6240	 7.1840
 2.6260	 7.1200
 2.6270	 6.9380
 2.6280	 6.7980
 2.6300	 6.7860
 2.6310	 6.8430
 2.6320	 6.9450
 2.6340	 6.8700
 2.6350	 6.7990
 2.6360	 6.9000
 2.6380	 6.8960
 2.6390	 6.9640
 2.6400	 6.8670
 2.6420	 6.6920
 2.6430	 6.6000
 2.6440	 6.6010
 2.6460	 6.5870
 2.6470	 6.5360
 2.6480	 6.4020
 2.6500	 6.2890
 2.6510	 6.2810
 2.6520	 6.3960
 2.6540	 6.2730
 2.6550	 6.0720
 2.6560	 5.9640
 2.6580	 6.0220
 2.6590	 6.0020
 2.6610	 6.0100
 2.6620	 6.0060
 2.6630	 5.9620
 2.6650	 6.0240
 2.6660	 6.0200
 2.6670	 5.9090
 2.6690	 5.8610
 2.6700	 5.8040
 2.6720	 5.7570
 2.6730	 5.7410
 2.6740	 5.6950
 2.6760	 5.7830
 2.6770	 5.7150
 2.6780	 5.4900
 2.6800	 5.4610
 2.6810	 5.5330
 2.6830	 5.6260
 2.6840	 5.5630
 2.6850	 5.5230
 2.6870	 5.3880
 2.6880	 5.3000
 2.6900	 5.3170
 2.6910	 5.3510
 2.6920	 5.2430
 2.6940	 5.1930
 2.6950	 5.1280
 2.6970	 4.9070
 2.6980	 4.6280
 2.6990	 4.7930
 2.7010	 4.8070
 2.7020	 4.8390
 2.7040	 5.0400
 2.7050	 4.9220
 2.7060	 4.7320
 2.7080	 4.7330
 2.7090	 4.7530
 2.7110	 4.6950
 2.7120	 4.6940
 2.7130	 4.7400
 2.7150	 4.6440
 2.7160	 4.7270
 2.7180	 4.8540
 2.7190	 4.7810
 2.7210	 4.7430
 2.7220	 4.8250
 2.7230	 4.7240
 2.7250	 4.5870
 2.7260	 4.5390
 2.7280	 4.6280
 2.7290	 4.5220
 2.7310	 4.5250
 2.7320	 4.5540
 2.7330	 4.6020
 2.7350	 4.6450
 2.7360	 4.7800
 2.7380	 4.8090
 2.7390	 4.6430
 2.7410	 4.5020
 2.7420	 4.5060
 2.7440	 4.4650
 2.7450	 4.3800
 2.7470	 4.3780
 2.7480	 4.5860
 2.7490	 4.7520
 2.7510	 4.9480
 2.7520	 4.7240
 2.7540	 4.6510
 2.7550	 4.6440
 2.7570	 4.5810
 2.7580	 4.6170
 2.7600	 4.6170
 2.7610	 4.3870
 2.7630	 4.4450
 2.7640	 4.4090
 2.7660	 4.3520
 2.7670	 4.3490
 2.7680	 4.3920
 2.7700	 4.2700
 2.7710	 4.3010
 2.7730	 4.5680
 2.7740	 4.5730
 2.7760	 4.4870
 2.7770	 4.6880
 2.7790	 4.7110
 2.7800	 4.6120
 2.7820	 4.6150
 2.7830	 4.7430
 2.7850	 4.7890
 2.7860	 4.7200
 2.7880	 4.6250
 2.7890	 4.5680
 2.7910	 4.4470
 2.7920	 4.4220
 2.7940	 4.4940
 2.7950	 4.6560
 2.7970	 4.7650
 2.7980	 4.5900
 2.8000	 4.3720
 2.8010	 4.2930
 2.8030	 4.4540
 2.8040	 4.5580
 2.8060	 4.6080
 2.8070	 4.7310
 2.8090	 4.7340
 2.8110	 4.6600
 2.8120	 4.5710
 2.8140	 4.6230
 2.8150	 4.4280
 2.8170	 4.5180
 2.8180	 4.5670
 2.8200	 4.5330
 2.8210	 4.4880
 2.8230	 4.6630
 2.8240	 4.6810
 2.8260	 4.4500
 2.8270	 4.3110
 2.8290	 4.4820
 2.8300	 4.3710
 2.8320	 4.4080
 2.8340	 4.5200
 2.8350	 4.4740
 2.8370	 4.3480
 2.8380	 4.2610
 2.8400	 4.2890
 2.8410	 4.3690
 2.8430	 4.5320
 2.8440	 4.5680
 2.8460	 4.4180
 2.8480	 4.5150
 2.8490	 4.5790
 2.8510	 4.5700
 2.8520	 4.5120
 2.8540	 4.5130
 2.8550	 4.3740
 2.8570	 4.2880
 2.8590	 4.3870
 2.8600	 4.6510
 2.8620	 4.6500
 2.8630	 4.5780
 2.8650	 4.5810
 2.8660	 4.7060
 2.8680	 4.7440
 2.8700	 4.6730
 2.8710	 4.5140
 2.8730	 4.7450
 2.8740	 4.9420
 2.8760	 4.9780
 2.8780	 4.6410
 2.8790	 4.5890
 2.8810	 4.6840
 2.8820	 4.7410
 2.8840	 4.7150
 2.8860	 4.8020
 2.8870	 4.7430
 2.8890	 4.7280
 2.8900	 4.5960
 2.8920	 4.4150
 2.8940	 4.4760
 2.8950	 4.6620
 2.8970	 4.5360
 2.8980	 4.6220
 2.9000	 4.6680
 2.9020	 4.4900
 2.9030	 4.4390
 2.9050	 4.6430
 2.9070	 4.8090
 2.9080	 4.8000
 2.9100	 4.7540
 2.9120	 4.5990
 2.9130	 4.2260
 2.9150	 4.2470
 2.9160	 4.4090
 2.9180	 4.5620
 2.9200	 4.5680
 2.9210	 4.6980
 2.9230	 4.8240
 2.9250	 4.8290
 2.9260	 4.7120
 2.9280	 4.6300
 2.9300	 4.6280
 2.9310	 4.6110
 2.9330	 4.6320
 2.9350	 4.7120
 2.9360	 4.6670
 2.9380	 4.7250
 2.9400	 4.6840
 2.9410	 4.4310
 2.9430	 4.3510
 2.9450	 4.8320
 2.9460	 4.9360
 2.9480	 4.7900
 2.9500	 4.6300
 2.9510	 4.6680
 2.9530	 4.4280
 2.9550	 4.3480
 2.9560	 4.4960
 2.9580	 4.4850
 2.9600	 4.0390
 2.9610	 4.3840
 2.9630	 3.5150
 2.9650	 3.1290
 2.9660	 3.9640
 2.9680	 4.8940
 2.9700	 4.6110
 2.9720	 3.8410
 2.9730	 3.9970
 2.9750	 3.7690
 2.9770	 3.3250
 2.9780	 3.8230
 2.9800	 4.5640
 2.9820	 4.5800
 2.9840	 4.0260
 2.9850	 4.7540
 2.9870	 5.3940
 2.9890	 5.5480
 2.9900	 5.2940
 2.9920	 5.3020
 2.9940	 6.5020
 2.9960	 7.2370
 2.9970	 6.4590
 2.9990	 5.5900
 3.0010	 5.5100
 3.0030	 5.0670
 3.0040	 4.5540
 3.0060	 4.1830
 3.0080	 4.0830
 3.0100	 4.3400
 3.0110	 4.4190
 3.0130	 4.4190
 3.0150	 4.4710
 3.0170	 4.7570
 3.0180	 4.5860
 3.0200	 4.4640
 3.0220	 4.5250
 3.0240	 4.4800
 3.0250	 4.5060
 3.0270	 4.4390
 3.0290	 4.1830
 3.0310	 4.0580
 3.0320	 3.9250
 3.0340	 3.7010
 3.0360	 3.4310
 3.0380	 4.3160
 3.0400	 4.9830
 3.0410	 4.7310
 3.0430	 3.9790
 3.0450	 4.8740
 3.0470	 4.6090
 3.0480	 3.4060
 3.0500	 3.4440
 3.0520	 3.3140
 3.0540	 3.5780
 3.0560	 4.1380
 3.0570	 4.8450
 3.0590	 5.5030
 3.0610	 5.9900
 3.0630	 5.1170
 3.0650	 4.2120
 3.0660	 3.8820
 3.0680	 4.1970
 3.0700	 4.4410
 3.0720	 4.2130
 3.0740	 4.4580
 3.0760	 4.9260
 3.0770	 4.8580
 3.0790	 4.6840
 3.0810	 4.5120
 3.0830	 4.5760
 3.0850	 4.6170
 3.0870	 4.4780
 3.0880	 4.4280
 3.0900	 4.3950
 3.0920	 4.5690
 3.0940	 4.7560
 3.0960	 4.7360
 3.0980	 4.5570
 3.0990	 4.4140
 3.1010	 4.3980
 3.1030	 4.6840
 3.1050	 4.6820
 3.1070	 4.5150
 3.1090	 4.3890
 3.1110	 4.5180
 3.1120	 4.6200
 3.1140	 4.7660
 3.1160	 4.6030
 3.1180	 4.4520
 3.1200	 4.5360
 3.1220	 4.5050
 3.1240	 4.4710
 3.1260	 4.6180
 3.1270	 4.4840
 3.1290	 4.2820
 3.1310	 4.2870
 3.1330	 4.6530
 3.1350	 4.4920
 3.1370	 4.0080
 3.1390	 3.5250
 3.1410	 4.0520
 3.1430	 4.4430
 3.1450	 4.1190
 3.1460	 4.1840
 3.1480	 4.4990
 3.1500	 4.3100
 3.1520	 4.2150
 3.1540	 4.5580
 3.1560	 4.4800
 3.1580	 4.5180
 3.1600	 4.5310
 3.1620	 3.9620
 3.1640	 4.0990
 3.1660	 4.5530
 3.1680	 4.5540
 3.1700	 4.5700
 3.1710	 5.5750
 3.1730	 5.5190
 3.1750	 4.9070
 3.1770	 4.3660
 3.1790	 3.6320
 3.1810	 4.1820
 3.1830	 4.7270
 3.1850	 4.8050
 3.1870	 4.7790
 3.1890	 4.6500
 3.1910	 4.4500
 3.1930	 4.5660
 3.1950	 4.6160
 3.1970	 4.7350
 3.1990	 4.5470
 3.2010	 4.3830
 3.2030	 4.4680
 3.2050	 4.4350
 3.2070	 4.3210
 3.2090	 4.4750
 3.2110	 4.5280
 3.2130	 4.4240
 3.2150	 4.4310
 3.2170	 4.3910
 3.2190	 4.3540
 3.2210	 4.4080
 3.2230	 4.3050
 3.2250	 4.3330
 3.2270	 4.3660
 3.2290	 4.4770
 3.2310	 4.6410
 3.2330	 4.5110
 3.2350	 4.4140
 3.2370	 4.4950
 3.2390	 4.5240
 3.2410	 4.4450
 3.2430	 4.0000
 3.2450	 4.0530
 3.2470	 4.1940
 3.2490	 4.3480
 3.2510	 4.4550
 3.2530	 4.3570
 3.2550	 4.3870
 3.2570	 4.4030
 3.2590	 4.3930
 3.2610	 4.4650
 3.2630	 4.3990
 3.2650	 4.3480
 3.2670	 4.3670
 3.2690	 4.4510
 3.2720	 4.5330
 3.2740	 4.4670
 3.2760	 4.4220
 3.2780	 4.4700
 3.2800	 4.4940
 3.2820	 4.5390
 3.2840	 4.5180
 3.2860	 4.4650
 3.2880	 4.4760
 3.2900	 4.5030
 3.2920	 4.5170
 3.2940	 4.6230
 3.2960	 4.6380
 3.2990	 4.5490
 3.3010	 4.4480
 3.3030	 4.2740
 3.3050	 4.3150
 3.3070	 4.2470
 3.3090	 4.1950
 3.3110	 4.0140
 3.3130	 3.9300
 3.3150	 3.9300
 3.3180	 4.0530
 3.3200	 4.1360
 3.3220	 4.2270
 3.3240	 4.2650
 3.3260	 4.2130
 3.3280	 4.1590
 3.3300	 4.1910
 3.3330	 4.3030
 3.3350	 4.2420
 3.3370	 4.2420
 3.3390	 4.2800
 3.3410	 4.2240
 3.3430	 4.1010
 3.3450	 4.1580
 3.3480	 4.2950
 3.3500	 4.1200
 3.3520	 3.8280
 3.3540	 3.8720
 3.3560	 4.0740
 3.3580	 4.0650
 3.3610	 4.0380
 3.3630	 4.0170
 3.3650	 3.9820
 3.3670	 3.9690
 3.3690	 3.9410
 3.3720	 3.9470
 3.3740	 3.9220
 3.3760	 3.9220
 3.3780	 3.9550
 3.3800	 3.9480
 3.3830	 3.9180
 3.3850	 3.9340
 3.3870	 3.8670
 3.3890	 3.7440
 3.3910	 3.6140
 3.3940	 3.5570
 3.3960	 3.5230
 3.3980	 3.6070
 3.4000	 3.8460
 3.4020	 3.8780
 3.4050	 3.7960
 3.4070	 3.8390
 3.4090	 4.0030
 3.4110	 4.2030
 3.4140	 4.2850
 3.4160	 4.4020
 3.4180	 4.5550
 3.4200	 4.7160
 3.4230	 4.9730
 3.4250	 5.4210
 3.4270	 6.0980
 3.4290	 6.5860
 3.4320	 6.3390
 3.4340	 5.9380
 3.4360	 5.7150
 3.4390	 5.5670
 3.4410	 5.5190
 3.4430	 5.3700
 3.4450	 5.4280
 3.4480	 5.3640
 3.4500	 5.2100
 3.4520	 5.0770
 3.4550	 4.9070
 3.4570	 4.8420
 3.4590	 4.8860
 3.4620	 5.0080
 3.4640	 5.0210
 3.4660	 5.0780
 3.4680	 5.1030
 3.4710	 5.1010
 3.4730	 5.0140
 3.4750	 4.9180
 3.4780	 4.8370
 3.4800	 4.6820
 3.4820	 4.6420
 3.4850	 4.6390
 3.4870	 4.6540
 3.4890	 4.5970
 3.4920	 4.5030
 3.4940	 4.4230
 3.4970	 4.3260
 3.4990	 4.3820
 3.5010	 4.6050
 3.5040	 4.8090
 3.5060	 5.2950
 3.5080	 6.0510
 3.5110	 6.5730
 3.5130	 6.4650
 3.5160	 6.1390
 3.5180	 5.9970
 3.5200	 5.8130
 3.5230	 5.7450
 3.5250	 5.6320
 3.5270	 5.4230
 3.5300	 5.3980
 3.5320	 5.3540
 3.5350	 5.1700
 3.5370	 5.1520
 3.5400	 5.2630
 3.5420	 5.3660
 3.5440	 5.2830
 3.5470	 5.1600
 3.5490	 5.1680
 3.5520	 5.1860
 3.5540	 5.1710
 3.5570	 5.1800
 3.5590	 5.2330
 3.5610	 5.1710
 3.5640	 5.1030
 3.5660	 5.0800
 3.5690	 5.0450
 3.5710	 5.0140
 3.5740	 5.0670
 3.5760	 5.1230
 3.5790	 4.9810
 3.5810	 4.9750
 3.5840	 5.1110
 3.5860	 5.1780
 3.5890	 5.1280
 3.5910	 5.0450
 3.5930	 4.9950
 3.5960	 5.0070
 3.5980	 5.0330
 3.6010	 5.0520
 3.6030	 4.9810
 3.6060	 4.9220
 3.6080	 4.8380
 3.6110	 4.8330
 3.6140	 4.8910
 3.6160	 4.9820
 3.6190	 5.0420
 3.6210	 5.0340
 3.6240	 5.0500
 3.6260	 4.9700
 3.6290	 4.9910
 3.6310	 5.0610
 3.6340	 5.0130
 3.6360	 5.0640
 3.6390	 4.9910
 3.6410	 5.0000
 3.6440	 5.0360
 3.6470	 5.0730
 3.6490	 5.1050
 3.6520	 5.0610
 3.6540	 5.0490
 3.6570	 5.0620
 3.6590	 5.0210
 3.6620	 5.0210
 3.6650	 5.0380
 3.6670	 5.0510
 3.6700	 5.0830
 3.6720	 5.1600
 3.6750	 5.1000
 3.6780	 5.1260
 3.6800	 5.1190
 3.6830	 5.1090
 3.6850	 5.1630
 3.6880	 5.1990
 3.6910	 5.0820
 3.6930	 5.0400
 3.6960	 5.0480
 3.6990	 5.0220
 3.7010	 4.9730
 3.7040	 4.9550
 3.7060	 4.9960
 3.7090	 4.9840
 3.7120	 5.0780
 3.7140	 5.2260
 3.7170	 5.1670
 3.7200	 5.0200
 3.7220	 4.9810
 3.7250	 5.0550
 3.7280	 5.0880
 3.7300	 5.2520
 3.7330	 5.2860
 3.7360	 5.1610
 3.7390	 5.1200
 3.7410	 5.1690
 3.7440	 5.2220
 3.7470	 5.2400
 3.7490	 5.2380
 3.7520	 5.2010
 3.7550	 5.2210
 3.7580	 5.2250
 3.7600	 5.2580
 3.7630	 5.2880
 3.7660	 5.2960
 3.7680	 5.3000
 3.7710	 5.2290
 3.7740	 5.1550
 3.7770	 5.1180
 3.7790	 5.1680
 3.7820	 5.1220
 3.7850	 5.2690
 3.7880	 5.4100
 3.7900	 5.3120
 3.7930	 5.2620
 3.7960	 5.3160
 3.7990	 5.4170
 3.8020	 5.4490
 3.8040	 5.3970
 3.8070	 5.3610
 3.8100	 5.3230
 3.8130	 5.2730
 3.8160	 5.3070
 3.8180	 5.3130
 3.8210	 5.4130
 3.8240	 5.5400
 3.8270	 5.5000
 3.8300	 5.3680
 3.8330	 5.3630
 3.8350	 5.3870
 3.8380	 5.4070
 3.8410	 5.4730
 3.8440	 5.5630
 3.8470	 5.5790
 3.8500	 5.4680
 3.8520	 5.4310
 3.8550	 5.4200
 3.8580	 5.4440
 3.8610	 5.4750
 3.8640	 5.4660
 3.8670	 5.4660
 3.8700	 5.5030
 3.8730	 5.5420
 3.8750	 5.6180
 3.8780	 5.6100
 3.8810	 5.6030
 3.8840	 5.5520
 3.8870	 5.4710
 3.8900	 5.4520
 3.8930	 5.4870
 3.8960	 5.5500
 3.8990	 5.5960
 3.9020	 5.6390
 3.9050	 5.6310
 3.9080	 5.5460
 3.9110	 5.5960
 3.9140	 5.5500
 3.9160	 5.5180
 3.9190	 5.4790
 3.9220	 5.4820
 3.9250	 5.5080
 3.9280	 5.5300
 3.9310	 5.5650
 3.9340	 5.5450
 3.9370	 5.4700
 3.9400	 5.4570
 3.9430	 5.5480
 3.9460	 5.5800
 3.9490	 5.5410
 3.9520	 5.5380
 3.9550	 5.5730
 3.9580	 5.5600
 3.9610	 5.5190
 3.9640	 5.5210
 3.9670	 5.5940
 3.9700	 5.6330
 3.9730	 5.6270
 3.9770	 5.6170
 3.9800	 5.5700
 3.9830	 5.6100
 3.9860	 5.6290
 3.9890	 5.5590
 3.9920	 5.4240
 3.9950	 5.4210
 3.9980	 5.5080
 4.0010	 5.5660
 4.0040	 5.5980
 4.0070	 5.5810
 4.0100	 5.5890
 4.0130	 5.5890
 4.0170	 5.5660
 4.0200	 5.6290
 4.0230	 5.6980
 4.0260	 5.6760
 4.0290	 5.5670
 4.0320	 5.5910
 4.0350	 5.6150
 4.0380	 5.6170
 4.0420	 5.5960
 4.0450	 5.5510
 4.0480	 5.5290
 4.0510	 5.6390
 4.0540	 5.7090
 4.0570	 5.6460
 4.0610	 5.5610
 4.0640	 5.5340
 4.0670	 5.6290
 4.0700	 5.6360
 4.0730	 5.5130
 4.0770	 5.4740
 4.0800	 5.5040
 4.0830	 5.5600
 4.0860	 5.5870
 4.0890	 5.6870
 4.0930	 5.7190
 4.0960	 5.5780
 4.0990	 5.5050
 4.1020	 5.6240
 4.1060	 5.7360
 4.1090	 5.7630
 4.1120	 5.6080
 4.1150	 5.5060
 4.1190	 5.6200
 4.1220	 5.6540
 4.1250	 5.5190
 4.1280	 5.4390
 4.1320	 5.4580
 4.1350	 5.5440
 4.1380	 5.5600
 4.1420	 5.5330
 4.1450	 5.5270
 4.1480	 5.5870
 4.1520	 5.5200
 4.1550	 5.4690
 4.1580	 5.4440
 4.1620	 5.4350
 4.1650	 5.4660
 4.1680	 5.5700
 4.1720	 5.6000
 4.1750	 5.5490
 4.1780	 5.5300
 4.1820	 5.4420
 4.1850	 5.4410
 4.1890	 5.4940
 4.1920	 5.4450
 4.1950	 5.4040
 4.1990	 5.3610
 4.2020	 5.4400
 4.2060	 5.4500
 4.2090	 5.4030
 4.2120	 5.3090
 4.2160	 5.2320
 4.2190	 5.0230
 4.2230	 5.0230
 4.2260	 5.0040
 4.2300	 4.8030
 4.2330	 5.0270
 4.2360	 5.1950
 4.2400	 4.9030
 4.2430	 4.9600
 4.2470	 4.8620
 4.2500	 4.9570
 4.2540	 4.8920
 4.2570	 4.8880
 4.2610	 4.8710
 4.2640	 4.8730
 4.2680	 5.0020
 4.2710	 5.0090
 4.2750	 4.8620
 4.2780	 5.1090
 4.2820	 5.1250
 4.2850	 4.9860
 4.2890	 4.8280
 4.2930	 4.6620
 4.2960	 4.7270
 4.3000	 4.7780
 4.3030	 4.5750
 4.3070	 4.7090
 4.3100	 4.9950
 4.3140	 5.1380
 4.3180	 5.1170
 4.3210	 5.0500
 4.3250	 5.0780
 4.3280	 5.1180
 4.3320	 5.1070
 4.3360	 5.0940
 4.3390	 5.0980
 4.3430	 5.1300
 4.3470	 5.0720
 4.3500	 5.1000
 4.3540	 5.1220
 4.3570	 5.1450
 4.3610	 5.1290
 4.3650	 5.1240
 4.3680	 5.1070
 4.3720	 5.1210
 4.3760	 5.0630
 4.3800	 5.0750
 4.3830	 5.0410
 4.3870	 5.1310
 4.3910	 5.2420
 4.3940	 5.2520
 4.3980	 5.1880
 4.4020	 5.1640
 4.4060	 5.0320
 4.4090	 4.9250
 4.4130	 4.9650
 4.4170	 4.9660
 4.4210	 5.0150
 4.4240	 5.0830
 4.4280	 5.1030
 4.4320	 5.1280
 4.4360	 5.0090
 4.4400	 5.0210
 4.4430	 5.0950
 4.4470	 5.0610
 4.4510	 5.0220
 4.4550	 5.1310
 4.4590	 5.0210
 4.4620	 4.9280
 4.4660	 4.9790
 4.4700	 5.0440
 4.4740	 4.9860
 4.4780	 4.9350
 4.4820	 4.8950
 4.4860	 4.9370
 4.4900	 4.9950
 4.4930	 5.0020
 4.4970	 4.9990
 4.5010	 4.9800
 4.5050	 4.8660
 4.5090	 4.9490
 4.5130	 5.0040
 4.5170	 4.9920
 4.5210	 4.9810
 4.5250	 4.9990
 4.5290	 4.9590
 4.5330	 4.9160
 4.5370	 4.8930
 4.5410	 4.9110
 4.5450	 4.8370
 4.5490	 4.8370
 4.5530	 4.8640
 4.5570	 4.9380
 4.5610	 4.8920
 4.5650	 4.8770
 4.5690	 4.8560
 4.5730	 4.8620
 4.5770	 4.8630
 4.5810	 4.8790
 4.5850	 4.8650
 4.5890	 4.8540
 4.5930	 4.8840
 4.5970	 4.9540
 4.6010	 4.8920
 4.6050	 4.8180
 4.6090	 4.7970
 4.6130	 4.8160
 4.6170	 4.8520
 4.6220	 4.9450
 4.6260	 4.9360
 4.6300	 5.0360
 4.6340	 4.9920
 4.6380	 4.8930
 4.6420	 4.8290
 4.6460	 4.8540
 4.6510	 4.8550
 4.6550	 4.8380
 4.6590	 4.7880
 4.6630	 4.8210
 4.6670	 4.7910
 4.6720	 4.7720
 4.6760	 4.8040
 4.6800	 4.8960
 4.6840	 4.8960
 4.6880	 4.8940
 4.6930	 4.8770
 4.6970	 4.8790
 4.7010	 4.8330
 4.7050	 4.7890
 4.7100	 4.7520
 4.7140	 4.7890
 4.7180	 4.8070
 4.7230	 4.8520
 4.7270	 4.7630
 4.7310	 4.6710
 4.7360	 4.6660
 4.7400	 4.7780
 4.7440	 4.7920
 4.7490	 4.7710
 4.7530	 4.7240
 4.7570	 4.7890
 4.7620	 4.8010
 4.7660	 4.8000
 4.7700	 4.6980
 4.7750	 4.7150
 4.7790	 4.8810
 4.7840	 5.0670
 4.7880	 5.0130
 4.7920	 4.8700
 4.7970	 4.9520
 4.8010	 5.0560
 4.8060	 4.9560
 4.8100	 4.8580
 4.8150	 4.8460
 4.8190	 4.9030
 4.8240	 4.8200
 4.8280	 4.8240
 4.8330	 4.8160
 4.8370	 4.7760
 4.8420	 4.7870
 4.8460	 4.8200
 4.8510	 4.8530
 4.8550	 4.9140
 4.8600	 4.8940
 4.8640	 4.8560
 4.8690	 4.7710
 4.8730	 4.8530
 4.8780	 4.8880
 4.8830	 4.9440
 4.8870	 4.9420
 4.8920	 4.9160
 4.8960	 4.9030
 4.9010	 4.9370
 4.9060	 4.9330
 4.9100	 4.8990
 4.9150	 4.9240
 4.9200	 4.9820
 4.9240	 4.9400
 4.9290	 4.9760
 4.9340	 4.9620
 4.9380	 5.0180
 4.9430	 5.0480
 4.9480	 5.0330
 4.9530	 4.8710
 4.9570	 4.8470
 4.9620	 4.9030
 4.9670	 4.9420
 4.9720	 4.9600
 4.9760	 5.0590
 4.9810	 5.1300
 4.9860	 5.1860
 4.9910	 5.1190
 4.9960	 5.0180
 5.0000	 4.9060
 5.0050	 4.9650
 5.0100	 5.0180
 5.0150	 5.0740
 5.0200	 5.0020
 5.0250	 5.0590
 5.0290	 5.0850
 5.0340	 5.0800
 5.0390	 5.0570
 5.0440	 5.0600
 5.0490	 4.9730
 5.0540	 4.9990
 5.0590	 5.0510
 5.0640	 5.0660
 5.0690	 5.0260
 5.0740	 5.0410
 5.0790	 5.0230
 5.0840	 5.1050
 5.0890	 5.0850
 5.0940	 5.0800
 5.0990	 5.1180
 5.1040	 5.1100
 5.1090	 5.0290
 5.1140	 5.0300
 5.1190	 5.0030
 5.1240	 5.0900
 5.1290	 5.1150
 5.1340	 5.1740
 5.1390	 5.1970
 5.1440	 5.1830
 5.1490	 5.0590
 5.1540	 4.9790
 5.1600	 4.9300
 5.1650	 5.0800
 5.1700	 5.0860
 5.1750	 5.1400
 5.1800	 5.2200
 5.1850	 5.2440
 5.1910	 5.1480
 5.1960	 5.2180
 5.2010	 5.2170
 5.2060	 5.2220
 5.2110	 5.1740
 5.2170	 5.1800
 5.2220	 5.1920
 5.2270	 5.1900
 5.2320	 5.1110
 5.2380	 5.1620
 5.2430	 5.1780
 5.2480	 5.1300
 5.2540	 5.0370
 5.2590	 5.1000
 5.2640	 5.1490
 5.2700	 5.1040
 5.2750	 5.0980
 5.2800	 5.1510
 5.2860	 5.0770
 5.2910	 5.0600
 5.2970	 5.1060
 5.3020	 5.2000
 5.3070	 5.1290
 5.3130	 5.0940
 5.3180	 5.0430
 5.3240	 5.0760
 5.3290	 5.1560
 5.3350	 5.2010
 5.3400	 5.1990
 5.3460	 5.2240
 5.3510	 5.1480
 5.3570	 5.2300
 5.3620	 5.1820
 5.3680	 5.1260
 5.3730	 5.1060
 5.3790	 5.1360
 5.3850	 5.0400
 5.3900	 5.0820
 5.3960	 4.9420
 5.4010	 4.8950
 5.4070	 4.9780
 5.4130	 5.0810
 5.4180	 5.0280
 5.4240	 4.9740
 5.4300	 4.9580
 5.4350	 4.9960
 5.4410	 4.9520
 5.4470	 5.0380
 5.4530	 5.0430
 5.4580	 5.0250
 5.4640	 4.9560
 5.4700	 4.9810
 5.4760	 4.9080
 5.4810	 4.8630
 5.4870	 4.9060
 5.4930	 5.0450
 5.4990	 4.9910
 5.5050	 4.8830
 5.5110	 4.7820
 5.5160	 4.7380
 5.5220	 4.7380
 5.5280	 4.9120
 5.5340	 4.8460
 5.5400	 4.7330
 5.5460	 4.6510
 5.5520	 4.6750
 5.5580	 4.6150
 5.5640	 4.6610
 5.5700	 4.6300
 5.5760	 4.6510
 5.5820	 4.6130
 5.5880	 4.5520
 5.5940	 4.4370
 5.6000	 4.4310
 5.6060	 4.4180
 5.6120	 4.5480
 5.6180	 4.4750
 5.6240	 4.4250
 5.6300	 4.4170
 5.6360	 4.4280
 5.6420	 4.2280
 5.6490	 4.2140
 5.6550	 4.1960
 5.6610	 4.2680
 5.6670	 4.1040
 5.6730	 4.0130
 5.6800	 4.0200
 5.6860	 4.0470
 5.6920	 3.8410
 5.6980	 3.7020
 5.7040	 3.6290
 5.7110	 3.6280
 5.7170	 3.4960
 5.7230	 3.3780
 5.7300	 3.3120
 5.7360	 3.4090
 5.7420	 3.5320
 5.7490	 3.9620
 5.7550	 4.4830
 5.7620	 5.0330
 5.7680	 5.4650
 5.7740	 5.8460
 5.7810	 6.0590
 5.7870	 6.1890
 5.7940	 6.0230
 5.8000	 5.9030
 5.8070	 5.7290
 5.8130	 5.5310
 5.8200	 5.3420
 5.8260	 5.3900
 5.8330	 5.4150
 5.8390	 5.4640
 5.8460	 5.4100
 5.8530	 5.4410
 5.8590	 5.4400
 5.8660	 5.4590
 5.8720	 5.4250
 5.8790	 5.3460
 5.8860	 5.3480
 5.8920	 5.5690
 5.8990	 5.4790
 5.9060	 5.4600
 5.9130	 5.4730
 5.9190	 5.5470
 5.9260	 5.5180
 5.9330	 5.6020
 5.9400	 5.5560
 5.9470	 5.6410
 5.9530	 5.6850
 5.9600	 5.8450
 5.9670	 5.7780
 5.9740	 5.7910
 5.9810	 5.7870
 5.9880	 5.7000
 5.9950	 5.6770
 6.0020	 5.8020
 6.0090	 5.7830
 6.0160	 5.7480
 6.0230	 5.6840
 6.0300	 5.8150
 6.0370	 5.7700
 6.0440	 5.7650
 6.0510	 5.6520
 6.0580	 5.7310
 6.0650	 5.7630
 6.0720	 5.7220
 6.0790	 5.7130
 6.0860	 5.9680
 6.0930	 6.1060
 6.1000	 6.2760
 6.1080	 6.1840
 6.1150	 6.2800
 6.1220	 6.4530
 6.1290	 6.7510
 6.1370	 6.8520
 6.1440	 6.9550
 6.1510	 7.0600
 6.1580	 7.2390
 6.1660	 7.1570
 6.1730	 7.1010
 6.1800	 6.8940
 6.1880	 6.6620
 6.1950	 6.5180
 6.2030	 6.5030
 6.2100	 6.3070
 6.2170	 6.1770
 6.2250	 6.1130
 6.2320	 6.1410
 6.2400	 6.0140
 6.2470	 5.9450
 6.2550	 5.8940
 6.2630	 5.8730
 6.2700	 5.6560
 6.2780	 5.6560
 6.2850	 5.5560
 6.2930	 5.4630
 6.3010	 5.3760
 6.3080	 5.4870
 6.3160	 5.4510
 6.3240	 5.4070
 6.3310	 5.3220
 6.3390	 5.2680
 6.3470	 5.1080
 6.3550	 5.3890
 6.3620	 5.4210
 6.3700	 5.2510
 6.3780	 5.1830
 6.3860	 5.2720
 6.3940	 5.1470
 6.4020	 5.1680
 6.4100	 4.9300
 6.4180	 4.9260
 6.4260	 5.0290
 6.4330	 5.1640
 6.4410	 5.1200
 6.4490	 5.1930
 6.4580	 5.1810
 6.4660	 5.2400
 6.4740	 5.0680
 6.4820	 4.9410
 6.4900	 4.8130
 6.4980	 4.9480
 6.5060	 5.0130
 6.5140	 5.0210
 6.5230	 4.8910
 6.5310	 4.8610
 6.5390	 4.8370
 6.5470	 4.8930
 6.5550	 4.8500
 6.5640	 4.8760
 6.5720	 4.6990
 6.5800	 4.7230
 6.5890	 4.6490
 6.5970	 4.7440
 6.6060	 4.8190
 6.6140	 4.7700
 6.6220	 4.6670
 6.6310	 4.5900
 6.6390	 4.5170
 6.6480	 4.6440
 6.6560	 4.7000
 6.6650	 4.7680
 6.6740	 4.5310
 6.6820	 4.5010
 6.6910	 4.5490
 6.6990	 4.6860
 6.7080	 4.6650
 6.7170	 4.6210
 6.7260	 4.4660
 6.7340	 4.5300
 6.7430	 4.5000
 6.7520	 4.4990
 6.7610	 4.4700
 6.7690	 4.4550
 6.7780	 4.4640
 6.7870	 4.6640
 6.7960	 4.7750
 6.8050	 4.8950
 6.8140	 4.7850
 6.8230	 4.8730
 6.8320	 5.1640
 6.8410	 5.4610
 6.8500	 5.1730
 6.8590	 5.0330
 6.8680	 4.9790
 6.8770	 5.1140
 6.8860	 5.0510
 6.8950	 5.1350
 6.9050	 5.0250
 6.9140	 4.9490
 6.9230	 4.8390
 6.9320	 4.9460
 6.9420	 4.7790
 6.9510	 4.7510
 6.9600	 4.7380
 6.9700	 4.7500
 6.9790	 4.6070
 6.9880	 4.7220
 6.9980	 4.7410
 7.0070	 4.8210
 7.0170	 4.7090
 7.0260	 4.7420
 7.0360	 4.6650
 7.0450	 4.7000
 7.0550	 4.7350
 7.0650	 4.8450
 7.0740	 4.8560
 7.0840	 4.9820
 7.0940	 4.8580
 7.1030	 4.9280
 7.1130	 4.8560
 7.1230	 4.9530
 7.1330	 4.9400
 7.1420	 5.0030
 7.1520	 4.9050
 7.1620	 4.8920
 7.1720	 4.8090
 7.1820	 4.8520
 7.1920	 4.8360
 7.2020	 4.9600
 7.2120	 4.8910
 7.2220	 4.9110
 7.2320	 4.8160
 7.2420	 4.8450
 7.2520	 4.7810
 7.2620	 4.9090
 7.2730	 4.8480
 7.2830	 4.8350
 7.2930	 4.8160
 7.3030	 4.8360
 7.3140	 4.7590
 7.3240	 4.8440
 7.3340	 4.7660
 7.3450	 4.8710
 7.3550	 4.7520
 7.3660	 4.7890
 7.3760	 4.7630
 7.3870	 4.6930
 7.3970	 4.5820
 7.4080	 4.7880
 7.4180	 4.8080
 7.4290	 4.8620
 7.4400	 4.7130
 7.4500	 4.8040
 7.4610	 4.8460
 7.4720	 4.9600
 7.4830	 4.8910
 7.4930	 4.9740
 7.5040	 5.0660
 7.5150	 5.2770
 7.5260	 5.2140
 7.5370	 5.2250
 7.5480	 5.2370
 7.5590	 5.4970
 7.5700	 5.5690
 7.5810	 5.7180
 7.5920	 5.7610
 7.6030	 5.7500
 7.6140	 5.3850
 7.6260	 5.1890
 7.6370	 4.9870
 7.6480	 4.9020
 7.6590	 4.7490
 7.6710	 4.8280
 7.6820	 4.7450
 7.6930	 4.7790
 7.7050	 4.6990
 7.7160	 4.7770
 7.7280	 4.7490
 7.7390	 4.7310
 7.7510	 4.5020
 7.7630	 4.3850
 7.7740	 4.2980
 7.7860	 4.4680
 7.7980	 4.4060
 7.8090	 4.4530
 7.8210	 4.4020
 7.8330	 4.5400
 7.8450	 4.5010
 7.8570	 4.5420
 7.8690	 4.3970
 7.8810	 4.4440
 7.8930	 4.4870
 7.9050	 4.6680
 7.9170	 4.5230
 7.9290	 4.5220
 7.9410	 4.4940
 7.9530	 4.5510
 7.9650	 4.3910
 7.9780	 4.4460
 7.9900	 4.2820
 8.0020	 4.3840
 8.0150	 4.5320
 8.0270	 4.7480
 8.0390	 4.6130
 8.0520	 4.5130
 8.0640	 4.3380
 8.0770	 4.3340
 8.0900	 4.2330
 8.1020	 4.3130
 8.1150	 4.2250
 8.1280	 4.3410
 8.1400	 4.2830
 8.1530	 4.4200
 8.1660	 4.4110
 8.1790	 4.5150
 8.1920	 4.4430
 8.2050	 4.5150
 8.2180	 4.3480
 8.2310	 4.5070
 8.2440	 4.4670
 8.2570	 4.4500
 8.2700	 4.2550
 8.2830	 4.4740
 8.2970	 4.5370
 8.3100	 4.6460
 8.3230	 4.5010
 8.3370	 4.5700
 8.3500	 4.4100
 8.3640	 4.4860
 8.3770	 4.3510
 8.3910	 4.3460
 8.4040	 4.2610
 8.4180	 4.4050
 8.4320	 4.2940
 8.4450	 4.4720
 8.4590	 4.4830
 8.4730	 4.6360
 8.4870	 4.4510
 8.5010	 4.5270
 8.5150	 4.5270
 8.5290	 4.5480
 8.5430	 4.4850
 8.5570	 4.6450
 8.5710	 4.5160
 8.5850	 4.7160
 8.5990	 4.7490
 8.6140	 4.8190
 8.6280	 4.5150
 8.6420	 4.6350
 8.6570	 4.6010
 8.6710	 4.8160
 8.6860	 4.6010
 8.7000	 4.6050
 8.7150	 4.6390
 8.7300	 4.8300
 8.7440	 4.6380
 8.7590	 4.7100
 8.7740	 4.6130
 8.7890	 4.9100
 8.8040	 4.9580
 8.8190	 5.0860
 8.8340	 4.8170
 8.8490	 4.9190
 8.8640	 4.8660
 8.8790	 4.9200
 8.8940	 4.6360
 8.9100	 4.7170
 8.9250	 4.6380
 8.9400	 4.8120
 8.9560	 4.6770
 8.9710	 4.7700
 8.9870	 4.4630
 9.0020	 4.7160
 9.0180	 4.6880
 9.0340	 4.8230
 9.0500	 4.7890
 9.0650	 4.9520
 9.0810	 4.6910
 9.0970	 4.6870
 9.1130	 4.5180
 9.1290	 4.7660
 9.1450	 4.8900
 9.1610	 4.9620
 9.1780	 4.6060
 9.1940	 4.7970
 9.2100	 4.8210
 9.2270	 4.8740
 9.2430	 4.7170
 9.2600	 4.8300
 9.2760	 4.6610
 9.2930	 4.8710
 9.3090	 4.9180
 9.3260	 5.1100
 9.3430	 4.7780
 9.3600	 4.9190
 9.3770	 4.8260
 9.3940	 4.7280
 9.4110	 4.5170
 9.4280	 4.8190
 9.4450	 4.8020
 9.4620	 5.0360
 9.4800	 4.9680
 9.4970	 5.0700
 9.5140	 4.9730
 9.5320	 5.2500
 9.5500	 5.0210
 9.5670	 5.1360
 9.5850	 5.1010
 9.6030	 5.3590
 9.6200	 5.2310
 9.6380	 5.1740
 9.6560	 4.9190
 9.6740	 5.0980
 9.6920	 4.9830
 9.7100	 5.0090
 9.7290	 4.7960
 9.7470	 5.0030
 9.7650	 4.8700
 9.7840	 5.0570
 9.8020	 4.9160
 9.8210	 5.0420
 9.8390	 4.8320
 9.8580	 5.0870
 9.8770	 5.1650
 9.8960	 5.1950
 9.9150	 4.8240
 9.9340	 4.8840
 9.9530	 4.7660
 9.9720	 4.9990
 9.9910	 4.9590
10.0100	 5.1180
10.0300	 5.0110
10.0490	 5.1840
10.0690	 5.0020
10.0880	 5.0350
10.1080	 4.8830
10.1280	 5.0670
10.1480	 4.8780
10.1670	 4.9290
10.1870	 4.7340
10.2070	 4.9950
10.2280	 4.9500
10.2480	 4.9100
10.2680	 4.7800
10.2890	 4.9750
10.3090	 4.9040
10.3300	 5.1050
10.3500	 5.0100
10.3710	 5.0550
10.3920	 4.8790
10.4120	 4.8320
10.4330	 4.5790
10.4540	 4.9760
10.4760	 5.0160
10.4970	 5.1590
10.5180	 5.0400
10.5390	 5.1330
10.5610	 4.9700
10.5820	 5.0270
10.6040	 4.8690
10.6260	 5.0630
10.6480	 4.9210
10.6700	 5.0780
10.6920	 4.9390
10.7140	 4.9390
10.7360	 4.7730
10.7580	 4.8810
10.7800	 4.7030
10.8030	 4.9040
10.8250	 4.8610
10.8480	 5.0080
10.8710	 4.8350
10.8940	 4.9890
10.9170	 4.9440
10.9400	 5.3530
10.9630	 5.2140
10.9860	 5.0790
11.0090	 4.7300
11.0330	 4.9830
11.0560	 5.0040
11.0800	 5.1340
11.1040	 4.6110
11.1270	 4.6360
11.1510	 4.6510
11.1750	 4.9190
11.2000	 4.9200
11.2240	 5.1520
11.2480	 4.8700
11.2730	 4.9540
11.2970	 4.7620
11.3220	 4.9270
11.3470	 4.7730
11.3720	 5.0690
11.3970	 4.8730
11.4220	 4.8770
11.4470	 4.5250
11.4720	 4.4700
11.4980	 4.4520
11.5230	 4.7410
11.5490	 4.4350
11.5750	 4.7430
11.6000	 4.5600
11.6260	 4.7870
11.6530	 4.7320
11.6790	 4.8990
11.7050	 4.5510
11.7320	 4.7240
11.7580	 4.7420
11.7850	 4.7980
11.8120	 4.3700
11.8390	 4.6440
11.8660	 4.5190
11.8930	 4.6700
11.9200	 4.5460
11.9480	 4.6780
11.9760	 4.3550
12.0030	 4.4200
12.0310	 4.1350
12.0590	 4.6200
12.0870	 4.4850
12.1150	 4.5490
12.1440	 4.4400
12.1720	 4.6270
12.2010	 4.3590
12.2300	 4.7970
12.2590	 5.0120
12.2880	 5.2530
12.3170	 4.6920
12.3460	 4.9650
12.3760	 4.9090
12.4050	 5.1400
12.4350	 4.8490
12.4650	 4.8910
12.4950	 4.7200
12.5250	 5.0010
12.5550	 4.8530
12.5860	 4.9360
12.6170	 4.4210
12.6470	 4.6500
12.6780	 4.7000
12.7090	 4.9750
12.7410	 4.6880
12.7720	 4.8250
12.8030	 4.4300
12.8350	 4.5940
12.8670	 4.3510
12.8990	 4.3680
12.9310	 4.0690
12.9640	 4.4830
12.9960	 4.2400
13.0290	 4.4170
13.0610	 4.0200
13.0940	 4.2530
13.1280	 4.2930
13.1610	 4.5720
13.1940	 4.3960
13.2280	 4.7280
13.2620	 4.3880
13.2960	 4.6580
13.3300	 4.4090
13.3640	 4.5250
13.3990	 4.1710
13.4340	 4.4510
13.4690	 4.0700
13.5040	 4.2650
13.5390	 4.1740
13.5740	 4.6120
13.6100	 4.4330
13.6460	 4.8270
13.6820	 4.3310
13.7180	 4.8400
13.7540	 4.5640
13.7910	 4.5770
13.8280	 4.6910
13.8650	 5.4710
13.9020	 5.1660
13.9390	 5.2120
13.9770	 4.6990
14.0150	 5.0110
14.0530	 4.4840
14.0910	 4.7610
14.1290	 4.5530
14.1680	 5.1250
14.2070	 4.5510
14.2460	 4.6590
14.2850	 4.5160
14.3240	 5.0440
14.3640	 4.4960
14.4040	 4.5830
14.4440	 4.3340
14.4840	 4.9850
14.5250	 4.5560
14.5660	 4.8640
14.6070	 4.4150
14.6480	 4.5930
14.6900	 3.8710
14.7310	 4.5030
14.7730	 3.9550
14.8150	 4.4690
14.8580	 4.3440
14.9010	 4.8120
14.9440	 4.7360
14.9870	 5.6910
15.0300	 4.2300
15.0740	 4.7120
15.1180	 3.5580
15.1620	 3.8940
15.2060	 3.8090
15.2510	 4.7510
15.2960	 3.8990
15.3410	 4.9330
15.3870	 4.4310
