Name: Ceanothus spinosus 1
Type: vegetation
Class: Shrub
Genus: Ceanothus
Species: spinosus
Sample No.: VH007
Owner: UCSB
Wavelength Range: TIR
Origin: 34.4906; -119.7908; WGS84
Collection Date: 4/1/2013
Description: Samples were collected as part of the HyspIRI Airborne Campaign. 48 individual plants were sampled in three times in 2013 - spring  summer  and fall. The name of the sample includes a 1  2  or 3 which references a different individual of the species. Samples were taken to JPL and processed within 48 hours of collection. The same leaves were processed in the Nicolet and then measured using the ASD.
Measurement: Hemispherical reflectance
First Column: X
Second Column: Y
X Units: Wavelength (micrometers)
Y Units: Reflectance (percentage)
First X Value: 2.501
Last X Value: 15.387
Number of X Values: 1737
Additional Information: vegetation.shrub.ceanothus.spinosus.tir.vh007.ucsb.nicolet.ancillary.txt

 2.5010	 7.7600
 2.5030	 7.7550
 2.5040	 7.7660
 2.5050	 7.7290
 2.5060	 7.7300
 2.5070	 7.7000
 2.5090	 7.6420
 2.5100	 7.6010
 2.5110	 7.6020
 2.5120	 7.6510
 2.5140	 7.6800
 2.5150	 7.6730
 2.5160	 7.8220
 2.5170	 7.8120
 2.5180	 7.7010
 2.5200	 7.6050
 2.5210	 7.5850
 2.5220	 7.5490
 2.5230	 7.6430
 2.5250	 7.6520
 2.5260	 7.6960
 2.5270	 7.7080
 2.5280	 7.6660
 2.5290	 7.6030
 2.5310	 7.7300
 2.5320	 7.7500
 2.5330	 7.6900
 2.5340	 7.6590
 2.5360	 7.7040
 2.5370	 7.6440
 2.5380	 7.6620
 2.5390	 7.6770
 2.5410	 7.6730
 2.5420	 7.7200
 2.5430	 7.7650
 2.5440	 7.7200
 2.5460	 7.8230
 2.5470	 7.7950
 2.5480	 7.7660
 2.5490	 7.6740
 2.5510	 7.6870
 2.5520	 7.7410
 2.5530	 7.7060
 2.5540	 7.6840
 2.5560	 7.7340
 2.5570	 7.6950
 2.5580	 7.7880
 2.5590	 7.8370
 2.5610	 7.8820
 2.5620	 7.8700
 2.5630	 7.7870
 2.5640	 7.7340
 2.5660	 7.6930
 2.5670	 7.5820
 2.5680	 7.6340
 2.5700	 7.6310
 2.5710	 7.6530
 2.5720	 7.5650
 2.5730	 7.6250
 2.5750	 7.7470
 2.5760	 7.6880
 2.5770	 7.6360
 2.5790	 7.8080
 2.5800	 7.8560
 2.5810	 7.7120
 2.5820	 7.6870
 2.5840	 7.7700
 2.5850	 7.6640
 2.5860	 7.7190
 2.5880	 7.7470
 2.5890	 7.7280
 2.5900	 7.6730
 2.5910	 7.6620
 2.5930	 7.7620
 2.5940	 7.8290
 2.5950	 7.7310
 2.5970	 7.7330
 2.5980	 7.7560
 2.5990	 7.7250
 2.6000	 7.6160
 2.6020	 7.6390
 2.6030	 7.6090
 2.6040	 7.6160
 2.6060	 7.6780
 2.6070	 7.7210
 2.6080	 7.6720
 2.6100	 7.6250
 2.6110	 7.6320
 2.6120	 7.6530
 2.6140	 7.5690
 2.6150	 7.5730
 2.6160	 7.5290
 2.6180	 7.5310
 2.6190	 7.5000
 2.6200	 7.5350
 2.6220	 7.5300
 2.6230	 7.4930
 2.6240	 7.5290
 2.6260	 7.5240
 2.6270	 7.3990
 2.6280	 7.4090
 2.6300	 7.4060
 2.6310	 7.4510
 2.6320	 7.4070
 2.6340	 7.4040
 2.6350	 7.4330
 2.6360	 7.4750
 2.6380	 7.4860
 2.6390	 7.4890
 2.6400	 7.3890
 2.6420	 7.3840
 2.6430	 7.3290
 2.6440	 7.3720
 2.6460	 7.3630
 2.6470	 7.3720
 2.6480	 7.2710
 2.6500	 7.3400
 2.6510	 7.4050
 2.6520	 7.4120
 2.6540	 7.2620
 2.6550	 7.2640
 2.6560	 7.3110
 2.6580	 7.3680
 2.6590	 7.4260
 2.6610	 7.3880
 2.6620	 7.2680
 2.6630	 7.3030
 2.6650	 7.3740
 2.6660	 7.3990
 2.6670	 7.3760
 2.6690	 7.3640
 2.6700	 7.4250
 2.6720	 7.4610
 2.6730	 7.3400
 2.6740	 7.2810
 2.6760	 7.4310
 2.6770	 7.5330
 2.6780	 7.4660
 2.6800	 7.4590
 2.6810	 7.4110
 2.6830	 7.4070
 2.6840	 7.3630
 2.6850	 7.3800
 2.6870	 7.3740
 2.6880	 7.3270
 2.6900	 7.2810
 2.6910	 7.4060
 2.6920	 7.4450
 2.6940	 7.3210
 2.6950	 7.2060
 2.6970	 7.3320
 2.6980	 7.4060
 2.6990	 7.4580
 2.7010	 7.4260
 2.7020	 7.3820
 2.7040	 7.2740
 2.7050	 7.3410
 2.7060	 7.3190
 2.7080	 7.4550
 2.7090	 7.4420
 2.7110	 7.4540
 2.7120	 7.4960
 2.7130	 7.4910
 2.7150	 7.3930
 2.7160	 7.4090
 2.7180	 7.4030
 2.7190	 7.4510
 2.7210	 7.4160
 2.7220	 7.3860
 2.7230	 7.4640
 2.7250	 7.5540
 2.7260	 7.4340
 2.7280	 7.4700
 2.7290	 7.5430
 2.7310	 7.5470
 2.7320	 7.4820
 2.7330	 7.6340
 2.7350	 7.7160
 2.7360	 7.5960
 2.7380	 7.4560
 2.7390	 7.4560
 2.7410	 7.4460
 2.7420	 7.6120
 2.7440	 7.6970
 2.7450	 7.6880
 2.7470	 7.5860
 2.7480	 7.7090
 2.7490	 7.6550
 2.7510	 7.5000
 2.7520	 7.4060
 2.7540	 7.4600
 2.7550	 7.5560
 2.7570	 7.7360
 2.7580	 7.7850
 2.7600	 7.7340
 2.7610	 7.7020
 2.7630	 7.7550
 2.7640	 7.6400
 2.7660	 7.6030
 2.7670	 7.5780
 2.7680	 7.5760
 2.7700	 7.6300
 2.7710	 7.7600
 2.7730	 7.6700
 2.7740	 7.6310
 2.7760	 7.7190
 2.7770	 7.7610
 2.7790	 7.6460
 2.7800	 7.7000
 2.7820	 7.6780
 2.7830	 7.6590
 2.7850	 7.7930
 2.7860	 7.8410
 2.7880	 7.7020
 2.7890	 7.6930
 2.7910	 7.7850
 2.7920	 7.7880
 2.7940	 7.6830
 2.7950	 7.6800
 2.7970	 7.7060
 2.7980	 7.7100
 2.8000	 7.7040
 2.8010	 7.7580
 2.8030	 7.7690
 2.8040	 7.7390
 2.8060	 7.7560
 2.8070	 7.7220
 2.8090	 7.6750
 2.8110	 7.6940
 2.8120	 7.6800
 2.8140	 7.7750
 2.8150	 7.7860
 2.8170	 7.8080
 2.8180	 7.8650
 2.8200	 7.9650
 2.8210	 7.9170
 2.8230	 7.8500
 2.8240	 7.8410
 2.8260	 7.8570
 2.8270	 7.8100
 2.8290	 7.8510
 2.8300	 7.8170
 2.8320	 7.8760
 2.8340	 7.8580
 2.8350	 7.8730
 2.8370	 7.8560
 2.8380	 7.8820
 2.8400	 7.8270
 2.8410	 7.8460
 2.8430	 7.7800
 2.8440	 7.8870
 2.8460	 7.9800
 2.8480	 7.9090
 2.8490	 7.9250
 2.8510	 8.0490
 2.8520	 8.0630
 2.8540	 8.0650
 2.8550	 7.9240
 2.8570	 7.8750
 2.8590	 7.7830
 2.8600	 7.8020
 2.8620	 7.8790
 2.8630	 8.0760
 2.8650	 8.0890
 2.8660	 8.0120
 2.8680	 7.9200
 2.8700	 7.9180
 2.8710	 7.9330
 2.8730	 8.0610
 2.8740	 8.0340
 2.8760	 7.9600
 2.8780	 7.8610
 2.8790	 7.8310
 2.8810	 7.9260
 2.8820	 8.0370
 2.8840	 8.0540
 2.8860	 8.0380
 2.8870	 7.9450
 2.8890	 7.9200
 2.8900	 7.8930
 2.8920	 8.0650
 2.8940	 8.0980
 2.8950	 8.0010
 2.8970	 7.9100
 2.8980	 7.9000
 2.9000	 7.9210
 2.9020	 7.9750
 2.9030	 7.9250
 2.9050	 8.0390
 2.9070	 8.1920
 2.9080	 8.0910
 2.9100	 8.0170
 2.9120	 8.0390
 2.9130	 7.9780
 2.9150	 7.9720
 2.9160	 7.8980
 2.9180	 7.9880
 2.9200	 8.1110
 2.9210	 8.2430
 2.9230	 8.1140
 2.9250	 8.0560
 2.9260	 7.8520
 2.9280	 7.8580
 2.9300	 8.0310
 2.9310	 8.1530
 2.9330	 7.9600
 2.9350	 7.8740
 2.9360	 7.9070
 2.9380	 7.9380
 2.9400	 7.9350
 2.9410	 7.8700
 2.9430	 7.7360
 2.9450	 7.8810
 2.9460	 7.9080
 2.9480	 7.9500
 2.9500	 7.9340
 2.9510	 7.9080
 2.9530	 8.0370
 2.9550	 8.1510
 2.9560	 7.7370
 2.9580	 7.5900
 2.9600	 7.6900
 2.9610	 7.8600
 2.9630	 7.7170
 2.9650	 7.4210
 2.9660	 7.3720
 2.9680	 7.4190
 2.9700	 7.2850
 2.9720	 7.5180
 2.9730	 7.5430
 2.9750	 7.4080
 2.9770	 7.2070
 2.9780	 7.3860
 2.9800	 7.5380
 2.9820	 7.5860
 2.9840	 7.7970
 2.9850	 7.9330
 2.9870	 7.8330
 2.9890	 8.0790
 2.9900	 8.0540
 2.9920	 7.8390
 2.9940	 7.9780
 2.9960	 7.7280
 2.9970	 7.1710
 2.9990	 7.2150
 3.0010	 7.8960
 3.0030	 8.2480
 3.0040	 8.2430
 3.0060	 7.8900
 3.0080	 7.7820
 3.0100	 7.5450
 3.0110	 7.5180
 3.0130	 7.7940
 3.0150	 7.6860
 3.0170	 7.9830
 3.0180	 7.3720
 3.0200	 6.9870
 3.0220	 7.4500
 3.0240	 7.9290
 3.0250	 7.7980
 3.0270	 7.7090
 3.0290	 7.9520
 3.0310	 8.0530
 3.0320	 7.8770
 3.0340	 7.6610
 3.0360	 7.2210
 3.0380	 7.1040
 3.0400	 7.3280
 3.0410	 7.4370
 3.0430	 7.4520
 3.0450	 7.7640
 3.0470	 7.8800
 3.0480	 7.6970
 3.0500	 7.8000
 3.0520	 7.8310
 3.0540	 7.2380
 3.0560	 6.9850
 3.0570	 7.0550
 3.0590	 7.4790
 3.0610	 7.6010
 3.0630	 7.4510
 3.0650	 7.1810
 3.0660	 7.1690
 3.0680	 7.1410
 3.0700	 7.2100
 3.0720	 7.3360
 3.0740	 7.5250
 3.0760	 7.4760
 3.0770	 7.3010
 3.0790	 7.3160
 3.0810	 7.5650
 3.0830	 7.4410
 3.0850	 7.1690
 3.0870	 7.2270
 3.0880	 7.3820
 3.0900	 7.4250
 3.0920	 7.5380
 3.0940	 7.4270
 3.0960	 7.3750
 3.0980	 7.3810
 3.0990	 7.3720
 3.1010	 7.4320
 3.1030	 7.5460
 3.1050	 7.4030
 3.1070	 7.3030
 3.1090	 7.2290
 3.1110	 7.1060
 3.1120	 7.1300
 3.1140	 7.2930
 3.1160	 7.3250
 3.1180	 7.2800
 3.1200	 7.2650
 3.1220	 7.2600
 3.1240	 7.2120
 3.1260	 7.2650
 3.1270	 7.4600
 3.1290	 7.3760
 3.1310	 7.2320
 3.1330	 7.4080
 3.1350	 7.5250
 3.1370	 7.8350
 3.1390	 7.6370
 3.1410	 6.9830
 3.1430	 6.8070
 3.1450	 7.0390
 3.1460	 7.2750
 3.1480	 7.4720
 3.1500	 7.4900
 3.1520	 7.2490
 3.1540	 7.0370
 3.1560	 7.1800
 3.1580	 7.2840
 3.1600	 7.2710
 3.1620	 7.3400
 3.1640	 7.4900
 3.1660	 7.0720
 3.1680	 6.9700
 3.1700	 7.3830
 3.1710	 7.1730
 3.1730	 7.0000
 3.1750	 7.1390
 3.1770	 6.9170
 3.1790	 6.8450
 3.1810	 7.0950
 3.1830	 7.4000
 3.1850	 7.1750
 3.1870	 6.8000
 3.1890	 6.7210
 3.1910	 6.8250
 3.1930	 6.8230
 3.1950	 6.9320
 3.1970	 6.9790
 3.1990	 7.0570
 3.2010	 7.0230
 3.2030	 7.0400
 3.2050	 7.1200
 3.2070	 7.2010
 3.2090	 7.1460
 3.2110	 7.0700
 3.2130	 6.9120
 3.2150	 6.8670
 3.2170	 6.9210
 3.2190	 6.9720
 3.2210	 6.9040
 3.2230	 6.8050
 3.2250	 6.7620
 3.2270	 6.8410
 3.2290	 6.8630
 3.2310	 6.8950
 3.2330	 6.9430
 3.2350	 7.0020
 3.2370	 6.9880
 3.2390	 6.9110
 3.2410	 6.9040
 3.2430	 6.9020
 3.2450	 6.8570
 3.2470	 6.8090
 3.2490	 6.8010
 3.2510	 6.8650
 3.2530	 6.9910
 3.2550	 7.0500
 3.2570	 6.8540
 3.2590	 6.7580
 3.2610	 6.7900
 3.2630	 6.9110
 3.2650	 6.9150
 3.2670	 6.9080
 3.2690	 6.9250
 3.2720	 6.8300
 3.2740	 6.7830
 3.2760	 6.8170
 3.2780	 6.7440
 3.2800	 6.7490
 3.2820	 6.7940
 3.2840	 6.8310
 3.2860	 6.8310
 3.2880	 6.8280
 3.2900	 6.6670
 3.2920	 6.6310
 3.2940	 6.6730
 3.2960	 6.7080
 3.2990	 6.6650
 3.3010	 6.6600
 3.3030	 6.6990
 3.3050	 6.7030
 3.3070	 6.6840
 3.3090	 6.7620
 3.3110	 6.7120
 3.3130	 6.6140
 3.3150	 6.5620
 3.3180	 6.5420
 3.3200	 6.4530
 3.3220	 6.4730
 3.3240	 6.4490
 3.3260	 6.4160
 3.3280	 6.4000
 3.3300	 6.4780
 3.3330	 6.4670
 3.3350	 6.4270
 3.3370	 6.3550
 3.3390	 6.3780
 3.3410	 6.2680
 3.3430	 6.2110
 3.3450	 6.3190
 3.3480	 6.3530
 3.3500	 6.3350
 3.3520	 6.4550
 3.3540	 6.4410
 3.3560	 6.3930
 3.3580	 6.3230
 3.3610	 6.3030
 3.3630	 6.2620
 3.3650	 6.2270
 3.3670	 6.2010
 3.3690	 6.2280
 3.3720	 6.1930
 3.3740	 6.1930
 3.3760	 6.1780
 3.3780	 6.2260
 3.3800	 6.1760
 3.3830	 6.1430
 3.3850	 6.2060
 3.3870	 6.3180
 3.3890	 6.2430
 3.3910	 6.2240
 3.3940	 6.1790
 3.3960	 6.1970
 3.3980	 6.2200
 3.4000	 6.2460
 3.4020	 6.3050
 3.4050	 6.4670
 3.4070	 6.5570
 3.4090	 6.6870
 3.4110	 6.8670
 3.4140	 7.1110
 3.4160	 7.4520
 3.4180	 7.8980
 3.4200	 8.3430
 3.4230	 9.0160
 3.4250	 9.7680
 3.4270	10.6210
 3.4290	11.0840
 3.4320	10.7810
 3.4340	10.0540
 3.4360	 9.4230
 3.4390	 8.9930
 3.4410	 8.7450
 3.4430	 8.5170
 3.4450	 8.4100
 3.4480	 8.3420
 3.4500	 8.3110
 3.4520	 8.2620
 3.4550	 8.1400
 3.4570	 8.0760
 3.4590	 8.1180
 3.4620	 8.1260
 3.4640	 8.0650
 3.4660	 7.8930
 3.4680	 7.8140
 3.4710	 7.7370
 3.4730	 7.6570
 3.4750	 7.5440
 3.4780	 7.5310
 3.4800	 7.4820
 3.4820	 7.4180
 3.4850	 7.3620
 3.4870	 7.3490
 3.4890	 7.2940
 3.4920	 7.3150
 3.4940	 7.2930
 3.4970	 7.2510
 3.4990	 7.3720
 3.5010	 7.5740
 3.5040	 7.8150
 3.5060	 8.4900
 3.5080	 9.6380
 3.5110	10.4700
 3.5130	10.2940
 3.5160	 9.6860
 3.5180	 9.2310
 3.5200	 8.8700
 3.5230	 8.5790
 3.5250	 8.3830
 3.5270	 8.2030
 3.5300	 8.2530
 3.5320	 8.2470
 3.5350	 8.2400
 3.5370	 8.1470
 3.5400	 8.0310
 3.5420	 7.9560
 3.5440	 7.9430
 3.5470	 7.9280
 3.5490	 7.9010
 3.5520	 7.7920
 3.5540	 7.7310
 3.5570	 7.7420
 3.5590	 7.7490
 3.5610	 7.7320
 3.5640	 7.6630
 3.5660	 7.6450
 3.5690	 7.7570
 3.5710	 7.7130
 3.5740	 7.6910
 3.5760	 7.6760
 3.5790	 7.6200
 3.5810	 7.5590
 3.5840	 7.5930
 3.5860	 7.6530
 3.5890	 7.6950
 3.5910	 7.6480
 3.5930	 7.5820
 3.5960	 7.6010
 3.5980	 7.6320
 3.6010	 7.5590
 3.6030	 7.6000
 3.6060	 7.5300
 3.6080	 7.4360
 3.6110	 7.4190
 3.6140	 7.5170
 3.6160	 7.5240
 3.6190	 7.5250
 3.6210	 7.5070
 3.6240	 7.5650
 3.6260	 7.5490
 3.6290	 7.4870
 3.6310	 7.5030
 3.6340	 7.5300
 3.6360	 7.4340
 3.6390	 7.3420
 3.6410	 7.3760
 3.6440	 7.4030
 3.6470	 7.3990
 3.6490	 7.3870
 3.6520	 7.3530
 3.6540	 7.3860
 3.6570	 7.3700
 3.6590	 7.3940
 3.6620	 7.3690
 3.6650	 7.3410
 3.6670	 7.3660
 3.6700	 7.4050
 3.6720	 7.4020
 3.6750	 7.4120
 3.6780	 7.4320
 3.6800	 7.4270
 3.6830	 7.3430
 3.6850	 7.3430
 3.6880	 7.3410
 3.6910	 7.3650
 3.6930	 7.3460
 3.6960	 7.3290
 3.6990	 7.3320
 3.7010	 7.3610
 3.7040	 7.3340
 3.7060	 7.3200
 3.7090	 7.3750
 3.7120	 7.3930
 3.7140	 7.3400
 3.7170	 7.3420
 3.7200	 7.3120
 3.7220	 7.2900
 3.7250	 7.2660
 3.7280	 7.3080
 3.7300	 7.3580
 3.7330	 7.3890
 3.7360	 7.3650
 3.7390	 7.3760
 3.7410	 7.3590
 3.7440	 7.3930
 3.7470	 7.3890
 3.7490	 7.3490
 3.7520	 7.3390
 3.7550	 7.3690
 3.7580	 7.3860
 3.7600	 7.4230
 3.7630	 7.3830
 3.7660	 7.3750
 3.7680	 7.3260
 3.7710	 7.3000
 3.7740	 7.2790
 3.7770	 7.2900
 3.7790	 7.2950
 3.7820	 7.2980
 3.7850	 7.3060
 3.7880	 7.2890
 3.7900	 7.2880
 3.7930	 7.3040
 3.7960	 7.3380
 3.7990	 7.3900
 3.8020	 7.3640
 3.8040	 7.3230
 3.8070	 7.3270
 3.8100	 7.3890
 3.8130	 7.3400
 3.8160	 7.3240
 3.8180	 7.3270
 3.8210	 7.2500
 3.8240	 7.2240
 3.8270	 7.2400
 3.8300	 7.2310
 3.8330	 7.2100
 3.8350	 7.2500
 3.8380	 7.2970
 3.8410	 7.3260
 3.8440	 7.3140
 3.8470	 7.2830
 3.8500	 7.2750
 3.8520	 7.2670
 3.8550	 7.2440
 3.8580	 7.2550
 3.8610	 7.2760
 3.8640	 7.2930
 3.8670	 7.3170
 3.8700	 7.3250
 3.8730	 7.3550
 3.8750	 7.3850
 3.8780	 7.4190
 3.8810	 7.3880
 3.8840	 7.3240
 3.8870	 7.3100
 3.8900	 7.2820
 3.8930	 7.3000
 3.8960	 7.2910
 3.8990	 7.3310
 3.9020	 7.4190
 3.9050	 7.4320
 3.9080	 7.3900
 3.9110	 7.3380
 3.9140	 7.3310
 3.9160	 7.3440
 3.9190	 7.3690
 3.9220	 7.3830
 3.9250	 7.3590
 3.9280	 7.3130
 3.9310	 7.2660
 3.9340	 7.2800
 3.9370	 7.3300
 3.9400	 7.2800
 3.9430	 7.3250
 3.9460	 7.3820
 3.9490	 7.3580
 3.9520	 7.3350
 3.9550	 7.3130
 3.9580	 7.2790
 3.9610	 7.2600
 3.9640	 7.2160
 3.9670	 7.2140
 3.9700	 7.2700
 3.9730	 7.3300
 3.9770	 7.3470
 3.9800	 7.3610
 3.9830	 7.3360
 3.9860	 7.2930
 3.9890	 7.2640
 3.9920	 7.3380
 3.9950	 7.3810
 3.9980	 7.3440
 4.0010	 7.2940
 4.0040	 7.2960
 4.0070	 7.3300
 4.0100	 7.3610
 4.0130	 7.3520
 4.0170	 7.3440
 4.0200	 7.3200
 4.0230	 7.3480
 4.0260	 7.4180
 4.0290	 7.4350
 4.0320	 7.3940
 4.0350	 7.3470
 4.0380	 7.3420
 4.0420	 7.3720
 4.0450	 7.3650
 4.0480	 7.3710
 4.0510	 7.3530
 4.0540	 7.3720
 4.0570	 7.3810
 4.0610	 7.3510
 4.0640	 7.3550
 4.0670	 7.4030
 4.0700	 7.4250
 4.0730	 7.3740
 4.0770	 7.3350
 4.0800	 7.3470
 4.0830	 7.3530
 4.0860	 7.2830
 4.0890	 7.2820
 4.0930	 7.2860
 4.0960	 7.2550
 4.0990	 7.3300
 4.1020	 7.4000
 4.1060	 7.3800
 4.1090	 7.3660
 4.1120	 7.3500
 4.1150	 7.2940
 4.1190	 7.2960
 4.1220	 7.3420
 4.1250	 7.3770
 4.1280	 7.3840
 4.1320	 7.3830
 4.1350	 7.3580
 4.1380	 7.3200
 4.1420	 7.3570
 4.1450	 7.3680
 4.1480	 7.3630
 4.1520	 7.3970
 4.1550	 7.4170
 4.1580	 7.3730
 4.1620	 7.2750
 4.1650	 7.2840
 4.1680	 7.3340
 4.1720	 7.3740
 4.1750	 7.3610
 4.1780	 7.3500
 4.1820	 7.3210
 4.1850	 7.3250
 4.1890	 7.3570
 4.1920	 7.4150
 4.1950	 7.4520
 4.1990	 7.4580
 4.2020	 7.4700
 4.2060	 7.5340
 4.2090	 7.6170
 4.2120	 7.8060
 4.2160	 7.8360
 4.2190	 7.7390
 4.2230	 7.8340
 4.2260	 7.9050
 4.2300	 8.0400
 4.2330	 8.2170
 4.2360	 8.2020
 4.2400	 8.2730
 4.2430	 8.2380
 4.2470	 8.2000
 4.2500	 8.0890
 4.2540	 8.0070
 4.2570	 7.9220
 4.2610	 7.8260
 4.2640	 7.8070
 4.2680	 7.6710
 4.2710	 7.6750
 4.2750	 7.9320
 4.2780	 7.9100
 4.2820	 7.9180
 4.2850	 7.9820
 4.2890	 7.9090
 4.2930	 7.7570
 4.2960	 7.6670
 4.3000	 7.6240
 4.3030	 7.7680
 4.3070	 7.8880
 4.3100	 7.7690
 4.3140	 7.6750
 4.3180	 7.6880
 4.3210	 7.6880
 4.3250	 7.6290
 4.3280	 7.5990
 4.3320	 7.5650
 4.3360	 7.5290
 4.3390	 7.5430
 4.3430	 7.4850
 4.3470	 7.4160
 4.3500	 7.3710
 4.3540	 7.4330
 4.3570	 7.5220
 4.3610	 7.5130
 4.3650	 7.4600
 4.3680	 7.4140
 4.3720	 7.4260
 4.3760	 7.3800
 4.3800	 7.3600
 4.3830	 7.3570
 4.3870	 7.3760
 4.3910	 7.3790
 4.3940	 7.3620
 4.3980	 7.3430
 4.4020	 7.3710
 4.4060	 7.4020
 4.4090	 7.4610
 4.4130	 7.4910
 4.4170	 7.4370
 4.4210	 7.4050
 4.4240	 7.4320
 4.4280	 7.4180
 4.4320	 7.4120
 4.4360	 7.3850
 4.4400	 7.3680
 4.4430	 7.3560
 4.4470	 7.3450
 4.4510	 7.3920
 4.4550	 7.4320
 4.4590	 7.4240
 4.4620	 7.4140
 4.4660	 7.3790
 4.4700	 7.4020
 4.4740	 7.3510
 4.4780	 7.2980
 4.4820	 7.3210
 4.4860	 7.3910
 4.4900	 7.4370
 4.4930	 7.4330
 4.4970	 7.3680
 4.5010	 7.3410
 4.5050	 7.3190
 4.5090	 7.2910
 4.5130	 7.2930
 4.5170	 7.3690
 4.5210	 7.4050
 4.5250	 7.3740
 4.5290	 7.3360
 4.5330	 7.3110
 4.5370	 7.3270
 4.5410	 7.3690
 4.5450	 7.3460
 4.5490	 7.3280
 4.5530	 7.3750
 4.5570	 7.4020
 4.5610	 7.3250
 4.5650	 7.3030
 4.5690	 7.3470
 4.5730	 7.3740
 4.5770	 7.3600
 4.5810	 7.3170
 4.5850	 7.2820
 4.5890	 7.3370
 4.5930	 7.3250
 4.5970	 7.3350
 4.6010	 7.3720
 4.6050	 7.4060
 4.6090	 7.3850
 4.6130	 7.3830
 4.6170	 7.3510
 4.6220	 7.3420
 4.6260	 7.3520
 4.6300	 7.2720
 4.6340	 7.2310
 4.6380	 7.2640
 4.6420	 7.3010
 4.6460	 7.3420
 4.6510	 7.3570
 4.6550	 7.3020
 4.6590	 7.2650
 4.6630	 7.3000
 4.6670	 7.2660
 4.6720	 7.2750
 4.6760	 7.3200
 4.6800	 7.3210
 4.6840	 7.2930
 4.6880	 7.2750
 4.6930	 7.2510
 4.6970	 7.2650
 4.7010	 7.2700
 4.7050	 7.2640
 4.7100	 7.2730
 4.7140	 7.2880
 4.7180	 7.2280
 4.7230	 7.2450
 4.7270	 7.3180
 4.7310	 7.3080
 4.7360	 7.3100
 4.7400	 7.3450
 4.7440	 7.3350
 4.7490	 7.3160
 4.7530	 7.2670
 4.7570	 7.2810
 4.7620	 7.3320
 4.7660	 7.3390
 4.7700	 7.2700
 4.7750	 7.2780
 4.7790	 7.3090
 4.7840	 7.3120
 4.7880	 7.3170
 4.7920	 7.3280
 4.7970	 7.3020
 4.8010	 7.2550
 4.8060	 7.2490
 4.8100	 7.3080
 4.8150	 7.3250
 4.8190	 7.2940
 4.8240	 7.2960
 4.8280	 7.3230
 4.8330	 7.2680
 4.8370	 7.2870
 4.8420	 7.3300
 4.8460	 7.2880
 4.8510	 7.2560
 4.8550	 7.2910
 4.8600	 7.2500
 4.8640	 7.2620
 4.8690	 7.2820
 4.8730	 7.3020
 4.8780	 7.2840
 4.8830	 7.2960
 4.8870	 7.2720
 4.8920	 7.3280
 4.8960	 7.3530
 4.9010	 7.3140
 4.9060	 7.2720
 4.9100	 7.2730
 4.9150	 7.3090
 4.9200	 7.3400
 4.9240	 7.2670
 4.9290	 7.2370
 4.9340	 7.2650
 4.9380	 7.2840
 4.9430	 7.2430
 4.9480	 7.2830
 4.9530	 7.3150
 4.9570	 7.3290
 4.9620	 7.2760
 4.9670	 7.2370
 4.9720	 7.2820
 4.9760	 7.3280
 4.9810	 7.2540
 4.9860	 7.2710
 4.9910	 7.2580
 4.9960	 7.2430
 5.0000	 7.2240
 5.0050	 7.2360
 5.0100	 7.2620
 5.0150	 7.2870
 5.0200	 7.2760
 5.0250	 7.3010
 5.0290	 7.2530
 5.0340	 7.2700
 5.0390	 7.2660
 5.0440	 7.3000
 5.0490	 7.2830
 5.0540	 7.2710
 5.0590	 7.2650
 5.0640	 7.2520
 5.0690	 7.2310
 5.0740	 7.2710
 5.0790	 7.2690
 5.0840	 7.3000
 5.0890	 7.2730
 5.0940	 7.2660
 5.0990	 7.2550
 5.1040	 7.2760
 5.1090	 7.2580
 5.1140	 7.2480
 5.1190	 7.2450
 5.1240	 7.2890
 5.1290	 7.2910
 5.1340	 7.2960
 5.1390	 7.2630
 5.1440	 7.2960
 5.1490	 7.3150
 5.1540	 7.3200
 5.1600	 7.2680
 5.1650	 7.2230
 5.1700	 7.1960
 5.1750	 7.2950
 5.1800	 7.3170
 5.1850	 7.2920
 5.1910	 7.2680
 5.1960	 7.2590
 5.2010	 7.2550
 5.2060	 7.3070
 5.2110	 7.2910
 5.2170	 7.2870
 5.2220	 7.2260
 5.2270	 7.1830
 5.2320	 7.2270
 5.2380	 7.2970
 5.2430	 7.2620
 5.2480	 7.2550
 5.2540	 7.1990
 5.2590	 7.2380
 5.2640	 7.2690
 5.2700	 7.2550
 5.2750	 7.1970
 5.2800	 7.2250
 5.2860	 7.1730
 5.2910	 7.1860
 5.2970	 7.1850
 5.3020	 7.2550
 5.3070	 7.2450
 5.3130	 7.2160
 5.3180	 7.2030
 5.3240	 7.1710
 5.3290	 7.1030
 5.3350	 7.1350
 5.3400	 7.1620
 5.3460	 7.1990
 5.3510	 7.1810
 5.3570	 7.1910
 5.3620	 7.1490
 5.3680	 7.1360
 5.3730	 7.1310
 5.3790	 7.1990
 5.3850	 7.1610
 5.3900	 7.0620
 5.3960	 7.0700
 5.4010	 7.1790
 5.4070	 7.1560
 5.4130	 7.1910
 5.4180	 7.1590
 5.4240	 7.0840
 5.4300	 7.0610
 5.4350	 7.1610
 5.4410	 7.1230
 5.4470	 7.1170
 5.4530	 7.0950
 5.4580	 7.1310
 5.4640	 7.0830
 5.4700	 7.0330
 5.4760	 7.0380
 5.4810	 7.1010
 5.4870	 7.0440
 5.4930	 7.0630
 5.4990	 7.0410
 5.5050	 7.0050
 5.5110	 7.0220
 5.5160	 6.9980
 5.5220	 6.9090
 5.5280	 6.9470
 5.5340	 6.9520
 5.5400	 6.9600
 5.5460	 6.9470
 5.5520	 6.9870
 5.5580	 6.9380
 5.5640	 6.9330
 5.5700	 6.9140
 5.5760	 6.9860
 5.5820	 6.9390
 5.5880	 6.8890
 5.5940	 6.7990
 5.6000	 6.7920
 5.6060	 6.8230
 5.6120	 6.8150
 5.6180	 6.7880
 5.6240	 6.8240
 5.6300	 6.7990
 5.6360	 6.8020
 5.6420	 6.7820
 5.6490	 6.7840
 5.6550	 6.7140
 5.6610	 6.6280
 5.6670	 6.5740
 5.6730	 6.5740
 5.6800	 6.4350
 5.6860	 6.3710
 5.6920	 6.3590
 5.6980	 6.3580
 5.7040	 6.3340
 5.7110	 6.3810
 5.7170	 6.3010
 5.7230	 6.2080
 5.7300	 6.0990
 5.7360	 6.1090
 5.7420	 6.2280
 5.7490	 6.4510
 5.7550	 6.6060
 5.7620	 6.8250
 5.7680	 7.0500
 5.7740	 7.2470
 5.7810	 7.3810
 5.7870	 7.4770
 5.7940	 7.4990
 5.8000	 7.6090
 5.8070	 7.6770
 5.8130	 7.7940
 5.8200	 7.9320
 5.8260	 8.0200
 5.8330	 7.9710
 5.8390	 8.0340
 5.8460	 8.0810
 5.8530	 8.1840
 5.8590	 8.2120
 5.8660	 8.2500
 5.8720	 8.2220
 5.8790	 8.3170
 5.8860	 8.2210
 5.8920	 8.2260
 5.8990	 8.2110
 5.9060	 8.1280
 5.9130	 8.0220
 5.9190	 8.0570
 5.9260	 8.0510
 5.9330	 8.1430
 5.9400	 8.1020
 5.9470	 8.0100
 5.9530	 7.9320
 5.9600	 7.9180
 5.9670	 7.8710
 5.9740	 7.8300
 5.9810	 7.7230
 5.9880	 7.8130
 5.9950	 7.8220
 6.0020	 7.7590
 6.0090	 7.6770
 6.0160	 7.6850
 6.0230	 7.6120
 6.0300	 7.5740
 6.0370	 7.5070
 6.0440	 7.5140
 6.0510	 7.4520
 6.0580	 7.4460
 6.0650	 7.4250
 6.0720	 7.4460
 6.0790	 7.3290
 6.0860	 7.2970
 6.0930	 7.3070
 6.1000	 7.4010
 6.1080	 7.4190
 6.1150	 7.4430
 6.1220	 7.2850
 6.1290	 7.2200
 6.1370	 7.2120
 6.1440	 7.2900
 6.1510	 7.2360
 6.1580	 7.2810
 6.1660	 7.2270
 6.1730	 7.2060
 6.1800	 7.2290
 6.1880	 7.3320
 6.1950	 7.2540
 6.2030	 7.2520
 6.2100	 7.2250
 6.2170	 7.2220
 6.2250	 7.1430
 6.2320	 7.1950
 6.2400	 7.1750
 6.2470	 7.1610
 6.2550	 7.1360
 6.2630	 7.1690
 6.2700	 7.0810
 6.2780	 7.0560
 6.2850	 7.0090
 6.2930	 7.1280
 6.3010	 7.1260
 6.3080	 7.1400
 6.3160	 7.1060
 6.3240	 7.1600
 6.3310	 7.1320
 6.3390	 7.1410
 6.3470	 7.0990
 6.3550	 7.0800
 6.3620	 7.0650
 6.3700	 7.1270
 6.3780	 7.0500
 6.3860	 7.1090
 6.3940	 7.0860
 6.4020	 7.1480
 6.4100	 7.1850
 6.4180	 7.2260
 6.4260	 7.1390
 6.4330	 7.1690
 6.4410	 7.0900
 6.4490	 7.0990
 6.4580	 7.0470
 6.4660	 7.1360
 6.4740	 7.1460
 6.4820	 7.1390
 6.4900	 7.1230
 6.4980	 7.1770
 6.5060	 7.0250
 6.5140	 6.9710
 6.5230	 6.9240
 6.5310	 6.9300
 6.5390	 6.9470
 6.5470	 7.0160
 6.5550	 6.9370
 6.5640	 6.9160
 6.5720	 6.8920
 6.5800	 6.9140
 6.5890	 6.8990
 6.5970	 6.9860
 6.6060	 6.9420
 6.6140	 6.9830
 6.6220	 6.9390
 6.6310	 7.0960
 6.6390	 7.1040
 6.6480	 6.9940
 6.6560	 6.9020
 6.6650	 6.9690
 6.6740	 6.9390
 6.6820	 6.9700
 6.6910	 6.8710
 6.6990	 6.8730
 6.7080	 6.8630
 6.7170	 6.9230
 6.7260	 6.8270
 6.7340	 6.8000
 6.7430	 6.7540
 6.7520	 6.7290
 6.7610	 6.6560
 6.7690	 6.7770
 6.7780	 6.7630
 6.7870	 6.9980
 6.7960	 7.1240
 6.8050	 7.0300
 6.8140	 6.8980
 6.8230	 7.0990
 6.8320	 7.3390
 6.8410	 7.5730
 6.8500	 7.4280
 6.8590	 7.4050
 6.8680	 7.2820
 6.8770	 7.2560
 6.8860	 7.2410
 6.8950	 7.2600
 6.9050	 7.1780
 6.9140	 7.1960
 6.9230	 7.1500
 6.9320	 7.2270
 6.9420	 7.2000
 6.9510	 7.2670
 6.9600	 7.2320
 6.9700	 7.1860
 6.9790	 7.0940
 6.9880	 7.1460
 6.9980	 7.0990
 7.0070	 7.1700
 7.0170	 7.1950
 7.0260	 7.2000
 7.0360	 7.0740
 7.0450	 7.0790
 7.0550	 6.9880
 7.0650	 7.0740
 7.0740	 7.1450
 7.0840	 7.2100
 7.0940	 7.1410
 7.1030	 7.1710
 7.1130	 7.0460
 7.1230	 7.0010
 7.1330	 6.9260
 7.1420	 6.9440
 7.1520	 6.8570
 7.1620	 6.9420
 7.1720	 6.9850
 7.1820	 7.0540
 7.1920	 7.0380
 7.2020	 7.0830
 7.2120	 7.0540
 7.2220	 7.0840
 7.2320	 6.9700
 7.2420	 7.0030
 7.2520	 7.0290
 7.2620	 7.1320
 7.2730	 7.0760
 7.2830	 7.0760
 7.2930	 7.0100
 7.3030	 7.0210
 7.3140	 7.0050
 7.3240	 7.0750
 7.3340	 7.0350
 7.3450	 7.1200
 7.3550	 7.0460
 7.3660	 6.9520
 7.3760	 6.8880
 7.3870	 7.0270
 7.3970	 7.0140
 7.4080	 7.0200
 7.4180	 6.9190
 7.4290	 6.9370
 7.4400	 6.9060
 7.4500	 7.0160
 7.4610	 6.9470
 7.4720	 6.9130
 7.4830	 6.8160
 7.4930	 6.8800
 7.5040	 6.8650
 7.5150	 6.9130
 7.5260	 6.8290
 7.5370	 6.9240
 7.5480	 6.9010
 7.5590	 6.9150
 7.5700	 6.8440
 7.5810	 6.9120
 7.5920	 6.8100
 7.6030	 6.8810
 7.6140	 6.8690
 7.6260	 6.8730
 7.6370	 6.8430
 7.6480	 7.0100
 7.6590	 6.8700
 7.6710	 6.8630
 7.6820	 6.9030
 7.6930	 6.9590
 7.7050	 6.8770
 7.7160	 6.8970
 7.7280	 6.8360
 7.7390	 6.9400
 7.7510	 6.9020
 7.7630	 6.9440
 7.7740	 6.8510
 7.7860	 6.8760
 7.7980	 6.8050
 7.8090	 6.9030
 7.8210	 6.8770
 7.8330	 6.9460
 7.8450	 6.9210
 7.8570	 7.0120
 7.8690	 6.9700
 7.8810	 6.9780
 7.8930	 6.9830
 7.9050	 7.1190
 7.9170	 7.0500
 7.9290	 7.1250
 7.9410	 7.1060
 7.9530	 7.1340
 7.9650	 7.0080
 7.9780	 7.1180
 7.9900	 7.0640
 8.0020	 7.0990
 8.0150	 7.0190
 8.0270	 7.1300
 8.0390	 7.1780
 8.0520	 7.2680
 8.0640	 7.1300
 8.0770	 7.1090
 8.0900	 7.0500
 8.1020	 7.2930
 8.1150	 7.2990
 8.1280	 7.3420
 8.1400	 7.1680
 8.1530	 7.1920
 8.1660	 7.1720
 8.1790	 7.3480
 8.1920	 7.2230
 8.2050	 7.2460
 8.2180	 7.2560
 8.2310	 7.4100
 8.2440	 7.3100
 8.2570	 7.4180
 8.2700	 7.3900
 8.2830	 7.5190
 8.2970	 7.3990
 8.3100	 7.4690
 8.3230	 7.4600
 8.3370	 7.6930
 8.3500	 7.6930
 8.3640	 7.7850
 8.3770	 7.6700
 8.3910	 7.8440
 8.4040	 7.8870
 8.4180	 8.0350
 8.4320	 7.9630
 8.4450	 8.1640
 8.4590	 8.0920
 8.4730	 8.2510
 8.4870	 8.2980
 8.5010	 8.4190
 8.5150	 8.3820
 8.5290	 8.5520
 8.5430	 8.5380
 8.5570	 8.6300
 8.5710	 8.4270
 8.5850	 8.4000
 8.5990	 8.3240
 8.6140	 8.3420
 8.6280	 8.2120
 8.6420	 8.2640
 8.6570	 8.0950
 8.6710	 8.0970
 8.6860	 7.9400
 8.7000	 8.0420
 8.7150	 8.0700
 8.7300	 8.1850
 8.7440	 8.0040
 8.7590	 8.1460
 8.7740	 8.1310
 8.7890	 8.1900
 8.8040	 7.9830
 8.8190	 8.0060
 8.8340	 7.8530
 8.8490	 7.9340
 8.8640	 8.0140
 8.8790	 8.2170
 8.8940	 7.9670
 8.9100	 7.9720
 8.9250	 7.9010
 8.9400	 7.9030
 8.9560	 7.6460
 8.9710	 7.7900
 8.9870	 7.6620
 9.0020	 7.6460
 9.0180	 7.4890
 9.0340	 7.4690
 9.0500	 7.3260
 9.0650	 7.4840
 9.0810	 7.3330
 9.0970	 7.3830
 9.1130	 7.3910
 9.1290	 7.5590
 9.1450	 7.3690
 9.1610	 7.5180
 9.1780	 7.4690
 9.1940	 7.5910
 9.2100	 7.4540
 9.2270	 7.4440
 9.2430	 7.2590
 9.2600	 7.3680
 9.2760	 7.2520
 9.2930	 7.2590
 9.3090	 7.0990
 9.3260	 7.1800
 9.3430	 6.9810
 9.3600	 6.8900
 9.3770	 6.6770
 9.3940	 6.9050
 9.4110	 6.8480
 9.4280	 6.8260
 9.4450	 6.6770
 9.4620	 6.8690
 9.4800	 6.7640
 9.4970	 6.8870
 9.5140	 6.7610
 9.5320	 6.9370
 9.5500	 6.8250
 9.5670	 7.0170
 9.5850	 6.9490
 9.6030	 6.9580
 9.6200	 6.7240
 9.6380	 6.8250
 9.6560	 6.6880
 9.6740	 6.8810
 9.6920	 6.8240
 9.7100	 6.9500
 9.7290	 6.8150
 9.7470	 6.8470
 9.7650	 6.7880
 9.7840	 6.9400
 9.8020	 6.8430
 9.8210	 6.9540
 9.8390	 6.8630
 9.8580	 6.9940
 9.8770	 6.8240
 9.8960	 6.9440
 9.9150	 6.8660
 9.9340	 7.0070
 9.9530	 6.8470
 9.9720	 6.9040
 9.9910	 6.8530
10.0100	 7.1130
10.0300	 6.8960
10.0490	 6.8300
10.0690	 6.7630
10.0880	 6.8770
10.1080	 6.7640
10.1280	 7.0240
10.1480	 7.0770
10.1670	 7.2050
10.1870	 7.0270
10.2070	 7.1290
10.2280	 6.9740
10.2480	 6.9880
10.2680	 6.9020
10.2890	 7.1150
10.3090	 6.9910
10.3300	 6.9500
10.3500	 6.7500
10.3710	 6.9360
10.3920	 6.8920
10.4120	 7.0330
10.4330	 6.9030
10.4540	 6.8290
10.4760	 6.6740
10.4970	 6.8230
10.5180	 6.6930
10.5390	 6.9020
10.5610	 6.8710
10.5820	 6.9330
10.6040	 6.7920
10.6260	 6.9360
10.6480	 6.9070
10.6700	 7.0430
10.6920	 6.9850
10.7140	 7.1990
10.7360	 7.0450
10.7580	 7.1000
10.7800	 6.8840
10.8030	 7.0370
10.8250	 6.9870
10.8480	 7.1560
10.8710	 7.0380
10.8940	 7.0260
10.9170	 6.6920
10.9400	 6.8860
10.9630	 6.9130
10.9860	 6.9600
11.0090	 6.7220
11.0330	 6.8920
11.0560	 6.7230
11.0800	 6.8050
11.1040	 6.7300
11.1270	 6.8360
11.1510	 6.6530
11.1750	 6.7600
11.2000	 6.6300
11.2240	 6.8280
11.2480	 6.6190
11.2730	 6.9210
11.2970	 6.9750
11.3220	 6.9520
11.3470	 6.5950
11.3720	 6.6450
11.3970	 6.5380
11.4220	 6.6160
11.4470	 6.4210
11.4720	 6.5590
11.4980	 6.4150
11.5230	 6.5240
11.5490	 6.2630
11.5750	 6.4490
11.6000	 6.4050
11.6260	 6.6000
11.6530	 6.4160
11.6790	 6.6200
11.7050	 6.4860
11.7320	 6.4960
11.7580	 6.1950
11.7850	 6.2960
11.8120	 6.1270
11.8390	 6.3490
11.8660	 6.1540
11.8930	 6.3060
11.9200	 6.0480
11.9480	 6.1150
11.9760	 5.9490
12.0030	 6.2470
12.0310	 5.9990
12.0590	 6.0020
12.0870	 5.8590
12.1150	 6.0780
12.1440	 5.9870
12.1720	 6.3310
12.2010	 6.2450
12.2300	 6.3230
12.2590	 5.9710
12.2880	 6.1060
12.3170	 5.9630
12.3460	 6.1480
12.3760	 5.9220
12.4050	 6.1340
12.4350	 5.8940
12.4650	 5.9510
12.4950	 5.6700
12.5250	 6.0420
12.5550	 5.8750
12.5860	 6.0170
12.6170	 5.7610
12.6470	 5.9000
12.6780	 5.7450
12.7090	 5.8380
12.7410	 5.5350
12.7720	 5.7780
12.8030	 5.6400
12.8350	 5.7800
12.8670	 5.4820
12.8990	 5.6290
12.9310	 5.3940
12.9640	 5.6880
12.9960	 5.5440
13.0290	 5.6280
13.0610	 5.4310
13.0940	 5.7830
13.1280	 5.5040
13.1610	 5.7270
13.1940	 5.6630
13.2280	 5.9020
13.2620	 5.4850
13.2960	 5.5950
13.3300	 5.2980
13.3640	 5.5210
13.3990	 5.2350
13.4340	 5.4630
13.4690	 5.2070
13.5040	 5.5480
13.5390	 5.3500
13.5740	 5.3620
13.6100	 4.9150
13.6460	 5.2500
13.6820	 5.2910
13.7180	 5.5840
13.7540	 4.6950
13.7910	 4.9240
13.8280	 5.0540
13.8650	 5.4960
13.9020	 5.3530
13.9390	 5.6300
13.9770	 5.2790
14.0150	 5.6270
14.0530	 5.3740
14.0910	 5.3880
14.1290	 4.9930
14.1680	 5.3380
14.2070	 5.0660
14.2460	 5.2470
14.2850	 4.8630
14.3240	 5.3180
14.3640	 5.2500
14.4040	 5.7870
14.4440	 5.2420
14.4840	 5.2180
14.5250	 4.8740
14.5660	 5.3040
14.6070	 4.8340
14.6480	 5.4160
14.6900	 4.9430
14.7310	 5.3680
14.7730	 5.2700
14.8150	 5.7570
14.8580	 5.0800
14.9010	 5.5640
14.9440	 5.3730
14.9870	 5.9880
15.0300	 4.9000
15.0740	 5.2620
15.1180	 4.9940
15.1620	 5.5890
15.2060	 5.0630
15.2510	 5.7770
15.2960	 4.9930
15.3410	 5.4890
15.3870	 5.1930
