Name: Olea africana
Type: vegetation
Class: Tree
Genus: Olea
Species: africana
Sample No.: JPL226
Owner: JPL
Wavelength Range: VSWIR
Origin: 34.12663; -118.11491; WGS84
Collection Date: 10/3/2016
Description: Samples were collected at the Huntington Garden in San Marino California as part of a JPL Subcontract studying HyTES imagery. Samples were taken to JPL and processed within 48 hours of collection. The same leaves were processed in the Nicolet and then measured using the ASD.
Measurement: Bidirectional reflectance
First Column: X
Second Column: Y
X Units: Wavelength (micrometer)
Y Units: Reflectance (percentage)
First X Value: 0.35
Last X Value: 2.5
Number of X Values: 2151
Additional Information: vegetation.tree.olea.africana.vswir.jpl226.jpl.asd.ancillary.txt

 0.3500	 5.8720
 0.3510	 5.7980
 0.3520	 5.8670
 0.3530	 5.8730
 0.3540	 5.7200
 0.3550	 5.7870
 0.3560	 5.7210
 0.3570	 5.5970
 0.3580	 5.6700
 0.3590	 5.6940
 0.3600	 5.6570
 0.3610	 5.6170
 0.3620	 5.6860
 0.3630	 5.6700
 0.3640	 5.5990
 0.3650	 5.5610
 0.3660	 5.6240
 0.3670	 5.6570
 0.3680	 5.6570
 0.3690	 5.6960
 0.3700	 5.6410
 0.3710	 5.5830
 0.3720	 5.5770
 0.3730	 5.5620
 0.3740	 5.5550
 0.3750	 5.5420
 0.3760	 5.5190
 0.3770	 5.5490
 0.3780	 5.5680
 0.3790	 5.5610
 0.3800	 5.5650
 0.3810	 5.5730
 0.3820	 5.5870
 0.3830	 5.6000
 0.3840	 5.5800
 0.3850	 5.5940
 0.3860	 5.6090
 0.3870	 5.5730
 0.3880	 5.5650
 0.3890	 5.5650
 0.3900	 5.5600
 0.3910	 5.5450
 0.3920	 5.5690
 0.3930	 5.5900
 0.3940	 5.5710
 0.3950	 5.5440
 0.3960	 5.5360
 0.3970	 5.5480
 0.3980	 5.5640
 0.3990	 5.5790
 0.4000	 5.5650
 0.4010	 5.5360
 0.4020	 5.5640
 0.4030	 5.5870
 0.4040	 5.5880
 0.4050	 5.5720
 0.4060	 5.5770
 0.4070	 5.6000
 0.4080	 5.6180
 0.4090	 5.5990
 0.4100	 5.5990
 0.4110	 5.6140
 0.4120	 5.6320
 0.4130	 5.6550
 0.4140	 5.6700
 0.4150	 5.6770
 0.4160	 5.6810
 0.4170	 5.6960
 0.4180	 5.6990
 0.4190	 5.6950
 0.4200	 5.7120
 0.4210	 5.7190
 0.4220	 5.7250
 0.4230	 5.7400
 0.4240	 5.7670
 0.4250	 5.7840
 0.4260	 5.7920
 0.4270	 5.7980
 0.4280	 5.8160
 0.4290	 5.8220
 0.4300	 5.8150
 0.4310	 5.8320
 0.4320	 5.8410
 0.4330	 5.8440
 0.4340	 5.8500
 0.4350	 5.8550
 0.4360	 5.8560
 0.4370	 5.8610
 0.4380	 5.8870
 0.4390	 5.8940
 0.4400	 5.8920
 0.4410	 5.8960
 0.4420	 5.9140
 0.4430	 5.9260
 0.4440	 5.9370
 0.4450	 5.9560
 0.4460	 5.9580
 0.4470	 5.9610
 0.4480	 5.9710
 0.4490	 5.9830
 0.4500	 5.9950
 0.4510	 6.0010
 0.4520	 6.0010
 0.4530	 6.0130
 0.4540	 6.0220
 0.4550	 6.0260
 0.4560	 6.0360
 0.4570	 6.0470
 0.4580	 6.0550
 0.4590	 6.0610
 0.4600	 6.0660
 0.4610	 6.0710
 0.4620	 6.0780
 0.4630	 6.0900
 0.4640	 6.0850
 0.4650	 6.0870
 0.4660	 6.0970
 0.4670	 6.1010
 0.4680	 6.1040
 0.4690	 6.1100
 0.4700	 6.1190
 0.4710	 6.1180
 0.4720	 6.1180
 0.4730	 6.1220
 0.4740	 6.1320
 0.4750	 6.1360
 0.4760	 6.1380
 0.4770	 6.1400
 0.4780	 6.1400
 0.4790	 6.1410
 0.4800	 6.1450
 0.4810	 6.1530
 0.4820	 6.1520
 0.4830	 6.1510
 0.4840	 6.1540
 0.4850	 6.1620
 0.4860	 6.1730
 0.4870	 6.1820
 0.4880	 6.1860
 0.4890	 6.1910
 0.4900	 6.2010
 0.4910	 6.2130
 0.4920	 6.2240
 0.4930	 6.2320
 0.4940	 6.2450
 0.4950	 6.2630
 0.4960	 6.2810
 0.4970	 6.2980
 0.4980	 6.3160
 0.4990	 6.3410
 0.5000	 6.3720
 0.5010	 6.4060
 0.5020	 6.4410
 0.5030	 6.4780
 0.5040	 6.5180
 0.5050	 6.5670
 0.5060	 6.6310
 0.5070	 6.6970
 0.5080	 6.7700
 0.5090	 6.8530
 0.5100	 6.9440
 0.5110	 7.0460
 0.5120	 7.1600
 0.5130	 7.2880
 0.5140	 7.4300
 0.5150	 7.5820
 0.5160	 7.7470
 0.5170	 7.9250
 0.5180	 8.1090
 0.5190	 8.3050
 0.5200	 8.5130
 0.5210	 8.7290
 0.5220	 8.9490
 0.5230	 9.1700
 0.5240	 9.3870
 0.5250	 9.6020
 0.5260	 9.8080
 0.5270	10.0070
 0.5280	10.2000
 0.5290	10.3800
 0.5300	10.5460
 0.5310	10.6990
 0.5320	10.8440
 0.5330	10.9730
 0.5340	11.0890
 0.5350	11.1960
 0.5360	11.2940
 0.5370	11.3780
 0.5380	11.4510
 0.5390	11.5230
 0.5400	11.5900
 0.5410	11.6550
 0.5420	11.7200
 0.5430	11.7780
 0.5440	11.8300
 0.5450	11.8740
 0.5460	11.9080
 0.5470	11.9370
 0.5480	11.9660
 0.5490	11.9950
 0.5500	12.0210
 0.5510	12.0390
 0.5520	12.0470
 0.5530	12.0420
 0.5540	12.0200
 0.5550	11.9790
 0.5560	11.9230
 0.5570	11.8510
 0.5580	11.7670
 0.5590	11.6740
 0.5600	11.5740
 0.5610	11.4660
 0.5620	11.3600
 0.5630	11.2510
 0.5640	11.1330
 0.5650	11.0160
 0.5660	10.8960
 0.5670	10.7690
 0.5680	10.6340
 0.5690	10.4880
 0.5700	10.3360
 0.5710	10.1880
 0.5720	10.0430
 0.5730	 9.9100
 0.5740	 9.7870
 0.5750	 9.6690
 0.5760	 9.5580
 0.5770	 9.4530
 0.5780	 9.3570
 0.5790	 9.2750
 0.5800	 9.1990
 0.5810	 9.1260
 0.5820	 9.0570
 0.5830	 8.9820
 0.5840	 8.9030
 0.5850	 8.8270
 0.5860	 8.7620
 0.5870	 8.7180
 0.5880	 8.6860
 0.5890	 8.6530
 0.5900	 8.6170
 0.5910	 8.5810
 0.5920	 8.5480
 0.5930	 8.5210
 0.5940	 8.4950
 0.5950	 8.4770
 0.5960	 8.4640
 0.5970	 8.4480
 0.5980	 8.4270
 0.5990	 8.4050
 0.6000	 8.3860
 0.6010	 8.3630
 0.6020	 8.3340
 0.6030	 8.3000
 0.6040	 8.2580
 0.6050	 8.2110
 0.6060	 8.1600
 0.6070	 8.1080
 0.6080	 8.0500
 0.6090	 7.9880
 0.6100	 7.9240
 0.6110	 7.8640
 0.6120	 7.8070
 0.6130	 7.7480
 0.6140	 7.6850
 0.6150	 7.6280
 0.6160	 7.5760
 0.6170	 7.5280
 0.6180	 7.4810
 0.6190	 7.4390
 0.6200	 7.4020
 0.6210	 7.3720
 0.6220	 7.3470
 0.6230	 7.3260
 0.6240	 7.3050
 0.6250	 7.2860
 0.6260	 7.2740
 0.6270	 7.2640
 0.6280	 7.2570
 0.6290	 7.2530
 0.6300	 7.2450
 0.6310	 7.2370
 0.6320	 7.2290
 0.6330	 7.2230
 0.6340	 7.2090
 0.6350	 7.1900
 0.6360	 7.1700
 0.6370	 7.1430
 0.6380	 7.1100
 0.6390	 7.0730
 0.6400	 7.0370
 0.6410	 6.9990
 0.6420	 6.9600
 0.6430	 6.9210
 0.6440	 6.8810
 0.6450	 6.8400
 0.6460	 6.7990
 0.6470	 6.7620
 0.6480	 6.7290
 0.6490	 6.6990
 0.6500	 6.6730
 0.6510	 6.6520
 0.6520	 6.6340
 0.6530	 6.6190
 0.6540	 6.6060
 0.6550	 6.5910
 0.6560	 6.5730
 0.6570	 6.5530
 0.6580	 6.5340
 0.6590	 6.5150
 0.6600	 6.4920
 0.6610	 6.4690
 0.6620	 6.4540
 0.6630	 6.4410
 0.6640	 6.4300
 0.6650	 6.4230
 0.6660	 6.4210
 0.6670	 6.4200
 0.6680	 6.4220
 0.6690	 6.4280
 0.6700	 6.4380
 0.6710	 6.4480
 0.6720	 6.4610
 0.6730	 6.4800
 0.6740	 6.5010
 0.6750	 6.5230
 0.6760	 6.5470
 0.6770	 6.5770
 0.6780	 6.6060
 0.6790	 6.6370
 0.6800	 6.6730
 0.6810	 6.7100
 0.6820	 6.7490
 0.6830	 6.7890
 0.6840	 6.8340
 0.6850	 6.8780
 0.6860	 6.9260
 0.6870	 6.9820
 0.6880	 7.0530
 0.6890	 7.1470
 0.6900	 7.2730
 0.6910	 7.4420
 0.6920	 7.6630
 0.6930	 7.9460
 0.6940	 8.2990
 0.6950	 8.7310
 0.6960	 9.2370
 0.6970	 9.8150
 0.6980	10.4610
 0.6990	11.1760
 0.7000	11.9470
 0.7010	12.7620
 0.7020	13.6080
 0.7030	14.4780
 0.7040	15.3640
 0.7050	16.2610
 0.7060	17.1650
 0.7070	18.0690
 0.7080	18.9730
 0.7090	19.8810
 0.7100	20.7910
 0.7110	21.7050
 0.7120	22.6220
 0.7130	23.5360
 0.7140	24.4520
 0.7150	25.3700
 0.7160	26.2850
 0.7170	27.2020
 0.7180	28.1150
 0.7190	29.0230
 0.7200	29.9270
 0.7210	30.8190
 0.7220	31.7000
 0.7230	32.5690
 0.7240	33.4190
 0.7250	34.2480
 0.7260	35.0560
 0.7270	35.8410
 0.7280	36.6020
 0.7290	37.3370
 0.7300	38.0420
 0.7310	38.7150
 0.7320	39.3610
 0.7330	39.9780
 0.7340	40.5650
 0.7350	41.1210
 0.7360	41.6470
 0.7370	42.1440
 0.7380	42.6100
 0.7390	43.0470
 0.7400	43.4580
 0.7410	43.8410
 0.7420	44.1950
 0.7430	44.5280
 0.7440	44.8330
 0.7450	45.1080
 0.7460	45.3620
 0.7470	45.5980
 0.7480	45.8130
 0.7490	46.0050
 0.7500	46.1830
 0.7510	46.3430
 0.7520	46.4870
 0.7530	46.6190
 0.7540	46.7400
 0.7550	46.8480
 0.7560	46.9440
 0.7570	47.0310
 0.7580	47.1100
 0.7590	47.1830
 0.7600	47.2510
 0.7610	47.3120
 0.7620	47.3630
 0.7630	47.4080
 0.7640	47.4520
 0.7650	47.4910
 0.7660	47.5250
 0.7670	47.5530
 0.7680	47.5780
 0.7690	47.6020
 0.7700	47.6250
 0.7710	47.6470
 0.7720	47.6720
 0.7730	47.6900
 0.7740	47.7040
 0.7750	47.7210
 0.7760	47.7380
 0.7770	47.7530
 0.7780	47.7660
 0.7790	47.7790
 0.7800	47.7910
 0.7810	47.8050
 0.7820	47.8210
 0.7830	47.8380
 0.7840	47.8480
 0.7850	47.8580
 0.7860	47.8690
 0.7870	47.8760
 0.7880	47.8850
 0.7890	47.8960
 0.7900	47.9060
 0.7910	47.9140
 0.7920	47.9210
 0.7930	47.9280
 0.7940	47.9380
 0.7950	47.9470
 0.7960	47.9530
 0.7970	47.9570
 0.7980	47.9580
 0.7990	47.9610
 0.8000	47.9630
 0.8010	47.9620
 0.8020	47.9650
 0.8030	47.9700
 0.8040	47.9760
 0.8050	47.9810
 0.8060	47.9810
 0.8070	47.9780
 0.8080	47.9750
 0.8090	47.9720
 0.8100	47.9700
 0.8110	47.9680
 0.8120	47.9660
 0.8130	47.9640
 0.8140	47.9620
 0.8150	47.9620
 0.8160	47.9620
 0.8170	47.9560
 0.8180	47.9560
 0.8190	47.9600
 0.8200	47.9570
 0.8210	47.9530
 0.8220	47.9500
 0.8230	47.9470
 0.8240	47.9430
 0.8250	47.9390
 0.8260	47.9360
 0.8270	47.9340
 0.8280	47.9360
 0.8290	47.9340
 0.8300	47.9300
 0.8310	47.9250
 0.8320	47.9260
 0.8330	47.9230
 0.8340	47.9190
 0.8350	47.9220
 0.8360	47.9210
 0.8370	47.9220
 0.8380	47.9260
 0.8390	47.9290
 0.8400	47.9320
 0.8410	47.9350
 0.8420	47.9390
 0.8430	47.9460
 0.8440	47.9490
 0.8450	47.9550
 0.8460	47.9670
 0.8470	47.9690
 0.8480	47.9730
 0.8490	47.9800
 0.8500	47.9860
 0.8510	47.9900
 0.8520	47.9980
 0.8530	48.0060
 0.8540	48.0080
 0.8550	48.0150
 0.8560	48.0220
 0.8570	48.0260
 0.8580	48.0300
 0.8590	48.0410
 0.8600	48.0510
 0.8610	48.0550
 0.8620	48.0660
 0.8630	48.0740
 0.8640	48.0770
 0.8650	48.0790
 0.8660	48.0930
 0.8670	48.1050
 0.8680	48.1150
 0.8690	48.1240
 0.8700	48.1270
 0.8710	48.1340
 0.8720	48.1430
 0.8730	48.1480
 0.8740	48.1540
 0.8750	48.1640
 0.8760	48.1750
 0.8770	48.1740
 0.8780	48.1860
 0.8790	48.2000
 0.8800	48.2080
 0.8810	48.2130
 0.8820	48.2190
 0.8830	48.2260
 0.8840	48.2320
 0.8850	48.2300
 0.8860	48.2380
 0.8870	48.2510
 0.8880	48.2590
 0.8890	48.2630
 0.8900	48.2660
 0.8910	48.2700
 0.8920	48.2750
 0.8930	48.2830
 0.8940	48.2920
 0.8950	48.2970
 0.8960	48.2980
 0.8970	48.2970
 0.8980	48.3040
 0.8990	48.3150
 0.9000	48.3180
 0.9010	48.3230
 0.9020	48.3260
 0.9030	48.3300
 0.9040	48.3420
 0.9050	48.3480
 0.9060	48.3500
 0.9070	48.3510
 0.9080	48.3490
 0.9090	48.3540
 0.9100	48.3560
 0.9110	48.3520
 0.9120	48.3620
 0.9130	48.3660
 0.9140	48.3650
 0.9150	48.3630
 0.9160	48.3610
 0.9170	48.3640
 0.9180	48.3660
 0.9190	48.3610
 0.9200	48.3600
 0.9210	48.3600
 0.9220	48.3590
 0.9230	48.3560
 0.9240	48.3450
 0.9250	48.3390
 0.9260	48.3360
 0.9270	48.3240
 0.9280	48.3030
 0.9290	48.2860
 0.9300	48.2740
 0.9310	48.2520
 0.9320	48.2420
 0.9330	48.2290
 0.9340	48.2060
 0.9350	48.1830
 0.9360	48.1580
 0.9370	48.1320
 0.9380	48.1080
 0.9390	48.0940
 0.9400	48.0710
 0.9410	48.0400
 0.9420	48.0040
 0.9430	47.9680
 0.9440	47.9310
 0.9450	47.8990
 0.9460	47.8660
 0.9470	47.8100
 0.9480	47.7610
 0.9490	47.7190
 0.9500	47.6740
 0.9510	47.6070
 0.9520	47.5410
 0.9530	47.4840
 0.9540	47.4330
 0.9550	47.3690
 0.9560	47.2970
 0.9570	47.2320
 0.9580	47.1810
 0.9590	47.1230
 0.9600	47.0770
 0.9610	47.0350
 0.9620	46.9910
 0.9630	46.9540
 0.9640	46.9120
 0.9650	46.8750
 0.9660	46.8540
 0.9670	46.8240
 0.9680	46.8070
 0.9690	46.7940
 0.9700	46.7720
 0.9710	46.7550
 0.9720	46.7420
 0.9730	46.7290
 0.9740	46.7160
 0.9750	46.7070
 0.9760	46.6990
 0.9770	46.6850
 0.9780	46.6700
 0.9790	46.6780
 0.9800	46.6810
 0.9810	46.6780
 0.9820	46.6800
 0.9830	46.6800
 0.9840	46.6900
 0.9850	46.7030
 0.9860	46.7090
 0.9870	46.7280
 0.9880	46.7330
 0.9890	46.7320
 0.9900	46.7470
 0.9910	46.7620
 0.9920	46.7820
 0.9930	46.8070
 0.9940	46.8300
 0.9950	46.8270
 0.9960	46.8430
 0.9970	46.8750
 0.9980	46.8960
 0.9990	46.9190
 1.0000	46.9390
 1.0010	48.4890
 1.0020	48.5100
 1.0030	48.5310
 1.0040	48.5530
 1.0050	48.5780
 1.0060	48.5980
 1.0070	48.6210
 1.0080	48.6440
 1.0090	48.6650
 1.0100	48.6890
 1.0110	48.7170
 1.0120	48.7400
 1.0130	48.7620
 1.0140	48.7850
 1.0150	48.8090
 1.0160	48.8310
 1.0170	48.8540
 1.0180	48.8760
 1.0190	48.8980
 1.0200	48.9200
 1.0210	48.9450
 1.0220	48.9710
 1.0230	48.9930
 1.0240	49.0120
 1.0250	49.0350
 1.0260	49.0560
 1.0270	49.0780
 1.0280	49.1040
 1.0290	49.1280
 1.0300	49.1490
 1.0310	49.1730
 1.0320	49.2010
 1.0330	49.2250
 1.0340	49.2430
 1.0350	49.2640
 1.0360	49.2850
 1.0370	49.3040
 1.0380	49.3230
 1.0390	49.3450
 1.0400	49.3650
 1.0410	49.3810
 1.0420	49.3980
 1.0430	49.4170
 1.0440	49.4350
 1.0450	49.4520
 1.0460	49.4690
 1.0470	49.4860
 1.0480	49.5020
 1.0490	49.5160
 1.0500	49.5310
 1.0510	49.5500
 1.0520	49.5640
 1.0530	49.5760
 1.0540	49.5870
 1.0550	49.5970
 1.0560	49.6040
 1.0570	49.6140
 1.0580	49.6270
 1.0590	49.6350
 1.0600	49.6400
 1.0610	49.6470
 1.0620	49.6520
 1.0630	49.6570
 1.0640	49.6630
 1.0650	49.6670
 1.0660	49.6670
 1.0670	49.6680
 1.0680	49.6680
 1.0690	49.6680
 1.0700	49.6680
 1.0710	49.6680
 1.0720	49.6650
 1.0730	49.6600
 1.0740	49.6570
 1.0750	49.6550
 1.0760	49.6510
 1.0770	49.6490
 1.0780	49.6450
 1.0790	49.6370
 1.0800	49.6310
 1.0810	49.6260
 1.0820	49.6170
 1.0830	49.6030
 1.0840	49.5930
 1.0850	49.5850
 1.0860	49.5760
 1.0870	49.5670
 1.0880	49.5610
 1.0890	49.5520
 1.0900	49.5370
 1.0910	49.5260
 1.0920	49.5180
 1.0930	49.5070
 1.0940	49.4930
 1.0950	49.4800
 1.0960	49.4640
 1.0970	49.4500
 1.0980	49.4360
 1.0990	49.4230
 1.1000	49.4100
 1.1010	49.3960
 1.1020	49.3800
 1.1030	49.3660
 1.1040	49.3550
 1.1050	49.3410
 1.1060	49.3260
 1.1070	49.3120
 1.1080	49.2970
 1.1090	49.2780
 1.1100	49.2620
 1.1110	49.2470
 1.1120	49.2290
 1.1130	49.2100
 1.1140	49.1900
 1.1150	49.1680
 1.1160	49.1450
 1.1170	49.1200
 1.1180	49.0940
 1.1190	49.0670
 1.1200	49.0390
 1.1210	49.0070
 1.1220	48.9740
 1.1230	48.9380
 1.1240	48.8960
 1.1250	48.8480
 1.1260	48.7970
 1.1270	48.7380
 1.1280	48.6720
 1.1290	48.5990
 1.1300	48.5210
 1.1310	48.4350
 1.1320	48.3430
 1.1330	48.2430
 1.1340	48.1360
 1.1350	48.0210
 1.1360	47.8980
 1.1370	47.7690
 1.1380	47.6340
 1.1390	47.4930
 1.1400	47.3470
 1.1410	47.1970
 1.1420	47.0440
 1.1430	46.8900
 1.1440	46.7360
 1.1450	46.5770
 1.1460	46.4260
 1.1470	46.2750
 1.1480	46.1300
 1.1490	45.9880
 1.1500	45.8550
 1.1510	45.7280
 1.1520	45.6060
 1.1530	45.4910
 1.1540	45.3830
 1.1550	45.2810
 1.1560	45.1870
 1.1570	45.1030
 1.1580	45.0250
 1.1590	44.9530
 1.1600	44.8870
 1.1610	44.8270
 1.1620	44.7710
 1.1630	44.7190
 1.1640	44.6700
 1.1650	44.6240
 1.1660	44.5800
 1.1670	44.5400
 1.1680	44.5040
 1.1690	44.4690
 1.1700	44.4350
 1.1710	44.4030
 1.1720	44.3750
 1.1730	44.3450
 1.1740	44.3170
 1.1750	44.2910
 1.1760	44.2640
 1.1770	44.2360
 1.1780	44.2080
 1.1790	44.1790
 1.1800	44.1480
 1.1810	44.1180
 1.1820	44.0900
 1.1830	44.0640
 1.1840	44.0360
 1.1850	44.0100
 1.1860	43.9840
 1.1870	43.9590
 1.1880	43.9360
 1.1890	43.9160
 1.1900	43.8980
 1.1910	43.8820
 1.1920	43.8680
 1.1930	43.8550
 1.1940	43.8460
 1.1950	43.8390
 1.1960	43.8340
 1.1970	43.8310
 1.1980	43.8300
 1.1990	43.8310
 1.2000	43.8330
 1.2010	43.8390
 1.2020	43.8490
 1.2030	43.8600
 1.2040	43.8740
 1.2050	43.8910
 1.2060	43.9070
 1.2070	43.9250
 1.2080	43.9440
 1.2090	43.9650
 1.2100	43.9900
 1.2110	44.0170
 1.2120	44.0450
 1.2130	44.0750
 1.2140	44.1080
 1.2150	44.1410
 1.2160	44.1750
 1.2170	44.2110
 1.2180	44.2460
 1.2190	44.2820
 1.2200	44.3180
 1.2210	44.3560
 1.2220	44.3930
 1.2230	44.4300
 1.2240	44.4680
 1.2250	44.5050
 1.2260	44.5410
 1.2270	44.5780
 1.2280	44.6120
 1.2290	44.6440
 1.2300	44.6730
 1.2310	44.7020
 1.2320	44.7310
 1.2330	44.7620
 1.2340	44.7910
 1.2350	44.8200
 1.2360	44.8470
 1.2370	44.8740
 1.2380	44.8990
 1.2390	44.9240
 1.2400	44.9470
 1.2410	44.9720
 1.2420	44.9960
 1.2430	45.0170
 1.2440	45.0410
 1.2450	45.0630
 1.2460	45.0830
 1.2470	45.1050
 1.2480	45.1270
 1.2490	45.1470
 1.2500	45.1650
 1.2510	45.1820
 1.2520	45.1970
 1.2530	45.2120
 1.2540	45.2290
 1.2550	45.2430
 1.2560	45.2550
 1.2570	45.2660
 1.2580	45.2750
 1.2590	45.2840
 1.2600	45.2920
 1.2610	45.2990
 1.2620	45.3060
 1.2630	45.3120
 1.2640	45.3160
 1.2650	45.3200
 1.2660	45.3220
 1.2670	45.3250
 1.2680	45.3260
 1.2690	45.3260
 1.2700	45.3250
 1.2710	45.3240
 1.2720	45.3220
 1.2730	45.3180
 1.2740	45.3140
 1.2750	45.3070
 1.2760	45.2980
 1.2770	45.2890
 1.2780	45.2800
 1.2790	45.2690
 1.2800	45.2590
 1.2810	45.2480
 1.2820	45.2330
 1.2830	45.2160
 1.2840	45.1990
 1.2850	45.1770
 1.2860	45.1530
 1.2870	45.1260
 1.2880	45.0980
 1.2890	45.0630
 1.2900	45.0260
 1.2910	44.9890
 1.2920	44.9480
 1.2930	44.9070
 1.2940	44.8620
 1.2950	44.8140
 1.2960	44.7610
 1.2970	44.7050
 1.2980	44.6460
 1.2990	44.5850
 1.3000	44.5230
 1.3010	44.4580
 1.3020	44.3880
 1.3030	44.3140
 1.3040	44.2350
 1.3050	44.1550
 1.3060	44.0740
 1.3070	43.9900
 1.3080	43.9030
 1.3090	43.8130
 1.3100	43.7190
 1.3110	43.6230
 1.3120	43.5250
 1.3130	43.4220
 1.3140	43.3170
 1.3150	43.2100
 1.3160	43.1000
 1.3170	42.9890
 1.3180	42.8760
 1.3190	42.7570
 1.3200	42.6360
 1.3210	42.5110
 1.3220	42.3840
 1.3230	42.2560
 1.3240	42.1270
 1.3250	41.9970
 1.3260	41.8640
 1.3270	41.7260
 1.3280	41.5860
 1.3290	41.4440
 1.3300	41.2980
 1.3310	41.1530
 1.3320	41.0070
 1.3330	40.8600
 1.3340	40.7120
 1.3350	40.5630
 1.3360	40.4130
 1.3370	40.2630
 1.3380	40.1140
 1.3390	39.9680
 1.3400	39.8200
 1.3410	39.6760
 1.3420	39.5320
 1.3430	39.3880
 1.3440	39.2460
 1.3450	39.1060
 1.3460	38.9670
 1.3470	38.8310
 1.3480	38.6960
 1.3490	38.5640
 1.3500	38.4340
 1.3510	38.3050
 1.3520	38.1760
 1.3530	38.0490
 1.3540	37.9200
 1.3550	37.7920
 1.3560	37.6630
 1.3570	37.5330
 1.3580	37.4020
 1.3590	37.2690
 1.3600	37.1300
 1.3610	36.9890
 1.3620	36.8430
 1.3630	36.6910
 1.3640	36.5350
 1.3650	36.3720
 1.3660	36.2020
 1.3670	36.0240
 1.3680	35.8360
 1.3690	35.6360
 1.3700	35.4230
 1.3710	35.1960
 1.3720	34.9540
 1.3730	34.6930
 1.3740	34.4190
 1.3750	34.1240
 1.3760	33.8080
 1.3770	33.4710
 1.3780	33.1060
 1.3790	32.7170
 1.3800	32.3050
 1.3810	31.8650
 1.3820	31.4070
 1.3830	30.9270
 1.3840	30.4280
 1.3850	29.9090
 1.3860	29.3750
 1.3870	28.8180
 1.3880	28.2580
 1.3890	27.6850
 1.3900	27.1020
 1.3910	26.5220
 1.3920	25.9370
 1.3930	25.3500
 1.3940	24.7680
 1.3950	24.1840
 1.3960	23.6110
 1.3970	23.0510
 1.3980	22.5020
 1.3990	21.9760
 1.4000	21.4660
 1.4010	20.9700
 1.4020	20.4960
 1.4030	20.0390
 1.4040	19.6030
 1.4050	19.1910
 1.4060	18.7980
 1.4070	18.4300
 1.4080	18.0820
 1.4090	17.7530
 1.4100	17.4460
 1.4110	17.1570
 1.4120	16.8860
 1.4130	16.6350
 1.4140	16.3990
 1.4150	16.1820
 1.4160	15.9800
 1.4170	15.7900
 1.4180	15.6150
 1.4190	15.4510
 1.4200	15.2970
 1.4210	15.1570
 1.4220	15.0260
 1.4230	14.9060
 1.4240	14.7970
 1.4250	14.6940
 1.4260	14.6000
 1.4270	14.5120
 1.4280	14.4320
 1.4290	14.3580
 1.4300	14.2900
 1.4310	14.2280
 1.4320	14.1730
 1.4330	14.1220
 1.4340	14.0780
 1.4350	14.0380
 1.4360	14.0020
 1.4370	13.9700
 1.4380	13.9420
 1.4390	13.9170
 1.4400	13.8970
 1.4410	13.8790
 1.4420	13.8670
 1.4430	13.8560
 1.4440	13.8470
 1.4450	13.8420
 1.4460	13.8380
 1.4470	13.8360
 1.4480	13.8370
 1.4490	13.8400
 1.4500	13.8440
 1.4510	13.8500
 1.4520	13.8590
 1.4530	13.8700
 1.4540	13.8820
 1.4550	13.8960
 1.4560	13.9130
 1.4570	13.9310
 1.4580	13.9540
 1.4590	13.9790
 1.4600	14.0070
 1.4610	14.0390
 1.4620	14.0730
 1.4630	14.1120
 1.4640	14.1550
 1.4650	14.2010
 1.4660	14.2530
 1.4670	14.3090
 1.4680	14.3690
 1.4690	14.4320
 1.4700	14.4990
 1.4710	14.5720
 1.4720	14.6460
 1.4730	14.7230
 1.4740	14.8040
 1.4750	14.8870
 1.4760	14.9750
 1.4770	15.0650
 1.4780	15.1570
 1.4790	15.2510
 1.4800	15.3480
 1.4810	15.4460
 1.4820	15.5460
 1.4830	15.6480
 1.4840	15.7520
 1.4850	15.8570
 1.4860	15.9640
 1.4870	16.0720
 1.4880	16.1810
 1.4890	16.2900
 1.4900	16.4010
 1.4910	16.5130
 1.4920	16.6270
 1.4930	16.7420
 1.4940	16.8580
 1.4950	16.9740
 1.4960	17.0900
 1.4970	17.2070
 1.4980	17.3250
 1.4990	17.4430
 1.5000	17.5610
 1.5010	17.6820
 1.5020	17.8010
 1.5030	17.9210
 1.5040	18.0410
 1.5050	18.1580
 1.5060	18.2780
 1.5070	18.4000
 1.5080	18.5200
 1.5090	18.6410
 1.5100	18.7620
 1.5110	18.8820
 1.5120	19.0030
 1.5130	19.1230
 1.5140	19.2430
 1.5150	19.3630
 1.5160	19.4810
 1.5170	19.6010
 1.5180	19.7190
 1.5190	19.8380
 1.5200	19.9570
 1.5210	20.0740
 1.5220	20.1900
 1.5230	20.3060
 1.5240	20.4200
 1.5250	20.5350
 1.5260	20.6490
 1.5270	20.7630
 1.5280	20.8760
 1.5290	20.9860
 1.5300	21.0960
 1.5310	21.2070
 1.5320	21.3150
 1.5330	21.4250
 1.5340	21.5340
 1.5350	21.6410
 1.5360	21.7490
 1.5370	21.8550
 1.5380	21.9610
 1.5390	22.0670
 1.5400	22.1700
 1.5410	22.2730
 1.5420	22.3750
 1.5430	22.4760
 1.5440	22.5780
 1.5450	22.6780
 1.5460	22.7760
 1.5470	22.8760
 1.5480	22.9750
 1.5490	23.0730
 1.5500	23.1720
 1.5510	23.2670
 1.5520	23.3620
 1.5530	23.4560
 1.5540	23.5490
 1.5550	23.6420
 1.5560	23.7330
 1.5570	23.8250
 1.5580	23.9150
 1.5590	24.0040
 1.5600	24.0940
 1.5610	24.1820
 1.5620	24.2710
 1.5630	24.3580
 1.5640	24.4430
 1.5650	24.5290
 1.5660	24.6130
 1.5670	24.6970
 1.5680	24.7810
 1.5690	24.8620
 1.5700	24.9430
 1.5710	25.0240
 1.5720	25.1040
 1.5730	25.1840
 1.5740	25.2640
 1.5750	25.3430
 1.5760	25.4220
 1.5770	25.5010
 1.5780	25.5810
 1.5790	25.6610
 1.5800	25.7400
 1.5810	25.8180
 1.5820	25.8940
 1.5830	25.9700
 1.5840	26.0460
 1.5850	26.1210
 1.5860	26.1970
 1.5870	26.2710
 1.5880	26.3450
 1.5890	26.4200
 1.5900	26.4950
 1.5910	26.5710
 1.5920	26.6480
 1.5930	26.7220
 1.5940	26.7960
 1.5950	26.8710
 1.5960	26.9440
 1.5970	27.0170
 1.5980	27.0890
 1.5990	27.1600
 1.6000	27.2320
 1.6010	27.3030
 1.6020	27.3730
 1.6030	27.4430
 1.6040	27.5100
 1.6050	27.5770
 1.6060	27.6450
 1.6070	27.7120
 1.6080	27.7790
 1.6090	27.8450
 1.6100	27.9110
 1.6110	27.9760
 1.6120	28.0390
 1.6130	28.1020
 1.6140	28.1630
 1.6150	28.2230
 1.6160	28.2820
 1.6170	28.3390
 1.6180	28.3960
 1.6190	28.4510
 1.6200	28.5040
 1.6210	28.5580
 1.6220	28.6100
 1.6230	28.6600
 1.6240	28.7100
 1.6250	28.7580
 1.6260	28.8060
 1.6270	28.8540
 1.6280	28.9030
 1.6290	28.9490
 1.6300	28.9940
 1.6310	29.0390
 1.6320	29.0840
 1.6330	29.1270
 1.6340	29.1680
 1.6350	29.2090
 1.6360	29.2480
 1.6370	29.2860
 1.6380	29.3230
 1.6390	29.3580
 1.6400	29.3920
 1.6410	29.4240
 1.6420	29.4550
 1.6430	29.4850
 1.6440	29.5120
 1.6450	29.5390
 1.6460	29.5630
 1.6470	29.5870
 1.6480	29.6080
 1.6490	29.6260
 1.6500	29.6430
 1.6510	29.6580
 1.6520	29.6710
 1.6530	29.6810
 1.6540	29.6880
 1.6550	29.6940
 1.6560	29.6960
 1.6570	29.6960
 1.6580	29.6940
 1.6590	29.6900
 1.6600	29.6800
 1.6610	29.6710
 1.6620	29.6600
 1.6630	29.6450
 1.6640	29.6300
 1.6650	29.6130
 1.6660	29.5930
 1.6670	29.5710
 1.6680	29.5500
 1.6690	29.5300
 1.6700	29.5070
 1.6710	29.4840
 1.6720	29.4590
 1.6730	29.4320
 1.6740	29.4070
 1.6750	29.3800
 1.6760	29.3520
 1.6770	29.3230
 1.6780	29.2940
 1.6790	29.2640
 1.6800	29.2320
 1.6810	29.2000
 1.6820	29.1660
 1.6830	29.1300
 1.6840	29.0930
 1.6850	29.0530
 1.6860	29.0120
 1.6870	28.9710
 1.6880	28.9300
 1.6890	28.8900
 1.6900	28.8470
 1.6910	28.8030
 1.6920	28.7600
 1.6930	28.7160
 1.6940	28.6740
 1.6950	28.6330
 1.6960	28.5900
 1.6970	28.5460
 1.6980	28.5030
 1.6990	28.4590
 1.7000	28.4150
 1.7010	28.3730
 1.7020	28.3290
 1.7030	28.2850
 1.7040	28.2410
 1.7050	28.1970
 1.7060	28.1530
 1.7070	28.1100
 1.7080	28.0640
 1.7090	28.0180
 1.7100	27.9720
 1.7110	27.9230
 1.7120	27.8750
 1.7130	27.8270
 1.7140	27.7770
 1.7150	27.7260
 1.7160	27.6740
 1.7170	27.6210
 1.7180	27.5680
 1.7190	27.5150
 1.7200	27.4630
 1.7210	27.4110
 1.7220	27.3590
 1.7230	27.3080
 1.7240	27.2590
 1.7250	27.2110
 1.7260	27.1660
 1.7270	27.1260
 1.7280	27.0910
 1.7290	27.0570
 1.7300	27.0260
 1.7310	26.9940
 1.7320	26.9630
 1.7330	26.9330
 1.7340	26.9070
 1.7350	26.8770
 1.7360	26.8460
 1.7370	26.8130
 1.7380	26.7790
 1.7390	26.7420
 1.7400	26.7040
 1.7410	26.6610
 1.7420	26.6130
 1.7430	26.5640
 1.7440	26.5120
 1.7450	26.4600
 1.7460	26.4050
 1.7470	26.3500
 1.7480	26.2930
 1.7490	26.2350
 1.7500	26.1760
 1.7510	26.1180
 1.7520	26.0590
 1.7530	26.0010
 1.7540	25.9460
 1.7550	25.8890
 1.7560	25.8330
 1.7570	25.7760
 1.7580	25.7210
 1.7590	25.6680
 1.7600	25.6160
 1.7610	25.5650
 1.7620	25.5150
 1.7630	25.4660
 1.7640	25.4200
 1.7650	25.3770
 1.7660	25.3360
 1.7670	25.2980
 1.7680	25.2600
 1.7690	25.2230
 1.7700	25.1890
 1.7710	25.1550
 1.7720	25.1240
 1.7730	25.0960
 1.7740	25.0690
 1.7750	25.0440
 1.7760	25.0180
 1.7770	24.9920
 1.7780	24.9690
 1.7790	24.9470
 1.7800	24.9290
 1.7810	24.9160
 1.7820	24.9030
 1.7830	24.8910
 1.7840	24.8820
 1.7850	24.8740
 1.7860	24.8680
 1.7870	24.8650
 1.7880	24.8620
 1.7890	24.8600
 1.7900	24.8590
 1.7910	24.8620
 1.7920	24.8690
 1.7930	24.8750
 1.7940	24.8830
 1.7950	24.8910
 1.7960	24.8990
 1.7970	24.9080
 1.7980	24.9190
 1.7990	24.9300
 1.8000	24.9400
 1.8010	24.9520
 1.8020	24.9660
 1.8030	24.9790
 1.8040	24.9940
 1.8050	25.0080
 1.8060	25.0220
 1.8070	25.0370
 1.8080	25.0520
 1.8090	25.0670
 1.8100	25.0810
 1.8110	25.0950
 1.8120	25.1100
 1.8130	25.1230
 1.8140	25.1350
 1.8150	25.1460
 1.8160	25.1550
 1.8170	25.1630
 1.8180	25.1710
 1.8190	25.1810
 1.8200	25.1890
 1.8210	25.1980
 1.8220	25.2040
 1.8230	25.2060
 1.8240	25.2080
 1.8250	25.2080
 1.8260	25.2060
 1.8270	25.2000
 1.8280	25.1950
 1.8290	25.1880
 1.8300	25.1790
 1.8310	24.9620
 1.8320	24.9420
 1.8330	24.9180
 1.8340	24.8960
 1.8350	24.8670
 1.8360	24.8330
 1.8370	24.7980
 1.8380	24.7550
 1.8390	24.7080
 1.8400	24.6590
 1.8410	24.6030
 1.8420	24.5410
 1.8430	24.4730
 1.8440	24.3960
 1.8450	24.3100
 1.8460	24.2220
 1.8470	24.1240
 1.8480	24.0200
 1.8490	23.9110
 1.8500	23.7880
 1.8510	23.6540
 1.8520	23.5120
 1.8530	23.3590
 1.8540	23.1910
 1.8550	23.0050
 1.8560	22.8080
 1.8570	22.6000
 1.8580	22.3760
 1.8590	22.1400
 1.8600	21.8930
 1.8610	21.6330
 1.8620	21.3540
 1.8630	21.0650
 1.8640	20.7600
 1.8650	20.4360
 1.8660	20.0980
 1.8670	19.7360
 1.8680	19.3620
 1.8690	18.9750
 1.8700	18.5710
 1.8710	18.1500
 1.8720	17.7250
 1.8730	17.2880
 1.8740	16.8410
 1.8750	16.3920
 1.8760	15.9350
 1.8770	15.4780
 1.8780	15.0220
 1.8790	14.5630
 1.8800	14.1160
 1.8810	13.6730
 1.8820	13.2370
 1.8830	12.8070
 1.8840	12.3900
 1.8850	11.9820
 1.8860	11.5880
 1.8870	11.2120
 1.8880	10.8490
 1.8890	10.5050
 1.8900	10.1780
 1.8910	 9.8720
 1.8920	 9.5810
 1.8930	 9.3140
 1.8940	 9.0670
 1.8950	 8.8410
 1.8960	 8.6330
 1.8970	 8.4430
 1.8980	 8.2730
 1.8990	 8.1210
 1.9000	 7.9820
 1.9010	 7.8600
 1.9020	 7.7510
 1.9030	 7.6590
 1.9040	 7.5730
 1.9050	 7.4990
 1.9060	 7.4360
 1.9070	 7.3780
 1.9080	 7.3280
 1.9090	 7.2840
 1.9100	 7.2430
 1.9110	 7.2070
 1.9120	 7.1770
 1.9130	 7.1500
 1.9140	 7.1280
 1.9150	 7.1090
 1.9160	 7.0930
 1.9170	 7.0770
 1.9180	 7.0620
 1.9190	 7.0510
 1.9200	 7.0400
 1.9210	 7.0290
 1.9220	 7.0210
 1.9230	 7.0140
 1.9240	 7.0080
 1.9250	 7.0050
 1.9260	 7.0020
 1.9270	 7.0000
 1.9280	 7.0010
 1.9290	 7.0000
 1.9300	 7.0010
 1.9310	 7.0030
 1.9320	 7.0030
 1.9330	 7.0050
 1.9340	 7.0070
 1.9350	 7.0130
 1.9360	 7.0210
 1.9370	 7.0270
 1.9380	 7.0340
 1.9390	 7.0420
 1.9400	 7.0490
 1.9410	 7.0590
 1.9420	 7.0700
 1.9430	 7.0800
 1.9440	 7.0910
 1.9450	 7.1000
 1.9460	 7.1120
 1.9470	 7.1250
 1.9480	 7.1380
 1.9490	 7.1520
 1.9500	 7.1680
 1.9510	 7.1860
 1.9520	 7.2030
 1.9530	 7.2200
 1.9540	 7.2380
 1.9550	 7.2550
 1.9560	 7.2700
 1.9570	 7.2880
 1.9580	 7.3080
 1.9590	 7.3280
 1.9600	 7.3490
 1.9610	 7.3700
 1.9620	 7.3920
 1.9630	 7.4140
 1.9640	 7.4370
 1.9650	 7.4610
 1.9660	 7.4860
 1.9670	 7.5110
 1.9680	 7.5370
 1.9690	 7.5620
 1.9700	 7.5900
 1.9710	 7.6180
 1.9720	 7.6470
 1.9730	 7.6790
 1.9740	 7.7110
 1.9750	 7.7420
 1.9760	 7.7730
 1.9770	 7.8040
 1.9780	 7.8350
 1.9790	 7.8690
 1.9800	 7.9050
 1.9810	 7.9380
 1.9820	 7.9690
 1.9830	 8.0040
 1.9840	 8.0410
 1.9850	 8.0780
 1.9860	 8.1170
 1.9870	 8.1570
 1.9880	 8.1960
 1.9890	 8.2360
 1.9900	 8.2790
 1.9910	 8.3220
 1.9920	 8.3630
 1.9930	 8.4040
 1.9940	 8.4440
 1.9950	 8.4820
 1.9960	 8.5220
 1.9970	 8.5620
 1.9980	 8.6050
 1.9990	 8.6500
 2.0000	 8.6960
 2.0010	 8.7400
 2.0020	 8.7840
 2.0030	 8.8290
 2.0040	 8.8720
 2.0050	 8.9170
 2.0060	 8.9660
 2.0070	 9.0130
 2.0080	 9.0590
 2.0090	 9.1050
 2.0100	 9.1510
 2.0110	 9.1960
 2.0120	 9.2400
 2.0130	 9.2850
 2.0140	 9.3310
 2.0150	 9.3740
 2.0160	 9.4190
 2.0170	 9.4660
 2.0180	 9.5110
 2.0190	 9.5570
 2.0200	 9.6010
 2.0210	 9.6460
 2.0220	 9.6890
 2.0230	 9.7310
 2.0240	 9.7740
 2.0250	 9.8150
 2.0260	 9.8580
 2.0270	 9.9020
 2.0280	 9.9460
 2.0290	 9.9880
 2.0300	10.0310
 2.0310	10.0730
 2.0320	10.1130
 2.0330	10.1520
 2.0340	10.1890
 2.0350	10.2260
 2.0360	10.2610
 2.0370	10.2970
 2.0380	10.3320
 2.0390	10.3680
 2.0400	10.4060
 2.0410	10.4400
 2.0420	10.4720
 2.0430	10.5050
 2.0440	10.5360
 2.0450	10.5620
 2.0460	10.5940
 2.0470	10.6300
 2.0480	10.6630
 2.0490	10.6980
 2.0500	10.7300
 2.0510	10.7600
 2.0520	10.7900
 2.0530	10.8190
 2.0540	10.8510
 2.0550	10.8830
 2.0560	10.9180
 2.0570	10.9540
 2.0580	10.9890
 2.0590	11.0250
 2.0600	11.0610
 2.0610	11.0970
 2.0620	11.1340
 2.0630	11.1710
 2.0640	11.2080
 2.0650	11.2450
 2.0660	11.2810
 2.0670	11.3180
 2.0680	11.3540
 2.0690	11.3910
 2.0700	11.4330
 2.0710	11.4700
 2.0720	11.5050
 2.0730	11.5390
 2.0740	11.5740
 2.0750	11.6070
 2.0760	11.6420
 2.0770	11.6810
 2.0780	11.7170
 2.0790	11.7520
 2.0800	11.7870
 2.0810	11.8210
 2.0820	11.8570
 2.0830	11.8930
 2.0840	11.9280
 2.0850	11.9630
 2.0860	11.9990
 2.0870	12.0340
 2.0880	12.0710
 2.0890	12.1080
 2.0900	12.1450
 2.0910	12.1820
 2.0920	12.2190
 2.0930	12.2560
 2.0940	12.2940
 2.0950	12.3300
 2.0960	12.3650
 2.0970	12.3990
 2.0980	12.4330
 2.0990	12.4670
 2.1000	12.5010
 2.1010	12.5360
 2.1020	12.5710
 2.1030	12.6080
 2.1040	12.6460
 2.1050	12.6820
 2.1060	12.7210
 2.1070	12.7620
 2.1080	12.8000
 2.1090	12.8390
 2.1100	12.8760
 2.1110	12.9090
 2.1120	12.9440
 2.1130	12.9780
 2.1140	13.0130
 2.1150	13.0520
 2.1160	13.0880
 2.1170	13.1220
 2.1180	13.1600
 2.1190	13.1990
 2.1200	13.2360
 2.1210	13.2750
 2.1220	13.3130
 2.1230	13.3480
 2.1240	13.3790
 2.1250	13.4130
 2.1260	13.4460
 2.1270	13.4790
 2.1280	13.5110
 2.1290	13.5440
 2.1300	13.5770
 2.1310	13.6070
 2.1320	13.6340
 2.1330	13.6620
 2.1340	13.6860
 2.1350	13.7130
 2.1360	13.7450
 2.1370	13.7740
 2.1380	13.8020
 2.1390	13.8290
 2.1400	13.8560
 2.1410	13.8800
 2.1420	13.9050
 2.1430	13.9290
 2.1440	13.9550
 2.1450	13.9800
 2.1460	14.0070
 2.1470	14.0360
 2.1480	14.0620
 2.1490	14.0860
 2.1500	14.1120
 2.1510	14.1380
 2.1520	14.1650
 2.1530	14.1950
 2.1540	14.2210
 2.1550	14.2400
 2.1560	14.2650
 2.1570	14.2900
 2.1580	14.3150
 2.1590	14.3400
 2.1600	14.3680
 2.1610	14.3910
 2.1620	14.4120
 2.1630	14.4350
 2.1640	14.4570
 2.1650	14.4810
 2.1660	14.5070
 2.1670	14.5320
 2.1680	14.5580
 2.1690	14.5810
 2.1700	14.6000
 2.1710	14.6220
 2.1720	14.6420
 2.1730	14.6640
 2.1740	14.6880
 2.1750	14.7130
 2.1760	14.7370
 2.1770	14.7620
 2.1780	14.7900
 2.1790	14.8160
 2.1800	14.8420
 2.1810	14.8670
 2.1820	14.8920
 2.1830	14.9130
 2.1840	14.9370
 2.1850	14.9600
 2.1860	14.9860
 2.1870	15.0140
 2.1880	15.0400
 2.1890	15.0670
 2.1900	15.0910
 2.1910	15.1130
 2.1920	15.1370
 2.1930	15.1600
 2.1940	15.1820
 2.1950	15.2040
 2.1960	15.2250
 2.1970	15.2450
 2.1980	15.2640
 2.1990	15.2820
 2.2000	15.3000
 2.2010	15.3190
 2.2020	15.3370
 2.2030	15.3570
 2.2040	15.3730
 2.2050	15.3860
 2.2060	15.3980
 2.2070	15.4090
 2.2080	15.4180
 2.2090	15.4290
 2.2100	15.4390
 2.2110	15.4490
 2.2120	15.4580
 2.2130	15.4650
 2.2140	15.4720
 2.2150	15.4760
 2.2160	15.4810
 2.2170	15.4810
 2.2180	15.4780
 2.2190	15.4740
 2.2200	15.4650
 2.2210	15.4550
 2.2220	15.4460
 2.2230	15.4310
 2.2240	15.4090
 2.2250	15.3880
 2.2260	15.3650
 2.2270	15.3410
 2.2280	15.3210
 2.2290	15.2930
 2.2300	15.2580
 2.2310	15.2220
 2.2320	15.1810
 2.2330	15.1370
 2.2340	15.0940
 2.2350	15.0500
 2.2360	15.0040
 2.2370	14.9560
 2.2380	14.9060
 2.2390	14.8540
 2.2400	14.8000
 2.2410	14.7450
 2.2420	14.6860
 2.2430	14.6210
 2.2440	14.5610
 2.2450	14.4990
 2.2460	14.4380
 2.2470	14.3780
 2.2480	14.3160
 2.2490	14.2520
 2.2500	14.1890
 2.2510	14.1280
 2.2520	14.0680
 2.2530	14.0100
 2.2540	13.9510
 2.2550	13.8910
 2.2560	13.8330
 2.2570	13.7730
 2.2580	13.7170
 2.2590	13.6660
 2.2600	13.6130
 2.2610	13.5610
 2.2620	13.5080
 2.2630	13.4560
 2.2640	13.4040
 2.2650	13.3580
 2.2660	13.3170
 2.2670	13.2690
 2.2680	13.2200
 2.2690	13.1700
 2.2700	13.1110
 2.2710	13.0670
 2.2720	13.0280
 2.2730	12.9910
 2.2740	12.9620
 2.2750	12.9290
 2.2760	12.8970
 2.2770	12.8660
 2.2780	12.8380
 2.2790	12.8070
 2.2800	12.7780
 2.2810	12.7460
 2.2820	12.7110
 2.2830	12.6800
 2.2840	12.6500
 2.2850	12.6210
 2.2860	12.5990
 2.2870	12.5700
 2.2880	12.5380
 2.2890	12.5080
 2.2900	12.4770
 2.2910	12.4430
 2.2920	12.4090
 2.2930	12.3710
 2.2940	12.3270
 2.2950	12.2870
 2.2960	12.2470
 2.2970	12.2090
 2.2980	12.1740
 2.2990	12.1370
 2.3000	12.1030
 2.3010	12.0660
 2.3020	12.0250
 2.3030	11.9870
 2.3040	11.9470
 2.3050	11.9080
 2.3060	11.8770
 2.3070	11.8470
 2.3080	11.8200
 2.3090	11.7990
 2.3100	11.7750
 2.3110	11.7500
 2.3120	11.7260
 2.3130	11.7010
 2.3140	11.6780
 2.3150	11.6560
 2.3160	11.6400
 2.3170	11.6290
 2.3180	11.6140
 2.3190	11.6020
 2.3200	11.5830
 2.3210	11.5580
 2.3220	11.5340
 2.3230	11.5060
 2.3240	11.4830
 2.3250	11.4580
 2.3260	11.4350
 2.3270	11.4180
 2.3280	11.3930
 2.3290	11.3650
 2.3300	11.3380
 2.3310	11.3070
 2.3320	11.2760
 2.3330	11.2470
 2.3340	11.2160
 2.3350	11.1790
 2.3360	11.1460
 2.3370	11.1160
 2.3380	11.0830
 2.3390	11.0490
 2.3400	11.0170
 2.3410	10.9800
 2.3420	10.9530
 2.3430	10.9350
 2.3440	10.9120
 2.3450	10.8890
 2.3460	10.8670
 2.3470	10.8450
 2.3480	10.8190
 2.3490	10.7870
 2.3500	10.7610
 2.3510	10.7290
 2.3520	10.7050
 2.3530	10.6880
 2.3540	10.6810
 2.3550	10.6640
 2.3560	10.6340
 2.3570	10.6050
 2.3580	10.5790
 2.3590	10.5550
 2.3600	10.5420
 2.3610	10.5250
 2.3620	10.5030
 2.3630	10.4830
 2.3640	10.4630
 2.3650	10.4510
 2.3660	10.4330
 2.3670	10.4210
 2.3680	10.4060
 2.3690	10.3740
 2.3700	10.3390
 2.3710	10.2970
 2.3720	10.2570
 2.3730	10.2250
 2.3740	10.1960
 2.3750	10.1760
 2.3760	10.1580
 2.3770	10.1400
 2.3780	10.1300
 2.3790	10.1090
 2.3800	10.0770
 2.3810	10.0460
 2.3820	10.0110
 2.3830	 9.9720
 2.3840	 9.9370
 2.3850	 9.9090
 2.3860	 9.8900
 2.3870	 9.8730
 2.3880	 9.8560
 2.3890	 9.8390
 2.3900	 9.8110
 2.3910	 9.7840
 2.3920	 9.7600
 2.3930	 9.7260
 2.3940	 9.6930
 2.3950	 9.6660
 2.3960	 9.6320
 2.3970	 9.6040
 2.3980	 9.5770
 2.3990	 9.5380
 2.4000	 9.5020
 2.4010	 9.4750
 2.4020	 9.4470
 2.4030	 9.4130
 2.4040	 9.3920
 2.4050	 9.3750
 2.4060	 9.3460
 2.4070	 9.3230
 2.4080	 9.3030
 2.4090	 9.2730
 2.4100	 9.2470
 2.4110	 9.2310
 2.4120	 9.2070
 2.4130	 9.1770
 2.4140	 9.1470
 2.4150	 9.1190
 2.4160	 9.0950
 2.4170	 9.0710
 2.4180	 9.0550
 2.4190	 9.0320
 2.4200	 8.9970
 2.4210	 8.9720
 2.4220	 8.9500
 2.4230	 8.9270
 2.4240	 8.9110
 2.4250	 8.8760
 2.4260	 8.8240
 2.4270	 8.7830
 2.4280	 8.7450
 2.4290	 8.7120
 2.4300	 8.6910
 2.4310	 8.6640
 2.4320	 8.6280
 2.4330	 8.6120
 2.4340	 8.5890
 2.4350	 8.5710
 2.4360	 8.5570
 2.4370	 8.5260
 2.4380	 8.5130
 2.4390	 8.4860
 2.4400	 8.4530
 2.4410	 8.4340
 2.4420	 8.4040
 2.4430	 8.3790
 2.4440	 8.3460
 2.4450	 8.3150
 2.4460	 8.2780
 2.4470	 8.2520
 2.4480	 8.2420
 2.4490	 8.2140
 2.4500	 8.1920
 2.4510	 8.1690
 2.4520	 8.1340
 2.4530	 8.0960
 2.4540	 8.0730
 2.4550	 8.0630
 2.4560	 8.0360
 2.4570	 8.0340
 2.4580	 8.0290
 2.4590	 7.9980
 2.4600	 8.0020
 2.4610	 8.0150
 2.4620	 8.0040
 2.4630	 7.9860
 2.4640	 7.9590
 2.4650	 7.9300
 2.4660	 7.9230
 2.4670	 7.8950
 2.4680	 7.8450
 2.4690	 7.7840
 2.4700	 7.7560
 2.4710	 7.7730
 2.4720	 7.7720
 2.4730	 7.7710
 2.4740	 7.7580
 2.4750	 7.7360
 2.4760	 7.7390
 2.4770	 7.7620
 2.4780	 7.7700
 2.4790	 7.7780
 2.4800	 7.7830
 2.4810	 7.7760
 2.4820	 7.7790
 2.4830	 7.7520
 2.4840	 7.7210
 2.4850	 7.7170
 2.4860	 7.6980
 2.4870	 7.7200
 2.4880	 7.7230
 2.4890	 7.6970
 2.4900	 7.7040
 2.4910	 7.6810
 2.4920	 7.6840
 2.4930	 7.7120
 2.4940	 7.6920
 2.4950	 7.7000
 2.4960	 7.6930
 2.4970	 7.6430
 2.4980	 7.6160
 2.4990	 7.5630
 2.5000	 7.5560
