Name: Umbellularia californica 1
Type: vegetation
Class: Shrub
Genus: Umbellularia
Species: californica
Sample No.: VH236
Owner: UCSB
Wavelength Range: TIR
Origin: 34.5074; -119.7634; WGS84
Collection Date: 10/13/2013
Description: Samples were collected as part of the HyspIRI Airborne Campaign. 48 individual plants were sampled in three times in 2013 - spring  summer  and fall. The name of the sample includes a 1  2  or 3 which references a different individual of the species. Samples were taken to JPL and processed within 48 hours of collection. The same leaves were processed in the Nicolet and then measured using the ASD.
Measurement: Hemispherical reflectance
First Column: X
Second Column: Y
X Units: Wavelength (micrometers)
Y Units: Reflectance (percentage)
First X Value: 2.501
Last X Value: 15.387
Number of X Values: 1737
Additional Information: vegetation.shrub.umbellularia.californica.tir.vh236.ucsb.nicolet.ancillary.txt

 2.5010	 7.3880
 2.5030	 7.4430
 2.5040	 7.3170
 2.5050	 7.0130
 2.5060	 6.9910
 2.5070	 6.8580
 2.5090	 6.8100
 2.5100	 6.9140
 2.5110	 7.2050
 2.5120	 7.2560
 2.5140	 7.0650
 2.5150	 7.1300
 2.5160	 7.1190
 2.5170	 7.1260
 2.5180	 7.0120
 2.5200	 6.9670
 2.5210	 7.0660
 2.5220	 6.9400
 2.5230	 6.8450
 2.5250	 6.8590
 2.5260	 6.9230
 2.5270	 6.9340
 2.5280	 6.9980
 2.5290	 6.9150
 2.5310	 6.9970
 2.5320	 7.0840
 2.5330	 6.9940
 2.5340	 6.8740
 2.5360	 6.9490
 2.5370	 7.0030
 2.5380	 7.0300
 2.5390	 6.9050
 2.5410	 6.8170
 2.5420	 6.6370
 2.5430	 6.8170
 2.5440	 6.9630
 2.5460	 7.0470
 2.5470	 6.9180
 2.5480	 7.0650
 2.5490	 7.1930
 2.5510	 7.1710
 2.5520	 7.1550
 2.5530	 7.2110
 2.5540	 7.0990
 2.5560	 7.0470
 2.5570	 7.2030
 2.5580	 7.2710
 2.5590	 7.2700
 2.5610	 7.2800
 2.5620	 7.1310
 2.5630	 7.1670
 2.5640	 7.1770
 2.5660	 7.1830
 2.5670	 7.1750
 2.5680	 7.2050
 2.5700	 7.1050
 2.5710	 7.2120
 2.5720	 7.2200
 2.5730	 7.2310
 2.5750	 7.1540
 2.5760	 7.1730
 2.5770	 7.1650
 2.5790	 7.0230
 2.5800	 7.0380
 2.5810	 7.2470
 2.5820	 6.9100
 2.5840	 6.8060
 2.5850	 7.0110
 2.5860	 7.2150
 2.5880	 7.2620
 2.5890	 7.2380
 2.5900	 7.1470
 2.5910	 7.0160
 2.5930	 7.0660
 2.5940	 7.1930
 2.5950	 7.1990
 2.5970	 7.1560
 2.5980	 6.9390
 2.5990	 6.9370
 2.6000	 7.0300
 2.6020	 7.0460
 2.6030	 6.8870
 2.6040	 6.8440
 2.6060	 6.7720
 2.6070	 6.8800
 2.6080	 6.8860
 2.6100	 6.9110
 2.6110	 6.8640
 2.6120	 6.8790
 2.6140	 6.7250
 2.6150	 6.6870
 2.6160	 6.7490
 2.6180	 6.7110
 2.6190	 6.4720
 2.6200	 6.3570
 2.6220	 6.5050
 2.6230	 6.5680
 2.6240	 6.5840
 2.6260	 6.4830
 2.6270	 6.3090
 2.6280	 6.5770
 2.6300	 6.5170
 2.6310	 6.4180
 2.6320	 6.5170
 2.6340	 6.5540
 2.6350	 6.3920
 2.6360	 6.2270
 2.6380	 6.1380
 2.6390	 6.1380
 2.6400	 6.1930
 2.6420	 6.2410
 2.6430	 6.2590
 2.6440	 6.1890
 2.6460	 6.0110
 2.6470	 6.0130
 2.6480	 6.0520
 2.6500	 6.1050
 2.6510	 6.0370
 2.6520	 5.9080
 2.6540	 5.8080
 2.6550	 5.7900
 2.6560	 5.6070
 2.6580	 5.7030
 2.6590	 5.7200
 2.6610	 5.7640
 2.6620	 5.7290
 2.6630	 5.5690
 2.6650	 5.4740
 2.6660	 5.4990
 2.6670	 5.4850
 2.6690	 5.6780
 2.6700	 5.6440
 2.6720	 5.5210
 2.6730	 5.4640
 2.6740	 5.3750
 2.6760	 5.2880
 2.6770	 5.2990
 2.6780	 5.1900
 2.6800	 5.1810
 2.6810	 5.1470
 2.6830	 5.2470
 2.6840	 5.2730
 2.6850	 5.1320
 2.6870	 5.0730
 2.6880	 5.0040
 2.6900	 4.8910
 2.6910	 4.9720
 2.6920	 4.9340
 2.6940	 5.0390
 2.6950	 4.9100
 2.6970	 4.5270
 2.6980	 4.4160
 2.6990	 4.5070
 2.7010	 4.3170
 2.7020	 4.2440
 2.7040	 4.4430
 2.7050	 4.4400
 2.7060	 4.2500
 2.7080	 4.3490
 2.7090	 4.4710
 2.7110	 4.4140
 2.7120	 4.2770
 2.7130	 4.2690
 2.7150	 4.3180
 2.7160	 4.5310
 2.7180	 4.6590
 2.7190	 4.5380
 2.7210	 4.3770
 2.7220	 4.5970
 2.7230	 4.1570
 2.7250	 3.7330
 2.7260	 3.7300
 2.7280	 4.0120
 2.7290	 3.8740
 2.7310	 4.0010
 2.7320	 4.1360
 2.7330	 4.1100
 2.7350	 4.1670
 2.7360	 4.2190
 2.7380	 4.0960
 2.7390	 3.9170
 2.7410	 3.6930
 2.7420	 4.0100
 2.7440	 4.2220
 2.7450	 4.0040
 2.7470	 3.2810
 2.7480	 2.9810
 2.7490	 3.2870
 2.7510	 4.0610
 2.7520	 4.2800
 2.7540	 3.8200
 2.7550	 4.2600
 2.7570	 4.2160
 2.7580	 3.9210
 2.7600	 4.0020
 2.7610	 4.1940
 2.7630	 4.5230
 2.7640	 4.3610
 2.7660	 4.0490
 2.7670	 3.6930
 2.7680	 3.2660
 2.7700	 3.0280
 2.7710	 3.0440
 2.7730	 3.4150
 2.7740	 3.9470
 2.7760	 4.0340
 2.7770	 4.0150
 2.7790	 4.0320
 2.7800	 3.8300
 2.7820	 3.7680
 2.7830	 3.7020
 2.7850	 3.7540
 2.7860	 3.7950
 2.7880	 3.8170
 2.7890	 3.7760
 2.7910	 3.7250
 2.7920	 3.7190
 2.7940	 3.7750
 2.7950	 3.5410
 2.7970	 3.2890
 2.7980	 3.5850
 2.8000	 3.7920
 2.8010	 3.8680
 2.8030	 3.7720
 2.8040	 3.6780
 2.8060	 3.6100
 2.8070	 3.6400
 2.8090	 3.7120
 2.8110	 3.7050
 2.8120	 3.5300
 2.8140	 3.5670
 2.8150	 3.6100
 2.8170	 3.5920
 2.8180	 3.3730
 2.8200	 3.2790
 2.8210	 3.6090
 2.8230	 3.5030
 2.8240	 3.5630
 2.8260	 4.0840
 2.8270	 3.7250
 2.8290	 3.3590
 2.8300	 3.4530
 2.8320	 3.5310
 2.8340	 3.5650
 2.8350	 3.6470
 2.8370	 3.5490
 2.8380	 3.6350
 2.8400	 3.7030
 2.8410	 3.6660
 2.8430	 3.6860
 2.8440	 3.6600
 2.8460	 3.4740
 2.8480	 3.2420
 2.8490	 3.5310
 2.8510	 3.8430
 2.8520	 3.7050
 2.8540	 3.6540
 2.8550	 3.6010
 2.8570	 3.7310
 2.8590	 3.7150
 2.8600	 3.6200
 2.8620	 3.6050
 2.8630	 3.5500
 2.8650	 3.4670
 2.8660	 3.4990
 2.8680	 3.5020
 2.8700	 3.6540
 2.8710	 3.7790
 2.8730	 3.7300
 2.8740	 3.4940
 2.8760	 3.2990
 2.8780	 3.5820
 2.8790	 3.9180
 2.8810	 3.6570
 2.8820	 2.7590
 2.8840	 2.6770
 2.8860	 3.0420
 2.8870	 3.6420
 2.8890	 3.9520
 2.8900	 3.5980
 2.8920	 3.6490
 2.8940	 3.7530
 2.8950	 3.7910
 2.8970	 3.9710
 2.8980	 3.8180
 2.9000	 3.4240
 2.9020	 3.5540
 2.9030	 3.7590
 2.9050	 3.4600
 2.9070	 3.3780
 2.9080	 3.4620
 2.9100	 3.4880
 2.9120	 3.8310
 2.9130	 3.7810
 2.9150	 3.5620
 2.9160	 3.7560
 2.9180	 3.8670
 2.9200	 3.6290
 2.9210	 3.8040
 2.9230	 3.7840
 2.9250	 3.7320
 2.9260	 3.5880
 2.9280	 3.7490
 2.9300	 3.7160
 2.9310	 3.5460
 2.9330	 3.5720
 2.9350	 3.7020
 2.9360	 3.5750
 2.9380	 3.6750
 2.9400	 3.8080
 2.9410	 3.8650
 2.9430	 3.7200
 2.9450	 3.7520
 2.9460	 3.5330
 2.9480	 2.6160
 2.9500	 2.6380
 2.9510	 3.6890
 2.9530	 3.4630
 2.9550	 3.3670
 2.9560	 3.6820
 2.9580	 3.9350
 2.9600	 3.6570
 2.9610	 2.7530
 2.9630	 3.4410
 2.9650	 5.1080
 2.9660	 5.0270
 2.9680	 3.9720
 2.9700	 3.0870
 2.9720	 3.1830
 2.9730	 4.1890
 2.9750	 1.3480
 2.9770	 -0.308
 2.9780	 1.0580
 2.9800	 3.4410
 2.9820	 4.9470
 2.9840	 4.6840
 2.9850	 4.1390
 2.9870	 4.4210
 2.9890	 4.3290
 2.9900	 5.2360
 2.9920	 5.8860
 2.9940	 7.7390
 2.9960	 9.8240
 2.9970	 6.5460
 2.9990	 3.4860
 3.0010	 4.6230
 3.0030	 5.3180
 3.0040	 4.7940
 3.0060	 3.4030
 3.0080	 3.4400
 3.0100	 3.7030
 3.0110	 2.6650
 3.0130	 1.7900
 3.0150	 2.1430
 3.0170	 3.9690
 3.0180	 4.6110
 3.0200	 4.0260
 3.0220	 3.5300
 3.0240	 3.8030
 3.0250	 3.6880
 3.0270	 3.8080
 3.0290	 4.0630
 3.0310	 3.3200
 3.0320	 3.2210
 3.0340	 3.7850
 3.0360	 5.0750
 3.0380	 5.5660
 3.0400	 3.9580
 3.0410	 3.5410
 3.0430	 5.4790
 3.0450	 4.3750
 3.0470	 1.2020
 3.0480	 1.8990
 3.0500	 4.5800
 3.0520	 6.1320
 3.0540	 5.5840
 3.0560	 5.0760
 3.0570	 6.2860
 3.0590	 5.6840
 3.0610	 4.1300
 3.0630	 4.0130
 3.0650	 3.7520
 3.0660	 2.9850
 3.0680	 2.2030
 3.0700	 2.7440
 3.0720	 4.8980
 3.0740	 6.2660
 3.0760	 4.3950
 3.0770	 3.9340
 3.0790	 4.3570
 3.0810	 4.3100
 3.0830	 3.9220
 3.0850	 3.8570
 3.0870	 3.8540
 3.0880	 4.1630
 3.0900	 4.2930
 3.0920	 4.5270
 3.0940	 4.4780
 3.0960	 4.2270
 3.0980	 4.0160
 3.0990	 3.8320
 3.1010	 3.2770
 3.1030	 3.4860
 3.1050	 3.6540
 3.1070	 3.3690
 3.1090	 3.3550
 3.1110	 3.6280
 3.1120	 3.5880
 3.1140	 3.9090
 3.1160	 3.7530
 3.1180	 3.6160
 3.1200	 3.7840
 3.1220	 3.8290
 3.1240	 3.5960
 3.1260	 3.4790
 3.1270	 3.9070
 3.1290	 4.6900
 3.1310	 4.5500
 3.1330	 3.9070
 3.1350	 3.9600
 3.1370	 4.6020
 3.1390	 4.9930
 3.1410	 4.6310
 3.1430	 3.7900
 3.1450	 4.0860
 3.1460	 3.8800
 3.1480	 4.2510
 3.1500	 4.3200
 3.1520	 3.8330
 3.1540	 4.4070
 3.1560	 4.8390
 3.1580	 4.9530
 3.1600	 4.3330
 3.1620	 5.5260
 3.1640	 6.7790
 3.1660	 5.8170
 3.1680	 6.7540
 3.1700	 7.9550
 3.1710	 6.7690
 3.1730	 3.8530
 3.1750	 5.3100
 3.1770	 5.3700
 3.1790	 3.9410
 3.1810	 4.1600
 3.1830	 4.9300
 3.1850	 4.7100
 3.1870	 4.1080
 3.1890	 4.4770
 3.1910	 4.5340
 3.1930	 4.4030
 3.1950	 4.3070
 3.1970	 4.2690
 3.1990	 4.2600
 3.2010	 4.2040
 3.2030	 4.0610
 3.2050	 3.7740
 3.2070	 3.7890
 3.2090	 4.0930
 3.2110	 3.8790
 3.2130	 3.6820
 3.2150	 3.6930
 3.2170	 4.0450
 3.2190	 4.3840
 3.2210	 4.1710
 3.2230	 3.8330
 3.2250	 3.8750
 3.2270	 4.1020
 3.2290	 4.1450
 3.2310	 3.9710
 3.2330	 3.6790
 3.2350	 3.8920
 3.2370	 4.1140
 3.2390	 4.0380
 3.2410	 4.0270
 3.2430	 4.3160
 3.2450	 4.2950
 3.2470	 3.8790
 3.2490	 3.8790
 3.2510	 4.2180
 3.2530	 3.9250
 3.2550	 3.7740
 3.2570	 4.1240
 3.2590	 4.1860
 3.2610	 3.9070
 3.2630	 3.8910
 3.2650	 3.8400
 3.2670	 3.8850
 3.2690	 3.8480
 3.2720	 4.1770
 3.2740	 4.3400
 3.2760	 4.1460
 3.2780	 3.8240
 3.2800	 3.7110
 3.2820	 3.8250
 3.2840	 3.8510
 3.2860	 3.8890
 3.2880	 3.9350
 3.2900	 3.8540
 3.2920	 4.1050
 3.2940	 4.0870
 3.2960	 4.0670
 3.2990	 3.7310
 3.3010	 3.4030
 3.3030	 3.6720
 3.3050	 3.7290
 3.3070	 3.6660
 3.3090	 3.4300
 3.3110	 3.6200
 3.3130	 4.0920
 3.3150	 4.2840
 3.3180	 4.4770
 3.3200	 4.6000
 3.3220	 4.5890
 3.3240	 4.3420
 3.3260	 4.1890
 3.3280	 4.2650
 3.3300	 4.3820
 3.3330	 4.2720
 3.3350	 4.1310
 3.3370	 3.8810
 3.3390	 3.7450
 3.3410	 3.6950
 3.3430	 3.6110
 3.3450	 3.5590
 3.3480	 3.6300
 3.3500	 3.8590
 3.3520	 3.9650
 3.3540	 3.8890
 3.3560	 3.8780
 3.3580	 3.6890
 3.3610	 3.6960
 3.3630	 3.7190
 3.3650	 3.8530
 3.3670	 3.8610
 3.3690	 3.8440
 3.3720	 3.7110
 3.3740	 3.7860
 3.3760	 3.8260
 3.3780	 3.8190
 3.3800	 3.7990
 3.3830	 3.8710
 3.3850	 3.8120
 3.3870	 3.6710
 3.3890	 3.6400
 3.3910	 3.5460
 3.3940	 3.3500
 3.3960	 3.4440
 3.3980	 3.5240
 3.4000	 3.7350
 3.4020	 3.9290
 3.4050	 4.0480
 3.4070	 4.0440
 3.4090	 4.1530
 3.4110	 4.3080
 3.4140	 4.4790
 3.4160	 4.6690
 3.4180	 4.9650
 3.4200	 5.4460
 3.4230	 6.1590
 3.4250	 7.0930
 3.4270	 8.2120
 3.4290	 8.9300
 3.4320	 8.6270
 3.4340	 7.6300
 3.4360	 6.6690
 3.4390	 6.1050
 3.4410	 6.0620
 3.4430	 5.7210
 3.4450	 5.4250
 3.4480	 5.6670
 3.4500	 5.6360
 3.4520	 5.4420
 3.4550	 5.6200
 3.4570	 5.5100
 3.4590	 5.3420
 3.4620	 5.1230
 3.4640	 5.0290
 3.4660	 4.9940
 3.4680	 4.9980
 3.4710	 4.8800
 3.4730	 4.7730
 3.4750	 4.6680
 3.4780	 4.6260
 3.4800	 4.5130
 3.4820	 4.5300
 3.4850	 4.5500
 3.4870	 4.5990
 3.4890	 4.5000
 3.4920	 4.3480
 3.4940	 4.2930
 3.4970	 4.4080
 3.4990	 4.5220
 3.5010	 4.5510
 3.5040	 4.7970
 3.5060	 5.4350
 3.5080	 6.4570
 3.5110	 7.4590
 3.5130	 7.3890
 3.5160	 6.8780
 3.5180	 6.3140
 3.5200	 5.8760
 3.5230	 5.5960
 3.5250	 5.4190
 3.5270	 5.1940
 3.5300	 5.0830
 3.5320	 5.1490
 3.5350	 5.0880
 3.5370	 4.8730
 3.5400	 4.8570
 3.5420	 4.7340
 3.5440	 4.6840
 3.5470	 4.6680
 3.5490	 4.7830
 3.5520	 4.6280
 3.5540	 4.5660
 3.5570	 4.6100
 3.5590	 4.6980
 3.5610	 4.7150
 3.5640	 4.7120
 3.5660	 4.6310
 3.5690	 4.5400
 3.5710	 4.5640
 3.5740	 4.5830
 3.5760	 4.5220
 3.5790	 4.6770
 3.5810	 4.7140
 3.5840	 4.6040
 3.5860	 4.5540
 3.5890	 4.6080
 3.5910	 4.7670
 3.5930	 5.0980
 3.5960	 4.9280
 3.5980	 4.5070
 3.6010	 4.4580
 3.6030	 4.3050
 3.6060	 4.3440
 3.6080	 4.6190
 3.6110	 4.6110
 3.6140	 4.5750
 3.6160	 4.6560
 3.6190	 4.4230
 3.6210	 4.2610
 3.6240	 4.4380
 3.6260	 4.4490
 3.6290	 4.4750
 3.6310	 4.5470
 3.6340	 4.5260
 3.6360	 4.4520
 3.6390	 4.6330
 3.6410	 4.6100
 3.6440	 4.5080
 3.6470	 4.4660
 3.6490	 4.5050
 3.6520	 4.5400
 3.6540	 4.5550
 3.6570	 4.4430
 3.6590	 4.4390
 3.6620	 4.4260
 3.6650	 4.5270
 3.6670	 4.6300
 3.6700	 4.5590
 3.6720	 4.4040
 3.6750	 4.3290
 3.6780	 4.3930
 3.6800	 4.4280
 3.6830	 4.5060
 3.6850	 4.5630
 3.6880	 4.4720
 3.6910	 4.4950
 3.6930	 4.3520
 3.6960	 4.3210
 3.6990	 4.3980
 3.7010	 4.4480
 3.7040	 4.5580
 3.7060	 4.5830
 3.7090	 4.5210
 3.7120	 4.5430
 3.7140	 4.6090
 3.7170	 4.4640
 3.7200	 4.2550
 3.7220	 4.3690
 3.7250	 4.4760
 3.7280	 4.4170
 3.7300	 4.4220
 3.7330	 4.4460
 3.7360	 4.4890
 3.7390	 4.4850
 3.7410	 4.4530
 3.7440	 4.6080
 3.7470	 4.4390
 3.7490	 4.3790
 3.7520	 4.4900
 3.7550	 4.4330
 3.7580	 4.3880
 3.7600	 4.4520
 3.7630	 4.4250
 3.7660	 4.2410
 3.7680	 4.1570
 3.7710	 4.2790
 3.7740	 4.4030
 3.7770	 4.4070
 3.7790	 4.4370
 3.7820	 4.6140
 3.7850	 4.6120
 3.7880	 4.6260
 3.7900	 4.6290
 3.7930	 4.5660
 3.7960	 4.5060
 3.7990	 4.4690
 3.8020	 4.4660
 3.8040	 4.5130
 3.8070	 4.5300
 3.8100	 4.5600
 3.8130	 4.4380
 3.8160	 4.4490
 3.8180	 4.5960
 3.8210	 4.5430
 3.8240	 4.4870
 3.8270	 4.5520
 3.8300	 4.6230
 3.8330	 4.6750
 3.8350	 4.6620
 3.8380	 4.5680
 3.8410	 4.5380
 3.8440	 4.6480
 3.8470	 4.7210
 3.8500	 4.7370
 3.8520	 4.7000
 3.8550	 4.5520
 3.8580	 4.4770
 3.8610	 4.6040
 3.8640	 4.6370
 3.8670	 4.5360
 3.8700	 4.6200
 3.8730	 4.6450
 3.8750	 4.5040
 3.8780	 4.4830
 3.8810	 4.4630
 3.8840	 4.3820
 3.8870	 4.4360
 3.8900	 4.6100
 3.8930	 4.5570
 3.8960	 4.4090
 3.8990	 4.3790
 3.9020	 4.3470
 3.9050	 4.4970
 3.9080	 4.5460
 3.9110	 4.4600
 3.9140	 4.5420
 3.9160	 4.6070
 3.9190	 4.5880
 3.9220	 4.5290
 3.9250	 4.4660
 3.9280	 4.4570
 3.9310	 4.4630
 3.9340	 4.4680
 3.9370	 4.5840
 3.9400	 4.6060
 3.9430	 4.5850
 3.9460	 4.4980
 3.9490	 4.4510
 3.9520	 4.4930
 3.9550	 4.5680
 3.9580	 4.5240
 3.9610	 4.4930
 3.9640	 4.5870
 3.9670	 4.6440
 3.9700	 4.6600
 3.9730	 4.6370
 3.9770	 4.5010
 3.9800	 4.5160
 3.9830	 4.5240
 3.9860	 4.4520
 3.9890	 4.4340
 3.9920	 4.5210
 3.9950	 4.5030
 3.9980	 4.4730
 4.0010	 4.5020
 4.0040	 4.4870
 4.0070	 4.4470
 4.0100	 4.4350
 4.0130	 4.3930
 4.0170	 4.4440
 4.0200	 4.4730
 4.0230	 4.4480
 4.0260	 4.4370
 4.0290	 4.4160
 4.0320	 4.4040
 4.0350	 4.4720
 4.0380	 4.5270
 4.0420	 4.5320
 4.0450	 4.4970
 4.0480	 4.5510
 4.0510	 4.6130
 4.0540	 4.6210
 4.0570	 4.6200
 4.0610	 4.5600
 4.0640	 4.5120
 4.0670	 4.4860
 4.0700	 4.5270
 4.0730	 4.4580
 4.0770	 4.4330
 4.0800	 4.5430
 4.0830	 4.4740
 4.0860	 4.3910
 4.0890	 4.4630
 4.0930	 4.5990
 4.0960	 4.6240
 4.0990	 4.5430
 4.1020	 4.4570
 4.1060	 4.3490
 4.1090	 4.1900
 4.1120	 4.0870
 4.1150	 4.2600
 4.1190	 4.5570
 4.1220	 4.5540
 4.1250	 4.4790
 4.1280	 4.5330
 4.1320	 4.4690
 4.1350	 4.4330
 4.1380	 4.5200
 4.1420	 4.5210
 4.1450	 4.4490
 4.1480	 4.4170
 4.1520	 4.4520
 4.1550	 4.4390
 4.1580	 4.3990
 4.1620	 4.3920
 4.1650	 4.4100
 4.1680	 4.4160
 4.1720	 4.4010
 4.1750	 4.4130
 4.1780	 4.3810
 4.1820	 4.3300
 4.1850	 4.3580
 4.1890	 4.3940
 4.1920	 4.4090
 4.1950	 4.4310
 4.1990	 4.3810
 4.2020	 4.3440
 4.2060	 4.2880
 4.2090	 4.2780
 4.2120	 4.3470
 4.2160	 4.5630
 4.2190	 4.7110
 4.2230	 4.4090
 4.2260	 4.4340
 4.2300	 4.2900
 4.2330	 4.3940
 4.2360	 4.3920
 4.2400	 4.1140
 4.2430	 4.1910
 4.2470	 4.1620
 4.2500	 4.0080
 4.2540	 3.9560
 4.2570	 4.0130
 4.2610	 3.9380
 4.2640	 3.9930
 4.2680	 4.1630
 4.2710	 4.2430
 4.2750	 4.3500
 4.2780	 4.3240
 4.2820	 4.3480
 4.2850	 4.3060
 4.2890	 4.4070
 4.2930	 4.5590
 4.2960	 4.6590
 4.3000	 4.5570
 4.3030	 4.6040
 4.3070	 4.5610
 4.3100	 4.4320
 4.3140	 4.3880
 4.3180	 4.4020
 4.3210	 4.3100
 4.3250	 4.0990
 4.3280	 4.1350
 4.3320	 4.1830
 4.3360	 4.1970
 4.3390	 4.2250
 4.3430	 4.1440
 4.3470	 4.0990
 4.3500	 4.1110
 4.3540	 4.0690
 4.3570	 4.1530
 4.3610	 4.2150
 4.3650	 4.1190
 4.3680	 4.1310
 4.3720	 4.1930
 4.3760	 4.2070
 4.3800	 4.2230
 4.3830	 4.2600
 4.3870	 4.3350
 4.3910	 4.2600
 4.3940	 4.1440
 4.3980	 4.1500
 4.4020	 4.1480
 4.4060	 4.1970
 4.4090	 4.2780
 4.4130	 4.2840
 4.4170	 4.3130
 4.4210	 4.3420
 4.4240	 4.3390
 4.4280	 4.2240
 4.4320	 4.0630
 4.4360	 4.0510
 4.4400	 4.1960
 4.4430	 4.1990
 4.4470	 4.2020
 4.4510	 4.2960
 4.4550	 4.2850
 4.4590	 4.2180
 4.4620	 4.1440
 4.4660	 4.0400
 4.4700	 4.1270
 4.4740	 4.2230
 4.4780	 4.1650
 4.4820	 4.1230
 4.4860	 4.1460
 4.4900	 4.2640
 4.4930	 4.2730
 4.4970	 4.1220
 4.5010	 4.0210
 4.5050	 3.9730
 4.5090	 4.0350
 4.5130	 4.0720
 4.5170	 4.1530
 4.5210	 4.2600
 4.5250	 4.2440
 4.5290	 4.1130
 4.5330	 4.0870
 4.5370	 4.0890
 4.5410	 4.1230
 4.5450	 4.1730
 4.5490	 4.1790
 4.5530	 4.1000
 4.5570	 4.0920
 4.5610	 4.1380
 4.5650	 4.1100
 4.5690	 4.0120
 4.5730	 3.9880
 4.5770	 4.0160
 4.5810	 4.0720
 4.5850	 4.0630
 4.5890	 4.1190
 4.5930	 4.1180
 4.5970	 3.9400
 4.6010	 3.9240
 4.6050	 4.0320
 4.6090	 3.9980
 4.6130	 3.9900
 4.6170	 4.0390
 4.6220	 3.9180
 4.6260	 3.8710
 4.6300	 4.0890
 4.6340	 4.2140
 4.6380	 4.0790
 4.6420	 4.0370
 4.6460	 4.0460
 4.6510	 4.0730
 4.6550	 4.0600
 4.6590	 4.0160
 4.6630	 3.9810
 4.6670	 4.0670
 4.6720	 4.0850
 4.6760	 4.0330
 4.6800	 4.0140
 4.6840	 4.0820
 4.6880	 4.1090
 4.6930	 4.0230
 4.6970	 3.9920
 4.7010	 3.9580
 4.7050	 3.9720
 4.7100	 4.0040
 4.7140	 3.9840
 4.7180	 4.0360
 4.7230	 4.0790
 4.7270	 3.9500
 4.7310	 3.9210
 4.7360	 4.0010
 4.7400	 4.0470
 4.7440	 4.0080
 4.7490	 3.9650
 4.7530	 3.9840
 4.7570	 3.9520
 4.7620	 3.9350
 4.7660	 3.9990
 4.7700	 3.9820
 4.7750	 3.9950
 4.7790	 3.9460
 4.7840	 3.9970
 4.7880	 4.2620
 4.7920	 4.3150
 4.7970	 4.2020
 4.8010	 4.1090
 4.8060	 3.9090
 4.8100	 3.9570
 4.8150	 3.9090
 4.8190	 3.8810
 4.8240	 3.9110
 4.8280	 3.9740
 4.8330	 3.8810
 4.8370	 3.7870
 4.8420	 3.8190
 4.8460	 3.9290
 4.8510	 3.8690
 4.8550	 3.8850
 4.8600	 3.9000
 4.8640	 3.9160
 4.8690	 3.9780
 4.8730	 4.0330
 4.8780	 3.9640
 4.8830	 3.9240
 4.8870	 3.9060
 4.8920	 3.8590
 4.8960	 3.7970
 4.9010	 3.8440
 4.9060	 3.9390
 4.9100	 4.0410
 4.9150	 4.0440
 4.9200	 4.0610
 4.9240	 4.0420
 4.9290	 4.0070
 4.9340	 3.9190
 4.9380	 3.8730
 4.9430	 3.9230
 4.9480	 3.9110
 4.9530	 3.9610
 4.9570	 4.0280
 4.9620	 3.9780
 4.9670	 4.0130
 4.9720	 3.9740
 4.9760	 3.9460
 4.9810	 3.9150
 4.9860	 3.8980
 4.9910	 3.8450
 4.9960	 3.8950
 5.0000	 3.9830
 5.0050	 3.9660
 5.0100	 4.0090
 5.0150	 4.0250
 5.0200	 3.9030
 5.0250	 3.8350
 5.0290	 3.8520
 5.0340	 3.9320
 5.0390	 4.0080
 5.0440	 4.0420
 5.0490	 3.9140
 5.0540	 3.9830
 5.0590	 4.0270
 5.0640	 3.9950
 5.0690	 3.9830
 5.0740	 3.9490
 5.0790	 3.9080
 5.0840	 3.9030
 5.0890	 3.8690
 5.0940	 3.9560
 5.0990	 3.9630
 5.1040	 3.9300
 5.1090	 3.9260
 5.1140	 3.9700
 5.1190	 3.9200
 5.1240	 3.9510
 5.1290	 3.9880
 5.1340	 3.9720
 5.1390	 3.9140
 5.1440	 3.9740
 5.1490	 3.8880
 5.1540	 3.8170
 5.1600	 3.8660
 5.1650	 3.8960
 5.1700	 3.9320
 5.1750	 4.0040
 5.1800	 3.9420
 5.1850	 3.8840
 5.1910	 3.9070
 5.1960	 3.9440
 5.2010	 3.8640
 5.2060	 3.8670
 5.2110	 3.8560
 5.2170	 3.8490
 5.2220	 3.8530
 5.2270	 3.9200
 5.2320	 3.8820
 5.2380	 3.9050
 5.2430	 3.9360
 5.2480	 3.9150
 5.2540	 3.8280
 5.2590	 3.8230
 5.2640	 3.8120
 5.2700	 3.8700
 5.2750	 3.8120
 5.2800	 3.8790
 5.2860	 3.9450
 5.2910	 3.9180
 5.2970	 3.8520
 5.3020	 3.8880
 5.3070	 3.8790
 5.3130	 3.8880
 5.3180	 3.8650
 5.3240	 3.7730
 5.3290	 3.6860
 5.3350	 3.7780
 5.3400	 3.8710
 5.3460	 3.9440
 5.3510	 3.9290
 5.3570	 3.9430
 5.3620	 3.8330
 5.3680	 3.7570
 5.3730	 3.6860
 5.3790	 3.7570
 5.3850	 3.8480
 5.3900	 3.7890
 5.3960	 3.6750
 5.4010	 3.7670
 5.4070	 3.7860
 5.4130	 3.7490
 5.4180	 3.6400
 5.4240	 3.6440
 5.4300	 3.6690
 5.4350	 3.7180
 5.4410	 3.6510
 5.4470	 3.6030
 5.4530	 3.5110
 5.4580	 3.5210
 5.4640	 3.5450
 5.4700	 3.5440
 5.4760	 3.5300
 5.4810	 3.6200
 5.4870	 3.5170
 5.4930	 3.4310
 5.4990	 3.3940
 5.5050	 3.4970
 5.5110	 3.5380
 5.5160	 3.5610
 5.5220	 3.4530
 5.5280	 3.3930
 5.5340	 3.3030
 5.5400	 3.2980
 5.5460	 3.2620
 5.5520	 3.3420
 5.5580	 3.3730
 5.5640	 3.3020
 5.5700	 3.2460
 5.5760	 3.3150
 5.5820	 3.3040
 5.5880	 3.2390
 5.5940	 3.1260
 5.6000	 3.1630
 5.6060	 3.1050
 5.6120	 3.1790
 5.6180	 3.2080
 5.6240	 3.1690
 5.6300	 3.1160
 5.6360	 3.1230
 5.6420	 3.1600
 5.6490	 3.1950
 5.6550	 3.0690
 5.6610	 3.0200
 5.6670	 2.9260
 5.6730	 2.9290
 5.6800	 2.9300
 5.6860	 2.9160
 5.6920	 2.9130
 5.6980	 2.9320
 5.7040	 2.8290
 5.7110	 2.8020
 5.7170	 2.7720
 5.7230	 2.8150
 5.7300	 2.8170
 5.7360	 2.8280
 5.7420	 2.7990
 5.7490	 2.8520
 5.7550	 2.7910
 5.7620	 2.8210
 5.7680	 2.9170
 5.7740	 3.0770
 5.7810	 3.1630
 5.7870	 3.2470
 5.7940	 3.2570
 5.8000	 3.3130
 5.8070	 3.3460
 5.8130	 3.3850
 5.8200	 3.4210
 5.8260	 3.4740
 5.8330	 3.4940
 5.8390	 3.6020
 5.8460	 3.6330
 5.8530	 3.7350
 5.8590	 3.6970
 5.8660	 3.6860
 5.8720	 3.6960
 5.8790	 3.8510
 5.8860	 3.8810
 5.8920	 3.8890
 5.8990	 3.8490
 5.9060	 3.9160
 5.9130	 3.8990
 5.9190	 3.8570
 5.9260	 3.7580
 5.9330	 3.9120
 5.9400	 3.8420
 5.9470	 3.8460
 5.9530	 3.8580
 5.9600	 3.8040
 5.9670	 3.6720
 5.9740	 3.7050
 5.9810	 3.7270
 5.9880	 3.7560
 5.9950	 3.7280
 6.0020	 3.7590
 6.0090	 3.7530
 6.0160	 3.7700
 6.0230	 3.7210
 6.0300	 3.8130
 6.0370	 3.8230
 6.0440	 3.7840
 6.0510	 3.7330
 6.0580	 3.8530
 6.0650	 3.7980
 6.0720	 3.7670
 6.0790	 3.9370
 6.0860	 4.1180
 6.0930	 4.0750
 6.1000	 4.0930
 6.1080	 4.1010
 6.1150	 4.1480
 6.1220	 4.0840
 6.1290	 4.1620
 6.1370	 4.1880
 6.1440	 4.1960
 6.1510	 4.2160
 6.1580	 4.2570
 6.1660	 4.2110
 6.1730	 4.2660
 6.1800	 4.2770
 6.1880	 4.3510
 6.1950	 4.2090
 6.2030	 4.1470
 6.2100	 4.1670
 6.2170	 4.2770
 6.2250	 4.2260
 6.2320	 4.2510
 6.2400	 4.2400
 6.2470	 4.3330
 6.2550	 4.3440
 6.2630	 4.3040
 6.2700	 4.2070
 6.2780	 4.2250
 6.2850	 4.1570
 6.2930	 4.0780
 6.3010	 3.9650
 6.3080	 4.0840
 6.3160	 4.1520
 6.3240	 4.1350
 6.3310	 4.0350
 6.3390	 4.0040
 6.3470	 3.8850
 6.3550	 3.9580
 6.3620	 3.9930
 6.3700	 3.9650
 6.3780	 3.9050
 6.3860	 4.0220
 6.3940	 3.9980
 6.4020	 4.0430
 6.4100	 3.9910
 6.4180	 4.0900
 6.4260	 4.0930
 6.4330	 4.1720
 6.4410	 4.1250
 6.4490	 4.1270
 6.4580	 4.0360
 6.4660	 4.1170
 6.4740	 4.1740
 6.4820	 4.1510
 6.4900	 4.0080
 6.4980	 3.9890
 6.5060	 3.9800
 6.5140	 3.9670
 6.5230	 3.9650
 6.5310	 4.0670
 6.5390	 4.0040
 6.5470	 3.9530
 6.5550	 3.8420
 6.5640	 3.8120
 6.5720	 3.7590
 6.5800	 3.8260
 6.5890	 3.8140
 6.5970	 3.7730
 6.6060	 3.7080
 6.6140	 3.6690
 6.6220	 3.5540
 6.6310	 3.5320
 6.6390	 3.4670
 6.6480	 3.5440
 6.6560	 3.4540
 6.6650	 3.6080
 6.6740	 3.6320
 6.6820	 3.6000
 6.6910	 3.4600
 6.6990	 3.5390
 6.7080	 3.5390
 6.7170	 3.6130
 6.7260	 3.5750
 6.7340	 3.6290
 6.7430	 3.4800
 6.7520	 3.4380
 6.7610	 3.4290
 6.7690	 3.4150
 6.7780	 3.3900
 6.7870	 3.6450
 6.7960	 3.5600
 6.8050	 3.3850
 6.8140	 3.2850
 6.8230	 3.4640
 6.8320	 3.6400
 6.8410	 3.7980
 6.8500	 3.6220
 6.8590	 3.5600
 6.8680	 3.4310
 6.8770	 3.5040
 6.8860	 3.5390
 6.8950	 3.6660
 6.9050	 3.6000
 6.9140	 3.6130
 6.9230	 3.4850
 6.9320	 3.4220
 6.9420	 3.3970
 6.9510	 3.5720
 6.9600	 3.4550
 6.9700	 3.4280
 6.9790	 3.4200
 6.9880	 3.5300
 6.9980	 3.4770
 7.0070	 3.3950
 7.0170	 3.2830
 7.0260	 3.4440
 7.0360	 3.3880
 7.0450	 3.4410
 7.0550	 3.4650
 7.0650	 3.5370
 7.0740	 3.4960
 7.0840	 3.5780
 7.0940	 3.5790
 7.1030	 3.7110
 7.1130	 3.6370
 7.1230	 3.6020
 7.1330	 3.4820
 7.1420	 3.4540
 7.1520	 3.5040
 7.1620	 3.7160
 7.1720	 3.5810
 7.1820	 3.4800
 7.1920	 3.4190
 7.2020	 3.4920
 7.2120	 3.5230
 7.2220	 3.5520
 7.2320	 3.5240
 7.2420	 3.5850
 7.2520	 3.4420
 7.2620	 3.5780
 7.2730	 3.5200
 7.2830	 3.4840
 7.2930	 3.4380
 7.3030	 3.5410
 7.3140	 3.5040
 7.3240	 3.4960
 7.3340	 3.3470
 7.3450	 3.3820
 7.3550	 3.3880
 7.3660	 3.4680
 7.3760	 3.4260
 7.3870	 3.5100
 7.3970	 3.3990
 7.4080	 3.4140
 7.4180	 3.4370
 7.4290	 3.4670
 7.4400	 3.4290
 7.4500	 3.4400
 7.4610	 3.3610
 7.4720	 3.5050
 7.4830	 3.4770
 7.4930	 3.4970
 7.5040	 3.3270
 7.5150	 3.3470
 7.5260	 3.4140
 7.5370	 3.5830
 7.5480	 3.5220
 7.5590	 3.5240
 7.5700	 3.5050
 7.5810	 3.6570
 7.5920	 3.6210
 7.6030	 3.6180
 7.6140	 3.5260
 7.6260	 3.6110
 7.6370	 3.5550
 7.6480	 3.4690
 7.6590	 3.4040
 7.6710	 3.4490
 7.6820	 3.3740
 7.6930	 3.4400
 7.7050	 3.4550
 7.7160	 3.5700
 7.7280	 3.4580
 7.7390	 3.4270
 7.7510	 3.2840
 7.7630	 3.3990
 7.7740	 3.3470
 7.7860	 3.3160
 7.7980	 3.2230
 7.8090	 3.3250
 7.8210	 3.3400
 7.8330	 3.4590
 7.8450	 3.3770
 7.8570	 3.4280
 7.8690	 3.3480
 7.8810	 3.3770
 7.8930	 3.2620
 7.9050	 3.3030
 7.9170	 3.2320
 7.9290	 3.3550
 7.9410	 3.3460
 7.9530	 3.3460
 7.9650	 3.2100
 7.9780	 3.3080
 7.9900	 3.1920
 8.0020	 3.3290
 8.0150	 3.3160
 8.0270	 3.4960
 8.0390	 3.6430
 8.0520	 3.7590
 8.0640	 3.5470
 8.0770	 3.6490
 8.0900	 3.6100
 8.1020	 3.6720
 8.1150	 3.6440
 8.1280	 3.7240
 8.1400	 3.6590
 8.1530	 3.8350
 8.1660	 3.6810
 8.1790	 3.6540
 8.1920	 3.5990
 8.2050	 3.7580
 8.2180	 3.5490
 8.2310	 3.7220
 8.2440	 3.6740
 8.2570	 3.8450
 8.2700	 3.9260
 8.2830	 3.9410
 8.2970	 3.6940
 8.3100	 3.7400
 8.3230	 3.7210
 8.3370	 3.7920
 8.3500	 3.6230
 8.3640	 3.8680
 8.3770	 3.8880
 8.3910	 3.9880
 8.4040	 3.8920
 8.4180	 4.0950
 8.4320	 4.1220
 8.4450	 4.0720
 8.4590	 3.8040
 8.4730	 4.0240
 8.4870	 3.9890
 8.5010	 4.0980
 8.5150	 4.0120
 8.5290	 4.1330
 8.5430	 4.1600
 8.5570	 4.3920
 8.5710	 4.3730
 8.5850	 4.5620
 8.5990	 4.4810
 8.6140	 4.4570
 8.6280	 4.3640
 8.6420	 4.4630
 8.6570	 4.2820
 8.6710	 4.2790
 8.6860	 4.3020
 8.7000	 4.5190
 8.7150	 4.4130
 8.7300	 4.5020
 8.7440	 4.3900
 8.7590	 4.4560
 8.7740	 4.2700
 8.7890	 4.2790
 8.8040	 4.2910
 8.8190	 4.5030
 8.8340	 4.3420
 8.8490	 4.4250
 8.8640	 4.4050
 8.8790	 4.5970
 8.8940	 4.3420
 8.9100	 4.2510
 8.9250	 4.1310
 8.9400	 4.4400
 8.9560	 4.3360
 8.9710	 4.4420
 8.9870	 4.3400
 9.0020	 4.4920
 9.0180	 4.4610
 9.0340	 4.6000
 9.0500	 4.3620
 9.0650	 4.4300
 9.0810	 4.5010
 9.0970	 4.7150
 9.1130	 4.6310
 9.1290	 4.6780
 9.1450	 4.4420
 9.1610	 4.5020
 9.1780	 4.4670
 9.1940	 4.8210
 9.2100	 4.7070
 9.2270	 4.6710
 9.2430	 4.5900
 9.2600	 4.8210
 9.2760	 4.7100
 9.2930	 4.6320
 9.3090	 4.5500
 9.3260	 4.8160
 9.3430	 4.7240
 9.3600	 4.8180
 9.3770	 4.7870
 9.3940	 4.8920
 9.4110	 4.9460
 9.4280	 5.2120
 9.4450	 4.9860
 9.4620	 5.2000
 9.4800	 5.1000
 9.4970	 5.2360
 9.5140	 5.1660
 9.5320	 5.2920
 9.5500	 5.1020
 9.5670	 5.3190
 9.5850	 5.1660
 9.6030	 5.3650
 9.6200	 5.3190
 9.6380	 5.3750
 9.6560	 5.3330
 9.6740	 5.4180
 9.6920	 5.2640
 9.7100	 5.3540
 9.7290	 5.2110
 9.7470	 5.4280
 9.7650	 5.3190
 9.7840	 5.4150
 9.8020	 5.2860
 9.8210	 5.5120
 9.8390	 5.3090
 9.8580	 5.1730
 9.8770	 5.0320
 9.8960	 5.2190
 9.9150	 5.1150
 9.9340	 5.2030
 9.9530	 5.0500
 9.9720	 4.9980
 9.9910	 4.7380
10.0100	 4.9380
10.0300	 4.8110
10.0490	 4.8380
10.0690	 4.5480
10.0880	 4.6880
10.1080	 4.7010
10.1280	 4.9200
10.1480	 4.8130
10.1670	 4.9280
10.1870	 4.6830
10.2070	 4.6850
10.2280	 4.4540
10.2480	 4.4180
10.2680	 4.2010
10.2890	 4.3410
10.3090	 4.1620
10.3300	 4.3540
10.3500	 4.2610
10.3710	 4.2180
10.3920	 4.1290
10.4120	 4.4540
10.4330	 4.1460
10.4540	 4.1930
10.4760	 4.1780
10.4970	 4.3060
10.5180	 4.1040
10.5390	 4.2330
10.5610	 4.1040
10.5820	 4.1920
10.6040	 4.1040
10.6260	 4.1430
10.6480	 3.8710
10.6700	 4.0650
10.6920	 3.9460
10.7140	 3.9890
10.7360	 3.8470
10.7580	 4.0900
10.7800	 3.8440
10.8030	 4.0830
10.8250	 4.1290
10.8480	 4.3920
10.8710	 4.2120
10.8940	 4.1950
10.9170	 4.2340
10.9400	 4.3690
10.9630	 3.9570
10.9860	 4.1940
11.0090	 4.0910
11.0330	 4.1620
11.0560	 4.0530
11.0800	 4.2750
11.1040	 4.2030
11.1270	 4.4100
11.1510	 4.1350
11.1750	 4.2750
11.2000	 4.1960
11.2240	 4.3660
11.2480	 4.3780
11.2730	 5.1870
11.2970	 5.2950
11.3220	 4.5750
11.3470	 4.1690
11.3720	 4.3310
11.3970	 4.1990
11.4220	 4.2310
11.4470	 4.1680
11.4720	 4.4720
11.4980	 4.3660
11.5230	 4.3890
11.5490	 4.2720
11.5750	 4.6060
11.6000	 4.5090
11.6260	 4.7240
11.6530	 4.5820
11.6790	 4.5590
11.7050	 4.2670
11.7320	 4.5020
11.7580	 4.1690
11.7850	 4.2590
11.8120	 4.0650
11.8390	 4.1010
11.8660	 3.6960
11.8930	 4.0170
11.9200	 4.0690
11.9480	 4.4120
11.9760	 4.2170
12.0030	 4.4410
12.0310	 4.2940
12.0590	 4.4160
12.0870	 4.2050
12.1150	 4.2700
12.1440	 4.1410
12.1720	 4.4840
12.2010	 4.2510
12.2300	 4.3700
12.2590	 4.3160
12.2880	 4.6650
12.3170	 4.6540
12.3460	 4.7150
12.3760	 4.3850
12.4050	 4.7790
12.4350	 4.5430
12.4650	 4.6120
12.4950	 4.3120
12.5250	 4.5010
12.5550	 4.5850
12.5860	 4.9400
12.6170	 4.8310
12.6470	 4.9000
12.6780	 4.6200
12.7090	 4.9630
12.7410	 4.8650
12.7720	 4.9060
12.8030	 4.5130
12.8350	 4.7430
12.8670	 4.7790
12.8990	 5.1050
12.9310	 4.9530
12.9640	 4.9620
12.9960	 4.4220
13.0290	 4.5970
13.0610	 4.4970
13.0940	 4.5740
13.1280	 4.2440
13.1610	 4.7850
13.1940	 4.7070
13.2280	 4.7570
13.2620	 4.4160
13.2960	 4.6650
13.3300	 4.5070
13.3640	 4.6170
13.3990	 4.3730
13.4340	 4.6460
13.4690	 4.2280
13.5040	 4.2480
13.5390	 4.1390
13.5740	 4.7890
13.6100	 4.4230
13.6460	 4.2020
13.6820	 3.8510
13.7180	 4.2380
13.7540	 3.9280
13.7910	 4.3220
13.8280	 4.0770
13.8650	 4.1390
13.9020	 4.1680
13.9390	 4.7770
13.9770	 4.1300
14.0150	 4.1630
14.0530	 4.0130
14.0910	 4.4690
14.1290	 4.1400
14.1680	 4.5800
14.2070	 4.0260
14.2460	 4.0970
14.2850	 3.9830
14.3240	 4.4260
14.3640	 4.0770
14.4040	 4.4160
14.4440	 4.2340
14.4840	 4.6530
14.5250	 3.8220
14.5660	 4.0710
14.6070	 3.8060
14.6480	 3.9120
14.6900	 3.4250
14.7310	 4.1220
14.7730	 3.6400
14.8150	 4.1490
14.8580	 3.5170
14.9010	 3.8960
14.9440	 3.1280
14.9870	 4.1280
15.0300	 3.5230
15.0740	 3.8940
15.1180	 2.9490
15.1620	 3.1510
15.2060	 2.7490
15.2510	 3.7430
15.2960	 3.2690
15.3410	 3.3190
15.3870	 2.7400
