Name: Pinus lambertiana 2
Type: vegetation
Class: Tree
Genus: Pinus
Species: lambertiana
Sample No.: VH161
Owner: UCSB
Wavelength Range: TIR
Origin: 37.0422; -119.3028; WGS84
Collection Date: 6/8/2013
Description: Samples were collected as part of the HyspIRI Airborne Campaign. 48 individual plants were sampled in three times in 2013 - spring  summer  and fall. The name of the sample includes a 1  2  or 3 which references a different individual of the species. Samples were taken to JPL and processed within 48 hours of collection. The same leaves were processed in the Nicolet and then measured using the ASD.
Measurement: Hemispherical reflectance
First Column: X
Second Column: Y
X Units: Wavelength (micrometers)
Y Units: Reflectance (percentage)
First X Value: 2.501
Last X Value: 15.387
Number of X Values: 1737
Additional Information: vegetation.tree.pinus.lambertiana.tir.vh161.ucsb.nicolet.ancillary.txt

 2.5010	 5.9330
 2.5030	 5.6670
 2.5040	 5.8130
 2.5050	 6.0040
 2.5060	 6.1320
 2.5070	 6.2710
 2.5090	 6.2650
 2.5100	 5.8340
 2.5110	 5.6440
 2.5120	 5.7890
 2.5140	 5.8070
 2.5150	 5.7190
 2.5160	 5.7790
 2.5170	 5.6440
 2.5180	 5.7320
 2.5200	 5.8230
 2.5210	 5.8050
 2.5220	 5.8690
 2.5230	 5.8690
 2.5250	 5.7650
 2.5260	 5.9010
 2.5270	 5.9450
 2.5280	 5.8490
 2.5290	 5.7930
 2.5310	 5.8530
 2.5320	 5.8150
 2.5330	 5.8200
 2.5340	 5.8110
 2.5360	 5.7940
 2.5370	 5.6580
 2.5380	 5.8370
 2.5390	 5.9020
 2.5410	 5.7420
 2.5420	 5.7430
 2.5430	 5.9400
 2.5440	 5.9840
 2.5460	 6.0060
 2.5470	 5.8720
 2.5480	 5.8860
 2.5490	 5.9160
 2.5510	 5.9450
 2.5520	 5.9180
 2.5530	 5.9530
 2.5540	 5.9310
 2.5560	 5.9610
 2.5570	 5.9190
 2.5580	 6.0880
 2.5590	 6.0890
 2.5610	 6.0740
 2.5620	 6.0810
 2.5630	 6.0320
 2.5640	 5.9570
 2.5660	 6.0240
 2.5670	 5.9670
 2.5680	 6.0170
 2.5700	 6.0410
 2.5710	 6.1220
 2.5720	 6.0090
 2.5730	 5.9810
 2.5750	 5.8330
 2.5760	 5.8550
 2.5770	 5.9270
 2.5790	 6.0780
 2.5800	 6.1410
 2.5810	 6.1040
 2.5820	 6.0090
 2.5840	 6.0770
 2.5850	 6.0970
 2.5860	 6.1490
 2.5880	 6.0700
 2.5890	 6.0790
 2.5900	 6.0190
 2.5910	 6.0050
 2.5930	 5.9680
 2.5940	 5.9340
 2.5950	 5.7590
 2.5970	 5.8410
 2.5980	 5.7890
 2.5990	 5.8160
 2.6000	 5.8580
 2.6020	 5.8850
 2.6030	 5.8350
 2.6040	 5.8720
 2.6060	 5.8360
 2.6070	 5.7520
 2.6080	 5.8060
 2.6100	 5.8210
 2.6110	 5.7390
 2.6120	 5.7080
 2.6140	 5.6360
 2.6150	 5.7940
 2.6160	 5.7940
 2.6180	 5.7880
 2.6190	 5.6670
 2.6200	 5.6590
 2.6220	 5.7560
 2.6230	 5.6870
 2.6240	 5.5470
 2.6260	 5.6250
 2.6270	 5.6040
 2.6280	 5.4900
 2.6300	 5.3890
 2.6310	 5.4810
 2.6320	 5.4990
 2.6340	 5.5660
 2.6350	 5.4520
 2.6360	 5.4340
 2.6380	 5.3570
 2.6390	 5.3860
 2.6400	 5.4160
 2.6420	 5.4530
 2.6430	 5.4030
 2.6440	 5.4000
 2.6460	 5.2930
 2.6470	 5.1980
 2.6480	 5.1280
 2.6500	 5.2090
 2.6510	 5.2460
 2.6520	 5.2510
 2.6540	 5.1020
 2.6550	 5.0220
 2.6560	 4.9050
 2.6580	 5.1130
 2.6590	 5.2550
 2.6610	 5.1660
 2.6620	 5.0660
 2.6630	 5.1150
 2.6650	 5.0900
 2.6660	 5.1480
 2.6670	 5.1310
 2.6690	 5.1750
 2.6700	 5.0740
 2.6720	 4.9540
 2.6730	 4.8020
 2.6740	 4.8530
 2.6760	 4.9390
 2.6770	 5.0680
 2.6780	 4.9780
 2.6800	 4.9220
 2.6810	 4.8120
 2.6830	 4.8220
 2.6840	 4.7440
 2.6850	 4.7960
 2.6870	 4.8110
 2.6880	 4.7520
 2.6900	 4.5950
 2.6910	 4.5310
 2.6920	 4.4680
 2.6940	 4.4980
 2.6950	 4.5130
 2.6970	 4.6510
 2.6980	 4.5280
 2.6990	 4.4900
 2.7010	 4.5100
 2.7020	 4.5170
 2.7040	 4.3950
 2.7050	 4.4280
 2.7060	 4.2810
 2.7080	 4.0690
 2.7090	 4.0310
 2.7110	 4.2750
 2.7120	 4.2890
 2.7130	 4.2100
 2.7150	 4.1650
 2.7160	 4.3360
 2.7180	 4.3450
 2.7190	 4.3320
 2.7210	 4.3030
 2.7220	 4.2500
 2.7230	 4.2390
 2.7250	 4.2680
 2.7260	 4.1410
 2.7280	 4.1460
 2.7290	 4.0070
 2.7310	 3.9270
 2.7320	 4.0290
 2.7330	 4.1180
 2.7350	 4.0350
 2.7360	 4.1270
 2.7380	 4.1940
 2.7390	 4.2890
 2.7410	 4.2300
 2.7420	 4.2290
 2.7440	 4.0160
 2.7450	 4.0490
 2.7470	 4.2250
 2.7480	 4.3720
 2.7490	 4.2400
 2.7510	 4.1140
 2.7520	 4.1790
 2.7540	 4.3390
 2.7550	 4.4360
 2.7570	 4.2900
 2.7580	 3.8710
 2.7600	 3.7210
 2.7610	 3.7140
 2.7630	 3.7570
 2.7640	 3.8100
 2.7660	 3.9840
 2.7670	 4.1820
 2.7680	 4.5180
 2.7700	 4.4220
 2.7710	 4.2740
 2.7730	 4.1410
 2.7740	 4.1190
 2.7760	 3.9250
 2.7770	 3.9060
 2.7790	 4.1060
 2.7800	 4.0310
 2.7820	 3.9340
 2.7830	 4.1860
 2.7850	 4.0770
 2.7860	 3.9710
 2.7880	 3.9130
 2.7890	 4.0030
 2.7910	 4.0400
 2.7920	 4.1720
 2.7940	 4.1840
 2.7950	 4.0740
 2.7970	 3.8160
 2.7980	 3.7170
 2.8000	 3.7950
 2.8010	 4.0450
 2.8030	 3.9820
 2.8040	 4.0000
 2.8060	 4.0310
 2.8070	 4.0780
 2.8090	 4.0600
 2.8110	 4.0840
 2.8120	 3.9530
 2.8140	 3.8430
 2.8150	 3.7860
 2.8170	 3.9980
 2.8180	 4.0330
 2.8200	 3.9220
 2.8210	 3.9110
 2.8230	 4.1000
 2.8240	 3.9740
 2.8260	 4.0910
 2.8270	 4.0810
 2.8290	 3.9560
 2.8300	 3.8570
 2.8320	 3.8530
 2.8340	 3.9380
 2.8350	 4.0260
 2.8370	 4.0100
 2.8380	 4.1200
 2.8400	 3.9930
 2.8410	 3.9860
 2.8430	 4.0190
 2.8440	 4.1200
 2.8460	 4.0470
 2.8480	 4.0510
 2.8490	 4.0920
 2.8510	 4.1160
 2.8520	 4.1020
 2.8540	 4.1700
 2.8550	 4.0710
 2.8570	 4.0670
 2.8590	 3.9590
 2.8600	 3.9820
 2.8620	 3.9570
 2.8630	 4.0260
 2.8650	 4.1620
 2.8660	 4.1570
 2.8680	 3.9420
 2.8700	 3.9820
 2.8710	 3.8510
 2.8730	 4.1160
 2.8740	 4.1680
 2.8760	 4.0050
 2.8780	 3.9350
 2.8790	 4.0690
 2.8810	 4.0510
 2.8820	 3.9830
 2.8840	 3.9780
 2.8860	 4.0820
 2.8870	 3.9860
 2.8890	 3.9830
 2.8900	 3.9300
 2.8920	 3.9130
 2.8940	 3.7630
 2.8950	 3.8640
 2.8970	 3.8530
 2.8980	 3.9340
 2.9000	 3.9870
 2.9020	 4.0190
 2.9030	 4.0670
 2.9050	 4.0930
 2.9070	 4.1270
 2.9080	 4.4170
 2.9100	 4.1530
 2.9120	 3.9080
 2.9130	 3.9980
 2.9150	 4.0250
 2.9160	 4.0120
 2.9180	 4.2000
 2.9200	 4.1200
 2.9210	 4.1860
 2.9230	 4.0750
 2.9250	 4.0300
 2.9260	 4.0150
 2.9280	 4.0480
 2.9300	 4.0820
 2.9310	 4.1340
 2.9330	 3.9330
 2.9350	 3.9740
 2.9360	 3.9630
 2.9380	 4.0350
 2.9400	 4.0090
 2.9410	 3.9430
 2.9430	 3.9330
 2.9450	 4.0290
 2.9460	 3.9740
 2.9480	 4.1170
 2.9500	 4.3010
 2.9510	 4.4120
 2.9530	 4.7960
 2.9550	 4.5550
 2.9560	 4.1480
 2.9580	 4.3000
 2.9600	 4.2710
 2.9610	 3.5150
 2.9630	 2.9170
 2.9650	 3.0670
 2.9660	 3.4520
 2.9680	 2.8030
 2.9700	 2.9980
 2.9720	 3.9690
 2.9730	 3.3830
 2.9750	 3.1780
 2.9770	 3.6790
 2.9780	 2.3500
 2.9800	 2.1720
 2.9820	 3.7610
 2.9840	 4.2630
 2.9850	 3.5670
 2.9870	 3.0520
 2.9890	 3.6350
 2.9900	 5.0250
 2.9920	 5.0710
 2.9940	 3.1020
 2.9960	 2.5120
 2.9970	 3.1470
 2.9990	 3.3470
 3.0010	 3.7760
 3.0030	 4.3020
 3.0040	 4.3310
 3.0060	 4.4760
 3.0080	 4.2490
 3.0100	 3.9140
 3.0110	 4.0800
 3.0130	 4.3470
 3.0150	 3.9560
 3.0170	 3.8390
 3.0180	 3.8320
 3.0200	 4.0280
 3.0220	 4.0550
 3.0240	 4.3650
 3.0250	 3.9650
 3.0270	 3.7240
 3.0290	 3.7460
 3.0310	 4.1160
 3.0320	 3.9360
 3.0340	 4.3940
 3.0360	 4.4970
 3.0380	 4.9100
 3.0400	 5.0040
 3.0410	 4.3970
 3.0430	 4.4930
 3.0450	 5.0680
 3.0470	 5.7900
 3.0480	 6.9880
 3.0500	 5.9170
 3.0520	 4.4820
 3.0540	 4.2550
 3.0560	 3.1420
 3.0570	 2.9030
 3.0590	 4.2820
 3.0610	 4.0940
 3.0630	 2.7430
 3.0650	 2.3030
 3.0660	 2.5520
 3.0680	 3.2100
 3.0700	 3.4050
 3.0720	 3.4340
 3.0740	 3.7200
 3.0760	 4.0540
 3.0770	 4.2450
 3.0790	 4.2350
 3.0810	 4.1580
 3.0830	 3.8960
 3.0850	 4.0100
 3.0870	 4.2600
 3.0880	 4.1820
 3.0900	 3.8570
 3.0920	 3.9290
 3.0940	 4.0850
 3.0960	 4.1610
 3.0980	 3.9740
 3.0990	 3.8710
 3.1010	 3.8730
 3.1030	 3.8260
 3.1050	 3.7520
 3.1070	 3.7800
 3.1090	 3.7050
 3.1110	 3.8840
 3.1120	 4.1010
 3.1140	 4.1110
 3.1160	 3.9640
 3.1180	 3.7260
 3.1200	 3.7240
 3.1220	 4.1730
 3.1240	 4.2720
 3.1260	 4.1860
 3.1270	 3.7000
 3.1290	 3.8180
 3.1310	 4.3480
 3.1330	 4.0720
 3.1350	 2.9950
 3.1370	 2.5600
 3.1390	 2.9160
 3.1410	 3.1330
 3.1430	 3.6180
 3.1450	 4.1290
 3.1460	 4.7230
 3.1480	 4.6220
 3.1500	 4.1910
 3.1520	 4.5060
 3.1540	 4.4750
 3.1560	 4.1070
 3.1580	 3.8950
 3.1600	 4.1570
 3.1620	 4.1430
 3.1640	 4.0610
 3.1660	 3.5700
 3.1680	 3.7960
 3.1700	 4.7820
 3.1710	 4.8460
 3.1730	 3.8830
 3.1750	 3.7800
 3.1770	 4.1280
 3.1790	 3.6530
 3.1810	 3.4530
 3.1830	 3.8580
 3.1850	 3.5940
 3.1870	 3.7140
 3.1890	 3.8960
 3.1910	 3.9720
 3.1930	 3.9710
 3.1950	 4.0370
 3.1970	 3.9690
 3.1990	 3.8740
 3.2010	 4.0330
 3.2030	 4.0420
 3.2050	 3.8710
 3.2070	 3.9960
 3.2090	 3.7600
 3.2110	 3.8080
 3.2130	 3.9950
 3.2150	 4.0470
 3.2170	 3.9060
 3.2190	 3.7930
 3.2210	 3.9430
 3.2230	 4.1140
 3.2250	 3.9700
 3.2270	 3.9120
 3.2290	 4.0650
 3.2310	 4.0610
 3.2330	 3.7920
 3.2350	 3.7930
 3.2370	 3.9610
 3.2390	 3.9930
 3.2410	 4.1130
 3.2430	 3.9930
 3.2450	 3.6970
 3.2470	 3.9950
 3.2490	 4.0610
 3.2510	 3.8630
 3.2530	 3.9050
 3.2550	 3.8460
 3.2570	 3.6650
 3.2590	 3.8940
 3.2610	 3.9390
 3.2630	 3.8200
 3.2650	 3.9350
 3.2670	 3.8650
 3.2690	 3.7920
 3.2720	 4.1260
 3.2740	 4.0480
 3.2760	 3.9200
 3.2780	 3.9090
 3.2800	 3.8520
 3.2820	 3.7850
 3.2840	 3.8640
 3.2860	 3.9520
 3.2880	 3.9690
 3.2900	 3.9550
 3.2920	 4.0260
 3.2940	 3.8130
 3.2960	 3.7300
 3.2990	 3.9230
 3.3010	 4.0560
 3.3030	 3.9130
 3.3050	 3.9310
 3.3070	 3.8890
 3.3090	 3.7670
 3.3110	 3.6820
 3.3130	 3.7540
 3.3150	 3.8230
 3.3180	 3.8970
 3.3200	 3.8090
 3.3220	 3.7820
 3.3240	 3.7520
 3.3260	 3.8160
 3.3280	 3.8320
 3.3300	 3.7460
 3.3330	 3.5950
 3.3350	 3.6330
 3.3370	 3.7090
 3.3390	 3.8280
 3.3410	 3.8260
 3.3430	 3.8720
 3.3450	 3.8770
 3.3480	 3.8370
 3.3500	 3.7950
 3.3520	 3.7050
 3.3540	 3.5930
 3.3560	 3.5190
 3.3580	 3.4370
 3.3610	 3.5190
 3.3630	 3.4920
 3.3650	 3.5840
 3.3670	 3.5020
 3.3690	 3.4420
 3.3720	 3.4370
 3.3740	 3.3400
 3.3760	 3.3590
 3.3780	 3.4480
 3.3800	 3.3540
 3.3830	 3.3890
 3.3850	 3.4470
 3.3870	 3.4140
 3.3890	 3.1190
 3.3910	 3.2980
 3.3940	 3.4540
 3.3960	 3.4340
 3.3980	 3.3370
 3.4000	 3.2870
 3.4020	 3.1430
 3.4050	 3.2420
 3.4070	 3.4060
 3.4090	 3.5610
 3.4110	 3.4940
 3.4140	 3.5710
 3.4160	 3.6190
 3.4180	 3.7420
 3.4200	 4.0000
 3.4230	 4.4120
 3.4250	 4.8880
 3.4270	 5.3900
 3.4290	 5.6770
 3.4320	 5.8190
 3.4340	 5.7820
 3.4360	 5.6460
 3.4390	 5.3210
 3.4410	 5.0260
 3.4430	 4.7410
 3.4450	 4.7640
 3.4480	 4.7460
 3.4500	 4.7830
 3.4520	 4.7770
 3.4550	 4.7760
 3.4570	 4.5750
 3.4590	 4.4710
 3.4620	 4.5270
 3.4640	 4.5650
 3.4660	 4.4920
 3.4680	 4.4210
 3.4710	 4.3450
 3.4730	 4.3900
 3.4750	 4.3080
 3.4780	 4.2390
 3.4800	 4.2210
 3.4820	 4.1640
 3.4850	 4.0820
 3.4870	 4.0800
 3.4890	 4.0150
 3.4920	 4.0750
 3.4940	 4.0640
 3.4970	 3.9220
 3.4990	 3.8220
 3.5010	 3.9140
 3.5040	 3.9950
 3.5060	 4.4040
 3.5080	 5.0420
 3.5110	 5.6680
 3.5130	 5.7830
 3.5160	 5.5650
 3.5180	 5.4080
 3.5200	 5.3930
 3.5230	 5.2660
 3.5250	 5.1550
 3.5270	 5.0910
 3.5300	 4.9380
 3.5320	 4.8290
 3.5350	 4.8330
 3.5370	 4.7620
 3.5400	 4.7630
 3.5420	 4.8020
 3.5440	 4.7390
 3.5470	 4.5390
 3.5490	 4.6170
 3.5520	 4.5900
 3.5540	 4.4000
 3.5570	 4.3880
 3.5590	 4.4460
 3.5610	 4.4270
 3.5640	 4.5050
 3.5660	 4.5500
 3.5690	 4.6660
 3.5710	 4.6800
 3.5740	 4.6100
 3.5760	 4.5520
 3.5790	 4.5390
 3.5810	 4.5000
 3.5840	 4.5620
 3.5860	 4.6330
 3.5890	 4.6560
 3.5910	 4.5710
 3.5930	 4.6100
 3.5960	 4.7480
 3.5980	 4.8020
 3.6010	 4.5300
 3.6030	 4.5200
 3.6060	 4.4430
 3.6080	 4.4560
 3.6110	 4.4720
 3.6140	 4.4100
 3.6160	 4.4230
 3.6190	 4.4490
 3.6210	 4.4070
 3.6240	 4.4660
 3.6260	 4.4040
 3.6290	 4.2690
 3.6310	 4.2510
 3.6340	 4.3830
 3.6360	 4.4970
 3.6390	 4.5280
 3.6410	 4.4410
 3.6440	 4.3380
 3.6470	 4.3800
 3.6490	 4.4340
 3.6520	 4.3910
 3.6540	 4.3790
 3.6570	 4.3450
 3.6590	 4.3390
 3.6620	 4.2720
 3.6650	 4.2990
 3.6670	 4.3260
 3.6700	 4.3870
 3.6720	 4.3940
 3.6750	 4.3340
 3.6780	 4.3300
 3.6800	 4.3620
 3.6830	 4.3340
 3.6850	 4.3160
 3.6880	 4.3240
 3.6910	 4.4210
 3.6930	 4.3810
 3.6960	 4.3490
 3.6990	 4.3500
 3.7010	 4.3830
 3.7040	 4.3620
 3.7060	 4.3970
 3.7090	 4.4340
 3.7120	 4.4830
 3.7140	 4.4490
 3.7170	 4.3080
 3.7200	 4.1820
 3.7220	 4.3700
 3.7250	 4.4660
 3.7280	 4.3870
 3.7300	 4.2680
 3.7330	 4.2660
 3.7360	 4.3830
 3.7390	 4.4760
 3.7410	 4.4580
 3.7440	 4.4640
 3.7470	 4.3420
 3.7490	 4.3870
 3.7520	 4.4610
 3.7550	 4.4000
 3.7580	 4.3850
 3.7600	 4.4940
 3.7630	 4.4900
 3.7660	 4.4510
 3.7680	 4.4100
 3.7710	 4.4710
 3.7740	 4.5410
 3.7770	 4.4820
 3.7790	 4.3640
 3.7820	 4.4350
 3.7850	 4.4730
 3.7880	 4.4930
 3.7900	 4.4410
 3.7930	 4.4070
 3.7960	 4.2950
 3.7990	 4.3320
 3.8020	 4.4250
 3.8040	 4.5170
 3.8070	 4.5640
 3.8100	 4.5730
 3.8130	 4.4810
 3.8160	 4.4110
 3.8180	 4.3870
 3.8210	 4.4360
 3.8240	 4.3850
 3.8270	 4.4560
 3.8300	 4.5620
 3.8330	 4.5960
 3.8350	 4.4760
 3.8380	 4.5170
 3.8410	 4.5980
 3.8440	 4.4480
 3.8470	 4.3800
 3.8500	 4.4180
 3.8520	 4.4610
 3.8550	 4.4510
 3.8580	 4.3900
 3.8610	 4.4170
 3.8640	 4.4060
 3.8670	 4.4260
 3.8700	 4.4360
 3.8730	 4.4790
 3.8750	 4.4990
 3.8780	 4.5010
 3.8810	 4.4660
 3.8840	 4.4850
 3.8870	 4.4230
 3.8900	 4.4610
 3.8930	 4.4460
 3.8960	 4.4800
 3.8990	 4.5800
 3.9020	 4.5400
 3.9050	 4.4390
 3.9080	 4.4700
 3.9110	 4.4830
 3.9140	 4.4770
 3.9160	 4.5050
 3.9190	 4.5460
 3.9220	 4.5920
 3.9250	 4.5810
 3.9280	 4.5300
 3.9310	 4.4670
 3.9340	 4.4330
 3.9370	 4.4820
 3.9400	 4.4360
 3.9430	 4.4780
 3.9460	 4.4740
 3.9490	 4.4840
 3.9520	 4.5110
 3.9550	 4.5610
 3.9580	 4.5390
 3.9610	 4.5360
 3.9640	 4.5210
 3.9670	 4.5380
 3.9700	 4.4670
 3.9730	 4.4760
 3.9770	 4.4960
 3.9800	 4.4410
 3.9830	 4.4050
 3.9860	 4.4920
 3.9890	 4.5160
 3.9920	 4.5350
 3.9950	 4.5140
 3.9980	 4.5350
 4.0010	 4.5510
 4.0040	 4.5750
 4.0070	 4.5350
 4.0100	 4.5060
 4.0130	 4.5060
 4.0170	 4.5460
 4.0200	 4.5210
 4.0230	 4.5150
 4.0260	 4.5080
 4.0290	 4.5550
 4.0320	 4.5610
 4.0350	 4.5310
 4.0380	 4.4920
 4.0420	 4.4840
 4.0450	 4.5780
 4.0480	 4.6230
 4.0510	 4.5370
 4.0540	 4.5830
 4.0570	 4.6390
 4.0610	 4.6300
 4.0640	 4.5730
 4.0670	 4.5200
 4.0700	 4.5180
 4.0730	 4.5320
 4.0770	 4.4610
 4.0800	 4.4700
 4.0830	 4.4980
 4.0860	 4.5520
 4.0890	 4.5690
 4.0930	 4.5640
 4.0960	 4.5990
 4.0990	 4.5680
 4.1020	 4.5490
 4.1060	 4.6640
 4.1090	 4.7050
 4.1120	 4.6700
 4.1150	 4.6730
 4.1190	 4.6450
 4.1220	 4.5830
 4.1250	 4.5700
 4.1280	 4.6230
 4.1320	 4.6320
 4.1350	 4.5720
 4.1380	 4.5650
 4.1420	 4.5780
 4.1450	 4.5690
 4.1480	 4.4930
 4.1520	 4.4640
 4.1550	 4.5540
 4.1580	 4.6220
 4.1620	 4.5860
 4.1650	 4.5590
 4.1680	 4.5320
 4.1720	 4.5560
 4.1750	 4.5670
 4.1780	 4.5670
 4.1820	 4.5160
 4.1850	 4.5500
 4.1890	 4.6410
 4.1920	 4.6640
 4.1950	 4.6300
 4.1990	 4.6280
 4.2020	 4.6690
 4.2060	 4.7300
 4.2090	 4.7290
 4.2120	 4.8230
 4.2160	 4.8570
 4.2190	 4.8510
 4.2230	 4.8740
 4.2260	 4.8840
 4.2300	 4.6850
 4.2330	 4.7410
 4.2360	 4.8710
 4.2400	 4.8830
 4.2430	 4.7960
 4.2470	 4.7670
 4.2500	 4.8060
 4.2540	 4.8410
 4.2570	 4.7950
 4.2610	 4.7670
 4.2640	 4.6350
 4.2680	 4.6280
 4.2710	 4.6200
 4.2750	 4.8540
 4.2780	 5.0050
 4.2820	 4.8410
 4.2850	 4.8290
 4.2890	 4.9290
 4.2930	 4.9900
 4.2960	 4.9410
 4.3000	 4.7990
 4.3030	 4.7620
 4.3070	 4.7300
 4.3100	 4.6990
 4.3140	 4.7540
 4.3180	 4.7400
 4.3210	 4.6740
 4.3250	 4.6810
 4.3280	 4.6760
 4.3320	 4.6300
 4.3360	 4.5910
 4.3390	 4.5500
 4.3430	 4.5620
 4.3470	 4.6000
 4.3500	 4.5350
 4.3540	 4.4940
 4.3570	 4.5600
 4.3610	 4.6100
 4.3650	 4.5770
 4.3680	 4.6030
 4.3720	 4.6180
 4.3760	 4.5770
 4.3800	 4.5920
 4.3830	 4.5920
 4.3870	 4.5260
 4.3910	 4.4750
 4.3940	 4.4810
 4.3980	 4.5130
 4.4020	 4.5150
 4.4060	 4.5220
 4.4090	 4.5670
 4.4130	 4.5660
 4.4170	 4.5340
 4.4210	 4.4730
 4.4240	 4.4150
 4.4280	 4.4060
 4.4320	 4.4520
 4.4360	 4.4990
 4.4400	 4.4600
 4.4430	 4.4700
 4.4470	 4.5320
 4.4510	 4.5270
 4.4550	 4.4720
 4.4590	 4.4310
 4.4620	 4.4280
 4.4660	 4.4390
 4.4700	 4.4140
 4.4740	 4.3400
 4.4780	 4.3580
 4.4820	 4.4440
 4.4860	 4.4790
 4.4900	 4.4520
 4.4930	 4.4090
 4.4970	 4.4470
 4.5010	 4.5360
 4.5050	 4.6230
 4.5090	 4.5140
 4.5130	 4.4410
 4.5170	 4.4440
 4.5210	 4.3600
 4.5250	 4.3150
 4.5290	 4.3780
 4.5330	 4.4310
 4.5370	 4.4090
 4.5410	 4.3480
 4.5450	 4.3370
 4.5490	 4.3860
 4.5530	 4.3920
 4.5570	 4.2690
 4.5610	 4.2650
 4.5650	 4.3850
 4.5690	 4.4380
 4.5730	 4.3510
 4.5770	 4.2740
 4.5810	 4.2960
 4.5850	 4.3030
 4.5890	 4.3310
 4.5930	 4.3630
 4.5970	 4.3810
 4.6010	 4.3970
 4.6050	 4.4040
 4.6090	 4.3950
 4.6130	 4.3010
 4.6170	 4.0930
 4.6220	 4.1590
 4.6260	 4.3300
 4.6300	 4.4480
 4.6340	 4.3860
 4.6380	 4.2480
 4.6420	 4.2900
 4.6460	 4.3460
 4.6510	 4.3180
 4.6550	 4.3100
 4.6590	 4.3520
 4.6630	 4.3490
 4.6670	 4.3360
 4.6720	 4.3300
 4.6760	 4.2940
 4.6800	 4.3380
 4.6840	 4.3830
 4.6880	 4.2700
 4.6930	 4.2390
 4.6970	 4.3190
 4.7010	 4.3320
 4.7050	 4.3360
 4.7100	 4.3720
 4.7140	 4.4300
 4.7180	 4.3480
 4.7230	 4.3020
 4.7270	 4.2990
 4.7310	 4.2690
 4.7360	 4.2680
 4.7400	 4.2720
 4.7440	 4.2000
 4.7490	 4.2690
 4.7530	 4.3480
 4.7570	 4.3770
 4.7620	 4.3990
 4.7660	 4.4550
 4.7700	 4.4490
 4.7750	 4.4110
 4.7790	 4.3790
 4.7840	 4.4430
 4.7880	 4.4780
 4.7920	 4.3000
 4.7970	 4.1960
 4.8010	 4.1720
 4.8060	 4.2540
 4.8100	 4.3280
 4.8150	 4.3960
 4.8190	 4.3700
 4.8240	 4.3520
 4.8280	 4.4230
 4.8330	 4.4250
 4.8370	 4.3310
 4.8420	 4.3390
 4.8460	 4.4230
 4.8510	 4.4040
 4.8550	 4.3520
 4.8600	 4.3280
 4.8640	 4.2720
 4.8690	 4.2540
 4.8730	 4.3250
 4.8780	 4.3800
 4.8830	 4.3690
 4.8870	 4.3380
 4.8920	 4.3370
 4.8960	 4.3470
 4.9010	 4.3530
 4.9060	 4.3900
 4.9100	 4.4220
 4.9150	 4.4010
 4.9200	 4.3090
 4.9240	 4.2310
 4.9290	 4.2730
 4.9340	 4.2890
 4.9380	 4.2480
 4.9430	 4.2850
 4.9480	 4.3770
 4.9530	 4.3910
 4.9570	 4.3550
 4.9620	 4.3060
 4.9670	 4.3440
 4.9720	 4.4080
 4.9760	 4.4310
 4.9810	 4.4090
 4.9860	 4.3700
 4.9910	 4.3300
 4.9960	 4.3840
 5.0000	 4.4580
 5.0050	 4.4230
 5.0100	 4.3100
 5.0150	 4.2940
 5.0200	 4.3700
 5.0250	 4.4070
 5.0290	 4.4300
 5.0340	 4.4530
 5.0390	 4.3640
 5.0440	 4.3720
 5.0490	 4.3990
 5.0540	 4.3870
 5.0590	 4.3770
 5.0640	 4.4200
 5.0690	 4.4400
 5.0740	 4.4130
 5.0790	 4.3970
 5.0840	 4.4240
 5.0890	 4.4390
 5.0940	 4.4400
 5.0990	 4.3940
 5.1040	 4.3960
 5.1090	 4.3840
 5.1140	 4.3460
 5.1190	 4.3350
 5.1240	 4.4130
 5.1290	 4.4330
 5.1340	 4.4540
 5.1390	 4.4340
 5.1440	 4.4210
 5.1490	 4.3700
 5.1540	 4.3750
 5.1600	 4.3870
 5.1650	 4.4730
 5.1700	 4.4440
 5.1750	 4.4140
 5.1800	 4.4220
 5.1850	 4.4530
 5.1910	 4.4550
 5.1960	 4.4250
 5.2010	 4.4180
 5.2060	 4.4450
 5.2110	 4.4190
 5.2170	 4.4410
 5.2220	 4.4880
 5.2270	 4.4910
 5.2320	 4.4320
 5.2380	 4.4390
 5.2430	 4.4010
 5.2480	 4.3980
 5.2540	 4.3700
 5.2590	 4.4430
 5.2640	 4.4670
 5.2700	 4.4680
 5.2750	 4.5010
 5.2800	 4.5240
 5.2860	 4.4630
 5.2910	 4.4550
 5.2970	 4.4510
 5.3020	 4.4380
 5.3070	 4.4240
 5.3130	 4.4420
 5.3180	 4.4470
 5.3240	 4.4640
 5.3290	 4.4190
 5.3350	 4.4330
 5.3400	 4.3930
 5.3460	 4.4270
 5.3510	 4.4710
 5.3570	 4.5020
 5.3620	 4.4400
 5.3680	 4.4260
 5.3730	 4.3940
 5.3790	 4.3660
 5.3850	 4.3550
 5.3900	 4.3380
 5.3960	 4.3150
 5.4010	 4.3670
 5.4070	 4.3320
 5.4130	 4.3220
 5.4180	 4.3100
 5.4240	 4.3440
 5.4300	 4.3660
 5.4350	 4.3330
 5.4410	 4.2940
 5.4470	 4.3110
 5.4530	 4.2900
 5.4580	 4.3340
 5.4640	 4.3280
 5.4700	 4.3580
 5.4760	 4.3540
 5.4810	 4.3600
 5.4870	 4.3440
 5.4930	 4.3570
 5.4990	 4.3120
 5.5050	 4.2610
 5.5110	 4.2370
 5.5160	 4.2780
 5.5220	 4.2310
 5.5280	 4.2090
 5.5340	 4.1880
 5.5400	 4.2260
 5.5460	 4.2330
 5.5520	 4.2650
 5.5580	 4.2170
 5.5640	 4.2160
 5.5700	 4.2020
 5.5760	 4.2610
 5.5820	 4.1920
 5.5880	 4.1690
 5.5940	 4.1200
 5.6000	 4.0980
 5.6060	 4.0940
 5.6120	 4.1210
 5.6180	 4.0780
 5.6240	 4.0820
 5.6300	 4.0350
 5.6360	 4.0250
 5.6420	 3.9910
 5.6490	 3.9930
 5.6550	 3.9490
 5.6610	 3.9270
 5.6670	 3.8450
 5.6730	 3.8260
 5.6800	 3.8140
 5.6860	 3.8380
 5.6920	 3.7600
 5.6980	 3.6850
 5.7040	 3.6340
 5.7110	 3.6230
 5.7170	 3.5260
 5.7230	 3.4550
 5.7300	 3.3200
 5.7360	 3.3890
 5.7420	 3.5630
 5.7490	 3.8410
 5.7550	 4.2460
 5.7620	 4.8170
 5.7680	 5.1640
 5.7740	 5.2690
 5.7810	 5.2410
 5.7870	 5.1850
 5.7940	 4.9840
 5.8000	 4.8790
 5.8070	 4.7870
 5.8130	 4.7050
 5.8200	 4.6060
 5.8260	 4.5680
 5.8330	 4.5100
 5.8390	 4.5610
 5.8460	 4.5300
 5.8530	 4.5590
 5.8590	 4.5860
 5.8660	 4.6680
 5.8720	 4.6270
 5.8790	 4.6120
 5.8860	 4.6530
 5.8920	 4.7020
 5.8990	 4.6610
 5.9060	 4.6960
 5.9130	 4.6570
 5.9190	 4.6460
 5.9260	 4.5840
 5.9330	 4.6250
 5.9400	 4.6470
 5.9470	 4.7090
 5.9530	 4.6550
 5.9600	 4.7110
 5.9670	 4.6920
 5.9740	 4.6910
 5.9810	 4.6780
 5.9880	 4.7270
 5.9950	 4.6540
 6.0020	 4.6800
 6.0090	 4.6840
 6.0160	 4.6610
 6.0230	 4.5530
 6.0300	 4.4950
 6.0370	 4.5070
 6.0440	 4.6660
 6.0510	 4.6920
 6.0580	 4.7990
 6.0650	 4.7970
 6.0720	 4.7420
 6.0790	 4.6880
 6.0860	 4.6980
 6.0930	 4.6310
 6.1000	 4.7450
 6.1080	 4.7660
 6.1150	 4.8130
 6.1220	 4.8650
 6.1290	 4.9250
 6.1370	 4.8690
 6.1440	 4.9920
 6.1510	 5.0160
 6.1580	 5.1130
 6.1660	 5.2440
 6.1730	 5.4750
 6.1800	 5.5640
 6.1880	 5.6740
 6.1950	 5.7230
 6.2030	 5.7990
 6.2100	 5.6970
 6.2170	 5.6620
 6.2250	 5.6250
 6.2320	 5.5940
 6.2400	 5.4070
 6.2470	 5.3560
 6.2550	 5.2630
 6.2630	 5.2830
 6.2700	 5.1860
 6.2780	 5.0950
 6.2850	 5.0530
 6.2930	 5.0640
 6.3010	 4.9510
 6.3080	 4.8900
 6.3160	 4.8090
 6.3240	 4.8140
 6.3310	 4.7370
 6.3390	 4.8310
 6.3470	 4.8030
 6.3550	 4.8290
 6.3620	 4.7890
 6.3700	 4.7930
 6.3780	 4.7730
 6.3860	 4.8410
 6.3940	 4.7710
 6.4020	 4.7700
 6.4100	 4.6930
 6.4180	 4.6900
 6.4260	 4.6650
 6.4330	 4.7120
 6.4410	 4.6290
 6.4490	 4.6600
 6.4580	 4.6590
 6.4660	 4.7990
 6.4740	 4.7160
 6.4820	 4.7300
 6.4900	 4.8140
 6.4980	 4.7470
 6.5060	 4.5620
 6.5140	 4.6000
 6.5230	 4.6100
 6.5310	 4.6540
 6.5390	 4.6120
 6.5470	 4.5940
 6.5550	 4.4040
 6.5640	 4.3480
 6.5720	 4.3090
 6.5800	 4.3870
 6.5890	 4.3360
 6.5970	 4.3220
 6.6060	 4.2120
 6.6140	 4.3130
 6.6220	 4.2840
 6.6310	 4.2880
 6.6390	 4.2890
 6.6480	 4.3220
 6.6560	 4.2040
 6.6650	 4.2710
 6.6740	 4.2890
 6.6820	 4.2710
 6.6910	 4.1840
 6.6990	 4.2410
 6.7080	 4.1780
 6.7170	 4.1440
 6.7260	 4.0600
 6.7340	 4.1040
 6.7430	 4.0480
 6.7520	 4.0200
 6.7610	 4.0290
 6.7690	 4.2090
 6.7780	 4.2280
 6.7870	 4.3470
 6.7960	 4.3840
 6.8050	 4.3480
 6.8140	 4.2240
 6.8230	 4.3480
 6.8320	 4.4750
 6.8410	 4.6450
 6.8500	 4.5470
 6.8590	 4.5580
 6.8680	 4.5270
 6.8770	 4.4970
 6.8860	 4.4050
 6.8950	 4.4090
 6.9050	 4.3070
 6.9140	 4.3900
 6.9230	 4.4000
 6.9320	 4.3900
 6.9420	 4.2700
 6.9510	 4.3430
 6.9600	 4.3290
 6.9700	 4.3780
 6.9790	 4.3070
 6.9880	 4.3290
 6.9980	 4.2130
 7.0070	 4.2270
 7.0170	 4.2330
 7.0260	 4.3450
 7.0360	 4.2900
 7.0450	 4.3280
 7.0550	 4.2450
 7.0650	 4.3520
 7.0740	 4.4060
 7.0840	 4.5440
 7.0940	 4.4860
 7.1030	 4.4580
 7.1130	 4.2440
 7.1230	 4.2590
 7.1330	 4.2880
 7.1420	 4.3910
 7.1520	 4.2970
 7.1620	 4.3090
 7.1720	 4.3130
 7.1820	 4.4460
 7.1920	 4.3110
 7.2020	 4.2570
 7.2120	 4.2220
 7.2220	 4.4220
 7.2320	 4.3850
 7.2420	 4.3310
 7.2520	 4.2080
 7.2620	 4.2620
 7.2730	 4.2300
 7.2830	 4.2530
 7.2930	 4.1720
 7.3030	 4.2210
 7.3140	 4.1500
 7.3240	 4.1820
 7.3340	 4.1880
 7.3450	 4.3190
 7.3550	 4.3150
 7.3660	 4.3270
 7.3760	 4.1900
 7.3870	 4.1800
 7.3970	 4.1210
 7.4080	 4.2160
 7.4180	 4.1740
 7.4290	 4.2030
 7.4400	 4.2030
 7.4500	 4.3020
 7.4610	 4.1730
 7.4720	 4.2650
 7.4830	 4.3350
 7.4930	 4.3940
 7.5040	 4.3520
 7.5150	 4.4490
 7.5260	 4.4890
 7.5370	 4.6410
 7.5480	 4.5760
 7.5590	 4.7280
 7.5700	 4.7680
 7.5810	 4.7830
 7.5920	 4.6340
 7.6030	 4.5620
 7.6140	 4.3270
 7.6260	 4.3560
 7.6370	 4.2420
 7.6480	 4.1750
 7.6590	 4.1250
 7.6710	 4.2440
 7.6820	 4.2020
 7.6930	 4.2330
 7.7050	 4.1350
 7.7160	 4.2120
 7.7280	 4.1030
 7.7390	 4.0360
 7.7510	 3.9120
 7.7630	 4.0350
 7.7740	 4.0570
 7.7860	 4.0990
 7.7980	 3.9220
 7.8090	 4.0280
 7.8210	 4.0590
 7.8330	 4.1040
 7.8450	 3.9720
 7.8570	 4.0110
 7.8690	 3.9710
 7.8810	 4.0440
 7.8930	 3.9330
 7.9050	 4.0270
 7.9170	 3.9940
 7.9290	 3.9530
 7.9410	 3.7760
 7.9530	 3.9260
 7.9650	 3.8790
 7.9780	 3.9540
 7.9900	 3.8740
 8.0020	 3.9080
 8.0150	 3.8010
 8.0270	 3.9310
 8.0390	 3.9650
 8.0520	 3.9830
 8.0640	 3.7900
 8.0770	 3.8900
 8.0900	 3.9450
 8.1020	 4.0930
 8.1150	 4.0730
 8.1280	 4.2190
 8.1400	 3.9420
 8.1530	 3.9400
 8.1660	 3.9140
 8.1790	 4.1020
 8.1920	 4.0010
 8.2050	 4.0690
 8.2180	 4.0360
 8.2310	 4.0640
 8.2440	 3.9010
 8.2570	 3.9290
 8.2700	 3.8080
 8.2830	 3.9330
 8.2970	 3.7770
 8.3100	 3.8700
 8.3230	 3.6930
 8.3370	 3.7090
 8.3500	 3.7170
 8.3640	 3.9590
 8.3770	 3.8830
 8.3910	 3.9210
 8.4040	 3.7990
 8.4180	 3.9780
 8.4320	 3.9330
 8.4450	 4.0670
 8.4590	 3.9420
 8.4730	 4.0380
 8.4870	 3.8620
 8.5010	 3.9840
 8.5150	 3.9470
 8.5290	 4.1610
 8.5430	 4.1500
 8.5570	 4.2530
 8.5710	 4.1220
 8.5850	 4.2870
 8.5990	 4.2740
 8.6140	 4.3700
 8.6280	 4.3070
 8.6420	 4.4610
 8.6570	 4.3490
 8.6710	 4.4490
 8.6860	 4.3470
 8.7000	 4.5210
 8.7150	 4.4170
 8.7300	 4.4730
 8.7440	 4.2800
 8.7590	 4.4200
 8.7740	 4.3320
 8.7890	 4.3760
 8.8040	 4.3820
 8.8190	 4.6080
 8.8340	 4.3910
 8.8490	 4.4180
 8.8640	 4.3830
 8.8790	 4.4960
 8.8940	 4.3170
 8.9100	 4.4030
 8.9250	 4.2960
 8.9400	 4.4040
 8.9560	 4.3480
 8.9710	 4.5350
 8.9870	 4.3240
 9.0020	 4.3310
 9.0180	 4.2180
 9.0340	 4.4240
 9.0500	 4.3620
 9.0650	 4.5870
 9.0810	 4.3250
 9.0970	 4.3950
 9.1130	 4.4000
 9.1290	 4.5830
 9.1450	 4.4180
 9.1610	 4.4560
 9.1780	 4.2630
 9.1940	 4.4280
 9.2100	 4.3550
 9.2270	 4.4850
 9.2430	 4.3590
 9.2600	 4.4340
 9.2760	 4.2690
 9.2930	 4.4010
 9.3090	 4.2160
 9.3260	 4.3910
 9.3430	 4.3890
 9.3600	 4.5090
 9.3770	 4.3190
 9.3940	 4.4140
 9.4110	 4.2620
 9.4280	 4.3790
 9.4450	 4.2720
 9.4620	 4.4660
 9.4800	 4.2830
 9.4970	 4.3730
 9.5140	 4.2140
 9.5320	 4.4170
 9.5500	 4.3490
 9.5670	 4.4910
 9.5850	 4.3440
 9.6030	 4.4540
 9.6200	 4.3050
 9.6380	 4.5050
 9.6560	 4.4510
 9.6740	 4.6170
 9.6920	 4.3780
 9.7100	 4.4790
 9.7290	 4.3070
 9.7470	 4.3810
 9.7650	 4.2420
 9.7840	 4.2730
 9.8020	 4.1290
 9.8210	 4.4330
 9.8390	 4.3900
 9.8580	 4.4580
 9.8770	 4.2890
 9.8960	 4.4870
 9.9150	 4.4010
 9.9340	 4.4940
 9.9530	 4.2810
 9.9720	 4.4970
 9.9910	 4.3340
10.0100	 4.4320
10.0300	 4.3440
10.0490	 4.5000
10.0690	 4.4120
10.0880	 4.5570
10.1080	 4.3240
10.1280	 4.4270
10.1480	 4.3930
10.1670	 4.5530
10.1870	 4.3290
10.2070	 4.4040
10.2280	 4.2480
10.2480	 4.3930
10.2680	 4.2820
10.2890	 4.3700
10.3090	 4.2500
10.3300	 4.4530
10.3500	 4.2510
10.3710	 4.3260
10.3920	 4.3060
10.4120	 4.5260
10.4330	 4.3630
10.4540	 4.5500
10.4760	 4.4360
10.4970	 4.4690
10.5180	 4.2560
10.5390	 4.3990
10.5610	 4.2310
10.5820	 4.3340
10.6040	 4.1950
10.6260	 4.4620
10.6480	 4.4040
10.6700	 4.4880
10.6920	 4.3780
10.7140	 4.5610
10.7360	 4.2910
10.7580	 4.3430
10.7800	 4.2040
10.8030	 4.4010
10.8250	 4.2680
10.8480	 4.4760
10.8710	 4.3130
10.8940	 4.5300
10.9170	 4.3770
10.9400	 4.5560
10.9630	 4.3060
10.9860	 4.3700
11.0090	 4.2480
11.0330	 4.4160
11.0560	 4.3460
11.0800	 4.4630
11.1040	 3.9970
11.1270	 4.1200
11.1510	 4.3250
11.1750	 4.5470
11.2000	 4.3030
11.2240	 4.3410
11.2480	 4.2660
11.2730	 4.6840
11.2970	 4.4270
11.3220	 4.3940
11.3470	 4.3210
11.3720	 4.5520
11.3970	 4.3660
11.4220	 4.5090
11.4470	 4.2750
11.4720	 4.5450
11.4980	 4.3630
11.5230	 4.5110
11.5490	 4.2860
11.5750	 4.3670
11.6000	 4.0890
11.6260	 4.2310
11.6530	 4.1520
11.6790	 4.4130
11.7050	 4.2230
11.7320	 4.3130
11.7580	 4.0570
11.7850	 4.2190
11.8120	 4.0300
11.8390	 4.2330
11.8660	 4.0360
11.8930	 4.2800
11.9200	 4.0700
11.9480	 4.2900
11.9760	 4.0740
12.0030	 4.3490
12.0310	 4.1400
12.0590	 4.3440
12.0870	 4.3480
12.1150	 4.4550
12.1440	 4.0850
12.1720	 4.1230
12.2010	 3.7920
12.2300	 4.1190
12.2590	 3.9290
12.2880	 4.1830
12.3170	 3.9760
12.3460	 4.2090
12.3760	 3.9180
12.4050	 4.1500
12.4350	 4.1060
12.4650	 4.2390
12.4950	 3.9260
12.5250	 4.1150
12.5550	 4.0210
12.5860	 4.3910
12.6170	 4.1340
12.6470	 4.4380
12.6780	 4.1390
12.7090	 4.2350
12.7410	 3.7890
12.7720	 3.9260
12.8030	 3.6870
12.8350	 3.9040
12.8670	 3.7630
12.8990	 4.1430
12.9310	 3.8920
12.9640	 4.0580
12.9960	 3.6940
13.0290	 3.8910
13.0610	 3.6800
13.0940	 3.8390
13.1280	 3.5960
13.1610	 4.0270
13.1940	 3.6280
13.2280	 3.8310
13.2620	 3.5940
13.2960	 3.8140
13.3300	 3.5700
13.3640	 3.8550
13.3990	 3.6140
13.4340	 3.6220
13.4690	 3.3170
13.5040	 3.7340
13.5390	 3.4530
13.5740	 3.7680
13.6100	 3.3570
13.6460	 3.7250
13.6820	 3.6720
13.7180	 4.0070
13.7540	 3.5640
13.7910	 3.9990
13.8280	 3.8200
13.8650	 4.2840
13.9020	 4.1230
13.9390	 4.3580
13.9770	 3.9280
14.0150	 4.2550
14.0530	 3.8390
14.0910	 4.0740
14.1290	 3.8650
14.1680	 4.2970
14.2070	 3.7530
14.2460	 3.9470
14.2850	 3.5230
14.3240	 3.9430
14.3640	 3.7970
14.4040	 4.1930
14.4440	 3.6920
14.4840	 4.0590
14.5250	 3.6250
14.5660	 4.0440
14.6070	 3.5470
14.6480	 4.0860
14.6900	 3.7520
14.7310	 4.3970
14.7730	 3.5790
14.8150	 3.9950
14.8580	 3.5530
14.9010	 4.1000
14.9440	 2.6800
14.9870	 3.3740
15.0300	 3.4660
15.0740	 4.1120
15.1180	 3.3560
15.1620	 3.8490
15.2060	 3.2620
15.2510	 3.7970
15.2960	 2.8680
15.3410	 3.6620
15.3870	 3.2410
