Name: Arctostaphylos glandulosa 3
Type: vegetation
Class: Shrub
Genus: Arctostaphylos
Species: glandulosa
Sample No.: VH225
Owner: UCSB
Wavelength Range: VSWIR
Origin: 34.5085; -119.7682; WGS84
Collection Date: 10/13/2013
Description: Samples were collected as part of the HyspIRI Airborne Campaign. 48 individual plants were sampled in three times in 2013 - spring  summer  and fall. The name of the sample includes a 1  2  or 3 which references a different individual of the species. Samples were taken to JPL and processed within 48 hours of collection. The same leaves were processed in the Nicolet and then measured using the ASD.
Measurement: Bidirectional reflectance
First Column: X
Second Column: Y
X Units: Wavelength (micrometers)
Y Units: Reflectance (percentage)
First X Value: 0.35
Last X Value: 2.5
Number of X Values: 2151
Additional Information: vegetation.shrub.arctostaphylos.glandulosa.vswir.vh225.ucsb.asd.ancillary.txt

 0.3500	 5.8720
 0.3510	 6.1460
 0.3520	 6.1440
 0.3530	 6.0090
 0.3540	 5.9390
 0.3550	 5.6320
 0.3560	 5.7950
 0.3570	 6.1190
 0.3580	 5.8800
 0.3590	 5.7140
 0.3600	 5.7150
 0.3610	 5.8010
 0.3620	 5.7300
 0.3630	 5.6170
 0.3640	 5.5920
 0.3650	 5.7210
 0.3660	 5.8810
 0.3670	 5.8200
 0.3680	 5.6350
 0.3690	 5.6450
 0.3700	 5.7610
 0.3710	 5.8180
 0.3720	 5.7890
 0.3730	 5.9330
 0.3740	 5.8600
 0.3750	 5.7640
 0.3760	 5.8730
 0.3770	 5.6190
 0.3780	 5.5230
 0.3790	 5.7110
 0.3800	 5.9160
 0.3810	 5.8200
 0.3820	 5.6790
 0.3830	 5.7020
 0.3840	 5.7790
 0.3850	 5.7810
 0.3860	 5.6650
 0.3870	 5.5060
 0.3880	 5.7780
 0.3890	 5.9190
 0.3900	 5.7890
 0.3910	 5.7400
 0.3920	 5.7120
 0.3930	 5.7370
 0.3940	 5.8080
 0.3950	 5.7850
 0.3960	 5.7550
 0.3970	 5.7430
 0.3980	 5.7380
 0.3990	 5.7090
 0.4000	 5.7300
 0.4010	 5.7870
 0.4020	 5.7390
 0.4030	 5.7170
 0.4040	 5.7220
 0.4050	 5.7310
 0.4060	 5.7660
 0.4070	 5.7260
 0.4080	 5.6550
 0.4090	 5.6780
 0.4100	 5.7080
 0.4110	 5.7420
 0.4120	 5.7750
 0.4130	 5.7790
 0.4140	 5.7570
 0.4150	 5.7460
 0.4160	 5.7770
 0.4170	 5.8060
 0.4180	 5.8270
 0.4190	 5.8280
 0.4200	 5.7930
 0.4210	 5.7840
 0.4220	 5.8320
 0.4230	 5.9210
 0.4240	 5.9390
 0.4250	 5.9270
 0.4260	 5.9470
 0.4270	 6.0460
 0.4280	 6.0770
 0.4290	 6.0980
 0.4300	 6.1470
 0.4310	 6.1980
 0.4320	 6.2650
 0.4330	 6.3300
 0.4340	 6.3820
 0.4350	 6.4510
 0.4360	 6.5220
 0.4370	 6.5820
 0.4380	 6.6310
 0.4390	 6.7220
 0.4400	 6.8100
 0.4410	 6.8640
 0.4420	 6.9100
 0.4430	 6.9940
 0.4440	 7.0860
 0.4450	 7.1420
 0.4460	 7.2180
 0.4470	 7.3010
 0.4480	 7.3840
 0.4490	 7.4830
 0.4500	 7.5390
 0.4510	 7.5800
 0.4520	 7.6380
 0.4530	 7.7030
 0.4540	 7.7490
 0.4550	 7.7900
 0.4560	 7.8570
 0.4570	 7.8850
 0.4580	 7.9120
 0.4590	 7.9550
 0.4600	 7.9710
 0.4610	 8.0090
 0.4620	 8.0640
 0.4630	 8.1130
 0.4640	 8.1370
 0.4650	 8.1330
 0.4660	 8.1270
 0.4670	 8.1690
 0.4680	 8.1900
 0.4690	 8.1990
 0.4700	 8.2180
 0.4710	 8.2500
 0.4720	 8.2670
 0.4730	 8.2780
 0.4740	 8.3100
 0.4750	 8.3160
 0.4760	 8.3240
 0.4770	 8.3510
 0.4780	 8.3790
 0.4790	 8.3950
 0.4800	 8.4050
 0.4810	 8.4210
 0.4820	 8.4370
 0.4830	 8.4560
 0.4840	 8.4810
 0.4850	 8.5080
 0.4860	 8.5240
 0.4870	 8.5410
 0.4880	 8.5730
 0.4890	 8.6230
 0.4900	 8.6710
 0.4910	 8.7140
 0.4920	 8.7520
 0.4930	 8.8070
 0.4940	 8.8610
 0.4950	 8.9110
 0.4960	 8.9780
 0.4970	 9.0490
 0.4980	 9.1220
 0.4990	 9.2030
 0.5000	 9.2890
 0.5010	 9.3790
 0.5020	 9.4790
 0.5030	 9.5950
 0.5040	 9.7150
 0.5050	 9.8390
 0.5060	 9.9680
 0.5070	10.1010
 0.5080	10.2410
 0.5090	10.3960
 0.5100	10.5750
 0.5110	10.7550
 0.5120	10.9480
 0.5130	11.1550
 0.5140	11.3500
 0.5150	11.5490
 0.5160	11.7660
 0.5170	12.0080
 0.5180	12.2430
 0.5190	12.4690
 0.5200	12.6970
 0.5210	12.9430
 0.5220	13.1850
 0.5230	13.4200
 0.5240	13.6490
 0.5250	13.8660
 0.5260	14.0840
 0.5270	14.3020
 0.5280	14.5160
 0.5290	14.7050
 0.5300	14.8840
 0.5310	15.0600
 0.5320	15.2190
 0.5330	15.3750
 0.5340	15.5240
 0.5350	15.6610
 0.5360	15.7920
 0.5370	15.9210
 0.5380	16.0450
 0.5390	16.1530
 0.5400	16.2610
 0.5410	16.3660
 0.5420	16.4650
 0.5430	16.5650
 0.5440	16.6640
 0.5450	16.7560
 0.5460	16.8360
 0.5470	16.8910
 0.5480	16.9370
 0.5490	16.9890
 0.5500	17.0500
 0.5510	17.0990
 0.5520	17.1360
 0.5530	17.1660
 0.5540	17.1910
 0.5550	17.2060
 0.5560	17.2080
 0.5570	17.1970
 0.5580	17.1680
 0.5590	17.1330
 0.5600	17.0930
 0.5610	17.0340
 0.5620	16.9740
 0.5630	16.9100
 0.5640	16.8270
 0.5650	16.7400
 0.5660	16.6570
 0.5670	16.5760
 0.5680	16.4830
 0.5690	16.3800
 0.5700	16.2740
 0.5710	16.1710
 0.5720	16.0700
 0.5730	15.9670
 0.5740	15.8630
 0.5750	15.7650
 0.5760	15.6790
 0.5770	15.5970
 0.5780	15.5100
 0.5790	15.4170
 0.5800	15.3190
 0.5810	15.2260
 0.5820	15.1540
 0.5830	15.1050
 0.5840	15.0600
 0.5850	15.0140
 0.5860	14.9770
 0.5870	14.9260
 0.5880	14.8690
 0.5890	14.8160
 0.5900	14.7730
 0.5910	14.7410
 0.5920	14.7170
 0.5930	14.6910
 0.5940	14.6600
 0.5950	14.6260
 0.5960	14.5940
 0.5970	14.5790
 0.5980	14.5550
 0.5990	14.5260
 0.6000	14.5020
 0.6010	14.4750
 0.6020	14.4380
 0.6030	14.3940
 0.6040	14.3530
 0.6050	14.3110
 0.6060	14.2570
 0.6070	14.1890
 0.6080	14.1260
 0.6090	14.0580
 0.6100	13.9930
 0.6110	13.9390
 0.6120	13.8680
 0.6130	13.7860
 0.6140	13.7040
 0.6150	13.6300
 0.6160	13.5570
 0.6170	13.4880
 0.6180	13.4270
 0.6190	13.3640
 0.6200	13.3150
 0.6210	13.2760
 0.6220	13.2260
 0.6230	13.1880
 0.6240	13.1650
 0.6250	13.1510
 0.6260	13.1260
 0.6270	13.1090
 0.6280	13.1010
 0.6290	13.0950
 0.6300	13.0900
 0.6310	13.0770
 0.6320	13.0560
 0.6330	13.0360
 0.6340	13.0010
 0.6350	12.9460
 0.6360	12.8720
 0.6370	12.7920
 0.6380	12.6980
 0.6390	12.5870
 0.6400	12.4590
 0.6410	12.3270
 0.6420	12.1890
 0.6430	12.0440
 0.6440	11.8950
 0.6450	11.7530
 0.6460	11.6170
 0.6470	11.4860
 0.6480	11.3790
 0.6490	11.2760
 0.6500	11.1790
 0.6510	11.1060
 0.6520	11.0500
 0.6530	10.9980
 0.6540	10.9390
 0.6550	10.8770
 0.6560	10.8160
 0.6570	10.7470
 0.6580	10.6610
 0.6590	10.5760
 0.6600	10.4810
 0.6610	10.3720
 0.6620	10.2620
 0.6630	10.1590
 0.6640	10.0600
 0.6650	 9.9620
 0.6660	 9.8730
 0.6670	 9.7920
 0.6680	 9.7220
 0.6690	 9.6640
 0.6700	 9.6260
 0.6710	 9.5980
 0.6720	 9.5740
 0.6730	 9.5570
 0.6740	 9.5540
 0.6750	 9.5670
 0.6760	 9.5910
 0.6770	 9.6180
 0.6780	 9.6500
 0.6790	 9.6940
 0.6800	 9.7590
 0.6810	 9.8500
 0.6820	 9.9640
 0.6830	10.1020
 0.6840	10.2760
 0.6850	10.5000
 0.6860	10.7730
 0.6870	11.0920
 0.6880	11.4760
 0.6890	11.9190
 0.6900	12.4230
 0.6910	13.0010
 0.6920	13.6380
 0.6930	14.3340
 0.6940	15.0910
 0.6950	15.9040
 0.6960	16.7640
 0.6970	17.6630
 0.6980	18.5940
 0.6990	19.5590
 0.7000	20.5360
 0.7010	21.5170
 0.7020	22.5070
 0.7030	23.4840
 0.7040	24.4430
 0.7050	25.3840
 0.7060	26.3140
 0.7070	27.2000
 0.7080	28.0500
 0.7090	28.8860
 0.7100	29.6950
 0.7110	30.4600
 0.7120	31.1850
 0.7130	31.8930
 0.7140	32.5610
 0.7150	33.2010
 0.7160	33.8180
 0.7170	34.3940
 0.7180	34.9390
 0.7190	35.4680
 0.7200	35.9910
 0.7210	36.4510
 0.7220	36.8820
 0.7230	37.3060
 0.7240	37.7180
 0.7250	38.0900
 0.7260	38.4410
 0.7270	38.7850
 0.7280	39.0840
 0.7290	39.3670
 0.7300	39.6450
 0.7310	39.9130
 0.7320	40.1530
 0.7330	40.3790
 0.7340	40.5880
 0.7350	40.7590
 0.7360	40.9460
 0.7370	41.1380
 0.7380	41.3140
 0.7390	41.4600
 0.7400	41.6060
 0.7410	41.7500
 0.7420	41.8800
 0.7430	42.0000
 0.7440	42.1050
 0.7450	42.1970
 0.7460	42.2900
 0.7470	42.3930
 0.7480	42.4840
 0.7490	42.5550
 0.7500	42.6340
 0.7510	42.7130
 0.7520	42.7800
 0.7530	42.8290
 0.7540	42.8900
 0.7550	42.9450
 0.7560	42.9880
 0.7570	43.0260
 0.7580	43.0820
 0.7590	43.1300
 0.7600	43.1610
 0.7610	43.1990
 0.7620	43.2300
 0.7630	43.2670
 0.7640	43.3120
 0.7650	43.3300
 0.7660	43.3500
 0.7670	43.3870
 0.7680	43.4390
 0.7690	43.4630
 0.7700	43.4860
 0.7710	43.5230
 0.7720	43.5530
 0.7730	43.5700
 0.7740	43.5860
 0.7750	43.6120
 0.7760	43.6430
 0.7770	43.6700
 0.7780	43.6900
 0.7790	43.7050
 0.7800	43.7190
 0.7810	43.7360
 0.7820	43.7590
 0.7830	43.7910
 0.7840	43.8200
 0.7850	43.8370
 0.7860	43.8440
 0.7870	43.8660
 0.7880	43.8690
 0.7890	43.8840
 0.7900	43.9360
 0.7910	43.9480
 0.7920	43.9550
 0.7930	43.9700
 0.7940	43.9880
 0.7950	43.9950
 0.7960	44.0170
 0.7970	44.0450
 0.7980	44.0220
 0.7990	44.0340
 0.8000	44.0570
 0.8010	44.0610
 0.8020	44.0820
 0.8030	44.0930
 0.8040	44.0930
 0.8050	44.0890
 0.8060	44.0690
 0.8070	44.0770
 0.8080	44.0990
 0.8090	44.0780
 0.8100	44.0930
 0.8110	44.1110
 0.8120	44.1070
 0.8130	44.0960
 0.8140	44.0880
 0.8150	44.0840
 0.8160	44.0820
 0.8170	44.0790
 0.8180	44.0820
 0.8190	44.0800
 0.8200	44.0610
 0.8210	44.0610
 0.8220	44.0590
 0.8230	44.0490
 0.8240	44.0370
 0.8250	44.0250
 0.8260	44.0270
 0.8270	44.0370
 0.8280	44.0140
 0.8290	43.9920
 0.8300	43.9750
 0.8310	43.9620
 0.8320	43.9550
 0.8330	43.9590
 0.8340	43.9600
 0.8350	43.9420
 0.8360	43.9290
 0.8370	43.9190
 0.8380	43.9110
 0.8390	43.9080
 0.8400	43.9170
 0.8410	43.9190
 0.8420	43.9140
 0.8430	43.9320
 0.8440	43.9280
 0.8450	43.9190
 0.8460	43.9170
 0.8470	43.8990
 0.8480	43.8980
 0.8490	43.9120
 0.8500	43.9260
 0.8510	43.9250
 0.8520	43.9320
 0.8530	43.9530
 0.8540	43.9730
 0.8550	43.9670
 0.8560	43.9520
 0.8570	43.9460
 0.8580	43.9550
 0.8590	43.9690
 0.8600	43.9820
 0.8610	43.9870
 0.8620	43.9740
 0.8630	43.9900
 0.8640	44.0150
 0.8650	44.0250
 0.8660	44.0250
 0.8670	44.0270
 0.8680	44.0430
 0.8690	44.0680
 0.8700	44.0550
 0.8710	44.0520
 0.8720	44.0760
 0.8730	44.1170
 0.8740	44.1350
 0.8750	44.1450
 0.8760	44.1490
 0.8770	44.1360
 0.8780	44.1510
 0.8790	44.1690
 0.8800	44.1740
 0.8810	44.1790
 0.8820	44.1840
 0.8830	44.1940
 0.8840	44.2100
 0.8850	44.2330
 0.8860	44.2290
 0.8870	44.2260
 0.8880	44.2480
 0.8890	44.2400
 0.8900	44.2540
 0.8910	44.2780
 0.8920	44.2780
 0.8930	44.2740
 0.8940	44.2780
 0.8950	44.2880
 0.8960	44.2930
 0.8970	44.3030
 0.8980	44.3070
 0.8990	44.3060
 0.9000	44.3200
 0.9010	44.3320
 0.9020	44.3250
 0.9030	44.3130
 0.9040	44.3410
 0.9050	44.3280
 0.9060	44.3140
 0.9070	44.3340
 0.9080	44.3770
 0.9090	44.3690
 0.9100	44.3320
 0.9110	44.3070
 0.9120	44.3140
 0.9130	44.3430
 0.9140	44.3630
 0.9150	44.3530
 0.9160	44.3560
 0.9170	44.3430
 0.9180	44.3280
 0.9190	44.3330
 0.9200	44.3220
 0.9210	44.3260
 0.9220	44.3350
 0.9230	44.3200
 0.9240	44.3060
 0.9250	44.2830
 0.9260	44.2580
 0.9270	44.2510
 0.9280	44.2330
 0.9290	44.2300
 0.9300	44.2360
 0.9310	44.2110
 0.9320	44.1730
 0.9330	44.1360
 0.9340	44.1120
 0.9350	44.1150
 0.9360	44.0740
 0.9370	44.0260
 0.9380	44.0040
 0.9390	43.9980
 0.9400	43.9220
 0.9410	43.8720
 0.9420	43.8920
 0.9430	43.8620
 0.9440	43.8020
 0.9450	43.7280
 0.9460	43.6610
 0.9470	43.6170
 0.9480	43.5660
 0.9490	43.4880
 0.9500	43.3890
 0.9510	43.3410
 0.9520	43.2750
 0.9530	43.1830
 0.9540	43.0790
 0.9550	42.9780
 0.9560	42.9210
 0.9570	42.8380
 0.9580	42.6790
 0.9590	42.5800
 0.9600	42.5160
 0.9610	42.4570
 0.9620	42.3870
 0.9630	42.3560
 0.9640	42.2880
 0.9650	42.2130
 0.9660	42.1900
 0.9670	42.2080
 0.9680	42.1620
 0.9690	42.0850
 0.9700	42.0590
 0.9710	42.0410
 0.9720	42.0210
 0.9730	42.0070
 0.9740	42.0050
 0.9750	41.9890
 0.9760	41.9770
 0.9770	41.9810
 0.9780	42.0000
 0.9790	41.9700
 0.9800	41.9580
 0.9810	41.9780
 0.9820	42.0070
 0.9830	42.0350
 0.9840	42.0420
 0.9850	42.0550
 0.9860	42.1030
 0.9870	42.1150
 0.9880	42.1040
 0.9890	42.1140
 0.9900	42.1750
 0.9910	42.2070
 0.9920	42.3410
 0.9930	42.4740
 0.9940	42.6070
 0.9950	42.7410
 0.9960	42.8740
 0.9970	43.0070
 0.9980	43.1400
 0.9990	43.2740
 1.0000	43.4070
 1.0010	43.5400
 1.0020	43.6740
 1.0030	43.8070
 1.0040	43.9400
 1.0050	44.0740
 1.0060	44.2070
 1.0070	44.3400
 1.0080	44.4730
 1.0090	44.6070
 1.0100	44.6070
 1.0110	44.6570
 1.0120	44.6980
 1.0130	44.7310
 1.0140	44.7780
 1.0150	44.8300
 1.0160	44.8700
 1.0170	44.9200
 1.0180	44.9730
 1.0190	44.9940
 1.0200	45.0080
 1.0210	45.0380
 1.0220	45.0690
 1.0230	45.1070
 1.0240	45.1630
 1.0250	45.2050
 1.0260	45.2450
 1.0270	45.2850
 1.0280	45.3200
 1.0290	45.3580
 1.0300	45.4030
 1.0310	45.4340
 1.0320	45.4580
 1.0330	45.4790
 1.0340	45.5080
 1.0350	45.5420
 1.0360	45.5920
 1.0370	45.6380
 1.0380	45.6730
 1.0390	45.6980
 1.0400	45.7250
 1.0410	45.7420
 1.0420	45.7670
 1.0430	45.7960
 1.0440	45.8210
 1.0450	45.8520
 1.0460	45.8760
 1.0470	45.8980
 1.0480	45.9160
 1.0490	45.9210
 1.0500	45.9370
 1.0510	45.9590
 1.0520	45.9750
 1.0530	45.9970
 1.0540	46.0290
 1.0550	46.0530
 1.0560	46.0780
 1.0570	46.0940
 1.0580	46.1020
 1.0590	46.1140
 1.0600	46.1200
 1.0610	46.1290
 1.0620	46.1440
 1.0630	46.1540
 1.0640	46.1580
 1.0650	46.1650
 1.0660	46.1710
 1.0670	46.1810
 1.0680	46.1940
 1.0690	46.2120
 1.0700	46.2240
 1.0710	46.2410
 1.0720	46.2470
 1.0730	46.2470
 1.0740	46.2470
 1.0750	46.2390
 1.0760	46.2370
 1.0770	46.2350
 1.0780	46.2340
 1.0790	46.2370
 1.0800	46.2350
 1.0810	46.2230
 1.0820	46.2220
 1.0830	46.2300
 1.0840	46.2290
 1.0850	46.2240
 1.0860	46.2300
 1.0870	46.2270
 1.0880	46.2150
 1.0890	46.2090
 1.0900	46.2090
 1.0910	46.2000
 1.0920	46.1850
 1.0930	46.1750
 1.0940	46.1630
 1.0950	46.1530
 1.0960	46.1510
 1.0970	46.1360
 1.0980	46.1100
 1.0990	46.0930
 1.1000	46.0770
 1.1010	46.0570
 1.1020	46.0440
 1.1030	46.0230
 1.1040	45.9980
 1.1050	45.9760
 1.1060	45.9530
 1.1070	45.9340
 1.1080	45.9110
 1.1090	45.8860
 1.1100	45.8580
 1.1110	45.8280
 1.1120	45.7950
 1.1130	45.7570
 1.1140	45.7170
 1.1150	45.6780
 1.1160	45.6340
 1.1170	45.5900
 1.1180	45.5380
 1.1190	45.4830
 1.1200	45.4200
 1.1210	45.3510
 1.1220	45.2840
 1.1230	45.2070
 1.1240	45.1270
 1.1250	45.0420
 1.1260	44.9520
 1.1270	44.8560
 1.1280	44.7570
 1.1290	44.6470
 1.1300	44.5290
 1.1310	44.4030
 1.1320	44.2700
 1.1330	44.1290
 1.1340	43.9790
 1.1350	43.8220
 1.1360	43.6610
 1.1370	43.4870
 1.1380	43.3000
 1.1390	43.1030
 1.1400	42.8880
 1.1410	42.6690
 1.1420	42.4470
 1.1430	42.2210
 1.1440	41.9980
 1.1450	41.7750
 1.1460	41.5540
 1.1470	41.3300
 1.1480	41.1170
 1.1490	40.9050
 1.1500	40.7010
 1.1510	40.4990
 1.1520	40.3130
 1.1530	40.1300
 1.1540	39.9670
 1.1550	39.8210
 1.1560	39.6900
 1.1570	39.5750
 1.1580	39.4750
 1.1590	39.3840
 1.1600	39.3050
 1.1610	39.2280
 1.1620	39.1570
 1.1630	39.1020
 1.1640	39.0510
 1.1650	39.0090
 1.1660	38.9820
 1.1670	38.9490
 1.1680	38.9180
 1.1690	38.8900
 1.1700	38.8660
 1.1710	38.8400
 1.1720	38.8190
 1.1730	38.7970
 1.1740	38.7740
 1.1750	38.7530
 1.1760	38.7340
 1.1770	38.7150
 1.1780	38.6900
 1.1790	38.6620
 1.1800	38.6310
 1.1810	38.6020
 1.1820	38.5720
 1.1830	38.5400
 1.1840	38.5090
 1.1850	38.4730
 1.1860	38.4370
 1.1870	38.4060
 1.1880	38.3780
 1.1890	38.3540
 1.1900	38.3280
 1.1910	38.3050
 1.1920	38.2830
 1.1930	38.2560
 1.1940	38.2340
 1.1950	38.2130
 1.1960	38.1990
 1.1970	38.1820
 1.1980	38.1710
 1.1990	38.1630
 1.2000	38.1540
 1.2010	38.1530
 1.2020	38.1610
 1.2030	38.1720
 1.2040	38.1870
 1.2050	38.2050
 1.2060	38.2230
 1.2070	38.2510
 1.2080	38.2820
 1.2090	38.3110
 1.2100	38.3540
 1.2110	38.3980
 1.2120	38.4460
 1.2130	38.4950
 1.2140	38.5460
 1.2150	38.6030
 1.2160	38.6640
 1.2170	38.7320
 1.2180	38.8040
 1.2190	38.8830
 1.2200	38.9590
 1.2210	39.0330
 1.2220	39.1140
 1.2230	39.1940
 1.2240	39.2770
 1.2250	39.3600
 1.2260	39.4390
 1.2270	39.5150
 1.2280	39.5860
 1.2290	39.6530
 1.2300	39.7220
 1.2310	39.7940
 1.2320	39.8580
 1.2330	39.9150
 1.2340	39.9690
 1.2350	40.0100
 1.2360	40.0580
 1.2370	40.1070
 1.2380	40.1580
 1.2390	40.2040
 1.2400	40.2490
 1.2410	40.2870
 1.2420	40.3220
 1.2430	40.3620
 1.2440	40.4020
 1.2450	40.4460
 1.2460	40.4870
 1.2470	40.5200
 1.2480	40.5510
 1.2490	40.5750
 1.2500	40.5950
 1.2510	40.6190
 1.2520	40.6460
 1.2530	40.6720
 1.2540	40.6990
 1.2550	40.7220
 1.2560	40.7380
 1.2570	40.7550
 1.2580	40.7740
 1.2590	40.7880
 1.2600	40.7980
 1.2610	40.8120
 1.2620	40.8260
 1.2630	40.8340
 1.2640	40.8470
 1.2650	40.8610
 1.2660	40.8620
 1.2670	40.8640
 1.2680	40.8670
 1.2690	40.8660
 1.2700	40.8710
 1.2710	40.8720
 1.2720	40.8610
 1.2730	40.8510
 1.2740	40.8490
 1.2750	40.8440
 1.2760	40.8390
 1.2770	40.8340
 1.2780	40.8190
 1.2790	40.7980
 1.2800	40.7810
 1.2810	40.7580
 1.2820	40.7370
 1.2830	40.7120
 1.2840	40.6800
 1.2850	40.6530
 1.2860	40.6120
 1.2870	40.5700
 1.2880	40.5250
 1.2890	40.4820
 1.2900	40.4310
 1.2910	40.3900
 1.2920	40.3390
 1.2930	40.2790
 1.2940	40.2220
 1.2950	40.1550
 1.2960	40.0820
 1.2970	40.0100
 1.2980	39.9360
 1.2990	39.8610
 1.3000	39.7890
 1.3010	39.7190
 1.3020	39.6370
 1.3030	39.5480
 1.3040	39.4550
 1.3050	39.3560
 1.3060	39.2580
 1.3070	39.1590
 1.3080	39.0560
 1.3090	38.9430
 1.3100	38.8270
 1.3110	38.7070
 1.3120	38.5810
 1.3130	38.4590
 1.3140	38.3290
 1.3150	38.1950
 1.3160	38.0560
 1.3170	37.9120
 1.3180	37.7660
 1.3190	37.6150
 1.3200	37.4550
 1.3210	37.2940
 1.3220	37.1260
 1.3230	36.9540
 1.3240	36.7840
 1.3250	36.6060
 1.3260	36.4260
 1.3270	36.2400
 1.3280	36.0500
 1.3290	35.8610
 1.3300	35.6760
 1.3310	35.4860
 1.3320	35.2940
 1.3330	35.1040
 1.3340	34.9060
 1.3350	34.7060
 1.3360	34.5050
 1.3370	34.3020
 1.3380	34.1030
 1.3390	33.9020
 1.3400	33.7020
 1.3410	33.5080
 1.3420	33.3110
 1.3430	33.1150
 1.3440	32.9290
 1.3450	32.7430
 1.3460	32.5580
 1.3470	32.3790
 1.3480	32.2010
 1.3490	32.0250
 1.3500	31.8530
 1.3510	31.6760
 1.3520	31.4990
 1.3530	31.3260
 1.3540	31.1500
 1.3550	30.9800
 1.3560	30.8060
 1.3570	30.6290
 1.3580	30.4550
 1.3590	30.2760
 1.3600	30.1010
 1.3610	29.9280
 1.3620	29.7460
 1.3630	29.5650
 1.3640	29.3770
 1.3650	29.1780
 1.3660	28.9750
 1.3670	28.7660
 1.3680	28.5500
 1.3690	28.3230
 1.3700	28.0830
 1.3710	27.8340
 1.3720	27.5690
 1.3730	27.2930
 1.3740	27.0070
 1.3750	26.6990
 1.3760	26.3760
 1.3770	26.0370
 1.3780	25.6760
 1.3790	25.3040
 1.3800	24.9150
 1.3810	24.5050
 1.3820	24.0850
 1.3830	23.6510
 1.3840	23.2060
 1.3850	22.7490
 1.3860	22.2860
 1.3870	21.8070
 1.3880	21.3340
 1.3890	20.8550
 1.3900	20.3750
 1.3910	19.9060
 1.3920	19.4380
 1.3930	18.9740
 1.3940	18.5210
 1.3950	18.0720
 1.3960	17.6320
 1.3970	17.2050
 1.3980	16.7940
 1.3990	16.4010
 1.4000	16.0220
 1.4010	15.6550
 1.4020	15.3030
 1.4030	14.9650
 1.4040	14.6460
 1.4050	14.3500
 1.4060	14.0720
 1.4070	13.8110
 1.4080	13.5690
 1.4090	13.3400
 1.4100	13.1280
 1.4110	12.9330
 1.4120	12.7530
 1.4130	12.5870
 1.4140	12.4370
 1.4150	12.3000
 1.4160	12.1770
 1.4170	12.0660
 1.4180	11.9650
 1.4190	11.8730
 1.4200	11.7930
 1.4210	11.7240
 1.4220	11.6610
 1.4230	11.6040
 1.4240	11.5530
 1.4250	11.5070
 1.4260	11.4650
 1.4270	11.4300
 1.4280	11.4040
 1.4290	11.3810
 1.4300	11.3640
 1.4310	11.3490
 1.4320	11.3400
 1.4330	11.3290
 1.4340	11.3180
 1.4350	11.3120
 1.4360	11.3090
 1.4370	11.3080
 1.4380	11.3130
 1.4390	11.3200
 1.4400	11.3240
 1.4410	11.3330
 1.4420	11.3470
 1.4430	11.3610
 1.4440	11.3790
 1.4450	11.3930
 1.4460	11.4060
 1.4470	11.4200
 1.4480	11.4370
 1.4490	11.4560
 1.4500	11.4710
 1.4510	11.4840
 1.4520	11.4990
 1.4530	11.5140
 1.4540	11.5360
 1.4550	11.5600
 1.4560	11.5810
 1.4570	11.6040
 1.4580	11.6280
 1.4590	11.6520
 1.4600	11.6810
 1.4610	11.7100
 1.4620	11.7400
 1.4630	11.7760
 1.4640	11.8120
 1.4650	11.8490
 1.4660	11.8910
 1.4670	11.9340
 1.4680	11.9760
 1.4690	12.0220
 1.4700	12.0750
 1.4710	12.1300
 1.4720	12.1890
 1.4730	12.2520
 1.4740	12.3150
 1.4750	12.3780
 1.4760	12.4410
 1.4770	12.5070
 1.4780	12.5710
 1.4790	12.6380
 1.4800	12.7120
 1.4810	12.7890
 1.4820	12.8660
 1.4830	12.9400
 1.4840	13.0160
 1.4850	13.0890
 1.4860	13.1650
 1.4870	13.2470
 1.4880	13.3260
 1.4890	13.4060
 1.4900	13.4900
 1.4910	13.5780
 1.4920	13.6610
 1.4930	13.7450
 1.4940	13.8290
 1.4950	13.9090
 1.4960	13.9910
 1.4970	14.0780
 1.4980	14.1560
 1.4990	14.2300
 1.5000	14.3090
 1.5010	14.3870
 1.5020	14.4660
 1.5030	14.5510
 1.5040	14.6320
 1.5050	14.7090
 1.5060	14.7890
 1.5070	14.8710
 1.5080	14.9520
 1.5090	15.0320
 1.5100	15.1150
 1.5110	15.1980
 1.5120	15.2800
 1.5130	15.3590
 1.5140	15.4370
 1.5150	15.5170
 1.5160	15.5940
 1.5170	15.6730
 1.5180	15.7530
 1.5190	15.8280
 1.5200	15.9040
 1.5210	15.9780
 1.5220	16.0540
 1.5230	16.1270
 1.5240	16.1990
 1.5250	16.2740
 1.5260	16.3460
 1.5270	16.4170
 1.5280	16.4880
 1.5290	16.5570
 1.5300	16.6260
 1.5310	16.6950
 1.5320	16.7640
 1.5330	16.8280
 1.5340	16.8910
 1.5350	16.9550
 1.5360	17.0190
 1.5370	17.0830
 1.5380	17.1480
 1.5390	17.2150
 1.5400	17.2800
 1.5410	17.3430
 1.5420	17.4020
 1.5430	17.4580
 1.5440	17.5140
 1.5450	17.5740
 1.5460	17.6350
 1.5470	17.6960
 1.5480	17.7570
 1.5490	17.8170
 1.5500	17.8740
 1.5510	17.9310
 1.5520	17.9870
 1.5530	18.0440
 1.5540	18.1000
 1.5550	18.1540
 1.5560	18.2110
 1.5570	18.2640
 1.5580	18.3170
 1.5590	18.3750
 1.5600	18.4250
 1.5610	18.4760
 1.5620	18.5290
 1.5630	18.5810
 1.5640	18.6350
 1.5650	18.6910
 1.5660	18.7460
 1.5670	18.7980
 1.5680	18.8500
 1.5690	18.9050
 1.5700	18.9610
 1.5710	19.0180
 1.5720	19.0690
 1.5730	19.1150
 1.5740	19.1600
 1.5750	19.2060
 1.5760	19.2550
 1.5770	19.3080
 1.5780	19.3570
 1.5790	19.4040
 1.5800	19.4530
 1.5810	19.4990
 1.5820	19.5500
 1.5830	19.6010
 1.5840	19.6540
 1.5850	19.7090
 1.5860	19.7570
 1.5870	19.8070
 1.5880	19.8540
 1.5890	19.8990
 1.5900	19.9510
 1.5910	20.0010
 1.5920	20.0500
 1.5930	20.0980
 1.5940	20.1440
 1.5950	20.1920
 1.5960	20.2400
 1.5970	20.2880
 1.5980	20.3360
 1.5990	20.3810
 1.6000	20.4240
 1.6010	20.4670
 1.6020	20.5120
 1.6030	20.5560
 1.6040	20.6000
 1.6050	20.6520
 1.6060	20.7020
 1.6070	20.7480
 1.6080	20.7950
 1.6090	20.8380
 1.6100	20.8790
 1.6110	20.9190
 1.6120	20.9610
 1.6130	21.0050
 1.6140	21.0460
 1.6150	21.0860
 1.6160	21.1190
 1.6170	21.1480
 1.6180	21.1800
 1.6190	21.2130
 1.6200	21.2490
 1.6210	21.2840
 1.6220	21.3110
 1.6230	21.3360
 1.6240	21.3650
 1.6250	21.3930
 1.6260	21.4190
 1.6270	21.4480
 1.6280	21.4710
 1.6290	21.4940
 1.6300	21.5190
 1.6310	21.5420
 1.6320	21.5650
 1.6330	21.5840
 1.6340	21.6020
 1.6350	21.6150
 1.6360	21.6220
 1.6370	21.6310
 1.6380	21.6400
 1.6390	21.6440
 1.6400	21.6500
 1.6410	21.6470
 1.6420	21.6360
 1.6430	21.6230
 1.6440	21.6050
 1.6450	21.5850
 1.6460	21.5680
 1.6470	21.5500
 1.6480	21.5270
 1.6490	21.5030
 1.6500	21.4740
 1.6510	21.4430
 1.6520	21.4100
 1.6530	21.3760
 1.6540	21.3440
 1.6550	21.3100
 1.6560	21.2760
 1.6570	21.2510
 1.6580	21.2240
 1.6590	21.2020
 1.6600	21.1880
 1.6610	21.1700
 1.6620	21.1590
 1.6630	21.1540
 1.6640	21.1480
 1.6650	21.1490
 1.6660	21.1550
 1.6670	21.1640
 1.6680	21.1770
 1.6690	21.1900
 1.6700	21.2030
 1.6710	21.2060
 1.6720	21.2100
 1.6730	21.2140
 1.6740	21.2130
 1.6750	21.2160
 1.6760	21.2160
 1.6770	21.2130
 1.6780	21.2020
 1.6790	21.1790
 1.6800	21.1550
 1.6810	21.1250
 1.6820	21.0890
 1.6830	21.0570
 1.6840	21.0140
 1.6850	20.9620
 1.6860	20.9110
 1.6870	20.8550
 1.6880	20.8000
 1.6890	20.7500
 1.6900	20.6930
 1.6910	20.6300
 1.6920	20.5710
 1.6930	20.5100
 1.6940	20.4500
 1.6950	20.3970
 1.6960	20.3350
 1.6970	20.2690
 1.6980	20.2030
 1.6990	20.1330
 1.7000	20.0680
 1.7010	20.0080
 1.7020	19.9400
 1.7030	19.8690
 1.7040	19.7960
 1.7050	19.7160
 1.7060	19.6420
 1.7070	19.5710
 1.7080	19.4980
 1.7090	19.4250
 1.7100	19.3590
 1.7110	19.2950
 1.7120	19.2360
 1.7130	19.1780
 1.7140	19.1140
 1.7150	19.0570
 1.7160	19.0060
 1.7170	18.9550
 1.7180	18.9060
 1.7190	18.8600
 1.7200	18.8140
 1.7210	18.7690
 1.7220	18.7290
 1.7230	18.6960
 1.7240	18.6700
 1.7250	18.6470
 1.7260	18.6280
 1.7270	18.6070
 1.7280	18.5890
 1.7290	18.5780
 1.7300	18.5700
 1.7310	18.5670
 1.7320	18.5670
 1.7330	18.5680
 1.7340	18.5790
 1.7350	18.5820
 1.7360	18.5890
 1.7370	18.5870
 1.7380	18.5770
 1.7390	18.5650
 1.7400	18.5470
 1.7410	18.5260
 1.7420	18.5080
 1.7430	18.4790
 1.7440	18.4430
 1.7450	18.4060
 1.7460	18.3600
 1.7470	18.3180
 1.7480	18.2750
 1.7490	18.2320
 1.7500	18.1880
 1.7510	18.1430
 1.7520	18.0960
 1.7530	18.0510
 1.7540	18.0060
 1.7550	17.9610
 1.7560	17.9150
 1.7570	17.8760
 1.7580	17.8350
 1.7590	17.7990
 1.7600	17.7690
 1.7610	17.7440
 1.7620	17.7170
 1.7630	17.6870
 1.7640	17.6650
 1.7650	17.6440
 1.7660	17.6260
 1.7670	17.6210
 1.7680	17.6110
 1.7690	17.6000
 1.7700	17.5880
 1.7710	17.5750
 1.7720	17.5650
 1.7730	17.5580
 1.7740	17.5490
 1.7750	17.5420
 1.7760	17.5320
 1.7770	17.5170
 1.7780	17.5050
 1.7790	17.4950
 1.7800	17.4840
 1.7810	17.4720
 1.7820	17.4620
 1.7830	17.4520
 1.7840	17.4430
 1.7850	17.4370
 1.7860	17.4290
 1.7870	17.4200
 1.7880	17.4140
 1.7890	17.4060
 1.7900	17.4030
 1.7910	17.4020
 1.7920	17.4030
 1.7930	17.4050
 1.7940	17.4120
 1.7950	17.4160
 1.7960	17.4200
 1.7970	17.4230
 1.7980	17.4250
 1.7990	17.4280
 1.8000	17.4330
 1.8010	17.4360
 1.8020	17.4360
 1.8030	17.4370
 1.8040	17.4340
 1.8050	17.4370
 1.8060	17.4440
 1.8070	17.4490
 1.8080	17.4560
 1.8090	17.4610
 1.8100	17.4650
 1.8110	17.4630
 1.8120	17.4660
 1.8130	17.4630
 1.8140	17.4570
 1.8150	17.4620
 1.8160	17.4690
 1.8170	17.4810
 1.8180	17.4950
 1.8190	17.4980
 1.8200	17.4990
 1.8210	17.4930
 1.8220	17.4910
 1.8230	17.4920
 1.8240	17.4900
 1.8250	17.4900
 1.8260	17.4870
 1.8270	17.5460
 1.8280	17.6060
 1.8290	17.6650
 1.8300	17.7240
 1.8310	17.7840
 1.8320	17.8430
 1.8330	17.9020
 1.8340	17.9620
 1.8350	17.9620
 1.8360	17.9270
 1.8370	17.9000
 1.8380	17.8740
 1.8390	17.8370
 1.8400	17.7990
 1.8410	17.7570
 1.8420	17.7070
 1.8430	17.6460
 1.8440	17.6040
 1.8450	17.5510
 1.8460	17.4870
 1.8470	17.4360
 1.8480	17.3730
 1.8490	17.3020
 1.8500	17.2190
 1.8510	17.1270
 1.8520	17.0230
 1.8530	16.9150
 1.8540	16.7930
 1.8550	16.6680
 1.8560	16.5470
 1.8570	16.4120
 1.8580	16.2650
 1.8590	16.1140
 1.8600	15.9600
 1.8610	15.7950
 1.8620	15.6090
 1.8630	15.4200
 1.8640	15.2290
 1.8650	15.0170
 1.8660	14.8050
 1.8670	14.5910
 1.8680	14.3530
 1.8690	14.1030
 1.8700	13.8480
 1.8710	13.5820
 1.8720	13.3060
 1.8730	13.0300
 1.8740	12.7630
 1.8750	12.5040
 1.8760	12.2340
 1.8770	11.9640
 1.8780	11.6960
 1.8790	11.4150
 1.8800	11.1430
 1.8810	10.8750
 1.8820	10.6120
 1.8830	10.3510
 1.8840	10.1030
 1.8850	 9.8590
 1.8860	 9.6340
 1.8870	 9.4250
 1.8880	 9.2030
 1.8890	 8.9940
 1.8900	 8.8080
 1.8910	 8.6230
 1.8920	 8.4380
 1.8930	 8.2720
 1.8940	 8.1240
 1.8950	 7.9730
 1.8960	 7.8400
 1.8970	 7.7280
 1.8980	 7.6240
 1.8990	 7.5230
 1.9000	 7.4270
 1.9010	 7.3310
 1.9020	 7.2540
 1.9030	 7.1870
 1.9040	 7.1290
 1.9050	 7.0840
 1.9060	 7.0360
 1.9070	 6.9850
 1.9080	 6.9470
 1.9090	 6.9180
 1.9100	 6.9010
 1.9110	 6.8770
 1.9120	 6.8490
 1.9130	 6.8270
 1.9140	 6.8070
 1.9150	 6.7860
 1.9160	 6.7700
 1.9170	 6.7680
 1.9180	 6.7530
 1.9190	 6.7430
 1.9200	 6.7450
 1.9210	 6.7510
 1.9220	 6.7570
 1.9230	 6.7760
 1.9240	 6.7820
 1.9250	 6.7830
 1.9260	 6.7840
 1.9270	 6.7820
 1.9280	 6.7830
 1.9290	 6.7950
 1.9300	 6.8040
 1.9310	 6.8080
 1.9320	 6.8220
 1.9330	 6.8340
 1.9340	 6.8450
 1.9350	 6.8520
 1.9360	 6.8560
 1.9370	 6.8650
 1.9380	 6.8660
 1.9390	 6.8800
 1.9400	 6.9000
 1.9410	 6.9240
 1.9420	 6.9500
 1.9430	 6.9660
 1.9440	 6.9800
 1.9450	 6.9850
 1.9460	 6.9990
 1.9470	 7.0090
 1.9480	 7.0290
 1.9490	 7.0550
 1.9500	 7.0920
 1.9510	 7.1200
 1.9520	 7.1490
 1.9530	 7.1750
 1.9540	 7.1900
 1.9550	 7.2110
 1.9560	 7.2320
 1.9570	 7.2530
 1.9580	 7.2780
 1.9590	 7.3010
 1.9600	 7.3150
 1.9610	 7.3390
 1.9620	 7.3660
 1.9630	 7.4010
 1.9640	 7.4370
 1.9650	 7.4740
 1.9660	 7.4990
 1.9670	 7.5150
 1.9680	 7.5360
 1.9690	 7.5500
 1.9700	 7.5730
 1.9710	 7.6040
 1.9720	 7.6350
 1.9730	 7.6700
 1.9740	 7.7040
 1.9750	 7.7310
 1.9760	 7.7630
 1.9770	 7.7810
 1.9780	 7.7990
 1.9790	 7.8290
 1.9800	 7.8650
 1.9810	 7.9030
 1.9820	 7.9600
 1.9830	 7.9950
 1.9840	 8.0220
 1.9850	 8.0470
 1.9860	 8.0500
 1.9870	 8.0720
 1.9880	 8.1080
 1.9890	 8.1380
 1.9900	 8.1840
 1.9910	 8.2260
 1.9920	 8.2640
 1.9930	 8.3010
 1.9940	 8.3340
 1.9950	 8.3630
 1.9960	 8.3960
 1.9970	 8.4270
 1.9980	 8.4600
 1.9990	 8.4960
 2.0000	 8.5250
 2.0010	 8.5590
 2.0020	 8.5840
 2.0030	 8.6140
 2.0040	 8.6460
 2.0050	 8.6720
 2.0060	 8.6920
 2.0070	 8.7180
 2.0080	 8.7420
 2.0090	 8.7700
 2.0100	 8.8040
 2.0110	 8.8360
 2.0120	 8.8710
 2.0130	 8.8980
 2.0140	 8.9280
 2.0150	 8.9630
 2.0160	 8.9890
 2.0170	 9.0190
 2.0180	 9.0470
 2.0190	 9.0700
 2.0200	 9.0980
 2.0210	 9.1320
 2.0220	 9.1620
 2.0230	 9.1920
 2.0240	 9.2190
 2.0250	 9.2420
 2.0260	 9.2640
 2.0270	 9.2820
 2.0280	 9.3050
 2.0290	 9.3170
 2.0300	 9.3330
 2.0310	 9.3500
 2.0320	 9.3640
 2.0330	 9.3830
 2.0340	 9.4100
 2.0350	 9.4320
 2.0360	 9.4600
 2.0370	 9.4760
 2.0380	 9.4800
 2.0390	 9.4910
 2.0400	 9.4930
 2.0410	 9.5010
 2.0420	 9.5180
 2.0430	 9.5370
 2.0440	 9.5460
 2.0450	 9.5490
 2.0460	 9.5600
 2.0470	 9.5660
 2.0480	 9.5780
 2.0490	 9.5970
 2.0500	 9.6140
 2.0510	 9.6350
 2.0520	 9.6480
 2.0530	 9.6650
 2.0540	 9.6720
 2.0550	 9.6720
 2.0560	 9.6580
 2.0570	 9.6620
 2.0580	 9.6650
 2.0590	 9.6740
 2.0600	 9.6950
 2.0610	 9.7070
 2.0620	 9.7150
 2.0630	 9.7270
 2.0640	 9.7380
 2.0650	 9.7530
 2.0660	 9.7760
 2.0670	 9.7880
 2.0680	 9.7970
 2.0690	 9.8050
 2.0700	 9.8050
 2.0710	 9.8080
 2.0720	 9.8150
 2.0730	 9.8200
 2.0740	 9.8290
 2.0750	 9.8370
 2.0760	 9.8500
 2.0770	 9.8740
 2.0780	 9.8820
 2.0790	 9.8830
 2.0800	 9.8850
 2.0810	 9.8740
 2.0820	 9.8760
 2.0830	 9.8860
 2.0840	 9.8960
 2.0850	 9.9130
 2.0860	 9.9290
 2.0870	 9.9480
 2.0880	 9.9650
 2.0890	 9.9780
 2.0900	 9.9890
 2.0910	10.0010
 2.0920	10.0100
 2.0930	10.0180
 2.0940	10.0270
 2.0950	10.0310
 2.0960	10.0260
 2.0970	10.0300
 2.0980	10.0300
 2.0990	10.0420
 2.1000	10.0740
 2.1010	10.0910
 2.1020	10.1090
 2.1030	10.1230
 2.1040	10.1300
 2.1050	10.1200
 2.1060	10.1260
 2.1070	10.1390
 2.1080	10.1430
 2.1090	10.1490
 2.1100	10.1510
 2.1110	10.1390
 2.1120	10.1450
 2.1130	10.1570
 2.1140	10.1700
 2.1150	10.1930
 2.1160	10.2110
 2.1170	10.2260
 2.1180	10.2410
 2.1190	10.2560
 2.1200	10.2690
 2.1210	10.2840
 2.1220	10.2920
 2.1230	10.2990
 2.1240	10.3040
 2.1250	10.3100
 2.1260	10.3150
 2.1270	10.3160
 2.1280	10.3150
 2.1290	10.3130
 2.1300	10.3000
 2.1310	10.3050
 2.1320	10.3260
 2.1330	10.3380
 2.1340	10.3560
 2.1350	10.3710
 2.1360	10.3750
 2.1370	10.3890
 2.1380	10.4230
 2.1390	10.4360
 2.1400	10.4290
 2.1410	10.4350
 2.1420	10.4460
 2.1430	10.4430
 2.1440	10.4620
 2.1450	10.5110
 2.1460	10.5290
 2.1470	10.5380
 2.1480	10.5480
 2.1490	10.5410
 2.1500	10.5540
 2.1510	10.5830
 2.1520	10.6000
 2.1530	10.6210
 2.1540	10.6400
 2.1550	10.6480
 2.1560	10.6670
 2.1570	10.7050
 2.1580	10.7290
 2.1590	10.7570
 2.1600	10.7680
 2.1610	10.7690
 2.1620	10.7750
 2.1630	10.7850
 2.1640	10.7960
 2.1650	10.8080
 2.1660	10.8270
 2.1670	10.8380
 2.1680	10.8420
 2.1690	10.8580
 2.1700	10.8760
 2.1710	10.8990
 2.1720	10.9390
 2.1730	10.9630
 2.1740	10.9890
 2.1750	11.0000
 2.1760	10.9860
 2.1770	10.9900
 2.1780	10.9930
 2.1790	10.9960
 2.1800	11.0070
 2.1810	11.0170
 2.1820	11.0250
 2.1830	11.0240
 2.1840	11.0360
 2.1850	11.0570
 2.1860	11.0740
 2.1870	11.0950
 2.1880	11.1090
 2.1890	11.1140
 2.1900	11.1310
 2.1910	11.1470
 2.1920	11.1670
 2.1930	11.1980
 2.1940	11.2190
 2.1950	11.2360
 2.1960	11.2520
 2.1970	11.2680
 2.1980	11.2780
 2.1990	11.2780
 2.2000	11.2880
 2.2010	11.3040
 2.2020	11.3120
 2.2030	11.3220
 2.2040	11.3310
 2.2050	11.3240
 2.2060	11.3350
 2.2070	11.3430
 2.2080	11.3620
 2.2090	11.3620
 2.2100	11.3480
 2.2110	11.3550
 2.2120	11.3630
 2.2130	11.3730
 2.2140	11.4070
 2.2150	11.4180
 2.2160	11.4150
 2.2170	11.4140
 2.2180	11.3990
 2.2190	11.4020
 2.2200	11.4160
 2.2210	11.4190
 2.2220	11.4360
 2.2230	11.4340
 2.2240	11.4090
 2.2250	11.3930
 2.2260	11.3760
 2.2270	11.3540
 2.2280	11.3240
 2.2290	11.3030
 2.2300	11.2800
 2.2310	11.2580
 2.2320	11.2420
 2.2330	11.2460
 2.2340	11.2320
 2.2350	11.2140
 2.2360	11.1920
 2.2370	11.1580
 2.2380	11.1350
 2.2390	11.1180
 2.2400	11.0910
 2.2410	11.0660
 2.2420	11.0310
 2.2430	10.9810
 2.2440	10.9380
 2.2450	10.8890
 2.2460	10.8500
 2.2470	10.8210
 2.2480	10.7810
 2.2490	10.7380
 2.2500	10.7000
 2.2510	10.6610
 2.2520	10.6120
 2.2530	10.5710
 2.2540	10.5150
 2.2550	10.4270
 2.2560	10.3640
 2.2570	10.3000
 2.2580	10.2510
 2.2590	10.2360
 2.2600	10.1990
 2.2610	10.1460
 2.2620	10.1200
 2.2630	10.0910
 2.2640	10.0420
 2.2650	10.0130
 2.2660	 9.9850
 2.2670	 9.9410
 2.2680	 9.8790
 2.2690	 9.8430
 2.2700	 9.8060
 2.2710	 9.7840
 2.2720	 9.7880
 2.2730	 9.7640
 2.2740	 9.7340
 2.2750	 9.7010
 2.2760	 9.6480
 2.2770	 9.6170
 2.2780	 9.5980
 2.2790	 9.5700
 2.2800	 9.5400
 2.2810	 9.5170
 2.2820	 9.4950
 2.2830	 9.4670
 2.2840	 9.4430
 2.2850	 9.4220
 2.2860	 9.3930
 2.2870	 9.3650
 2.2880	 9.3450
 2.2890	 9.3130
 2.2900	 9.2640
 2.2910	 9.2250
 2.2920	 9.1900
 2.2930	 9.1530
 2.2940	 9.1210
 2.2950	 9.0810
 2.2960	 9.0260
 2.2970	 8.9800
 2.2980	 8.9280
 2.2990	 8.9000
 2.3000	 8.8480
 2.3010	 8.8160
 2.3020	 8.8060
 2.3030	 8.7660
 2.3040	 8.7580
 2.3050	 8.7570
 2.3060	 8.7240
 2.3070	 8.6890
 2.3080	 8.6660
 2.3090	 8.6660
 2.3100	 8.6810
 2.3110	 8.7000
 2.3120	 8.7060
 2.3130	 8.7060
 2.3140	 8.7050
 2.3150	 8.6880
 2.3160	 8.6980
 2.3170	 8.7220
 2.3180	 8.7290
 2.3190	 8.7440
 2.3200	 8.7600
 2.3210	 8.7680
 2.3220	 8.7760
 2.3230	 8.7970
 2.3240	 8.8020
 2.3250	 8.7940
 2.3260	 8.7810
 2.3270	 8.7570
 2.3280	 8.7410
 2.3290	 8.7200
 2.3300	 8.7080
 2.3310	 8.7210
 2.3320	 8.7090
 2.3330	 8.6690
 2.3340	 8.6570
 2.3350	 8.6600
 2.3360	 8.6420
 2.3370	 8.6350
 2.3380	 8.6130
 2.3390	 8.5470
 2.3400	 8.5180
 2.3410	 8.5140
 2.3420	 8.4970
 2.3430	 8.4950
 2.3440	 8.4760
 2.3450	 8.4350
 2.3460	 8.4120
 2.3470	 8.3820
 2.3480	 8.3700
 2.3490	 8.3810
 2.3500	 8.3870
 2.3510	 8.4010
 2.3520	 8.4160
 2.3530	 8.4410
 2.3540	 8.4440
 2.3550	 8.4520
 2.3560	 8.4710
 2.3570	 8.4740
 2.3580	 8.4650
 2.3590	 8.4620
 2.3600	 8.4800
 2.3610	 8.5100
 2.3620	 8.5370
 2.3630	 8.5400
 2.3640	 8.5130
 2.3650	 8.4810
 2.3660	 8.4360
 2.3670	 8.4160
 2.3680	 8.4140
 2.3690	 8.3880
 2.3700	 8.3970
 2.3710	 8.4150
 2.3720	 8.4090
 2.3730	 8.4090
 2.3740	 8.3810
 2.3750	 8.3140
 2.3760	 8.2550
 2.3770	 8.2070
 2.3780	 8.1920
 2.3790	 8.2140
 2.3800	 8.2090
 2.3810	 8.1980
 2.3820	 8.1810
 2.3830	 8.1420
 2.3840	 8.1360
 2.3850	 8.1290
 2.3860	 8.1280
 2.3870	 8.1560
 2.3880	 8.1680
 2.3890	 8.1770
 2.3900	 8.1650
 2.3910	 8.1320
 2.3920	 8.1110
 2.3930	 8.0820
 2.3940	 8.0460
 2.3950	 8.0000
 2.3960	 7.9810
 2.3970	 7.9890
 2.3980	 7.9810
 2.3990	 7.9730
 2.4000	 7.9490
 2.4010	 7.9460
 2.4020	 7.9440
 2.4030	 7.9050
 2.4040	 7.8560
 2.4050	 7.8140
 2.4060	 7.7920
 2.4070	 7.8250
 2.4080	 7.9180
 2.4090	 7.9590
 2.4100	 7.9870
 2.4110	 8.0270
 2.4120	 7.9930
 2.4130	 7.9650
 2.4140	 7.9180
 2.4150	 7.8250
 2.4160	 7.7980
 2.4170	 7.7290
 2.4180	 7.6510
 2.4190	 7.6700
 2.4200	 7.6480
 2.4210	 7.6950
 2.4220	 7.7820
 2.4230	 7.7560
 2.4240	 7.7480
 2.4250	 7.7290
 2.4260	 7.6900
 2.4270	 7.7060
 2.4280	 7.7660
 2.4290	 7.7850
 2.4300	 7.7630
 2.4310	 7.7890
 2.4320	 7.7360
 2.4330	 7.6020
 2.4340	 7.5040
 2.4350	 7.4130
 2.4360	 7.3030
 2.4370	 7.2770
 2.4380	 7.3140
 2.4390	 7.2420
 2.4400	 7.2200
 2.4410	 7.2770
 2.4420	 7.2670
 2.4430	 7.3120
 2.4440	 7.3660
 2.4450	 7.3450
 2.4460	 7.3490
 2.4470	 7.3560
 2.4480	 7.3500
 2.4490	 7.3480
 2.4500	 7.3280
 2.4510	 7.3060
 2.4520	 7.2900
 2.4530	 7.3170
 2.4540	 7.3260
 2.4550	 7.2730
 2.4560	 7.2970
 2.4570	 7.2470
 2.4580	 7.2230
 2.4590	 7.3330
 2.4600	 7.2640
 2.4610	 7.1990
 2.4620	 7.1670
 2.4630	 7.0420
 2.4640	 7.0750
 2.4650	 7.1740
 2.4660	 7.1880
 2.4670	 7.2330
 2.4680	 7.1960
 2.4690	 7.0440
 2.4700	 6.9350
 2.4710	 6.7960
 2.4720	 6.7450
 2.4730	 6.7560
 2.4740	 6.7420
 2.4750	 6.7450
 2.4760	 6.7370
 2.4770	 6.6980
 2.4780	 6.7330
 2.4790	 6.8400
 2.4800	 6.8630
 2.4810	 6.8790
 2.4820	 6.8010
 2.4830	 6.7870
 2.4840	 6.8080
 2.4850	 6.8490
 2.4860	 6.7620
 2.4870	 6.6780
 2.4880	 6.6680
 2.4890	 6.6330
 2.4900	 6.6350
 2.4910	 6.8260
 2.4920	 7.0470
 2.4930	 7.0250
 2.4940	 7.1020
 2.4950	 7.1760
 2.4960	 7.0220
 2.4970	 6.9870
 2.4980	 6.9940
 2.4990	 6.9870
 2.5000	 6.9240
