Name: Heteromeles arbutifolia 3
Type: vegetation
Class: Shrub
Genus: Heteromeles
Species: arbutifolia
Sample No.: VH018
Owner: UCSB
Wavelength Range: VSWIR
Origin: 34.4908; -119.7912; WGS84
Collection Date: 4/1/2013
Description: Samples were collected as part of the HyspIRI Airborne Campaign. 48 individual plants were sampled in three times in 2013 - spring  summer  and fall. The name of the sample includes a 1  2  or 3 which references a different individual of the species. Samples were taken to JPL and processed within 48 hours of collection. The same leaves were processed in the Nicolet and then measured using the ASD.
Measurement: Bidirectional reflectance
First Column: X
Second Column: Y
X Units: Wavelength (micrometers)
Y Units: Reflectance (percentage)
First X Value: 0.35
Last X Value: 2.5
Number of X Values: 2151
Additional Information: vegetation.shrub.heteromeles.arbutifolia.vswir.vh018.ucsb.asd.ancillary.txt

 0.3500	 6.8220
 0.3510	 7.4140
 0.3520	 7.4990
 0.3530	 7.2430
 0.3540	 7.0350
 0.3550	 7.0320
 0.3560	 7.0480
 0.3570	 7.0470
 0.3580	 7.0690
 0.3590	 7.0920
 0.3600	 7.0750
 0.3610	 7.0400
 0.3620	 7.0990
 0.3630	 7.0500
 0.3640	 7.0050
 0.3650	 7.0760
 0.3660	 7.0470
 0.3670	 7.0660
 0.3680	 7.0990
 0.3690	 7.0040
 0.3700	 6.9750
 0.3710	 7.0530
 0.3720	 7.1580
 0.3730	 7.0310
 0.3740	 6.9940
 0.3750	 7.0470
 0.3760	 7.0790
 0.3770	 6.9940
 0.3780	 6.9430
 0.3790	 6.9440
 0.3800	 6.9010
 0.3810	 6.8780
 0.3820	 6.8680
 0.3830	 6.8710
 0.3840	 6.9230
 0.3850	 6.9420
 0.3860	 6.9210
 0.3870	 6.8900
 0.3880	 6.9120
 0.3890	 6.9480
 0.3900	 6.9550
 0.3910	 6.8950
 0.3920	 6.9320
 0.3930	 6.9530
 0.3940	 6.8890
 0.3950	 6.9220
 0.3960	 6.9820
 0.3970	 7.0120
 0.3980	 6.9790
 0.3990	 6.9080
 0.4000	 6.8930
 0.4010	 6.9410
 0.4020	 6.9470
 0.4030	 6.9150
 0.4040	 6.9150
 0.4050	 6.9830
 0.4060	 6.9870
 0.4070	 6.9830
 0.4080	 6.9780
 0.4090	 6.9560
 0.4100	 6.9790
 0.4110	 6.9980
 0.4120	 6.9890
 0.4130	 6.9970
 0.4140	 7.0370
 0.4150	 7.0640
 0.4160	 7.0440
 0.4170	 7.0870
 0.4180	 7.1240
 0.4190	 7.1290
 0.4200	 7.1220
 0.4210	 7.1450
 0.4220	 7.1760
 0.4230	 7.1910
 0.4240	 7.2100
 0.4250	 7.2260
 0.4260	 7.2380
 0.4270	 7.2490
 0.4280	 7.2510
 0.4290	 7.2580
 0.4300	 7.2750
 0.4310	 7.2920
 0.4320	 7.2970
 0.4330	 7.2990
 0.4340	 7.3090
 0.4350	 7.3130
 0.4360	 7.3110
 0.4370	 7.3120
 0.4380	 7.3310
 0.4390	 7.3430
 0.4400	 7.3480
 0.4410	 7.3490
 0.4420	 7.3450
 0.4430	 7.3500
 0.4440	 7.3590
 0.4450	 7.3620
 0.4460	 7.3710
 0.4470	 7.3770
 0.4480	 7.3780
 0.4490	 7.3820
 0.4500	 7.3830
 0.4510	 7.3850
 0.4520	 7.3930
 0.4530	 7.4050
 0.4540	 7.4100
 0.4550	 7.4120
 0.4560	 7.4250
 0.4570	 7.4240
 0.4580	 7.4240
 0.4590	 7.4290
 0.4600	 7.4200
 0.4610	 7.4200
 0.4620	 7.4220
 0.4630	 7.4140
 0.4640	 7.4060
 0.4650	 7.4110
 0.4660	 7.4200
 0.4670	 7.4130
 0.4680	 7.4170
 0.4690	 7.4140
 0.4700	 7.3950
 0.4710	 7.4070
 0.4720	 7.4140
 0.4730	 7.4060
 0.4740	 7.3970
 0.4750	 7.3980
 0.4760	 7.3990
 0.4770	 7.3960
 0.4780	 7.3940
 0.4790	 7.4050
 0.4800	 7.4160
 0.4810	 7.4100
 0.4820	 7.4040
 0.4830	 7.4050
 0.4840	 7.4070
 0.4850	 7.4030
 0.4860	 7.4090
 0.4870	 7.4190
 0.4880	 7.4280
 0.4890	 7.4380
 0.4900	 7.4430
 0.4910	 7.4480
 0.4920	 7.4620
 0.4930	 7.4730
 0.4940	 7.4890
 0.4950	 7.5120
 0.4960	 7.5300
 0.4970	 7.5480
 0.4980	 7.5710
 0.4990	 7.6010
 0.5000	 7.6380
 0.5010	 7.6750
 0.5020	 7.7110
 0.5030	 7.7530
 0.5040	 7.8070
 0.5050	 7.8740
 0.5060	 7.9500
 0.5070	 8.0180
 0.5080	 8.0960
 0.5090	 8.1890
 0.5100	 8.2970
 0.5110	 8.4220
 0.5120	 8.5550
 0.5130	 8.6970
 0.5140	 8.8540
 0.5150	 9.0330
 0.5160	 9.2280
 0.5170	 9.4330
 0.5180	 9.6570
 0.5190	 9.8910
 0.5200	10.1370
 0.5210	10.4000
 0.5220	10.6660
 0.5230	10.9270
 0.5240	11.1810
 0.5250	11.4460
 0.5260	11.7070
 0.5270	11.9580
 0.5280	12.2010
 0.5290	12.4360
 0.5300	12.6560
 0.5310	12.8590
 0.5320	13.0480
 0.5330	13.2260
 0.5340	13.3930
 0.5350	13.5480
 0.5360	13.6890
 0.5370	13.8170
 0.5380	13.9340
 0.5390	14.0410
 0.5400	14.1480
 0.5410	14.2510
 0.5420	14.3460
 0.5430	14.4320
 0.5440	14.5200
 0.5450	14.6060
 0.5460	14.6820
 0.5470	14.7470
 0.5480	14.8090
 0.5490	14.8700
 0.5500	14.9220
 0.5510	14.9580
 0.5520	14.9790
 0.5530	14.9870
 0.5540	14.9800
 0.5550	14.9560
 0.5560	14.9130
 0.5570	14.8560
 0.5580	14.7800
 0.5590	14.6880
 0.5600	14.5800
 0.5610	14.4540
 0.5620	14.3170
 0.5630	14.1720
 0.5640	14.0180
 0.5650	13.8510
 0.5660	13.6750
 0.5670	13.4930
 0.5680	13.3090
 0.5690	13.1140
 0.5700	12.9200
 0.5710	12.7360
 0.5720	12.5500
 0.5730	12.3730
 0.5740	12.2100
 0.5750	12.0580
 0.5760	11.9240
 0.5770	11.8030
 0.5780	11.6860
 0.5790	11.5750
 0.5800	11.4660
 0.5810	11.3610
 0.5820	11.2620
 0.5830	11.1750
 0.5840	11.0920
 0.5850	11.0120
 0.5860	10.9360
 0.5870	10.8630
 0.5880	10.7930
 0.5890	10.7290
 0.5900	10.6800
 0.5910	10.6400
 0.5920	10.6040
 0.5930	10.5720
 0.5940	10.5340
 0.5950	10.4960
 0.5960	10.4620
 0.5970	10.4290
 0.5980	10.3980
 0.5990	10.3670
 0.6000	10.3340
 0.6010	10.2920
 0.6020	10.2470
 0.6030	10.2010
 0.6040	10.1430
 0.6050	10.0840
 0.6060	10.0190
 0.6070	 9.9460
 0.6080	 9.8680
 0.6090	 9.7900
 0.6100	 9.7100
 0.6110	 9.6220
 0.6120	 9.5410
 0.6130	 9.4610
 0.6140	 9.3800
 0.6150	 9.3040
 0.6160	 9.2320
 0.6170	 9.1640
 0.6180	 9.1010
 0.6190	 9.0450
 0.6200	 8.9960
 0.6210	 8.9540
 0.6220	 8.9180
 0.6230	 8.8830
 0.6240	 8.8500
 0.6250	 8.8220
 0.6260	 8.8060
 0.6270	 8.7920
 0.6280	 8.7790
 0.6290	 8.7660
 0.6300	 8.7560
 0.6310	 8.7450
 0.6320	 8.7330
 0.6330	 8.7170
 0.6340	 8.6980
 0.6350	 8.6720
 0.6360	 8.6370
 0.6370	 8.5910
 0.6380	 8.5390
 0.6390	 8.4830
 0.6400	 8.4210
 0.6410	 8.3570
 0.6420	 8.2930
 0.6430	 8.2260
 0.6440	 8.1540
 0.6450	 8.0840
 0.6460	 8.0190
 0.6470	 7.9610
 0.6480	 7.9000
 0.6490	 7.8490
 0.6500	 7.8090
 0.6510	 7.7750
 0.6520	 7.7420
 0.6530	 7.7070
 0.6540	 7.6730
 0.6550	 7.6430
 0.6560	 7.6100
 0.6570	 7.5720
 0.6580	 7.5330
 0.6590	 7.4870
 0.6600	 7.4430
 0.6610	 7.4040
 0.6620	 7.3660
 0.6630	 7.3290
 0.6640	 7.2950
 0.6650	 7.2650
 0.6660	 7.2390
 0.6670	 7.2200
 0.6680	 7.2060
 0.6690	 7.1950
 0.6700	 7.1860
 0.6710	 7.1790
 0.6720	 7.1770
 0.6730	 7.1790
 0.6740	 7.1850
 0.6750	 7.1930
 0.6760	 7.2050
 0.6770	 7.2190
 0.6780	 7.2340
 0.6790	 7.2500
 0.6800	 7.2700
 0.6810	 7.2980
 0.6820	 7.3310
 0.6830	 7.3690
 0.6840	 7.4170
 0.6850	 7.4780
 0.6860	 7.5550
 0.6870	 7.6520
 0.6880	 7.7720
 0.6890	 7.9260
 0.6900	 8.1240
 0.6910	 8.3780
 0.6920	 8.6930
 0.6930	 9.0790
 0.6940	 9.5420
 0.6950	10.0860
 0.6960	10.7150
 0.6970	11.4270
 0.6980	12.2170
 0.6990	13.0760
 0.7000	14.0000
 0.7010	14.9810
 0.7020	16.0000
 0.7030	17.0520
 0.7040	18.1280
 0.7050	19.2190
 0.7060	20.3070
 0.7070	21.4040
 0.7080	22.5070
 0.7090	23.6070
 0.7100	24.7060
 0.7110	25.8020
 0.7120	26.8910
 0.7130	27.9700
 0.7140	29.0420
 0.7150	30.1050
 0.7160	31.1540
 0.7170	32.1840
 0.7180	33.1990
 0.7190	34.1950
 0.7200	35.1660
 0.7210	36.1260
 0.7220	37.0580
 0.7230	37.9560
 0.7240	38.8250
 0.7250	39.6670
 0.7260	40.4750
 0.7270	41.2450
 0.7280	41.9780
 0.7290	42.6800
 0.7300	43.3460
 0.7310	43.9720
 0.7320	44.5680
 0.7330	45.1320
 0.7340	45.6610
 0.7350	46.1590
 0.7360	46.6270
 0.7370	47.0670
 0.7380	47.4790
 0.7390	47.8560
 0.7400	48.2190
 0.7410	48.5600
 0.7420	48.8600
 0.7430	49.1490
 0.7440	49.4150
 0.7450	49.6570
 0.7460	49.8860
 0.7470	50.0930
 0.7480	50.2850
 0.7490	50.4660
 0.7500	50.6280
 0.7510	50.7750
 0.7520	50.9090
 0.7530	51.0350
 0.7540	51.1500
 0.7550	51.2530
 0.7560	51.3480
 0.7570	51.4350
 0.7580	51.5110
 0.7590	51.5800
 0.7600	51.6460
 0.7610	51.7060
 0.7620	51.7610
 0.7630	51.8140
 0.7640	51.8660
 0.7650	51.9100
 0.7660	51.9480
 0.7670	51.9820
 0.7680	52.0160
 0.7690	52.0440
 0.7700	52.0740
 0.7710	52.1060
 0.7720	52.1240
 0.7730	52.1450
 0.7740	52.1680
 0.7750	52.1900
 0.7760	52.2140
 0.7770	52.2350
 0.7780	52.2550
 0.7790	52.2750
 0.7800	52.2870
 0.7810	52.3020
 0.7820	52.3240
 0.7830	52.3430
 0.7840	52.3540
 0.7850	52.3620
 0.7860	52.3720
 0.7870	52.3820
 0.7880	52.3860
 0.7890	52.3930
 0.7900	52.4110
 0.7910	52.4200
 0.7920	52.4300
 0.7930	52.4400
 0.7940	52.4410
 0.7950	52.4490
 0.7960	52.4550
 0.7970	52.4570
 0.7980	52.4550
 0.7990	52.4570
 0.8000	52.4580
 0.8010	52.4540
 0.8020	52.4610
 0.8030	52.4640
 0.8040	52.4600
 0.8050	52.4530
 0.8060	52.4400
 0.8070	52.4320
 0.8080	52.4290
 0.8090	52.4260
 0.8100	52.4230
 0.8110	52.4160
 0.8120	52.4030
 0.8130	52.3940
 0.8140	52.3870
 0.8150	52.3760
 0.8160	52.3560
 0.8170	52.3430
 0.8180	52.3320
 0.8190	52.3230
 0.8200	52.3150
 0.8210	52.2970
 0.8220	52.2870
 0.8230	52.2840
 0.8240	52.2670
 0.8250	52.2580
 0.8260	52.2460
 0.8270	52.2250
 0.8280	52.2050
 0.8290	52.1960
 0.8300	52.1850
 0.8310	52.1610
 0.8320	52.1440
 0.8330	52.1410
 0.8340	52.1360
 0.8350	52.1160
 0.8360	52.1080
 0.8370	52.1060
 0.8380	52.1000
 0.8390	52.0840
 0.8400	52.0720
 0.8410	52.0630
 0.8420	52.0560
 0.8430	52.0520
 0.8440	52.0520
 0.8450	52.0520
 0.8460	52.0490
 0.8470	52.0400
 0.8480	52.0380
 0.8490	52.0410
 0.8500	52.0430
 0.8510	52.0370
 0.8520	52.0360
 0.8530	52.0390
 0.8540	52.0350
 0.8550	52.0300
 0.8560	52.0320
 0.8570	52.0350
 0.8580	52.0320
 0.8590	52.0310
 0.8600	52.0310
 0.8610	52.0320
 0.8620	52.0420
 0.8630	52.0460
 0.8640	52.0450
 0.8650	52.0450
 0.8660	52.0500
 0.8670	52.0580
 0.8680	52.0660
 0.8690	52.0710
 0.8700	52.0790
 0.8710	52.0790
 0.8720	52.0750
 0.8730	52.0790
 0.8740	52.0880
 0.8750	52.0950
 0.8760	52.1020
 0.8770	52.1130
 0.8780	52.1240
 0.8790	52.1300
 0.8800	52.1300
 0.8810	52.1360
 0.8820	52.1490
 0.8830	52.1610
 0.8840	52.1680
 0.8850	52.1710
 0.8860	52.1790
 0.8870	52.1930
 0.8880	52.2070
 0.8890	52.2090
 0.8900	52.2070
 0.8910	52.2090
 0.8920	52.2220
 0.8930	52.2290
 0.8940	52.2380
 0.8950	52.2480
 0.8960	52.2560
 0.8970	52.2650
 0.8980	52.2720
 0.8990	52.2750
 0.9000	52.2780
 0.9010	52.2860
 0.9020	52.2970
 0.9030	52.3070
 0.9040	52.3070
 0.9050	52.3090
 0.9060	52.3140
 0.9070	52.3180
 0.9080	52.3230
 0.9090	52.3340
 0.9100	52.3420
 0.9110	52.3440
 0.9120	52.3540
 0.9130	52.3560
 0.9140	52.3560
 0.9150	52.3620
 0.9160	52.3670
 0.9170	52.3740
 0.9180	52.3780
 0.9190	52.3720
 0.9200	52.3740
 0.9210	52.3780
 0.9220	52.3810
 0.9230	52.3740
 0.9240	52.3590
 0.9250	52.3430
 0.9260	52.3310
 0.9270	52.3250
 0.9280	52.3210
 0.9290	52.3120
 0.9300	52.2990
 0.9310	52.2890
 0.9320	52.2720
 0.9330	52.2550
 0.9340	52.2350
 0.9350	52.2060
 0.9360	52.1840
 0.9370	52.1600
 0.9380	52.1340
 0.9390	52.1120
 0.9400	52.1030
 0.9410	52.0820
 0.9420	52.0390
 0.9430	52.0060
 0.9440	51.9660
 0.9450	51.9250
 0.9460	51.8880
 0.9470	51.8400
 0.9480	51.7800
 0.9490	51.7210
 0.9500	51.6710
 0.9510	51.6260
 0.9520	51.5640
 0.9530	51.4910
 0.9540	51.4190
 0.9550	51.3560
 0.9560	51.2840
 0.9570	51.2160
 0.9580	51.1660
 0.9590	51.1140
 0.9600	51.0620
 0.9610	51.0100
 0.9620	50.9550
 0.9630	50.9040
 0.9640	50.8820
 0.9650	50.8670
 0.9660	50.8290
 0.9670	50.7960
 0.9680	50.7710
 0.9690	50.7540
 0.9700	50.7390
 0.9710	50.7240
 0.9720	50.7090
 0.9730	50.6950
 0.9740	50.6810
 0.9750	50.6600
 0.9760	50.6480
 0.9770	50.6490
 0.9780	50.6540
 0.9790	50.6240
 0.9800	50.6210
 0.9810	50.6330
 0.9820	50.6230
 0.9830	50.6470
 0.9840	50.6620
 0.9850	50.6590
 0.9860	50.6530
 0.9870	50.6570
 0.9880	50.6670
 0.9890	50.6880
 0.9900	50.7170
 0.9910	50.7150
 0.9920	50.7730
 0.9930	50.8310
 0.9940	50.8890
 0.9950	50.9460
 0.9960	51.0040
 0.9970	51.0620
 0.9980	51.1200
 0.9990	51.1770
 1.0000	51.2350
 1.0010	51.2930
 1.0020	51.3510
 1.0030	51.4080
 1.0040	51.4660
 1.0050	51.5240
 1.0060	51.5820
 1.0070	51.6390
 1.0080	51.6970
 1.0090	51.7550
 1.0100	51.7550
 1.0110	51.7710
 1.0120	51.7910
 1.0130	51.8090
 1.0140	51.8290
 1.0150	51.8510
 1.0160	51.8780
 1.0170	51.8980
 1.0180	51.9150
 1.0190	51.9350
 1.0200	51.9520
 1.0210	51.9680
 1.0220	51.9860
 1.0230	52.0060
 1.0240	52.0270
 1.0250	52.0460
 1.0260	52.0690
 1.0270	52.0870
 1.0280	52.1000
 1.0290	52.1150
 1.0300	52.1290
 1.0310	52.1470
 1.0320	52.1720
 1.0330	52.1910
 1.0340	52.2090
 1.0350	52.2240
 1.0360	52.2350
 1.0370	52.2440
 1.0380	52.2580
 1.0390	52.2750
 1.0400	52.2920
 1.0410	52.3120
 1.0420	52.3270
 1.0430	52.3410
 1.0440	52.3550
 1.0450	52.3650
 1.0460	52.3760
 1.0470	52.3860
 1.0480	52.3960
 1.0490	52.4050
 1.0500	52.4130
 1.0510	52.4190
 1.0520	52.4290
 1.0530	52.4360
 1.0540	52.4430
 1.0550	52.4510
 1.0560	52.4580
 1.0570	52.4660
 1.0580	52.4730
 1.0590	52.4800
 1.0600	52.4890
 1.0610	52.4950
 1.0620	52.5020
 1.0630	52.5050
 1.0640	52.5020
 1.0650	52.5030
 1.0660	52.4990
 1.0670	52.4990
 1.0680	52.5010
 1.0690	52.5080
 1.0700	52.5090
 1.0710	52.5100
 1.0720	52.5110
 1.0730	52.5090
 1.0740	52.5090
 1.0750	52.5130
 1.0760	52.5110
 1.0770	52.5070
 1.0780	52.5050
 1.0790	52.5010
 1.0800	52.4980
 1.0810	52.4970
 1.0820	52.4940
 1.0830	52.4880
 1.0840	52.4830
 1.0850	52.4780
 1.0860	52.4740
 1.0870	52.4710
 1.0880	52.4710
 1.0890	52.4650
 1.0900	52.4550
 1.0910	52.4480
 1.0920	52.4390
 1.0930	52.4310
 1.0940	52.4260
 1.0950	52.4170
 1.0960	52.4050
 1.0970	52.3940
 1.0980	52.3820
 1.0990	52.3720
 1.1000	52.3630
 1.1010	52.3540
 1.1020	52.3440
 1.1030	52.3360
 1.1040	52.3240
 1.1050	52.3120
 1.1060	52.2980
 1.1070	52.2820
 1.1080	52.2670
 1.1090	52.2520
 1.1100	52.2370
 1.1110	52.2240
 1.1120	52.2090
 1.1130	52.1940
 1.1140	52.1780
 1.1150	52.1610
 1.1160	52.1400
 1.1170	52.1190
 1.1180	52.0950
 1.1190	52.0680
 1.1200	52.0370
 1.1210	52.0050
 1.1220	51.9700
 1.1230	51.9290
 1.1240	51.8850
 1.1250	51.8350
 1.1260	51.7790
 1.1270	51.7180
 1.1280	51.6550
 1.1290	51.5840
 1.1300	51.5100
 1.1310	51.4260
 1.1320	51.3350
 1.1330	51.2360
 1.1340	51.1270
 1.1350	51.0150
 1.1360	50.8970
 1.1370	50.7730
 1.1380	50.6440
 1.1390	50.5100
 1.1400	50.3660
 1.1410	50.2200
 1.1420	50.0720
 1.1430	49.9240
 1.1440	49.7780
 1.1450	49.6310
 1.1460	49.4880
 1.1470	49.3450
 1.1480	49.2090
 1.1490	49.0740
 1.1500	48.9490
 1.1510	48.8300
 1.1520	48.7190
 1.1530	48.6160
 1.1540	48.5210
 1.1550	48.4310
 1.1560	48.3500
 1.1570	48.2760
 1.1580	48.2110
 1.1590	48.1540
 1.1600	48.1020
 1.1610	48.0580
 1.1620	48.0210
 1.1630	47.9850
 1.1640	47.9540
 1.1650	47.9250
 1.1660	47.8990
 1.1670	47.8760
 1.1680	47.8580
 1.1690	47.8380
 1.1700	47.8200
 1.1710	47.8020
 1.1720	47.7830
 1.1730	47.7660
 1.1740	47.7520
 1.1750	47.7360
 1.1760	47.7180
 1.1770	47.7010
 1.1780	47.6800
 1.1790	47.6580
 1.1800	47.6380
 1.1810	47.6160
 1.1820	47.5970
 1.1830	47.5790
 1.1840	47.5610
 1.1850	47.5420
 1.1860	47.5220
 1.1870	47.5040
 1.1880	47.4880
 1.1890	47.4740
 1.1900	47.4610
 1.1910	47.4500
 1.1920	47.4400
 1.1930	47.4320
 1.1940	47.4260
 1.1950	47.4200
 1.1960	47.4180
 1.1970	47.4180
 1.1980	47.4190
 1.1990	47.4230
 1.2000	47.4280
 1.2010	47.4360
 1.2020	47.4440
 1.2030	47.4550
 1.2040	47.4660
 1.2050	47.4760
 1.2060	47.4880
 1.2070	47.5030
 1.2080	47.5200
 1.2090	47.5400
 1.2100	47.5620
 1.2110	47.5850
 1.2120	47.6080
 1.2130	47.6330
 1.2140	47.6600
 1.2150	47.6870
 1.2160	47.7150
 1.2170	47.7440
 1.2180	47.7770
 1.2190	47.8100
 1.2200	47.8410
 1.2210	47.8730
 1.2220	47.9030
 1.2230	47.9300
 1.2240	47.9590
 1.2250	47.9880
 1.2260	48.0160
 1.2270	48.0430
 1.2280	48.0680
 1.2290	48.0940
 1.2300	48.1210
 1.2310	48.1460
 1.2320	48.1690
 1.2330	48.1920
 1.2340	48.2150
 1.2350	48.2340
 1.2360	48.2550
 1.2370	48.2750
 1.2380	48.2940
 1.2390	48.3120
 1.2400	48.3300
 1.2410	48.3500
 1.2420	48.3670
 1.2430	48.3840
 1.2440	48.4030
 1.2450	48.4180
 1.2460	48.4320
 1.2470	48.4450
 1.2480	48.4540
 1.2490	48.4640
 1.2500	48.4740
 1.2510	48.4850
 1.2520	48.4960
 1.2530	48.5070
 1.2540	48.5180
 1.2550	48.5270
 1.2560	48.5380
 1.2570	48.5460
 1.2580	48.5510
 1.2590	48.5560
 1.2600	48.5590
 1.2610	48.5610
 1.2620	48.5610
 1.2630	48.5630
 1.2640	48.5630
 1.2650	48.5630
 1.2660	48.5610
 1.2670	48.5570
 1.2680	48.5530
 1.2690	48.5480
 1.2700	48.5420
 1.2710	48.5350
 1.2720	48.5280
 1.2730	48.5200
 1.2740	48.5110
 1.2750	48.5020
 1.2760	48.4900
 1.2770	48.4770
 1.2780	48.4620
 1.2790	48.4440
 1.2800	48.4260
 1.2810	48.4050
 1.2820	48.3840
 1.2830	48.3620
 1.2840	48.3370
 1.2850	48.3120
 1.2860	48.2880
 1.2870	48.2590
 1.2880	48.2280
 1.2890	48.1960
 1.2900	48.1580
 1.2910	48.1160
 1.2920	48.0760
 1.2930	48.0340
 1.2940	47.9890
 1.2950	47.9430
 1.2960	47.8950
 1.2970	47.8430
 1.2980	47.7910
 1.2990	47.7360
 1.3000	47.6760
 1.3010	47.6130
 1.3020	47.5470
 1.3030	47.4790
 1.3040	47.4070
 1.3050	47.3330
 1.3060	47.2590
 1.3070	47.1810
 1.3080	47.0990
 1.3090	47.0160
 1.3100	46.9300
 1.3110	46.8390
 1.3120	46.7450
 1.3130	46.6500
 1.3140	46.5500
 1.3150	46.4470
 1.3160	46.3430
 1.3170	46.2380
 1.3180	46.1270
 1.3190	46.0130
 1.3200	45.8930
 1.3210	45.7680
 1.3220	45.6410
 1.3230	45.5120
 1.3240	45.3800
 1.3250	45.2470
 1.3260	45.1120
 1.3270	44.9750
 1.3280	44.8360
 1.3290	44.6930
 1.3300	44.5490
 1.3310	44.4040
 1.3320	44.2540
 1.3330	44.1050
 1.3340	43.9540
 1.3350	43.8010
 1.3360	43.6500
 1.3370	43.4970
 1.3380	43.3420
 1.3390	43.1890
 1.3400	43.0350
 1.3410	42.8820
 1.3420	42.7330
 1.3430	42.5870
 1.3440	42.4390
 1.3450	42.2940
 1.3460	42.1500
 1.3470	42.0050
 1.3480	41.8600
 1.3490	41.7180
 1.3500	41.5770
 1.3510	41.4370
 1.3520	41.2990
 1.3530	41.1620
 1.3540	41.0230
 1.3550	40.8840
 1.3560	40.7440
 1.3570	40.6030
 1.3580	40.4610
 1.3590	40.3170
 1.3600	40.1700
 1.3610	40.0200
 1.3620	39.8630
 1.3630	39.7030
 1.3640	39.5360
 1.3650	39.3590
 1.3660	39.1750
 1.3670	38.9810
 1.3680	38.7760
 1.3690	38.5590
 1.3700	38.3270
 1.3710	38.0830
 1.3720	37.8220
 1.3730	37.5410
 1.3740	37.2460
 1.3750	36.9280
 1.3760	36.5880
 1.3770	36.2270
 1.3780	35.8360
 1.3790	35.4240
 1.3800	34.9870
 1.3810	34.5230
 1.3820	34.0420
 1.3830	33.5400
 1.3840	33.0190
 1.3850	32.4780
 1.3860	31.9230
 1.3870	31.3460
 1.3880	30.7660
 1.3890	30.1740
 1.3900	29.5720
 1.3910	28.9710
 1.3920	28.3650
 1.3930	27.7570
 1.3940	27.1540
 1.3950	26.5510
 1.3960	25.9580
 1.3970	25.3770
 1.3980	24.8090
 1.3990	24.2650
 1.4000	23.7370
 1.4010	23.2250
 1.4020	22.7360
 1.4030	22.2650
 1.4040	21.8150
 1.4050	21.3910
 1.4060	20.9880
 1.4070	20.6120
 1.4080	20.2570
 1.4090	19.9230
 1.4100	19.6130
 1.4110	19.3210
 1.4120	19.0510
 1.4130	18.8000
 1.4140	18.5670
 1.4150	18.3530
 1.4160	18.1560
 1.4170	17.9740
 1.4180	17.8080
 1.4190	17.6530
 1.4200	17.5100
 1.4210	17.3800
 1.4220	17.2600
 1.4230	17.1530
 1.4240	17.0550
 1.4250	16.9640
 1.4260	16.8830
 1.4270	16.8090
 1.4280	16.7430
 1.4290	16.6830
 1.4300	16.6320
 1.4310	16.5860
 1.4320	16.5480
 1.4330	16.5140
 1.4340	16.4860
 1.4350	16.4610
 1.4360	16.4420
 1.4370	16.4260
 1.4380	16.4150
 1.4390	16.4080
 1.4400	16.4050
 1.4410	16.4050
 1.4420	16.4070
 1.4430	16.4120
 1.4440	16.4200
 1.4450	16.4290
 1.4460	16.4410
 1.4470	16.4560
 1.4480	16.4710
 1.4490	16.4880
 1.4500	16.5060
 1.4510	16.5260
 1.4520	16.5470
 1.4530	16.5700
 1.4540	16.5940
 1.4550	16.6220
 1.4560	16.6510
 1.4570	16.6840
 1.4580	16.7200
 1.4590	16.7580
 1.4600	16.7990
 1.4610	16.8440
 1.4620	16.8930
 1.4630	16.9470
 1.4640	17.0040
 1.4650	17.0690
 1.4660	17.1360
 1.4670	17.2080
 1.4680	17.2860
 1.4690	17.3680
 1.4700	17.4550
 1.4710	17.5480
 1.4720	17.6420
 1.4730	17.7390
 1.4740	17.8400
 1.4750	17.9440
 1.4760	18.0520
 1.4770	18.1630
 1.4780	18.2740
 1.4790	18.3890
 1.4800	18.5040
 1.4810	18.6220
 1.4820	18.7430
 1.4830	18.8650
 1.4840	18.9880
 1.4850	19.1110
 1.4860	19.2340
 1.4870	19.3590
 1.4880	19.4840
 1.4890	19.6110
 1.4900	19.7380
 1.4910	19.8670
 1.4920	19.9960
 1.4930	20.1260
 1.4940	20.2560
 1.4950	20.3880
 1.4960	20.5180
 1.4970	20.6480
 1.4980	20.7790
 1.4990	20.9100
 1.5000	21.0420
 1.5010	21.1760
 1.5020	21.3090
 1.5030	21.4410
 1.5040	21.5730
 1.5050	21.7040
 1.5060	21.8350
 1.5070	21.9660
 1.5080	22.0980
 1.5090	22.2290
 1.5100	22.3590
 1.5110	22.4890
 1.5120	22.6190
 1.5130	22.7470
 1.5140	22.8730
 1.5150	23.0000
 1.5160	23.1270
 1.5170	23.2530
 1.5180	23.3790
 1.5190	23.5050
 1.5200	23.6280
 1.5210	23.7490
 1.5220	23.8700
 1.5230	23.9910
 1.5240	24.1090
 1.5250	24.2290
 1.5260	24.3480
 1.5270	24.4630
 1.5280	24.5790
 1.5290	24.6940
 1.5300	24.8060
 1.5310	24.9200
 1.5320	25.0310
 1.5330	25.1420
 1.5340	25.2510
 1.5350	25.3590
 1.5360	25.4680
 1.5370	25.5740
 1.5380	25.6800
 1.5390	25.7880
 1.5400	25.8940
 1.5410	26.0000
 1.5420	26.1040
 1.5430	26.2040
 1.5440	26.3020
 1.5450	26.3990
 1.5460	26.4950
 1.5470	26.5930
 1.5480	26.6890
 1.5490	26.7860
 1.5500	26.8830
 1.5510	26.9790
 1.5520	27.0750
 1.5530	27.1680
 1.5540	27.2600
 1.5550	27.3520
 1.5560	27.4410
 1.5570	27.5310
 1.5580	27.6200
 1.5590	27.7070
 1.5600	27.7950
 1.5610	27.8810
 1.5620	27.9650
 1.5630	28.0510
 1.5640	28.1350
 1.5650	28.2170
 1.5660	28.2990
 1.5670	28.3810
 1.5680	28.4600
 1.5690	28.5380
 1.5700	28.6180
 1.5710	28.6980
 1.5720	28.7770
 1.5730	28.8570
 1.5740	28.9350
 1.5750	29.0130
 1.5760	29.0890
 1.5770	29.1650
 1.5780	29.2410
 1.5790	29.3150
 1.5800	29.3900
 1.5810	29.4660
 1.5820	29.5400
 1.5830	29.6160
 1.5840	29.6900
 1.5850	29.7640
 1.5860	29.8380
 1.5870	29.9110
 1.5880	29.9850
 1.5890	30.0590
 1.5900	30.1320
 1.5910	30.2030
 1.5920	30.2750
 1.5930	30.3470
 1.5940	30.4180
 1.5950	30.4890
 1.5960	30.5580
 1.5970	30.6250
 1.5980	30.6920
 1.5990	30.7600
 1.6000	30.8270
 1.6010	30.8940
 1.6020	30.9610
 1.6030	31.0260
 1.6040	31.0890
 1.6050	31.1510
 1.6060	31.2110
 1.6070	31.2710
 1.6080	31.3330
 1.6090	31.3930
 1.6100	31.4540
 1.6110	31.5130
 1.6120	31.5710
 1.6130	31.6290
 1.6140	31.6860
 1.6150	31.7430
 1.6160	31.7980
 1.6170	31.8530
 1.6180	31.9060
 1.6190	31.9590
 1.6200	32.0090
 1.6210	32.0590
 1.6220	32.1090
 1.6230	32.1580
 1.6240	32.2080
 1.6250	32.2560
 1.6260	32.3020
 1.6270	32.3480
 1.6280	32.3930
 1.6290	32.4380
 1.6300	32.4840
 1.6310	32.5280
 1.6320	32.5730
 1.6330	32.6140
 1.6340	32.6540
 1.6350	32.6940
 1.6360	32.7330
 1.6370	32.7710
 1.6380	32.8090
 1.6390	32.8430
 1.6400	32.8740
 1.6410	32.9030
 1.6420	32.9300
 1.6430	32.9560
 1.6440	32.9810
 1.6450	33.0050
 1.6460	33.0250
 1.6470	33.0420
 1.6480	33.0570
 1.6490	33.0680
 1.6500	33.0760
 1.6510	33.0830
 1.6520	33.0890
 1.6530	33.0910
 1.6540	33.0910
 1.6550	33.0870
 1.6560	33.0790
 1.6570	33.0720
 1.6580	33.0630
 1.6590	33.0530
 1.6600	33.0440
 1.6610	33.0310
 1.6620	33.0200
 1.6630	33.0100
 1.6640	33.0010
 1.6650	32.9930
 1.6660	32.9860
 1.6670	32.9790
 1.6680	32.9730
 1.6690	32.9670
 1.6700	32.9620
 1.6710	32.9540
 1.6720	32.9450
 1.6730	32.9370
 1.6740	32.9260
 1.6750	32.9160
 1.6760	32.9040
 1.6770	32.8880
 1.6780	32.8710
 1.6790	32.8510
 1.6800	32.8280
 1.6810	32.8010
 1.6820	32.7710
 1.6830	32.7400
 1.6840	32.7060
 1.6850	32.6700
 1.6860	32.6330
 1.6870	32.5950
 1.6880	32.5550
 1.6890	32.5140
 1.6900	32.4750
 1.6910	32.4340
 1.6920	32.3950
 1.6930	32.3560
 1.6940	32.3160
 1.6950	32.2760
 1.6960	32.2350
 1.6970	32.1910
 1.6980	32.1480
 1.6990	32.1030
 1.7000	32.0590
 1.7010	32.0160
 1.7020	31.9720
 1.7030	31.9280
 1.7040	31.8820
 1.7050	31.8340
 1.7060	31.7880
 1.7070	31.7420
 1.7080	31.6950
 1.7090	31.6480
 1.7100	31.6000
 1.7110	31.5500
 1.7120	31.5020
 1.7130	31.4530
 1.7140	31.4040
 1.7150	31.3520
 1.7160	31.3020
 1.7170	31.2510
 1.7180	31.1990
 1.7190	31.1480
 1.7200	31.0960
 1.7210	31.0410
 1.7220	30.9880
 1.7230	30.9350
 1.7240	30.8810
 1.7250	30.8280
 1.7260	30.7740
 1.7270	30.7210
 1.7280	30.6690
 1.7290	30.6180
 1.7300	30.5680
 1.7310	30.5180
 1.7320	30.4690
 1.7330	30.4190
 1.7340	30.3680
 1.7350	30.3180
 1.7360	30.2680
 1.7370	30.2170
 1.7380	30.1650
 1.7390	30.1120
 1.7400	30.0580
 1.7410	30.0010
 1.7420	29.9410
 1.7430	29.8820
 1.7440	29.8170
 1.7450	29.7570
 1.7460	29.6980
 1.7470	29.6370
 1.7480	29.5770
 1.7490	29.5160
 1.7500	29.4530
 1.7510	29.3900
 1.7520	29.3260
 1.7530	29.2620
 1.7540	29.2000
 1.7550	29.1360
 1.7560	29.0710
 1.7570	29.0080
 1.7580	28.9470
 1.7590	28.8890
 1.7600	28.8340
 1.7610	28.7800
 1.7620	28.7260
 1.7630	28.6710
 1.7640	28.6190
 1.7650	28.5700
 1.7660	28.5220
 1.7670	28.4790
 1.7680	28.4330
 1.7690	28.3850
 1.7700	28.3420
 1.7710	28.2990
 1.7720	28.2580
 1.7730	28.2210
 1.7740	28.1840
 1.7750	28.1480
 1.7760	28.1130
 1.7770	28.0800
 1.7780	28.0480
 1.7790	28.0170
 1.7800	27.9880
 1.7810	27.9620
 1.7820	27.9380
 1.7830	27.9150
 1.7840	27.8950
 1.7850	27.8760
 1.7860	27.8600
 1.7870	27.8440
 1.7880	27.8320
 1.7890	27.8220
 1.7900	27.8110
 1.7910	27.8020
 1.7920	27.7930
 1.7930	27.7880
 1.7940	27.7870
 1.7950	27.7860
 1.7960	27.7860
 1.7970	27.7870
 1.7980	27.7880
 1.7990	27.7910
 1.8000	27.7960
 1.8010	27.8020
 1.8020	27.8100
 1.8030	27.8180
 1.8040	27.8290
 1.8050	27.8350
 1.8060	27.8400
 1.8070	27.8460
 1.8080	27.8500
 1.8090	27.8560
 1.8100	27.8650
 1.8110	27.8720
 1.8120	27.8780
 1.8130	27.8790
 1.8140	27.8820
 1.8150	27.8850
 1.8160	27.8850
 1.8170	27.8890
 1.8180	27.8920
 1.8190	27.8940
 1.8200	27.8920
 1.8210	27.8870
 1.8220	27.8820
 1.8230	27.8770
 1.8240	27.8720
 1.8250	27.8700
 1.8260	27.8620
 1.8270	27.8400
 1.8280	27.8170
 1.8290	27.7950
 1.8300	27.7730
 1.8310	27.7500
 1.8320	27.7280
 1.8330	27.7060
 1.8340	27.6840
 1.8350	27.6840
 1.8360	27.6390
 1.8370	27.5930
 1.8380	27.5410
 1.8390	27.4850
 1.8400	27.4290
 1.8410	27.3600
 1.8420	27.2840
 1.8430	27.2010
 1.8440	27.1130
 1.8450	27.0160
 1.8460	26.9100
 1.8470	26.7960
 1.8480	26.6690
 1.8490	26.5310
 1.8500	26.3830
 1.8510	26.2250
 1.8520	26.0560
 1.8530	25.8740
 1.8540	25.6830
 1.8550	25.4790
 1.8560	25.2570
 1.8570	25.0230
 1.8580	24.7730
 1.8590	24.5080
 1.8600	24.2280
 1.8610	23.9350
 1.8620	23.6230
 1.8630	23.2940
 1.8640	22.9500
 1.8650	22.5860
 1.8660	22.2070
 1.8670	21.8100
 1.8680	21.3930
 1.8690	20.9560
 1.8700	20.5040
 1.8710	20.0330
 1.8720	19.5540
 1.8730	19.0660
 1.8740	18.5710
 1.8750	18.0740
 1.8760	17.5660
 1.8770	17.0590
 1.8780	16.5530
 1.8790	16.0460
 1.8800	15.5490
 1.8810	15.0590
 1.8820	14.5700
 1.8830	14.0880
 1.8840	13.6160
 1.8850	13.1500
 1.8860	12.6990
 1.8870	12.2670
 1.8880	11.8500
 1.8890	11.4560
 1.8900	11.0820
 1.8910	10.7280
 1.8920	10.3910
 1.8930	10.0800
 1.8940	 9.7870
 1.8950	 9.5180
 1.8960	 9.2750
 1.8970	 9.0500
 1.8980	 8.8480
 1.8990	 8.6650
 1.9000	 8.4950
 1.9010	 8.3440
 1.9020	 8.2050
 1.9030	 8.0830
 1.9040	 7.9740
 1.9050	 7.8790
 1.9060	 7.7960
 1.9070	 7.7230
 1.9080	 7.6600
 1.9090	 7.6030
 1.9100	 7.5530
 1.9110	 7.5080
 1.9120	 7.4720
 1.9130	 7.4360
 1.9140	 7.4060
 1.9150	 7.3770
 1.9160	 7.3500
 1.9170	 7.3280
 1.9180	 7.3100
 1.9190	 7.2960
 1.9200	 7.2870
 1.9210	 7.2790
 1.9220	 7.2720
 1.9230	 7.2670
 1.9240	 7.2630
 1.9250	 7.2610
 1.9260	 7.2620
 1.9270	 7.2630
 1.9280	 7.2650
 1.9290	 7.2680
 1.9300	 7.2740
 1.9310	 7.2820
 1.9320	 7.2920
 1.9330	 7.3010
 1.9340	 7.3130
 1.9350	 7.3240
 1.9360	 7.3320
 1.9370	 7.3450
 1.9380	 7.3610
 1.9390	 7.3780
 1.9400	 7.3970
 1.9410	 7.4160
 1.9420	 7.4350
 1.9430	 7.4530
 1.9440	 7.4730
 1.9450	 7.4940
 1.9460	 7.5160
 1.9470	 7.5400
 1.9480	 7.5640
 1.9490	 7.5910
 1.9500	 7.6170
 1.9510	 7.6450
 1.9520	 7.6750
 1.9530	 7.7040
 1.9540	 7.7360
 1.9550	 7.7680
 1.9560	 7.8010
 1.9570	 7.8350
 1.9580	 7.8710
 1.9590	 7.9070
 1.9600	 7.9430
 1.9610	 7.9790
 1.9620	 8.0150
 1.9630	 8.0540
 1.9640	 8.0940
 1.9650	 8.1340
 1.9660	 8.1750
 1.9670	 8.2170
 1.9680	 8.2590
 1.9690	 8.3000
 1.9700	 8.3440
 1.9710	 8.3890
 1.9720	 8.4340
 1.9730	 8.4800
 1.9740	 8.5270
 1.9750	 8.5760
 1.9760	 8.6260
 1.9770	 8.6770
 1.9780	 8.7290
 1.9790	 8.7810
 1.9800	 8.8320
 1.9810	 8.8840
 1.9820	 8.9370
 1.9830	 8.9920
 1.9840	 9.0470
 1.9850	 9.1030
 1.9860	 9.1590
 1.9870	 9.2170
 1.9880	 9.2760
 1.9890	 9.3340
 1.9900	 9.3910
 1.9910	 9.4490
 1.9920	 9.5080
 1.9930	 9.5660
 1.9940	 9.6260
 1.9950	 9.6870
 1.9960	 9.7470
 1.9970	 9.8070
 1.9980	 9.8670
 1.9990	 9.9270
 2.0000	 9.9880
 2.0010	10.0510
 2.0020	10.1130
 2.0030	10.1720
 2.0040	10.2350
 2.0050	10.2940
 2.0060	10.3500
 2.0070	10.4100
 2.0080	10.4720
 2.0090	10.5320
 2.0100	10.5930
 2.0110	10.6530
 2.0120	10.7120
 2.0130	10.7710
 2.0140	10.8290
 2.0150	10.8880
 2.0160	10.9480
 2.0170	11.0030
 2.0180	11.0570
 2.0190	11.1100
 2.0200	11.1640
 2.0210	11.2160
 2.0220	11.2690
 2.0230	11.3230
 2.0240	11.3760
 2.0250	11.4290
 2.0260	11.4800
 2.0270	11.5290
 2.0280	11.5760
 2.0290	11.6210
 2.0300	11.6660
 2.0310	11.7110
 2.0320	11.7570
 2.0330	11.8010
 2.0340	11.8450
 2.0350	11.8890
 2.0360	11.9320
 2.0370	11.9750
 2.0380	12.0190
 2.0390	12.0590
 2.0400	12.0990
 2.0410	12.1360
 2.0420	12.1690
 2.0430	12.2010
 2.0440	12.2350
 2.0450	12.2670
 2.0460	12.3020
 2.0470	12.3400
 2.0480	12.3770
 2.0490	12.4170
 2.0500	12.4540
 2.0510	12.4900
 2.0520	12.5270
 2.0530	12.5620
 2.0540	12.5990
 2.0550	12.6360
 2.0560	12.6740
 2.0570	12.7110
 2.0580	12.7470
 2.0590	12.7840
 2.0600	12.8200
 2.0610	12.8560
 2.0620	12.8910
 2.0630	12.9270
 2.0640	12.9620
 2.0650	12.9990
 2.0660	13.0380
 2.0670	13.0760
 2.0680	13.1120
 2.0690	13.1510
 2.0700	13.1920
 2.0710	13.2310
 2.0720	13.2710
 2.0730	13.3130
 2.0740	13.3490
 2.0750	13.3790
 2.0760	13.4150
 2.0770	13.4510
 2.0780	13.4870
 2.0790	13.5270
 2.0800	13.5630
 2.0810	13.5940
 2.0820	13.6290
 2.0830	13.6640
 2.0840	13.7010
 2.0850	13.7410
 2.0860	13.7800
 2.0870	13.8200
 2.0880	13.8590
 2.0890	13.8970
 2.0900	13.9340
 2.0910	13.9710
 2.0920	14.0070
 2.0930	14.0420
 2.0940	14.0760
 2.0950	14.1100
 2.0960	14.1420
 2.0970	14.1770
 2.0980	14.2140
 2.0990	14.2500
 2.1000	14.2860
 2.1010	14.3230
 2.1020	14.3600
 2.1030	14.3980
 2.1040	14.4380
 2.1050	14.4800
 2.1060	14.5180
 2.1070	14.5550
 2.1080	14.5930
 2.1090	14.6270
 2.1100	14.6660
 2.1110	14.7090
 2.1120	14.7480
 2.1130	14.7860
 2.1140	14.8240
 2.1150	14.8570
 2.1160	14.8940
 2.1170	14.9340
 2.1180	14.9720
 2.1190	15.0080
 2.1200	15.0430
 2.1210	15.0740
 2.1220	15.1060
 2.1230	15.1400
 2.1240	15.1750
 2.1250	15.2090
 2.1260	15.2450
 2.1270	15.2800
 2.1280	15.3130
 2.1290	15.3450
 2.1300	15.3770
 2.1310	15.4070
 2.1320	15.4340
 2.1330	15.4630
 2.1340	15.4930
 2.1350	15.5210
 2.1360	15.5500
 2.1370	15.5780
 2.1380	15.6060
 2.1390	15.6320
 2.1400	15.6560
 2.1410	15.6830
 2.1420	15.7110
 2.1430	15.7380
 2.1440	15.7670
 2.1450	15.8000
 2.1460	15.8300
 2.1470	15.8590
 2.1480	15.8880
 2.1490	15.9160
 2.1500	15.9450
 2.1510	15.9740
 2.1520	16.0020
 2.1530	16.0280
 2.1540	16.0550
 2.1550	16.0820
 2.1560	16.1100
 2.1570	16.1400
 2.1580	16.1680
 2.1590	16.1930
 2.1600	16.2190
 2.1610	16.2450
 2.1620	16.2710
 2.1630	16.2960
 2.1640	16.3200
 2.1650	16.3470
 2.1660	16.3730
 2.1670	16.3990
 2.1680	16.4290
 2.1690	16.4540
 2.1700	16.4740
 2.1710	16.4970
 2.1720	16.5190
 2.1730	16.5430
 2.1740	16.5680
 2.1750	16.5940
 2.1760	16.6200
 2.1770	16.6480
 2.1780	16.6770
 2.1790	16.7060
 2.1800	16.7350
 2.1810	16.7630
 2.1820	16.7890
 2.1830	16.8140
 2.1840	16.8420
 2.1850	16.8710
 2.1860	16.8980
 2.1870	16.9270
 2.1880	16.9530
 2.1890	16.9770
 2.1900	17.0030
 2.1910	17.0300
 2.1920	17.0560
 2.1930	17.0810
 2.1940	17.1080
 2.1950	17.1370
 2.1960	17.1630
 2.1970	17.1910
 2.1980	17.2160
 2.1990	17.2400
 2.2000	17.2610
 2.2010	17.2780
 2.2020	17.2960
 2.2030	17.3080
 2.2040	17.3260
 2.2050	17.3440
 2.2060	17.3680
 2.2070	17.3900
 2.2080	17.4180
 2.2090	17.4350
 2.2100	17.4480
 2.2110	17.4610
 2.2120	17.4670
 2.2130	17.4780
 2.2140	17.4910
 2.2150	17.5010
 2.2160	17.5100
 2.2170	17.5170
 2.2180	17.5200
 2.2190	17.5250
 2.2200	17.5300
 2.2210	17.5320
 2.2220	17.5340
 2.2230	17.5330
 2.2240	17.5280
 2.2250	17.5220
 2.2260	17.5140
 2.2270	17.5040
 2.2280	17.4940
 2.2290	17.4800
 2.2300	17.4650
 2.2310	17.4470
 2.2320	17.4280
 2.2330	17.4050
 2.2340	17.3810
 2.2350	17.3570
 2.2360	17.3290
 2.2370	17.2990
 2.2380	17.2640
 2.2390	17.2270
 2.2400	17.1850
 2.2410	17.1370
 2.2420	17.0890
 2.2430	17.0400
 2.2440	16.9860
 2.2450	16.9280
 2.2460	16.8700
 2.2470	16.8080
 2.2480	16.7480
 2.2490	16.6900
 2.2500	16.6290
 2.2510	16.5640
 2.2520	16.5000
 2.2530	16.4360
 2.2540	16.3710
 2.2550	16.3060
 2.2560	16.2380
 2.2570	16.1630
 2.2580	16.0920
 2.2590	16.0190
 2.2600	15.9490
 2.2610	15.8830
 2.2620	15.8170
 2.2630	15.7480
 2.2640	15.6780
 2.2650	15.6050
 2.2660	15.5320
 2.2670	15.4590
 2.2680	15.3850
 2.2690	15.3170
 2.2700	15.2500
 2.2710	15.1870
 2.2720	15.1310
 2.2730	15.0710
 2.2740	15.0120
 2.2750	14.9540
 2.2760	14.8970
 2.2770	14.8420
 2.2780	14.7900
 2.2790	14.7390
 2.2800	14.6880
 2.2810	14.6410
 2.2820	14.5980
 2.2830	14.5550
 2.2840	14.5150
 2.2850	14.4740
 2.2860	14.4310
 2.2870	14.3930
 2.2880	14.3590
 2.2890	14.3240
 2.2900	14.2940
 2.2910	14.2580
 2.2920	14.2170
 2.2930	14.1780
 2.2940	14.1360
 2.2950	14.0950
 2.2960	14.0560
 2.2970	14.0150
 2.2980	13.9760
 2.2990	13.9330
 2.3000	13.8890
 2.3010	13.8540
 2.3020	13.8170
 2.3030	13.7780
 2.3040	13.7420
 2.3050	13.7060
 2.3060	13.6670
 2.3070	13.6320
 2.3080	13.6050
 2.3090	13.5750
 2.3100	13.5430
 2.3110	13.5170
 2.3120	13.4930
 2.3130	13.4650
 2.3140	13.4440
 2.3150	13.4330
 2.3160	13.4110
 2.3170	13.3840
 2.3180	13.3610
 2.3190	13.3390
 2.3200	13.3140
 2.3210	13.2900
 2.3220	13.2630
 2.3230	13.2300
 2.3240	13.1990
 2.3250	13.1690
 2.3260	13.1380
 2.3270	13.1040
 2.3280	13.0710
 2.3290	13.0380
 2.3300	13.0040
 2.3310	12.9690
 2.3320	12.9340
 2.3330	12.9010
 2.3340	12.8640
 2.3350	12.8250
 2.3360	12.7860
 2.3370	12.7410
 2.3380	12.7000
 2.3390	12.6600
 2.3400	12.6200
 2.3410	12.5830
 2.3420	12.5440
 2.3430	12.5040
 2.3440	12.4670
 2.3450	12.4310
 2.3460	12.3930
 2.3470	12.3530
 2.3480	12.3180
 2.3490	12.2840
 2.3500	12.2530
 2.3510	12.2310
 2.3520	12.2030
 2.3530	12.1710
 2.3540	12.1420
 2.3550	12.1180
 2.3560	12.0820
 2.3570	12.0520
 2.3580	12.0230
 2.3590	11.9820
 2.3600	11.9540
 2.3610	11.9280
 2.3620	11.8930
 2.3630	11.8590
 2.3640	11.8200
 2.3650	11.7850
 2.3660	11.7550
 2.3670	11.7190
 2.3680	11.6840
 2.3690	11.6430
 2.3700	11.5980
 2.3710	11.5630
 2.3720	11.5310
 2.3730	11.4920
 2.3740	11.4500
 2.3750	11.4090
 2.3760	11.3730
 2.3770	11.3440
 2.3780	11.3150
 2.3790	11.2820
 2.3800	11.2440
 2.3810	11.2010
 2.3820	11.1600
 2.3830	11.1110
 2.3840	11.0650
 2.3850	11.0260
 2.3860	10.9820
 2.3870	10.9580
 2.3880	10.9350
 2.3890	10.8940
 2.3900	10.8680
 2.3910	10.8370
 2.3920	10.7990
 2.3930	10.7680
 2.3940	10.7310
 2.3950	10.6890
 2.3960	10.6440
 2.3970	10.6100
 2.3980	10.5780
 2.3990	10.5320
 2.4000	10.4850
 2.4010	10.4410
 2.4020	10.3920
 2.4030	10.3540
 2.4040	10.3340
 2.4050	10.3010
 2.4060	10.2600
 2.4070	10.2170
 2.4080	10.1590
 2.4090	10.1040
 2.4100	10.0640
 2.4110	10.0340
 2.4120	10.0080
 2.4130	 9.9800
 2.4140	 9.9480
 2.4150	 9.9070
 2.4160	 9.8670
 2.4170	 9.8230
 2.4180	 9.7740
 2.4190	 9.7410
 2.4200	 9.7030
 2.4210	 9.6550
 2.4220	 9.6220
 2.4230	 9.5720
 2.4240	 9.5150
 2.4250	 9.4790
 2.4260	 9.4390
 2.4270	 9.4000
 2.4280	 9.3710
 2.4290	 9.3260
 2.4300	 9.2900
 2.4310	 9.2620
 2.4320	 9.2140
 2.4330	 9.1690
 2.4340	 9.1210
 2.4350	 9.0620
 2.4360	 9.0120
 2.4370	 8.9740
 2.4380	 8.9400
 2.4390	 8.9050
 2.4400	 8.8830
 2.4410	 8.8680
 2.4420	 8.8490
 2.4430	 8.8230
 2.4440	 8.7840
 2.4450	 8.7390
 2.4460	 8.6930
 2.4470	 8.6540
 2.4480	 8.6300
 2.4490	 8.6020
 2.4500	 8.5770
 2.4510	 8.5590
 2.4520	 8.5210
 2.4530	 8.4800
 2.4540	 8.4520
 2.4550	 8.4100
 2.4560	 8.3800
 2.4570	 8.3630
 2.4580	 8.3260
 2.4590	 8.2900
 2.4600	 8.2510
 2.4610	 8.1830
 2.4620	 8.1430
 2.4630	 8.1380
 2.4640	 8.1250
 2.4650	 8.1330
 2.4660	 8.1210
 2.4670	 8.0750
 2.4680	 8.0400
 2.4690	 8.0190
 2.4700	 7.9980
 2.4710	 7.9800
 2.4720	 7.9630
 2.4730	 7.9530
 2.4740	 7.9420
 2.4750	 7.9310
 2.4760	 7.9070
 2.4770	 7.8710
 2.4780	 7.8360
 2.4790	 7.7940
 2.4800	 7.7710
 2.4810	 7.7580
 2.4820	 7.7580
 2.4830	 7.7500
 2.4840	 7.7130
 2.4850	 7.6950
 2.4860	 7.6590
 2.4870	 7.6100
 2.4880	 7.6010
 2.4890	 7.5870
 2.4900	 7.5890
 2.4910	 7.6170
 2.4920	 7.6180
 2.4930	 7.6240
 2.4940	 7.6210
 2.4950	 7.6150
 2.4960	 7.6430
 2.4970	 7.6600
 2.4980	 7.6470
 2.4990	 7.6220
 2.5000	 7.5850
