Name: Arctostaphylos glandulosa 3
Type: vegetation
Class: Shrub
Genus: Arctostaphylos
Species: glandulosa
Sample No.: VH039
Owner: UCSB
Wavelength Range: TIR
Origin: 34.5085; -119.7682; WGS84
Collection Date: 4/1/2013
Description: Samples were collected as part of the HyspIRI Airborne Campaign. 48 individual plants were sampled in three times in 2013 - spring  summer  and fall. The name of the sample includes a 1  2  or 3 which references a different individual of the species. Samples were taken to JPL and processed within 48 hours of collection. The same leaves were processed in the Nicolet and then measured using the ASD.
Measurement: Hemispherical reflectance
First Column: X
Second Column: Y
X Units: Wavelength (micrometers)
Y Units: Reflectance (percentage)
First X Value: 2.501
Last X Value: 15.387
Number of X Values: 1737
Additional Information: vegetation.shrub.arctostaphylos.glandulosa.tir.vh039.ucsb.nicolet.ancillary.txt

 2.5010	 6.9510
 2.5030	 6.9500
 2.5040	 6.9760
 2.5050	 6.7800
 2.5060	 6.8480
 2.5070	 6.9480
 2.5090	 6.9870
 2.5100	 6.9000
 2.5110	 6.8490
 2.5120	 6.8440
 2.5140	 6.9650
 2.5150	 6.9270
 2.5160	 6.8270
 2.5170	 6.7500
 2.5180	 6.8340
 2.5200	 6.8870
 2.5210	 6.9190
 2.5220	 6.9090
 2.5230	 6.9660
 2.5250	 6.8810
 2.5260	 6.8310
 2.5270	 6.8160
 2.5280	 6.9100
 2.5290	 6.8490
 2.5310	 6.8000
 2.5320	 6.7560
 2.5330	 6.7560
 2.5340	 6.7880
 2.5360	 6.8630
 2.5370	 6.8140
 2.5380	 6.7730
 2.5390	 6.7660
 2.5410	 6.8570
 2.5420	 6.9070
 2.5430	 6.9790
 2.5440	 6.9450
 2.5460	 6.9320
 2.5470	 6.8390
 2.5480	 6.9550
 2.5490	 6.9090
 2.5510	 6.9070
 2.5520	 6.9070
 2.5530	 6.9800
 2.5540	 6.9430
 2.5560	 6.8820
 2.5570	 6.8300
 2.5580	 6.8730
 2.5590	 6.9130
 2.5610	 6.9800
 2.5620	 6.9350
 2.5630	 6.9290
 2.5640	 6.8570
 2.5660	 6.8000
 2.5670	 6.7590
 2.5680	 6.8330
 2.5700	 6.9030
 2.5710	 6.9870
 2.5720	 6.9710
 2.5730	 6.9390
 2.5750	 6.9470
 2.5760	 7.1010
 2.5770	 7.0440
 2.5790	 7.0490
 2.5800	 6.9960
 2.5810	 6.9120
 2.5820	 6.8680
 2.5840	 7.0610
 2.5850	 7.1980
 2.5860	 7.1890
 2.5880	 7.0800
 2.5890	 7.0130
 2.5900	 6.9270
 2.5910	 6.9510
 2.5930	 6.9440
 2.5940	 6.9910
 2.5950	 6.9770
 2.5970	 6.9000
 2.5980	 6.8990
 2.5990	 7.0140
 2.6000	 6.9320
 2.6020	 6.8320
 2.6030	 6.8580
 2.6040	 6.9700
 2.6060	 7.0090
 2.6070	 7.1130
 2.6080	 7.0680
 2.6100	 7.1110
 2.6110	 6.9740
 2.6120	 7.0050
 2.6140	 7.0430
 2.6150	 6.9880
 2.6160	 6.9040
 2.6180	 6.8570
 2.6190	 6.7590
 2.6200	 6.8840
 2.6220	 6.9050
 2.6230	 6.8570
 2.6240	 6.7620
 2.6260	 6.8220
 2.6270	 6.9060
 2.6280	 6.9130
 2.6300	 6.7430
 2.6310	 6.7170
 2.6320	 6.6640
 2.6340	 6.6830
 2.6350	 6.7220
 2.6360	 6.7210
 2.6380	 6.6590
 2.6390	 6.6590
 2.6400	 6.6500
 2.6420	 6.7490
 2.6430	 6.7380
 2.6440	 6.6850
 2.6460	 6.6700
 2.6470	 6.6860
 2.6480	 6.6450
 2.6500	 6.6250
 2.6510	 6.5370
 2.6520	 6.6420
 2.6540	 6.6230
 2.6550	 6.5970
 2.6560	 6.6440
 2.6580	 6.6570
 2.6590	 6.5600
 2.6610	 6.5880
 2.6620	 6.5280
 2.6630	 6.5000
 2.6650	 6.5220
 2.6660	 6.6150
 2.6670	 6.5280
 2.6690	 6.4250
 2.6700	 6.3670
 2.6720	 6.4220
 2.6730	 6.3520
 2.6740	 6.3510
 2.6760	 6.3410
 2.6770	 6.4160
 2.6780	 6.3120
 2.6800	 6.3020
 2.6810	 6.3190
 2.6830	 6.3280
 2.6840	 6.2480
 2.6850	 6.1620
 2.6870	 6.1790
 2.6880	 6.1880
 2.6900	 6.1340
 2.6910	 6.1850
 2.6920	 6.1600
 2.6940	 6.1430
 2.6950	 6.0110
 2.6970	 5.9680
 2.6980	 5.9380
 2.6990	 5.9270
 2.7010	 5.8560
 2.7020	 5.8360
 2.7040	 5.7660
 2.7050	 5.7540
 2.7060	 5.7440
 2.7080	 5.6960
 2.7090	 5.5800
 2.7110	 5.4710
 2.7120	 5.4050
 2.7130	 5.4210
 2.7150	 5.3200
 2.7160	 5.3660
 2.7180	 5.4950
 2.7190	 5.5710
 2.7210	 5.4090
 2.7220	 5.3470
 2.7230	 5.3310
 2.7250	 5.3080
 2.7260	 5.2600
 2.7280	 5.3190
 2.7290	 5.2540
 2.7310	 5.2560
 2.7320	 5.2330
 2.7330	 5.1530
 2.7350	 5.0420
 2.7360	 5.0900
 2.7380	 5.0090
 2.7390	 4.9560
 2.7410	 4.8990
 2.7420	 5.0260
 2.7440	 5.0360
 2.7450	 5.0170
 2.7470	 4.9820
 2.7480	 4.9450
 2.7490	 4.8530
 2.7510	 4.8800
 2.7520	 4.7860
 2.7540	 4.7230
 2.7550	 4.6670
 2.7570	 4.6950
 2.7580	 4.7060
 2.7600	 4.6580
 2.7610	 4.5540
 2.7630	 4.6470
 2.7640	 4.6510
 2.7660	 4.5960
 2.7670	 4.5470
 2.7680	 4.5300
 2.7700	 4.4540
 2.7710	 4.5030
 2.7730	 4.4320
 2.7740	 4.3530
 2.7760	 4.3890
 2.7770	 4.4920
 2.7790	 4.4190
 2.7800	 4.3140
 2.7820	 4.2110
 2.7830	 4.2070
 2.7850	 4.0590
 2.7860	 4.1650
 2.7880	 4.1390
 2.7890	 4.1120
 2.7910	 4.0850
 2.7920	 4.0780
 2.7940	 3.8850
 2.7950	 3.8110
 2.7970	 3.7290
 2.7980	 3.7930
 2.8000	 3.8920
 2.8010	 3.8970
 2.8030	 3.8170
 2.8040	 3.8100
 2.8060	 3.7080
 2.8070	 3.7100
 2.8090	 3.6990
 2.8110	 3.7420
 2.8120	 3.6880
 2.8140	 3.6680
 2.8150	 3.4930
 2.8170	 3.4660
 2.8180	 3.4620
 2.8200	 3.4810
 2.8210	 3.4510
 2.8230	 3.4140
 2.8240	 3.3220
 2.8260	 3.4250
 2.8270	 3.4260
 2.8290	 3.4420
 2.8300	 3.3700
 2.8320	 3.4040
 2.8340	 3.4080
 2.8350	 3.3540
 2.8370	 3.1870
 2.8380	 3.1550
 2.8400	 3.1160
 2.8410	 3.2220
 2.8430	 3.2240
 2.8440	 3.3770
 2.8460	 3.3740
 2.8480	 3.2270
 2.8490	 3.0720
 2.8510	 3.1410
 2.8520	 3.1280
 2.8540	 3.1830
 2.8550	 3.1590
 2.8570	 3.2520
 2.8590	 3.2210
 2.8600	 3.0970
 2.8620	 3.0130
 2.8630	 3.2070
 2.8650	 3.2590
 2.8660	 3.1920
 2.8680	 3.0690
 2.8700	 3.0660
 2.8710	 2.9120
 2.8730	 2.9020
 2.8740	 2.9760
 2.8760	 3.0780
 2.8780	 3.0780
 2.8790	 3.1170
 2.8810	 3.0950
 2.8820	 3.1250
 2.8840	 3.1660
 2.8860	 3.1410
 2.8870	 2.9630
 2.8890	 2.9320
 2.8900	 2.8730
 2.8920	 2.8860
 2.8940	 2.8370
 2.8950	 2.8560
 2.8970	 2.8980
 2.8980	 2.8740
 2.9000	 2.8230
 2.9020	 2.9630
 2.9030	 2.9980
 2.9050	 3.0440
 2.9070	 2.9580
 2.9080	 2.8590
 2.9100	 2.8110
 2.9120	 2.8930
 2.9130	 2.9480
 2.9150	 2.9480
 2.9160	 2.8640
 2.9180	 2.9410
 2.9200	 2.8870
 2.9210	 2.8230
 2.9230	 2.7650
 2.9250	 2.8370
 2.9260	 2.8770
 2.9280	 2.9790
 2.9300	 2.9590
 2.9310	 2.9390
 2.9330	 2.7980
 2.9350	 2.7530
 2.9360	 2.8310
 2.9380	 3.0000
 2.9400	 2.9730
 2.9410	 2.9750
 2.9430	 2.9530
 2.9450	 2.8980
 2.9460	 2.8770
 2.9480	 2.9130
 2.9500	 2.9370
 2.9510	 2.8630
 2.9530	 2.8430
 2.9550	 3.0110
 2.9560	 3.0000
 2.9580	 2.8380
 2.9600	 2.7450
 2.9610	 2.8540
 2.9630	 2.9190
 2.9650	 2.9900
 2.9660	 2.8340
 2.9680	 2.9310
 2.9700	 3.0450
 2.9720	 2.7210
 2.9730	 2.4780
 2.9750	 2.6380
 2.9770	 2.6750
 2.9780	 2.7770
 2.9800	 2.8970
 2.9820	 2.6860
 2.9840	 2.6530
 2.9850	 2.7630
 2.9870	 2.3280
 2.9890	 2.4730
 2.9900	 2.9500
 2.9920	 3.1170
 2.9940	 2.6880
 2.9960	 2.9960
 2.9970	 2.7300
 2.9990	 2.4980
 3.0010	 2.8720
 3.0030	 3.1300
 3.0040	 3.0060
 3.0060	 2.9440
 3.0080	 3.1550
 3.0100	 3.3930
 3.0110	 3.2950
 3.0130	 2.7180
 3.0150	 2.1890
 3.0170	 2.6330
 3.0180	 2.6910
 3.0200	 2.5970
 3.0220	 2.7540
 3.0240	 2.8470
 3.0250	 2.6760
 3.0270	 2.4000
 3.0290	 2.6850
 3.0310	 2.9360
 3.0320	 2.6390
 3.0340	 2.4780
 3.0360	 3.0570
 3.0380	 3.3700
 3.0400	 3.1490
 3.0410	 2.9140
 3.0430	 2.5320
 3.0450	 2.6590
 3.0470	 3.0540
 3.0480	 3.0870
 3.0500	 2.8860
 3.0520	 3.3610
 3.0540	 3.7830
 3.0560	 3.4860
 3.0570	 3.1590
 3.0590	 2.7660
 3.0610	 2.4320
 3.0630	 2.6840
 3.0650	 2.6520
 3.0660	 2.5870
 3.0680	 2.7120
 3.0700	 2.7860
 3.0720	 2.8240
 3.0740	 3.1240
 3.0760	 3.2500
 3.0770	 3.1130
 3.0790	 2.9860
 3.0810	 2.8670
 3.0830	 2.8600
 3.0850	 3.0760
 3.0870	 3.0210
 3.0880	 3.1430
 3.0900	 3.2160
 3.0920	 3.0920
 3.0940	 3.0290
 3.0960	 3.0960
 3.0980	 3.1220
 3.0990	 3.0650
 3.1010	 3.0020
 3.1030	 3.0650
 3.1050	 3.0790
 3.1070	 3.2180
 3.1090	 3.2790
 3.1110	 3.2560
 3.1120	 3.1400
 3.1140	 3.1210
 3.1160	 3.1520
 3.1180	 3.3040
 3.1200	 3.3360
 3.1220	 3.3070
 3.1240	 3.2440
 3.1260	 3.2170
 3.1270	 3.2570
 3.1290	 3.4570
 3.1310	 3.4040
 3.1330	 3.4340
 3.1350	 3.4060
 3.1370	 3.5320
 3.1390	 3.5960
 3.1410	 3.2610
 3.1430	 3.0290
 3.1450	 3.3990
 3.1460	 3.5560
 3.1480	 3.5920
 3.1500	 3.6160
 3.1520	 3.6830
 3.1540	 3.3410
 3.1560	 3.4350
 3.1580	 3.6740
 3.1600	 3.5520
 3.1620	 3.5070
 3.1640	 3.8760
 3.1660	 3.7980
 3.1680	 3.4070
 3.1700	 3.4250
 3.1710	 3.7890
 3.1730	 3.5050
 3.1750	 3.5310
 3.1770	 3.7580
 3.1790	 3.7090
 3.1810	 3.4460
 3.1830	 3.8070
 3.1850	 3.7740
 3.1870	 3.6560
 3.1890	 3.6400
 3.1910	 3.6870
 3.1930	 3.7030
 3.1950	 3.6590
 3.1970	 3.7410
 3.1990	 3.8640
 3.2010	 3.7320
 3.2030	 3.7580
 3.2050	 3.9060
 3.2070	 3.9680
 3.2090	 3.8610
 3.2110	 3.8210
 3.2130	 3.8250
 3.2150	 3.8640
 3.2170	 3.8350
 3.2190	 3.9180
 3.2210	 3.9280
 3.2230	 3.8900
 3.2250	 3.8120
 3.2270	 3.8880
 3.2290	 3.8580
 3.2310	 3.7770
 3.2330	 3.9540
 3.2350	 4.1220
 3.2370	 3.9740
 3.2390	 3.9440
 3.2410	 3.8910
 3.2430	 3.9670
 3.2450	 3.9810
 3.2470	 3.9680
 3.2490	 3.9120
 3.2510	 3.9700
 3.2530	 3.9100
 3.2550	 3.8600
 3.2570	 3.8540
 3.2590	 3.7860
 3.2610	 3.7700
 3.2630	 3.8940
 3.2650	 3.8960
 3.2670	 4.0180
 3.2690	 4.0330
 3.2720	 3.9580
 3.2740	 3.9200
 3.2760	 3.9110
 3.2780	 3.8770
 3.2800	 3.9460
 3.2820	 3.9110
 3.2840	 3.8910
 3.2860	 3.8810
 3.2880	 3.9000
 3.2900	 3.9200
 3.2920	 4.0200
 3.2940	 3.9840
 3.2960	 3.9700
 3.2990	 3.9160
 3.3010	 3.8780
 3.3030	 3.8450
 3.3050	 3.8570
 3.3070	 3.8100
 3.3090	 3.8290
 3.3110	 3.8510
 3.3130	 3.8160
 3.3150	 3.7500
 3.3180	 3.7380
 3.3200	 3.6690
 3.3220	 3.6890
 3.3240	 3.6920
 3.3260	 3.7750
 3.3280	 3.6850
 3.3300	 3.6870
 3.3330	 3.6530
 3.3350	 3.6470
 3.3370	 3.6550
 3.3390	 3.5820
 3.3410	 3.4630
 3.3430	 3.5260
 3.3450	 3.6050
 3.3480	 3.5830
 3.3500	 3.5170
 3.3520	 3.4690
 3.3540	 3.3520
 3.3560	 3.2830
 3.3580	 3.1350
 3.3610	 3.1220
 3.3630	 3.0660
 3.3650	 3.0150
 3.3670	 3.0530
 3.3690	 3.1110
 3.3720	 2.9470
 3.3740	 2.8210
 3.3760	 2.8040
 3.3780	 2.8110
 3.3800	 2.7250
 3.3830	 2.7100
 3.3850	 2.7040
 3.3870	 2.7250
 3.3890	 2.6780
 3.3910	 2.6800
 3.3940	 2.5830
 3.3960	 2.4820
 3.3980	 2.4190
 3.4000	 2.4190
 3.4020	 2.3080
 3.4050	 2.3250
 3.4070	 2.3240
 3.4090	 2.2910
 3.4110	 2.1760
 3.4140	 2.2000
 3.4160	 2.3200
 3.4180	 2.5390
 3.4200	 2.8580
 3.4230	 3.4990
 3.4250	 4.2320
 3.4270	 5.0140
 3.4290	 5.4310
 3.4320	 5.4890
 3.4340	 5.2070
 3.4360	 4.8640
 3.4390	 4.5270
 3.4410	 4.3530
 3.4430	 4.1860
 3.4450	 4.1110
 3.4480	 4.0430
 3.4500	 3.9250
 3.4520	 3.7540
 3.4550	 3.8210
 3.4570	 3.9210
 3.4590	 3.9400
 3.4620	 3.8180
 3.4640	 3.8180
 3.4660	 3.7440
 3.4680	 3.6760
 3.4710	 3.7240
 3.4730	 3.8080
 3.4750	 3.7050
 3.4780	 3.6390
 3.4800	 3.5280
 3.4820	 3.5040
 3.4850	 3.4330
 3.4870	 3.3840
 3.4890	 3.3200
 3.4920	 3.3660
 3.4940	 3.3110
 3.4970	 3.2230
 3.4990	 3.0550
 3.5010	 2.9400
 3.5040	 3.0720
 3.5060	 3.4310
 3.5080	 4.2580
 3.5110	 5.3380
 3.5130	 5.7110
 3.5160	 5.6030
 3.5180	 5.3970
 3.5200	 5.2640
 3.5230	 5.0850
 3.5250	 5.0340
 3.5270	 4.9630
 3.5300	 4.8670
 3.5320	 4.7980
 3.5350	 4.8700
 3.5370	 4.8030
 3.5400	 4.8130
 3.5420	 4.8330
 3.5440	 4.7780
 3.5470	 4.7220
 3.5490	 4.7040
 3.5520	 4.6800
 3.5540	 4.6800
 3.5570	 4.6960
 3.5590	 4.7430
 3.5610	 4.7090
 3.5640	 4.7610
 3.5660	 4.8480
 3.5690	 4.9330
 3.5710	 4.8530
 3.5740	 4.7590
 3.5760	 4.7250
 3.5790	 4.6760
 3.5810	 4.6480
 3.5840	 4.7970
 3.5860	 4.8380
 3.5890	 4.8070
 3.5910	 4.7960
 3.5930	 4.8670
 3.5960	 4.7890
 3.5980	 4.6920
 3.6010	 4.6730
 3.6030	 4.7350
 3.6060	 4.6150
 3.6080	 4.5860
 3.6110	 4.6930
 3.6140	 4.7570
 3.6160	 4.7270
 3.6190	 4.7240
 3.6210	 4.7110
 3.6240	 4.7380
 3.6260	 4.7150
 3.6290	 4.7660
 3.6310	 4.7680
 3.6340	 4.7340
 3.6360	 4.6780
 3.6390	 4.6980
 3.6410	 4.6510
 3.6440	 4.6520
 3.6470	 4.6640
 3.6490	 4.7480
 3.6520	 4.7600
 3.6540	 4.7370
 3.6570	 4.7290
 3.6590	 4.8030
 3.6620	 4.7590
 3.6650	 4.7190
 3.6670	 4.7540
 3.6700	 4.7600
 3.6720	 4.6620
 3.6750	 4.6500
 3.6780	 4.6320
 3.6800	 4.6970
 3.6830	 4.6910
 3.6850	 4.6700
 3.6880	 4.6410
 3.6910	 4.6680
 3.6930	 4.6710
 3.6960	 4.6830
 3.6990	 4.6450
 3.7010	 4.6430
 3.7040	 4.6510
 3.7060	 4.7200
 3.7090	 4.7070
 3.7120	 4.7130
 3.7140	 4.7350
 3.7170	 4.8270
 3.7200	 4.8210
 3.7220	 4.8090
 3.7250	 4.7910
 3.7280	 4.8060
 3.7300	 4.8290
 3.7330	 4.8480
 3.7360	 4.7900
 3.7390	 4.7990
 3.7410	 4.7580
 3.7440	 4.7950
 3.7470	 4.8230
 3.7490	 4.8060
 3.7520	 4.8100
 3.7550	 4.7880
 3.7580	 4.7440
 3.7600	 4.7830
 3.7630	 4.7550
 3.7660	 4.7850
 3.7680	 4.7680
 3.7710	 4.8030
 3.7740	 4.8100
 3.7770	 4.8760
 3.7790	 4.8830
 3.7820	 4.8030
 3.7850	 4.7580
 3.7880	 4.8060
 3.7900	 4.7640
 3.7930	 4.7140
 3.7960	 4.7520
 3.7990	 4.8150
 3.8020	 4.8180
 3.8040	 4.8740
 3.8070	 4.8980
 3.8100	 4.8960
 3.8130	 4.8440
 3.8160	 4.8410
 3.8180	 4.8390
 3.8210	 4.8500
 3.8240	 4.8550
 3.8270	 4.8900
 3.8300	 4.8700
 3.8330	 4.8890
 3.8350	 4.9290
 3.8380	 4.9530
 3.8410	 4.9590
 3.8440	 4.9670
 3.8470	 4.9930
 3.8500	 5.0420
 3.8520	 4.9580
 3.8550	 4.8940
 3.8580	 4.8890
 3.8610	 4.9650
 3.8640	 5.0250
 3.8670	 5.0320
 3.8700	 4.9340
 3.8730	 4.9090
 3.8750	 4.9220
 3.8780	 4.9170
 3.8810	 4.9830
 3.8840	 5.0690
 3.8870	 5.0570
 3.8900	 5.0320
 3.8930	 4.9360
 3.8960	 4.8740
 3.8990	 4.8750
 3.9020	 4.9650
 3.9050	 4.9660
 3.9080	 4.9040
 3.9110	 4.8900
 3.9140	 4.9670
 3.9160	 4.9890
 3.9190	 5.0190
 3.9220	 5.0070
 3.9250	 5.0030
 3.9280	 4.9810
 3.9310	 5.0290
 3.9340	 5.0340
 3.9370	 5.0060
 3.9400	 4.9710
 3.9430	 4.9660
 3.9460	 4.9890
 3.9490	 4.9850
 3.9520	 4.9520
 3.9550	 4.9990
 3.9580	 5.0020
 3.9610	 5.0480
 3.9640	 5.0540
 3.9670	 5.0550
 3.9700	 5.0980
 3.9730	 5.1260
 3.9770	 5.1000
 3.9800	 5.0390
 3.9830	 5.0070
 3.9860	 5.0370
 3.9890	 4.9940
 3.9920	 5.0110
 3.9950	 5.0790
 3.9980	 5.0910
 4.0010	 5.0430
 4.0040	 5.0640
 4.0070	 5.0660
 4.0100	 5.0950
 4.0130	 5.1240
 4.0170	 5.1140
 4.0200	 5.0980
 4.0230	 5.1090
 4.0260	 5.1330
 4.0290	 5.1330
 4.0320	 5.0890
 4.0350	 5.0930
 4.0380	 5.0890
 4.0420	 5.0840
 4.0450	 5.1590
 4.0480	 5.2720
 4.0510	 5.2950
 4.0540	 5.2500
 4.0570	 5.1700
 4.0610	 5.1880
 4.0640	 5.2130
 4.0670	 5.2340
 4.0700	 5.1520
 4.0730	 5.1160
 4.0770	 5.1050
 4.0800	 5.1180
 4.0830	 5.1980
 4.0860	 5.2400
 4.0890	 5.1700
 4.0930	 5.1530
 4.0960	 5.1680
 4.0990	 5.2040
 4.1020	 5.1910
 4.1060	 5.1650
 4.1090	 5.1620
 4.1120	 5.2250
 4.1150	 5.2470
 4.1190	 5.2310
 4.1220	 5.1910
 4.1250	 5.2090
 4.1280	 5.2730
 4.1320	 5.2890
 4.1350	 5.2900
 4.1380	 5.2790
 4.1420	 5.2460
 4.1450	 5.3050
 4.1480	 5.3190
 4.1520	 5.3070
 4.1550	 5.2560
 4.1580	 5.2350
 4.1620	 5.2760
 4.1650	 5.3100
 4.1680	 5.2840
 4.1720	 5.3060
 4.1750	 5.2660
 4.1780	 5.3010
 4.1820	 5.3610
 4.1850	 5.3460
 4.1890	 5.3260
 4.1920	 5.3320
 4.1950	 5.3310
 4.1990	 5.3420
 4.2020	 5.3870
 4.2060	 5.3890
 4.2090	 5.3920
 4.2120	 5.4820
 4.2160	 5.6380
 4.2190	 5.7170
 4.2230	 5.7630
 4.2260	 5.9580
 4.2300	 5.7940
 4.2330	 5.7240
 4.2360	 5.8410
 4.2400	 5.8830
 4.2430	 5.7210
 4.2470	 5.6980
 4.2500	 5.5640
 4.2540	 5.5830
 4.2570	 5.5570
 4.2610	 5.5970
 4.2640	 5.5520
 4.2680	 5.6690
 4.2710	 5.6820
 4.2750	 5.5620
 4.2780	 5.4690
 4.2820	 5.4990
 4.2850	 5.5510
 4.2890	 5.7050
 4.2930	 5.8260
 4.2960	 5.7340
 4.3000	 5.6550
 4.3030	 5.6090
 4.3070	 5.5640
 4.3100	 5.4980
 4.3140	 5.4220
 4.3180	 5.3570
 4.3210	 5.2850
 4.3250	 5.3740
 4.3280	 5.3720
 4.3320	 5.3930
 4.3360	 5.3970
 4.3390	 5.4130
 4.3430	 5.4040
 4.3470	 5.3740
 4.3500	 5.3450
 4.3540	 5.3090
 4.3570	 5.2630
 4.3610	 5.2400
 4.3650	 5.2040
 4.3680	 5.2430
 4.3720	 5.2420
 4.3760	 5.2690
 4.3800	 5.2780
 4.3830	 5.2660
 4.3870	 5.2880
 4.3910	 5.2830
 4.3940	 5.2540
 4.3980	 5.2110
 4.4020	 5.2010
 4.4060	 5.2320
 4.4090	 5.1950
 4.4130	 5.1670
 4.4170	 5.2130
 4.4210	 5.2140
 4.4240	 5.1850
 4.4280	 5.1790
 4.4320	 5.1960
 4.4360	 5.1920
 4.4400	 5.1630
 4.4430	 5.1390
 4.4470	 5.1550
 4.4510	 5.1530
 4.4550	 5.1050
 4.4590	 5.1010
 4.4620	 5.1210
 4.4660	 5.1820
 4.4700	 5.1800
 4.4740	 5.1100
 4.4780	 5.1040
 4.4820	 5.1400
 4.4860	 5.1380
 4.4900	 5.1470
 4.4930	 5.1940
 4.4970	 5.1920
 4.5010	 5.1390
 4.5050	 5.1350
 4.5090	 5.1250
 4.5130	 5.0840
 4.5170	 5.1140
 4.5210	 5.1270
 4.5250	 5.1170
 4.5290	 5.1250
 4.5330	 5.1100
 4.5370	 5.0560
 4.5410	 5.0480
 4.5450	 5.0300
 4.5490	 5.0080
 4.5530	 5.0540
 4.5570	 5.0910
 4.5610	 5.0820
 4.5650	 5.1110
 4.5690	 5.0940
 4.5730	 5.0040
 4.5770	 4.9480
 4.5810	 4.9770
 4.5850	 5.0670
 4.5890	 5.0530
 4.5930	 5.0380
 4.5970	 5.0270
 4.6010	 5.0030
 4.6050	 5.0210
 4.6090	 4.9580
 4.6130	 4.9560
 4.6170	 5.0650
 4.6220	 5.0310
 4.6260	 5.0100
 4.6300	 5.0420
 4.6340	 5.0740
 4.6380	 5.0460
 4.6420	 4.9980
 4.6460	 4.9860
 4.6510	 4.9870
 4.6550	 4.9790
 4.6590	 4.9740
 4.6630	 5.0050
 4.6670	 4.9710
 4.6720	 4.9330
 4.6760	 4.9520
 4.6800	 4.9640
 4.6840	 4.9540
 4.6880	 5.0090
 4.6930	 4.9980
 4.6970	 4.9380
 4.7010	 4.9370
 4.7050	 4.9500
 4.7100	 4.9520
 4.7140	 4.9680
 4.7180	 4.9840
 4.7230	 4.9730
 4.7270	 4.9570
 4.7310	 4.9700
 4.7360	 4.9450
 4.7400	 4.9860
 4.7440	 5.0190
 4.7490	 5.0090
 4.7530	 4.9930
 4.7570	 4.9960
 4.7620	 4.9950
 4.7660	 5.0020
 4.7700	 5.0350
 4.7750	 4.9850
 4.7790	 4.8600
 4.7840	 4.9050
 4.7880	 4.9300
 4.7920	 4.9440
 4.7970	 4.9160
 4.8010	 4.8600
 4.8060	 4.8720
 4.8100	 4.9580
 4.8150	 4.9600
 4.8190	 4.9500
 4.8240	 4.9430
 4.8280	 4.9260
 4.8330	 4.9100
 4.8370	 4.8820
 4.8420	 4.9330
 4.8460	 4.9780
 4.8510	 4.9660
 4.8550	 5.0140
 4.8600	 5.0200
 4.8640	 4.9900
 4.8690	 4.9720
 4.8730	 4.9620
 4.8780	 5.0440
 4.8830	 5.0390
 4.8870	 4.9680
 4.8920	 4.9670
 4.8960	 4.9400
 4.9010	 4.9130
 4.9060	 4.9830
 4.9100	 4.9920
 4.9150	 4.9480
 4.9200	 4.9400
 4.9240	 4.9290
 4.9290	 4.9650
 4.9340	 4.9850
 4.9380	 4.9650
 4.9430	 4.9330
 4.9480	 4.9670
 4.9530	 4.9550
 4.9570	 4.9090
 4.9620	 4.9790
 4.9670	 5.0680
 4.9720	 5.0910
 4.9760	 5.0850
 4.9810	 4.9860
 4.9860	 4.9190
 4.9910	 4.9380
 4.9960	 4.9820
 5.0000	 5.0270
 5.0050	 5.0350
 5.0100	 4.9960
 5.0150	 4.9860
 5.0200	 4.9990
 5.0250	 5.0580
 5.0290	 5.0110
 5.0340	 5.0180
 5.0390	 5.0440
 5.0440	 5.0150
 5.0490	 4.9920
 5.0540	 5.0230
 5.0590	 5.0510
 5.0640	 5.0420
 5.0690	 4.9990
 5.0740	 5.0350
 5.0790	 5.0450
 5.0840	 5.0360
 5.0890	 5.0380
 5.0940	 5.0410
 5.0990	 5.0190
 5.1040	 5.0540
 5.1090	 5.1010
 5.1140	 5.0830
 5.1190	 5.0380
 5.1240	 5.0400
 5.1290	 5.0620
 5.1340	 5.0820
 5.1390	 5.0860
 5.1440	 5.0620
 5.1490	 5.0740
 5.1540	 5.0730
 5.1600	 4.9990
 5.1650	 4.9720
 5.1700	 4.9600
 5.1750	 4.9770
 5.1800	 5.0030
 5.1850	 5.0350
 5.1910	 5.0130
 5.1960	 4.9980
 5.2010	 4.9820
 5.2060	 5.0070
 5.2110	 4.9860
 5.2170	 5.0070
 5.2220	 5.0500
 5.2270	 5.0730
 5.2320	 5.0330
 5.2380	 5.0650
 5.2430	 5.0820
 5.2480	 5.0190
 5.2540	 4.9740
 5.2590	 4.9900
 5.2640	 4.9540
 5.2700	 4.9500
 5.2750	 4.9910
 5.2800	 5.0030
 5.2860	 4.9630
 5.2910	 4.9540
 5.2970	 4.9920
 5.3020	 5.0180
 5.3070	 4.9850
 5.3130	 4.9480
 5.3180	 4.9190
 5.3240	 4.9770
 5.3290	 5.0030
 5.3350	 4.9670
 5.3400	 4.9060
 5.3460	 4.9410
 5.3510	 4.9050
 5.3570	 4.8460
 5.3620	 4.8510
 5.3680	 4.9340
 5.3730	 4.9340
 5.3790	 4.8970
 5.3850	 4.8520
 5.3900	 4.8390
 5.3960	 4.8310
 5.4010	 4.8320
 5.4070	 4.8280
 5.4130	 4.9280
 5.4180	 4.9210
 5.4240	 4.9020
 5.4300	 4.8840
 5.4350	 4.8310
 5.4410	 4.8130
 5.4470	 4.8440
 5.4530	 4.8220
 5.4580	 4.7920
 5.4640	 4.7480
 5.4700	 4.7390
 5.4760	 4.7460
 5.4810	 4.7850
 5.4870	 4.7450
 5.4930	 4.7440
 5.4990	 4.7200
 5.5050	 4.6740
 5.5110	 4.6530
 5.5160	 4.6690
 5.5220	 4.6150
 5.5280	 4.5890
 5.5340	 4.5480
 5.5400	 4.5100
 5.5460	 4.4830
 5.5520	 4.4950
 5.5580	 4.4320
 5.5640	 4.3880
 5.5700	 4.3930
 5.5760	 4.3750
 5.5820	 4.3040
 5.5880	 4.2980
 5.5940	 4.2230
 5.6000	 4.2010
 5.6060	 4.1780
 5.6120	 4.1810
 5.6180	 4.1240
 5.6240	 4.1010
 5.6300	 4.0650
 5.6360	 4.0570
 5.6420	 3.9990
 5.6490	 3.9570
 5.6550	 3.8880
 5.6610	 3.8250
 5.6670	 3.7070
 5.6730	 3.6250
 5.6800	 3.5560
 5.6860	 3.5710
 5.6920	 3.4930
 5.6980	 3.4000
 5.7040	 3.3460
 5.7110	 3.3170
 5.7170	 3.2270
 5.7230	 3.1840
 5.7300	 3.1110
 5.7360	 3.0980
 5.7420	 3.0180
 5.7490	 3.0200
 5.7550	 3.0460
 5.7620	 3.1080
 5.7680	 3.1290
 5.7740	 3.1670
 5.7810	 3.1660
 5.7870	 3.2050
 5.7940	 3.2660
 5.8000	 3.3580
 5.8070	 3.3830
 5.8130	 3.4380
 5.8200	 3.5120
 5.8260	 3.5650
 5.8330	 3.5360
 5.8390	 3.5940
 5.8460	 3.5900
 5.8530	 3.6190
 5.8590	 3.6450
 5.8660	 3.7040
 5.8720	 3.6900
 5.8790	 3.7010
 5.8860	 3.6800
 5.8920	 3.7110
 5.8990	 3.6720
 5.9060	 3.6910
 5.9130	 3.7210
 5.9190	 3.7790
 5.9260	 3.7960
 5.9330	 3.8420
 5.9400	 3.8820
 5.9470	 3.9230
 5.9530	 3.8860
 5.9600	 3.9980
 5.9670	 4.0510
 5.9740	 4.0600
 5.9810	 3.9610
 5.9880	 3.9300
 5.9950	 3.9940
 6.0020	 4.0360
 6.0090	 3.9960
 6.0160	 4.0420
 6.0230	 4.0160
 6.0300	 4.0980
 6.0370	 4.0930
 6.0440	 4.1180
 6.0510	 4.1160
 6.0580	 4.1330
 6.0650	 4.0990
 6.0720	 4.0470
 6.0790	 3.9950
 6.0860	 4.0910
 6.0930	 4.0900
 6.1000	 4.0880
 6.1080	 4.0350
 6.1150	 4.0520
 6.1220	 4.0380
 6.1290	 4.0930
 6.1370	 4.0040
 6.1440	 3.9550
 6.1510	 3.9920
 6.1580	 4.1020
 6.1660	 4.0420
 6.1730	 4.0880
 6.1800	 4.0740
 6.1880	 4.0790
 6.1950	 4.1220
 6.2030	 4.1870
 6.2100	 4.1370
 6.2170	 4.1660
 6.2250	 4.0860
 6.2320	 4.1390
 6.2400	 4.1040
 6.2470	 4.0990
 6.2550	 4.0740
 6.2630	 4.1000
 6.2700	 4.0890
 6.2780	 4.1560
 6.2850	 4.0830
 6.2930	 4.0630
 6.3010	 4.0170
 6.3080	 4.1720
 6.3160	 4.1930
 6.3240	 4.1660
 6.3310	 4.1550
 6.3390	 4.2290
 6.3470	 4.1890
 6.3550	 4.1380
 6.3620	 4.1630
 6.3700	 4.3030
 6.3780	 4.2450
 6.3860	 4.2420
 6.3940	 4.1330
 6.4020	 4.1460
 6.4100	 4.2200
 6.4180	 4.2940
 6.4260	 4.1730
 6.4330	 4.1580
 6.4410	 4.1430
 6.4490	 4.1840
 6.4580	 4.1090
 6.4660	 4.1460
 6.4740	 4.0860
 6.4820	 4.1410
 6.4900	 4.1680
 6.4980	 4.1110
 6.5060	 4.0080
 6.5140	 4.1000
 6.5230	 4.0980
 6.5310	 4.1000
 6.5390	 3.9940
 6.5470	 3.9920
 6.5550	 3.9860
 6.5640	 4.0550
 6.5720	 4.0290
 6.5800	 3.9740
 6.5890	 3.9580
 6.5970	 4.0430
 6.6060	 3.9830
 6.6140	 3.9680
 6.6220	 3.9160
 6.6310	 4.0020
 6.6390	 3.9900
 6.6480	 3.9380
 6.6560	 3.8770
 6.6650	 3.9350
 6.6740	 3.8150
 6.6820	 3.7820
 6.6910	 3.7300
 6.6990	 3.7190
 6.7080	 3.6510
 6.7170	 3.6160
 6.7260	 3.4930
 6.7340	 3.4770
 6.7430	 3.3890
 6.7520	 3.3590
 6.7610	 3.2280
 6.7690	 3.1340
 6.7780	 2.9660
 6.7870	 3.2800
 6.7960	 3.6360
 6.8050	 3.6300
 6.8140	 3.3560
 6.8230	 3.2820
 6.8320	 3.3800
 6.8410	 3.7360
 6.8500	 3.7840
 6.8590	 3.7180
 6.8680	 3.5880
 6.8770	 3.5990
 6.8860	 3.5900
 6.8950	 3.5920
 6.9050	 3.4750
 6.9140	 3.4180
 6.9230	 3.3270
 6.9320	 3.4040
 6.9420	 3.3590
 6.9510	 3.3220
 6.9600	 3.2200
 6.9700	 3.2410
 6.9790	 3.2030
 6.9880	 3.2520
 6.9980	 3.2130
 7.0070	 3.2540
 7.0170	 3.1230
 7.0260	 3.1750
 7.0360	 3.2550
 7.0450	 3.3770
 7.0550	 3.3490
 7.0650	 3.4020
 7.0740	 3.3870
 7.0840	 3.4250
 7.0940	 3.4300
 7.1030	 3.4970
 7.1130	 3.4680
 7.1230	 3.4960
 7.1330	 3.4640
 7.1420	 3.4950
 7.1520	 3.4360
 7.1620	 3.4790
 7.1720	 3.3820
 7.1820	 3.3870
 7.1920	 3.3160
 7.2020	 3.2660
 7.2120	 3.1720
 7.2220	 3.2150
 7.2320	 3.1620
 7.2420	 3.1960
 7.2520	 3.0920
 7.2620	 3.1270
 7.2730	 3.1170
 7.2830	 3.1330
 7.2930	 3.1130
 7.3030	 3.1920
 7.3140	 3.1200
 7.3240	 3.2050
 7.3340	 3.1680
 7.3450	 3.1550
 7.3550	 3.1260
 7.3660	 3.2260
 7.3760	 3.1500
 7.3870	 3.2220
 7.3970	 3.2520
 7.4080	 3.2970
 7.4180	 3.2100
 7.4290	 3.2460
 7.4400	 3.2380
 7.4500	 3.2800
 7.4610	 3.2010
 7.4720	 3.2110
 7.4830	 3.1550
 7.4930	 3.2460
 7.5040	 3.2160
 7.5150	 3.1850
 7.5260	 3.1260
 7.5370	 3.2330
 7.5480	 3.1750
 7.5590	 3.1730
 7.5700	 3.1070
 7.5810	 3.1320
 7.5920	 3.1230
 7.6030	 3.2670
 7.6140	 3.2540
 7.6260	 3.2670
 7.6370	 3.2250
 7.6480	 3.4090
 7.6590	 3.4010
 7.6710	 3.4530
 7.6820	 3.4560
 7.6930	 3.4310
 7.7050	 3.3030
 7.7160	 3.4280
 7.7280	 3.3980
 7.7390	 3.3970
 7.7510	 3.3690
 7.7630	 3.3760
 7.7740	 3.2510
 7.7860	 3.3600
 7.7980	 3.3420
 7.8090	 3.3330
 7.8210	 3.2560
 7.8330	 3.3550
 7.8450	 3.3260
 7.8570	 3.3970
 7.8690	 3.2470
 7.8810	 3.2350
 7.8930	 3.1010
 7.9050	 3.1610
 7.9170	 3.1410
 7.9290	 3.2010
 7.9410	 3.1130
 7.9530	 3.2450
 7.9650	 3.2370
 7.9780	 3.2950
 7.9900	 3.1840
 8.0020	 3.2010
 8.0150	 3.0950
 8.0270	 3.2560
 8.0390	 3.1960
 8.0520	 3.1910
 8.0640	 3.2000
 8.0770	 3.3510
 8.0900	 3.1960
 8.1020	 3.1720
 8.1150	 3.1230
 8.1280	 3.2620
 8.1400	 3.2530
 8.1530	 3.3740
 8.1660	 3.3400
 8.1790	 3.4330
 8.1920	 3.3010
 8.2050	 3.3490
 8.2180	 3.3340
 8.2310	 3.4320
 8.2440	 3.3440
 8.2570	 3.4500
 8.2700	 3.4600
 8.2830	 3.5050
 8.2970	 3.3560
 8.3100	 3.4250
 8.3230	 3.2710
 8.3370	 3.2750
 8.3500	 3.2470
 8.3640	 3.4580
 8.3770	 3.3230
 8.3910	 3.3670
 8.4040	 3.3800
 8.4180	 3.4260
 8.4320	 3.2580
 8.4450	 3.3510
 8.4590	 3.2730
 8.4730	 3.3120
 8.4870	 3.1300
 8.5010	 3.1960
 8.5150	 3.2200
 8.5290	 3.3810
 8.5430	 3.2300
 8.5570	 3.2900
 8.5710	 3.2340
 8.5850	 3.3840
 8.5990	 3.1970
 8.6140	 3.1470
 8.6280	 3.0710
 8.6420	 3.2760
 8.6570	 3.2080
 8.6710	 3.2400
 8.6860	 3.0650
 8.7000	 3.1240
 8.7150	 3.0840
 8.7300	 3.1970
 8.7440	 3.0490
 8.7590	 3.1500
 8.7740	 3.1080
 8.7890	 3.2380
 8.8040	 3.1270
 8.8190	 3.1400
 8.8340	 2.9340
 8.8490	 3.1130
 8.8640	 3.0700
 8.8790	 3.2040
 8.8940	 3.1070
 8.9100	 3.1210
 8.9250	 2.9010
 8.9400	 3.0530
 8.9560	 3.0100
 8.9710	 3.1370
 8.9870	 2.9390
 9.0020	 3.0040
 9.0180	 3.0880
 9.0340	 3.3280
 9.0500	 3.1980
 9.0650	 3.2670
 9.0810	 3.1280
 9.0970	 3.2520
 9.1130	 3.1580
 9.1290	 3.2610
 9.1450	 3.1100
 9.1610	 3.2600
 9.1780	 3.1500
 9.1940	 3.2300
 9.2100	 3.0380
 9.2270	 3.1430
 9.2430	 3.1830
 9.2600	 3.2960
 9.2760	 3.0970
 9.2930	 3.2140
 9.3090	 3.1120
 9.3260	 3.2200
 9.3430	 3.2200
 9.3600	 3.4500
 9.3770	 3.2390
 9.3940	 3.3190
 9.4110	 3.3830
 9.4280	 3.5360
 9.4450	 3.4130
 9.4620	 3.6170
 9.4800	 3.5350
 9.4970	 3.4950
 9.5140	 3.3350
 9.5320	 3.5740
 9.5500	 3.5120
 9.5670	 3.5920
 9.5850	 3.3490
 9.6030	 3.4590
 9.6200	 3.3920
 9.6380	 3.3810
 9.6560	 3.2520
 9.6740	 3.5490
 9.6920	 3.4460
 9.7100	 3.5180
 9.7290	 3.4080
 9.7470	 3.6180
 9.7650	 3.5020
 9.7840	 3.5170
 9.8020	 3.3780
 9.8210	 3.3630
 9.8390	 3.2050
 9.8580	 3.5630
 9.8770	 3.5010
 9.8960	 3.6840
 9.9150	 3.6160
 9.9340	 3.6510
 9.9530	 3.4440
 9.9720	 3.5140
 9.9910	 3.4520
10.0100	 3.5930
10.0300	 3.4720
10.0490	 3.6790
10.0690	 3.5880
10.0880	 3.7010
10.1080	 3.5660
10.1280	 3.6850
10.1480	 3.7080
10.1670	 3.9800
10.1870	 3.9220
10.2070	 4.0570
10.2280	 3.9960
10.2480	 4.1410
10.2680	 4.0420
10.2890	 4.1800
10.3090	 4.1470
10.3300	 4.3710
10.3500	 4.3640
10.3710	 4.5030
10.3920	 4.3130
10.4120	 4.4550
10.4330	 4.3980
10.4540	 4.5980
10.4760	 4.5160
10.4970	 4.6860
10.5180	 4.5880
10.5390	 4.7400
10.5610	 4.6130
10.5820	 4.7700
10.6040	 4.5930
10.6260	 4.7320
10.6480	 4.6700
10.6700	 4.8640
10.6920	 4.7280
10.7140	 4.7030
10.7360	 4.6330
10.7580	 4.8890
10.7800	 4.7390
10.8030	 4.7520
10.8250	 4.5620
10.8480	 4.6890
10.8710	 4.5560
10.8940	 4.7250
10.9170	 4.6440
10.9400	 4.7200
10.9630	 4.4480
10.9860	 4.6050
11.0090	 4.6070
11.0330	 4.7270
11.0560	 4.5450
11.0800	 4.5760
11.1040	 4.1220
11.1270	 4.1380
11.1510	 4.1990
11.1750	 4.4720
11.2000	 4.3620
11.2240	 4.5490
11.2480	 4.5110
11.2730	 4.9880
11.2970	 5.2480
11.3220	 4.8780
11.3470	 4.3680
11.3720	 4.6990
11.3970	 4.6030
11.4220	 4.6590
11.4470	 4.5220
11.4720	 4.7110
11.4980	 4.6130
11.5230	 4.8330
11.5490	 4.6700
11.5750	 4.8660
11.6000	 4.6860
11.6260	 4.8670
11.6530	 4.7480
11.6790	 4.9090
11.7050	 4.7350
11.7320	 4.8330
11.7580	 4.6690
11.7850	 4.8450
11.8120	 4.7190
11.8390	 4.8440
11.8660	 4.6240
11.8930	 4.8130
11.9200	 4.6080
11.9480	 4.7370
11.9760	 4.6370
12.0030	 4.7520
12.0310	 4.4620
12.0590	 4.6230
12.0870	 4.5270
12.1150	 4.8650
12.1440	 4.7500
12.1720	 4.8460
12.2010	 4.4600
12.2300	 4.5550
12.2590	 4.5470
12.2880	 4.7670
12.3170	 4.5790
12.3460	 4.7050
12.3760	 4.5350
12.4050	 4.7730
12.4350	 4.6620
12.4650	 4.8700
12.4950	 4.7110
12.5250	 4.9080
12.5550	 4.6700
12.5860	 4.7960
12.6170	 4.4810
12.6470	 4.6520
12.6780	 4.4830
12.7090	 4.5740
12.7410	 4.2990
12.7720	 4.5280
12.8030	 4.3430
12.8350	 4.6690
12.8670	 4.4870
12.8990	 4.5290
12.9310	 4.1260
12.9640	 4.3900
12.9960	 4.3340
13.0290	 4.3960
13.0610	 4.0410
13.0940	 4.1710
13.1280	 4.0960
13.1610	 4.4290
13.1940	 4.0740
13.2280	 4.2570
13.2620	 4.0800
13.2960	 4.1760
13.3300	 3.8580
13.3640	 4.1060
13.3990	 3.8550
13.4340	 4.0980
13.4690	 3.8520
13.5040	 3.8540
13.5390	 3.4100
13.5740	 3.6410
13.6100	 3.3840
13.6460	 3.6930
13.6820	 4.0450
13.7180	 4.8430
13.7540	 4.3770
13.7910	 4.3380
13.8280	 3.6440
13.8650	 4.1790
13.9020	 4.8320
13.9390	 5.3200
13.9770	 4.7390
14.0150	 4.8260
14.0530	 4.3730
14.0910	 4.5080
14.1290	 4.1730
14.1680	 4.4910
14.2070	 4.0550
14.2460	 4.4080
14.2850	 3.9710
14.3240	 4.2240
14.3640	 4.0260
14.4040	 4.2870
14.4440	 3.8630
14.4840	 4.2320
14.5250	 3.7950
14.5660	 4.2360
14.6070	 3.9880
14.6480	 4.5900
14.6900	 4.1350
14.7310	 4.3260
14.7730	 3.9860
14.8150	 4.3060
14.8580	 3.7060
14.9010	 4.3810
14.9440	 4.1330
14.9870	 4.8610
15.0300	 3.7330
15.0740	 4.0450
15.1180	 3.6930
15.1620	 4.2700
15.2060	 3.6940
15.2510	 4.1650
15.2960	 3.7900
15.3410	 4.5860
15.3870	 4.0000
