Name: Rubus occidentalis
Type: Vegetation
Class: Tree
Genus: Rubus
Species: occidentalis
Sample No.: RUOC-1-73
Owner: UCSB
Wavelength Range: VSWIR
Origin: USA; Massachusetts; Harvard Forest
Collection Date: 7/8/2013
Description: Samples were collected as part of NSF Macrosystem Biology proposal titled: Collaborative Research: Thermal controls on ecosystem metabolism and function: scaling from leaves to canopies to regions. Samples were collected and overnighted to JPL facilities for processing. The same leaves were processed in the Nicolet and then measured using the ASD.
Measurement: Bidirectional reflectance
First Column: X
Second Column: Y
X Units: Wavelength (micrometers)
Y Units: Reflectance (percentage)
First X Value: 0.35
Last X Value: 2.5
Number of X Values: 2151
Additional Information: vegetation.tree.rubus.occidentalis.vswir.ruoc-1-73.ucsb.asd.ancillary.txt

 0.3500	 5.0290
 0.3510	 5.1340
 0.3520	 4.8370
 0.3530	 4.5510
 0.3540	 4.6280
 0.3550	 4.6490
 0.3560	 4.7640
 0.3570	 4.9020
 0.3580	 4.8820
 0.3590	 4.6270
 0.3600	 4.6270
 0.3610	 4.8400
 0.3620	 4.4090
 0.3630	 4.3960
 0.3640	 4.6540
 0.3650	 4.7860
 0.3660	 4.7550
 0.3670	 4.6710
 0.3680	 4.6120
 0.3690	 4.6140
 0.3700	 4.5360
 0.3710	 4.5190
 0.3720	 4.6110
 0.3730	 4.6270
 0.3740	 4.6460
 0.3750	 4.6030
 0.3760	 4.4520
 0.3770	 4.4150
 0.3780	 4.5100
 0.3790	 4.6320
 0.3800	 4.5900
 0.3810	 4.4930
 0.3820	 4.4930
 0.3830	 4.6190
 0.3840	 4.6440
 0.3850	 4.6360
 0.3860	 4.6160
 0.3870	 4.5930
 0.3880	 4.5440
 0.3890	 4.5660
 0.3900	 4.6310
 0.3910	 4.5810
 0.3920	 4.5980
 0.3930	 4.6480
 0.3940	 4.6540
 0.3950	 4.5380
 0.3960	 4.5660
 0.3970	 4.6770
 0.3980	 4.6740
 0.3990	 4.6480
 0.4000	 4.6690
 0.4010	 4.7230
 0.4020	 4.6890
 0.4030	 4.6950
 0.4040	 4.7270
 0.4050	 4.7470
 0.4060	 4.7520
 0.4070	 4.7390
 0.4080	 4.7310
 0.4090	 4.7640
 0.4100	 4.7690
 0.4110	 4.7590
 0.4120	 4.7530
 0.4130	 4.7570
 0.4140	 4.7940
 0.4150	 4.8240
 0.4160	 4.8060
 0.4170	 4.8020
 0.4180	 4.7760
 0.4190	 4.7490
 0.4200	 4.7890
 0.4210	 4.7730
 0.4220	 4.7580
 0.4230	 4.7860
 0.4240	 4.7740
 0.4250	 4.7700
 0.4260	 4.7780
 0.4270	 4.7810
 0.4280	 4.7880
 0.4290	 4.7730
 0.4300	 4.7420
 0.4310	 4.7510
 0.4320	 4.7600
 0.4330	 4.7700
 0.4340	 4.7840
 0.4350	 4.7720
 0.4360	 4.7710
 0.4370	 4.7790
 0.4380	 4.7670
 0.4390	 4.7490
 0.4400	 4.7330
 0.4410	 4.7180
 0.4420	 4.6790
 0.4430	 4.6830
 0.4440	 4.7090
 0.4450	 4.7040
 0.4460	 4.7090
 0.4470	 4.7090
 0.4480	 4.7030
 0.4490	 4.7100
 0.4500	 4.7210
 0.4510	 4.7210
 0.4520	 4.7050
 0.4530	 4.7200
 0.4540	 4.7310
 0.4550	 4.7260
 0.4560	 4.7170
 0.4570	 4.7240
 0.4580	 4.7350
 0.4590	 4.7410
 0.4600	 4.7380
 0.4610	 4.7250
 0.4620	 4.7080
 0.4630	 4.6960
 0.4640	 4.7020
 0.4650	 4.7080
 0.4660	 4.7020
 0.4670	 4.6830
 0.4680	 4.6900
 0.4690	 4.6940
 0.4700	 4.6720
 0.4710	 4.6740
 0.4720	 4.6610
 0.4730	 4.6500
 0.4740	 4.6780
 0.4750	 4.6780
 0.4760	 4.6740
 0.4770	 4.6820
 0.4780	 4.6890
 0.4790	 4.6800
 0.4800	 4.6700
 0.4810	 4.6730
 0.4820	 4.6480
 0.4830	 4.6490
 0.4840	 4.6790
 0.4850	 4.6910
 0.4860	 4.7030
 0.4870	 4.7090
 0.4880	 4.7070
 0.4890	 4.7060
 0.4900	 4.7150
 0.4910	 4.7320
 0.4920	 4.7530
 0.4930	 4.7770
 0.4940	 4.7960
 0.4950	 4.8140
 0.4960	 4.8410
 0.4970	 4.8830
 0.4980	 4.9240
 0.4990	 4.9560
 0.5000	 5.0200
 0.5010	 5.0800
 0.5020	 5.1340
 0.5030	 5.2100
 0.5040	 5.3050
 0.5050	 5.4150
 0.5060	 5.5360
 0.5070	 5.6770
 0.5080	 5.8220
 0.5090	 5.9750
 0.5100	 6.1490
 0.5110	 6.3510
 0.5120	 6.5740
 0.5130	 6.8120
 0.5140	 7.0620
 0.5150	 7.3320
 0.5160	 7.6200
 0.5170	 7.9190
 0.5180	 8.2370
 0.5190	 8.5570
 0.5200	 8.8770
 0.5210	 9.2060
 0.5220	 9.5240
 0.5230	 9.8300
 0.5240	10.1240
 0.5250	10.4080
 0.5260	10.6750
 0.5270	10.9270
 0.5280	11.1640
 0.5290	11.3640
 0.5300	11.5420
 0.5310	11.7100
 0.5320	11.8660
 0.5330	12.0010
 0.5340	12.1130
 0.5350	12.2050
 0.5360	12.2970
 0.5370	12.3660
 0.5380	12.4180
 0.5390	12.4800
 0.5400	12.5290
 0.5410	12.5760
 0.5420	12.6290
 0.5430	12.6800
 0.5440	12.7320
 0.5450	12.7800
 0.5460	12.8140
 0.5470	12.8150
 0.5480	12.8020
 0.5490	12.7950
 0.5500	12.8090
 0.5510	12.8170
 0.5520	12.8080
 0.5530	12.7750
 0.5540	12.7320
 0.5550	12.6750
 0.5560	12.6020
 0.5570	12.5180
 0.5580	12.4190
 0.5590	12.3030
 0.5600	12.1730
 0.5610	12.0330
 0.5620	11.8840
 0.5630	11.7220
 0.5640	11.5440
 0.5650	11.3630
 0.5660	11.1750
 0.5670	10.9770
 0.5680	10.7760
 0.5690	10.5740
 0.5700	10.3710
 0.5710	10.1690
 0.5720	 9.9740
 0.5730	 9.7930
 0.5740	 9.6240
 0.5750	 9.4620
 0.5760	 9.3200
 0.5770	 9.1880
 0.5780	 9.0590
 0.5790	 8.9440
 0.5800	 8.8320
 0.5810	 8.7210
 0.5820	 8.6090
 0.5830	 8.5030
 0.5840	 8.4070
 0.5850	 8.3180
 0.5860	 8.2310
 0.5870	 8.1530
 0.5880	 8.0780
 0.5890	 8.0020
 0.5900	 7.9410
 0.5910	 7.8890
 0.5920	 7.8400
 0.5930	 7.7880
 0.5940	 7.7530
 0.5950	 7.7200
 0.5960	 7.6810
 0.5970	 7.6420
 0.5980	 7.6040
 0.5990	 7.5700
 0.6000	 7.5400
 0.6010	 7.4950
 0.6020	 7.4480
 0.6030	 7.4030
 0.6040	 7.3540
 0.6050	 7.3020
 0.6060	 7.2440
 0.6070	 7.1820
 0.6080	 7.1210
 0.6090	 7.0570
 0.6100	 6.9930
 0.6110	 6.9340
 0.6120	 6.8570
 0.6130	 6.7750
 0.6140	 6.6990
 0.6150	 6.6310
 0.6160	 6.5580
 0.6170	 6.4880
 0.6180	 6.4290
 0.6190	 6.3770
 0.6200	 6.3310
 0.6210	 6.2910
 0.6220	 6.2550
 0.6230	 6.2210
 0.6240	 6.1950
 0.6250	 6.1770
 0.6260	 6.1550
 0.6270	 6.1400
 0.6280	 6.1300
 0.6290	 6.1190
 0.6300	 6.1060
 0.6310	 6.0920
 0.6320	 6.0720
 0.6330	 6.0450
 0.6340	 6.0160
 0.6350	 5.9780
 0.6360	 5.9250
 0.6370	 5.8680
 0.6380	 5.7990
 0.6390	 5.7230
 0.6400	 5.6510
 0.6410	 5.5770
 0.6420	 5.4950
 0.6430	 5.4100
 0.6440	 5.3400
 0.6450	 5.2700
 0.6460	 5.2060
 0.6470	 5.1560
 0.6480	 5.1070
 0.6490	 5.0640
 0.6500	 5.0270
 0.6510	 4.9990
 0.6520	 4.9860
 0.6530	 4.9750
 0.6540	 4.9570
 0.6550	 4.9390
 0.6560	 4.9200
 0.6570	 4.9000
 0.6580	 4.8790
 0.6590	 4.8530
 0.6600	 4.8250
 0.6610	 4.8010
 0.6620	 4.7810
 0.6630	 4.7640
 0.6640	 4.7490
 0.6650	 4.7390
 0.6660	 4.7350
 0.6670	 4.7360
 0.6680	 4.7410
 0.6690	 4.7520
 0.6700	 4.7630
 0.6710	 4.7820
 0.6720	 4.8080
 0.6730	 4.8290
 0.6740	 4.8570
 0.6750	 4.8920
 0.6760	 4.9310
 0.6770	 4.9650
 0.6780	 5.0080
 0.6790	 5.0610
 0.6800	 5.1140
 0.6810	 5.1740
 0.6820	 5.2340
 0.6830	 5.2940
 0.6840	 5.3650
 0.6850	 5.4530
 0.6860	 5.5520
 0.6870	 5.6600
 0.6880	 5.7970
 0.6890	 5.9770
 0.6900	 6.2110
 0.6910	 6.5060
 0.6920	 6.8740
 0.6930	 7.3230
 0.6940	 7.8600
 0.6950	 8.4920
 0.6960	 9.2070
 0.6970	 9.9960
 0.6980	10.8480
 0.6990	11.7680
 0.7000	12.7330
 0.7010	13.7270
 0.7020	14.7400
 0.7030	15.7580
 0.7040	16.7720
 0.7050	17.7740
 0.7060	18.7610
 0.7070	19.7380
 0.7080	20.6960
 0.7090	21.6260
 0.7100	22.5340
 0.7110	23.4260
 0.7120	24.3010
 0.7130	25.1500
 0.7140	25.9720
 0.7150	26.7730
 0.7160	27.5550
 0.7170	28.3050
 0.7180	29.0390
 0.7190	29.7510
 0.7200	30.4290
 0.7210	31.0830
 0.7220	31.7190
 0.7230	32.3270
 0.7240	32.8900
 0.7250	33.4330
 0.7260	33.9550
 0.7270	34.4540
 0.7280	34.9360
 0.7290	35.3640
 0.7300	35.7620
 0.7310	36.1670
 0.7320	36.5340
 0.7330	36.8710
 0.7340	37.1900
 0.7350	37.4950
 0.7360	37.7730
 0.7370	38.0250
 0.7380	38.2580
 0.7390	38.4860
 0.7400	38.6940
 0.7410	38.8840
 0.7420	39.0600
 0.7430	39.2110
 0.7440	39.3480
 0.7450	39.4730
 0.7460	39.5820
 0.7470	39.6890
 0.7480	39.7830
 0.7490	39.8560
 0.7500	39.9230
 0.7510	39.9860
 0.7520	40.0430
 0.7530	40.0920
 0.7540	40.1280
 0.7550	40.1610
 0.7560	40.1960
 0.7570	40.2310
 0.7580	40.2490
 0.7590	40.2560
 0.7600	40.2670
 0.7610	40.2980
 0.7620	40.3120
 0.7630	40.3120
 0.7640	40.3150
 0.7650	40.3260
 0.7660	40.3310
 0.7670	40.3300
 0.7680	40.3320
 0.7690	40.3240
 0.7700	40.3180
 0.7710	40.3220
 0.7720	40.3280
 0.7730	40.3250
 0.7740	40.3240
 0.7750	40.3300
 0.7760	40.3150
 0.7770	40.3090
 0.7780	40.3140
 0.7790	40.3180
 0.7800	40.3130
 0.7810	40.3180
 0.7820	40.3270
 0.7830	40.3130
 0.7840	40.3180
 0.7850	40.3260
 0.7860	40.3260
 0.7870	40.3260
 0.7880	40.3260
 0.7890	40.3240
 0.7900	40.3220
 0.7910	40.3320
 0.7920	40.3320
 0.7930	40.3290
 0.7940	40.3460
 0.7950	40.3430
 0.7960	40.3350
 0.7970	40.3310
 0.7980	40.3270
 0.7990	40.3280
 0.8000	40.3270
 0.8010	40.3210
 0.8020	40.3390
 0.8030	40.3310
 0.8040	40.3090
 0.8050	40.3060
 0.8060	40.3130
 0.8070	40.3040
 0.8080	40.2910
 0.8090	40.3130
 0.8100	40.3120
 0.8110	40.3050
 0.8120	40.3020
 0.8130	40.2790
 0.8140	40.2720
 0.8150	40.2750
 0.8160	40.2720
 0.8170	40.2480
 0.8180	40.2410
 0.8190	40.2470
 0.8200	40.2400
 0.8210	40.2270
 0.8220	40.2260
 0.8230	40.2330
 0.8240	40.2250
 0.8250	40.2120
 0.8260	40.2000
 0.8270	40.1930
 0.8280	40.1910
 0.8290	40.1870
 0.8300	40.1730
 0.8310	40.1520
 0.8320	40.1540
 0.8330	40.1540
 0.8340	40.1450
 0.8350	40.1300
 0.8360	40.1410
 0.8370	40.1420
 0.8380	40.1300
 0.8390	40.1290
 0.8400	40.1240
 0.8410	40.1210
 0.8420	40.1210
 0.8430	40.1200
 0.8440	40.1190
 0.8450	40.1200
 0.8460	40.1190
 0.8470	40.1050
 0.8480	40.0910
 0.8490	40.0840
 0.8500	40.0870
 0.8510	40.1080
 0.8520	40.1090
 0.8530	40.0980
 0.8540	40.1030
 0.8550	40.1000
 0.8560	40.0920
 0.8570	40.0870
 0.8580	40.0920
 0.8590	40.1070
 0.8600	40.1090
 0.8610	40.0960
 0.8620	40.0950
 0.8630	40.1080
 0.8640	40.1150
 0.8650	40.1040
 0.8660	40.1060
 0.8670	40.1110
 0.8680	40.1150
 0.8690	40.1170
 0.8700	40.1120
 0.8710	40.1170
 0.8720	40.1240
 0.8730	40.1160
 0.8740	40.1310
 0.8750	40.1470
 0.8760	40.1520
 0.8770	40.1530
 0.8780	40.1540
 0.8790	40.1550
 0.8800	40.1530
 0.8810	40.1380
 0.8820	40.1630
 0.8830	40.1840
 0.8840	40.1690
 0.8850	40.1680
 0.8860	40.1730
 0.8870	40.1850
 0.8880	40.2020
 0.8890	40.2010
 0.8900	40.1950
 0.8910	40.1880
 0.8920	40.1850
 0.8930	40.2060
 0.8940	40.2100
 0.8950	40.2030
 0.8960	40.2190
 0.8970	40.2210
 0.8980	40.2140
 0.8990	40.2110
 0.9000	40.2260
 0.9010	40.2370
 0.9020	40.2440
 0.9030	40.2520
 0.9040	40.2630
 0.9050	40.2670
 0.9060	40.2760
 0.9070	40.2880
 0.9080	40.2830
 0.9090	40.2760
 0.9100	40.2740
 0.9110	40.2790
 0.9120	40.2940
 0.9130	40.2900
 0.9140	40.2790
 0.9150	40.2830
 0.9160	40.2950
 0.9170	40.2960
 0.9180	40.2880
 0.9190	40.2820
 0.9200	40.3040
 0.9210	40.3130
 0.9220	40.3080
 0.9230	40.3070
 0.9240	40.3100
 0.9250	40.3040
 0.9260	40.2970
 0.9270	40.3070
 0.9280	40.2950
 0.9290	40.2880
 0.9300	40.2950
 0.9310	40.2960
 0.9320	40.2740
 0.9330	40.2640
 0.9340	40.2660
 0.9350	40.2420
 0.9360	40.2480
 0.9370	40.2650
 0.9380	40.2650
 0.9390	40.2350
 0.9400	40.2070
 0.9410	40.2040
 0.9420	40.2170
 0.9430	40.1890
 0.9440	40.1650
 0.9450	40.1520
 0.9460	40.1480
 0.9470	40.1420
 0.9480	40.1460
 0.9490	40.1440
 0.9500	40.1180
 0.9510	40.0610
 0.9520	40.0140
 0.9530	40.0020
 0.9540	40.0190
 0.9550	40.0010
 0.9560	39.9860
 0.9570	39.9710
 0.9580	39.9460
 0.9590	39.9290
 0.9600	39.9170
 0.9610	39.9000
 0.9620	39.8740
 0.9630	39.8430
 0.9640	39.8430
 0.9650	39.8520
 0.9660	39.8340
 0.9670	39.8150
 0.9680	39.7970
 0.9690	39.7900
 0.9700	39.8060
 0.9710	39.8400
 0.9720	39.8410
 0.9730	39.8060
 0.9740	39.7660
 0.9750	39.7760
 0.9760	39.7600
 0.9770	39.7410
 0.9780	39.7710
 0.9790	39.7860
 0.9800	39.7690
 0.9810	39.7530
 0.9820	39.7750
 0.9830	39.7910
 0.9840	39.7910
 0.9850	39.7860
 0.9860	39.7910
 0.9870	39.7770
 0.9880	39.8030
 0.9890	39.8160
 0.9900	39.7550
 0.9910	39.7590
 0.9920	39.7890
 0.9930	39.8200
 0.9940	39.8500
 0.9950	39.8800
 0.9960	39.9110
 0.9970	39.9410
 0.9980	39.9710
 0.9990	40.0020
 1.0000	40.0320
 1.0010	40.0620
 1.0020	40.0930
 1.0030	40.1230
 1.0040	40.1530
 1.0050	40.1840
 1.0060	40.2140
 1.0070	40.2440
 1.0080	40.2750
 1.0090	40.3050
 1.0100	40.3050
 1.0110	40.2860
 1.0120	40.2880
 1.0130	40.3020
 1.0140	40.3080
 1.0150	40.3200
 1.0160	40.3350
 1.0170	40.3450
 1.0180	40.3450
 1.0190	40.3500
 1.0200	40.3530
 1.0210	40.3470
 1.0220	40.3500
 1.0230	40.3500
 1.0240	40.3520
 1.0250	40.3530
 1.0260	40.3490
 1.0270	40.3510
 1.0280	40.3570
 1.0290	40.3620
 1.0300	40.3710
 1.0310	40.3730
 1.0320	40.3730
 1.0330	40.3690
 1.0340	40.3700
 1.0350	40.3690
 1.0360	40.3760
 1.0370	40.3850
 1.0380	40.3880
 1.0390	40.3850
 1.0400	40.3880
 1.0410	40.3920
 1.0420	40.3950
 1.0430	40.4060
 1.0440	40.4060
 1.0450	40.3940
 1.0460	40.3900
 1.0470	40.3840
 1.0480	40.3820
 1.0490	40.3840
 1.0500	40.3890
 1.0510	40.3990
 1.0520	40.4060
 1.0530	40.4090
 1.0540	40.4130
 1.0550	40.4130
 1.0560	40.4060
 1.0570	40.4030
 1.0580	40.4010
 1.0590	40.4020
 1.0600	40.4040
 1.0610	40.4050
 1.0620	40.4090
 1.0630	40.4110
 1.0640	40.4070
 1.0650	40.4090
 1.0660	40.4240
 1.0670	40.4270
 1.0680	40.4260
 1.0690	40.4230
 1.0700	40.4220
 1.0710	40.4130
 1.0720	40.4100
 1.0730	40.4150
 1.0740	40.4110
 1.0750	40.3980
 1.0760	40.3940
 1.0770	40.3920
 1.0780	40.3870
 1.0790	40.3840
 1.0800	40.3820
 1.0810	40.3780
 1.0820	40.3770
 1.0830	40.3850
 1.0840	40.3830
 1.0850	40.3690
 1.0860	40.3640
 1.0870	40.3610
 1.0880	40.3560
 1.0890	40.3530
 1.0900	40.3580
 1.0910	40.3540
 1.0920	40.3390
 1.0930	40.3360
 1.0940	40.3390
 1.0950	40.3350
 1.0960	40.3320
 1.0970	40.3270
 1.0980	40.3110
 1.0990	40.3050
 1.1000	40.3080
 1.1010	40.3060
 1.1020	40.3050
 1.1030	40.3050
 1.1040	40.2970
 1.1050	40.2890
 1.1060	40.2810
 1.1070	40.2730
 1.1080	40.2640
 1.1090	40.2550
 1.1100	40.2470
 1.1110	40.2380
 1.1120	40.2310
 1.1130	40.2300
 1.1140	40.2240
 1.1150	40.2180
 1.1160	40.2120
 1.1170	40.2030
 1.1180	40.1940
 1.1190	40.1850
 1.1200	40.1750
 1.1210	40.1620
 1.1220	40.1530
 1.1230	40.1430
 1.1240	40.1290
 1.1250	40.1150
 1.1260	40.1020
 1.1270	40.0830
 1.1280	40.0640
 1.1290	40.0410
 1.1300	40.0140
 1.1310	39.9850
 1.1320	39.9540
 1.1330	39.9230
 1.1340	39.8920
 1.1350	39.8580
 1.1360	39.8240
 1.1370	39.7850
 1.1380	39.7420
 1.1390	39.6980
 1.1400	39.6490
 1.1410	39.6000
 1.1420	39.5550
 1.1430	39.5090
 1.1440	39.4650
 1.1450	39.4260
 1.1460	39.3830
 1.1470	39.3400
 1.1480	39.2980
 1.1490	39.2510
 1.1500	39.2150
 1.1510	39.1840
 1.1520	39.1510
 1.1530	39.1210
 1.1540	39.0950
 1.1550	39.0690
 1.1560	39.0450
 1.1570	39.0300
 1.1580	39.0210
 1.1590	39.0070
 1.1600	38.9970
 1.1610	38.9870
 1.1620	38.9760
 1.1630	38.9690
 1.1640	38.9670
 1.1650	38.9620
 1.1660	38.9580
 1.1670	38.9530
 1.1680	38.9450
 1.1690	38.9420
 1.1700	38.9420
 1.1710	38.9400
 1.1720	38.9420
 1.1730	38.9400
 1.1740	38.9380
 1.1750	38.9330
 1.1760	38.9290
 1.1770	38.9250
 1.1780	38.9210
 1.1790	38.9180
 1.1800	38.9160
 1.1810	38.9130
 1.1820	38.9120
 1.1830	38.9070
 1.1840	38.9030
 1.1850	38.8990
 1.1860	38.8920
 1.1870	38.8920
 1.1880	38.8890
 1.1890	38.8830
 1.1900	38.8810
 1.1910	38.8820
 1.1920	38.8820
 1.1930	38.8840
 1.1940	38.8840
 1.1950	38.8830
 1.1960	38.8770
 1.1970	38.8730
 1.1980	38.8710
 1.1990	38.8680
 1.2000	38.8720
 1.2010	38.8770
 1.2020	38.8780
 1.2030	38.8800
 1.2040	38.8850
 1.2050	38.8870
 1.2060	38.8890
 1.2070	38.8910
 1.2080	38.8900
 1.2090	38.8890
 1.2100	38.8900
 1.2110	38.8910
 1.2120	38.8940
 1.2130	38.8970
 1.2140	38.9010
 1.2150	38.9060
 1.2160	38.9120
 1.2170	38.9190
 1.2180	38.9250
 1.2190	38.9340
 1.2200	38.9440
 1.2210	38.9510
 1.2220	38.9570
 1.2230	38.9590
 1.2240	38.9620
 1.2250	38.9640
 1.2260	38.9660
 1.2270	38.9680
 1.2280	38.9670
 1.2290	38.9660
 1.2300	38.9650
 1.2310	38.9660
 1.2320	38.9710
 1.2330	38.9710
 1.2340	38.9730
 1.2350	38.9750
 1.2360	38.9770
 1.2370	38.9760
 1.2380	38.9830
 1.2390	38.9890
 1.2400	38.9930
 1.2410	38.9970
 1.2420	38.9960
 1.2430	38.9960
 1.2440	38.9970
 1.2450	38.9980
 1.2460	39.0000
 1.2470	39.0010
 1.2480	39.0000
 1.2490	38.9990
 1.2500	38.9950
 1.2510	38.9930
 1.2520	38.9930
 1.2530	38.9940
 1.2540	38.9950
 1.2550	38.9990
 1.2560	38.9990
 1.2570	38.9980
 1.2580	38.9970
 1.2590	38.9960
 1.2600	38.9940
 1.2610	38.9940
 1.2620	38.9960
 1.2630	38.9960
 1.2640	38.9940
 1.2650	38.9910
 1.2660	38.9870
 1.2670	38.9860
 1.2680	38.9810
 1.2690	38.9750
 1.2700	38.9660
 1.2710	38.9570
 1.2720	38.9520
 1.2730	38.9470
 1.2740	38.9400
 1.2750	38.9340
 1.2760	38.9290
 1.2770	38.9230
 1.2780	38.9180
 1.2790	38.9120
 1.2800	38.9040
 1.2810	38.8970
 1.2820	38.8860
 1.2830	38.8730
 1.2840	38.8590
 1.2850	38.8450
 1.2860	38.8330
 1.2870	38.8210
 1.2880	38.8100
 1.2890	38.7990
 1.2900	38.7850
 1.2910	38.7700
 1.2920	38.7570
 1.2930	38.7460
 1.2940	38.7380
 1.2950	38.7290
 1.2960	38.7170
 1.2970	38.7030
 1.2980	38.6820
 1.2990	38.6580
 1.3000	38.6360
 1.3010	38.6140
 1.3020	38.5970
 1.3030	38.5810
 1.3040	38.5550
 1.3050	38.5290
 1.3060	38.5030
 1.3070	38.4710
 1.3080	38.4410
 1.3090	38.4130
 1.3100	38.3840
 1.3110	38.3570
 1.3120	38.3280
 1.3130	38.2950
 1.3140	38.2590
 1.3150	38.2180
 1.3160	38.1810
 1.3170	38.1440
 1.3180	38.1080
 1.3190	38.0670
 1.3200	38.0260
 1.3210	37.9820
 1.3220	37.9360
 1.3230	37.8900
 1.3240	37.8420
 1.3250	37.7940
 1.3260	37.7460
 1.3270	37.7000
 1.3280	37.6540
 1.3290	37.6050
 1.3300	37.5520
 1.3310	37.4940
 1.3320	37.4380
 1.3330	37.3850
 1.3340	37.3310
 1.3350	37.2800
 1.3360	37.2270
 1.3370	37.1730
 1.3380	37.1180
 1.3390	37.0620
 1.3400	37.0100
 1.3410	36.9610
 1.3420	36.9110
 1.3430	36.8590
 1.3440	36.8080
 1.3450	36.7580
 1.3460	36.7060
 1.3470	36.6570
 1.3480	36.6110
 1.3490	36.5630
 1.3500	36.5120
 1.3510	36.4650
 1.3520	36.4180
 1.3530	36.3670
 1.3540	36.3180
 1.3550	36.2670
 1.3560	36.2120
 1.3570	36.1640
 1.3580	36.1160
 1.3590	36.0650
 1.3600	36.0130
 1.3610	35.9540
 1.3620	35.8890
 1.3630	35.8220
 1.3640	35.7510
 1.3650	35.6720
 1.3660	35.5910
 1.3670	35.5060
 1.3680	35.4130
 1.3690	35.3190
 1.3700	35.2160
 1.3710	35.1060
 1.3720	34.9910
 1.3730	34.8660
 1.3740	34.7330
 1.3750	34.5900
 1.3760	34.4330
 1.3770	34.2640
 1.3780	34.0780
 1.3790	33.8790
 1.3800	33.6680
 1.3810	33.4410
 1.3820	33.2010
 1.3830	32.9510
 1.3840	32.6850
 1.3850	32.4060
 1.3860	32.1150
 1.3870	31.8100
 1.3880	31.4960
 1.3890	31.1710
 1.3900	30.8350
 1.3910	30.4910
 1.3920	30.1430
 1.3930	29.7870
 1.3940	29.4280
 1.3950	29.0660
 1.3960	28.7040
 1.3970	28.3440
 1.3980	27.9880
 1.3990	27.6390
 1.4000	27.2980
 1.4010	26.9650
 1.4020	26.6400
 1.4030	26.3250
 1.4040	26.0250
 1.4050	25.7370
 1.4060	25.4650
 1.4070	25.2070
 1.4080	24.9600
 1.4090	24.7250
 1.4100	24.5050
 1.4110	24.3010
 1.4120	24.1140
 1.4130	23.9410
 1.4140	23.7810
 1.4150	23.6320
 1.4160	23.4960
 1.4170	23.3700
 1.4180	23.2560
 1.4190	23.1520
 1.4200	23.0540
 1.4210	22.9700
 1.4220	22.8950
 1.4230	22.8260
 1.4240	22.7680
 1.4250	22.7160
 1.4260	22.6670
 1.4270	22.6260
 1.4280	22.5930
 1.4290	22.5610
 1.4300	22.5330
 1.4310	22.5100
 1.4320	22.4890
 1.4330	22.4730
 1.4340	22.4620
 1.4350	22.4540
 1.4360	22.4510
 1.4370	22.4490
 1.4380	22.4520
 1.4390	22.4560
 1.4400	22.4620
 1.4410	22.4710
 1.4420	22.4810
 1.4430	22.4940
 1.4440	22.5070
 1.4450	22.5220
 1.4460	22.5390
 1.4470	22.5560
 1.4480	22.5760
 1.4490	22.5980
 1.4500	22.6190
 1.4510	22.6400
 1.4520	22.6620
 1.4530	22.6850
 1.4540	22.7110
 1.4550	22.7400
 1.4560	22.7700
 1.4570	22.8020
 1.4580	22.8370
 1.4590	22.8760
 1.4600	22.9210
 1.4610	22.9700
 1.4620	23.0210
 1.4630	23.0770
 1.4640	23.1370
 1.4650	23.2020
 1.4660	23.2740
 1.4670	23.3470
 1.4680	23.4250
 1.4690	23.5060
 1.4700	23.5880
 1.4710	23.6770
 1.4720	23.7670
 1.4730	23.8610
 1.4740	23.9600
 1.4750	24.0590
 1.4760	24.1630
 1.4770	24.2670
 1.4780	24.3710
 1.4790	24.4770
 1.4800	24.5790
 1.4810	24.6810
 1.4820	24.7870
 1.4830	24.8940
 1.4840	25.0030
 1.4850	25.1110
 1.4860	25.2160
 1.4870	25.3200
 1.4880	25.4240
 1.4890	25.5300
 1.4900	25.6350
 1.4910	25.7420
 1.4920	25.8480
 1.4930	25.9550
 1.4940	26.0600
 1.4950	26.1660
 1.4960	26.2730
 1.4970	26.3810
 1.4980	26.4870
 1.4990	26.5920
 1.5000	26.6950
 1.5010	26.7960
 1.5020	26.8980
 1.5030	27.0020
 1.5040	27.1030
 1.5050	27.2020
 1.5060	27.3010
 1.5070	27.3970
 1.5080	27.4920
 1.5090	27.5870
 1.5100	27.6830
 1.5110	27.7770
 1.5120	27.8720
 1.5130	27.9650
 1.5140	28.0560
 1.5150	28.1490
 1.5160	28.2400
 1.5170	28.3300
 1.5180	28.4210
 1.5190	28.5100
 1.5200	28.5980
 1.5210	28.6840
 1.5220	28.7700
 1.5230	28.8560
 1.5240	28.9430
 1.5250	29.0300
 1.5260	29.1150
 1.5270	29.1970
 1.5280	29.2750
 1.5290	29.3530
 1.5300	29.4320
 1.5310	29.5110
 1.5320	29.5920
 1.5330	29.6720
 1.5340	29.7490
 1.5350	29.8210
 1.5360	29.8910
 1.5370	29.9600
 1.5380	30.0280
 1.5390	30.0970
 1.5400	30.1680
 1.5410	30.2370
 1.5420	30.3060
 1.5430	30.3750
 1.5440	30.4420
 1.5450	30.5070
 1.5460	30.5720
 1.5470	30.6360
 1.5480	30.6960
 1.5490	30.7540
 1.5500	30.8120
 1.5510	30.8660
 1.5520	30.9220
 1.5530	30.9780
 1.5540	31.0330
 1.5550	31.0900
 1.5560	31.1430
 1.5570	31.2000
 1.5580	31.2550
 1.5590	31.3070
 1.5600	31.3620
 1.5610	31.4170
 1.5620	31.4680
 1.5630	31.5180
 1.5640	31.5680
 1.5650	31.6150
 1.5660	31.6610
 1.5670	31.7060
 1.5680	31.7490
 1.5690	31.7910
 1.5700	31.8310
 1.5710	31.8710
 1.5720	31.9100
 1.5730	31.9450
 1.5740	31.9830
 1.5750	32.0260
 1.5760	32.0670
 1.5770	32.1040
 1.5780	32.1410
 1.5790	32.1750
 1.5800	32.2100
 1.5810	32.2500
 1.5820	32.2880
 1.5830	32.3250
 1.5840	32.3590
 1.5850	32.3900
 1.5860	32.4270
 1.5870	32.4660
 1.5880	32.5050
 1.5890	32.5410
 1.5900	32.5700
 1.5910	32.5940
 1.5920	32.6150
 1.5930	32.6400
 1.5940	32.6680
 1.5950	32.6970
 1.5960	32.7280
 1.5970	32.7590
 1.5980	32.7870
 1.5990	32.8150
 1.6000	32.8480
 1.6010	32.8760
 1.6020	32.9060
 1.6030	32.9380
 1.6040	32.9630
 1.6050	32.9910
 1.6060	33.0180
 1.6070	33.0420
 1.6080	33.0680
 1.6090	33.0890
 1.6100	33.1050
 1.6110	33.1250
 1.6120	33.1470
 1.6130	33.1680
 1.6140	33.1900
 1.6150	33.2100
 1.6160	33.2250
 1.6170	33.2390
 1.6180	33.2580
 1.6190	33.2760
 1.6200	33.2930
 1.6210	33.3130
 1.6220	33.3320
 1.6230	33.3460
 1.6240	33.3640
 1.6250	33.3780
 1.6260	33.3920
 1.6270	33.4070
 1.6280	33.4200
 1.6290	33.4330
 1.6300	33.4430
 1.6310	33.4560
 1.6320	33.4670
 1.6330	33.4810
 1.6340	33.5010
 1.6350	33.5130
 1.6360	33.5220
 1.6370	33.5330
 1.6380	33.5370
 1.6390	33.5470
 1.6400	33.5630
 1.6410	33.5720
 1.6420	33.5790
 1.6430	33.5890
 1.6440	33.5960
 1.6450	33.6040
 1.6460	33.6120
 1.6470	33.6170
 1.6480	33.6200
 1.6490	33.6270
 1.6500	33.6370
 1.6510	33.6410
 1.6520	33.6430
 1.6530	33.6430
 1.6540	33.6400
 1.6550	33.6370
 1.6560	33.6350
 1.6570	33.6350
 1.6580	33.6350
 1.6590	33.6330
 1.6600	33.6280
 1.6610	33.6240
 1.6620	33.6200
 1.6630	33.6190
 1.6640	33.6200
 1.6650	33.6180
 1.6660	33.6140
 1.6670	33.6100
 1.6680	33.6060
 1.6690	33.6080
 1.6700	33.6110
 1.6710	33.6130
 1.6720	33.6160
 1.6730	33.6130
 1.6740	33.6070
 1.6750	33.6010
 1.6760	33.5920
 1.6770	33.5870
 1.6780	33.5840
 1.6790	33.5770
 1.6800	33.5670
 1.6810	33.5510
 1.6820	33.5340
 1.6830	33.5180
 1.6840	33.5050
 1.6850	33.4920
 1.6860	33.4770
 1.6870	33.4620
 1.6880	33.4460
 1.6890	33.4370
 1.6900	33.4230
 1.6910	33.4080
 1.6920	33.3940
 1.6930	33.3750
 1.6940	33.3600
 1.6950	33.3480
 1.6960	33.3320
 1.6970	33.3140
 1.6980	33.2940
 1.6990	33.2720
 1.7000	33.2510
 1.7010	33.2280
 1.7020	33.2100
 1.7030	33.1940
 1.7040	33.1750
 1.7050	33.1590
 1.7060	33.1380
 1.7070	33.1090
 1.7080	33.0870
 1.7090	33.0650
 1.7100	33.0450
 1.7110	33.0310
 1.7120	33.0080
 1.7130	32.9830
 1.7140	32.9530
 1.7150	32.9220
 1.7160	32.8950
 1.7170	32.8700
 1.7180	32.8450
 1.7190	32.8200
 1.7200	32.7910
 1.7210	32.7600
 1.7220	32.7310
 1.7230	32.7030
 1.7240	32.6780
 1.7250	32.6540
 1.7260	32.6340
 1.7270	32.6140
 1.7280	32.5900
 1.7290	32.5650
 1.7300	32.5300
 1.7310	32.4990
 1.7320	32.4680
 1.7330	32.4380
 1.7340	32.4100
 1.7350	32.3800
 1.7360	32.3510
 1.7370	32.3190
 1.7380	32.2850
 1.7390	32.2510
 1.7400	32.2140
 1.7410	32.1760
 1.7420	32.1360
 1.7430	32.0970
 1.7440	32.0570
 1.7450	32.0140
 1.7460	31.9690
 1.7470	31.9250
 1.7480	31.8790
 1.7490	31.8340
 1.7500	31.7890
 1.7510	31.7480
 1.7520	31.7080
 1.7530	31.6660
 1.7540	31.6260
 1.7550	31.5830
 1.7560	31.5360
 1.7570	31.4920
 1.7580	31.4480
 1.7590	31.4000
 1.7600	31.3580
 1.7610	31.3250
 1.7620	31.2870
 1.7630	31.2480
 1.7640	31.2100
 1.7650	31.1670
 1.7660	31.1280
 1.7670	31.0960
 1.7680	31.0600
 1.7690	31.0200
 1.7700	30.9830
 1.7710	30.9450
 1.7720	30.9090
 1.7730	30.8760
 1.7740	30.8460
 1.7750	30.8170
 1.7760	30.7900
 1.7770	30.7660
 1.7780	30.7410
 1.7790	30.7150
 1.7800	30.6890
 1.7810	30.6620
 1.7820	30.6390
 1.7830	30.6160
 1.7840	30.5990
 1.7850	30.5880
 1.7860	30.5720
 1.7870	30.5570
 1.7880	30.5380
 1.7890	30.5230
 1.7900	30.5120
 1.7910	30.4990
 1.7920	30.4910
 1.7930	30.4780
 1.7940	30.4580
 1.7950	30.4440
 1.7960	30.4290
 1.7970	30.4170
 1.7980	30.4080
 1.7990	30.4030
 1.8000	30.4030
 1.8010	30.4000
 1.8020	30.3990
 1.8030	30.3970
 1.8040	30.3900
 1.8050	30.3880
 1.8060	30.3890
 1.8070	30.3870
 1.8080	30.3860
 1.8090	30.3800
 1.8100	30.3690
 1.8110	30.3630
 1.8120	30.3570
 1.8130	30.3540
 1.8140	30.3520
 1.8150	30.3470
 1.8160	30.3350
 1.8170	30.3240
 1.8180	30.3180
 1.8190	30.3080
 1.8200	30.2980
 1.8210	30.2890
 1.8220	30.2780
 1.8230	30.2660
 1.8240	30.2560
 1.8250	30.2460
 1.8260	30.2320
 1.8270	30.1950
 1.8280	30.1570
 1.8290	30.1200
 1.8300	30.0820
 1.8310	30.0450
 1.8320	30.0070
 1.8330	29.9700
 1.8340	29.9320
 1.8350	29.9320
 1.8360	29.8930
 1.8370	29.8500
 1.8380	29.8000
 1.8390	29.7540
 1.8400	29.7180
 1.8410	29.6640
 1.8420	29.6030
 1.8430	29.5380
 1.8440	29.4610
 1.8450	29.3800
 1.8460	29.3010
 1.8470	29.2150
 1.8480	29.1250
 1.8490	29.0190
 1.8500	28.9060
 1.8510	28.7810
 1.8520	28.6550
 1.8530	28.5210
 1.8540	28.3820
 1.8550	28.2340
 1.8560	28.0690
 1.8570	27.8910
 1.8580	27.7040
 1.8590	27.5050
 1.8600	27.2970
 1.8610	27.0710
 1.8620	26.8310
 1.8630	26.5800
 1.8640	26.3150
 1.8650	26.0310
 1.8660	25.7350
 1.8670	25.4140
 1.8680	25.0680
 1.8690	24.7070
 1.8700	24.3220
 1.8710	23.9140
 1.8720	23.4910
 1.8730	23.0510
 1.8740	22.5890
 1.8750	22.1170
 1.8760	21.6290
 1.8770	21.1320
 1.8780	20.6320
 1.8790	20.1220
 1.8800	19.6090
 1.8810	19.0930
 1.8820	18.5680
 1.8830	18.0300
 1.8840	17.4850
 1.8850	16.9390
 1.8860	16.4020
 1.8870	15.8730
 1.8880	15.3520
 1.8890	14.8450
 1.8900	14.3530
 1.8910	13.8780
 1.8920	13.4140
 1.8930	12.9760
 1.8940	12.5560
 1.8950	12.1600
 1.8960	11.7880
 1.8970	11.4330
 1.8980	11.1100
 1.8990	10.8060
 1.9000	10.5240
 1.9010	10.2710
 1.9020	10.0340
 1.9030	 9.8170
 1.9040	 9.6220
 1.9050	 9.4430
 1.9060	 9.2780
 1.9070	 9.1330
 1.9080	 9.0060
 1.9090	 8.8960
 1.9100	 8.7990
 1.9110	 8.7120
 1.9120	 8.6400
 1.9130	 8.5730
 1.9140	 8.5150
 1.9150	 8.4680
 1.9160	 8.4280
 1.9170	 8.3890
 1.9180	 8.3550
 1.9190	 8.3310
 1.9200	 8.3110
 1.9210	 8.3010
 1.9220	 8.2930
 1.9230	 8.2920
 1.9240	 8.2920
 1.9250	 8.2960
 1.9260	 8.2990
 1.9270	 8.3080
 1.9280	 8.3200
 1.9290	 8.3360
 1.9300	 8.3570
 1.9310	 8.3800
 1.9320	 8.4110
 1.9330	 8.4450
 1.9340	 8.4850
 1.9350	 8.5240
 1.9360	 8.5690
 1.9370	 8.6120
 1.9380	 8.6550
 1.9390	 8.6950
 1.9400	 8.7420
 1.9410	 8.7920
 1.9420	 8.8410
 1.9430	 8.8950
 1.9440	 8.9490
 1.9450	 9.0030
 1.9460	 9.0620
 1.9470	 9.1270
 1.9480	 9.1900
 1.9490	 9.2530
 1.9500	 9.3210
 1.9510	 9.3870
 1.9520	 9.4540
 1.9530	 9.5280
 1.9540	 9.6040
 1.9550	 9.6800
 1.9560	 9.7580
 1.9570	 9.8360
 1.9580	 9.9110
 1.9590	 9.9890
 1.9600	10.0660
 1.9610	10.1470
 1.9620	10.2300
 1.9630	10.3180
 1.9640	10.4110
 1.9650	10.5040
 1.9660	10.5980
 1.9670	10.6940
 1.9680	10.7820
 1.9690	10.8640
 1.9700	10.9490
 1.9710	11.0280
 1.9720	11.1150
 1.9730	11.2050
 1.9740	11.3020
 1.9750	11.4020
 1.9760	11.5030
 1.9770	11.5990
 1.9780	11.6950
 1.9790	11.7920
 1.9800	11.8870
 1.9810	11.9850
 1.9820	12.0880
 1.9830	12.1870
 1.9840	12.2850
 1.9850	12.3830
 1.9860	12.4770
 1.9870	12.5770
 1.9880	12.6830
 1.9890	12.7860
 1.9900	12.8900
 1.9910	12.9950
 1.9920	13.0980
 1.9930	13.1990
 1.9940	13.3010
 1.9950	13.4040
 1.9960	13.5050
 1.9970	13.6000
 1.9980	13.7010
 1.9990	13.8030
 2.0000	13.9070
 2.0010	14.0160
 2.0020	14.1220
 2.0030	14.2210
 2.0040	14.3210
 2.0050	14.4210
 2.0060	14.5170
 2.0070	14.6140
 2.0080	14.7140
 2.0090	14.8100
 2.0100	14.9020
 2.0110	14.9960
 2.0120	15.0930
 2.0130	15.1820
 2.0140	15.2770
 2.0150	15.3690
 2.0160	15.4610
 2.0170	15.5560
 2.0180	15.6470
 2.0190	15.7340
 2.0200	15.8250
 2.0210	15.9170
 2.0220	16.0070
 2.0230	16.1020
 2.0240	16.1920
 2.0250	16.2770
 2.0260	16.3630
 2.0270	16.4490
 2.0280	16.5270
 2.0290	16.6110
 2.0300	16.6970
 2.0310	16.7780
 2.0320	16.8600
 2.0330	16.9370
 2.0340	17.0050
 2.0350	17.0810
 2.0360	17.1600
 2.0370	17.2390
 2.0380	17.3240
 2.0390	17.4020
 2.0400	17.4750
 2.0410	17.5480
 2.0420	17.6160
 2.0430	17.6860
 2.0440	17.7570
 2.0450	17.8310
 2.0460	17.9000
 2.0470	17.9660
 2.0480	18.0350
 2.0490	18.1010
 2.0500	18.1720
 2.0510	18.2500
 2.0520	18.3230
 2.0530	18.3980
 2.0540	18.4690
 2.0550	18.5360
 2.0560	18.6020
 2.0570	18.6640
 2.0580	18.7260
 2.0590	18.7950
 2.0600	18.8710
 2.0610	18.9410
 2.0620	19.0160
 2.0630	19.0850
 2.0640	19.1480
 2.0650	19.2150
 2.0660	19.2830
 2.0670	19.3510
 2.0680	19.4170
 2.0690	19.4830
 2.0700	19.5490
 2.0710	19.6180
 2.0720	19.6890
 2.0730	19.7580
 2.0740	19.8270
 2.0750	19.8990
 2.0760	19.9660
 2.0770	20.0310
 2.0780	20.0970
 2.0790	20.1650
 2.0800	20.2290
 2.0810	20.2920
 2.0820	20.3550
 2.0830	20.4130
 2.0840	20.4740
 2.0850	20.5400
 2.0860	20.6010
 2.0870	20.6610
 2.0880	20.7180
 2.0890	20.7750
 2.0900	20.8270
 2.0910	20.8840
 2.0920	20.9460
 2.0930	20.9970
 2.0940	21.0430
 2.0950	21.0920
 2.0960	21.1320
 2.0970	21.1820
 2.0980	21.2440
 2.0990	21.2970
 2.1000	21.3480
 2.1010	21.3980
 2.1020	21.4440
 2.1030	21.4890
 2.1040	21.5280
 2.1050	21.5780
 2.1060	21.6290
 2.1070	21.6820
 2.1080	21.7350
 2.1090	21.7970
 2.1100	21.8470
 2.1110	21.8880
 2.1120	21.9350
 2.1130	21.9820
 2.1140	22.0290
 2.1150	22.0800
 2.1160	22.1260
 2.1170	22.1680
 2.1180	22.2110
 2.1190	22.2550
 2.1200	22.2960
 2.1210	22.3370
 2.1220	22.3740
 2.1230	22.4170
 2.1240	22.4610
 2.1250	22.5010
 2.1260	22.5430
 2.1270	22.5820
 2.1280	22.6180
 2.1290	22.6480
 2.1300	22.6720
 2.1310	22.6990
 2.1320	22.7160
 2.1330	22.7430
 2.1340	22.7850
 2.1350	22.8160
 2.1360	22.8470
 2.1370	22.8720
 2.1380	22.8880
 2.1390	22.9070
 2.1400	22.9250
 2.1410	22.9400
 2.1420	22.9560
 2.1430	22.9710
 2.1440	22.9870
 2.1450	23.0020
 2.1460	23.0180
 2.1470	23.0350
 2.1480	23.0480
 2.1490	23.0600
 2.1500	23.0730
 2.1510	23.0860
 2.1520	23.1010
 2.1530	23.1210
 2.1540	23.1370
 2.1550	23.1540
 2.1560	23.1670
 2.1570	23.1760
 2.1580	23.1850
 2.1590	23.1960
 2.1600	23.2020
 2.1610	23.2120
 2.1620	23.2200
 2.1630	23.2230
 2.1640	23.2230
 2.1650	23.2200
 2.1660	23.2090
 2.1670	23.2090
 2.1680	23.2130
 2.1690	23.2160
 2.1700	23.2270
 2.1710	23.2310
 2.1720	23.2280
 2.1730	23.2280
 2.1740	23.2310
 2.1750	23.2310
 2.1760	23.2290
 2.1770	23.2320
 2.1780	23.2320
 2.1790	23.2390
 2.1800	23.2600
 2.1810	23.2700
 2.1820	23.2720
 2.1830	23.2830
 2.1840	23.2910
 2.1850	23.2940
 2.1860	23.2980
 2.1870	23.3060
 2.1880	23.3120
 2.1890	23.3120
 2.1900	23.3180
 2.1910	23.3290
 2.1920	23.3390
 2.1930	23.3520
 2.1940	23.3600
 2.1950	23.3720
 2.1960	23.3740
 2.1970	23.3610
 2.1980	23.3560
 2.1990	23.3500
 2.2000	23.3450
 2.2010	23.3490
 2.2020	23.3480
 2.2030	23.3410
 2.2040	23.3360
 2.2050	23.3260
 2.2060	23.3180
 2.2070	23.3210
 2.2080	23.3330
 2.2090	23.3370
 2.2100	23.3510
 2.2110	23.3530
 2.2120	23.3430
 2.2130	23.3410
 2.2140	23.3430
 2.2150	23.3380
 2.2160	23.3300
 2.2170	23.3240
 2.2180	23.3140
 2.2190	23.3040
 2.2200	23.2990
 2.2210	23.2870
 2.2220	23.2650
 2.2230	23.2520
 2.2240	23.2380
 2.2250	23.2270
 2.2260	23.2340
 2.2270	23.2210
 2.2280	23.1890
 2.2290	23.1660
 2.2300	23.1350
 2.2310	23.1020
 2.2320	23.0860
 2.2330	23.0760
 2.2340	23.0550
 2.2350	23.0320
 2.2360	23.0080
 2.2370	22.9790
 2.2380	22.9540
 2.2390	22.9340
 2.2400	22.9050
 2.2410	22.8690
 2.2420	22.8350
 2.2430	22.7970
 2.2440	22.7610
 2.2450	22.7270
 2.2460	22.6910
 2.2470	22.6500
 2.2480	22.6100
 2.2490	22.5660
 2.2500	22.5290
 2.2510	22.4930
 2.2520	22.4600
 2.2530	22.4320
 2.2540	22.3990
 2.2550	22.3680
 2.2560	22.3280
 2.2570	22.2750
 2.2580	22.2310
 2.2590	22.1840
 2.2600	22.1400
 2.2610	22.1060
 2.2620	22.0690
 2.2630	22.0250
 2.2640	21.9900
 2.2650	21.9440
 2.2660	21.8890
 2.2670	21.8400
 2.2680	21.7870
 2.2690	21.7360
 2.2700	21.6890
 2.2710	21.6460
 2.2720	21.6010
 2.2730	21.5620
 2.2740	21.5330
 2.2750	21.5000
 2.2760	21.4750
 2.2770	21.4320
 2.2780	21.3790
 2.2790	21.3310
 2.2800	21.2700
 2.2810	21.2260
 2.2820	21.2000
 2.2830	21.1610
 2.2840	21.1240
 2.2850	21.0810
 2.2860	21.0280
 2.2870	20.9800
 2.2880	20.9280
 2.2890	20.8830
 2.2900	20.8430
 2.2910	20.8050
 2.2920	20.7800
 2.2930	20.7390
 2.2940	20.6950
 2.2950	20.6450
 2.2960	20.5740
 2.2970	20.5160
 2.2980	20.4660
 2.2990	20.4060
 2.3000	20.3570
 2.3010	20.3100
 2.3020	20.2630
 2.3030	20.2130
 2.3040	20.1620
 2.3050	20.1150
 2.3060	20.0580
 2.3070	20.0080
 2.3080	19.9710
 2.3090	19.9330
 2.3100	19.9010
 2.3110	19.8680
 2.3120	19.8320
 2.3130	19.7890
 2.3140	19.7510
 2.3150	19.7150
 2.3160	19.6790
 2.3170	19.6420
 2.3180	19.6040
 2.3190	19.5640
 2.3200	19.5260
 2.3210	19.4930
 2.3220	19.4510
 2.3230	19.4060
 2.3240	19.3590
 2.3250	19.3050
 2.3260	19.2510
 2.3270	19.1950
 2.3280	19.1460
 2.3290	19.0990
 2.3300	19.0480
 2.3310	18.9990
 2.3320	18.9470
 2.3330	18.8790
 2.3340	18.8270
 2.3350	18.7860
 2.3360	18.7410
 2.3370	18.7090
 2.3380	18.6590
 2.3390	18.5940
 2.3400	18.5330
 2.3410	18.4570
 2.3420	18.3970
 2.3430	18.3530
 2.3440	18.2990
 2.3450	18.2440
 2.3460	18.1900
 2.3470	18.1280
 2.3480	18.0740
 2.3490	18.0360
 2.3500	17.9870
 2.3510	17.9320
 2.3520	17.8820
 2.3530	17.8280
 2.3540	17.7770
 2.3550	17.7210
 2.3560	17.6650
 2.3570	17.6050
 2.3580	17.5380
 2.3590	17.4810
 2.3600	17.4310
 2.3610	17.3710
 2.3620	17.3260
 2.3630	17.2850
 2.3640	17.2230
 2.3650	17.1670
 2.3660	17.1020
 2.3670	17.0320
 2.3680	16.9820
 2.3690	16.9230
 2.3700	16.8670
 2.3710	16.8040
 2.3720	16.7330
 2.3730	16.6810
 2.3740	16.6190
 2.3750	16.5570
 2.3760	16.5000
 2.3770	16.4330
 2.3780	16.3870
 2.3790	16.3400
 2.3800	16.2810
 2.3810	16.2350
 2.3820	16.1560
 2.3830	16.0820
 2.3840	16.0380
 2.3850	15.9890
 2.3860	15.9570
 2.3870	15.8960
 2.3880	15.8110
 2.3890	15.7390
 2.3900	15.6480
 2.3910	15.5790
 2.3920	15.5480
 2.3930	15.4950
 2.3940	15.4470
 2.3950	15.4030
 2.3960	15.3460
 2.3970	15.2970
 2.3980	15.2300
 2.3990	15.1550
 2.4000	15.0780
 2.4010	15.0110
 2.4020	14.9660
 2.4030	14.9080
 2.4040	14.8470
 2.4050	14.7890
 2.4060	14.7050
 2.4070	14.6280
 2.4080	14.5630
 2.4090	14.4810
 2.4100	14.4150
 2.4110	14.3620
 2.4120	14.2900
 2.4130	14.2060
 2.4140	14.1110
 2.4150	14.0150
 2.4160	13.9500
 2.4170	13.8880
 2.4180	13.8470
 2.4190	13.8080
 2.4200	13.7460
 2.4210	13.7050
 2.4220	13.6290
 2.4230	13.5270
 2.4240	13.4400
 2.4250	13.3600
 2.4260	13.3010
 2.4270	13.2500
 2.4280	13.1990
 2.4290	13.1230
 2.4300	13.0480
 2.4310	12.9940
 2.4320	12.9280
 2.4330	12.8890
 2.4340	12.8250
 2.4350	12.7360
 2.4360	12.6920
 2.4370	12.5840
 2.4380	12.4780
 2.4390	12.4000
 2.4400	12.2810
 2.4410	12.2090
 2.4420	12.1480
 2.4430	12.0920
 2.4440	12.0520
 2.4450	11.9870
 2.4460	11.9220
 2.4470	11.8360
 2.4480	11.7360
 2.4490	11.6990
 2.4500	11.6670
 2.4510	11.6020
 2.4520	11.5660
 2.4530	11.4930
 2.4540	11.3950
 2.4550	11.3380
 2.4560	11.2840
 2.4570	11.2320
 2.4580	11.1580
 2.4590	11.0660
 2.4600	10.9750
 2.4610	10.8730
 2.4620	10.8080
 2.4630	10.7880
 2.4640	10.7480
 2.4650	10.7000
 2.4660	10.6560
 2.4670	10.5830
 2.4680	10.5410
 2.4690	10.4770
 2.4700	10.4030
 2.4710	10.3240
 2.4720	10.2460
 2.4730	10.1760
 2.4740	10.1030
 2.4750	10.0100
 2.4760	 9.9670
 2.4770	 9.9350
 2.4780	 9.9120
 2.4790	 9.9560
 2.4800	 9.9410
 2.4810	 9.8860
 2.4820	 9.8510
 2.4830	 9.8050
 2.4840	 9.7170
 2.4850	 9.6480
 2.4860	 9.5930
 2.4870	 9.5530
 2.4880	 9.5120
 2.4890	 9.4450
 2.4900	 9.3990
 2.4910	 9.3530
 2.4920	 9.3640
 2.4930	 9.4070
 2.4940	 9.3200
 2.4950	 9.2070
 2.4960	 9.1190
 2.4970	 8.9820
 2.4980	 8.9720
 2.4990	 9.1040
 2.5000	 9.1220
