Name: Tipuana tipu
Type: vegetation
Class: Tree
Genus: Tipuana
Species: tipu
Sample No.: JPL251
Owner: JPL
Wavelength Range: TIR
Origin: 34.12975; -118.11219; WGS84
Collection Date: 10/6/2016
Description: Samples were collected at the Huntington Garden in San Marino California as part of a JPL Subcontract studying HyTES imagery. Samples were taken to JPL and processed within 48 hours of collection. The same leaves were processed in the Nicolet and then measured using the ASD.
Measurement: Hemispherical reflectance
First Column: X
Second Column: Y
X Units: Wavelength (micrometer)
Y Units: Reflectance (percentage)
First X Value: 2.501
Last X Value: 15.387
Number of X Values: 1737
Additional Information: vegetation.tree.tipuana.tipu.tir.jpl251.jpl.nicolet.ancillary.txt

 2.5010	 4.2270
 2.5030	 4.1530
 2.5040	 4.1070
 2.5050	 4.1750
 2.5060	 4.1510
 2.5070	 4.0640
 2.5090	 4.1390
 2.5100	 4.1350
 2.5110	 4.1100
 2.5120	 4.0960
 2.5140	 4.1420
 2.5150	 4.1490
 2.5160	 4.1160
 2.5170	 4.0560
 2.5180	 4.0460
 2.5200	 4.0330
 2.5210	 4.0730
 2.5220	 4.0060
 2.5230	 4.0140
 2.5250	 4.0490
 2.5260	 4.0540
 2.5270	 4.0170
 2.5280	 4.0460
 2.5300	 3.9970
 2.5310	 3.9630
 2.5320	 3.8970
 2.5330	 3.8810
 2.5340	 3.8940
 2.5360	 3.8130
 2.5370	 3.7870
 2.5380	 4.0030
 2.5390	 4.0750
 2.5410	 4.0830
 2.5420	 3.9730
 2.5430	 3.8110
 2.5440	 3.8310
 2.5460	 3.9700
 2.5470	 3.9400
 2.5480	 3.8630
 2.5490	 3.9490
 2.5510	 3.9300
 2.5520	 3.7690
 2.5530	 3.7620
 2.5540	 3.9570
 2.5560	 4.1820
 2.5570	 4.2170
 2.5580	 4.2010
 2.5590	 3.9800
 2.5610	 3.5910
 2.5620	 3.3200
 2.5630	 3.3500
 2.5650	 3.3970
 2.5660	 3.7180
 2.5670	 4.0070
 2.5680	 3.8630
 2.5700	 3.5610
 2.5710	 3.6940
 2.5720	 3.8920
 2.5730	 3.5620
 2.5750	 3.5890
 2.5760	 3.7310
 2.5770	 3.5350
 2.5790	 3.8010
 2.5800	 3.9970
 2.5810	 3.7630
 2.5820	 3.6810
 2.5840	 3.3890
 2.5850	 3.3240
 2.5860	 3.5990
 2.5880	 3.3650
 2.5890	 3.4520
 2.5900	 3.6620
 2.5910	 3.7950
 2.5930	 3.5050
 2.5940	 2.9150
 2.5950	 2.4130
 2.5970	 2.9350
 2.5980	 3.5650
 2.5990	 3.7890
 2.6010	 3.7030
 2.6020	 3.5110
 2.6030	 3.2820
 2.6040	 3.0430
 2.6060	 2.8720
 2.6070	 3.0430
 2.6080	 3.1760
 2.6100	 3.1760
 2.6110	 3.3250
 2.6120	 3.4540
 2.6140	 3.3620
 2.6150	 3.3810
 2.6160	 2.9630
 2.6180	 2.7430
 2.6190	 3.0470
 2.6200	 2.9290
 2.6220	 2.9300
 2.6230	 3.3720
 2.6240	 3.4670
 2.6260	 3.2830
 2.6270	 2.8420
 2.6280	 2.9880
 2.6300	 2.8590
 2.6310	 2.5590
 2.6320	 2.8170
 2.6340	 2.9000
 2.6350	 2.8390
 2.6360	 3.0860
 2.6380	 3.2110
 2.6390	 3.1880
 2.6400	 3.0210
 2.6420	 2.9570
 2.6430	 2.9390
 2.6440	 2.9400
 2.6460	 2.7530
 2.6470	 2.7810
 2.6480	 2.8670
 2.6500	 2.8930
 2.6510	 2.7410
 2.6520	 2.5340
 2.6540	 2.4890
 2.6550	 2.4820
 2.6570	 2.4610
 2.6580	 2.6950
 2.6590	 2.5030
 2.6610	 2.3090
 2.6620	 2.3320
 2.6630	 2.4230
 2.6650	 2.1300
 2.6660	 1.8320
 2.6670	 1.7840
 2.6690	 2.0030
 2.6700	 1.7130
 2.6720	 1.7230
 2.6730	 2.1380
 2.6740	 2.1700
 2.6760	 1.9120
 2.6770	 1.7030
 2.6780	 1.7200
 2.6800	 1.8620
 2.6810	 2.0270
 2.6830	 2.0830
 2.6840	 2.0460
 2.6850	 2.0370
 2.6870	 1.9070
 2.6880	 1.9260
 2.6900	 2.0090
 2.6910	 2.0780
 2.6920	 1.9600
 2.6940	 1.6700
 2.6950	 1.5100
 2.6970	 1.6480
 2.6980	 1.8150
 2.6990	 1.9150
 2.7010	 1.7740
 2.7020	 1.6510
 2.7040	 1.7260
 2.7050	 1.7860
 2.7060	 1.8300
 2.7080	 1.8490
 2.7090	 1.6320
 2.7110	 1.3870
 2.7120	 1.3260
 2.7130	 1.6140
 2.7150	 1.7080
 2.7160	 1.6970
 2.7180	 1.5450
 2.7190	 1.4230
 2.7210	 1.1900
 2.7220	 1.3080
 2.7230	 1.3990
 2.7250	 1.2490
 2.7260	 1.3470
 2.7280	 1.5790
 2.7290	 1.6180
 2.7310	 1.6320
 2.7320	 1.6190
 2.7340	 1.6030
 2.7350	 1.4490
 2.7360	 1.4600
 2.7380	 1.4060
 2.7390	 1.1940
 2.7410	 1.0660
 2.7420	 1.1830
 2.7440	 1.3820
 2.7450	 1.4570
 2.7470	 1.3740
 2.7480	 1.4530
 2.7490	 1.5140
 2.7510	 1.5070
 2.7520	 1.4030
 2.7540	 1.3290
 2.7550	 1.0760
 2.7570	 1.1280
 2.7580	 1.3030
 2.7600	 1.4260
 2.7610	 1.3240
 2.7630	 1.1610
 2.7640	 1.1280
 2.7660	 1.2650
 2.7670	 1.2660
 2.7690	 1.2380
 2.7700	 1.2150
 2.7720	 1.1990
 2.7730	 1.2950
 2.7740	 1.4500
 2.7760	 1.4050
 2.7770	 1.3710
 2.7790	 1.2600
 2.7800	 1.1520
 2.7820	 1.1300
 2.7830	 1.2000
 2.7850	 1.2020
 2.7860	 1.1620
 2.7880	 1.0950
 2.7890	 1.2410
 2.7910	 1.2970
 2.7920	 1.2950
 2.7940	 1.3390
 2.7950	 1.3870
 2.7970	 1.3260
 2.7980	 1.3010
 2.8000	 1.2670
 2.8010	 1.2800
 2.8030	 1.1010
 2.8040	 1.0900
 2.8060	 1.2160
 2.8080	 1.2630
 2.8090	 1.1900
 2.8110	 1.1870
 2.8120	 1.2310
 2.8140	 1.2550
 2.8150	 1.1530
 2.8170	 1.1650
 2.8180	 1.1470
 2.8200	 1.1240
 2.8210	 1.0710
 2.8230	 1.1380
 2.8240	 1.2070
 2.8260	 1.2320
 2.8270	 1.2420
 2.8290	 1.2050
 2.8310	 1.1050
 2.8320	 1.1250
 2.8340	 1.0950
 2.8350	 1.1030
 2.8370	 1.1400
 2.8380	 1.1750
 2.8400	 1.1460
 2.8410	 1.1950
 2.8430	 1.1940
 2.8440	 1.1980
 2.8460	 1.1440
 2.8480	 1.1730
 2.8490	 1.1580
 2.8510	 1.1870
 2.8520	 1.2040
 2.8540	 1.2270
 2.8550	 1.1820
 2.8570	 1.1890
 2.8590	 1.1890
 2.8600	 1.2400
 2.8620	 1.1980
 2.8630	 1.2140
 2.8650	 1.2010
 2.8660	 1.1890
 2.8680	 1.1710
 2.8700	 1.1990
 2.8710	 1.1170
 2.8730	 1.0730
 2.8740	 1.0770
 2.8760	 1.1290
 2.8780	 1.0940
 2.8790	 1.1110
 2.8810	 1.1000
 2.8820	 1.0640
 2.8840	 1.0420
 2.8860	 1.1640
 2.8870	 1.1720
 2.8890	 1.1410
 2.8900	 1.1150
 2.8920	 1.1030
 2.8940	 1.0510
 2.8950	 1.0660
 2.8970	 1.0950
 2.8990	 1.2170
 2.9000	 1.1880
 2.9020	 1.0880
 2.9030	 1.0550
 2.9050	 1.1140
 2.9070	 1.0860
 2.9080	 1.0800
 2.9100	 1.0420
 2.9120	 1.0420
 2.9130	 1.0150
 2.9150	 0.9980
 2.9160	 0.9920
 2.9180	 1.0830
 2.9200	 1.0670
 2.9210	 1.1130
 2.9230	 1.1200
 2.9250	 1.1210
 2.9260	 1.0960
 2.9280	 1.0920
 2.9300	 1.0510
 2.9310	 1.0500
 2.9330	 1.0570
 2.9350	 1.0970
 2.9360	 1.0640
 2.9380	 1.0680
 2.9400	 1.0580
 2.9410	 1.1070
 2.9430	 1.1130
 2.9450	 1.1420
 2.9460	 1.1380
 2.9480	 1.1400
 2.9500	 1.1030
 2.9510	 1.0780
 2.9530	 1.0510
 2.9550	 1.0870
 2.9560	 1.1030
 2.9580	 1.1380
 2.9600	 1.0930
 2.9610	 1.0980
 2.9630	 1.0460
 2.9650	 1.0710
 2.9670	 1.1040
 2.9680	 1.1310
 2.9700	 1.0750
 2.9720	 1.0420
 2.9730	 1.0430
 2.9750	 1.0940
 2.9770	 1.0420
 2.9780	 1.0050
 2.9800	 0.9940
 2.9820	 1.1120
 2.9840	 1.1020
 2.9850	 1.0510
 2.9870	 1.0560
 2.9890	 1.1080
 2.9900	 1.0260
 2.9920	 0.9920
 2.9940	 1.0400
 2.9960	 1.1560
 2.9970	 1.1590
 2.9990	 1.1710
 3.0010	 1.1410
 3.0030	 1.1110
 3.0040	 1.0470
 3.0060	 1.1010
 3.0080	 1.1060
 3.0100	 1.1060
 3.0110	 1.0770
 3.0130	 1.0560
 3.0150	 1.0670
 3.0170	 1.1110
 3.0180	 1.1060
 3.0200	 1.1050
 3.0220	 1.0740
 3.0240	 1.1410
 3.0250	 1.1190
 3.0270	 1.0960
 3.0290	 1.0820
 3.0310	 1.1660
 3.0320	 1.1750
 3.0340	 1.1440
 3.0360	 1.0890
 3.0380	 1.0820
 3.0400	 1.0720
 3.0410	 1.1610
 3.0430	 1.1810
 3.0450	 1.1230
 3.0470	 1.0580
 3.0480	 1.1180
 3.0500	 1.1310
 3.0520	 1.1800
 3.0540	 1.1550
 3.0560	 1.1930
 3.0570	 1.1900
 3.0590	 1.1640
 3.0610	 1.1310
 3.0630	 1.1950
 3.0650	 1.1730
 3.0670	 1.1530
 3.0680	 1.1190
 3.0700	 1.1650
 3.0720	 1.1600
 3.0740	 1.1860
 3.0760	 1.1610
 3.0770	 1.1450
 3.0790	 1.1650
 3.0810	 1.2070
 3.0830	 1.1680
 3.0850	 1.1710
 3.0870	 1.1530
 3.0880	 1.2130
 3.0900	 1.2660
 3.0920	 1.3020
 3.0940	 1.2650
 3.0960	 1.2720
 3.0980	 1.2590
 3.1000	 1.2270
 3.1010	 1.2050
 3.1030	 1.2440
 3.1050	 1.2470
 3.1070	 1.2430
 3.1090	 1.2000
 3.1110	 1.2370
 3.1130	 1.2350
 3.1140	 1.2320
 3.1160	 1.1560
 3.1180	 1.1620
 3.1200	 1.1750
 3.1220	 1.2590
 3.1240	 1.2740
 3.1260	 1.2540
 3.1280	 1.2650
 3.1290	 1.3110
 3.1310	 1.2840
 3.1330	 1.2930
 3.1350	 1.2770
 3.1370	 1.2860
 3.1390	 1.2630
 3.1410	 1.3150
 3.1430	 1.3320
 3.1450	 1.3670
 3.1470	 1.3140
 3.1480	 1.2700
 3.1500	 1.2610
 3.1520	 1.3030
 3.1540	 1.3030
 3.1560	 1.3350
 3.1580	 1.3200
 3.1600	 1.3730
 3.1620	 1.3310
 3.1640	 1.3280
 3.1660	 1.3080
 3.1680	 1.3150
 3.1700	 1.3100
 3.1720	 1.3370
 3.1730	 1.3450
 3.1750	 1.3440
 3.1770	 1.3640
 3.1790	 1.4020
 3.1810	 1.3710
 3.1830	 1.3640
 3.1850	 1.3510
 3.1870	 1.3590
 3.1890	 1.3520
 3.1910	 1.3720
 3.1930	 1.4050
 3.1950	 1.4320
 3.1970	 1.4120
 3.1990	 1.4220
 3.2010	 1.4120
 3.2030	 1.4010
 3.2050	 1.3580
 3.2070	 1.3740
 3.2090	 1.3520
 3.2110	 1.3760
 3.2130	 1.3590
 3.2150	 1.3930
 3.2170	 1.3770
 3.2190	 1.3820
 3.2210	 1.3990
 3.2230	 1.4320
 3.2250	 1.4130
 3.2270	 1.4330
 3.2290	 1.3890
 3.2310	 1.3770
 3.2330	 1.4060
 3.2350	 1.4420
 3.2370	 1.4820
 3.2390	 1.5100
 3.2410	 1.4470
 3.2430	 1.4580
 3.2450	 1.4630
 3.2470	 1.4510
 3.2490	 1.4500
 3.2510	 1.4970
 3.2530	 1.4630
 3.2550	 1.4590
 3.2570	 1.4310
 3.2590	 1.4630
 3.2610	 1.4460
 3.2630	 1.4600
 3.2650	 1.4930
 3.2670	 1.5180
 3.2700	 1.5010
 3.2720	 1.5230
 3.2740	 1.5260
 3.2760	 1.4990
 3.2780	 1.4550
 3.2800	 1.4930
 3.2820	 1.5270
 3.2840	 1.5410
 3.2860	 1.4680
 3.2880	 1.4460
 3.2900	 1.4640
 3.2920	 1.5070
 3.2940	 1.4190
 3.2970	 1.4180
 3.2990	 1.4550
 3.3010	 1.4890
 3.3030	 1.5220
 3.3050	 1.5470
 3.3070	 1.5430
 3.3090	 1.5400
 3.3110	 1.4960
 3.3130	 1.4900
 3.3160	 1.4690
 3.3180	 1.4920
 3.3200	 1.5150
 3.3220	 1.5440
 3.3240	 1.5100
 3.3260	 1.4890
 3.3280	 1.4670
 3.3300	 1.4870
 3.3330	 1.4660
 3.3350	 1.4920
 3.3370	 1.5040
 3.3390	 1.5190
 3.3410	 1.5150
 3.3430	 1.4820
 3.3450	 1.4610
 3.3480	 1.5230
 3.3500	 1.5230
 3.3520	 1.5180
 3.3540	 1.4890
 3.3560	 1.5090
 3.3580	 1.5010
 3.3610	 1.4760
 3.3630	 1.4550
 3.3650	 1.4730
 3.3670	 1.4750
 3.3690	 1.4710
 3.3720	 1.4250
 3.3740	 1.4880
 3.3760	 1.4930
 3.3780	 1.4660
 3.3800	 1.4360
 3.3830	 1.4630
 3.3850	 1.4210
 3.3870	 1.4120
 3.3890	 1.4190
 3.3910	 1.4680
 3.3940	 1.4800
 3.3960	 1.4930
 3.3980	 1.5390
 3.4000	 1.6050
 3.4030	 1.5750
 3.4050	 1.5880
 3.4070	 1.6540
 3.4090	 1.7010
 3.4110	 1.7220
 3.4140	 1.8130
 3.4160	 1.8310
 3.4180	 1.8280
 3.4200	 1.7860
 3.4230	 1.7210
 3.4250	 1.6030
 3.4270	 1.5360
 3.4300	 1.4460
 3.4320	 1.3770
 3.4340	 1.3770
 3.4360	 1.4060
 3.4390	 1.4040
 3.4410	 1.4080
 3.4430	 1.4140
 3.4450	 1.4270
 3.4480	 1.4380
 3.4500	 1.5010
 3.4520	 1.5000
 3.4550	 1.4800
 3.4570	 1.4520
 3.4590	 1.4250
 3.4620	 1.4090
 3.4640	 1.4880
 3.4660	 1.4820
 3.4690	 1.4700
 3.4710	 1.4840
 3.4730	 1.5370
 3.4760	 1.5190
 3.4780	 1.5450
 3.4800	 1.5440
 3.4830	 1.5240
 3.4850	 1.5110
 3.4870	 1.5220
 3.4900	 1.5320
 3.4920	 1.5660
 3.4940	 1.5340
 3.4970	 1.5370
 3.4990	 1.5570
 3.5010	 1.6520
 3.5040	 1.6990
 3.5060	 1.6800
 3.5080	 1.5520
 3.5110	 1.4440
 3.5130	 1.4490
 3.5160	 1.5600
 3.5180	 1.5980
 3.5200	 1.6110
 3.5230	 1.6310
 3.5250	 1.6850
 3.5280	 1.6890
 3.5300	 1.7160
 3.5320	 1.6840
 3.5350	 1.7140
 3.5370	 1.7130
 3.5400	 1.6890
 3.5420	 1.6320
 3.5440	 1.6600
 3.5470	 1.7010
 3.5490	 1.7260
 3.5520	 1.7150
 3.5540	 1.7170
 3.5570	 1.6940
 3.5590	 1.6950
 3.5610	 1.6690
 3.5640	 1.7020
 3.5660	 1.7240
 3.5690	 1.7270
 3.5710	 1.7310
 3.5740	 1.7550
 3.5760	 1.7080
 3.5790	 1.7420
 3.5810	 1.7400
 3.5840	 1.7230
 3.5860	 1.7230
 3.5890	 1.7330
 3.5910	 1.7270
 3.5940	 1.7480
 3.5960	 1.7720
 3.5990	 1.7710
 3.6010	 1.7460
 3.6040	 1.7830
 3.6060	 1.8020
 3.6090	 1.7840
 3.6110	 1.7640
 3.6140	 1.7810
 3.6160	 1.7670
 3.6190	 1.7650
 3.6210	 1.7580
 3.6240	 1.7470
 3.6260	 1.7190
 3.6290	 1.7260
 3.6310	 1.7650
 3.6340	 1.8010
 3.6360	 1.8230
 3.6390	 1.7940
 3.6410	 1.7680
 3.6440	 1.8040
 3.6470	 1.8090
 3.6490	 1.8140
 3.6520	 1.7680
 3.6540	 1.7350
 3.6570	 1.7370
 3.6590	 1.7780
 3.6620	 1.8190
 3.6650	 1.8330
 3.6670	 1.8020
 3.6700	 1.7980
 3.6720	 1.8140
 3.6750	 1.8480
 3.6780	 1.8450
 3.6800	 1.8450
 3.6830	 1.8370
 3.6850	 1.8270
 3.6880	 1.8070
 3.6910	 1.8420
 3.6930	 1.8800
 3.6960	 1.8630
 3.6990	 1.8320
 3.7010	 1.8590
 3.7040	 1.8590
 3.7070	 1.8680
 3.7090	 1.8560
 3.7120	 1.8700
 3.7150	 1.8600
 3.7170	 1.8820
 3.7200	 1.8770
 3.7230	 1.9100
 3.7250	 1.8960
 3.7280	 1.8790
 3.7310	 1.8940
 3.7330	 1.9450
 3.7360	 1.9540
 3.7390	 1.9280
 3.7410	 1.9010
 3.7440	 1.8990
 3.7470	 1.9150
 3.7490	 1.9070
 3.7520	 1.8910
 3.7550	 1.9490
 3.7580	 1.9640
 3.7600	 1.9550
 3.7630	 1.9390
 3.7660	 1.9620
 3.7690	 1.9750
 3.7710	 1.9590
 3.7740	 1.9510
 3.7770	 1.9680
 3.7790	 1.9640
 3.7820	 1.9800
 3.7850	 1.9730
 3.7880	 1.9630
 3.7910	 1.9690
 3.7930	 1.9720
 3.7960	 1.9700
 3.7990	 1.9810
 3.8020	 1.9870
 3.8040	 1.9870
 3.8070	 1.9660
 3.8100	 1.9870
 3.8130	 1.9810
 3.8160	 1.9710
 3.8180	 2.0000
 3.8210	 2.0260
 3.8240	 2.0220
 3.8270	 2.0020
 3.8300	 1.9770
 3.8330	 1.9450
 3.8350	 1.9830
 3.8380	 2.0580
 3.8410	 2.0480
 3.8440	 2.0380
 3.8470	 2.0150
 3.8500	 2.0250
 3.8520	 2.0280
 3.8550	 2.0250
 3.8580	 2.0450
 3.8610	 2.0720
 3.8640	 2.0460
 3.8670	 2.0500
 3.8700	 2.0610
 3.8730	 2.0810
 3.8760	 2.0880
 3.8780	 2.0800
 3.8810	 2.0610
 3.8840	 2.0660
 3.8870	 2.0620
 3.8900	 2.0580
 3.8930	 2.0350
 3.8960	 2.0630
 3.8990	 2.0790
 3.9020	 2.0840
 3.9050	 2.0570
 3.9080	 2.0410
 3.9110	 2.0390
 3.9140	 2.0910
 3.9170	 2.1390
 3.9190	 2.1560
 3.9220	 2.1190
 3.9250	 2.0980
 3.9280	 2.1260
 3.9310	 2.1460
 3.9340	 2.1440
 3.9370	 2.1410
 3.9400	 2.1170
 3.9430	 2.1120
 3.9460	 2.0880
 3.9490	 2.0940
 3.9520	 2.1190
 3.9550	 2.1470
 3.9580	 2.1280
 3.9610	 2.1340
 3.9640	 2.1260
 3.9670	 2.0940
 3.9700	 2.0810
 3.9740	 2.0900
 3.9770	 2.0970
 3.9800	 2.1160
 3.9830	 2.1320
 3.9860	 2.1530
 3.9890	 2.1580
 3.9920	 2.1160
 3.9950	 2.0830
 3.9980	 2.1010
 4.0010	 2.1150
 4.0040	 2.0750
 4.0070	 2.0800
 4.0100	 2.1230
 4.0140	 2.1120
 4.0170	 2.0770
 4.0200	 2.0730
 4.0230	 2.0960
 4.0260	 2.0960
 4.0290	 2.0950
 4.0320	 2.0910
 4.0350	 2.0970
 4.0390	 2.0830
 4.0420	 2.0810
 4.0450	 2.0970
 4.0480	 2.0930
 4.0510	 2.0900
 4.0540	 2.1000
 4.0570	 2.1250
 4.0610	 2.1480
 4.0640	 2.1200
 4.0670	 2.0720
 4.0700	 2.0590
 4.0730	 2.0920
 4.0770	 2.1350
 4.0800	 2.0890
 4.0830	 2.0480
 4.0860	 2.0980
 4.0890	 2.1140
 4.0930	 2.1070
 4.0960	 2.1100
 4.0990	 2.0960
 4.1020	 2.1210
 4.1060	 2.1220
 4.1090	 2.0870
 4.1120	 2.0940
 4.1150	 2.1130
 4.1190	 2.1160
 4.1220	 2.0880
 4.1250	 2.1010
 4.1290	 2.1050
 4.1320	 2.0460
 4.1350	 2.0410
 4.1380	 2.0810
 4.1420	 2.0950
 4.1450	 2.0390
 4.1480	 2.0330
 4.1520	 2.0680
 4.1550	 2.0790
 4.1580	 2.0840
 4.1620	 2.0680
 4.1650	 2.0330
 4.1680	 2.0060
 4.1720	 2.0210
 4.1750	 2.0060
 4.1780	 2.0030
 4.1820	 2.0310
 4.1850	 2.0240
 4.1890	 1.9930
 4.1920	 1.9900
 4.1950	 2.0080
 4.1990	 2.0310
 4.2020	 2.0350
 4.2060	 2.0190
 4.2090	 2.0430
 4.2120	 2.0280
 4.2160	 1.9760
 4.2190	 2.0040
 4.2230	 2.0320
 4.2260	 2.0490
 4.2300	 2.0550
 4.2330	 2.0260
 4.2360	 1.9840
 4.2400	 2.0450
 4.2430	 2.0510
 4.2470	 1.9980
 4.2500	 1.9630
 4.2540	 1.9590
 4.2570	 1.9700
 4.2610	 1.9660
 4.2640	 1.9470
 4.2680	 1.9910
 4.2710	 1.9820
 4.2750	 1.9150
 4.2780	 1.8910
 4.2820	 1.9480
 4.2850	 1.9480
 4.2890	 1.9370
 4.2930	 1.9320
 4.2960	 1.8970
 4.3000	 1.9450
 4.3030	 2.0000
 4.3070	 1.9840
 4.3100	 1.9570
 4.3140	 1.9560
 4.3180	 1.9670
 4.3210	 1.9580
 4.3250	 1.9470
 4.3280	 1.9200
 4.3320	 1.8610
 4.3360	 1.8670
 4.3390	 1.8700
 4.3430	 1.8500
 4.3470	 1.8690
 4.3500	 1.8970
 4.3540	 1.8820
 4.3580	 1.8480
 4.3610	 1.8460
 4.3650	 1.8560
 4.3690	 1.8640
 4.3720	 1.8840
 4.3760	 1.8740
 4.3800	 1.8420
 4.3830	 1.8300
 4.3870	 1.8210
 4.3910	 1.8070
 4.3940	 1.8150
 4.3980	 1.8410
 4.4020	 1.8770
 4.4060	 1.8690
 4.4090	 1.8680
 4.4130	 1.8540
 4.4170	 1.8350
 4.4210	 1.8150
 4.4240	 1.8010
 4.4280	 1.7860
 4.4320	 1.8000
 4.4360	 1.8130
 4.4400	 1.7710
 4.4430	 1.7420
 4.4470	 1.7770
 4.4510	 1.8120
 4.4550	 1.7880
 4.4590	 1.7480
 4.4630	 1.7810
 4.4660	 1.7870
 4.4700	 1.7630
 4.4740	 1.7370
 4.4780	 1.7140
 4.4820	 1.7170
 4.4860	 1.7550
 4.4900	 1.7610
 4.4930	 1.7520
 4.4970	 1.7330
 4.5010	 1.7130
 4.5050	 1.7010
 4.5090	 1.7090
 4.5130	 1.7150
 4.5170	 1.7460
 4.5210	 1.7420
 4.5250	 1.7130
 4.5290	 1.7190
 4.5330	 1.7300
 4.5370	 1.7160
 4.5410	 1.7350
 4.5450	 1.7250
 4.5490	 1.7240
 4.5530	 1.7300
 4.5570	 1.7150
 4.5610	 1.7050
 4.5650	 1.7050
 4.5690	 1.7030
 4.5730	 1.6830
 4.5770	 1.6820
 4.5810	 1.7090
 4.5850	 1.6760
 4.5890	 1.6700
 4.5930	 1.6860
 4.5970	 1.6940
 4.6010	 1.6620
 4.6050	 1.6520
 4.6090	 1.6620
 4.6130	 1.6630
 4.6170	 1.6530
 4.6220	 1.6690
 4.6260	 1.6850
 4.6300	 1.6980
 4.6340	 1.6710
 4.6380	 1.6640
 4.6420	 1.6810
 4.6460	 1.7280
 4.6510	 1.6850
 4.6550	 1.6820
 4.6590	 1.7000
 4.6630	 1.6900
 4.6670	 1.6810
 4.6720	 1.6780
 4.6760	 1.6530
 4.6800	 1.6660
 4.6840	 1.6750
 4.6880	 1.6800
 4.6930	 1.6690
 4.6970	 1.6750
 4.7010	 1.6410
 4.7050	 1.6410
 4.7100	 1.6540
 4.7140	 1.6480
 4.7180	 1.6390
 4.7230	 1.6520
 4.7270	 1.6690
 4.7310	 1.6770
 4.7360	 1.6830
 4.7400	 1.6650
 4.7440	 1.6340
 4.7490	 1.6600
 4.7530	 1.6730
 4.7570	 1.6810
 4.7620	 1.6830
 4.7660	 1.6980
 4.7700	 1.6900
 4.7750	 1.7000
 4.7790	 1.6760
 4.7840	 1.6670
 4.7880	 1.6780
 4.7920	 1.6760
 4.7970	 1.6400
 4.8010	 1.6550
 4.8060	 1.6580
 4.8100	 1.6590
 4.8150	 1.6410
 4.8190	 1.6480
 4.8240	 1.6380
 4.8280	 1.6550
 4.8330	 1.6740
 4.8370	 1.6770
 4.8420	 1.6290
 4.8460	 1.6270
 4.8510	 1.5980
 4.8550	 1.6050
 4.8600	 1.6280
 4.8640	 1.6730
 4.8690	 1.6990
 4.8740	 1.7150
 4.8780	 1.7000
 4.8830	 1.6980
 4.8870	 1.6710
 4.8920	 1.6560
 4.8970	 1.6690
 4.9010	 1.7010
 4.9060	 1.7030
 4.9100	 1.6710
 4.9150	 1.6270
 4.9200	 1.6460
 4.9240	 1.6750
 4.9290	 1.6980
 4.9340	 1.6860
 4.9390	 1.6780
 4.9430	 1.6880
 4.9480	 1.6970
 4.9530	 1.6820
 4.9570	 1.6790
 4.9620	 1.6630
 4.9670	 1.6710
 4.9720	 1.6660
 4.9760	 1.6930
 4.9810	 1.7280
 4.9860	 1.7350
 4.9910	 1.7010
 4.9960	 1.6870
 5.0000	 1.6590
 5.0050	 1.6880
 5.0100	 1.6930
 5.0150	 1.7100
 5.0200	 1.6780
 5.0250	 1.6790
 5.0300	 1.6950
 5.0340	 1.7280
 5.0390	 1.7550
 5.0440	 1.7790
 5.0490	 1.7720
 5.0540	 1.7740
 5.0590	 1.7650
 5.0640	 1.7740
 5.0690	 1.7550
 5.0740	 1.7720
 5.0790	 1.7290
 5.0840	 1.7000
 5.0890	 1.7150
 5.0940	 1.7510
 5.0990	 1.7530
 5.1040	 1.7630
 5.1090	 1.7330
 5.1140	 1.7250
 5.1190	 1.7150
 5.1240	 1.7430
 5.1290	 1.7450
 5.1340	 1.7460
 5.1390	 1.7240
 5.1440	 1.6860
 5.1490	 1.6600
 5.1550	 1.7440
 5.1600	 1.7720
 5.1650	 1.7590
 5.1700	 1.7390
 5.1750	 1.7600
 5.1800	 1.7260
 5.1850	 1.7070
 5.1910	 1.7000
 5.1960	 1.6990
 5.2010	 1.6820
 5.2060	 1.7240
 5.2110	 1.6760
 5.2170	 1.7030
 5.2220	 1.7660
 5.2270	 1.7830
 5.2330	 1.7440
 5.2380	 1.7230
 5.2430	 1.7380
 5.2480	 1.7760
 5.2540	 1.7600
 5.2590	 1.7670
 5.2640	 1.7580
 5.2700	 1.7700
 5.2750	 1.7230
 5.2800	 1.7380
 5.2860	 1.7250
 5.2910	 1.6550
 5.2970	 1.6750
 5.3020	 1.7740
 5.3080	 1.7540
 5.3130	 1.7520
 5.3180	 1.7580
 5.3240	 1.7870
 5.3290	 1.7500
 5.3350	 1.7530
 5.3400	 1.7170
 5.3460	 1.6410
 5.3510	 1.5220
 5.3570	 1.5970
 5.3620	 1.6940
 5.3680	 1.7380
 5.3740	 1.7080
 5.3790	 1.7140
 5.3850	 1.6980
 5.3900	 1.7030
 5.3960	 1.7230
 5.4010	 1.7430
 5.4070	 1.6780
 5.4130	 1.6290
 5.4180	 1.4920
 5.4240	 1.4490
 5.4300	 1.5750
 5.4350	 1.6770
 5.4410	 1.6870
 5.4470	 1.6950
 5.4530	 1.6400
 5.4580	 1.5680
 5.4640	 1.4480
 5.4700	 1.5000
 5.4760	 1.5010
 5.4810	 1.4930
 5.4870	 1.5720
 5.4930	 1.6050
 5.4990	 1.5600
 5.5050	 1.5730
 5.5110	 1.5920
 5.5160	 1.5680
 5.5220	 1.5030
 5.5280	 1.5090
 5.5340	 1.4990
 5.5400	 1.5050
 5.5460	 1.4580
 5.5520	 1.3980
 5.5580	 1.3850
 5.5640	 1.4040
 5.5700	 1.3870
 5.5760	 1.3090
 5.5820	 1.2460
 5.5880	 1.3790
 5.5940	 1.4310
 5.6000	 1.3610
 5.6060	 1.3100
 5.6120	 1.3480
 5.6180	 1.3250
 5.6240	 1.3660
 5.6300	 1.2960
 5.6360	 1.1880
 5.6420	 1.0440
 5.6490	 1.1220
 5.6550	 1.1490
 5.6610	 1.2250
 5.6670	 1.2730
 5.6730	 1.1960
 5.6800	 1.1230
 5.6860	 1.1370
 5.6920	 1.0750
 5.6980	 1.0990
 5.7050	 1.0150
 5.7110	 0.8990
 5.7170	 0.8940
 5.7230	 0.9350
 5.7300	 0.9390
 5.7360	 0.9460
 5.7420	 0.9100
 5.7490	 0.9120
 5.7550	 1.0010
 5.7620	 0.9800
 5.7680	 0.8720
 5.7740	 1.1040
 5.7810	 1.2470
 5.7870	 1.3490
 5.7940	 1.4010
 5.8000	 1.3940
 5.8070	 1.4180
 5.8130	 1.3960
 5.8200	 1.1260
 5.8260	 1.1030
 5.8330	 1.2370
 5.8390	 1.4060
 5.8460	 1.4700
 5.8530	 1.4400
 5.8590	 1.3040
 5.8660	 1.2580
 5.8730	 1.2450
 5.8790	 1.0220
 5.8860	 1.0070
 5.8930	 1.1360
 5.8990	 1.1090
 5.9060	 1.3080
 5.9130	 1.3390
 5.9190	 1.2890
 5.9260	 1.1980
 5.9330	 1.0000
 5.9400	 0.8930
 5.9470	 1.1380
 5.9530	 1.2160
 5.9600	 1.2480
 5.9670	 1.0570
 5.9740	 1.0650
 5.9810	 1.0820
 5.9880	 0.9850
 5.9950	 1.0100
 6.0020	 1.1800
 6.0090	 1.1000
 6.0160	 1.0280
 6.0230	 1.0670
 6.0300	 1.1520
 6.0370	 1.0330
 6.0440	 0.7720
 6.0510	 0.5730
 6.0580	 0.8600
 6.0650	 0.9510
 6.0720	 0.8600
 6.0790	 0.9380
 6.0860	 1.0780
 6.0930	 1.0160
 6.1010	 0.9970
 6.1080	 0.8620
 6.1150	 0.7820
 6.1220	 0.9400
 6.1290	 1.1330
 6.1370	 1.0930
 6.1440	 1.0880
 6.1510	 1.0820
 6.1580	 1.0390
 6.1660	 1.0520
 6.1730	 1.1550
 6.1800	 1.0390
 6.1880	 1.0220
 6.1950	 1.1550
 6.2030	 1.2930
 6.2100	 1.2470
 6.2180	 1.2680
 6.2250	 1.2830
 6.2320	 1.3080
 6.2400	 1.2850
 6.2480	 1.2930
 6.2550	 1.2550
 6.2630	 1.2740
 6.2700	 1.2710
 6.2780	 1.3380
 6.2850	 1.2800
 6.2930	 1.3000
 6.3010	 1.3510
 6.3080	 1.3870
 6.3160	 1.3490
 6.3240	 1.3780
 6.3310	 1.3400
 6.3390	 1.2180
 6.3470	 1.1220
 6.3550	 1.3250
 6.3620	 1.3220
 6.3700	 1.1720
 6.3780	 1.1510
 6.3860	 1.2600
 6.3940	 1.2580
 6.4020	 1.1900
 6.4100	 0.8440
 6.4180	 0.7600
 6.4260	 0.9310
 6.4340	 1.0710
 6.4420	 1.1590
 6.4500	 1.2170
 6.4580	 1.2300
 6.4660	 1.2640
 6.4740	 1.0560
 6.4820	 0.9540
 6.4900	 0.7950
 6.4980	 0.8780
 6.5060	 1.1080
 6.5140	 1.1520
 6.5230	 1.0100
 6.5310	 1.1840
 6.5390	 1.2040
 6.5470	 1.1530
 6.5560	 1.0710
 6.5640	 1.0230
 6.5720	 0.8700
 6.5800	 1.0220
 6.5890	 1.0590
 6.5970	 1.1400
 6.6060	 1.2820
 6.6140	 1.2900
 6.6230	 1.1300
 6.6310	 0.9210
 6.6390	 0.7950
 6.6480	 1.1280
 6.6570	 1.3000
 6.6650	 1.2600
 6.6740	 1.0980
 6.6820	 1.0570
 6.6910	 1.1380
 6.7000	 1.2190
 6.7080	 1.0650
 6.7170	 1.0510
 6.7260	 1.0980
 6.7340	 1.2420
 6.7430	 1.2120
 6.7520	 1.1850
 6.7610	 1.1660
 6.7690	 1.1000
 6.7780	 0.9910
 6.7870	 0.9670
 6.7960	 0.9790
 6.8050	 1.1440
 6.8140	 1.1250
 6.8230	 1.0730
 6.8320	 1.1350
 6.8410	 1.2900
 6.8500	 1.0540
 6.8590	 0.8230
 6.8680	 0.7450
 6.8770	 0.9970
 6.8860	 1.1000
 6.8960	 1.1670
 6.9050	 1.0820
 6.9140	 1.1200
 6.9230	 1.0930
 6.9320	 1.1240
 6.9420	 1.0990
 6.9510	 1.0520
 6.9600	 0.8860
 6.9700	 1.0550
 6.9790	 1.1330
 6.9880	 1.1080
 6.9980	 1.0520
 7.0070	 1.1530
 7.0170	 1.0970
 7.0260	 1.1240
 7.0360	 1.0620
 7.0450	 0.9590
 7.0550	 0.9570
 7.0650	 1.1660
 7.0740	 1.1950
 7.0840	 1.2070
 7.0940	 1.1700
 7.1030	 1.1830
 7.1130	 1.1060
 7.1230	 1.1540
 7.1330	 1.1410
 7.1420	 1.0910
 7.1520	 1.0130
 7.1620	 1.0410
 7.1720	 0.9920
 7.1820	 1.1460
 7.1920	 1.1520
 7.2020	 1.0910
 7.2120	 0.9980
 7.2220	 1.0740
 7.2320	 1.0530
 7.2420	 1.1490
 7.2520	 1.0730
 7.2620	 1.0570
 7.2730	 0.9880
 7.2830	 1.0840
 7.2930	 1.1230
 7.3030	 1.1590
 7.3140	 1.1540
 7.3240	 1.1910
 7.3340	 1.0710
 7.3450	 1.1080
 7.3550	 1.1180
 7.3660	 1.1970
 7.3760	 1.1330
 7.3870	 1.1550
 7.3970	 1.1070
 7.4080	 1.1310
 7.4180	 1.1010
 7.4290	 1.1540
 7.4400	 1.1010
 7.4500	 1.0870
 7.4610	 0.9780
 7.4720	 1.0170
 7.4830	 1.0340
 7.4930	 1.1620
 7.5040	 1.1580
 7.5150	 1.1720
 7.5260	 1.1330
 7.5370	 1.1880
 7.5480	 1.1700
 7.5590	 1.2440
 7.5700	 1.1890
 7.5810	 1.1560
 7.5920	 1.0870
 7.6030	 1.1710
 7.6140	 1.1560
 7.6260	 1.2320
 7.6370	 1.2020
 7.6480	 1.2360
 7.6590	 1.2280
 7.6710	 1.2750
 7.6820	 1.2310
 7.6940	 1.2420
 7.7050	 1.1450
 7.7160	 1.1850
 7.7280	 1.1450
 7.7390	 1.1850
 7.7510	 1.1360
 7.7630	 1.1620
 7.7740	 1.1040
 7.7860	 1.1360
 7.7980	 1.0990
 7.8090	 1.1430
 7.8210	 1.0720
 7.8330	 1.1290
 7.8450	 1.1030
 7.8570	 1.1210
 7.8690	 1.0470
 7.8810	 1.1100
 7.8930	 1.0710
 7.9050	 1.1340
 7.9170	 1.1380
 7.9290	 1.2330
 7.9410	 1.1660
 7.9530	 1.2070
 7.9650	 1.1580
 7.9780	 1.2000
 7.9900	 1.1660
 8.0020	 1.2540
 8.0150	 1.1800
 8.0270	 1.1860
 8.0390	 1.1230
 8.0520	 1.1790
 8.0640	 1.1180
 8.0770	 1.2000
 8.0900	 1.1940
 8.1020	 1.2910
 8.1150	 1.2200
 8.1280	 1.2820
 8.1400	 1.2690
 8.1530	 1.3710
 8.1660	 1.3380
 8.1790	 1.4360
 8.1920	 1.3990
 8.2050	 1.4530
 8.2180	 1.3480
 8.2310	 1.3870
 8.2440	 1.3160
 8.2570	 1.3660
 8.2700	 1.2570
 8.2830	 1.2940
 8.2970	 1.2080
 8.3100	 1.2780
 8.3230	 1.2110
 8.3370	 1.2840
 8.3500	 1.2190
 8.3640	 1.2920
 8.3770	 1.2240
 8.3910	 1.3120
 8.4040	 1.2480
 8.4180	 1.3250
 8.4320	 1.2680
 8.4450	 1.2700
 8.4590	 1.1650
 8.4730	 1.3010
 8.4870	 1.2560
 8.5010	 1.2540
 8.5150	 1.1170
 8.5290	 1.1580
 8.5430	 1.0860
 8.5570	 1.1720
 8.5710	 1.1360
 8.5850	 1.2020
 8.5990	 1.1460
 8.6140	 1.3340
 8.6280	 1.2790
 8.6420	 1.3380
 8.6570	 1.3090
 8.6710	 1.3600
 8.6860	 1.2510
 8.7000	 1.3620
 8.7150	 1.2280
 8.7300	 1.2020
 8.7440	 1.1590
 8.7590	 1.3420
 8.7740	 1.2240
 8.7890	 1.1970
 8.8040	 1.1340
 8.8190	 1.1990
 8.8340	 1.0850
 8.8490	 1.1890
 8.8640	 1.1120
 8.8790	 1.2110
 8.8940	 1.0910
 8.9100	 1.1250
 8.9250	 1.0500
 8.9400	 1.1480
 8.9560	 1.0140
 8.9710	 1.1150
 8.9870	 1.1020
 9.0020	 1.2240
 9.0180	 1.1540
 9.0340	 1.2490
 9.0500	 1.1520
 9.0650	 1.3000
 9.0810	 1.2410
 9.0970	 1.2860
 9.1130	 1.2150
 9.1290	 1.2740
 9.1450	 1.1210
 9.1620	 1.2030
 9.1780	 1.1690
 9.1940	 1.2930
 9.2100	 1.1990
 9.2270	 1.2400
 9.2430	 1.1130
 9.2600	 1.1740
 9.2760	 1.0970
 9.2930	 1.2350
 9.3100	 1.1530
 9.3260	 1.2350
 9.3430	 1.1570
 9.3600	 1.2660
 9.3770	 1.2280
 9.3940	 1.4570
 9.4110	 1.3430
 9.4280	 1.3750
 9.4450	 1.3470
 9.4620	 1.5150
 9.4800	 1.4840
 9.4970	 1.5580
 9.5150	 1.4800
 9.5320	 1.6140
 9.5500	 1.5650
 9.5670	 1.5910
 9.5850	 1.4070
 9.6030	 1.5330
 9.6200	 1.5170
 9.6380	 1.6410
 9.6560	 1.5810
 9.6740	 1.7140
 9.6920	 1.6340
 9.7110	 1.7280
 9.7290	 1.6230
 9.7470	 1.7130
 9.7650	 1.6920
 9.7840	 1.8330
 9.8020	 1.8130
 9.8210	 1.9130
 9.8390	 1.7870
 9.8580	 1.9280
 9.8770	 1.9030
 9.8960	 2.0400
 9.9150	 1.9500
 9.9340	 2.0700
 9.9530	 2.0270
 9.9720	 2.1470
 9.9910	 2.0940
10.0100	 2.1930
10.0300	 2.0810
10.0490	 2.1180
10.0690	 2.0670
10.0880	 2.1740
10.1080	 2.1000
10.1280	 2.1910
10.1480	 2.0740
10.1670	 2.1400
10.1870	 2.0210
10.2070	 2.1500
10.2280	 2.1080
10.2480	 2.1770
10.2680	 2.0660
10.2890	 2.1070
10.3090	 1.9870
10.3300	 2.0760
10.3500	 1.9830
10.3710	 2.0400
10.3920	 1.9570
10.4120	 2.1240
10.4330	 2.0730
10.4540	 2.1750
10.4760	 2.0970
10.4970	 2.2510
10.5180	 2.1470
10.5390	 2.1940
10.5610	 2.0850
10.5820	 2.1090
10.6040	 1.9900
10.6260	 2.1130
10.6480	 1.9800
10.6700	 2.0440
10.6920	 1.9890
10.7140	 2.1070
10.7360	 1.9560
10.7580	 2.0270
10.7800	 1.8570
10.8030	 1.8900
10.8250	 1.8190
10.8480	 1.9180
10.8710	 1.7790
10.8940	 1.8660
10.9170	 1.7560
10.9400	 1.8400
10.9630	 1.6760
10.9860	 1.7430
11.0090	 1.6980
11.0330	 1.8450
11.0560	 1.7250
11.0800	 1.8070
11.1040	 1.6520
11.1270	 1.6900
11.1510	 1.6180
11.1750	 1.7830
11.2000	 1.6010
11.2240	 1.6640
11.2480	 1.5140
11.2730	 1.6190
11.2970	 1.5370
11.3220	 1.6830
11.3470	 1.5840
11.3720	 1.5880
11.3970	 1.4070
11.4220	 1.5630
11.4470	 1.4050
11.4720	 1.4380
11.4980	 1.3350
11.5230	 1.4400
11.5490	 1.3330
11.5750	 1.4520
11.6000	 1.3170
11.6260	 1.4030
11.6530	 1.2930
11.6790	 1.3770
11.7050	 1.2930
11.7320	 1.4260
11.7580	 1.2500
11.7850	 1.2860
11.8120	 1.1640
11.8390	 1.2990
11.8660	 1.1470
11.8930	 1.2950
11.9200	 1.1790
11.9480	 1.2330
11.9760	 1.0750
12.0030	 1.2140
12.0310	 1.1020
12.0590	 1.2090
12.0870	 1.0280
12.1150	 1.1860
12.1440	 1.0390
12.1720	 1.0960
12.2010	 0.9460
12.2300	 1.0720
12.2590	 0.9680
12.2880	 1.1550
12.3170	 0.9440
12.3460	 1.0490
12.3760	 0.9390
12.4050	 1.0790
12.4350	 0.9110
12.4650	 1.0650
12.4950	 0.9340
12.5250	 1.1020
12.5550	 0.8810
12.5860	 1.1220
12.6170	 0.9900
12.6470	 1.0380
12.6780	 0.8830
12.7090	 1.0860
12.7410	 0.8880
12.7720	 0.9550
12.8030	 0.8310
12.8350	 0.9910
12.8670	 0.7790
12.8990	 0.9790
12.9310	 0.8460
12.9640	 1.0170
12.9960	 0.8580
13.0290	 1.0710
13.0610	 0.8240
13.0940	 0.9490
13.1280	 0.7730
13.1610	 0.8980
13.1940	 0.7650
13.2280	 1.1480
13.2620	 1.0960
13.2960	 1.1600
13.3300	 0.8570
13.3640	 1.0830
13.3990	 0.8530
13.4340	 1.0930
13.4690	 0.9650
13.5040	 0.9880
13.5390	 0.8110
13.5740	 1.0780
13.6100	 0.8430
13.6460	 0.9910
13.6820	 0.7630
13.7180	 0.9450
13.7540	 0.7560
13.7910	 1.1090
13.8280	 0.9370
13.8650	 1.2010
13.9020	 1.0560
13.9390	 1.1230
13.9770	 0.8570
14.0150	 1.1390
14.0530	 0.8610
14.0910	 1.0050
14.1290	 0.9110
14.1680	 1.1720
14.2070	 0.8800
14.2460	 1.0700
14.2850	 0.8220
14.3240	 1.0530
14.3640	 0.7810
14.4040	 1.2080
14.4440	 1.0640
14.4840	 1.2690
14.5250	 0.8850
14.5660	 1.1410
14.6070	 0.9010
14.6480	 1.2200
14.6900	 0.9630
14.7310	 1.2480
14.7730	 0.8940
14.8150	 1.2340
14.8580	 0.8630
14.9010	 1.0830
14.9440	 0.5650
14.9870	 1.1550
15.0300	 0.9640
15.0740	 1.4570
15.1180	 1.0820
15.1620	 1.3810
15.2060	 1.0320
15.2510	 1.6330
15.2960	 1.3480
15.3410	 1.6140
15.3870	 1.0130
