Name: Peltophorum dubium
Type: vegetation
Class: Tree
Genus: Peltophorum
Species: dubium
Sample No.: JPL206
Owner: JPL
Wavelength Range: TIR
Origin: 34.12584; -118.11246; WGS84
Collection Date: 10/3/2016
Description: Samples were collected at the Huntington Garden in San Marino California as part of a JPL Subcontract studying HyTES imagery. Samples were taken to JPL and processed within 48 hours of collection. The same leaves were processed in the Nicolet and then measured using the ASD.
Measurement: Hemispherical reflectance
First Column: X
Second Column: Y
X Units: Wavelength (micrometer)
Y Units: Reflectance (percentage)
First X Value: 2.501
Last X Value: 15.387
Number of X Values: 1737
Additional Information: vegetation.tree.peltophorum.dubium.tir.jpl206.jpl.nicolet.ancillary.txt

 2.5010	 7.3910
 2.5030	 7.2870
 2.5040	 7.2430
 2.5050	 7.1570
 2.5060	 7.1940
 2.5070	 7.2470
 2.5090	 7.2660
 2.5100	 7.2180
 2.5110	 7.1860
 2.5120	 7.1220
 2.5140	 7.0820
 2.5150	 7.1140
 2.5160	 7.2090
 2.5170	 7.1030
 2.5180	 7.0570
 2.5200	 7.0630
 2.5210	 7.0740
 2.5220	 7.0200
 2.5230	 6.9160
 2.5250	 6.8840
 2.5260	 6.9830
 2.5270	 6.9740
 2.5280	 7.0200
 2.5300	 7.0040
 2.5310	 6.8650
 2.5320	 6.7750
 2.5330	 6.9000
 2.5340	 7.0230
 2.5360	 6.9230
 2.5370	 6.8220
 2.5380	 7.0050
 2.5390	 7.1220
 2.5410	 7.1240
 2.5420	 6.9360
 2.5430	 6.6710
 2.5440	 6.6340
 2.5460	 6.7930
 2.5470	 6.8040
 2.5480	 6.7100
 2.5490	 6.8230
 2.5510	 6.8940
 2.5520	 6.7450
 2.5530	 6.6450
 2.5540	 6.7980
 2.5560	 7.0250
 2.5570	 7.0460
 2.5580	 7.0420
 2.5590	 6.8430
 2.5610	 6.4050
 2.5620	 6.0500
 2.5630	 6.1010
 2.5650	 6.2050
 2.5660	 6.6330
 2.5670	 6.9540
 2.5680	 6.8590
 2.5700	 6.4620
 2.5710	 6.5270
 2.5720	 6.6890
 2.5730	 6.2330
 2.5750	 6.3020
 2.5760	 6.4610
 2.5770	 6.2800
 2.5790	 6.6750
 2.5800	 6.7950
 2.5810	 6.3780
 2.5820	 6.3170
 2.5840	 6.0730
 2.5850	 6.0750
 2.5860	 6.4020
 2.5880	 6.1270
 2.5890	 6.2120
 2.5900	 6.4520
 2.5910	 6.6520
 2.5930	 6.3570
 2.5940	 5.5520
 2.5950	 4.8480
 2.5970	 5.5960
 2.5980	 6.3930
 2.5990	 6.7290
 2.6010	 6.5910
 2.6020	 6.3190
 2.6030	 6.0660
 2.6040	 5.7400
 2.6060	 5.4510
 2.6070	 5.7450
 2.6080	 6.0500
 2.6100	 6.1240
 2.6110	 6.2860
 2.6120	 6.3720
 2.6140	 6.1580
 2.6150	 6.1890
 2.6160	 5.6620
 2.6180	 5.3170
 2.6190	 5.7310
 2.6200	 5.6380
 2.6220	 5.7130
 2.6230	 6.1890
 2.6240	 6.2220
 2.6260	 5.9820
 2.6270	 5.5220
 2.6280	 5.7170
 2.6300	 5.5040
 2.6310	 5.0510
 2.6320	 5.4220
 2.6340	 5.5560
 2.6350	 5.5600
 2.6360	 5.9270
 2.6380	 5.9490
 2.6390	 5.9120
 2.6400	 5.8490
 2.6420	 5.7470
 2.6430	 5.6800
 2.6440	 5.7430
 2.6460	 5.4480
 2.6470	 5.4350
 2.6480	 5.6320
 2.6500	 5.6630
 2.6510	 5.4880
 2.6520	 5.2200
 2.6540	 5.2160
 2.6550	 5.2880
 2.6570	 5.2320
 2.6580	 5.3990
 2.6590	 5.1110
 2.6610	 5.0140
 2.6620	 5.0430
 2.6630	 5.0350
 2.6650	 4.5270
 2.6660	 4.1210
 2.6670	 4.1640
 2.6690	 4.5080
 2.6700	 4.0960
 2.6720	 4.1450
 2.6730	 4.7460
 2.6740	 4.7940
 2.6760	 4.4560
 2.6770	 4.1180
 2.6780	 4.1650
 2.6800	 4.3730
 2.6810	 4.8000
 2.6830	 4.9200
 2.6840	 4.7030
 2.6850	 4.6700
 2.6870	 4.6740
 2.6880	 4.8370
 2.6900	 4.9050
 2.6910	 4.9420
 2.6920	 4.6980
 2.6940	 4.2870
 2.6950	 4.1730
 2.6970	 4.4360
 2.6980	 4.6490
 2.6990	 4.7330
 2.7010	 4.6030
 2.7020	 4.5810
 2.7040	 4.7280
 2.7050	 4.7750
 2.7060	 4.7990
 2.7080	 4.7100
 2.7090	 4.2960
 2.7110	 3.9730
 2.7120	 4.1100
 2.7130	 4.6260
 2.7150	 4.7560
 2.7160	 4.7150
 2.7180	 4.4950
 2.7190	 4.2310
 2.7210	 3.7260
 2.7220	 3.9180
 2.7230	 4.1490
 2.7250	 3.9690
 2.7260	 4.2130
 2.7280	 4.6110
 2.7290	 4.7090
 2.7310	 4.7430
 2.7320	 4.6780
 2.7340	 4.5700
 2.7350	 4.2220
 2.7360	 4.2800
 2.7380	 4.2970
 2.7390	 3.7870
 2.7410	 3.4870
 2.7420	 3.7680
 2.7440	 4.2850
 2.7450	 4.4940
 2.7470	 4.4250
 2.7480	 4.4730
 2.7490	 4.4850
 2.7510	 4.4460
 2.7520	 4.3230
 2.7540	 4.2140
 2.7550	 3.7150
 2.7570	 3.8230
 2.7580	 4.2970
 2.7600	 4.4930
 2.7610	 4.3200
 2.7630	 4.0710
 2.7640	 4.0410
 2.7660	 4.1900
 2.7670	 4.1190
 2.7690	 4.0990
 2.7700	 4.0920
 2.7720	 4.0360
 2.7730	 4.1330
 2.7740	 4.3560
 2.7760	 4.3480
 2.7770	 4.2830
 2.7790	 4.2860
 2.7800	 4.3210
 2.7820	 4.2790
 2.7830	 4.3240
 2.7850	 4.3120
 2.7860	 4.0860
 2.7880	 3.8990
 2.7890	 4.1360
 2.7910	 4.3420
 2.7920	 4.4490
 2.7940	 4.4120
 2.7950	 4.4270
 2.7970	 4.4310
 2.7980	 4.4760
 2.8000	 4.4520
 2.8010	 4.3410
 2.8030	 4.0210
 2.8040	 4.0050
 2.8060	 4.2400
 2.8080	 4.4180
 2.8090	 4.3510
 2.8110	 4.3640
 2.8120	 4.3900
 2.8140	 4.3870
 2.8150	 4.3030
 2.8170	 4.3470
 2.8180	 4.3400
 2.8200	 4.2360
 2.8210	 4.1910
 2.8230	 4.3500
 2.8240	 4.5070
 2.8260	 4.5150
 2.8270	 4.4250
 2.8290	 4.4300
 2.8310	 4.3750
 2.8320	 4.4130
 2.8340	 4.4350
 2.8350	 4.3540
 2.8370	 4.2600
 2.8380	 4.3000
 2.8400	 4.3270
 2.8410	 4.3930
 2.8430	 4.4210
 2.8440	 4.4720
 2.8460	 4.4460
 2.8480	 4.4610
 2.8490	 4.4460
 2.8510	 4.4910
 2.8520	 4.4470
 2.8540	 4.3970
 2.8550	 4.3540
 2.8570	 4.4180
 2.8590	 4.4180
 2.8600	 4.4950
 2.8620	 4.5340
 2.8630	 4.5730
 2.8650	 4.5240
 2.8660	 4.4880
 2.8680	 4.4390
 2.8700	 4.4710
 2.8710	 4.4710
 2.8730	 4.4830
 2.8740	 4.4550
 2.8760	 4.4880
 2.8780	 4.4890
 2.8790	 4.4710
 2.8810	 4.4200
 2.8820	 4.4850
 2.8840	 4.4330
 2.8860	 4.4350
 2.8870	 4.4510
 2.8890	 4.5320
 2.8900	 4.5080
 2.8920	 4.5110
 2.8940	 4.4890
 2.8950	 4.5160
 2.8970	 4.5530
 2.8990	 4.5790
 2.9000	 4.5130
 2.9020	 4.4720
 2.9030	 4.4650
 2.9050	 4.4970
 2.9070	 4.4680
 2.9080	 4.4800
 2.9100	 4.4950
 2.9120	 4.5930
 2.9130	 4.5860
 2.9150	 4.5240
 2.9160	 4.4630
 2.9180	 4.5860
 2.9200	 4.5890
 2.9210	 4.5500
 2.9230	 4.5490
 2.9250	 4.5850
 2.9260	 4.5210
 2.9280	 4.5270
 2.9300	 4.5280
 2.9310	 4.5290
 2.9330	 4.5180
 2.9350	 4.5610
 2.9360	 4.5080
 2.9380	 4.5360
 2.9400	 4.5810
 2.9410	 4.6260
 2.9430	 4.5880
 2.9450	 4.6010
 2.9460	 4.5550
 2.9480	 4.5380
 2.9500	 4.5170
 2.9510	 4.5320
 2.9530	 4.5120
 2.9550	 4.5470
 2.9560	 4.5560
 2.9580	 4.6210
 2.9600	 4.6080
 2.9610	 4.5800
 2.9630	 4.5190
 2.9650	 4.5210
 2.9670	 4.5070
 2.9680	 4.5890
 2.9700	 4.5990
 2.9720	 4.6230
 2.9730	 4.6560
 2.9750	 4.6800
 2.9770	 4.6130
 2.9780	 4.6140
 2.9800	 4.6200
 2.9820	 4.6460
 2.9840	 4.6390
 2.9850	 4.6890
 2.9870	 4.6960
 2.9890	 4.7090
 2.9900	 4.6470
 2.9920	 4.6400
 2.9940	 4.6850
 2.9960	 4.6990
 2.9970	 4.6380
 2.9990	 4.6710
 3.0010	 4.6650
 3.0030	 4.6520
 3.0040	 4.6350
 3.0060	 4.6910
 3.0080	 4.6270
 3.0100	 4.6280
 3.0110	 4.6490
 3.0130	 4.6680
 3.0150	 4.5980
 3.0170	 4.5860
 3.0180	 4.6240
 3.0200	 4.7230
 3.0220	 4.6860
 3.0240	 4.6820
 3.0250	 4.6840
 3.0270	 4.7120
 3.0290	 4.6600
 3.0310	 4.6930
 3.0320	 4.6860
 3.0340	 4.6900
 3.0360	 4.6490
 3.0380	 4.7070
 3.0400	 4.7010
 3.0410	 4.6970
 3.0430	 4.6860
 3.0450	 4.7010
 3.0470	 4.6620
 3.0480	 4.7310
 3.0500	 4.6840
 3.0520	 4.6920
 3.0540	 4.6890
 3.0560	 4.6770
 3.0570	 4.6480
 3.0590	 4.6800
 3.0610	 4.6760
 3.0630	 4.6580
 3.0650	 4.6220
 3.0670	 4.6980
 3.0680	 4.7020
 3.0700	 4.7010
 3.0720	 4.7240
 3.0740	 4.7790
 3.0760	 4.7990
 3.0770	 4.8050
 3.0790	 4.7020
 3.0810	 4.6850
 3.0830	 4.6340
 3.0850	 4.6430
 3.0870	 4.6830
 3.0880	 4.7550
 3.0900	 4.7440
 3.0920	 4.7090
 3.0940	 4.6580
 3.0960	 4.6920
 3.0980	 4.7010
 3.1000	 4.7180
 3.1010	 4.6810
 3.1030	 4.7300
 3.1050	 4.7640
 3.1070	 4.7570
 3.1090	 4.7090
 3.1110	 4.7330
 3.1130	 4.7410
 3.1140	 4.7620
 3.1160	 4.7110
 3.1180	 4.7660
 3.1200	 4.7420
 3.1220	 4.7260
 3.1240	 4.6960
 3.1260	 4.7500
 3.1280	 4.7630
 3.1290	 4.7710
 3.1310	 4.7320
 3.1330	 4.7510
 3.1350	 4.7360
 3.1370	 4.7120
 3.1390	 4.6780
 3.1410	 4.7310
 3.1430	 4.7260
 3.1450	 4.7220
 3.1470	 4.6910
 3.1480	 4.7440
 3.1500	 4.7490
 3.1520	 4.7350
 3.1540	 4.7100
 3.1560	 4.7470
 3.1580	 4.7280
 3.1600	 4.6950
 3.1620	 4.6940
 3.1640	 4.7710
 3.1660	 4.7440
 3.1680	 4.7370
 3.1700	 4.7200
 3.1720	 4.7280
 3.1730	 4.6960
 3.1750	 4.7000
 3.1770	 4.6530
 3.1790	 4.6960
 3.1810	 4.7260
 3.1830	 4.7710
 3.1850	 4.7960
 3.1870	 4.7690
 3.1890	 4.6930
 3.1910	 4.6640
 3.1930	 4.6820
 3.1950	 4.7150
 3.1970	 4.6620
 3.1990	 4.6700
 3.2010	 4.6920
 3.2030	 4.7160
 3.2050	 4.6580
 3.2070	 4.6240
 3.2090	 4.6080
 3.2110	 4.6830
 3.2130	 4.6760
 3.2150	 4.6560
 3.2170	 4.6750
 3.2190	 4.7470
 3.2210	 4.7240
 3.2230	 4.6970
 3.2250	 4.6660
 3.2270	 4.7040
 3.2290	 4.7200
 3.2310	 4.7020
 3.2330	 4.6810
 3.2350	 4.7020
 3.2370	 4.6950
 3.2390	 4.6810
 3.2410	 4.6620
 3.2430	 4.7080
 3.2450	 4.6740
 3.2470	 4.6960
 3.2490	 4.7100
 3.2510	 4.7110
 3.2530	 4.6670
 3.2550	 4.7370
 3.2570	 4.7520
 3.2590	 4.7390
 3.2610	 4.7090
 3.2630	 4.7380
 3.2650	 4.7220
 3.2670	 4.7220
 3.2700	 4.7030
 3.2720	 4.6790
 3.2740	 4.6600
 3.2760	 4.6980
 3.2780	 4.6900
 3.2800	 4.7210
 3.2820	 4.7440
 3.2840	 4.7500
 3.2860	 4.7130
 3.2880	 4.6840
 3.2900	 4.6820
 3.2920	 4.6980
 3.2940	 4.6500
 3.2970	 4.6770
 3.2990	 4.6640
 3.3010	 4.6570
 3.3030	 4.6740
 3.3050	 4.6650
 3.3070	 4.6260
 3.3090	 4.6620
 3.3110	 4.6150
 3.3130	 4.5880
 3.3160	 4.5810
 3.3180	 4.6070
 3.3200	 4.5570
 3.3220	 4.5910
 3.3240	 4.6460
 3.3260	 4.6710
 3.3280	 4.6100
 3.3300	 4.6070
 3.3330	 4.6010
 3.3350	 4.5850
 3.3370	 4.5680
 3.3390	 4.5960
 3.3410	 4.5520
 3.3430	 4.5200
 3.3450	 4.5040
 3.3480	 4.5550
 3.3500	 4.5500
 3.3520	 4.5390
 3.3540	 4.5290
 3.3560	 4.5520
 3.3580	 4.5000
 3.3610	 4.4970
 3.3630	 4.4900
 3.3650	 4.5560
 3.3670	 4.5680
 3.3690	 4.5270
 3.3720	 4.4580
 3.3740	 4.4870
 3.3760	 4.4780
 3.3780	 4.5050
 3.3800	 4.5050
 3.3830	 4.5200
 3.3850	 4.4920
 3.3870	 4.4590
 3.3890	 4.4200
 3.3910	 4.4500
 3.3940	 4.4380
 3.3960	 4.4580
 3.3980	 4.4570
 3.4000	 4.5090
 3.4030	 4.5110
 3.4050	 4.5350
 3.4070	 4.5650
 3.4090	 4.6610
 3.4110	 4.6960
 3.4140	 4.7890
 3.4160	 4.9100
 3.4180	 5.0370
 3.4200	 5.1960
 3.4230	 5.4650
 3.4250	 5.7320
 3.4270	 5.9730
 3.4300	 6.0740
 3.4320	 5.9140
 3.4340	 5.6730
 3.4360	 5.4840
 3.4390	 5.3570
 3.4410	 5.3310
 3.4430	 5.2790
 3.4450	 5.2610
 3.4480	 5.2220
 3.4500	 5.1990
 3.4520	 5.1560
 3.4550	 5.1700
 3.4570	 5.1530
 3.4590	 5.1590
 3.4620	 5.1180
 3.4640	 5.0750
 3.4660	 5.0100
 3.4690	 5.0110
 3.4710	 5.0100
 3.4730	 4.9890
 3.4760	 4.9160
 3.4780	 4.9340
 3.4800	 4.9190
 3.4830	 4.9270
 3.4850	 4.9130
 3.4870	 4.9040
 3.4900	 4.8650
 3.4920	 4.8750
 3.4940	 4.8300
 3.4970	 4.8560
 3.4990	 4.8910
 3.5010	 4.9700
 3.5040	 5.0780
 3.5060	 5.3670
 3.5080	 5.7120
 3.5110	 5.9440
 3.5130	 5.8460
 3.5160	 5.6320
 3.5180	 5.4350
 3.5200	 5.3340
 3.5230	 5.2720
 3.5250	 5.2560
 3.5280	 5.2120
 3.5300	 5.2190
 3.5320	 5.1920
 3.5350	 5.1350
 3.5370	 5.0700
 3.5400	 5.0300
 3.5420	 5.0330
 3.5440	 5.0740
 3.5470	 5.0660
 3.5490	 5.0650
 3.5520	 5.0530
 3.5540	 5.0700
 3.5570	 5.0460
 3.5590	 5.0700
 3.5610	 5.0810
 3.5640	 5.0970
 3.5660	 5.0690
 3.5690	 5.0770
 3.5710	 5.0380
 3.5740	 5.0590
 3.5760	 5.0460
 3.5790	 5.0350
 3.5810	 5.0140
 3.5840	 4.9980
 3.5860	 4.9830
 3.5890	 5.0200
 3.5910	 4.9990
 3.5940	 4.9610
 3.5960	 4.9550
 3.5990	 5.0310
 3.6010	 5.0610
 3.6040	 5.0230
 3.6060	 4.9950
 3.6090	 5.0320
 3.6110	 5.0290
 3.6140	 5.0420
 3.6160	 5.0320
 3.6190	 5.0160
 3.6210	 4.9930
 3.6240	 4.9840
 3.6260	 4.9460
 3.6290	 4.9850
 3.6310	 4.9760
 3.6340	 4.9770
 3.6360	 4.9860
 3.6390	 4.9990
 3.6410	 4.9720
 3.6440	 4.9930
 3.6470	 4.9860
 3.6490	 4.9640
 3.6520	 4.9740
 3.6540	 4.9810
 3.6570	 4.9610
 3.6590	 4.9860
 3.6620	 5.0130
 3.6650	 5.0570
 3.6670	 5.0200
 3.6700	 4.9800
 3.6720	 4.9510
 3.6750	 4.9660
 3.6780	 4.9810
 3.6800	 5.0170
 3.6830	 4.9910
 3.6850	 4.9750
 3.6880	 4.9630
 3.6910	 4.9460
 3.6930	 4.9320
 3.6960	 4.9730
 3.6990	 4.9570
 3.7010	 4.9820
 3.7040	 4.9880
 3.7070	 4.9520
 3.7090	 4.9210
 3.7120	 4.9580
 3.7150	 4.9570
 3.7170	 4.9650
 3.7200	 4.9340
 3.7230	 4.9400
 3.7250	 4.9480
 3.7280	 4.9500
 3.7310	 4.9200
 3.7330	 4.9350
 3.7360	 4.9350
 3.7390	 4.9370
 3.7410	 4.9440
 3.7440	 4.9440
 3.7470	 4.9590
 3.7490	 5.0120
 3.7520	 4.9980
 3.7550	 4.9930
 3.7580	 4.9880
 3.7600	 5.0000
 3.7630	 4.9850
 3.7660	 4.9970
 3.7690	 4.9870
 3.7710	 4.9710
 3.7740	 4.9520
 3.7770	 4.9680
 3.7790	 4.9750
 3.7820	 5.0010
 3.7850	 4.9930
 3.7880	 5.0150
 3.7910	 5.0000
 3.7930	 4.9930
 3.7960	 4.9810
 3.7990	 5.0060
 3.8020	 5.0240
 3.8040	 5.0510
 3.8070	 5.0300
 3.8100	 5.0410
 3.8130	 5.0180
 3.8160	 4.9980
 3.8180	 5.0030
 3.8210	 5.0530
 3.8240	 5.0590
 3.8270	 5.0410
 3.8300	 5.0280
 3.8330	 5.0280
 3.8350	 5.0080
 3.8380	 5.0040
 3.8410	 4.9840
 3.8440	 4.9820
 3.8470	 5.0160
 3.8500	 5.0560
 3.8520	 5.0420
 3.8550	 5.0230
 3.8580	 5.0110
 3.8610	 5.0380
 3.8640	 5.0400
 3.8670	 5.0350
 3.8700	 5.0200
 3.8730	 5.0250
 3.8760	 5.0470
 3.8780	 5.0850
 3.8810	 5.0980
 3.8840	 5.0690
 3.8870	 5.0100
 3.8900	 5.0330
 3.8930	 5.0420
 3.8960	 5.0360
 3.8990	 5.0280
 3.9020	 5.0590
 3.9050	 5.0610
 3.9080	 5.0740
 3.9110	 5.0700
 3.9140	 5.0720
 3.9170	 5.0610
 3.9190	 5.0510
 3.9220	 5.0500
 3.9250	 5.0810
 3.9280	 5.0600
 3.9310	 5.0440
 3.9340	 5.0940
 3.9370	 5.1380
 3.9400	 5.1380
 3.9430	 5.1320
 3.9460	 5.1140
 3.9490	 5.1110
 3.9520	 5.1310
 3.9550	 5.1550
 3.9580	 5.1310
 3.9610	 5.0940
 3.9640	 5.1160
 3.9670	 5.1650
 3.9700	 5.1510
 3.9740	 5.1260
 3.9770	 5.1260
 3.9800	 5.1410
 3.9830	 5.1360
 3.9860	 5.1460
 3.9890	 5.1550
 3.9920	 5.1560
 3.9950	 5.1400
 3.9980	 5.1630
 4.0010	 5.1800
 4.0040	 5.1520
 4.0070	 5.1350
 4.0100	 5.1610
 4.0140	 5.1790
 4.0170	 5.1890
 4.0200	 5.1590
 4.0230	 5.1700
 4.0260	 5.1930
 4.0290	 5.2040
 4.0320	 5.1690
 4.0350	 5.1340
 4.0390	 5.1410
 4.0420	 5.1720
 4.0450	 5.1450
 4.0480	 5.1760
 4.0510	 5.2010
 4.0540	 5.1690
 4.0570	 5.1570
 4.0610	 5.1770
 4.0640	 5.1620
 4.0670	 5.1660
 4.0700	 5.1580
 4.0730	 5.1780
 4.0770	 5.1620
 4.0800	 5.1480
 4.0830	 5.1540
 4.0860	 5.1820
 4.0890	 5.1710
 4.0930	 5.1710
 4.0960	 5.1930
 4.0990	 5.1760
 4.1020	 5.1330
 4.1060	 5.1350
 4.1090	 5.1860
 4.1120	 5.2170
 4.1150	 5.2140
 4.1190	 5.1660
 4.1220	 5.1330
 4.1250	 5.1580
 4.1290	 5.1580
 4.1320	 5.1680
 4.1350	 5.1650
 4.1380	 5.1620
 4.1420	 5.1660
 4.1450	 5.1540
 4.1480	 5.1140
 4.1520	 5.1360
 4.1550	 5.1430
 4.1580	 5.1680
 4.1620	 5.1810
 4.1650	 5.1430
 4.1680	 5.1130
 4.1720	 5.1330
 4.1750	 5.1230
 4.1780	 5.1370
 4.1820	 5.1620
 4.1850	 5.1600
 4.1890	 5.1280
 4.1920	 5.0730
 4.1950	 5.1050
 4.1990	 5.1410
 4.2020	 5.1000
 4.2060	 5.1190
 4.2090	 5.1110
 4.2120	 5.1120
 4.2160	 5.1740
 4.2190	 5.2150
 4.2230	 5.1720
 4.2260	 5.2270
 4.2300	 5.2760
 4.2330	 5.3210
 4.2360	 5.2640
 4.2400	 5.1770
 4.2430	 5.0950
 4.2470	 5.0730
 4.2500	 5.1130
 4.2540	 5.1540
 4.2570	 5.1660
 4.2610	 5.1420
 4.2640	 5.1310
 4.2680	 5.1730
 4.2710	 5.1690
 4.2750	 5.1900
 4.2780	 5.1650
 4.2820	 5.1130
 4.2850	 5.0740
 4.2890	 5.1060
 4.2930	 5.0920
 4.2960	 5.0580
 4.3000	 5.0900
 4.3030	 5.0790
 4.3070	 5.0610
 4.3100	 5.0790
 4.3140	 5.0820
 4.3180	 5.0470
 4.3210	 5.0350
 4.3250	 5.0650
 4.3280	 5.0330
 4.3320	 4.9820
 4.3360	 4.9700
 4.3390	 4.9740
 4.3430	 4.9780
 4.3470	 4.9840
 4.3500	 4.9620
 4.3540	 4.9680
 4.3580	 4.9890
 4.3610	 4.9810
 4.3650	 4.9750
 4.3690	 4.9500
 4.3720	 4.9700
 4.3760	 5.0120
 4.3800	 4.9910
 4.3830	 4.9620
 4.3870	 4.9480
 4.3910	 4.9530
 4.3940	 4.9520
 4.3980	 4.9150
 4.4020	 4.9090
 4.4060	 4.9310
 4.4090	 4.9370
 4.4130	 4.9520
 4.4170	 4.9680
 4.4210	 4.9680
 4.4240	 4.9210
 4.4280	 4.8780
 4.4320	 4.9200
 4.4360	 4.9780
 4.4400	 4.9710
 4.4430	 4.9130
 4.4470	 4.8720
 4.4510	 4.8780
 4.4550	 4.8810
 4.4590	 4.9240
 4.4630	 4.9530
 4.4660	 4.9110
 4.4700	 4.8910
 4.4740	 4.8830
 4.4780	 4.8840
 4.4820	 4.8790
 4.4860	 4.8730
 4.4900	 4.8740
 4.4930	 4.8510
 4.4970	 4.8380
 4.5010	 4.8290
 4.5050	 4.8480
 4.5090	 4.8890
 4.5130	 4.8680
 4.5170	 4.8450
 4.5210	 4.8620
 4.5250	 4.8880
 4.5290	 4.8780
 4.5330	 4.8360
 4.5370	 4.8270
 4.5410	 4.8410
 4.5450	 4.8340
 4.5490	 4.8070
 4.5530	 4.8010
 4.5570	 4.8010
 4.5610	 4.8090
 4.5650	 4.8060
 4.5690	 4.8020
 4.5730	 4.7990
 4.5770	 4.7940
 4.5810	 4.8140
 4.5850	 4.8440
 4.5890	 4.8230
 4.5930	 4.7990
 4.5970	 4.7980
 4.6010	 4.8160
 4.6050	 4.8340
 4.6090	 4.8190
 4.6130	 4.7960
 4.6170	 4.8020
 4.6220	 4.8220
 4.6260	 4.8170
 4.6300	 4.8020
 4.6340	 4.7810
 4.6380	 4.7790
 4.6420	 4.7780
 4.6460	 4.7720
 4.6510	 4.7850
 4.6550	 4.7870
 4.6590	 4.7580
 4.6630	 4.7670
 4.6670	 4.8010
 4.6720	 4.7920
 4.6760	 4.7750
 4.6800	 4.7750
 4.6840	 4.7610
 4.6880	 4.7530
 4.6930	 4.7430
 4.6970	 4.7720
 4.7010	 4.7980
 4.7050	 4.7860
 4.7100	 4.7710
 4.7140	 4.7770
 4.7180	 4.7690
 4.7230	 4.7800
 4.7270	 4.7720
 4.7310	 4.7810
 4.7360	 4.7920
 4.7400	 4.7890
 4.7440	 4.7550
 4.7490	 4.7930
 4.7530	 4.8030
 4.7570	 4.7620
 4.7620	 4.7560
 4.7660	 4.7980
 4.7700	 4.8030
 4.7750	 4.8050
 4.7790	 4.7940
 4.7840	 4.7930
 4.7880	 4.8020
 4.7920	 4.7950
 4.7970	 4.7880
 4.8010	 4.8020
 4.8060	 4.7810
 4.8100	 4.7820
 4.8150	 4.7860
 4.8190	 4.7790
 4.8240	 4.7580
 4.8280	 4.7640
 4.8330	 4.7370
 4.8370	 4.7510
 4.8420	 4.7500
 4.8460	 4.7700
 4.8510	 4.7740
 4.8550	 4.7730
 4.8600	 4.7770
 4.8640	 4.7540
 4.8690	 4.7450
 4.8740	 4.7630
 4.8780	 4.7580
 4.8830	 4.7700
 4.8870	 4.7810
 4.8920	 4.7760
 4.8970	 4.7660
 4.9010	 4.7920
 4.9060	 4.8100
 4.9100	 4.7960
 4.9150	 4.7870
 4.9200	 4.8060
 4.9240	 4.7840
 4.9290	 4.7750
 4.9340	 4.7640
 4.9390	 4.7560
 4.9430	 4.7570
 4.9480	 4.7990
 4.9530	 4.8100
 4.9570	 4.7910
 4.9620	 4.8080
 4.9670	 4.8110
 4.9720	 4.7880
 4.9760	 4.8150
 4.9810	 4.8030
 4.9860	 4.8160
 4.9910	 4.8240
 4.9960	 4.8250
 5.0000	 4.8070
 5.0050	 4.8290
 5.0100	 4.8470
 5.0150	 4.8160
 5.0200	 4.7630
 5.0250	 4.7940
 5.0300	 4.7660
 5.0340	 4.7630
 5.0390	 4.8070
 5.0440	 4.8570
 5.0490	 4.8280
 5.0540	 4.8020
 5.0590	 4.8200
 5.0640	 4.8250
 5.0690	 4.8330
 5.0740	 4.8610
 5.0790	 4.8250
 5.0840	 4.7900
 5.0890	 4.8480
 5.0940	 4.8780
 5.0990	 4.8550
 5.1040	 4.8600
 5.1090	 4.8470
 5.1140	 4.8560
 5.1190	 4.8570
 5.1240	 4.8810
 5.1290	 4.8990
 5.1340	 4.8790
 5.1390	 4.8210
 5.1440	 4.7760
 5.1490	 4.7540
 5.1550	 4.8810
 5.1600	 4.8930
 5.1650	 4.8710
 5.1700	 4.8620
 5.1750	 4.8640
 5.1800	 4.8260
 5.1850	 4.8490
 5.1910	 4.8740
 5.1960	 4.8290
 5.2010	 4.7350
 5.2060	 4.7980
 5.2110	 4.7040
 5.2170	 4.6970
 5.2220	 4.8580
 5.2270	 4.9080
 5.2330	 4.8870
 5.2380	 4.8610
 5.2430	 4.8690
 5.2480	 4.9240
 5.2540	 4.9060
 5.2590	 4.8890
 5.2640	 4.8750
 5.2700	 4.8660
 5.2750	 4.7950
 5.2800	 4.8050
 5.2860	 4.8080
 5.2910	 4.7060
 5.2970	 4.7440
 5.3020	 4.8340
 5.3080	 4.8450
 5.3130	 4.8820
 5.3180	 4.8750
 5.3240	 4.8860
 5.3290	 4.8710
 5.3350	 4.9110
 5.3400	 4.8540
 5.3460	 4.6460
 5.3510	 4.4700
 5.3570	 4.6270
 5.3620	 4.8040
 5.3680	 4.8820
 5.3740	 4.8580
 5.3790	 4.8630
 5.3850	 4.8410
 5.3900	 4.8540
 5.3960	 4.8170
 5.4010	 4.8290
 5.4070	 4.7740
 5.4130	 4.7030
 5.4180	 4.4540
 5.4240	 4.2950
 5.4300	 4.6060
 5.4350	 4.7700
 5.4410	 4.6990
 5.4470	 4.6780
 5.4530	 4.6800
 5.4580	 4.5960
 5.4640	 4.3270
 5.4700	 4.4320
 5.4760	 4.4800
 5.4810	 4.4460
 5.4870	 4.6130
 5.4930	 4.6820
 5.4990	 4.6450
 5.5050	 4.6330
 5.5110	 4.6530
 5.5160	 4.5700
 5.5220	 4.4740
 5.5280	 4.5390
 5.5340	 4.5950
 5.5400	 4.5700
 5.5460	 4.4690
 5.5520	 4.3360
 5.5580	 4.2960
 5.5640	 4.3760
 5.5700	 4.3590
 5.5760	 4.1000
 5.5820	 3.9890
 5.5880	 4.3390
 5.5940	 4.4940
 5.6000	 4.4030
 5.6060	 4.3450
 5.6120	 4.3120
 5.6180	 4.2320
 5.6240	 4.3360
 5.6300	 4.2650
 5.6360	 4.0120
 5.6420	 3.6830
 5.6490	 3.8620
 5.6550	 3.9840
 5.6610	 4.1140
 5.6670	 4.1850
 5.6730	 3.9390
 5.6800	 3.8940
 5.6860	 4.0140
 5.6920	 3.8890
 5.6980	 3.9820
 5.7050	 3.8590
 5.7110	 3.5170
 5.7170	 3.4550
 5.7230	 3.5630
 5.7300	 3.6790
 5.7360	 3.6750
 5.7420	 3.6120
 5.7490	 3.5560
 5.7550	 3.7530
 5.7620	 3.5110
 5.7680	 3.1840
 5.7740	 3.6900
 5.7810	 4.0410
 5.7870	 4.2620
 5.7940	 4.3680
 5.8000	 4.3670
 5.8070	 4.3970
 5.8130	 4.2480
 5.8200	 3.6620
 5.8260	 3.6120
 5.8330	 3.9540
 5.8390	 4.3190
 5.8460	 4.4620
 5.8530	 4.4480
 5.8590	 4.2270
 5.8660	 4.1640
 5.8730	 4.2140
 5.8790	 3.6240
 5.8860	 3.6400
 5.8930	 3.8540
 5.8990	 3.8090
 5.9060	 4.4300
 5.9130	 4.5730
 5.9190	 4.4570
 5.9260	 4.3640
 5.9330	 3.7970
 5.9400	 3.4470
 5.9470	 4.1590
 5.9530	 4.4580
 5.9600	 4.4980
 5.9670	 4.0860
 5.9740	 4.1450
 5.9810	 4.2520
 5.9880	 3.9950
 5.9950	 4.1270
 6.0020	 4.5460
 6.0090	 4.4370
 6.0160	 4.2600
 6.0230	 4.5000
 6.0300	 4.6720
 6.0370	 4.4260
 6.0440	 3.6110
 6.0510	 3.0910
 6.0580	 3.9160
 6.0650	 4.0840
 6.0720	 3.7700
 6.0790	 4.0500
 6.0860	 4.5420
 6.0930	 4.5750
 6.1010	 4.4670
 6.1080	 4.0200
 6.1150	 3.7100
 6.1220	 4.2220
 6.1290	 4.6500
 6.1370	 4.5440
 6.1440	 4.4210
 6.1510	 4.4140
 6.1580	 4.2480
 6.1660	 4.3670
 6.1730	 4.5890
 6.1800	 4.1700
 6.1880	 4.0080
 6.1950	 4.4680
 6.2030	 4.6910
 6.2100	 4.5820
 6.2180	 4.5720
 6.2250	 4.6410
 6.2320	 4.6750
 6.2400	 4.6580
 6.2480	 4.7290
 6.2550	 4.7160
 6.2630	 4.6830
 6.2700	 4.6320
 6.2780	 4.7040
 6.2850	 4.7070
 6.2930	 4.7160
 6.3010	 4.6930
 6.3080	 4.7110
 6.3160	 4.6780
 6.3240	 4.6930
 6.3310	 4.6460
 6.3390	 4.2150
 6.3470	 3.9590
 6.3550	 4.4500
 6.3620	 4.4490
 6.3700	 4.0900
 6.3780	 4.2520
 6.3860	 4.4590
 6.3940	 4.4030
 6.4020	 4.2380
 6.4100	 3.2760
 6.4180	 2.9930
 6.4260	 3.6670
 6.4340	 3.9750
 6.4420	 4.1910
 6.4500	 4.2350
 6.4580	 4.2610
 6.4660	 4.2740
 6.4740	 3.8500
 6.4820	 3.5530
 6.4900	 3.1560
 6.4980	 3.3350
 6.5060	 3.9710
 6.5140	 4.0870
 6.5230	 3.8570
 6.5310	 4.1750
 6.5390	 4.1910
 6.5470	 3.9860
 6.5560	 3.8090
 6.5640	 3.7070
 6.5720	 3.3300
 6.5800	 3.5840
 6.5890	 3.7140
 6.5970	 3.8750
 6.6060	 4.1610
 6.6140	 4.1280
 6.6230	 3.8980
 6.6310	 3.3590
 6.6390	 3.1240
 6.6480	 3.8810
 6.6570	 4.3240
 6.6650	 4.2330
 6.6740	 3.9670
 6.6820	 3.9060
 6.6910	 4.1570
 6.7000	 4.2550
 6.7080	 3.8580
 6.7170	 3.8160
 6.7260	 4.0160
 6.7340	 4.3100
 6.7430	 4.3470
 6.7520	 4.2990
 6.7610	 4.2890
 6.7690	 4.1110
 6.7780	 3.8710
 6.7870	 3.6440
 6.7960	 3.6820
 6.8050	 4.1640
 6.8140	 4.2320
 6.8230	 4.0560
 6.8320	 4.1260
 6.8410	 4.4450
 6.8500	 4.1020
 6.8590	 3.4820
 6.8680	 3.4740
 6.8770	 4.1780
 6.8860	 4.3970
 6.8960	 4.4420
 6.9050	 4.2840
 6.9140	 4.4240
 6.9230	 4.4920
 6.9320	 4.5280
 6.9420	 4.5350
 6.9510	 4.3420
 6.9600	 3.9140
 6.9700	 4.2650
 6.9790	 4.4870
 6.9880	 4.3870
 6.9980	 4.3540
 7.0070	 4.5190
 7.0170	 4.3670
 7.0260	 4.3700
 7.0360	 4.2820
 7.0450	 3.9110
 7.0550	 4.0150
 7.0650	 4.4290
 7.0740	 4.5560
 7.0840	 4.5760
 7.0940	 4.5260
 7.1030	 4.5600
 7.1130	 4.3920
 7.1230	 4.3860
 7.1330	 4.4130
 7.1420	 4.2440
 7.1520	 4.1130
 7.1620	 4.1550
 7.1720	 4.0910
 7.1820	 4.3600
 7.1920	 4.3940
 7.2020	 4.2440
 7.2120	 4.1590
 7.2220	 4.3850
 7.2320	 4.4300
 7.2420	 4.4560
 7.2520	 4.3750
 7.2620	 4.4040
 7.2730	 4.2290
 7.2830	 4.2530
 7.2930	 4.3420
 7.3030	 4.3990
 7.3140	 4.4010
 7.3240	 4.4250
 7.3340	 4.2210
 7.3450	 4.2930
 7.3550	 4.4210
 7.3660	 4.5270
 7.3760	 4.4750
 7.3870	 4.5130
 7.3970	 4.4780
 7.4080	 4.4990
 7.4180	 4.4640
 7.4290	 4.5040
 7.4400	 4.4470
 7.4500	 4.4260
 7.4610	 4.2570
 7.4720	 4.2600
 7.4830	 4.2860
 7.4930	 4.3640
 7.5040	 4.3530
 7.5150	 4.4150
 7.5260	 4.4180
 7.5370	 4.4520
 7.5480	 4.3800
 7.5590	 4.4000
 7.5700	 4.3620
 7.5810	 4.3640
 7.5920	 4.2930
 7.6030	 4.3550
 7.6140	 4.3350
 7.6260	 4.4030
 7.6370	 4.3970
 7.6480	 4.4150
 7.6590	 4.3530
 7.6710	 4.3700
 7.6820	 4.3590
 7.6940	 4.4330
 7.7050	 4.3710
 7.7160	 4.4060
 7.7280	 4.3780
 7.7390	 4.3920
 7.7510	 4.3410
 7.7630	 4.3530
 7.7740	 4.3160
 7.7860	 4.3710
 7.7980	 4.3220
 7.8090	 4.3370
 7.8210	 4.2830
 7.8330	 4.3290
 7.8450	 4.2720
 7.8570	 4.2860
 7.8690	 4.2450
 7.8810	 4.3510
 7.8930	 4.3090
 7.9050	 4.3610
 7.9170	 4.3360
 7.9290	 4.3490
 7.9410	 4.3220
 7.9530	 4.4240
 7.9650	 4.3910
 7.9780	 4.4470
 7.9900	 4.3990
 8.0020	 4.3930
 8.0150	 4.3470
 8.0270	 4.4550
 8.0390	 4.4500
 8.0520	 4.5280
 8.0640	 4.4630
 8.0770	 4.5280
 8.0900	 4.4810
 8.1020	 4.5440
 8.1150	 4.5280
 8.1280	 4.6130
 8.1400	 4.5770
 8.1530	 4.6710
 8.1660	 4.5820
 8.1790	 4.6200
 8.1920	 4.5680
 8.2050	 4.6450
 8.2180	 4.6630
 8.2310	 4.7530
 8.2440	 4.6480
 8.2570	 4.6780
 8.2700	 4.5750
 8.2830	 4.5740
 8.2970	 4.5020
 8.3100	 4.6220
 8.3230	 4.5780
 8.3370	 4.6410
 8.3500	 4.6070
 8.3640	 4.7300
 8.3770	 4.6890
 8.3910	 4.7100
 8.4040	 4.6390
 8.4180	 4.7100
 8.4320	 4.6440
 8.4450	 4.7330
 8.4590	 4.6970
 8.4730	 4.7840
 8.4870	 4.6990
 8.5010	 4.7760
 8.5150	 4.7200
 8.5290	 4.7620
 8.5430	 4.7450
 8.5570	 4.9040
 8.5710	 4.8930
 8.5850	 4.9380
 8.5990	 4.9040
 8.6140	 4.9840
 8.6280	 4.9110
 8.6420	 4.9930
 8.6570	 4.9440
 8.6710	 5.0210
 8.6860	 4.9540
 8.7000	 5.0460
 8.7150	 5.0460
 8.7300	 5.0830
 8.7440	 4.9700
 8.7590	 5.0460
 8.7740	 4.9980
 8.7890	 5.0570
 8.8040	 4.9200
 8.8190	 4.9280
 8.8340	 4.8730
 8.8490	 4.9420
 8.8640	 4.8120
 8.8790	 4.8370
 8.8940	 4.7600
 8.9100	 4.8480
 8.9250	 4.7280
 8.9400	 4.7720
 8.9560	 4.7410
 8.9710	 4.8650
 8.9870	 4.7510
 9.0020	 4.7570
 9.0180	 4.6400
 9.0340	 4.7740
 9.0500	 4.7810
 9.0650	 4.8890
 9.0810	 4.8590
 9.0970	 4.9350
 9.1130	 4.8070
 9.1290	 4.9180
 9.1450	 4.9210
 9.1620	 4.9500
 9.1780	 4.8230
 9.1940	 4.9050
 9.2100	 4.7680
 9.2270	 4.8510
 9.2430	 4.7510
 9.2600	 4.8580
 9.2760	 4.8100
 9.2930	 4.8680
 9.3100	 4.7680
 9.3260	 4.8810
 9.3430	 4.7770
 9.3600	 4.7750
 9.3770	 4.7180
 9.3940	 4.8780
 9.4110	 4.8090
 9.4280	 4.9110
 9.4450	 4.8310
 9.4620	 4.9250
 9.4800	 4.9030
 9.4970	 5.0130
 9.5150	 4.8710
 9.5320	 4.8790
 9.5500	 4.7970
 9.5670	 4.9560
 9.5850	 4.8800
 9.6030	 4.9450
 9.6200	 4.8500
 9.6380	 4.9350
 9.6560	 4.7770
 9.6740	 4.8390
 9.6920	 4.8240
 9.7110	 4.9260
 9.7290	 4.8090
 9.7470	 4.9420
 9.7650	 4.8350
 9.7840	 4.8840
 9.8020	 4.8030
 9.8210	 4.9130
 9.8390	 4.8190
 9.8580	 4.8590
 9.8770	 4.7790
 9.8960	 4.8690
 9.9150	 4.7740
 9.9340	 4.8420
 9.9530	 4.8090
 9.9720	 4.8880
 9.9910	 4.7410
10.0100	 4.7840
10.0300	 4.7730
10.0490	 4.9340
10.0690	 4.8260
10.0880	 4.8690
10.1080	 4.7760
10.1280	 4.8320
10.1480	 4.7590
10.1670	 4.8740
10.1870	 4.8340
10.2070	 4.9190
10.2280	 4.8440
10.2480	 4.8750
10.2680	 4.7650
10.2890	 4.8730
10.3090	 4.8100
10.3300	 4.8630
10.3500	 4.7660
10.3710	 4.8800
10.3920	 4.7940
10.4120	 4.8310
10.4330	 4.7230
10.4540	 4.8490
10.4760	 4.7950
10.4970	 4.8460
10.5180	 4.7420
10.5390	 4.8480
10.5610	 4.7430
10.5820	 4.7700
10.6040	 4.7080
10.6260	 4.8650
10.6480	 4.7380
10.6700	 4.8320
10.6920	 4.7190
10.7140	 4.7690
10.7360	 4.7060
10.7580	 4.8110
10.7800	 4.7620
10.8030	 4.8000
10.8250	 4.6420
10.8480	 4.7620
10.8710	 4.6810
10.8940	 4.7370
10.9170	 4.6040
10.9400	 4.7320
10.9630	 4.6090
10.9860	 4.7190
11.0090	 4.6630
11.0330	 4.7360
11.0560	 4.6000
11.0800	 4.6570
11.1040	 4.5650
11.1270	 4.7060
11.1510	 4.5820
11.1750	 4.6380
11.2000	 4.5670
11.2240	 4.7350
11.2480	 4.6300
11.2730	 4.6980
11.2970	 4.6130
11.3220	 4.6860
11.3470	 4.5500
11.3720	 4.6910
11.3970	 4.5900
11.4220	 4.6720
11.4470	 4.4630
11.4720	 4.4390
11.4980	 4.4230
11.5230	 4.6180
11.5490	 4.5470
11.5750	 4.6630
11.6000	 4.5380
11.6260	 4.6550
11.6530	 4.5570
11.6790	 4.6340
11.7050	 4.4920
11.7320	 4.5990
11.7580	 4.4500
11.7850	 4.5570
11.8120	 4.4840
11.8390	 4.5750
11.8660	 4.3710
11.8930	 4.4810
11.9200	 4.3470
11.9480	 4.5030
11.9760	 4.4200
12.0030	 4.5230
12.0310	 4.4280
12.0590	 4.5880
12.0870	 4.4570
12.1150	 4.5600
12.1440	 4.4290
12.1720	 4.5620
12.2010	 4.4730
12.2300	 4.6130
12.2590	 4.4500
12.2880	 4.5690
12.3170	 4.4810
12.3460	 4.6750
12.3760	 4.4940
12.4050	 4.5900
12.4350	 4.4940
12.4650	 4.5910
12.4950	 4.3630
12.5250	 4.5440
12.5550	 4.4220
12.5860	 4.5650
12.6170	 4.4060
12.6470	 4.6300
12.6780	 4.5700
12.7090	 4.7500
12.7410	 4.5810
12.7720	 4.6380
12.8030	 4.4950
12.8350	 4.6900
12.8670	 4.5490
12.8990	 4.6470
12.9310	 4.4580
12.9640	 4.5790
12.9960	 4.3950
13.0290	 4.6140
13.0610	 4.5440
13.0940	 4.6100
13.1280	 4.4670
13.1610	 4.6810
13.1940	 4.4300
13.2280	 4.4540
13.2620	 4.3570
13.2960	 4.6680
13.3300	 4.5170
13.3640	 4.6350
13.3990	 4.4240
13.4340	 4.6210
13.4690	 4.4590
13.5040	 4.5810
13.5390	 4.3550
13.5740	 4.4900
13.6100	 4.3170
13.6460	 4.5740
13.6820	 4.4730
13.7180	 4.6230
13.7540	 4.4190
13.7910	 4.6260
13.8280	 4.3950
13.8650	 4.7010
13.9020	 4.6320
13.9390	 4.8560
13.9770	 4.6520
14.0150	 4.8190
14.0530	 4.5610
14.0910	 4.7740
14.1290	 4.4710
14.1680	 4.5860
14.2070	 4.4910
14.2460	 4.8310
14.2850	 4.5690
14.3240	 4.7000
14.3640	 4.4910
14.4040	 4.8180
14.4440	 4.5600
14.4840	 4.7310
14.5250	 4.4860
14.5660	 4.8300
14.6070	 4.5070
14.6480	 4.7490
14.6900	 4.5370
14.7310	 4.7980
14.7730	 4.2790
14.8150	 4.5960
14.8580	 4.5430
14.9010	 4.8500
14.9440	 4.3130
14.9870	 4.8660
15.0300	 4.6240
15.0740	 4.9670
15.1180	 4.3970
15.1620	 4.7650
15.2060	 4.6350
15.2510	 5.0340
15.2960	 4.4190
15.3410	 4.6070
15.3870	 4.2040
