Name: Salvia leucophylla 3
Type: vegetation
Class: Shrub
Genus: Salvia
Species: leucophylla
Sample No.: VH289
Owner: UCSB
Wavelength Range: TIR
Origin: 34.698; -120.0477; WGS84
Collection Date: 11/2/2013
Description: Samples were collected as part of the HyspIRI Airborne Campaign. 48 individual plants were sampled in three times in 2013 - spring  summer  and fall. The name of the sample includes a 1  2  or 3 which references a different individual of the species. Samples were taken to JPL and processed within 48 hours of collection. The same leaves were processed in the Nicolet and then measured using the ASD.
Measurement: Hemispherical reflectance
First Column: X
Second Column: Y
X Units: Wavelength (micrometers)
Y Units: Reflectance (percentage)
First X Value: 2.501
Last X Value: 15.387
Number of X Values: 1737
Additional Information: vegetation.shrub.salvia.leucophylla.tir.vh289.ucsb.nicolet.ancillary.txt

 2.5010	24.8150
 2.5030	24.7810
 2.5040	24.6770
 2.5050	24.5990
 2.5060	24.6090
 2.5070	24.5960
 2.5090	24.7820
 2.5100	24.8290
 2.5110	24.9210
 2.5120	24.8880
 2.5140	24.8580
 2.5150	24.8220
 2.5160	24.6750
 2.5170	24.6820
 2.5180	24.7590
 2.5200	24.7030
 2.5210	24.7060
 2.5220	24.7870
 2.5230	24.9030
 2.5250	24.8810
 2.5260	24.9800
 2.5270	24.9660
 2.5280	24.9230
 2.5290	24.8440
 2.5310	24.8430
 2.5320	24.7810
 2.5330	24.8020
 2.5340	24.9250
 2.5360	24.9970
 2.5370	24.9740
 2.5380	24.8000
 2.5390	24.7690
 2.5410	25.0490
 2.5420	25.1150
 2.5430	25.0350
 2.5440	24.8910
 2.5460	24.9820
 2.5470	25.0840
 2.5480	25.0910
 2.5490	25.1440
 2.5510	25.2010
 2.5520	25.0530
 2.5530	25.1100
 2.5540	25.3180
 2.5560	25.3570
 2.5570	25.1980
 2.5580	25.2580
 2.5590	25.2180
 2.5610	24.9640
 2.5620	24.7530
 2.5630	24.8850
 2.5640	24.9100
 2.5660	25.0350
 2.5670	25.2270
 2.5680	25.2740
 2.5700	25.2480
 2.5710	25.3280
 2.5720	25.3400
 2.5730	25.0230
 2.5750	24.8820
 2.5760	25.0990
 2.5770	25.1270
 2.5790	25.4420
 2.5800	25.5230
 2.5810	25.3630
 2.5820	25.1850
 2.5840	24.9590
 2.5850	24.9540
 2.5860	25.0530
 2.5880	25.0150
 2.5890	25.1680
 2.5900	25.1400
 2.5910	25.3250
 2.5930	25.3070
 2.5940	24.6720
 2.5950	24.1340
 2.5970	24.6200
 2.5980	25.0230
 2.5990	25.2820
 2.6000	25.3200
 2.6020	25.0480
 2.6030	24.8220
 2.6040	24.6700
 2.6060	24.3890
 2.6070	24.6560
 2.6080	24.9560
 2.6100	25.0200
 2.6110	24.9880
 2.6120	25.0170
 2.6140	24.9330
 2.6150	24.8170
 2.6160	24.5040
 2.6180	24.4480
 2.6190	24.6530
 2.6200	24.4460
 2.6220	24.5660
 2.6230	24.9600
 2.6240	24.8730
 2.6260	24.4770
 2.6270	24.1190
 2.6280	24.4380
 2.6300	24.1690
 2.6310	23.8480
 2.6320	24.0090
 2.6340	24.1060
 2.6350	24.2230
 2.6360	24.4270
 2.6380	24.3160
 2.6390	24.0660
 2.6400	23.9230
 2.6420	23.9420
 2.6430	23.9450
 2.6440	23.8840
 2.6460	23.8340
 2.6470	23.8110
 2.6480	23.7830
 2.6500	23.8090
 2.6510	23.6690
 2.6520	23.4840
 2.6540	23.3550
 2.6550	23.3440
 2.6560	23.2690
 2.6580	23.2790
 2.6590	23.0340
 2.6610	23.0350
 2.6620	22.9390
 2.6630	22.8680
 2.6650	22.4370
 2.6660	22.1290
 2.6670	22.1180
 2.6690	22.2990
 2.6700	21.8690
 2.6720	21.7560
 2.6730	22.1250
 2.6740	22.2380
 2.6760	21.8320
 2.6770	21.3810
 2.6780	21.3450
 2.6800	21.5270
 2.6810	21.6030
 2.6830	21.4330
 2.6840	21.2370
 2.6850	21.3280
 2.6870	21.3030
 2.6880	21.0260
 2.6900	20.8220
 2.6910	20.7460
 2.6920	20.4900
 2.6940	20.0260
 2.6950	19.5630
 2.6970	19.4950
 2.6980	19.3550
 2.6990	19.2060
 2.7010	18.9130
 2.7020	18.7250
 2.7040	18.6810
 2.7050	18.5010
 2.7060	18.1870
 2.7080	18.0760
 2.7090	17.6740
 2.7110	17.2070
 2.7120	17.0650
 2.7130	17.1960
 2.7150	17.1250
 2.7160	16.9080
 2.7180	16.4510
 2.7190	16.1360
 2.7210	15.6610
 2.7220	15.5820
 2.7230	15.5610
 2.7250	15.3720
 2.7260	15.2350
 2.7280	15.0730
 2.7290	14.6740
 2.7310	14.5400
 2.7320	14.5930
 2.7330	14.3660
 2.7350	13.7410
 2.7360	13.4390
 2.7380	13.3420
 2.7390	13.0120
 2.7410	12.5460
 2.7420	12.4320
 2.7440	12.4160
 2.7450	12.3460
 2.7470	12.0170
 2.7480	12.0130
 2.7490	11.9220
 2.7510	11.5590
 2.7520	11.2930
 2.7540	11.1530
 2.7550	10.8340
 2.7570	10.8340
 2.7580	10.9810
 2.7600	10.9090
 2.7610	10.7050
 2.7630	10.4630
 2.7640	10.2350
 2.7660	10.2500
 2.7670	10.2120
 2.7680	10.0660
 2.7700	 9.9430
 2.7710	 9.9160
 2.7730	 9.7020
 2.7740	 9.5740
 2.7760	 9.6180
 2.7770	 9.6730
 2.7790	 9.2850
 2.7800	 9.0050
 2.7820	 8.8950
 2.7830	 8.9050
 2.7850	 8.8450
 2.7860	 8.6520
 2.7880	 8.4810
 2.7890	 8.6290
 2.7910	 8.6820
 2.7920	 8.6710
 2.7940	 8.5060
 2.7950	 8.4920
 2.7970	 8.3140
 2.7980	 8.2150
 2.8000	 8.1250
 2.8010	 8.0980
 2.8030	 8.0340
 2.8040	 8.0340
 2.8060	 7.9920
 2.8070	 8.1460
 2.8090	 8.0540
 2.8110	 7.9700
 2.8120	 7.9020
 2.8140	 7.8240
 2.8150	 7.7740
 2.8170	 7.7600
 2.8180	 7.6110
 2.8200	 7.5010
 2.8210	 7.2650
 2.8230	 7.2940
 2.8240	 7.3420
 2.8260	 7.2910
 2.8270	 7.1260
 2.8290	 7.0480
 2.8300	 6.9670
 2.8320	 7.0340
 2.8340	 6.9890
 2.8350	 7.0280
 2.8370	 6.9280
 2.8380	 6.9130
 2.8400	 6.8800
 2.8410	 6.9490
 2.8430	 6.9640
 2.8440	 6.8850
 2.8460	 6.8370
 2.8480	 7.0610
 2.8490	 7.0170
 2.8510	 6.7470
 2.8520	 6.4820
 2.8540	 6.4460
 2.8550	 6.5560
 2.8570	 6.5920
 2.8590	 6.5770
 2.8600	 6.6840
 2.8620	 6.7410
 2.8630	 6.7670
 2.8650	 6.6720
 2.8660	 6.6390
 2.8680	 6.5420
 2.8700	 6.5250
 2.8710	 6.2470
 2.8730	 6.3220
 2.8740	 6.5800
 2.8760	 6.5430
 2.8780	 6.4180
 2.8790	 6.4810
 2.8810	 6.5560
 2.8820	 6.2710
 2.8840	 6.0810
 2.8860	 6.5090
 2.8870	 6.7100
 2.8890	 6.5980
 2.8900	 6.3690
 2.8920	 6.3490
 2.8940	 6.2020
 2.8950	 6.1580
 2.8970	 6.2850
 2.8980	 6.2410
 2.9000	 6.0600
 2.9020	 6.1870
 2.9030	 6.5380
 2.9050	 6.6030
 2.9070	 6.2800
 2.9080	 6.1390
 2.9100	 6.2030
 2.9120	 6.0920
 2.9130	 6.0800
 2.9150	 6.1650
 2.9160	 6.1420
 2.9180	 6.2410
 2.9200	 6.2820
 2.9210	 6.3370
 2.9230	 6.3210
 2.9250	 6.2070
 2.9260	 6.1380
 2.9280	 6.2610
 2.9300	 6.3040
 2.9310	 6.3080
 2.9330	 6.3220
 2.9350	 6.2860
 2.9360	 6.1680
 2.9380	 6.3170
 2.9400	 6.2720
 2.9410	 6.2990
 2.9430	 6.1660
 2.9450	 6.1000
 2.9460	 6.1760
 2.9480	 6.3250
 2.9500	 6.3870
 2.9510	 6.3740
 2.9530	 6.0270
 2.9550	 5.9340
 2.9560	 5.9340
 2.9580	 6.4860
 2.9600	 7.0550
 2.9610	 6.8150
 2.9630	 6.5670
 2.9650	 6.1670
 2.9660	 6.0730
 2.9680	 5.8980
 2.9700	 5.3110
 2.9720	 6.1930
 2.9730	 6.5920
 2.9750	 6.4730
 2.9770	 5.5580
 2.9780	 4.2810
 2.9800	 4.3340
 2.9820	 5.5480
 2.9840	 6.2680
 2.9850	 6.3840
 2.9870	 6.1140
 2.9890	 5.1230
 2.9900	 5.1810
 2.9920	 5.2770
 2.9940	 5.5310
 2.9960	 6.7720
 2.9970	 6.2260
 2.9990	 6.4220
 3.0010	 6.8480
 3.0030	 6.7580
 3.0040	 6.9160
 3.0060	 7.0750
 3.0080	 6.3330
 3.0100	 6.2170
 3.0110	 6.8010
 3.0130	 7.0060
 3.0150	 6.2760
 3.0170	 6.4240
 3.0180	 6.5850
 3.0200	 6.6670
 3.0220	 6.6960
 3.0240	 6.6530
 3.0250	 6.4800
 3.0270	 6.5550
 3.0290	 6.7750
 3.0310	 6.6740
 3.0320	 6.3860
 3.0340	 6.1850
 3.0360	 6.0680
 3.0380	 5.8170
 3.0400	 6.4990
 3.0410	 6.5550
 3.0430	 7.4180
 3.0450	 8.6470
 3.0470	 6.6910
 3.0480	 4.9910
 3.0500	 5.5520
 3.0520	 7.5820
 3.0540	 7.3610
 3.0560	 7.3550
 3.0570	 6.5200
 3.0590	 6.2330
 3.0610	 6.6390
 3.0630	 6.5280
 3.0650	 7.1560
 3.0660	 7.9270
 3.0680	 7.6710
 3.0700	 7.2120
 3.0720	 7.0020
 3.0740	 7.3230
 3.0760	 7.5540
 3.0770	 7.5000
 3.0790	 7.3160
 3.0810	 7.2810
 3.0830	 7.2130
 3.0850	 7.2810
 3.0870	 7.1340
 3.0880	 7.1920
 3.0900	 7.1610
 3.0920	 7.3780
 3.0940	 7.3980
 3.0960	 7.2460
 3.0980	 7.2970
 3.0990	 7.4480
 3.1010	 7.3090
 3.1030	 7.3450
 3.1050	 7.3750
 3.1070	 7.4620
 3.1090	 7.4370
 3.1110	 7.5390
 3.1120	 7.6190
 3.1140	 7.5940
 3.1160	 7.4710
 3.1180	 7.5850
 3.1200	 7.5660
 3.1220	 7.5020
 3.1240	 7.5320
 3.1260	 7.6110
 3.1270	 7.5330
 3.1290	 7.5210
 3.1310	 7.6140
 3.1330	 7.9830
 3.1350	 7.9990
 3.1370	 8.0660
 3.1390	 8.2390
 3.1410	 8.2390
 3.1430	 7.6300
 3.1450	 6.8360
 3.1460	 6.9520
 3.1480	 7.7620
 3.1500	 7.0300
 3.1520	 7.0840
 3.1540	 7.5150
 3.1560	 8.4150
 3.1580	 8.3980
 3.1600	 8.1710
 3.1620	 7.9310
 3.1640	 7.7590
 3.1660	 7.5150
 3.1680	 7.9270
 3.1700	 8.5180
 3.1710	 8.2140
 3.1730	 8.7030
 3.1750	 9.0240
 3.1770	 9.0240
 3.1790	 7.9980
 3.1810	 8.2270
 3.1830	 8.4810
 3.1850	 8.3150
 3.1870	 8.6510
 3.1890	 8.5150
 3.1910	 8.3420
 3.1930	 8.4770
 3.1950	 8.6840
 3.1970	 8.7140
 3.1990	 8.6320
 3.2010	 8.4420
 3.2030	 8.3000
 3.2050	 8.3630
 3.2070	 8.7240
 3.2090	 8.8220
 3.2110	 8.6830
 3.2130	 8.6310
 3.2150	 8.6930
 3.2170	 8.7160
 3.2190	 8.7100
 3.2210	 8.7540
 3.2230	 8.8020
 3.2250	 8.8530
 3.2270	 8.9270
 3.2290	 8.7620
 3.2310	 8.8920
 3.2330	 8.9590
 3.2350	 8.7620
 3.2370	 8.5630
 3.2390	 8.4630
 3.2410	 8.5760
 3.2430	 8.6790
 3.2450	 8.7610
 3.2470	 8.9680
 3.2490	 8.9830
 3.2510	 8.9490
 3.2530	 8.9880
 3.2550	 9.0530
 3.2570	 9.0060
 3.2590	 9.0180
 3.2610	 9.0870
 3.2630	 9.1540
 3.2650	 9.1060
 3.2670	 9.1350
 3.2690	 9.1800
 3.2720	 9.2390
 3.2740	 9.2280
 3.2760	 9.2780
 3.2780	 9.2150
 3.2800	 9.2290
 3.2820	 9.1820
 3.2840	 9.0970
 3.2860	 9.0230
 3.2880	 9.0930
 3.2900	 8.9620
 3.2920	 8.9790
 3.2940	 9.1650
 3.2960	 9.2010
 3.2990	 8.9750
 3.3010	 9.0290
 3.3030	 8.9360
 3.3050	 8.8630
 3.3070	 8.9930
 3.3090	 9.1490
 3.3110	 8.9610
 3.3130	 8.8690
 3.3150	 8.8200
 3.3180	 8.9810
 3.3200	 8.8690
 3.3220	 8.5110
 3.3240	 8.5090
 3.3260	 8.5880
 3.3280	 8.3710
 3.3300	 8.2880
 3.3330	 8.1420
 3.3350	 8.1090
 3.3370	 8.0660
 3.3390	 7.9370
 3.3410	 7.7730
 3.3430	 7.7540
 3.3450	 7.6150
 3.3480	 7.4970
 3.3500	 7.2320
 3.3520	 7.1280
 3.3540	 7.0510
 3.3560	 6.9130
 3.3580	 6.7670
 3.3610	 6.8400
 3.3630	 6.8340
 3.3650	 6.8010
 3.3670	 6.5980
 3.3690	 6.5340
 3.3720	 6.5320
 3.3740	 6.5710
 3.3760	 6.5060
 3.3780	 6.3650
 3.3800	 6.2710
 3.3830	 6.3620
 3.3850	 6.2390
 3.3870	 6.1310
 3.3890	 5.9140
 3.3910	 5.8280
 3.3940	 5.7830
 3.3960	 5.7690
 3.3980	 5.7890
 3.4000	 5.7810
 3.4020	 5.7430
 3.4050	 5.6670
 3.4070	 5.4410
 3.4090	 5.5070
 3.4110	 5.6640
 3.4140	 5.8080
 3.4160	 5.8400
 3.4180	 5.7950
 3.4200	 5.7140
 3.4230	 5.8020
 3.4250	 5.9970
 3.4270	 6.1150
 3.4290	 6.1370
 3.4320	 6.3190
 3.4340	 6.3590
 3.4360	 6.3110
 3.4390	 6.3810
 3.4410	 6.4720
 3.4430	 6.4510
 3.4450	 6.4300
 3.4480	 6.5220
 3.4500	 6.9150
 3.4520	 7.1860
 3.4550	 7.0400
 3.4570	 6.7310
 3.4590	 6.9730
 3.4620	 7.2070
 3.4640	 7.2080
 3.4660	 7.2410
 3.4680	 7.4110
 3.4710	 7.3530
 3.4730	 7.4160
 3.4750	 7.4390
 3.4780	 7.3120
 3.4800	 7.2080
 3.4820	 7.2600
 3.4850	 7.1100
 3.4870	 7.0740
 3.4890	 7.0960
 3.4920	 7.0960
 3.4940	 6.9000
 3.4970	 6.8230
 3.4990	 6.8750
 3.5010	 6.9460
 3.5040	 6.9660
 3.5060	 7.0350
 3.5080	 7.0960
 3.5110	 7.2610
 3.5130	 7.4730
 3.5160	 7.8830
 3.5180	 8.1780
 3.5200	 8.4260
 3.5230	 8.7630
 3.5250	 9.1830
 3.5270	 9.3890
 3.5300	 9.4750
 3.5320	 9.6570
 3.5350	 9.8510
 3.5370	 9.9710
 3.5400	10.2370
 3.5420	10.5150
 3.5440	10.6730
 3.5470	10.6680
 3.5490	10.8390
 3.5520	10.7910
 3.5540	10.7120
 3.5570	10.8930
 3.5590	11.0590
 3.5610	11.1100
 3.5640	11.2360
 3.5660	11.2640
 3.5690	11.3230
 3.5710	11.3970
 3.5740	11.5420
 3.5760	11.4390
 3.5790	11.4940
 3.5810	11.7520
 3.5840	11.8720
 3.5860	11.7610
 3.5890	11.7380
 3.5910	11.8950
 3.5930	11.9620
 3.5960	11.9610
 3.5980	12.1330
 3.6010	12.1320
 3.6030	12.1120
 3.6060	12.1270
 3.6080	12.1520
 3.6110	12.1520
 3.6140	12.2390
 3.6160	12.3000
 3.6190	12.4010
 3.6210	12.5000
 3.6240	12.5040
 3.6260	12.5570
 3.6290	12.5820
 3.6310	12.4800
 3.6340	12.5170
 3.6360	12.5290
 3.6390	12.6230
 3.6410	12.5170
 3.6440	12.5340
 3.6470	12.6710
 3.6490	12.7400
 3.6520	12.6330
 3.6540	12.6620
 3.6570	12.6750
 3.6590	12.7960
 3.6620	12.8130
 3.6650	12.8430
 3.6670	12.8470
 3.6700	12.8550
 3.6720	12.8390
 3.6750	12.8520
 3.6780	12.8390
 3.6800	12.9140
 3.6830	12.9540
 3.6850	12.9730
 3.6880	12.8860
 3.6910	12.8890
 3.6930	12.9550
 3.6960	13.0920
 3.6990	13.1430
 3.7010	13.1890
 3.7040	13.2170
 3.7060	13.1990
 3.7090	13.1590
 3.7120	13.2030
 3.7140	13.1280
 3.7170	13.1560
 3.7200	13.2150
 3.7220	13.2670
 3.7250	13.2280
 3.7280	13.2640
 3.7300	13.2370
 3.7330	13.2310
 3.7360	13.2360
 3.7390	13.2220
 3.7410	13.2170
 3.7440	13.2850
 3.7470	13.3650
 3.7490	13.4430
 3.7520	13.4460
 3.7550	13.4850
 3.7580	13.4100
 3.7600	13.3950
 3.7630	13.4000
 3.7660	13.3710
 3.7680	13.3810
 3.7710	13.4820
 3.7740	13.4980
 3.7770	13.6200
 3.7790	13.6250
 3.7820	13.6760
 3.7850	13.6950
 3.7880	13.7500
 3.7900	13.7180
 3.7930	13.6480
 3.7960	13.7250
 3.7990	13.7850
 3.8020	13.8310
 3.8040	13.8850
 3.8070	13.7710
 3.8100	13.7140
 3.8130	13.7800
 3.8160	13.9360
 3.8180	13.9220
 3.8210	13.8760
 3.8240	13.8900
 3.8270	13.8830
 3.8300	13.9370
 3.8330	14.0860
 3.8350	14.1710
 3.8380	14.1270
 3.8410	14.0020
 3.8440	14.0290
 3.8470	14.2090
 3.8500	14.2460
 3.8520	14.2810
 3.8550	14.3000
 3.8580	14.2820
 3.8610	14.3920
 3.8640	14.3810
 3.8670	14.3910
 3.8700	14.3950
 3.8730	14.3260
 3.8750	14.3120
 3.8780	14.5140
 3.8810	14.5750
 3.8840	14.5660
 3.8870	14.5160
 3.8900	14.5600
 3.8930	14.6760
 3.8960	14.7370
 3.8990	14.6860
 3.9020	14.8070
 3.9050	14.9290
 3.9080	14.9350
 3.9110	14.8490
 3.9140	14.9190
 3.9160	14.9790
 3.9190	15.0160
 3.9220	14.9270
 3.9250	14.9020
 3.9280	14.9870
 3.9310	14.9680
 3.9340	14.9660
 3.9370	15.0550
 3.9400	15.0370
 3.9430	15.0820
 3.9460	15.1060
 3.9490	15.1770
 3.9520	15.2030
 3.9550	15.2640
 3.9580	15.3570
 3.9610	15.5210
 3.9640	15.5640
 3.9670	15.6100
 3.9700	15.6890
 3.9730	15.6460
 3.9770	15.6090
 3.9800	15.7480
 3.9830	15.8220
 3.9860	15.8760
 3.9890	15.9160
 3.9920	16.0110
 3.9950	16.0300
 3.9980	16.0250
 4.0010	15.9740
 4.0040	16.0970
 4.0070	16.2410
 4.0100	16.2220
 4.0130	16.1610
 4.0170	16.2020
 4.0200	16.3170
 4.0230	16.3760
 4.0260	16.4160
 4.0290	16.5580
 4.0320	16.5670
 4.0350	16.5000
 4.0380	16.4880
 4.0420	16.5350
 4.0450	16.5870
 4.0480	16.6940
 4.0510	16.7500
 4.0540	16.8630
 4.0570	16.8960
 4.0610	16.8870
 4.0640	16.8620
 4.0670	16.9410
 4.0700	16.9760
 4.0730	17.0660
 4.0770	17.0850
 4.0800	17.1540
 4.0830	17.2200
 4.0860	17.3050
 4.0890	17.3580
 4.0930	17.4260
 4.0960	17.4010
 4.0990	17.4700
 4.1020	17.4870
 4.1060	17.4700
 4.1090	17.4650
 4.1120	17.5160
 4.1150	17.5160
 4.1190	17.5930
 4.1220	17.6600
 4.1250	17.6590
 4.1280	17.6900
 4.1320	17.8000
 4.1350	17.7880
 4.1380	17.7290
 4.1420	17.7430
 4.1450	17.8250
 4.1480	17.8650
 4.1520	17.9500
 4.1550	17.9810
 4.1580	17.9530
 4.1620	17.9690
 4.1650	18.0130
 4.1680	17.9900
 4.1720	18.0070
 4.1750	18.0530
 4.1780	18.0990
 4.1820	18.1330
 4.1850	18.1510
 4.1890	18.0640
 4.1920	18.0650
 4.1950	18.0660
 4.1990	18.0660
 4.2020	18.0090
 4.2060	17.8550
 4.2090	17.7310
 4.2120	17.7820
 4.2160	17.5350
 4.2190	17.3320
 4.2230	17.1090
 4.2260	17.2210
 4.2300	17.1850
 4.2330	17.0710
 4.2360	16.9510
 4.2400	17.1320
 4.2430	17.2120
 4.2470	17.4530
 4.2500	17.6760
 4.2540	17.7350
 4.2570	17.6990
 4.2610	17.7110
 4.2640	17.6110
 4.2680	17.6970
 4.2710	17.7000
 4.2750	17.6070
 4.2780	17.7110
 4.2820	17.7680
 4.2850	17.6170
 4.2890	17.5280
 4.2930	17.6780
 4.2960	17.9840
 4.3000	17.8630
 4.3030	17.8600
 4.3070	18.0420
 4.3100	18.0240
 4.3140	18.0630
 4.3180	18.0690
 4.3210	18.0120
 4.3250	18.0970
 4.3280	18.2080
 4.3320	18.2370
 4.3360	18.2160
 4.3390	18.2780
 4.3430	18.2910
 4.3470	18.3020
 4.3500	18.3660
 4.3540	18.4570
 4.3570	18.5270
 4.3610	18.4980
 4.3650	18.4170
 4.3680	18.4590
 4.3720	18.5550
 4.3760	18.6390
 4.3800	18.6220
 4.3830	18.5660
 4.3870	18.5070
 4.3910	18.5160
 4.3940	18.5310
 4.3980	18.5460
 4.4020	18.5140
 4.4060	18.5140
 4.4090	18.5300
 4.4130	18.5380
 4.4170	18.4900
 4.4210	18.5600
 4.4240	18.5470
 4.4280	18.5270
 4.4320	18.5420
 4.4360	18.5670
 4.4400	18.6030
 4.4430	18.5860
 4.4470	18.4100
 4.4510	18.3770
 4.4550	18.5270
 4.4590	18.5170
 4.4620	18.4820
 4.4660	18.4560
 4.4700	18.4400
 4.4740	18.4600
 4.4780	18.4620
 4.4820	18.4700
 4.4860	18.4510
 4.4900	18.4540
 4.4930	18.4700
 4.4970	18.4840
 4.5010	18.4690
 4.5050	18.4710
 4.5090	18.4030
 4.5130	18.3330
 4.5170	18.3380
 4.5210	18.3660
 4.5250	18.3620
 4.5290	18.3260
 4.5330	18.2650
 4.5370	18.2320
 4.5410	18.2690
 4.5450	18.3050
 4.5490	18.2300
 4.5530	18.1780
 4.5570	18.2410
 4.5610	18.3150
 4.5650	18.2790
 4.5690	18.2080
 4.5730	18.1960
 4.5770	18.1940
 4.5810	18.1600
 4.5850	18.1480
 4.5890	18.1200
 4.5930	18.1420
 4.5970	18.2220
 4.6010	18.1720
 4.6050	18.0610
 4.6090	17.9900
 4.6130	17.9380
 4.6170	17.9790
 4.6220	18.1190
 4.6260	18.1760
 4.6300	18.0790
 4.6340	18.0610
 4.6380	18.1190
 4.6420	18.0800
 4.6460	17.9910
 4.6510	17.9880
 4.6550	18.0960
 4.6590	18.1590
 4.6630	18.1620
 4.6670	18.1410
 4.6720	18.1050
 4.6760	18.1140
 4.6800	18.0110
 4.6840	18.0040
 4.6880	18.1080
 4.6930	18.1230
 4.6970	18.1010
 4.7010	18.1800
 4.7050	18.1950
 4.7100	18.1760
 4.7140	18.1490
 4.7180	18.1530
 4.7230	18.1460
 4.7270	18.1460
 4.7310	18.1720
 4.7360	18.2020
 4.7400	18.2540
 4.7440	18.2200
 4.7490	18.1690
 4.7530	18.1310
 4.7570	18.1750
 4.7620	18.3240
 4.7660	18.3480
 4.7700	18.2740
 4.7750	18.2100
 4.7790	18.1160
 4.7840	18.1240
 4.7880	18.2730
 4.7920	18.3750
 4.7970	18.3730
 4.8010	18.2900
 4.8060	18.3260
 4.8100	18.3630
 4.8150	18.2890
 4.8190	18.3410
 4.8240	18.3570
 4.8280	18.3410
 4.8330	18.3170
 4.8370	18.2570
 4.8420	18.2310
 4.8460	18.3190
 4.8510	18.3660
 4.8550	18.4000
 4.8600	18.4370
 4.8640	18.4130
 4.8690	18.3930
 4.8730	18.4610
 4.8780	18.4670
 4.8830	18.4050
 4.8870	18.3830
 4.8920	18.3830
 4.8960	18.3990
 4.9010	18.3970
 4.9060	18.4660
 4.9100	18.4640
 4.9150	18.3680
 4.9200	18.3940
 4.9240	18.5240
 4.9290	18.5880
 4.9340	18.6730
 4.9380	18.7090
 4.9430	18.7150
 4.9480	18.7010
 4.9530	18.7040
 4.9570	18.7010
 4.9620	18.7130
 4.9670	18.7130
 4.9720	18.7260
 4.9760	18.8480
 4.9810	18.8990
 4.9860	18.8560
 4.9910	18.8660
 4.9960	18.9020
 5.0000	18.9500
 5.0050	18.9470
 5.0100	18.9020
 5.0150	18.8390
 5.0200	18.8090
 5.0250	18.8960
 5.0290	18.9270
 5.0340	18.9420
 5.0390	18.9280
 5.0440	18.9430
 5.0490	18.9600
 5.0540	19.0150
 5.0590	19.0480
 5.0640	19.0520
 5.0690	19.0580
 5.0740	19.0660
 5.0790	19.0740
 5.0840	19.0810
 5.0890	19.0180
 5.0940	19.0050
 5.0990	19.0050
 5.1040	19.0660
 5.1090	19.0760
 5.1140	19.0050
 5.1190	19.0190
 5.1240	19.1160
 5.1290	19.1190
 5.1340	19.0990
 5.1390	19.1400
 5.1440	19.1100
 5.1490	19.0090
 5.1540	19.1040
 5.1600	19.1090
 5.1650	19.0420
 5.1700	19.1380
 5.1750	19.2550
 5.1800	19.2250
 5.1850	19.1170
 5.1910	19.0000
 5.1960	18.9540
 5.2010	18.9370
 5.2060	18.9520
 5.2110	18.9200
 5.2170	18.9520
 5.2220	18.9490
 5.2270	18.8840
 5.2320	18.8590
 5.2380	18.8600
 5.2430	18.8900
 5.2480	18.9210
 5.2540	18.8910
 5.2590	18.8990
 5.2640	18.7900
 5.2700	18.6660
 5.2750	18.6000
 5.2800	18.7170
 5.2860	18.7570
 5.2910	18.5990
 5.2970	18.5110
 5.3020	18.5970
 5.3070	18.6300
 5.3130	18.6450
 5.3180	18.5960
 5.3240	18.6000
 5.3290	18.5730
 5.3350	18.4650
 5.3400	18.3640
 5.3460	18.3470
 5.3510	18.2080
 5.3570	18.1680
 5.3620	18.2550
 5.3680	18.3160
 5.3730	18.2460
 5.3790	18.1710
 5.3850	18.1730
 5.3900	18.1270
 5.3960	18.0950
 5.4010	18.1490
 5.4070	18.0850
 5.4130	17.9890
 5.4180	17.8380
 5.4240	17.7240
 5.4300	17.7710
 5.4350	17.8140
 5.4410	17.8040
 5.4470	17.7340
 5.4530	17.6000
 5.4580	17.4680
 5.4640	17.2460
 5.4700	17.1260
 5.4760	17.0130
 5.4810	16.9100
 5.4870	16.9350
 5.4930	16.9470
 5.4990	16.8360
 5.5050	16.7160
 5.5110	16.5350
 5.5160	16.3130
 5.5220	16.0550
 5.5280	15.8740
 5.5340	15.7310
 5.5400	15.5570
 5.5460	15.2900
 5.5520	15.0020
 5.5580	14.7160
 5.5640	14.4490
 5.5700	14.2070
 5.5760	13.9790
 5.5820	13.6600
 5.5880	13.4630
 5.5940	13.1930
 5.6000	12.9120
 5.6060	12.7040
 5.6120	12.4930
 5.6180	12.1600
 5.6240	11.8380
 5.6300	11.5790
 5.6360	11.2700
 5.6420	10.9050
 5.6490	10.7450
 5.6550	10.4840
 5.6610	10.3060
 5.6670	10.0780
 5.6730	 9.7600
 5.6800	 9.4720
 5.6860	 9.2210
 5.6920	 8.7520
 5.6980	 8.3640
 5.7040	 8.0590
 5.7110	 7.8000
 5.7170	 7.5190
 5.7230	 7.2220
 5.7300	 6.8710
 5.7360	 6.6300
 5.7420	 6.4130
 5.7490	 6.1830
 5.7550	 6.0370
 5.7620	 5.9320
 5.7680	 5.9160
 5.7740	 6.1840
 5.7810	 6.2640
 5.7870	 6.3010
 5.7940	 6.4320
 5.8000	 6.5780
 5.8070	 6.6340
 5.8130	 6.5540
 5.8200	 6.4370
 5.8260	 6.5640
 5.8330	 6.7790
 5.8390	 6.9580
 5.8460	 6.9500
 5.8530	 6.9720
 5.8590	 7.0220
 5.8660	 7.1170
 5.8720	 7.1400
 5.8790	 6.8990
 5.8860	 6.8610
 5.8920	 6.8570
 5.8990	 6.7620
 5.9060	 6.9440
 5.9130	 6.9790
 5.9190	 6.8460
 5.9260	 6.8820
 5.9330	 7.0630
 5.9400	 7.2570
 5.9470	 7.5810
 5.9530	 7.8900
 5.9600	 8.2100
 5.9670	 8.3460
 5.9740	 8.6160
 5.9810	 8.7570
 5.9880	 8.7410
 5.9950	 8.7890
 6.0020	 8.9440
 6.0090	 8.9010
 6.0160	 8.8060
 6.0230	 8.9000
 6.0300	 8.9680
 6.0370	 8.7980
 6.0440	 8.4480
 6.0510	 8.2960
 6.0580	 8.7590
 6.0650	 8.8280
 6.0720	 8.6100
 6.0790	 8.6440
 6.0860	 8.8670
 6.0930	 9.0260
 6.1000	 9.2320
 6.1080	 9.0160
 6.1150	 8.8840
 6.1220	 9.1820
 6.1290	 9.3130
 6.1370	 9.1810
 6.1440	 9.2450
 6.1510	 9.1570
 6.1580	 9.1290
 6.1660	 9.2320
 6.1730	 9.2910
 6.1800	 9.1180
 6.1880	 9.0200
 6.1950	 9.1170
 6.2030	 9.2110
 6.2100	 9.1520
 6.2170	 9.1700
 6.2250	 9.0740
 6.2320	 9.0970
 6.2400	 9.3130
 6.2470	 9.5520
 6.2550	 9.7020
 6.2630	 9.9720
 6.2700	10.1040
 6.2780	10.2550
 6.2850	10.4280
 6.2930	10.6740
 6.3010	10.7960
 6.3080	10.8650
 6.3160	10.9590
 6.3240	11.1290
 6.3310	11.2130
 6.3390	11.1920
 6.3470	11.2370
 6.3550	11.6320
 6.3620	11.7460
 6.3700	11.6370
 6.3780	11.7000
 6.3860	11.9530
 6.3940	12.0030
 6.4020	11.9560
 6.4100	11.4940
 6.4180	11.4450
 6.4260	11.8910
 6.4330	12.1840
 6.4410	12.2280
 6.4490	12.3120
 6.4580	12.3920
 6.4660	12.4050
 6.4740	12.3410
 6.4820	12.4040
 6.4900	12.2050
 6.4980	12.2250
 6.5060	12.5530
 6.5140	12.6620
 6.5230	12.6030
 6.5310	12.8800
 6.5390	12.9590
 6.5470	12.8900
 6.5550	12.8090
 6.5640	12.6970
 6.5720	12.3830
 6.5800	12.3980
 6.5890	12.4120
 6.5970	12.5320
 6.6060	12.7200
 6.6140	12.8080
 6.6220	12.6400
 6.6310	12.3510
 6.6390	12.1890
 6.6480	12.6220
 6.6560	12.8180
 6.6650	12.8350
 6.6740	12.6780
 6.6820	12.4820
 6.6910	12.3890
 6.6990	12.3640
 6.7080	12.0510
 6.7170	11.7690
 6.7260	11.4700
 6.7340	11.2220
 6.7430	10.8060
 6.7520	10.4520
 6.7610	10.1430
 6.7690	 9.8630
 6.7780	 9.4090
 6.7870	 8.9780
 6.7960	 8.5720
 6.8050	 8.3030
 6.8140	 7.9750
 6.8230	 7.8470
 6.8320	 7.8330
 6.8410	 7.8660
 6.8500	 7.8180
 6.8590	 7.7820
 6.8680	 7.7460
 6.8770	 8.1440
 6.8860	 8.2320
 6.8950	 8.2890
 6.9050	 8.2970
 6.9140	 8.3320
 6.9230	 8.4730
 6.9320	 8.6190
 6.9420	 8.5870
 6.9510	 8.4900
 6.9600	 8.2590
 6.9700	 8.3070
 6.9790	 8.3450
 6.9880	 8.3820
 6.9980	 8.4170
 7.0070	 8.5440
 7.0170	 8.5370
 7.0260	 8.5070
 7.0360	 8.4260
 7.0450	 8.5070
 7.0550	 8.5660
 7.0650	 8.7020
 7.0740	 8.7910
 7.0840	 8.9320
 7.0940	 8.8040
 7.1030	 8.6940
 7.1130	 8.6960
 7.1230	 8.8090
 7.1330	 8.7450
 7.1420	 8.7290
 7.1520	 8.6470
 7.1620	 8.6910
 7.1720	 8.5730
 7.1820	 8.5040
 7.1920	 8.2700
 7.2020	 8.0420
 7.2120	 7.9740
 7.2220	 8.1130
 7.2320	 8.0440
 7.2420	 8.1550
 7.2520	 8.1160
 7.2620	 7.9490
 7.2730	 7.8160
 7.2830	 7.9790
 7.2930	 7.9550
 7.3030	 7.9500
 7.3140	 7.9650
 7.3240	 8.1080
 7.3340	 8.0330
 7.3450	 8.0030
 7.3550	 7.9770
 7.3660	 8.2230
 7.3760	 8.2970
 7.3870	 8.3930
 7.3970	 8.3850
 7.4080	 8.4050
 7.4180	 8.3200
 7.4290	 8.3750
 7.4400	 8.2910
 7.4500	 8.3170
 7.4610	 8.2300
 7.4720	 8.2750
 7.4830	 8.2040
 7.4930	 8.1350
 7.5040	 8.0130
 7.5150	 8.0980
 7.5260	 8.0500
 7.5370	 8.0320
 7.5480	 7.8530
 7.5590	 7.6970
 7.5700	 7.6110
 7.5810	 7.6650
 7.5920	 7.6910
 7.6030	 7.7300
 7.6140	 7.7090
 7.6260	 7.8740
 7.6370	 7.9060
 7.6480	 8.0840
 7.6590	 8.1450
 7.6710	 8.1460
 7.6820	 8.1910
 7.6930	 8.2420
 7.7050	 8.0390
 7.7160	 8.0080
 7.7280	 7.9940
 7.7390	 8.0340
 7.7510	 7.9270
 7.7630	 7.7800
 7.7740	 7.6330
 7.7860	 7.7700
 7.7980	 7.7130
 7.8090	 7.7030
 7.8210	 7.5910
 7.8330	 7.5280
 7.8450	 7.4570
 7.8570	 7.5150
 7.8690	 7.5060
 7.8810	 7.5120
 7.8930	 7.4180
 7.9050	 7.5580
 7.9170	 7.4110
 7.9290	 7.3460
 7.9410	 7.3410
 7.9530	 7.4480
 7.9650	 7.3870
 7.9780	 7.5390
 7.9900	 7.4470
 8.0020	 7.4530
 8.0150	 7.5010
 8.0270	 7.7200
 8.0390	 7.6630
 8.0520	 7.6340
 8.0640	 7.4570
 8.0770	 7.6140
 8.0900	 7.6930
 8.1020	 7.7480
 8.1150	 7.5940
 8.1280	 7.7140
 8.1400	 7.7490
 8.1530	 7.7770
 8.1660	 7.6380
 8.1790	 7.7730
 8.1920	 7.8110
 8.2050	 7.9510
 8.2180	 7.9380
 8.2310	 7.9810
 8.2440	 7.8170
 8.2570	 7.8520
 8.2700	 7.7870
 8.2830	 7.9520
 8.2970	 7.9190
 8.3100	 7.8230
 8.3230	 7.6060
 8.3370	 7.7020
 8.3500	 7.7320
 8.3640	 7.8250
 8.3770	 7.6270
 8.3910	 7.5700
 8.4040	 7.4950
 8.4180	 7.6480
 8.4320	 7.5390
 8.4450	 7.5560
 8.4590	 7.4950
 8.4730	 7.6020
 8.4870	 7.4330
 8.5010	 7.3560
 8.5150	 7.2900
 8.5290	 7.3940
 8.5430	 7.1520
 8.5570	 7.0830
 8.5710	 6.9960
 8.5850	 7.0590
 8.5990	 6.9910
 8.6140	 7.2880
 8.6280	 7.3320
 8.6420	 7.4710
 8.6570	 7.4550
 8.6710	 7.5960
 8.6860	 7.5480
 8.7000	 7.6650
 8.7150	 7.5700
 8.7300	 7.7750
 8.7440	 7.7430
 8.7590	 7.9330
 8.7740	 7.9970
 8.7890	 7.9770
 8.8040	 7.6870
 8.8190	 7.8660
 8.8340	 7.8230
 8.8490	 7.7860
 8.8640	 7.5810
 8.8790	 7.5210
 8.8940	 7.2840
 8.9100	 7.3340
 8.9250	 7.2370
 8.9400	 7.2130
 8.9560	 6.9110
 8.9710	 6.9450
 8.9870	 6.8900
 9.0020	 7.0080
 9.0180	 6.8180
 9.0340	 6.7600
 9.0500	 6.5810
 9.0650	 6.7060
 9.0810	 6.7150
 9.0970	 6.9070
 9.1130	 6.8180
 9.1290	 6.9900
 9.1450	 7.0400
 9.1610	 7.2440
 9.1780	 7.0150
 9.1940	 6.9930
 9.2100	 6.7870
 9.2270	 6.9260
 9.2430	 6.7850
 9.2600	 6.7520
 9.2760	 6.5420
 9.2930	 6.8090
 9.3090	 6.7940
 9.3260	 6.7130
 9.3430	 6.4390
 9.3600	 6.5160
 9.3770	 6.3340
 9.3940	 6.2870
 9.4110	 6.2060
 9.4280	 6.5680
 9.4450	 6.5030
 9.4620	 6.5670
 9.4800	 6.4310
 9.4970	 6.6360
 9.5140	 6.4830
 9.5320	 6.6390
 9.5500	 6.6260
 9.5670	 6.8800
 9.5850	 6.7170
 9.6030	 6.7100
 9.6200	 6.5650
 9.6380	 6.7190
 9.6560	 6.7250
 9.6740	 6.9900
 9.6920	 6.9790
 9.7100	 7.1120
 9.7290	 6.8390
 9.7470	 7.1150
 9.7650	 7.3970
 9.7840	 7.5770
 9.8020	 7.5090
 9.8210	 7.7430
 9.8390	 7.6810
 9.8580	 7.7360
 9.8770	 7.5990
 9.8960	 7.7700
 9.9150	 7.7680
 9.9340	 8.0790
 9.9530	 7.9500
 9.9720	 7.8890
 9.9910	 7.8170
10.0100	 8.0380
10.0300	 8.0180
10.0490	 8.1280
10.0690	 8.2040
10.0880	 8.4410
10.1080	 8.4320
10.1280	 8.6140
10.1480	 8.5730
10.1670	 8.8650
10.1870	 8.9030
10.2070	 9.0340
10.2280	 8.9420
10.2480	 9.1010
10.2680	 8.9800
10.2890	 9.2100
10.3090	 9.3230
10.3300	 9.4070
10.3500	 9.1000
10.3710	 9.2200
10.3920	 9.1660
10.4120	 9.3230
10.4330	 9.2020
10.4540	 9.3840
10.4760	 9.3310
10.4970	 9.4020
10.5180	 9.3260
10.5390	 9.7800
10.5610	 9.8580
10.5820	10.1180
10.6040	10.0750
10.6260	10.2060
10.6480	10.2480
10.6700	10.4620
10.6920	10.0410
10.7140	10.0450
10.7360	10.0880
10.7580	10.3330
10.7800	10.2170
10.8030	10.2500
10.8250	 9.9930
10.8480	 9.9590
10.8710	 9.8720
10.8940	 9.9850
10.9170	 9.8000
10.9400	 9.9350
10.9630	 9.7890
10.9860	 9.9820
11.0090	 9.9070
11.0330	10.2010
11.0560	10.0110
11.0800	 9.9340
11.1040	 9.7880
11.1270	10.0550
11.1510	 9.8610
11.1750	 9.9460
11.2000	 9.8910
11.2240	 9.9300
11.2480	 9.8500
11.2730	10.1730
11.2970	 9.8370
11.3220	 9.9570
11.3470	 9.9740
11.3720	10.0230
11.3970	 9.7260
11.4220	 9.8330
11.4470	 9.9740
11.4720	10.4990
11.4980	10.2470
11.5230	10.2310
11.5490	10.0180
11.5750	10.1190
11.6000	 9.9200
11.6260	10.0590
11.6530	 9.9100
11.6790	10.0300
11.7050	 9.7890
11.7320	10.0140
11.7580	10.0400
11.7850	10.1200
11.8120	 9.7700
11.8390	 9.8600
11.8660	 9.6420
11.8930	 9.6430
11.9200	 9.2830
11.9480	 9.2600
11.9760	 9.0900
12.0030	 9.4520
12.0310	 9.3060
12.0590	 9.3270
12.0870	 9.0390
12.1150	 9.3070
12.1440	 9.1050
12.1720	 9.1610
12.2010	 9.0800
12.2300	 9.1150
12.2590	 8.8180
12.2880	 8.8910
12.3170	 8.6010
12.3460	 8.8420
12.3760	 8.5790
12.4050	 8.7080
12.4350	 8.6170
12.4650	 8.8160
12.4950	 8.6970
12.5250	 8.8730
12.5550	 8.5860
12.5860	 8.6990
12.6170	 8.6410
12.6470	 8.9180
12.6780	 8.5680
12.7090	 8.4820
12.7410	 8.2530
12.7720	 8.2850
12.8030	 7.9840
12.8350	 8.2410
12.8670	 8.0470
12.8990	 8.1710
12.9310	 7.7920
12.9640	 8.0010
12.9960	 8.0010
13.0290	 8.0470
13.0610	 7.8890
13.0940	 8.3540
13.1280	 7.9480
13.1610	 8.1390
13.1940	 7.9920
13.2280	 8.3860
13.2620	 8.0620
13.2960	 8.0490
13.3300	 7.5570
13.3640	 7.6060
13.3990	 7.6220
13.4340	 8.0950
13.4690	 7.7810
13.5040	 7.8560
13.5390	 7.6560
13.5740	 8.0830
13.6100	 7.6280
13.6460	 7.6290
13.6820	 7.2120
13.7180	 7.3330
13.7540	 7.0270
13.7910	 7.1710
13.8280	 6.8820
13.8650	 7.1710
13.9020	 7.0460
13.9390	 7.4280
13.9770	 7.2000
14.0150	 7.2720
14.0530	 6.9880
14.0910	 7.2600
14.1290	 7.1400
14.1680	 7.5510
14.2070	 6.9050
14.2460	 7.1130
14.2850	 6.7550
14.3240	 7.1710
14.3640	 6.9820
14.4040	 7.1980
14.4440	 6.7460
14.4840	 6.7330
14.5250	 6.2290
14.5660	 6.8150
14.6070	 6.5420
14.6480	 7.5690
14.6900	 6.9780
14.7310	 7.2440
14.7730	 6.8110
14.8150	 7.4260
14.8580	 7.2490
14.9010	 7.7900
14.9440	 6.0390
14.9870	 6.7740
15.0300	 6.7760
15.0740	 6.8600
15.1180	 5.6860
15.1620	 6.0310
15.2060	 5.9130
15.2510	 6.9390
15.2960	 6.5350
15.3410	 7.1040
15.3870	 6.3400
