Name: Bambusa beecheyana
Type: vegetation
Class: Tree
Genus: Bambusa
Species: beecheyana
Sample No.: JPL244
Owner: JPL
Wavelength Range: TIR
Origin: 34.12536; -118.11136; WGS84
Collection Date: 10/6/2016
Description: Samples were collected at the Huntington Garden in San Marino California as part of a JPL Subcontract studying HyTES imagery. Samples were taken to JPL and processed within 48 hours of collection. The same leaves were processed in the Nicolet and then measured using the ASD.
Measurement: Hemispherical reflectance
First Column: X
Second Column: Y
X Units: Wavelength (micrometer)
Y Units: Reflectance (percentage)
First X Value: 2.501
Last X Value: 15.387
Number of X Values: 1737
Additional Information: vegetation.tree.bambusa.beecheyana.tir.jpl244.jpl.nicolet.ancillary.txt

 2.5010	 7.4000
 2.5030	 7.2970
 2.5040	 7.2640
 2.5050	 7.2380
 2.5060	 7.2600
 2.5070	 7.2770
 2.5090	 7.3130
 2.5100	 7.2580
 2.5110	 7.2200
 2.5120	 7.1990
 2.5140	 7.1040
 2.5150	 7.0290
 2.5160	 7.0860
 2.5170	 7.1260
 2.5180	 7.1740
 2.5200	 7.1130
 2.5210	 7.0940
 2.5220	 7.1120
 2.5230	 7.0450
 2.5250	 6.9560
 2.5260	 7.0540
 2.5270	 7.0670
 2.5280	 7.0780
 2.5300	 7.0390
 2.5310	 7.0000
 2.5320	 6.9130
 2.5330	 6.9230
 2.5340	 7.0150
 2.5360	 6.9540
 2.5370	 6.8170
 2.5380	 6.9880
 2.5390	 7.0550
 2.5410	 7.0640
 2.5420	 7.0080
 2.5430	 6.7970
 2.5440	 6.8240
 2.5460	 7.0060
 2.5470	 6.9670
 2.5480	 6.8630
 2.5490	 6.9070
 2.5510	 6.8870
 2.5520	 6.7720
 2.5530	 6.7870
 2.5540	 6.9710
 2.5560	 7.1750
 2.5570	 7.2350
 2.5580	 7.2910
 2.5590	 7.1390
 2.5610	 6.6660
 2.5620	 6.2910
 2.5630	 6.2950
 2.5650	 6.3160
 2.5660	 6.6880
 2.5670	 7.0950
 2.5680	 6.9900
 2.5700	 6.5620
 2.5710	 6.6920
 2.5720	 6.9080
 2.5730	 6.4740
 2.5750	 6.5590
 2.5760	 6.7090
 2.5770	 6.4500
 2.5790	 6.8450
 2.5800	 7.0220
 2.5810	 6.6170
 2.5820	 6.5170
 2.5840	 6.1660
 2.5850	 6.1590
 2.5860	 6.5420
 2.5880	 6.2390
 2.5890	 6.3300
 2.5900	 6.5700
 2.5910	 6.8150
 2.5930	 6.5840
 2.5940	 5.7210
 2.5950	 4.8790
 2.5970	 5.5510
 2.5980	 6.4280
 2.5990	 6.7810
 2.6010	 6.6170
 2.6020	 6.2990
 2.6030	 6.0270
 2.6040	 5.6340
 2.6060	 5.3210
 2.6070	 5.5740
 2.6080	 5.7970
 2.6100	 5.8010
 2.6110	 5.9530
 2.6120	 6.0620
 2.6140	 5.9210
 2.6150	 5.9250
 2.6160	 5.2940
 2.6180	 4.9080
 2.6190	 5.3240
 2.6200	 5.1390
 2.6220	 5.1850
 2.6230	 5.6830
 2.6240	 5.7140
 2.6260	 5.4760
 2.6270	 4.9840
 2.6280	 5.1400
 2.6300	 4.9420
 2.6310	 4.4780
 2.6320	 4.7880
 2.6340	 4.9510
 2.6350	 4.9550
 2.6360	 5.1750
 2.6380	 5.1360
 2.6390	 5.1070
 2.6400	 4.9900
 2.6420	 4.8420
 2.6430	 4.6960
 2.6440	 4.6620
 2.6460	 4.3920
 2.6470	 4.4210
 2.6480	 4.5450
 2.6500	 4.5850
 2.6510	 4.3780
 2.6520	 4.0390
 2.6540	 3.9980
 2.6550	 4.0370
 2.6570	 3.9470
 2.6580	 4.0730
 2.6590	 3.8020
 2.6610	 3.6440
 2.6620	 3.6220
 2.6630	 3.6080
 2.6650	 3.1940
 2.6660	 2.8440
 2.6670	 2.8120
 2.6690	 3.0440
 2.6700	 2.7610
 2.6720	 2.6900
 2.6730	 3.0700
 2.6740	 3.1720
 2.6760	 2.8980
 2.6770	 2.5760
 2.6780	 2.5860
 2.6800	 2.7640
 2.6810	 2.9730
 2.6830	 3.0300
 2.6840	 2.9010
 2.6850	 2.8120
 2.6870	 2.7340
 2.6880	 2.8050
 2.6900	 2.8010
 2.6910	 2.8440
 2.6920	 2.7300
 2.6940	 2.4300
 2.6950	 2.2910
 2.6970	 2.4640
 2.6980	 2.6170
 2.6990	 2.6810
 2.7010	 2.5090
 2.7020	 2.4870
 2.7040	 2.6270
 2.7050	 2.6740
 2.7060	 2.5880
 2.7080	 2.5010
 2.7090	 2.2340
 2.7110	 2.0790
 2.7120	 2.1490
 2.7130	 2.4640
 2.7150	 2.5220
 2.7160	 2.4890
 2.7180	 2.3410
 2.7190	 2.1750
 2.7210	 1.8970
 2.7220	 2.0970
 2.7230	 2.1930
 2.7250	 2.0120
 2.7260	 2.1440
 2.7280	 2.3940
 2.7290	 2.4700
 2.7310	 2.5110
 2.7320	 2.5000
 2.7340	 2.5150
 2.7350	 2.3540
 2.7360	 2.3530
 2.7380	 2.2730
 2.7390	 1.9770
 2.7410	 1.8370
 2.7420	 2.0380
 2.7440	 2.3290
 2.7450	 2.4230
 2.7470	 2.3480
 2.7480	 2.3880
 2.7490	 2.3740
 2.7510	 2.3750
 2.7520	 2.2810
 2.7540	 2.2310
 2.7550	 1.9150
 2.7570	 1.9880
 2.7580	 2.3240
 2.7600	 2.4540
 2.7610	 2.3370
 2.7630	 2.1870
 2.7640	 2.1420
 2.7660	 2.2600
 2.7670	 2.1940
 2.7690	 2.1800
 2.7700	 2.1590
 2.7720	 2.1360
 2.7730	 2.2350
 2.7740	 2.3210
 2.7760	 2.2580
 2.7770	 2.2640
 2.7790	 2.2700
 2.7800	 2.2630
 2.7820	 2.1940
 2.7830	 2.2910
 2.7850	 2.3240
 2.7860	 2.1290
 2.7880	 2.0290
 2.7890	 2.2680
 2.7910	 2.3210
 2.7920	 2.2660
 2.7940	 2.2110
 2.7950	 2.2730
 2.7970	 2.2830
 2.7980	 2.2930
 2.8000	 2.3210
 2.8010	 2.2590
 2.8030	 2.0580
 2.8040	 2.1730
 2.8060	 2.2860
 2.8080	 2.2740
 2.8090	 2.2960
 2.8110	 2.3390
 2.8120	 2.2630
 2.8140	 2.2710
 2.8150	 2.2610
 2.8170	 2.2620
 2.8180	 2.1750
 2.8200	 2.1650
 2.8210	 2.1770
 2.8230	 2.2310
 2.8240	 2.2780
 2.8260	 2.3240
 2.8270	 2.2950
 2.8290	 2.3030
 2.8310	 2.2870
 2.8320	 2.3090
 2.8340	 2.2630
 2.8350	 2.2030
 2.8370	 2.0960
 2.8380	 2.1900
 2.8400	 2.2820
 2.8410	 2.3150
 2.8430	 2.2990
 2.8440	 2.3080
 2.8460	 2.2910
 2.8480	 2.3250
 2.8490	 2.2550
 2.8510	 2.2100
 2.8520	 2.1310
 2.8540	 2.1710
 2.8550	 2.2010
 2.8570	 2.2200
 2.8590	 2.2080
 2.8600	 2.2710
 2.8620	 2.2640
 2.8630	 2.2600
 2.8650	 2.2120
 2.8660	 2.2540
 2.8680	 2.2040
 2.8700	 2.2190
 2.8710	 2.2290
 2.8730	 2.2790
 2.8740	 2.2970
 2.8760	 2.2820
 2.8780	 2.2030
 2.8790	 2.2640
 2.8810	 2.2940
 2.8820	 2.3020
 2.8840	 2.2100
 2.8860	 2.1840
 2.8870	 2.2050
 2.8890	 2.1940
 2.8900	 2.1160
 2.8920	 2.1920
 2.8940	 2.2490
 2.8950	 2.2490
 2.8970	 2.2010
 2.8990	 2.1970
 2.9000	 2.1600
 2.9020	 2.2300
 2.9030	 2.1980
 2.9050	 2.1750
 2.9070	 2.1440
 2.9080	 2.2070
 2.9100	 2.1560
 2.9120	 2.2110
 2.9130	 2.2440
 2.9150	 2.2260
 2.9160	 2.1990
 2.9180	 2.2250
 2.9200	 2.2330
 2.9210	 2.2940
 2.9230	 2.2860
 2.9250	 2.2700
 2.9260	 2.1950
 2.9280	 2.1800
 2.9300	 2.1680
 2.9310	 2.1900
 2.9330	 2.1410
 2.9350	 2.1380
 2.9360	 2.1330
 2.9380	 2.2200
 2.9400	 2.1720
 2.9410	 2.1200
 2.9430	 2.0830
 2.9450	 2.1070
 2.9460	 2.1100
 2.9480	 2.1710
 2.9500	 2.1120
 2.9510	 2.1030
 2.9530	 2.1350
 2.9550	 2.1700
 2.9560	 2.1390
 2.9580	 2.1420
 2.9600	 2.1610
 2.9610	 2.1810
 2.9630	 2.0720
 2.9650	 2.1000
 2.9670	 2.1240
 2.9680	 2.1320
 2.9700	 2.0700
 2.9720	 2.0760
 2.9730	 2.1210
 2.9750	 2.1970
 2.9770	 2.1140
 2.9780	 2.0940
 2.9800	 2.1070
 2.9820	 2.1340
 2.9840	 2.1110
 2.9850	 2.1230
 2.9870	 2.1250
 2.9890	 2.0990
 2.9900	 2.0450
 2.9920	 2.0770
 2.9940	 2.0630
 2.9960	 2.0620
 2.9970	 2.0780
 2.9990	 2.1090
 3.0010	 2.0880
 3.0030	 2.1260
 3.0040	 2.1270
 3.0060	 2.1020
 3.0080	 2.0870
 3.0100	 2.0720
 3.0110	 2.0360
 3.0130	 2.0800
 3.0150	 2.1270
 3.0170	 2.1780
 3.0180	 2.1140
 3.0200	 2.1300
 3.0220	 2.0850
 3.0240	 2.0230
 3.0250	 2.0890
 3.0270	 2.1860
 3.0290	 2.1480
 3.0310	 2.1280
 3.0320	 2.0710
 3.0340	 2.0970
 3.0360	 2.0810
 3.0380	 2.0920
 3.0400	 2.1260
 3.0410	 2.1810
 3.0430	 2.1190
 3.0450	 2.1600
 3.0470	 2.1530
 3.0480	 2.1150
 3.0500	 2.1010
 3.0520	 2.1410
 3.0540	 2.0510
 3.0560	 2.0610
 3.0570	 2.1290
 3.0590	 2.1380
 3.0610	 2.1170
 3.0630	 2.1380
 3.0650	 2.1160
 3.0670	 2.2030
 3.0680	 2.1580
 3.0700	 2.1300
 3.0720	 2.0970
 3.0740	 2.1260
 3.0760	 2.0920
 3.0770	 2.1020
 3.0790	 2.1130
 3.0810	 2.0780
 3.0830	 2.0610
 3.0850	 2.1630
 3.0870	 2.1370
 3.0880	 2.1190
 3.0900	 2.0970
 3.0920	 2.0950
 3.0940	 2.0670
 3.0960	 2.1310
 3.0980	 2.1530
 3.1000	 2.1600
 3.1010	 2.1460
 3.1030	 2.1620
 3.1050	 2.1270
 3.1070	 2.1310
 3.1090	 2.1120
 3.1110	 2.1120
 3.1130	 2.0680
 3.1140	 2.0780
 3.1160	 2.0730
 3.1180	 2.1090
 3.1200	 2.0720
 3.1220	 2.0690
 3.1240	 2.0730
 3.1260	 2.1090
 3.1280	 2.1140
 3.1290	 2.1850
 3.1310	 2.1820
 3.1330	 2.1510
 3.1350	 2.1030
 3.1370	 2.1120
 3.1390	 2.0740
 3.1410	 2.0670
 3.1430	 2.0800
 3.1450	 2.1170
 3.1470	 2.0660
 3.1480	 2.0780
 3.1500	 2.0990
 3.1520	 2.1310
 3.1540	 2.1580
 3.1560	 2.1680
 3.1580	 2.1000
 3.1600	 2.0920
 3.1620	 2.1130
 3.1640	 2.1470
 3.1660	 2.1170
 3.1680	 2.1470
 3.1700	 2.1420
 3.1720	 2.1340
 3.1730	 2.1100
 3.1750	 2.1360
 3.1770	 2.0980
 3.1790	 2.0950
 3.1810	 2.0950
 3.1830	 2.0990
 3.1850	 2.0700
 3.1870	 2.0950
 3.1890	 2.0680
 3.1910	 2.0840
 3.1930	 2.0810
 3.1950	 2.1010
 3.1970	 2.0750
 3.1990	 2.1290
 3.2010	 2.1610
 3.2030	 2.1110
 3.2050	 2.0600
 3.2070	 2.1390
 3.2090	 2.1120
 3.2110	 2.0900
 3.2130	 2.1250
 3.2150	 2.1500
 3.2170	 2.0940
 3.2190	 2.1140
 3.2210	 2.1310
 3.2230	 2.1630
 3.2250	 2.0970
 3.2270	 2.0930
 3.2290	 2.0590
 3.2310	 2.0680
 3.2330	 2.0730
 3.2350	 2.0760
 3.2370	 2.0410
 3.2390	 2.1060
 3.2410	 2.1450
 3.2430	 2.1330
 3.2450	 2.0840
 3.2470	 2.0880
 3.2490	 2.0530
 3.2510	 2.0840
 3.2530	 2.1080
 3.2550	 2.1100
 3.2570	 2.0660
 3.2590	 2.0690
 3.2610	 2.0390
 3.2630	 2.0870
 3.2650	 2.1220
 3.2670	 2.1280
 3.2700	 2.0870
 3.2720	 2.0960
 3.2740	 2.1000
 3.2760	 2.1210
 3.2780	 2.1030
 3.2800	 2.0690
 3.2820	 1.9960
 3.2840	 2.0460
 3.2860	 2.0970
 3.2880	 2.1260
 3.2900	 2.0850
 3.2920	 2.0840
 3.2940	 2.0340
 3.2970	 2.0010
 3.2990	 1.9860
 3.3010	 2.0090
 3.3030	 2.0040
 3.3050	 2.0090
 3.3070	 2.0090
 3.3090	 2.0630
 3.3110	 2.0630
 3.3130	 2.0470
 3.3160	 1.9870
 3.3180	 2.0190
 3.3200	 2.0950
 3.3220	 2.0900
 3.3240	 2.0090
 3.3260	 2.0340
 3.3280	 2.0240
 3.3300	 2.0310
 3.3330	 2.0180
 3.3350	 2.0500
 3.3370	 2.0340
 3.3390	 2.0220
 3.3410	 1.9680
 3.3430	 1.9970
 3.3450	 2.0030
 3.3480	 1.9960
 3.3500	 1.9610
 3.3520	 2.0270
 3.3540	 2.0090
 3.3560	 1.9900
 3.3580	 1.9750
 3.3610	 1.9470
 3.3630	 1.9000
 3.3650	 1.9140
 3.3670	 1.9360
 3.3690	 1.9730
 3.3720	 1.9630
 3.3740	 1.9740
 3.3760	 1.9600
 3.3780	 1.9770
 3.3800	 1.9830
 3.3830	 1.9630
 3.3850	 1.9230
 3.3870	 1.9710
 3.3890	 1.9810
 3.3910	 1.9660
 3.3940	 1.9340
 3.3960	 1.9540
 3.3980	 1.9700
 3.4000	 1.9860
 3.4030	 2.0090
 3.4050	 2.0330
 3.4070	 2.0590
 3.4090	 2.1640
 3.4110	 2.2400
 3.4140	 2.3310
 3.4160	 2.4560
 3.4180	 2.6350
 3.4200	 2.8800
 3.4230	 3.2790
 3.4250	 3.7270
 3.4270	 4.2290
 3.4300	 4.5120
 3.4320	 4.4100
 3.4340	 4.0370
 3.4360	 3.6780
 3.4390	 3.4330
 3.4410	 3.3230
 3.4430	 3.2070
 3.4450	 3.1480
 3.4480	 3.0880
 3.4500	 3.0330
 3.4520	 2.9430
 3.4550	 2.9310
 3.4570	 2.8820
 3.4590	 2.8370
 3.4620	 2.7930
 3.4640	 2.7680
 3.4660	 2.7280
 3.4690	 2.7190
 3.4710	 2.6780
 3.4730	 2.6350
 3.4760	 2.6050
 3.4780	 2.5970
 3.4800	 2.5310
 3.4830	 2.5110
 3.4850	 2.4960
 3.4870	 2.5010
 3.4900	 2.4800
 3.4920	 2.4270
 3.4940	 2.3760
 3.4970	 2.4250
 3.4990	 2.4640
 3.5010	 2.5370
 3.5040	 2.5950
 3.5060	 2.9430
 3.5080	 3.6030
 3.5110	 4.1610
 3.5130	 4.2100
 3.5160	 3.9030
 3.5180	 3.5650
 3.5200	 3.3740
 3.5230	 3.2790
 3.5250	 3.1870
 3.5280	 3.0810
 3.5300	 3.0270
 3.5320	 3.0040
 3.5350	 2.9590
 3.5370	 2.8780
 3.5400	 2.8470
 3.5420	 2.8150
 3.5440	 2.8240
 3.5470	 2.8040
 3.5490	 2.7800
 3.5520	 2.7490
 3.5540	 2.7390
 3.5570	 2.7240
 3.5590	 2.7380
 3.5610	 2.7200
 3.5640	 2.7270
 3.5660	 2.7430
 3.5690	 2.7780
 3.5710	 2.7800
 3.5740	 2.7960
 3.5760	 2.7700
 3.5790	 2.7660
 3.5810	 2.7670
 3.5840	 2.7760
 3.5860	 2.7120
 3.5890	 2.6990
 3.5910	 2.6840
 3.5940	 2.7130
 3.5960	 2.7350
 3.5990	 2.7440
 3.6010	 2.7230
 3.6040	 2.7500
 3.6060	 2.7300
 3.6090	 2.6960
 3.6110	 2.7000
 3.6140	 2.7350
 3.6160	 2.7390
 3.6190	 2.7480
 3.6210	 2.7730
 3.6240	 2.8060
 3.6260	 2.7890
 3.6290	 2.7960
 3.6310	 2.8340
 3.6340	 2.8470
 3.6360	 2.7910
 3.6390	 2.7610
 3.6410	 2.7460
 3.6440	 2.7850
 3.6470	 2.7850
 3.6490	 2.7880
 3.6520	 2.7950
 3.6540	 2.7860
 3.6570	 2.7660
 3.6590	 2.8310
 3.6620	 2.8340
 3.6650	 2.8420
 3.6670	 2.8690
 3.6700	 2.8790
 3.6720	 2.8510
 3.6750	 2.8380
 3.6780	 2.8530
 3.6800	 2.8970
 3.6830	 2.8880
 3.6850	 2.8930
 3.6880	 2.9210
 3.6910	 2.9390
 3.6930	 2.9070
 3.6960	 2.9410
 3.6990	 2.9190
 3.7010	 2.9100
 3.7040	 2.9510
 3.7070	 2.9930
 3.7090	 2.9720
 3.7120	 2.9530
 3.7150	 2.9600
 3.7170	 3.0100
 3.7200	 2.9960
 3.7230	 2.9840
 3.7250	 3.0000
 3.7280	 3.0500
 3.7310	 3.0560
 3.7330	 3.0730
 3.7360	 3.0630
 3.7390	 3.0770
 3.7410	 3.0680
 3.7440	 3.1030
 3.7470	 3.1280
 3.7490	 3.1560
 3.7520	 3.1600
 3.7550	 3.1740
 3.7580	 3.1990
 3.7600	 3.2390
 3.7630	 3.2340
 3.7660	 3.2490
 3.7690	 3.2510
 3.7710	 3.2890
 3.7740	 3.3160
 3.7770	 3.3140
 3.7790	 3.3120
 3.7820	 3.3550
 3.7850	 3.3540
 3.7880	 3.3430
 3.7910	 3.3270
 3.7930	 3.3550
 3.7960	 3.3660
 3.7990	 3.4070
 3.8020	 3.4300
 3.8040	 3.4190
 3.8070	 3.4390
 3.8100	 3.4750
 3.8130	 3.4660
 3.8160	 3.4860
 3.8180	 3.5130
 3.8210	 3.5000
 3.8240	 3.4980
 3.8270	 3.5240
 3.8300	 3.5390
 3.8330	 3.6010
 3.8350	 3.5960
 3.8380	 3.5750
 3.8410	 3.5430
 3.8440	 3.5380
 3.8470	 3.5310
 3.8500	 3.5620
 3.8520	 3.5900
 3.8550	 3.6170
 3.8580	 3.6260
 3.8610	 3.6410
 3.8640	 3.6160
 3.8670	 3.6650
 3.8700	 3.6600
 3.8730	 3.6310
 3.8760	 3.6310
 3.8780	 3.6240
 3.8810	 3.6100
 3.8840	 3.6450
 3.8870	 3.6530
 3.8900	 3.6590
 3.8930	 3.6590
 3.8960	 3.6700
 3.8990	 3.6500
 3.9020	 3.6490
 3.9050	 3.6300
 3.9080	 3.6330
 3.9110	 3.6370
 3.9140	 3.6460
 3.9170	 3.6290
 3.9190	 3.6330
 3.9220	 3.6390
 3.9250	 3.6890
 3.9280	 3.6900
 3.9310	 3.6370
 3.9340	 3.6350
 3.9370	 3.6580
 3.9400	 3.6410
 3.9430	 3.6440
 3.9460	 3.6430
 3.9490	 3.6460
 3.9520	 3.6130
 3.9550	 3.6180
 3.9580	 3.6050
 3.9610	 3.5990
 3.9640	 3.5980
 3.9670	 3.5910
 3.9700	 3.5770
 3.9740	 3.5510
 3.9770	 3.5530
 3.9800	 3.6030
 3.9830	 3.5830
 3.9860	 3.5790
 3.9890	 3.6320
 3.9920	 3.6840
 3.9950	 3.6660
 3.9980	 3.6150
 4.0010	 3.5720
 4.0040	 3.5860
 4.0070	 3.5930
 4.0100	 3.5890
 4.0140	 3.5570
 4.0170	 3.5490
 4.0200	 3.5370
 4.0230	 3.5640
 4.0260	 3.5920
 4.0290	 3.5780
 4.0320	 3.5410
 4.0350	 3.5240
 4.0390	 3.5200
 4.0420	 3.5510
 4.0450	 3.5600
 4.0480	 3.5240
 4.0510	 3.4840
 4.0540	 3.5010
 4.0570	 3.5150
 4.0610	 3.5040
 4.0640	 3.4740
 4.0670	 3.4600
 4.0700	 3.4710
 4.0730	 3.4890
 4.0770	 3.4540
 4.0800	 3.4680
 4.0830	 3.4630
 4.0860	 3.4260
 4.0890	 3.4300
 4.0930	 3.4450
 4.0960	 3.4150
 4.0990	 3.4190
 4.1020	 3.4210
 4.1060	 3.4000
 4.1090	 3.3550
 4.1120	 3.3500
 4.1150	 3.3730
 4.1190	 3.3850
 4.1220	 3.3720
 4.1250	 3.3740
 4.1290	 3.3740
 4.1320	 3.3660
 4.1350	 3.3410
 4.1380	 3.3350
 4.1420	 3.3240
 4.1450	 3.3220
 4.1480	 3.3070
 4.1520	 3.2870
 4.1550	 3.2700
 4.1580	 3.2900
 4.1620	 3.2930
 4.1650	 3.2720
 4.1680	 3.2550
 4.1720	 3.2490
 4.1750	 3.2380
 4.1780	 3.2200
 4.1820	 3.1950
 4.1850	 3.2330
 4.1890	 3.2000
 4.1920	 3.1910
 4.1950	 3.2160
 4.1990	 3.2140
 4.2020	 3.2290
 4.2060	 3.2540
 4.2090	 3.2580
 4.2120	 3.2530
 4.2160	 3.2490
 4.2190	 3.3410
 4.2230	 3.3080
 4.2260	 3.3650
 4.2300	 3.3980
 4.2330	 3.3330
 4.2360	 3.2740
 4.2400	 3.2930
 4.2430	 3.2770
 4.2470	 3.2290
 4.2500	 3.1870
 4.2540	 3.1050
 4.2570	 3.0310
 4.2610	 3.0120
 4.2640	 3.0790
 4.2680	 3.1150
 4.2710	 3.0850
 4.2750	 3.0730
 4.2780	 3.0420
 4.2820	 3.0600
 4.2850	 3.0160
 4.2890	 2.9840
 4.2930	 2.9940
 4.2960	 2.9990
 4.3000	 3.0230
 4.3030	 2.9770
 4.3070	 2.9340
 4.3100	 2.9400
 4.3140	 2.9270
 4.3180	 2.8810
 4.3210	 2.8600
 4.3250	 2.8480
 4.3280	 2.8490
 4.3320	 2.8200
 4.3360	 2.7650
 4.3390	 2.7540
 4.3430	 2.7490
 4.3470	 2.7540
 4.3500	 2.7560
 4.3540	 2.7520
 4.3580	 2.7270
 4.3610	 2.6880
 4.3650	 2.6760
 4.3690	 2.6690
 4.3720	 2.6760
 4.3760	 2.7030
 4.3800	 2.6940
 4.3830	 2.6470
 4.3870	 2.6230
 4.3910	 2.6210
 4.3940	 2.6320
 4.3980	 2.6480
 4.4020	 2.6250
 4.4060	 2.5930
 4.4090	 2.5710
 4.4130	 2.5930
 4.4170	 2.5950
 4.4210	 2.5630
 4.4240	 2.5800
 4.4280	 2.6010
 4.4320	 2.5780
 4.4360	 2.5280
 4.4400	 2.5210
 4.4430	 2.5170
 4.4470	 2.5220
 4.4510	 2.5280
 4.4550	 2.5140
 4.4590	 2.5190
 4.4630	 2.5400
 4.4660	 2.5240
 4.4700	 2.5180
 4.4740	 2.5230
 4.4780	 2.5170
 4.4820	 2.5010
 4.4860	 2.5070
 4.4900	 2.4780
 4.4930	 2.4470
 4.4970	 2.4320
 4.5010	 2.4200
 4.5050	 2.4170
 4.5090	 2.4370
 4.5130	 2.4330
 4.5170	 2.4010
 4.5210	 2.3960
 4.5250	 2.4430
 4.5290	 2.4340
 4.5330	 2.4270
 4.5370	 2.4090
 4.5410	 2.3940
 4.5450	 2.3930
 4.5490	 2.3980
 4.5530	 2.4200
 4.5570	 2.4040
 4.5610	 2.3810
 4.5650	 2.3900
 4.5690	 2.3890
 4.5730	 2.3690
 4.5770	 2.3830
 4.5810	 2.3970
 4.5850	 2.3770
 4.5890	 2.3630
 4.5930	 2.3600
 4.5970	 2.3870
 4.6010	 2.3520
 4.6050	 2.3320
 4.6090	 2.3770
 4.6130	 2.4230
 4.6170	 2.4140
 4.6220	 2.3910
 4.6260	 2.3810
 4.6300	 2.3870
 4.6340	 2.4050
 4.6380	 2.4060
 4.6420	 2.4050
 4.6460	 2.4090
 4.6510	 2.3830
 4.6550	 2.3670
 4.6590	 2.3850
 4.6630	 2.3770
 4.6670	 2.3470
 4.6720	 2.3520
 4.6760	 2.3480
 4.6800	 2.3430
 4.6840	 2.3370
 4.6880	 2.3380
 4.6930	 2.3450
 4.6970	 2.3380
 4.7010	 2.3320
 4.7050	 2.3720
 4.7100	 2.3650
 4.7140	 2.3550
 4.7180	 2.3740
 4.7230	 2.3900
 4.7270	 2.3860
 4.7310	 2.3680
 4.7360	 2.3340
 4.7400	 2.3620
 4.7440	 2.3770
 4.7490	 2.3800
 4.7530	 2.3830
 4.7570	 2.3600
 4.7620	 2.3660
 4.7660	 2.3920
 4.7700	 2.3580
 4.7750	 2.3600
 4.7790	 2.3470
 4.7840	 2.3490
 4.7880	 2.3460
 4.7920	 2.3560
 4.7970	 2.3720
 4.8010	 2.3710
 4.8060	 2.3800
 4.8100	 2.3990
 4.8150	 2.3870
 4.8190	 2.4010
 4.8240	 2.3950
 4.8280	 2.3820
 4.8330	 2.3790
 4.8370	 2.3780
 4.8420	 2.3610
 4.8460	 2.3850
 4.8510	 2.3880
 4.8550	 2.3890
 4.8600	 2.4120
 4.8640	 2.4100
 4.8690	 2.3900
 4.8740	 2.4190
 4.8780	 2.4200
 4.8830	 2.4390
 4.8870	 2.4440
 4.8920	 2.4570
 4.8970	 2.4610
 4.9010	 2.4680
 4.9060	 2.4500
 4.9100	 2.4420
 4.9150	 2.4550
 4.9200	 2.4450
 4.9240	 2.4240
 4.9290	 2.4610
 4.9340	 2.4760
 4.9390	 2.4630
 4.9430	 2.4650
 4.9480	 2.5110
 4.9530	 2.5100
 4.9570	 2.4670
 4.9620	 2.4710
 4.9670	 2.5280
 4.9720	 2.5640
 4.9760	 2.5740
 4.9810	 2.5320
 4.9860	 2.5200
 4.9910	 2.5460
 4.9960	 2.5720
 5.0000	 2.5560
 5.0050	 2.5770
 5.0100	 2.5720
 5.0150	 2.5660
 5.0200	 2.5380
 5.0250	 2.5700
 5.0300	 2.5570
 5.0340	 2.5760
 5.0390	 2.5930
 5.0440	 2.5980
 5.0490	 2.6190
 5.0540	 2.6300
 5.0590	 2.6410
 5.0640	 2.6750
 5.0690	 2.6620
 5.0740	 2.6680
 5.0790	 2.6630
 5.0840	 2.6300
 5.0890	 2.6510
 5.0940	 2.7030
 5.0990	 2.6940
 5.1040	 2.7010
 5.1090	 2.7400
 5.1140	 2.7560
 5.1190	 2.6970
 5.1240	 2.7110
 5.1290	 2.7430
 5.1340	 2.7600
 5.1390	 2.7470
 5.1440	 2.7230
 5.1490	 2.6930
 5.1550	 2.7520
 5.1600	 2.7940
 5.1650	 2.8390
 5.1700	 2.8530
 5.1750	 2.8910
 5.1800	 2.8680
 5.1850	 2.8500
 5.1910	 2.8380
 5.1960	 2.8040
 5.2010	 2.7300
 5.2060	 2.7810
 5.2110	 2.7340
 5.2170	 2.7360
 5.2220	 2.8160
 5.2270	 2.8550
 5.2330	 2.8550
 5.2380	 2.8160
 5.2430	 2.7900
 5.2480	 2.8540
 5.2540	 2.8720
 5.2590	 2.8950
 5.2640	 2.9170
 5.2700	 2.8640
 5.2750	 2.8170
 5.2800	 2.8700
 5.2860	 2.8680
 5.2910	 2.8130
 5.2970	 2.8470
 5.3020	 2.8640
 5.3080	 2.8440
 5.3130	 2.8980
 5.3180	 2.8910
 5.3240	 2.9180
 5.3290	 2.8930
 5.3350	 2.8750
 5.3400	 2.8660
 5.3460	 2.7440
 5.3510	 2.5710
 5.3570	 2.6950
 5.3620	 2.7940
 5.3680	 2.8100
 5.3740	 2.7770
 5.3790	 2.7740
 5.3850	 2.7510
 5.3900	 2.8130
 5.3960	 2.8460
 5.4010	 2.8230
 5.4070	 2.7640
 5.4130	 2.7410
 5.4180	 2.5520
 5.4240	 2.4320
 5.4300	 2.6220
 5.4350	 2.7330
 5.4410	 2.6440
 5.4470	 2.6250
 5.4530	 2.6630
 5.4580	 2.6220
 5.4640	 2.4280
 5.4700	 2.4710
 5.4760	 2.5020
 5.4810	 2.4880
 5.4870	 2.5600
 5.4930	 2.5770
 5.4990	 2.5500
 5.5050	 2.5330
 5.5110	 2.5300
 5.5160	 2.4970
 5.5220	 2.4320
 5.5280	 2.4730
 5.5340	 2.5010
 5.5400	 2.4620
 5.5460	 2.3540
 5.5520	 2.2540
 5.5580	 2.1970
 5.5640	 2.2710
 5.5700	 2.2740
 5.5760	 2.1100
 5.5820	 1.9990
 5.5880	 2.1750
 5.5940	 2.2490
 5.6000	 2.1930
 5.6060	 2.1950
 5.6120	 2.2170
 5.6180	 2.1420
 5.6240	 2.1710
 5.6300	 2.1000
 5.6360	 1.9350
 5.6420	 1.7360
 5.6490	 1.8040
 5.6550	 1.9060
 5.6610	 2.0030
 5.6670	 2.0290
 5.6730	 1.9120
 5.6800	 1.8630
 5.6860	 1.9120
 5.6920	 1.8120
 5.6980	 1.8520
 5.7050	 1.7860
 5.7110	 1.6440
 5.7170	 1.6210
 5.7230	 1.7020
 5.7300	 1.7610
 5.7360	 1.7630
 5.7420	 1.7320
 5.7490	 1.7230
 5.7550	 1.8060
 5.7620	 1.7210
 5.7680	 1.5390
 5.7740	 1.8060
 5.7810	 1.9640
 5.7870	 2.0600
 5.7940	 2.0720
 5.8000	 2.0660
 5.8070	 2.0400
 5.8130	 1.9140
 5.8200	 1.6310
 5.8260	 1.6420
 5.8330	 1.8050
 5.8390	 1.9750
 5.8460	 2.0010
 5.8530	 1.9580
 5.8590	 1.8280
 5.8660	 1.7880
 5.8730	 1.7990
 5.8790	 1.5430
 5.8860	 1.4840
 5.8930	 1.5890
 5.8990	 1.5860
 5.9060	 1.8510
 5.9130	 1.8780
 5.9190	 1.8540
 5.9260	 1.7910
 5.9330	 1.5580
 5.9400	 1.3640
 5.9470	 1.6520
 5.9530	 1.8040
 5.9600	 1.8480
 5.9670	 1.6650
 5.9740	 1.6580
 5.9810	 1.6390
 5.9880	 1.5540
 5.9950	 1.6270
 6.0020	 1.8180
 6.0090	 1.7540
 6.0160	 1.7000
 6.0230	 1.7690
 6.0300	 1.8520
 6.0370	 1.7570
 6.0440	 1.4330
 6.0510	 1.1670
 6.0580	 1.4720
 6.0650	 1.5230
 6.0720	 1.3860
 6.0790	 1.4960
 6.0860	 1.7590
 6.0930	 1.8030
 6.1010	 1.7570
 6.1080	 1.5040
 6.1150	 1.4190
 6.1220	 1.6510
 6.1290	 1.8620
 6.1370	 1.8010
 6.1440	 1.7700
 6.1510	 1.7750
 6.1580	 1.7280
 6.1660	 1.7950
 6.1730	 1.9430
 6.1800	 1.7460
 6.1880	 1.6800
 6.1950	 1.8810
 6.2030	 1.9600
 6.2100	 1.8930
 6.2180	 1.9100
 6.2250	 1.9130
 6.2320	 1.9850
 6.2400	 1.9850
 6.2480	 2.0440
 6.2550	 2.0480
 6.2630	 2.0430
 6.2700	 1.9720
 6.2780	 1.9730
 6.2850	 1.9870
 6.2930	 2.0100
 6.3010	 2.0010
 6.3080	 2.0650
 6.3160	 2.0430
 6.3240	 2.0520
 6.3310	 1.9690
 6.3390	 1.7690
 6.3470	 1.6430
 6.3550	 1.8870
 6.3620	 1.8850
 6.3700	 1.7500
 6.3780	 1.8280
 6.3860	 1.9770
 6.3940	 1.9390
 6.4020	 1.8770
 6.4100	 1.4330
 6.4180	 1.2580
 6.4260	 1.5700
 6.4340	 1.7620
 6.4420	 1.8760
 6.4500	 1.9400
 6.4580	 1.9150
 6.4660	 1.9330
 6.4740	 1.7190
 6.4820	 1.5660
 6.4900	 1.3340
 6.4980	 1.4620
 6.5060	 1.7710
 6.5140	 1.8200
 6.5230	 1.7180
 6.5310	 1.8790
 6.5390	 1.8860
 6.5470	 1.8110
 6.5560	 1.6870
 6.5640	 1.6060
 6.5720	 1.3960
 6.5800	 1.5460
 6.5890	 1.5900
 6.5970	 1.6860
 6.6060	 1.7710
 6.6140	 1.7930
 6.6230	 1.6960
 6.6310	 1.4600
 6.6390	 1.3170
 6.6480	 1.7020
 6.6570	 1.9010
 6.6650	 1.8340
 6.6740	 1.6720
 6.6820	 1.7010
 6.6910	 1.7930
 6.7000	 1.8420
 6.7080	 1.6830
 6.7170	 1.6900
 6.7260	 1.7690
 6.7340	 1.9170
 6.7430	 1.8840
 6.7520	 1.8350
 6.7610	 1.8200
 6.7690	 1.7680
 6.7780	 1.6770
 6.7870	 1.6630
 6.7960	 1.7520
 6.8050	 1.9990
 6.8140	 1.9590
 6.8230	 1.8390
 6.8320	 1.8970
 6.8410	 2.1880
 6.8500	 2.0070
 6.8590	 1.6460
 6.8680	 1.6100
 6.8770	 1.9830
 6.8860	 2.0530
 6.8960	 2.0340
 6.9050	 1.9100
 6.9140	 1.9660
 6.9230	 1.9910
 6.9320	 2.0430
 6.9420	 2.0090
 6.9510	 1.9070
 6.9600	 1.6680
 6.9700	 1.8550
 6.9790	 1.9650
 6.9880	 1.9680
 6.9980	 1.9350
 7.0070	 2.0030
 7.0170	 1.9220
 7.0260	 1.8880
 7.0360	 1.8070
 7.0450	 1.7120
 7.0550	 1.7770
 7.0650	 1.9610
 7.0740	 1.9670
 7.0840	 2.0260
 7.0940	 1.9810
 7.1030	 1.9650
 7.1130	 1.8620
 7.1230	 1.9220
 7.1330	 1.9310
 7.1420	 1.8170
 7.1520	 1.7040
 7.1620	 1.7090
 7.1720	 1.6540
 7.1820	 1.8020
 7.1920	 1.8340
 7.2020	 1.8100
 7.2120	 1.7180
 7.2220	 1.8380
 7.2320	 1.8240
 7.2420	 1.7970
 7.2520	 1.7440
 7.2620	 1.8130
 7.2730	 1.7060
 7.2830	 1.6900
 7.2930	 1.6790
 7.3030	 1.7040
 7.3140	 1.7070
 7.3240	 1.7890
 7.3340	 1.6520
 7.3450	 1.6780
 7.3550	 1.7290
 7.3660	 1.8080
 7.3760	 1.7750
 7.3870	 1.8070
 7.3970	 1.8010
 7.4080	 1.8390
 7.4180	 1.7730
 7.4290	 1.7990
 7.4400	 1.7440
 7.4500	 1.7100
 7.4610	 1.5940
 7.4720	 1.6670
 7.4830	 1.6930
 7.4930	 1.7430
 7.5040	 1.6780
 7.5150	 1.6990
 7.5260	 1.6740
 7.5370	 1.7230
 7.5480	 1.6760
 7.5590	 1.7000
 7.5700	 1.6470
 7.5810	 1.6520
 7.5920	 1.6180
 7.6030	 1.6790
 7.6140	 1.6280
 7.6260	 1.6720
 7.6370	 1.5720
 7.6480	 1.5640
 7.6590	 1.6090
 7.6710	 1.6740
 7.6820	 1.6210
 7.6940	 1.6740
 7.7050	 1.6220
 7.7160	 1.6860
 7.7280	 1.6250
 7.7390	 1.6070
 7.7510	 1.5300
 7.7630	 1.5840
 7.7740	 1.5490
 7.7860	 1.5820
 7.7980	 1.5640
 7.8090	 1.5940
 7.8210	 1.5260
 7.8330	 1.5190
 7.8450	 1.4440
 7.8570	 1.4880
 7.8690	 1.4740
 7.8810	 1.5330
 7.8930	 1.4780
 7.9050	 1.5450
 7.9170	 1.5090
 7.9290	 1.5800
 7.9410	 1.5020
 7.9530	 1.5070
 7.9650	 1.4650
 7.9780	 1.5290
 7.9900	 1.5040
 8.0020	 1.5260
 8.0150	 1.4730
 8.0270	 1.5930
 8.0390	 1.5670
 8.0520	 1.5830
 8.0640	 1.5590
 8.0770	 1.6900
 8.0900	 1.5680
 8.1020	 1.5940
 8.1150	 1.5480
 8.1280	 1.5680
 8.1400	 1.4760
 8.1530	 1.5720
 8.1660	 1.5930
 8.1790	 1.6610
 8.1920	 1.5630
 8.2050	 1.6810
 8.2180	 1.6520
 8.2310	 1.6670
 8.2440	 1.5990
 8.2570	 1.7100
 8.2700	 1.6590
 8.2830	 1.7310
 8.2970	 1.6410
 8.3100	 1.7260
 8.3230	 1.7220
 8.3370	 1.8610
 8.3500	 1.7800
 8.3640	 1.8090
 8.3770	 1.7010
 8.3910	 1.7590
 8.4040	 1.7760
 8.4180	 1.8770
 8.4320	 1.8360
 8.4450	 1.8860
 8.4590	 1.8210
 8.4730	 1.9400
 8.4870	 1.9010
 8.5010	 1.9930
 8.5150	 1.9230
 8.5290	 2.0310
 8.5430	 2.0030
 8.5570	 2.0630
 8.5710	 2.0180
 8.5850	 2.1580
 8.5990	 2.1140
 8.6140	 2.2010
 8.6280	 2.1990
 8.6420	 2.3210
 8.6570	 2.2930
 8.6710	 2.3740
 8.6860	 2.2750
 8.7000	 2.3340
 8.7150	 2.3070
 8.7300	 2.3980
 8.7440	 2.2880
 8.7590	 2.3580
 8.7740	 2.3750
 8.7890	 2.4850
 8.8040	 2.4570
 8.8190	 2.6240
 8.8340	 2.6520
 8.8490	 2.7880
 8.8640	 2.7870
 8.8790	 2.9670
 8.8940	 3.0120
 8.9100	 3.2280
 8.9250	 3.2840
 8.9400	 3.4930
 8.9560	 3.5090
 8.9710	 3.7150
 8.9870	 3.7950
 9.0020	 4.0590
 9.0180	 4.1870
 9.0340	 4.4850
 9.0500	 4.5830
 9.0650	 4.7610
 9.0810	 4.8060
 9.0970	 5.0160
 9.1130	 5.0970
 9.1290	 5.2870
 9.1450	 5.2620
 9.1620	 5.4310
 9.1780	 5.4980
 9.1940	 5.6130
 9.2100	 5.4930
 9.2270	 5.6360
 9.2430	 5.5990
 9.2600	 5.6930
 9.2760	 5.6650
 9.2930	 5.7660
 9.3100	 5.6160
 9.3260	 5.6710
 9.3430	 5.5720
 9.3600	 5.6410
 9.3770	 5.5030
 9.3940	 5.5200
 9.4110	 5.3990
 9.4280	 5.4340
 9.4450	 5.2810
 9.4620	 5.2720
 9.4800	 5.1750
 9.4970	 5.3280
 9.5150	 5.2770
 9.5320	 5.4090
 9.5500	 5.4150
 9.5670	 5.5320
 9.5850	 5.4560
 9.6030	 5.5910
 9.6200	 5.5570
 9.6380	 5.6220
 9.6560	 5.5670
 9.6740	 5.7170
 9.6920	 5.6140
 9.7110	 5.7390
 9.7290	 5.6150
 9.7470	 5.5940
 9.7650	 5.4690
 9.7840	 5.4170
 9.8020	 5.2080
 9.8210	 5.2350
 9.8390	 5.1720
 9.8580	 5.2150
 9.8770	 5.0140
 9.8960	 5.0240
 9.9150	 4.8020
 9.9340	 4.7890
 9.9530	 4.6830
 9.9720	 4.6850
 9.9910	 4.5130
10.0100	 4.5380
10.0300	 4.3450
10.0490	 4.3110
10.0690	 4.1930
10.0880	 4.2850
10.1080	 4.2920
10.1280	 4.4020
10.1480	 4.2840
10.1670	 4.3540
10.1870	 4.2460
10.2070	 4.3100
10.2280	 4.2430
10.2480	 4.3770
10.2680	 4.3430
10.2890	 4.4400
10.3090	 4.4020
10.3300	 4.5020
10.3500	 4.4630
10.3710	 4.6360
10.3920	 4.5980
10.4120	 4.6260
10.4330	 4.5310
10.4540	 4.6700
10.4760	 4.6160
10.4970	 4.7230
10.5180	 4.6250
10.5390	 4.6660
10.5610	 4.5380
10.5820	 4.6040
10.6040	 4.5290
10.6260	 4.6070
10.6480	 4.5050
10.6700	 4.5640
10.6920	 4.4310
10.7140	 4.4310
10.7360	 4.2830
10.7580	 4.3650
10.7800	 4.2520
10.8030	 4.2290
10.8250	 4.0470
10.8480	 4.1120
10.8710	 3.8990
10.8940	 3.9020
10.9170	 3.7750
10.9400	 3.8360
10.9630	 3.6740
10.9860	 3.7040
11.0090	 3.4990
11.0330	 3.4920
11.0560	 3.3740
11.0800	 3.4510
11.1040	 3.2650
11.1270	 3.3270
11.1510	 3.2600
11.1750	 3.3370
11.2000	 3.1920
11.2240	 3.2640
11.2480	 3.1210
11.2730	 3.1590
11.2970	 3.1180
11.3220	 3.2320
11.3470	 3.0000
11.3720	 3.0060
11.3970	 2.8610
11.4220	 2.9390
11.4470	 2.7880
11.4720	 2.8270
11.4980	 2.6650
11.5230	 2.7610
11.5490	 2.5820
11.5750	 2.5910
11.6000	 2.4650
11.6260	 2.5400
11.6530	 2.3280
11.6790	 2.3790
11.7050	 2.2320
11.7320	 2.3100
11.7580	 2.1370
11.7850	 2.2190
11.8120	 2.0550
11.8390	 2.1570
11.8660	 2.0710
11.8930	 2.0640
11.9200	 1.8490
11.9480	 1.9840
11.9760	 1.8850
12.0030	 1.9770
12.0310	 1.8830
12.0590	 1.9880
12.0870	 1.7950
12.1150	 1.9090
12.1440	 1.8210
12.1720	 1.9320
12.2010	 1.7840
12.2300	 1.8850
12.2590	 1.7420
12.2880	 1.9190
12.3170	 1.8530
12.3460	 2.0240
12.3760	 1.9110
12.4050	 2.0430
12.4350	 1.8110
12.4650	 1.9860
12.4950	 1.8700
12.5250	 2.0460
12.5550	 1.8740
12.5860	 2.0250
12.6170	 1.8900
12.6470	 2.0790
12.6780	 2.0170
12.7090	 2.1450
12.7410	 1.9150
12.7720	 2.0740
12.8030	 1.9720
12.8350	 2.0980
12.8670	 1.9100
12.8990	 2.0220
12.9310	 1.8910
12.9640	 2.0060
12.9960	 1.8340
13.0290	 1.9860
13.0610	 1.8500
13.0940	 1.9910
13.1280	 1.8730
13.1610	 2.0650
13.1940	 1.8990
13.2280	 2.1430
13.2620	 1.9520
13.2960	 2.0480
13.3300	 1.9320
13.3640	 2.1150
13.3990	 1.9010
13.4340	 2.0530
13.4690	 1.8710
13.5040	 2.0770
13.5390	 1.9000
13.5740	 2.0530
13.6100	 1.9240
13.6460	 2.1260
13.6820	 1.9710
13.7180	 2.1960
13.7540	 1.9040
13.7910	 2.0190
13.8280	 1.9390
13.8650	 2.2540
13.9020	 2.1520
13.9390	 2.2740
13.9770	 2.0000
14.0150	 2.1030
14.0530	 1.7750
14.0910	 2.0770
14.1290	 1.9300
14.1680	 2.1580
14.2070	 1.9000
14.2460	 2.1480
14.2850	 1.9650
14.3240	 2.1600
14.3640	 1.9020
14.4040	 2.1930
14.4440	 2.0440
14.4840	 2.4260
14.5250	 2.1850
14.5660	 2.3350
14.6070	 1.9990
14.6480	 2.2820
14.6900	 2.0000
14.7310	 2.3430
14.7730	 1.9680
14.8150	 2.3390
14.8580	 1.9910
14.9010	 2.2520
14.9440	 2.0470
14.9870	 2.5830
15.0300	 2.0280
15.0740	 2.4600
15.1180	 2.2210
15.1620	 2.5890
15.2060	 2.1760
15.2510	 2.5280
15.2960	 2.0460
15.3410	 2.5770
15.3870	 2.3570
