Name: Macadamia integrifolia
Type: vegetation
Class: Tree
Genus: Macadamia
Species: integrifolia
Sample No.: JPL211
Owner: JPL
Wavelength Range: VSWIR
Origin: 34.12588; -118.11178; WGS84
Collection Date: 10/3/2016
Description: Samples were collected at the Huntington Garden in San Marino California as part of a JPL Subcontract studying HyTES imagery. Samples were taken to JPL and processed within 48 hours of collection. The same leaves were processed in the Nicolet and then measured using the ASD.
Measurement: Bidirectional reflectance
First Column: X
Second Column: Y
X Units: Wavelength (micrometer)
Y Units: Reflectance (percentage)
First X Value: 0.35
Last X Value: 2.5
Number of X Values: 2151
Additional Information: vegetation.tree.macadamia.integrifolia.vswir.jpl211.jpl.asd.ancillary.txt

 0.3500	 8.1840
 0.3510	 8.2850
 0.3520	 8.2560
 0.3530	 8.1850
 0.3540	 8.1860
 0.3550	 8.1320
 0.3560	 8.0940
 0.3570	 8.0980
 0.3580	 8.1300
 0.3590	 8.0350
 0.3600	 7.9760
 0.3610	 8.0150
 0.3620	 8.0260
 0.3630	 8.0130
 0.3640	 7.9790
 0.3650	 7.9410
 0.3660	 7.9480
 0.3670	 7.9760
 0.3680	 7.9920
 0.3690	 7.9600
 0.3700	 7.9520
 0.3710	 7.9390
 0.3720	 7.9100
 0.3730	 7.9040
 0.3740	 7.9070
 0.3750	 7.8920
 0.3760	 7.8460
 0.3770	 7.8460
 0.3780	 7.8470
 0.3790	 7.8320
 0.3800	 7.8170
 0.3810	 7.8350
 0.3820	 7.8620
 0.3830	 7.8710
 0.3840	 7.8450
 0.3850	 7.8540
 0.3860	 7.8590
 0.3870	 7.8040
 0.3880	 7.7820
 0.3890	 7.8020
 0.3900	 7.8350
 0.3910	 7.8200
 0.3920	 7.8110
 0.3930	 7.8180
 0.3940	 7.8320
 0.3950	 7.8190
 0.3960	 7.8250
 0.3970	 7.8300
 0.3980	 7.7920
 0.3990	 7.7780
 0.4000	 7.7860
 0.4010	 7.7980
 0.4020	 7.7870
 0.4030	 7.7690
 0.4040	 7.7660
 0.4050	 7.7830
 0.4060	 7.7770
 0.4070	 7.7640
 0.4080	 7.7510
 0.4090	 7.7450
 0.4100	 7.7750
 0.4110	 7.7840
 0.4120	 7.7500
 0.4130	 7.7340
 0.4140	 7.7570
 0.4150	 7.7800
 0.4160	 7.7610
 0.4170	 7.7500
 0.4180	 7.7490
 0.4190	 7.7540
 0.4200	 7.7560
 0.4210	 7.7560
 0.4220	 7.7510
 0.4230	 7.7430
 0.4240	 7.7450
 0.4250	 7.7480
 0.4260	 7.7470
 0.4270	 7.7400
 0.4280	 7.7410
 0.4290	 7.7390
 0.4300	 7.7260
 0.4310	 7.7050
 0.4320	 7.6920
 0.4330	 7.6750
 0.4340	 7.6450
 0.4350	 7.6380
 0.4360	 7.6420
 0.4370	 7.6500
 0.4380	 7.6610
 0.4390	 7.6760
 0.4400	 7.6890
 0.4410	 7.6980
 0.4420	 7.7110
 0.4430	 7.7140
 0.4440	 7.7140
 0.4450	 7.7200
 0.4460	 7.7210
 0.4470	 7.7280
 0.4480	 7.7410
 0.4490	 7.7450
 0.4500	 7.7430
 0.4510	 7.7430
 0.4520	 7.7530
 0.4530	 7.7620
 0.4540	 7.7630
 0.4550	 7.7620
 0.4560	 7.7680
 0.4570	 7.7650
 0.4580	 7.7650
 0.4590	 7.7740
 0.4600	 7.7740
 0.4610	 7.7820
 0.4620	 7.7900
 0.4630	 7.7870
 0.4640	 7.7880
 0.4650	 7.7890
 0.4660	 7.7900
 0.4670	 7.7950
 0.4680	 7.7970
 0.4690	 7.7990
 0.4700	 7.7990
 0.4710	 7.7980
 0.4720	 7.8010
 0.4730	 7.8070
 0.4740	 7.8090
 0.4750	 7.8070
 0.4760	 7.8080
 0.4770	 7.8140
 0.4780	 7.8230
 0.4790	 7.8240
 0.4800	 7.8210
 0.4810	 7.8190
 0.4820	 7.8100
 0.4830	 7.8020
 0.4840	 7.8000
 0.4850	 7.8020
 0.4860	 7.7980
 0.4870	 7.7960
 0.4880	 7.8010
 0.4890	 7.8150
 0.4900	 7.8240
 0.4910	 7.8310
 0.4920	 7.8460
 0.4930	 7.8660
 0.4940	 7.8820
 0.4950	 7.8920
 0.4960	 7.9120
 0.4970	 7.9420
 0.4980	 7.9730
 0.4990	 7.9950
 0.5000	 8.0320
 0.5010	 8.0720
 0.5020	 8.1110
 0.5030	 8.1580
 0.5040	 8.2130
 0.5050	 8.2740
 0.5060	 8.3400
 0.5070	 8.4100
 0.5080	 8.4950
 0.5090	 8.5950
 0.5100	 8.7080
 0.5110	 8.8280
 0.5120	 8.9630
 0.5130	 9.1170
 0.5140	 9.2830
 0.5150	 9.4670
 0.5160	 9.6650
 0.5170	 9.8740
 0.5180	10.0940
 0.5190	10.3250
 0.5200	10.5650
 0.5210	10.8070
 0.5220	11.0550
 0.5230	11.3040
 0.5240	11.5460
 0.5250	11.7750
 0.5260	11.9990
 0.5270	12.2140
 0.5280	12.4130
 0.5290	12.5980
 0.5300	12.7680
 0.5310	12.9240
 0.5320	13.0650
 0.5330	13.1890
 0.5340	13.2990
 0.5350	13.3970
 0.5360	13.4800
 0.5370	13.5480
 0.5380	13.6030
 0.5390	13.6420
 0.5400	13.6630
 0.5410	13.6690
 0.5420	13.6680
 0.5430	13.6770
 0.5440	13.7040
 0.5450	13.7510
 0.5460	13.8130
 0.5470	13.8820
 0.5480	13.9460
 0.5490	13.9950
 0.5500	14.0270
 0.5510	14.0510
 0.5520	14.0660
 0.5530	14.0670
 0.5540	14.0530
 0.5550	14.0200
 0.5560	13.9670
 0.5570	13.8970
 0.5580	13.8110
 0.5590	13.7110
 0.5600	13.5980
 0.5610	13.4780
 0.5620	13.3490
 0.5630	13.2170
 0.5640	13.0840
 0.5650	12.9420
 0.5660	12.7930
 0.5670	12.6400
 0.5680	12.4850
 0.5690	12.3280
 0.5700	12.1700
 0.5710	12.0120
 0.5720	11.8600
 0.5730	11.7150
 0.5740	11.5770
 0.5750	11.4460
 0.5760	11.3160
 0.5770	11.1930
 0.5780	11.0800
 0.5790	10.9740
 0.5800	10.8800
 0.5810	10.7970
 0.5820	10.7200
 0.5830	10.6450
 0.5840	10.5790
 0.5850	10.5220
 0.5860	10.4680
 0.5870	10.4130
 0.5880	10.3630
 0.5890	10.3220
 0.5900	10.2820
 0.5910	10.2430
 0.5920	10.2050
 0.5930	10.1690
 0.5940	10.1410
 0.5950	10.1170
 0.5960	10.0940
 0.5970	10.0700
 0.5980	10.0470
 0.5990	10.0230
 0.6000	 9.9980
 0.6010	 9.9770
 0.6020	 9.9520
 0.6030	 9.9210
 0.6040	 9.8840
 0.6050	 9.8420
 0.6060	 9.7950
 0.6070	 9.7440
 0.6080	 9.6920
 0.6090	 9.6200
 0.6100	 9.5230
 0.6110	 9.4120
 0.6120	 9.3590
 0.6130	 9.3380
 0.6140	 9.3230
 0.6150	 9.2900
 0.6160	 9.2550
 0.6170	 9.2190
 0.6180	 9.1800
 0.6190	 9.1400
 0.6200	 9.1030
 0.6210	 9.0720
 0.6220	 9.0480
 0.6230	 9.0290
 0.6240	 9.0150
 0.6250	 9.0040
 0.6260	 8.9960
 0.6270	 8.9890
 0.6280	 8.9830
 0.6290	 8.9790
 0.6300	 8.9700
 0.6310	 8.9640
 0.6320	 8.9610
 0.6330	 8.9550
 0.6340	 8.9410
 0.6350	 8.9200
 0.6360	 8.8940
 0.6370	 8.8620
 0.6380	 8.8230
 0.6390	 8.7790
 0.6400	 8.7360
 0.6410	 8.6910
 0.6420	 8.6450
 0.6430	 8.5990
 0.6440	 8.5540
 0.6450	 8.5090
 0.6460	 8.4650
 0.6470	 8.4250
 0.6480	 8.3910
 0.6490	 8.3620
 0.6500	 8.3380
 0.6510	 8.3220
 0.6520	 8.3080
 0.6530	 8.2980
 0.6540	 8.2900
 0.6550	 8.2810
 0.6560	 8.2730
 0.6570	 8.2630
 0.6580	 8.2520
 0.6590	 8.2450
 0.6600	 8.2390
 0.6610	 8.2320
 0.6620	 8.2230
 0.6630	 8.2170
 0.6640	 8.2160
 0.6650	 8.2180
 0.6660	 8.2220
 0.6670	 8.2300
 0.6680	 8.2420
 0.6690	 8.2530
 0.6700	 8.2710
 0.6710	 8.2920
 0.6720	 8.3150
 0.6730	 8.3430
 0.6740	 8.3740
 0.6750	 8.4100
 0.6760	 8.4490
 0.6770	 8.4910
 0.6780	 8.5360
 0.6790	 8.5850
 0.6800	 8.6400
 0.6810	 8.6970
 0.6820	 8.7550
 0.6830	 8.8160
 0.6840	 8.8810
 0.6850	 8.9500
 0.6860	 9.0220
 0.6870	 9.1020
 0.6880	 9.1980
 0.6890	 9.3220
 0.6900	 9.4860
 0.6910	 9.6990
 0.6920	 9.9720
 0.6930	10.3200
 0.6940	10.7570
 0.6950	11.2840
 0.6960	11.8980
 0.6970	12.5980
 0.6980	13.3770
 0.6990	14.2290
 0.7000	15.1420
 0.7010	16.1060
 0.7020	17.1140
 0.7030	18.1470
 0.7040	19.1970
 0.7050	20.2570
 0.7060	21.3250
 0.7070	22.3970
 0.7080	23.4690
 0.7090	24.5410
 0.7100	25.6150
 0.7110	26.6870
 0.7120	27.7550
 0.7130	28.8210
 0.7140	29.8850
 0.7150	30.9430
 0.7160	31.9910
 0.7170	33.0300
 0.7180	34.0580
 0.7190	35.0740
 0.7200	36.0760
 0.7210	37.0600
 0.7220	38.0250
 0.7230	38.9660
 0.7240	39.8830
 0.7250	40.7690
 0.7260	41.6270
 0.7270	42.4570
 0.7280	43.2530
 0.7290	44.0150
 0.7300	44.7430
 0.7310	45.4390
 0.7320	46.1000
 0.7330	46.7260
 0.7340	47.3190
 0.7350	47.8770
 0.7360	48.4020
 0.7370	48.8940
 0.7380	49.3520
 0.7390	49.7810
 0.7400	50.1810
 0.7410	50.5500
 0.7420	50.8890
 0.7430	51.2030
 0.7440	51.4880
 0.7450	51.7440
 0.7460	51.9750
 0.7470	52.1850
 0.7480	52.3730
 0.7490	52.5410
 0.7500	52.6910
 0.7510	52.8240
 0.7520	52.9430
 0.7530	53.0470
 0.7540	53.1390
 0.7550	53.2200
 0.7560	53.2910
 0.7570	53.3560
 0.7580	53.4120
 0.7590	53.4600
 0.7600	53.5020
 0.7610	53.5350
 0.7620	53.5660
 0.7630	53.5930
 0.7640	53.6120
 0.7650	53.6290
 0.7660	53.6390
 0.7670	53.6460
 0.7680	53.6510
 0.7690	53.6540
 0.7700	53.6550
 0.7710	53.6550
 0.7720	53.6540
 0.7730	53.6500
 0.7740	53.6480
 0.7750	53.6480
 0.7760	53.6460
 0.7770	53.6440
 0.7780	53.6430
 0.7790	53.6420
 0.7800	53.6400
 0.7810	53.6370
 0.7820	53.6340
 0.7830	53.6330
 0.7840	53.6320
 0.7850	53.6320
 0.7860	53.6300
 0.7870	53.6290
 0.7880	53.6280
 0.7890	53.6260
 0.7900	53.6220
 0.7910	53.6160
 0.7920	53.6150
 0.7930	53.6150
 0.7940	53.6120
 0.7950	53.6060
 0.7960	53.6000
 0.7970	53.5950
 0.7980	53.5900
 0.7990	53.5830
 0.8000	53.5740
 0.8010	53.5660
 0.8020	53.5560
 0.8030	53.5500
 0.8040	53.5450
 0.8050	53.5380
 0.8060	53.5290
 0.8070	53.5220
 0.8080	53.5140
 0.8090	53.4980
 0.8100	53.4890
 0.8110	53.4790
 0.8120	53.4660
 0.8130	53.4580
 0.8140	53.4490
 0.8150	53.4390
 0.8160	53.4300
 0.8170	53.4170
 0.8180	53.4050
 0.8190	53.3950
 0.8200	53.3850
 0.8210	53.3750
 0.8220	53.3650
 0.8230	53.3560
 0.8240	53.3430
 0.8250	53.3330
 0.8260	53.3220
 0.8270	53.3110
 0.8280	53.3000
 0.8290	53.2910
 0.8300	53.2810
 0.8310	53.2680
 0.8320	53.2610
 0.8330	53.2520
 0.8340	53.2420
 0.8350	53.2350
 0.8360	53.2270
 0.8370	53.2190
 0.8380	53.2120
 0.8390	53.2050
 0.8400	53.1990
 0.8410	53.1960
 0.8420	53.1960
 0.8430	53.1910
 0.8440	53.1890
 0.8450	53.1860
 0.8460	53.1790
 0.8470	53.1800
 0.8480	53.1810
 0.8490	53.1790
 0.8500	53.1720
 0.8510	53.1710
 0.8520	53.1700
 0.8530	53.1700
 0.8540	53.1710
 0.8550	53.1720
 0.8560	53.1710
 0.8570	53.1700
 0.8580	53.1730
 0.8590	53.1750
 0.8600	53.1790
 0.8610	53.1840
 0.8620	53.1870
 0.8630	53.1850
 0.8640	53.1850
 0.8650	53.1900
 0.8660	53.1940
 0.8670	53.2010
 0.8680	53.2050
 0.8690	53.2030
 0.8700	53.2050
 0.8710	53.2100
 0.8720	53.2160
 0.8730	53.2210
 0.8740	53.2220
 0.8750	53.2250
 0.8760	53.2310
 0.8770	53.2370
 0.8780	53.2450
 0.8790	53.2500
 0.8800	53.2500
 0.8810	53.2560
 0.8820	53.2620
 0.8830	53.2660
 0.8840	53.2690
 0.8850	53.2700
 0.8860	53.2750
 0.8870	53.2800
 0.8880	53.2790
 0.8890	53.2870
 0.8900	53.2960
 0.8910	53.3020
 0.8920	53.3030
 0.8930	53.3060
 0.8940	53.3050
 0.8950	53.3050
 0.8960	53.3150
 0.8970	53.3200
 0.8980	53.3220
 0.8990	53.3230
 0.9000	53.3250
 0.9010	53.3240
 0.9020	53.3280
 0.9030	53.3380
 0.9040	53.3370
 0.9050	53.3380
 0.9060	53.3410
 0.9070	53.3440
 0.9080	53.3480
 0.9090	53.3470
 0.9100	53.3450
 0.9110	53.3440
 0.9120	53.3440
 0.9130	53.3430
 0.9140	53.3420
 0.9150	53.3430
 0.9160	53.3400
 0.9170	53.3400
 0.9180	53.3390
 0.9190	53.3320
 0.9200	53.3320
 0.9210	53.3280
 0.9220	53.3210
 0.9230	53.3180
 0.9240	53.3100
 0.9250	53.3040
 0.9260	53.2980
 0.9270	53.2870
 0.9280	53.2700
 0.9290	53.2560
 0.9300	53.2480
 0.9310	53.2430
 0.9320	53.2250
 0.9330	53.2040
 0.9340	53.1870
 0.9350	53.1670
 0.9360	53.1490
 0.9370	53.1400
 0.9380	53.1310
 0.9390	53.0960
 0.9400	53.0700
 0.9410	53.0540
 0.9420	53.0370
 0.9430	53.0030
 0.9440	52.9790
 0.9450	52.9540
 0.9460	52.9200
 0.9470	52.8920
 0.9480	52.8540
 0.9490	52.8100
 0.9500	52.7650
 0.9510	52.7170
 0.9520	52.6780
 0.9530	52.6390
 0.9540	52.5910
 0.9550	52.5390
 0.9560	52.4960
 0.9570	52.4530
 0.9580	52.4040
 0.9590	52.3680
 0.9600	52.3270
 0.9610	52.2910
 0.9620	52.2700
 0.9630	52.2400
 0.9640	52.2070
 0.9650	52.1820
 0.9660	52.1690
 0.9670	52.1370
 0.9680	52.1100
 0.9690	52.0940
 0.9700	52.0840
 0.9710	52.0780
 0.9720	52.0700
 0.9730	52.0510
 0.9740	52.0230
 0.9750	52.0130
 0.9760	52.0120
 0.9770	52.0100
 0.9780	52.0010
 0.9790	51.9870
 0.9800	51.9940
 0.9810	52.0040
 0.9820	51.9880
 0.9830	51.9820
 0.9840	51.9890
 0.9850	52.0000
 0.9860	52.0000
 0.9870	52.0080
 0.9880	52.0020
 0.9890	51.9950
 0.9900	52.0060
 0.9910	52.0120
 0.9920	52.0160
 0.9930	52.0210
 0.9940	52.0290
 0.9950	52.0510
 0.9960	52.0720
 0.9970	52.0840
 0.9980	52.0860
 0.9990	52.0940
 1.0000	52.1030
 1.0010	51.6610
 1.0020	51.6740
 1.0030	51.6890
 1.0040	51.7060
 1.0050	51.7230
 1.0060	51.7400
 1.0070	51.7590
 1.0080	51.7770
 1.0090	51.7910
 1.0100	51.8070
 1.0110	51.8230
 1.0120	51.8380
 1.0130	51.8490
 1.0140	51.8640
 1.0150	51.8790
 1.0160	51.8980
 1.0170	51.9170
 1.0180	51.9320
 1.0190	51.9470
 1.0200	51.9580
 1.0210	51.9700
 1.0220	51.9890
 1.0230	52.0050
 1.0240	52.0240
 1.0250	52.0410
 1.0260	52.0600
 1.0270	52.0770
 1.0280	52.0940
 1.0290	52.1100
 1.0300	52.1250
 1.0310	52.1380
 1.0320	52.1490
 1.0330	52.1600
 1.0340	52.1700
 1.0350	52.1780
 1.0360	52.1900
 1.0370	52.2030
 1.0380	52.2170
 1.0390	52.2350
 1.0400	52.2470
 1.0410	52.2560
 1.0420	52.2660
 1.0430	52.2710
 1.0440	52.2800
 1.0450	52.2910
 1.0460	52.3010
 1.0470	52.3090
 1.0480	52.3190
 1.0490	52.3280
 1.0500	52.3370
 1.0510	52.3480
 1.0520	52.3570
 1.0530	52.3640
 1.0540	52.3700
 1.0550	52.3770
 1.0560	52.3850
 1.0570	52.3910
 1.0580	52.3950
 1.0590	52.4000
 1.0600	52.4030
 1.0610	52.4080
 1.0620	52.4140
 1.0630	52.4200
 1.0640	52.4270
 1.0650	52.4330
 1.0660	52.4420
 1.0670	52.4470
 1.0680	52.4490
 1.0690	52.4490
 1.0700	52.4530
 1.0710	52.4560
 1.0720	52.4590
 1.0730	52.4670
 1.0740	52.4690
 1.0750	52.4680
 1.0760	52.4700
 1.0770	52.4740
 1.0780	52.4750
 1.0790	52.4750
 1.0800	52.4770
 1.0810	52.4780
 1.0820	52.4780
 1.0830	52.4790
 1.0840	52.4800
 1.0850	52.4810
 1.0860	52.4800
 1.0870	52.4810
 1.0880	52.4850
 1.0890	52.4870
 1.0900	52.4900
 1.0910	52.4910
 1.0920	52.4910
 1.0930	52.4900
 1.0940	52.4870
 1.0950	52.4840
 1.0960	52.4820
 1.0970	52.4800
 1.0980	52.4790
 1.0990	52.4760
 1.1000	52.4730
 1.1010	52.4680
 1.1020	52.4600
 1.1030	52.4510
 1.1040	52.4460
 1.1050	52.4410
 1.1060	52.4380
 1.1070	52.4380
 1.1080	52.4320
 1.1090	52.4250
 1.1100	52.4180
 1.1110	52.4070
 1.1120	52.3990
 1.1130	52.3910
 1.1140	52.3820
 1.1150	52.3740
 1.1160	52.3630
 1.1170	52.3510
 1.1180	52.3360
 1.1190	52.3180
 1.1200	52.2980
 1.1210	52.2770
 1.1220	52.2540
 1.1230	52.2310
 1.1240	52.2060
 1.1250	52.1760
 1.1260	52.1440
 1.1270	52.1070
 1.1280	52.0680
 1.1290	52.0220
 1.1300	51.9710
 1.1310	51.9150
 1.1320	51.8540
 1.1330	51.7890
 1.1340	51.7210
 1.1350	51.6470
 1.1360	51.5680
 1.1370	51.4850
 1.1380	51.3950
 1.1390	51.3020
 1.1400	51.2050
 1.1410	51.1060
 1.1420	51.0070
 1.1430	50.9050
 1.1440	50.8040
 1.1450	50.7020
 1.1460	50.6010
 1.1470	50.4980
 1.1480	50.3990
 1.1490	50.2990
 1.1500	50.2060
 1.1510	50.1160
 1.1520	50.0320
 1.1530	49.9520
 1.1540	49.8770
 1.1550	49.8050
 1.1560	49.7400
 1.1570	49.6790
 1.1580	49.6250
 1.1590	49.5770
 1.1600	49.5330
 1.1610	49.4930
 1.1620	49.4550
 1.1630	49.4200
 1.1640	49.3880
 1.1650	49.3580
 1.1660	49.3310
 1.1670	49.3080
 1.1680	49.2880
 1.1690	49.2680
 1.1700	49.2520
 1.1710	49.2340
 1.1720	49.2150
 1.1730	49.1980
 1.1740	49.1830
 1.1750	49.1670
 1.1760	49.1510
 1.1770	49.1340
 1.1780	49.1150
 1.1790	49.0970
 1.1800	49.0810
 1.1810	49.0660
 1.1820	49.0480
 1.1830	49.0280
 1.1840	49.0100
 1.1850	48.9910
 1.1860	48.9740
 1.1870	48.9580
 1.1880	48.9420
 1.1890	48.9250
 1.1900	48.9100
 1.1910	48.8980
 1.1920	48.8850
 1.1930	48.8720
 1.1940	48.8620
 1.1950	48.8520
 1.1960	48.8440
 1.1970	48.8390
 1.1980	48.8350
 1.1990	48.8320
 1.2000	48.8280
 1.2010	48.8260
 1.2020	48.8280
 1.2030	48.8330
 1.2040	48.8400
 1.2050	48.8480
 1.2060	48.8560
 1.2070	48.8630
 1.2080	48.8740
 1.2090	48.8860
 1.2100	48.9000
 1.2110	48.9150
 1.2120	48.9310
 1.2130	48.9490
 1.2140	48.9670
 1.2150	48.9860
 1.2160	49.0080
 1.2170	49.0330
 1.2180	49.0570
 1.2190	49.0790
 1.2200	49.1030
 1.2210	49.1270
 1.2220	49.1520
 1.2230	49.1790
 1.2240	49.2060
 1.2250	49.2330
 1.2260	49.2610
 1.2270	49.2860
 1.2280	49.3110
 1.2290	49.3360
 1.2300	49.3600
 1.2310	49.3840
 1.2320	49.4070
 1.2330	49.4280
 1.2340	49.4490
 1.2350	49.4680
 1.2360	49.4880
 1.2370	49.5090
 1.2380	49.5280
 1.2390	49.5470
 1.2400	49.5670
 1.2410	49.5840
 1.2420	49.6000
 1.2430	49.6170
 1.2440	49.6320
 1.2450	49.6470
 1.2460	49.6630
 1.2470	49.6780
 1.2480	49.6910
 1.2490	49.7070
 1.2500	49.7210
 1.2510	49.7320
 1.2520	49.7440
 1.2530	49.7550
 1.2540	49.7620
 1.2550	49.7720
 1.2560	49.7810
 1.2570	49.7890
 1.2580	49.7970
 1.2590	49.8040
 1.2600	49.8090
 1.2610	49.8140
 1.2620	49.8180
 1.2630	49.8220
 1.2640	49.8240
 1.2650	49.8240
 1.2660	49.8240
 1.2670	49.8240
 1.2680	49.8240
 1.2690	49.8240
 1.2700	49.8240
 1.2710	49.8210
 1.2720	49.8150
 1.2730	49.8090
 1.2740	49.8020
 1.2750	49.7930
 1.2760	49.7870
 1.2770	49.7790
 1.2780	49.7690
 1.2790	49.7610
 1.2800	49.7500
 1.2810	49.7360
 1.2820	49.7220
 1.2830	49.7060
 1.2840	49.6900
 1.2850	49.6730
 1.2860	49.6550
 1.2870	49.6340
 1.2880	49.6120
 1.2890	49.5870
 1.2900	49.5620
 1.2910	49.5370
 1.2920	49.5110
 1.2930	49.4870
 1.2940	49.4580
 1.2950	49.4250
 1.2960	49.3930
 1.2970	49.3590
 1.2980	49.3230
 1.2990	49.2870
 1.3000	49.2490
 1.3010	49.2080
 1.3020	49.1670
 1.3030	49.1250
 1.3040	49.0800
 1.3050	49.0340
 1.3060	48.9860
 1.3070	48.9330
 1.3080	48.8780
 1.3090	48.8210
 1.3100	48.7620
 1.3110	48.7010
 1.3120	48.6380
 1.3130	48.5740
 1.3140	48.5070
 1.3150	48.4360
 1.3160	48.3620
 1.3170	48.2870
 1.3180	48.2060
 1.3190	48.1230
 1.3200	48.0370
 1.3210	47.9500
 1.3220	47.8620
 1.3230	47.7730
 1.3240	47.6810
 1.3250	47.5850
 1.3260	47.4890
 1.3270	47.3890
 1.3280	47.2860
 1.3290	47.1830
 1.3300	47.0770
 1.3310	46.9650
 1.3320	46.8540
 1.3330	46.7420
 1.3340	46.6260
 1.3350	46.5120
 1.3360	46.3970
 1.3370	46.2790
 1.3380	46.1620
 1.3390	46.0440
 1.3400	45.9260
 1.3410	45.8110
 1.3420	45.6980
 1.3430	45.5840
 1.3440	45.4710
 1.3450	45.3590
 1.3460	45.2450
 1.3470	45.1350
 1.3480	45.0280
 1.3490	44.9220
 1.3500	44.8170
 1.3510	44.7130
 1.3520	44.6080
 1.3530	44.5040
 1.3540	44.4000
 1.3550	44.2960
 1.3560	44.1910
 1.3570	44.0840
 1.3580	43.9750
 1.3590	43.8660
 1.3600	43.7520
 1.3610	43.6360
 1.3620	43.5140
 1.3630	43.3880
 1.3640	43.2570
 1.3650	43.1200
 1.3660	42.9790
 1.3670	42.8290
 1.3680	42.6700
 1.3690	42.5000
 1.3700	42.3170
 1.3710	42.1220
 1.3720	41.9150
 1.3730	41.6910
 1.3740	41.4550
 1.3750	41.2000
 1.3760	40.9230
 1.3770	40.6240
 1.3780	40.3000
 1.3790	39.9530
 1.3800	39.5830
 1.3810	39.1860
 1.3820	38.7670
 1.3830	38.3270
 1.3840	37.8630
 1.3850	37.3760
 1.3860	36.8710
 1.3870	36.3370
 1.3880	35.7970
 1.3890	35.2400
 1.3900	34.6690
 1.3910	34.0950
 1.3920	33.5120
 1.3930	32.9190
 1.3940	32.3260
 1.3950	31.7270
 1.3960	31.1330
 1.3970	30.5470
 1.3980	29.9670
 1.3990	29.4040
 1.4000	28.8530
 1.4010	28.3150
 1.4020	27.7980
 1.4030	27.2940
 1.4040	26.8110
 1.4050	26.3490
 1.4060	25.9040
 1.4070	25.4850
 1.4080	25.0870
 1.4090	24.7070
 1.4100	24.3520
 1.4110	24.0150
 1.4120	23.6960
 1.4130	23.3980
 1.4140	23.1170
 1.4150	22.8580
 1.4160	22.6150
 1.4170	22.3870
 1.4180	22.1760
 1.4190	21.9760
 1.4200	21.7890
 1.4210	21.6160
 1.4220	21.4550
 1.4230	21.3060
 1.4240	21.1690
 1.4250	21.0410
 1.4260	20.9220
 1.4270	20.8120
 1.4280	20.7120
 1.4290	20.6190
 1.4300	20.5350
 1.4310	20.4570
 1.4320	20.3870
 1.4330	20.3220
 1.4340	20.2630
 1.4350	20.2110
 1.4360	20.1630
 1.4370	20.1220
 1.4380	20.0860
 1.4390	20.0530
 1.4400	20.0270
 1.4410	20.0040
 1.4420	19.9840
 1.4430	19.9690
 1.4440	19.9570
 1.4450	19.9470
 1.4460	19.9410
 1.4470	19.9380
 1.4480	19.9380
 1.4490	19.9390
 1.4500	19.9430
 1.4510	19.9480
 1.4520	19.9550
 1.4530	19.9650
 1.4540	19.9790
 1.4550	19.9950
 1.4560	20.0130
 1.4570	20.0350
 1.4580	20.0590
 1.4590	20.0870
 1.4600	20.1190
 1.4610	20.1550
 1.4620	20.1970
 1.4630	20.2430
 1.4640	20.2930
 1.4650	20.3490
 1.4660	20.4090
 1.4670	20.4750
 1.4680	20.5460
 1.4690	20.6220
 1.4700	20.7020
 1.4710	20.7860
 1.4720	20.8740
 1.4730	20.9670
 1.4740	21.0640
 1.4750	21.1640
 1.4760	21.2690
 1.4770	21.3750
 1.4780	21.4840
 1.4790	21.5980
 1.4800	21.7120
 1.4810	21.8270
 1.4820	21.9460
 1.4830	22.0660
 1.4840	22.1880
 1.4850	22.3120
 1.4860	22.4360
 1.4870	22.5630
 1.4880	22.6900
 1.4890	22.8180
 1.4900	22.9480
 1.4910	23.0780
 1.4920	23.2090
 1.4930	23.3410
 1.4940	23.4730
 1.4950	23.6060
 1.4960	23.7400
 1.4970	23.8730
 1.4980	24.0080
 1.4990	24.1430
 1.5000	24.2790
 1.5010	24.4170
 1.5020	24.5530
 1.5030	24.6890
 1.5040	24.8260
 1.5050	24.9610
 1.5060	25.0980
 1.5070	25.2360
 1.5080	25.3730
 1.5090	25.5080
 1.5100	25.6440
 1.5110	25.7790
 1.5120	25.9150
 1.5130	26.0480
 1.5140	26.1820
 1.5150	26.3140
 1.5160	26.4440
 1.5170	26.5760
 1.5180	26.7070
 1.5190	26.8380
 1.5200	26.9680
 1.5210	27.0950
 1.5220	27.2210
 1.5230	27.3470
 1.5240	27.4720
 1.5250	27.5960
 1.5260	27.7210
 1.5270	27.8450
 1.5280	27.9660
 1.5290	28.0850
 1.5300	28.2030
 1.5310	28.3200
 1.5320	28.4370
 1.5330	28.5540
 1.5340	28.6700
 1.5350	28.7850
 1.5360	28.8990
 1.5370	29.0100
 1.5380	29.1200
 1.5390	29.2310
 1.5400	29.3400
 1.5410	29.4480
 1.5420	29.5570
 1.5430	29.6640
 1.5440	29.7710
 1.5450	29.8770
 1.5460	29.9810
 1.5470	30.0850
 1.5480	30.1860
 1.5490	30.2880
 1.5500	30.3900
 1.5510	30.4910
 1.5520	30.5910
 1.5530	30.6880
 1.5540	30.7850
 1.5550	30.8800
 1.5560	30.9740
 1.5570	31.0670
 1.5580	31.1590
 1.5590	31.2510
 1.5600	31.3430
 1.5610	31.4320
 1.5620	31.5210
 1.5630	31.6070
 1.5640	31.6920
 1.5650	31.7780
 1.5660	31.8630
 1.5670	31.9490
 1.5680	32.0340
 1.5690	32.1180
 1.5700	32.2010
 1.5710	32.2830
 1.5720	32.3630
 1.5730	32.4440
 1.5740	32.5240
 1.5750	32.6020
 1.5760	32.6800
 1.5770	32.7570
 1.5780	32.8340
 1.5790	32.9100
 1.5800	32.9850
 1.5810	33.0600
 1.5820	33.1340
 1.5830	33.2080
 1.5840	33.2830
 1.5850	33.3570
 1.5860	33.4310
 1.5870	33.5060
 1.5880	33.5790
 1.5890	33.6530
 1.5900	33.7280
 1.5910	33.8010
 1.5920	33.8740
 1.5930	33.9440
 1.5940	34.0130
 1.5950	34.0840
 1.5960	34.1540
 1.5970	34.2240
 1.5980	34.2930
 1.5990	34.3620
 1.6000	34.4310
 1.6010	34.4990
 1.6020	34.5680
 1.6030	34.6360
 1.6040	34.7030
 1.6050	34.7700
 1.6060	34.8350
 1.6070	34.9000
 1.6080	34.9650
 1.6090	35.0290
 1.6100	35.0920
 1.6110	35.1560
 1.6120	35.2170
 1.6130	35.2770
 1.6140	35.3360
 1.6150	35.3920
 1.6160	35.4480
 1.6170	35.5050
 1.6180	35.5600
 1.6190	35.6160
 1.6200	35.6700
 1.6210	35.7220
 1.6220	35.7710
 1.6230	35.8210
 1.6240	35.8700
 1.6250	35.9180
 1.6260	35.9660
 1.6270	36.0130
 1.6280	36.0570
 1.6290	36.1020
 1.6300	36.1470
 1.6310	36.1910
 1.6320	36.2350
 1.6330	36.2770
 1.6340	36.3170
 1.6350	36.3560
 1.6360	36.3930
 1.6370	36.4300
 1.6380	36.4650
 1.6390	36.4980
 1.6400	36.5300
 1.6410	36.5590
 1.6420	36.5870
 1.6430	36.6120
 1.6440	36.6360
 1.6450	36.6590
 1.6460	36.6790
 1.6470	36.6990
 1.6480	36.7160
 1.6490	36.7310
 1.6500	36.7450
 1.6510	36.7550
 1.6520	36.7630
 1.6530	36.7710
 1.6540	36.7750
 1.6550	36.7790
 1.6560	36.7820
 1.6570	36.7800
 1.6580	36.7800
 1.6590	36.7780
 1.6600	36.7740
 1.6610	36.7730
 1.6620	36.7690
 1.6630	36.7640
 1.6640	36.7610
 1.6650	36.7580
 1.6660	36.7540
 1.6670	36.7530
 1.6680	36.7500
 1.6690	36.7460
 1.6700	36.7430
 1.6710	36.7400
 1.6720	36.7360
 1.6730	36.7330
 1.6740	36.7280
 1.6750	36.7220
 1.6760	36.7160
 1.6770	36.7090
 1.6780	36.7010
 1.6790	36.6920
 1.6800	36.6780
 1.6810	36.6620
 1.6820	36.6440
 1.6830	36.6230
 1.6840	36.6010
 1.6850	36.5770
 1.6860	36.5500
 1.6870	36.5220
 1.6880	36.4920
 1.6890	36.4620
 1.6900	36.4320
 1.6910	36.4020
 1.6920	36.3700
 1.6930	36.3360
 1.6940	36.3030
 1.6950	36.2690
 1.6960	36.2340
 1.6970	36.2000
 1.6980	36.1650
 1.6990	36.1260
 1.7000	36.0890
 1.7010	36.0520
 1.7020	36.0120
 1.7030	35.9710
 1.7040	35.9290
 1.7050	35.8850
 1.7060	35.8400
 1.7070	35.7960
 1.7080	35.7500
 1.7090	35.7020
 1.7100	35.6540
 1.7110	35.6050
 1.7120	35.5550
 1.7130	35.5050
 1.7140	35.4540
 1.7150	35.4020
 1.7160	35.3490
 1.7170	35.2950
 1.7180	35.2410
 1.7190	35.1890
 1.7200	35.1370
 1.7210	35.0880
 1.7220	35.0410
 1.7230	34.9940
 1.7240	34.9460
 1.7250	34.8980
 1.7260	34.8530
 1.7270	34.8100
 1.7280	34.7690
 1.7290	34.7310
 1.7300	34.6930
 1.7310	34.6570
 1.7320	34.6240
 1.7330	34.5910
 1.7340	34.5610
 1.7350	34.5290
 1.7360	34.4990
 1.7370	34.4670
 1.7380	34.4340
 1.7390	34.3970
 1.7400	34.3590
 1.7410	34.3180
 1.7420	34.2720
 1.7430	34.2260
 1.7440	34.1770
 1.7450	34.1250
 1.7460	34.0710
 1.7470	34.0160
 1.7480	33.9600
 1.7490	33.9040
 1.7500	33.8470
 1.7510	33.7900
 1.7520	33.7340
 1.7530	33.6750
 1.7540	33.6150
 1.7550	33.5570
 1.7560	33.4970
 1.7570	33.4400
 1.7580	33.3860
 1.7590	33.3300
 1.7600	33.2770
 1.7610	33.2240
 1.7620	33.1750
 1.7630	33.1260
 1.7640	33.0810
 1.7650	33.0390
 1.7660	32.9980
 1.7670	32.9620
 1.7680	32.9250
 1.7690	32.8860
 1.7700	32.8510
 1.7710	32.8180
 1.7720	32.7850
 1.7730	32.7550
 1.7740	32.7260
 1.7750	32.6980
 1.7760	32.6720
 1.7770	32.6500
 1.7780	32.6260
 1.7790	32.6000
 1.7800	32.5790
 1.7810	32.5580
 1.7820	32.5400
 1.7830	32.5270
 1.7840	32.5120
 1.7850	32.4970
 1.7860	32.4870
 1.7870	32.4770
 1.7880	32.4740
 1.7890	32.4740
 1.7900	32.4750
 1.7910	32.4760
 1.7920	32.4760
 1.7930	32.4800
 1.7940	32.4830
 1.7950	32.4900
 1.7960	32.5010
 1.7970	32.5110
 1.7980	32.5210
 1.7990	32.5330
 1.8000	32.5450
 1.8010	32.5570
 1.8020	32.5720
 1.8030	32.5860
 1.8040	32.5990
 1.8050	32.6120
 1.8060	32.6270
 1.8070	32.6410
 1.8080	32.6550
 1.8090	32.6670
 1.8100	32.6780
 1.8110	32.6910
 1.8120	32.7040
 1.8130	32.7150
 1.8140	32.7290
 1.8150	32.7430
 1.8160	32.7540
 1.8170	32.7610
 1.8180	32.7670
 1.8190	32.7720
 1.8200	32.7770
 1.8210	32.7860
 1.8220	32.7910
 1.8230	32.7910
 1.8240	32.7910
 1.8250	32.7850
 1.8260	32.7830
 1.8270	32.7840
 1.8280	32.7810
 1.8290	32.7800
 1.8300	32.7730
 1.8310	32.5110
 1.8320	32.4910
 1.8330	32.4760
 1.8340	32.4560
 1.8350	32.4290
 1.8360	32.4030
 1.8370	32.3690
 1.8380	32.3270
 1.8390	32.2810
 1.8400	32.2320
 1.8410	32.1750
 1.8420	32.1120
 1.8430	32.0450
 1.8440	31.9680
 1.8450	31.8880
 1.8460	31.8010
 1.8470	31.7030
 1.8480	31.5980
 1.8490	31.4820
 1.8500	31.3530
 1.8510	31.2130
 1.8520	31.0610
 1.8530	30.8970
 1.8540	30.7210
 1.8550	30.5310
 1.8560	30.3310
 1.8570	30.1170
 1.8580	29.8850
 1.8590	29.6390
 1.8600	29.3790
 1.8610	29.0990
 1.8620	28.8000
 1.8630	28.4900
 1.8640	28.1630
 1.8650	27.8140
 1.8660	27.4460
 1.8670	27.0530
 1.8680	26.6380
 1.8690	26.2080
 1.8700	25.7580
 1.8710	25.2890
 1.8720	24.8080
 1.8730	24.3120
 1.8740	23.7980
 1.8750	23.2780
 1.8760	22.7440
 1.8770	22.2040
 1.8780	21.6680
 1.8790	21.1200
 1.8800	20.5800
 1.8810	20.0400
 1.8820	19.5050
 1.8830	18.9700
 1.8840	18.4470
 1.8850	17.9280
 1.8860	17.4190
 1.8870	16.9280
 1.8880	16.4490
 1.8890	15.9920
 1.8900	15.5580
 1.8910	15.1440
 1.8920	14.7470
 1.8930	14.3760
 1.8940	14.0290
 1.8950	13.7070
 1.8960	13.4100
 1.8970	13.1370
 1.8980	12.8870
 1.8990	12.6620
 1.9000	12.4530
 1.9010	12.2670
 1.9020	12.0950
 1.9030	11.9420
 1.9040	11.8040
 1.9050	11.6840
 1.9060	11.5790
 1.9070	11.4870
 1.9080	11.4030
 1.9090	11.3250
 1.9100	11.2590
 1.9110	11.2010
 1.9120	11.1550
 1.9130	11.1120
 1.9140	11.0780
 1.9150	11.0460
 1.9160	11.0150
 1.9170	10.9860
 1.9180	10.9590
 1.9190	10.9380
 1.9200	10.9220
 1.9210	10.9060
 1.9220	10.8950
 1.9230	10.8900
 1.9240	10.8830
 1.9250	10.8770
 1.9260	10.8740
 1.9270	10.8700
 1.9280	10.8680
 1.9290	10.8720
 1.9300	10.8770
 1.9310	10.8830
 1.9320	10.8900
 1.9330	10.8960
 1.9340	10.8980
 1.9350	10.9080
 1.9360	10.9220
 1.9370	10.9360
 1.9380	10.9530
 1.9390	10.9710
 1.9400	10.9860
 1.9410	11.0040
 1.9420	11.0230
 1.9430	11.0430
 1.9440	11.0640
 1.9450	11.0860
 1.9460	11.1090
 1.9470	11.1340
 1.9480	11.1600
 1.9490	11.1880
 1.9500	11.2180
 1.9510	11.2490
 1.9520	11.2800
 1.9530	11.3120
 1.9540	11.3410
 1.9550	11.3720
 1.9560	11.4020
 1.9570	11.4350
 1.9580	11.4690
 1.9590	11.5050
 1.9600	11.5440
 1.9610	11.5820
 1.9620	11.6230
 1.9630	11.6640
 1.9640	11.7060
 1.9650	11.7500
 1.9660	11.7920
 1.9670	11.8340
 1.9680	11.8770
 1.9690	11.9180
 1.9700	11.9640
 1.9710	12.0150
 1.9720	12.0640
 1.9730	12.1130
 1.9740	12.1640
 1.9750	12.2170
 1.9760	12.2700
 1.9770	12.3230
 1.9780	12.3790
 1.9790	12.4330
 1.9800	12.4840
 1.9810	12.5380
 1.9820	12.5930
 1.9830	12.6510
 1.9840	12.7140
 1.9850	12.7740
 1.9860	12.8350
 1.9870	12.8970
 1.9880	12.9600
 1.9890	13.0200
 1.9900	13.0820
 1.9910	13.1480
 1.9920	13.2100
 1.9930	13.2680
 1.9940	13.3300
 1.9950	13.3920
 1.9960	13.4560
 1.9970	13.5250
 1.9980	13.5920
 1.9990	13.6610
 2.0000	13.7290
 2.0010	13.7980
 2.0020	13.8680
 2.0030	13.9350
 2.0040	14.0020
 2.0050	14.0720
 2.0060	14.1420
 2.0070	14.2110
 2.0080	14.2820
 2.0090	14.3500
 2.0100	14.4140
 2.0110	14.4810
 2.0120	14.5490
 2.0130	14.6170
 2.0140	14.6820
 2.0150	14.7500
 2.0160	14.8140
 2.0170	14.8780
 2.0180	14.9430
 2.0190	15.0070
 2.0200	15.0730
 2.0210	15.1400
 2.0220	15.2050
 2.0230	15.2700
 2.0240	15.3340
 2.0250	15.3950
 2.0260	15.4570
 2.0270	15.5170
 2.0280	15.5790
 2.0290	15.6400
 2.0300	15.7010
 2.0310	15.7600
 2.0320	15.8190
 2.0330	15.8770
 2.0340	15.9330
 2.0350	15.9880
 2.0360	16.0430
 2.0370	16.0960
 2.0380	16.1450
 2.0390	16.1960
 2.0400	16.2470
 2.0410	16.2980
 2.0420	16.3500
 2.0430	16.4030
 2.0440	16.4520
 2.0450	16.4990
 2.0460	16.5480
 2.0470	16.5950
 2.0480	16.6450
 2.0490	16.6970
 2.0500	16.7470
 2.0510	16.7970
 2.0520	16.8450
 2.0530	16.8920
 2.0540	16.9390
 2.0550	16.9860
 2.0560	17.0310
 2.0570	17.0780
 2.0580	17.1290
 2.0590	17.1780
 2.0600	17.2290
 2.0610	17.2780
 2.0620	17.3270
 2.0630	17.3750
 2.0640	17.4230
 2.0650	17.4710
 2.0660	17.5170
 2.0670	17.5650
 2.0680	17.6150
 2.0690	17.6650
 2.0700	17.7160
 2.0710	17.7680
 2.0720	17.8210
 2.0730	17.8720
 2.0740	17.9220
 2.0750	17.9710
 2.0760	18.0190
 2.0770	18.0620
 2.0780	18.1100
 2.0790	18.1560
 2.0800	18.2060
 2.0810	18.2590
 2.0820	18.3100
 2.0830	18.3630
 2.0840	18.4140
 2.0850	18.4620
 2.0860	18.5120
 2.0870	18.5630
 2.0880	18.6150
 2.0890	18.6650
 2.0900	18.7150
 2.0910	18.7640
 2.0920	18.8110
 2.0930	18.8580
 2.0940	18.9040
 2.0950	18.9500
 2.0960	18.9920
 2.0970	19.0390
 2.0980	19.0900
 2.0990	19.1390
 2.1000	19.1920
 2.1010	19.2410
 2.1020	19.2840
 2.1030	19.3300
 2.1040	19.3770
 2.1050	19.4250
 2.1060	19.4730
 2.1070	19.5240
 2.1080	19.5730
 2.1090	19.6210
 2.1100	19.6690
 2.1110	19.7170
 2.1120	19.7660
 2.1130	19.8140
 2.1140	19.8610
 2.1150	19.9080
 2.1160	19.9550
 2.1170	20.0010
 2.1180	20.0490
 2.1190	20.1010
 2.1200	20.1500
 2.1210	20.2000
 2.1220	20.2470
 2.1230	20.2910
 2.1240	20.3320
 2.1250	20.3730
 2.1260	20.4110
 2.1270	20.4520
 2.1280	20.4940
 2.1290	20.5370
 2.1300	20.5840
 2.1310	20.6270
 2.1320	20.6690
 2.1330	20.7110
 2.1340	20.7490
 2.1350	20.7890
 2.1360	20.8290
 2.1370	20.8700
 2.1380	20.9100
 2.1390	20.9520
 2.1400	20.9980
 2.1410	21.0410
 2.1420	21.0800
 2.1430	21.1180
 2.1440	21.1550
 2.1450	21.1870
 2.1460	21.2240
 2.1470	21.2620
 2.1480	21.2990
 2.1490	21.3350
 2.1500	21.3730
 2.1510	21.4110
 2.1520	21.4490
 2.1530	21.4880
 2.1540	21.5260
 2.1550	21.5620
 2.1560	21.5970
 2.1570	21.6330
 2.1580	21.6670
 2.1590	21.6970
 2.1600	21.7350
 2.1610	21.7680
 2.1620	21.7980
 2.1630	21.8300
 2.1640	21.8620
 2.1650	21.8940
 2.1660	21.9270
 2.1670	21.9570
 2.1680	21.9850
 2.1690	22.0150
 2.1700	22.0450
 2.1710	22.0740
 2.1720	22.1040
 2.1730	22.1340
 2.1740	22.1630
 2.1750	22.1910
 2.1760	22.2200
 2.1770	22.2490
 2.1780	22.2770
 2.1790	22.3060
 2.1800	22.3380
 2.1810	22.3690
 2.1820	22.3960
 2.1830	22.4250
 2.1840	22.4550
 2.1850	22.4860
 2.1860	22.5160
 2.1870	22.5470
 2.1880	22.5770
 2.1890	22.6020
 2.1900	22.6330
 2.1910	22.6690
 2.1920	22.6990
 2.1930	22.7290
 2.1940	22.7570
 2.1950	22.7760
 2.1960	22.8040
 2.1970	22.8380
 2.1980	22.8680
 2.1990	22.9030
 2.2000	22.9300
 2.2010	22.9500
 2.2020	22.9720
 2.2030	22.9880
 2.2040	23.0090
 2.2050	23.0340
 2.2060	23.0580
 2.2070	23.0830
 2.2080	23.1110
 2.2090	23.1310
 2.2100	23.1490
 2.2110	23.1660
 2.2120	23.1790
 2.2130	23.1910
 2.2140	23.2020
 2.2150	23.2120
 2.2160	23.2210
 2.2170	23.2280
 2.2180	23.2360
 2.2190	23.2400
 2.2200	23.2390
 2.2210	23.2380
 2.2220	23.2370
 2.2230	23.2340
 2.2240	23.2300
 2.2250	23.2230
 2.2260	23.2120
 2.2270	23.2000
 2.2280	23.1870
 2.2290	23.1680
 2.2300	23.1460
 2.2310	23.1170
 2.2320	23.0890
 2.2330	23.0550
 2.2340	23.0210
 2.2350	22.9850
 2.2360	22.9480
 2.2370	22.9070
 2.2380	22.8630
 2.2390	22.8170
 2.2400	22.7690
 2.2410	22.7160
 2.2420	22.6630
 2.2430	22.6120
 2.2440	22.5550
 2.2450	22.4920
 2.2460	22.4310
 2.2470	22.3680
 2.2480	22.3040
 2.2490	22.2430
 2.2500	22.1780
 2.2510	22.1110
 2.2520	22.0420
 2.2530	21.9710
 2.2540	21.9020
 2.2550	21.8340
 2.2560	21.7650
 2.2570	21.6980
 2.2580	21.6290
 2.2590	21.5540
 2.2600	21.4830
 2.2610	21.4120
 2.2620	21.3450
 2.2630	21.2860
 2.2640	21.2220
 2.2650	21.1600
 2.2660	21.1010
 2.2670	21.0410
 2.2680	20.9780
 2.2690	20.9220
 2.2700	20.8700
 2.2710	20.8170
 2.2720	20.7670
 2.2730	20.7170
 2.2740	20.6650
 2.2750	20.6180
 2.2760	20.5730
 2.2770	20.5310
 2.2780	20.4910
 2.2790	20.4540
 2.2800	20.4220
 2.2810	20.3890
 2.2820	20.3600
 2.2830	20.3270
 2.2840	20.2930
 2.2850	20.2570
 2.2860	20.2180
 2.2870	20.1830
 2.2880	20.1520
 2.2890	20.1170
 2.2900	20.0870
 2.2910	20.0500
 2.2920	20.0080
 2.2930	19.9660
 2.2940	19.9220
 2.2950	19.8750
 2.2960	19.8280
 2.2970	19.7790
 2.2980	19.7240
 2.2990	19.6710
 2.3000	19.6200
 2.3010	19.5670
 2.3020	19.5170
 2.3030	19.4720
 2.3040	19.4310
 2.3050	19.3880
 2.3060	19.3510
 2.3070	19.3200
 2.3080	19.2820
 2.3090	19.2480
 2.3100	19.2130
 2.3110	19.1720
 2.3120	19.1390
 2.3130	19.1080
 2.3140	19.0840
 2.3150	19.0680
 2.3160	19.0480
 2.3170	19.0350
 2.3180	19.0160
 2.3190	18.9940
 2.3200	18.9690
 2.3210	18.9410
 2.3220	18.9140
 2.3230	18.8860
 2.3240	18.8550
 2.3250	18.8220
 2.3260	18.7890
 2.3270	18.7540
 2.3280	18.7160
 2.3290	18.6770
 2.3300	18.6380
 2.3310	18.5920
 2.3320	18.5490
 2.3330	18.5070
 2.3340	18.4650
 2.3350	18.4200
 2.3360	18.3800
 2.3370	18.3470
 2.3380	18.3070
 2.3390	18.2660
 2.3400	18.2220
 2.3410	18.1690
 2.3420	18.1260
 2.3430	18.0890
 2.3440	18.0520
 2.3450	18.0210
 2.3460	17.9850
 2.3470	17.9450
 2.3480	17.9090
 2.3490	17.8740
 2.3500	17.8430
 2.3510	17.8220
 2.3520	17.7910
 2.3530	17.7590
 2.3540	17.7200
 2.3550	17.6830
 2.3560	17.6470
 2.3570	17.6190
 2.3580	17.6030
 2.3590	17.5860
 2.3600	17.5650
 2.3610	17.5390
 2.3620	17.5030
 2.3630	17.4620
 2.3640	17.4230
 2.3650	17.3860
 2.3660	17.3520
 2.3670	17.3160
 2.3680	17.2760
 2.3690	17.2400
 2.3700	17.2050
 2.3710	17.1620
 2.3720	17.1250
 2.3730	17.0900
 2.3740	17.0530
 2.3750	17.0200
 2.3760	16.9810
 2.3770	16.9370
 2.3780	16.8930
 2.3790	16.8510
 2.3800	16.8210
 2.3810	16.7930
 2.3820	16.7600
 2.3830	16.7290
 2.3840	16.6890
 2.3850	16.6480
 2.3860	16.6130
 2.3870	16.5700
 2.3880	16.5350
 2.3890	16.4990
 2.3900	16.4500
 2.3910	16.4170
 2.3920	16.3880
 2.3930	16.3500
 2.3940	16.3230
 2.3950	16.2910
 2.3960	16.2530
 2.3970	16.2300
 2.3980	16.1940
 2.3990	16.1500
 2.4000	16.1170
 2.4010	16.0750
 2.4020	16.0380
 2.4030	16.0040
 2.4040	15.9570
 2.4050	15.9150
 2.4060	15.8810
 2.4070	15.8450
 2.4080	15.8130
 2.4090	15.7690
 2.4100	15.7180
 2.4110	15.6740
 2.4120	15.6280
 2.4130	15.5990
 2.4140	15.5700
 2.4150	15.5370
 2.4160	15.5060
 2.4170	15.4560
 2.4180	15.4100
 2.4190	15.3680
 2.4200	15.3250
 2.4210	15.2830
 2.4220	15.2430
 2.4230	15.2000
 2.4240	15.1530
 2.4250	15.1160
 2.4260	15.0790
 2.4270	15.0430
 2.4280	15.0110
 2.4290	14.9890
 2.4300	14.9580
 2.4310	14.9140
 2.4320	14.8760
 2.4330	14.8290
 2.4340	14.7830
 2.4350	14.7530
 2.4360	14.7130
 2.4370	14.6600
 2.4380	14.6230
 2.4390	14.5840
 2.4400	14.5430
 2.4410	14.5120
 2.4420	14.4740
 2.4430	14.4480
 2.4440	14.4160
 2.4450	14.3790
 2.4460	14.3510
 2.4470	14.3020
 2.4480	14.2650
 2.4490	14.2450
 2.4500	14.2080
 2.4510	14.1760
 2.4520	14.1340
 2.4530	14.0780
 2.4540	14.0450
 2.4550	14.0110
 2.4560	13.9730
 2.4570	13.9540
 2.4580	13.9240
 2.4590	13.8750
 2.4600	13.8630
 2.4610	13.8650
 2.4620	13.8510
 2.4630	13.8360
 2.4640	13.8100
 2.4650	13.7840
 2.4660	13.7620
 2.4670	13.7440
 2.4680	13.7310
 2.4690	13.6650
 2.4700	13.6330
 2.4710	13.6200
 2.4720	13.6070
 2.4730	13.6270
 2.4740	13.6250
 2.4750	13.6150
 2.4760	13.6150
 2.4770	13.6010
 2.4780	13.5650
 2.4790	13.5340
 2.4800	13.4940
 2.4810	13.4260
 2.4820	13.4300
 2.4830	13.3840
 2.4840	13.3550
 2.4850	13.3600
 2.4860	13.3520
 2.4870	13.3480
 2.4880	13.3440
 2.4890	13.3020
 2.4900	13.2360
 2.4910	13.2010
 2.4920	13.1740
 2.4930	13.1450
 2.4940	13.1340
 2.4950	13.1220
 2.4960	13.1490
 2.4970	13.1520
 2.4980	13.1800
 2.4990	13.2760
 2.5000	13.2400
