Name: Pyllostachys vivax
Type: vegetation
Class: Tree
Genus: Pyllostachys
Species: vivax
Sample No.: JPL190
Owner: JPL
Wavelength Range: VSWIR
Origin: 34.12505; -118.11546; WGS84
Collection Date: 10/3/2016
Description: Samples were collected at the Huntington Garden in San Marino California as part of a JPL Subcontract studying HyTES imagery. Samples were taken to JPL and processed within 48 hours of collection. The same leaves were processed in the Nicolet and then measured using the ASD.
Measurement: Bidirectional reflectance
First Column: X
Second Column: Y
X Units: Wavelength (micrometer)
Y Units: Reflectance (percentage)
First X Value: 0.35
Last X Value: 2.5
Number of X Values: 2151
Additional Information: vegetation.tree.pyllostachys.vivax.vswir.jpl190.jpl.asd.ancillary.txt

 0.3500	 9.4140
 0.3510	 9.4280
 0.3520	 9.3750
 0.3530	 9.3060
 0.3540	 9.2690
 0.3550	 9.2730
 0.3560	 9.2630
 0.3570	 9.2090
 0.3580	 9.1120
 0.3590	 9.0370
 0.3600	 9.0450
 0.3610	 9.1100
 0.3620	 9.1010
 0.3630	 9.0900
 0.3640	 9.0990
 0.3650	 9.1200
 0.3660	 9.0780
 0.3670	 9.0360
 0.3680	 9.0010
 0.3690	 8.9470
 0.3700	 8.9420
 0.3710	 8.9600
 0.3720	 8.9840
 0.3730	 9.0540
 0.3740	 9.0030
 0.3750	 8.9320
 0.3760	 8.9750
 0.3770	 8.9670
 0.3780	 8.9510
 0.3790	 8.9460
 0.3800	 8.9420
 0.3810	 8.9230
 0.3820	 8.8900
 0.3830	 8.8640
 0.3840	 8.9080
 0.3850	 8.9190
 0.3860	 8.9000
 0.3870	 8.8900
 0.3880	 8.8810
 0.3890	 8.8700
 0.3900	 8.8650
 0.3910	 8.8880
 0.3920	 8.8640
 0.3930	 8.8400
 0.3940	 8.8530
 0.3950	 8.8300
 0.3960	 8.8190
 0.3970	 8.8140
 0.3980	 8.7890
 0.3990	 8.7790
 0.4000	 8.7650
 0.4010	 8.7540
 0.4020	 8.7840
 0.4030	 8.7900
 0.4040	 8.7790
 0.4050	 8.7750
 0.4060	 8.7960
 0.4070	 8.7980
 0.4080	 8.7880
 0.4090	 8.7960
 0.4100	 8.8120
 0.4110	 8.8270
 0.4120	 8.8400
 0.4130	 8.8640
 0.4140	 8.8650
 0.4150	 8.8570
 0.4160	 8.8670
 0.4170	 8.8780
 0.4180	 8.8810
 0.4190	 8.8810
 0.4200	 8.8920
 0.4210	 8.9000
 0.4220	 8.9100
 0.4230	 8.9230
 0.4240	 8.9310
 0.4250	 8.9340
 0.4260	 8.9350
 0.4270	 8.9360
 0.4280	 8.9320
 0.4290	 8.9230
 0.4300	 8.9140
 0.4310	 8.9090
 0.4320	 8.8890
 0.4330	 8.8650
 0.4340	 8.8500
 0.4350	 8.8500
 0.4360	 8.8460
 0.4370	 8.8430
 0.4380	 8.8670
 0.4390	 8.9010
 0.4400	 8.9320
 0.4410	 8.9560
 0.4420	 8.9890
 0.4430	 9.0060
 0.4440	 9.0080
 0.4450	 9.0100
 0.4460	 9.0140
 0.4470	 9.0230
 0.4480	 9.0360
 0.4490	 9.0480
 0.4500	 9.0530
 0.4510	 9.0540
 0.4520	 9.0570
 0.4530	 9.0700
 0.4540	 9.0800
 0.4550	 9.0840
 0.4560	 9.0880
 0.4570	 9.0910
 0.4580	 9.0970
 0.4590	 9.1040
 0.4600	 9.1020
 0.4610	 9.1090
 0.4620	 9.1170
 0.4630	 9.1140
 0.4640	 9.1190
 0.4650	 9.1200
 0.4660	 9.1190
 0.4670	 9.1260
 0.4680	 9.1280
 0.4690	 9.1270
 0.4700	 9.1300
 0.4710	 9.1350
 0.4720	 9.1390
 0.4730	 9.1400
 0.4740	 9.1380
 0.4750	 9.1350
 0.4760	 9.1310
 0.4770	 9.1280
 0.4780	 9.1390
 0.4790	 9.1420
 0.4800	 9.1390
 0.4810	 9.1410
 0.4820	 9.1390
 0.4830	 9.1310
 0.4840	 9.1170
 0.4850	 9.1030
 0.4860	 9.0990
 0.4870	 9.0990
 0.4880	 9.0960
 0.4890	 9.1010
 0.4900	 9.1170
 0.4910	 9.1370
 0.4920	 9.1520
 0.4930	 9.1650
 0.4940	 9.1840
 0.4950	 9.2080
 0.4960	 9.2290
 0.4970	 9.2570
 0.4980	 9.2860
 0.4990	 9.3100
 0.5000	 9.3360
 0.5010	 9.3690
 0.5020	 9.4100
 0.5030	 9.4570
 0.5040	 9.4990
 0.5050	 9.5460
 0.5060	 9.6030
 0.5070	 9.6610
 0.5080	 9.7300
 0.5090	 9.8070
 0.5100	 9.8880
 0.5110	 9.9780
 0.5120	10.0820
 0.5130	10.2010
 0.5140	10.3200
 0.5150	10.4560
 0.5160	10.6060
 0.5170	10.7640
 0.5180	10.9340
 0.5190	11.1150
 0.5200	11.3030
 0.5210	11.4930
 0.5220	11.6900
 0.5230	11.8890
 0.5240	12.0860
 0.5250	12.2830
 0.5260	12.4720
 0.5270	12.6500
 0.5280	12.8190
 0.5290	12.9830
 0.5300	13.1340
 0.5310	13.2710
 0.5320	13.3960
 0.5330	13.5120
 0.5340	13.6140
 0.5350	13.7010
 0.5360	13.7810
 0.5370	13.8510
 0.5380	13.9060
 0.5390	13.9390
 0.5400	13.9530
 0.5410	13.9470
 0.5420	13.9300
 0.5430	13.9270
 0.5440	13.9520
 0.5450	14.0050
 0.5460	14.0780
 0.5470	14.1580
 0.5480	14.2300
 0.5490	14.2840
 0.5500	14.3160
 0.5510	14.3380
 0.5520	14.3520
 0.5530	14.3550
 0.5540	14.3520
 0.5550	14.3340
 0.5560	14.2990
 0.5570	14.2480
 0.5580	14.1830
 0.5590	14.1020
 0.5600	14.0080
 0.5610	13.9030
 0.5620	13.7920
 0.5630	13.6750
 0.5640	13.5510
 0.5650	13.4250
 0.5660	13.2950
 0.5670	13.1620
 0.5680	13.0250
 0.5690	12.8890
 0.5700	12.7550
 0.5710	12.6210
 0.5720	12.4930
 0.5730	12.3710
 0.5740	12.2570
 0.5750	12.1510
 0.5760	12.0480
 0.5770	11.9520
 0.5780	11.8670
 0.5790	11.7850
 0.5800	11.7050
 0.5810	11.6300
 0.5820	11.5660
 0.5830	11.5040
 0.5840	11.4470
 0.5850	11.3980
 0.5860	11.3550
 0.5870	11.3080
 0.5880	11.2620
 0.5890	11.2250
 0.5900	11.1890
 0.5910	11.1540
 0.5920	11.1210
 0.5930	11.0940
 0.5940	11.0760
 0.5950	11.0650
 0.5960	11.0560
 0.5970	11.0430
 0.5980	11.0240
 0.5990	11.0030
 0.6000	10.9830
 0.6010	10.9640
 0.6020	10.9430
 0.6030	10.9170
 0.6040	10.8810
 0.6050	10.8410
 0.6060	10.7970
 0.6070	10.7490
 0.6080	10.6970
 0.6090	10.6180
 0.6100	10.5060
 0.6110	10.3760
 0.6120	10.3250
 0.6130	10.3220
 0.6140	10.3250
 0.6150	10.2990
 0.6160	10.2660
 0.6170	10.2330
 0.6180	10.1980
 0.6190	10.1600
 0.6200	10.1230
 0.6210	10.0930
 0.6220	10.0700
 0.6230	10.0530
 0.6240	10.0390
 0.6250	10.0270
 0.6260	10.0170
 0.6270	10.0070
 0.6280	 9.9980
 0.6290	 9.9880
 0.6300	 9.9730
 0.6310	 9.9620
 0.6320	 9.9600
 0.6330	 9.9610
 0.6340	 9.9520
 0.6350	 9.9330
 0.6360	 9.9100
 0.6370	 9.8810
 0.6380	 9.8490
 0.6390	 9.8150
 0.6400	 9.7780
 0.6410	 9.7390
 0.6420	 9.7000
 0.6430	 9.6610
 0.6440	 9.6190
 0.6450	 9.5820
 0.6460	 9.5470
 0.6470	 9.5130
 0.6480	 9.4820
 0.6490	 9.4550
 0.6500	 9.4320
 0.6510	 9.4150
 0.6520	 9.4030
 0.6530	 9.3930
 0.6540	 9.3850
 0.6550	 9.3750
 0.6560	 9.3610
 0.6570	 9.3430
 0.6580	 9.3260
 0.6590	 9.3100
 0.6600	 9.2950
 0.6610	 9.2800
 0.6620	 9.2630
 0.6630	 9.2470
 0.6640	 9.2340
 0.6650	 9.2270
 0.6660	 9.2210
 0.6670	 9.2170
 0.6680	 9.2170
 0.6690	 9.2220
 0.6700	 9.2270
 0.6710	 9.2360
 0.6720	 9.2500
 0.6730	 9.2620
 0.6740	 9.2790
 0.6750	 9.2980
 0.6760	 9.3180
 0.6770	 9.3390
 0.6780	 9.3620
 0.6790	 9.3880
 0.6800	 9.4170
 0.6810	 9.4500
 0.6820	 9.4830
 0.6830	 9.5160
 0.6840	 9.5560
 0.6850	 9.5990
 0.6860	 9.6450
 0.6870	 9.7000
 0.6880	 9.7670
 0.6890	 9.8510
 0.6900	 9.9580
 0.6910	10.0900
 0.6920	10.2610
 0.6930	10.4730
 0.6940	10.7300
 0.6950	11.0450
 0.6960	11.4170
 0.6970	11.8460
 0.6980	12.3310
 0.6990	12.8730
 0.7000	13.4630
 0.7010	14.0920
 0.7020	14.7550
 0.7030	15.4420
 0.7040	16.1480
 0.7050	16.8670
 0.7060	17.5940
 0.7070	18.3260
 0.7080	19.0640
 0.7090	19.8140
 0.7100	20.5710
 0.7110	21.3320
 0.7120	22.0950
 0.7130	22.8610
 0.7140	23.6390
 0.7150	24.4230
 0.7160	25.2060
 0.7170	25.9950
 0.7180	26.7870
 0.7190	27.5790
 0.7200	28.3690
 0.7210	29.1600
 0.7220	29.9490
 0.7230	30.7330
 0.7240	31.5080
 0.7250	32.2730
 0.7260	33.0260
 0.7270	33.7660
 0.7280	34.4860
 0.7290	35.1910
 0.7300	35.8770
 0.7310	36.5370
 0.7320	37.1800
 0.7330	37.8020
 0.7340	38.4010
 0.7350	38.9710
 0.7360	39.5180
 0.7370	40.0390
 0.7380	40.5340
 0.7390	41.0070
 0.7400	41.4540
 0.7410	41.8740
 0.7420	42.2700
 0.7430	42.6420
 0.7440	42.9870
 0.7450	43.3090
 0.7460	43.6100
 0.7470	43.8860
 0.7480	44.1430
 0.7490	44.3820
 0.7500	44.6000
 0.7510	44.8020
 0.7520	44.9870
 0.7530	45.1540
 0.7540	45.3090
 0.7550	45.4520
 0.7560	45.5810
 0.7570	45.6970
 0.7580	45.8010
 0.7590	45.8950
 0.7600	45.9830
 0.7610	46.0630
 0.7620	46.1340
 0.7630	46.1980
 0.7640	46.2550
 0.7650	46.3100
 0.7660	46.3570
 0.7670	46.3970
 0.7680	46.4360
 0.7690	46.4710
 0.7700	46.5010
 0.7710	46.5270
 0.7720	46.5530
 0.7730	46.5760
 0.7740	46.5970
 0.7750	46.6180
 0.7760	46.6340
 0.7770	46.6480
 0.7780	46.6610
 0.7790	46.6750
 0.7800	46.6870
 0.7810	46.6980
 0.7820	46.7060
 0.7830	46.7140
 0.7840	46.7200
 0.7850	46.7250
 0.7860	46.7290
 0.7870	46.7310
 0.7880	46.7350
 0.7890	46.7370
 0.7900	46.7350
 0.7910	46.7320
 0.7920	46.7310
 0.7930	46.7310
 0.7940	46.7280
 0.7950	46.7220
 0.7960	46.7150
 0.7970	46.7070
 0.7980	46.7000
 0.7990	46.6920
 0.8000	46.6820
 0.8010	46.6720
 0.8020	46.6620
 0.8030	46.6530
 0.8040	46.6430
 0.8050	46.6310
 0.8060	46.6170
 0.8070	46.6000
 0.8080	46.5830
 0.8090	46.5670
 0.8100	46.5500
 0.8110	46.5340
 0.8120	46.5170
 0.8130	46.5020
 0.8140	46.4850
 0.8150	46.4650
 0.8160	46.4440
 0.8170	46.4270
 0.8180	46.4110
 0.8190	46.3940
 0.8200	46.3750
 0.8210	46.3550
 0.8220	46.3360
 0.8230	46.3180
 0.8240	46.2990
 0.8250	46.2810
 0.8260	46.2660
 0.8270	46.2520
 0.8280	46.2350
 0.8290	46.2180
 0.8300	46.2000
 0.8310	46.1820
 0.8320	46.1670
 0.8330	46.1540
 0.8340	46.1420
 0.8350	46.1300
 0.8360	46.1150
 0.8370	46.1020
 0.8380	46.0910
 0.8390	46.0770
 0.8400	46.0690
 0.8410	46.0630
 0.8420	46.0560
 0.8430	46.0460
 0.8440	46.0390
 0.8450	46.0320
 0.8460	46.0230
 0.8470	46.0170
 0.8480	46.0140
 0.8490	46.0100
 0.8500	46.0030
 0.8510	46.0010
 0.8520	45.9990
 0.8530	45.9960
 0.8540	45.9930
 0.8550	45.9910
 0.8560	45.9910
 0.8570	45.9920
 0.8580	45.9930
 0.8590	45.9960
 0.8600	46.0000
 0.8610	46.0030
 0.8620	46.0070
 0.8630	46.0080
 0.8640	46.0110
 0.8650	46.0160
 0.8660	46.0210
 0.8670	46.0280
 0.8680	46.0350
 0.8690	46.0420
 0.8700	46.0470
 0.8710	46.0510
 0.8720	46.0560
 0.8730	46.0630
 0.8740	46.0720
 0.8750	46.0810
 0.8760	46.0910
 0.8770	46.0990
 0.8780	46.1050
 0.8790	46.1120
 0.8800	46.1220
 0.8810	46.1300
 0.8820	46.1400
 0.8830	46.1500
 0.8840	46.1610
 0.8850	46.1740
 0.8860	46.1860
 0.8870	46.1960
 0.8880	46.2030
 0.8890	46.2090
 0.8900	46.2170
 0.8910	46.2270
 0.8920	46.2380
 0.8930	46.2480
 0.8940	46.2580
 0.8950	46.2690
 0.8960	46.2790
 0.8970	46.2870
 0.8980	46.2930
 0.8990	46.3000
 0.9000	46.3150
 0.9010	46.3240
 0.9020	46.3310
 0.9030	46.3390
 0.9040	46.3470
 0.9050	46.3560
 0.9060	46.3640
 0.9070	46.3710
 0.9080	46.3810
 0.9090	46.3860
 0.9100	46.3890
 0.9110	46.3930
 0.9120	46.3960
 0.9130	46.3990
 0.9140	46.4070
 0.9150	46.4180
 0.9160	46.4180
 0.9170	46.4230
 0.9180	46.4310
 0.9190	46.4370
 0.9200	46.4370
 0.9210	46.4410
 0.9220	46.4470
 0.9230	46.4470
 0.9240	46.4400
 0.9250	46.4350
 0.9260	46.4350
 0.9270	46.4330
 0.9280	46.4280
 0.9290	46.4220
 0.9300	46.4170
 0.9310	46.4170
 0.9320	46.4070
 0.9330	46.3950
 0.9340	46.3880
 0.9350	46.3830
 0.9360	46.3730
 0.9370	46.3600
 0.9380	46.3480
 0.9390	46.3370
 0.9400	46.3270
 0.9410	46.3160
 0.9420	46.3000
 0.9430	46.2830
 0.9440	46.2720
 0.9450	46.2580
 0.9460	46.2380
 0.9470	46.2270
 0.9480	46.2020
 0.9490	46.1760
 0.9500	46.1580
 0.9510	46.1420
 0.9520	46.1170
 0.9530	46.0870
 0.9540	46.0570
 0.9550	46.0400
 0.9560	46.0140
 0.9570	45.9880
 0.9580	45.9730
 0.9590	45.9470
 0.9600	45.9280
 0.9610	45.9110
 0.9620	45.8900
 0.9630	45.8700
 0.9640	45.8520
 0.9650	45.8340
 0.9660	45.8160
 0.9670	45.7990
 0.9680	45.7860
 0.9690	45.7740
 0.9700	45.7610
 0.9710	45.7500
 0.9720	45.7380
 0.9730	45.7290
 0.9740	45.7280
 0.9750	45.7160
 0.9760	45.7080
 0.9770	45.7000
 0.9780	45.6820
 0.9790	45.6700
 0.9800	45.6710
 0.9810	45.6730
 0.9820	45.6600
 0.9830	45.6590
 0.9840	45.6520
 0.9850	45.6400
 0.9860	45.6330
 0.9870	45.6280
 0.9880	45.6190
 0.9890	45.6160
 0.9900	45.6260
 0.9910	45.6060
 0.9920	45.6000
 0.9930	45.6040
 0.9940	45.5970
 0.9950	45.6050
 0.9960	45.6180
 0.9970	45.6190
 0.9980	45.6010
 0.9990	45.5960
 1.0000	45.5940
 1.0010	45.8160
 1.0020	45.8150
 1.0030	45.8100
 1.0040	45.8060
 1.0050	45.8060
 1.0060	45.8050
 1.0070	45.8060
 1.0080	45.8060
 1.0090	45.8050
 1.0100	45.8040
 1.0110	45.8040
 1.0120	45.8040
 1.0130	45.8020
 1.0140	45.8020
 1.0150	45.8040
 1.0160	45.8060
 1.0170	45.8070
 1.0180	45.8060
 1.0190	45.8050
 1.0200	45.8060
 1.0210	45.8030
 1.0220	45.8020
 1.0230	45.8020
 1.0240	45.8000
 1.0250	45.8010
 1.0260	45.8100
 1.0270	45.8120
 1.0280	45.8110
 1.0290	45.8120
 1.0300	45.8140
 1.0310	45.8140
 1.0320	45.8130
 1.0330	45.8170
 1.0340	45.8160
 1.0350	45.8130
 1.0360	45.8110
 1.0370	45.8100
 1.0380	45.8090
 1.0390	45.8070
 1.0400	45.8090
 1.0410	45.8130
 1.0420	45.8140
 1.0430	45.8150
 1.0440	45.8160
 1.0450	45.8160
 1.0460	45.8170
 1.0470	45.8220
 1.0480	45.8220
 1.0490	45.8190
 1.0500	45.8180
 1.0510	45.8140
 1.0520	45.8140
 1.0530	45.8130
 1.0540	45.8150
 1.0550	45.8150
 1.0560	45.8160
 1.0570	45.8170
 1.0580	45.8180
 1.0590	45.8170
 1.0600	45.8140
 1.0610	45.8120
 1.0620	45.8100
 1.0630	45.8080
 1.0640	45.8050
 1.0650	45.8050
 1.0660	45.8060
 1.0670	45.8070
 1.0680	45.8090
 1.0690	45.8130
 1.0700	45.8130
 1.0710	45.8110
 1.0720	45.8100
 1.0730	45.8080
 1.0740	45.8070
 1.0750	45.8080
 1.0760	45.8080
 1.0770	45.8090
 1.0780	45.8080
 1.0790	45.8060
 1.0800	45.8070
 1.0810	45.8080
 1.0820	45.8100
 1.0830	45.8150
 1.0840	45.8170
 1.0850	45.8170
 1.0860	45.8150
 1.0870	45.8150
 1.0880	45.8150
 1.0890	45.8130
 1.0900	45.8120
 1.0910	45.8120
 1.0920	45.8090
 1.0930	45.8100
 1.0940	45.8160
 1.0950	45.8190
 1.0960	45.8220
 1.0970	45.8240
 1.0980	45.8240
 1.0990	45.8240
 1.1000	45.8210
 1.1010	45.8210
 1.1020	45.8220
 1.1030	45.8230
 1.1040	45.8220
 1.1050	45.8230
 1.1060	45.8230
 1.1070	45.8200
 1.1080	45.8180
 1.1090	45.8170
 1.1100	45.8130
 1.1110	45.8080
 1.1120	45.8040
 1.1130	45.8010
 1.1140	45.7970
 1.1150	45.7950
 1.1160	45.7910
 1.1170	45.7850
 1.1180	45.7790
 1.1190	45.7720
 1.1200	45.7650
 1.1210	45.7590
 1.1220	45.7520
 1.1230	45.7430
 1.1240	45.7320
 1.1250	45.7190
 1.1260	45.7050
 1.1270	45.6900
 1.1280	45.6760
 1.1290	45.6570
 1.1300	45.6360
 1.1310	45.6120
 1.1320	45.5860
 1.1330	45.5560
 1.1340	45.5230
 1.1350	45.4890
 1.1360	45.4530
 1.1370	45.4150
 1.1380	45.3770
 1.1390	45.3370
 1.1400	45.2940
 1.1410	45.2500
 1.1420	45.2040
 1.1430	45.1540
 1.1440	45.1060
 1.1450	45.0570
 1.1460	45.0090
 1.1470	44.9610
 1.1480	44.9160
 1.1490	44.8710
 1.1500	44.8290
 1.1510	44.7900
 1.1520	44.7530
 1.1530	44.7210
 1.1540	44.6880
 1.1550	44.6550
 1.1560	44.6270
 1.1570	44.5990
 1.1580	44.5720
 1.1590	44.5500
 1.1600	44.5300
 1.1610	44.5120
 1.1620	44.4970
 1.1630	44.4800
 1.1640	44.4660
 1.1650	44.4550
 1.1660	44.4450
 1.1670	44.4350
 1.1680	44.4280
 1.1690	44.4200
 1.1700	44.4120
 1.1710	44.4040
 1.1720	44.3980
 1.1730	44.3900
 1.1740	44.3830
 1.1750	44.3740
 1.1760	44.3650
 1.1770	44.3570
 1.1780	44.3490
 1.1790	44.3390
 1.1800	44.3290
 1.1810	44.3190
 1.1820	44.3090
 1.1830	44.2980
 1.1840	44.2890
 1.1850	44.2800
 1.1860	44.2720
 1.1870	44.2630
 1.1880	44.2530
 1.1890	44.2410
 1.1900	44.2320
 1.1910	44.2260
 1.1920	44.2200
 1.1930	44.2170
 1.1940	44.2140
 1.1950	44.2100
 1.1960	44.2070
 1.1970	44.2020
 1.1980	44.1960
 1.1990	44.1910
 1.2000	44.1870
 1.2010	44.1870
 1.2020	44.1870
 1.2030	44.1840
 1.2040	44.1840
 1.2050	44.1840
 1.2060	44.1820
 1.2070	44.1830
 1.2080	44.1840
 1.2090	44.1850
 1.2100	44.1900
 1.2110	44.1930
 1.2120	44.1980
 1.2130	44.2020
 1.2140	44.2070
 1.2150	44.2110
 1.2160	44.2140
 1.2170	44.2190
 1.2180	44.2220
 1.2190	44.2250
 1.2200	44.2300
 1.2210	44.2370
 1.2220	44.2440
 1.2230	44.2500
 1.2240	44.2560
 1.2250	44.2610
 1.2260	44.2650
 1.2270	44.2710
 1.2280	44.2770
 1.2290	44.2810
 1.2300	44.2860
 1.2310	44.2910
 1.2320	44.2980
 1.2330	44.3040
 1.2340	44.3090
 1.2350	44.3150
 1.2360	44.3190
 1.2370	44.3200
 1.2380	44.3230
 1.2390	44.3250
 1.2400	44.3270
 1.2410	44.3300
 1.2420	44.3310
 1.2430	44.3330
 1.2440	44.3360
 1.2450	44.3380
 1.2460	44.3400
 1.2470	44.3420
 1.2480	44.3430
 1.2490	44.3460
 1.2500	44.3480
 1.2510	44.3480
 1.2520	44.3480
 1.2530	44.3470
 1.2540	44.3480
 1.2550	44.3490
 1.2560	44.3470
 1.2570	44.3440
 1.2580	44.3410
 1.2590	44.3380
 1.2600	44.3340
 1.2610	44.3300
 1.2620	44.3280
 1.2630	44.3240
 1.2640	44.3200
 1.2650	44.3160
 1.2660	44.3120
 1.2670	44.3070
 1.2680	44.3000
 1.2690	44.2930
 1.2700	44.2860
 1.2710	44.2770
 1.2720	44.2690
 1.2730	44.2620
 1.2740	44.2530
 1.2750	44.2430
 1.2760	44.2320
 1.2770	44.2210
 1.2780	44.2120
 1.2790	44.2040
 1.2800	44.1950
 1.2810	44.1840
 1.2820	44.1730
 1.2830	44.1600
 1.2840	44.1480
 1.2850	44.1360
 1.2860	44.1220
 1.2870	44.1090
 1.2880	44.0960
 1.2890	44.0810
 1.2900	44.0630
 1.2910	44.0450
 1.2920	44.0260
 1.2930	44.0070
 1.2940	43.9890
 1.2950	43.9690
 1.2960	43.9480
 1.2970	43.9250
 1.2980	43.9020
 1.2990	43.8820
 1.3000	43.8610
 1.3010	43.8390
 1.3020	43.8160
 1.3030	43.7910
 1.3040	43.7670
 1.3050	43.7410
 1.3060	43.7150
 1.3070	43.6870
 1.3080	43.6590
 1.3090	43.6310
 1.3100	43.6020
 1.3110	43.5730
 1.3120	43.5430
 1.3130	43.5100
 1.3140	43.4770
 1.3150	43.4440
 1.3160	43.4100
 1.3170	43.3750
 1.3180	43.3400
 1.3190	43.3040
 1.3200	43.2660
 1.3210	43.2280
 1.3220	43.1900
 1.3230	43.1510
 1.3240	43.1120
 1.3250	43.0690
 1.3260	43.0240
 1.3270	42.9780
 1.3280	42.9310
 1.3290	42.8840
 1.3300	42.8360
 1.3310	42.7870
 1.3320	42.7340
 1.3330	42.6820
 1.3340	42.6280
 1.3350	42.5760
 1.3360	42.5250
 1.3370	42.4730
 1.3380	42.4200
 1.3390	42.3680
 1.3400	42.3140
 1.3410	42.2610
 1.3420	42.2080
 1.3430	42.1540
 1.3440	42.1000
 1.3450	42.0450
 1.3460	41.9890
 1.3470	41.9350
 1.3480	41.8810
 1.3490	41.8280
 1.3500	41.7740
 1.3510	41.7210
 1.3520	41.6670
 1.3530	41.6130
 1.3540	41.5590
 1.3550	41.5050
 1.3560	41.4510
 1.3570	41.3950
 1.3580	41.3370
 1.3590	41.2800
 1.3600	41.2220
 1.3610	41.1620
 1.3620	41.1030
 1.3630	41.0390
 1.3640	40.9700
 1.3650	40.8990
 1.3660	40.8260
 1.3670	40.7470
 1.3680	40.6640
 1.3690	40.5760
 1.3700	40.4820
 1.3710	40.3820
 1.3720	40.2730
 1.3730	40.1540
 1.3740	40.0270
 1.3750	39.8870
 1.3760	39.7350
 1.3770	39.5710
 1.3780	39.3910
 1.3790	39.1990
 1.3800	38.9940
 1.3810	38.7720
 1.3820	38.5350
 1.3830	38.2860
 1.3840	38.0190
 1.3850	37.7380
 1.3860	37.4420
 1.3870	37.1300
 1.3880	36.8080
 1.3890	36.4720
 1.3900	36.1240
 1.3910	35.7690
 1.3920	35.4030
 1.3930	35.0270
 1.3940	34.6470
 1.3950	34.2580
 1.3960	33.8670
 1.3970	33.4760
 1.3980	33.0850
 1.3990	32.7030
 1.4000	32.3250
 1.4010	31.9510
 1.4020	31.5870
 1.4030	31.2290
 1.4040	30.8820
 1.4050	30.5500
 1.4060	30.2290
 1.4070	29.9230
 1.4080	29.6320
 1.4090	29.3520
 1.4100	29.0890
 1.4110	28.8390
 1.4120	28.6030
 1.4130	28.3840
 1.4140	28.1780
 1.4150	27.9870
 1.4160	27.8100
 1.4170	27.6430
 1.4180	27.4890
 1.4190	27.3460
 1.4200	27.2130
 1.4210	27.0910
 1.4220	26.9790
 1.4230	26.8770
 1.4240	26.7840
 1.4250	26.6980
 1.4260	26.6210
 1.4270	26.5500
 1.4280	26.4870
 1.4290	26.4300
 1.4300	26.3800
 1.4310	26.3350
 1.4320	26.2980
 1.4330	26.2660
 1.4340	26.2410
 1.4350	26.2190
 1.4360	26.2020
 1.4370	26.1890
 1.4380	26.1790
 1.4390	26.1720
 1.4400	26.1670
 1.4410	26.1650
 1.4420	26.1670
 1.4430	26.1720
 1.4440	26.1800
 1.4450	26.1900
 1.4460	26.2020
 1.4470	26.2140
 1.4480	26.2280
 1.4490	26.2430
 1.4500	26.2590
 1.4510	26.2770
 1.4520	26.2960
 1.4530	26.3160
 1.4540	26.3380
 1.4550	26.3620
 1.4560	26.3870
 1.4570	26.4150
 1.4580	26.4460
 1.4590	26.4800
 1.4600	26.5170
 1.4610	26.5590
 1.4620	26.6030
 1.4630	26.6530
 1.4640	26.7070
 1.4650	26.7650
 1.4660	26.8280
 1.4670	26.8960
 1.4680	26.9670
 1.4690	27.0430
 1.4700	27.1220
 1.4710	27.2050
 1.4720	27.2890
 1.4730	27.3770
 1.4740	27.4690
 1.4750	27.5630
 1.4760	27.6590
 1.4770	27.7580
 1.4780	27.8580
 1.4790	27.9590
 1.4800	28.0600
 1.4810	28.1630
 1.4820	28.2660
 1.4830	28.3700
 1.4840	28.4750
 1.4850	28.5800
 1.4860	28.6850
 1.4870	28.7910
 1.4880	28.8950
 1.4890	29.0000
 1.4900	29.1050
 1.4910	29.2100
 1.4920	29.3160
 1.4930	29.4220
 1.4940	29.5270
 1.4950	29.6310
 1.4960	29.7360
 1.4970	29.8410
 1.4980	29.9450
 1.4990	30.0500
 1.5000	30.1540
 1.5010	30.2590
 1.5020	30.3620
 1.5030	30.4650
 1.5040	30.5670
 1.5050	30.6670
 1.5060	30.7680
 1.5070	30.8680
 1.5080	30.9680
 1.5090	31.0700
 1.5100	31.1690
 1.5110	31.2670
 1.5120	31.3650
 1.5130	31.4600
 1.5140	31.5570
 1.5150	31.6550
 1.5160	31.7520
 1.5170	31.8490
 1.5180	31.9420
 1.5190	32.0330
 1.5200	32.1230
 1.5210	32.2120
 1.5220	32.3020
 1.5230	32.3910
 1.5240	32.4770
 1.5250	32.5630
 1.5260	32.6480
 1.5270	32.7320
 1.5280	32.8150
 1.5290	32.8950
 1.5300	32.9750
 1.5310	33.0540
 1.5320	33.1320
 1.5330	33.2100
 1.5340	33.2870
 1.5350	33.3650
 1.5360	33.4400
 1.5370	33.5130
 1.5380	33.5840
 1.5390	33.6550
 1.5400	33.7260
 1.5410	33.7960
 1.5420	33.8660
 1.5430	33.9360
 1.5440	34.0040
 1.5450	34.0720
 1.5460	34.1370
 1.5470	34.2000
 1.5480	34.2630
 1.5490	34.3250
 1.5500	34.3870
 1.5510	34.4480
 1.5520	34.5100
 1.5530	34.5690
 1.5540	34.6280
 1.5550	34.6870
 1.5560	34.7440
 1.5570	34.8000
 1.5580	34.8550
 1.5590	34.9080
 1.5600	34.9610
 1.5610	35.0120
 1.5620	35.0630
 1.5630	35.1150
 1.5640	35.1630
 1.5650	35.2110
 1.5660	35.2610
 1.5670	35.3080
 1.5680	35.3550
 1.5690	35.4030
 1.5700	35.4500
 1.5710	35.4970
 1.5720	35.5420
 1.5730	35.5870
 1.5740	35.6310
 1.5750	35.6730
 1.5760	35.7160
 1.5770	35.7590
 1.5780	35.8020
 1.5790	35.8440
 1.5800	35.8860
 1.5810	35.9280
 1.5820	35.9700
 1.5830	36.0100
 1.5840	36.0520
 1.5850	36.0950
 1.5860	36.1380
 1.5870	36.1810
 1.5880	36.2220
 1.5890	36.2620
 1.5900	36.3000
 1.5910	36.3400
 1.5920	36.3810
 1.5930	36.4220
 1.5940	36.4640
 1.5950	36.5050
 1.5960	36.5430
 1.5970	36.5840
 1.5980	36.6240
 1.5990	36.6630
 1.6000	36.7030
 1.6010	36.7410
 1.6020	36.7770
 1.6030	36.8140
 1.6040	36.8500
 1.6050	36.8860
 1.6060	36.9210
 1.6070	36.9560
 1.6080	36.9910
 1.6090	37.0270
 1.6100	37.0600
 1.6110	37.0930
 1.6120	37.1240
 1.6130	37.1540
 1.6140	37.1860
 1.6150	37.2160
 1.6160	37.2470
 1.6170	37.2760
 1.6180	37.3030
 1.6190	37.3330
 1.6200	37.3610
 1.6210	37.3890
 1.6220	37.4160
 1.6230	37.4420
 1.6240	37.4660
 1.6250	37.4900
 1.6260	37.5120
 1.6270	37.5330
 1.6280	37.5560
 1.6290	37.5780
 1.6300	37.6020
 1.6310	37.6240
 1.6320	37.6440
 1.6330	37.6640
 1.6340	37.6840
 1.6350	37.7020
 1.6360	37.7190
 1.6370	37.7350
 1.6380	37.7490
 1.6390	37.7640
 1.6400	37.7780
 1.6410	37.7910
 1.6420	37.8050
 1.6430	37.8170
 1.6440	37.8300
 1.6450	37.8410
 1.6460	37.8510
 1.6470	37.8590
 1.6480	37.8680
 1.6490	37.8760
 1.6500	37.8830
 1.6510	37.8880
 1.6520	37.8920
 1.6530	37.8930
 1.6540	37.8910
 1.6550	37.8880
 1.6560	37.8840
 1.6570	37.8800
 1.6580	37.8740
 1.6590	37.8690
 1.6600	37.8650
 1.6610	37.8600
 1.6620	37.8540
 1.6630	37.8470
 1.6640	37.8390
 1.6650	37.8320
 1.6660	37.8250
 1.6670	37.8170
 1.6680	37.8100
 1.6690	37.8020
 1.6700	37.7920
 1.6710	37.7810
 1.6720	37.7680
 1.6730	37.7520
 1.6740	37.7350
 1.6750	37.7170
 1.6760	37.6970
 1.6770	37.6770
 1.6780	37.6550
 1.6790	37.6310
 1.6800	37.6050
 1.6810	37.5780
 1.6820	37.5490
 1.6830	37.5200
 1.6840	37.4900
 1.6850	37.4560
 1.6860	37.4250
 1.6870	37.3940
 1.6880	37.3600
 1.6890	37.3280
 1.6900	37.2960
 1.6910	37.2630
 1.6920	37.2320
 1.6930	37.2010
 1.6940	37.1720
 1.6950	37.1440
 1.6960	37.1160
 1.6970	37.0900
 1.6980	37.0630
 1.6990	37.0360
 1.7000	37.0070
 1.7010	36.9800
 1.7020	36.9500
 1.7030	36.9170
 1.7040	36.8860
 1.7050	36.8560
 1.7060	36.8250
 1.7070	36.7960
 1.7080	36.7650
 1.7090	36.7320
 1.7100	36.7020
 1.7110	36.6710
 1.7120	36.6430
 1.7130	36.6130
 1.7140	36.5820
 1.7150	36.5500
 1.7160	36.5160
 1.7170	36.4850
 1.7180	36.4550
 1.7190	36.4260
 1.7200	36.3990
 1.7210	36.3700
 1.7220	36.3390
 1.7230	36.3080
 1.7240	36.2770
 1.7250	36.2490
 1.7260	36.2220
 1.7270	36.1950
 1.7280	36.1710
 1.7290	36.1480
 1.7300	36.1270
 1.7310	36.1060
 1.7320	36.0840
 1.7330	36.0640
 1.7340	36.0470
 1.7350	36.0290
 1.7360	36.0140
 1.7370	35.9950
 1.7380	35.9760
 1.7390	35.9520
 1.7400	35.9240
 1.7410	35.8960
 1.7420	35.8660
 1.7430	35.8350
 1.7440	35.8040
 1.7450	35.7710
 1.7460	35.7370
 1.7470	35.7010
 1.7480	35.6630
 1.7490	35.6260
 1.7500	35.5880
 1.7510	35.5490
 1.7520	35.5080
 1.7530	35.4690
 1.7540	35.4280
 1.7550	35.3880
 1.7560	35.3510
 1.7570	35.3100
 1.7580	35.2680
 1.7590	35.2300
 1.7600	35.1900
 1.7610	35.1520
 1.7620	35.1170
 1.7630	35.0830
 1.7640	35.0500
 1.7650	35.0190
 1.7660	34.9880
 1.7670	34.9570
 1.7680	34.9280
 1.7690	34.9030
 1.7700	34.8780
 1.7710	34.8550
 1.7720	34.8320
 1.7730	34.8070
 1.7740	34.7850
 1.7750	34.7630
 1.7760	34.7420
 1.7770	34.7220
 1.7780	34.7030
 1.7790	34.6850
 1.7800	34.6680
 1.7810	34.6540
 1.7820	34.6400
 1.7830	34.6250
 1.7840	34.6130
 1.7850	34.6030
 1.7860	34.5940
 1.7870	34.5880
 1.7880	34.5810
 1.7890	34.5770
 1.7900	34.5750
 1.7910	34.5730
 1.7920	34.5700
 1.7930	34.5670
 1.7940	34.5630
 1.7950	34.5610
 1.7960	34.5610
 1.7970	34.5610
 1.7980	34.5630
 1.7990	34.5650
 1.8000	34.5690
 1.8010	34.5730
 1.8020	34.5770
 1.8030	34.5810
 1.8040	34.5840
 1.8050	34.5880
 1.8060	34.5930
 1.8070	34.5990
 1.8080	34.6080
 1.8090	34.6130
 1.8100	34.6180
 1.8110	34.6180
 1.8120	34.6180
 1.8130	34.6210
 1.8140	34.6220
 1.8150	34.6240
 1.8160	34.6280
 1.8170	34.6290
 1.8180	34.6300
 1.8190	34.6290
 1.8200	34.6290
 1.8210	34.6250
 1.8220	34.6230
 1.8230	34.6250
 1.8240	34.6230
 1.8250	34.6170
 1.8260	34.6130
 1.8270	34.6100
 1.8280	34.6020
 1.8290	34.5930
 1.8300	34.5840
 1.8310	33.8170
 1.8320	33.8050
 1.8330	33.7890
 1.8340	33.7700
 1.8350	33.7510
 1.8360	33.7280
 1.8370	33.7030
 1.8380	33.6760
 1.8390	33.6440
 1.8400	33.6100
 1.8410	33.5720
 1.8420	33.5290
 1.8430	33.4840
 1.8440	33.4320
 1.8450	33.3760
 1.8460	33.3140
 1.8470	33.2400
 1.8480	33.1630
 1.8490	33.0870
 1.8500	33.0010
 1.8510	32.9100
 1.8520	32.8140
 1.8530	32.7070
 1.8540	32.5850
 1.8550	32.4520
 1.8560	32.3100
 1.8570	32.1550
 1.8580	31.9900
 1.8590	31.8130
 1.8600	31.6260
 1.8610	31.4230
 1.8620	31.2080
 1.8630	30.9770
 1.8640	30.7290
 1.8650	30.4670
 1.8660	30.1860
 1.8670	29.8880
 1.8680	29.5730
 1.8690	29.2360
 1.8700	28.8780
 1.8710	28.4990
 1.8720	28.1070
 1.8730	27.6950
 1.8740	27.2620
 1.8750	26.8180
 1.8760	26.3530
 1.8770	25.8740
 1.8780	25.3850
 1.8790	24.8830
 1.8800	24.3780
 1.8810	23.8640
 1.8820	23.3430
 1.8830	22.8140
 1.8840	22.2820
 1.8850	21.7430
 1.8860	21.2040
 1.8870	20.6710
 1.8880	20.1420
 1.8890	19.6280
 1.8900	19.1260
 1.8910	18.6390
 1.8920	18.1600
 1.8930	17.7050
 1.8940	17.2690
 1.8950	16.8560
 1.8960	16.4690
 1.8970	16.1020
 1.8980	15.7590
 1.8990	15.4380
 1.9000	15.1410
 1.9010	14.8700
 1.9020	14.6190
 1.9030	14.3910
 1.9040	14.1830
 1.9050	13.9970
 1.9060	13.8270
 1.9070	13.6740
 1.9080	13.5390
 1.9090	13.4180
 1.9100	13.3110
 1.9110	13.2130
 1.9120	13.1290
 1.9130	13.0520
 1.9140	12.9840
 1.9150	12.9250
 1.9160	12.8750
 1.9170	12.8300
 1.9180	12.7900
 1.9190	12.7560
 1.9200	12.7280
 1.9210	12.7060
 1.9220	12.6900
 1.9230	12.6840
 1.9240	12.6770
 1.9250	12.6730
 1.9260	12.6730
 1.9270	12.6730
 1.9280	12.6760
 1.9290	12.6860
 1.9300	12.6970
 1.9310	12.7140
 1.9320	12.7350
 1.9330	12.7590
 1.9340	12.7860
 1.9350	12.8160
 1.9360	12.8480
 1.9370	12.8830
 1.9380	12.9240
 1.9390	12.9630
 1.9400	13.0010
 1.9410	13.0440
 1.9420	13.0860
 1.9430	13.1290
 1.9440	13.1780
 1.9450	13.2330
 1.9460	13.2870
 1.9470	13.3450
 1.9480	13.4040
 1.9490	13.4620
 1.9500	13.5250
 1.9510	13.5880
 1.9520	13.6530
 1.9530	13.7190
 1.9540	13.7860
 1.9550	13.8540
 1.9560	13.9240
 1.9570	13.9930
 1.9580	14.0620
 1.9590	14.1330
 1.9600	14.2040
 1.9610	14.2790
 1.9620	14.3600
 1.9630	14.4410
 1.9640	14.5230
 1.9650	14.6050
 1.9660	14.6820
 1.9670	14.7600
 1.9680	14.8400
 1.9690	14.9190
 1.9700	15.0020
 1.9710	15.0900
 1.9720	15.1770
 1.9730	15.2660
 1.9740	15.3560
 1.9750	15.4500
 1.9760	15.5420
 1.9770	15.6340
 1.9780	15.7280
 1.9790	15.8220
 1.9800	15.9140
 1.9810	16.0120
 1.9820	16.1140
 1.9830	16.2130
 1.9840	16.3120
 1.9850	16.4110
 1.9860	16.5080
 1.9870	16.6030
 1.9880	16.7000
 1.9890	16.7990
 1.9900	16.8970
 1.9910	16.9930
 1.9920	17.0910
 1.9930	17.1880
 1.9940	17.2850
 1.9950	17.3810
 1.9960	17.4790
 1.9970	17.5770
 1.9980	17.6750
 1.9990	17.7730
 2.0000	17.8720
 2.0010	17.9680
 2.0020	18.0630
 2.0030	18.1580
 2.0040	18.2530
 2.0050	18.3460
 2.0060	18.4370
 2.0070	18.5290
 2.0080	18.6210
 2.0090	18.7130
 2.0100	18.8090
 2.0110	18.9000
 2.0120	18.9880
 2.0130	19.0740
 2.0140	19.1610
 2.0150	19.2460
 2.0160	19.3330
 2.0170	19.4200
 2.0180	19.5030
 2.0190	19.5840
 2.0200	19.6640
 2.0210	19.7410
 2.0220	19.8190
 2.0230	19.8960
 2.0240	19.9710
 2.0250	20.0450
 2.0260	20.1170
 2.0270	20.1860
 2.0280	20.2540
 2.0290	20.3200
 2.0300	20.3840
 2.0310	20.4470
 2.0320	20.5090
 2.0330	20.5700
 2.0340	20.6300
 2.0350	20.6870
 2.0360	20.7440
 2.0370	20.7980
 2.0380	20.8500
 2.0390	20.8990
 2.0400	20.9460
 2.0410	20.9920
 2.0420	21.0340
 2.0430	21.0770
 2.0440	21.1200
 2.0450	21.1630
 2.0460	21.2060
 2.0470	21.2490
 2.0480	21.2910
 2.0490	21.3330
 2.0500	21.3750
 2.0510	21.4170
 2.0520	21.4580
 2.0530	21.4990
 2.0540	21.5420
 2.0550	21.5850
 2.0560	21.6280
 2.0570	21.6700
 2.0580	21.7150
 2.0590	21.7610
 2.0600	21.8080
 2.0610	21.8570
 2.0620	21.9090
 2.0630	21.9590
 2.0640	22.0060
 2.0650	22.0570
 2.0660	22.1100
 2.0670	22.1610
 2.0680	22.2130
 2.0690	22.2640
 2.0700	22.3140
 2.0710	22.3660
 2.0720	22.4200
 2.0730	22.4740
 2.0740	22.5240
 2.0750	22.5720
 2.0760	22.6200
 2.0770	22.6630
 2.0780	22.7120
 2.0790	22.7630
 2.0800	22.8150
 2.0810	22.8700
 2.0820	22.9220
 2.0830	22.9720
 2.0840	23.0210
 2.0850	23.0690
 2.0860	23.1170
 2.0870	23.1650
 2.0880	23.2130
 2.0890	23.2590
 2.0900	23.3040
 2.0910	23.3510
 2.0920	23.3980
 2.0930	23.4450
 2.0940	23.4920
 2.0950	23.5390
 2.0960	23.5850
 2.0970	23.6300
 2.0980	23.6730
 2.0990	23.7170
 2.1000	23.7600
 2.1010	23.8040
 2.1020	23.8510
 2.1030	23.8970
 2.1040	23.9420
 2.1050	23.9870
 2.1060	24.0310
 2.1070	24.0740
 2.1080	24.1190
 2.1090	24.1650
 2.1100	24.2080
 2.1110	24.2490
 2.1120	24.2910
 2.1130	24.3320
 2.1140	24.3750
 2.1150	24.4240
 2.1160	24.4670
 2.1170	24.5080
 2.1180	24.5500
 2.1190	24.5890
 2.1200	24.6300
 2.1210	24.6720
 2.1220	24.7140
 2.1230	24.7540
 2.1240	24.7940
 2.1250	24.8330
 2.1260	24.8730
 2.1270	24.9110
 2.1280	24.9490
 2.1290	24.9830
 2.1300	25.0160
 2.1310	25.0470
 2.1320	25.0730
 2.1330	25.1020
 2.1340	25.1330
 2.1350	25.1620
 2.1360	25.1920
 2.1370	25.2190
 2.1380	25.2440
 2.1390	25.2690
 2.1400	25.2940
 2.1410	25.3170
 2.1420	25.3390
 2.1430	25.3600
 2.1440	25.3810
 2.1450	25.4020
 2.1460	25.4220
 2.1470	25.4420
 2.1480	25.4620
 2.1490	25.4830
 2.1500	25.4990
 2.1510	25.5160
 2.1520	25.5310
 2.1530	25.5390
 2.1540	25.5510
 2.1550	25.5640
 2.1560	25.5760
 2.1570	25.5900
 2.1580	25.6010
 2.1590	25.6080
 2.1600	25.6140
 2.1610	25.6200
 2.1620	25.6240
 2.1630	25.6310
 2.1640	25.6400
 2.1650	25.6460
 2.1660	25.6520
 2.1670	25.6590
 2.1680	25.6660
 2.1690	25.6720
 2.1700	25.6810
 2.1710	25.6870
 2.1720	25.6890
 2.1730	25.6970
 2.1740	25.7090
 2.1750	25.7210
 2.1760	25.7390
 2.1770	25.7550
 2.1780	25.7700
 2.1790	25.7850
 2.1800	25.7990
 2.1810	25.8140
 2.1820	25.8270
 2.1830	25.8440
 2.1840	25.8580
 2.1850	25.8700
 2.1860	25.8870
 2.1870	25.9080
 2.1880	25.9240
 2.1890	25.9440
 2.1900	25.9600
 2.1910	25.9730
 2.1920	25.9850
 2.1930	25.9970
 2.1940	26.0080
 2.1950	26.0180
 2.1960	26.0270
 2.1970	26.0370
 2.1980	26.0460
 2.1990	26.0490
 2.2000	26.0560
 2.2010	26.0660
 2.2020	26.0730
 2.2030	26.0780
 2.2040	26.0820
 2.2050	26.0830
 2.2060	26.0810
 2.2070	26.0800
 2.2080	26.0780
 2.2090	26.0750
 2.2100	26.0730
 2.2110	26.0660
 2.2120	26.0560
 2.2130	26.0460
 2.2140	26.0310
 2.2150	26.0200
 2.2160	26.0090
 2.2170	25.9990
 2.2180	25.9870
 2.2190	25.9760
 2.2200	25.9700
 2.2210	25.9570
 2.2220	25.9440
 2.2230	25.9250
 2.2240	25.8990
 2.2250	25.8730
 2.2260	25.8480
 2.2270	25.8150
 2.2280	25.7790
 2.2290	25.7400
 2.2300	25.6950
 2.2310	25.6460
 2.2320	25.5980
 2.2330	25.5460
 2.2340	25.4870
 2.2350	25.4220
 2.2360	25.3560
 2.2370	25.2840
 2.2380	25.2150
 2.2390	25.1450
 2.2400	25.0750
 2.2410	25.0020
 2.2420	24.9330
 2.2430	24.8650
 2.2440	24.8020
 2.2450	24.7410
 2.2460	24.6860
 2.2470	24.6360
 2.2480	24.5860
 2.2490	24.5380
 2.2500	24.4940
 2.2510	24.4550
 2.2520	24.4140
 2.2530	24.3800
 2.2540	24.3390
 2.2550	24.2950
 2.2560	24.2500
 2.2570	24.2000
 2.2580	24.1540
 2.2590	24.1090
 2.2600	24.0620
 2.2610	24.0170
 2.2620	23.9700
 2.2630	23.9180
 2.2640	23.8650
 2.2650	23.8120
 2.2660	23.7600
 2.2670	23.7080
 2.2680	23.6550
 2.2690	23.6060
 2.2700	23.5570
 2.2710	23.5120
 2.2720	23.4680
 2.2730	23.4270
 2.2740	23.3890
 2.2750	23.3520
 2.2760	23.3190
 2.2770	23.2860
 2.2780	23.2540
 2.2790	23.2220
 2.2800	23.1860
 2.2810	23.1570
 2.2820	23.1340
 2.2830	23.1030
 2.2840	23.0730
 2.2850	23.0450
 2.2860	23.0110
 2.2870	22.9840
 2.2880	22.9700
 2.2890	22.9430
 2.2900	22.9140
 2.2910	22.8780
 2.2920	22.8260
 2.2930	22.7830
 2.2940	22.7430
 2.2950	22.6990
 2.2960	22.6570
 2.2970	22.6120
 2.2980	22.5640
 2.2990	22.5070
 2.3000	22.4570
 2.3010	22.4020
 2.3020	22.3410
 2.3030	22.2870
 2.3040	22.2300
 2.3050	22.1700
 2.3060	22.1140
 2.3070	22.0600
 2.3080	22.0130
 2.3090	21.9670
 2.3100	21.9200
 2.3110	21.8800
 2.3120	21.8430
 2.3130	21.8040
 2.3140	21.7800
 2.3150	21.7710
 2.3160	21.7500
 2.3170	21.7330
 2.3180	21.7150
 2.3190	21.6910
 2.3200	21.6700
 2.3210	21.6530
 2.3220	21.6330
 2.3230	21.6100
 2.3240	21.5880
 2.3250	21.5650
 2.3260	21.5410
 2.3270	21.5180
 2.3280	21.4910
 2.3290	21.4640
 2.3300	21.4330
 2.3310	21.3980
 2.3320	21.3660
 2.3330	21.3350
 2.3340	21.3020
 2.3350	21.2710
 2.3360	21.2330
 2.3370	21.1900
 2.3380	21.1480
 2.3390	21.1040
 2.3400	21.0630
 2.3410	21.0230
 2.3420	20.9860
 2.3430	20.9550
 2.3440	20.9190
 2.3450	20.8820
 2.3460	20.8480
 2.3470	20.8130
 2.3480	20.7770
 2.3490	20.7400
 2.3500	20.7130
 2.3510	20.6890
 2.3520	20.6650
 2.3530	20.6530
 2.3540	20.6340
 2.3550	20.6020
 2.3560	20.5730
 2.3570	20.5450
 2.3580	20.5310
 2.3590	20.5240
 2.3600	20.5130
 2.3610	20.4940
 2.3620	20.4600
 2.3630	20.4240
 2.3640	20.3800
 2.3650	20.3390
 2.3660	20.3070
 2.3670	20.2710
 2.3680	20.2430
 2.3690	20.2140
 2.3700	20.1730
 2.3710	20.1340
 2.3720	20.0960
 2.3730	20.0530
 2.3740	20.0140
 2.3750	19.9780
 2.3760	19.9430
 2.3770	19.9040
 2.3780	19.8680
 2.3790	19.8280
 2.3800	19.7710
 2.3810	19.7220
 2.3820	19.6730
 2.3830	19.6200
 2.3840	19.5810
 2.3850	19.5420
 2.3860	19.5000
 2.3870	19.4600
 2.3880	19.4140
 2.3890	19.3750
 2.3900	19.3370
 2.3910	19.2930
 2.3920	19.2440
 2.3930	19.1870
 2.3940	19.1390
 2.3950	19.0840
 2.3960	19.0290
 2.3970	18.9880
 2.3980	18.9320
 2.3990	18.8940
 2.4000	18.8670
 2.4010	18.8270
 2.4020	18.7880
 2.4030	18.7400
 2.4040	18.6860
 2.4050	18.6320
 2.4060	18.5940
 2.4070	18.5520
 2.4080	18.5040
 2.4090	18.4550
 2.4100	18.3910
 2.4110	18.3350
 2.4120	18.2830
 2.4130	18.2300
 2.4140	18.1820
 2.4150	18.1330
 2.4160	18.0770
 2.4170	18.0200
 2.4180	17.9630
 2.4190	17.8890
 2.4200	17.8340
 2.4210	17.7920
 2.4220	17.7390
 2.4230	17.6970
 2.4240	17.6430
 2.4250	17.5690
 2.4260	17.4960
 2.4270	17.4310
 2.4280	17.3660
 2.4290	17.3130
 2.4300	17.2700
 2.4310	17.2030
 2.4320	17.1430
 2.4330	17.0780
 2.4340	17.0060
 2.4350	16.9510
 2.4360	16.8940
 2.4370	16.8500
 2.4380	16.8080
 2.4390	16.7450
 2.4400	16.6860
 2.4410	16.6420
 2.4420	16.5790
 2.4430	16.5260
 2.4440	16.4720
 2.4450	16.3890
 2.4460	16.3290
 2.4470	16.2810
 2.4480	16.2390
 2.4490	16.1930
 2.4500	16.1250
 2.4510	16.0610
 2.4520	15.9890
 2.4530	15.9050
 2.4540	15.8500
 2.4550	15.8100
 2.4560	15.7540
 2.4570	15.7140
 2.4580	15.6660
 2.4590	15.5900
 2.4600	15.5300
 2.4610	15.4890
 2.4620	15.4470
 2.4630	15.4050
 2.4640	15.3690
 2.4650	15.3110
 2.4660	15.2480
 2.4670	15.2030
 2.4680	15.1480
 2.4690	15.0910
 2.4700	15.0550
 2.4710	15.0230
 2.4720	14.9820
 2.4730	14.9560
 2.4740	14.9210
 2.4750	14.8670
 2.4760	14.8200
 2.4770	14.7830
 2.4780	14.7510
 2.4790	14.7080
 2.4800	14.6730
 2.4810	14.6600
 2.4820	14.6150
 2.4830	14.5880
 2.4840	14.5320
 2.4850	14.4620
 2.4860	14.4110
 2.4870	14.3760
 2.4880	14.3880
 2.4890	14.4090
 2.4900	14.3850
 2.4910	14.3560
 2.4920	14.3400
 2.4930	14.3110
 2.4940	14.3290
 2.4950	14.3820
 2.4960	14.3830
 2.4970	14.3670
 2.4980	14.3390
 2.4990	14.2980
 2.5000	14.2560
