Name: Adenostoma fasciculatum 2
Type: vegetation
Class: Shrub
Genus: Adenostoma
Species: fasciculatum
Sample No.: VH220
Owner: UCSB
Wavelength Range: VSWIR
Origin: 34.5084; -119.7687; WGS84
Collection Date: 10/13/2013
Description: Samples were collected as part of the HyspIRI Airborne Campaign. 48 individual plants were sampled in three times in 2013 - spring  summer  and fall. The name of the sample includes a 1  2  or 3 which references a different individual of the species. Samples were taken to JPL and processed within 48 hours of collection. The same leaves were processed in the Nicolet and then measured using the ASD.
Measurement: Bidirectional reflectance
First Column: X
Second Column: Y
X Units: Wavelength (micrometers)
Y Units: Reflectance (percentage)
First X Value: 0.35
Last X Value: 2.5
Number of X Values: 2151
Additional Information: vegetation.shrub.adenostoma.fasciculatum.vswir.vh220.ucsb.asd.ancillary.txt

 0.3500	 1.9460
 0.3510	 2.0950
 0.3520	 1.8660
 0.3530	 1.5790
 0.3540	 1.5490
 0.3550	 1.5690
 0.3560	 1.8140
 0.3570	 1.9850
 0.3580	 1.6690
 0.3590	 1.6470
 0.3600	 1.7570
 0.3610	 1.8230
 0.3620	 1.8020
 0.3630	 1.7790
 0.3640	 1.7280
 0.3650	 1.6530
 0.3660	 1.7820
 0.3670	 1.7800
 0.3680	 1.6590
 0.3690	 1.6600
 0.3700	 1.6690
 0.3710	 1.7400
 0.3720	 1.8490
 0.3730	 1.7980
 0.3740	 1.7800
 0.3750	 1.7630
 0.3760	 1.7030
 0.3770	 1.8520
 0.3780	 1.9290
 0.3790	 1.8390
 0.3800	 1.6810
 0.3810	 1.6260
 0.3820	 1.6740
 0.3830	 1.7560
 0.3840	 1.7200
 0.3850	 1.7660
 0.3860	 1.8340
 0.3870	 1.8050
 0.3880	 1.7930
 0.3890	 1.8070
 0.3900	 1.8260
 0.3910	 1.8080
 0.3920	 1.8930
 0.3930	 1.9220
 0.3940	 1.7990
 0.3950	 1.7440
 0.3960	 1.7980
 0.3970	 1.8870
 0.3980	 1.8990
 0.3990	 1.8700
 0.4000	 1.8500
 0.4010	 1.8730
 0.4020	 1.9440
 0.4030	 1.9770
 0.4040	 1.9830
 0.4050	 1.9860
 0.4060	 1.9650
 0.4070	 1.9340
 0.4080	 1.9420
 0.4090	 2.0400
 0.4100	 2.0440
 0.4110	 2.0290
 0.4120	 2.0460
 0.4130	 2.0380
 0.4140	 2.0930
 0.4150	 2.1520
 0.4160	 2.1430
 0.4170	 2.1650
 0.4180	 2.2130
 0.4190	 2.2560
 0.4200	 2.2540
 0.4210	 2.2630
 0.4220	 2.2610
 0.4230	 2.2450
 0.4240	 2.3120
 0.4250	 2.3590
 0.4260	 2.3760
 0.4270	 2.3910
 0.4280	 2.3990
 0.4290	 2.4070
 0.4300	 2.4310
 0.4310	 2.5070
 0.4320	 2.5300
 0.4330	 2.5290
 0.4340	 2.5500
 0.4350	 2.5740
 0.4360	 2.5880
 0.4370	 2.5870
 0.4380	 2.5710
 0.4390	 2.5840
 0.4400	 2.6060
 0.4410	 2.6190
 0.4420	 2.6340
 0.4430	 2.6380
 0.4440	 2.6480
 0.4450	 2.6850
 0.4460	 2.6990
 0.4470	 2.6990
 0.4480	 2.6980
 0.4490	 2.7170
 0.4500	 2.7140
 0.4510	 2.7230
 0.4520	 2.7640
 0.4530	 2.7610
 0.4540	 2.7780
 0.4550	 2.8080
 0.4560	 2.8020
 0.4570	 2.8130
 0.4580	 2.8280
 0.4590	 2.8380
 0.4600	 2.8480
 0.4610	 2.8620
 0.4620	 2.8800
 0.4630	 2.8980
 0.4640	 2.9000
 0.4650	 2.8980
 0.4660	 2.9020
 0.4670	 2.9100
 0.4680	 2.9130
 0.4690	 2.9150
 0.4700	 2.9230
 0.4710	 2.9460
 0.4720	 2.9510
 0.4730	 2.9450
 0.4740	 2.9550
 0.4750	 2.9510
 0.4760	 2.9500
 0.4770	 2.9620
 0.4780	 2.9790
 0.4790	 2.9820
 0.4800	 2.9770
 0.4810	 2.9780
 0.4820	 2.9930
 0.4830	 3.0010
 0.4840	 3.0040
 0.4850	 3.0270
 0.4860	 3.0490
 0.4870	 3.0590
 0.4880	 3.0580
 0.4890	 3.0770
 0.4900	 3.0890
 0.4910	 3.0960
 0.4920	 3.1160
 0.4930	 3.1430
 0.4940	 3.1610
 0.4950	 3.1730
 0.4960	 3.2030
 0.4970	 3.2270
 0.4980	 3.2450
 0.4990	 3.2680
 0.5000	 3.3120
 0.5010	 3.3500
 0.5020	 3.3800
 0.5030	 3.4210
 0.5040	 3.4700
 0.5050	 3.5180
 0.5060	 3.5610
 0.5070	 3.6070
 0.5080	 3.6580
 0.5090	 3.7200
 0.5100	 3.7930
 0.5110	 3.8680
 0.5120	 3.9390
 0.5130	 4.0060
 0.5140	 4.0750
 0.5150	 4.1630
 0.5160	 4.2620
 0.5170	 4.3590
 0.5180	 4.4610
 0.5190	 4.5600
 0.5200	 4.6610
 0.5210	 4.7720
 0.5220	 4.8820
 0.5230	 4.9880
 0.5240	 5.0910
 0.5250	 5.1910
 0.5260	 5.2950
 0.5270	 5.3960
 0.5280	 5.4840
 0.5290	 5.5710
 0.5300	 5.6600
 0.5310	 5.7460
 0.5320	 5.8190
 0.5330	 5.8920
 0.5340	 5.9610
 0.5350	 6.0220
 0.5360	 6.0760
 0.5370	 6.1330
 0.5380	 6.1910
 0.5390	 6.2450
 0.5400	 6.2970
 0.5410	 6.3540
 0.5420	 6.4150
 0.5430	 6.4670
 0.5440	 6.5180
 0.5450	 6.5640
 0.5460	 6.5940
 0.5470	 6.6150
 0.5480	 6.6290
 0.5490	 6.6440
 0.5500	 6.6700
 0.5510	 6.6980
 0.5520	 6.7200
 0.5530	 6.7320
 0.5540	 6.7390
 0.5550	 6.7360
 0.5560	 6.7250
 0.5570	 6.7110
 0.5580	 6.6880
 0.5590	 6.6600
 0.5600	 6.6310
 0.5610	 6.6020
 0.5620	 6.5640
 0.5630	 6.5230
 0.5640	 6.4840
 0.5650	 6.4410
 0.5660	 6.3970
 0.5670	 6.3510
 0.5680	 6.2940
 0.5690	 6.2370
 0.5700	 6.1800
 0.5710	 6.1190
 0.5720	 6.0590
 0.5730	 6.0020
 0.5740	 5.9480
 0.5750	 5.8950
 0.5760	 5.8490
 0.5770	 5.8080
 0.5780	 5.7700
 0.5790	 5.7330
 0.5800	 5.7000
 0.5810	 5.6670
 0.5820	 5.6360
 0.5830	 5.6020
 0.5840	 5.5700
 0.5850	 5.5420
 0.5860	 5.5210
 0.5870	 5.4990
 0.5880	 5.4800
 0.5890	 5.4630
 0.5900	 5.4390
 0.5910	 5.4180
 0.5920	 5.4020
 0.5930	 5.3890
 0.5940	 5.3760
 0.5950	 5.3640
 0.5960	 5.3530
 0.5970	 5.3480
 0.5980	 5.3390
 0.5990	 5.3290
 0.6000	 5.3240
 0.6010	 5.3160
 0.6020	 5.3010
 0.6030	 5.2810
 0.6040	 5.2610
 0.6050	 5.2430
 0.6060	 5.2230
 0.6070	 5.1970
 0.6080	 5.1720
 0.6090	 5.1490
 0.6100	 5.1340
 0.6110	 5.1280
 0.6120	 5.0910
 0.6130	 5.0430
 0.6140	 5.0000
 0.6150	 4.9650
 0.6160	 4.9310
 0.6170	 4.8980
 0.6180	 4.8680
 0.6190	 4.8460
 0.6200	 4.8230
 0.6210	 4.8010
 0.6220	 4.7890
 0.6230	 4.7770
 0.6240	 4.7690
 0.6250	 4.7640
 0.6260	 4.7530
 0.6270	 4.7480
 0.6280	 4.7490
 0.6290	 4.7490
 0.6300	 4.7470
 0.6310	 4.7440
 0.6320	 4.7410
 0.6330	 4.7350
 0.6340	 4.7210
 0.6350	 4.7030
 0.6360	 4.6860
 0.6370	 4.6670
 0.6380	 4.6390
 0.6390	 4.6040
 0.6400	 4.5670
 0.6410	 4.5280
 0.6420	 4.4860
 0.6430	 4.4410
 0.6440	 4.4000
 0.6450	 4.3540
 0.6460	 4.3090
 0.6470	 4.2700
 0.6480	 4.2340
 0.6490	 4.2030
 0.6500	 4.1780
 0.6510	 4.1570
 0.6520	 4.1320
 0.6530	 4.1080
 0.6540	 4.0900
 0.6550	 4.0730
 0.6560	 4.0530
 0.6570	 4.0270
 0.6580	 3.9940
 0.6590	 3.9570
 0.6600	 3.9230
 0.6610	 3.8900
 0.6620	 3.8460
 0.6630	 3.8140
 0.6640	 3.7830
 0.6650	 3.7460
 0.6660	 3.7200
 0.6670	 3.6940
 0.6680	 3.6700
 0.6690	 3.6560
 0.6700	 3.6420
 0.6710	 3.6300
 0.6720	 3.6240
 0.6730	 3.6250
 0.6740	 3.6260
 0.6750	 3.6270
 0.6760	 3.6330
 0.6770	 3.6430
 0.6780	 3.6560
 0.6790	 3.6730
 0.6800	 3.6970
 0.6810	 3.7250
 0.6820	 3.7610
 0.6830	 3.8080
 0.6840	 3.8620
 0.6850	 3.9320
 0.6860	 4.0190
 0.6870	 4.1220
 0.6880	 4.2420
 0.6890	 4.3840
 0.6900	 4.5540
 0.6910	 4.7580
 0.6920	 4.9890
 0.6930	 5.2550
 0.6940	 5.5590
 0.6950	 5.8950
 0.6960	 6.2630
 0.6970	 6.6650
 0.6980	 7.1020
 0.6990	 7.5650
 0.7000	 8.0540
 0.7010	 8.5630
 0.7020	 9.0890
 0.7030	 9.6300
 0.7040	10.1880
 0.7050	10.7580
 0.7060	11.3260
 0.7070	11.9060
 0.7080	12.4970
 0.7090	13.0930
 0.7100	13.6880
 0.7110	14.2950
 0.7120	14.9140
 0.7130	15.5330
 0.7140	16.1620
 0.7150	16.7940
 0.7160	17.4240
 0.7170	18.0670
 0.7180	18.7200
 0.7190	19.3720
 0.7200	20.0120
 0.7210	20.6480
 0.7220	21.2810
 0.7230	21.9090
 0.7240	22.5270
 0.7250	23.1450
 0.7260	23.7430
 0.7270	24.3100
 0.7280	24.8710
 0.7290	25.4200
 0.7300	25.9500
 0.7310	26.4540
 0.7320	26.9330
 0.7330	27.3920
 0.7340	27.8330
 0.7350	28.2540
 0.7360	28.6560
 0.7370	29.0370
 0.7380	29.3960
 0.7390	29.7410
 0.7400	30.0550
 0.7410	30.3500
 0.7420	30.6460
 0.7430	30.9130
 0.7440	31.1570
 0.7450	31.3850
 0.7460	31.6040
 0.7470	31.8100
 0.7480	32.0020
 0.7490	32.1790
 0.7500	32.3400
 0.7510	32.4970
 0.7520	32.6460
 0.7530	32.7780
 0.7540	32.8870
 0.7550	32.9960
 0.7560	33.1070
 0.7570	33.2090
 0.7580	33.3020
 0.7590	33.3910
 0.7600	33.4750
 0.7610	33.5450
 0.7620	33.6120
 0.7630	33.6830
 0.7640	33.7570
 0.7650	33.8170
 0.7660	33.8760
 0.7670	33.9350
 0.7680	33.9900
 0.7690	34.0380
 0.7700	34.0820
 0.7710	34.1280
 0.7720	34.1700
 0.7730	34.2190
 0.7740	34.2600
 0.7750	34.2870
 0.7760	34.3290
 0.7770	34.3710
 0.7780	34.4110
 0.7790	34.4550
 0.7800	34.4970
 0.7810	34.5370
 0.7820	34.5730
 0.7830	34.6020
 0.7840	34.6450
 0.7850	34.6880
 0.7860	34.7190
 0.7870	34.7350
 0.7880	34.7660
 0.7890	34.8060
 0.7900	34.8410
 0.7910	34.8750
 0.7920	34.9010
 0.7930	34.9240
 0.7940	34.9590
 0.7950	34.9960
 0.7960	35.0200
 0.7970	35.0290
 0.7980	35.0520
 0.7990	35.0900
 0.8000	35.1310
 0.8010	35.1640
 0.8020	35.1810
 0.8030	35.1980
 0.8040	35.2220
 0.8050	35.2540
 0.8060	35.2660
 0.8070	35.2910
 0.8080	35.3280
 0.8090	35.3480
 0.8100	35.3800
 0.8110	35.4050
 0.8120	35.4160
 0.8130	35.4340
 0.8140	35.4600
 0.8150	35.4880
 0.8160	35.5070
 0.8170	35.5130
 0.8180	35.5320
 0.8190	35.5620
 0.8200	35.5840
 0.8210	35.5960
 0.8220	35.6180
 0.8230	35.6470
 0.8240	35.6640
 0.8250	35.6810
 0.8260	35.7030
 0.8270	35.7260
 0.8280	35.7310
 0.8290	35.7570
 0.8300	35.7790
 0.8310	35.7780
 0.8320	35.7890
 0.8330	35.8100
 0.8340	35.8320
 0.8350	35.8500
 0.8360	35.8800
 0.8370	35.8940
 0.8380	35.9000
 0.8390	35.9290
 0.8400	35.9650
 0.8410	35.9850
 0.8420	35.9960
 0.8430	36.0380
 0.8440	36.0680
 0.8450	36.0720
 0.8460	36.0660
 0.8470	36.1260
 0.8480	36.1550
 0.8490	36.1600
 0.8500	36.1810
 0.8510	36.2230
 0.8520	36.2510
 0.8530	36.2650
 0.8540	36.2900
 0.8550	36.3210
 0.8560	36.3420
 0.8570	36.3520
 0.8580	36.3680
 0.8590	36.3920
 0.8600	36.4210
 0.8610	36.4520
 0.8620	36.4860
 0.8630	36.4900
 0.8640	36.5020
 0.8650	36.5460
 0.8660	36.5550
 0.8670	36.5820
 0.8680	36.6150
 0.8690	36.6290
 0.8700	36.6570
 0.8710	36.6730
 0.8720	36.6840
 0.8730	36.7080
 0.8740	36.7540
 0.8750	36.7730
 0.8760	36.7700
 0.8770	36.8010
 0.8780	36.8270
 0.8790	36.8430
 0.8800	36.8580
 0.8810	36.8840
 0.8820	36.9060
 0.8830	36.9310
 0.8840	36.9560
 0.8850	36.9400
 0.8860	36.9490
 0.8870	36.9730
 0.8880	36.9880
 0.8890	37.0080
 0.8900	37.0320
 0.8910	37.0460
 0.8920	37.0420
 0.8930	37.0560
 0.8940	37.0660
 0.8950	37.0760
 0.8960	37.0990
 0.8970	37.1160
 0.8980	37.1210
 0.8990	37.1260
 0.9000	37.1540
 0.9010	37.1500
 0.9020	37.1490
 0.9030	37.1690
 0.9040	37.1840
 0.9050	37.1810
 0.9060	37.1830
 0.9070	37.1970
 0.9080	37.1920
 0.9090	37.2030
 0.9100	37.2160
 0.9110	37.2180
 0.9120	37.2300
 0.9130	37.2400
 0.9140	37.2530
 0.9150	37.2730
 0.9160	37.2750
 0.9170	37.2880
 0.9180	37.3000
 0.9190	37.2920
 0.9200	37.3050
 0.9210	37.3080
 0.9220	37.2960
 0.9230	37.2810
 0.9240	37.2840
 0.9250	37.2920
 0.9260	37.2960
 0.9270	37.2920
 0.9280	37.2790
 0.9290	37.2680
 0.9300	37.2640
 0.9310	37.2580
 0.9320	37.2500
 0.9330	37.2420
 0.9340	37.2270
 0.9350	37.1930
 0.9360	37.1650
 0.9370	37.1540
 0.9380	37.1520
 0.9390	37.1290
 0.9400	37.0920
 0.9410	37.0620
 0.9420	37.0380
 0.9430	36.9810
 0.9440	36.9480
 0.9450	36.9230
 0.9460	36.8890
 0.9470	36.8610
 0.9480	36.8000
 0.9490	36.7230
 0.9500	36.6510
 0.9510	36.5820
 0.9520	36.5050
 0.9530	36.4350
 0.9540	36.3780
 0.9550	36.2780
 0.9560	36.1810
 0.9570	36.0960
 0.9580	36.0180
 0.9590	35.9650
 0.9600	35.9120
 0.9610	35.8430
 0.9620	35.7580
 0.9630	35.7140
 0.9640	35.6830
 0.9650	35.6430
 0.9660	35.5860
 0.9670	35.5560
 0.9680	35.5360
 0.9690	35.5120
 0.9700	35.4780
 0.9710	35.4490
 0.9720	35.4320
 0.9730	35.4270
 0.9740	35.4250
 0.9750	35.3980
 0.9760	35.3940
 0.9770	35.4010
 0.9780	35.3840
 0.9790	35.3620
 0.9800	35.3590
 0.9810	35.3810
 0.9820	35.4130
 0.9830	35.3930
 0.9840	35.3970
 0.9850	35.4230
 0.9860	35.4370
 0.9870	35.4730
 0.9880	35.5190
 0.9890	35.5520
 0.9900	35.5580
 0.9910	35.5740
 0.9920	35.5840
 0.9930	35.5940
 0.9940	35.6050
 0.9950	35.6150
 0.9960	35.6250
 0.9970	35.6360
 0.9980	35.6460
 0.9990	35.6560
 1.0000	35.6670
 1.0010	35.6770
 1.0020	35.6870
 1.0030	35.6980
 1.0040	35.7080
 1.0050	35.7180
 1.0060	35.7290
 1.0070	35.7390
 1.0080	35.7490
 1.0090	35.7590
 1.0100	35.7590
 1.0110	35.8040
 1.0120	35.8510
 1.0130	35.9000
 1.0140	35.9490
 1.0150	35.9970
 1.0160	36.0500
 1.0170	36.0970
 1.0180	36.1400
 1.0190	36.1740
 1.0200	36.2130
 1.0210	36.2540
 1.0220	36.2990
 1.0230	36.3450
 1.0240	36.3940
 1.0250	36.4390
 1.0260	36.4870
 1.0270	36.5310
 1.0280	36.5690
 1.0290	36.6110
 1.0300	36.6500
 1.0310	36.6950
 1.0320	36.7510
 1.0330	36.7920
 1.0340	36.8310
 1.0350	36.8760
 1.0360	36.9110
 1.0370	36.9450
 1.0380	36.9790
 1.0390	37.0140
 1.0400	37.0460
 1.0410	37.0740
 1.0420	37.1070
 1.0430	37.1390
 1.0440	37.1720
 1.0450	37.2070
 1.0460	37.2390
 1.0470	37.2700
 1.0480	37.2980
 1.0490	37.3240
 1.0500	37.3500
 1.0510	37.3720
 1.0520	37.4000
 1.0530	37.4240
 1.0540	37.4460
 1.0550	37.4740
 1.0560	37.5040
 1.0570	37.5330
 1.0580	37.5630
 1.0590	37.5930
 1.0600	37.6240
 1.0610	37.6490
 1.0620	37.6750
 1.0630	37.6970
 1.0640	37.7110
 1.0650	37.7290
 1.0660	37.7490
 1.0670	37.7680
 1.0680	37.7870
 1.0690	37.8080
 1.0700	37.8260
 1.0710	37.8430
 1.0720	37.8590
 1.0730	37.8740
 1.0740	37.8910
 1.0750	37.9080
 1.0760	37.9250
 1.0770	37.9470
 1.0780	37.9600
 1.0790	37.9650
 1.0800	37.9760
 1.0810	37.9840
 1.0820	37.9920
 1.0830	38.0070
 1.0840	38.0160
 1.0850	38.0170
 1.0860	38.0210
 1.0870	38.0230
 1.0880	38.0210
 1.0890	38.0210
 1.0900	38.0230
 1.0910	38.0200
 1.0920	38.0160
 1.0930	38.0130
 1.0940	38.0090
 1.0950	38.0050
 1.0960	38.0070
 1.0970	38.0000
 1.0980	37.9850
 1.0990	37.9750
 1.1000	37.9640
 1.1010	37.9510
 1.1020	37.9400
 1.1030	37.9300
 1.1040	37.9230
 1.1050	37.9100
 1.1060	37.8960
 1.1070	37.8840
 1.1080	37.8650
 1.1090	37.8400
 1.1100	37.8140
 1.1110	37.7830
 1.1120	37.7570
 1.1130	37.7340
 1.1140	37.7030
 1.1150	37.6740
 1.1160	37.6390
 1.1170	37.5960
 1.1180	37.5500
 1.1190	37.5030
 1.1200	37.4500
 1.1210	37.3850
 1.1220	37.3150
 1.1230	37.2470
 1.1240	37.1760
 1.1250	37.0980
 1.1260	37.0220
 1.1270	36.9310
 1.1280	36.8300
 1.1290	36.7210
 1.1300	36.6050
 1.1310	36.4790
 1.1320	36.3440
 1.1330	36.1980
 1.1340	36.0400
 1.1350	35.8780
 1.1360	35.7080
 1.1370	35.5300
 1.1380	35.3450
 1.1390	35.1540
 1.1400	34.9610
 1.1410	34.7620
 1.1420	34.5570
 1.1430	34.3550
 1.1440	34.1500
 1.1450	33.9370
 1.1460	33.7320
 1.1470	33.5290
 1.1480	33.3310
 1.1490	33.1320
 1.1500	32.9440
 1.1510	32.7610
 1.1520	32.5880
 1.1530	32.4220
 1.1540	32.2690
 1.1550	32.1300
 1.1560	31.9950
 1.1570	31.8740
 1.1580	31.7600
 1.1590	31.6480
 1.1600	31.5480
 1.1610	31.4580
 1.1620	31.3730
 1.1630	31.2980
 1.1640	31.2340
 1.1650	31.1700
 1.1660	31.1130
 1.1670	31.0580
 1.1680	31.0060
 1.1690	30.9580
 1.1700	30.9200
 1.1710	30.8760
 1.1720	30.8320
 1.1730	30.7920
 1.1740	30.7490
 1.1750	30.7110
 1.1760	30.6770
 1.1770	30.6360
 1.1780	30.5920
 1.1790	30.5470
 1.1800	30.4990
 1.1810	30.4570
 1.1820	30.4200
 1.1830	30.3830
 1.1840	30.3490
 1.1850	30.3150
 1.1860	30.2790
 1.1870	30.2450
 1.1880	30.2130
 1.1890	30.1850
 1.1900	30.1580
 1.1910	30.1340
 1.1920	30.1100
 1.1930	30.0850
 1.1940	30.0650
 1.1950	30.0490
 1.1960	30.0340
 1.1970	30.0250
 1.1980	30.0180
 1.1990	30.0180
 1.2000	30.0170
 1.2010	30.0180
 1.2020	30.0310
 1.2030	30.0470
 1.2040	30.0660
 1.2050	30.0950
 1.2060	30.1250
 1.2070	30.1570
 1.2080	30.1950
 1.2090	30.2340
 1.2100	30.2770
 1.2110	30.3250
 1.2120	30.3780
 1.2130	30.4350
 1.2140	30.5000
 1.2150	30.5630
 1.2160	30.6290
 1.2170	30.6930
 1.2180	30.7590
 1.2190	30.8280
 1.2200	30.8970
 1.2210	30.9730
 1.2220	31.0460
 1.2230	31.1150
 1.2240	31.1830
 1.2250	31.2470
 1.2260	31.3150
 1.2270	31.3780
 1.2280	31.4390
 1.2290	31.5030
 1.2300	31.5610
 1.2310	31.6190
 1.2320	31.6790
 1.2330	31.7380
 1.2340	31.7930
 1.2350	31.8460
 1.2360	31.8970
 1.2370	31.9450
 1.2380	31.9920
 1.2390	32.0370
 1.2400	32.0810
 1.2410	32.1270
 1.2420	32.1710
 1.2430	32.2190
 1.2440	32.2670
 1.2450	32.3090
 1.2460	32.3490
 1.2470	32.3830
 1.2480	32.4160
 1.2490	32.4530
 1.2500	32.4870
 1.2510	32.5210
 1.2520	32.5550
 1.2530	32.5820
 1.2540	32.6080
 1.2550	32.6330
 1.2560	32.6560
 1.2570	32.6780
 1.2580	32.6990
 1.2590	32.7200
 1.2600	32.7400
 1.2610	32.7600
 1.2620	32.7800
 1.2630	32.8020
 1.2640	32.8190
 1.2650	32.8350
 1.2660	32.8470
 1.2670	32.8530
 1.2680	32.8610
 1.2690	32.8660
 1.2700	32.8700
 1.2710	32.8770
 1.2720	32.8790
 1.2730	32.8800
 1.2740	32.8790
 1.2750	32.8710
 1.2760	32.8660
 1.2770	32.8630
 1.2780	32.8520
 1.2790	32.8430
 1.2800	32.8310
 1.2810	32.8180
 1.2820	32.8060
 1.2830	32.7890
 1.2840	32.7740
 1.2850	32.7570
 1.2860	32.7360
 1.2870	32.7120
 1.2880	32.6890
 1.2890	32.6610
 1.2900	32.6270
 1.2910	32.5940
 1.2920	32.5610
 1.2930	32.5250
 1.2940	32.4920
 1.2950	32.4520
 1.2960	32.4090
 1.2970	32.3660
 1.2980	32.3130
 1.2990	32.2580
 1.3000	32.2030
 1.3010	32.1420
 1.3020	32.0770
 1.3030	32.0130
 1.3040	31.9430
 1.3050	31.8680
 1.3060	31.7940
 1.3070	31.7120
 1.3080	31.6280
 1.3090	31.5410
 1.3100	31.4440
 1.3110	31.3460
 1.3120	31.2420
 1.3130	31.1330
 1.3140	31.0240
 1.3150	30.9150
 1.3160	30.7980
 1.3170	30.6780
 1.3180	30.5540
 1.3190	30.4230
 1.3200	30.2880
 1.3210	30.1470
 1.3220	30.0060
 1.3230	29.8620
 1.3240	29.7120
 1.3250	29.5590
 1.3260	29.4030
 1.3270	29.2400
 1.3280	29.0750
 1.3290	28.9080
 1.3300	28.7400
 1.3310	28.5710
 1.3320	28.3980
 1.3330	28.2270
 1.3340	28.0560
 1.3350	27.8800
 1.3360	27.7070
 1.3370	27.5330
 1.3380	27.3540
 1.3390	27.1800
 1.3400	27.0040
 1.3410	26.8320
 1.3420	26.6660
 1.3430	26.5000
 1.3440	26.3350
 1.3450	26.1730
 1.3460	26.0090
 1.3470	25.8520
 1.3480	25.7000
 1.3490	25.5510
 1.3500	25.4070
 1.3510	25.2630
 1.3520	25.1210
 1.3530	24.9780
 1.3540	24.8360
 1.3550	24.6990
 1.3560	24.5620
 1.3570	24.4220
 1.3580	24.2840
 1.3590	24.1440
 1.3600	24.0020
 1.3610	23.8600
 1.3620	23.7170
 1.3630	23.5710
 1.3640	23.4180
 1.3650	23.2590
 1.3660	23.0960
 1.3670	22.9290
 1.3680	22.7570
 1.3690	22.5800
 1.3700	22.3900
 1.3710	22.1920
 1.3720	21.9840
 1.3730	21.7640
 1.3740	21.5350
 1.3750	21.2960
 1.3760	21.0410
 1.3770	20.7720
 1.3780	20.4870
 1.3790	20.1870
 1.3800	19.8710
 1.3810	19.5380
 1.3820	19.1990
 1.3830	18.8470
 1.3840	18.4880
 1.3850	18.1230
 1.3860	17.7480
 1.3870	17.3600
 1.3880	16.9720
 1.3890	16.5790
 1.3900	16.1840
 1.3910	15.7910
 1.3920	15.4010
 1.3930	15.0130
 1.3940	14.6310
 1.3950	14.2530
 1.3960	13.8840
 1.3970	13.5240
 1.3980	13.1700
 1.3990	12.8330
 1.4000	12.5070
 1.4010	12.1930
 1.4020	11.8930
 1.4030	11.6020
 1.4040	11.3240
 1.4050	11.0630
 1.4060	10.8150
 1.4070	10.5840
 1.4080	10.3660
 1.4090	10.1570
 1.4100	 9.9590
 1.4110	 9.7730
 1.4120	 9.5980
 1.4130	 9.4390
 1.4140	 9.2900
 1.4150	 9.1540
 1.4160	 9.0270
 1.4170	 8.9050
 1.4180	 8.7920
 1.4190	 8.6870
 1.4200	 8.5880
 1.4210	 8.4990
 1.4220	 8.4180
 1.4230	 8.3440
 1.4240	 8.2780
 1.4250	 8.2140
 1.4260	 8.1550
 1.4270	 8.1010
 1.4280	 8.0500
 1.4290	 8.0030
 1.4300	 7.9610
 1.4310	 7.9220
 1.4320	 7.8880
 1.4330	 7.8560
 1.4340	 7.8280
 1.4350	 7.8030
 1.4360	 7.7800
 1.4370	 7.7610
 1.4380	 7.7450
 1.4390	 7.7330
 1.4400	 7.7220
 1.4410	 7.7110
 1.4420	 7.7020
 1.4430	 7.6940
 1.4440	 7.6900
 1.4450	 7.6880
 1.4460	 7.6870
 1.4470	 7.6870
 1.4480	 7.6880
 1.4490	 7.6890
 1.4500	 7.6940
 1.4510	 7.6990
 1.4520	 7.7030
 1.4530	 7.7100
 1.4540	 7.7150
 1.4550	 7.7220
 1.4560	 7.7330
 1.4570	 7.7440
 1.4580	 7.7550
 1.4590	 7.7670
 1.4600	 7.7800
 1.4610	 7.7960
 1.4620	 7.8140
 1.4630	 7.8350
 1.4640	 7.8570
 1.4650	 7.8800
 1.4660	 7.9070
 1.4670	 7.9390
 1.4680	 7.9730
 1.4690	 8.0080
 1.4700	 8.0430
 1.4710	 8.0790
 1.4720	 8.1170
 1.4730	 8.1590
 1.4740	 8.2040
 1.4750	 8.2490
 1.4760	 8.2920
 1.4770	 8.3380
 1.4780	 8.3880
 1.4790	 8.4400
 1.4800	 8.4950
 1.4810	 8.5510
 1.4820	 8.6070
 1.4830	 8.6620
 1.4840	 8.7180
 1.4850	 8.7750
 1.4860	 8.8320
 1.4870	 8.8920
 1.4880	 8.9520
 1.4890	 9.0120
 1.4900	 9.0730
 1.4910	 9.1340
 1.4920	 9.1950
 1.4930	 9.2580
 1.4940	 9.3200
 1.4950	 9.3820
 1.4960	 9.4450
 1.4970	 9.5070
 1.4980	 9.5700
 1.4990	 9.6350
 1.5000	 9.6990
 1.5010	 9.7610
 1.5020	 9.8240
 1.5030	 9.8870
 1.5040	 9.9500
 1.5050	10.0150
 1.5060	10.0800
 1.5070	10.1450
 1.5080	10.2090
 1.5090	10.2730
 1.5100	10.3370
 1.5110	10.4020
 1.5120	10.4670
 1.5130	10.5310
 1.5140	10.5970
 1.5150	10.6610
 1.5160	10.7240
 1.5170	10.7870
 1.5180	10.8470
 1.5190	10.9080
 1.5200	10.9700
 1.5210	11.0310
 1.5220	11.0910
 1.5230	11.1510
 1.5240	11.2100
 1.5250	11.2700
 1.5260	11.3320
 1.5270	11.3930
 1.5280	11.4520
 1.5290	11.5090
 1.5300	11.5670
 1.5310	11.6250
 1.5320	11.6820
 1.5330	11.7400
 1.5340	11.7950
 1.5350	11.8470
 1.5360	11.8990
 1.5370	11.9490
 1.5380	12.0030
 1.5390	12.0570
 1.5400	12.1110
 1.5410	12.1690
 1.5420	12.2260
 1.5430	12.2790
 1.5440	12.3320
 1.5450	12.3810
 1.5460	12.4290
 1.5470	12.4800
 1.5480	12.5320
 1.5490	12.5840
 1.5500	12.6360
 1.5510	12.6860
 1.5520	12.7350
 1.5530	12.7830
 1.5540	12.8300
 1.5550	12.8780
 1.5560	12.9270
 1.5570	12.9750
 1.5580	13.0220
 1.5590	13.0690
 1.5600	13.1170
 1.5610	13.1620
 1.5620	13.2090
 1.5630	13.2550
 1.5640	13.2980
 1.5650	13.3440
 1.5660	13.3880
 1.5670	13.4310
 1.5680	13.4770
 1.5690	13.5210
 1.5700	13.5650
 1.5710	13.6120
 1.5720	13.6540
 1.5730	13.6940
 1.5740	13.7380
 1.5750	13.7830
 1.5760	13.8290
 1.5770	13.8750
 1.5780	13.9200
 1.5790	13.9640
 1.5800	14.0100
 1.5810	14.0580
 1.5820	14.1020
 1.5830	14.1430
 1.5840	14.1850
 1.5850	14.2260
 1.5860	14.2700
 1.5870	14.3170
 1.5880	14.3650
 1.5890	14.4100
 1.5900	14.4560
 1.5910	14.5000
 1.5920	14.5400
 1.5930	14.5810
 1.5940	14.6240
 1.5950	14.6660
 1.5960	14.7090
 1.5970	14.7540
 1.5980	14.7950
 1.5990	14.8380
 1.6000	14.8840
 1.6010	14.9270
 1.6020	14.9700
 1.6030	15.0140
 1.6040	15.0550
 1.6050	15.0960
 1.6060	15.1380
 1.6070	15.1820
 1.6080	15.2230
 1.6090	15.2610
 1.6100	15.3000
 1.6110	15.3350
 1.6120	15.3720
 1.6130	15.4120
 1.6140	15.4510
 1.6150	15.4880
 1.6160	15.5240
 1.6170	15.5600
 1.6180	15.5940
 1.6190	15.6290
 1.6200	15.6650
 1.6210	15.7010
 1.6220	15.7360
 1.6230	15.7700
 1.6240	15.7990
 1.6250	15.8260
 1.6260	15.8560
 1.6270	15.8860
 1.6280	15.9170
 1.6290	15.9460
 1.6300	15.9720
 1.6310	15.9980
 1.6320	16.0230
 1.6330	16.0480
 1.6340	16.0720
 1.6350	16.0950
 1.6360	16.1180
 1.6370	16.1390
 1.6380	16.1590
 1.6390	16.1790
 1.6400	16.2000
 1.6410	16.2160
 1.6420	16.2320
 1.6430	16.2420
 1.6440	16.2460
 1.6450	16.2530
 1.6460	16.2560
 1.6470	16.2600
 1.6480	16.2620
 1.6490	16.2600
 1.6500	16.2570
 1.6510	16.2490
 1.6520	16.2390
 1.6530	16.2280
 1.6540	16.2160
 1.6550	16.2010
 1.6560	16.1860
 1.6570	16.1710
 1.6580	16.1520
 1.6590	16.1330
 1.6600	16.1150
 1.6610	16.0930
 1.6620	16.0710
 1.6630	16.0540
 1.6640	16.0370
 1.6650	16.0210
 1.6660	16.0110
 1.6670	15.9990
 1.6680	15.9850
 1.6690	15.9740
 1.6700	15.9580
 1.6710	15.9420
 1.6720	15.9270
 1.6730	15.9120
 1.6740	15.8940
 1.6750	15.8740
 1.6760	15.8530
 1.6770	15.8300
 1.6780	15.8050
 1.6790	15.7810
 1.6800	15.7560
 1.6810	15.7260
 1.6820	15.6940
 1.6830	15.6590
 1.6840	15.6190
 1.6850	15.5800
 1.6860	15.5390
 1.6870	15.4960
 1.6880	15.4520
 1.6890	15.4020
 1.6900	15.3520
 1.6910	15.2980
 1.6920	15.2460
 1.6930	15.1950
 1.6940	15.1450
 1.6950	15.0960
 1.6960	15.0450
 1.6970	14.9920
 1.6980	14.9400
 1.6990	14.8850
 1.7000	14.8350
 1.7010	14.7900
 1.7020	14.7400
 1.7030	14.6910
 1.7040	14.6400
 1.7050	14.5830
 1.7060	14.5280
 1.7070	14.4720
 1.7080	14.4170
 1.7090	14.3630
 1.7100	14.3110
 1.7110	14.2600
 1.7120	14.2130
 1.7130	14.1690
 1.7140	14.1310
 1.7150	14.0980
 1.7160	14.0640
 1.7170	14.0340
 1.7180	14.0100
 1.7190	13.9830
 1.7200	13.9580
 1.7210	13.9360
 1.7220	13.9130
 1.7230	13.8960
 1.7240	13.8840
 1.7250	13.8750
 1.7260	13.8690
 1.7270	13.8600
 1.7280	13.8550
 1.7290	13.8510
 1.7300	13.8500
 1.7310	13.8490
 1.7320	13.8490
 1.7330	13.8470
 1.7340	13.8480
 1.7350	13.8430
 1.7360	13.8360
 1.7370	13.8270
 1.7380	13.8140
 1.7390	13.7960
 1.7400	13.7730
 1.7410	13.7490
 1.7420	13.7220
 1.7430	13.6920
 1.7440	13.6590
 1.7450	13.6270
 1.7460	13.5910
 1.7470	13.5580
 1.7480	13.5270
 1.7490	13.4940
 1.7500	13.4570
 1.7510	13.4270
 1.7520	13.3990
 1.7530	13.3730
 1.7540	13.3500
 1.7550	13.3260
 1.7560	13.3000
 1.7570	13.2750
 1.7580	13.2550
 1.7590	13.2380
 1.7600	13.2230
 1.7610	13.2130
 1.7620	13.2020
 1.7630	13.1920
 1.7640	13.1820
 1.7650	13.1670
 1.7660	13.1570
 1.7670	13.1520
 1.7680	13.1430
 1.7690	13.1350
 1.7700	13.1260
 1.7710	13.1110
 1.7720	13.1030
 1.7730	13.0990
 1.7740	13.0930
 1.7750	13.0910
 1.7760	13.0830
 1.7770	13.0700
 1.7780	13.0620
 1.7790	13.0540
 1.7800	13.0490
 1.7810	13.0490
 1.7820	13.0520
 1.7830	13.0580
 1.7840	13.0620
 1.7850	13.0700
 1.7860	13.0730
 1.7870	13.0720
 1.7880	13.0760
 1.7890	13.0820
 1.7900	13.0940
 1.7910	13.1010
 1.7920	13.1050
 1.7930	13.1120
 1.7940	13.1200
 1.7950	13.1270
 1.7960	13.1360
 1.7970	13.1450
 1.7980	13.1520
 1.7990	13.1610
 1.8000	13.1740
 1.8010	13.1850
 1.8020	13.1940
 1.8030	13.2070
 1.8040	13.2210
 1.8050	13.2350
 1.8060	13.2530
 1.8070	13.2660
 1.8080	13.2780
 1.8090	13.2890
 1.8100	13.2970
 1.8110	13.3100
 1.8120	13.3170
 1.8130	13.3240
 1.8140	13.3330
 1.8150	13.3390
 1.8160	13.3490
 1.8170	13.3590
 1.8180	13.3640
 1.8190	13.3650
 1.8200	13.3690
 1.8210	13.3740
 1.8220	13.3780
 1.8230	13.3840
 1.8240	13.3900
 1.8250	13.3950
 1.8260	13.4000
 1.8270	13.3580
 1.8280	13.3150
 1.8290	13.2730
 1.8300	13.2310
 1.8310	13.1890
 1.8320	13.1470
 1.8330	13.1050
 1.8340	13.0620
 1.8350	13.0620
 1.8360	13.0490
 1.8370	13.0320
 1.8380	13.0040
 1.8390	12.9760
 1.8400	12.9390
 1.8410	12.9080
 1.8420	12.8750
 1.8430	12.8530
 1.8440	12.8320
 1.8450	12.7970
 1.8460	12.7490
 1.8470	12.6940
 1.8480	12.6350
 1.8490	12.5750
 1.8500	12.5120
 1.8510	12.4540
 1.8520	12.3830
 1.8530	12.2980
 1.8540	12.2070
 1.8550	12.1010
 1.8560	11.9950
 1.8570	11.8930
 1.8580	11.7710
 1.8590	11.6440
 1.8600	11.5120
 1.8610	11.3770
 1.8620	11.2260
 1.8630	11.0700
 1.8640	10.9120
 1.8650	10.7410
 1.8660	10.5590
 1.8670	10.3700
 1.8680	10.1770
 1.8690	 9.9780
 1.8700	 9.7670
 1.8710	 9.5460
 1.8720	 9.3250
 1.8730	 9.0940
 1.8740	 8.8490
 1.8750	 8.6050
 1.8760	 8.3580
 1.8770	 8.1100
 1.8780	 7.8660
 1.8790	 7.6220
 1.8800	 7.3780
 1.8810	 7.1330
 1.8820	 6.8850
 1.8830	 6.6400
 1.8840	 6.4000
 1.8850	 6.1640
 1.8860	 5.9410
 1.8870	 5.7250
 1.8880	 5.5100
 1.8890	 5.3020
 1.8900	 5.0950
 1.8910	 4.8990
 1.8920	 4.7050
 1.8930	 4.5270
 1.8940	 4.3570
 1.8950	 4.2050
 1.8960	 4.0620
 1.8970	 3.9210
 1.8980	 3.7970
 1.8990	 3.6800
 1.9000	 3.5720
 1.9010	 3.4740
 1.9020	 3.3820
 1.9030	 3.2960
 1.9040	 3.2220
 1.9050	 3.1530
 1.9060	 3.0890
 1.9070	 3.0300
 1.9080	 2.9690
 1.9090	 2.9190
 1.9100	 2.8750
 1.9110	 2.8350
 1.9120	 2.8050
 1.9130	 2.7760
 1.9140	 2.7470
 1.9150	 2.7230
 1.9160	 2.7060
 1.9170	 2.6910
 1.9180	 2.6750
 1.9190	 2.6590
 1.9200	 2.6440
 1.9210	 2.6280
 1.9220	 2.6150
 1.9230	 2.6040
 1.9240	 2.5970
 1.9250	 2.5890
 1.9260	 2.5870
 1.9270	 2.5930
 1.9280	 2.5960
 1.9290	 2.5970
 1.9300	 2.5980
 1.9310	 2.5930
 1.9320	 2.5920
 1.9330	 2.5930
 1.9340	 2.5960
 1.9350	 2.6020
 1.9360	 2.6090
 1.9370	 2.6210
 1.9380	 2.6370
 1.9390	 2.6600
 1.9400	 2.6750
 1.9410	 2.6860
 1.9420	 2.6980
 1.9430	 2.7070
 1.9440	 2.7190
 1.9450	 2.7330
 1.9460	 2.7510
 1.9470	 2.7740
 1.9480	 2.7890
 1.9490	 2.8030
 1.9500	 2.8200
 1.9510	 2.8320
 1.9520	 2.8460
 1.9530	 2.8650
 1.9540	 2.8820
 1.9550	 2.8990
 1.9560	 2.9090
 1.9570	 2.9300
 1.9580	 2.9570
 1.9590	 2.9810
 1.9600	 3.0090
 1.9610	 3.0310
 1.9620	 3.0470
 1.9630	 3.0650
 1.9640	 3.0830
 1.9650	 3.1010
 1.9660	 3.1270
 1.9670	 3.1480
 1.9680	 3.1720
 1.9690	 3.2000
 1.9700	 3.2250
 1.9710	 3.2510
 1.9720	 3.2770
 1.9730	 3.3050
 1.9740	 3.3300
 1.9750	 3.3570
 1.9760	 3.3800
 1.9770	 3.4050
 1.9780	 3.4320
 1.9790	 3.4590
 1.9800	 3.4890
 1.9810	 3.5180
 1.9820	 3.5480
 1.9830	 3.5770
 1.9840	 3.6070
 1.9850	 3.6340
 1.9860	 3.6550
 1.9870	 3.6880
 1.9880	 3.7190
 1.9890	 3.7510
 1.9900	 3.7890
 1.9910	 3.8200
 1.9920	 3.8500
 1.9930	 3.8800
 1.9940	 3.9080
 1.9950	 3.9310
 1.9960	 3.9570
 1.9970	 3.9780
 1.9980	 4.0040
 1.9990	 4.0310
 2.0000	 4.0610
 2.0010	 4.0960
 2.0020	 4.1330
 2.0030	 4.1680
 2.0040	 4.2030
 2.0050	 4.2340
 2.0060	 4.2590
 2.0070	 4.2890
 2.0080	 4.3190
 2.0090	 4.3470
 2.0100	 4.3760
 2.0110	 4.4030
 2.0120	 4.4270
 2.0130	 4.4520
 2.0140	 4.4810
 2.0150	 4.5120
 2.0160	 4.5410
 2.0170	 4.5660
 2.0180	 4.5920
 2.0190	 4.6140
 2.0200	 4.6370
 2.0210	 4.6580
 2.0220	 4.6820
 2.0230	 4.7070
 2.0240	 4.7300
 2.0250	 4.7560
 2.0260	 4.7790
 2.0270	 4.7990
 2.0280	 4.8170
 2.0290	 4.8320
 2.0300	 4.8430
 2.0310	 4.8600
 2.0320	 4.8760
 2.0330	 4.8940
 2.0340	 4.9200
 2.0350	 4.9350
 2.0360	 4.9410
 2.0370	 4.9540
 2.0380	 4.9670
 2.0390	 4.9800
 2.0400	 4.9940
 2.0410	 5.0090
 2.0420	 5.0200
 2.0430	 5.0310
 2.0440	 5.0470
 2.0450	 5.0690
 2.0460	 5.0850
 2.0470	 5.1010
 2.0480	 5.1160
 2.0490	 5.1270
 2.0500	 5.1400
 2.0510	 5.1540
 2.0520	 5.1690
 2.0530	 5.1890
 2.0540	 5.2040
 2.0550	 5.2170
 2.0560	 5.2340
 2.0570	 5.2470
 2.0580	 5.2530
 2.0590	 5.2640
 2.0600	 5.2760
 2.0610	 5.2880
 2.0620	 5.3020
 2.0630	 5.3130
 2.0640	 5.3250
 2.0650	 5.3340
 2.0660	 5.3380
 2.0670	 5.3500
 2.0680	 5.3700
 2.0690	 5.3810
 2.0700	 5.3910
 2.0710	 5.4010
 2.0720	 5.4050
 2.0730	 5.4030
 2.0740	 5.4140
 2.0750	 5.4360
 2.0760	 5.4520
 2.0770	 5.4730
 2.0780	 5.4890
 2.0790	 5.5010
 2.0800	 5.5160
 2.0810	 5.5340
 2.0820	 5.5490
 2.0830	 5.5610
 2.0840	 5.5730
 2.0850	 5.5790
 2.0860	 5.5910
 2.0870	 5.6090
 2.0880	 5.6200
 2.0890	 5.6300
 2.0900	 5.6410
 2.0910	 5.6500
 2.0920	 5.6540
 2.0930	 5.6630
 2.0940	 5.6770
 2.0950	 5.6880
 2.0960	 5.6970
 2.0970	 5.7100
 2.0980	 5.7220
 2.0990	 5.7370
 2.1000	 5.7560
 2.1010	 5.7720
 2.1020	 5.7920
 2.1030	 5.8080
 2.1040	 5.8200
 2.1050	 5.8350
 2.1060	 5.8490
 2.1070	 5.8620
 2.1080	 5.8780
 2.1090	 5.9000
 2.1100	 5.9150
 2.1110	 5.9320
 2.1120	 5.9440
 2.1130	 5.9480
 2.1140	 5.9580
 2.1150	 5.9710
 2.1160	 5.9810
 2.1170	 5.9950
 2.1180	 6.0060
 2.1190	 6.0100
 2.1200	 6.0190
 2.1210	 6.0340
 2.1220	 6.0440
 2.1230	 6.0550
 2.1240	 6.0690
 2.1250	 6.0740
 2.1260	 6.0700
 2.1270	 6.0760
 2.1280	 6.0800
 2.1290	 6.0890
 2.1300	 6.1090
 2.1310	 6.1190
 2.1320	 6.1220
 2.1330	 6.1330
 2.1340	 6.1450
 2.1350	 6.1590
 2.1360	 6.1790
 2.1370	 6.1970
 2.1380	 6.2140
 2.1390	 6.2290
 2.1400	 6.2440
 2.1410	 6.2590
 2.1420	 6.2680
 2.1430	 6.2690
 2.1440	 6.2770
 2.1450	 6.2780
 2.1460	 6.2910
 2.1470	 6.3120
 2.1480	 6.3300
 2.1490	 6.3540
 2.1500	 6.3730
 2.1510	 6.3890
 2.1520	 6.4030
 2.1530	 6.4100
 2.1540	 6.4250
 2.1550	 6.4450
 2.1560	 6.4630
 2.1570	 6.4860
 2.1580	 6.5050
 2.1590	 6.5220
 2.1600	 6.5320
 2.1610	 6.5520
 2.1620	 6.5670
 2.1630	 6.5850
 2.1640	 6.6020
 2.1650	 6.6220
 2.1660	 6.6440
 2.1670	 6.6640
 2.1680	 6.6840
 2.1690	 6.7040
 2.1700	 6.7290
 2.1710	 6.7360
 2.1720	 6.7280
 2.1730	 6.7350
 2.1740	 6.7300
 2.1750	 6.7420
 2.1760	 6.7850
 2.1770	 6.8090
 2.1780	 6.8270
 2.1790	 6.8470
 2.1800	 6.8570
 2.1810	 6.8710
 2.1820	 6.8910
 2.1830	 6.9080
 2.1840	 6.9250
 2.1850	 6.9430
 2.1860	 6.9600
 2.1870	 6.9800
 2.1880	 6.9930
 2.1890	 7.0030
 2.1900	 7.0130
 2.1910	 7.0140
 2.1920	 7.0290
 2.1930	 7.0550
 2.1940	 7.0700
 2.1950	 7.0880
 2.1960	 7.1020
 2.1970	 7.1040
 2.1980	 7.1160
 2.1990	 7.1350
 2.2000	 7.1500
 2.2010	 7.1690
 2.2020	 7.1830
 2.2030	 7.1940
 2.2040	 7.2050
 2.2050	 7.2120
 2.2060	 7.2210
 2.2070	 7.2310
 2.2080	 7.2390
 2.2090	 7.2480
 2.2100	 7.2610
 2.2110	 7.2670
 2.2120	 7.2710
 2.2130	 7.2770
 2.2140	 7.2790
 2.2150	 7.2890
 2.2160	 7.3090
 2.2170	 7.3170
 2.2180	 7.3240
 2.2190	 7.3260
 2.2200	 7.3140
 2.2210	 7.3110
 2.2220	 7.3150
 2.2230	 7.3120
 2.2240	 7.3080
 2.2250	 7.3000
 2.2260	 7.2860
 2.2270	 7.2720
 2.2280	 7.2560
 2.2290	 7.2380
 2.2300	 7.2110
 2.2310	 7.1940
 2.2320	 7.1800
 2.2330	 7.1610
 2.2340	 7.1480
 2.2350	 7.1450
 2.2360	 7.1240
 2.2370	 7.0970
 2.2380	 7.0660
 2.2390	 7.0230
 2.2400	 6.9830
 2.2410	 6.9410
 2.2420	 6.8990
 2.2430	 6.8530
 2.2440	 6.8100
 2.2450	 6.7690
 2.2460	 6.7260
 2.2470	 6.6850
 2.2480	 6.6410
 2.2490	 6.5940
 2.2500	 6.5470
 2.2510	 6.4950
 2.2520	 6.4520
 2.2530	 6.4200
 2.2540	 6.3790
 2.2550	 6.3410
 2.2560	 6.2960
 2.2570	 6.2400
 2.2580	 6.1880
 2.2590	 6.1320
 2.2600	 6.0830
 2.2610	 6.0370
 2.2620	 5.9940
 2.2630	 5.9520
 2.2640	 5.9150
 2.2650	 5.8770
 2.2660	 5.8430
 2.2670	 5.8090
 2.2680	 5.7810
 2.2690	 5.7480
 2.2700	 5.7140
 2.2710	 5.6830
 2.2720	 5.6530
 2.2730	 5.6270
 2.2740	 5.6060
 2.2750	 5.5750
 2.2760	 5.5360
 2.2770	 5.5090
 2.2780	 5.4870
 2.2790	 5.4560
 2.2800	 5.4250
 2.2810	 5.4020
 2.2820	 5.3730
 2.2830	 5.3490
 2.2840	 5.3440
 2.2850	 5.3230
 2.2860	 5.2880
 2.2870	 5.2580
 2.2880	 5.2270
 2.2890	 5.1970
 2.2900	 5.1640
 2.2910	 5.1350
 2.2920	 5.1070
 2.2930	 5.0790
 2.2940	 5.0570
 2.2950	 5.0290
 2.2960	 4.9910
 2.2970	 4.9610
 2.2980	 4.9350
 2.2990	 4.9020
 2.3000	 4.8870
 2.3010	 4.8690
 2.3020	 4.8510
 2.3030	 4.8360
 2.3040	 4.8210
 2.3050	 4.8120
 2.3060	 4.8020
 2.3070	 4.7980
 2.3080	 4.7830
 2.3090	 4.7700
 2.3100	 4.7600
 2.3110	 4.7490
 2.3120	 4.7490
 2.3130	 4.7620
 2.3140	 4.7660
 2.3150	 4.7680
 2.3160	 4.7780
 2.3170	 4.7910
 2.3180	 4.8010
 2.3190	 4.8280
 2.3200	 4.8300
 2.3210	 4.8130
 2.3220	 4.8060
 2.3230	 4.7890
 2.3240	 4.7790
 2.3250	 4.7810
 2.3260	 4.7640
 2.3270	 4.7340
 2.3280	 4.7160
 2.3290	 4.6930
 2.3300	 4.6810
 2.3310	 4.6880
 2.3320	 4.6780
 2.3330	 4.6570
 2.3340	 4.6430
 2.3350	 4.6240
 2.3360	 4.6140
 2.3370	 4.6200
 2.3380	 4.6090
 2.3390	 4.5910
 2.3400	 4.5770
 2.3410	 4.5520
 2.3420	 4.5340
 2.3430	 4.5350
 2.3440	 4.5090
 2.3450	 4.4600
 2.3460	 4.4270
 2.3470	 4.3690
 2.3480	 4.3480
 2.3490	 4.3700
 2.3500	 4.3730
 2.3510	 4.3930
 2.3520	 4.3980
 2.3530	 4.3830
 2.3540	 4.3740
 2.3550	 4.3730
 2.3560	 4.3680
 2.3570	 4.3810
 2.3580	 4.3950
 2.3590	 4.3790
 2.3600	 4.3690
 2.3610	 4.3520
 2.3620	 4.3110
 2.3630	 4.2950
 2.3640	 4.2840
 2.3650	 4.2630
 2.3660	 4.2620
 2.3670	 4.2590
 2.3680	 4.2600
 2.3690	 4.2750
 2.3700	 4.2700
 2.3710	 4.2630
 2.3720	 4.2540
 2.3730	 4.2400
 2.3740	 4.2370
 2.3750	 4.2350
 2.3760	 4.2360
 2.3770	 4.2270
 2.3780	 4.2080
 2.3790	 4.1800
 2.3800	 4.1670
 2.3810	 4.1700
 2.3820	 4.1520
 2.3830	 4.1480
 2.3840	 4.1410
 2.3850	 4.1050
 2.3860	 4.0850
 2.3870	 4.0520
 2.3880	 4.0190
 2.3890	 4.0070
 2.3900	 3.9930
 2.3910	 3.9940
 2.3920	 3.9880
 2.3930	 3.9530
 2.3940	 3.9410
 2.3950	 3.9640
 2.3960	 3.9670
 2.3970	 3.9710
 2.3980	 3.9660
 2.3990	 3.9040
 2.4000	 3.8640
 2.4010	 3.8500
 2.4020	 3.8290
 2.4030	 3.8460
 2.4040	 3.8600
 2.4050	 3.8560
 2.4060	 3.8580
 2.4070	 3.8420
 2.4080	 3.8200
 2.4090	 3.7930
 2.4100	 3.7670
 2.4110	 3.7260
 2.4120	 3.6840
 2.4130	 3.6810
 2.4140	 3.6900
 2.4150	 3.7070
 2.4160	 3.7150
 2.4170	 3.6920
 2.4180	 3.6460
 2.4190	 3.6060
 2.4200	 3.5750
 2.4210	 3.5540
 2.4220	 3.5560
 2.4230	 3.5490
 2.4240	 3.5390
 2.4250	 3.5160
 2.4260	 3.4600
 2.4270	 3.4270
 2.4280	 3.4220
 2.4290	 3.4140
 2.4300	 3.4030
 2.4310	 3.4190
 2.4320	 3.4170
 2.4330	 3.4100
 2.4340	 3.4230
 2.4350	 3.3820
 2.4360	 3.3310
 2.4370	 3.2800
 2.4380	 3.2510
 2.4390	 3.2160
 2.4400	 3.1420
 2.4410	 3.1060
 2.4420	 3.0720
 2.4430	 3.0640
 2.4440	 3.0770
 2.4450	 3.0370
 2.4460	 3.0150
 2.4470	 3.0420
 2.4480	 3.0730
 2.4490	 3.0990
 2.4500	 3.0660
 2.4510	 2.9790
 2.4520	 2.9220
 2.4530	 2.9470
 2.4540	 2.9930
 2.4550	 2.9810
 2.4560	 2.9850
 2.4570	 2.9350
 2.4580	 2.8520
 2.4590	 2.8480
 2.4600	 2.8030
 2.4610	 2.7980
 2.4620	 2.8560
 2.4630	 2.8860
 2.4640	 2.9260
 2.4650	 2.9120
 2.4660	 2.9190
 2.4670	 2.9470
 2.4680	 2.9290
 2.4690	 2.8740
 2.4700	 2.8250
 2.4710	 2.7380
 2.4720	 2.7130
 2.4730	 2.7530
 2.4740	 2.7580
 2.4750	 2.7720
 2.4760	 2.7930
 2.4770	 2.7950
 2.4780	 2.7680
 2.4790	 2.7580
 2.4800	 2.7120
 2.4810	 2.5700
 2.4820	 2.6180
 2.4830	 2.6410
 2.4840	 2.7010
 2.4850	 2.8300
 2.4860	 2.7840
 2.4870	 2.7680
 2.4880	 2.8550
 2.4890	 2.8240
 2.4900	 2.9020
 2.4910	 2.9670
 2.4920	 2.8940
 2.4930	 2.8300
 2.4940	 2.7170
 2.4950	 2.6600
 2.4960	 2.5110
 2.4970	 2.4350
 2.4980	 2.5220
 2.4990	 2.5130
 2.5000	 2.6580
