Name: Ceanothus megacarpus 1
Type: vegetation
Class: Shrub
Genus: Ceanothus
Species: megacarpus
Sample No.: VH212
Owner: UCSB
Wavelength Range: VSWIR
Origin: 34.4908; -119.7914; WGS84
Collection Date: 10/13/2013
Description: Samples were collected as part of the HyspIRI Airborne Campaign. 48 individual plants were sampled in three times in 2013 - spring  summer  and fall. The name of the sample includes a 1  2  or 3 which references a different individual of the species. Samples were taken to JPL and processed within 48 hours of collection. The same leaves were processed in the Nicolet and then measured using the ASD.
Measurement: Bidirectional reflectance
First Column: X
Second Column: Y
X Units: Wavelength (micrometers)
Y Units: Reflectance (percentage)
First X Value: 0.35
Last X Value: 2.5
Number of X Values: 2151
Additional Information: vegetation.shrub.ceanothus.megacarpus.vswir.vh212.ucsb.asd.ancillary.txt

 0.3500	 6.1610
 0.3510	 6.2420
 0.3520	 6.0350
 0.3530	 5.7770
 0.3540	 5.7180
 0.3550	 5.7380
 0.3560	 5.7010
 0.3570	 5.6900
 0.3580	 5.8470
 0.3590	 5.8230
 0.3600	 5.7530
 0.3610	 5.7090
 0.3620	 5.6020
 0.3630	 5.5530
 0.3640	 5.5890
 0.3650	 5.6700
 0.3660	 5.6250
 0.3670	 5.5530
 0.3680	 5.4810
 0.3690	 5.4030
 0.3700	 5.4920
 0.3710	 5.5720
 0.3720	 5.5430
 0.3730	 5.5230
 0.3740	 5.5810
 0.3750	 5.5950
 0.3760	 5.4600
 0.3770	 5.4420
 0.3780	 5.5090
 0.3790	 5.5960
 0.3800	 5.6260
 0.3810	 5.5590
 0.3820	 5.5370
 0.3830	 5.5970
 0.3840	 5.4720
 0.3850	 5.3640
 0.3860	 5.3560
 0.3870	 5.4550
 0.3880	 5.5380
 0.3890	 5.5410
 0.3900	 5.4770
 0.3910	 5.4370
 0.3920	 5.3840
 0.3930	 5.3820
 0.3940	 5.4500
 0.3950	 5.4400
 0.3960	 5.4520
 0.3970	 5.4390
 0.3980	 5.3300
 0.3990	 5.3620
 0.4000	 5.4270
 0.4010	 5.4390
 0.4020	 5.3780
 0.4030	 5.3680
 0.4040	 5.3880
 0.4050	 5.3960
 0.4060	 5.4380
 0.4070	 5.4060
 0.4080	 5.3550
 0.4090	 5.4280
 0.4100	 5.4350
 0.4110	 5.4170
 0.4120	 5.4090
 0.4130	 5.3820
 0.4140	 5.3450
 0.4150	 5.3580
 0.4160	 5.4510
 0.4170	 5.4410
 0.4180	 5.4190
 0.4190	 5.4270
 0.4200	 5.4500
 0.4210	 5.4700
 0.4220	 5.4790
 0.4230	 5.4810
 0.4240	 5.5010
 0.4250	 5.5230
 0.4260	 5.5470
 0.4270	 5.5790
 0.4280	 5.5970
 0.4290	 5.6120
 0.4300	 5.6320
 0.4310	 5.6610
 0.4320	 5.6860
 0.4330	 5.7200
 0.4340	 5.7660
 0.4350	 5.7640
 0.4360	 5.7760
 0.4370	 5.8050
 0.4380	 5.8100
 0.4390	 5.8060
 0.4400	 5.8180
 0.4410	 5.8510
 0.4420	 5.8770
 0.4430	 5.8900
 0.4440	 5.8960
 0.4450	 5.9100
 0.4460	 5.9340
 0.4470	 5.9540
 0.4480	 5.9600
 0.4490	 5.9410
 0.4500	 5.9470
 0.4510	 5.9680
 0.4520	 5.9840
 0.4530	 6.0040
 0.4540	 6.0190
 0.4550	 6.0300
 0.4560	 6.0470
 0.4570	 6.0630
 0.4580	 6.0580
 0.4590	 6.0370
 0.4600	 6.0410
 0.4610	 6.0680
 0.4620	 6.0860
 0.4630	 6.0750
 0.4640	 6.0930
 0.4650	 6.1060
 0.4660	 6.1000
 0.4670	 6.0910
 0.4680	 6.1050
 0.4690	 6.1190
 0.4700	 6.1160
 0.4710	 6.1350
 0.4720	 6.1460
 0.4730	 6.1470
 0.4740	 6.1470
 0.4750	 6.1360
 0.4760	 6.1320
 0.4770	 6.1430
 0.4780	 6.1590
 0.4790	 6.1650
 0.4800	 6.1590
 0.4810	 6.1490
 0.4820	 6.1570
 0.4830	 6.1690
 0.4840	 6.1750
 0.4850	 6.1700
 0.4860	 6.1740
 0.4870	 6.1810
 0.4880	 6.1830
 0.4890	 6.1820
 0.4900	 6.2030
 0.4910	 6.2300
 0.4920	 6.2320
 0.4930	 6.2580
 0.4940	 6.2870
 0.4950	 6.3080
 0.4960	 6.3320
 0.4970	 6.3600
 0.4980	 6.3910
 0.4990	 6.4240
 0.5000	 6.4520
 0.5010	 6.4810
 0.5020	 6.5170
 0.5030	 6.5680
 0.5040	 6.6200
 0.5050	 6.6790
 0.5060	 6.7460
 0.5070	 6.8130
 0.5080	 6.8840
 0.5090	 6.9660
 0.5100	 7.0630
 0.5110	 7.1590
 0.5120	 7.2690
 0.5130	 7.3920
 0.5140	 7.5080
 0.5150	 7.6500
 0.5160	 7.8040
 0.5170	 7.9560
 0.5180	 8.1200
 0.5190	 8.2950
 0.5200	 8.4810
 0.5210	 8.6720
 0.5220	 8.8630
 0.5230	 9.0660
 0.5240	 9.2830
 0.5250	 9.4800
 0.5260	 9.6770
 0.5270	 9.8780
 0.5280	10.0770
 0.5290	10.2700
 0.5300	10.4600
 0.5310	10.6450
 0.5320	10.8130
 0.5330	10.9760
 0.5340	11.1350
 0.5350	11.2870
 0.5360	11.4320
 0.5370	11.5690
 0.5380	11.6960
 0.5390	11.8130
 0.5400	11.9240
 0.5410	12.0350
 0.5420	12.1460
 0.5430	12.2360
 0.5440	12.3310
 0.5450	12.4300
 0.5460	12.5180
 0.5470	12.6010
 0.5480	12.6760
 0.5490	12.7440
 0.5500	12.8130
 0.5510	12.8670
 0.5520	12.9160
 0.5530	12.9670
 0.5540	12.9990
 0.5550	13.0170
 0.5560	13.0250
 0.5570	13.0270
 0.5580	13.0150
 0.5590	12.9860
 0.5600	12.9420
 0.5610	12.8860
 0.5620	12.8120
 0.5630	12.7230
 0.5640	12.6290
 0.5650	12.5330
 0.5660	12.4330
 0.5670	12.3300
 0.5680	12.2240
 0.5690	12.1270
 0.5700	12.0310
 0.5710	11.9250
 0.5720	11.8130
 0.5730	11.7050
 0.5740	11.6060
 0.5750	11.5140
 0.5760	11.4180
 0.5770	11.3280
 0.5780	11.2470
 0.5790	11.1510
 0.5800	11.0660
 0.5810	10.9920
 0.5820	10.9190
 0.5830	10.8670
 0.5840	10.8300
 0.5850	10.7960
 0.5860	10.7580
 0.5870	10.7160
 0.5880	10.6700
 0.5890	10.6210
 0.5900	10.5770
 0.5910	10.5390
 0.5920	10.5040
 0.5930	10.4660
 0.5940	10.4320
 0.5950	10.4040
 0.5960	10.3830
 0.5970	10.3620
 0.5980	10.3480
 0.5990	10.3290
 0.6000	10.2970
 0.6010	10.2670
 0.6020	10.2360
 0.6030	10.2000
 0.6040	10.1570
 0.6050	10.1100
 0.6060	10.0620
 0.6070	10.0120
 0.6080	 9.9550
 0.6090	 9.8910
 0.6100	 9.8270
 0.6110	 9.7690
 0.6120	 9.7100
 0.6130	 9.6530
 0.6140	 9.5980
 0.6150	 9.5380
 0.6160	 9.4800
 0.6170	 9.4280
 0.6180	 9.3820
 0.6190	 9.3400
 0.6200	 9.2990
 0.6210	 9.2610
 0.6220	 9.2390
 0.6230	 9.2180
 0.6240	 9.1990
 0.6250	 9.1850
 0.6260	 9.1720
 0.6270	 9.1630
 0.6280	 9.1590
 0.6290	 9.1590
 0.6300	 9.1550
 0.6310	 9.1500
 0.6320	 9.1430
 0.6330	 9.1260
 0.6340	 9.1020
 0.6350	 9.0670
 0.6360	 9.0160
 0.6370	 8.9560
 0.6380	 8.8850
 0.6390	 8.8000
 0.6400	 8.7000
 0.6410	 8.5950
 0.6420	 8.4920
 0.6430	 8.3870
 0.6440	 8.2750
 0.6450	 8.1700
 0.6460	 8.0750
 0.6470	 7.9850
 0.6480	 7.9050
 0.6490	 7.8360
 0.6500	 7.7750
 0.6510	 7.7180
 0.6520	 7.6830
 0.6530	 7.6510
 0.6540	 7.6100
 0.6550	 7.5760
 0.6560	 7.5370
 0.6570	 7.4920
 0.6580	 7.4450
 0.6590	 7.3890
 0.6600	 7.3310
 0.6610	 7.2730
 0.6620	 7.2100
 0.6630	 7.1460
 0.6640	 7.0890
 0.6650	 7.0420
 0.6660	 6.9930
 0.6670	 6.9510
 0.6680	 6.9210
 0.6690	 6.8970
 0.6700	 6.8750
 0.6710	 6.8630
 0.6720	 6.8610
 0.6730	 6.8580
 0.6740	 6.8620
 0.6750	 6.8730
 0.6760	 6.8890
 0.6770	 6.9060
 0.6780	 6.9330
 0.6790	 6.9720
 0.6800	 7.0160
 0.6810	 7.0700
 0.6820	 7.1350
 0.6830	 7.2170
 0.6840	 7.3210
 0.6850	 7.4570
 0.6860	 7.6230
 0.6870	 7.8160
 0.6880	 8.0650
 0.6890	 8.3720
 0.6900	 8.7420
 0.6910	 9.1790
 0.6920	 9.6950
 0.6930	10.2950
 0.6940	10.9800
 0.6950	11.7520
 0.6960	12.6110
 0.6970	13.5480
 0.6980	14.5540
 0.6990	15.6370
 0.7000	16.7710
 0.7010	17.9440
 0.7020	19.1550
 0.7030	20.4020
 0.7040	21.6600
 0.7050	22.9060
 0.7060	24.1510
 0.7070	25.3860
 0.7080	26.6040
 0.7090	27.8000
 0.7100	28.9800
 0.7110	30.1270
 0.7120	31.2370
 0.7130	32.3180
 0.7140	33.3780
 0.7150	34.4040
 0.7160	35.3860
 0.7170	36.3290
 0.7180	37.2390
 0.7190	38.1180
 0.7200	38.9640
 0.7210	39.7740
 0.7220	40.5460
 0.7230	41.2840
 0.7240	41.9970
 0.7250	42.6640
 0.7260	43.2900
 0.7270	43.8840
 0.7280	44.4550
 0.7290	44.9870
 0.7300	45.4820
 0.7310	45.9550
 0.7320	46.4020
 0.7330	46.8180
 0.7340	47.2060
 0.7350	47.5840
 0.7360	47.9230
 0.7370	48.2380
 0.7380	48.5380
 0.7390	48.8120
 0.7400	49.0810
 0.7410	49.3390
 0.7420	49.5720
 0.7430	49.7730
 0.7440	49.9640
 0.7450	50.1510
 0.7460	50.3230
 0.7470	50.4730
 0.7480	50.6170
 0.7490	50.7580
 0.7500	50.8690
 0.7510	50.9720
 0.7520	51.0750
 0.7530	51.1760
 0.7540	51.2710
 0.7550	51.3350
 0.7560	51.3820
 0.7570	51.4550
 0.7580	51.5040
 0.7590	51.5550
 0.7600	51.6180
 0.7610	51.6520
 0.7620	51.6800
 0.7630	51.7150
 0.7640	51.7610
 0.7650	51.7860
 0.7660	51.8060
 0.7670	51.8300
 0.7680	51.8570
 0.7690	51.8670
 0.7700	51.8780
 0.7710	51.9010
 0.7720	51.9300
 0.7730	51.9450
 0.7740	51.9550
 0.7750	51.9680
 0.7760	51.9770
 0.7770	51.9830
 0.7780	51.9980
 0.7790	52.0310
 0.7800	52.0430
 0.7810	52.0560
 0.7820	52.0720
 0.7830	52.0740
 0.7840	52.0840
 0.7850	52.1020
 0.7860	52.1260
 0.7870	52.1420
 0.7880	52.1560
 0.7890	52.1640
 0.7900	52.1670
 0.7910	52.1820
 0.7920	52.2130
 0.7930	52.2430
 0.7940	52.2440
 0.7950	52.2370
 0.7960	52.2490
 0.7970	52.2760
 0.7980	52.2770
 0.7990	52.3010
 0.8000	52.3340
 0.8010	52.3570
 0.8020	52.3630
 0.8030	52.3720
 0.8040	52.3810
 0.8050	52.3890
 0.8060	52.4270
 0.8070	52.4450
 0.8080	52.4390
 0.8090	52.4520
 0.8100	52.4700
 0.8110	52.4900
 0.8120	52.5050
 0.8130	52.5010
 0.8140	52.5210
 0.8150	52.5430
 0.8160	52.5450
 0.8170	52.5550
 0.8180	52.5900
 0.8190	52.6300
 0.8200	52.6410
 0.8210	52.6380
 0.8220	52.6450
 0.8230	52.6630
 0.8240	52.6730
 0.8250	52.6930
 0.8260	52.7100
 0.8270	52.7200
 0.8280	52.7430
 0.8290	52.7560
 0.8300	52.7610
 0.8310	52.7650
 0.8320	52.7590
 0.8330	52.7660
 0.8340	52.7840
 0.8350	52.8010
 0.8360	52.8160
 0.8370	52.8290
 0.8380	52.8400
 0.8390	52.8560
 0.8400	52.8770
 0.8410	52.8920
 0.8420	52.8940
 0.8430	52.8790
 0.8440	52.8820
 0.8450	52.9100
 0.8460	52.9490
 0.8470	52.9630
 0.8480	52.9740
 0.8490	52.9800
 0.8500	52.9790
 0.8510	53.0010
 0.8520	53.0180
 0.8530	53.0250
 0.8540	53.0320
 0.8550	53.0480
 0.8560	53.0630
 0.8570	53.0710
 0.8580	53.0710
 0.8590	53.0580
 0.8600	53.0690
 0.8610	53.1050
 0.8620	53.1030
 0.8630	53.1000
 0.8640	53.1030
 0.8650	53.1120
 0.8660	53.1300
 0.8670	53.1340
 0.8680	53.1380
 0.8690	53.1550
 0.8700	53.1430
 0.8710	53.1450
 0.8720	53.1610
 0.8730	53.1640
 0.8740	53.1660
 0.8750	53.1740
 0.8760	53.1820
 0.8770	53.1750
 0.8780	53.2070
 0.8790	53.2240
 0.8800	53.2020
 0.8810	53.1910
 0.8820	53.1890
 0.8830	53.1940
 0.8840	53.1990
 0.8850	53.1990
 0.8860	53.1970
 0.8870	53.1930
 0.8880	53.1900
 0.8890	53.1930
 0.8900	53.2090
 0.8910	53.2180
 0.8920	53.2000
 0.8930	53.1880
 0.8940	53.1790
 0.8950	53.1680
 0.8960	53.1560
 0.8970	53.1710
 0.8980	53.1820
 0.8990	53.1770
 0.9000	53.1670
 0.9010	53.1460
 0.9020	53.1300
 0.9030	53.1300
 0.9040	53.1400
 0.9050	53.1310
 0.9060	53.1230
 0.9070	53.1250
 0.9080	53.1040
 0.9090	53.1040
 0.9100	53.1180
 0.9110	53.1200
 0.9120	53.0910
 0.9130	53.0830
 0.9140	53.0830
 0.9150	53.0660
 0.9160	53.0700
 0.9170	53.0630
 0.9180	53.0550
 0.9190	53.0630
 0.9200	53.0690
 0.9210	53.0620
 0.9220	53.0400
 0.9230	53.0110
 0.9240	53.0070
 0.9250	53.0050
 0.9260	53.0000
 0.9270	53.0020
 0.9280	52.9600
 0.9290	52.9250
 0.9300	52.9090
 0.9310	52.8820
 0.9320	52.8460
 0.9330	52.8310
 0.9340	52.8380
 0.9350	52.8290
 0.9360	52.7920
 0.9370	52.7540
 0.9380	52.7310
 0.9390	52.7100
 0.9400	52.6650
 0.9410	52.6310
 0.9420	52.6150
 0.9430	52.5680
 0.9440	52.5310
 0.9450	52.4910
 0.9460	52.4420
 0.9470	52.4220
 0.9480	52.3810
 0.9490	52.3190
 0.9500	52.2490
 0.9510	52.1880
 0.9520	52.1050
 0.9530	52.0170
 0.9540	51.9430
 0.9550	51.8620
 0.9560	51.8080
 0.9570	51.7470
 0.9580	51.6510
 0.9590	51.6050
 0.9600	51.5380
 0.9610	51.4550
 0.9620	51.3860
 0.9630	51.3410
 0.9640	51.2720
 0.9650	51.2090
 0.9660	51.1860
 0.9670	51.1420
 0.9680	51.1100
 0.9690	51.0900
 0.9700	51.0680
 0.9710	51.0470
 0.9720	51.0280
 0.9730	51.0030
 0.9740	50.9680
 0.9750	50.9700
 0.9760	50.9570
 0.9770	50.9360
 0.9780	50.9410
 0.9790	50.9690
 0.9800	50.9690
 0.9810	50.9440
 0.9820	50.9300
 0.9830	50.9630
 0.9840	50.9680
 0.9850	50.9660
 0.9860	51.0090
 0.9870	51.0520
 0.9880	51.0720
 0.9890	51.0780
 0.9900	51.1030
 0.9910	51.1650
 0.9920	51.2240
 0.9930	51.2840
 0.9940	51.3440
 0.9950	51.4030
 0.9960	51.4630
 0.9970	51.5230
 0.9980	51.5830
 0.9990	51.6420
 1.0000	51.7020
 1.0010	51.7620
 1.0020	51.8210
 1.0030	51.8810
 1.0040	51.9410
 1.0050	52.0010
 1.0060	52.0600
 1.0070	52.1200
 1.0080	52.1800
 1.0090	52.2390
 1.0100	52.2390
 1.0110	52.2600
 1.0120	52.2890
 1.0130	52.3280
 1.0140	52.3590
 1.0150	52.3880
 1.0160	52.4200
 1.0170	52.4450
 1.0180	52.4810
 1.0190	52.5380
 1.0200	52.5860
 1.0210	52.6300
 1.0220	52.6730
 1.0230	52.7080
 1.0240	52.7260
 1.0250	52.7570
 1.0260	52.7910
 1.0270	52.8200
 1.0280	52.8560
 1.0290	52.8810
 1.0300	52.8920
 1.0310	52.9160
 1.0320	52.9420
 1.0330	52.9660
 1.0340	52.9950
 1.0350	53.0380
 1.0360	53.0690
 1.0370	53.0910
 1.0380	53.1150
 1.0390	53.1360
 1.0400	53.1540
 1.0410	53.1660
 1.0420	53.1870
 1.0430	53.2110
 1.0440	53.2320
 1.0450	53.2630
 1.0460	53.2820
 1.0470	53.2880
 1.0480	53.2980
 1.0490	53.3000
 1.0500	53.3090
 1.0510	53.3180
 1.0520	53.3380
 1.0530	53.3530
 1.0540	53.3720
 1.0550	53.3890
 1.0560	53.4060
 1.0570	53.4200
 1.0580	53.4390
 1.0590	53.4450
 1.0600	53.4370
 1.0610	53.4380
 1.0620	53.4320
 1.0630	53.4340
 1.0640	53.4420
 1.0650	53.4510
 1.0660	53.4660
 1.0670	53.4730
 1.0680	53.4770
 1.0690	53.4820
 1.0700	53.4810
 1.0710	53.4730
 1.0720	53.4710
 1.0730	53.4740
 1.0740	53.4680
 1.0750	53.4580
 1.0760	53.4510
 1.0770	53.4370
 1.0780	53.4320
 1.0790	53.4380
 1.0800	53.4370
 1.0810	53.4370
 1.0820	53.4340
 1.0830	53.4250
 1.0840	53.4180
 1.0850	53.4100
 1.0860	53.4010
 1.0870	53.3940
 1.0880	53.3900
 1.0890	53.3800
 1.0900	53.3650
 1.0910	53.3580
 1.0920	53.3550
 1.0930	53.3420
 1.0940	53.3290
 1.0950	53.3160
 1.0960	53.2920
 1.0970	53.2750
 1.0980	53.2720
 1.0990	53.2570
 1.1000	53.2370
 1.1010	53.2160
 1.1020	53.1850
 1.1030	53.1580
 1.1040	53.1430
 1.1050	53.1260
 1.1060	53.1110
 1.1070	53.1100
 1.1080	53.0910
 1.1090	53.0630
 1.1100	53.0390
 1.1110	53.0090
 1.1120	52.9820
 1.1130	52.9610
 1.1140	52.9330
 1.1150	52.9080
 1.1160	52.8710
 1.1170	52.8300
 1.1180	52.7840
 1.1190	52.7270
 1.1200	52.6700
 1.1210	52.6100
 1.1220	52.5460
 1.1230	52.4850
 1.1240	52.4190
 1.1250	52.3470
 1.1260	52.2740
 1.1270	52.1960
 1.1280	52.1140
 1.1290	52.0250
 1.1300	51.9340
 1.1310	51.8370
 1.1320	51.7320
 1.1330	51.6240
 1.1340	51.5160
 1.1350	51.3990
 1.1360	51.2750
 1.1370	51.1440
 1.1380	51.0050
 1.1390	50.8600
 1.1400	50.7100
 1.1410	50.5570
 1.1420	50.3990
 1.1430	50.2360
 1.1440	50.0700
 1.1450	49.8980
 1.1460	49.7260
 1.1470	49.5480
 1.1480	49.3770
 1.1490	49.2000
 1.1500	49.0350
 1.1510	48.8740
 1.1520	48.7210
 1.1530	48.5680
 1.1540	48.4310
 1.1550	48.3050
 1.1560	48.1870
 1.1570	48.0760
 1.1580	47.9810
 1.1590	47.8920
 1.1600	47.8060
 1.1610	47.7400
 1.1620	47.6790
 1.1630	47.6200
 1.1640	47.5730
 1.1650	47.5300
 1.1660	47.4930
 1.1670	47.4610
 1.1680	47.4390
 1.1690	47.4160
 1.1700	47.3990
 1.1710	47.3780
 1.1720	47.3540
 1.1730	47.3380
 1.1740	47.3240
 1.1750	47.3100
 1.1760	47.3040
 1.1770	47.2970
 1.1780	47.2790
 1.1790	47.2590
 1.1800	47.2360
 1.1810	47.2070
 1.1820	47.1830
 1.1830	47.1590
 1.1840	47.1310
 1.1850	47.1050
 1.1860	47.0830
 1.1870	47.0650
 1.1880	47.0510
 1.1890	47.0470
 1.1900	47.0370
 1.1910	47.0270
 1.1920	47.0180
 1.1930	47.0070
 1.1940	47.0000
 1.1950	46.9930
 1.1960	46.9870
 1.1970	46.9840
 1.1980	46.9810
 1.1990	46.9830
 1.2000	46.9900
 1.2010	46.9980
 1.2020	47.0060
 1.2030	47.0190
 1.2040	47.0360
 1.2050	47.0550
 1.2060	47.0800
 1.2070	47.1000
 1.2080	47.1200
 1.2090	47.1470
 1.2100	47.1750
 1.2110	47.2060
 1.2120	47.2450
 1.2130	47.2810
 1.2140	47.3200
 1.2150	47.3600
 1.2160	47.4000
 1.2170	47.4440
 1.2180	47.4910
 1.2190	47.5300
 1.2200	47.5690
 1.2210	47.6130
 1.2220	47.6580
 1.2230	47.7030
 1.2240	47.7470
 1.2250	47.7920
 1.2260	47.8300
 1.2270	47.8720
 1.2280	47.9170
 1.2290	47.9570
 1.2300	48.0020
 1.2310	48.0440
 1.2320	48.0770
 1.2330	48.1100
 1.2340	48.1460
 1.2350	48.1820
 1.2360	48.2170
 1.2370	48.2540
 1.2380	48.2910
 1.2390	48.3240
 1.2400	48.3490
 1.2410	48.3800
 1.2420	48.4120
 1.2430	48.4360
 1.2440	48.4620
 1.2450	48.4880
 1.2460	48.5090
 1.2470	48.5290
 1.2480	48.5490
 1.2490	48.5710
 1.2500	48.5940
 1.2510	48.6200
 1.2520	48.6480
 1.2530	48.6670
 1.2540	48.6820
 1.2550	48.6980
 1.2560	48.7060
 1.2570	48.7150
 1.2580	48.7290
 1.2590	48.7410
 1.2600	48.7540
 1.2610	48.7640
 1.2620	48.7770
 1.2630	48.7840
 1.2640	48.7800
 1.2650	48.7850
 1.2660	48.7890
 1.2670	48.7830
 1.2680	48.7830
 1.2690	48.7790
 1.2700	48.7740
 1.2710	48.7740
 1.2720	48.7760
 1.2730	48.7750
 1.2740	48.7690
 1.2750	48.7610
 1.2760	48.7560
 1.2770	48.7510
 1.2780	48.7450
 1.2790	48.7330
 1.2800	48.7180
 1.2810	48.7080
 1.2820	48.6940
 1.2830	48.6780
 1.2840	48.6600
 1.2850	48.6320
 1.2860	48.6070
 1.2870	48.5780
 1.2880	48.5470
 1.2890	48.5150
 1.2900	48.4810
 1.2910	48.4350
 1.2920	48.3930
 1.2930	48.3470
 1.2940	48.2960
 1.2950	48.2530
 1.2960	48.2050
 1.2970	48.1560
 1.2980	48.1060
 1.2990	48.0430
 1.3000	47.9730
 1.3010	47.8970
 1.3020	47.8200
 1.3030	47.7430
 1.3040	47.6670
 1.3050	47.5880
 1.3060	47.5050
 1.3070	47.4200
 1.3080	47.3260
 1.3090	47.2310
 1.3100	47.1350
 1.3110	47.0300
 1.3120	46.9250
 1.3130	46.8180
 1.3140	46.7070
 1.3150	46.5930
 1.3160	46.4710
 1.3170	46.3450
 1.3180	46.2150
 1.3190	46.0810
 1.3200	45.9410
 1.3210	45.7930
 1.3220	45.6430
 1.3230	45.4880
 1.3240	45.3320
 1.3250	45.1830
 1.3260	45.0300
 1.3270	44.8680
 1.3280	44.7010
 1.3290	44.5250
 1.3300	44.3470
 1.3310	44.1730
 1.3320	43.9940
 1.3330	43.8140
 1.3340	43.6290
 1.3350	43.4380
 1.3360	43.2470
 1.3370	43.0530
 1.3380	42.8590
 1.3390	42.6670
 1.3400	42.4720
 1.3410	42.2820
 1.3420	42.0940
 1.3430	41.9040
 1.3440	41.7150
 1.3450	41.5290
 1.3460	41.3440
 1.3470	41.1620
 1.3480	40.9800
 1.3490	40.8000
 1.3500	40.6210
 1.3510	40.4410
 1.3520	40.2610
 1.3530	40.0850
 1.3540	39.9120
 1.3550	39.7360
 1.3560	39.5620
 1.3570	39.3920
 1.3580	39.2220
 1.3590	39.0470
 1.3600	38.8710
 1.3610	38.6880
 1.3620	38.5000
 1.3630	38.3150
 1.3640	38.1250
 1.3650	37.9270
 1.3660	37.7240
 1.3670	37.5040
 1.3680	37.2700
 1.3690	37.0290
 1.3700	36.7740
 1.3710	36.5080
 1.3720	36.2360
 1.3730	35.9440
 1.3740	35.6340
 1.3750	35.3090
 1.3760	34.9590
 1.3770	34.5860
 1.3780	34.1900
 1.3790	33.7750
 1.3800	33.3380
 1.3810	32.8770
 1.3820	32.3940
 1.3830	31.8890
 1.3840	31.3620
 1.3850	30.8100
 1.3860	30.2450
 1.3870	29.6580
 1.3880	29.0630
 1.3890	28.4530
 1.3900	27.8320
 1.3910	27.2110
 1.3920	26.5830
 1.3930	25.9500
 1.3940	25.3180
 1.3950	24.6790
 1.3960	24.0500
 1.3970	23.4330
 1.3980	22.8250
 1.3990	22.2390
 1.4000	21.6660
 1.4010	21.1060
 1.4020	20.5700
 1.4030	20.0480
 1.4040	19.5500
 1.4050	19.0790
 1.4060	18.6260
 1.4070	18.2020
 1.4080	17.8000
 1.4090	17.4160
 1.4100	17.0580
 1.4110	16.7190
 1.4120	16.4030
 1.4130	16.1130
 1.4140	15.8430
 1.4150	15.5970
 1.4160	15.3710
 1.4170	15.1610
 1.4180	14.9710
 1.4190	14.7980
 1.4200	14.6380
 1.4210	14.4950
 1.4220	14.3670
 1.4230	14.2490
 1.4240	14.1420
 1.4250	14.0440
 1.4260	13.9560
 1.4270	13.8770
 1.4280	13.8060
 1.4290	13.7450
 1.4300	13.6940
 1.4310	13.6470
 1.4320	13.6080
 1.4330	13.5740
 1.4340	13.5470
 1.4350	13.5240
 1.4360	13.5070
 1.4370	13.4950
 1.4380	13.4860
 1.4390	13.4800
 1.4400	13.4770
 1.4410	13.4800
 1.4420	13.4860
 1.4430	13.4950
 1.4440	13.5100
 1.4450	13.5250
 1.4460	13.5390
 1.4470	13.5580
 1.4480	13.5770
 1.4490	13.5960
 1.4500	13.6190
 1.4510	13.6430
 1.4520	13.6650
 1.4530	13.6910
 1.4540	13.7150
 1.4550	13.7380
 1.4560	13.7620
 1.4570	13.7890
 1.4580	13.8210
 1.4590	13.8550
 1.4600	13.8920
 1.4610	13.9310
 1.4620	13.9690
 1.4630	14.0110
 1.4640	14.0570
 1.4650	14.1060
 1.4660	14.1590
 1.4670	14.2190
 1.4680	14.2830
 1.4690	14.3490
 1.4700	14.4220
 1.4710	14.4980
 1.4720	14.5740
 1.4730	14.6580
 1.4740	14.7430
 1.4750	14.8290
 1.4760	14.9230
 1.4770	15.0160
 1.4780	15.1090
 1.4790	15.2070
 1.4800	15.3050
 1.4810	15.4100
 1.4820	15.5170
 1.4830	15.6240
 1.4840	15.7360
 1.4850	15.8440
 1.4860	15.9510
 1.4870	16.0610
 1.4880	16.1700
 1.4890	16.2780
 1.4900	16.3860
 1.4910	16.4940
 1.4920	16.6030
 1.4930	16.7120
 1.4940	16.8220
 1.4950	16.9340
 1.4960	17.0440
 1.4970	17.1560
 1.4980	17.2670
 1.4990	17.3790
 1.5000	17.4900
 1.5010	17.6020
 1.5020	17.7110
 1.5030	17.8160
 1.5040	17.9250
 1.5050	18.0320
 1.5060	18.1400
 1.5070	18.2530
 1.5080	18.3600
 1.5090	18.4650
 1.5100	18.5720
 1.5110	18.6750
 1.5120	18.7780
 1.5130	18.8820
 1.5140	18.9860
 1.5150	19.0910
 1.5160	19.1960
 1.5170	19.2980
 1.5180	19.3980
 1.5190	19.4980
 1.5200	19.5950
 1.5210	19.6920
 1.5220	19.7920
 1.5230	19.8900
 1.5240	19.9870
 1.5250	20.0850
 1.5260	20.1770
 1.5270	20.2680
 1.5280	20.3620
 1.5290	20.4520
 1.5300	20.5430
 1.5310	20.6350
 1.5320	20.7230
 1.5330	20.8100
 1.5340	20.8940
 1.5350	20.9790
 1.5360	21.0650
 1.5370	21.1480
 1.5380	21.2330
 1.5390	21.3140
 1.5400	21.3900
 1.5410	21.4680
 1.5420	21.5460
 1.5430	21.6240
 1.5440	21.7060
 1.5450	21.7840
 1.5460	21.8610
 1.5470	21.9380
 1.5480	22.0150
 1.5490	22.0940
 1.5500	22.1710
 1.5510	22.2440
 1.5520	22.3170
 1.5530	22.3860
 1.5540	22.4570
 1.5550	22.5320
 1.5560	22.6030
 1.5570	22.6710
 1.5580	22.7360
 1.5590	22.7980
 1.5600	22.8610
 1.5610	22.9250
 1.5620	22.9930
 1.5630	23.0600
 1.5640	23.1260
 1.5650	23.1960
 1.5660	23.2620
 1.5670	23.3270
 1.5680	23.3940
 1.5690	23.4590
 1.5700	23.5230
 1.5710	23.5870
 1.5720	23.6460
 1.5730	23.7030
 1.5740	23.7610
 1.5750	23.8220
 1.5760	23.8850
 1.5770	23.9480
 1.5780	24.0130
 1.5790	24.0760
 1.5800	24.1350
 1.5810	24.1960
 1.5820	24.2580
 1.5830	24.3200
 1.5840	24.3830
 1.5850	24.4460
 1.5860	24.5060
 1.5870	24.5650
 1.5880	24.6250
 1.5890	24.6870
 1.5900	24.7460
 1.5910	24.8060
 1.5920	24.8670
 1.5930	24.9270
 1.5940	24.9860
 1.5950	25.0460
 1.5960	25.1010
 1.5970	25.1530
 1.5980	25.2100
 1.5990	25.2650
 1.6000	25.3200
 1.6010	25.3760
 1.6020	25.4280
 1.6030	25.4840
 1.6040	25.5400
 1.6050	25.5960
 1.6060	25.6520
 1.6070	25.7040
 1.6080	25.7540
 1.6090	25.8040
 1.6100	25.8510
 1.6110	25.9010
 1.6120	25.9550
 1.6130	26.0060
 1.6140	26.0590
 1.6150	26.1090
 1.6160	26.1550
 1.6170	26.2030
 1.6180	26.2470
 1.6190	26.2880
 1.6200	26.3340
 1.6210	26.3770
 1.6220	26.4190
 1.6230	26.4630
 1.6240	26.5050
 1.6250	26.5430
 1.6260	26.5800
 1.6270	26.6160
 1.6280	26.6460
 1.6290	26.6750
 1.6300	26.7000
 1.6310	26.7270
 1.6320	26.7530
 1.6330	26.7770
 1.6340	26.8010
 1.6350	26.8230
 1.6360	26.8430
 1.6370	26.8610
 1.6380	26.8780
 1.6390	26.8920
 1.6400	26.9060
 1.6410	26.9130
 1.6420	26.9190
 1.6430	26.9160
 1.6440	26.9080
 1.6450	26.8950
 1.6460	26.8760
 1.6470	26.8540
 1.6480	26.8240
 1.6490	26.7900
 1.6500	26.7540
 1.6510	26.7190
 1.6520	26.6800
 1.6530	26.6380
 1.6540	26.5940
 1.6550	26.5470
 1.6560	26.5020
 1.6570	26.4570
 1.6580	26.4150
 1.6590	26.3710
 1.6600	26.3280
 1.6610	26.2890
 1.6620	26.2530
 1.6630	26.2260
 1.6640	26.2010
 1.6650	26.1830
 1.6660	26.1770
 1.6670	26.1760
 1.6680	26.1840
 1.6690	26.1960
 1.6700	26.2060
 1.6710	26.2240
 1.6720	26.2470
 1.6730	26.2750
 1.6740	26.3050
 1.6750	26.3290
 1.6760	26.3480
 1.6770	26.3630
 1.6780	26.3750
 1.6790	26.3870
 1.6800	26.3960
 1.6810	26.4050
 1.6820	26.4130
 1.6830	26.4150
 1.6840	26.4130
 1.6850	26.4070
 1.6860	26.3940
 1.6870	26.3770
 1.6880	26.3560
 1.6890	26.3330
 1.6900	26.3070
 1.6910	26.2810
 1.6920	26.2530
 1.6930	26.2220
 1.6940	26.1900
 1.6950	26.1580
 1.6960	26.1240
 1.6970	26.0880
 1.6980	26.0500
 1.6990	26.0090
 1.7000	25.9680
 1.7010	25.9260
 1.7020	25.8820
 1.7030	25.8400
 1.7040	25.7940
 1.7050	25.7450
 1.7060	25.6930
 1.7070	25.6380
 1.7080	25.5820
 1.7090	25.5220
 1.7100	25.4680
 1.7110	25.4180
 1.7120	25.3670
 1.7130	25.3110
 1.7140	25.2520
 1.7150	25.1930
 1.7160	25.1330
 1.7170	25.0760
 1.7180	25.0240
 1.7190	24.9690
 1.7200	24.9210
 1.7210	24.8760
 1.7220	24.8290
 1.7230	24.7850
 1.7240	24.7370
 1.7250	24.6920
 1.7260	24.6510
 1.7270	24.6040
 1.7280	24.5650
 1.7290	24.5270
 1.7300	24.4850
 1.7310	24.4460
 1.7320	24.4090
 1.7330	24.3740
 1.7340	24.3460
 1.7350	24.3160
 1.7360	24.2870
 1.7370	24.2580
 1.7380	24.2300
 1.7390	24.1980
 1.7400	24.1660
 1.7410	24.1310
 1.7420	24.0940
 1.7430	24.0540
 1.7440	24.0100
 1.7450	23.9710
 1.7460	23.9320
 1.7470	23.8890
 1.7480	23.8460
 1.7490	23.8020
 1.7500	23.7500
 1.7510	23.7090
 1.7520	23.6760
 1.7530	23.6360
 1.7540	23.5950
 1.7550	23.5560
 1.7560	23.5140
 1.7570	23.4760
 1.7580	23.4440
 1.7590	23.4140
 1.7600	23.3830
 1.7610	23.3460
 1.7620	23.3110
 1.7630	23.2650
 1.7640	23.2280
 1.7650	23.1990
 1.7660	23.1710
 1.7670	23.1500
 1.7680	23.1250
 1.7690	23.0990
 1.7700	23.0710
 1.7710	23.0350
 1.7720	23.0100
 1.7730	22.9880
 1.7740	22.9670
 1.7750	22.9570
 1.7760	22.9350
 1.7770	22.9090
 1.7780	22.8840
 1.7790	22.8550
 1.7800	22.8330
 1.7810	22.8170
 1.7820	22.7970
 1.7830	22.7770
 1.7840	22.7610
 1.7850	22.7440
 1.7860	22.7320
 1.7870	22.7250
 1.7880	22.7240
 1.7890	22.7250
 1.7900	22.7270
 1.7910	22.7260
 1.7920	22.7180
 1.7930	22.7130
 1.7940	22.7080
 1.7950	22.7050
 1.7960	22.7080
 1.7970	22.7080
 1.7980	22.7080
 1.7990	22.7090
 1.8000	22.7070
 1.8010	22.7080
 1.8020	22.7100
 1.8030	22.7200
 1.8040	22.7370
 1.8050	22.7500
 1.8060	22.7690
 1.8070	22.7790
 1.8080	22.7800
 1.8090	22.7850
 1.8100	22.7890
 1.8110	22.7910
 1.8120	22.7930
 1.8130	22.7920
 1.8140	22.7920
 1.8150	22.7940
 1.8160	22.7990
 1.8170	22.8100
 1.8180	22.8210
 1.8190	22.8240
 1.8200	22.8270
 1.8210	22.8160
 1.8220	22.8170
 1.8230	22.8280
 1.8240	22.8340
 1.8250	22.8490
 1.8260	22.8530
 1.8270	22.9640
 1.8280	23.0760
 1.8290	23.1870
 1.8300	23.2980
 1.8310	23.4090
 1.8320	23.5210
 1.8330	23.6320
 1.8340	23.7430
 1.8350	23.7430
 1.8360	23.7140
 1.8370	23.6940
 1.8380	23.6800
 1.8390	23.6520
 1.8400	23.6210
 1.8410	23.5830
 1.8420	23.5390
 1.8430	23.4870
 1.8440	23.4270
 1.8450	23.3610
 1.8460	23.2900
 1.8470	23.2120
 1.8480	23.1240
 1.8490	23.0250
 1.8500	22.9190
 1.8510	22.8020
 1.8520	22.6740
 1.8530	22.5490
 1.8540	22.4210
 1.8550	22.2690
 1.8560	22.1030
 1.8570	21.9210
 1.8580	21.7230
 1.8590	21.5140
 1.8600	21.2920
 1.8610	21.0660
 1.8620	20.8310
 1.8630	20.5770
 1.8640	20.3180
 1.8650	20.0420
 1.8660	19.7380
 1.8670	19.4190
 1.8680	19.0890
 1.8690	18.7440
 1.8700	18.3810
 1.8710	18.0040
 1.8720	17.6160
 1.8730	17.2130
 1.8740	16.8000
 1.8750	16.3750
 1.8760	15.9410
 1.8770	15.5110
 1.8780	15.0730
 1.8790	14.6400
 1.8800	14.2180
 1.8810	13.8080
 1.8820	13.3930
 1.8830	12.9790
 1.8840	12.5640
 1.8850	12.1520
 1.8860	11.7430
 1.8870	11.3500
 1.8880	10.9890
 1.8890	10.6360
 1.8900	10.2980
 1.8910	 9.9800
 1.8920	 9.6830
 1.8930	 9.3940
 1.8940	 9.1280
 1.8950	 8.8910
 1.8960	 8.6680
 1.8970	 8.4580
 1.8980	 8.2700
 1.8990	 8.0930
 1.9000	 7.9330
 1.9010	 7.7930
 1.9020	 7.6640
 1.9030	 7.5500
 1.9040	 7.4490
 1.9050	 7.3550
 1.9060	 7.2800
 1.9070	 7.2170
 1.9080	 7.1520
 1.9090	 7.0960
 1.9100	 7.0390
 1.9110	 6.9910
 1.9120	 6.9480
 1.9130	 6.9130
 1.9140	 6.8860
 1.9150	 6.8660
 1.9160	 6.8470
 1.9170	 6.8310
 1.9180	 6.8290
 1.9190	 6.8290
 1.9200	 6.8300
 1.9210	 6.8310
 1.9220	 6.8280
 1.9230	 6.8170
 1.9240	 6.8140
 1.9250	 6.8110
 1.9260	 6.8160
 1.9270	 6.8190
 1.9280	 6.8230
 1.9290	 6.8290
 1.9300	 6.8370
 1.9310	 6.8440
 1.9320	 6.8530
 1.9330	 6.8660
 1.9340	 6.8830
 1.9350	 6.8970
 1.9360	 6.9160
 1.9370	 6.9300
 1.9380	 6.9380
 1.9390	 6.9480
 1.9400	 6.9610
 1.9410	 6.9830
 1.9420	 7.0060
 1.9430	 7.0210
 1.9440	 7.0380
 1.9450	 7.0490
 1.9460	 7.0680
 1.9470	 7.0900
 1.9480	 7.1140
 1.9490	 7.1440
 1.9500	 7.1730
 1.9510	 7.1990
 1.9520	 7.2210
 1.9530	 7.2410
 1.9540	 7.2650
 1.9550	 7.2960
 1.9560	 7.3310
 1.9570	 7.3650
 1.9580	 7.4080
 1.9590	 7.4410
 1.9600	 7.4650
 1.9610	 7.4970
 1.9620	 7.5280
 1.9630	 7.5560
 1.9640	 7.5970
 1.9650	 7.6380
 1.9660	 7.6740
 1.9670	 7.7050
 1.9680	 7.7390
 1.9690	 7.7640
 1.9700	 7.8000
 1.9710	 7.8450
 1.9720	 7.8850
 1.9730	 7.9250
 1.9740	 7.9650
 1.9750	 8.0050
 1.9760	 8.0460
 1.9770	 8.0940
 1.9780	 8.1450
 1.9790	 8.1960
 1.9800	 8.2500
 1.9810	 8.3000
 1.9820	 8.3530
 1.9830	 8.4010
 1.9840	 8.4430
 1.9850	 8.4870
 1.9860	 8.5260
 1.9870	 8.5690
 1.9880	 8.6230
 1.9890	 8.6720
 1.9900	 8.7280
 1.9910	 8.7830
 1.9920	 8.8340
 1.9930	 8.8790
 1.9940	 8.9300
 1.9950	 8.9860
 1.9960	 9.0360
 1.9970	 9.0850
 1.9980	 9.1340
 1.9990	 9.1800
 2.0000	 9.2230
 2.0010	 9.2700
 2.0020	 9.3170
 2.0030	 9.3640
 2.0040	 9.4140
 2.0050	 9.4600
 2.0060	 9.5010
 2.0070	 9.5500
 2.0080	 9.6010
 2.0090	 9.6500
 2.0100	 9.7090
 2.0110	 9.7570
 2.0120	 9.7940
 2.0130	 9.8350
 2.0140	 9.8780
 2.0150	 9.9220
 2.0160	 9.9750
 2.0170	10.0170
 2.0180	10.0560
 2.0190	10.0900
 2.0200	10.1260
 2.0210	10.1540
 2.0220	10.1910
 2.0230	10.2350
 2.0240	10.2720
 2.0250	10.3150
 2.0260	10.3500
 2.0270	10.3780
 2.0280	10.4070
 2.0290	10.4400
 2.0300	10.4630
 2.0310	10.4890
 2.0320	10.5130
 2.0330	10.5360
 2.0340	10.5530
 2.0350	10.5760
 2.0360	10.6020
 2.0370	10.6260
 2.0380	10.6520
 2.0390	10.6760
 2.0400	10.6980
 2.0410	10.7190
 2.0420	10.7430
 2.0430	10.7660
 2.0440	10.7790
 2.0450	10.7830
 2.0460	10.7930
 2.0470	10.7950
 2.0480	10.8060
 2.0490	10.8270
 2.0500	10.8430
 2.0510	10.8610
 2.0520	10.8730
 2.0530	10.8820
 2.0540	10.8880
 2.0550	10.8810
 2.0560	10.8840
 2.0570	10.8960
 2.0580	10.9040
 2.0590	10.9160
 2.0600	10.9390
 2.0610	10.9520
 2.0620	10.9570
 2.0630	10.9700
 2.0640	10.9840
 2.0650	10.9980
 2.0660	11.0180
 2.0670	11.0300
 2.0680	11.0330
 2.0690	11.0430
 2.0700	11.0540
 2.0710	11.0670
 2.0720	11.0870
 2.0730	11.1040
 2.0740	11.1140
 2.0750	11.1190
 2.0760	11.1240
 2.0770	11.1210
 2.0780	11.1250
 2.0790	11.1360
 2.0800	11.1390
 2.0810	11.1380
 2.0820	11.1410
 2.0830	11.1340
 2.0840	11.1420
 2.0850	11.1670
 2.0860	11.1830
 2.0870	11.1970
 2.0880	11.2160
 2.0890	11.2350
 2.0900	11.2530
 2.0910	11.2620
 2.0920	11.2690
 2.0930	11.2810
 2.0940	11.2830
 2.0950	11.2920
 2.0960	11.3150
 2.0970	11.3290
 2.0980	11.3430
 2.0990	11.3500
 2.1000	11.3530
 2.1010	11.3590
 2.1020	11.3590
 2.1030	11.3620
 2.1040	11.3730
 2.1050	11.3810
 2.1060	11.3870
 2.1070	11.3900
 2.1080	11.3940
 2.1090	11.3950
 2.1100	11.4050
 2.1110	11.4210
 2.1120	11.4280
 2.1130	11.4390
 2.1140	11.4440
 2.1150	11.4360
 2.1160	11.4400
 2.1170	11.4540
 2.1180	11.4580
 2.1190	11.4580
 2.1200	11.4640
 2.1210	11.4600
 2.1220	11.4700
 2.1230	11.4830
 2.1240	11.5080
 2.1250	11.5240
 2.1260	11.5430
 2.1270	11.5530
 2.1280	11.5590
 2.1290	11.5610
 2.1300	11.5480
 2.1310	11.5510
 2.1320	11.5560
 2.1330	11.5640
 2.1340	11.5770
 2.1350	11.5980
 2.1360	11.6290
 2.1370	11.6500
 2.1380	11.6770
 2.1390	11.7000
 2.1400	11.7160
 2.1410	11.7250
 2.1420	11.7410
 2.1430	11.7590
 2.1440	11.7770
 2.1450	11.7940
 2.1460	11.8130
 2.1470	11.8370
 2.1480	11.8540
 2.1490	11.8650
 2.1500	11.8840
 2.1510	11.9040
 2.1520	11.9230
 2.1530	11.9470
 2.1540	11.9690
 2.1550	11.9830
 2.1560	12.0050
 2.1570	12.0340
 2.1580	12.0600
 2.1590	12.0850
 2.1600	12.1150
 2.1610	12.1440
 2.1620	12.1680
 2.1630	12.2000
 2.1640	12.2390
 2.1650	12.2700
 2.1660	12.3020
 2.1670	12.3310
 2.1680	12.3530
 2.1690	12.3810
 2.1700	12.4160
 2.1710	12.4390
 2.1720	12.4580
 2.1730	12.4760
 2.1740	12.4780
 2.1750	12.4970
 2.1760	12.5260
 2.1770	12.5550
 2.1780	12.6050
 2.1790	12.6340
 2.1800	12.6470
 2.1810	12.6640
 2.1820	12.6680
 2.1830	12.6740
 2.1840	12.6940
 2.1850	12.7270
 2.1860	12.7530
 2.1870	12.7840
 2.1880	12.8130
 2.1890	12.8380
 2.1900	12.8710
 2.1910	12.9140
 2.1920	12.9480
 2.1930	12.9830
 2.1940	13.0110
 2.1950	13.0320
 2.1960	13.0530
 2.1970	13.0700
 2.1980	13.0890
 2.1990	13.1050
 2.2000	13.1250
 2.2010	13.1500
 2.2020	13.1710
 2.2030	13.1870
 2.2040	13.2080
 2.2050	13.2320
 2.2060	13.2550
 2.2070	13.2780
 2.2080	13.3050
 2.2090	13.3300
 2.2100	13.3510
 2.2110	13.3770
 2.2120	13.4090
 2.2130	13.4340
 2.2140	13.4590
 2.2150	13.4810
 2.2160	13.4940
 2.2170	13.5150
 2.2180	13.5440
 2.2190	13.5550
 2.2200	13.5600
 2.2210	13.5640
 2.2220	13.5450
 2.2230	13.5460
 2.2240	13.5690
 2.2250	13.5740
 2.2260	13.5800
 2.2270	13.5810
 2.2280	13.5660
 2.2290	13.5540
 2.2300	13.5410
 2.2310	13.5300
 2.2320	13.5080
 2.2330	13.5000
 2.2340	13.4810
 2.2350	13.4640
 2.2360	13.4310
 2.2370	13.3880
 2.2380	13.3460
 2.2390	13.2920
 2.2400	13.2470
 2.2410	13.2040
 2.2420	13.1600
 2.2430	13.1160
 2.2440	13.0750
 2.2450	13.0360
 2.2460	13.0010
 2.2470	12.9770
 2.2480	12.9410
 2.2490	12.8960
 2.2500	12.8560
 2.2510	12.8130
 2.2520	12.7690
 2.2530	12.7330
 2.2540	12.6880
 2.2550	12.6250
 2.2560	12.5780
 2.2570	12.5430
 2.2580	12.4990
 2.2590	12.4610
 2.2600	12.4160
 2.2610	12.3530
 2.2620	12.3010
 2.2630	12.2550
 2.2640	12.2020
 2.2650	12.1550
 2.2660	12.1040
 2.2670	12.0630
 2.2680	12.0290
 2.2690	11.9870
 2.2700	11.9470
 2.2710	11.9040
 2.2720	11.8500
 2.2730	11.8090
 2.2740	11.7720
 2.2750	11.7450
 2.2760	11.7310
 2.2770	11.7090
 2.2780	11.6920
 2.2790	11.6720
 2.2800	11.6520
 2.2810	11.6290
 2.2820	11.6090
 2.2830	11.5830
 2.2840	11.5450
 2.2850	11.5210
 2.2860	11.5050
 2.2870	11.4830
 2.2880	11.4720
 2.2890	11.4450
 2.2900	11.4010
 2.2910	11.3660
 2.2920	11.3310
 2.2930	11.2890
 2.2940	11.2420
 2.2950	11.2020
 2.2960	11.1560
 2.2970	11.1190
 2.2980	11.0920
 2.2990	11.0700
 2.3000	11.0310
 2.3010	10.9950
 2.3020	10.9650
 2.3030	10.9170
 2.3040	10.8790
 2.3050	10.8490
 2.3060	10.8110
 2.3070	10.7810
 2.3080	10.7780
 2.3090	10.7680
 2.3100	10.7470
 2.3110	10.7420
 2.3120	10.7300
 2.3130	10.7050
 2.3140	10.6890
 2.3150	10.6840
 2.3160	10.6680
 2.3170	10.6410
 2.3180	10.6250
 2.3190	10.6080
 2.3200	10.6010
 2.3210	10.6080
 2.3220	10.5980
 2.3230	10.5910
 2.3240	10.5730
 2.3250	10.5350
 2.3260	10.5000
 2.3270	10.4520
 2.3280	10.4240
 2.3290	10.4040
 2.3300	10.3860
 2.3310	10.3910
 2.3320	10.3780
 2.3330	10.3530
 2.3340	10.3290
 2.3350	10.3030
 2.3360	10.2710
 2.3370	10.2250
 2.3380	10.1950
 2.3390	10.1650
 2.3400	10.1440
 2.3410	10.1430
 2.3420	10.1310
 2.3430	10.1180
 2.3440	10.0970
 2.3450	10.0590
 2.3460	10.0380
 2.3470	10.0090
 2.3480	10.0030
 2.3490	10.0350
 2.3500	10.0380
 2.3510	10.0450
 2.3520	10.0410
 2.3530	10.0120
 2.3540	 9.9910
 2.3550	 9.9780
 2.3560	 9.9770
 2.3570	 9.9690
 2.3580	 9.9460
 2.3590	 9.9030
 2.3600	 9.8560
 2.3610	 9.8430
 2.3620	 9.8330
 2.3630	 9.8390
 2.3640	 9.8370
 2.3650	 9.8210
 2.3660	 9.8120
 2.3670	 9.7940
 2.3680	 9.7820
 2.3690	 9.7500
 2.3700	 9.7020
 2.3710	 9.6740
 2.3720	 9.6430
 2.3730	 9.6060
 2.3740	 9.5820
 2.3750	 9.5720
 2.3760	 9.5640
 2.3770	 9.5590
 2.3780	 9.5560
 2.3790	 9.5200
 2.3800	 9.4850
 2.3810	 9.4730
 2.3820	 9.4290
 2.3830	 9.3930
 2.3840	 9.3880
 2.3850	 9.3630
 2.3860	 9.3530
 2.3870	 9.3560
 2.3880	 9.3320
 2.3890	 9.3190
 2.3900	 9.3040
 2.3910	 9.2720
 2.3920	 9.2280
 2.3930	 9.1870
 2.3940	 9.1740
 2.3950	 9.1480
 2.3960	 9.1400
 2.3970	 9.1250
 2.3980	 9.0760
 2.3990	 9.0540
 2.4000	 9.0290
 2.4010	 9.0140
 2.4020	 9.0180
 2.4030	 9.0040
 2.4040	 9.0000
 2.4050	 8.9650
 2.4060	 8.9220
 2.4070	 8.9330
 2.4080	 8.9120
 2.4090	 8.9040
 2.4100	 8.9000
 2.4110	 8.8270
 2.4120	 8.7860
 2.4130	 8.7650
 2.4140	 8.7380
 2.4150	 8.6810
 2.4160	 8.6210
 2.4170	 8.5710
 2.4180	 8.5280
 2.4190	 8.5480
 2.4200	 8.5280
 2.4210	 8.4600
 2.4220	 8.3880
 2.4230	 8.3260
 2.4240	 8.3410
 2.4250	 8.3740
 2.4260	 8.3770
 2.4270	 8.3610
 2.4280	 8.3120
 2.4290	 8.2660
 2.4300	 8.2890
 2.4310	 8.3260
 2.4320	 8.3170
 2.4330	 8.3160
 2.4340	 8.2590
 2.4350	 8.1570
 2.4360	 8.1430
 2.4370	 8.1330
 2.4380	 8.0960
 2.4390	 8.0880
 2.4400	 8.0380
 2.4410	 7.9620
 2.4420	 7.9630
 2.4430	 7.9590
 2.4440	 7.9310
 2.4450	 7.9090
 2.4460	 7.8180
 2.4470	 7.7540
 2.4480	 7.7440
 2.4490	 7.7570
 2.4500	 7.7940
 2.4510	 7.7950
 2.4520	 7.7910
 2.4530	 7.7720
 2.4540	 7.7220
 2.4550	 7.6740
 2.4560	 7.6210
 2.4570	 7.5870
 2.4580	 7.5830
 2.4590	 7.5780
 2.4600	 7.5710
 2.4610	 7.5720
 2.4620	 7.5510
 2.4630	 7.5590
 2.4640	 7.6010
 2.4650	 7.5910
 2.4660	 7.5670
 2.4670	 7.5390
 2.4680	 7.5020
 2.4690	 7.4980
 2.4700	 7.4630
 2.4710	 7.4500
 2.4720	 7.4370
 2.4730	 7.4020
 2.4740	 7.3840
 2.4750	 7.3650
 2.4760	 7.3900
 2.4770	 7.4320
 2.4780	 7.4550
 2.4790	 7.5550
 2.4800	 7.5390
 2.4810	 7.3970
 2.4820	 7.3820
 2.4830	 7.3480
 2.4840	 7.4710
 2.4850	 7.5710
 2.4860	 7.4750
 2.4870	 7.3660
 2.4880	 7.3150
 2.4890	 7.3030
 2.4900	 7.3050
 2.4910	 7.4410
 2.4920	 7.4980
 2.4930	 7.3700
 2.4940	 7.4110
 2.4950	 7.3230
 2.4960	 7.1350
 2.4970	 7.1610
 2.4980	 7.1090
 2.4990	 7.1840
 2.5000	 7.3660
