Name: Aloe arborescens flower
Type: vegetation
Class: Shrub
Genus: Aloe
Species: arborescens_flower
Sample No.: JPL073
Owner: JPL
Wavelength Range: TIR
Origin: 34.12593; - 118.10983; WGS84
Collection Date: 2/2/2016
Description: Samples were collected at the Huntington Garden in San Marino California as part of a JPL Subcontract studying HyTES imagery. Samples were taken to JPL and processed within 48 hours of collection. The same leaves were processed in the Nicolet and then measured using the ASD.
Measurement: Hemispherical reflectance
First Column: X
Second Column: Y
X Units: Wavelength (micrometer)
Y Units: Reflectance (percentage)
First X Value: 2.501
Last X Value: 15.387
Number of X Values: 1737
Additional Information: 

 2.5010	 2.0750
 2.5030	 2.0660
 2.5040	 1.9320
 2.5050	 1.9190
 2.5060	 1.9250
 2.5070	 1.8900
 2.5090	 1.9680
 2.5100	 1.9760
 2.5110	 2.0330
 2.5120	 2.0150
 2.5140	 2.0010
 2.5150	 1.9400
 2.5160	 1.9190
 2.5170	 1.8990
 2.5180	 1.8980
 2.5200	 1.8590
 2.5210	 1.8710
 2.5220	 1.9060
 2.5230	 1.9310
 2.5250	 1.8960
 2.5260	 1.9370
 2.5270	 1.9330
 2.5280	 1.9730
 2.5300	 2.0180
 2.5310	 2.0510
 2.5320	 1.9820
 2.5330	 1.9260
 2.5340	 1.9070
 2.5360	 1.9510
 2.5370	 1.9410
 2.5380	 1.9790
 2.5390	 1.9750
 2.5410	 1.9730
 2.5420	 1.9560
 2.5430	 1.9510
 2.5440	 1.9450
 2.5460	 2.0240
 2.5470	 2.0140
 2.5480	 1.9460
 2.5490	 1.8600
 2.5510	 1.9310
 2.5520	 1.9590
 2.5530	 1.9120
 2.5540	 1.9170
 2.5560	 1.9310
 2.5570	 1.8730
 2.5580	 1.9390
 2.5590	 1.9450
 2.5610	 1.9410
 2.5620	 1.9460
 2.5630	 1.9730
 2.5650	 1.9880
 2.5660	 2.0130
 2.5670	 2.0120
 2.5680	 2.0010
 2.5700	 1.8910
 2.5710	 1.9460
 2.5720	 2.0150
 2.5730	 1.9780
 2.5750	 1.9520
 2.5760	 1.9560
 2.5770	 1.9030
 2.5790	 1.9140
 2.5800	 1.8950
 2.5810	 1.9340
 2.5820	 1.9430
 2.5840	 1.9980
 2.5850	 1.9970
 2.5860	 1.9320
 2.5880	 1.8840
 2.5890	 1.9370
 2.5900	 1.9840
 2.5910	 2.0190
 2.5930	 1.9950
 2.5940	 1.9700
 2.5950	 1.9410
 2.5970	 1.9800
 2.5980	 1.9690
 2.5990	 2.0310
 2.6010	 2.0570
 2.6020	 2.0360
 2.6030	 1.9740
 2.6040	 1.9440
 2.6060	 1.9320
 2.6070	 1.9170
 2.6080	 1.8910
 2.6100	 1.8850
 2.6110	 1.8730
 2.6120	 1.9020
 2.6140	 1.8440
 2.6150	 1.8610
 2.6160	 1.8810
 2.6180	 1.9370
 2.6190	 1.9300
 2.6200	 1.9370
 2.6220	 1.9220
 2.6230	 1.9280
 2.6240	 1.8890
 2.6260	 1.9020
 2.6270	 1.8770
 2.6280	 1.9260
 2.6300	 1.9380
 2.6310	 1.8980
 2.6320	 1.8680
 2.6340	 1.9540
 2.6350	 1.9160
 2.6360	 1.9200
 2.6380	 1.8960
 2.6390	 1.8760
 2.6400	 1.8770
 2.6420	 1.8350
 2.6430	 1.7700
 2.6440	 1.8280
 2.6460	 1.8460
 2.6470	 1.8570
 2.6480	 1.8250
 2.6500	 1.8540
 2.6510	 1.8890
 2.6520	 1.9170
 2.6540	 1.8700
 2.6550	 1.8400
 2.6570	 1.8230
 2.6580	 1.8350
 2.6590	 1.8680
 2.6610	 1.8630
 2.6620	 1.8050
 2.6630	 1.8160
 2.6650	 1.8080
 2.6660	 1.7920
 2.6670	 1.7430
 2.6690	 1.7370
 2.6700	 1.7490
 2.6720	 1.7780
 2.6730	 1.8430
 2.6740	 1.8870
 2.6760	 1.8450
 2.6770	 1.8530
 2.6780	 1.8080
 2.6800	 1.8220
 2.6810	 1.8260
 2.6830	 1.8040
 2.6840	 1.7790
 2.6850	 1.7950
 2.6870	 1.8230
 2.6880	 1.8150
 2.6900	 1.7970
 2.6910	 1.8420
 2.6920	 1.7670
 2.6940	 1.7450
 2.6950	 1.7670
 2.6970	 1.8090
 2.6980	 1.8610
 2.6990	 1.8820
 2.7010	 1.7790
 2.7020	 1.8020
 2.7040	 1.7870
 2.7050	 1.8110
 2.7060	 1.8270
 2.7080	 1.8040
 2.7090	 1.7660
 2.7110	 1.8140
 2.7120	 1.8000
 2.7130	 1.7660
 2.7150	 1.7070
 2.7160	 1.7180
 2.7180	 1.7740
 2.7190	 1.7960
 2.7210	 1.7700
 2.7220	 1.8390
 2.7230	 1.9330
 2.7250	 1.8900
 2.7260	 1.8000
 2.7280	 1.8590
 2.7290	 1.8330
 2.7310	 1.8590
 2.7320	 1.8530
 2.7340	 1.8850
 2.7350	 1.8450
 2.7360	 1.8340
 2.7380	 1.8250
 2.7390	 1.8610
 2.7410	 1.8370
 2.7420	 1.8310
 2.7440	 1.7990
 2.7450	 1.7650
 2.7470	 1.7600
 2.7480	 1.7990
 2.7490	 1.7770
 2.7510	 1.7960
 2.7520	 1.7520
 2.7540	 1.8130
 2.7550	 1.8350
 2.7570	 1.8140
 2.7580	 1.8160
 2.7600	 1.8440
 2.7610	 1.8530
 2.7630	 1.9480
 2.7640	 2.0000
 2.7660	 1.9570
 2.7670	 1.8810
 2.7690	 1.9210
 2.7700	 1.8830
 2.7720	 1.9280
 2.7730	 1.9080
 2.7740	 1.8600
 2.7760	 1.9060
 2.7770	 1.9560
 2.7790	 1.9140
 2.7800	 1.9330
 2.7820	 1.9080
 2.7830	 1.8710
 2.7850	 1.8680
 2.7860	 1.9620
 2.7880	 1.9870
 2.7890	 1.9790
 2.7910	 1.9510
 2.7920	 2.0230
 2.7940	 1.9640
 2.7950	 1.9480
 2.7970	 1.9930
 2.7980	 2.0150
 2.8000	 1.9700
 2.8010	 2.0070
 2.8030	 2.0170
 2.8040	 2.0230
 2.8060	 1.9910
 2.8080	 2.0080
 2.8090	 2.0550
 2.8110	 2.0750
 2.8120	 2.0280
 2.8140	 2.0100
 2.8150	 2.0110
 2.8170	 2.0950
 2.8180	 2.0880
 2.8200	 2.0750
 2.8210	 2.0850
 2.8230	 2.1130
 2.8240	 2.0480
 2.8260	 2.0420
 2.8270	 2.0970
 2.8290	 2.1780
 2.8310	 2.0730
 2.8320	 2.0090
 2.8340	 2.0370
 2.8350	 2.1000
 2.8370	 2.0550
 2.8380	 2.0700
 2.8400	 2.0760
 2.8410	 2.0570
 2.8430	 1.9800
 2.8440	 2.0550
 2.8460	 2.0880
 2.8480	 2.0600
 2.8490	 2.0750
 2.8510	 2.1610
 2.8520	 2.1530
 2.8540	 2.1260
 2.8550	 2.0670
 2.8570	 2.1610
 2.8590	 2.1590
 2.8600	 2.1090
 2.8620	 2.1150
 2.8630	 2.1360
 2.8650	 2.1450
 2.8660	 2.2060
 2.8680	 2.1840
 2.8700	 2.2080
 2.8710	 2.2090
 2.8730	 2.2150
 2.8740	 2.1930
 2.8760	 2.1930
 2.8780	 2.1860
 2.8790	 2.2240
 2.8810	 2.2090
 2.8820	 2.2380
 2.8840	 2.2140
 2.8860	 2.2500
 2.8870	 2.2500
 2.8890	 2.2570
 2.8900	 2.2390
 2.8920	 2.2850
 2.8940	 2.1760
 2.8950	 2.1080
 2.8970	 2.0880
 2.8990	 2.2260
 2.9000	 2.2880
 2.9020	 2.3100
 2.9030	 2.2310
 2.9050	 2.2020
 2.9070	 2.1290
 2.9080	 2.1060
 2.9100	 2.1080
 2.9120	 2.2450
 2.9130	 2.2660
 2.9150	 2.2180
 2.9160	 2.1980
 2.9180	 2.2360
 2.9200	 2.1850
 2.9210	 2.1470
 2.9230	 2.1840
 2.9250	 2.2260
 2.9260	 2.2210
 2.9280	 2.2320
 2.9300	 2.2310
 2.9310	 2.2830
 2.9330	 2.2520
 2.9350	 2.2710
 2.9360	 2.2870
 2.9380	 2.3230
 2.9400	 2.2710
 2.9410	 2.2680
 2.9430	 2.1710
 2.9450	 2.1860
 2.9460	 2.2510
 2.9480	 2.2440
 2.9500	 2.2140
 2.9510	 2.2030
 2.9530	 2.2000
 2.9550	 2.1970
 2.9560	 2.1730
 2.9580	 2.1920
 2.9600	 2.1700
 2.9610	 2.1780
 2.9630	 2.1730
 2.9650	 2.1840
 2.9670	 2.1510
 2.9680	 2.1870
 2.9700	 2.2150
 2.9720	 2.2070
 2.9730	 2.1460
 2.9750	 2.2010
 2.9770	 2.2380
 2.9780	 2.3020
 2.9800	 2.2330
 2.9820	 2.2370
 2.9840	 2.2460
 2.9850	 2.2480
 2.9870	 2.1790
 2.9890	 2.2150
 2.9900	 2.2630
 2.9920	 2.3180
 2.9940	 2.2320
 2.9960	 2.1500
 2.9970	 2.0790
 2.9990	 2.0630
 3.0010	 2.1160
 3.0030	 2.1800
 3.0040	 2.1690
 3.0060	 2.1760
 3.0080	 2.1200
 3.0100	 2.0840
 3.0110	 2.0500
 3.0130	 2.1400
 3.0150	 2.1850
 3.0170	 2.1830
 3.0180	 2.0570
 3.0200	 2.0610
 3.0220	 2.0800
 3.0240	 2.0590
 3.0250	 2.0610
 3.0270	 2.0910
 3.0290	 2.0620
 3.0310	 2.0950
 3.0320	 2.0120
 3.0340	 2.0250
 3.0360	 2.0780
 3.0380	 2.1160
 3.0400	 2.1210
 3.0410	 2.1010
 3.0430	 2.0620
 3.0450	 2.0850
 3.0470	 2.0450
 3.0480	 2.0380
 3.0500	 2.0390
 3.0520	 1.9960
 3.0540	 1.9880
 3.0560	 2.0760
 3.0570	 2.0380
 3.0590	 2.0140
 3.0610	 2.0050
 3.0630	 2.0140
 3.0650	 2.0500
 3.0670	 2.0500
 3.0680	 1.9730
 3.0700	 1.9760
 3.0720	 1.9920
 3.0740	 1.9820
 3.0760	 1.9740
 3.0770	 2.0180
 3.0790	 2.0410
 3.0810	 2.0410
 3.0830	 1.9710
 3.0850	 2.0260
 3.0870	 2.0450
 3.0880	 2.0850
 3.0900	 2.0610
 3.0920	 2.0110
 3.0940	 1.9780
 3.0960	 2.0060
 3.0980	 1.9550
 3.1000	 1.9780
 3.1010	 1.9940
 3.1030	 1.9680
 3.1050	 1.9240
 3.1070	 1.9660
 3.1090	 1.9530
 3.1110	 1.9540
 3.1130	 1.9470
 3.1140	 1.9520
 3.1160	 1.9060
 3.1180	 1.8890
 3.1200	 1.8800
 3.1220	 1.9250
 3.1240	 1.9310
 3.1260	 1.9250
 3.1280	 1.9010
 3.1290	 1.9480
 3.1310	 1.9210
 3.1330	 1.9220
 3.1350	 1.8710
 3.1370	 1.9040
 3.1390	 1.9300
 3.1410	 1.9460
 3.1430	 1.9450
 3.1450	 1.9070
 3.1470	 1.9070
 3.1480	 1.9410
 3.1500	 1.9040
 3.1520	 1.8820
 3.1540	 1.8070
 3.1560	 1.7500
 3.1580	 1.7660
 3.1600	 1.8270
 3.1620	 1.7990
 3.1640	 1.8200
 3.1660	 1.8230
 3.1680	 1.8090
 3.1700	 1.8080
 3.1720	 1.8550
 3.1730	 1.8320
 3.1750	 1.8580
 3.1770	 1.8000
 3.1790	 1.7100
 3.1810	 1.7040
 3.1830	 1.7870
 3.1850	 1.8090
 3.1870	 1.8240
 3.1890	 1.8330
 3.1910	 1.8500
 3.1930	 1.8060
 3.1950	 1.8120
 3.1970	 1.7920
 3.1990	 1.7970
 3.2010	 1.7910
 3.2030	 1.7720
 3.2050	 1.7270
 3.2070	 1.7710
 3.2090	 1.7470
 3.2110	 1.7270
 3.2130	 1.7090
 3.2150	 1.7830
 3.2170	 1.8060
 3.2190	 1.7730
 3.2210	 1.7080
 3.2230	 1.7220
 3.2250	 1.7170
 3.2270	 1.6980
 3.2290	 1.6570
 3.2310	 1.6760
 3.2330	 1.7050
 3.2350	 1.7350
 3.2370	 1.6880
 3.2390	 1.7080
 3.2410	 1.7170
 3.2430	 1.6980
 3.2450	 1.6670
 3.2470	 1.6840
 3.2490	 1.6900
 3.2510	 1.7070
 3.2530	 1.6880
 3.2550	 1.6900
 3.2570	 1.6780
 3.2590	 1.6960
 3.2610	 1.7040
 3.2630	 1.7250
 3.2650	 1.6680
 3.2670	 1.6090
 3.2700	 1.6230
 3.2720	 1.6840
 3.2740	 1.6570
 3.2760	 1.6670
 3.2780	 1.6650
 3.2800	 1.6660
 3.2820	 1.6360
 3.2840	 1.6510
 3.2860	 1.6660
 3.2880	 1.6630
 3.2900	 1.6250
 3.2920	 1.6130
 3.2940	 1.5880
 3.2970	 1.6200
 3.2990	 1.6500
 3.3010	 1.6430
 3.3030	 1.6000
 3.3050	 1.6160
 3.3070	 1.5950
 3.3090	 1.5900
 3.3110	 1.5940
 3.3130	 1.6330
 3.3160	 1.6190
 3.3180	 1.5410
 3.3200	 1.5380
 3.3220	 1.5850
 3.3240	 1.5260
 3.3260	 1.5170
 3.3280	 1.5230
 3.3300	 1.5400
 3.3330	 1.5860
 3.3350	 1.6120
 3.3370	 1.5180
 3.3390	 1.5300
 3.3410	 1.5480
 3.3430	 1.5280
 3.3450	 1.4960
 3.3480	 1.5360
 3.3500	 1.5340
 3.3520	 1.5340
 3.3540	 1.4810
 3.3560	 1.4450
 3.3580	 1.4020
 3.3610	 1.4160
 3.3630	 1.4250
 3.3650	 1.4450
 3.3670	 1.4050
 3.3690	 1.3650
 3.3720	 1.3580
 3.3740	 1.4250
 3.3760	 1.3750
 3.3780	 1.3420
 3.3800	 1.3900
 3.3830	 1.4140
 3.3850	 1.3980
 3.3870	 1.4210
 3.3890	 1.4020
 3.3910	 1.3650
 3.3940	 1.3200
 3.3960	 1.3170
 3.3980	 1.2780
 3.4000	 1.2870
 3.4030	 1.2990
 3.4050	 1.3100
 3.4070	 1.3530
 3.4090	 1.4430
 3.4110	 1.5280
 3.4140	 1.6870
 3.4160	 1.8800
 3.4180	 2.1320
 3.4200	 2.3940
 3.4230	 2.7870
 3.4250	 3.2800
 3.4270	 3.7640
 3.4300	 3.9300
 3.4320	 3.7360
 3.4340	 3.3000
 3.4360	 2.9020
 3.4390	 2.6370
 3.4410	 2.4910
 3.4430	 2.3960
 3.4450	 2.3300
 3.4480	 2.2470
 3.4500	 2.2460
 3.4520	 2.2780
 3.4550	 2.2690
 3.4570	 2.2140
 3.4590	 2.2210
 3.4620	 2.1900
 3.4640	 2.1380
 3.4660	 2.0590
 3.4690	 2.0540
 3.4710	 2.0630
 3.4730	 2.0660
 3.4760	 2.0090
 3.4780	 1.9600
 3.4800	 1.8790
 3.4830	 1.8430
 3.4850	 1.8270
 3.4870	 1.7800
 3.4900	 1.7250
 3.4920	 1.7150
 3.4940	 1.7000
 3.4970	 1.6960
 3.4990	 1.7300
 3.5010	 1.8140
 3.5040	 1.9920
 3.5060	 2.4370
 3.5080	 3.1050
 3.5110	 3.5580
 3.5130	 3.4340
 3.5160	 3.1060
 3.5180	 2.8140
 3.5200	 2.6190
 3.5230	 2.5020
 3.5250	 2.4180
 3.5280	 2.3450
 3.5300	 2.3140
 3.5320	 2.3100
 3.5350	 2.2680
 3.5370	 2.1800
 3.5400	 2.1700
 3.5420	 2.1410
 3.5440	 2.1330
 3.5470	 2.0950
 3.5490	 2.0880
 3.5520	 2.0910
 3.5540	 2.0910
 3.5570	 2.1080
 3.5590	 2.1200
 3.5610	 2.0630
 3.5640	 2.0530
 3.5660	 2.0310
 3.5690	 1.9980
 3.5710	 2.0050
 3.5740	 2.0230
 3.5760	 2.0010
 3.5790	 2.0190
 3.5810	 2.0250
 3.5840	 2.0210
 3.5860	 1.9970
 3.5890	 1.9680
 3.5910	 1.9570
 3.5940	 1.9890
 3.5960	 1.9770
 3.5990	 1.9620
 3.6010	 1.9990
 3.6040	 1.9980
 3.6060	 1.9660
 3.6090	 1.9740
 3.6110	 1.9780
 3.6140	 1.9970
 3.6160	 1.9570
 3.6190	 1.9650
 3.6210	 1.9930
 3.6240	 2.0090
 3.6260	 1.9800
 3.6290	 1.9710
 3.6310	 1.9700
 3.6340	 1.9560
 3.6360	 1.8920
 3.6390	 1.9130
 3.6410	 1.9970
 3.6440	 2.0430
 3.6470	 2.0040
 3.6490	 1.9800
 3.6520	 1.9690
 3.6540	 1.9640
 3.6570	 1.9490
 3.6590	 1.9700
 3.6620	 1.9870
 3.6650	 1.9840
 3.6670	 1.9530
 3.6700	 1.9600
 3.6720	 1.9580
 3.6750	 1.9740
 3.6780	 1.9900
 3.6800	 2.0040
 3.6830	 1.9680
 3.6850	 1.9610
 3.6880	 1.9590
 3.6910	 1.9490
 3.6930	 1.9220
 3.6960	 1.9560
 3.6990	 2.0100
 3.7010	 2.0480
 3.7040	 2.0240
 3.7070	 1.9980
 3.7090	 1.9680
 3.7120	 1.9650
 3.7150	 1.9490
 3.7170	 1.9690
 3.7200	 1.9560
 3.7230	 1.9500
 3.7250	 1.9310
 3.7280	 1.9470
 3.7310	 1.9620
 3.7330	 1.9740
 3.7360	 1.9440
 3.7390	 1.9510
 3.7410	 2.0060
 3.7440	 2.0460
 3.7470	 2.0250
 3.7490	 2.0230
 3.7520	 1.9880
 3.7550	 1.9710
 3.7580	 1.9590
 3.7600	 1.9650
 3.7630	 1.9760
 3.7660	 2.0150
 3.7690	 2.0370
 3.7710	 2.0370
 3.7740	 2.0160
 3.7770	 2.0350
 3.7790	 2.0120
 3.7820	 1.9980
 3.7850	 1.9710
 3.7880	 2.0020
 3.7910	 2.0090
 3.7930	 2.0010
 3.7960	 1.9790
 3.7990	 1.9490
 3.8020	 1.9630
 3.8040	 2.0120
 3.8070	 2.0270
 3.8100	 2.0190
 3.8130	 1.9970
 3.8160	 2.0040
 3.8180	 1.9980
 3.8210	 1.9780
 3.8240	 1.9690
 3.8270	 1.9790
 3.8300	 1.9620
 3.8330	 1.9930
 3.8350	 2.0010
 3.8380	 1.9860
 3.8410	 1.9940
 3.8440	 2.0080
 3.8470	 1.9990
 3.8500	 2.0080
 3.8520	 2.0020
 3.8550	 2.0040
 3.8580	 1.9800
 3.8610	 1.9770
 3.8640	 1.9670
 3.8670	 1.9970
 3.8700	 2.0140
 3.8730	 2.0370
 3.8760	 2.0250
 3.8780	 2.0060
 3.8810	 1.9980
 3.8840	 2.0190
 3.8870	 2.0340
 3.8900	 2.0290
 3.8930	 2.0270
 3.8960	 2.0120
 3.8990	 1.9900
 3.9020	 2.0020
 3.9050	 1.9940
 3.9080	 1.9880
 3.9110	 2.0050
 3.9140	 1.9980
 3.9170	 1.9470
 3.9190	 1.9500
 3.9220	 1.9890
 3.9250	 1.9980
 3.9280	 1.9660
 3.9310	 1.9440
 3.9340	 1.9530
 3.9370	 1.9780
 3.9400	 1.9980
 3.9430	 1.9870
 3.9460	 1.9660
 3.9490	 1.9760
 3.9520	 1.9820
 3.9550	 1.9750
 3.9580	 1.9500
 3.9610	 1.9610
 3.9640	 1.9680
 3.9670	 1.9600
 3.9700	 1.9760
 3.9740	 1.9900
 3.9770	 1.9950
 3.9800	 2.0010
 3.9830	 1.9780
 3.9860	 1.9640
 3.9890	 1.9610
 3.9920	 1.9670
 3.9950	 1.9900
 3.9980	 1.9860
 4.0010	 1.9440
 4.0040	 1.9520
 4.0070	 1.9580
 4.0100	 1.9720
 4.0140	 1.9600
 4.0170	 1.9350
 4.0200	 1.9420
 4.0230	 1.9490
 4.0260	 1.9190
 4.0290	 1.9280
 4.0320	 1.9330
 4.0350	 1.9570
 4.0390	 1.9730
 4.0420	 1.9630
 4.0450	 1.9520
 4.0480	 1.9510
 4.0510	 1.9580
 4.0540	 1.9720
 4.0570	 1.9330
 4.0610	 1.8990
 4.0640	 1.9260
 4.0670	 1.9540
 4.0700	 1.9560
 4.0730	 1.9620
 4.0770	 1.9530
 4.0800	 1.9460
 4.0830	 1.9120
 4.0860	 1.9240
 4.0890	 1.9260
 4.0930	 1.9010
 4.0960	 1.8950
 4.0990	 1.9290
 4.1020	 1.9310
 4.1060	 1.9370
 4.1090	 1.9800
 4.1120	 1.9720
 4.1150	 1.9380
 4.1190	 1.9180
 4.1220	 1.9330
 4.1250	 1.9460
 4.1290	 1.9510
 4.1320	 1.9560
 4.1350	 1.9500
 4.1380	 1.9460
 4.1420	 1.9400
 4.1450	 1.9190
 4.1480	 1.9130
 4.1520	 1.9300
 4.1550	 1.9380
 4.1580	 1.9560
 4.1620	 1.9640
 4.1650	 1.9540
 4.1680	 1.9330
 4.1720	 1.9570
 4.1750	 1.9390
 4.1780	 1.9140
 4.1820	 1.9350
 4.1850	 1.9690
 4.1890	 1.9630
 4.1920	 1.9550
 4.1950	 1.9270
 4.1990	 1.9050
 4.2020	 1.9130
 4.2060	 1.8840
 4.2090	 1.8950
 4.2120	 1.9640
 4.2160	 2.0280
 4.2190	 2.0790
 4.2230	 2.0980
 4.2260	 2.0490
 4.2300	 2.0500
 4.2330	 2.0740
 4.2360	 2.0000
 4.2400	 1.9970
 4.2430	 1.9780
 4.2470	 1.9180
 4.2500	 1.8920
 4.2540	 1.8970
 4.2570	 1.9450
 4.2610	 1.9640
 4.2640	 2.0090
 4.2680	 1.9940
 4.2710	 1.9410
 4.2750	 1.9610
 4.2780	 1.9780
 4.2820	 1.9860
 4.2850	 1.9520
 4.2890	 1.9720
 4.2930	 2.0100
 4.2960	 2.0020
 4.3000	 2.0180
 4.3030	 1.9860
 4.3070	 1.9540
 4.3100	 1.9320
 4.3140	 1.9570
 4.3180	 1.9370
 4.3210	 1.9510
 4.3250	 1.9870
 4.3280	 1.9880
 4.3320	 1.9830
 4.3360	 1.9660
 4.3390	 1.9430
 4.3430	 1.9200
 4.3470	 1.9060
 4.3500	 1.8870
 4.3540	 1.8900
 4.3580	 1.9190
 4.3610	 1.9110
 4.3650	 1.9130
 4.3690	 1.9110
 4.3720	 1.9040
 4.3760	 1.9100
 4.3800	 1.9160
 4.3830	 1.9130
 4.3870	 1.9090
 4.3910	 1.8940
 4.3940	 1.9160
 4.3980	 1.9280
 4.4020	 1.9400
 4.4060	 1.9300
 4.4090	 1.9130
 4.4130	 1.8870
 4.4170	 1.9040
 4.4210	 1.8970
 4.4240	 1.9120
 4.4280	 1.9230
 4.4320	 1.8940
 4.4360	 1.8860
 4.4400	 1.9130
 4.4430	 1.9210
 4.4470	 1.9250
 4.4510	 1.9030
 4.4550	 1.8910
 4.4590	 1.8970
 4.4630	 1.8980
 4.4660	 1.8910
 4.4700	 1.8770
 4.4740	 1.9170
 4.4780	 1.9660
 4.4820	 1.9480
 4.4860	 1.9510
 4.4900	 1.9380
 4.4930	 1.9450
 4.4970	 1.9410
 4.5010	 1.8970
 4.5050	 1.8780
 4.5090	 1.9220
 4.5130	 1.9230
 4.5170	 1.9400
 4.5210	 1.9310
 4.5250	 1.9190
 4.5290	 1.9130
 4.5330	 1.9150
 4.5370	 1.9010
 4.5410	 1.9250
 4.5450	 1.9200
 4.5490	 1.9160
 4.5530	 1.8750
 4.5570	 1.8850
 4.5610	 1.9340
 4.5650	 1.9230
 4.5690	 1.8770
 4.5730	 1.8690
 4.5770	 1.8820
 4.5810	 1.9250
 4.5850	 1.9340
 4.5890	 1.9120
 4.5930	 1.9030
 4.5970	 1.9080
 4.6010	 1.9310
 4.6050	 1.9310
 4.6090	 1.9040
 4.6130	 1.9010
 4.6170	 1.8990
 4.6220	 1.8990
 4.6260	 1.9130
 4.6300	 1.9280
 4.6340	 1.8740
 4.6380	 1.8540
 4.6420	 1.8650
 4.6460	 1.8870
 4.6510	 1.9140
 4.6550	 1.9350
 4.6590	 1.9080
 4.6630	 1.9090
 4.6670	 1.9120
 4.6720	 1.9030
 4.6760	 1.8850
 4.6800	 1.8790
 4.6840	 1.8740
 4.6880	 1.8770
 4.6930	 1.8860
 4.6970	 1.9170
 4.7010	 1.8770
 4.7050	 1.8990
 4.7100	 1.8920
 4.7140	 1.8840
 4.7180	 1.8970
 4.7230	 1.9030
 4.7270	 1.8920
 4.7310	 1.9360
 4.7360	 1.9380
 4.7400	 1.9120
 4.7440	 1.8860
 4.7490	 1.9160
 4.7530	 1.8970
 4.7570	 1.8970
 4.7620	 1.9310
 4.7660	 1.9120
 4.7700	 1.8880
 4.7750	 1.9110
 4.7790	 1.9180
 4.7840	 1.9320
 4.7880	 1.8790
 4.7920	 1.8760
 4.7970	 1.8900
 4.8010	 1.9010
 4.8060	 1.9130
 4.8100	 1.9260
 4.8150	 1.9100
 4.8190	 1.9130
 4.8240	 1.9150
 4.8280	 1.9100
 4.8330	 1.9070
 4.8370	 1.9300
 4.8420	 1.9340
 4.8460	 1.9310
 4.8510	 1.9150
 4.8550	 1.9190
 4.8600	 1.8790
 4.8640	 1.9000
 4.8690	 1.9120
 4.8740	 1.9070
 4.8780	 1.8930
 4.8830	 1.9060
 4.8870	 1.8980
 4.8920	 1.8770
 4.8970	 1.8930
 4.9010	 1.9160
 4.9060	 1.8800
 4.9100	 1.8860
 4.9150	 1.9120
 4.9200	 1.9450
 4.9240	 1.9090
 4.9290	 1.9030
 4.9340	 1.8910
 4.9390	 1.9140
 4.9430	 1.9350
 4.9480	 1.9400
 4.9530	 1.9250
 4.9570	 1.9480
 4.9620	 1.9350
 4.9670	 1.9460
 4.9720	 1.9030
 4.9760	 1.8950
 4.9810	 1.8830
 4.9860	 1.9420
 4.9910	 1.9480
 4.9960	 1.9300
 5.0000	 1.9450
 5.0050	 1.9450
 5.0100	 1.9150
 5.0150	 1.9370
 5.0200	 1.9560
 5.0250	 1.9290
 5.0300	 1.8850
 5.0340	 1.9340
 5.0390	 1.9440
 5.0440	 1.9310
 5.0490	 1.8850
 5.0540	 1.8630
 5.0590	 1.8670
 5.0640	 1.9230
 5.0690	 1.9270
 5.0740	 1.9130
 5.0790	 1.9120
 5.0840	 1.9620
 5.0890	 1.9480
 5.0940	 1.9480
 5.0990	 1.9330
 5.1040	 1.9610
 5.1090	 1.9610
 5.1140	 1.9760
 5.1190	 1.9730
 5.1240	 1.9600
 5.1290	 1.9230
 5.1340	 1.9450
 5.1390	 1.9320
 5.1440	 1.9480
 5.1490	 1.9200
 5.1550	 1.9160
 5.1600	 1.9060
 5.1650	 1.9360
 5.1700	 1.9490
 5.1750	 1.9290
 5.1800	 1.9070
 5.1850	 1.9500
 5.1910	 1.9590
 5.1960	 1.9400
 5.2010	 1.9230
 5.2060	 1.9090
 5.2110	 1.8920
 5.2170	 1.9280
 5.2220	 1.9080
 5.2270	 1.9100
 5.2330	 1.9030
 5.2380	 1.9660
 5.2430	 1.9430
 5.2480	 1.9210
 5.2540	 1.9130
 5.2590	 1.9240
 5.2640	 1.9030
 5.2700	 1.9290
 5.2750	 1.9350
 5.2800	 1.9550
 5.2860	 1.9500
 5.2910	 1.9750
 5.2970	 1.9360
 5.3020	 1.9390
 5.3080	 1.9150
 5.3130	 1.9070
 5.3180	 1.9100
 5.3240	 1.9310
 5.3290	 1.9220
 5.3350	 1.9560
 5.3400	 1.9560
 5.3460	 1.9650
 5.3510	 1.9380
 5.3570	 1.9500
 5.3620	 1.9450
 5.3680	 1.9690
 5.3740	 1.9570
 5.3790	 1.9810
 5.3850	 1.9560
 5.3900	 1.9660
 5.3960	 1.9430
 5.4010	 1.9230
 5.4070	 1.9420
 5.4130	 1.9430
 5.4180	 1.9000
 5.4240	 1.9370
 5.4300	 1.9540
 5.4350	 1.9660
 5.4410	 1.9510
 5.4470	 1.9800
 5.4530	 1.9660
 5.4580	 1.9500
 5.4640	 1.9190
 5.4700	 1.9270
 5.4760	 1.8800
 5.4810	 1.8980
 5.4870	 1.9120
 5.4930	 1.9150
 5.4990	 1.8800
 5.5050	 1.9030
 5.5110	 1.8890
 5.5160	 1.8810
 5.5220	 1.8740
 5.5280	 1.9060
 5.5340	 1.8870
 5.5400	 1.8820
 5.5460	 1.8440
 5.5520	 1.8480
 5.5580	 1.8250
 5.5640	 1.8730
 5.5700	 1.8870
 5.5760	 1.9410
 5.5820	 1.9170
 5.5880	 1.8600
 5.5940	 1.8280
 5.6000	 1.8830
 5.6060	 1.8440
 5.6120	 1.8370
 5.6180	 1.8350
 5.6240	 1.8460
 5.6300	 1.8290
 5.6360	 1.8200
 5.6420	 1.7820
 5.6490	 1.8200
 5.6550	 1.7940
 5.6610	 1.7670
 5.6670	 1.7450
 5.6730	 1.7530
 5.6800	 1.6970
 5.6860	 1.7190
 5.6920	 1.6940
 5.6980	 1.6460
 5.7050	 1.5540
 5.7110	 1.5450
 5.7170	 1.5270
 5.7230	 1.5020
 5.7300	 1.4010
 5.7360	 1.3840
 5.7420	 1.3440
 5.7490	 1.4200
 5.7550	 1.5000
 5.7620	 1.6750
 5.7680	 1.7990
 5.7740	 1.8710
 5.7810	 1.9110
 5.7870	 2.0010
 5.7940	 2.0700
 5.8000	 2.1220
 5.8070	 2.1120
 5.8130	 2.1690
 5.8200	 2.1900
 5.8260	 2.2120
 5.8330	 2.1520
 5.8390	 2.1330
 5.8460	 2.1420
 5.8530	 2.2080
 5.8590	 2.2250
 5.8660	 2.2200
 5.8730	 2.1640
 5.8790	 2.2090
 5.8860	 2.2220
 5.8930	 2.2430
 5.8990	 2.1930
 5.9060	 2.2060
 5.9130	 2.1740
 5.9190	 2.1780
 5.9260	 2.1340
 5.9330	 2.1700
 5.9400	 2.1410
 5.9470	 2.1700
 5.9530	 2.1270
 5.9600	 2.1380
 5.9670	 2.1160
 5.9740	 2.1030
 5.9810	 2.0650
 5.9880	 2.0610
 5.9950	 2.0080
 6.0020	 2.0580
 6.0090	 2.0450
 6.0160	 2.0550
 6.0230	 1.9750
 6.0300	 1.9970
 6.0370	 1.9930
 6.0440	 1.9650
 6.0510	 1.9220
 6.0580	 1.9550
 6.0650	 1.9320
 6.0720	 1.9330
 6.0790	 1.9000
 6.0860	 1.9480
 6.0930	 1.9060
 6.1010	 1.9080
 6.1080	 1.8710
 6.1150	 1.9340
 6.1220	 1.8960
 6.1290	 1.9080
 6.1370	 1.8640
 6.1440	 1.9070
 6.1510	 1.8750
 6.1580	 1.9150
 6.1660	 1.9150
 6.1730	 1.9380
 6.1800	 1.9190
 6.1880	 1.9260
 6.1950	 1.8810
 6.2030	 1.9370
 6.2100	 1.9410
 6.2180	 1.9800
 6.2250	 1.8790
 6.2320	 1.8990
 6.2400	 1.8970
 6.2480	 1.9090
 6.2550	 1.8680
 6.2630	 1.8970
 6.2700	 1.8890
 6.2780	 1.9150
 6.2850	 1.8710
 6.2930	 1.9370
 6.3010	 1.8940
 6.3080	 1.8690
 6.3160	 1.8530
 6.3240	 1.8760
 6.3310	 1.8370
 6.3390	 1.9000
 6.3470	 1.8610
 6.3550	 1.8680
 6.3620	 1.8810
 6.3700	 1.9300
 6.3780	 1.8510
 6.3860	 1.8980
 6.3940	 1.9010
 6.4020	 1.9200
 6.4100	 1.9070
 6.4180	 1.9100
 6.4260	 1.8380
 6.4340	 1.8710
 6.4420	 1.8450
 6.4500	 1.8850
 6.4580	 1.8820
 6.4660	 1.8790
 6.4740	 1.8080
 6.4820	 1.8120
 6.4900	 1.8160
 6.4980	 1.8500
 6.5060	 1.7880
 6.5140	 1.8230
 6.5230	 1.7970
 6.5310	 1.7840
 6.5390	 1.7380
 6.5470	 1.7900
 6.5560	 1.8100
 6.5640	 1.8440
 6.5720	 1.8180
 6.5800	 1.8310
 6.5890	 1.7760
 6.5970	 1.8160
 6.6060	 1.8000
 6.6140	 1.8110
 6.6230	 1.7780
 6.6310	 1.8160
 6.6390	 1.7800
 6.6480	 1.7990
 6.6570	 1.7400
 6.6650	 1.7450
 6.6740	 1.7290
 6.6820	 1.7740
 6.6910	 1.7470
 6.7000	 1.7400
 6.7080	 1.6960
 6.7170	 1.7500
 6.7260	 1.7440
 6.7340	 1.7780
 6.7430	 1.7130
 6.7520	 1.6940
 6.7610	 1.6580
 6.7690	 1.6860
 6.7780	 1.7010
 6.7870	 1.8810
 6.7960	 1.8520
 6.8050	 1.7990
 6.8140	 1.7570
 6.8230	 1.8430
 6.8320	 1.9800
 6.8410	 2.1260
 6.8500	 2.0310
 6.8590	 1.9890
 6.8680	 1.9080
 6.8770	 1.9110
 6.8860	 1.8440
 6.8960	 1.8720
 6.9050	 1.9000
 6.9140	 1.9410
 6.9230	 1.8800
 6.9320	 1.8950
 6.9420	 1.8180
 6.9510	 1.8590
 6.9600	 1.8240
 6.9700	 1.9010
 6.9790	 1.9230
 6.9880	 1.9490
 6.9980	 1.8980
 7.0070	 1.9270
 7.0170	 1.8410
 7.0260	 1.8550
 7.0360	 1.8830
 7.0450	 1.9240
 7.0550	 1.8360
 7.0650	 1.8660
 7.0740	 1.8640
 7.0840	 1.9370
 7.0940	 1.9070
 7.1030	 1.9210
 7.1130	 1.8630
 7.1230	 1.8910
 7.1330	 1.8390
 7.1420	 1.8590
 7.1520	 1.8020
 7.1620	 1.8070
 7.1720	 1.7680
 7.1820	 1.8030
 7.1920	 1.7500
 7.2020	 1.8600
 7.2120	 1.8500
 7.2220	 1.8400
 7.2320	 1.8120
 7.2420	 1.8750
 7.2520	 1.8400
 7.2620	 1.8830
 7.2730	 1.8520
 7.2830	 1.8570
 7.2930	 1.7640
 7.3030	 1.8090
 7.3140	 1.7970
 7.3240	 1.8150
 7.3340	 1.7540
 7.3450	 1.8440
 7.3550	 1.7990
 7.3660	 1.8010
 7.3760	 1.7190
 7.3870	 1.7460
 7.3970	 1.7390
 7.4080	 1.7970
 7.4180	 1.7830
 7.4290	 1.8330
 7.4400	 1.7830
 7.4500	 1.8270
 7.4610	 1.7870
 7.4720	 1.8180
 7.4830	 1.7450
 7.4930	 1.7770
 7.5040	 1.7610
 7.5150	 1.7920
 7.5260	 1.7230
 7.5370	 1.7920
 7.5480	 1.7940
 7.5590	 1.8120
 7.5700	 1.7060
 7.5810	 1.7060
 7.5920	 1.6640
 7.6030	 1.7610
 7.6140	 1.7330
 7.6260	 1.7570
 7.6370	 1.7340
 7.6480	 1.8020
 7.6590	 1.7730
 7.6710	 1.7890
 7.6820	 1.7110
 7.6940	 1.7790
 7.7050	 1.7320
 7.7160	 1.7630
 7.7280	 1.7050
 7.7390	 1.7240
 7.7510	 1.6620
 7.7630	 1.6920
 7.7740	 1.6330
 7.7860	 1.7270
 7.7980	 1.7280
 7.8090	 1.7920
 7.8210	 1.7310
 7.8330	 1.7390
 7.8450	 1.7040
 7.8570	 1.7770
 7.8690	 1.7070
 7.8810	 1.7300
 7.8930	 1.6590
 7.9050	 1.7200
 7.9170	 1.6880
 7.9290	 1.7630
 7.9410	 1.7050
 7.9530	 1.7320
 7.9650	 1.6750
 7.9780	 1.7260
 7.9900	 1.6600
 8.0020	 1.7310
 8.0150	 1.6970
 8.0270	 1.7150
 8.0390	 1.6290
 8.0520	 1.7120
 8.0640	 1.6800
 8.0770	 1.7980
 8.0900	 1.7730
 8.1020	 1.8220
 8.1150	 1.6920
 8.1280	 1.7210
 8.1400	 1.7140
 8.1530	 1.8180
 8.1660	 1.6760
 8.1790	 1.7230
 8.1920	 1.6740
 8.2050	 1.7630
 8.2180	 1.7690
 8.2310	 1.7780
 8.2440	 1.6300
 8.2570	 1.7750
 8.2700	 1.7990
 8.2830	 1.8450
 8.2970	 1.7430
 8.3100	 1.8160
 8.3230	 1.7360
 8.3370	 1.7960
 8.3500	 1.7660
 8.3640	 1.8400
 8.3770	 1.7770
 8.3910	 1.8760
 8.4040	 1.7930
 8.4180	 1.8530
 8.4320	 1.8300
 8.4450	 1.9510
 8.4590	 1.9100
 8.4730	 1.9950
 8.4870	 1.9840
 8.5010	 2.0650
 8.5150	 1.9880
 8.5290	 2.1350
 8.5430	 2.0960
 8.5570	 2.1570
 8.5710	 2.1540
 8.5850	 2.2530
 8.5990	 2.1760
 8.6140	 2.2590
 8.6280	 2.1510
 8.6420	 2.1930
 8.6570	 2.1250
 8.6710	 2.2420
 8.6860	 2.1350
 8.7000	 2.1680
 8.7150	 2.1100
 8.7300	 2.1450
 8.7440	 2.0010
 8.7590	 2.0650
 8.7740	 2.0060
 8.7890	 2.1530
 8.8040	 2.1060
 8.8190	 2.1650
 8.8340	 2.0770
 8.8490	 2.1320
 8.8640	 2.0690
 8.8790	 2.2240
 8.8940	 2.1000
 8.9100	 2.1970
 8.9250	 2.0490
 8.9400	 2.0680
 8.9560	 2.0050
 8.9710	 2.0130
 8.9870	 1.8390
 9.0020	 1.9280
 9.0180	 1.7910
 9.0340	 1.8100
 9.0500	 1.7720
 9.0650	 1.9120
 9.0810	 1.8570
 9.0970	 1.9630
 9.1130	 1.8340
 9.1290	 1.8670
 9.1450	 1.7940
 9.1620	 2.0040
 9.1780	 1.9630
 9.1940	 1.9630
 9.2100	 1.8170
 9.2270	 1.9160
 9.2430	 1.8790
 9.2600	 1.9540
 9.2760	 1.8160
 9.2930	 1.9520
 9.3100	 1.8560
 9.3260	 1.9470
 9.3430	 1.8620
 9.3600	 1.9070
 9.3770	 1.8740
 9.3940	 2.0540
 9.4110	 1.8950
 9.4280	 1.8740
 9.4450	 1.7820
 9.4620	 1.9090
 9.4800	 1.8260
 9.4970	 1.9080
 9.5150	 1.7890
 9.5320	 1.8290
 9.5500	 1.7960
 9.5670	 1.9390
 9.5850	 1.8400
 9.6030	 1.8550
 9.6200	 1.7400
 9.6380	 1.8840
 9.6560	 1.7590
 9.6740	 1.8300
 9.6920	 1.7460
 9.7110	 1.8060
 9.7290	 1.6560
 9.7470	 1.6940
 9.7650	 1.5990
 9.7840	 1.6320
 9.8020	 1.4800
 9.8210	 1.3440
 9.8390	 1.1120
 9.8580	 1.4590
 9.8770	 1.4720
 9.8960	 1.6360
 9.9150	 1.5840
 9.9340	 1.6300
 9.9530	 1.4920
 9.9720	 1.6290
 9.9910	 1.6020
10.0100	 1.7550
10.0300	 1.7010
10.0490	 1.7310
10.0690	 1.5860
10.0880	 1.7230
10.1080	 1.7160
10.1280	 1.8290
10.1480	 1.6940
10.1670	 1.7530
10.1870	 1.6830
10.2070	 1.7520
10.2280	 1.6380
10.2480	 1.7870
10.2680	 1.7540
10.2890	 1.7640
10.3090	 1.6110
10.3300	 1.7170
10.3500	 1.5930
10.3710	 1.7250
10.3920	 1.6850
10.4120	 1.7980
10.4330	 1.7080
10.4540	 1.7740
10.4760	 1.6660
10.4970	 1.7320
10.5180	 1.6140
10.5390	 1.6770
10.5610	 1.6440
10.5820	 1.7640
10.6040	 1.6720
10.6260	 1.7980
10.6480	 1.7060
10.6700	 1.7850
10.6920	 1.6580
10.7140	 1.7960
10.7360	 1.7870
10.7580	 1.8650
10.7800	 1.6820
10.8030	 1.7730
10.8250	 1.6810
10.8480	 1.7630
10.8710	 1.6400
10.8940	 1.7440
10.9170	 1.6550
10.9400	 1.7720
10.9630	 1.6360
10.9860	 1.6730
11.0090	 1.6070
11.0330	 1.8120
11.0560	 1.7020
11.0800	 1.7210
11.1040	 1.5260
11.1270	 1.6090
11.1510	 1.5100
11.1750	 1.7070
11.2000	 1.6080
11.2240	 1.6390
11.2480	 1.5470
11.2730	 1.6290
11.2970	 1.4870
11.3220	 1.6070
11.3470	 1.4760
11.3720	 1.6160
11.3970	 1.4920
11.4220	 1.5720
11.4470	 1.5230
11.4720	 1.6670
11.4980	 1.4900
11.5230	 1.6200
11.5490	 1.4770
11.5750	 1.5510
11.6000	 1.3970
11.6260	 1.5250
11.6530	 1.3970
11.6790	 1.4630
11.7050	 1.3950
11.7320	 1.5660
11.7580	 1.4570
11.7850	 1.6330
11.8120	 1.4920
11.8390	 1.5560
11.8660	 1.4200
11.8930	 1.5640
11.9200	 1.5030
11.9480	 1.5840
11.9760	 1.3360
12.0030	 1.4470
12.0310	 1.3010
12.0590	 1.3520
12.0870	 1.2060
12.1150	 1.4680
12.1440	 1.3770
12.1720	 1.4790
12.2010	 1.2800
12.2300	 1.3630
12.2590	 1.2790
12.2880	 1.4580
12.3170	 1.2220
12.3460	 1.2970
12.3760	 1.2070
12.4050	 1.3440
12.4350	 1.1640
12.4650	 1.3410
12.4950	 1.1700
12.5250	 1.4120
12.5550	 1.3720
12.5860	 1.4700
12.6170	 1.1920
12.6470	 1.2940
12.6780	 1.2110
12.7090	 1.3740
12.7410	 1.1880
12.7720	 1.3340
12.8030	 1.1480
12.8350	 1.2650
12.8670	 1.0830
12.8990	 1.2740
12.9310	 1.1240
12.9640	 1.2080
12.9960	 1.0360
13.0290	 1.2440
13.0610	 1.0580
13.0940	 1.2030
13.1280	 0.9720
13.1610	 1.0980
13.1940	 1.0520
13.2280	 1.2980
13.2620	 1.0600
13.2960	 1.1670
13.3300	 0.9200
13.3640	 1.1150
13.3990	 0.9830
13.4340	 1.1860
13.4690	 0.9420
13.5040	 1.1560
13.5390	 0.9500
13.5740	 1.0850
13.6100	 1.0150
13.6460	 1.1820
13.6820	 0.9210
13.7180	 1.1440
13.7540	 0.7560
13.7910	 0.9160
13.8280	 0.8910
13.8650	 1.1800
13.9020	 1.0770
13.9390	 1.2780
13.9770	 0.8940
14.0150	 1.0130
14.0530	 0.8840
14.0910	 1.1550
14.1290	 0.9990
14.1680	 1.2540
14.2070	 1.0440
14.2460	 1.2440
14.2850	 0.9930
14.3240	 1.1340
14.3640	 0.7400
14.4040	 1.0230
14.4440	 0.9580
14.4840	 1.2840
14.5250	 0.9190
14.5660	 1.1140
14.6070	 0.8210
14.6480	 1.1310
14.6900	 0.7530
14.7310	 0.9980
14.7730	 0.7050
14.8150	 1.1090
14.8580	 0.8350
14.9010	 1.2550
14.9440	 0.9270
14.9870	 1.2050
15.0300	 0.6650
15.0740	 1.0560
15.1180	 0.7060
15.1620	 1.0080
15.2060	 0.6470
15.2510	 1.1640
15.2960	 0.7710
15.3410	 0.9660
15.3870	 0.5430
