Name: Quercus douglasii 2
Type: vegetation
Class: Tree
Genus: Quercus
Species: douglasii
Sample No.: VH077
Owner: UCSB
Wavelength Range: TIR
Origin: 34.7157; -120.0601; WGS84
Collection Date: 4/21/2013
Description: Samples were collected as part of the HyspIRI Airborne Campaign. 48 individual plants were sampled in three times in 2013 - spring  summer  and fall. The name of the sample includes a 1  2  or 3 which references a different individual of the species. Samples were taken to JPL and processed within 48 hours of collection. The same leaves were processed in the Nicolet and then measured using the ASD.
Measurement: Hemispherical reflectance
First Column: X
Second Column: Y
X Units: Wavelength (micrometers)
Y Units: Reflectance (percentage)
First X Value: 2.501
Last X Value: 15.387
Number of X Values: 1737
Additional Information: vegetation.tree.quercus.douglasii.tir.vh077.ucsb.nicolet.ancillary.txt

 2.5010	 7.6030
 2.5030	 7.5780
 2.5040	 7.5270
 2.5050	 7.5410
 2.5060	 7.5370
 2.5070	 7.5250
 2.5090	 7.5460
 2.5100	 7.5450
 2.5110	 7.5890
 2.5120	 7.5750
 2.5140	 7.5840
 2.5150	 7.6010
 2.5160	 7.6920
 2.5170	 7.6790
 2.5180	 7.5380
 2.5200	 7.4820
 2.5210	 7.4580
 2.5220	 7.3870
 2.5230	 7.4550
 2.5250	 7.4770
 2.5260	 7.5520
 2.5270	 7.5430
 2.5280	 7.5140
 2.5290	 7.5440
 2.5310	 7.5790
 2.5320	 7.5000
 2.5330	 7.5620
 2.5340	 7.5030
 2.5360	 7.5300
 2.5370	 7.5460
 2.5380	 7.5260
 2.5390	 7.6160
 2.5410	 7.5910
 2.5420	 7.4910
 2.5430	 7.5300
 2.5440	 7.5500
 2.5460	 7.5020
 2.5470	 7.5120
 2.5480	 7.5880
 2.5490	 7.5050
 2.5510	 7.3650
 2.5520	 7.3730
 2.5530	 7.4810
 2.5540	 7.5560
 2.5560	 7.5930
 2.5570	 7.6240
 2.5580	 7.6180
 2.5590	 7.4870
 2.5610	 7.4470
 2.5620	 7.4960
 2.5630	 7.5760
 2.5640	 7.6520
 2.5660	 7.5770
 2.5670	 7.5390
 2.5680	 7.6100
 2.5700	 7.6220
 2.5710	 7.6240
 2.5720	 7.6250
 2.5730	 7.5230
 2.5750	 7.4480
 2.5760	 7.4710
 2.5770	 7.4340
 2.5790	 7.3860
 2.5800	 7.4060
 2.5810	 7.5080
 2.5820	 7.6090
 2.5840	 7.5510
 2.5850	 7.4090
 2.5860	 7.4330
 2.5880	 7.4640
 2.5890	 7.5100
 2.5900	 7.4670
 2.5910	 7.4940
 2.5930	 7.5570
 2.5940	 7.5090
 2.5950	 7.2710
 2.5970	 7.2300
 2.5980	 7.3070
 2.5990	 7.3260
 2.6000	 7.2570
 2.6020	 7.2090
 2.6030	 7.2010
 2.6040	 7.1570
 2.6060	 7.1090
 2.6070	 7.1790
 2.6080	 7.2120
 2.6100	 7.1510
 2.6110	 7.2630
 2.6120	 7.3500
 2.6140	 7.2950
 2.6150	 7.3140
 2.6160	 7.2380
 2.6180	 7.0850
 2.6190	 7.0410
 2.6200	 7.0950
 2.6220	 7.0450
 2.6230	 7.0330
 2.6240	 7.0320
 2.6260	 7.0710
 2.6270	 7.0850
 2.6280	 7.0760
 2.6300	 7.0330
 2.6310	 7.0170
 2.6320	 6.9800
 2.6340	 7.0320
 2.6350	 6.9460
 2.6360	 6.8000
 2.6380	 6.8390
 2.6390	 6.9640
 2.6400	 6.8960
 2.6420	 6.8570
 2.6430	 6.8230
 2.6440	 6.7860
 2.6460	 6.7910
 2.6470	 6.7490
 2.6480	 6.6150
 2.6500	 6.6810
 2.6510	 6.7510
 2.6520	 6.6790
 2.6540	 6.6610
 2.6550	 6.6820
 2.6560	 6.5850
 2.6580	 6.6080
 2.6590	 6.6570
 2.6610	 6.5920
 2.6620	 6.3840
 2.6630	 6.4230
 2.6650	 6.4580
 2.6660	 6.3480
 2.6670	 6.2870
 2.6690	 6.4070
 2.6700	 6.3770
 2.6720	 6.3170
 2.6730	 6.4210
 2.6740	 6.4400
 2.6760	 6.3640
 2.6770	 6.3750
 2.6780	 6.3620
 2.6800	 6.3580
 2.6810	 6.3750
 2.6830	 6.3440
 2.6840	 6.3780
 2.6850	 6.3700
 2.6870	 6.2140
 2.6880	 6.1830
 2.6900	 6.1170
 2.6910	 6.0880
 2.6920	 6.1200
 2.6940	 6.1210
 2.6950	 6.0150
 2.6970	 6.0120
 2.6980	 6.0160
 2.6990	 6.1230
 2.7010	 6.1630
 2.7020	 6.0350
 2.7040	 5.9200
 2.7050	 6.0110
 2.7060	 6.1080
 2.7080	 6.0160
 2.7090	 5.8790
 2.7110	 5.8310
 2.7120	 5.8440
 2.7130	 5.8560
 2.7150	 5.7720
 2.7160	 5.7870
 2.7180	 5.8040
 2.7190	 5.7720
 2.7210	 5.7560
 2.7220	 5.8040
 2.7230	 5.7900
 2.7250	 5.8010
 2.7260	 5.7190
 2.7280	 5.6140
 2.7290	 5.5850
 2.7310	 5.6170
 2.7320	 5.6060
 2.7330	 5.6640
 2.7350	 5.6330
 2.7360	 5.5570
 2.7380	 5.4640
 2.7390	 5.5380
 2.7410	 5.6510
 2.7420	 5.5940
 2.7440	 5.4180
 2.7450	 5.3290
 2.7470	 5.4150
 2.7480	 5.3930
 2.7490	 5.2180
 2.7510	 5.1280
 2.7520	 5.0760
 2.7540	 5.1380
 2.7550	 5.1800
 2.7570	 5.2750
 2.7580	 5.1940
 2.7600	 5.1280
 2.7610	 5.1430
 2.7630	 5.1420
 2.7640	 5.1310
 2.7660	 5.0590
 2.7670	 4.9530
 2.7680	 5.0740
 2.7700	 5.0940
 2.7710	 5.0420
 2.7730	 5.0410
 2.7740	 4.9850
 2.7760	 4.8570
 2.7770	 4.8480
 2.7790	 4.8230
 2.7800	 4.8340
 2.7820	 4.9250
 2.7830	 4.9510
 2.7850	 4.8530
 2.7860	 4.8670
 2.7880	 4.8710
 2.7890	 4.8420
 2.7910	 4.8550
 2.7920	 4.8450
 2.7940	 4.7340
 2.7950	 4.7230
 2.7970	 4.7250
 2.7980	 4.7490
 2.8000	 4.7650
 2.8010	 4.7460
 2.8030	 4.5950
 2.8040	 4.5060
 2.8060	 4.5690
 2.8070	 4.6110
 2.8090	 4.5710
 2.8110	 4.5830
 2.8120	 4.5790
 2.8140	 4.5570
 2.8150	 4.6230
 2.8170	 4.6650
 2.8180	 4.6110
 2.8200	 4.7190
 2.8210	 4.7180
 2.8230	 4.6040
 2.8240	 4.6610
 2.8260	 4.7890
 2.8270	 4.6770
 2.8290	 4.5740
 2.8300	 4.5290
 2.8320	 4.5340
 2.8340	 4.5300
 2.8350	 4.5890
 2.8370	 4.5870
 2.8380	 4.6810
 2.8400	 4.6720
 2.8410	 4.6150
 2.8430	 4.5960
 2.8440	 4.6150
 2.8460	 4.6520
 2.8480	 4.6470
 2.8490	 4.5620
 2.8510	 4.5670
 2.8520	 4.4560
 2.8540	 4.4670
 2.8550	 4.5050
 2.8570	 4.6260
 2.8590	 4.6340
 2.8600	 4.5390
 2.8620	 4.5660
 2.8630	 4.7380
 2.8650	 4.7110
 2.8660	 4.6300
 2.8680	 4.6350
 2.8700	 4.6340
 2.8710	 4.5980
 2.8730	 4.5930
 2.8740	 4.5090
 2.8760	 4.5170
 2.8780	 4.5570
 2.8790	 4.4760
 2.8810	 4.3980
 2.8820	 4.4580
 2.8840	 4.5150
 2.8860	 4.4860
 2.8870	 4.4970
 2.8890	 4.6840
 2.8900	 4.6510
 2.8920	 4.6120
 2.8940	 4.5730
 2.8950	 4.4950
 2.8970	 4.4540
 2.8980	 4.4560
 2.9000	 4.3740
 2.9020	 4.5210
 2.9030	 4.6010
 2.9050	 4.6250
 2.9070	 4.6010
 2.9080	 4.5910
 2.9100	 4.5930
 2.9120	 4.5710
 2.9130	 4.5180
 2.9150	 4.6520
 2.9160	 4.5560
 2.9180	 4.4030
 2.9200	 4.4010
 2.9210	 4.5330
 2.9230	 4.4500
 2.9250	 4.4700
 2.9260	 4.6370
 2.9280	 4.6750
 2.9300	 4.5210
 2.9310	 4.5650
 2.9330	 4.6690
 2.9350	 4.5900
 2.9360	 4.5660
 2.9380	 4.6420
 2.9400	 4.5090
 2.9410	 4.4220
 2.9430	 4.4470
 2.9450	 4.6350
 2.9460	 4.7180
 2.9480	 4.7640
 2.9500	 4.8480
 2.9510	 5.0020
 2.9530	 4.9980
 2.9550	 4.8630
 2.9560	 4.6210
 2.9580	 4.5750
 2.9600	 4.6810
 2.9610	 4.7840
 2.9630	 4.5040
 2.9650	 4.4620
 2.9660	 4.5730
 2.9680	 4.3520
 2.9700	 4.6860
 2.9720	 4.7810
 2.9730	 4.2480
 2.9750	 4.1850
 2.9770	 4.3430
 2.9780	 4.5470
 2.9800	 4.4210
 2.9820	 4.3780
 2.9840	 4.7170
 2.9850	 4.7630
 2.9870	 4.2990
 2.9890	 4.1450
 2.9900	 4.2180
 2.9920	 4.2510
 2.9940	 4.2150
 2.9960	 4.3600
 2.9970	 4.4150
 2.9990	 4.3780
 3.0010	 4.3860
 3.0030	 4.5730
 3.0040	 4.6490
 3.0060	 4.6860
 3.0080	 4.5720
 3.0100	 4.4980
 3.0110	 4.5550
 3.0130	 4.6130
 3.0150	 4.7220
 3.0170	 4.9410
 3.0180	 4.9560
 3.0200	 4.8040
 3.0220	 4.7880
 3.0240	 4.7050
 3.0250	 4.6790
 3.0270	 4.7060
 3.0290	 4.5690
 3.0310	 4.5410
 3.0320	 4.7060
 3.0340	 4.7050
 3.0360	 4.5990
 3.0380	 4.4240
 3.0400	 4.4400
 3.0410	 4.0990
 3.0430	 4.0460
 3.0450	 4.9760
 3.0470	 4.8690
 3.0480	 4.3950
 3.0500	 4.9630
 3.0520	 5.1250
 3.0540	 5.0740
 3.0560	 5.0620
 3.0570	 5.2700
 3.0590	 4.8090
 3.0610	 4.5390
 3.0630	 4.4760
 3.0650	 4.2090
 3.0660	 4.4570
 3.0680	 4.7170
 3.0700	 4.8400
 3.0720	 4.8360
 3.0740	 4.8090
 3.0760	 4.7320
 3.0770	 4.7080
 3.0790	 4.8040
 3.0810	 4.8320
 3.0830	 4.9020
 3.0850	 4.9800
 3.0870	 4.9980
 3.0880	 4.9640
 3.0900	 4.9960
 3.0920	 4.9470
 3.0940	 4.9350
 3.0960	 4.9150
 3.0980	 4.7010
 3.0990	 4.6110
 3.1010	 4.8230
 3.1030	 4.8650
 3.1050	 4.8950
 3.1070	 4.9050
 3.1090	 4.8570
 3.1110	 4.8450
 3.1120	 4.8720
 3.1140	 4.9010
 3.1160	 4.9140
 3.1180	 4.9150
 3.1200	 4.7720
 3.1220	 4.7560
 3.1240	 4.8440
 3.1260	 4.9480
 3.1270	 4.9790
 3.1290	 4.9790
 3.1310	 4.9540
 3.1330	 4.8360
 3.1350	 4.7540
 3.1370	 4.8350
 3.1390	 4.9780
 3.1410	 5.0040
 3.1430	 4.9370
 3.1450	 4.9320
 3.1460	 4.7950
 3.1480	 4.9440
 3.1500	 4.8830
 3.1520	 4.9720
 3.1540	 5.0950
 3.1560	 5.1040
 3.1580	 4.9810
 3.1600	 4.8520
 3.1620	 4.8710
 3.1640	 4.8970
 3.1660	 5.0080
 3.1680	 5.1130
 3.1700	 5.0170
 3.1710	 4.8270
 3.1730	 4.8400
 3.1750	 5.1090
 3.1770	 5.1040
 3.1790	 5.0130
 3.1810	 4.7030
 3.1830	 4.6240
 3.1850	 4.8040
 3.1870	 4.8610
 3.1890	 4.9720
 3.1910	 5.0370
 3.1930	 5.0560
 3.1950	 5.1710
 3.1970	 5.0680
 3.1990	 5.0110
 3.2010	 5.0340
 3.2030	 5.0480
 3.2050	 4.9650
 3.2070	 5.0110
 3.2090	 5.0800
 3.2110	 5.1470
 3.2130	 5.1260
 3.2150	 5.1160
 3.2170	 5.1220
 3.2190	 5.1350
 3.2210	 5.0970
 3.2230	 5.1660
 3.2250	 5.1850
 3.2270	 5.1770
 3.2290	 5.1360
 3.2310	 5.1860
 3.2330	 5.0970
 3.2350	 5.0980
 3.2370	 5.1650
 3.2390	 5.0640
 3.2410	 4.9690
 3.2430	 5.1140
 3.2450	 5.1190
 3.2470	 5.1080
 3.2490	 5.1210
 3.2510	 5.0440
 3.2530	 5.0430
 3.2550	 5.1840
 3.2570	 5.2740
 3.2590	 5.2470
 3.2610	 5.1010
 3.2630	 5.1130
 3.2650	 5.1490
 3.2670	 5.1080
 3.2690	 5.1220
 3.2720	 5.2890
 3.2740	 5.2690
 3.2760	 5.2210
 3.2780	 5.1730
 3.2800	 5.2450
 3.2820	 5.2510
 3.2840	 5.2460
 3.2860	 5.1970
 3.2880	 5.1590
 3.2900	 5.0920
 3.2920	 5.1410
 3.2940	 5.1960
 3.2960	 5.1610
 3.2990	 5.0800
 3.3010	 5.1500
 3.3030	 5.1450
 3.3050	 5.1660
 3.3070	 5.1420
 3.3090	 5.1380
 3.3110	 5.1600
 3.3130	 5.1880
 3.3150	 5.1610
 3.3180	 5.1190
 3.3200	 5.0910
 3.3220	 5.1760
 3.3240	 5.2390
 3.3260	 5.2660
 3.3280	 5.2220
 3.3300	 5.1600
 3.3330	 5.1840
 3.3350	 5.1620
 3.3370	 5.0670
 3.3390	 5.0870
 3.3410	 5.0760
 3.3430	 5.0830
 3.3450	 5.1150
 3.3480	 5.0950
 3.3500	 5.0720
 3.3520	 5.0390
 3.3540	 4.9160
 3.3560	 4.8620
 3.3580	 4.8880
 3.3610	 4.9570
 3.3630	 4.9840
 3.3650	 4.9470
 3.3670	 4.8930
 3.3690	 4.8170
 3.3720	 4.7970
 3.3740	 4.8810
 3.3760	 4.8750
 3.3780	 4.8010
 3.3800	 4.7390
 3.3830	 4.7090
 3.3850	 4.7430
 3.3870	 4.7080
 3.3890	 4.5950
 3.3910	 4.5790
 3.3940	 4.5970
 3.3960	 4.5440
 3.3980	 4.5010
 3.4000	 4.4820
 3.4020	 4.5070
 3.4050	 4.6640
 3.4070	 4.7890
 3.4090	 4.8360
 3.4110	 4.9480
 3.4140	 5.2170
 3.4160	 5.5190
 3.4180	 5.7630
 3.4200	 5.9980
 3.4230	 6.3690
 3.4250	 6.8060
 3.4270	 7.1690
 3.4290	 7.2840
 3.4320	 7.0720
 3.4340	 6.6980
 3.4360	 6.3540
 3.4390	 6.1070
 3.4410	 6.0190
 3.4430	 5.8960
 3.4450	 5.8800
 3.4480	 5.8150
 3.4500	 5.6730
 3.4520	 5.6120
 3.4550	 5.6800
 3.4570	 5.6770
 3.4590	 5.5410
 3.4620	 5.4630
 3.4640	 5.5140
 3.4660	 5.5490
 3.4680	 5.5920
 3.4710	 5.5920
 3.4730	 5.5160
 3.4750	 5.4690
 3.4780	 5.4530
 3.4800	 5.3980
 3.4820	 5.3130
 3.4850	 5.2120
 3.4870	 5.2050
 3.4890	 5.2090
 3.4920	 5.2140
 3.4940	 5.2930
 3.4970	 5.3250
 3.4990	 5.3300
 3.5010	 5.4760
 3.5040	 5.7180
 3.5060	 6.1540
 3.5080	 6.7830
 3.5110	 7.2430
 3.5130	 7.0760
 3.5160	 6.7070
 3.5180	 6.4270
 3.5200	 6.2700
 3.5230	 6.1650
 3.5250	 6.1140
 3.5270	 6.0730
 3.5300	 6.0200
 3.5320	 6.0340
 3.5350	 6.1340
 3.5370	 6.0880
 3.5400	 5.9810
 3.5420	 5.9870
 3.5440	 5.9570
 3.5470	 5.9750
 3.5490	 6.0540
 3.5520	 6.0570
 3.5540	 6.0310
 3.5570	 6.0150
 3.5590	 6.0400
 3.5610	 6.0750
 3.5640	 6.0190
 3.5660	 5.9780
 3.5690	 6.0400
 3.5710	 6.0760
 3.5740	 6.0940
 3.5760	 6.0870
 3.5790	 6.0650
 3.5810	 6.0790
 3.5840	 6.1320
 3.5860	 6.1430
 3.5890	 6.0380
 3.5910	 5.9740
 3.5930	 5.9930
 3.5960	 6.0340
 3.5980	 6.1080
 3.6010	 6.0410
 3.6030	 5.9970
 3.6060	 6.0110
 3.6080	 6.0180
 3.6110	 5.9710
 3.6140	 5.9200
 3.6160	 5.9950
 3.6190	 6.0360
 3.6210	 6.0310
 3.6240	 6.0490
 3.6260	 6.0440
 3.6290	 6.0100
 3.6310	 5.9870
 3.6340	 6.0600
 3.6360	 6.1070
 3.6390	 6.0590
 3.6410	 6.0310
 3.6440	 6.0260
 3.6470	 6.0390
 3.6490	 6.0370
 3.6520	 6.0210
 3.6540	 6.0290
 3.6570	 6.0260
 3.6590	 5.9920
 3.6620	 6.0130
 3.6650	 6.0300
 3.6670	 6.0210
 3.6700	 6.0430
 3.6720	 6.0810
 3.6750	 6.0460
 3.6780	 6.0180
 3.6800	 6.0420
 3.6830	 5.9840
 3.6850	 5.9830
 3.6880	 6.0220
 3.6910	 6.0400
 3.6930	 6.0340
 3.6960	 6.1440
 3.6990	 6.2130
 3.7010	 6.1670
 3.7040	 6.0760
 3.7060	 6.0090
 3.7090	 5.9820
 3.7120	 5.9640
 3.7140	 6.0010
 3.7170	 6.0830
 3.7200	 6.1760
 3.7220	 6.1790
 3.7250	 6.1410
 3.7280	 6.0890
 3.7300	 6.0470
 3.7330	 6.0660
 3.7360	 6.1470
 3.7390	 6.1780
 3.7410	 6.1810
 3.7440	 6.1430
 3.7470	 6.1570
 3.7490	 6.1540
 3.7520	 6.1210
 3.7550	 6.0980
 3.7580	 6.1110
 3.7600	 6.1260
 3.7630	 6.1060
 3.7660	 6.1250
 3.7680	 6.1900
 3.7710	 6.2370
 3.7740	 6.2040
 3.7770	 6.1470
 3.7790	 6.2030
 3.7820	 6.2280
 3.7850	 6.2100
 3.7880	 6.1650
 3.7900	 6.1350
 3.7930	 6.1820
 3.7960	 6.1600
 3.7990	 6.1280
 3.8020	 6.1050
 3.8040	 6.1250
 3.8070	 6.1950
 3.8100	 6.1980
 3.8130	 6.2450
 3.8160	 6.2950
 3.8180	 6.2950
 3.8210	 6.3370
 3.8240	 6.3050
 3.8270	 6.2590
 3.8300	 6.2660
 3.8330	 6.2380
 3.8350	 6.2340
 3.8380	 6.1740
 3.8410	 6.1760
 3.8440	 6.2450
 3.8470	 6.2690
 3.8500	 6.2970
 3.8520	 6.2440
 3.8550	 6.2360
 3.8580	 6.2940
 3.8610	 6.3210
 3.8640	 6.3100
 3.8670	 6.2770
 3.8700	 6.2620
 3.8730	 6.2950
 3.8750	 6.3350
 3.8780	 6.3230
 3.8810	 6.2910
 3.8840	 6.2810
 3.8870	 6.3060
 3.8900	 6.2900
 3.8930	 6.2910
 3.8960	 6.3170
 3.8990	 6.3220
 3.9020	 6.2940
 3.9050	 6.3290
 3.9080	 6.3490
 3.9110	 6.3400
 3.9140	 6.3290
 3.9160	 6.3760
 3.9190	 6.3820
 3.9220	 6.3420
 3.9250	 6.3130
 3.9280	 6.3240
 3.9310	 6.3660
 3.9340	 6.3440
 3.9370	 6.3100
 3.9400	 6.3050
 3.9430	 6.2640
 3.9460	 6.2350
 3.9490	 6.2610
 3.9520	 6.3280
 3.9550	 6.3950
 3.9580	 6.4490
 3.9610	 6.4190
 3.9640	 6.3260
 3.9670	 6.3060
 3.9700	 6.3340
 3.9730	 6.3630
 3.9770	 6.3990
 3.9800	 6.3940
 3.9830	 6.3930
 3.9860	 6.3880
 3.9890	 6.3690
 3.9920	 6.3270
 3.9950	 6.3420
 3.9980	 6.3970
 4.0010	 6.3980
 4.0040	 6.3750
 4.0070	 6.3790
 4.0100	 6.3530
 4.0130	 6.3400
 4.0170	 6.3460
 4.0200	 6.3360
 4.0230	 6.3610
 4.0260	 6.3770
 4.0290	 6.4210
 4.0320	 6.4770
 4.0350	 6.4770
 4.0380	 6.4900
 4.0420	 6.4310
 4.0450	 6.4110
 4.0480	 6.4400
 4.0510	 6.4490
 4.0540	 6.3830
 4.0570	 6.3480
 4.0610	 6.3910
 4.0640	 6.4120
 4.0670	 6.4270
 4.0700	 6.4790
 4.0730	 6.4930
 4.0770	 6.5040
 4.0800	 6.5140
 4.0830	 6.5090
 4.0860	 6.4800
 4.0890	 6.4690
 4.0930	 6.4790
 4.0960	 6.4970
 4.0990	 6.4770
 4.1020	 6.4560
 4.1060	 6.4300
 4.1090	 6.4560
 4.1120	 6.5400
 4.1150	 6.5970
 4.1190	 6.5000
 4.1220	 6.4620
 4.1250	 6.4760
 4.1280	 6.5030
 4.1320	 6.4800
 4.1350	 6.4440
 4.1380	 6.4550
 4.1420	 6.4690
 4.1450	 6.4370
 4.1480	 6.4290
 4.1520	 6.4620
 4.1550	 6.5000
 4.1580	 6.4970
 4.1620	 6.4980
 4.1650	 6.4760
 4.1680	 6.4550
 4.1720	 6.4400
 4.1750	 6.4510
 4.1780	 6.4630
 4.1820	 6.4540
 4.1850	 6.4310
 4.1890	 6.5090
 4.1920	 6.5870
 4.1950	 6.5800
 4.1990	 6.6210
 4.2020	 6.7550
 4.2060	 6.8190
 4.2090	 6.9490
 4.2120	 6.9910
 4.2160	 6.9750
 4.2190	 6.8910
 4.2230	 7.0770
 4.2260	 7.3390
 4.2300	 7.3980
 4.2330	 7.3080
 4.2360	 7.3230
 4.2400	 7.3470
 4.2430	 7.2010
 4.2470	 7.0310
 4.2500	 6.9900
 4.2540	 6.8360
 4.2570	 6.7530
 4.2610	 6.8190
 4.2640	 6.8870
 4.2680	 6.9850
 4.2710	 7.2570
 4.2750	 7.2020
 4.2780	 7.0400
 4.2820	 6.9560
 4.2850	 6.9340
 4.2890	 6.9670
 4.2930	 7.1030
 4.2960	 7.0010
 4.3000	 6.9520
 4.3030	 6.9230
 4.3070	 6.9150
 4.3100	 6.8810
 4.3140	 6.8270
 4.3180	 6.8110
 4.3210	 6.7890
 4.3250	 6.6780
 4.3280	 6.6690
 4.3320	 6.6330
 4.3360	 6.5760
 4.3390	 6.5420
 4.3430	 6.5850
 4.3470	 6.6180
 4.3500	 6.5760
 4.3540	 6.5140
 4.3570	 6.5170
 4.3610	 6.5170
 4.3650	 6.5100
 4.3680	 6.4680
 4.3720	 6.4380
 4.3760	 6.4370
 4.3800	 6.4660
 4.3830	 6.4410
 4.3870	 6.4790
 4.3910	 6.4970
 4.3940	 6.4990
 4.3980	 6.4680
 4.4020	 6.5050
 4.4060	 6.5450
 4.4090	 6.5060
 4.4130	 6.4050
 4.4170	 6.4330
 4.4210	 6.4340
 4.4240	 6.4450
 4.4280	 6.4710
 4.4320	 6.4620
 4.4360	 6.3660
 4.4400	 6.3610
 4.4430	 6.3970
 4.4470	 6.4230
 4.4510	 6.3820
 4.4550	 6.3800
 4.4590	 6.4180
 4.4620	 6.4360
 4.4660	 6.3330
 4.4700	 6.2780
 4.4740	 6.2980
 4.4780	 6.3680
 4.4820	 6.3600
 4.4860	 6.3620
 4.4900	 6.3220
 4.4930	 6.3110
 4.4970	 6.3360
 4.5010	 6.3770
 4.5050	 6.3720
 4.5090	 6.3690
 4.5130	 6.2990
 4.5170	 6.2640
 4.5210	 6.3010
 4.5250	 6.4260
 4.5290	 6.4610
 4.5330	 6.4450
 4.5370	 6.3820
 4.5410	 6.3840
 4.5450	 6.3120
 4.5490	 6.2980
 4.5530	 6.3140
 4.5570	 6.3760
 4.5610	 6.3150
 4.5650	 6.2840
 4.5690	 6.2750
 4.5730	 6.2590
 4.5770	 6.2050
 4.5810	 6.2700
 4.5850	 6.2770
 4.5890	 6.3280
 4.5930	 6.3230
 4.5970	 6.3540
 4.6010	 6.3300
 4.6050	 6.3030
 4.6090	 6.2850
 4.6130	 6.3550
 4.6170	 6.3470
 4.6220	 6.3230
 4.6260	 6.3190
 4.6300	 6.2410
 4.6340	 6.1180
 4.6380	 6.1040
 4.6420	 6.1380
 4.6460	 6.1690
 4.6510	 6.1420
 4.6550	 6.1650
 4.6590	 6.1840
 4.6630	 6.2090
 4.6670	 6.1730
 4.6720	 6.2170
 4.6760	 6.1770
 4.6800	 6.2050
 4.6840	 6.2540
 4.6880	 6.2650
 4.6930	 6.2320
 4.6970	 6.1800
 4.7010	 6.1380
 4.7050	 6.1970
 4.7100	 6.2660
 4.7140	 6.2540
 4.7180	 6.1530
 4.7230	 6.1080
 4.7270	 6.1250
 4.7310	 6.2470
 4.7360	 6.2820
 4.7400	 6.2530
 4.7440	 6.1940
 4.7490	 6.2170
 4.7530	 6.1980
 4.7570	 6.1930
 4.7620	 6.1330
 4.7660	 6.1680
 4.7700	 6.2290
 4.7750	 6.3140
 4.7790	 6.2580
 4.7840	 6.2290
 4.7880	 6.2070
 4.7920	 6.2590
 4.7970	 6.2340
 4.8010	 6.2460
 4.8060	 6.3270
 4.8100	 6.3430
 4.8150	 6.2840
 4.8190	 6.2680
 4.8240	 6.2360
 4.8280	 6.2400
 4.8330	 6.1930
 4.8370	 6.2050
 4.8420	 6.1690
 4.8460	 6.1850
 4.8510	 6.1690
 4.8550	 6.1330
 4.8600	 6.1350
 4.8640	 6.2110
 4.8690	 6.2380
 4.8730	 6.1900
 4.8780	 6.1490
 4.8830	 6.1670
 4.8870	 6.1990
 4.8920	 6.2700
 4.8960	 6.2460
 4.9010	 6.1830
 4.9060	 6.1470
 4.9100	 6.1790
 4.9150	 6.1920
 4.9200	 6.2590
 4.9240	 6.2620
 4.9290	 6.2340
 4.9340	 6.1700
 4.9380	 6.2100
 4.9430	 6.2720
 4.9480	 6.3130
 4.9530	 6.2540
 4.9570	 6.2630
 4.9620	 6.2580
 4.9670	 6.2830
 4.9720	 6.2620
 4.9760	 6.2660
 4.9810	 6.2140
 4.9860	 6.2400
 4.9910	 6.2700
 4.9960	 6.3070
 5.0000	 6.3120
 5.0050	 6.3220
 5.0100	 6.2690
 5.0150	 6.2560
 5.0200	 6.2590
 5.0250	 6.3100
 5.0290	 6.3090
 5.0340	 6.3410
 5.0390	 6.2890
 5.0440	 6.3270
 5.0490	 6.2730
 5.0540	 6.2790
 5.0590	 6.2970
 5.0640	 6.3800
 5.0690	 6.3710
 5.0740	 6.3400
 5.0790	 6.3040
 5.0840	 6.3350
 5.0890	 6.3380
 5.0940	 6.3840
 5.0990	 6.2790
 5.1040	 6.2420
 5.1090	 6.3200
 5.1140	 6.3270
 5.1190	 6.2720
 5.1240	 6.3310
 5.1290	 6.2640
 5.1340	 6.2750
 5.1390	 6.2600
 5.1440	 6.3320
 5.1490	 6.3220
 5.1540	 6.3390
 5.1600	 6.2970
 5.1650	 6.3050
 5.1700	 6.2790
 5.1750	 6.2600
 5.1800	 6.2110
 5.1850	 6.2560
 5.1910	 6.2350
 5.1960	 6.2310
 5.2010	 6.2330
 5.2060	 6.3040
 5.2110	 6.2540
 5.2170	 6.2820
 5.2220	 6.2590
 5.2270	 6.2830
 5.2320	 6.2670
 5.2380	 6.2930
 5.2430	 6.2950
 5.2480	 6.3140
 5.2540	 6.2520
 5.2590	 6.2800
 5.2640	 6.3000
 5.2700	 6.3170
 5.2750	 6.2790
 5.2800	 6.2870
 5.2860	 6.2150
 5.2910	 6.2490
 5.2970	 6.2400
 5.3020	 6.2890
 5.3070	 6.2420
 5.3130	 6.1930
 5.3180	 6.1270
 5.3240	 6.1770
 5.3290	 6.2030
 5.3350	 6.3260
 5.3400	 6.2940
 5.3460	 6.2520
 5.3510	 6.2500
 5.3570	 6.2820
 5.3620	 6.2130
 5.3680	 6.1980
 5.3730	 6.1640
 5.3790	 6.2030
 5.3850	 6.2300
 5.3900	 6.2340
 5.3960	 6.1350
 5.4010	 6.1410
 5.4070	 6.1140
 5.4130	 6.1800
 5.4180	 6.0890
 5.4240	 6.0450
 5.4300	 6.0280
 5.4350	 6.0770
 5.4410	 6.0820
 5.4470	 6.1600
 5.4530	 6.1650
 5.4580	 6.1810
 5.4640	 6.0580
 5.4700	 6.0640
 5.4760	 6.0680
 5.4810	 6.0470
 5.4870	 5.9580
 5.4930	 5.9530
 5.4990	 5.9800
 5.5050	 5.9770
 5.5110	 5.9070
 5.5160	 5.9260
 5.5220	 5.8650
 5.5280	 5.9120
 5.5340	 5.8380
 5.5400	 5.8030
 5.5460	 5.7910
 5.5520	 5.8170
 5.5580	 5.7560
 5.5640	 5.7630
 5.5700	 5.7230
 5.5760	 5.7000
 5.5820	 5.6080
 5.5880	 5.6010
 5.5940	 5.5400
 5.6000	 5.5440
 5.6060	 5.4570
 5.6120	 5.4540
 5.6180	 5.4560
 5.6240	 5.4780
 5.6300	 5.3640
 5.6360	 5.3350
 5.6420	 5.2310
 5.6490	 5.1570
 5.6550	 5.0510
 5.6610	 4.9960
 5.6670	 4.8550
 5.6730	 4.7580
 5.6800	 4.6440
 5.6860	 4.6840
 5.6920	 4.6060
 5.6980	 4.5950
 5.7040	 4.4870
 5.7110	 4.3870
 5.7170	 4.2860
 5.7230	 4.2100
 5.7300	 4.0850
 5.7360	 4.0560
 5.7420	 3.9820
 5.7490	 4.0440
 5.7550	 4.1400
 5.7620	 4.2290
 5.7680	 4.2750
 5.7740	 4.4750
 5.7810	 4.6240
 5.7870	 4.8320
 5.7940	 4.9580
 5.8000	 5.0840
 5.8070	 5.1420
 5.8130	 5.2510
 5.8200	 5.3190
 5.8260	 5.4240
 5.8330	 5.4420
 5.8390	 5.5570
 5.8460	 5.7010
 5.8530	 5.8220
 5.8590	 5.8450
 5.8660	 5.9110
 5.8720	 5.9230
 5.8790	 5.9860
 5.8860	 5.9720
 5.8920	 6.0550
 5.8990	 6.0650
 5.9060	 6.1350
 5.9130	 6.0610
 5.9190	 6.0760
 5.9260	 6.0440
 5.9330	 5.9840
 5.9400	 5.8500
 5.9470	 5.9500
 5.9530	 5.9460
 5.9600	 5.9610
 5.9670	 5.8620
 5.9740	 5.8240
 5.9810	 5.7410
 5.9880	 5.7410
 5.9950	 5.6270
 6.0020	 5.6070
 6.0090	 5.5190
 6.0160	 5.5150
 6.0230	 5.4250
 6.0300	 5.4990
 6.0370	 5.5150
 6.0440	 5.5490
 6.0510	 5.5400
 6.0580	 5.6330
 6.0650	 5.5900
 6.0720	 5.6000
 6.0790	 5.5500
 6.0860	 5.5980
 6.0930	 5.5870
 6.1000	 5.6040
 6.1080	 5.4660
 6.1150	 5.4760
 6.1220	 5.4280
 6.1290	 5.5150
 6.1370	 5.5490
 6.1440	 5.6270
 6.1510	 5.5310
 6.1580	 5.5190
 6.1660	 5.4630
 6.1730	 5.4640
 6.1800	 5.3350
 6.1880	 5.3460
 6.1950	 5.3970
 6.2030	 5.5170
 6.2100	 5.5370
 6.2170	 5.6390
 6.2250	 5.5600
 6.2320	 5.6180
 6.2400	 5.6800
 6.2470	 5.7010
 6.2550	 5.6020
 6.2630	 5.7190
 6.2700	 5.7130
 6.2780	 5.7650
 6.2850	 5.7830
 6.2930	 5.8940
 6.3010	 5.9220
 6.3080	 6.0370
 6.3160	 5.9470
 6.3240	 6.0010
 6.3310	 6.0310
 6.3390	 6.0520
 6.3470	 5.9400
 6.3550	 6.0260
 6.3620	 6.0150
 6.3700	 6.0860
 6.3780	 6.0920
 6.3860	 6.1230
 6.3940	 6.0240
 6.4020	 6.0010
 6.4100	 5.9500
 6.4180	 6.0280
 6.4260	 5.9330
 6.4330	 5.9970
 6.4410	 6.0190
 6.4490	 6.0750
 6.4580	 5.9740
 6.4660	 5.9190
 6.4740	 5.8570
 6.4820	 5.8580
 6.4900	 5.7370
 6.4980	 5.7630
 6.5060	 5.7270
 6.5140	 5.7920
 6.5230	 5.8040
 6.5310	 5.8260
 6.5390	 5.6010
 6.5470	 5.5060
 6.5550	 5.4540
 6.5640	 5.4150
 6.5720	 5.2890
 6.5800	 5.3290
 6.5890	 5.3330
 6.5970	 5.4440
 6.6060	 5.4830
 6.6140	 5.6330
 6.6220	 5.6180
 6.6310	 5.5980
 6.6390	 5.5570
 6.6480	 5.6800
 6.6560	 5.6490
 6.6650	 5.6430
 6.6740	 5.5490
 6.6820	 5.6560
 6.6910	 5.6230
 6.6990	 5.6380
 6.7080	 5.6160
 6.7170	 5.6780
 6.7260	 5.5850
 6.7340	 5.6100
 6.7430	 5.5840
 6.7520	 5.5740
 6.7610	 5.4280
 6.7690	 5.3660
 6.7780	 5.2750
 6.7870	 5.4180
 6.7960	 5.3240
 6.8050	 5.2600
 6.8140	 5.1820
 6.8230	 5.2420
 6.8320	 5.4040
 6.8410	 5.6240
 6.8500	 5.4210
 6.8590	 5.4080
 6.8680	 5.3470
 6.8770	 5.4080
 6.8860	 5.3540
 6.8950	 5.4380
 6.9050	 5.4070
 6.9140	 5.4480
 6.9230	 5.3790
 6.9320	 5.4150
 6.9420	 5.3650
 6.9510	 5.4320
 6.9600	 5.3830
 6.9700	 5.4630
 6.9790	 5.5060
 6.9880	 5.5130
 6.9980	 5.3900
 7.0070	 5.4860
 7.0170	 5.4730
 7.0260	 5.4950
 7.0360	 5.3490
 7.0450	 5.3260
 7.0550	 5.3180
 7.0650	 5.4180
 7.0740	 5.3350
 7.0840	 5.4460
 7.0940	 5.4850
 7.1030	 5.5870
 7.1130	 5.4180
 7.1230	 5.3620
 7.1330	 5.3320
 7.1420	 5.3410
 7.1520	 5.2370
 7.1620	 5.3800
 7.1720	 5.2580
 7.1820	 5.1980
 7.1920	 5.0820
 7.2020	 5.1350
 7.2120	 5.0310
 7.2220	 5.0550
 7.2320	 4.9800
 7.2420	 4.9910
 7.2520	 4.9410
 7.2620	 5.0450
 7.2730	 5.0250
 7.2830	 5.0240
 7.2930	 4.9050
 7.3030	 4.9500
 7.3140	 4.9740
 7.3240	 5.0790
 7.3340	 5.0890
 7.3450	 5.2280
 7.3550	 5.1570
 7.3660	 5.2510
 7.3760	 5.3000
 7.3870	 5.4020
 7.3970	 5.3090
 7.4080	 5.4060
 7.4180	 5.3030
 7.4290	 5.3390
 7.4400	 5.2930
 7.4500	 5.3710
 7.4610	 5.2860
 7.4720	 5.2440
 7.4830	 5.1500
 7.4930	 5.2300
 7.5040	 5.1350
 7.5150	 5.1280
 7.5260	 5.0140
 7.5370	 5.0220
 7.5480	 4.9830
 7.5590	 5.1460
 7.5700	 5.0540
 7.5810	 4.9850
 7.5920	 4.9550
 7.6030	 4.9950
 7.6140	 4.8810
 7.6260	 4.9670
 7.6370	 4.9000
 7.6480	 5.0290
 7.6590	 4.9910
 7.6710	 5.0500
 7.6820	 4.9120
 7.6930	 4.9480
 7.7050	 4.9430
 7.7160	 5.0470
 7.7280	 4.9420
 7.7390	 4.9210
 7.7510	 4.8040
 7.7630	 4.9150
 7.7740	 4.7940
 7.7860	 4.7830
 7.7980	 4.6890
 7.8090	 4.7010
 7.8210	 4.6540
 7.8330	 4.7720
 7.8450	 4.7190
 7.8570	 4.7110
 7.8690	 4.6110
 7.8810	 4.7510
 7.8930	 4.7260
 7.9050	 4.7970
 7.9170	 4.5930
 7.9290	 4.6340
 7.9410	 4.5880
 7.9530	 4.6710
 7.9650	 4.6930
 7.9780	 4.7330
 7.9900	 4.5640
 8.0020	 4.6190
 8.0150	 4.5560
 8.0270	 4.6750
 8.0390	 4.5100
 8.0520	 4.6010
 8.0640	 4.5870
 8.0770	 4.6340
 8.0900	 4.5060
 8.1020	 4.5890
 8.1150	 4.5460
 8.1280	 4.7760
 8.1400	 4.5770
 8.1530	 4.6480
 8.1660	 4.6660
 8.1790	 4.7360
 8.1920	 4.5780
 8.2050	 4.6560
 8.2180	 4.5820
 8.2310	 4.7450
 8.2440	 4.6400
 8.2570	 4.7260
 8.2700	 4.7930
 8.2830	 5.1010
 8.2970	 4.9800
 8.3100	 4.9710
 8.3230	 4.8260
 8.3370	 4.9000
 8.3500	 4.8160
 8.3640	 4.9270
 8.3770	 4.7790
 8.3910	 4.9200
 8.4040	 4.7140
 8.4180	 4.8100
 8.4320	 4.7330
 8.4450	 4.8380
 8.4590	 4.8730
 8.4730	 4.9570
 8.4870	 4.7870
 8.5010	 5.0740
 8.5150	 5.1970
 8.5290	 5.2990
 8.5430	 5.1560
 8.5570	 5.2620
 8.5710	 5.1870
 8.5850	 5.2400
 8.5990	 5.1080
 8.6140	 5.2510
 8.6280	 5.1650
 8.6420	 5.2900
 8.6570	 5.1790
 8.6710	 5.3440
 8.6860	 5.3300
 8.7000	 5.4550
 8.7150	 5.2190
 8.7300	 5.2240
 8.7440	 5.1140
 8.7590	 5.2860
 8.7740	 5.1930
 8.7890	 5.2080
 8.8040	 5.0140
 8.8190	 5.1420
 8.8340	 4.9490
 8.8490	 4.9590
 8.8640	 4.7750
 8.8790	 4.9340
 8.8940	 4.7340
 8.9100	 4.7570
 8.9250	 4.6190
 8.9400	 4.7700
 8.9560	 4.5270
 8.9710	 4.5240
 8.9870	 4.2610
 9.0020	 4.4140
 9.0180	 4.3620
 9.0340	 4.5660
 9.0500	 4.5900
 9.0650	 4.9120
 9.0810	 4.8200
 9.0970	 4.9230
 9.1130	 4.8220
 9.1290	 4.8490
 9.1450	 4.6930
 9.1610	 4.8970
 9.1780	 4.7980
 9.1940	 5.0340
 9.2100	 4.9730
 9.2270	 5.1620
 9.2430	 5.0780
 9.2600	 5.1930
 9.2760	 5.0320
 9.2930	 5.1460
 9.3090	 5.0250
 9.3260	 5.2710
 9.3430	 5.2130
 9.3600	 5.3030
 9.3770	 5.1160
 9.3940	 5.2740
 9.4110	 5.2810
 9.4280	 5.5580
 9.4450	 5.4730
 9.4620	 5.7570
 9.4800	 5.6130
 9.4970	 5.5880
 9.5140	 5.4120
 9.5320	 5.5760
 9.5500	 5.4460
 9.5670	 5.5500
 9.5850	 5.4570
 9.6030	 5.6680
 9.6200	 5.5330
 9.6380	 5.7110
 9.6560	 5.6470
 9.6740	 5.8340
 9.6920	 5.6880
 9.7100	 5.7260
 9.7290	 5.5900
 9.7470	 5.9490
 9.7650	 5.9050
 9.7840	 6.0030
 9.8020	 5.7800
 9.8210	 5.8760
 9.8390	 5.7700
 9.8580	 5.9040
 9.8770	 5.7740
 9.8960	 5.9120
 9.9150	 5.8190
 9.9340	 5.9350
 9.9530	 5.7000
 9.9720	 5.8200
 9.9910	 5.7550
10.0100	 5.9230
10.0300	 5.8600
10.0490	 5.8860
10.0690	 5.7260
10.0880	 5.8780
10.1080	 5.7050
10.1280	 5.7770
10.1480	 5.6070
10.1670	 5.7680
10.1870	 5.6960
10.2070	 5.8130
10.2280	 5.6980
10.2480	 5.8760
10.2680	 5.7270
10.2890	 5.8000
10.3090	 5.8140
10.3300	 6.0990
10.3500	 5.9450
10.3710	 5.9940
10.3920	 5.9590
10.4120	 6.2090
10.4330	 6.1550
10.4540	 6.2360
10.4760	 6.0600
10.4970	 6.2620
10.5180	 6.1840
10.5390	 6.3940
10.5610	 6.2520
10.5820	 6.3220
10.6040	 6.1900
10.6260	 6.3570
10.6480	 6.1980
10.6700	 6.3490
10.6920	 6.2540
10.7140	 6.3760
10.7360	 6.1810
10.7580	 6.3700
10.7800	 6.1980
10.8030	 6.2070
10.8250	 5.9490
10.8480	 6.0910
10.8710	 6.0110
10.8940	 6.2090
10.9170	 5.9630
10.9400	 6.0690
10.9630	 6.0900
10.9860	 6.2230
11.0090	 5.9630
11.0330	 6.0330
11.0560	 5.7080
11.0800	 5.8080
11.1040	 5.7340
11.1270	 5.9390
11.1510	 5.7740
11.1750	 5.9620
11.2000	 5.8050
11.2240	 5.7980
11.2480	 5.5120
11.2730	 5.9090
11.2970	 6.0260
11.3220	 6.1420
11.3470	 5.8290
11.3720	 6.1090
11.3970	 5.9100
11.4220	 5.9220
11.4470	 5.7070
11.4720	 5.8040
11.4980	 5.7180
11.5230	 5.9260
11.5490	 5.7560
11.5750	 5.9740
11.6000	 5.8400
11.6260	 5.9660
11.6530	 5.7690
11.6790	 5.8610
11.7050	 5.7210
11.7320	 5.9910
11.7580	 5.7510
11.7850	 5.8950
11.8120	 5.6150
11.8390	 5.7130
11.8660	 5.4580
11.8930	 5.5930
11.9200	 5.5570
11.9480	 5.7740
11.9760	 5.5910
12.0030	 5.8070
12.0310	 5.6540
12.0590	 5.9290
12.0870	 5.7390
12.1150	 6.1140
12.1440	 5.9190
12.1720	 5.9090
12.2010	 5.6390
12.2300	 5.8190
12.2590	 5.6170
12.2880	 5.9340
12.3170	 5.8570
12.3460	 5.9890
12.3760	 5.7130
12.4050	 5.9840
12.4350	 5.7170
12.4650	 5.8260
12.4950	 5.4730
12.5250	 5.7350
12.5550	 5.6780
12.5860	 5.8520
12.6170	 5.4870
12.6470	 5.6740
12.6780	 5.4880
12.7090	 5.6950
12.7410	 5.4060
12.7720	 5.6070
12.8030	 5.4120
12.8350	 5.6350
12.8670	 5.4000
12.8990	 5.7020
12.9310	 5.4480
12.9640	 5.5910
12.9960	 5.4340
13.0290	 5.7070
13.0610	 5.3020
13.0940	 5.5350
13.1280	 5.4110
13.1610	 5.5960
13.1940	 5.1390
13.2280	 5.5060
13.2620	 5.3010
13.2960	 5.3850
13.3300	 5.1810
13.3640	 5.5530
13.3990	 5.2010
13.4340	 5.2680
13.4690	 4.9900
13.5040	 5.3220
13.5390	 5.2400
13.5740	 5.4210
13.6100	 4.9570
13.6460	 5.1990
13.6820	 4.9130
13.7180	 5.1870
13.7540	 4.9040
13.7910	 5.2910
13.8280	 5.1200
13.8650	 5.5410
13.9020	 5.1640
13.9390	 5.3480
13.9770	 5.0210
14.0150	 5.1280
14.0530	 4.8330
14.0910	 5.0870
14.1290	 4.6890
14.1680	 5.3590
14.2070	 5.0210
14.2460	 5.1090
14.2850	 4.8180
14.3240	 5.1590
14.3640	 4.6440
14.4040	 4.8370
14.4440	 4.4620
14.4840	 5.0270
14.5250	 4.6610
14.5660	 4.7970
14.6070	 4.3360
14.6480	 4.9680
14.6900	 4.1920
14.7310	 4.7040
14.7730	 4.3830
14.8150	 5.0500
14.8580	 4.5580
14.9010	 5.2100
14.9440	 4.8990
14.9870	 5.2860
15.0300	 4.0940
15.0740	 4.5530
15.1180	 4.0200
15.1620	 4.5640
15.2060	 3.7620
15.2510	 4.4150
15.2960	 3.7380
15.3410	 4.5750
15.3870	 4.1980
