Name: Adenostoma fasciculatum 2
Type: vegetation
Class: Shrub
Genus: Adenostoma
Species: fasciculatum
Sample No.: VH114
Owner: UCSB
Wavelength Range: TIR
Origin: 34.5084; -119.7687; WGS84
Collection Date: 6/3/2013
Description: Samples were collected as part of the HyspIRI Airborne Campaign. 48 individual plants were sampled in three times in 2013 - spring  summer  and fall. The name of the sample includes a 1  2  or 3 which references a different individual of the species. Samples were taken to JPL and processed within 48 hours of collection. The same leaves were processed in the Nicolet and then measured using the ASD.
Measurement: Hemispherical reflectance
First Column: X
Second Column: Y
X Units: Wavelength (micrometers)
Y Units: Reflectance (percentage)
First X Value: 2.501
Last X Value: 15.387
Number of X Values: 1737
Additional Information: vegetation.shrub.adenostoma.fasciculatum.tir.vh114.ucsb.nicolet.ancillary.txt

 2.5010	 4.9620
 2.5030	 4.7690
 2.5040	 4.7340
 2.5050	 4.8030
 2.5060	 4.7780
 2.5070	 4.8800
 2.5090	 4.9530
 2.5100	 4.7550
 2.5110	 4.8630
 2.5120	 4.9700
 2.5140	 5.0190
 2.5150	 4.9600
 2.5160	 4.9440
 2.5170	 4.8470
 2.5180	 4.7960
 2.5200	 4.7190
 2.5210	 4.8370
 2.5220	 4.9300
 2.5230	 4.9810
 2.5250	 4.8500
 2.5260	 4.7630
 2.5270	 4.8710
 2.5280	 4.9950
 2.5290	 5.0270
 2.5310	 5.0140
 2.5320	 4.9010
 2.5330	 4.9670
 2.5340	 5.0160
 2.5360	 4.9690
 2.5370	 4.9280
 2.5380	 4.9800
 2.5390	 4.9830
 2.5410	 5.0750
 2.5420	 5.0160
 2.5430	 4.9820
 2.5440	 4.8800
 2.5460	 4.9140
 2.5470	 4.8990
 2.5480	 5.0320
 2.5490	 5.0100
 2.5510	 4.9520
 2.5520	 4.8500
 2.5530	 4.8960
 2.5540	 4.9530
 2.5560	 4.9880
 2.5570	 4.9110
 2.5580	 4.9940
 2.5590	 4.9800
 2.5610	 5.0040
 2.5620	 4.9510
 2.5630	 4.8640
 2.5640	 4.6990
 2.5660	 4.7920
 2.5670	 5.0050
 2.5680	 5.0250
 2.5700	 4.9190
 2.5710	 4.9220
 2.5720	 5.0070
 2.5730	 5.0720
 2.5750	 4.9440
 2.5760	 4.9200
 2.5770	 4.8330
 2.5790	 4.9440
 2.5800	 4.9590
 2.5810	 4.9650
 2.5820	 4.9250
 2.5840	 4.7990
 2.5850	 4.7180
 2.5860	 4.7270
 2.5880	 4.8200
 2.5890	 4.8570
 2.5900	 4.7720
 2.5910	 4.8770
 2.5930	 4.8210
 2.5940	 4.9870
 2.5950	 4.9980
 2.5970	 4.9570
 2.5980	 4.8390
 2.5990	 4.8380
 2.6000	 4.8160
 2.6020	 4.8770
 2.6030	 4.9580
 2.6040	 4.9860
 2.6060	 4.9110
 2.6070	 4.8620
 2.6080	 4.8080
 2.6100	 4.8450
 2.6110	 4.7560
 2.6120	 4.8070
 2.6140	 4.6800
 2.6150	 4.7140
 2.6160	 4.8510
 2.6180	 4.8780
 2.6190	 4.7140
 2.6200	 4.5870
 2.6220	 4.5890
 2.6230	 4.5960
 2.6240	 4.5440
 2.6260	 4.6020
 2.6270	 4.6170
 2.6280	 4.6200
 2.6300	 4.4670
 2.6310	 4.4700
 2.6320	 4.4570
 2.6340	 4.5070
 2.6350	 4.4480
 2.6360	 4.4550
 2.6380	 4.4180
 2.6390	 4.3690
 2.6400	 4.2920
 2.6420	 4.2630
 2.6430	 4.2470
 2.6440	 4.3070
 2.6460	 4.2990
 2.6470	 4.3900
 2.6480	 4.3170
 2.6500	 4.2060
 2.6510	 4.2660
 2.6520	 4.2400
 2.6540	 4.1210
 2.6550	 4.2080
 2.6560	 4.1380
 2.6580	 4.1020
 2.6590	 3.9980
 2.6610	 3.8950
 2.6620	 3.8150
 2.6630	 3.9470
 2.6650	 3.9990
 2.6660	 4.0670
 2.6670	 4.0070
 2.6690	 3.9500
 2.6700	 3.8150
 2.6720	 3.7730
 2.6730	 3.6950
 2.6740	 3.6690
 2.6760	 3.6050
 2.6770	 3.7070
 2.6780	 3.6880
 2.6800	 3.7370
 2.6810	 3.7100
 2.6830	 3.6070
 2.6840	 3.4750
 2.6850	 3.4570
 2.6870	 3.5770
 2.6880	 3.7160
 2.6900	 3.5690
 2.6910	 3.4170
 2.6920	 3.2680
 2.6940	 3.2630
 2.6950	 3.2400
 2.6970	 3.2770
 2.6980	 3.2100
 2.6990	 3.2410
 2.7010	 3.0900
 2.7020	 3.0740
 2.7040	 3.1070
 2.7050	 3.0510
 2.7060	 3.0590
 2.7080	 3.1060
 2.7090	 2.9380
 2.7110	 2.9570
 2.7120	 3.0030
 2.7130	 2.9870
 2.7150	 2.8230
 2.7160	 2.8920
 2.7180	 2.9790
 2.7190	 3.0270
 2.7210	 2.8980
 2.7220	 2.8470
 2.7230	 2.7500
 2.7250	 2.6850
 2.7260	 2.6170
 2.7280	 2.6700
 2.7290	 2.6650
 2.7310	 2.6770
 2.7320	 2.5170
 2.7330	 2.5410
 2.7350	 2.5150
 2.7360	 2.5540
 2.7380	 2.4980
 2.7390	 2.5030
 2.7410	 2.6130
 2.7420	 2.6620
 2.7440	 2.5030
 2.7450	 2.4830
 2.7470	 2.3950
 2.7480	 2.4200
 2.7490	 2.3730
 2.7510	 2.2970
 2.7520	 2.2620
 2.7540	 2.3870
 2.7550	 2.3290
 2.7570	 2.3050
 2.7580	 2.2340
 2.7600	 2.2620
 2.7610	 2.3030
 2.7630	 2.3780
 2.7640	 2.2820
 2.7660	 2.3130
 2.7670	 2.3600
 2.7680	 2.4800
 2.7700	 2.3950
 2.7710	 2.4590
 2.7730	 2.5510
 2.7740	 2.4060
 2.7760	 2.3200
 2.7770	 2.4170
 2.7790	 2.4310
 2.7800	 2.4570
 2.7820	 2.2470
 2.7830	 2.3170
 2.7850	 2.4240
 2.7860	 2.4420
 2.7880	 2.4450
 2.7890	 2.4550
 2.7910	 2.3140
 2.7920	 2.3870
 2.7940	 2.3350
 2.7950	 2.3770
 2.7970	 2.4160
 2.7980	 2.3780
 2.8000	 2.3090
 2.8010	 2.3870
 2.8030	 2.2740
 2.8040	 2.3100
 2.8060	 2.3470
 2.8070	 2.4740
 2.8090	 2.3270
 2.8110	 2.2360
 2.8120	 2.3210
 2.8140	 2.3140
 2.8150	 2.3720
 2.8170	 2.4070
 2.8180	 2.2770
 2.8200	 2.2630
 2.8210	 2.2150
 2.8230	 2.3220
 2.8240	 2.2830
 2.8260	 2.2150
 2.8270	 2.0610
 2.8290	 2.1920
 2.8300	 2.2280
 2.8320	 2.3060
 2.8340	 2.3220
 2.8350	 2.3410
 2.8370	 2.2650
 2.8380	 2.1710
 2.8400	 2.2280
 2.8410	 2.4100
 2.8430	 2.4050
 2.8440	 2.4950
 2.8460	 2.3370
 2.8480	 2.2610
 2.8490	 2.3190
 2.8510	 2.3490
 2.8520	 2.3370
 2.8540	 2.3390
 2.8550	 2.2050
 2.8570	 2.2100
 2.8590	 2.1810
 2.8600	 2.2250
 2.8620	 2.2230
 2.8630	 2.3940
 2.8650	 2.4650
 2.8660	 2.5410
 2.8680	 2.5120
 2.8700	 2.4410
 2.8710	 2.2660
 2.8730	 2.2250
 2.8740	 2.2130
 2.8760	 2.2410
 2.8780	 2.3290
 2.8790	 2.4540
 2.8810	 2.3430
 2.8820	 2.3210
 2.8840	 2.2010
 2.8860	 2.3180
 2.8870	 2.5080
 2.8890	 2.4370
 2.8900	 2.4320
 2.8920	 2.4110
 2.8940	 2.3150
 2.8950	 2.4090
 2.8970	 2.3610
 2.8980	 2.4390
 2.9000	 2.3660
 2.9020	 2.4620
 2.9030	 2.4540
 2.9050	 2.4450
 2.9070	 2.3010
 2.9080	 2.3540
 2.9100	 2.3600
 2.9120	 2.3430
 2.9130	 2.4400
 2.9150	 2.3880
 2.9160	 2.3250
 2.9180	 2.4080
 2.9200	 2.2060
 2.9210	 2.1810
 2.9230	 2.2060
 2.9250	 2.3550
 2.9260	 2.3460
 2.9280	 2.2910
 2.9300	 2.3080
 2.9310	 2.3030
 2.9330	 2.2580
 2.9350	 2.2720
 2.9360	 2.2130
 2.9380	 2.3090
 2.9400	 2.4170
 2.9410	 2.4170
 2.9430	 2.1990
 2.9450	 2.2050
 2.9460	 2.1940
 2.9480	 2.3090
 2.9500	 2.3880
 2.9510	 2.4220
 2.9530	 2.4360
 2.9550	 2.3930
 2.9560	 2.2550
 2.9580	 2.3400
 2.9600	 2.4050
 2.9610	 2.4700
 2.9630	 2.4670
 2.9650	 2.5280
 2.9660	 2.4360
 2.9680	 2.3910
 2.9700	 2.4080
 2.9720	 2.4810
 2.9730	 2.4160
 2.9750	 2.4800
 2.9770	 2.4740
 2.9780	 2.5000
 2.9800	 2.4560
 2.9820	 2.3030
 2.9840	 2.2500
 2.9850	 2.3970
 2.9870	 2.4840
 2.9890	 2.5840
 2.9900	 2.5620
 2.9920	 2.6440
 2.9940	 2.5750
 2.9960	 2.4990
 2.9970	 2.4800
 2.9990	 2.5450
 3.0010	 2.4710
 3.0030	 2.4470
 3.0040	 2.3650
 3.0060	 2.4480
 3.0080	 2.4550
 3.0100	 2.4850
 3.0110	 2.3850
 3.0130	 2.3990
 3.0150	 2.4530
 3.0170	 2.5120
 3.0180	 2.4450
 3.0200	 2.3680
 3.0220	 2.2230
 3.0240	 2.2230
 3.0250	 2.3450
 3.0270	 2.5440
 3.0290	 2.5350
 3.0310	 2.4790
 3.0320	 2.3000
 3.0340	 2.3720
 3.0360	 2.4200
 3.0380	 2.4030
 3.0400	 2.4390
 3.0410	 2.4470
 3.0430	 2.3670
 3.0450	 2.3980
 3.0470	 2.3920
 3.0480	 2.4930
 3.0500	 2.4060
 3.0520	 2.4360
 3.0540	 2.4920
 3.0560	 2.4830
 3.0570	 2.3050
 3.0590	 2.3590
 3.0610	 2.3400
 3.0630	 2.2010
 3.0650	 2.2500
 3.0660	 2.3690
 3.0680	 2.4820
 3.0700	 2.4730
 3.0720	 2.3460
 3.0740	 2.4300
 3.0760	 2.3480
 3.0770	 2.4180
 3.0790	 2.4580
 3.0810	 2.5210
 3.0830	 2.6040
 3.0850	 2.5620
 3.0870	 2.4750
 3.0880	 2.4580
 3.0900	 2.3810
 3.0920	 2.4130
 3.0940	 2.4920
 3.0960	 2.6050
 3.0980	 2.5000
 3.0990	 2.5150
 3.1010	 2.4450
 3.1030	 2.5200
 3.1050	 2.5200
 3.1070	 2.5660
 3.1090	 2.5050
 3.1110	 2.4650
 3.1120	 2.4210
 3.1140	 2.4660
 3.1160	 2.4620
 3.1180	 2.4410
 3.1200	 2.4730
 3.1220	 2.5740
 3.1240	 2.5430
 3.1260	 2.5360
 3.1270	 2.4740
 3.1290	 2.4140
 3.1310	 2.2510
 3.1330	 2.3060
 3.1350	 2.3660
 3.1370	 2.4250
 3.1390	 2.4340
 3.1410	 2.4230
 3.1430	 2.4290
 3.1450	 2.5140
 3.1460	 2.4820
 3.1480	 2.4460
 3.1500	 2.3060
 3.1520	 2.3930
 3.1540	 2.4420
 3.1560	 2.4510
 3.1580	 2.3590
 3.1600	 2.3240
 3.1620	 2.3610
 3.1640	 2.4910
 3.1660	 2.4540
 3.1680	 2.4940
 3.1700	 2.5070
 3.1710	 2.5540
 3.1730	 2.5220
 3.1750	 2.4070
 3.1770	 2.3090
 3.1790	 2.3370
 3.1810	 2.3380
 3.1830	 2.4460
 3.1850	 2.4710
 3.1870	 2.5040
 3.1890	 2.4510
 3.1910	 2.4850
 3.1930	 2.3960
 3.1950	 2.5250
 3.1970	 2.6100
 3.1990	 2.6210
 3.2010	 2.5090
 3.2030	 2.4210
 3.2050	 2.4890
 3.2070	 2.5300
 3.2090	 2.4570
 3.2110	 2.5470
 3.2130	 2.4950
 3.2150	 2.5000
 3.2170	 2.3490
 3.2190	 2.3690
 3.2210	 2.4470
 3.2230	 2.5500
 3.2250	 2.5460
 3.2270	 2.5770
 3.2290	 2.5190
 3.2310	 2.5020
 3.2330	 2.4790
 3.2350	 2.4800
 3.2370	 2.5260
 3.2390	 2.6320
 3.2410	 2.5330
 3.2430	 2.4590
 3.2450	 2.4300
 3.2470	 2.4720
 3.2490	 2.4140
 3.2510	 2.3980
 3.2530	 2.4130
 3.2550	 2.4460
 3.2570	 2.3810
 3.2590	 2.3460
 3.2610	 2.3630
 3.2630	 2.4440
 3.2650	 2.3590
 3.2670	 2.3460
 3.2690	 2.4230
 3.2720	 2.4680
 3.2740	 2.4500
 3.2760	 2.4310
 3.2780	 2.3040
 3.2800	 2.3290
 3.2820	 2.2820
 3.2840	 2.3860
 3.2860	 2.5470
 3.2880	 2.5230
 3.2900	 2.3930
 3.2920	 2.3990
 3.2940	 2.3940
 3.2960	 2.4350
 3.2990	 2.4220
 3.3010	 2.4470
 3.3030	 2.5290
 3.3050	 2.5560
 3.3070	 2.4320
 3.3090	 2.3970
 3.3110	 2.3560
 3.3130	 2.4300
 3.3150	 2.4010
 3.3180	 2.4550
 3.3200	 2.4820
 3.3220	 2.4670
 3.3240	 2.3150
 3.3260	 2.3260
 3.3280	 2.3270
 3.3300	 2.3390
 3.3330	 2.3580
 3.3350	 2.4470
 3.3370	 2.4540
 3.3390	 2.4300
 3.3410	 2.3200
 3.3430	 2.3530
 3.3450	 2.3700
 3.3480	 2.4360
 3.3500	 2.3850
 3.3520	 2.3650
 3.3540	 2.3890
 3.3560	 2.3740
 3.3580	 2.3250
 3.3610	 2.3140
 3.3630	 2.3120
 3.3650	 2.3410
 3.3670	 2.3740
 3.3690	 2.4360
 3.3720	 2.3830
 3.3740	 2.3600
 3.3760	 2.3000
 3.3780	 2.3300
 3.3800	 2.2860
 3.3830	 2.3360
 3.3850	 2.3690
 3.3870	 2.3950
 3.3890	 2.3190
 3.3910	 2.0940
 3.3940	 2.0790
 3.3960	 2.2380
 3.3980	 2.2450
 3.4000	 2.3140
 3.4020	 2.2650
 3.4050	 2.2760
 3.4070	 2.2790
 3.4090	 2.3260
 3.4110	 2.4120
 3.4140	 2.5670
 3.4160	 2.6400
 3.4180	 2.7350
 3.4200	 2.8690
 3.4230	 3.0640
 3.4250	 3.2460
 3.4270	 3.4900
 3.4290	 3.6570
 3.4320	 3.6880
 3.4340	 3.4630
 3.4360	 3.2600
 3.4390	 3.0010
 3.4410	 2.9460
 3.4430	 2.8500
 3.4450	 2.7660
 3.4480	 2.7890
 3.4500	 2.8580
 3.4520	 2.8690
 3.4550	 2.9060
 3.4570	 2.8420
 3.4590	 2.8260
 3.4620	 2.7810
 3.4640	 2.7850
 3.4660	 2.8280
 3.4680	 2.8790
 3.4710	 2.8590
 3.4730	 2.8430
 3.4750	 2.7590
 3.4780	 2.6460
 3.4800	 2.5660
 3.4820	 2.6570
 3.4850	 2.7430
 3.4870	 2.7910
 3.4890	 2.7110
 3.4920	 2.6810
 3.4940	 2.6010
 3.4970	 2.6160
 3.4990	 2.6560
 3.5010	 2.7280
 3.5040	 2.8320
 3.5060	 3.0330
 3.5080	 3.3170
 3.5110	 3.5810
 3.5130	 3.5040
 3.5160	 3.3560
 3.5180	 3.1630
 3.5200	 3.0850
 3.5230	 3.0100
 3.5250	 2.9220
 3.5270	 2.7880
 3.5300	 2.7480
 3.5320	 2.7550
 3.5350	 2.7940
 3.5370	 2.8080
 3.5400	 2.8250
 3.5420	 2.8070
 3.5440	 2.8400
 3.5470	 2.7660
 3.5490	 2.7910
 3.5520	 2.7590
 3.5540	 2.8170
 3.5570	 2.7670
 3.5590	 2.7350
 3.5610	 2.8200
 3.5640	 2.8090
 3.5660	 2.7490
 3.5690	 2.7650
 3.5710	 2.7470
 3.5740	 2.8040
 3.5760	 2.8030
 3.5790	 2.8130
 3.5810	 2.7660
 3.5840	 2.7750
 3.5860	 2.7270
 3.5890	 2.7980
 3.5910	 2.7850
 3.5930	 2.7950
 3.5960	 2.8570
 3.5980	 2.8900
 3.6010	 2.8890
 3.6030	 2.8820
 3.6060	 2.8500
 3.6080	 2.8970
 3.6110	 2.8860
 3.6140	 2.9400
 3.6160	 2.9050
 3.6190	 2.8650
 3.6210	 2.8380
 3.6240	 2.8480
 3.6260	 2.8570
 3.6290	 2.9140
 3.6310	 2.8750
 3.6340	 2.9630
 3.6360	 3.0410
 3.6390	 2.9840
 3.6410	 2.9120
 3.6440	 2.9120
 3.6470	 2.8560
 3.6490	 2.8610
 3.6520	 2.8580
 3.6540	 2.8980
 3.6570	 2.8790
 3.6590	 2.8620
 3.6620	 2.8000
 3.6650	 2.7830
 3.6670	 2.8190
 3.6700	 2.8950
 3.6720	 2.8600
 3.6750	 2.9070
 3.6780	 2.8730
 3.6800	 2.8290
 3.6830	 2.8560
 3.6850	 2.8290
 3.6880	 2.8100
 3.6910	 2.8890
 3.6930	 2.8750
 3.6960	 2.9100
 3.6990	 2.8720
 3.7010	 2.8890
 3.7040	 2.8760
 3.7060	 2.8700
 3.7090	 2.8540
 3.7120	 2.8820
 3.7140	 2.8270
 3.7170	 2.8050
 3.7200	 2.7890
 3.7220	 2.7960
 3.7250	 2.8410
 3.7280	 2.8750
 3.7300	 2.9120
 3.7330	 2.9680
 3.7360	 2.9090
 3.7390	 2.9060
 3.7410	 2.8580
 3.7440	 2.9210
 3.7470	 2.9390
 3.7490	 2.9600
 3.7520	 3.0260
 3.7550	 3.0010
 3.7580	 2.9200
 3.7600	 2.9080
 3.7630	 2.9620
 3.7660	 2.9840
 3.7680	 2.9420
 3.7710	 3.0390
 3.7740	 3.0510
 3.7770	 3.0330
 3.7790	 2.9620
 3.7820	 3.0190
 3.7850	 2.9860
 3.7880	 2.9690
 3.7900	 3.0520
 3.7930	 3.0850
 3.7960	 3.0820
 3.7990	 3.0690
 3.8020	 3.0220
 3.8040	 2.9730
 3.8070	 2.9840
 3.8100	 3.1250
 3.8130	 3.1250
 3.8160	 3.0530
 3.8180	 3.0130
 3.8210	 3.0460
 3.8240	 2.9880
 3.8270	 3.0450
 3.8300	 3.0980
 3.8330	 3.1220
 3.8350	 3.1290
 3.8380	 3.0900
 3.8410	 3.0280
 3.8440	 2.9640
 3.8470	 2.9480
 3.8500	 3.0210
 3.8520	 3.0010
 3.8550	 3.0590
 3.8580	 3.1330
 3.8610	 3.0550
 3.8640	 3.0200
 3.8670	 3.0690
 3.8700	 3.0440
 3.8730	 3.0500
 3.8750	 3.0490
 3.8780	 3.0870
 3.8810	 3.1010
 3.8840	 3.1010
 3.8870	 3.0450
 3.8900	 2.9580
 3.8930	 2.9810
 3.8960	 3.1060
 3.8990	 3.1350
 3.9020	 3.1830
 3.9050	 3.1830
 3.9080	 3.1470
 3.9110	 3.0870
 3.9140	 3.0640
 3.9160	 3.0390
 3.9190	 3.1200
 3.9220	 3.1460
 3.9250	 3.1710
 3.9280	 3.1960
 3.9310	 3.1440
 3.9340	 3.1170
 3.9370	 3.1010
 3.9400	 3.1440
 3.9430	 3.2200
 3.9460	 3.1950
 3.9490	 3.2360
 3.9520	 3.2110
 3.9550	 3.1360
 3.9580	 3.0700
 3.9610	 3.0910
 3.9640	 3.1740
 3.9670	 3.2490
 3.9700	 3.2350
 3.9730	 3.2660
 3.9770	 3.2730
 3.9800	 3.1650
 3.9830	 3.1880
 3.9860	 3.2780
 3.9890	 3.2310
 3.9920	 3.2620
 3.9950	 3.2600
 3.9980	 3.2360
 4.0010	 3.2360
 4.0040	 3.2640
 4.0070	 3.2800
 4.0100	 3.2270
 4.0130	 3.2100
 4.0170	 3.2240
 4.0200	 3.2220
 4.0230	 3.1990
 4.0260	 3.1680
 4.0290	 3.1700
 4.0320	 3.1990
 4.0350	 3.2490
 4.0380	 3.1730
 4.0420	 3.1630
 4.0450	 3.1840
 4.0480	 3.2370
 4.0510	 3.2380
 4.0540	 3.2020
 4.0570	 3.1850
 4.0610	 3.2410
 4.0640	 3.2790
 4.0670	 3.3160
 4.0700	 3.2450
 4.0730	 3.2050
 4.0770	 3.2180
 4.0800	 3.2320
 4.0830	 3.2740
 4.0860	 3.2960
 4.0890	 3.2390
 4.0930	 3.2960
 4.0960	 3.3320
 4.0990	 3.3350
 4.1020	 3.3580
 4.1060	 3.3650
 4.1090	 3.3010
 4.1120	 3.2820
 4.1150	 3.2830
 4.1190	 3.3050
 4.1220	 3.3060
 4.1250	 3.2830
 4.1280	 3.2820
 4.1320	 3.3300
 4.1350	 3.4160
 4.1380	 3.4510
 4.1420	 3.4040
 4.1450	 3.3120
 4.1480	 3.2880
 4.1520	 3.3840
 4.1550	 3.3960
 4.1580	 3.3940
 4.1620	 3.3770
 4.1650	 3.3090
 4.1680	 3.2780
 4.1720	 3.2920
 4.1750	 3.3400
 4.1780	 3.4000
 4.1820	 3.4030
 4.1850	 3.3830
 4.1890	 3.3430
 4.1920	 3.3810
 4.1950	 3.3860
 4.1990	 3.4070
 4.2020	 3.4200
 4.2060	 3.4690
 4.2090	 3.5440
 4.2120	 3.5440
 4.2160	 3.5740
 4.2190	 3.5450
 4.2230	 3.5880
 4.2260	 3.7070
 4.2300	 3.7170
 4.2330	 3.8070
 4.2360	 3.7620
 4.2400	 3.7430
 4.2430	 3.4470
 4.2470	 3.3970
 4.2500	 3.5040
 4.2540	 3.4100
 4.2570	 3.3740
 4.2610	 3.4820
 4.2640	 3.5600
 4.2680	 3.5030
 4.2710	 3.4940
 4.2750	 3.5220
 4.2780	 3.4970
 4.2820	 3.5020
 4.2850	 3.4000
 4.2890	 3.4840
 4.2930	 3.5230
 4.2960	 3.5330
 4.3000	 3.4660
 4.3030	 3.3910
 4.3070	 3.4640
 4.3100	 3.5340
 4.3140	 3.4470
 4.3180	 3.3830
 4.3210	 3.3730
 4.3250	 3.3910
 4.3280	 3.3910
 4.3320	 3.3750
 4.3360	 3.3090
 4.3390	 3.2980
 4.3430	 3.2210
 4.3470	 3.2010
 4.3500	 3.1820
 4.3540	 3.1900
 4.3570	 3.2890
 4.3610	 3.3160
 4.3650	 3.3100
 4.3680	 3.2800
 4.3720	 3.2770
 4.3760	 3.2730
 4.3800	 3.1790
 4.3830	 3.1110
 4.3870	 3.1460
 4.3910	 3.1630
 4.3940	 3.2070
 4.3980	 3.2280
 4.4020	 3.2210
 4.4060	 3.2050
 4.4090	 3.1260
 4.4130	 3.1060
 4.4170	 3.1690
 4.4210	 3.2150
 4.4240	 3.2490
 4.4280	 3.2450
 4.4320	 3.2210
 4.4360	 3.1790
 4.4400	 3.1200
 4.4430	 3.1320
 4.4470	 3.1690
 4.4510	 3.1280
 4.4550	 3.1280
 4.4590	 3.1520
 4.4620	 3.0720
 4.4660	 3.0330
 4.4700	 3.0100
 4.4740	 3.0450
 4.4780	 3.0880
 4.4820	 3.1180
 4.4860	 3.1270
 4.4900	 3.0880
 4.4930	 3.0870
 4.4970	 3.0500
 4.5010	 3.0020
 4.5050	 3.0350
 4.5090	 3.0810
 4.5130	 3.0690
 4.5170	 3.0730
 4.5210	 3.0890
 4.5250	 3.0290
 4.5290	 3.0530
 4.5330	 3.1010
 4.5370	 3.1320
 4.5410	 3.1580
 4.5450	 3.0540
 4.5490	 3.0520
 4.5530	 3.0360
 4.5570	 3.0040
 4.5610	 3.0830
 4.5650	 3.0930
 4.5690	 3.0960
 4.5730	 3.0590
 4.5770	 3.0350
 4.5810	 3.0410
 4.5850	 3.0560
 4.5890	 3.0930
 4.5930	 3.0720
 4.5970	 3.0730
 4.6010	 3.0790
 4.6050	 3.1120
 4.6090	 3.0480
 4.6130	 2.9880
 4.6170	 3.0620
 4.6220	 3.1040
 4.6260	 3.1010
 4.6300	 3.0300
 4.6340	 2.9840
 4.6380	 2.9800
 4.6420	 2.9420
 4.6460	 2.9570
 4.6510	 2.9290
 4.6550	 2.9110
 4.6590	 2.9730
 4.6630	 3.0380
 4.6670	 3.0390
 4.6720	 3.0200
 4.6760	 2.9990
 4.6800	 2.9700
 4.6840	 2.9640
 4.6880	 2.9800
 4.6930	 3.0110
 4.6970	 3.0250
 4.7010	 3.0050
 4.7050	 3.0070
 4.7100	 2.9970
 4.7140	 2.9780
 4.7180	 2.9790
 4.7230	 3.0260
 4.7270	 3.0590
 4.7310	 3.0390
 4.7360	 2.9720
 4.7400	 2.9220
 4.7440	 2.9170
 4.7490	 2.9720
 4.7530	 2.9780
 4.7570	 2.9900
 4.7620	 3.0130
 4.7660	 2.9970
 4.7700	 3.0270
 4.7750	 2.9820
 4.7790	 2.9200
 4.7840	 2.8750
 4.7880	 2.8940
 4.7920	 2.9920
 4.7970	 3.0310
 4.8010	 2.9780
 4.8060	 2.9030
 4.8100	 2.9540
 4.8150	 3.0040
 4.8190	 3.0120
 4.8240	 2.9620
 4.8280	 2.9270
 4.8330	 2.9640
 4.8370	 2.9430
 4.8420	 2.9230
 4.8460	 2.9670
 4.8510	 3.0150
 4.8550	 3.1180
 4.8600	 3.0890
 4.8640	 3.0800
 4.8690	 3.0810
 4.8730	 3.0130
 4.8780	 2.9660
 4.8830	 2.9710
 4.8870	 3.0570
 4.8920	 3.1020
 4.8960	 3.1080
 4.9010	 3.0740
 4.9060	 3.0350
 4.9100	 3.0010
 4.9150	 2.9710
 4.9200	 3.0430
 4.9240	 3.0210
 4.9290	 3.0810
 4.9340	 3.0490
 4.9380	 3.0420
 4.9430	 3.0470
 4.9480	 2.9730
 4.9530	 3.0010
 4.9570	 3.0310
 4.9620	 3.0510
 4.9670	 3.0990
 4.9720	 3.0480
 4.9760	 3.0220
 4.9810	 3.0050
 4.9860	 3.0030
 4.9910	 3.0350
 4.9960	 3.0580
 5.0000	 3.0040
 5.0050	 3.0300
 5.0100	 3.0330
 5.0150	 3.0260
 5.0200	 3.0390
 5.0250	 2.9820
 5.0290	 2.9980
 5.0340	 3.0890
 5.0390	 3.0960
 5.0440	 3.0820
 5.0490	 3.0390
 5.0540	 3.0530
 5.0590	 3.0300
 5.0640	 3.0030
 5.0690	 3.0370
 5.0740	 3.0850
 5.0790	 3.0710
 5.0840	 3.0910
 5.0890	 3.0690
 5.0940	 3.0540
 5.0990	 3.0390
 5.1040	 3.0340
 5.1090	 3.0670
 5.1140	 3.1430
 5.1190	 3.1740
 5.1240	 3.1400
 5.1290	 3.0550
 5.1340	 3.0300
 5.1390	 3.0530
 5.1440	 3.1060
 5.1490	 3.1340
 5.1540	 3.1410
 5.1600	 3.0870
 5.1650	 3.1100
 5.1700	 3.0500
 5.1750	 3.0060
 5.1800	 3.0180
 5.1850	 3.0630
 5.1910	 3.1240
 5.1960	 3.1080
 5.2010	 3.0860
 5.2060	 3.0940
 5.2110	 3.0690
 5.2170	 3.1110
 5.2220	 3.1510
 5.2270	 3.1590
 5.2320	 3.0990
 5.2380	 3.0910
 5.2430	 3.0200
 5.2480	 3.0550
 5.2540	 3.0660
 5.2590	 3.1170
 5.2640	 3.1510
 5.2700	 3.0750
 5.2750	 3.0420
 5.2800	 3.0370
 5.2860	 2.9780
 5.2910	 2.9860
 5.2970	 2.9550
 5.3020	 3.0050
 5.3070	 2.9900
 5.3130	 3.0030
 5.3180	 2.9920
 5.3240	 2.9810
 5.3290	 2.9720
 5.3350	 2.9330
 5.3400	 2.9270
 5.3460	 2.9560
 5.3510	 2.9560
 5.3570	 2.9520
 5.3620	 2.8600
 5.3680	 2.8780
 5.3730	 2.8680
 5.3790	 2.9640
 5.3850	 2.9680
 5.3900	 3.0160
 5.3960	 3.0470
 5.4010	 3.0050
 5.4070	 2.9210
 5.4130	 2.8960
 5.4180	 2.9030
 5.4240	 2.9200
 5.4300	 2.9290
 5.4350	 2.9710
 5.4410	 2.9110
 5.4470	 2.8980
 5.4530	 2.9130
 5.4580	 2.9260
 5.4640	 2.8940
 5.4700	 2.9290
 5.4760	 2.9390
 5.4810	 2.9570
 5.4870	 2.8660
 5.4930	 2.8530
 5.4990	 2.8520
 5.5050	 2.8500
 5.5110	 2.8450
 5.5160	 2.9020
 5.5220	 2.8370
 5.5280	 2.8170
 5.5340	 2.7860
 5.5400	 2.6950
 5.5460	 2.6620
 5.5520	 2.7620
 5.5580	 2.7640
 5.5640	 2.7210
 5.5700	 2.7140
 5.5760	 2.7910
 5.5820	 2.6920
 5.5880	 2.5780
 5.5940	 2.5590
 5.6000	 2.6020
 5.6060	 2.6450
 5.6120	 2.6370
 5.6180	 2.5090
 5.6240	 2.4740
 5.6300	 2.4320
 5.6360	 2.4190
 5.6420	 2.3710
 5.6490	 2.4140
 5.6550	 2.4270
 5.6610	 2.4020
 5.6670	 2.2650
 5.6730	 2.2750
 5.6800	 2.2280
 5.6860	 2.1510
 5.6920	 2.1020
 5.6980	 2.0670
 5.7040	 2.0950
 5.7110	 2.1350
 5.7170	 2.0280
 5.7230	 2.0270
 5.7300	 1.9730
 5.7360	 1.9660
 5.7420	 1.9350
 5.7490	 2.0140
 5.7550	 2.0460
 5.7620	 2.0810
 5.7680	 2.0600
 5.7740	 2.0600
 5.7810	 2.0860
 5.7870	 2.1480
 5.7940	 2.2220
 5.8000	 2.2740
 5.8070	 2.2660
 5.8130	 2.2820
 5.8200	 2.2020
 5.8260	 2.2780
 5.8330	 2.2860
 5.8390	 2.4040
 5.8460	 2.4630
 5.8530	 2.4640
 5.8590	 2.4580
 5.8660	 2.4230
 5.8720	 2.3110
 5.8790	 2.2970
 5.8860	 2.3230
 5.8920	 2.4120
 5.8990	 2.3810
 5.9060	 2.3550
 5.9130	 2.3670
 5.9190	 2.4340
 5.9260	 2.3550
 5.9330	 2.4910
 5.9400	 2.5750
 5.9470	 2.6280
 5.9530	 2.5960
 5.9600	 2.4940
 5.9670	 2.4310
 5.9740	 2.4890
 5.9810	 2.5860
 5.9880	 2.6910
 5.9950	 2.5560
 6.0020	 2.5230
 6.0090	 2.5520
 6.0160	 2.5380
 6.0230	 2.4490
 6.0300	 2.4620
 6.0370	 2.4050
 6.0440	 2.5150
 6.0510	 2.4700
 6.0580	 2.4870
 6.0650	 2.4730
 6.0720	 2.4390
 6.0790	 2.3980
 6.0860	 2.4940
 6.0930	 2.4490
 6.1000	 2.4630
 6.1080	 2.4780
 6.1150	 2.5890
 6.1220	 2.5410
 6.1290	 2.5070
 6.1370	 2.4470
 6.1440	 2.4780
 6.1510	 2.4670
 6.1580	 2.5520
 6.1660	 2.4290
 6.1730	 2.4400
 6.1800	 2.4550
 6.1880	 2.3970
 6.1950	 2.4260
 6.2030	 2.5270
 6.2100	 2.5070
 6.2170	 2.5630
 6.2250	 2.5450
 6.2320	 2.5510
 6.2400	 2.5100
 6.2470	 2.5330
 6.2550	 2.5120
 6.2630	 2.6580
 6.2700	 2.6280
 6.2780	 2.5900
 6.2850	 2.5050
 6.2930	 2.5240
 6.3010	 2.5420
 6.3080	 2.5860
 6.3160	 2.5920
 6.3240	 2.6820
 6.3310	 2.6810
 6.3390	 2.6770
 6.3470	 2.5590
 6.3550	 2.6200
 6.3620	 2.5640
 6.3700	 2.6100
 6.3780	 2.6090
 6.3860	 2.7000
 6.3940	 2.6640
 6.4020	 2.6170
 6.4100	 2.5280
 6.4180	 2.5120
 6.4260	 2.4470
 6.4330	 2.5260
 6.4410	 2.5630
 6.4490	 2.5990
 6.4580	 2.5030
 6.4660	 2.4800
 6.4740	 2.3950
 6.4820	 2.4720
 6.4900	 2.4680
 6.4980	 2.5050
 6.5060	 2.5430
 6.5140	 2.5480
 6.5230	 2.4330
 6.5310	 2.4340
 6.5390	 2.2910
 6.5470	 2.3200
 6.5550	 2.3380
 6.5640	 2.4650
 6.5720	 2.5050
 6.5800	 2.4190
 6.5890	 2.2910
 6.5970	 2.3450
 6.6060	 2.2400
 6.6140	 2.3050
 6.6220	 2.3650
 6.6310	 2.4260
 6.6390	 2.3570
 6.6480	 2.3090
 6.6560	 2.2720
 6.6650	 2.3030
 6.6740	 2.2240
 6.6820	 2.3460
 6.6910	 2.3810
 6.6990	 2.3740
 6.7080	 2.3070
 6.7170	 2.2810
 6.7260	 2.1910
 6.7340	 2.2380
 6.7430	 2.2050
 6.7520	 2.2510
 6.7610	 2.1910
 6.7690	 2.2700
 6.7780	 2.2580
 6.7870	 2.3410
 6.7960	 2.2410
 6.8050	 2.2220
 6.8140	 2.1970
 6.8230	 2.3120
 6.8320	 2.3790
 6.8410	 2.3970
 6.8500	 2.2650
 6.8590	 2.3020
 6.8680	 2.2330
 6.8770	 2.3290
 6.8860	 2.2710
 6.8950	 2.4350
 6.9050	 2.4550
 6.9140	 2.4270
 6.9230	 2.3570
 6.9320	 2.3190
 6.9420	 2.3340
 6.9510	 2.4320
 6.9600	 2.3770
 6.9700	 2.4680
 6.9790	 2.4320
 6.9880	 2.4800
 6.9980	 2.3720
 7.0070	 2.3550
 7.0170	 2.3550
 7.0260	 2.5420
 7.0360	 2.4970
 7.0450	 2.5150
 7.0550	 2.4030
 7.0650	 2.2250
 7.0740	 2.1630
 7.0840	 2.2730
 7.0940	 2.2730
 7.1030	 2.4180
 7.1130	 2.4040
 7.1230	 2.4230
 7.1330	 2.2230
 7.1420	 2.2390
 7.1520	 2.1930
 7.1620	 2.2110
 7.1720	 2.2590
 7.1820	 2.3230
 7.1920	 2.2400
 7.2020	 2.2440
 7.2120	 2.1680
 7.2220	 2.1970
 7.2320	 2.2290
 7.2420	 2.2900
 7.2520	 2.2310
 7.2620	 2.2680
 7.2730	 2.2010
 7.2830	 2.2840
 7.2930	 2.1570
 7.3030	 2.1620
 7.3140	 2.1570
 7.3240	 2.2760
 7.3340	 2.2790
 7.3450	 2.3030
 7.3550	 2.1860
 7.3660	 2.2860
 7.3760	 2.2190
 7.3870	 2.2710
 7.3970	 2.3260
 7.4080	 2.3750
 7.4180	 2.3130
 7.4290	 2.3790
 7.4400	 2.3170
 7.4500	 2.3480
 7.4610	 2.2820
 7.4720	 2.3790
 7.4830	 2.3260
 7.4930	 2.3810
 7.5040	 2.3720
 7.5150	 2.4550
 7.5260	 2.2950
 7.5370	 2.2720
 7.5480	 2.1990
 7.5590	 2.2670
 7.5700	 2.2960
 7.5810	 2.3470
 7.5920	 2.3370
 7.6030	 2.2900
 7.6140	 2.1250
 7.6260	 2.2650
 7.6370	 2.2390
 7.6480	 2.4170
 7.6590	 2.3660
 7.6710	 2.3730
 7.6820	 2.2620
 7.6930	 2.1780
 7.7050	 2.1210
 7.7160	 2.1690
 7.7280	 2.1060
 7.7390	 2.2330
 7.7510	 2.1940
 7.7630	 2.1820
 7.7740	 1.9960
 7.7860	 2.0990
 7.7980	 2.0770
 7.8090	 2.2410
 7.8210	 2.1340
 7.8330	 2.1920
 7.8450	 2.2000
 7.8570	 2.1990
 7.8690	 2.1920
 7.8810	 2.2470
 7.8930	 2.1900
 7.9050	 2.2430
 7.9170	 2.0800
 7.9290	 2.1590
 7.9410	 2.1400
 7.9530	 2.2190
 7.9650	 2.0930
 7.9780	 2.1300
 7.9900	 2.1300
 8.0020	 2.2700
 8.0150	 2.2500
 8.0270	 2.2950
 8.0390	 2.2180
 8.0520	 2.2680
 8.0640	 2.2130
 8.0770	 2.2150
 8.0900	 2.1600
 8.1020	 2.4830
 8.1150	 2.3770
 8.1280	 2.4770
 8.1400	 2.4250
 8.1530	 2.4180
 8.1660	 2.3780
 8.1790	 2.5320
 8.1920	 2.5180
 8.2050	 2.6030
 8.2180	 2.4090
 8.2310	 2.4740
 8.2440	 2.3230
 8.2570	 2.3220
 8.2700	 2.2670
 8.2830	 2.4530
 8.2970	 2.5180
 8.3100	 2.6870
 8.3230	 2.5450
 8.3370	 2.6260
 8.3500	 2.4950
 8.3640	 2.4260
 8.3770	 2.3120
 8.3910	 2.4620
 8.4040	 2.3900
 8.4180	 2.5410
 8.4320	 2.5310
 8.4450	 2.5220
 8.4590	 2.2710
 8.4730	 2.3290
 8.4870	 2.4390
 8.5010	 2.6240
 8.5150	 2.5130
 8.5290	 2.7290
 8.5430	 2.6600
 8.5570	 2.7210
 8.5710	 2.5130
 8.5850	 2.6050
 8.5990	 2.5500
 8.6140	 2.8000
 8.6280	 2.6600
 8.6420	 2.6730
 8.6570	 2.5190
 8.6710	 2.6050
 8.6860	 2.4780
 8.7000	 2.5680
 8.7150	 2.5650
 8.7300	 2.7200
 8.7440	 2.5500
 8.7590	 2.7690
 8.7740	 2.7090
 8.7890	 2.7280
 8.8040	 2.5660
 8.8190	 2.7940
 8.8340	 2.7530
 8.8490	 2.7770
 8.8640	 2.6480
 8.8790	 2.6680
 8.8940	 2.4380
 8.9100	 2.4700
 8.9250	 2.4080
 8.9400	 2.7390
 8.9560	 2.7130
 8.9710	 2.6630
 8.9870	 2.4040
 9.0020	 2.6630
 9.0180	 2.6260
 9.0340	 2.8730
 9.0500	 2.9450
 9.0650	 2.9400
 9.0810	 2.8630
 9.0970	 2.8840
 9.1130	 2.7360
 9.1290	 2.9050
 9.1450	 2.6960
 9.1610	 2.8200
 9.1780	 2.7030
 9.1940	 2.9390
 9.2100	 2.8800
 9.2270	 2.9120
 9.2430	 2.6410
 9.2600	 2.8190
 9.2760	 2.7640
 9.2930	 2.8990
 9.3090	 2.7530
 9.3260	 2.8130
 9.3430	 2.7050
 9.3600	 2.7330
 9.3770	 2.6690
 9.3940	 2.8760
 9.4110	 2.7460
 9.4280	 2.9140
 9.4450	 2.7300
 9.4620	 2.8790
 9.4800	 2.7560
 9.4970	 2.8280
 9.5140	 2.6260
 9.5320	 2.8540
 9.5500	 2.7610
 9.5670	 2.9350
 9.5850	 2.9360
 9.6030	 3.0220
 9.6200	 2.7090
 9.6380	 2.8100
 9.6560	 2.7760
 9.6740	 2.9080
 9.6920	 2.6480
 9.7100	 2.9550
 9.7290	 2.9870
 9.7470	 3.0800
 9.7650	 2.7670
 9.7840	 2.9060
 9.8020	 2.8220
 9.8210	 2.9390
 9.8390	 2.8120
 9.8580	 3.0080
 9.8770	 2.7980
 9.8960	 2.7440
 9.9150	 2.6430
 9.9340	 2.7780
 9.9530	 2.7510
 9.9720	 2.7600
 9.9910	 2.5870
10.0100	 2.8800
10.0300	 2.7140
10.0490	 2.8480
10.0690	 2.6850
10.0880	 2.7960
10.1080	 2.7020
10.1280	 2.8540
10.1480	 2.7840
10.1670	 2.9110
10.1870	 2.6950
10.2070	 2.7320
10.2280	 2.6970
10.2480	 2.7970
10.2680	 2.7440
10.2890	 3.0040
10.3090	 2.7460
10.3300	 2.8880
10.3500	 2.6840
10.3710	 2.7400
10.3920	 2.6940
10.4120	 2.7500
10.4330	 2.5880
10.4540	 2.6660
10.4760	 2.6690
10.4970	 2.7140
10.5180	 2.5250
10.5390	 2.7250
10.5610	 2.6240
10.5820	 2.8100
10.6040	 2.7360
10.6260	 2.9550
10.6480	 2.6170
10.6700	 2.5410
10.6920	 2.2890
10.7140	 2.4650
10.7360	 2.4900
10.7580	 2.6690
10.7800	 2.5580
10.8030	 2.5940
10.8250	 2.3950
10.8480	 2.6760
10.8710	 2.5310
10.8940	 2.6940
10.9170	 2.5840
10.9400	 2.7110
10.9630	 2.5190
10.9860	 2.6750
11.0090	 2.4880
11.0330	 2.5440
11.0560	 2.4430
11.0800	 2.6430
11.1040	 2.5770
11.1270	 2.7200
11.1510	 2.5060
11.1750	 2.5390
11.2000	 2.2780
11.2240	 2.5440
11.2480	 2.4510
11.2730	 2.8140
11.2970	 2.6740
11.3220	 2.6720
11.3470	 2.5120
11.3720	 2.5990
11.3970	 2.3060
11.4220	 2.5270
11.4470	 2.4090
11.4720	 2.6610
11.4980	 2.6010
11.5230	 2.6890
11.5490	 2.4950
11.5750	 2.5790
11.6000	 2.3940
11.6260	 2.6960
11.6530	 2.4770
11.6790	 2.7410
11.7050	 2.5770
11.7320	 2.6890
11.7580	 2.4290
11.7850	 2.4990
11.8120	 2.3380
11.8390	 2.7080
11.8660	 2.6620
11.8930	 2.8430
11.9200	 2.5560
11.9480	 2.5560
11.9760	 2.3660
12.0030	 2.4570
12.0310	 2.3260
12.0590	 2.7850
12.0870	 2.6420
12.1150	 2.8840
12.1440	 2.4860
12.1720	 2.5090
12.2010	 2.2910
12.2300	 2.5500
12.2590	 2.3850
12.2880	 2.5810
12.3170	 2.4010
12.3460	 2.5870
12.3760	 2.2560
12.4050	 2.3270
12.4350	 2.3020
12.4650	 2.6240
12.4950	 2.2330
12.5250	 2.5460
12.5550	 2.2970
12.5860	 2.4080
12.6170	 2.0420
12.6470	 2.1760
12.6780	 2.1820
12.7090	 2.5440
12.7410	 2.4200
12.7720	 2.7160
12.8030	 2.4960
12.8350	 2.5160
12.8670	 2.1860
12.8990	 2.3730
12.9310	 2.1850
12.9640	 2.6220
12.9960	 2.5120
13.0290	 2.8000
13.0610	 2.3970
13.0940	 2.4370
13.1280	 2.1250
13.1610	 2.3700
13.1940	 2.2340
13.2280	 2.2800
13.2620	 2.2660
13.2960	 2.8100
13.3300	 2.3180
13.3640	 2.4900
13.3990	 2.2770
13.4340	 2.4810
13.4690	 2.2820
13.5040	 2.6720
13.5390	 2.4290
13.5740	 2.5860
13.6100	 2.2610
13.6460	 2.6340
13.6820	 2.3520
13.7180	 2.7660
13.7540	 2.5430
13.7910	 2.5900
13.8280	 2.2060
13.8650	 2.6280
13.9020	 2.4030
13.9390	 2.6070
13.9770	 2.3220
14.0150	 2.7470
14.0530	 2.4990
14.0910	 2.6100
14.1290	 1.9590
14.1680	 2.1130
14.2070	 1.6740
14.2460	 2.3230
14.2850	 2.2110
14.3240	 2.5200
14.3640	 2.3810
14.4040	 2.7040
14.4440	 2.3160
14.4840	 2.6610
14.5250	 1.9970
14.5660	 2.2780
14.6070	 2.0120
14.6480	 2.7470
14.6900	 2.2680
14.7310	 2.4350
14.7730	 1.7710
14.8150	 2.3470
14.8580	 1.9010
14.9010	 2.3410
14.9440	 1.8690
14.9870	 2.5940
15.0300	 2.0440
15.0740	 2.2120
15.1180	 1.9210
15.1620	 2.8180
15.2060	 2.0210
15.2510	 2.7830
15.2960	 2.0920
15.3410	 2.5360
15.3870	 1.9110
