Name: Pinus ponderosa 2
Type: vegetation
Class: Tree
Genus: Pinus
Species: ponderosa
Sample No.: VH158
Owner: UCSB
Wavelength Range: VSWIR
Origin: 37.044; -119.3023; WGS84
Collection Date: 6/8/2013
Description: Samples were collected as part of the HyspIRI Airborne Campaign. 48 individual plants were sampled in three times in 2013 - spring  summer  and fall. The name of the sample includes a 1  2  or 3 which references a different individual of the species. Samples were taken to JPL and processed within 48 hours of collection. The same leaves were processed in the Nicolet and then measured using the ASD.
Measurement: Bidirectional reflectance
First Column: X
Second Column: Y
X Units: Wavelength (micrometers)
Y Units: Reflectance (percentage)
First X Value: 0.35
Last X Value: 2.5
Number of X Values: 2151
Additional Information: vegetation.tree.pinus.ponderosa.vswir.vh158.ucsb.asd.ancillary.txt

 0.3500	 7.3420
 0.3510	 7.5310
 0.3520	 7.4560
 0.3530	 7.3310
 0.3540	 7.3520
 0.3550	 7.3510
 0.3560	 7.3560
 0.3570	 7.3780
 0.3580	 7.4090
 0.3590	 7.2720
 0.3600	 7.1730
 0.3610	 7.1830
 0.3620	 7.1650
 0.3630	 7.1040
 0.3640	 7.0970
 0.3650	 7.1900
 0.3660	 7.1000
 0.3670	 7.0120
 0.3680	 7.0090
 0.3690	 7.0810
 0.3700	 7.0520
 0.3710	 7.0510
 0.3720	 7.1330
 0.3730	 7.1140
 0.3740	 7.0920
 0.3750	 7.0980
 0.3760	 7.1200
 0.3770	 7.0930
 0.3780	 7.0960
 0.3790	 7.1310
 0.3800	 7.1110
 0.3810	 7.0400
 0.3820	 6.9960
 0.3830	 7.0160
 0.3840	 6.9910
 0.3850	 7.0230
 0.3860	 7.0650
 0.3870	 7.0430
 0.3880	 7.0560
 0.3890	 7.0620
 0.3900	 7.0410
 0.3910	 7.0170
 0.3920	 7.0400
 0.3930	 7.0790
 0.3940	 7.1030
 0.3950	 7.0760
 0.3960	 7.0810
 0.3970	 7.0960
 0.3980	 7.0790
 0.3990	 7.1110
 0.4000	 7.1200
 0.4010	 7.0970
 0.4020	 7.1280
 0.4030	 7.1820
 0.4040	 7.2130
 0.4050	 7.2040
 0.4060	 7.2390
 0.4070	 7.3130
 0.4080	 7.3890
 0.4090	 7.4190
 0.4100	 7.4860
 0.4110	 7.5420
 0.4120	 7.5660
 0.4130	 7.6510
 0.4140	 7.7390
 0.4150	 7.8170
 0.4160	 7.8810
 0.4170	 7.9630
 0.4180	 8.0540
 0.4190	 8.1450
 0.4200	 8.2310
 0.4210	 8.3320
 0.4220	 8.4320
 0.4230	 8.5100
 0.4240	 8.5810
 0.4250	 8.6410
 0.4260	 8.7050
 0.4270	 8.7860
 0.4280	 8.8490
 0.4290	 8.9200
 0.4300	 8.9970
 0.4310	 9.0360
 0.4320	 9.0830
 0.4330	 9.1320
 0.4340	 9.1720
 0.4350	 9.2000
 0.4360	 9.2300
 0.4370	 9.2770
 0.4380	 9.3470
 0.4390	 9.3880
 0.4400	 9.4290
 0.4410	 9.4860
 0.4420	 9.5140
 0.4430	 9.5460
 0.4440	 9.5820
 0.4450	 9.6130
 0.4460	 9.6510
 0.4470	 9.7050
 0.4480	 9.7640
 0.4490	 9.7920
 0.4500	 9.8310
 0.4510	 9.8750
 0.4520	 9.9120
 0.4530	 9.9470
 0.4540	 9.9760
 0.4550	10.0040
 0.4560	10.0430
 0.4570	10.0660
 0.4580	10.0880
 0.4590	10.1140
 0.4600	10.1220
 0.4610	10.1320
 0.4620	10.1400
 0.4630	10.1430
 0.4640	10.1580
 0.4650	10.1750
 0.4660	10.1850
 0.4670	10.1740
 0.4680	10.1780
 0.4690	10.1870
 0.4700	10.1910
 0.4710	10.1880
 0.4720	10.1970
 0.4730	10.2070
 0.4740	10.2030
 0.4750	10.2140
 0.4760	10.2270
 0.4770	10.2300
 0.4780	10.2320
 0.4790	10.2420
 0.4800	10.2570
 0.4810	10.2690
 0.4820	10.2750
 0.4830	10.2800
 0.4840	10.2910
 0.4850	10.3130
 0.4860	10.3370
 0.4870	10.3620
 0.4880	10.3890
 0.4890	10.4350
 0.4900	10.4830
 0.4910	10.5310
 0.4920	10.5820
 0.4930	10.6430
 0.4940	10.7160
 0.4950	10.8010
 0.4960	10.8920
 0.4970	11.0000
 0.4980	11.1170
 0.4990	11.2350
 0.5000	11.3730
 0.5010	11.5210
 0.5020	11.6790
 0.5030	11.8550
 0.5040	12.0550
 0.5050	12.2660
 0.5060	12.4820
 0.5070	12.7330
 0.5080	12.9880
 0.5090	13.2590
 0.5100	13.5610
 0.5110	13.8790
 0.5120	14.2080
 0.5130	14.5510
 0.5140	14.9250
 0.5150	15.3080
 0.5160	15.6970
 0.5170	16.0960
 0.5180	16.5070
 0.5190	16.9310
 0.5200	17.3570
 0.5210	17.7680
 0.5220	18.1780
 0.5230	18.5820
 0.5240	18.9690
 0.5250	19.3350
 0.5260	19.6840
 0.5270	20.0140
 0.5280	20.3160
 0.5290	20.5950
 0.5300	20.8550
 0.5310	21.0940
 0.5320	21.3020
 0.5330	21.4980
 0.5340	21.6770
 0.5350	21.8310
 0.5360	21.9700
 0.5370	22.0950
 0.5380	22.2030
 0.5390	22.2980
 0.5400	22.3850
 0.5410	22.4660
 0.5420	22.5440
 0.5430	22.6180
 0.5440	22.6940
 0.5450	22.7720
 0.5460	22.8510
 0.5470	22.9270
 0.5480	23.0010
 0.5490	23.0680
 0.5500	23.1190
 0.5510	23.1510
 0.5520	23.1670
 0.5530	23.1680
 0.5540	23.1470
 0.5550	23.1050
 0.5560	23.0390
 0.5570	22.9460
 0.5580	22.8360
 0.5590	22.7120
 0.5600	22.5750
 0.5610	22.4280
 0.5620	22.2730
 0.5630	22.1070
 0.5640	21.9290
 0.5650	21.7390
 0.5660	21.5380
 0.5670	21.3280
 0.5680	21.1110
 0.5690	20.8790
 0.5700	20.6430
 0.5710	20.4120
 0.5720	20.1870
 0.5730	19.9650
 0.5740	19.7530
 0.5750	19.5650
 0.5760	19.3870
 0.5770	19.2220
 0.5780	19.0680
 0.5790	18.9210
 0.5800	18.7790
 0.5810	18.6440
 0.5820	18.5130
 0.5830	18.3880
 0.5840	18.2680
 0.5850	18.1530
 0.5860	18.0490
 0.5870	17.9440
 0.5880	17.8400
 0.5890	17.7420
 0.5900	17.6540
 0.5910	17.5870
 0.5920	17.5350
 0.5930	17.4830
 0.5940	17.4370
 0.5950	17.3990
 0.5960	17.3650
 0.5970	17.3310
 0.5980	17.2950
 0.5990	17.2530
 0.6000	17.2040
 0.6010	17.1460
 0.6020	17.0850
 0.6030	17.0180
 0.6040	16.9380
 0.6050	16.8450
 0.6060	16.7380
 0.6070	16.6190
 0.6080	16.4930
 0.6090	16.3570
 0.6100	16.2080
 0.6110	16.0510
 0.6120	15.9160
 0.6130	15.7880
 0.6140	15.6570
 0.6150	15.5290
 0.6160	15.4060
 0.6170	15.2910
 0.6180	15.1860
 0.6190	15.0850
 0.6200	14.9940
 0.6210	14.9150
 0.6220	14.8480
 0.6230	14.7920
 0.6240	14.7420
 0.6250	14.7000
 0.6260	14.6680
 0.6270	14.6430
 0.6280	14.6220
 0.6290	14.6070
 0.6300	14.5950
 0.6310	14.5830
 0.6320	14.5660
 0.6330	14.5420
 0.6340	14.4980
 0.6350	14.4380
 0.6360	14.3650
 0.6370	14.2710
 0.6380	14.1590
 0.6390	14.0330
 0.6400	13.8930
 0.6410	13.7440
 0.6420	13.5860
 0.6430	13.4230
 0.6440	13.2550
 0.6450	13.0850
 0.6460	12.9150
 0.6470	12.7540
 0.6480	12.6080
 0.6490	12.4780
 0.6500	12.3670
 0.6510	12.2700
 0.6520	12.1830
 0.6530	12.1020
 0.6540	12.0230
 0.6550	11.9300
 0.6560	11.8270
 0.6570	11.7180
 0.6580	11.5960
 0.6590	11.4570
 0.6600	11.3100
 0.6610	11.1600
 0.6620	11.0100
 0.6630	10.8650
 0.6640	10.7280
 0.6650	10.5980
 0.6660	10.4830
 0.6670	10.3840
 0.6680	10.3010
 0.6690	10.2310
 0.6700	10.1730
 0.6710	10.1310
 0.6720	10.1020
 0.6730	10.0800
 0.6740	10.0700
 0.6750	10.0730
 0.6760	10.0830
 0.6770	10.0990
 0.6780	10.1280
 0.6790	10.1740
 0.6800	10.2320
 0.6810	10.3160
 0.6820	10.4250
 0.6830	10.5670
 0.6840	10.7510
 0.6850	10.9850
 0.6860	11.2810
 0.6870	11.6480
 0.6880	12.0980
 0.6890	12.6340
 0.6900	13.2610
 0.6910	13.9840
 0.6920	14.7970
 0.6930	15.6890
 0.6940	16.6510
 0.6950	17.6750
 0.6960	18.7480
 0.6970	19.8620
 0.6980	21.0080
 0.6990	22.1770
 0.7000	23.3570
 0.7010	24.5400
 0.7020	25.7230
 0.7030	26.8960
 0.7040	28.0640
 0.7050	29.2250
 0.7060	30.3730
 0.7070	31.5070
 0.7080	32.6300
 0.7090	33.7460
 0.7100	34.8600
 0.7110	35.9720
 0.7120	37.0810
 0.7130	38.1870
 0.7140	39.2870
 0.7150	40.3850
 0.7160	41.4790
 0.7170	42.5670
 0.7180	43.6510
 0.7190	44.7290
 0.7200	45.8000
 0.7210	46.8590
 0.7220	47.9060
 0.7230	48.9360
 0.7240	49.9510
 0.7250	50.9400
 0.7260	51.9060
 0.7270	52.8490
 0.7280	53.7590
 0.7290	54.6390
 0.7300	55.4880
 0.7310	56.3020
 0.7320	57.0840
 0.7330	57.8330
 0.7340	58.5460
 0.7350	59.2220
 0.7360	59.8680
 0.7370	60.4790
 0.7380	61.0550
 0.7390	61.6090
 0.7400	62.1280
 0.7410	62.6140
 0.7420	63.0730
 0.7430	63.4930
 0.7440	63.8900
 0.7450	64.2640
 0.7460	64.6060
 0.7470	64.9200
 0.7480	65.2080
 0.7490	65.4730
 0.7500	65.7110
 0.7510	65.9360
 0.7520	66.1410
 0.7530	66.3190
 0.7540	66.4930
 0.7550	66.6520
 0.7560	66.7940
 0.7570	66.9220
 0.7580	67.0400
 0.7590	67.1460
 0.7600	67.2410
 0.7610	67.3330
 0.7620	67.4150
 0.7630	67.4880
 0.7640	67.5560
 0.7650	67.6170
 0.7660	67.6740
 0.7670	67.7290
 0.7680	67.7800
 0.7690	67.8230
 0.7700	67.8620
 0.7710	67.9030
 0.7720	67.9410
 0.7730	67.9770
 0.7740	68.0080
 0.7750	68.0380
 0.7760	68.0700
 0.7770	68.1010
 0.7780	68.1300
 0.7790	68.1550
 0.7800	68.1830
 0.7810	68.2140
 0.7820	68.2450
 0.7830	68.2740
 0.7840	68.3010
 0.7850	68.3240
 0.7860	68.3470
 0.7870	68.3710
 0.7880	68.3940
 0.7890	68.4140
 0.7900	68.4330
 0.7910	68.4530
 0.7920	68.4760
 0.7930	68.5010
 0.7940	68.5230
 0.7950	68.5360
 0.7960	68.5510
 0.7970	68.5720
 0.7980	68.5880
 0.7990	68.6020
 0.8000	68.6150
 0.8010	68.6250
 0.8020	68.6370
 0.8030	68.6480
 0.8040	68.6560
 0.8050	68.6600
 0.8060	68.6650
 0.8070	68.6720
 0.8080	68.6800
 0.8090	68.6810
 0.8100	68.6820
 0.8110	68.6830
 0.8120	68.6840
 0.8130	68.6900
 0.8140	68.6900
 0.8150	68.6860
 0.8160	68.6840
 0.8170	68.6910
 0.8180	68.6930
 0.8190	68.6890
 0.8200	68.6850
 0.8210	68.6760
 0.8220	68.6700
 0.8230	68.6640
 0.8240	68.6510
 0.8250	68.6370
 0.8260	68.6180
 0.8270	68.5930
 0.8280	68.5730
 0.8290	68.5450
 0.8300	68.5140
 0.8310	68.4880
 0.8320	68.4630
 0.8330	68.4450
 0.8340	68.4300
 0.8350	68.4190
 0.8360	68.4110
 0.8370	68.4070
 0.8380	68.4050
 0.8390	68.4000
 0.8400	68.4040
 0.8410	68.4110
 0.8420	68.4160
 0.8430	68.4170
 0.8440	68.4220
 0.8450	68.4310
 0.8460	68.4410
 0.8470	68.4440
 0.8480	68.4500
 0.8490	68.4590
 0.8500	68.4630
 0.8510	68.4650
 0.8520	68.4700
 0.8530	68.4810
 0.8540	68.4930
 0.8550	68.4950
 0.8560	68.4980
 0.8570	68.5040
 0.8580	68.5090
 0.8590	68.5110
 0.8600	68.5150
 0.8610	68.5200
 0.8620	68.5140
 0.8630	68.5150
 0.8640	68.5180
 0.8650	68.5190
 0.8660	68.5300
 0.8670	68.5280
 0.8680	68.5200
 0.8690	68.5200
 0.8700	68.5260
 0.8710	68.5260
 0.8720	68.5230
 0.8730	68.5300
 0.8740	68.5270
 0.8750	68.5200
 0.8760	68.5120
 0.8770	68.5100
 0.8780	68.5060
 0.8790	68.4960
 0.8800	68.4820
 0.8810	68.4770
 0.8820	68.4660
 0.8830	68.4550
 0.8840	68.4460
 0.8850	68.4250
 0.8860	68.4110
 0.8870	68.3980
 0.8880	68.3810
 0.8890	68.3720
 0.8900	68.3560
 0.8910	68.3340
 0.8920	68.3140
 0.8930	68.2900
 0.8940	68.2730
 0.8950	68.2600
 0.8960	68.2420
 0.8970	68.2190
 0.8980	68.1990
 0.8990	68.1810
 0.9000	68.1530
 0.9010	68.1250
 0.9020	68.1040
 0.9030	68.0850
 0.9040	68.0530
 0.9050	68.0260
 0.9060	68.0050
 0.9070	67.9810
 0.9080	67.9350
 0.9090	67.9060
 0.9100	67.8810
 0.9110	67.8460
 0.9120	67.8180
 0.9130	67.7840
 0.9140	67.7470
 0.9150	67.7140
 0.9160	67.6780
 0.9170	67.6260
 0.9180	67.5710
 0.9190	67.5280
 0.9200	67.4730
 0.9210	67.4060
 0.9220	67.3360
 0.9230	67.2690
 0.9240	67.1800
 0.9250	67.0850
 0.9260	66.9920
 0.9270	66.8920
 0.9280	66.7830
 0.9290	66.6610
 0.9300	66.5330
 0.9310	66.4140
 0.9320	66.2800
 0.9330	66.1410
 0.9340	65.9990
 0.9350	65.8450
 0.9360	65.6820
 0.9370	65.5160
 0.9380	65.3530
 0.9390	65.1880
 0.9400	65.0050
 0.9410	64.8120
 0.9420	64.6190
 0.9430	64.4220
 0.9440	64.2090
 0.9450	63.9830
 0.9460	63.7460
 0.9470	63.4930
 0.9480	63.2300
 0.9490	62.9550
 0.9500	62.6610
 0.9510	62.3400
 0.9520	62.0190
 0.9530	61.6920
 0.9540	61.3540
 0.9550	61.0430
 0.9560	60.7550
 0.9570	60.4760
 0.9580	60.1990
 0.9590	59.9620
 0.9600	59.7470
 0.9610	59.5530
 0.9620	59.3820
 0.9630	59.2430
 0.9640	59.1080
 0.9650	58.9810
 0.9660	58.8760
 0.9670	58.7830
 0.9680	58.6980
 0.9690	58.6290
 0.9700	58.5800
 0.9710	58.5310
 0.9720	58.4690
 0.9730	58.4100
 0.9740	58.3730
 0.9750	58.3420
 0.9760	58.3300
 0.9770	58.3250
 0.9780	58.3130
 0.9790	58.2900
 0.9800	58.2930
 0.9810	58.3120
 0.9820	58.3240
 0.9830	58.3540
 0.9840	58.3910
 0.9850	58.4260
 0.9860	58.4590
 0.9870	58.5280
 0.9880	58.5880
 0.9890	58.6410
 0.9900	58.7010
 0.9910	58.7480
 0.9920	58.8180
 0.9930	58.9060
 0.9940	58.9900
 0.9950	59.0640
 0.9960	59.1560
 0.9970	59.2460
 0.9980	59.3160
 0.9990	59.4500
 1.0000	59.8980
 1.0010	60.5960
 1.0020	61.0530
 1.0030	61.1620
 1.0040	61.2690
 1.0050	61.3810
 1.0060	61.4960
 1.0070	61.6130
 1.0080	61.7320
 1.0090	61.8560
 1.0100	61.9760
 1.0110	62.0960
 1.0120	62.2180
 1.0130	62.3400
 1.0140	62.4620
 1.0150	62.5840
 1.0160	62.7100
 1.0170	62.8410
 1.0180	62.9620
 1.0190	63.0920
 1.0200	63.2240
 1.0210	63.3470
 1.0220	63.4760
 1.0230	63.6000
 1.0240	63.7180
 1.0250	63.8380
 1.0260	63.9570
 1.0270	64.0780
 1.0280	64.2030
 1.0290	64.3230
 1.0300	64.4400
 1.0310	64.5570
 1.0320	64.6750
 1.0330	64.7840
 1.0340	64.8920
 1.0350	64.9990
 1.0360	65.1030
 1.0370	65.2090
 1.0380	65.3140
 1.0390	65.4230
 1.0400	65.5250
 1.0410	65.6260
 1.0420	65.7200
 1.0430	65.8090
 1.0440	65.8980
 1.0450	65.9800
 1.0460	66.0650
 1.0470	66.1560
 1.0480	66.2370
 1.0490	66.3170
 1.0500	66.3910
 1.0510	66.4540
 1.0520	66.5150
 1.0530	66.5780
 1.0540	66.6410
 1.0550	66.6980
 1.0560	66.7540
 1.0570	66.8060
 1.0580	66.8500
 1.0590	66.8950
 1.0600	66.9420
 1.0610	66.9830
 1.0620	67.0240
 1.0630	67.0580
 1.0640	67.0870
 1.0650	67.1130
 1.0660	67.1350
 1.0670	67.1550
 1.0680	67.1720
 1.0690	67.1870
 1.0700	67.2000
 1.0710	67.2100
 1.0720	67.2160
 1.0730	67.2190
 1.0740	67.2150
 1.0750	67.2030
 1.0760	67.1940
 1.0770	67.1820
 1.0780	67.1680
 1.0790	67.1580
 1.0800	67.1390
 1.0810	67.1120
 1.0820	67.0860
 1.0830	67.0580
 1.0840	67.0240
 1.0850	66.9890
 1.0860	66.9490
 1.0870	66.9050
 1.0880	66.8540
 1.0890	66.8030
 1.0900	66.7520
 1.0910	66.6950
 1.0920	66.6360
 1.0930	66.5740
 1.0940	66.5060
 1.0950	66.4400
 1.0960	66.3730
 1.0970	66.3040
 1.0980	66.2380
 1.0990	66.1660
 1.1000	66.0890
 1.1010	66.0120
 1.1020	65.9320
 1.1030	65.8530
 1.1040	65.7760
 1.1050	65.6970
 1.1060	65.6130
 1.1070	65.5270
 1.1080	65.4390
 1.1090	65.3490
 1.1100	65.2540
 1.1110	65.1590
 1.1120	65.0590
 1.1130	64.9580
 1.1140	64.8490
 1.1150	64.7380
 1.1160	64.6180
 1.1170	64.4910
 1.1180	64.3530
 1.1190	64.2090
 1.1200	64.0510
 1.1210	63.8780
 1.1220	63.6920
 1.1230	63.4880
 1.1240	63.2680
 1.1250	63.0230
 1.1260	62.7630
 1.1270	62.4740
 1.1280	62.1630
 1.1290	61.8250
 1.1300	61.4660
 1.1310	61.0790
 1.1320	60.6640
 1.1330	60.2330
 1.1340	59.7760
 1.1350	59.3020
 1.1360	58.8050
 1.1370	58.2930
 1.1380	57.7700
 1.1390	57.2400
 1.1400	56.7010
 1.1410	56.1690
 1.1420	55.6400
 1.1430	55.1120
 1.1440	54.6010
 1.1450	54.0950
 1.1460	53.6160
 1.1470	53.1470
 1.1480	52.7100
 1.1490	52.2930
 1.1500	51.9080
 1.1510	51.5440
 1.1520	51.2090
 1.1530	50.9050
 1.1540	50.6240
 1.1550	50.3700
 1.1560	50.1390
 1.1570	49.9280
 1.1580	49.7430
 1.1590	49.5770
 1.1600	49.4280
 1.1610	49.2970
 1.1620	49.1780
 1.1630	49.0690
 1.1640	48.9690
 1.1650	48.8770
 1.1660	48.7970
 1.1670	48.7220
 1.1680	48.6570
 1.1690	48.5940
 1.1700	48.5390
 1.1710	48.4820
 1.1720	48.4280
 1.1730	48.3740
 1.1740	48.3210
 1.1750	48.2680
 1.1760	48.2190
 1.1770	48.1680
 1.1780	48.1170
 1.1790	48.0650
 1.1800	48.0120
 1.1810	47.9560
 1.1820	47.8990
 1.1830	47.8450
 1.1840	47.7920
 1.1850	47.7380
 1.1860	47.6890
 1.1870	47.6400
 1.1880	47.5920
 1.1890	47.5450
 1.1900	47.5040
 1.1910	47.4650
 1.1920	47.4300
 1.1930	47.4010
 1.1940	47.3760
 1.1950	47.3540
 1.1960	47.3370
 1.1970	47.3280
 1.1980	47.3250
 1.1990	47.3250
 1.2000	47.3290
 1.2010	47.3360
 1.2020	47.3450
 1.2030	47.3570
 1.2040	47.3740
 1.2050	47.3960
 1.2060	47.4240
 1.2070	47.4540
 1.2080	47.4860
 1.2090	47.5210
 1.2100	47.5590
 1.2110	47.6010
 1.2120	47.6480
 1.2130	47.6980
 1.2140	47.7520
 1.2150	47.8060
 1.2160	47.8630
 1.2170	47.9230
 1.2180	47.9830
 1.2190	48.0470
 1.2200	48.1110
 1.2210	48.1760
 1.2220	48.2420
 1.2230	48.3080
 1.2240	48.3770
 1.2250	48.4460
 1.2260	48.5140
 1.2270	48.5830
 1.2280	48.6510
 1.2290	48.7160
 1.2300	48.7800
 1.2310	48.8420
 1.2320	48.9050
 1.2330	48.9680
 1.2340	49.0300
 1.2350	49.0930
 1.2360	49.1550
 1.2370	49.2140
 1.2380	49.2730
 1.2390	49.3310
 1.2400	49.3890
 1.2410	49.4470
 1.2420	49.5020
 1.2430	49.5550
 1.2440	49.6070
 1.2450	49.6570
 1.2460	49.7080
 1.2470	49.7580
 1.2480	49.8040
 1.2490	49.8490
 1.2500	49.8920
 1.2510	49.9330
 1.2520	49.9720
 1.2530	50.0070
 1.2540	50.0420
 1.2550	50.0740
 1.2560	50.1040
 1.2570	50.1340
 1.2580	50.1600
 1.2590	50.1840
 1.2600	50.2070
 1.2610	50.2270
 1.2620	50.2460
 1.2630	50.2600
 1.2640	50.2710
 1.2650	50.2780
 1.2660	50.2810
 1.2670	50.2830
 1.2680	50.2870
 1.2690	50.2850
 1.2700	50.2780
 1.2710	50.2700
 1.2720	50.2560
 1.2730	50.2390
 1.2740	50.2210
 1.2750	50.1970
 1.2760	50.1700
 1.2770	50.1390
 1.2780	50.1080
 1.2790	50.0730
 1.2800	50.0330
 1.2810	49.9880
 1.2820	49.9380
 1.2830	49.8840
 1.2840	49.8280
 1.2850	49.7670
 1.2860	49.7000
 1.2870	49.6280
 1.2880	49.5500
 1.2890	49.4670
 1.2900	49.3780
 1.2910	49.2860
 1.2920	49.1900
 1.2930	49.0850
 1.2940	48.9720
 1.2950	48.8530
 1.2960	48.7280
 1.2970	48.5990
 1.2980	48.4710
 1.2990	48.3350
 1.3000	48.1930
 1.3010	48.0480
 1.3020	47.8900
 1.3030	47.7240
 1.3040	47.5540
 1.3050	47.3770
 1.3060	47.1930
 1.3070	47.0050
 1.3080	46.8130
 1.3090	46.6130
 1.3100	46.4080
 1.3110	46.1980
 1.3120	45.9830
 1.3130	45.7640
 1.3140	45.5380
 1.3150	45.3080
 1.3160	45.0720
 1.3170	44.8300
 1.3180	44.5830
 1.3190	44.3320
 1.3200	44.0770
 1.3210	43.8160
 1.3220	43.5510
 1.3230	43.2820
 1.3240	43.0090
 1.3250	42.7380
 1.3260	42.4670
 1.3270	42.1930
 1.3280	41.9180
 1.3290	41.6410
 1.3300	41.3610
 1.3310	41.0830
 1.3320	40.8050
 1.3330	40.5300
 1.3340	40.2560
 1.3350	39.9830
 1.3360	39.7140
 1.3370	39.4460
 1.3380	39.1810
 1.3390	38.9220
 1.3400	38.6650
 1.3410	38.4160
 1.3420	38.1740
 1.3430	37.9350
 1.3440	37.7010
 1.3450	37.4720
 1.3460	37.2450
 1.3470	37.0270
 1.3480	36.8140
 1.3490	36.6060
 1.3500	36.4040
 1.3510	36.2040
 1.3520	36.0050
 1.3530	35.8110
 1.3540	35.6160
 1.3550	35.4230
 1.3560	35.2320
 1.3570	35.0390
 1.3580	34.8470
 1.3590	34.6530
 1.3600	34.4530
 1.3610	34.2490
 1.3620	34.0380
 1.3630	33.8210
 1.3640	33.5990
 1.3650	33.3670
 1.3660	33.1300
 1.3670	32.8800
 1.3680	32.6180
 1.3690	32.3460
 1.3700	32.0560
 1.3710	31.7540
 1.3720	31.4370
 1.3730	31.1000
 1.3740	30.7500
 1.3750	30.3820
 1.3760	29.9930
 1.3770	29.5830
 1.3780	29.1500
 1.3790	28.6970
 1.3800	28.2270
 1.3810	27.7360
 1.3820	27.2350
 1.3830	26.7210
 1.3840	26.1970
 1.3850	25.6600
 1.3860	25.1230
 1.3870	24.5730
 1.3880	24.0330
 1.3890	23.4930
 1.3900	22.9540
 1.3910	22.4290
 1.3920	21.9090
 1.3930	21.3970
 1.3940	20.9020
 1.3950	20.4140
 1.3960	19.9420
 1.3970	19.4910
 1.3980	19.0560
 1.3990	18.6450
 1.4000	18.2530
 1.4010	17.8780
 1.4020	17.5250
 1.4030	17.1880
 1.4040	16.8720
 1.4050	16.5740
 1.4060	16.2930
 1.4070	16.0330
 1.4080	15.7900
 1.4090	15.5620
 1.4100	15.3510
 1.4110	15.1520
 1.4120	14.9660
 1.4130	14.7930
 1.4140	14.6320
 1.4150	14.4840
 1.4160	14.3480
 1.4170	14.2200
 1.4180	14.1010
 1.4190	13.9880
 1.4200	13.8840
 1.4210	13.7870
 1.4220	13.6970
 1.4230	13.6150
 1.4240	13.5390
 1.4250	13.4680
 1.4260	13.4030
 1.4270	13.3420
 1.4280	13.2870
 1.4290	13.2350
 1.4300	13.1870
 1.4310	13.1440
 1.4320	13.1060
 1.4330	13.0700
 1.4340	13.0400
 1.4350	13.0100
 1.4360	12.9830
 1.4370	12.9590
 1.4380	12.9370
 1.4390	12.9190
 1.4400	12.9040
 1.4410	12.8900
 1.4420	12.8790
 1.4430	12.8690
 1.4440	12.8610
 1.4450	12.8550
 1.4460	12.8500
 1.4470	12.8470
 1.4480	12.8440
 1.4490	12.8430
 1.4500	12.8440
 1.4510	12.8460
 1.4520	12.8490
 1.4530	12.8540
 1.4540	12.8590
 1.4550	12.8660
 1.4560	12.8750
 1.4570	12.8840
 1.4580	12.8970
 1.4590	12.9120
 1.4600	12.9300
 1.4610	12.9510
 1.4620	12.9730
 1.4630	12.9980
 1.4640	13.0250
 1.4650	13.0540
 1.4660	13.0870
 1.4670	13.1220
 1.4680	13.1610
 1.4690	13.2030
 1.4700	13.2470
 1.4710	13.2950
 1.4720	13.3440
 1.4730	13.3960
 1.4740	13.4510
 1.4750	13.5070
 1.4760	13.5650
 1.4770	13.6260
 1.4780	13.6860
 1.4790	13.7500
 1.4800	13.8160
 1.4810	13.8820
 1.4820	13.9510
 1.4830	14.0210
 1.4840	14.0910
 1.4850	14.1620
 1.4860	14.2350
 1.4870	14.3080
 1.4880	14.3820
 1.4890	14.4590
 1.4900	14.5360
 1.4910	14.6140
 1.4920	14.6930
 1.4930	14.7740
 1.4940	14.8550
 1.4950	14.9370
 1.4960	15.0190
 1.4970	15.1000
 1.4980	15.1830
 1.4990	15.2670
 1.5000	15.3510
 1.5010	15.4370
 1.5020	15.5230
 1.5030	15.6080
 1.5040	15.6940
 1.5050	15.7810
 1.5060	15.8680
 1.5070	15.9560
 1.5080	16.0450
 1.5090	16.1340
 1.5100	16.2220
 1.5110	16.3100
 1.5120	16.4000
 1.5130	16.4880
 1.5140	16.5770
 1.5150	16.6670
 1.5160	16.7560
 1.5170	16.8440
 1.5180	16.9320
 1.5190	17.0200
 1.5200	17.1070
 1.5210	17.1940
 1.5220	17.2810
 1.5230	17.3700
 1.5240	17.4570
 1.5250	17.5460
 1.5260	17.6350
 1.5270	17.7210
 1.5280	17.8080
 1.5290	17.8940
 1.5300	17.9800
 1.5310	18.0670
 1.5320	18.1530
 1.5330	18.2380
 1.5340	18.3230
 1.5350	18.4080
 1.5360	18.4930
 1.5370	18.5770
 1.5380	18.6620
 1.5390	18.7460
 1.5400	18.8300
 1.5410	18.9150
 1.5420	18.9980
 1.5430	19.0810
 1.5440	19.1660
 1.5450	19.2500
 1.5460	19.3330
 1.5470	19.4160
 1.5480	19.4980
 1.5490	19.5800
 1.5500	19.6610
 1.5510	19.7440
 1.5520	19.8260
 1.5530	19.9070
 1.5540	19.9880
 1.5550	20.0690
 1.5560	20.1490
 1.5570	20.2290
 1.5580	20.3070
 1.5590	20.3850
 1.5600	20.4640
 1.5610	20.5420
 1.5620	20.6200
 1.5630	20.6960
 1.5640	20.7710
 1.5650	20.8460
 1.5660	20.9210
 1.5670	20.9960
 1.5680	21.0700
 1.5690	21.1440
 1.5700	21.2180
 1.5710	21.2920
 1.5720	21.3660
 1.5730	21.4390
 1.5740	21.5130
 1.5750	21.5840
 1.5760	21.6550
 1.5770	21.7250
 1.5780	21.7930
 1.5790	21.8630
 1.5800	21.9340
 1.5810	22.0040
 1.5820	22.0730
 1.5830	22.1410
 1.5840	22.2100
 1.5850	22.2770
 1.5860	22.3440
 1.5870	22.4130
 1.5880	22.4800
 1.5890	22.5470
 1.5900	22.6150
 1.5910	22.6840
 1.5920	22.7530
 1.5930	22.8200
 1.5940	22.8890
 1.5950	22.9570
 1.5960	23.0230
 1.5970	23.0910
 1.5980	23.1590
 1.5990	23.2260
 1.6000	23.2940
 1.6010	23.3600
 1.6020	23.4250
 1.6030	23.4910
 1.6040	23.5570
 1.6050	23.6230
 1.6060	23.6880
 1.6070	23.7510
 1.6080	23.8150
 1.6090	23.8770
 1.6100	23.9390
 1.6110	24.0010
 1.6120	24.0600
 1.6130	24.1210
 1.6140	24.1800
 1.6150	24.2390
 1.6160	24.2980
 1.6170	24.3530
 1.6180	24.4070
 1.6190	24.4600
 1.6200	24.5130
 1.6210	24.5680
 1.6220	24.6190
 1.6230	24.6710
 1.6240	24.7230
 1.6250	24.7700
 1.6260	24.8190
 1.6270	24.8670
 1.6280	24.9130
 1.6290	24.9590
 1.6300	25.0030
 1.6310	25.0470
 1.6320	25.0900
 1.6330	25.1320
 1.6340	25.1740
 1.6350	25.2140
 1.6360	25.2550
 1.6370	25.2930
 1.6380	25.3290
 1.6390	25.3650
 1.6400	25.3990
 1.6410	25.4320
 1.6420	25.4650
 1.6430	25.4960
 1.6440	25.5240
 1.6450	25.5500
 1.6460	25.5720
 1.6470	25.5920
 1.6480	25.6110
 1.6490	25.6280
 1.6500	25.6440
 1.6510	25.6600
 1.6520	25.6720
 1.6530	25.6830
 1.6540	25.6920
 1.6550	25.6990
 1.6560	25.7060
 1.6570	25.7110
 1.6580	25.7140
 1.6590	25.7160
 1.6600	25.7160
 1.6610	25.7190
 1.6620	25.7190
 1.6630	25.7180
 1.6640	25.7190
 1.6650	25.7170
 1.6660	25.7180
 1.6670	25.7180
 1.6680	25.7170
 1.6690	25.7180
 1.6700	25.7180
 1.6710	25.7180
 1.6720	25.7190
 1.6730	25.7190
 1.6740	25.7170
 1.6750	25.7150
 1.6760	25.7110
 1.6770	25.7050
 1.6780	25.7010
 1.6790	25.6970
 1.6800	25.6880
 1.6810	25.6790
 1.6820	25.6680
 1.6830	25.6510
 1.6840	25.6320
 1.6850	25.6120
 1.6860	25.5880
 1.6870	25.5630
 1.6880	25.5370
 1.6890	25.5110
 1.6900	25.4820
 1.6910	25.4500
 1.6920	25.4200
 1.6930	25.3890
 1.6940	25.3570
 1.6950	25.3250
 1.6960	25.2910
 1.6970	25.2550
 1.6980	25.2180
 1.6990	25.1800
 1.7000	25.1410
 1.7010	25.1010
 1.7020	25.0590
 1.7030	25.0180
 1.7040	24.9750
 1.7050	24.9310
 1.7060	24.8850
 1.7070	24.8370
 1.7080	24.7910
 1.7090	24.7440
 1.7100	24.6970
 1.7110	24.6510
 1.7120	24.6040
 1.7130	24.5550
 1.7140	24.5070
 1.7150	24.4590
 1.7160	24.4090
 1.7170	24.3600
 1.7180	24.3110
 1.7190	24.2620
 1.7200	24.2140
 1.7210	24.1650
 1.7220	24.1160
 1.7230	24.0670
 1.7240	24.0180
 1.7250	23.9690
 1.7260	23.9210
 1.7270	23.8740
 1.7280	23.8280
 1.7290	23.7820
 1.7300	23.7380
 1.7310	23.6920
 1.7320	23.6450
 1.7330	23.5990
 1.7340	23.5530
 1.7350	23.5070
 1.7360	23.4610
 1.7370	23.4130
 1.7380	23.3650
 1.7390	23.3140
 1.7400	23.2600
 1.7410	23.2040
 1.7420	23.1440
 1.7430	23.0850
 1.7440	23.0260
 1.7450	22.9660
 1.7460	22.9050
 1.7470	22.8430
 1.7480	22.7780
 1.7490	22.7160
 1.7500	22.6570
 1.7510	22.5960
 1.7520	22.5360
 1.7530	22.4740
 1.7540	22.4090
 1.7550	22.3470
 1.7560	22.2860
 1.7570	22.2260
 1.7580	22.1700
 1.7590	22.1130
 1.7600	22.0570
 1.7610	22.0020
 1.7620	21.9480
 1.7630	21.8960
 1.7640	21.8460
 1.7650	21.7980
 1.7660	21.7500
 1.7670	21.7030
 1.7680	21.6580
 1.7690	21.6130
 1.7700	21.5720
 1.7710	21.5360
 1.7720	21.4990
 1.7730	21.4630
 1.7740	21.4280
 1.7750	21.3900
 1.7760	21.3580
 1.7770	21.3290
 1.7780	21.3000
 1.7790	21.2730
 1.7800	21.2480
 1.7810	21.2230
 1.7820	21.2020
 1.7830	21.1850
 1.7840	21.1680
 1.7850	21.1510
 1.7860	21.1390
 1.7870	21.1290
 1.7880	21.1190
 1.7890	21.1120
 1.7900	21.1050
 1.7910	21.1000
 1.7920	21.0980
 1.7930	21.0960
 1.7940	21.0950
 1.7950	21.0950
 1.7960	21.0970
 1.7970	21.0990
 1.7980	21.1020
 1.7990	21.1060
 1.8000	21.1100
 1.8010	21.1150
 1.8020	21.1240
 1.8030	21.1310
 1.8040	21.1370
 1.8050	21.1440
 1.8060	21.1500
 1.8070	21.1560
 1.8080	21.1640
 1.8090	21.1690
 1.8100	21.1710
 1.8110	21.1770
 1.8120	21.1840
 1.8130	21.1920
 1.8140	21.1980
 1.8150	21.2020
 1.8160	21.2050
 1.8170	21.2070
 1.8180	21.2090
 1.8190	21.2100
 1.8200	21.2100
 1.8210	21.2090
 1.8220	21.2090
 1.8230	21.2090
 1.8240	21.2060
 1.8250	21.2020
 1.8260	21.1960
 1.8270	21.1870
 1.8280	21.1790
 1.8290	21.1690
 1.8300	21.1030
 1.8310	20.9960
 1.8320	20.9200
 1.8330	20.8900
 1.8340	20.8580
 1.8350	20.8260
 1.8360	20.7900
 1.8370	20.7530
 1.8380	20.7170
 1.8390	20.6720
 1.8400	20.6230
 1.8410	20.5680
 1.8420	20.5080
 1.8430	20.4380
 1.8440	20.3640
 1.8450	20.2880
 1.8460	20.1990
 1.8470	20.1030
 1.8480	20.0020
 1.8490	19.8910
 1.8500	19.7720
 1.8510	19.6470
 1.8520	19.5170
 1.8530	19.3760
 1.8540	19.2260
 1.8550	19.0680
 1.8560	18.9020
 1.8570	18.7250
 1.8580	18.5380
 1.8590	18.3430
 1.8600	18.1370
 1.8610	17.9230
 1.8620	17.7000
 1.8630	17.4720
 1.8640	17.2350
 1.8650	16.9860
 1.8660	16.7260
 1.8670	16.4500
 1.8680	16.1680
 1.8690	15.8770
 1.8700	15.5790
 1.8710	15.2730
 1.8720	14.9680
 1.8730	14.6590
 1.8740	14.3460
 1.8750	14.0330
 1.8760	13.7160
 1.8770	13.4000
 1.8780	13.0880
 1.8790	12.7800
 1.8800	12.4800
 1.8810	12.1870
 1.8820	11.9000
 1.8830	11.6190
 1.8840	11.3430
 1.8850	11.0720
 1.8860	10.8100
 1.8870	10.5550
 1.8880	10.3130
 1.8890	10.0860
 1.8900	 9.8670
 1.8910	 9.6590
 1.8920	 9.4630
 1.8930	 9.2790
 1.8940	 9.1030
 1.8950	 8.9430
 1.8960	 8.7920
 1.8970	 8.6550
 1.8980	 8.5290
 1.8990	 8.4090
 1.9000	 8.3020
 1.9010	 8.2070
 1.9020	 8.1180
 1.9030	 8.0340
 1.9040	 7.9620
 1.9050	 7.8980
 1.9060	 7.8360
 1.9070	 7.7840
 1.9080	 7.7340
 1.9090	 7.6920
 1.9100	 7.6520
 1.9110	 7.6150
 1.9120	 7.5810
 1.9130	 7.5520
 1.9140	 7.5260
 1.9150	 7.5020
 1.9160	 7.4840
 1.9170	 7.4660
 1.9180	 7.4440
 1.9190	 7.4290
 1.9200	 7.4110
 1.9210	 7.3990
 1.9220	 7.3870
 1.9230	 7.3860
 1.9240	 7.3770
 1.9250	 7.3700
 1.9260	 7.3680
 1.9270	 7.3620
 1.9280	 7.3560
 1.9290	 7.3540
 1.9300	 7.3550
 1.9310	 7.3590
 1.9320	 7.3660
 1.9330	 7.3700
 1.9340	 7.3760
 1.9350	 7.3820
 1.9360	 7.3890
 1.9370	 7.3960
 1.9380	 7.4040
 1.9390	 7.4110
 1.9400	 7.4210
 1.9410	 7.4290
 1.9420	 7.4400
 1.9430	 7.4530
 1.9440	 7.4660
 1.9450	 7.4820
 1.9460	 7.4970
 1.9470	 7.5110
 1.9480	 7.5280
 1.9490	 7.5400
 1.9500	 7.5550
 1.9510	 7.5700
 1.9520	 7.5880
 1.9530	 7.6060
 1.9540	 7.6260
 1.9550	 7.6440
 1.9560	 7.6640
 1.9570	 7.6840
 1.9580	 7.7020
 1.9590	 7.7200
 1.9600	 7.7430
 1.9610	 7.7630
 1.9620	 7.7860
 1.9630	 7.8080
 1.9640	 7.8300
 1.9650	 7.8490
 1.9660	 7.8730
 1.9670	 7.8980
 1.9680	 7.9230
 1.9690	 7.9480
 1.9700	 7.9740
 1.9710	 8.0020
 1.9720	 8.0270
 1.9730	 8.0540
 1.9740	 8.0800
 1.9750	 8.1050
 1.9760	 8.1320
 1.9770	 8.1620
 1.9780	 8.1910
 1.9790	 8.2190
 1.9800	 8.2510
 1.9810	 8.2790
 1.9820	 8.3100
 1.9830	 8.3400
 1.9840	 8.3720
 1.9850	 8.4020
 1.9860	 8.4310
 1.9870	 8.4650
 1.9880	 8.4970
 1.9890	 8.5270
 1.9900	 8.5600
 1.9910	 8.5920
 1.9920	 8.6250
 1.9930	 8.6580
 1.9940	 8.6910
 1.9950	 8.7220
 1.9960	 8.7560
 1.9970	 8.7920
 1.9980	 8.8260
 1.9990	 8.8580
 2.0000	 8.8900
 2.0010	 8.9200
 2.0020	 8.9500
 2.0030	 8.9840
 2.0040	 9.0200
 2.0050	 9.0550
 2.0060	 9.0930
 2.0070	 9.1290
 2.0080	 9.1630
 2.0090	 9.1980
 2.0100	 9.2300
 2.0110	 9.2640
 2.0120	 9.2970
 2.0130	 9.3290
 2.0140	 9.3620
 2.0150	 9.3950
 2.0160	 9.4320
 2.0170	 9.4650
 2.0180	 9.4970
 2.0190	 9.5270
 2.0200	 9.5580
 2.0210	 9.5850
 2.0220	 9.6160
 2.0230	 9.6490
 2.0240	 9.6790
 2.0250	 9.7090
 2.0260	 9.7390
 2.0270	 9.7670
 2.0280	 9.7950
 2.0290	 9.8250
 2.0300	 9.8560
 2.0310	 9.8880
 2.0320	 9.9190
 2.0330	 9.9490
 2.0340	 9.9740
 2.0350	10.0010
 2.0360	10.0290
 2.0370	10.0570
 2.0380	10.0870
 2.0390	10.1150
 2.0400	10.1440
 2.0410	10.1700
 2.0420	10.1960
 2.0430	10.2190
 2.0440	10.2430
 2.0450	10.2650
 2.0460	10.2870
 2.0470	10.3100
 2.0480	10.3330
 2.0490	10.3540
 2.0500	10.3780
 2.0510	10.4030
 2.0520	10.4270
 2.0530	10.4550
 2.0540	10.4800
 2.0550	10.5010
 2.0560	10.5240
 2.0570	10.5450
 2.0580	10.5640
 2.0590	10.5870
 2.0600	10.6120
 2.0610	10.6350
 2.0620	10.6580
 2.0630	10.6830
 2.0640	10.7060
 2.0650	10.7280
 2.0660	10.7490
 2.0670	10.7730
 2.0680	10.7920
 2.0690	10.8150
 2.0700	10.8440
 2.0710	10.8700
 2.0720	10.8920
 2.0730	10.9160
 2.0740	10.9390
 2.0750	10.9590
 2.0760	10.9820
 2.0770	11.0070
 2.0780	11.0320
 2.0790	11.0600
 2.0800	11.0850
 2.0810	11.1090
 2.0820	11.1330
 2.0830	11.1530
 2.0840	11.1770
 2.0850	11.2040
 2.0860	11.2290
 2.0870	11.2560
 2.0880	11.2830
 2.0890	11.3070
 2.0900	11.3280
 2.0910	11.3520
 2.0920	11.3760
 2.0930	11.3990
 2.0940	11.4240
 2.0950	11.4480
 2.0960	11.4740
 2.0970	11.5000
 2.0980	11.5270
 2.0990	11.5550
 2.1000	11.5840
 2.1010	11.6110
 2.1020	11.6390
 2.1030	11.6650
 2.1040	11.6900
 2.1050	11.7120
 2.1060	11.7360
 2.1070	11.7600
 2.1080	11.7840
 2.1090	11.8090
 2.1100	11.8350
 2.1110	11.8640
 2.1120	11.8900
 2.1130	11.9160
 2.1140	11.9410
 2.1150	11.9610
 2.1160	11.9860
 2.1170	12.0140
 2.1180	12.0420
 2.1190	12.0720
 2.1200	12.0990
 2.1210	12.1240
 2.1220	12.1490
 2.1230	12.1760
 2.1240	12.2020
 2.1250	12.2280
 2.1260	12.2530
 2.1270	12.2770
 2.1280	12.3010
 2.1290	12.3260
 2.1300	12.3520
 2.1310	12.3790
 2.1320	12.4040
 2.1330	12.4280
 2.1340	12.4490
 2.1350	12.4720
 2.1360	12.4940
 2.1370	12.5150
 2.1380	12.5390
 2.1390	12.5620
 2.1400	12.5830
 2.1410	12.6040
 2.1420	12.6250
 2.1430	12.6460
 2.1440	12.6700
 2.1450	12.6970
 2.1460	12.7210
 2.1470	12.7430
 2.1480	12.7660
 2.1490	12.7860
 2.1500	12.8060
 2.1510	12.8250
 2.1520	12.8450
 2.1530	12.8620
 2.1540	12.8810
 2.1550	12.9030
 2.1560	12.9240
 2.1570	12.9440
 2.1580	12.9640
 2.1590	12.9830
 2.1600	13.0000
 2.1610	13.0160
 2.1620	13.0360
 2.1630	13.0550
 2.1640	13.0750
 2.1650	13.0930
 2.1660	13.1110
 2.1670	13.1280
 2.1680	13.1420
 2.1690	13.1570
 2.1700	13.1700
 2.1710	13.1840
 2.1720	13.1980
 2.1730	13.2130
 2.1740	13.2300
 2.1750	13.2480
 2.1760	13.2700
 2.1770	13.2880
 2.1780	13.3070
 2.1790	13.3230
 2.1800	13.3330
 2.1810	13.3450
 2.1820	13.3560
 2.1830	13.3650
 2.1840	13.3780
 2.1850	13.3940
 2.1860	13.4060
 2.1870	13.4190
 2.1880	13.4330
 2.1890	13.4460
 2.1900	13.4580
 2.1910	13.4720
 2.1920	13.4840
 2.1930	13.4950
 2.1940	13.5050
 2.1950	13.5150
 2.1960	13.5270
 2.1970	13.5370
 2.1980	13.5480
 2.1990	13.5620
 2.2000	13.5730
 2.2010	13.5820
 2.2020	13.5910
 2.2030	13.5990
 2.2040	13.6080
 2.2050	13.6170
 2.2060	13.6270
 2.2070	13.6340
 2.2080	13.6400
 2.2090	13.6450
 2.2100	13.6460
 2.2110	13.6490
 2.2120	13.6490
 2.2130	13.6510
 2.2140	13.6540
 2.2150	13.6550
 2.2160	13.6550
 2.2170	13.6540
 2.2180	13.6480
 2.2190	13.6430
 2.2200	13.6380
 2.2210	13.6310
 2.2220	13.6220
 2.2230	13.6120
 2.2240	13.6000
 2.2250	13.5880
 2.2260	13.5740
 2.2270	13.5610
 2.2280	13.5490
 2.2290	13.5330
 2.2300	13.5180
 2.2310	13.4990
 2.2320	13.4740
 2.2330	13.4490
 2.2340	13.4210
 2.2350	13.3890
 2.2360	13.3600
 2.2370	13.3280
 2.2380	13.3000
 2.2390	13.2760
 2.2400	13.2490
 2.2410	13.2220
 2.2420	13.1910
 2.2430	13.1550
 2.2440	13.1220
 2.2450	13.0890
 2.2460	13.0550
 2.2470	13.0230
 2.2480	12.9880
 2.2490	12.9530
 2.2500	12.9140
 2.2510	12.8710
 2.2520	12.8290
 2.2530	12.7800
 2.2540	12.7360
 2.2550	12.6980
 2.2560	12.6560
 2.2570	12.6130
 2.2580	12.5700
 2.2590	12.5230
 2.2600	12.4780
 2.2610	12.4300
 2.2620	12.3870
 2.2630	12.3480
 2.2640	12.3120
 2.2650	12.2770
 2.2660	12.2470
 2.2670	12.2070
 2.2680	12.1600
 2.2690	12.1210
 2.2700	12.0840
 2.2710	12.0510
 2.2720	12.0230
 2.2730	11.9950
 2.2740	11.9650
 2.2750	11.9410
 2.2760	11.9190
 2.2770	11.8960
 2.2780	11.8730
 2.2790	11.8500
 2.2800	11.8270
 2.2810	11.8090
 2.2820	11.7930
 2.2830	11.7780
 2.2840	11.7670
 2.2850	11.7500
 2.2860	11.7360
 2.2870	11.7150
 2.2880	11.6910
 2.2890	11.6680
 2.2900	11.6440
 2.2910	11.6220
 2.2920	11.6010
 2.2930	11.5770
 2.2940	11.5490
 2.2950	11.5190
 2.2960	11.4840
 2.2970	11.4500
 2.2980	11.4180
 2.2990	11.3850
 2.3000	11.3590
 2.3010	11.3310
 2.3020	11.3010
 2.3030	11.2750
 2.3040	11.2470
 2.3050	11.2230
 2.3060	11.2010
 2.3070	11.1790
 2.3080	11.1580
 2.3090	11.1390
 2.3100	11.1180
 2.3110	11.0990
 2.3120	11.0810
 2.3130	11.0620
 2.3140	11.0480
 2.3150	11.0410
 2.3160	11.0310
 2.3170	11.0260
 2.3180	11.0120
 2.3190	10.9980
 2.3200	10.9770
 2.3210	10.9460
 2.3220	10.9220
 2.3230	10.8980
 2.3240	10.8740
 2.3250	10.8550
 2.3260	10.8330
 2.3270	10.8090
 2.3280	10.7850
 2.3290	10.7580
 2.3300	10.7360
 2.3310	10.7150
 2.3320	10.6940
 2.3330	10.6770
 2.3340	10.6550
 2.3350	10.6290
 2.3360	10.6020
 2.3370	10.5760
 2.3380	10.5480
 2.3390	10.5140
 2.3400	10.4900
 2.3410	10.4680
 2.3420	10.4490
 2.3430	10.4430
 2.3440	10.4240
 2.3450	10.3990
 2.3460	10.3780
 2.3470	10.3540
 2.3480	10.3330
 2.3490	10.3190
 2.3500	10.3020
 2.3510	10.2880
 2.3520	10.2720
 2.3530	10.2540
 2.3540	10.2360
 2.3550	10.2180
 2.3560	10.1990
 2.3570	10.1850
 2.3580	10.1670
 2.3590	10.1580
 2.3600	10.1460
 2.3610	10.1260
 2.3620	10.1130
 2.3630	10.0890
 2.3640	10.0610
 2.3650	10.0410
 2.3660	10.0230
 2.3670	10.0010
 2.3680	 9.9730
 2.3690	 9.9470
 2.3700	 9.9180
 2.3710	 9.8900
 2.3720	 9.8670
 2.3730	 9.8480
 2.3740	 9.8270
 2.3750	 9.8060
 2.3760	 9.7860
 2.3770	 9.7670
 2.3780	 9.7500
 2.3790	 9.7380
 2.3800	 9.7300
 2.3810	 9.7130
 2.3820	 9.6970
 2.3830	 9.6750
 2.3840	 9.6580
 2.3850	 9.6450
 2.3860	 9.6270
 2.3870	 9.6110
 2.3880	 9.5940
 2.3890	 9.5740
 2.3900	 9.5520
 2.3910	 9.5270
 2.3920	 9.5030
 2.3930	 9.4890
 2.3940	 9.4720
 2.3950	 9.4540
 2.3960	 9.4480
 2.3970	 9.4230
 2.3980	 9.3960
 2.3990	 9.3770
 2.4000	 9.3470
 2.4010	 9.3280
 2.4020	 9.3190
 2.4030	 9.2960
 2.4040	 9.2710
 2.4050	 9.2520
 2.4060	 9.2280
 2.4070	 9.2060
 2.4080	 9.1850
 2.4090	 9.1510
 2.4100	 9.1170
 2.4110	 9.0940
 2.4120	 9.0730
 2.4130	 9.0500
 2.4140	 9.0240
 2.4150	 8.9990
 2.4160	 8.9900
 2.4170	 8.9980
 2.4180	 8.9960
 2.4190	 8.9930
 2.4200	 8.9670
 2.4210	 8.9330
 2.4220	 8.9080
 2.4230	 8.8770
 2.4240	 8.8450
 2.4250	 8.8070
 2.4260	 8.7690
 2.4270	 8.7450
 2.4280	 8.7320
 2.4290	 8.7270
 2.4300	 8.7200
 2.4310	 8.6900
 2.4320	 8.6570
 2.4330	 8.6420
 2.4340	 8.6190
 2.4350	 8.6160
 2.4360	 8.6190
 2.4370	 8.5910
 2.4380	 8.5570
 2.4390	 8.5270
 2.4400	 8.5000
 2.4410	 8.4730
 2.4420	 8.4470
 2.4430	 8.4150
 2.4440	 8.3780
 2.4450	 8.3600
 2.4460	 8.3440
 2.4470	 8.3200
 2.4480	 8.3010
 2.4490	 8.2730
 2.4500	 8.2440
 2.4510	 8.2270
 2.4520	 8.2090
 2.4530	 8.1930
 2.4540	 8.1750
 2.4550	 8.1640
 2.4560	 8.1550
 2.4570	 8.1480
 2.4580	 8.1190
 2.4590	 8.0810
 2.4600	 8.0560
 2.4610	 8.0190
 2.4620	 8.0110
 2.4630	 8.0270
 2.4640	 8.0000
 2.4650	 7.9790
 2.4660	 7.9640
 2.4670	 7.9240
 2.4680	 7.9210
 2.4690	 7.8980
 2.4700	 7.8770
 2.4710	 7.8670
 2.4720	 7.8450
 2.4730	 7.8210
 2.4740	 7.8110
 2.4750	 7.7940
 2.4760	 7.7890
 2.4770	 7.7980
 2.4780	 7.7950
 2.4790	 7.7910
 2.4800	 7.7800
 2.4810	 7.7730
 2.4820	 7.7440
 2.4830	 7.7010
 2.4840	 7.6840
 2.4850	 7.7000
 2.4860	 7.7250
 2.4870	 7.7300
 2.4880	 7.7070
 2.4890	 7.6690
 2.4900	 7.6370
 2.4910	 7.6230
 2.4920	 7.6310
 2.4930	 7.6410
 2.4940	 7.6490
 2.4950	 7.6870
 2.4960	 7.7270
 2.4970	 7.7150
 2.4980	 7.6840
 2.4990	 7.6450
 2.5000	 7.6040
