Name: Agave attenuata
Type: vegetation
Class: Shrub
Genus: Agave
Species: attenuata
Sample No.: JPL061
Owner: JPL
Wavelength Range: VSWIR
Origin: 34.12717; - 118.11108; WGS84
Collection Date: 2/2/2016
Description: Samples were collected at the Huntington Garden in San Marino California as part of a JPL Subcontract studying HyTES imagery. Samples were taken to JPL and processed within 48 hours of collection. The same leaves were processed in the Nicolet and then measured using the ASD.
Measurement: Bidirectional reflectance
First Column: X
Second Column: Y
X Units: Wavelength (micrometer)
Y Units: Reflectance (percentage)
First X Value: 0.35
Last X Value: 2.5
Number of X Values: 2151
Additional Information: 

 0.3500	14.4480
 0.3510	15.4380
 0.3520	16.4540
 0.3530	16.6100
 0.3540	15.9090
 0.3550	15.3970
 0.3560	15.0870
 0.3570	14.9740
 0.3580	14.9180
 0.3590	14.1480
 0.3600	13.8040
 0.3610	14.3540
 0.3620	15.0400
 0.3630	15.1710
 0.3640	15.0560
 0.3650	15.1140
 0.3660	15.1000
 0.3670	15.0850
 0.3680	14.9030
 0.3690	14.3170
 0.3700	14.4500
 0.3710	14.2050
 0.3720	13.4440
 0.3730	14.4330
 0.3740	14.9950
 0.3750	14.7650
 0.3760	14.1610
 0.3770	14.5780
 0.3780	14.8150
 0.3790	14.6270
 0.3800	14.6170
 0.3810	14.2870
 0.3820	13.9930
 0.3830	14.0920
 0.3840	14.6960
 0.3850	15.0760
 0.3860	15.0480
 0.3870	14.6810
 0.3880	14.0660
 0.3890	13.9120
 0.3900	14.3020
 0.3910	14.6250
 0.3920	14.5540
 0.3930	14.3770
 0.3940	14.3760
 0.3950	14.4280
 0.3960	14.5570
 0.3970	14.6320
 0.3980	14.4980
 0.3990	14.4080
 0.4000	14.3920
 0.4010	14.3830
 0.4020	14.2290
 0.4030	14.2530
 0.4040	14.3990
 0.4050	14.5260
 0.4060	14.5640
 0.4070	14.5950
 0.4080	14.6030
 0.4090	14.5310
 0.4100	14.6710
 0.4110	14.8290
 0.4120	14.8380
 0.4130	14.6470
 0.4140	14.7240
 0.4150	14.8890
 0.4160	14.8370
 0.4170	14.7400
 0.4180	14.7960
 0.4190	14.9480
 0.4200	14.9230
 0.4210	14.9280
 0.4220	14.9260
 0.4230	14.8780
 0.4240	14.8440
 0.4250	14.8950
 0.4260	14.9910
 0.4270	15.0400
 0.4280	14.9890
 0.4290	14.9370
 0.4300	14.9470
 0.4310	15.0200
 0.4320	15.0720
 0.4330	15.0580
 0.4340	14.9700
 0.4350	14.8750
 0.4360	14.8660
 0.4370	14.9140
 0.4380	14.9040
 0.4390	14.9190
 0.4400	14.9190
 0.4410	14.8970
 0.4420	14.9730
 0.4430	14.9490
 0.4440	14.8620
 0.4450	14.8400
 0.4460	14.9370
 0.4470	14.9790
 0.4480	14.9360
 0.4490	14.9610
 0.4500	14.9330
 0.4510	14.9000
 0.4520	14.9110
 0.4530	14.9080
 0.4540	14.9050
 0.4550	14.9260
 0.4560	14.9860
 0.4570	15.0010
 0.4580	14.9480
 0.4590	14.8610
 0.4600	14.8540
 0.4610	14.9130
 0.4620	14.9550
 0.4630	14.9060
 0.4640	14.8980
 0.4650	14.8300
 0.4660	14.7470
 0.4670	14.8360
 0.4680	14.8090
 0.4690	14.7650
 0.4700	14.8010
 0.4710	14.7750
 0.4720	14.7550
 0.4730	14.7400
 0.4740	14.7050
 0.4750	14.7490
 0.4760	14.7610
 0.4770	14.7090
 0.4780	14.7060
 0.4790	14.7210
 0.4800	14.7140
 0.4810	14.6640
 0.4820	14.6310
 0.4830	14.6000
 0.4840	14.5820
 0.4850	14.6110
 0.4860	14.6370
 0.4870	14.6170
 0.4880	14.5570
 0.4890	14.5940
 0.4900	14.6400
 0.4910	14.6630
 0.4920	14.6640
 0.4930	14.7140
 0.4940	14.7490
 0.4950	14.7530
 0.4960	14.8050
 0.4970	14.8520
 0.4980	14.8820
 0.4990	14.9030
 0.5000	14.9250
 0.5010	15.0220
 0.5020	15.1610
 0.5030	15.2330
 0.5040	15.2780
 0.5050	15.3620
 0.5060	15.5120
 0.5070	15.6690
 0.5080	15.8290
 0.5090	15.9950
 0.5100	16.1740
 0.5110	16.3740
 0.5120	16.6050
 0.5130	16.8590
 0.5140	17.1020
 0.5150	17.3770
 0.5160	17.6670
 0.5170	17.9560
 0.5180	18.3020
 0.5190	18.6490
 0.5200	18.9810
 0.5210	19.3150
 0.5220	19.6680
 0.5230	20.0590
 0.5240	20.4650
 0.5250	20.7550
 0.5260	21.0830
 0.5270	21.4370
 0.5280	21.7450
 0.5290	22.0230
 0.5300	22.2590
 0.5310	22.4780
 0.5320	22.7410
 0.5330	22.9580
 0.5340	23.1490
 0.5350	23.3390
 0.5360	23.4840
 0.5370	23.5890
 0.5380	23.6730
 0.5390	23.7690
 0.5400	23.8770
 0.5410	23.9660
 0.5420	24.0290
 0.5430	24.1080
 0.5440	24.1940
 0.5450	24.2660
 0.5460	24.3010
 0.5470	24.3080
 0.5480	24.3330
 0.5490	24.3870
 0.5500	24.4370
 0.5510	24.4340
 0.5520	24.4140
 0.5530	24.4130
 0.5540	24.3820
 0.5550	24.3060
 0.5560	24.1950
 0.5570	24.0820
 0.5580	23.9560
 0.5590	23.8160
 0.5600	23.6650
 0.5610	23.5190
 0.5620	23.3760
 0.5630	23.2230
 0.5640	23.0440
 0.5650	22.8200
 0.5660	22.6080
 0.5670	22.4160
 0.5680	22.1850
 0.5690	21.9400
 0.5700	21.6960
 0.5710	21.4560
 0.5720	21.1930
 0.5730	20.9580
 0.5740	20.7580
 0.5750	20.5690
 0.5760	20.3570
 0.5770	20.1630
 0.5780	20.0080
 0.5790	19.8490
 0.5800	19.6860
 0.5810	19.5280
 0.5820	19.3880
 0.5830	19.2530
 0.5840	19.1360
 0.5850	19.0290
 0.5860	18.9020
 0.5870	18.7930
 0.5880	18.6990
 0.5890	18.6060
 0.5900	18.4980
 0.5910	18.4310
 0.5920	18.3890
 0.5930	18.3220
 0.5940	18.2450
 0.5950	18.1880
 0.5960	18.1560
 0.5970	18.1090
 0.5980	18.0480
 0.5990	17.9790
 0.6000	17.9100
 0.6010	17.8630
 0.6020	17.8130
 0.6030	17.7440
 0.6040	17.6530
 0.6050	17.5640
 0.6060	17.4650
 0.6070	17.3440
 0.6080	17.2230
 0.6090	17.0990
 0.6100	16.9880
 0.6110	16.8990
 0.6120	16.7610
 0.6130	16.6140
 0.6140	16.4770
 0.6150	16.3220
 0.6160	16.1860
 0.6170	16.0780
 0.6180	15.9920
 0.6190	15.9070
 0.6200	15.8260
 0.6210	15.7510
 0.6220	15.6850
 0.6230	15.6070
 0.6240	15.5520
 0.6250	15.5360
 0.6260	15.5110
 0.6270	15.4860
 0.6280	15.4710
 0.6290	15.4680
 0.6300	15.4200
 0.6310	15.3750
 0.6320	15.3510
 0.6330	15.3250
 0.6340	15.2870
 0.6350	15.2330
 0.6360	15.1600
 0.6370	15.0790
 0.6380	14.9740
 0.6390	14.8590
 0.6400	14.7590
 0.6410	14.6290
 0.6420	14.5020
 0.6430	14.3990
 0.6440	14.3090
 0.6450	14.1810
 0.6460	14.0320
 0.6470	13.9030
 0.6480	13.8320
 0.6490	13.7550
 0.6500	13.6620
 0.6510	13.5890
 0.6520	13.5210
 0.6530	13.4670
 0.6540	13.4240
 0.6550	13.3450
 0.6560	13.2640
 0.6570	13.1810
 0.6580	13.0850
 0.6590	13.0150
 0.6600	12.9210
 0.6610	12.8060
 0.6620	12.7270
 0.6630	12.6600
 0.6640	12.5870
 0.6650	12.5040
 0.6660	12.4510
 0.6670	12.3880
 0.6680	12.3310
 0.6690	12.3170
 0.6700	12.3040
 0.6710	12.2890
 0.6720	12.2820
 0.6730	12.3010
 0.6740	12.3140
 0.6750	12.3370
 0.6760	12.3830
 0.6770	12.4090
 0.6780	12.4550
 0.6790	12.5170
 0.6800	12.5630
 0.6810	12.6470
 0.6820	12.7430
 0.6830	12.8370
 0.6840	12.9550
 0.6850	13.0940
 0.6860	13.2600
 0.6870	13.4660
 0.6880	13.7350
 0.6890	14.0770
 0.6900	14.4940
 0.6910	14.9790
 0.6920	15.5830
 0.6930	16.3220
 0.6940	17.1800
 0.6950	18.0970
 0.6960	19.1140
 0.6970	20.2370
 0.6980	21.4510
 0.6990	22.7150
 0.7000	24.0450
 0.7010	25.4340
 0.7020	26.8460
 0.7030	28.2840
 0.7040	29.7320
 0.7050	31.1800
 0.7060	32.6340
 0.7070	34.0920
 0.7080	35.5530
 0.7090	37.0210
 0.7100	38.5160
 0.7110	40.0230
 0.7120	41.5320
 0.7130	43.0480
 0.7140	44.5710
 0.7150	46.1020
 0.7160	47.6330
 0.7170	49.1560
 0.7180	50.6720
 0.7190	52.1800
 0.7200	53.6750
 0.7210	55.1400
 0.7220	56.5710
 0.7230	57.9650
 0.7240	59.3190
 0.7250	60.6170
 0.7260	61.8640
 0.7270	63.0690
 0.7280	64.2190
 0.7290	65.2860
 0.7300	66.2760
 0.7310	67.2040
 0.7320	68.0850
 0.7330	68.8960
 0.7340	69.6330
 0.7350	70.3230
 0.7360	71.0140
 0.7370	71.6580
 0.7380	72.2210
 0.7390	72.7570
 0.7400	73.2530
 0.7410	73.7090
 0.7420	74.1280
 0.7430	74.5080
 0.7440	74.8460
 0.7450	75.1560
 0.7460	75.4580
 0.7470	75.6990
 0.7480	75.9030
 0.7490	76.0910
 0.7500	76.2520
 0.7510	76.3910
 0.7520	76.5070
 0.7530	76.6030
 0.7540	76.6850
 0.7550	76.7720
 0.7560	76.8540
 0.7570	76.9050
 0.7580	76.9400
 0.7590	76.9900
 0.7600	77.0490
 0.7610	77.0490
 0.7620	77.0570
 0.7630	77.0730
 0.7640	77.0780
 0.7650	77.0870
 0.7660	77.0960
 0.7670	77.0910
 0.7680	77.0630
 0.7690	77.0640
 0.7700	77.0710
 0.7710	77.0700
 0.7720	77.0700
 0.7730	77.0650
 0.7740	77.0560
 0.7750	77.0470
 0.7760	77.0570
 0.7770	77.0620
 0.7780	77.0680
 0.7790	77.0900
 0.7800	77.1020
 0.7810	77.1140
 0.7820	77.1180
 0.7830	77.0970
 0.7840	77.1230
 0.7850	77.1750
 0.7860	77.2160
 0.7870	77.2180
 0.7880	77.2480
 0.7890	77.2890
 0.7900	77.3070
 0.7910	77.3150
 0.7920	77.3520
 0.7930	77.3960
 0.7940	77.3960
 0.7950	77.4350
 0.7960	77.4680
 0.7970	77.4720
 0.7980	77.4770
 0.7990	77.5080
 0.8000	77.5490
 0.8010	77.5760
 0.8020	77.5640
 0.8030	77.5820
 0.8040	77.6180
 0.8050	77.6350
 0.8060	77.6530
 0.8070	77.6640
 0.8080	77.6690
 0.8090	77.6820
 0.8100	77.6830
 0.8110	77.6640
 0.8120	77.6400
 0.8130	77.6610
 0.8140	77.6760
 0.8150	77.6550
 0.8160	77.6010
 0.8170	77.5910
 0.8180	77.5940
 0.8190	77.5810
 0.8200	77.5330
 0.8210	77.4910
 0.8220	77.4650
 0.8230	77.4290
 0.8240	77.3350
 0.8250	77.2520
 0.8260	77.1560
 0.8270	77.0350
 0.8280	76.9130
 0.8290	76.7920
 0.8300	76.6530
 0.8310	76.4970
 0.8320	76.3970
 0.8330	76.3280
 0.8340	76.2570
 0.8350	76.1640
 0.8360	76.0950
 0.8370	76.0550
 0.8380	76.0280
 0.8390	75.9890
 0.8400	75.9440
 0.8410	75.9220
 0.8420	75.9210
 0.8430	75.8910
 0.8440	75.8660
 0.8450	75.8380
 0.8460	75.8030
 0.8470	75.7800
 0.8480	75.7790
 0.8490	75.7730
 0.8500	75.7290
 0.8510	75.6730
 0.8520	75.6480
 0.8530	75.6420
 0.8540	75.6180
 0.8550	75.6250
 0.8560	75.6090
 0.8570	75.5600
 0.8580	75.5270
 0.8590	75.5020
 0.8600	75.4650
 0.8610	75.4220
 0.8620	75.4300
 0.8630	75.3960
 0.8640	75.3510
 0.8650	75.3350
 0.8660	75.3230
 0.8670	75.2940
 0.8680	75.2330
 0.8690	75.1510
 0.8700	75.1560
 0.8710	75.1330
 0.8720	75.0590
 0.8730	74.9850
 0.8740	74.9910
 0.8750	74.9430
 0.8760	74.8340
 0.8770	74.7850
 0.8780	74.7280
 0.8790	74.6680
 0.8800	74.6190
 0.8810	74.5890
 0.8820	74.5100
 0.8830	74.4090
 0.8840	74.3230
 0.8850	74.2690
 0.8860	74.2400
 0.8870	74.2070
 0.8880	74.1410
 0.8890	74.0470
 0.8900	73.9410
 0.8910	73.8530
 0.8920	73.8020
 0.8930	73.7480
 0.8940	73.6780
 0.8950	73.6000
 0.8960	73.5370
 0.8970	73.5050
 0.8980	73.4750
 0.8990	73.4050
 0.9000	73.2660
 0.9010	73.2060
 0.9020	73.1710
 0.9030	73.1120
 0.9040	73.0270
 0.9050	72.9560
 0.9060	72.8740
 0.9070	72.7780
 0.9080	72.7210
 0.9090	72.6460
 0.9100	72.5640
 0.9110	72.4810
 0.9120	72.3390
 0.9130	72.1900
 0.9140	72.0570
 0.9150	71.9450
 0.9160	71.8540
 0.9170	71.7310
 0.9180	71.5620
 0.9190	71.3660
 0.9200	71.1740
 0.9210	70.9810
 0.9220	70.7800
 0.9230	70.5540
 0.9240	70.2500
 0.9250	70.0080
 0.9260	69.7970
 0.9270	69.4760
 0.9280	69.1450
 0.9290	68.8270
 0.9300	68.5220
 0.9310	68.2080
 0.9320	67.8180
 0.9330	67.4400
 0.9340	67.1010
 0.9350	66.7360
 0.9360	66.3040
 0.9370	65.8910
 0.9380	65.5200
 0.9390	65.0970
 0.9400	64.6390
 0.9410	64.2200
 0.9420	63.8420
 0.9430	63.3700
 0.9440	62.8880
 0.9450	62.4130
 0.9460	61.9210
 0.9470	61.3470
 0.9480	60.8280
 0.9490	60.3290
 0.9500	59.7760
 0.9510	59.1430
 0.9520	58.4780
 0.9530	57.9010
 0.9540	57.4540
 0.9550	56.9280
 0.9560	56.3500
 0.9570	55.7920
 0.9580	55.3400
 0.9590	55.0510
 0.9600	54.7720
 0.9610	54.4820
 0.9620	54.2200
 0.9630	54.0190
 0.9640	53.8270
 0.9650	53.6380
 0.9660	53.4880
 0.9670	53.4820
 0.9680	53.3870
 0.9690	53.2440
 0.9700	53.1830
 0.9710	53.0950
 0.9720	53.0250
 0.9730	52.9570
 0.9740	52.8760
 0.9750	52.8870
 0.9760	52.8460
 0.9770	52.7760
 0.9780	52.7800
 0.9790	52.8600
 0.9800	52.8860
 0.9810	52.8670
 0.9820	52.8930
 0.9830	53.0320
 0.9840	53.1280
 0.9850	53.1510
 0.9860	53.1590
 0.9870	53.2160
 0.9880	53.2620
 0.9890	53.3320
 0.9900	53.4710
 0.9910	53.5240
 0.9920	53.6670
 0.9930	53.8210
 0.9940	53.8420
 0.9950	53.9260
 0.9960	54.0580
 0.9970	54.1810
 0.9980	54.2730
 0.9990	54.5200
 1.0000	54.7200
 1.0010	54.8450
 1.0020	55.0340
 1.0030	55.2640
 1.0040	55.4640
 1.0050	55.6340
 1.0060	55.7880
 1.0070	55.9210
 1.0080	56.1110
 1.0090	56.3310
 1.0100	56.5320
 1.0110	56.7730
 1.0120	56.9950
 1.0130	57.1850
 1.0140	57.3930
 1.0150	57.6260
 1.0160	57.8270
 1.0170	58.0360
 1.0180	58.2270
 1.0190	58.4260
 1.0200	58.6410
 1.0210	58.8440
 1.0220	59.0760
 1.0230	59.3310
 1.0240	59.6360
 1.0250	59.8760
 1.0260	60.1200
 1.0270	60.3420
 1.0280	60.4830
 1.0290	60.6940
 1.0300	60.9610
 1.0310	61.1910
 1.0320	61.4370
 1.0330	61.6560
 1.0340	61.8380
 1.0350	62.0320
 1.0360	62.2520
 1.0370	62.4910
 1.0380	62.6960
 1.0390	62.9080
 1.0400	63.0980
 1.0410	63.2400
 1.0420	63.4230
 1.0430	63.6270
 1.0440	63.8200
 1.0450	64.0270
 1.0460	64.2150
 1.0470	64.4010
 1.0480	64.5710
 1.0490	64.7320
 1.0500	64.8820
 1.0510	65.0270
 1.0520	65.1400
 1.0530	65.2680
 1.0540	65.3850
 1.0550	65.5130
 1.0560	65.6610
 1.0570	65.7690
 1.0580	65.8600
 1.0590	65.9490
 1.0600	66.0070
 1.0610	66.0800
 1.0620	66.1640
 1.0630	66.2380
 1.0640	66.3240
 1.0650	66.3790
 1.0660	66.4130
 1.0670	66.4460
 1.0680	66.4690
 1.0690	66.4690
 1.0700	66.4740
 1.0710	66.4880
 1.0720	66.4770
 1.0730	66.4460
 1.0740	66.4180
 1.0750	66.3680
 1.0760	66.3460
 1.0770	66.3630
 1.0780	66.3220
 1.0790	66.2720
 1.0800	66.2040
 1.0810	66.0790
 1.0820	65.9790
 1.0830	65.8920
 1.0840	65.8010
 1.0850	65.7240
 1.0860	65.6250
 1.0870	65.5170
 1.0880	65.4030
 1.0890	65.2810
 1.0900	65.1430
 1.0910	65.0140
 1.0920	64.9020
 1.0930	64.7540
 1.0940	64.5830
 1.0950	64.4220
 1.0960	64.2290
 1.0970	64.0690
 1.0980	63.9470
 1.0990	63.7990
 1.1000	63.6450
 1.1010	63.4950
 1.1020	63.3450
 1.1030	63.1800
 1.1040	63.0100
 1.1050	62.8620
 1.1060	62.7000
 1.1070	62.5250
 1.1080	62.3540
 1.1090	62.1890
 1.1100	62.0170
 1.1110	61.8440
 1.1120	61.6630
 1.1130	61.4860
 1.1140	61.2890
 1.1150	61.0710
 1.1160	60.8590
 1.1170	60.6440
 1.1180	60.4200
 1.1190	60.2100
 1.1200	59.9720
 1.1210	59.7040
 1.1220	59.4090
 1.1230	59.0630
 1.1240	58.6940
 1.1250	58.2980
 1.1260	57.8820
 1.1270	57.4080
 1.1280	56.9050
 1.1290	56.3520
 1.1300	55.7350
 1.1310	55.1040
 1.1320	54.4340
 1.1330	53.7520
 1.1340	53.0440
 1.1350	52.3190
 1.1360	51.5780
 1.1370	50.8130
 1.1380	50.0230
 1.1390	49.2200
 1.1400	48.3980
 1.1410	47.6030
 1.1420	46.8320
 1.1430	46.0820
 1.1440	45.3810
 1.1450	44.7180
 1.1460	44.0820
 1.1470	43.4770
 1.1480	42.9120
 1.1490	42.3720
 1.1500	41.8870
 1.1510	41.4510
 1.1520	41.0390
 1.1530	40.6630
 1.1540	40.3260
 1.1550	40.0230
 1.1560	39.7520
 1.1570	39.5180
 1.1580	39.3030
 1.1590	39.1040
 1.1600	38.9340
 1.1610	38.7790
 1.1620	38.6460
 1.1630	38.5290
 1.1640	38.4190
 1.1650	38.3120
 1.1660	38.2100
 1.1670	38.1220
 1.1680	38.0440
 1.1690	37.9690
 1.1700	37.9110
 1.1710	37.8480
 1.1720	37.7840
 1.1730	37.7130
 1.1740	37.6360
 1.1750	37.5670
 1.1760	37.5010
 1.1770	37.4380
 1.1780	37.3950
 1.1790	37.3520
 1.1800	37.2920
 1.1810	37.2320
 1.1820	37.1680
 1.1830	37.1020
 1.1840	37.0440
 1.1850	36.9920
 1.1860	36.9360
 1.1870	36.8790
 1.1880	36.8260
 1.1890	36.7720
 1.1900	36.7260
 1.1910	36.6800
 1.1920	36.6490
 1.1930	36.6310
 1.1940	36.6080
 1.1950	36.5930
 1.1960	36.5780
 1.1970	36.5460
 1.1980	36.5310
 1.1990	36.5210
 1.2000	36.5110
 1.2010	36.5180
 1.2020	36.5220
 1.2030	36.5290
 1.2040	36.5500
 1.2050	36.5650
 1.2060	36.5780
 1.2070	36.5970
 1.2080	36.6180
 1.2090	36.6520
 1.2100	36.6980
 1.2110	36.7360
 1.2120	36.7730
 1.2130	36.8100
 1.2140	36.8390
 1.2150	36.8730
 1.2160	36.9120
 1.2170	36.9540
 1.2180	36.9940
 1.2190	37.0460
 1.2200	37.0970
 1.2210	37.1530
 1.2220	37.2130
 1.2230	37.2630
 1.2240	37.3150
 1.2250	37.3690
 1.2260	37.4280
 1.2270	37.4950
 1.2280	37.5540
 1.2290	37.5980
 1.2300	37.6380
 1.2310	37.6880
 1.2320	37.7470
 1.2330	37.8160
 1.2340	37.8740
 1.2350	37.9250
 1.2360	37.9800
 1.2370	38.0310
 1.2380	38.0830
 1.2390	38.1370
 1.2400	38.1900
 1.2410	38.2390
 1.2420	38.2890
 1.2430	38.3310
 1.2440	38.3800
 1.2450	38.4230
 1.2460	38.4610
 1.2470	38.5160
 1.2480	38.5710
 1.2490	38.6220
 1.2500	38.6630
 1.2510	38.7050
 1.2520	38.7470
 1.2530	38.7810
 1.2540	38.8150
 1.2550	38.8400
 1.2560	38.8620
 1.2570	38.8890
 1.2580	38.9220
 1.2590	38.9510
 1.2600	38.9810
 1.2610	39.0080
 1.2620	39.0320
 1.2630	39.0500
 1.2640	39.0680
 1.2650	39.0700
 1.2660	39.0660
 1.2670	39.0530
 1.2680	39.0320
 1.2690	39.0170
 1.2700	38.9940
 1.2710	38.9710
 1.2720	38.9420
 1.2730	38.9090
 1.2740	38.8870
 1.2750	38.8510
 1.2760	38.8110
 1.2770	38.7660
 1.2780	38.6910
 1.2790	38.6240
 1.2800	38.5570
 1.2810	38.4750
 1.2820	38.3980
 1.2830	38.3150
 1.2840	38.2130
 1.2850	38.1050
 1.2860	37.9990
 1.2870	37.8910
 1.2880	37.7780
 1.2890	37.6700
 1.2900	37.5620
 1.2910	37.4420
 1.2920	37.3180
 1.2930	37.1840
 1.2940	37.0360
 1.2950	36.8750
 1.2960	36.7000
 1.2970	36.5160
 1.2980	36.3370
 1.2990	36.1660
 1.3000	35.9900
 1.3010	35.8030
 1.3020	35.6070
 1.3030	35.4040
 1.3040	35.1960
 1.3050	34.9860
 1.3060	34.7740
 1.3070	34.5570
 1.3080	34.3250
 1.3090	34.0910
 1.3100	33.8520
 1.3110	33.6010
 1.3120	33.3520
 1.3130	33.1040
 1.3140	32.8500
 1.3150	32.6000
 1.3160	32.3340
 1.3170	32.0580
 1.3180	31.7790
 1.3190	31.4980
 1.3200	31.2140
 1.3210	30.9300
 1.3220	30.6440
 1.3230	30.3490
 1.3240	30.0610
 1.3250	29.7830
 1.3260	29.5020
 1.3270	29.2170
 1.3280	28.9290
 1.3290	28.6410
 1.3300	28.3540
 1.3310	28.0680
 1.3320	27.7890
 1.3330	27.5080
 1.3340	27.2270
 1.3350	26.9650
 1.3360	26.7080
 1.3370	26.4500
 1.3380	26.2010
 1.3390	25.9500
 1.3400	25.7020
 1.3410	25.4710
 1.3420	25.2500
 1.3430	25.0310
 1.3440	24.8120
 1.3450	24.6020
 1.3460	24.3900
 1.3470	24.1910
 1.3480	24.0040
 1.3490	23.8220
 1.3500	23.6480
 1.3510	23.4730
 1.3520	23.3030
 1.3530	23.1310
 1.3540	22.9550
 1.3550	22.7850
 1.3560	22.6150
 1.3570	22.4450
 1.3580	22.2780
 1.3590	22.1070
 1.3600	21.9310
 1.3610	21.7530
 1.3620	21.5660
 1.3630	21.3770
 1.3640	21.1830
 1.3650	20.9760
 1.3660	20.7600
 1.3670	20.5330
 1.3680	20.2960
 1.3690	20.0500
 1.3700	19.7900
 1.3710	19.5190
 1.3720	19.2330
 1.3730	18.9370
 1.3740	18.6350
 1.3750	18.3220
 1.3760	17.9950
 1.3770	17.6510
 1.3780	17.2860
 1.3790	16.9120
 1.3800	16.5270
 1.3810	16.1370
 1.3820	15.7480
 1.3830	15.3570
 1.3840	14.9630
 1.3850	14.5620
 1.3860	14.1720
 1.3870	13.7780
 1.3880	13.4050
 1.3890	13.0410
 1.3900	12.6930
 1.3910	12.3620
 1.3920	12.0360
 1.3930	11.7260
 1.3940	11.4290
 1.3950	11.1420
 1.3960	10.8730
 1.3970	10.6230
 1.3980	10.3920
 1.3990	10.1860
 1.4000	 9.9920
 1.4010	 9.8100
 1.4020	 9.6420
 1.4030	 9.4780
 1.4040	 9.3300
 1.4050	 9.1990
 1.4060	 9.0760
 1.4070	 8.9650
 1.4080	 8.8680
 1.4090	 8.7750
 1.4100	 8.6850
 1.4110	 8.6050
 1.4120	 8.5290
 1.4130	 8.4530
 1.4140	 8.3870
 1.4150	 8.3290
 1.4160	 8.2750
 1.4170	 8.2260
 1.4180	 8.1810
 1.4190	 8.1390
 1.4200	 8.0950
 1.4210	 8.0530
 1.4220	 8.0170
 1.4230	 7.9810
 1.4240	 7.9500
 1.4250	 7.9210
 1.4260	 7.8960
 1.4270	 7.8690
 1.4280	 7.8420
 1.4290	 7.8180
 1.4300	 7.7950
 1.4310	 7.7750
 1.4320	 7.7580
 1.4330	 7.7400
 1.4340	 7.7220
 1.4350	 7.7060
 1.4360	 7.6920
 1.4370	 7.6740
 1.4380	 7.6600
 1.4390	 7.6490
 1.4400	 7.6380
 1.4410	 7.6280
 1.4420	 7.6170
 1.4430	 7.6090
 1.4440	 7.6000
 1.4450	 7.5920
 1.4460	 7.5870
 1.4470	 7.5810
 1.4480	 7.5730
 1.4490	 7.5670
 1.4500	 7.5630
 1.4510	 7.5570
 1.4520	 7.5530
 1.4530	 7.5510
 1.4540	 7.5490
 1.4550	 7.5470
 1.4560	 7.5460
 1.4570	 7.5510
 1.4580	 7.5530
 1.4590	 7.5520
 1.4600	 7.5510
 1.4610	 7.5490
 1.4620	 7.5480
 1.4630	 7.5530
 1.4640	 7.5620
 1.4650	 7.5680
 1.4660	 7.5750
 1.4670	 7.5850
 1.4680	 7.5930
 1.4690	 7.6050
 1.4700	 7.6180
 1.4710	 7.6300
 1.4720	 7.6430
 1.4730	 7.6560
 1.4740	 7.6710
 1.4750	 7.6840
 1.4760	 7.6960
 1.4770	 7.7110
 1.4780	 7.7270
 1.4790	 7.7490
 1.4800	 7.7720
 1.4810	 7.7970
 1.4820	 7.8220
 1.4830	 7.8410
 1.4840	 7.8580
 1.4850	 7.8780
 1.4860	 7.9000
 1.4870	 7.9250
 1.4880	 7.9520
 1.4890	 7.9770
 1.4900	 8.0040
 1.4910	 8.0280
 1.4920	 8.0530
 1.4930	 8.0780
 1.4940	 8.1050
 1.4950	 8.1320
 1.4960	 8.1630
 1.4970	 8.2000
 1.4980	 8.2320
 1.4990	 8.2620
 1.5000	 8.2920
 1.5010	 8.3180
 1.5020	 8.3490
 1.5030	 8.3850
 1.5040	 8.4190
 1.5050	 8.4580
 1.5060	 8.4940
 1.5070	 8.5280
 1.5080	 8.5620
 1.5090	 8.5980
 1.5100	 8.6280
 1.5110	 8.6600
 1.5120	 8.6970
 1.5130	 8.7330
 1.5140	 8.7740
 1.5150	 8.8170
 1.5160	 8.8580
 1.5170	 8.8960
 1.5180	 8.9360
 1.5190	 8.9780
 1.5200	 9.0170
 1.5210	 9.0610
 1.5220	 9.1040
 1.5230	 9.1450
 1.5240	 9.1880
 1.5250	 9.2270
 1.5260	 9.2660
 1.5270	 9.3100
 1.5280	 9.3560
 1.5290	 9.4020
 1.5300	 9.4500
 1.5310	 9.4970
 1.5320	 9.5380
 1.5330	 9.5790
 1.5340	 9.6230
 1.5350	 9.6690
 1.5360	 9.7200
 1.5370	 9.7750
 1.5380	 9.8270
 1.5390	 9.8760
 1.5400	 9.9200
 1.5410	 9.9640
 1.5420	10.0090
 1.5430	10.0560
 1.5440	10.1070
 1.5450	10.1590
 1.5460	10.2130
 1.5470	10.2600
 1.5480	10.3040
 1.5490	10.3490
 1.5500	10.3920
 1.5510	10.4420
 1.5520	10.4970
 1.5530	10.5520
 1.5540	10.6030
 1.5550	10.6520
 1.5560	10.6990
 1.5570	10.7440
 1.5580	10.7900
 1.5590	10.8380
 1.5600	10.8880
 1.5610	10.9350
 1.5620	10.9840
 1.5630	11.0430
 1.5640	11.0970
 1.5650	11.1500
 1.5660	11.2030
 1.5670	11.2460
 1.5680	11.2940
 1.5690	11.3430
 1.5700	11.3940
 1.5710	11.4490
 1.5720	11.4940
 1.5730	11.5380
 1.5740	11.5860
 1.5750	11.6300
 1.5760	11.6760
 1.5770	11.7250
 1.5780	11.7730
 1.5790	11.8180
 1.5800	11.8670
 1.5810	11.9160
 1.5820	11.9630
 1.5830	12.0120
 1.5840	12.0660
 1.5850	12.1150
 1.5860	12.1580
 1.5870	12.2020
 1.5880	12.2400
 1.5890	12.2810
 1.5900	12.3260
 1.5910	12.3710
 1.5920	12.4180
 1.5930	12.4630
 1.5940	12.5070
 1.5950	12.5540
 1.5960	12.5960
 1.5970	12.6370
 1.5980	12.6820
 1.5990	12.7210
 1.6000	12.7630
 1.6010	12.8060
 1.6020	12.8450
 1.6030	12.8850
 1.6040	12.9200
 1.6050	12.9560
 1.6060	12.9930
 1.6070	13.0280
 1.6080	13.0710
 1.6090	13.1110
 1.6100	13.1520
 1.6110	13.1980
 1.6120	13.2320
 1.6130	13.2620
 1.6140	13.2930
 1.6150	13.3230
 1.6160	13.3600
 1.6170	13.3980
 1.6180	13.4370
 1.6190	13.4760
 1.6200	13.5040
 1.6210	13.5340
 1.6220	13.5620
 1.6230	13.5890
 1.6240	13.6280
 1.6250	13.6620
 1.6260	13.6980
 1.6270	13.7350
 1.6280	13.7580
 1.6290	13.7830
 1.6300	13.8020
 1.6310	13.8280
 1.6320	13.8590
 1.6330	13.8890
 1.6340	13.9280
 1.6350	13.9570
 1.6360	13.9770
 1.6370	14.0040
 1.6380	14.0300
 1.6390	14.0600
 1.6400	14.0990
 1.6410	14.1290
 1.6420	14.1570
 1.6430	14.1800
 1.6440	14.1970
 1.6450	14.2200
 1.6460	14.2370
 1.6470	14.2570
 1.6480	14.2750
 1.6490	14.2910
 1.6500	14.3140
 1.6510	14.3320
 1.6520	14.3510
 1.6530	14.3680
 1.6540	14.3800
 1.6550	14.3980
 1.6560	14.4190
 1.6570	14.4400
 1.6580	14.4560
 1.6590	14.4680
 1.6600	14.4830
 1.6610	14.4950
 1.6620	14.5100
 1.6630	14.5330
 1.6640	14.5480
 1.6650	14.5640
 1.6660	14.5800
 1.6670	14.5790
 1.6680	14.5760
 1.6690	14.5730
 1.6700	14.5630
 1.6710	14.5670
 1.6720	14.5780
 1.6730	14.5800
 1.6740	14.5840
 1.6750	14.5840
 1.6760	14.5770
 1.6770	14.5710
 1.6780	14.5690
 1.6790	14.5670
 1.6800	14.5600
 1.6810	14.5560
 1.6820	14.5480
 1.6830	14.5350
 1.6840	14.5240
 1.6850	14.5110
 1.6860	14.4970
 1.6870	14.4850
 1.6880	14.4720
 1.6890	14.4630
 1.6900	14.4460
 1.6910	14.4190
 1.6920	14.4000
 1.6930	14.3800
 1.6940	14.3590
 1.6950	14.3440
 1.6960	14.3250
 1.6970	14.3000
 1.6980	14.2800
 1.6990	14.2640
 1.7000	14.2450
 1.7010	14.2250
 1.7020	14.2030
 1.7030	14.1810
 1.7040	14.1540
 1.7050	14.1220
 1.7060	14.0910
 1.7070	14.0570
 1.7080	14.0220
 1.7090	13.9850
 1.7100	13.9510
 1.7110	13.9130
 1.7120	13.8870
 1.7130	13.8610
 1.7140	13.8290
 1.7150	13.7980
 1.7160	13.7630
 1.7170	13.7250
 1.7180	13.6900
 1.7190	13.6560
 1.7200	13.6170
 1.7210	13.5760
 1.7220	13.5300
 1.7230	13.4790
 1.7240	13.4270
 1.7250	13.3690
 1.7260	13.3250
 1.7270	13.2790
 1.7280	13.2340
 1.7290	13.2040
 1.7300	13.1590
 1.7310	13.1230
 1.7320	13.0920
 1.7330	13.0590
 1.7340	13.0310
 1.7350	13.0030
 1.7360	12.9800
 1.7370	12.9460
 1.7380	12.9060
 1.7390	12.8680
 1.7400	12.8170
 1.7410	12.7770
 1.7420	12.7480
 1.7430	12.7100
 1.7440	12.6720
 1.7450	12.6250
 1.7460	12.5710
 1.7470	12.5200
 1.7480	12.4630
 1.7490	12.4150
 1.7500	12.3730
 1.7510	12.3250
 1.7520	12.2760
 1.7530	12.2280
 1.7540	12.1770
 1.7550	12.1300
 1.7560	12.0820
 1.7570	12.0300
 1.7580	11.9800
 1.7590	11.9300
 1.7600	11.8870
 1.7610	11.8380
 1.7620	11.7920
 1.7630	11.7440
 1.7640	11.7020
 1.7650	11.6680
 1.7660	11.6350
 1.7670	11.6110
 1.7680	11.5790
 1.7690	11.5420
 1.7700	11.5070
 1.7710	11.4650
 1.7720	11.4320
 1.7730	11.4030
 1.7740	11.3790
 1.7750	11.3590
 1.7760	11.3420
 1.7770	11.3330
 1.7780	11.3150
 1.7790	11.2940
 1.7800	11.2770
 1.7810	11.2570
 1.7820	11.2470
 1.7830	11.2480
 1.7840	11.2380
 1.7850	11.2280
 1.7860	11.2170
 1.7870	11.1990
 1.7880	11.1880
 1.7890	11.1830
 1.7900	11.1800
 1.7910	11.1730
 1.7920	11.1620
 1.7930	11.1590
 1.7940	11.1600
 1.7950	11.1620
 1.7960	11.1730
 1.7970	11.1770
 1.7980	11.1790
 1.7990	11.1750
 1.8000	11.1630
 1.8010	11.1610
 1.8020	11.1560
 1.8030	11.1590
 1.8040	11.1720
 1.8050	11.1800
 1.8060	11.1910
 1.8070	11.1950
 1.8080	11.2000
 1.8090	11.1960
 1.8100	11.1800
 1.8110	11.1820
 1.8120	11.1850
 1.8130	11.1960
 1.8140	11.2020
 1.8150	11.1960
 1.8160	11.1890
 1.8170	11.1820
 1.8180	11.1800
 1.8190	11.1910
 1.8200	11.1970
 1.8210	11.2120
 1.8220	11.2140
 1.8230	11.2000
 1.8240	11.1880
 1.8250	11.1680
 1.8260	11.1540
 1.8270	11.1440
 1.8280	11.1360
 1.8290	11.1310
 1.8300	11.1210
 1.8310	11.1280
 1.8320	11.0720
 1.8330	11.0560
 1.8340	11.0490
 1.8350	11.0210
 1.8360	11.0150
 1.8370	11.0000
 1.8380	10.9810
 1.8390	10.9630
 1.8400	10.9540
 1.8410	10.9160
 1.8420	10.8670
 1.8430	10.8170
 1.8440	10.7420
 1.8450	10.6680
 1.8460	10.6170
 1.8470	10.5570
 1.8480	10.5030
 1.8490	10.4460
 1.8500	10.3730
 1.8510	10.2830
 1.8520	10.1970
 1.8530	10.0920
 1.8540	 9.9850
 1.8550	 9.8920
 1.8560	 9.7930
 1.8570	 9.6950
 1.8580	 9.6000
 1.8590	 9.4960
 1.8600	 9.3840
 1.8610	 9.2610
 1.8620	 9.1470
 1.8630	 9.0210
 1.8640	 8.8870
 1.8650	 8.7710
 1.8660	 8.6490
 1.8670	 8.5180
 1.8680	 8.4010
 1.8690	 8.2810
 1.8700	 8.1590
 1.8710	 8.0370
 1.8720	 7.9200
 1.8730	 7.7910
 1.8740	 7.6540
 1.8750	 7.5220
 1.8760	 7.4040
 1.8770	 7.2860
 1.8780	 7.1830
 1.8790	 7.0860
 1.8800	 6.9870
 1.8810	 6.8820
 1.8820	 6.8090
 1.8830	 6.7300
 1.8840	 6.6490
 1.8850	 6.5850
 1.8860	 6.5100
 1.8870	 6.4420
 1.8880	 6.3820
 1.8890	 6.3290
 1.8900	 6.2820
 1.8910	 6.2350
 1.8920	 6.1920
 1.8930	 6.1490
 1.8940	 6.1030
 1.8950	 6.0670
 1.8960	 6.0420
 1.8970	 6.0110
 1.8980	 5.9800
 1.8990	 5.9560
 1.9000	 5.9260
 1.9010	 5.8810
 1.9020	 5.8600
 1.9030	 5.8530
 1.9040	 5.8350
 1.9050	 5.8200
 1.9060	 5.8060
 1.9070	 5.7710
 1.9080	 5.7470
 1.9090	 5.7430
 1.9100	 5.7360
 1.9110	 5.7340
 1.9120	 5.7530
 1.9130	 5.7530
 1.9140	 5.7390
 1.9150	 5.7360
 1.9160	 5.7450
 1.9170	 5.7270
 1.9180	 5.7070
 1.9190	 5.6980
 1.9200	 5.6830
 1.9210	 5.6780
 1.9220	 5.6730
 1.9230	 5.6870
 1.9240	 5.6830
 1.9250	 5.6700
 1.9260	 5.6580
 1.9270	 5.6400
 1.9280	 5.6390
 1.9290	 5.6330
 1.9300	 5.6210
 1.9310	 5.6160
 1.9320	 5.6100
 1.9330	 5.6120
 1.9340	 5.6230
 1.9350	 5.6340
 1.9360	 5.6600
 1.9370	 5.6690
 1.9380	 5.6720
 1.9390	 5.6700
 1.9400	 5.6630
 1.9410	 5.6560
 1.9420	 5.6570
 1.9430	 5.6660
 1.9440	 5.6690
 1.9450	 5.6730
 1.9460	 5.6770
 1.9470	 5.6750
 1.9480	 5.6780
 1.9490	 5.6830
 1.9500	 5.6930
 1.9510	 5.6930
 1.9520	 5.7010
 1.9530	 5.7080
 1.9540	 5.7110
 1.9550	 5.7170
 1.9560	 5.7290
 1.9570	 5.7320
 1.9580	 5.7270
 1.9590	 5.7260
 1.9600	 5.7260
 1.9610	 5.7250
 1.9620	 5.7250
 1.9630	 5.7250
 1.9640	 5.7300
 1.9650	 5.7140
 1.9660	 5.7120
 1.9670	 5.7220
 1.9680	 5.7300
 1.9690	 5.7520
 1.9700	 5.7580
 1.9710	 5.7530
 1.9720	 5.7550
 1.9730	 5.7620
 1.9740	 5.7470
 1.9750	 5.7540
 1.9760	 5.7780
 1.9770	 5.7790
 1.9780	 5.7980
 1.9790	 5.8030
 1.9800	 5.7900
 1.9810	 5.7890
 1.9820	 5.7870
 1.9830	 5.7930
 1.9840	 5.8210
 1.9850	 5.8300
 1.9860	 5.8310
 1.9870	 5.8380
 1.9880	 5.8490
 1.9890	 5.8540
 1.9900	 5.8700
 1.9910	 5.8900
 1.9920	 5.9000
 1.9930	 5.8970
 1.9940	 5.9020
 1.9950	 5.9090
 1.9960	 5.9120
 1.9970	 5.9130
 1.9980	 5.9130
 1.9990	 5.9090
 2.0000	 5.9080
 2.0010	 5.9200
 2.0020	 5.9290
 2.0030	 5.9490
 2.0040	 5.9680
 2.0050	 5.9830
 2.0060	 5.9990
 2.0070	 6.0080
 2.0080	 6.0110
 2.0090	 6.0130
 2.0100	 6.0040
 2.0110	 6.0070
 2.0120	 6.0100
 2.0130	 6.0230
 2.0140	 6.0560
 2.0150	 6.0610
 2.0160	 6.0630
 2.0170	 6.0780
 2.0180	 6.0860
 2.0190	 6.0900
 2.0200	 6.0910
 2.0210	 6.0880
 2.0220	 6.0880
 2.0230	 6.0800
 2.0240	 6.0820
 2.0250	 6.0890
 2.0260	 6.0980
 2.0270	 6.1070
 2.0280	 6.1310
 2.0290	 6.1420
 2.0300	 6.1790
 2.0310	 6.2010
 2.0320	 6.2250
 2.0330	 6.2340
 2.0340	 6.2360
 2.0350	 6.2360
 2.0360	 6.2190
 2.0370	 6.2170
 2.0380	 6.2210
 2.0390	 6.2280
 2.0400	 6.2420
 2.0410	 6.2560
 2.0420	 6.2770
 2.0430	 6.2930
 2.0440	 6.3040
 2.0450	 6.3120
 2.0460	 6.3220
 2.0470	 6.3230
 2.0480	 6.3330
 2.0490	 6.3530
 2.0500	 6.3620
 2.0510	 6.3640
 2.0520	 6.3730
 2.0530	 6.3870
 2.0540	 6.3920
 2.0550	 6.3960
 2.0560	 6.4050
 2.0570	 6.4010
 2.0580	 6.3880
 2.0590	 6.3920
 2.0600	 6.4070
 2.0610	 6.4120
 2.0620	 6.4180
 2.0630	 6.4280
 2.0640	 6.4270
 2.0650	 6.4410
 2.0660	 6.4660
 2.0670	 6.4910
 2.0680	 6.5360
 2.0690	 6.5560
 2.0700	 6.5550
 2.0710	 6.5670
 2.0720	 6.5680
 2.0730	 6.5730
 2.0740	 6.5840
 2.0750	 6.6150
 2.0760	 6.6270
 2.0770	 6.6300
 2.0780	 6.6360
 2.0790	 6.6330
 2.0800	 6.6440
 2.0810	 6.6680
 2.0820	 6.6750
 2.0830	 6.6720
 2.0840	 6.6840
 2.0850	 6.6970
 2.0860	 6.7040
 2.0870	 6.7130
 2.0880	 6.7400
 2.0890	 6.7510
 2.0900	 6.7470
 2.0910	 6.7530
 2.0920	 6.7690
 2.0930	 6.7730
 2.0940	 6.7650
 2.0950	 6.7710
 2.0960	 6.7800
 2.0970	 6.7870
 2.0980	 6.8030
 2.0990	 6.8110
 2.1000	 6.8040
 2.1010	 6.8120
 2.1020	 6.8290
 2.1030	 6.8440
 2.1040	 6.8660
 2.1050	 6.8900
 2.1060	 6.9100
 2.1070	 6.9290
 2.1080	 6.9420
 2.1090	 6.9500
 2.1100	 6.9670
 2.1110	 6.9790
 2.1120	 7.0040
 2.1130	 7.0500
 2.1140	 7.0750
 2.1150	 7.1020
 2.1160	 7.1110
 2.1170	 7.0900
 2.1180	 7.0920
 2.1190	 7.0900
 2.1200	 7.0980
 2.1210	 7.1270
 2.1220	 7.1560
 2.1230	 7.1730
 2.1240	 7.1870
 2.1250	 7.2030
 2.1260	 7.2120
 2.1270	 7.2280
 2.1280	 7.2490
 2.1290	 7.2630
 2.1300	 7.2740
 2.1310	 7.2860
 2.1320	 7.2950
 2.1330	 7.3080
 2.1340	 7.3320
 2.1350	 7.3410
 2.1360	 7.3400
 2.1370	 7.3460
 2.1380	 7.3420
 2.1390	 7.3490
 2.1400	 7.3780
 2.1410	 7.3970
 2.1420	 7.4050
 2.1430	 7.4120
 2.1440	 7.4120
 2.1450	 7.3880
 2.1460	 7.3920
 2.1470	 7.4030
 2.1480	 7.4180
 2.1490	 7.4580
 2.1500	 7.4700
 2.1510	 7.4740
 2.1520	 7.4710
 2.1530	 7.4410
 2.1540	 7.4300
 2.1550	 7.4180
 2.1560	 7.4210
 2.1570	 7.4510
 2.1580	 7.4620
 2.1590	 7.4830
 2.1600	 7.4800
 2.1610	 7.4780
 2.1620	 7.4620
 2.1630	 7.4610
 2.1640	 7.4650
 2.1650	 7.4700
 2.1660	 7.4860
 2.1670	 7.4830
 2.1680	 7.4710
 2.1690	 7.4660
 2.1700	 7.4430
 2.1710	 7.4490
 2.1720	 7.4770
 2.1730	 7.5020
 2.1740	 7.5600
 2.1750	 7.5780
 2.1760	 7.5750
 2.1770	 7.5740
 2.1780	 7.5370
 2.1790	 7.5250
 2.1800	 7.5330
 2.1810	 7.5370
 2.1820	 7.5450
 2.1830	 7.5690
 2.1840	 7.5720
 2.1850	 7.5650
 2.1860	 7.5660
 2.1870	 7.5630
 2.1880	 7.5610
 2.1890	 7.5620
 2.1900	 7.5650
 2.1910	 7.5630
 2.1920	 7.5720
 2.1930	 7.5970
 2.1940	 7.6080
 2.1950	 7.6170
 2.1960	 7.6230
 2.1970	 7.6180
 2.1980	 7.6210
 2.1990	 7.6260
 2.2000	 7.6290
 2.2010	 7.6380
 2.2020	 7.6370
 2.2030	 7.6310
 2.2040	 7.6240
 2.2050	 7.5970
 2.2060	 7.5940
 2.2070	 7.5930
 2.2080	 7.5980
 2.2090	 7.6050
 2.2100	 7.6280
 2.2110	 7.6290
 2.2120	 7.6180
 2.2130	 7.6210
 2.2140	 7.6190
 2.2150	 7.6250
 2.2160	 7.6540
 2.2170	 7.6570
 2.2180	 7.6420
 2.2190	 7.6390
 2.2200	 7.6210
 2.2210	 7.6230
 2.2220	 7.6650
 2.2230	 7.6640
 2.2240	 7.6410
 2.2250	 7.6320
 2.2260	 7.6060
 2.2270	 7.5840
 2.2280	 7.5680
 2.2290	 7.5660
 2.2300	 7.5790
 2.2310	 7.5680
 2.2320	 7.5640
 2.2330	 7.5730
 2.2340	 7.5840
 2.2350	 7.5910
 2.2360	 7.5780
 2.2370	 7.5750
 2.2380	 7.5510
 2.2390	 7.4790
 2.2400	 7.4520
 2.2410	 7.4380
 2.2420	 7.4370
 2.2430	 7.4710
 2.2440	 7.4600
 2.2450	 7.4330
 2.2460	 7.4200
 2.2470	 7.3770
 2.2480	 7.3670
 2.2490	 7.4050
 2.2500	 7.4030
 2.2510	 7.3700
 2.2520	 7.3680
 2.2530	 7.3730
 2.2540	 7.3710
 2.2550	 7.4070
 2.2560	 7.4030
 2.2570	 7.3560
 2.2580	 7.3300
 2.2590	 7.2950
 2.2600	 7.2660
 2.2610	 7.2530
 2.2620	 7.2290
 2.2630	 7.2230
 2.2640	 7.2430
 2.2650	 7.2660
 2.2660	 7.2870
 2.2670	 7.2830
 2.2680	 7.2680
 2.2690	 7.2290
 2.2700	 7.1540
 2.2710	 7.1240
 2.2720	 7.0970
 2.2730	 7.0650
 2.2740	 7.0550
 2.2750	 7.0370
 2.2760	 6.9850
 2.2770	 6.9800
 2.2780	 7.0200
 2.2790	 7.0310
 2.2800	 7.0520
 2.2810	 7.0600
 2.2820	 7.0730
 2.2830	 7.0460
 2.2840	 6.9700
 2.2850	 6.9410
 2.2860	 6.8990
 2.2870	 6.8740
 2.2880	 6.9030
 2.2890	 6.9120
 2.2900	 6.9110
 2.2910	 6.9030
 2.2920	 6.9010
 2.2930	 6.8810
 2.2940	 6.8190
 2.2950	 6.7900
 2.2960	 6.7710
 2.2970	 6.7620
 2.2980	 6.7880
 2.2990	 6.7900
 2.3000	 6.7880
 2.3010	 6.7450
 2.3020	 6.7070
 2.3030	 6.6980
 2.3040	 6.6710
 2.3050	 6.6410
 2.3060	 6.5970
 2.3070	 6.5470
 2.3080	 6.5270
 2.3090	 6.5520
 2.3100	 6.5860
 2.3110	 6.5810
 2.3120	 6.5930
 2.3130	 6.6090
 2.3140	 6.6040
 2.3150	 6.5940
 2.3160	 6.5890
 2.3170	 6.5590
 2.3180	 6.5520
 2.3190	 6.5670
 2.3200	 6.5710
 2.3210	 6.5730
 2.3220	 6.5760
 2.3230	 6.5790
 2.3240	 6.5850
 2.3250	 6.5920
 2.3260	 6.6030
 2.3270	 6.6280
 2.3280	 6.6170
 2.3290	 6.5780
 2.3300	 6.5640
 2.3310	 6.5280
 2.3320	 6.5260
 2.3330	 6.5660
 2.3340	 6.5800
 2.3350	 6.6160
 2.3360	 6.6020
 2.3370	 6.5390
 2.3380	 6.5060
 2.3390	 6.4490
 2.3400	 6.4070
 2.3410	 6.3860
 2.3420	 6.3800
 2.3430	 6.4050
 2.3440	 6.3910
 2.3450	 6.3470
 2.3460	 6.3350
 2.3470	 6.2930
 2.3480	 6.2940
 2.3490	 6.3770
 2.3500	 6.4230
 2.3510	 6.4800
 2.3520	 6.4970
 2.3530	 6.4700
 2.3540	 6.4670
 2.3550	 6.4620
 2.3560	 6.4270
 2.3570	 6.4130
 2.3580	 6.4090
 2.3590	 6.4000
 2.3600	 6.3610
 2.3610	 6.3190
 2.3620	 6.2900
 2.3630	 6.2420
 2.3640	 6.2240
 2.3650	 6.2070
 2.3660	 6.2010
 2.3670	 6.2390
 2.3680	 6.2400
 2.3690	 6.2860
 2.3700	 6.3370
 2.3710	 6.2940
 2.3720	 6.2770
 2.3730	 6.2340
 2.3740	 6.1460
 2.3750	 6.1110
 2.3760	 6.1080
 2.3770	 6.1040
 2.3780	 6.1410
 2.3790	 6.2040
 2.3800	 6.2160
 2.3810	 6.1990
 2.3820	 6.1830
 2.3830	 6.2080
 2.3840	 6.2220
 2.3850	 6.2280
 2.3860	 6.2640
 2.3870	 6.1690
 2.3880	 6.0440
 2.3890	 6.0180
 2.3900	 6.0000
 2.3910	 6.0590
 2.3920	 6.1600
 2.3930	 6.1460
 2.3940	 6.0970
 2.3950	 6.0660
 2.3960	 6.0160
 2.3970	 6.0080
 2.3980	 6.0160
 2.3990	 5.9950
 2.4000	 5.9700
 2.4010	 5.9400
 2.4020	 5.9380
 2.4030	 5.9340
 2.4040	 5.9180
 2.4050	 5.9110
 2.4060	 5.8700
 2.4070	 5.8470
 2.4080	 5.8790
 2.4090	 5.9080
 2.4100	 5.9550
 2.4110	 6.0200
 2.4120	 5.9840
 2.4130	 5.9590
 2.4140	 5.9880
 2.4150	 5.9610
 2.4160	 5.9620
 2.4170	 5.9540
 2.4180	 5.9050
 2.4190	 5.8840
 2.4200	 5.8750
 2.4210	 5.9650
 2.4220	 6.0230
 2.4230	 5.9890
 2.4240	 6.0440
 2.4250	 6.0610
 2.4260	 6.0730
 2.4270	 6.1460
 2.4280	 6.1090
 2.4290	 5.9760
 2.4300	 5.8520
 2.4310	 5.7620
 2.4320	 5.7660
 2.4330	 5.8340
 2.4340	 5.9320
 2.4350	 5.9930
 2.4360	 5.9900
 2.4370	 6.0490
 2.4380	 5.9740
 2.4390	 5.8240
 2.4400	 5.8340
 2.4410	 5.7600
 2.4420	 5.7640
 2.4430	 5.9020
 2.4440	 5.9760
 2.4450	 6.1010
 2.4460	 6.0890
 2.4470	 6.0920
 2.4480	 6.1540
 2.4490	 6.0390
 2.4500	 6.0090
 2.4510	 5.9320
 2.4520	 5.7820
 2.4530	 5.7620
 2.4540	 5.7780
 2.4550	 5.9250
 2.4560	 6.0150
 2.4570	 6.0140
 2.4580	 6.0000
 2.4590	 5.8420
 2.4600	 5.8230
 2.4610	 5.8020
 2.4620	 5.7830
 2.4630	 5.9990
 2.4640	 6.0420
 2.4650	 5.9680
 2.4660	 5.9260
 2.4670	 5.7050
 2.4680	 5.5500
 2.4690	 5.6480
 2.4700	 5.6330
 2.4710	 5.5690
 2.4720	 5.5540
 2.4730	 5.4980
 2.4740	 5.4930
 2.4750	 5.7100
 2.4760	 5.7880
 2.4770	 5.7840
 2.4780	 5.7780
 2.4790	 5.6190
 2.4800	 5.5340
 2.4810	 5.4270
 2.4820	 5.2700
 2.4830	 5.3390
 2.4840	 5.2780
 2.4850	 5.3460
 2.4860	 5.4770
 2.4870	 5.5970
 2.4880	 5.7630
 2.4890	 5.8930
 2.4900	 6.0270
 2.4910	 5.9850
 2.4920	 5.7500
 2.4930	 5.4110
 2.4940	 5.0340
 2.4950	 4.8600
 2.4960	 5.0640
 2.4970	 5.5570
 2.4980	 6.0330
 2.4990	 6.1500
 2.5000	 6.0140
