Name: Ceanothus megacarpus 2
Type: vegetation
Class: Shrub
Genus: Ceanothus
Species: megacarpus
Sample No.: VH213
Owner: UCSB
Wavelength Range: VSWIR
Origin: 34.4909; -119.7914; WGS84
Collection Date: 10/13/2013
Description: Samples were collected as part of the HyspIRI Airborne Campaign. 48 individual plants were sampled in three times in 2013 - spring  summer  and fall. The name of the sample includes a 1  2  or 3 which references a different individual of the species. Samples were taken to JPL and processed within 48 hours of collection. The same leaves were processed in the Nicolet and then measured using the ASD.
Measurement: Bidirectional reflectance
First Column: X
Second Column: Y
X Units: Wavelength (micrometers)
Y Units: Reflectance (percentage)
First X Value: 0.35
Last X Value: 2.5
Number of X Values: 2151
Additional Information: vegetation.shrub.ceanothus.megacarpus.vswir.vh213.ucsb.asd.ancillary.txt

 0.3500	 6.0060
 0.3510	 5.8080
 0.3520	 5.5650
 0.3530	 5.4340
 0.3540	 5.4640
 0.3550	 5.4530
 0.3560	 5.4280
 0.3570	 5.4370
 0.3580	 5.5250
 0.3590	 5.5640
 0.3600	 5.4790
 0.3610	 5.3190
 0.3620	 5.2960
 0.3630	 5.2800
 0.3640	 5.3280
 0.3650	 5.4500
 0.3660	 5.3430
 0.3670	 5.2030
 0.3680	 5.1610
 0.3690	 5.2680
 0.3700	 5.2930
 0.3710	 5.2210
 0.3720	 5.1300
 0.3730	 5.2050
 0.3740	 5.3080
 0.3750	 5.2830
 0.3760	 5.0810
 0.3770	 5.1400
 0.3780	 5.2450
 0.3790	 5.2850
 0.3800	 5.2640
 0.3810	 5.2310
 0.3820	 5.2070
 0.3830	 5.1820
 0.3840	 5.0960
 0.3850	 5.0430
 0.3860	 5.0830
 0.3870	 5.2180
 0.3880	 5.2610
 0.3890	 5.2240
 0.3900	 5.1560
 0.3910	 5.1180
 0.3920	 5.0930
 0.3930	 5.0940
 0.3940	 5.1290
 0.3950	 5.1720
 0.3960	 5.2050
 0.3970	 5.1750
 0.3980	 5.0520
 0.3990	 5.0820
 0.4000	 5.1520
 0.4010	 5.1660
 0.4020	 5.0850
 0.4030	 5.0730
 0.4040	 5.1050
 0.4050	 5.1190
 0.4060	 5.1250
 0.4070	 5.0780
 0.4080	 5.0430
 0.4090	 5.1310
 0.4100	 5.1320
 0.4110	 5.1160
 0.4120	 5.1310
 0.4130	 5.1130
 0.4140	 5.0970
 0.4150	 5.1110
 0.4160	 5.1610
 0.4170	 5.1750
 0.4180	 5.1800
 0.4190	 5.1970
 0.4200	 5.2290
 0.4210	 5.2660
 0.4220	 5.2900
 0.4230	 5.2950
 0.4240	 5.2940
 0.4250	 5.3370
 0.4260	 5.4000
 0.4270	 5.4310
 0.4280	 5.4660
 0.4290	 5.4940
 0.4300	 5.5180
 0.4310	 5.5670
 0.4320	 5.6010
 0.4330	 5.6330
 0.4340	 5.6790
 0.4350	 5.7090
 0.4360	 5.7410
 0.4370	 5.7730
 0.4380	 5.7930
 0.4390	 5.7980
 0.4400	 5.8160
 0.4410	 5.8560
 0.4420	 5.8850
 0.4430	 5.9100
 0.4440	 5.9270
 0.4450	 5.9370
 0.4460	 5.9620
 0.4470	 5.9900
 0.4480	 6.0080
 0.4490	 6.0030
 0.4500	 6.0150
 0.4510	 6.0350
 0.4520	 6.0500
 0.4530	 6.0670
 0.4540	 6.0910
 0.4550	 6.1150
 0.4560	 6.1270
 0.4570	 6.1360
 0.4580	 6.1380
 0.4590	 6.1340
 0.4600	 6.1470
 0.4610	 6.1760
 0.4620	 6.1950
 0.4630	 6.1840
 0.4640	 6.1970
 0.4650	 6.2120
 0.4660	 6.2170
 0.4670	 6.2230
 0.4680	 6.2270
 0.4690	 6.2260
 0.4700	 6.2250
 0.4710	 6.2520
 0.4720	 6.2740
 0.4730	 6.2790
 0.4740	 6.2730
 0.4750	 6.2660
 0.4760	 6.2690
 0.4770	 6.2800
 0.4780	 6.2850
 0.4790	 6.2860
 0.4800	 6.2860
 0.4810	 6.2880
 0.4820	 6.2980
 0.4830	 6.3010
 0.4840	 6.2990
 0.4850	 6.3140
 0.4860	 6.3210
 0.4870	 6.3270
 0.4880	 6.3380
 0.4890	 6.3360
 0.4900	 6.3610
 0.4910	 6.3980
 0.4920	 6.4120
 0.4930	 6.4410
 0.4940	 6.4740
 0.4950	 6.5040
 0.4960	 6.5450
 0.4970	 6.5870
 0.4980	 6.6270
 0.4990	 6.6670
 0.5000	 6.7060
 0.5010	 6.7450
 0.5020	 6.7950
 0.5030	 6.8670
 0.5040	 6.9340
 0.5050	 7.0040
 0.5060	 7.0860
 0.5070	 7.1720
 0.5080	 7.2640
 0.5090	 7.3650
 0.5100	 7.4760
 0.5110	 7.5870
 0.5120	 7.7160
 0.5130	 7.8640
 0.5140	 8.0070
 0.5150	 8.1690
 0.5160	 8.3390
 0.5170	 8.5090
 0.5180	 8.6910
 0.5190	 8.8910
 0.5200	 9.1010
 0.5210	 9.3090
 0.5220	 9.5140
 0.5230	 9.7300
 0.5240	 9.9600
 0.5250	10.1700
 0.5260	10.3750
 0.5270	10.5790
 0.5280	10.7800
 0.5290	10.9770
 0.5300	11.1680
 0.5310	11.3510
 0.5320	11.5200
 0.5330	11.6760
 0.5340	11.8260
 0.5350	11.9740
 0.5360	12.1130
 0.5370	12.2430
 0.5380	12.3600
 0.5390	12.4650
 0.5400	12.5690
 0.5410	12.6760
 0.5420	12.7810
 0.5430	12.8620
 0.5440	12.9480
 0.5450	13.0350
 0.5460	13.1070
 0.5470	13.1780
 0.5480	13.2420
 0.5490	13.2960
 0.5500	13.3430
 0.5510	13.3820
 0.5520	13.4140
 0.5530	13.4410
 0.5540	13.4510
 0.5550	13.4470
 0.5560	13.4340
 0.5570	13.4130
 0.5580	13.3770
 0.5590	13.3290
 0.5600	13.2700
 0.5610	13.1960
 0.5620	13.1130
 0.5630	13.0210
 0.5640	12.9210
 0.5650	12.8160
 0.5660	12.7060
 0.5670	12.5940
 0.5680	12.4870
 0.5690	12.3750
 0.5700	12.2600
 0.5710	12.1440
 0.5720	12.0210
 0.5730	11.9040
 0.5740	11.7970
 0.5750	11.6970
 0.5760	11.5930
 0.5770	11.5000
 0.5780	11.4220
 0.5790	11.3390
 0.5800	11.2650
 0.5810	11.1960
 0.5820	11.1230
 0.5830	11.0570
 0.5840	10.9940
 0.5850	10.9360
 0.5860	10.8890
 0.5870	10.8370
 0.5880	10.7820
 0.5890	10.7290
 0.5900	10.6800
 0.5910	10.6380
 0.5920	10.6020
 0.5930	10.5670
 0.5940	10.5330
 0.5950	10.5060
 0.5960	10.4860
 0.5970	10.4560
 0.5980	10.4310
 0.5990	10.4050
 0.6000	10.3690
 0.6010	10.3390
 0.6020	10.3030
 0.6030	10.2590
 0.6040	10.2180
 0.6050	10.1740
 0.6060	10.1260
 0.6070	10.0720
 0.6080	10.0140
 0.6090	 9.9530
 0.6100	 9.8920
 0.6110	 9.8330
 0.6120	 9.7780
 0.6130	 9.7200
 0.6140	 9.6590
 0.6150	 9.5990
 0.6160	 9.5390
 0.6170	 9.4830
 0.6180	 9.4340
 0.6190	 9.3940
 0.6200	 9.3560
 0.6210	 9.3190
 0.6220	 9.2910
 0.6230	 9.2670
 0.6240	 9.2470
 0.6250	 9.2320
 0.6260	 9.2180
 0.6270	 9.2110
 0.6280	 9.2080
 0.6290	 9.2060
 0.6300	 9.2020
 0.6310	 9.1950
 0.6320	 9.1850
 0.6330	 9.1680
 0.6340	 9.1410
 0.6350	 9.1010
 0.6360	 9.0480
 0.6370	 8.9880
 0.6380	 8.9170
 0.6390	 8.8290
 0.6400	 8.7220
 0.6410	 8.6210
 0.6420	 8.5220
 0.6430	 8.4170
 0.6440	 8.3070
 0.6450	 8.2070
 0.6460	 8.1160
 0.6470	 8.0270
 0.6480	 7.9510
 0.6490	 7.8860
 0.6500	 7.8300
 0.6510	 7.7790
 0.6520	 7.7450
 0.6530	 7.7150
 0.6540	 7.6810
 0.6550	 7.6470
 0.6560	 7.6070
 0.6570	 7.5650
 0.6580	 7.5250
 0.6590	 7.4730
 0.6600	 7.4170
 0.6610	 7.3610
 0.6620	 7.3070
 0.6630	 7.2500
 0.6640	 7.1960
 0.6650	 7.1500
 0.6660	 7.1010
 0.6670	 7.0630
 0.6680	 7.0350
 0.6690	 7.0100
 0.6700	 6.9880
 0.6710	 6.9770
 0.6720	 6.9760
 0.6730	 6.9750
 0.6740	 6.9800
 0.6750	 6.9900
 0.6760	 7.0030
 0.6770	 7.0200
 0.6780	 7.0480
 0.6790	 7.0870
 0.6800	 7.1310
 0.6810	 7.1840
 0.6820	 7.2490
 0.6830	 7.3270
 0.6840	 7.4240
 0.6850	 7.5560
 0.6860	 7.7200
 0.6870	 7.9100
 0.6880	 8.1480
 0.6890	 8.4420
 0.6900	 8.8000
 0.6910	 9.2300
 0.6920	 9.7310
 0.6930	10.3120
 0.6940	10.9800
 0.6950	11.7370
 0.6960	12.5750
 0.6970	13.4890
 0.6980	14.4720
 0.6990	15.5280
 0.7000	16.6430
 0.7010	17.8020
 0.7020	18.9900
 0.7030	20.2220
 0.7040	21.4710
 0.7050	22.7110
 0.7060	23.9580
 0.7070	25.2000
 0.7080	26.4340
 0.7090	27.6590
 0.7100	28.8720
 0.7110	30.0600
 0.7120	31.2190
 0.7130	32.3570
 0.7140	33.4840
 0.7150	34.5810
 0.7160	35.6360
 0.7170	36.6620
 0.7180	37.6590
 0.7190	38.6290
 0.7200	39.5680
 0.7210	40.4730
 0.7220	41.3400
 0.7230	42.1750
 0.7240	42.9830
 0.7250	43.7480
 0.7260	44.4700
 0.7270	45.1580
 0.7280	45.8270
 0.7290	46.4520
 0.7300	47.0290
 0.7310	47.5710
 0.7320	48.1010
 0.7330	48.5900
 0.7340	49.0400
 0.7350	49.4900
 0.7360	49.8980
 0.7370	50.2770
 0.7380	50.6340
 0.7390	50.9520
 0.7400	51.2720
 0.7410	51.5820
 0.7420	51.8510
 0.7430	52.0970
 0.7440	52.3280
 0.7450	52.5480
 0.7460	52.7530
 0.7470	52.9400
 0.7480	53.1050
 0.7490	53.2500
 0.7500	53.3960
 0.7510	53.5300
 0.7520	53.6480
 0.7530	53.7550
 0.7540	53.8580
 0.7550	53.9380
 0.7560	54.0060
 0.7570	54.0940
 0.7580	54.1640
 0.7590	54.2230
 0.7600	54.2810
 0.7610	54.3390
 0.7620	54.3780
 0.7630	54.4110
 0.7640	54.4540
 0.7650	54.4840
 0.7660	54.5160
 0.7670	54.5460
 0.7680	54.5640
 0.7690	54.5790
 0.7700	54.6030
 0.7710	54.6350
 0.7720	54.6520
 0.7730	54.6650
 0.7740	54.6780
 0.7750	54.6900
 0.7760	54.7070
 0.7770	54.7200
 0.7780	54.7360
 0.7790	54.7650
 0.7800	54.7690
 0.7810	54.7770
 0.7820	54.7970
 0.7830	54.8100
 0.7840	54.8100
 0.7850	54.8190
 0.7860	54.8500
 0.7870	54.8790
 0.7880	54.8920
 0.7890	54.8940
 0.7900	54.9000
 0.7910	54.9070
 0.7920	54.9240
 0.7930	54.9480
 0.7940	54.9640
 0.7950	54.9630
 0.7960	54.9700
 0.7970	54.9910
 0.7980	55.0060
 0.7990	55.0240
 0.8000	55.0460
 0.8010	55.0670
 0.8020	55.0820
 0.8030	55.0970
 0.8040	55.1070
 0.8050	55.1100
 0.8060	55.1400
 0.8070	55.1490
 0.8080	55.1410
 0.8090	55.1660
 0.8100	55.1890
 0.8110	55.2010
 0.8120	55.2080
 0.8130	55.2190
 0.8140	55.2450
 0.8150	55.2670
 0.8160	55.2710
 0.8170	55.2780
 0.8180	55.2980
 0.8190	55.3290
 0.8200	55.3570
 0.8210	55.3580
 0.8220	55.3670
 0.8230	55.3880
 0.8240	55.3930
 0.8250	55.4120
 0.8260	55.4300
 0.8270	55.4380
 0.8280	55.4480
 0.8290	55.4650
 0.8300	55.4820
 0.8310	55.4880
 0.8320	55.4830
 0.8330	55.4940
 0.8340	55.5110
 0.8350	55.5140
 0.8360	55.5240
 0.8370	55.5390
 0.8380	55.5530
 0.8390	55.5630
 0.8400	55.5780
 0.8410	55.5930
 0.8420	55.6020
 0.8430	55.6020
 0.8440	55.6060
 0.8450	55.6300
 0.8460	55.6740
 0.8470	55.6960
 0.8480	55.7020
 0.8490	55.6950
 0.8500	55.6890
 0.8510	55.7170
 0.8520	55.7370
 0.8530	55.7380
 0.8540	55.7390
 0.8550	55.7630
 0.8560	55.7820
 0.8570	55.7870
 0.8580	55.7920
 0.8590	55.7760
 0.8600	55.7850
 0.8610	55.8240
 0.8620	55.8180
 0.8630	55.8090
 0.8640	55.8190
 0.8650	55.8450
 0.8660	55.8370
 0.8670	55.8300
 0.8680	55.8360
 0.8690	55.8540
 0.8700	55.8480
 0.8710	55.8650
 0.8720	55.8870
 0.8730	55.8690
 0.8740	55.8750
 0.8750	55.8860
 0.8760	55.8880
 0.8770	55.8860
 0.8780	55.9050
 0.8790	55.9130
 0.8800	55.9040
 0.8810	55.9130
 0.8820	55.9000
 0.8830	55.8800
 0.8840	55.8750
 0.8850	55.8830
 0.8860	55.8880
 0.8870	55.8800
 0.8880	55.8660
 0.8890	55.8770
 0.8900	55.8980
 0.8910	55.9080
 0.8920	55.8920
 0.8930	55.8540
 0.8940	55.8350
 0.8950	55.8300
 0.8960	55.8150
 0.8970	55.8160
 0.8980	55.8190
 0.8990	55.8100
 0.9000	55.7850
 0.9010	55.7750
 0.9020	55.7680
 0.9030	55.7610
 0.9040	55.7680
 0.9050	55.7570
 0.9060	55.7320
 0.9070	55.7080
 0.9080	55.7060
 0.9090	55.7140
 0.9100	55.7200
 0.9110	55.7110
 0.9120	55.6760
 0.9130	55.6550
 0.9140	55.6490
 0.9150	55.6440
 0.9160	55.6300
 0.9170	55.6220
 0.9180	55.6220
 0.9190	55.6230
 0.9200	55.6340
 0.9210	55.6120
 0.9220	55.5660
 0.9230	55.5300
 0.9240	55.5080
 0.9250	55.5010
 0.9260	55.4980
 0.9270	55.4850
 0.9280	55.4390
 0.9290	55.3970
 0.9300	55.3720
 0.9310	55.3520
 0.9320	55.3370
 0.9330	55.3090
 0.9340	55.2710
 0.9350	55.2540
 0.9360	55.2180
 0.9370	55.1700
 0.9380	55.1210
 0.9390	55.0730
 0.9400	55.0240
 0.9410	54.9930
 0.9420	54.9730
 0.9430	54.9040
 0.9440	54.8400
 0.9450	54.7900
 0.9460	54.7490
 0.9470	54.6990
 0.9480	54.6410
 0.9490	54.5650
 0.9500	54.4710
 0.9510	54.4000
 0.9520	54.2920
 0.9530	54.1760
 0.9540	54.0860
 0.9550	54.0000
 0.9560	53.9000
 0.9570	53.7910
 0.9580	53.6900
 0.9590	53.6210
 0.9600	53.5460
 0.9610	53.4490
 0.9620	53.3350
 0.9630	53.2480
 0.9640	53.1700
 0.9650	53.1070
 0.9660	53.0650
 0.9670	53.0070
 0.9680	52.9660
 0.9690	52.9350
 0.9700	52.8960
 0.9710	52.8550
 0.9720	52.8300
 0.9730	52.8120
 0.9740	52.7830
 0.9750	52.7610
 0.9760	52.7190
 0.9770	52.6900
 0.9780	52.7160
 0.9790	52.7300
 0.9800	52.7210
 0.9810	52.6910
 0.9820	52.6600
 0.9830	52.6960
 0.9840	52.7140
 0.9850	52.7120
 0.9860	52.7320
 0.9870	52.7880
 0.9880	52.8330
 0.9890	52.8540
 0.9900	52.8640
 0.9910	52.9070
 0.9920	52.9460
 0.9930	52.9850
 0.9940	53.0240
 0.9950	53.0640
 0.9960	53.1030
 0.9970	53.1420
 0.9980	53.1820
 0.9990	53.2210
 1.0000	53.2600
 1.0010	53.2990
 1.0020	53.3390
 1.0030	53.3780
 1.0040	53.4170
 1.0050	53.4560
 1.0060	53.4960
 1.0070	53.5350
 1.0080	53.5740
 1.0090	53.6140
 1.0100	53.6140
 1.0110	53.6440
 1.0120	53.6840
 1.0130	53.7270
 1.0140	53.7710
 1.0150	53.8250
 1.0160	53.8700
 1.0170	53.9070
 1.0180	53.9510
 1.0190	54.0000
 1.0200	54.0420
 1.0210	54.0900
 1.0220	54.1380
 1.0230	54.1870
 1.0240	54.2390
 1.0250	54.2830
 1.0260	54.3200
 1.0270	54.3600
 1.0280	54.4020
 1.0290	54.4310
 1.0300	54.4470
 1.0310	54.4780
 1.0320	54.5050
 1.0330	54.5290
 1.0340	54.5710
 1.0350	54.6230
 1.0360	54.6670
 1.0370	54.6970
 1.0380	54.7270
 1.0390	54.7490
 1.0400	54.7780
 1.0410	54.8060
 1.0420	54.8350
 1.0430	54.8750
 1.0440	54.9000
 1.0450	54.9140
 1.0460	54.9310
 1.0470	54.9370
 1.0480	54.9510
 1.0490	54.9670
 1.0500	54.9850
 1.0510	55.0040
 1.0520	55.0300
 1.0530	55.0510
 1.0540	55.0730
 1.0550	55.0950
 1.0560	55.1210
 1.0570	55.1350
 1.0580	55.1440
 1.0590	55.1560
 1.0600	55.1590
 1.0610	55.1700
 1.0620	55.1910
 1.0630	55.2020
 1.0640	55.2070
 1.0650	55.2160
 1.0660	55.2250
 1.0670	55.2330
 1.0680	55.2400
 1.0690	55.2520
 1.0700	55.2560
 1.0710	55.2540
 1.0720	55.2560
 1.0730	55.2590
 1.0740	55.2590
 1.0750	55.2560
 1.0760	55.2590
 1.0770	55.2620
 1.0780	55.2650
 1.0790	55.2780
 1.0800	55.2820
 1.0810	55.2820
 1.0820	55.2790
 1.0830	55.2670
 1.0840	55.2600
 1.0850	55.2520
 1.0860	55.2440
 1.0870	55.2420
 1.0880	55.2500
 1.0890	55.2440
 1.0900	55.2350
 1.0910	55.2300
 1.0920	55.2230
 1.0930	55.2140
 1.0940	55.2100
 1.0950	55.1980
 1.0960	55.1780
 1.0970	55.1610
 1.0980	55.1500
 1.0990	55.1290
 1.1000	55.1010
 1.1010	55.0760
 1.1020	55.0450
 1.1030	55.0140
 1.1040	54.9960
 1.1050	54.9740
 1.1060	54.9540
 1.1070	54.9430
 1.1080	54.9180
 1.1090	54.8870
 1.1100	54.8550
 1.1110	54.8140
 1.1120	54.7730
 1.1130	54.7310
 1.1140	54.6870
 1.1150	54.6400
 1.1160	54.5870
 1.1170	54.5370
 1.1180	54.4730
 1.1190	54.3960
 1.1200	54.3200
 1.1210	54.2340
 1.1220	54.1440
 1.1230	54.0620
 1.1240	53.9740
 1.1250	53.8790
 1.1260	53.7800
 1.1270	53.6790
 1.1280	53.5710
 1.1290	53.4580
 1.1300	53.3470
 1.1310	53.2230
 1.1320	53.0900
 1.1330	52.9520
 1.1340	52.8100
 1.1350	52.6570
 1.1360	52.4960
 1.1370	52.3260
 1.1380	52.1510
 1.1390	51.9700
 1.1400	51.7850
 1.1410	51.5980
 1.1420	51.4050
 1.1430	51.2060
 1.1440	51.0000
 1.1450	50.7850
 1.1460	50.5720
 1.1470	50.3480
 1.1480	50.1360
 1.1490	49.9240
 1.1500	49.7220
 1.1510	49.5260
 1.1520	49.3380
 1.1530	49.1510
 1.1540	48.9810
 1.1550	48.8230
 1.1560	48.6750
 1.1570	48.5350
 1.1580	48.4140
 1.1590	48.2990
 1.1600	48.1900
 1.1610	48.0990
 1.1620	48.0150
 1.1630	47.9390
 1.1640	47.8810
 1.1650	47.8240
 1.1660	47.7730
 1.1670	47.7310
 1.1680	47.6980
 1.1690	47.6660
 1.1700	47.6450
 1.1710	47.6220
 1.1720	47.6010
 1.1730	47.5810
 1.1740	47.5620
 1.1750	47.5410
 1.1760	47.5260
 1.1770	47.5110
 1.1780	47.4910
 1.1790	47.4760
 1.1800	47.4540
 1.1810	47.4220
 1.1820	47.3930
 1.1830	47.3630
 1.1840	47.3310
 1.1850	47.3010
 1.1860	47.2770
 1.1870	47.2550
 1.1880	47.2330
 1.1890	47.2130
 1.1900	47.1960
 1.1910	47.1790
 1.1920	47.1630
 1.1930	47.1530
 1.1940	47.1410
 1.1950	47.1260
 1.1960	47.1150
 1.1970	47.1080
 1.1980	47.1000
 1.1990	47.1020
 1.2000	47.1060
 1.2010	47.1150
 1.2020	47.1270
 1.2030	47.1400
 1.2040	47.1600
 1.2050	47.1820
 1.2060	47.2070
 1.2070	47.2330
 1.2080	47.2580
 1.2090	47.2890
 1.2100	47.3230
 1.2110	47.3610
 1.2120	47.4010
 1.2130	47.4460
 1.2140	47.4970
 1.2150	47.5460
 1.2160	47.5960
 1.2170	47.6500
 1.2180	47.7040
 1.2190	47.7500
 1.2200	47.8030
 1.2210	47.8640
 1.2220	47.9210
 1.2230	47.9760
 1.2240	48.0340
 1.2250	48.0910
 1.2260	48.1490
 1.2270	48.2100
 1.2280	48.2680
 1.2290	48.3200
 1.2300	48.3720
 1.2310	48.4230
 1.2320	48.4670
 1.2330	48.5130
 1.2340	48.5610
 1.2350	48.6130
 1.2360	48.6590
 1.2370	48.7050
 1.2380	48.7490
 1.2390	48.7870
 1.2400	48.8180
 1.2410	48.8550
 1.2420	48.8940
 1.2430	48.9290
 1.2440	48.9690
 1.2450	49.0080
 1.2460	49.0400
 1.2470	49.0660
 1.2480	49.0880
 1.2490	49.1150
 1.2500	49.1430
 1.2510	49.1710
 1.2520	49.2010
 1.2530	49.2200
 1.2540	49.2290
 1.2550	49.2430
 1.2560	49.2550
 1.2570	49.2670
 1.2580	49.2830
 1.2590	49.3000
 1.2600	49.3170
 1.2610	49.3330
 1.2620	49.3500
 1.2630	49.3640
 1.2640	49.3680
 1.2650	49.3800
 1.2660	49.3920
 1.2670	49.3910
 1.2680	49.3920
 1.2690	49.3910
 1.2700	49.3830
 1.2710	49.3820
 1.2720	49.3810
 1.2730	49.3740
 1.2740	49.3610
 1.2750	49.3450
 1.2760	49.3340
 1.2770	49.3240
 1.2780	49.3150
 1.2790	49.3080
 1.2800	49.2970
 1.2810	49.2840
 1.2820	49.2640
 1.2830	49.2470
 1.2840	49.2280
 1.2850	49.2020
 1.2860	49.1840
 1.2870	49.1580
 1.2880	49.1250
 1.2890	49.0900
 1.2900	49.0560
 1.2910	49.0080
 1.2920	48.9650
 1.2930	48.9200
 1.2940	48.8670
 1.2950	48.8190
 1.2960	48.7640
 1.2970	48.7060
 1.2980	48.6490
 1.2990	48.5830
 1.3000	48.5120
 1.3010	48.4380
 1.3020	48.3620
 1.3030	48.2840
 1.3040	48.2050
 1.3050	48.1210
 1.3060	48.0300
 1.3070	47.9320
 1.3080	47.8270
 1.3090	47.7200
 1.3100	47.6050
 1.3110	47.4830
 1.3120	47.3600
 1.3130	47.2320
 1.3140	47.1010
 1.3150	46.9710
 1.3160	46.8300
 1.3170	46.6830
 1.3180	46.5280
 1.3190	46.3700
 1.3200	46.2060
 1.3210	46.0380
 1.3220	45.8690
 1.3230	45.6910
 1.3240	45.5070
 1.3250	45.3250
 1.3260	45.1350
 1.3270	44.9340
 1.3280	44.7350
 1.3290	44.5270
 1.3300	44.3180
 1.3310	44.1110
 1.3320	43.8960
 1.3330	43.6800
 1.3340	43.4610
 1.3350	43.2420
 1.3360	43.0220
 1.3370	42.7940
 1.3380	42.5650
 1.3390	42.3350
 1.3400	42.1060
 1.3410	41.8810
 1.3420	41.6590
 1.3430	41.4340
 1.3440	41.2130
 1.3450	40.9950
 1.3460	40.7790
 1.3470	40.5660
 1.3480	40.3560
 1.3490	40.1470
 1.3500	39.9400
 1.3510	39.7350
 1.3520	39.5340
 1.3530	39.3350
 1.3540	39.1380
 1.3550	38.9460
 1.3560	38.7530
 1.3570	38.5620
 1.3580	38.3710
 1.3590	38.1760
 1.3600	37.9760
 1.3610	37.7720
 1.3620	37.5660
 1.3630	37.3590
 1.3640	37.1450
 1.3650	36.9260
 1.3660	36.7010
 1.3670	36.4610
 1.3680	36.2060
 1.3690	35.9440
 1.3700	35.6680
 1.3710	35.3830
 1.3720	35.0880
 1.3730	34.7750
 1.3740	34.4410
 1.3750	34.0890
 1.3760	33.7170
 1.3770	33.3210
 1.3780	32.9000
 1.3790	32.4610
 1.3800	31.9980
 1.3810	31.5090
 1.3820	31.0000
 1.3830	30.4710
 1.3840	29.9200
 1.3850	29.3430
 1.3860	28.7550
 1.3870	28.1450
 1.3880	27.5300
 1.3890	26.9020
 1.3900	26.2660
 1.3910	25.6290
 1.3920	24.9890
 1.3930	24.3460
 1.3940	23.7060
 1.3950	23.0620
 1.3960	22.4310
 1.3970	21.8170
 1.3980	21.2140
 1.3990	20.6320
 1.4000	20.0650
 1.4010	19.5110
 1.4020	18.9790
 1.4030	18.4670
 1.4040	17.9760
 1.4050	17.5130
 1.4060	17.0700
 1.4070	16.6560
 1.4080	16.2680
 1.4090	15.8970
 1.4100	15.5510
 1.4110	15.2230
 1.4120	14.9180
 1.4130	14.6370
 1.4140	14.3770
 1.4150	14.1390
 1.4160	13.9200
 1.4170	13.7160
 1.4180	13.5340
 1.4190	13.3670
 1.4200	13.2110
 1.4210	13.0700
 1.4220	12.9430
 1.4230	12.8280
 1.4240	12.7250
 1.4250	12.6310
 1.4260	12.5460
 1.4270	12.4690
 1.4280	12.4000
 1.4290	12.3390
 1.4300	12.2850
 1.4310	12.2380
 1.4320	12.2010
 1.4330	12.1660
 1.4340	12.1370
 1.4350	12.1110
 1.4360	12.0880
 1.4370	12.0720
 1.4380	12.0600
 1.4390	12.0540
 1.4400	12.0520
 1.4410	12.0510
 1.4420	12.0510
 1.4430	12.0550
 1.4440	12.0630
 1.4450	12.0720
 1.4460	12.0860
 1.4470	12.1020
 1.4480	12.1160
 1.4490	12.1320
 1.4500	12.1490
 1.4510	12.1650
 1.4520	12.1850
 1.4530	12.2030
 1.4540	12.2230
 1.4550	12.2450
 1.4560	12.2650
 1.4570	12.2870
 1.4580	12.3130
 1.4590	12.3400
 1.4600	12.3720
 1.4610	12.4040
 1.4620	12.4400
 1.4630	12.4770
 1.4640	12.5170
 1.4650	12.5620
 1.4660	12.6060
 1.4670	12.6560
 1.4680	12.7120
 1.4690	12.7680
 1.4700	12.8310
 1.4710	12.8980
 1.4720	12.9660
 1.4730	13.0380
 1.4740	13.1120
 1.4750	13.1870
 1.4760	13.2680
 1.4770	13.3510
 1.4780	13.4360
 1.4790	13.5230
 1.4800	13.6120
 1.4810	13.7050
 1.4820	13.7970
 1.4830	13.8910
 1.4840	13.9890
 1.4850	14.0840
 1.4860	14.1810
 1.4870	14.2840
 1.4880	14.3840
 1.4890	14.4830
 1.4900	14.5830
 1.4910	14.6820
 1.4920	14.7810
 1.4930	14.8810
 1.4940	14.9800
 1.4950	15.0800
 1.4960	15.1800
 1.4970	15.2770
 1.4980	15.3770
 1.4990	15.4780
 1.5000	15.5780
 1.5010	15.6790
 1.5020	15.7790
 1.5030	15.8790
 1.5040	15.9780
 1.5050	16.0770
 1.5060	16.1770
 1.5070	16.2750
 1.5080	16.3740
 1.5090	16.4750
 1.5100	16.5750
 1.5110	16.6730
 1.5120	16.7730
 1.5130	16.8700
 1.5140	16.9680
 1.5150	17.0670
 1.5160	17.1650
 1.5170	17.2610
 1.5180	17.3530
 1.5190	17.4450
 1.5200	17.5380
 1.5210	17.6290
 1.5220	17.7230
 1.5230	17.8170
 1.5240	17.9060
 1.5250	17.9960
 1.5260	18.0840
 1.5270	18.1680
 1.5280	18.2560
 1.5290	18.3400
 1.5300	18.4240
 1.5310	18.5080
 1.5320	18.5880
 1.5330	18.6710
 1.5340	18.7510
 1.5350	18.8320
 1.5360	18.9160
 1.5370	18.9970
 1.5380	19.0780
 1.5390	19.1600
 1.5400	19.2390
 1.5410	19.3150
 1.5420	19.3890
 1.5430	19.4620
 1.5440	19.5370
 1.5450	19.6110
 1.5460	19.6870
 1.5470	19.7630
 1.5480	19.8360
 1.5490	19.9090
 1.5500	19.9810
 1.5510	20.0510
 1.5520	20.1220
 1.5530	20.1920
 1.5540	20.2610
 1.5550	20.3290
 1.5560	20.3930
 1.5570	20.4590
 1.5580	20.5280
 1.5590	20.5960
 1.5600	20.6660
 1.5610	20.7340
 1.5620	20.7990
 1.5630	20.8630
 1.5640	20.9240
 1.5650	20.9850
 1.5660	21.0460
 1.5670	21.1090
 1.5680	21.1730
 1.5690	21.2330
 1.5700	21.2930
 1.5710	21.3520
 1.5720	21.4080
 1.5730	21.4670
 1.5740	21.5280
 1.5750	21.5900
 1.5760	21.6540
 1.5770	21.7180
 1.5780	21.7800
 1.5790	21.8410
 1.5800	21.9010
 1.5810	21.9610
 1.5820	22.0220
 1.5830	22.0820
 1.5840	22.1430
 1.5850	22.2030
 1.5860	22.2610
 1.5870	22.3150
 1.5880	22.3690
 1.5890	22.4270
 1.5900	22.4880
 1.5910	22.5490
 1.5920	22.6100
 1.5930	22.6710
 1.5940	22.7280
 1.5950	22.7870
 1.5960	22.8420
 1.5970	22.8960
 1.5980	22.9550
 1.5990	23.0090
 1.6000	23.0630
 1.6010	23.1190
 1.6020	23.1690
 1.6030	23.2250
 1.6040	23.2840
 1.6050	23.3370
 1.6060	23.3920
 1.6070	23.4450
 1.6080	23.4940
 1.6090	23.5450
 1.6100	23.5970
 1.6110	23.6460
 1.6120	23.6950
 1.6130	23.7460
 1.6140	23.7940
 1.6150	23.8420
 1.6160	23.8910
 1.6170	23.9380
 1.6180	23.9810
 1.6190	24.0240
 1.6200	24.0660
 1.6210	24.1080
 1.6220	24.1490
 1.6230	24.1890
 1.6240	24.2270
 1.6250	24.2640
 1.6260	24.3010
 1.6270	24.3380
 1.6280	24.3710
 1.6290	24.4000
 1.6300	24.4250
 1.6310	24.4530
 1.6320	24.4790
 1.6330	24.5040
 1.6340	24.5340
 1.6350	24.5550
 1.6360	24.5710
 1.6370	24.5860
 1.6380	24.5950
 1.6390	24.6050
 1.6400	24.6140
 1.6410	24.6170
 1.6420	24.6190
 1.6430	24.6130
 1.6440	24.6010
 1.6450	24.5840
 1.6460	24.5610
 1.6470	24.5290
 1.6480	24.4920
 1.6490	24.4540
 1.6500	24.4130
 1.6510	24.3740
 1.6520	24.3320
 1.6530	24.2850
 1.6540	24.2360
 1.6550	24.1850
 1.6560	24.1370
 1.6570	24.0940
 1.6580	24.0480
 1.6590	24.0020
 1.6600	23.9610
 1.6610	23.9200
 1.6620	23.8860
 1.6630	23.8630
 1.6640	23.8410
 1.6650	23.8260
 1.6660	23.8190
 1.6670	23.8200
 1.6680	23.8330
 1.6690	23.8530
 1.6700	23.8740
 1.6710	23.8980
 1.6720	23.9220
 1.6730	23.9490
 1.6740	23.9780
 1.6750	24.0040
 1.6760	24.0320
 1.6770	24.0560
 1.6780	24.0740
 1.6790	24.0910
 1.6800	24.1060
 1.6810	24.1170
 1.6820	24.1240
 1.6830	24.1270
 1.6840	24.1280
 1.6850	24.1230
 1.6860	24.1110
 1.6870	24.0950
 1.6880	24.0760
 1.6890	24.0570
 1.6900	24.0390
 1.6910	24.0220
 1.6920	24.0010
 1.6930	23.9780
 1.6940	23.9500
 1.6950	23.9130
 1.6960	23.8810
 1.6970	23.8490
 1.6980	23.8140
 1.6990	23.7810
 1.7000	23.7420
 1.7010	23.6960
 1.7020	23.6500
 1.7030	23.6050
 1.7040	23.5550
 1.7050	23.5010
 1.7060	23.4460
 1.7070	23.3870
 1.7080	23.3290
 1.7090	23.2730
 1.7100	23.2130
 1.7110	23.1510
 1.7120	23.0920
 1.7130	23.0250
 1.7140	22.9600
 1.7150	22.9030
 1.7160	22.8430
 1.7170	22.7880
 1.7180	22.7360
 1.7190	22.6810
 1.7200	22.6310
 1.7210	22.5790
 1.7220	22.5270
 1.7230	22.4790
 1.7240	22.4240
 1.7250	22.3740
 1.7260	22.3300
 1.7270	22.2870
 1.7280	22.2500
 1.7290	22.2140
 1.7300	22.1710
 1.7310	22.1380
 1.7320	22.1110
 1.7330	22.0820
 1.7340	22.0590
 1.7350	22.0350
 1.7360	22.0090
 1.7370	21.9830
 1.7380	21.9610
 1.7390	21.9330
 1.7400	21.8980
 1.7410	21.8670
 1.7420	21.8350
 1.7430	21.8030
 1.7440	21.7740
 1.7450	21.7380
 1.7460	21.7000
 1.7470	21.6600
 1.7480	21.6150
 1.7490	21.5750
 1.7500	21.5370
 1.7510	21.4990
 1.7520	21.4630
 1.7530	21.4230
 1.7540	21.3800
 1.7550	21.3390
 1.7560	21.3000
 1.7570	21.2640
 1.7580	21.2300
 1.7590	21.2000
 1.7600	21.1700
 1.7610	21.1440
 1.7620	21.1140
 1.7630	21.0800
 1.7640	21.0490
 1.7650	21.0150
 1.7660	20.9860
 1.7670	20.9610
 1.7680	20.9360
 1.7690	20.9140
 1.7700	20.8890
 1.7710	20.8610
 1.7720	20.8400
 1.7730	20.8210
 1.7740	20.8010
 1.7750	20.7880
 1.7760	20.7670
 1.7770	20.7390
 1.7780	20.7170
 1.7790	20.6950
 1.7800	20.6750
 1.7810	20.6580
 1.7820	20.6390
 1.7830	20.6170
 1.7840	20.6020
 1.7850	20.5870
 1.7860	20.5780
 1.7870	20.5740
 1.7880	20.5730
 1.7890	20.5720
 1.7900	20.5720
 1.7910	20.5690
 1.7920	20.5590
 1.7930	20.5550
 1.7940	20.5550
 1.7950	20.5540
 1.7960	20.5560
 1.7970	20.5570
 1.7980	20.5530
 1.7990	20.5540
 1.8000	20.5580
 1.8010	20.5640
 1.8020	20.5720
 1.8030	20.5840
 1.8040	20.6000
 1.8050	20.6160
 1.8060	20.6380
 1.8070	20.6500
 1.8080	20.6570
 1.8090	20.6650
 1.8100	20.6670
 1.8110	20.6660
 1.8120	20.6710
 1.8130	20.6700
 1.8140	20.6680
 1.8150	20.6740
 1.8160	20.6740
 1.8170	20.6750
 1.8180	20.6870
 1.8190	20.6970
 1.8200	20.7040
 1.8210	20.7080
 1.8220	20.7110
 1.8230	20.7140
 1.8240	20.7160
 1.8250	20.7210
 1.8260	20.7220
 1.8270	20.7350
 1.8280	20.7490
 1.8290	20.7630
 1.8300	20.7760
 1.8310	20.7900
 1.8320	20.8040
 1.8330	20.8170
 1.8340	20.8310
 1.8350	20.8310
 1.8360	20.8110
 1.8370	20.7900
 1.8380	20.7660
 1.8390	20.7320
 1.8400	20.6870
 1.8410	20.6510
 1.8420	20.6170
 1.8430	20.5670
 1.8440	20.5130
 1.8450	20.4570
 1.8460	20.3870
 1.8470	20.3260
 1.8480	20.2630
 1.8490	20.1890
 1.8500	20.1010
 1.8510	20.0030
 1.8520	19.8780
 1.8530	19.7510
 1.8540	19.6210
 1.8550	19.4780
 1.8560	19.3270
 1.8570	19.1640
 1.8580	18.9880
 1.8590	18.8070
 1.8600	18.6190
 1.8610	18.4210
 1.8620	18.2070
 1.8630	17.9820
 1.8640	17.7400
 1.8650	17.4820
 1.8660	17.2130
 1.8670	16.9300
 1.8680	16.6370
 1.8690	16.3280
 1.8700	16.0000
 1.8710	15.6550
 1.8720	15.3030
 1.8730	14.9390
 1.8740	14.5660
 1.8750	14.1990
 1.8760	13.8240
 1.8770	13.4390
 1.8780	13.0530
 1.8790	12.6700
 1.8800	12.2960
 1.8810	11.9270
 1.8820	11.5630
 1.8830	11.2060
 1.8840	10.8530
 1.8850	10.4990
 1.8860	10.1580
 1.8870	 9.8340
 1.8880	 9.5200
 1.8890	 9.2190
 1.8900	 8.9360
 1.8910	 8.6700
 1.8920	 8.4200
 1.8930	 8.1850
 1.8940	 7.9740
 1.8950	 7.7870
 1.8960	 7.6080
 1.8970	 7.4440
 1.8980	 7.2940
 1.8990	 7.1540
 1.9000	 7.0290
 1.9010	 6.9230
 1.9020	 6.8220
 1.9030	 6.7340
 1.9040	 6.6570
 1.9050	 6.5910
 1.9060	 6.5290
 1.9070	 6.4730
 1.9080	 6.4280
 1.9090	 6.3810
 1.9100	 6.3320
 1.9110	 6.2970
 1.9120	 6.2720
 1.9130	 6.2480
 1.9140	 6.2310
 1.9150	 6.2190
 1.9160	 6.2100
 1.9170	 6.2030
 1.9180	 6.1970
 1.9190	 6.1970
 1.9200	 6.1980
 1.9210	 6.1910
 1.9220	 6.1860
 1.9230	 6.1760
 1.9240	 6.1720
 1.9250	 6.1680
 1.9260	 6.1690
 1.9270	 6.1760
 1.9280	 6.1860
 1.9290	 6.1970
 1.9300	 6.2050
 1.9310	 6.2060
 1.9320	 6.2070
 1.9330	 6.2090
 1.9340	 6.2070
 1.9350	 6.2120
 1.9360	 6.2220
 1.9370	 6.2340
 1.9380	 6.2500
 1.9390	 6.2690
 1.9400	 6.2820
 1.9410	 6.2870
 1.9420	 6.2940
 1.9430	 6.2990
 1.9440	 6.3110
 1.9450	 6.3340
 1.9460	 6.3500
 1.9470	 6.3640
 1.9480	 6.3810
 1.9490	 6.3950
 1.9500	 6.4150
 1.9510	 6.4350
 1.9520	 6.4600
 1.9530	 6.4850
 1.9540	 6.4960
 1.9550	 6.5110
 1.9560	 6.5230
 1.9570	 6.5390
 1.9580	 6.5550
 1.9590	 6.5740
 1.9600	 6.5920
 1.9610	 6.6160
 1.9620	 6.6470
 1.9630	 6.6700
 1.9640	 6.6980
 1.9650	 6.7230
 1.9660	 6.7380
 1.9670	 6.7580
 1.9680	 6.7840
 1.9690	 6.8150
 1.9700	 6.8460
 1.9710	 6.8840
 1.9720	 6.9150
 1.9730	 6.9400
 1.9740	 6.9690
 1.9750	 6.9950
 1.9760	 7.0210
 1.9770	 7.0530
 1.9780	 7.0860
 1.9790	 7.1190
 1.9800	 7.1530
 1.9810	 7.1890
 1.9820	 7.2290
 1.9830	 7.2640
 1.9840	 7.2960
 1.9850	 7.3310
 1.9860	 7.3650
 1.9870	 7.3970
 1.9880	 7.4370
 1.9890	 7.4800
 1.9900	 7.5130
 1.9910	 7.5480
 1.9920	 7.5830
 1.9930	 7.6110
 1.9940	 7.6510
 1.9950	 7.7020
 1.9960	 7.7460
 1.9970	 7.7950
 1.9980	 7.8380
 1.9990	 7.8790
 2.0000	 7.9100
 2.0010	 7.9380
 2.0020	 7.9680
 2.0030	 8.0060
 2.0040	 8.0440
 2.0050	 8.0800
 2.0060	 8.1250
 2.0070	 8.1580
 2.0080	 8.1740
 2.0090	 8.2060
 2.0100	 8.2430
 2.0110	 8.2780
 2.0120	 8.3180
 2.0130	 8.3570
 2.0140	 8.3950
 2.0150	 8.4360
 2.0160	 8.4740
 2.0170	 8.5090
 2.0180	 8.5390
 2.0190	 8.5540
 2.0200	 8.5820
 2.0210	 8.6140
 2.0220	 8.6440
 2.0230	 8.6760
 2.0240	 8.7070
 2.0250	 8.7340
 2.0260	 8.7630
 2.0270	 8.7920
 2.0280	 8.8290
 2.0290	 8.8510
 2.0300	 8.8810
 2.0310	 8.9050
 2.0320	 8.9280
 2.0330	 8.9440
 2.0340	 8.9580
 2.0350	 8.9700
 2.0360	 8.9700
 2.0370	 8.9810
 2.0380	 8.9930
 2.0390	 9.0080
 2.0400	 9.0340
 2.0410	 9.0530
 2.0420	 9.0730
 2.0430	 9.0920
 2.0440	 9.1060
 2.0450	 9.1150
 2.0460	 9.1260
 2.0470	 9.1340
 2.0480	 9.1450
 2.0490	 9.1590
 2.0500	 9.1690
 2.0510	 9.1770
 2.0520	 9.1860
 2.0530	 9.1920
 2.0540	 9.1990
 2.0550	 9.2090
 2.0560	 9.2190
 2.0570	 9.2270
 2.0580	 9.2290
 2.0590	 9.2380
 2.0600	 9.2520
 2.0610	 9.2590
 2.0620	 9.2620
 2.0630	 9.2720
 2.0640	 9.2790
 2.0650	 9.2880
 2.0660	 9.3070
 2.0670	 9.3170
 2.0680	 9.3150
 2.0690	 9.3240
 2.0700	 9.3380
 2.0710	 9.3500
 2.0720	 9.3690
 2.0730	 9.3850
 2.0740	 9.3930
 2.0750	 9.3940
 2.0760	 9.3950
 2.0770	 9.3870
 2.0780	 9.3920
 2.0790	 9.4030
 2.0800	 9.4130
 2.0810	 9.4300
 2.0820	 9.4430
 2.0830	 9.4520
 2.0840	 9.4620
 2.0850	 9.4740
 2.0860	 9.4840
 2.0870	 9.4940
 2.0880	 9.5000
 2.0890	 9.5080
 2.0900	 9.5150
 2.0910	 9.5230
 2.0920	 9.5310
 2.0930	 9.5400
 2.0940	 9.5550
 2.0950	 9.5590
 2.0960	 9.5560
 2.0970	 9.5560
 2.0980	 9.5460
 2.0990	 9.5460
 2.1000	 9.5550
 2.1010	 9.5590
 2.1020	 9.5610
 2.1030	 9.5690
 2.1040	 9.5810
 2.1050	 9.5930
 2.1060	 9.6050
 2.1070	 9.6260
 2.1080	 9.6310
 2.1090	 9.6230
 2.1100	 9.6280
 2.1110	 9.6330
 2.1120	 9.6400
 2.1130	 9.6580
 2.1140	 9.6670
 2.1150	 9.6710
 2.1160	 9.6740
 2.1170	 9.6760
 2.1180	 9.6770
 2.1190	 9.6750
 2.1200	 9.6730
 2.1210	 9.6710
 2.1220	 9.6630
 2.1230	 9.6660
 2.1240	 9.6730
 2.1250	 9.6770
 2.1260	 9.6860
 2.1270	 9.6920
 2.1280	 9.6920
 2.1290	 9.6980
 2.1300	 9.7050
 2.1310	 9.7160
 2.1320	 9.7330
 2.1330	 9.7450
 2.1340	 9.7610
 2.1350	 9.7720
 2.1360	 9.7760
 2.1370	 9.7810
 2.1380	 9.7790
 2.1390	 9.7890
 2.1400	 9.8070
 2.1410	 9.8240
 2.1420	 9.8410
 2.1430	 9.8690
 2.1440	 9.8840
 2.1450	 9.8890
 2.1460	 9.9030
 2.1470	 9.9160
 2.1480	 9.9320
 2.1490	 9.9530
 2.1500	 9.9680
 2.1510	 9.9800
 2.1520	 9.9940
 2.1530	10.0020
 2.1540	10.0190
 2.1550	10.0440
 2.1560	10.0670
 2.1570	10.1000
 2.1580	10.1260
 2.1590	10.1510
 2.1600	10.1660
 2.1610	10.1820
 2.1620	10.2100
 2.1630	10.2350
 2.1640	10.2670
 2.1650	10.2920
 2.1660	10.3140
 2.1670	10.3420
 2.1680	10.3750
 2.1690	10.4010
 2.1700	10.4350
 2.1710	10.4520
 2.1720	10.4490
 2.1730	10.4620
 2.1740	10.4720
 2.1750	10.4860
 2.1760	10.5100
 2.1770	10.5330
 2.1780	10.5590
 2.1790	10.5810
 2.1800	10.6060
 2.1810	10.6290
 2.1820	10.6450
 2.1830	10.6630
 2.1840	10.6860
 2.1850	10.7130
 2.1860	10.7380
 2.1870	10.7670
 2.1880	10.7900
 2.1890	10.8080
 2.1900	10.8320
 2.1910	10.8580
 2.1920	10.8800
 2.1930	10.9020
 2.1940	10.9260
 2.1950	10.9510
 2.1960	10.9720
 2.1970	10.9910
 2.1980	11.0150
 2.1990	11.0390
 2.2000	11.0600
 2.2010	11.0830
 2.2020	11.1080
 2.2030	11.1370
 2.2040	11.1560
 2.2050	11.1760
 2.2060	11.1890
 2.2070	11.2040
 2.2080	11.2050
 2.2090	11.2180
 2.2100	11.2390
 2.2110	11.2570
 2.2120	11.2730
 2.2130	11.2970
 2.2140	11.3290
 2.2150	11.3530
 2.2160	11.3840
 2.2170	11.3980
 2.2180	11.3950
 2.2190	11.4010
 2.2200	11.3990
 2.2210	11.4040
 2.2220	11.4240
 2.2230	11.4310
 2.2240	11.4270
 2.2250	11.4300
 2.2260	11.4290
 2.2270	11.4300
 2.2280	11.4370
 2.2290	11.4410
 2.2300	11.4470
 2.2310	11.4420
 2.2320	11.4320
 2.2330	11.4200
 2.2340	11.3980
 2.2350	11.3640
 2.2360	11.3330
 2.2370	11.2970
 2.2380	11.2650
 2.2390	11.2300
 2.2400	11.2010
 2.2410	11.1740
 2.2420	11.1480
 2.2430	11.1290
 2.2440	11.1020
 2.2450	11.0780
 2.2460	11.0430
 2.2470	10.9950
 2.2480	10.9550
 2.2490	10.9070
 2.2500	10.8700
 2.2510	10.8440
 2.2520	10.8100
 2.2530	10.7750
 2.2540	10.7400
 2.2550	10.6980
 2.2560	10.6600
 2.2570	10.6240
 2.2580	10.5910
 2.2590	10.5700
 2.2600	10.5330
 2.2610	10.4890
 2.2620	10.4390
 2.2630	10.3780
 2.2640	10.3360
 2.2650	10.3170
 2.2660	10.2960
 2.2670	10.2730
 2.2680	10.2600
 2.2690	10.2250
 2.2700	10.1710
 2.2710	10.1370
 2.2720	10.0970
 2.2730	10.0730
 2.2740	10.0730
 2.2750	10.0510
 2.2760	10.0260
 2.2770	 9.9950
 2.2780	 9.9460
 2.2790	 9.9160
 2.2800	 9.8900
 2.2810	 9.8680
 2.2820	 9.8580
 2.2830	 9.8410
 2.2840	 9.8200
 2.2850	 9.8020
 2.2860	 9.7850
 2.2870	 9.7690
 2.2880	 9.7580
 2.2890	 9.7400
 2.2900	 9.7160
 2.2910	 9.6960
 2.2920	 9.6760
 2.2930	 9.6520
 2.2940	 9.6320
 2.2950	 9.6030
 2.2960	 9.5620
 2.2970	 9.5250
 2.2980	 9.4790
 2.2990	 9.4440
 2.3000	 9.4190
 2.3010	 9.3740
 2.3020	 9.3310
 2.3030	 9.2950
 2.3040	 9.2650
 2.3050	 9.2530
 2.3060	 9.2460
 2.3070	 9.2420
 2.3080	 9.2300
 2.3090	 9.2120
 2.3100	 9.2120
 2.3110	 9.1900
 2.3120	 9.1770
 2.3130	 9.1710
 2.3140	 9.1560
 2.3150	 9.1290
 2.3160	 9.1230
 2.3170	 9.1280
 2.3180	 9.1220
 2.3190	 9.1250
 2.3200	 9.1210
 2.3210	 9.1130
 2.3220	 9.0900
 2.3230	 9.0560
 2.3240	 9.0330
 2.3250	 8.9960
 2.3260	 8.9700
 2.3270	 8.9670
 2.3280	 8.9470
 2.3290	 8.9120
 2.3300	 8.8880
 2.3310	 8.8660
 2.3320	 8.8450
 2.3330	 8.8320
 2.3340	 8.8090
 2.3350	 8.7730
 2.3360	 8.7550
 2.3370	 8.7400
 2.3380	 8.7340
 2.3390	 8.7550
 2.3400	 8.7530
 2.3410	 8.7400
 2.3420	 8.7300
 2.3430	 8.7110
 2.3440	 8.6950
 2.3450	 8.6820
 2.3460	 8.6640
 2.3470	 8.6400
 2.3480	 8.6220
 2.3490	 8.6130
 2.3500	 8.5890
 2.3510	 8.5390
 2.3520	 8.5250
 2.3530	 8.5130
 2.3540	 8.5290
 2.3550	 8.5560
 2.3560	 8.5710
 2.3570	 8.5570
 2.3580	 8.5170
 2.3590	 8.4940
 2.3600	 8.4820
 2.3610	 8.4570
 2.3620	 8.4460
 2.3630	 8.4340
 2.3640	 8.4090
 2.3650	 8.4150
 2.3660	 8.4140
 2.3670	 8.3920
 2.3680	 8.3670
 2.3690	 8.3160
 2.3700	 8.2730
 2.3710	 8.2500
 2.3720	 8.2480
 2.3730	 8.2600
 2.3740	 8.2680
 2.3750	 8.2820
 2.3760	 8.2780
 2.3770	 8.2860
 2.3780	 8.2880
 2.3790	 8.2470
 2.3800	 8.2220
 2.3810	 8.1840
 2.3820	 8.1480
 2.3830	 8.1470
 2.3840	 8.1360
 2.3850	 8.1280
 2.3860	 8.0940
 2.3870	 8.0520
 2.3880	 8.0250
 2.3890	 7.9810
 2.3900	 7.9620
 2.3910	 7.9570
 2.3920	 7.9420
 2.3930	 7.9340
 2.3940	 7.9180
 2.3950	 7.8950
 2.3960	 7.8810
 2.3970	 7.8920
 2.3980	 7.9040
 2.3990	 7.9000
 2.4000	 7.9090
 2.4010	 7.8900
 2.4020	 7.8300
 2.4030	 7.8010
 2.4040	 7.7860
 2.4050	 7.7360
 2.4060	 7.6990
 2.4070	 7.6930
 2.4080	 7.6470
 2.4090	 7.6090
 2.4100	 7.6220
 2.4110	 7.6120
 2.4120	 7.5960
 2.4130	 7.6070
 2.4140	 7.6220
 2.4150	 7.6220
 2.4160	 7.5830
 2.4170	 7.5460
 2.4180	 7.5240
 2.4190	 7.5070
 2.4200	 7.4920
 2.4210	 7.4550
 2.4220	 7.4150
 2.4230	 7.3560
 2.4240	 7.3340
 2.4250	 7.3490
 2.4260	 7.3330
 2.4270	 7.3390
 2.4280	 7.3330
 2.4290	 7.3010
 2.4300	 7.2830
 2.4310	 7.2450
 2.4320	 7.1830
 2.4330	 7.1470
 2.4340	 7.1480
 2.4350	 7.1260
 2.4360	 7.1540
 2.4370	 7.1850
 2.4380	 7.1510
 2.4390	 7.1620
 2.4400	 7.1570
 2.4410	 7.1420
 2.4420	 7.1820
 2.4430	 7.1950
 2.4440	 7.1280
 2.4450	 7.0560
 2.4460	 7.0010
 2.4470	 6.9360
 2.4480	 6.9610
 2.4490	 6.9850
 2.4500	 6.9690
 2.4510	 6.9530
 2.4520	 6.8800
 2.4530	 6.8800
 2.4540	 6.8930
 2.4550	 6.8430
 2.4560	 6.8810
 2.4570	 6.8770
 2.4580	 6.8030
 2.4590	 6.8170
 2.4600	 6.8160
 2.4610	 6.7810
 2.4620	 6.8310
 2.4630	 6.8600
 2.4640	 6.8400
 2.4650	 6.8100
 2.4660	 6.7310
 2.4670	 6.6850
 2.4680	 6.6730
 2.4690	 6.7190
 2.4700	 6.7100
 2.4710	 6.6380
 2.4720	 6.6160
 2.4730	 6.5940
 2.4740	 6.6070
 2.4750	 6.6510
 2.4760	 6.6790
 2.4770	 6.7590
 2.4780	 6.7720
 2.4790	 6.7670
 2.4800	 6.7400
 2.4810	 6.6410
 2.4820	 6.4960
 2.4830	 6.4060
 2.4840	 6.3410
 2.4850	 6.3740
 2.4860	 6.4780
 2.4870	 6.5470
 2.4880	 6.6810
 2.4890	 6.6830
 2.4900	 6.6460
 2.4910	 6.7110
 2.4920	 6.6430
 2.4930	 6.6130
 2.4940	 6.5810
 2.4950	 6.4210
 2.4960	 6.4200
 2.4970	 6.5210
 2.4980	 6.6220
 2.4990	 6.7510
 2.5000	 6.8010
