Name: Pinus ponderosa 2
Type: vegetation
Class: Tree
Genus: Pinus
Species: ponderosa
Sample No.: VH061
Owner: UCSB
Wavelength Range: VSWIR
Origin: 37.044; -119.3023; WGS84
Collection Date: 4/20/2013
Description: Samples were collected as part of the HyspIRI Airborne Campaign. 48 individual plants were sampled in three times in 2013 - spring  summer  and fall. The name of the sample includes a 1  2  or 3 which references a different individual of the species. Samples were taken to JPL and processed within 48 hours of collection. The same leaves were processed in the Nicolet and then measured using the ASD.
Measurement: Bidirectional reflectance
First Column: X
Second Column: Y
X Units: Wavelength (micrometers)
Y Units: Reflectance (percentage)
First X Value: 0.35
Last X Value: 2.5
Number of X Values: 2151
Additional Information: vegetation.tree.pinus.ponderosa.vswir.vh061.ucsb.asd.ancillary.txt

 0.3500	 4.4990
 0.3510	 4.3260
 0.3520	 4.3670
 0.3530	 4.5070
 0.3540	 4.5530
 0.3550	 4.4730
 0.3560	 4.4170
 0.3570	 4.3850
 0.3580	 4.3190
 0.3590	 4.3940
 0.3600	 4.3930
 0.3610	 4.2660
 0.3620	 4.2290
 0.3630	 4.3010
 0.3640	 4.3410
 0.3650	 4.2630
 0.3660	 4.3580
 0.3670	 4.3150
 0.3680	 4.1760
 0.3690	 4.2180
 0.3700	 4.3060
 0.3710	 4.2950
 0.3720	 4.1680
 0.3730	 4.1410
 0.3740	 4.1860
 0.3750	 4.2370
 0.3760	 4.2260
 0.3770	 4.1700
 0.3780	 4.1350
 0.3790	 4.1440
 0.3800	 4.1770
 0.3810	 4.1910
 0.3820	 4.1970
 0.3830	 4.2020
 0.3840	 4.1730
 0.3850	 4.1760
 0.3860	 4.2040
 0.3870	 4.2210
 0.3880	 4.1790
 0.3890	 4.1660
 0.3900	 4.1910
 0.3910	 4.1800
 0.3920	 4.2080
 0.3930	 4.2350
 0.3940	 4.2270
 0.3950	 4.2170
 0.3960	 4.1870
 0.3970	 4.1770
 0.3980	 4.2310
 0.3990	 4.2070
 0.4000	 4.1750
 0.4010	 4.1870
 0.4020	 4.2420
 0.4030	 4.2690
 0.4040	 4.2600
 0.4050	 4.2360
 0.4060	 4.2350
 0.4070	 4.2610
 0.4080	 4.2960
 0.4090	 4.3140
 0.4100	 4.3480
 0.4110	 4.3680
 0.4120	 4.3680
 0.4130	 4.3890
 0.4140	 4.4420
 0.4150	 4.4930
 0.4160	 4.5120
 0.4170	 4.5600
 0.4180	 4.6100
 0.4190	 4.6630
 0.4200	 4.7420
 0.4210	 4.7970
 0.4220	 4.8400
 0.4230	 4.8890
 0.4240	 4.9500
 0.4250	 5.0190
 0.4260	 5.0860
 0.4270	 5.1380
 0.4280	 5.1940
 0.4290	 5.2500
 0.4300	 5.3040
 0.4310	 5.3610
 0.4320	 5.4250
 0.4330	 5.4840
 0.4340	 5.5290
 0.4350	 5.5680
 0.4360	 5.6070
 0.4370	 5.6530
 0.4380	 5.7110
 0.4390	 5.7590
 0.4400	 5.8000
 0.4410	 5.8390
 0.4420	 5.8720
 0.4430	 5.9020
 0.4440	 5.9360
 0.4450	 5.9810
 0.4460	 6.0250
 0.4470	 6.0520
 0.4480	 6.0680
 0.4490	 6.1010
 0.4500	 6.1330
 0.4510	 6.1590
 0.4520	 6.1780
 0.4530	 6.1970
 0.4540	 6.2210
 0.4550	 6.2450
 0.4560	 6.2610
 0.4570	 6.2790
 0.4580	 6.3020
 0.4590	 6.3240
 0.4600	 6.3220
 0.4610	 6.3380
 0.4620	 6.3600
 0.4630	 6.3670
 0.4640	 6.3760
 0.4650	 6.3880
 0.4660	 6.4000
 0.4670	 6.4140
 0.4680	 6.4230
 0.4690	 6.4320
 0.4700	 6.4450
 0.4710	 6.4520
 0.4720	 6.4640
 0.4730	 6.4770
 0.4740	 6.4790
 0.4750	 6.4800
 0.4760	 6.4830
 0.4770	 6.4860
 0.4780	 6.4920
 0.4790	 6.5000
 0.4800	 6.5060
 0.4810	 6.5090
 0.4820	 6.5210
 0.4830	 6.5250
 0.4840	 6.5200
 0.4850	 6.5200
 0.4860	 6.5330
 0.4870	 6.5490
 0.4880	 6.5600
 0.4890	 6.5770
 0.4900	 6.5890
 0.4910	 6.6000
 0.4920	 6.6170
 0.4930	 6.6380
 0.4940	 6.6650
 0.4950	 6.6970
 0.4960	 6.7280
 0.4970	 6.7650
 0.4980	 6.8010
 0.4990	 6.8320
 0.5000	 6.8660
 0.5010	 6.9080
 0.5020	 6.9570
 0.5030	 7.0090
 0.5040	 7.0750
 0.5050	 7.1430
 0.5060	 7.2060
 0.5070	 7.2750
 0.5080	 7.3590
 0.5090	 7.4540
 0.5100	 7.5450
 0.5110	 7.6370
 0.5120	 7.7400
 0.5130	 7.8570
 0.5140	 7.9820
 0.5150	 8.1100
 0.5160	 8.2380
 0.5170	 8.3670
 0.5180	 8.5100
 0.5190	 8.6580
 0.5200	 8.8100
 0.5210	 8.9690
 0.5220	 9.1210
 0.5230	 9.2720
 0.5240	 9.4230
 0.5250	 9.5690
 0.5260	 9.7150
 0.5270	 9.8610
 0.5280	10.0000
 0.5290	10.1260
 0.5300	10.2440
 0.5310	10.3570
 0.5320	10.4630
 0.5330	10.5690
 0.5340	10.6710
 0.5350	10.7640
 0.5360	10.8540
 0.5370	10.9350
 0.5380	11.0070
 0.5390	11.0730
 0.5400	11.1420
 0.5410	11.2070
 0.5420	11.2660
 0.5430	11.3250
 0.5440	11.3880
 0.5450	11.4500
 0.5460	11.5050
 0.5470	11.5610
 0.5480	11.6160
 0.5490	11.6680
 0.5500	11.7150
 0.5510	11.7520
 0.5520	11.7780
 0.5530	11.7920
 0.5540	11.8000
 0.5550	11.7980
 0.5560	11.7850
 0.5570	11.7560
 0.5580	11.7220
 0.5590	11.6850
 0.5600	11.6430
 0.5610	11.5910
 0.5620	11.5340
 0.5630	11.4750
 0.5640	11.4140
 0.5650	11.3450
 0.5660	11.2660
 0.5670	11.1770
 0.5680	11.0860
 0.5690	10.9940
 0.5700	10.9000
 0.5710	10.8020
 0.5720	10.7040
 0.5730	10.6140
 0.5740	10.5320
 0.5750	10.4550
 0.5760	10.3910
 0.5770	10.3370
 0.5780	10.2860
 0.5790	10.2370
 0.5800	10.1900
 0.5810	10.1420
 0.5820	10.0890
 0.5830	10.0380
 0.5840	 9.9880
 0.5850	 9.9400
 0.5860	 9.8910
 0.5870	 9.8470
 0.5880	 9.8080
 0.5890	 9.7700
 0.5900	 9.7330
 0.5910	 9.7100
 0.5920	 9.6950
 0.5930	 9.6770
 0.5940	 9.6630
 0.5950	 9.6520
 0.5960	 9.6420
 0.5970	 9.6280
 0.5980	 9.6150
 0.5990	 9.5990
 0.6000	 9.5780
 0.6010	 9.5670
 0.6020	 9.5480
 0.6030	 9.5170
 0.6040	 9.4830
 0.6050	 9.4450
 0.6060	 9.4030
 0.6070	 9.3580
 0.6080	 9.3020
 0.6090	 9.2430
 0.6100	 9.1820
 0.6110	 9.1170
 0.6120	 9.0600
 0.6130	 9.0070
 0.6140	 8.9580
 0.6150	 8.9120
 0.6160	 8.8610
 0.6170	 8.8110
 0.6180	 8.7710
 0.6190	 8.7360
 0.6200	 8.7010
 0.6210	 8.6690
 0.6220	 8.6430
 0.6230	 8.6200
 0.6240	 8.6000
 0.6250	 8.5830
 0.6260	 8.5710
 0.6270	 8.5640
 0.6280	 8.5590
 0.6290	 8.5540
 0.6300	 8.5520
 0.6310	 8.5470
 0.6320	 8.5420
 0.6330	 8.5400
 0.6340	 8.5310
 0.6350	 8.5150
 0.6360	 8.4940
 0.6370	 8.4660
 0.6380	 8.4320
 0.6390	 8.3930
 0.6400	 8.3520
 0.6410	 8.3060
 0.6420	 8.2590
 0.6430	 8.2130
 0.6440	 8.1590
 0.6450	 8.1020
 0.6460	 8.0450
 0.6470	 7.9860
 0.6480	 7.9350
 0.6490	 7.8890
 0.6500	 7.8480
 0.6510	 7.8070
 0.6520	 7.7700
 0.6530	 7.7350
 0.6540	 7.6990
 0.6550	 7.6580
 0.6560	 7.6100
 0.6570	 7.5570
 0.6580	 7.5020
 0.6590	 7.4410
 0.6600	 7.3760
 0.6610	 7.3090
 0.6620	 7.2480
 0.6630	 7.1870
 0.6640	 7.1270
 0.6650	 7.0710
 0.6660	 7.0290
 0.6670	 6.9900
 0.6680	 6.9520
 0.6690	 6.9220
 0.6700	 6.8980
 0.6710	 6.8790
 0.6720	 6.8650
 0.6730	 6.8550
 0.6740	 6.8510
 0.6750	 6.8490
 0.6760	 6.8460
 0.6770	 6.8520
 0.6780	 6.8610
 0.6790	 6.8740
 0.6800	 6.8930
 0.6810	 6.9240
 0.6820	 6.9640
 0.6830	 7.0130
 0.6840	 7.0770
 0.6850	 7.1610
 0.6860	 7.2690
 0.6870	 7.4020
 0.6880	 7.5600
 0.6890	 7.7530
 0.6900	 7.9840
 0.6910	 8.2520
 0.6920	 8.5630
 0.6930	 8.9170
 0.6940	 9.3110
 0.6950	 9.7440
 0.6960	10.2150
 0.6970	10.7230
 0.6980	11.2690
 0.6990	11.8470
 0.7000	12.4520
 0.7010	13.0830
 0.7020	13.7370
 0.7030	14.4130
 0.7040	15.1050
 0.7050	15.8100
 0.7060	16.5300
 0.7070	17.2610
 0.7080	18.0070
 0.7090	18.7730
 0.7100	19.5460
 0.7110	20.3340
 0.7120	21.1380
 0.7130	21.9590
 0.7140	22.7850
 0.7150	23.6220
 0.7160	24.4750
 0.7170	25.3430
 0.7180	26.2200
 0.7190	27.1030
 0.7200	27.9940
 0.7210	28.9000
 0.7220	29.8090
 0.7230	30.7170
 0.7240	31.6260
 0.7250	32.5270
 0.7260	33.4220
 0.7270	34.3120
 0.7280	35.1850
 0.7290	36.0470
 0.7300	36.8970
 0.7310	37.7310
 0.7320	38.5290
 0.7330	39.3110
 0.7340	40.0800
 0.7350	40.8190
 0.7360	41.5370
 0.7370	42.2320
 0.7380	42.9020
 0.7390	43.5420
 0.7400	44.1580
 0.7410	44.7460
 0.7420	45.3030
 0.7430	45.8390
 0.7440	46.3520
 0.7450	46.8410
 0.7460	47.3000
 0.7470	47.7350
 0.7480	48.1400
 0.7490	48.5180
 0.7500	48.8750
 0.7510	49.2070
 0.7520	49.5110
 0.7530	49.7880
 0.7540	50.0590
 0.7550	50.3080
 0.7560	50.5310
 0.7570	50.7380
 0.7580	50.9280
 0.7590	51.1100
 0.7600	51.2840
 0.7610	51.4400
 0.7620	51.5740
 0.7630	51.6990
 0.7640	51.8240
 0.7650	51.9380
 0.7660	52.0420
 0.7670	52.1390
 0.7680	52.2350
 0.7690	52.3180
 0.7700	52.3990
 0.7710	52.4790
 0.7720	52.5500
 0.7730	52.6140
 0.7740	52.6740
 0.7750	52.7320
 0.7760	52.7830
 0.7770	52.8410
 0.7780	52.9010
 0.7790	52.9470
 0.7800	52.9930
 0.7810	53.0340
 0.7820	53.0720
 0.7830	53.1200
 0.7840	53.1620
 0.7850	53.2010
 0.7860	53.2380
 0.7870	53.2790
 0.7880	53.3170
 0.7890	53.3510
 0.7900	53.3830
 0.7910	53.4170
 0.7920	53.4470
 0.7930	53.4750
 0.7940	53.5050
 0.7950	53.5350
 0.7960	53.5620
 0.7970	53.5870
 0.7980	53.6190
 0.7990	53.6420
 0.8000	53.6640
 0.8010	53.6930
 0.8020	53.7150
 0.8030	53.7340
 0.8040	53.7540
 0.8050	53.7780
 0.8060	53.8030
 0.8070	53.8220
 0.8080	53.8380
 0.8090	53.8590
 0.8100	53.8730
 0.8110	53.8900
 0.8120	53.9120
 0.8130	53.9280
 0.8140	53.9410
 0.8150	53.9570
 0.8160	53.9800
 0.8170	53.9910
 0.8180	54.0100
 0.8190	54.0320
 0.8200	54.0450
 0.8210	54.0670
 0.8220	54.0870
 0.8230	54.0990
 0.8240	54.1050
 0.8250	54.1230
 0.8260	54.1380
 0.8270	54.1440
 0.8280	54.1530
 0.8290	54.1670
 0.8300	54.1760
 0.8310	54.1740
 0.8320	54.1810
 0.8330	54.1950
 0.8340	54.2080
 0.8350	54.2150
 0.8360	54.2340
 0.8370	54.2530
 0.8380	54.2690
 0.8390	54.2860
 0.8400	54.3040
 0.8410	54.3250
 0.8420	54.3470
 0.8430	54.3690
 0.8440	54.3930
 0.8450	54.4110
 0.8460	54.4220
 0.8470	54.4460
 0.8480	54.4720
 0.8490	54.4950
 0.8500	54.5120
 0.8510	54.5250
 0.8520	54.5430
 0.8530	54.5650
 0.8540	54.5860
 0.8550	54.6060
 0.8560	54.6230
 0.8570	54.6400
 0.8580	54.6640
 0.8590	54.6790
 0.8600	54.6940
 0.8610	54.7130
 0.8620	54.7300
 0.8630	54.7380
 0.8640	54.7410
 0.8650	54.7490
 0.8660	54.7790
 0.8670	54.7980
 0.8680	54.8040
 0.8690	54.8090
 0.8700	54.8150
 0.8710	54.8220
 0.8720	54.8340
 0.8730	54.8530
 0.8740	54.8680
 0.8750	54.8740
 0.8760	54.8750
 0.8770	54.8860
 0.8780	54.8910
 0.8790	54.8930
 0.8800	54.8980
 0.8810	54.9070
 0.8820	54.9080
 0.8830	54.9080
 0.8840	54.9110
 0.8850	54.9120
 0.8860	54.9100
 0.8870	54.9030
 0.8880	54.8930
 0.8890	54.8940
 0.8900	54.8820
 0.8910	54.8640
 0.8920	54.8530
 0.8930	54.8500
 0.8940	54.8460
 0.8950	54.8390
 0.8960	54.8280
 0.8970	54.8140
 0.8980	54.8040
 0.8990	54.7970
 0.9000	54.7850
 0.9010	54.7720
 0.9020	54.7630
 0.9030	54.7540
 0.9040	54.7340
 0.9050	54.7240
 0.9060	54.7160
 0.9070	54.7000
 0.9080	54.6740
 0.9090	54.6550
 0.9100	54.6450
 0.9110	54.6350
 0.9120	54.6100
 0.9130	54.5870
 0.9140	54.5730
 0.9150	54.5670
 0.9160	54.5550
 0.9170	54.5390
 0.9180	54.5220
 0.9190	54.5100
 0.9200	54.5030
 0.9210	54.4770
 0.9220	54.4410
 0.9230	54.4230
 0.9240	54.3880
 0.9250	54.3520
 0.9260	54.3240
 0.9270	54.3060
 0.9280	54.2690
 0.9290	54.2250
 0.9300	54.1800
 0.9310	54.1370
 0.9320	54.0900
 0.9330	54.0340
 0.9340	53.9720
 0.9350	53.9190
 0.9360	53.8470
 0.9370	53.7840
 0.9380	53.7430
 0.9390	53.6950
 0.9400	53.6310
 0.9410	53.5540
 0.9420	53.4680
 0.9430	53.3740
 0.9440	53.2840
 0.9450	53.1910
 0.9460	53.0860
 0.9470	52.9570
 0.9480	52.8230
 0.9490	52.6870
 0.9500	52.5480
 0.9510	52.3930
 0.9520	52.2220
 0.9530	52.0490
 0.9540	51.8830
 0.9550	51.7080
 0.9560	51.5430
 0.9570	51.3800
 0.9580	51.2100
 0.9590	51.0530
 0.9600	50.9160
 0.9610	50.8010
 0.9620	50.7000
 0.9630	50.5860
 0.9640	50.4830
 0.9650	50.3990
 0.9660	50.3300
 0.9670	50.2630
 0.9680	50.2100
 0.9690	50.1590
 0.9700	50.0950
 0.9710	50.0420
 0.9720	49.9800
 0.9730	49.9310
 0.9740	49.9190
 0.9750	49.8950
 0.9760	49.8480
 0.9770	49.8040
 0.9780	49.7990
 0.9790	49.8020
 0.9800	49.8030
 0.9810	49.7940
 0.9820	49.7750
 0.9830	49.7900
 0.9840	49.8080
 0.9850	49.8180
 0.9860	49.8300
 0.9870	49.8910
 0.9880	49.9190
 0.9890	49.9290
 0.9900	49.9750
 0.9910	50.0300
 0.9920	50.1180
 0.9930	50.2060
 0.9940	50.2940
 0.9950	50.3820
 0.9960	50.4700
 0.9970	50.5580
 0.9980	50.6460
 0.9990	50.7350
 1.0000	50.8230
 1.0010	50.9110
 1.0020	50.9990
 1.0030	51.0870
 1.0040	51.1750
 1.0050	51.2630
 1.0060	51.3510
 1.0070	51.4400
 1.0080	51.5280
 1.0090	51.6160
 1.0100	51.6160
 1.0110	51.6910
 1.0120	51.7630
 1.0130	51.8330
 1.0140	51.9060
 1.0150	51.9800
 1.0160	52.0490
 1.0170	52.1210
 1.0180	52.1960
 1.0190	52.2710
 1.0200	52.3450
 1.0210	52.4190
 1.0220	52.4960
 1.0230	52.5730
 1.0240	52.6500
 1.0250	52.7240
 1.0260	52.8020
 1.0270	52.8730
 1.0280	52.9360
 1.0290	53.0020
 1.0300	53.0670
 1.0310	53.1320
 1.0320	53.1990
 1.0330	53.2610
 1.0340	53.3210
 1.0350	53.3810
 1.0360	53.4500
 1.0370	53.5200
 1.0380	53.5840
 1.0390	53.6520
 1.0400	53.7120
 1.0410	53.7610
 1.0420	53.8160
 1.0430	53.8710
 1.0440	53.9240
 1.0450	53.9760
 1.0460	54.0280
 1.0470	54.0840
 1.0480	54.1350
 1.0490	54.1820
 1.0500	54.2290
 1.0510	54.2760
 1.0520	54.3180
 1.0530	54.3600
 1.0540	54.4000
 1.0550	54.4440
 1.0560	54.4900
 1.0570	54.5280
 1.0580	54.5660
 1.0590	54.6030
 1.0600	54.6300
 1.0610	54.6620
 1.0620	54.7000
 1.0630	54.7310
 1.0640	54.7570
 1.0650	54.7850
 1.0660	54.8120
 1.0670	54.8380
 1.0680	54.8630
 1.0690	54.8920
 1.0700	54.9110
 1.0710	54.9260
 1.0720	54.9400
 1.0730	54.9500
 1.0740	54.9610
 1.0750	54.9720
 1.0760	54.9820
 1.0770	54.9910
 1.0780	54.9960
 1.0790	54.9970
 1.0800	54.9990
 1.0810	54.9970
 1.0820	54.9970
 1.0830	55.0040
 1.0840	55.0030
 1.0850	54.9970
 1.0860	54.9880
 1.0870	54.9740
 1.0880	54.9520
 1.0890	54.9340
 1.0900	54.9170
 1.0910	54.8970
 1.0920	54.8790
 1.0930	54.8560
 1.0940	54.8320
 1.0950	54.8050
 1.0960	54.7770
 1.0970	54.7470
 1.0980	54.7110
 1.0990	54.6800
 1.1000	54.6510
 1.1010	54.6180
 1.1020	54.5830
 1.1030	54.5490
 1.1040	54.5100
 1.1050	54.4710
 1.1060	54.4280
 1.1070	54.3850
 1.1080	54.3380
 1.1090	54.2880
 1.1100	54.2350
 1.1110	54.1800
 1.1120	54.1220
 1.1130	54.0610
 1.1140	53.9960
 1.1150	53.9330
 1.1160	53.8620
 1.1170	53.7890
 1.1180	53.7070
 1.1190	53.6200
 1.1200	53.5240
 1.1210	53.4200
 1.1220	53.3070
 1.1230	53.1810
 1.1240	53.0450
 1.1250	52.8940
 1.1260	52.7330
 1.1270	52.5540
 1.1280	52.3600
 1.1290	52.1510
 1.1300	51.9270
 1.1310	51.6850
 1.1320	51.4270
 1.1330	51.1550
 1.1340	50.8670
 1.1350	50.5650
 1.1360	50.2490
 1.1370	49.9190
 1.1380	49.5770
 1.1390	49.2260
 1.1400	48.8670
 1.1410	48.5100
 1.1420	48.1480
 1.1430	47.7880
 1.1440	47.4330
 1.1450	47.0770
 1.1460	46.7340
 1.1470	46.3940
 1.1480	46.0700
 1.1490	45.7530
 1.1500	45.4540
 1.1510	45.1640
 1.1520	44.8950
 1.1530	44.6420
 1.1540	44.4050
 1.1550	44.1860
 1.1560	43.9810
 1.1570	43.7890
 1.1580	43.6140
 1.1590	43.4530
 1.1600	43.3040
 1.1610	43.1670
 1.1620	43.0380
 1.1630	42.9190
 1.1640	42.8120
 1.1650	42.7110
 1.1660	42.6200
 1.1670	42.5350
 1.1680	42.4570
 1.1690	42.3810
 1.1700	42.3120
 1.1710	42.2430
 1.1720	42.1770
 1.1730	42.1110
 1.1740	42.0480
 1.1750	41.9830
 1.1760	41.9150
 1.1770	41.8460
 1.1780	41.7710
 1.1790	41.6970
 1.1800	41.6230
 1.1810	41.5480
 1.1820	41.4740
 1.1830	41.4030
 1.1840	41.3320
 1.1850	41.2630
 1.1860	41.1950
 1.1870	41.1280
 1.1880	41.0660
 1.1890	41.0050
 1.1900	40.9510
 1.1910	40.9010
 1.1920	40.8560
 1.1930	40.8150
 1.1940	40.7800
 1.1950	40.7480
 1.1960	40.7220
 1.1970	40.7030
 1.1980	40.6850
 1.1990	40.6720
 1.2000	40.6630
 1.2010	40.6610
 1.2020	40.6660
 1.2030	40.6760
 1.2040	40.6920
 1.2050	40.7140
 1.2060	40.7410
 1.2070	40.7730
 1.2080	40.8110
 1.2090	40.8550
 1.2100	40.9040
 1.2110	40.9590
 1.2120	41.0220
 1.2130	41.0880
 1.2140	41.1590
 1.2150	41.2360
 1.2160	41.3180
 1.2170	41.4030
 1.2180	41.4920
 1.2190	41.5860
 1.2200	41.6800
 1.2210	41.7760
 1.2220	41.8750
 1.2230	41.9750
 1.2240	42.0750
 1.2250	42.1750
 1.2260	42.2740
 1.2270	42.3680
 1.2280	42.4600
 1.2290	42.5510
 1.2300	42.6390
 1.2310	42.7250
 1.2320	42.8090
 1.2330	42.8880
 1.2340	42.9670
 1.2350	43.0430
 1.2360	43.1170
 1.2370	43.1880
 1.2380	43.2580
 1.2390	43.3240
 1.2400	43.3880
 1.2410	43.4520
 1.2420	43.5150
 1.2430	43.5770
 1.2440	43.6380
 1.2450	43.6960
 1.2460	43.7500
 1.2470	43.8000
 1.2480	43.8500
 1.2490	43.8970
 1.2500	43.9420
 1.2510	43.9870
 1.2520	44.0310
 1.2530	44.0730
 1.2540	44.1150
 1.2550	44.1570
 1.2560	44.1930
 1.2570	44.2260
 1.2580	44.2560
 1.2590	44.2840
 1.2600	44.3060
 1.2610	44.3300
 1.2620	44.3520
 1.2630	44.3730
 1.2640	44.3940
 1.2650	44.4130
 1.2660	44.4270
 1.2670	44.4380
 1.2680	44.4460
 1.2690	44.4510
 1.2700	44.4560
 1.2710	44.4610
 1.2720	44.4630
 1.2730	44.4640
 1.2740	44.4610
 1.2750	44.4550
 1.2760	44.4490
 1.2770	44.4410
 1.2780	44.4320
 1.2790	44.4220
 1.2800	44.4060
 1.2810	44.3860
 1.2820	44.3650
 1.2830	44.3430
 1.2840	44.3200
 1.2850	44.2940
 1.2860	44.2630
 1.2870	44.2270
 1.2880	44.1850
 1.2890	44.1410
 1.2900	44.0940
 1.2910	44.0430
 1.2920	43.9880
 1.2930	43.9280
 1.2940	43.8640
 1.2950	43.7950
 1.2960	43.7230
 1.2970	43.6480
 1.2980	43.5660
 1.2990	43.4790
 1.3000	43.3870
 1.3010	43.2870
 1.3020	43.1850
 1.3030	43.0760
 1.3040	42.9590
 1.3050	42.8390
 1.3060	42.7110
 1.3070	42.5790
 1.3080	42.4470
 1.3090	42.3070
 1.3100	42.1590
 1.3110	42.0070
 1.3120	41.8480
 1.3130	41.6830
 1.3140	41.5150
 1.3150	41.3420
 1.3160	41.1630
 1.3170	40.9790
 1.3180	40.7920
 1.3190	40.5980
 1.3200	40.3990
 1.3210	40.1960
 1.3220	39.9880
 1.3230	39.7770
 1.3240	39.5650
 1.3250	39.3520
 1.3260	39.1340
 1.3270	38.9120
 1.3280	38.6880
 1.3290	38.4590
 1.3300	38.2300
 1.3310	38.0010
 1.3320	37.7690
 1.3330	37.5400
 1.3340	37.3110
 1.3350	37.0820
 1.3360	36.8550
 1.3370	36.6270
 1.3380	36.4010
 1.3390	36.1770
 1.3400	35.9540
 1.3410	35.7380
 1.3420	35.5240
 1.3430	35.3130
 1.3440	35.1070
 1.3450	34.9030
 1.3460	34.7010
 1.3470	34.5050
 1.3480	34.3130
 1.3490	34.1240
 1.3500	33.9410
 1.3510	33.7590
 1.3520	33.5780
 1.3530	33.4000
 1.3540	33.2220
 1.3550	33.0480
 1.3560	32.8740
 1.3570	32.7010
 1.3580	32.5290
 1.3590	32.3540
 1.3600	32.1760
 1.3610	31.9970
 1.3620	31.8130
 1.3630	31.6260
 1.3640	31.4350
 1.3650	31.2380
 1.3660	31.0340
 1.3670	30.8240
 1.3680	30.6060
 1.3690	30.3790
 1.3700	30.1390
 1.3710	29.8920
 1.3720	29.6320
 1.3730	29.3560
 1.3740	29.0700
 1.3750	28.7700
 1.3760	28.4520
 1.3770	28.1190
 1.3780	27.7650
 1.3790	27.3930
 1.3800	27.0040
 1.3810	26.5970
 1.3820	26.1780
 1.3830	25.7450
 1.3840	25.3020
 1.3850	24.8450
 1.3860	24.3820
 1.3870	23.9060
 1.3880	23.4320
 1.3890	22.9510
 1.3900	22.4700
 1.3910	21.9950
 1.3920	21.5230
 1.3930	21.0540
 1.3940	20.5930
 1.3950	20.1360
 1.3960	19.6900
 1.3970	19.2560
 1.3980	18.8340
 1.3990	18.4310
 1.4000	18.0410
 1.4010	17.6630
 1.4020	17.3040
 1.4030	16.9570
 1.4040	16.6270
 1.4050	16.3150
 1.4060	16.0170
 1.4070	15.7380
 1.4080	15.4740
 1.4090	15.2220
 1.4100	14.9870
 1.4110	14.7640
 1.4120	14.5550
 1.4130	14.3600
 1.4140	14.1770
 1.4150	14.0080
 1.4160	13.8510
 1.4170	13.7040
 1.4180	13.5670
 1.4190	13.4380
 1.4200	13.3170
 1.4210	13.2070
 1.4220	13.1030
 1.4230	13.0080
 1.4240	12.9190
 1.4250	12.8370
 1.4260	12.7610
 1.4270	12.6890
 1.4280	12.6240
 1.4290	12.5640
 1.4300	12.5090
 1.4310	12.4590
 1.4320	12.4140
 1.4330	12.3720
 1.4340	12.3350
 1.4350	12.3010
 1.4360	12.2710
 1.4370	12.2430
 1.4380	12.2190
 1.4390	12.1990
 1.4400	12.1820
 1.4410	12.1670
 1.4420	12.1560
 1.4430	12.1450
 1.4440	12.1360
 1.4450	12.1290
 1.4460	12.1240
 1.4470	12.1220
 1.4480	12.1210
 1.4490	12.1220
 1.4500	12.1230
 1.4510	12.1250
 1.4520	12.1290
 1.4530	12.1340
 1.4540	12.1410
 1.4550	12.1490
 1.4560	12.1590
 1.4570	12.1700
 1.4580	12.1820
 1.4590	12.1960
 1.4600	12.2130
 1.4610	12.2310
 1.4620	12.2510
 1.4630	12.2740
 1.4640	12.2990
 1.4650	12.3270
 1.4660	12.3590
 1.4670	12.3920
 1.4680	12.4290
 1.4690	12.4680
 1.4700	12.5090
 1.4710	12.5530
 1.4720	12.6010
 1.4730	12.6500
 1.4740	12.7010
 1.4750	12.7550
 1.4760	12.8100
 1.4770	12.8670
 1.4780	12.9260
 1.4790	12.9880
 1.4800	13.0500
 1.4810	13.1130
 1.4820	13.1780
 1.4830	13.2430
 1.4840	13.3100
 1.4850	13.3780
 1.4860	13.4460
 1.4870	13.5160
 1.4880	13.5850
 1.4890	13.6550
 1.4900	13.7270
 1.4910	13.8000
 1.4920	13.8730
 1.4930	13.9470
 1.4940	14.0210
 1.4950	14.0950
 1.4960	14.1700
 1.4970	14.2450
 1.4980	14.3200
 1.4990	14.3960
 1.5000	14.4720
 1.5010	14.5500
 1.5020	14.6270
 1.5030	14.7060
 1.5040	14.7840
 1.5050	14.8620
 1.5060	14.9400
 1.5070	15.0200
 1.5080	15.0980
 1.5090	15.1760
 1.5100	15.2540
 1.5110	15.3310
 1.5120	15.4080
 1.5130	15.4830
 1.5140	15.5590
 1.5150	15.6350
 1.5160	15.7100
 1.5170	15.7860
 1.5180	15.8610
 1.5190	15.9360
 1.5200	16.0110
 1.5210	16.0840
 1.5220	16.1560
 1.5230	16.2280
 1.5240	16.2980
 1.5250	16.3700
 1.5260	16.4430
 1.5270	16.5130
 1.5280	16.5830
 1.5290	16.6520
 1.5300	16.7190
 1.5310	16.7870
 1.5320	16.8530
 1.5330	16.9200
 1.5340	16.9870
 1.5350	17.0530
 1.5360	17.1200
 1.5370	17.1850
 1.5380	17.2510
 1.5390	17.3180
 1.5400	17.3840
 1.5410	17.4490
 1.5420	17.5130
 1.5430	17.5760
 1.5440	17.6390
 1.5450	17.7030
 1.5460	17.7670
 1.5470	17.8300
 1.5480	17.8930
 1.5490	17.9560
 1.5500	18.0190
 1.5510	18.0820
 1.5520	18.1430
 1.5530	18.2040
 1.5540	18.2630
 1.5550	18.3230
 1.5560	18.3820
 1.5570	18.4420
 1.5580	18.5020
 1.5590	18.5600
 1.5600	18.6190
 1.5610	18.6760
 1.5620	18.7340
 1.5630	18.7910
 1.5640	18.8490
 1.5650	18.9070
 1.5660	18.9640
 1.5670	19.0200
 1.5680	19.0750
 1.5690	19.1280
 1.5700	19.1820
 1.5710	19.2360
 1.5720	19.2920
 1.5730	19.3480
 1.5740	19.4040
 1.5750	19.4580
 1.5760	19.5120
 1.5770	19.5640
 1.5780	19.6170
 1.5790	19.6730
 1.5800	19.7280
 1.5810	19.7830
 1.5820	19.8370
 1.5830	19.8910
 1.5840	19.9460
 1.5850	20.0010
 1.5860	20.0570
 1.5870	20.1130
 1.5880	20.1690
 1.5890	20.2260
 1.5900	20.2850
 1.5910	20.3430
 1.5920	20.4000
 1.5930	20.4570
 1.5940	20.5140
 1.5950	20.5700
 1.5960	20.6290
 1.5970	20.6880
 1.5980	20.7470
 1.5990	20.8060
 1.6000	20.8660
 1.6010	20.9260
 1.6020	20.9860
 1.6030	21.0450
 1.6040	21.1030
 1.6050	21.1610
 1.6060	21.2180
 1.6070	21.2760
 1.6080	21.3330
 1.6090	21.3890
 1.6100	21.4460
 1.6110	21.5030
 1.6120	21.5590
 1.6130	21.6140
 1.6140	21.6660
 1.6150	21.7180
 1.6160	21.7690
 1.6170	21.8190
 1.6180	21.8680
 1.6190	21.9180
 1.6200	21.9630
 1.6210	22.0080
 1.6220	22.0530
 1.6230	22.0950
 1.6240	22.1380
 1.6250	22.1800
 1.6260	22.2190
 1.6270	22.2580
 1.6280	22.2930
 1.6290	22.3290
 1.6300	22.3640
 1.6310	22.4000
 1.6320	22.4360
 1.6330	22.4730
 1.6340	22.5110
 1.6350	22.5490
 1.6360	22.5870
 1.6370	22.6240
 1.6380	22.6600
 1.6390	22.6960
 1.6400	22.7310
 1.6410	22.7650
 1.6420	22.7990
 1.6430	22.8280
 1.6440	22.8560
 1.6450	22.8790
 1.6460	22.9000
 1.6470	22.9190
 1.6480	22.9350
 1.6490	22.9490
 1.6500	22.9600
 1.6510	22.9660
 1.6520	22.9700
 1.6530	22.9730
 1.6540	22.9730
 1.6550	22.9710
 1.6560	22.9670
 1.6570	22.9600
 1.6580	22.9500
 1.6590	22.9390
 1.6600	22.9270
 1.6610	22.9160
 1.6620	22.9030
 1.6630	22.8920
 1.6640	22.8800
 1.6650	22.8650
 1.6660	22.8490
 1.6670	22.8340
 1.6680	22.8180
 1.6690	22.8030
 1.6700	22.7870
 1.6710	22.7710
 1.6720	22.7520
 1.6730	22.7340
 1.6740	22.7160
 1.6750	22.6950
 1.6760	22.6720
 1.6770	22.6470
 1.6780	22.6190
 1.6790	22.5880
 1.6800	22.5560
 1.6810	22.5200
 1.6820	22.4800
 1.6830	22.4360
 1.6840	22.3880
 1.6850	22.3360
 1.6860	22.2820
 1.6870	22.2250
 1.6880	22.1670
 1.6890	22.1070
 1.6900	22.0450
 1.6910	21.9810
 1.6920	21.9170
 1.6930	21.8510
 1.6940	21.7870
 1.6950	21.7210
 1.6960	21.6570
 1.6970	21.5940
 1.6980	21.5310
 1.6990	21.4680
 1.7000	21.4050
 1.7010	21.3430
 1.7020	21.2800
 1.7030	21.2160
 1.7040	21.1540
 1.7050	21.0920
 1.7060	21.0310
 1.7070	20.9740
 1.7080	20.9160
 1.7090	20.8570
 1.7100	20.8030
 1.7110	20.7500
 1.7120	20.7000
 1.7130	20.6540
 1.7140	20.6090
 1.7150	20.5660
 1.7160	20.5260
 1.7170	20.4870
 1.7180	20.4500
 1.7190	20.4140
 1.7200	20.3800
 1.7210	20.3470
 1.7220	20.3150
 1.7230	20.2840
 1.7240	20.2540
 1.7250	20.2260
 1.7260	20.2020
 1.7270	20.1800
 1.7280	20.1640
 1.7290	20.1490
 1.7300	20.1370
 1.7310	20.1270
 1.7320	20.1190
 1.7330	20.1100
 1.7340	20.1030
 1.7350	20.0950
 1.7360	20.0880
 1.7370	20.0750
 1.7380	20.0590
 1.7390	20.0390
 1.7400	20.0110
 1.7410	19.9820
 1.7420	19.9490
 1.7430	19.9150
 1.7440	19.8760
 1.7450	19.8360
 1.7460	19.7930
 1.7470	19.7490
 1.7480	19.7040
 1.7490	19.6590
 1.7500	19.6140
 1.7510	19.5700
 1.7520	19.5250
 1.7530	19.4820
 1.7540	19.4420
 1.7550	19.4010
 1.7560	19.3620
 1.7570	19.3250
 1.7580	19.2900
 1.7590	19.2580
 1.7600	19.2270
 1.7610	19.2000
 1.7620	19.1740
 1.7630	19.1510
 1.7640	19.1290
 1.7650	19.1090
 1.7660	19.0890
 1.7670	19.0690
 1.7680	19.0520
 1.7690	19.0360
 1.7700	19.0210
 1.7710	19.0080
 1.7720	18.9940
 1.7730	18.9790
 1.7740	18.9660
 1.7750	18.9530
 1.7760	18.9420
 1.7770	18.9320
 1.7780	18.9240
 1.7790	18.9160
 1.7800	18.9120
 1.7810	18.9100
 1.7820	18.9100
 1.7830	18.9120
 1.7840	18.9140
 1.7850	18.9160
 1.7860	18.9210
 1.7870	18.9250
 1.7880	18.9340
 1.7890	18.9450
 1.7900	18.9540
 1.7910	18.9650
 1.7920	18.9750
 1.7930	18.9880
 1.7940	19.0050
 1.7950	19.0220
 1.7960	19.0410
 1.7970	19.0560
 1.7980	19.0700
 1.7990	19.0840
 1.8000	19.0980
 1.8010	19.1130
 1.8020	19.1320
 1.8030	19.1480
 1.8040	19.1630
 1.8050	19.1790
 1.8060	19.1940
 1.8070	19.2080
 1.8080	19.2230
 1.8090	19.2350
 1.8100	19.2450
 1.8110	19.2580
 1.8120	19.2730
 1.8130	19.2880
 1.8140	19.3010
 1.8150	19.3090
 1.8160	19.3170
 1.8170	19.3260
 1.8180	19.3340
 1.8190	19.3500
 1.8200	19.3610
 1.8210	19.3670
 1.8220	19.3750
 1.8230	19.3800
 1.8240	19.3850
 1.8250	19.3930
 1.8260	19.3980
 1.8270	19.3630
 1.8280	19.3280
 1.8290	19.2930
 1.8300	19.2580
 1.8310	19.2240
 1.8320	19.1890
 1.8330	19.1540
 1.8340	19.1190
 1.8350	19.1190
 1.8360	19.1040
 1.8370	19.0860
 1.8380	19.0630
 1.8390	19.0350
 1.8400	19.0030
 1.8410	18.9690
 1.8420	18.9330
 1.8430	18.8920
 1.8440	18.8500
 1.8450	18.7970
 1.8460	18.7390
 1.8470	18.6770
 1.8480	18.6050
 1.8490	18.5260
 1.8500	18.4410
 1.8510	18.3490
 1.8520	18.2480
 1.8530	18.1440
 1.8540	18.0330
 1.8550	17.9120
 1.8560	17.7830
 1.8570	17.6420
 1.8580	17.4900
 1.8590	17.3320
 1.8600	17.1660
 1.8610	16.9910
 1.8620	16.8030
 1.8630	16.6060
 1.8640	16.3970
 1.8650	16.1750
 1.8660	15.9470
 1.8670	15.7090
 1.8680	15.4590
 1.8690	15.1990
 1.8700	14.9290
 1.8710	14.6490
 1.8720	14.3610
 1.8730	14.0670
 1.8740	13.7660
 1.8750	13.4600
 1.8760	13.1480
 1.8770	12.8330
 1.8780	12.5190
 1.8790	12.2020
 1.8800	11.8910
 1.8810	11.5820
 1.8820	11.2750
 1.8830	10.9660
 1.8840	10.6620
 1.8850	10.3580
 1.8860	10.0590
 1.8870	 9.7720
 1.8880	 9.4920
 1.8890	 9.2230
 1.8900	 8.9660
 1.8910	 8.7210
 1.8920	 8.4850
 1.8930	 8.2630
 1.8940	 8.0540
 1.8950	 7.8540
 1.8960	 7.6650
 1.8970	 7.4870
 1.8980	 7.3220
 1.8990	 7.1700
 1.9000	 7.0290
 1.9010	 6.9010
 1.9020	 6.7820
 1.9030	 6.6740
 1.9040	 6.5760
 1.9050	 6.4870
 1.9060	 6.4060
 1.9070	 6.3330
 1.9080	 6.2650
 1.9090	 6.2000
 1.9100	 6.1440
 1.9110	 6.0930
 1.9120	 6.0470
 1.9130	 6.0070
 1.9140	 5.9760
 1.9150	 5.9470
 1.9160	 5.9170
 1.9170	 5.8920
 1.9180	 5.8700
 1.9190	 5.8490
 1.9200	 5.8310
 1.9210	 5.8160
 1.9220	 5.8020
 1.9230	 5.7860
 1.9240	 5.7760
 1.9250	 5.7690
 1.9260	 5.7640
 1.9270	 5.7610
 1.9280	 5.7590
 1.9290	 5.7580
 1.9300	 5.7580
 1.9310	 5.7610
 1.9320	 5.7640
 1.9330	 5.7700
 1.9340	 5.7790
 1.9350	 5.7870
 1.9360	 5.7960
 1.9370	 5.8070
 1.9380	 5.8200
 1.9390	 5.8320
 1.9400	 5.8450
 1.9410	 5.8620
 1.9420	 5.8780
 1.9430	 5.8930
 1.9440	 5.9100
 1.9450	 5.9270
 1.9460	 5.9450
 1.9470	 5.9660
 1.9480	 5.9850
 1.9490	 6.0040
 1.9500	 6.0260
 1.9510	 6.0480
 1.9520	 6.0690
 1.9530	 6.0940
 1.9540	 6.1200
 1.9550	 6.1470
 1.9560	 6.1760
 1.9570	 6.2030
 1.9580	 6.2300
 1.9590	 6.2570
 1.9600	 6.2830
 1.9610	 6.3090
 1.9620	 6.3350
 1.9630	 6.3640
 1.9640	 6.3940
 1.9650	 6.4230
 1.9660	 6.4550
 1.9670	 6.4870
 1.9680	 6.5180
 1.9690	 6.5490
 1.9700	 6.5820
 1.9710	 6.6180
 1.9720	 6.6520
 1.9730	 6.6870
 1.9740	 6.7210
 1.9750	 6.7550
 1.9760	 6.7880
 1.9770	 6.8250
 1.9780	 6.8600
 1.9790	 6.8960
 1.9800	 6.9310
 1.9810	 6.9680
 1.9820	 7.0050
 1.9830	 7.0420
 1.9840	 7.0810
 1.9850	 7.1190
 1.9860	 7.1540
 1.9870	 7.1920
 1.9880	 7.2320
 1.9890	 7.2710
 1.9900	 7.3120
 1.9910	 7.3540
 1.9920	 7.3950
 1.9930	 7.4330
 1.9940	 7.4730
 1.9950	 7.5130
 1.9960	 7.5520
 1.9970	 7.5880
 1.9980	 7.6270
 1.9990	 7.6650
 2.0000	 7.7020
 2.0010	 7.7400
 2.0020	 7.7810
 2.0030	 7.8190
 2.0040	 7.8560
 2.0050	 7.8930
 2.0060	 7.9290
 2.0070	 7.9660
 2.0080	 8.0050
 2.0090	 8.0430
 2.0100	 8.0840
 2.0110	 8.1210
 2.0120	 8.1560
 2.0130	 8.1910
 2.0140	 8.2240
 2.0150	 8.2560
 2.0160	 8.2890
 2.0170	 8.3230
 2.0180	 8.3570
 2.0190	 8.3910
 2.0200	 8.4230
 2.0210	 8.4540
 2.0220	 8.4850
 2.0230	 8.5140
 2.0240	 8.5440
 2.0250	 8.5770
 2.0260	 8.6050
 2.0270	 8.6310
 2.0280	 8.6570
 2.0290	 8.6820
 2.0300	 8.7060
 2.0310	 8.7310
 2.0320	 8.7580
 2.0330	 8.7830
 2.0340	 8.8060
 2.0350	 8.8280
 2.0360	 8.8480
 2.0370	 8.8690
 2.0380	 8.8870
 2.0390	 8.9060
 2.0400	 8.9240
 2.0410	 8.9420
 2.0420	 8.9600
 2.0430	 8.9790
 2.0440	 8.9960
 2.0450	 9.0120
 2.0460	 9.0270
 2.0470	 9.0380
 2.0480	 9.0520
 2.0490	 9.0680
 2.0500	 9.0810
 2.0510	 9.0920
 2.0520	 9.1060
 2.0530	 9.1200
 2.0540	 9.1350
 2.0550	 9.1520
 2.0560	 9.1690
 2.0570	 9.1810
 2.0580	 9.1940
 2.0590	 9.2080
 2.0600	 9.2220
 2.0610	 9.2370
 2.0620	 9.2560
 2.0630	 9.2720
 2.0640	 9.2870
 2.0650	 9.3020
 2.0660	 9.3130
 2.0670	 9.3280
 2.0680	 9.3450
 2.0690	 9.3610
 2.0700	 9.3790
 2.0710	 9.3960
 2.0720	 9.4120
 2.0730	 9.4250
 2.0740	 9.4410
 2.0750	 9.4590
 2.0760	 9.4730
 2.0770	 9.4860
 2.0780	 9.4990
 2.0790	 9.5100
 2.0800	 9.5240
 2.0810	 9.5400
 2.0820	 9.5540
 2.0830	 9.5690
 2.0840	 9.5830
 2.0850	 9.5990
 2.0860	 9.6140
 2.0870	 9.6280
 2.0880	 9.6430
 2.0890	 9.6590
 2.0900	 9.6760
 2.0910	 9.6900
 2.0920	 9.7040
 2.0930	 9.7190
 2.0940	 9.7310
 2.0950	 9.7470
 2.0960	 9.7670
 2.0970	 9.7850
 2.0980	 9.8010
 2.0990	 9.8180
 2.1000	 9.8340
 2.1010	 9.8510
 2.1020	 9.8690
 2.1030	 9.8870
 2.1040	 9.9050
 2.1050	 9.9270
 2.1060	 9.9460
 2.1070	 9.9640
 2.1080	 9.9830
 2.1090	10.0010
 2.1100	10.0200
 2.1110	10.0390
 2.1120	10.0590
 2.1130	10.0810
 2.1140	10.1000
 2.1150	10.1190
 2.1160	10.1370
 2.1170	10.1480
 2.1180	10.1650
 2.1190	10.1840
 2.1200	10.2040
 2.1210	10.2280
 2.1220	10.2520
 2.1230	10.2730
 2.1240	10.2910
 2.1250	10.3090
 2.1260	10.3250
 2.1270	10.3420
 2.1280	10.3600
 2.1290	10.3770
 2.1300	10.3920
 2.1310	10.4100
 2.1320	10.4290
 2.1330	10.4450
 2.1340	10.4600
 2.1350	10.4780
 2.1360	10.4940
 2.1370	10.5100
 2.1380	10.5310
 2.1390	10.5480
 2.1400	10.5610
 2.1410	10.5780
 2.1420	10.5950
 2.1430	10.6130
 2.1440	10.6320
 2.1450	10.6520
 2.1460	10.6710
 2.1470	10.6880
 2.1480	10.7070
 2.1490	10.7270
 2.1500	10.7470
 2.1510	10.7680
 2.1520	10.7870
 2.1530	10.8040
 2.1540	10.8210
 2.1550	10.8380
 2.1560	10.8540
 2.1570	10.8680
 2.1580	10.8850
 2.1590	10.9010
 2.1600	10.9190
 2.1610	10.9390
 2.1620	10.9570
 2.1630	10.9750
 2.1640	10.9910
 2.1650	11.0100
 2.1660	11.0310
 2.1670	11.0500
 2.1680	11.0710
 2.1690	11.0890
 2.1700	11.1040
 2.1710	11.1220
 2.1720	11.1370
 2.1730	11.1560
 2.1740	11.1770
 2.1750	11.1980
 2.1760	11.2200
 2.1770	11.2400
 2.1780	11.2630
 2.1790	11.2820
 2.1800	11.2980
 2.1810	11.3150
 2.1820	11.3310
 2.1830	11.3450
 2.1840	11.3640
 2.1850	11.3860
 2.1860	11.4060
 2.1870	11.4270
 2.1880	11.4480
 2.1890	11.4700
 2.1900	11.4900
 2.1910	11.5110
 2.1920	11.5300
 2.1930	11.5440
 2.1940	11.5610
 2.1950	11.5740
 2.1960	11.5900
 2.1970	11.6110
 2.1980	11.6270
 2.1990	11.6450
 2.2000	11.6600
 2.2010	11.6680
 2.2020	11.6790
 2.2030	11.6890
 2.2040	11.6990
 2.2050	11.7070
 2.2060	11.7200
 2.2070	11.7300
 2.2080	11.7370
 2.2090	11.7480
 2.2100	11.7590
 2.2110	11.7690
 2.2120	11.7810
 2.2130	11.7890
 2.2140	11.7940
 2.2150	11.7980
 2.2160	11.8010
 2.2170	11.8020
 2.2180	11.8000
 2.2190	11.7990
 2.2200	11.7990
 2.2210	11.7960
 2.2220	11.7920
 2.2230	11.7850
 2.2240	11.7720
 2.2250	11.7590
 2.2260	11.7470
 2.2270	11.7300
 2.2280	11.7090
 2.2290	11.6880
 2.2300	11.6660
 2.2310	11.6390
 2.2320	11.6160
 2.2330	11.5950
 2.2340	11.5690
 2.2350	11.5410
 2.2360	11.5090
 2.2370	11.4710
 2.2380	11.4320
 2.2390	11.3890
 2.2400	11.3490
 2.2410	11.3110
 2.2420	11.2680
 2.2430	11.2250
 2.2440	11.1790
 2.2450	11.1270
 2.2460	11.0760
 2.2470	11.0250
 2.2480	10.9710
 2.2490	10.9150
 2.2500	10.8570
 2.2510	10.7960
 2.2520	10.7350
 2.2530	10.6740
 2.2540	10.6120
 2.2550	10.5480
 2.2560	10.4870
 2.2570	10.4310
 2.2580	10.3700
 2.2590	10.3080
 2.2600	10.2490
 2.2610	10.1870
 2.2620	10.1280
 2.2630	10.0770
 2.2640	10.0260
 2.2650	 9.9720
 2.2660	 9.9160
 2.2670	 9.8650
 2.2680	 9.8130
 2.2690	 9.7680
 2.2700	 9.7290
 2.2710	 9.6920
 2.2720	 9.6600
 2.2730	 9.6270
 2.2740	 9.5980
 2.2750	 9.5690
 2.2760	 9.5390
 2.2770	 9.5110
 2.2780	 9.4870
 2.2790	 9.4610
 2.2800	 9.4350
 2.2810	 9.4130
 2.2820	 9.3960
 2.2830	 9.3770
 2.2840	 9.3640
 2.2850	 9.3450
 2.2860	 9.3210
 2.2870	 9.2990
 2.2880	 9.2740
 2.2890	 9.2520
 2.2900	 9.2370
 2.2910	 9.2130
 2.2920	 9.1860
 2.2930	 9.1570
 2.2940	 9.1210
 2.2950	 9.0850
 2.2960	 9.0480
 2.2970	 9.0130
 2.2980	 8.9770
 2.2990	 8.9420
 2.3000	 8.9090
 2.3010	 8.8790
 2.3020	 8.8530
 2.3030	 8.8210
 2.3040	 8.7810
 2.3050	 8.7500
 2.3060	 8.7190
 2.3070	 8.6930
 2.3080	 8.6800
 2.3090	 8.6720
 2.3100	 8.6660
 2.3110	 8.6660
 2.3120	 8.6640
 2.3130	 8.6670
 2.3140	 8.6650
 2.3150	 8.6590
 2.3160	 8.6620
 2.3170	 8.6690
 2.3180	 8.6750
 2.3190	 8.6910
 2.3200	 8.6920
 2.3210	 8.6870
 2.3220	 8.6800
 2.3230	 8.6640
 2.3240	 8.6560
 2.3250	 8.6530
 2.3260	 8.6450
 2.3270	 8.6400
 2.3280	 8.6280
 2.3290	 8.6050
 2.3300	 8.5850
 2.3310	 8.5620
 2.3320	 8.5430
 2.3330	 8.5260
 2.3340	 8.5100
 2.3350	 8.5010
 2.3360	 8.4830
 2.3370	 8.4610
 2.3380	 8.4390
 2.3390	 8.4090
 2.3400	 8.3880
 2.3410	 8.3730
 2.3420	 8.3560
 2.3430	 8.3460
 2.3440	 8.3300
 2.3450	 8.3120
 2.3460	 8.2950
 2.3470	 8.2810
 2.3480	 8.2620
 2.3490	 8.2380
 2.3500	 8.2210
 2.3510	 8.2010
 2.3520	 8.1880
 2.3530	 8.1810
 2.3540	 8.1790
 2.3550	 8.1810
 2.3560	 8.1810
 2.3570	 8.1770
 2.3580	 8.1710
 2.3590	 8.1600
 2.3600	 8.1490
 2.3610	 8.1430
 2.3620	 8.1370
 2.3630	 8.1250
 2.3640	 8.1130
 2.3650	 8.0980
 2.3660	 8.0810
 2.3670	 8.0670
 2.3680	 8.0490
 2.3690	 8.0310
 2.3700	 8.0190
 2.3710	 8.0030
 2.3720	 7.9900
 2.3730	 7.9740
 2.3740	 7.9530
 2.3750	 7.9380
 2.3760	 7.9210
 2.3770	 7.9060
 2.3780	 7.8920
 2.3790	 7.8780
 2.3800	 7.8620
 2.3810	 7.8370
 2.3820	 7.8190
 2.3830	 7.8010
 2.3840	 7.7780
 2.3850	 7.7690
 2.3860	 7.7590
 2.3870	 7.7470
 2.3880	 7.7420
 2.3890	 7.7270
 2.3900	 7.7100
 2.3910	 7.6930
 2.3920	 7.6670
 2.3930	 7.6510
 2.3940	 7.6340
 2.3950	 7.6170
 2.3960	 7.6100
 2.3970	 7.5890
 2.3980	 7.5740
 2.3990	 7.5710
 2.4000	 7.5520
 2.4010	 7.5440
 2.4020	 7.5340
 2.4030	 7.5080
 2.4040	 7.4950
 2.4050	 7.4760
 2.4060	 7.4490
 2.4070	 7.4360
 2.4080	 7.4150
 2.4090	 7.3930
 2.4100	 7.3910
 2.4110	 7.3780
 2.4120	 7.3500
 2.4130	 7.3300
 2.4140	 7.3020
 2.4150	 7.2750
 2.4160	 7.2520
 2.4170	 7.2190
 2.4180	 7.1930
 2.4190	 7.1630
 2.4200	 7.1310
 2.4210	 7.1240
 2.4220	 7.1060
 2.4230	 7.0740
 2.4240	 7.0590
 2.4250	 7.0290
 2.4260	 7.0030
 2.4270	 6.9880
 2.4280	 6.9660
 2.4290	 6.9520
 2.4300	 6.9460
 2.4310	 6.9300
 2.4320	 6.9080
 2.4330	 6.8860
 2.4340	 6.8510
 2.4350	 6.8190
 2.4360	 6.8020
 2.4370	 6.7760
 2.4380	 6.7480
 2.4390	 6.7370
 2.4400	 6.7220
 2.4410	 6.7020
 2.4420	 6.6850
 2.4430	 6.6650
 2.4440	 6.6460
 2.4450	 6.6140
 2.4460	 6.5870
 2.4470	 6.5650
 2.4480	 6.5250
 2.4490	 6.4940
 2.4500	 6.4720
 2.4510	 6.4370
 2.4520	 6.4170
 2.4530	 6.4170
 2.4540	 6.3980
 2.4550	 6.3750
 2.4560	 6.3510
 2.4570	 6.3130
 2.4580	 6.2940
 2.4590	 6.2840
 2.4600	 6.2760
 2.4610	 6.2730
 2.4620	 6.2650
 2.4630	 6.2540
 2.4640	 6.2190
 2.4650	 6.1890
 2.4660	 6.1670
 2.4670	 6.1350
 2.4680	 6.1200
 2.4690	 6.1300
 2.4700	 6.1270
 2.4710	 6.1330
 2.4720	 6.1260
 2.4730	 6.1070
 2.4740	 6.0870
 2.4750	 6.0660
 2.4760	 6.0510
 2.4770	 6.0280
 2.4780	 6.0000
 2.4790	 5.9750
 2.4800	 5.9390
 2.4810	 5.8830
 2.4820	 5.8600
 2.4830	 5.8750
 2.4840	 5.8990
 2.4850	 5.9200
 2.4860	 5.9500
 2.4870	 5.9430
 2.4880	 5.9420
 2.4890	 5.9440
 2.4900	 5.8990
 2.4910	 5.8680
 2.4920	 5.8320
 2.4930	 5.7990
 2.4940	 5.8150
 2.4950	 5.8150
 2.4960	 5.8040
 2.4970	 5.8110
 2.4980	 5.8050
 2.4990	 5.7910
 2.5000	 5.8160
