Name: Ceanothus spinosus 1
Type: vegetation
Class: Shrub
Genus: Ceanothus
Species: spinosus
Sample No.: VH008
Owner: UCSB
Wavelength Range: TIR
Origin: 34.4906; -119.7908; WGS84
Collection Date: 4/1/2013
Description: Samples were collected as part of the HyspIRI Airborne Campaign. 48 individual plants were sampled in three times in 2013 - spring  summer  and fall. The name of the sample includes a 1  2  or 3 which references a different individual of the species. Samples were taken to JPL and processed within 48 hours of collection. The same leaves were processed in the Nicolet and then measured using the ASD.
Measurement: Hemispherical reflectance
First Column: X
Second Column: Y
X Units: Wavelength (micrometers)
Y Units: Reflectance (percentage)
First X Value: 2.501
Last X Value: 15.387
Number of X Values: 1737
Additional Information: vegetation.shrub.ceanothus.spinosus.tir.vh008.ucsb.nicolet.ancillary.txt

 2.5010	 8.4690
 2.5030	 8.3550
 2.5040	 8.2370
 2.5050	 8.1910
 2.5060	 8.3150
 2.5070	 8.3110
 2.5090	 8.3130
 2.5100	 8.2860
 2.5110	 8.1960
 2.5120	 8.1440
 2.5140	 8.2160
 2.5150	 8.1430
 2.5160	 8.1150
 2.5170	 8.0350
 2.5180	 8.1490
 2.5200	 8.2320
 2.5210	 8.4180
 2.5220	 8.4450
 2.5230	 8.4050
 2.5250	 8.2290
 2.5260	 8.2310
 2.5270	 8.3900
 2.5280	 8.3430
 2.5290	 8.1960
 2.5310	 8.1320
 2.5320	 7.9630
 2.5330	 7.9820
 2.5340	 7.9740
 2.5360	 8.0420
 2.5370	 8.1070
 2.5380	 8.1040
 2.5390	 8.1020
 2.5410	 8.0090
 2.5420	 7.9960
 2.5430	 8.1900
 2.5440	 8.1570
 2.5460	 8.1040
 2.5470	 8.0130
 2.5480	 8.0700
 2.5490	 7.9720
 2.5510	 8.0340
 2.5520	 8.1640
 2.5530	 8.2440
 2.5540	 8.2230
 2.5560	 8.2950
 2.5570	 8.2390
 2.5580	 8.2020
 2.5590	 8.2160
 2.5610	 8.1950
 2.5620	 8.0650
 2.5630	 8.0420
 2.5640	 7.9970
 2.5660	 8.1130
 2.5670	 8.1610
 2.5680	 8.2110
 2.5700	 8.1770
 2.5710	 8.2080
 2.5720	 8.1390
 2.5730	 8.1220
 2.5750	 8.0600
 2.5760	 8.2050
 2.5770	 8.1250
 2.5790	 8.0730
 2.5800	 8.1610
 2.5810	 8.1520
 2.5820	 8.0550
 2.5840	 8.1530
 2.5850	 7.9640
 2.5860	 7.9180
 2.5880	 7.8900
 2.5890	 7.9680
 2.5900	 8.0080
 2.5910	 8.0470
 2.5930	 8.1590
 2.5940	 8.1490
 2.5950	 7.9390
 2.5970	 7.9650
 2.5980	 8.0270
 2.5990	 8.0380
 2.6000	 8.0610
 2.6020	 8.0600
 2.6030	 7.9370
 2.6040	 7.8970
 2.6060	 7.8180
 2.6070	 7.9300
 2.6080	 7.9790
 2.6100	 8.0010
 2.6110	 7.9930
 2.6120	 8.0320
 2.6140	 7.9410
 2.6150	 7.8500
 2.6160	 7.8220
 2.6180	 7.9090
 2.6190	 7.8730
 2.6200	 7.8980
 2.6220	 7.8870
 2.6230	 8.0130
 2.6240	 7.9200
 2.6260	 7.7960
 2.6270	 7.6860
 2.6280	 7.6250
 2.6300	 7.6450
 2.6310	 7.6780
 2.6320	 7.6440
 2.6340	 7.6740
 2.6350	 7.6620
 2.6360	 7.6520
 2.6380	 7.5360
 2.6390	 7.5390
 2.6400	 7.5580
 2.6420	 7.5940
 2.6430	 7.5150
 2.6440	 7.5600
 2.6460	 7.5810
 2.6470	 7.4570
 2.6480	 7.3900
 2.6500	 7.5350
 2.6510	 7.4730
 2.6520	 7.5190
 2.6540	 7.5160
 2.6550	 7.6130
 2.6560	 7.6060
 2.6580	 7.6030
 2.6590	 7.5840
 2.6610	 7.6210
 2.6620	 7.6530
 2.6630	 7.5930
 2.6650	 7.5120
 2.6660	 7.5030
 2.6670	 7.3670
 2.6690	 7.3540
 2.6700	 7.3700
 2.6720	 7.3700
 2.6730	 7.3200
 2.6740	 7.3730
 2.6760	 7.3890
 2.6770	 7.3410
 2.6780	 7.2850
 2.6800	 7.2950
 2.6810	 7.2350
 2.6830	 7.3640
 2.6840	 7.3690
 2.6850	 7.4630
 2.6870	 7.4740
 2.6880	 7.4320
 2.6900	 7.2770
 2.6910	 7.2150
 2.6920	 7.3440
 2.6940	 7.4330
 2.6950	 7.3150
 2.6970	 7.2410
 2.6980	 7.1760
 2.6990	 7.3000
 2.7010	 7.2580
 2.7020	 7.1660
 2.7040	 7.1850
 2.7050	 7.2950
 2.7060	 7.2170
 2.7080	 7.2500
 2.7090	 7.3160
 2.7110	 7.3250
 2.7120	 7.1460
 2.7130	 7.1630
 2.7150	 7.2010
 2.7160	 7.2480
 2.7180	 7.1760
 2.7190	 7.1600
 2.7210	 7.2380
 2.7220	 7.2020
 2.7230	 7.1410
 2.7250	 7.2420
 2.7260	 7.3430
 2.7280	 7.3990
 2.7290	 7.3920
 2.7310	 7.4160
 2.7320	 7.4370
 2.7330	 7.4460
 2.7350	 7.3080
 2.7360	 7.2540
 2.7380	 7.2870
 2.7390	 7.3450
 2.7410	 7.2130
 2.7420	 7.3360
 2.7440	 7.4580
 2.7450	 7.3060
 2.7470	 7.0850
 2.7480	 7.2960
 2.7490	 7.2790
 2.7510	 7.2820
 2.7520	 7.3070
 2.7540	 7.3430
 2.7550	 7.2630
 2.7570	 7.2640
 2.7580	 7.2020
 2.7600	 7.3650
 2.7610	 7.4940
 2.7630	 7.4750
 2.7640	 7.3490
 2.7660	 7.4140
 2.7670	 7.3610
 2.7680	 7.3390
 2.7700	 7.3520
 2.7710	 7.2920
 2.7730	 7.2360
 2.7740	 7.3080
 2.7760	 7.3190
 2.7770	 7.2290
 2.7790	 7.3900
 2.7800	 7.5690
 2.7820	 7.5410
 2.7830	 7.6480
 2.7850	 7.3640
 2.7860	 7.0820
 2.7880	 7.2030
 2.7890	 7.4300
 2.7910	 7.3390
 2.7920	 7.3910
 2.7940	 7.4950
 2.7950	 7.5350
 2.7970	 7.3960
 2.7980	 7.6060
 2.8000	 7.5220
 2.8010	 7.4190
 2.8030	 7.3220
 2.8040	 7.2450
 2.8060	 7.4280
 2.8070	 7.6190
 2.8090	 7.4030
 2.8110	 7.4050
 2.8120	 7.5540
 2.8140	 7.5790
 2.8150	 7.4250
 2.8170	 7.4730
 2.8180	 7.4720
 2.8200	 7.4960
 2.8210	 7.5060
 2.8230	 7.6800
 2.8240	 7.7070
 2.8260	 7.6210
 2.8270	 7.4590
 2.8290	 7.4220
 2.8300	 7.5130
 2.8320	 7.7650
 2.8340	 7.6780
 2.8350	 7.7250
 2.8370	 7.7600
 2.8380	 7.5440
 2.8400	 7.2340
 2.8410	 7.3620
 2.8430	 7.5570
 2.8440	 7.5850
 2.8460	 7.5060
 2.8480	 7.5680
 2.8490	 7.5540
 2.8510	 7.6590
 2.8520	 7.5580
 2.8540	 7.5000
 2.8550	 7.5110
 2.8570	 7.5090
 2.8590	 7.4710
 2.8600	 7.6070
 2.8620	 7.6900
 2.8630	 7.7910
 2.8650	 7.7860
 2.8660	 7.7600
 2.8680	 7.6500
 2.8700	 7.7870
 2.8710	 7.6740
 2.8730	 7.6340
 2.8740	 7.6860
 2.8760	 7.7160
 2.8780	 7.6610
 2.8790	 7.7980
 2.8810	 7.7670
 2.8820	 7.8430
 2.8840	 7.8580
 2.8860	 7.9870
 2.8870	 8.0000
 2.8890	 7.9200
 2.8900	 7.7910
 2.8920	 7.6210
 2.8940	 7.3780
 2.8950	 7.5850
 2.8970	 7.7470
 2.8980	 7.8190
 2.9000	 7.8630
 2.9020	 7.9070
 2.9030	 7.8390
 2.9050	 7.8530
 2.9070	 7.8430
 2.9080	 7.7590
 2.9100	 7.8490
 2.9120	 8.1130
 2.9130	 8.1080
 2.9150	 8.0840
 2.9160	 7.8710
 2.9180	 7.8770
 2.9200	 7.9300
 2.9210	 7.9660
 2.9230	 7.9370
 2.9250	 7.9180
 2.9260	 7.9040
 2.9280	 8.0100
 2.9300	 7.9860
 2.9310	 7.9680
 2.9330	 7.6920
 2.9350	 7.6680
 2.9360	 7.8780
 2.9380	 8.1220
 2.9400	 8.1000
 2.9410	 8.1010
 2.9430	 7.9290
 2.9450	 7.7930
 2.9460	 7.8230
 2.9480	 7.8830
 2.9500	 7.6660
 2.9510	 7.9060
 2.9530	 8.2870
 2.9550	 8.4870
 2.9560	 8.3460
 2.9580	 8.3270
 2.9600	 8.3070
 2.9610	 8.5790
 2.9630	 8.3520
 2.9650	 8.4360
 2.9660	 8.5210
 2.9680	 8.3160
 2.9700	 8.0320
 2.9720	 7.7940
 2.9730	 7.7770
 2.9750	 8.3220
 2.9770	 8.4500
 2.9780	 8.7540
 2.9800	 8.9790
 2.9820	 8.7220
 2.9840	 8.5180
 2.9850	 7.7420
 2.9870	 7.3340
 2.9890	 7.6220
 2.9900	 8.1620
 2.9920	 8.3770
 2.9940	 8.0490
 2.9960	 7.7230
 2.9970	 7.8660
 2.9990	 8.1470
 3.0010	 7.7170
 3.0030	 7.8180
 3.0040	 7.9560
 3.0060	 8.0330
 3.0080	 7.9450
 3.0100	 8.0640
 3.0110	 8.1830
 3.0130	 8.2250
 3.0150	 8.1930
 3.0170	 8.0610
 3.0180	 8.4090
 3.0200	 8.7090
 3.0220	 7.7140
 3.0240	 7.5610
 3.0250	 7.6800
 3.0270	 7.9120
 3.0290	 7.5570
 3.0310	 7.0550
 3.0320	 7.0860
 3.0340	 8.1470
 3.0360	 8.4470
 3.0380	 7.9180
 3.0400	 8.7530
 3.0410	 9.0740
 3.0430	 8.6990
 3.0450	 8.1720
 3.0470	 8.2340
 3.0480	 8.4510
 3.0500	 8.1230
 3.0520	 7.9590
 3.0540	 7.8140
 3.0560	 8.3660
 3.0570	 7.7220
 3.0590	 7.1170
 3.0610	 7.7260
 3.0630	 8.1680
 3.0650	 7.9380
 3.0660	 8.0680
 3.0680	 7.7970
 3.0700	 7.8550
 3.0720	 8.3480
 3.0740	 8.2050
 3.0760	 8.0260
 3.0770	 7.6380
 3.0790	 7.3740
 3.0810	 7.4630
 3.0830	 7.4360
 3.0850	 8.1800
 3.0870	 8.6090
 3.0880	 8.2240
 3.0900	 7.9340
 3.0920	 8.0370
 3.0940	 8.2870
 3.0960	 8.3380
 3.0980	 7.4250
 3.0990	 6.9910
 3.1010	 7.2800
 3.1030	 7.5850
 3.1050	 7.6050
 3.1070	 7.6230
 3.1090	 7.7760
 3.1110	 7.8000
 3.1120	 7.5700
 3.1140	 7.5170
 3.1160	 7.6170
 3.1180	 7.7850
 3.1200	 7.8470
 3.1220	 7.7930
 3.1240	 7.4920
 3.1260	 7.6020
 3.1270	 7.7600
 3.1290	 7.7800
 3.1310	 7.5940
 3.1330	 7.7270
 3.1350	 7.7580
 3.1370	 7.8120
 3.1390	 7.5630
 3.1410	 7.4170
 3.1430	 7.0880
 3.1450	 7.0090
 3.1460	 7.1650
 3.1480	 7.4290
 3.1500	 7.7830
 3.1520	 7.9360
 3.1540	 7.8600
 3.1560	 8.5580
 3.1580	 9.0500
 3.1600	 9.3570
 3.1620	 8.2550
 3.1640	 7.7820
 3.1660	 8.1370
 3.1680	 7.8360
 3.1700	 8.2330
 3.1710	 8.2180
 3.1730	 7.3120
 3.1750	 7.3000
 3.1770	 7.2410
 3.1790	 7.1370
 3.1810	 7.6220
 3.1830	 8.5130
 3.1850	 9.0090
 3.1870	 8.4230
 3.1890	 7.9010
 3.1910	 7.6460
 3.1930	 7.6140
 3.1950	 7.5010
 3.1970	 7.4290
 3.1990	 7.2820
 3.2010	 7.4540
 3.2030	 7.4990
 3.2050	 7.5600
 3.2070	 7.4740
 3.2090	 7.3540
 3.2110	 7.3180
 3.2130	 7.3610
 3.2150	 7.3890
 3.2170	 7.3750
 3.2190	 7.5210
 3.2210	 7.5820
 3.2230	 7.4380
 3.2250	 7.2870
 3.2270	 7.4070
 3.2290	 7.5870
 3.2310	 7.6020
 3.2330	 7.4940
 3.2350	 7.4390
 3.2370	 7.4370
 3.2390	 7.5660
 3.2410	 7.4190
 3.2430	 7.2650
 3.2450	 7.2770
 3.2470	 7.4400
 3.2490	 7.6420
 3.2510	 7.4320
 3.2530	 7.1800
 3.2550	 7.3120
 3.2570	 7.3650
 3.2590	 7.3750
 3.2610	 7.4180
 3.2630	 7.3310
 3.2650	 7.1040
 3.2670	 7.0170
 3.2690	 7.1480
 3.2720	 7.2930
 3.2740	 7.2860
 3.2760	 7.2580
 3.2780	 7.2530
 3.2800	 7.2660
 3.2820	 7.2820
 3.2840	 7.3140
 3.2860	 7.3280
 3.2880	 7.2610
 3.2900	 7.1720
 3.2920	 7.2350
 3.2940	 7.2600
 3.2960	 7.2640
 3.2990	 7.1860
 3.3010	 7.1850
 3.3030	 7.2250
 3.3050	 7.1880
 3.3070	 7.1330
 3.3090	 7.2520
 3.3110	 7.2140
 3.3130	 7.1860
 3.3150	 7.1970
 3.3180	 7.1970
 3.3200	 7.1160
 3.3220	 7.1340
 3.3240	 7.0820
 3.3260	 7.0760
 3.3280	 7.0020
 3.3300	 6.9670
 3.3330	 7.1330
 3.3350	 7.0200
 3.3370	 6.8120
 3.3390	 6.9280
 3.3410	 7.1130
 3.3430	 7.1380
 3.3450	 6.9740
 3.3480	 6.7640
 3.3500	 6.6990
 3.3520	 6.8860
 3.3540	 7.0180
 3.3560	 7.0740
 3.3580	 6.9400
 3.3610	 6.7790
 3.3630	 6.7870
 3.3650	 6.8190
 3.3670	 6.7730
 3.3690	 6.7250
 3.3720	 6.7200
 3.3740	 6.8330
 3.3760	 6.8140
 3.3780	 6.7700
 3.3800	 6.7850
 3.3830	 6.9310
 3.3850	 6.9490
 3.3870	 6.7530
 3.3890	 6.6430
 3.3910	 6.6870
 3.3940	 6.6550
 3.3960	 6.6180
 3.3980	 6.6670
 3.4000	 6.7120
 3.4020	 6.7300
 3.4050	 6.8780
 3.4070	 6.9240
 3.4090	 7.1540
 3.4110	 7.2170
 3.4140	 7.4070
 3.4160	 7.7820
 3.4180	 8.2540
 3.4200	 8.7290
 3.4230	 9.2780
 3.4250	 9.9380
 3.4270	10.5820
 3.4290	10.8580
 3.4320	10.5460
 3.4340	 9.8410
 3.4360	 9.2070
 3.4390	 8.8640
 3.4410	 8.6520
 3.4430	 8.4050
 3.4450	 8.2500
 3.4480	 8.1760
 3.4500	 8.0960
 3.4520	 8.1630
 3.4550	 8.2370
 3.4570	 8.2250
 3.4590	 8.2320
 3.4620	 8.0630
 3.4640	 8.0480
 3.4660	 8.0250
 3.4680	 7.9690
 3.4710	 7.8100
 3.4730	 7.7580
 3.4750	 7.7200
 3.4780	 7.6930
 3.4800	 7.6640
 3.4820	 7.6580
 3.4850	 7.6230
 3.4870	 7.5550
 3.4890	 7.4420
 3.4920	 7.4290
 3.4940	 7.4060
 3.4970	 7.4830
 3.4990	 7.5710
 3.5010	 7.7720
 3.5040	 8.1050
 3.5060	 8.7180
 3.5080	 9.6260
 3.5110	10.2860
 3.5130	10.0110
 3.5160	 9.4220
 3.5180	 8.9700
 3.5200	 8.6470
 3.5230	 8.4530
 3.5250	 8.4400
 3.5270	 8.2820
 3.5300	 8.1190
 3.5320	 8.0650
 3.5350	 8.1110
 3.5370	 8.0140
 3.5400	 7.9530
 3.5420	 7.8970
 3.5440	 7.8350
 3.5470	 7.7810
 3.5490	 7.8580
 3.5520	 7.8860
 3.5540	 7.8090
 3.5570	 7.7860
 3.5590	 7.8590
 3.5610	 7.8960
 3.5640	 7.8230
 3.5660	 7.7780
 3.5690	 7.8290
 3.5710	 7.6080
 3.5740	 7.5480
 3.5760	 7.5410
 3.5790	 7.5290
 3.5810	 7.6110
 3.5840	 7.6780
 3.5860	 7.6570
 3.5890	 7.5940
 3.5910	 7.6450
 3.5930	 7.7630
 3.5960	 7.8280
 3.5980	 7.8770
 3.6010	 7.8860
 3.6030	 7.8420
 3.6060	 7.6840
 3.6080	 7.7540
 3.6110	 7.7470
 3.6140	 7.6410
 3.6160	 7.6130
 3.6190	 7.5910
 3.6210	 7.5400
 3.6240	 7.6100
 3.6260	 7.6540
 3.6290	 7.6570
 3.6310	 7.6340
 3.6340	 7.6570
 3.6360	 7.6970
 3.6390	 7.6650
 3.6410	 7.5610
 3.6440	 7.5430
 3.6470	 7.5250
 3.6490	 7.5110
 3.6520	 7.5590
 3.6540	 7.5210
 3.6570	 7.5020
 3.6590	 7.5570
 3.6620	 7.5690
 3.6650	 7.5490
 3.6670	 7.5780
 3.6700	 7.6220
 3.6720	 7.5670
 3.6750	 7.5710
 3.6780	 7.5310
 3.6800	 7.5180
 3.6830	 7.5560
 3.6850	 7.5660
 3.6880	 7.5770
 3.6910	 7.5740
 3.6930	 7.5270
 3.6960	 7.5310
 3.6990	 7.5270
 3.7010	 7.5490
 3.7040	 7.5470
 3.7060	 7.5760
 3.7090	 7.5690
 3.7120	 7.5280
 3.7140	 7.5120
 3.7170	 7.5510
 3.7200	 7.4510
 3.7220	 7.4440
 3.7250	 7.5140
 3.7280	 7.5730
 3.7300	 7.5860
 3.7330	 7.4410
 3.7360	 7.3910
 3.7390	 7.4540
 3.7410	 7.4240
 3.7440	 7.5010
 3.7470	 7.5310
 3.7490	 7.4940
 3.7520	 7.5180
 3.7550	 7.4870
 3.7580	 7.4580
 3.7600	 7.5360
 3.7630	 7.5140
 3.7660	 7.5110
 3.7680	 7.4600
 3.7710	 7.4540
 3.7740	 7.4330
 3.7770	 7.4470
 3.7790	 7.4730
 3.7820	 7.5710
 3.7850	 7.5780
 3.7880	 7.4560
 3.7900	 7.4100
 3.7930	 7.4460
 3.7960	 7.4080
 3.7990	 7.4450
 3.8020	 7.5040
 3.8040	 7.5140
 3.8070	 7.5170
 3.8100	 7.5750
 3.8130	 7.5310
 3.8160	 7.5530
 3.8180	 7.5740
 3.8210	 7.5690
 3.8240	 7.5670
 3.8270	 7.4990
 3.8300	 7.4480
 3.8330	 7.4560
 3.8350	 7.4840
 3.8380	 7.5290
 3.8410	 7.5140
 3.8440	 7.5370
 3.8470	 7.5590
 3.8500	 7.5690
 3.8520	 7.5240
 3.8550	 7.5130
 3.8580	 7.5130
 3.8610	 7.4760
 3.8640	 7.4620
 3.8670	 7.5240
 3.8700	 7.5290
 3.8730	 7.4740
 3.8750	 7.4560
 3.8780	 7.4580
 3.8810	 7.4290
 3.8840	 7.4450
 3.8870	 7.4860
 3.8900	 7.5400
 3.8930	 7.6110
 3.8960	 7.5730
 3.8990	 7.4530
 3.9020	 7.4380
 3.9050	 7.4350
 3.9080	 7.4820
 3.9110	 7.5260
 3.9140	 7.5560
 3.9160	 7.5320
 3.9190	 7.4680
 3.9220	 7.4830
 3.9250	 7.5640
 3.9280	 7.4660
 3.9310	 7.4480
 3.9340	 7.4800
 3.9370	 7.4700
 3.9400	 7.4340
 3.9430	 7.5060
 3.9460	 7.5520
 3.9490	 7.4720
 3.9520	 7.4220
 3.9550	 7.4490
 3.9580	 7.4610
 3.9610	 7.4530
 3.9640	 7.4560
 3.9670	 7.4810
 3.9700	 7.4050
 3.9730	 7.4430
 3.9770	 7.4870
 3.9800	 7.4740
 3.9830	 7.4740
 3.9860	 7.4620
 3.9890	 7.4490
 3.9920	 7.5610
 3.9950	 7.5660
 3.9980	 7.5310
 4.0010	 7.4840
 4.0040	 7.5180
 4.0070	 7.4840
 4.0100	 7.5030
 4.0130	 7.4760
 4.0170	 7.4140
 4.0200	 7.3890
 4.0230	 7.4870
 4.0260	 7.5970
 4.0290	 7.5320
 4.0320	 7.4310
 4.0350	 7.4130
 4.0380	 7.4420
 4.0420	 7.4480
 4.0450	 7.4650
 4.0480	 7.5650
 4.0510	 7.5520
 4.0540	 7.4340
 4.0570	 7.4170
 4.0610	 7.4540
 4.0640	 7.5220
 4.0670	 7.5600
 4.0700	 7.5910
 4.0730	 7.5850
 4.0770	 7.4920
 4.0800	 7.3620
 4.0830	 7.2910
 4.0860	 7.4110
 4.0890	 7.4490
 4.0930	 7.4990
 4.0960	 7.5940
 4.0990	 7.6190
 4.1020	 7.5220
 4.1060	 7.5070
 4.1090	 7.5540
 4.1120	 7.4560
 4.1150	 7.4210
 4.1190	 7.4820
 4.1220	 7.4940
 4.1250	 7.4850
 4.1280	 7.3780
 4.1320	 7.4140
 4.1350	 7.4930
 4.1380	 7.4660
 4.1420	 7.4140
 4.1450	 7.4250
 4.1480	 7.4220
 4.1520	 7.4360
 4.1550	 7.4120
 4.1580	 7.3800
 4.1620	 7.3670
 4.1650	 7.4130
 4.1680	 7.4560
 4.1720	 7.4050
 4.1750	 7.3530
 4.1780	 7.4070
 4.1820	 7.4840
 4.1850	 7.4760
 4.1890	 7.4530
 4.1920	 7.4780
 4.1950	 7.5680
 4.1990	 7.6060
 4.2020	 7.5830
 4.2060	 7.5750
 4.2090	 7.5330
 4.2120	 7.4350
 4.2160	 7.3470
 4.2190	 7.5390
 4.2230	 7.8230
 4.2260	 7.8870
 4.2300	 7.7820
 4.2330	 7.6110
 4.2360	 7.3180
 4.2400	 7.2830
 4.2430	 7.3530
 4.2470	 7.4970
 4.2500	 7.3600
 4.2540	 7.1580
 4.2570	 7.2980
 4.2610	 7.6020
 4.2640	 7.6530
 4.2680	 7.4310
 4.2710	 7.1950
 4.2750	 7.1160
 4.2780	 7.4040
 4.2820	 7.5510
 4.2850	 7.5250
 4.2890	 7.4750
 4.2930	 7.5410
 4.2960	 7.4780
 4.3000	 7.2690
 4.3030	 7.2740
 4.3070	 7.3800
 4.3100	 7.3730
 4.3140	 7.3050
 4.3180	 7.3440
 4.3210	 7.4040
 4.3250	 7.4200
 4.3280	 7.4270
 4.3320	 7.4040
 4.3360	 7.4600
 4.3390	 7.4950
 4.3430	 7.4840
 4.3470	 7.5070
 4.3500	 7.4320
 4.3540	 7.3340
 4.3570	 7.3160
 4.3610	 7.3580
 4.3650	 7.4610
 4.3680	 7.4690
 4.3720	 7.4020
 4.3760	 7.3770
 4.3800	 7.4370
 4.3830	 7.4550
 4.3870	 7.4020
 4.3910	 7.4180
 4.3940	 7.4140
 4.3980	 7.3540
 4.4020	 7.3050
 4.4060	 7.3470
 4.4090	 7.3830
 4.4130	 7.4310
 4.4170	 7.4910
 4.4210	 7.4960
 4.4240	 7.4650
 4.4280	 7.4400
 4.4320	 7.4030
 4.4360	 7.3600
 4.4400	 7.3900
 4.4430	 7.4980
 4.4470	 7.4830
 4.4510	 7.3840
 4.4550	 7.3590
 4.4590	 7.3960
 4.4620	 7.3990
 4.4660	 7.4010
 4.4700	 7.3930
 4.4740	 7.4270
 4.4780	 7.4260
 4.4820	 7.3590
 4.4860	 7.3730
 4.4900	 7.4090
 4.4930	 7.4330
 4.4970	 7.4060
 4.5010	 7.3440
 4.5050	 7.3400
 4.5090	 7.3950
 4.5130	 7.4020
 4.5170	 7.3810
 4.5210	 7.3500
 4.5250	 7.3660
 4.5290	 7.3960
 4.5330	 7.4150
 4.5370	 7.3910
 4.5410	 7.3610
 4.5450	 7.3210
 4.5490	 7.3340
 4.5530	 7.3820
 4.5570	 7.3780
 4.5610	 7.3760
 4.5650	 7.3670
 4.5690	 7.3850
 4.5730	 7.3730
 4.5770	 7.3110
 4.5810	 7.3280
 4.5850	 7.3220
 4.5890	 7.2810
 4.5930	 7.2580
 4.5970	 7.3320
 4.6010	 7.3930
 4.6050	 7.3960
 4.6090	 7.3830
 4.6130	 7.2660
 4.6170	 7.3550
 4.6220	 7.4770
 4.6260	 7.4260
 4.6300	 7.3100
 4.6340	 7.3330
 4.6380	 7.3900
 4.6420	 7.2910
 4.6460	 7.2600
 4.6510	 7.3980
 4.6550	 7.4630
 4.6590	 7.3860
 4.6630	 7.3140
 4.6670	 7.2480
 4.6720	 7.2600
 4.6760	 7.3370
 4.6800	 7.3970
 4.6840	 7.4190
 4.6880	 7.4630
 4.6930	 7.4610
 4.6970	 7.3910
 4.7010	 7.3610
 4.7050	 7.3750
 4.7100	 7.3480
 4.7140	 7.2650
 4.7180	 7.2360
 4.7230	 7.3130
 4.7270	 7.3290
 4.7310	 7.2260
 4.7360	 7.2410
 4.7400	 7.3630
 4.7440	 7.3810
 4.7490	 7.3150
 4.7530	 7.2850
 4.7570	 7.3160
 4.7620	 7.3410
 4.7660	 7.3300
 4.7700	 7.3150
 4.7750	 7.3460
 4.7790	 7.3600
 4.7840	 7.3270
 4.7880	 7.2080
 4.7920	 7.1040
 4.7970	 7.2250
 4.8010	 7.3460
 4.8060	 7.4040
 4.8100	 7.4750
 4.8150	 7.4700
 4.8190	 7.4160
 4.8240	 7.3420
 4.8280	 7.3170
 4.8330	 7.3000
 4.8370	 7.2850
 4.8420	 7.2700
 4.8460	 7.3100
 4.8510	 7.3200
 4.8550	 7.3080
 4.8600	 7.2850
 4.8640	 7.3170
 4.8690	 7.3450
 4.8730	 7.3480
 4.8780	 7.3190
 4.8830	 7.2910
 4.8870	 7.3090
 4.8920	 7.2970
 4.8960	 7.2930
 4.9010	 7.3360
 4.9060	 7.3350
 4.9100	 7.3480
 4.9150	 7.3880
 4.9200	 7.4210
 4.9240	 7.3970
 4.9290	 7.3710
 4.9340	 7.3430
 4.9380	 7.3960
 4.9430	 7.3890
 4.9480	 7.3470
 4.9530	 7.3270
 4.9570	 7.3710
 4.9620	 7.4170
 4.9670	 7.4480
 4.9720	 7.3740
 4.9760	 7.2710
 4.9810	 7.2690
 4.9860	 7.3480
 4.9910	 7.3640
 4.9960	 7.3330
 5.0000	 7.3800
 5.0050	 7.4340
 5.0100	 7.4220
 5.0150	 7.4460
 5.0200	 7.4070
 5.0250	 7.3560
 5.0290	 7.3150
 5.0340	 7.2920
 5.0390	 7.2680
 5.0440	 7.2890
 5.0490	 7.3200
 5.0540	 7.4150
 5.0590	 7.3790
 5.0640	 7.3340
 5.0690	 7.2850
 5.0740	 7.2840
 5.0790	 7.2990
 5.0840	 7.3280
 5.0890	 7.3300
 5.0940	 7.3780
 5.0990	 7.3780
 5.1040	 7.3810
 5.1090	 7.3480
 5.1140	 7.3530
 5.1190	 7.3340
 5.1240	 7.3910
 5.1290	 7.4150
 5.1340	 7.3700
 5.1390	 7.3000
 5.1440	 7.2640
 5.1490	 7.2690
 5.1540	 7.3090
 5.1600	 7.3120
 5.1650	 7.3610
 5.1700	 7.4080
 5.1750	 7.3400
 5.1800	 7.3020
 5.1850	 7.3670
 5.1910	 7.3620
 5.1960	 7.3980
 5.2010	 7.4260
 5.2060	 7.4320
 5.2110	 7.3300
 5.2170	 7.3000
 5.2220	 7.2950
 5.2270	 7.3580
 5.2320	 7.3620
 5.2380	 7.2920
 5.2430	 7.3170
 5.2480	 7.4090
 5.2540	 7.3580
 5.2590	 7.3520
 5.2640	 7.3540
 5.2700	 7.3460
 5.2750	 7.3240
 5.2800	 7.3960
 5.2860	 7.4420
 5.2910	 7.4260
 5.2970	 7.3610
 5.3020	 7.3700
 5.3070	 7.3450
 5.3130	 7.2930
 5.3180	 7.2220
 5.3240	 7.2160
 5.3290	 7.2340
 5.3350	 7.3070
 5.3400	 7.2920
 5.3460	 7.3000
 5.3510	 7.3480
 5.3570	 7.3920
 5.3620	 7.3660
 5.3680	 7.3490
 5.3730	 7.3090
 5.3790	 7.2610
 5.3850	 7.2810
 5.3900	 7.3640
 5.3960	 7.3510
 5.4010	 7.3480
 5.4070	 7.3060
 5.4130	 7.2950
 5.4180	 7.2620
 5.4240	 7.2030
 5.4300	 7.1680
 5.4350	 7.2630
 5.4410	 7.2630
 5.4470	 7.1790
 5.4530	 7.1900
 5.4580	 7.2610
 5.4640	 7.2130
 5.4700	 7.2580
 5.4760	 7.3260
 5.4810	 7.3250
 5.4870	 7.2590
 5.4930	 7.2560
 5.4990	 7.2020
 5.5050	 7.1860
 5.5110	 7.2110
 5.5160	 7.2220
 5.5220	 7.1260
 5.5280	 7.1010
 5.5340	 7.1100
 5.5400	 7.1470
 5.5460	 7.0600
 5.5520	 7.0320
 5.5580	 7.1220
 5.5640	 7.1730
 5.5700	 7.1460
 5.5760	 7.1620
 5.5820	 7.0430
 5.5880	 7.0460
 5.5940	 7.1080
 5.6000	 7.0940
 5.6060	 7.0530
 5.6120	 7.0360
 5.6180	 7.0250
 5.6240	 7.0090
 5.6300	 6.9370
 5.6360	 6.9760
 5.6420	 6.9260
 5.6490	 6.8420
 5.6550	 6.7760
 5.6610	 6.7430
 5.6670	 6.6790
 5.6730	 6.6930
 5.6800	 6.6350
 5.6860	 6.5490
 5.6920	 6.5640
 5.6980	 6.5870
 5.7040	 6.4950
 5.7110	 6.4050
 5.7170	 6.3600
 5.7230	 6.2750
 5.7300	 6.1620
 5.7360	 6.1940
 5.7420	 6.3300
 5.7490	 6.5080
 5.7550	 6.6730
 5.7620	 6.9160
 5.7680	 7.1080
 5.7740	 7.3360
 5.7810	 7.5120
 5.7870	 7.6690
 5.7940	 7.8700
 5.8000	 7.9660
 5.8070	 7.8800
 5.8130	 7.9370
 5.8200	 7.9500
 5.8260	 7.9820
 5.8330	 7.9480
 5.8390	 7.9840
 5.8460	 8.0710
 5.8530	 8.1570
 5.8590	 8.1750
 5.8660	 8.2490
 5.8720	 8.2330
 5.8790	 8.2050
 5.8860	 8.1470
 5.8920	 8.2450
 5.8990	 8.2270
 5.9060	 8.1750
 5.9130	 8.1090
 5.9190	 8.0690
 5.9260	 8.0000
 5.9330	 8.0100
 5.9400	 7.9200
 5.9470	 7.9010
 5.9530	 7.9430
 5.9600	 8.0290
 5.9670	 7.8740
 5.9740	 7.8340
 5.9810	 7.7840
 5.9880	 7.7990
 5.9950	 7.7330
 6.0020	 7.8050
 6.0090	 7.7830
 6.0160	 7.7580
 6.0230	 7.7040
 6.0300	 7.7070
 6.0370	 7.6700
 6.0440	 7.6990
 6.0510	 7.5570
 6.0580	 7.5340
 6.0650	 7.5580
 6.0720	 7.6310
 6.0790	 7.6190
 6.0860	 7.6150
 6.0930	 7.4760
 6.1000	 7.3860
 6.1080	 7.3590
 6.1150	 7.4080
 6.1220	 7.4810
 6.1290	 7.5670
 6.1370	 7.4330
 6.1440	 7.3590
 6.1510	 7.4010
 6.1580	 7.5080
 6.1660	 7.5570
 6.1730	 7.6550
 6.1800	 7.5630
 6.1880	 7.4820
 6.1950	 7.4130
 6.2030	 7.4620
 6.2100	 7.4520
 6.2170	 7.5250
 6.2250	 7.4570
 6.2320	 7.3970
 6.2400	 7.3420
 6.2470	 7.4240
 6.2550	 7.4410
 6.2630	 7.4470
 6.2700	 7.2520
 6.2780	 7.2630
 6.2850	 7.3150
 6.2930	 7.3360
 6.3010	 7.3420
 6.3080	 7.3500
 6.3160	 7.2370
 6.3240	 7.2510
 6.3310	 7.2600
 6.3390	 7.3310
 6.3470	 7.2520
 6.3550	 7.2600
 6.3620	 7.1870
 6.3700	 7.2870
 6.3780	 7.3080
 6.3860	 7.3450
 6.3940	 7.3410
 6.4020	 7.2580
 6.4100	 7.1330
 6.4180	 7.2310
 6.4260	 7.2750
 6.4330	 7.2970
 6.4410	 7.2010
 6.4490	 7.2670
 6.4580	 7.2860
 6.4660	 7.2630
 6.4740	 7.1710
 6.4820	 7.2190
 6.4900	 7.1900
 6.4980	 7.1510
 6.5060	 7.1490
 6.5140	 7.2960
 6.5230	 7.1990
 6.5310	 7.0570
 6.5390	 6.9970
 6.5470	 6.9980
 6.5550	 6.9600
 6.5640	 7.0340
 6.5720	 6.9400
 6.5800	 6.9970
 6.5890	 7.0870
 6.5970	 7.1720
 6.6060	 7.1380
 6.6140	 7.2200
 6.6220	 7.2070
 6.6310	 7.1740
 6.6390	 7.1270
 6.6480	 7.1710
 6.6560	 7.1550
 6.6650	 7.2100
 6.6740	 7.1430
 6.6820	 7.1170
 6.6910	 7.1130
 6.6990	 7.1190
 6.7080	 6.9510
 6.7170	 6.9690
 6.7260	 6.9840
 6.7340	 7.0250
 6.7430	 6.9180
 6.7520	 6.9710
 6.7610	 6.9880
 6.7690	 6.9410
 6.7780	 6.9290
 6.7870	 7.1380
 6.7960	 7.1270
 6.8050	 7.0450
 6.8140	 7.0160
 6.8230	 7.1360
 6.8320	 7.3160
 6.8410	 7.5110
 6.8500	 7.3630
 6.8590	 7.2920
 6.8680	 7.2280
 6.8770	 7.3590
 6.8860	 7.3680
 6.8950	 7.3510
 6.9050	 7.3800
 6.9140	 7.4440
 6.9230	 7.3040
 6.9320	 7.3500
 6.9420	 7.2850
 6.9510	 7.3930
 6.9600	 7.3540
 6.9700	 7.3550
 6.9790	 7.3610
 6.9880	 7.3610
 6.9980	 7.2210
 7.0070	 7.2180
 7.0170	 7.1480
 7.0260	 7.2260
 7.0360	 7.2550
 7.0450	 7.2890
 7.0550	 7.2110
 7.0650	 7.2740
 7.0740	 7.2360
 7.0840	 7.2900
 7.0940	 7.3170
 7.1030	 7.3060
 7.1130	 7.1850
 7.1230	 7.2420
 7.1330	 7.1910
 7.1420	 7.2090
 7.1520	 7.1330
 7.1620	 7.1930
 7.1720	 7.0770
 7.1820	 7.1000
 7.1920	 7.0560
 7.2020	 7.1000
 7.2120	 7.0800
 7.2220	 7.1500
 7.2320	 7.1520
 7.2420	 7.2300
 7.2520	 7.1750
 7.2620	 7.1540
 7.2730	 7.0550
 7.2830	 7.0770
 7.2930	 7.0590
 7.3030	 7.1510
 7.3140	 7.1070
 7.3240	 7.0820
 7.3340	 7.0750
 7.3450	 7.1110
 7.3550	 7.0450
 7.3660	 7.1620
 7.3760	 7.1270
 7.3870	 7.1750
 7.3970	 7.0820
 7.4080	 7.0890
 7.4180	 7.0190
 7.4290	 7.1260
 7.4400	 7.1570
 7.4500	 7.0950
 7.4610	 6.9700
 7.4720	 7.0500
 7.4830	 7.0000
 7.4930	 6.9320
 7.5040	 6.8350
 7.5150	 6.9170
 7.5260	 6.9300
 7.5370	 6.9670
 7.5480	 6.9300
 7.5590	 6.9850
 7.5700	 6.9640
 7.5810	 6.9940
 7.5920	 6.9230
 7.6030	 6.9900
 7.6140	 6.9950
 7.6260	 7.0560
 7.6370	 6.9880
 7.6480	 6.9620
 7.6590	 6.8860
 7.6710	 6.9300
 7.6820	 6.8980
 7.6930	 6.9650
 7.7050	 6.8640
 7.7160	 6.8260
 7.7280	 6.8410
 7.7390	 6.9580
 7.7510	 6.9330
 7.7630	 6.9700
 7.7740	 6.9280
 7.7860	 6.9420
 7.7980	 6.9170
 7.8090	 7.0260
 7.8210	 6.9320
 7.8330	 6.9290
 7.8450	 6.8170
 7.8570	 6.9480
 7.8690	 7.0030
 7.8810	 7.1280
 7.8930	 7.0030
 7.9050	 7.0630
 7.9170	 6.9910
 7.9290	 7.0150
 7.9410	 6.9220
 7.9530	 7.0740
 7.9650	 7.0950
 7.9780	 7.1510
 7.9900	 7.0840
 8.0020	 7.1490
 8.0150	 7.1700
 8.0270	 7.2590
 8.0390	 7.1710
 8.0520	 7.3280
 8.0640	 7.2430
 8.0770	 7.2390
 8.0900	 7.2130
 8.1020	 7.4540
 8.1150	 7.4190
 8.1280	 7.3690
 8.1400	 7.3830
 8.1530	 7.5570
 8.1660	 7.3480
 8.1790	 7.3910
 8.1920	 7.2690
 8.2050	 7.3140
 8.2180	 7.4160
 8.2310	 7.5350
 8.2440	 7.3040
 8.2570	 7.3330
 8.2700	 7.3320
 8.2830	 7.4400
 8.2970	 7.3860
 8.3100	 7.3930
 8.3230	 7.4020
 8.3370	 7.5610
 8.3500	 7.5140
 8.3640	 7.5440
 8.3770	 7.5020
 8.3910	 7.7460
 8.4040	 7.7570
 8.4180	 7.8350
 8.4320	 7.7140
 8.4450	 7.7330
 8.4590	 7.6290
 8.4730	 7.8170
 8.4870	 7.9830
 8.5010	 8.2040
 8.5150	 8.1980
 8.5290	 8.4320
 8.5430	 8.5100
 8.5570	 8.5370
 8.5710	 8.3520
 8.5850	 8.4060
 8.5990	 8.2550
 8.6140	 8.3720
 8.6280	 8.2880
 8.6420	 8.2740
 8.6570	 8.1290
 8.6710	 8.2520
 8.6860	 8.1590
 8.7000	 8.1710
 8.7150	 8.0750
 8.7300	 8.1600
 8.7440	 8.1390
 8.7590	 8.2380
 8.7740	 8.0570
 8.7890	 8.0810
 8.8040	 8.0240
 8.8190	 8.1880
 8.8340	 8.0570
 8.8490	 8.1530
 8.8640	 8.1530
 8.8790	 8.2940
 8.8940	 7.9790
 8.9100	 7.9140
 8.9250	 7.8000
 8.9400	 7.9150
 8.9560	 7.7690
 8.9710	 7.8710
 8.9870	 7.7890
 9.0020	 7.7800
 9.0180	 7.5450
 9.0340	 7.6060
 9.0500	 7.5520
 9.0650	 7.8460
 9.0810	 7.8060
 9.0970	 7.7260
 9.1130	 7.6250
 9.1290	 7.8360
 9.1450	 7.7450
 9.1610	 7.8470
 9.1780	 7.7120
 9.1940	 7.7530
 9.2100	 7.6600
 9.2270	 7.8290
 9.2430	 7.6000
 9.2600	 7.6800
 9.2760	 7.7220
 9.2930	 7.7690
 9.3090	 7.4390
 9.3260	 7.4850
 9.3430	 7.4540
 9.3600	 7.5800
 9.3770	 7.3640
 9.3940	 7.3620
 9.4110	 7.2700
 9.4280	 7.3010
 9.4450	 7.1290
 9.4620	 7.2450
 9.4800	 7.0360
 9.4970	 7.1570
 9.5140	 7.0760
 9.5320	 7.1590
 9.5500	 7.1790
 9.5670	 7.3600
 9.5850	 7.0980
 9.6030	 7.1380
 9.6200	 7.1860
 9.6380	 7.3240
 9.6560	 7.0810
 9.6740	 7.1530
 9.6920	 6.9750
 9.7100	 7.1630
 9.7290	 7.0080
 9.7470	 7.0330
 9.7650	 7.0010
 9.7840	 7.2100
 9.8020	 7.1370
 9.8210	 7.1630
 9.8390	 6.9550
 9.8580	 6.9620
 9.8770	 6.8800
 9.8960	 7.0390
 9.9150	 6.9890
 9.9340	 7.1880
 9.9530	 6.9760
 9.9720	 6.8890
 9.9910	 6.8690
10.0100	 7.1570
10.0300	 7.1570
10.0490	 7.2270
10.0690	 7.1050
10.0880	 7.2220
10.1080	 7.1630
10.1280	 7.1470
10.1480	 7.0010
10.1670	 7.1930
10.1870	 7.0640
10.2070	 7.2350
10.2280	 7.1910
10.2480	 7.1720
10.2680	 7.0000
10.2890	 7.0950
10.3090	 7.0150
10.3300	 7.1080
10.3500	 6.9550
10.3710	 7.0920
10.3920	 7.0230
10.4120	 7.1950
10.4330	 7.0130
10.4540	 6.9800
10.4760	 6.9020
10.4970	 7.0830
10.5180	 6.9860
10.5390	 7.0800
10.5610	 6.8710
10.5820	 7.0470
10.6040	 6.9900
10.6260	 7.0330
10.6480	 6.8670
10.6700	 7.0250
10.6920	 7.0250
10.7140	 7.1980
10.7360	 6.9960
10.7580	 7.0690
10.7800	 6.8730
10.8030	 7.0410
10.8250	 7.0150
10.8480	 7.0340
10.8710	 6.7900
10.8940	 6.9090
10.9170	 6.9570
10.9400	 7.2730
10.9630	 7.2030
10.9860	 7.1780
11.0090	 6.8600
11.0330	 6.8670
11.0560	 6.7850
11.0800	 6.8650
11.1040	 6.3540
11.1270	 6.3880
11.1510	 6.5990
11.1750	 6.8350
11.2000	 6.7460
11.2240	 6.8500
11.2480	 6.7830
11.2730	 7.6180
11.2970	 8.6740
11.3220	 8.0120
11.3470	 6.8580
11.3720	 6.9200
11.3970	 6.8820
11.4220	 6.8980
11.4470	 6.6760
11.4720	 6.8040
11.4980	 6.6990
11.5230	 6.9500
11.5490	 6.6320
11.5750	 6.7150
11.6000	 6.6380
11.6260	 6.9110
11.6530	 6.8030
11.6790	 6.8460
11.7050	 6.5400
11.7320	 6.7730
11.7580	 6.8280
11.7850	 6.9400
11.8120	 6.7250
11.8390	 6.7770
11.8660	 6.5270
11.8930	 6.7120
11.9200	 6.4260
11.9480	 6.5030
11.9760	 6.4470
12.0030	 6.7310
12.0310	 6.4390
12.0590	 6.4480
12.0870	 6.2740
12.1150	 6.3780
12.1440	 6.1590
12.1720	 6.5420
12.2010	 6.4080
12.2300	 6.1910
12.2590	 6.0270
12.2880	 6.7260
12.3170	 6.7220
12.3460	 6.6960
12.3760	 6.6150
12.4050	 6.9370
12.4350	 6.5310
12.4650	 6.5020
12.4950	 6.2530
12.5250	 6.4580
12.5550	 6.1690
12.5860	 6.3290
12.6170	 6.1740
12.6470	 6.2660
12.6780	 6.0180
12.7090	 6.3890
12.7410	 6.2640
12.7720	 6.3030
12.8030	 6.0970
12.8350	 6.4330
12.8670	 6.1070
12.8990	 6.0630
12.9310	 5.8480
12.9640	 6.1890
12.9960	 6.1780
13.0290	 6.3590
13.0610	 6.0110
13.0940	 6.1920
13.1280	 5.9440
13.1610	 6.0160
13.1940	 5.7220
13.2280	 6.1400
13.2620	 6.0450
13.2960	 6.1010
13.3300	 5.6230
13.3640	 5.8200
13.3990	 5.7340
13.4340	 5.8790
13.4690	 5.5590
13.5040	 5.8290
13.5390	 5.6590
13.5740	 5.9470
13.6100	 5.4030
13.6460	 5.6030
13.6820	 5.4750
13.7180	 5.7970
13.7540	 5.7070
13.7910	 5.8970
13.8280	 5.6430
13.8650	 6.0080
13.9020	 5.6960
13.9390	 5.7550
13.9770	 5.4940
14.0150	 5.9790
14.0530	 5.6630
14.0910	 5.9800
14.1290	 5.8170
14.1680	 6.0560
14.2070	 5.9800
14.2460	 6.2120
14.2850	 5.7670
14.3240	 5.9500
14.3640	 5.5930
14.4040	 5.6430
14.4440	 4.9370
14.4840	 5.6380
14.5250	 5.4740
14.5660	 5.7160
14.6070	 5.5690
14.6480	 6.3420
14.6900	 5.7400
14.7310	 5.5030
14.7730	 4.6890
14.8150	 5.5650
14.8580	 5.7730
14.9010	 6.0190
14.9440	 4.9700
14.9870	 5.3910
15.0300	 5.3390
15.0740	 6.1790
15.1180	 5.5770
15.1620	 5.8040
15.2060	 5.0780
15.2510	 5.8530
15.2960	 5.3180
15.3410	 5.1550
15.3870	 4.6830
