Name: Aloe arborescens flower
Type: vegetation
Class: Shrub
Genus: Aloe
Species: arborescens_flower
Sample No.: JPL072
Owner: JPL
Wavelength Range: VSWIR
Origin: 34.12593; - 118.10983; WGS84
Collection Date: 2/2/2016
Description: Samples were collected at the Huntington Garden in San Marino California as part of a JPL Subcontract studying HyTES imagery. Samples were taken to JPL and processed within 48 hours of collection. The same leaves were processed in the Nicolet and then measured using the ASD.
Measurement: Bidirectional reflectance
First Column: X
Second Column: Y
X Units: Wavelength (micrometer)
Y Units: Reflectance (percentage)
First X Value: 0.35
Last X Value: 2.5
Number of X Values: 2151
Additional Information: 

 0.3500	 3.7310
 0.3510	 4.0040
 0.3520	 3.1050
 0.3530	 2.4350
 0.3540	 2.6520
 0.3550	 1.3800
 0.3560	 2.2170
 0.3570	 3.8420
 0.3580	 3.0490
 0.3590	 2.4540
 0.3600	 2.5770
 0.3610	 3.0940
 0.3620	 2.8750
 0.3630	 2.7730
 0.3640	 2.7070
 0.3650	 2.4740
 0.3660	 2.3720
 0.3670	 2.2000
 0.3680	 2.1720
 0.3690	 2.6810
 0.3700	 2.6600
 0.3710	 2.6420
 0.3720	 2.9920
 0.3730	 3.4910
 0.3740	 2.8660
 0.3750	 2.1540
 0.3760	 2.6200
 0.3770	 2.6780
 0.3780	 2.1850
 0.3790	 1.9260
 0.3800	 3.1890
 0.3810	 3.4040
 0.3820	 3.0250
 0.3830	 2.7500
 0.3840	 2.7060
 0.3850	 2.9080
 0.3860	 3.0910
 0.3870	 2.9920
 0.3880	 3.0390
 0.3890	 3.0270
 0.3900	 2.8200
 0.3910	 2.4090
 0.3920	 2.5920
 0.3930	 2.8380
 0.3940	 2.6860
 0.3950	 2.5810
 0.3960	 2.6310
 0.3970	 2.6740
 0.3980	 2.4960
 0.3990	 2.6260
 0.4000	 2.6260
 0.4010	 2.4870
 0.4020	 2.8670
 0.4030	 2.7400
 0.4040	 2.4670
 0.4050	 2.5350
 0.4060	 2.6550
 0.4070	 2.6600
 0.4080	 2.5730
 0.4090	 2.5340
 0.4100	 2.5010
 0.4110	 2.5540
 0.4120	 2.6530
 0.4130	 2.4950
 0.4140	 2.5200
 0.4150	 2.5690
 0.4160	 2.4100
 0.4170	 2.4270
 0.4180	 2.4260
 0.4190	 2.3630
 0.4200	 2.3460
 0.4210	 2.3740
 0.4220	 2.3880
 0.4230	 2.3720
 0.4240	 2.4640
 0.4250	 2.4360
 0.4260	 2.3710
 0.4270	 2.4570
 0.4280	 2.5190
 0.4290	 2.4620
 0.4300	 2.3330
 0.4310	 2.3640
 0.4320	 2.3600
 0.4330	 2.3450
 0.4340	 2.3730
 0.4350	 2.4180
 0.4360	 2.3670
 0.4370	 2.2810
 0.4380	 2.3290
 0.4390	 2.2990
 0.4400	 2.2550
 0.4410	 2.2600
 0.4420	 2.2830
 0.4430	 2.2770
 0.4440	 2.2570
 0.4450	 2.2540
 0.4460	 2.1920
 0.4470	 2.2260
 0.4480	 2.3330
 0.4490	 2.2640
 0.4500	 2.2180
 0.4510	 2.2230
 0.4520	 2.2520
 0.4530	 2.2450
 0.4540	 2.2350
 0.4550	 2.2260
 0.4560	 2.2080
 0.4570	 2.1790
 0.4580	 2.1610
 0.4590	 2.1550
 0.4600	 2.1110
 0.4610	 2.1350
 0.4620	 2.1560
 0.4630	 2.0860
 0.4640	 2.1100
 0.4650	 2.1300
 0.4660	 2.1390
 0.4670	 2.2300
 0.4680	 2.1790
 0.4690	 2.1390
 0.4700	 2.2270
 0.4710	 2.2330
 0.4720	 2.1480
 0.4730	 2.0720
 0.4740	 2.1310
 0.4750	 2.1160
 0.4760	 2.1000
 0.4770	 2.1100
 0.4780	 2.0440
 0.4790	 2.0640
 0.4800	 2.1030
 0.4810	 2.0650
 0.4820	 2.0590
 0.4830	 2.0660
 0.4840	 2.0680
 0.4850	 2.0530
 0.4860	 2.1020
 0.4870	 2.1280
 0.4880	 2.0910
 0.4890	 2.1430
 0.4900	 2.1540
 0.4910	 2.1180
 0.4920	 2.0900
 0.4930	 2.0640
 0.4940	 2.0660
 0.4950	 2.1000
 0.4960	 2.1340
 0.4970	 2.1350
 0.4980	 2.1100
 0.4990	 2.0860
 0.5000	 2.0990
 0.5010	 2.1050
 0.5020	 2.1010
 0.5030	 2.1160
 0.5040	 2.1110
 0.5050	 2.1150
 0.5060	 2.1360
 0.5070	 2.1180
 0.5080	 2.1330
 0.5090	 2.1690
 0.5100	 2.1830
 0.5110	 2.2150
 0.5120	 2.2070
 0.5130	 2.1650
 0.5140	 2.1930
 0.5150	 2.2060
 0.5160	 2.2150
 0.5170	 2.2430
 0.5180	 2.2780
 0.5190	 2.2880
 0.5200	 2.2840
 0.5210	 2.3010
 0.5220	 2.3070
 0.5230	 2.3160
 0.5240	 2.3310
 0.5250	 2.3150
 0.5260	 2.3310
 0.5270	 2.3680
 0.5280	 2.3890
 0.5290	 2.4200
 0.5300	 2.4410
 0.5310	 2.4460
 0.5320	 2.4540
 0.5330	 2.4530
 0.5340	 2.4650
 0.5350	 2.5070
 0.5360	 2.5370
 0.5370	 2.5600
 0.5380	 2.5740
 0.5390	 2.5710
 0.5400	 2.6100
 0.5410	 2.6680
 0.5420	 2.7250
 0.5430	 2.7930
 0.5440	 2.8440
 0.5450	 2.8670
 0.5460	 2.8650
 0.5470	 2.8660
 0.5480	 2.8900
 0.5490	 2.9350
 0.5500	 2.9680
 0.5510	 3.0170
 0.5520	 3.0640
 0.5530	 3.0980
 0.5540	 3.1660
 0.5550	 3.2300
 0.5560	 3.2940
 0.5570	 3.3910
 0.5580	 3.4690
 0.5590	 3.5520
 0.5600	 3.6620
 0.5610	 3.7770
 0.5620	 3.9000
 0.5630	 4.0370
 0.5640	 4.1920
 0.5650	 4.3370
 0.5660	 4.4840
 0.5670	 4.6400
 0.5680	 4.8080
 0.5690	 4.9790
 0.5700	 5.1640
 0.5710	 5.3730
 0.5720	 5.5750
 0.5730	 5.7920
 0.5740	 6.0350
 0.5750	 6.3060
 0.5760	 6.5640
 0.5770	 6.8240
 0.5780	 7.1000
 0.5790	 7.3810
 0.5800	 7.6720
 0.5810	 7.9700
 0.5820	 8.2750
 0.5830	 8.5770
 0.5840	 8.8880
 0.5850	 9.2040
 0.5860	 9.5010
 0.5870	 9.8260
 0.5880	10.1680
 0.5890	10.5090
 0.5900	10.8400
 0.5910	11.1680
 0.5920	11.4900
 0.5930	11.8000
 0.5940	12.1360
 0.5950	12.4560
 0.5960	12.7460
 0.5970	13.0580
 0.5980	13.3620
 0.5990	13.6480
 0.6000	13.9170
 0.6010	14.1830
 0.6020	14.4210
 0.6030	14.6320
 0.6040	14.8510
 0.6050	15.0580
 0.6060	15.2470
 0.6070	15.4180
 0.6080	15.5740
 0.6090	15.7400
 0.6100	15.9530
 0.6110	16.2190
 0.6120	16.3240
 0.6130	16.2970
 0.6140	16.2190
 0.6150	16.2200
 0.6160	16.2230
 0.6170	16.2170
 0.6180	16.2180
 0.6190	16.2670
 0.6200	16.3190
 0.6210	16.3530
 0.6220	16.3720
 0.6230	16.3910
 0.6240	16.4280
 0.6250	16.4820
 0.6260	16.5000
 0.6270	16.5420
 0.6280	16.5990
 0.6290	16.6480
 0.6300	16.7300
 0.6310	16.8140
 0.6320	16.8620
 0.6330	16.8470
 0.6340	16.8720
 0.6350	16.9080
 0.6360	16.9090
 0.6370	16.8870
 0.6380	16.8700
 0.6390	16.8540
 0.6400	16.8180
 0.6410	16.7370
 0.6420	16.6540
 0.6430	16.5850
 0.6440	16.4850
 0.6450	16.3570
 0.6460	16.2220
 0.6470	16.0970
 0.6480	15.9680
 0.6490	15.8400
 0.6500	15.7140
 0.6510	15.5840
 0.6520	15.4540
 0.6530	15.3310
 0.6540	15.2110
 0.6550	15.0480
 0.6560	14.8510
 0.6570	14.6230
 0.6580	14.3690
 0.6590	14.0810
 0.6600	13.7580
 0.6610	13.4160
 0.6620	13.0790
 0.6630	12.7220
 0.6640	12.3560
 0.6650	11.9980
 0.6660	11.6510
 0.6670	11.3490
 0.6680	11.0820
 0.6690	10.8230
 0.6700	10.5960
 0.6710	10.4150
 0.6720	10.2740
 0.6730	10.1410
 0.6740	10.0430
 0.6750	 9.9780
 0.6760	 9.9350
 0.6770	 9.9130
 0.6780	 9.9090
 0.6790	 9.9390
 0.6800	10.0300
 0.6810	10.1930
 0.6820	10.4270
 0.6830	10.7470
 0.6840	11.1880
 0.6850	11.7290
 0.6860	12.3620
 0.6870	13.0800
 0.6880	13.8820
 0.6890	14.7520
 0.6900	15.6640
 0.6910	16.5930
 0.6920	17.5320
 0.6930	18.4730
 0.6940	19.4070
 0.6950	20.3250
 0.6960	21.2170
 0.6970	22.0760
 0.6980	22.9010
 0.6990	23.6980
 0.7000	24.4730
 0.7010	25.2120
 0.7020	25.8840
 0.7030	26.5430
 0.7040	27.1750
 0.7050	27.7650
 0.7060	28.3190
 0.7070	28.8440
 0.7080	29.3550
 0.7090	29.8580
 0.7100	30.2980
 0.7110	30.7180
 0.7120	31.1360
 0.7130	31.5450
 0.7140	31.9210
 0.7150	32.2840
 0.7160	32.6530
 0.7170	33.0120
 0.7180	33.3570
 0.7190	33.6860
 0.7200	34.0030
 0.7210	34.3100
 0.7220	34.6110
 0.7230	34.9060
 0.7240	35.1840
 0.7250	35.4050
 0.7260	35.6270
 0.7270	35.8800
 0.7280	36.0820
 0.7290	36.2770
 0.7300	36.4530
 0.7310	36.5900
 0.7320	36.7560
 0.7330	36.8960
 0.7340	37.0070
 0.7350	37.1380
 0.7360	37.2540
 0.7370	37.3670
 0.7380	37.4860
 0.7390	37.5880
 0.7400	37.6920
 0.7410	37.7950
 0.7420	37.8830
 0.7430	37.9700
 0.7440	38.0440
 0.7450	38.1130
 0.7460	38.2040
 0.7470	38.2700
 0.7480	38.3370
 0.7490	38.4150
 0.7500	38.4630
 0.7510	38.5000
 0.7520	38.5440
 0.7530	38.6050
 0.7540	38.6540
 0.7550	38.6990
 0.7560	38.7400
 0.7570	38.7730
 0.7580	38.8020
 0.7590	38.8400
 0.7600	38.8910
 0.7610	38.9410
 0.7620	38.9540
 0.7630	38.9640
 0.7640	39.0040
 0.7650	39.0180
 0.7660	39.0530
 0.7670	39.1030
 0.7680	39.1360
 0.7690	39.1440
 0.7700	39.1550
 0.7710	39.1850
 0.7720	39.2220
 0.7730	39.2410
 0.7740	39.2590
 0.7750	39.2910
 0.7760	39.3130
 0.7770	39.3280
 0.7780	39.3560
 0.7790	39.4050
 0.7800	39.3930
 0.7810	39.3890
 0.7820	39.4160
 0.7830	39.4350
 0.7840	39.4640
 0.7850	39.4810
 0.7860	39.4750
 0.7870	39.4720
 0.7880	39.5000
 0.7890	39.5330
 0.7900	39.5370
 0.7910	39.5500
 0.7920	39.5520
 0.7930	39.5450
 0.7940	39.5510
 0.7950	39.5440
 0.7960	39.5480
 0.7970	39.5640
 0.7980	39.5640
 0.7990	39.5660
 0.8000	39.5610
 0.8010	39.5460
 0.8020	39.5730
 0.8030	39.5800
 0.8040	39.5560
 0.8050	39.5200
 0.8060	39.5150
 0.8070	39.5170
 0.8080	39.5120
 0.8090	39.4970
 0.8100	39.4750
 0.8110	39.4510
 0.8120	39.4280
 0.8130	39.3990
 0.8140	39.3740
 0.8150	39.3540
 0.8160	39.3320
 0.8170	39.2980
 0.8180	39.2550
 0.8190	39.2260
 0.8200	39.2250
 0.8210	39.1770
 0.8220	39.1210
 0.8230	39.0780
 0.8240	39.0480
 0.8250	38.9880
 0.8260	38.9170
 0.8270	38.8550
 0.8280	38.8040
 0.8290	38.7280
 0.8300	38.6590
 0.8310	38.6220
 0.8320	38.5570
 0.8330	38.5090
 0.8340	38.4760
 0.8350	38.4310
 0.8360	38.3770
 0.8370	38.3370
 0.8380	38.3170
 0.8390	38.3010
 0.8400	38.2820
 0.8410	38.2560
 0.8420	38.2270
 0.8430	38.2070
 0.8440	38.2030
 0.8450	38.1870
 0.8460	38.1530
 0.8470	38.1850
 0.8480	38.1790
 0.8490	38.1490
 0.8500	38.1360
 0.8510	38.1190
 0.8520	38.0910
 0.8530	38.0750
 0.8540	38.1000
 0.8550	38.1010
 0.8560	38.0920
 0.8570	38.0800
 0.8580	38.0650
 0.8590	38.0840
 0.8600	38.0930
 0.8610	38.0720
 0.8620	38.0560
 0.8630	38.0760
 0.8640	38.0890
 0.8650	38.0620
 0.8660	38.0580
 0.8670	38.0600
 0.8680	38.0720
 0.8690	38.0910
 0.8700	38.0440
 0.8710	38.0550
 0.8720	38.1030
 0.8730	38.0980
 0.8740	38.0930
 0.8750	38.0660
 0.8760	38.0330
 0.8770	38.0450
 0.8780	38.0420
 0.8790	38.0300
 0.8800	38.0220
 0.8810	38.0160
 0.8820	38.0210
 0.8830	38.0050
 0.8840	37.9670
 0.8850	37.9720
 0.8860	37.9780
 0.8870	37.9750
 0.8880	37.9630
 0.8890	37.9300
 0.8900	37.9300
 0.8910	37.9440
 0.8920	37.9250
 0.8930	37.8990
 0.8940	37.8780
 0.8950	37.8690
 0.8960	37.8760
 0.8970	37.8610
 0.8980	37.8580
 0.8990	37.8520
 0.9000	37.7900
 0.9010	37.7610
 0.9020	37.7580
 0.9030	37.7640
 0.9040	37.7610
 0.9050	37.7370
 0.9060	37.7050
 0.9070	37.6760
 0.9080	37.6390
 0.9090	37.6250
 0.9100	37.6130
 0.9110	37.5780
 0.9120	37.5090
 0.9130	37.4740
 0.9140	37.4270
 0.9150	37.3280
 0.9160	37.3030
 0.9170	37.2540
 0.9180	37.1890
 0.9190	37.1370
 0.9200	37.0150
 0.9210	36.9420
 0.9220	36.8860
 0.9230	36.7530
 0.9240	36.6710
 0.9250	36.5550
 0.9260	36.3990
 0.9270	36.2590
 0.9280	36.0990
 0.9290	35.9360
 0.9300	35.7840
 0.9310	35.6390
 0.9320	35.4510
 0.9330	35.2500
 0.9340	35.0630
 0.9350	34.8940
 0.9360	34.7230
 0.9370	34.5200
 0.9380	34.2900
 0.9390	34.0840
 0.9400	33.8380
 0.9410	33.6210
 0.9420	33.4490
 0.9430	33.1970
 0.9440	32.9370
 0.9450	32.6700
 0.9460	32.3990
 0.9470	32.1500
 0.9480	31.8820
 0.9490	31.5960
 0.9500	31.2910
 0.9510	30.9270
 0.9520	30.6310
 0.9530	30.3220
 0.9540	29.9380
 0.9550	29.6450
 0.9560	29.4030
 0.9570	29.1680
 0.9580	28.9160
 0.9590	28.6990
 0.9600	28.5470
 0.9610	28.4100
 0.9620	28.2450
 0.9630	28.1710
 0.9640	28.0450
 0.9650	27.9070
 0.9660	27.8400
 0.9670	27.7940
 0.9680	27.7520
 0.9690	27.6910
 0.9700	27.6150
 0.9710	27.6670
 0.9720	27.6310
 0.9730	27.5420
 0.9740	27.5310
 0.9750	27.5070
 0.9760	27.4560
 0.9770	27.4300
 0.9780	27.4750
 0.9790	27.4360
 0.9800	27.4710
 0.9810	27.5310
 0.9820	27.4980
 0.9830	27.5080
 0.9840	27.5390
 0.9850	27.5700
 0.9860	27.5890
 0.9870	27.6190
 0.9880	27.6630
 0.9890	27.7070
 0.9900	27.7390
 0.9910	27.7780
 0.9920	27.8080
 0.9930	27.8480
 0.9940	27.9160
 0.9950	27.9690
 0.9960	28.0710
 0.9970	28.1900
 0.9980	28.2610
 0.9990	28.3310
 1.0000	28.3650
 1.0010	28.2470
 1.0020	28.3510
 1.0030	28.4310
 1.0040	28.4990
 1.0050	28.5710
 1.0060	28.6490
 1.0070	28.7420
 1.0080	28.8390
 1.0090	28.9420
 1.0100	29.0480
 1.0110	29.1640
 1.0120	29.2790
 1.0130	29.4000
 1.0140	29.5220
 1.0150	29.6450
 1.0160	29.7670
 1.0170	29.8880
 1.0180	29.9760
 1.0190	30.0860
 1.0200	30.1980
 1.0210	30.2960
 1.0220	30.4230
 1.0230	30.5420
 1.0240	30.6540
 1.0250	30.7690
 1.0260	30.8930
 1.0270	31.0110
 1.0280	31.1190
 1.0290	31.2340
 1.0300	31.3680
 1.0310	31.4830
 1.0320	31.5950
 1.0330	31.6900
 1.0340	31.7820
 1.0350	31.8760
 1.0360	31.9840
 1.0370	32.1100
 1.0380	32.2180
 1.0390	32.3290
 1.0400	32.4320
 1.0410	32.5230
 1.0420	32.6170
 1.0430	32.7170
 1.0440	32.8040
 1.0450	32.8760
 1.0460	32.9600
 1.0470	33.0460
 1.0480	33.1290
 1.0490	33.2250
 1.0500	33.3080
 1.0510	33.3790
 1.0520	33.4480
 1.0530	33.5140
 1.0540	33.5730
 1.0550	33.6360
 1.0560	33.7010
 1.0570	33.7600
 1.0580	33.8200
 1.0590	33.8710
 1.0600	33.9150
 1.0610	33.9570
 1.0620	33.9970
 1.0630	34.0300
 1.0640	34.0590
 1.0650	34.0830
 1.0660	34.0970
 1.0670	34.1140
 1.0680	34.1320
 1.0690	34.1520
 1.0700	34.1610
 1.0710	34.1680
 1.0720	34.1750
 1.0730	34.1750
 1.0740	34.1770
 1.0750	34.1880
 1.0760	34.1850
 1.0770	34.1790
 1.0780	34.1620
 1.0790	34.1310
 1.0800	34.1050
 1.0810	34.0790
 1.0820	34.0430
 1.0830	34.0080
 1.0840	33.9640
 1.0850	33.9030
 1.0860	33.8460
 1.0870	33.7950
 1.0880	33.7460
 1.0890	33.6910
 1.0900	33.6320
 1.0910	33.5790
 1.0920	33.5280
 1.0930	33.4680
 1.0940	33.4180
 1.0950	33.3510
 1.0960	33.2640
 1.0970	33.1860
 1.0980	33.1020
 1.0990	33.0250
 1.1000	32.9620
 1.1010	32.8870
 1.1020	32.8070
 1.1030	32.7320
 1.1040	32.6410
 1.1050	32.5520
 1.1060	32.4710
 1.1070	32.3960
 1.1080	32.3170
 1.1090	32.2480
 1.1100	32.1630
 1.1110	32.0670
 1.1120	31.9740
 1.1130	31.8770
 1.1140	31.7810
 1.1150	31.6930
 1.1160	31.5860
 1.1170	31.4660
 1.1180	31.3470
 1.1190	31.2250
 1.1200	31.0960
 1.1210	30.9480
 1.1220	30.7990
 1.1230	30.6210
 1.1240	30.4280
 1.1250	30.2230
 1.1260	30.0180
 1.1270	29.7680
 1.1280	29.4880
 1.1290	29.1990
 1.1300	28.8830
 1.1310	28.5570
 1.1320	28.2270
 1.1330	27.8710
 1.1340	27.4880
 1.1350	27.0950
 1.1360	26.6800
 1.1370	26.2630
 1.1380	25.8440
 1.1390	25.4260
 1.1400	25.0100
 1.1410	24.5990
 1.1420	24.2000
 1.1430	23.8090
 1.1440	23.4340
 1.1450	23.0680
 1.1460	22.7270
 1.1470	22.3950
 1.1480	22.0950
 1.1490	21.8210
 1.1500	21.5650
 1.1510	21.3320
 1.1520	21.1160
 1.1530	20.9190
 1.1540	20.7420
 1.1550	20.5820
 1.1560	20.4460
 1.1570	20.3320
 1.1580	20.2220
 1.1590	20.1240
 1.1600	20.0420
 1.1610	19.9610
 1.1620	19.8910
 1.1630	19.8270
 1.1640	19.7660
 1.1650	19.7160
 1.1660	19.6760
 1.1670	19.6380
 1.1680	19.6120
 1.1690	19.5810
 1.1700	19.5480
 1.1710	19.5180
 1.1720	19.4900
 1.1730	19.4630
 1.1740	19.4360
 1.1750	19.4150
 1.1760	19.3960
 1.1770	19.3760
 1.1780	19.3490
 1.1790	19.3250
 1.1800	19.3000
 1.1810	19.2630
 1.1820	19.2340
 1.1830	19.2080
 1.1840	19.1790
 1.1850	19.1560
 1.1860	19.1320
 1.1870	19.1130
 1.1880	19.0910
 1.1890	19.0640
 1.1900	19.0430
 1.1910	19.0230
 1.1920	19.0050
 1.1930	18.9910
 1.1940	18.9790
 1.1950	18.9680
 1.1960	18.9640
 1.1970	18.9580
 1.1980	18.9570
 1.1990	18.9560
 1.2000	18.9480
 1.2010	18.9520
 1.2020	18.9570
 1.2030	18.9610
 1.2040	18.9730
 1.2050	18.9810
 1.2060	18.9930
 1.2070	19.0120
 1.2080	19.0300
 1.2090	19.0560
 1.2100	19.0770
 1.2110	19.0970
 1.2120	19.1150
 1.2130	19.1330
 1.2140	19.1460
 1.2150	19.1680
 1.2160	19.1950
 1.2170	19.2260
 1.2180	19.2520
 1.2190	19.2770
 1.2200	19.2970
 1.2210	19.3100
 1.2220	19.3290
 1.2230	19.3550
 1.2240	19.3840
 1.2250	19.4160
 1.2260	19.4480
 1.2270	19.4730
 1.2280	19.4940
 1.2290	19.5200
 1.2300	19.5490
 1.2310	19.5790
 1.2320	19.6100
 1.2330	19.6380
 1.2340	19.6660
 1.2350	19.6910
 1.2360	19.7160
 1.2370	19.7420
 1.2380	19.7670
 1.2390	19.7910
 1.2400	19.8230
 1.2410	19.8510
 1.2420	19.8800
 1.2430	19.9030
 1.2440	19.9160
 1.2450	19.9390
 1.2460	19.9600
 1.2470	19.9840
 1.2480	20.0170
 1.2490	20.0440
 1.2500	20.0670
 1.2510	20.0910
 1.2520	20.1130
 1.2530	20.1300
 1.2540	20.1470
 1.2550	20.1630
 1.2560	20.1790
 1.2570	20.2000
 1.2580	20.2130
 1.2590	20.2260
 1.2600	20.2370
 1.2610	20.2450
 1.2620	20.2460
 1.2630	20.2560
 1.2640	20.2580
 1.2650	20.2520
 1.2660	20.2490
 1.2670	20.2410
 1.2680	20.2320
 1.2690	20.2260
 1.2700	20.2210
 1.2710	20.2090
 1.2720	20.1890
 1.2730	20.1710
 1.2740	20.1530
 1.2750	20.1290
 1.2760	20.1040
 1.2770	20.0760
 1.2780	20.0400
 1.2790	20.0000
 1.2800	19.9670
 1.2810	19.9310
 1.2820	19.8890
 1.2830	19.8510
 1.2840	19.8110
 1.2850	19.7660
 1.2860	19.7180
 1.2870	19.6620
 1.2880	19.5960
 1.2890	19.5230
 1.2900	19.4550
 1.2910	19.3850
 1.2920	19.3200
 1.2930	19.2550
 1.2940	19.1800
 1.2950	19.1010
 1.2960	19.0190
 1.2970	18.9390
 1.2980	18.8560
 1.2990	18.7700
 1.3000	18.6780
 1.3010	18.5760
 1.3020	18.4720
 1.3030	18.3610
 1.3040	18.2410
 1.3050	18.1240
 1.3060	18.0070
 1.3070	17.8920
 1.3080	17.7790
 1.3090	17.6670
 1.3100	17.5490
 1.3110	17.4230
 1.3120	17.2940
 1.3130	17.1610
 1.3140	17.0250
 1.3150	16.8880
 1.3160	16.7490
 1.3170	16.6110
 1.3180	16.4670
 1.3190	16.3230
 1.3200	16.1770
 1.3210	16.0310
 1.3220	15.8880
 1.3230	15.7430
 1.3240	15.5970
 1.3250	15.4490
 1.3260	15.2990
 1.3270	15.1580
 1.3280	15.0100
 1.3290	14.8590
 1.3300	14.7090
 1.3310	14.5510
 1.3320	14.4020
 1.3330	14.2580
 1.3340	14.1180
 1.3350	13.9880
 1.3360	13.8550
 1.3370	13.7260
 1.3380	13.6000
 1.3390	13.4670
 1.3400	13.3390
 1.3410	13.2140
 1.3420	13.0930
 1.3430	12.9770
 1.3440	12.8660
 1.3450	12.7570
 1.3460	12.6510
 1.3470	12.5460
 1.3480	12.4460
 1.3490	12.3470
 1.3500	12.2490
 1.3510	12.1530
 1.3520	12.0630
 1.3530	11.9710
 1.3540	11.8830
 1.3550	11.7980
 1.3560	11.7090
 1.3570	11.6170
 1.3580	11.5230
 1.3590	11.4290
 1.3600	11.3360
 1.3610	11.2460
 1.3620	11.1540
 1.3630	11.0530
 1.3640	10.9460
 1.3650	10.8340
 1.3660	10.7130
 1.3670	10.5890
 1.3680	10.4610
 1.3690	10.3260
 1.3700	10.1830
 1.3710	10.0310
 1.3720	 9.8710
 1.3730	 9.7020
 1.3740	 9.5280
 1.3750	 9.3480
 1.3760	 9.1590
 1.3770	 8.9630
 1.3780	 8.7570
 1.3790	 8.5410
 1.3800	 8.3200
 1.3810	 8.0940
 1.3820	 7.8640
 1.3830	 7.6310
 1.3840	 7.3940
 1.3850	 7.1490
 1.3860	 6.9090
 1.3870	 6.6670
 1.3880	 6.4320
 1.3890	 6.1970
 1.3900	 5.9710
 1.3910	 5.7540
 1.3920	 5.5380
 1.3930	 5.3300
 1.3940	 5.1290
 1.3950	 4.9370
 1.3960	 4.7530
 1.3970	 4.5790
 1.3980	 4.4190
 1.3990	 4.2680
 1.4000	 4.1250
 1.4010	 3.9900
 1.4020	 3.8640
 1.4030	 3.7450
 1.4040	 3.6350
 1.4050	 3.5350
 1.4060	 3.4440
 1.4070	 3.3580
 1.4080	 3.2780
 1.4090	 3.2070
 1.4100	 3.1400
 1.4110	 3.0750
 1.4120	 3.0190
 1.4130	 2.9640
 1.4140	 2.9140
 1.4150	 2.8740
 1.4160	 2.8340
 1.4170	 2.7940
 1.4180	 2.7560
 1.4190	 2.7200
 1.4200	 2.6830
 1.4210	 2.6530
 1.4220	 2.6270
 1.4230	 2.6030
 1.4240	 2.5830
 1.4250	 2.5630
 1.4260	 2.5470
 1.4270	 2.5280
 1.4280	 2.5080
 1.4290	 2.4900
 1.4300	 2.4730
 1.4310	 2.4570
 1.4320	 2.4420
 1.4330	 2.4280
 1.4340	 2.4130
 1.4350	 2.4000
 1.4360	 2.3880
 1.4370	 2.3800
 1.4380	 2.3730
 1.4390	 2.3680
 1.4400	 2.3670
 1.4410	 2.3630
 1.4420	 2.3590
 1.4430	 2.3530
 1.4440	 2.3460
 1.4450	 2.3420
 1.4460	 2.3410
 1.4470	 2.3420
 1.4480	 2.3400
 1.4490	 2.3370
 1.4500	 2.3360
 1.4510	 2.3330
 1.4520	 2.3290
 1.4530	 2.3280
 1.4540	 2.3250
 1.4550	 2.3260
 1.4560	 2.3310
 1.4570	 2.3360
 1.4580	 2.3450
 1.4590	 2.3520
 1.4600	 2.3550
 1.4610	 2.3600
 1.4620	 2.3630
 1.4630	 2.3660
 1.4640	 2.3730
 1.4650	 2.3800
 1.4660	 2.3890
 1.4670	 2.3980
 1.4680	 2.4070
 1.4690	 2.4190
 1.4700	 2.4300
 1.4710	 2.4420
 1.4720	 2.4590
 1.4730	 2.4770
 1.4740	 2.4970
 1.4750	 2.5160
 1.4760	 2.5340
 1.4770	 2.5540
 1.4780	 2.5740
 1.4790	 2.5980
 1.4800	 2.6160
 1.4810	 2.6380
 1.4820	 2.6610
 1.4830	 2.6770
 1.4840	 2.7020
 1.4850	 2.7230
 1.4860	 2.7410
 1.4870	 2.7670
 1.4880	 2.7910
 1.4890	 2.8170
 1.4900	 2.8430
 1.4910	 2.8700
 1.4920	 2.8970
 1.4930	 2.9230
 1.4940	 2.9500
 1.4950	 2.9800
 1.4960	 3.0100
 1.4970	 3.0440
 1.4980	 3.0740
 1.4990	 3.1040
 1.5000	 3.1320
 1.5010	 3.1550
 1.5020	 3.1850
 1.5030	 3.2200
 1.5040	 3.2530
 1.5050	 3.2900
 1.5060	 3.3220
 1.5070	 3.3500
 1.5080	 3.3800
 1.5090	 3.4090
 1.5100	 3.4420
 1.5110	 3.4790
 1.5120	 3.5170
 1.5130	 3.5560
 1.5140	 3.5950
 1.5150	 3.6300
 1.5160	 3.6610
 1.5170	 3.6940
 1.5180	 3.7270
 1.5190	 3.7600
 1.5200	 3.7990
 1.5210	 3.8370
 1.5220	 3.8750
 1.5230	 3.9140
 1.5240	 3.9490
 1.5250	 3.9860
 1.5260	 4.0210
 1.5270	 4.0560
 1.5280	 4.0980
 1.5290	 4.1390
 1.5300	 4.1760
 1.5310	 4.2150
 1.5320	 4.2520
 1.5330	 4.2870
 1.5340	 4.3230
 1.5350	 4.3600
 1.5360	 4.3960
 1.5370	 4.4320
 1.5380	 4.4720
 1.5390	 4.5150
 1.5400	 4.5530
 1.5410	 4.5920
 1.5420	 4.6320
 1.5430	 4.6640
 1.5440	 4.7010
 1.5450	 4.7430
 1.5460	 4.7810
 1.5470	 4.8210
 1.5480	 4.8620
 1.5490	 4.8980
 1.5500	 4.9370
 1.5510	 4.9780
 1.5520	 5.0160
 1.5530	 5.0560
 1.5540	 5.0970
 1.5550	 5.1360
 1.5560	 5.1730
 1.5570	 5.2100
 1.5580	 5.2450
 1.5590	 5.2810
 1.5600	 5.3180
 1.5610	 5.3550
 1.5620	 5.3930
 1.5630	 5.4330
 1.5640	 5.4700
 1.5650	 5.5040
 1.5660	 5.5340
 1.5670	 5.5670
 1.5680	 5.6030
 1.5690	 5.6450
 1.5700	 5.6890
 1.5710	 5.7270
 1.5720	 5.7610
 1.5730	 5.7930
 1.5740	 5.8270
 1.5750	 5.8640
 1.5760	 5.9060
 1.5770	 5.9480
 1.5780	 5.9850
 1.5790	 6.0170
 1.5800	 6.0470
 1.5810	 6.0730
 1.5820	 6.1020
 1.5830	 6.1360
 1.5840	 6.1690
 1.5850	 6.2030
 1.5860	 6.2350
 1.5870	 6.2640
 1.5880	 6.2900
 1.5890	 6.3150
 1.5900	 6.3430
 1.5910	 6.3730
 1.5920	 6.4080
 1.5930	 6.4460
 1.5940	 6.4830
 1.5950	 6.5180
 1.5960	 6.5530
 1.5970	 6.5850
 1.5980	 6.6150
 1.5990	 6.6440
 1.6000	 6.6720
 1.6010	 6.6980
 1.6020	 6.7230
 1.6030	 6.7520
 1.6040	 6.7770
 1.6050	 6.8000
 1.6060	 6.8270
 1.6070	 6.8510
 1.6080	 6.8770
 1.6090	 6.9040
 1.6100	 6.9360
 1.6110	 6.9660
 1.6120	 6.9900
 1.6130	 7.0160
 1.6140	 7.0370
 1.6150	 7.0560
 1.6160	 7.0840
 1.6170	 7.1110
 1.6180	 7.1360
 1.6190	 7.1630
 1.6200	 7.1820
 1.6210	 7.2010
 1.6220	 7.2220
 1.6230	 7.2410
 1.6240	 7.2660
 1.6250	 7.2920
 1.6260	 7.3170
 1.6270	 7.3420
 1.6280	 7.3640
 1.6290	 7.3860
 1.6300	 7.4110
 1.6310	 7.4310
 1.6320	 7.4480
 1.6330	 7.4650
 1.6340	 7.4800
 1.6350	 7.4960
 1.6360	 7.5120
 1.6370	 7.5280
 1.6380	 7.5440
 1.6390	 7.5640
 1.6400	 7.5900
 1.6410	 7.6110
 1.6420	 7.6340
 1.6430	 7.6490
 1.6440	 7.6550
 1.6450	 7.6670
 1.6460	 7.6790
 1.6470	 7.6940
 1.6480	 7.7140
 1.6490	 7.7290
 1.6500	 7.7410
 1.6510	 7.7520
 1.6520	 7.7580
 1.6530	 7.7630
 1.6540	 7.7730
 1.6550	 7.7890
 1.6560	 7.8000
 1.6570	 7.8120
 1.6580	 7.8220
 1.6590	 7.8260
 1.6600	 7.8360
 1.6610	 7.8500
 1.6620	 7.8630
 1.6630	 7.8750
 1.6640	 7.8790
 1.6650	 7.8800
 1.6660	 7.8810
 1.6670	 7.8860
 1.6680	 7.8960
 1.6690	 7.9050
 1.6700	 7.9130
 1.6710	 7.9230
 1.6720	 7.9280
 1.6730	 7.9310
 1.6740	 7.9320
 1.6750	 7.9320
 1.6760	 7.9330
 1.6770	 7.9320
 1.6780	 7.9320
 1.6790	 7.9300
 1.6800	 7.9190
 1.6810	 7.9140
 1.6820	 7.9100
 1.6830	 7.9000
 1.6840	 7.9030
 1.6850	 7.9080
 1.6860	 7.9060
 1.6870	 7.9130
 1.6880	 7.9110
 1.6890	 7.8960
 1.6900	 7.8870
 1.6910	 7.8710
 1.6920	 7.8590
 1.6930	 7.8570
 1.6940	 7.8480
 1.6950	 7.8360
 1.6960	 7.8260
 1.6970	 7.8160
 1.6980	 7.8020
 1.6990	 7.7880
 1.7000	 7.7730
 1.7010	 7.7540
 1.7020	 7.7380
 1.7030	 7.7260
 1.7040	 7.7140
 1.7050	 7.7060
 1.7060	 7.6910
 1.7070	 7.6740
 1.7080	 7.6560
 1.7090	 7.6320
 1.7100	 7.6140
 1.7110	 7.6010
 1.7120	 7.5850
 1.7130	 7.5700
 1.7140	 7.5550
 1.7150	 7.5340
 1.7160	 7.5080
 1.7170	 7.4870
 1.7180	 7.4680
 1.7190	 7.4460
 1.7200	 7.4290
 1.7210	 7.4070
 1.7220	 7.3730
 1.7230	 7.3400
 1.7240	 7.3040
 1.7250	 7.2710
 1.7260	 7.2550
 1.7270	 7.2340
 1.7280	 7.2170
 1.7290	 7.2020
 1.7300	 7.1680
 1.7310	 7.1430
 1.7320	 7.1140
 1.7330	 7.0880
 1.7340	 7.0690
 1.7350	 7.0450
 1.7360	 7.0200
 1.7370	 6.9930
 1.7380	 6.9610
 1.7390	 6.9330
 1.7400	 6.9060
 1.7410	 6.8740
 1.7420	 6.8420
 1.7430	 6.8070
 1.7440	 6.7630
 1.7450	 6.7280
 1.7460	 6.6980
 1.7470	 6.6680
 1.7480	 6.6440
 1.7490	 6.6120
 1.7500	 6.5750
 1.7510	 6.5400
 1.7520	 6.5030
 1.7530	 6.4670
 1.7540	 6.4340
 1.7550	 6.3950
 1.7560	 6.3570
 1.7570	 6.3250
 1.7580	 6.2870
 1.7590	 6.2540
 1.7600	 6.2250
 1.7610	 6.1930
 1.7620	 6.1630
 1.7630	 6.1370
 1.7640	 6.1090
 1.7650	 6.0860
 1.7660	 6.0570
 1.7670	 6.0210
 1.7680	 5.9900
 1.7690	 5.9530
 1.7700	 5.9250
 1.7710	 5.9030
 1.7720	 5.8830
 1.7730	 5.8680
 1.7740	 5.8530
 1.7750	 5.8430
 1.7760	 5.8250
 1.7770	 5.8030
 1.7780	 5.7840
 1.7790	 5.7580
 1.7800	 5.7440
 1.7810	 5.7380
 1.7820	 5.7300
 1.7830	 5.7270
 1.7840	 5.7170
 1.7850	 5.7020
 1.7860	 5.6940
 1.7870	 5.6830
 1.7880	 5.6740
 1.7890	 5.6790
 1.7900	 5.6860
 1.7910	 5.6850
 1.7920	 5.6770
 1.7930	 5.6740
 1.7940	 5.6640
 1.7950	 5.6610
 1.7960	 5.6700
 1.7970	 5.6730
 1.7980	 5.6710
 1.7990	 5.6730
 1.8000	 5.6740
 1.8010	 5.6750
 1.8020	 5.6770
 1.8030	 5.6780
 1.8040	 5.6770
 1.8050	 5.6770
 1.8060	 5.6780
 1.8070	 5.6780
 1.8080	 5.6770
 1.8090	 5.6780
 1.8100	 5.6820
 1.8110	 5.6850
 1.8120	 5.6900
 1.8130	 5.6910
 1.8140	 5.6860
 1.8150	 5.6800
 1.8160	 5.6670
 1.8170	 5.6600
 1.8180	 5.6630
 1.8190	 5.6750
 1.8200	 5.6780
 1.8210	 5.6780
 1.8220	 5.6750
 1.8230	 5.6610
 1.8240	 5.6540
 1.8250	 5.6470
 1.8260	 5.6420
 1.8270	 5.6450
 1.8280	 5.6410
 1.8290	 5.6330
 1.8300	 5.6220
 1.8310	 5.5890
 1.8320	 5.5710
 1.8330	 5.5560
 1.8340	 5.5350
 1.8350	 5.5040
 1.8360	 5.4750
 1.8370	 5.4550
 1.8380	 5.4480
 1.8390	 5.4210
 1.8400	 5.3740
 1.8410	 5.3460
 1.8420	 5.3290
 1.8430	 5.2800
 1.8440	 5.2480
 1.8450	 5.2110
 1.8460	 5.1460
 1.8470	 5.0950
 1.8480	 5.0450
 1.8490	 4.9900
 1.8500	 4.9320
 1.8510	 4.8740
 1.8520	 4.8050
 1.8530	 4.7370
 1.8540	 4.6730
 1.8550	 4.6150
 1.8560	 4.5510
 1.8570	 4.4730
 1.8580	 4.3970
 1.8590	 4.3100
 1.8600	 4.2080
 1.8610	 4.1110
 1.8620	 4.0220
 1.8630	 3.9160
 1.8640	 3.8180
 1.8650	 3.7270
 1.8660	 3.6320
 1.8670	 3.5330
 1.8680	 3.4230
 1.8690	 3.2980
 1.8700	 3.1860
 1.8710	 3.0690
 1.8720	 2.9640
 1.8730	 2.8610
 1.8740	 2.7710
 1.8750	 2.6720
 1.8760	 2.5570
 1.8770	 2.4530
 1.8780	 2.3390
 1.8790	 2.2230
 1.8800	 2.1200
 1.8810	 2.0240
 1.8820	 1.9280
 1.8830	 1.8490
 1.8840	 1.7810
 1.8850	 1.7080
 1.8860	 1.6520
 1.8870	 1.6190
 1.8880	 1.5720
 1.8890	 1.5260
 1.8900	 1.4830
 1.8910	 1.4350
 1.8920	 1.3690
 1.8930	 1.3200
 1.8940	 1.2810
 1.8950	 1.2460
 1.8960	 1.2020
 1.8970	 1.1560
 1.8980	 1.1260
 1.8990	 1.0940
 1.9000	 1.0700
 1.9010	 1.0650
 1.9020	 1.0550
 1.9030	 1.0440
 1.9040	 1.0400
 1.9050	 1.0430
 1.9060	 1.0450
 1.9070	 1.0460
 1.9080	 1.0450
 1.9090	 1.0280
 1.9100	 0.9990
 1.9110	 0.9790
 1.9120	 0.9410
 1.9130	 0.9290
 1.9140	 0.9300
 1.9150	 0.9480
 1.9160	 0.9650
 1.9170	 0.9770
 1.9180	 0.9700
 1.9190	 0.9550
 1.9200	 0.9400
 1.9210	 0.9400
 1.9220	 0.9370
 1.9230	 0.9330
 1.9240	 0.9380
 1.9250	 0.9540
 1.9260	 0.9610
 1.9270	 0.9610
 1.9280	 0.9630
 1.9290	 0.9450
 1.9300	 0.9140
 1.9310	 0.9020
 1.9320	 0.9140
 1.9330	 0.9160
 1.9340	 0.9250
 1.9350	 0.9310
 1.9360	 0.9330
 1.9370	 0.9310
 1.9380	 0.9250
 1.9390	 0.9310
 1.9400	 0.9380
 1.9410	 0.9510
 1.9420	 0.9650
 1.9430	 0.9700
 1.9440	 0.9690
 1.9450	 0.9500
 1.9460	 0.9440
 1.9470	 0.9340
 1.9480	 0.9360
 1.9490	 0.9470
 1.9500	 0.9590
 1.9510	 0.9680
 1.9520	 0.9740
 1.9530	 0.9690
 1.9540	 0.9590
 1.9550	 0.9530
 1.9560	 0.9380
 1.9570	 0.9400
 1.9580	 0.9510
 1.9590	 0.9640
 1.9600	 1.0050
 1.9610	 1.0200
 1.9620	 1.0280
 1.9630	 1.0250
 1.9640	 1.0060
 1.9650	 0.9830
 1.9660	 0.9750
 1.9670	 0.9700
 1.9680	 0.9730
 1.9690	 0.9920
 1.9700	 1.0000
 1.9710	 1.0100
 1.9720	 1.0180
 1.9730	 1.0190
 1.9740	 1.0310
 1.9750	 1.0430
 1.9760	 1.0410
 1.9770	 1.0540
 1.9780	 1.0570
 1.9790	 1.0600
 1.9800	 1.0720
 1.9810	 1.0740
 1.9820	 1.0570
 1.9830	 1.0570
 1.9840	 1.0650
 1.9850	 1.0660
 1.9860	 1.0660
 1.9870	 1.0810
 1.9880	 1.0880
 1.9890	 1.0790
 1.9900	 1.0890
 1.9910	 1.0930
 1.9920	 1.1050
 1.9930	 1.1310
 1.9940	 1.1430
 1.9950	 1.1560
 1.9960	 1.1640
 1.9970	 1.1470
 1.9980	 1.1510
 1.9990	 1.1680
 2.0000	 1.1810
 2.0010	 1.1890
 2.0020	 1.2060
 2.0030	 1.2100
 2.0040	 1.2070
 2.0050	 1.2120
 2.0060	 1.2210
 2.0070	 1.2290
 2.0080	 1.2410
 2.0090	 1.2490
 2.0100	 1.2510
 2.0110	 1.2580
 2.0120	 1.2610
 2.0130	 1.2680
 2.0140	 1.2810
 2.0150	 1.2980
 2.0160	 1.3080
 2.0170	 1.3160
 2.0180	 1.3210
 2.0190	 1.3190
 2.0200	 1.3270
 2.0210	 1.3390
 2.0220	 1.3480
 2.0230	 1.3660
 2.0240	 1.3700
 2.0250	 1.3590
 2.0260	 1.3600
 2.0270	 1.3560
 2.0280	 1.3670
 2.0290	 1.3740
 2.0300	 1.3870
 2.0310	 1.3950
 2.0320	 1.3940
 2.0330	 1.4030
 2.0340	 1.4150
 2.0350	 1.4310
 2.0360	 1.4540
 2.0370	 1.4730
 2.0380	 1.5020
 2.0390	 1.5170
 2.0400	 1.5260
 2.0410	 1.5290
 2.0420	 1.5180
 2.0430	 1.5070
 2.0440	 1.5110
 2.0450	 1.5230
 2.0460	 1.5270
 2.0470	 1.5340
 2.0480	 1.5480
 2.0490	 1.5620
 2.0500	 1.5710
 2.0510	 1.5960
 2.0520	 1.6030
 2.0530	 1.5810
 2.0540	 1.5810
 2.0550	 1.5930
 2.0560	 1.5940
 2.0570	 1.6080
 2.0580	 1.6240
 2.0590	 1.6340
 2.0600	 1.6360
 2.0610	 1.6460
 2.0620	 1.6560
 2.0630	 1.6670
 2.0640	 1.6790
 2.0650	 1.6930
 2.0660	 1.7090
 2.0670	 1.7240
 2.0680	 1.7480
 2.0690	 1.7590
 2.0700	 1.7610
 2.0710	 1.7650
 2.0720	 1.7660
 2.0730	 1.7570
 2.0740	 1.7640
 2.0750	 1.7740
 2.0760	 1.7940
 2.0770	 1.8290
 2.0780	 1.8540
 2.0790	 1.8910
 2.0800	 1.9060
 2.0810	 1.9000
 2.0820	 1.9050
 2.0830	 1.8980
 2.0840	 1.9040
 2.0850	 1.9240
 2.0860	 1.9380
 2.0870	 1.9580
 2.0880	 1.9720
 2.0890	 1.9850
 2.0900	 1.9960
 2.0910	 2.0070
 2.0920	 2.0140
 2.0930	 2.0270
 2.0940	 2.0450
 2.0950	 2.0530
 2.0960	 2.0620
 2.0970	 2.0660
 2.0980	 2.0500
 2.0990	 2.0550
 2.1000	 2.0680
 2.1010	 2.0870
 2.1020	 2.1300
 2.1030	 2.1550
 2.1040	 2.1730
 2.1050	 2.1970
 2.1060	 2.2060
 2.1070	 2.1990
 2.1080	 2.2030
 2.1090	 2.2010
 2.1100	 2.2130
 2.1110	 2.2380
 2.1120	 2.2530
 2.1130	 2.2720
 2.1140	 2.2860
 2.1150	 2.2880
 2.1160	 2.2960
 2.1170	 2.3100
 2.1180	 2.3160
 2.1190	 2.3100
 2.1200	 2.3170
 2.1210	 2.3220
 2.1220	 2.3320
 2.1230	 2.3550
 2.1240	 2.3990
 2.1250	 2.4200
 2.1260	 2.4390
 2.1270	 2.4570
 2.1280	 2.4660
 2.1290	 2.4720
 2.1300	 2.4810
 2.1310	 2.4850
 2.1320	 2.4690
 2.1330	 2.4730
 2.1340	 2.4830
 2.1350	 2.4980
 2.1360	 2.5400
 2.1370	 2.5560
 2.1380	 2.5580
 2.1390	 2.5650
 2.1400	 2.5620
 2.1410	 2.5470
 2.1420	 2.5500
 2.1430	 2.5690
 2.1440	 2.5760
 2.1450	 2.5810
 2.1460	 2.5890
 2.1470	 2.5890
 2.1480	 2.6050
 2.1490	 2.6410
 2.1500	 2.6580
 2.1510	 2.6770
 2.1520	 2.6910
 2.1530	 2.6880
 2.1540	 2.6950
 2.1550	 2.7080
 2.1560	 2.7190
 2.1570	 2.7340
 2.1580	 2.7420
 2.1590	 2.7450
 2.1600	 2.7480
 2.1610	 2.7370
 2.1620	 2.7550
 2.1630	 2.7640
 2.1640	 2.7820
 2.1650	 2.7880
 2.1660	 2.7900
 2.1670	 2.7940
 2.1680	 2.7950
 2.1690	 2.7990
 2.1700	 2.8090
 2.1710	 2.8160
 2.1720	 2.8230
 2.1730	 2.8300
 2.1740	 2.8440
 2.1750	 2.8470
 2.1760	 2.8410
 2.1770	 2.8410
 2.1780	 2.8330
 2.1790	 2.8330
 2.1800	 2.8400
 2.1810	 2.8500
 2.1820	 2.8660
 2.1830	 2.8890
 2.1840	 2.8920
 2.1850	 2.8920
 2.1860	 2.8840
 2.1870	 2.8550
 2.1880	 2.8490
 2.1890	 2.8470
 2.1900	 2.8550
 2.1910	 2.8780
 2.1920	 2.8940
 2.1930	 2.9270
 2.1940	 2.9330
 2.1950	 2.9180
 2.1960	 2.9140
 2.1970	 2.8990
 2.1980	 2.8930
 2.1990	 2.8910
 2.2000	 2.9030
 2.2010	 2.9280
 2.2020	 2.9440
 2.2030	 2.9790
 2.2040	 2.9970
 2.2050	 3.0010
 2.2060	 2.9990
 2.2070	 2.9980
 2.2080	 2.9950
 2.2090	 2.9820
 2.2100	 2.9590
 2.2110	 2.9430
 2.2120	 2.9120
 2.2130	 2.9040
 2.2140	 2.9090
 2.2150	 2.9170
 2.2160	 2.9430
 2.2170	 2.9560
 2.2180	 2.9750
 2.2190	 2.9770
 2.2200	 2.9660
 2.2210	 2.9560
 2.2220	 2.9320
 2.2230	 2.9200
 2.2240	 2.9080
 2.2250	 2.9060
 2.2260	 2.9260
 2.2270	 2.9280
 2.2280	 2.9230
 2.2290	 2.9250
 2.2300	 2.9180
 2.2310	 2.9130
 2.2320	 2.9180
 2.2330	 2.9230
 2.2340	 2.9230
 2.2350	 2.9190
 2.2360	 2.9040
 2.2370	 2.8820
 2.2380	 2.8670
 2.2390	 2.8420
 2.2400	 2.8300
 2.2410	 2.8240
 2.2420	 2.8230
 2.2430	 2.8290
 2.2440	 2.8300
 2.2450	 2.8390
 2.2460	 2.8440
 2.2470	 2.8460
 2.2480	 2.8460
 2.2490	 2.8490
 2.2500	 2.8480
 2.2510	 2.8480
 2.2520	 2.8360
 2.2530	 2.8110
 2.2540	 2.7960
 2.2550	 2.7790
 2.2560	 2.7630
 2.2570	 2.7690
 2.2580	 2.7500
 2.2590	 2.6900
 2.2600	 2.6650
 2.2610	 2.6420
 2.2620	 2.6370
 2.2630	 2.6470
 2.2640	 2.6880
 2.2650	 2.6760
 2.2660	 2.6560
 2.2670	 2.6390
 2.2680	 2.6060
 2.2690	 2.5820
 2.2700	 2.5610
 2.2710	 2.5450
 2.2720	 2.5260
 2.2730	 2.5220
 2.2740	 2.5370
 2.2750	 2.5370
 2.2760	 2.5350
 2.2770	 2.5330
 2.2780	 2.5330
 2.2790	 2.5210
 2.2800	 2.4980
 2.2810	 2.4840
 2.2820	 2.4520
 2.2830	 2.4410
 2.2840	 2.4600
 2.2850	 2.4540
 2.2860	 2.4430
 2.2870	 2.4320
 2.2880	 2.4060
 2.2890	 2.3910
 2.2900	 2.3790
 2.2910	 2.3710
 2.2920	 2.3640
 2.2930	 2.3570
 2.2940	 2.3590
 2.2950	 2.3590
 2.2960	 2.3670
 2.2970	 2.3630
 2.2980	 2.3520
 2.2990	 2.3400
 2.3000	 2.3270
 2.3010	 2.2930
 2.3020	 2.2810
 2.3030	 2.2770
 2.3040	 2.2510
 2.3050	 2.2450
 2.3060	 2.2340
 2.3070	 2.2270
 2.3080	 2.2520
 2.3090	 2.2710
 2.3100	 2.2670
 2.3110	 2.2420
 2.3120	 2.2150
 2.3130	 2.1590
 2.3140	 2.1220
 2.3150	 2.0910
 2.3160	 2.0710
 2.3170	 2.0490
 2.3180	 2.0400
 2.3190	 2.0460
 2.3200	 2.0510
 2.3210	 2.0700
 2.3220	 2.0770
 2.3230	 2.0940
 2.3240	 2.0910
 2.3250	 2.0640
 2.3260	 2.0490
 2.3270	 2.0240
 2.3280	 2.0080
 2.3290	 1.9990
 2.3300	 1.9970
 2.3310	 2.0160
 2.3320	 2.0070
 2.3330	 1.9830
 2.3340	 1.9670
 2.3350	 1.9270
 2.3360	 1.9060
 2.3370	 1.9060
 2.3380	 1.9000
 2.3390	 1.9070
 2.3400	 1.8900
 2.3410	 1.8510
 2.3420	 1.8360
 2.3430	 1.8060
 2.3440	 1.8020
 2.3450	 1.8460
 2.3460	 1.8580
 2.3470	 1.8450
 2.3480	 1.8590
 2.3490	 1.8880
 2.3500	 1.8990
 2.3510	 1.9390
 2.3520	 1.9450
 2.3530	 1.9130
 2.3540	 1.8790
 2.3550	 1.8360
 2.3560	 1.8030
 2.3570	 1.7830
 2.3580	 1.7470
 2.3590	 1.7180
 2.3600	 1.6950
 2.3610	 1.7000
 2.3620	 1.7230
 2.3630	 1.7430
 2.3640	 1.7680
 2.3650	 1.7710
 2.3660	 1.7490
 2.3670	 1.7530
 2.3680	 1.7300
 2.3690	 1.7020
 2.3700	 1.7060
 2.3710	 1.6680
 2.3720	 1.6470
 2.3730	 1.6170
 2.3740	 1.5530
 2.3750	 1.5470
 2.3760	 1.5680
 2.3770	 1.5810
 2.3780	 1.6280
 2.3790	 1.6710
 2.3800	 1.6610
 2.3810	 1.6710
 2.3820	 1.6410
 2.3830	 1.5780
 2.3840	 1.5720
 2.3850	 1.5350
 2.3860	 1.5210
 2.3870	 1.5320
 2.3880	 1.5090
 2.3890	 1.5410
 2.3900	 1.5810
 2.3910	 1.5730
 2.3920	 1.5750
 2.3930	 1.5740
 2.3940	 1.5590
 2.3950	 1.5860
 2.3960	 1.6300
 2.3970	 1.6160
 2.3980	 1.5620
 2.3990	 1.4880
 2.4000	 1.3730
 2.4010	 1.2930
 2.4020	 1.3010
 2.4030	 1.3200
 2.4040	 1.3440
 2.4050	 1.3740
 2.4060	 1.3720
 2.4070	 1.3820
 2.4080	 1.4170
 2.4090	 1.4380
 2.4100	 1.4490
 2.4110	 1.4340
 2.4120	 1.3790
 2.4130	 1.3560
 2.4140	 1.3690
 2.4150	 1.3940
 2.4160	 1.4660
 2.4170	 1.5180
 2.4180	 1.5240
 2.4190	 1.5190
 2.4200	 1.5290
 2.4210	 1.5180
 2.4220	 1.5150
 2.4230	 1.5370
 2.4240	 1.4730
 2.4250	 1.4290
 2.4260	 1.4440
 2.4270	 1.4290
 2.4280	 1.4420
 2.4290	 1.4070
 2.4300	 1.3220
 2.4310	 1.3320
 2.4320	 1.2980
 2.4330	 1.2480
 2.4340	 1.2450
 2.4350	 1.1330
 2.4360	 1.0060
 2.4370	 0.9530
 2.4380	 0.9570
 2.4390	 0.9790
 2.4400	 1.0250
 2.4410	 1.1230
 2.4420	 1.1450
 2.4430	 1.1770
 2.4440	 1.2510
 2.4450	 1.2480
 2.4460	 1.2730
 2.4470	 1.3180
 2.4480	 1.2990
 2.4490	 1.2590
 2.4500	 1.2140
 2.4510	 1.1110
 2.4520	 1.0990
 2.4530	 1.2150
 2.4540	 1.2900
 2.4550	 1.3710
 2.4560	 1.3590
 2.4570	 1.3130
 2.4580	 1.3390
 2.4590	 1.3350
 2.4600	 1.3330
 2.4610	 1.2540
 2.4620	 1.1470
 2.4630	 1.1770
 2.4640	 1.2480
 2.4650	 1.3190
 2.4660	 1.3780
 2.4670	 1.3200
 2.4680	 1.3000
 2.4690	 1.3720
 2.4700	 1.3590
 2.4710	 1.2730
 2.4720	 1.2260
 2.4730	 1.0990
 2.4740	 1.1620
 2.4750	 1.4400
 2.4760	 1.5160
 2.4770	 1.6340
 2.4780	 1.6250
 2.4790	 1.3630
 2.4800	 1.3380
 2.4810	 1.4240
 2.4820	 1.3840
 2.4830	 1.3720
 2.4840	 1.3700
 2.4850	 1.1890
 2.4860	 1.1100
 2.4870	 1.2960
 2.4880	 1.2180
 2.4890	 1.1770
 2.4900	 1.4050
 2.4910	 1.2640
 2.4920	 1.1470
 2.4930	 1.1370
 2.4940	 1.1110
 2.4950	 1.4320
 2.4960	 1.6780
 2.4970	 1.7730
 2.4980	 1.6800
 2.4990	 1.3620
 2.5000	 1.1700
