Name: Heteromeles arbutifolia 2
Type: vegetation
Class: Shrub
Genus: Heteromeles
Species: arbutifolia
Sample No.: VH136
Owner: UCSB
Wavelength Range: TIR
Origin: 34.4907; -119.7912; WGS84
Collection Date: 6/3/2013
Description: Samples were collected as part of the HyspIRI Airborne Campaign. 48 individual plants were sampled in three times in 2013 - spring  summer  and fall. The name of the sample includes a 1  2  or 3 which references a different individual of the species. Samples were taken to JPL and processed within 48 hours of collection. The same leaves were processed in the Nicolet and then measured using the ASD.
Measurement: Hemispherical reflectance
First Column: X
Second Column: Y
X Units: Wavelength (micrometers)
Y Units: Reflectance (percentage)
First X Value: 2.501
Last X Value: 15.387
Number of X Values: 1737
Additional Information: vegetation.shrub.heteromeles.arbutifolia.tir.vh136.ucsb.nicolet.ancillary.txt

 2.5010	 7.2340
 2.5030	 7.1450
 2.5040	 7.1030
 2.5050	 7.0370
 2.5060	 7.0630
 2.5070	 7.0490
 2.5090	 7.1250
 2.5100	 7.0810
 2.5110	 7.0120
 2.5120	 6.9330
 2.5140	 6.8680
 2.5150	 6.8980
 2.5160	 7.0950
 2.5170	 7.0590
 2.5180	 6.9590
 2.5200	 6.8220
 2.5210	 6.9280
 2.5220	 6.8330
 2.5230	 6.7340
 2.5250	 6.9070
 2.5260	 7.0420
 2.5270	 6.8730
 2.5280	 6.8100
 2.5290	 6.7440
 2.5310	 6.7940
 2.5320	 6.8010
 2.5330	 6.8630
 2.5340	 6.8370
 2.5360	 6.8880
 2.5370	 6.8690
 2.5380	 6.9680
 2.5390	 6.9160
 2.5410	 6.8710
 2.5420	 6.8880
 2.5430	 7.0810
 2.5440	 7.1080
 2.5460	 7.0110
 2.5470	 6.8420
 2.5480	 6.9100
 2.5490	 6.8850
 2.5510	 6.9620
 2.5520	 7.0230
 2.5530	 7.0220
 2.5540	 6.9230
 2.5560	 6.9540
 2.5570	 6.9420
 2.5580	 6.9750
 2.5590	 6.9600
 2.5610	 6.9280
 2.5620	 6.9200
 2.5630	 6.9470
 2.5640	 6.8790
 2.5660	 6.9060
 2.5670	 6.7990
 2.5680	 6.8110
 2.5700	 6.8720
 2.5710	 6.9150
 2.5720	 6.8540
 2.5730	 6.8960
 2.5750	 6.9340
 2.5760	 6.9430
 2.5770	 6.8580
 2.5790	 6.9000
 2.5800	 6.8590
 2.5810	 6.8250
 2.5820	 6.7940
 2.5840	 6.8390
 2.5850	 6.8690
 2.5860	 6.8550
 2.5880	 6.7620
 2.5890	 6.7920
 2.5900	 6.7050
 2.5910	 6.8210
 2.5930	 6.7860
 2.5940	 6.7740
 2.5950	 6.6910
 2.5970	 6.6300
 2.5980	 6.5960
 2.5990	 6.6980
 2.6000	 6.7720
 2.6020	 6.6630
 2.6030	 6.4700
 2.6040	 6.5540
 2.6060	 6.6430
 2.6070	 6.6830
 2.6080	 6.5520
 2.6100	 6.5030
 2.6110	 6.5010
 2.6120	 6.5300
 2.6140	 6.4300
 2.6150	 6.4300
 2.6160	 6.3610
 2.6180	 6.3600
 2.6190	 6.2720
 2.6200	 6.3390
 2.6220	 6.3710
 2.6230	 6.3940
 2.6240	 6.3120
 2.6260	 6.3650
 2.6270	 6.3090
 2.6280	 6.2690
 2.6300	 6.1490
 2.6310	 6.1050
 2.6320	 6.1450
 2.6340	 6.2020
 2.6350	 6.0670
 2.6360	 6.1590
 2.6380	 6.1690
 2.6390	 6.0450
 2.6400	 5.9640
 2.6420	 6.0780
 2.6430	 5.9360
 2.6440	 5.9090
 2.6460	 5.9620
 2.6470	 5.9540
 2.6480	 5.8040
 2.6500	 5.7760
 2.6510	 5.7880
 2.6520	 5.8220
 2.6540	 5.7180
 2.6550	 5.7790
 2.6560	 5.7820
 2.6580	 5.7160
 2.6590	 5.6690
 2.6610	 5.8060
 2.6620	 5.7890
 2.6630	 5.7520
 2.6650	 5.7800
 2.6660	 5.8160
 2.6670	 5.7520
 2.6690	 5.7790
 2.6700	 5.6890
 2.6720	 5.6260
 2.6730	 5.5600
 2.6740	 5.5810
 2.6760	 5.5940
 2.6770	 5.5370
 2.6780	 5.4480
 2.6800	 5.5590
 2.6810	 5.5770
 2.6830	 5.5710
 2.6840	 5.6000
 2.6850	 5.5980
 2.6870	 5.5340
 2.6880	 5.5570
 2.6900	 5.4790
 2.6910	 5.4660
 2.6920	 5.4590
 2.6940	 5.4720
 2.6950	 5.5190
 2.6970	 5.7130
 2.6980	 5.6260
 2.6990	 5.6120
 2.7010	 5.6130
 2.7020	 5.7020
 2.7040	 5.6430
 2.7050	 5.6330
 2.7060	 5.5610
 2.7080	 5.6400
 2.7090	 5.6790
 2.7110	 5.7630
 2.7120	 5.6880
 2.7130	 5.6460
 2.7150	 5.6590
 2.7160	 5.7290
 2.7180	 5.7670
 2.7190	 5.7810
 2.7210	 5.7440
 2.7220	 5.7960
 2.7230	 5.6190
 2.7250	 5.5610
 2.7260	 5.5680
 2.7280	 5.5540
 2.7290	 5.5640
 2.7310	 5.6570
 2.7320	 5.7070
 2.7330	 5.7260
 2.7350	 5.6600
 2.7360	 5.8090
 2.7380	 5.7940
 2.7390	 5.7930
 2.7410	 5.8400
 2.7420	 5.8860
 2.7440	 5.7860
 2.7450	 5.8460
 2.7470	 5.7530
 2.7480	 5.7730
 2.7490	 5.7930
 2.7510	 5.8310
 2.7520	 5.8230
 2.7540	 5.7840
 2.7550	 5.6990
 2.7570	 5.7930
 2.7580	 5.8720
 2.7600	 5.9230
 2.7610	 5.8320
 2.7630	 5.8030
 2.7640	 5.7830
 2.7660	 5.8550
 2.7670	 5.7770
 2.7680	 5.8480
 2.7700	 5.8110
 2.7710	 5.7870
 2.7730	 5.7770
 2.7740	 5.9360
 2.7760	 5.8480
 2.7770	 5.7380
 2.7790	 5.6850
 2.7800	 5.7160
 2.7820	 5.7320
 2.7830	 5.8290
 2.7850	 5.8470
 2.7860	 5.9510
 2.7880	 5.9430
 2.7890	 5.9130
 2.7910	 5.8620
 2.7920	 5.8680
 2.7940	 5.8150
 2.7950	 5.9390
 2.7970	 6.0000
 2.7980	 6.0840
 2.8000	 5.9210
 2.8010	 5.8290
 2.8030	 5.8370
 2.8040	 5.8860
 2.8060	 5.8300
 2.8070	 5.9180
 2.8090	 5.8750
 2.8110	 5.9510
 2.8120	 5.9590
 2.8140	 5.9460
 2.8150	 5.8680
 2.8170	 5.9220
 2.8180	 6.0060
 2.8200	 5.9300
 2.8210	 5.7500
 2.8230	 5.8620
 2.8240	 5.8890
 2.8260	 6.0320
 2.8270	 6.0430
 2.8290	 6.0900
 2.8300	 5.8360
 2.8320	 5.8070
 2.8340	 6.0200
 2.8350	 6.1530
 2.8370	 5.9960
 2.8380	 5.9230
 2.8400	 5.8890
 2.8410	 5.9800
 2.8430	 5.9450
 2.8440	 5.9650
 2.8460	 5.9220
 2.8480	 6.0050
 2.8490	 5.9630
 2.8510	 5.9080
 2.8520	 5.8500
 2.8540	 5.8530
 2.8550	 5.9560
 2.8570	 6.0860
 2.8590	 5.9510
 2.8600	 5.9080
 2.8620	 5.9090
 2.8630	 5.9450
 2.8650	 5.9290
 2.8660	 6.1010
 2.8680	 6.1370
 2.8700	 6.1900
 2.8710	 6.0370
 2.8730	 5.9890
 2.8740	 5.8740
 2.8760	 5.9250
 2.8780	 6.0820
 2.8790	 6.1680
 2.8810	 6.1010
 2.8820	 6.0170
 2.8840	 5.9040
 2.8860	 5.9360
 2.8870	 5.8220
 2.8890	 5.8200
 2.8900	 5.8620
 2.8920	 6.0100
 2.8940	 6.0200
 2.8950	 6.0640
 2.8970	 5.8230
 2.8980	 5.8830
 2.9000	 5.9500
 2.9020	 5.9820
 2.9030	 5.9310
 2.9050	 6.0270
 2.9070	 5.9340
 2.9080	 5.8170
 2.9100	 5.7840
 2.9120	 5.9740
 2.9130	 5.9980
 2.9150	 6.0420
 2.9160	 6.0520
 2.9180	 6.1360
 2.9200	 6.0560
 2.9210	 5.9780
 2.9230	 5.9250
 2.9250	 5.8860
 2.9260	 5.8260
 2.9280	 5.9070
 2.9300	 5.8880
 2.9310	 5.9300
 2.9330	 5.8390
 2.9350	 5.7990
 2.9360	 5.8680
 2.9380	 6.0670
 2.9400	 6.1070
 2.9410	 6.0380
 2.9430	 5.8940
 2.9450	 5.9400
 2.9460	 5.9550
 2.9480	 6.0460
 2.9500	 5.9780
 2.9510	 5.9890
 2.9530	 6.0610
 2.9550	 6.1110
 2.9560	 6.0340
 2.9580	 6.0130
 2.9600	 6.0040
 2.9610	 6.0440
 2.9630	 5.8860
 2.9650	 5.8900
 2.9660	 5.9220
 2.9680	 6.0280
 2.9700	 5.9420
 2.9720	 5.8750
 2.9730	 5.8480
 2.9750	 5.9480
 2.9770	 5.9940
 2.9780	 6.0850
 2.9800	 5.9480
 2.9820	 5.8140
 2.9840	 5.7040
 2.9850	 5.8140
 2.9870	 5.8810
 2.9890	 5.9350
 2.9900	 5.9140
 2.9920	 5.9320
 2.9940	 5.8670
 2.9960	 5.9400
 2.9970	 5.9060
 2.9990	 5.8900
 3.0010	 5.8720
 3.0030	 5.9350
 3.0040	 5.8560
 3.0060	 5.8260
 3.0080	 5.8080
 3.0100	 5.8610
 3.0110	 5.9070
 3.0130	 6.0280
 3.0150	 5.9130
 3.0170	 5.8950
 3.0180	 5.8490
 3.0200	 5.8280
 3.0220	 5.7450
 3.0240	 5.7820
 3.0250	 5.7840
 3.0270	 5.8390
 3.0290	 5.8470
 3.0310	 5.9590
 3.0320	 5.9550
 3.0340	 5.8770
 3.0360	 5.8230
 3.0380	 5.8390
 3.0400	 5.7770
 3.0410	 5.8520
 3.0430	 5.9080
 3.0450	 6.0140
 3.0470	 5.9450
 3.0480	 5.9000
 3.0500	 5.8290
 3.0520	 5.8900
 3.0540	 5.7640
 3.0560	 5.7040
 3.0570	 5.7360
 3.0590	 5.8080
 3.0610	 5.6850
 3.0630	 5.6530
 3.0650	 5.7150
 3.0660	 5.8080
 3.0680	 5.7580
 3.0700	 5.7950
 3.0720	 5.7800
 3.0740	 5.8070
 3.0760	 5.7690
 3.0770	 5.8750
 3.0790	 5.7300
 3.0810	 5.6860
 3.0830	 5.7450
 3.0850	 5.7800
 3.0870	 5.5930
 3.0880	 5.6100
 3.0900	 5.7510
 3.0920	 5.7240
 3.0940	 5.6290
 3.0960	 5.7270
 3.0980	 5.7390
 3.0990	 5.7780
 3.1010	 5.6620
 3.1030	 5.6090
 3.1050	 5.5920
 3.1070	 5.6560
 3.1090	 5.6210
 3.1110	 5.5740
 3.1120	 5.5840
 3.1140	 5.7140
 3.1160	 5.7360
 3.1180	 5.7500
 3.1200	 5.7210
 3.1220	 5.6840
 3.1240	 5.6050
 3.1260	 5.6620
 3.1270	 5.6250
 3.1290	 5.6080
 3.1310	 5.6680
 3.1330	 5.7570
 3.1350	 5.6580
 3.1370	 5.6270
 3.1390	 5.5560
 3.1410	 5.5710
 3.1430	 5.5660
 3.1450	 5.5810
 3.1460	 5.5160
 3.1480	 5.6130
 3.1500	 5.6210
 3.1520	 5.6570
 3.1540	 5.7100
 3.1560	 5.7440
 3.1580	 5.6750
 3.1600	 5.6160
 3.1620	 5.5180
 3.1640	 5.5910
 3.1660	 5.6150
 3.1680	 5.6040
 3.1700	 5.4200
 3.1710	 5.4160
 3.1730	 5.4690
 3.1750	 5.5670
 3.1770	 5.4910
 3.1790	 5.4770
 3.1810	 5.4770
 3.1830	 5.5350
 3.1850	 5.5420
 3.1870	 5.5700
 3.1890	 5.5210
 3.1910	 5.5590
 3.1930	 5.5140
 3.1950	 5.5030
 3.1970	 5.5270
 3.1990	 5.5340
 3.2010	 5.4860
 3.2030	 5.5650
 3.2050	 5.5340
 3.2070	 5.4940
 3.2090	 5.4050
 3.2110	 5.5030
 3.2130	 5.5510
 3.2150	 5.5370
 3.2170	 5.4710
 3.2190	 5.4750
 3.2210	 5.4380
 3.2230	 5.4010
 3.2250	 5.3590
 3.2270	 5.4980
 3.2290	 5.5840
 3.2310	 5.5050
 3.2330	 5.3180
 3.2350	 5.2760
 3.2370	 5.3160
 3.2390	 5.4750
 3.2410	 5.4960
 3.2430	 5.4440
 3.2450	 5.3580
 3.2470	 5.3990
 3.2490	 5.3790
 3.2510	 5.4190
 3.2530	 5.5290
 3.2550	 5.5410
 3.2570	 5.3770
 3.2590	 5.3590
 3.2610	 5.3700
 3.2630	 5.3570
 3.2650	 5.3510
 3.2670	 5.4420
 3.2690	 5.4160
 3.2720	 5.3400
 3.2740	 5.3490
 3.2760	 5.3950
 3.2780	 5.3300
 3.2800	 5.2880
 3.2820	 5.2540
 3.2840	 5.3130
 3.2860	 5.2600
 3.2880	 5.3390
 3.2900	 5.3060
 3.2920	 5.2930
 3.2940	 5.3360
 3.2960	 5.4120
 3.2990	 5.3080
 3.3010	 5.2190
 3.3030	 5.2370
 3.3050	 5.2530
 3.3070	 5.1530
 3.3090	 5.2400
 3.3110	 5.2220
 3.3130	 5.1910
 3.3150	 5.1650
 3.3180	 5.1730
 3.3200	 5.1620
 3.3220	 5.1930
 3.3240	 5.1580
 3.3260	 5.1370
 3.3280	 5.0210
 3.3300	 5.0660
 3.3330	 5.0330
 3.3350	 5.0710
 3.3370	 5.0900
 3.3390	 5.1600
 3.3410	 5.1730
 3.3430	 5.1830
 3.3450	 5.1040
 3.3480	 5.0380
 3.3500	 4.9930
 3.3520	 5.0320
 3.3540	 4.9660
 3.3560	 4.9870
 3.3580	 4.9770
 3.3610	 4.9980
 3.3630	 4.9410
 3.3650	 4.9150
 3.3670	 4.8770
 3.3690	 4.9440
 3.3720	 4.9360
 3.3740	 5.0010
 3.3760	 5.0070
 3.3780	 4.9840
 3.3800	 4.9460
 3.3830	 4.9820
 3.3850	 5.0040
 3.3870	 4.9970
 3.3890	 4.8250
 3.3910	 4.8570
 3.3940	 4.9520
 3.3960	 4.9860
 3.3980	 5.0200
 3.4000	 5.1420
 3.4020	 5.2820
 3.4050	 5.4090
 3.4070	 5.5680
 3.4090	 5.8470
 3.4110	 6.1130
 3.4140	 6.5340
 3.4160	 6.8430
 3.4180	 7.2720
 3.4200	 7.8190
 3.4230	 8.6610
 3.4250	 9.6590
 3.4270	10.6350
 3.4290	11.0180
 3.4320	10.4260
 3.4340	 9.2900
 3.4360	 8.4510
 3.4390	 7.9550
 3.4410	 7.6620
 3.4430	 7.3260
 3.4450	 7.1440
 3.4480	 7.0960
 3.4500	 7.0420
 3.4520	 6.9570
 3.4550	 6.9950
 3.4570	 6.8670
 3.4590	 6.7560
 3.4620	 6.6430
 3.4640	 6.6140
 3.4660	 6.5960
 3.4680	 6.5230
 3.4710	 6.3590
 3.4730	 6.2700
 3.4750	 6.1790
 3.4780	 6.1800
 3.4800	 6.1630
 3.4820	 6.2470
 3.4850	 6.1170
 3.4870	 5.9870
 3.4890	 5.9730
 3.4920	 6.0500
 3.4940	 5.9920
 3.4970	 6.0610
 3.4990	 6.2470
 3.5010	 6.6190
 3.5040	 7.0700
 3.5060	 7.8250
 3.5080	 9.0640
 3.5110	10.0260
 3.5130	 9.5800
 3.5160	 8.5510
 3.5180	 7.8010
 3.5200	 7.4250
 3.5230	 7.1550
 3.5250	 6.9200
 3.5270	 6.7730
 3.5300	 6.7190
 3.5320	 6.6110
 3.5350	 6.5320
 3.5370	 6.4570
 3.5400	 6.5000
 3.5420	 6.4200
 3.5440	 6.2960
 3.5470	 6.2720
 3.5490	 6.3520
 3.5520	 6.3680
 3.5540	 6.3720
 3.5570	 6.3000
 3.5590	 6.2290
 3.5610	 6.1620
 3.5640	 6.1840
 3.5660	 6.1740
 3.5690	 6.1910
 3.5710	 6.1340
 3.5740	 6.1670
 3.5760	 6.1770
 3.5790	 6.1790
 3.5810	 6.1220
 3.5840	 6.1300
 3.5860	 6.0520
 3.5890	 6.0080
 3.5910	 5.9190
 3.5930	 6.0170
 3.5960	 6.0450
 3.5980	 6.0990
 3.6010	 6.0900
 3.6030	 6.1010
 3.6060	 6.0820
 3.6080	 6.0400
 3.6110	 5.9930
 3.6140	 5.9970
 3.6160	 5.9770
 3.6190	 6.0340
 3.6210	 6.0360
 3.6240	 6.0260
 3.6260	 6.0320
 3.6290	 6.0290
 3.6310	 5.9650
 3.6340	 6.0540
 3.6360	 6.0230
 3.6390	 5.9760
 3.6410	 5.9620
 3.6440	 5.9950
 3.6470	 5.9390
 3.6490	 5.9360
 3.6520	 5.9210
 3.6540	 5.9640
 3.6570	 5.9200
 3.6590	 5.9100
 3.6620	 5.8960
 3.6650	 5.8580
 3.6670	 5.8570
 3.6700	 5.9460
 3.6720	 5.9170
 3.6750	 5.9330
 3.6780	 5.8840
 3.6800	 5.8740
 3.6830	 5.8820
 3.6850	 5.8730
 3.6880	 5.8520
 3.6910	 5.9760
 3.6930	 5.9930
 3.6960	 5.9270
 3.6990	 5.8580
 3.7010	 5.8220
 3.7040	 5.7490
 3.7060	 5.8190
 3.7090	 5.8470
 3.7120	 5.8370
 3.7140	 5.8210
 3.7170	 5.8740
 3.7200	 5.8810
 3.7220	 5.8720
 3.7250	 5.8730
 3.7280	 5.9070
 3.7300	 5.8460
 3.7330	 5.8130
 3.7360	 5.8380
 3.7390	 5.8640
 3.7410	 5.7990
 3.7440	 5.8110
 3.7470	 5.8440
 3.7490	 5.8650
 3.7520	 5.9270
 3.7550	 6.0130
 3.7580	 5.9120
 3.7600	 5.7840
 3.7630	 5.8150
 3.7660	 5.8940
 3.7680	 5.8630
 3.7710	 5.8330
 3.7740	 5.8350
 3.7770	 5.8780
 3.7790	 5.8360
 3.7820	 5.8130
 3.7850	 5.7510
 3.7880	 5.7600
 3.7900	 5.8150
 3.7930	 5.8650
 3.7960	 5.8690
 3.7990	 5.9070
 3.8020	 5.9110
 3.8040	 5.8900
 3.8070	 5.8350
 3.8100	 5.8180
 3.8130	 5.8360
 3.8160	 5.8220
 3.8180	 5.7850
 3.8210	 5.8080
 3.8240	 5.8210
 3.8270	 5.8360
 3.8300	 5.8240
 3.8330	 5.8660
 3.8350	 5.8540
 3.8380	 5.8080
 3.8410	 5.7690
 3.8440	 5.8020
 3.8470	 5.8450
 3.8500	 5.9050
 3.8520	 5.9050
 3.8550	 5.9200
 3.8580	 5.8640
 3.8610	 5.7950
 3.8640	 5.8160
 3.8670	 5.8700
 3.8700	 5.8910
 3.8730	 5.9250
 3.8750	 5.9060
 3.8780	 5.8430
 3.8810	 5.8400
 3.8840	 5.8800
 3.8870	 5.8890
 3.8900	 5.9080
 3.8930	 5.8210
 3.8960	 5.8340
 3.8990	 5.8650
 3.9020	 5.8950
 3.9050	 5.8200
 3.9080	 5.7470
 3.9110	 5.7500
 3.9140	 5.7830
 3.9160	 5.7560
 3.9190	 5.7250
 3.9220	 5.6810
 3.9250	 5.7650
 3.9280	 5.8090
 3.9310	 5.8490
 3.9340	 5.8310
 3.9370	 5.8120
 3.9400	 5.7640
 3.9430	 5.8370
 3.9460	 5.8910
 3.9490	 5.9120
 3.9520	 5.8450
 3.9550	 5.8270
 3.9580	 5.8140
 3.9610	 5.7750
 3.9640	 5.7660
 3.9670	 5.8100
 3.9700	 5.8380
 3.9730	 5.8570
 3.9770	 5.8250
 3.9800	 5.7930
 3.9830	 5.7500
 3.9860	 5.7980
 3.9890	 5.7900
 3.9920	 5.7710
 3.9950	 5.7630
 3.9980	 5.8390
 4.0010	 5.8490
 4.0040	 5.8070
 4.0070	 5.8150
 4.0100	 5.8160
 4.0130	 5.8180
 4.0170	 5.8450
 4.0200	 5.7980
 4.0230	 5.7340
 4.0260	 5.6750
 4.0290	 5.7340
 4.0320	 5.7740
 4.0350	 5.7870
 4.0380	 5.7630
 4.0420	 5.7870
 4.0450	 5.7620
 4.0480	 5.7640
 4.0510	 5.7630
 4.0540	 5.8070
 4.0570	 5.8150
 4.0610	 5.7930
 4.0640	 5.7880
 4.0670	 5.7990
 4.0700	 5.7850
 4.0730	 5.7720
 4.0770	 5.7640
 4.0800	 5.8040
 4.0830	 5.7920
 4.0860	 5.7380
 4.0890	 5.7050
 4.0930	 5.7270
 4.0960	 5.7200
 4.0990	 5.7310
 4.1020	 5.7840
 4.1060	 5.8710
 4.1090	 5.8270
 4.1120	 5.7330
 4.1150	 5.6580
 4.1190	 5.6320
 4.1220	 5.6740
 4.1250	 5.7800
 4.1280	 5.8120
 4.1320	 5.8310
 4.1350	 5.8340
 4.1380	 5.8330
 4.1420	 5.8190
 4.1450	 5.7930
 4.1480	 5.7670
 4.1520	 5.7310
 4.1550	 5.7110
 4.1580	 5.7740
 4.1620	 5.7550
 4.1650	 5.7300
 4.1680	 5.7230
 4.1720	 5.7210
 4.1750	 5.7120
 4.1780	 5.7340
 4.1820	 5.7320
 4.1850	 5.7230
 4.1890	 5.6630
 4.1920	 5.7050
 4.1950	 5.7860
 4.1990	 5.7510
 4.2020	 5.6680
 4.2060	 5.6670
 4.2090	 5.6260
 4.2120	 5.5640
 4.2160	 5.6390
 4.2190	 5.8200
 4.2230	 5.8410
 4.2260	 5.7970
 4.2300	 5.7690
 4.2330	 5.7940
 4.2360	 5.8130
 4.2400	 5.8350
 4.2430	 5.7950
 4.2470	 5.8030
 4.2500	 5.7420
 4.2540	 5.6850
 4.2570	 5.6150
 4.2610	 5.6680
 4.2640	 5.6980
 4.2680	 5.8180
 4.2710	 5.8040
 4.2750	 5.6800
 4.2780	 5.6860
 4.2820	 5.8020
 4.2850	 5.7220
 4.2890	 5.7230
 4.2930	 5.8540
 4.2960	 5.8050
 4.3000	 5.7340
 4.3030	 5.7040
 4.3070	 5.6790
 4.3100	 5.7110
 4.3140	 5.6610
 4.3180	 5.6560
 4.3210	 5.6630
 4.3250	 5.6620
 4.3280	 5.6560
 4.3320	 5.6530
 4.3360	 5.6500
 4.3390	 5.7470
 4.3430	 5.7520
 4.3470	 5.7330
 4.3500	 5.7040
 4.3540	 5.6760
 4.3570	 5.6670
 4.3610	 5.6090
 4.3650	 5.6170
 4.3680	 5.7510
 4.3720	 5.7320
 4.3760	 5.6460
 4.3800	 5.6380
 4.3830	 5.6420
 4.3870	 5.5880
 4.3910	 5.6080
 4.3940	 5.7330
 4.3980	 5.7270
 4.4020	 5.6460
 4.4060	 5.6450
 4.4090	 5.6180
 4.4130	 5.6000
 4.4170	 5.6390
 4.4210	 5.6690
 4.4240	 5.6760
 4.4280	 5.6940
 4.4320	 5.6760
 4.4360	 5.6630
 4.4400	 5.6590
 4.4430	 5.6880
 4.4470	 5.7180
 4.4510	 5.6580
 4.4550	 5.6110
 4.4590	 5.6520
 4.4620	 5.7040
 4.4660	 5.6960
 4.4700	 5.6760
 4.4740	 5.6800
 4.4780	 5.6830
 4.4820	 5.6650
 4.4860	 5.6390
 4.4900	 5.6010
 4.4930	 5.6110
 4.4970	 5.6360
 4.5010	 5.6220
 4.5050	 5.6140
 4.5090	 5.6110
 4.5130	 5.6570
 4.5170	 5.7000
 4.5210	 5.7030
 4.5250	 5.6750
 4.5290	 5.7400
 4.5330	 5.7760
 4.5370	 5.6670
 4.5410	 5.6170
 4.5450	 5.6250
 4.5490	 5.6620
 4.5530	 5.6760
 4.5570	 5.6350
 4.5610	 5.5850
 4.5650	 5.5850
 4.5690	 5.6790
 4.5730	 5.7590
 4.5770	 5.7230
 4.5810	 5.6760
 4.5850	 5.6690
 4.5890	 5.6470
 4.5930	 5.6350
 4.5970	 5.6360
 4.6010	 5.6140
 4.6050	 5.6060
 4.6090	 5.6680
 4.6130	 5.6770
 4.6170	 5.6590
 4.6220	 5.6330
 4.6260	 5.6430
 4.6300	 5.7260
 4.6340	 5.7240
 4.6380	 5.6990
 4.6420	 5.6380
 4.6460	 5.5850
 4.6510	 5.6000
 4.6550	 5.6560
 4.6590	 5.7040
 4.6630	 5.7570
 4.6670	 5.7390
 4.6720	 5.6820
 4.6760	 5.6750
 4.6800	 5.7070
 4.6840	 5.7030
 4.6880	 5.6700
 4.6930	 5.6980
 4.6970	 5.7320
 4.7010	 5.6770
 4.7050	 5.6520
 4.7100	 5.7140
 4.7140	 5.7580
 4.7180	 5.7360
 4.7230	 5.6550
 4.7270	 5.6180
 4.7310	 5.7020
 4.7360	 5.7960
 4.7400	 5.7320
 4.7440	 5.6700
 4.7490	 5.7070
 4.7530	 5.7470
 4.7570	 5.7030
 4.7620	 5.6790
 4.7660	 5.6650
 4.7700	 5.6690
 4.7750	 5.6600
 4.7790	 5.6610
 4.7840	 5.6430
 4.7880	 5.6700
 4.7920	 5.6830
 4.7970	 5.6750
 4.8010	 5.6820
 4.8060	 5.6650
 4.8100	 5.7050
 4.8150	 5.7120
 4.8190	 5.6790
 4.8240	 5.7060
 4.8280	 5.7140
 4.8330	 5.6750
 4.8370	 5.7360
 4.8420	 5.7750
 4.8460	 5.7730
 4.8510	 5.7280
 4.8550	 5.7410
 4.8600	 5.7900
 4.8640	 5.7430
 4.8690	 5.6930
 4.8730	 5.7210
 4.8780	 5.7270
 4.8830	 5.7670
 4.8870	 5.7790
 4.8920	 5.7250
 4.8960	 5.6780
 4.9010	 5.6420
 4.9060	 5.6650
 4.9100	 5.7470
 4.9150	 5.7490
 4.9200	 5.7630
 4.9240	 5.8450
 4.9290	 5.7920
 4.9340	 5.7660
 4.9380	 5.7670
 4.9430	 5.6760
 4.9480	 5.7180
 4.9530	 5.8260
 4.9570	 5.8770
 4.9620	 5.7670
 4.9670	 5.7380
 4.9720	 5.7110
 4.9760	 5.7030
 4.9810	 5.7530
 4.9860	 5.7770
 4.9910	 5.7150
 4.9960	 5.7060
 5.0000	 5.7050
 5.0050	 5.7550
 5.0100	 5.7770
 5.0150	 5.7550
 5.0200	 5.7250
 5.0250	 5.7300
 5.0290	 5.7550
 5.0340	 5.8250
 5.0390	 5.8400
 5.0440	 5.8740
 5.0490	 5.9020
 5.0540	 5.8330
 5.0590	 5.8000
 5.0640	 5.8180
 5.0690	 5.7730
 5.0740	 5.7870
 5.0790	 5.7650
 5.0840	 5.7320
 5.0890	 5.7630
 5.0940	 5.7830
 5.0990	 5.7250
 5.1040	 5.7660
 5.1090	 5.7790
 5.1140	 5.7890
 5.1190	 5.7780
 5.1240	 5.7730
 5.1290	 5.7330
 5.1340	 5.8180
 5.1390	 5.8810
 5.1440	 5.9080
 5.1490	 5.8450
 5.1540	 5.8060
 5.1600	 5.8330
 5.1650	 5.8850
 5.1700	 5.8310
 5.1750	 5.7260
 5.1800	 5.7090
 5.1850	 5.7820
 5.1910	 5.7710
 5.1960	 5.7880
 5.2010	 5.8040
 5.2060	 5.8080
 5.2110	 5.7960
 5.2170	 5.8250
 5.2220	 5.8180
 5.2270	 5.8270
 5.2320	 5.7710
 5.2380	 5.7860
 5.2430	 5.8150
 5.2480	 5.8240
 5.2540	 5.7660
 5.2590	 5.7470
 5.2640	 5.7680
 5.2700	 5.7730
 5.2750	 5.7840
 5.2800	 5.8000
 5.2860	 5.7710
 5.2910	 5.7850
 5.2970	 5.7780
 5.3020	 5.7870
 5.3070	 5.7740
 5.3130	 5.7950
 5.3180	 5.7590
 5.3240	 5.7010
 5.3290	 5.6750
 5.3350	 5.7840
 5.3400	 5.8480
 5.3460	 5.8220
 5.3510	 5.7890
 5.3570	 5.7920
 5.3620	 5.7810
 5.3680	 5.7750
 5.3730	 5.6950
 5.3790	 5.7230
 5.3850	 5.7140
 5.3900	 5.7340
 5.3960	 5.7330
 5.4010	 5.6990
 5.4070	 5.6810
 5.4130	 5.6930
 5.4180	 5.6680
 5.4240	 5.7230
 5.4300	 5.7710
 5.4350	 5.7590
 5.4410	 5.6460
 5.4470	 5.5920
 5.4530	 5.6040
 5.4580	 5.6890
 5.4640	 5.6610
 5.4700	 5.6730
 5.4760	 5.6410
 5.4810	 5.6780
 5.4870	 5.6600
 5.4930	 5.6230
 5.4990	 5.6500
 5.5050	 5.6980
 5.5110	 5.6040
 5.5160	 5.5940
 5.5220	 5.5550
 5.5280	 5.5920
 5.5340	 5.5410
 5.5400	 5.4980
 5.5460	 5.4680
 5.5520	 5.5230
 5.5580	 5.5160
 5.5640	 5.5350
 5.5700	 5.5290
 5.5760	 5.4820
 5.5820	 5.4500
 5.5880	 5.4500
 5.5940	 5.4310
 5.6000	 5.4880
 5.6060	 5.4360
 5.6120	 5.3340
 5.6180	 5.3030
 5.6240	 5.3670
 5.6300	 5.3030
 5.6360	 5.2770
 5.6420	 5.2750
 5.6490	 5.2610
 5.6550	 5.1860
 5.6610	 5.1840
 5.6670	 5.1420
 5.6730	 5.1080
 5.6800	 5.0590
 5.6860	 4.9990
 5.6920	 4.9550
 5.6980	 4.9630
 5.7040	 4.8740
 5.7110	 4.9390
 5.7170	 4.9860
 5.7230	 4.9650
 5.7300	 4.9190
 5.7360	 4.9360
 5.7420	 4.9170
 5.7490	 4.9660
 5.7550	 5.0100
 5.7620	 5.0860
 5.7680	 5.1890
 5.7740	 5.3770
 5.7810	 5.4960
 5.7870	 5.6400
 5.7940	 5.7420
 5.8000	 5.8230
 5.8070	 5.8310
 5.8130	 5.9060
 5.8200	 5.9280
 5.8260	 6.0020
 5.8330	 6.0330
 5.8390	 6.0570
 5.8460	 6.1000
 5.8530	 6.0920
 5.8590	 6.0000
 5.8660	 5.9820
 5.8720	 5.8470
 5.8790	 5.7800
 5.8860	 5.6900
 5.8920	 5.5960
 5.8990	 5.5600
 5.9060	 5.6510
 5.9130	 5.6490
 5.9190	 5.7710
 5.9260	 6.0040
 5.9330	 6.3290
 5.9400	 6.5580
 5.9470	 6.7610
 5.9530	 6.8190
 5.9600	 6.8530
 5.9670	 6.8120
 5.9740	 6.7780
 5.9810	 6.6120
 5.9880	 6.5400
 5.9950	 6.4410
 6.0020	 6.5120
 6.0090	 6.4810
 6.0160	 6.4120
 6.0230	 6.3100
 6.0300	 6.3060
 6.0370	 6.2840
 6.0440	 6.3340
 6.0510	 6.2570
 6.0580	 6.2260
 6.0650	 6.1470
 6.0720	 6.1090
 6.0790	 6.0050
 6.0860	 6.0070
 6.0930	 5.9950
 6.1000	 6.0140
 6.1080	 5.9750
 6.1150	 5.9860
 6.1220	 5.9340
 6.1290	 5.9880
 6.1370	 5.9870
 6.1440	 6.0020
 6.1510	 5.9280
 6.1580	 5.9900
 6.1660	 6.0560
 6.1730	 6.0490
 6.1800	 5.9480
 6.1880	 5.9020
 6.1950	 5.7970
 6.2030	 5.8600
 6.2100	 5.8360
 6.2170	 5.9490
 6.2250	 5.9950
 6.2320	 6.0570
 6.2400	 5.9790
 6.2470	 5.9750
 6.2550	 5.9640
 6.2630	 6.0370
 6.2700	 6.0570
 6.2780	 6.1170
 6.2850	 6.0750
 6.2930	 6.1250
 6.3010	 6.0470
 6.3080	 6.0170
 6.3160	 5.9420
 6.3240	 6.0520
 6.3310	 6.0840
 6.3390	 6.1380
 6.3470	 6.1050
 6.3550	 6.0910
 6.3620	 5.9930
 6.3700	 6.0360
 6.3780	 5.9860
 6.3860	 5.9630
 6.3940	 5.8380
 6.4020	 5.8310
 6.4100	 5.7880
 6.4180	 5.8860
 6.4260	 5.8980
 6.4330	 5.9200
 6.4410	 5.8540
 6.4490	 5.7860
 6.4580	 5.6960
 6.4660	 5.7250
 6.4740	 5.7340
 6.4820	 5.8010
 6.4900	 5.7900
 6.4980	 5.7850
 6.5060	 5.6450
 6.5140	 5.6790
 6.5230	 5.7090
 6.5310	 5.6630
 6.5390	 5.5900
 6.5470	 5.5870
 6.5550	 5.4310
 6.5640	 5.5120
 6.5720	 5.5400
 6.5800	 5.5690
 6.5890	 5.5330
 6.5970	 5.6600
 6.6060	 5.7050
 6.6140	 5.6910
 6.6220	 5.6100
 6.6310	 5.6020
 6.6390	 5.4490
 6.6480	 5.4720
 6.6560	 5.4510
 6.6650	 5.4740
 6.6740	 5.4400
 6.6820	 5.4320
 6.6910	 5.3150
 6.6990	 5.3500
 6.7080	 5.3030
 6.7170	 5.2460
 6.7260	 5.1390
 6.7340	 5.1990
 6.7430	 5.1270
 6.7520	 5.2100
 6.7610	 5.1940
 6.7690	 5.1600
 6.7780	 5.1760
 6.7870	 5.4710
 6.7960	 5.3820
 6.8050	 5.1780
 6.8140	 5.1070
 6.8230	 5.2930
 6.8320	 5.4550
 6.8410	 5.6450
 6.8500	 5.5700
 6.8590	 5.6140
 6.8680	 5.5810
 6.8770	 5.6390
 6.8860	 5.6030
 6.8950	 5.6850
 6.9050	 5.6070
 6.9140	 5.5920
 6.9230	 5.5940
 6.9320	 5.6200
 6.9420	 5.5590
 6.9510	 5.7120
 6.9600	 5.7100
 6.9700	 5.8230
 6.9790	 5.7530
 6.9880	 5.7250
 6.9980	 5.6840
 7.0070	 5.7420
 7.0170	 5.6220
 7.0260	 5.6710
 7.0360	 5.6770
 7.0450	 5.7300
 7.0550	 5.6050
 7.0650	 5.5940
 7.0740	 5.6220
 7.0840	 5.6970
 7.0940	 5.6470
 7.1030	 5.7600
 7.1130	 5.7320
 7.1230	 5.7680
 7.1330	 5.6580
 7.1420	 5.6540
 7.1520	 5.5020
 7.1620	 5.4170
 7.1720	 5.2590
 7.1820	 5.2420
 7.1920	 5.2100
 7.2020	 5.4070
 7.2120	 5.4800
 7.2220	 5.5940
 7.2320	 5.5290
 7.2420	 5.5470
 7.2520	 5.4370
 7.2620	 5.4850
 7.2730	 5.5230
 7.2830	 5.5990
 7.2930	 5.5180
 7.3030	 5.5040
 7.3140	 5.5200
 7.3240	 5.6470
 7.3340	 5.5280
 7.3450	 5.5620
 7.3550	 5.5750
 7.3660	 5.6180
 7.3760	 5.4820
 7.3870	 5.5710
 7.3970	 5.5000
 7.4080	 5.4690
 7.4180	 5.4660
 7.4290	 5.5750
 7.4400	 5.4310
 7.4500	 5.4660
 7.4610	 5.4120
 7.4720	 5.4740
 7.4830	 5.3930
 7.4930	 5.4230
 7.5040	 5.3350
 7.5150	 5.3150
 7.5260	 5.3000
 7.5370	 5.3810
 7.5480	 5.2670
 7.5590	 5.3760
 7.5700	 5.4430
 7.5810	 5.4980
 7.5920	 5.4230
 7.6030	 5.4940
 7.6140	 5.4610
 7.6260	 5.4990
 7.6370	 5.3880
 7.6480	 5.4500
 7.6590	 5.3780
 7.6710	 5.4110
 7.6820	 5.3600
 7.6930	 5.3370
 7.7050	 5.1700
 7.7160	 5.2280
 7.7280	 5.1800
 7.7390	 5.2880
 7.7510	 5.2440
 7.7630	 5.3000
 7.7740	 5.2790
 7.7860	 5.4450
 7.7980	 5.3700
 7.8090	 5.3850
 7.8210	 5.2990
 7.8330	 5.3360
 7.8450	 5.3090
 7.8570	 5.4870
 7.8690	 5.4710
 7.8810	 5.4840
 7.8930	 5.3450
 7.9050	 5.4660
 7.9170	 5.4460
 7.9290	 5.4920
 7.9410	 5.3740
 7.9530	 5.3690
 7.9650	 5.2280
 7.9780	 5.4200
 7.9900	 5.4810
 8.0020	 5.4950
 8.0150	 5.3860
 8.0270	 5.4210
 8.0390	 5.2820
 8.0520	 5.3690
 8.0640	 5.3550
 8.0770	 5.5180
 8.0900	 5.4350
 8.1020	 5.6350
 8.1150	 5.6590
 8.1280	 5.8470
 8.1400	 5.6470
 8.1530	 5.5570
 8.1660	 5.3960
 8.1790	 5.4970
 8.1920	 5.2610
 8.2050	 5.2480
 8.2180	 5.1540
 8.2310	 5.3760
 8.2440	 5.3420
 8.2570	 5.3600
 8.2700	 5.2610
 8.2830	 5.3620
 8.2970	 5.2150
 8.3100	 5.3220
 8.3230	 5.2360
 8.3370	 5.2890
 8.3500	 5.0350
 8.3640	 5.0810
 8.3770	 5.1380
 8.3910	 5.3940
 8.4040	 5.2370
 8.4180	 5.2560
 8.4320	 5.1130
 8.4450	 5.1130
 8.4590	 5.0970
 8.4730	 5.2670
 8.4870	 5.1160
 8.5010	 5.2550
 8.5150	 5.2930
 8.5290	 5.4530
 8.5430	 5.3550
 8.5570	 5.5930
 8.5710	 5.6280
 8.5850	 5.8120
 8.5990	 5.8050
 8.6140	 5.9590
 8.6280	 5.9440
 8.6420	 6.0640
 8.6570	 5.9890
 8.6710	 6.2610
 8.6860	 6.1470
 8.7000	 6.1120
 8.7150	 6.0240
 8.7300	 6.2500
 8.7440	 6.1330
 8.7590	 6.1760
 8.7740	 6.0630
 8.7890	 6.3230
 8.8040	 6.2080
 8.8190	 6.2440
 8.8340	 6.0140
 8.8490	 6.1000
 8.8640	 6.0140
 8.8790	 6.2060
 8.8940	 6.1290
 8.9100	 6.2130
 8.9250	 6.0890
 8.9400	 6.2050
 8.9560	 6.1490
 8.9710	 6.3910
 8.9870	 6.3570
 9.0020	 6.4880
 9.0180	 6.5490
 9.0340	 6.7790
 9.0500	 6.6360
 9.0650	 6.7710
 9.0810	 6.7170
 9.0970	 6.8410
 9.1130	 6.6750
 9.1290	 6.7070
 9.1450	 6.5900
 9.1610	 6.7410
 9.1780	 6.6920
 9.1940	 6.8620
 9.2100	 6.6020
 9.2270	 6.6490
 9.2430	 6.6050
 9.2600	 6.7820
 9.2760	 6.5420
 9.2930	 6.6230
 9.3090	 6.5570
 9.3260	 6.8520
 9.3430	 6.7920
 9.3600	 6.8020
 9.3770	 6.5790
 9.3940	 6.7580
 9.4110	 6.7050
 9.4280	 6.8580
 9.4450	 6.7030
 9.4620	 6.8820
 9.4800	 6.8640
 9.4970	 6.9740
 9.5140	 6.6380
 9.5320	 6.8080
 9.5500	 6.7640
 9.5670	 6.7940
 9.5850	 6.7170
 9.6030	 7.1120
 9.6200	 6.9760
 9.6380	 7.0630
 9.6560	 7.1120
 9.6740	 7.3050
 9.6920	 7.2130
 9.7100	 7.4340
 9.7290	 7.3780
 9.7470	 7.5570
 9.7650	 7.2890
 9.7840	 7.4020
 9.8020	 7.1700
 9.8210	 7.2330
 9.8390	 7.1010
 9.8580	 7.2120
 9.8770	 7.0630
 9.8960	 7.1350
 9.9150	 7.0060
 9.9340	 7.1510
 9.9530	 6.9100
 9.9720	 6.9380
 9.9910	 6.7070
10.0100	 6.8260
10.0300	 6.8880
10.0490	 7.1350
10.0690	 6.9360
10.0880	 6.8350
10.1080	 6.5810
10.1280	 6.6440
10.1480	 6.6090
10.1670	 6.7280
10.1870	 6.4810
10.2070	 6.5470
10.2280	 6.3680
10.2480	 6.5110
10.2680	 6.5520
10.2890	 6.7910
10.3090	 6.5600
10.3300	 6.7000
10.3500	 6.5630
10.3710	 6.6700
10.3920	 6.5800
10.4120	 6.8030
10.4330	 6.6320
10.4540	 6.7490
10.4760	 6.5760
10.4970	 6.7030
10.5180	 6.5360
10.5390	 6.6120
10.5610	 6.4450
10.5820	 6.6090
10.6040	 6.4670
10.6260	 6.5640
10.6480	 6.3840
10.6700	 6.4420
10.6920	 6.3190
10.7140	 6.4810
10.7360	 6.3100
10.7580	 6.4490
10.7800	 6.3630
10.8030	 6.5740
10.8250	 6.4570
10.8480	 6.6580
10.8710	 6.5870
10.8940	 6.8750
10.9170	 6.7560
10.9400	 6.8660
10.9630	 6.5950
10.9860	 6.6860
11.0090	 6.7620
11.0330	 7.0410
11.0560	 6.8740
11.0800	 7.0590
11.1040	 6.9090
11.1270	 7.0420
11.1510	 6.8860
11.1750	 7.0670
11.2000	 7.0700
11.2240	 7.3500
11.2480	 7.1160
11.2730	 7.1700
11.2970	 7.0140
11.3220	 7.2940
11.3470	 7.1670
11.3720	 7.2230
11.3970	 7.1100
11.4220	 7.5140
11.4470	 7.4190
11.4720	 7.6500
11.4980	 7.5230
11.5230	 7.5270
11.5490	 7.1920
11.5750	 7.4720
11.6000	 7.4590
11.6260	 7.6810
11.6530	 7.5960
11.6790	 7.8490
11.7050	 7.6420
11.7320	 7.7680
11.7580	 7.6690
11.7850	 7.9240
11.8120	 7.6150
11.8390	 7.6230
11.8660	 7.6210
11.8930	 8.0460
11.9200	 8.0940
11.9480	 8.1760
11.9760	 7.8710
12.0030	 8.1370
12.0310	 8.0490
12.0590	 8.3620
12.0870	 8.2170
12.1150	 8.4340
12.1440	 8.1220
12.1720	 8.1830
12.2010	 8.0140
12.2300	 8.4480
12.2590	 8.2530
12.2880	 8.3650
12.3170	 8.2600
12.3460	 8.5410
12.3760	 8.3450
12.4050	 8.5840
12.4350	 8.5430
12.4650	 8.8190
12.4950	 8.4380
12.5250	 8.6450
12.5550	 8.4710
12.5860	 8.8150
12.6170	 8.5050
12.6470	 8.5620
12.6780	 8.4130
12.7090	 8.6800
12.7410	 8.2080
12.7720	 8.3690
12.8030	 8.4060
12.8350	 8.6540
12.8670	 8.1850
12.8990	 8.4970
12.9310	 8.4470
12.9640	 8.6230
12.9960	 8.4770
13.0290	 8.7980
13.0610	 8.4860
13.0940	 8.6760
13.1280	 8.3310
13.1610	 8.3810
13.1940	 8.0500
13.2280	 8.3540
13.2620	 8.1810
13.2960	 8.5360
13.3300	 8.3870
13.3640	 8.5090
13.3990	 8.0830
13.4340	 8.2920
13.4690	 8.0450
13.5040	 8.4000
13.5390	 8.0730
13.5740	 8.1620
13.6100	 7.7190
13.6460	 8.0110
13.6820	 7.8670
13.7180	 8.3330
13.7540	 7.8920
13.7910	 8.0440
13.8280	 7.9000
13.8650	 8.5820
13.9020	 8.3350
13.9390	 8.5250
13.9770	 8.1560
14.0150	 8.4280
14.0530	 8.1940
14.0910	 8.5020
14.1290	 8.0470
14.1680	 8.1940
14.2070	 7.6690
14.2460	 8.3210
14.2850	 8.0620
14.3240	 8.3570
14.3640	 8.2240
14.4040	 8.5560
14.4440	 8.0560
14.4840	 8.2320
14.5250	 7.7730
14.5660	 7.7960
14.6070	 6.9600
14.6480	 7.8850
14.6900	 7.8120
14.7310	 8.4150
14.7730	 7.8120
14.8150	 7.6460
14.8580	 7.0300
14.9010	 7.7420
14.9440	 7.0830
14.9870	 7.6700
15.0300	 7.0350
15.0740	 7.7330
15.1180	 7.3010
15.1620	 7.7250
15.2060	 7.0340
15.2510	 7.8320
15.2960	 7.4220
15.3410	 8.0070
15.3870	 7.2620
