Name: Adenostoma fasciculatum 1
Type: vegetation
Class: Shrub
Genus: Adenostoma
Species: fasciculatum
Sample No.: VH111
Owner: UCSB
Wavelength Range: TIR
Origin: 34.5084; -119.7687; WGS84
Collection Date: 6/3/2013
Description: Samples were collected as part of the HyspIRI Airborne Campaign. 48 individual plants were sampled in three times in 2013 - spring  summer  and fall. The name of the sample includes a 1  2  or 3 which references a different individual of the species. Samples were taken to JPL and processed within 48 hours of collection. The same leaves were processed in the Nicolet and then measured using the ASD.
Measurement: Hemispherical reflectance
First Column: X
Second Column: Y
X Units: Wavelength (micrometers)
Y Units: Reflectance (percentage)
First X Value: 2.501
Last X Value: 15.387
Number of X Values: 1737
Additional Information: vegetation.shrub.adenostoma.fasciculatum.tir.vh111.ucsb.nicolet.ancillary.txt

 2.5010	 5.5230
 2.5030	 5.4790
 2.5040	 5.3760
 2.5050	 5.4620
 2.5060	 5.5890
 2.5070	 5.5210
 2.5090	 5.4700
 2.5100	 5.4150
 2.5110	 5.5160
 2.5120	 5.4810
 2.5140	 5.4770
 2.5150	 5.4680
 2.5160	 5.4720
 2.5170	 5.4230
 2.5180	 5.4420
 2.5200	 5.3770
 2.5210	 5.3030
 2.5220	 5.3250
 2.5230	 5.4600
 2.5250	 5.4690
 2.5260	 5.4930
 2.5270	 5.4050
 2.5280	 5.4100
 2.5290	 5.3810
 2.5310	 5.5060
 2.5320	 5.5290
 2.5330	 5.4920
 2.5340	 5.3920
 2.5360	 5.4150
 2.5370	 5.3700
 2.5380	 5.3710
 2.5390	 5.3480
 2.5410	 5.3640
 2.5420	 5.4100
 2.5430	 5.4610
 2.5440	 5.5270
 2.5460	 5.5800
 2.5470	 5.5070
 2.5480	 5.3940
 2.5490	 5.3850
 2.5510	 5.5210
 2.5520	 5.5110
 2.5530	 5.5650
 2.5540	 5.6280
 2.5560	 5.6730
 2.5570	 5.5050
 2.5580	 5.5750
 2.5590	 5.5860
 2.5610	 5.4740
 2.5620	 5.4500
 2.5630	 5.5420
 2.5640	 5.5120
 2.5660	 5.4790
 2.5670	 5.3950
 2.5680	 5.4590
 2.5700	 5.5410
 2.5710	 5.6160
 2.5720	 5.5770
 2.5730	 5.4310
 2.5750	 5.5150
 2.5760	 5.7440
 2.5770	 5.7690
 2.5790	 5.7420
 2.5800	 5.6990
 2.5810	 5.6730
 2.5820	 5.5660
 2.5840	 5.5570
 2.5850	 5.5570
 2.5860	 5.5410
 2.5880	 5.4020
 2.5890	 5.4460
 2.5900	 5.5190
 2.5910	 5.5430
 2.5930	 5.4580
 2.5940	 5.5470
 2.5950	 5.5440
 2.5970	 5.5500
 2.5980	 5.5530
 2.5990	 5.6050
 2.6000	 5.5420
 2.6020	 5.5240
 2.6030	 5.4130
 2.6040	 5.4470
 2.6060	 5.4400
 2.6070	 5.4630
 2.6080	 5.4750
 2.6100	 5.4520
 2.6110	 5.3100
 2.6120	 5.3180
 2.6140	 5.3300
 2.6150	 5.3890
 2.6160	 5.4120
 2.6180	 5.3910
 2.6190	 5.2610
 2.6200	 5.2490
 2.6220	 5.2180
 2.6230	 5.1940
 2.6240	 5.1500
 2.6260	 5.2000
 2.6270	 5.2090
 2.6280	 5.2290
 2.6300	 5.1400
 2.6310	 5.1110
 2.6320	 5.0950
 2.6340	 5.1320
 2.6350	 5.1080
 2.6360	 5.0550
 2.6380	 4.9890
 2.6390	 5.0090
 2.6400	 4.9490
 2.6420	 4.9350
 2.6430	 4.9150
 2.6440	 4.8930
 2.6460	 4.8340
 2.6470	 4.8200
 2.6480	 4.8130
 2.6500	 4.9030
 2.6510	 4.8330
 2.6520	 4.6980
 2.6540	 4.5990
 2.6550	 4.7230
 2.6560	 4.7450
 2.6580	 4.7090
 2.6590	 4.6790
 2.6610	 4.6740
 2.6620	 4.5850
 2.6630	 4.5430
 2.6650	 4.5410
 2.6660	 4.5490
 2.6670	 4.3780
 2.6690	 4.4110
 2.6700	 4.3970
 2.6720	 4.3820
 2.6730	 4.3680
 2.6740	 4.3480
 2.6760	 4.2810
 2.6770	 4.3690
 2.6780	 4.3560
 2.6800	 4.3200
 2.6810	 4.2670
 2.6830	 4.2890
 2.6840	 4.1740
 2.6850	 4.1830
 2.6870	 4.1900
 2.6880	 4.0970
 2.6900	 3.8660
 2.6910	 3.8050
 2.6920	 3.8200
 2.6940	 3.7830
 2.6950	 3.6210
 2.6970	 3.5720
 2.6980	 3.4790
 2.6990	 3.5090
 2.7010	 3.4630
 2.7020	 3.4940
 2.7040	 3.4910
 2.7050	 3.3980
 2.7060	 3.2290
 2.7080	 3.1950
 2.7090	 3.1030
 2.7110	 3.1140
 2.7120	 3.1290
 2.7130	 3.1340
 2.7150	 3.0420
 2.7160	 2.9830
 2.7180	 2.8880
 2.7190	 2.9700
 2.7210	 2.9710
 2.7220	 2.9680
 2.7230	 2.9300
 2.7250	 2.9310
 2.7260	 2.8620
 2.7280	 2.8610
 2.7290	 2.7880
 2.7310	 2.7790
 2.7320	 2.7860
 2.7330	 2.7490
 2.7350	 2.6410
 2.7360	 2.5660
 2.7380	 2.5310
 2.7390	 2.6370
 2.7410	 2.6490
 2.7420	 2.6490
 2.7440	 2.5320
 2.7450	 2.4370
 2.7470	 2.4610
 2.7480	 2.5150
 2.7490	 2.4230
 2.7510	 2.4900
 2.7520	 2.4970
 2.7540	 2.4670
 2.7550	 2.4060
 2.7570	 2.4850
 2.7580	 2.4230
 2.7600	 2.3180
 2.7610	 2.2790
 2.7630	 2.3520
 2.7640	 2.3200
 2.7660	 2.3450
 2.7670	 2.2860
 2.7680	 2.2720
 2.7700	 2.2580
 2.7710	 2.3190
 2.7730	 2.2590
 2.7740	 2.2420
 2.7760	 2.2840
 2.7770	 2.3860
 2.7790	 2.2420
 2.7800	 2.3010
 2.7820	 2.3360
 2.7830	 2.3210
 2.7850	 2.2430
 2.7860	 2.2760
 2.7880	 2.2170
 2.7890	 2.1730
 2.7910	 2.1710
 2.7920	 2.1730
 2.7940	 2.1410
 2.7950	 2.1620
 2.7970	 2.1710
 2.7980	 2.1360
 2.8000	 2.0680
 2.8010	 2.1600
 2.8030	 2.0570
 2.8040	 2.0570
 2.8060	 2.1530
 2.8070	 2.1310
 2.8090	 2.0520
 2.8110	 2.1300
 2.8120	 2.1820
 2.8140	 2.2300
 2.8150	 2.2260
 2.8170	 2.1970
 2.8180	 2.0330
 2.8200	 2.0790
 2.8210	 2.1870
 2.8230	 2.2720
 2.8240	 2.1950
 2.8260	 2.2160
 2.8270	 2.1210
 2.8290	 2.0470
 2.8300	 2.0830
 2.8320	 2.2550
 2.8340	 2.1860
 2.8350	 2.1610
 2.8370	 2.1220
 2.8380	 2.1080
 2.8400	 2.0150
 2.8410	 1.9650
 2.8430	 1.9520
 2.8440	 2.0110
 2.8460	 2.0360
 2.8480	 2.0750
 2.8490	 2.0120
 2.8510	 2.0520
 2.8520	 2.0850
 2.8540	 2.1240
 2.8550	 2.0280
 2.8570	 2.0820
 2.8590	 2.1760
 2.8600	 2.1160
 2.8620	 1.9960
 2.8630	 2.1590
 2.8650	 2.0990
 2.8660	 2.0500
 2.8680	 2.0170
 2.8700	 2.0530
 2.8710	 2.0110
 2.8730	 2.0360
 2.8740	 2.0220
 2.8760	 2.0580
 2.8780	 2.0970
 2.8790	 2.1270
 2.8810	 2.0060
 2.8820	 1.9880
 2.8840	 1.9410
 2.8860	 1.9820
 2.8870	 1.9750
 2.8890	 2.0340
 2.8900	 1.8930
 2.8920	 1.9590
 2.8940	 2.1060
 2.8950	 2.2570
 2.8970	 2.1960
 2.8980	 2.2510
 2.9000	 2.0750
 2.9020	 1.9670
 2.9030	 1.9450
 2.9050	 2.0050
 2.9070	 2.0440
 2.9080	 2.0940
 2.9100	 2.0570
 2.9120	 2.0160
 2.9130	 1.9370
 2.9150	 2.1010
 2.9160	 2.0130
 2.9180	 2.0320
 2.9200	 2.0040
 2.9210	 1.9570
 2.9230	 2.0200
 2.9250	 2.1640
 2.9260	 2.0780
 2.9280	 2.1430
 2.9300	 2.1500
 2.9310	 2.0560
 2.9330	 1.9520
 2.9350	 1.9740
 2.9360	 2.0080
 2.9380	 2.0430
 2.9400	 2.0450
 2.9410	 2.0930
 2.9430	 2.1550
 2.9450	 2.2700
 2.9460	 2.2120
 2.9480	 2.2440
 2.9500	 2.1450
 2.9510	 2.0400
 2.9530	 2.0590
 2.9550	 2.1120
 2.9560	 2.1130
 2.9580	 2.0640
 2.9600	 1.9890
 2.9610	 2.0770
 2.9630	 2.0380
 2.9650	 2.0150
 2.9660	 2.0480
 2.9680	 2.1490
 2.9700	 2.1620
 2.9720	 2.1200
 2.9730	 2.0850
 2.9750	 2.1620
 2.9770	 2.0990
 2.9780	 2.1440
 2.9800	 2.1310
 2.9820	 2.2020
 2.9840	 2.2120
 2.9850	 2.2330
 2.9870	 2.2510
 2.9890	 2.2340
 2.9900	 2.1160
 2.9920	 2.1840
 2.9940	 2.2020
 2.9960	 2.2320
 2.9970	 2.2550
 2.9990	 2.2290
 3.0010	 2.1480
 3.0030	 2.1600
 3.0040	 2.2000
 3.0060	 2.2840
 3.0080	 2.2840
 3.0100	 2.2100
 3.0110	 2.0460
 3.0130	 2.0260
 3.0150	 2.0240
 3.0170	 2.0770
 3.0180	 2.0760
 3.0200	 2.1460
 3.0220	 2.1650
 3.0240	 2.1670
 3.0250	 2.1890
 3.0270	 2.2920
 3.0290	 2.1930
 3.0310	 2.1530
 3.0320	 2.1120
 3.0340	 2.0760
 3.0360	 2.0600
 3.0380	 2.2260
 3.0400	 2.2470
 3.0410	 2.2670
 3.0430	 2.2250
 3.0450	 2.2010
 3.0470	 2.0990
 3.0480	 2.1930
 3.0500	 2.2570
 3.0520	 2.2550
 3.0540	 2.1230
 3.0560	 2.1380
 3.0570	 2.1710
 3.0590	 2.1650
 3.0610	 2.1260
 3.0630	 2.1720
 3.0650	 2.1670
 3.0660	 2.2030
 3.0680	 2.1460
 3.0700	 2.1810
 3.0720	 2.1670
 3.0740	 2.1510
 3.0760	 2.0630
 3.0770	 2.1340
 3.0790	 2.1900
 3.0810	 2.1890
 3.0830	 2.1410
 3.0850	 2.1710
 3.0870	 2.1320
 3.0880	 2.1190
 3.0900	 2.1160
 3.0920	 2.2140
 3.0940	 2.2280
 3.0960	 2.2010
 3.0980	 2.1070
 3.0990	 2.1160
 3.1010	 2.1540
 3.1030	 2.2700
 3.1050	 2.2300
 3.1070	 2.2700
 3.1090	 2.2170
 3.1110	 2.2190
 3.1120	 2.1890
 3.1140	 2.1830
 3.1160	 2.1360
 3.1180	 2.0700
 3.1200	 1.9670
 3.1220	 1.9920
 3.1240	 2.1100
 3.1260	 2.2460
 3.1270	 2.2690
 3.1290	 2.2610
 3.1310	 2.2430
 3.1330	 2.2210
 3.1350	 2.1780
 3.1370	 2.2630
 3.1390	 2.3040
 3.1410	 2.2430
 3.1430	 2.1170
 3.1450	 2.1660
 3.1460	 2.2070
 3.1480	 2.1860
 3.1500	 2.1730
 3.1520	 2.1890
 3.1540	 2.1270
 3.1560	 2.1560
 3.1580	 2.1790
 3.1600	 2.1910
 3.1620	 2.1450
 3.1640	 2.1470
 3.1660	 2.2100
 3.1680	 2.3250
 3.1700	 2.2910
 3.1710	 2.2710
 3.1730	 2.2210
 3.1750	 2.2060
 3.1770	 2.1930
 3.1790	 2.1860
 3.1810	 2.2110
 3.1830	 2.2350
 3.1850	 2.1570
 3.1870	 2.2380
 3.1890	 2.2410
 3.1910	 2.2080
 3.1930	 2.1810
 3.1950	 2.2660
 3.1970	 2.2770
 3.1990	 2.2270
 3.2010	 2.1790
 3.2030	 2.2220
 3.2050	 2.2190
 3.2070	 2.2520
 3.2090	 2.2410
 3.2110	 2.2380
 3.2130	 2.1860
 3.2150	 2.2830
 3.2170	 2.2960
 3.2190	 2.2680
 3.2210	 2.1600
 3.2230	 2.2140
 3.2250	 2.2650
 3.2270	 2.2160
 3.2290	 2.1400
 3.2310	 2.2220
 3.2330	 2.2520
 3.2350	 2.2840
 3.2370	 2.2560
 3.2390	 2.2380
 3.2410	 2.2320
 3.2430	 2.2360
 3.2450	 2.2070
 3.2470	 2.2710
 3.2490	 2.2680
 3.2510	 2.3010
 3.2530	 2.2630
 3.2550	 2.2370
 3.2570	 2.1620
 3.2590	 2.1820
 3.2610	 2.1510
 3.2630	 2.1900
 3.2650	 2.2350
 3.2670	 2.2730
 3.2690	 2.2340
 3.2720	 2.2710
 3.2740	 2.1970
 3.2760	 2.1430
 3.2780	 2.1780
 3.2800	 2.3020
 3.2820	 2.2550
 3.2840	 2.2330
 3.2860	 2.1860
 3.2880	 2.2720
 3.2900	 2.2800
 3.2920	 2.2560
 3.2940	 2.2470
 3.2960	 2.2280
 3.2990	 2.2040
 3.3010	 2.2480
 3.3030	 2.1760
 3.3050	 2.2430
 3.3070	 2.2550
 3.3090	 2.2070
 3.3110	 2.1720
 3.3130	 2.1730
 3.3150	 2.0960
 3.3180	 2.1370
 3.3200	 2.1440
 3.3220	 2.1760
 3.3240	 2.1920
 3.3260	 2.2100
 3.3280	 2.1780
 3.3300	 2.2070
 3.3330	 2.1120
 3.3350	 2.0600
 3.3370	 2.0660
 3.3390	 2.1310
 3.3410	 2.1170
 3.3430	 2.1420
 3.3450	 2.0630
 3.3480	 2.0390
 3.3500	 2.0400
 3.3520	 2.1100
 3.3540	 2.0810
 3.3560	 2.1190
 3.3580	 2.0770
 3.3610	 2.0800
 3.3630	 2.0890
 3.3650	 2.0500
 3.3670	 2.0030
 3.3690	 2.1130
 3.3720	 2.1490
 3.3740	 2.0890
 3.3760	 2.0130
 3.3780	 2.1050
 3.3800	 2.1460
 3.3830	 2.1170
 3.3850	 2.0570
 3.3870	 2.0310
 3.3890	 1.9940
 3.3910	 2.0360
 3.3940	 2.0180
 3.3960	 2.0280
 3.3980	 1.9520
 3.4000	 1.9180
 3.4020	 1.9440
 3.4050	 2.0580
 3.4070	 2.1240
 3.4090	 2.2240
 3.4110	 2.2320
 3.4140	 2.2230
 3.4160	 2.2390
 3.4180	 2.3880
 3.4200	 2.5740
 3.4230	 2.8220
 3.4250	 2.9960
 3.4270	 3.1980
 3.4290	 3.2410
 3.4320	 3.1390
 3.4340	 2.9320
 3.4360	 2.7570
 3.4390	 2.6460
 3.4410	 2.6080
 3.4430	 2.5300
 3.4450	 2.4930
 3.4480	 2.4450
 3.4500	 2.4360
 3.4520	 2.4090
 3.4550	 2.4200
 3.4570	 2.4230
 3.4590	 2.4750
 3.4620	 2.4860
 3.4640	 2.4160
 3.4660	 2.2920
 3.4680	 2.3670
 3.4710	 2.4260
 3.4730	 2.4130
 3.4750	 2.3640
 3.4780	 2.3680
 3.4800	 2.2730
 3.4820	 2.1840
 3.4850	 2.1480
 3.4870	 2.2660
 3.4890	 2.2770
 3.4920	 2.2670
 3.4940	 2.2600
 3.4970	 2.3090
 3.4990	 2.2980
 3.5010	 2.3180
 3.5040	 2.3580
 3.5060	 2.5720
 3.5080	 2.8560
 3.5110	 3.0920
 3.5130	 3.0350
 3.5160	 2.8970
 3.5180	 2.6750
 3.5200	 2.6070
 3.5230	 2.5650
 3.5250	 2.5700
 3.5270	 2.5870
 3.5300	 2.5660
 3.5320	 2.5840
 3.5350	 2.6230
 3.5370	 2.5430
 3.5400	 2.5450
 3.5420	 2.5270
 3.5440	 2.5450
 3.5470	 2.6120
 3.5490	 2.6110
 3.5520	 2.5940
 3.5540	 2.6890
 3.5570	 2.6430
 3.5590	 2.5880
 3.5610	 2.5670
 3.5640	 2.6270
 3.5660	 2.6650
 3.5690	 2.7020
 3.5710	 2.6390
 3.5740	 2.5550
 3.5760	 2.5470
 3.5790	 2.5950
 3.5810	 2.6820
 3.5840	 2.7030
 3.5860	 2.6140
 3.5890	 2.6080
 3.5910	 2.6020
 3.5930	 2.6480
 3.5960	 2.6750
 3.5980	 2.6700
 3.6010	 2.6290
 3.6030	 2.7010
 3.6060	 2.7610
 3.6080	 2.7590
 3.6110	 2.6850
 3.6140	 2.6630
 3.6160	 2.6380
 3.6190	 2.6250
 3.6210	 2.6460
 3.6240	 2.6410
 3.6260	 2.6710
 3.6290	 2.7280
 3.6310	 2.6950
 3.6340	 2.6670
 3.6360	 2.6960
 3.6390	 2.7150
 3.6410	 2.6360
 3.6440	 2.6370
 3.6470	 2.6350
 3.6490	 2.6890
 3.6520	 2.6640
 3.6540	 2.6770
 3.6570	 2.6540
 3.6590	 2.6370
 3.6620	 2.6840
 3.6650	 2.7080
 3.6670	 2.6560
 3.6700	 2.6790
 3.6720	 2.7290
 3.6750	 2.7130
 3.6780	 2.6040
 3.6800	 2.6020
 3.6830	 2.6470
 3.6850	 2.6860
 3.6880	 2.6850
 3.6910	 2.7310
 3.6930	 2.7340
 3.6960	 2.7250
 3.6990	 2.7080
 3.7010	 2.7340
 3.7040	 2.7530
 3.7060	 2.7200
 3.7090	 2.7130
 3.7120	 2.7110
 3.7140	 2.6730
 3.7170	 2.7450
 3.7200	 2.7880
 3.7220	 2.7800
 3.7250	 2.7730
 3.7280	 2.7810
 3.7300	 2.7760
 3.7330	 2.7990
 3.7360	 2.8060
 3.7390	 2.7670
 3.7410	 2.7100
 3.7440	 2.7560
 3.7470	 2.7910
 3.7490	 2.7900
 3.7520	 2.7650
 3.7550	 2.7560
 3.7580	 2.7520
 3.7600	 2.7710
 3.7630	 2.7240
 3.7660	 2.7120
 3.7680	 2.7010
 3.7710	 2.7020
 3.7740	 2.7470
 3.7770	 2.8290
 3.7790	 2.8060
 3.7820	 2.7940
 3.7850	 2.7940
 3.7880	 2.8280
 3.7900	 2.8150
 3.7930	 2.8370
 3.7960	 2.8440
 3.7990	 2.8240
 3.8020	 2.8050
 3.8040	 2.7840
 3.8070	 2.7570
 3.8100	 2.8260
 3.8130	 2.8330
 3.8160	 2.8870
 3.8180	 2.8410
 3.8210	 2.8070
 3.8240	 2.8790
 3.8270	 2.9310
 3.8300	 2.9000
 3.8330	 2.8560
 3.8350	 2.8320
 3.8380	 2.8440
 3.8410	 2.8400
 3.8440	 2.8780
 3.8470	 2.9140
 3.8500	 2.9600
 3.8520	 2.9540
 3.8550	 2.9600
 3.8580	 2.9220
 3.8610	 2.8590
 3.8640	 2.8530
 3.8670	 2.9170
 3.8700	 2.9140
 3.8730	 2.9570
 3.8750	 2.9490
 3.8780	 2.9400
 3.8810	 2.9730
 3.8840	 3.0010
 3.8870	 2.9500
 3.8900	 2.9500
 3.8930	 2.9280
 3.8960	 2.9320
 3.8990	 2.9110
 3.9020	 2.9750
 3.9050	 2.9710
 3.9080	 2.9330
 3.9110	 2.9850
 3.9140	 3.0360
 3.9160	 2.9860
 3.9190	 3.0230
 3.9220	 2.9920
 3.9250	 2.9860
 3.9280	 2.9820
 3.9310	 2.9840
 3.9340	 3.0320
 3.9370	 3.0650
 3.9400	 3.0740
 3.9430	 3.0870
 3.9460	 3.0730
 3.9490	 3.0200
 3.9520	 2.9470
 3.9550	 2.9750
 3.9580	 3.0660
 3.9610	 3.1030
 3.9640	 3.0290
 3.9670	 3.0380
 3.9700	 3.0090
 3.9730	 3.0270
 3.9770	 3.0700
 3.9800	 3.1240
 3.9830	 3.1490
 3.9860	 3.1270
 3.9890	 3.1020
 3.9920	 3.1620
 3.9950	 3.1430
 3.9980	 3.1260
 4.0010	 3.0980
 4.0040	 3.1320
 4.0070	 3.2220
 4.0100	 3.2450
 4.0130	 3.2030
 4.0170	 3.2050
 4.0200	 3.2110
 4.0230	 3.1900
 4.0260	 3.1700
 4.0290	 3.1760
 4.0320	 3.1920
 4.0350	 3.2070
 4.0380	 3.2220
 4.0420	 3.2180
 4.0450	 3.2030
 4.0480	 3.1940
 4.0510	 3.1690
 4.0540	 3.1350
 4.0570	 3.1050
 4.0610	 3.2000
 4.0640	 3.2780
 4.0670	 3.2530
 4.0700	 3.2190
 4.0730	 3.2190
 4.0770	 3.2450
 4.0800	 3.2370
 4.0830	 3.1700
 4.0860	 3.1750
 4.0890	 3.2150
 4.0930	 3.2450
 4.0960	 3.1940
 4.0990	 3.2020
 4.1020	 3.2690
 4.1060	 3.3100
 4.1090	 3.2090
 4.1120	 3.1520
 4.1150	 3.2000
 4.1190	 3.2900
 4.1220	 3.3110
 4.1250	 3.2800
 4.1280	 3.2670
 4.1320	 3.3020
 4.1350	 3.3220
 4.1380	 3.3580
 4.1420	 3.3270
 4.1450	 3.2880
 4.1480	 3.2730
 4.1520	 3.2710
 4.1550	 3.2850
 4.1580	 3.3050
 4.1620	 3.3260
 4.1650	 3.3570
 4.1680	 3.3160
 4.1720	 3.2940
 4.1750	 3.3110
 4.1780	 3.3380
 4.1820	 3.3290
 4.1850	 3.3080
 4.1890	 3.2780
 4.1920	 3.2620
 4.1950	 3.2840
 4.1990	 3.3180
 4.2020	 3.2860
 4.2060	 3.3560
 4.2090	 3.4540
 4.2120	 3.4960
 4.2160	 3.4940
 4.2190	 3.4670
 4.2230	 3.5080
 4.2260	 3.5770
 4.2300	 3.5900
 4.2330	 3.6630
 4.2360	 3.6950
 4.2400	 3.6130
 4.2430	 3.5180
 4.2470	 3.5880
 4.2500	 3.5630
 4.2540	 3.5300
 4.2570	 3.5220
 4.2610	 3.5910
 4.2640	 3.6500
 4.2680	 3.6370
 4.2710	 3.5910
 4.2750	 3.5270
 4.2780	 3.4770
 4.2820	 3.5170
 4.2850	 3.6590
 4.2890	 3.7100
 4.2930	 3.6710
 4.2960	 3.5600
 4.3000	 3.4810
 4.3030	 3.4680
 4.3070	 3.5140
 4.3100	 3.5190
 4.3140	 3.4140
 4.3180	 3.3390
 4.3210	 3.3610
 4.3250	 3.3620
 4.3280	 3.3690
 4.3320	 3.3740
 4.3360	 3.2750
 4.3390	 3.2060
 4.3430	 3.2180
 4.3470	 3.2020
 4.3500	 3.2440
 4.3540	 3.2810
 4.3570	 3.2490
 4.3610	 3.1880
 4.3650	 3.2280
 4.3680	 3.3020
 4.3720	 3.2660
 4.3760	 3.2320
 4.3800	 3.1900
 4.3830	 3.1710
 4.3870	 3.1930
 4.3910	 3.2000
 4.3940	 3.2440
 4.3980	 3.2750
 4.4020	 3.2510
 4.4060	 3.1850
 4.4090	 3.1680
 4.4130	 3.2260
 4.4170	 3.2590
 4.4210	 3.3180
 4.4240	 3.2610
 4.4280	 3.1950
 4.4320	 3.1550
 4.4360	 3.1140
 4.4400	 3.1090
 4.4430	 3.1480
 4.4470	 3.1610
 4.4510	 3.1640
 4.4550	 3.2020
 4.4590	 3.2000
 4.4620	 3.1930
 4.4660	 3.1880
 4.4700	 3.1440
 4.4740	 3.1530
 4.4780	 3.1730
 4.4820	 3.1560
 4.4860	 3.1390
 4.4900	 3.1610
 4.4930	 3.1500
 4.4970	 3.0630
 4.5010	 3.0660
 4.5050	 3.0850
 4.5090	 3.0910
 4.5130	 3.1540
 4.5170	 3.1700
 4.5210	 3.1320
 4.5250	 3.0930
 4.5290	 3.0960
 4.5330	 3.1200
 4.5370	 3.1350
 4.5410	 3.1160
 4.5450	 3.0590
 4.5490	 3.0510
 4.5530	 3.1090
 4.5570	 3.1040
 4.5610	 3.0580
 4.5650	 3.0980
 4.5690	 3.0140
 4.5730	 2.9910
 4.5770	 3.0460
 4.5810	 3.0570
 4.5850	 3.1180
 4.5890	 3.1000
 4.5930	 3.0750
 4.5970	 3.0400
 4.6010	 3.0140
 4.6050	 3.0020
 4.6090	 3.0230
 4.6130	 3.0510
 4.6170	 3.0140
 4.6220	 3.0240
 4.6260	 3.0200
 4.6300	 2.9680
 4.6340	 3.0090
 4.6380	 3.0600
 4.6420	 3.0560
 4.6460	 3.0240
 4.6510	 3.0260
 4.6550	 3.0150
 4.6590	 2.9710
 4.6630	 2.9750
 4.6670	 3.0180
 4.6720	 2.9880
 4.6760	 2.9790
 4.6800	 3.0310
 4.6840	 3.0330
 4.6880	 3.0320
 4.6930	 3.0260
 4.6970	 3.0630
 4.7010	 3.0670
 4.7050	 3.0010
 4.7100	 2.9400
 4.7140	 2.9550
 4.7180	 3.0100
 4.7230	 3.0050
 4.7270	 2.9680
 4.7310	 2.9270
 4.7360	 2.9300
 4.7400	 2.9670
 4.7440	 2.9670
 4.7490	 2.9870
 4.7530	 2.9580
 4.7570	 2.9350
 4.7620	 3.0000
 4.7660	 3.0650
 4.7700	 3.0360
 4.7750	 2.9920
 4.7790	 3.0090
 4.7840	 3.0180
 4.7880	 2.9830
 4.7920	 3.0680
 4.7970	 3.1090
 4.8010	 3.0820
 4.8060	 3.0230
 4.8100	 3.0300
 4.8150	 3.0650
 4.8190	 3.0120
 4.8240	 2.9640
 4.8280	 3.0430
 4.8330	 3.0570
 4.8370	 3.0440
 4.8420	 3.0170
 4.8460	 3.0610
 4.8510	 3.0840
 4.8550	 3.0640
 4.8600	 2.9740
 4.8640	 2.9620
 4.8690	 3.0040
 4.8730	 3.0440
 4.8780	 3.0300
 4.8830	 2.9920
 4.8870	 3.1010
 4.8920	 3.1290
 4.8960	 3.0650
 4.9010	 3.0240
 4.9060	 3.0280
 4.9100	 3.1170
 4.9150	 3.0990
 4.9200	 3.0130
 4.9240	 2.9800
 4.9290	 3.0100
 4.9340	 3.0550
 4.9380	 3.0930
 4.9430	 3.0590
 4.9480	 3.0800
 4.9530	 3.0800
 4.9570	 3.0570
 4.9620	 3.0660
 4.9670	 3.0730
 4.9720	 3.0590
 4.9760	 3.0780
 4.9810	 3.0700
 4.9860	 3.0850
 4.9910	 3.0580
 4.9960	 3.0500
 5.0000	 3.0860
 5.0050	 3.1280
 5.0100	 3.1110
 5.0150	 3.0870
 5.0200	 3.0580
 5.0250	 3.0440
 5.0290	 3.0060
 5.0340	 3.0390
 5.0390	 3.0690
 5.0440	 3.1140
 5.0490	 3.0990
 5.0540	 3.1090
 5.0590	 3.0700
 5.0640	 3.0970
 5.0690	 3.1280
 5.0740	 3.0810
 5.0790	 2.9840
 5.0840	 3.0460
 5.0890	 3.1020
 5.0940	 3.0980
 5.0990	 3.0580
 5.1040	 3.1040
 5.1090	 3.1390
 5.1140	 3.1600
 5.1190	 3.1390
 5.1240	 3.1320
 5.1290	 3.0880
 5.1340	 3.0230
 5.1390	 2.9840
 5.1440	 3.0660
 5.1490	 3.1100
 5.1540	 3.1640
 5.1600	 3.1490
 5.1650	 3.1380
 5.1700	 3.1350
 5.1750	 3.1600
 5.1800	 3.1600
 5.1850	 3.1660
 5.1910	 3.1180
 5.1960	 3.1260
 5.2010	 3.1130
 5.2060	 3.1340
 5.2110	 3.1760
 5.2170	 3.1930
 5.2220	 3.1830
 5.2270	 3.1760
 5.2320	 3.1080
 5.2380	 3.1570
 5.2430	 3.1620
 5.2480	 3.0870
 5.2540	 3.0650
 5.2590	 3.1070
 5.2640	 3.1000
 5.2700	 3.0860
 5.2750	 3.0730
 5.2800	 3.0980
 5.2860	 3.1120
 5.2910	 3.1420
 5.2970	 3.0660
 5.3020	 3.0090
 5.3070	 3.0100
 5.3130	 3.0450
 5.3180	 3.0320
 5.3240	 3.0580
 5.3290	 3.0580
 5.3350	 3.0570
 5.3400	 3.0510
 5.3460	 3.0220
 5.3510	 2.9610
 5.3570	 2.9930
 5.3620	 2.9780
 5.3680	 2.9800
 5.3730	 2.9550
 5.3790	 2.9720
 5.3850	 3.0140
 5.3900	 3.0880
 5.3960	 3.0750
 5.4010	 3.0320
 5.4070	 2.9630
 5.4130	 3.0370
 5.4180	 3.0520
 5.4240	 2.9910
 5.4300	 2.8930
 5.4350	 2.9020
 5.4410	 2.9020
 5.4470	 2.9450
 5.4530	 2.9660
 5.4580	 2.9080
 5.4640	 2.8470
 5.4700	 2.9020
 5.4760	 2.8500
 5.4810	 2.8320
 5.4870	 2.8050
 5.4930	 2.8170
 5.4990	 2.8110
 5.5050	 2.8250
 5.5110	 2.7850
 5.5160	 2.7250
 5.5220	 2.5870
 5.5280	 2.6120
 5.5340	 2.6690
 5.5400	 2.6650
 5.5460	 2.5500
 5.5520	 2.5370
 5.5580	 2.5050
 5.5640	 2.4960
 5.5700	 2.4540
 5.5760	 2.4300
 5.5820	 2.3860
 5.5880	 2.3930
 5.5940	 2.3350
 5.6000	 2.3230
 5.6060	 2.3380
 5.6120	 2.3770
 5.6180	 2.2910
 5.6240	 2.2370
 5.6300	 2.1980
 5.6360	 2.1720
 5.6420	 2.0740
 5.6490	 2.0560
 5.6550	 2.0360
 5.6610	 2.0670
 5.6670	 2.0220
 5.6730	 1.9410
 5.6800	 1.8900
 5.6860	 1.9620
 5.6920	 1.9100
 5.6980	 1.8360
 5.7040	 1.8400
 5.7110	 1.8220
 5.7170	 1.7130
 5.7230	 1.7390
 5.7300	 1.7510
 5.7360	 1.8060
 5.7420	 1.7100
 5.7490	 1.7090
 5.7550	 1.7910
 5.7620	 1.8890
 5.7680	 1.8320
 5.7740	 1.9120
 5.7810	 1.9950
 5.7870	 1.9850
 5.7940	 1.9190
 5.8000	 1.9510
 5.8070	 1.9250
 5.8130	 1.9850
 5.8200	 1.9810
 5.8260	 1.9690
 5.8330	 1.9640
 5.8390	 2.0490
 5.8460	 1.9950
 5.8530	 1.9220
 5.8590	 1.9370
 5.8660	 2.1190
 5.8720	 2.0790
 5.8790	 2.0340
 5.8860	 1.9940
 5.8920	 2.1080
 5.8990	 2.1240
 5.9060	 2.1340
 5.9130	 2.1360
 5.9190	 2.1950
 5.9260	 2.1670
 5.9330	 2.2360
 5.9400	 2.2160
 5.9470	 2.2180
 5.9530	 2.2350
 5.9600	 2.3560
 5.9670	 2.3290
 5.9740	 2.3570
 5.9810	 2.2700
 5.9880	 2.2790
 5.9950	 2.2250
 6.0020	 2.2260
 6.0090	 2.2140
 6.0160	 2.2830
 6.0230	 2.2670
 6.0300	 2.2840
 6.0370	 2.2070
 6.0440	 2.1930
 6.0510	 2.1260
 6.0580	 2.1390
 6.0650	 2.1170
 6.0720	 2.2290
 6.0790	 2.2670
 6.0860	 2.3600
 6.0930	 2.3220
 6.1000	 2.3010
 6.1080	 2.2950
 6.1150	 2.3390
 6.1220	 2.2050
 6.1290	 2.2040
 6.1370	 2.2350
 6.1440	 2.3400
 6.1510	 2.2680
 6.1580	 2.2530
 6.1660	 2.2060
 6.1730	 2.2130
 6.1800	 2.2090
 6.1880	 2.3290
 6.1950	 2.3080
 6.2030	 2.2800
 6.2100	 2.2150
 6.2170	 2.2350
 6.2250	 2.2240
 6.2320	 2.2740
 6.2400	 2.2270
 6.2470	 2.3100
 6.2550	 2.3390
 6.2630	 2.3710
 6.2700	 2.2750
 6.2780	 2.3080
 6.2850	 2.3510
 6.2930	 2.3400
 6.3010	 2.2010
 6.3080	 2.2850
 6.3160	 2.3100
 6.3240	 2.3340
 6.3310	 2.2210
 6.3390	 2.2700
 6.3470	 2.2410
 6.3550	 2.2600
 6.3620	 2.2150
 6.3700	 2.3140
 6.3780	 2.3410
 6.3860	 2.3900
 6.3940	 2.2630
 6.4020	 2.2480
 6.4100	 2.2240
 6.4180	 2.2310
 6.4260	 2.1890
 6.4330	 2.2700
 6.4410	 2.2500
 6.4490	 2.2550
 6.4580	 2.1510
 6.4660	 2.1930
 6.4740	 2.1940
 6.4820	 2.2450
 6.4900	 2.1730
 6.4980	 2.2040
 6.5060	 2.1980
 6.5140	 2.2580
 6.5230	 2.2680
 6.5310	 2.2890
 6.5390	 2.2100
 6.5470	 2.2800
 6.5550	 2.2330
 6.5640	 2.2070
 6.5720	 2.1350
 6.5800	 2.1140
 6.5890	 2.0470
 6.5970	 2.1230
 6.6060	 2.1280
 6.6140	 2.1920
 6.6220	 2.0550
 6.6310	 2.0970
 6.6390	 2.0920
 6.6480	 2.1490
 6.6560	 2.0720
 6.6650	 2.0910
 6.6740	 2.0670
 6.6820	 2.0860
 6.6910	 2.0860
 6.6990	 2.2080
 6.7080	 2.1380
 6.7170	 2.0620
 6.7260	 2.0200
 6.7340	 1.9790
 6.7430	 1.8630
 6.7520	 2.0400
 6.7610	 2.0370
 6.7690	 2.0550
 6.7780	 1.9950
 6.7870	 2.0070
 6.7960	 1.9500
 6.8050	 1.9650
 6.8140	 1.9060
 6.8230	 2.0280
 6.8320	 2.0350
 6.8410	 2.0620
 6.8500	 1.9710
 6.8590	 2.0430
 6.8680	 1.9920
 6.8770	 2.0630
 6.8860	 2.0330
 6.8950	 2.0920
 6.9050	 2.0440
 6.9140	 2.0970
 6.9230	 2.0850
 6.9320	 2.1140
 6.9420	 2.0020
 6.9510	 2.0610
 6.9600	 1.9980
 6.9700	 2.0060
 6.9790	 1.9550
 6.9880	 2.0470
 6.9980	 2.0120
 7.0070	 2.1000
 7.0170	 2.0420
 7.0260	 2.0730
 7.0360	 2.0290
 7.0450	 2.0550
 7.0550	 2.0070
 7.0650	 2.1240
 7.0740	 2.0640
 7.0840	 2.0690
 7.0940	 2.0070
 7.1030	 2.0750
 7.1130	 2.0540
 7.1230	 2.0840
 7.1330	 2.0390
 7.1420	 2.1120
 7.1520	 1.9910
 7.1620	 2.0230
 7.1720	 2.0190
 7.1820	 2.0720
 7.1920	 1.9620
 7.2020	 2.0070
 7.2120	 1.9470
 7.2220	 2.0630
 7.2320	 2.0700
 7.2420	 2.0880
 7.2520	 1.9530
 7.2620	 1.9890
 7.2730	 1.9930
 7.2830	 2.0660
 7.2930	 2.0480
 7.3030	 2.0880
 7.3140	 1.9710
 7.3240	 1.9640
 7.3340	 1.9060
 7.3450	 2.0630
 7.3550	 2.0650
 7.3660	 2.0370
 7.3760	 1.8930
 7.3870	 1.9900
 7.3970	 2.0390
 7.4080	 2.0780
 7.4180	 2.0020
 7.4290	 2.0260
 7.4400	 1.9860
 7.4500	 2.1020
 7.4610	 2.0260
 7.4720	 2.0270
 7.4830	 1.9660
 7.4930	 2.0300
 7.5040	 1.9800
 7.5150	 2.0110
 7.5260	 1.9130
 7.5370	 2.0050
 7.5480	 2.0090
 7.5590	 2.0790
 7.5700	 2.0520
 7.5810	 2.1480
 7.5920	 1.9620
 7.6030	 1.8830
 7.6140	 1.9170
 7.6260	 2.1180
 7.6370	 2.0130
 7.6480	 2.0300
 7.6590	 1.9690
 7.6710	 2.0070
 7.6820	 1.9760
 7.6930	 2.0410
 7.7050	 1.9280
 7.7160	 1.9850
 7.7280	 1.9680
 7.7390	 2.0190
 7.7510	 1.9970
 7.7630	 2.0770
 7.7740	 1.9650
 7.7860	 2.0420
 7.7980	 1.9690
 7.8090	 2.0150
 7.8210	 1.9840
 7.8330	 2.0750
 7.8450	 1.9150
 7.8570	 1.8450
 7.8690	 1.7580
 7.8810	 1.9020
 7.8930	 1.8900
 7.9050	 1.9950
 7.9170	 1.9000
 7.9290	 1.9760
 7.9410	 1.9350
 7.9530	 2.0120
 7.9650	 1.9750
 7.9780	 2.0650
 7.9900	 2.0550
 8.0020	 2.1440
 8.0150	 2.0520
 8.0270	 2.1450
 8.0390	 2.0650
 8.0520	 2.0800
 8.0640	 2.0180
 8.0770	 2.1860
 8.0900	 2.0840
 8.1020	 2.1340
 8.1150	 2.0670
 8.1280	 2.2060
 8.1400	 2.0480
 8.1530	 2.0760
 8.1660	 2.1220
 8.1790	 2.2900
 8.1920	 2.0950
 8.2050	 2.1760
 8.2180	 2.0560
 8.2310	 2.0920
 8.2440	 1.9870
 8.2570	 2.1270
 8.2700	 2.1330
 8.2830	 2.3220
 8.2970	 2.1790
 8.3100	 2.1970
 8.3230	 2.1950
 8.3370	 2.2740
 8.3500	 2.0990
 8.3640	 2.2580
 8.3770	 2.2570
 8.3910	 2.3430
 8.4040	 2.2330
 8.4180	 2.2370
 8.4320	 2.0130
 8.4450	 2.1380
 8.4590	 2.0570
 8.4730	 2.2460
 8.4870	 2.2250
 8.5010	 2.3290
 8.5150	 2.2320
 8.5290	 2.4020
 8.5430	 2.3640
 8.5570	 2.4080
 8.5710	 2.2550
 8.5850	 2.4550
 8.5990	 2.4790
 8.6140	 2.5360
 8.6280	 2.3370
 8.6420	 2.4670
 8.6570	 2.3450
 8.6710	 2.3720
 8.6860	 2.2270
 8.7000	 2.4010
 8.7150	 2.2610
 8.7300	 2.4710
 8.7440	 2.4020
 8.7590	 2.3960
 8.7740	 2.2970
 8.7890	 2.4820
 8.8040	 2.4040
 8.8190	 2.4360
 8.8340	 2.4010
 8.8490	 2.4750
 8.8640	 2.2340
 8.8790	 2.3530
 8.8940	 2.3250
 8.9100	 2.4630
 8.9250	 2.2770
 8.9400	 2.4410
 8.9560	 2.3960
 8.9710	 2.4780
 8.9870	 2.2970
 9.0020	 2.4590
 9.0180	 2.3590
 9.0340	 2.4920
 9.0500	 2.3980
 9.0650	 2.3910
 9.0810	 2.3310
 9.0970	 2.5430
 9.1130	 2.4590
 9.1290	 2.6040
 9.1450	 2.3730
 9.1610	 2.5090
 9.1780	 2.4270
 9.1940	 2.5100
 9.2100	 2.3590
 9.2270	 2.5520
 9.2430	 2.4230
 9.2600	 2.5400
 9.2760	 2.4580
 9.2930	 2.6080
 9.3090	 2.4670
 9.3260	 2.6360
 9.3430	 2.4960
 9.3600	 2.5320
 9.3770	 2.4110
 9.3940	 2.5050
 9.4110	 2.3230
 9.4280	 2.4030
 9.4450	 2.2850
 9.4620	 2.5160
 9.4800	 2.4360
 9.4970	 2.6210
 9.5140	 2.4330
 9.5320	 2.4290
 9.5500	 2.3810
 9.5670	 2.6130
 9.5850	 2.3790
 9.6030	 2.6210
 9.6200	 2.6370
 9.6380	 2.7160
 9.6560	 2.4670
 9.6740	 2.6280
 9.6920	 2.6180
 9.7100	 2.7220
 9.7290	 2.5420
 9.7470	 2.6330
 9.7650	 2.5040
 9.7840	 2.6650
 9.8020	 2.5110
 9.8210	 2.6570
 9.8390	 2.4960
 9.8580	 2.6650
 9.8770	 2.6210
 9.8960	 2.7200
 9.9150	 2.5460
 9.9340	 2.5870
 9.9530	 2.4280
 9.9720	 2.5950
 9.9910	 2.4210
10.0100	 2.5360
10.0300	 2.3260
10.0490	 2.3850
10.0690	 2.4230
10.0880	 2.6230
10.1080	 2.4110
10.1280	 2.4300
10.1480	 2.3710
10.1670	 2.6990
10.1870	 2.5620
10.2070	 2.5980
10.2280	 2.4710
10.2480	 2.5900
10.2680	 2.3920
10.2890	 2.4660
10.3090	 2.2780
10.3300	 2.3630
10.3500	 2.3350
10.3710	 2.5500
10.3920	 2.4560
10.4120	 2.5710
10.4330	 2.4200
10.4540	 2.6100
10.4760	 2.5270
10.4970	 2.5780
10.5180	 2.3740
10.5390	 2.5140
10.5610	 2.4010
10.5820	 2.5270
10.6040	 2.3030
10.6260	 2.4300
10.6480	 2.3400
10.6700	 2.6110
10.6920	 2.5400
10.7140	 2.6030
10.7360	 2.3060
10.7580	 2.3980
10.7800	 2.1470
10.8030	 2.1920
10.8250	 2.1310
10.8480	 2.3230
10.8710	 2.2760
10.8940	 2.5400
10.9170	 2.4360
10.9400	 2.5720
10.9630	 2.2920
10.9860	 2.3540
11.0090	 2.3750
11.0330	 2.5260
11.0560	 2.2770
11.0800	 2.3130
11.1040	 2.2080
11.1270	 2.3690
11.1510	 2.0460
11.1750	 2.2330
11.2000	 2.0890
11.2240	 2.2220
11.2480	 2.0420
11.2730	 2.2390
11.2970	 2.1870
11.3220	 2.3820
11.3470	 2.1550
11.3720	 2.3200
11.3970	 2.2270
11.4220	 2.3160
11.4470	 2.1100
11.4720	 2.3890
11.4980	 2.3070
11.5230	 2.4470
11.5490	 2.1930
11.5750	 2.2740
11.6000	 2.0480
11.6260	 2.2410
11.6530	 2.2040
11.6790	 2.4090
11.7050	 2.1720
11.7320	 2.3550
11.7580	 2.2430
11.7850	 2.3160
11.8120	 2.1520
11.8390	 2.3940
11.8660	 2.0330
11.8930	 2.0560
11.9200	 1.8920
11.9480	 2.1880
11.9760	 2.0360
12.0030	 2.2670
12.0310	 2.1650
12.0590	 2.3900
12.0870	 2.0430
12.1150	 2.1440
12.1440	 2.0610
12.1720	 2.3140
12.2010	 2.0250
12.2300	 2.0770
12.2590	 1.9580
12.2880	 2.4530
12.3170	 2.2580
12.3460	 2.2710
12.3760	 1.9980
12.4050	 2.1270
12.4350	 2.0580
12.4650	 2.3370
12.4950	 2.0700
12.5250	 2.2300
12.5550	 1.8940
12.5860	 2.1480
12.6170	 1.9980
12.6470	 2.3890
12.6780	 2.2270
12.7090	 2.3780
12.7410	 2.1050
12.7720	 2.3100
12.8030	 2.0660
12.8350	 2.2610
12.8670	 2.0910
12.8990	 2.3380
12.9310	 2.0010
12.9640	 2.0600
12.9960	 1.9250
13.0290	 2.2810
13.0610	 1.9250
13.0940	 2.1180
13.1280	 2.0380
13.1610	 2.3080
13.1940	 1.9600
13.2280	 2.2700
13.2620	 1.9760
13.2960	 2.0440
13.3300	 1.8570
13.3640	 2.0680
13.3990	 1.8650
13.4340	 2.1790
13.4690	 2.0180
13.5040	 2.2490
13.5390	 1.8690
13.5740	 2.1210
13.6100	 1.8440
13.6460	 2.1090
13.6820	 1.8870
13.7180	 2.1130
13.7540	 1.8990
13.7910	 2.3720
13.8280	 2.1330
13.8650	 2.3340
13.9020	 1.9800
13.9390	 2.2320
13.9770	 1.9800
14.0150	 2.3920
14.0530	 2.0240
14.0910	 2.3760
14.1290	 2.0110
14.1680	 2.3980
14.2070	 2.1720
14.2460	 2.4770
14.2850	 2.0290
14.3240	 2.2890
14.3640	 1.8450
14.4040	 2.1060
14.4440	 1.8810
14.4840	 2.5180
14.5250	 2.0810
14.5660	 2.1960
14.6070	 1.8650
14.6480	 2.3910
14.6900	 1.9710
14.7310	 2.4390
14.7730	 2.0500
14.8150	 2.6720
14.8580	 1.9520
14.9010	 2.1060
14.9440	 1.5750
14.9870	 2.7720
15.0300	 2.3660
15.0740	 2.6480
15.1180	 1.8390
15.1620	 2.4000
15.2060	 1.8090
15.2510	 2.1670
15.2960	 1.9560
15.3410	 2.5130
15.3870	 1.6660
