Name: Chorisia speciosa
Type: vegetation
Class: Tree
Genus: Chorisia
Species: speciosa
Sample No.: JPL137
Owner: JPL
Wavelength Range: VSWIR
Origin: 34.12641; -118.10984; WGS84
Collection Date: 9/14/2016
Description: Samples were collected at the Huntington Garden in San Marino California as part of a JPL Subcontract studying HyTES imagery. Samples were taken to JPL and processed within 48 hours of collection. The same leaves were processed in the Nicolet and then measured using the ASD.
Measurement: Bidirectional reflectance
First Column: X
Second Column: Y
X Units: Wavelength (micrometer)
Y Units: Reflectance (percentage)
First X Value: 0.35
Last X Value: 2.5
Number of X Values: 2151
Additional Information: vegetation.tree.chorisia.speciosa.vswir.jpl137.jpl.asd.ancillary.txt

 0.3500	 5.5270
 0.3510	 5.5180
 0.3520	 5.6270
 0.3530	 5.6730
 0.3540	 5.5620
 0.3550	 5.5550
 0.3560	 5.5420
 0.3570	 5.5050
 0.3580	 5.4700
 0.3590	 5.3920
 0.3600	 5.4030
 0.3610	 5.4890
 0.3620	 5.4130
 0.3630	 5.4570
 0.3640	 5.5010
 0.3650	 5.4040
 0.3660	 5.3450
 0.3670	 5.3480
 0.3680	 5.3770
 0.3690	 5.3690
 0.3700	 5.3900
 0.3710	 5.4190
 0.3720	 5.4230
 0.3730	 5.3660
 0.3740	 5.4010
 0.3750	 5.4380
 0.3760	 5.3590
 0.3770	 5.3120
 0.3780	 5.3280
 0.3790	 5.3650
 0.3800	 5.3360
 0.3810	 5.3470
 0.3820	 5.3780
 0.3830	 5.3890
 0.3840	 5.3540
 0.3850	 5.3260
 0.3860	 5.3130
 0.3870	 5.3080
 0.3880	 5.3180
 0.3890	 5.3450
 0.3900	 5.3720
 0.3910	 5.3680
 0.3920	 5.3860
 0.3930	 5.3990
 0.3940	 5.3870
 0.3950	 5.3700
 0.3960	 5.3660
 0.3970	 5.3870
 0.3980	 5.4340
 0.3990	 5.4750
 0.4000	 5.4870
 0.4010	 5.4750
 0.4020	 5.4730
 0.4030	 5.4630
 0.4040	 5.4560
 0.4050	 5.4670
 0.4060	 5.4990
 0.4070	 5.5300
 0.4080	 5.5460
 0.4090	 5.5420
 0.4100	 5.5560
 0.4110	 5.5730
 0.4120	 5.5830
 0.4130	 5.5980
 0.4140	 5.6070
 0.4150	 5.6150
 0.4160	 5.6310
 0.4170	 5.6470
 0.4180	 5.6650
 0.4190	 5.6800
 0.4200	 5.6810
 0.4210	 5.6840
 0.4220	 5.6910
 0.4230	 5.7010
 0.4240	 5.7090
 0.4250	 5.7150
 0.4260	 5.7220
 0.4270	 5.7340
 0.4280	 5.7350
 0.4290	 5.7420
 0.4300	 5.7550
 0.4310	 5.7500
 0.4320	 5.7550
 0.4330	 5.7620
 0.4340	 5.7610
 0.4350	 5.7710
 0.4360	 5.7790
 0.4370	 5.7830
 0.4380	 5.7960
 0.4390	 5.8070
 0.4400	 5.8140
 0.4410	 5.8180
 0.4420	 5.8310
 0.4430	 5.8470
 0.4440	 5.8620
 0.4450	 5.8720
 0.4460	 5.8920
 0.4470	 5.9070
 0.4480	 5.9170
 0.4490	 5.9380
 0.4500	 5.9590
 0.4510	 5.9740
 0.4520	 5.9820
 0.4530	 5.9960
 0.4540	 6.0110
 0.4550	 6.0250
 0.4560	 6.0360
 0.4570	 6.0470
 0.4580	 6.0540
 0.4590	 6.0600
 0.4600	 6.0750
 0.4610	 6.0900
 0.4620	 6.0980
 0.4630	 6.0960
 0.4640	 6.0940
 0.4650	 6.0930
 0.4660	 6.0970
 0.4670	 6.1100
 0.4680	 6.1150
 0.4690	 6.1150
 0.4700	 6.1150
 0.4710	 6.1210
 0.4720	 6.1260
 0.4730	 6.1310
 0.4740	 6.1410
 0.4750	 6.1460
 0.4760	 6.1470
 0.4770	 6.1450
 0.4780	 6.1420
 0.4790	 6.1470
 0.4800	 6.1580
 0.4810	 6.1720
 0.4820	 6.1770
 0.4830	 6.1810
 0.4840	 6.1870
 0.4850	 6.1980
 0.4860	 6.2130
 0.4870	 6.2300
 0.4880	 6.2490
 0.4890	 6.2730
 0.4900	 6.3030
 0.4910	 6.3350
 0.4920	 6.3650
 0.4930	 6.4010
 0.4940	 6.4380
 0.4950	 6.4790
 0.4960	 6.5390
 0.4970	 6.5960
 0.4980	 6.6530
 0.4990	 6.7190
 0.5000	 6.7850
 0.5010	 6.8610
 0.5020	 6.9490
 0.5030	 7.0450
 0.5040	 7.1480
 0.5050	 7.2620
 0.5060	 7.3870
 0.5070	 7.5190
 0.5080	 7.6620
 0.5090	 7.8190
 0.5100	 7.9870
 0.5110	 8.1600
 0.5120	 8.3470
 0.5130	 8.5520
 0.5140	 8.7660
 0.5150	 8.9920
 0.5160	 9.2290
 0.5170	 9.4790
 0.5180	 9.7410
 0.5190	10.0070
 0.5200	10.2780
 0.5210	10.5570
 0.5220	10.8290
 0.5230	11.0990
 0.5240	11.3720
 0.5250	11.6370
 0.5260	11.8930
 0.5270	12.1370
 0.5280	12.3710
 0.5290	12.5890
 0.5300	12.7940
 0.5310	12.9850
 0.5320	13.1620
 0.5330	13.3230
 0.5340	13.4700
 0.5350	13.6040
 0.5360	13.7270
 0.5370	13.8400
 0.5380	13.9440
 0.5390	14.0470
 0.5400	14.1550
 0.5410	14.2660
 0.5420	14.3700
 0.5430	14.4580
 0.5440	14.5240
 0.5450	14.5710
 0.5460	14.6010
 0.5470	14.6170
 0.5480	14.6320
 0.5490	14.6510
 0.5500	14.6730
 0.5510	14.6900
 0.5520	14.6960
 0.5530	14.6860
 0.5540	14.6620
 0.5550	14.6240
 0.5560	14.5730
 0.5570	14.5110
 0.5580	14.4390
 0.5590	14.3570
 0.5600	14.2690
 0.5610	14.1710
 0.5620	14.0610
 0.5630	13.9420
 0.5640	13.8160
 0.5650	13.6830
 0.5660	13.5490
 0.5670	13.4130
 0.5680	13.2690
 0.5690	13.1180
 0.5700	12.9640
 0.5710	12.8090
 0.5720	12.6570
 0.5730	12.5150
 0.5740	12.3840
 0.5750	12.2630
 0.5760	12.1470
 0.5770	12.0430
 0.5780	11.9520
 0.5790	11.8660
 0.5800	11.7830
 0.5810	11.6980
 0.5820	11.6080
 0.5830	11.5170
 0.5840	11.4290
 0.5850	11.3460
 0.5860	11.2730
 0.5870	11.2110
 0.5880	11.1550
 0.5890	11.0980
 0.5900	11.0490
 0.5910	11.0050
 0.5920	10.9620
 0.5930	10.9200
 0.5940	10.8850
 0.5950	10.8540
 0.5960	10.8240
 0.5970	10.8000
 0.5980	10.7740
 0.5990	10.7450
 0.6000	10.7110
 0.6010	10.6750
 0.6020	10.6320
 0.6030	10.5850
 0.6040	10.5380
 0.6050	10.4850
 0.6060	10.4250
 0.6070	10.3600
 0.6080	10.2940
 0.6090	10.2300
 0.6100	10.1730
 0.6110	10.1250
 0.6120	10.0510
 0.6130	 9.9580
 0.6140	 9.8610
 0.6150	 9.7800
 0.6160	 9.7020
 0.6170	 9.6270
 0.6180	 9.5610
 0.6190	 9.5030
 0.6200	 9.4500
 0.6210	 9.4010
 0.6220	 9.3570
 0.6230	 9.3210
 0.6240	 9.2930
 0.6250	 9.2710
 0.6260	 9.2510
 0.6270	 9.2370
 0.6280	 9.2270
 0.6290	 9.2190
 0.6300	 9.2110
 0.6310	 9.2010
 0.6320	 9.1840
 0.6330	 9.1540
 0.6340	 9.1150
 0.6350	 9.0640
 0.6360	 8.9990
 0.6370	 8.9210
 0.6380	 8.8320
 0.6390	 8.7360
 0.6400	 8.6330
 0.6410	 8.5250
 0.6420	 8.4160
 0.6430	 8.3070
 0.6440	 8.1960
 0.6450	 8.0870
 0.6460	 7.9830
 0.6470	 7.8880
 0.6480	 7.7990
 0.6490	 7.7240
 0.6500	 7.6650
 0.6510	 7.6160
 0.6520	 7.5790
 0.6530	 7.5490
 0.6540	 7.5200
 0.6550	 7.4920
 0.6560	 7.4580
 0.6570	 7.4170
 0.6580	 7.3690
 0.6590	 7.3130
 0.6600	 7.2500
 0.6610	 7.1830
 0.6620	 7.1180
 0.6630	 7.0520
 0.6640	 6.9870
 0.6650	 6.9280
 0.6660	 6.8760
 0.6670	 6.8320
 0.6680	 6.7970
 0.6690	 6.7700
 0.6700	 6.7490
 0.6710	 6.7370
 0.6720	 6.7360
 0.6730	 6.7430
 0.6740	 6.7550
 0.6750	 6.7740
 0.6760	 6.8030
 0.6770	 6.8370
 0.6780	 6.8790
 0.6790	 6.9300
 0.6800	 6.9910
 0.6810	 7.0680
 0.6820	 7.1640
 0.6830	 7.2820
 0.6840	 7.4210
 0.6850	 7.5920
 0.6860	 7.7950
 0.6870	 8.0330
 0.6880	 8.3180
 0.6890	 8.6540
 0.6900	 9.0450
 0.6910	 9.4950
 0.6920	10.0090
 0.6930	10.5860
 0.6940	11.2230
 0.6950	11.9160
 0.6960	12.6610
 0.6970	13.4500
 0.6980	14.2750
 0.6990	15.1310
 0.7000	16.0050
 0.7010	16.8900
 0.7020	17.7800
 0.7030	18.6670
 0.7040	19.5450
 0.7050	20.4100
 0.7060	21.2660
 0.7070	22.1070
 0.7080	22.9330
 0.7090	23.7460
 0.7100	24.5450
 0.7110	25.3360
 0.7120	26.1190
 0.7130	26.8840
 0.7140	27.6380
 0.7150	28.3830
 0.7160	29.1190
 0.7170	29.8430
 0.7180	30.5530
 0.7190	31.2480
 0.7200	31.9260
 0.7210	32.5840
 0.7220	33.2280
 0.7230	33.8550
 0.7240	34.4540
 0.7250	35.0290
 0.7260	35.5830
 0.7270	36.1160
 0.7280	36.6220
 0.7290	37.1070
 0.7300	37.5680
 0.7310	37.9990
 0.7320	38.4090
 0.7330	38.7990
 0.7340	39.1660
 0.7350	39.5080
 0.7360	39.8260
 0.7370	40.1260
 0.7380	40.4080
 0.7390	40.6710
 0.7400	40.9120
 0.7410	41.1340
 0.7420	41.3420
 0.7430	41.5320
 0.7440	41.7050
 0.7450	41.8640
 0.7460	42.0080
 0.7470	42.1360
 0.7480	42.2530
 0.7490	42.3600
 0.7500	42.4550
 0.7510	42.5400
 0.7520	42.6180
 0.7530	42.6880
 0.7540	42.7480
 0.7550	42.8030
 0.7560	42.8550
 0.7570	42.9010
 0.7580	42.9440
 0.7590	42.9840
 0.7600	43.0200
 0.7610	43.0520
 0.7620	43.0800
 0.7630	43.1030
 0.7640	43.1230
 0.7650	43.1410
 0.7660	43.1570
 0.7670	43.1720
 0.7680	43.1860
 0.7690	43.1970
 0.7700	43.2070
 0.7710	43.2190
 0.7720	43.2280
 0.7730	43.2370
 0.7740	43.2450
 0.7750	43.2530
 0.7760	43.2590
 0.7770	43.2640
 0.7780	43.2700
 0.7790	43.2780
 0.7800	43.2850
 0.7810	43.2900
 0.7820	43.2940
 0.7830	43.2990
 0.7840	43.3050
 0.7850	43.3090
 0.7860	43.3110
 0.7870	43.3130
 0.7880	43.3130
 0.7890	43.3130
 0.7900	43.3160
 0.7910	43.3150
 0.7920	43.3150
 0.7930	43.3150
 0.7940	43.3120
 0.7950	43.3100
 0.7960	43.3050
 0.7970	43.2990
 0.7980	43.2950
 0.7990	43.2890
 0.8000	43.2830
 0.8010	43.2770
 0.8020	43.2710
 0.8030	43.2640
 0.8040	43.2570
 0.8050	43.2460
 0.8060	43.2340
 0.8070	43.2220
 0.8080	43.2110
 0.8090	43.2010
 0.8100	43.1880
 0.8110	43.1750
 0.8120	43.1640
 0.8130	43.1500
 0.8140	43.1330
 0.8150	43.1170
 0.8160	43.1040
 0.8170	43.0910
 0.8180	43.0780
 0.8190	43.0640
 0.8200	43.0480
 0.8210	43.0340
 0.8220	43.0210
 0.8230	43.0070
 0.8240	42.9920
 0.8250	42.9760
 0.8260	42.9610
 0.8270	42.9450
 0.8280	42.9280
 0.8290	42.9120
 0.8300	42.8970
 0.8310	42.8840
 0.8320	42.8660
 0.8330	42.8500
 0.8340	42.8360
 0.8350	42.8230
 0.8360	42.8160
 0.8370	42.8070
 0.8380	42.7950
 0.8390	42.7850
 0.8400	42.7750
 0.8410	42.7670
 0.8420	42.7590
 0.8430	42.7500
 0.8440	42.7420
 0.8450	42.7370
 0.8460	42.7330
 0.8470	42.7250
 0.8480	42.7230
 0.8490	42.7220
 0.8500	42.7170
 0.8510	42.7110
 0.8520	42.7090
 0.8530	42.7080
 0.8540	42.7060
 0.8550	42.7070
 0.8560	42.7070
 0.8570	42.7050
 0.8580	42.7030
 0.8590	42.7070
 0.8600	42.7130
 0.8610	42.7160
 0.8620	42.7190
 0.8630	42.7230
 0.8640	42.7280
 0.8650	42.7350
 0.8660	42.7390
 0.8670	42.7420
 0.8680	42.7470
 0.8690	42.7580
 0.8700	42.7670
 0.8710	42.7750
 0.8720	42.7820
 0.8730	42.7910
 0.8740	42.7990
 0.8750	42.8080
 0.8760	42.8190
 0.8770	42.8260
 0.8780	42.8380
 0.8790	42.8520
 0.8800	42.8640
 0.8810	42.8680
 0.8820	42.8780
 0.8830	42.8910
 0.8840	42.9010
 0.8850	42.9110
 0.8860	42.9210
 0.8870	42.9290
 0.8880	42.9360
 0.8890	42.9500
 0.8900	42.9660
 0.8910	42.9780
 0.8920	42.9860
 0.8930	42.9990
 0.8940	43.0100
 0.8950	43.0180
 0.8960	43.0290
 0.8970	43.0360
 0.8980	43.0450
 0.8990	43.0560
 0.9000	43.0680
 0.9010	43.0780
 0.9020	43.0890
 0.9030	43.0990
 0.9040	43.1050
 0.9050	43.1150
 0.9060	43.1280
 0.9070	43.1390
 0.9080	43.1430
 0.9090	43.1490
 0.9100	43.1550
 0.9110	43.1580
 0.9120	43.1610
 0.9130	43.1690
 0.9140	43.1720
 0.9150	43.1650
 0.9160	43.1690
 0.9170	43.1720
 0.9180	43.1710
 0.9190	43.1670
 0.9200	43.1700
 0.9210	43.1690
 0.9220	43.1650
 0.9230	43.1620
 0.9240	43.1540
 0.9250	43.1470
 0.9260	43.1420
 0.9270	43.1350
 0.9280	43.1230
 0.9290	43.1120
 0.9300	43.1010
 0.9310	43.0840
 0.9320	43.0650
 0.9330	43.0480
 0.9340	43.0330
 0.9350	43.0100
 0.9360	42.9960
 0.9370	42.9820
 0.9380	42.9630
 0.9390	42.9420
 0.9400	42.9210
 0.9410	42.8920
 0.9420	42.8600
 0.9430	42.8430
 0.9440	42.8070
 0.9450	42.7720
 0.9460	42.7510
 0.9470	42.7080
 0.9480	42.6680
 0.9490	42.6290
 0.9500	42.5860
 0.9510	42.5520
 0.9520	42.5030
 0.9530	42.4470
 0.9540	42.3960
 0.9550	42.3510
 0.9560	42.3060
 0.9570	42.2630
 0.9580	42.2250
 0.9590	42.1800
 0.9600	42.1370
 0.9610	42.1030
 0.9620	42.0760
 0.9630	42.0470
 0.9640	42.0200
 0.9650	41.9970
 0.9660	41.9740
 0.9670	41.9550
 0.9680	41.9440
 0.9690	41.9310
 0.9700	41.9070
 0.9710	41.9000
 0.9720	41.8840
 0.9730	41.8680
 0.9740	41.8700
 0.9750	41.8660
 0.9760	41.8530
 0.9770	41.8430
 0.9780	41.8490
 0.9790	41.8450
 0.9800	41.8400
 0.9810	41.8360
 0.9820	41.8320
 0.9830	41.8350
 0.9840	41.8400
 0.9850	41.8390
 0.9860	41.8290
 0.9870	41.8290
 0.9880	41.8330
 0.9890	41.8460
 0.9900	41.8700
 0.9910	41.8730
 0.9920	41.8710
 0.9930	41.8750
 0.9940	41.8810
 0.9950	41.8850
 0.9960	41.8860
 0.9970	41.9000
 0.9980	41.9340
 0.9990	41.9370
 1.0000	41.9380
 1.0010	42.9740
 1.0020	42.9860
 1.0030	42.9980
 1.0040	43.0080
 1.0050	43.0200
 1.0060	43.0360
 1.0070	43.0480
 1.0080	43.0610
 1.0090	43.0730
 1.0100	43.0840
 1.0110	43.0950
 1.0120	43.1060
 1.0130	43.1160
 1.0140	43.1290
 1.0150	43.1460
 1.0160	43.1580
 1.0170	43.1700
 1.0180	43.1800
 1.0190	43.1870
 1.0200	43.1970
 1.0210	43.2100
 1.0220	43.2270
 1.0230	43.2390
 1.0240	43.2500
 1.0250	43.2600
 1.0260	43.2660
 1.0270	43.2780
 1.0280	43.2940
 1.0290	43.3080
 1.0300	43.3250
 1.0310	43.3380
 1.0320	43.3490
 1.0330	43.3570
 1.0340	43.3660
 1.0350	43.3760
 1.0360	43.3850
 1.0370	43.3940
 1.0380	43.4050
 1.0390	43.4180
 1.0400	43.4300
 1.0410	43.4450
 1.0420	43.4560
 1.0430	43.4640
 1.0440	43.4730
 1.0450	43.4810
 1.0460	43.4890
 1.0470	43.5000
 1.0480	43.5080
 1.0490	43.5130
 1.0500	43.5190
 1.0510	43.5250
 1.0520	43.5300
 1.0530	43.5360
 1.0540	43.5430
 1.0550	43.5510
 1.0560	43.5610
 1.0570	43.5680
 1.0580	43.5760
 1.0590	43.5830
 1.0600	43.5880
 1.0610	43.5930
 1.0620	43.5980
 1.0630	43.6030
 1.0640	43.6050
 1.0650	43.6080
 1.0660	43.6140
 1.0670	43.6160
 1.0680	43.6150
 1.0690	43.6120
 1.0700	43.6110
 1.0710	43.6090
 1.0720	43.6100
 1.0730	43.6190
 1.0740	43.6200
 1.0750	43.6200
 1.0760	43.6190
 1.0770	43.6130
 1.0780	43.6110
 1.0790	43.6120
 1.0800	43.6100
 1.0810	43.6070
 1.0820	43.6040
 1.0830	43.5990
 1.0840	43.5950
 1.0850	43.5940
 1.0860	43.5890
 1.0870	43.5860
 1.0880	43.5830
 1.0890	43.5780
 1.0900	43.5730
 1.0910	43.5670
 1.0920	43.5600
 1.0930	43.5540
 1.0940	43.5500
 1.0950	43.5440
 1.0960	43.5360
 1.0970	43.5300
 1.0980	43.5230
 1.0990	43.5140
 1.1000	43.5050
 1.1010	43.4970
 1.1020	43.4880
 1.1030	43.4790
 1.1040	43.4710
 1.1050	43.4610
 1.1060	43.4510
 1.1070	43.4410
 1.1080	43.4290
 1.1090	43.4180
 1.1100	43.4060
 1.1110	43.3920
 1.1120	43.3800
 1.1130	43.3710
 1.1140	43.3580
 1.1150	43.3450
 1.1160	43.3300
 1.1170	43.3120
 1.1180	43.2940
 1.1190	43.2780
 1.1200	43.2590
 1.1210	43.2360
 1.1220	43.2100
 1.1230	43.1820
 1.1240	43.1500
 1.1250	43.1170
 1.1260	43.0860
 1.1270	43.0470
 1.1280	43.0050
 1.1290	42.9560
 1.1300	42.9020
 1.1310	42.8420
 1.1320	42.7770
 1.1330	42.7070
 1.1340	42.6320
 1.1350	42.5530
 1.1360	42.4700
 1.1370	42.3810
 1.1380	42.2890
 1.1390	42.1930
 1.1400	42.0920
 1.1410	41.9900
 1.1420	41.8850
 1.1430	41.7790
 1.1440	41.6750
 1.1450	41.5680
 1.1460	41.4650
 1.1470	41.3600
 1.1480	41.2630
 1.1490	41.1670
 1.1500	41.0770
 1.1510	40.9930
 1.1520	40.9120
 1.1530	40.8350
 1.1540	40.7630
 1.1550	40.6950
 1.1560	40.6320
 1.1570	40.5740
 1.1580	40.5220
 1.1590	40.4740
 1.1600	40.4330
 1.1610	40.3980
 1.1620	40.3650
 1.1630	40.3350
 1.1640	40.3050
 1.1650	40.2800
 1.1660	40.2570
 1.1670	40.2360
 1.1680	40.2170
 1.1690	40.2010
 1.1700	40.1860
 1.1710	40.1720
 1.1720	40.1610
 1.1730	40.1480
 1.1740	40.1340
 1.1750	40.1210
 1.1760	40.1090
 1.1770	40.0960
 1.1780	40.0830
 1.1790	40.0710
 1.1800	40.0550
 1.1810	40.0380
 1.1820	40.0240
 1.1830	40.0090
 1.1840	39.9950
 1.1850	39.9830
 1.1860	39.9690
 1.1870	39.9540
 1.1880	39.9420
 1.1890	39.9320
 1.1900	39.9200
 1.1910	39.9090
 1.1920	39.8990
 1.1930	39.8860
 1.1940	39.8770
 1.1950	39.8700
 1.1960	39.8630
 1.1970	39.8590
 1.1980	39.8540
 1.1990	39.8510
 1.2000	39.8500
 1.2010	39.8490
 1.2020	39.8490
 1.2030	39.8530
 1.2040	39.8560
 1.2050	39.8610
 1.2060	39.8670
 1.2070	39.8720
 1.2080	39.8790
 1.2090	39.8880
 1.2100	39.8960
 1.2110	39.9050
 1.2120	39.9160
 1.2130	39.9260
 1.2140	39.9370
 1.2150	39.9490
 1.2160	39.9630
 1.2170	39.9760
 1.2180	39.9890
 1.2190	40.0030
 1.2200	40.0180
 1.2210	40.0350
 1.2220	40.0510
 1.2230	40.0690
 1.2240	40.0860
 1.2250	40.1020
 1.2260	40.1200
 1.2270	40.1350
 1.2280	40.1480
 1.2290	40.1640
 1.2300	40.1790
 1.2310	40.1930
 1.2320	40.2070
 1.2330	40.2200
 1.2340	40.2310
 1.2350	40.2410
 1.2360	40.2530
 1.2370	40.2640
 1.2380	40.2740
 1.2390	40.2860
 1.2400	40.2960
 1.2410	40.3040
 1.2420	40.3120
 1.2430	40.3210
 1.2440	40.3290
 1.2450	40.3360
 1.2460	40.3440
 1.2470	40.3530
 1.2480	40.3610
 1.2490	40.3680
 1.2500	40.3760
 1.2510	40.3820
 1.2520	40.3870
 1.2530	40.3920
 1.2540	40.3960
 1.2550	40.3990
 1.2560	40.3990
 1.2570	40.4000
 1.2580	40.4010
 1.2590	40.4020
 1.2600	40.4030
 1.2610	40.4040
 1.2620	40.4040
 1.2630	40.4040
 1.2640	40.4030
 1.2650	40.3990
 1.2660	40.3950
 1.2670	40.3920
 1.2680	40.3880
 1.2690	40.3840
 1.2700	40.3790
 1.2710	40.3730
 1.2720	40.3650
 1.2730	40.3550
 1.2740	40.3450
 1.2750	40.3340
 1.2760	40.3220
 1.2770	40.3100
 1.2780	40.2980
 1.2790	40.2830
 1.2800	40.2660
 1.2810	40.2490
 1.2820	40.2320
 1.2830	40.2120
 1.2840	40.1950
 1.2850	40.1750
 1.2860	40.1510
 1.2870	40.1260
 1.2880	40.1010
 1.2890	40.0730
 1.2900	40.0430
 1.2910	40.0140
 1.2920	39.9820
 1.2930	39.9480
 1.2940	39.9110
 1.2950	39.8730
 1.2960	39.8340
 1.2970	39.7930
 1.2980	39.7510
 1.2990	39.7050
 1.3000	39.6590
 1.3010	39.6120
 1.3020	39.5640
 1.3030	39.5150
 1.3040	39.4610
 1.3050	39.4050
 1.3060	39.3490
 1.3070	39.2890
 1.3080	39.2260
 1.3090	39.1620
 1.3100	39.0950
 1.3110	39.0270
 1.3120	38.9580
 1.3130	38.8860
 1.3140	38.8120
 1.3150	38.7360
 1.3160	38.6590
 1.3170	38.5830
 1.3180	38.5030
 1.3190	38.4210
 1.3200	38.3370
 1.3210	38.2480
 1.3220	38.1590
 1.3230	38.0680
 1.3240	37.9750
 1.3250	37.8800
 1.3260	37.7840
 1.3270	37.6860
 1.3280	37.5880
 1.3290	37.4850
 1.3300	37.3830
 1.3310	37.2780
 1.3320	37.1700
 1.3330	37.0630
 1.3340	36.9550
 1.3350	36.8470
 1.3360	36.7410
 1.3370	36.6340
 1.3380	36.5270
 1.3390	36.4200
 1.3400	36.3110
 1.3410	36.2060
 1.3420	36.1020
 1.3430	35.9960
 1.3440	35.8930
 1.3450	35.7910
 1.3460	35.6900
 1.3470	35.5900
 1.3480	35.4920
 1.3490	35.3940
 1.3500	35.2960
 1.3510	35.1980
 1.3520	35.1000
 1.3530	35.0030
 1.3540	34.9050
 1.3550	34.8070
 1.3560	34.7090
 1.3570	34.6090
 1.3580	34.5080
 1.3590	34.4060
 1.3600	34.3000
 1.3610	34.1930
 1.3620	34.0830
 1.3630	33.9670
 1.3640	33.8450
 1.3650	33.7170
 1.3660	33.5840
 1.3670	33.4430
 1.3680	33.2940
 1.3690	33.1360
 1.3700	32.9650
 1.3710	32.7830
 1.3720	32.5900
 1.3730	32.3800
 1.3740	32.1560
 1.3750	31.9160
 1.3760	31.6570
 1.3770	31.3790
 1.3780	31.0800
 1.3790	30.7610
 1.3800	30.4220
 1.3810	30.0590
 1.3820	29.6790
 1.3830	29.2800
 1.3840	28.8630
 1.3850	28.4270
 1.3860	27.9770
 1.3870	27.5080
 1.3880	27.0330
 1.3890	26.5460
 1.3900	26.0470
 1.3910	25.5490
 1.3920	25.0450
 1.3930	24.5360
 1.3940	24.0320
 1.3950	23.5250
 1.3960	23.0260
 1.3970	22.5380
 1.3980	22.0580
 1.3990	21.5960
 1.4000	21.1480
 1.4010	20.7110
 1.4020	20.2940
 1.4030	19.8910
 1.4040	19.5060
 1.4050	19.1410
 1.4060	18.7940
 1.4070	18.4680
 1.4080	18.1610
 1.4090	17.8700
 1.4100	17.5990
 1.4110	17.3440
 1.4120	17.1050
 1.4130	16.8830
 1.4140	16.6760
 1.4150	16.4850
 1.4160	16.3070
 1.4170	16.1410
 1.4180	15.9880
 1.4190	15.8460
 1.4200	15.7130
 1.4210	15.5890
 1.4220	15.4750
 1.4230	15.3700
 1.4240	15.2730
 1.4250	15.1830
 1.4260	15.1000
 1.4270	15.0240
 1.4280	14.9540
 1.4290	14.8900
 1.4300	14.8320
 1.4310	14.7780
 1.4320	14.7300
 1.4330	14.6860
 1.4340	14.6470
 1.4350	14.6110
 1.4360	14.5800
 1.4370	14.5530
 1.4380	14.5290
 1.4390	14.5080
 1.4400	14.4900
 1.4410	14.4760
 1.4420	14.4630
 1.4430	14.4540
 1.4440	14.4470
 1.4450	14.4420
 1.4460	14.4390
 1.4470	14.4380
 1.4480	14.4390
 1.4490	14.4410
 1.4500	14.4450
 1.4510	14.4510
 1.4520	14.4580
 1.4530	14.4680
 1.4540	14.4800
 1.4550	14.4930
 1.4560	14.5080
 1.4570	14.5260
 1.4580	14.5470
 1.4590	14.5700
 1.4600	14.5970
 1.4610	14.6280
 1.4620	14.6620
 1.4630	14.7010
 1.4640	14.7430
 1.4650	14.7890
 1.4660	14.8380
 1.4670	14.8930
 1.4680	14.9520
 1.4690	15.0160
 1.4700	15.0830
 1.4710	15.1530
 1.4720	15.2260
 1.4730	15.3020
 1.4740	15.3810
 1.4750	15.4640
 1.4760	15.5500
 1.4770	15.6380
 1.4780	15.7280
 1.4790	15.8210
 1.4800	15.9150
 1.4810	16.0120
 1.4820	16.1100
 1.4830	16.2080
 1.4840	16.3090
 1.4850	16.4120
 1.4860	16.5150
 1.4870	16.6200
 1.4880	16.7260
 1.4890	16.8330
 1.4900	16.9400
 1.4910	17.0490
 1.4920	17.1590
 1.4930	17.2690
 1.4940	17.3790
 1.4950	17.4910
 1.4960	17.6030
 1.4970	17.7150
 1.4980	17.8280
 1.4990	17.9420
 1.5000	18.0560
 1.5010	18.1720
 1.5020	18.2860
 1.5030	18.4020
 1.5040	18.5170
 1.5050	18.6310
 1.5060	18.7460
 1.5070	18.8610
 1.5080	18.9760
 1.5090	19.0920
 1.5100	19.2070
 1.5110	19.3200
 1.5120	19.4360
 1.5130	19.5500
 1.5140	19.6630
 1.5150	19.7780
 1.5160	19.8910
 1.5170	20.0040
 1.5180	20.1170
 1.5190	20.2290
 1.5200	20.3420
 1.5210	20.4520
 1.5220	20.5630
 1.5230	20.6730
 1.5240	20.7810
 1.5250	20.8910
 1.5260	20.9990
 1.5270	21.1060
 1.5280	21.2130
 1.5290	21.3190
 1.5300	21.4240
 1.5310	21.5290
 1.5320	21.6330
 1.5330	21.7370
 1.5340	21.8400
 1.5350	21.9420
 1.5360	22.0430
 1.5370	22.1430
 1.5380	22.2420
 1.5390	22.3410
 1.5400	22.4380
 1.5410	22.5350
 1.5420	22.6320
 1.5430	22.7270
 1.5440	22.8220
 1.5450	22.9150
 1.5460	23.0070
 1.5470	23.0990
 1.5480	23.1900
 1.5490	23.2810
 1.5500	23.3700
 1.5510	23.4580
 1.5520	23.5470
 1.5530	23.6340
 1.5540	23.7200
 1.5550	23.8050
 1.5560	23.8890
 1.5570	23.9720
 1.5580	24.0550
 1.5590	24.1380
 1.5600	24.2200
 1.5610	24.2990
 1.5620	24.3770
 1.5630	24.4550
 1.5640	24.5300
 1.5650	24.6050
 1.5660	24.6790
 1.5670	24.7530
 1.5680	24.8270
 1.5690	24.8990
 1.5700	24.9710
 1.5710	25.0430
 1.5720	25.1130
 1.5730	25.1830
 1.5740	25.2520
 1.5750	25.3200
 1.5760	25.3880
 1.5770	25.4540
 1.5780	25.5200
 1.5790	25.5850
 1.5800	25.6480
 1.5810	25.7110
 1.5820	25.7740
 1.5830	25.8350
 1.5840	25.8960
 1.5850	25.9570
 1.5860	26.0160
 1.5870	26.0760
 1.5880	26.1340
 1.5890	26.1900
 1.5900	26.2460
 1.5910	26.3010
 1.5920	26.3560
 1.5930	26.4120
 1.5940	26.4670
 1.5950	26.5210
 1.5960	26.5740
 1.5970	26.6270
 1.5980	26.6780
 1.5990	26.7300
 1.6000	26.7820
 1.6010	26.8320
 1.6020	26.8810
 1.6030	26.9300
 1.6040	26.9770
 1.6050	27.0240
 1.6060	27.0710
 1.6070	27.1160
 1.6080	27.1620
 1.6090	27.2060
 1.6100	27.2490
 1.6110	27.2910
 1.6120	27.3320
 1.6130	27.3720
 1.6140	27.4120
 1.6150	27.4530
 1.6160	27.4930
 1.6170	27.5310
 1.6180	27.5690
 1.6190	27.6060
 1.6200	27.6420
 1.6210	27.6780
 1.6220	27.7150
 1.6230	27.7510
 1.6240	27.7860
 1.6250	27.8190
 1.6260	27.8500
 1.6270	27.8810
 1.6280	27.9120
 1.6290	27.9430
 1.6300	27.9740
 1.6310	28.0040
 1.6320	28.0330
 1.6330	28.0610
 1.6340	28.0870
 1.6350	28.1120
 1.6360	28.1340
 1.6370	28.1570
 1.6380	28.1790
 1.6390	28.2010
 1.6400	28.2230
 1.6410	28.2430
 1.6420	28.2620
 1.6430	28.2800
 1.6440	28.2960
 1.6450	28.3150
 1.6460	28.3320
 1.6470	28.3450
 1.6480	28.3580
 1.6490	28.3690
 1.6500	28.3800
 1.6510	28.3890
 1.6520	28.3990
 1.6530	28.4050
 1.6540	28.4080
 1.6550	28.4100
 1.6560	28.4120
 1.6570	28.4140
 1.6580	28.4140
 1.6590	28.4140
 1.6600	28.4130
 1.6610	28.4130
 1.6620	28.4100
 1.6630	28.4080
 1.6640	28.4080
 1.6650	28.4060
 1.6660	28.4070
 1.6670	28.4060
 1.6680	28.4030
 1.6690	28.4000
 1.6700	28.3950
 1.6710	28.3910
 1.6720	28.3860
 1.6730	28.3780
 1.6740	28.3700
 1.6750	28.3590
 1.6760	28.3480
 1.6770	28.3380
 1.6780	28.3280
 1.6790	28.3160
 1.6800	28.3030
 1.6810	28.2860
 1.6820	28.2680
 1.6830	28.2490
 1.6840	28.2290
 1.6850	28.2080
 1.6860	28.1850
 1.6870	28.1600
 1.6880	28.1350
 1.6890	28.1070
 1.6900	28.0790
 1.6910	28.0490
 1.6920	28.0180
 1.6930	27.9870
 1.6940	27.9580
 1.6950	27.9310
 1.6960	27.9010
 1.6970	27.8720
 1.6980	27.8420
 1.6990	27.8090
 1.7000	27.7750
 1.7010	27.7410
 1.7020	27.7060
 1.7030	27.6690
 1.7040	27.6310
 1.7050	27.5930
 1.7060	27.5500
 1.7070	27.5030
 1.7080	27.4570
 1.7090	27.4100
 1.7100	27.3650
 1.7110	27.3230
 1.7120	27.2780
 1.7130	27.2330
 1.7140	27.1880
 1.7150	27.1430
 1.7160	27.1000
 1.7170	27.0580
 1.7180	27.0150
 1.7190	26.9730
 1.7200	26.9310
 1.7210	26.8900
 1.7220	26.8480
 1.7230	26.8060
 1.7240	26.7640
 1.7250	26.7220
 1.7260	26.6800
 1.7270	26.6390
 1.7280	26.5990
 1.7290	26.5600
 1.7300	26.5230
 1.7310	26.4880
 1.7320	26.4550
 1.7330	26.4240
 1.7340	26.3950
 1.7350	26.3650
 1.7360	26.3370
 1.7370	26.3070
 1.7380	26.2760
 1.7390	26.2420
 1.7400	26.2050
 1.7410	26.1670
 1.7420	26.1260
 1.7430	26.0840
 1.7440	26.0400
 1.7450	25.9940
 1.7460	25.9450
 1.7470	25.8940
 1.7480	25.8420
 1.7490	25.7890
 1.7500	25.7340
 1.7510	25.6810
 1.7520	25.6270
 1.7530	25.5740
 1.7540	25.5220
 1.7550	25.4660
 1.7560	25.4110
 1.7570	25.3560
 1.7580	25.3030
 1.7590	25.2510
 1.7600	25.2000
 1.7610	25.1510
 1.7620	25.1020
 1.7630	25.0560
 1.7640	25.0110
 1.7650	24.9660
 1.7660	24.9240
 1.7670	24.8850
 1.7680	24.8480
 1.7690	24.8130
 1.7700	24.7770
 1.7710	24.7410
 1.7720	24.7070
 1.7730	24.6760
 1.7740	24.6440
 1.7750	24.6160
 1.7760	24.5860
 1.7770	24.5530
 1.7780	24.5270
 1.7790	24.5050
 1.7800	24.4840
 1.7810	24.4660
 1.7820	24.4500
 1.7830	24.4340
 1.7840	24.4190
 1.7850	24.4070
 1.7860	24.3960
 1.7870	24.3840
 1.7880	24.3760
 1.7890	24.3740
 1.7900	24.3720
 1.7910	24.3700
 1.7920	24.3650
 1.7930	24.3630
 1.7940	24.3640
 1.7950	24.3650
 1.7960	24.3700
 1.7970	24.3740
 1.7980	24.3790
 1.7990	24.3830
 1.8000	24.3860
 1.8010	24.3900
 1.8020	24.3960
 1.8030	24.4020
 1.8040	24.4100
 1.8050	24.4180
 1.8060	24.4250
 1.8070	24.4320
 1.8080	24.4400
 1.8090	24.4460
 1.8100	24.4510
 1.8110	24.4550
 1.8120	24.4570
 1.8130	24.4590
 1.8140	24.4610
 1.8150	24.4620
 1.8160	24.4630
 1.8170	24.4640
 1.8180	24.4640
 1.8190	24.4630
 1.8200	24.4610
 1.8210	24.4580
 1.8220	24.4550
 1.8230	24.4530
 1.8240	24.4470
 1.8250	24.4410
 1.8260	24.4300
 1.8270	24.4150
 1.8280	24.4010
 1.8290	24.3870
 1.8300	24.3710
 1.8310	24.4140
 1.8320	24.3870
 1.8330	24.3610
 1.8340	24.3280
 1.8350	24.2880
 1.8360	24.2490
 1.8370	24.2010
 1.8380	24.1510
 1.8390	24.0990
 1.8400	24.0470
 1.8410	23.9870
 1.8420	23.9240
 1.8430	23.8580
 1.8440	23.7800
 1.8450	23.6970
 1.8460	23.6100
 1.8470	23.5140
 1.8480	23.4110
 1.8490	23.2970
 1.8500	23.1740
 1.8510	23.0420
 1.8520	22.9010
 1.8530	22.7480
 1.8540	22.5880
 1.8550	22.4160
 1.8560	22.2320
 1.8570	22.0350
 1.8580	21.8250
 1.8590	21.6030
 1.8600	21.3680
 1.8610	21.1200
 1.8620	20.8610
 1.8630	20.5910
 1.8640	20.3060
 1.8650	20.0040
 1.8660	19.6890
 1.8670	19.3560
 1.8680	19.0070
 1.8690	18.6470
 1.8700	18.2720
 1.8710	17.8800
 1.8720	17.4790
 1.8730	17.0700
 1.8740	16.6500
 1.8750	16.2270
 1.8760	15.7960
 1.8770	15.3670
 1.8780	14.9390
 1.8790	14.5050
 1.8800	14.0800
 1.8810	13.6610
 1.8820	13.2410
 1.8830	12.8310
 1.8840	12.4320
 1.8850	12.0360
 1.8860	11.6550
 1.8870	11.2830
 1.8880	10.9240
 1.8890	10.5860
 1.8900	10.2610
 1.8910	 9.9560
 1.8920	 9.6690
 1.8930	 9.4010
 1.8940	 9.1480
 1.8950	 8.9170
 1.8960	 8.7030
 1.8970	 8.5060
 1.8980	 8.3330
 1.8990	 8.1760
 1.9000	 8.0300
 1.9010	 7.9010
 1.9020	 7.7820
 1.9030	 7.6760
 1.9040	 7.5820
 1.9050	 7.4990
 1.9060	 7.4260
 1.9070	 7.3630
 1.9080	 7.3040
 1.9090	 7.2560
 1.9100	 7.2120
 1.9110	 7.1720
 1.9120	 7.1380
 1.9130	 7.1080
 1.9140	 7.0800
 1.9150	 7.0580
 1.9160	 7.0380
 1.9170	 7.0190
 1.9180	 7.0040
 1.9190	 6.9890
 1.9200	 6.9780
 1.9210	 6.9700
 1.9220	 6.9630
 1.9230	 6.9600
 1.9240	 6.9560
 1.9250	 6.9530
 1.9260	 6.9470
 1.9270	 6.9420
 1.9280	 6.9410
 1.9290	 6.9390
 1.9300	 6.9400
 1.9310	 6.9430
 1.9320	 6.9460
 1.9330	 6.9500
 1.9340	 6.9560
 1.9350	 6.9620
 1.9360	 6.9680
 1.9370	 6.9760
 1.9380	 6.9830
 1.9390	 6.9950
 1.9400	 7.0070
 1.9410	 7.0190
 1.9420	 7.0300
 1.9430	 7.0420
 1.9440	 7.0560
 1.9450	 7.0700
 1.9460	 7.0850
 1.9470	 7.1030
 1.9480	 7.1190
 1.9490	 7.1360
 1.9500	 7.1540
 1.9510	 7.1720
 1.9520	 7.1890
 1.9530	 7.2080
 1.9540	 7.2290
 1.9550	 7.2490
 1.9560	 7.2710
 1.9570	 7.2930
 1.9580	 7.3150
 1.9590	 7.3380
 1.9600	 7.3620
 1.9610	 7.3870
 1.9620	 7.4150
 1.9630	 7.4410
 1.9640	 7.4710
 1.9650	 7.5010
 1.9660	 7.5270
 1.9670	 7.5530
 1.9680	 7.5820
 1.9690	 7.6090
 1.9700	 7.6390
 1.9710	 7.6710
 1.9720	 7.7040
 1.9730	 7.7370
 1.9740	 7.7710
 1.9750	 7.8050
 1.9760	 7.8390
 1.9770	 7.8730
 1.9780	 7.9090
 1.9790	 7.9460
 1.9800	 7.9830
 1.9810	 8.0220
 1.9820	 8.0640
 1.9830	 8.1030
 1.9840	 8.1430
 1.9850	 8.1840
 1.9860	 8.2250
 1.9870	 8.2660
 1.9880	 8.3100
 1.9890	 8.3550
 1.9900	 8.3990
 1.9910	 8.4400
 1.9920	 8.4840
 1.9930	 8.5260
 1.9940	 8.5710
 1.9950	 8.6180
 1.9960	 8.6640
 1.9970	 8.7120
 1.9980	 8.7600
 1.9990	 8.8080
 2.0000	 8.8570
 2.0010	 8.9070
 2.0020	 8.9550
 2.0030	 9.0040
 2.0040	 9.0550
 2.0050	 9.1050
 2.0060	 9.1580
 2.0070	 9.2090
 2.0080	 9.2580
 2.0090	 9.3090
 2.0100	 9.3590
 2.0110	 9.4100
 2.0120	 9.4600
 2.0130	 9.5130
 2.0140	 9.5680
 2.0150	 9.6210
 2.0160	 9.6770
 2.0170	 9.7320
 2.0180	 9.7840
 2.0190	 9.8360
 2.0200	 9.8880
 2.0210	 9.9370
 2.0220	 9.9880
 2.0230	10.0400
 2.0240	10.0930
 2.0250	10.1490
 2.0260	10.2030
 2.0270	10.2560
 2.0280	10.3100
 2.0290	10.3620
 2.0300	10.4150
 2.0310	10.4660
 2.0320	10.5160
 2.0330	10.5650
 2.0340	10.6100
 2.0350	10.6600
 2.0360	10.7140
 2.0370	10.7670
 2.0380	10.8240
 2.0390	10.8760
 2.0400	10.9220
 2.0410	10.9710
 2.0420	11.0190
 2.0430	11.0670
 2.0440	11.1160
 2.0450	11.1680
 2.0460	11.2170
 2.0470	11.2640
 2.0480	11.3120
 2.0490	11.3580
 2.0500	11.4070
 2.0510	11.4550
 2.0520	11.5040
 2.0530	11.5530
 2.0540	11.6020
 2.0550	11.6500
 2.0560	11.7000
 2.0570	11.7490
 2.0580	11.8010
 2.0590	11.8510
 2.0600	11.9010
 2.0610	11.9490
 2.0620	11.9950
 2.0630	12.0440
 2.0640	12.0910
 2.0650	12.1410
 2.0660	12.1960
 2.0670	12.2470
 2.0680	12.2990
 2.0690	12.3490
 2.0700	12.3960
 2.0710	12.4440
 2.0720	12.4920
 2.0730	12.5410
 2.0740	12.5920
 2.0750	12.6460
 2.0760	12.6980
 2.0770	12.7510
 2.0780	12.8030
 2.0790	12.8530
 2.0800	12.9030
 2.0810	12.9540
 2.0820	13.0030
 2.0830	13.0490
 2.0840	13.0960
 2.0850	13.1440
 2.0860	13.1930
 2.0870	13.2420
 2.0880	13.2920
 2.0890	13.3420
 2.0900	13.3920
 2.0910	13.4420
 2.0920	13.4930
 2.0930	13.5420
 2.0940	13.5870
 2.0950	13.6360
 2.0960	13.6870
 2.0970	13.7360
 2.0980	13.7870
 2.0990	13.8360
 2.1000	13.8820
 2.1010	13.9300
 2.1020	13.9810
 2.1030	14.0290
 2.1040	14.0750
 2.1050	14.1250
 2.1060	14.1710
 2.1070	14.2120
 2.1080	14.2560
 2.1090	14.2960
 2.1100	14.3430
 2.1110	14.3960
 2.1120	14.4430
 2.1130	14.4940
 2.1140	14.5410
 2.1150	14.5810
 2.1160	14.6250
 2.1170	14.6730
 2.1180	14.7180
 2.1190	14.7610
 2.1200	14.8060
 2.1210	14.8500
 2.1220	14.8940
 2.1230	14.9360
 2.1240	14.9770
 2.1250	15.0170
 2.1260	15.0520
 2.1270	15.0900
 2.1280	15.1290
 2.1290	15.1660
 2.1300	15.2000
 2.1310	15.2370
 2.1320	15.2760
 2.1330	15.3130
 2.1340	15.3510
 2.1350	15.3860
 2.1360	15.4170
 2.1370	15.4490
 2.1380	15.4790
 2.1390	15.5100
 2.1400	15.5410
 2.1410	15.5740
 2.1420	15.6040
 2.1430	15.6330
 2.1440	15.6620
 2.1450	15.6910
 2.1460	15.7200
 2.1470	15.7480
 2.1480	15.7790
 2.1490	15.8120
 2.1500	15.8420
 2.1510	15.8750
 2.1520	15.9040
 2.1530	15.9290
 2.1540	15.9540
 2.1550	15.9750
 2.1560	15.9990
 2.1570	16.0240
 2.1580	16.0470
 2.1590	16.0710
 2.1600	16.0960
 2.1610	16.1160
 2.1620	16.1370
 2.1630	16.1580
 2.1640	16.1800
 2.1650	16.2000
 2.1660	16.2200
 2.1670	16.2390
 2.1680	16.2560
 2.1690	16.2750
 2.1700	16.2930
 2.1710	16.3100
 2.1720	16.3280
 2.1730	16.3440
 2.1740	16.3570
 2.1750	16.3740
 2.1760	16.3920
 2.1770	16.4120
 2.1780	16.4350
 2.1790	16.4550
 2.1800	16.4750
 2.1810	16.4950
 2.1820	16.5140
 2.1830	16.5290
 2.1840	16.5470
 2.1850	16.5650
 2.1860	16.5830
 2.1870	16.6020
 2.1880	16.6190
 2.1890	16.6340
 2.1900	16.6500
 2.1910	16.6640
 2.1920	16.6820
 2.1930	16.7050
 2.1940	16.7230
 2.1950	16.7430
 2.1960	16.7580
 2.1970	16.7650
 2.1980	16.7770
 2.1990	16.7890
 2.2000	16.8020
 2.2010	16.8210
 2.2020	16.8330
 2.2030	16.8380
 2.2040	16.8470
 2.2050	16.8570
 2.2060	16.8630
 2.2070	16.8680
 2.2080	16.8730
 2.2090	16.8790
 2.2100	16.8800
 2.2110	16.8830
 2.2120	16.8900
 2.2130	16.8930
 2.2140	16.8940
 2.2150	16.8940
 2.2160	16.8970
 2.2170	16.8960
 2.2180	16.8940
 2.2190	16.8890
 2.2200	16.8780
 2.2210	16.8720
 2.2220	16.8640
 2.2230	16.8580
 2.2240	16.8590
 2.2250	16.8510
 2.2260	16.8390
 2.2270	16.8260
 2.2280	16.8090
 2.2290	16.7920
 2.2300	16.7760
 2.2310	16.7590
 2.2320	16.7360
 2.2330	16.7140
 2.2340	16.6880
 2.2350	16.6580
 2.2360	16.6270
 2.2370	16.5940
 2.2380	16.5600
 2.2390	16.5240
 2.2400	16.4890
 2.2410	16.4570
 2.2420	16.4190
 2.2430	16.3750
 2.2440	16.3350
 2.2450	16.2900
 2.2460	16.2530
 2.2470	16.2250
 2.2480	16.1900
 2.2490	16.1540
 2.2500	16.1200
 2.2510	16.0830
 2.2520	16.0480
 2.2530	16.0190
 2.2540	15.9840
 2.2550	15.9430
 2.2560	15.9050
 2.2570	15.8660
 2.2580	15.8270
 2.2590	15.7920
 2.2600	15.7530
 2.2610	15.7090
 2.2620	15.6670
 2.2630	15.6210
 2.2640	15.5710
 2.2650	15.5220
 2.2660	15.4730
 2.2670	15.4250
 2.2680	15.3780
 2.2690	15.3300
 2.2700	15.2790
 2.2710	15.2330
 2.2720	15.1870
 2.2730	15.1450
 2.2740	15.1070
 2.2750	15.0650
 2.2760	15.0250
 2.2770	14.9820
 2.2780	14.9350
 2.2790	14.8920
 2.2800	14.8490
 2.2810	14.8060
 2.2820	14.7680
 2.2830	14.7260
 2.2840	14.6810
 2.2850	14.6380
 2.2860	14.5970
 2.2870	14.5520
 2.2880	14.5100
 2.2890	14.4630
 2.2900	14.4090
 2.2910	14.3590
 2.2920	14.3050
 2.2930	14.2580
 2.2940	14.2210
 2.2950	14.1780
 2.2960	14.1360
 2.2970	14.0910
 2.2980	14.0400
 2.2990	13.9860
 2.3000	13.9360
 2.3010	13.8910
 2.3020	13.8430
 2.3030	13.7970
 2.3040	13.7490
 2.3050	13.7020
 2.3060	13.6580
 2.3070	13.6110
 2.3080	13.5700
 2.3090	13.5330
 2.3100	13.4980
 2.3110	13.4710
 2.3120	13.4420
 2.3130	13.4130
 2.3140	13.3880
 2.3150	13.3680
 2.3160	13.3470
 2.3170	13.3300
 2.3180	13.3120
 2.3190	13.2960
 2.3200	13.2800
 2.3210	13.2660
 2.3220	13.2480
 2.3230	13.2290
 2.3240	13.2040
 2.3250	13.1740
 2.3260	13.1420
 2.3270	13.1050
 2.3280	13.0710
 2.3290	13.0370
 2.3300	13.0040
 2.3310	12.9760
 2.3320	12.9390
 2.3330	12.8970
 2.3340	12.8570
 2.3350	12.8090
 2.3360	12.7720
 2.3370	12.7460
 2.3380	12.7130
 2.3390	12.6840
 2.3400	12.6470
 2.3410	12.6010
 2.3420	12.5590
 2.3430	12.5140
 2.3440	12.4720
 2.3450	12.4300
 2.3460	12.3890
 2.3470	12.3500
 2.3480	12.3070
 2.3490	12.2610
 2.3500	12.2210
 2.3510	12.1760
 2.3520	12.1420
 2.3530	12.1210
 2.3540	12.0940
 2.3550	12.0660
 2.3560	12.0420
 2.3570	12.0040
 2.3580	11.9730
 2.3590	11.9450
 2.3600	11.9150
 2.3610	11.8880
 2.3620	11.8570
 2.3630	11.8210
 2.3640	11.7880
 2.3650	11.7520
 2.3660	11.7140
 2.3670	11.6760
 2.3680	11.6390
 2.3690	11.6060
 2.3700	11.5770
 2.3710	11.5480
 2.3720	11.5090
 2.3730	11.4700
 2.3740	11.4310
 2.3750	11.3890
 2.3760	11.3540
 2.3770	11.3180
 2.3780	11.2830
 2.3790	11.2510
 2.3800	11.2190
 2.3810	11.1810
 2.3820	11.1430
 2.3830	11.1090
 2.3840	11.0730
 2.3850	11.0430
 2.3860	11.0160
 2.3870	10.9790
 2.3880	10.9520
 2.3890	10.9220
 2.3900	10.8750
 2.3910	10.8220
 2.3920	10.7710
 2.3930	10.7380
 2.3940	10.7130
 2.3950	10.6920
 2.3960	10.6730
 2.3970	10.6340
 2.3980	10.5930
 2.3990	10.5630
 2.4000	10.5270
 2.4010	10.4880
 2.4020	10.4590
 2.4030	10.4210
 2.4040	10.3810
 2.4050	10.3570
 2.4060	10.3290
 2.4070	10.2900
 2.4080	10.2680
 2.4090	10.2380
 2.4100	10.1930
 2.4110	10.1580
 2.4120	10.1150
 2.4130	10.0600
 2.4140	10.0250
 2.4150	10.0190
 2.4160	10.0000
 2.4170	 9.9770
 2.4180	 9.9600
 2.4190	 9.9240
 2.4200	 9.9030
 2.4210	 9.8950
 2.4220	 9.8740
 2.4230	 9.8400
 2.4240	 9.8020
 2.4250	 9.7790
 2.4260	 9.7470
 2.4270	 9.7060
 2.4280	 9.6700
 2.4290	 9.6180
 2.4300	 9.5750
 2.4310	 9.5400
 2.4320	 9.5210
 2.4330	 9.4980
 2.4340	 9.4610
 2.4350	 9.4400
 2.4360	 9.4040
 2.4370	 9.3540
 2.4380	 9.3290
 2.4390	 9.3050
 2.4400	 9.2670
 2.4410	 9.2520
 2.4420	 9.2250
 2.4430	 9.1860
 2.4440	 9.1720
 2.4450	 9.1560
 2.4460	 9.1330
 2.4470	 9.0980
 2.4480	 9.0530
 2.4490	 9.0210
 2.4500	 8.9990
 2.4510	 8.9810
 2.4520	 8.9690
 2.4530	 8.9390
 2.4540	 8.9000
 2.4550	 8.8830
 2.4560	 8.8600
 2.4570	 8.8230
 2.4580	 8.7870
 2.4590	 8.7380
 2.4600	 8.6980
 2.4610	 8.6830
 2.4620	 8.6640
 2.4630	 8.6620
 2.4640	 8.6650
 2.4650	 8.6420
 2.4660	 8.6230
 2.4670	 8.6030
 2.4680	 8.5670
 2.4690	 8.5640
 2.4700	 8.5480
 2.4710	 8.5310
 2.4720	 8.5110
 2.4730	 8.4680
 2.4740	 8.4480
 2.4750	 8.4410
 2.4760	 8.4230
 2.4770	 8.4280
 2.4780	 8.4080
 2.4790	 8.3610
 2.4800	 8.3340
 2.4810	 8.2920
 2.4820	 8.2760
 2.4830	 8.2500
 2.4840	 8.2290
 2.4850	 8.2500
 2.4860	 8.2610
 2.4870	 8.2570
 2.4880	 8.2500
 2.4890	 8.2570
 2.4900	 8.2830
 2.4910	 8.3050
 2.4920	 8.3010
 2.4930	 8.2810
 2.4940	 8.2420
 2.4950	 8.2250
 2.4960	 8.2360
 2.4970	 8.2370
 2.4980	 8.2350
 2.4990	 8.2420
 2.5000	 8.2590
