Name: Arctostaphylos glandulosa 3
Type: vegetation
Class: Shrub
Genus: Arctostaphylos
Species: glandulosa
Sample No.: VH121
Owner: UCSB
Wavelength Range: VSWIR
Origin: 34.5085; -119.7682; WGS84
Collection Date: 6/3/2013
Description: Samples were collected as part of the HyspIRI Airborne Campaign. 48 individual plants were sampled in three times in 2013 - spring  summer  and fall. The name of the sample includes a 1  2  or 3 which references a different individual of the species. Samples were taken to JPL and processed within 48 hours of collection. The same leaves were processed in the Nicolet and then measured using the ASD.
Measurement: Bidirectional reflectance
First Column: X
Second Column: Y
X Units: Wavelength (micrometers)
Y Units: Reflectance (percentage)
First X Value: 0.35
Last X Value: 2.5
Number of X Values: 2151
Additional Information: vegetation.shrub.arctostaphylos.glandulosa.vswir.vh121.ucsb.asd.ancillary.txt

 0.3500	 5.7460
 0.3510	 5.5780
 0.3520	 5.6610
 0.3530	 5.6790
 0.3540	 5.4370
 0.3550	 5.4140
 0.3560	 5.4400
 0.3570	 5.4840
 0.3580	 5.5770
 0.3590	 5.5910
 0.3600	 5.5960
 0.3610	 5.6010
 0.3620	 5.5100
 0.3630	 5.4730
 0.3640	 5.4690
 0.3650	 5.4550
 0.3660	 5.4970
 0.3670	 5.6190
 0.3680	 5.6860
 0.3690	 5.5050
 0.3700	 5.4790
 0.3710	 5.5090
 0.3720	 5.5040
 0.3730	 5.5270
 0.3740	 5.4460
 0.3750	 5.3800
 0.3760	 5.4570
 0.3770	 5.4670
 0.3780	 5.4580
 0.3790	 5.4660
 0.3800	 5.5060
 0.3810	 5.4840
 0.3820	 5.4270
 0.3830	 5.3840
 0.3840	 5.4220
 0.3850	 5.4370
 0.3860	 5.4200
 0.3870	 5.3990
 0.3880	 5.3480
 0.3890	 5.3760
 0.3900	 5.4640
 0.3910	 5.4620
 0.3920	 5.4210
 0.3930	 5.3790
 0.3940	 5.3730
 0.3950	 5.4600
 0.3960	 5.4720
 0.3970	 5.4130
 0.3980	 5.3730
 0.3990	 5.4020
 0.4000	 5.4070
 0.4010	 5.3650
 0.4020	 5.3540
 0.4030	 5.3660
 0.4040	 5.3790
 0.4050	 5.3800
 0.4060	 5.4040
 0.4070	 5.3870
 0.4080	 5.3550
 0.4090	 5.3800
 0.4100	 5.3700
 0.4110	 5.3490
 0.4120	 5.3480
 0.4130	 5.3800
 0.4140	 5.3650
 0.4150	 5.3490
 0.4160	 5.3910
 0.4170	 5.3660
 0.4180	 5.3740
 0.4190	 5.4220
 0.4200	 5.4240
 0.4210	 5.4330
 0.4220	 5.4580
 0.4230	 5.4930
 0.4240	 5.5100
 0.4250	 5.5530
 0.4260	 5.6240
 0.4270	 5.6990
 0.4280	 5.7390
 0.4290	 5.7820
 0.4300	 5.8540
 0.4310	 5.9480
 0.4320	 6.0360
 0.4330	 6.1260
 0.4340	 6.2270
 0.4350	 6.3060
 0.4360	 6.4100
 0.4370	 6.5370
 0.4380	 6.6430
 0.4390	 6.7500
 0.4400	 6.8550
 0.4410	 6.9580
 0.4420	 7.0880
 0.4430	 7.1830
 0.4440	 7.2670
 0.4450	 7.3840
 0.4460	 7.4930
 0.4470	 7.5990
 0.4480	 7.7000
 0.4490	 7.7860
 0.4500	 7.8680
 0.4510	 7.9500
 0.4520	 8.0330
 0.4530	 8.0920
 0.4540	 8.1540
 0.4550	 8.2180
 0.4560	 8.2680
 0.4570	 8.3310
 0.4580	 8.3850
 0.4590	 8.4180
 0.4600	 8.4440
 0.4610	 8.4810
 0.4620	 8.5170
 0.4630	 8.5370
 0.4640	 8.5670
 0.4650	 8.5850
 0.4660	 8.5930
 0.4670	 8.6220
 0.4680	 8.6310
 0.4690	 8.6390
 0.4700	 8.6590
 0.4710	 8.6600
 0.4720	 8.6660
 0.4730	 8.6800
 0.4740	 8.6980
 0.4750	 8.6990
 0.4760	 8.7010
 0.4770	 8.7140
 0.4780	 8.7180
 0.4790	 8.7270
 0.4800	 8.7380
 0.4810	 8.7470
 0.4820	 8.7560
 0.4830	 8.7690
 0.4840	 8.7850
 0.4850	 8.8060
 0.4860	 8.8230
 0.4870	 8.8370
 0.4880	 8.8520
 0.4890	 8.8800
 0.4900	 8.9080
 0.4910	 8.9350
 0.4920	 8.9680
 0.4930	 8.9980
 0.4940	 9.0350
 0.4950	 9.0820
 0.4960	 9.1330
 0.4970	 9.1780
 0.4980	 9.2240
 0.4990	 9.2840
 0.5000	 9.3450
 0.5010	 9.4120
 0.5020	 9.4880
 0.5030	 9.5780
 0.5040	 9.6650
 0.5050	 9.7580
 0.5060	 9.8640
 0.5070	 9.9700
 0.5080	10.0930
 0.5090	10.2300
 0.5100	10.3750
 0.5110	10.5240
 0.5120	10.6860
 0.5130	10.8600
 0.5140	11.0330
 0.5150	11.2240
 0.5160	11.4280
 0.5170	11.6350
 0.5180	11.8450
 0.5190	12.0640
 0.5200	12.2920
 0.5210	12.5270
 0.5220	12.7610
 0.5230	12.9890
 0.5240	13.2120
 0.5250	13.4390
 0.5260	13.6540
 0.5270	13.8570
 0.5280	14.0500
 0.5290	14.2350
 0.5300	14.4060
 0.5310	14.5640
 0.5320	14.7170
 0.5330	14.8600
 0.5340	14.9880
 0.5350	15.1050
 0.5360	15.2160
 0.5370	15.3150
 0.5380	15.4040
 0.5390	15.4920
 0.5400	15.5810
 0.5410	15.6660
 0.5420	15.7440
 0.5430	15.8220
 0.5440	15.8930
 0.5450	15.9560
 0.5460	16.0140
 0.5470	16.0600
 0.5480	16.1010
 0.5490	16.1410
 0.5500	16.1840
 0.5510	16.2140
 0.5520	16.2320
 0.5530	16.2410
 0.5540	16.2390
 0.5550	16.2180
 0.5560	16.1820
 0.5570	16.1360
 0.5580	16.0760
 0.5590	16.0070
 0.5600	15.9320
 0.5610	15.8490
 0.5620	15.7570
 0.5630	15.6580
 0.5640	15.5560
 0.5650	15.4500
 0.5660	15.3350
 0.5670	15.2100
 0.5680	15.0770
 0.5690	14.9400
 0.5700	14.8030
 0.5710	14.6660
 0.5720	14.5230
 0.5730	14.3890
 0.5740	14.2640
 0.5750	14.1370
 0.5760	14.0240
 0.5770	13.9240
 0.5780	13.8300
 0.5790	13.7330
 0.5800	13.6450
 0.5810	13.5650
 0.5820	13.4880
 0.5830	13.4140
 0.5840	13.3420
 0.5850	13.2750
 0.5860	13.2160
 0.5870	13.1590
 0.5880	13.1050
 0.5890	13.0580
 0.5900	13.0110
 0.5910	12.9720
 0.5920	12.9370
 0.5930	12.9020
 0.5940	12.8700
 0.5950	12.8390
 0.5960	12.8090
 0.5970	12.7860
 0.5980	12.7640
 0.5990	12.7410
 0.6000	12.7150
 0.6010	12.6830
 0.6020	12.6450
 0.6030	12.6020
 0.6040	12.5490
 0.6050	12.4940
 0.6060	12.4340
 0.6070	12.3650
 0.6080	12.2880
 0.6090	12.2190
 0.6100	12.1560
 0.6110	12.0870
 0.6120	12.0060
 0.6130	11.9170
 0.6140	11.8290
 0.6150	11.7500
 0.6160	11.6760
 0.6170	11.6060
 0.6180	11.5410
 0.6190	11.4830
 0.6200	11.4310
 0.6210	11.3840
 0.6220	11.3460
 0.6230	11.3090
 0.6240	11.2740
 0.6250	11.2460
 0.6260	11.2270
 0.6270	11.2090
 0.6280	11.1930
 0.6290	11.1800
 0.6300	11.1680
 0.6310	11.1550
 0.6320	11.1380
 0.6330	11.1150
 0.6340	11.0870
 0.6350	11.0510
 0.6360	11.0070
 0.6370	10.9550
 0.6380	10.8990
 0.6390	10.8350
 0.6400	10.7610
 0.6410	10.6830
 0.6420	10.6030
 0.6430	10.5190
 0.6440	10.4300
 0.6450	10.3400
 0.6460	10.2510
 0.6470	10.1670
 0.6480	10.0890
 0.6490	10.0180
 0.6500	 9.9540
 0.6510	 9.8930
 0.6520	 9.8410
 0.6530	 9.7900
 0.6540	 9.7340
 0.6550	 9.6760
 0.6560	 9.6130
 0.6570	 9.5430
 0.6580	 9.4680
 0.6590	 9.3860
 0.6600	 9.3010
 0.6610	 9.2170
 0.6620	 9.1320
 0.6630	 9.0470
 0.6640	 8.9670
 0.6650	 8.8940
 0.6660	 8.8300
 0.6670	 8.7730
 0.6680	 8.7240
 0.6690	 8.6850
 0.6700	 8.6540
 0.6710	 8.6320
 0.6720	 8.6160
 0.6730	 8.6060
 0.6740	 8.6050
 0.6750	 8.6110
 0.6760	 8.6210
 0.6770	 8.6330
 0.6780	 8.6530
 0.6790	 8.6840
 0.6800	 8.7240
 0.6810	 8.7750
 0.6820	 8.8430
 0.6830	 8.9320
 0.6840	 9.0360
 0.6850	 9.1640
 0.6860	 9.3220
 0.6870	 9.5130
 0.6880	 9.7360
 0.6890	 9.9980
 0.6900	10.3050
 0.6910	10.6650
 0.6920	11.0790
 0.6930	11.5480
 0.6940	12.0700
 0.6950	12.6480
 0.6960	13.2800
 0.6970	13.9710
 0.6980	14.7210
 0.6990	15.5100
 0.7000	16.3400
 0.7010	17.2080
 0.7020	18.1050
 0.7030	19.0230
 0.7040	19.9560
 0.7050	20.8990
 0.7060	21.8460
 0.7070	22.7950
 0.7080	23.7410
 0.7090	24.6830
 0.7100	25.6200
 0.7110	26.5510
 0.7120	27.4760
 0.7130	28.3960
 0.7140	29.3010
 0.7150	30.1970
 0.7160	31.0850
 0.7170	31.9580
 0.7180	32.8100
 0.7190	33.6410
 0.7200	34.4580
 0.7210	35.2620
 0.7220	36.0380
 0.7230	36.7850
 0.7240	37.5100
 0.7250	38.2110
 0.7260	38.8810
 0.7270	39.5160
 0.7280	40.1230
 0.7290	40.6980
 0.7300	41.2470
 0.7310	41.7750
 0.7320	42.2670
 0.7330	42.7280
 0.7340	43.1610
 0.7350	43.5670
 0.7360	43.9510
 0.7370	44.3130
 0.7380	44.6530
 0.7390	44.9690
 0.7400	45.2590
 0.7410	45.5290
 0.7420	45.7880
 0.7430	46.0260
 0.7440	46.2400
 0.7450	46.4320
 0.7460	46.6170
 0.7470	46.7910
 0.7480	46.9470
 0.7490	47.0860
 0.7500	47.2200
 0.7510	47.3410
 0.7520	47.4490
 0.7530	47.5490
 0.7540	47.6370
 0.7550	47.7190
 0.7560	47.8000
 0.7570	47.8770
 0.7580	47.9370
 0.7590	47.9910
 0.7600	48.0480
 0.7610	48.1020
 0.7620	48.1480
 0.7630	48.1880
 0.7640	48.2260
 0.7650	48.2620
 0.7660	48.2950
 0.7670	48.3260
 0.7680	48.3570
 0.7690	48.3880
 0.7700	48.4150
 0.7710	48.4360
 0.7720	48.4540
 0.7730	48.4770
 0.7740	48.5000
 0.7750	48.5200
 0.7760	48.5410
 0.7770	48.5640
 0.7780	48.5870
 0.7790	48.6010
 0.7800	48.6190
 0.7810	48.6350
 0.7820	48.6480
 0.7830	48.6680
 0.7840	48.6900
 0.7850	48.7090
 0.7860	48.7230
 0.7870	48.7350
 0.7880	48.7490
 0.7890	48.7630
 0.7900	48.7740
 0.7910	48.7910
 0.7920	48.8030
 0.7930	48.8130
 0.7940	48.8290
 0.7950	48.8390
 0.7960	48.8450
 0.7970	48.8500
 0.7980	48.8570
 0.7990	48.8660
 0.8000	48.8740
 0.8010	48.8770
 0.8020	48.8790
 0.8030	48.8850
 0.8040	48.8910
 0.8050	48.8920
 0.8060	48.8940
 0.8070	48.8950
 0.8080	48.8930
 0.8090	48.8890
 0.8100	48.8880
 0.8110	48.8860
 0.8120	48.8810
 0.8130	48.8810
 0.8140	48.8770
 0.8150	48.8710
 0.8160	48.8680
 0.8170	48.8690
 0.8180	48.8650
 0.8190	48.8570
 0.8200	48.8480
 0.8210	48.8430
 0.8220	48.8370
 0.8230	48.8270
 0.8240	48.8140
 0.8250	48.8060
 0.8260	48.7970
 0.8270	48.7840
 0.8280	48.7720
 0.8290	48.7610
 0.8300	48.7480
 0.8310	48.7330
 0.8320	48.7190
 0.8330	48.7040
 0.8340	48.6890
 0.8350	48.6810
 0.8360	48.6750
 0.8370	48.6690
 0.8380	48.6620
 0.8390	48.6540
 0.8400	48.6430
 0.8410	48.6330
 0.8420	48.6280
 0.8430	48.6260
 0.8440	48.6240
 0.8450	48.6230
 0.8460	48.6230
 0.8470	48.6130
 0.8480	48.6080
 0.8490	48.6110
 0.8500	48.6150
 0.8510	48.6140
 0.8520	48.6140
 0.8530	48.6140
 0.8540	48.6070
 0.8550	48.6030
 0.8560	48.6030
 0.8570	48.6050
 0.8580	48.6060
 0.8590	48.5970
 0.8600	48.5930
 0.8610	48.5990
 0.8620	48.6060
 0.8630	48.6040
 0.8640	48.6000
 0.8650	48.6000
 0.8660	48.6020
 0.8670	48.6080
 0.8680	48.6180
 0.8690	48.6270
 0.8700	48.6210
 0.8710	48.6180
 0.8720	48.6190
 0.8730	48.6150
 0.8740	48.6230
 0.8750	48.6320
 0.8760	48.6390
 0.8770	48.6480
 0.8780	48.6470
 0.8790	48.6460
 0.8800	48.6530
 0.8810	48.6590
 0.8820	48.6600
 0.8830	48.6580
 0.8840	48.6550
 0.8850	48.6570
 0.8860	48.6520
 0.8870	48.6520
 0.8880	48.6620
 0.8890	48.6580
 0.8900	48.6500
 0.8910	48.6460
 0.8920	48.6490
 0.8930	48.6530
 0.8940	48.6540
 0.8950	48.6500
 0.8960	48.6420
 0.8970	48.6400
 0.8980	48.6470
 0.8990	48.6530
 0.9000	48.6420
 0.9010	48.6340
 0.9020	48.6350
 0.9030	48.6410
 0.9040	48.6290
 0.9050	48.6260
 0.9060	48.6310
 0.9070	48.6330
 0.9080	48.6190
 0.9090	48.6120
 0.9100	48.6130
 0.9110	48.6130
 0.9120	48.6030
 0.9130	48.6030
 0.9140	48.6020
 0.9150	48.5860
 0.9160	48.5850
 0.9170	48.5820
 0.9180	48.5760
 0.9190	48.5690
 0.9200	48.5590
 0.9210	48.5410
 0.9220	48.5190
 0.9230	48.5070
 0.9240	48.4900
 0.9250	48.4730
 0.9260	48.4540
 0.9270	48.4290
 0.9280	48.4010
 0.9290	48.3800
 0.9300	48.3610
 0.9310	48.3310
 0.9320	48.3090
 0.9330	48.2760
 0.9340	48.2340
 0.9350	48.2060
 0.9360	48.1660
 0.9370	48.1250
 0.9380	48.0920
 0.9390	48.0550
 0.9400	48.0130
 0.9410	47.9670
 0.9420	47.9190
 0.9430	47.8710
 0.9440	47.8090
 0.9450	47.7480
 0.9460	47.6960
 0.9470	47.6180
 0.9480	47.5480
 0.9490	47.4790
 0.9500	47.3990
 0.9510	47.2940
 0.9520	47.1950
 0.9530	47.1010
 0.9540	46.9970
 0.9550	46.8770
 0.9560	46.7690
 0.9570	46.6720
 0.9580	46.5750
 0.9590	46.4730
 0.9600	46.3860
 0.9610	46.3170
 0.9620	46.2560
 0.9630	46.1740
 0.9640	46.0970
 0.9650	46.0320
 0.9660	45.9800
 0.9670	45.9420
 0.9680	45.9010
 0.9690	45.8630
 0.9700	45.8350
 0.9710	45.7940
 0.9720	45.7690
 0.9730	45.7560
 0.9740	45.7410
 0.9750	45.7310
 0.9760	45.7120
 0.9770	45.6910
 0.9780	45.6840
 0.9790	45.6790
 0.9800	45.6790
 0.9810	45.6810
 0.9820	45.6780
 0.9830	45.6820
 0.9840	45.7010
 0.9850	45.7170
 0.9860	45.7120
 0.9870	45.7410
 0.9880	45.7750
 0.9890	45.7980
 0.9900	45.8040
 0.9910	45.8040
 0.9920	45.8270
 0.9930	45.8510
 0.9940	45.8750
 0.9950	45.8980
 0.9960	45.9220
 0.9970	45.9450
 0.9980	45.9690
 0.9990	45.9930
 1.0000	46.0160
 1.0010	46.0400
 1.0020	46.0630
 1.0030	46.0870
 1.0040	46.1110
 1.0050	46.1340
 1.0060	46.1580
 1.0070	46.1810
 1.0080	46.2050
 1.0090	46.2290
 1.0100	46.2290
 1.0110	46.2700
 1.0120	46.3100
 1.0130	46.3500
 1.0140	46.3880
 1.0150	46.4260
 1.0160	46.4680
 1.0170	46.4990
 1.0180	46.5260
 1.0190	46.5600
 1.0200	46.5930
 1.0210	46.6230
 1.0220	46.6610
 1.0230	46.6950
 1.0240	46.7250
 1.0250	46.7590
 1.0260	46.8000
 1.0270	46.8330
 1.0280	46.8680
 1.0290	46.8970
 1.0300	46.9160
 1.0310	46.9420
 1.0320	46.9700
 1.0330	46.9990
 1.0340	47.0300
 1.0350	47.0550
 1.0360	47.0750
 1.0370	47.0990
 1.0380	47.1230
 1.0390	47.1490
 1.0400	47.1730
 1.0410	47.1970
 1.0420	47.2210
 1.0430	47.2460
 1.0440	47.2680
 1.0450	47.2890
 1.0460	47.3100
 1.0470	47.3280
 1.0480	47.3480
 1.0490	47.3700
 1.0500	47.3910
 1.0510	47.4140
 1.0520	47.4330
 1.0530	47.4490
 1.0540	47.4620
 1.0550	47.4760
 1.0560	47.4860
 1.0570	47.4970
 1.0580	47.5100
 1.0590	47.5210
 1.0600	47.5280
 1.0610	47.5390
 1.0620	47.5500
 1.0630	47.5610
 1.0640	47.5750
 1.0650	47.5860
 1.0660	47.5950
 1.0670	47.6040
 1.0680	47.6120
 1.0690	47.6200
 1.0700	47.6280
 1.0710	47.6370
 1.0720	47.6420
 1.0730	47.6470
 1.0740	47.6500
 1.0750	47.6530
 1.0760	47.6540
 1.0770	47.6550
 1.0780	47.6540
 1.0790	47.6490
 1.0800	47.6470
 1.0810	47.6490
 1.0820	47.6470
 1.0830	47.6470
 1.0840	47.6430
 1.0850	47.6350
 1.0860	47.6260
 1.0870	47.6160
 1.0880	47.6040
 1.0890	47.5960
 1.0900	47.5870
 1.0910	47.5780
 1.0920	47.5720
 1.0930	47.5610
 1.0940	47.5490
 1.0950	47.5350
 1.0960	47.5170
 1.0970	47.5010
 1.0980	47.4860
 1.0990	47.4690
 1.1000	47.4540
 1.1010	47.4350
 1.1020	47.4110
 1.1030	47.3890
 1.1040	47.3670
 1.1050	47.3440
 1.1060	47.3200
 1.1070	47.2990
 1.1080	47.2720
 1.1090	47.2430
 1.1100	47.2120
 1.1110	47.1770
 1.1120	47.1430
 1.1130	47.1110
 1.1140	47.0730
 1.1150	47.0320
 1.1160	46.9870
 1.1170	46.9360
 1.1180	46.8830
 1.1190	46.8290
 1.1200	46.7700
 1.1210	46.7060
 1.1220	46.6390
 1.1230	46.5650
 1.1240	46.4860
 1.1250	46.4020
 1.1260	46.3160
 1.1270	46.2200
 1.1280	46.1200
 1.1290	46.0090
 1.1300	45.8910
 1.1310	45.7640
 1.1320	45.6290
 1.1330	45.4880
 1.1340	45.3420
 1.1350	45.1860
 1.1360	45.0220
 1.1370	44.8500
 1.1380	44.6660
 1.1390	44.4750
 1.1400	44.2750
 1.1410	44.0710
 1.1420	43.8640
 1.1430	43.6520
 1.1440	43.4370
 1.1450	43.2140
 1.1460	42.9980
 1.1470	42.7780
 1.1480	42.5680
 1.1490	42.3620
 1.1500	42.1670
 1.1510	41.9750
 1.1520	41.7960
 1.1530	41.6260
 1.1540	41.4690
 1.1550	41.3210
 1.1560	41.1870
 1.1570	41.0650
 1.1580	40.9540
 1.1590	40.8540
 1.1600	40.7640
 1.1610	40.6850
 1.1620	40.6140
 1.1630	40.5510
 1.1640	40.4940
 1.1650	40.4430
 1.1660	40.4000
 1.1670	40.3600
 1.1680	40.3280
 1.1690	40.2940
 1.1700	40.2630
 1.1710	40.2320
 1.1720	40.2020
 1.1730	40.1730
 1.1740	40.1460
 1.1750	40.1200
 1.1760	40.0930
 1.1770	40.0650
 1.1780	40.0330
 1.1790	39.9990
 1.1800	39.9630
 1.1810	39.9250
 1.1820	39.8870
 1.1830	39.8490
 1.1840	39.8130
 1.1850	39.7790
 1.1860	39.7440
 1.1870	39.7120
 1.1880	39.6810
 1.1890	39.6490
 1.1900	39.6200
 1.1910	39.5950
 1.1920	39.5710
 1.1930	39.5480
 1.1940	39.5290
 1.1950	39.5140
 1.1960	39.4990
 1.1970	39.4840
 1.1980	39.4720
 1.1990	39.4620
 1.2000	39.4550
 1.2010	39.4540
 1.2020	39.4560
 1.2030	39.4630
 1.2040	39.4740
 1.2050	39.4860
 1.2060	39.5030
 1.2070	39.5240
 1.2080	39.5460
 1.2090	39.5730
 1.2100	39.6050
 1.2110	39.6390
 1.2120	39.6760
 1.2130	39.7170
 1.2140	39.7630
 1.2150	39.8100
 1.2160	39.8620
 1.2170	39.9150
 1.2180	39.9710
 1.2190	40.0280
 1.2200	40.0860
 1.2210	40.1480
 1.2220	40.2090
 1.2230	40.2690
 1.2240	40.3310
 1.2250	40.3910
 1.2260	40.4470
 1.2270	40.5020
 1.2280	40.5560
 1.2290	40.6100
 1.2300	40.6610
 1.2310	40.7110
 1.2320	40.7610
 1.2330	40.8050
 1.2340	40.8490
 1.2350	40.8940
 1.2360	40.9360
 1.2370	40.9740
 1.2380	41.0120
 1.2390	41.0490
 1.2400	41.0830
 1.2410	41.1190
 1.2420	41.1520
 1.2430	41.1830
 1.2440	41.2160
 1.2450	41.2470
 1.2460	41.2770
 1.2470	41.3070
 1.2480	41.3340
 1.2490	41.3580
 1.2500	41.3810
 1.2510	41.4050
 1.2520	41.4280
 1.2530	41.4480
 1.2540	41.4670
 1.2550	41.4830
 1.2560	41.4990
 1.2570	41.5130
 1.2580	41.5240
 1.2590	41.5350
 1.2600	41.5470
 1.2610	41.5560
 1.2620	41.5630
 1.2630	41.5730
 1.2640	41.5760
 1.2650	41.5790
 1.2660	41.5810
 1.2670	41.5790
 1.2680	41.5770
 1.2690	41.5730
 1.2700	41.5670
 1.2710	41.5600
 1.2720	41.5530
 1.2730	41.5460
 1.2740	41.5360
 1.2750	41.5270
 1.2760	41.5160
 1.2770	41.4990
 1.2780	41.4800
 1.2790	41.4600
 1.2800	41.4390
 1.2810	41.4170
 1.2820	41.3940
 1.2830	41.3690
 1.2840	41.3410
 1.2850	41.3120
 1.2860	41.2820
 1.2870	41.2490
 1.2880	41.2130
 1.2890	41.1730
 1.2900	41.1300
 1.2910	41.0850
 1.2920	41.0370
 1.2930	40.9890
 1.2940	40.9370
 1.2950	40.8820
 1.2960	40.8240
 1.2970	40.7620
 1.2980	40.6960
 1.2990	40.6270
 1.3000	40.5550
 1.3010	40.4800
 1.3020	40.4010
 1.3030	40.3190
 1.3040	40.2310
 1.3050	40.1400
 1.3060	40.0460
 1.3070	39.9470
 1.3080	39.8450
 1.3090	39.7370
 1.3100	39.6240
 1.3110	39.5060
 1.3120	39.3790
 1.3130	39.2500
 1.3140	39.1180
 1.3150	38.9840
 1.3160	38.8450
 1.3170	38.7050
 1.3180	38.5580
 1.3190	38.4040
 1.3200	38.2440
 1.3210	38.0790
 1.3220	37.9100
 1.3230	37.7370
 1.3240	37.5590
 1.3250	37.3810
 1.3260	37.1980
 1.3270	37.0100
 1.3280	36.8220
 1.3290	36.6310
 1.3300	36.4370
 1.3310	36.2430
 1.3320	36.0450
 1.3330	35.8460
 1.3340	35.6460
 1.3350	35.4430
 1.3360	35.2400
 1.3370	35.0370
 1.3380	34.8350
 1.3390	34.6340
 1.3400	34.4330
 1.3410	34.2350
 1.3420	34.0380
 1.3430	33.8420
 1.3440	33.6510
 1.3450	33.4610
 1.3460	33.2720
 1.3470	33.0870
 1.3480	32.9020
 1.3490	32.7230
 1.3500	32.5470
 1.3510	32.3700
 1.3520	32.1960
 1.3530	32.0250
 1.3540	31.8500
 1.3550	31.6780
 1.3560	31.5070
 1.3570	31.3360
 1.3580	31.1660
 1.3590	30.9940
 1.3600	30.8180
 1.3610	30.6400
 1.3620	30.4570
 1.3630	30.2680
 1.3640	30.0740
 1.3650	29.8710
 1.3660	29.6630
 1.3670	29.4470
 1.3680	29.2200
 1.3690	28.9830
 1.3700	28.7320
 1.3710	28.4690
 1.3720	28.1920
 1.3730	27.8990
 1.3740	27.5930
 1.3750	27.2690
 1.3760	26.9240
 1.3770	26.5610
 1.3780	26.1750
 1.3790	25.7690
 1.3800	25.3430
 1.3810	24.8960
 1.3820	24.4360
 1.3830	23.9590
 1.3840	23.4700
 1.3850	22.9660
 1.3860	22.4550
 1.3870	21.9260
 1.3880	21.4010
 1.3890	20.8710
 1.3900	20.3380
 1.3910	19.8130
 1.3920	19.2890
 1.3930	18.7670
 1.3940	18.2550
 1.3950	17.7470
 1.3960	17.2530
 1.3970	16.7750
 1.3980	16.3110
 1.3990	15.8700
 1.4000	15.4460
 1.4010	15.0370
 1.4020	14.6500
 1.4030	14.2800
 1.4040	13.9300
 1.4050	13.6020
 1.4060	13.2920
 1.4070	13.0040
 1.4080	12.7350
 1.4090	12.4830
 1.4100	12.2520
 1.4110	12.0360
 1.4120	11.8370
 1.4130	11.6540
 1.4140	11.4830
 1.4150	11.3280
 1.4160	11.1870
 1.4170	11.0570
 1.4180	10.9380
 1.4190	10.8290
 1.4200	10.7300
 1.4210	10.6400
 1.4220	10.5580
 1.4230	10.4850
 1.4240	10.4180
 1.4250	10.3560
 1.4260	10.3010
 1.4270	10.2510
 1.4280	10.2080
 1.4290	10.1680
 1.4300	10.1340
 1.4310	10.1030
 1.4320	10.0750
 1.4330	10.0510
 1.4340	10.0310
 1.4350	10.0140
 1.4360	 9.9990
 1.4370	 9.9880
 1.4380	 9.9790
 1.4390	 9.9720
 1.4400	 9.9670
 1.4410	 9.9630
 1.4420	 9.9620
 1.4430	 9.9630
 1.4440	 9.9650
 1.4450	 9.9680
 1.4460	 9.9720
 1.4470	 9.9770
 1.4480	 9.9830
 1.4490	 9.9900
 1.4500	 9.9990
 1.4510	10.0090
 1.4520	10.0200
 1.4530	10.0310
 1.4540	10.0420
 1.4550	10.0550
 1.4560	10.0690
 1.4570	10.0840
 1.4580	10.1020
 1.4590	10.1200
 1.4600	10.1400
 1.4610	10.1620
 1.4620	10.1870
 1.4630	10.2140
 1.4640	10.2430
 1.4650	10.2740
 1.4660	10.3090
 1.4670	10.3460
 1.4680	10.3880
 1.4690	10.4320
 1.4700	10.4790
 1.4710	10.5290
 1.4720	10.5810
 1.4730	10.6350
 1.4740	10.6920
 1.4750	10.7510
 1.4760	10.8130
 1.4770	10.8750
 1.4780	10.9390
 1.4790	11.0060
 1.4800	11.0730
 1.4810	11.1420
 1.4820	11.2140
 1.4830	11.2860
 1.4840	11.3600
 1.4850	11.4350
 1.4860	11.5090
 1.4870	11.5860
 1.4880	11.6630
 1.4890	11.7400
 1.4900	11.8180
 1.4910	11.8960
 1.4920	11.9750
 1.4930	12.0550
 1.4940	12.1350
 1.4950	12.2160
 1.4960	12.2970
 1.4970	12.3780
 1.4980	12.4610
 1.4990	12.5440
 1.5000	12.6260
 1.5010	12.7100
 1.5020	12.7920
 1.5030	12.8740
 1.5040	12.9560
 1.5050	13.0380
 1.5060	13.1210
 1.5070	13.2040
 1.5080	13.2870
 1.5090	13.3710
 1.5100	13.4550
 1.5110	13.5390
 1.5120	13.6220
 1.5130	13.7050
 1.5140	13.7870
 1.5150	13.8700
 1.5160	13.9500
 1.5170	14.0310
 1.5180	14.1120
 1.5190	14.1920
 1.5200	14.2720
 1.5210	14.3510
 1.5220	14.4310
 1.5230	14.5100
 1.5240	14.5880
 1.5250	14.6670
 1.5260	14.7430
 1.5270	14.8190
 1.5280	14.8960
 1.5290	14.9730
 1.5300	15.0500
 1.5310	15.1260
 1.5320	15.2000
 1.5330	15.2740
 1.5340	15.3470
 1.5350	15.4190
 1.5360	15.4910
 1.5370	15.5630
 1.5380	15.6340
 1.5390	15.7050
 1.5400	15.7750
 1.5410	15.8450
 1.5420	15.9130
 1.5430	15.9820
 1.5440	16.0510
 1.5450	16.1190
 1.5460	16.1870
 1.5470	16.2550
 1.5480	16.3210
 1.5490	16.3860
 1.5500	16.4510
 1.5510	16.5150
 1.5520	16.5800
 1.5530	16.6440
 1.5540	16.7070
 1.5550	16.7700
 1.5560	16.8320
 1.5570	16.8940
 1.5580	16.9550
 1.5590	17.0170
 1.5600	17.0780
 1.5610	17.1370
 1.5620	17.1980
 1.5630	17.2580
 1.5640	17.3150
 1.5650	17.3740
 1.5660	17.4320
 1.5670	17.4890
 1.5680	17.5490
 1.5690	17.6070
 1.5700	17.6630
 1.5710	17.7200
 1.5720	17.7760
 1.5730	17.8340
 1.5740	17.8910
 1.5750	17.9480
 1.5760	18.0050
 1.5770	18.0600
 1.5780	18.1170
 1.5790	18.1730
 1.5800	18.2270
 1.5810	18.2830
 1.5820	18.3380
 1.5830	18.3930
 1.5840	18.4480
 1.5850	18.5030
 1.5860	18.5570
 1.5870	18.6130
 1.5880	18.6680
 1.5890	18.7230
 1.5900	18.7770
 1.5910	18.8310
 1.5920	18.8840
 1.5930	18.9390
 1.5940	18.9910
 1.5950	19.0460
 1.5960	19.0980
 1.5970	19.1500
 1.5980	19.2050
 1.5990	19.2590
 1.6000	19.3120
 1.6010	19.3640
 1.6020	19.4160
 1.6030	19.4670
 1.6040	19.5170
 1.6050	19.5680
 1.6060	19.6170
 1.6070	19.6660
 1.6080	19.7150
 1.6090	19.7630
 1.6100	19.8110
 1.6110	19.8580
 1.6120	19.9040
 1.6130	19.9500
 1.6140	19.9950
 1.6150	20.0390
 1.6160	20.0840
 1.6170	20.1270
 1.6180	20.1690
 1.6190	20.2120
 1.6200	20.2540
 1.6210	20.2940
 1.6220	20.3340
 1.6230	20.3730
 1.6240	20.4110
 1.6250	20.4470
 1.6260	20.4830
 1.6270	20.5190
 1.6280	20.5530
 1.6290	20.5850
 1.6300	20.6170
 1.6310	20.6460
 1.6320	20.6740
 1.6330	20.7000
 1.6340	20.7260
 1.6350	20.7500
 1.6360	20.7710
 1.6370	20.7900
 1.6380	20.8070
 1.6390	20.8210
 1.6400	20.8340
 1.6410	20.8420
 1.6420	20.8470
 1.6430	20.8480
 1.6440	20.8450
 1.6450	20.8400
 1.6460	20.8320
 1.6470	20.8200
 1.6480	20.8060
 1.6490	20.7890
 1.6500	20.7710
 1.6510	20.7500
 1.6520	20.7260
 1.6530	20.7020
 1.6540	20.6780
 1.6550	20.6540
 1.6560	20.6320
 1.6570	20.6110
 1.6580	20.5900
 1.6590	20.5730
 1.6600	20.5590
 1.6610	20.5500
 1.6620	20.5450
 1.6630	20.5450
 1.6640	20.5480
 1.6650	20.5560
 1.6660	20.5670
 1.6670	20.5810
 1.6680	20.5980
 1.6690	20.6190
 1.6700	20.6400
 1.6710	20.6620
 1.6720	20.6820
 1.6730	20.7000
 1.6740	20.7160
 1.6750	20.7280
 1.6760	20.7370
 1.6770	20.7410
 1.6780	20.7400
 1.6790	20.7360
 1.6800	20.7260
 1.6810	20.7110
 1.6820	20.6920
 1.6830	20.6680
 1.6840	20.6410
 1.6850	20.6090
 1.6860	20.5720
 1.6870	20.5340
 1.6880	20.4920
 1.6890	20.4470
 1.6900	20.4010
 1.6910	20.3510
 1.6920	20.3020
 1.6930	20.2500
 1.6940	20.1990
 1.6950	20.1480
 1.6960	20.0960
 1.6970	20.0440
 1.6980	19.9900
 1.6990	19.9320
 1.7000	19.8770
 1.7010	19.8210
 1.7020	19.7650
 1.7030	19.7120
 1.7040	19.6580
 1.7050	19.6040
 1.7060	19.5490
 1.7070	19.4940
 1.7080	19.4410
 1.7090	19.3860
 1.7100	19.3330
 1.7110	19.2820
 1.7120	19.2300
 1.7130	19.1820
 1.7140	19.1350
 1.7150	19.0870
 1.7160	19.0400
 1.7170	18.9940
 1.7180	18.9470
 1.7190	18.9030
 1.7200	18.8610
 1.7210	18.8160
 1.7220	18.7720
 1.7230	18.7290
 1.7240	18.6860
 1.7250	18.6470
 1.7260	18.6110
 1.7270	18.5750
 1.7280	18.5420
 1.7290	18.5120
 1.7300	18.4850
 1.7310	18.4620
 1.7320	18.4430
 1.7330	18.4240
 1.7340	18.4110
 1.7350	18.3940
 1.7360	18.3780
 1.7370	18.3580
 1.7380	18.3370
 1.7390	18.3110
 1.7400	18.2810
 1.7410	18.2480
 1.7420	18.2110
 1.7430	18.1710
 1.7440	18.1290
 1.7450	18.0830
 1.7460	18.0320
 1.7470	17.9830
 1.7480	17.9310
 1.7490	17.8800
 1.7500	17.8280
 1.7510	17.7760
 1.7520	17.7220
 1.7530	17.6710
 1.7540	17.6230
 1.7550	17.5740
 1.7560	17.5260
 1.7570	17.4770
 1.7580	17.4290
 1.7590	17.3840
 1.7600	17.3410
 1.7610	17.2990
 1.7620	17.2610
 1.7630	17.2240
 1.7640	17.1900
 1.7650	17.1590
 1.7660	17.1300
 1.7670	17.1030
 1.7680	17.0770
 1.7690	17.0510
 1.7700	17.0270
 1.7710	17.0050
 1.7720	16.9820
 1.7730	16.9610
 1.7740	16.9400
 1.7750	16.9190
 1.7760	16.9000
 1.7770	16.8820
 1.7780	16.8640
 1.7790	16.8460
 1.7800	16.8300
 1.7810	16.8130
 1.7820	16.8000
 1.7830	16.7880
 1.7840	16.7780
 1.7850	16.7720
 1.7860	16.7640
 1.7870	16.7550
 1.7880	16.7500
 1.7890	16.7470
 1.7900	16.7450
 1.7910	16.7450
 1.7920	16.7460
 1.7930	16.7470
 1.7940	16.7490
 1.7950	16.7520
 1.7960	16.7550
 1.7970	16.7590
 1.7980	16.7640
 1.7990	16.7700
 1.8000	16.7750
 1.8010	16.7810
 1.8020	16.7900
 1.8030	16.7980
 1.8040	16.8060
 1.8050	16.8130
 1.8060	16.8180
 1.8070	16.8240
 1.8080	16.8310
 1.8090	16.8370
 1.8100	16.8420
 1.8110	16.8480
 1.8120	16.8540
 1.8130	16.8590
 1.8140	16.8640
 1.8150	16.8690
 1.8160	16.8730
 1.8170	16.8770
 1.8180	16.8810
 1.8190	16.8870
 1.8200	16.8910
 1.8210	16.8950
 1.8220	16.8970
 1.8230	16.8960
 1.8240	16.8950
 1.8250	16.8930
 1.8260	16.8910
 1.8270	16.8640
 1.8280	16.8370
 1.8290	16.8100
 1.8300	16.7840
 1.8310	16.7570
 1.8320	16.7300
 1.8330	16.7030
 1.8340	16.6770
 1.8350	16.6770
 1.8360	16.6580
 1.8370	16.6300
 1.8380	16.6010
 1.8390	16.5680
 1.8400	16.5290
 1.8410	16.4870
 1.8420	16.4410
 1.8430	16.3920
 1.8440	16.3360
 1.8450	16.2770
 1.8460	16.2130
 1.8470	16.1430
 1.8480	16.0660
 1.8490	15.9800
 1.8500	15.8870
 1.8510	15.7870
 1.8520	15.6770
 1.8530	15.5580
 1.8540	15.4340
 1.8550	15.3010
 1.8560	15.1600
 1.8570	15.0130
 1.8580	14.8560
 1.8590	14.6890
 1.8600	14.5120
 1.8610	14.3260
 1.8620	14.1290
 1.8630	13.9260
 1.8640	13.7140
 1.8650	13.4920
 1.8660	13.2600
 1.8670	13.0160
 1.8680	12.7630
 1.8690	12.5000
 1.8700	12.2300
 1.8710	11.9510
 1.8720	11.6690
 1.8730	11.3840
 1.8740	11.0960
 1.8750	10.8110
 1.8760	10.5200
 1.8770	10.2310
 1.8780	 9.9490
 1.8790	 9.6680
 1.8800	 9.3950
 1.8810	 9.1280
 1.8820	 8.8680
 1.8830	 8.6100
 1.8840	 8.3620
 1.8850	 8.1220
 1.8860	 7.8910
 1.8870	 7.6710
 1.8880	 7.4610
 1.8890	 7.2610
 1.8900	 7.0730
 1.8910	 6.8960
 1.8920	 6.7310
 1.8930	 6.5770
 1.8940	 6.4340
 1.8950	 6.3020
 1.8960	 6.1790
 1.8970	 6.0650
 1.8980	 5.9630
 1.8990	 5.8690
 1.9000	 5.7830
 1.9010	 5.7070
 1.9020	 5.6360
 1.9030	 5.5730
 1.9040	 5.5150
 1.9050	 5.4620
 1.9060	 5.4150
 1.9070	 5.3710
 1.9080	 5.3340
 1.9090	 5.3050
 1.9100	 5.2790
 1.9110	 5.2540
 1.9120	 5.2320
 1.9130	 5.2130
 1.9140	 5.1950
 1.9150	 5.1790
 1.9160	 5.1680
 1.9170	 5.1570
 1.9180	 5.1460
 1.9190	 5.1370
 1.9200	 5.1300
 1.9210	 5.1250
 1.9220	 5.1210
 1.9230	 5.1190
 1.9240	 5.1160
 1.9250	 5.1130
 1.9260	 5.1100
 1.9270	 5.1110
 1.9280	 5.1140
 1.9290	 5.1190
 1.9300	 5.1230
 1.9310	 5.1250
 1.9320	 5.1270
 1.9330	 5.1320
 1.9340	 5.1380
 1.9350	 5.1450
 1.9360	 5.1540
 1.9370	 5.1630
 1.9380	 5.1710
 1.9390	 5.1800
 1.9400	 5.1890
 1.9410	 5.1960
 1.9420	 5.2040
 1.9430	 5.2140
 1.9440	 5.2250
 1.9450	 5.2380
 1.9460	 5.2500
 1.9470	 5.2610
 1.9480	 5.2730
 1.9490	 5.2830
 1.9500	 5.2960
 1.9510	 5.3120
 1.9520	 5.3280
 1.9530	 5.3450
 1.9540	 5.3610
 1.9550	 5.3750
 1.9560	 5.3860
 1.9570	 5.4010
 1.9580	 5.4180
 1.9590	 5.4330
 1.9600	 5.4500
 1.9610	 5.4670
 1.9620	 5.4840
 1.9630	 5.5000
 1.9640	 5.5180
 1.9650	 5.5400
 1.9660	 5.5610
 1.9670	 5.5800
 1.9680	 5.5980
 1.9690	 5.6140
 1.9700	 5.6320
 1.9710	 5.6520
 1.9720	 5.6710
 1.9730	 5.6920
 1.9740	 5.7110
 1.9750	 5.7300
 1.9760	 5.7500
 1.9770	 5.7730
 1.9780	 5.7970
 1.9790	 5.8200
 1.9800	 5.8430
 1.9810	 5.8660
 1.9820	 5.8900
 1.9830	 5.9140
 1.9840	 5.9390
 1.9850	 5.9630
 1.9860	 5.9860
 1.9870	 6.0090
 1.9880	 6.0340
 1.9890	 6.0600
 1.9900	 6.0850
 1.9910	 6.1110
 1.9920	 6.1350
 1.9930	 6.1560
 1.9940	 6.1820
 1.9950	 6.2110
 1.9960	 6.2380
 1.9970	 6.2670
 1.9980	 6.2950
 1.9990	 6.3190
 2.0000	 6.3440
 2.0010	 6.3720
 2.0020	 6.4000
 2.0030	 6.4290
 2.0040	 6.4560
 2.0050	 6.4830
 2.0060	 6.5080
 2.0070	 6.5340
 2.0080	 6.5600
 2.0090	 6.5870
 2.0100	 6.6140
 2.0110	 6.6400
 2.0120	 6.6660
 2.0130	 6.6910
 2.0140	 6.7170
 2.0150	 6.7410
 2.0160	 6.7660
 2.0170	 6.7900
 2.0180	 6.8150
 2.0190	 6.8390
 2.0200	 6.8630
 2.0210	 6.8880
 2.0220	 6.9110
 2.0230	 6.9310
 2.0240	 6.9530
 2.0250	 6.9740
 2.0260	 6.9960
 2.0270	 7.0180
 2.0280	 7.0390
 2.0290	 7.0600
 2.0300	 7.0780
 2.0310	 7.0990
 2.0320	 7.1220
 2.0330	 7.1420
 2.0340	 7.1620
 2.0350	 7.1810
 2.0360	 7.1980
 2.0370	 7.2150
 2.0380	 7.2360
 2.0390	 7.2520
 2.0400	 7.2640
 2.0410	 7.2780
 2.0420	 7.2870
 2.0430	 7.3000
 2.0440	 7.3140
 2.0450	 7.3310
 2.0460	 7.3460
 2.0470	 7.3630
 2.0480	 7.3760
 2.0490	 7.3860
 2.0500	 7.4000
 2.0510	 7.4120
 2.0520	 7.4260
 2.0530	 7.4440
 2.0540	 7.4580
 2.0550	 7.4710
 2.0560	 7.4820
 2.0570	 7.4930
 2.0580	 7.5060
 2.0590	 7.5180
 2.0600	 7.5310
 2.0610	 7.5430
 2.0620	 7.5530
 2.0630	 7.5640
 2.0640	 7.5760
 2.0650	 7.5880
 2.0660	 7.5990
 2.0670	 7.6100
 2.0680	 7.6220
 2.0690	 7.6330
 2.0700	 7.6440
 2.0710	 7.6550
 2.0720	 7.6650
 2.0730	 7.6750
 2.0740	 7.6860
 2.0750	 7.6990
 2.0760	 7.7110
 2.0770	 7.7250
 2.0780	 7.7370
 2.0790	 7.7490
 2.0800	 7.7610
 2.0810	 7.7720
 2.0820	 7.7840
 2.0830	 7.7980
 2.0840	 7.8110
 2.0850	 7.8290
 2.0860	 7.8420
 2.0870	 7.8510
 2.0880	 7.8610
 2.0890	 7.8720
 2.0900	 7.8810
 2.0910	 7.8930
 2.0920	 7.9110
 2.0930	 7.9220
 2.0940	 7.9310
 2.0950	 7.9420
 2.0960	 7.9510
 2.0970	 7.9630
 2.0980	 7.9800
 2.0990	 7.9930
 2.1000	 8.0040
 2.1010	 8.0160
 2.1020	 8.0250
 2.1030	 8.0360
 2.1040	 8.0480
 2.1050	 8.0590
 2.1060	 8.0720
 2.1070	 8.0860
 2.1080	 8.0980
 2.1090	 8.1090
 2.1100	 8.1190
 2.1110	 8.1260
 2.1120	 8.1360
 2.1130	 8.1460
 2.1140	 8.1570
 2.1150	 8.1720
 2.1160	 8.1830
 2.1170	 8.1950
 2.1180	 8.2050
 2.1190	 8.2120
 2.1200	 8.2210
 2.1210	 8.2300
 2.1220	 8.2370
 2.1230	 8.2460
 2.1240	 8.2560
 2.1250	 8.2650
 2.1260	 8.2750
 2.1270	 8.2840
 2.1280	 8.2920
 2.1290	 8.3020
 2.1300	 8.3130
 2.1310	 8.3230
 2.1320	 8.3350
 2.1330	 8.3470
 2.1340	 8.3560
 2.1350	 8.3700
 2.1360	 8.3890
 2.1370	 8.4030
 2.1380	 8.4170
 2.1390	 8.4310
 2.1400	 8.4440
 2.1410	 8.4550
 2.1420	 8.4680
 2.1430	 8.4820
 2.1440	 8.4950
 2.1450	 8.5060
 2.1460	 8.5210
 2.1470	 8.5380
 2.1480	 8.5540
 2.1490	 8.5720
 2.1500	 8.5880
 2.1510	 8.6010
 2.1520	 8.6160
 2.1530	 8.6320
 2.1540	 8.6490
 2.1550	 8.6670
 2.1560	 8.6850
 2.1570	 8.7040
 2.1580	 8.7220
 2.1590	 8.7400
 2.1600	 8.7600
 2.1610	 8.7780
 2.1620	 8.7930
 2.1630	 8.8120
 2.1640	 8.8310
 2.1650	 8.8490
 2.1660	 8.8700
 2.1670	 8.8850
 2.1680	 8.8970
 2.1690	 8.9090
 2.1700	 8.9180
 2.1710	 8.9300
 2.1720	 8.9450
 2.1730	 8.9570
 2.1740	 8.9680
 2.1750	 8.9790
 2.1760	 8.9870
 2.1770	 8.9990
 2.1780	 9.0140
 2.1790	 9.0280
 2.1800	 9.0420
 2.1810	 9.0570
 2.1820	 9.0740
 2.1830	 9.0870
 2.1840	 9.1000
 2.1850	 9.1120
 2.1860	 9.1250
 2.1870	 9.1360
 2.1880	 9.1480
 2.1890	 9.1630
 2.1900	 9.1760
 2.1910	 9.1900
 2.1920	 9.2040
 2.1930	 9.2190
 2.1940	 9.2340
 2.1950	 9.2480
 2.1960	 9.2650
 2.1970	 9.2850
 2.1980	 9.3010
 2.1990	 9.3180
 2.2000	 9.3330
 2.2010	 9.3430
 2.2020	 9.3550
 2.2030	 9.3670
 2.2040	 9.3780
 2.2050	 9.3890
 2.2060	 9.4010
 2.2070	 9.4120
 2.2080	 9.4220
 2.2090	 9.4330
 2.2100	 9.4430
 2.2110	 9.4530
 2.2120	 9.4650
 2.2130	 9.4750
 2.2140	 9.4840
 2.2150	 9.4930
 2.2160	 9.5010
 2.2170	 9.5070
 2.2180	 9.5110
 2.2190	 9.5140
 2.2200	 9.5130
 2.2210	 9.5150
 2.2220	 9.5160
 2.2230	 9.5170
 2.2240	 9.5220
 2.2250	 9.5210
 2.2260	 9.5160
 2.2270	 9.5110
 2.2280	 9.5000
 2.2290	 9.4910
 2.2300	 9.4840
 2.2310	 9.4730
 2.2320	 9.4600
 2.2330	 9.4470
 2.2340	 9.4290
 2.2350	 9.4080
 2.2360	 9.3870
 2.2370	 9.3640
 2.2380	 9.3420
 2.2390	 9.3220
 2.2400	 9.2980
 2.2410	 9.2730
 2.2420	 9.2450
 2.2430	 9.2140
 2.2440	 9.1810
 2.2450	 9.1420
 2.2460	 9.1060
 2.2470	 9.0680
 2.2480	 9.0310
 2.2490	 8.9980
 2.2500	 8.9620
 2.2510	 8.9260
 2.2520	 8.8860
 2.2530	 8.8420
 2.2540	 8.7990
 2.2550	 8.7510
 2.2560	 8.7060
 2.2570	 8.6600
 2.2580	 8.6190
 2.2590	 8.5820
 2.2600	 8.5430
 2.2610	 8.5040
 2.2620	 8.4660
 2.2630	 8.4270
 2.2640	 8.3870
 2.2650	 8.3510
 2.2660	 8.3160
 2.2670	 8.2790
 2.2680	 8.2420
 2.2690	 8.2040
 2.2700	 8.1650
 2.2710	 8.1300
 2.2720	 8.0990
 2.2730	 8.0660
 2.2740	 8.0360
 2.2750	 8.0070
 2.2760	 7.9770
 2.2770	 7.9460
 2.2780	 7.9160
 2.2790	 7.8860
 2.2800	 7.8510
 2.2810	 7.8220
 2.2820	 7.7970
 2.2830	 7.7730
 2.2840	 7.7550
 2.2850	 7.7300
 2.2860	 7.6990
 2.2870	 7.6700
 2.2880	 7.6360
 2.2890	 7.6080
 2.2900	 7.5880
 2.2910	 7.5610
 2.2920	 7.5330
 2.2930	 7.5030
 2.2940	 7.4670
 2.2950	 7.4320
 2.2960	 7.3970
 2.2970	 7.3600
 2.2980	 7.3220
 2.2990	 7.2820
 2.3000	 7.2420
 2.3010	 7.2110
 2.3020	 7.1910
 2.3030	 7.1720
 2.3040	 7.1490
 2.3050	 7.1260
 2.3060	 7.0930
 2.3070	 7.0610
 2.3080	 7.0430
 2.3090	 7.0260
 2.3100	 7.0130
 2.3110	 7.0080
 2.3120	 7.0030
 2.3130	 6.9980
 2.3140	 7.0010
 2.3150	 7.0120
 2.3160	 7.0200
 2.3170	 7.0340
 2.3180	 7.0400
 2.3190	 7.0430
 2.3200	 7.0450
 2.3210	 7.0440
 2.3220	 7.0430
 2.3230	 7.0430
 2.3240	 7.0400
 2.3250	 7.0340
 2.3260	 7.0280
 2.3270	 7.0200
 2.3280	 7.0100
 2.3290	 6.9990
 2.3300	 6.9870
 2.3310	 6.9730
 2.3320	 6.9610
 2.3330	 6.9500
 2.3340	 6.9360
 2.3350	 6.9210
 2.3360	 6.9050
 2.3370	 6.8860
 2.3380	 6.8670
 2.3390	 6.8460
 2.3400	 6.8280
 2.3410	 6.8100
 2.3420	 6.7920
 2.3430	 6.7750
 2.3440	 6.7570
 2.3450	 6.7350
 2.3460	 6.7200
 2.3470	 6.7080
 2.3480	 6.6970
 2.3490	 6.6930
 2.3500	 6.6880
 2.3510	 6.6840
 2.3520	 6.6790
 2.3530	 6.6780
 2.3540	 6.6690
 2.3550	 6.6570
 2.3560	 6.6490
 2.3570	 6.6410
 2.3580	 6.6310
 2.3590	 6.6240
 2.3600	 6.6170
 2.3610	 6.6080
 2.3620	 6.6000
 2.3630	 6.5910
 2.3640	 6.5780
 2.3650	 6.5660
 2.3660	 6.5540
 2.3670	 6.5440
 2.3680	 6.5350
 2.3690	 6.5190
 2.3700	 6.5070
 2.3710	 6.4980
 2.3720	 6.4880
 2.3730	 6.4820
 2.3740	 6.4730
 2.3750	 6.4500
 2.3760	 6.4260
 2.3770	 6.4130
 2.3780	 6.3990
 2.3790	 6.3920
 2.3800	 6.3880
 2.3810	 6.3670
 2.3820	 6.3410
 2.3830	 6.3220
 2.3840	 6.3020
 2.3850	 6.2890
 2.3860	 6.2840
 2.3870	 6.2760
 2.3880	 6.2660
 2.3890	 6.2610
 2.3900	 6.2540
 2.3910	 6.2370
 2.3920	 6.2220
 2.3930	 6.2030
 2.3940	 6.1780
 2.3950	 6.1580
 2.3960	 6.1400
 2.3970	 6.1180
 2.3980	 6.1050
 2.3990	 6.1000
 2.4000	 6.0910
 2.4010	 6.0770
 2.4020	 6.0670
 2.4030	 6.0510
 2.4040	 6.0270
 2.4050	 6.0160
 2.4060	 6.0090
 2.4070	 5.9960
 2.4080	 5.9860
 2.4090	 5.9760
 2.4100	 5.9590
 2.4110	 5.9530
 2.4120	 5.9510
 2.4130	 5.9400
 2.4140	 5.9260
 2.4150	 5.8940
 2.4160	 5.8600
 2.4170	 5.8320
 2.4180	 5.8060
 2.4190	 5.7850
 2.4200	 5.7720
 2.4210	 5.7720
 2.4220	 5.7600
 2.4230	 5.7540
 2.4240	 5.7530
 2.4250	 5.7410
 2.4260	 5.7350
 2.4270	 5.7220
 2.4280	 5.7040
 2.4290	 5.6710
 2.4300	 5.6350
 2.4310	 5.6190
 2.4320	 5.6070
 2.4330	 5.5980
 2.4340	 5.5960
 2.4350	 5.6060
 2.4360	 5.6090
 2.4370	 5.5940
 2.4380	 5.5860
 2.4390	 5.5560
 2.4400	 5.5080
 2.4410	 5.4950
 2.4420	 5.4810
 2.4430	 5.4610
 2.4440	 5.4650
 2.4450	 5.4570
 2.4460	 5.4510
 2.4470	 5.4580
 2.4480	 5.4470
 2.4490	 5.4210
 2.4500	 5.3920
 2.4510	 5.3630
 2.4520	 5.3560
 2.4530	 5.3700
 2.4540	 5.3660
 2.4550	 5.3570
 2.4560	 5.3360
 2.4570	 5.3010
 2.4580	 5.2960
 2.4590	 5.2890
 2.4600	 5.2770
 2.4610	 5.2780
 2.4620	 5.2630
 2.4630	 5.2580
 2.4640	 5.2600
 2.4650	 5.2430
 2.4660	 5.2450
 2.4670	 5.2460
 2.4680	 5.2250
 2.4690	 5.2100
 2.4700	 5.1930
 2.4710	 5.1760
 2.4720	 5.1600
 2.4730	 5.1340
 2.4740	 5.1380
 2.4750	 5.1620
 2.4760	 5.1650
 2.4770	 5.1770
 2.4780	 5.1840
 2.4790	 5.1790
 2.4800	 5.1720
 2.4810	 5.1730
 2.4820	 5.1460
 2.4830	 5.1290
 2.4840	 5.1150
 2.4850	 5.1100
 2.4860	 5.1310
 2.4870	 5.1350
 2.4880	 5.1550
 2.4890	 5.1580
 2.4900	 5.1310
 2.4910	 5.1280
 2.4920	 5.0840
 2.4930	 5.0530
 2.4940	 5.0620
 2.4950	 5.0410
 2.4960	 5.0520
 2.4970	 5.0730
 2.4980	 5.0780
 2.4990	 5.0960
 2.5000	 5.0970
