Name: Caesalpinia cacalaco
Type: vegetation
Class: Tree
Genus: Caesalpinia
Species: cacalaco
Sample No.: JPL241
Owner: JPL
Wavelength Range: VSWIR
Origin: 34.1263; -118.10989; WGS84
Collection Date: 10/6/2016
Description: Samples were collected at the Huntington Garden in San Marino California as part of a JPL Subcontract studying HyTES imagery. Samples were taken to JPL and processed within 48 hours of collection. The same leaves were processed in the Nicolet and then measured using the ASD.
Measurement: Bidirectional reflectance
First Column: X
Second Column: Y
X Units: Wavelength (micrometer)
Y Units: Reflectance (percentage)
First X Value: 0.35
Last X Value: 2.5
Number of X Values: 2151
Additional Information: vegetation.tree.caesalpinia.cacalaco.vswir.jpl241.jpl.asd.ancillary.txt

 0.3500	 6.3140
 0.3510	 6.3720
 0.3520	 6.3670
 0.3530	 6.2670
 0.3540	 6.1360
 0.3550	 6.1830
 0.3560	 6.2370
 0.3570	 6.2090
 0.3580	 6.0910
 0.3590	 6.1700
 0.3600	 6.2050
 0.3610	 6.1110
 0.3620	 6.0880
 0.3630	 6.0700
 0.3640	 6.0590
 0.3650	 6.0540
 0.3660	 5.9950
 0.3670	 6.0060
 0.3680	 6.0600
 0.3690	 6.0350
 0.3700	 6.0010
 0.3710	 5.9790
 0.3720	 5.9720
 0.3730	 5.9710
 0.3740	 5.9400
 0.3750	 5.9140
 0.3760	 5.9330
 0.3770	 5.9180
 0.3780	 5.8720
 0.3790	 5.8300
 0.3800	 5.8520
 0.3810	 5.8350
 0.3820	 5.8180
 0.3830	 5.8360
 0.3840	 5.8680
 0.3850	 5.8770
 0.3860	 5.8420
 0.3870	 5.7770
 0.3880	 5.7940
 0.3890	 5.8000
 0.3900	 5.7740
 0.3910	 5.7810
 0.3920	 5.7830
 0.3930	 5.7710
 0.3940	 5.7480
 0.3950	 5.7330
 0.3960	 5.7310
 0.3970	 5.7330
 0.3980	 5.7300
 0.3990	 5.7440
 0.4000	 5.7540
 0.4010	 5.7530
 0.4020	 5.7600
 0.4030	 5.7380
 0.4040	 5.7290
 0.4050	 5.7660
 0.4060	 5.7680
 0.4070	 5.7710
 0.4080	 5.7840
 0.4090	 5.8000
 0.4100	 5.8240
 0.4110	 5.8440
 0.4120	 5.8590
 0.4130	 5.8980
 0.4140	 5.9520
 0.4150	 6.0050
 0.4160	 6.0480
 0.4170	 6.0880
 0.4180	 6.1360
 0.4190	 6.1940
 0.4200	 6.2590
 0.4210	 6.3030
 0.4220	 6.3470
 0.4230	 6.4120
 0.4240	 6.4760
 0.4250	 6.5320
 0.4260	 6.5790
 0.4270	 6.6180
 0.4280	 6.6640
 0.4290	 6.7130
 0.4300	 6.7610
 0.4310	 6.8050
 0.4320	 6.8510
 0.4330	 6.8900
 0.4340	 6.9150
 0.4350	 6.9410
 0.4360	 6.9690
 0.4370	 6.9950
 0.4380	 7.0190
 0.4390	 7.0540
 0.4400	 7.0850
 0.4410	 7.1040
 0.4420	 7.1220
 0.4430	 7.1390
 0.4440	 7.1630
 0.4450	 7.1960
 0.4460	 7.2110
 0.4470	 7.2290
 0.4480	 7.2530
 0.4490	 7.2710
 0.4500	 7.2890
 0.4510	 7.3060
 0.4520	 7.3200
 0.4530	 7.3290
 0.4540	 7.3390
 0.4550	 7.3500
 0.4560	 7.3580
 0.4570	 7.3690
 0.4580	 7.3750
 0.4590	 7.3770
 0.4600	 7.3850
 0.4610	 7.3870
 0.4620	 7.3870
 0.4630	 7.3910
 0.4640	 7.3950
 0.4650	 7.3940
 0.4660	 7.3870
 0.4670	 7.3800
 0.4680	 7.3790
 0.4690	 7.3770
 0.4700	 7.3700
 0.4710	 7.3690
 0.4720	 7.3680
 0.4730	 7.3690
 0.4740	 7.3730
 0.4750	 7.3730
 0.4760	 7.3660
 0.4770	 7.3580
 0.4780	 7.3600
 0.4790	 7.3620
 0.4800	 7.3630
 0.4810	 7.3640
 0.4820	 7.3680
 0.4830	 7.3680
 0.4840	 7.3660
 0.4850	 7.3710
 0.4860	 7.3700
 0.4870	 7.3720
 0.4880	 7.3820
 0.4890	 7.3920
 0.4900	 7.4010
 0.4910	 7.4070
 0.4920	 7.4150
 0.4930	 7.4330
 0.4940	 7.4520
 0.4950	 7.4670
 0.4960	 7.4820
 0.4970	 7.5060
 0.4980	 7.5330
 0.4990	 7.5580
 0.5000	 7.5880
 0.5010	 7.6240
 0.5020	 7.6650
 0.5030	 7.7080
 0.5040	 7.7580
 0.5050	 7.8110
 0.5060	 7.8660
 0.5070	 7.9350
 0.5080	 8.0100
 0.5090	 8.0910
 0.5100	 8.1800
 0.5110	 8.2830
 0.5120	 8.3970
 0.5130	 8.5220
 0.5140	 8.6590
 0.5150	 8.8040
 0.5160	 8.9620
 0.5170	 9.1360
 0.5180	 9.3190
 0.5190	 9.5140
 0.5200	 9.7210
 0.5210	 9.9350
 0.5220	10.1510
 0.5230	10.3740
 0.5240	10.6020
 0.5250	10.8230
 0.5260	11.0350
 0.5270	11.2400
 0.5280	11.4350
 0.5290	11.6170
 0.5300	11.7860
 0.5310	11.9430
 0.5320	12.0850
 0.5330	12.2130
 0.5340	12.3290
 0.5350	12.4310
 0.5360	12.5200
 0.5370	12.5980
 0.5380	12.6660
 0.5390	12.7220
 0.5400	12.7770
 0.5410	12.8350
 0.5420	12.8930
 0.5430	12.9400
 0.5440	12.9780
 0.5450	13.0070
 0.5460	13.0250
 0.5470	13.0370
 0.5480	13.0490
 0.5490	13.0640
 0.5500	13.0760
 0.5510	13.0800
 0.5520	13.0740
 0.5530	13.0580
 0.5540	13.0240
 0.5550	12.9740
 0.5560	12.9090
 0.5570	12.8290
 0.5580	12.7360
 0.5590	12.6350
 0.5600	12.5280
 0.5610	12.4120
 0.5620	12.2880
 0.5630	12.1590
 0.5640	12.0260
 0.5650	11.8910
 0.5660	11.7510
 0.5670	11.6060
 0.5680	11.4560
 0.5690	11.3010
 0.5700	11.1450
 0.5710	10.9920
 0.5720	10.8440
 0.5730	10.7050
 0.5740	10.5760
 0.5750	10.4580
 0.5760	10.3440
 0.5770	10.2390
 0.5780	10.1410
 0.5790	10.0500
 0.5800	 9.9690
 0.5810	 9.8950
 0.5820	 9.8200
 0.5830	 9.7490
 0.5840	 9.6800
 0.5850	 9.6120
 0.5860	 9.5510
 0.5870	 9.4990
 0.5880	 9.4530
 0.5890	 9.4080
 0.5900	 9.3590
 0.5910	 9.3150
 0.5920	 9.2790
 0.5930	 9.2480
 0.5940	 9.2240
 0.5950	 9.2030
 0.5960	 9.1840
 0.5970	 9.1640
 0.5980	 9.1420
 0.5990	 9.1190
 0.6000	 9.0980
 0.6010	 9.0740
 0.6020	 9.0420
 0.6030	 9.0030
 0.6040	 8.9620
 0.6050	 8.9140
 0.6060	 8.8630
 0.6070	 8.8100
 0.6080	 8.7510
 0.6090	 8.6930
 0.6100	 8.6370
 0.6110	 8.5830
 0.6120	 8.5240
 0.6130	 8.4610
 0.6140	 8.3980
 0.6150	 8.3390
 0.6160	 8.2830
 0.6170	 8.2300
 0.6180	 8.1840
 0.6190	 8.1470
 0.6200	 8.1120
 0.6210	 8.0770
 0.6220	 8.0440
 0.6230	 8.0170
 0.6240	 7.9970
 0.6250	 7.9810
 0.6260	 7.9660
 0.6270	 7.9520
 0.6280	 7.9410
 0.6290	 7.9310
 0.6300	 7.9220
 0.6310	 7.9150
 0.6320	 7.9070
 0.6330	 7.8920
 0.6340	 7.8730
 0.6350	 7.8500
 0.6360	 7.8240
 0.6370	 7.7930
 0.6380	 7.7580
 0.6390	 7.7180
 0.6400	 7.6750
 0.6410	 7.6300
 0.6420	 7.5850
 0.6430	 7.5400
 0.6440	 7.4950
 0.6450	 7.4530
 0.6460	 7.4130
 0.6470	 7.3750
 0.6480	 7.3430
 0.6490	 7.3130
 0.6500	 7.2860
 0.6510	 7.2660
 0.6520	 7.2490
 0.6530	 7.2330
 0.6540	 7.2160
 0.6550	 7.2000
 0.6560	 7.1820
 0.6570	 7.1620
 0.6580	 7.1410
 0.6590	 7.1180
 0.6600	 7.0920
 0.6610	 7.0680
 0.6620	 7.0500
 0.6630	 7.0320
 0.6640	 7.0150
 0.6650	 7.0010
 0.6660	 6.9970
 0.6670	 6.9970
 0.6680	 7.0000
 0.6690	 7.0060
 0.6700	 7.0190
 0.6710	 7.0370
 0.6720	 7.0590
 0.6730	 7.0870
 0.6740	 7.1180
 0.6750	 7.1530
 0.6760	 7.1940
 0.6770	 7.2390
 0.6780	 7.2900
 0.6790	 7.3450
 0.6800	 7.4010
 0.6810	 7.4630
 0.6820	 7.5300
 0.6830	 7.6000
 0.6840	 7.6660
 0.6850	 7.7330
 0.6860	 7.8020
 0.6870	 7.8740
 0.6880	 7.9550
 0.6890	 8.0530
 0.6900	 8.1760
 0.6910	 8.3300
 0.6920	 8.5320
 0.6930	 8.7880
 0.6940	 9.1060
 0.6950	 9.4970
 0.6960	 9.9600
 0.6970	10.4970
 0.6980	11.1080
 0.6990	11.7880
 0.7000	12.5360
 0.7010	13.3440
 0.7020	14.1990
 0.7030	15.1000
 0.7040	16.0390
 0.7050	17.0090
 0.7060	18.0060
 0.7070	19.0300
 0.7080	20.0750
 0.7090	21.1390
 0.7100	22.2250
 0.7110	23.3330
 0.7120	24.4620
 0.7130	25.6040
 0.7140	26.7570
 0.7150	27.9250
 0.7160	29.1060
 0.7170	30.2900
 0.7180	31.4790
 0.7190	32.6710
 0.7200	33.8580
 0.7210	35.0370
 0.7220	36.2060
 0.7230	37.3600
 0.7240	38.4920
 0.7250	39.5990
 0.7260	40.6790
 0.7270	41.7320
 0.7280	42.7500
 0.7290	43.7300
 0.7300	44.6730
 0.7310	45.5760
 0.7320	46.4410
 0.7330	47.2660
 0.7340	48.0480
 0.7350	48.7850
 0.7360	49.4840
 0.7370	50.1430
 0.7380	50.7610
 0.7390	51.3420
 0.7400	51.8840
 0.7410	52.3900
 0.7420	52.8600
 0.7430	53.2930
 0.7440	53.6890
 0.7450	54.0510
 0.7460	54.3850
 0.7470	54.6900
 0.7480	54.9690
 0.7490	55.2210
 0.7500	55.4490
 0.7510	55.6550
 0.7520	55.8410
 0.7530	56.0080
 0.7540	56.1590
 0.7550	56.2940
 0.7560	56.4150
 0.7570	56.5270
 0.7580	56.6260
 0.7590	56.7150
 0.7600	56.7960
 0.7610	56.8700
 0.7620	56.9350
 0.7630	56.9910
 0.7640	57.0420
 0.7650	57.0850
 0.7660	57.1230
 0.7670	57.1580
 0.7680	57.1870
 0.7690	57.2150
 0.7700	57.2380
 0.7710	57.2580
 0.7720	57.2810
 0.7730	57.3040
 0.7740	57.3220
 0.7750	57.3360
 0.7760	57.3520
 0.7770	57.3670
 0.7780	57.3810
 0.7790	57.3930
 0.7800	57.4060
 0.7810	57.4200
 0.7820	57.4330
 0.7830	57.4460
 0.7840	57.4580
 0.7850	57.4670
 0.7860	57.4760
 0.7870	57.4850
 0.7880	57.4900
 0.7890	57.4950
 0.7900	57.5020
 0.7910	57.5050
 0.7920	57.5100
 0.7930	57.5150
 0.7940	57.5170
 0.7950	57.5170
 0.7960	57.5190
 0.7970	57.5200
 0.7980	57.5130
 0.7990	57.5080
 0.8000	57.5040
 0.8010	57.5020
 0.8020	57.4970
 0.8030	57.4900
 0.8040	57.4820
 0.8050	57.4750
 0.8060	57.4660
 0.8070	57.4570
 0.8080	57.4480
 0.8090	57.4370
 0.8100	57.4260
 0.8110	57.4130
 0.8120	57.3980
 0.8130	57.3860
 0.8140	57.3730
 0.8150	57.3590
 0.8160	57.3450
 0.8170	57.3290
 0.8180	57.3160
 0.8190	57.3070
 0.8200	57.2970
 0.8210	57.2840
 0.8220	57.2660
 0.8230	57.2480
 0.8240	57.2360
 0.8250	57.2220
 0.8260	57.2090
 0.8270	57.1990
 0.8280	57.1850
 0.8290	57.1710
 0.8300	57.1580
 0.8310	57.1430
 0.8320	57.1320
 0.8330	57.1200
 0.8340	57.1080
 0.8350	57.0960
 0.8360	57.0900
 0.8370	57.0880
 0.8380	57.0860
 0.8390	57.0790
 0.8400	57.0790
 0.8410	57.0790
 0.8420	57.0770
 0.8430	57.0740
 0.8440	57.0740
 0.8450	57.0770
 0.8460	57.0810
 0.8470	57.0830
 0.8480	57.0830
 0.8490	57.0850
 0.8500	57.0920
 0.8510	57.0960
 0.8520	57.0980
 0.8530	57.1010
 0.8540	57.1060
 0.8550	57.1120
 0.8560	57.1220
 0.8570	57.1360
 0.8580	57.1450
 0.8590	57.1520
 0.8600	57.1610
 0.8610	57.1730
 0.8620	57.1800
 0.8630	57.1950
 0.8640	57.2080
 0.8650	57.2150
 0.8660	57.2280
 0.8670	57.2440
 0.8680	57.2600
 0.8690	57.2730
 0.8700	57.2860
 0.8710	57.2980
 0.8720	57.3110
 0.8730	57.3260
 0.8740	57.3420
 0.8750	57.3570
 0.8760	57.3700
 0.8770	57.3830
 0.8780	57.4020
 0.8790	57.4190
 0.8800	57.4300
 0.8810	57.4430
 0.8820	57.4570
 0.8830	57.4710
 0.8840	57.4860
 0.8850	57.4950
 0.8860	57.5100
 0.8870	57.5260
 0.8880	57.5390
 0.8890	57.5540
 0.8900	57.5700
 0.8910	57.5840
 0.8920	57.5970
 0.8930	57.6080
 0.8940	57.6160
 0.8950	57.6260
 0.8960	57.6420
 0.8970	57.6570
 0.8980	57.6710
 0.8990	57.6830
 0.9000	57.6860
 0.9010	57.7000
 0.9020	57.7140
 0.9030	57.7250
 0.9040	57.7400
 0.9050	57.7460
 0.9060	57.7510
 0.9070	57.7610
 0.9080	57.7710
 0.9090	57.7830
 0.9100	57.7950
 0.9110	57.8040
 0.9120	57.8050
 0.9130	57.8140
 0.9140	57.8250
 0.9150	57.8280
 0.9160	57.8280
 0.9170	57.8290
 0.9180	57.8270
 0.9190	57.8210
 0.9200	57.8280
 0.9210	57.8260
 0.9220	57.8130
 0.9230	57.8070
 0.9240	57.7980
 0.9250	57.7920
 0.9260	57.7840
 0.9270	57.7660
 0.9280	57.7440
 0.9290	57.7190
 0.9300	57.6940
 0.9310	57.6710
 0.9320	57.6560
 0.9330	57.6340
 0.9340	57.6000
 0.9350	57.5580
 0.9360	57.5300
 0.9370	57.5000
 0.9380	57.4620
 0.9390	57.4290
 0.9400	57.3970
 0.9410	57.3570
 0.9420	57.3100
 0.9430	57.2690
 0.9440	57.2190
 0.9450	57.1630
 0.9460	57.1050
 0.9470	57.0460
 0.9480	56.9830
 0.9490	56.9140
 0.9500	56.8370
 0.9510	56.7510
 0.9520	56.6680
 0.9530	56.5840
 0.9540	56.4970
 0.9550	56.4210
 0.9560	56.3430
 0.9570	56.2580
 0.9580	56.1730
 0.9590	56.0950
 0.9600	56.0300
 0.9610	55.9700
 0.9620	55.9080
 0.9630	55.8620
 0.9640	55.8250
 0.9650	55.7910
 0.9660	55.7560
 0.9670	55.7200
 0.9680	55.6900
 0.9690	55.6670
 0.9700	55.6480
 0.9710	55.6230
 0.9720	55.6050
 0.9730	55.5960
 0.9740	55.5930
 0.9750	55.5720
 0.9760	55.5550
 0.9770	55.5510
 0.9780	55.5510
 0.9790	55.5360
 0.9800	55.5340
 0.9810	55.5410
 0.9820	55.5390
 0.9830	55.5390
 0.9840	55.5480
 0.9850	55.5600
 0.9860	55.5640
 0.9870	55.5630
 0.9880	55.5800
 0.9890	55.6060
 0.9900	55.6210
 0.9910	55.6380
 0.9920	55.6480
 0.9930	55.6630
 0.9940	55.6980
 0.9950	55.7230
 0.9960	55.7500
 0.9970	55.7720
 0.9980	55.7790
 0.9990	55.8040
 1.0000	55.8340
 1.0010	57.3560
 1.0020	57.3740
 1.0030	57.3960
 1.0040	57.4260
 1.0050	57.4540
 1.0060	57.4820
 1.0070	57.5140
 1.0080	57.5430
 1.0090	57.5710
 1.0100	57.5990
 1.0110	57.6270
 1.0120	57.6530
 1.0130	57.6780
 1.0140	57.7040
 1.0150	57.7300
 1.0160	57.7540
 1.0170	57.7800
 1.0180	57.8050
 1.0190	57.8330
 1.0200	57.8610
 1.0210	57.8870
 1.0220	57.9110
 1.0230	57.9390
 1.0240	57.9670
 1.0250	57.9940
 1.0260	58.0260
 1.0270	58.0530
 1.0280	58.0740
 1.0290	58.0990
 1.0300	58.1270
 1.0310	58.1530
 1.0320	58.1790
 1.0330	58.2070
 1.0340	58.2340
 1.0350	58.2530
 1.0360	58.2730
 1.0370	58.2950
 1.0380	58.3140
 1.0390	58.3270
 1.0400	58.3470
 1.0410	58.3690
 1.0420	58.3890
 1.0430	58.4140
 1.0440	58.4340
 1.0450	58.4500
 1.0460	58.4680
 1.0470	58.4870
 1.0480	58.5040
 1.0490	58.5220
 1.0500	58.5380
 1.0510	58.5520
 1.0520	58.5650
 1.0530	58.5760
 1.0540	58.5850
 1.0550	58.5970
 1.0560	58.6080
 1.0570	58.6200
 1.0580	58.6340
 1.0590	58.6440
 1.0600	58.6530
 1.0610	58.6610
 1.0620	58.6700
 1.0630	58.6760
 1.0640	58.6800
 1.0650	58.6840
 1.0660	58.6850
 1.0670	58.6880
 1.0680	58.6910
 1.0690	58.6960
 1.0700	58.6970
 1.0710	58.6970
 1.0720	58.6960
 1.0730	58.6920
 1.0740	58.6890
 1.0750	58.6860
 1.0760	58.6820
 1.0770	58.6760
 1.0780	58.6720
 1.0790	58.6670
 1.0800	58.6630
 1.0810	58.6620
 1.0820	58.6560
 1.0830	58.6470
 1.0840	58.6380
 1.0850	58.6250
 1.0860	58.6120
 1.0870	58.6010
 1.0880	58.5940
 1.0890	58.5820
 1.0900	58.5700
 1.0910	58.5570
 1.0920	58.5390
 1.0930	58.5250
 1.0940	58.5140
 1.0950	58.5000
 1.0960	58.4860
 1.0970	58.4710
 1.0980	58.4540
 1.0990	58.4370
 1.1000	58.4200
 1.1010	58.4030
 1.1020	58.3870
 1.1030	58.3720
 1.1040	58.3540
 1.1050	58.3360
 1.1060	58.3170
 1.1070	58.2940
 1.1080	58.2740
 1.1090	58.2550
 1.1100	58.2340
 1.1110	58.2100
 1.1120	58.1870
 1.1130	58.1650
 1.1140	58.1410
 1.1150	58.1190
 1.1160	58.0910
 1.1170	58.0580
 1.1180	58.0250
 1.1190	57.9910
 1.1200	57.9530
 1.1210	57.9130
 1.1220	57.8700
 1.1230	57.8200
 1.1240	57.7670
 1.1250	57.7080
 1.1260	57.6450
 1.1270	57.5730
 1.1280	57.4970
 1.1290	57.4110
 1.1300	57.3180
 1.1310	57.2150
 1.1320	57.1040
 1.1330	56.9830
 1.1340	56.8560
 1.1350	56.7170
 1.1360	56.5670
 1.1370	56.4070
 1.1380	56.2390
 1.1390	56.0640
 1.1400	55.8820
 1.1410	55.6990
 1.1420	55.5130
 1.1430	55.3220
 1.1440	55.1310
 1.1450	54.9370
 1.1460	54.7490
 1.1470	54.5570
 1.1480	54.3790
 1.1490	54.2070
 1.1500	54.0440
 1.1510	53.8910
 1.1520	53.7450
 1.1530	53.6060
 1.1540	53.4780
 1.1550	53.3580
 1.1560	53.2470
 1.1570	53.1460
 1.1580	53.0570
 1.1590	52.9760
 1.1600	52.9020
 1.1610	52.8360
 1.1620	52.7740
 1.1630	52.7150
 1.1640	52.6650
 1.1650	52.6180
 1.1660	52.5780
 1.1670	52.5390
 1.1680	52.5030
 1.1690	52.4690
 1.1700	52.4380
 1.1710	52.4090
 1.1720	52.3860
 1.1730	52.3590
 1.1740	52.3330
 1.1750	52.3060
 1.1760	52.2790
 1.1770	52.2510
 1.1780	52.2250
 1.1790	52.1980
 1.1800	52.1690
 1.1810	52.1420
 1.1820	52.1170
 1.1830	52.0900
 1.1840	52.0640
 1.1850	52.0390
 1.1860	52.0150
 1.1870	51.9930
 1.1880	51.9740
 1.1890	51.9590
 1.1900	51.9440
 1.1910	51.9300
 1.1920	51.9180
 1.1930	51.9070
 1.1940	51.8990
 1.1950	51.8930
 1.1960	51.8880
 1.1970	51.8870
 1.1980	51.8870
 1.1990	51.8850
 1.2000	51.8870
 1.2010	51.8900
 1.2020	51.8960
 1.2030	51.9060
 1.2040	51.9160
 1.2050	51.9290
 1.2060	51.9440
 1.2070	51.9580
 1.2080	51.9760
 1.2090	51.9910
 1.2100	52.0070
 1.2110	52.0270
 1.2120	52.0480
 1.2130	52.0710
 1.2140	52.0990
 1.2150	52.1260
 1.2160	52.1530
 1.2170	52.1820
 1.2180	52.2110
 1.2190	52.2390
 1.2200	52.2690
 1.2210	52.3030
 1.2220	52.3370
 1.2230	52.3720
 1.2240	52.4080
 1.2250	52.4380
 1.2260	52.4690
 1.2270	52.5020
 1.2280	52.5330
 1.2290	52.5630
 1.2300	52.5950
 1.2310	52.6250
 1.2320	52.6520
 1.2330	52.6790
 1.2340	52.7060
 1.2350	52.7310
 1.2360	52.7540
 1.2370	52.7760
 1.2380	52.7980
 1.2390	52.8190
 1.2400	52.8390
 1.2410	52.8600
 1.2420	52.8800
 1.2430	52.9000
 1.2440	52.9180
 1.2450	52.9350
 1.2460	52.9540
 1.2470	52.9710
 1.2480	52.9880
 1.2490	53.0050
 1.2500	53.0190
 1.2510	53.0330
 1.2520	53.0470
 1.2530	53.0570
 1.2540	53.0680
 1.2550	53.0810
 1.2560	53.0910
 1.2570	53.1000
 1.2580	53.1060
 1.2590	53.1100
 1.2600	53.1110
 1.2610	53.1130
 1.2620	53.1160
 1.2630	53.1170
 1.2640	53.1170
 1.2650	53.1140
 1.2660	53.1110
 1.2670	53.1080
 1.2680	53.1040
 1.2690	53.0990
 1.2700	53.0920
 1.2710	53.0810
 1.2720	53.0700
 1.2730	53.0580
 1.2740	53.0410
 1.2750	53.0250
 1.2760	53.0080
 1.2770	52.9890
 1.2780	52.9700
 1.2790	52.9470
 1.2800	52.9230
 1.2810	52.8970
 1.2820	52.8680
 1.2830	52.8370
 1.2840	52.8030
 1.2850	52.7670
 1.2860	52.7300
 1.2870	52.6900
 1.2880	52.6480
 1.2890	52.6010
 1.2900	52.5530
 1.2910	52.5010
 1.2920	52.4440
 1.2930	52.3880
 1.2940	52.3260
 1.2950	52.2600
 1.2960	52.1930
 1.2970	52.1220
 1.2980	52.0480
 1.2990	51.9700
 1.3000	51.8900
 1.3010	51.8070
 1.3020	51.7220
 1.3030	51.6330
 1.3040	51.5390
 1.3050	51.4410
 1.3060	51.3410
 1.3070	51.2370
 1.3080	51.1320
 1.3090	51.0250
 1.3100	50.9130
 1.3110	50.7970
 1.3120	50.6780
 1.3130	50.5540
 1.3140	50.4270
 1.3150	50.2980
 1.3160	50.1640
 1.3170	50.0280
 1.3180	49.8870
 1.3190	49.7420
 1.3200	49.5940
 1.3210	49.4450
 1.3220	49.2940
 1.3230	49.1400
 1.3240	48.9840
 1.3250	48.8260
 1.3260	48.6620
 1.3270	48.4980
 1.3280	48.3300
 1.3290	48.1560
 1.3300	47.9840
 1.3310	47.8100
 1.3320	47.6320
 1.3330	47.4560
 1.3340	47.2770
 1.3350	47.0970
 1.3360	46.9180
 1.3370	46.7380
 1.3380	46.5580
 1.3390	46.3800
 1.3400	46.2020
 1.3410	46.0250
 1.3420	45.8500
 1.3430	45.6780
 1.3440	45.5070
 1.3450	45.3370
 1.3460	45.1680
 1.3470	45.0030
 1.3480	44.8390
 1.3490	44.6770
 1.3500	44.5190
 1.3510	44.3610
 1.3520	44.2020
 1.3530	44.0450
 1.3540	43.8880
 1.3550	43.7320
 1.3560	43.5780
 1.3570	43.4220
 1.3580	43.2660
 1.3590	43.1080
 1.3600	42.9430
 1.3610	42.7750
 1.3620	42.5990
 1.3630	42.4160
 1.3640	42.2250
 1.3650	42.0250
 1.3660	41.8190
 1.3670	41.6010
 1.3680	41.3690
 1.3690	41.1240
 1.3700	40.8590
 1.3710	40.5790
 1.3720	40.2800
 1.3730	39.9580
 1.3740	39.6180
 1.3750	39.2520
 1.3760	38.8580
 1.3770	38.4400
 1.3780	37.9890
 1.3790	37.5120
 1.3800	37.0080
 1.3810	36.4720
 1.3820	35.9140
 1.3830	35.3320
 1.3840	34.7240
 1.3850	34.0900
 1.3860	33.4400
 1.3870	32.7580
 1.3880	32.0760
 1.3890	31.3780
 1.3900	30.6690
 1.3910	29.9610
 1.3920	29.2500
 1.3930	28.5350
 1.3940	27.8280
 1.3950	27.1230
 1.3960	26.4300
 1.3970	25.7550
 1.3980	25.0940
 1.3990	24.4610
 1.4000	23.8480
 1.4010	23.2520
 1.4020	22.6850
 1.4030	22.1380
 1.4040	21.6180
 1.4050	21.1270
 1.4060	20.6600
 1.4070	20.2230
 1.4080	19.8110
 1.4090	19.4210
 1.4100	19.0580
 1.4110	18.7170
 1.4120	18.3970
 1.4130	18.1020
 1.4140	17.8260
 1.4150	17.5720
 1.4160	17.3360
 1.4170	17.1160
 1.4180	16.9130
 1.4190	16.7240
 1.4200	16.5490
 1.4210	16.3870
 1.4220	16.2360
 1.4230	16.0990
 1.4240	15.9730
 1.4250	15.8550
 1.4260	15.7480
 1.4270	15.6480
 1.4280	15.5560
 1.4290	15.4710
 1.4300	15.3940
 1.4310	15.3240
 1.4320	15.2620
 1.4330	15.2040
 1.4340	15.1530
 1.4350	15.1070
 1.4360	15.0650
 1.4370	15.0280
 1.4380	14.9960
 1.4390	14.9690
 1.4400	14.9450
 1.4410	14.9260
 1.4420	14.9100
 1.4430	14.8970
 1.4440	14.8860
 1.4450	14.8780
 1.4460	14.8740
 1.4470	14.8730
 1.4480	14.8730
 1.4490	14.8760
 1.4500	14.8800
 1.4510	14.8860
 1.4520	14.8950
 1.4530	14.9060
 1.4540	14.9200
 1.4550	14.9360
 1.4560	14.9550
 1.4570	14.9780
 1.4580	15.0030
 1.4590	15.0330
 1.4600	15.0680
 1.4610	15.1060
 1.4620	15.1480
 1.4630	15.1960
 1.4640	15.2490
 1.4650	15.3060
 1.4660	15.3690
 1.4670	15.4370
 1.4680	15.5100
 1.4690	15.5880
 1.4700	15.6710
 1.4710	15.7590
 1.4720	15.8510
 1.4730	15.9480
 1.4740	16.0490
 1.4750	16.1540
 1.4760	16.2630
 1.4770	16.3760
 1.4780	16.4900
 1.4790	16.6070
 1.4800	16.7250
 1.4810	16.8460
 1.4820	16.9700
 1.4830	17.0950
 1.4840	17.2250
 1.4850	17.3560
 1.4860	17.4880
 1.4870	17.6230
 1.4880	17.7590
 1.4890	17.8950
 1.4900	18.0320
 1.4910	18.1720
 1.4920	18.3120
 1.4930	18.4550
 1.4940	18.5980
 1.4950	18.7430
 1.4960	18.8870
 1.4970	19.0310
 1.4980	19.1760
 1.4990	19.3210
 1.5000	19.4680
 1.5010	19.6180
 1.5020	19.7670
 1.5030	19.9170
 1.5040	20.0670
 1.5050	20.2150
 1.5060	20.3640
 1.5070	20.5140
 1.5080	20.6630
 1.5090	20.8130
 1.5100	20.9630
 1.5110	21.1140
 1.5120	21.2650
 1.5130	21.4140
 1.5140	21.5630
 1.5150	21.7120
 1.5160	21.8590
 1.5170	22.0090
 1.5180	22.1590
 1.5190	22.3080
 1.5200	22.4560
 1.5210	22.6010
 1.5220	22.7460
 1.5230	22.8900
 1.5240	23.0350
 1.5250	23.1810
 1.5260	23.3270
 1.5270	23.4700
 1.5280	23.6120
 1.5290	23.7510
 1.5300	23.8900
 1.5310	24.0300
 1.5320	24.1680
 1.5330	24.3070
 1.5340	24.4440
 1.5350	24.5810
 1.5360	24.7170
 1.5370	24.8500
 1.5380	24.9820
 1.5390	25.1140
 1.5400	25.2450
 1.5410	25.3760
 1.5420	25.5070
 1.5430	25.6370
 1.5440	25.7670
 1.5450	25.8940
 1.5460	26.0200
 1.5470	26.1450
 1.5480	26.2680
 1.5490	26.3910
 1.5500	26.5130
 1.5510	26.6330
 1.5520	26.7530
 1.5530	26.8710
 1.5540	26.9880
 1.5550	27.1050
 1.5560	27.2200
 1.5570	27.3340
 1.5580	27.4480
 1.5590	27.5600
 1.5600	27.6690
 1.5610	27.7760
 1.5620	27.8840
 1.5630	27.9910
 1.5640	28.0970
 1.5650	28.2020
 1.5660	28.3050
 1.5670	28.4090
 1.5680	28.5120
 1.5690	28.6120
 1.5700	28.7120
 1.5710	28.8110
 1.5720	28.9090
 1.5730	29.0070
 1.5740	29.1040
 1.5750	29.1990
 1.5760	29.2940
 1.5770	29.3860
 1.5780	29.4780
 1.5790	29.5700
 1.5800	29.6600
 1.5810	29.7520
 1.5820	29.8420
 1.5830	29.9310
 1.5840	30.0210
 1.5850	30.1090
 1.5860	30.1950
 1.5870	30.2820
 1.5880	30.3650
 1.5890	30.4480
 1.5900	30.5310
 1.5910	30.6140
 1.5920	30.6960
 1.5930	30.7780
 1.5940	30.8590
 1.5950	30.9380
 1.5960	31.0150
 1.5970	31.0920
 1.5980	31.1670
 1.5990	31.2400
 1.6000	31.3150
 1.6010	31.3860
 1.6020	31.4560
 1.6030	31.5260
 1.6040	31.5940
 1.6050	31.6600
 1.6060	31.7260
 1.6070	31.7910
 1.6080	31.8530
 1.6090	31.9140
 1.6100	31.9730
 1.6110	32.0330
 1.6120	32.0910
 1.6130	32.1500
 1.6140	32.2070
 1.6150	32.2620
 1.6160	32.3160
 1.6170	32.3690
 1.6180	32.4240
 1.6190	32.4790
 1.6200	32.5340
 1.6210	32.5890
 1.6220	32.6430
 1.6230	32.6960
 1.6240	32.7480
 1.6250	32.7970
 1.6260	32.8450
 1.6270	32.8920
 1.6280	32.9350
 1.6290	32.9790
 1.6300	33.0230
 1.6310	33.0650
 1.6320	33.1050
 1.6330	33.1450
 1.6340	33.1840
 1.6350	33.2220
 1.6360	33.2610
 1.6370	33.2980
 1.6380	33.3310
 1.6390	33.3630
 1.6400	33.3930
 1.6410	33.4210
 1.6420	33.4480
 1.6430	33.4720
 1.6440	33.4950
 1.6450	33.5140
 1.6460	33.5300
 1.6470	33.5450
 1.6480	33.5570
 1.6490	33.5680
 1.6500	33.5780
 1.6510	33.5870
 1.6520	33.5930
 1.6530	33.6010
 1.6540	33.6070
 1.6550	33.6140
 1.6560	33.6240
 1.6570	33.6300
 1.6580	33.6380
 1.6590	33.6470
 1.6600	33.6540
 1.6610	33.6650
 1.6620	33.6770
 1.6630	33.6870
 1.6640	33.6970
 1.6650	33.7070
 1.6660	33.7140
 1.6670	33.7200
 1.6680	33.7270
 1.6690	33.7290
 1.6700	33.7260
 1.6710	33.7220
 1.6720	33.7130
 1.6730	33.7010
 1.6740	33.6880
 1.6750	33.6730
 1.6760	33.6540
 1.6770	33.6310
 1.6780	33.6050
 1.6790	33.5740
 1.6800	33.5390
 1.6810	33.5020
 1.6820	33.4620
 1.6830	33.4190
 1.6840	33.3740
 1.6850	33.3280
 1.6860	33.2830
 1.6870	33.2360
 1.6880	33.1900
 1.6890	33.1450
 1.6900	33.1020
 1.6910	33.0600
 1.6920	33.0180
 1.6930	32.9770
 1.6940	32.9370
 1.6950	32.8970
 1.6960	32.8570
 1.6970	32.8170
 1.6980	32.7760
 1.6990	32.7340
 1.7000	32.6930
 1.7010	32.6530
 1.7020	32.6090
 1.7030	32.5660
 1.7040	32.5200
 1.7050	32.4720
 1.7060	32.4230
 1.7070	32.3710
 1.7080	32.3200
 1.7090	32.2690
 1.7100	32.2160
 1.7110	32.1630
 1.7120	32.1060
 1.7130	32.0480
 1.7140	31.9870
 1.7150	31.9260
 1.7160	31.8650
 1.7170	31.8010
 1.7180	31.7370
 1.7190	31.6730
 1.7200	31.6070
 1.7210	31.5400
 1.7220	31.4730
 1.7230	31.4050
 1.7240	31.3380
 1.7250	31.2720
 1.7260	31.2060
 1.7270	31.1410
 1.7280	31.0780
 1.7290	31.0180
 1.7300	30.9600
 1.7310	30.9070
 1.7320	30.8580
 1.7330	30.8100
 1.7340	30.7680
 1.7350	30.7250
 1.7360	30.6850
 1.7370	30.6420
 1.7380	30.6010
 1.7390	30.5550
 1.7400	30.5060
 1.7410	30.4550
 1.7420	30.4020
 1.7430	30.3460
 1.7440	30.2890
 1.7450	30.2280
 1.7460	30.1630
 1.7470	30.0980
 1.7480	30.0300
 1.7490	29.9610
 1.7500	29.8880
 1.7510	29.8160
 1.7520	29.7430
 1.7530	29.6700
 1.7540	29.5970
 1.7550	29.5240
 1.7560	29.4510
 1.7570	29.3800
 1.7580	29.3080
 1.7590	29.2390
 1.7600	29.1690
 1.7610	29.0990
 1.7620	29.0330
 1.7630	28.9670
 1.7640	28.9050
 1.7650	28.8470
 1.7660	28.7930
 1.7670	28.7430
 1.7680	28.6940
 1.7690	28.6460
 1.7700	28.6000
 1.7710	28.5570
 1.7720	28.5140
 1.7730	28.4720
 1.7740	28.4310
 1.7750	28.3900
 1.7760	28.3520
 1.7770	28.3160
 1.7780	28.2800
 1.7790	28.2420
 1.7800	28.2100
 1.7810	28.1800
 1.7820	28.1520
 1.7830	28.1270
 1.7840	28.1030
 1.7850	28.0790
 1.7860	28.0590
 1.7870	28.0430
 1.7880	28.0290
 1.7890	28.0160
 1.7900	28.0060
 1.7910	27.9970
 1.7920	27.9900
 1.7930	27.9840
 1.7940	27.9770
 1.7950	27.9730
 1.7960	27.9710
 1.7970	27.9710
 1.7980	27.9760
 1.7990	27.9800
 1.8000	27.9850
 1.8010	27.9900
 1.8020	27.9960
 1.8030	28.0020
 1.8040	28.0110
 1.8050	28.0190
 1.8060	28.0260
 1.8070	28.0340
 1.8080	28.0400
 1.8090	28.0480
 1.8100	28.0570
 1.8110	28.0650
 1.8120	28.0730
 1.8130	28.0770
 1.8140	28.0830
 1.8150	28.0870
 1.8160	28.0900
 1.8170	28.0940
 1.8180	28.0980
 1.8190	28.0990
 1.8200	28.0990
 1.8210	28.0970
 1.8220	28.0940
 1.8230	28.0930
 1.8240	28.0880
 1.8250	28.0810
 1.8260	28.0710
 1.8270	28.0580
 1.8280	28.0440
 1.8290	28.0290
 1.8300	28.0120
 1.8310	27.9040
 1.8320	27.8720
 1.8330	27.8390
 1.8340	27.8000
 1.8350	27.7590
 1.8360	27.7130
 1.8370	27.6570
 1.8380	27.5960
 1.8390	27.5290
 1.8400	27.4540
 1.8410	27.3750
 1.8420	27.2920
 1.8430	27.2010
 1.8440	27.1010
 1.8450	26.9920
 1.8460	26.8740
 1.8470	26.7460
 1.8480	26.6040
 1.8490	26.4490
 1.8500	26.2820
 1.8510	26.1030
 1.8520	25.9120
 1.8530	25.7060
 1.8540	25.4910
 1.8550	25.2600
 1.8560	25.0120
 1.8570	24.7530
 1.8580	24.4730
 1.8590	24.1770
 1.8600	23.8640
 1.8610	23.5340
 1.8620	23.1860
 1.8630	22.8250
 1.8640	22.4440
 1.8650	22.0480
 1.8660	21.6340
 1.8670	21.1940
 1.8680	20.7400
 1.8690	20.2660
 1.8700	19.7760
 1.8710	19.2660
 1.8720	18.7530
 1.8730	18.2280
 1.8740	17.6930
 1.8750	17.1570
 1.8760	16.6080
 1.8770	16.0570
 1.8780	15.5100
 1.8790	14.9630
 1.8800	14.4280
 1.8810	13.9030
 1.8820	13.3840
 1.8830	12.8730
 1.8840	12.3750
 1.8850	11.8860
 1.8860	11.4140
 1.8870	10.9610
 1.8880	10.5260
 1.8890	10.1170
 1.8900	 9.7300
 1.8910	 9.3650
 1.8920	 9.0200
 1.8930	 8.7020
 1.8940	 8.4070
 1.8950	 8.1330
 1.8960	 7.8840
 1.8970	 7.6570
 1.8980	 7.4500
 1.8990	 7.2650
 1.9000	 7.0950
 1.9010	 6.9480
 1.9020	 6.8100
 1.9030	 6.6880
 1.9040	 6.5800
 1.9050	 6.4830
 1.9060	 6.4000
 1.9070	 6.3300
 1.9080	 6.2650
 1.9090	 6.2050
 1.9100	 6.1500
 1.9110	 6.1010
 1.9120	 6.0570
 1.9130	 6.0190
 1.9140	 5.9880
 1.9150	 5.9610
 1.9160	 5.9390
 1.9170	 5.9180
 1.9180	 5.9010
 1.9190	 5.8890
 1.9200	 5.8750
 1.9210	 5.8620
 1.9220	 5.8510
 1.9230	 5.8390
 1.9240	 5.8310
 1.9250	 5.8230
 1.9260	 5.8200
 1.9270	 5.8190
 1.9280	 5.8170
 1.9290	 5.8170
 1.9300	 5.8180
 1.9310	 5.8200
 1.9320	 5.8250
 1.9330	 5.8300
 1.9340	 5.8380
 1.9350	 5.8450
 1.9360	 5.8520
 1.9370	 5.8610
 1.9380	 5.8700
 1.9390	 5.8810
 1.9400	 5.8950
 1.9410	 5.9080
 1.9420	 5.9200
 1.9430	 5.9350
 1.9440	 5.9510
 1.9450	 5.9660
 1.9460	 5.9830
 1.9470	 6.0000
 1.9480	 6.0170
 1.9490	 6.0350
 1.9500	 6.0540
 1.9510	 6.0720
 1.9520	 6.0930
 1.9530	 6.1140
 1.9540	 6.1340
 1.9550	 6.1580
 1.9560	 6.1850
 1.9570	 6.2090
 1.9580	 6.2330
 1.9590	 6.2590
 1.9600	 6.2850
 1.9610	 6.3120
 1.9620	 6.3380
 1.9630	 6.3660
 1.9640	 6.3920
 1.9650	 6.4200
 1.9660	 6.4510
 1.9670	 6.4830
 1.9680	 6.5150
 1.9690	 6.5480
 1.9700	 6.5820
 1.9710	 6.6150
 1.9720	 6.6490
 1.9730	 6.6850
 1.9740	 6.7220
 1.9750	 6.7610
 1.9760	 6.8020
 1.9770	 6.8430
 1.9780	 6.8850
 1.9790	 6.9250
 1.9800	 6.9620
 1.9810	 7.0030
 1.9820	 7.0460
 1.9830	 7.0900
 1.9840	 7.1350
 1.9850	 7.1810
 1.9860	 7.2290
 1.9870	 7.2760
 1.9880	 7.3230
 1.9890	 7.3730
 1.9900	 7.4210
 1.9910	 7.4680
 1.9920	 7.5160
 1.9930	 7.5660
 1.9940	 7.6150
 1.9950	 7.6630
 1.9960	 7.7120
 1.9970	 7.7600
 1.9980	 7.8110
 1.9990	 7.8650
 2.0000	 7.9200
 2.0010	 7.9770
 2.0020	 8.0340
 2.0030	 8.0900
 2.0040	 8.1470
 2.0050	 8.2030
 2.0060	 8.2580
 2.0070	 8.3130
 2.0080	 8.3690
 2.0090	 8.4240
 2.0100	 8.4780
 2.0110	 8.5340
 2.0120	 8.5900
 2.0130	 8.6470
 2.0140	 8.7060
 2.0150	 8.7630
 2.0160	 8.8190
 2.0170	 8.8740
 2.0180	 8.9320
 2.0190	 8.9920
 2.0200	 9.0490
 2.0210	 9.1080
 2.0220	 9.1630
 2.0230	 9.2130
 2.0240	 9.2680
 2.0250	 9.3240
 2.0260	 9.3790
 2.0270	 9.4350
 2.0280	 9.4910
 2.0290	 9.5440
 2.0300	 9.5950
 2.0310	 9.6480
 2.0320	 9.7030
 2.0330	 9.7560
 2.0340	 9.8100
 2.0350	 9.8620
 2.0360	 9.9110
 2.0370	 9.9610
 2.0380	10.0090
 2.0390	10.0590
 2.0400	10.1120
 2.0410	10.1620
 2.0420	10.2120
 2.0430	10.2610
 2.0440	10.3080
 2.0450	10.3510
 2.0460	10.3990
 2.0470	10.4480
 2.0480	10.4960
 2.0490	10.5430
 2.0500	10.5920
 2.0510	10.6400
 2.0520	10.6880
 2.0530	10.7370
 2.0540	10.7860
 2.0550	10.8350
 2.0560	10.8810
 2.0570	10.9330
 2.0580	10.9860
 2.0590	11.0390
 2.0600	11.0940
 2.0610	11.1470
 2.0620	11.1990
 2.0630	11.2510
 2.0640	11.3030
 2.0650	11.3540
 2.0660	11.4050
 2.0670	11.4550
 2.0680	11.5010
 2.0690	11.5520
 2.0700	11.6040
 2.0710	11.6570
 2.0720	11.7130
 2.0730	11.7690
 2.0740	11.8240
 2.0750	11.8770
 2.0760	11.9300
 2.0770	11.9840
 2.0780	12.0350
 2.0790	12.0830
 2.0800	12.1330
 2.0810	12.1780
 2.0820	12.2280
 2.0830	12.2820
 2.0840	12.3350
 2.0850	12.3910
 2.0860	12.4440
 2.0870	12.4920
 2.0880	12.5430
 2.0890	12.5910
 2.0900	12.6340
 2.0910	12.6830
 2.0920	12.7350
 2.0930	12.7850
 2.0940	12.8400
 2.0950	12.8900
 2.0960	12.9360
 2.0970	12.9820
 2.0980	13.0260
 2.0990	13.0710
 2.1000	13.1170
 2.1010	13.1630
 2.1020	13.2130
 2.1030	13.2610
 2.1040	13.3090
 2.1050	13.3560
 2.1060	13.4020
 2.1070	13.4470
 2.1080	13.4930
 2.1090	13.5390
 2.1100	13.5850
 2.1110	13.6320
 2.1120	13.6780
 2.1130	13.7250
 2.1140	13.7680
 2.1150	13.8110
 2.1160	13.8520
 2.1170	13.8900
 2.1180	13.9290
 2.1190	13.9680
 2.1200	14.0060
 2.1210	14.0440
 2.1220	14.0820
 2.1230	14.1210
 2.1240	14.1630
 2.1250	14.2000
 2.1260	14.2360
 2.1270	14.2730
 2.1280	14.3060
 2.1290	14.3410
 2.1300	14.3790
 2.1310	14.4160
 2.1320	14.4540
 2.1330	14.4890
 2.1340	14.5230
 2.1350	14.5560
 2.1360	14.5870
 2.1370	14.6180
 2.1380	14.6500
 2.1390	14.6830
 2.1400	14.7170
 2.1410	14.7530
 2.1420	14.7870
 2.1430	14.8220
 2.1440	14.8560
 2.1450	14.8870
 2.1460	14.9190
 2.1470	14.9520
 2.1480	14.9850
 2.1490	15.0190
 2.1500	15.0510
 2.1510	15.0820
 2.1520	15.1130
 2.1530	15.1410
 2.1540	15.1690
 2.1550	15.1960
 2.1560	15.2240
 2.1570	15.2530
 2.1580	15.2790
 2.1590	15.3040
 2.1600	15.3290
 2.1610	15.3510
 2.1620	15.3700
 2.1630	15.3920
 2.1640	15.4150
 2.1650	15.4370
 2.1660	15.4590
 2.1670	15.4810
 2.1680	15.5020
 2.1690	15.5240
 2.1700	15.5480
 2.1710	15.5710
 2.1720	15.5970
 2.1730	15.6200
 2.1740	15.6410
 2.1750	15.6640
 2.1760	15.6860
 2.1770	15.7090
 2.1780	15.7340
 2.1790	15.7570
 2.1800	15.7790
 2.1810	15.8010
 2.1820	15.8230
 2.1830	15.8440
 2.1840	15.8680
 2.1850	15.8940
 2.1860	15.9200
 2.1870	15.9510
 2.1880	15.9780
 2.1890	16.0050
 2.1900	16.0310
 2.1910	16.0510
 2.1920	16.0760
 2.1930	16.1030
 2.1940	16.1270
 2.1950	16.1510
 2.1960	16.1780
 2.1970	16.2040
 2.1980	16.2290
 2.1990	16.2590
 2.2000	16.2820
 2.2010	16.2970
 2.2020	16.3130
 2.2030	16.3260
 2.2040	16.3400
 2.2050	16.3540
 2.2060	16.3690
 2.2070	16.3860
 2.2080	16.4050
 2.2090	16.4200
 2.2100	16.4360
 2.2110	16.4490
 2.2120	16.4590
 2.2130	16.4690
 2.2140	16.4790
 2.2150	16.4880
 2.2160	16.4960
 2.2170	16.5020
 2.2180	16.5050
 2.2190	16.5100
 2.2200	16.5140
 2.2210	16.5160
 2.2220	16.5220
 2.2230	16.5190
 2.2240	16.5070
 2.2250	16.4980
 2.2260	16.4900
 2.2270	16.4770
 2.2280	16.4630
 2.2290	16.4470
 2.2300	16.4240
 2.2310	16.4010
 2.2320	16.3770
 2.2330	16.3520
 2.2340	16.3260
 2.2350	16.3000
 2.2360	16.2700
 2.2370	16.2380
 2.2380	16.2020
 2.2390	16.1610
 2.2400	16.1160
 2.2410	16.0650
 2.2420	16.0150
 2.2430	15.9590
 2.2440	15.9050
 2.2450	15.8510
 2.2460	15.7980
 2.2470	15.7490
 2.2480	15.6920
 2.2490	15.6310
 2.2500	15.5700
 2.2510	15.5030
 2.2520	15.4370
 2.2530	15.3740
 2.2540	15.3090
 2.2550	15.2370
 2.2560	15.1740
 2.2570	15.1210
 2.2580	15.0600
 2.2590	14.9980
 2.2600	14.9370
 2.2610	14.8680
 2.2620	14.8030
 2.2630	14.7470
 2.2640	14.6930
 2.2650	14.6420
 2.2660	14.5890
 2.2670	14.5350
 2.2680	14.4800
 2.2690	14.4270
 2.2700	14.3740
 2.2710	14.3230
 2.2720	14.2750
 2.2730	14.2240
 2.2740	14.1710
 2.2750	14.1250
 2.2760	14.0810
 2.2770	14.0380
 2.2780	14.0030
 2.2790	13.9620
 2.2800	13.9190
 2.2810	13.8750
 2.2820	13.8290
 2.2830	13.7820
 2.2840	13.7320
 2.2850	13.6870
 2.2860	13.6480
 2.2870	13.6010
 2.2880	13.5510
 2.2890	13.5020
 2.2900	13.4470
 2.2910	13.3940
 2.2920	13.3440
 2.2930	13.2920
 2.2940	13.2380
 2.2950	13.1850
 2.2960	13.1350
 2.2970	13.0820
 2.2980	13.0280
 2.2990	12.9720
 2.3000	12.9170
 2.3010	12.8630
 2.3020	12.8100
 2.3030	12.7600
 2.3040	12.7100
 2.3050	12.6590
 2.3060	12.6090
 2.3070	12.5660
 2.3080	12.5220
 2.3090	12.4770
 2.3100	12.4440
 2.3110	12.4090
 2.3120	12.3790
 2.3130	12.3590
 2.3140	12.3330
 2.3150	12.3070
 2.3160	12.2830
 2.3170	12.2560
 2.3180	12.2370
 2.3190	12.2280
 2.3200	12.2110
 2.3210	12.1980
 2.3220	12.1800
 2.3230	12.1590
 2.3240	12.1350
 2.3250	12.1140
 2.3260	12.0830
 2.3270	12.0410
 2.3280	12.0050
 2.3290	11.9660
 2.3300	11.9280
 2.3310	11.8940
 2.3320	11.8540
 2.3330	11.8110
 2.3340	11.7650
 2.3350	11.7140
 2.3360	11.6640
 2.3370	11.6130
 2.3380	11.5630
 2.3390	11.5160
 2.3400	11.4670
 2.3410	11.4180
 2.3420	11.3680
 2.3430	11.3140
 2.3440	11.2660
 2.3450	11.2230
 2.3460	11.1810
 2.3470	11.1460
 2.3480	11.1060
 2.3490	11.0580
 2.3500	11.0150
 2.3510	10.9720
 2.3520	10.9300
 2.3530	10.8910
 2.3540	10.8520
 2.3550	10.8150
 2.3560	10.7740
 2.3570	10.7360
 2.3580	10.7040
 2.3590	10.6710
 2.3600	10.6410
 2.3610	10.6210
 2.3620	10.6000
 2.3630	10.5720
 2.3640	10.5390
 2.3650	10.5000
 2.3660	10.4570
 2.3670	10.4120
 2.3680	10.3690
 2.3690	10.3310
 2.3700	10.2910
 2.3710	10.2540
 2.3720	10.2190
 2.3730	10.1760
 2.3740	10.1270
 2.3750	10.0740
 2.3760	10.0250
 2.3770	 9.9830
 2.3780	 9.9420
 2.3790	 9.9030
 2.3800	 9.8670
 2.3810	 9.8280
 2.3820	 9.7810
 2.3830	 9.7310
 2.3840	 9.6890
 2.3850	 9.6380
 2.3860	 9.5910
 2.3870	 9.5630
 2.3880	 9.5260
 2.3890	 9.4980
 2.3900	 9.4740
 2.3910	 9.4230
 2.3920	 9.3660
 2.3930	 9.3150
 2.3940	 9.2600
 2.3950	 9.2200
 2.3960	 9.1930
 2.3970	 9.1470
 2.3980	 9.1000
 2.3990	 9.0600
 2.4000	 9.0150
 2.4010	 8.9820
 2.4020	 8.9480
 2.4030	 8.9130
 2.4040	 8.8780
 2.4050	 8.8420
 2.4060	 8.8110
 2.4070	 8.7770
 2.4080	 8.7310
 2.4090	 8.6760
 2.4100	 8.6210
 2.4110	 8.5730
 2.4120	 8.5410
 2.4130	 8.5250
 2.4140	 8.4990
 2.4150	 8.4640
 2.4160	 8.4420
 2.4170	 8.4180
 2.4180	 8.3840
 2.4190	 8.3540
 2.4200	 8.3100
 2.4210	 8.2600
 2.4220	 8.2240
 2.4230	 8.1740
 2.4240	 8.1290
 2.4250	 8.0720
 2.4260	 8.0080
 2.4270	 7.9800
 2.4280	 7.9430
 2.4290	 7.9120
 2.4300	 7.8940
 2.4310	 7.8580
 2.4320	 7.8230
 2.4330	 7.7840
 2.4340	 7.7450
 2.4350	 7.7160
 2.4360	 7.6770
 2.4370	 7.6440
 2.4380	 7.6300
 2.4390	 7.6010
 2.4400	 7.5770
 2.4410	 7.5600
 2.4420	 7.5170
 2.4430	 7.4840
 2.4440	 7.4480
 2.4450	 7.4050
 2.4460	 7.3740
 2.4470	 7.3400
 2.4480	 7.3060
 2.4490	 7.2780
 2.4500	 7.2490
 2.4510	 7.2190
 2.4520	 7.1860
 2.4530	 7.1640
 2.4540	 7.1340
 2.4550	 7.1030
 2.4560	 7.0920
 2.4570	 7.0700
 2.4580	 7.0490
 2.4590	 7.0250
 2.4600	 6.9900
 2.4610	 6.9680
 2.4620	 6.9610
 2.4630	 6.9620
 2.4640	 6.9490
 2.4650	 6.9250
 2.4660	 6.8820
 2.4670	 6.8270
 2.4680	 6.7970
 2.4690	 6.7760
 2.4700	 6.7530
 2.4710	 6.7480
 2.4720	 6.7330
 2.4730	 6.6980
 2.4740	 6.6860
 2.4750	 6.6880
 2.4760	 6.6640
 2.4770	 6.6400
 2.4780	 6.6140
 2.4790	 6.5650
 2.4800	 6.5450
 2.4810	 6.5410
 2.4820	 6.5680
 2.4830	 6.5460
 2.4840	 6.5130
 2.4850	 6.4970
 2.4860	 6.5030
 2.4870	 6.5420
 2.4880	 6.5690
 2.4890	 6.5620
 2.4900	 6.5180
 2.4910	 6.4640
 2.4920	 6.4320
 2.4930	 6.4290
 2.4940	 6.4410
 2.4950	 6.4230
 2.4960	 6.3940
 2.4970	 6.3950
 2.4980	 6.3780
 2.4990	 6.4030
 2.5000	 6.4690
