Name: Baccharis pilularis 1
Type: vegetation
Class: Shrub
Genus: Baccharis
Species: pilularis
Sample No.: VH193
Owner: UCSB
Wavelength Range: TIR
Origin: 34.4186; -119.8458; WGS84
Collection Date: 10/13/2013
Description: Samples were collected as part of the HyspIRI Airborne Campaign. 48 individual plants were sampled in three times in 2013 - spring  summer  and fall. The name of the sample includes a 1  2  or 3 which references a different individual of the species. Samples were taken to JPL and processed within 48 hours of collection. The same leaves were processed in the Nicolet and then measured using the ASD.
Measurement: Hemispherical reflectance
First Column: X
Second Column: Y
X Units: Wavelength (micrometers)
Y Units: Reflectance (percentage)
First X Value: 2.501
Last X Value: 15.387
Number of X Values: 1737
Additional Information: vegetation.shrub.baccharis.pilularis.tir.vh193.ucsb.nicolet.ancillary.txt

 2.5010	 8.3310
 2.5030	 8.4180
 2.5040	 8.7180
 2.5050	 8.5430
 2.5060	 8.1850
 2.5070	 8.1650
 2.5090	 8.3430
 2.5100	 8.0820
 2.5110	 8.0470
 2.5120	 8.2610
 2.5140	 8.3820
 2.5150	 8.4080
 2.5160	 8.3520
 2.5170	 8.3640
 2.5180	 8.1290
 2.5200	 7.9410
 2.5210	 8.0690
 2.5220	 8.1080
 2.5230	 8.1920
 2.5250	 8.1620
 2.5260	 8.1030
 2.5270	 8.0020
 2.5280	 7.8720
 2.5290	 8.0150
 2.5310	 8.3820
 2.5320	 8.3430
 2.5330	 8.1420
 2.5340	 8.1080
 2.5360	 8.2560
 2.5370	 8.2100
 2.5380	 8.1760
 2.5390	 8.1200
 2.5410	 8.1150
 2.5420	 8.2500
 2.5430	 8.2830
 2.5440	 8.0510
 2.5460	 8.0190
 2.5470	 7.9530
 2.5480	 7.9780
 2.5490	 8.0370
 2.5510	 8.0720
 2.5520	 8.1230
 2.5530	 8.2340
 2.5540	 8.2540
 2.5560	 8.1070
 2.5570	 8.0460
 2.5580	 8.0740
 2.5590	 8.2350
 2.5610	 8.3740
 2.5620	 8.2620
 2.5630	 8.1270
 2.5640	 8.0460
 2.5660	 8.2330
 2.5670	 8.3700
 2.5680	 8.3190
 2.5700	 8.3280
 2.5710	 8.2890
 2.5720	 8.0710
 2.5730	 8.1000
 2.5750	 8.1460
 2.5760	 8.2870
 2.5770	 8.1900
 2.5790	 8.2020
 2.5800	 8.3020
 2.5810	 8.4870
 2.5820	 8.3830
 2.5840	 7.9860
 2.5850	 7.7320
 2.5860	 8.0450
 2.5880	 8.2210
 2.5890	 8.4340
 2.5900	 8.3400
 2.5910	 8.1280
 2.5930	 7.9920
 2.5940	 7.9990
 2.5950	 8.0320
 2.5970	 8.2570
 2.5980	 8.3360
 2.5990	 8.2330
 2.6000	 8.1570
 2.6020	 8.1260
 2.6030	 8.0640
 2.6040	 8.0480
 2.6060	 8.0580
 2.6070	 8.0950
 2.6080	 8.2320
 2.6100	 8.1980
 2.6110	 7.8900
 2.6120	 7.7350
 2.6140	 7.8500
 2.6150	 7.9930
 2.6160	 7.7770
 2.6180	 7.6930
 2.6190	 8.0340
 2.6200	 8.2470
 2.6220	 7.9800
 2.6230	 7.8940
 2.6240	 7.6770
 2.6260	 7.7160
 2.6270	 7.6800
 2.6280	 7.6760
 2.6300	 7.8390
 2.6310	 7.7990
 2.6320	 7.7010
 2.6340	 7.7750
 2.6350	 7.6770
 2.6360	 7.5700
 2.6380	 7.5190
 2.6390	 7.6320
 2.6400	 7.6130
 2.6420	 7.5820
 2.6430	 7.5070
 2.6440	 7.4950
 2.6460	 7.5720
 2.6470	 7.6400
 2.6480	 7.5350
 2.6500	 7.5860
 2.6510	 7.6040
 2.6520	 7.4350
 2.6540	 7.2430
 2.6550	 7.2500
 2.6560	 7.2970
 2.6580	 7.2770
 2.6590	 7.2760
 2.6610	 7.4720
 2.6620	 7.3950
 2.6630	 7.5010
 2.6650	 7.4700
 2.6660	 7.0330
 2.6670	 7.0330
 2.6690	 7.1770
 2.6700	 7.1050
 2.6720	 7.0480
 2.6730	 7.2130
 2.6740	 7.2730
 2.6760	 7.2180
 2.6770	 7.1510
 2.6780	 7.0210
 2.6800	 6.9910
 2.6810	 7.0010
 2.6830	 7.0050
 2.6840	 7.0510
 2.6850	 7.1280
 2.6870	 6.9160
 2.6880	 6.8900
 2.6900	 7.0050
 2.6910	 7.1420
 2.6920	 7.1530
 2.6940	 6.9910
 2.6950	 6.7210
 2.6970	 6.5790
 2.6980	 6.5650
 2.6990	 6.4320
 2.7010	 6.3430
 2.7020	 6.6290
 2.7040	 6.7910
 2.7050	 6.7630
 2.7060	 6.6810
 2.7080	 6.8110
 2.7090	 6.7680
 2.7110	 6.5660
 2.7120	 6.6190
 2.7130	 6.5940
 2.7150	 6.5070
 2.7160	 6.5520
 2.7180	 6.5870
 2.7190	 6.4110
 2.7210	 6.1510
 2.7220	 6.1550
 2.7230	 6.2880
 2.7250	 6.3150
 2.7260	 6.4650
 2.7280	 6.4020
 2.7290	 6.5170
 2.7310	 6.7260
 2.7320	 6.4580
 2.7330	 6.3430
 2.7350	 6.4250
 2.7360	 6.5120
 2.7380	 6.1540
 2.7390	 6.1820
 2.7410	 6.1700
 2.7420	 6.2110
 2.7440	 6.7480
 2.7450	 7.1620
 2.7470	 6.4120
 2.7480	 5.7770
 2.7490	 5.5270
 2.7510	 5.4630
 2.7520	 6.0910
 2.7540	 6.3620
 2.7550	 5.8680
 2.7570	 5.6140
 2.7580	 5.8180
 2.7600	 6.2070
 2.7610	 6.4440
 2.7630	 6.3130
 2.7640	 6.3960
 2.7660	 6.6550
 2.7670	 6.5120
 2.7680	 6.2030
 2.7700	 5.9210
 2.7710	 5.6860
 2.7730	 5.4760
 2.7740	 5.6710
 2.7760	 6.0380
 2.7770	 6.0460
 2.7790	 5.9630
 2.7800	 6.1610
 2.7820	 6.3270
 2.7830	 6.3930
 2.7850	 6.1360
 2.7860	 6.1460
 2.7880	 5.8190
 2.7890	 5.8200
 2.7910	 5.8090
 2.7920	 5.9390
 2.7940	 5.9770
 2.7950	 5.8890
 2.7970	 5.9390
 2.7980	 6.0030
 2.8000	 5.7380
 2.8010	 5.6590
 2.8030	 5.6320
 2.8040	 5.7840
 2.8060	 5.8880
 2.8070	 5.9780
 2.8090	 5.8370
 2.8110	 5.9300
 2.8120	 5.8900
 2.8140	 5.7450
 2.8150	 5.5620
 2.8170	 5.6120
 2.8180	 5.8510
 2.8200	 5.9870
 2.8210	 5.8910
 2.8230	 5.9100
 2.8240	 5.8380
 2.8260	 5.7400
 2.8270	 5.5510
 2.8290	 5.6950
 2.8300	 5.8480
 2.8320	 5.6980
 2.8340	 5.4790
 2.8350	 5.7590
 2.8370	 5.7720
 2.8380	 5.6340
 2.8400	 5.5090
 2.8410	 5.6340
 2.8430	 5.7920
 2.8440	 5.8050
 2.8460	 5.7610
 2.8480	 5.9480
 2.8490	 5.9630
 2.8510	 5.8680
 2.8520	 5.9280
 2.8540	 5.8640
 2.8550	 5.5940
 2.8570	 5.5350
 2.8590	 5.5110
 2.8600	 5.7410
 2.8620	 5.6630
 2.8630	 5.4280
 2.8650	 5.4800
 2.8660	 5.7170
 2.8680	 5.6060
 2.8700	 5.5450
 2.8710	 5.2340
 2.8730	 5.1580
 2.8740	 5.8140
 2.8760	 5.9260
 2.8780	 5.4660
 2.8790	 5.3670
 2.8810	 5.8990
 2.8820	 5.7980
 2.8840	 5.7070
 2.8860	 5.9880
 2.8870	 6.1780
 2.8890	 6.4050
 2.8900	 5.7450
 2.8920	 5.5390
 2.8940	 5.5070
 2.8950	 5.3300
 2.8970	 5.1580
 2.8980	 5.7810
 2.9000	 5.8430
 2.9020	 5.7020
 2.9030	 6.1270
 2.9050	 6.2980
 2.9070	 6.1690
 2.9080	 6.1450
 2.9100	 5.7910
 2.9120	 5.7230
 2.9130	 5.6650
 2.9150	 5.5950
 2.9160	 5.5920
 2.9180	 5.7960
 2.9200	 5.7170
 2.9210	 5.4480
 2.9230	 5.5580
 2.9250	 5.7610
 2.9260	 5.5640
 2.9280	 5.5050
 2.9300	 5.5580
 2.9310	 5.5940
 2.9330	 5.4580
 2.9350	 5.2450
 2.9360	 5.4850
 2.9380	 5.8220
 2.9400	 5.5030
 2.9410	 5.0670
 2.9430	 5.3530
 2.9450	 5.8620
 2.9460	 5.6340
 2.9480	 5.0020
 2.9500	 4.8730
 2.9510	 5.4200
 2.9530	 5.9560
 2.9550	 5.8810
 2.9560	 5.4050
 2.9580	 5.8120
 2.9600	 6.3210
 2.9610	 5.3030
 2.9630	 5.0320
 2.9650	 5.4760
 2.9660	 5.5380
 2.9680	 4.8630
 2.9700	 4.2230
 2.9720	 4.2330
 2.9730	 3.0110
 2.9750	 0.6300
 2.9770	 3.2350
 2.9780	 5.2460
 2.9800	 4.0560
 2.9820	 4.5410
 2.9840	 5.2790
 2.9850	 6.4660
 2.9870	 7.4340
 2.9890	 7.0940
 2.9900	 4.3520
 2.9920	 4.4020
 2.9940	 3.9120
 2.9960	 2.0570
 2.9970	 3.7490
 2.9990	 5.7380
 3.0010	 5.1520
 3.0030	 4.5590
 3.0040	 6.5260
 3.0060	 8.4410
 3.0080	 7.2850
 3.0100	 5.6710
 3.0110	 5.0550
 3.0130	 5.9060
 3.0150	 6.4340
 3.0170	 6.0000
 3.0180	 5.0980
 3.0200	 5.2430
 3.0220	 6.2470
 3.0240	 6.1210
 3.0250	 5.4820
 3.0270	 4.9620
 3.0290	 4.5130
 3.0310	 4.4890
 3.0320	 4.6460
 3.0340	 5.0820
 3.0360	 4.2150
 3.0380	 3.4160
 3.0400	 3.1780
 3.0410	 4.1290
 3.0430	 3.7530
 3.0450	 4.1700
 3.0470	 5.7520
 3.0480	 6.6400
 3.0500	 5.2260
 3.0520	 3.4080
 3.0540	 5.1530
 3.0560	 7.2940
 3.0570	 7.9000
 3.0590	 5.5650
 3.0610	 4.7380
 3.0630	 5.5770
 3.0650	 5.6390
 3.0660	 6.3350
 3.0680	 7.1680
 3.0700	 7.4110
 3.0720	 7.5310
 3.0740	 5.9930
 3.0760	 4.9330
 3.0770	 5.3770
 3.0790	 5.6520
 3.0810	 5.8300
 3.0830	 5.8250
 3.0850	 5.7380
 3.0870	 5.4580
 3.0880	 5.5340
 3.0900	 5.7300
 3.0920	 6.0290
 3.0940	 6.0520
 3.0960	 5.9520
 3.0980	 5.8790
 3.0990	 5.8130
 3.1010	 5.2380
 3.1030	 5.0210
 3.1050	 5.4400
 3.1070	 5.8410
 3.1090	 5.6330
 3.1110	 5.6120
 3.1120	 5.6820
 3.1140	 4.9320
 3.1160	 4.7080
 3.1180	 5.0890
 3.1200	 5.3920
 3.1220	 5.9280
 3.1240	 5.7200
 3.1260	 5.3750
 3.1270	 5.3810
 3.1290	 5.0330
 3.1310	 4.8730
 3.1330	 4.8950
 3.1350	 5.6870
 3.1370	 5.7270
 3.1390	 5.7560
 3.1410	 7.4750
 3.1430	 7.6410
 3.1450	 5.8050
 3.1460	 4.8760
 3.1480	 4.3250
 3.1500	 4.3310
 3.1520	 4.8470
 3.1540	 5.5750
 3.1560	 5.5190
 3.1580	 4.0400
 3.1600	 2.6430
 3.1620	 5.0260
 3.1640	 5.8410
 3.1660	 6.4240
 3.1680	 6.8360
 3.1700	 5.7840
 3.1710	 4.1240
 3.1730	 3.0600
 3.1750	 3.6480
 3.1770	 6.0150
 3.1790	 5.1560
 3.1810	 6.0460
 3.1830	 8.0960
 3.1850	 6.6140
 3.1870	 4.9080
 3.1890	 4.4810
 3.1910	 5.5840
 3.1930	 5.5340
 3.1950	 5.2630
 3.1970	 5.1340
 3.1990	 5.5080
 3.2010	 5.6590
 3.2030	 5.7230
 3.2050	 5.7930
 3.2070	 5.7330
 3.2090	 5.3890
 3.2110	 5.4220
 3.2130	 5.5110
 3.2150	 5.6470
 3.2170	 5.5200
 3.2190	 5.6340
 3.2210	 5.6580
 3.2230	 5.5900
 3.2250	 5.2730
 3.2270	 5.3610
 3.2290	 5.6190
 3.2310	 5.6370
 3.2330	 5.3250
 3.2350	 5.2700
 3.2370	 5.3750
 3.2390	 5.5070
 3.2410	 5.4830
 3.2430	 5.7250
 3.2450	 5.8500
 3.2470	 5.9380
 3.2490	 5.7830
 3.2510	 6.2880
 3.2530	 6.7030
 3.2550	 6.3460
 3.2570	 5.8120
 3.2590	 5.7440
 3.2610	 5.6820
 3.2630	 5.4690
 3.2650	 5.4610
 3.2670	 5.4730
 3.2690	 5.2160
 3.2720	 5.4670
 3.2740	 5.8320
 3.2760	 5.6730
 3.2780	 5.3570
 3.2800	 5.3940
 3.2820	 5.6740
 3.2840	 6.0020
 3.2860	 6.1830
 3.2880	 6.1800
 3.2900	 6.0430
 3.2920	 5.2980
 3.2940	 4.7510
 3.2960	 4.7940
 3.2990	 4.7070
 3.3010	 4.8030
 3.3030	 5.2750
 3.3050	 5.9570
 3.3070	 6.3310
 3.3090	 5.9990
 3.3110	 5.6000
 3.3130	 5.6220
 3.3150	 5.2630
 3.3180	 5.2640
 3.3200	 5.4870
 3.3220	 5.4670
 3.3240	 5.5960
 3.3260	 5.5880
 3.3280	 5.3570
 3.3300	 5.4050
 3.3330	 5.6320
 3.3350	 5.4500
 3.3370	 5.0470
 3.3390	 5.1720
 3.3410	 5.1500
 3.3430	 4.8310
 3.3450	 5.0380
 3.3480	 5.5340
 3.3500	 5.6280
 3.3520	 5.3500
 3.3540	 5.1510
 3.3560	 5.2070
 3.3580	 5.2580
 3.3610	 5.3560
 3.3630	 5.3100
 3.3650	 5.2090
 3.3670	 5.1470
 3.3690	 5.2020
 3.3720	 5.2970
 3.3740	 5.2960
 3.3760	 5.2000
 3.3780	 5.1350
 3.3800	 5.0960
 3.3830	 5.1250
 3.3850	 5.1170
 3.3870	 5.1660
 3.3890	 5.1060
 3.3910	 5.0410
 3.3940	 5.1300
 3.3960	 5.2930
 3.3980	 5.3620
 3.4000	 5.3960
 3.4020	 5.3510
 3.4050	 5.4170
 3.4070	 5.4390
 3.4090	 5.4470
 3.4110	 5.3320
 3.4140	 5.3400
 3.4160	 5.4850
 3.4180	 5.5040
 3.4200	 5.4960
 3.4230	 5.7520
 3.4250	 5.8290
 3.4270	 5.8890
 3.4290	 6.0030
 3.4320	 6.0450
 3.4340	 5.9780
 3.4360	 5.9810
 3.4390	 5.8630
 3.4410	 5.7230
 3.4430	 5.9020
 3.4450	 6.4930
 3.4480	 6.5570
 3.4500	 6.1100
 3.4520	 5.7380
 3.4550	 5.4660
 3.4570	 5.4300
 3.4590	 5.5470
 3.4620	 5.6660
 3.4640	 5.6650
 3.4660	 5.5660
 3.4680	 5.6030
 3.4710	 5.7440
 3.4730	 5.8780
 3.4750	 5.7690
 3.4780	 5.6640
 3.4800	 5.5720
 3.4820	 5.5730
 3.4850	 5.5620
 3.4870	 5.6860
 3.4890	 5.7140
 3.4920	 5.7420
 3.4940	 5.7110
 3.4970	 5.6930
 3.4990	 5.7530
 3.5010	 5.8110
 3.5040	 5.7530
 3.5060	 6.0630
 3.5080	 6.4590
 3.5110	 6.3020
 3.5130	 6.0650
 3.5160	 6.2510
 3.5180	 6.3090
 3.5200	 6.2330
 3.5230	 6.0540
 3.5250	 5.9900
 3.5270	 5.9930
 3.5300	 5.9060
 3.5320	 5.9160
 3.5350	 6.0990
 3.5370	 6.2120
 3.5400	 6.1760
 3.5420	 5.9670
 3.5440	 6.0910
 3.5470	 6.2430
 3.5490	 6.0600
 3.5520	 5.8760
 3.5540	 5.9290
 3.5570	 5.9940
 3.5590	 6.0200
 3.5610	 6.0440
 3.5640	 6.0500
 3.5660	 6.0700
 3.5690	 6.1100
 3.5710	 6.0530
 3.5740	 6.1090
 3.5760	 6.1580
 3.5790	 6.1080
 3.5810	 6.0090
 3.5840	 5.9520
 3.5860	 6.0640
 3.5890	 6.1180
 3.5910	 5.8920
 3.5930	 5.6970
 3.5960	 6.0140
 3.5980	 5.8650
 3.6010	 5.7480
 3.6030	 5.9740
 3.6060	 5.8830
 3.6080	 5.7680
 3.6110	 5.7440
 3.6140	 6.0370
 3.6160	 6.1260
 3.6190	 6.0200
 3.6210	 6.0120
 3.6240	 6.1830
 3.6260	 6.1120
 3.6290	 6.0470
 3.6310	 6.1060
 3.6340	 6.2890
 3.6360	 6.1860
 3.6390	 6.0210
 3.6410	 6.0330
 3.6440	 6.0300
 3.6470	 5.9400
 3.6490	 6.0240
 3.6520	 6.0360
 3.6540	 6.0600
 3.6570	 6.1090
 3.6590	 6.0670
 3.6620	 5.9260
 3.6650	 5.8800
 3.6670	 5.9180
 3.6700	 5.9870
 3.6720	 5.9920
 3.6750	 6.0870
 3.6780	 6.1460
 3.6800	 6.2360
 3.6830	 6.2000
 3.6850	 6.0590
 3.6880	 6.0360
 3.6910	 6.1200
 3.6930	 6.1040
 3.6960	 6.0890
 3.6990	 6.1310
 3.7010	 6.2510
 3.7040	 6.2720
 3.7060	 6.2360
 3.7090	 6.1620
 3.7120	 6.1620
 3.7140	 6.1300
 3.7170	 6.2000
 3.7200	 6.3020
 3.7220	 6.3560
 3.7250	 6.2570
 3.7280	 6.1330
 3.7300	 5.9250
 3.7330	 5.8160
 3.7360	 5.8780
 3.7390	 6.0580
 3.7410	 6.2620
 3.7440	 6.3670
 3.7470	 6.2250
 3.7490	 6.1270
 3.7520	 6.1990
 3.7550	 6.3210
 3.7580	 6.3730
 3.7600	 6.1740
 3.7630	 6.0870
 3.7660	 6.3140
 3.7680	 6.3810
 3.7710	 6.2730
 3.7740	 6.3360
 3.7770	 6.2770
 3.7790	 6.1040
 3.7820	 6.2140
 3.7850	 6.2510
 3.7880	 6.2300
 3.7900	 6.2560
 3.7930	 6.3280
 3.7960	 6.2780
 3.7990	 6.2640
 3.8020	 6.1530
 3.8040	 6.1510
 3.8070	 6.1130
 3.8100	 6.2560
 3.8130	 6.4170
 3.8160	 6.4140
 3.8180	 6.2430
 3.8210	 6.0190
 3.8240	 5.9750
 3.8270	 6.2030
 3.8300	 6.2270
 3.8330	 6.2170
 3.8350	 6.2020
 3.8380	 6.2390
 3.8410	 6.1720
 3.8440	 6.0500
 3.8470	 6.1450
 3.8500	 6.2420
 3.8520	 6.2920
 3.8550	 6.4230
 3.8580	 6.4250
 3.8610	 6.3190
 3.8640	 6.2860
 3.8670	 6.3290
 3.8700	 6.2570
 3.8730	 6.2710
 3.8750	 6.3070
 3.8780	 6.2760
 3.8810	 6.2730
 3.8840	 6.3690
 3.8870	 6.4360
 3.8900	 6.4170
 3.8930	 6.3880
 3.8960	 6.3000
 3.8990	 6.1970
 3.9020	 6.2140
 3.9050	 6.2300
 3.9080	 6.2720
 3.9110	 6.2950
 3.9140	 6.3860
 3.9160	 6.4750
 3.9190	 6.4360
 3.9220	 6.3500
 3.9250	 6.3340
 3.9280	 6.2840
 3.9310	 6.3270
 3.9340	 6.3550
 3.9370	 6.3310
 3.9400	 6.3600
 3.9430	 6.3990
 3.9460	 6.3560
 3.9490	 6.3190
 3.9520	 6.3340
 3.9550	 6.4740
 3.9580	 6.4250
 3.9610	 6.4550
 3.9640	 6.4280
 3.9670	 6.3390
 3.9700	 6.2830
 3.9730	 6.2990
 3.9770	 6.3180
 3.9800	 6.3680
 3.9830	 6.3370
 3.9860	 6.3290
 3.9890	 6.3670
 3.9920	 6.3440
 3.9950	 6.3080
 3.9980	 6.3610
 4.0010	 6.2970
 4.0040	 6.3240
 4.0070	 6.3930
 4.0100	 6.4010
 4.0130	 6.3840
 4.0170	 6.3230
 4.0200	 6.2880
 4.0230	 6.3350
 4.0260	 6.3400
 4.0290	 6.3670
 4.0320	 6.3310
 4.0350	 6.3160
 4.0380	 6.3940
 4.0420	 6.4640
 4.0450	 6.4340
 4.0480	 6.3760
 4.0510	 6.5260
 4.0540	 6.5990
 4.0570	 6.4010
 4.0610	 6.3110
 4.0640	 6.1320
 4.0670	 6.0290
 4.0700	 6.1370
 4.0730	 6.3420
 4.0770	 6.4130
 4.0800	 6.3050
 4.0830	 6.1840
 4.0860	 6.1420
 4.0890	 6.2700
 4.0930	 6.4010
 4.0960	 6.3990
 4.0990	 6.3470
 4.1020	 6.2970
 4.1060	 6.2130
 4.1090	 6.2250
 4.1120	 6.3860
 4.1150	 6.3080
 4.1190	 6.3720
 4.1220	 6.4200
 4.1250	 6.3370
 4.1280	 6.3490
 4.1320	 6.3140
 4.1350	 6.2680
 4.1380	 6.3260
 4.1420	 6.3320
 4.1450	 6.3530
 4.1480	 6.3010
 4.1520	 6.2470
 4.1550	 6.1700
 4.1580	 6.1330
 4.1620	 6.3120
 4.1650	 6.4550
 4.1680	 6.4330
 4.1720	 6.3250
 4.1750	 6.2330
 4.1780	 6.1900
 4.1820	 6.1660
 4.1850	 6.2620
 4.1890	 6.3990
 4.1920	 6.3900
 4.1950	 6.2800
 4.1990	 6.2820
 4.2020	 6.3220
 4.2060	 6.4570
 4.2090	 6.4140
 4.2120	 6.2770
 4.2160	 6.2710
 4.2190	 6.5070
 4.2230	 6.4400
 4.2260	 6.2230
 4.2300	 6.2640
 4.2330	 6.5390
 4.2360	 6.7760
 4.2400	 6.5210
 4.2430	 6.2500
 4.2470	 6.3330
 4.2500	 6.2960
 4.2540	 6.2230
 4.2570	 6.1520
 4.2610	 6.3400
 4.2640	 6.5110
 4.2680	 6.6190
 4.2710	 6.2620
 4.2750	 5.9210
 4.2780	 5.9730
 4.2820	 6.2530
 4.2850	 6.4530
 4.2890	 6.3950
 4.2930	 6.1490
 4.2960	 6.0380
 4.3000	 5.7390
 4.3030	 5.6490
 4.3070	 6.1190
 4.3100	 6.5850
 4.3140	 6.6130
 4.3180	 6.3800
 4.3210	 6.2790
 4.3250	 6.2730
 4.3280	 6.2660
 4.3320	 6.2590
 4.3360	 6.1970
 4.3390	 6.1830
 4.3430	 6.1810
 4.3470	 6.1680
 4.3500	 6.1950
 4.3540	 6.3180
 4.3570	 6.3290
 4.3610	 6.2730
 4.3650	 6.2480
 4.3680	 6.1530
 4.3720	 6.0670
 4.3760	 6.1140
 4.3800	 6.1270
 4.3830	 6.1190
 4.3870	 6.2080
 4.3910	 6.2510
 4.3940	 6.2790
 4.3980	 6.2770
 4.4020	 6.2070
 4.4060	 6.1950
 4.4090	 6.1570
 4.4130	 6.1690
 4.4170	 6.1630
 4.4210	 6.1760
 4.4240	 6.2050
 4.4280	 6.2300
 4.4320	 6.1810
 4.4360	 6.1850
 4.4400	 6.2110
 4.4430	 6.1290
 4.4470	 6.0400
 4.4510	 6.0280
 4.4550	 6.1030
 4.4590	 6.0780
 4.4620	 6.0240
 4.4660	 6.0320
 4.4700	 6.0530
 4.4740	 6.0920
 4.4780	 6.1380
 4.4820	 6.1570
 4.4860	 6.1910
 4.4900	 6.2350
 4.4930	 6.2280
 4.4970	 6.1570
 4.5010	 6.0460
 4.5050	 6.0480
 4.5090	 6.2070
 4.5130	 6.2610
 4.5170	 6.1790
 4.5210	 6.0270
 4.5250	 6.0680
 4.5290	 6.1430
 4.5330	 6.0970
 4.5370	 6.0410
 4.5410	 6.0270
 4.5450	 5.9720
 4.5490	 5.9150
 4.5530	 5.9850
 4.5570	 6.0200
 4.5610	 5.9550
 4.5650	 5.9700
 4.5690	 5.9840
 4.5730	 5.9680
 4.5770	 5.9410
 4.5810	 5.9770
 4.5850	 5.9980
 4.5890	 5.9550
 4.5930	 5.8600
 4.5970	 5.9040
 4.6010	 5.9900
 4.6050	 6.0790
 4.6090	 6.2650
 4.6130	 6.1700
 4.6170	 6.1030
 4.6220	 6.1890
 4.6260	 6.1620
 4.6300	 5.9610
 4.6340	 5.9850
 4.6380	 6.0570
 4.6420	 5.9280
 4.6460	 5.9560
 4.6510	 6.0620
 4.6550	 6.0340
 4.6590	 5.9220
 4.6630	 5.9480
 4.6670	 5.9560
 4.6720	 5.9940
 4.6760	 6.0350
 4.6800	 6.0750
 4.6840	 6.0820
 4.6880	 5.9390
 4.6930	 5.8130
 4.6970	 5.7530
 4.7010	 5.7590
 4.7050	 5.9390
 4.7100	 6.0110
 4.7140	 6.0850
 4.7180	 6.0400
 4.7230	 6.0150
 4.7270	 6.0700
 4.7310	 6.0750
 4.7360	 5.9910
 4.7400	 5.9520
 4.7440	 5.9120
 4.7490	 5.9100
 4.7530	 5.9510
 4.7570	 5.9930
 4.7620	 6.0070
 4.7660	 5.9940
 4.7700	 5.9820
 4.7750	 5.9590
 4.7790	 5.8560
 4.7840	 5.8550
 4.7880	 5.9240
 4.7920	 5.5820
 4.7970	 5.3580
 4.8010	 5.7440
 4.8060	 5.7820
 4.8100	 5.9320
 4.8150	 6.0280
 4.8190	 6.0000
 4.8240	 5.9030
 4.8280	 5.9360
 4.8330	 5.9320
 4.8370	 5.8570
 4.8420	 5.8790
 4.8460	 5.9160
 4.8510	 5.9200
 4.8550	 5.9530
 4.8600	 5.8340
 4.8640	 5.7780
 4.8690	 5.9130
 4.8730	 5.9700
 4.8780	 5.9310
 4.8830	 5.9710
 4.8870	 5.9300
 4.8920	 5.9230
 4.8960	 5.9290
 4.9010	 5.9130
 4.9060	 5.9260
 4.9100	 6.0270
 4.9150	 5.9560
 4.9200	 5.8050
 4.9240	 5.8600
 4.9290	 5.9440
 4.9340	 5.8850
 4.9380	 5.9850
 4.9430	 5.9650
 4.9480	 5.9370
 4.9530	 5.9530
 4.9570	 6.0620
 4.9620	 6.1170
 4.9670	 6.0370
 4.9720	 5.9460
 4.9760	 5.9190
 4.9810	 5.9420
 4.9860	 5.9780
 4.9910	 5.9570
 4.9960	 5.9600
 5.0000	 5.9490
 5.0050	 5.9970
 5.0100	 5.9710
 5.0150	 5.9760
 5.0200	 5.9220
 5.0250	 6.0130
 5.0290	 6.0090
 5.0340	 5.9720
 5.0390	 5.9970
 5.0440	 6.0360
 5.0490	 6.0240
 5.0540	 6.0390
 5.0590	 5.9970
 5.0640	 6.0690
 5.0690	 6.0930
 5.0740	 6.0320
 5.0790	 5.9200
 5.0840	 5.9680
 5.0890	 5.9900
 5.0940	 5.9950
 5.0990	 5.8660
 5.1040	 5.8230
 5.1090	 5.8430
 5.1140	 5.9420
 5.1190	 5.9930
 5.1240	 5.9880
 5.1290	 5.8830
 5.1340	 5.9020
 5.1390	 5.8800
 5.1440	 5.9250
 5.1490	 5.9330
 5.1540	 6.0240
 5.1600	 6.0320
 5.1650	 5.9850
 5.1700	 5.9120
 5.1750	 5.9510
 5.1800	 5.9400
 5.1850	 5.9460
 5.1910	 5.9670
 5.1960	 6.0160
 5.2010	 6.0000
 5.2060	 5.9940
 5.2110	 5.9400
 5.2170	 5.8870
 5.2220	 5.8250
 5.2270	 5.8800
 5.2320	 5.8140
 5.2380	 5.8580
 5.2430	 5.9210
 5.2480	 5.9400
 5.2540	 5.9500
 5.2590	 6.0940
 5.2640	 6.1040
 5.2700	 5.9730
 5.2750	 5.9370
 5.2800	 5.9660
 5.2860	 5.9170
 5.2910	 6.0050
 5.2970	 5.9860
 5.3020	 5.9090
 5.3070	 5.8680
 5.3130	 5.9080
 5.3180	 5.9070
 5.3240	 5.9360
 5.3290	 5.9120
 5.3350	 5.9250
 5.3400	 5.8710
 5.3460	 5.9060
 5.3510	 5.8890
 5.3570	 5.9110
 5.3620	 5.9690
 5.3680	 6.0430
 5.3730	 6.0150
 5.3790	 5.9900
 5.3850	 5.9090
 5.3900	 5.8520
 5.3960	 5.7980
 5.4010	 5.8400
 5.4070	 5.7080
 5.4130	 5.7090
 5.4180	 5.7710
 5.4240	 5.7530
 5.4300	 5.6920
 5.4350	 5.7390
 5.4410	 5.6860
 5.4470	 5.6070
 5.4530	 5.5380
 5.4580	 5.6470
 5.4640	 5.7670
 5.4700	 5.7950
 5.4760	 5.7130
 5.4810	 5.6760
 5.4870	 5.5860
 5.4930	 5.5140
 5.4990	 5.4880
 5.5050	 5.5900
 5.5110	 5.7120
 5.5160	 5.7240
 5.5220	 5.6440
 5.5280	 5.5990
 5.5340	 5.5290
 5.5400	 5.4740
 5.5460	 5.4770
 5.5520	 5.4760
 5.5580	 5.3910
 5.5640	 5.3700
 5.5700	 5.3680
 5.5760	 5.3740
 5.5820	 5.2610
 5.5880	 5.2710
 5.5940	 5.3070
 5.6000	 5.3620
 5.6060	 5.2820
 5.6120	 5.2320
 5.6180	 5.1300
 5.6240	 5.1430
 5.6300	 5.1220
 5.6360	 5.1530
 5.6420	 5.1500
 5.6490	 5.1190
 5.6550	 5.0480
 5.6610	 5.0630
 5.6670	 5.0560
 5.6730	 4.9840
 5.6800	 4.8280
 5.6860	 4.8310
 5.6920	 4.8490
 5.6980	 4.9100
 5.7040	 4.8990
 5.7110	 4.8540
 5.7170	 4.9170
 5.7230	 5.0730
 5.7300	 4.9500
 5.7360	 4.8580
 5.7420	 4.9480
 5.7490	 5.0260
 5.7550	 4.9710
 5.7620	 5.0190
 5.7680	 5.0740
 5.7740	 5.1940
 5.7810	 5.2880
 5.7870	 5.3690
 5.7940	 5.2580
 5.8000	 5.2680
 5.8070	 5.3040
 5.8130	 5.3440
 5.8200	 5.2300
 5.8260	 5.2590
 5.8330	 5.3830
 5.8390	 5.4640
 5.8460	 5.3860
 5.8530	 5.4070
 5.8590	 5.3450
 5.8660	 5.4000
 5.8720	 5.3810
 5.8790	 5.3650
 5.8860	 5.4030
 5.8920	 5.4720
 5.8990	 5.4460
 5.9060	 5.5200
 5.9130	 5.5670
 5.9190	 5.5830
 5.9260	 5.4380
 5.9330	 5.5310
 5.9400	 5.6030
 5.9470	 5.6880
 5.9530	 5.6650
 5.9600	 5.7460
 5.9670	 5.6750
 5.9740	 5.6450
 5.9810	 5.6200
 5.9880	 5.6740
 5.9950	 5.6580
 6.0020	 5.6740
 6.0090	 5.6860
 6.0160	 5.7570
 6.0230	 5.6160
 6.0300	 5.6600
 6.0370	 5.7220
 6.0440	 5.7240
 6.0510	 5.6780
 6.0580	 5.8230
 6.0650	 5.8040
 6.0720	 5.8610
 6.0790	 5.7970
 6.0860	 5.8480
 6.0930	 5.8540
 6.1000	 5.7950
 6.1080	 5.6580
 6.1150	 5.7560
 6.1220	 5.7090
 6.1290	 5.7110
 6.1370	 5.7330
 6.1440	 5.8400
 6.1510	 5.8140
 6.1580	 5.7920
 6.1660	 5.6760
 6.1730	 5.7120
 6.1800	 5.7400
 6.1880	 5.8630
 6.1950	 5.7840
 6.2030	 5.6980
 6.2100	 5.6830
 6.2170	 5.7760
 6.2250	 5.6870
 6.2320	 5.7790
 6.2400	 5.7170
 6.2470	 5.7500
 6.2550	 5.6440
 6.2630	 5.7490
 6.2700	 5.8480
 6.2780	 5.9330
 6.2850	 5.7550
 6.2930	 5.7370
 6.3010	 5.7190
 6.3080	 5.7500
 6.3160	 5.7100
 6.3240	 5.8660
 6.3310	 5.8260
 6.3390	 5.7260
 6.3470	 5.6390
 6.3550	 5.6890
 6.3620	 5.6460
 6.3700	 5.6490
 6.3780	 5.5860
 6.3860	 5.6280
 6.3940	 5.7020
 6.4020	 5.8460
 6.4100	 5.6990
 6.4180	 5.5760
 6.4260	 5.5580
 6.4330	 5.7460
 6.4410	 5.7050
 6.4490	 5.7080
 6.4580	 5.6720
 6.4660	 5.6800
 6.4740	 5.6830
 6.4820	 5.6180
 6.4900	 5.4270
 6.4980	 5.5260
 6.5060	 5.5880
 6.5140	 5.6450
 6.5230	 5.5480
 6.5310	 5.5020
 6.5390	 5.5350
 6.5470	 5.5810
 6.5550	 5.4120
 6.5640	 5.4030
 6.5720	 5.3470
 6.5800	 5.3220
 6.5890	 5.2520
 6.5970	 5.3800
 6.6060	 5.4130
 6.6140	 5.4420
 6.6220	 5.2740
 6.6310	 5.2770
 6.6390	 5.2400
 6.6480	 5.2680
 6.6560	 5.2660
 6.6650	 5.4060
 6.6740	 5.3580
 6.6820	 5.4250
 6.6910	 5.3230
 6.6990	 5.2800
 6.7080	 5.2760
 6.7170	 5.3110
 6.7260	 5.2790
 6.7340	 5.2870
 6.7430	 5.1880
 6.7520	 5.1800
 6.7610	 5.0500
 6.7690	 5.1520
 6.7780	 5.1750
 6.7870	 5.2260
 6.7960	 5.1710
 6.8050	 5.2820
 6.8140	 5.2780
 6.8230	 5.2460
 6.8320	 5.2210
 6.8410	 5.3390
 6.8500	 5.2440
 6.8590	 5.3280
 6.8680	 5.2980
 6.8770	 5.4340
 6.8860	 5.4720
 6.8950	 5.5530
 6.9050	 5.4950
 6.9140	 5.4740
 6.9230	 5.4260
 6.9320	 5.4180
 6.9420	 5.3440
 6.9510	 5.5010
 6.9600	 5.5740
 6.9700	 5.7130
 6.9790	 5.5680
 6.9880	 5.5070
 6.9980	 5.3570
 7.0070	 5.4150
 7.0170	 5.3850
 7.0260	 5.4460
 7.0360	 5.4530
 7.0450	 5.5460
 7.0550	 5.5180
 7.0650	 5.5680
 7.0740	 5.5320
 7.0840	 5.6650
 7.0940	 5.6390
 7.1030	 5.6180
 7.1130	 5.5160
 7.1230	 5.5760
 7.1330	 5.6050
 7.1420	 5.5860
 7.1520	 5.3700
 7.1620	 5.4420
 7.1720	 5.3930
 7.1820	 5.3730
 7.1920	 5.3430
 7.2020	 5.4540
 7.2120	 5.3710
 7.2220	 5.3340
 7.2320	 5.3670
 7.2420	 5.3910
 7.2520	 5.3740
 7.2620	 5.4770
 7.2730	 5.3780
 7.2830	 5.4520
 7.2930	 5.4480
 7.3030	 5.5090
 7.3140	 5.3840
 7.3240	 5.4450
 7.3340	 5.3370
 7.3450	 5.4240
 7.3550	 5.5320
 7.3660	 5.6050
 7.3760	 5.3110
 7.3870	 5.3190
 7.3970	 5.4330
 7.4080	 5.5160
 7.4180	 5.4600
 7.4290	 5.5160
 7.4400	 5.3870
 7.4500	 5.4280
 7.4610	 5.4510
 7.4720	 5.4870
 7.4830	 5.3480
 7.4930	 5.4320
 7.5040	 5.3660
 7.5150	 5.3210
 7.5260	 5.3770
 7.5370	 5.5660
 7.5480	 5.3780
 7.5590	 5.3790
 7.5700	 5.3550
 7.5810	 5.3620
 7.5920	 5.2780
 7.6030	 5.3580
 7.6140	 5.2600
 7.6260	 5.3960
 7.6370	 5.3110
 7.6480	 5.1900
 7.6590	 5.1910
 7.6710	 5.2170
 7.6820	 5.1180
 7.6930	 5.3240
 7.7050	 5.2530
 7.7160	 5.3150
 7.7280	 5.2520
 7.7390	 5.2640
 7.7510	 5.2290
 7.7630	 5.3750
 7.7740	 5.3190
 7.7860	 5.3280
 7.7980	 5.3200
 7.8090	 5.4380
 7.8210	 5.4230
 7.8330	 5.4830
 7.8450	 5.4040
 7.8570	 5.4880
 7.8690	 5.3460
 7.8810	 5.4020
 7.8930	 5.3720
 7.9050	 5.4720
 7.9170	 5.3520
 7.9290	 5.3680
 7.9410	 5.3640
 7.9530	 5.4150
 7.9650	 5.3120
 7.9780	 5.4160
 7.9900	 5.3310
 8.0020	 5.3720
 8.0150	 5.3620
 8.0270	 5.4610
 8.0390	 5.3940
 8.0520	 5.4220
 8.0640	 5.2340
 8.0770	 5.3600
 8.0900	 5.3280
 8.1020	 5.3830
 8.1150	 5.3500
 8.1280	 5.6490
 8.1400	 5.5300
 8.1530	 5.5670
 8.1660	 5.5510
 8.1790	 5.6290
 8.1920	 5.4340
 8.2050	 5.4520
 8.2180	 5.3820
 8.2310	 5.5070
 8.2440	 5.3800
 8.2570	 5.4880
 8.2700	 5.5710
 8.2830	 5.6620
 8.2970	 5.6190
 8.3100	 5.7090
 8.3230	 5.6030
 8.3370	 5.6940
 8.3500	 5.4920
 8.3640	 5.5990
 8.3770	 5.5560
 8.3910	 5.6300
 8.4040	 5.5800
 8.4180	 5.5770
 8.4320	 5.4500
 8.4450	 5.5400
 8.4590	 5.4540
 8.4730	 5.6750
 8.4870	 5.7080
 8.5010	 5.8750
 8.5150	 5.5530
 8.5290	 5.6250
 8.5430	 5.5590
 8.5570	 5.8040
 8.5710	 5.8050
 8.5850	 5.8810
 8.5990	 5.7400
 8.6140	 5.8340
 8.6280	 5.7930
 8.6420	 6.0370
 8.6570	 5.9410
 8.6710	 6.0350
 8.6860	 6.0550
 8.7000	 6.1780
 8.7150	 5.8780
 8.7300	 5.9490
 8.7440	 5.9670
 8.7590	 6.0480
 8.7740	 5.9110
 8.7890	 5.7970
 8.8040	 5.7450
 8.8190	 6.0400
 8.8340	 5.9150
 8.8490	 5.9570
 8.8640	 5.8660
 8.8790	 6.0950
 8.8940	 5.9760
 8.9100	 6.0530
 8.9250	 5.9550
 8.9400	 6.1340
 8.9560	 6.0930
 8.9710	 6.0420
 8.9870	 5.7670
 9.0020	 5.9130
 9.0180	 5.8810
 9.0340	 6.0400
 9.0500	 6.0100
 9.0650	 6.1170
 9.0810	 5.7780
 9.0970	 5.8450
 9.1130	 5.7420
 9.1290	 5.9230
 9.1450	 5.9030
 9.1610	 6.1470
 9.1780	 5.9440
 9.1940	 6.0860
 9.2100	 5.9470
 9.2270	 6.0470
 9.2430	 5.9170
 9.2600	 6.1290
 9.2760	 5.9130
 9.2930	 5.8910
 9.3090	 5.8010
 9.3260	 5.9570
 9.3430	 5.9110
 9.3600	 6.0700
 9.3770	 5.8540
 9.3940	 6.0430
 9.4110	 6.0000
 9.4280	 6.2620
 9.4450	 6.1140
 9.4620	 6.1430
 9.4800	 5.9770
 9.4970	 6.0810
 9.5140	 5.9480
 9.5320	 6.0680
 9.5500	 5.8320
 9.5670	 6.0000
 9.5850	 5.9570
 9.6030	 6.1480
 9.6200	 6.0260
 9.6380	 5.9980
 9.6560	 5.9600
 9.6740	 6.1270
 9.6920	 5.9110
 9.7100	 5.9030
 9.7290	 5.8210
 9.7470	 6.1230
 9.7650	 6.1230
 9.7840	 6.1380
 9.8020	 5.9950
 9.8210	 6.3660
 9.8390	 6.1950
 9.8580	 6.1380
 9.8770	 6.0700
 9.8960	 6.2030
 9.9150	 6.0600
 9.9340	 6.1850
 9.9530	 5.8060
 9.9720	 6.0070
 9.9910	 6.0040
10.0100	 6.0920
10.0300	 6.0340
10.0490	 6.2310
10.0690	 6.0170
10.0880	 6.1030
10.1080	 6.1200
10.1280	 6.2330
10.1480	 5.9910
10.1670	 6.1800
10.1870	 6.0180
10.2070	 6.0440
10.2280	 5.9840
10.2480	 6.1330
10.2680	 6.0090
10.2890	 6.0650
10.3090	 5.9420
10.3300	 6.1390
10.3500	 5.9900
10.3710	 6.0590
10.3920	 5.8490
10.4120	 5.8620
10.4330	 5.7320
10.4540	 5.9110
10.4760	 5.8380
10.4970	 6.0980
10.5180	 6.0540
10.5390	 6.1900
10.5610	 6.0060
10.5820	 6.1740
10.6040	 6.0220
10.6260	 6.1280
10.6480	 5.9000
10.6700	 5.8030
10.6920	 5.8660
10.7140	 6.1330
10.7360	 5.8630
10.7580	 5.9700
10.7800	 5.9440
10.8030	 6.2420
10.8250	 6.1180
10.8480	 6.1150
10.8710	 5.9070
10.8940	 5.9540
10.9170	 5.7810
10.9400	 5.9270
10.9630	 5.8370
10.9860	 6.0580
11.0090	 5.9540
11.0330	 6.2030
11.0560	 5.9290
11.0800	 5.9700
11.1040	 5.8130
11.1270	 6.0310
11.1510	 5.8510
11.1750	 5.8780
11.2000	 5.6700
11.2240	 5.8230
11.2480	 5.6990
11.2730	 5.0500
11.2970	 4.3590
11.3220	 5.4670
11.3470	 5.9050
11.3720	 6.0090
11.3970	 5.8730
11.4220	 6.1350
11.4470	 5.9860
11.4720	 6.1940
11.4980	 5.8280
11.5230	 5.8040
11.5490	 5.8350
11.5750	 6.0370
11.6000	 5.8080
11.6260	 6.0080
11.6530	 5.9150
11.6790	 6.0600
11.7050	 5.7610
11.7320	 5.9250
11.7580	 5.7530
11.7850	 5.9570
11.8120	 5.9400
11.8390	 5.9360
11.8660	 5.4910
11.8930	 5.8010
11.9200	 5.7030
11.9480	 5.7390
11.9760	 5.4700
12.0030	 5.6080
12.0310	 5.4790
12.0590	 5.7300
12.0870	 5.5990
12.1150	 5.9560
12.1440	 5.8630
12.1720	 5.9290
12.2010	 5.5900
12.2300	 6.0290
12.2590	 5.8530
12.2880	 6.0970
12.3170	 5.9130
12.3460	 6.0160
12.3760	 5.6900
12.4050	 5.9120
12.4350	 5.7230
12.4650	 6.0640
12.4950	 5.8220
12.5250	 5.8980
12.5550	 5.8340
12.5860	 6.1300
12.6170	 5.7850
12.6470	 5.9610
12.6780	 5.7330
12.7090	 5.8320
12.7410	 5.5270
12.7720	 5.9030
12.8030	 5.7410
12.8350	 6.1120
12.8670	 5.9770
12.8990	 5.8960
12.9310	 5.7200
12.9640	 6.3440
12.9960	 5.8920
13.0290	 5.7690
13.0610	 5.4280
13.0940	 5.6320
13.1280	 5.3590
13.1610	 5.7740
13.1940	 5.7440
13.2280	 6.0740
13.2620	 5.5590
13.2960	 5.8860
13.3300	 5.9740
13.3640	 6.1390
13.3990	 5.6920
13.4340	 5.8920
13.4690	 5.6530
13.5040	 5.9870
13.5390	 5.6580
13.5740	 5.9610
13.6100	 5.5640
13.6460	 5.8120
13.6820	 5.6690
13.7180	 5.9480
13.7540	 5.2940
13.7910	 5.3450
13.8280	 5.1480
13.8650	 5.2970
13.9020	 5.0540
13.9390	 5.8000
13.9770	 5.6430
14.0150	 6.1180
14.0530	 5.7510
14.0910	 5.7570
14.1290	 5.3030
14.1680	 5.8890
14.2070	 5.7470
14.2460	 5.8700
14.2850	 5.5920
14.3240	 6.0880
14.3640	 5.7800
14.4040	 6.2210
14.4440	 5.6370
14.4840	 5.8100
14.5250	 5.3560
14.5660	 6.3710
14.6070	 5.9540
14.6480	 5.8000
14.6900	 5.0340
14.7310	 5.5250
14.7730	 5.2870
14.8150	 5.6570
14.8580	 4.8460
14.9010	 5.3880
14.9440	 4.8370
14.9870	 5.8170
15.0300	 5.1670
15.0740	 5.6070
15.1180	 4.9170
15.1620	 5.1530
15.2060	 5.0760
15.2510	 5.8580
15.2960	 5.2580
15.3410	 6.2080
15.3870	 5.8970
