Name: Abies concolor 2
Type: vegetation
Class: Tree
Genus: Abies
Species: concolor
Sample No.: VH063
Owner: UCSB
Wavelength Range: TIR
Origin: 37.0437; -119.3025; WGS84
Collection Date: 4/20/2013
Description: Samples were collected as part of the HyspIRI Airborne Campaign. 48 individual plants were sampled in three times in 2013 - spring  summer  and fall. The name of the sample includes a 1  2  or 3 which references a different individual of the species. Samples were taken to JPL and processed within 48 hours of collection. The same leaves were processed in the Nicolet and then measured using the ASD.
Measurement: Hemispherical reflectance
First Column: X
Second Column: Y
X Units: Wavelength (micrometers)
Y Units: Reflectance (percentage)
First X Value: 2.501
Last X Value: 15.387
Number of X Values: 1737
Additional Information: vegetation.tree.abies.concolor.tir.vh063.ucsb.nicolet.ancillary.txt

 2.5010	 6.7910
 2.5030	 6.7890
 2.5040	 6.8080
 2.5050	 6.8380
 2.5060	 6.9040
 2.5070	 6.9440
 2.5090	 6.9220
 2.5100	 6.8110
 2.5110	 6.8130
 2.5120	 6.8930
 2.5140	 6.8180
 2.5150	 6.7500
 2.5160	 6.8050
 2.5170	 6.7580
 2.5180	 6.7420
 2.5200	 6.8610
 2.5210	 6.9880
 2.5220	 6.8350
 2.5230	 6.7350
 2.5250	 6.8470
 2.5260	 6.9250
 2.5270	 6.9100
 2.5280	 6.9240
 2.5290	 6.9420
 2.5310	 6.7910
 2.5320	 6.7200
 2.5330	 6.7730
 2.5340	 6.8040
 2.5360	 6.7590
 2.5370	 6.8030
 2.5380	 6.8310
 2.5390	 6.7690
 2.5410	 6.7450
 2.5420	 6.7190
 2.5430	 6.7380
 2.5440	 6.8570
 2.5460	 6.8770
 2.5470	 6.8680
 2.5480	 6.7910
 2.5490	 6.7510
 2.5510	 6.8010
 2.5520	 6.8440
 2.5530	 6.9320
 2.5540	 6.8770
 2.5560	 6.8480
 2.5570	 6.9420
 2.5580	 6.8910
 2.5590	 6.8310
 2.5610	 6.9040
 2.5620	 7.0120
 2.5630	 6.9440
 2.5640	 6.9490
 2.5660	 6.8680
 2.5670	 6.8200
 2.5680	 6.8770
 2.5700	 6.8870
 2.5710	 6.8700
 2.5720	 6.8990
 2.5730	 6.8370
 2.5750	 6.7730
 2.5760	 6.8480
 2.5770	 6.9540
 2.5790	 6.8830
 2.5800	 6.8430
 2.5810	 6.8200
 2.5820	 6.8380
 2.5840	 6.7890
 2.5850	 6.7540
 2.5860	 6.7400
 2.5880	 6.8040
 2.5890	 6.8540
 2.5900	 6.8550
 2.5910	 6.8230
 2.5930	 6.7940
 2.5940	 6.7390
 2.5950	 6.8540
 2.5970	 6.8770
 2.5980	 6.8680
 2.5990	 6.8410
 2.6000	 6.7910
 2.6020	 6.7730
 2.6030	 6.8150
 2.6040	 6.7080
 2.6060	 6.7270
 2.6070	 6.8540
 2.6080	 6.8910
 2.6100	 6.7440
 2.6110	 6.5770
 2.6120	 6.5820
 2.6140	 6.6640
 2.6150	 6.6040
 2.6160	 6.5640
 2.6180	 6.6070
 2.6190	 6.6600
 2.6200	 6.6310
 2.6220	 6.6190
 2.6230	 6.6120
 2.6240	 6.6470
 2.6260	 6.6800
 2.6270	 6.6780
 2.6280	 6.6610
 2.6300	 6.6090
 2.6310	 6.4800
 2.6320	 6.4450
 2.6340	 6.4550
 2.6350	 6.3360
 2.6360	 6.2890
 2.6380	 6.4130
 2.6390	 6.4910
 2.6400	 6.4950
 2.6420	 6.5000
 2.6430	 6.4010
 2.6440	 6.3470
 2.6460	 6.3050
 2.6470	 6.2060
 2.6480	 6.1900
 2.6500	 6.2310
 2.6510	 6.2850
 2.6520	 6.3010
 2.6540	 6.2220
 2.6550	 6.1540
 2.6560	 6.2300
 2.6580	 6.1610
 2.6590	 6.0340
 2.6610	 6.1320
 2.6620	 6.1370
 2.6630	 6.0610
 2.6650	 6.0950
 2.6660	 6.0700
 2.6670	 6.0280
 2.6690	 6.0340
 2.6700	 5.9850
 2.6720	 5.8870
 2.6730	 5.8380
 2.6740	 5.8500
 2.6760	 5.9030
 2.6770	 5.9060
 2.6780	 5.7430
 2.6800	 5.6920
 2.6810	 5.6780
 2.6830	 5.6960
 2.6840	 5.7370
 2.6850	 5.6840
 2.6870	 5.6960
 2.6880	 5.7190
 2.6900	 5.6370
 2.6910	 5.6500
 2.6920	 5.6330
 2.6940	 5.5770
 2.6950	 5.5930
 2.6970	 5.6070
 2.6980	 5.5620
 2.6990	 5.4270
 2.7010	 5.4370
 2.7020	 5.4900
 2.7040	 5.5340
 2.7050	 5.4550
 2.7060	 5.3640
 2.7080	 5.3630
 2.7090	 5.4420
 2.7110	 5.5010
 2.7120	 5.4630
 2.7130	 5.3060
 2.7150	 5.2780
 2.7160	 5.2620
 2.7180	 5.1660
 2.7190	 5.1260
 2.7210	 5.1520
 2.7220	 5.1280
 2.7230	 5.1800
 2.7250	 5.2010
 2.7260	 5.2150
 2.7280	 5.1210
 2.7290	 4.9940
 2.7310	 4.9860
 2.7320	 5.0500
 2.7330	 5.0700
 2.7350	 5.0010
 2.7360	 5.0660
 2.7380	 5.2290
 2.7390	 5.2120
 2.7410	 5.1470
 2.7420	 5.1810
 2.7440	 5.1400
 2.7450	 5.0470
 2.7470	 5.0310
 2.7480	 4.9120
 2.7490	 4.9530
 2.7510	 5.1320
 2.7520	 5.1350
 2.7540	 5.0680
 2.7550	 5.1310
 2.7570	 5.1030
 2.7580	 5.0630
 2.7600	 5.1120
 2.7610	 5.1570
 2.7630	 5.1230
 2.7640	 5.1370
 2.7660	 5.1250
 2.7670	 5.0820
 2.7680	 5.0210
 2.7700	 4.9120
 2.7710	 4.8610
 2.7730	 5.0600
 2.7740	 5.1720
 2.7760	 5.0150
 2.7770	 4.9830
 2.7790	 5.0610
 2.7800	 4.9630
 2.7820	 4.9030
 2.7830	 4.9470
 2.7850	 4.9180
 2.7860	 4.9240
 2.7880	 5.0170
 2.7890	 4.9810
 2.7910	 5.0050
 2.7920	 5.0730
 2.7940	 5.0410
 2.7950	 5.0350
 2.7970	 5.0750
 2.7980	 5.1440
 2.8000	 5.1440
 2.8010	 5.0310
 2.8030	 4.9830
 2.8040	 4.9880
 2.8060	 4.9920
 2.8070	 5.0110
 2.8090	 5.0580
 2.8110	 5.1430
 2.8120	 5.0340
 2.8140	 4.9960
 2.8150	 5.0320
 2.8170	 4.9510
 2.8180	 4.9660
 2.8200	 4.9720
 2.8210	 4.9320
 2.8230	 4.9120
 2.8240	 4.9740
 2.8260	 4.9590
 2.8270	 4.9570
 2.8290	 4.8570
 2.8300	 4.8560
 2.8320	 4.8850
 2.8340	 4.9400
 2.8350	 5.0010
 2.8370	 4.9850
 2.8380	 4.9790
 2.8400	 5.0490
 2.8410	 5.0960
 2.8430	 5.1010
 2.8440	 5.0390
 2.8460	 4.9450
 2.8480	 4.8700
 2.8490	 4.8750
 2.8510	 4.9300
 2.8520	 5.0500
 2.8540	 4.9910
 2.8550	 4.9080
 2.8570	 4.9410
 2.8590	 4.9700
 2.8600	 5.0100
 2.8620	 4.9710
 2.8630	 4.9550
 2.8650	 5.0960
 2.8660	 5.1270
 2.8680	 5.0520
 2.8700	 4.9480
 2.8710	 5.0040
 2.8730	 5.0340
 2.8740	 4.9680
 2.8760	 4.9540
 2.8780	 5.0160
 2.8790	 5.1440
 2.8810	 4.9770
 2.8820	 4.8530
 2.8840	 4.9870
 2.8860	 5.0640
 2.8870	 4.9820
 2.8890	 5.0270
 2.8900	 5.0110
 2.8920	 4.9130
 2.8940	 4.9210
 2.8950	 4.8730
 2.8970	 4.9380
 2.8980	 4.9910
 2.9000	 5.0040
 2.9020	 4.9980
 2.9030	 4.9860
 2.9050	 4.9620
 2.9070	 5.0080
 2.9080	 5.1240
 2.9100	 5.1510
 2.9120	 5.0210
 2.9130	 5.0750
 2.9150	 5.1010
 2.9160	 4.9020
 2.9180	 4.8770
 2.9200	 4.9640
 2.9210	 4.9230
 2.9230	 4.9470
 2.9250	 4.9710
 2.9260	 4.9450
 2.9280	 4.9250
 2.9300	 4.9250
 2.9310	 4.9210
 2.9330	 4.9610
 2.9350	 4.9540
 2.9360	 5.0620
 2.9380	 5.0940
 2.9400	 5.0550
 2.9410	 5.0950
 2.9430	 5.1160
 2.9450	 5.1210
 2.9460	 5.1820
 2.9480	 5.1600
 2.9500	 5.1300
 2.9510	 5.1310
 2.9530	 5.2010
 2.9550	 5.3650
 2.9560	 5.2700
 2.9580	 4.8470
 2.9600	 4.7420
 2.9610	 4.9990
 2.9630	 5.2760
 2.9650	 5.4230
 2.9660	 5.4360
 2.9680	 5.1840
 2.9700	 5.1430
 2.9720	 5.2370
 2.9730	 5.3490
 2.9750	 5.5850
 2.9770	 5.6370
 2.9780	 5.2120
 2.9800	 4.5800
 2.9820	 4.8350
 2.9840	 5.1730
 2.9850	 5.2020
 2.9870	 5.1630
 2.9890	 5.4140
 2.9900	 5.5850
 2.9920	 5.4460
 2.9940	 5.5630
 2.9960	 5.4960
 2.9970	 5.1500
 2.9990	 4.8180
 3.0010	 4.9880
 3.0030	 5.2800
 3.0040	 5.2060
 3.0060	 5.1430
 3.0080	 5.0530
 3.0100	 4.9600
 3.0110	 5.1220
 3.0130	 5.1070
 3.0150	 4.9220
 3.0170	 4.8710
 3.0180	 5.1190
 3.0200	 5.2170
 3.0220	 5.2580
 3.0240	 5.1550
 3.0250	 5.1420
 3.0270	 5.1580
 3.0290	 5.1470
 3.0310	 5.0190
 3.0320	 4.9680
 3.0340	 5.1140
 3.0360	 5.6850
 3.0380	 5.7150
 3.0400	 5.1460
 3.0410	 4.8130
 3.0430	 5.0170
 3.0450	 4.7310
 3.0470	 4.7580
 3.0480	 4.8070
 3.0500	 4.7320
 3.0520	 5.1990
 3.0540	 5.6780
 3.0560	 5.6510
 3.0570	 5.3260
 3.0590	 5.1080
 3.0610	 5.1840
 3.0630	 5.0830
 3.0650	 4.8540
 3.0660	 4.9770
 3.0680	 5.3540
 3.0700	 5.3440
 3.0720	 5.3200
 3.0740	 5.2420
 3.0760	 5.1710
 3.0770	 5.0800
 3.0790	 5.1010
 3.0810	 5.1000
 3.0830	 5.0110
 3.0850	 4.9550
 3.0870	 5.0130
 3.0880	 5.0880
 3.0900	 5.1260
 3.0920	 5.1090
 3.0940	 5.0810
 3.0960	 4.9860
 3.0980	 4.9800
 3.0990	 5.0230
 3.1010	 5.1320
 3.1030	 5.2350
 3.1050	 5.3440
 3.1070	 5.2540
 3.1090	 5.1580
 3.1110	 5.0930
 3.1120	 4.9940
 3.1140	 4.9260
 3.1160	 5.0670
 3.1180	 5.1760
 3.1200	 5.1350
 3.1220	 5.1010
 3.1240	 5.1030
 3.1260	 5.0970
 3.1270	 5.1370
 3.1290	 5.1680
 3.1310	 5.1930
 3.1330	 5.1230
 3.1350	 5.1710
 3.1370	 5.1440
 3.1390	 5.0510
 3.1410	 5.1760
 3.1430	 5.3450
 3.1450	 5.3570
 3.1460	 5.3600
 3.1480	 5.3320
 3.1500	 5.2320
 3.1520	 5.1920
 3.1540	 5.1430
 3.1560	 4.9750
 3.1580	 4.9370
 3.1600	 4.9360
 3.1620	 4.7660
 3.1640	 4.7320
 3.1660	 5.0540
 3.1680	 5.0480
 3.1700	 5.1750
 3.1710	 5.6580
 3.1730	 5.9070
 3.1750	 5.9830
 3.1770	 5.6380
 3.1790	 5.3110
 3.1810	 5.2940
 3.1830	 5.3400
 3.1850	 5.1970
 3.1870	 4.8430
 3.1890	 4.8490
 3.1910	 4.9830
 3.1930	 5.0070
 3.1950	 5.0170
 3.1970	 5.0290
 3.1990	 5.1060
 3.2010	 5.1160
 3.2030	 5.0820
 3.2050	 5.1170
 3.2070	 5.1310
 3.2090	 4.9970
 3.2110	 4.9470
 3.2130	 4.9820
 3.2150	 4.9940
 3.2170	 4.9910
 3.2190	 5.0410
 3.2210	 5.0700
 3.2230	 5.0550
 3.2250	 5.0060
 3.2270	 4.9770
 3.2290	 4.9550
 3.2310	 5.0310
 3.2330	 5.1350
 3.2350	 5.1820
 3.2370	 5.1650
 3.2390	 5.0830
 3.2410	 5.0740
 3.2430	 5.1180
 3.2450	 5.1220
 3.2470	 5.0940
 3.2490	 5.0730
 3.2510	 4.8790
 3.2530	 4.8090
 3.2550	 4.9450
 3.2570	 5.0760
 3.2590	 5.0670
 3.2610	 5.0210
 3.2630	 4.9280
 3.2650	 4.9410
 3.2670	 5.0670
 3.2690	 5.0910
 3.2720	 5.1050
 3.2740	 5.1280
 3.2760	 5.1260
 3.2780	 5.0450
 3.2800	 4.9810
 3.2820	 5.0120
 3.2840	 5.0240
 3.2860	 4.9770
 3.2880	 4.9390
 3.2900	 4.9340
 3.2920	 4.9500
 3.2940	 4.9720
 3.2960	 5.0250
 3.2990	 4.9980
 3.3010	 4.8960
 3.3030	 4.9130
 3.3050	 4.9400
 3.3070	 4.9360
 3.3090	 4.9560
 3.3110	 5.0330
 3.3130	 5.0000
 3.3150	 4.9970
 3.3180	 4.9090
 3.3200	 4.9170
 3.3220	 4.9030
 3.3240	 4.8670
 3.3260	 4.9140
 3.3280	 4.9830
 3.3300	 4.9870
 3.3330	 4.9860
 3.3350	 4.9200
 3.3370	 4.8910
 3.3390	 4.8710
 3.3410	 5.0190
 3.3430	 5.0130
 3.3450	 4.8680
 3.3480	 4.7850
 3.3500	 4.8220
 3.3520	 4.8190
 3.3540	 4.7460
 3.3560	 4.7350
 3.3580	 4.7800
 3.3610	 4.8480
 3.3630	 4.8200
 3.3650	 4.6750
 3.3670	 4.5650
 3.3690	 4.5680
 3.3720	 4.6090
 3.3740	 4.6500
 3.3760	 4.6640
 3.3780	 4.5920
 3.3800	 4.6710
 3.3830	 4.7490
 3.3850	 4.7290
 3.3870	 4.5760
 3.3890	 4.4310
 3.3910	 4.4610
 3.3940	 4.5230
 3.3960	 4.4860
 3.3980	 4.4330
 3.4000	 4.5170
 3.4020	 4.6070
 3.4050	 4.5100
 3.4070	 4.4260
 3.4090	 4.5160
 3.4110	 4.7010
 3.4140	 4.8410
 3.4160	 4.9800
 3.4180	 5.2040
 3.4200	 5.4450
 3.4230	 5.6520
 3.4250	 6.0120
 3.4270	 6.5090
 3.4290	 6.8270
 3.4320	 6.8930
 3.4340	 6.7100
 3.4360	 6.4290
 3.4390	 6.2960
 3.4410	 6.0720
 3.4430	 5.9280
 3.4450	 5.9250
 3.4480	 5.9550
 3.4500	 5.7750
 3.4520	 5.5350
 3.4550	 5.5360
 3.4570	 5.7260
 3.4590	 5.7770
 3.4620	 5.6670
 3.4640	 5.5770
 3.4660	 5.5890
 3.4680	 5.5870
 3.4710	 5.4900
 3.4730	 5.4540
 3.4750	 5.4640
 3.4780	 5.4010
 3.4800	 5.3440
 3.4820	 5.2160
 3.4850	 5.1920
 3.4870	 5.2060
 3.4890	 5.1500
 3.4920	 5.1540
 3.4940	 5.1520
 3.4970	 5.1210
 3.4990	 5.0730
 3.5010	 5.0490
 3.5040	 5.1120
 3.5060	 5.4700
 3.5080	 6.1190
 3.5110	 6.7050
 3.5130	 6.8370
 3.5160	 6.6260
 3.5180	 6.3760
 3.5200	 6.1060
 3.5230	 6.0450
 3.5250	 6.0670
 3.5270	 5.9670
 3.5300	 5.8270
 3.5320	 5.7200
 3.5350	 5.6530
 3.5370	 5.7050
 3.5400	 5.7040
 3.5420	 5.6520
 3.5440	 5.6140
 3.5470	 5.5920
 3.5490	 5.5890
 3.5520	 5.5470
 3.5540	 5.5310
 3.5570	 5.5730
 3.5590	 5.5930
 3.5610	 5.6400
 3.5640	 5.5940
 3.5660	 5.5290
 3.5690	 5.5550
 3.5710	 5.6450
 3.5740	 5.5510
 3.5760	 5.4940
 3.5790	 5.4710
 3.5810	 5.4780
 3.5840	 5.4750
 3.5860	 5.4780
 3.5890	 5.4650
 3.5910	 5.4470
 3.5930	 5.4300
 3.5960	 5.3840
 3.5980	 5.3040
 3.6010	 5.2760
 3.6030	 5.3310
 3.6060	 5.4180
 3.6080	 5.4550
 3.6110	 5.4680
 3.6140	 5.4400
 3.6160	 5.4490
 3.6190	 5.4420
 3.6210	 5.5080
 3.6240	 5.4800
 3.6260	 5.4480
 3.6290	 5.4460
 3.6310	 5.4220
 3.6340	 5.3020
 3.6360	 5.2800
 3.6390	 5.3230
 3.6410	 5.3810
 3.6440	 5.4000
 3.6470	 5.4380
 3.6490	 5.4630
 3.6520	 5.4850
 3.6540	 5.4450
 3.6570	 5.4430
 3.6590	 5.4900
 3.6620	 5.4670
 3.6650	 5.3640
 3.6670	 5.3910
 3.6700	 5.4070
 3.6720	 5.3980
 3.6750	 5.3680
 3.6780	 5.3540
 3.6800	 5.3790
 3.6830	 5.3800
 3.6850	 5.3340
 3.6880	 5.3400
 3.6910	 5.3290
 3.6930	 5.3750
 3.6960	 5.4020
 3.6990	 5.4060
 3.7010	 5.3540
 3.7040	 5.3310
 3.7060	 5.2840
 3.7090	 5.2890
 3.7120	 5.3430
 3.7140	 5.3780
 3.7170	 5.3230
 3.7200	 5.3360
 3.7220	 5.3200
 3.7250	 5.2570
 3.7280	 5.2560
 3.7300	 5.3340
 3.7330	 5.3900
 3.7360	 5.4140
 3.7390	 5.3910
 3.7410	 5.4290
 3.7440	 5.4490
 3.7470	 5.4300
 3.7490	 5.3860
 3.7520	 5.3870
 3.7550	 5.4180
 3.7580	 5.4410
 3.7600	 5.3520
 3.7630	 5.3200
 3.7660	 5.3370
 3.7680	 5.3730
 3.7710	 5.3770
 3.7740	 5.3260
 3.7770	 5.3040
 3.7790	 5.3450
 3.7820	 5.3220
 3.7850	 5.3600
 3.7880	 5.3610
 3.7900	 5.3920
 3.7930	 5.3820
 3.7960	 5.3230
 3.7990	 5.2960
 3.8020	 5.3360
 3.8040	 5.3490
 3.8070	 5.3880
 3.8100	 5.3690
 3.8130	 5.4080
 3.8160	 5.4310
 3.8180	 5.4430
 3.8210	 5.4280
 3.8240	 5.4190
 3.8270	 5.3700
 3.8300	 5.3960
 3.8330	 5.3750
 3.8350	 5.4020
 3.8380	 5.4000
 3.8410	 5.3650
 3.8440	 5.3310
 3.8470	 5.3370
 3.8500	 5.3420
 3.8520	 5.4230
 3.8550	 5.4400
 3.8580	 5.4380
 3.8610	 5.4700
 3.8640	 5.4700
 3.8670	 5.4310
 3.8700	 5.3490
 3.8730	 5.3460
 3.8750	 5.4000
 3.8780	 5.3700
 3.8810	 5.4060
 3.8840	 5.4560
 3.8870	 5.4860
 3.8900	 5.4570
 3.8930	 5.3780
 3.8960	 5.3120
 3.8990	 5.3620
 3.9020	 5.3340
 3.9050	 5.3560
 3.9080	 5.4160
 3.9110	 5.4700
 3.9140	 5.5030
 3.9160	 5.5170
 3.9190	 5.4890
 3.9220	 5.4570
 3.9250	 5.4730
 3.9280	 5.4480
 3.9310	 5.4020
 3.9340	 5.4230
 3.9370	 5.4580
 3.9400	 5.4520
 3.9430	 5.4270
 3.9460	 5.4080
 3.9490	 5.3940
 3.9520	 5.4480
 3.9550	 5.4440
 3.9580	 5.4030
 3.9610	 5.3650
 3.9640	 5.4210
 3.9670	 5.4500
 3.9700	 5.4390
 3.9730	 5.4760
 3.9770	 5.4790
 3.9800	 5.3930
 3.9830	 5.4090
 3.9860	 5.4170
 3.9890	 5.4600
 3.9920	 5.4830
 3.9950	 5.4640
 3.9980	 5.4390
 4.0010	 5.4610
 4.0040	 5.3840
 4.0070	 5.3580
 4.0100	 5.3680
 4.0130	 5.4200
 4.0170	 5.5010
 4.0200	 5.5900
 4.0230	 5.5350
 4.0260	 5.4640
 4.0290	 5.4380
 4.0320	 5.4260
 4.0350	 5.4370
 4.0380	 5.4450
 4.0420	 5.4280
 4.0450	 5.4590
 4.0480	 5.4210
 4.0510	 5.4530
 4.0540	 5.4780
 4.0570	 5.4430
 4.0610	 5.3700
 4.0640	 5.4180
 4.0670	 5.4360
 4.0700	 5.4600
 4.0730	 5.4960
 4.0770	 5.4910
 4.0800	 5.4320
 4.0830	 5.4530
 4.0860	 5.4420
 4.0890	 5.4410
 4.0930	 5.4560
 4.0960	 5.4840
 4.0990	 5.4490
 4.1020	 5.4520
 4.1060	 5.4370
 4.1090	 5.3810
 4.1120	 5.3030
 4.1150	 5.3250
 4.1190	 5.4110
 4.1220	 5.4430
 4.1250	 5.4270
 4.1280	 5.4690
 4.1320	 5.4900
 4.1350	 5.4920
 4.1380	 5.4770
 4.1420	 5.5180
 4.1450	 5.4380
 4.1480	 5.3710
 4.1520	 5.4240
 4.1550	 5.4640
 4.1580	 5.4080
 4.1620	 5.3860
 4.1650	 5.4100
 4.1680	 5.4880
 4.1720	 5.4370
 4.1750	 5.3810
 4.1780	 5.3690
 4.1820	 5.3840
 4.1850	 5.3810
 4.1890	 5.4230
 4.1920	 5.3810
 4.1950	 5.3320
 4.1990	 5.3930
 4.2020	 5.4940
 4.2060	 5.4870
 4.2090	 5.6170
 4.2120	 5.6630
 4.2160	 5.6030
 4.2190	 5.5970
 4.2230	 5.8010
 4.2260	 5.7400
 4.2300	 5.5870
 4.2330	 5.3970
 4.2360	 5.5230
 4.2400	 5.6460
 4.2430	 5.6870
 4.2470	 5.6160
 4.2500	 5.7730
 4.2540	 5.6670
 4.2570	 5.4900
 4.2610	 5.3700
 4.2640	 5.2930
 4.2680	 5.3470
 4.2710	 5.5480
 4.2750	 5.3010
 4.2780	 5.4420
 4.2820	 5.5770
 4.2850	 5.5360
 4.2890	 5.3000
 4.2930	 5.2660
 4.2960	 5.3680
 4.3000	 5.4160
 4.3030	 5.3410
 4.3070	 5.3970
 4.3100	 5.3570
 4.3140	 5.3810
 4.3180	 5.3790
 4.3210	 5.3230
 4.3250	 5.2580
 4.3280	 5.3680
 4.3320	 5.3720
 4.3360	 5.3390
 4.3390	 5.3350
 4.3430	 5.3210
 4.3470	 5.2490
 4.3500	 5.2080
 4.3540	 5.1630
 4.3570	 5.1820
 4.3610	 5.2040
 4.3650	 5.2200
 4.3680	 5.1780
 4.3720	 5.1690
 4.3760	 5.1390
 4.3800	 5.1840
 4.3830	 5.2550
 4.3870	 5.2590
 4.3910	 5.1790
 4.3940	 5.1520
 4.3980	 5.1430
 4.4020	 5.1900
 4.4060	 5.2240
 4.4090	 5.2380
 4.4130	 5.1950
 4.4170	 5.2160
 4.4210	 5.1850
 4.4240	 5.1370
 4.4280	 5.0820
 4.4320	 5.0700
 4.4360	 5.0590
 4.4400	 5.0910
 4.4430	 5.0890
 4.4470	 5.0940
 4.4510	 5.0840
 4.4550	 5.0960
 4.4590	 5.0600
 4.4620	 5.1190
 4.4660	 5.1230
 4.4700	 5.0890
 4.4740	 5.0510
 4.4780	 5.0490
 4.4820	 5.0140
 4.4860	 5.0280
 4.4900	 5.0470
 4.4930	 5.0890
 4.4970	 5.0720
 4.5010	 5.0670
 4.5050	 5.0190
 4.5090	 5.0050
 4.5130	 5.0170
 4.5170	 5.0780
 4.5210	 5.0840
 4.5250	 5.0660
 4.5290	 5.0460
 4.5330	 5.1010
 4.5370	 5.0930
 4.5410	 5.0870
 4.5450	 5.0910
 4.5490	 5.0710
 4.5530	 5.0050
 4.5570	 5.0380
 4.5610	 5.0390
 4.5650	 5.0530
 4.5690	 5.0390
 4.5730	 5.0650
 4.5770	 5.0450
 4.5810	 5.0510
 4.5850	 5.0250
 4.5890	 5.0600
 4.5930	 5.0540
 4.5970	 5.0810
 4.6010	 5.0550
 4.6050	 5.0600
 4.6090	 5.0390
 4.6130	 5.0820
 4.6170	 5.0240
 4.6220	 5.0520
 4.6260	 5.0520
 4.6300	 4.9990
 4.6340	 4.9370
 4.6380	 4.9160
 4.6420	 4.9540
 4.6460	 4.9920
 4.6510	 4.9770
 4.6550	 4.9680
 4.6590	 4.9700
 4.6630	 5.0630
 4.6670	 5.0440
 4.6720	 5.0250
 4.6760	 4.9790
 4.6800	 4.9460
 4.6840	 4.9180
 4.6880	 4.9770
 4.6930	 4.9930
 4.6970	 4.9910
 4.7010	 4.9640
 4.7050	 4.9610
 4.7100	 4.9380
 4.7140	 5.0140
 4.7180	 5.0070
 4.7230	 4.9940
 4.7270	 4.9010
 4.7310	 4.9400
 4.7360	 4.9700
 4.7400	 4.9650
 4.7440	 4.9710
 4.7490	 5.0120
 4.7530	 4.9520
 4.7570	 4.9450
 4.7620	 4.9230
 4.7660	 4.9460
 4.7700	 4.9670
 4.7750	 4.9790
 4.7790	 4.9770
 4.7840	 4.9550
 4.7880	 4.8830
 4.7920	 4.8870
 4.7970	 4.8430
 4.8010	 4.8850
 4.8060	 4.9240
 4.8100	 4.9340
 4.8150	 4.9470
 4.8190	 4.9800
 4.8240	 4.9740
 4.8280	 5.0020
 4.8330	 4.9370
 4.8370	 4.9580
 4.8420	 4.9170
 4.8460	 4.9130
 4.8510	 4.8820
 4.8550	 4.8760
 4.8600	 4.8930
 4.8640	 4.9320
 4.8690	 4.9270
 4.8730	 5.0060
 4.8780	 4.9510
 4.8830	 4.8910
 4.8870	 4.9050
 4.8920	 4.9420
 4.8960	 4.8880
 4.9010	 4.9140
 4.9060	 4.9210
 4.9100	 4.9580
 4.9150	 4.9810
 4.9200	 4.9660
 4.9240	 4.8950
 4.9290	 4.9380
 4.9340	 4.9300
 4.9380	 4.9750
 4.9430	 4.9550
 4.9480	 4.9040
 4.9530	 4.8750
 4.9570	 4.8990
 4.9620	 4.9020
 4.9670	 4.8900
 4.9720	 4.8600
 4.9760	 4.8880
 4.9810	 4.9070
 4.9860	 4.9520
 4.9910	 4.9280
 4.9960	 4.9450
 5.0000	 4.9260
 5.0050	 4.9480
 5.0100	 4.9450
 5.0150	 5.0100
 5.0200	 4.9800
 5.0250	 4.9940
 5.0290	 4.9950
 5.0340	 5.0030
 5.0390	 5.0010
 5.0440	 5.0390
 5.0490	 4.9660
 5.0540	 4.9460
 5.0590	 4.9180
 5.0640	 4.9500
 5.0690	 4.9440
 5.0740	 4.9760
 5.0790	 4.9810
 5.0840	 4.9760
 5.0890	 4.9300
 5.0940	 4.9850
 5.0990	 4.9620
 5.1040	 4.9380
 5.1090	 4.9710
 5.1140	 5.0430
 5.1190	 5.0380
 5.1240	 5.0390
 5.1290	 4.9960
 5.1340	 5.0180
 5.1390	 4.9980
 5.1440	 5.0150
 5.1490	 5.0150
 5.1540	 5.0500
 5.1600	 5.0000
 5.1650	 5.0460
 5.1700	 4.9990
 5.1750	 5.0000
 5.1800	 5.0230
 5.1850	 5.0840
 5.1910	 5.0300
 5.1960	 5.0340
 5.2010	 4.9840
 5.2060	 5.0120
 5.2110	 4.9980
 5.2170	 5.0200
 5.2220	 4.9710
 5.2270	 4.9540
 5.2320	 4.9430
 5.2380	 4.9810
 5.2430	 4.9300
 5.2480	 4.9640
 5.2540	 4.9720
 5.2590	 4.9670
 5.2640	 4.8990
 5.2700	 4.9470
 5.2750	 4.9770
 5.2800	 5.0340
 5.2860	 4.9840
 5.2910	 4.9810
 5.2970	 4.9460
 5.3020	 4.9850
 5.3070	 4.9630
 5.3130	 4.9680
 5.3180	 4.9150
 5.3240	 4.9060
 5.3290	 4.8970
 5.3350	 4.9390
 5.3400	 4.9280
 5.3460	 5.0170
 5.3510	 4.9740
 5.3570	 4.9590
 5.3620	 4.9520
 5.3680	 5.0180
 5.3730	 4.9270
 5.3790	 4.9800
 5.3850	 4.9670
 5.3900	 4.9450
 5.3960	 4.9150
 5.4010	 4.9500
 5.4070	 4.9110
 5.4130	 4.9060
 5.4180	 4.8920
 5.4240	 4.8950
 5.4300	 4.9170
 5.4350	 4.9630
 5.4410	 4.8900
 5.4470	 4.9130
 5.4530	 4.8620
 5.4580	 4.8560
 5.4640	 4.8150
 5.4700	 4.8710
 5.4760	 4.8700
 5.4810	 4.8870
 5.4870	 4.8440
 5.4930	 4.8440
 5.4990	 4.8080
 5.5050	 4.8240
 5.5110	 4.7000
 5.5160	 4.6950
 5.5220	 4.6780
 5.5280	 4.7220
 5.5340	 4.7490
 5.5400	 4.8070
 5.5460	 4.7960
 5.5520	 4.7900
 5.5580	 4.7290
 5.5640	 4.7250
 5.5700	 4.6040
 5.5760	 4.6060
 5.5820	 4.5920
 5.5880	 4.6350
 5.5940	 4.5810
 5.6000	 4.6170
 5.6060	 4.6160
 5.6120	 4.5990
 5.6180	 4.5260
 5.6240	 4.5210
 5.6300	 4.5110
 5.6360	 4.5090
 5.6420	 4.4460
 5.6490	 4.4710
 5.6550	 4.4280
 5.6610	 4.4020
 5.6670	 4.3090
 5.6730	 4.3100
 5.6800	 4.2760
 5.6860	 4.3040
 5.6920	 4.2740
 5.6980	 4.2990
 5.7040	 4.1840
 5.7110	 4.0720
 5.7170	 3.9710
 5.7230	 3.9470
 5.7300	 3.8810
 5.7360	 3.8870
 5.7420	 3.8200
 5.7490	 4.0060
 5.7550	 4.2050
 5.7620	 4.4870
 5.7680	 4.6710
 5.7740	 4.8930
 5.7810	 4.9790
 5.7870	 5.0190
 5.7940	 4.9310
 5.8000	 4.9040
 5.8070	 4.9180
 5.8130	 4.9870
 5.8200	 4.8410
 5.8260	 4.8020
 5.8330	 4.8020
 5.8390	 4.9020
 5.8460	 4.8680
 5.8530	 4.8960
 5.8590	 4.9410
 5.8660	 4.9940
 5.8720	 4.9910
 5.8790	 5.1010
 5.8860	 5.0380
 5.8920	 5.0250
 5.8990	 5.0510
 5.9060	 5.1400
 5.9130	 5.0840
 5.9190	 5.1330
 5.9260	 5.1540
 5.9330	 5.2000
 5.9400	 5.1150
 5.9470	 5.1790
 5.9530	 5.1500
 5.9600	 5.1370
 5.9670	 5.0420
 5.9740	 5.0380
 5.9810	 5.0160
 5.9880	 5.1240
 5.9950	 5.0940
 6.0020	 5.1580
 6.0090	 5.2210
 6.0160	 5.2040
 6.0230	 5.1300
 6.0300	 5.2410
 6.0370	 5.2040
 6.0440	 5.2030
 6.0510	 5.1650
 6.0580	 5.2370
 6.0650	 5.1650
 6.0720	 5.1670
 6.0790	 5.1750
 6.0860	 5.2260
 6.0930	 5.1470
 6.1000	 5.2210
 6.1080	 5.2570
 6.1150	 5.3600
 6.1220	 5.3260
 6.1290	 5.3270
 6.1370	 5.3080
 6.1440	 5.4890
 6.1510	 5.5370
 6.1580	 5.6600
 6.1660	 5.5820
 6.1730	 5.5700
 6.1800	 5.5830
 6.1880	 5.6070
 6.1950	 5.4930
 6.2030	 5.5380
 6.2100	 5.4750
 6.2170	 5.5310
 6.2250	 5.5530
 6.2320	 5.6390
 6.2400	 5.5710
 6.2470	 5.5820
 6.2550	 5.4630
 6.2630	 5.4030
 6.2700	 5.3270
 6.2780	 5.3440
 6.2850	 5.2780
 6.2930	 5.3060
 6.3010	 5.1560
 6.3080	 5.1430
 6.3160	 5.1230
 6.3240	 5.1840
 6.3310	 5.1340
 6.3390	 5.2120
 6.3470	 5.1490
 6.3550	 5.0900
 6.3620	 5.0530
 6.3700	 5.1300
 6.3780	 5.1180
 6.3860	 5.1970
 6.3940	 5.0680
 6.4020	 5.0760
 6.4100	 5.0860
 6.4180	 5.0920
 6.4260	 4.9960
 6.4330	 5.0480
 6.4410	 5.0090
 6.4490	 5.0350
 6.4580	 4.9950
 6.4660	 5.0490
 6.4740	 4.9740
 6.4820	 5.0580
 6.4900	 5.0530
 6.4980	 5.0610
 6.5060	 4.9470
 6.5140	 4.9650
 6.5230	 4.9170
 6.5310	 5.0000
 6.5390	 4.9620
 6.5470	 4.9270
 6.5550	 4.8380
 6.5640	 4.8750
 6.5720	 4.7570
 6.5800	 4.7130
 6.5890	 4.6520
 6.5970	 4.7400
 6.6060	 4.7960
 6.6140	 4.8410
 6.6220	 4.7310
 6.6310	 4.8040
 6.6390	 4.7730
 6.6480	 4.8000
 6.6560	 4.7640
 6.6650	 4.8100
 6.6740	 4.8140
 6.6820	 4.8740
 6.6910	 4.7640
 6.6990	 4.7910
 6.7080	 4.7060
 6.7170	 4.6910
 6.7260	 4.6010
 6.7340	 4.6580
 6.7430	 4.6610
 6.7520	 4.6020
 6.7610	 4.5320
 6.7690	 4.5620
 6.7780	 4.5700
 6.7870	 4.8650
 6.7960	 4.9720
 6.8050	 4.9370
 6.8140	 4.8340
 6.8230	 4.9120
 6.8320	 4.9710
 6.8410	 5.1750
 6.8500	 5.1840
 6.8590	 5.2260
 6.8680	 5.1130
 6.8770	 5.0540
 6.8860	 4.9410
 6.8950	 4.9770
 6.9050	 4.9390
 6.9140	 4.9760
 6.9230	 4.9240
 6.9320	 4.9920
 6.9420	 4.9330
 6.9510	 5.0420
 6.9600	 5.0030
 6.9700	 5.0460
 6.9790	 4.9180
 6.9880	 4.9480
 6.9980	 4.9240
 7.0070	 5.0050
 7.0170	 4.8240
 7.0260	 4.7840
 7.0360	 4.7740
 7.0450	 4.9260
 7.0550	 4.9150
 7.0650	 5.0070
 7.0740	 4.9350
 7.0840	 4.9820
 7.0940	 4.9630
 7.1030	 5.0510
 7.1130	 4.9640
 7.1230	 5.0670
 7.1330	 5.0510
 7.1420	 5.0480
 7.1520	 4.9150
 7.1620	 4.9640
 7.1720	 4.9610
 7.1820	 4.9500
 7.1920	 4.8680
 7.2020	 4.9640
 7.2120	 4.9260
 7.2220	 5.0090
 7.2320	 4.9710
 7.2420	 4.9540
 7.2520	 4.8430
 7.2620	 4.8890
 7.2730	 4.8170
 7.2830	 4.9070
 7.2930	 4.9080
 7.3030	 4.9530
 7.3140	 4.8370
 7.3240	 4.8410
 7.3340	 4.8040
 7.3450	 4.8910
 7.3550	 4.8040
 7.3660	 4.8430
 7.3760	 4.8150
 7.3870	 4.8660
 7.3970	 4.8580
 7.4080	 4.9790
 7.4180	 4.8190
 7.4290	 4.8810
 7.4400	 4.8410
 7.4500	 4.8470
 7.4610	 4.7630
 7.4720	 4.8710
 7.4830	 4.7780
 7.4930	 4.7650
 7.5040	 4.7710
 7.5150	 4.8490
 7.5260	 4.7950
 7.5370	 4.9360
 7.5480	 4.9150
 7.5590	 4.8370
 7.5700	 4.8140
 7.5810	 5.0580
 7.5920	 5.0610
 7.6030	 5.0970
 7.6140	 4.9680
 7.6260	 4.9550
 7.6370	 4.8700
 7.6480	 4.8830
 7.6590	 4.8160
 7.6710	 4.8790
 7.6820	 4.7610
 7.6930	 4.8110
 7.7050	 4.8300
 7.7160	 4.8910
 7.7280	 4.7490
 7.7390	 4.8150
 7.7510	 4.8090
 7.7630	 4.8300
 7.7740	 4.6860
 7.7860	 4.7730
 7.7980	 4.7430
 7.8090	 4.8130
 7.8210	 4.7260
 7.8330	 4.7600
 7.8450	 4.6400
 7.8570	 4.6720
 7.8690	 4.6960
 7.8810	 4.7790
 7.8930	 4.6880
 7.9050	 4.6910
 7.9170	 4.5330
 7.9290	 4.6730
 7.9410	 4.7450
 7.9530	 4.8970
 7.9650	 4.7920
 7.9780	 4.8380
 7.9900	 4.7990
 8.0020	 4.8970
 8.0150	 4.7390
 8.0270	 4.7710
 8.0390	 4.7550
 8.0520	 4.8100
 8.0640	 4.6700
 8.0770	 4.7850
 8.0900	 4.7190
 8.1020	 4.9190
 8.1150	 4.8890
 8.1280	 4.8650
 8.1400	 4.7990
 8.1530	 5.0820
 8.1660	 5.0270
 8.1790	 5.0060
 8.1920	 4.8350
 8.2050	 4.7990
 8.2180	 4.8070
 8.2310	 5.0530
 8.2440	 4.9590
 8.2570	 5.0450
 8.2700	 4.9150
 8.2830	 4.9090
 8.2970	 4.8360
 8.3100	 5.0310
 8.3230	 4.9050
 8.3370	 4.9520
 8.3500	 4.9090
 8.3640	 5.0500
 8.3770	 4.9920
 8.3910	 5.1050
 8.4040	 5.0390
 8.4180	 5.1940
 8.4320	 5.0590
 8.4450	 5.1270
 8.4590	 5.0480
 8.4730	 5.0980
 8.4870	 4.9540
 8.5010	 5.0680
 8.5150	 5.0170
 8.5290	 5.1410
 8.5430	 5.0700
 8.5570	 5.1850
 8.5710	 5.1670
 8.5850	 5.3100
 8.5990	 5.1820
 8.6140	 5.2120
 8.6280	 5.1390
 8.6420	 5.2720
 8.6570	 5.1470
 8.6710	 5.3340
 8.6860	 5.3600
 8.7000	 5.5050
 8.7150	 5.4240
 8.7300	 5.4620
 8.7440	 5.3480
 8.7590	 5.5230
 8.7740	 5.3540
 8.7890	 5.4230
 8.8040	 5.2940
 8.8190	 5.3820
 8.8340	 5.2020
 8.8490	 5.1810
 8.8640	 5.1500
 8.8790	 5.3960
 8.8940	 5.2500
 8.9100	 5.3060
 8.9250	 5.2070
 8.9400	 5.3880
 8.9560	 5.3360
 8.9710	 5.5250
 8.9870	 5.3780
 9.0020	 5.3540
 9.0180	 5.1770
 9.0340	 5.3150
 9.0500	 5.2470
 9.0650	 5.4480
 9.0810	 5.3580
 9.0970	 5.4580
 9.1130	 5.3720
 9.1290	 5.6090
 9.1450	 5.5630
 9.1610	 5.5250
 9.1780	 5.2610
 9.1940	 5.4440
 9.2100	 5.3350
 9.2270	 5.4120
 9.2430	 5.2740
 9.2600	 5.4070
 9.2760	 5.2770
 9.2930	 5.4900
 9.3090	 5.3300
 9.3260	 5.4840
 9.3430	 5.3960
 9.3600	 5.5320
 9.3770	 5.4950
 9.3940	 5.6920
 9.4110	 5.5040
 9.4280	 5.6140
 9.4450	 5.5110
 9.4620	 5.5860
 9.4800	 5.4980
 9.4970	 5.6060
 9.5140	 5.3640
 9.5320	 5.4070
 9.5500	 5.3250
 9.5670	 5.6090
 9.5850	 5.6180
 9.6030	 5.7140
 9.6200	 5.4670
 9.6380	 5.5620
 9.6560	 5.4760
 9.6740	 5.5300
 9.6920	 5.4370
 9.7100	 5.6580
 9.7290	 5.5160
 9.7470	 5.5550
 9.7650	 5.5340
 9.7840	 5.6900
 9.8020	 5.4170
 9.8210	 5.4690
 9.8390	 5.3280
 9.8580	 5.5050
 9.8770	 5.4100
 9.8960	 5.5360
 9.9150	 5.4570
 9.9340	 5.6210
 9.9530	 5.4270
 9.9720	 5.3650
 9.9910	 5.1920
10.0100	 5.3350
10.0300	 5.2560
10.0490	 5.4410
10.0690	 5.3960
10.0880	 5.5340
10.1080	 5.3440
10.1280	 5.4930
10.1480	 5.3770
10.1670	 5.3940
10.1870	 5.2270
10.2070	 5.3380
10.2280	 5.2080
10.2480	 5.2780
10.2680	 5.1590
10.2890	 5.3610
10.3090	 5.2900
10.3300	 5.3740
10.3500	 5.2170
10.3710	 5.3120
10.3920	 5.1520
10.4120	 5.3270
10.4330	 5.2190
10.4540	 5.3480
10.4760	 5.2200
10.4970	 5.2960
10.5180	 5.1370
10.5390	 5.3420
10.5610	 5.2560
10.5820	 5.3290
10.6040	 5.1650
10.6260	 5.2670
10.6480	 5.1070
10.6700	 5.2780
10.6920	 5.2080
10.7140	 5.3490
10.7360	 5.1860
10.7580	 5.2520
10.7800	 5.1050
10.8030	 5.2880
10.8250	 5.1320
10.8480	 5.2770
10.8710	 5.1330
10.8940	 5.2970
10.9170	 5.1700
10.9400	 5.2520
10.9630	 5.0870
10.9860	 5.3490
11.0090	 5.2230
11.0330	 5.3080
11.0560	 5.1760
11.0800	 5.2420
11.1040	 4.8960
11.1270	 4.9120
11.1510	 4.9120
11.1750	 5.2410
11.2000	 5.0490
11.2240	 5.1240
11.2480	 5.1400
11.2730	 5.2780
11.2970	 4.9300
11.3220	 5.3520
11.3470	 5.1940
11.3720	 5.2250
11.3970	 5.0850
11.4220	 5.2450
11.4470	 4.8400
11.4720	 4.8730
11.4980	 4.9290
11.5230	 5.1970
11.5490	 5.0270
11.5750	 5.1850
11.6000	 5.1060
11.6260	 5.2840
11.6530	 5.0750
11.6790	 5.3000
11.7050	 5.1820
11.7320	 5.3250
11.7580	 5.1150
11.7850	 5.2100
11.8120	 5.0000
11.8390	 5.2320
11.8660	 5.1140
11.8930	 5.2140
11.9200	 4.9550
11.9480	 5.0660
11.9760	 4.9230
12.0030	 5.1630
12.0310	 4.8840
12.0590	 5.1060
12.0870	 5.0930
12.1150	 5.3280
12.1440	 5.1860
12.1720	 5.3670
12.2010	 5.1880
12.2300	 5.4350
12.2590	 5.2600
12.2880	 5.4230
12.3170	 5.0860
12.3460	 5.1280
12.3760	 4.8140
12.4050	 5.1140
12.4350	 4.8460
12.4650	 5.0370
12.4950	 5.0210
12.5250	 5.3080
12.5550	 5.0080
12.5860	 5.2000
12.6170	 4.9910
12.6470	 5.2090
12.6780	 5.0670
12.7090	 5.3220
12.7410	 5.1420
12.7720	 5.2720
12.8030	 4.8250
12.8350	 5.1010
12.8670	 5.0460
12.8990	 5.3130
12.9310	 4.9790
12.9640	 5.1710
12.9960	 4.9310
13.0290	 5.1920
13.0610	 5.0370
13.0940	 5.0710
13.1280	 4.8460
13.1610	 5.0940
13.1940	 4.6970
13.2280	 4.8630
13.2620	 4.6500
13.2960	 4.9210
13.3300	 4.8590
13.3640	 5.0860
13.3990	 4.6160
13.4340	 4.8050
13.4690	 4.6940
13.5040	 5.0330
13.5390	 4.7330
13.5740	 4.9920
13.6100	 4.8020
13.6460	 5.1520
13.6820	 5.0550
13.7180	 5.3180
13.7540	 4.5840
13.7910	 4.9670
13.8280	 5.0740
13.8650	 5.5810
13.9020	 5.5930
13.9390	 5.9060
13.9770	 5.5000
14.0150	 5.7260
14.0530	 5.2870
14.0910	 5.4070
14.1290	 5.0160
14.1680	 5.3290
14.2070	 5.0060
14.2460	 5.4340
14.2850	 5.1490
14.3240	 5.3820
14.3640	 4.9000
14.4040	 5.0620
14.4440	 4.9010
14.4840	 5.4180
14.5250	 4.8290
14.5660	 5.2870
14.6070	 4.8480
14.6480	 5.3100
14.6900	 4.9090
14.7310	 5.1870
14.7730	 4.9600
14.8150	 5.4030
14.8580	 5.0210
14.9010	 5.7160
14.9440	 5.2500
14.9870	 5.5660
15.0300	 4.9090
15.0740	 5.4450
15.1180	 4.5430
15.1620	 4.9940
15.2060	 4.6730
15.2510	 5.6560
15.2960	 5.3470
15.3410	 5.8520
15.3870	 5.0790
