Name: Baccharis pilularis 1
Type: vegetation
Class: Shrub
Genus: Baccharis
Species: pilularis
Sample No.: VH194
Owner: UCSB
Wavelength Range: TIR
Origin: 34.4186; -119.8458; WGS84
Collection Date: 10/13/2013
Description: Samples were collected as part of the HyspIRI Airborne Campaign. 48 individual plants were sampled in three times in 2013 - spring  summer  and fall. The name of the sample includes a 1  2  or 3 which references a different individual of the species. Samples were taken to JPL and processed within 48 hours of collection. The same leaves were processed in the Nicolet and then measured using the ASD.
Measurement: Hemispherical reflectance
First Column: X
Second Column: Y
X Units: Wavelength (micrometers)
Y Units: Reflectance (percentage)
First X Value: 2.501
Last X Value: 15.387
Number of X Values: 1737
Additional Information: vegetation.shrub.baccharis.pilularis.tir.vh194.ucsb.nicolet.ancillary.txt

 2.5010	 9.2100
 2.5030	 9.1270
 2.5040	 9.1180
 2.5050	 9.1470
 2.5060	 9.1240
 2.5070	 8.7770
 2.5090	 8.6200
 2.5100	 8.8950
 2.5110	 9.0250
 2.5120	 9.0170
 2.5140	 9.1590
 2.5150	 9.0580
 2.5160	 9.2210
 2.5170	 9.3600
 2.5180	 9.2050
 2.5200	 8.9550
 2.5210	 8.9080
 2.5220	 8.8820
 2.5230	 9.0040
 2.5250	 8.9730
 2.5260	 9.0950
 2.5270	 9.1400
 2.5280	 9.0070
 2.5290	 8.7760
 2.5310	 8.6530
 2.5320	 8.7430
 2.5330	 9.0070
 2.5340	 9.0420
 2.5360	 8.9870
 2.5370	 9.0580
 2.5380	 9.1570
 2.5390	 9.0760
 2.5410	 9.0960
 2.5420	 9.1190
 2.5430	 9.1440
 2.5440	 9.2200
 2.5460	 9.2580
 2.5470	 9.0590
 2.5480	 9.0700
 2.5490	 9.1570
 2.5510	 9.1980
 2.5520	 9.0660
 2.5530	 9.1150
 2.5540	 9.0770
 2.5560	 9.1450
 2.5570	 9.0720
 2.5580	 8.8430
 2.5590	 8.8190
 2.5610	 9.1080
 2.5620	 9.1880
 2.5630	 9.1100
 2.5640	 9.0250
 2.5660	 9.2250
 2.5670	 9.1970
 2.5680	 9.0420
 2.5700	 8.8820
 2.5710	 8.9740
 2.5720	 9.1170
 2.5730	 9.1650
 2.5750	 9.0890
 2.5760	 9.0430
 2.5770	 8.8620
 2.5790	 8.8830
 2.5800	 9.0350
 2.5810	 8.9680
 2.5820	 8.9060
 2.5840	 8.9420
 2.5850	 8.9180
 2.5860	 9.0280
 2.5880	 8.8770
 2.5890	 8.8230
 2.5900	 8.8220
 2.5910	 9.0220
 2.5930	 9.0080
 2.5940	 8.9360
 2.5950	 8.8230
 2.5970	 8.9660
 2.5980	 8.9140
 2.5990	 8.7650
 2.6000	 8.7990
 2.6020	 8.6930
 2.6030	 8.6820
 2.6040	 8.8870
 2.6060	 8.9850
 2.6070	 8.8710
 2.6080	 8.6090
 2.6100	 8.6190
 2.6110	 8.7820
 2.6120	 8.8490
 2.6140	 8.8640
 2.6150	 8.7460
 2.6160	 8.4050
 2.6180	 8.3020
 2.6190	 8.4080
 2.6200	 8.6270
 2.6220	 8.6530
 2.6230	 8.5770
 2.6240	 8.4850
 2.6260	 8.5310
 2.6270	 8.3160
 2.6280	 8.1020
 2.6300	 7.9700
 2.6310	 7.8000
 2.6320	 7.8290
 2.6340	 8.2090
 2.6350	 8.3400
 2.6360	 8.2990
 2.6380	 8.1280
 2.6390	 8.1020
 2.6400	 8.1690
 2.6420	 8.1740
 2.6430	 8.1180
 2.6440	 8.2460
 2.6460	 8.1570
 2.6470	 8.1830
 2.6480	 8.1570
 2.6500	 8.1290
 2.6510	 7.9330
 2.6520	 7.9600
 2.6540	 7.9890
 2.6550	 8.1020
 2.6560	 8.1450
 2.6580	 8.0790
 2.6590	 7.7490
 2.6610	 7.7890
 2.6620	 8.0520
 2.6630	 8.0640
 2.6650	 7.8870
 2.6660	 7.6690
 2.6670	 7.5360
 2.6690	 7.6440
 2.6700	 7.6260
 2.6720	 7.4690
 2.6730	 7.5840
 2.6740	 7.6760
 2.6760	 7.5210
 2.6770	 7.5440
 2.6780	 7.4360
 2.6800	 7.3220
 2.6810	 7.3990
 2.6830	 7.5470
 2.6840	 7.4220
 2.6850	 7.3900
 2.6870	 7.3850
 2.6880	 7.4110
 2.6900	 7.3270
 2.6910	 7.2770
 2.6920	 7.2680
 2.6940	 7.0890
 2.6950	 6.7980
 2.6970	 6.7910
 2.6980	 6.8980
 2.6990	 6.9900
 2.7010	 7.2590
 2.7020	 7.3430
 2.7040	 7.1800
 2.7050	 7.0940
 2.7060	 6.9470
 2.7080	 6.9560
 2.7090	 6.8280
 2.7110	 6.8300
 2.7120	 6.8110
 2.7130	 6.9760
 2.7150	 7.0140
 2.7160	 6.9620
 2.7180	 6.8180
 2.7190	 6.7550
 2.7210	 6.6270
 2.7220	 6.7450
 2.7230	 6.7660
 2.7250	 6.6290
 2.7260	 6.6160
 2.7280	 6.6360
 2.7290	 6.3790
 2.7310	 6.2120
 2.7320	 6.1240
 2.7330	 6.5280
 2.7350	 6.8360
 2.7360	 6.7370
 2.7380	 6.5910
 2.7390	 6.7540
 2.7410	 6.6600
 2.7420	 6.4720
 2.7440	 6.5090
 2.7450	 6.4860
 2.7470	 6.5260
 2.7480	 7.1040
 2.7490	 7.4180
 2.7510	 7.1540
 2.7520	 6.7410
 2.7540	 6.7480
 2.7550	 6.5980
 2.7570	 6.7200
 2.7580	 6.9040
 2.7600	 6.4150
 2.7610	 5.9960
 2.7630	 6.1780
 2.7640	 6.5090
 2.7660	 6.1580
 2.7670	 5.9870
 2.7680	 6.2670
 2.7700	 6.1350
 2.7710	 6.0860
 2.7730	 5.8670
 2.7740	 5.4760
 2.7760	 5.6560
 2.7770	 6.4010
 2.7790	 6.4430
 2.7800	 6.4540
 2.7820	 6.6630
 2.7830	 6.3700
 2.7850	 6.1160
 2.7860	 6.1110
 2.7880	 6.2500
 2.7890	 6.1980
 2.7910	 6.1030
 2.7920	 6.3200
 2.7940	 6.1150
 2.7950	 5.9720
 2.7970	 5.8560
 2.7980	 5.8920
 2.8000	 6.2080
 2.8010	 6.3690
 2.8030	 6.2010
 2.8040	 6.2230
 2.8060	 6.1170
 2.8070	 6.2400
 2.8090	 6.2690
 2.8110	 6.3980
 2.8120	 6.4470
 2.8140	 6.2790
 2.8150	 5.8660
 2.8170	 5.8190
 2.8180	 5.7730
 2.8200	 5.7670
 2.8210	 5.8190
 2.8230	 5.8720
 2.8240	 5.9470
 2.8260	 6.1700
 2.8270	 6.3500
 2.8290	 6.4710
 2.8300	 6.3580
 2.8320	 6.3280
 2.8340	 6.1960
 2.8350	 6.1810
 2.8370	 5.9930
 2.8380	 6.1400
 2.8400	 6.2620
 2.8410	 6.3400
 2.8430	 6.1770
 2.8440	 6.1400
 2.8460	 5.9010
 2.8480	 5.9290
 2.8490	 5.8830
 2.8510	 5.8850
 2.8520	 5.9390
 2.8540	 6.0570
 2.8550	 6.1280
 2.8570	 6.0910
 2.8590	 5.9880
 2.8600	 6.1710
 2.8620	 6.1110
 2.8630	 6.1300
 2.8650	 6.0580
 2.8660	 6.0430
 2.8680	 5.9900
 2.8700	 6.1770
 2.8710	 6.2800
 2.8730	 6.3940
 2.8740	 6.3580
 2.8760	 6.0300
 2.8780	 6.1500
 2.8790	 6.5390
 2.8810	 6.2440
 2.8820	 6.1780
 2.8840	 6.1870
 2.8860	 5.9930
 2.8870	 5.9730
 2.8890	 6.0930
 2.8900	 6.0020
 2.8920	 6.1370
 2.8940	 6.2150
 2.8950	 6.2640
 2.8970	 5.9220
 2.8980	 5.9090
 2.9000	 6.1670
 2.9020	 6.3320
 2.9030	 5.8340
 2.9050	 5.7310
 2.9070	 5.5010
 2.9080	 5.2620
 2.9100	 5.6520
 2.9120	 5.8920
 2.9130	 5.8050
 2.9150	 6.0660
 2.9160	 6.0000
 2.9180	 5.7750
 2.9200	 5.6450
 2.9210	 5.9010
 2.9230	 5.9040
 2.9250	 6.0100
 2.9260	 6.1480
 2.9280	 6.2990
 2.9300	 6.1920
 2.9310	 6.1200
 2.9330	 5.9650
 2.9350	 6.0310
 2.9360	 6.2510
 2.9380	 6.3650
 2.9400	 6.0710
 2.9410	 5.7680
 2.9430	 5.7630
 2.9450	 5.6820
 2.9460	 5.8760
 2.9480	 6.3170
 2.9500	 6.4180
 2.9510	 6.1220
 2.9530	 5.4720
 2.9550	 5.8730
 2.9560	 6.4330
 2.9580	 7.0390
 2.9600	 6.5700
 2.9610	 5.8630
 2.9630	 5.4160
 2.9650	 6.2020
 2.9660	 6.7220
 2.9680	 7.2810
 2.9700	 6.1420
 2.9720	 2.7260
 2.9730	 0.8230
 2.9750	 3.6240
 2.9770	 6.0030
 2.9780	 7.6050
 2.9800	 6.9370
 2.9820	 6.3430
 2.9840	 5.6090
 2.9850	 4.5870
 2.9870	 3.3310
 2.9890	 3.9790
 2.9900	 6.4750
 2.9920	 6.3300
 2.9940	 7.2030
 2.9960	10.3960
 2.9970	 9.3040
 2.9990	 6.5560
 3.0010	 5.0180
 3.0030	 6.4470
 3.0040	 7.6260
 3.0060	 4.7170
 3.0080	 2.3170
 3.0100	 4.0550
 3.0110	 4.9180
 3.0130	 5.5740
 3.0150	 6.6050
 3.0170	 6.2170
 3.0180	 5.4390
 3.0200	 5.1740
 3.0220	 4.9730
 3.0240	 5.7430
 3.0250	 5.7610
 3.0270	 5.9100
 3.0290	 5.6890
 3.0310	 4.9570
 3.0320	 5.2130
 3.0340	 5.5930
 3.0360	 5.9890
 3.0380	 6.7270
 3.0400	 5.2140
 3.0410	 4.9310
 3.0430	 4.2390
 3.0450	 3.1880
 3.0470	 3.0940
 3.0480	 5.5080
 3.0500	 6.3750
 3.0520	 6.4300
 3.0540	 5.1990
 3.0560	 3.5890
 3.0570	 5.6280
 3.0590	 7.0980
 3.0610	 6.9850
 3.0630	 6.2710
 3.0650	 5.2470
 3.0660	 5.9500
 3.0680	 6.3870
 3.0700	 5.8320
 3.0720	 5.5400
 3.0740	 7.0550
 3.0760	 6.8460
 3.0770	 5.6920
 3.0790	 5.6610
 3.0810	 5.9240
 3.0830	 5.7290
 3.0850	 5.6840
 3.0870	 5.6490
 3.0880	 5.6400
 3.0900	 5.3360
 3.0920	 5.4510
 3.0940	 5.6010
 3.0960	 5.8460
 3.0980	 6.0200
 3.0990	 5.6700
 3.1010	 5.5840
 3.1030	 5.7010
 3.1050	 5.5610
 3.1070	 5.6650
 3.1090	 5.6260
 3.1110	 5.5200
 3.1120	 5.9840
 3.1140	 6.0660
 3.1160	 5.6650
 3.1180	 5.9750
 3.1200	 6.0420
 3.1220	 5.6100
 3.1240	 5.2590
 3.1260	 5.1320
 3.1270	 5.2160
 3.1290	 5.8890
 3.1310	 6.0000
 3.1330	 5.9110
 3.1350	 6.5190
 3.1370	 6.6520
 3.1390	 5.6940
 3.1410	 6.4000
 3.1430	 7.3720
 3.1450	 6.4410
 3.1460	 5.4740
 3.1480	 3.9950
 3.1500	 3.5210
 3.1520	 4.9320
 3.1540	 3.9580
 3.1560	 4.4270
 3.1580	 5.9490
 3.1600	 6.8990
 3.1620	 6.4250
 3.1640	 5.3780
 3.1660	 5.3870
 3.1680	 5.3920
 3.1700	 6.8880
 3.1710	 9.9220
 3.1730	 9.8190
 3.1750	 6.2160
 3.1770	 4.2230
 3.1790	 4.8570
 3.1810	 5.6090
 3.1830	 6.1810
 3.1850	 6.0820
 3.1870	 6.2720
 3.1890	 5.9640
 3.1910	 5.7720
 3.1930	 5.7080
 3.1950	 5.8150
 3.1970	 6.0680
 3.1990	 6.6990
 3.2010	 6.1690
 3.2030	 5.2360
 3.2050	 5.6120
 3.2070	 5.9810
 3.2090	 6.0370
 3.2110	 6.0110
 3.2130	 5.9000
 3.2150	 5.8360
 3.2170	 5.6360
 3.2190	 5.5100
 3.2210	 5.5690
 3.2230	 5.8300
 3.2250	 5.7200
 3.2270	 5.4950
 3.2290	 5.6080
 3.2310	 5.6650
 3.2330	 5.8250
 3.2350	 5.9430
 3.2370	 6.0410
 3.2390	 6.0410
 3.2410	 5.8710
 3.2430	 5.9290
 3.2450	 5.8860
 3.2470	 5.7640
 3.2490	 5.6100
 3.2510	 5.4360
 3.2530	 5.8390
 3.2550	 6.5740
 3.2570	 6.4240
 3.2590	 5.7620
 3.2610	 5.9180
 3.2630	 6.1480
 3.2650	 6.1210
 3.2670	 6.0930
 3.2690	 6.0500
 3.2720	 5.8610
 3.2740	 5.9080
 3.2760	 6.0190
 3.2780	 5.9130
 3.2800	 5.5720
 3.2820	 5.8070
 3.2840	 5.9380
 3.2860	 5.7340
 3.2880	 5.4800
 3.2900	 5.5130
 3.2920	 5.8830
 3.2940	 5.9460
 3.2960	 5.8230
 3.2990	 5.6060
 3.3010	 5.6690
 3.3030	 5.8260
 3.3050	 5.9110
 3.3070	 5.8250
 3.3090	 5.5220
 3.3110	 5.4530
 3.3130	 6.2300
 3.3150	 6.2140
 3.3180	 5.8660
 3.3200	 5.6390
 3.3220	 5.7030
 3.3240	 5.7880
 3.3260	 5.4140
 3.3280	 5.3170
 3.3300	 5.3790
 3.3330	 5.3730
 3.3350	 5.4900
 3.3370	 5.6340
 3.3390	 5.6510
 3.3410	 5.6720
 3.3430	 5.6940
 3.3450	 5.4810
 3.3480	 5.3120
 3.3500	 5.4920
 3.3520	 5.6750
 3.3540	 5.5510
 3.3560	 5.4540
 3.3580	 5.5400
 3.3610	 5.6670
 3.3630	 5.4750
 3.3650	 5.4090
 3.3670	 5.4170
 3.3690	 5.4440
 3.3720	 5.4270
 3.3740	 5.5270
 3.3760	 5.5130
 3.3780	 5.4500
 3.3800	 5.4420
 3.3830	 5.4830
 3.3850	 5.4050
 3.3870	 5.4110
 3.3890	 5.4650
 3.3910	 5.5570
 3.3940	 5.5030
 3.3960	 5.5050
 3.3980	 5.7460
 3.4000	 5.7410
 3.4020	 5.6310
 3.4050	 5.7610
 3.4070	 5.6550
 3.4090	 5.6400
 3.4110	 5.7240
 3.4140	 5.8270
 3.4160	 5.9340
 3.4180	 5.9540
 3.4200	 6.0510
 3.4230	 6.3630
 3.4250	 6.6670
 3.4270	 6.7680
 3.4290	 7.0370
 3.4320	 7.2550
 3.4340	 6.9240
 3.4360	 6.6540
 3.4390	 6.7210
 3.4410	 6.4000
 3.4430	 6.0070
 3.4450	 5.9690
 3.4480	 5.9500
 3.4500	 5.7130
 3.4520	 6.0110
 3.4550	 6.4980
 3.4570	 6.3820
 3.4590	 6.2820
 3.4620	 6.1060
 3.4640	 6.1070
 3.4660	 6.2800
 3.4680	 6.4440
 3.4710	 6.3760
 3.4730	 6.3270
 3.4750	 6.3620
 3.4780	 6.3500
 3.4800	 6.0730
 3.4820	 6.0330
 3.4850	 6.1060
 3.4870	 6.1760
 3.4890	 6.1470
 3.4920	 6.2200
 3.4940	 6.1360
 3.4970	 6.0690
 3.4990	 6.0860
 3.5010	 6.1290
 3.5040	 6.3630
 3.5060	 6.7200
 3.5080	 6.7800
 3.5110	 6.8280
 3.5130	 6.9740
 3.5160	 6.8730
 3.5180	 6.6350
 3.5200	 6.6360
 3.5230	 6.7490
 3.5250	 6.7620
 3.5270	 6.5770
 3.5300	 6.5070
 3.5320	 6.5110
 3.5350	 6.4800
 3.5370	 6.3460
 3.5400	 6.3870
 3.5420	 6.4880
 3.5440	 6.5850
 3.5470	 6.4120
 3.5490	 6.3680
 3.5520	 6.5760
 3.5540	 6.5590
 3.5570	 6.5080
 3.5590	 6.6410
 3.5610	 6.6110
 3.5640	 6.4960
 3.5660	 6.4700
 3.5690	 6.3690
 3.5710	 6.3920
 3.5740	 6.4240
 3.5760	 6.5140
 3.5790	 6.6330
 3.5810	 6.4240
 3.5840	 6.4730
 3.5860	 6.5650
 3.5890	 6.4830
 3.5910	 6.5760
 3.5930	 6.5450
 3.5960	 6.3250
 3.5980	 6.2540
 3.6010	 6.3030
 3.6030	 6.5610
 3.6060	 6.7470
 3.6080	 6.5830
 3.6110	 6.3750
 3.6140	 6.4470
 3.6160	 6.4350
 3.6190	 6.5190
 3.6210	 6.6120
 3.6240	 6.7130
 3.6260	 6.5410
 3.6290	 6.4330
 3.6310	 6.4610
 3.6340	 6.6500
 3.6360	 6.7260
 3.6390	 6.5490
 3.6410	 6.3350
 3.6440	 6.4600
 3.6470	 6.5410
 3.6490	 6.6080
 3.6520	 6.5730
 3.6540	 6.6010
 3.6570	 6.5850
 3.6590	 6.6470
 3.6620	 6.6880
 3.6650	 6.7440
 3.6670	 6.8710
 3.6700	 6.9290
 3.6720	 6.7990
 3.6750	 6.6830
 3.6780	 6.5720
 3.6800	 6.5730
 3.6830	 6.6110
 3.6850	 6.7000
 3.6880	 6.6860
 3.6910	 6.7140
 3.6930	 6.6720
 3.6960	 6.6370
 3.6990	 6.6380
 3.7010	 6.6670
 3.7040	 6.6750
 3.7060	 6.8030
 3.7090	 6.7500
 3.7120	 6.6790
 3.7140	 6.6700
 3.7170	 6.7080
 3.7200	 6.6380
 3.7220	 6.5420
 3.7250	 6.5010
 3.7280	 6.5640
 3.7300	 6.6290
 3.7330	 6.6740
 3.7360	 6.7480
 3.7390	 6.9290
 3.7410	 6.9730
 3.7440	 6.7560
 3.7470	 6.6390
 3.7490	 6.7690
 3.7520	 6.6980
 3.7550	 6.7040
 3.7580	 6.6910
 3.7600	 6.5910
 3.7630	 6.6160
 3.7660	 6.8270
 3.7680	 6.9900
 3.7710	 6.9840
 3.7740	 6.7910
 3.7770	 6.7780
 3.7790	 6.8520
 3.7820	 6.7880
 3.7850	 6.7250
 3.7880	 6.7390
 3.7900	 6.8840
 3.7930	 6.9760
 3.7960	 6.9840
 3.7990	 6.8920
 3.8020	 6.7190
 3.8040	 6.8270
 3.8070	 7.0290
 3.8100	 7.0130
 3.8130	 6.9550
 3.8160	 6.9140
 3.8180	 6.9170
 3.8210	 7.0550
 3.8240	 6.9790
 3.8270	 6.9010
 3.8300	 6.9300
 3.8330	 6.8790
 3.8350	 6.8670
 3.8380	 6.9420
 3.8410	 6.8530
 3.8440	 6.8600
 3.8470	 6.9300
 3.8500	 7.0680
 3.8520	 7.0570
 3.8550	 6.8980
 3.8580	 6.8600
 3.8610	 6.9630
 3.8640	 6.9560
 3.8670	 6.8710
 3.8700	 6.8600
 3.8730	 6.9750
 3.8750	 6.9840
 3.8780	 6.9180
 3.8810	 6.8480
 3.8840	 6.9890
 3.8870	 7.1590
 3.8900	 7.0120
 3.8930	 6.7780
 3.8960	 6.7660
 3.8990	 6.9390
 3.9020	 7.0520
 3.9050	 7.0290
 3.9080	 7.1000
 3.9110	 7.1080
 3.9140	 6.9590
 3.9160	 7.0170
 3.9190	 6.9900
 3.9220	 6.8700
 3.9250	 6.9150
 3.9280	 7.0400
 3.9310	 7.0890
 3.9340	 7.0500
 3.9370	 7.0650
 3.9400	 7.0770
 3.9430	 7.0420
 3.9460	 6.9690
 3.9490	 6.9680
 3.9520	 7.0240
 3.9550	 7.0390
 3.9580	 7.0310
 3.9610	 6.9590
 3.9640	 6.8930
 3.9670	 7.0150
 3.9700	 6.9960
 3.9730	 6.9830
 3.9770	 7.0770
 3.9800	 7.0860
 3.9830	 6.9820
 3.9860	 6.8820
 3.9890	 6.9070
 3.9920	 7.0730
 3.9950	 7.0620
 3.9980	 6.9500
 4.0010	 6.9790
 4.0040	 7.0370
 4.0070	 6.9950
 4.0100	 7.0420
 4.0130	 7.0640
 4.0170	 7.0310
 4.0200	 7.0600
 4.0230	 7.1060
 4.0260	 7.0610
 4.0290	 6.9570
 4.0320	 6.8490
 4.0350	 6.8630
 4.0380	 6.9720
 4.0420	 7.0640
 4.0450	 7.0910
 4.0480	 7.0590
 4.0510	 6.9510
 4.0540	 6.9420
 4.0570	 6.9560
 4.0610	 6.8260
 4.0640	 6.9040
 4.0670	 6.9720
 4.0700	 6.9410
 4.0730	 6.9780
 4.0770	 6.9710
 4.0800	 6.9970
 4.0830	 7.0220
 4.0860	 7.0560
 4.0890	 6.9020
 4.0930	 6.8480
 4.0960	 7.0260
 4.0990	 7.0140
 4.1020	 6.9430
 4.1060	 6.9370
 4.1090	 6.7500
 4.1120	 6.7350
 4.1150	 6.8840
 4.1190	 6.9890
 4.1220	 7.0030
 4.1250	 6.8790
 4.1280	 6.8430
 4.1320	 6.8480
 4.1350	 6.8760
 4.1380	 6.9150
 4.1420	 6.9030
 4.1450	 6.8850
 4.1480	 6.9570
 4.1520	 6.9030
 4.1550	 6.8590
 4.1580	 6.8880
 4.1620	 6.8590
 4.1650	 6.8640
 4.1680	 6.8970
 4.1720	 6.8320
 4.1750	 6.7790
 4.1780	 6.8650
 4.1820	 6.9460
 4.1850	 6.8320
 4.1890	 6.6750
 4.1920	 6.8130
 4.1950	 6.8140
 4.1990	 6.7290
 4.2020	 6.6780
 4.2060	 6.5930
 4.2090	 6.6040
 4.2120	 6.7390
 4.2160	 6.6670
 4.2190	 6.2420
 4.2230	 6.1320
 4.2260	 5.9590
 4.2300	 5.6880
 4.2330	 5.7180
 4.2360	 5.8650
 4.2400	 5.8410
 4.2430	 6.0720
 4.2470	 5.9060
 4.2500	 5.6780
 4.2540	 5.9560
 4.2570	 6.2430
 4.2610	 6.2410
 4.2640	 6.2730
 4.2680	 6.2690
 4.2710	 6.1490
 4.2750	 6.0740
 4.2780	 6.4870
 4.2820	 6.6230
 4.2850	 6.2800
 4.2890	 6.1820
 4.2930	 6.0440
 4.2960	 6.1710
 4.3000	 6.2760
 4.3030	 6.3790
 4.3070	 6.3490
 4.3100	 6.4290
 4.3140	 6.4850
 4.3180	 6.4890
 4.3210	 6.5340
 4.3250	 6.4280
 4.3280	 6.4700
 4.3320	 6.4850
 4.3360	 6.5310
 4.3390	 6.4820
 4.3430	 6.4640
 4.3470	 6.6190
 4.3500	 6.6430
 4.3540	 6.5260
 4.3570	 6.4730
 4.3610	 6.5760
 4.3650	 6.5840
 4.3680	 6.4550
 4.3720	 6.4520
 4.3760	 6.5630
 4.3800	 6.6300
 4.3830	 6.6500
 4.3870	 6.6330
 4.3910	 6.5860
 4.3940	 6.5980
 4.3980	 6.5320
 4.4020	 6.5540
 4.4060	 6.5760
 4.4090	 6.4960
 4.4130	 6.5320
 4.4170	 6.5510
 4.4210	 6.4780
 4.4240	 6.5740
 4.4280	 6.5880
 4.4320	 6.5360
 4.4360	 6.5560
 4.4400	 6.5870
 4.4430	 6.5390
 4.4470	 6.5040
 4.4510	 6.4980
 4.4550	 6.4950
 4.4590	 6.4850
 4.4620	 6.4180
 4.4660	 6.3850
 4.4700	 6.4380
 4.4740	 6.4720
 4.4780	 6.4590
 4.4820	 6.4680
 4.4860	 6.5550
 4.4900	 6.5080
 4.4930	 6.5350
 4.4970	 6.5550
 4.5010	 6.5070
 4.5050	 6.4360
 4.5090	 6.4310
 4.5130	 6.4810
 4.5170	 6.5270
 4.5210	 6.5620
 4.5250	 6.4650
 4.5290	 6.3270
 4.5330	 6.2920
 4.5370	 6.2970
 4.5410	 6.2300
 4.5450	 6.2260
 4.5490	 6.3330
 4.5530	 6.4130
 4.5570	 6.4610
 4.5610	 6.4420
 4.5650	 6.3640
 4.5690	 6.3500
 4.5730	 6.2880
 4.5770	 6.3210
 4.5810	 6.3800
 4.5850	 6.4220
 4.5890	 6.4160
 4.5930	 6.3210
 4.5970	 6.3350
 4.6010	 6.3540
 4.6050	 6.2180
 4.6090	 6.0460
 4.6130	 6.1560
 4.6170	 6.3840
 4.6220	 6.4990
 4.6260	 6.3600
 4.6300	 6.3100
 4.6340	 6.4290
 4.6380	 6.4700
 4.6420	 6.4030
 4.6460	 6.2580
 4.6510	 6.1390
 4.6550	 6.2770
 4.6590	 6.3580
 4.6630	 6.3380
 4.6670	 6.3080
 4.6720	 6.2960
 4.6760	 6.3020
 4.6800	 6.3130
 4.6840	 6.1740
 4.6880	 6.2340
 4.6930	 6.3200
 4.6970	 6.3010
 4.7010	 6.2600
 4.7050	 6.2980
 4.7100	 6.2910
 4.7140	 6.2560
 4.7180	 6.3210
 4.7230	 6.2900
 4.7270	 6.2360
 4.7310	 6.2750
 4.7360	 6.2480
 4.7400	 6.3230
 4.7440	 6.3570
 4.7490	 6.3000
 4.7530	 6.3060
 4.7570	 6.3250
 4.7620	 6.2780
 4.7660	 6.2080
 4.7700	 6.1960
 4.7750	 6.2950
 4.7790	 6.1710
 4.7840	 6.0250
 4.7880	 6.1620
 4.7920	 6.2410
 4.7970	 6.0810
 4.8010	 6.2110
 4.8060	 6.2940
 4.8100	 6.2930
 4.8150	 6.3880
 4.8190	 6.4330
 4.8240	 6.3420
 4.8280	 6.2270
 4.8330	 6.1680
 4.8370	 6.2090
 4.8420	 6.2500
 4.8460	 6.3790
 4.8510	 6.3930
 4.8550	 6.3610
 4.8600	 6.3420
 4.8640	 6.3050
 4.8690	 6.3070
 4.8730	 6.3060
 4.8780	 6.3000
 4.8830	 6.2990
 4.8870	 6.2540
 4.8920	 6.1840
 4.8960	 6.1710
 4.9010	 6.3120
 4.9060	 6.4080
 4.9100	 6.3430
 4.9150	 6.3230
 4.9200	 6.3570
 4.9240	 6.2920
 4.9290	 6.2620
 4.9340	 6.2690
 4.9380	 6.2580
 4.9430	 6.2720
 4.9480	 6.3490
 4.9530	 6.3130
 4.9570	 6.3360
 4.9620	 6.3210
 4.9670	 6.2390
 4.9720	 6.2100
 4.9760	 6.2690
 4.9810	 6.3290
 4.9860	 6.2600
 4.9910	 6.1690
 4.9960	 6.2630
 5.0000	 6.2640
 5.0050	 6.2880
 5.0100	 6.3540
 5.0150	 6.3170
 5.0200	 6.3910
 5.0250	 6.4650
 5.0290	 6.2890
 5.0340	 6.2330
 5.0390	 6.2210
 5.0440	 6.3840
 5.0490	 6.3980
 5.0540	 6.2930
 5.0590	 6.2890
 5.0640	 6.3300
 5.0690	 6.3210
 5.0740	 6.3210
 5.0790	 6.3460
 5.0840	 6.3890
 5.0890	 6.3470
 5.0940	 6.3280
 5.0990	 6.3890
 5.1040	 6.4300
 5.1090	 6.4070
 5.1140	 6.3660
 5.1190	 6.2780
 5.1240	 6.3270
 5.1290	 6.3040
 5.1340	 6.3100
 5.1390	 6.3180
 5.1440	 6.2930
 5.1490	 6.3350
 5.1540	 6.3860
 5.1600	 6.4120
 5.1650	 6.3980
 5.1700	 6.3590
 5.1750	 6.4290
 5.1800	 6.4120
 5.1850	 6.3710
 5.1910	 6.3270
 5.1960	 6.4130
 5.2010	 6.3580
 5.2060	 6.3450
 5.2110	 6.3910
 5.2170	 6.3940
 5.2220	 6.3810
 5.2270	 6.3730
 5.2320	 6.3410
 5.2380	 6.4090
 5.2430	 6.3650
 5.2480	 6.4100
 5.2540	 6.5060
 5.2590	 6.4350
 5.2640	 6.2670
 5.2700	 6.2200
 5.2750	 6.2120
 5.2800	 6.2500
 5.2860	 6.2510
 5.2910	 6.2560
 5.2970	 6.1880
 5.3020	 6.2520
 5.3070	 6.3130
 5.3130	 6.3140
 5.3180	 6.3060
 5.3240	 6.3110
 5.3290	 6.2750
 5.3350	 6.2790
 5.3400	 6.2730
 5.3460	 6.3040
 5.3510	 6.2850
 5.3570	 6.3110
 5.3620	 6.2790
 5.3680	 6.2440
 5.3730	 6.1390
 5.3790	 6.1750
 5.3850	 6.2450
 5.3900	 6.3270
 5.3960	 6.2560
 5.4010	 6.1830
 5.4070	 6.1220
 5.4130	 6.1690
 5.4180	 6.2030
 5.4240	 6.2630
 5.4300	 6.1910
 5.4350	 6.1090
 5.4410	 5.9550
 5.4470	 5.9680
 5.4530	 6.0560
 5.4580	 6.0970
 5.4640	 6.0520
 5.4700	 6.0910
 5.4760	 6.0860
 5.4810	 6.0990
 5.4870	 6.0370
 5.4930	 6.0560
 5.4990	 5.9510
 5.5050	 5.9620
 5.5110	 5.9420
 5.5160	 5.9110
 5.5220	 5.9110
 5.5280	 5.8930
 5.5340	 5.8130
 5.5400	 5.8500
 5.5460	 5.7800
 5.5520	 5.7720
 5.5580	 5.7600
 5.5640	 5.7790
 5.5700	 5.6880
 5.5760	 5.6780
 5.5820	 5.6510
 5.5880	 5.6660
 5.5940	 5.5970
 5.6000	 5.6000
 5.6060	 5.5730
 5.6120	 5.4860
 5.6180	 5.3270
 5.6240	 5.4150
 5.6300	 5.4340
 5.6360	 5.4100
 5.6420	 5.4020
 5.6490	 5.4500
 5.6550	 5.3900
 5.6610	 5.3490
 5.6670	 5.3420
 5.6730	 5.3800
 5.6800	 5.3190
 5.6860	 5.2810
 5.6920	 5.2440
 5.6980	 5.2940
 5.7040	 5.1900
 5.7110	 5.1880
 5.7170	 5.1610
 5.7230	 5.1000
 5.7300	 5.0600
 5.7360	 5.0730
 5.7420	 4.9930
 5.7490	 4.9110
 5.7550	 4.9150
 5.7620	 5.0680
 5.7680	 5.1410
 5.7740	 5.2660
 5.7810	 5.3550
 5.7870	 5.4740
 5.7940	 5.5490
 5.8000	 5.6340
 5.8070	 5.5940
 5.8130	 5.6110
 5.8200	 5.5830
 5.8260	 5.5390
 5.8330	 5.5920
 5.8390	 5.8120
 5.8460	 5.8490
 5.8530	 5.7970
 5.8590	 5.7570
 5.8660	 5.8030
 5.8720	 5.7180
 5.8790	 5.7720
 5.8860	 5.7320
 5.8920	 5.8190
 5.8990	 5.8340
 5.9060	 5.9210
 5.9130	 5.9070
 5.9190	 5.9360
 5.9260	 5.9610
 5.9330	 6.0270
 5.9400	 6.0250
 5.9470	 6.1140
 5.9530	 6.0890
 5.9600	 6.0340
 5.9670	 5.8940
 5.9740	 5.9370
 5.9810	 5.9460
 5.9880	 5.9080
 5.9950	 5.8950
 6.0020	 6.0040
 6.0090	 5.9060
 6.0160	 5.8400
 6.0230	 5.8410
 6.0300	 5.8780
 6.0370	 5.8650
 6.0440	 5.8990
 6.0510	 5.8360
 6.0580	 5.8930
 6.0650	 5.9740
 6.0720	 6.0120
 6.0790	 5.8860
 6.0860	 5.8140
 6.0930	 5.7920
 6.1000	 5.8680
 6.1080	 5.8420
 6.1150	 5.9420
 6.1220	 5.9370
 6.1290	 5.9620
 6.1370	 5.9390
 6.1440	 5.9420
 6.1510	 5.8540
 6.1580	 5.9190
 6.1660	 5.9130
 6.1730	 5.8610
 6.1800	 5.7980
 6.1880	 5.9380
 6.1950	 6.0600
 6.2030	 6.0120
 6.2100	 5.8080
 6.2170	 5.9030
 6.2250	 5.8800
 6.2320	 5.8970
 6.2400	 5.8930
 6.2470	 5.8820
 6.2550	 5.8800
 6.2630	 5.9590
 6.2700	 5.8670
 6.2780	 5.8880
 6.2850	 5.9100
 6.2930	 6.0800
 6.3010	 6.0940
 6.3080	 6.0290
 6.3160	 5.8680
 6.3240	 5.9330
 6.3310	 5.8460
 6.3390	 5.8370
 6.3470	 5.8230
 6.3550	 5.8530
 6.3620	 5.7880
 6.3700	 5.7710
 6.3780	 5.6820
 6.3860	 5.8240
 6.3940	 5.8920
 6.4020	 5.8970
 6.4100	 5.7600
 6.4180	 5.7540
 6.4260	 5.7300
 6.4330	 5.7790
 6.4410	 5.7180
 6.4490	 5.7800
 6.4580	 5.7330
 6.4660	 5.7110
 6.4740	 5.6360
 6.4820	 5.6690
 6.4900	 5.5540
 6.4980	 5.6170
 6.5060	 5.6740
 6.5140	 5.7370
 6.5230	 5.6890
 6.5310	 5.8050
 6.5390	 5.8970
 6.5470	 5.8100
 6.5550	 5.6110
 6.5640	 5.6360
 6.5720	 5.4860
 6.5800	 5.5090
 6.5890	 5.6430
 6.5970	 5.7440
 6.6060	 5.6510
 6.6140	 5.6740
 6.6220	 5.6360
 6.6310	 5.7160
 6.6390	 5.5210
 6.6480	 5.5260
 6.6560	 5.5140
 6.6650	 5.4660
 6.6740	 5.4220
 6.6820	 5.4820
 6.6910	 5.4620
 6.6990	 5.5590
 6.7080	 5.4030
 6.7170	 5.3930
 6.7260	 5.4100
 6.7340	 5.4850
 6.7430	 5.4630
 6.7520	 5.4930
 6.7610	 5.4110
 6.7690	 5.2690
 6.7780	 5.1460
 6.7870	 5.3130
 6.7960	 5.2880
 6.8050	 5.2680
 6.8140	 5.2700
 6.8230	 5.4490
 6.8320	 5.4770
 6.8410	 5.6440
 6.8500	 5.5760
 6.8590	 5.6100
 6.8680	 5.6050
 6.8770	 5.5810
 6.8860	 5.5710
 6.8950	 5.7860
 6.9050	 5.7350
 6.9140	 5.7500
 6.9230	 5.7820
 6.9320	 5.8530
 6.9420	 5.6470
 6.9510	 5.6780
 6.9600	 5.6220
 6.9700	 5.7250
 6.9790	 5.6680
 6.9880	 5.6700
 6.9980	 5.6680
 7.0070	 5.8270
 7.0170	 5.8280
 7.0260	 5.8440
 7.0360	 5.6970
 7.0450	 5.6690
 7.0550	 5.6710
 7.0650	 5.7310
 7.0740	 5.6580
 7.0840	 5.7340
 7.0940	 5.6990
 7.1030	 5.7580
 7.1130	 5.6200
 7.1230	 5.7210
 7.1330	 5.6940
 7.1420	 5.6750
 7.1520	 5.5440
 7.1620	 5.6720
 7.1720	 5.6810
 7.1820	 5.6040
 7.1920	 5.3830
 7.2020	 5.5200
 7.2120	 5.6130
 7.2220	 5.7640
 7.2320	 5.6880
 7.2420	 5.7060
 7.2520	 5.6950
 7.2620	 5.7980
 7.2730	 5.6520
 7.2830	 5.6230
 7.2930	 5.6560
 7.3030	 5.8050
 7.3140	 5.7280
 7.3240	 5.6960
 7.3340	 5.5890
 7.3450	 5.6620
 7.3550	 5.5480
 7.3660	 5.6140
 7.3760	 5.6700
 7.3870	 5.7460
 7.3970	 5.6380
 7.4080	 5.7420
 7.4180	 5.6900
 7.4290	 5.7070
 7.4400	 5.7130
 7.4500	 5.8220
 7.4610	 5.6730
 7.4720	 5.6880
 7.4830	 5.5970
 7.4930	 5.6120
 7.5040	 5.5760
 7.5150	 5.6730
 7.5260	 5.5930
 7.5370	 5.5350
 7.5480	 5.4650
 7.5590	 5.6140
 7.5700	 5.6080
 7.5810	 5.6750
 7.5920	 5.4910
 7.6030	 5.5210
 7.6140	 5.4890
 7.6260	 5.4890
 7.6370	 5.4250
 7.6480	 5.5010
 7.6590	 5.4170
 7.6710	 5.4690
 7.6820	 5.4360
 7.6930	 5.4840
 7.7050	 5.3860
 7.7160	 5.4820
 7.7280	 5.4950
 7.7390	 5.5820
 7.7510	 5.3820
 7.7630	 5.4350
 7.7740	 5.4220
 7.7860	 5.4240
 7.7980	 5.2480
 7.8090	 5.2910
 7.8210	 5.3640
 7.8330	 5.5130
 7.8450	 5.5160
 7.8570	 5.6350
 7.8690	 5.5930
 7.8810	 5.6180
 7.8930	 5.4530
 7.9050	 5.5100
 7.9170	 5.5180
 7.9290	 5.6050
 7.9410	 5.4180
 7.9530	 5.5210
 7.9650	 5.5130
 7.9780	 5.6700
 7.9900	 5.5140
 8.0020	 5.5380
 8.0150	 5.4640
 8.0270	 5.5130
 8.0390	 5.5020
 8.0520	 5.6630
 8.0640	 5.5840
 8.0770	 5.7650
 8.0900	 5.7330
 8.1020	 5.7250
 8.1150	 5.5060
 8.1280	 5.6700
 8.1400	 5.4850
 8.1530	 5.4290
 8.1660	 5.4530
 8.1790	 5.6660
 8.1920	 5.6250
 8.2050	 5.8050
 8.2180	 5.6420
 8.2310	 5.6770
 8.2440	 5.5840
 8.2570	 5.8170
 8.2700	 5.7160
 8.2830	 5.8170
 8.2970	 5.7850
 8.3100	 5.8830
 8.3230	 5.8610
 8.3370	 5.8540
 8.3500	 5.6310
 8.3640	 5.8130
 8.3770	 5.8180
 8.3910	 5.8900
 8.4040	 5.6600
 8.4180	 5.7340
 8.4320	 5.7290
 8.4450	 5.9270
 8.4590	 5.8900
 8.4730	 6.0520
 8.4870	 5.8920
 8.5010	 5.9850
 8.5150	 6.2490
 8.5290	 6.4530
 8.5430	 6.2470
 8.5570	 6.4530
 8.5710	 6.2950
 8.5850	 6.2660
 8.5990	 6.2610
 8.6140	 6.3990
 8.6280	 6.2360
 8.6420	 6.4020
 8.6570	 6.3960
 8.6710	 6.4720
 8.6860	 6.2930
 8.7000	 6.5670
 8.7150	 6.4910
 8.7300	 6.3780
 8.7440	 6.2120
 8.7590	 6.4750
 8.7740	 6.4270
 8.7890	 6.5110
 8.8040	 6.2870
 8.8190	 6.4010
 8.8340	 6.4150
 8.8490	 6.5270
 8.8640	 6.5210
 8.8790	 6.8380
 8.8940	 6.6420
 8.9100	 6.5660
 8.9250	 6.5070
 8.9400	 6.6790
 8.9560	 6.5190
 8.9710	 6.6210
 8.9870	 6.4330
 9.0020	 6.4080
 9.0180	 6.3140
 9.0340	 6.4330
 9.0500	 6.3310
 9.0650	 6.5460
 9.0810	 6.3060
 9.0970	 6.2870
 9.1130	 6.2350
 9.1290	 6.3700
 9.1450	 6.2430
 9.1610	 6.3090
 9.1780	 6.1780
 9.1940	 6.3330
 9.2100	 6.2040
 9.2270	 6.5820
 9.2430	 6.5990
 9.2600	 6.6070
 9.2760	 6.4380
 9.2930	 6.5570
 9.3090	 6.3470
 9.3260	 6.4260
 9.3430	 6.3030
 9.3600	 6.3680
 9.3770	 6.2080
 9.3940	 6.3660
 9.4110	 6.0890
 9.4280	 6.2750
 9.4450	 6.2310
 9.4620	 6.4340
 9.4800	 6.2750
 9.4970	 6.1890
 9.5140	 5.9040
 9.5320	 6.1950
 9.5500	 6.2780
 9.5670	 6.4080
 9.5850	 6.2300
 9.6030	 6.5160
 9.6200	 6.4970
 9.6380	 6.5260
 9.6560	 6.2070
 9.6740	 6.2250
 9.6920	 6.0760
 9.7100	 6.1490
 9.7290	 6.0430
 9.7470	 6.2180
 9.7650	 6.0550
 9.7840	 6.2420
 9.8020	 6.0750
 9.8210	 6.3120
 9.8390	 6.2080
 9.8580	 6.3130
 9.8770	 6.1470
 9.8960	 6.2830
 9.9150	 5.9720
 9.9340	 5.9460
 9.9530	 5.8070
 9.9720	 5.9990
 9.9910	 5.9620
10.0100	 6.0990
10.0300	 5.9920
10.0490	 6.0690
10.0690	 6.0040
10.0880	 6.1250
10.1080	 5.9210
10.1280	 6.1680
10.1480	 6.0210
10.1670	 5.9730
10.1870	 5.7650
10.2070	 6.0040
10.2280	 5.8330
10.2480	 5.9890
10.2680	 5.9510
10.2890	 5.8950
10.3090	 5.8190
10.3300	 5.9800
10.3500	 5.7260
10.3710	 5.8390
10.3920	 5.7680
10.4120	 5.9670
10.4330	 5.8990
10.4540	 6.0250
10.4760	 5.7950
10.4970	 5.8960
10.5180	 5.6950
10.5390	 5.7330
10.5610	 5.5160
10.5820	 5.8610
10.6040	 5.7810
10.6260	 5.8480
10.6480	 5.6820
10.6700	 5.6480
10.6920	 5.5090
10.7140	 5.7860
10.7360	 5.5770
10.7580	 5.6060
10.7800	 5.5520
10.8030	 5.7860
10.8250	 5.6330
10.8480	 5.7520
10.8710	 5.6600
10.8940	 5.8800
10.9170	 5.7920
10.9400	 5.9160
10.9630	 5.6780
10.9860	 5.9030
11.0090	 5.7470
11.0330	 5.7990
11.0560	 5.6650
11.0800	 5.8460
11.1040	 5.6740
11.1270	 5.9670
11.1510	 5.8690
11.1750	 6.0090
11.2000	 5.7360
11.2240	 5.7600
11.2480	 5.5890
11.2730	 6.3430
11.2970	 6.3020
11.3220	 5.7010
11.3470	 5.6230
11.3720	 5.9610
11.3970	 5.8450
11.4220	 6.1530
11.4470	 5.9130
11.4720	 5.9590
11.4980	 5.6840
11.5230	 5.7580
11.5490	 5.6470
11.5750	 5.8570
11.6000	 5.7660
11.6260	 5.9680
11.6530	 5.7160
11.6790	 5.6500
11.7050	 5.3770
11.7320	 5.7730
11.7580	 5.7770
11.7850	 5.8700
11.8120	 5.6130
11.8390	 5.7650
11.8660	 5.3860
11.8930	 5.5630
11.9200	 5.4390
11.9480	 5.7370
11.9760	 5.5780
12.0030	 5.8380
12.0310	 5.7530
12.0590	 6.0160
12.0870	 5.6890
12.1150	 5.8310
12.1440	 5.6320
12.1720	 5.7780
12.2010	 5.6570
12.2300	 5.6810
12.2590	 5.0930
12.2880	 5.4000
12.3170	 5.3860
12.3460	 5.4740
12.3760	 5.3340
12.4050	 5.6470
12.4350	 5.6160
12.4650	 5.9110
12.4950	 5.5010
12.5250	 5.7140
12.5550	 5.5170
12.5860	 5.6890
12.6170	 5.3140
12.6470	 5.5840
12.6780	 5.5310
12.7090	 5.7000
12.7410	 5.3190
12.7720	 5.6580
12.8030	 5.4490
12.8350	 5.6100
12.8670	 5.4730
12.8990	 6.0130
12.9310	 5.6540
12.9640	 5.4530
12.9960	 5.1770
13.0290	 5.4910
13.0610	 5.1190
13.0940	 5.6050
13.1280	 5.7680
13.1610	 5.7880
13.1940	 5.3920
13.2280	 5.8440
13.2620	 5.5590
13.2960	 5.4540
13.3300	 5.0970
13.3640	 5.3310
13.3990	 5.0320
13.4340	 5.4000
13.4690	 5.0150
13.5040	 5.2340
13.5390	 5.1210
13.5740	 5.5470
13.6100	 5.1520
13.6460	 5.4150
13.6820	 5.2150
13.7180	 5.4500
13.7540	 5.4300
13.7910	 5.8250
13.8280	 5.3260
13.8650	 5.5600
13.9020	 5.1000
13.9390	 5.1930
13.9770	 4.9250
14.0150	 5.1470
14.0530	 4.8370
14.0910	 5.4180
14.1290	 4.9410
14.1680	 5.3220
14.2070	 4.9770
14.2460	 5.2400
14.2850	 4.9130
14.3240	 5.3020
14.3640	 5.0160
14.4040	 5.5680
14.4440	 5.0690
14.4840	 5.2340
14.5250	 4.6990
14.5660	 5.2110
14.6070	 4.6790
14.6480	 4.8550
14.6900	 4.4740
14.7310	 5.3860
14.7730	 4.8560
14.8150	 5.4370
14.8580	 4.8980
14.9010	 5.4080
14.9440	 4.7960
14.9870	 5.3730
15.0300	 4.5780
15.0740	 5.2310
15.1180	 4.4770
15.1620	 5.1690
15.2060	 4.1390
15.2510	 4.3920
15.2960	 4.1980
15.3410	 4.8870
15.3870	 4.7100
