Name: Ceanothus megacarpus 1
Type: vegetation
Class: Shrub
Genus: Ceanothus
Species: megacarpus
Sample No.: VH020
Owner: UCSB
Wavelength Range: VSWIR
Origin: 34.4908; -119.7914; WGS84
Collection Date: 4/1/2013
Description: Samples were collected as part of the HyspIRI Airborne Campaign. 48 individual plants were sampled in three times in 2013 - spring  summer  and fall. The name of the sample includes a 1  2  or 3 which references a different individual of the species. Samples were taken to JPL and processed within 48 hours of collection. The same leaves were processed in the Nicolet and then measured using the ASD.
Measurement: Bidirectional reflectance
First Column: X
Second Column: Y
X Units: Wavelength (micrometers)
Y Units: Reflectance (percentage)
First X Value: 0.35
Last X Value: 2.5
Number of X Values: 2151
Additional Information: vegetation.shrub.ceanothus.megacarpus.vswir.vh020.ucsb.asd.ancillary.txt

 0.3500	 2.0450
 0.3510	 2.1060
 0.3520	 2.2750
 0.3530	 2.3850
 0.3540	 2.3480
 0.3550	 2.2320
 0.3560	 2.2060
 0.3570	 2.2200
 0.3580	 2.1350
 0.3590	 2.1320
 0.3600	 2.1880
 0.3610	 2.2230
 0.3620	 2.1020
 0.3630	 2.1310
 0.3640	 2.2470
 0.3650	 2.2980
 0.3660	 2.1870
 0.3670	 2.1060
 0.3680	 2.0960
 0.3690	 2.0820
 0.3700	 2.1030
 0.3710	 2.1350
 0.3720	 2.1450
 0.3730	 2.0820
 0.3740	 2.1020
 0.3750	 2.1540
 0.3760	 2.1430
 0.3770	 2.1130
 0.3780	 2.1200
 0.3790	 2.1430
 0.3800	 2.1090
 0.3810	 2.0510
 0.3820	 2.0160
 0.3830	 2.0220
 0.3840	 2.0420
 0.3850	 2.0720
 0.3860	 2.0870
 0.3870	 2.0690
 0.3880	 2.1090
 0.3890	 2.0920
 0.3900	 2.0380
 0.3910	 2.1150
 0.3920	 2.0940
 0.3930	 2.0390
 0.3940	 2.0270
 0.3950	 2.0120
 0.3960	 2.0210
 0.3970	 2.0430
 0.3980	 2.0470
 0.3990	 2.0230
 0.4000	 2.0090
 0.4010	 2.0220
 0.4020	 2.0470
 0.4030	 2.0660
 0.4040	 2.0630
 0.4050	 2.0380
 0.4060	 2.0650
 0.4070	 2.0590
 0.4080	 2.0310
 0.4090	 2.0470
 0.4100	 2.0340
 0.4110	 2.0330
 0.4120	 2.0630
 0.4130	 2.0780
 0.4140	 2.0690
 0.4150	 2.0500
 0.4160	 2.0460
 0.4170	 2.0880
 0.4180	 2.1070
 0.4190	 2.1000
 0.4200	 2.1200
 0.4210	 2.1460
 0.4220	 2.1520
 0.4230	 2.1360
 0.4240	 2.1560
 0.4250	 2.1800
 0.4260	 2.1920
 0.4270	 2.1920
 0.4280	 2.2090
 0.4290	 2.2230
 0.4300	 2.2270
 0.4310	 2.2410
 0.4320	 2.2540
 0.4330	 2.2710
 0.4340	 2.2900
 0.4350	 2.2890
 0.4360	 2.2970
 0.4370	 2.3110
 0.4380	 2.3070
 0.4390	 2.3100
 0.4400	 2.3210
 0.4410	 2.3330
 0.4420	 2.3250
 0.4430	 2.3210
 0.4440	 2.3280
 0.4450	 2.3480
 0.4460	 2.3660
 0.4470	 2.3790
 0.4480	 2.3870
 0.4490	 2.3950
 0.4500	 2.4030
 0.4510	 2.4060
 0.4520	 2.4060
 0.4530	 2.4160
 0.4540	 2.4250
 0.4550	 2.4350
 0.4560	 2.4530
 0.4570	 2.4570
 0.4580	 2.4550
 0.4590	 2.4550
 0.4600	 2.4600
 0.4610	 2.4560
 0.4620	 2.4490
 0.4630	 2.4530
 0.4640	 2.4670
 0.4650	 2.4770
 0.4660	 2.4780
 0.4670	 2.4740
 0.4680	 2.4750
 0.4690	 2.4720
 0.4700	 2.4620
 0.4710	 2.4670
 0.4720	 2.4790
 0.4730	 2.4870
 0.4740	 2.4800
 0.4750	 2.4810
 0.4760	 2.4860
 0.4770	 2.4900
 0.4780	 2.4820
 0.4790	 2.4850
 0.4800	 2.4950
 0.4810	 2.5030
 0.4820	 2.5020
 0.4830	 2.5070
 0.4840	 2.5190
 0.4850	 2.5220
 0.4860	 2.5280
 0.4870	 2.5320
 0.4880	 2.5330
 0.4890	 2.5430
 0.4900	 2.5550
 0.4910	 2.5650
 0.4920	 2.5730
 0.4930	 2.5860
 0.4940	 2.6020
 0.4950	 2.6190
 0.4960	 2.6360
 0.4970	 2.6500
 0.4980	 2.6650
 0.4990	 2.6830
 0.5000	 2.7020
 0.5010	 2.7320
 0.5020	 2.7680
 0.5030	 2.7940
 0.5040	 2.8320
 0.5050	 2.8770
 0.5060	 2.9240
 0.5070	 2.9760
 0.5080	 3.0270
 0.5090	 3.0840
 0.5100	 3.1550
 0.5110	 3.2280
 0.5120	 3.3080
 0.5130	 3.3940
 0.5140	 3.4780
 0.5150	 3.5820
 0.5160	 3.6970
 0.5170	 3.8110
 0.5180	 3.9360
 0.5190	 4.0640
 0.5200	 4.1970
 0.5210	 4.3380
 0.5220	 4.4760
 0.5230	 4.6130
 0.5240	 4.7530
 0.5250	 4.8970
 0.5260	 5.0340
 0.5270	 5.1640
 0.5280	 5.2880
 0.5290	 5.3990
 0.5300	 5.5090
 0.5310	 5.6180
 0.5320	 5.7150
 0.5330	 5.8030
 0.5340	 5.8850
 0.5350	 5.9620
 0.5360	 6.0260
 0.5370	 6.0920
 0.5380	 6.1580
 0.5390	 6.2140
 0.5400	 6.2740
 0.5410	 6.3370
 0.5420	 6.3980
 0.5430	 6.4530
 0.5440	 6.5020
 0.5450	 6.5420
 0.5460	 6.5710
 0.5470	 6.5840
 0.5480	 6.5950
 0.5490	 6.6120
 0.5500	 6.6290
 0.5510	 6.6430
 0.5520	 6.6490
 0.5530	 6.6450
 0.5540	 6.6330
 0.5550	 6.6120
 0.5560	 6.5820
 0.5570	 6.5470
 0.5580	 6.5030
 0.5590	 6.4540
 0.5600	 6.4010
 0.5610	 6.3400
 0.5620	 6.2770
 0.5630	 6.2100
 0.5640	 6.1350
 0.5650	 6.0520
 0.5660	 5.9680
 0.5670	 5.8830
 0.5680	 5.7920
 0.5690	 5.6960
 0.5700	 5.6040
 0.5710	 5.5180
 0.5720	 5.4240
 0.5730	 5.3310
 0.5740	 5.2460
 0.5750	 5.1710
 0.5760	 5.1120
 0.5770	 5.0570
 0.5780	 5.0010
 0.5790	 4.9500
 0.5800	 4.8980
 0.5810	 4.8480
 0.5820	 4.8020
 0.5830	 4.7580
 0.5840	 4.7170
 0.5850	 4.6770
 0.5860	 4.6380
 0.5870	 4.6000
 0.5880	 4.5670
 0.5890	 4.5400
 0.5900	 4.5150
 0.5910	 4.4930
 0.5920	 4.4730
 0.5930	 4.4540
 0.5940	 4.4430
 0.5950	 4.4330
 0.5960	 4.4220
 0.5970	 4.4080
 0.5980	 4.3980
 0.5990	 4.3870
 0.6000	 4.3700
 0.6010	 4.3480
 0.6020	 4.3240
 0.6030	 4.3010
 0.6040	 4.2740
 0.6050	 4.2410
 0.6060	 4.2040
 0.6070	 4.1670
 0.6080	 4.1280
 0.6090	 4.0910
 0.6100	 4.0590
 0.6110	 4.0290
 0.6120	 3.9850
 0.6130	 3.9310
 0.6140	 3.8760
 0.6150	 3.8330
 0.6160	 3.7880
 0.6170	 3.7470
 0.6180	 3.7140
 0.6190	 3.6860
 0.6200	 3.6610
 0.6210	 3.6390
 0.6220	 3.6200
 0.6230	 3.6030
 0.6240	 3.5870
 0.6250	 3.5740
 0.6260	 3.5630
 0.6270	 3.5530
 0.6280	 3.5470
 0.6290	 3.5470
 0.6300	 3.5450
 0.6310	 3.5420
 0.6320	 3.5390
 0.6330	 3.5340
 0.6340	 3.5260
 0.6350	 3.5150
 0.6360	 3.5000
 0.6370	 3.4790
 0.6380	 3.4590
 0.6390	 3.4380
 0.6400	 3.4090
 0.6410	 3.3770
 0.6420	 3.3450
 0.6430	 3.3140
 0.6440	 3.2800
 0.6450	 3.2420
 0.6460	 3.2040
 0.6470	 3.1740
 0.6480	 3.1430
 0.6490	 3.1130
 0.6500	 3.0870
 0.6510	 3.0640
 0.6520	 3.0380
 0.6530	 3.0120
 0.6540	 2.9890
 0.6550	 2.9630
 0.6560	 2.9350
 0.6570	 2.9050
 0.6580	 2.8770
 0.6590	 2.8470
 0.6600	 2.8160
 0.6610	 2.7840
 0.6620	 2.7500
 0.6630	 2.7200
 0.6640	 2.6940
 0.6650	 2.6710
 0.6660	 2.6540
 0.6670	 2.6350
 0.6680	 2.6170
 0.6690	 2.6090
 0.6700	 2.6010
 0.6710	 2.5950
 0.6720	 2.5900
 0.6730	 2.5880
 0.6740	 2.5890
 0.6750	 2.5910
 0.6760	 2.5930
 0.6770	 2.5970
 0.6780	 2.6060
 0.6790	 2.6180
 0.6800	 2.6300
 0.6810	 2.6490
 0.6820	 2.6670
 0.6830	 2.6870
 0.6840	 2.7240
 0.6850	 2.7680
 0.6860	 2.8190
 0.6870	 2.8790
 0.6880	 2.9590
 0.6890	 3.0580
 0.6900	 3.1780
 0.6910	 3.3270
 0.6920	 3.5060
 0.6930	 3.7180
 0.6940	 3.9650
 0.6950	 4.2550
 0.6960	 4.5810
 0.6970	 4.9420
 0.6980	 5.3370
 0.6990	 5.7730
 0.7000	 6.2440
 0.7010	 6.7440
 0.7020	 7.2720
 0.7030	 7.8260
 0.7040	 8.4050
 0.7050	 9.0020
 0.7060	 9.6170
 0.7070	10.2480
 0.7080	10.8950
 0.7090	11.5610
 0.7100	12.2340
 0.7110	12.9200
 0.7120	13.6220
 0.7130	14.3350
 0.7140	15.0550
 0.7150	15.7840
 0.7160	16.5210
 0.7170	17.2670
 0.7180	18.0180
 0.7190	18.7700
 0.7200	19.5240
 0.7210	20.2770
 0.7220	21.0240
 0.7230	21.7650
 0.7240	22.5000
 0.7250	23.2220
 0.7260	23.9290
 0.7270	24.6160
 0.7280	25.2840
 0.7290	25.9330
 0.7300	26.5610
 0.7310	27.1640
 0.7320	27.7440
 0.7330	28.3000
 0.7340	28.8300
 0.7350	29.3350
 0.7360	29.8190
 0.7370	30.2780
 0.7380	30.7130
 0.7390	31.1280
 0.7400	31.5170
 0.7410	31.8810
 0.7420	32.2220
 0.7430	32.5440
 0.7440	32.8510
 0.7450	33.1380
 0.7460	33.3970
 0.7470	33.6400
 0.7480	33.8690
 0.7490	34.0840
 0.7500	34.2780
 0.7510	34.4570
 0.7520	34.6230
 0.7530	34.7750
 0.7540	34.9100
 0.7550	35.0360
 0.7560	35.1570
 0.7570	35.2670
 0.7580	35.3650
 0.7590	35.4530
 0.7600	35.5320
 0.7610	35.6130
 0.7620	35.6860
 0.7630	35.7510
 0.7640	35.8090
 0.7650	35.8590
 0.7660	35.9090
 0.7670	35.9570
 0.7680	36.0020
 0.7690	36.0400
 0.7700	36.0740
 0.7710	36.1060
 0.7720	36.1390
 0.7730	36.1690
 0.7740	36.1950
 0.7750	36.2200
 0.7760	36.2430
 0.7770	36.2680
 0.7780	36.2940
 0.7790	36.3180
 0.7800	36.3310
 0.7810	36.3450
 0.7820	36.3680
 0.7830	36.3940
 0.7840	36.4150
 0.7850	36.4280
 0.7860	36.4370
 0.7870	36.4560
 0.7880	36.4670
 0.7890	36.4740
 0.7900	36.4920
 0.7910	36.5100
 0.7920	36.5240
 0.7930	36.5330
 0.7940	36.5410
 0.7950	36.5490
 0.7960	36.5560
 0.7970	36.5630
 0.7980	36.5720
 0.7990	36.5790
 0.8000	36.5830
 0.8010	36.5870
 0.8020	36.5970
 0.8030	36.6040
 0.8040	36.6050
 0.8050	36.6040
 0.8060	36.6040
 0.8070	36.6060
 0.8080	36.6060
 0.8090	36.6020
 0.8100	36.6050
 0.8110	36.6090
 0.8120	36.6070
 0.8130	36.6050
 0.8140	36.6010
 0.8150	36.5950
 0.8160	36.5870
 0.8170	36.5830
 0.8180	36.5790
 0.8190	36.5760
 0.8200	36.5760
 0.8210	36.5640
 0.8220	36.5550
 0.8230	36.5530
 0.8240	36.5520
 0.8250	36.5380
 0.8260	36.5290
 0.8270	36.5270
 0.8280	36.5140
 0.8290	36.5000
 0.8300	36.4870
 0.8310	36.4760
 0.8320	36.4570
 0.8330	36.4490
 0.8340	36.4490
 0.8350	36.4400
 0.8360	36.4300
 0.8370	36.4220
 0.8380	36.4180
 0.8390	36.4150
 0.8400	36.4130
 0.8410	36.4130
 0.8420	36.4130
 0.8430	36.4100
 0.8440	36.4080
 0.8450	36.4100
 0.8460	36.4150
 0.8470	36.4140
 0.8480	36.4100
 0.8490	36.4100
 0.8500	36.4170
 0.8510	36.4190
 0.8520	36.4170
 0.8530	36.4170
 0.8540	36.4280
 0.8550	36.4280
 0.8560	36.4290
 0.8570	36.4330
 0.8580	36.4330
 0.8590	36.4380
 0.8600	36.4410
 0.8610	36.4410
 0.8620	36.4470
 0.8630	36.4500
 0.8640	36.4510
 0.8650	36.4540
 0.8660	36.4630
 0.8670	36.4640
 0.8680	36.4640
 0.8690	36.4710
 0.8700	36.4870
 0.8710	36.4900
 0.8720	36.4840
 0.8730	36.4880
 0.8740	36.5030
 0.8750	36.5160
 0.8760	36.5220
 0.8770	36.5240
 0.8780	36.5350
 0.8790	36.5420
 0.8800	36.5420
 0.8810	36.5460
 0.8820	36.5540
 0.8830	36.5560
 0.8840	36.5530
 0.8850	36.5580
 0.8860	36.5710
 0.8870	36.5810
 0.8880	36.5790
 0.8890	36.5790
 0.8900	36.5840
 0.8910	36.5880
 0.8920	36.5860
 0.8930	36.5910
 0.8940	36.5980
 0.8950	36.6000
 0.8960	36.5960
 0.8970	36.6000
 0.8980	36.6030
 0.8990	36.6000
 0.9000	36.5940
 0.9010	36.5990
 0.9020	36.6040
 0.9030	36.6010
 0.9040	36.6010
 0.9050	36.6060
 0.9060	36.6090
 0.9070	36.6090
 0.9080	36.6110
 0.9090	36.6080
 0.9100	36.6040
 0.9110	36.6040
 0.9120	36.6040
 0.9130	36.6080
 0.9140	36.6050
 0.9150	36.5920
 0.9160	36.5940
 0.9170	36.5910
 0.9180	36.5770
 0.9190	36.5610
 0.9200	36.5580
 0.9210	36.5500
 0.9220	36.5360
 0.9230	36.5210
 0.9240	36.5030
 0.9250	36.4840
 0.9260	36.4670
 0.9270	36.4510
 0.9280	36.4310
 0.9290	36.3970
 0.9300	36.3550
 0.9310	36.3260
 0.9320	36.2920
 0.9330	36.2580
 0.9340	36.2260
 0.9350	36.1900
 0.9360	36.1510
 0.9370	36.1060
 0.9380	36.0560
 0.9390	36.0180
 0.9400	35.9820
 0.9410	35.9320
 0.9420	35.8650
 0.9430	35.8040
 0.9440	35.7430
 0.9450	35.6840
 0.9460	35.6220
 0.9470	35.5330
 0.9480	35.4490
 0.9490	35.3660
 0.9500	35.2750
 0.9510	35.1820
 0.9520	35.0940
 0.9530	34.9920
 0.9540	34.8680
 0.9550	34.7680
 0.9560	34.6630
 0.9570	34.5550
 0.9580	34.4550
 0.9590	34.3790
 0.9600	34.2940
 0.9610	34.2100
 0.9620	34.1450
 0.9630	34.0900
 0.9640	34.0370
 0.9650	33.9910
 0.9660	33.9580
 0.9670	33.9190
 0.9680	33.8970
 0.9690	33.8770
 0.9700	33.8420
 0.9710	33.8240
 0.9720	33.8080
 0.9730	33.7940
 0.9740	33.7850
 0.9750	33.7680
 0.9760	33.7640
 0.9770	33.7650
 0.9780	33.7550
 0.9790	33.7590
 0.9800	33.7760
 0.9810	33.7950
 0.9820	33.8030
 0.9830	33.8060
 0.9840	33.8240
 0.9850	33.8460
 0.9860	33.8540
 0.9870	33.8820
 0.9880	33.9240
 0.9890	33.9590
 0.9900	33.9710
 0.9910	34.0080
 0.9920	34.1210
 0.9930	34.2340
 0.9940	34.3470
 0.9950	34.4590
 0.9960	34.5720
 0.9970	34.6850
 0.9980	34.7980
 0.9990	34.9110
 1.0000	35.0240
 1.0010	35.1370
 1.0020	35.2500
 1.0030	35.3620
 1.0040	35.4750
 1.0050	35.5880
 1.0060	35.7010
 1.0070	35.8140
 1.0080	35.9270
 1.0090	36.0400
 1.0100	36.0400
 1.0110	36.0750
 1.0120	36.1140
 1.0130	36.1540
 1.0140	36.1930
 1.0150	36.2340
 1.0160	36.2740
 1.0170	36.3120
 1.0180	36.3450
 1.0190	36.3790
 1.0200	36.4160
 1.0210	36.4510
 1.0220	36.4870
 1.0230	36.5210
 1.0240	36.5550
 1.0250	36.5900
 1.0260	36.6230
 1.0270	36.6580
 1.0280	36.6960
 1.0290	36.7300
 1.0300	36.7660
 1.0310	36.7980
 1.0320	36.8250
 1.0330	36.8530
 1.0340	36.8830
 1.0350	36.9120
 1.0360	36.9430
 1.0370	36.9760
 1.0380	37.0070
 1.0390	37.0390
 1.0400	37.0650
 1.0410	37.0860
 1.0420	37.1090
 1.0430	37.1260
 1.0440	37.1480
 1.0450	37.1760
 1.0460	37.1990
 1.0470	37.2200
 1.0480	37.2410
 1.0490	37.2600
 1.0500	37.2780
 1.0510	37.2950
 1.0520	37.3120
 1.0530	37.3270
 1.0540	37.3390
 1.0550	37.3530
 1.0560	37.3660
 1.0570	37.3780
 1.0580	37.3910
 1.0590	37.4010
 1.0600	37.4090
 1.0610	37.4160
 1.0620	37.4200
 1.0630	37.4260
 1.0640	37.4350
 1.0650	37.4390
 1.0660	37.4420
 1.0670	37.4440
 1.0680	37.4440
 1.0690	37.4390
 1.0700	37.4370
 1.0710	37.4370
 1.0720	37.4360
 1.0730	37.4340
 1.0740	37.4310
 1.0750	37.4250
 1.0760	37.4200
 1.0770	37.4150
 1.0780	37.4070
 1.0790	37.3960
 1.0800	37.3860
 1.0810	37.3730
 1.0820	37.3620
 1.0830	37.3570
 1.0840	37.3470
 1.0850	37.3360
 1.0860	37.3230
 1.0870	37.3090
 1.0880	37.2940
 1.0890	37.2780
 1.0900	37.2630
 1.0910	37.2480
 1.0920	37.2310
 1.0930	37.2140
 1.0940	37.1990
 1.0950	37.1800
 1.0960	37.1570
 1.0970	37.1360
 1.0980	37.1120
 1.0990	37.0910
 1.1000	37.0770
 1.1010	37.0570
 1.1020	37.0330
 1.1030	37.0110
 1.1040	36.9890
 1.1050	36.9630
 1.1060	36.9400
 1.1070	36.9210
 1.1080	36.8960
 1.1090	36.8680
 1.1100	36.8390
 1.1110	36.8050
 1.1120	36.7740
 1.1130	36.7430
 1.1140	36.7090
 1.1150	36.6750
 1.1160	36.6350
 1.1170	36.5920
 1.1180	36.5450
 1.1190	36.4960
 1.1200	36.4440
 1.1210	36.3870
 1.1220	36.3250
 1.1230	36.2590
 1.1240	36.1880
 1.1250	36.1080
 1.1260	36.0230
 1.1270	35.9280
 1.1280	35.8250
 1.1290	35.7120
 1.1300	35.5920
 1.1310	35.4610
 1.1320	35.3180
 1.1330	35.1670
 1.1340	35.0070
 1.1350	34.8350
 1.1360	34.6540
 1.1370	34.4620
 1.1380	34.2640
 1.1390	34.0580
 1.1400	33.8420
 1.1410	33.6260
 1.1420	33.4060
 1.1430	33.1830
 1.1440	32.9640
 1.1450	32.7450
 1.1460	32.5310
 1.1470	32.3140
 1.1480	32.1110
 1.1490	31.9110
 1.1500	31.7270
 1.1510	31.5520
 1.1520	31.3890
 1.1530	31.2370
 1.1540	31.0980
 1.1550	30.9710
 1.1560	30.8560
 1.1570	30.7550
 1.1580	30.6680
 1.1590	30.5890
 1.1600	30.5200
 1.1610	30.4610
 1.1620	30.4080
 1.1630	30.3620
 1.1640	30.3250
 1.1650	30.2910
 1.1660	30.2650
 1.1670	30.2410
 1.1680	30.2240
 1.1690	30.2070
 1.1700	30.1930
 1.1710	30.1800
 1.1720	30.1700
 1.1730	30.1590
 1.1740	30.1500
 1.1750	30.1390
 1.1760	30.1270
 1.1770	30.1140
 1.1780	30.0990
 1.1790	30.0850
 1.1800	30.0720
 1.1810	30.0580
 1.1820	30.0420
 1.1830	30.0250
 1.1840	30.0090
 1.1850	29.9920
 1.1860	29.9770
 1.1870	29.9630
 1.1880	29.9510
 1.1890	29.9390
 1.1900	29.9280
 1.1910	29.9170
 1.1920	29.9080
 1.1930	29.9010
 1.1940	29.8970
 1.1950	29.8960
 1.1960	29.8970
 1.1970	29.9000
 1.1980	29.9020
 1.1990	29.9070
 1.2000	29.9160
 1.2010	29.9270
 1.2020	29.9390
 1.2030	29.9530
 1.2040	29.9690
 1.2050	29.9860
 1.2060	30.0070
 1.2070	30.0300
 1.2080	30.0540
 1.2090	30.0800
 1.2100	30.1080
 1.2110	30.1380
 1.2120	30.1690
 1.2130	30.2010
 1.2140	30.2360
 1.2150	30.2710
 1.2160	30.3080
 1.2170	30.3440
 1.2180	30.3810
 1.2190	30.4190
 1.2200	30.4580
 1.2210	30.4980
 1.2220	30.5390
 1.2230	30.5790
 1.2240	30.6170
 1.2250	30.6530
 1.2260	30.6890
 1.2270	30.7250
 1.2280	30.7620
 1.2290	30.7980
 1.2300	30.8320
 1.2310	30.8630
 1.2320	30.8950
 1.2330	30.9250
 1.2340	30.9540
 1.2350	30.9840
 1.2360	31.0120
 1.2370	31.0380
 1.2380	31.0650
 1.2390	31.0920
 1.2400	31.1160
 1.2410	31.1400
 1.2420	31.1630
 1.2430	31.1860
 1.2440	31.2090
 1.2450	31.2300
 1.2460	31.2520
 1.2470	31.2720
 1.2480	31.2910
 1.2490	31.3110
 1.2500	31.3280
 1.2510	31.3430
 1.2520	31.3560
 1.2530	31.3680
 1.2540	31.3790
 1.2550	31.3920
 1.2560	31.4020
 1.2570	31.4120
 1.2580	31.4200
 1.2590	31.4250
 1.2600	31.4270
 1.2610	31.4310
 1.2620	31.4320
 1.2630	31.4320
 1.2640	31.4330
 1.2650	31.4310
 1.2660	31.4270
 1.2670	31.4190
 1.2680	31.4130
 1.2690	31.4070
 1.2700	31.3990
 1.2710	31.3910
 1.2720	31.3820
 1.2730	31.3680
 1.2740	31.3530
 1.2750	31.3370
 1.2760	31.3170
 1.2770	31.3010
 1.2780	31.2810
 1.2790	31.2570
 1.2800	31.2340
 1.2810	31.2060
 1.2820	31.1760
 1.2830	31.1460
 1.2840	31.1140
 1.2850	31.0780
 1.2860	31.0400
 1.2870	30.9980
 1.2880	30.9530
 1.2890	30.9030
 1.2900	30.8520
 1.2910	30.7970
 1.2920	30.7400
 1.2930	30.6790
 1.2940	30.6140
 1.2950	30.5450
 1.2960	30.4740
 1.2970	30.4000
 1.2980	30.3230
 1.2990	30.2400
 1.3000	30.1540
 1.3010	30.0640
 1.3020	29.9720
 1.3030	29.8780
 1.3040	29.7790
 1.3050	29.6770
 1.3060	29.5730
 1.3070	29.4640
 1.3080	29.3530
 1.3090	29.2380
 1.3100	29.1200
 1.3110	28.9980
 1.3120	28.8730
 1.3130	28.7450
 1.3140	28.6130
 1.3150	28.4760
 1.3160	28.3360
 1.3170	28.1950
 1.3180	28.0500
 1.3190	27.9000
 1.3200	27.7480
 1.3210	27.5910
 1.3220	27.4310
 1.3230	27.2720
 1.3240	27.1080
 1.3250	26.9430
 1.3260	26.7760
 1.3270	26.6050
 1.3280	26.4330
 1.3290	26.2590
 1.3300	26.0830
 1.3310	25.9090
 1.3320	25.7340
 1.3330	25.5580
 1.3340	25.3830
 1.3350	25.2060
 1.3360	25.0290
 1.3370	24.8530
 1.3380	24.6780
 1.3390	24.5050
 1.3400	24.3330
 1.3410	24.1650
 1.3420	23.9980
 1.3430	23.8320
 1.3440	23.6700
 1.3450	23.5090
 1.3460	23.3480
 1.3470	23.1920
 1.3480	23.0390
 1.3490	22.8870
 1.3500	22.7390
 1.3510	22.5930
 1.3520	22.4460
 1.3530	22.3000
 1.3540	22.1550
 1.3550	22.0090
 1.3560	21.8630
 1.3570	21.7180
 1.3580	21.5730
 1.3590	21.4250
 1.3600	21.2740
 1.3610	21.1210
 1.3620	20.9620
 1.3630	20.7990
 1.3640	20.6310
 1.3650	20.4550
 1.3660	20.2740
 1.3670	20.0840
 1.3680	19.8840
 1.3690	19.6750
 1.3700	19.4550
 1.3710	19.2220
 1.3720	18.9770
 1.3730	18.7180
 1.3740	18.4460
 1.3750	18.1590
 1.3760	17.8560
 1.3770	17.5360
 1.3780	17.1950
 1.3790	16.8410
 1.3800	16.4710
 1.3810	16.0860
 1.3820	15.6920
 1.3830	15.2860
 1.3840	14.8740
 1.3850	14.4510
 1.3860	14.0270
 1.3870	13.5920
 1.3880	13.1650
 1.3890	12.7360
 1.3900	12.3070
 1.3910	11.8900
 1.3920	11.4770
 1.3930	11.0710
 1.3940	10.6760
 1.3950	10.2890
 1.3960	 9.9150
 1.3970	 9.5560
 1.3980	 9.2130
 1.3990	 8.8890
 1.4000	 8.5820
 1.4010	 8.2890
 1.4020	 8.0150
 1.4030	 7.7550
 1.4040	 7.5120
 1.4050	 7.2870
 1.4060	 7.0770
 1.4070	 6.8840
 1.4080	 6.7050
 1.4090	 6.5390
 1.4100	 6.3870
 1.4110	 6.2460
 1.4120	 6.1160
 1.4130	 5.9980
 1.4140	 5.8900
 1.4150	 5.7930
 1.4160	 5.7030
 1.4170	 5.6230
 1.4180	 5.5490
 1.4190	 5.4810
 1.4200	 5.4210
 1.4210	 5.3650
 1.4220	 5.3150
 1.4230	 5.2700
 1.4240	 5.2290
 1.4250	 5.1930
 1.4260	 5.1610
 1.4270	 5.1320
 1.4280	 5.1060
 1.4290	 5.0830
 1.4300	 5.0630
 1.4310	 5.0460
 1.4320	 5.0320
 1.4330	 5.0200
 1.4340	 5.0100
 1.4350	 5.0010
 1.4360	 4.9950
 1.4370	 4.9910
 1.4380	 4.9880
 1.4390	 4.9860
 1.4400	 4.9860
 1.4410	 4.9870
 1.4420	 4.9890
 1.4430	 4.9930
 1.4440	 4.9980
 1.4450	 5.0030
 1.4460	 5.0090
 1.4470	 5.0150
 1.4480	 5.0220
 1.4490	 5.0290
 1.4500	 5.0380
 1.4510	 5.0480
 1.4520	 5.0580
 1.4530	 5.0680
 1.4540	 5.0790
 1.4550	 5.0900
 1.4560	 5.1020
 1.4570	 5.1150
 1.4580	 5.1290
 1.4590	 5.1450
 1.4600	 5.1630
 1.4610	 5.1810
 1.4620	 5.2020
 1.4630	 5.2250
 1.4640	 5.2490
 1.4650	 5.2760
 1.4660	 5.3060
 1.4670	 5.3370
 1.4680	 5.3710
 1.4690	 5.4060
 1.4700	 5.4430
 1.4710	 5.4820
 1.4720	 5.5230
 1.4730	 5.5660
 1.4740	 5.6110
 1.4750	 5.6580
 1.4760	 5.7060
 1.4770	 5.7550
 1.4780	 5.8060
 1.4790	 5.8580
 1.4800	 5.9110
 1.4810	 5.9650
 1.4820	 6.0210
 1.4830	 6.0780
 1.4840	 6.1360
 1.4850	 6.1940
 1.4860	 6.2520
 1.4870	 6.3130
 1.4880	 6.3730
 1.4890	 6.4350
 1.4900	 6.4960
 1.4910	 6.5570
 1.4920	 6.6200
 1.4930	 6.6830
 1.4940	 6.7460
 1.4950	 6.8120
 1.4960	 6.8770
 1.4970	 6.9420
 1.4980	 7.0070
 1.4990	 7.0730
 1.5000	 7.1400
 1.5010	 7.2070
 1.5020	 7.2740
 1.5030	 7.3430
 1.5040	 7.4110
 1.5050	 7.4780
 1.5060	 7.5460
 1.5070	 7.6150
 1.5080	 7.6840
 1.5090	 7.7540
 1.5100	 7.8240
 1.5110	 7.8930
 1.5120	 7.9630
 1.5130	 8.0320
 1.5140	 8.1020
 1.5150	 8.1720
 1.5160	 8.2410
 1.5170	 8.3110
 1.5180	 8.3810
 1.5190	 8.4500
 1.5200	 8.5190
 1.5210	 8.5870
 1.5220	 8.6560
 1.5230	 8.7250
 1.5240	 8.7950
 1.5250	 8.8650
 1.5260	 8.9340
 1.5270	 9.0040
 1.5280	 9.0730
 1.5290	 9.1410
 1.5300	 9.2090
 1.5310	 9.2770
 1.5320	 9.3430
 1.5330	 9.4110
 1.5340	 9.4780
 1.5350	 9.5440
 1.5360	 9.6110
 1.5370	 9.6760
 1.5380	 9.7420
 1.5390	 9.8090
 1.5400	 9.8750
 1.5410	 9.9400
 1.5420	10.0040
 1.5430	10.0680
 1.5440	10.1330
 1.5450	10.1980
 1.5460	10.2630
 1.5470	10.3270
 1.5480	10.3900
 1.5490	10.4520
 1.5500	10.5150
 1.5510	10.5770
 1.5520	10.6400
 1.5530	10.7010
 1.5540	10.7620
 1.5550	10.8230
 1.5560	10.8830
 1.5570	10.9440
 1.5580	11.0030
 1.5590	11.0610
 1.5600	11.1190
 1.5610	11.1770
 1.5620	11.2340
 1.5630	11.2920
 1.5640	11.3480
 1.5650	11.4030
 1.5660	11.4590
 1.5670	11.5140
 1.5680	11.5700
 1.5690	11.6250
 1.5700	11.6790
 1.5710	11.7340
 1.5720	11.7870
 1.5730	11.8410
 1.5740	11.8940
 1.5750	11.9450
 1.5760	11.9980
 1.5770	12.0500
 1.5780	12.1020
 1.5790	12.1540
 1.5800	12.2050
 1.5810	12.2570
 1.5820	12.3090
 1.5830	12.3600
 1.5840	12.4110
 1.5850	12.4610
 1.5860	12.5100
 1.5870	12.5600
 1.5880	12.6090
 1.5890	12.6580
 1.5900	12.7070
 1.5910	12.7550
 1.5920	12.8030
 1.5930	12.8500
 1.5940	12.8970
 1.5950	12.9440
 1.5960	12.9920
 1.5970	13.0390
 1.5980	13.0850
 1.5990	13.1310
 1.6000	13.1750
 1.6010	13.2200
 1.6020	13.2650
 1.6030	13.3100
 1.6040	13.3540
 1.6050	13.3970
 1.6060	13.4410
 1.6070	13.4830
 1.6080	13.5260
 1.6090	13.5680
 1.6100	13.6080
 1.6110	13.6480
 1.6120	13.6880
 1.6130	13.7280
 1.6140	13.7660
 1.6150	13.8030
 1.6160	13.8400
 1.6170	13.8750
 1.6180	13.9110
 1.6190	13.9490
 1.6200	13.9850
 1.6210	14.0210
 1.6220	14.0550
 1.6230	14.0880
 1.6240	14.1220
 1.6250	14.1550
 1.6260	14.1850
 1.6270	14.2160
 1.6280	14.2440
 1.6290	14.2730
 1.6300	14.3010
 1.6310	14.3290
 1.6320	14.3560
 1.6330	14.3810
 1.6340	14.4060
 1.6350	14.4300
 1.6360	14.4530
 1.6370	14.4730
 1.6380	14.4930
 1.6390	14.5100
 1.6400	14.5250
 1.6410	14.5380
 1.6420	14.5500
 1.6430	14.5590
 1.6440	14.5670
 1.6450	14.5720
 1.6460	14.5760
 1.6470	14.5790
 1.6480	14.5800
 1.6490	14.5780
 1.6500	14.5760
 1.6510	14.5710
 1.6520	14.5630
 1.6530	14.5550
 1.6540	14.5470
 1.6550	14.5380
 1.6560	14.5300
 1.6570	14.5210
 1.6580	14.5130
 1.6590	14.5050
 1.6600	14.4970
 1.6610	14.4920
 1.6620	14.4880
 1.6630	14.4860
 1.6640	14.4860
 1.6650	14.4870
 1.6660	14.4890
 1.6670	14.4930
 1.6680	14.4980
 1.6690	14.5030
 1.6700	14.5100
 1.6710	14.5170
 1.6720	14.5240
 1.6730	14.5320
 1.6740	14.5390
 1.6750	14.5430
 1.6760	14.5450
 1.6770	14.5470
 1.6780	14.5450
 1.6790	14.5430
 1.6800	14.5390
 1.6810	14.5340
 1.6820	14.5260
 1.6830	14.5160
 1.6840	14.5030
 1.6850	14.4880
 1.6860	14.4720
 1.6870	14.4550
 1.6880	14.4380
 1.6890	14.4180
 1.6900	14.3970
 1.6910	14.3760
 1.6920	14.3530
 1.6930	14.3300
 1.6940	14.3060
 1.6950	14.2800
 1.6960	14.2530
 1.6970	14.2240
 1.6980	14.1940
 1.6990	14.1620
 1.7000	14.1300
 1.7010	14.0960
 1.7020	14.0610
 1.7030	14.0260
 1.7040	13.9900
 1.7050	13.9530
 1.7060	13.9150
 1.7070	13.8750
 1.7080	13.8360
 1.7090	13.7970
 1.7100	13.7570
 1.7110	13.7170
 1.7120	13.6750
 1.7130	13.6320
 1.7140	13.5900
 1.7150	13.5480
 1.7160	13.5060
 1.7170	13.4640
 1.7180	13.4220
 1.7190	13.3800
 1.7200	13.3380
 1.7210	13.2970
 1.7220	13.2540
 1.7230	13.2120
 1.7240	13.1710
 1.7250	13.1300
 1.7260	13.0900
 1.7270	13.0510
 1.7280	13.0140
 1.7290	12.9780
 1.7300	12.9460
 1.7310	12.9120
 1.7320	12.8780
 1.7330	12.8450
 1.7340	12.8130
 1.7350	12.7810
 1.7360	12.7500
 1.7370	12.7170
 1.7380	12.6820
 1.7390	12.6470
 1.7400	12.6110
 1.7410	12.5740
 1.7420	12.5370
 1.7430	12.4990
 1.7440	12.4600
 1.7450	12.4190
 1.7460	12.3760
 1.7470	12.3340
 1.7480	12.2900
 1.7490	12.2480
 1.7500	12.2070
 1.7510	12.1660
 1.7520	12.1250
 1.7530	12.0830
 1.7540	12.0410
 1.7550	11.9990
 1.7560	11.9570
 1.7570	11.9160
 1.7580	11.8770
 1.7590	11.8380
 1.7600	11.8000
 1.7610	11.7610
 1.7620	11.7240
 1.7630	11.6880
 1.7640	11.6520
 1.7650	11.6170
 1.7660	11.5840
 1.7670	11.5520
 1.7680	11.5210
 1.7690	11.4910
 1.7700	11.4610
 1.7710	11.4320
 1.7720	11.4030
 1.7730	11.3730
 1.7740	11.3450
 1.7750	11.3170
 1.7760	11.2910
 1.7770	11.2660
 1.7780	11.2430
 1.7790	11.2210
 1.7800	11.2000
 1.7810	11.1800
 1.7820	11.1600
 1.7830	11.1400
 1.7840	11.1230
 1.7850	11.1080
 1.7860	11.0930
 1.7870	11.0800
 1.7880	11.0670
 1.7890	11.0550
 1.7900	11.0460
 1.7910	11.0370
 1.7920	11.0310
 1.7930	11.0250
 1.7940	11.0190
 1.7950	11.0140
 1.7960	11.0090
 1.7970	11.0060
 1.7980	11.0060
 1.7990	11.0050
 1.8000	11.0070
 1.8010	11.0080
 1.8020	11.0060
 1.8030	11.0070
 1.8040	11.0090
 1.8050	11.0110
 1.8060	11.0150
 1.8070	11.0170
 1.8080	11.0180
 1.8090	11.0180
 1.8100	11.0170
 1.8110	11.0190
 1.8120	11.0200
 1.8130	11.0220
 1.8140	11.0240
 1.8150	11.0260
 1.8160	11.0270
 1.8170	11.0260
 1.8180	11.0240
 1.8190	11.0190
 1.8200	11.0150
 1.8210	11.0120
 1.8220	11.0090
 1.8230	11.0050
 1.8240	11.0000
 1.8250	10.9930
 1.8260	10.9860
 1.8270	10.9530
 1.8280	10.9200
 1.8290	10.8870
 1.8300	10.8540
 1.8310	10.8210
 1.8320	10.7880
 1.8330	10.7550
 1.8340	10.7220
 1.8350	10.7220
 1.8360	10.6950
 1.8370	10.6640
 1.8380	10.6310
 1.8390	10.5920
 1.8400	10.5510
 1.8410	10.5050
 1.8420	10.4570
 1.8430	10.4040
 1.8440	10.3470
 1.8450	10.2860
 1.8460	10.2190
 1.8470	10.1470
 1.8480	10.0690
 1.8490	 9.9850
 1.8500	 9.8940
 1.8510	 9.7980
 1.8520	 9.6950
 1.8530	 9.5860
 1.8540	 9.4730
 1.8550	 9.3520
 1.8560	 9.2260
 1.8570	 9.0930
 1.8580	 8.9510
 1.8590	 8.8030
 1.8600	 8.6480
 1.8610	 8.4860
 1.8620	 8.3170
 1.8630	 8.1430
 1.8640	 7.9610
 1.8650	 7.7710
 1.8660	 7.5740
 1.8670	 7.3670
 1.8680	 7.1580
 1.8690	 6.9420
 1.8700	 6.7220
 1.8710	 6.4970
 1.8720	 6.2740
 1.8730	 6.0500
 1.8740	 5.8260
 1.8750	 5.6070
 1.8760	 5.3880
 1.8770	 5.1710
 1.8780	 4.9590
 1.8790	 4.7520
 1.8800	 4.5550
 1.8810	 4.3640
 1.8820	 4.1800
 1.8830	 4.0030
 1.8840	 3.8360
 1.8850	 3.6760
 1.8860	 3.5240
 1.8870	 3.3820
 1.8880	 3.2500
 1.8890	 3.1300
 1.8900	 3.0180
 1.8910	 2.9140
 1.8920	 2.8200
 1.8930	 2.7360
 1.8940	 2.6560
 1.8950	 2.5870
 1.8960	 2.5260
 1.8970	 2.4690
 1.8980	 2.4220
 1.8990	 2.3790
 1.9000	 2.3390
 1.9010	 2.3060
 1.9020	 2.2740
 1.9030	 2.2440
 1.9040	 2.2190
 1.9050	 2.2010
 1.9060	 2.1820
 1.9070	 2.1690
 1.9080	 2.1570
 1.9090	 2.1460
 1.9100	 2.1380
 1.9110	 2.1300
 1.9120	 2.1230
 1.9130	 2.1170
 1.9140	 2.1100
 1.9150	 2.1040
 1.9160	 2.1000
 1.9170	 2.0970
 1.9180	 2.0950
 1.9190	 2.0930
 1.9200	 2.0890
 1.9210	 2.0850
 1.9220	 2.0830
 1.9230	 2.0820
 1.9240	 2.0820
 1.9250	 2.0820
 1.9260	 2.0830
 1.9270	 2.0850
 1.9280	 2.0840
 1.9290	 2.0860
 1.9300	 2.0890
 1.9310	 2.0900
 1.9320	 2.0910
 1.9330	 2.0920
 1.9340	 2.0940
 1.9350	 2.0960
 1.9360	 2.1000
 1.9370	 2.1020
 1.9380	 2.1060
 1.9390	 2.1070
 1.9400	 2.1090
 1.9410	 2.1120
 1.9420	 2.1150
 1.9430	 2.1200
 1.9440	 2.1240
 1.9450	 2.1290
 1.9460	 2.1330
 1.9470	 2.1380
 1.9480	 2.1440
 1.9490	 2.1500
 1.9500	 2.1550
 1.9510	 2.1600
 1.9520	 2.1640
 1.9530	 2.1690
 1.9540	 2.1750
 1.9550	 2.1810
 1.9560	 2.1890
 1.9570	 2.1950
 1.9580	 2.2010
 1.9590	 2.2070
 1.9600	 2.2130
 1.9610	 2.2200
 1.9620	 2.2270
 1.9630	 2.2340
 1.9640	 2.2400
 1.9650	 2.2460
 1.9660	 2.2530
 1.9670	 2.2630
 1.9680	 2.2720
 1.9690	 2.2830
 1.9700	 2.2930
 1.9710	 2.3040
 1.9720	 2.3130
 1.9730	 2.3220
 1.9740	 2.3330
 1.9750	 2.3410
 1.9760	 2.3510
 1.9770	 2.3620
 1.9780	 2.3720
 1.9790	 2.3830
 1.9800	 2.3940
 1.9810	 2.4050
 1.9820	 2.4170
 1.9830	 2.4290
 1.9840	 2.4420
 1.9850	 2.4550
 1.9860	 2.4690
 1.9870	 2.4830
 1.9880	 2.4970
 1.9890	 2.5140
 1.9900	 2.5310
 1.9910	 2.5450
 1.9920	 2.5590
 1.9930	 2.5720
 1.9940	 2.5860
 1.9950	 2.5990
 1.9960	 2.6130
 1.9970	 2.6270
 1.9980	 2.6410
 1.9990	 2.6560
 2.0000	 2.6710
 2.0010	 2.6880
 2.0020	 2.7060
 2.0030	 2.7220
 2.0040	 2.7380
 2.0050	 2.7540
 2.0060	 2.7690
 2.0070	 2.7860
 2.0080	 2.8020
 2.0090	 2.8200
 2.0100	 2.8410
 2.0110	 2.8590
 2.0120	 2.8770
 2.0130	 2.8920
 2.0140	 2.9060
 2.0150	 2.9210
 2.0160	 2.9370
 2.0170	 2.9560
 2.0180	 2.9740
 2.0190	 2.9920
 2.0200	 3.0080
 2.0210	 3.0250
 2.0220	 3.0410
 2.0230	 3.0560
 2.0240	 3.0730
 2.0250	 3.0900
 2.0260	 3.1070
 2.0270	 3.1240
 2.0280	 3.1410
 2.0290	 3.1560
 2.0300	 3.1710
 2.0310	 3.1870
 2.0320	 3.2030
 2.0330	 3.2180
 2.0340	 3.2330
 2.0350	 3.2470
 2.0360	 3.2580
 2.0370	 3.2720
 2.0380	 3.2860
 2.0390	 3.3010
 2.0400	 3.3170
 2.0410	 3.3320
 2.0420	 3.3440
 2.0430	 3.3590
 2.0440	 3.3720
 2.0450	 3.3850
 2.0460	 3.3990
 2.0470	 3.4120
 2.0480	 3.4260
 2.0490	 3.4400
 2.0500	 3.4550
 2.0510	 3.4700
 2.0520	 3.4840
 2.0530	 3.4970
 2.0540	 3.5100
 2.0550	 3.5230
 2.0560	 3.5350
 2.0570	 3.5480
 2.0580	 3.5610
 2.0590	 3.5750
 2.0600	 3.5900
 2.0610	 3.6050
 2.0620	 3.6210
 2.0630	 3.6340
 2.0640	 3.6460
 2.0650	 3.6590
 2.0660	 3.6720
 2.0670	 3.6850
 2.0680	 3.6970
 2.0690	 3.7120
 2.0700	 3.7290
 2.0710	 3.7440
 2.0720	 3.7580
 2.0730	 3.7740
 2.0740	 3.7890
 2.0750	 3.8040
 2.0760	 3.8190
 2.0770	 3.8360
 2.0780	 3.8510
 2.0790	 3.8630
 2.0800	 3.8760
 2.0810	 3.8910
 2.0820	 3.9040
 2.0830	 3.9180
 2.0840	 3.9320
 2.0850	 3.9460
 2.0860	 3.9590
 2.0870	 3.9720
 2.0880	 3.9840
 2.0890	 3.9970
 2.0900	 4.0090
 2.0910	 4.0210
 2.0920	 4.0330
 2.0930	 4.0450
 2.0940	 4.0560
 2.0950	 4.0680
 2.0960	 4.0790
 2.0970	 4.0910
 2.0980	 4.1050
 2.0990	 4.1180
 2.1000	 4.1340
 2.1010	 4.1480
 2.1020	 4.1640
 2.1030	 4.1780
 2.1040	 4.1900
 2.1050	 4.2030
 2.1060	 4.2150
 2.1070	 4.2240
 2.1080	 4.2370
 2.1090	 4.2510
 2.1100	 4.2650
 2.1110	 4.2800
 2.1120	 4.2930
 2.1130	 4.3060
 2.1140	 4.3170
 2.1150	 4.3260
 2.1160	 4.3370
 2.1170	 4.3450
 2.1180	 4.3560
 2.1190	 4.3700
 2.1200	 4.3810
 2.1210	 4.3910
 2.1220	 4.4010
 2.1230	 4.4110
 2.1240	 4.4180
 2.1250	 4.4280
 2.1260	 4.4390
 2.1270	 4.4500
 2.1280	 4.4620
 2.1290	 4.4720
 2.1300	 4.4820
 2.1310	 4.4910
 2.1320	 4.4990
 2.1330	 4.5090
 2.1340	 4.5200
 2.1350	 4.5300
 2.1360	 4.5390
 2.1370	 4.5490
 2.1380	 4.5590
 2.1390	 4.5690
 2.1400	 4.5800
 2.1410	 4.5910
 2.1420	 4.6010
 2.1430	 4.6100
 2.1440	 4.6210
 2.1450	 4.6320
 2.1460	 4.6440
 2.1470	 4.6590
 2.1480	 4.6710
 2.1490	 4.6840
 2.1500	 4.6950
 2.1510	 4.7050
 2.1520	 4.7150
 2.1530	 4.7200
 2.1540	 4.7300
 2.1550	 4.7400
 2.1560	 4.7510
 2.1570	 4.7680
 2.1580	 4.7820
 2.1590	 4.7930
 2.1600	 4.8050
 2.1610	 4.8150
 2.1620	 4.8240
 2.1630	 4.8350
 2.1640	 4.8460
 2.1650	 4.8570
 2.1660	 4.8690
 2.1670	 4.8790
 2.1680	 4.8870
 2.1690	 4.8970
 2.1700	 4.9080
 2.1710	 4.9180
 2.1720	 4.9290
 2.1730	 4.9380
 2.1740	 4.9450
 2.1750	 4.9550
 2.1760	 4.9650
 2.1770	 4.9760
 2.1780	 4.9880
 2.1790	 4.9990
 2.1800	 5.0130
 2.1810	 5.0240
 2.1820	 5.0340
 2.1830	 5.0450
 2.1840	 5.0550
 2.1850	 5.0640
 2.1860	 5.0740
 2.1870	 5.0840
 2.1880	 5.0940
 2.1890	 5.1010
 2.1900	 5.1110
 2.1910	 5.1220
 2.1920	 5.1340
 2.1930	 5.1480
 2.1940	 5.1610
 2.1950	 5.1770
 2.1960	 5.1890
 2.1970	 5.1980
 2.1980	 5.2070
 2.1990	 5.2130
 2.2000	 5.2200
 2.2010	 5.2280
 2.2020	 5.2380
 2.2030	 5.2490
 2.2040	 5.2590
 2.2050	 5.2690
 2.2060	 5.2810
 2.2070	 5.2880
 2.2080	 5.2920
 2.2090	 5.2980
 2.2100	 5.3010
 2.2110	 5.3070
 2.2120	 5.3140
 2.2130	 5.3200
 2.2140	 5.3270
 2.2150	 5.3310
 2.2160	 5.3350
 2.2170	 5.3380
 2.2180	 5.3380
 2.2190	 5.3400
 2.2200	 5.3420
 2.2210	 5.3420
 2.2220	 5.3430
 2.2230	 5.3420
 2.2240	 5.3420
 2.2250	 5.3380
 2.2260	 5.3340
 2.2270	 5.3280
 2.2280	 5.3200
 2.2290	 5.3120
 2.2300	 5.3020
 2.2310	 5.2920
 2.2320	 5.2810
 2.2330	 5.2710
 2.2340	 5.2590
 2.2350	 5.2470
 2.2360	 5.2360
 2.2370	 5.2240
 2.2380	 5.2120
 2.2390	 5.2020
 2.2400	 5.1880
 2.2410	 5.1710
 2.2420	 5.1550
 2.2430	 5.1370
 2.2440	 5.1190
 2.2450	 5.1000
 2.2460	 5.0810
 2.2470	 5.0610
 2.2480	 5.0410
 2.2490	 5.0210
 2.2500	 5.0020
 2.2510	 4.9820
 2.2520	 4.9630
 2.2530	 4.9440
 2.2540	 4.9250
 2.2550	 4.9080
 2.2560	 4.8880
 2.2570	 4.8640
 2.2580	 4.8430
 2.2590	 4.8210
 2.2600	 4.7980
 2.2610	 4.7760
 2.2620	 4.7550
 2.2630	 4.7270
 2.2640	 4.7030
 2.2650	 4.6810
 2.2660	 4.6580
 2.2670	 4.6400
 2.2680	 4.6260
 2.2690	 4.6080
 2.2700	 4.5900
 2.2710	 4.5710
 2.2720	 4.5510
 2.2730	 4.5310
 2.2740	 4.5120
 2.2750	 4.4930
 2.2760	 4.4740
 2.2770	 4.4560
 2.2780	 4.4390
 2.2790	 4.4210
 2.2800	 4.4050
 2.2810	 4.3870
 2.2820	 4.3700
 2.2830	 4.3510
 2.2840	 4.3310
 2.2850	 4.3120
 2.2860	 4.2910
 2.2870	 4.2730
 2.2880	 4.2570
 2.2890	 4.2410
 2.2900	 4.2260
 2.2910	 4.2090
 2.2920	 4.1920
 2.2930	 4.1740
 2.2940	 4.1550
 2.2950	 4.1380
 2.2960	 4.1240
 2.2970	 4.1070
 2.2980	 4.0910
 2.2990	 4.0740
 2.3000	 4.0540
 2.3010	 4.0320
 2.3020	 4.0130
 2.3030	 3.9940
 2.3040	 3.9740
 2.3050	 3.9560
 2.3060	 3.9410
 2.3070	 3.9280
 2.3080	 3.9180
 2.3090	 3.9090
 2.3100	 3.8990
 2.3110	 3.8920
 2.3120	 3.8820
 2.3130	 3.8710
 2.3140	 3.8630
 2.3150	 3.8550
 2.3160	 3.8450
 2.3170	 3.8370
 2.3180	 3.8270
 2.3190	 3.8140
 2.3200	 3.8030
 2.3210	 3.7970
 2.3220	 3.7860
 2.3230	 3.7750
 2.3240	 3.7600
 2.3250	 3.7410
 2.3260	 3.7260
 2.3270	 3.7070
 2.3280	 3.6950
 2.3290	 3.6920
 2.3300	 3.6800
 2.3310	 3.6690
 2.3320	 3.6550
 2.3330	 3.6350
 2.3340	 3.6170
 2.3350	 3.5990
 2.3360	 3.5810
 2.3370	 3.5610
 2.3380	 3.5440
 2.3390	 3.5270
 2.3400	 3.5110
 2.3410	 3.4950
 2.3420	 3.4810
 2.3430	 3.4650
 2.3440	 3.4540
 2.3450	 3.4510
 2.3460	 3.4420
 2.3470	 3.4340
 2.3480	 3.4240
 2.3490	 3.4060
 2.3500	 3.3900
 2.3510	 3.3750
 2.3520	 3.3620
 2.3530	 3.3490
 2.3540	 3.3420
 2.3550	 3.3310
 2.3560	 3.3240
 2.3570	 3.3190
 2.3580	 3.3090
 2.3590	 3.2970
 2.3600	 3.2810
 2.3610	 3.2680
 2.3620	 3.2580
 2.3630	 3.2490
 2.3640	 3.2450
 2.3650	 3.2340
 2.3660	 3.2160
 2.3670	 3.2070
 2.3680	 3.1950
 2.3690	 3.1830
 2.3700	 3.1710
 2.3710	 3.1460
 2.3720	 3.1230
 2.3730	 3.1080
 2.3740	 3.0970
 2.3750	 3.0910
 2.3760	 3.0910
 2.3770	 3.0850
 2.3780	 3.0730
 2.3790	 3.0640
 2.3800	 3.0490
 2.3810	 3.0330
 2.3820	 3.0230
 2.3830	 3.0130
 2.3840	 3.0010
 2.3850	 2.9980
 2.3860	 2.9950
 2.3870	 2.9870
 2.3880	 2.9900
 2.3890	 2.9880
 2.3900	 2.9780
 2.3910	 2.9700
 2.3920	 2.9520
 2.3930	 2.9260
 2.3940	 2.9080
 2.3950	 2.9000
 2.3960	 2.8910
 2.3970	 2.8940
 2.3980	 2.8850
 2.3990	 2.8600
 2.4000	 2.8470
 2.4010	 2.8310
 2.4020	 2.8230
 2.4030	 2.8210
 2.4040	 2.8130
 2.4050	 2.8030
 2.4060	 2.7870
 2.4070	 2.7770
 2.4080	 2.7740
 2.4090	 2.7780
 2.4100	 2.7770
 2.4110	 2.7570
 2.4120	 2.7420
 2.4130	 2.7200
 2.4140	 2.7010
 2.4150	 2.7050
 2.4160	 2.6990
 2.4170	 2.6920
 2.4180	 2.6840
 2.4190	 2.6600
 2.4200	 2.6380
 2.4210	 2.6230
 2.4220	 2.6110
 2.4230	 2.6030
 2.4240	 2.5990
 2.4250	 2.5870
 2.4260	 2.5680
 2.4270	 2.5630
 2.4280	 2.5620
 2.4290	 2.5590
 2.4300	 2.5560
 2.4310	 2.5420
 2.4320	 2.5260
 2.4330	 2.5120
 2.4340	 2.4940
 2.4350	 2.4840
 2.4360	 2.4770
 2.4370	 2.4690
 2.4380	 2.4770
 2.4390	 2.4780
 2.4400	 2.4550
 2.4410	 2.4470
 2.4420	 2.4420
 2.4430	 2.4270
 2.4440	 2.4250
 2.4450	 2.4180
 2.4460	 2.3800
 2.4470	 2.3600
 2.4480	 2.3680
 2.4490	 2.3660
 2.4500	 2.3730
 2.4510	 2.3800
 2.4520	 2.3750
 2.4530	 2.3720
 2.4540	 2.3730
 2.4550	 2.3660
 2.4560	 2.3540
 2.4570	 2.3440
 2.4580	 2.3330
 2.4590	 2.3350
 2.4600	 2.3340
 2.4610	 2.3160
 2.4620	 2.3030
 2.4630	 2.2900
 2.4640	 2.2580
 2.4650	 2.2520
 2.4660	 2.2630
 2.4670	 2.2630
 2.4680	 2.2780
 2.4690	 2.2790
 2.4700	 2.2750
 2.4710	 2.2680
 2.4720	 2.2690
 2.4730	 2.2840
 2.4740	 2.2780
 2.4750	 2.2640
 2.4760	 2.2470
 2.4770	 2.1990
 2.4780	 2.1840
 2.4790	 2.1910
 2.4800	 2.1840
 2.4810	 2.1950
 2.4820	 2.1590
 2.4830	 2.1520
 2.4840	 2.1460
 2.4850	 2.1120
 2.4860	 2.1120
 2.4870	 2.1350
 2.4880	 2.1210
 2.4890	 2.1340
 2.4900	 2.1640
 2.4910	 2.1660
 2.4920	 2.2020
 2.4930	 2.2220
 2.4940	 2.1980
 2.4950	 2.1780
 2.4960	 2.1680
 2.4970	 2.1690
 2.4980	 2.1880
 2.4990	 2.2290
 2.5000	 2.2500
