Name: Ombu tree
Type: vegetation
Class: Tree
Genus: Ombu
Species: tree
Sample No.: JPL166
Owner: JPL
Wavelength Range: VSWIR
Origin: 34.12568; -118.11213; WGS84
Collection Date: 9/14/2016
Description: Samples were collected at the Huntington Garden in San Marino California as part of a JPL Subcontract studying HyTES imagery. Samples were taken to JPL and processed within 48 hours of collection. The same leaves were processed in the Nicolet and then measured using the ASD.
Measurement: Bidirectional reflectance
First Column: X
Second Column: Y
X Units: Wavelength (micrometer)
Y Units: Reflectance (percentage)
First X Value: 0.35
Last X Value: 2.5
Number of X Values: 2151
Additional Information: vegetation.tree.ombu.tree.vswir.jpl166.jpl.asd.ancillary.txt

 0.3500	 3.1880
 0.3510	 3.2340
 0.3520	 3.1790
 0.3530	 3.0900
 0.3540	 3.0510
 0.3550	 3.0290
 0.3560	 3.0560
 0.3570	 3.0840
 0.3580	 3.0400
 0.3590	 3.0520
 0.3600	 3.0430
 0.3610	 2.9890
 0.3620	 2.9620
 0.3630	 2.9660
 0.3640	 2.9910
 0.3650	 3.0210
 0.3660	 3.0340
 0.3670	 2.9620
 0.3680	 2.8840
 0.3690	 2.9600
 0.3700	 3.0210
 0.3710	 3.0160
 0.3720	 2.9600
 0.3730	 2.9490
 0.3740	 2.9880
 0.3750	 3.0330
 0.3760	 3.0310
 0.3770	 2.9570
 0.3780	 2.8980
 0.3790	 2.8960
 0.3800	 2.9450
 0.3810	 2.9620
 0.3820	 2.9730
 0.3830	 2.9920
 0.3840	 2.9370
 0.3850	 2.9180
 0.3860	 2.9160
 0.3870	 2.8810
 0.3880	 2.9260
 0.3890	 2.9530
 0.3900	 2.9240
 0.3910	 2.8760
 0.3920	 2.9100
 0.3930	 2.9160
 0.3940	 2.8360
 0.3950	 2.8550
 0.3960	 2.8980
 0.3970	 2.9340
 0.3980	 2.9510
 0.3990	 2.9100
 0.4000	 2.8810
 0.4010	 2.8970
 0.4020	 2.9380
 0.4030	 2.9430
 0.4040	 2.9360
 0.4050	 2.9480
 0.4060	 2.9370
 0.4070	 2.9680
 0.4080	 3.0170
 0.4090	 3.0080
 0.4100	 3.0150
 0.4110	 3.0360
 0.4120	 3.0600
 0.4130	 3.0740
 0.4140	 3.1000
 0.4150	 3.1390
 0.4160	 3.1830
 0.4170	 3.2120
 0.4180	 3.2360
 0.4190	 3.2650
 0.4200	 3.3130
 0.4210	 3.3500
 0.4220	 3.3840
 0.4230	 3.4230
 0.4240	 3.4580
 0.4250	 3.4980
 0.4260	 3.5390
 0.4270	 3.5690
 0.4280	 3.5990
 0.4290	 3.6300
 0.4300	 3.6610
 0.4310	 3.6900
 0.4320	 3.7320
 0.4330	 3.7710
 0.4340	 3.7920
 0.4350	 3.8210
 0.4360	 3.8500
 0.4370	 3.8750
 0.4380	 3.8960
 0.4390	 3.9220
 0.4400	 3.9540
 0.4410	 3.9860
 0.4420	 4.0100
 0.4430	 4.0270
 0.4440	 4.0470
 0.4450	 4.0800
 0.4460	 4.1070
 0.4470	 4.1360
 0.4480	 4.1660
 0.4490	 4.1870
 0.4500	 4.2100
 0.4510	 4.2330
 0.4520	 4.2540
 0.4530	 4.2750
 0.4540	 4.2980
 0.4550	 4.3230
 0.4560	 4.3440
 0.4570	 4.3540
 0.4580	 4.3580
 0.4590	 4.3660
 0.4600	 4.3790
 0.4610	 4.3850
 0.4620	 4.3910
 0.4630	 4.4060
 0.4640	 4.4130
 0.4650	 4.4140
 0.4660	 4.4160
 0.4670	 4.4260
 0.4680	 4.4340
 0.4690	 4.4380
 0.4700	 4.4390
 0.4710	 4.4410
 0.4720	 4.4460
 0.4730	 4.4540
 0.4740	 4.4620
 0.4750	 4.4640
 0.4760	 4.4670
 0.4770	 4.4720
 0.4780	 4.4800
 0.4790	 4.4870
 0.4800	 4.4920
 0.4810	 4.4970
 0.4820	 4.5080
 0.4830	 4.5130
 0.4840	 4.5160
 0.4850	 4.5310
 0.4860	 4.5450
 0.4870	 4.5550
 0.4880	 4.5640
 0.4890	 4.5750
 0.4900	 4.5890
 0.4910	 4.6070
 0.4920	 4.6260
 0.4930	 4.6470
 0.4940	 4.6690
 0.4950	 4.6920
 0.4960	 4.7140
 0.4970	 4.7460
 0.4980	 4.7840
 0.4990	 4.8170
 0.5000	 4.8490
 0.5010	 4.8840
 0.5020	 4.9270
 0.5030	 4.9780
 0.5040	 5.0260
 0.5050	 5.0760
 0.5060	 5.1330
 0.5070	 5.1920
 0.5080	 5.2560
 0.5090	 5.3240
 0.5100	 5.3940
 0.5110	 5.4690
 0.5120	 5.5510
 0.5130	 5.6390
 0.5140	 5.7280
 0.5150	 5.8320
 0.5160	 5.9410
 0.5170	 6.0490
 0.5180	 6.1630
 0.5190	 6.2840
 0.5200	 6.4110
 0.5210	 6.5420
 0.5220	 6.6790
 0.5230	 6.8160
 0.5240	 6.9490
 0.5250	 7.0800
 0.5260	 7.2110
 0.5270	 7.3400
 0.5280	 7.4630
 0.5290	 7.5780
 0.5300	 7.6850
 0.5310	 7.7830
 0.5320	 7.8730
 0.5330	 7.9560
 0.5340	 8.0320
 0.5350	 8.1010
 0.5360	 8.1630
 0.5370	 8.2170
 0.5380	 8.2640
 0.5390	 8.3110
 0.5400	 8.3570
 0.5410	 8.4050
 0.5420	 8.4540
 0.5430	 8.4910
 0.5440	 8.5180
 0.5450	 8.5360
 0.5460	 8.5460
 0.5470	 8.5510
 0.5480	 8.5560
 0.5490	 8.5630
 0.5500	 8.5720
 0.5510	 8.5770
 0.5520	 8.5740
 0.5530	 8.5600
 0.5540	 8.5400
 0.5550	 8.5120
 0.5560	 8.4760
 0.5570	 8.4320
 0.5580	 8.3830
 0.5590	 8.3280
 0.5600	 8.2670
 0.5610	 8.2020
 0.5620	 8.1340
 0.5630	 8.0630
 0.5640	 7.9870
 0.5650	 7.9090
 0.5660	 7.8280
 0.5670	 7.7440
 0.5680	 7.6590
 0.5690	 7.5710
 0.5700	 7.4830
 0.5710	 7.4010
 0.5720	 7.3180
 0.5730	 7.2400
 0.5740	 7.1690
 0.5750	 7.1040
 0.5760	 7.0460
 0.5770	 6.9910
 0.5780	 6.9380
 0.5790	 6.8910
 0.5800	 6.8480
 0.5810	 6.8070
 0.5820	 6.7650
 0.5830	 6.7260
 0.5840	 6.6860
 0.5850	 6.6470
 0.5860	 6.6080
 0.5870	 6.5700
 0.5880	 6.5360
 0.5890	 6.5060
 0.5900	 6.4810
 0.5910	 6.4590
 0.5920	 6.4420
 0.5930	 6.4250
 0.5940	 6.4070
 0.5950	 6.3920
 0.5960	 6.3790
 0.5970	 6.3660
 0.5980	 6.3520
 0.5990	 6.3370
 0.6000	 6.3220
 0.6010	 6.3030
 0.6020	 6.2840
 0.6030	 6.2640
 0.6040	 6.2400
 0.6050	 6.2120
 0.6060	 6.1830
 0.6070	 6.1530
 0.6080	 6.1190
 0.6090	 6.0880
 0.6100	 6.0620
 0.6110	 6.0410
 0.6120	 6.0040
 0.6130	 5.9570
 0.6140	 5.9090
 0.6150	 5.8710
 0.6160	 5.8340
 0.6170	 5.7990
 0.6180	 5.7720
 0.6190	 5.7480
 0.6200	 5.7240
 0.6210	 5.7020
 0.6220	 5.6850
 0.6230	 5.6680
 0.6240	 5.6530
 0.6250	 5.6410
 0.6260	 5.6320
 0.6270	 5.6250
 0.6280	 5.6190
 0.6290	 5.6140
 0.6300	 5.6100
 0.6310	 5.6060
 0.6320	 5.5990
 0.6330	 5.5870
 0.6340	 5.5750
 0.6350	 5.5590
 0.6360	 5.5390
 0.6370	 5.5150
 0.6380	 5.4870
 0.6390	 5.4570
 0.6400	 5.4260
 0.6410	 5.3950
 0.6420	 5.3590
 0.6430	 5.3210
 0.6440	 5.2880
 0.6450	 5.2540
 0.6460	 5.2190
 0.6470	 5.1860
 0.6480	 5.1590
 0.6490	 5.1370
 0.6500	 5.1170
 0.6510	 5.0970
 0.6520	 5.0810
 0.6530	 5.0660
 0.6540	 5.0520
 0.6550	 5.0370
 0.6560	 5.0210
 0.6570	 5.0030
 0.6580	 4.9810
 0.6590	 4.9540
 0.6600	 4.9270
 0.6610	 4.9010
 0.6620	 4.8740
 0.6630	 4.8500
 0.6640	 4.8290
 0.6650	 4.8100
 0.6660	 4.7930
 0.6670	 4.7790
 0.6680	 4.7710
 0.6690	 4.7710
 0.6700	 4.7760
 0.6710	 4.7850
 0.6720	 4.7980
 0.6730	 4.8170
 0.6740	 4.8420
 0.6750	 4.8720
 0.6760	 4.9080
 0.6770	 4.9490
 0.6780	 4.9950
 0.6790	 5.0480
 0.6800	 5.1070
 0.6810	 5.1730
 0.6820	 5.2460
 0.6830	 5.3240
 0.6840	 5.4070
 0.6850	 5.4910
 0.6860	 5.5780
 0.6870	 5.6710
 0.6880	 5.7720
 0.6890	 5.8830
 0.6900	 6.0080
 0.6910	 6.1510
 0.6920	 6.3180
 0.6930	 6.5100
 0.6940	 6.7330
 0.6950	 6.9950
 0.6960	 7.2950
 0.6970	 7.6330
 0.6980	 8.0090
 0.6990	 8.4240
 0.7000	 8.8760
 0.7010	 9.3630
 0.7020	 9.8830
 0.7030	10.4320
 0.7040	11.0100
 0.7050	11.6140
 0.7060	12.2450
 0.7070	12.8990
 0.7080	13.5770
 0.7090	14.2820
 0.7100	15.0070
 0.7110	15.7590
 0.7120	16.5380
 0.7130	17.3380
 0.7140	18.1580
 0.7150	19.0000
 0.7160	19.8600
 0.7170	20.7380
 0.7180	21.6280
 0.7190	22.5270
 0.7200	23.4360
 0.7210	24.3460
 0.7220	25.2560
 0.7230	26.1630
 0.7240	27.0600
 0.7250	27.9420
 0.7260	28.8090
 0.7270	29.6590
 0.7280	30.4820
 0.7290	31.2800
 0.7300	32.0510
 0.7310	32.7900
 0.7320	33.4980
 0.7330	34.1740
 0.7340	34.8170
 0.7350	35.4240
 0.7360	35.9990
 0.7370	36.5430
 0.7380	37.0550
 0.7390	37.5280
 0.7400	37.9690
 0.7410	38.3790
 0.7420	38.7570
 0.7430	39.1050
 0.7440	39.4240
 0.7450	39.7160
 0.7460	39.9800
 0.7470	40.2190
 0.7480	40.4360
 0.7490	40.6320
 0.7500	40.8030
 0.7510	40.9570
 0.7520	41.0970
 0.7530	41.2220
 0.7540	41.3310
 0.7550	41.4290
 0.7560	41.5180
 0.7570	41.5950
 0.7580	41.6670
 0.7590	41.7320
 0.7600	41.7890
 0.7610	41.8350
 0.7620	41.8730
 0.7630	41.9060
 0.7640	41.9360
 0.7650	41.9630
 0.7660	41.9830
 0.7670	41.9990
 0.7680	42.0160
 0.7690	42.0270
 0.7700	42.0360
 0.7710	42.0450
 0.7720	42.0500
 0.7730	42.0570
 0.7740	42.0630
 0.7750	42.0690
 0.7760	42.0720
 0.7770	42.0750
 0.7780	42.0790
 0.7790	42.0840
 0.7800	42.0870
 0.7810	42.0900
 0.7820	42.0950
 0.7830	42.1000
 0.7840	42.1030
 0.7850	42.1050
 0.7860	42.1070
 0.7870	42.1080
 0.7880	42.1080
 0.7890	42.1070
 0.7900	42.1070
 0.7910	42.1060
 0.7920	42.1040
 0.7930	42.1020
 0.7940	42.1050
 0.7950	42.1010
 0.7960	42.0950
 0.7970	42.0920
 0.7980	42.0870
 0.7990	42.0840
 0.8000	42.0790
 0.8010	42.0710
 0.8020	42.0630
 0.8030	42.0540
 0.8040	42.0460
 0.8050	42.0370
 0.8060	42.0270
 0.8070	42.0160
 0.8080	42.0050
 0.8090	41.9950
 0.8100	41.9870
 0.8110	41.9770
 0.8120	41.9650
 0.8130	41.9510
 0.8140	41.9350
 0.8150	41.9210
 0.8160	41.9100
 0.8170	41.8930
 0.8180	41.8800
 0.8190	41.8700
 0.8200	41.8550
 0.8210	41.8380
 0.8220	41.8220
 0.8230	41.8070
 0.8240	41.7910
 0.8250	41.7740
 0.8260	41.7570
 0.8270	41.7410
 0.8280	41.7260
 0.8290	41.7070
 0.8300	41.6870
 0.8310	41.6660
 0.8320	41.6510
 0.8330	41.6370
 0.8340	41.6210
 0.8350	41.6020
 0.8360	41.5890
 0.8370	41.5780
 0.8380	41.5680
 0.8390	41.5560
 0.8400	41.5460
 0.8410	41.5340
 0.8420	41.5210
 0.8430	41.5120
 0.8440	41.5030
 0.8450	41.4940
 0.8460	41.4860
 0.8470	41.4790
 0.8480	41.4730
 0.8490	41.4660
 0.8500	41.4560
 0.8510	41.4470
 0.8520	41.4420
 0.8530	41.4380
 0.8540	41.4340
 0.8550	41.4290
 0.8560	41.4250
 0.8570	41.4230
 0.8580	41.4270
 0.8590	41.4250
 0.8600	41.4220
 0.8610	41.4230
 0.8620	41.4260
 0.8630	41.4220
 0.8640	41.4180
 0.8650	41.4210
 0.8660	41.4260
 0.8670	41.4290
 0.8680	41.4290
 0.8690	41.4280
 0.8700	41.4300
 0.8710	41.4330
 0.8720	41.4360
 0.8730	41.4390
 0.8740	41.4460
 0.8750	41.4520
 0.8760	41.4550
 0.8770	41.4590
 0.8780	41.4670
 0.8790	41.4730
 0.8800	41.4770
 0.8810	41.4820
 0.8820	41.4850
 0.8830	41.4880
 0.8840	41.4920
 0.8850	41.5010
 0.8860	41.5090
 0.8870	41.5150
 0.8880	41.5190
 0.8890	41.5270
 0.8900	41.5300
 0.8910	41.5340
 0.8920	41.5440
 0.8930	41.5460
 0.8940	41.5520
 0.8950	41.5620
 0.8960	41.5670
 0.8970	41.5690
 0.8980	41.5720
 0.8990	41.5770
 0.9000	41.5830
 0.9010	41.5930
 0.9020	41.6030
 0.9030	41.6100
 0.9040	41.6110
 0.9050	41.6130
 0.9060	41.6160
 0.9070	41.6170
 0.9080	41.6160
 0.9090	41.6190
 0.9100	41.6250
 0.9110	41.6280
 0.9120	41.6190
 0.9130	41.6160
 0.9140	41.6190
 0.9150	41.6220
 0.9160	41.6160
 0.9170	41.6100
 0.9180	41.6080
 0.9190	41.6080
 0.9200	41.6030
 0.9210	41.5940
 0.9220	41.5810
 0.9230	41.5680
 0.9240	41.5560
 0.9250	41.5460
 0.9260	41.5340
 0.9270	41.5170
 0.9280	41.5050
 0.9290	41.4880
 0.9300	41.4650
 0.9310	41.4440
 0.9320	41.4220
 0.9330	41.4010
 0.9340	41.3770
 0.9350	41.3410
 0.9360	41.3140
 0.9370	41.2920
 0.9380	41.2670
 0.9390	41.2290
 0.9400	41.1980
 0.9410	41.1650
 0.9420	41.1270
 0.9430	41.0930
 0.9440	41.0550
 0.9450	41.0080
 0.9460	40.9570
 0.9470	40.9100
 0.9480	40.8640
 0.9490	40.8110
 0.9500	40.7510
 0.9510	40.6820
 0.9520	40.6110
 0.9530	40.5420
 0.9540	40.4790
 0.9550	40.4100
 0.9560	40.3510
 0.9570	40.2960
 0.9580	40.2360
 0.9590	40.1750
 0.9600	40.1320
 0.9610	40.0980
 0.9620	40.0570
 0.9630	40.0150
 0.9640	39.9820
 0.9650	39.9560
 0.9660	39.9330
 0.9670	39.9200
 0.9680	39.8940
 0.9690	39.8640
 0.9700	39.8480
 0.9710	39.8460
 0.9720	39.8330
 0.9730	39.8160
 0.9740	39.8110
 0.9750	39.7950
 0.9760	39.7840
 0.9770	39.7790
 0.9780	39.7760
 0.9790	39.7660
 0.9800	39.7600
 0.9810	39.7600
 0.9820	39.7660
 0.9830	39.7740
 0.9840	39.7680
 0.9850	39.7620
 0.9860	39.7750
 0.9870	39.7850
 0.9880	39.7900
 0.9890	39.7970
 0.9900	39.8140
 0.9910	39.8220
 0.9920	39.8290
 0.9930	39.8400
 0.9940	39.8530
 0.9950	39.8630
 0.9960	39.8750
 0.9970	39.8940
 0.9980	39.9210
 0.9990	39.9440
 1.0000	39.9550
 1.0010	40.9060
 1.0020	40.9200
 1.0030	40.9380
 1.0040	40.9560
 1.0050	40.9720
 1.0060	40.9900
 1.0070	41.0080
 1.0080	41.0270
 1.0090	41.0470
 1.0100	41.0640
 1.0110	41.0800
 1.0120	41.0980
 1.0130	41.1130
 1.0140	41.1320
 1.0150	41.1560
 1.0160	41.1760
 1.0170	41.1970
 1.0180	41.2180
 1.0190	41.2330
 1.0200	41.2500
 1.0210	41.2670
 1.0220	41.2830
 1.0230	41.3030
 1.0240	41.3290
 1.0250	41.3500
 1.0260	41.3690
 1.0270	41.3870
 1.0280	41.4010
 1.0290	41.4170
 1.0300	41.4310
 1.0310	41.4480
 1.0320	41.4670
 1.0330	41.4860
 1.0340	41.5080
 1.0350	41.5290
 1.0360	41.5470
 1.0370	41.5630
 1.0380	41.5770
 1.0390	41.5870
 1.0400	41.6010
 1.0410	41.6160
 1.0420	41.6320
 1.0430	41.6540
 1.0440	41.6690
 1.0450	41.6790
 1.0460	41.6930
 1.0470	41.7090
 1.0480	41.7200
 1.0490	41.7290
 1.0500	41.7400
 1.0510	41.7480
 1.0520	41.7560
 1.0530	41.7670
 1.0540	41.7850
 1.0550	41.7950
 1.0560	41.8010
 1.0570	41.8090
 1.0580	41.8150
 1.0590	41.8210
 1.0600	41.8290
 1.0610	41.8360
 1.0620	41.8420
 1.0630	41.8460
 1.0640	41.8490
 1.0650	41.8520
 1.0660	41.8530
 1.0670	41.8540
 1.0680	41.8550
 1.0690	41.8560
 1.0700	41.8560
 1.0710	41.8530
 1.0720	41.8530
 1.0730	41.8540
 1.0740	41.8540
 1.0750	41.8570
 1.0760	41.8540
 1.0770	41.8480
 1.0780	41.8430
 1.0790	41.8340
 1.0800	41.8280
 1.0810	41.8250
 1.0820	41.8200
 1.0830	41.8150
 1.0840	41.8090
 1.0850	41.8020
 1.0860	41.7950
 1.0870	41.7860
 1.0880	41.7770
 1.0890	41.7670
 1.0900	41.7550
 1.0910	41.7440
 1.0920	41.7340
 1.0930	41.7240
 1.0940	41.7170
 1.0950	41.7050
 1.0960	41.6910
 1.0970	41.6790
 1.0980	41.6640
 1.0990	41.6510
 1.1000	41.6410
 1.1010	41.6280
 1.1020	41.6160
 1.1030	41.6030
 1.1040	41.5910
 1.1050	41.5760
 1.1060	41.5620
 1.1070	41.5480
 1.1080	41.5340
 1.1090	41.5190
 1.1100	41.5030
 1.1110	41.4880
 1.1120	41.4710
 1.1130	41.4560
 1.1140	41.4380
 1.1150	41.4190
 1.1160	41.3980
 1.1170	41.3770
 1.1180	41.3540
 1.1190	41.3290
 1.1200	41.3040
 1.1210	41.2750
 1.1220	41.2440
 1.1230	41.2090
 1.1240	41.1690
 1.1250	41.1240
 1.1260	41.0780
 1.1270	41.0210
 1.1280	40.9590
 1.1290	40.8900
 1.1300	40.8160
 1.1310	40.7340
 1.1320	40.6480
 1.1330	40.5540
 1.1340	40.4530
 1.1350	40.3430
 1.1360	40.2250
 1.1370	40.1010
 1.1380	39.9700
 1.1390	39.8350
 1.1400	39.6950
 1.1410	39.5540
 1.1420	39.4090
 1.1430	39.2610
 1.1440	39.1150
 1.1450	38.9650
 1.1460	38.8240
 1.1470	38.6850
 1.1480	38.5520
 1.1490	38.4250
 1.1500	38.3030
 1.1510	38.1850
 1.1520	38.0750
 1.1530	37.9730
 1.1540	37.8780
 1.1550	37.7900
 1.1560	37.7110
 1.1570	37.6380
 1.1580	37.5710
 1.1590	37.5110
 1.1600	37.4580
 1.1610	37.4100
 1.1620	37.3650
 1.1630	37.3250
 1.1640	37.2900
 1.1650	37.2560
 1.1660	37.2260
 1.1670	37.1980
 1.1680	37.1730
 1.1690	37.1480
 1.1700	37.1270
 1.1710	37.1070
 1.1720	37.0870
 1.1730	37.0680
 1.1740	37.0490
 1.1750	37.0300
 1.1760	37.0100
 1.1770	36.9920
 1.1780	36.9710
 1.1790	36.9500
 1.1800	36.9290
 1.1810	36.9060
 1.1820	36.8870
 1.1830	36.8700
 1.1840	36.8510
 1.1850	36.8330
 1.1860	36.8160
 1.1870	36.7980
 1.1880	36.7800
 1.1890	36.7620
 1.1900	36.7460
 1.1910	36.7290
 1.1920	36.7160
 1.1930	36.7080
 1.1940	36.6980
 1.1950	36.6880
 1.1960	36.6800
 1.1970	36.6720
 1.1980	36.6660
 1.1990	36.6630
 1.2000	36.6620
 1.2010	36.6640
 1.2020	36.6680
 1.2030	36.6730
 1.2040	36.6820
 1.2050	36.6900
 1.2060	36.7010
 1.2070	36.7100
 1.2080	36.7190
 1.2090	36.7310
 1.2100	36.7450
 1.2110	36.7600
 1.2120	36.7790
 1.2130	36.7970
 1.2140	36.8170
 1.2150	36.8370
 1.2160	36.8580
 1.2170	36.8820
 1.2180	36.9070
 1.2190	36.9300
 1.2200	36.9550
 1.2210	36.9810
 1.2220	37.0080
 1.2230	37.0360
 1.2240	37.0640
 1.2250	37.0890
 1.2260	37.1140
 1.2270	37.1390
 1.2280	37.1640
 1.2290	37.1900
 1.2300	37.2140
 1.2310	37.2340
 1.2320	37.2580
 1.2330	37.2790
 1.2340	37.3000
 1.2350	37.3220
 1.2360	37.3420
 1.2370	37.3590
 1.2380	37.3770
 1.2390	37.3960
 1.2400	37.4130
 1.2410	37.4290
 1.2420	37.4460
 1.2430	37.4630
 1.2440	37.4780
 1.2450	37.4940
 1.2460	37.5080
 1.2470	37.5190
 1.2480	37.5330
 1.2490	37.5450
 1.2500	37.5570
 1.2510	37.5710
 1.2520	37.5800
 1.2530	37.5890
 1.2540	37.5990
 1.2550	37.6070
 1.2560	37.6150
 1.2570	37.6240
 1.2580	37.6310
 1.2590	37.6370
 1.2600	37.6430
 1.2610	37.6460
 1.2620	37.6480
 1.2630	37.6500
 1.2640	37.6490
 1.2650	37.6470
 1.2660	37.6470
 1.2670	37.6430
 1.2680	37.6390
 1.2690	37.6350
 1.2700	37.6280
 1.2710	37.6220
 1.2720	37.6160
 1.2730	37.6090
 1.2740	37.6010
 1.2750	37.5900
 1.2760	37.5760
 1.2770	37.5620
 1.2780	37.5470
 1.2790	37.5300
 1.2800	37.5110
 1.2810	37.4910
 1.2820	37.4700
 1.2830	37.4470
 1.2840	37.4250
 1.2850	37.3990
 1.2860	37.3700
 1.2870	37.3380
 1.2880	37.3050
 1.2890	37.2690
 1.2900	37.2310
 1.2910	37.1900
 1.2920	37.1470
 1.2930	37.1020
 1.2940	37.0560
 1.2950	37.0090
 1.2960	36.9580
 1.2970	36.9050
 1.2980	36.8490
 1.2990	36.7890
 1.3000	36.7260
 1.3010	36.6600
 1.3020	36.5930
 1.3030	36.5250
 1.3040	36.4560
 1.3050	36.3850
 1.3060	36.3090
 1.3070	36.2300
 1.3080	36.1480
 1.3090	36.0640
 1.3100	35.9770
 1.3110	35.8870
 1.3120	35.7940
 1.3130	35.7000
 1.3140	35.6020
 1.3150	35.5010
 1.3160	35.3990
 1.3170	35.2940
 1.3180	35.1850
 1.3190	35.0750
 1.3200	34.9610
 1.3210	34.8440
 1.3220	34.7260
 1.3230	34.6050
 1.3240	34.4820
 1.3250	34.3580
 1.3260	34.2310
 1.3270	34.1000
 1.3280	33.9690
 1.3290	33.8360
 1.3300	33.7020
 1.3310	33.5670
 1.3320	33.4310
 1.3330	33.2950
 1.3340	33.1580
 1.3350	33.0210
 1.3360	32.8840
 1.3370	32.7440
 1.3380	32.6060
 1.3390	32.4700
 1.3400	32.3350
 1.3410	32.2040
 1.3420	32.0740
 1.3430	31.9450
 1.3440	31.8180
 1.3450	31.6920
 1.3460	31.5660
 1.3470	31.4430
 1.3480	31.3200
 1.3490	31.2000
 1.3500	31.0820
 1.3510	30.9650
 1.3520	30.8490
 1.3530	30.7340
 1.3540	30.6180
 1.3550	30.5020
 1.3560	30.3860
 1.3570	30.2680
 1.3580	30.1500
 1.3590	30.0280
 1.3600	29.9000
 1.3610	29.7680
 1.3620	29.6300
 1.3630	29.4880
 1.3640	29.3400
 1.3650	29.1850
 1.3660	29.0240
 1.3670	28.8510
 1.3680	28.6660
 1.3690	28.4720
 1.3700	28.2590
 1.3710	28.0340
 1.3720	27.7950
 1.3730	27.5370
 1.3740	27.2650
 1.3750	26.9740
 1.3760	26.6600
 1.3770	26.3260
 1.3780	25.9660
 1.3790	25.5850
 1.3800	25.1850
 1.3810	24.7570
 1.3820	24.3130
 1.3830	23.8500
 1.3840	23.3690
 1.3850	22.8670
 1.3860	22.3560
 1.3870	21.8220
 1.3880	21.2910
 1.3890	20.7500
 1.3900	20.2040
 1.3910	19.6630
 1.3920	19.1210
 1.3930	18.5790
 1.3940	18.0470
 1.3950	17.5170
 1.3960	17.0010
 1.3970	16.5010
 1.3980	16.0150
 1.3990	15.5510
 1.4000	15.1060
 1.4010	14.6760
 1.4020	14.2690
 1.4030	13.8800
 1.4040	13.5120
 1.4050	13.1660
 1.4060	12.8390
 1.4070	12.5350
 1.4080	12.2500
 1.4090	11.9800
 1.4100	11.7310
 1.4110	11.4960
 1.4120	11.2790
 1.4130	11.0790
 1.4140	10.8910
 1.4150	10.7180
 1.4160	10.5570
 1.4170	10.4080
 1.4180	10.2720
 1.4190	10.1430
 1.4200	10.0240
 1.4210	 9.9130
 1.4220	 9.8100
 1.4230	 9.7150
 1.4240	 9.6270
 1.4250	 9.5450
 1.4260	 9.4690
 1.4270	 9.3980
 1.4280	 9.3330
 1.4290	 9.2720
 1.4300	 9.2170
 1.4310	 9.1660
 1.4320	 9.1220
 1.4330	 9.0790
 1.4340	 9.0400
 1.4350	 9.0040
 1.4360	 8.9720
 1.4370	 8.9430
 1.4380	 8.9180
 1.4390	 8.8970
 1.4400	 8.8790
 1.4410	 8.8620
 1.4420	 8.8480
 1.4430	 8.8360
 1.4440	 8.8260
 1.4450	 8.8170
 1.4460	 8.8110
 1.4470	 8.8060
 1.4480	 8.8040
 1.4490	 8.8040
 1.4500	 8.8050
 1.4510	 8.8080
 1.4520	 8.8130
 1.4530	 8.8180
 1.4540	 8.8250
 1.4550	 8.8350
 1.4560	 8.8460
 1.4570	 8.8610
 1.4580	 8.8790
 1.4590	 8.9000
 1.4600	 8.9240
 1.4610	 8.9490
 1.4620	 8.9770
 1.4630	 9.0110
 1.4640	 9.0480
 1.4650	 9.0890
 1.4660	 9.1350
 1.4670	 9.1830
 1.4680	 9.2350
 1.4690	 9.2920
 1.4700	 9.3500
 1.4710	 9.4110
 1.4720	 9.4760
 1.4730	 9.5430
 1.4740	 9.6150
 1.4750	 9.6880
 1.4760	 9.7640
 1.4770	 9.8440
 1.4780	 9.9240
 1.4790	10.0070
 1.4800	10.0910
 1.4810	10.1770
 1.4820	10.2650
 1.4830	10.3550
 1.4840	10.4470
 1.4850	10.5400
 1.4860	10.6350
 1.4870	10.7320
 1.4880	10.8290
 1.4890	10.9270
 1.4900	11.0260
 1.4910	11.1270
 1.4920	11.2290
 1.4930	11.3330
 1.4940	11.4360
 1.4950	11.5410
 1.4960	11.6460
 1.4970	11.7500
 1.4980	11.8570
 1.4990	11.9660
 1.5000	12.0750
 1.5010	12.1860
 1.5020	12.2960
 1.5030	12.4060
 1.5040	12.5160
 1.5050	12.6260
 1.5060	12.7380
 1.5070	12.8520
 1.5080	12.9650
 1.5090	13.0800
 1.5100	13.1940
 1.5110	13.3080
 1.5120	13.4220
 1.5130	13.5360
 1.5140	13.6500
 1.5150	13.7660
 1.5160	13.8800
 1.5170	13.9950
 1.5180	14.1120
 1.5190	14.2280
 1.5200	14.3440
 1.5210	14.4580
 1.5220	14.5730
 1.5230	14.6880
 1.5240	14.8030
 1.5250	14.9180
 1.5260	15.0330
 1.5270	15.1470
 1.5280	15.2620
 1.5290	15.3750
 1.5300	15.4870
 1.5310	15.5990
 1.5320	15.7110
 1.5330	15.8220
 1.5340	15.9340
 1.5350	16.0460
 1.5360	16.1570
 1.5370	16.2670
 1.5380	16.3770
 1.5390	16.4860
 1.5400	16.5930
 1.5410	16.7020
 1.5420	16.8090
 1.5430	16.9160
 1.5440	17.0240
 1.5450	17.1280
 1.5460	17.2330
 1.5470	17.3380
 1.5480	17.4400
 1.5490	17.5450
 1.5500	17.6480
 1.5510	17.7490
 1.5520	17.8510
 1.5530	17.9500
 1.5540	18.0480
 1.5550	18.1470
 1.5560	18.2430
 1.5570	18.3410
 1.5580	18.4370
 1.5590	18.5310
 1.5600	18.6250
 1.5610	18.7170
 1.5620	18.8080
 1.5630	18.8990
 1.5640	18.9880
 1.5650	19.0780
 1.5660	19.1670
 1.5670	19.2560
 1.5680	19.3440
 1.5690	19.4280
 1.5700	19.5120
 1.5710	19.5960
 1.5720	19.6800
 1.5730	19.7640
 1.5740	19.8470
 1.5750	19.9280
 1.5760	20.0090
 1.5770	20.0870
 1.5780	20.1660
 1.5790	20.2430
 1.5800	20.3200
 1.5810	20.3970
 1.5820	20.4730
 1.5830	20.5480
 1.5840	20.6230
 1.5850	20.6960
 1.5860	20.7690
 1.5870	20.8420
 1.5880	20.9130
 1.5890	20.9830
 1.5900	21.0530
 1.5910	21.1210
 1.5920	21.1890
 1.5930	21.2560
 1.5940	21.3230
 1.5950	21.3900
 1.5960	21.4550
 1.5970	21.5190
 1.5980	21.5820
 1.5990	21.6430
 1.6000	21.7050
 1.6010	21.7680
 1.6020	21.8290
 1.6030	21.8900
 1.6040	21.9490
 1.6050	22.0060
 1.6060	22.0630
 1.6070	22.1190
 1.6080	22.1750
 1.6090	22.2310
 1.6100	22.2870
 1.6110	22.3400
 1.6120	22.3920
 1.6130	22.4440
 1.6140	22.4940
 1.6150	22.5440
 1.6160	22.5930
 1.6170	22.6410
 1.6180	22.6900
 1.6190	22.7380
 1.6200	22.7840
 1.6210	22.8310
 1.6220	22.8760
 1.6230	22.9190
 1.6240	22.9640
 1.6250	23.0070
 1.6260	23.0490
 1.6270	23.0920
 1.6280	23.1330
 1.6290	23.1740
 1.6300	23.2140
 1.6310	23.2530
 1.6320	23.2910
 1.6330	23.3280
 1.6340	23.3620
 1.6350	23.3960
 1.6360	23.4300
 1.6370	23.4630
 1.6380	23.4960
 1.6390	23.5270
 1.6400	23.5550
 1.6410	23.5830
 1.6420	23.6090
 1.6430	23.6350
 1.6440	23.6620
 1.6450	23.6840
 1.6460	23.7060
 1.6470	23.7270
 1.6480	23.7460
 1.6490	23.7660
 1.6500	23.7840
 1.6510	23.8000
 1.6520	23.8140
 1.6530	23.8270
 1.6540	23.8400
 1.6550	23.8530
 1.6560	23.8640
 1.6570	23.8720
 1.6580	23.8790
 1.6590	23.8830
 1.6600	23.8860
 1.6610	23.8890
 1.6620	23.8910
 1.6630	23.8920
 1.6640	23.8910
 1.6650	23.8890
 1.6660	23.8870
 1.6670	23.8820
 1.6680	23.8770
 1.6690	23.8700
 1.6700	23.8610
 1.6710	23.8510
 1.6720	23.8420
 1.6730	23.8310
 1.6740	23.8180
 1.6750	23.8040
 1.6760	23.7880
 1.6770	23.7720
 1.6780	23.7570
 1.6790	23.7390
 1.6800	23.7180
 1.6810	23.6970
 1.6820	23.6740
 1.6830	23.6470
 1.6840	23.6210
 1.6850	23.5930
 1.6860	23.5620
 1.6870	23.5290
 1.6880	23.4950
 1.6890	23.4570
 1.6900	23.4210
 1.6910	23.3860
 1.6920	23.3480
 1.6930	23.3090
 1.6940	23.2680
 1.6950	23.2220
 1.6960	23.1780
 1.6970	23.1340
 1.6980	23.0880
 1.6990	23.0420
 1.7000	22.9930
 1.7010	22.9440
 1.7020	22.8940
 1.7030	22.8430
 1.7040	22.7910
 1.7050	22.7370
 1.7060	22.6830
 1.7070	22.6250
 1.7080	22.5690
 1.7090	22.5120
 1.7100	22.4570
 1.7110	22.4010
 1.7120	22.3490
 1.7130	22.2970
 1.7140	22.2470
 1.7150	22.1990
 1.7160	22.1500
 1.7170	22.1020
 1.7180	22.0550
 1.7190	22.0100
 1.7200	21.9650
 1.7210	21.9200
 1.7220	21.8750
 1.7230	21.8310
 1.7240	21.7860
 1.7250	21.7440
 1.7260	21.7030
 1.7270	21.6620
 1.7280	21.6240
 1.7290	21.5890
 1.7300	21.5550
 1.7310	21.5220
 1.7320	21.4920
 1.7330	21.4610
 1.7340	21.4330
 1.7350	21.4020
 1.7360	21.3690
 1.7370	21.3350
 1.7380	21.3020
 1.7390	21.2650
 1.7400	21.2270
 1.7410	21.1840
 1.7420	21.1370
 1.7430	21.0870
 1.7440	21.0350
 1.7450	20.9800
 1.7460	20.9230
 1.7470	20.8640
 1.7480	20.8020
 1.7490	20.7390
 1.7500	20.6740
 1.7510	20.6080
 1.7520	20.5400
 1.7530	20.4730
 1.7540	20.4050
 1.7550	20.3410
 1.7560	20.2770
 1.7570	20.2110
 1.7580	20.1480
 1.7590	20.0870
 1.7600	20.0270
 1.7610	19.9710
 1.7620	19.9160
 1.7630	19.8620
 1.7640	19.8090
 1.7650	19.7590
 1.7660	19.7100
 1.7670	19.6630
 1.7680	19.6190
 1.7690	19.5780
 1.7700	19.5380
 1.7710	19.5000
 1.7720	19.4630
 1.7730	19.4240
 1.7740	19.3890
 1.7750	19.3560
 1.7760	19.3230
 1.7770	19.2920
 1.7780	19.2630
 1.7790	19.2340
 1.7800	19.2110
 1.7810	19.1940
 1.7820	19.1750
 1.7830	19.1580
 1.7840	19.1440
 1.7850	19.1310
 1.7860	19.1210
 1.7870	19.1150
 1.7880	19.1080
 1.7890	19.1010
 1.7900	19.1000
 1.7910	19.0990
 1.7920	19.1000
 1.7930	19.1010
 1.7940	19.1010
 1.7950	19.1040
 1.7960	19.1070
 1.7970	19.1120
 1.7980	19.1200
 1.7990	19.1270
 1.8000	19.1340
 1.8010	19.1410
 1.8020	19.1480
 1.8030	19.1560
 1.8040	19.1660
 1.8050	19.1740
 1.8060	19.1840
 1.8070	19.1920
 1.8080	19.2000
 1.8090	19.2080
 1.8100	19.2130
 1.8110	19.2200
 1.8120	19.2280
 1.8130	19.2350
 1.8140	19.2420
 1.8150	19.2460
 1.8160	19.2470
 1.8170	19.2480
 1.8180	19.2510
 1.8190	19.2530
 1.8200	19.2520
 1.8210	19.2500
 1.8220	19.2440
 1.8230	19.2360
 1.8240	19.2270
 1.8250	19.2140
 1.8260	19.2030
 1.8270	19.1930
 1.8280	19.1800
 1.8290	19.1670
 1.8300	19.1500
 1.8310	18.8820
 1.8320	18.8550
 1.8330	18.8220
 1.8340	18.7850
 1.8350	18.7480
 1.8360	18.7050
 1.8370	18.6550
 1.8380	18.6010
 1.8390	18.5420
 1.8400	18.4780
 1.8410	18.4100
 1.8420	18.3400
 1.8430	18.2610
 1.8440	18.1760
 1.8450	18.0840
 1.8460	17.9800
 1.8470	17.8710
 1.8480	17.7560
 1.8490	17.6290
 1.8500	17.4920
 1.8510	17.3450
 1.8520	17.1890
 1.8530	17.0220
 1.8540	16.8480
 1.8550	16.6640
 1.8560	16.4650
 1.8570	16.2530
 1.8580	16.0260
 1.8590	15.7900
 1.8600	15.5430
 1.8610	15.2830
 1.8620	15.0080
 1.8630	14.7270
 1.8640	14.4320
 1.8650	14.1200
 1.8660	13.7990
 1.8670	13.4630
 1.8680	13.1120
 1.8690	12.7540
 1.8700	12.3850
 1.8710	12.0060
 1.8720	11.6190
 1.8730	11.2270
 1.8740	10.8300
 1.8750	10.4320
 1.8760	10.0350
 1.8770	 9.6410
 1.8780	 9.2530
 1.8790	 8.8730
 1.8800	 8.5030
 1.8810	 8.1410
 1.8820	 7.7870
 1.8830	 7.4420
 1.8840	 7.1090
 1.8850	 6.7860
 1.8860	 6.4780
 1.8870	 6.1860
 1.8880	 5.9070
 1.8890	 5.6480
 1.8900	 5.4050
 1.8910	 5.1800
 1.8920	 4.9710
 1.8930	 4.7810
 1.8940	 4.6030
 1.8950	 4.4420
 1.8960	 4.2970
 1.8970	 4.1640
 1.8980	 4.0480
 1.8990	 3.9440
 1.9000	 3.8510
 1.9010	 3.7750
 1.9020	 3.7010
 1.9030	 3.6380
 1.9040	 3.5810
 1.9050	 3.5290
 1.9060	 3.4820
 1.9070	 3.4440
 1.9080	 3.4120
 1.9090	 3.3840
 1.9100	 3.3620
 1.9110	 3.3390
 1.9120	 3.3200
 1.9130	 3.3020
 1.9140	 3.2880
 1.9150	 3.2730
 1.9160	 3.2570
 1.9170	 3.2460
 1.9180	 3.2340
 1.9190	 3.2220
 1.9200	 3.2140
 1.9210	 3.2090
 1.9220	 3.2050
 1.9230	 3.2050
 1.9240	 3.2030
 1.9250	 3.2020
 1.9260	 3.2010
 1.9270	 3.1980
 1.9280	 3.1980
 1.9290	 3.1970
 1.9300	 3.1970
 1.9310	 3.1960
 1.9320	 3.1950
 1.9330	 3.1960
 1.9340	 3.1990
 1.9350	 3.2020
 1.9360	 3.2050
 1.9370	 3.2090
 1.9380	 3.2110
 1.9390	 3.2150
 1.9400	 3.2210
 1.9410	 3.2270
 1.9420	 3.2330
 1.9430	 3.2390
 1.9440	 3.2450
 1.9450	 3.2510
 1.9460	 3.2580
 1.9470	 3.2650
 1.9480	 3.2730
 1.9490	 3.2820
 1.9500	 3.2920
 1.9510	 3.3010
 1.9520	 3.3130
 1.9530	 3.3240
 1.9540	 3.3340
 1.9550	 3.3450
 1.9560	 3.3590
 1.9570	 3.3710
 1.9580	 3.3840
 1.9590	 3.3960
 1.9600	 3.4080
 1.9610	 3.4210
 1.9620	 3.4360
 1.9630	 3.4500
 1.9640	 3.4640
 1.9650	 3.4760
 1.9660	 3.4920
 1.9670	 3.5080
 1.9680	 3.5240
 1.9690	 3.5380
 1.9700	 3.5550
 1.9710	 3.5720
 1.9720	 3.5910
 1.9730	 3.6120
 1.9740	 3.6350
 1.9750	 3.6570
 1.9760	 3.6770
 1.9770	 3.6990
 1.9780	 3.7220
 1.9790	 3.7440
 1.9800	 3.7640
 1.9810	 3.7860
 1.9820	 3.8060
 1.9830	 3.8300
 1.9840	 3.8570
 1.9850	 3.8830
 1.9860	 3.9110
 1.9870	 3.9390
 1.9880	 3.9680
 1.9890	 3.9930
 1.9900	 4.0200
 1.9910	 4.0460
 1.9920	 4.0730
 1.9930	 4.0990
 1.9940	 4.1260
 1.9950	 4.1540
 1.9960	 4.1830
 1.9970	 4.2150
 1.9980	 4.2460
 1.9990	 4.2790
 2.0000	 4.3120
 2.0010	 4.3420
 2.0020	 4.3710
 2.0030	 4.3980
 2.0040	 4.4270
 2.0050	 4.4580
 2.0060	 4.4900
 2.0070	 4.5230
 2.0080	 4.5580
 2.0090	 4.5930
 2.0100	 4.6310
 2.0110	 4.6670
 2.0120	 4.7030
 2.0130	 4.7390
 2.0140	 4.7720
 2.0150	 4.8040
 2.0160	 4.8410
 2.0170	 4.8750
 2.0180	 4.9110
 2.0190	 4.9500
 2.0200	 4.9880
 2.0210	 5.0260
 2.0220	 5.0640
 2.0230	 5.1030
 2.0240	 5.1410
 2.0250	 5.1780
 2.0260	 5.2150
 2.0270	 5.2520
 2.0280	 5.2910
 2.0290	 5.3270
 2.0300	 5.3620
 2.0310	 5.3990
 2.0320	 5.4350
 2.0330	 5.4710
 2.0340	 5.5090
 2.0350	 5.5450
 2.0360	 5.5790
 2.0370	 5.6160
 2.0380	 5.6560
 2.0390	 5.6940
 2.0400	 5.7340
 2.0410	 5.7730
 2.0420	 5.8110
 2.0430	 5.8470
 2.0440	 5.8860
 2.0450	 5.9250
 2.0460	 5.9620
 2.0470	 6.0000
 2.0480	 6.0360
 2.0490	 6.0670
 2.0500	 6.1040
 2.0510	 6.1410
 2.0520	 6.1790
 2.0530	 6.2190
 2.0540	 6.2590
 2.0550	 6.2980
 2.0560	 6.3380
 2.0570	 6.3790
 2.0580	 6.4190
 2.0590	 6.4600
 2.0600	 6.5000
 2.0610	 6.5410
 2.0620	 6.5820
 2.0630	 6.6230
 2.0640	 6.6650
 2.0650	 6.7080
 2.0660	 6.7480
 2.0670	 6.7930
 2.0680	 6.8400
 2.0690	 6.8860
 2.0700	 6.9340
 2.0710	 6.9800
 2.0720	 7.0220
 2.0730	 7.0640
 2.0740	 7.1060
 2.0750	 7.1480
 2.0760	 7.1910
 2.0770	 7.2350
 2.0780	 7.2780
 2.0790	 7.3200
 2.0800	 7.3650
 2.0810	 7.4090
 2.0820	 7.4550
 2.0830	 7.5050
 2.0840	 7.5500
 2.0850	 7.5940
 2.0860	 7.6380
 2.0870	 7.6810
 2.0880	 7.7230
 2.0890	 7.7680
 2.0900	 7.8160
 2.0910	 7.8620
 2.0920	 7.9090
 2.0930	 7.9540
 2.0940	 7.9970
 2.0950	 8.0420
 2.0960	 8.0840
 2.0970	 8.1300
 2.0980	 8.1780
 2.0990	 8.2240
 2.1000	 8.2720
 2.1010	 8.3170
 2.1020	 8.3580
 2.1030	 8.3990
 2.1040	 8.4380
 2.1050	 8.4780
 2.1060	 8.5200
 2.1070	 8.5640
 2.1080	 8.6050
 2.1090	 8.6480
 2.1100	 8.6900
 2.1110	 8.7300
 2.1120	 8.7710
 2.1130	 8.8130
 2.1140	 8.8530
 2.1150	 8.8910
 2.1160	 8.9310
 2.1170	 8.9700
 2.1180	 9.0110
 2.1190	 9.0550
 2.1200	 9.0970
 2.1210	 9.1420
 2.1220	 9.1820
 2.1230	 9.2210
 2.1240	 9.2580
 2.1250	 9.2950
 2.1260	 9.3290
 2.1270	 9.3640
 2.1280	 9.4000
 2.1290	 9.4320
 2.1300	 9.4610
 2.1310	 9.4930
 2.1320	 9.5220
 2.1330	 9.5540
 2.1340	 9.5920
 2.1350	 9.6250
 2.1360	 9.6590
 2.1370	 9.6900
 2.1380	 9.7170
 2.1390	 9.7460
 2.1400	 9.7730
 2.1410	 9.7990
 2.1420	 9.8290
 2.1430	 9.8610
 2.1440	 9.8900
 2.1450	 9.9210
 2.1460	 9.9480
 2.1470	 9.9720
 2.1480	 9.9960
 2.1490	10.0210
 2.1500	10.0440
 2.1510	10.0660
 2.1520	10.0880
 2.1530	10.1110
 2.1540	10.1320
 2.1550	10.1530
 2.1560	10.1720
 2.1570	10.1890
 2.1580	10.2070
 2.1590	10.2250
 2.1600	10.2450
 2.1610	10.2610
 2.1620	10.2780
 2.1630	10.2960
 2.1640	10.3130
 2.1650	10.3300
 2.1660	10.3470
 2.1670	10.3640
 2.1680	10.3810
 2.1690	10.3970
 2.1700	10.4140
 2.1710	10.4310
 2.1720	10.4480
 2.1730	10.4640
 2.1740	10.4790
 2.1750	10.4960
 2.1760	10.5100
 2.1770	10.5270
 2.1780	10.5490
 2.1790	10.5680
 2.1800	10.5890
 2.1810	10.6090
 2.1820	10.6270
 2.1830	10.6460
 2.1840	10.6620
 2.1850	10.6780
 2.1860	10.6930
 2.1870	10.7060
 2.1880	10.7240
 2.1890	10.7430
 2.1900	10.7630
 2.1910	10.7860
 2.1920	10.8050
 2.1930	10.8220
 2.1940	10.8380
 2.1950	10.8510
 2.1960	10.8630
 2.1970	10.8700
 2.1980	10.8810
 2.1990	10.8930
 2.2000	10.9050
 2.2010	10.9230
 2.2020	10.9350
 2.2030	10.9430
 2.2040	10.9520
 2.2050	10.9580
 2.2060	10.9670
 2.2070	10.9740
 2.2080	10.9820
 2.2090	10.9890
 2.2100	10.9970
 2.2110	11.0000
 2.2120	11.0020
 2.2130	11.0010
 2.2140	10.9910
 2.2150	10.9890
 2.2160	10.9880
 2.2170	10.9870
 2.2180	10.9910
 2.2190	10.9900
 2.2200	10.9910
 2.2210	10.9850
 2.2220	10.9730
 2.2230	10.9610
 2.2240	10.9420
 2.2250	10.9250
 2.2260	10.9140
 2.2270	10.8970
 2.2280	10.8760
 2.2290	10.8540
 2.2300	10.8310
 2.2310	10.8010
 2.2320	10.7720
 2.2330	10.7450
 2.2340	10.7160
 2.2350	10.6870
 2.2360	10.6550
 2.2370	10.6220
 2.2380	10.5890
 2.2390	10.5530
 2.2400	10.5190
 2.2410	10.4870
 2.2420	10.4520
 2.2430	10.4140
 2.2440	10.3770
 2.2450	10.3360
 2.2460	10.2970
 2.2470	10.2600
 2.2480	10.2220
 2.2490	10.1870
 2.2500	10.1470
 2.2510	10.1060
 2.2520	10.0610
 2.2530	10.0090
 2.2540	 9.9630
 2.2550	 9.9180
 2.2560	 9.8740
 2.2570	 9.8360
 2.2580	 9.7940
 2.2590	 9.7470
 2.2600	 9.7030
 2.2610	 9.6580
 2.2620	 9.6120
 2.2630	 9.5710
 2.2640	 9.5290
 2.2650	 9.4840
 2.2660	 9.4430
 2.2670	 9.4030
 2.2680	 9.3650
 2.2690	 9.3250
 2.2700	 9.2890
 2.2710	 9.2510
 2.2720	 9.2120
 2.2730	 9.1750
 2.2740	 9.1380
 2.2750	 9.1030
 2.2760	 9.0680
 2.2770	 9.0340
 2.2780	 9.0050
 2.2790	 8.9680
 2.2800	 8.9260
 2.2810	 8.8870
 2.2820	 8.8450
 2.2830	 8.8050
 2.2840	 8.7690
 2.2850	 8.7300
 2.2860	 8.6890
 2.2870	 8.6500
 2.2880	 8.6130
 2.2890	 8.5730
 2.2900	 8.5350
 2.2910	 8.4940
 2.2920	 8.4520
 2.2930	 8.4090
 2.2940	 8.3620
 2.2950	 8.3200
 2.2960	 8.2820
 2.2970	 8.2380
 2.2980	 8.1950
 2.2990	 8.1490
 2.3000	 8.0980
 2.3010	 8.0530
 2.3020	 8.0070
 2.3030	 7.9640
 2.3040	 7.9290
 2.3050	 7.8920
 2.3060	 7.8590
 2.3070	 7.8290
 2.3080	 7.7970
 2.3090	 7.7670
 2.3100	 7.7460
 2.3110	 7.7250
 2.3120	 7.7050
 2.3130	 7.6880
 2.3140	 7.6680
 2.3150	 7.6450
 2.3160	 7.6230
 2.3170	 7.5990
 2.3180	 7.5780
 2.3190	 7.5580
 2.3200	 7.5390
 2.3210	 7.5240
 2.3220	 7.5060
 2.3230	 7.4890
 2.3240	 7.4680
 2.3250	 7.4460
 2.3260	 7.4190
 2.3270	 7.3860
 2.3280	 7.3550
 2.3290	 7.3220
 2.3300	 7.2900
 2.3310	 7.2600
 2.3320	 7.2310
 2.3330	 7.2010
 2.3340	 7.1730
 2.3350	 7.1520
 2.3360	 7.1230
 2.3370	 7.0920
 2.3380	 7.0580
 2.3390	 7.0170
 2.3400	 6.9820
 2.3410	 6.9500
 2.3420	 6.9140
 2.3430	 6.8800
 2.3440	 6.8450
 2.3450	 6.8040
 2.3460	 6.7720
 2.3470	 6.7470
 2.3480	 6.7150
 2.3490	 6.6870
 2.3500	 6.6560
 2.3510	 6.6150
 2.3520	 6.5830
 2.3530	 6.5570
 2.3540	 6.5260
 2.3550	 6.4960
 2.3560	 6.4770
 2.3570	 6.4480
 2.3580	 6.4250
 2.3590	 6.4120
 2.3600	 6.3860
 2.3610	 6.3560
 2.3620	 6.3240
 2.3630	 6.2910
 2.3640	 6.2630
 2.3650	 6.2390
 2.3660	 6.2200
 2.3670	 6.1940
 2.3680	 6.1730
 2.3690	 6.1600
 2.3700	 6.1350
 2.3710	 6.1120
 2.3720	 6.0850
 2.3730	 6.0420
 2.3740	 6.0140
 2.3750	 5.9860
 2.3760	 5.9440
 2.3770	 5.9220
 2.3780	 5.9040
 2.3790	 5.8740
 2.3800	 5.8610
 2.3810	 5.8430
 2.3820	 5.8130
 2.3830	 5.7930
 2.3840	 5.7690
 2.3850	 5.7530
 2.3860	 5.7310
 2.3870	 5.7040
 2.3880	 5.6830
 2.3890	 5.6450
 2.3900	 5.6060
 2.3910	 5.5820
 2.3920	 5.5570
 2.3930	 5.5310
 2.3940	 5.5140
 2.3950	 5.4980
 2.3960	 5.4730
 2.3970	 5.4560
 2.3980	 5.4440
 2.3990	 5.4180
 2.4000	 5.3940
 2.4010	 5.3630
 2.4020	 5.3230
 2.4030	 5.2920
 2.4040	 5.2660
 2.4050	 5.2380
 2.4060	 5.2040
 2.4070	 5.1770
 2.4080	 5.1500
 2.4090	 5.1300
 2.4100	 5.1300
 2.4110	 5.1170
 2.4120	 5.0960
 2.4130	 5.0800
 2.4140	 5.0540
 2.4150	 5.0170
 2.4160	 4.9880
 2.4170	 4.9620
 2.4180	 4.9310
 2.4190	 4.9180
 2.4200	 4.9080
 2.4210	 4.8870
 2.4220	 4.8780
 2.4230	 4.8680
 2.4240	 4.8430
 2.4250	 4.8260
 2.4260	 4.8050
 2.4270	 4.7680
 2.4280	 4.7410
 2.4290	 4.7070
 2.4300	 4.6550
 2.4310	 4.6310
 2.4320	 4.6240
 2.4330	 4.6120
 2.4340	 4.6100
 2.4350	 4.6010
 2.4360	 4.5830
 2.4370	 4.5560
 2.4380	 4.5380
 2.4390	 4.5140
 2.4400	 4.4850
 2.4410	 4.4760
 2.4420	 4.4470
 2.4430	 4.4080
 2.4440	 4.3850
 2.4450	 4.3710
 2.4460	 4.3720
 2.4470	 4.3670
 2.4480	 4.3500
 2.4490	 4.3190
 2.4500	 4.2750
 2.4510	 4.2540
 2.4520	 4.2480
 2.4530	 4.2380
 2.4540	 4.2220
 2.4550	 4.2000
 2.4560	 4.1780
 2.4570	 4.1470
 2.4580	 4.1300
 2.4590	 4.1260
 2.4600	 4.1050
 2.4610	 4.0650
 2.4620	 4.0350
 2.4630	 4.0240
 2.4640	 4.0160
 2.4650	 4.0240
 2.4660	 4.0140
 2.4670	 3.9790
 2.4680	 3.9420
 2.4690	 3.9050
 2.4700	 3.9140
 2.4710	 3.9890
 2.4720	 4.0010
 2.4730	 4.0030
 2.4740	 3.9890
 2.4750	 3.9150
 2.4760	 3.8810
 2.4770	 3.8860
 2.4780	 3.8820
 2.4790	 3.8740
 2.4800	 3.8580
 2.4810	 3.8290
 2.4820	 3.7800
 2.4830	 3.7520
 2.4840	 3.7700
 2.4850	 3.8140
 2.4860	 3.8570
 2.4870	 3.9240
 2.4880	 3.9510
 2.4890	 3.9280
 2.4900	 3.9060
 2.4910	 3.8770
 2.4920	 3.8260
 2.4930	 3.7900
 2.4940	 3.8120
 2.4950	 3.8290
 2.4960	 3.8230
 2.4970	 3.8030
 2.4980	 3.7510
 2.4990	 3.7010
 2.5000	 3.7110
