Name: Adenostoma fasciculatum 1
Type: vegetation
Class: Shrub
Genus: Adenostoma
Species: fasciculatum
Sample No.: VH034
Owner: UCSB
Wavelength Range: VSWIR
Origin: 34.5084; -119.7687; WGS84
Collection Date: 4/1/2013
Description: Samples were collected as part of the HyspIRI Airborne Campaign. 48 individual plants were sampled in three times in 2013 - spring  summer  and fall. The name of the sample includes a 1  2  or 3 which references a different individual of the species. Samples were taken to JPL and processed within 48 hours of collection. The same leaves were processed in the Nicolet and then measured using the ASD.
Measurement: Bidirectional reflectance
First Column: X
Second Column: Y
X Units: Wavelength (micrometers)
Y Units: Reflectance (percentage)
First X Value: 0.35
Last X Value: 2.5
Number of X Values: 2151
Additional Information: vegetation.shrub.adenostoma.fasciculatum.vswir.vh034.ucsb.asd.ancillary.txt

 0.3500	 1.5160
 0.3510	 2.0060
 0.3520	 2.1290
 0.3530	 1.9690
 0.3540	 1.8020
 0.3550	 1.7630
 0.3560	 1.8010
 0.3570	 1.8260
 0.3580	 1.7580
 0.3590	 1.7820
 0.3600	 1.7900
 0.3610	 1.7560
 0.3620	 1.8070
 0.3630	 1.7820
 0.3640	 1.7680
 0.3650	 1.8410
 0.3660	 1.7760
 0.3670	 1.8270
 0.3680	 1.9110
 0.3690	 1.7580
 0.3700	 1.7600
 0.3710	 1.8730
 0.3720	 1.9630
 0.3730	 1.8220
 0.3740	 1.8250
 0.3750	 1.9230
 0.3760	 1.9390
 0.3770	 1.8070
 0.3780	 1.7390
 0.3790	 1.7660
 0.3800	 1.7560
 0.3810	 1.8010
 0.3820	 1.8260
 0.3830	 1.8000
 0.3840	 1.8550
 0.3850	 1.8680
 0.3860	 1.8430
 0.3870	 1.8280
 0.3880	 1.8150
 0.3890	 1.8590
 0.3900	 1.9160
 0.3910	 1.8470
 0.3920	 1.8840
 0.3930	 1.9310
 0.3940	 1.9070
 0.3950	 1.9400
 0.3960	 2.0010
 0.3970	 2.0460
 0.3980	 2.0310
 0.3990	 1.9770
 0.4000	 1.9850
 0.4010	 2.0590
 0.4020	 2.0670
 0.4030	 2.0510
 0.4040	 2.0740
 0.4050	 2.1580
 0.4060	 2.1940
 0.4070	 2.1890
 0.4080	 2.1780
 0.4090	 2.2040
 0.4100	 2.2490
 0.4110	 2.2730
 0.4120	 2.2700
 0.4130	 2.2980
 0.4140	 2.3470
 0.4150	 2.3810
 0.4160	 2.3770
 0.4170	 2.4210
 0.4180	 2.4590
 0.4190	 2.4710
 0.4200	 2.4740
 0.4210	 2.5010
 0.4220	 2.5310
 0.4230	 2.5480
 0.4240	 2.5660
 0.4250	 2.5910
 0.4260	 2.6150
 0.4270	 2.6260
 0.4280	 2.6370
 0.4290	 2.6520
 0.4300	 2.6740
 0.4310	 2.7030
 0.4320	 2.7200
 0.4330	 2.7310
 0.4340	 2.7470
 0.4350	 2.7670
 0.4360	 2.7790
 0.4370	 2.7890
 0.4380	 2.8150
 0.4390	 2.8280
 0.4400	 2.8350
 0.4410	 2.8430
 0.4420	 2.8520
 0.4430	 2.8680
 0.4440	 2.8910
 0.4450	 2.9140
 0.4460	 2.9380
 0.4470	 2.9580
 0.4480	 2.9730
 0.4490	 2.9900
 0.4500	 3.0120
 0.4510	 3.0340
 0.4520	 3.0540
 0.4530	 3.0820
 0.4540	 3.1050
 0.4550	 3.1240
 0.4560	 3.1460
 0.4570	 3.1600
 0.4580	 3.1770
 0.4590	 3.1970
 0.4600	 3.1970
 0.4610	 3.2110
 0.4620	 3.2310
 0.4630	 3.2400
 0.4640	 3.2440
 0.4650	 3.2620
 0.4660	 3.2860
 0.4670	 3.2840
 0.4680	 3.2920
 0.4690	 3.2990
 0.4700	 3.2960
 0.4710	 3.3140
 0.4720	 3.3220
 0.4730	 3.3200
 0.4740	 3.3190
 0.4750	 3.3280
 0.4760	 3.3350
 0.4770	 3.3360
 0.4780	 3.3370
 0.4790	 3.3510
 0.4800	 3.3640
 0.4810	 3.3650
 0.4820	 3.3710
 0.4830	 3.3750
 0.4840	 3.3780
 0.4850	 3.3860
 0.4860	 3.3990
 0.4870	 3.4170
 0.4880	 3.4390
 0.4890	 3.4640
 0.4900	 3.4840
 0.4910	 3.5020
 0.4920	 3.5240
 0.4930	 3.5490
 0.4940	 3.5830
 0.4950	 3.6250
 0.4960	 3.6600
 0.4970	 3.7010
 0.4980	 3.7490
 0.4990	 3.8000
 0.5000	 3.8570
 0.5010	 3.9150
 0.5020	 3.9750
 0.5030	 4.0400
 0.5040	 4.1200
 0.5050	 4.2090
 0.5060	 4.3000
 0.5070	 4.3860
 0.5080	 4.4780
 0.5090	 4.5820
 0.5100	 4.6970
 0.5110	 4.8270
 0.5120	 4.9580
 0.5130	 5.0850
 0.5140	 5.2220
 0.5150	 5.3730
 0.5160	 5.5280
 0.5170	 5.6800
 0.5180	 5.8440
 0.5190	 6.0100
 0.5200	 6.1760
 0.5210	 6.3490
 0.5220	 6.5210
 0.5230	 6.6830
 0.5240	 6.8330
 0.5250	 6.9860
 0.5260	 7.1340
 0.5270	 7.2750
 0.5280	 7.4090
 0.5290	 7.5410
 0.5300	 7.6610
 0.5310	 7.7660
 0.5320	 7.8660
 0.5330	 7.9560
 0.5340	 8.0420
 0.5350	 8.1280
 0.5360	 8.1980
 0.5370	 8.2630
 0.5380	 8.3250
 0.5390	 8.3810
 0.5400	 8.4410
 0.5410	 8.5020
 0.5420	 8.5580
 0.5430	 8.6110
 0.5440	 8.6640
 0.5450	 8.7120
 0.5460	 8.7490
 0.5470	 8.7720
 0.5480	 8.7940
 0.5490	 8.8230
 0.5500	 8.8540
 0.5510	 8.8730
 0.5520	 8.8860
 0.5530	 8.8980
 0.5540	 8.9010
 0.5550	 8.8960
 0.5560	 8.8820
 0.5570	 8.8640
 0.5580	 8.8410
 0.5590	 8.8140
 0.5600	 8.7820
 0.5610	 8.7420
 0.5620	 8.7030
 0.5630	 8.6660
 0.5640	 8.6280
 0.5650	 8.5790
 0.5660	 8.5230
 0.5670	 8.4650
 0.5680	 8.4070
 0.5690	 8.3380
 0.5700	 8.2670
 0.5710	 8.2010
 0.5720	 8.1370
 0.5730	 8.0800
 0.5740	 8.0280
 0.5750	 7.9760
 0.5760	 7.9280
 0.5770	 7.8810
 0.5780	 7.8350
 0.5790	 7.7970
 0.5800	 7.7620
 0.5810	 7.7320
 0.5820	 7.7070
 0.5830	 7.6920
 0.5840	 7.6760
 0.5850	 7.6590
 0.5860	 7.6480
 0.5870	 7.6450
 0.5880	 7.6440
 0.5890	 7.6430
 0.5900	 7.6490
 0.5910	 7.6560
 0.5920	 7.6630
 0.5930	 7.6770
 0.5940	 7.6950
 0.5950	 7.7140
 0.5960	 7.7330
 0.5970	 7.7450
 0.5980	 7.7570
 0.5990	 7.7680
 0.6000	 7.7780
 0.6010	 7.7770
 0.6020	 7.7760
 0.6030	 7.7730
 0.6040	 7.7570
 0.6050	 7.7400
 0.6060	 7.7180
 0.6070	 7.6860
 0.6080	 7.6500
 0.6090	 7.6180
 0.6100	 7.5880
 0.6110	 7.5490
 0.6120	 7.4990
 0.6130	 7.4390
 0.6140	 7.3750
 0.6150	 7.3200
 0.6160	 7.2660
 0.6170	 7.2150
 0.6180	 7.1710
 0.6190	 7.1340
 0.6200	 7.1010
 0.6210	 7.0730
 0.6220	 7.0520
 0.6230	 7.0300
 0.6240	 7.0100
 0.6250	 6.9950
 0.6260	 6.9910
 0.6270	 6.9930
 0.6280	 6.9950
 0.6290	 6.9950
 0.6300	 6.9980
 0.6310	 7.0010
 0.6320	 7.0000
 0.6330	 6.9930
 0.6340	 6.9820
 0.6350	 6.9620
 0.6360	 6.9300
 0.6370	 6.8880
 0.6380	 6.8360
 0.6390	 6.7760
 0.6400	 6.7060
 0.6410	 6.6280
 0.6420	 6.5460
 0.6430	 6.4590
 0.6440	 6.3640
 0.6450	 6.2670
 0.6460	 6.1710
 0.6470	 6.0780
 0.6480	 5.9830
 0.6490	 5.9000
 0.6500	 5.8320
 0.6510	 5.7730
 0.6520	 5.7150
 0.6530	 5.6590
 0.6540	 5.6040
 0.6550	 5.5490
 0.6560	 5.4860
 0.6570	 5.4120
 0.6580	 5.3280
 0.6590	 5.2340
 0.6600	 5.1340
 0.6610	 5.0300
 0.6620	 4.9250
 0.6630	 4.8180
 0.6640	 4.7140
 0.6650	 4.6190
 0.6660	 4.5300
 0.6670	 4.4510
 0.6680	 4.3800
 0.6690	 4.3180
 0.6700	 4.2680
 0.6710	 4.2270
 0.6720	 4.1920
 0.6730	 4.1660
 0.6740	 4.1490
 0.6750	 4.1400
 0.6760	 4.1350
 0.6770	 4.1380
 0.6780	 4.1480
 0.6790	 4.1670
 0.6800	 4.2010
 0.6810	 4.2530
 0.6820	 4.3260
 0.6830	 4.4250
 0.6840	 4.5530
 0.6850	 4.7170
 0.6860	 4.9190
 0.6870	 5.1630
 0.6880	 5.4510
 0.6890	 5.7850
 0.6900	 6.1670
 0.6910	 6.6010
 0.6920	 7.0820
 0.6930	 7.6130
 0.6940	 8.1880
 0.6950	 8.8020
 0.6960	 9.4600
 0.6970	10.1580
 0.6980	10.8880
 0.6990	11.6470
 0.7000	12.4330
 0.7010	13.2390
 0.7020	14.0580
 0.7030	14.8880
 0.7040	15.7240
 0.7050	16.5620
 0.7060	17.3960
 0.7070	18.2360
 0.7080	19.0730
 0.7090	19.9040
 0.7100	20.7420
 0.7110	21.5810
 0.7120	22.4190
 0.7130	23.2590
 0.7140	24.0920
 0.7150	24.9240
 0.7160	25.7590
 0.7170	26.5840
 0.7180	27.3980
 0.7190	28.2070
 0.7200	29.0140
 0.7210	29.8090
 0.7220	30.5880
 0.7230	31.3480
 0.7240	32.0880
 0.7250	32.8110
 0.7260	33.5130
 0.7270	34.1900
 0.7280	34.8390
 0.7290	35.4580
 0.7300	36.0500
 0.7310	36.6150
 0.7320	37.1550
 0.7330	37.6660
 0.7340	38.1470
 0.7350	38.6020
 0.7360	39.0360
 0.7370	39.4440
 0.7380	39.8250
 0.7390	40.1860
 0.7400	40.5260
 0.7410	40.8430
 0.7420	41.1350
 0.7430	41.4200
 0.7440	41.6810
 0.7450	41.9160
 0.7460	42.1320
 0.7470	42.3420
 0.7480	42.5370
 0.7490	42.7150
 0.7500	42.8750
 0.7510	43.0250
 0.7520	43.1630
 0.7530	43.2900
 0.7540	43.4120
 0.7550	43.5200
 0.7560	43.6130
 0.7570	43.7000
 0.7580	43.7820
 0.7590	43.8600
 0.7600	43.9360
 0.7610	44.0070
 0.7620	44.0680
 0.7630	44.1230
 0.7640	44.1740
 0.7650	44.2240
 0.7660	44.2730
 0.7670	44.3200
 0.7680	44.3600
 0.7690	44.3940
 0.7700	44.4300
 0.7710	44.4670
 0.7720	44.4990
 0.7730	44.5330
 0.7740	44.5650
 0.7750	44.5920
 0.7760	44.6220
 0.7770	44.6490
 0.7780	44.6750
 0.7790	44.7020
 0.7800	44.7270
 0.7810	44.7520
 0.7820	44.7770
 0.7830	44.8020
 0.7840	44.8270
 0.7850	44.8500
 0.7860	44.8710
 0.7870	44.8900
 0.7880	44.9070
 0.7890	44.9260
 0.7900	44.9520
 0.7910	44.9730
 0.7920	44.9910
 0.7930	45.0100
 0.7940	45.0300
 0.7950	45.0460
 0.7960	45.0610
 0.7970	45.0760
 0.7980	45.0880
 0.7990	45.1070
 0.8000	45.1230
 0.8010	45.1300
 0.8020	45.1410
 0.8030	45.1530
 0.8040	45.1640
 0.8050	45.1720
 0.8060	45.1780
 0.8070	45.1820
 0.8080	45.1880
 0.8090	45.2040
 0.8100	45.2100
 0.8110	45.2140
 0.8120	45.2210
 0.8130	45.2150
 0.8140	45.2180
 0.8150	45.2240
 0.8160	45.2260
 0.8170	45.2240
 0.8180	45.2240
 0.8190	45.2250
 0.8200	45.2200
 0.8210	45.2220
 0.8220	45.2260
 0.8230	45.2240
 0.8240	45.2120
 0.8250	45.2010
 0.8260	45.1960
 0.8270	45.1940
 0.8280	45.1810
 0.8290	45.1660
 0.8300	45.1500
 0.8310	45.1320
 0.8320	45.1170
 0.8330	45.1130
 0.8340	45.1120
 0.8350	45.1040
 0.8360	45.0990
 0.8370	45.0990
 0.8380	45.1000
 0.8390	45.0930
 0.8400	45.0940
 0.8410	45.0940
 0.8420	45.0920
 0.8430	45.0970
 0.8440	45.1070
 0.8450	45.1140
 0.8460	45.1140
 0.8470	45.1120
 0.8480	45.1210
 0.8490	45.1330
 0.8500	45.1360
 0.8510	45.1340
 0.8520	45.1380
 0.8530	45.1460
 0.8540	45.1490
 0.8550	45.1540
 0.8560	45.1610
 0.8570	45.1660
 0.8580	45.1660
 0.8590	45.1690
 0.8600	45.1710
 0.8610	45.1740
 0.8620	45.1900
 0.8630	45.1990
 0.8640	45.2000
 0.8650	45.1990
 0.8660	45.2060
 0.8670	45.2100
 0.8680	45.2150
 0.8690	45.2260
 0.8700	45.2290
 0.8710	45.2270
 0.8720	45.2270
 0.8730	45.2350
 0.8740	45.2420
 0.8750	45.2460
 0.8760	45.2500
 0.8770	45.2590
 0.8780	45.2670
 0.8790	45.2680
 0.8800	45.2660
 0.8810	45.2710
 0.8820	45.2730
 0.8830	45.2720
 0.8840	45.2720
 0.8850	45.2750
 0.8860	45.2750
 0.8870	45.2750
 0.8880	45.2780
 0.8890	45.2820
 0.8900	45.2760
 0.8910	45.2690
 0.8920	45.2730
 0.8930	45.2680
 0.8940	45.2700
 0.8950	45.2750
 0.8960	45.2660
 0.8970	45.2630
 0.8980	45.2650
 0.8990	45.2660
 0.9000	45.2570
 0.9010	45.2530
 0.9020	45.2530
 0.9030	45.2550
 0.9040	45.2510
 0.9050	45.2490
 0.9060	45.2470
 0.9070	45.2410
 0.9080	45.2310
 0.9090	45.2240
 0.9100	45.2170
 0.9110	45.2070
 0.9120	45.2080
 0.9130	45.1950
 0.9140	45.1790
 0.9150	45.1720
 0.9160	45.1650
 0.9170	45.1590
 0.9180	45.1430
 0.9190	45.1130
 0.9200	45.0840
 0.9210	45.0620
 0.9220	45.0440
 0.9230	45.0210
 0.9240	44.9820
 0.9250	44.9400
 0.9260	44.9000
 0.9270	44.8600
 0.9280	44.8070
 0.9290	44.7480
 0.9300	44.6910
 0.9310	44.6400
 0.9320	44.5790
 0.9330	44.5200
 0.9340	44.4600
 0.9350	44.3770
 0.9360	44.2980
 0.9370	44.2190
 0.9380	44.1350
 0.9390	44.0530
 0.9400	43.9850
 0.9410	43.9020
 0.9420	43.7940
 0.9430	43.7010
 0.9440	43.5950
 0.9450	43.4840
 0.9460	43.3720
 0.9470	43.2480
 0.9480	43.0990
 0.9490	42.9380
 0.9500	42.7790
 0.9510	42.6340
 0.9520	42.4770
 0.9530	42.3010
 0.9540	42.1140
 0.9550	41.9370
 0.9560	41.7700
 0.9570	41.6160
 0.9580	41.4760
 0.9590	41.3420
 0.9600	41.2130
 0.9610	41.1010
 0.9620	41.0120
 0.9630	40.9250
 0.9640	40.8710
 0.9650	40.8260
 0.9660	40.7610
 0.9670	40.7260
 0.9680	40.6930
 0.9690	40.6600
 0.9700	40.6350
 0.9710	40.6150
 0.9720	40.5890
 0.9730	40.5710
 0.9740	40.5760
 0.9750	40.5660
 0.9760	40.5490
 0.9770	40.5430
 0.9780	40.5580
 0.9790	40.5510
 0.9800	40.5700
 0.9810	40.6040
 0.9820	40.6220
 0.9830	40.6570
 0.9840	40.6780
 0.9850	40.6960
 0.9860	40.7360
 0.9870	40.7750
 0.9880	40.8180
 0.9890	40.8660
 0.9900	40.9170
 0.9910	40.9490
 0.9920	41.0370
 0.9930	41.1260
 0.9940	41.2140
 0.9950	41.3020
 0.9960	41.3910
 0.9970	41.4790
 0.9980	41.5680
 0.9990	41.6560
 1.0000	41.7450
 1.0010	41.8330
 1.0020	41.9220
 1.0030	42.0100
 1.0040	42.0990
 1.0050	42.1870
 1.0060	42.2760
 1.0070	42.3640
 1.0080	42.4520
 1.0090	42.5410
 1.0100	42.5410
 1.0110	42.6040
 1.0120	42.6710
 1.0130	42.7400
 1.0140	42.8070
 1.0150	42.8760
 1.0160	42.9480
 1.0170	43.0140
 1.0180	43.0770
 1.0190	43.1420
 1.0200	43.2050
 1.0210	43.2660
 1.0220	43.3300
 1.0230	43.3940
 1.0240	43.4600
 1.0250	43.5240
 1.0260	43.5910
 1.0270	43.6520
 1.0280	43.7110
 1.0290	43.7690
 1.0300	43.8230
 1.0310	43.8810
 1.0320	43.9440
 1.0330	44.0000
 1.0340	44.0580
 1.0350	44.1120
 1.0360	44.1630
 1.0370	44.2110
 1.0380	44.2600
 1.0390	44.3080
 1.0400	44.3570
 1.0410	44.4050
 1.0420	44.4530
 1.0430	44.5020
 1.0440	44.5450
 1.0450	44.5870
 1.0460	44.6250
 1.0470	44.6580
 1.0480	44.6930
 1.0490	44.7250
 1.0500	44.7570
 1.0510	44.7870
 1.0520	44.8180
 1.0530	44.8470
 1.0540	44.8720
 1.0550	44.8990
 1.0560	44.9290
 1.0570	44.9530
 1.0580	44.9760
 1.0590	44.9970
 1.0600	45.0170
 1.0610	45.0340
 1.0620	45.0530
 1.0630	45.0680
 1.0640	45.0760
 1.0650	45.0850
 1.0660	45.0890
 1.0670	45.0960
 1.0680	45.1030
 1.0690	45.1130
 1.0700	45.1180
 1.0710	45.1220
 1.0720	45.1230
 1.0730	45.1190
 1.0740	45.1170
 1.0750	45.1180
 1.0760	45.1140
 1.0770	45.1080
 1.0780	45.1000
 1.0790	45.0890
 1.0800	45.0770
 1.0810	45.0660
 1.0820	45.0510
 1.0830	45.0320
 1.0840	45.0140
 1.0850	44.9950
 1.0860	44.9760
 1.0870	44.9550
 1.0880	44.9360
 1.0890	44.9120
 1.0900	44.8830
 1.0910	44.8560
 1.0920	44.8270
 1.0930	44.7980
 1.0940	44.7700
 1.0950	44.7370
 1.0960	44.7010
 1.0970	44.6660
 1.0980	44.6290
 1.0990	44.5920
 1.1000	44.5570
 1.1010	44.5200
 1.1020	44.4810
 1.1030	44.4430
 1.1040	44.4040
 1.1050	44.3630
 1.1060	44.3220
 1.1070	44.2800
 1.1080	44.2350
 1.1090	44.1900
 1.1100	44.1430
 1.1110	44.0920
 1.1120	44.0420
 1.1130	43.9930
 1.1140	43.9380
 1.1150	43.8840
 1.1160	43.8210
 1.1170	43.7520
 1.1180	43.6770
 1.1190	43.5970
 1.1200	43.5070
 1.1210	43.4140
 1.1220	43.3120
 1.1230	43.1970
 1.1240	43.0750
 1.1250	42.9380
 1.1260	42.7900
 1.1270	42.6280
 1.1280	42.4590
 1.1290	42.2690
 1.1300	42.0660
 1.1310	41.8450
 1.1320	41.6080
 1.1330	41.3570
 1.1340	41.0890
 1.1350	40.8100
 1.1360	40.5170
 1.1370	40.2140
 1.1380	39.9020
 1.1390	39.5820
 1.1400	39.2530
 1.1410	38.9250
 1.1420	38.5950
 1.1430	38.2670
 1.1440	37.9490
 1.1450	37.6320
 1.1460	37.3310
 1.1470	37.0340
 1.1480	36.7580
 1.1490	36.4940
 1.1500	36.2500
 1.1510	36.0210
 1.1520	35.8100
 1.1530	35.6180
 1.1540	35.4410
 1.1550	35.2810
 1.1560	35.1390
 1.1570	35.0130
 1.1580	34.9010
 1.1590	34.8050
 1.1600	34.7190
 1.1610	34.6450
 1.1620	34.5820
 1.1630	34.5270
 1.1640	34.4800
 1.1650	34.4370
 1.1660	34.4030
 1.1670	34.3710
 1.1680	34.3440
 1.1690	34.3180
 1.1700	34.2970
 1.1710	34.2760
 1.1720	34.2570
 1.1730	34.2390
 1.1740	34.2240
 1.1750	34.2050
 1.1760	34.1860
 1.1770	34.1660
 1.1780	34.1420
 1.1790	34.1180
 1.1800	34.0940
 1.1810	34.0680
 1.1820	34.0440
 1.1830	34.0220
 1.1840	34.0000
 1.1850	33.9770
 1.1860	33.9540
 1.1870	33.9320
 1.1880	33.9140
 1.1890	33.8960
 1.1900	33.8820
 1.1910	33.8710
 1.1920	33.8620
 1.1930	33.8570
 1.1940	33.8540
 1.1950	33.8520
 1.1960	33.8530
 1.1970	33.8580
 1.1980	33.8650
 1.1990	33.8760
 1.2000	33.8900
 1.2010	33.9060
 1.2020	33.9230
 1.2030	33.9430
 1.2040	33.9650
 1.2050	33.9880
 1.2060	34.0150
 1.2070	34.0450
 1.2080	34.0770
 1.2090	34.1110
 1.2100	34.1470
 1.2110	34.1840
 1.2120	34.2250
 1.2130	34.2660
 1.2140	34.3100
 1.2150	34.3550
 1.2160	34.4020
 1.2170	34.4490
 1.2180	34.5000
 1.2190	34.5510
 1.2200	34.6020
 1.2210	34.6550
 1.2220	34.7060
 1.2230	34.7550
 1.2240	34.8060
 1.2250	34.8540
 1.2260	34.9010
 1.2270	34.9470
 1.2280	34.9910
 1.2290	35.0370
 1.2300	35.0820
 1.2310	35.1250
 1.2320	35.1670
 1.2330	35.2080
 1.2340	35.2480
 1.2350	35.2870
 1.2360	35.3250
 1.2370	35.3620
 1.2380	35.3980
 1.2390	35.4320
 1.2400	35.4670
 1.2410	35.5040
 1.2420	35.5390
 1.2430	35.5730
 1.2440	35.6080
 1.2450	35.6390
 1.2460	35.6680
 1.2470	35.6970
 1.2480	35.7230
 1.2490	35.7500
 1.2500	35.7730
 1.2510	35.7960
 1.2520	35.8180
 1.2530	35.8390
 1.2540	35.8600
 1.2550	35.8800
 1.2560	35.9000
 1.2570	35.9160
 1.2580	35.9290
 1.2590	35.9410
 1.2600	35.9500
 1.2610	35.9570
 1.2620	35.9610
 1.2630	35.9650
 1.2640	35.9670
 1.2650	35.9670
 1.2660	35.9660
 1.2670	35.9620
 1.2680	35.9560
 1.2690	35.9460
 1.2700	35.9340
 1.2710	35.9190
 1.2720	35.9020
 1.2730	35.8850
 1.2740	35.8650
 1.2750	35.8440
 1.2760	35.8210
 1.2770	35.7930
 1.2780	35.7610
 1.2790	35.7260
 1.2800	35.6890
 1.2810	35.6490
 1.2820	35.6070
 1.2830	35.5620
 1.2840	35.5140
 1.2850	35.4660
 1.2860	35.4160
 1.2870	35.3610
 1.2880	35.3020
 1.2890	35.2400
 1.2900	35.1710
 1.2910	35.0980
 1.2920	35.0250
 1.2930	34.9490
 1.2940	34.8690
 1.2950	34.7860
 1.2960	34.6990
 1.2970	34.6070
 1.2980	34.5110
 1.2990	34.4110
 1.3000	34.3070
 1.3010	34.1980
 1.3020	34.0850
 1.3030	33.9690
 1.3040	33.8460
 1.3050	33.7200
 1.3060	33.5930
 1.3070	33.4590
 1.3080	33.3210
 1.3090	33.1800
 1.3100	33.0350
 1.3110	32.8850
 1.3120	32.7310
 1.3130	32.5750
 1.3140	32.4140
 1.3150	32.2470
 1.3160	32.0790
 1.3170	31.9090
 1.3180	31.7330
 1.3190	31.5550
 1.3200	31.3710
 1.3210	31.1820
 1.3220	30.9910
 1.3230	30.7970
 1.3240	30.6010
 1.3250	30.4070
 1.3260	30.2110
 1.3270	30.0140
 1.3280	29.8160
 1.3290	29.6160
 1.3300	29.4160
 1.3310	29.2160
 1.3320	29.0140
 1.3330	28.8150
 1.3340	28.6170
 1.3350	28.4170
 1.3360	28.2210
 1.3370	28.0250
 1.3380	27.8300
 1.3390	27.6370
 1.3400	27.4460
 1.3410	27.2590
 1.3420	27.0790
 1.3430	26.9020
 1.3440	26.7290
 1.3450	26.5580
 1.3460	26.3890
 1.3470	26.2230
 1.3480	26.0600
 1.3490	25.9000
 1.3500	25.7460
 1.3510	25.5930
 1.3520	25.4410
 1.3530	25.2920
 1.3540	25.1410
 1.3550	24.9930
 1.3560	24.8440
 1.3570	24.6940
 1.3580	24.5450
 1.3590	24.3940
 1.3600	24.2400
 1.3610	24.0830
 1.3620	23.9200
 1.3630	23.7530
 1.3640	23.5790
 1.3650	23.3980
 1.3660	23.2110
 1.3670	23.0160
 1.3680	22.8090
 1.3690	22.5920
 1.3700	22.3640
 1.3710	22.1240
 1.3720	21.8720
 1.3730	21.6050
 1.3740	21.3260
 1.3750	21.0320
 1.3760	20.7210
 1.3770	20.3950
 1.3780	20.0500
 1.3790	19.6910
 1.3800	19.3180
 1.3810	18.9290
 1.3820	18.5320
 1.3830	18.1240
 1.3840	17.7110
 1.3850	17.2860
 1.3860	16.8620
 1.3870	16.4270
 1.3880	16.0000
 1.3890	15.5720
 1.3900	15.1450
 1.3910	14.7270
 1.3920	14.3140
 1.3930	13.9050
 1.3940	13.5080
 1.3950	13.1180
 1.3960	12.7400
 1.3970	12.3770
 1.3980	12.0270
 1.3990	11.6970
 1.4000	11.3820
 1.4010	11.0810
 1.4020	10.7980
 1.4030	10.5270
 1.4040	10.2730
 1.4050	10.0340
 1.4060	 9.8100
 1.4070	 9.6030
 1.4080	 9.4100
 1.4090	 9.2300
 1.4100	 9.0640
 1.4110	 8.9070
 1.4120	 8.7630
 1.4130	 8.6300
 1.4140	 8.5050
 1.4150	 8.3930
 1.4160	 8.2900
 1.4170	 8.1940
 1.4180	 8.1060
 1.4190	 8.0240
 1.4200	 7.9480
 1.4210	 7.8780
 1.4220	 7.8140
 1.4230	 7.7560
 1.4240	 7.7040
 1.4250	 7.6550
 1.4260	 7.6120
 1.4270	 7.5720
 1.4280	 7.5350
 1.4290	 7.5020
 1.4300	 7.4730
 1.4310	 7.4460
 1.4320	 7.4230
 1.4330	 7.4030
 1.4340	 7.3850
 1.4350	 7.3690
 1.4360	 7.3560
 1.4370	 7.3450
 1.4380	 7.3350
 1.4390	 7.3280
 1.4400	 7.3240
 1.4410	 7.3210
 1.4420	 7.3190
 1.4430	 7.3180
 1.4440	 7.3180
 1.4450	 7.3190
 1.4460	 7.3210
 1.4470	 7.3240
 1.4480	 7.3280
 1.4490	 7.3340
 1.4500	 7.3410
 1.4510	 7.3490
 1.4520	 7.3570
 1.4530	 7.3660
 1.4540	 7.3760
 1.4550	 7.3880
 1.4560	 7.4000
 1.4570	 7.4160
 1.4580	 7.4320
 1.4590	 7.4500
 1.4600	 7.4710
 1.4610	 7.4930
 1.4620	 7.5170
 1.4630	 7.5450
 1.4640	 7.5740
 1.4650	 7.6060
 1.4660	 7.6410
 1.4670	 7.6780
 1.4680	 7.7180
 1.4690	 7.7620
 1.4700	 7.8060
 1.4710	 7.8540
 1.4720	 7.9030
 1.4730	 7.9530
 1.4740	 8.0060
 1.4750	 8.0610
 1.4760	 8.1180
 1.4770	 8.1770
 1.4780	 8.2370
 1.4790	 8.2980
 1.4800	 8.3600
 1.4810	 8.4240
 1.4820	 8.4890
 1.4830	 8.5550
 1.4840	 8.6210
 1.4850	 8.6880
 1.4860	 8.7550
 1.4870	 8.8250
 1.4880	 8.8940
 1.4890	 8.9640
 1.4900	 9.0350
 1.4910	 9.1060
 1.4920	 9.1780
 1.4930	 9.2510
 1.4940	 9.3240
 1.4950	 9.3970
 1.4960	 9.4710
 1.4970	 9.5460
 1.4980	 9.6220
 1.4990	 9.6980
 1.5000	 9.7750
 1.5010	 9.8520
 1.5020	 9.9290
 1.5030	10.0060
 1.5040	10.0830
 1.5050	10.1600
 1.5060	10.2380
 1.5070	10.3180
 1.5080	10.3960
 1.5090	10.4750
 1.5100	10.5540
 1.5110	10.6310
 1.5120	10.7110
 1.5130	10.7900
 1.5140	10.8680
 1.5150	10.9480
 1.5160	11.0260
 1.5170	11.1060
 1.5180	11.1850
 1.5190	11.2630
 1.5200	11.3420
 1.5210	11.4190
 1.5220	11.4970
 1.5230	11.5750
 1.5240	11.6520
 1.5250	11.7290
 1.5260	11.8060
 1.5270	11.8820
 1.5280	11.9600
 1.5290	12.0370
 1.5300	12.1140
 1.5310	12.1910
 1.5320	12.2670
 1.5330	12.3420
 1.5340	12.4170
 1.5350	12.4910
 1.5360	12.5660
 1.5370	12.6410
 1.5380	12.7150
 1.5390	12.7890
 1.5400	12.8640
 1.5410	12.9370
 1.5420	13.0110
 1.5430	13.0840
 1.5440	13.1560
 1.5450	13.2270
 1.5460	13.2980
 1.5470	13.3700
 1.5480	13.4400
 1.5490	13.5100
 1.5500	13.5810
 1.5510	13.6510
 1.5520	13.7210
 1.5530	13.7890
 1.5540	13.8580
 1.5550	13.9250
 1.5560	13.9920
 1.5570	14.0590
 1.5580	14.1240
 1.5590	14.1890
 1.5600	14.2550
 1.5610	14.3200
 1.5620	14.3850
 1.5630	14.4500
 1.5640	14.5140
 1.5650	14.5760
 1.5660	14.6390
 1.5670	14.7020
 1.5680	14.7640
 1.5690	14.8250
 1.5700	14.8850
 1.5710	14.9450
 1.5720	15.0050
 1.5730	15.0650
 1.5740	15.1230
 1.5750	15.1820
 1.5760	15.2400
 1.5770	15.2970
 1.5780	15.3550
 1.5790	15.4110
 1.5800	15.4670
 1.5810	15.5230
 1.5820	15.5790
 1.5830	15.6340
 1.5840	15.6890
 1.5850	15.7430
 1.5860	15.7980
 1.5870	15.8540
 1.5880	15.9090
 1.5890	15.9640
 1.5900	16.0180
 1.5910	16.0700
 1.5920	16.1230
 1.5930	16.1760
 1.5940	16.2290
 1.5950	16.2820
 1.5960	16.3330
 1.5970	16.3840
 1.5980	16.4350
 1.5990	16.4850
 1.6000	16.5350
 1.6010	16.5840
 1.6020	16.6320
 1.6030	16.6790
 1.6040	16.7270
 1.6050	16.7730
 1.6060	16.8180
 1.6070	16.8630
 1.6080	16.9080
 1.6090	16.9520
 1.6100	16.9960
 1.6110	17.0390
 1.6120	17.0810
 1.6130	17.1230
 1.6140	17.1650
 1.6150	17.2060
 1.6160	17.2460
 1.6170	17.2860
 1.6180	17.3250
 1.6190	17.3650
 1.6200	17.4060
 1.6210	17.4440
 1.6220	17.4810
 1.6230	17.5170
 1.6240	17.5530
 1.6250	17.5870
 1.6260	17.6210
 1.6270	17.6550
 1.6280	17.6890
 1.6290	17.7220
 1.6300	17.7540
 1.6310	17.7850
 1.6320	17.8150
 1.6330	17.8450
 1.6340	17.8760
 1.6350	17.9040
 1.6360	17.9320
 1.6370	17.9590
 1.6380	17.9830
 1.6390	18.0060
 1.6400	18.0270
 1.6410	18.0470
 1.6420	18.0680
 1.6430	18.0870
 1.6440	18.1040
 1.6450	18.1180
 1.6460	18.1310
 1.6470	18.1420
 1.6480	18.1500
 1.6490	18.1580
 1.6500	18.1650
 1.6510	18.1690
 1.6520	18.1730
 1.6530	18.1750
 1.6540	18.1750
 1.6550	18.1740
 1.6560	18.1700
 1.6570	18.1650
 1.6580	18.1610
 1.6590	18.1550
 1.6600	18.1500
 1.6610	18.1460
 1.6620	18.1390
 1.6630	18.1330
 1.6640	18.1280
 1.6650	18.1220
 1.6660	18.1180
 1.6670	18.1140
 1.6680	18.1120
 1.6690	18.1080
 1.6700	18.1040
 1.6710	18.1000
 1.6720	18.0930
 1.6730	18.0860
 1.6740	18.0800
 1.6750	18.0730
 1.6760	18.0650
 1.6770	18.0550
 1.6780	18.0450
 1.6790	18.0330
 1.6800	18.0190
 1.6810	18.0040
 1.6820	17.9870
 1.6830	17.9670
 1.6840	17.9460
 1.6850	17.9240
 1.6860	17.9000
 1.6870	17.8760
 1.6880	17.8500
 1.6890	17.8210
 1.6900	17.7910
 1.6910	17.7600
 1.6920	17.7290
 1.6930	17.6970
 1.6940	17.6650
 1.6950	17.6310
 1.6960	17.5960
 1.6970	17.5580
 1.6980	17.5210
 1.6990	17.4810
 1.7000	17.4430
 1.7010	17.4060
 1.7020	17.3670
 1.7030	17.3280
 1.7040	17.2890
 1.7050	17.2470
 1.7060	17.2070
 1.7070	17.1680
 1.7080	17.1280
 1.7090	17.0880
 1.7100	17.0480
 1.7110	17.0090
 1.7120	16.9700
 1.7130	16.9310
 1.7140	16.8920
 1.7150	16.8540
 1.7160	16.8160
 1.7170	16.7790
 1.7180	16.7420
 1.7190	16.7050
 1.7200	16.6670
 1.7210	16.6290
 1.7220	16.5920
 1.7230	16.5550
 1.7240	16.5190
 1.7250	16.4830
 1.7260	16.4470
 1.7270	16.4120
 1.7280	16.3780
 1.7290	16.3450
 1.7300	16.3140
 1.7310	16.2830
 1.7320	16.2550
 1.7330	16.2240
 1.7340	16.1930
 1.7350	16.1600
 1.7360	16.1260
 1.7370	16.0900
 1.7380	16.0530
 1.7390	16.0140
 1.7400	15.9730
 1.7410	15.9300
 1.7420	15.8860
 1.7430	15.8410
 1.7440	15.7930
 1.7450	15.7450
 1.7460	15.6960
 1.7470	15.6460
 1.7480	15.5950
 1.7490	15.5460
 1.7500	15.4990
 1.7510	15.4480
 1.7520	15.3960
 1.7530	15.3460
 1.7540	15.2940
 1.7550	15.2450
 1.7560	15.1960
 1.7570	15.1480
 1.7580	15.1010
 1.7590	15.0570
 1.7600	15.0150
 1.7610	14.9750
 1.7620	14.9360
 1.7630	14.8970
 1.7640	14.8600
 1.7650	14.8230
 1.7660	14.7880
 1.7670	14.7580
 1.7680	14.7260
 1.7690	14.6930
 1.7700	14.6630
 1.7710	14.6310
 1.7720	14.6030
 1.7730	14.5770
 1.7740	14.5510
 1.7750	14.5260
 1.7760	14.5010
 1.7770	14.4780
 1.7780	14.4540
 1.7790	14.4300
 1.7800	14.4090
 1.7810	14.3900
 1.7820	14.3730
 1.7830	14.3600
 1.7840	14.3450
 1.7850	14.3310
 1.7860	14.3180
 1.7870	14.3050
 1.7880	14.2940
 1.7890	14.2870
 1.7900	14.2790
 1.7910	14.2720
 1.7920	14.2660
 1.7930	14.2620
 1.7940	14.2600
 1.7950	14.2590
 1.7960	14.2570
 1.7970	14.2570
 1.7980	14.2580
 1.7990	14.2600
 1.8000	14.2640
 1.8010	14.2680
 1.8020	14.2730
 1.8030	14.2770
 1.8040	14.2810
 1.8050	14.2830
 1.8060	14.2840
 1.8070	14.2850
 1.8080	14.2860
 1.8090	14.2890
 1.8100	14.2930
 1.8110	14.2970
 1.8120	14.3000
 1.8130	14.3000
 1.8140	14.3020
 1.8150	14.3050
 1.8160	14.3080
 1.8170	14.3080
 1.8180	14.3060
 1.8190	14.3040
 1.8200	14.3000
 1.8210	14.2960
 1.8220	14.2910
 1.8230	14.2810
 1.8240	14.2720
 1.8250	14.2630
 1.8260	14.2530
 1.8270	14.2460
 1.8280	14.2390
 1.8290	14.2310
 1.8300	14.2240
 1.8310	14.2160
 1.8320	14.2090
 1.8330	14.2010
 1.8340	14.1940
 1.8350	14.1940
 1.8360	14.1590
 1.8370	14.1180
 1.8380	14.0750
 1.8390	14.0290
 1.8400	13.9820
 1.8410	13.9310
 1.8420	13.8770
 1.8430	13.8180
 1.8440	13.7540
 1.8450	13.6830
 1.8460	13.6070
 1.8470	13.5220
 1.8480	13.4310
 1.8490	13.3360
 1.8500	13.2350
 1.8510	13.1270
 1.8520	13.0130
 1.8530	12.8920
 1.8540	12.7590
 1.8550	12.6170
 1.8560	12.4670
 1.8570	12.3110
 1.8580	12.1480
 1.8590	11.9760
 1.8600	11.7970
 1.8610	11.6100
 1.8620	11.4120
 1.8630	11.2050
 1.8640	10.9920
 1.8650	10.7680
 1.8660	10.5350
 1.8670	10.2950
 1.8680	10.0460
 1.8690	 9.7870
 1.8700	 9.5210
 1.8710	 9.2480
 1.8720	 8.9720
 1.8730	 8.6940
 1.8740	 8.4140
 1.8750	 8.1380
 1.8760	 7.8570
 1.8770	 7.5790
 1.8780	 7.3020
 1.8790	 7.0270
 1.8800	 6.7610
 1.8810	 6.5000
 1.8820	 6.2430
 1.8830	 5.9910
 1.8840	 5.7460
 1.8850	 5.5050
 1.8860	 5.2710
 1.8870	 5.0480
 1.8880	 4.8340
 1.8890	 4.6320
 1.8900	 4.4410
 1.8910	 4.2610
 1.8920	 4.0900
 1.8930	 3.9320
 1.8940	 3.7840
 1.8950	 3.6480
 1.8960	 3.5200
 1.8970	 3.4020
 1.8980	 3.2960
 1.8990	 3.2000
 1.9000	 3.1100
 1.9010	 3.0320
 1.9020	 2.9580
 1.9030	 2.8900
 1.9040	 2.8290
 1.9050	 2.7770
 1.9060	 2.7300
 1.9070	 2.6880
 1.9080	 2.6520
 1.9090	 2.6180
 1.9100	 2.5890
 1.9110	 2.5610
 1.9120	 2.5360
 1.9130	 2.5140
 1.9140	 2.4940
 1.9150	 2.4770
 1.9160	 2.4620
 1.9170	 2.4520
 1.9180	 2.4420
 1.9190	 2.4300
 1.9200	 2.4200
 1.9210	 2.4100
 1.9220	 2.4040
 1.9230	 2.4010
 1.9240	 2.3980
 1.9250	 2.4000
 1.9260	 2.4010
 1.9270	 2.3990
 1.9280	 2.3990
 1.9290	 2.4000
 1.9300	 2.4000
 1.9310	 2.4040
 1.9320	 2.4100
 1.9330	 2.4160
 1.9340	 2.4210
 1.9350	 2.4270
 1.9360	 2.4340
 1.9370	 2.4420
 1.9380	 2.4520
 1.9390	 2.4630
 1.9400	 2.4710
 1.9410	 2.4820
 1.9420	 2.4930
 1.9430	 2.5020
 1.9440	 2.5150
 1.9450	 2.5310
 1.9460	 2.5450
 1.9470	 2.5580
 1.9480	 2.5730
 1.9490	 2.5880
 1.9500	 2.6010
 1.9510	 2.6160
 1.9520	 2.6330
 1.9530	 2.6480
 1.9540	 2.6630
 1.9550	 2.6790
 1.9560	 2.6940
 1.9570	 2.7120
 1.9580	 2.7300
 1.9590	 2.7490
 1.9600	 2.7690
 1.9610	 2.7890
 1.9620	 2.8090
 1.9630	 2.8330
 1.9640	 2.8570
 1.9650	 2.8780
 1.9660	 2.8980
 1.9670	 2.9180
 1.9680	 2.9400
 1.9690	 2.9620
 1.9700	 2.9850
 1.9710	 3.0100
 1.9720	 3.0340
 1.9730	 3.0580
 1.9740	 3.0820
 1.9750	 3.1050
 1.9760	 3.1300
 1.9770	 3.1560
 1.9780	 3.1810
 1.9790	 3.2070
 1.9800	 3.2340
 1.9810	 3.2600
 1.9820	 3.2870
 1.9830	 3.3150
 1.9840	 3.3440
 1.9850	 3.3730
 1.9860	 3.4010
 1.9870	 3.4290
 1.9880	 3.4580
 1.9890	 3.4860
 1.9900	 3.5130
 1.9910	 3.5430
 1.9920	 3.5740
 1.9930	 3.6050
 1.9940	 3.6360
 1.9950	 3.6700
 1.9960	 3.7000
 1.9970	 3.7250
 1.9980	 3.7550
 1.9990	 3.7850
 2.0000	 3.8170
 2.0010	 3.8480
 2.0020	 3.8810
 2.0030	 3.9110
 2.0040	 3.9400
 2.0050	 3.9710
 2.0060	 4.0050
 2.0070	 4.0370
 2.0080	 4.0680
 2.0090	 4.0990
 2.0100	 4.1300
 2.0110	 4.1620
 2.0120	 4.1930
 2.0130	 4.2280
 2.0140	 4.2620
 2.0150	 4.2950
 2.0160	 4.3290
 2.0170	 4.3620
 2.0180	 4.3930
 2.0190	 4.4230
 2.0200	 4.4520
 2.0210	 4.4770
 2.0220	 4.5050
 2.0230	 4.5340
 2.0240	 4.5620
 2.0250	 4.5910
 2.0260	 4.6200
 2.0270	 4.6490
 2.0280	 4.6770
 2.0290	 4.7050
 2.0300	 4.7340
 2.0310	 4.7620
 2.0320	 4.7890
 2.0330	 4.8170
 2.0340	 4.8460
 2.0350	 4.8740
 2.0360	 4.9020
 2.0370	 4.9290
 2.0380	 4.9570
 2.0390	 4.9830
 2.0400	 5.0050
 2.0410	 5.0300
 2.0420	 5.0520
 2.0430	 5.0760
 2.0440	 5.1000
 2.0450	 5.1250
 2.0460	 5.1510
 2.0470	 5.1780
 2.0480	 5.2030
 2.0490	 5.2290
 2.0500	 5.2540
 2.0510	 5.2780
 2.0520	 5.3030
 2.0530	 5.3290
 2.0540	 5.3540
 2.0550	 5.3790
 2.0560	 5.4040
 2.0570	 5.4300
 2.0580	 5.4540
 2.0590	 5.4780
 2.0600	 5.5020
 2.0610	 5.5280
 2.0620	 5.5550
 2.0630	 5.5830
 2.0640	 5.6140
 2.0650	 5.6420
 2.0660	 5.6690
 2.0670	 5.6960
 2.0680	 5.7190
 2.0690	 5.7440
 2.0700	 5.7720
 2.0710	 5.7990
 2.0720	 5.8270
 2.0730	 5.8540
 2.0740	 5.8810
 2.0750	 5.9080
 2.0760	 5.9350
 2.0770	 5.9610
 2.0780	 5.9880
 2.0790	 6.0130
 2.0800	 6.0390
 2.0810	 6.0670
 2.0820	 6.0940
 2.0830	 6.1180
 2.0840	 6.1440
 2.0850	 6.1700
 2.0860	 6.1960
 2.0870	 6.2230
 2.0880	 6.2510
 2.0890	 6.2770
 2.0900	 6.3010
 2.0910	 6.3270
 2.0920	 6.3540
 2.0930	 6.3800
 2.0940	 6.4100
 2.0950	 6.4360
 2.0960	 6.4600
 2.0970	 6.4850
 2.0980	 6.5060
 2.0990	 6.5300
 2.1000	 6.5540
 2.1010	 6.5790
 2.1020	 6.6060
 2.1030	 6.6330
 2.1040	 6.6600
 2.1050	 6.6870
 2.1060	 6.7120
 2.1070	 6.7360
 2.1080	 6.7590
 2.1090	 6.7780
 2.1100	 6.8010
 2.1110	 6.8240
 2.1120	 6.8480
 2.1130	 6.8740
 2.1140	 6.8980
 2.1150	 6.9210
 2.1160	 6.9430
 2.1170	 6.9640
 2.1180	 6.9850
 2.1190	 7.0050
 2.1200	 7.0260
 2.1210	 7.0490
 2.1220	 7.0720
 2.1230	 7.0940
 2.1240	 7.1160
 2.1250	 7.1370
 2.1260	 7.1550
 2.1270	 7.1730
 2.1280	 7.1900
 2.1290	 7.2080
 2.1300	 7.2260
 2.1310	 7.2420
 2.1320	 7.2570
 2.1330	 7.2740
 2.1340	 7.2880
 2.1350	 7.3040
 2.1360	 7.3250
 2.1370	 7.3430
 2.1380	 7.3610
 2.1390	 7.3770
 2.1400	 7.3930
 2.1410	 7.4060
 2.1420	 7.4210
 2.1430	 7.4370
 2.1440	 7.4540
 2.1450	 7.4740
 2.1460	 7.4910
 2.1470	 7.5070
 2.1480	 7.5240
 2.1490	 7.5400
 2.1500	 7.5570
 2.1510	 7.5750
 2.1520	 7.5920
 2.1530	 7.6060
 2.1540	 7.6220
 2.1550	 7.6380
 2.1560	 7.6540
 2.1570	 7.6710
 2.1580	 7.6880
 2.1590	 7.7040
 2.1600	 7.7190
 2.1610	 7.7320
 2.1620	 7.7440
 2.1630	 7.7570
 2.1640	 7.7680
 2.1650	 7.7810
 2.1660	 7.7960
 2.1670	 7.8090
 2.1680	 7.8190
 2.1690	 7.8320
 2.1700	 7.8470
 2.1710	 7.8600
 2.1720	 7.8740
 2.1730	 7.8880
 2.1740	 7.9000
 2.1750	 7.9130
 2.1760	 7.9270
 2.1770	 7.9380
 2.1780	 7.9460
 2.1790	 7.9570
 2.1800	 7.9680
 2.1810	 7.9800
 2.1820	 7.9940
 2.1830	 8.0090
 2.1840	 8.0200
 2.1850	 8.0310
 2.1860	 8.0420
 2.1870	 8.0510
 2.1880	 8.0640
 2.1890	 8.0810
 2.1900	 8.0930
 2.1910	 8.1030
 2.1920	 8.1140
 2.1930	 8.1210
 2.1940	 8.1340
 2.1950	 8.1550
 2.1960	 8.1680
 2.1970	 8.1810
 2.1980	 8.1910
 2.1990	 8.1910
 2.2000	 8.1980
 2.2010	 8.2070
 2.2020	 8.2140
 2.2030	 8.2250
 2.2040	 8.2340
 2.2050	 8.2410
 2.2060	 8.2500
 2.2070	 8.2590
 2.2080	 8.2720
 2.2090	 8.2770
 2.2100	 8.2790
 2.2110	 8.2820
 2.2120	 8.2800
 2.2130	 8.2820
 2.2140	 8.2900
 2.2150	 8.2940
 2.2160	 8.2990
 2.2170	 8.3010
 2.2180	 8.3010
 2.2190	 8.2990
 2.2200	 8.2920
 2.2210	 8.2890
 2.2220	 8.2880
 2.2230	 8.2840
 2.2240	 8.2830
 2.2250	 8.2770
 2.2260	 8.2640
 2.2270	 8.2530
 2.2280	 8.2390
 2.2290	 8.2270
 2.2300	 8.2170
 2.2310	 8.2080
 2.2320	 8.1950
 2.2330	 8.1790
 2.2340	 8.1610
 2.2350	 8.1400
 2.2360	 8.1190
 2.2370	 8.0990
 2.2380	 8.0750
 2.2390	 8.0460
 2.2400	 8.0200
 2.2410	 7.9920
 2.2420	 7.9630
 2.2430	 7.9350
 2.2440	 7.9060
 2.2450	 7.8730
 2.2460	 7.8420
 2.2470	 7.8100
 2.2480	 7.7800
 2.2490	 7.7510
 2.2500	 7.7200
 2.2510	 7.6890
 2.2520	 7.6570
 2.2530	 7.6240
 2.2540	 7.5890
 2.2550	 7.5530
 2.2560	 7.5160
 2.2570	 7.4730
 2.2580	 7.4360
 2.2590	 7.4020
 2.2600	 7.3680
 2.2610	 7.3370
 2.2620	 7.3060
 2.2630	 7.2700
 2.2640	 7.2350
 2.2650	 7.1960
 2.2660	 7.1590
 2.2670	 7.1250
 2.2680	 7.0910
 2.2690	 7.0600
 2.2700	 7.0340
 2.2710	 7.0050
 2.2720	 6.9750
 2.2730	 6.9470
 2.2740	 6.9210
 2.2750	 6.8960
 2.2760	 6.8760
 2.2770	 6.8500
 2.2780	 6.8220
 2.2790	 6.7940
 2.2800	 6.7600
 2.2810	 6.7330
 2.2820	 6.7090
 2.2830	 6.6810
 2.2840	 6.6520
 2.2850	 6.6240
 2.2860	 6.5920
 2.2870	 6.5620
 2.2880	 6.5310
 2.2890	 6.5030
 2.2900	 6.4770
 2.2910	 6.4470
 2.2920	 6.4190
 2.2930	 6.3890
 2.2940	 6.3530
 2.2950	 6.3200
 2.2960	 6.2880
 2.2970	 6.2570
 2.2980	 6.2270
 2.2990	 6.2010
 2.3000	 6.1700
 2.3010	 6.1400
 2.3020	 6.1150
 2.3030	 6.0880
 2.3040	 6.0660
 2.3050	 6.0520
 2.3060	 6.0380
 2.3070	 6.0230
 2.3080	 6.0040
 2.3090	 5.9890
 2.3100	 5.9720
 2.3110	 5.9540
 2.3120	 5.9410
 2.3130	 5.9330
 2.3140	 5.9210
 2.3150	 5.9110
 2.3160	 5.8980
 2.3170	 5.8800
 2.3180	 5.8670
 2.3190	 5.8520
 2.3200	 5.8390
 2.3210	 5.8310
 2.3220	 5.8160
 2.3230	 5.7990
 2.3240	 5.7800
 2.3250	 5.7530
 2.3260	 5.7340
 2.3270	 5.7170
 2.3280	 5.6970
 2.3290	 5.6780
 2.3300	 5.6580
 2.3310	 5.6370
 2.3320	 5.6140
 2.3330	 5.5910
 2.3340	 5.5650
 2.3350	 5.5320
 2.3360	 5.5070
 2.3370	 5.4850
 2.3380	 5.4620
 2.3390	 5.4440
 2.3400	 5.4210
 2.3410	 5.3930
 2.3420	 5.3690
 2.3430	 5.3440
 2.3440	 5.3190
 2.3450	 5.2980
 2.3460	 5.2740
 2.3470	 5.2500
 2.3480	 5.2250
 2.3490	 5.1970
 2.3500	 5.1770
 2.3510	 5.1640
 2.3520	 5.1460
 2.3530	 5.1320
 2.3540	 5.1140
 2.3550	 5.0890
 2.3560	 5.0650
 2.3570	 5.0440
 2.3580	 5.0310
 2.3590	 5.0220
 2.3600	 5.0140
 2.3610	 5.0060
 2.3620	 4.9890
 2.3630	 4.9730
 2.3640	 4.9500
 2.3650	 4.9260
 2.3660	 4.9080
 2.3670	 4.8850
 2.3680	 4.8670
 2.3690	 4.8490
 2.3700	 4.8250
 2.3710	 4.8060
 2.3720	 4.7790
 2.3730	 4.7530
 2.3740	 4.7390
 2.3750	 4.7160
 2.3760	 4.6970
 2.3770	 4.6860
 2.3780	 4.6640
 2.3790	 4.6470
 2.3800	 4.6300
 2.3810	 4.6060
 2.3820	 4.5910
 2.3830	 4.5740
 2.3840	 4.5500
 2.3850	 4.5270
 2.3860	 4.4990
 2.3870	 4.4670
 2.3880	 4.4400
 2.3890	 4.4110
 2.3900	 4.3900
 2.3910	 4.3840
 2.3920	 4.3720
 2.3930	 4.3660
 2.3940	 4.3560
 2.3950	 4.3280
 2.3960	 4.3020
 2.3970	 4.2820
 2.3980	 4.2560
 2.3990	 4.2380
 2.4000	 4.2210
 2.4010	 4.1980
 2.4020	 4.1800
 2.4030	 4.1560
 2.4040	 4.1320
 2.4050	 4.1090
 2.4060	 4.0930
 2.4070	 4.0890
 2.4080	 4.0790
 2.4090	 4.0670
 2.4100	 4.0500
 2.4110	 4.0140
 2.4120	 3.9800
 2.4130	 3.9570
 2.4140	 3.9340
 2.4150	 3.9090
 2.4160	 3.8870
 2.4170	 3.8700
 2.4180	 3.8480
 2.4190	 3.8260
 2.4200	 3.8080
 2.4210	 3.7720
 2.4220	 3.7330
 2.4230	 3.7080
 2.4240	 3.6870
 2.4250	 3.6720
 2.4260	 3.6650
 2.4270	 3.6530
 2.4280	 3.6330
 2.4290	 3.6190
 2.4300	 3.5960
 2.4310	 3.5640
 2.4320	 3.5430
 2.4330	 3.5150
 2.4340	 3.4800
 2.4350	 3.4600
 2.4360	 3.4430
 2.4370	 3.4310
 2.4380	 3.4290
 2.4390	 3.4110
 2.4400	 3.3870
 2.4410	 3.3580
 2.4420	 3.3290
 2.4430	 3.3210
 2.4440	 3.3110
 2.4450	 3.2880
 2.4460	 3.2700
 2.4470	 3.2550
 2.4480	 3.2340
 2.4490	 3.2210
 2.4500	 3.2070
 2.4510	 3.1680
 2.4520	 3.1300
 2.4530	 3.1130
 2.4540	 3.1010
 2.4550	 3.0840
 2.4560	 3.0850
 2.4570	 3.0750
 2.4580	 3.0500
 2.4590	 3.0480
 2.4600	 3.0270
 2.4610	 2.9880
 2.4620	 2.9720
 2.4630	 2.9550
 2.4640	 2.9480
 2.4650	 2.9660
 2.4660	 2.9460
 2.4670	 2.9180
 2.4680	 2.8990
 2.4690	 2.8870
 2.4700	 2.8800
 2.4710	 2.8840
 2.4720	 2.8750
 2.4730	 2.8420
 2.4740	 2.8300
 2.4750	 2.8310
 2.4760	 2.8300
 2.4770	 2.8520
 2.4780	 2.8380
 2.4790	 2.8080
 2.4800	 2.7760
 2.4810	 2.7020
 2.4820	 2.7100
 2.4830	 2.6990
 2.4840	 2.6870
 2.4850	 2.7000
 2.4860	 2.7000
 2.4870	 2.6930
 2.4880	 2.6800
 2.4890	 2.6350
 2.4900	 2.5910
 2.4910	 2.5660
 2.4920	 2.5750
 2.4930	 2.6280
 2.4940	 2.6530
 2.4950	 2.6440
 2.4960	 2.6390
 2.4970	 2.6300
 2.4980	 2.6000
 2.4990	 2.6090
 2.5000	 2.6250
