Name: Quercus douglasii 3
Type: vegetation
Class: Tree
Genus: Quercus
Species: douglasii
Sample No.: VH082
Owner: UCSB
Wavelength Range: TIR
Origin: 34.7165; -120.0605; WGS84
Collection Date: 4/21/2013
Description: Samples were collected as part of the HyspIRI Airborne Campaign. 48 individual plants were sampled in three times in 2013 - spring  summer  and fall. The name of the sample includes a 1  2  or 3 which references a different individual of the species. Samples were taken to JPL and processed within 48 hours of collection. The same leaves were processed in the Nicolet and then measured using the ASD.
Measurement: Hemispherical reflectance
First Column: X
Second Column: Y
X Units: Wavelength (micrometers)
Y Units: Reflectance (percentage)
First X Value: 2.501
Last X Value: 15.387
Number of X Values: 1737
Additional Information: vegetation.tree.quercus.douglasii.tir.vh082.ucsb.nicolet.ancillary.txt

 2.5010	 8.1560
 2.5030	 8.0470
 2.5040	 7.9040
 2.5050	 7.7800
 2.5060	 7.9380
 2.5070	 7.9100
 2.5090	 7.8370
 2.5100	 7.7980
 2.5110	 7.8290
 2.5120	 7.8050
 2.5140	 7.8550
 2.5150	 7.8400
 2.5160	 7.9290
 2.5170	 7.8430
 2.5180	 7.7340
 2.5200	 7.8200
 2.5210	 7.9430
 2.5220	 7.8500
 2.5230	 7.8640
 2.5250	 7.8540
 2.5260	 7.8580
 2.5270	 7.8280
 2.5280	 7.8880
 2.5290	 7.7330
 2.5310	 7.7240
 2.5320	 7.7470
 2.5330	 7.8110
 2.5340	 7.8540
 2.5360	 7.8750
 2.5370	 7.7390
 2.5380	 7.7330
 2.5390	 7.6960
 2.5410	 7.6920
 2.5420	 7.6840
 2.5430	 7.7290
 2.5440	 7.7850
 2.5460	 7.8580
 2.5470	 7.8410
 2.5480	 7.8690
 2.5490	 7.7420
 2.5510	 7.8020
 2.5520	 7.9350
 2.5530	 7.9350
 2.5540	 7.8470
 2.5560	 7.9470
 2.5570	 7.9120
 2.5580	 7.8500
 2.5590	 7.8470
 2.5610	 7.8680
 2.5620	 7.8160
 2.5630	 7.9060
 2.5640	 7.8730
 2.5660	 7.9390
 2.5670	 7.9350
 2.5680	 7.8240
 2.5700	 7.8010
 2.5710	 7.8730
 2.5720	 7.8200
 2.5730	 7.8510
 2.5750	 7.8000
 2.5760	 7.8150
 2.5770	 7.8570
 2.5790	 7.8970
 2.5800	 7.8530
 2.5810	 7.9020
 2.5820	 7.8580
 2.5840	 7.9070
 2.5850	 7.8530
 2.5860	 7.7490
 2.5880	 7.7680
 2.5890	 7.7790
 2.5900	 7.6910
 2.5910	 7.7430
 2.5930	 7.8090
 2.5940	 7.8940
 2.5950	 7.7580
 2.5970	 7.7200
 2.5980	 7.7580
 2.5990	 7.7490
 2.6000	 7.5560
 2.6020	 7.5230
 2.6030	 7.5390
 2.6040	 7.5580
 2.6060	 7.5730
 2.6070	 7.6070
 2.6080	 7.4970
 2.6100	 7.5450
 2.6110	 7.5300
 2.6120	 7.5520
 2.6140	 7.4580
 2.6150	 7.5070
 2.6160	 7.4880
 2.6180	 7.4270
 2.6190	 7.3000
 2.6200	 7.4100
 2.6220	 7.4100
 2.6230	 7.3070
 2.6240	 7.2830
 2.6260	 7.3690
 2.6270	 7.3480
 2.6280	 7.3250
 2.6300	 7.2480
 2.6310	 7.2050
 2.6320	 7.1890
 2.6340	 7.1920
 2.6350	 7.1350
 2.6360	 7.2290
 2.6380	 7.1910
 2.6390	 7.1400
 2.6400	 7.0240
 2.6420	 7.0700
 2.6430	 7.0720
 2.6440	 7.0620
 2.6460	 7.0180
 2.6470	 7.0770
 2.6480	 7.0100
 2.6500	 6.9930
 2.6510	 6.9030
 2.6520	 6.8300
 2.6540	 6.7870
 2.6550	 6.8110
 2.6560	 6.7540
 2.6580	 6.8300
 2.6590	 6.8150
 2.6610	 6.8090
 2.6620	 6.6510
 2.6630	 6.6730
 2.6650	 6.7280
 2.6660	 6.7900
 2.6670	 6.7680
 2.6690	 6.7340
 2.6700	 6.6750
 2.6720	 6.7380
 2.6730	 6.5680
 2.6740	 6.4850
 2.6760	 6.5690
 2.6770	 6.6730
 2.6780	 6.5470
 2.6800	 6.3990
 2.6810	 6.4130
 2.6830	 6.5440
 2.6840	 6.4330
 2.6850	 6.4140
 2.6870	 6.3910
 2.6880	 6.3650
 2.6900	 6.3190
 2.6910	 6.2930
 2.6920	 6.2270
 2.6940	 6.2380
 2.6950	 6.1910
 2.6970	 6.2000
 2.6980	 6.1090
 2.6990	 6.1570
 2.7010	 6.1250
 2.7020	 6.1320
 2.7040	 6.1150
 2.7050	 6.0590
 2.7060	 6.0340
 2.7080	 6.0420
 2.7090	 5.9490
 2.7110	 6.0010
 2.7120	 5.8910
 2.7130	 5.8410
 2.7150	 5.7680
 2.7160	 5.7760
 2.7180	 5.7110
 2.7190	 5.6940
 2.7210	 5.5750
 2.7220	 5.5650
 2.7230	 5.4800
 2.7250	 5.5230
 2.7260	 5.4480
 2.7280	 5.3980
 2.7290	 5.2980
 2.7310	 5.2960
 2.7320	 5.2810
 2.7330	 5.3570
 2.7350	 5.2010
 2.7360	 5.1490
 2.7380	 5.1230
 2.7390	 5.1380
 2.7410	 5.0270
 2.7420	 5.0280
 2.7440	 5.0600
 2.7450	 5.1030
 2.7470	 4.9900
 2.7480	 4.9900
 2.7490	 4.9430
 2.7510	 4.8300
 2.7520	 4.6760
 2.7540	 4.7660
 2.7550	 4.7920
 2.7570	 4.8570
 2.7580	 4.8080
 2.7600	 4.7410
 2.7610	 4.6620
 2.7630	 4.7840
 2.7640	 4.7690
 2.7660	 4.7110
 2.7670	 4.6310
 2.7680	 4.6550
 2.7700	 4.6230
 2.7710	 4.6220
 2.7730	 4.5450
 2.7740	 4.6750
 2.7760	 4.6820
 2.7770	 4.5920
 2.7790	 4.3640
 2.7800	 4.3670
 2.7820	 4.4610
 2.7830	 4.4790
 2.7850	 4.4160
 2.7860	 4.4120
 2.7880	 4.3300
 2.7890	 4.4370
 2.7910	 4.4140
 2.7920	 4.4350
 2.7940	 4.2490
 2.7950	 4.1560
 2.7970	 4.1930
 2.7980	 4.3370
 2.8000	 4.2260
 2.8010	 4.0870
 2.8030	 4.0830
 2.8040	 4.3130
 2.8060	 4.2460
 2.8070	 4.2510
 2.8090	 4.2640
 2.8110	 4.3080
 2.8120	 4.2300
 2.8140	 4.2680
 2.8150	 4.1290
 2.8170	 4.2090
 2.8180	 4.3160
 2.8200	 4.4020
 2.8210	 4.3650
 2.8230	 4.2700
 2.8240	 4.1670
 2.8260	 4.2320
 2.8270	 4.2110
 2.8290	 4.2660
 2.8300	 4.2710
 2.8320	 4.2900
 2.8340	 4.3180
 2.8350	 4.4030
 2.8370	 4.3050
 2.8380	 4.2100
 2.8400	 4.1570
 2.8410	 4.1630
 2.8430	 4.1390
 2.8440	 4.2980
 2.8460	 4.3280
 2.8480	 4.2440
 2.8490	 4.1320
 2.8510	 4.2470
 2.8520	 4.3020
 2.8540	 4.2950
 2.8550	 4.2000
 2.8570	 4.1380
 2.8590	 4.1270
 2.8600	 4.2170
 2.8620	 4.1370
 2.8630	 4.1800
 2.8650	 4.1130
 2.8660	 4.2240
 2.8680	 4.1710
 2.8700	 4.1360
 2.8710	 4.0560
 2.8730	 4.1560
 2.8740	 4.0790
 2.8760	 4.1000
 2.8780	 4.2960
 2.8790	 4.4630
 2.8810	 4.3320
 2.8820	 4.4310
 2.8840	 4.3840
 2.8860	 4.2770
 2.8870	 4.1680
 2.8890	 4.2700
 2.8900	 4.1960
 2.8920	 4.1750
 2.8940	 4.0870
 2.8950	 4.1580
 2.8970	 4.1840
 2.8980	 4.2080
 2.9000	 4.2390
 2.9020	 4.3440
 2.9030	 4.2870
 2.9050	 4.3650
 2.9070	 4.3060
 2.9080	 4.2860
 2.9100	 4.1460
 2.9120	 4.0770
 2.9130	 4.0510
 2.9150	 4.1730
 2.9160	 4.3020
 2.9180	 4.4250
 2.9200	 4.2830
 2.9210	 4.2780
 2.9230	 4.3030
 2.9250	 4.3360
 2.9260	 4.3490
 2.9280	 4.3970
 2.9300	 4.2750
 2.9310	 4.3090
 2.9330	 4.3110
 2.9350	 4.3390
 2.9360	 4.2940
 2.9380	 4.2610
 2.9400	 4.1470
 2.9410	 4.1620
 2.9430	 4.1690
 2.9450	 4.1950
 2.9460	 4.1980
 2.9480	 4.2650
 2.9500	 4.2810
 2.9510	 4.3190
 2.9530	 4.3840
 2.9550	 4.5450
 2.9560	 4.5690
 2.9580	 4.6320
 2.9600	 4.4580
 2.9610	 4.3220
 2.9630	 4.3650
 2.9650	 4.5780
 2.9660	 4.5690
 2.9680	 4.0690
 2.9700	 3.7140
 2.9720	 4.3320
 2.9730	 4.5750
 2.9750	 4.4580
 2.9770	 3.9040
 2.9780	 4.2880
 2.9800	 4.9320
 2.9820	 4.6390
 2.9840	 4.3130
 2.9850	 4.7530
 2.9870	 4.7740
 2.9890	 4.6530
 2.9900	 4.7880
 2.9920	 4.3470
 2.9940	 4.2810
 2.9960	 4.4340
 2.9970	 4.4590
 2.9990	 4.5820
 3.0010	 4.4680
 3.0030	 4.4400
 3.0040	 4.4620
 3.0060	 4.5790
 3.0080	 4.5470
 3.0100	 4.4240
 3.0110	 4.1200
 3.0130	 4.7370
 3.0150	 4.8960
 3.0170	 4.2190
 3.0180	 4.2000
 3.0200	 4.3500
 3.0220	 4.3610
 3.0240	 4.4830
 3.0250	 4.4750
 3.0270	 4.4800
 3.0290	 4.4830
 3.0310	 4.4180
 3.0320	 4.2820
 3.0340	 4.2070
 3.0360	 4.0150
 3.0380	 4.2200
 3.0400	 4.6070
 3.0410	 4.5970
 3.0430	 4.6770
 3.0450	 4.6990
 3.0470	 4.1880
 3.0480	 4.1240
 3.0500	 4.5430
 3.0520	 4.8590
 3.0540	 4.6320
 3.0560	 4.5370
 3.0570	 4.6800
 3.0590	 4.4080
 3.0610	 4.0970
 3.0630	 4.3220
 3.0650	 4.4230
 3.0660	 4.2290
 3.0680	 4.2770
 3.0700	 4.5530
 3.0720	 4.5460
 3.0740	 4.4570
 3.0760	 4.4190
 3.0770	 4.5370
 3.0790	 4.6200
 3.0810	 4.6070
 3.0830	 4.4700
 3.0850	 4.4200
 3.0870	 4.3740
 3.0880	 4.4380
 3.0900	 4.4820
 3.0920	 4.5540
 3.0940	 4.5470
 3.0960	 4.7090
 3.0980	 4.7320
 3.0990	 4.5840
 3.1010	 4.4100
 3.1030	 4.4510
 3.1050	 4.5590
 3.1070	 4.5760
 3.1090	 4.4510
 3.1110	 4.4390
 3.1120	 4.3710
 3.1140	 4.4960
 3.1160	 4.6150
 3.1180	 4.6800
 3.1200	 4.5670
 3.1220	 4.6100
 3.1240	 4.6900
 3.1260	 4.7160
 3.1270	 4.6090
 3.1290	 4.6210
 3.1310	 4.5830
 3.1330	 4.6000
 3.1350	 4.5360
 3.1370	 4.6380
 3.1390	 4.5770
 3.1410	 4.5250
 3.1430	 4.5360
 3.1450	 4.6190
 3.1460	 4.6560
 3.1480	 4.8090
 3.1500	 4.8600
 3.1520	 4.7960
 3.1540	 4.5810
 3.1560	 4.4550
 3.1580	 4.3840
 3.1600	 4.7140
 3.1620	 4.8100
 3.1640	 5.0070
 3.1660	 5.0080
 3.1680	 4.8910
 3.1700	 4.2480
 3.1710	 4.0890
 3.1730	 4.5510
 3.1750	 4.9280
 3.1770	 5.1370
 3.1790	 5.1060
 3.1810	 4.8430
 3.1830	 4.7140
 3.1850	 4.6990
 3.1870	 4.5490
 3.1890	 4.4350
 3.1910	 4.6320
 3.1930	 4.7180
 3.1950	 4.6700
 3.1970	 4.6270
 3.1990	 4.7000
 3.2010	 4.7950
 3.2030	 4.8540
 3.2050	 4.8570
 3.2070	 4.8140
 3.2090	 4.7620
 3.2110	 4.7690
 3.2130	 4.8310
 3.2150	 4.8250
 3.2170	 4.7150
 3.2190	 4.7550
 3.2210	 4.8050
 3.2230	 4.7780
 3.2250	 4.6780
 3.2270	 4.6500
 3.2290	 4.6860
 3.2310	 4.7860
 3.2330	 4.8070
 3.2350	 4.8890
 3.2370	 4.9370
 3.2390	 4.9730
 3.2410	 4.9550
 3.2430	 4.9790
 3.2450	 4.9110
 3.2470	 4.8290
 3.2490	 4.8500
 3.2510	 4.9530
 3.2530	 4.8990
 3.2550	 4.9610
 3.2570	 4.9350
 3.2590	 4.9010
 3.2610	 5.0260
 3.2630	 5.1870
 3.2650	 5.1060
 3.2670	 4.9140
 3.2690	 4.8650
 3.2720	 4.9620
 3.2740	 4.9750
 3.2760	 4.9990
 3.2780	 4.9550
 3.2800	 4.9890
 3.2820	 5.0200
 3.2840	 5.0530
 3.2860	 4.9380
 3.2880	 4.9590
 3.2900	 4.9960
 3.2920	 5.0370
 3.2940	 5.0800
 3.2960	 5.1940
 3.2990	 5.2170
 3.3010	 5.1660
 3.3030	 5.0690
 3.3050	 5.0970
 3.3070	 5.1250
 3.3090	 5.0910
 3.3110	 5.0540
 3.3130	 5.0560
 3.3150	 4.9780
 3.3180	 5.0230
 3.3200	 4.9350
 3.3220	 4.9630
 3.3240	 5.0710
 3.3260	 5.0890
 3.3280	 5.0010
 3.3300	 4.9170
 3.3330	 4.9490
 3.3350	 5.0490
 3.3370	 4.9910
 3.3390	 5.0260
 3.3410	 5.0130
 3.3430	 5.0450
 3.3450	 5.0380
 3.3480	 5.0470
 3.3500	 5.0100
 3.3520	 5.0270
 3.3540	 4.9980
 3.3560	 5.0550
 3.3580	 5.0630
 3.3610	 4.9830
 3.3630	 4.8880
 3.3650	 4.8040
 3.3670	 4.7390
 3.3690	 4.8090
 3.3720	 4.7950
 3.3740	 4.7610
 3.3760	 4.6840
 3.3780	 4.7320
 3.3800	 4.7920
 3.3830	 4.8980
 3.3850	 4.8690
 3.3870	 4.8320
 3.3890	 4.7390
 3.3910	 4.7490
 3.3940	 4.7290
 3.3960	 4.6920
 3.3980	 4.6370
 3.4000	 4.6430
 3.4020	 4.6950
 3.4050	 4.8000
 3.4070	 4.7630
 3.4090	 4.7970
 3.4110	 4.9140
 3.4140	 5.1340
 3.4160	 5.2080
 3.4180	 5.2280
 3.4200	 5.2850
 3.4230	 5.5170
 3.4250	 5.6810
 3.4270	 5.8210
 3.4290	 5.8130
 3.4320	 5.6880
 3.4340	 5.5130
 3.4360	 5.3730
 3.4390	 5.2310
 3.4410	 5.1890
 3.4430	 5.1520
 3.4450	 5.1140
 3.4480	 5.1100
 3.4500	 5.1470
 3.4520	 5.0550
 3.4550	 5.1270
 3.4570	 5.2960
 3.4590	 5.3260
 3.4620	 5.1650
 3.4640	 5.1210
 3.4660	 5.0890
 3.4680	 5.1590
 3.4710	 5.1850
 3.4730	 5.2390
 3.4750	 5.2200
 3.4780	 5.1730
 3.4800	 5.0860
 3.4820	 5.0780
 3.4850	 5.0660
 3.4870	 5.1310
 3.4890	 5.1200
 3.4920	 5.0700
 3.4940	 5.0750
 3.4970	 5.1500
 3.4990	 5.1220
 3.5010	 5.2000
 3.5040	 5.3010
 3.5060	 5.4650
 3.5080	 5.8070
 3.5110	 6.0170
 3.5130	 5.9360
 3.5160	 5.8410
 3.5180	 5.7540
 3.5200	 5.7150
 3.5230	 5.6820
 3.5250	 5.7100
 3.5270	 5.6710
 3.5300	 5.6420
 3.5320	 5.6850
 3.5350	 5.7090
 3.5370	 5.7240
 3.5400	 5.8050
 3.5420	 5.7760
 3.5440	 5.7650
 3.5470	 5.7700
 3.5490	 5.7830
 3.5520	 5.7620
 3.5540	 5.7620
 3.5570	 5.7620
 3.5590	 5.8100
 3.5610	 5.7910
 3.5640	 5.7890
 3.5660	 5.7540
 3.5690	 5.7310
 3.5710	 5.7490
 3.5740	 5.7960
 3.5760	 5.7430
 3.5790	 5.7620
 3.5810	 5.7400
 3.5840	 5.8040
 3.5860	 5.8530
 3.5890	 5.9280
 3.5910	 5.9020
 3.5930	 5.8660
 3.5960	 5.7570
 3.5980	 5.8430
 3.6010	 5.8930
 3.6030	 5.8250
 3.6060	 5.8120
 3.6080	 5.8810
 3.6110	 5.8630
 3.6140	 5.8640
 3.6160	 5.8520
 3.6190	 5.8010
 3.6210	 5.7880
 3.6240	 5.8480
 3.6260	 5.9180
 3.6290	 5.8850
 3.6310	 5.7890
 3.6340	 5.7700
 3.6360	 5.7920
 3.6390	 5.8170
 3.6410	 5.8270
 3.6440	 5.9220
 3.6470	 5.9110
 3.6490	 5.8510
 3.6520	 5.7880
 3.6540	 5.8560
 3.6570	 5.9070
 3.6590	 5.8960
 3.6620	 5.8160
 3.6650	 5.8670
 3.6670	 5.8890
 3.6700	 5.9310
 3.6720	 5.9240
 3.6750	 5.8780
 3.6780	 5.8770
 3.6800	 5.9790
 3.6830	 6.0160
 3.6850	 5.9840
 3.6880	 5.8850
 3.6910	 5.8960
 3.6930	 5.9270
 3.6960	 5.9290
 3.6990	 5.9430
 3.7010	 5.9640
 3.7040	 5.9760
 3.7060	 5.9670
 3.7090	 5.9170
 3.7120	 5.8970
 3.7140	 5.8950
 3.7170	 5.9400
 3.7200	 5.9310
 3.7220	 5.9750
 3.7250	 5.9950
 3.7280	 6.0090
 3.7300	 5.9300
 3.7330	 5.9580
 3.7360	 6.0190
 3.7390	 6.0600
 3.7410	 6.0540
 3.7440	 6.0850
 3.7470	 6.1370
 3.7490	 6.1960
 3.7520	 6.0690
 3.7550	 6.0200
 3.7580	 6.0260
 3.7600	 6.0560
 3.7630	 6.0690
 3.7660	 6.1300
 3.7680	 6.1230
 3.7710	 6.1180
 3.7740	 6.0610
 3.7770	 6.0570
 3.7790	 6.0540
 3.7820	 6.0260
 3.7850	 6.0050
 3.7880	 6.0650
 3.7900	 6.1040
 3.7930	 6.1070
 3.7960	 6.0740
 3.7990	 6.0610
 3.8020	 6.0590
 3.8040	 6.0620
 3.8070	 6.0010
 3.8100	 6.0170
 3.8130	 6.0580
 3.8160	 6.0970
 3.8180	 6.1230
 3.8210	 6.1480
 3.8240	 6.1130
 3.8270	 6.1890
 3.8300	 6.2020
 3.8330	 6.2290
 3.8350	 6.2510
 3.8380	 6.2690
 3.8410	 6.2370
 3.8440	 6.1960
 3.8470	 6.1030
 3.8500	 6.1580
 3.8520	 6.2300
 3.8550	 6.1910
 3.8580	 6.1510
 3.8610	 6.1900
 3.8640	 6.2020
 3.8670	 6.2470
 3.8700	 6.2260
 3.8730	 6.2280
 3.8750	 6.2040
 3.8780	 6.2240
 3.8810	 6.2140
 3.8840	 6.2070
 3.8870	 6.1960
 3.8900	 6.2150
 3.8930	 6.1830
 3.8960	 6.2170
 3.8990	 6.2850
 3.9020	 6.2790
 3.9050	 6.2150
 3.9080	 6.2120
 3.9110	 6.1850
 3.9140	 6.2730
 3.9160	 6.2830
 3.9190	 6.2540
 3.9220	 6.2760
 3.9250	 6.3130
 3.9280	 6.3030
 3.9310	 6.2940
 3.9340	 6.2900
 3.9370	 6.3160
 3.9400	 6.2790
 3.9430	 6.2510
 3.9460	 6.2740
 3.9490	 6.2810
 3.9520	 6.2180
 3.9550	 6.2510
 3.9580	 6.2820
 3.9610	 6.2970
 3.9640	 6.3280
 3.9670	 6.3710
 3.9700	 6.3320
 3.9730	 6.3390
 3.9770	 6.3390
 3.9800	 6.2640
 3.9830	 6.2660
 3.9860	 6.3340
 3.9890	 6.3710
 3.9920	 6.3670
 3.9950	 6.3280
 3.9980	 6.3660
 4.0010	 6.3380
 4.0040	 6.3050
 4.0070	 6.3690
 4.0100	 6.3760
 4.0130	 6.3010
 4.0170	 6.3470
 4.0200	 6.3470
 4.0230	 6.3280
 4.0260	 6.3140
 4.0290	 6.3600
 4.0320	 6.3640
 4.0350	 6.3700
 4.0380	 6.3180
 4.0420	 6.2900
 4.0450	 6.3570
 4.0480	 6.4070
 4.0510	 6.3450
 4.0540	 6.3280
 4.0570	 6.3160
 4.0610	 6.3090
 4.0640	 6.3610
 4.0670	 6.4360
 4.0700	 6.4420
 4.0730	 6.3780
 4.0770	 6.3240
 4.0800	 6.3540
 4.0830	 6.3710
 4.0860	 6.3750
 4.0890	 6.3560
 4.0930	 6.4090
 4.0960	 6.4240
 4.0990	 6.4370
 4.1020	 6.4340
 4.1060	 6.3990
 4.1090	 6.4390
 4.1120	 6.4390
 4.1150	 6.4520
 4.1190	 6.5180
 4.1220	 6.4980
 4.1250	 6.3840
 4.1280	 6.3740
 4.1320	 6.4120
 4.1350	 6.4150
 4.1380	 6.4410
 4.1420	 6.4210
 4.1450	 6.4100
 4.1480	 6.3890
 4.1520	 6.4380
 4.1550	 6.4580
 4.1580	 6.4950
 4.1620	 6.4890
 4.1650	 6.5000
 4.1680	 6.4760
 4.1720	 6.4510
 4.1750	 6.4600
 4.1780	 6.4980
 4.1820	 6.4700
 4.1850	 6.4390
 4.1890	 6.4460
 4.1920	 6.5100
 4.1950	 6.4740
 4.1990	 6.3730
 4.2020	 6.3880
 4.2060	 6.4610
 4.2090	 6.4480
 4.2120	 6.4100
 4.2160	 6.3750
 4.2190	 6.3510
 4.2230	 6.3670
 4.2260	 6.4460
 4.2300	 6.2830
 4.2330	 6.2220
 4.2360	 6.3230
 4.2400	 6.3640
 4.2430	 6.2440
 4.2470	 6.3350
 4.2500	 6.2680
 4.2540	 6.2580
 4.2570	 6.3870
 4.2610	 6.4380
 4.2640	 6.3600
 4.2680	 6.3180
 4.2710	 6.1810
 4.2750	 6.2160
 4.2780	 6.3230
 4.2820	 6.3610
 4.2850	 6.2320
 4.2890	 6.0920
 4.2930	 6.1270
 4.2960	 6.2780
 4.3000	 6.4040
 4.3030	 6.4780
 4.3070	 6.2810
 4.3100	 6.1750
 4.3140	 6.3010
 4.3180	 6.3060
 4.3210	 6.2860
 4.3250	 6.3390
 4.3280	 6.3430
 4.3320	 6.3720
 4.3360	 6.3590
 4.3390	 6.3000
 4.3430	 6.2580
 4.3470	 6.3140
 4.3500	 6.3240
 4.3540	 6.3020
 4.3570	 6.2890
 4.3610	 6.2740
 4.3650	 6.2980
 4.3680	 6.3160
 4.3720	 6.3340
 4.3760	 6.3390
 4.3800	 6.3100
 4.3830	 6.3130
 4.3870	 6.3350
 4.3910	 6.3070
 4.3940	 6.2630
 4.3980	 6.2730
 4.4020	 6.2650
 4.4060	 6.2380
 4.4090	 6.2000
 4.4130	 6.2100
 4.4170	 6.2510
 4.4210	 6.2000
 4.4240	 6.1600
 4.4280	 6.2190
 4.4320	 6.2500
 4.4360	 6.2480
 4.4400	 6.2410
 4.4430	 6.2430
 4.4470	 6.2570
 4.4510	 6.2200
 4.4550	 6.2030
 4.4590	 6.2170
 4.4620	 6.2540
 4.4660	 6.2460
 4.4700	 6.2020
 4.4740	 6.1850
 4.4780	 6.1930
 4.4820	 6.2180
 4.4860	 6.2170
 4.4900	 6.1900
 4.4930	 6.1790
 4.4970	 6.1810
 4.5010	 6.1790
 4.5050	 6.1810
 4.5090	 6.2080
 4.5130	 6.2290
 4.5170	 6.1690
 4.5210	 6.1730
 4.5250	 6.1750
 4.5290	 6.1800
 4.5330	 6.1700
 4.5370	 6.2110
 4.5410	 6.2180
 4.5450	 6.2000
 4.5490	 6.1110
 4.5530	 6.0740
 4.5570	 6.1090
 4.5610	 6.1150
 4.5650	 6.1560
 4.5690	 6.1720
 4.5730	 6.1810
 4.5770	 6.1560
 4.5810	 6.0720
 4.5850	 6.0490
 4.5890	 6.0990
 4.5930	 6.1120
 4.5970	 6.1020
 4.6010	 6.0680
 4.6050	 6.0210
 4.6090	 6.0250
 4.6130	 6.1010
 4.6170	 6.1850
 4.6220	 6.1820
 4.6260	 6.1040
 4.6300	 6.0600
 4.6340	 6.0620
 4.6380	 6.0550
 4.6420	 6.0970
 4.6460	 6.0750
 4.6510	 6.0240
 4.6550	 5.9990
 4.6590	 6.0280
 4.6630	 6.0720
 4.6670	 6.0400
 4.6720	 6.0830
 4.6760	 6.1290
 4.6800	 6.1390
 4.6840	 6.1240
 4.6880	 6.1390
 4.6930	 6.1520
 4.6970	 6.0950
 4.7010	 6.0950
 4.7050	 6.1200
 4.7100	 6.1280
 4.7140	 6.1500
 4.7180	 6.0860
 4.7230	 6.0150
 4.7270	 6.0170
 4.7310	 6.0670
 4.7360	 6.1350
 4.7400	 6.1200
 4.7440	 6.0550
 4.7490	 6.0750
 4.7530	 6.1010
 4.7570	 6.1350
 4.7620	 6.0990
 4.7660	 6.0580
 4.7700	 6.0620
 4.7750	 6.1040
 4.7790	 6.1260
 4.7840	 6.0570
 4.7880	 6.0440
 4.7920	 6.1250
 4.7970	 6.1170
 4.8010	 6.1050
 4.8060	 6.1560
 4.8100	 6.1740
 4.8150	 6.1370
 4.8190	 6.1120
 4.8240	 6.0660
 4.8280	 6.0820
 4.8330	 6.1210
 4.8370	 6.1560
 4.8420	 6.1600
 4.8460	 6.1790
 4.8510	 6.1520
 4.8550	 6.1530
 4.8600	 6.1360
 4.8640	 6.1680
 4.8690	 6.1640
 4.8730	 6.1290
 4.8780	 6.0960
 4.8830	 6.0700
 4.8870	 6.0720
 4.8920	 6.1240
 4.8960	 6.1590
 4.9010	 6.1820
 4.9060	 6.1470
 4.9100	 6.1330
 4.9150	 6.1660
 4.9200	 6.1680
 4.9240	 6.1310
 4.9290	 6.1130
 4.9340	 6.1150
 4.9380	 6.1700
 4.9430	 6.1950
 4.9480	 6.2170
 4.9530	 6.1810
 4.9570	 6.1590
 4.9620	 6.1630
 4.9670	 6.1710
 4.9720	 6.1680
 4.9760	 6.2130
 4.9810	 6.2290
 4.9860	 6.2600
 4.9910	 6.2420
 4.9960	 6.2260
 5.0000	 6.2190
 5.0050	 6.2160
 5.0100	 6.2180
 5.0150	 6.2470
 5.0200	 6.2440
 5.0250	 6.2350
 5.0290	 6.1840
 5.0340	 6.1560
 5.0390	 6.1910
 5.0440	 6.2530
 5.0490	 6.2900
 5.0540	 6.2520
 5.0590	 6.2250
 5.0640	 6.2630
 5.0690	 6.3060
 5.0740	 6.3310
 5.0790	 6.3170
 5.0840	 6.3090
 5.0890	 6.3280
 5.0940	 6.2890
 5.0990	 6.2310
 5.1040	 6.2920
 5.1090	 6.3020
 5.1140	 6.2890
 5.1190	 6.3330
 5.1240	 6.3610
 5.1290	 6.2860
 5.1340	 6.2900
 5.1390	 6.3070
 5.1440	 6.3090
 5.1490	 6.2800
 5.1540	 6.2880
 5.1600	 6.2860
 5.1650	 6.3040
 5.1700	 6.3240
 5.1750	 6.3210
 5.1800	 6.3140
 5.1850	 6.3260
 5.1910	 6.3120
 5.1960	 6.2990
 5.2010	 6.2860
 5.2060	 6.3310
 5.2110	 6.3110
 5.2170	 6.3000
 5.2220	 6.3240
 5.2270	 6.3820
 5.2320	 6.3750
 5.2380	 6.3380
 5.2430	 6.3220
 5.2480	 6.3160
 5.2540	 6.2610
 5.2590	 6.2860
 5.2640	 6.2660
 5.2700	 6.2760
 5.2750	 6.2760
 5.2800	 6.2390
 5.2860	 6.2340
 5.2910	 6.3000
 5.2970	 6.2910
 5.3020	 6.3050
 5.3070	 6.3370
 5.3130	 6.3490
 5.3180	 6.3370
 5.3240	 6.3170
 5.3290	 6.2760
 5.3350	 6.2720
 5.3400	 6.2820
 5.3460	 6.2750
 5.3510	 6.1910
 5.3570	 6.1860
 5.3620	 6.2110
 5.3680	 6.2630
 5.3730	 6.2250
 5.3790	 6.1960
 5.3850	 6.2160
 5.3900	 6.2850
 5.3960	 6.3140
 5.4010	 6.2860
 5.4070	 6.1890
 5.4130	 6.1440
 5.4180	 6.1290
 5.4240	 6.0990
 5.4300	 6.0880
 5.4350	 6.1380
 5.4410	 6.1370
 5.4470	 6.1560
 5.4530	 6.1420
 5.4580	 6.1310
 5.4640	 6.0610
 5.4700	 6.0660
 5.4760	 6.0790
 5.4810	 6.0810
 5.4870	 6.0880
 5.4930	 6.0850
 5.4990	 6.0240
 5.5050	 5.9980
 5.5110	 5.9290
 5.5160	 5.9190
 5.5220	 5.8920
 5.5280	 5.8920
 5.5340	 5.8510
 5.5400	 5.8500
 5.5460	 5.8720
 5.5520	 5.8690
 5.5580	 5.7830
 5.5640	 5.7890
 5.5700	 5.7500
 5.5760	 5.7210
 5.5820	 5.7000
 5.5880	 5.6840
 5.5940	 5.6030
 5.6000	 5.5740
 5.6060	 5.4930
 5.6120	 5.4050
 5.6180	 5.3510
 5.6240	 5.4030
 5.6300	 5.3810
 5.6360	 5.3460
 5.6420	 5.2220
 5.6490	 5.0930
 5.6550	 4.9400
 5.6610	 4.8930
 5.6670	 4.7690
 5.6730	 4.6700
 5.6800	 4.5580
 5.6860	 4.4380
 5.6920	 4.3510
 5.6980	 4.3530
 5.7040	 4.2480
 5.7110	 4.1450
 5.7170	 4.0910
 5.7230	 4.0830
 5.7300	 3.9610
 5.7360	 3.8420
 5.7420	 3.7450
 5.7490	 3.7520
 5.7550	 3.7430
 5.7620	 3.8620
 5.7680	 3.8980
 5.7740	 3.9670
 5.7810	 4.0590
 5.7870	 4.1440
 5.7940	 4.2050
 5.8000	 4.3560
 5.8070	 4.4100
 5.8130	 4.4900
 5.8200	 4.5270
 5.8260	 4.6580
 5.8330	 4.7380
 5.8390	 4.8760
 5.8460	 4.9260
 5.8530	 4.9620
 5.8590	 5.0280
 5.8660	 5.1730
 5.8720	 5.2380
 5.8790	 5.3520
 5.8860	 5.3340
 5.8920	 5.3610
 5.8990	 5.3900
 5.9060	 5.3810
 5.9130	 5.3690
 5.9190	 5.3470
 5.9260	 5.2780
 5.9330	 5.3140
 5.9400	 5.1830
 5.9470	 5.1030
 5.9530	 5.0280
 5.9600	 5.0110
 5.9670	 4.9590
 5.9740	 4.9390
 5.9810	 4.8780
 5.9880	 4.8520
 5.9950	 4.7670
 6.0020	 4.7460
 6.0090	 4.6150
 6.0160	 4.6160
 6.0230	 4.5620
 6.0300	 4.5380
 6.0370	 4.5000
 6.0440	 4.5500
 6.0510	 4.5810
 6.0580	 4.6420
 6.0650	 4.7360
 6.0720	 4.7990
 6.0790	 4.7220
 6.0860	 4.7620
 6.0930	 4.7010
 6.1000	 4.6540
 6.1080	 4.5920
 6.1150	 4.6050
 6.1220	 4.5660
 6.1290	 4.6160
 6.1370	 4.5880
 6.1440	 4.6490
 6.1510	 4.6250
 6.1580	 4.6600
 6.1660	 4.6170
 6.1730	 4.6190
 6.1800	 4.5340
 6.1880	 4.5400
 6.1950	 4.5640
 6.2030	 4.5890
 6.2100	 4.5240
 6.2170	 4.5950
 6.2250	 4.6320
 6.2320	 4.7450
 6.2400	 4.7320
 6.2470	 4.7600
 6.2550	 4.7110
 6.2630	 4.8490
 6.2700	 4.8540
 6.2780	 4.8900
 6.2850	 4.9250
 6.2930	 5.0360
 6.3010	 5.0240
 6.3080	 5.0670
 6.3160	 5.0710
 6.3240	 5.1880
 6.3310	 5.2630
 6.3390	 5.3170
 6.3470	 5.2250
 6.3550	 5.2230
 6.3620	 5.2440
 6.3700	 5.3230
 6.3780	 5.2970
 6.3860	 5.3030
 6.3940	 5.2990
 6.4020	 5.3420
 6.4100	 5.2830
 6.4180	 5.3580
 6.4260	 5.3340
 6.4330	 5.3390
 6.4410	 5.3400
 6.4490	 5.3750
 6.4580	 5.3080
 6.4660	 5.3630
 6.4740	 5.3590
 6.4820	 5.4240
 6.4900	 5.3630
 6.4980	 5.3760
 6.5060	 5.3500
 6.5140	 5.3610
 6.5230	 5.2670
 6.5310	 5.2470
 6.5390	 5.1620
 6.5470	 5.1370
 6.5550	 5.0020
 6.5640	 4.9460
 6.5720	 4.8280
 6.5800	 4.7930
 6.5890	 4.7740
 6.5970	 4.8360
 6.6060	 4.8240
 6.6140	 4.9310
 6.6220	 4.9580
 6.6310	 5.0860
 6.6390	 5.0850
 6.6480	 5.1300
 6.6560	 5.1280
 6.6650	 5.1870
 6.6740	 5.1890
 6.6820	 5.2390
 6.6910	 5.1900
 6.6990	 5.1920
 6.7080	 5.1580
 6.7170	 5.2180
 6.7260	 5.2110
 6.7340	 5.2160
 6.7430	 5.1030
 6.7520	 5.0700
 6.7610	 5.0380
 6.7690	 5.0620
 6.7780	 4.9990
 6.7870	 5.1440
 6.7960	 4.9910
 6.8050	 4.7510
 6.8140	 4.6690
 6.8230	 4.8230
 6.8320	 4.9720
 6.8410	 5.0660
 6.8500	 4.8880
 6.8590	 4.8510
 6.8680	 4.7610
 6.8770	 4.8360
 6.8860	 4.8860
 6.8950	 4.9020
 6.9050	 4.8380
 6.9140	 4.8940
 6.9230	 4.8270
 6.9320	 4.7890
 6.9420	 4.7420
 6.9510	 4.9150
 6.9600	 4.8710
 6.9700	 4.8360
 6.9790	 4.8140
 6.9880	 4.9190
 6.9980	 4.9310
 7.0070	 4.9930
 7.0170	 4.8500
 7.0260	 4.8380
 7.0360	 4.8840
 7.0450	 4.9530
 7.0550	 4.9430
 7.0650	 5.0390
 7.0740	 4.9500
 7.0840	 4.9470
 7.0940	 4.9070
 7.1030	 4.9800
 7.1130	 4.9590
 7.1230	 4.9760
 7.1330	 4.9100
 7.1420	 4.8530
 7.1520	 4.7330
 7.1620	 4.7660
 7.1720	 4.6870
 7.1820	 4.6810
 7.1920	 4.6050
 7.2020	 4.6490
 7.2120	 4.5850
 7.2220	 4.6020
 7.2320	 4.4970
 7.2420	 4.5020
 7.2520	 4.3910
 7.2620	 4.4000
 7.2730	 4.4480
 7.2830	 4.4520
 7.2930	 4.3720
 7.3030	 4.4850
 7.3140	 4.4260
 7.3240	 4.5350
 7.3340	 4.5540
 7.3450	 4.6570
 7.3550	 4.7120
 7.3660	 4.8440
 7.3760	 4.8220
 7.3870	 4.8560
 7.3970	 4.8070
 7.4080	 4.8510
 7.4180	 4.8440
 7.4290	 4.9660
 7.4400	 4.9060
 7.4500	 4.8290
 7.4610	 4.7060
 7.4720	 4.7180
 7.4830	 4.6440
 7.4930	 4.6690
 7.5040	 4.6140
 7.5150	 4.7810
 7.5260	 4.7150
 7.5370	 4.6690
 7.5480	 4.5540
 7.5590	 4.5920
 7.5700	 4.5360
 7.5810	 4.5270
 7.5920	 4.4840
 7.6030	 4.5330
 7.6140	 4.4220
 7.6260	 4.5070
 7.6370	 4.5190
 7.6480	 4.5410
 7.6590	 4.4760
 7.6710	 4.5920
 7.6820	 4.5020
 7.6930	 4.5640
 7.7050	 4.5470
 7.7160	 4.6100
 7.7280	 4.5310
 7.7390	 4.5490
 7.7510	 4.4550
 7.7630	 4.4910
 7.7740	 4.4370
 7.7860	 4.4660
 7.7980	 4.3900
 7.8090	 4.4520
 7.8210	 4.4200
 7.8330	 4.4370
 7.8450	 4.3980
 7.8570	 4.4650
 7.8690	 4.3710
 7.8810	 4.4440
 7.8930	 4.3710
 7.9050	 4.3900
 7.9170	 4.2970
 7.9290	 4.4010
 7.9410	 4.3540
 7.9530	 4.2840
 7.9650	 4.1190
 7.9780	 4.3100
 7.9900	 4.4340
 8.0020	 4.4510
 8.0150	 4.2800
 8.0270	 4.4230
 8.0390	 4.4420
 8.0520	 4.4410
 8.0640	 4.2680
 8.0770	 4.4310
 8.0900	 4.5220
 8.1020	 4.7080
 8.1150	 4.6820
 8.1280	 4.7080
 8.1400	 4.5890
 8.1530	 4.6970
 8.1660	 4.6250
 8.1790	 4.6800
 8.1920	 4.5740
 8.2050	 4.6680
 8.2180	 4.7160
 8.2310	 4.8620
 8.2440	 4.8120
 8.2570	 4.8850
 8.2700	 4.7800
 8.2830	 4.9870
 8.2970	 5.0020
 8.3100	 5.1170
 8.3230	 5.0530
 8.3370	 5.1940
 8.3500	 5.0760
 8.3640	 5.1300
 8.3770	 5.1020
 8.3910	 5.2240
 8.4040	 5.1930
 8.4180	 5.2140
 8.4320	 5.0840
 8.4450	 5.0730
 8.4590	 4.9590
 8.4730	 5.1270
 8.4870	 5.2280
 8.5010	 5.4510
 8.5150	 5.3410
 8.5290	 5.4330
 8.5430	 5.4100
 8.5570	 5.4070
 8.5710	 5.3260
 8.5850	 5.4740
 8.5990	 5.5060
 8.6140	 5.5280
 8.6280	 5.3250
 8.6420	 5.4210
 8.6570	 5.3480
 8.6710	 5.4070
 8.6860	 5.3440
 8.7000	 5.4370
 8.7150	 5.3190
 8.7300	 5.4240
 8.7440	 5.3690
 8.7590	 5.5040
 8.7740	 5.3870
 8.7890	 5.4760
 8.8040	 5.3210
 8.8190	 5.3330
 8.8340	 5.1630
 8.8490	 5.2370
 8.8640	 5.1360
 8.8790	 5.2070
 8.8940	 5.0210
 8.9100	 5.0260
 8.9250	 4.8920
 8.9400	 4.8930
 8.9560	 4.6820
 8.9710	 4.7680
 8.9870	 4.7220
 9.0020	 4.8110
 9.0180	 4.7580
 9.0340	 4.8180
 9.0500	 4.6850
 9.0650	 4.8960
 9.0810	 4.7580
 9.0970	 4.8370
 9.1130	 4.7790
 9.1290	 4.8990
 9.1450	 4.9070
 9.1610	 5.0190
 9.1780	 4.7920
 9.1940	 4.9180
 9.2100	 5.0380
 9.2270	 5.3190
 9.2430	 5.0760
 9.2600	 5.0820
 9.2760	 4.9930
 9.2930	 5.0660
 9.3090	 4.8280
 9.3260	 4.9340
 9.3430	 4.9790
 9.3600	 5.0850
 9.3770	 4.8130
 9.3940	 4.8740
 9.4110	 4.8920
 9.4280	 5.1120
 9.4450	 4.9910
 9.4620	 5.1100
 9.4800	 5.0690
 9.4970	 5.2480
 9.5140	 5.0980
 9.5320	 5.1300
 9.5500	 5.0710
 9.5670	 5.2160
 9.5850	 5.0110
 9.6030	 5.0990
 9.6200	 4.9650
 9.6380	 5.0240
 9.6560	 4.8640
 9.6740	 5.0270
 9.6920	 4.9760
 9.7100	 5.0650
 9.7290	 5.0610
 9.7470	 5.2570
 9.7650	 5.1260
 9.7840	 5.3260
 9.8020	 5.2170
 9.8210	 5.3130
 9.8390	 5.0870
 9.8580	 5.2330
 9.8770	 5.1900
 9.8960	 5.3410
 9.9150	 5.2380
 9.9340	 5.3420
 9.9530	 5.2900
 9.9720	 5.3780
 9.9910	 5.2590
10.0100	 5.5010
10.0300	 5.4410
10.0490	 5.5220
10.0690	 5.3430
10.0880	 5.4550
10.1080	 5.3010
10.1280	 5.4420
10.1480	 5.4440
10.1670	 5.5780
10.1870	 5.5160
10.2070	 5.7310
10.2280	 5.7750
10.2480	 5.9760
10.2680	 5.8460
10.2890	 5.9200
10.3090	 5.8140
10.3300	 6.0020
10.3500	 5.9250
10.3710	 6.1010
10.3920	 6.1530
10.4120	 6.4450
10.4330	 6.3740
10.4540	 6.4940
10.4760	 6.4180
10.4970	 6.5130
10.5180	 6.4330
10.5390	 6.6170
10.5610	 6.4570
10.5820	 6.6090
10.6040	 6.5080
10.6260	 6.5900
10.6480	 6.5300
10.6700	 6.6840
10.6920	 6.6700
10.7140	 6.7640
10.7360	 6.6140
10.7580	 6.7790
10.7800	 6.5910
10.8030	 6.6370
10.8250	 6.5280
10.8480	 6.6630
10.8710	 6.5440
10.8940	 6.7470
10.9170	 6.5560
10.9400	 6.6210
10.9630	 6.4480
10.9860	 6.5430
11.0090	 6.3210
11.0330	 6.4090
11.0560	 6.2650
11.0800	 6.5420
11.1040	 6.3780
11.1270	 6.4430
11.1510	 6.3680
11.1750	 6.5600
11.2000	 6.3540
11.2240	 6.4090
11.2480	 6.3170
11.2730	 6.4770
11.2970	 6.2490
11.3220	 6.4420
11.3470	 6.3830
11.3720	 6.5470
11.3970	 6.3850
11.4220	 6.5080
11.4470	 6.1870
11.4720	 6.1240
11.4980	 6.1300
11.5230	 6.4110
11.5490	 6.2160
11.5750	 6.3210
11.6000	 6.1450
11.6260	 6.2900
11.6530	 6.1200
11.6790	 6.3260
11.7050	 6.2220
11.7320	 6.4120
11.7580	 6.1500
11.7850	 6.1950
11.8120	 5.9830
11.8390	 6.0180
11.8660	 5.8840
11.8930	 6.0920
11.9200	 5.9210
11.9480	 6.1560
11.9760	 6.0800
12.0030	 6.2400
12.0310	 6.0850
12.0590	 6.3160
12.0870	 6.1270
12.1150	 6.2750
12.1440	 6.1510
12.1720	 6.3160
12.2010	 6.0960
12.2300	 6.3220
12.2590	 6.0470
12.2880	 6.2060
12.3170	 6.0090
12.3460	 6.1880
12.3760	 5.9830
12.4050	 6.1460
12.4350	 5.9520
12.4650	 6.1750
12.4950	 5.9630
12.5250	 6.0240
12.5550	 5.7980
12.5860	 5.9630
12.6170	 5.8180
12.6470	 5.9720
12.6780	 5.8150
12.7090	 5.9410
12.7410	 5.6880
12.7720	 5.7740
12.8030	 5.4810
12.8350	 5.7220
12.8670	 5.5460
12.8990	 5.7840
12.9310	 5.5420
12.9640	 5.6460
12.9960	 5.4110
13.0290	 5.6500
13.0610	 5.3850
13.0940	 5.4580
13.1280	 5.2660
13.1610	 5.6460
13.1940	 5.4400
13.2280	 5.6110
13.2620	 5.2900
13.2960	 5.5390
13.3300	 5.3100
13.3640	 5.2520
13.3990	 4.8960
13.4340	 5.1870
13.4690	 5.1090
13.5040	 5.4990
13.5390	 5.2810
13.5740	 5.3640
13.6100	 4.9980
13.6460	 5.3750
13.6820	 5.1970
13.7180	 5.4910
13.7540	 5.2070
13.7910	 5.4020
13.8280	 5.2250
13.8650	 5.4870
13.9020	 5.1750
13.9390	 5.4360
13.9770	 5.0480
14.0150	 5.3880
14.0530	 5.0610
14.0910	 5.2150
14.1290	 4.9190
14.1680	 5.2880
14.2070	 4.9020
14.2460	 5.0910
14.2850	 4.7770
14.3240	 5.1290
14.3640	 4.8150
14.4040	 4.9860
14.4440	 4.5210
14.4840	 4.9640
14.5250	 4.4890
14.5660	 4.7000
14.6070	 4.0250
14.6480	 4.4850
14.6900	 4.3460
14.7310	 4.8340
14.7730	 4.5780
14.8150	 5.1490
14.8580	 4.4470
14.9010	 4.6390
14.9440	 3.6530
14.9870	 4.4680
15.0300	 4.5580
15.0740	 5.1310
15.1180	 4.2540
15.1620	 4.6260
15.2060	 4.4600
15.2510	 5.1590
15.2960	 4.4980
15.3410	 5.1280
15.3870	 4.6290
