Name: Quercus lobata 1
Type: vegetation
Class: Tree
Genus: Quercus
Species: lobata
Sample No.: VH086
Owner: UCSB
Wavelength Range: TIR
Origin: 34.7139; -120.0598; WGS84
Collection Date: 4/21/2013
Description: Samples were collected as part of the HyspIRI Airborne Campaign. 48 individual plants were sampled in three times in 2013 - spring  summer  and fall. The name of the sample includes a 1  2  or 3 which references a different individual of the species. Samples were taken to JPL and processed within 48 hours of collection. The same leaves were processed in the Nicolet and then measured using the ASD.
Measurement: Hemispherical reflectance
First Column: X
Second Column: Y
X Units: Wavelength (micrometers)
Y Units: Reflectance (percentage)
First X Value: 2.501
Last X Value: 15.387
Number of X Values: 1737
Additional Information: vegetation.tree.quercus.lobata.tir.vh086.ucsb.nicolet.ancillary.txt

 2.5010	 8.1700
 2.5030	 8.1430
 2.5040	 8.0730
 2.5050	 8.0520
 2.5060	 8.1290
 2.5070	 8.0590
 2.5090	 7.9610
 2.5100	 7.9960
 2.5110	 8.0530
 2.5120	 7.9770
 2.5140	 7.8960
 2.5150	 7.8000
 2.5160	 7.8740
 2.5170	 7.9910
 2.5180	 8.0010
 2.5200	 7.9700
 2.5210	 7.9880
 2.5220	 8.0020
 2.5230	 8.0570
 2.5250	 8.0680
 2.5260	 8.0390
 2.5270	 7.9590
 2.5280	 7.8280
 2.5290	 7.8550
 2.5310	 7.9350
 2.5320	 7.8500
 2.5330	 7.8880
 2.5340	 8.0000
 2.5360	 7.9780
 2.5370	 7.9470
 2.5380	 8.0460
 2.5390	 8.1110
 2.5410	 8.0580
 2.5420	 8.0140
 2.5430	 8.1070
 2.5440	 8.0910
 2.5460	 7.9860
 2.5470	 7.9040
 2.5480	 7.9490
 2.5490	 8.0390
 2.5510	 8.0080
 2.5520	 7.9840
 2.5530	 8.0400
 2.5540	 8.0290
 2.5560	 8.0590
 2.5570	 8.1010
 2.5580	 8.1270
 2.5590	 8.1220
 2.5610	 8.1090
 2.5620	 8.0320
 2.5630	 7.8680
 2.5640	 7.8260
 2.5660	 8.0530
 2.5670	 8.1170
 2.5680	 8.0390
 2.5700	 8.0400
 2.5710	 8.0800
 2.5720	 8.0220
 2.5730	 7.9430
 2.5750	 7.9780
 2.5760	 7.9180
 2.5770	 7.8810
 2.5790	 7.9340
 2.5800	 7.9770
 2.5810	 8.0150
 2.5820	 8.1320
 2.5840	 8.0660
 2.5850	 8.0130
 2.5860	 8.0740
 2.5880	 8.0690
 2.5890	 8.0240
 2.5900	 7.9860
 2.5910	 7.9880
 2.5930	 7.9420
 2.5940	 8.0400
 2.5950	 7.9870
 2.5970	 7.9180
 2.5980	 7.9950
 2.5990	 8.0120
 2.6000	 7.9670
 2.6020	 7.9270
 2.6030	 7.8360
 2.6040	 7.7910
 2.6060	 7.8160
 2.6070	 7.8880
 2.6080	 7.9180
 2.6100	 7.8670
 2.6110	 7.8310
 2.6120	 7.8290
 2.6140	 7.6910
 2.6150	 7.6090
 2.6160	 7.7140
 2.6180	 7.8150
 2.6190	 7.7420
 2.6200	 7.7150
 2.6220	 7.6740
 2.6230	 7.6410
 2.6240	 7.5390
 2.6260	 7.4880
 2.6270	 7.4250
 2.6280	 7.4840
 2.6300	 7.5220
 2.6310	 7.5740
 2.6320	 7.5090
 2.6340	 7.4670
 2.6350	 7.5450
 2.6360	 7.5610
 2.6380	 7.4420
 2.6390	 7.4320
 2.6400	 7.4600
 2.6420	 7.4370
 2.6430	 7.3900
 2.6440	 7.4480
 2.6460	 7.4480
 2.6470	 7.3810
 2.6480	 7.3300
 2.6500	 7.3430
 2.6510	 7.3290
 2.6520	 7.3460
 2.6540	 7.2740
 2.6550	 7.2430
 2.6560	 7.2790
 2.6580	 7.1890
 2.6590	 7.1110
 2.6610	 7.1610
 2.6620	 7.1170
 2.6630	 6.9990
 2.6650	 7.0160
 2.6660	 7.0890
 2.6670	 7.1010
 2.6690	 7.2410
 2.6700	 7.2770
 2.6720	 7.1880
 2.6730	 7.1320
 2.6740	 7.0730
 2.6760	 7.0760
 2.6770	 7.1200
 2.6780	 7.0220
 2.6800	 7.0280
 2.6810	 7.0550
 2.6830	 7.0320
 2.6840	 6.9020
 2.6850	 6.8270
 2.6870	 6.8490
 2.6880	 6.9070
 2.6900	 6.8260
 2.6910	 6.7730
 2.6920	 6.7910
 2.6940	 6.7540
 2.6950	 6.6280
 2.6970	 6.6000
 2.6980	 6.5780
 2.6990	 6.5560
 2.7010	 6.6160
 2.7020	 6.7220
 2.7040	 6.6350
 2.7050	 6.5480
 2.7060	 6.4460
 2.7080	 6.4390
 2.7090	 6.5290
 2.7110	 6.5420
 2.7120	 6.4080
 2.7130	 6.3360
 2.7150	 6.3250
 2.7160	 6.2040
 2.7180	 6.0130
 2.7190	 5.9950
 2.7210	 5.9340
 2.7220	 5.8500
 2.7230	 5.7950
 2.7250	 5.8450
 2.7260	 5.7420
 2.7280	 5.6050
 2.7290	 5.5090
 2.7310	 5.6310
 2.7320	 5.5240
 2.7330	 5.2820
 2.7350	 5.2040
 2.7360	 5.2850
 2.7380	 5.1990
 2.7390	 5.0660
 2.7410	 4.9570
 2.7420	 4.8970
 2.7440	 4.8640
 2.7450	 4.8640
 2.7470	 4.8300
 2.7480	 4.7510
 2.7490	 4.6430
 2.7510	 4.5910
 2.7520	 4.6190
 2.7540	 4.6760
 2.7550	 4.5950
 2.7570	 4.4990
 2.7580	 4.3980
 2.7600	 4.3930
 2.7610	 4.3480
 2.7630	 4.3640
 2.7640	 4.3780
 2.7660	 4.4020
 2.7670	 4.3270
 2.7680	 4.2550
 2.7700	 4.2140
 2.7710	 4.2730
 2.7730	 4.2500
 2.7740	 4.2370
 2.7760	 4.2010
 2.7770	 4.1510
 2.7790	 4.1560
 2.7800	 4.2210
 2.7820	 4.0610
 2.7830	 3.9510
 2.7850	 3.9480
 2.7860	 4.0060
 2.7880	 3.9920
 2.7890	 3.9530
 2.7910	 3.9540
 2.7920	 3.9200
 2.7940	 3.8920
 2.7950	 3.9310
 2.7970	 3.9340
 2.7980	 3.9120
 2.8000	 3.8460
 2.8010	 3.8680
 2.8030	 3.8480
 2.8040	 3.8230
 2.8060	 3.7270
 2.8070	 3.7280
 2.8090	 3.7820
 2.8110	 3.7920
 2.8120	 3.6750
 2.8140	 3.6580
 2.8150	 3.6690
 2.8170	 3.7440
 2.8180	 3.7270
 2.8200	 3.6930
 2.8210	 3.7200
 2.8230	 3.7520
 2.8240	 3.6760
 2.8260	 3.6400
 2.8270	 3.6700
 2.8290	 3.6850
 2.8300	 3.6140
 2.8320	 3.5590
 2.8340	 3.6070
 2.8350	 3.6790
 2.8370	 3.5870
 2.8380	 3.6080
 2.8400	 3.6230
 2.8410	 3.5670
 2.8430	 3.5150
 2.8440	 3.5970
 2.8460	 3.6060
 2.8480	 3.4960
 2.8490	 3.4560
 2.8510	 3.5510
 2.8520	 3.6490
 2.8540	 3.6280
 2.8550	 3.5340
 2.8570	 3.5780
 2.8590	 3.5310
 2.8600	 3.4650
 2.8620	 3.5130
 2.8630	 3.5610
 2.8650	 3.4940
 2.8660	 3.5240
 2.8680	 3.5870
 2.8700	 3.5330
 2.8710	 3.3300
 2.8730	 3.4080
 2.8740	 3.6040
 2.8760	 3.5750
 2.8780	 3.4680
 2.8790	 3.4910
 2.8810	 3.5010
 2.8820	 3.4920
 2.8840	 3.6720
 2.8860	 3.8290
 2.8870	 3.6280
 2.8890	 3.4750
 2.8900	 3.3880
 2.8920	 3.4380
 2.8940	 3.4110
 2.8950	 3.2820
 2.8970	 3.2340
 2.8980	 3.3530
 2.9000	 3.4330
 2.9020	 3.4170
 2.9030	 3.4050
 2.9050	 3.4420
 2.9070	 3.4170
 2.9080	 3.2720
 2.9100	 3.2230
 2.9120	 3.3270
 2.9130	 3.4470
 2.9150	 3.4580
 2.9160	 3.3890
 2.9180	 3.4100
 2.9200	 3.4670
 2.9210	 3.4750
 2.9230	 3.4840
 2.9250	 3.4180
 2.9260	 3.2940
 2.9280	 3.4620
 2.9300	 3.5690
 2.9310	 3.4780
 2.9330	 3.4040
 2.9350	 3.4710
 2.9360	 3.4470
 2.9380	 3.3500
 2.9400	 3.3060
 2.9410	 3.3260
 2.9430	 3.3400
 2.9450	 3.4380
 2.9460	 3.4540
 2.9480	 3.4240
 2.9500	 3.2990
 2.9510	 3.3370
 2.9530	 3.4710
 2.9550	 3.5400
 2.9560	 3.5530
 2.9580	 3.3920
 2.9600	 3.3350
 2.9610	 3.4410
 2.9630	 3.1640
 2.9650	 3.1050
 2.9660	 3.1960
 2.9680	 3.1250
 2.9700	 3.4490
 2.9720	 3.8490
 2.9730	 3.6750
 2.9750	 3.4540
 2.9770	 3.7180
 2.9780	 3.6410
 2.9800	 3.0210
 2.9820	 2.7780
 2.9840	 3.0950
 2.9850	 3.1600
 2.9870	 2.8660
 2.9890	 3.0160
 2.9900	 3.6100
 2.9920	 3.8120
 2.9940	 3.4110
 2.9960	 2.6490
 2.9970	 2.8330
 2.9990	 3.5950
 3.0010	 3.5410
 3.0030	 3.2930
 3.0040	 3.2610
 3.0060	 3.3700
 3.0080	 3.3610
 3.0100	 3.6060
 3.0110	 3.7710
 3.0130	 3.7440
 3.0150	 3.6210
 3.0170	 3.7170
 3.0180	 3.6650
 3.0200	 3.5440
 3.0220	 3.4090
 3.0240	 3.3920
 3.0250	 3.3870
 3.0270	 3.3840
 3.0290	 3.3200
 3.0310	 3.3150
 3.0320	 3.2450
 3.0340	 3.3280
 3.0360	 3.2540
 3.0380	 3.1230
 3.0400	 3.0520
 3.0410	 3.2550
 3.0430	 3.4730
 3.0450	 3.4660
 3.0470	 3.5120
 3.0480	 3.6120
 3.0500	 3.6350
 3.0520	 3.4800
 3.0540	 3.3530
 3.0560	 3.7900
 3.0570	 3.6220
 3.0590	 3.0170
 3.0610	 2.8830
 3.0630	 2.9970
 3.0650	 3.3320
 3.0660	 3.6350
 3.0680	 3.5220
 3.0700	 3.4970
 3.0720	 3.5730
 3.0740	 3.6330
 3.0760	 3.6320
 3.0770	 3.6140
 3.0790	 3.5520
 3.0810	 3.5130
 3.0830	 3.5030
 3.0850	 3.4830
 3.0870	 3.5570
 3.0880	 3.6130
 3.0900	 3.5420
 3.0920	 3.4710
 3.0940	 3.3860
 3.0960	 3.4250
 3.0980	 3.5470
 3.0990	 3.5520
 3.1010	 3.5170
 3.1030	 3.4080
 3.1050	 3.3270
 3.1070	 3.4650
 3.1090	 3.5050
 3.1110	 3.4300
 3.1120	 3.4440
 3.1140	 3.5950
 3.1160	 3.5930
 3.1180	 3.4960
 3.1200	 3.5250
 3.1220	 3.6300
 3.1240	 3.6090
 3.1260	 3.6470
 3.1270	 3.6000
 3.1290	 3.5310
 3.1310	 3.5240
 3.1330	 3.5420
 3.1350	 3.6850
 3.1370	 3.8680
 3.1390	 3.9580
 3.1410	 3.7930
 3.1430	 3.4830
 3.1450	 3.4710
 3.1460	 3.5970
 3.1480	 3.7150
 3.1500	 3.8460
 3.1520	 3.9000
 3.1540	 3.6950
 3.1560	 3.6360
 3.1580	 3.9310
 3.1600	 3.8920
 3.1620	 3.7240
 3.1640	 3.7630
 3.1660	 4.0260
 3.1680	 4.2780
 3.1700	 4.0000
 3.1710	 3.8900
 3.1730	 4.0560
 3.1750	 4.4280
 3.1770	 4.5880
 3.1790	 4.5530
 3.1810	 4.3060
 3.1830	 4.4950
 3.1850	 4.5560
 3.1870	 4.2660
 3.1890	 4.1170
 3.1910	 3.8760
 3.1930	 3.8500
 3.1950	 3.9710
 3.1970	 3.9990
 3.1990	 4.0520
 3.2010	 4.0410
 3.2030	 4.0270
 3.2050	 4.1280
 3.2070	 4.1670
 3.2090	 4.0760
 3.2110	 4.0690
 3.2130	 4.1170
 3.2150	 4.1410
 3.2170	 4.1430
 3.2190	 4.1290
 3.2210	 4.1350
 3.2230	 4.0810
 3.2250	 4.0300
 3.2270	 4.1570
 3.2290	 4.2460
 3.2310	 4.3030
 3.2330	 4.3740
 3.2350	 4.3490
 3.2370	 4.2550
 3.2390	 4.1870
 3.2410	 4.3040
 3.2430	 4.4500
 3.2450	 4.4310
 3.2470	 4.4250
 3.2490	 4.4200
 3.2510	 4.3560
 3.2530	 4.4210
 3.2550	 4.4330
 3.2570	 4.3960
 3.2590	 4.4930
 3.2610	 4.5160
 3.2630	 4.4420
 3.2650	 4.3670
 3.2670	 4.3810
 3.2690	 4.4880
 3.2720	 4.6100
 3.2740	 4.6020
 3.2760	 4.5280
 3.2780	 4.5010
 3.2800	 4.5220
 3.2820	 4.5350
 3.2840	 4.5400
 3.2860	 4.5950
 3.2880	 4.6960
 3.2900	 4.7320
 3.2920	 4.7400
 3.2940	 4.7360
 3.2960	 4.7450
 3.2990	 4.6830
 3.3010	 4.6150
 3.3030	 4.7100
 3.3050	 4.7960
 3.3070	 4.7520
 3.3090	 4.6810
 3.3110	 4.6170
 3.3130	 4.5940
 3.3150	 4.5950
 3.3180	 4.6530
 3.3200	 4.7430
 3.3220	 4.7900
 3.3240	 4.6820
 3.3260	 4.6700
 3.3280	 4.6710
 3.3300	 4.6880
 3.3330	 4.7240
 3.3350	 4.6950
 3.3370	 4.6560
 3.3390	 4.7480
 3.3410	 4.8250
 3.3430	 4.8200
 3.3450	 4.7480
 3.3480	 4.6620
 3.3500	 4.5680
 3.3520	 4.5420
 3.3540	 4.5520
 3.3560	 4.5580
 3.3580	 4.5610
 3.3610	 4.5380
 3.3630	 4.4410
 3.3650	 4.3520
 3.3670	 4.3910
 3.3690	 4.4580
 3.3720	 4.3960
 3.3740	 4.2840
 3.3760	 4.2230
 3.3780	 4.3400
 3.3800	 4.4540
 3.3830	 4.3230
 3.3850	 4.1330
 3.3870	 4.1360
 3.3890	 4.2040
 3.3910	 4.1780
 3.3940	 4.1240
 3.3960	 4.1140
 3.3980	 4.0460
 3.4000	 4.0030
 3.4020	 4.1080
 3.4050	 4.1760
 3.4070	 4.1990
 3.4090	 4.2840
 3.4110	 4.3890
 3.4140	 4.4770
 3.4160	 4.5550
 3.4180	 4.6960
 3.4200	 4.8610
 3.4230	 4.9780
 3.4250	 5.0290
 3.4270	 5.1160
 3.4290	 5.2210
 3.4320	 5.2610
 3.4340	 5.2070
 3.4360	 5.0510
 3.4390	 4.9890
 3.4410	 5.0410
 3.4430	 5.0410
 3.4450	 5.0460
 3.4480	 5.0770
 3.4500	 5.1470
 3.4520	 5.1700
 3.4550	 5.1260
 3.4570	 5.0400
 3.4590	 4.9920
 3.4620	 4.9580
 3.4640	 4.9970
 3.4660	 5.0350
 3.4680	 5.0490
 3.4710	 5.0770
 3.4730	 5.1090
 3.4750	 5.1050
 3.4780	 5.0240
 3.4800	 5.0150
 3.4820	 5.0630
 3.4850	 5.0140
 3.4870	 4.9840
 3.4890	 4.9600
 3.4920	 4.8670
 3.4940	 4.8010
 3.4970	 4.8440
 3.4990	 4.8640
 3.5010	 4.9270
 3.5040	 5.0690
 3.5060	 5.2850
 3.5080	 5.4470
 3.5110	 5.6320
 3.5130	 5.6980
 3.5160	 5.7900
 3.5180	 5.7990
 3.5200	 5.8050
 3.5230	 5.8810
 3.5250	 5.9530
 3.5270	 5.9490
 3.5300	 5.9400
 3.5320	 6.0400
 3.5350	 6.1150
 3.5370	 6.0220
 3.5400	 5.9450
 3.5420	 5.9970
 3.5440	 6.0200
 3.5470	 5.9710
 3.5490	 6.0140
 3.5520	 6.0910
 3.5540	 6.1010
 3.5570	 6.0280
 3.5590	 6.0200
 3.5610	 6.0850
 3.5640	 6.1870
 3.5660	 6.1770
 3.5690	 6.1420
 3.5710	 6.1440
 3.5740	 6.1660
 3.5760	 6.2000
 3.5790	 6.2230
 3.5810	 6.2250
 3.5840	 6.1990
 3.5860	 6.1350
 3.5890	 6.1110
 3.5910	 6.1010
 3.5930	 6.1140
 3.5960	 6.1520
 3.5980	 6.2070
 3.6010	 6.2530
 3.6030	 6.2330
 3.6060	 6.1970
 3.6080	 6.1690
 3.6110	 6.1860
 3.6140	 6.2520
 3.6160	 6.2200
 3.6190	 6.1860
 3.6210	 6.2900
 3.6240	 6.3320
 3.6260	 6.3300
 3.6290	 6.3800
 3.6310	 6.4020
 3.6340	 6.3460
 3.6360	 6.2740
 3.6390	 6.2580
 3.6410	 6.2480
 3.6440	 6.2280
 3.6470	 6.2670
 3.6490	 6.3450
 3.6520	 6.3190
 3.6540	 6.2250
 3.6570	 6.2340
 3.6590	 6.2690
 3.6620	 6.2870
 3.6650	 6.2500
 3.6670	 6.2680
 3.6700	 6.3040
 3.6720	 6.3550
 3.6750	 6.3890
 3.6780	 6.3820
 3.6800	 6.3420
 3.6830	 6.3470
 3.6850	 6.3690
 3.6880	 6.3970
 3.6910	 6.3960
 3.6930	 6.3480
 3.6960	 6.3360
 3.6990	 6.3040
 3.7010	 6.3220
 3.7040	 6.3710
 3.7060	 6.4170
 3.7090	 6.4310
 3.7120	 6.4150
 3.7140	 6.4200
 3.7170	 6.4180
 3.7200	 6.3450
 3.7220	 6.3650
 3.7250	 6.4150
 3.7280	 6.3850
 3.7300	 6.3970
 3.7330	 6.4220
 3.7360	 6.4040
 3.7390	 6.4090
 3.7410	 6.5310
 3.7440	 6.6160
 3.7470	 6.5380
 3.7490	 6.4850
 3.7520	 6.4670
 3.7550	 6.4790
 3.7580	 6.5510
 3.7600	 6.7100
 3.7630	 6.6930
 3.7660	 6.6220
 3.7680	 6.5500
 3.7710	 6.5270
 3.7740	 6.5960
 3.7770	 6.6490
 3.7790	 6.6160
 3.7820	 6.6000
 3.7850	 6.6360
 3.7880	 6.6010
 3.7900	 6.5750
 3.7930	 6.6310
 3.7960	 6.6590
 3.7990	 6.6730
 3.8020	 6.6300
 3.8040	 6.5850
 3.8070	 6.5960
 3.8100	 6.5510
 3.8130	 6.5650
 3.8160	 6.6150
 3.8180	 6.6370
 3.8210	 6.6640
 3.8240	 6.6710
 3.8270	 6.6470
 3.8300	 6.6840
 3.8330	 6.6870
 3.8350	 6.6770
 3.8380	 6.6270
 3.8410	 6.6220
 3.8440	 6.6550
 3.8470	 6.6700
 3.8500	 6.7040
 3.8520	 6.7240
 3.8550	 6.7220
 3.8580	 6.7220
 3.8610	 6.7510
 3.8640	 6.7670
 3.8670	 6.7280
 3.8700	 6.7220
 3.8730	 6.7110
 3.8750	 6.7110
 3.8780	 6.6920
 3.8810	 6.7200
 3.8840	 6.7810
 3.8870	 6.7730
 3.8900	 6.7420
 3.8930	 6.7640
 3.8960	 6.8070
 3.8990	 6.7790
 3.9020	 6.7970
 3.9050	 6.8200
 3.9080	 6.8000
 3.9110	 6.7920
 3.9140	 6.8020
 3.9160	 6.8070
 3.9190	 6.8000
 3.9220	 6.8040
 3.9250	 6.7920
 3.9280	 6.8390
 3.9310	 6.8440
 3.9340	 6.8270
 3.9370	 6.8210
 3.9400	 6.8250
 3.9430	 6.7810
 3.9460	 6.7720
 3.9490	 6.8180
 3.9520	 6.8730
 3.9550	 6.8570
 3.9580	 6.8160
 3.9610	 6.8050
 3.9640	 6.8230
 3.9670	 6.8800
 3.9700	 6.8950
 3.9730	 6.8380
 3.9770	 6.8210
 3.9800	 6.8690
 3.9830	 6.8570
 3.9860	 6.8330
 3.9890	 6.8610
 3.9920	 6.8270
 3.9950	 6.8240
 3.9980	 6.7960
 4.0010	 6.8090
 4.0040	 6.8370
 4.0070	 6.8810
 4.0100	 6.9130
 4.0130	 6.8570
 4.0170	 6.8180
 4.0200	 6.8590
 4.0230	 6.8760
 4.0260	 6.9090
 4.0290	 6.9830
 4.0320	 6.9550
 4.0350	 6.8870
 4.0380	 6.8790
 4.0420	 6.8740
 4.0450	 6.9350
 4.0480	 6.9450
 4.0510	 6.9330
 4.0540	 6.9630
 4.0570	 6.9970
 4.0610	 6.9540
 4.0640	 6.8710
 4.0670	 6.8820
 4.0700	 6.9020
 4.0730	 6.8860
 4.0770	 6.9370
 4.0800	 6.9590
 4.0830	 6.9780
 4.0860	 6.9560
 4.0890	 6.9420
 4.0930	 6.9160
 4.0960	 6.8970
 4.0990	 6.9240
 4.1020	 6.9430
 4.1060	 6.9920
 4.1090	 6.9990
 4.1120	 6.9240
 4.1150	 6.9210
 4.1190	 6.9540
 4.1220	 7.0100
 4.1250	 7.0090
 4.1280	 6.9900
 4.1320	 6.9790
 4.1350	 6.9490
 4.1380	 6.8970
 4.1420	 6.9130
 4.1450	 6.9830
 4.1480	 7.0360
 4.1520	 6.9960
 4.1550	 6.9200
 4.1580	 6.8950
 4.1620	 6.9310
 4.1650	 6.9710
 4.1680	 7.0110
 4.1720	 6.9820
 4.1750	 6.9650
 4.1780	 6.9770
 4.1820	 6.9690
 4.1850	 6.9630
 4.1890	 7.0190
 4.1920	 6.9870
 4.1950	 6.9500
 4.1990	 6.9010
 4.2020	 6.8420
 4.2060	 6.7930
 4.2090	 6.8290
 4.2120	 6.8380
 4.2160	 6.8410
 4.2190	 6.7020
 4.2230	 6.5560
 4.2260	 6.6830
 4.2300	 6.7370
 4.2330	 6.6340
 4.2360	 6.5700
 4.2400	 6.5330
 4.2430	 6.5370
 4.2470	 6.4580
 4.2500	 6.6080
 4.2540	 6.6710
 4.2570	 6.6940
 4.2610	 6.6350
 4.2640	 6.5720
 4.2680	 6.6440
 4.2710	 6.7820
 4.2750	 6.7370
 4.2780	 6.6770
 4.2820	 6.6080
 4.2850	 6.6000
 4.2890	 6.6330
 4.2930	 6.6490
 4.2960	 6.5810
 4.3000	 6.6060
 4.3030	 6.5930
 4.3070	 6.6360
 4.3100	 6.6410
 4.3140	 6.7070
 4.3180	 6.7650
 4.3210	 6.8160
 4.3250	 6.8150
 4.3280	 6.7820
 4.3320	 6.7630
 4.3360	 6.7900
 4.3390	 6.7850
 4.3430	 6.7750
 4.3470	 6.7620
 4.3500	 6.7720
 4.3540	 6.7930
 4.3570	 6.8280
 4.3610	 6.7720
 4.3650	 6.7930
 4.3680	 6.8440
 4.3720	 6.8630
 4.3760	 6.8250
 4.3800	 6.8270
 4.3830	 6.7970
 4.3870	 6.8160
 4.3910	 6.8530
 4.3940	 6.8860
 4.3980	 6.8840
 4.4020	 6.8330
 4.4060	 6.7600
 4.4090	 6.7430
 4.4130	 6.7270
 4.4170	 6.7270
 4.4210	 6.7550
 4.4240	 6.7710
 4.4280	 6.7370
 4.4320	 6.7480
 4.4360	 6.7560
 4.4400	 6.7740
 4.4430	 6.7170
 4.4470	 6.7240
 4.4510	 6.7140
 4.4550	 6.7310
 4.4590	 6.7500
 4.4620	 6.7730
 4.4660	 6.6860
 4.4700	 6.6170
 4.4740	 6.6420
 4.4780	 6.6650
 4.4820	 6.6320
 4.4860	 6.6940
 4.4900	 6.7230
 4.4930	 6.7270
 4.4970	 6.7120
 4.5010	 6.6700
 4.5050	 6.5810
 4.5090	 6.5830
 4.5130	 6.6140
 4.5170	 6.6240
 4.5210	 6.6290
 4.5250	 6.6840
 4.5290	 6.6460
 4.5330	 6.6170
 4.5370	 6.5870
 4.5410	 6.5980
 4.5450	 6.6250
 4.5490	 6.6330
 4.5530	 6.6160
 4.5570	 6.6070
 4.5610	 6.5830
 4.5650	 6.6250
 4.5690	 6.5880
 4.5730	 6.5790
 4.5770	 6.5810
 4.5810	 6.5550
 4.5850	 6.5190
 4.5890	 6.5270
 4.5930	 6.5260
 4.5970	 6.5460
 4.6010	 6.5300
 4.6050	 6.5150
 4.6090	 6.4590
 4.6130	 6.4230
 4.6170	 6.4530
 4.6220	 6.5230
 4.6260	 6.4580
 4.6300	 6.3970
 4.6340	 6.3670
 4.6380	 6.3560
 4.6420	 6.3940
 4.6460	 6.4330
 4.6510	 6.3740
 4.6550	 6.3950
 4.6590	 6.4100
 4.6630	 6.4060
 4.6670	 6.3800
 4.6720	 6.4560
 4.6760	 6.4550
 4.6800	 6.3940
 4.6840	 6.4290
 4.6880	 6.4860
 4.6930	 6.3810
 4.6970	 6.4010
 4.7010	 6.3930
 4.7050	 6.3860
 4.7100	 6.3840
 4.7140	 6.4460
 4.7180	 6.4100
 4.7230	 6.4000
 4.7270	 6.4180
 4.7310	 6.4350
 4.7360	 6.4040
 4.7400	 6.4510
 4.7440	 6.4440
 4.7490	 6.4050
 4.7530	 6.3510
 4.7570	 6.3710
 4.7620	 6.3710
 4.7660	 6.3950
 4.7700	 6.4270
 4.7750	 6.4570
 4.7790	 6.4160
 4.7840	 6.4630
 4.7880	 6.5100
 4.7920	 6.5250
 4.7970	 6.4680
 4.8010	 6.4450
 4.8060	 6.4000
 4.8100	 6.4460
 4.8150	 6.4200
 4.8190	 6.4590
 4.8240	 6.4350
 4.8280	 6.3640
 4.8330	 6.3590
 4.8370	 6.3760
 4.8420	 6.3820
 4.8460	 6.3890
 4.8510	 6.4040
 4.8550	 6.4500
 4.8600	 6.4370
 4.8640	 6.4540
 4.8690	 6.4220
 4.8730	 6.4270
 4.8780	 6.4220
 4.8830	 6.4450
 4.8870	 6.4520
 4.8920	 6.4450
 4.8960	 6.4230
 4.9010	 6.4850
 4.9060	 6.4010
 4.9100	 6.4130
 4.9150	 6.5180
 4.9200	 6.5560
 4.9240	 6.4860
 4.9290	 6.4740
 4.9340	 6.4640
 4.9380	 6.4630
 4.9430	 6.4030
 4.9480	 6.4240
 4.9530	 6.4600
 4.9570	 6.4830
 4.9620	 6.4690
 4.9670	 6.4780
 4.9720	 6.4620
 4.9760	 6.5060
 4.9810	 6.5020
 4.9860	 6.4890
 4.9910	 6.4950
 4.9960	 6.5720
 5.0000	 6.5320
 5.0050	 6.5000
 5.0100	 6.4800
 5.0150	 6.5320
 5.0200	 6.5330
 5.0250	 6.5110
 5.0290	 6.4650
 5.0340	 6.5230
 5.0390	 6.4980
 5.0440	 6.4790
 5.0490	 6.4690
 5.0540	 6.4820
 5.0590	 6.4820
 5.0640	 6.4740
 5.0690	 6.4470
 5.0740	 6.5430
 5.0790	 6.5250
 5.0840	 6.5370
 5.0890	 6.5600
 5.0940	 6.5580
 5.0990	 6.4600
 5.1040	 6.4790
 5.1090	 6.4890
 5.1140	 6.5010
 5.1190	 6.5000
 5.1240	 6.5610
 5.1290	 6.5400
 5.1340	 6.5440
 5.1390	 6.5080
 5.1440	 6.5060
 5.1490	 6.4380
 5.1540	 6.4200
 5.1600	 6.4090
 5.1650	 6.4630
 5.1700	 6.4740
 5.1750	 6.4490
 5.1800	 6.4300
 5.1850	 6.4770
 5.1910	 6.4850
 5.1960	 6.5410
 5.2010	 6.4830
 5.2060	 6.4580
 5.2110	 6.4280
 5.2170	 6.4370
 5.2220	 6.4340
 5.2270	 6.4510
 5.2320	 6.3960
 5.2380	 6.3880
 5.2430	 6.3680
 5.2480	 6.4160
 5.2540	 6.4430
 5.2590	 6.4660
 5.2640	 6.4630
 5.2700	 6.4890
 5.2750	 6.4150
 5.2800	 6.4120
 5.2860	 6.3740
 5.2910	 6.3300
 5.2970	 6.2950
 5.3020	 6.3550
 5.3070	 6.3350
 5.3130	 6.3920
 5.3180	 6.3960
 5.3240	 6.3860
 5.3290	 6.3530
 5.3350	 6.3680
 5.3400	 6.3330
 5.3460	 6.3600
 5.3510	 6.2920
 5.3570	 6.3250
 5.3620	 6.2990
 5.3680	 6.2810
 5.3730	 6.2610
 5.3790	 6.2260
 5.3850	 6.1720
 5.3900	 6.2280
 5.3960	 6.2100
 5.4010	 6.1720
 5.4070	 6.1200
 5.4130	 6.1180
 5.4180	 6.0880
 5.4240	 6.1130
 5.4300	 6.0990
 5.4350	 6.1170
 5.4410	 6.1030
 5.4470	 6.1180
 5.4530	 6.0680
 5.4580	 6.0790
 5.4640	 6.0290
 5.4700	 6.0000
 5.4760	 5.9970
 5.4810	 6.0230
 5.4870	 5.9360
 5.4930	 5.9200
 5.4990	 5.9170
 5.5050	 5.9680
 5.5110	 5.8810
 5.5160	 5.8200
 5.5220	 5.7370
 5.5280	 5.7440
 5.5340	 5.7480
 5.5400	 5.7430
 5.5460	 5.7030
 5.5520	 5.7160
 5.5580	 5.6340
 5.5640	 5.6290
 5.5700	 5.5790
 5.5760	 5.5340
 5.5820	 5.4520
 5.5880	 5.4810
 5.5940	 5.4400
 5.6000	 5.4150
 5.6060	 5.3280
 5.6120	 5.2960
 5.6180	 5.2260
 5.6240	 5.1890
 5.6300	 5.0640
 5.6360	 5.0050
 5.6420	 4.9600
 5.6490	 4.8960
 5.6550	 4.7230
 5.6610	 4.6200
 5.6670	 4.4690
 5.6730	 4.4260
 5.6800	 4.2820
 5.6860	 4.1320
 5.6920	 3.9820
 5.6980	 3.9270
 5.7040	 3.7890
 5.7110	 3.6630
 5.7170	 3.4800
 5.7230	 3.3900
 5.7300	 3.1900
 5.7360	 3.0250
 5.7420	 2.9260
 5.7490	 2.9780
 5.7550	 2.9350
 5.7620	 3.0090
 5.7680	 3.0980
 5.7740	 3.2490
 5.7810	 3.3610
 5.7870	 3.5990
 5.7940	 3.7170
 5.8000	 3.8370
 5.8070	 3.8970
 5.8130	 4.0340
 5.8200	 4.1000
 5.8260	 4.1320
 5.8330	 4.1500
 5.8390	 4.3010
 5.8460	 4.3440
 5.8530	 4.4500
 5.8590	 4.5200
 5.8660	 4.5660
 5.8720	 4.5440
 5.8790	 4.6490
 5.8860	 4.6860
 5.8920	 4.6620
 5.8990	 4.5600
 5.9060	 4.5910
 5.9130	 4.5910
 5.9190	 4.6270
 5.9260	 4.5890
 5.9330	 4.6230
 5.9400	 4.5020
 5.9470	 4.5140
 5.9530	 4.4110
 5.9600	 4.4170
 5.9670	 4.3420
 5.9740	 4.2570
 5.9810	 4.2270
 5.9880	 4.2390
 5.9950	 4.0760
 6.0020	 4.0280
 6.0090	 3.9710
 6.0160	 3.9860
 6.0230	 3.8860
 6.0300	 3.8590
 6.0370	 3.8850
 6.0440	 3.9880
 6.0510	 3.9530
 6.0580	 4.0040
 6.0650	 3.9850
 6.0720	 4.0590
 6.0790	 4.0620
 6.0860	 4.1320
 6.0930	 4.0360
 6.1000	 4.1210
 6.1080	 4.0950
 6.1150	 4.1770
 6.1220	 4.2000
 6.1290	 4.2410
 6.1370	 4.2130
 6.1440	 4.2670
 6.1510	 4.2530
 6.1580	 4.2920
 6.1660	 4.2140
 6.1730	 4.1260
 6.1800	 4.0140
 6.1880	 3.9870
 6.1950	 3.9450
 6.2030	 3.9720
 6.2100	 3.9310
 6.2170	 3.9920
 6.2250	 3.9220
 6.2320	 4.0080
 6.2400	 4.0980
 6.2470	 4.1810
 6.2550	 4.1840
 6.2630	 4.3280
 6.2700	 4.3600
 6.2780	 4.3930
 6.2850	 4.3030
 6.2930	 4.3720
 6.3010	 4.3520
 6.3080	 4.4590
 6.3160	 4.5150
 6.3240	 4.5390
 6.3310	 4.5240
 6.3390	 4.6360
 6.3470	 4.5890
 6.3550	 4.7160
 6.3620	 4.7510
 6.3700	 4.7900
 6.3780	 4.7430
 6.3860	 4.7870
 6.3940	 4.7190
 6.4020	 4.8090
 6.4100	 4.8380
 6.4180	 4.8880
 6.4260	 4.8480
 6.4330	 4.9130
 6.4410	 4.9160
 6.4490	 5.0180
 6.4580	 4.9510
 6.4660	 4.9500
 6.4740	 4.9660
 6.4820	 5.0760
 6.4900	 5.0530
 6.4980	 5.0220
 6.5060	 4.9290
 6.5140	 4.9510
 6.5230	 4.8150
 6.5310	 4.7890
 6.5390	 4.6460
 6.5470	 4.5980
 6.5550	 4.4710
 6.5640	 4.3540
 6.5720	 4.1630
 6.5800	 4.1030
 6.5890	 3.9620
 6.5970	 3.9960
 6.6060	 4.0830
 6.6140	 4.2350
 6.6220	 4.2100
 6.6310	 4.2980
 6.6390	 4.2860
 6.6480	 4.3250
 6.6560	 4.2820
 6.6650	 4.3250
 6.6740	 4.3170
 6.6820	 4.4810
 6.6910	 4.5300
 6.6990	 4.6440
 6.7080	 4.6100
 6.7170	 4.6140
 6.7260	 4.4750
 6.7340	 4.4580
 6.7430	 4.4490
 6.7520	 4.5050
 6.7610	 4.4270
 6.7690	 4.3360
 6.7780	 4.1790
 6.7870	 4.1990
 6.7960	 4.0150
 6.8050	 3.8750
 6.8140	 3.8220
 6.8230	 3.9660
 6.8320	 3.9670
 6.8410	 4.0320
 6.8500	 3.9630
 6.8590	 4.0020
 6.8680	 4.0190
 6.8770	 4.1210
 6.8860	 4.1120
 6.8950	 4.2270
 6.9050	 4.1790
 6.9140	 4.2080
 6.9230	 4.1750
 6.9320	 4.2360
 6.9420	 4.1490
 6.9510	 4.2080
 6.9600	 4.2290
 6.9700	 4.2180
 6.9790	 4.1190
 6.9880	 4.1750
 6.9980	 4.1240
 7.0070	 4.1990
 7.0170	 4.1610
 7.0260	 4.2400
 7.0360	 4.2200
 7.0450	 4.2900
 7.0550	 4.3170
 7.0650	 4.3800
 7.0740	 4.2580
 7.0840	 4.3810
 7.0940	 4.3720
 7.1030	 4.4060
 7.1130	 4.3720
 7.1230	 4.4040
 7.1330	 4.3040
 7.1420	 4.3500
 7.1520	 4.1930
 7.1620	 4.1410
 7.1720	 3.9790
 7.1820	 4.0030
 7.1920	 3.9520
 7.2020	 4.0470
 7.2120	 3.9430
 7.2220	 3.8250
 7.2320	 3.6690
 7.2420	 3.7430
 7.2520	 3.7010
 7.2620	 3.7630
 7.2730	 3.6970
 7.2830	 3.6640
 7.2930	 3.5520
 7.3030	 3.5560
 7.3140	 3.5780
 7.3240	 3.7500
 7.3340	 3.7460
 7.3450	 3.8640
 7.3550	 3.8840
 7.3660	 4.0610
 7.3760	 4.0060
 7.3870	 4.0150
 7.3970	 4.0750
 7.4080	 4.1780
 7.4180	 4.0940
 7.4290	 4.1590
 7.4400	 4.0920
 7.4500	 4.1400
 7.4610	 4.0560
 7.4720	 4.0890
 7.4830	 4.0640
 7.4930	 4.1230
 7.5040	 3.9920
 7.5150	 4.0070
 7.5260	 3.9270
 7.5370	 3.9720
 7.5480	 3.8890
 7.5590	 3.9200
 7.5700	 3.8210
 7.5810	 3.8500
 7.5920	 3.7650
 7.6030	 3.8390
 7.6140	 3.7370
 7.6260	 3.7780
 7.6370	 3.8180
 7.6480	 3.9190
 7.6590	 3.8780
 7.6710	 3.9520
 7.6820	 3.8630
 7.6930	 3.9070
 7.7050	 3.8210
 7.7160	 3.8270
 7.7280	 3.7430
 7.7390	 3.8020
 7.7510	 3.6950
 7.7630	 3.7350
 7.7740	 3.6500
 7.7860	 3.6530
 7.7980	 3.5790
 7.8090	 3.6270
 7.8210	 3.5210
 7.8330	 3.6240
 7.8450	 3.6390
 7.8570	 3.6880
 7.8690	 3.5600
 7.8810	 3.6050
 7.8930	 3.5830
 7.9050	 3.6920
 7.9170	 3.6130
 7.9290	 3.6490
 7.9410	 3.5740
 7.9530	 3.5820
 7.9650	 3.5010
 7.9780	 3.6450
 7.9900	 3.5640
 8.0020	 3.6540
 8.0150	 3.5970
 8.0270	 3.6590
 8.0390	 3.6360
 8.0520	 3.6670
 8.0640	 3.6320
 8.0770	 3.8600
 8.0900	 3.8920
 8.1020	 3.9760
 8.1150	 3.8340
 8.1280	 3.9730
 8.1400	 4.0020
 8.1530	 4.1260
 8.1660	 3.9440
 8.1790	 3.9840
 8.1920	 4.0050
 8.2050	 4.1510
 8.2180	 4.1020
 8.2310	 4.2440
 8.2440	 4.1350
 8.2570	 4.2830
 8.2700	 4.2080
 8.2830	 4.3520
 8.2970	 4.2860
 8.3100	 4.3430
 8.3230	 4.2440
 8.3370	 4.4740
 8.3500	 4.4600
 8.3640	 4.4760
 8.3770	 4.3590
 8.3910	 4.4110
 8.4040	 4.2050
 8.4180	 4.3380
 8.4320	 4.3070
 8.4450	 4.3790
 8.4590	 4.2700
 8.4730	 4.4090
 8.4870	 4.3470
 8.5010	 4.5630
 8.5150	 4.4200
 8.5290	 4.5160
 8.5430	 4.5500
 8.5570	 4.7280
 8.5710	 4.7030
 8.5850	 4.7400
 8.5990	 4.5910
 8.6140	 4.7160
 8.6280	 4.6710
 8.6420	 4.7140
 8.6570	 4.6170
 8.6710	 4.7220
 8.6860	 4.7280
 8.7000	 4.9500
 8.7150	 4.8920
 8.7300	 4.9610
 8.7440	 4.8720
 8.7590	 5.0340
 8.7740	 4.9450
 8.7890	 4.9180
 8.8040	 4.7450
 8.8190	 4.8240
 8.8340	 4.5910
 8.8490	 4.6390
 8.8640	 4.5790
 8.8790	 4.7210
 8.8940	 4.4370
 8.9100	 4.4110
 8.9250	 4.2550
 8.9400	 4.3930
 8.9560	 4.2390
 8.9710	 4.3350
 8.9870	 4.1640
 9.0020	 4.2640
 9.0180	 4.3210
 9.0340	 4.5710
 9.0500	 4.4660
 9.0650	 4.5690
 9.0810	 4.3050
 9.0970	 4.4080
 9.1130	 4.3500
 9.1290	 4.4710
 9.1450	 4.3270
 9.1610	 4.4180
 9.1780	 4.3190
 9.1940	 4.3360
 9.2100	 4.1580
 9.2270	 4.2520
 9.2430	 4.2100
 9.2600	 4.2490
 9.2760	 4.0010
 9.2930	 4.1380
 9.3090	 4.1570
 9.3260	 4.2660
 9.3430	 3.9900
 9.3600	 4.0600
 9.3770	 3.9360
 9.3940	 3.9370
 9.4110	 3.8080
 9.4280	 3.8690
 9.4450	 3.7440
 9.4620	 3.9900
 9.4800	 3.9170
 9.4970	 4.0130
 9.5140	 3.9420
 9.5320	 4.0650
 9.5500	 3.9030
 9.5670	 4.0510
 9.5850	 3.9360
 9.6030	 3.9040
 9.6200	 3.7510
 9.6380	 4.0420
 9.6560	 3.9720
 9.6740	 4.1730
 9.6920	 4.2570
 9.7100	 4.5190
 9.7290	 4.4680
 9.7470	 4.4810
 9.7650	 4.2320
 9.7840	 4.3530
 9.8020	 4.4180
 9.8210	 4.6920
 9.8390	 4.5940
 9.8580	 4.6460
 9.8770	 4.4840
 9.8960	 4.6950
 9.9150	 4.6710
 9.9340	 4.7610
 9.9530	 4.6480
 9.9720	 4.7790
 9.9910	 4.6610
10.0100	 4.8340
10.0300	 4.7450
10.0490	 4.8250
10.0690	 4.7960
10.0880	 4.9790
10.1080	 4.9490
10.1280	 5.1610
10.1480	 5.1530
10.1670	 5.4580
10.1870	 5.4600
10.2070	 5.7610
10.2280	 5.7540
10.2480	 5.9370
10.2680	 5.8900
10.2890	 5.9370
10.3090	 5.7820
10.3300	 5.9600
10.3500	 5.8910
10.3710	 6.1350
10.3920	 6.2150
10.4120	 6.3600
10.4330	 6.2500
10.4540	 6.5970
10.4760	 6.6520
10.4970	 6.7400
10.5180	 6.6750
10.5390	 6.8360
10.5610	 6.6230
10.5820	 6.6880
10.6040	 6.6530
10.6260	 6.8390
10.6480	 6.6400
10.6700	 6.7100
10.6920	 6.6300
10.7140	 6.8000
10.7360	 6.7140
10.7580	 6.8050
10.7800	 6.6660
10.8030	 6.7990
10.8250	 6.6010
10.8480	 6.6910
10.8710	 6.6310
10.8940	 6.8110
10.9170	 6.5570
10.9400	 6.6120
10.9630	 6.4400
10.9860	 6.6320
11.0090	 6.4960
11.0330	 6.5390
11.0560	 6.3300
11.0800	 6.3300
11.1040	 6.4550
11.1270	 6.7040
11.1510	 6.3550
11.1750	 6.4970
11.2000	 6.2630
11.2240	 6.3540
11.2480	 6.2640
11.2730	 6.4660
11.2970	 6.4360
11.3220	 6.6860
11.3470	 6.5550
11.3720	 6.7030
11.3970	 6.4360
11.4220	 6.5410
11.4470	 6.4330
11.4720	 6.6440
11.4980	 6.3800
11.5230	 6.3410
11.5490	 6.2300
11.5750	 6.4530
11.6000	 6.1740
11.6260	 6.2970
11.6530	 6.0910
11.6790	 6.1610
11.7050	 5.9600
11.7320	 6.1180
11.7580	 5.9120
11.7850	 6.0600
11.8120	 5.8120
11.8390	 5.8430
11.8660	 5.5850
11.8930	 5.8960
11.9200	 5.8460
11.9480	 6.0740
11.9760	 5.9480
12.0030	 6.1570
12.0310	 6.0230
12.0590	 6.1620
12.0870	 5.9690
12.1150	 6.0440
12.1440	 5.7500
12.1720	 6.0090
12.2010	 5.9500
12.2300	 6.1200
12.2590	 5.9130
12.2880	 6.2510
12.3170	 6.0640
12.3460	 6.1070
12.3760	 5.9390
12.4050	 6.0480
12.4350	 5.7850
12.4650	 6.1380
12.4950	 5.9060
12.5250	 6.0590
12.5550	 5.9050
12.5860	 6.0680
12.6170	 5.8130
12.6470	 5.9130
12.6780	 5.7040
12.7090	 5.7760
12.7410	 5.4700
12.7720	 5.4640
12.8030	 5.3400
12.8350	 5.7240
12.8670	 5.3840
12.8990	 5.5710
12.9310	 5.3920
12.9640	 5.5030
12.9960	 5.2130
13.0290	 5.3990
13.0610	 5.1220
13.0940	 5.3360
13.1280	 5.2060
13.1610	 5.4780
13.1940	 5.1300
13.2280	 5.2240
13.2620	 4.9630
13.2960	 5.1750
13.3300	 4.7900
13.3640	 4.9440
13.3990	 4.7240
13.4340	 4.7360
13.4690	 4.3770
13.5040	 4.7140
13.5390	 4.6070
13.5740	 4.9310
13.6100	 4.6390
13.6460	 4.7680
13.6820	 4.4440
13.7180	 4.6630
13.7540	 4.3640
13.7910	 4.7030
13.8280	 4.2820
13.8650	 4.5080
13.9020	 4.3470
13.9390	 4.6900
13.9770	 4.5290
14.0150	 4.8350
14.0530	 4.4900
14.0910	 4.7260
14.1290	 4.4010
14.1680	 4.7930
14.2070	 4.3250
14.2460	 4.4460
14.2850	 4.2080
14.3240	 4.5060
14.3640	 4.0290
14.4040	 4.3550
14.4440	 4.0800
14.4840	 4.4340
14.5250	 3.8880
14.5660	 4.2080
14.6070	 3.6050
14.6480	 4.2110
14.6900	 3.9030
14.7310	 4.1950
14.7730	 3.9030
14.8150	 4.3570
14.8580	 3.5340
14.9010	 4.1130
14.9440	 5.8810
14.9870	 6.3580
15.0300	 3.3540
15.0740	 3.6240
15.1180	 3.3610
15.1620	 3.7460
15.2060	 3.2310
15.2510	 4.1350
15.2960	 3.3070
15.3410	 3.8160
15.3870	 3.3510
