Name: Arctostaphylos glandulosa 2
Type: vegetation
Class: Shrub
Genus: Arctostaphylos
Species: glandulosa
Sample No.: VH120
Owner: UCSB
Wavelength Range: TIR
Origin: 34.5084; -119.7682; WGS84
Collection Date: 6/3/2013
Description: Samples were collected as part of the HyspIRI Airborne Campaign. 48 individual plants were sampled in three times in 2013 - spring  summer  and fall. The name of the sample includes a 1  2  or 3 which references a different individual of the species. Samples were taken to JPL and processed within 48 hours of collection. The same leaves were processed in the Nicolet and then measured using the ASD.
Measurement: Hemispherical reflectance
First Column: X
Second Column: Y
X Units: Wavelength (micrometers)
Y Units: Reflectance (percentage)
First X Value: 2.501
Last X Value: 15.387
Number of X Values: 1737
Additional Information: vegetation.shrub.arctostaphylos.glandulosa.tir.vh120.ucsb.nicolet.ancillary.txt

 2.5010	 8.1130
 2.5030	 8.0900
 2.5040	 8.1200
 2.5050	 8.1800
 2.5060	 8.2450
 2.5070	 8.1200
 2.5090	 8.0740
 2.5100	 8.0760
 2.5110	 8.1460
 2.5120	 8.1290
 2.5140	 8.0520
 2.5150	 7.9970
 2.5160	 8.0770
 2.5170	 7.9790
 2.5180	 7.9200
 2.5200	 7.9410
 2.5210	 8.1330
 2.5220	 8.1100
 2.5230	 8.0660
 2.5250	 7.9990
 2.5260	 7.9950
 2.5270	 8.0150
 2.5280	 8.0440
 2.5290	 7.9950
 2.5310	 8.0020
 2.5320	 8.0130
 2.5330	 8.0150
 2.5340	 7.9010
 2.5360	 7.9180
 2.5370	 7.9290
 2.5380	 7.9700
 2.5390	 7.9560
 2.5410	 8.0280
 2.5420	 7.9650
 2.5430	 7.9680
 2.5440	 7.9900
 2.5460	 8.1260
 2.5470	 8.1210
 2.5480	 8.1090
 2.5490	 8.1260
 2.5510	 8.0840
 2.5520	 8.0410
 2.5530	 8.0910
 2.5540	 8.0450
 2.5560	 8.0540
 2.5570	 8.1340
 2.5580	 8.2130
 2.5590	 8.1740
 2.5610	 8.1390
 2.5620	 8.0310
 2.5630	 8.0320
 2.5640	 8.0290
 2.5660	 8.0280
 2.5670	 8.0120
 2.5680	 8.0690
 2.5700	 8.0800
 2.5710	 8.1420
 2.5720	 8.1690
 2.5730	 8.2320
 2.5750	 8.1590
 2.5760	 8.0740
 2.5770	 8.0520
 2.5790	 8.0370
 2.5800	 7.9990
 2.5810	 8.0670
 2.5820	 8.0340
 2.5840	 8.0600
 2.5850	 8.0190
 2.5860	 8.0090
 2.5880	 7.9980
 2.5890	 8.1070
 2.5900	 8.0760
 2.5910	 8.1000
 2.5930	 8.0780
 2.5940	 8.0570
 2.5950	 7.9610
 2.5970	 8.0310
 2.5980	 8.0880
 2.5990	 8.1180
 2.6000	 8.0810
 2.6020	 8.0950
 2.6030	 7.9990
 2.6040	 8.0040
 2.6060	 8.0380
 2.6070	 8.0370
 2.6080	 7.8840
 2.6100	 7.9110
 2.6110	 7.9760
 2.6120	 8.0670
 2.6140	 8.0240
 2.6150	 8.0250
 2.6160	 7.9820
 2.6180	 8.0160
 2.6190	 7.9860
 2.6200	 7.9240
 2.6220	 7.9050
 2.6230	 7.9130
 2.6240	 7.8200
 2.6260	 7.8480
 2.6270	 7.7330
 2.6280	 7.7480
 2.6300	 7.7770
 2.6310	 7.7970
 2.6320	 7.8160
 2.6340	 7.9320
 2.6350	 7.7980
 2.6360	 7.7420
 2.6380	 7.7080
 2.6390	 7.7370
 2.6400	 7.7790
 2.6420	 7.8320
 2.6430	 7.7430
 2.6440	 7.7100
 2.6460	 7.6840
 2.6470	 7.7590
 2.6480	 7.7330
 2.6500	 7.6990
 2.6510	 7.5910
 2.6520	 7.6500
 2.6540	 7.6210
 2.6550	 7.6460
 2.6560	 7.6790
 2.6580	 7.7460
 2.6590	 7.6310
 2.6610	 7.5850
 2.6620	 7.5250
 2.6630	 7.5080
 2.6650	 7.4250
 2.6660	 7.4940
 2.6670	 7.5440
 2.6690	 7.5630
 2.6700	 7.5570
 2.6720	 7.6250
 2.6730	 7.5880
 2.6740	 7.5670
 2.6760	 7.4530
 2.6770	 7.4830
 2.6780	 7.5090
 2.6800	 7.5000
 2.6810	 7.4010
 2.6830	 7.3540
 2.6840	 7.3180
 2.6850	 7.3770
 2.6870	 7.3050
 2.6880	 7.2640
 2.6900	 7.2420
 2.6910	 7.2490
 2.6920	 7.1710
 2.6940	 7.2260
 2.6950	 7.1410
 2.6970	 7.0720
 2.6980	 7.0100
 2.6990	 6.9970
 2.7010	 7.0050
 2.7020	 7.0990
 2.7040	 6.9820
 2.7050	 6.9120
 2.7060	 6.8740
 2.7080	 6.8450
 2.7090	 6.8440
 2.7110	 6.9100
 2.7120	 6.7710
 2.7130	 6.6930
 2.7150	 6.6190
 2.7160	 6.6250
 2.7180	 6.5910
 2.7190	 6.5810
 2.7210	 6.5390
 2.7220	 6.5020
 2.7230	 6.3330
 2.7250	 6.3590
 2.7260	 6.3990
 2.7280	 6.3630
 2.7290	 6.3210
 2.7310	 6.3390
 2.7320	 6.2000
 2.7330	 6.1710
 2.7350	 6.1440
 2.7360	 6.1830
 2.7380	 6.0570
 2.7390	 6.0590
 2.7410	 6.1110
 2.7420	 6.0920
 2.7440	 6.0320
 2.7450	 5.9560
 2.7470	 5.9370
 2.7480	 6.0210
 2.7490	 5.8860
 2.7510	 5.8610
 2.7520	 5.8770
 2.7540	 5.9240
 2.7550	 5.8640
 2.7570	 5.8350
 2.7580	 5.7600
 2.7600	 5.8710
 2.7610	 5.9270
 2.7630	 5.8410
 2.7640	 5.7810
 2.7660	 5.9250
 2.7670	 5.9160
 2.7680	 5.8480
 2.7700	 5.7380
 2.7710	 5.7250
 2.7730	 5.7170
 2.7740	 5.7270
 2.7760	 5.7250
 2.7770	 5.6970
 2.7790	 5.6580
 2.7800	 5.7590
 2.7820	 5.7550
 2.7830	 5.7910
 2.7850	 5.7320
 2.7860	 5.5910
 2.7880	 5.4760
 2.7890	 5.5610
 2.7910	 5.5660
 2.7920	 5.6120
 2.7940	 5.5900
 2.7950	 5.5770
 2.7970	 5.4880
 2.7980	 5.5590
 2.8000	 5.5560
 2.8010	 5.5650
 2.8030	 5.5140
 2.8040	 5.5800
 2.8060	 5.5430
 2.8070	 5.4980
 2.8090	 5.4390
 2.8110	 5.4970
 2.8120	 5.5140
 2.8140	 5.4850
 2.8150	 5.4630
 2.8170	 5.5740
 2.8180	 5.5420
 2.8200	 5.4950
 2.8210	 5.5270
 2.8230	 5.6150
 2.8240	 5.5040
 2.8260	 5.4640
 2.8270	 5.4330
 2.8290	 5.4860
 2.8300	 5.4420
 2.8320	 5.4550
 2.8340	 5.4420
 2.8350	 5.5100
 2.8370	 5.5790
 2.8380	 5.5630
 2.8400	 5.6000
 2.8410	 5.6960
 2.8430	 5.5810
 2.8440	 5.5930
 2.8460	 5.5110
 2.8480	 5.4870
 2.8490	 5.3820
 2.8510	 5.4940
 2.8520	 5.4740
 2.8540	 5.4700
 2.8550	 5.4470
 2.8570	 5.4560
 2.8590	 5.4620
 2.8600	 5.4880
 2.8620	 5.3830
 2.8630	 5.4120
 2.8650	 5.4560
 2.8660	 5.5350
 2.8680	 5.5050
 2.8700	 5.4560
 2.8710	 5.4190
 2.8730	 5.5240
 2.8740	 5.4400
 2.8760	 5.4760
 2.8780	 5.4570
 2.8790	 5.4610
 2.8810	 5.4020
 2.8820	 5.3490
 2.8840	 5.2980
 2.8860	 5.3710
 2.8870	 5.3970
 2.8890	 5.4720
 2.8900	 5.4370
 2.8920	 5.4830
 2.8940	 5.4670
 2.8950	 5.5050
 2.8970	 5.4200
 2.8980	 5.4260
 2.9000	 5.3850
 2.9020	 5.3990
 2.9030	 5.4030
 2.9050	 5.4470
 2.9070	 5.5310
 2.9080	 5.4700
 2.9100	 5.3280
 2.9120	 5.3960
 2.9130	 5.3950
 2.9150	 5.4240
 2.9160	 5.4880
 2.9180	 5.5590
 2.9200	 5.5490
 2.9210	 5.5830
 2.9230	 5.4890
 2.9250	 5.5790
 2.9260	 5.5890
 2.9280	 5.5640
 2.9300	 5.6090
 2.9310	 5.6170
 2.9330	 5.4510
 2.9350	 5.4550
 2.9360	 5.4290
 2.9380	 5.3510
 2.9400	 5.2540
 2.9410	 5.4040
 2.9430	 5.4890
 2.9450	 5.5150
 2.9460	 5.4510
 2.9480	 5.4080
 2.9500	 5.3420
 2.9510	 5.3260
 2.9530	 5.3130
 2.9550	 5.4680
 2.9560	 5.5300
 2.9580	 5.5980
 2.9600	 5.5550
 2.9610	 5.5530
 2.9630	 5.4550
 2.9650	 5.4890
 2.9660	 5.5050
 2.9680	 5.4780
 2.9700	 5.3840
 2.9720	 5.4250
 2.9730	 5.4130
 2.9750	 5.5210
 2.9770	 5.5620
 2.9780	 5.6150
 2.9800	 5.5670
 2.9820	 5.6080
 2.9840	 5.5250
 2.9850	 5.4930
 2.9870	 5.4860
 2.9890	 5.4800
 2.9900	 5.4840
 2.9920	 5.5810
 2.9940	 5.5220
 2.9960	 5.5480
 2.9970	 5.6150
 2.9990	 5.6000
 3.0010	 5.4970
 3.0030	 5.5210
 3.0040	 5.4950
 3.0060	 5.4130
 3.0080	 5.3780
 3.0100	 5.4460
 3.0110	 5.3630
 3.0130	 5.4350
 3.0150	 5.6070
 3.0170	 5.6830
 3.0180	 5.5570
 3.0200	 5.5760
 3.0220	 5.4830
 3.0240	 5.4430
 3.0250	 5.4280
 3.0270	 5.5200
 3.0290	 5.4850
 3.0310	 5.4880
 3.0320	 5.4640
 3.0340	 5.5180
 3.0360	 5.4880
 3.0380	 5.4960
 3.0400	 5.4660
 3.0410	 5.5470
 3.0430	 5.5440
 3.0450	 5.5600
 3.0470	 5.4960
 3.0480	 5.5400
 3.0500	 5.5070
 3.0520	 5.5460
 3.0540	 5.4830
 3.0560	 5.4160
 3.0570	 5.3380
 3.0590	 5.4480
 3.0610	 5.5170
 3.0630	 5.5150
 3.0650	 5.4440
 3.0660	 5.5060
 3.0680	 5.4660
 3.0700	 5.4800
 3.0720	 5.5110
 3.0740	 5.5740
 3.0760	 5.5130
 3.0770	 5.5340
 3.0790	 5.5120
 3.0810	 5.5240
 3.0830	 5.4950
 3.0850	 5.4800
 3.0870	 5.4460
 3.0880	 5.4860
 3.0900	 5.4990
 3.0920	 5.5300
 3.0940	 5.4840
 3.0960	 5.5570
 3.0980	 5.4710
 3.0990	 5.4530
 3.1010	 5.5190
 3.1030	 5.5660
 3.1050	 5.4480
 3.1070	 5.4070
 3.1090	 5.4080
 3.1110	 5.4380
 3.1120	 5.4310
 3.1140	 5.5100
 3.1160	 5.4850
 3.1180	 5.4570
 3.1200	 5.4430
 3.1220	 5.5590
 3.1240	 5.5890
 3.1260	 5.5390
 3.1270	 5.4290
 3.1290	 5.4610
 3.1310	 5.4700
 3.1330	 5.4950
 3.1350	 5.4580
 3.1370	 5.4710
 3.1390	 5.4580
 3.1410	 5.5300
 3.1430	 5.5110
 3.1450	 5.5460
 3.1460	 5.5080
 3.1480	 5.5090
 3.1500	 5.4870
 3.1520	 5.4840
 3.1540	 5.4590
 3.1560	 5.5060
 3.1580	 5.5070
 3.1600	 5.5290
 3.1620	 5.5060
 3.1640	 5.5280
 3.1660	 5.5170
 3.1680	 5.5940
 3.1700	 5.6350
 3.1710	 5.5630
 3.1730	 5.5150
 3.1750	 5.6070
 3.1770	 5.5960
 3.1790	 5.5600
 3.1810	 5.5530
 3.1830	 5.5810
 3.1850	 5.5640
 3.1870	 5.5440
 3.1890	 5.4440
 3.1910	 5.5000
 3.1930	 5.5290
 3.1950	 5.5240
 3.1970	 5.4900
 3.1990	 5.5730
 3.2010	 5.6400
 3.2030	 5.6140
 3.2050	 5.5270
 3.2070	 5.4920
 3.2090	 5.4220
 3.2110	 5.5280
 3.2130	 5.5920
 3.2150	 5.6020
 3.2170	 5.5770
 3.2190	 5.5580
 3.2210	 5.5420
 3.2230	 5.6330
 3.2250	 5.6000
 3.2270	 5.5630
 3.2290	 5.5520
 3.2310	 5.5850
 3.2330	 5.5630
 3.2350	 5.5640
 3.2370	 5.5630
 3.2390	 5.6110
 3.2410	 5.5500
 3.2430	 5.5480
 3.2450	 5.5280
 3.2470	 5.5630
 3.2490	 5.5100
 3.2510	 5.4880
 3.2530	 5.5260
 3.2550	 5.6040
 3.2570	 5.5800
 3.2590	 5.6850
 3.2610	 5.6900
 3.2630	 5.6740
 3.2650	 5.6180
 3.2670	 5.6160
 3.2690	 5.5400
 3.2720	 5.5780
 3.2740	 5.5770
 3.2760	 5.5320
 3.2780	 5.4860
 3.2800	 5.6290
 3.2820	 5.6820
 3.2840	 5.6670
 3.2860	 5.6330
 3.2880	 5.6390
 3.2900	 5.6000
 3.2920	 5.5700
 3.2940	 5.5050
 3.2960	 5.5670
 3.2990	 5.6460
 3.3010	 5.6400
 3.3030	 5.6130
 3.3050	 5.6060
 3.3070	 5.5570
 3.3090	 5.6490
 3.3110	 5.7090
 3.3130	 5.6700
 3.3150	 5.6150
 3.3180	 5.6250
 3.3200	 5.5660
 3.3220	 5.6190
 3.3240	 5.5840
 3.3260	 5.5530
 3.3280	 5.4780
 3.3300	 5.5530
 3.3330	 5.5740
 3.3350	 5.5510
 3.3370	 5.5220
 3.3390	 5.5450
 3.3410	 5.4890
 3.3430	 5.4770
 3.3450	 5.4320
 3.3480	 5.3990
 3.3500	 5.3470
 3.3520	 5.4040
 3.3540	 5.4030
 3.3560	 5.4430
 3.3580	 5.3960
 3.3610	 5.3500
 3.3630	 5.3030
 3.3650	 5.3560
 3.3670	 5.2830
 3.3690	 5.1860
 3.3720	 5.2000
 3.3740	 5.2870
 3.3760	 5.2800
 3.3780	 5.2940
 3.3800	 5.2510
 3.3830	 5.2400
 3.3850	 5.2470
 3.3870	 5.2920
 3.3890	 5.2710
 3.3910	 5.1810
 3.3940	 5.1590
 3.3960	 5.2280
 3.3980	 5.1940
 3.4000	 5.1600
 3.4020	 5.0920
 3.4050	 5.1340
 3.4070	 5.1470
 3.4090	 5.1880
 3.4110	 5.2330
 3.4140	 5.3100
 3.4160	 5.4840
 3.4180	 5.7200
 3.4200	 6.0000
 3.4230	 6.5220
 3.4250	 7.1110
 3.4270	 7.7300
 3.4290	 8.0120
 3.4320	 7.8660
 3.4340	 7.4550
 3.4360	 7.0740
 3.4390	 6.7710
 3.4410	 6.6080
 3.4430	 6.4910
 3.4450	 6.4160
 3.4480	 6.3620
 3.4500	 6.3840
 3.4520	 6.3710
 3.4550	 6.3610
 3.4570	 6.3440
 3.4590	 6.3000
 3.4620	 6.1890
 3.4640	 6.1530
 3.4660	 6.1450
 3.4680	 6.1420
 3.4710	 6.0780
 3.4730	 6.0660
 3.4750	 6.0580
 3.4780	 6.0370
 3.4800	 5.9030
 3.4820	 5.8750
 3.4850	 5.8530
 3.4870	 5.8320
 3.4890	 5.7160
 3.4920	 5.6910
 3.4940	 5.6440
 3.4970	 5.6610
 3.4990	 5.7050
 3.5010	 5.7620
 3.5040	 5.8130
 3.5060	 6.1850
 3.5080	 6.9350
 3.5110	 7.7160
 3.5130	 7.9000
 3.5160	 7.6720
 3.5180	 7.3770
 3.5200	 7.1450
 3.5230	 6.9900
 3.5250	 6.9000
 3.5270	 6.7610
 3.5300	 6.7320
 3.5320	 6.6640
 3.5350	 6.6210
 3.5370	 6.6320
 3.5400	 6.6620
 3.5420	 6.6690
 3.5440	 6.7200
 3.5470	 6.6390
 3.5490	 6.6370
 3.5520	 6.6130
 3.5540	 6.6140
 3.5570	 6.5900
 3.5590	 6.5920
 3.5610	 6.5770
 3.5640	 6.6430
 3.5660	 6.6660
 3.5690	 6.6600
 3.5710	 6.6260
 3.5740	 6.6390
 3.5760	 6.6450
 3.5790	 6.5980
 3.5810	 6.5840
 3.5840	 6.6100
 3.5860	 6.5820
 3.5890	 6.6440
 3.5910	 6.6420
 3.5930	 6.6110
 3.5960	 6.5870
 3.5980	 6.6320
 3.6010	 6.6190
 3.6030	 6.6330
 3.6060	 6.6780
 3.6080	 6.6890
 3.6110	 6.6140
 3.6140	 6.5840
 3.6160	 6.5570
 3.6190	 6.5890
 3.6210	 6.6160
 3.6240	 6.6280
 3.6260	 6.6200
 3.6290	 6.6160
 3.6310	 6.5610
 3.6340	 6.5980
 3.6360	 6.6590
 3.6390	 6.6870
 3.6410	 6.6450
 3.6440	 6.6800
 3.6470	 6.7080
 3.6490	 6.7290
 3.6520	 6.6690
 3.6540	 6.6010
 3.6570	 6.5960
 3.6590	 6.6450
 3.6620	 6.6590
 3.6650	 6.6300
 3.6670	 6.6290
 3.6700	 6.6680
 3.6720	 6.6290
 3.6750	 6.6840
 3.6780	 6.6560
 3.6800	 6.6150
 3.6830	 6.5780
 3.6850	 6.5970
 3.6880	 6.5700
 3.6910	 6.5720
 3.6930	 6.5780
 3.6960	 6.5810
 3.6990	 6.5710
 3.7010	 6.6310
 3.7040	 6.6670
 3.7060	 6.7100
 3.7090	 6.7220
 3.7120	 6.7150
 3.7140	 6.6480
 3.7170	 6.6300
 3.7200	 6.6620
 3.7220	 6.6900
 3.7250	 6.6870
 3.7280	 6.6790
 3.7300	 6.6720
 3.7330	 6.7390
 3.7360	 6.7030
 3.7390	 6.6860
 3.7410	 6.6890
 3.7440	 6.7220
 3.7470	 6.7850
 3.7490	 6.7680
 3.7520	 6.6980
 3.7550	 6.7160
 3.7580	 6.7110
 3.7600	 6.7830
 3.7630	 6.8180
 3.7660	 6.7870
 3.7680	 6.7440
 3.7710	 6.7530
 3.7740	 6.7600
 3.7770	 6.7230
 3.7790	 6.6710
 3.7820	 6.6880
 3.7850	 6.7770
 3.7880	 6.8430
 3.7900	 6.7940
 3.7930	 6.8020
 3.7960	 6.8160
 3.7990	 6.8370
 3.8020	 6.7720
 3.8040	 6.7430
 3.8070	 6.7610
 3.8100	 6.7960
 3.8130	 6.7870
 3.8160	 6.7880
 3.8180	 6.7730
 3.8210	 6.8040
 3.8240	 6.8040
 3.8270	 6.8290
 3.8300	 6.8750
 3.8330	 6.9010
 3.8350	 6.8230
 3.8380	 6.7580
 3.8410	 6.7470
 3.8440	 6.8170
 3.8470	 6.8490
 3.8500	 6.8340
 3.8520	 6.7940
 3.8550	 6.8810
 3.8580	 6.9030
 3.8610	 6.8600
 3.8640	 6.8660
 3.8670	 6.8610
 3.8700	 6.8210
 3.8730	 6.8250
 3.8750	 6.8410
 3.8780	 6.8860
 3.8810	 6.8910
 3.8840	 6.8770
 3.8870	 6.8330
 3.8900	 6.8030
 3.8930	 6.8030
 3.8960	 6.8190
 3.8990	 6.8820
 3.9020	 6.9560
 3.9050	 6.9070
 3.9080	 6.8700
 3.9110	 6.8660
 3.9140	 6.8900
 3.9160	 6.8780
 3.9190	 6.8910
 3.9220	 6.9160
 3.9250	 6.8930
 3.9280	 6.8720
 3.9310	 6.8760
 3.9340	 6.9310
 3.9370	 6.9890
 3.9400	 6.9090
 3.9430	 6.8540
 3.9460	 6.8380
 3.9490	 6.8380
 3.9520	 6.8660
 3.9550	 6.8930
 3.9580	 6.8870
 3.9610	 6.9340
 3.9640	 6.8990
 3.9670	 6.8360
 3.9700	 6.8290
 3.9730	 6.9010
 3.9770	 6.9070
 3.9800	 6.8900
 3.9830	 6.8260
 3.9860	 6.8340
 3.9890	 6.8750
 3.9920	 6.8580
 3.9950	 6.8770
 3.9980	 6.8930
 4.0010	 6.8560
 4.0040	 6.9040
 4.0070	 6.9490
 4.0100	 6.9810
 4.0130	 6.9190
 4.0170	 6.8710
 4.0200	 6.8720
 4.0230	 6.9140
 4.0260	 6.8820
 4.0290	 6.9080
 4.0320	 6.9250
 4.0350	 6.9490
 4.0380	 6.9970
 4.0420	 6.9800
 4.0450	 6.9450
 4.0480	 6.9660
 4.0510	 6.9560
 4.0540	 6.9570
 4.0570	 6.9510
 4.0610	 6.9570
 4.0640	 6.9520
 4.0670	 6.9790
 4.0700	 7.0040
 4.0730	 6.9730
 4.0770	 6.9270
 4.0800	 6.9610
 4.0830	 6.9500
 4.0860	 6.9480
 4.0890	 6.9730
 4.0930	 6.9440
 4.0960	 6.9310
 4.0990	 6.9450
 4.1020	 6.9090
 4.1060	 6.9160
 4.1090	 6.9630
 4.1120	 7.0010
 4.1150	 7.0030
 4.1190	 7.0120
 4.1220	 6.9740
 4.1250	 6.9210
 4.1280	 6.9350
 4.1320	 6.9830
 4.1350	 6.9990
 4.1380	 7.0270
 4.1420	 7.0270
 4.1450	 7.0330
 4.1480	 7.0060
 4.1520	 7.0070
 4.1550	 7.0180
 4.1580	 6.9900
 4.1620	 6.9620
 4.1650	 6.9640
 4.1680	 6.9720
 4.1720	 6.9740
 4.1750	 6.9750
 4.1780	 6.9870
 4.1820	 7.0320
 4.1850	 7.0540
 4.1890	 7.0170
 4.1920	 7.0030
 4.1950	 7.0030
 4.1990	 7.0010
 4.2020	 6.9700
 4.2060	 6.9460
 4.2090	 6.8880
 4.2120	 6.8330
 4.2160	 6.8000
 4.2190	 6.8640
 4.2230	 6.9310
 4.2260	 6.9900
 4.2300	 6.9370
 4.2330	 6.8710
 4.2360	 6.8510
 4.2400	 6.8650
 4.2430	 6.8780
 4.2470	 6.8820
 4.2500	 6.8670
 4.2540	 6.9150
 4.2570	 6.9440
 4.2610	 6.9100
 4.2640	 6.8880
 4.2680	 6.9040
 4.2710	 6.9320
 4.2750	 6.9590
 4.2780	 6.9150
 4.2820	 6.8740
 4.2850	 6.9510
 4.2890	 7.0660
 4.2930	 6.9550
 4.2960	 6.8900
 4.3000	 6.8810
 4.3030	 6.9140
 4.3070	 6.9340
 4.3100	 6.8400
 4.3140	 6.8450
 4.3180	 6.9520
 4.3210	 6.9710
 4.3250	 6.9900
 4.3280	 6.9510
 4.3320	 6.8720
 4.3360	 6.8910
 4.3390	 6.9400
 4.3430	 6.9160
 4.3470	 6.8750
 4.3500	 6.8610
 4.3540	 6.9040
 4.3570	 6.8840
 4.3610	 6.8670
 4.3650	 6.8570
 4.3680	 6.8230
 4.3720	 6.8070
 4.3760	 6.8060
 4.3800	 6.8430
 4.3830	 6.8130
 4.3870	 6.7910
 4.3910	 6.7860
 4.3940	 6.8090
 4.3980	 6.8630
 4.4020	 6.8400
 4.4060	 6.8660
 4.4090	 6.8730
 4.4130	 6.8360
 4.4170	 6.8240
 4.4210	 6.8200
 4.4240	 6.8380
 4.4280	 6.8280
 4.4320	 6.7990
 4.4360	 6.8020
 4.4400	 6.7590
 4.4430	 6.7230
 4.4470	 6.7360
 4.4510	 6.7750
 4.4550	 6.7730
 4.4590	 6.7680
 4.4620	 6.7670
 4.4660	 6.7820
 4.4700	 6.7790
 4.4740	 6.7480
 4.4780	 6.7120
 4.4820	 6.7120
 4.4860	 6.7070
 4.4900	 6.7420
 4.4930	 6.7690
 4.4970	 6.7440
 4.5010	 6.7450
 4.5050	 6.7500
 4.5090	 6.7340
 4.5130	 6.6640
 4.5170	 6.6900
 4.5210	 6.7160
 4.5250	 6.6990
 4.5290	 6.7090
 4.5330	 6.6770
 4.5370	 6.6670
 4.5410	 6.6670
 4.5450	 6.6780
 4.5490	 6.6820
 4.5530	 6.6220
 4.5570	 6.6160
 4.5610	 6.6180
 4.5650	 6.5990
 4.5690	 6.5850
 4.5730	 6.6170
 4.5770	 6.6660
 4.5810	 6.6570
 4.5850	 6.5930
 4.5890	 6.5850
 4.5930	 6.6110
 4.5970	 6.6250
 4.6010	 6.5940
 4.6050	 6.6030
 4.6090	 6.6340
 4.6130	 6.6530
 4.6170	 6.6330
 4.6220	 6.5740
 4.6260	 6.5430
 4.6300	 6.5550
 4.6340	 6.5230
 4.6380	 6.5250
 4.6420	 6.5500
 4.6460	 6.5320
 4.6510	 6.5010
 4.6550	 6.5360
 4.6590	 6.5840
 4.6630	 6.5830
 4.6670	 6.5380
 4.6720	 6.5530
 4.6760	 6.5410
 4.6800	 6.5000
 4.6840	 6.4400
 4.6880	 6.4680
 4.6930	 6.5390
 4.6970	 6.6060
 4.7010	 6.5760
 4.7050	 6.5270
 4.7100	 6.5080
 4.7140	 6.5490
 4.7180	 6.5120
 4.7230	 6.4490
 4.7270	 6.4750
 4.7310	 6.5200
 4.7360	 6.5330
 4.7400	 6.5470
 4.7440	 6.5180
 4.7490	 6.5430
 4.7530	 6.5820
 4.7570	 6.5890
 4.7620	 6.5870
 4.7660	 6.6080
 4.7700	 6.5740
 4.7750	 6.5570
 4.7790	 6.5640
 4.7840	 6.5860
 4.7880	 6.6180
 4.7920	 6.6320
 4.7970	 6.5960
 4.8010	 6.5540
 4.8060	 6.5480
 4.8100	 6.5770
 4.8150	 6.5870
 4.8190	 6.6190
 4.8240	 6.6000
 4.8280	 6.5850
 4.8330	 6.6010
 4.8370	 6.6130
 4.8420	 6.5930
 4.8460	 6.5750
 4.8510	 6.5030
 4.8550	 6.5020
 4.8600	 6.5650
 4.8640	 6.6480
 4.8690	 6.6330
 4.8730	 6.6100
 4.8780	 6.6190
 4.8830	 6.6020
 4.8870	 6.5710
 4.8920	 6.5820
 4.8960	 6.5810
 4.9010	 6.5520
 4.9060	 6.5050
 4.9100	 6.5580
 4.9150	 6.6330
 4.9200	 6.6350
 4.9240	 6.6270
 4.9290	 6.6790
 4.9340	 6.6760
 4.9380	 6.6770
 4.9430	 6.6880
 4.9480	 6.6790
 4.9530	 6.6810
 4.9570	 6.6860
 4.9620	 6.6420
 4.9670	 6.6080
 4.9720	 6.6110
 4.9760	 6.6970
 4.9810	 6.7350
 4.9860	 6.7410
 4.9910	 6.7370
 4.9960	 6.7340
 5.0000	 6.6910
 5.0050	 6.7000
 5.0100	 6.7110
 5.0150	 6.7000
 5.0200	 6.6860
 5.0250	 6.7010
 5.0290	 6.6500
 5.0340	 6.6600
 5.0390	 6.6970
 5.0440	 6.7250
 5.0490	 6.6980
 5.0540	 6.7090
 5.0590	 6.7260
 5.0640	 6.7060
 5.0690	 6.6820
 5.0740	 6.6920
 5.0790	 6.6920
 5.0840	 6.6960
 5.0890	 6.6920
 5.0940	 6.6740
 5.0990	 6.7260
 5.1040	 6.8270
 5.1090	 6.7660
 5.1140	 6.7020
 5.1190	 6.7250
 5.1240	 6.7860
 5.1290	 6.7730
 5.1340	 6.7180
 5.1390	 6.6760
 5.1440	 6.7260
 5.1490	 6.7530
 5.1540	 6.7890
 5.1600	 6.7660
 5.1650	 6.7890
 5.1700	 6.7800
 5.1750	 6.7560
 5.1800	 6.7350
 5.1850	 6.7380
 5.1910	 6.7380
 5.1960	 6.7260
 5.2010	 6.7660
 5.2060	 6.8460
 5.2110	 6.7660
 5.2170	 6.7200
 5.2220	 6.7230
 5.2270	 6.7580
 5.2320	 6.7300
 5.2380	 6.7130
 5.2430	 6.6820
 5.2480	 6.7200
 5.2540	 6.7170
 5.2590	 6.6680
 5.2640	 6.6470
 5.2700	 6.7190
 5.2750	 6.7410
 5.2800	 6.7810
 5.2860	 6.7810
 5.2910	 6.7320
 5.2970	 6.6840
 5.3020	 6.7320
 5.3070	 6.7260
 5.3130	 6.7180
 5.3180	 6.7080
 5.3240	 6.7190
 5.3290	 6.7030
 5.3350	 6.7740
 5.3400	 6.7710
 5.3460	 6.7090
 5.3510	 6.6390
 5.3570	 6.6200
 5.3620	 6.5760
 5.3680	 6.6420
 5.3730	 6.6860
 5.3790	 6.7180
 5.3850	 6.6360
 5.3900	 6.6410
 5.3960	 6.6600
 5.4010	 6.6370
 5.4070	 6.6130
 5.4130	 6.6590
 5.4180	 6.6490
 5.4240	 6.6360
 5.4300	 6.6010
 5.4350	 6.6210
 5.4410	 6.6100
 5.4470	 6.6450
 5.4530	 6.6140
 5.4580	 6.5660
 5.4640	 6.4910
 5.4700	 6.4600
 5.4760	 6.4190
 5.4810	 6.4550
 5.4870	 6.4390
 5.4930	 6.4410
 5.4990	 6.4120
 5.5050	 6.4520
 5.5110	 6.4410
 5.5160	 6.4360
 5.5220	 6.3790
 5.5280	 6.3880
 5.5340	 6.3370
 5.5400	 6.2980
 5.5460	 6.2900
 5.5520	 6.3280
 5.5580	 6.2960
 5.5640	 6.2810
 5.5700	 6.2410
 5.5760	 6.2370
 5.5820	 6.2020
 5.5880	 6.1950
 5.5940	 6.1190
 5.6000	 6.1160
 5.6060	 6.1020
 5.6120	 6.0580
 5.6180	 6.0030
 5.6240	 5.9950
 5.6300	 5.9180
 5.6360	 5.9020
 5.6420	 5.8930
 5.6490	 5.9020
 5.6550	 5.8430
 5.6610	 5.7920
 5.6670	 5.6830
 5.6730	 5.6210
 5.6800	 5.5450
 5.6860	 5.5270
 5.6920	 5.4610
 5.6980	 5.4470
 5.7040	 5.3260
 5.7110	 5.2270
 5.7170	 5.1360
 5.7230	 5.1430
 5.7300	 5.1530
 5.7360	 5.1500
 5.7420	 5.0760
 5.7490	 5.1050
 5.7550	 5.1260
 5.7620	 5.2120
 5.7680	 5.2550
 5.7740	 5.3080
 5.7810	 5.3080
 5.7870	 5.3660
 5.7940	 5.4000
 5.8000	 5.4640
 5.8070	 5.4510
 5.8130	 5.5140
 5.8200	 5.5720
 5.8260	 5.6600
 5.8330	 5.6370
 5.8390	 5.6660
 5.8460	 5.6690
 5.8530	 5.7400
 5.8590	 5.7300
 5.8660	 5.7590
 5.8720	 5.7200
 5.8790	 5.7440
 5.8860	 5.7090
 5.8920	 5.6770
 5.8990	 5.6830
 5.9060	 5.7770
 5.9130	 5.7390
 5.9190	 5.7790
 5.9260	 5.7530
 5.9330	 5.8300
 5.9400	 5.9020
 5.9470	 5.9860
 5.9530	 5.9750
 5.9600	 5.9150
 5.9670	 5.8430
 5.9740	 5.9320
 5.9810	 5.8950
 5.9880	 5.9060
 5.9950	 5.8690
 6.0020	 5.8250
 6.0090	 5.7700
 6.0160	 5.9040
 6.0230	 5.8770
 6.0300	 5.8460
 6.0370	 5.8070
 6.0440	 5.8730
 6.0510	 5.8490
 6.0580	 5.7840
 6.0650	 5.7440
 6.0720	 5.8310
 6.0790	 5.7150
 6.0860	 5.6640
 6.0930	 5.7010
 6.1000	 5.8180
 6.1080	 5.8060
 6.1150	 5.7890
 6.1220	 5.7380
 6.1290	 5.8190
 6.1370	 5.7790
 6.1440	 5.7760
 6.1510	 5.7490
 6.1580	 5.8420
 6.1660	 5.8230
 6.1730	 5.8720
 6.1800	 5.8510
 6.1880	 5.8770
 6.1950	 5.8300
 6.2030	 5.9540
 6.2100	 5.8910
 6.2170	 5.9280
 6.2250	 5.9660
 6.2320	 6.0320
 6.2400	 5.9970
 6.2470	 6.0390
 6.2550	 5.9980
 6.2630	 6.0360
 6.2700	 5.9940
 6.2780	 6.0650
 6.2850	 6.0210
 6.2930	 6.0380
 6.3010	 6.0050
 6.3080	 6.0930
 6.3160	 6.0790
 6.3240	 6.1150
 6.3310	 6.0940
 6.3390	 6.1230
 6.3470	 6.1090
 6.3550	 6.1520
 6.3620	 6.0580
 6.3700	 6.0920
 6.3780	 6.1160
 6.3860	 6.2160
 6.3940	 6.1390
 6.4020	 6.1560
 6.4100	 6.1370
 6.4180	 6.1190
 6.4260	 6.0640
 6.4330	 6.1370
 6.4410	 6.0500
 6.4490	 6.1200
 6.4580	 6.1510
 6.4660	 6.1880
 6.4740	 6.1150
 6.4820	 6.1390
 6.4900	 6.0790
 6.4980	 6.0330
 6.5060	 5.9570
 6.5140	 6.0260
 6.5230	 5.9770
 6.5310	 5.9790
 6.5390	 5.9560
 6.5470	 5.9810
 6.5550	 5.9310
 6.5640	 5.9660
 6.5720	 5.9180
 6.5800	 5.8790
 6.5890	 5.7820
 6.5970	 5.8110
 6.6060	 5.8380
 6.6140	 5.9150
 6.6220	 5.8940
 6.6310	 5.9320
 6.6390	 5.8960
 6.6480	 5.9080
 6.6560	 5.8560
 6.6650	 5.8640
 6.6740	 5.7830
 6.6820	 5.8090
 6.6910	 5.7840
 6.6990	 5.8200
 6.7080	 5.7000
 6.7170	 5.6990
 6.7260	 5.6220
 6.7340	 5.6090
 6.7430	 5.5080
 6.7520	 5.4570
 6.7610	 5.3380
 6.7690	 5.2920
 6.7780	 5.2320
 6.7870	 5.5480
 6.7960	 5.7250
 6.8050	 5.6680
 6.8140	 5.5070
 6.8230	 5.5030
 6.8320	 5.6690
 6.8410	 6.0560
 6.8500	 6.0240
 6.8590	 5.9100
 6.8680	 5.7930
 6.8770	 5.8320
 6.8860	 5.7760
 6.8950	 5.8290
 6.9050	 5.7260
 6.9140	 5.6960
 6.9230	 5.7010
 6.9320	 5.7470
 6.9420	 5.6700
 6.9510	 5.7160
 6.9600	 5.6340
 6.9700	 5.6500
 6.9790	 5.6140
 6.9880	 5.6300
 6.9980	 5.5900
 7.0070	 5.6590
 7.0170	 5.6070
 7.0260	 5.6900
 7.0360	 5.6670
 7.0450	 5.7030
 7.0550	 5.6350
 7.0650	 5.7040
 7.0740	 5.6550
 7.0840	 5.6880
 7.0940	 5.7090
 7.1030	 5.7840
 7.1130	 5.6910
 7.1230	 5.6940
 7.1330	 5.6370
 7.1420	 5.7030
 7.1520	 5.5760
 7.1620	 5.5470
 7.1720	 5.5290
 7.1820	 5.5920
 7.1920	 5.5250
 7.2020	 5.6000
 7.2120	 5.5020
 7.2220	 5.4570
 7.2320	 5.4050
 7.2420	 5.4820
 7.2520	 5.4220
 7.2620	 5.4460
 7.2730	 5.3640
 7.2830	 5.4540
 7.2930	 5.4560
 7.3030	 5.4480
 7.3140	 5.3740
 7.3240	 5.4660
 7.3340	 5.4450
 7.3450	 5.5210
 7.3550	 5.4350
 7.3660	 5.4870
 7.3760	 5.4380
 7.3870	 5.4570
 7.3970	 5.4290
 7.4080	 5.4870
 7.4180	 5.4020
 7.4290	 5.4710
 7.4400	 5.4710
 7.4500	 5.5070
 7.4610	 5.4840
 7.4720	 5.5000
 7.4830	 5.3640
 7.4930	 5.3990
 7.5040	 5.3750
 7.5150	 5.4320
 7.5260	 5.3870
 7.5370	 5.4510
 7.5480	 5.3870
 7.5590	 5.3900
 7.5700	 5.3130
 7.5810	 5.3600
 7.5920	 5.3330
 7.6030	 5.4550
 7.6140	 5.4380
 7.6260	 5.4670
 7.6370	 5.4130
 7.6480	 5.4820
 7.6590	 5.4410
 7.6710	 5.4780
 7.6820	 5.3930
 7.6930	 5.5060
 7.7050	 5.5130
 7.7160	 5.5050
 7.7280	 5.3280
 7.7390	 5.4130
 7.7510	 5.4630
 7.7630	 5.4920
 7.7740	 5.3140
 7.7860	 5.3140
 7.7980	 5.2950
 7.8090	 5.3560
 7.8210	 5.3120
 7.8330	 5.3800
 7.8450	 5.2560
 7.8570	 5.2370
 7.8690	 5.1320
 7.8810	 5.2150
 7.8930	 5.1920
 7.9050	 5.3210
 7.9170	 5.2520
 7.9290	 5.2320
 7.9410	 5.1520
 7.9530	 5.2510
 7.9650	 5.1870
 7.9780	 5.2410
 7.9900	 5.1280
 8.0020	 5.3280
 8.0150	 5.3360
 8.0270	 5.3230
 8.0390	 5.2610
 8.0520	 5.3720
 8.0640	 5.2600
 8.0770	 5.3130
 8.0900	 5.2260
 8.1020	 5.3210
 8.1150	 5.2570
 8.1280	 5.3600
 8.1400	 5.2710
 8.1530	 5.4180
 8.1660	 5.3750
 8.1790	 5.4640
 8.1920	 5.4010
 8.2050	 5.5890
 8.2180	 5.5020
 8.2310	 5.5170
 8.2440	 5.3950
 8.2570	 5.5070
 8.2700	 5.5110
 8.2830	 5.5990
 8.2970	 5.4010
 8.3100	 5.4680
 8.3230	 5.3810
 8.3370	 5.4820
 8.3500	 5.3730
 8.3640	 5.4700
 8.3770	 5.3360
 8.3910	 5.4660
 8.4040	 5.5090
 8.4180	 5.5870
 8.4320	 5.3510
 8.4450	 5.4400
 8.4590	 5.3190
 8.4730	 5.3720
 8.4870	 5.3130
 8.5010	 5.4070
 8.5150	 5.4040
 8.5290	 5.5410
 8.5430	 5.4100
 8.5570	 5.4460
 8.5710	 5.2890
 8.5850	 5.3990
 8.5990	 5.2850
 8.6140	 5.4100
 8.6280	 5.3520
 8.6420	 5.5550
 8.6570	 5.5740
 8.6710	 5.6170
 8.6860	 5.4930
 8.7000	 5.6760
 8.7150	 5.5320
 8.7300	 5.4980
 8.7440	 5.4710
 8.7590	 5.6270
 8.7740	 5.4390
 8.7890	 5.6200
 8.8040	 5.5270
 8.8190	 5.5340
 8.8340	 5.4640
 8.8490	 5.5340
 8.8640	 5.4050
 8.8790	 5.5310
 8.8940	 5.4590
 8.9100	 5.5440
 8.9250	 5.3710
 8.9400	 5.4830
 8.9560	 5.4330
 8.9710	 5.5550
 8.9870	 5.3770
 9.0020	 5.4190
 9.0180	 5.3540
 9.0340	 5.5360
 9.0500	 5.3650
 9.0650	 5.4290
 9.0810	 5.4200
 9.0970	 5.6070
 9.1130	 5.4380
 9.1290	 5.4930
 9.1450	 5.4170
 9.1610	 5.5820
 9.1780	 5.4240
 9.1940	 5.4860
 9.2100	 5.3630
 9.2270	 5.5610
 9.2430	 5.3670
 9.2600	 5.4350
 9.2760	 5.3780
 9.2930	 5.5190
 9.3090	 5.4020
 9.3260	 5.5790
 9.3430	 5.5360
 9.3600	 5.6580
 9.3770	 5.6070
 9.3940	 5.8050
 9.4110	 5.5840
 9.4280	 5.6280
 9.4450	 5.4870
 9.4620	 5.5900
 9.4800	 5.4980
 9.4970	 5.6810
 9.5140	 5.5860
 9.5320	 5.7830
 9.5500	 5.7140
 9.5670	 5.6780
 9.5850	 5.5060
 9.6030	 5.6860
 9.6200	 5.5650
 9.6380	 5.6550
 9.6560	 5.5790
 9.6740	 5.8340
 9.6920	 5.7150
 9.7100	 5.7700
 9.7290	 5.6480
 9.7470	 5.8860
 9.7650	 5.7050
 9.7840	 5.7210
 9.8020	 5.6190
 9.8210	 5.6930
 9.8390	 5.5470
 9.8580	 5.7140
 9.8770	 5.6580
 9.8960	 5.7210
 9.9150	 5.5860
 9.9340	 5.7590
 9.9530	 5.5910
 9.9720	 5.6860
 9.9910	 5.5490
10.0100	 5.6150
10.0300	 5.4640
10.0490	 5.6430
10.0690	 5.5670
10.0880	 5.6650
10.1080	 5.6220
10.1280	 5.8460
10.1480	 5.6750
10.1670	 5.7870
10.1870	 5.7290
10.2070	 5.8750
10.2280	 5.7490
10.2480	 5.8270
10.2680	 5.6240
10.2890	 5.7490
10.3090	 5.6390
10.3300	 5.7530
10.3500	 5.6810
10.3710	 5.9080
10.3920	 5.8220
10.4120	 5.9470
10.4330	 5.8050
10.4540	 5.9790
10.4760	 5.9040
10.4970	 6.0520
10.5180	 6.0450
10.5390	 6.1820
10.5610	 5.9380
10.5820	 6.0810
10.6040	 5.9890
10.6260	 6.2240
10.6480	 6.0620
10.6700	 6.1290
10.6920	 6.0540
10.7140	 6.0950
10.7360	 5.8920
10.7580	 6.0560
10.7800	 5.8400
10.8030	 5.9280
10.8250	 5.7360
10.8480	 5.9240
10.8710	 5.8770
10.8940	 6.0390
10.9170	 5.8840
10.9400	 5.9700
10.9630	 5.7650
10.9860	 5.9620
11.0090	 5.8960
11.0330	 5.9750
11.0560	 5.7890
11.0800	 5.9320
11.1040	 5.7050
11.1270	 5.7580
11.1510	 5.5030
11.1750	 5.6680
11.2000	 5.7490
11.2240	 6.0270
11.2480	 5.9070
11.2730	 5.9810
11.2970	 5.7330
11.3220	 5.9520
11.3470	 5.7680
11.3720	 5.8830
11.3970	 5.7260
11.4220	 5.9380
11.4470	 5.8230
11.4720	 6.0360
11.4980	 5.7310
11.5230	 5.7870
11.5490	 5.7580
11.5750	 5.9810
11.6000	 5.7170
11.6260	 5.8790
11.6530	 5.7100
11.6790	 5.8800
11.7050	 5.6480
11.7320	 5.7390
11.7580	 5.6650
11.7850	 5.8470
11.8120	 5.7270
11.8390	 5.9170
11.8660	 5.6500
11.8930	 5.7610
11.9200	 5.6370
11.9480	 5.8910
11.9760	 5.6730
12.0030	 5.8480
12.0310	 5.7130
12.0590	 5.9800
12.0870	 5.8080
12.1150	 6.0230
12.1440	 5.9240
12.1720	 6.1360
12.2010	 5.6910
12.2300	 5.5820
12.2590	 5.5220
12.2880	 5.9680
12.3170	 5.8140
12.3460	 5.9830
12.3760	 5.6590
12.4050	 5.8250
12.4350	 5.7470
12.4650	 5.9700
12.4950	 5.6420
12.5250	 5.8610
12.5550	 5.7510
12.5860	 5.8920
12.6170	 5.5500
12.6470	 5.7390
12.6780	 5.5600
12.7090	 5.7850
12.7410	 5.4910
12.7720	 5.8590
12.8030	 5.7490
12.8350	 5.8690
12.8670	 5.5630
12.8990	 5.7590
12.9310	 5.4450
12.9640	 5.7020
12.9960	 5.4910
13.0290	 5.6580
13.0610	 5.3350
13.0940	 5.5770
13.1280	 5.5500
13.1610	 5.8180
13.1940	 5.6850
13.2280	 6.2120
13.2620	 5.6510
13.2960	 5.5920
13.3300	 5.5010
13.3640	 5.8910
13.3990	 5.5840
13.4340	 5.6830
13.4690	 5.4380
13.5040	 5.8250
13.5390	 5.6020
13.5740	 5.7190
13.6100	 5.3490
13.6460	 5.7410
13.6820	 5.7560
13.7180	 6.1340
13.7540	 5.5970
13.7910	 5.6330
13.8280	 5.3300
13.8650	 5.8670
13.9020	 6.1020
13.9390	 6.5270
13.9770	 5.9600
14.0150	 6.1130
14.0530	 5.5690
14.0910	 5.8180
14.1290	 5.6430
14.1680	 5.9390
14.2070	 5.5800
14.2460	 6.0380
14.2850	 5.7070
14.3240	 5.9090
14.3640	 5.4610
14.4040	 5.9550
14.4440	 5.5030
14.4840	 5.7170
14.5250	 5.4440
14.5660	 5.7760
14.6070	 5.3740
14.6480	 5.6040
14.6900	 5.0010
14.7310	 5.4630
14.7730	 5.3630
14.8150	 5.9360
14.8580	 5.2290
14.9010	 5.5420
14.9440	 5.0660
14.9870	 5.9810
15.0300	 5.2430
15.0740	 5.6930
15.1180	 5.6150
15.1620	 6.0270
15.2060	 5.1700
15.2510	 5.9230
15.2960	 5.2570
15.3410	 5.7910
15.3870	 5.2560
