Name: Abies concolor 1
Type: vegetation
Class: Tree
Genus: Abies
Species: concolor
Sample No.: VH053
Owner: UCSB
Wavelength Range: VSWIR
Origin: 37.044; -119.3035; WGS84
Collection Date: 4/20/2013
Description: Samples were collected as part of the HyspIRI Airborne Campaign. 48 individual plants were sampled in three times in 2013 - spring  summer  and fall. The name of the sample includes a 1  2  or 3 which references a different individual of the species. Samples were taken to JPL and processed within 48 hours of collection. The same leaves were processed in the Nicolet and then measured using the ASD.
Measurement: Bidirectional reflectance
First Column: X
Second Column: Y
X Units: Wavelength (micrometers)
Y Units: Reflectance (percentage)
First X Value: 0.35
Last X Value: 2.5
Number of X Values: 2151
Additional Information: vegetation.tree.abies.concolor.vswir.vh053.ucsb.asd.ancillary.txt

 0.3500	 3.7420
 0.3510	 3.9740
 0.3520	 4.0280
 0.3530	 3.9210
 0.3540	 3.8030
 0.3550	 3.8630
 0.3560	 3.8960
 0.3570	 3.8370
 0.3580	 3.7140
 0.3590	 3.6060
 0.3600	 3.6820
 0.3610	 3.8720
 0.3620	 3.7770
 0.3630	 3.6760
 0.3640	 3.6520
 0.3650	 3.7010
 0.3660	 3.7090
 0.3670	 3.7300
 0.3680	 3.7620
 0.3690	 3.7690
 0.3700	 3.8120
 0.3710	 3.7880
 0.3720	 3.6800
 0.3730	 3.6610
 0.3740	 3.6790
 0.3750	 3.6920
 0.3760	 3.6770
 0.3770	 3.7060
 0.3780	 3.7840
 0.3790	 3.8390
 0.3800	 3.7530
 0.3810	 3.6570
 0.3820	 3.6030
 0.3830	 3.6080
 0.3840	 3.6540
 0.3850	 3.7410
 0.3860	 3.8260
 0.3870	 3.8580
 0.3880	 3.7770
 0.3890	 3.7300
 0.3900	 3.7700
 0.3910	 3.8400
 0.3920	 3.8200
 0.3930	 3.7950
 0.3940	 3.8320
 0.3950	 3.8390
 0.3960	 3.8600
 0.3970	 3.8980
 0.3980	 3.9350
 0.3990	 3.9710
 0.4000	 3.9800
 0.4010	 3.9770
 0.4020	 4.0290
 0.4030	 4.1050
 0.4040	 4.1690
 0.4050	 4.2060
 0.4060	 4.2690
 0.4070	 4.3120
 0.4080	 4.3460
 0.4090	 4.4140
 0.4100	 4.4920
 0.4110	 4.5410
 0.4120	 4.5710
 0.4130	 4.6770
 0.4140	 4.7570
 0.4150	 4.8180
 0.4160	 4.8940
 0.4170	 4.9650
 0.4180	 5.0510
 0.4190	 5.1450
 0.4200	 5.2220
 0.4210	 5.3070
 0.4220	 5.3890
 0.4230	 5.4580
 0.4240	 5.5160
 0.4250	 5.5940
 0.4260	 5.6850
 0.4270	 5.7670
 0.4280	 5.8360
 0.4290	 5.9020
 0.4300	 5.9710
 0.4310	 6.0390
 0.4320	 6.0980
 0.4330	 6.1560
 0.4340	 6.2240
 0.4350	 6.2950
 0.4360	 6.3470
 0.4370	 6.3920
 0.4380	 6.4620
 0.4390	 6.5090
 0.4400	 6.5530
 0.4410	 6.6100
 0.4420	 6.6510
 0.4430	 6.6870
 0.4440	 6.7230
 0.4450	 6.7630
 0.4460	 6.8050
 0.4470	 6.8500
 0.4480	 6.8940
 0.4490	 6.9260
 0.4500	 6.9470
 0.4510	 6.9750
 0.4520	 7.0210
 0.4530	 7.0540
 0.4540	 7.0850
 0.4550	 7.1120
 0.4560	 7.1260
 0.4570	 7.1370
 0.4580	 7.1580
 0.4590	 7.1900
 0.4600	 7.2180
 0.4610	 7.2240
 0.4620	 7.2250
 0.4630	 7.2470
 0.4640	 7.2660
 0.4650	 7.2690
 0.4660	 7.2630
 0.4670	 7.2770
 0.4680	 7.3020
 0.4690	 7.3160
 0.4700	 7.3100
 0.4710	 7.3270
 0.4720	 7.3340
 0.4730	 7.3340
 0.4740	 7.3450
 0.4750	 7.3590
 0.4760	 7.3740
 0.4770	 7.3880
 0.4780	 7.3980
 0.4790	 7.4020
 0.4800	 7.4080
 0.4810	 7.4210
 0.4820	 7.4380
 0.4830	 7.4540
 0.4840	 7.4630
 0.4850	 7.4640
 0.4860	 7.4760
 0.4870	 7.4910
 0.4880	 7.5020
 0.4890	 7.5300
 0.4900	 7.5600
 0.4910	 7.5830
 0.4920	 7.5980
 0.4930	 7.6360
 0.4940	 7.6710
 0.4950	 7.6940
 0.4960	 7.7360
 0.4970	 7.7760
 0.4980	 7.8180
 0.4990	 7.8690
 0.5000	 7.9240
 0.5010	 7.9850
 0.5020	 8.0520
 0.5030	 8.1250
 0.5040	 8.2070
 0.5050	 8.2910
 0.5060	 8.3760
 0.5070	 8.4740
 0.5080	 8.5810
 0.5090	 8.6890
 0.5100	 8.7940
 0.5110	 8.9160
 0.5120	 9.0490
 0.5130	 9.1860
 0.5140	 9.3280
 0.5150	 9.4760
 0.5160	 9.6290
 0.5170	 9.7900
 0.5180	 9.9580
 0.5190	10.1250
 0.5200	10.2910
 0.5210	10.4600
 0.5220	10.6200
 0.5230	10.7750
 0.5240	10.9260
 0.5250	11.0750
 0.5260	11.2150
 0.5270	11.3440
 0.5280	11.4630
 0.5290	11.5760
 0.5300	11.6780
 0.5310	11.7680
 0.5320	11.8610
 0.5330	11.9410
 0.5340	12.0120
 0.5350	12.0790
 0.5360	12.1410
 0.5370	12.1940
 0.5380	12.2430
 0.5390	12.2960
 0.5400	12.3410
 0.5410	12.3870
 0.5420	12.4370
 0.5430	12.4790
 0.5440	12.5250
 0.5450	12.5690
 0.5460	12.6010
 0.5470	12.6280
 0.5480	12.6540
 0.5490	12.6800
 0.5500	12.7090
 0.5510	12.7330
 0.5520	12.7480
 0.5530	12.7490
 0.5540	12.7440
 0.5550	12.7290
 0.5560	12.7030
 0.5570	12.6680
 0.5580	12.6200
 0.5590	12.5650
 0.5600	12.5050
 0.5610	12.4420
 0.5620	12.3800
 0.5630	12.3160
 0.5640	12.2460
 0.5650	12.1720
 0.5660	12.0930
 0.5670	12.0060
 0.5680	11.9100
 0.5690	11.8120
 0.5700	11.7150
 0.5710	11.6230
 0.5720	11.5350
 0.5730	11.4550
 0.5740	11.3820
 0.5750	11.3120
 0.5760	11.2420
 0.5770	11.1760
 0.5780	11.1170
 0.5790	11.0570
 0.5800	11.0000
 0.5810	10.9490
 0.5820	10.9060
 0.5830	10.8690
 0.5840	10.8260
 0.5850	10.7750
 0.5860	10.7280
 0.5870	10.6790
 0.5880	10.6340
 0.5890	10.5980
 0.5900	10.5660
 0.5910	10.5470
 0.5920	10.5390
 0.5930	10.5310
 0.5940	10.5180
 0.5950	10.5040
 0.5960	10.4890
 0.5970	10.4700
 0.5980	10.4510
 0.5990	10.4320
 0.6000	10.4130
 0.6010	10.3920
 0.6020	10.3690
 0.6030	10.3430
 0.6040	10.3190
 0.6050	10.2900
 0.6060	10.2530
 0.6070	10.2100
 0.6080	10.1650
 0.6090	10.1250
 0.6100	10.0880
 0.6110	10.0450
 0.6120	 9.9950
 0.6130	 9.9410
 0.6140	 9.8870
 0.6150	 9.8350
 0.6160	 9.7910
 0.6170	 9.7500
 0.6180	 9.7100
 0.6190	 9.6710
 0.6200	 9.6400
 0.6210	 9.6140
 0.6220	 9.5840
 0.6230	 9.5660
 0.6240	 9.5510
 0.6250	 9.5350
 0.6260	 9.5220
 0.6270	 9.5180
 0.6280	 9.5170
 0.6290	 9.5120
 0.6300	 9.5060
 0.6310	 9.5010
 0.6320	 9.4960
 0.6330	 9.4820
 0.6340	 9.4620
 0.6350	 9.4390
 0.6360	 9.4120
 0.6370	 9.3710
 0.6380	 9.3230
 0.6390	 9.2710
 0.6400	 9.2140
 0.6410	 9.1550
 0.6420	 9.0930
 0.6430	 9.0290
 0.6440	 8.9620
 0.6450	 8.8940
 0.6460	 8.8290
 0.6470	 8.7710
 0.6480	 8.7180
 0.6490	 8.6710
 0.6500	 8.6300
 0.6510	 8.5960
 0.6520	 8.5660
 0.6530	 8.5370
 0.6540	 8.5090
 0.6550	 8.4780
 0.6560	 8.4470
 0.6570	 8.4100
 0.6580	 8.3660
 0.6590	 8.3190
 0.6600	 8.2660
 0.6610	 8.2100
 0.6620	 8.1560
 0.6630	 8.0980
 0.6640	 8.0400
 0.6650	 7.9890
 0.6660	 7.9490
 0.6670	 7.9100
 0.6680	 7.8750
 0.6690	 7.8480
 0.6700	 7.8250
 0.6710	 7.8090
 0.6720	 7.8020
 0.6730	 7.7940
 0.6740	 7.7920
 0.6750	 7.7960
 0.6760	 7.8070
 0.6770	 7.8220
 0.6780	 7.8360
 0.6790	 7.8540
 0.6800	 7.8850
 0.6810	 7.9260
 0.6820	 7.9780
 0.6830	 8.0450
 0.6840	 8.1270
 0.6850	 8.2290
 0.6860	 8.3520
 0.6870	 8.5020
 0.6880	 8.6860
 0.6890	 8.9060
 0.6900	 9.1630
 0.6910	 9.4630
 0.6920	 9.8100
 0.6930	10.2010
 0.6940	10.6340
 0.6950	11.1090
 0.6960	11.6260
 0.6970	12.1830
 0.6980	12.7700
 0.6990	13.3880
 0.7000	14.0260
 0.7010	14.6820
 0.7020	15.3550
 0.7030	16.0350
 0.7040	16.7210
 0.7050	17.4110
 0.7060	18.1040
 0.7070	18.7950
 0.7080	19.4910
 0.7090	20.2000
 0.7100	20.9070
 0.7110	21.6220
 0.7120	22.3460
 0.7130	23.0700
 0.7140	23.8090
 0.7150	24.5580
 0.7160	25.3120
 0.7170	26.0710
 0.7180	26.8370
 0.7190	27.6070
 0.7200	28.3820
 0.7210	29.1640
 0.7220	29.9450
 0.7230	30.7240
 0.7240	31.5050
 0.7250	32.2790
 0.7260	33.0390
 0.7270	33.7850
 0.7280	34.5170
 0.7290	35.2340
 0.7300	35.9350
 0.7310	36.6200
 0.7320	37.2790
 0.7330	37.9170
 0.7340	38.5360
 0.7350	39.1340
 0.7360	39.7110
 0.7370	40.2610
 0.7380	40.7820
 0.7390	41.2850
 0.7400	41.7610
 0.7410	42.2140
 0.7420	42.6500
 0.7430	43.0560
 0.7440	43.4370
 0.7450	43.7980
 0.7460	44.1390
 0.7470	44.4510
 0.7480	44.7410
 0.7490	45.0150
 0.7500	45.2660
 0.7510	45.5050
 0.7520	45.7240
 0.7530	45.9180
 0.7540	46.1060
 0.7550	46.2830
 0.7560	46.4460
 0.7570	46.5900
 0.7580	46.7200
 0.7590	46.8440
 0.7600	46.9650
 0.7610	47.0770
 0.7620	47.1750
 0.7630	47.2670
 0.7640	47.3550
 0.7650	47.4350
 0.7660	47.5080
 0.7670	47.5790
 0.7680	47.6500
 0.7690	47.7090
 0.7700	47.7650
 0.7710	47.8250
 0.7720	47.8800
 0.7730	47.9310
 0.7740	47.9820
 0.7750	48.0340
 0.7760	48.0790
 0.7770	48.1210
 0.7780	48.1620
 0.7790	48.2030
 0.7800	48.2420
 0.7810	48.2850
 0.7820	48.3290
 0.7830	48.3640
 0.7840	48.4000
 0.7850	48.4330
 0.7860	48.4650
 0.7870	48.5060
 0.7880	48.5400
 0.7890	48.5710
 0.7900	48.6050
 0.7910	48.6370
 0.7920	48.6650
 0.7930	48.6910
 0.7940	48.7220
 0.7950	48.7520
 0.7960	48.7790
 0.7970	48.8050
 0.7980	48.8290
 0.7990	48.8570
 0.8000	48.8840
 0.8010	48.9060
 0.8020	48.9230
 0.8030	48.9430
 0.8040	48.9630
 0.8050	48.9780
 0.8060	48.9980
 0.8070	49.0170
 0.8080	49.0340
 0.8090	49.0490
 0.8100	49.0640
 0.8110	49.0780
 0.8120	49.0940
 0.8130	49.1100
 0.8140	49.1190
 0.8150	49.1270
 0.8160	49.1420
 0.8170	49.1550
 0.8180	49.1690
 0.8190	49.1820
 0.8200	49.1890
 0.8210	49.1960
 0.8220	49.2110
 0.8230	49.2270
 0.8240	49.2280
 0.8250	49.2350
 0.8260	49.2410
 0.8270	49.2430
 0.8280	49.2490
 0.8290	49.2590
 0.8300	49.2640
 0.8310	49.2620
 0.8320	49.2650
 0.8330	49.2660
 0.8340	49.2710
 0.8350	49.2860
 0.8360	49.2930
 0.8370	49.3000
 0.8380	49.3110
 0.8390	49.3220
 0.8400	49.3310
 0.8410	49.3440
 0.8420	49.3590
 0.8430	49.3700
 0.8440	49.3820
 0.8450	49.3970
 0.8460	49.4110
 0.8470	49.4180
 0.8480	49.4320
 0.8490	49.4480
 0.8500	49.4590
 0.8510	49.4720
 0.8520	49.4820
 0.8530	49.4950
 0.8540	49.5180
 0.8550	49.5300
 0.8560	49.5400
 0.8570	49.5540
 0.8580	49.5700
 0.8590	49.5840
 0.8600	49.5940
 0.8610	49.6010
 0.8620	49.6120
 0.8630	49.6210
 0.8640	49.6340
 0.8650	49.6530
 0.8660	49.6600
 0.8670	49.6740
 0.8680	49.6900
 0.8690	49.6990
 0.8700	49.7130
 0.8710	49.7300
 0.8720	49.7450
 0.8730	49.7530
 0.8740	49.7650
 0.8750	49.7720
 0.8760	49.7770
 0.8770	49.7930
 0.8780	49.8060
 0.8790	49.8160
 0.8800	49.8240
 0.8810	49.8310
 0.8820	49.8450
 0.8830	49.8530
 0.8840	49.8510
 0.8850	49.8660
 0.8860	49.8740
 0.8870	49.8770
 0.8880	49.8850
 0.8890	49.8980
 0.8900	49.9020
 0.8910	49.9010
 0.8920	49.9040
 0.8930	49.9100
 0.8940	49.9120
 0.8950	49.9130
 0.8960	49.9130
 0.8970	49.9120
 0.8980	49.9190
 0.8990	49.9290
 0.9000	49.9250
 0.9010	49.9210
 0.9020	49.9220
 0.9030	49.9240
 0.9040	49.9210
 0.9050	49.9260
 0.9060	49.9340
 0.9070	49.9380
 0.9080	49.9340
 0.9090	49.9270
 0.9100	49.9280
 0.9110	49.9390
 0.9120	49.9420
 0.9130	49.9350
 0.9140	49.9320
 0.9150	49.9440
 0.9160	49.9400
 0.9170	49.9320
 0.9180	49.9210
 0.9190	49.9090
 0.9200	49.8980
 0.9210	49.8940
 0.9220	49.8890
 0.9230	49.8690
 0.9240	49.8570
 0.9250	49.8460
 0.9260	49.8300
 0.9270	49.8100
 0.9280	49.7790
 0.9290	49.7560
 0.9300	49.7410
 0.9310	49.7110
 0.9320	49.6690
 0.9330	49.6310
 0.9340	49.6010
 0.9350	49.5650
 0.9360	49.5250
 0.9370	49.4770
 0.9380	49.4260
 0.9390	49.3960
 0.9400	49.3490
 0.9410	49.2890
 0.9420	49.2250
 0.9430	49.1610
 0.9440	49.0800
 0.9450	49.0040
 0.9460	48.9410
 0.9470	48.8660
 0.9480	48.7740
 0.9490	48.6770
 0.9500	48.5830
 0.9510	48.4660
 0.9520	48.3470
 0.9530	48.2190
 0.9540	48.0810
 0.9550	47.9600
 0.9560	47.8410
 0.9570	47.7210
 0.9580	47.6050
 0.9590	47.4910
 0.9600	47.3830
 0.9610	47.2910
 0.9620	47.2160
 0.9630	47.1280
 0.9640	47.0670
 0.9650	47.0190
 0.9660	46.9580
 0.9670	46.9060
 0.9680	46.8700
 0.9690	46.8370
 0.9700	46.7910
 0.9710	46.7570
 0.9720	46.7330
 0.9730	46.7140
 0.9740	46.6920
 0.9750	46.6620
 0.9760	46.6420
 0.9770	46.6390
 0.9780	46.6450
 0.9790	46.6350
 0.9800	46.6210
 0.9810	46.6180
 0.9820	46.6310
 0.9830	46.6420
 0.9840	46.6470
 0.9850	46.6590
 0.9860	46.6900
 0.9870	46.7050
 0.9880	46.7440
 0.9890	46.7840
 0.9900	46.7900
 0.9910	46.8460
 0.9920	46.9270
 0.9930	47.0080
 0.9940	47.0880
 0.9950	47.1690
 0.9960	47.2500
 0.9970	47.3300
 0.9980	47.4110
 0.9990	47.4920
 1.0000	47.5720
 1.0010	47.6530
 1.0020	47.7330
 1.0030	47.8140
 1.0040	47.8950
 1.0050	47.9750
 1.0060	48.0560
 1.0070	48.1370
 1.0080	48.2170
 1.0090	48.2980
 1.0100	48.2980
 1.0110	48.3580
 1.0120	48.4150
 1.0130	48.4750
 1.0140	48.5300
 1.0150	48.5810
 1.0160	48.6330
 1.0170	48.6900
 1.0180	48.7480
 1.0190	48.8130
 1.0200	48.8770
 1.0210	48.9340
 1.0220	48.9950
 1.0230	49.0520
 1.0240	49.1060
 1.0250	49.1600
 1.0260	49.2110
 1.0270	49.2630
 1.0280	49.3130
 1.0290	49.3660
 1.0300	49.4210
 1.0310	49.4760
 1.0320	49.5320
 1.0330	49.5870
 1.0340	49.6310
 1.0350	49.6770
 1.0360	49.7200
 1.0370	49.7630
 1.0380	49.8100
 1.0390	49.8670
 1.0400	49.9130
 1.0410	49.9580
 1.0420	49.9980
 1.0430	50.0290
 1.0440	50.0670
 1.0450	50.1050
 1.0460	50.1410
 1.0470	50.1800
 1.0480	50.2180
 1.0490	50.2530
 1.0500	50.2880
 1.0510	50.3250
 1.0520	50.3590
 1.0530	50.3910
 1.0540	50.4220
 1.0550	50.4520
 1.0560	50.4770
 1.0570	50.5060
 1.0580	50.5370
 1.0590	50.5650
 1.0600	50.5920
 1.0610	50.6200
 1.0620	50.6460
 1.0630	50.6710
 1.0640	50.6950
 1.0650	50.7200
 1.0660	50.7420
 1.0670	50.7630
 1.0680	50.7830
 1.0690	50.8040
 1.0700	50.8220
 1.0710	50.8390
 1.0720	50.8520
 1.0730	50.8640
 1.0740	50.8740
 1.0750	50.8780
 1.0760	50.8850
 1.0770	50.8930
 1.0780	50.9000
 1.0790	50.9080
 1.0800	50.9150
 1.0810	50.9230
 1.0820	50.9290
 1.0830	50.9350
 1.0840	50.9370
 1.0850	50.9360
 1.0860	50.9300
 1.0870	50.9230
 1.0880	50.9120
 1.0890	50.9040
 1.0900	50.8970
 1.0910	50.8860
 1.0920	50.8750
 1.0930	50.8620
 1.0940	50.8440
 1.0950	50.8310
 1.0960	50.8220
 1.0970	50.8060
 1.0980	50.7880
 1.0990	50.7680
 1.1000	50.7420
 1.1010	50.7180
 1.1020	50.6950
 1.1030	50.6690
 1.1040	50.6440
 1.1050	50.6180
 1.1060	50.5900
 1.1070	50.5620
 1.1080	50.5320
 1.1090	50.5020
 1.1100	50.4670
 1.1110	50.4270
 1.1120	50.3880
 1.1130	50.3450
 1.1140	50.3000
 1.1150	50.2550
 1.1160	50.2050
 1.1170	50.1530
 1.1180	50.0950
 1.1190	50.0360
 1.1200	49.9690
 1.1210	49.8980
 1.1220	49.8180
 1.1230	49.7270
 1.1240	49.6300
 1.1250	49.5210
 1.1260	49.4030
 1.1270	49.2710
 1.1280	49.1320
 1.1290	48.9790
 1.1300	48.8150
 1.1310	48.6370
 1.1320	48.4470
 1.1330	48.2450
 1.1340	48.0290
 1.1350	47.8010
 1.1360	47.5610
 1.1370	47.3080
 1.1380	47.0450
 1.1390	46.7730
 1.1400	46.4940
 1.1410	46.2140
 1.1420	45.9290
 1.1430	45.6440
 1.1440	45.3630
 1.1450	45.0800
 1.1460	44.8070
 1.1470	44.5350
 1.1480	44.2750
 1.1490	44.0180
 1.1500	43.7810
 1.1510	43.5540
 1.1520	43.3410
 1.1530	43.1440
 1.1540	42.9600
 1.1550	42.7880
 1.1560	42.6300
 1.1570	42.4850
 1.1580	42.3510
 1.1590	42.2290
 1.1600	42.1170
 1.1610	42.0140
 1.1620	41.9190
 1.1630	41.8310
 1.1640	41.7480
 1.1650	41.6720
 1.1660	41.6040
 1.1670	41.5410
 1.1680	41.4860
 1.1690	41.4300
 1.1700	41.3780
 1.1710	41.3260
 1.1720	41.2770
 1.1730	41.2270
 1.1740	41.1800
 1.1750	41.1330
 1.1760	41.0860
 1.1770	41.0380
 1.1780	40.9880
 1.1790	40.9380
 1.1800	40.8880
 1.1810	40.8380
 1.1820	40.7880
 1.1830	40.7380
 1.1840	40.6870
 1.1850	40.6370
 1.1860	40.5890
 1.1870	40.5430
 1.1880	40.5010
 1.1890	40.4600
 1.1900	40.4230
 1.1910	40.3910
 1.1920	40.3610
 1.1930	40.3340
 1.1940	40.3100
 1.1950	40.2890
 1.1960	40.2700
 1.1970	40.2590
 1.1980	40.2520
 1.1990	40.2480
 1.2000	40.2500
 1.2010	40.2560
 1.2020	40.2640
 1.2030	40.2780
 1.2040	40.2960
 1.2050	40.3200
 1.2060	40.3490
 1.2070	40.3830
 1.2080	40.4220
 1.2090	40.4630
 1.2100	40.5060
 1.2110	40.5530
 1.2120	40.6030
 1.2130	40.6570
 1.2140	40.7180
 1.2150	40.7790
 1.2160	40.8440
 1.2170	40.9100
 1.2180	40.9780
 1.2190	41.0490
 1.2200	41.1230
 1.2210	41.1990
 1.2220	41.2750
 1.2230	41.3510
 1.2240	41.4280
 1.2250	41.5000
 1.2260	41.5730
 1.2270	41.6460
 1.2280	41.7160
 1.2290	41.7850
 1.2300	41.8520
 1.2310	41.9170
 1.2320	41.9800
 1.2330	42.0410
 1.2340	42.0990
 1.2350	42.1530
 1.2360	42.2080
 1.2370	42.2610
 1.2380	42.3150
 1.2390	42.3690
 1.2400	42.4210
 1.2410	42.4700
 1.2420	42.5150
 1.2430	42.5570
 1.2440	42.6000
 1.2450	42.6430
 1.2460	42.6840
 1.2470	42.7260
 1.2480	42.7640
 1.2490	42.8000
 1.2500	42.8350
 1.2510	42.8680
 1.2520	42.9000
 1.2530	42.9310
 1.2540	42.9600
 1.2550	42.9900
 1.2560	43.0170
 1.2570	43.0440
 1.2580	43.0700
 1.2590	43.0930
 1.2600	43.1130
 1.2610	43.1330
 1.2620	43.1500
 1.2630	43.1660
 1.2640	43.1820
 1.2650	43.1940
 1.2660	43.2040
 1.2670	43.2120
 1.2680	43.2180
 1.2690	43.2230
 1.2700	43.2260
 1.2710	43.2260
 1.2720	43.2250
 1.2730	43.2210
 1.2740	43.2140
 1.2750	43.2060
 1.2760	43.1940
 1.2770	43.1800
 1.2780	43.1640
 1.2790	43.1440
 1.2800	43.1220
 1.2810	43.0990
 1.2820	43.0730
 1.2830	43.0460
 1.2840	43.0180
 1.2850	42.9840
 1.2860	42.9490
 1.2870	42.9120
 1.2880	42.8720
 1.2890	42.8280
 1.2900	42.7830
 1.2910	42.7350
 1.2920	42.6830
 1.2930	42.6270
 1.2940	42.5700
 1.2950	42.5100
 1.2960	42.4460
 1.2970	42.3770
 1.2980	42.3040
 1.2990	42.2270
 1.3000	42.1490
 1.3010	42.0680
 1.3020	41.9790
 1.3030	41.8860
 1.3040	41.7900
 1.3050	41.6900
 1.3060	41.5840
 1.3070	41.4730
 1.3080	41.3600
 1.3090	41.2380
 1.3100	41.1120
 1.3110	40.9840
 1.3120	40.8480
 1.3130	40.7100
 1.3140	40.5660
 1.3150	40.4180
 1.3160	40.2650
 1.3170	40.1080
 1.3180	39.9450
 1.3190	39.7780
 1.3200	39.6060
 1.3210	39.4250
 1.3220	39.2420
 1.3230	39.0570
 1.3240	38.8690
 1.3250	38.6780
 1.3260	38.4830
 1.3270	38.2830
 1.3280	38.0800
 1.3290	37.8740
 1.3300	37.6670
 1.3310	37.4580
 1.3320	37.2480
 1.3330	37.0390
 1.3340	36.8310
 1.3350	36.6220
 1.3360	36.4130
 1.3370	36.2070
 1.3380	36.0010
 1.3390	35.7980
 1.3400	35.5970
 1.3410	35.3980
 1.3420	35.2020
 1.3430	35.0100
 1.3440	34.8200
 1.3450	34.6340
 1.3460	34.4510
 1.3470	34.2710
 1.3480	34.0930
 1.3490	33.9190
 1.3500	33.7490
 1.3510	33.5820
 1.3520	33.4160
 1.3530	33.2510
 1.3540	33.0860
 1.3550	32.9230
 1.3560	32.7620
 1.3570	32.6010
 1.3580	32.4420
 1.3590	32.2810
 1.3600	32.1160
 1.3610	31.9500
 1.3620	31.7790
 1.3630	31.6060
 1.3640	31.4280
 1.3650	31.2430
 1.3660	31.0520
 1.3670	30.8530
 1.3680	30.6450
 1.3690	30.4290
 1.3700	30.1990
 1.3710	29.9580
 1.3720	29.7020
 1.3730	29.4300
 1.3740	29.1460
 1.3750	28.8490
 1.3760	28.5320
 1.3770	28.1970
 1.3780	27.8410
 1.3790	27.4660
 1.3800	27.0740
 1.3810	26.6630
 1.3820	26.2410
 1.3830	25.8030
 1.3840	25.3540
 1.3850	24.8910
 1.3860	24.4210
 1.3870	23.9370
 1.3880	23.4550
 1.3890	22.9680
 1.3900	22.4760
 1.3910	21.9900
 1.3920	21.5050
 1.3930	21.0220
 1.3940	20.5480
 1.3950	20.0770
 1.3960	19.6170
 1.3970	19.1680
 1.3980	18.7300
 1.3990	18.3130
 1.4000	17.9080
 1.4010	17.5170
 1.4020	17.1460
 1.4030	16.7870
 1.4040	16.4440
 1.4050	16.1200
 1.4060	15.8110
 1.4070	15.5220
 1.4080	15.2490
 1.4090	14.9900
 1.4100	14.7470
 1.4110	14.5170
 1.4120	14.3020
 1.4130	14.1010
 1.4140	13.9130
 1.4150	13.7400
 1.4160	13.5780
 1.4170	13.4260
 1.4180	13.2850
 1.4190	13.1530
 1.4200	13.0290
 1.4210	12.9150
 1.4220	12.8090
 1.4230	12.7110
 1.4240	12.6210
 1.4250	12.5360
 1.4260	12.4590
 1.4270	12.3860
 1.4280	12.3190
 1.4290	12.2580
 1.4300	12.2000
 1.4310	12.1490
 1.4320	12.1040
 1.4330	12.0620
 1.4340	12.0250
 1.4350	11.9910
 1.4360	11.9610
 1.4370	11.9330
 1.4380	11.9100
 1.4390	11.8890
 1.4400	11.8720
 1.4410	11.8580
 1.4420	11.8450
 1.4430	11.8360
 1.4440	11.8290
 1.4450	11.8230
 1.4460	11.8190
 1.4470	11.8160
 1.4480	11.8150
 1.4490	11.8160
 1.4500	11.8200
 1.4510	11.8240
 1.4520	11.8290
 1.4530	11.8350
 1.4540	11.8430
 1.4550	11.8520
 1.4560	11.8630
 1.4570	11.8750
 1.4580	11.8890
 1.4590	11.9040
 1.4600	11.9230
 1.4610	11.9430
 1.4620	11.9670
 1.4630	11.9940
 1.4640	12.0230
 1.4650	12.0570
 1.4660	12.0920
 1.4670	12.1290
 1.4680	12.1690
 1.4690	12.2120
 1.4700	12.2580
 1.4710	12.3090
 1.4720	12.3610
 1.4730	12.4150
 1.4740	12.4720
 1.4750	12.5300
 1.4760	12.5920
 1.4770	12.6550
 1.4780	12.7210
 1.4790	12.7890
 1.4800	12.8580
 1.4810	12.9280
 1.4820	12.9990
 1.4830	13.0710
 1.4840	13.1450
 1.4850	13.2200
 1.4860	13.2960
 1.4870	13.3730
 1.4880	13.4500
 1.4890	13.5280
 1.4900	13.6060
 1.4910	13.6860
 1.4920	13.7660
 1.4930	13.8480
 1.4940	13.9290
 1.4950	14.0120
 1.4960	14.0950
 1.4970	14.1780
 1.4980	14.2600
 1.4990	14.3430
 1.5000	14.4260
 1.5010	14.5090
 1.5020	14.5930
 1.5030	14.6780
 1.5040	14.7620
 1.5050	14.8460
 1.5060	14.9310
 1.5070	15.0150
 1.5080	15.0990
 1.5090	15.1830
 1.5100	15.2670
 1.5110	15.3510
 1.5120	15.4360
 1.5130	15.5180
 1.5140	15.6000
 1.5150	15.6830
 1.5160	15.7640
 1.5170	15.8470
 1.5180	15.9290
 1.5190	16.0090
 1.5200	16.0890
 1.5210	16.1690
 1.5220	16.2500
 1.5230	16.3320
 1.5240	16.4130
 1.5250	16.4940
 1.5260	16.5710
 1.5270	16.6470
 1.5280	16.7240
 1.5290	16.8010
 1.5300	16.8790
 1.5310	16.9570
 1.5320	17.0320
 1.5330	17.1070
 1.5340	17.1810
 1.5350	17.2530
 1.5360	17.3270
 1.5370	17.3990
 1.5380	17.4710
 1.5390	17.5430
 1.5400	17.6150
 1.5410	17.6870
 1.5420	17.7590
 1.5430	17.8290
 1.5440	17.9000
 1.5450	17.9690
 1.5460	18.0380
 1.5470	18.1090
 1.5480	18.1780
 1.5490	18.2460
 1.5500	18.3150
 1.5510	18.3810
 1.5520	18.4470
 1.5530	18.5130
 1.5540	18.5770
 1.5550	18.6430
 1.5560	18.7080
 1.5570	18.7720
 1.5580	18.8350
 1.5590	18.8980
 1.5600	18.9620
 1.5610	19.0240
 1.5620	19.0850
 1.5630	19.1470
 1.5640	19.2070
 1.5650	19.2680
 1.5660	19.3300
 1.5670	19.3900
 1.5680	19.4490
 1.5690	19.5080
 1.5700	19.5660
 1.5710	19.6260
 1.5720	19.6850
 1.5730	19.7440
 1.5740	19.8020
 1.5750	19.8600
 1.5760	19.9170
 1.5770	19.9740
 1.5780	20.0310
 1.5790	20.0880
 1.5800	20.1460
 1.5810	20.2030
 1.5820	20.2590
 1.5830	20.3140
 1.5840	20.3700
 1.5850	20.4250
 1.5860	20.4810
 1.5870	20.5370
 1.5880	20.5920
 1.5890	20.6490
 1.5900	20.7060
 1.5910	20.7620
 1.5920	20.8200
 1.5930	20.8770
 1.5940	20.9340
 1.5950	20.9920
 1.5960	21.0480
 1.5970	21.1040
 1.5980	21.1620
 1.5990	21.2190
 1.6000	21.2770
 1.6010	21.3340
 1.6020	21.3890
 1.6030	21.4440
 1.6040	21.4980
 1.6050	21.5530
 1.6060	21.6090
 1.6070	21.6640
 1.6080	21.7190
 1.6090	21.7730
 1.6100	21.8260
 1.6110	21.8790
 1.6120	21.9310
 1.6130	21.9830
 1.6140	22.0330
 1.6150	22.0820
 1.6160	22.1300
 1.6170	22.1770
 1.6180	22.2230
 1.6190	22.2680
 1.6200	22.3130
 1.6210	22.3570
 1.6220	22.4010
 1.6230	22.4440
 1.6240	22.4860
 1.6250	22.5260
 1.6260	22.5640
 1.6270	22.6000
 1.6280	22.6380
 1.6290	22.6720
 1.6300	22.7060
 1.6310	22.7390
 1.6320	22.7670
 1.6330	22.7970
 1.6340	22.8280
 1.6350	22.8580
 1.6360	22.8870
 1.6370	22.9160
 1.6380	22.9420
 1.6390	22.9690
 1.6400	22.9960
 1.6410	23.0220
 1.6420	23.0490
 1.6430	23.0730
 1.6440	23.0970
 1.6450	23.1180
 1.6460	23.1350
 1.6470	23.1510
 1.6480	23.1640
 1.6490	23.1730
 1.6500	23.1810
 1.6510	23.1850
 1.6520	23.1860
 1.6530	23.1860
 1.6540	23.1830
 1.6550	23.1810
 1.6560	23.1770
 1.6570	23.1720
 1.6580	23.1670
 1.6590	23.1600
 1.6600	23.1510
 1.6610	23.1410
 1.6620	23.1320
 1.6630	23.1230
 1.6640	23.1140
 1.6650	23.1060
 1.6660	23.0970
 1.6670	23.0870
 1.6680	23.0780
 1.6690	23.0680
 1.6700	23.0570
 1.6710	23.0450
 1.6720	23.0340
 1.6730	23.0210
 1.6740	23.0060
 1.6750	22.9890
 1.6760	22.9710
 1.6770	22.9520
 1.6780	22.9290
 1.6790	22.9040
 1.6800	22.8760
 1.6810	22.8440
 1.6820	22.8110
 1.6830	22.7750
 1.6840	22.7360
 1.6850	22.6950
 1.6860	22.6490
 1.6870	22.5990
 1.6880	22.5490
 1.6890	22.4960
 1.6900	22.4410
 1.6910	22.3850
 1.6920	22.3290
 1.6930	22.2710
 1.6940	22.2140
 1.6950	22.1560
 1.6960	22.0990
 1.6970	22.0410
 1.6980	21.9840
 1.6990	21.9280
 1.7000	21.8720
 1.7010	21.8170
 1.7020	21.7610
 1.7030	21.7060
 1.7040	21.6500
 1.7050	21.5910
 1.7060	21.5350
 1.7070	21.4800
 1.7080	21.4250
 1.7090	21.3710
 1.7100	21.3180
 1.7110	21.2640
 1.7120	21.2120
 1.7130	21.1610
 1.7140	21.1110
 1.7150	21.0610
 1.7160	21.0160
 1.7170	20.9740
 1.7180	20.9320
 1.7190	20.8930
 1.7200	20.8550
 1.7210	20.8180
 1.7220	20.7820
 1.7230	20.7470
 1.7240	20.7130
 1.7250	20.6810
 1.7260	20.6530
 1.7270	20.6270
 1.7280	20.6040
 1.7290	20.5800
 1.7300	20.5570
 1.7310	20.5360
 1.7320	20.5170
 1.7330	20.4970
 1.7340	20.4790
 1.7350	20.4580
 1.7360	20.4360
 1.7370	20.4110
 1.7380	20.3850
 1.7390	20.3550
 1.7400	20.3230
 1.7410	20.2870
 1.7420	20.2470
 1.7430	20.2050
 1.7440	20.1600
 1.7450	20.1150
 1.7460	20.0670
 1.7470	20.0180
 1.7480	19.9670
 1.7490	19.9190
 1.7500	19.8730
 1.7510	19.8270
 1.7520	19.7830
 1.7530	19.7400
 1.7540	19.6950
 1.7550	19.6550
 1.7560	19.6170
 1.7570	19.5810
 1.7580	19.5460
 1.7590	19.5140
 1.7600	19.4830
 1.7610	19.4540
 1.7620	19.4260
 1.7630	19.3990
 1.7640	19.3740
 1.7650	19.3520
 1.7660	19.3300
 1.7670	19.3070
 1.7680	19.2870
 1.7690	19.2690
 1.7700	19.2500
 1.7710	19.2310
 1.7720	19.2140
 1.7730	19.1950
 1.7740	19.1790
 1.7750	19.1650
 1.7760	19.1520
 1.7770	19.1390
 1.7780	19.1270
 1.7790	19.1140
 1.7800	19.1050
 1.7810	19.0960
 1.7820	19.0910
 1.7830	19.0890
 1.7840	19.0880
 1.7850	19.0900
 1.7860	19.0920
 1.7870	19.0950
 1.7880	19.1000
 1.7890	19.1050
 1.7900	19.1090
 1.7910	19.1150
 1.7920	19.1200
 1.7930	19.1270
 1.7940	19.1370
 1.7950	19.1480
 1.7960	19.1620
 1.7970	19.1740
 1.7980	19.1870
 1.7990	19.1990
 1.8000	19.2090
 1.8010	19.2210
 1.8020	19.2350
 1.8030	19.2470
 1.8040	19.2590
 1.8050	19.2720
 1.8060	19.2840
 1.8070	19.2950
 1.8080	19.3060
 1.8090	19.3170
 1.8100	19.3270
 1.8110	19.3370
 1.8120	19.3490
 1.8130	19.3580
 1.8140	19.3640
 1.8150	19.3720
 1.8160	19.3790
 1.8170	19.3840
 1.8180	19.3910
 1.8190	19.3970
 1.8200	19.4020
 1.8210	19.4090
 1.8220	19.4150
 1.8230	19.4190
 1.8240	19.4220
 1.8250	19.4230
 1.8260	19.4250
 1.8270	19.3990
 1.8280	19.3730
 1.8290	19.3470
 1.8300	19.3200
 1.8310	19.2940
 1.8320	19.2680
 1.8330	19.2420
 1.8340	19.2160
 1.8350	19.2160
 1.8360	19.1930
 1.8370	19.1690
 1.8380	19.1410
 1.8390	19.1090
 1.8400	19.0740
 1.8410	19.0350
 1.8420	18.9920
 1.8430	18.9450
 1.8440	18.8940
 1.8450	18.8400
 1.8460	18.7800
 1.8470	18.7120
 1.8480	18.6390
 1.8490	18.5570
 1.8500	18.4660
 1.8510	18.3680
 1.8520	18.2620
 1.8530	18.1460
 1.8540	18.0240
 1.8550	17.8930
 1.8560	17.7530
 1.8570	17.6030
 1.8580	17.4440
 1.8590	17.2750
 1.8600	17.0970
 1.8610	16.9060
 1.8620	16.7050
 1.8630	16.4960
 1.8640	16.2750
 1.8650	16.0420
 1.8660	15.7980
 1.8670	15.5390
 1.8680	15.2680
 1.8690	14.9900
 1.8700	14.7010
 1.8710	14.4020
 1.8720	14.0950
 1.8730	13.7820
 1.8740	13.4620
 1.8750	13.1380
 1.8760	12.8090
 1.8770	12.4790
 1.8780	12.1460
 1.8790	11.8140
 1.8800	11.4860
 1.8810	11.1610
 1.8820	10.8350
 1.8830	10.5120
 1.8840	10.1920
 1.8850	 9.8730
 1.8860	 9.5610
 1.8870	 9.2580
 1.8880	 8.9640
 1.8890	 8.6790
 1.8900	 8.4080
 1.8910	 8.1480
 1.8920	 7.9000
 1.8930	 7.6630
 1.8940	 7.4370
 1.8950	 7.2210
 1.8960	 7.0160
 1.8970	 6.8260
 1.8980	 6.6500
 1.8990	 6.4860
 1.9000	 6.3320
 1.9010	 6.1930
 1.9020	 6.0610
 1.9030	 5.9390
 1.9040	 5.8280
 1.9050	 5.7280
 1.9060	 5.6360
 1.9070	 5.5560
 1.9080	 5.4830
 1.9090	 5.4160
 1.9100	 5.3550
 1.9110	 5.2980
 1.9120	 5.2470
 1.9130	 5.1990
 1.9140	 5.1570
 1.9150	 5.1170
 1.9160	 5.0800
 1.9170	 5.0500
 1.9180	 5.0230
 1.9190	 5.0000
 1.9200	 4.9810
 1.9210	 4.9600
 1.9220	 4.9430
 1.9230	 4.9280
 1.9240	 4.9160
 1.9250	 4.9070
 1.9260	 4.9020
 1.9270	 4.9010
 1.9280	 4.8990
 1.9290	 4.8980
 1.9300	 4.9000
 1.9310	 4.9040
 1.9320	 4.9110
 1.9330	 4.9190
 1.9340	 4.9290
 1.9350	 4.9390
 1.9360	 4.9470
 1.9370	 4.9580
 1.9380	 4.9700
 1.9390	 4.9840
 1.9400	 4.9970
 1.9410	 5.0150
 1.9420	 5.0330
 1.9430	 5.0510
 1.9440	 5.0710
 1.9450	 5.0930
 1.9460	 5.1150
 1.9470	 5.1380
 1.9480	 5.1610
 1.9490	 5.1840
 1.9500	 5.2070
 1.9510	 5.2300
 1.9520	 5.2580
 1.9530	 5.2860
 1.9540	 5.3150
 1.9550	 5.3430
 1.9560	 5.3700
 1.9570	 5.3980
 1.9580	 5.4250
 1.9590	 5.4550
 1.9600	 5.4860
 1.9610	 5.5180
 1.9620	 5.5530
 1.9630	 5.5890
 1.9640	 5.6220
 1.9650	 5.6560
 1.9660	 5.6910
 1.9670	 5.7240
 1.9680	 5.7580
 1.9690	 5.7940
 1.9700	 5.8300
 1.9710	 5.8650
 1.9720	 5.9010
 1.9730	 5.9370
 1.9740	 5.9750
 1.9750	 6.0140
 1.9760	 6.0520
 1.9770	 6.0910
 1.9780	 6.1310
 1.9790	 6.1690
 1.9800	 6.2080
 1.9810	 6.2470
 1.9820	 6.2860
 1.9830	 6.3250
 1.9840	 6.3640
 1.9850	 6.4020
 1.9860	 6.4400
 1.9870	 6.4800
 1.9880	 6.5170
 1.9890	 6.5550
 1.9900	 6.5970
 1.9910	 6.6380
 1.9920	 6.6800
 1.9930	 6.7250
 1.9940	 6.7670
 1.9950	 6.8060
 1.9960	 6.8470
 1.9970	 6.8900
 1.9980	 6.9310
 1.9990	 6.9720
 2.0000	 7.0130
 2.0010	 7.0530
 2.0020	 7.0940
 2.0030	 7.1340
 2.0040	 7.1740
 2.0050	 7.2150
 2.0060	 7.2550
 2.0070	 7.2950
 2.0080	 7.3380
 2.0090	 7.3780
 2.0100	 7.4160
 2.0110	 7.4560
 2.0120	 7.4950
 2.0130	 7.5330
 2.0140	 7.5720
 2.0150	 7.6120
 2.0160	 7.6490
 2.0170	 7.6880
 2.0180	 7.7250
 2.0190	 7.7590
 2.0200	 7.7940
 2.0210	 7.8280
 2.0220	 7.8620
 2.0230	 7.8990
 2.0240	 7.9320
 2.0250	 7.9630
 2.0260	 7.9960
 2.0270	 8.0290
 2.0280	 8.0590
 2.0290	 8.0870
 2.0300	 8.1170
 2.0310	 8.1440
 2.0320	 8.1690
 2.0330	 8.1940
 2.0340	 8.2190
 2.0350	 8.2430
 2.0360	 8.2650
 2.0370	 8.2890
 2.0380	 8.3180
 2.0390	 8.3430
 2.0400	 8.3680
 2.0410	 8.3910
 2.0420	 8.4130
 2.0430	 8.4340
 2.0440	 8.4550
 2.0450	 8.4760
 2.0460	 8.4970
 2.0470	 8.5170
 2.0480	 8.5360
 2.0490	 8.5530
 2.0500	 8.5710
 2.0510	 8.5870
 2.0520	 8.6060
 2.0530	 8.6260
 2.0540	 8.6440
 2.0550	 8.6620
 2.0560	 8.6810
 2.0570	 8.6980
 2.0580	 8.7160
 2.0590	 8.7340
 2.0600	 8.7540
 2.0610	 8.7720
 2.0620	 8.7890
 2.0630	 8.8070
 2.0640	 8.8250
 2.0650	 8.8430
 2.0660	 8.8610
 2.0670	 8.8780
 2.0680	 8.8960
 2.0690	 8.9120
 2.0700	 8.9290
 2.0710	 8.9460
 2.0720	 8.9620
 2.0730	 8.9780
 2.0740	 8.9960
 2.0750	 9.0150
 2.0760	 9.0350
 2.0770	 9.0580
 2.0780	 9.0780
 2.0790	 9.0980
 2.0800	 9.1170
 2.0810	 9.1320
 2.0820	 9.1500
 2.0830	 9.1680
 2.0840	 9.1870
 2.0850	 9.2080
 2.0860	 9.2270
 2.0870	 9.2450
 2.0880	 9.2630
 2.0890	 9.2810
 2.0900	 9.2990
 2.0910	 9.3190
 2.0920	 9.3400
 2.0930	 9.3600
 2.0940	 9.3810
 2.0950	 9.4010
 2.0960	 9.4190
 2.0970	 9.4380
 2.0980	 9.4570
 2.0990	 9.4770
 2.1000	 9.4980
 2.1010	 9.5180
 2.1020	 9.5400
 2.1030	 9.5590
 2.1040	 9.5750
 2.1050	 9.5960
 2.1060	 9.6150
 2.1070	 9.6360
 2.1080	 9.6560
 2.1090	 9.6780
 2.1100	 9.6980
 2.1110	 9.7160
 2.1120	 9.7360
 2.1130	 9.7560
 2.1140	 9.7770
 2.1150	 9.7990
 2.1160	 9.8200
 2.1170	 9.8400
 2.1180	 9.8620
 2.1190	 9.8860
 2.1200	 9.9060
 2.1210	 9.9260
 2.1220	 9.9470
 2.1230	 9.9670
 2.1240	 9.9850
 2.1250	10.0040
 2.1260	10.0240
 2.1270	10.0450
 2.1280	10.0640
 2.1290	10.0840
 2.1300	10.1070
 2.1310	10.1270
 2.1320	10.1460
 2.1330	10.1650
 2.1340	10.1830
 2.1350	10.2020
 2.1360	10.2210
 2.1370	10.2410
 2.1380	10.2600
 2.1390	10.2810
 2.1400	10.3070
 2.1410	10.3280
 2.1420	10.3500
 2.1430	10.3730
 2.1440	10.3940
 2.1450	10.4120
 2.1460	10.4330
 2.1470	10.4550
 2.1480	10.4760
 2.1490	10.4960
 2.1500	10.5160
 2.1510	10.5360
 2.1520	10.5580
 2.1530	10.5830
 2.1540	10.6050
 2.1550	10.6280
 2.1560	10.6500
 2.1570	10.6700
 2.1580	10.6910
 2.1590	10.7130
 2.1600	10.7340
 2.1610	10.7520
 2.1620	10.7730
 2.1630	10.7940
 2.1640	10.8150
 2.1650	10.8360
 2.1660	10.8580
 2.1670	10.8770
 2.1680	10.8920
 2.1690	10.9110
 2.1700	10.9310
 2.1710	10.9500
 2.1720	10.9690
 2.1730	10.9920
 2.1740	11.0170
 2.1750	11.0400
 2.1760	11.0680
 2.1770	11.0900
 2.1780	11.1060
 2.1790	11.1240
 2.1800	11.1410
 2.1810	11.1590
 2.1820	11.1800
 2.1830	11.2000
 2.1840	11.2200
 2.1850	11.2420
 2.1860	11.2640
 2.1870	11.2870
 2.1880	11.3080
 2.1890	11.3290
 2.1900	11.3480
 2.1910	11.3620
 2.1920	11.3790
 2.1930	11.3980
 2.1940	11.4150
 2.1950	11.4340
 2.1960	11.4500
 2.1970	11.4630
 2.1980	11.4780
 2.1990	11.4900
 2.2000	11.5040
 2.2010	11.5190
 2.2020	11.5350
 2.2030	11.5510
 2.2040	11.5670
 2.2050	11.5840
 2.2060	11.6020
 2.2070	11.6160
 2.2080	11.6300
 2.2090	11.6390
 2.2100	11.6430
 2.2110	11.6510
 2.2120	11.6580
 2.2130	11.6640
 2.2140	11.6720
 2.2150	11.6760
 2.2160	11.6750
 2.2170	11.6750
 2.2180	11.6770
 2.2190	11.6740
 2.2200	11.6690
 2.2210	11.6660
 2.2220	11.6620
 2.2230	11.6560
 2.2240	11.6520
 2.2250	11.6440
 2.2260	11.6340
 2.2270	11.6180
 2.2280	11.5970
 2.2290	11.5770
 2.2300	11.5540
 2.2310	11.5280
 2.2320	11.5010
 2.2330	11.4780
 2.2340	11.4490
 2.2350	11.4150
 2.2360	11.3800
 2.2370	11.3420
 2.2380	11.3030
 2.2390	11.2590
 2.2400	11.2170
 2.2410	11.1730
 2.2420	11.1280
 2.2430	11.0820
 2.2440	11.0350
 2.2450	10.9870
 2.2460	10.9370
 2.2470	10.8860
 2.2480	10.8340
 2.2490	10.7840
 2.2500	10.7270
 2.2510	10.6660
 2.2520	10.6060
 2.2530	10.5440
 2.2540	10.4830
 2.2550	10.4240
 2.2560	10.3640
 2.2570	10.3000
 2.2580	10.2390
 2.2590	10.1810
 2.2600	10.1220
 2.2610	10.0620
 2.2620	10.0060
 2.2630	 9.9460
 2.2640	 9.8850
 2.2650	 9.8320
 2.2660	 9.7750
 2.2670	 9.7200
 2.2680	 9.6680
 2.2690	 9.6180
 2.2700	 9.5640
 2.2710	 9.5200
 2.2720	 9.4820
 2.2730	 9.4440
 2.2740	 9.4100
 2.2750	 9.3760
 2.2760	 9.3430
 2.2770	 9.3100
 2.2780	 9.2760
 2.2790	 9.2460
 2.2800	 9.2190
 2.2810	 9.1900
 2.2820	 9.1640
 2.2830	 9.1370
 2.2840	 9.1070
 2.2850	 9.0780
 2.2860	 9.0520
 2.2870	 9.0220
 2.2880	 8.9900
 2.2890	 8.9550
 2.2900	 8.9150
 2.2910	 8.8780
 2.2920	 8.8440
 2.2930	 8.8040
 2.2940	 8.7610
 2.2950	 8.7190
 2.2960	 8.6680
 2.2970	 8.6270
 2.2980	 8.5950
 2.2990	 8.5620
 2.3000	 8.5320
 2.3010	 8.5020
 2.3020	 8.4700
 2.3030	 8.4350
 2.3040	 8.3970
 2.3050	 8.3680
 2.3060	 8.3410
 2.3070	 8.3180
 2.3080	 8.3050
 2.3090	 8.2920
 2.3100	 8.2790
 2.3110	 8.2760
 2.3120	 8.2710
 2.3130	 8.2660
 2.3140	 8.2640
 2.3150	 8.2620
 2.3160	 8.2640
 2.3170	 8.2740
 2.3180	 8.2740
 2.3190	 8.2750
 2.3200	 8.2700
 2.3210	 8.2550
 2.3220	 8.2460
 2.3230	 8.2360
 2.3240	 8.2260
 2.3250	 8.2160
 2.3260	 8.2060
 2.3270	 8.1990
 2.3280	 8.1820
 2.3290	 8.1620
 2.3300	 8.1410
 2.3310	 8.1090
 2.3320	 8.0840
 2.3330	 8.0620
 2.3340	 8.0360
 2.3350	 8.0100
 2.3360	 7.9850
 2.3370	 7.9580
 2.3380	 7.9310
 2.3390	 7.9030
 2.3400	 7.8810
 2.3410	 7.8630
 2.3420	 7.8400
 2.3430	 7.8170
 2.3440	 7.7950
 2.3450	 7.7650
 2.3460	 7.7430
 2.3470	 7.7350
 2.3480	 7.7140
 2.3490	 7.6820
 2.3500	 7.6610
 2.3510	 7.6370
 2.3520	 7.6160
 2.3530	 7.6030
 2.3540	 7.5950
 2.3550	 7.5830
 2.3560	 7.5740
 2.3570	 7.5710
 2.3580	 7.5630
 2.3590	 7.5510
 2.3600	 7.5370
 2.3610	 7.5170
 2.3620	 7.4980
 2.3630	 7.4810
 2.3640	 7.4720
 2.3650	 7.4670
 2.3660	 7.4560
 2.3670	 7.4440
 2.3680	 7.4240
 2.3690	 7.3980
 2.3700	 7.3780
 2.3710	 7.3570
 2.3720	 7.3360
 2.3730	 7.3210
 2.3740	 7.3020
 2.3750	 7.2840
 2.3760	 7.2620
 2.3770	 7.2360
 2.3780	 7.2110
 2.3790	 7.1790
 2.3800	 7.1560
 2.3810	 7.1460
 2.3820	 7.1340
 2.3830	 7.1230
 2.3840	 7.1100
 2.3850	 7.0900
 2.3860	 7.0690
 2.3870	 7.0440
 2.3880	 7.0230
 2.3890	 7.0040
 2.3900	 6.9820
 2.3910	 6.9760
 2.3920	 6.9720
 2.3930	 6.9530
 2.3940	 6.9310
 2.3950	 6.9020
 2.3960	 6.8710
 2.3970	 6.8480
 2.3980	 6.8330
 2.3990	 6.8190
 2.4000	 6.8110
 2.4010	 6.7970
 2.4020	 6.7700
 2.4030	 6.7440
 2.4040	 6.7060
 2.4050	 6.6790
 2.4060	 6.6640
 2.4070	 6.6440
 2.4080	 6.6240
 2.4090	 6.5940
 2.4100	 6.5680
 2.4110	 6.5470
 2.4120	 6.5290
 2.4130	 6.5170
 2.4140	 6.4920
 2.4150	 6.4550
 2.4160	 6.4220
 2.4170	 6.3960
 2.4180	 6.3820
 2.4190	 6.3810
 2.4200	 6.3620
 2.4210	 6.3300
 2.4220	 6.2990
 2.4230	 6.2590
 2.4240	 6.2280
 2.4250	 6.2060
 2.4260	 6.1870
 2.4270	 6.1740
 2.4280	 6.1590
 2.4290	 6.1410
 2.4300	 6.1090
 2.4310	 6.0540
 2.4320	 6.0050
 2.4330	 5.9680
 2.4340	 5.9330
 2.4350	 5.9070
 2.4360	 5.8930
 2.4370	 5.8750
 2.4380	 5.8460
 2.4390	 5.8270
 2.4400	 5.8000
 2.4410	 5.7520
 2.4420	 5.7170
 2.4430	 5.6810
 2.4440	 5.6510
 2.4450	 5.6480
 2.4460	 5.6400
 2.4470	 5.6240
 2.4480	 5.6090
 2.4490	 5.5790
 2.4500	 5.5390
 2.4510	 5.5020
 2.4520	 5.4580
 2.4530	 5.4190
 2.4540	 5.3990
 2.4550	 5.3840
 2.4560	 5.3730
 2.4570	 5.3540
 2.4580	 5.3230
 2.4590	 5.2910
 2.4600	 5.2480
 2.4610	 5.2240
 2.4620	 5.2130
 2.4630	 5.2030
 2.4640	 5.2020
 2.4650	 5.1790
 2.4660	 5.1430
 2.4670	 5.1120
 2.4680	 5.0840
 2.4690	 5.0820
 2.4700	 5.0690
 2.4710	 5.0620
 2.4720	 5.0360
 2.4730	 4.9870
 2.4740	 4.9600
 2.4750	 4.9320
 2.4760	 4.9250
 2.4770	 4.9480
 2.4780	 4.9420
 2.4790	 4.9310
 2.4800	 4.9050
 2.4810	 4.8580
 2.4820	 4.8020
 2.4830	 4.7760
 2.4840	 4.8000
 2.4850	 4.8090
 2.4860	 4.8470
 2.4870	 4.8730
 2.4880	 4.8270
 2.4890	 4.7750
 2.4900	 4.7300
 2.4910	 4.7200
 2.4920	 4.7520
 2.4930	 4.7910
 2.4940	 4.8280
 2.4950	 4.7860
 2.4960	 4.7310
 2.4970	 4.7350
 2.4980	 4.7500
 2.4990	 4.7890
 2.5000	 4.8130
