Name: Tipuana tipu
Type: vegetation
Class: Tree
Genus: Tipuana
Species: tipu
Sample No.: JPL235
Owner: JPL
Wavelength Range: TIR
Origin: 34.13144; -118.1116; WGS84
Collection Date: 10/6/2016
Description: Samples were collected at the Huntington Garden in San Marino California as part of a JPL Subcontract studying HyTES imagery. Samples were taken to JPL and processed within 48 hours of collection. The same leaves were processed in the Nicolet and then measured using the ASD.
Measurement: Hemispherical reflectance
First Column: X
Second Column: Y
X Units: Wavelength (micrometer)
Y Units: Reflectance (percentage)
First X Value: 2.501
Last X Value: 15.387
Number of X Values: 1737
Additional Information: vegetation.tree.tipuana.tipu.tir.jpl235.jpl.nicolet.ancillary.txt

 2.5010	 4.6420
 2.5030	 4.6410
 2.5040	 4.6810
 2.5050	 4.6460
 2.5060	 4.5660
 2.5070	 4.4990
 2.5090	 4.5250
 2.5100	 4.5120
 2.5110	 4.5050
 2.5120	 4.4430
 2.5140	 4.4590
 2.5150	 4.4820
 2.5160	 4.5080
 2.5170	 4.4500
 2.5180	 4.4280
 2.5200	 4.4400
 2.5210	 4.4870
 2.5220	 4.3990
 2.5230	 4.3600
 2.5250	 4.2990
 2.5260	 4.3300
 2.5270	 4.3250
 2.5280	 4.3780
 2.5300	 4.3910
 2.5310	 4.3860
 2.5320	 4.3100
 2.5330	 4.3130
 2.5340	 4.3140
 2.5360	 4.2710
 2.5370	 4.2420
 2.5380	 4.3070
 2.5390	 4.2850
 2.5410	 4.3630
 2.5420	 4.3520
 2.5430	 4.3010
 2.5440	 4.3140
 2.5460	 4.3980
 2.5470	 4.3220
 2.5480	 4.2480
 2.5490	 4.2190
 2.5510	 4.2520
 2.5520	 4.2340
 2.5530	 4.2290
 2.5540	 4.3240
 2.5560	 4.4230
 2.5570	 4.4280
 2.5580	 4.4790
 2.5590	 4.3810
 2.5610	 4.1530
 2.5620	 3.9770
 2.5630	 4.0310
 2.5650	 4.0590
 2.5660	 4.2290
 2.5670	 4.3300
 2.5680	 4.2820
 2.5700	 4.0880
 2.5710	 4.1750
 2.5720	 4.2820
 2.5730	 4.1020
 2.5750	 4.1020
 2.5760	 4.1470
 2.5770	 4.0250
 2.5790	 4.2220
 2.5800	 4.2750
 2.5810	 4.0820
 2.5820	 4.0400
 2.5840	 3.9180
 2.5850	 3.8720
 2.5860	 4.0360
 2.5880	 3.8850
 2.5890	 3.9070
 2.5900	 3.9900
 2.5910	 4.1090
 2.5930	 3.9930
 2.5940	 3.5800
 2.5950	 3.1160
 2.5970	 3.4300
 2.5980	 3.8400
 2.5990	 4.0320
 2.6010	 3.9320
 2.6020	 3.8140
 2.6030	 3.7150
 2.6040	 3.5510
 2.6060	 3.2970
 2.6070	 3.4380
 2.6080	 3.6400
 2.6100	 3.6330
 2.6110	 3.5800
 2.6120	 3.7010
 2.6140	 3.6760
 2.6150	 3.6190
 2.6160	 3.2830
 2.6180	 3.1080
 2.6190	 3.2660
 2.6200	 3.1690
 2.6220	 3.2130
 2.6230	 3.5410
 2.6240	 3.5450
 2.6260	 3.4080
 2.6270	 3.1470
 2.6280	 3.1810
 2.6300	 3.0390
 2.6310	 2.8330
 2.6320	 3.0040
 2.6340	 3.1210
 2.6350	 3.0610
 2.6360	 3.1320
 2.6380	 3.1260
 2.6390	 3.1470
 2.6400	 3.0830
 2.6420	 2.9990
 2.6430	 2.9200
 2.6440	 2.9300
 2.6460	 2.8050
 2.6470	 2.8040
 2.6480	 2.8210
 2.6500	 2.8190
 2.6510	 2.7110
 2.6520	 2.6160
 2.6540	 2.5860
 2.6550	 2.5770
 2.6570	 2.5260
 2.6580	 2.5830
 2.6590	 2.4390
 2.6610	 2.3650
 2.6620	 2.3710
 2.6630	 2.3700
 2.6650	 2.1400
 2.6660	 2.0340
 2.6670	 2.0030
 2.6690	 2.0730
 2.6700	 1.8780
 2.6720	 1.8740
 2.6730	 2.0770
 2.6740	 2.1240
 2.6760	 1.9960
 2.6770	 1.9190
 2.6780	 1.8870
 2.6800	 1.9040
 2.6810	 2.0250
 2.6830	 2.0640
 2.6840	 1.9670
 2.6850	 1.9660
 2.6870	 1.9080
 2.6880	 1.9380
 2.6900	 1.9140
 2.6910	 1.8910
 2.6920	 1.7660
 2.6940	 1.6760
 2.6950	 1.6160
 2.6970	 1.6850
 2.6980	 1.7270
 2.6990	 1.8270
 2.7010	 1.7680
 2.7020	 1.7350
 2.7040	 1.7710
 2.7050	 1.7640
 2.7060	 1.7110
 2.7080	 1.7010
 2.7090	 1.5290
 2.7110	 1.4750
 2.7120	 1.4890
 2.7130	 1.6110
 2.7150	 1.6140
 2.7160	 1.6310
 2.7180	 1.5820
 2.7190	 1.5370
 2.7210	 1.3630
 2.7220	 1.4790
 2.7230	 1.4840
 2.7250	 1.3340
 2.7260	 1.3700
 2.7280	 1.5700
 2.7290	 1.5920
 2.7310	 1.6010
 2.7320	 1.5720
 2.7340	 1.5400
 2.7350	 1.4540
 2.7360	 1.4730
 2.7380	 1.4680
 2.7390	 1.3880
 2.7410	 1.2690
 2.7420	 1.2940
 2.7440	 1.3560
 2.7450	 1.4230
 2.7470	 1.3620
 2.7480	 1.4060
 2.7490	 1.4240
 2.7510	 1.4640
 2.7520	 1.4090
 2.7540	 1.3270
 2.7550	 1.1300
 2.7570	 1.2110
 2.7580	 1.4120
 2.7600	 1.4750
 2.7610	 1.3870
 2.7630	 1.3080
 2.7640	 1.2880
 2.7660	 1.3340
 2.7670	 1.2860
 2.7690	 1.2570
 2.7700	 1.2670
 2.7720	 1.3380
 2.7730	 1.3200
 2.7740	 1.3210
 2.7760	 1.2780
 2.7770	 1.2760
 2.7790	 1.2310
 2.7800	 1.2510
 2.7820	 1.2780
 2.7830	 1.3490
 2.7850	 1.3400
 2.7860	 1.3250
 2.7880	 1.2730
 2.7890	 1.3380
 2.7910	 1.4010
 2.7920	 1.4030
 2.7940	 1.2890
 2.7950	 1.3230
 2.7970	 1.3290
 2.7980	 1.3760
 2.8000	 1.3650
 2.8010	 1.3810
 2.8030	 1.2540
 2.8040	 1.2240
 2.8060	 1.2260
 2.8080	 1.2800
 2.8090	 1.2870
 2.8110	 1.3340
 2.8120	 1.3080
 2.8140	 1.3750
 2.8150	 1.3490
 2.8170	 1.3420
 2.8180	 1.2960
 2.8200	 1.2980
 2.8210	 1.2750
 2.8230	 1.2680
 2.8240	 1.2880
 2.8260	 1.2950
 2.8270	 1.1590
 2.8290	 1.1820
 2.8310	 1.2490
 2.8320	 1.2800
 2.8340	 1.2570
 2.8350	 1.2750
 2.8370	 1.2110
 2.8380	 1.2680
 2.8400	 1.2860
 2.8410	 1.2970
 2.8430	 1.2680
 2.8440	 1.2670
 2.8460	 1.2260
 2.8480	 1.2760
 2.8490	 1.2150
 2.8510	 1.2110
 2.8520	 1.1960
 2.8540	 1.2030
 2.8550	 1.2190
 2.8570	 1.3380
 2.8590	 1.2770
 2.8600	 1.2520
 2.8620	 1.2620
 2.8630	 1.2880
 2.8650	 1.2340
 2.8660	 1.2460
 2.8680	 1.2150
 2.8700	 1.2460
 2.8710	 1.1750
 2.8730	 1.1460
 2.8740	 1.1790
 2.8760	 1.2170
 2.8780	 1.1640
 2.8790	 1.2110
 2.8810	 1.1980
 2.8820	 1.2350
 2.8840	 1.1960
 2.8860	 1.1800
 2.8870	 1.1390
 2.8890	 1.1720
 2.8900	 1.1800
 2.8920	 1.2900
 2.8940	 1.2250
 2.8950	 1.2090
 2.8970	 1.2280
 2.8990	 1.2730
 2.9000	 1.2240
 2.9020	 1.2710
 2.9030	 1.2110
 2.9050	 1.2000
 2.9070	 1.1960
 2.9080	 1.1890
 2.9100	 1.1940
 2.9120	 1.2350
 2.9130	 1.1640
 2.9150	 1.1930
 2.9160	 1.1710
 2.9180	 1.2580
 2.9200	 1.3170
 2.9210	 1.3680
 2.9230	 1.2860
 2.9250	 1.2680
 2.9260	 1.2510
 2.9280	 1.2850
 2.9300	 1.2710
 2.9310	 1.3340
 2.9330	 1.3440
 2.9350	 1.3500
 2.9360	 1.3220
 2.9380	 1.3210
 2.9400	 1.3070
 2.9410	 1.3250
 2.9430	 1.2990
 2.9450	 1.3430
 2.9460	 1.3530
 2.9480	 1.3350
 2.9500	 1.2680
 2.9510	 1.3760
 2.9530	 1.4490
 2.9550	 1.4450
 2.9560	 1.3930
 2.9580	 1.4030
 2.9600	 1.4110
 2.9610	 1.4440
 2.9630	 1.4100
 2.9650	 1.4330
 2.9670	 1.4290
 2.9680	 1.4400
 2.9700	 1.3680
 2.9720	 1.3770
 2.9730	 1.3800
 2.9750	 1.4580
 2.9770	 1.4450
 2.9780	 1.4200
 2.9800	 1.4490
 2.9820	 1.4930
 2.9840	 1.4570
 2.9850	 1.4870
 2.9870	 1.4760
 2.9890	 1.5170
 2.9900	 1.4460
 2.9920	 1.5030
 2.9940	 1.5290
 2.9960	 1.5360
 2.9970	 1.4700
 2.9990	 1.4540
 3.0010	 1.4380
 3.0030	 1.4590
 3.0040	 1.4490
 3.0060	 1.5560
 3.0080	 1.5570
 3.0100	 1.5380
 3.0110	 1.5020
 3.0130	 1.4980
 3.0150	 1.4380
 3.0170	 1.4680
 3.0180	 1.5180
 3.0200	 1.5760
 3.0220	 1.5200
 3.0240	 1.5440
 3.0250	 1.5550
 3.0270	 1.6230
 3.0290	 1.5770
 3.0310	 1.5930
 3.0320	 1.5890
 3.0340	 1.5920
 3.0360	 1.5390
 3.0380	 1.5970
 3.0400	 1.5730
 3.0410	 1.5770
 3.0430	 1.6270
 3.0450	 1.7040
 3.0470	 1.6330
 3.0480	 1.6010
 3.0500	 1.5600
 3.0520	 1.5580
 3.0540	 1.6060
 3.0560	 1.6660
 3.0570	 1.5900
 3.0590	 1.6210
 3.0610	 1.6420
 3.0630	 1.6690
 3.0650	 1.6250
 3.0670	 1.6430
 3.0680	 1.6040
 3.0700	 1.6340
 3.0720	 1.6420
 3.0740	 1.6950
 3.0760	 1.6880
 3.0770	 1.7030
 3.0790	 1.6790
 3.0810	 1.6960
 3.0830	 1.6910
 3.0850	 1.7530
 3.0870	 1.7830
 3.0880	 1.7500
 3.0900	 1.6580
 3.0920	 1.6780
 3.0940	 1.6860
 3.0960	 1.7240
 3.0980	 1.7490
 3.1000	 1.7950
 3.1010	 1.7790
 3.1030	 1.8020
 3.1050	 1.7590
 3.1070	 1.7340
 3.1090	 1.7060
 3.1110	 1.7470
 3.1130	 1.7580
 3.1140	 1.7910
 3.1160	 1.7040
 3.1180	 1.6940
 3.1200	 1.7010
 3.1220	 1.7730
 3.1240	 1.7450
 3.1260	 1.7850
 3.1280	 1.7910
 3.1290	 1.7770
 3.1310	 1.7670
 3.1330	 1.8190
 3.1350	 1.8210
 3.1370	 1.8710
 3.1390	 1.8870
 3.1410	 1.8600
 3.1430	 1.8100
 3.1450	 1.8440
 3.1470	 1.8410
 3.1480	 1.8480
 3.1500	 1.8250
 3.1520	 1.8600
 3.1540	 1.8560
 3.1560	 1.8960
 3.1580	 1.8770
 3.1600	 1.8490
 3.1620	 1.8170
 3.1640	 1.8490
 3.1660	 1.8230
 3.1680	 1.8390
 3.1700	 1.8150
 3.1720	 1.8640
 3.1730	 1.8980
 3.1750	 1.8930
 3.1770	 1.8100
 3.1790	 1.8170
 3.1810	 1.8230
 3.1830	 1.8600
 3.1850	 1.8080
 3.1870	 1.8600
 3.1890	 1.8850
 3.1910	 1.8790
 3.1930	 1.8180
 3.1950	 1.8620
 3.1970	 1.8730
 3.1990	 1.8470
 3.2010	 1.8400
 3.2030	 1.8910
 3.2050	 1.8820
 3.2070	 1.8960
 3.2090	 1.8920
 3.2110	 1.9370
 3.2130	 1.8700
 3.2150	 1.8410
 3.2170	 1.8830
 3.2190	 1.9320
 3.2210	 1.8990
 3.2230	 1.9150
 3.2250	 1.8900
 3.2270	 1.9060
 3.2290	 1.9080
 3.2310	 1.9380
 3.2330	 1.9200
 3.2350	 1.9450
 3.2370	 1.8900
 3.2390	 1.9040
 3.2410	 1.8910
 3.2430	 1.8690
 3.2450	 1.8560
 3.2470	 1.8760
 3.2490	 1.8200
 3.2510	 1.8830
 3.2530	 1.9190
 3.2550	 1.9360
 3.2570	 1.9050
 3.2590	 1.9290
 3.2610	 1.8830
 3.2630	 1.8620
 3.2650	 1.8540
 3.2670	 1.8700
 3.2700	 1.8790
 3.2720	 1.9510
 3.2740	 1.9150
 3.2760	 1.8930
 3.2780	 1.8900
 3.2800	 1.9210
 3.2820	 1.8950
 3.2840	 1.8480
 3.2860	 1.8270
 3.2880	 1.8800
 3.2900	 1.8700
 3.2920	 1.8620
 3.2940	 1.8550
 3.2970	 1.8600
 3.2990	 1.8280
 3.3010	 1.8400
 3.3030	 1.8480
 3.3050	 1.8980
 3.3070	 1.8920
 3.3090	 1.8930
 3.3110	 1.8690
 3.3130	 1.8950
 3.3160	 1.8670
 3.3180	 1.8910
 3.3200	 1.9030
 3.3220	 1.8990
 3.3240	 1.8670
 3.3260	 1.8790
 3.3280	 1.8550
 3.3300	 1.8550
 3.3330	 1.8690
 3.3350	 1.9160
 3.3370	 1.8810
 3.3390	 1.8630
 3.3410	 1.8390
 3.3430	 1.8430
 3.3450	 1.8400
 3.3480	 1.8750
 3.3500	 1.8280
 3.3520	 1.8430
 3.3540	 1.8490
 3.3560	 1.8380
 3.3580	 1.7990
 3.3610	 1.8550
 3.3630	 1.8520
 3.3650	 1.8470
 3.3670	 1.8180
 3.3690	 1.8120
 3.3720	 1.7790
 3.3740	 1.7980
 3.3760	 1.7390
 3.3780	 1.7420
 3.3800	 1.7490
 3.3830	 1.7490
 3.3850	 1.7430
 3.3870	 1.7790
 3.3890	 1.7890
 3.3910	 1.7830
 3.3940	 1.7800
 3.3960	 1.8520
 3.3980	 1.8120
 3.4000	 1.8310
 3.4030	 1.8500
 3.4050	 1.8300
 3.4070	 1.8310
 3.4090	 1.8690
 3.4110	 1.8350
 3.4140	 1.8500
 3.4160	 1.8410
 3.4180	 1.9090
 3.4200	 1.9610
 3.4230	 2.0400
 3.4250	 2.0940
 3.4270	 2.1690
 3.4300	 2.1840
 3.4320	 2.1310
 3.4340	 2.0490
 3.4360	 2.0010
 3.4390	 1.9350
 3.4410	 1.9030
 3.4430	 1.8760
 3.4450	 1.8920
 3.4480	 1.8880
 3.4500	 1.9120
 3.4520	 1.9140
 3.4550	 1.9050
 3.4570	 1.8630
 3.4590	 1.8910
 3.4620	 1.9060
 3.4640	 1.9220
 3.4660	 1.8950
 3.4690	 1.9240
 3.4710	 1.9190
 3.4730	 1.9060
 3.4760	 1.8870
 3.4780	 1.9270
 3.4800	 1.9210
 3.4830	 1.9120
 3.4850	 1.8690
 3.4870	 1.8720
 3.4900	 1.8490
 3.4920	 1.8410
 3.4940	 1.8530
 3.4970	 1.8730
 3.4990	 1.8190
 3.5010	 1.7760
 3.5040	 1.7550
 3.5060	 1.8640
 3.5080	 1.9800
 3.5110	 2.0940
 3.5130	 2.0970
 3.5160	 2.1080
 3.5180	 2.0800
 3.5200	 2.0650
 3.5230	 2.0750
 3.5250	 2.1070
 3.5280	 2.0550
 3.5300	 2.0820
 3.5320	 2.1040
 3.5350	 2.1100
 3.5370	 2.1180
 3.5400	 2.1550
 3.5420	 2.0950
 3.5440	 2.0460
 3.5470	 1.9960
 3.5490	 2.0240
 3.5520	 2.0310
 3.5540	 2.0360
 3.5570	 2.0260
 3.5590	 2.0630
 3.5610	 2.0810
 3.5640	 2.0860
 3.5660	 2.0520
 3.5690	 2.0640
 3.5710	 2.0680
 3.5740	 2.0740
 3.5760	 2.0480
 3.5790	 2.0520
 3.5810	 2.0970
 3.5840	 2.1100
 3.5860	 2.0710
 3.5890	 2.0950
 3.5910	 2.0800
 3.5940	 2.0640
 3.5960	 2.0140
 3.5990	 2.0590
 3.6010	 2.0810
 3.6040	 2.0760
 3.6060	 2.0550
 3.6090	 2.0660
 3.6110	 2.0580
 3.6140	 2.0640
 3.6160	 2.0690
 3.6190	 2.0720
 3.6210	 2.0480
 3.6240	 2.0910
 3.6260	 2.1000
 3.6290	 2.1010
 3.6310	 2.1020
 3.6340	 2.0980
 3.6360	 2.0790
 3.6390	 2.1270
 3.6410	 2.1530
 3.6440	 2.1940
 3.6470	 2.1770
 3.6490	 2.1740
 3.6520	 2.1400
 3.6540	 2.1490
 3.6570	 2.1500
 3.6590	 2.1720
 3.6620	 2.1530
 3.6650	 2.1290
 3.6670	 2.1160
 3.6700	 2.1220
 3.6720	 2.1220
 3.6750	 2.1710
 3.6780	 2.1690
 3.6800	 2.1430
 3.6830	 2.1290
 3.6850	 2.1330
 3.6880	 2.1100
 3.6910	 2.1570
 3.6930	 2.1450
 3.6960	 2.1540
 3.6990	 2.1540
 3.7010	 2.1820
 3.7040	 2.1970
 3.7070	 2.2190
 3.7090	 2.2370
 3.7120	 2.2510
 3.7150	 2.2240
 3.7170	 2.2460
 3.7200	 2.2200
 3.7230	 2.2380
 3.7250	 2.1940
 3.7280	 2.1880
 3.7310	 2.2180
 3.7330	 2.2490
 3.7360	 2.2370
 3.7390	 2.2390
 3.7410	 2.2500
 3.7440	 2.2780
 3.7470	 2.2670
 3.7490	 2.2460
 3.7520	 2.2420
 3.7550	 2.2620
 3.7580	 2.2660
 3.7600	 2.2910
 3.7630	 2.3160
 3.7660	 2.3120
 3.7690	 2.2680
 3.7710	 2.2900
 3.7740	 2.2720
 3.7770	 2.2630
 3.7790	 2.2520
 3.7820	 2.2900
 3.7850	 2.3060
 3.7880	 2.3530
 3.7910	 2.3560
 3.7930	 2.3520
 3.7960	 2.3560
 3.7990	 2.3730
 3.8020	 2.3440
 3.8040	 2.3580
 3.8070	 2.3820
 3.8100	 2.4080
 3.8130	 2.3920
 3.8160	 2.3910
 3.8180	 2.4060
 3.8210	 2.4310
 3.8240	 2.4190
 3.8270	 2.4130
 3.8300	 2.4140
 3.8330	 2.3990
 3.8350	 2.3630
 3.8380	 2.3720
 3.8410	 2.3970
 3.8440	 2.4110
 3.8470	 2.4040
 3.8500	 2.3990
 3.8520	 2.4100
 3.8550	 2.4420
 3.8580	 2.4020
 3.8610	 2.3910
 3.8640	 2.4270
 3.8670	 2.4440
 3.8700	 2.4450
 3.8730	 2.4590
 3.8760	 2.4530
 3.8780	 2.4720
 3.8810	 2.4440
 3.8840	 2.4380
 3.8870	 2.4580
 3.8900	 2.4750
 3.8930	 2.4310
 3.8960	 2.4280
 3.8990	 2.4380
 3.9020	 2.4710
 3.9050	 2.4740
 3.9080	 2.4590
 3.9110	 2.4270
 3.9140	 2.4400
 3.9170	 2.4530
 3.9190	 2.4780
 3.9220	 2.4450
 3.9250	 2.4300
 3.9280	 2.4240
 3.9310	 2.4300
 3.9340	 2.4170
 3.9370	 2.4220
 3.9400	 2.4270
 3.9430	 2.4510
 3.9460	 2.4600
 3.9490	 2.4570
 3.9520	 2.4470
 3.9550	 2.4580
 3.9580	 2.4270
 3.9610	 2.4130
 3.9640	 2.4450
 3.9670	 2.4930
 3.9700	 2.4730
 3.9740	 2.4520
 3.9770	 2.4290
 3.9800	 2.4140
 3.9830	 2.3750
 3.9860	 2.3630
 3.9890	 2.3610
 3.9920	 2.4020
 3.9950	 2.4320
 3.9980	 2.4320
 4.0010	 2.4040
 4.0040	 2.4250
 4.0070	 2.4280
 4.0100	 2.4130
 4.0140	 2.3980
 4.0170	 2.4200
 4.0200	 2.4190
 4.0230	 2.4120
 4.0260	 2.3900
 4.0290	 2.3890
 4.0320	 2.3710
 4.0350	 2.3860
 4.0390	 2.3750
 4.0420	 2.3690
 4.0450	 2.3750
 4.0480	 2.3970
 4.0510	 2.3830
 4.0540	 2.3690
 4.0570	 2.3580
 4.0610	 2.3600
 4.0640	 2.3460
 4.0670	 2.3350
 4.0700	 2.3390
 4.0730	 2.3600
 4.0770	 2.3220
 4.0800	 2.2950
 4.0830	 2.2990
 4.0860	 2.3370
 4.0890	 2.3710
 4.0930	 2.3690
 4.0960	 2.3370
 4.0990	 2.3310
 4.1020	 2.3190
 4.1060	 2.2850
 4.1090	 2.2550
 4.1120	 2.2680
 4.1150	 2.2600
 4.1190	 2.2700
 4.1220	 2.3010
 4.1250	 2.3090
 4.1290	 2.2670
 4.1320	 2.2870
 4.1350	 2.2810
 4.1380	 2.2450
 4.1420	 2.2370
 4.1450	 2.2500
 4.1480	 2.2690
 4.1520	 2.2990
 4.1550	 2.2630
 4.1580	 2.2200
 4.1620	 2.2350
 4.1650	 2.2860
 4.1680	 2.2460
 4.1720	 2.2140
 4.1750	 2.2270
 4.1780	 2.1990
 4.1820	 2.1970
 4.1850	 2.2340
 4.1890	 2.1980
 4.1920	 2.1960
 4.1950	 2.1800
 4.1990	 2.1670
 4.2020	 2.1530
 4.2060	 2.1810
 4.2090	 2.2400
 4.2120	 2.2450
 4.2160	 2.1880
 4.2190	 2.2290
 4.2230	 2.2310
 4.2260	 2.1900
 4.2300	 2.2540
 4.2330	 2.2890
 4.2360	 2.2360
 4.2400	 2.1600
 4.2430	 2.2010
 4.2470	 2.2580
 4.2500	 2.1960
 4.2540	 2.1320
 4.2570	 2.1300
 4.2610	 2.1890
 4.2640	 2.2090
 4.2680	 2.2500
 4.2710	 2.1810
 4.2750	 2.1600
 4.2780	 2.1340
 4.2820	 2.1180
 4.2850	 2.0830
 4.2890	 2.0750
 4.2930	 2.0920
 4.2960	 2.1060
 4.3000	 2.1200
 4.3030	 2.1340
 4.3070	 2.0890
 4.3100	 2.0680
 4.3140	 2.0430
 4.3180	 2.0120
 4.3210	 1.9910
 4.3250	 2.0660
 4.3280	 2.0640
 4.3320	 2.0540
 4.3360	 2.0730
 4.3390	 2.0590
 4.3430	 2.0380
 4.3470	 2.0250
 4.3500	 2.0330
 4.3540	 2.0030
 4.3580	 1.9500
 4.3610	 1.9700
 4.3650	 1.9660
 4.3690	 1.9680
 4.3720	 1.9400
 4.3760	 1.9360
 4.3800	 1.9340
 4.3830	 1.9390
 4.3870	 1.9370
 4.3910	 1.9380
 4.3940	 1.9390
 4.3980	 1.9520
 4.4020	 1.9300
 4.4060	 1.9220
 4.4090	 1.9530
 4.4130	 1.9690
 4.4170	 1.9360
 4.4210	 1.9190
 4.4240	 1.9190
 4.4280	 1.9370
 4.4320	 1.9310
 4.4360	 1.9440
 4.4400	 1.9450
 4.4430	 1.9180
 4.4470	 1.8920
 4.4510	 1.8920
 4.4550	 1.9100
 4.4590	 1.9410
 4.4630	 1.9220
 4.4660	 1.8770
 4.4700	 1.8720
 4.4740	 1.8600
 4.4780	 1.8620
 4.4820	 1.8990
 4.4860	 1.8710
 4.4900	 1.8460
 4.4930	 1.8580
 4.4970	 1.8540
 4.5010	 1.8350
 4.5050	 1.8330
 4.5090	 1.8180
 4.5130	 1.8170
 4.5170	 1.8290
 4.5210	 1.8090
 4.5250	 1.8340
 4.5290	 1.8670
 4.5330	 1.8800
 4.5370	 1.8710
 4.5410	 1.8380
 4.5450	 1.8220
 4.5490	 1.8240
 4.5530	 1.8410
 4.5570	 1.8250
 4.5610	 1.8240
 4.5650	 1.8210
 4.5690	 1.8090
 4.5730	 1.8140
 4.5770	 1.8160
 4.5810	 1.8140
 4.5850	 1.8020
 4.5890	 1.8100
 4.5930	 1.8010
 4.5970	 1.7840
 4.6010	 1.7890
 4.6050	 1.7950
 4.6090	 1.7940
 4.6130	 1.7910
 4.6170	 1.7950
 4.6220	 1.7750
 4.6260	 1.7830
 4.6300	 1.7800
 4.6340	 1.7890
 4.6380	 1.7940
 4.6420	 1.7750
 4.6460	 1.7870
 4.6510	 1.8000
 4.6550	 1.7840
 4.6590	 1.7790
 4.6630	 1.7790
 4.6670	 1.7810
 4.6720	 1.7990
 4.6760	 1.8050
 4.6800	 1.7950
 4.6840	 1.7850
 4.6880	 1.7760
 4.6930	 1.7760
 4.6970	 1.7930
 4.7010	 1.7940
 4.7050	 1.7900
 4.7100	 1.7630
 4.7140	 1.7580
 4.7180	 1.7820
 4.7230	 1.7820
 4.7270	 1.7630
 4.7310	 1.7760
 4.7360	 1.7730
 4.7400	 1.7580
 4.7440	 1.7520
 4.7490	 1.7410
 4.7530	 1.7740
 4.7570	 1.7940
 4.7620	 1.7950
 4.7660	 1.7850
 4.7700	 1.7670
 4.7750	 1.7680
 4.7790	 1.7520
 4.7840	 1.7630
 4.7880	 1.7600
 4.7920	 1.7440
 4.7970	 1.7500
 4.8010	 1.7840
 4.8060	 1.7930
 4.8100	 1.7620
 4.8150	 1.7350
 4.8190	 1.7490
 4.8240	 1.7250
 4.8280	 1.7390
 4.8330	 1.7610
 4.8370	 1.7440
 4.8420	 1.7390
 4.8460	 1.7670
 4.8510	 1.7820
 4.8550	 1.7900
 4.8600	 1.7620
 4.8640	 1.7510
 4.8690	 1.7660
 4.8740	 1.7800
 4.8780	 1.7830
 4.8830	 1.7920
 4.8870	 1.7630
 4.8920	 1.7420
 4.8970	 1.7600
 4.9010	 1.7750
 4.9060	 1.7640
 4.9100	 1.7580
 4.9150	 1.7420
 4.9200	 1.7370
 4.9240	 1.7440
 4.9290	 1.7600
 4.9340	 1.7760
 4.9390	 1.8090
 4.9430	 1.8320
 4.9480	 1.8110
 4.9530	 1.7710
 4.9570	 1.7510
 4.9620	 1.7530
 4.9670	 1.7770
 4.9720	 1.7810
 4.9760	 1.7860
 4.9810	 1.7750
 4.9860	 1.7910
 4.9910	 1.7800
 4.9960	 1.7870
 5.0000	 1.8180
 5.0050	 1.8190
 5.0100	 1.8060
 5.0150	 1.7980
 5.0200	 1.7830
 5.0250	 1.7940
 5.0300	 1.7950
 5.0340	 1.8180
 5.0390	 1.8430
 5.0440	 1.8480
 5.0490	 1.8420
 5.0540	 1.8290
 5.0590	 1.8490
 5.0640	 1.8770
 5.0690	 1.8690
 5.0740	 1.8640
 5.0790	 1.8240
 5.0840	 1.8190
 5.0890	 1.8350
 5.0940	 1.8360
 5.0990	 1.8300
 5.1040	 1.8450
 5.1090	 1.8560
 5.1140	 1.8700
 5.1190	 1.8560
 5.1240	 1.8390
 5.1290	 1.8320
 5.1340	 1.8330
 5.1390	 1.8010
 5.1440	 1.7930
 5.1490	 1.7940
 5.1550	 1.8340
 5.1600	 1.8380
 5.1650	 1.8490
 5.1700	 1.8520
 5.1750	 1.8610
 5.1800	 1.8370
 5.1850	 1.8610
 5.1910	 1.8840
 5.1960	 1.8670
 5.2010	 1.8280
 5.2060	 1.8410
 5.2110	 1.8080
 5.2170	 1.8040
 5.2220	 1.8480
 5.2270	 1.8740
 5.2330	 1.8740
 5.2380	 1.8800
 5.2430	 1.8640
 5.2480	 1.8680
 5.2540	 1.8500
 5.2590	 1.8510
 5.2640	 1.8360
 5.2700	 1.8440
 5.2750	 1.8570
 5.2800	 1.8400
 5.2860	 1.7820
 5.2910	 1.7580
 5.2970	 1.7720
 5.3020	 1.8130
 5.3080	 1.8190
 5.3130	 1.8380
 5.3180	 1.8540
 5.3240	 1.8600
 5.3290	 1.8120
 5.3350	 1.8340
 5.3400	 1.8400
 5.3460	 1.7740
 5.3510	 1.6810
 5.3570	 1.7430
 5.3620	 1.8130
 5.3680	 1.8340
 5.3740	 1.8150
 5.3790	 1.8180
 5.3850	 1.7870
 5.3900	 1.7850
 5.3960	 1.7990
 5.4010	 1.7960
 5.4070	 1.7640
 5.4130	 1.7550
 5.4180	 1.6790
 5.4240	 1.6530
 5.4300	 1.7400
 5.4350	 1.7800
 5.4410	 1.7490
 5.4470	 1.7320
 5.4530	 1.7120
 5.4580	 1.6900
 5.4640	 1.6200
 5.4700	 1.6590
 5.4760	 1.6760
 5.4810	 1.6620
 5.4870	 1.6730
 5.4930	 1.6740
 5.4990	 1.6480
 5.5050	 1.6490
 5.5110	 1.6450
 5.5160	 1.6450
 5.5220	 1.5940
 5.5280	 1.5960
 5.5340	 1.6190
 5.5400	 1.6250
 5.5460	 1.5860
 5.5520	 1.5440
 5.5580	 1.5100
 5.5640	 1.5510
 5.5700	 1.5680
 5.5760	 1.4630
 5.5820	 1.3850
 5.5880	 1.4640
 5.5940	 1.5140
 5.6000	 1.5090
 5.6060	 1.4830
 5.6120	 1.4680
 5.6180	 1.4260
 5.6240	 1.4360
 5.6300	 1.4410
 5.6360	 1.3770
 5.6420	 1.2570
 5.6490	 1.3030
 5.6550	 1.3330
 5.6610	 1.3740
 5.6670	 1.3680
 5.6730	 1.3030
 5.6800	 1.2910
 5.6860	 1.3460
 5.6920	 1.2850
 5.6980	 1.2910
 5.7050	 1.2560
 5.7110	 1.1600
 5.7170	 1.1340
 5.7230	 1.1960
 5.7300	 1.2220
 5.7360	 1.2150
 5.7420	 1.1820
 5.7490	 1.1830
 5.7550	 1.2410
 5.7620	 1.1840
 5.7680	 1.0800
 5.7740	 1.2230
 5.7810	 1.3130
 5.7870	 1.3520
 5.7940	 1.3410
 5.8000	 1.3350
 5.8070	 1.3230
 5.8130	 1.2930
 5.8200	 1.1610
 5.8260	 1.1550
 5.8330	 1.2000
 5.8390	 1.3160
 5.8460	 1.3720
 5.8530	 1.3840
 5.8590	 1.3410
 5.8660	 1.2930
 5.8730	 1.2250
 5.8790	 1.0900
 5.8860	 1.0720
 5.8930	 1.1290
 5.8990	 1.1000
 5.9060	 1.2580
 5.9130	 1.2520
 5.9190	 1.2220
 5.9260	 1.1700
 5.9330	 1.0500
 5.9400	 0.9370
 5.9470	 1.0630
 5.9530	 1.1260
 5.9600	 1.1480
 5.9670	 1.0410
 5.9740	 1.0670
 5.9810	 1.0670
 5.9880	 1.0560
 5.9950	 1.0920
 6.0020	 1.1750
 6.0090	 1.1040
 6.0160	 1.0650
 6.0230	 1.0630
 6.0300	 1.0860
 6.0370	 1.0550
 6.0440	 0.9540
 6.0510	 0.8520
 6.0580	 1.0300
 6.0650	 1.0440
 6.0720	 0.9990
 6.0790	 1.0500
 6.0860	 1.1350
 6.0930	 1.1050
 6.1010	 1.1090
 6.1080	 1.0370
 6.1150	 1.0050
 6.1220	 1.1150
 6.1290	 1.2600
 6.1370	 1.2540
 6.1440	 1.2250
 6.1510	 1.2160
 6.1580	 1.2280
 6.1660	 1.2400
 6.1730	 1.2970
 6.1800	 1.1580
 6.1880	 1.1550
 6.1950	 1.2910
 6.2030	 1.3290
 6.2100	 1.3020
 6.2180	 1.3750
 6.2250	 1.3820
 6.2320	 1.4220
 6.2400	 1.3640
 6.2480	 1.4090
 6.2550	 1.4350
 6.2630	 1.4560
 6.2700	 1.4270
 6.2780	 1.4980
 6.2850	 1.4990
 6.2930	 1.4870
 6.3010	 1.4540
 6.3080	 1.4930
 6.3160	 1.4970
 6.3240	 1.5220
 6.3310	 1.4750
 6.3390	 1.3650
 6.3470	 1.2580
 6.3550	 1.4210
 6.3620	 1.4210
 6.3700	 1.3490
 6.3780	 1.3660
 6.3860	 1.4490
 6.3940	 1.4400
 6.4020	 1.3580
 6.4100	 1.0680
 6.4180	 1.0060
 6.4260	 1.1780
 6.4340	 1.2940
 6.4420	 1.3300
 6.4500	 1.3580
 6.4580	 1.3300
 6.4660	 1.3590
 6.4740	 1.2890
 6.4820	 1.2090
 6.4900	 1.0380
 6.4980	 1.0950
 6.5060	 1.2950
 6.5140	 1.3430
 6.5230	 1.2610
 6.5310	 1.3630
 6.5390	 1.3250
 6.5470	 1.3120
 6.5560	 1.2810
 6.5640	 1.2550
 6.5720	 1.1190
 6.5800	 1.1900
 6.5890	 1.2040
 6.5970	 1.2590
 6.6060	 1.2800
 6.6140	 1.2890
 6.6230	 1.2130
 6.6310	 1.0730
 6.6390	 0.9660
 6.6480	 1.1680
 6.6570	 1.2780
 6.6650	 1.2950
 6.6740	 1.2440
 6.6820	 1.2060
 6.6910	 1.2070
 6.7000	 1.2800
 6.7080	 1.1730
 6.7170	 1.1450
 6.7260	 1.1560
 6.7340	 1.2290
 6.7430	 1.2010
 6.7520	 1.2040
 6.7610	 1.1940
 6.7690	 1.1980
 6.7780	 1.1390
 6.7870	 1.1190
 6.7960	 1.1350
 6.8050	 1.2990
 6.8140	 1.2910
 6.8230	 1.2470
 6.8320	 1.2600
 6.8410	 1.3990
 6.8500	 1.2680
 6.8590	 1.0820
 6.8680	 1.0290
 6.8770	 1.2250
 6.8860	 1.2690
 6.8960	 1.2780
 6.9050	 1.1780
 6.9140	 1.1980
 6.9230	 1.1930
 6.9320	 1.2410
 6.9420	 1.1990
 6.9510	 1.1760
 6.9600	 1.0760
 6.9700	 1.1600
 6.9790	 1.1720
 6.9880	 1.1940
 6.9980	 1.1840
 7.0070	 1.2530
 7.0170	 1.2130
 7.0260	 1.2370
 7.0360	 1.1620
 7.0450	 1.1340
 7.0550	 1.1920
 7.0650	 1.2770
 7.0740	 1.2740
 7.0840	 1.3280
 7.0940	 1.3010
 7.1030	 1.3110
 7.1130	 1.2780
 7.1230	 1.2970
 7.1330	 1.2470
 7.1420	 1.2620
 7.1520	 1.2000
 7.1620	 1.2020
 7.1720	 1.1910
 7.1820	 1.2830
 7.1920	 1.2360
 7.2020	 1.2110
 7.2120	 1.1650
 7.2220	 1.2610
 7.2320	 1.2410
 7.2420	 1.2910
 7.2520	 1.2530
 7.2620	 1.2450
 7.2730	 1.1960
 7.2830	 1.2760
 7.2930	 1.2700
 7.3030	 1.2730
 7.3140	 1.2290
 7.3240	 1.2760
 7.3340	 1.2270
 7.3450	 1.2090
 7.3550	 1.1640
 7.3660	 1.2150
 7.3760	 1.2290
 7.3870	 1.2800
 7.3970	 1.2300
 7.4080	 1.2470
 7.4180	 1.1970
 7.4290	 1.2120
 7.4400	 1.1780
 7.4500	 1.2320
 7.4610	 1.1920
 7.4720	 1.2200
 7.4830	 1.2020
 7.4930	 1.2780
 7.5040	 1.2700
 7.5150	 1.2930
 7.5260	 1.2480
 7.5370	 1.2840
 7.5480	 1.2060
 7.5590	 1.2150
 7.5700	 1.2040
 7.5810	 1.2860
 7.5920	 1.2520
 7.6030	 1.2590
 7.6140	 1.2470
 7.6260	 1.3130
 7.6370	 1.2760
 7.6480	 1.2990
 7.6590	 1.2650
 7.6710	 1.3000
 7.6820	 1.2420
 7.6940	 1.2690
 7.7050	 1.2360
 7.7160	 1.2480
 7.7280	 1.1980
 7.7390	 1.2550
 7.7510	 1.2240
 7.7630	 1.2630
 7.7740	 1.2000
 7.7860	 1.1910
 7.7980	 1.1360
 7.8090	 1.1990
 7.8210	 1.1660
 7.8330	 1.1590
 7.8450	 1.1030
 7.8570	 1.1690
 7.8690	 1.1300
 7.8810	 1.1520
 7.8930	 1.1390
 7.9050	 1.2060
 7.9170	 1.1330
 7.9290	 1.1800
 7.9410	 1.1510
 7.9530	 1.2070
 7.9650	 1.1740
 7.9780	 1.1650
 7.9900	 1.0850
 8.0020	 1.1750
 8.0150	 1.1680
 8.0270	 1.2080
 8.0390	 1.1660
 8.0520	 1.2230
 8.0640	 1.1820
 8.0770	 1.2540
 8.0900	 1.2400
 8.1020	 1.3230
 8.1150	 1.2460
 8.1280	 1.2670
 8.1400	 1.1840
 8.1530	 1.2710
 8.1660	 1.2340
 8.1790	 1.2200
 8.1920	 1.1230
 8.2050	 1.2400
 8.2180	 1.2120
 8.2310	 1.2720
 8.2440	 1.2260
 8.2570	 1.2680
 8.2700	 1.1780
 8.2830	 1.2270
 8.2970	 1.1410
 8.3100	 1.2180
 8.3230	 1.1930
 8.3370	 1.1980
 8.3500	 1.0930
 8.3640	 1.2020
 8.3770	 1.1320
 8.3910	 1.1450
 8.4040	 1.0720
 8.4180	 1.1180
 8.4320	 1.0350
 8.4450	 1.1240
 8.4590	 1.0640
 8.4730	 1.1130
 8.4870	 1.0640
 8.5010	 1.1320
 8.5150	 1.0300
 8.5290	 1.0600
 8.5430	 1.0130
 8.5570	 1.1010
 8.5710	 1.0170
 8.5850	 1.0460
 8.5990	 0.9370
 8.6140	 1.0560
 8.6280	 1.0920
 8.6420	 1.1470
 8.6570	 1.0410
 8.6710	 1.1240
 8.6860	 1.0990
 8.7000	 1.2350
 8.7150	 1.1640
 8.7300	 1.1870
 8.7440	 1.0810
 8.7590	 1.1850
 8.7740	 1.1880
 8.7890	 1.2300
 8.8040	 1.1190
 8.8190	 1.2110
 8.8340	 1.0900
 8.8490	 1.1090
 8.8640	 1.0460
 8.8790	 1.1370
 8.8940	 1.1020
 8.9100	 1.1190
 8.9250	 0.9770
 8.9400	 1.0590
 8.9560	 1.0450
 8.9710	 1.1690
 8.9870	 1.0540
 9.0020	 1.1440
 9.0180	 1.1550
 9.0340	 1.2760
 9.0500	 1.2450
 9.0650	 1.3140
 9.0810	 1.2630
 9.0970	 1.3080
 9.1130	 1.2460
 9.1290	 1.3270
 9.1450	 1.2000
 9.1620	 1.2470
 9.1780	 1.1670
 9.1940	 1.2460
 9.2100	 1.2020
 9.2270	 1.2980
 9.2430	 1.1910
 9.2600	 1.2800
 9.2760	 1.2390
 9.2930	 1.2800
 9.3100	 1.1700
 9.3260	 1.2810
 9.3430	 1.2480
 9.3600	 1.4060
 9.3770	 1.4120
 9.3940	 1.4940
 9.4110	 1.4330
 9.4280	 1.6170
 9.4450	 1.5830
 9.4620	 1.6110
 9.4800	 1.5150
 9.4970	 1.6260
 9.5150	 1.5370
 9.5320	 1.5880
 9.5500	 1.5230
 9.5670	 1.6410
 9.5850	 1.5140
 9.6030	 1.5960
 9.6200	 1.5970
 9.6380	 1.7460
 9.6560	 1.7410
 9.6740	 1.8520
 9.6920	 1.7550
 9.7110	 1.8260
 9.7290	 1.7780
 9.7470	 1.8770
 9.7650	 1.8150
 9.7840	 1.9600
 9.8020	 1.8820
 9.8210	 2.0150
 9.8390	 1.9850
 9.8580	 1.9390
 9.8770	 1.8250
 9.8960	 1.9700
 9.9150	 1.9840
 9.9340	 2.0960
 9.9530	 2.0710
 9.9720	 2.1800
 9.9910	 2.0430
10.0100	 2.0840
10.0300	 1.9610
10.0490	 2.0580
10.0690	 2.0130
10.0880	 2.0330
10.1080	 1.9490
10.1280	 2.0380
10.1480	 1.9270
10.1670	 1.9730
10.1870	 1.8560
10.2070	 1.9000
10.2280	 1.8380
10.2480	 1.9210
10.2680	 1.8050
10.2890	 1.8540
10.3090	 1.7070
10.3300	 1.7260
10.3500	 1.6300
10.3710	 1.7770
10.3920	 1.7280
10.4120	 1.8150
10.4330	 1.7570
10.4540	 1.8780
10.4760	 1.8070
10.4970	 1.8880
10.5180	 1.7880
10.5390	 1.8320
10.5610	 1.7400
10.5820	 1.7670
10.6040	 1.6730
10.6260	 1.7270
10.6480	 1.6000
10.6700	 1.7080
10.6920	 1.5810
10.7140	 1.5820
10.7360	 1.4490
10.7580	 1.5180
10.7800	 1.4130
10.8030	 1.5150
10.8250	 1.4280
10.8480	 1.5130
10.8710	 1.4000
10.8940	 1.4520
10.9170	 1.3460
10.9400	 1.4550
10.9630	 1.3410
10.9860	 1.3520
11.0090	 1.2370
11.0330	 1.3100
11.0560	 1.2200
11.0800	 1.3610
11.1040	 1.3100
11.1270	 1.3440
11.1510	 1.2040
11.1750	 1.3660
11.2000	 1.2690
11.2240	 1.2860
11.2480	 1.1610
11.2730	 1.2750
11.2970	 1.2050
11.3220	 1.3180
11.3470	 1.1210
11.3720	 1.1720
11.3970	 1.1040
11.4220	 1.2260
11.4470	 1.3210
11.4720	 1.6750
11.4980	 1.2520
11.5230	 1.1090
11.5490	 0.9710
11.5750	 1.0790
11.6000	 0.9750
11.6260	 1.0670
11.6530	 1.0040
11.6790	 1.0950
11.7050	 0.9320
11.7320	 1.0330
11.7580	 0.9800
11.7850	 1.0320
11.8120	 0.8330
11.8390	 0.9250
11.8660	 0.8150
11.8930	 0.8830
11.9200	 0.7880
11.9480	 0.9290
11.9760	 0.9180
12.0030	 1.0000
12.0310	 0.7800
12.0590	 0.9010
12.0870	 0.7810
12.1150	 0.9710
12.1440	 0.8270
12.1720	 0.9100
12.2010	 0.7780
12.2300	 0.9200
12.2590	 0.7830
12.2880	 0.8430
12.3170	 0.6200
12.3460	 0.7290
12.3760	 0.7040
12.4050	 0.8950
12.4350	 0.7300
12.4650	 0.7990
12.4950	 0.6230
12.5250	 0.7690
12.5550	 0.7080
12.5860	 0.9310
12.6170	 0.7350
12.6470	 0.8450
12.6780	 0.7630
12.7090	 0.8940
12.7410	 0.7760
12.7720	 0.9420
12.8030	 0.7740
12.8350	 0.9410
12.8670	 0.7980
12.8990	 0.8930
12.9310	 0.7750
12.9640	 0.9570
12.9960	 0.7760
13.0290	 0.9230
13.0610	 0.8290
13.0940	 1.0030
13.1280	 0.7360
13.1610	 0.8270
13.1940	 0.7070
13.2280	 0.9570
13.2620	 0.8760
13.2960	 1.0100
13.3300	 0.8180
13.3640	 0.9080
13.3990	 0.7390
13.4340	 0.9990
13.4690	 0.8310
13.5040	 1.0480
13.5390	 0.8820
13.5740	 1.0660
13.6100	 0.8880
13.6460	 1.1130
13.6820	 0.9260
13.7180	 1.1300
13.7540	 0.8970
13.7910	 1.0350
13.8280	 0.9620
13.8650	 1.1740
13.9020	 0.8950
13.9390	 0.9790
13.9770	 0.7670
14.0150	 1.0390
14.0530	 0.9390
14.0910	 1.2340
14.1290	 1.1100
14.1680	 1.3270
14.2070	 1.0890
14.2460	 1.1730
14.2850	 0.8750
14.3240	 1.1620
14.3640	 1.0270
14.4040	 1.2340
14.4440	 0.9690
14.4840	 1.2090
14.5250	 0.8980
14.5660	 1.1910
14.6070	 1.0040
14.6480	 1.2550
14.6900	 1.0500
14.7310	 1.3900
14.7730	 1.0160
14.8150	 1.3340
14.8580	 1.1430
14.9010	 1.4860
14.9440	 1.0090
14.9870	 1.5940
15.0300	 1.2230
15.0740	 1.6030
15.1180	 1.3410
15.1620	 1.5410
15.2060	 1.0380
15.2510	 1.4090
15.2960	 1.3420
15.3410	 1.6840
15.3870	 1.1380
