Name: Baccharis pilularis 3
Type: vegetation
Class: Shrub
Genus: Baccharis
Species: pilularis
Sample No.: VH048
Owner: UCSB
Wavelength Range: VSWIR
Origin: 34.5088; -119.7683; WGS84
Collection Date: 4/1/2013
Description: Samples were collected as part of the HyspIRI Airborne Campaign. 48 individual plants were sampled in three times in 2013 - spring  summer  and fall. The name of the sample includes a 1  2  or 3 which references a different individual of the species. Samples were taken to JPL and processed within 48 hours of collection. The same leaves were processed in the Nicolet and then measured using the ASD.
Measurement: Bidirectional reflectance
First Column: X
Second Column: Y
X Units: Wavelength (micrometers)
Y Units: Reflectance (percentage)
First X Value: 0.35
Last X Value: 2.5
Number of X Values: 2151
Additional Information: vegetation.shrub.baccharis.pilularis.vswir.vh048.ucsb.asd.ancillary.txt

 0.3500	 3.8850
 0.3510	 3.6510
 0.3520	 3.6190
 0.3530	 3.7780
 0.3540	 3.9580
 0.3550	 3.7100
 0.3560	 3.6460
 0.3570	 3.8140
 0.3580	 3.9430
 0.3590	 3.7310
 0.3600	 3.6370
 0.3610	 3.8070
 0.3620	 3.8590
 0.3630	 3.7720
 0.3640	 3.6750
 0.3650	 3.6920
 0.3660	 3.7460
 0.3670	 3.7810
 0.3680	 3.7610
 0.3690	 3.6850
 0.3700	 3.6580
 0.3710	 3.6450
 0.3720	 3.6320
 0.3730	 3.6890
 0.3740	 3.7150
 0.3750	 3.7290
 0.3760	 3.7630
 0.3770	 3.7110
 0.3780	 3.7010
 0.3790	 3.7120
 0.3800	 3.6030
 0.3810	 3.6020
 0.3820	 3.6970
 0.3830	 3.8080
 0.3840	 3.8130
 0.3850	 3.8010
 0.3860	 3.7880
 0.3870	 3.7770
 0.3880	 3.8460
 0.3890	 3.8490
 0.3900	 3.7710
 0.3910	 3.7360
 0.3920	 3.7470
 0.3930	 3.7660
 0.3940	 3.7610
 0.3950	 3.7610
 0.3960	 3.7720
 0.3970	 3.7810
 0.3980	 3.7710
 0.3990	 3.7950
 0.4000	 3.8010
 0.4010	 3.7750
 0.4020	 3.7690
 0.4030	 3.7550
 0.4040	 3.7530
 0.4050	 3.7800
 0.4060	 3.8200
 0.4070	 3.8380
 0.4080	 3.8390
 0.4090	 3.8490
 0.4100	 3.8470
 0.4110	 3.8470
 0.4120	 3.8530
 0.4130	 3.8500
 0.4140	 3.8610
 0.4150	 3.8840
 0.4160	 3.9050
 0.4170	 3.9000
 0.4180	 3.8900
 0.4190	 3.8870
 0.4200	 3.8900
 0.4210	 3.9020
 0.4220	 3.9170
 0.4230	 3.9280
 0.4240	 3.9350
 0.4250	 3.9130
 0.4260	 3.9060
 0.4270	 3.9650
 0.4280	 3.9830
 0.4290	 3.9850
 0.4300	 3.9980
 0.4310	 4.0270
 0.4320	 4.0420
 0.4330	 4.0550
 0.4340	 4.0790
 0.4350	 4.0850
 0.4360	 4.1000
 0.4370	 4.1220
 0.4380	 4.1290
 0.4390	 4.1370
 0.4400	 4.1490
 0.4410	 4.1650
 0.4420	 4.1880
 0.4430	 4.1930
 0.4440	 4.2000
 0.4450	 4.2330
 0.4460	 4.2480
 0.4470	 4.2560
 0.4480	 4.2670
 0.4490	 4.2900
 0.4500	 4.2930
 0.4510	 4.2980
 0.4520	 4.3250
 0.4530	 4.3390
 0.4540	 4.3590
 0.4550	 4.3820
 0.4560	 4.3910
 0.4570	 4.3980
 0.4580	 4.4080
 0.4590	 4.4210
 0.4600	 4.4410
 0.4610	 4.4480
 0.4620	 4.4490
 0.4630	 4.4570
 0.4640	 4.4690
 0.4650	 4.4770
 0.4660	 4.4850
 0.4670	 4.5060
 0.4680	 4.5100
 0.4690	 4.5080
 0.4700	 4.5160
 0.4710	 4.5240
 0.4720	 4.5360
 0.4730	 4.5490
 0.4740	 4.5610
 0.4750	 4.5600
 0.4760	 4.5590
 0.4770	 4.5620
 0.4780	 4.5650
 0.4790	 4.5670
 0.4800	 4.5730
 0.4810	 4.5870
 0.4820	 4.5940
 0.4830	 4.6030
 0.4840	 4.6160
 0.4850	 4.6300
 0.4860	 4.6390
 0.4870	 4.6470
 0.4880	 4.6570
 0.4890	 4.6770
 0.4900	 4.6890
 0.4910	 4.6970
 0.4920	 4.7130
 0.4930	 4.7390
 0.4940	 4.7640
 0.4950	 4.7850
 0.4960	 4.8100
 0.4970	 4.8350
 0.4980	 4.8600
 0.4990	 4.8880
 0.5000	 4.9270
 0.5010	 4.9630
 0.5020	 4.9980
 0.5030	 5.0400
 0.5040	 5.0900
 0.5050	 5.1480
 0.5060	 5.2120
 0.5070	 5.2810
 0.5080	 5.3540
 0.5090	 5.4350
 0.5100	 5.5240
 0.5110	 5.6210
 0.5120	 5.7300
 0.5130	 5.8480
 0.5140	 5.9730
 0.5150	 6.1040
 0.5160	 6.2430
 0.5170	 6.3930
 0.5180	 6.5590
 0.5190	 6.7350
 0.5200	 6.9140
 0.5210	 7.0910
 0.5220	 7.2760
 0.5230	 7.4670
 0.5240	 7.6610
 0.5250	 7.8530
 0.5260	 8.0400
 0.5270	 8.2220
 0.5280	 8.3970
 0.5290	 8.5650
 0.5300	 8.7250
 0.5310	 8.8750
 0.5320	 9.0140
 0.5330	 9.1510
 0.5340	 9.2810
 0.5350	 9.3960
 0.5360	 9.5070
 0.5370	 9.6090
 0.5380	 9.7040
 0.5390	 9.7950
 0.5400	 9.8840
 0.5410	 9.9720
 0.5420	10.0590
 0.5430	10.1400
 0.5440	10.2160
 0.5450	10.2850
 0.5460	10.3460
 0.5470	10.3910
 0.5480	10.4360
 0.5490	10.4850
 0.5500	10.5180
 0.5510	10.5460
 0.5520	10.5660
 0.5530	10.5730
 0.5540	10.5620
 0.5550	10.5460
 0.5560	10.5240
 0.5570	10.4870
 0.5580	10.4390
 0.5590	10.3840
 0.5600	10.3240
 0.5610	10.2560
 0.5620	10.1790
 0.5630	10.0970
 0.5640	10.0120
 0.5650	 9.9150
 0.5660	 9.8130
 0.5670	 9.7110
 0.5680	 9.6040
 0.5690	 9.4870
 0.5700	 9.3650
 0.5710	 9.2460
 0.5720	 9.1300
 0.5730	 9.0190
 0.5740	 8.9130
 0.5750	 8.8050
 0.5760	 8.7170
 0.5770	 8.6410
 0.5780	 8.5690
 0.5790	 8.5040
 0.5800	 8.4370
 0.5810	 8.3710
 0.5820	 8.3120
 0.5830	 8.2510
 0.5840	 8.1950
 0.5850	 8.1460
 0.5860	 8.1030
 0.5870	 8.0680
 0.5880	 8.0340
 0.5890	 7.9970
 0.5900	 7.9700
 0.5910	 7.9500
 0.5920	 7.9310
 0.5930	 7.9060
 0.5940	 7.8870
 0.5950	 7.8710
 0.5960	 7.8560
 0.5970	 7.8450
 0.5980	 7.8350
 0.5990	 7.8210
 0.6000	 7.7990
 0.6010	 7.7730
 0.6020	 7.7420
 0.6030	 7.7080
 0.6040	 7.6710
 0.6050	 7.6290
 0.6060	 7.5800
 0.6070	 7.5260
 0.6080	 7.4710
 0.6090	 7.4180
 0.6100	 7.3660
 0.6110	 7.3160
 0.6120	 7.2560
 0.6130	 7.1890
 0.6140	 7.1220
 0.6150	 7.0630
 0.6160	 7.0070
 0.6170	 6.9560
 0.6180	 6.9090
 0.6190	 6.8720
 0.6200	 6.8410
 0.6210	 6.8120
 0.6220	 6.7810
 0.6230	 6.7590
 0.6240	 6.7400
 0.6250	 6.7220
 0.6260	 6.7090
 0.6270	 6.7010
 0.6280	 6.6970
 0.6290	 6.6950
 0.6300	 6.6930
 0.6310	 6.6890
 0.6320	 6.6820
 0.6330	 6.6760
 0.6340	 6.6650
 0.6350	 6.6510
 0.6360	 6.6350
 0.6370	 6.6070
 0.6380	 6.5720
 0.6390	 6.5340
 0.6400	 6.4940
 0.6410	 6.4510
 0.6420	 6.4050
 0.6430	 6.3550
 0.6440	 6.2990
 0.6450	 6.2460
 0.6460	 6.1920
 0.6470	 6.1370
 0.6480	 6.0900
 0.6490	 6.0450
 0.6500	 6.0030
 0.6510	 5.9680
 0.6520	 5.9330
 0.6530	 5.8960
 0.6540	 5.8580
 0.6550	 5.8230
 0.6560	 5.7850
 0.6570	 5.7430
 0.6580	 5.6980
 0.6590	 5.6510
 0.6600	 5.6070
 0.6610	 5.5640
 0.6620	 5.5190
 0.6630	 5.4780
 0.6640	 5.4410
 0.6650	 5.4080
 0.6660	 5.3820
 0.6670	 5.3600
 0.6680	 5.3410
 0.6690	 5.3240
 0.6700	 5.3160
 0.6710	 5.3100
 0.6720	 5.3050
 0.6730	 5.3050
 0.6740	 5.3070
 0.6750	 5.3100
 0.6760	 5.3180
 0.6770	 5.3330
 0.6780	 5.3450
 0.6790	 5.3560
 0.6800	 5.3760
 0.6810	 5.4040
 0.6820	 5.4350
 0.6830	 5.4700
 0.6840	 5.5160
 0.6850	 5.5760
 0.6860	 5.6520
 0.6870	 5.7480
 0.6880	 5.8710
 0.6890	 6.0240
 0.6900	 6.2140
 0.6910	 6.4470
 0.6920	 6.7310
 0.6930	 7.0650
 0.6940	 7.4510
 0.6950	 7.8960
 0.6960	 8.3930
 0.6970	 8.9430
 0.6980	 9.5440
 0.6990	10.1960
 0.7000	10.8930
 0.7010	11.6290
 0.7020	12.3980
 0.7030	13.1970
 0.7040	14.0190
 0.7050	14.8570
 0.7060	15.7130
 0.7070	16.5810
 0.7080	17.4610
 0.7090	18.3520
 0.7100	19.2440
 0.7110	20.1400
 0.7120	21.0420
 0.7130	21.9480
 0.7140	22.8520
 0.7150	23.7580
 0.7160	24.6650
 0.7170	25.5630
 0.7180	26.4520
 0.7190	27.3340
 0.7200	28.2070
 0.7210	29.0710
 0.7220	29.9190
 0.7230	30.7460
 0.7240	31.5500
 0.7250	32.3340
 0.7260	33.0930
 0.7270	33.8250
 0.7280	34.5280
 0.7290	35.2030
 0.7300	35.8510
 0.7310	36.4700
 0.7320	37.0530
 0.7330	37.6080
 0.7340	38.1380
 0.7350	38.6420
 0.7360	39.1170
 0.7370	39.5640
 0.7380	39.9860
 0.7390	40.3840
 0.7400	40.7670
 0.7410	41.1260
 0.7420	41.4510
 0.7430	41.7650
 0.7440	42.0590
 0.7450	42.3300
 0.7460	42.5800
 0.7470	42.8160
 0.7480	43.0380
 0.7490	43.2420
 0.7500	43.4290
 0.7510	43.6060
 0.7520	43.7670
 0.7530	43.9070
 0.7540	44.0390
 0.7550	44.1670
 0.7560	44.2870
 0.7570	44.3970
 0.7580	44.4930
 0.7590	44.5810
 0.7600	44.6680
 0.7610	44.7520
 0.7620	44.8220
 0.7630	44.8840
 0.7640	44.9480
 0.7650	44.9940
 0.7660	45.0470
 0.7670	45.1060
 0.7680	45.1550
 0.7690	45.1990
 0.7700	45.2460
 0.7710	45.2930
 0.7720	45.3200
 0.7730	45.3540
 0.7740	45.3890
 0.7750	45.4180
 0.7760	45.4610
 0.7770	45.4930
 0.7780	45.5140
 0.7790	45.5370
 0.7800	45.5700
 0.7810	45.5980
 0.7820	45.6190
 0.7830	45.6500
 0.7840	45.6800
 0.7850	45.7030
 0.7860	45.7230
 0.7870	45.7570
 0.7880	45.7770
 0.7890	45.7940
 0.7900	45.8240
 0.7910	45.8380
 0.7920	45.8460
 0.7930	45.8590
 0.7940	45.8830
 0.7950	45.9030
 0.7960	45.9190
 0.7970	45.9330
 0.7980	45.9550
 0.7990	45.9650
 0.8000	45.9690
 0.8010	45.9750
 0.8020	45.9850
 0.8030	46.0000
 0.8040	46.0150
 0.8050	46.0250
 0.8060	46.0280
 0.8070	46.0270
 0.8080	46.0290
 0.8090	46.0380
 0.8100	46.0450
 0.8110	46.0470
 0.8120	46.0480
 0.8130	46.0510
 0.8140	46.0450
 0.8150	46.0390
 0.8160	46.0440
 0.8170	46.0490
 0.8180	46.0420
 0.8190	46.0350
 0.8200	46.0400
 0.8210	46.0370
 0.8220	46.0250
 0.8230	46.0130
 0.8240	46.0220
 0.8250	46.0150
 0.8260	45.9980
 0.8270	45.9820
 0.8280	45.9710
 0.8290	45.9640
 0.8300	45.9530
 0.8310	45.9360
 0.8320	45.9160
 0.8330	45.9040
 0.8340	45.8930
 0.8350	45.8780
 0.8360	45.8780
 0.8370	45.8830
 0.8380	45.8840
 0.8390	45.8720
 0.8400	45.8690
 0.8410	45.8750
 0.8420	45.8800
 0.8430	45.8620
 0.8440	45.8630
 0.8450	45.8710
 0.8460	45.8730
 0.8470	45.8740
 0.8480	45.8770
 0.8490	45.8870
 0.8500	45.9020
 0.8510	45.8970
 0.8520	45.8940
 0.8530	45.8990
 0.8540	45.9090
 0.8550	45.9180
 0.8560	45.9220
 0.8570	45.9240
 0.8580	45.9320
 0.8590	45.9400
 0.8600	45.9470
 0.8610	45.9500
 0.8620	45.9410
 0.8630	45.9490
 0.8640	45.9620
 0.8650	45.9650
 0.8660	45.9620
 0.8670	45.9640
 0.8680	45.9740
 0.8690	45.9900
 0.8700	46.0030
 0.8710	46.0100
 0.8720	46.0150
 0.8730	46.0240
 0.8740	46.0300
 0.8750	46.0400
 0.8760	46.0510
 0.8770	46.0560
 0.8780	46.0630
 0.8790	46.0720
 0.8800	46.0780
 0.8810	46.0770
 0.8820	46.0810
 0.8830	46.0890
 0.8840	46.0950
 0.8850	46.1000
 0.8860	46.1030
 0.8870	46.1080
 0.8880	46.1180
 0.8890	46.1230
 0.8900	46.1270
 0.8910	46.1280
 0.8920	46.1270
 0.8930	46.1390
 0.8940	46.1420
 0.8950	46.1380
 0.8960	46.1410
 0.8970	46.1430
 0.8980	46.1440
 0.8990	46.1460
 0.9000	46.1470
 0.9010	46.1480
 0.9020	46.1480
 0.9030	46.1490
 0.9040	46.1570
 0.9050	46.1520
 0.9060	46.1460
 0.9070	46.1490
 0.9080	46.1610
 0.9090	46.1560
 0.9100	46.1440
 0.9110	46.1420
 0.9120	46.1420
 0.9130	46.1410
 0.9140	46.1380
 0.9150	46.1290
 0.9160	46.1140
 0.9170	46.1010
 0.9180	46.0890
 0.9190	46.0740
 0.9200	46.0710
 0.9210	46.0610
 0.9220	46.0430
 0.9230	46.0210
 0.9240	45.9710
 0.9250	45.9350
 0.9260	45.9140
 0.9270	45.8750
 0.9280	45.8230
 0.9290	45.7770
 0.9300	45.7360
 0.9310	45.6820
 0.9320	45.6260
 0.9330	45.5710
 0.9340	45.5100
 0.9350	45.4350
 0.9360	45.3790
 0.9370	45.3170
 0.9380	45.2350
 0.9390	45.1470
 0.9400	45.0760
 0.9410	45.0110
 0.9420	44.9370
 0.9430	44.8400
 0.9440	44.7300
 0.9450	44.6210
 0.9460	44.5170
 0.9470	44.4020
 0.9480	44.2800
 0.9490	44.1510
 0.9500	44.0140
 0.9510	43.8490
 0.9520	43.6800
 0.9530	43.5180
 0.9540	43.3600
 0.9550	43.1790
 0.9560	43.0030
 0.9570	42.8470
 0.9580	42.7110
 0.9590	42.5780
 0.9600	42.4650
 0.9610	42.3670
 0.9620	42.2740
 0.9630	42.1750
 0.9640	42.1040
 0.9650	42.0490
 0.9660	41.9910
 0.9670	41.9480
 0.9680	41.9280
 0.9690	41.9150
 0.9700	41.8890
 0.9710	41.8730
 0.9720	41.8510
 0.9730	41.8290
 0.9740	41.8160
 0.9750	41.8090
 0.9760	41.8150
 0.9770	41.8220
 0.9780	41.8170
 0.9790	41.8250
 0.9800	41.8410
 0.9810	41.8620
 0.9820	41.8850
 0.9830	41.9090
 0.9840	41.9400
 0.9850	41.9820
 0.9860	42.0300
 0.9870	42.0560
 0.9880	42.1020
 0.9890	42.1670
 0.9900	42.2250
 0.9910	42.2440
 0.9920	42.3760
 0.9930	42.5080
 0.9940	42.6400
 0.9950	42.7710
 0.9960	42.9030
 0.9970	43.0350
 0.9980	43.1670
 0.9990	43.2990
 1.0000	43.4310
 1.0010	43.5630
 1.0020	43.6950
 1.0030	43.8270
 1.0040	43.9590
 1.0050	44.0910
 1.0060	44.2220
 1.0070	44.3540
 1.0080	44.4860
 1.0090	44.6180
 1.0100	44.6180
 1.0110	44.6810
 1.0120	44.7460
 1.0130	44.8130
 1.0140	44.8800
 1.0150	44.9490
 1.0160	45.0120
 1.0170	45.0730
 1.0180	45.1360
 1.0190	45.1960
 1.0200	45.2520
 1.0210	45.3130
 1.0220	45.3770
 1.0230	45.4370
 1.0240	45.5000
 1.0250	45.5570
 1.0260	45.6080
 1.0270	45.6620
 1.0280	45.7170
 1.0290	45.7710
 1.0300	45.8270
 1.0310	45.8810
 1.0320	45.9340
 1.0330	45.9820
 1.0340	46.0310
 1.0350	46.0790
 1.0360	46.1240
 1.0370	46.1660
 1.0380	46.2090
 1.0390	46.2510
 1.0400	46.2940
 1.0410	46.3400
 1.0420	46.3810
 1.0430	46.4210
 1.0440	46.4580
 1.0450	46.4910
 1.0460	46.5250
 1.0470	46.5610
 1.0480	46.5930
 1.0490	46.6230
 1.0500	46.6510
 1.0510	46.6760
 1.0520	46.6970
 1.0530	46.7200
 1.0540	46.7450
 1.0550	46.7660
 1.0560	46.7830
 1.0570	46.8040
 1.0580	46.8260
 1.0590	46.8440
 1.0600	46.8680
 1.0610	46.8830
 1.0620	46.8900
 1.0630	46.9020
 1.0640	46.9130
 1.0650	46.9230
 1.0660	46.9370
 1.0670	46.9460
 1.0680	46.9530
 1.0690	46.9570
 1.0700	46.9620
 1.0710	46.9650
 1.0720	46.9660
 1.0730	46.9660
 1.0740	46.9650
 1.0750	46.9600
 1.0760	46.9550
 1.0770	46.9520
 1.0780	46.9460
 1.0790	46.9370
 1.0800	46.9280
 1.0810	46.9180
 1.0820	46.9070
 1.0830	46.8990
 1.0840	46.8860
 1.0850	46.8710
 1.0860	46.8540
 1.0870	46.8360
 1.0880	46.8150
 1.0890	46.7950
 1.0900	46.7760
 1.0910	46.7520
 1.0920	46.7230
 1.0930	46.6970
 1.0940	46.6690
 1.0950	46.6400
 1.0960	46.6140
 1.0970	46.5840
 1.0980	46.5510
 1.0990	46.5190
 1.1000	46.4880
 1.1010	46.4540
 1.1020	46.4190
 1.1030	46.3810
 1.1040	46.3380
 1.1050	46.2940
 1.1060	46.2520
 1.1070	46.2120
 1.1080	46.1670
 1.1090	46.1260
 1.1100	46.0780
 1.1110	46.0260
 1.1120	45.9740
 1.1130	45.9230
 1.1140	45.8660
 1.1150	45.8060
 1.1160	45.7410
 1.1170	45.6750
 1.1180	45.6010
 1.1190	45.5240
 1.1200	45.4400
 1.1210	45.3500
 1.1220	45.2520
 1.1230	45.1440
 1.1240	45.0260
 1.1250	44.8950
 1.1260	44.7540
 1.1270	44.5970
 1.1280	44.4310
 1.1290	44.2470
 1.1300	44.0500
 1.1310	43.8360
 1.1320	43.6080
 1.1330	43.3640
 1.1340	43.1040
 1.1350	42.8290
 1.1360	42.5380
 1.1370	42.2320
 1.1380	41.9160
 1.1390	41.5910
 1.1400	41.2560
 1.1410	40.9210
 1.1420	40.5830
 1.1430	40.2440
 1.1440	39.9130
 1.1450	39.5800
 1.1460	39.2620
 1.1470	38.9450
 1.1480	38.6500
 1.1490	38.3630
 1.1500	38.1020
 1.1510	37.8590
 1.1520	37.6340
 1.1530	37.4280
 1.1540	37.2420
 1.1550	37.0730
 1.1560	36.9220
 1.1570	36.7900
 1.1580	36.6770
 1.1590	36.5780
 1.1600	36.4940
 1.1610	36.4240
 1.1620	36.3630
 1.1630	36.3120
 1.1640	36.2710
 1.1650	36.2370
 1.1660	36.2130
 1.1670	36.1910
 1.1680	36.1770
 1.1690	36.1620
 1.1700	36.1510
 1.1710	36.1410
 1.1720	36.1330
 1.1730	36.1240
 1.1740	36.1160
 1.1750	36.1060
 1.1760	36.0980
 1.1770	36.0880
 1.1780	36.0800
 1.1790	36.0720
 1.1800	36.0600
 1.1810	36.0450
 1.1820	36.0290
 1.1830	36.0130
 1.1840	35.9990
 1.1850	35.9870
 1.1860	35.9730
 1.1870	35.9590
 1.1880	35.9460
 1.1890	35.9320
 1.1900	35.9230
 1.1910	35.9180
 1.1920	35.9140
 1.1930	35.9140
 1.1940	35.9160
 1.1950	35.9200
 1.1960	35.9270
 1.1970	35.9380
 1.1980	35.9500
 1.1990	35.9640
 1.2000	35.9800
 1.2010	35.9980
 1.2020	36.0210
 1.2030	36.0480
 1.2040	36.0760
 1.2050	36.1090
 1.2060	36.1410
 1.2070	36.1750
 1.2080	36.2110
 1.2090	36.2470
 1.2100	36.2870
 1.2110	36.3290
 1.2120	36.3740
 1.2130	36.4200
 1.2140	36.4690
 1.2150	36.5180
 1.2160	36.5670
 1.2170	36.6160
 1.2180	36.6660
 1.2190	36.7180
 1.2200	36.7700
 1.2210	36.8240
 1.2220	36.8780
 1.2230	36.9310
 1.2240	36.9820
 1.2250	37.0330
 1.2260	37.0830
 1.2270	37.1320
 1.2280	37.1810
 1.2290	37.2290
 1.2300	37.2760
 1.2310	37.3200
 1.2320	37.3640
 1.2330	37.4070
 1.2340	37.4490
 1.2350	37.4890
 1.2360	37.5290
 1.2370	37.5670
 1.2380	37.6060
 1.2390	37.6430
 1.2400	37.6790
 1.2410	37.7160
 1.2420	37.7500
 1.2430	37.7820
 1.2440	37.8160
 1.2450	37.8460
 1.2460	37.8750
 1.2470	37.9040
 1.2480	37.9320
 1.2490	37.9600
 1.2500	37.9870
 1.2510	38.0100
 1.2520	38.0320
 1.2530	38.0510
 1.2540	38.0700
 1.2550	38.0890
 1.2560	38.1080
 1.2570	38.1220
 1.2580	38.1320
 1.2590	38.1400
 1.2600	38.1430
 1.2610	38.1460
 1.2620	38.1480
 1.2630	38.1500
 1.2640	38.1490
 1.2650	38.1480
 1.2660	38.1430
 1.2670	38.1340
 1.2680	38.1250
 1.2690	38.1130
 1.2700	38.0980
 1.2710	38.0840
 1.2720	38.0680
 1.2730	38.0460
 1.2740	38.0210
 1.2750	37.9950
 1.2760	37.9660
 1.2770	37.9340
 1.2780	37.9000
 1.2790	37.8630
 1.2800	37.8220
 1.2810	37.7790
 1.2820	37.7350
 1.2830	37.6870
 1.2840	37.6330
 1.2850	37.5760
 1.2860	37.5180
 1.2870	37.4550
 1.2880	37.3870
 1.2890	37.3180
 1.2900	37.2450
 1.2910	37.1650
 1.2920	37.0830
 1.2930	36.9980
 1.2940	36.9090
 1.2950	36.8170
 1.2960	36.7190
 1.2970	36.6150
 1.2980	36.5050
 1.2990	36.3900
 1.3000	36.2720
 1.3010	36.1510
 1.3020	36.0250
 1.3030	35.8940
 1.3040	35.7570
 1.3050	35.6140
 1.3060	35.4670
 1.3070	35.3150
 1.3080	35.1610
 1.3090	35.0010
 1.3100	34.8350
 1.3110	34.6660
 1.3120	34.4900
 1.3130	34.3110
 1.3140	34.1270
 1.3150	33.9390
 1.3160	33.7460
 1.3170	33.5500
 1.3180	33.3480
 1.3190	33.1410
 1.3200	32.9310
 1.3210	32.7140
 1.3220	32.4930
 1.3230	32.2690
 1.3240	32.0410
 1.3250	31.8140
 1.3260	31.5820
 1.3270	31.3480
 1.3280	31.1130
 1.3290	30.8750
 1.3300	30.6360
 1.3310	30.3970
 1.3320	30.1570
 1.3330	29.9180
 1.3340	29.6780
 1.3350	29.4400
 1.3360	29.2030
 1.3370	28.9660
 1.3380	28.7330
 1.3390	28.5010
 1.3400	28.2720
 1.3410	28.0490
 1.3420	27.8280
 1.3430	27.6110
 1.3440	27.3980
 1.3450	27.1880
 1.3460	26.9790
 1.3470	26.7760
 1.3480	26.5750
 1.3490	26.3780
 1.3500	26.1860
 1.3510	25.9950
 1.3520	25.8060
 1.3530	25.6220
 1.3540	25.4370
 1.3550	25.2530
 1.3560	25.0700
 1.3570	24.8860
 1.3580	24.7020
 1.3590	24.5160
 1.3600	24.3250
 1.3610	24.1300
 1.3620	23.9290
 1.3630	23.7240
 1.3640	23.5120
 1.3650	23.2920
 1.3660	23.0660
 1.3670	22.8290
 1.3680	22.5820
 1.3690	22.3220
 1.3700	22.0480
 1.3710	21.7610
 1.3720	21.4600
 1.3730	21.1440
 1.3740	20.8150
 1.3750	20.4680
 1.3760	20.1040
 1.3770	19.7230
 1.3780	19.3220
 1.3790	18.9060
 1.3800	18.4770
 1.3810	18.0320
 1.3820	17.5810
 1.3830	17.1200
 1.3840	16.6550
 1.3850	16.1810
 1.3860	15.7110
 1.3870	15.2330
 1.3880	14.7670
 1.3890	14.3030
 1.3900	13.8470
 1.3910	13.4050
 1.3920	12.9730
 1.3930	12.5520
 1.3940	12.1480
 1.3950	11.7540
 1.3960	11.3780
 1.3970	11.0210
 1.3980	10.6810
 1.3990	10.3650
 1.4000	10.0680
 1.4010	 9.7880
 1.4020	 9.5280
 1.4030	 9.2840
 1.4040	 9.0570
 1.4050	 8.8490
 1.4060	 8.6560
 1.4070	 8.4800
 1.4080	 8.3180
 1.4090	 8.1680
 1.4100	 8.0330
 1.4110	 7.9080
 1.4120	 7.7940
 1.4130	 7.6910
 1.4140	 7.5960
 1.4150	 7.5110
 1.4160	 7.4330
 1.4170	 7.3620
 1.4180	 7.2990
 1.4190	 7.2400
 1.4200	 7.1880
 1.4210	 7.1400
 1.4220	 7.0980
 1.4230	 7.0600
 1.4240	 7.0250
 1.4250	 6.9940
 1.4260	 6.9670
 1.4270	 6.9430
 1.4280	 6.9220
 1.4290	 6.9030
 1.4300	 6.8870
 1.4310	 6.8730
 1.4320	 6.8610
 1.4330	 6.8510
 1.4340	 6.8420
 1.4350	 6.8350
 1.4360	 6.8310
 1.4370	 6.8280
 1.4380	 6.8260
 1.4390	 6.8260
 1.4400	 6.8270
 1.4410	 6.8280
 1.4420	 6.8300
 1.4430	 6.8320
 1.4440	 6.8360
 1.4450	 6.8410
 1.4460	 6.8460
 1.4470	 6.8540
 1.4480	 6.8600
 1.4490	 6.8680
 1.4500	 6.8760
 1.4510	 6.8830
 1.4520	 6.8930
 1.4530	 6.9020
 1.4540	 6.9120
 1.4550	 6.9240
 1.4560	 6.9360
 1.4570	 6.9490
 1.4580	 6.9640
 1.4590	 6.9780
 1.4600	 6.9950
 1.4610	 7.0120
 1.4620	 7.0310
 1.4630	 7.0520
 1.4640	 7.0760
 1.4650	 7.1010
 1.4660	 7.1290
 1.4670	 7.1580
 1.4680	 7.1900
 1.4690	 7.2240
 1.4700	 7.2600
 1.4710	 7.2980
 1.4720	 7.3380
 1.4730	 7.3800
 1.4740	 7.4230
 1.4750	 7.4670
 1.4760	 7.5130
 1.4770	 7.5600
 1.4780	 7.6080
 1.4790	 7.6590
 1.4800	 7.7100
 1.4810	 7.7620
 1.4820	 7.8160
 1.4830	 7.8710
 1.4840	 7.9260
 1.4850	 7.9820
 1.4860	 8.0400
 1.4870	 8.0990
 1.4880	 8.1590
 1.4890	 8.2190
 1.4900	 8.2790
 1.4910	 8.3390
 1.4920	 8.4010
 1.4930	 8.4650
 1.4940	 8.5290
 1.4950	 8.5940
 1.4960	 8.6590
 1.4970	 8.7240
 1.4980	 8.7890
 1.4990	 8.8570
 1.5000	 8.9240
 1.5010	 8.9920
 1.5020	 9.0610
 1.5030	 9.1300
 1.5040	 9.2000
 1.5050	 9.2700
 1.5060	 9.3400
 1.5070	 9.4120
 1.5080	 9.4830
 1.5090	 9.5550
 1.5100	 9.6260
 1.5110	 9.6980
 1.5120	 9.7710
 1.5130	 9.8430
 1.5140	 9.9160
 1.5150	 9.9880
 1.5160	10.0610
 1.5170	10.1350
 1.5180	10.2080
 1.5190	10.2820
 1.5200	10.3570
 1.5210	10.4310
 1.5220	10.5050
 1.5230	10.5790
 1.5240	10.6520
 1.5250	10.7260
 1.5260	10.8010
 1.5270	10.8740
 1.5280	10.9490
 1.5290	11.0240
 1.5300	11.0970
 1.5310	11.1720
 1.5320	11.2460
 1.5330	11.3200
 1.5340	11.3930
 1.5350	11.4650
 1.5360	11.5390
 1.5370	11.6110
 1.5380	11.6840
 1.5390	11.7570
 1.5400	11.8290
 1.5410	11.9010
 1.5420	11.9740
 1.5430	12.0460
 1.5440	12.1180
 1.5450	12.1910
 1.5460	12.2630
 1.5470	12.3350
 1.5480	12.4070
 1.5490	12.4790
 1.5500	12.5500
 1.5510	12.6210
 1.5520	12.6920
 1.5530	12.7620
 1.5540	12.8310
 1.5550	12.8990
 1.5560	12.9680
 1.5570	13.0370
 1.5580	13.1050
 1.5590	13.1730
 1.5600	13.2400
 1.5610	13.3060
 1.5620	13.3710
 1.5630	13.4360
 1.5640	13.5000
 1.5650	13.5640
 1.5660	13.6290
 1.5670	13.6930
 1.5680	13.7580
 1.5690	13.8210
 1.5700	13.8840
 1.5710	13.9460
 1.5720	14.0080
 1.5730	14.0700
 1.5740	14.1310
 1.5750	14.1920
 1.5760	14.2530
 1.5770	14.3120
 1.5780	14.3730
 1.5790	14.4330
 1.5800	14.4920
 1.5810	14.5520
 1.5820	14.6100
 1.5830	14.6680
 1.5840	14.7270
 1.5850	14.7850
 1.5860	14.8420
 1.5870	14.9000
 1.5880	14.9570
 1.5890	15.0150
 1.5900	15.0710
 1.5910	15.1270
 1.5920	15.1830
 1.5930	15.2370
 1.5940	15.2920
 1.5950	15.3470
 1.5960	15.4020
 1.5970	15.4560
 1.5980	15.5100
 1.5990	15.5640
 1.6000	15.6160
 1.6010	15.6670
 1.6020	15.7190
 1.6030	15.7710
 1.6040	15.8220
 1.6050	15.8730
 1.6060	15.9220
 1.6070	15.9700
 1.6080	16.0190
 1.6090	16.0680
 1.6100	16.1150
 1.6110	16.1620
 1.6120	16.2070
 1.6130	16.2510
 1.6140	16.2950
 1.6150	16.3390
 1.6160	16.3820
 1.6170	16.4250
 1.6180	16.4670
 1.6190	16.5090
 1.6200	16.5490
 1.6210	16.5890
 1.6220	16.6290
 1.6230	16.6680
 1.6240	16.7070
 1.6250	16.7440
 1.6260	16.7820
 1.6270	16.8190
 1.6280	16.8560
 1.6290	16.8900
 1.6300	16.9230
 1.6310	16.9560
 1.6320	16.9880
 1.6330	17.0180
 1.6340	17.0480
 1.6350	17.0750
 1.6360	17.1000
 1.6370	17.1230
 1.6380	17.1460
 1.6390	17.1670
 1.6400	17.1870
 1.6410	17.2050
 1.6420	17.2210
 1.6430	17.2350
 1.6440	17.2450
 1.6450	17.2550
 1.6460	17.2630
 1.6470	17.2700
 1.6480	17.2750
 1.6490	17.2770
 1.6500	17.2770
 1.6510	17.2760
 1.6520	17.2750
 1.6530	17.2740
 1.6540	17.2710
 1.6550	17.2670
 1.6560	17.2610
 1.6570	17.2550
 1.6580	17.2500
 1.6590	17.2450
 1.6600	17.2390
 1.6610	17.2350
 1.6620	17.2310
 1.6630	17.2280
 1.6640	17.2270
 1.6650	17.2270
 1.6660	17.2280
 1.6670	17.2300
 1.6680	17.2320
 1.6690	17.2350
 1.6700	17.2380
 1.6710	17.2410
 1.6720	17.2440
 1.6730	17.2450
 1.6740	17.2460
 1.6750	17.2440
 1.6760	17.2410
 1.6770	17.2400
 1.6780	17.2350
 1.6790	17.2300
 1.6800	17.2240
 1.6810	17.2160
 1.6820	17.2060
 1.6830	17.1930
 1.6840	17.1790
 1.6850	17.1600
 1.6860	17.1410
 1.6870	17.1230
 1.6880	17.1040
 1.6890	17.0840
 1.6900	17.0620
 1.6910	17.0390
 1.6920	17.0140
 1.6930	16.9860
 1.6940	16.9590
 1.6950	16.9310
 1.6960	16.9010
 1.6970	16.8700
 1.6980	16.8380
 1.6990	16.8040
 1.7000	16.7700
 1.7010	16.7340
 1.7020	16.6970
 1.7030	16.6580
 1.7040	16.6190
 1.7050	16.5790
 1.7060	16.5380
 1.7070	16.4950
 1.7080	16.4510
 1.7090	16.4040
 1.7100	16.3600
 1.7110	16.3150
 1.7120	16.2710
 1.7130	16.2260
 1.7140	16.1800
 1.7150	16.1320
 1.7160	16.0830
 1.7170	16.0360
 1.7180	15.9880
 1.7190	15.9410
 1.7200	15.8930
 1.7210	15.8430
 1.7220	15.7940
 1.7230	15.7450
 1.7240	15.6970
 1.7250	15.6500
 1.7260	15.6040
 1.7270	15.5580
 1.7280	15.5130
 1.7290	15.4680
 1.7300	15.4250
 1.7310	15.3820
 1.7320	15.3400
 1.7330	15.2980
 1.7340	15.2570
 1.7350	15.2140
 1.7360	15.1720
 1.7370	15.1280
 1.7380	15.0830
 1.7390	15.0370
 1.7400	14.9920
 1.7410	14.9450
 1.7420	14.8970
 1.7430	14.8480
 1.7440	14.7990
 1.7450	14.7480
 1.7460	14.6950
 1.7470	14.6430
 1.7480	14.5910
 1.7490	14.5390
 1.7500	14.4860
 1.7510	14.4340
 1.7520	14.3800
 1.7530	14.3270
 1.7540	14.2740
 1.7550	14.2240
 1.7560	14.1740
 1.7570	14.1240
 1.7580	14.0750
 1.7590	14.0250
 1.7600	13.9760
 1.7610	13.9280
 1.7620	13.8810
 1.7630	13.8350
 1.7640	13.7910
 1.7650	13.7480
 1.7660	13.7060
 1.7670	13.6650
 1.7680	13.6250
 1.7690	13.5870
 1.7700	13.5500
 1.7710	13.5160
 1.7720	13.4820
 1.7730	13.4480
 1.7740	13.4140
 1.7750	13.3810
 1.7760	13.3500
 1.7770	13.3210
 1.7780	13.2920
 1.7790	13.2630
 1.7800	13.2370
 1.7810	13.2110
 1.7820	13.1880
 1.7830	13.1670
 1.7840	13.1460
 1.7850	13.1250
 1.7860	13.1070
 1.7870	13.0890
 1.7880	13.0740
 1.7890	13.0610
 1.7900	13.0480
 1.7910	13.0360
 1.7920	13.0240
 1.7930	13.0140
 1.7940	13.0060
 1.7950	12.9990
 1.7960	12.9960
 1.7970	12.9910
 1.7980	12.9870
 1.7990	12.9830
 1.8000	12.9780
 1.8010	12.9770
 1.8020	12.9770
 1.8030	12.9770
 1.8040	12.9780
 1.8050	12.9770
 1.8060	12.9740
 1.8070	12.9720
 1.8080	12.9700
 1.8090	12.9690
 1.8100	12.9680
 1.8110	12.9680
 1.8120	12.9670
 1.8130	12.9650
 1.8140	12.9620
 1.8150	12.9590
 1.8160	12.9550
 1.8170	12.9510
 1.8180	12.9460
 1.8190	12.9410
 1.8200	12.9350
 1.8210	12.9300
 1.8220	12.9230
 1.8230	12.9140
 1.8240	12.9040
 1.8250	12.8930
 1.8260	12.8810
 1.8270	12.8280
 1.8280	12.7750
 1.8290	12.7220
 1.8300	12.6690
 1.8310	12.6160
 1.8320	12.5630
 1.8330	12.5100
 1.8340	12.4570
 1.8350	12.4570
 1.8360	12.4240
 1.8370	12.3850
 1.8380	12.3450
 1.8390	12.3010
 1.8400	12.2500
 1.8410	12.1960
 1.8420	12.1400
 1.8430	12.0790
 1.8440	12.0110
 1.8450	11.9420
 1.8460	11.8680
 1.8470	11.7880
 1.8480	11.7030
 1.8490	11.6110
 1.8500	11.5130
 1.8510	11.4090
 1.8520	11.2990
 1.8530	11.1820
 1.8540	11.0590
 1.8550	10.9280
 1.8560	10.7880
 1.8570	10.6430
 1.8580	10.4920
 1.8590	10.3350
 1.8600	10.1720
 1.8610	10.0040
 1.8620	 9.8300
 1.8630	 9.6510
 1.8640	 9.4630
 1.8650	 9.2690
 1.8660	 9.0730
 1.8670	 8.8700
 1.8680	 8.6660
 1.8690	 8.4620
 1.8700	 8.2530
 1.8710	 8.0370
 1.8720	 7.8240
 1.8730	 7.6130
 1.8740	 7.4030
 1.8750	 7.2010
 1.8760	 7.0030
 1.8770	 6.8060
 1.8780	 6.6160
 1.8790	 6.4330
 1.8800	 6.2590
 1.8810	 6.0950
 1.8820	 5.9370
 1.8830	 5.7870
 1.8840	 5.6460
 1.8850	 5.5110
 1.8860	 5.3860
 1.8870	 5.2700
 1.8880	 5.1600
 1.8890	 5.0570
 1.8900	 4.9620
 1.8910	 4.8760
 1.8920	 4.7980
 1.8930	 4.7260
 1.8940	 4.6620
 1.8950	 4.6040
 1.8960	 4.5500
 1.8970	 4.5020
 1.8980	 4.4580
 1.8990	 4.4170
 1.9000	 4.3810
 1.9010	 4.3480
 1.9020	 4.3190
 1.9030	 4.2950
 1.9040	 4.2750
 1.9050	 4.2550
 1.9060	 4.2360
 1.9070	 4.2200
 1.9080	 4.2060
 1.9090	 4.1930
 1.9100	 4.1840
 1.9110	 4.1730
 1.9120	 4.1640
 1.9130	 4.1550
 1.9140	 4.1470
 1.9150	 4.1380
 1.9160	 4.1320
 1.9170	 4.1260
 1.9180	 4.1210
 1.9190	 4.1170
 1.9200	 4.1150
 1.9210	 4.1120
 1.9220	 4.1110
 1.9230	 4.1120
 1.9240	 4.1120
 1.9250	 4.1110
 1.9260	 4.1110
 1.9270	 4.1120
 1.9280	 4.1100
 1.9290	 4.1090
 1.9300	 4.1100
 1.9310	 4.1100
 1.9320	 4.1140
 1.9330	 4.1180
 1.9340	 4.1250
 1.9350	 4.1310
 1.9360	 4.1390
 1.9370	 4.1440
 1.9380	 4.1470
 1.9390	 4.1510
 1.9400	 4.1530
 1.9410	 4.1570
 1.9420	 4.1640
 1.9430	 4.1700
 1.9440	 4.1770
 1.9450	 4.1850
 1.9460	 4.1920
 1.9470	 4.1980
 1.9480	 4.2040
 1.9490	 4.2100
 1.9500	 4.2130
 1.9510	 4.2170
 1.9520	 4.2230
 1.9530	 4.2310
 1.9540	 4.2400
 1.9550	 4.2490
 1.9560	 4.2590
 1.9570	 4.2670
 1.9580	 4.2740
 1.9590	 4.2820
 1.9600	 4.2890
 1.9610	 4.2970
 1.9620	 4.3040
 1.9630	 4.3110
 1.9640	 4.3180
 1.9650	 4.3260
 1.9660	 4.3360
 1.9670	 4.3450
 1.9680	 4.3540
 1.9690	 4.3660
 1.9700	 4.3770
 1.9710	 4.3860
 1.9720	 4.3970
 1.9730	 4.4080
 1.9740	 4.4200
 1.9750	 4.4300
 1.9760	 4.4400
 1.9770	 4.4520
 1.9780	 4.4630
 1.9790	 4.4750
 1.9800	 4.4880
 1.9810	 4.4990
 1.9820	 4.5080
 1.9830	 4.5180
 1.9840	 4.5280
 1.9850	 4.5400
 1.9860	 4.5530
 1.9870	 4.5670
 1.9880	 4.5810
 1.9890	 4.5920
 1.9900	 4.6040
 1.9910	 4.6170
 1.9920	 4.6300
 1.9930	 4.6460
 1.9940	 4.6580
 1.9950	 4.6680
 1.9960	 4.6800
 1.9970	 4.6910
 1.9980	 4.7040
 1.9990	 4.7180
 2.0000	 4.7350
 2.0010	 4.7530
 2.0020	 4.7680
 2.0030	 4.7830
 2.0040	 4.7970
 2.0050	 4.8120
 2.0060	 4.8250
 2.0070	 4.8380
 2.0080	 4.8520
 2.0090	 4.8660
 2.0100	 4.8790
 2.0110	 4.8930
 2.0120	 4.9070
 2.0130	 4.9210
 2.0140	 4.9370
 2.0150	 4.9520
 2.0160	 4.9670
 2.0170	 4.9840
 2.0180	 4.9990
 2.0190	 5.0130
 2.0200	 5.0280
 2.0210	 5.0420
 2.0220	 5.0560
 2.0230	 5.0720
 2.0240	 5.0860
 2.0250	 5.1000
 2.0260	 5.1150
 2.0270	 5.1290
 2.0280	 5.1440
 2.0290	 5.1570
 2.0300	 5.1710
 2.0310	 5.1830
 2.0320	 5.1920
 2.0330	 5.2040
 2.0340	 5.2170
 2.0350	 5.2300
 2.0360	 5.2450
 2.0370	 5.2580
 2.0380	 5.2690
 2.0390	 5.2800
 2.0400	 5.2890
 2.0410	 5.2990
 2.0420	 5.3100
 2.0430	 5.3210
 2.0440	 5.3310
 2.0450	 5.3430
 2.0460	 5.3530
 2.0470	 5.3610
 2.0480	 5.3710
 2.0490	 5.3810
 2.0500	 5.3920
 2.0510	 5.4050
 2.0520	 5.4170
 2.0530	 5.4300
 2.0540	 5.4420
 2.0550	 5.4540
 2.0560	 5.4670
 2.0570	 5.4790
 2.0580	 5.4890
 2.0590	 5.4990
 2.0600	 5.5060
 2.0610	 5.5170
 2.0620	 5.5290
 2.0630	 5.5420
 2.0640	 5.5570
 2.0650	 5.5700
 2.0660	 5.5800
 2.0670	 5.5930
 2.0680	 5.6070
 2.0690	 5.6200
 2.0700	 5.6360
 2.0710	 5.6490
 2.0720	 5.6610
 2.0730	 5.6730
 2.0740	 5.6860
 2.0750	 5.6990
 2.0760	 5.7140
 2.0770	 5.7310
 2.0780	 5.7440
 2.0790	 5.7560
 2.0800	 5.7680
 2.0810	 5.7770
 2.0820	 5.7900
 2.0830	 5.8050
 2.0840	 5.8190
 2.0850	 5.8320
 2.0860	 5.8460
 2.0870	 5.8600
 2.0880	 5.8740
 2.0890	 5.8890
 2.0900	 5.9050
 2.0910	 5.9190
 2.0920	 5.9330
 2.0930	 5.9460
 2.0940	 5.9560
 2.0950	 5.9690
 2.0960	 5.9830
 2.0970	 5.9960
 2.0980	 6.0120
 2.0990	 6.0250
 2.1000	 6.0360
 2.1010	 6.0490
 2.1020	 6.0640
 2.1030	 6.0770
 2.1040	 6.0890
 2.1050	 6.1040
 2.1060	 6.1180
 2.1070	 6.1290
 2.1080	 6.1450
 2.1090	 6.1660
 2.1100	 6.1820
 2.1110	 6.1980
 2.1120	 6.2120
 2.1130	 6.2230
 2.1140	 6.2350
 2.1150	 6.2480
 2.1160	 6.2600
 2.1170	 6.2720
 2.1180	 6.2840
 2.1190	 6.2950
 2.1200	 6.3060
 2.1210	 6.3170
 2.1220	 6.3280
 2.1230	 6.3400
 2.1240	 6.3520
 2.1250	 6.3650
 2.1260	 6.3810
 2.1270	 6.3930
 2.1280	 6.4060
 2.1290	 6.4170
 2.1300	 6.4250
 2.1310	 6.4350
 2.1320	 6.4450
 2.1330	 6.4560
 2.1340	 6.4680
 2.1350	 6.4800
 2.1360	 6.4960
 2.1370	 6.5080
 2.1380	 6.5200
 2.1390	 6.5320
 2.1400	 6.5430
 2.1410	 6.5520
 2.1420	 6.5620
 2.1430	 6.5730
 2.1440	 6.5840
 2.1450	 6.5940
 2.1460	 6.6050
 2.1470	 6.6180
 2.1480	 6.6290
 2.1490	 6.6370
 2.1500	 6.6480
 2.1510	 6.6580
 2.1520	 6.6690
 2.1530	 6.6830
 2.1540	 6.6930
 2.1550	 6.7010
 2.1560	 6.7110
 2.1570	 6.7190
 2.1580	 6.7280
 2.1590	 6.7380
 2.1600	 6.7480
 2.1610	 6.7570
 2.1620	 6.7620
 2.1630	 6.7710
 2.1640	 6.7790
 2.1650	 6.7880
 2.1660	 6.7970
 2.1670	 6.8060
 2.1680	 6.8130
 2.1690	 6.8230
 2.1700	 6.8340
 2.1710	 6.8450
 2.1720	 6.8570
 2.1730	 6.8670
 2.1740	 6.8730
 2.1750	 6.8810
 2.1760	 6.8860
 2.1770	 6.8940
 2.1780	 6.9040
 2.1790	 6.9120
 2.1800	 6.9200
 2.1810	 6.9280
 2.1820	 6.9350
 2.1830	 6.9430
 2.1840	 6.9500
 2.1850	 6.9580
 2.1860	 6.9680
 2.1870	 6.9800
 2.1880	 6.9900
 2.1890	 7.0020
 2.1900	 7.0110
 2.1910	 7.0160
 2.1920	 7.0240
 2.1930	 7.0340
 2.1940	 7.0420
 2.1950	 7.0490
 2.1960	 7.0570
 2.1970	 7.0620
 2.1980	 7.0710
 2.1990	 7.0860
 2.2000	 7.0960
 2.2010	 7.1060
 2.2020	 7.1150
 2.2030	 7.1190
 2.2040	 7.1240
 2.2050	 7.1300
 2.2060	 7.1320
 2.2070	 7.1360
 2.2080	 7.1400
 2.2090	 7.1440
 2.2100	 7.1500
 2.2110	 7.1550
 2.2120	 7.1610
 2.2130	 7.1650
 2.2140	 7.1680
 2.2150	 7.1700
 2.2160	 7.1720
 2.2170	 7.1730
 2.2180	 7.1740
 2.2190	 7.1750
 2.2200	 7.1770
 2.2210	 7.1750
 2.2220	 7.1720
 2.2230	 7.1690
 2.2240	 7.1620
 2.2250	 7.1590
 2.2260	 7.1600
 2.2270	 7.1560
 2.2280	 7.1510
 2.2290	 7.1430
 2.2300	 7.1280
 2.2310	 7.1130
 2.2320	 7.1030
 2.2330	 7.0930
 2.2340	 7.0820
 2.2350	 7.0710
 2.2360	 7.0580
 2.2370	 7.0420
 2.2380	 7.0250
 2.2390	 7.0070
 2.2400	 6.9900
 2.2410	 6.9690
 2.2420	 6.9520
 2.2430	 6.9380
 2.2440	 6.9220
 2.2450	 6.9090
 2.2460	 6.8910
 2.2470	 6.8710
 2.2480	 6.8500
 2.2490	 6.8260
 2.2500	 6.8020
 2.2510	 6.7770
 2.2520	 6.7530
 2.2530	 6.7280
 2.2540	 6.7050
 2.2550	 6.6820
 2.2560	 6.6600
 2.2570	 6.6420
 2.2580	 6.6200
 2.2590	 6.5970
 2.2600	 6.5760
 2.2610	 6.5530
 2.2620	 6.5330
 2.2630	 6.5140
 2.2640	 6.4970
 2.2650	 6.4780
 2.2660	 6.4620
 2.2670	 6.4440
 2.2680	 6.4260
 2.2690	 6.4060
 2.2700	 6.3840
 2.2710	 6.3640
 2.2720	 6.3430
 2.2730	 6.3240
 2.2740	 6.3090
 2.2750	 6.2920
 2.2760	 6.2750
 2.2770	 6.2590
 2.2780	 6.2440
 2.2790	 6.2270
 2.2800	 6.2100
 2.2810	 6.1930
 2.2820	 6.1740
 2.2830	 6.1570
 2.2840	 6.1420
 2.2850	 6.1240
 2.2860	 6.1040
 2.2870	 6.0840
 2.2880	 6.0630
 2.2890	 6.0450
 2.2900	 6.0310
 2.2910	 6.0150
 2.2920	 6.0000
 2.2930	 5.9830
 2.2940	 5.9650
 2.2950	 5.9460
 2.2960	 5.9260
 2.2970	 5.9070
 2.2980	 5.8890
 2.2990	 5.8650
 2.3000	 5.8420
 2.3010	 5.8230
 2.3020	 5.8040
 2.3030	 5.7900
 2.3040	 5.7770
 2.3050	 5.7630
 2.3060	 5.7540
 2.3070	 5.7440
 2.3080	 5.7330
 2.3090	 5.7240
 2.3100	 5.7080
 2.3110	 5.6910
 2.3120	 5.6790
 2.3130	 5.6680
 2.3140	 5.6590
 2.3150	 5.6550
 2.3160	 5.6450
 2.3170	 5.6320
 2.3180	 5.6200
 2.3190	 5.6040
 2.3200	 5.5920
 2.3210	 5.5830
 2.3220	 5.5730
 2.3230	 5.5690
 2.3240	 5.5560
 2.3250	 5.5390
 2.3260	 5.5240
 2.3270	 5.5030
 2.3280	 5.4880
 2.3290	 5.4780
 2.3300	 5.4650
 2.3310	 5.4550
 2.3320	 5.4420
 2.3330	 5.4270
 2.3340	 5.4130
 2.3350	 5.3970
 2.3360	 5.3830
 2.3370	 5.3710
 2.3380	 5.3580
 2.3390	 5.3420
 2.3400	 5.3320
 2.3410	 5.3270
 2.3420	 5.3170
 2.3430	 5.3090
 2.3440	 5.2980
 2.3450	 5.2770
 2.3460	 5.2640
 2.3470	 5.2570
 2.3480	 5.2480
 2.3490	 5.2420
 2.3500	 5.2320
 2.3510	 5.2170
 2.3520	 5.2060
 2.3530	 5.1950
 2.3540	 5.1880
 2.3550	 5.1830
 2.3560	 5.1720
 2.3570	 5.1660
 2.3580	 5.1570
 2.3590	 5.1470
 2.3600	 5.1420
 2.3610	 5.1280
 2.3620	 5.1140
 2.3630	 5.1040
 2.3640	 5.0910
 2.3650	 5.0860
 2.3660	 5.0830
 2.3670	 5.0780
 2.3680	 5.0730
 2.3690	 5.0560
 2.3700	 5.0450
 2.3710	 5.0400
 2.3720	 5.0260
 2.3730	 5.0150
 2.3740	 5.0080
 2.3750	 4.9940
 2.3760	 4.9830
 2.3770	 4.9770
 2.3780	 4.9710
 2.3790	 4.9630
 2.3800	 4.9490
 2.3810	 4.9380
 2.3820	 4.9320
 2.3830	 4.9250
 2.3840	 4.9190
 2.3850	 4.9130
 2.3860	 4.9030
 2.3870	 4.8900
 2.3880	 4.8810
 2.3890	 4.8740
 2.3900	 4.8580
 2.3910	 4.8470
 2.3920	 4.8400
 2.3930	 4.8330
 2.3940	 4.8320
 2.3950	 4.8220
 2.3960	 4.8050
 2.3970	 4.7860
 2.3980	 4.7770
 2.3990	 4.7780
 2.4000	 4.7740
 2.4010	 4.7700
 2.4020	 4.7620
 2.4030	 4.7450
 2.4040	 4.7320
 2.4050	 4.7320
 2.4060	 4.7240
 2.4070	 4.7160
 2.4080	 4.7230
 2.4090	 4.7120
 2.4100	 4.6920
 2.4110	 4.6760
 2.4120	 4.6480
 2.4130	 4.6310
 2.4140	 4.6360
 2.4150	 4.6410
 2.4160	 4.6330
 2.4170	 4.6200
 2.4180	 4.5980
 2.4190	 4.5740
 2.4200	 4.5640
 2.4210	 4.5600
 2.4220	 4.5480
 2.4230	 4.5390
 2.4240	 4.5320
 2.4250	 4.5070
 2.4260	 4.4990
 2.4270	 4.4970
 2.4280	 4.4860
 2.4290	 4.4940
 2.4300	 4.4840
 2.4310	 4.4570
 2.4320	 4.4380
 2.4330	 4.4170
 2.4340	 4.4060
 2.4350	 4.4110
 2.4360	 4.4100
 2.4370	 4.4020
 2.4380	 4.3940
 2.4390	 4.3810
 2.4400	 4.3670
 2.4410	 4.3550
 2.4420	 4.3400
 2.4430	 4.3340
 2.4440	 4.3380
 2.4450	 4.3300
 2.4460	 4.3280
 2.4470	 4.3260
 2.4480	 4.3060
 2.4490	 4.3050
 2.4500	 4.3130
 2.4510	 4.2900
 2.4520	 4.2760
 2.4530	 4.2670
 2.4540	 4.2290
 2.4550	 4.2210
 2.4560	 4.2200
 2.4570	 4.2010
 2.4580	 4.2010
 2.4590	 4.1920
 2.4600	 4.1840
 2.4610	 4.1820
 2.4620	 4.1750
 2.4630	 4.1670
 2.4640	 4.1470
 2.4650	 4.1380
 2.4660	 4.1330
 2.4670	 4.1140
 2.4680	 4.1100
 2.4690	 4.0900
 2.4700	 4.0740
 2.4710	 4.0590
 2.4720	 4.0510
 2.4730	 4.0510
 2.4740	 4.0490
 2.4750	 4.0590
 2.4760	 4.0600
 2.4770	 4.0510
 2.4780	 4.0370
 2.4790	 4.0170
 2.4800	 4.0070
 2.4810	 3.9910
 2.4820	 4.0290
 2.4830	 4.0480
 2.4840	 4.0410
 2.4850	 4.0350
 2.4860	 4.0210
 2.4870	 3.9910
 2.4880	 3.9810
 2.4890	 3.9850
 2.4900	 3.9760
 2.4910	 3.9640
 2.4920	 3.9750
 2.4930	 3.9890
 2.4940	 3.9830
 2.4950	 3.9600
 2.4960	 3.9600
 2.4970	 3.9720
 2.4980	 3.9740
 2.4990	 4.0090
 2.5000	 4.0270
