Name: Betula lenta
Type: Vegetation
Class: Tree
Genus: Betula
Species: lenta
Sample No.: BELE-1-57
Owner: UCSB
Wavelength Range: VSWIR
Origin: USA; Massachusetts; Harvard Forest
Collection Date: 7/8/2013
Description: Samples were collected as part of NSF Macrosystem Biology proposal titled: Collaborative Research: Thermal controls on ecosystem metabolism and function: scaling from leaves to canopies to regions. Samples were collected and overnighted to JPL facilities for processing. The same leaves were processed in the Nicolet and then measured using the ASD.
Measurement: Bidirectional reflectance
First Column: X
Second Column: Y
X Units: Wavelength (micrometers)
Y Units: Reflectance (percentage)
First X Value: 0.35
Last X Value: 2.5
Number of X Values: 2151
Additional Information: vegetation.tree.betula.lenta.vswir.bele-1-57.ucsb.asd.ancillary.txt

 0.3500	 6.4600
 0.3510	 6.6060
 0.3520	 6.5530
 0.3530	 6.4670
 0.3540	 6.5320
 0.3550	 6.5940
 0.3560	 6.6580
 0.3570	 6.6810
 0.3580	 6.6110
 0.3590	 6.4590
 0.3600	 6.4690
 0.3610	 6.6350
 0.3620	 6.5830
 0.3630	 6.5580
 0.3640	 6.5760
 0.3650	 6.5750
 0.3660	 6.4240
 0.3670	 6.3490
 0.3680	 6.4310
 0.3690	 6.6170
 0.3700	 6.6600
 0.3710	 6.6080
 0.3720	 6.5080
 0.3730	 6.2930
 0.3740	 6.4280
 0.3750	 6.6240
 0.3760	 6.5010
 0.3770	 6.4960
 0.3780	 6.5020
 0.3790	 6.4780
 0.3800	 6.4600
 0.3810	 6.5070
 0.3820	 6.5340
 0.3830	 6.5040
 0.3840	 6.5390
 0.3850	 6.5310
 0.3860	 6.4900
 0.3870	 6.4740
 0.3880	 6.5580
 0.3890	 6.6050
 0.3900	 6.5700
 0.3910	 6.5250
 0.3920	 6.5500
 0.3930	 6.6120
 0.3940	 6.6560
 0.3950	 6.6620
 0.3960	 6.6600
 0.3970	 6.6390
 0.3980	 6.5810
 0.3990	 6.5930
 0.4000	 6.6250
 0.4010	 6.6290
 0.4020	 6.5860
 0.4030	 6.5550
 0.4040	 6.5650
 0.4050	 6.6160
 0.4060	 6.6700
 0.4070	 6.6940
 0.4080	 6.6880
 0.4090	 6.6800
 0.4100	 6.6730
 0.4110	 6.6800
 0.4120	 6.6930
 0.4130	 6.6600
 0.4140	 6.6610
 0.4150	 6.6740
 0.4160	 6.6590
 0.4170	 6.6700
 0.4180	 6.6760
 0.4190	 6.6680
 0.4200	 6.6620
 0.4210	 6.6590
 0.4220	 6.6710
 0.4230	 6.6950
 0.4240	 6.6960
 0.4250	 6.6920
 0.4260	 6.6880
 0.4270	 6.6820
 0.4280	 6.6860
 0.4290	 6.6930
 0.4300	 6.6950
 0.4310	 6.6810
 0.4320	 6.6690
 0.4330	 6.6590
 0.4340	 6.6480
 0.4350	 6.6380
 0.4360	 6.6300
 0.4370	 6.6290
 0.4380	 6.6470
 0.4390	 6.6760
 0.4400	 6.6880
 0.4410	 6.6740
 0.4420	 6.6720
 0.4430	 6.6560
 0.4440	 6.6470
 0.4450	 6.6720
 0.4460	 6.7000
 0.4470	 6.7000
 0.4480	 6.6830
 0.4490	 6.7110
 0.4500	 6.7140
 0.4510	 6.7080
 0.4520	 6.7180
 0.4530	 6.7300
 0.4540	 6.7310
 0.4550	 6.7300
 0.4560	 6.7500
 0.4570	 6.7430
 0.4580	 6.7300
 0.4590	 6.7270
 0.4600	 6.7330
 0.4610	 6.7360
 0.4620	 6.7360
 0.4630	 6.7350
 0.4640	 6.7240
 0.4650	 6.7170
 0.4660	 6.7160
 0.4670	 6.7190
 0.4680	 6.7230
 0.4690	 6.7220
 0.4700	 6.7150
 0.4710	 6.7240
 0.4720	 6.7240
 0.4730	 6.7170
 0.4740	 6.7210
 0.4750	 6.7160
 0.4760	 6.7060
 0.4770	 6.7000
 0.4780	 6.7080
 0.4790	 6.7090
 0.4800	 6.7070
 0.4810	 6.7100
 0.4820	 6.7240
 0.4830	 6.7260
 0.4840	 6.7160
 0.4850	 6.7120
 0.4860	 6.7140
 0.4870	 6.7260
 0.4880	 6.7420
 0.4890	 6.7350
 0.4900	 6.7490
 0.4910	 6.7730
 0.4920	 6.7730
 0.4930	 6.7840
 0.4940	 6.7980
 0.4950	 6.8150
 0.4960	 6.8400
 0.4970	 6.8560
 0.4980	 6.8770
 0.4990	 6.9150
 0.5000	 6.9380
 0.5010	 6.9640
 0.5020	 7.0030
 0.5030	 7.0520
 0.5040	 7.1010
 0.5050	 7.1530
 0.5060	 7.2150
 0.5070	 7.2940
 0.5080	 7.3730
 0.5090	 7.4620
 0.5100	 7.5780
 0.5110	 7.6860
 0.5120	 7.8050
 0.5130	 7.9470
 0.5140	 8.1090
 0.5150	 8.2810
 0.5160	 8.4650
 0.5170	 8.6650
 0.5180	 8.8690
 0.5190	 9.0840
 0.5200	 9.3100
 0.5210	 9.5460
 0.5220	 9.7850
 0.5230	10.0230
 0.5240	10.2540
 0.5250	10.4690
 0.5260	10.6850
 0.5270	10.8950
 0.5280	11.0880
 0.5290	11.2670
 0.5300	11.4270
 0.5310	11.5710
 0.5320	11.7130
 0.5330	11.8220
 0.5340	11.9120
 0.5350	11.9980
 0.5360	12.0670
 0.5370	12.1330
 0.5380	12.1940
 0.5390	12.2400
 0.5400	12.2700
 0.5410	12.2970
 0.5420	12.3270
 0.5430	12.3510
 0.5440	12.3790
 0.5450	12.4100
 0.5460	12.4380
 0.5470	12.4710
 0.5480	12.4970
 0.5490	12.5110
 0.5500	12.5210
 0.5510	12.5280
 0.5520	12.5260
 0.5530	12.5120
 0.5540	12.4920
 0.5550	12.4530
 0.5560	12.3960
 0.5570	12.3320
 0.5580	12.2560
 0.5590	12.1690
 0.5600	12.0730
 0.5610	11.9640
 0.5620	11.8400
 0.5630	11.7030
 0.5640	11.5590
 0.5650	11.4080
 0.5660	11.2510
 0.5670	11.0890
 0.5680	10.9290
 0.5690	10.7650
 0.5700	10.6050
 0.5710	10.4530
 0.5720	10.3100
 0.5730	10.1690
 0.5740	10.0340
 0.5750	 9.9130
 0.5760	 9.8020
 0.5770	 9.7010
 0.5780	 9.6090
 0.5790	 9.5190
 0.5800	 9.4340
 0.5810	 9.3500
 0.5820	 9.2700
 0.5830	 9.2000
 0.5840	 9.1380
 0.5850	 9.0800
 0.5860	 9.0240
 0.5870	 8.9710
 0.5880	 8.9180
 0.5890	 8.8650
 0.5900	 8.8230
 0.5910	 8.7820
 0.5920	 8.7470
 0.5930	 8.7220
 0.5940	 8.6990
 0.5950	 8.6750
 0.5960	 8.6530
 0.5970	 8.6310
 0.5980	 8.6100
 0.5990	 8.5870
 0.6000	 8.5610
 0.6010	 8.5380
 0.6020	 8.5120
 0.6030	 8.4820
 0.6040	 8.4500
 0.6050	 8.4150
 0.6060	 8.3760
 0.6070	 8.3320
 0.6080	 8.2900
 0.6090	 8.2450
 0.6100	 8.1890
 0.6110	 8.1220
 0.6120	 8.0740
 0.6130	 8.0350
 0.6140	 7.9950
 0.6150	 7.9540
 0.6160	 7.9120
 0.6170	 7.8730
 0.6180	 7.8390
 0.6190	 7.8030
 0.6200	 7.7710
 0.6210	 7.7460
 0.6220	 7.7250
 0.6230	 7.7020
 0.6240	 7.6870
 0.6250	 7.6810
 0.6260	 7.6660
 0.6270	 7.6550
 0.6280	 7.6470
 0.6290	 7.6370
 0.6300	 7.6260
 0.6310	 7.6180
 0.6320	 7.6120
 0.6330	 7.6020
 0.6340	 7.5750
 0.6350	 7.5450
 0.6360	 7.5230
 0.6370	 7.4850
 0.6380	 7.4410
 0.6390	 7.3960
 0.6400	 7.3540
 0.6410	 7.3100
 0.6420	 7.2610
 0.6430	 7.2120
 0.6440	 7.1760
 0.6450	 7.1410
 0.6460	 7.1050
 0.6470	 7.0700
 0.6480	 7.0420
 0.6490	 7.0200
 0.6500	 7.0040
 0.6510	 6.9920
 0.6520	 6.9780
 0.6530	 6.9670
 0.6540	 6.9600
 0.6550	 6.9550
 0.6560	 6.9490
 0.6570	 6.9410
 0.6580	 6.9320
 0.6590	 6.9220
 0.6600	 6.9120
 0.6610	 6.9030
 0.6620	 6.8950
 0.6630	 6.8860
 0.6640	 6.8830
 0.6650	 6.8890
 0.6660	 6.8930
 0.6670	 6.9020
 0.6680	 6.9150
 0.6690	 6.9280
 0.6700	 6.9500
 0.6710	 6.9770
 0.6720	 7.0050
 0.6730	 7.0300
 0.6740	 7.0650
 0.6750	 7.1070
 0.6760	 7.1500
 0.6770	 7.1960
 0.6780	 7.2430
 0.6790	 7.2940
 0.6800	 7.3550
 0.6810	 7.4120
 0.6820	 7.4670
 0.6830	 7.5240
 0.6840	 7.5820
 0.6850	 7.6430
 0.6860	 7.7090
 0.6870	 7.7810
 0.6880	 7.8620
 0.6890	 7.9600
 0.6900	 8.0880
 0.6910	 8.2580
 0.6920	 8.4720
 0.6930	 8.7450
 0.6940	 9.0870
 0.6950	 9.4980
 0.6960	 9.9910
 0.6970	10.5680
 0.6980	11.2220
 0.6990	11.9310
 0.7000	12.7030
 0.7010	13.5340
 0.7020	14.4150
 0.7030	15.3160
 0.7040	16.2390
 0.7050	17.1850
 0.7060	18.1230
 0.7070	19.0670
 0.7080	20.0080
 0.7090	20.9310
 0.7100	21.8570
 0.7110	22.7800
 0.7120	23.6880
 0.7130	24.5730
 0.7140	25.4470
 0.7150	26.3040
 0.7160	27.1360
 0.7170	27.9580
 0.7180	28.7570
 0.7190	29.5270
 0.7200	30.2650
 0.7210	30.9820
 0.7220	31.6830
 0.7230	32.3620
 0.7240	32.9990
 0.7250	33.5990
 0.7260	34.1740
 0.7270	34.7310
 0.7280	35.2500
 0.7290	35.7540
 0.7300	36.2300
 0.7310	36.6560
 0.7320	37.0680
 0.7330	37.4540
 0.7340	37.8150
 0.7350	38.1670
 0.7360	38.4730
 0.7370	38.7620
 0.7380	39.0500
 0.7390	39.2940
 0.7400	39.5230
 0.7410	39.7390
 0.7420	39.9300
 0.7430	40.0960
 0.7440	40.2530
 0.7450	40.4040
 0.7460	40.5380
 0.7470	40.6540
 0.7480	40.7450
 0.7490	40.8180
 0.7500	40.9090
 0.7510	40.9740
 0.7520	41.0270
 0.7530	41.0880
 0.7540	41.1110
 0.7550	41.1480
 0.7560	41.2010
 0.7570	41.2310
 0.7580	41.2390
 0.7590	41.2490
 0.7600	41.2690
 0.7610	41.2780
 0.7620	41.2960
 0.7630	41.3120
 0.7640	41.3100
 0.7650	41.3110
 0.7660	41.3110
 0.7670	41.3070
 0.7680	41.2980
 0.7690	41.2840
 0.7700	41.2750
 0.7710	41.2780
 0.7720	41.2910
 0.7730	41.2670
 0.7740	41.2460
 0.7750	41.2590
 0.7760	41.2620
 0.7770	41.2610
 0.7780	41.2590
 0.7790	41.2590
 0.7800	41.2560
 0.7810	41.2510
 0.7820	41.2460
 0.7830	41.2430
 0.7840	41.2400
 0.7850	41.2320
 0.7860	41.2220
 0.7870	41.2460
 0.7880	41.2470
 0.7890	41.2380
 0.7900	41.2490
 0.7910	41.2490
 0.7920	41.2460
 0.7930	41.2450
 0.7940	41.2430
 0.7950	41.2480
 0.7960	41.2530
 0.7970	41.2500
 0.7980	41.2370
 0.7990	41.2440
 0.8000	41.2540
 0.8010	41.2470
 0.8020	41.2340
 0.8030	41.2300
 0.8040	41.2270
 0.8050	41.2150
 0.8060	41.1990
 0.8070	41.1980
 0.8080	41.2060
 0.8090	41.2050
 0.8100	41.2050
 0.8110	41.1930
 0.8120	41.1700
 0.8130	41.1650
 0.8140	41.1710
 0.8150	41.1720
 0.8160	41.1580
 0.8170	41.1420
 0.8180	41.1240
 0.8190	41.1080
 0.8200	41.1010
 0.8210	41.1110
 0.8220	41.1070
 0.8230	41.0890
 0.8240	41.0840
 0.8250	41.0760
 0.8260	41.0740
 0.8270	41.0740
 0.8280	41.0460
 0.8290	41.0330
 0.8300	41.0270
 0.8310	41.0120
 0.8320	40.9890
 0.8330	40.9870
 0.8340	40.9940
 0.8350	40.9860
 0.8360	40.9630
 0.8370	40.9610
 0.8380	40.9730
 0.8390	40.9570
 0.8400	40.9400
 0.8410	40.9380
 0.8420	40.9460
 0.8430	40.9290
 0.8440	40.9120
 0.8450	40.9050
 0.8460	40.9050
 0.8470	40.8900
 0.8480	40.8930
 0.8490	40.9000
 0.8500	40.8910
 0.8510	40.8880
 0.8520	40.8790
 0.8530	40.8700
 0.8540	40.8740
 0.8550	40.8810
 0.8560	40.8770
 0.8570	40.8700
 0.8580	40.8880
 0.8590	40.8740
 0.8600	40.8650
 0.8610	40.8780
 0.8620	40.8730
 0.8630	40.8580
 0.8640	40.8480
 0.8650	40.8500
 0.8660	40.8500
 0.8670	40.8530
 0.8680	40.8640
 0.8690	40.8830
 0.8700	40.8720
 0.8710	40.8660
 0.8720	40.8700
 0.8730	40.8700
 0.8740	40.8790
 0.8750	40.9010
 0.8760	40.9210
 0.8770	40.9060
 0.8780	40.9040
 0.8790	40.9040
 0.8800	40.8960
 0.8810	40.8870
 0.8820	40.8730
 0.8830	40.8760
 0.8840	40.9020
 0.8850	40.9110
 0.8860	40.9240
 0.8870	40.9310
 0.8880	40.9240
 0.8890	40.9330
 0.8900	40.9450
 0.8910	40.9500
 0.8920	40.9450
 0.8930	40.9510
 0.8940	40.9640
 0.8950	40.9800
 0.8960	40.9890
 0.8970	40.9790
 0.8980	40.9780
 0.8990	40.9930
 0.9000	41.0050
 0.9010	40.9930
 0.9020	40.9940
 0.9030	41.0170
 0.9040	41.0280
 0.9050	41.0180
 0.9060	41.0150
 0.9070	41.0330
 0.9080	41.0430
 0.9090	41.0560
 0.9100	41.0600
 0.9110	41.0530
 0.9120	41.0680
 0.9130	41.0890
 0.9140	41.0870
 0.9150	41.0550
 0.9160	41.0670
 0.9170	41.0810
 0.9180	41.0980
 0.9190	41.1270
 0.9200	41.1230
 0.9210	41.1070
 0.9220	41.0980
 0.9230	41.1070
 0.9240	41.1270
 0.9250	41.1390
 0.9260	41.1370
 0.9270	41.1250
 0.9280	41.1250
 0.9290	41.1290
 0.9300	41.1310
 0.9310	41.1320
 0.9320	41.1240
 0.9330	41.1110
 0.9340	41.1010
 0.9350	41.1020
 0.9360	41.1040
 0.9370	41.1110
 0.9380	41.1210
 0.9390	41.1180
 0.9400	41.0950
 0.9410	41.0910
 0.9420	41.1130
 0.9430	41.0980
 0.9440	41.1060
 0.9450	41.1100
 0.9460	41.0880
 0.9470	41.0760
 0.9480	41.0680
 0.9490	41.0510
 0.9500	41.0250
 0.9510	41.0200
 0.9520	41.0040
 0.9530	40.9840
 0.9540	40.9690
 0.9550	40.9500
 0.9560	40.9470
 0.9570	40.9470
 0.9580	40.9300
 0.9590	40.9110
 0.9600	40.8760
 0.9610	40.8480
 0.9620	40.8500
 0.9630	40.8430
 0.9640	40.8280
 0.9650	40.8320
 0.9660	40.8700
 0.9670	40.8630
 0.9680	40.8420
 0.9690	40.8300
 0.9700	40.8330
 0.9710	40.8370
 0.9720	40.8310
 0.9730	40.8200
 0.9740	40.8150
 0.9750	40.8300
 0.9760	40.8550
 0.9770	40.8600
 0.9780	40.8250
 0.9790	40.8290
 0.9800	40.8430
 0.9810	40.8450
 0.9820	40.8280
 0.9830	40.8010
 0.9840	40.7920
 0.9850	40.8150
 0.9860	40.8660
 0.9870	40.8830
 0.9880	40.8980
 0.9890	40.8970
 0.9900	40.8570
 0.9910	40.8400
 0.9920	40.8650
 0.9930	40.8910
 0.9940	40.9160
 0.9950	40.9410
 0.9960	40.9670
 0.9970	40.9920
 0.9980	41.0170
 0.9990	41.0420
 1.0000	41.0680
 1.0010	41.0930
 1.0020	41.1180
 1.0030	41.1440
 1.0040	41.1690
 1.0050	41.1940
 1.0060	41.2190
 1.0070	41.2450
 1.0080	41.2700
 1.0090	41.2950
 1.0100	41.2950
 1.0110	41.3090
 1.0120	41.3180
 1.0130	41.3200
 1.0140	41.3240
 1.0150	41.3320
 1.0160	41.3350
 1.0170	41.3340
 1.0180	41.3420
 1.0190	41.3490
 1.0200	41.3560
 1.0210	41.3670
 1.0220	41.3750
 1.0230	41.3810
 1.0240	41.3860
 1.0250	41.3910
 1.0260	41.3900
 1.0270	41.3950
 1.0280	41.4040
 1.0290	41.4110
 1.0300	41.4220
 1.0310	41.4310
 1.0320	41.4370
 1.0330	41.4470
 1.0340	41.4540
 1.0350	41.4550
 1.0360	41.4590
 1.0370	41.4590
 1.0380	41.4620
 1.0390	41.4660
 1.0400	41.4730
 1.0410	41.4850
 1.0420	41.4930
 1.0430	41.5030
 1.0440	41.5080
 1.0450	41.5060
 1.0460	41.5090
 1.0470	41.5110
 1.0480	41.5130
 1.0490	41.5170
 1.0500	41.5210
 1.0510	41.5250
 1.0520	41.5310
 1.0530	41.5360
 1.0540	41.5390
 1.0550	41.5480
 1.0560	41.5590
 1.0570	41.5660
 1.0580	41.5780
 1.0590	41.5840
 1.0600	41.5820
 1.0610	41.5850
 1.0620	41.5890
 1.0630	41.5940
 1.0640	41.6040
 1.0650	41.6100
 1.0660	41.6170
 1.0670	41.6230
 1.0680	41.6280
 1.0690	41.6310
 1.0700	41.6350
 1.0710	41.6420
 1.0720	41.6460
 1.0730	41.6530
 1.0740	41.6540
 1.0750	41.6510
 1.0760	41.6510
 1.0770	41.6470
 1.0780	41.6480
 1.0790	41.6570
 1.0800	41.6600
 1.0810	41.6620
 1.0820	41.6670
 1.0830	41.6700
 1.0840	41.6740
 1.0850	41.6800
 1.0860	41.6860
 1.0870	41.6880
 1.0880	41.6900
 1.0890	41.6880
 1.0900	41.6840
 1.0910	41.6800
 1.0920	41.6710
 1.0930	41.6680
 1.0940	41.6670
 1.0950	41.6640
 1.0960	41.6620
 1.0970	41.6610
 1.0980	41.6590
 1.0990	41.6570
 1.1000	41.6610
 1.1010	41.6580
 1.1020	41.6520
 1.1030	41.6420
 1.1040	41.6380
 1.1050	41.6330
 1.1060	41.6260
 1.1070	41.6220
 1.1080	41.6170
 1.1090	41.6090
 1.1100	41.6040
 1.1110	41.6040
 1.1120	41.5990
 1.1130	41.5940
 1.1140	41.5870
 1.1150	41.5760
 1.1160	41.5690
 1.1170	41.5600
 1.1180	41.5530
 1.1190	41.5480
 1.1200	41.5460
 1.1210	41.5400
 1.1220	41.5330
 1.1230	41.5240
 1.1240	41.5090
 1.1250	41.4940
 1.1260	41.4790
 1.1270	41.4590
 1.1280	41.4340
 1.1290	41.4130
 1.1300	41.3930
 1.1310	41.3680
 1.1320	41.3450
 1.1330	41.3180
 1.1340	41.2870
 1.1350	41.2540
 1.1360	41.2180
 1.1370	41.1830
 1.1380	41.1410
 1.1390	41.0990
 1.1400	41.0580
 1.1410	41.0140
 1.1420	40.9670
 1.1430	40.9200
 1.1440	40.8760
 1.1450	40.8340
 1.1460	40.7910
 1.1470	40.7490
 1.1480	40.7110
 1.1490	40.6700
 1.1500	40.6350
 1.1510	40.6070
 1.1520	40.5770
 1.1530	40.5460
 1.1540	40.5200
 1.1550	40.4960
 1.1560	40.4740
 1.1570	40.4560
 1.1580	40.4420
 1.1590	40.4270
 1.1600	40.4130
 1.1610	40.4030
 1.1620	40.3950
 1.1630	40.3900
 1.1640	40.3820
 1.1650	40.3760
 1.1660	40.3700
 1.1670	40.3660
 1.1680	40.3650
 1.1690	40.3640
 1.1700	40.3680
 1.1710	40.3660
 1.1720	40.3620
 1.1730	40.3590
 1.1740	40.3520
 1.1750	40.3490
 1.1760	40.3510
 1.1770	40.3490
 1.1780	40.3470
 1.1790	40.3440
 1.1800	40.3390
 1.1810	40.3350
 1.1820	40.3300
 1.1830	40.3250
 1.1840	40.3180
 1.1850	40.3130
 1.1860	40.3090
 1.1870	40.3070
 1.1880	40.3040
 1.1890	40.3010
 1.1900	40.3000
 1.1910	40.3010
 1.1920	40.2980
 1.1930	40.2950
 1.1940	40.2940
 1.1950	40.2910
 1.1960	40.2910
 1.1970	40.2910
 1.1980	40.2910
 1.1990	40.2890
 1.2000	40.2860
 1.2010	40.2880
 1.2020	40.2930
 1.2030	40.2960
 1.2040	40.2990
 1.2050	40.3000
 1.2060	40.3010
 1.2070	40.3030
 1.2080	40.3050
 1.2090	40.3090
 1.2100	40.3150
 1.2110	40.3210
 1.2120	40.3310
 1.2130	40.3360
 1.2140	40.3380
 1.2150	40.3420
 1.2160	40.3450
 1.2170	40.3490
 1.2180	40.3590
 1.2190	40.3660
 1.2200	40.3710
 1.2210	40.3770
 1.2220	40.3810
 1.2230	40.3850
 1.2240	40.3910
 1.2250	40.3950
 1.2260	40.4010
 1.2270	40.4070
 1.2280	40.4140
 1.2290	40.4210
 1.2300	40.4280
 1.2310	40.4340
 1.2320	40.4360
 1.2330	40.4380
 1.2340	40.4420
 1.2350	40.4460
 1.2360	40.4510
 1.2370	40.4590
 1.2380	40.4660
 1.2390	40.4680
 1.2400	40.4710
 1.2410	40.4700
 1.2420	40.4720
 1.2430	40.4760
 1.2440	40.4780
 1.2450	40.4810
 1.2460	40.4820
 1.2470	40.4850
 1.2480	40.4880
 1.2490	40.4910
 1.2500	40.4960
 1.2510	40.5040
 1.2520	40.5100
 1.2530	40.5140
 1.2540	40.5190
 1.2550	40.5170
 1.2560	40.5160
 1.2570	40.5190
 1.2580	40.5140
 1.2590	40.5120
 1.2600	40.5160
 1.2610	40.5130
 1.2620	40.5070
 1.2630	40.5050
 1.2640	40.5040
 1.2650	40.4960
 1.2660	40.4930
 1.2670	40.4900
 1.2680	40.4820
 1.2690	40.4780
 1.2700	40.4730
 1.2710	40.4690
 1.2720	40.4670
 1.2730	40.4610
 1.2740	40.4560
 1.2750	40.4530
 1.2760	40.4460
 1.2770	40.4400
 1.2780	40.4350
 1.2790	40.4250
 1.2800	40.4170
 1.2810	40.4100
 1.2820	40.4010
 1.2830	40.3940
 1.2840	40.3900
 1.2850	40.3830
 1.2860	40.3760
 1.2870	40.3710
 1.2880	40.3670
 1.2890	40.3620
 1.2900	40.3560
 1.2910	40.3510
 1.2920	40.3420
 1.2930	40.3310
 1.2940	40.3220
 1.2950	40.3110
 1.2960	40.2980
 1.2970	40.2840
 1.2980	40.2690
 1.2990	40.2520
 1.3000	40.2370
 1.3010	40.2220
 1.3020	40.2030
 1.3030	40.1820
 1.3040	40.1590
 1.3050	40.1350
 1.3060	40.1090
 1.3070	40.0820
 1.3080	40.0550
 1.3090	40.0270
 1.3100	39.9970
 1.3110	39.9710
 1.3120	39.9420
 1.3130	39.9110
 1.3140	39.8790
 1.3150	39.8480
 1.3160	39.8100
 1.3170	39.7700
 1.3180	39.7290
 1.3190	39.6860
 1.3200	39.6420
 1.3210	39.6000
 1.3220	39.5560
 1.3230	39.5080
 1.3240	39.4590
 1.3250	39.4110
 1.3260	39.3620
 1.3270	39.3090
 1.3280	39.2530
 1.3290	39.1990
 1.3300	39.1450
 1.3310	39.0900
 1.3320	39.0380
 1.3330	38.9860
 1.3340	38.9320
 1.3350	38.8780
 1.3360	38.8230
 1.3370	38.7630
 1.3380	38.7020
 1.3390	38.6430
 1.3400	38.5850
 1.3410	38.5270
 1.3420	38.4710
 1.3430	38.4130
 1.3440	38.3520
 1.3450	38.2940
 1.3460	38.2370
 1.3470	38.1820
 1.3480	38.1300
 1.3490	38.0780
 1.3500	38.0280
 1.3510	37.9760
 1.3520	37.9250
 1.3530	37.8740
 1.3540	37.8210
 1.3550	37.7710
 1.3560	37.7180
 1.3570	37.6640
 1.3580	37.6110
 1.3590	37.5570
 1.3600	37.4990
 1.3610	37.4370
 1.3620	37.3740
 1.3630	37.3100
 1.3640	37.2420
 1.3650	37.1710
 1.3660	37.0970
 1.3670	37.0140
 1.3680	36.9240
 1.3690	36.8300
 1.3700	36.7240
 1.3710	36.6110
 1.3720	36.4920
 1.3730	36.3630
 1.3740	36.2280
 1.3750	36.0860
 1.3760	35.9310
 1.3770	35.7650
 1.3780	35.5840
 1.3790	35.3890
 1.3800	35.1800
 1.3810	34.9560
 1.3820	34.7180
 1.3830	34.4670
 1.3840	34.2000
 1.3850	33.9180
 1.3860	33.6250
 1.3870	33.3160
 1.3880	33.0010
 1.3890	32.6760
 1.3900	32.3410
 1.3910	32.0020
 1.3920	31.6550
 1.3930	31.3020
 1.3940	30.9470
 1.3950	30.5850
 1.3960	30.2250
 1.3970	29.8680
 1.3980	29.5110
 1.3990	29.1640
 1.4000	28.8240
 1.4010	28.4880
 1.4020	28.1640
 1.4030	27.8470
 1.4040	27.5400
 1.4050	27.2480
 1.4060	26.9690
 1.4070	26.7100
 1.4080	26.4630
 1.4090	26.2280
 1.4100	26.0080
 1.4110	25.7980
 1.4120	25.6030
 1.4130	25.4220
 1.4140	25.2550
 1.4150	25.1020
 1.4160	24.9610
 1.4170	24.8310
 1.4180	24.7100
 1.4190	24.5970
 1.4200	24.4970
 1.4210	24.4060
 1.4220	24.3230
 1.4230	24.2510
 1.4240	24.1860
 1.4250	24.1270
 1.4260	24.0760
 1.4270	24.0300
 1.4280	23.9890
 1.4290	23.9540
 1.4300	23.9240
 1.4310	23.8990
 1.4320	23.8840
 1.4330	23.8700
 1.4340	23.8620
 1.4350	23.8530
 1.4360	23.8460
 1.4370	23.8410
 1.4380	23.8400
 1.4390	23.8410
 1.4400	23.8440
 1.4410	23.8500
 1.4420	23.8570
 1.4430	23.8700
 1.4440	23.8860
 1.4450	23.9040
 1.4460	23.9230
 1.4470	23.9440
 1.4480	23.9660
 1.4490	23.9870
 1.4500	24.0080
 1.4510	24.0280
 1.4520	24.0490
 1.4530	24.0730
 1.4540	24.1010
 1.4550	24.1300
 1.4560	24.1590
 1.4570	24.1930
 1.4580	24.2300
 1.4590	24.2700
 1.4600	24.3160
 1.4610	24.3640
 1.4620	24.4160
 1.4630	24.4730
 1.4640	24.5320
 1.4650	24.5960
 1.4660	24.6640
 1.4670	24.7370
 1.4680	24.8170
 1.4690	24.8990
 1.4700	24.9870
 1.4710	25.0770
 1.4720	25.1670
 1.4730	25.2600
 1.4740	25.3550
 1.4750	25.4510
 1.4760	25.5500
 1.4770	25.6480
 1.4780	25.7470
 1.4790	25.8520
 1.4800	25.9560
 1.4810	26.0620
 1.4820	26.1710
 1.4830	26.2740
 1.4840	26.3780
 1.4850	26.4840
 1.4860	26.5890
 1.4870	26.6980
 1.4880	26.8070
 1.4890	26.9140
 1.4900	27.0210
 1.4910	27.1250
 1.4920	27.2310
 1.4930	27.3380
 1.4940	27.4440
 1.4950	27.5510
 1.4960	27.6570
 1.4970	27.7600
 1.4980	27.8650
 1.4990	27.9700
 1.5000	28.0750
 1.5010	28.1800
 1.5020	28.2830
 1.5030	28.3840
 1.5040	28.4840
 1.5050	28.5830
 1.5060	28.6810
 1.5070	28.7780
 1.5080	28.8750
 1.5090	28.9700
 1.5100	29.0650
 1.5110	29.1620
 1.5120	29.2590
 1.5130	29.3520
 1.5140	29.4460
 1.5150	29.5380
 1.5160	29.6270
 1.5170	29.7180
 1.5180	29.8060
 1.5190	29.8950
 1.5200	29.9840
 1.5210	30.0690
 1.5220	30.1550
 1.5230	30.2390
 1.5240	30.3210
 1.5250	30.4060
 1.5260	30.4890
 1.5270	30.5690
 1.5280	30.6480
 1.5290	30.7250
 1.5300	30.8030
 1.5310	30.8780
 1.5320	30.9520
 1.5330	31.0270
 1.5340	31.0990
 1.5350	31.1730
 1.5360	31.2490
 1.5370	31.3180
 1.5380	31.3880
 1.5390	31.4550
 1.5400	31.5190
 1.5410	31.5850
 1.5420	31.6520
 1.5430	31.7180
 1.5440	31.7840
 1.5450	31.8490
 1.5460	31.9120
 1.5470	31.9720
 1.5480	32.0300
 1.5490	32.0880
 1.5500	32.1460
 1.5510	32.2010
 1.5520	32.2610
 1.5530	32.3200
 1.5540	32.3780
 1.5550	32.4350
 1.5560	32.4880
 1.5570	32.5410
 1.5580	32.5930
 1.5590	32.6450
 1.5600	32.6990
 1.5610	32.7490
 1.5620	32.7990
 1.5630	32.8490
 1.5640	32.8970
 1.5650	32.9440
 1.5660	32.9900
 1.5670	33.0370
 1.5680	33.0830
 1.5690	33.1250
 1.5700	33.1690
 1.5710	33.2120
 1.5720	33.2520
 1.5730	33.2940
 1.5740	33.3340
 1.5750	33.3730
 1.5760	33.4150
 1.5770	33.4550
 1.5780	33.4950
 1.5790	33.5320
 1.5800	33.5660
 1.5810	33.6020
 1.5820	33.6410
 1.5830	33.6800
 1.5840	33.7200
 1.5850	33.7580
 1.5860	33.7900
 1.5870	33.8220
 1.5880	33.8580
 1.5890	33.8960
 1.5900	33.9310
 1.5910	33.9650
 1.5920	33.9960
 1.5930	34.0220
 1.5940	34.0530
 1.5950	34.0860
 1.5960	34.1170
 1.5970	34.1490
 1.5980	34.1790
 1.5990	34.2080
 1.6000	34.2380
 1.6010	34.2630
 1.6020	34.2890
 1.6030	34.3140
 1.6040	34.3340
 1.6050	34.3570
 1.6060	34.3800
 1.6070	34.4020
 1.6080	34.4280
 1.6090	34.4540
 1.6100	34.4770
 1.6110	34.5020
 1.6120	34.5270
 1.6130	34.5500
 1.6140	34.5730
 1.6150	34.5940
 1.6160	34.6130
 1.6170	34.6320
 1.6180	34.6520
 1.6190	34.6710
 1.6200	34.6880
 1.6210	34.7010
 1.6220	34.7130
 1.6230	34.7240
 1.6240	34.7380
 1.6250	34.7540
 1.6260	34.7730
 1.6270	34.7930
 1.6280	34.8130
 1.6290	34.8330
 1.6300	34.8510
 1.6310	34.8670
 1.6320	34.8850
 1.6330	34.8970
 1.6340	34.9050
 1.6350	34.9160
 1.6360	34.9250
 1.6370	34.9340
 1.6380	34.9470
 1.6390	34.9560
 1.6400	34.9630
 1.6410	34.9720
 1.6420	34.9840
 1.6430	34.9920
 1.6440	35.0010
 1.6450	35.0090
 1.6460	35.0090
 1.6470	35.0110
 1.6480	35.0150
 1.6490	35.0150
 1.6500	35.0190
 1.6510	35.0260
 1.6520	35.0310
 1.6530	35.0380
 1.6540	35.0430
 1.6550	35.0440
 1.6560	35.0450
 1.6570	35.0410
 1.6580	35.0380
 1.6590	35.0360
 1.6600	35.0340
 1.6610	35.0330
 1.6620	35.0310
 1.6630	35.0250
 1.6640	35.0170
 1.6650	35.0080
 1.6660	35.0000
 1.6670	34.9960
 1.6680	34.9920
 1.6690	34.9870
 1.6700	34.9810
 1.6710	34.9700
 1.6720	34.9570
 1.6730	34.9480
 1.6740	34.9360
 1.6750	34.9250
 1.6760	34.9150
 1.6770	34.9000
 1.6780	34.8880
 1.6790	34.8750
 1.6800	34.8590
 1.6810	34.8430
 1.6820	34.8230
 1.6830	34.8000
 1.6840	34.7810
 1.6850	34.7610
 1.6860	34.7410
 1.6870	34.7280
 1.6880	34.7140
 1.6890	34.7000
 1.6900	34.6830
 1.6910	34.6600
 1.6920	34.6390
 1.6930	34.6150
 1.6940	34.5960
 1.6950	34.5780
 1.6960	34.5600
 1.6970	34.5450
 1.6980	34.5250
 1.6990	34.5020
 1.7000	34.4770
 1.7010	34.4500
 1.7020	34.4220
 1.7030	34.3910
 1.7040	34.3650
 1.7050	34.3400
 1.7060	34.3140
 1.7070	34.2900
 1.7080	34.2650
 1.7090	34.2370
 1.7100	34.2150
 1.7110	34.1970
 1.7120	34.1740
 1.7130	34.1510
 1.7140	34.1240
 1.7150	34.0960
 1.7160	34.0680
 1.7170	34.0420
 1.7180	34.0130
 1.7190	33.9820
 1.7200	33.9510
 1.7210	33.9180
 1.7220	33.8870
 1.7230	33.8600
 1.7240	33.8320
 1.7250	33.8040
 1.7260	33.7750
 1.7270	33.7450
 1.7280	33.7190
 1.7290	33.6910
 1.7300	33.6630
 1.7310	33.6360
 1.7320	33.6080
 1.7330	33.5800
 1.7340	33.5540
 1.7350	33.5250
 1.7360	33.4940
 1.7370	33.4650
 1.7380	33.4350
 1.7390	33.4040
 1.7400	33.3760
 1.7410	33.3430
 1.7420	33.3070
 1.7430	33.2710
 1.7440	33.2310
 1.7450	33.1950
 1.7460	33.1620
 1.7470	33.1230
 1.7480	33.0850
 1.7490	33.0440
 1.7500	32.9960
 1.7510	32.9560
 1.7520	32.9180
 1.7530	32.8800
 1.7540	32.8460
 1.7550	32.8060
 1.7560	32.7620
 1.7570	32.7170
 1.7580	32.6710
 1.7590	32.6270
 1.7600	32.5840
 1.7610	32.5420
 1.7620	32.4990
 1.7630	32.4530
 1.7640	32.4130
 1.7650	32.3720
 1.7660	32.3370
 1.7670	32.3090
 1.7680	32.2810
 1.7690	32.2590
 1.7700	32.2330
 1.7710	32.2060
 1.7720	32.1810
 1.7730	32.1540
 1.7740	32.1290
 1.7750	32.1100
 1.7760	32.0840
 1.7770	32.0540
 1.7780	32.0280
 1.7790	31.9980
 1.7800	31.9740
 1.7810	31.9530
 1.7820	31.9340
 1.7830	31.9160
 1.7840	31.8980
 1.7850	31.8830
 1.7860	31.8640
 1.7870	31.8430
 1.7880	31.8200
 1.7890	31.8030
 1.7900	31.7890
 1.7910	31.7770
 1.7920	31.7670
 1.7930	31.7590
 1.7940	31.7540
 1.7950	31.7500
 1.7960	31.7520
 1.7970	31.7500
 1.7980	31.7460
 1.7990	31.7420
 1.8000	31.7360
 1.8010	31.7300
 1.8020	31.7220
 1.8030	31.7170
 1.8040	31.7110
 1.8050	31.7090
 1.8060	31.7160
 1.8070	31.7110
 1.8080	31.7040
 1.8090	31.6960
 1.8100	31.6790
 1.8110	31.6790
 1.8120	31.6820
 1.8130	31.6780
 1.8140	31.6750
 1.8150	31.6660
 1.8160	31.6540
 1.8170	31.6500
 1.8180	31.6480
 1.8190	31.6360
 1.8200	31.6290
 1.8210	31.6200
 1.8220	31.6110
 1.8230	31.6060
 1.8240	31.5970
 1.8250	31.5780
 1.8260	31.5690
 1.8270	31.5630
 1.8280	31.5580
 1.8290	31.5520
 1.8300	31.5460
 1.8310	31.5400
 1.8320	31.5340
 1.8330	31.5290
 1.8340	31.5230
 1.8350	31.5230
 1.8360	31.4900
 1.8370	31.4530
 1.8380	31.4160
 1.8390	31.3710
 1.8400	31.3190
 1.8410	31.2650
 1.8420	31.2060
 1.8430	31.1440
 1.8440	31.0820
 1.8450	31.0140
 1.8460	30.9450
 1.8470	30.8660
 1.8480	30.7760
 1.8490	30.6830
 1.8500	30.5770
 1.8510	30.4590
 1.8520	30.3370
 1.8530	30.2140
 1.8540	30.0800
 1.8550	29.9370
 1.8560	29.7850
 1.8570	29.6170
 1.8580	29.4360
 1.8590	29.2450
 1.8600	29.0480
 1.8610	28.8320
 1.8620	28.5980
 1.8630	28.3520
 1.8640	28.0860
 1.8650	27.8030
 1.8660	27.5050
 1.8670	27.1830
 1.8680	26.8410
 1.8690	26.4780
 1.8700	26.0940
 1.8710	25.6900
 1.8720	25.2700
 1.8730	24.8320
 1.8740	24.3760
 1.8750	23.9060
 1.8760	23.4180
 1.8770	22.9190
 1.8780	22.4140
 1.8790	21.8950
 1.8800	21.3740
 1.8810	20.8480
 1.8820	20.3170
 1.8830	19.7730
 1.8840	19.2230
 1.8850	18.6690
 1.8860	18.1180
 1.8870	17.5780
 1.8880	17.0490
 1.8890	16.5340
 1.8900	16.0300
 1.8910	15.5450
 1.8920	15.0670
 1.8930	14.6190
 1.8940	14.1930
 1.8950	13.7860
 1.8960	13.4050
 1.8970	13.0430
 1.8980	12.7030
 1.8990	12.3910
 1.9000	12.1020
 1.9010	11.8450
 1.9020	11.6020
 1.9030	11.3800
 1.9040	11.1760
 1.9050	10.9960
 1.9060	10.8270
 1.9070	10.6850
 1.9080	10.5650
 1.9090	10.4480
 1.9100	10.3490
 1.9110	10.2600
 1.9120	10.1850
 1.9130	10.1160
 1.9140	10.0630
 1.9150	10.0140
 1.9160	 9.9650
 1.9170	 9.9250
 1.9180	 9.8940
 1.9190	 9.8660
 1.9200	 9.8470
 1.9210	 9.8310
 1.9220	 9.8200
 1.9230	 9.8110
 1.9240	 9.8080
 1.9250	 9.8100
 1.9260	 9.8180
 1.9270	 9.8260
 1.9280	 9.8410
 1.9290	 9.8620
 1.9300	 9.8830
 1.9310	 9.9060
 1.9320	 9.9320
 1.9330	 9.9620
 1.9340	 9.9960
 1.9350	10.0330
 1.9360	10.0740
 1.9370	10.1170
 1.9380	10.1650
 1.9390	10.2090
 1.9400	10.2570
 1.9410	10.3110
 1.9420	10.3670
 1.9430	10.4250
 1.9440	10.4840
 1.9450	10.5450
 1.9460	10.6090
 1.9470	10.6720
 1.9480	10.7380
 1.9490	10.8060
 1.9500	10.8770
 1.9510	10.9450
 1.9520	11.0160
 1.9530	11.0930
 1.9540	11.1670
 1.9550	11.2450
 1.9560	11.3290
 1.9570	11.4090
 1.9580	11.4900
 1.9590	11.5710
 1.9600	11.6510
 1.9610	11.7340
 1.9620	11.8210
 1.9630	11.9080
 1.9640	11.9990
 1.9650	12.0930
 1.9660	12.1890
 1.9670	12.2830
 1.9680	12.3780
 1.9690	12.4730
 1.9700	12.5680
 1.9710	12.6620
 1.9720	12.7580
 1.9730	12.8590
 1.9740	12.9550
 1.9750	13.0510
 1.9760	13.1520
 1.9770	13.2480
 1.9780	13.3470
 1.9790	13.4460
 1.9800	13.5440
 1.9810	13.6470
 1.9820	13.7570
 1.9830	13.8610
 1.9840	13.9660
 1.9850	14.0710
 1.9860	14.1750
 1.9870	14.2770
 1.9880	14.3880
 1.9890	14.4990
 1.9900	14.6090
 1.9910	14.7170
 1.9920	14.8200
 1.9930	14.9150
 1.9940	15.0170
 1.9950	15.1180
 1.9960	15.2220
 1.9970	15.3310
 1.9980	15.4380
 1.9990	15.5410
 2.0000	15.6510
 2.0010	15.7590
 2.0020	15.8690
 2.0030	15.9810
 2.0040	16.0810
 2.0050	16.1820
 2.0060	16.2780
 2.0070	16.3750
 2.0080	16.4680
 2.0090	16.5650
 2.0100	16.6630
 2.0110	16.7600
 2.0120	16.8550
 2.0130	16.9550
 2.0140	17.0520
 2.0150	17.1470
 2.0160	17.2470
 2.0170	17.3480
 2.0180	17.4470
 2.0190	17.5490
 2.0200	17.6450
 2.0210	17.7360
 2.0220	17.8290
 2.0230	17.9170
 2.0240	18.0070
 2.0250	18.1000
 2.0260	18.1880
 2.0270	18.2710
 2.0280	18.3590
 2.0290	18.4350
 2.0300	18.5100
 2.0310	18.5900
 2.0320	18.6730
 2.0330	18.7520
 2.0340	18.8320
 2.0350	18.9120
 2.0360	18.9900
 2.0370	19.0650
 2.0380	19.1440
 2.0390	19.2190
 2.0400	19.2870
 2.0410	19.3560
 2.0420	19.4230
 2.0430	19.4920
 2.0440	19.5620
 2.0450	19.6310
 2.0460	19.7000
 2.0470	19.7710
 2.0480	19.8400
 2.0490	19.9050
 2.0500	19.9750
 2.0510	20.0530
 2.0520	20.1220
 2.0530	20.1900
 2.0540	20.2580
 2.0550	20.3180
 2.0560	20.3840
 2.0570	20.4550
 2.0580	20.5220
 2.0590	20.5900
 2.0600	20.6590
 2.0610	20.7260
 2.0620	20.7900
 2.0630	20.8580
 2.0640	20.9260
 2.0650	20.9940
 2.0660	21.0670
 2.0670	21.1340
 2.0680	21.1970
 2.0690	21.2630
 2.0700	21.3250
 2.0710	21.3900
 2.0720	21.4560
 2.0730	21.5230
 2.0740	21.5930
 2.0750	21.6670
 2.0760	21.7360
 2.0770	21.8060
 2.0780	21.8730
 2.0790	21.9330
 2.0800	21.9980
 2.0810	22.0680
 2.0820	22.1330
 2.0830	22.1960
 2.0840	22.2580
 2.0850	22.3130
 2.0860	22.3740
 2.0870	22.4360
 2.0880	22.5040
 2.0890	22.5700
 2.0900	22.6410
 2.0910	22.7030
 2.0920	22.7620
 2.0930	22.8190
 2.0940	22.8710
 2.0950	22.9280
 2.0960	22.9850
 2.0970	23.0430
 2.0980	23.1060
 2.0990	23.1650
 2.1000	23.2210
 2.1010	23.2770
 2.1020	23.3330
 2.1030	23.3880
 2.1040	23.4420
 2.1050	23.5000
 2.1060	23.5540
 2.1070	23.6050
 2.1080	23.6570
 2.1090	23.7060
 2.1100	23.7630
 2.1110	23.8240
 2.1120	23.8810
 2.1130	23.9430
 2.1140	23.9970
 2.1150	24.0430
 2.1160	24.0920
 2.1170	24.1410
 2.1180	24.1880
 2.1190	24.2350
 2.1200	24.2800
 2.1210	24.3230
 2.1220	24.3670
 2.1230	24.4060
 2.1240	24.4420
 2.1250	24.4820
 2.1260	24.5190
 2.1270	24.5580
 2.1280	24.5990
 2.1290	24.6410
 2.1300	24.6820
 2.1310	24.7220
 2.1320	24.7650
 2.1330	24.8050
 2.1340	24.8440
 2.1350	24.8760
 2.1360	24.8970
 2.1370	24.9250
 2.1380	24.9490
 2.1390	24.9750
 2.1400	25.0070
 2.1410	25.0390
 2.1420	25.0650
 2.1430	25.0860
 2.1440	25.1050
 2.1450	25.1210
 2.1460	25.1370
 2.1470	25.1470
 2.1480	25.1660
 2.1490	25.1890
 2.1500	25.2110
 2.1510	25.2390
 2.1520	25.2610
 2.1530	25.2810
 2.1540	25.3000
 2.1550	25.3180
 2.1560	25.3290
 2.1570	25.3320
 2.1580	25.3380
 2.1590	25.3440
 2.1600	25.3460
 2.1610	25.3580
 2.1620	25.3730
 2.1630	25.3800
 2.1640	25.3850
 2.1650	25.3950
 2.1660	25.4040
 2.1670	25.4100
 2.1680	25.4190
 2.1690	25.4250
 2.1700	25.4210
 2.1710	25.4260
 2.1720	25.4370
 2.1730	25.4470
 2.1740	25.4600
 2.1750	25.4730
 2.1760	25.4900
 2.1770	25.5030
 2.1780	25.5150
 2.1790	25.5260
 2.1800	25.5360
 2.1810	25.5440
 2.1820	25.5500
 2.1830	25.5590
 2.1840	25.5680
 2.1850	25.5760
 2.1860	25.5840
 2.1870	25.5930
 2.1880	25.6000
 2.1890	25.6030
 2.1900	25.6090
 2.1910	25.6160
 2.1920	25.6230
 2.1930	25.6270
 2.1940	25.6360
 2.1950	25.6440
 2.1960	25.6580
 2.1970	25.6840
 2.1980	25.7010
 2.1990	25.7220
 2.2000	25.7340
 2.2010	25.7330
 2.2020	25.7360
 2.2030	25.7330
 2.2040	25.7370
 2.2050	25.7460
 2.2060	25.7550
 2.2070	25.7670
 2.2080	25.7880
 2.2090	25.7970
 2.2100	25.8030
 2.2110	25.8110
 2.2120	25.8130
 2.2130	25.8170
 2.2140	25.8230
 2.2150	25.8250
 2.2160	25.8230
 2.2170	25.8190
 2.2180	25.8150
 2.2190	25.8070
 2.2200	25.7910
 2.2210	25.7800
 2.2220	25.7680
 2.2230	25.7580
 2.2240	25.7520
 2.2250	25.7430
 2.2260	25.7330
 2.2270	25.7210
 2.2280	25.7090
 2.2290	25.6910
 2.2300	25.6720
 2.2310	25.6440
 2.2320	25.6150
 2.2330	25.5890
 2.2340	25.5610
 2.2350	25.5310
 2.2360	25.5040
 2.2370	25.4780
 2.2380	25.4460
 2.2390	25.4160
 2.2400	25.3800
 2.2410	25.3360
 2.2420	25.2980
 2.2430	25.2610
 2.2440	25.2230
 2.2450	25.1820
 2.2460	25.1460
 2.2470	25.1120
 2.2480	25.0740
 2.2490	25.0420
 2.2500	24.9950
 2.2510	24.9330
 2.2520	24.8780
 2.2530	24.8120
 2.2540	24.7570
 2.2550	24.7100
 2.2560	24.6640
 2.2570	24.6260
 2.2580	24.5840
 2.2590	24.5430
 2.2600	24.4990
 2.2610	24.4520
 2.2620	24.4060
 2.2630	24.3590
 2.2640	24.3100
 2.2650	24.2570
 2.2660	24.2060
 2.2670	24.1600
 2.2680	24.1170
 2.2690	24.0730
 2.2700	24.0360
 2.2710	23.9870
 2.2720	23.9250
 2.2730	23.8770
 2.2740	23.8320
 2.2750	23.7860
 2.2760	23.7480
 2.2770	23.7070
 2.2780	23.6630
 2.2790	23.6230
 2.2800	23.5900
 2.2810	23.5550
 2.2820	23.5190
 2.2830	23.4820
 2.2840	23.4490
 2.2850	23.4070
 2.2860	23.3550
 2.2870	23.3100
 2.2880	23.2650
 2.2890	23.2180
 2.2900	23.1720
 2.2910	23.1310
 2.2920	23.0970
 2.2930	23.0560
 2.2940	23.0230
 2.2950	22.9800
 2.2960	22.9140
 2.2970	22.8640
 2.2980	22.8260
 2.2990	22.7790
 2.3000	22.7260
 2.3010	22.6820
 2.3020	22.6200
 2.3030	22.5550
 2.3040	22.4990
 2.3050	22.4350
 2.3060	22.3690
 2.3070	22.3130
 2.3080	22.2700
 2.3090	22.2420
 2.3100	22.2250
 2.3110	22.1970
 2.3120	22.1660
 2.3130	22.1270
 2.3140	22.0970
 2.3150	22.0650
 2.3160	22.0440
 2.3170	22.0380
 2.3180	22.0190
 2.3190	21.9990
 2.3200	21.9750
 2.3210	21.9430
 2.3220	21.9160
 2.3230	21.8910
 2.3240	21.8650
 2.3250	21.8400
 2.3260	21.8110
 2.3270	21.7860
 2.3280	21.7490
 2.3290	21.7040
 2.3300	21.6570
 2.3310	21.6020
 2.3320	21.5460
 2.3330	21.4830
 2.3340	21.4310
 2.3350	21.3800
 2.3360	21.3320
 2.3370	21.2950
 2.3380	21.2530
 2.3390	21.2150
 2.3400	21.1650
 2.3410	21.1020
 2.3420	21.0470
 2.3430	20.9780
 2.3440	20.9240
 2.3450	20.8920
 2.3460	20.8470
 2.3470	20.8040
 2.3480	20.7580
 2.3490	20.6990
 2.3500	20.6530
 2.3510	20.6130
 2.3520	20.5750
 2.3530	20.5410
 2.3540	20.5140
 2.3550	20.4900
 2.3560	20.4490
 2.3570	20.4120
 2.3580	20.3810
 2.3590	20.3460
 2.3600	20.3030
 2.3610	20.2600
 2.3620	20.2210
 2.3630	20.1660
 2.3640	20.1060
 2.3650	20.0540
 2.3660	20.0060
 2.3670	19.9610
 2.3680	19.9250
 2.3690	19.8890
 2.3700	19.8320
 2.3710	19.7710
 2.3720	19.7170
 2.3730	19.6510
 2.3740	19.5860
 2.3750	19.5390
 2.3760	19.4960
 2.3770	19.4630
 2.3780	19.4250
 2.3790	19.3660
 2.3800	19.3140
 2.3810	19.2610
 2.3820	19.2130
 2.3830	19.1830
 2.3840	19.1480
 2.3850	19.0910
 2.3860	19.0190
 2.3870	18.9450
 2.3880	18.8760
 2.3890	18.8300
 2.3900	18.7840
 2.3910	18.7310
 2.3920	18.6680
 2.3930	18.5890
 2.3940	18.5310
 2.3950	18.4740
 2.3960	18.4270
 2.3970	18.4040
 2.3980	18.3680
 2.3990	18.3280
 2.4000	18.2700
 2.4010	18.1920
 2.4020	18.1150
 2.4030	18.0410
 2.4040	17.9790
 2.4050	17.9380
 2.4060	17.8990
 2.4070	17.8510
 2.4080	17.8200
 2.4090	17.7830
 2.4100	17.7120
 2.4110	17.6390
 2.4120	17.5530
 2.4130	17.4630
 2.4140	17.3910
 2.4150	17.3290
 2.4160	17.2740
 2.4170	17.2070
 2.4180	17.1360
 2.4190	17.0720
 2.4200	17.0180
 2.4210	16.9640
 2.4220	16.9250
 2.4230	16.8890
 2.4240	16.8300
 2.4250	16.7860
 2.4260	16.7270
 2.4270	16.6420
 2.4280	16.5750
 2.4290	16.4820
 2.4300	16.3700
 2.4310	16.3010
 2.4320	16.2500
 2.4330	16.2100
 2.4340	16.1930
 2.4350	16.1370
 2.4360	16.0500
 2.4370	15.9670
 2.4380	15.8850
 2.4390	15.8470
 2.4400	15.8010
 2.4410	15.7360
 2.4420	15.6860
 2.4430	15.5930
 2.4440	15.5250
 2.4450	15.4880
 2.4460	15.4170
 2.4470	15.3460
 2.4480	15.2590
 2.4490	15.1690
 2.4500	15.1020
 2.4510	15.0240
 2.4520	14.9400
 2.4530	14.8820
 2.4540	14.7980
 2.4550	14.7360
 2.4560	14.7290
 2.4570	14.6790
 2.4580	14.6230
 2.4590	14.5720
 2.4600	14.5100
 2.4610	14.4440
 2.4620	14.3800
 2.4630	14.3460
 2.4640	14.2580
 2.4650	14.1790
 2.4660	14.1520
 2.4670	14.0980
 2.4680	14.0820
 2.4690	14.0530
 2.4700	14.0020
 2.4710	13.9460
 2.4720	13.8730
 2.4730	13.7740
 2.4740	13.7140
 2.4750	13.6610
 2.4760	13.6200
 2.4770	13.6040
 2.4780	13.5720
 2.4790	13.5400
 2.4800	13.4910
 2.4810	13.4420
 2.4820	13.4100
 2.4830	13.3620
 2.4840	13.3480
 2.4850	13.3200
 2.4860	13.2670
 2.4870	13.2400
 2.4880	13.2550
 2.4890	13.2640
 2.4900	13.2330
 2.4910	13.2200
 2.4920	13.1320
 2.4930	13.0230
 2.4940	13.0020
 2.4950	12.9420
 2.4960	12.9060
 2.4970	12.8730
 2.4980	12.8250
 2.4990	12.8240
 2.5000	12.8200
