Name: Taxodium mucronatum
Type: vegetation
Class: Tree
Genus: Taxodium
Species: mucronatum
Sample No.: JPL119
Owner: JPL
Wavelength Range: VSWIR
Origin: 34.12642; -118.11439;; WGS84
Collection Date: 9/7/2016
Description: Samples were collected at the Huntington Garden in San Marino California as part of a JPL Subcontract studying HyTES imagery. Samples were taken to JPL and processed within 48 hours of collection. The same leaves were processed in the Nicolet and then measured using the ASD.
Measurement: Bidirectional reflectance
First Column: X
Second Column: Y
X Units: Wavelength (micrometer)
Y Units: Reflectance (percentage)
First X Value: 0.35
Last X Value: 2.5
Number of X Values: 2151
Additional Information: vegetation.tree.taxodium.mucronatum.vswir.jpl119.jpl.asd.ancillary.txt

 0.3500	 2.7730
 0.3510	 2.6580
 0.3520	 2.7180
 0.3530	 2.8010
 0.3540	 2.7710
 0.3550	 2.7160
 0.3560	 2.6680
 0.3570	 2.6240
 0.3580	 2.5660
 0.3590	 2.5640
 0.3600	 2.6020
 0.3610	 2.6440
 0.3620	 2.6490
 0.3630	 2.6310
 0.3640	 2.5720
 0.3650	 2.4890
 0.3660	 2.5470
 0.3670	 2.5960
 0.3680	 2.5690
 0.3690	 2.4800
 0.3700	 2.5020
 0.3710	 2.5450
 0.3720	 2.5410
 0.3730	 2.5220
 0.3740	 2.5230
 0.3750	 2.5290
 0.3760	 2.5200
 0.3770	 2.5720
 0.3780	 2.5800
 0.3790	 2.5380
 0.3800	 2.5280
 0.3810	 2.5100
 0.3820	 2.4990
 0.3830	 2.5050
 0.3840	 2.5110
 0.3850	 2.5130
 0.3860	 2.5290
 0.3870	 2.5710
 0.3880	 2.5600
 0.3890	 2.5350
 0.3900	 2.5310
 0.3910	 2.5670
 0.3920	 2.5630
 0.3930	 2.5540
 0.3940	 2.5720
 0.3950	 2.5840
 0.3960	 2.5920
 0.3970	 2.6010
 0.3980	 2.6120
 0.3990	 2.5990
 0.4000	 2.6030
 0.4010	 2.6350
 0.4020	 2.6650
 0.4030	 2.6700
 0.4040	 2.6780
 0.4050	 2.7110
 0.4060	 2.7290
 0.4070	 2.7390
 0.4080	 2.7540
 0.4090	 2.7910
 0.4100	 2.8150
 0.4110	 2.8220
 0.4120	 2.8240
 0.4130	 2.8510
 0.4140	 2.8630
 0.4150	 2.8830
 0.4160	 2.9310
 0.4170	 2.9410
 0.4180	 2.9460
 0.4190	 2.9630
 0.4200	 2.9850
 0.4210	 3.0060
 0.4220	 3.0270
 0.4230	 3.0470
 0.4240	 3.0510
 0.4250	 3.0570
 0.4260	 3.0700
 0.4270	 3.0810
 0.4280	 3.0890
 0.4290	 3.0940
 0.4300	 3.1000
 0.4310	 3.1100
 0.4320	 3.1230
 0.4330	 3.1370
 0.4340	 3.1480
 0.4350	 3.1560
 0.4360	 3.1600
 0.4370	 3.1600
 0.4380	 3.1610
 0.4390	 3.1700
 0.4400	 3.1740
 0.4410	 3.1720
 0.4420	 3.1960
 0.4430	 3.2090
 0.4440	 3.2140
 0.4450	 3.2290
 0.4460	 3.2440
 0.4470	 3.2560
 0.4480	 3.2670
 0.4490	 3.2800
 0.4500	 3.3010
 0.4510	 3.3170
 0.4520	 3.3160
 0.4530	 3.3290
 0.4540	 3.3450
 0.4550	 3.3570
 0.4560	 3.3640
 0.4570	 3.3700
 0.4580	 3.3790
 0.4590	 3.3910
 0.4600	 3.3930
 0.4610	 3.3980
 0.4620	 3.4020
 0.4630	 3.4000
 0.4640	 3.4040
 0.4650	 3.4110
 0.4660	 3.4190
 0.4670	 3.4240
 0.4680	 3.4200
 0.4690	 3.4190
 0.4700	 3.4280
 0.4710	 3.4330
 0.4720	 3.4350
 0.4730	 3.4370
 0.4740	 3.4420
 0.4750	 3.4380
 0.4760	 3.4380
 0.4770	 3.4430
 0.4780	 3.4410
 0.4790	 3.4470
 0.4800	 3.4560
 0.4810	 3.4610
 0.4820	 3.4690
 0.4830	 3.4740
 0.4840	 3.4780
 0.4850	 3.4920
 0.4860	 3.5040
 0.4870	 3.5150
 0.4880	 3.5310
 0.4890	 3.5550
 0.4900	 3.5800
 0.4910	 3.6060
 0.4920	 3.6340
 0.4930	 3.6660
 0.4940	 3.7050
 0.4950	 3.7490
 0.4960	 3.7900
 0.4970	 3.8310
 0.4980	 3.8820
 0.4990	 3.9480
 0.5000	 4.0190
 0.5010	 4.0920
 0.5020	 4.1690
 0.5030	 4.2610
 0.5040	 4.3590
 0.5050	 4.4630
 0.5060	 4.5750
 0.5070	 4.6900
 0.5080	 4.8170
 0.5090	 4.9520
 0.5100	 5.0920
 0.5110	 5.2490
 0.5120	 5.4130
 0.5130	 5.5790
 0.5140	 5.7460
 0.5150	 5.9250
 0.5160	 6.1110
 0.5170	 6.2980
 0.5180	 6.4860
 0.5190	 6.6770
 0.5200	 6.8710
 0.5210	 7.0580
 0.5220	 7.2460
 0.5230	 7.4290
 0.5240	 7.6050
 0.5250	 7.7780
 0.5260	 7.9410
 0.5270	 8.0920
 0.5280	 8.2350
 0.5290	 8.3710
 0.5300	 8.4960
 0.5310	 8.6120
 0.5320	 8.7230
 0.5330	 8.8240
 0.5340	 8.9160
 0.5350	 9.0020
 0.5360	 9.0830
 0.5370	 9.1550
 0.5380	 9.2230
 0.5390	 9.2940
 0.5400	 9.3670
 0.5410	 9.4430
 0.5420	 9.5170
 0.5430	 9.5810
 0.5440	 9.6310
 0.5450	 9.6670
 0.5460	 9.6910
 0.5470	 9.7090
 0.5480	 9.7300
 0.5490	 9.7550
 0.5500	 9.7790
 0.5510	 9.8010
 0.5520	 9.8170
 0.5530	 9.8240
 0.5540	 9.8230
 0.5550	 9.8180
 0.5560	 9.8060
 0.5570	 9.7840
 0.5580	 9.7560
 0.5590	 9.7190
 0.5600	 9.6720
 0.5610	 9.6220
 0.5620	 9.5650
 0.5630	 9.5010
 0.5640	 9.4300
 0.5650	 9.3530
 0.5660	 9.2730
 0.5670	 9.1900
 0.5680	 9.1010
 0.5690	 9.0080
 0.5700	 8.9130
 0.5710	 8.8190
 0.5720	 8.7250
 0.5730	 8.6370
 0.5740	 8.5570
 0.5750	 8.4820
 0.5760	 8.4140
 0.5770	 8.3480
 0.5780	 8.2800
 0.5790	 8.2130
 0.5800	 8.1490
 0.5810	 8.0870
 0.5820	 8.0290
 0.5830	 7.9800
 0.5840	 7.9350
 0.5850	 7.8910
 0.5860	 7.8460
 0.5870	 7.7980
 0.5880	 7.7490
 0.5890	 7.7040
 0.5900	 7.6640
 0.5910	 7.6340
 0.5920	 7.6110
 0.5930	 7.5880
 0.5940	 7.5630
 0.5950	 7.5390
 0.5960	 7.5160
 0.5970	 7.4930
 0.5980	 7.4730
 0.5990	 7.4520
 0.6000	 7.4300
 0.6010	 7.4050
 0.6020	 7.3760
 0.6030	 7.3450
 0.6040	 7.3100
 0.6050	 7.2740
 0.6060	 7.2340
 0.6070	 7.1880
 0.6080	 7.1400
 0.6090	 7.0930
 0.6100	 7.0530
 0.6110	 7.0190
 0.6120	 6.9630
 0.6130	 6.8920
 0.6140	 6.8170
 0.6150	 6.7520
 0.6160	 6.6910
 0.6170	 6.6350
 0.6180	 6.5850
 0.6190	 6.5370
 0.6200	 6.4970
 0.6210	 6.4630
 0.6220	 6.4310
 0.6230	 6.4010
 0.6240	 6.3780
 0.6250	 6.3620
 0.6260	 6.3480
 0.6270	 6.3380
 0.6280	 6.3300
 0.6290	 6.3250
 0.6300	 6.3230
 0.6310	 6.3170
 0.6320	 6.3040
 0.6330	 6.2850
 0.6340	 6.2590
 0.6350	 6.2220
 0.6360	 6.1750
 0.6370	 6.1180
 0.6380	 6.0500
 0.6390	 5.9710
 0.6400	 5.8830
 0.6410	 5.7920
 0.6420	 5.6950
 0.6430	 5.5930
 0.6440	 5.4930
 0.6450	 5.3930
 0.6460	 5.2930
 0.6470	 5.1990
 0.6480	 5.1120
 0.6490	 5.0350
 0.6500	 4.9690
 0.6510	 4.9120
 0.6520	 4.8650
 0.6530	 4.8240
 0.6540	 4.7830
 0.6550	 4.7410
 0.6560	 4.6960
 0.6570	 4.6490
 0.6580	 4.5990
 0.6590	 4.5420
 0.6600	 4.4820
 0.6610	 4.4200
 0.6620	 4.3560
 0.6630	 4.2920
 0.6640	 4.2300
 0.6650	 4.1720
 0.6660	 4.1150
 0.6670	 4.0650
 0.6680	 4.0240
 0.6690	 3.9890
 0.6700	 3.9630
 0.6710	 3.9410
 0.6720	 3.9250
 0.6730	 3.9210
 0.6740	 3.9210
 0.6750	 3.9230
 0.6760	 3.9290
 0.6770	 3.9440
 0.6780	 3.9650
 0.6790	 3.9940
 0.6800	 4.0310
 0.6810	 4.0810
 0.6820	 4.1470
 0.6830	 4.2320
 0.6840	 4.3390
 0.6850	 4.4770
 0.6860	 4.6500
 0.6870	 4.8620
 0.6880	 5.1210
 0.6890	 5.4310
 0.6900	 5.7940
 0.6910	 6.2110
 0.6920	 6.6790
 0.6930	 7.1940
 0.6940	 7.7470
 0.6950	 8.3370
 0.6960	 8.9530
 0.6970	 9.5880
 0.6980	10.2380
 0.6990	10.8950
 0.7000	11.5580
 0.7010	12.2200
 0.7020	12.8750
 0.7030	13.5210
 0.7040	14.1560
 0.7050	14.7790
 0.7060	15.3870
 0.7070	15.9810
 0.7080	16.5590
 0.7090	17.1220
 0.7100	17.6690
 0.7110	18.2040
 0.7120	18.7280
 0.7130	19.2370
 0.7140	19.7290
 0.7150	20.2050
 0.7160	20.6660
 0.7170	21.1190
 0.7180	21.5540
 0.7190	21.9720
 0.7200	22.3780
 0.7210	22.7650
 0.7220	23.1360
 0.7230	23.4920
 0.7240	23.8310
 0.7250	24.1520
 0.7260	24.4560
 0.7270	24.7430
 0.7280	25.0110
 0.7290	25.2640
 0.7300	25.5030
 0.7310	25.7270
 0.7320	25.9370
 0.7330	26.1340
 0.7340	26.3180
 0.7350	26.4890
 0.7360	26.6490
 0.7370	26.7980
 0.7380	26.9380
 0.7390	27.0680
 0.7400	27.1910
 0.7410	27.3050
 0.7420	27.4110
 0.7430	27.5070
 0.7440	27.5960
 0.7450	27.6790
 0.7460	27.7550
 0.7470	27.8270
 0.7480	27.8930
 0.7490	27.9530
 0.7500	28.0080
 0.7510	28.0590
 0.7520	28.1070
 0.7530	28.1510
 0.7540	28.1930
 0.7550	28.2340
 0.7560	28.2710
 0.7570	28.3010
 0.7580	28.3320
 0.7590	28.3640
 0.7600	28.3940
 0.7610	28.4190
 0.7620	28.4440
 0.7630	28.4680
 0.7640	28.4900
 0.7650	28.5120
 0.7660	28.5340
 0.7670	28.5560
 0.7680	28.5760
 0.7690	28.5950
 0.7700	28.6120
 0.7710	28.6280
 0.7720	28.6430
 0.7730	28.6610
 0.7740	28.6780
 0.7750	28.6920
 0.7760	28.7080
 0.7770	28.7230
 0.7780	28.7390
 0.7790	28.7540
 0.7800	28.7700
 0.7810	28.7830
 0.7820	28.7950
 0.7830	28.8090
 0.7840	28.8240
 0.7850	28.8360
 0.7860	28.8460
 0.7870	28.8560
 0.7880	28.8670
 0.7890	28.8800
 0.7900	28.8920
 0.7910	28.9030
 0.7920	28.9120
 0.7930	28.9210
 0.7940	28.9310
 0.7950	28.9370
 0.7960	28.9430
 0.7970	28.9530
 0.7980	28.9610
 0.7990	28.9660
 0.8000	28.9700
 0.8010	28.9740
 0.8020	28.9780
 0.8030	28.9820
 0.8040	28.9850
 0.8050	28.9880
 0.8060	28.9920
 0.8070	28.9930
 0.8080	28.9920
 0.8090	28.9920
 0.8100	28.9940
 0.8110	28.9980
 0.8120	29.0000
 0.8130	28.9980
 0.8140	28.9930
 0.8150	28.9910
 0.8160	28.9930
 0.8170	28.9920
 0.8180	28.9910
 0.8190	28.9880
 0.8200	28.9860
 0.8210	28.9820
 0.8220	28.9770
 0.8230	28.9710
 0.8240	28.9680
 0.8250	28.9650
 0.8260	28.9600
 0.8270	28.9550
 0.8280	28.9560
 0.8290	28.9500
 0.8300	28.9430
 0.8310	28.9400
 0.8320	28.9340
 0.8330	28.9290
 0.8340	28.9240
 0.8350	28.9200
 0.8360	28.9170
 0.8370	28.9160
 0.8380	28.9130
 0.8390	28.9070
 0.8400	28.9050
 0.8410	28.9060
 0.8420	28.9070
 0.8430	28.9070
 0.8440	28.9080
 0.8450	28.9090
 0.8460	28.9110
 0.8470	28.9100
 0.8480	28.9090
 0.8490	28.9070
 0.8500	28.9060
 0.8510	28.9110
 0.8520	28.9130
 0.8530	28.9120
 0.8540	28.9110
 0.8550	28.9140
 0.8560	28.9160
 0.8570	28.9180
 0.8580	28.9240
 0.8590	28.9290
 0.8600	28.9340
 0.8610	28.9390
 0.8620	28.9370
 0.8630	28.9450
 0.8640	28.9530
 0.8650	28.9550
 0.8660	28.9590
 0.8670	28.9630
 0.8680	28.9690
 0.8690	28.9740
 0.8700	28.9760
 0.8710	28.9800
 0.8720	28.9860
 0.8730	28.9900
 0.8740	28.9960
 0.8750	29.0020
 0.8760	29.0080
 0.8770	29.0160
 0.8780	29.0260
 0.8790	29.0350
 0.8800	29.0400
 0.8810	29.0450
 0.8820	29.0500
 0.8830	29.0560
 0.8840	29.0630
 0.8850	29.0700
 0.8860	29.0770
 0.8870	29.0820
 0.8880	29.0850
 0.8890	29.0970
 0.8900	29.1070
 0.8910	29.1130
 0.8920	29.1190
 0.8930	29.1230
 0.8940	29.1310
 0.8950	29.1400
 0.8960	29.1460
 0.8970	29.1510
 0.8980	29.1550
 0.8990	29.1600
 0.9000	29.1660
 0.9010	29.1740
 0.9020	29.1840
 0.9030	29.1930
 0.9040	29.1960
 0.9050	29.1980
 0.9060	29.2030
 0.9070	29.2120
 0.9080	29.2110
 0.9090	29.2090
 0.9100	29.2100
 0.9110	29.2170
 0.9120	29.2250
 0.9130	29.2320
 0.9140	29.2350
 0.9150	29.2330
 0.9160	29.2320
 0.9170	29.2310
 0.9180	29.2300
 0.9190	29.2310
 0.9200	29.2350
 0.9210	29.2330
 0.9220	29.2260
 0.9230	29.2170
 0.9240	29.2130
 0.9250	29.2110
 0.9260	29.2080
 0.9270	29.2040
 0.9280	29.1990
 0.9290	29.1850
 0.9300	29.1670
 0.9310	29.1560
 0.9320	29.1400
 0.9330	29.1270
 0.9340	29.1170
 0.9350	29.1000
 0.9360	29.0800
 0.9370	29.0610
 0.9380	29.0460
 0.9390	29.0240
 0.9400	29.0020
 0.9410	28.9840
 0.9420	28.9670
 0.9430	28.9410
 0.9440	28.9110
 0.9450	28.8850
 0.9460	28.8610
 0.9470	28.8200
 0.9480	28.7840
 0.9490	28.7480
 0.9500	28.7040
 0.9510	28.6580
 0.9520	28.6160
 0.9530	28.5730
 0.9540	28.5240
 0.9550	28.4810
 0.9560	28.4390
 0.9570	28.3940
 0.9580	28.3480
 0.9590	28.3190
 0.9600	28.2880
 0.9610	28.2540
 0.9620	28.2220
 0.9630	28.1920
 0.9640	28.1720
 0.9650	28.1600
 0.9660	28.1470
 0.9670	28.1290
 0.9680	28.1090
 0.9690	28.0940
 0.9700	28.0910
 0.9710	28.0910
 0.9720	28.0810
 0.9730	28.0650
 0.9740	28.0580
 0.9750	28.0640
 0.9760	28.0730
 0.9770	28.0710
 0.9780	28.0550
 0.9790	28.0640
 0.9800	28.0740
 0.9810	28.0800
 0.9820	28.0870
 0.9830	28.0890
 0.9840	28.0860
 0.9850	28.0910
 0.9860	28.1120
 0.9870	28.1160
 0.9880	28.1330
 0.9890	28.1560
 0.9900	28.1660
 0.9910	28.1730
 0.9920	28.1780
 0.9930	28.1840
 0.9940	28.1920
 0.9950	28.2040
 0.9960	28.2200
 0.9970	28.2390
 0.9980	28.2570
 0.9990	28.2740
 1.0000	28.2930
 1.0010	29.0480
 1.0020	29.0620
 1.0030	29.0760
 1.0040	29.0910
 1.0050	29.1080
 1.0060	29.1230
 1.0070	29.1390
 1.0080	29.1560
 1.0090	29.1730
 1.0100	29.1890
 1.0110	29.2080
 1.0120	29.2230
 1.0130	29.2360
 1.0140	29.2500
 1.0150	29.2630
 1.0160	29.2780
 1.0170	29.2950
 1.0180	29.3080
 1.0190	29.3210
 1.0200	29.3350
 1.0210	29.3490
 1.0220	29.3650
 1.0230	29.3810
 1.0240	29.3980
 1.0250	29.4130
 1.0260	29.4260
 1.0270	29.4400
 1.0280	29.4550
 1.0290	29.4680
 1.0300	29.4810
 1.0310	29.4950
 1.0320	29.5110
 1.0330	29.5240
 1.0340	29.5390
 1.0350	29.5540
 1.0360	29.5650
 1.0370	29.5770
 1.0380	29.5900
 1.0390	29.6020
 1.0400	29.6150
 1.0410	29.6300
 1.0420	29.6410
 1.0430	29.6530
 1.0440	29.6630
 1.0450	29.6700
 1.0460	29.6790
 1.0470	29.6900
 1.0480	29.6990
 1.0490	29.7040
 1.0500	29.7120
 1.0510	29.7200
 1.0520	29.7270
 1.0530	29.7340
 1.0540	29.7450
 1.0550	29.7530
 1.0560	29.7590
 1.0570	29.7630
 1.0580	29.7660
 1.0590	29.7700
 1.0600	29.7730
 1.0610	29.7770
 1.0620	29.7830
 1.0630	29.7860
 1.0640	29.7880
 1.0650	29.7890
 1.0660	29.7880
 1.0670	29.7890
 1.0680	29.7890
 1.0690	29.7900
 1.0700	29.7890
 1.0710	29.7890
 1.0720	29.7880
 1.0730	29.7870
 1.0740	29.7870
 1.0750	29.7870
 1.0760	29.7850
 1.0770	29.7820
 1.0780	29.7790
 1.0790	29.7720
 1.0800	29.7690
 1.0810	29.7680
 1.0820	29.7650
 1.0830	29.7650
 1.0840	29.7620
 1.0850	29.7570
 1.0860	29.7520
 1.0870	29.7470
 1.0880	29.7390
 1.0890	29.7330
 1.0900	29.7280
 1.0910	29.7210
 1.0920	29.7140
 1.0930	29.7080
 1.0940	29.7010
 1.0950	29.6950
 1.0960	29.6900
 1.0970	29.6840
 1.0980	29.6750
 1.0990	29.6680
 1.1000	29.6620
 1.1010	29.6550
 1.1020	29.6480
 1.1030	29.6410
 1.1040	29.6290
 1.1050	29.6190
 1.1060	29.6090
 1.1070	29.6000
 1.1080	29.5900
 1.1090	29.5810
 1.1100	29.5700
 1.1110	29.5590
 1.1120	29.5470
 1.1130	29.5350
 1.1140	29.5220
 1.1150	29.5070
 1.1160	29.4920
 1.1170	29.4770
 1.1180	29.4600
 1.1190	29.4430
 1.1200	29.4230
 1.1210	29.4020
 1.1220	29.3780
 1.1230	29.3510
 1.1240	29.3230
 1.1250	29.2900
 1.1260	29.2550
 1.1270	29.2140
 1.1280	29.1700
 1.1290	29.1190
 1.1300	29.0640
 1.1310	29.0030
 1.1320	28.9380
 1.1330	28.8680
 1.1340	28.7940
 1.1350	28.7140
 1.1360	28.6280
 1.1370	28.5370
 1.1380	28.4420
 1.1390	28.3430
 1.1400	28.2400
 1.1410	28.1370
 1.1420	28.0310
 1.1430	27.9230
 1.1440	27.8170
 1.1450	27.7080
 1.1460	27.6050
 1.1470	27.5010
 1.1480	27.4040
 1.1490	27.3100
 1.1500	27.2230
 1.1510	27.1400
 1.1520	27.0630
 1.1530	26.9900
 1.1540	26.9240
 1.1550	26.8640
 1.1560	26.8090
 1.1570	26.7600
 1.1580	26.7180
 1.1590	26.6800
 1.1600	26.6470
 1.1610	26.6180
 1.1620	26.5930
 1.1630	26.5710
 1.1640	26.5500
 1.1650	26.5310
 1.1660	26.5160
 1.1670	26.5010
 1.1680	26.4880
 1.1690	26.4750
 1.1700	26.4630
 1.1710	26.4520
 1.1720	26.4440
 1.1730	26.4330
 1.1740	26.4220
 1.1750	26.4120
 1.1760	26.4020
 1.1770	26.3900
 1.1780	26.3790
 1.1790	26.3680
 1.1800	26.3550
 1.1810	26.3420
 1.1820	26.3270
 1.1830	26.3130
 1.1840	26.2990
 1.1850	26.2850
 1.1860	26.2720
 1.1870	26.2590
 1.1880	26.2470
 1.1890	26.2350
 1.1900	26.2250
 1.1910	26.2170
 1.1920	26.2100
 1.1930	26.2040
 1.1940	26.2000
 1.1950	26.1970
 1.1960	26.1950
 1.1970	26.1960
 1.1980	26.1990
 1.1990	26.2030
 1.2000	26.2080
 1.2010	26.2140
 1.2020	26.2200
 1.2030	26.2280
 1.2040	26.2370
 1.2050	26.2480
 1.2060	26.2600
 1.2070	26.2740
 1.2080	26.2880
 1.2090	26.3020
 1.2100	26.3170
 1.2110	26.3340
 1.2120	26.3510
 1.2130	26.3680
 1.2140	26.3850
 1.2150	26.4030
 1.2160	26.4220
 1.2170	26.4410
 1.2180	26.4620
 1.2190	26.4840
 1.2200	26.5050
 1.2210	26.5250
 1.2220	26.5460
 1.2230	26.5670
 1.2240	26.5890
 1.2250	26.6110
 1.2260	26.6340
 1.2270	26.6550
 1.2280	26.6730
 1.2290	26.6920
 1.2300	26.7100
 1.2310	26.7280
 1.2320	26.7460
 1.2330	26.7640
 1.2340	26.7800
 1.2350	26.7950
 1.2360	26.8110
 1.2370	26.8260
 1.2380	26.8410
 1.2390	26.8550
 1.2400	26.8690
 1.2410	26.8810
 1.2420	26.8930
 1.2430	26.9040
 1.2440	26.9160
 1.2450	26.9270
 1.2460	26.9390
 1.2470	26.9480
 1.2480	26.9570
 1.2490	26.9660
 1.2500	26.9750
 1.2510	26.9850
 1.2520	26.9940
 1.2530	27.0030
 1.2540	27.0090
 1.2550	27.0130
 1.2560	27.0190
 1.2570	27.0240
 1.2580	27.0280
 1.2590	27.0310
 1.2600	27.0370
 1.2610	27.0390
 1.2620	27.0390
 1.2630	27.0390
 1.2640	27.0390
 1.2650	27.0370
 1.2660	27.0360
 1.2670	27.0350
 1.2680	27.0330
 1.2690	27.0290
 1.2700	27.0260
 1.2710	27.0220
 1.2720	27.0170
 1.2730	27.0120
 1.2740	27.0060
 1.2750	26.9990
 1.2760	26.9910
 1.2770	26.9820
 1.2780	26.9720
 1.2790	26.9590
 1.2800	26.9450
 1.2810	26.9310
 1.2820	26.9170
 1.2830	26.9000
 1.2840	26.8820
 1.2850	26.8620
 1.2860	26.8410
 1.2870	26.8190
 1.2880	26.7950
 1.2890	26.7700
 1.2900	26.7420
 1.2910	26.7130
 1.2920	26.6830
 1.2930	26.6500
 1.2940	26.6150
 1.2950	26.5780
 1.2960	26.5390
 1.2970	26.4990
 1.2980	26.4560
 1.2990	26.4130
 1.3000	26.3670
 1.3010	26.3200
 1.3020	26.2720
 1.3030	26.2220
 1.3040	26.1700
 1.3050	26.1160
 1.3060	26.0590
 1.3070	26.0010
 1.3080	25.9420
 1.3090	25.8810
 1.3100	25.8180
 1.3110	25.7540
 1.3120	25.6860
 1.3130	25.6170
 1.3140	25.5450
 1.3150	25.4710
 1.3160	25.3960
 1.3170	25.3210
 1.3180	25.2430
 1.3190	25.1620
 1.3200	25.0790
 1.3210	24.9930
 1.3220	24.9060
 1.3230	24.8180
 1.3240	24.7280
 1.3250	24.6380
 1.3260	24.5450
 1.3270	24.4500
 1.3280	24.3530
 1.3290	24.2550
 1.3300	24.1570
 1.3310	24.0580
 1.3320	23.9580
 1.3330	23.8570
 1.3340	23.7560
 1.3350	23.6530
 1.3360	23.5510
 1.3370	23.4490
 1.3380	23.3470
 1.3390	23.2470
 1.3400	23.1450
 1.3410	23.0460
 1.3420	22.9450
 1.3430	22.8460
 1.3440	22.7500
 1.3450	22.6540
 1.3460	22.5580
 1.3470	22.4630
 1.3480	22.3680
 1.3490	22.2750
 1.3500	22.1840
 1.3510	22.0920
 1.3520	22.0020
 1.3530	21.9120
 1.3540	21.8200
 1.3550	21.7290
 1.3560	21.6370
 1.3570	21.5440
 1.3580	21.4520
 1.3590	21.3570
 1.3600	21.2600
 1.3610	21.1600
 1.3620	21.0560
 1.3630	20.9480
 1.3640	20.8370
 1.3650	20.7200
 1.3660	20.5990
 1.3670	20.4710
 1.3680	20.3360
 1.3690	20.1940
 1.3700	20.0410
 1.3710	19.8790
 1.3720	19.7080
 1.3730	19.5230
 1.3740	19.3290
 1.3750	19.1230
 1.3760	18.9030
 1.3770	18.6680
 1.3780	18.4180
 1.3790	18.1530
 1.3800	17.8730
 1.3810	17.5770
 1.3820	17.2700
 1.3830	16.9520
 1.3840	16.6230
 1.3850	16.2820
 1.3860	15.9360
 1.3870	15.5770
 1.3880	15.2200
 1.3890	14.8580
 1.3900	14.4920
 1.3910	14.1290
 1.3920	13.7670
 1.3930	13.4060
 1.3940	13.0510
 1.3950	12.6990
 1.3960	12.3550
 1.3970	12.0220
 1.3980	11.6980
 1.3990	11.3910
 1.4000	11.0960
 1.4010	10.8110
 1.4020	10.5420
 1.4030	10.2830
 1.4040	10.0380
 1.4050	 9.8100
 1.4060	 9.5940
 1.4070	 9.3950
 1.4080	 9.2080
 1.4090	 9.0320
 1.4100	 8.8700
 1.4110	 8.7190
 1.4120	 8.5790
 1.4130	 8.4500
 1.4140	 8.3310
 1.4150	 8.2230
 1.4160	 8.1230
 1.4170	 8.0310
 1.4180	 7.9470
 1.4190	 7.8690
 1.4200	 7.7970
 1.4210	 7.7330
 1.4220	 7.6740
 1.4230	 7.6210
 1.4240	 7.5720
 1.4250	 7.5270
 1.4260	 7.4870
 1.4270	 7.4500
 1.4280	 7.4170
 1.4290	 7.3870
 1.4300	 7.3610
 1.4310	 7.3380
 1.4320	 7.3180
 1.4330	 7.3000
 1.4340	 7.2860
 1.4350	 7.2730
 1.4360	 7.2620
 1.4370	 7.2530
 1.4380	 7.2470
 1.4390	 7.2430
 1.4400	 7.2390
 1.4410	 7.2380
 1.4420	 7.2370
 1.4430	 7.2380
 1.4440	 7.2400
 1.4450	 7.2430
 1.4460	 7.2480
 1.4470	 7.2540
 1.4480	 7.2610
 1.4490	 7.2680
 1.4500	 7.2760
 1.4510	 7.2850
 1.4520	 7.2940
 1.4530	 7.3040
 1.4540	 7.3160
 1.4550	 7.3290
 1.4560	 7.3430
 1.4570	 7.3580
 1.4580	 7.3740
 1.4590	 7.3920
 1.4600	 7.4130
 1.4610	 7.4350
 1.4620	 7.4590
 1.4630	 7.4870
 1.4640	 7.5160
 1.4650	 7.5470
 1.4660	 7.5810
 1.4670	 7.6170
 1.4680	 7.6560
 1.4690	 7.6970
 1.4700	 7.7410
 1.4710	 7.7870
 1.4720	 7.8350
 1.4730	 7.8840
 1.4740	 7.9360
 1.4750	 7.9900
 1.4760	 8.0460
 1.4770	 8.1040
 1.4780	 8.1620
 1.4790	 8.2220
 1.4800	 8.2820
 1.4810	 8.3440
 1.4820	 8.4070
 1.4830	 8.4700
 1.4840	 8.5350
 1.4850	 8.6010
 1.4860	 8.6680
 1.4870	 8.7370
 1.4880	 8.8050
 1.4890	 8.8740
 1.4900	 8.9430
 1.4910	 9.0130
 1.4920	 9.0840
 1.4930	 9.1560
 1.4940	 9.2280
 1.4950	 9.3010
 1.4960	 9.3740
 1.4970	 9.4470
 1.4980	 9.5210
 1.4990	 9.5950
 1.5000	 9.6690
 1.5010	 9.7440
 1.5020	 9.8190
 1.5030	 9.8940
 1.5040	 9.9700
 1.5050	10.0450
 1.5060	10.1210
 1.5070	10.1960
 1.5080	10.2720
 1.5090	10.3490
 1.5100	10.4260
 1.5110	10.5020
 1.5120	10.5790
 1.5130	10.6540
 1.5140	10.7300
 1.5150	10.8060
 1.5160	10.8810
 1.5170	10.9570
 1.5180	11.0330
 1.5190	11.1080
 1.5200	11.1840
 1.5210	11.2590
 1.5220	11.3330
 1.5230	11.4080
 1.5240	11.4810
 1.5250	11.5560
 1.5260	11.6300
 1.5270	11.7030
 1.5280	11.7760
 1.5290	11.8480
 1.5300	11.9200
 1.5310	11.9910
 1.5320	12.0620
 1.5330	12.1330
 1.5340	12.2040
 1.5350	12.2740
 1.5360	12.3450
 1.5370	12.4140
 1.5380	12.4820
 1.5390	12.5510
 1.5400	12.6190
 1.5410	12.6880
 1.5420	12.7560
 1.5430	12.8230
 1.5440	12.8900
 1.5450	12.9560
 1.5460	13.0210
 1.5470	13.0870
 1.5480	13.1520
 1.5490	13.2170
 1.5500	13.2800
 1.5510	13.3440
 1.5520	13.4070
 1.5530	13.4680
 1.5540	13.5290
 1.5550	13.5900
 1.5560	13.6510
 1.5570	13.7120
 1.5580	13.7720
 1.5590	13.8310
 1.5600	13.8900
 1.5610	13.9490
 1.5620	14.0060
 1.5630	14.0640
 1.5640	14.1200
 1.5650	14.1750
 1.5660	14.2310
 1.5670	14.2860
 1.5680	14.3410
 1.5690	14.3950
 1.5700	14.4480
 1.5710	14.5010
 1.5720	14.5540
 1.5730	14.6060
 1.5740	14.6570
 1.5750	14.7080
 1.5760	14.7590
 1.5770	14.8080
 1.5780	14.8580
 1.5790	14.9080
 1.5800	14.9560
 1.5810	15.0040
 1.5820	15.0510
 1.5830	15.0980
 1.5840	15.1470
 1.5850	15.1950
 1.5860	15.2410
 1.5870	15.2880
 1.5880	15.3320
 1.5890	15.3770
 1.5900	15.4220
 1.5910	15.4670
 1.5920	15.5130
 1.5930	15.5570
 1.5940	15.6010
 1.5950	15.6450
 1.5960	15.6870
 1.5970	15.7300
 1.5980	15.7700
 1.5990	15.8110
 1.6000	15.8520
 1.6010	15.8920
 1.6020	15.9330
 1.6030	15.9740
 1.6040	16.0130
 1.6050	16.0520
 1.6060	16.0890
 1.6070	16.1250
 1.6080	16.1620
 1.6090	16.1980
 1.6100	16.2340
 1.6110	16.2700
 1.6120	16.3050
 1.6130	16.3390
 1.6140	16.3720
 1.6150	16.4040
 1.6160	16.4360
 1.6170	16.4670
 1.6180	16.4980
 1.6190	16.5290
 1.6200	16.5580
 1.6210	16.5860
 1.6220	16.6140
 1.6230	16.6390
 1.6240	16.6650
 1.6250	16.6910
 1.6260	16.7150
 1.6270	16.7400
 1.6280	16.7630
 1.6290	16.7850
 1.6300	16.8070
 1.6310	16.8290
 1.6320	16.8500
 1.6330	16.8720
 1.6340	16.8940
 1.6350	16.9160
 1.6360	16.9390
 1.6370	16.9600
 1.6380	16.9820
 1.6390	17.0030
 1.6400	17.0250
 1.6410	17.0450
 1.6420	17.0640
 1.6430	17.0810
 1.6440	17.0980
 1.6450	17.1140
 1.6460	17.1280
 1.6470	17.1420
 1.6480	17.1530
 1.6490	17.1630
 1.6500	17.1710
 1.6510	17.1780
 1.6520	17.1840
 1.6530	17.1890
 1.6540	17.1930
 1.6550	17.1960
 1.6560	17.1980
 1.6570	17.1990
 1.6580	17.2000
 1.6590	17.1990
 1.6600	17.1980
 1.6610	17.1950
 1.6620	17.1920
 1.6630	17.1880
 1.6640	17.1840
 1.6650	17.1810
 1.6660	17.1770
 1.6670	17.1730
 1.6680	17.1670
 1.6690	17.1610
 1.6700	17.1540
 1.6710	17.1480
 1.6720	17.1420
 1.6730	17.1340
 1.6740	17.1250
 1.6750	17.1140
 1.6760	17.1010
 1.6770	17.0890
 1.6780	17.0740
 1.6790	17.0590
 1.6800	17.0400
 1.6810	17.0200
 1.6820	16.9980
 1.6830	16.9740
 1.6840	16.9490
 1.6850	16.9230
 1.6860	16.8950
 1.6870	16.8670
 1.6880	16.8390
 1.6890	16.8110
 1.6900	16.7830
 1.6910	16.7540
 1.6920	16.7240
 1.6930	16.6930
 1.6940	16.6630
 1.6950	16.6330
 1.6960	16.6040
 1.6970	16.5750
 1.6980	16.5450
 1.6990	16.5150
 1.7000	16.4850
 1.7010	16.4540
 1.7020	16.4230
 1.7030	16.3930
 1.7040	16.3610
 1.7050	16.3270
 1.7060	16.2940
 1.7070	16.2600
 1.7080	16.2260
 1.7090	16.1930
 1.7100	16.1600
 1.7110	16.1270
 1.7120	16.0930
 1.7130	16.0590
 1.7140	16.0230
 1.7150	15.9870
 1.7160	15.9520
 1.7170	15.9180
 1.7180	15.8850
 1.7190	15.8520
 1.7200	15.8200
 1.7210	15.7870
 1.7220	15.7540
 1.7230	15.7220
 1.7240	15.6900
 1.7250	15.6570
 1.7260	15.6260
 1.7270	15.5960
 1.7280	15.5670
 1.7290	15.5390
 1.7300	15.5110
 1.7310	15.4850
 1.7320	15.4600
 1.7330	15.4350
 1.7340	15.4120
 1.7350	15.3860
 1.7360	15.3590
 1.7370	15.3300
 1.7380	15.3000
 1.7390	15.2680
 1.7400	15.2360
 1.7410	15.2020
 1.7420	15.1670
 1.7430	15.1310
 1.7440	15.0920
 1.7450	15.0530
 1.7460	15.0120
 1.7470	14.9720
 1.7480	14.9310
 1.7490	14.8900
 1.7500	14.8470
 1.7510	14.8070
 1.7520	14.7670
 1.7530	14.7260
 1.7540	14.6860
 1.7550	14.6450
 1.7560	14.6040
 1.7570	14.5650
 1.7580	14.5250
 1.7590	14.4870
 1.7600	14.4500
 1.7610	14.4130
 1.7620	14.3770
 1.7630	14.3420
 1.7640	14.3070
 1.7650	14.2730
 1.7660	14.2410
 1.7670	14.2120
 1.7680	14.1820
 1.7690	14.1560
 1.7700	14.1280
 1.7710	14.1000
 1.7720	14.0730
 1.7730	14.0480
 1.7740	14.0230
 1.7750	14.0000
 1.7760	13.9770
 1.7770	13.9550
 1.7780	13.9330
 1.7790	13.9130
 1.7800	13.8930
 1.7810	13.8740
 1.7820	13.8570
 1.7830	13.8410
 1.7840	13.8270
 1.7850	13.8150
 1.7860	13.8040
 1.7870	13.7950
 1.7880	13.7860
 1.7890	13.7780
 1.7900	13.7720
 1.7910	13.7670
 1.7920	13.7640
 1.7930	13.7610
 1.7940	13.7590
 1.7950	13.7570
 1.7960	13.7590
 1.7970	13.7600
 1.7980	13.7610
 1.7990	13.7630
 1.8000	13.7640
 1.8010	13.7660
 1.8020	13.7680
 1.8030	13.7700
 1.8040	13.7720
 1.8050	13.7740
 1.8060	13.7760
 1.8070	13.7770
 1.8080	13.7790
 1.8090	13.7800
 1.8100	13.7830
 1.8110	13.7840
 1.8120	13.7860
 1.8130	13.7880
 1.8140	13.7880
 1.8150	13.7890
 1.8160	13.7880
 1.8170	13.7860
 1.8180	13.7830
 1.8190	13.7810
 1.8200	13.7780
 1.8210	13.7750
 1.8220	13.7710
 1.8230	13.7650
 1.8240	13.7590
 1.8250	13.7540
 1.8260	13.7470
 1.8270	13.7390
 1.8280	13.7290
 1.8290	13.7170
 1.8300	13.7040
 1.8310	13.4240
 1.8320	13.4060
 1.8330	13.3850
 1.8340	13.3600
 1.8350	13.3340
 1.8360	13.3050
 1.8370	13.2730
 1.8380	13.2400
 1.8390	13.2030
 1.8400	13.1640
 1.8410	13.1200
 1.8420	13.0730
 1.8430	13.0220
 1.8440	12.9660
 1.8450	12.9050
 1.8460	12.8370
 1.8470	12.7650
 1.8480	12.6860
 1.8490	12.6000
 1.8500	12.5110
 1.8510	12.4180
 1.8520	12.3180
 1.8530	12.2100
 1.8540	12.0980
 1.8550	11.9770
 1.8560	11.8480
 1.8570	11.7140
 1.8580	11.5690
 1.8590	11.4170
 1.8600	11.2570
 1.8610	11.0900
 1.8620	10.9130
 1.8630	10.7310
 1.8640	10.5440
 1.8650	10.3470
 1.8660	10.1400
 1.8670	 9.9220
 1.8680	 9.6960
 1.8690	 9.4610
 1.8700	 9.2210
 1.8710	 8.9760
 1.8720	 8.7300
 1.8730	 8.4790
 1.8740	 8.2240
 1.8750	 7.9680
 1.8760	 7.7060
 1.8770	 7.4480
 1.8780	 7.1950
 1.8790	 6.9450
 1.8800	 6.7030
 1.8810	 6.4680
 1.8820	 6.2350
 1.8830	 6.0060
 1.8840	 5.7840
 1.8850	 5.5660
 1.8860	 5.3540
 1.8870	 5.1520
 1.8880	 4.9590
 1.8890	 4.7760
 1.8900	 4.6030
 1.8910	 4.4400
 1.8920	 4.2870
 1.8930	 4.1440
 1.8940	 4.0120
 1.8950	 3.8890
 1.8960	 3.7730
 1.8970	 3.6650
 1.8980	 3.5690
 1.8990	 3.4800
 1.9000	 3.3980
 1.9010	 3.3290
 1.9020	 3.2620
 1.9030	 3.2000
 1.9040	 3.1460
 1.9050	 3.0970
 1.9060	 3.0510
 1.9070	 3.0130
 1.9080	 2.9790
 1.9090	 2.9490
 1.9100	 2.9230
 1.9110	 2.8980
 1.9120	 2.8740
 1.9130	 2.8550
 1.9140	 2.8380
 1.9150	 2.8240
 1.9160	 2.8140
 1.9170	 2.8050
 1.9180	 2.7950
 1.9190	 2.7840
 1.9200	 2.7750
 1.9210	 2.7680
 1.9220	 2.7620
 1.9230	 2.7610
 1.9240	 2.7580
 1.9250	 2.7560
 1.9260	 2.7540
 1.9270	 2.7540
 1.9280	 2.7540
 1.9290	 2.7560
 1.9300	 2.7600
 1.9310	 2.7630
 1.9320	 2.7670
 1.9330	 2.7720
 1.9340	 2.7780
 1.9350	 2.7840
 1.9360	 2.7910
 1.9370	 2.7980
 1.9380	 2.8070
 1.9390	 2.8160
 1.9400	 2.8250
 1.9410	 2.8360
 1.9420	 2.8440
 1.9430	 2.8530
 1.9440	 2.8640
 1.9450	 2.8750
 1.9460	 2.8870
 1.9470	 2.9010
 1.9480	 2.9150
 1.9490	 2.9280
 1.9500	 2.9410
 1.9510	 2.9560
 1.9520	 2.9710
 1.9530	 2.9850
 1.9540	 3.0000
 1.9550	 3.0150
 1.9560	 3.0290
 1.9570	 3.0450
 1.9580	 3.0620
 1.9590	 3.0790
 1.9600	 3.0970
 1.9610	 3.1150
 1.9620	 3.1350
 1.9630	 3.1540
 1.9640	 3.1740
 1.9650	 3.1910
 1.9660	 3.2100
 1.9670	 3.2300
 1.9680	 3.2510
 1.9690	 3.2720
 1.9700	 3.2930
 1.9710	 3.3130
 1.9720	 3.3340
 1.9730	 3.3550
 1.9740	 3.3770
 1.9750	 3.4000
 1.9760	 3.4230
 1.9770	 3.4490
 1.9780	 3.4740
 1.9790	 3.4980
 1.9800	 3.5240
 1.9810	 3.5480
 1.9820	 3.5680
 1.9830	 3.5910
 1.9840	 3.6150
 1.9850	 3.6390
 1.9860	 3.6660
 1.9870	 3.6940
 1.9880	 3.7210
 1.9890	 3.7470
 1.9900	 3.7730
 1.9910	 3.7980
 1.9920	 3.8240
 1.9930	 3.8480
 1.9940	 3.8750
 1.9950	 3.9030
 1.9960	 3.9310
 1.9970	 3.9610
 1.9980	 3.9900
 1.9990	 4.0170
 2.0000	 4.0440
 2.0010	 4.0730
 2.0020	 4.1000
 2.0030	 4.1270
 2.0040	 4.1560
 2.0050	 4.1850
 2.0060	 4.2120
 2.0070	 4.2410
 2.0080	 4.2720
 2.0090	 4.3020
 2.0100	 4.3340
 2.0110	 4.3640
 2.0120	 4.3920
 2.0130	 4.4220
 2.0140	 4.4510
 2.0150	 4.4790
 2.0160	 4.5070
 2.0170	 4.5350
 2.0180	 4.5630
 2.0190	 4.5920
 2.0200	 4.6210
 2.0210	 4.6510
 2.0220	 4.6800
 2.0230	 4.7080
 2.0240	 4.7360
 2.0250	 4.7640
 2.0260	 4.7910
 2.0270	 4.8160
 2.0280	 4.8420
 2.0290	 4.8690
 2.0300	 4.8950
 2.0310	 4.9210
 2.0320	 4.9490
 2.0330	 4.9750
 2.0340	 5.0010
 2.0350	 5.0260
 2.0360	 5.0510
 2.0370	 5.0760
 2.0380	 5.0990
 2.0390	 5.1240
 2.0400	 5.1470
 2.0410	 5.1710
 2.0420	 5.1970
 2.0430	 5.2220
 2.0440	 5.2460
 2.0450	 5.2700
 2.0460	 5.2940
 2.0470	 5.3160
 2.0480	 5.3390
 2.0490	 5.3620
 2.0500	 5.3850
 2.0510	 5.4070
 2.0520	 5.4300
 2.0530	 5.4550
 2.0540	 5.4790
 2.0550	 5.5010
 2.0560	 5.5250
 2.0570	 5.5470
 2.0580	 5.5690
 2.0590	 5.5930
 2.0600	 5.6200
 2.0610	 5.6440
 2.0620	 5.6690
 2.0630	 5.6930
 2.0640	 5.7150
 2.0650	 5.7380
 2.0660	 5.7610
 2.0670	 5.7840
 2.0680	 5.8070
 2.0690	 5.8300
 2.0700	 5.8550
 2.0710	 5.8790
 2.0720	 5.9030
 2.0730	 5.9270
 2.0740	 5.9500
 2.0750	 5.9740
 2.0760	 5.9980
 2.0770	 6.0210
 2.0780	 6.0450
 2.0790	 6.0680
 2.0800	 6.0910
 2.0810	 6.1110
 2.0820	 6.1340
 2.0830	 6.1570
 2.0840	 6.1810
 2.0850	 6.2070
 2.0860	 6.2310
 2.0870	 6.2530
 2.0880	 6.2750
 2.0890	 6.2980
 2.0900	 6.3200
 2.0910	 6.3430
 2.0920	 6.3700
 2.0930	 6.3930
 2.0940	 6.4160
 2.0950	 6.4380
 2.0960	 6.4590
 2.0970	 6.4800
 2.0980	 6.5010
 2.0990	 6.5220
 2.1000	 6.5430
 2.1010	 6.5650
 2.1020	 6.5880
 2.1030	 6.6100
 2.1040	 6.6330
 2.1050	 6.6550
 2.1060	 6.6770
 2.1070	 6.6990
 2.1080	 6.7200
 2.1090	 6.7390
 2.1100	 6.7610
 2.1110	 6.7830
 2.1120	 6.8050
 2.1130	 6.8310
 2.1140	 6.8530
 2.1150	 6.8730
 2.1160	 6.8940
 2.1170	 6.9130
 2.1180	 6.9330
 2.1190	 6.9530
 2.1200	 6.9730
 2.1210	 6.9930
 2.1220	 7.0120
 2.1230	 7.0320
 2.1240	 7.0510
 2.1250	 7.0700
 2.1260	 7.0880
 2.1270	 7.1080
 2.1280	 7.1290
 2.1290	 7.1480
 2.1300	 7.1670
 2.1310	 7.1850
 2.1320	 7.1990
 2.1330	 7.2160
 2.1340	 7.2340
 2.1350	 7.2510
 2.1360	 7.2710
 2.1370	 7.2880
 2.1380	 7.3050
 2.1390	 7.3200
 2.1400	 7.3350
 2.1410	 7.3490
 2.1420	 7.3640
 2.1430	 7.3790
 2.1440	 7.3950
 2.1450	 7.4110
 2.1460	 7.4270
 2.1470	 7.4440
 2.1480	 7.4600
 2.1490	 7.4760
 2.1500	 7.4920
 2.1510	 7.5070
 2.1520	 7.5220
 2.1530	 7.5360
 2.1540	 7.5510
 2.1550	 7.5690
 2.1560	 7.5840
 2.1570	 7.6000
 2.1580	 7.6150
 2.1590	 7.6300
 2.1600	 7.6430
 2.1610	 7.6550
 2.1620	 7.6680
 2.1630	 7.6800
 2.1640	 7.6890
 2.1650	 7.7010
 2.1660	 7.7150
 2.1670	 7.7280
 2.1680	 7.7430
 2.1690	 7.7560
 2.1700	 7.7690
 2.1710	 7.7810
 2.1720	 7.7910
 2.1730	 7.8020
 2.1740	 7.8110
 2.1750	 7.8230
 2.1760	 7.8370
 2.1770	 7.8500
 2.1780	 7.8660
 2.1790	 7.8790
 2.1800	 7.8880
 2.1810	 7.8980
 2.1820	 7.9060
 2.1830	 7.9150
 2.1840	 7.9260
 2.1850	 7.9390
 2.1860	 7.9510
 2.1870	 7.9650
 2.1880	 7.9750
 2.1890	 7.9840
 2.1900	 7.9940
 2.1910	 8.0030
 2.1920	 8.0130
 2.1930	 8.0240
 2.1940	 8.0350
 2.1950	 8.0480
 2.1960	 8.0580
 2.1970	 8.0670
 2.1980	 8.0760
 2.1990	 8.0810
 2.2000	 8.0880
 2.2010	 8.0970
 2.2020	 8.1040
 2.2030	 8.1130
 2.2040	 8.1210
 2.2050	 8.1270
 2.2060	 8.1340
 2.2070	 8.1400
 2.2080	 8.1450
 2.2090	 8.1500
 2.2100	 8.1530
 2.2110	 8.1570
 2.2120	 8.1600
 2.2130	 8.1630
 2.2140	 8.1650
 2.2150	 8.1660
 2.2160	 8.1650
 2.2170	 8.1640
 2.2180	 8.1620
 2.2190	 8.1610
 2.2200	 8.1600
 2.2210	 8.1570
 2.2220	 8.1520
 2.2230	 8.1460
 2.2240	 8.1380
 2.2250	 8.1300
 2.2260	 8.1220
 2.2270	 8.1120
 2.2280	 8.1020
 2.2290	 8.0920
 2.2300	 8.0820
 2.2310	 8.0700
 2.2320	 8.0550
 2.2330	 8.0370
 2.2340	 8.0200
 2.2350	 8.0000
 2.2360	 7.9830
 2.2370	 7.9690
 2.2380	 7.9500
 2.2390	 7.9290
 2.2400	 7.9080
 2.2410	 7.8830
 2.2420	 7.8610
 2.2430	 7.8400
 2.2440	 7.8170
 2.2450	 7.7950
 2.2460	 7.7700
 2.2470	 7.7400
 2.2480	 7.7130
 2.2490	 7.6850
 2.2500	 7.6560
 2.2510	 7.6310
 2.2520	 7.6030
 2.2530	 7.5730
 2.2540	 7.5410
 2.2550	 7.5040
 2.2560	 7.4710
 2.2570	 7.4360
 2.2580	 7.4020
 2.2590	 7.3700
 2.2600	 7.3360
 2.2610	 7.2970
 2.2620	 7.2610
 2.2630	 7.2270
 2.2640	 7.1930
 2.2650	 7.1620
 2.2660	 7.1310
 2.2670	 7.1030
 2.2680	 7.0750
 2.2690	 7.0480
 2.2700	 7.0240
 2.2710	 6.9980
 2.2720	 6.9710
 2.2730	 6.9460
 2.2740	 6.9200
 2.2750	 6.8960
 2.2760	 6.8750
 2.2770	 6.8520
 2.2780	 6.8310
 2.2790	 6.8080
 2.2800	 6.7840
 2.2810	 6.7610
 2.2820	 6.7380
 2.2830	 6.7150
 2.2840	 6.6930
 2.2850	 6.6720
 2.2860	 6.6540
 2.2870	 6.6330
 2.2880	 6.6120
 2.2890	 6.5900
 2.2900	 6.5650
 2.2910	 6.5400
 2.2920	 6.5170
 2.2930	 6.4910
 2.2940	 6.4630
 2.2950	 6.4360
 2.2960	 6.4080
 2.2970	 6.3800
 2.2980	 6.3510
 2.2990	 6.3250
 2.3000	 6.2960
 2.3010	 6.2690
 2.3020	 6.2450
 2.3030	 6.2200
 2.3040	 6.2000
 2.3050	 6.1790
 2.3060	 6.1610
 2.3070	 6.1430
 2.3080	 6.1200
 2.3090	 6.1000
 2.3100	 6.0790
 2.3110	 6.0610
 2.3120	 6.0460
 2.3130	 6.0390
 2.3140	 6.0280
 2.3150	 6.0190
 2.3160	 6.0090
 2.3170	 5.9990
 2.3180	 5.9870
 2.3190	 5.9750
 2.3200	 5.9610
 2.3210	 5.9440
 2.3220	 5.9290
 2.3230	 5.9140
 2.3240	 5.9010
 2.3250	 5.8900
 2.3260	 5.8750
 2.3270	 5.8610
 2.3280	 5.8450
 2.3290	 5.8260
 2.3300	 5.8080
 2.3310	 5.7900
 2.3320	 5.7720
 2.3330	 5.7540
 2.3340	 5.7340
 2.3350	 5.7120
 2.3360	 5.6900
 2.3370	 5.6670
 2.3380	 5.6430
 2.3390	 5.6190
 2.3400	 5.5960
 2.3410	 5.5740
 2.3420	 5.5510
 2.3430	 5.5270
 2.3440	 5.5050
 2.3450	 5.4810
 2.3460	 5.4600
 2.3470	 5.4410
 2.3480	 5.4230
 2.3490	 5.4070
 2.3500	 5.3900
 2.3510	 5.3780
 2.3520	 5.3610
 2.3530	 5.3440
 2.3540	 5.3240
 2.3550	 5.3060
 2.3560	 5.2900
 2.3570	 5.2810
 2.3580	 5.2690
 2.3590	 5.2510
 2.3600	 5.2320
 2.3610	 5.2080
 2.3620	 5.1900
 2.3630	 5.1760
 2.3640	 5.1620
 2.3650	 5.1490
 2.3660	 5.1290
 2.3670	 5.1100
 2.3680	 5.0940
 2.3690	 5.0740
 2.3700	 5.0590
 2.3710	 5.0460
 2.3720	 5.0330
 2.3730	 5.0200
 2.3740	 5.0020
 2.3750	 4.9870
 2.3760	 4.9670
 2.3770	 4.9460
 2.3780	 4.9330
 2.3790	 4.9140
 2.3800	 4.8930
 2.3810	 4.8760
 2.3820	 4.8560
 2.3830	 4.8340
 2.3840	 4.8130
 2.3850	 4.7940
 2.3860	 4.7790
 2.3870	 4.7670
 2.3880	 4.7500
 2.3890	 4.7310
 2.3900	 4.7110
 2.3910	 4.6850
 2.3920	 4.6630
 2.3930	 4.6470
 2.3940	 4.6280
 2.3950	 4.6090
 2.3960	 4.5980
 2.3970	 4.5750
 2.3980	 4.5460
 2.3990	 4.5280
 2.4000	 4.5110
 2.4010	 4.5000
 2.4020	 4.4930
 2.4030	 4.4790
 2.4040	 4.4610
 2.4050	 4.4410
 2.4060	 4.4220
 2.4070	 4.4080
 2.4080	 4.3930
 2.4090	 4.3730
 2.4100	 4.3550
 2.4110	 4.3310
 2.4120	 4.3040
 2.4130	 4.2880
 2.4140	 4.2700
 2.4150	 4.2500
 2.4160	 4.2310
 2.4170	 4.2150
 2.4180	 4.1960
 2.4190	 4.1830
 2.4200	 4.1780
 2.4210	 4.1660
 2.4220	 4.1550
 2.4230	 4.1350
 2.4240	 4.1060
 2.4250	 4.0890
 2.4260	 4.0620
 2.4270	 4.0420
 2.4280	 4.0350
 2.4290	 4.0190
 2.4300	 4.0060
 2.4310	 3.9940
 2.4320	 3.9800
 2.4330	 3.9590
 2.4340	 3.9310
 2.4350	 3.9110
 2.4360	 3.8960
 2.4370	 3.8790
 2.4380	 3.8660
 2.4390	 3.8590
 2.4400	 3.8360
 2.4410	 3.8150
 2.4420	 3.8020
 2.4430	 3.7740
 2.4440	 3.7550
 2.4450	 3.7440
 2.4460	 3.7260
 2.4470	 3.7140
 2.4480	 3.7020
 2.4490	 3.6800
 2.4500	 3.6590
 2.4510	 3.6390
 2.4520	 3.6140
 2.4530	 3.5870
 2.4540	 3.5590
 2.4550	 3.5370
 2.4560	 3.5210
 2.4570	 3.5010
 2.4580	 3.4940
 2.4590	 3.4920
 2.4600	 3.4790
 2.4610	 3.4700
 2.4620	 3.4550
 2.4630	 3.4150
 2.4640	 3.3900
 2.4650	 3.3850
 2.4660	 3.3700
 2.4670	 3.3760
 2.4680	 3.3730
 2.4690	 3.3480
 2.4700	 3.3320
 2.4710	 3.3160
 2.4720	 3.3060
 2.4730	 3.2970
 2.4740	 3.2880
 2.4750	 3.2850
 2.4760	 3.2800
 2.4770	 3.2770
 2.4780	 3.2730
 2.4790	 3.2720
 2.4800	 3.2600
 2.4810	 3.2330
 2.4820	 3.2120
 2.4830	 3.2190
 2.4840	 3.2190
 2.4850	 3.2160
 2.4860	 3.2260
 2.4870	 3.2090
 2.4880	 3.1840
 2.4890	 3.1910
 2.4900	 3.1940
 2.4910	 3.1740
 2.4920	 3.1950
 2.4930	 3.2080
 2.4940	 3.1920
 2.4950	 3.2040
 2.4960	 3.2010
 2.4970	 3.1830
 2.4980	 3.1500
 2.4990	 3.1260
 2.5000	 3.1210
