Name: Heteromeles arbutifolia 2
Type: vegetation
Class: Shrub
Genus: Heteromeles
Species: arbutifolia
Sample No.: VH208
Owner: UCSB
Wavelength Range: VSWIR
Origin: 34.4907; -119.7912; WGS84
Collection Date: 10/13/2013
Description: Samples were collected as part of the HyspIRI Airborne Campaign. 48 individual plants were sampled in three times in 2013 - spring  summer  and fall. The name of the sample includes a 1  2  or 3 which references a different individual of the species. Samples were taken to JPL and processed within 48 hours of collection. The same leaves were processed in the Nicolet and then measured using the ASD.
Measurement: Bidirectional reflectance
First Column: X
Second Column: Y
X Units: Wavelength (micrometers)
Y Units: Reflectance (percentage)
First X Value: 0.35
Last X Value: 2.5
Number of X Values: 2151
Additional Information: vegetation.shrub.heteromeles.arbutifolia.vswir.vh208.ucsb.asd.ancillary.txt

 0.3500	13.5300
 0.3510	13.5470
 0.3520	13.3770
 0.3530	13.1700
 0.3540	13.0900
 0.3550	13.0460
 0.3560	13.0710
 0.3570	13.1430
 0.3580	13.2110
 0.3590	13.2410
 0.3600	13.2130
 0.3610	13.1190
 0.3620	12.9480
 0.3630	12.8630
 0.3640	12.9140
 0.3650	13.0420
 0.3660	12.9390
 0.3670	12.8400
 0.3680	12.7960
 0.3690	12.7400
 0.3700	12.8590
 0.3710	12.9180
 0.3720	12.8320
 0.3730	12.8820
 0.3740	12.9240
 0.3750	12.8880
 0.3760	12.7740
 0.3770	12.8000
 0.3780	12.8560
 0.3790	12.8840
 0.3800	12.8880
 0.3810	12.8690
 0.3820	12.8680
 0.3830	12.8720
 0.3840	12.7380
 0.3850	12.6670
 0.3860	12.7100
 0.3870	12.8320
 0.3880	12.9240
 0.3890	12.9090
 0.3900	12.8180
 0.3910	12.7850
 0.3920	12.7320
 0.3930	12.7290
 0.3940	12.8010
 0.3950	12.8040
 0.3960	12.8220
 0.3970	12.7990
 0.3980	12.6580
 0.3990	12.7030
 0.4000	12.7680
 0.4010	12.7570
 0.4020	12.7190
 0.4030	12.7020
 0.4040	12.6970
 0.4050	12.6810
 0.4060	12.6590
 0.4070	12.6560
 0.4080	12.6840
 0.4090	12.7360
 0.4100	12.7270
 0.4110	12.7060
 0.4120	12.7050
 0.4130	12.6820
 0.4140	12.6550
 0.4150	12.6620
 0.4160	12.7130
 0.4170	12.6670
 0.4180	12.6230
 0.4190	12.6180
 0.4200	12.6180
 0.4210	12.6160
 0.4220	12.5950
 0.4230	12.5550
 0.4240	12.5530
 0.4250	12.5690
 0.4260	12.5750
 0.4270	12.5500
 0.4280	12.5380
 0.4290	12.5220
 0.4300	12.4950
 0.4310	12.4750
 0.4320	12.4450
 0.4330	12.4150
 0.4340	12.3890
 0.4350	12.3360
 0.4360	12.3240
 0.4370	12.3500
 0.4380	12.3610
 0.4390	12.3660
 0.4400	12.3910
 0.4410	12.4350
 0.4420	12.4430
 0.4430	12.4350
 0.4440	12.4250
 0.4450	12.4250
 0.4460	12.4350
 0.4470	12.4440
 0.4480	12.4420
 0.4490	12.4240
 0.4500	12.4190
 0.4510	12.4150
 0.4520	12.4070
 0.4530	12.4340
 0.4540	12.4480
 0.4550	12.4470
 0.4560	12.4590
 0.4570	12.4590
 0.4580	12.4410
 0.4590	12.4150
 0.4600	12.4180
 0.4610	12.4300
 0.4620	12.4300
 0.4630	12.4060
 0.4640	12.4200
 0.4650	12.4250
 0.4660	12.4070
 0.4670	12.3930
 0.4680	12.3890
 0.4690	12.3870
 0.4700	12.3790
 0.4710	12.3910
 0.4720	12.4010
 0.4730	12.3990
 0.4740	12.3820
 0.4750	12.3710
 0.4760	12.3680
 0.4770	12.3730
 0.4780	12.3790
 0.4790	12.3750
 0.4800	12.3650
 0.4810	12.3560
 0.4820	12.3580
 0.4830	12.3520
 0.4840	12.3370
 0.4850	12.3280
 0.4860	12.3180
 0.4870	12.3150
 0.4880	12.3180
 0.4890	12.3110
 0.4900	12.3220
 0.4910	12.3410
 0.4920	12.3460
 0.4930	12.3670
 0.4940	12.3860
 0.4950	12.3970
 0.4960	12.4220
 0.4970	12.4480
 0.4980	12.4710
 0.4990	12.4920
 0.5000	12.5130
 0.5010	12.5350
 0.5020	12.5650
 0.5030	12.6140
 0.5040	12.6540
 0.5050	12.6960
 0.5060	12.7480
 0.5070	12.8050
 0.5080	12.8640
 0.5090	12.9320
 0.5100	13.0180
 0.5110	13.1060
 0.5120	13.2120
 0.5130	13.3360
 0.5140	13.4500
 0.5150	13.5930
 0.5160	13.7540
 0.5170	13.9180
 0.5180	14.0950
 0.5190	14.2910
 0.5200	14.5010
 0.5210	14.7110
 0.5220	14.9300
 0.5230	15.1570
 0.5240	15.3880
 0.5250	15.6030
 0.5260	15.8150
 0.5270	16.0220
 0.5280	16.2190
 0.5290	16.4040
 0.5300	16.5780
 0.5310	16.7330
 0.5320	16.8600
 0.5330	16.9830
 0.5340	17.0930
 0.5350	17.1800
 0.5360	17.2670
 0.5370	17.3400
 0.5380	17.3950
 0.5390	17.4330
 0.5400	17.4470
 0.5410	17.4450
 0.5420	17.4380
 0.5430	17.4320
 0.5440	17.4410
 0.5450	17.4660
 0.5460	17.5090
 0.5470	17.5970
 0.5480	17.6850
 0.5490	17.7410
 0.5500	17.7640
 0.5510	17.7730
 0.5520	17.7750
 0.5530	17.7700
 0.5540	17.7550
 0.5550	17.7280
 0.5560	17.6880
 0.5570	17.6340
 0.5580	17.5660
 0.5590	17.4830
 0.5600	17.3850
 0.5610	17.2780
 0.5620	17.1570
 0.5630	17.0220
 0.5640	16.8790
 0.5650	16.7280
 0.5660	16.5690
 0.5670	16.4010
 0.5680	16.2280
 0.5690	16.0550
 0.5700	15.8910
 0.5710	15.7410
 0.5720	15.5830
 0.5730	15.4300
 0.5740	15.2900
 0.5750	15.1610
 0.5760	15.0170
 0.5770	14.8820
 0.5780	14.7680
 0.5790	14.6500
 0.5800	14.5420
 0.5810	14.4410
 0.5820	14.3450
 0.5830	14.2740
 0.5840	14.2430
 0.5850	14.2380
 0.5860	14.2160
 0.5870	14.1730
 0.5880	14.1130
 0.5890	14.0480
 0.5900	13.9820
 0.5910	13.9250
 0.5920	13.8800
 0.5930	13.8480
 0.5940	13.8260
 0.5950	13.8090
 0.5960	13.7910
 0.5970	13.7650
 0.5980	13.7480
 0.5990	13.7320
 0.6000	13.7080
 0.6010	13.6930
 0.6020	13.6760
 0.6030	13.6530
 0.6040	13.6240
 0.6050	13.5930
 0.6060	13.5560
 0.6070	13.5090
 0.6080	13.4600
 0.6090	13.3920
 0.6100	13.2980
 0.6110	13.1830
 0.6120	13.1440
 0.6130	13.1490
 0.6140	13.1570
 0.6150	13.1380
 0.6160	13.1080
 0.6170	13.0790
 0.6180	13.0590
 0.6190	13.0350
 0.6200	13.0050
 0.6210	12.9750
 0.6220	12.9600
 0.6230	12.9480
 0.6240	12.9380
 0.6250	12.9300
 0.6260	12.9190
 0.6270	12.9120
 0.6280	12.9060
 0.6290	12.8950
 0.6300	12.8790
 0.6310	12.8690
 0.6320	12.8660
 0.6330	12.8630
 0.6340	12.8510
 0.6350	12.8290
 0.6360	12.7990
 0.6370	12.7700
 0.6380	12.7380
 0.6390	12.6990
 0.6400	12.6510
 0.6410	12.6080
 0.6420	12.5700
 0.6430	12.5320
 0.6440	12.4860
 0.6450	12.4510
 0.6460	12.4220
 0.6470	12.3940
 0.6480	12.3600
 0.6490	12.3330
 0.6500	12.3150
 0.6510	12.2980
 0.6520	12.2880
 0.6530	12.2820
 0.6540	12.2770
 0.6550	12.2700
 0.6560	12.2590
 0.6570	12.2480
 0.6580	12.2440
 0.6590	12.2310
 0.6600	12.2160
 0.6610	12.2040
 0.6620	12.1970
 0.6630	12.1870
 0.6640	12.1820
 0.6650	12.1850
 0.6660	12.1800
 0.6670	12.1810
 0.6680	12.1900
 0.6690	12.2010
 0.6700	12.2100
 0.6710	12.2260
 0.6720	12.2500
 0.6730	12.2710
 0.6740	12.2940
 0.6750	12.3220
 0.6760	12.3550
 0.6770	12.3820
 0.6780	12.4150
 0.6790	12.4570
 0.6800	12.5000
 0.6810	12.5430
 0.6820	12.5870
 0.6830	12.6330
 0.6840	12.6800
 0.6850	12.7370
 0.6860	12.7960
 0.6870	12.8570
 0.6880	12.9360
 0.6890	13.0300
 0.6900	13.1480
 0.6910	13.3040
 0.6920	13.5000
 0.6930	13.7500
 0.6940	14.0700
 0.6950	14.4750
 0.6960	14.9690
 0.6970	15.5540
 0.6980	16.2350
 0.6990	17.0190
 0.7000	17.8980
 0.7010	18.8600
 0.7020	19.8950
 0.7030	21.0140
 0.7040	22.1850
 0.7050	23.3850
 0.7060	24.6300
 0.7070	25.9090
 0.7080	27.2110
 0.7090	28.5330
 0.7100	29.8670
 0.7110	31.2010
 0.7120	32.5320
 0.7130	33.8740
 0.7140	35.2140
 0.7150	36.5440
 0.7160	37.8570
 0.7170	39.1350
 0.7180	40.4120
 0.7190	41.6670
 0.7200	42.8710
 0.7210	44.0610
 0.7220	45.2210
 0.7230	46.3450
 0.7240	47.4490
 0.7250	48.5000
 0.7260	49.4970
 0.7270	50.4500
 0.7280	51.3880
 0.7290	52.2570
 0.7300	53.0710
 0.7310	53.8630
 0.7320	54.6080
 0.7330	55.3040
 0.7340	55.9580
 0.7350	56.5820
 0.7360	57.1660
 0.7370	57.7140
 0.7380	58.2270
 0.7390	58.6800
 0.7400	59.1330
 0.7410	59.5720
 0.7420	59.9560
 0.7430	60.2940
 0.7440	60.6170
 0.7450	60.9230
 0.7460	61.1830
 0.7470	61.4310
 0.7480	61.6610
 0.7490	61.8640
 0.7500	62.0380
 0.7510	62.2060
 0.7520	62.3560
 0.7530	62.4780
 0.7540	62.6230
 0.7550	62.7340
 0.7560	62.8030
 0.7570	62.8630
 0.7580	62.9330
 0.7590	63.0110
 0.7600	63.0810
 0.7610	63.1160
 0.7620	63.1480
 0.7630	63.1850
 0.7640	63.2200
 0.7650	63.2430
 0.7660	63.2550
 0.7670	63.2630
 0.7680	63.2740
 0.7690	63.2950
 0.7700	63.3050
 0.7710	63.2940
 0.7720	63.2790
 0.7730	63.2840
 0.7740	63.2970
 0.7750	63.3040
 0.7760	63.2920
 0.7770	63.2780
 0.7780	63.2750
 0.7790	63.2900
 0.7800	63.2940
 0.7810	63.2810
 0.7820	63.2640
 0.7830	63.2780
 0.7840	63.2820
 0.7850	63.2760
 0.7860	63.2700
 0.7870	63.2780
 0.7880	63.2600
 0.7890	63.2450
 0.7900	63.2680
 0.7910	63.2600
 0.7920	63.2650
 0.7930	63.2810
 0.7940	63.2740
 0.7950	63.2700
 0.7960	63.2730
 0.7970	63.2750
 0.7980	63.2530
 0.7990	63.2570
 0.8000	63.2730
 0.8010	63.2820
 0.8020	63.2870
 0.8030	63.2930
 0.8040	63.2960
 0.8050	63.2910
 0.8060	63.3010
 0.8070	63.2910
 0.8080	63.2690
 0.8090	63.2740
 0.8100	63.2870
 0.8110	63.3100
 0.8120	63.3300
 0.8130	63.3080
 0.8140	63.3100
 0.8150	63.3130
 0.8160	63.2970
 0.8170	63.3040
 0.8180	63.3450
 0.8190	63.3810
 0.8200	63.3640
 0.8210	63.3440
 0.8220	63.3410
 0.8230	63.3540
 0.8240	63.3660
 0.8250	63.3820
 0.8260	63.3820
 0.8270	63.3710
 0.8280	63.4000
 0.8290	63.4140
 0.8300	63.4050
 0.8310	63.3870
 0.8320	63.4050
 0.8330	63.4200
 0.8340	63.4150
 0.8350	63.3960
 0.8360	63.4270
 0.8370	63.4320
 0.8380	63.4130
 0.8390	63.4370
 0.8400	63.4620
 0.8410	63.4660
 0.8420	63.4510
 0.8430	63.4540
 0.8440	63.4410
 0.8450	63.4450
 0.8460	63.4840
 0.8470	63.5200
 0.8480	63.5120
 0.8490	63.4810
 0.8500	63.4720
 0.8510	63.5090
 0.8520	63.5480
 0.8530	63.5530
 0.8540	63.5130
 0.8550	63.5280
 0.8560	63.5470
 0.8570	63.5490
 0.8580	63.5540
 0.8590	63.5530
 0.8600	63.5550
 0.8610	63.5600
 0.8620	63.5420
 0.8630	63.5350
 0.8640	63.5480
 0.8650	63.5730
 0.8660	63.5660
 0.8670	63.5730
 0.8680	63.5730
 0.8690	63.5400
 0.8700	63.5200
 0.8710	63.5250
 0.8720	63.5360
 0.8730	63.5280
 0.8740	63.5490
 0.8750	63.5670
 0.8760	63.5630
 0.8770	63.5410
 0.8780	63.5460
 0.8790	63.5410
 0.8800	63.5160
 0.8810	63.5100
 0.8820	63.5230
 0.8830	63.5240
 0.8840	63.5020
 0.8850	63.4850
 0.8860	63.4810
 0.8870	63.4840
 0.8880	63.4830
 0.8890	63.4930
 0.8900	63.4900
 0.8910	63.4780
 0.8920	63.4720
 0.8930	63.4620
 0.8940	63.4570
 0.8950	63.4440
 0.8960	63.4080
 0.8970	63.4180
 0.8980	63.4280
 0.8990	63.4160
 0.9000	63.3940
 0.9010	63.3810
 0.9020	63.3810
 0.9030	63.3940
 0.9040	63.4150
 0.9050	63.3890
 0.9060	63.3620
 0.9070	63.3630
 0.9080	63.3550
 0.9090	63.3530
 0.9100	63.3470
 0.9110	63.3270
 0.9120	63.2940
 0.9130	63.2870
 0.9140	63.3000
 0.9150	63.3110
 0.9160	63.2900
 0.9170	63.2730
 0.9180	63.2810
 0.9190	63.3070
 0.9200	63.2910
 0.9210	63.2600
 0.9220	63.2240
 0.9230	63.1840
 0.9240	63.1760
 0.9250	63.1880
 0.9260	63.1940
 0.9270	63.1680
 0.9280	63.1150
 0.9290	63.0880
 0.9300	63.0840
 0.9310	63.0460
 0.9320	63.0460
 0.9330	63.0390
 0.9340	63.0130
 0.9350	63.0040
 0.9360	62.9550
 0.9370	62.9020
 0.9380	62.8670
 0.9390	62.8240
 0.9400	62.8070
 0.9410	62.7870
 0.9420	62.7490
 0.9430	62.7210
 0.9440	62.6770
 0.9450	62.6340
 0.9460	62.6090
 0.9470	62.6010
 0.9480	62.5540
 0.9490	62.4760
 0.9500	62.3940
 0.9510	62.3370
 0.9520	62.2630
 0.9530	62.1890
 0.9540	62.1330
 0.9550	62.0710
 0.9560	62.0160
 0.9570	61.9600
 0.9580	61.8960
 0.9590	61.8300
 0.9600	61.7930
 0.9610	61.7690
 0.9620	61.7380
 0.9630	61.7230
 0.9640	61.6650
 0.9650	61.6170
 0.9660	61.6340
 0.9670	61.5940
 0.9680	61.5820
 0.9690	61.6120
 0.9700	61.6490
 0.9710	61.6050
 0.9720	61.5610
 0.9730	61.5310
 0.9740	61.5040
 0.9750	61.5460
 0.9760	61.5500
 0.9770	61.5360
 0.9780	61.5700
 0.9790	61.5870
 0.9800	61.6190
 0.9810	61.6300
 0.9820	61.5850
 0.9830	61.6370
 0.9840	61.6620
 0.9850	61.6590
 0.9860	61.6870
 0.9870	61.7130
 0.9880	61.7300
 0.9890	61.7510
 0.9900	61.7940
 0.9910	61.8180
 0.9920	61.8440
 0.9930	61.8710
 0.9940	61.8980
 0.9950	61.9240
 0.9960	61.9510
 0.9970	61.9780
 0.9980	62.0040
 0.9990	62.0310
 1.0000	62.0580
 1.0010	62.0840
 1.0020	62.1110
 1.0030	62.1380
 1.0040	62.1640
 1.0050	62.1910
 1.0060	62.2180
 1.0070	62.2440
 1.0080	62.2710
 1.0090	62.2980
 1.0100	62.2980
 1.0110	62.3200
 1.0120	62.3440
 1.0130	62.3770
 1.0140	62.3990
 1.0150	62.4150
 1.0160	62.4290
 1.0170	62.4460
 1.0180	62.4630
 1.0190	62.4940
 1.0200	62.5250
 1.0210	62.5510
 1.0220	62.5730
 1.0230	62.5950
 1.0240	62.6150
 1.0250	62.6370
 1.0260	62.6580
 1.0270	62.6800
 1.0280	62.7120
 1.0290	62.7250
 1.0300	62.7180
 1.0310	62.7300
 1.0320	62.7390
 1.0330	62.7510
 1.0340	62.7810
 1.0350	62.8220
 1.0360	62.8460
 1.0370	62.8550
 1.0380	62.8680
 1.0390	62.8740
 1.0400	62.8820
 1.0410	62.8880
 1.0420	62.9000
 1.0430	62.9170
 1.0440	62.9260
 1.0450	62.9400
 1.0460	62.9440
 1.0470	62.9320
 1.0480	62.9320
 1.0490	62.9340
 1.0500	62.9380
 1.0510	62.9470
 1.0520	62.9650
 1.0530	62.9780
 1.0540	62.9910
 1.0550	63.0040
 1.0560	63.0200
 1.0570	63.0250
 1.0580	63.0260
 1.0590	63.0250
 1.0600	63.0130
 1.0610	63.0070
 1.0620	63.0040
 1.0630	63.0010
 1.0640	62.9970
 1.0650	62.9970
 1.0660	63.0010
 1.0670	63.0030
 1.0680	63.0040
 1.0690	63.0100
 1.0700	63.0030
 1.0710	62.9880
 1.0720	62.9780
 1.0730	62.9620
 1.0740	62.9540
 1.0750	62.9520
 1.0760	62.9480
 1.0770	62.9450
 1.0780	62.9400
 1.0790	62.9360
 1.0800	62.9300
 1.0810	62.9190
 1.0820	62.9130
 1.0830	62.9080
 1.0840	62.9030
 1.0850	62.8990
 1.0860	62.8940
 1.0870	62.8930
 1.0880	62.8950
 1.0890	62.8870
 1.0900	62.8740
 1.0910	62.8680
 1.0920	62.8610
 1.0930	62.8490
 1.0940	62.8380
 1.0950	62.8270
 1.0960	62.8060
 1.0970	62.7910
 1.0980	62.7910
 1.0990	62.7780
 1.1000	62.7560
 1.1010	62.7400
 1.1020	62.7220
 1.1030	62.7030
 1.1040	62.6940
 1.1050	62.6870
 1.1060	62.6810
 1.1070	62.6810
 1.1080	62.6730
 1.1090	62.6620
 1.1100	62.6510
 1.1110	62.6350
 1.1120	62.6210
 1.1130	62.6080
 1.1140	62.5950
 1.1150	62.5860
 1.1160	62.5690
 1.1170	62.5520
 1.1180	62.5260
 1.1190	62.4900
 1.1200	62.4510
 1.1210	62.4100
 1.1220	62.3750
 1.1230	62.3390
 1.1240	62.2980
 1.1250	62.2530
 1.1260	62.2080
 1.1270	62.1520
 1.1280	62.0920
 1.1290	62.0200
 1.1300	61.9390
 1.1310	61.8530
 1.1320	61.7570
 1.1330	61.6570
 1.1340	61.5540
 1.1350	61.4420
 1.1360	61.3240
 1.1370	61.1970
 1.1380	61.0610
 1.1390	60.9250
 1.1400	60.7880
 1.1410	60.6470
 1.1420	60.5020
 1.1430	60.3560
 1.1440	60.2080
 1.1450	60.0520
 1.1460	59.9060
 1.1470	59.7610
 1.1480	59.6280
 1.1490	59.5000
 1.1500	59.3810
 1.1510	59.2690
 1.1520	59.1680
 1.1530	59.0760
 1.1540	58.9930
 1.1550	58.9220
 1.1560	58.8570
 1.1570	58.7940
 1.1580	58.7430
 1.1590	58.6980
 1.1600	58.6540
 1.1610	58.6240
 1.1620	58.5990
 1.1630	58.5740
 1.1640	58.5580
 1.1650	58.5430
 1.1660	58.5310
 1.1670	58.5230
 1.1680	58.5220
 1.1690	58.5200
 1.1700	58.5240
 1.1710	58.5210
 1.1720	58.5150
 1.1730	58.5120
 1.1740	58.5080
 1.1750	58.5040
 1.1760	58.5090
 1.1770	58.5140
 1.1780	58.5130
 1.1790	58.5130
 1.1800	58.5060
 1.1810	58.4920
 1.1820	58.4810
 1.1830	58.4710
 1.1840	58.4600
 1.1850	58.4500
 1.1860	58.4440
 1.1870	58.4430
 1.1880	58.4410
 1.1890	58.4420
 1.1900	58.4430
 1.1910	58.4440
 1.1920	58.4420
 1.1930	58.4380
 1.1940	58.4400
 1.1950	58.4440
 1.1960	58.4420
 1.1970	58.4470
 1.1980	58.4530
 1.1990	58.4560
 1.2000	58.4630
 1.2010	58.4780
 1.2020	58.4880
 1.2030	58.5050
 1.2040	58.5310
 1.2050	58.5500
 1.2060	58.5730
 1.2070	58.5890
 1.2080	58.5990
 1.2090	58.6200
 1.2100	58.6420
 1.2110	58.6650
 1.2120	58.6890
 1.2130	58.7170
 1.2140	58.7490
 1.2150	58.7770
 1.2160	58.8060
 1.2170	58.8380
 1.2180	58.8660
 1.2190	58.8850
 1.2200	58.9110
 1.2210	58.9380
 1.2220	58.9600
 1.2230	58.9830
 1.2240	59.0080
 1.2250	59.0320
 1.2260	59.0570
 1.2270	59.0850
 1.2280	59.1110
 1.2290	59.1330
 1.2300	59.1570
 1.2310	59.1780
 1.2320	59.1930
 1.2330	59.2110
 1.2340	59.2340
 1.2350	59.2620
 1.2360	59.2880
 1.2370	59.3180
 1.2380	59.3460
 1.2390	59.3680
 1.2400	59.3810
 1.2410	59.3990
 1.2420	59.4190
 1.2430	59.4380
 1.2440	59.4600
 1.2450	59.4750
 1.2460	59.4870
 1.2470	59.5000
 1.2480	59.5080
 1.2490	59.5210
 1.2500	59.5360
 1.2510	59.5470
 1.2520	59.5650
 1.2530	59.5760
 1.2540	59.5770
 1.2550	59.5820
 1.2560	59.5820
 1.2570	59.5800
 1.2580	59.5840
 1.2590	59.5880
 1.2600	59.5900
 1.2610	59.5910
 1.2620	59.5940
 1.2630	59.5960
 1.2640	59.5870
 1.2650	59.5900
 1.2660	59.5970
 1.2670	59.5910
 1.2680	59.5890
 1.2690	59.5800
 1.2700	59.5680
 1.2710	59.5610
 1.2720	59.5520
 1.2730	59.5420
 1.2740	59.5270
 1.2750	59.5070
 1.2760	59.4930
 1.2770	59.4790
 1.2780	59.4600
 1.2790	59.4370
 1.2800	59.4190
 1.2810	59.4000
 1.2820	59.3760
 1.2830	59.3590
 1.2840	59.3350
 1.2850	59.3030
 1.2860	59.2800
 1.2870	59.2480
 1.2880	59.2120
 1.2890	59.1730
 1.2900	59.1330
 1.2910	59.0770
 1.2920	59.0270
 1.2930	58.9790
 1.2940	58.9280
 1.2950	58.8850
 1.2960	58.8400
 1.2970	58.7900
 1.2980	58.7380
 1.2990	58.6800
 1.3000	58.6180
 1.3010	58.5520
 1.3020	58.4840
 1.3030	58.4140
 1.3040	58.3420
 1.3050	58.2710
 1.3060	58.1990
 1.3070	58.1240
 1.3080	58.0390
 1.3090	57.9530
 1.3100	57.8640
 1.3110	57.7680
 1.3120	57.6750
 1.3130	57.5830
 1.3140	57.4850
 1.3150	57.3840
 1.3160	57.2770
 1.3170	57.1660
 1.3180	57.0500
 1.3190	56.9280
 1.3200	56.8040
 1.3210	56.6780
 1.3220	56.5520
 1.3230	56.4260
 1.3240	56.2980
 1.3250	56.1750
 1.3260	56.0470
 1.3270	55.9060
 1.3280	55.7690
 1.3290	55.6280
 1.3300	55.4830
 1.3310	55.3450
 1.3320	55.2000
 1.3330	55.0510
 1.3340	54.8980
 1.3350	54.7430
 1.3360	54.5890
 1.3370	54.4330
 1.3380	54.2800
 1.3390	54.1250
 1.3400	53.9650
 1.3410	53.8110
 1.3420	53.6590
 1.3430	53.5080
 1.3440	53.3640
 1.3450	53.2200
 1.3460	53.0770
 1.3470	52.9370
 1.3480	52.7970
 1.3490	52.6580
 1.3500	52.5210
 1.3510	52.3840
 1.3520	52.2440
 1.3530	52.1040
 1.3540	51.9630
 1.3550	51.8210
 1.3560	51.6780
 1.3570	51.5410
 1.3580	51.4030
 1.3590	51.2550
 1.3600	51.1020
 1.3610	50.9400
 1.3620	50.7670
 1.3630	50.5940
 1.3640	50.4120
 1.3650	50.2160
 1.3660	50.0110
 1.3670	49.7900
 1.3680	49.5510
 1.3690	49.3010
 1.3700	49.0350
 1.3710	48.7560
 1.3720	48.4680
 1.3730	48.1550
 1.3740	47.8210
 1.3750	47.4690
 1.3760	47.0870
 1.3770	46.6780
 1.3780	46.2470
 1.3790	45.7920
 1.3800	45.3100
 1.3810	44.8020
 1.3820	44.2690
 1.3830	43.7110
 1.3840	43.1290
 1.3850	42.5180
 1.3860	41.8950
 1.3870	41.2450
 1.3880	40.5910
 1.3890	39.9220
 1.3900	39.2430
 1.3910	38.5660
 1.3920	37.8810
 1.3930	37.1930
 1.3940	36.5110
 1.3950	35.8270
 1.3960	35.1570
 1.3970	34.5070
 1.3980	33.8700
 1.3990	33.2570
 1.4000	32.6620
 1.4010	32.0830
 1.4020	31.5320
 1.4030	31.0070
 1.4040	30.5120
 1.4050	30.0460
 1.4060	29.6030
 1.4070	29.1920
 1.4080	28.8040
 1.4090	28.4390
 1.4100	28.1020
 1.4110	27.7830
 1.4120	27.4900
 1.4130	27.2240
 1.4140	26.9820
 1.4150	26.7670
 1.4160	26.5680
 1.4170	26.3840
 1.4180	26.2190
 1.4190	26.0690
 1.4200	25.9340
 1.4210	25.8150
 1.4220	25.7100
 1.4230	25.6190
 1.4240	25.5370
 1.4250	25.4660
 1.4260	25.4070
 1.4270	25.3520
 1.4280	25.3020
 1.4290	25.2620
 1.4300	25.2300
 1.4310	25.2030
 1.4320	25.1820
 1.4330	25.1680
 1.4340	25.1600
 1.4350	25.1560
 1.4360	25.1580
 1.4370	25.1670
 1.4380	25.1760
 1.4390	25.1880
 1.4400	25.2020
 1.4410	25.2190
 1.4420	25.2420
 1.4430	25.2640
 1.4440	25.2960
 1.4450	25.3270
 1.4460	25.3580
 1.4470	25.3950
 1.4480	25.4300
 1.4490	25.4660
 1.4500	25.5040
 1.4510	25.5380
 1.4520	25.5750
 1.4530	25.6140
 1.4540	25.6530
 1.4550	25.6970
 1.4560	25.7420
 1.4570	25.7910
 1.4580	25.8470
 1.4590	25.9090
 1.4600	25.9750
 1.4610	26.0470
 1.4620	26.1230
 1.4630	26.2040
 1.4640	26.2900
 1.4650	26.3820
 1.4660	26.4790
 1.4670	26.5830
 1.4680	26.6940
 1.4690	26.8120
 1.4700	26.9350
 1.4710	27.0610
 1.4720	27.1900
 1.4730	27.3230
 1.4740	27.4610
 1.4750	27.6020
 1.4760	27.7500
 1.4770	27.9000
 1.4780	28.0470
 1.4790	28.2000
 1.4800	28.3540
 1.4810	28.5110
 1.4820	28.6710
 1.4830	28.8320
 1.4840	28.9930
 1.4850	29.1550
 1.4860	29.3180
 1.4870	29.4820
 1.4880	29.6480
 1.4890	29.8120
 1.4900	29.9770
 1.4910	30.1400
 1.4920	30.3050
 1.4930	30.4690
 1.4940	30.6360
 1.4950	30.8070
 1.4960	30.9770
 1.4970	31.1490
 1.4980	31.3190
 1.4990	31.4870
 1.5000	31.6570
 1.5010	31.8300
 1.5020	31.9970
 1.5030	32.1620
 1.5040	32.3280
 1.5050	32.4880
 1.5060	32.6530
 1.5070	32.8240
 1.5080	32.9880
 1.5090	33.1500
 1.5100	33.3130
 1.5110	33.4730
 1.5120	33.6330
 1.5130	33.7940
 1.5140	33.9570
 1.5150	34.1170
 1.5160	34.2750
 1.5170	34.4350
 1.5180	34.5890
 1.5190	34.7410
 1.5200	34.8920
 1.5210	35.0400
 1.5220	35.1890
 1.5230	35.3370
 1.5240	35.4830
 1.5250	35.6290
 1.5260	35.7740
 1.5270	35.9210
 1.5280	36.0710
 1.5290	36.2190
 1.5300	36.3650
 1.5310	36.5080
 1.5320	36.6450
 1.5330	36.7810
 1.5340	36.9160
 1.5350	37.0520
 1.5360	37.1910
 1.5370	37.3280
 1.5380	37.4600
 1.5390	37.5910
 1.5400	37.7180
 1.5410	37.8430
 1.5420	37.9660
 1.5430	38.0900
 1.5440	38.2160
 1.5450	38.3390
 1.5460	38.4640
 1.5470	38.5930
 1.5480	38.7160
 1.5490	38.8400
 1.5500	38.9610
 1.5510	39.0780
 1.5520	39.1930
 1.5530	39.3020
 1.5540	39.4110
 1.5550	39.5200
 1.5560	39.6240
 1.5570	39.7270
 1.5580	39.8300
 1.5590	39.9320
 1.5600	40.0380
 1.5610	40.1420
 1.5620	40.2470
 1.5630	40.3520
 1.5640	40.4540
 1.5650	40.5590
 1.5660	40.6620
 1.5670	40.7640
 1.5680	40.8660
 1.5690	40.9620
 1.5700	41.0580
 1.5710	41.1550
 1.5720	41.2470
 1.5730	41.3380
 1.5740	41.4270
 1.5750	41.5140
 1.5760	41.6040
 1.5770	41.6930
 1.5780	41.7810
 1.5790	41.8670
 1.5800	41.9510
 1.5810	42.0360
 1.5820	42.1220
 1.5830	42.2110
 1.5840	42.3020
 1.5850	42.3910
 1.5860	42.4840
 1.5870	42.5710
 1.5880	42.6540
 1.5890	42.7430
 1.5900	42.8270
 1.5910	42.9110
 1.5920	42.9970
 1.5930	43.0760
 1.5940	43.1560
 1.5950	43.2370
 1.5960	43.3100
 1.5970	43.3840
 1.5980	43.4600
 1.5990	43.5290
 1.6000	43.6030
 1.6010	43.6740
 1.6020	43.7370
 1.6030	43.8030
 1.6040	43.8670
 1.6050	43.9310
 1.6060	43.9950
 1.6070	44.0540
 1.6080	44.1190
 1.6090	44.1850
 1.6100	44.2500
 1.6110	44.3200
 1.6120	44.3860
 1.6130	44.4500
 1.6140	44.5120
 1.6150	44.5710
 1.6160	44.6280
 1.6170	44.6830
 1.6180	44.7370
 1.6190	44.7890
 1.6200	44.8440
 1.6210	44.8990
 1.6220	44.9520
 1.6230	45.0020
 1.6240	45.0520
 1.6250	45.1010
 1.6260	45.1460
 1.6270	45.1920
 1.6280	45.2310
 1.6290	45.2700
 1.6300	45.3110
 1.6310	45.3520
 1.6320	45.3910
 1.6330	45.4360
 1.6340	45.4880
 1.6350	45.5310
 1.6360	45.5710
 1.6370	45.6080
 1.6380	45.6390
 1.6390	45.6750
 1.6400	45.7170
 1.6410	45.7530
 1.6420	45.7900
 1.6430	45.8210
 1.6440	45.8470
 1.6450	45.8740
 1.6460	45.8980
 1.6470	45.9190
 1.6480	45.9340
 1.6490	45.9470
 1.6500	45.9620
 1.6510	45.9770
 1.6520	45.9890
 1.6530	45.9980
 1.6540	45.9990
 1.6550	45.9920
 1.6560	45.9860
 1.6570	45.9800
 1.6580	45.9760
 1.6590	45.9690
 1.6600	45.9630
 1.6610	45.9530
 1.6620	45.9400
 1.6630	45.9320
 1.6640	45.9200
 1.6650	45.9040
 1.6660	45.8920
 1.6670	45.8820
 1.6680	45.8720
 1.6690	45.8680
 1.6700	45.8660
 1.6710	45.8590
 1.6720	45.8550
 1.6730	45.8510
 1.6740	45.8460
 1.6750	45.8380
 1.6760	45.8290
 1.6770	45.8140
 1.6780	45.7930
 1.6790	45.7680
 1.6800	45.7350
 1.6810	45.7000
 1.6820	45.6630
 1.6830	45.6210
 1.6840	45.5800
 1.6850	45.5410
 1.6860	45.4950
 1.6870	45.4500
 1.6880	45.4090
 1.6890	45.3730
 1.6900	45.3300
 1.6910	45.2850
 1.6920	45.2420
 1.6930	45.1930
 1.6940	45.1460
 1.6950	45.1020
 1.6960	45.0600
 1.6970	45.0180
 1.6980	44.9750
 1.6990	44.9390
 1.7000	44.8960
 1.7010	44.8480
 1.7020	44.8000
 1.7030	44.7520
 1.7040	44.6990
 1.7050	44.6420
 1.7060	44.5820
 1.7070	44.5150
 1.7080	44.4520
 1.7090	44.3860
 1.7100	44.3270
 1.7110	44.2750
 1.7120	44.2190
 1.7130	44.1580
 1.7140	44.0900
 1.7150	44.0220
 1.7160	43.9540
 1.7170	43.8910
 1.7180	43.8330
 1.7190	43.7650
 1.7200	43.7080
 1.7210	43.6510
 1.7220	43.5900
 1.7230	43.5370
 1.7240	43.4720
 1.7250	43.4070
 1.7260	43.3460
 1.7270	43.2830
 1.7280	43.2270
 1.7290	43.1650
 1.7300	43.0940
 1.7310	43.0300
 1.7320	42.9680
 1.7330	42.9070
 1.7340	42.8500
 1.7350	42.7940
 1.7360	42.7390
 1.7370	42.6800
 1.7380	42.6230
 1.7390	42.5590
 1.7400	42.4860
 1.7410	42.4180
 1.7420	42.3530
 1.7430	42.2780
 1.7440	42.2000
 1.7450	42.1220
 1.7460	42.0370
 1.7470	41.9550
 1.7480	41.8770
 1.7490	41.7940
 1.7500	41.7030
 1.7510	41.6210
 1.7520	41.5430
 1.7530	41.4630
 1.7540	41.3880
 1.7550	41.3060
 1.7560	41.2250
 1.7570	41.1430
 1.7580	41.0710
 1.7590	41.0090
 1.7600	40.9440
 1.7610	40.8870
 1.7620	40.8250
 1.7630	40.7560
 1.7640	40.6890
 1.7650	40.6160
 1.7660	40.5490
 1.7670	40.4840
 1.7680	40.4200
 1.7690	40.3620
 1.7700	40.2980
 1.7710	40.2240
 1.7720	40.1640
 1.7730	40.1080
 1.7740	40.0550
 1.7750	40.0130
 1.7760	39.9680
 1.7770	39.9210
 1.7780	39.8770
 1.7790	39.8360
 1.7800	39.7970
 1.7810	39.7590
 1.7820	39.7240
 1.7830	39.6920
 1.7840	39.6610
 1.7850	39.6290
 1.7860	39.6040
 1.7870	39.5830
 1.7880	39.5660
 1.7890	39.5580
 1.7900	39.5410
 1.7910	39.5210
 1.7920	39.4880
 1.7930	39.4650
 1.7940	39.4490
 1.7950	39.4340
 1.7960	39.4230
 1.7970	39.4140
 1.7980	39.4060
 1.7990	39.3970
 1.8000	39.3890
 1.8010	39.3870
 1.8020	39.3870
 1.8030	39.3920
 1.8040	39.4100
 1.8050	39.4190
 1.8060	39.4300
 1.8070	39.4330
 1.8080	39.4280
 1.8090	39.4270
 1.8100	39.4210
 1.8110	39.4200
 1.8120	39.4280
 1.8130	39.4320
 1.8140	39.4310
 1.8150	39.4250
 1.8160	39.4070
 1.8170	39.3940
 1.8180	39.3900
 1.8190	39.3800
 1.8200	39.3710
 1.8210	39.3530
 1.8220	39.3390
 1.8230	39.3320
 1.8240	39.3220
 1.8250	39.3170
 1.8260	39.2940
 1.8270	39.3770
 1.8280	39.4600
 1.8290	39.5430
 1.8300	39.6260
 1.8310	39.7090
 1.8320	39.7920
 1.8330	39.8740
 1.8340	39.9570
 1.8350	39.9570
 1.8360	39.8980
 1.8370	39.8280
 1.8380	39.7510
 1.8390	39.6650
 1.8400	39.5740
 1.8410	39.4770
 1.8420	39.3740
 1.8430	39.2560
 1.8440	39.1240
 1.8450	38.9960
 1.8460	38.8600
 1.8470	38.7080
 1.8480	38.5490
 1.8490	38.3660
 1.8500	38.1720
 1.8510	37.9540
 1.8520	37.7320
 1.8530	37.5030
 1.8540	37.2750
 1.8550	37.0280
 1.8560	36.7610
 1.8570	36.4770
 1.8580	36.1670
 1.8590	35.8510
 1.8600	35.5240
 1.8610	35.1770
 1.8620	34.8040
 1.8630	34.4140
 1.8640	34.0030
 1.8650	33.5700
 1.8660	33.1090
 1.8670	32.6270
 1.8680	32.1260
 1.8690	31.5890
 1.8700	31.0330
 1.8710	30.4580
 1.8720	29.8760
 1.8730	29.2650
 1.8740	28.6550
 1.8750	28.0570
 1.8760	27.4420
 1.8770	26.8370
 1.8780	26.2330
 1.8790	25.6190
 1.8800	25.0140
 1.8810	24.4160
 1.8820	23.8080
 1.8830	23.2030
 1.8840	22.6200
 1.8850	22.0510
 1.8860	21.5110
 1.8870	20.9940
 1.8880	20.4950
 1.8890	20.0100
 1.8900	19.5460
 1.8910	19.1150
 1.8920	18.7120
 1.8930	18.3310
 1.8940	17.9810
 1.8950	17.6680
 1.8960	17.3760
 1.8970	17.1090
 1.8980	16.8790
 1.8990	16.6690
 1.9000	16.4800
 1.9010	16.3210
 1.9020	16.1710
 1.9030	16.0420
 1.9040	15.9200
 1.9050	15.8070
 1.9060	15.7040
 1.9070	15.6200
 1.9080	15.5550
 1.9090	15.4960
 1.9100	15.4470
 1.9110	15.4020
 1.9120	15.3590
 1.9130	15.3220
 1.9140	15.2960
 1.9150	15.2700
 1.9160	15.2450
 1.9170	15.2260
 1.9180	15.2030
 1.9190	15.1840
 1.9200	15.1730
 1.9210	15.1620
 1.9220	15.1540
 1.9230	15.1550
 1.9240	15.1550
 1.9250	15.1550
 1.9260	15.1590
 1.9270	15.1660
 1.9280	15.1750
 1.9290	15.1940
 1.9300	15.2070
 1.9310	15.2190
 1.9320	15.2270
 1.9330	15.2430
 1.9340	15.2580
 1.9350	15.2800
 1.9360	15.3100
 1.9370	15.3410
 1.9380	15.3750
 1.9390	15.4040
 1.9400	15.4400
 1.9410	15.4790
 1.9420	15.5150
 1.9430	15.5500
 1.9440	15.5850
 1.9450	15.6170
 1.9460	15.6550
 1.9470	15.6960
 1.9480	15.7370
 1.9490	15.7810
 1.9500	15.8260
 1.9510	15.8700
 1.9520	15.9170
 1.9530	15.9700
 1.9540	16.0200
 1.9550	16.0710
 1.9560	16.1220
 1.9570	16.1750
 1.9580	16.2300
 1.9590	16.2840
 1.9600	16.3390
 1.9610	16.3950
 1.9620	16.4500
 1.9630	16.5120
 1.9640	16.5710
 1.9650	16.6360
 1.9660	16.7010
 1.9670	16.7660
 1.9680	16.8320
 1.9690	16.9030
 1.9700	16.9710
 1.9710	17.0370
 1.9720	17.1070
 1.9730	17.1770
 1.9740	17.2550
 1.9750	17.3270
 1.9760	17.4030
 1.9770	17.4800
 1.9780	17.5470
 1.9790	17.6210
 1.9800	17.6950
 1.9810	17.7740
 1.9820	17.8570
 1.9830	17.9380
 1.9840	18.0220
 1.9850	18.1050
 1.9860	18.1860
 1.9870	18.2710
 1.9880	18.3600
 1.9890	18.4470
 1.9900	18.5370
 1.9910	18.6220
 1.9920	18.7100
 1.9930	18.7980
 1.9940	18.8900
 1.9950	18.9850
 1.9960	19.0780
 1.9970	19.1730
 1.9980	19.2660
 1.9990	19.3590
 2.0000	19.4470
 2.0010	19.5360
 2.0020	19.6230
 2.0030	19.7090
 2.0040	19.7920
 2.0050	19.8740
 2.0060	19.9530
 2.0070	20.0360
 2.0080	20.1190
 2.0090	20.2070
 2.0100	20.3030
 2.0110	20.3960
 2.0120	20.4920
 2.0130	20.5870
 2.0140	20.6820
 2.0150	20.7780
 2.0160	20.8670
 2.0170	20.9510
 2.0180	21.0300
 2.0190	21.0960
 2.0200	21.1740
 2.0210	21.2560
 2.0220	21.3370
 2.0230	21.4230
 2.0240	21.5040
 2.0250	21.5740
 2.0260	21.6520
 2.0270	21.7310
 2.0280	21.8180
 2.0290	21.8990
 2.0300	21.9880
 2.0310	22.0690
 2.0320	22.1450
 2.0330	22.2210
 2.0340	22.2970
 2.0350	22.3710
 2.0360	22.4410
 2.0370	22.5140
 2.0380	22.5930
 2.0390	22.6650
 2.0400	22.7360
 2.0410	22.8030
 2.0420	22.8640
 2.0430	22.9180
 2.0440	22.9830
 2.0450	23.0490
 2.0460	23.1160
 2.0470	23.1910
 2.0480	23.2590
 2.0490	23.3300
 2.0500	23.3920
 2.0510	23.4440
 2.0520	23.5030
 2.0530	23.5600
 2.0540	23.6170
 2.0550	23.6710
 2.0560	23.7380
 2.0570	23.7990
 2.0580	23.8510
 2.0590	23.9130
 2.0600	23.9820
 2.0610	24.0450
 2.0620	24.1060
 2.0630	24.1740
 2.0640	24.2450
 2.0650	24.3120
 2.0660	24.3830
 2.0670	24.4490
 2.0680	24.5060
 2.0690	24.5690
 2.0700	24.6360
 2.0710	24.7010
 2.0720	24.7660
 2.0730	24.8290
 2.0740	24.8920
 2.0750	24.9540
 2.0760	25.0160
 2.0770	25.0800
 2.0780	25.1390
 2.0790	25.1900
 2.0800	25.2480
 2.0810	25.3020
 2.0820	25.3650
 2.0830	25.4440
 2.0840	25.5100
 2.0850	25.5650
 2.0860	25.6310
 2.0870	25.6990
 2.0880	25.7610
 2.0890	25.8360
 2.0900	25.9330
 2.0910	26.0040
 2.0920	26.0660
 2.0930	26.1310
 2.0940	26.1870
 2.0950	26.2480
 2.0960	26.3180
 2.0970	26.3770
 2.0980	26.4300
 2.0990	26.4800
 2.1000	26.5190
 2.1010	26.5670
 2.1020	26.6100
 2.1030	26.6630
 2.1040	26.7200
 2.1050	26.7920
 2.1060	26.8600
 2.1070	26.9380
 2.1080	26.9990
 2.1090	27.0520
 2.1100	27.1090
 2.1110	27.1550
 2.1120	27.2130
 2.1130	27.2840
 2.1140	27.3470
 2.1150	27.4160
 2.1160	27.4750
 2.1170	27.5230
 2.1180	27.5770
 2.1190	27.6260
 2.1200	27.6810
 2.1210	27.7440
 2.1220	27.8090
 2.1230	27.8650
 2.1240	27.9190
 2.1250	27.9760
 2.1260	28.0320
 2.1270	28.0850
 2.1280	28.1430
 2.1290	28.1900
 2.1300	28.2210
 2.1310	28.2640
 2.1320	28.3130
 2.1330	28.3530
 2.1340	28.3950
 2.1350	28.4320
 2.1360	28.4520
 2.1370	28.4850
 2.1380	28.5230
 2.1390	28.5650
 2.1400	28.6180
 2.1410	28.6730
 2.1420	28.7210
 2.1430	28.7700
 2.1440	28.8140
 2.1450	28.8500
 2.1460	28.8920
 2.1470	28.9380
 2.1480	28.9750
 2.1490	29.0120
 2.1500	29.0420
 2.1510	29.0660
 2.1520	29.0860
 2.1530	29.0980
 2.1540	29.1130
 2.1550	29.1190
 2.1560	29.1350
 2.1570	29.1630
 2.1580	29.1850
 2.1590	29.2050
 2.1600	29.2260
 2.1610	29.2520
 2.1620	29.2730
 2.1630	29.3010
 2.1640	29.3350
 2.1650	29.3680
 2.1660	29.4080
 2.1670	29.4320
 2.1680	29.4550
 2.1690	29.4730
 2.1700	29.4740
 2.1710	29.4830
 2.1720	29.4950
 2.1730	29.5060
 2.1740	29.5100
 2.1750	29.5250
 2.1760	29.5530
 2.1770	29.5720
 2.1780	29.5970
 2.1790	29.6160
 2.1800	29.6220
 2.1810	29.6350
 2.1820	29.6570
 2.1830	29.6680
 2.1840	29.6840
 2.1850	29.6980
 2.1860	29.7180
 2.1870	29.7380
 2.1880	29.7610
 2.1890	29.7880
 2.1900	29.8210
 2.1910	29.8660
 2.1920	29.8940
 2.1930	29.9240
 2.1940	29.9430
 2.1950	29.9370
 2.1960	29.9500
 2.1970	29.9730
 2.1980	29.9880
 2.1990	30.0120
 2.2000	30.0220
 2.2010	30.0120
 2.2020	30.0130
 2.2030	30.0050
 2.2040	30.0110
 2.2050	30.0370
 2.2060	30.0540
 2.2070	30.0740
 2.2080	30.0990
 2.2090	30.1220
 2.2100	30.1430
 2.2110	30.1660
 2.2120	30.1960
 2.2130	30.2120
 2.2140	30.2200
 2.2150	30.2280
 2.2160	30.2310
 2.2170	30.2310
 2.2180	30.2290
 2.2190	30.2250
 2.2200	30.2190
 2.2210	30.2050
 2.2220	30.1820
 2.2230	30.1660
 2.2240	30.1480
 2.2250	30.1240
 2.2260	30.1080
 2.2270	30.0790
 2.2280	30.0230
 2.2290	29.9880
 2.2300	29.9590
 2.2310	29.9380
 2.2320	29.9210
 2.2330	29.9010
 2.2340	29.8710
 2.2350	29.8240
 2.2360	29.7940
 2.2370	29.7690
 2.2380	29.7350
 2.2390	29.7050
 2.2400	29.6640
 2.2410	29.6120
 2.2420	29.5650
 2.2430	29.5180
 2.2440	29.4670
 2.2450	29.4200
 2.2460	29.3580
 2.2470	29.2810
 2.2480	29.2100
 2.2490	29.1230
 2.2500	29.0530
 2.2510	29.0000
 2.2520	28.9380
 2.2530	28.8790
 2.2540	28.8210
 2.2550	28.7600
 2.2560	28.6960
 2.2570	28.6370
 2.2580	28.5700
 2.2590	28.5010
 2.2600	28.4220
 2.2610	28.3400
 2.2620	28.2450
 2.2630	28.1440
 2.2640	28.0420
 2.2650	27.9460
 2.2660	27.8570
 2.2670	27.7730
 2.2680	27.7000
 2.2690	27.6170
 2.2700	27.5310
 2.2710	27.4540
 2.2720	27.3710
 2.2730	27.3070
 2.2740	27.2600
 2.2750	27.2080
 2.2760	27.1650
 2.2770	27.1170
 2.2780	27.0640
 2.2790	27.0200
 2.2800	26.9840
 2.2810	26.9340
 2.2820	26.8900
 2.2830	26.8310
 2.2840	26.7500
 2.2850	26.6820
 2.2860	26.6100
 2.2870	26.5400
 2.2880	26.4690
 2.2890	26.4050
 2.2900	26.3410
 2.2910	26.2870
 2.2920	26.2490
 2.2930	26.2010
 2.2940	26.1560
 2.2950	26.1080
 2.2960	26.0460
 2.2970	25.9930
 2.2980	25.9510
 2.2990	25.9000
 2.3000	25.8460
 2.3010	25.8090
 2.3020	25.7480
 2.3030	25.6920
 2.3040	25.6610
 2.3050	25.6290
 2.3060	25.6110
 2.3070	25.5820
 2.3080	25.5420
 2.3090	25.4890
 2.3100	25.4170
 2.3110	25.3720
 2.3120	25.3360
 2.3130	25.3070
 2.3140	25.2750
 2.3150	25.2630
 2.3160	25.2370
 2.3170	25.2010
 2.3180	25.1700
 2.3190	25.1410
 2.3200	25.1050
 2.3210	25.0590
 2.3220	25.0210
 2.3230	24.9930
 2.3240	24.9480
 2.3250	24.9060
 2.3260	24.8440
 2.3270	24.7460
 2.3280	24.6810
 2.3290	24.6200
 2.3300	24.5620
 2.3310	24.5210
 2.3320	24.4800
 2.3330	24.4330
 2.3340	24.3880
 2.3350	24.3660
 2.3360	24.3160
 2.3370	24.2450
 2.3380	24.1850
 2.3390	24.1110
 2.3400	24.0450
 2.3410	23.9860
 2.3420	23.9260
 2.3430	23.8620
 2.3440	23.8110
 2.3450	23.7760
 2.3460	23.7370
 2.3470	23.7000
 2.3480	23.6650
 2.3490	23.6200
 2.3500	23.5800
 2.3510	23.5630
 2.3520	23.5320
 2.3530	23.4900
 2.3540	23.4590
 2.3550	23.4360
 2.3560	23.3840
 2.3570	23.3310
 2.3580	23.3090
 2.3590	23.2680
 2.3600	23.2050
 2.3610	23.1510
 2.3620	23.0910
 2.3630	23.0270
 2.3640	22.9720
 2.3650	22.9190
 2.3660	22.8760
 2.3670	22.8270
 2.3680	22.7650
 2.3690	22.7100
 2.3700	22.6530
 2.3710	22.6040
 2.3720	22.5580
 2.3730	22.4970
 2.3740	22.4490
 2.3750	22.4130
 2.3760	22.3710
 2.3770	22.3300
 2.3780	22.2810
 2.3790	22.2170
 2.3800	22.1650
 2.3810	22.1450
 2.3820	22.0960
 2.3830	22.0340
 2.3840	22.0040
 2.3850	21.9410
 2.3860	21.8880
 2.3870	21.8440
 2.3880	21.7640
 2.3890	21.7230
 2.3900	21.6850
 2.3910	21.6180
 2.3920	21.5580
 2.3930	21.4740
 2.3940	21.3700
 2.3950	21.3080
 2.3960	21.2940
 2.3970	21.2570
 2.3980	21.2000
 2.3990	21.1240
 2.4000	21.0300
 2.4010	20.9990
 2.4020	20.9740
 2.4030	20.9160
 2.4040	20.8740
 2.4050	20.8000
 2.4060	20.7290
 2.4070	20.7080
 2.4080	20.6460
 2.4090	20.5500
 2.4100	20.4760
 2.4110	20.3960
 2.4120	20.3550
 2.4130	20.3430
 2.4140	20.3420
 2.4150	20.3290
 2.4160	20.2740
 2.4170	20.2330
 2.4180	20.1630
 2.4190	20.0590
 2.4200	19.9900
 2.4210	19.8910
 2.4220	19.8040
 2.4230	19.8210
 2.4240	19.8200
 2.4250	19.8030
 2.4260	19.7770
 2.4270	19.6790
 2.4280	19.5950
 2.4290	19.5390
 2.4300	19.5160
 2.4310	19.5010
 2.4320	19.4640
 2.4330	19.3990
 2.4340	19.3090
 2.4350	19.2840
 2.4360	19.2650
 2.4370	19.2080
 2.4380	19.1690
 2.4390	19.0720
 2.4400	18.9150
 2.4410	18.8670
 2.4420	18.8520
 2.4430	18.7680
 2.4440	18.7260
 2.4450	18.6960
 2.4460	18.6320
 2.4470	18.6060
 2.4480	18.5970
 2.4490	18.5480
 2.4500	18.4820
 2.4510	18.3980
 2.4520	18.3640
 2.4530	18.3820
 2.4540	18.3580
 2.4550	18.3440
 2.4560	18.3500
 2.4570	18.3030
 2.4580	18.2550
 2.4590	18.2910
 2.4600	18.2020
 2.4610	18.0410
 2.4620	17.9240
 2.4630	17.7300
 2.4640	17.6590
 2.4650	17.7070
 2.4660	17.7390
 2.4670	17.8450
 2.4680	17.8970
 2.4690	17.7840
 2.4700	17.7330
 2.4710	17.5950
 2.4720	17.5330
 2.4730	17.5670
 2.4740	17.5430
 2.4750	17.4970
 2.4760	17.5180
 2.4770	17.5890
 2.4780	17.5740
 2.4790	17.5690
 2.4800	17.5020
 2.4810	17.2670
 2.4820	17.2390
 2.4830	17.3600
 2.4840	17.4240
 2.4850	17.3830
 2.4860	17.2710
 2.4870	17.0850
 2.4880	17.0130
 2.4890	17.0890
 2.4900	17.1630
 2.4910	17.1340
 2.4920	17.0110
 2.4930	16.8650
 2.4940	16.7330
 2.4950	16.7420
 2.4960	16.9050
 2.4970	17.0350
 2.4980	17.0620
 2.4990	16.9820
 2.5000	16.8870
