Name: Adenostoma fasciculatum 3
Type: vegetation
Class: Shrub
Genus: Adenostoma
Species: fasciculatum
Sample No.: VH116
Owner: UCSB
Wavelength Range: TIR
Origin: 34.5084; -119.7686; WGS84
Collection Date: 6/3/2013
Description: Samples were collected as part of the HyspIRI Airborne Campaign. 48 individual plants were sampled in three times in 2013 - spring  summer  and fall. The name of the sample includes a 1  2  or 3 which references a different individual of the species. Samples were taken to JPL and processed within 48 hours of collection. The same leaves were processed in the Nicolet and then measured using the ASD.
Measurement: Hemispherical reflectance
First Column: X
Second Column: Y
X Units: Wavelength (micrometers)
Y Units: Reflectance (percentage)
First X Value: 2.501
Last X Value: 15.387
Number of X Values: 1737
Additional Information: vegetation.shrub.adenostoma.fasciculatum.tir.vh116.ucsb.nicolet.ancillary.txt

 2.5010	 5.1760
 2.5030	 5.2390
 2.5040	 5.1700
 2.5050	 5.1200
 2.5060	 5.1760
 2.5070	 5.1530
 2.5090	 5.1920
 2.5100	 5.1200
 2.5110	 5.1210
 2.5120	 5.2070
 2.5140	 5.3580
 2.5150	 5.2800
 2.5160	 5.1630
 2.5170	 5.1150
 2.5180	 5.1680
 2.5200	 5.0350
 2.5210	 5.0510
 2.5220	 5.0400
 2.5230	 4.9380
 2.5250	 4.9050
 2.5260	 5.0860
 2.5270	 5.1020
 2.5280	 5.1550
 2.5290	 5.0840
 2.5310	 5.1080
 2.5320	 5.0750
 2.5330	 5.1030
 2.5340	 5.2040
 2.5360	 5.3150
 2.5370	 5.2230
 2.5380	 5.1650
 2.5390	 5.1690
 2.5410	 5.1960
 2.5420	 5.1350
 2.5430	 5.0560
 2.5440	 4.9880
 2.5460	 5.1180
 2.5470	 5.3130
 2.5480	 5.3140
 2.5490	 5.1970
 2.5510	 5.2860
 2.5520	 5.1960
 2.5530	 5.1420
 2.5540	 5.1770
 2.5560	 5.1910
 2.5570	 5.1050
 2.5580	 5.2170
 2.5590	 5.3410
 2.5610	 5.3500
 2.5620	 5.2810
 2.5630	 5.2770
 2.5640	 5.2610
 2.5660	 5.2960
 2.5670	 5.3030
 2.5680	 5.3670
 2.5700	 5.2920
 2.5710	 5.2100
 2.5720	 5.1760
 2.5730	 5.2740
 2.5750	 5.2050
 2.5760	 5.1670
 2.5770	 5.2410
 2.5790	 5.3050
 2.5800	 5.4190
 2.5810	 5.4920
 2.5820	 5.2860
 2.5840	 5.2710
 2.5850	 5.2210
 2.5860	 5.2400
 2.5880	 5.2840
 2.5890	 5.2380
 2.5900	 5.0900
 2.5910	 5.1850
 2.5930	 5.1660
 2.5940	 5.2080
 2.5950	 5.1390
 2.5970	 5.0950
 2.5980	 5.0160
 2.5990	 5.1130
 2.6000	 5.1350
 2.6020	 5.1020
 2.6030	 5.0090
 2.6040	 5.0770
 2.6060	 5.1330
 2.6070	 5.1500
 2.6080	 5.1050
 2.6100	 5.1650
 2.6110	 5.0680
 2.6120	 5.0110
 2.6140	 5.0020
 2.6150	 5.0300
 2.6160	 4.9870
 2.6180	 4.9740
 2.6190	 4.9060
 2.6200	 4.8690
 2.6220	 4.8080
 2.6230	 4.7490
 2.6240	 4.6960
 2.6260	 4.7500
 2.6270	 4.6490
 2.6280	 4.6890
 2.6300	 4.7820
 2.6310	 4.8230
 2.6320	 4.7510
 2.6340	 4.6600
 2.6350	 4.5830
 2.6360	 4.6090
 2.6380	 4.5400
 2.6390	 4.5130
 2.6400	 4.4380
 2.6420	 4.4890
 2.6430	 4.5340
 2.6440	 4.5240
 2.6460	 4.4670
 2.6470	 4.4190
 2.6480	 4.3070
 2.6500	 4.3130
 2.6510	 4.3040
 2.6520	 4.3490
 2.6540	 4.3090
 2.6550	 4.2760
 2.6560	 4.1300
 2.6580	 4.1570
 2.6590	 4.1430
 2.6610	 4.1730
 2.6620	 4.1380
 2.6630	 4.1420
 2.6650	 4.0990
 2.6660	 4.0390
 2.6670	 3.8810
 2.6690	 3.8400
 2.6700	 3.8030
 2.6720	 3.8630
 2.6730	 3.8440
 2.6740	 3.8140
 2.6760	 3.6770
 2.6770	 3.7250
 2.6780	 3.7320
 2.6800	 3.7650
 2.6810	 3.6880
 2.6830	 3.6400
 2.6840	 3.5460
 2.6850	 3.6060
 2.6870	 3.6170
 2.6880	 3.6370
 2.6900	 3.5250
 2.6910	 3.4010
 2.6920	 3.3050
 2.6940	 3.2630
 2.6950	 3.3100
 2.6970	 3.4770
 2.6980	 3.3150
 2.6990	 3.1980
 2.7010	 3.1720
 2.7020	 3.2070
 2.7040	 3.0500
 2.7050	 3.0440
 2.7060	 2.9880
 2.7080	 2.9660
 2.7090	 2.8930
 2.7110	 2.8760
 2.7120	 2.7990
 2.7130	 2.8150
 2.7150	 2.8020
 2.7160	 2.9010
 2.7180	 2.9390
 2.7190	 2.9320
 2.7210	 2.8630
 2.7220	 2.8630
 2.7230	 2.7860
 2.7250	 2.6810
 2.7260	 2.5560
 2.7280	 2.6770
 2.7290	 2.6570
 2.7310	 2.6230
 2.7320	 2.5960
 2.7330	 2.6350
 2.7350	 2.5040
 2.7360	 2.4990
 2.7380	 2.5020
 2.7390	 2.5610
 2.7410	 2.4240
 2.7420	 2.4100
 2.7440	 2.4020
 2.7450	 2.4580
 2.7470	 2.5120
 2.7480	 2.5700
 2.7490	 2.5340
 2.7510	 2.6040
 2.7520	 2.5770
 2.7540	 2.4910
 2.7550	 2.4660
 2.7570	 2.5190
 2.7580	 2.3710
 2.7600	 2.3360
 2.7610	 2.2790
 2.7630	 2.3290
 2.7640	 2.2730
 2.7660	 2.3680
 2.7670	 2.3120
 2.7680	 2.2990
 2.7700	 2.2640
 2.7710	 2.2590
 2.7730	 2.2080
 2.7740	 2.2860
 2.7760	 2.2880
 2.7770	 2.2960
 2.7790	 2.2160
 2.7800	 2.2910
 2.7820	 2.3070
 2.7830	 2.3830
 2.7850	 2.4170
 2.7860	 2.4490
 2.7880	 2.3370
 2.7890	 2.2820
 2.7910	 2.2480
 2.7920	 2.3270
 2.7940	 2.1840
 2.7950	 2.2310
 2.7970	 2.3160
 2.7980	 2.3820
 2.8000	 2.3790
 2.8010	 2.4810
 2.8030	 2.3530
 2.8040	 2.3870
 2.8060	 2.4400
 2.8070	 2.4410
 2.8090	 2.3530
 2.8110	 2.3070
 2.8120	 2.2810
 2.8140	 2.3670
 2.8150	 2.2270
 2.8170	 2.2170
 2.8180	 2.2800
 2.8200	 2.3740
 2.8210	 2.3350
 2.8230	 2.2910
 2.8240	 2.2580
 2.8260	 2.3400
 2.8270	 2.3100
 2.8290	 2.3180
 2.8300	 2.2040
 2.8320	 2.2500
 2.8340	 2.3470
 2.8350	 2.3750
 2.8370	 2.2120
 2.8380	 2.2420
 2.8400	 2.2540
 2.8410	 2.2680
 2.8430	 2.2040
 2.8440	 2.2660
 2.8460	 2.3080
 2.8480	 2.3520
 2.8490	 2.2250
 2.8510	 2.2110
 2.8520	 2.2030
 2.8540	 2.2090
 2.8550	 2.1540
 2.8570	 2.2590
 2.8590	 2.3340
 2.8600	 2.3780
 2.8620	 2.2410
 2.8630	 2.3140
 2.8650	 2.3510
 2.8660	 2.3660
 2.8680	 2.4390
 2.8700	 2.4790
 2.8710	 2.3740
 2.8730	 2.4170
 2.8740	 2.4360
 2.8760	 2.4260
 2.8780	 2.3510
 2.8790	 2.3590
 2.8810	 2.2960
 2.8820	 2.2970
 2.8840	 2.2320
 2.8860	 2.3630
 2.8870	 2.4230
 2.8890	 2.4210
 2.8900	 2.3500
 2.8920	 2.3880
 2.8940	 2.3530
 2.8950	 2.4670
 2.8970	 2.3950
 2.8980	 2.4840
 2.9000	 2.4410
 2.9020	 2.3790
 2.9030	 2.3870
 2.9050	 2.4510
 2.9070	 2.3800
 2.9080	 2.4520
 2.9100	 2.4110
 2.9120	 2.4040
 2.9130	 2.3800
 2.9150	 2.3600
 2.9160	 2.2980
 2.9180	 2.3750
 2.9200	 2.3690
 2.9210	 2.4210
 2.9230	 2.3810
 2.9250	 2.4030
 2.9260	 2.3380
 2.9280	 2.3690
 2.9300	 2.4310
 2.9310	 2.3880
 2.9330	 2.2130
 2.9350	 2.2770
 2.9360	 2.4380
 2.9380	 2.5090
 2.9400	 2.3450
 2.9410	 2.4050
 2.9430	 2.4010
 2.9450	 2.4130
 2.9460	 2.3880
 2.9480	 2.4370
 2.9500	 2.4050
 2.9510	 2.3610
 2.9530	 2.3150
 2.9550	 2.5020
 2.9560	 2.5090
 2.9580	 2.4220
 2.9600	 2.3390
 2.9610	 2.3000
 2.9630	 2.2600
 2.9650	 2.2960
 2.9660	 2.3180
 2.9680	 2.4380
 2.9700	 2.3520
 2.9720	 2.4000
 2.9730	 2.5460
 2.9750	 2.6480
 2.9770	 2.5550
 2.9780	 2.4840
 2.9800	 2.4240
 2.9820	 2.4210
 2.9840	 2.3620
 2.9850	 2.4520
 2.9870	 2.5520
 2.9890	 2.6270
 2.9900	 2.5980
 2.9920	 2.7340
 2.9940	 2.7180
 2.9960	 2.5820
 2.9970	 2.4170
 2.9990	 2.4370
 3.0010	 2.5180
 3.0030	 2.5710
 3.0040	 2.4170
 3.0060	 2.4410
 3.0080	 2.5010
 3.0100	 2.5280
 3.0110	 2.4670
 3.0130	 2.4960
 3.0150	 2.5590
 3.0170	 2.6340
 3.0180	 2.5870
 3.0200	 2.4960
 3.0220	 2.4930
 3.0240	 2.6510
 3.0250	 2.5180
 3.0270	 2.4600
 3.0290	 2.4810
 3.0310	 2.5260
 3.0320	 2.5150
 3.0340	 2.5770
 3.0360	 2.6060
 3.0380	 2.6820
 3.0400	 2.6070
 3.0410	 2.5680
 3.0430	 2.5230
 3.0450	 2.5590
 3.0470	 2.5550
 3.0480	 2.6170
 3.0500	 2.5480
 3.0520	 2.5170
 3.0540	 2.5100
 3.0560	 2.5470
 3.0570	 2.5050
 3.0590	 2.6120
 3.0610	 2.6360
 3.0630	 2.5740
 3.0650	 2.5450
 3.0660	 2.5670
 3.0680	 2.5350
 3.0700	 2.6050
 3.0720	 2.6420
 3.0740	 2.5910
 3.0760	 2.5820
 3.0770	 2.6240
 3.0790	 2.5470
 3.0810	 2.5450
 3.0830	 2.5210
 3.0850	 2.4890
 3.0870	 2.4620
 3.0880	 2.4370
 3.0900	 2.3740
 3.0920	 2.3900
 3.0940	 2.4050
 3.0960	 2.4970
 3.0980	 2.5260
 3.0990	 2.6020
 3.1010	 2.5530
 3.1030	 2.4920
 3.1050	 2.4810
 3.1070	 2.5460
 3.1090	 2.5590
 3.1110	 2.5340
 3.1120	 2.4680
 3.1140	 2.5010
 3.1160	 2.4960
 3.1180	 2.5890
 3.1200	 2.5890
 3.1220	 2.4850
 3.1240	 2.4690
 3.1260	 2.5190
 3.1270	 2.5910
 3.1290	 2.6070
 3.1310	 2.5660
 3.1330	 2.5680
 3.1350	 2.4830
 3.1370	 2.4810
 3.1390	 2.4410
 3.1410	 2.5740
 3.1430	 2.6170
 3.1450	 2.5640
 3.1460	 2.4780
 3.1480	 2.4950
 3.1500	 2.5520
 3.1520	 2.5150
 3.1540	 2.4450
 3.1560	 2.5120
 3.1580	 2.5050
 3.1600	 2.5750
 3.1620	 2.5050
 3.1640	 2.4850
 3.1660	 2.5490
 3.1680	 2.5800
 3.1700	 2.4520
 3.1710	 2.4440
 3.1730	 2.3810
 3.1750	 2.4250
 3.1770	 2.4990
 3.1790	 2.4450
 3.1810	 2.3000
 3.1830	 2.3630
 3.1850	 2.4810
 3.1870	 2.5740
 3.1890	 2.5410
 3.1910	 2.5230
 3.1930	 2.4530
 3.1950	 2.4460
 3.1970	 2.4250
 3.1990	 2.4780
 3.2010	 2.4540
 3.2030	 2.4270
 3.2050	 2.4220
 3.2070	 2.5470
 3.2090	 2.4920
 3.2110	 2.4600
 3.2130	 2.4260
 3.2150	 2.5210
 3.2170	 2.5470
 3.2190	 2.5850
 3.2210	 2.5290
 3.2230	 2.4870
 3.2250	 2.4310
 3.2270	 2.3780
 3.2290	 2.3730
 3.2310	 2.5340
 3.2330	 2.5210
 3.2350	 2.4540
 3.2370	 2.4530
 3.2390	 2.4910
 3.2410	 2.4230
 3.2430	 2.4840
 3.2450	 2.4820
 3.2470	 2.4390
 3.2490	 2.3930
 3.2510	 2.4180
 3.2530	 2.4770
 3.2550	 2.6000
 3.2570	 2.5140
 3.2590	 2.4470
 3.2610	 2.3520
 3.2630	 2.4620
 3.2650	 2.5400
 3.2670	 2.4890
 3.2690	 2.4100
 3.2720	 2.4790
 3.2740	 2.4290
 3.2760	 2.4250
 3.2780	 2.3890
 3.2800	 2.3640
 3.2820	 2.3860
 3.2840	 2.4480
 3.2860	 2.4270
 3.2880	 2.4600
 3.2900	 2.3900
 3.2920	 2.3760
 3.2940	 2.3540
 3.2960	 2.4240
 3.2990	 2.4180
 3.3010	 2.4170
 3.3030	 2.3580
 3.3050	 2.4250
 3.3070	 2.4360
 3.3090	 2.4350
 3.3110	 2.3750
 3.3130	 2.3480
 3.3150	 2.3330
 3.3180	 2.3230
 3.3200	 2.2410
 3.3220	 2.3090
 3.3240	 2.3000
 3.3260	 2.2680
 3.3280	 2.2410
 3.3300	 2.3120
 3.3330	 2.3400
 3.3350	 2.3360
 3.3370	 2.2310
 3.3390	 2.2540
 3.3410	 2.2830
 3.3430	 2.2830
 3.3450	 2.1960
 3.3480	 2.2520
 3.3500	 2.2380
 3.3520	 2.2420
 3.3540	 2.2530
 3.3560	 2.2470
 3.3580	 2.2030
 3.3610	 2.1820
 3.3630	 2.2170
 3.3650	 2.3040
 3.3670	 2.2450
 3.3690	 2.2280
 3.3720	 2.2300
 3.3740	 2.2430
 3.3760	 2.1810
 3.3780	 2.2790
 3.3800	 2.3710
 3.3830	 2.3880
 3.3850	 2.2680
 3.3870	 2.2890
 3.3890	 2.2240
 3.3910	 2.2020
 3.3940	 2.2510
 3.3960	 2.3170
 3.3980	 2.2410
 3.4000	 2.1970
 3.4020	 2.2210
 3.4050	 2.3240
 3.4070	 2.2580
 3.4090	 2.3100
 3.4110	 2.3850
 3.4140	 2.4840
 3.4160	 2.5270
 3.4180	 2.6560
 3.4200	 2.7730
 3.4230	 3.0850
 3.4250	 3.4280
 3.4270	 3.6680
 3.4290	 3.7600
 3.4320	 3.7300
 3.4340	 3.5610
 3.4360	 3.3900
 3.4390	 3.1250
 3.4410	 2.9580
 3.4430	 2.9080
 3.4450	 2.8940
 3.4480	 2.7800
 3.4500	 2.7580
 3.4520	 2.7690
 3.4550	 2.8270
 3.4570	 2.7770
 3.4590	 2.7750
 3.4620	 2.7890
 3.4640	 2.7490
 3.4660	 2.6620
 3.4680	 2.6620
 3.4710	 2.6900
 3.4730	 2.7030
 3.4750	 2.6690
 3.4780	 2.6160
 3.4800	 2.5150
 3.4820	 2.5250
 3.4850	 2.5540
 3.4870	 2.5360
 3.4890	 2.4440
 3.4920	 2.5040
 3.4940	 2.5210
 3.4970	 2.5530
 3.4990	 2.5610
 3.5010	 2.6410
 3.5040	 2.6410
 3.5060	 2.8470
 3.5080	 3.2530
 3.5110	 3.6580
 3.5130	 3.6120
 3.5160	 3.3470
 3.5180	 3.1700
 3.5200	 3.0570
 3.5230	 2.9430
 3.5250	 2.9450
 3.5270	 2.9770
 3.5300	 2.9830
 3.5320	 2.8860
 3.5350	 2.8830
 3.5370	 2.8560
 3.5400	 2.8260
 3.5420	 2.7290
 3.5440	 2.7080
 3.5470	 2.7750
 3.5490	 2.8190
 3.5520	 2.7960
 3.5540	 2.8420
 3.5570	 2.8290
 3.5590	 2.8240
 3.5610	 2.8070
 3.5640	 2.8260
 3.5660	 2.7600
 3.5690	 2.7620
 3.5710	 2.8070
 3.5740	 2.8440
 3.5760	 2.8330
 3.5790	 2.8430
 3.5810	 2.8550
 3.5840	 2.8740
 3.5860	 2.8100
 3.5890	 2.7870
 3.5910	 2.7790
 3.5930	 2.7640
 3.5960	 2.7510
 3.5980	 2.7880
 3.6010	 2.8070
 3.6030	 2.8550
 3.6060	 2.8190
 3.6080	 2.8250
 3.6110	 2.8060
 3.6140	 2.8010
 3.6160	 2.7200
 3.6190	 2.7650
 3.6210	 2.7550
 3.6240	 2.7360
 3.6260	 2.7640
 3.6290	 2.7310
 3.6310	 2.6690
 3.6340	 2.7440
 3.6360	 2.8280
 3.6390	 2.8620
 3.6410	 2.8440
 3.6440	 2.8500
 3.6470	 2.8320
 3.6490	 2.8660
 3.6520	 2.8310
 3.6540	 2.7410
 3.6570	 2.7810
 3.6590	 2.8310
 3.6620	 2.7720
 3.6650	 2.7530
 3.6670	 2.7910
 3.6700	 2.8880
 3.6720	 2.8880
 3.6750	 2.8090
 3.6780	 2.8000
 3.6800	 2.8170
 3.6830	 2.7380
 3.6850	 2.8170
 3.6880	 2.8350
 3.6910	 2.7710
 3.6930	 2.7720
 3.6960	 2.8370
 3.6990	 2.8340
 3.7010	 2.8100
 3.7040	 2.8340
 3.7060	 2.8440
 3.7090	 2.8770
 3.7120	 2.9190
 3.7140	 2.8880
 3.7170	 2.8730
 3.7200	 2.8320
 3.7220	 2.8410
 3.7250	 2.8620
 3.7280	 2.8840
 3.7300	 2.8790
 3.7330	 2.8670
 3.7360	 2.7940
 3.7390	 2.7880
 3.7410	 2.7970
 3.7440	 2.8700
 3.7470	 2.8770
 3.7490	 2.9210
 3.7520	 2.9010
 3.7550	 2.8750
 3.7580	 2.8810
 3.7600	 2.8420
 3.7630	 2.7890
 3.7660	 2.8190
 3.7680	 2.8130
 3.7710	 2.8170
 3.7740	 2.8280
 3.7770	 2.8970
 3.7790	 2.8980
 3.7820	 2.9180
 3.7850	 2.9070
 3.7880	 2.8750
 3.7900	 2.9160
 3.7930	 2.9780
 3.7960	 2.9910
 3.7990	 3.0040
 3.8020	 3.0160
 3.8040	 3.0240
 3.8070	 3.0270
 3.8100	 3.0290
 3.8130	 2.9390
 3.8160	 2.9500
 3.8180	 2.9580
 3.8210	 2.9470
 3.8240	 2.9810
 3.8270	 3.0450
 3.8300	 3.0970
 3.8330	 3.0740
 3.8350	 2.9690
 3.8380	 2.9260
 3.8410	 2.9620
 3.8440	 3.0680
 3.8470	 3.0310
 3.8500	 2.9740
 3.8520	 2.9580
 3.8550	 2.9390
 3.8580	 2.9450
 3.8610	 2.9780
 3.8640	 2.9700
 3.8670	 3.0000
 3.8700	 2.9900
 3.8730	 3.0270
 3.8750	 3.0700
 3.8780	 3.1100
 3.8810	 3.0310
 3.8840	 3.0150
 3.8870	 3.0520
 3.8900	 3.0850
 3.8930	 3.0520
 3.8960	 3.0380
 3.8990	 2.9260
 3.9020	 2.9750
 3.9050	 3.0110
 3.9080	 3.0570
 3.9110	 3.0750
 3.9140	 3.0880
 3.9160	 3.1160
 3.9190	 3.1580
 3.9220	 3.1150
 3.9250	 3.0730
 3.9280	 3.0610
 3.9310	 3.0890
 3.9340	 3.0700
 3.9370	 3.1270
 3.9400	 3.1390
 3.9430	 3.1500
 3.9460	 3.1100
 3.9490	 3.1030
 3.9520	 3.0400
 3.9550	 3.0580
 3.9580	 3.0970
 3.9610	 3.1280
 3.9640	 3.1420
 3.9670	 3.1790
 3.9700	 3.2140
 3.9730	 3.2120
 3.9770	 3.1980
 3.9800	 3.2240
 3.9830	 3.1990
 3.9860	 3.1810
 3.9890	 3.1830
 3.9920	 3.1770
 3.9950	 3.1580
 3.9980	 3.1760
 4.0010	 3.1920
 4.0040	 3.1630
 4.0070	 3.1380
 4.0100	 3.1970
 4.0130	 3.2380
 4.0170	 3.2910
 4.0200	 3.2360
 4.0230	 3.2070
 4.0260	 3.1970
 4.0290	 3.1720
 4.0320	 3.1930
 4.0350	 3.2460
 4.0380	 3.2520
 4.0420	 3.1790
 4.0450	 3.1480
 4.0480	 3.2490
 4.0510	 3.2780
 4.0540	 3.2580
 4.0570	 3.1930
 4.0610	 3.2000
 4.0640	 3.2920
 4.0670	 3.2850
 4.0700	 3.2300
 4.0730	 3.2520
 4.0770	 3.2830
 4.0800	 3.3260
 4.0830	 3.2970
 4.0860	 3.2920
 4.0890	 3.2600
 4.0930	 3.2590
 4.0960	 3.2420
 4.0990	 3.2720
 4.1020	 3.2680
 4.1060	 3.2770
 4.1090	 3.2930
 4.1120	 3.2770
 4.1150	 3.2650
 4.1190	 3.3160
 4.1220	 3.3320
 4.1250	 3.3440
 4.1280	 3.3200
 4.1320	 3.2550
 4.1350	 3.2670
 4.1380	 3.3370
 4.1420	 3.3040
 4.1450	 3.2380
 4.1480	 3.2090
 4.1520	 3.2550
 4.1550	 3.3030
 4.1580	 3.3670
 4.1620	 3.3300
 4.1650	 3.2880
 4.1680	 3.2900
 4.1720	 3.2800
 4.1750	 3.2800
 4.1780	 3.3070
 4.1820	 3.3060
 4.1850	 3.2860
 4.1890	 3.2860
 4.1920	 3.3080
 4.1950	 3.3220
 4.1990	 3.3290
 4.2020	 3.2820
 4.2060	 3.3200
 4.2090	 3.3860
 4.2120	 3.4610
 4.2160	 3.4840
 4.2190	 3.5230
 4.2230	 3.5260
 4.2260	 3.5230
 4.2300	 3.5120
 4.2330	 3.5990
 4.2360	 3.5220
 4.2400	 3.5650
 4.2430	 3.6490
 4.2470	 3.5820
 4.2500	 3.5410
 4.2540	 3.4700
 4.2570	 3.3280
 4.2610	 3.4120
 4.2640	 3.5980
 4.2680	 3.5970
 4.2710	 3.4440
 4.2750	 3.4390
 4.2780	 3.4180
 4.2820	 3.4110
 4.2850	 3.4180
 4.2890	 3.3930
 4.2930	 3.3330
 4.2960	 3.2900
 4.3000	 3.3300
 4.3030	 3.4080
 4.3070	 3.3580
 4.3100	 3.3320
 4.3140	 3.3090
 4.3180	 3.2720
 4.3210	 3.3390
 4.3250	 3.3840
 4.3280	 3.3460
 4.3320	 3.2510
 4.3360	 3.2050
 4.3390	 3.3040
 4.3430	 3.3180
 4.3470	 3.2750
 4.3500	 3.1840
 4.3540	 3.1310
 4.3570	 3.1480
 4.3610	 3.2210
 4.3650	 3.2030
 4.3680	 3.1420
 4.3720	 3.0610
 4.3760	 3.0880
 4.3800	 3.1630
 4.3830	 3.1850
 4.3870	 3.1650
 4.3910	 3.1460
 4.3940	 3.1790
 4.3980	 3.1790
 4.4020	 3.1070
 4.4060	 3.0980
 4.4090	 3.0990
 4.4130	 3.1040
 4.4170	 3.2030
 4.4210	 3.2280
 4.4240	 3.1670
 4.4280	 3.1570
 4.4320	 3.1480
 4.4360	 3.1350
 4.4400	 3.1400
 4.4430	 3.1530
 4.4470	 3.1690
 4.4510	 3.1730
 4.4550	 3.1210
 4.4590	 3.1260
 4.4620	 3.1380
 4.4660	 3.1020
 4.4700	 3.0370
 4.4740	 3.0490
 4.4780	 3.0980
 4.4820	 3.1410
 4.4860	 3.0950
 4.4900	 3.0300
 4.4930	 3.0140
 4.4970	 3.0010
 4.5010	 3.0170
 4.5050	 3.0770
 4.5090	 3.0560
 4.5130	 3.0030
 4.5170	 3.0190
 4.5210	 3.0530
 4.5250	 3.0290
 4.5290	 3.0110
 4.5330	 3.0230
 4.5370	 3.0540
 4.5410	 3.0600
 4.5450	 3.0020
 4.5490	 2.9810
 4.5530	 3.0180
 4.5570	 3.0040
 4.5610	 2.9710
 4.5650	 2.9710
 4.5690	 2.9900
 4.5730	 2.9680
 4.5770	 3.0120
 4.5810	 3.0440
 4.5850	 3.0010
 4.5890	 3.0090
 4.5930	 3.0210
 4.5970	 2.9780
 4.6010	 2.9570
 4.6050	 2.9720
 4.6090	 2.9540
 4.6130	 2.9310
 4.6170	 2.9200
 4.6220	 2.9310
 4.6260	 2.9660
 4.6300	 3.0010
 4.6340	 3.0090
 4.6380	 3.0040
 4.6420	 3.0050
 4.6460	 2.9540
 4.6510	 2.9130
 4.6550	 2.9300
 4.6590	 2.9630
 4.6630	 2.9530
 4.6670	 2.9060
 4.6720	 2.9290
 4.6760	 2.9260
 4.6800	 2.9230
 4.6840	 2.9100
 4.6880	 2.8420
 4.6930	 2.8280
 4.6970	 2.8910
 4.7010	 2.9710
 4.7050	 2.9630
 4.7100	 2.9350
 4.7140	 2.8940
 4.7180	 2.8710
 4.7230	 2.9420
 4.7270	 2.9770
 4.7310	 2.9110
 4.7360	 2.8780
 4.7400	 2.8990
 4.7440	 2.9110
 4.7490	 2.9410
 4.7530	 2.9510
 4.7570	 2.9420
 4.7620	 2.9160
 4.7660	 2.9310
 4.7700	 2.9440
 4.7750	 2.9520
 4.7790	 2.9410
 4.7840	 2.9940
 4.7880	 2.9740
 4.7920	 2.9250
 4.7970	 2.9260
 4.8010	 2.9700
 4.8060	 2.9340
 4.8100	 2.9310
 4.8150	 2.9430
 4.8190	 2.9030
 4.8240	 2.9220
 4.8280	 2.9940
 4.8330	 3.0150
 4.8370	 2.9960
 4.8420	 2.9550
 4.8460	 2.9730
 4.8510	 2.9220
 4.8550	 2.9220
 4.8600	 2.9850
 4.8640	 3.0280
 4.8690	 3.0100
 4.8730	 2.9960
 4.8780	 2.9330
 4.8830	 2.9170
 4.8870	 2.9580
 4.8920	 3.0070
 4.8960	 2.9800
 4.9010	 2.9450
 4.9060	 2.9730
 4.9100	 3.0330
 4.9150	 3.0050
 4.9200	 2.9950
 4.9240	 2.9820
 4.9290	 2.9830
 4.9340	 2.9620
 4.9380	 2.9490
 4.9430	 2.8860
 4.9480	 2.9010
 4.9530	 3.0090
 4.9570	 3.0850
 4.9620	 3.0900
 4.9670	 3.0730
 4.9720	 3.0340
 4.9760	 3.0250
 4.9810	 3.0330
 4.9860	 3.0390
 4.9910	 3.0040
 4.9960	 3.0160
 5.0000	 3.0390
 5.0050	 3.0580
 5.0100	 3.1180
 5.0150	 3.1550
 5.0200	 3.0700
 5.0250	 3.0040
 5.0290	 2.9700
 5.0340	 2.9850
 5.0390	 3.0070
 5.0440	 3.0240
 5.0490	 3.0580
 5.0540	 3.0390
 5.0590	 2.9970
 5.0640	 3.0530
 5.0690	 3.0780
 5.0740	 3.0740
 5.0790	 3.0290
 5.0840	 3.0090
 5.0890	 3.0100
 5.0940	 3.0970
 5.0990	 3.0830
 5.1040	 3.0890
 5.1090	 3.0920
 5.1140	 3.1270
 5.1190	 3.1140
 5.1240	 3.0840
 5.1290	 3.1330
 5.1340	 3.1660
 5.1390	 3.1500
 5.1440	 3.1720
 5.1490	 3.1530
 5.1540	 3.0950
 5.1600	 2.9820
 5.1650	 2.9830
 5.1700	 3.0520
 5.1750	 3.1350
 5.1800	 3.0870
 5.1850	 3.0710
 5.1910	 3.1170
 5.1960	 3.1550
 5.2010	 3.1010
 5.2060	 3.1010
 5.2110	 3.0800
 5.2170	 3.1300
 5.2220	 3.1380
 5.2270	 3.0940
 5.2320	 3.1190
 5.2380	 3.1970
 5.2430	 3.2030
 5.2480	 3.1660
 5.2540	 3.1210
 5.2590	 3.1370
 5.2640	 3.1660
 5.2700	 3.1400
 5.2750	 3.1030
 5.2800	 3.1360
 5.2860	 3.1350
 5.2910	 3.1170
 5.2970	 3.0860
 5.3020	 3.0940
 5.3070	 3.0890
 5.3130	 3.1190
 5.3180	 3.1030
 5.3240	 3.0560
 5.3290	 2.9680
 5.3350	 2.9800
 5.3400	 3.0180
 5.3460	 3.0680
 5.3510	 3.0270
 5.3570	 3.0420
 5.3620	 2.9880
 5.3680	 2.9550
 5.3730	 3.0000
 5.3790	 3.0550
 5.3850	 2.9630
 5.3900	 2.9410
 5.3960	 3.0090
 5.4010	 3.1060
 5.4070	 3.0570
 5.4130	 2.9980
 5.4180	 2.9400
 5.4240	 2.9930
 5.4300	 3.0150
 5.4350	 2.9990
 5.4410	 2.9610
 5.4470	 2.9140
 5.4530	 2.9110
 5.4580	 2.9400
 5.4640	 2.9020
 5.4700	 2.9210
 5.4760	 2.8510
 5.4810	 2.8380
 5.4870	 2.8800
 5.4930	 2.8790
 5.4990	 2.7860
 5.5050	 2.7770
 5.5110	 2.8430
 5.5160	 2.9190
 5.5220	 2.8980
 5.5280	 2.8420
 5.5340	 2.7350
 5.5400	 2.7100
 5.5460	 2.7300
 5.5520	 2.7450
 5.5580	 2.6870
 5.5640	 2.6350
 5.5700	 2.5910
 5.5760	 2.5890
 5.5820	 2.6130
 5.5880	 2.6550
 5.5940	 2.6520
 5.6000	 2.6250
 5.6060	 2.5660
 5.6120	 2.5130
 5.6180	 2.4170
 5.6240	 2.4580
 5.6300	 2.3990
 5.6360	 2.3980
 5.6420	 2.4030
 5.6490	 2.4510
 5.6550	 2.3840
 5.6610	 2.3860
 5.6670	 2.3710
 5.6730	 2.2790
 5.6800	 2.1550
 5.6860	 2.1590
 5.6920	 2.1300
 5.6980	 2.0910
 5.7040	 2.0780
 5.7110	 2.0460
 5.7170	 1.9780
 5.7230	 2.0010
 5.7300	 1.9440
 5.7360	 1.9430
 5.7420	 1.9020
 5.7490	 1.9130
 5.7550	 1.9580
 5.7620	 2.0530
 5.7680	 2.0910
 5.7740	 2.1330
 5.7810	 2.1940
 5.7870	 2.2750
 5.7940	 2.2010
 5.8000	 2.1570
 5.8070	 2.1740
 5.8130	 2.2970
 5.8200	 2.3940
 5.8260	 2.3870
 5.8330	 2.2700
 5.8390	 2.2890
 5.8460	 2.3070
 5.8530	 2.3750
 5.8590	 2.3710
 5.8660	 2.4060
 5.8720	 2.3540
 5.8790	 2.3060
 5.8860	 2.2040
 5.8920	 2.2640
 5.8990	 2.2820
 5.9060	 2.3320
 5.9130	 2.3080
 5.9190	 2.3600
 5.9260	 2.4320
 5.9330	 2.5180
 5.9400	 2.4660
 5.9470	 2.5170
 5.9530	 2.6430
 5.9600	 2.6760
 5.9670	 2.5750
 5.9740	 2.6330
 5.9810	 2.5920
 5.9880	 2.5650
 5.9950	 2.5570
 6.0020	 2.6440
 6.0090	 2.6410
 6.0160	 2.6300
 6.0230	 2.5150
 6.0300	 2.5020
 6.0370	 2.5090
 6.0440	 2.5640
 6.0510	 2.5610
 6.0580	 2.5670
 6.0650	 2.5520
 6.0720	 2.6410
 6.0790	 2.6060
 6.0860	 2.6340
 6.0930	 2.5680
 6.1000	 2.5520
 6.1080	 2.5640
 6.1150	 2.6600
 6.1220	 2.5960
 6.1290	 2.5980
 6.1370	 2.6110
 6.1440	 2.5930
 6.1510	 2.5810
 6.1580	 2.6740
 6.1660	 2.6580
 6.1730	 2.5830
 6.1800	 2.4510
 6.1880	 2.5270
 6.1950	 2.6350
 6.2030	 2.7020
 6.2100	 2.6240
 6.2170	 2.6320
 6.2250	 2.6200
 6.2320	 2.7350
 6.2400	 2.7260
 6.2470	 2.7130
 6.2550	 2.5670
 6.2630	 2.6620
 6.2700	 2.7650
 6.2780	 2.7590
 6.2850	 2.5980
 6.2930	 2.5640
 6.3010	 2.6000
 6.3080	 2.7160
 6.3160	 2.6750
 6.3240	 2.6140
 6.3310	 2.4730
 6.3390	 2.5570
 6.3470	 2.6150
 6.3550	 2.6350
 6.3620	 2.5970
 6.3700	 2.6580
 6.3780	 2.6160
 6.3860	 2.5720
 6.3940	 2.5030
 6.4020	 2.5720
 6.4100	 2.5550
 6.4180	 2.5820
 6.4260	 2.5030
 6.4330	 2.5380
 6.4410	 2.4980
 6.4490	 2.5600
 6.4580	 2.5720
 6.4660	 2.6220
 6.4740	 2.5650
 6.4820	 2.5330
 6.4900	 2.4560
 6.4980	 2.4480
 6.5060	 2.4200
 6.5140	 2.4860
 6.5230	 2.4350
 6.5310	 2.4740
 6.5390	 2.4010
 6.5470	 2.3700
 6.5550	 2.3550
 6.5640	 2.4210
 6.5720	 2.3420
 6.5800	 2.3510
 6.5890	 2.3540
 6.5970	 2.3850
 6.6060	 2.3210
 6.6140	 2.3770
 6.6220	 2.3760
 6.6310	 2.4620
 6.6390	 2.3660
 6.6480	 2.3790
 6.6560	 2.4210
 6.6650	 2.4550
 6.6740	 2.3950
 6.6820	 2.4030
 6.6910	 2.2610
 6.6990	 2.3310
 6.7080	 2.3700
 6.7170	 2.3400
 6.7260	 2.2500
 6.7340	 2.2940
 6.7430	 2.2400
 6.7520	 2.3030
 6.7610	 2.2320
 6.7690	 2.1920
 6.7780	 2.1600
 6.7870	 2.3250
 6.7960	 2.2710
 6.8050	 2.2830
 6.8140	 2.2790
 6.8230	 2.3140
 6.8320	 2.3160
 6.8410	 2.4110
 6.8500	 2.4150
 6.8590	 2.4580
 6.8680	 2.3000
 6.8770	 2.3630
 6.8860	 2.4480
 6.8950	 2.5270
 6.9050	 2.4540
 6.9140	 2.4300
 6.9230	 2.3580
 6.9320	 2.4600
 6.9420	 2.4560
 6.9510	 2.4600
 6.9600	 2.3400
 6.9700	 2.4370
 6.9790	 2.5000
 6.9880	 2.5730
 6.9980	 2.4480
 7.0070	 2.4290
 7.0170	 2.3290
 7.0260	 2.4570
 7.0360	 2.5250
 7.0450	 2.5620
 7.0550	 2.4260
 7.0650	 2.4660
 7.0740	 2.4120
 7.0840	 2.4930
 7.0940	 2.4770
 7.1030	 2.4360
 7.1130	 2.3670
 7.1230	 2.4670
 7.1330	 2.4280
 7.1420	 2.4550
 7.1520	 2.3630
 7.1620	 2.3220
 7.1720	 2.3020
 7.1820	 2.4540
 7.1920	 2.2940
 7.2020	 2.3390
 7.2120	 2.3670
 7.2220	 2.4370
 7.2320	 2.3560
 7.2420	 2.3800
 7.2520	 2.2720
 7.2620	 2.2950
 7.2730	 2.2920
 7.2830	 2.3800
 7.2930	 2.3550
 7.3030	 2.4310
 7.3140	 2.4090
 7.3240	 2.4420
 7.3340	 2.3140
 7.3450	 2.3710
 7.3550	 2.3790
 7.3660	 2.4740
 7.3760	 2.3940
 7.3870	 2.4240
 7.3970	 2.3540
 7.4080	 2.4440
 7.4180	 2.4140
 7.4290	 2.4670
 7.4400	 2.3440
 7.4500	 2.3930
 7.4610	 2.4090
 7.4720	 2.4430
 7.4830	 2.3330
 7.4930	 2.3050
 7.5040	 2.2160
 7.5150	 2.3330
 7.5260	 2.3410
 7.5370	 2.4140
 7.5480	 2.3330
 7.5590	 2.3850
 7.5700	 2.3210
 7.5810	 2.4290
 7.5920	 2.4360
 7.6030	 2.4270
 7.6140	 2.2860
 7.6260	 2.3410
 7.6370	 2.2880
 7.6480	 2.3510
 7.6590	 2.2650
 7.6710	 2.3310
 7.6820	 2.2270
 7.6930	 2.2680
 7.7050	 2.2030
 7.7160	 2.2740
 7.7280	 2.2470
 7.7390	 2.2960
 7.7510	 2.2220
 7.7630	 2.2960
 7.7740	 2.2810
 7.7860	 2.3060
 7.7980	 2.1540
 7.8090	 2.2480
 7.8210	 2.3020
 7.8330	 2.3860
 7.8450	 2.2740
 7.8570	 2.3160
 7.8690	 2.2740
 7.8810	 2.3680
 7.8930	 2.3180
 7.9050	 2.4280
 7.9170	 2.3660
 7.9290	 2.4180
 7.9410	 2.2630
 7.9530	 2.2350
 7.9650	 2.1680
 7.9780	 2.2340
 7.9900	 2.1940
 8.0020	 2.2840
 8.0150	 2.1940
 8.0270	 2.2800
 8.0390	 2.3620
 8.0520	 2.4980
 8.0640	 2.2870
 8.0770	 2.3280
 8.0900	 2.2510
 8.1020	 2.3570
 8.1150	 2.3160
 8.1280	 2.3760
 8.1400	 2.2400
 8.1530	 2.4240
 8.1660	 2.4030
 8.1790	 2.4520
 8.1920	 2.4210
 8.2050	 2.5380
 8.2180	 2.4760
 8.2310	 2.5300
 8.2440	 2.4660
 8.2570	 2.5410
 8.2700	 2.4160
 8.2830	 2.5090
 8.2970	 2.4270
 8.3100	 2.5530
 8.3230	 2.4380
 8.3370	 2.5160
 8.3500	 2.3860
 8.3640	 2.4510
 8.3770	 2.4200
 8.3910	 2.5260
 8.4040	 2.3750
 8.4180	 2.4700
 8.4320	 2.4480
 8.4450	 2.5210
 8.4590	 2.3640
 8.4730	 2.5100
 8.4870	 2.4620
 8.5010	 2.5410
 8.5150	 2.4640
 8.5290	 2.6450
 8.5430	 2.6220
 8.5570	 2.7040
 8.5710	 2.5810
 8.5850	 2.6530
 8.5990	 2.6580
 8.6140	 2.7830
 8.6280	 2.5720
 8.6420	 2.6410
 8.6570	 2.5130
 8.6710	 2.6380
 8.6860	 2.6410
 8.7000	 2.7770
 8.7150	 2.6890
 8.7300	 2.9000
 8.7440	 2.7440
 8.7590	 2.8480
 8.7740	 2.8390
 8.7890	 2.8480
 8.8040	 2.6270
 8.8190	 2.7050
 8.8340	 2.6120
 8.8490	 2.6720
 8.8640	 2.5750
 8.8790	 2.6990
 8.8940	 2.7100
 8.9100	 2.8880
 8.9250	 2.7340
 8.9400	 2.8190
 8.9560	 2.6260
 8.9710	 2.7360
 8.9870	 2.6430
 9.0020	 2.7230
 9.0180	 2.6360
 9.0340	 2.8800
 9.0500	 2.8070
 9.0650	 2.9650
 9.0810	 2.8400
 9.0970	 2.9320
 9.1130	 2.7600
 9.1290	 2.8680
 9.1450	 2.8240
 9.1610	 2.9640
 9.1780	 2.8730
 9.1940	 2.9610
 9.2100	 2.8980
 9.2270	 3.1500
 9.2430	 3.0490
 9.2600	 3.0590
 9.2760	 2.8520
 9.2930	 2.9180
 9.3090	 2.8160
 9.3260	 2.9140
 9.3430	 2.7310
 9.3600	 2.8770
 9.3770	 2.8570
 9.3940	 2.9770
 9.4110	 2.8730
 9.4280	 3.1420
 9.4450	 2.9550
 9.4620	 3.0080
 9.4800	 2.8630
 9.4970	 3.0000
 9.5140	 2.8450
 9.5320	 2.9810
 9.5500	 2.8580
 9.5670	 3.0400
 9.5850	 2.8680
 9.6030	 2.9960
 9.6200	 2.9350
 9.6380	 3.0680
 9.6560	 2.9950
 9.6740	 3.2010
 9.6920	 3.0660
 9.7100	 3.0410
 9.7290	 2.7400
 9.7470	 2.9330
 9.7650	 2.9380
 9.7840	 3.0940
 9.8020	 2.9630
 9.8210	 3.1400
 9.8390	 2.9710
 9.8580	 3.0700
 9.8770	 2.9230
 9.8960	 3.0050
 9.9150	 2.8970
 9.9340	 3.0440
 9.9530	 2.8930
 9.9720	 3.0180
 9.9910	 2.9790
10.0100	 3.0670
10.0300	 2.9380
10.0490	 2.9500
10.0690	 2.6930
10.0880	 2.9080
10.1080	 2.8450
10.1280	 2.9160
10.1480	 2.7330
10.1670	 2.8870
10.1870	 2.7420
10.2070	 2.8130
10.2280	 2.7080
10.2480	 2.8040
10.2680	 2.6970
10.2890	 2.8620
10.3090	 2.7120
10.3300	 2.7890
10.3500	 2.6700
10.3710	 2.7310
10.3920	 2.6220
10.4120	 2.7800
10.4330	 2.6650
10.4540	 2.8620
10.4760	 2.7180
10.4970	 2.7470
10.5180	 2.6300
10.5390	 2.8260
10.5610	 2.6960
10.5820	 2.8680
10.6040	 2.7030
10.6260	 2.7320
10.6480	 2.6830
10.6700	 2.8620
10.6920	 2.7240
10.7140	 2.8690
10.7360	 2.5740
10.7580	 2.7170
10.7800	 2.6810
10.8030	 2.8420
10.8250	 2.6660
10.8480	 2.7520
10.8710	 2.6130
10.8940	 2.7490
10.9170	 2.6210
10.9400	 2.8070
10.9630	 2.6090
10.9860	 2.6100
11.0090	 2.4080
11.0330	 2.7100
11.0560	 2.6360
11.0800	 2.7150
11.1040	 2.6260
11.1270	 2.7850
11.1510	 2.6480
11.1750	 2.7530
11.2000	 2.4810
11.2240	 2.5610
11.2480	 2.4670
11.2730	 2.7540
11.2970	 2.5550
11.3220	 2.6350
11.3470	 2.4680
11.3720	 2.6530
11.3970	 2.5110
11.4220	 2.7050
11.4470	 2.5300
11.4720	 2.6290
11.4980	 2.3640
11.5230	 2.5490
11.5490	 2.5530
11.5750	 2.7490
11.6000	 2.5970
11.6260	 2.7320
11.6530	 2.3860
11.6790	 2.6280
11.7050	 2.5800
11.7320	 2.6720
11.7580	 2.3720
11.7850	 2.5740
11.8120	 2.5200
11.8390	 2.6690
11.8660	 2.4800
11.8930	 2.6680
11.9200	 2.4440
11.9480	 2.5340
11.9760	 2.2990
12.0030	 2.5650
12.0310	 2.4020
12.0590	 2.5340
12.0870	 2.4300
12.1150	 2.8840
12.1440	 2.7160
12.1720	 2.6550
12.2010	 2.3290
12.2300	 2.5210
12.2590	 2.3890
12.2880	 2.7210
12.3170	 2.4630
12.3460	 2.5200
12.3760	 2.2630
12.4050	 2.5960
12.4350	 2.5290
12.4650	 2.7520
12.4950	 2.2330
12.5250	 2.4200
12.5550	 2.3600
12.5860	 2.7020
12.6170	 2.5860
12.6470	 2.7900
12.6780	 2.3710
12.7090	 2.4830
12.7410	 2.2440
12.7720	 2.5190
12.8030	 2.3450
12.8350	 2.5890
12.8670	 2.2830
12.8990	 2.4980
12.9310	 2.4340
12.9640	 2.6950
12.9960	 2.2940
13.0290	 2.4390
13.0610	 2.1730
13.0940	 2.3990
13.1280	 2.2290
13.1610	 2.5650
13.1940	 2.4520
13.2280	 2.8400
13.2620	 2.4940
13.2960	 2.7420
13.3300	 2.4600
13.3640	 2.5550
13.3990	 2.2100
13.4340	 2.4510
13.4690	 2.2010
13.5040	 2.5140
13.5390	 2.3100
13.5740	 2.6170
13.6100	 2.3110
13.6460	 2.5280
13.6820	 2.2870
13.7180	 2.7420
13.7540	 2.6080
13.7910	 2.8860
13.8280	 2.5120
13.8650	 2.9210
13.9020	 2.5610
13.9390	 2.6550
13.9770	 2.2150
14.0150	 2.7490
14.0530	 2.5120
14.0910	 2.6940
14.1290	 2.2480
14.1680	 2.4810
14.2070	 2.1950
14.2460	 2.7630
14.2850	 2.4910
14.3240	 2.7490
14.3640	 2.1590
14.4040	 2.5250
14.4440	 2.3040
14.4840	 2.7740
14.5250	 2.3410
14.5660	 2.7940
14.6070	 2.4070
14.6480	 2.9670
14.6900	 2.4630
14.7310	 2.6640
14.7730	 2.0940
14.8150	 2.3880
14.8580	 1.8100
14.9010	 2.4850
14.9440	 2.1580
14.9870	 3.0770
15.0300	 2.1130
15.0740	 2.5480
15.1180	 2.1010
15.1620	 2.8440
15.2060	 2.0950
15.2510	 2.6970
15.2960	 2.5210
15.3410	 3.3530
15.3870	 2.5800
