Name: Pyllostachys vivax
Type: vegetation
Class: Tree
Genus: Pyllostachys
Species: vivax
Sample No.: JPL191
Owner: JPL
Wavelength Range: VSWIR
Origin: 34.12505; -118.11546; WGS84
Collection Date: 10/3/2016
Description: Samples were collected at the Huntington Garden in San Marino California as part of a JPL Subcontract studying HyTES imagery. Samples were taken to JPL and processed within 48 hours of collection. The same leaves were processed in the Nicolet and then measured using the ASD.
Measurement: Bidirectional reflectance
First Column: X
Second Column: Y
X Units: Wavelength (micrometer)
Y Units: Reflectance (percentage)
First X Value: 0.35
Last X Value: 2.5
Number of X Values: 2151
Additional Information: vegetation.tree.pyllostachys.vivax.vswir.jpl191.jpl.asd.ancillary.txt

 0.3500	 9.3260
 0.3510	 9.5660
 0.3520	 9.6750
 0.3530	 9.6040
 0.3540	 9.4690
 0.3550	 9.4780
 0.3560	 9.5210
 0.3570	 9.5340
 0.3580	 9.4890
 0.3590	 9.4070
 0.3600	 9.3930
 0.3610	 9.4340
 0.3620	 9.3400
 0.3630	 9.2750
 0.3640	 9.2560
 0.3650	 9.2620
 0.3660	 9.3060
 0.3670	 9.2870
 0.3680	 9.2450
 0.3690	 9.2940
 0.3700	 9.3400
 0.3710	 9.3640
 0.3720	 9.3530
 0.3730	 9.2740
 0.3740	 9.2030
 0.3750	 9.1710
 0.3760	 9.1910
 0.3770	 9.2710
 0.3780	 9.3070
 0.3790	 9.2750
 0.3800	 9.2310
 0.3810	 9.2100
 0.3820	 9.2190
 0.3830	 9.2370
 0.3840	 9.2140
 0.3850	 9.2260
 0.3860	 9.2520
 0.3870	 9.2400
 0.3880	 9.1900
 0.3890	 9.1840
 0.3900	 9.2280
 0.3910	 9.2500
 0.3920	 9.2510
 0.3930	 9.2450
 0.3940	 9.2370
 0.3950	 9.2140
 0.3960	 9.2200
 0.3970	 9.2350
 0.3980	 9.2210
 0.3990	 9.2540
 0.4000	 9.2370
 0.4010	 9.1700
 0.4020	 9.1880
 0.4030	 9.2230
 0.4040	 9.2440
 0.4050	 9.2440
 0.4060	 9.2530
 0.4070	 9.2620
 0.4080	 9.2690
 0.4090	 9.2760
 0.4100	 9.2790
 0.4110	 9.2780
 0.4120	 9.2780
 0.4130	 9.2900
 0.4140	 9.3070
 0.4150	 9.3230
 0.4160	 9.3320
 0.4170	 9.3360
 0.4180	 9.3290
 0.4190	 9.3160
 0.4200	 9.3140
 0.4210	 9.3140
 0.4220	 9.3140
 0.4230	 9.3140
 0.4240	 9.3170
 0.4250	 9.3170
 0.4260	 9.3120
 0.4270	 9.3050
 0.4280	 9.3010
 0.4290	 9.2930
 0.4300	 9.2780
 0.4310	 9.2570
 0.4320	 9.2380
 0.4330	 9.2170
 0.4340	 9.1910
 0.4350	 9.1820
 0.4360	 9.1840
 0.4370	 9.1950
 0.4380	 9.2160
 0.4390	 9.2360
 0.4400	 9.2570
 0.4410	 9.2810
 0.4420	 9.2980
 0.4430	 9.3080
 0.4440	 9.3140
 0.4450	 9.3230
 0.4460	 9.3350
 0.4470	 9.3390
 0.4480	 9.3380
 0.4490	 9.3430
 0.4500	 9.3510
 0.4510	 9.3580
 0.4520	 9.3630
 0.4530	 9.3670
 0.4540	 9.3740
 0.4550	 9.3810
 0.4560	 9.3750
 0.4570	 9.3780
 0.4580	 9.3860
 0.4590	 9.3930
 0.4600	 9.3900
 0.4610	 9.3860
 0.4620	 9.3870
 0.4630	 9.3890
 0.4640	 9.3860
 0.4650	 9.3860
 0.4660	 9.3910
 0.4670	 9.3920
 0.4680	 9.3880
 0.4690	 9.3850
 0.4700	 9.3880
 0.4710	 9.3960
 0.4720	 9.4000
 0.4730	 9.3980
 0.4740	 9.3950
 0.4750	 9.4050
 0.4760	 9.4150
 0.4770	 9.4180
 0.4780	 9.4160
 0.4790	 9.4100
 0.4800	 9.4070
 0.4810	 9.4120
 0.4820	 9.4110
 0.4830	 9.4000
 0.4840	 9.3850
 0.4850	 9.3780
 0.4860	 9.3740
 0.4870	 9.3720
 0.4880	 9.3740
 0.4890	 9.3850
 0.4900	 9.3930
 0.4910	 9.4030
 0.4920	 9.4280
 0.4930	 9.4470
 0.4940	 9.4670
 0.4950	 9.4900
 0.4960	 9.5110
 0.4970	 9.5370
 0.4980	 9.5690
 0.4990	 9.6040
 0.5000	 9.6430
 0.5010	 9.6800
 0.5020	 9.7180
 0.5030	 9.7680
 0.5040	 9.8210
 0.5050	 9.8780
 0.5060	 9.9420
 0.5070	10.0110
 0.5080	10.0910
 0.5090	10.1810
 0.5100	10.2790
 0.5110	10.3850
 0.5120	10.5040
 0.5130	10.6350
 0.5140	10.7720
 0.5150	10.9240
 0.5160	11.0890
 0.5170	11.2620
 0.5180	11.4520
 0.5190	11.6490
 0.5200	11.8500
 0.5210	12.0560
 0.5220	12.2620
 0.5230	12.4680
 0.5240	12.6740
 0.5250	12.8700
 0.5260	13.0590
 0.5270	13.2390
 0.5280	13.4090
 0.5290	13.5630
 0.5300	13.7060
 0.5310	13.8390
 0.5320	13.9540
 0.5330	14.0580
 0.5340	14.1510
 0.5350	14.2280
 0.5360	14.2900
 0.5370	14.3400
 0.5380	14.3780
 0.5390	14.4000
 0.5400	14.3940
 0.5410	14.3690
 0.5420	14.3400
 0.5430	14.3230
 0.5440	14.3310
 0.5450	14.3680
 0.5460	14.4290
 0.5470	14.4990
 0.5480	14.5590
 0.5490	14.5990
 0.5500	14.6210
 0.5510	14.6330
 0.5520	14.6390
 0.5530	14.6370
 0.5540	14.6280
 0.5550	14.6050
 0.5560	14.5650
 0.5570	14.5080
 0.5580	14.4340
 0.5590	14.3510
 0.5600	14.2600
 0.5610	14.1560
 0.5620	14.0440
 0.5630	13.9270
 0.5640	13.8040
 0.5650	13.6740
 0.5660	13.5440
 0.5670	13.4180
 0.5680	13.2920
 0.5690	13.1660
 0.5700	13.0400
 0.5710	12.9160
 0.5720	12.7940
 0.5730	12.6800
 0.5740	12.5740
 0.5750	12.4680
 0.5760	12.3620
 0.5770	12.2620
 0.5780	12.1690
 0.5790	12.0800
 0.5800	12.0020
 0.5810	11.9330
 0.5820	11.8680
 0.5830	11.8040
 0.5840	11.7420
 0.5850	11.6880
 0.5860	11.6400
 0.5870	11.5920
 0.5880	11.5550
 0.5890	11.5340
 0.5900	11.5100
 0.5910	11.4830
 0.5920	11.4530
 0.5930	11.4210
 0.5940	11.3990
 0.5950	11.3830
 0.5960	11.3690
 0.5970	11.3520
 0.5980	11.3320
 0.5990	11.3100
 0.6000	11.2870
 0.6010	11.2660
 0.6020	11.2420
 0.6030	11.2120
 0.6040	11.1790
 0.6050	11.1400
 0.6060	11.0990
 0.6070	11.0550
 0.6080	11.0050
 0.6090	10.9290
 0.6100	10.8190
 0.6110	10.6910
 0.6120	10.6450
 0.6130	10.6450
 0.6140	10.6500
 0.6150	10.6300
 0.6160	10.6040
 0.6170	10.5730
 0.6180	10.5360
 0.6190	10.4970
 0.6200	10.4610
 0.6210	10.4300
 0.6220	10.4090
 0.6230	10.3900
 0.6240	10.3750
 0.6250	10.3650
 0.6260	10.3550
 0.6270	10.3480
 0.6280	10.3400
 0.6290	10.3310
 0.6300	10.3160
 0.6310	10.3050
 0.6320	10.3000
 0.6330	10.2960
 0.6340	10.2810
 0.6350	10.2590
 0.6360	10.2320
 0.6370	10.2000
 0.6380	10.1620
 0.6390	10.1190
 0.6400	10.0760
 0.6410	10.0320
 0.6420	 9.9880
 0.6430	 9.9430
 0.6440	 9.9010
 0.6450	 9.8610
 0.6460	 9.8250
 0.6470	 9.7950
 0.6480	 9.7670
 0.6490	 9.7440
 0.6500	 9.7260
 0.6510	 9.7110
 0.6520	 9.7040
 0.6530	 9.7020
 0.6540	 9.6990
 0.6550	 9.6980
 0.6560	 9.6950
 0.6570	 9.6880
 0.6580	 9.6790
 0.6590	 9.6700
 0.6600	 9.6600
 0.6610	 9.6500
 0.6620	 9.6400
 0.6630	 9.6320
 0.6640	 9.6280
 0.6650	 9.6290
 0.6660	 9.6300
 0.6670	 9.6350
 0.6680	 9.6430
 0.6690	 9.6570
 0.6700	 9.6730
 0.6710	 9.6920
 0.6720	 9.7140
 0.6730	 9.7390
 0.6740	 9.7670
 0.6750	 9.7980
 0.6760	 9.8300
 0.6770	 9.8670
 0.6780	 9.9070
 0.6790	 9.9490
 0.6800	 9.9930
 0.6810	10.0410
 0.6820	10.0920
 0.6830	10.1430
 0.6840	10.1950
 0.6850	10.2470
 0.6860	10.3010
 0.6870	10.3620
 0.6880	10.4370
 0.6890	10.5320
 0.6900	10.6520
 0.6910	10.8040
 0.6920	10.9990
 0.6930	11.2420
 0.6940	11.5370
 0.6950	11.8930
 0.6960	12.3100
 0.6970	12.7880
 0.6980	13.3250
 0.6990	13.9160
 0.7000	14.5510
 0.7010	15.2210
 0.7020	15.9220
 0.7030	16.6350
 0.7040	17.3590
 0.7050	18.0920
 0.7060	18.8230
 0.7070	19.5530
 0.7080	20.2810
 0.7090	21.0080
 0.7100	21.7320
 0.7110	22.4520
 0.7120	23.1670
 0.7130	23.8780
 0.7140	24.5900
 0.7150	25.2990
 0.7160	26.0000
 0.7170	26.6960
 0.7180	27.3860
 0.7190	28.0690
 0.7200	28.7460
 0.7210	29.4140
 0.7220	30.0750
 0.7230	30.7260
 0.7240	31.3620
 0.7250	31.9820
 0.7260	32.5890
 0.7270	33.1820
 0.7280	33.7550
 0.7290	34.3090
 0.7300	34.8450
 0.7310	35.3630
 0.7320	35.8590
 0.7330	36.3340
 0.7340	36.7880
 0.7350	37.2220
 0.7360	37.6330
 0.7370	38.0230
 0.7380	38.3920
 0.7390	38.7400
 0.7400	39.0680
 0.7410	39.3750
 0.7420	39.6600
 0.7430	39.9260
 0.7440	40.1710
 0.7450	40.3960
 0.7460	40.6040
 0.7470	40.7930
 0.7480	40.9660
 0.7490	41.1250
 0.7500	41.2690
 0.7510	41.3980
 0.7520	41.5160
 0.7530	41.6230
 0.7540	41.7150
 0.7550	41.7980
 0.7560	41.8740
 0.7570	41.9430
 0.7580	42.0060
 0.7590	42.0620
 0.7600	42.1100
 0.7610	42.1530
 0.7620	42.1920
 0.7630	42.2260
 0.7640	42.2550
 0.7650	42.2790
 0.7660	42.2980
 0.7670	42.3140
 0.7680	42.3290
 0.7690	42.3430
 0.7700	42.3520
 0.7710	42.3570
 0.7720	42.3660
 0.7730	42.3730
 0.7740	42.3780
 0.7750	42.3810
 0.7760	42.3840
 0.7770	42.3870
 0.7780	42.3890
 0.7790	42.3880
 0.7800	42.3910
 0.7810	42.3940
 0.7820	42.3950
 0.7830	42.3950
 0.7840	42.3940
 0.7850	42.3930
 0.7860	42.3910
 0.7870	42.3880
 0.7880	42.3850
 0.7890	42.3810
 0.7900	42.3750
 0.7910	42.3700
 0.7920	42.3640
 0.7930	42.3590
 0.7940	42.3550
 0.7950	42.3470
 0.7960	42.3370
 0.7970	42.3260
 0.7980	42.3160
 0.7990	42.3030
 0.8000	42.2900
 0.8010	42.2810
 0.8020	42.2700
 0.8030	42.2570
 0.8040	42.2440
 0.8050	42.2330
 0.8060	42.2200
 0.8070	42.2030
 0.8080	42.1850
 0.8090	42.1710
 0.8100	42.1540
 0.8110	42.1370
 0.8120	42.1200
 0.8130	42.1020
 0.8140	42.0850
 0.8150	42.0690
 0.8160	42.0510
 0.8170	42.0330
 0.8180	42.0140
 0.8190	41.9950
 0.8200	41.9780
 0.8210	41.9610
 0.8220	41.9440
 0.8230	41.9280
 0.8240	41.9070
 0.8250	41.8870
 0.8260	41.8720
 0.8270	41.8570
 0.8280	41.8390
 0.8290	41.8230
 0.8300	41.8070
 0.8310	41.7900
 0.8320	41.7760
 0.8330	41.7620
 0.8340	41.7480
 0.8350	41.7340
 0.8360	41.7200
 0.8370	41.7070
 0.8380	41.6960
 0.8390	41.6840
 0.8400	41.6730
 0.8410	41.6650
 0.8420	41.6570
 0.8430	41.6470
 0.8440	41.6410
 0.8450	41.6330
 0.8460	41.6240
 0.8470	41.6180
 0.8480	41.6140
 0.8490	41.6090
 0.8500	41.6040
 0.8510	41.5990
 0.8520	41.5960
 0.8530	41.5930
 0.8540	41.5890
 0.8550	41.5880
 0.8560	41.5860
 0.8570	41.5830
 0.8580	41.5840
 0.8590	41.5840
 0.8600	41.5850
 0.8610	41.5890
 0.8620	41.5930
 0.8630	41.5920
 0.8640	41.5930
 0.8650	41.6000
 0.8660	41.6060
 0.8670	41.6070
 0.8680	41.6100
 0.8690	41.6200
 0.8700	41.6250
 0.8710	41.6290
 0.8720	41.6350
 0.8730	41.6450
 0.8740	41.6540
 0.8750	41.6590
 0.8760	41.6650
 0.8770	41.6790
 0.8780	41.6880
 0.8790	41.6940
 0.8800	41.7000
 0.8810	41.7080
 0.8820	41.7180
 0.8830	41.7270
 0.8840	41.7320
 0.8850	41.7390
 0.8860	41.7460
 0.8870	41.7550
 0.8880	41.7670
 0.8890	41.7760
 0.8900	41.7840
 0.8910	41.7900
 0.8920	41.7970
 0.8930	41.8090
 0.8940	41.8220
 0.8950	41.8310
 0.8960	41.8370
 0.8970	41.8450
 0.8980	41.8560
 0.8990	41.8660
 0.9000	41.8690
 0.9010	41.8780
 0.9020	41.8880
 0.9030	41.8960
 0.9040	41.9050
 0.9050	41.9130
 0.9060	41.9210
 0.9070	41.9260
 0.9080	41.9330
 0.9090	41.9410
 0.9100	41.9470
 0.9110	41.9490
 0.9120	41.9550
 0.9130	41.9560
 0.9140	41.9580
 0.9150	41.9640
 0.9160	41.9650
 0.9170	41.9680
 0.9180	41.9720
 0.9190	41.9760
 0.9200	41.9750
 0.9210	41.9740
 0.9220	41.9730
 0.9230	41.9730
 0.9240	41.9710
 0.9250	41.9700
 0.9260	41.9700
 0.9270	41.9660
 0.9280	41.9550
 0.9290	41.9460
 0.9300	41.9420
 0.9310	41.9430
 0.9320	41.9330
 0.9330	41.9200
 0.9340	41.9100
 0.9350	41.9060
 0.9360	41.8970
 0.9370	41.8850
 0.9380	41.8730
 0.9390	41.8620
 0.9400	41.8550
 0.9410	41.8430
 0.9420	41.8260
 0.9430	41.8200
 0.9440	41.8120
 0.9450	41.7950
 0.9460	41.7690
 0.9470	41.7480
 0.9480	41.7350
 0.9490	41.7270
 0.9500	41.7150
 0.9510	41.6890
 0.9520	41.6610
 0.9530	41.6380
 0.9540	41.6220
 0.9550	41.6030
 0.9560	41.5790
 0.9570	41.5520
 0.9580	41.5280
 0.9590	41.5150
 0.9600	41.4990
 0.9610	41.4800
 0.9620	41.4610
 0.9630	41.4450
 0.9640	41.4290
 0.9650	41.4180
 0.9660	41.4140
 0.9670	41.3870
 0.9680	41.3800
 0.9690	41.3780
 0.9700	41.3550
 0.9710	41.3520
 0.9720	41.3430
 0.9730	41.3330
 0.9740	41.3330
 0.9750	41.3320
 0.9760	41.3240
 0.9770	41.3170
 0.9780	41.3170
 0.9790	41.3050
 0.9800	41.2950
 0.9810	41.2910
 0.9820	41.2900
 0.9830	41.2920
 0.9840	41.2790
 0.9850	41.2650
 0.9860	41.2750
 0.9870	41.2840
 0.9880	41.2790
 0.9890	41.2710
 0.9900	41.2830
 0.9910	41.2870
 0.9920	41.2740
 0.9930	41.2650
 0.9940	41.2780
 0.9950	41.2640
 0.9960	41.2640
 0.9970	41.2720
 0.9980	41.2630
 0.9990	41.2560
 1.0000	41.2620
 1.0010	42.5860
 1.0020	42.5850
 1.0030	42.5820
 1.0040	42.5820
 1.0050	42.5790
 1.0060	42.5780
 1.0070	42.5820
 1.0080	42.5820
 1.0090	42.5790
 1.0100	42.5770
 1.0110	42.5740
 1.0120	42.5720
 1.0130	42.5730
 1.0140	42.5720
 1.0150	42.5690
 1.0160	42.5650
 1.0170	42.5670
 1.0180	42.5710
 1.0190	42.5730
 1.0200	42.5770
 1.0210	42.5740
 1.0220	42.5690
 1.0230	42.5660
 1.0240	42.5630
 1.0250	42.5630
 1.0260	42.5650
 1.0270	42.5650
 1.0280	42.5670
 1.0290	42.5700
 1.0300	42.5720
 1.0310	42.5740
 1.0320	42.5770
 1.0330	42.5790
 1.0340	42.5770
 1.0350	42.5790
 1.0360	42.5830
 1.0370	42.5820
 1.0380	42.5850
 1.0390	42.5900
 1.0400	42.5910
 1.0410	42.5900
 1.0420	42.5910
 1.0430	42.5870
 1.0440	42.5870
 1.0450	42.5910
 1.0460	42.5920
 1.0470	42.5920
 1.0480	42.5920
 1.0490	42.5910
 1.0500	42.5910
 1.0510	42.5920
 1.0520	42.5920
 1.0530	42.5910
 1.0540	42.5890
 1.0550	42.5860
 1.0560	42.5800
 1.0570	42.5770
 1.0580	42.5740
 1.0590	42.5730
 1.0600	42.5740
 1.0610	42.5720
 1.0620	42.5720
 1.0630	42.5670
 1.0640	42.5540
 1.0650	42.5470
 1.0660	42.5440
 1.0670	42.5370
 1.0680	42.5290
 1.0690	42.5240
 1.0700	42.5170
 1.0710	42.5040
 1.0720	42.4970
 1.0730	42.4950
 1.0740	42.4890
 1.0750	42.4800
 1.0760	42.4750
 1.0770	42.4690
 1.0780	42.4660
 1.0790	42.4670
 1.0800	42.4640
 1.0810	42.4590
 1.0820	42.4550
 1.0830	42.4460
 1.0840	42.4420
 1.0850	42.4400
 1.0860	42.4390
 1.0870	42.4360
 1.0880	42.4330
 1.0890	42.4300
 1.0900	42.4230
 1.0910	42.4190
 1.0920	42.4170
 1.0930	42.4140
 1.0940	42.4100
 1.0950	42.4080
 1.0960	42.4080
 1.0970	42.4050
 1.0980	42.4000
 1.0990	42.3990
 1.1000	42.3990
 1.1010	42.3980
 1.1020	42.4000
 1.1030	42.4010
 1.1040	42.3980
 1.1050	42.3910
 1.1060	42.3890
 1.1070	42.3860
 1.1080	42.3860
 1.1090	42.3890
 1.1100	42.3900
 1.1110	42.3910
 1.1120	42.3910
 1.1130	42.3900
 1.1140	42.3880
 1.1150	42.3820
 1.1160	42.3800
 1.1170	42.3790
 1.1180	42.3770
 1.1190	42.3750
 1.1200	42.3740
 1.1210	42.3680
 1.1220	42.3620
 1.1230	42.3560
 1.1240	42.3480
 1.1250	42.3410
 1.1260	42.3330
 1.1270	42.3220
 1.1280	42.3110
 1.1290	42.2960
 1.1300	42.2780
 1.1310	42.2570
 1.1320	42.2330
 1.1330	42.2090
 1.1340	42.1830
 1.1350	42.1550
 1.1360	42.1260
 1.1370	42.0930
 1.1380	42.0560
 1.1390	42.0200
 1.1400	41.9820
 1.1410	41.9430
 1.1420	41.9060
 1.1430	41.8670
 1.1440	41.8250
 1.1450	41.7800
 1.1460	41.7370
 1.1470	41.6910
 1.1480	41.6510
 1.1490	41.6150
 1.1500	41.5800
 1.1510	41.5460
 1.1520	41.5140
 1.1530	41.4840
 1.1540	41.4550
 1.1550	41.4290
 1.1560	41.4050
 1.1570	41.3840
 1.1580	41.3650
 1.1590	41.3490
 1.1600	41.3330
 1.1610	41.3190
 1.1620	41.3050
 1.1630	41.2930
 1.1640	41.2840
 1.1650	41.2770
 1.1660	41.2720
 1.1670	41.2660
 1.1680	41.2620
 1.1690	41.2570
 1.1700	41.2510
 1.1710	41.2450
 1.1720	41.2380
 1.1730	41.2320
 1.1740	41.2260
 1.1750	41.2210
 1.1760	41.2150
 1.1770	41.2100
 1.1780	41.2040
 1.1790	41.1960
 1.1800	41.1890
 1.1810	41.1810
 1.1820	41.1740
 1.1830	41.1670
 1.1840	41.1600
 1.1850	41.1540
 1.1860	41.1450
 1.1870	41.1370
 1.1880	41.1290
 1.1890	41.1220
 1.1900	41.1150
 1.1910	41.1080
 1.1920	41.1010
 1.1930	41.0900
 1.1940	41.0840
 1.1950	41.0790
 1.1960	41.0740
 1.1970	41.0710
 1.1980	41.0700
 1.1990	41.0680
 1.2000	41.0640
 1.2010	41.0610
 1.2020	41.0580
 1.2030	41.0530
 1.2040	41.0510
 1.2050	41.0530
 1.2060	41.0540
 1.2070	41.0550
 1.2080	41.0560
 1.2090	41.0560
 1.2100	41.0550
 1.2110	41.0560
 1.2120	41.0580
 1.2130	41.0590
 1.2140	41.0600
 1.2150	41.0630
 1.2160	41.0650
 1.2170	41.0690
 1.2180	41.0750
 1.2190	41.0810
 1.2200	41.0860
 1.2210	41.0900
 1.2220	41.0930
 1.2230	41.0950
 1.2240	41.1000
 1.2250	41.1050
 1.2260	41.1100
 1.2270	41.1160
 1.2280	41.1180
 1.2290	41.1210
 1.2300	41.1250
 1.2310	41.1270
 1.2320	41.1310
 1.2330	41.1350
 1.2340	41.1380
 1.2350	41.1400
 1.2360	41.1430
 1.2370	41.1450
 1.2380	41.1460
 1.2390	41.1480
 1.2400	41.1500
 1.2410	41.1500
 1.2420	41.1520
 1.2430	41.1520
 1.2440	41.1520
 1.2450	41.1510
 1.2460	41.1490
 1.2470	41.1490
 1.2480	41.1490
 1.2490	41.1500
 1.2500	41.1530
 1.2510	41.1540
 1.2520	41.1530
 1.2530	41.1500
 1.2540	41.1460
 1.2550	41.1440
 1.2560	41.1410
 1.2570	41.1380
 1.2580	41.1360
 1.2590	41.1330
 1.2600	41.1290
 1.2610	41.1250
 1.2620	41.1200
 1.2630	41.1160
 1.2640	41.1100
 1.2650	41.1050
 1.2660	41.1000
 1.2670	41.0960
 1.2680	41.0920
 1.2690	41.0880
 1.2700	41.0840
 1.2710	41.0780
 1.2720	41.0700
 1.2730	41.0630
 1.2740	41.0570
 1.2750	41.0500
 1.2760	41.0440
 1.2770	41.0390
 1.2780	41.0330
 1.2790	41.0240
 1.2800	41.0150
 1.2810	41.0050
 1.2820	40.9920
 1.2830	40.9790
 1.2840	40.9660
 1.2850	40.9500
 1.2860	40.9330
 1.2870	40.9150
 1.2880	40.8960
 1.2890	40.8760
 1.2900	40.8550
 1.2910	40.8330
 1.2920	40.8080
 1.2930	40.7830
 1.2940	40.7570
 1.2950	40.7310
 1.2960	40.7060
 1.2970	40.6800
 1.2980	40.6520
 1.2990	40.6240
 1.3000	40.5960
 1.3010	40.5660
 1.3020	40.5340
 1.3030	40.5020
 1.3040	40.4680
 1.3050	40.4350
 1.3060	40.4050
 1.3070	40.3740
 1.3080	40.3440
 1.3090	40.3130
 1.3100	40.2790
 1.3110	40.2480
 1.3120	40.2190
 1.3130	40.1870
 1.3140	40.1550
 1.3150	40.1210
 1.3160	40.0880
 1.3170	40.0520
 1.3180	40.0190
 1.3190	39.9860
 1.3200	39.9530
 1.3210	39.9200
 1.3220	39.8880
 1.3230	39.8550
 1.3240	39.8230
 1.3250	39.7900
 1.3260	39.7550
 1.3270	39.7200
 1.3280	39.6830
 1.3290	39.6460
 1.3300	39.6100
 1.3310	39.5740
 1.3320	39.5380
 1.3330	39.5000
 1.3340	39.4620
 1.3350	39.4220
 1.3360	39.3830
 1.3370	39.3450
 1.3380	39.3050
 1.3390	39.2650
 1.3400	39.2240
 1.3410	39.1840
 1.3420	39.1470
 1.3430	39.1100
 1.3440	39.0720
 1.3450	39.0330
 1.3460	38.9950
 1.3470	38.9560
 1.3480	38.9160
 1.3490	38.8760
 1.3500	38.8360
 1.3510	38.7960
 1.3520	38.7550
 1.3530	38.7130
 1.3540	38.6720
 1.3550	38.6300
 1.3560	38.5850
 1.3570	38.5410
 1.3580	38.4950
 1.3590	38.4500
 1.3600	38.4030
 1.3610	38.3540
 1.3620	38.3020
 1.3630	38.2470
 1.3640	38.1880
 1.3650	38.1270
 1.3660	38.0630
 1.3670	37.9950
 1.3680	37.9230
 1.3690	37.8460
 1.3700	37.7610
 1.3710	37.6690
 1.3720	37.5690
 1.3730	37.4600
 1.3740	37.3430
 1.3750	37.2160
 1.3760	37.0770
 1.3770	36.9260
 1.3780	36.7600
 1.3790	36.5830
 1.3800	36.3910
 1.3810	36.1840
 1.3820	35.9630
 1.3830	35.7290
 1.3840	35.4800
 1.3850	35.2180
 1.3860	34.9420
 1.3870	34.6520
 1.3880	34.3530
 1.3890	34.0400
 1.3900	33.7170
 1.3910	33.3900
 1.3920	33.0520
 1.3930	32.7060
 1.3940	32.3550
 1.3950	31.9980
 1.3960	31.6390
 1.3970	31.2830
 1.3980	30.9280
 1.3990	30.5810
 1.4000	30.2380
 1.4010	29.9000
 1.4020	29.5710
 1.4030	29.2500
 1.4040	28.9400
 1.4050	28.6430
 1.4060	28.3580
 1.4070	28.0880
 1.4080	27.8310
 1.4090	27.5860
 1.4100	27.3560
 1.4110	27.1380
 1.4120	26.9330
 1.4130	26.7430
 1.4140	26.5650
 1.4150	26.4020
 1.4160	26.2510
 1.4170	26.1100
 1.4180	25.9830
 1.4190	25.8650
 1.4200	25.7560
 1.4210	25.6580
 1.4220	25.5670
 1.4230	25.4850
 1.4240	25.4100
 1.4250	25.3430
 1.4260	25.2840
 1.4270	25.2310
 1.4280	25.1850
 1.4290	25.1450
 1.4300	25.1110
 1.4310	25.0810
 1.4320	25.0570
 1.4330	25.0360
 1.4340	25.0190
 1.4350	25.0060
 1.4360	24.9970
 1.4370	24.9910
 1.4380	24.9890
 1.4390	24.9890
 1.4400	24.9920
 1.4410	24.9980
 1.4420	25.0060
 1.4430	25.0160
 1.4440	25.0290
 1.4450	25.0430
 1.4460	25.0590
 1.4470	25.0760
 1.4480	25.0920
 1.4490	25.1100
 1.4500	25.1290
 1.4510	25.1480
 1.4520	25.1700
 1.4530	25.1930
 1.4540	25.2180
 1.4550	25.2460
 1.4560	25.2740
 1.4570	25.3040
 1.4580	25.3370
 1.4590	25.3720
 1.4600	25.4120
 1.4610	25.4540
 1.4620	25.5000
 1.4630	25.5520
 1.4640	25.6060
 1.4650	25.6640
 1.4660	25.7270
 1.4670	25.7920
 1.4680	25.8630
 1.4690	25.9370
 1.4700	26.0150
 1.4710	26.0960
 1.4720	26.1790
 1.4730	26.2650
 1.4740	26.3540
 1.4750	26.4450
 1.4760	26.5400
 1.4770	26.6350
 1.4780	26.7320
 1.4790	26.8300
 1.4800	26.9280
 1.4810	27.0270
 1.4820	27.1260
 1.4830	27.2270
 1.4840	27.3290
 1.4850	27.4310
 1.4860	27.5330
 1.4870	27.6350
 1.4880	27.7360
 1.4890	27.8370
 1.4900	27.9390
 1.4910	28.0400
 1.4920	28.1420
 1.4930	28.2440
 1.4940	28.3460
 1.4950	28.4490
 1.4960	28.5500
 1.4970	28.6490
 1.4980	28.7490
 1.4990	28.8490
 1.5000	28.9490
 1.5010	29.0500
 1.5020	29.1500
 1.5030	29.2500
 1.5040	29.3490
 1.5050	29.4460
 1.5060	29.5430
 1.5070	29.6400
 1.5080	29.7370
 1.5090	29.8330
 1.5100	29.9270
 1.5110	30.0220
 1.5120	30.1150
 1.5130	30.2060
 1.5140	30.2980
 1.5150	30.3890
 1.5160	30.4770
 1.5170	30.5660
 1.5180	30.6540
 1.5190	30.7400
 1.5200	30.8270
 1.5210	30.9120
 1.5220	30.9950
 1.5230	31.0770
 1.5240	31.1590
 1.5250	31.2410
 1.5260	31.3220
 1.5270	31.4020
 1.5280	31.4810
 1.5290	31.5580
 1.5300	31.6330
 1.5310	31.7100
 1.5320	31.7850
 1.5330	31.8580
 1.5340	31.9310
 1.5350	32.0010
 1.5360	32.0710
 1.5370	32.1400
 1.5380	32.2080
 1.5390	32.2760
 1.5400	32.3420
 1.5410	32.4070
 1.5420	32.4700
 1.5430	32.5350
 1.5440	32.6000
 1.5450	32.6630
 1.5460	32.7260
 1.5470	32.7870
 1.5480	32.8470
 1.5490	32.9080
 1.5500	32.9660
 1.5510	33.0230
 1.5520	33.0810
 1.5530	33.1370
 1.5540	33.1920
 1.5550	33.2470
 1.5560	33.2990
 1.5570	33.3520
 1.5580	33.4040
 1.5590	33.4540
 1.5600	33.5030
 1.5610	33.5510
 1.5620	33.5980
 1.5630	33.6450
 1.5640	33.6920
 1.5650	33.7380
 1.5660	33.7840
 1.5670	33.8290
 1.5680	33.8730
 1.5690	33.9150
 1.5700	33.9580
 1.5710	34.0010
 1.5720	34.0420
 1.5730	34.0850
 1.5740	34.1250
 1.5750	34.1650
 1.5760	34.2060
 1.5770	34.2450
 1.5780	34.2840
 1.5790	34.3230
 1.5800	34.3600
 1.5810	34.3970
 1.5820	34.4350
 1.5830	34.4740
 1.5840	34.5110
 1.5850	34.5470
 1.5860	34.5840
 1.5870	34.6210
 1.5880	34.6580
 1.5890	34.6960
 1.5900	34.7330
 1.5910	34.7680
 1.5920	34.8030
 1.5930	34.8410
 1.5940	34.8790
 1.5950	34.9160
 1.5960	34.9540
 1.5970	34.9910
 1.5980	35.0250
 1.5990	35.0580
 1.6000	35.0910
 1.6010	35.1220
 1.6020	35.1540
 1.6030	35.1870
 1.6040	35.2210
 1.6050	35.2540
 1.6060	35.2870
 1.6070	35.3190
 1.6080	35.3500
 1.6090	35.3810
 1.6100	35.4110
 1.6110	35.4400
 1.6120	35.4680
 1.6130	35.4950
 1.6140	35.5220
 1.6150	35.5470
 1.6160	35.5730
 1.6170	35.6010
 1.6180	35.6280
 1.6190	35.6540
 1.6200	35.6810
 1.6210	35.7050
 1.6220	35.7280
 1.6230	35.7510
 1.6240	35.7730
 1.6250	35.7960
 1.6260	35.8180
 1.6270	35.8390
 1.6280	35.8590
 1.6290	35.8780
 1.6300	35.8990
 1.6310	35.9180
 1.6320	35.9350
 1.6330	35.9520
 1.6340	35.9670
 1.6350	35.9840
 1.6360	36.0040
 1.6370	36.0200
 1.6380	36.0350
 1.6390	36.0500
 1.6400	36.0610
 1.6410	36.0730
 1.6420	36.0870
 1.6430	36.0990
 1.6440	36.1120
 1.6450	36.1220
 1.6460	36.1320
 1.6470	36.1430
 1.6480	36.1510
 1.6490	36.1590
 1.6500	36.1660
 1.6510	36.1700
 1.6520	36.1740
 1.6530	36.1770
 1.6540	36.1790
 1.6550	36.1800
 1.6560	36.1800
 1.6570	36.1800
 1.6580	36.1780
 1.6590	36.1770
 1.6600	36.1750
 1.6610	36.1720
 1.6620	36.1700
 1.6630	36.1660
 1.6640	36.1620
 1.6650	36.1580
 1.6660	36.1540
 1.6670	36.1490
 1.6680	36.1440
 1.6690	36.1390
 1.6700	36.1340
 1.6710	36.1270
 1.6720	36.1190
 1.6730	36.1110
 1.6740	36.1010
 1.6750	36.0910
 1.6760	36.0810
 1.6770	36.0670
 1.6780	36.0520
 1.6790	36.0360
 1.6800	36.0190
 1.6810	36.0010
 1.6820	35.9820
 1.6830	35.9640
 1.6840	35.9430
 1.6850	35.9200
 1.6860	35.8990
 1.6870	35.8760
 1.6880	35.8520
 1.6890	35.8310
 1.6900	35.8090
 1.6910	35.7870
 1.6920	35.7650
 1.6930	35.7410
 1.6940	35.7190
 1.6950	35.6990
 1.6960	35.6760
 1.6970	35.6530
 1.6980	35.6300
 1.6990	35.6060
 1.7000	35.5830
 1.7010	35.5640
 1.7020	35.5400
 1.7030	35.5140
 1.7040	35.4880
 1.7050	35.4600
 1.7060	35.4350
 1.7070	35.4110
 1.7080	35.3850
 1.7090	35.3570
 1.7100	35.3310
 1.7110	35.3040
 1.7120	35.2790
 1.7130	35.2530
 1.7140	35.2240
 1.7150	35.1960
 1.7160	35.1690
 1.7170	35.1410
 1.7180	35.1150
 1.7190	35.0900
 1.7200	35.0650
 1.7210	35.0410
 1.7220	35.0180
 1.7230	34.9930
 1.7240	34.9680
 1.7250	34.9420
 1.7260	34.9200
 1.7270	34.8970
 1.7280	34.8730
 1.7290	34.8530
 1.7300	34.8310
 1.7310	34.8130
 1.7320	34.7980
 1.7330	34.7830
 1.7340	34.7670
 1.7350	34.7520
 1.7360	34.7390
 1.7370	34.7230
 1.7380	34.7070
 1.7390	34.6880
 1.7400	34.6670
 1.7410	34.6440
 1.7420	34.6190
 1.7430	34.5920
 1.7440	34.5650
 1.7450	34.5350
 1.7460	34.5010
 1.7470	34.4680
 1.7480	34.4320
 1.7490	34.3970
 1.7500	34.3620
 1.7510	34.3250
 1.7520	34.2870
 1.7530	34.2490
 1.7540	34.2100
 1.7550	34.1690
 1.7560	34.1280
 1.7570	34.0890
 1.7580	34.0480
 1.7590	34.0080
 1.7600	33.9680
 1.7610	33.9310
 1.7620	33.8960
 1.7630	33.8640
 1.7640	33.8310
 1.7650	33.7990
 1.7660	33.7690
 1.7670	33.7400
 1.7680	33.7130
 1.7690	33.6900
 1.7700	33.6650
 1.7710	33.6420
 1.7720	33.6180
 1.7730	33.5940
 1.7740	33.5720
 1.7750	33.5520
 1.7760	33.5310
 1.7770	33.5110
 1.7780	33.4930
 1.7790	33.4760
 1.7800	33.4600
 1.7810	33.4460
 1.7820	33.4320
 1.7830	33.4180
 1.7840	33.4050
 1.7850	33.3940
 1.7860	33.3830
 1.7870	33.3740
 1.7880	33.3650
 1.7890	33.3570
 1.7900	33.3520
 1.7910	33.3470
 1.7920	33.3420
 1.7930	33.3390
 1.7940	33.3370
 1.7950	33.3370
 1.7960	33.3410
 1.7970	33.3430
 1.7980	33.3450
 1.7990	33.3460
 1.8000	33.3450
 1.8010	33.3480
 1.8020	33.3520
 1.8030	33.3560
 1.8040	33.3610
 1.8050	33.3640
 1.8060	33.3670
 1.8070	33.3690
 1.8080	33.3690
 1.8090	33.3720
 1.8100	33.3740
 1.8110	33.3760
 1.8120	33.3800
 1.8130	33.3820
 1.8140	33.3790
 1.8150	33.3790
 1.8160	33.3800
 1.8170	33.3790
 1.8180	33.3770
 1.8190	33.3720
 1.8200	33.3690
 1.8210	33.3690
 1.8220	33.3660
 1.8230	33.3610
 1.8240	33.3580
 1.8250	33.3540
 1.8260	33.3490
 1.8270	33.3460
 1.8280	33.3390
 1.8290	33.3270
 1.8300	33.3160
 1.8310	34.0990
 1.8320	34.0820
 1.8330	34.0630
 1.8340	34.0410
 1.8350	34.0210
 1.8360	33.9960
 1.8370	33.9670
 1.8380	33.9400
 1.8390	33.9070
 1.8400	33.8710
 1.8410	33.8320
 1.8420	33.7930
 1.8430	33.7430
 1.8440	33.6880
 1.8450	33.6320
 1.8460	33.5690
 1.8470	33.5020
 1.8480	33.4280
 1.8490	33.3480
 1.8500	33.2610
 1.8510	33.1680
 1.8520	33.0660
 1.8530	32.9590
 1.8540	32.8410
 1.8550	32.7100
 1.8560	32.5690
 1.8570	32.4190
 1.8580	32.2590
 1.8590	32.0890
 1.8600	31.9090
 1.8610	31.7180
 1.8620	31.5110
 1.8630	31.2910
 1.8640	31.0590
 1.8650	30.8070
 1.8660	30.5370
 1.8670	30.2500
 1.8680	29.9410
 1.8690	29.6120
 1.8700	29.2660
 1.8710	28.9010
 1.8720	28.5260
 1.8730	28.1360
 1.8740	27.7310
 1.8750	27.3140
 1.8760	26.8780
 1.8770	26.4280
 1.8780	25.9700
 1.8790	25.5010
 1.8800	25.0290
 1.8810	24.5520
 1.8820	24.0700
 1.8830	23.5780
 1.8840	23.0840
 1.8850	22.5850
 1.8860	22.0880
 1.8870	21.6030
 1.8880	21.1230
 1.8890	20.6550
 1.8900	20.1990
 1.8910	19.7610
 1.8920	19.3310
 1.8930	18.9250
 1.8940	18.5380
 1.8950	18.1740
 1.8960	17.8280
 1.8970	17.5030
 1.8980	17.2030
 1.8990	16.9240
 1.9000	16.6660
 1.9010	16.4340
 1.9020	16.2180
 1.9030	16.0220
 1.9040	15.8440
 1.9050	15.6840
 1.9060	15.5410
 1.9070	15.4130
 1.9080	15.3020
 1.9090	15.2040
 1.9100	15.1160
 1.9110	15.0390
 1.9120	14.9760
 1.9130	14.9170
 1.9140	14.8640
 1.9150	14.8190
 1.9160	14.7810
 1.9170	14.7480
 1.9180	14.7210
 1.9190	14.7020
 1.9200	14.6850
 1.9210	14.6720
 1.9220	14.6630
 1.9230	14.6570
 1.9240	14.6540
 1.9250	14.6550
 1.9260	14.6590
 1.9270	14.6690
 1.9280	14.6780
 1.9290	14.6940
 1.9300	14.7140
 1.9310	14.7340
 1.9320	14.7600
 1.9330	14.7850
 1.9340	14.8100
 1.9350	14.8390
 1.9360	14.8680
 1.9370	14.9020
 1.9380	14.9370
 1.9390	14.9780
 1.9400	15.0210
 1.9410	15.0670
 1.9420	15.1140
 1.9430	15.1610
 1.9440	15.2080
 1.9450	15.2550
 1.9460	15.3060
 1.9470	15.3570
 1.9480	15.4110
 1.9490	15.4690
 1.9500	15.5250
 1.9510	15.5820
 1.9520	15.6420
 1.9530	15.7040
 1.9540	15.7660
 1.9550	15.8310
 1.9560	15.9010
 1.9570	15.9670
 1.9580	16.0330
 1.9590	16.1010
 1.9600	16.1690
 1.9610	16.2390
 1.9620	16.3120
 1.9630	16.3850
 1.9640	16.4630
 1.9650	16.5370
 1.9660	16.6120
 1.9670	16.6930
 1.9680	16.7730
 1.9690	16.8510
 1.9700	16.9320
 1.9710	17.0150
 1.9720	17.0980
 1.9730	17.1820
 1.9740	17.2680
 1.9750	17.3540
 1.9760	17.4420
 1.9770	17.5290
 1.9780	17.6170
 1.9790	17.7060
 1.9800	17.7970
 1.9810	17.8880
 1.9820	17.9800
 1.9830	18.0720
 1.9840	18.1640
 1.9850	18.2560
 1.9860	18.3480
 1.9870	18.4410
 1.9880	18.5300
 1.9890	18.6170
 1.9900	18.7080
 1.9910	18.8000
 1.9920	18.8940
 1.9930	18.9910
 1.9940	19.0880
 1.9950	19.1860
 1.9960	19.2810
 1.9970	19.3760
 1.9980	19.4710
 1.9990	19.5640
 2.0000	19.6600
 2.0010	19.7550
 2.0020	19.8500
 2.0030	19.9430
 2.0040	20.0310
 2.0050	20.1220
 2.0060	20.2140
 2.0070	20.3060
 2.0080	20.4000
 2.0090	20.4910
 2.0100	20.5810
 2.0110	20.6700
 2.0120	20.7560
 2.0130	20.8430
 2.0140	20.9300
 2.0150	21.0140
 2.0160	21.1000
 2.0170	21.1830
 2.0180	21.2660
 2.0190	21.3480
 2.0200	21.4310
 2.0210	21.5130
 2.0220	21.5920
 2.0230	21.6710
 2.0240	21.7480
 2.0250	21.8200
 2.0260	21.8920
 2.0270	21.9630
 2.0280	22.0310
 2.0290	22.0980
 2.0300	22.1680
 2.0310	22.2360
 2.0320	22.3080
 2.0330	22.3720
 2.0340	22.4320
 2.0350	22.4940
 2.0360	22.5540
 2.0370	22.6140
 2.0380	22.6770
 2.0390	22.7360
 2.0400	22.7900
 2.0410	22.8460
 2.0420	22.9020
 2.0430	22.9580
 2.0440	23.0110
 2.0450	23.0620
 2.0460	23.1130
 2.0470	23.1640
 2.0480	23.2140
 2.0490	23.2610
 2.0500	23.3110
 2.0510	23.3580
 2.0520	23.4070
 2.0530	23.4590
 2.0540	23.5100
 2.0550	23.5600
 2.0560	23.6110
 2.0570	23.6610
 2.0580	23.7100
 2.0590	23.7590
 2.0600	23.8060
 2.0610	23.8560
 2.0620	23.9080
 2.0630	23.9600
 2.0640	24.0130
 2.0650	24.0660
 2.0660	24.1200
 2.0670	24.1710
 2.0680	24.2190
 2.0690	24.2690
 2.0700	24.3190
 2.0710	24.3690
 2.0720	24.4200
 2.0730	24.4700
 2.0740	24.5200
 2.0750	24.5690
 2.0760	24.6190
 2.0770	24.6700
 2.0780	24.7210
 2.0790	24.7720
 2.0800	24.8240
 2.0810	24.8770
 2.0820	24.9290
 2.0830	24.9790
 2.0840	25.0320
 2.0850	25.0890
 2.0860	25.1420
 2.0870	25.1970
 2.0880	25.2490
 2.0890	25.2970
 2.0900	25.3380
 2.0910	25.3850
 2.0920	25.4300
 2.0930	25.4760
 2.0940	25.5250
 2.0950	25.5730
 2.0960	25.6220
 2.0970	25.6700
 2.0980	25.7180
 2.0990	25.7650
 2.1000	25.8100
 2.1010	25.8550
 2.1020	25.8980
 2.1030	25.9420
 2.1040	25.9840
 2.1050	26.0310
 2.1060	26.0760
 2.1070	26.1230
 2.1080	26.1680
 2.1090	26.2120
 2.1100	26.2580
 2.1110	26.3040
 2.1120	26.3490
 2.1130	26.3950
 2.1140	26.4410
 2.1150	26.4870
 2.1160	26.5320
 2.1170	26.5800
 2.1180	26.6240
 2.1190	26.6650
 2.1200	26.7070
 2.1210	26.7460
 2.1220	26.7850
 2.1230	26.8260
 2.1240	26.8670
 2.1250	26.9080
 2.1260	26.9500
 2.1270	26.9920
 2.1280	27.0350
 2.1290	27.0740
 2.1300	27.1110
 2.1310	27.1490
 2.1320	27.1830
 2.1330	27.2180
 2.1340	27.2530
 2.1350	27.2860
 2.1360	27.3170
 2.1370	27.3460
 2.1380	27.3700
 2.1390	27.3970
 2.1400	27.4220
 2.1410	27.4480
 2.1420	27.4760
 2.1430	27.5070
 2.1440	27.5330
 2.1450	27.5550
 2.1460	27.5780
 2.1470	27.5980
 2.1480	27.6190
 2.1490	27.6420
 2.1500	27.6610
 2.1510	27.6730
 2.1520	27.6890
 2.1530	27.7050
 2.1540	27.7200
 2.1550	27.7390
 2.1560	27.7530
 2.1570	27.7650
 2.1580	27.7740
 2.1590	27.7800
 2.1600	27.7860
 2.1610	27.7950
 2.1620	27.8040
 2.1630	27.8140
 2.1640	27.8290
 2.1650	27.8370
 2.1660	27.8410
 2.1670	27.8490
 2.1680	27.8560
 2.1690	27.8630
 2.1700	27.8730
 2.1710	27.8810
 2.1720	27.8880
 2.1730	27.8960
 2.1740	27.9070
 2.1750	27.9160
 2.1760	27.9260
 2.1770	27.9340
 2.1780	27.9390
 2.1790	27.9450
 2.1800	27.9510
 2.1810	27.9580
 2.1820	27.9660
 2.1830	27.9760
 2.1840	27.9870
 2.1850	28.0000
 2.1860	28.0110
 2.1870	28.0220
 2.1880	28.0330
 2.1890	28.0430
 2.1900	28.0530
 2.1910	28.0650
 2.1920	28.0740
 2.1930	28.0820
 2.1940	28.0890
 2.1950	28.0930
 2.1960	28.1000
 2.1970	28.1060
 2.1980	28.1110
 2.1990	28.1180
 2.2000	28.1220
 2.2010	28.1220
 2.2020	28.1240
 2.2030	28.1280
 2.2040	28.1270
 2.2050	28.1220
 2.2060	28.1190
 2.2070	28.1170
 2.2080	28.1140
 2.2090	28.1090
 2.2100	28.1070
 2.2110	28.1010
 2.2120	28.0900
 2.2130	28.0800
 2.2140	28.0690
 2.2150	28.0600
 2.2160	28.0520
 2.2170	28.0420
 2.2180	28.0330
 2.2190	28.0200
 2.2200	28.0020
 2.2210	27.9850
 2.2220	27.9680
 2.2230	27.9490
 2.2240	27.9320
 2.2250	27.9100
 2.2260	27.8850
 2.2270	27.8580
 2.2280	27.8240
 2.2290	27.7910
 2.2300	27.7550
 2.2310	27.7200
 2.2320	27.6780
 2.2330	27.6320
 2.2340	27.5840
 2.2350	27.5320
 2.2360	27.4780
 2.2370	27.4200
 2.2380	27.3620
 2.2390	27.3000
 2.2400	27.2430
 2.2410	27.1900
 2.2420	27.1350
 2.2430	27.0810
 2.2440	27.0280
 2.2450	26.9710
 2.2460	26.9230
 2.2470	26.8800
 2.2480	26.8380
 2.2490	26.8010
 2.2500	26.7620
 2.2510	26.7230
 2.2520	26.6850
 2.2530	26.6460
 2.2540	26.6100
 2.2550	26.5780
 2.2560	26.5410
 2.2570	26.5030
 2.2580	26.4640
 2.2590	26.4200
 2.2600	26.3760
 2.2610	26.3330
 2.2620	26.2870
 2.2630	26.2370
 2.2640	26.1890
 2.2650	26.1440
 2.2660	26.1010
 2.2670	26.0580
 2.2680	26.0160
 2.2690	25.9760
 2.2700	25.9370
 2.2710	25.8950
 2.2720	25.8550
 2.2730	25.8130
 2.2740	25.7640
 2.2750	25.7250
 2.2760	25.6890
 2.2770	25.6570
 2.2780	25.6330
 2.2790	25.6050
 2.2800	25.5790
 2.2810	25.5530
 2.2820	25.5250
 2.2830	25.4960
 2.2840	25.4650
 2.2850	25.4370
 2.2860	25.4110
 2.2870	25.3820
 2.2880	25.3600
 2.2890	25.3300
 2.2900	25.2920
 2.2910	25.2540
 2.2920	25.2110
 2.2930	25.1690
 2.2940	25.1290
 2.2950	25.0820
 2.2960	25.0270
 2.2970	24.9750
 2.2980	24.9190
 2.2990	24.8620
 2.3000	24.8090
 2.3010	24.7630
 2.3020	24.7100
 2.3030	24.6560
 2.3040	24.6020
 2.3050	24.5400
 2.3060	24.4760
 2.3070	24.4220
 2.3080	24.3700
 2.3090	24.3190
 2.3100	24.2760
 2.3110	24.2360
 2.3120	24.2000
 2.3130	24.1630
 2.3140	24.1400
 2.3150	24.1310
 2.3160	24.1120
 2.3170	24.0990
 2.3180	24.0800
 2.3190	24.0510
 2.3200	24.0300
 2.3210	24.0190
 2.3220	23.9960
 2.3230	23.9660
 2.3240	23.9440
 2.3250	23.9190
 2.3260	23.8960
 2.3270	23.8850
 2.3280	23.8610
 2.3290	23.8310
 2.3300	23.7990
 2.3310	23.7580
 2.3320	23.7230
 2.3330	23.6890
 2.3340	23.6520
 2.3350	23.6220
 2.3360	23.5840
 2.3370	23.5330
 2.3380	23.4930
 2.3390	23.4570
 2.3400	23.4200
 2.3410	23.3900
 2.3420	23.3530
 2.3430	23.3070
 2.3440	23.2680
 2.3450	23.2350
 2.3460	23.1970
 2.3470	23.1580
 2.3480	23.1210
 2.3490	23.0810
 2.3500	23.0430
 2.3510	23.0060
 2.3520	22.9750
 2.3530	22.9500
 2.3540	22.9160
 2.3550	22.8940
 2.3560	22.8720
 2.3570	22.8470
 2.3580	22.8260
 2.3590	22.8030
 2.3600	22.7810
 2.3610	22.7530
 2.3620	22.7250
 2.3630	22.6970
 2.3640	22.6650
 2.3650	22.6480
 2.3660	22.6220
 2.3670	22.5800
 2.3680	22.5410
 2.3690	22.4910
 2.3700	22.4400
 2.3710	22.4070
 2.3720	22.3740
 2.3730	22.3360
 2.3740	22.2960
 2.3750	22.2560
 2.3760	22.2200
 2.3770	22.1790
 2.3780	22.1410
 2.3790	22.1060
 2.3800	22.0600
 2.3810	22.0160
 2.3820	21.9820
 2.3830	21.9440
 2.3840	21.9120
 2.3850	21.8780
 2.3860	21.8280
 2.3870	21.7750
 2.3880	21.7210
 2.3890	21.6770
 2.3900	21.6420
 2.3910	21.6050
 2.3920	21.5670
 2.3930	21.5230
 2.3940	21.4790
 2.3950	21.4390
 2.3960	21.4000
 2.3970	21.3600
 2.3980	21.3090
 2.3990	21.2650
 2.4000	21.2200
 2.4010	21.1610
 2.4020	21.1190
 2.4030	21.0750
 2.4040	21.0280
 2.4050	20.9970
 2.4060	20.9510
 2.4070	20.8940
 2.4080	20.8390
 2.4090	20.7870
 2.4100	20.7490
 2.4110	20.7110
 2.4120	20.6740
 2.4130	20.6320
 2.4140	20.5880
 2.4150	20.5600
 2.4160	20.5230
 2.4170	20.4810
 2.4180	20.4320
 2.4190	20.3670
 2.4200	20.3140
 2.4210	20.2620
 2.4220	20.2110
 2.4230	20.1720
 2.4240	20.1180
 2.4250	20.0770
 2.4260	20.0350
 2.4270	19.9740
 2.4280	19.9230
 2.4290	19.8660
 2.4300	19.8170
 2.4310	19.7820
 2.4320	19.7450
 2.4330	19.6940
 2.4340	19.6150
 2.4350	19.5250
 2.4360	19.4410
 2.4370	19.3660
 2.4380	19.3190
 2.4390	19.2930
 2.4400	19.2610
 2.4410	19.2260
 2.4420	19.1750
 2.4430	19.1140
 2.4440	19.0710
 2.4450	19.0290
 2.4460	18.9770
 2.4470	18.9220
 2.4480	18.8520
 2.4490	18.7820
 2.4500	18.7230
 2.4510	18.6630
 2.4520	18.6160
 2.4530	18.5670
 2.4540	18.5110
 2.4550	18.4600
 2.4560	18.4020
 2.4570	18.3480
 2.4580	18.3180
 2.4590	18.2990
 2.4600	18.2670
 2.4610	18.2340
 2.4620	18.1900
 2.4630	18.1400
 2.4640	18.1020
 2.4650	18.0560
 2.4660	17.9960
 2.4670	17.9470
 2.4680	17.8970
 2.4690	17.8470
 2.4700	17.7920
 2.4710	17.7180
 2.4720	17.6690
 2.4730	17.6170
 2.4740	17.5940
 2.4750	17.6140
 2.4760	17.5940
 2.4770	17.5850
 2.4780	17.5540
 2.4790	17.4850
 2.4800	17.4450
 2.4810	17.4140
 2.4820	17.3610
 2.4830	17.3290
 2.4840	17.3140
 2.4850	17.2630
 2.4860	17.2490
 2.4870	17.2480
 2.4880	17.2350
 2.4890	17.2050
 2.4900	17.1470
 2.4910	17.0870
 2.4920	17.0280
 2.4930	17.0300
 2.4940	17.0710
 2.4950	17.1060
 2.4960	17.1050
 2.4970	17.0590
 2.4980	17.0060
 2.4990	16.9590
 2.5000	16.9190
