Name: Baccharis pilularis 3
Type: vegetation
Class: Shrub
Genus: Baccharis
Species: pilularis
Sample No.: VH197
Owner: UCSB
Wavelength Range: VSWIR
Origin: 34.4185; -119.8457; WGS84
Collection Date: 10/13/2013
Description: Samples were collected as part of the HyspIRI Airborne Campaign. 48 individual plants were sampled in three times in 2013 - spring  summer  and fall. The name of the sample includes a 1  2  or 3 which references a different individual of the species. Samples were taken to JPL and processed within 48 hours of collection. The same leaves were processed in the Nicolet and then measured using the ASD.
Measurement: Bidirectional reflectance
First Column: X
Second Column: Y
X Units: Wavelength (micrometers)
Y Units: Reflectance (percentage)
First X Value: 0.35
Last X Value: 2.5
Number of X Values: 2151
Additional Information: vegetation.shrub.baccharis.pilularis.vswir.vh197.ucsb.asd.ancillary.txt

 0.3500	 4.5900
 0.3510	 4.4210
 0.3520	 4.3780
 0.3530	 4.5610
 0.3540	 4.8100
 0.3550	 4.4370
 0.3560	 4.4360
 0.3570	 4.7560
 0.3580	 4.8210
 0.3590	 4.6630
 0.3600	 4.5230
 0.3610	 4.5310
 0.3620	 4.6510
 0.3630	 4.6840
 0.3640	 4.6260
 0.3650	 4.5420
 0.3660	 4.4980
 0.3670	 4.5960
 0.3680	 4.7510
 0.3690	 4.7620
 0.3700	 4.7570
 0.3710	 4.7620
 0.3720	 4.7720
 0.3730	 4.7530
 0.3740	 4.7010
 0.3750	 4.6840
 0.3760	 4.7440
 0.3770	 4.6880
 0.3780	 4.6500
 0.3790	 4.6710
 0.3800	 4.7010
 0.3810	 4.7550
 0.3820	 4.7290
 0.3830	 4.5880
 0.3840	 4.4400
 0.3850	 4.5160
 0.3860	 4.7480
 0.3870	 4.9340
 0.3880	 4.8860
 0.3890	 4.8300
 0.3900	 4.8460
 0.3910	 4.8350
 0.3920	 4.7880
 0.3930	 4.8160
 0.3940	 4.9530
 0.3950	 4.9670
 0.3960	 4.9870
 0.3970	 5.0420
 0.3980	 5.1080
 0.3990	 5.1360
 0.4000	 5.1270
 0.4010	 5.1200
 0.4020	 5.1920
 0.4030	 5.2690
 0.4040	 5.2990
 0.4050	 5.2790
 0.4060	 5.3470
 0.4070	 5.4170
 0.4080	 5.4490
 0.4090	 5.4450
 0.4100	 5.5060
 0.4110	 5.5860
 0.4120	 5.6360
 0.4130	 5.6400
 0.4140	 5.6580
 0.4150	 5.7210
 0.4160	 5.8260
 0.4170	 5.8770
 0.4180	 5.9070
 0.4190	 5.9360
 0.4200	 5.9600
 0.4210	 6.0470
 0.4220	 6.1130
 0.4230	 6.1200
 0.4240	 6.2130
 0.4250	 6.2800
 0.4260	 6.3040
 0.4270	 6.3170
 0.4280	 6.3580
 0.4290	 6.4270
 0.4300	 6.5030
 0.4310	 6.5450
 0.4320	 6.5860
 0.4330	 6.6290
 0.4340	 6.6730
 0.4350	 6.7420
 0.4360	 6.8000
 0.4370	 6.8300
 0.4380	 6.8360
 0.4390	 6.8700
 0.4400	 6.9140
 0.4410	 6.9500
 0.4420	 6.9810
 0.4430	 7.0370
 0.4440	 7.0910
 0.4450	 7.1070
 0.4460	 7.1380
 0.4470	 7.1790
 0.4480	 7.2170
 0.4490	 7.2300
 0.4500	 7.2690
 0.4510	 7.3080
 0.4520	 7.3210
 0.4530	 7.3600
 0.4540	 7.4000
 0.4550	 7.4290
 0.4560	 7.4400
 0.4570	 7.4640
 0.4580	 7.4900
 0.4590	 7.5090
 0.4600	 7.5380
 0.4610	 7.5500
 0.4620	 7.5590
 0.4630	 7.5840
 0.4640	 7.5760
 0.4650	 7.5800
 0.4660	 7.6130
 0.4670	 7.6550
 0.4680	 7.6540
 0.4690	 7.6470
 0.4700	 7.6670
 0.4710	 7.6840
 0.4720	 7.6970
 0.4730	 7.7080
 0.4740	 7.7190
 0.4750	 7.7320
 0.4760	 7.7530
 0.4770	 7.7710
 0.4780	 7.7440
 0.4790	 7.7510
 0.4800	 7.7820
 0.4810	 7.8040
 0.4820	 7.8220
 0.4830	 7.8370
 0.4840	 7.8440
 0.4850	 7.8310
 0.4860	 7.8570
 0.4870	 7.8900
 0.4880	 7.9030
 0.4890	 7.9310
 0.4900	 7.9670
 0.4910	 7.9990
 0.4920	 8.0160
 0.4930	 8.0270
 0.4940	 8.0620
 0.4950	 8.1210
 0.4960	 8.1680
 0.4970	 8.2320
 0.4980	 8.2850
 0.4990	 8.3030
 0.5000	 8.3570
 0.5010	 8.4280
 0.5020	 8.5050
 0.5030	 8.5910
 0.5040	 8.6740
 0.5050	 8.7660
 0.5060	 8.8720
 0.5070	 8.9750
 0.5080	 9.0910
 0.5090	 9.2160
 0.5100	 9.3430
 0.5110	 9.4920
 0.5120	 9.6500
 0.5130	 9.8100
 0.5140	 9.9780
 0.5150	10.1660
 0.5160	10.3630
 0.5170	10.5560
 0.5180	10.7680
 0.5190	10.9820
 0.5200	11.1970
 0.5210	11.4180
 0.5220	11.6450
 0.5230	11.8660
 0.5240	12.0740
 0.5250	12.2740
 0.5260	12.4730
 0.5270	12.6680
 0.5280	12.8520
 0.5290	13.0200
 0.5300	13.1830
 0.5310	13.3410
 0.5320	13.4790
 0.5330	13.6010
 0.5340	13.7170
 0.5350	13.8340
 0.5360	13.9310
 0.5370	14.0260
 0.5380	14.1160
 0.5390	14.1850
 0.5400	14.2570
 0.5410	14.3250
 0.5420	14.3850
 0.5430	14.4500
 0.5440	14.5130
 0.5450	14.5770
 0.5460	14.6420
 0.5470	14.6890
 0.5480	14.7310
 0.5490	14.7780
 0.5500	14.8250
 0.5510	14.8590
 0.5520	14.8880
 0.5530	14.9190
 0.5540	14.9290
 0.5550	14.9370
 0.5560	14.9400
 0.5570	14.9210
 0.5580	14.8930
 0.5590	14.8600
 0.5600	14.8200
 0.5610	14.7600
 0.5620	14.6830
 0.5630	14.5900
 0.5640	14.4800
 0.5650	14.3740
 0.5660	14.2680
 0.5670	14.1550
 0.5680	14.0290
 0.5690	13.9090
 0.5700	13.7930
 0.5710	13.6730
 0.5720	13.5510
 0.5730	13.4390
 0.5740	13.3360
 0.5750	13.2360
 0.5760	13.1440
 0.5770	13.0560
 0.5780	12.9660
 0.5790	12.8810
 0.5800	12.7960
 0.5810	12.7120
 0.5820	12.6300
 0.5830	12.5520
 0.5840	12.4960
 0.5850	12.4650
 0.5860	12.4450
 0.5870	12.4130
 0.5880	12.3700
 0.5890	12.3230
 0.5900	12.2710
 0.5910	12.2250
 0.5920	12.1880
 0.5930	12.1560
 0.5940	12.1330
 0.5950	12.1170
 0.5960	12.1040
 0.5970	12.0920
 0.5980	12.0770
 0.5990	12.0610
 0.6000	12.0460
 0.6010	12.0160
 0.6020	11.9740
 0.6030	11.9280
 0.6040	11.8860
 0.6050	11.8370
 0.6060	11.7790
 0.6070	11.7130
 0.6080	11.6400
 0.6090	11.5670
 0.6100	11.4950
 0.6110	11.4240
 0.6120	11.3440
 0.6130	11.2660
 0.6140	11.1950
 0.6150	11.1260
 0.6160	11.0550
 0.6170	10.9890
 0.6180	10.9330
 0.6190	10.8800
 0.6200	10.8330
 0.6210	10.7940
 0.6220	10.7660
 0.6230	10.7330
 0.6240	10.7080
 0.6250	10.6970
 0.6260	10.6760
 0.6270	10.6670
 0.6280	10.6650
 0.6290	10.6620
 0.6300	10.6490
 0.6310	10.6470
 0.6320	10.6550
 0.6330	10.6470
 0.6340	10.6290
 0.6350	10.6040
 0.6360	10.5750
 0.6370	10.5400
 0.6380	10.4930
 0.6390	10.4360
 0.6400	10.3780
 0.6410	10.3170
 0.6420	10.2450
 0.6430	10.1650
 0.6440	10.0960
 0.6450	10.0180
 0.6460	 9.9360
 0.6470	 9.8580
 0.6480	 9.7800
 0.6490	 9.7090
 0.6500	 9.6450
 0.6510	 9.5870
 0.6520	 9.5350
 0.6530	 9.4810
 0.6540	 9.4210
 0.6550	 9.3640
 0.6560	 9.3010
 0.6570	 9.2300
 0.6580	 9.1530
 0.6590	 9.0750
 0.6600	 8.9920
 0.6610	 8.9090
 0.6620	 8.8330
 0.6630	 8.7580
 0.6640	 8.6870
 0.6650	 8.6230
 0.6660	 8.5680
 0.6670	 8.5220
 0.6680	 8.4840
 0.6690	 8.4510
 0.6700	 8.4300
 0.6710	 8.4150
 0.6720	 8.4030
 0.6730	 8.4030
 0.6740	 8.4030
 0.6750	 8.4080
 0.6760	 8.4230
 0.6770	 8.4430
 0.6780	 8.4620
 0.6790	 8.4860
 0.6800	 8.5250
 0.6810	 8.5700
 0.6820	 8.6250
 0.6830	 8.6940
 0.6840	 8.7850
 0.6850	 8.8950
 0.6860	 9.0270
 0.6870	 9.1870
 0.6880	 9.3940
 0.6890	 9.6410
 0.6900	 9.9320
 0.6910	10.2790
 0.6920	10.6830
 0.6930	11.1470
 0.6940	11.6680
 0.6950	12.2390
 0.6960	12.8680
 0.6970	13.5470
 0.6980	14.2660
 0.6990	15.0200
 0.7000	15.8020
 0.7010	16.6060
 0.7020	17.4280
 0.7030	18.2480
 0.7040	19.0660
 0.7050	19.8830
 0.7060	20.6940
 0.7070	21.4890
 0.7080	22.2740
 0.7090	23.0550
 0.7100	23.8080
 0.7110	24.5500
 0.7120	25.2820
 0.7130	25.9900
 0.7140	26.6800
 0.7150	27.3560
 0.7160	28.0150
 0.7170	28.6480
 0.7180	29.2640
 0.7190	29.8620
 0.7200	30.4360
 0.7210	30.9890
 0.7220	31.5190
 0.7230	32.0300
 0.7240	32.5210
 0.7250	32.9900
 0.7260	33.4300
 0.7270	33.8420
 0.7280	34.2430
 0.7290	34.6170
 0.7300	34.9660
 0.7310	35.2990
 0.7320	35.6150
 0.7330	35.9070
 0.7340	36.1790
 0.7350	36.4390
 0.7360	36.6780
 0.7370	36.9050
 0.7380	37.1240
 0.7390	37.3250
 0.7400	37.5040
 0.7410	37.6710
 0.7420	37.8330
 0.7430	37.9910
 0.7440	38.1340
 0.7450	38.2600
 0.7460	38.3670
 0.7470	38.4730
 0.7480	38.5830
 0.7490	38.6870
 0.7500	38.7630
 0.7510	38.8400
 0.7520	38.9190
 0.7530	38.9900
 0.7540	39.0670
 0.7550	39.1280
 0.7560	39.1730
 0.7570	39.2280
 0.7580	39.2740
 0.7590	39.3170
 0.7600	39.3610
 0.7610	39.4020
 0.7620	39.4360
 0.7630	39.4650
 0.7640	39.4950
 0.7650	39.5360
 0.7660	39.5750
 0.7670	39.6050
 0.7680	39.6220
 0.7690	39.6340
 0.7700	39.6580
 0.7710	39.6940
 0.7720	39.7130
 0.7730	39.7380
 0.7740	39.7620
 0.7750	39.7790
 0.7760	39.8050
 0.7770	39.8380
 0.7780	39.8660
 0.7790	39.8770
 0.7800	39.8910
 0.7810	39.9120
 0.7820	39.9390
 0.7830	39.9680
 0.7840	39.9720
 0.7850	39.9890
 0.7860	40.0320
 0.7870	40.0440
 0.7880	40.0480
 0.7890	40.0660
 0.7900	40.1030
 0.7910	40.1220
 0.7920	40.1490
 0.7930	40.1850
 0.7940	40.2090
 0.7950	40.2230
 0.7960	40.2340
 0.7970	40.2530
 0.7980	40.2830
 0.7990	40.3120
 0.8000	40.3300
 0.8010	40.3390
 0.8020	40.3750
 0.8030	40.4010
 0.8040	40.4120
 0.8050	40.4240
 0.8060	40.4600
 0.8070	40.4960
 0.8080	40.5200
 0.8090	40.5340
 0.8100	40.5590
 0.8110	40.5890
 0.8120	40.6150
 0.8130	40.6320
 0.8140	40.6500
 0.8150	40.6780
 0.8160	40.7170
 0.8170	40.7460
 0.8180	40.7580
 0.8190	40.7690
 0.8200	40.8020
 0.8210	40.8340
 0.8220	40.8580
 0.8230	40.8820
 0.8240	40.9260
 0.8250	40.9370
 0.8260	40.9450
 0.8270	40.9710
 0.8280	40.9980
 0.8290	41.0170
 0.8300	41.0270
 0.8310	41.0360
 0.8320	41.0750
 0.8330	41.1110
 0.8340	41.1420
 0.8350	41.1740
 0.8360	41.1850
 0.8370	41.2040
 0.8380	41.2320
 0.8390	41.2440
 0.8400	41.2680
 0.8410	41.2960
 0.8420	41.3250
 0.8430	41.3700
 0.8440	41.3790
 0.8450	41.3810
 0.8460	41.4030
 0.8470	41.4380
 0.8480	41.4560
 0.8490	41.4760
 0.8500	41.5160
 0.8510	41.5300
 0.8520	41.5470
 0.8530	41.5700
 0.8540	41.5880
 0.8550	41.6220
 0.8560	41.6390
 0.8570	41.6460
 0.8580	41.6870
 0.8590	41.7130
 0.8600	41.7260
 0.8610	41.7350
 0.8620	41.7440
 0.8630	41.7730
 0.8640	41.8020
 0.8650	41.8170
 0.8660	41.8380
 0.8670	41.8630
 0.8680	41.8830
 0.8690	41.8910
 0.8700	41.9100
 0.8710	41.9370
 0.8720	41.9680
 0.8730	41.9920
 0.8740	41.9850
 0.8750	41.9940
 0.8760	42.0290
 0.8770	42.0580
 0.8780	42.0540
 0.8790	42.0630
 0.8800	42.1000
 0.8810	42.1290
 0.8820	42.1330
 0.8830	42.1430
 0.8840	42.1760
 0.8850	42.1940
 0.8860	42.1910
 0.8870	42.2020
 0.8880	42.2480
 0.8890	42.2660
 0.8900	42.2590
 0.8910	42.2600
 0.8920	42.3010
 0.8930	42.3350
 0.8940	42.3490
 0.8950	42.3590
 0.8960	42.3920
 0.8970	42.3970
 0.8980	42.3940
 0.8990	42.4070
 0.9000	42.4500
 0.9010	42.4620
 0.9020	42.4780
 0.9030	42.5100
 0.9040	42.5260
 0.9050	42.5250
 0.9060	42.5140
 0.9070	42.5110
 0.9080	42.5430
 0.9090	42.5660
 0.9100	42.5860
 0.9110	42.6110
 0.9120	42.6240
 0.9130	42.6310
 0.9140	42.6380
 0.9150	42.6500
 0.9160	42.6610
 0.9170	42.6830
 0.9180	42.7050
 0.9190	42.7140
 0.9200	42.7330
 0.9210	42.7450
 0.9220	42.7430
 0.9230	42.7310
 0.9240	42.7550
 0.9250	42.7780
 0.9260	42.7860
 0.9270	42.7920
 0.9280	42.8120
 0.9290	42.8360
 0.9300	42.8430
 0.9310	42.8120
 0.9320	42.7930
 0.9330	42.7930
 0.9340	42.8090
 0.9350	42.8300
 0.9360	42.8390
 0.9370	42.8560
 0.9380	42.8740
 0.9390	42.8420
 0.9400	42.8150
 0.9410	42.8090
 0.9420	42.8150
 0.9430	42.8000
 0.9440	42.8230
 0.9450	42.8260
 0.9460	42.7760
 0.9470	42.7490
 0.9480	42.7460
 0.9490	42.7480
 0.9500	42.7340
 0.9510	42.7010
 0.9520	42.6640
 0.9530	42.6350
 0.9540	42.6160
 0.9550	42.5950
 0.9560	42.5460
 0.9570	42.4930
 0.9580	42.4710
 0.9590	42.4870
 0.9600	42.4710
 0.9610	42.4460
 0.9620	42.4540
 0.9630	42.4610
 0.9640	42.4400
 0.9650	42.4140
 0.9660	42.4150
 0.9670	42.4240
 0.9680	42.4340
 0.9690	42.4430
 0.9700	42.4490
 0.9710	42.4510
 0.9720	42.4430
 0.9730	42.4430
 0.9740	42.4680
 0.9750	42.4700
 0.9760	42.4980
 0.9770	42.5360
 0.9780	42.5500
 0.9790	42.5690
 0.9800	42.5520
 0.9810	42.5380
 0.9820	42.5810
 0.9830	42.6110
 0.9840	42.6190
 0.9850	42.6430
 0.9860	42.7130
 0.9870	42.7120
 0.9880	42.7280
 0.9890	42.7550
 0.9900	42.7530
 0.9910	42.7740
 0.9920	42.8260
 0.9930	42.8770
 0.9940	42.9290
 0.9950	42.9800
 0.9960	43.0310
 0.9970	43.0830
 0.9980	43.1340
 0.9990	43.1850
 1.0000	43.2370
 1.0010	43.2880
 1.0020	43.3400
 1.0030	43.3910
 1.0040	43.4420
 1.0050	43.4940
 1.0060	43.5450
 1.0070	43.5970
 1.0080	43.6480
 1.0090	43.6990
 1.0100	43.6990
 1.0110	43.7280
 1.0120	43.7530
 1.0130	43.7620
 1.0140	43.7880
 1.0150	43.8190
 1.0160	43.8690
 1.0170	43.9150
 1.0180	43.9380
 1.0190	43.9530
 1.0200	43.9620
 1.0210	43.9680
 1.0220	43.9960
 1.0230	44.0240
 1.0240	44.0700
 1.0250	44.0950
 1.0260	44.1110
 1.0270	44.1360
 1.0280	44.1560
 1.0290	44.1820
 1.0300	44.2330
 1.0310	44.2590
 1.0320	44.2750
 1.0330	44.2760
 1.0340	44.3020
 1.0350	44.3200
 1.0360	44.3410
 1.0370	44.3810
 1.0380	44.4080
 1.0390	44.4200
 1.0400	44.4430
 1.0410	44.4740
 1.0420	44.5000
 1.0430	44.5250
 1.0440	44.5470
 1.0450	44.5670
 1.0460	44.5860
 1.0470	44.6060
 1.0480	44.6190
 1.0490	44.6220
 1.0500	44.6350
 1.0510	44.6460
 1.0520	44.6630
 1.0530	44.6770
 1.0540	44.6980
 1.0550	44.7160
 1.0560	44.7340
 1.0570	44.7450
 1.0580	44.7550
 1.0590	44.7680
 1.0600	44.7780
 1.0610	44.7870
 1.0620	44.8030
 1.0630	44.8130
 1.0640	44.8100
 1.0650	44.8170
 1.0660	44.8350
 1.0670	44.8440
 1.0680	44.8520
 1.0690	44.8620
 1.0700	44.8680
 1.0710	44.8670
 1.0720	44.8690
 1.0730	44.8710
 1.0740	44.8760
 1.0750	44.8830
 1.0760	44.8870
 1.0770	44.8930
 1.0780	44.8990
 1.0790	44.9010
 1.0800	44.9040
 1.0810	44.9120
 1.0820	44.9140
 1.0830	44.9100
 1.0840	44.9100
 1.0850	44.9120
 1.0860	44.9110
 1.0870	44.9080
 1.0880	44.9050
 1.0890	44.9030
 1.0900	44.8970
 1.0910	44.8940
 1.0920	44.8940
 1.0930	44.8910
 1.0940	44.8830
 1.0950	44.8770
 1.0960	44.8680
 1.0970	44.8630
 1.0980	44.8570
 1.0990	44.8530
 1.1000	44.8530
 1.1010	44.8510
 1.1020	44.8460
 1.1030	44.8510
 1.1040	44.8470
 1.1050	44.8350
 1.1060	44.8320
 1.1070	44.8310
 1.1080	44.8240
 1.1090	44.8220
 1.1100	44.8110
 1.1110	44.7900
 1.1120	44.7760
 1.1130	44.7620
 1.1140	44.7480
 1.1150	44.7290
 1.1160	44.7170
 1.1170	44.7100
 1.1180	44.7010
 1.1190	44.6960
 1.1200	44.6890
 1.1210	44.6780
 1.1220	44.6650
 1.1230	44.6450
 1.1240	44.6170
 1.1250	44.5840
 1.1260	44.5400
 1.1270	44.4990
 1.1280	44.4570
 1.1290	44.4060
 1.1300	44.3520
 1.1310	44.2920
 1.1320	44.2280
 1.1330	44.1550
 1.1340	44.0730
 1.1350	43.9930
 1.1360	43.9100
 1.1370	43.8210
 1.1380	43.7280
 1.1390	43.6360
 1.1400	43.5440
 1.1410	43.4460
 1.1420	43.3460
 1.1430	43.2470
 1.1440	43.1410
 1.1450	43.0190
 1.1460	42.9140
 1.1470	42.8120
 1.1480	42.7120
 1.1490	42.6200
 1.1500	42.5280
 1.1510	42.4300
 1.1520	42.3470
 1.1530	42.2690
 1.1540	42.2010
 1.1550	42.1420
 1.1560	42.0920
 1.1570	42.0420
 1.1580	41.9940
 1.1590	41.9530
 1.1600	41.9190
 1.1610	41.8910
 1.1620	41.8690
 1.1630	41.8530
 1.1640	41.8360
 1.1650	41.8170
 1.1660	41.7990
 1.1670	41.7830
 1.1680	41.7630
 1.1690	41.7490
 1.1700	41.7420
 1.1710	41.7300
 1.1720	41.7140
 1.1730	41.7020
 1.1740	41.6900
 1.1750	41.6780
 1.1760	41.6730
 1.1770	41.6660
 1.1780	41.6580
 1.1790	41.6550
 1.1800	41.6490
 1.1810	41.6400
 1.1820	41.6290
 1.1830	41.6130
 1.1840	41.5960
 1.1850	41.5820
 1.1860	41.5700
 1.1870	41.5660
 1.1880	41.5630
 1.1890	41.5640
 1.1900	41.5630
 1.1910	41.5640
 1.1920	41.5640
 1.1930	41.5630
 1.1940	41.5630
 1.1950	41.5630
 1.1960	41.5630
 1.1970	41.5670
 1.1980	41.5830
 1.1990	41.6030
 1.2000	41.6240
 1.2010	41.6480
 1.2020	41.6690
 1.2030	41.6830
 1.2040	41.7020
 1.2050	41.7220
 1.2060	41.7440
 1.2070	41.7750
 1.2080	41.8060
 1.2090	41.8350
 1.2100	41.8690
 1.2110	41.8980
 1.2120	41.9230
 1.2130	41.9530
 1.2140	41.9790
 1.2150	42.0090
 1.2160	42.0460
 1.2170	42.0820
 1.2180	42.1140
 1.2190	42.1540
 1.2200	42.1890
 1.2210	42.2200
 1.2220	42.2580
 1.2230	42.2910
 1.2240	42.3250
 1.2250	42.3590
 1.2260	42.3880
 1.2270	42.4220
 1.2280	42.4530
 1.2290	42.4800
 1.2300	42.5100
 1.2310	42.5380
 1.2320	42.5640
 1.2330	42.5950
 1.2340	42.6260
 1.2350	42.6590
 1.2360	42.6850
 1.2370	42.7090
 1.2380	42.7350
 1.2390	42.7560
 1.2400	42.7740
 1.2410	42.8040
 1.2420	42.8290
 1.2430	42.8490
 1.2440	42.8710
 1.2450	42.8870
 1.2460	42.9030
 1.2470	42.9170
 1.2480	42.9340
 1.2490	42.9590
 1.2500	42.9750
 1.2510	42.9910
 1.2520	43.0100
 1.2530	43.0270
 1.2540	43.0440
 1.2550	43.0610
 1.2560	43.0770
 1.2570	43.0900
 1.2580	43.1030
 1.2590	43.1150
 1.2600	43.1250
 1.2610	43.1350
 1.2620	43.1430
 1.2630	43.1510
 1.2640	43.1540
 1.2650	43.1600
 1.2660	43.1640
 1.2670	43.1640
 1.2680	43.1670
 1.2690	43.1730
 1.2700	43.1750
 1.2710	43.1790
 1.2720	43.1860
 1.2730	43.1890
 1.2740	43.1940
 1.2750	43.2000
 1.2760	43.2000
 1.2770	43.1950
 1.2780	43.1830
 1.2790	43.1710
 1.2800	43.1650
 1.2810	43.1580
 1.2820	43.1510
 1.2830	43.1420
 1.2840	43.1250
 1.2850	43.1070
 1.2860	43.0870
 1.2870	43.0700
 1.2880	43.0550
 1.2890	43.0400
 1.2900	43.0200
 1.2910	42.9990
 1.2920	42.9730
 1.2930	42.9440
 1.2940	42.9150
 1.2950	42.8850
 1.2960	42.8540
 1.2970	42.8220
 1.2980	42.7890
 1.2990	42.7540
 1.3000	42.7150
 1.3010	42.6690
 1.3020	42.6200
 1.3030	42.5680
 1.3040	42.5160
 1.3050	42.4630
 1.3060	42.4030
 1.3070	42.3370
 1.3080	42.2670
 1.3090	42.1960
 1.3100	42.1250
 1.3110	42.0550
 1.3120	41.9860
 1.3130	41.9130
 1.3140	41.8390
 1.3150	41.7640
 1.3160	41.6850
 1.3170	41.6040
 1.3180	41.5190
 1.3190	41.4320
 1.3200	41.3420
 1.3210	41.2480
 1.3220	41.1570
 1.3230	41.0560
 1.3240	40.9570
 1.3250	40.8600
 1.3260	40.7550
 1.3270	40.6570
 1.3280	40.5490
 1.3290	40.4330
 1.3300	40.3210
 1.3310	40.1980
 1.3320	40.0750
 1.3330	39.9540
 1.3340	39.8300
 1.3350	39.7090
 1.3360	39.5960
 1.3370	39.4840
 1.3380	39.3700
 1.3390	39.2520
 1.3400	39.1300
 1.3410	39.0110
 1.3420	38.8950
 1.3430	38.7810
 1.3440	38.6660
 1.3450	38.5520
 1.3460	38.4370
 1.3470	38.3240
 1.3480	38.2120
 1.3490	38.1010
 1.3500	37.9910
 1.3510	37.8800
 1.3520	37.7720
 1.3530	37.6650
 1.3540	37.5570
 1.3550	37.4470
 1.3560	37.3360
 1.3570	37.2240
 1.3580	37.1090
 1.3590	36.9950
 1.3600	36.8770
 1.3610	36.7530
 1.3620	36.6240
 1.3630	36.4880
 1.3640	36.3510
 1.3650	36.2080
 1.3660	36.0610
 1.3670	35.9070
 1.3680	35.7410
 1.3690	35.5590
 1.3700	35.3670
 1.3710	35.1650
 1.3720	34.9480
 1.3730	34.7180
 1.3740	34.4740
 1.3750	34.2110
 1.3760	33.9290
 1.3770	33.6290
 1.3780	33.3070
 1.3790	32.9630
 1.3800	32.6010
 1.3810	32.2140
 1.3820	31.8110
 1.3830	31.3920
 1.3840	30.9530
 1.3850	30.4920
 1.3860	30.0190
 1.3870	29.5210
 1.3880	29.0230
 1.3890	28.5140
 1.3900	27.9970
 1.3910	27.4810
 1.3920	26.9600
 1.3930	26.4330
 1.3940	25.9100
 1.3950	25.3850
 1.3960	24.8690
 1.3970	24.3640
 1.3980	23.8710
 1.3990	23.3990
 1.4000	22.9360
 1.4010	22.4880
 1.4020	22.0590
 1.4030	21.6420
 1.4040	21.2450
 1.4050	20.8720
 1.4060	20.5160
 1.4070	20.1850
 1.4080	19.8750
 1.4090	19.5790
 1.4100	19.3030
 1.4110	19.0460
 1.4120	18.8070
 1.4130	18.5850
 1.4140	18.3820
 1.4150	18.1940
 1.4160	18.0170
 1.4170	17.8560
 1.4180	17.7080
 1.4190	17.5680
 1.4200	17.4430
 1.4210	17.3280
 1.4220	17.2210
 1.4230	17.1240
 1.4240	17.0370
 1.4250	16.9570
 1.4260	16.8850
 1.4270	16.8190
 1.4280	16.7600
 1.4290	16.7080
 1.4300	16.6640
 1.4310	16.6230
 1.4320	16.5890
 1.4330	16.5570
 1.4340	16.5250
 1.4350	16.5010
 1.4360	16.4820
 1.4370	16.4660
 1.4380	16.4540
 1.4390	16.4460
 1.4400	16.4390
 1.4410	16.4350
 1.4420	16.4380
 1.4430	16.4430
 1.4440	16.4500
 1.4450	16.4580
 1.4460	16.4660
 1.4470	16.4780
 1.4480	16.4920
 1.4490	16.5080
 1.4500	16.5260
 1.4510	16.5430
 1.4520	16.5600
 1.4530	16.5780
 1.4540	16.5990
 1.4550	16.6220
 1.4560	16.6440
 1.4570	16.6700
 1.4580	16.7000
 1.4590	16.7300
 1.4600	16.7660
 1.4610	16.8080
 1.4620	16.8540
 1.4630	16.9040
 1.4640	16.9580
 1.4650	17.0130
 1.4660	17.0760
 1.4670	17.1450
 1.4680	17.2210
 1.4690	17.2990
 1.4700	17.3760
 1.4710	17.4560
 1.4720	17.5380
 1.4730	17.6240
 1.4740	17.7180
 1.4750	17.8160
 1.4760	17.9170
 1.4770	18.0200
 1.4780	18.1250
 1.4790	18.2300
 1.4800	18.3340
 1.4810	18.4440
 1.4820	18.5560
 1.4830	18.6650
 1.4840	18.7770
 1.4850	18.8900
 1.4860	19.0000
 1.4870	19.1150
 1.4880	19.2320
 1.4890	19.3480
 1.4900	19.4660
 1.4910	19.5860
 1.4920	19.7050
 1.4930	19.8240
 1.4940	19.9450
 1.4950	20.0670
 1.4960	20.1890
 1.4970	20.3130
 1.4980	20.4360
 1.4990	20.5600
 1.5000	20.6820
 1.5010	20.8030
 1.5020	20.9240
 1.5030	21.0440
 1.5040	21.1650
 1.5050	21.2860
 1.5060	21.4080
 1.5070	21.5290
 1.5080	21.6510
 1.5090	21.7730
 1.5100	21.8950
 1.5110	22.0160
 1.5120	22.1380
 1.5130	22.2590
 1.5140	22.3780
 1.5150	22.4950
 1.5160	22.6080
 1.5170	22.7200
 1.5180	22.8370
 1.5190	22.9550
 1.5200	23.0710
 1.5210	23.1870
 1.5220	23.3000
 1.5230	23.4130
 1.5240	23.5260
 1.5250	23.6360
 1.5260	23.7430
 1.5270	23.8490
 1.5280	23.9530
 1.5290	24.0590
 1.5300	24.1640
 1.5310	24.2680
 1.5320	24.3720
 1.5330	24.4750
 1.5340	24.5790
 1.5350	24.6860
 1.5360	24.7900
 1.5370	24.8890
 1.5380	24.9910
 1.5390	25.0890
 1.5400	25.1850
 1.5410	25.2850
 1.5420	25.3790
 1.5430	25.4700
 1.5440	25.5630
 1.5450	25.6530
 1.5460	25.7460
 1.5470	25.8440
 1.5480	25.9360
 1.5490	26.0310
 1.5500	26.1260
 1.5510	26.2170
 1.5520	26.3070
 1.5530	26.3930
 1.5540	26.4750
 1.5550	26.5540
 1.5560	26.6370
 1.5570	26.7210
 1.5580	26.8000
 1.5590	26.8830
 1.5600	26.9660
 1.5610	27.0470
 1.5620	27.1330
 1.5630	27.2140
 1.5640	27.2900
 1.5650	27.3710
 1.5660	27.4480
 1.5670	27.5230
 1.5680	27.5980
 1.5690	27.6660
 1.5700	27.7360
 1.5710	27.8100
 1.5720	27.8830
 1.5730	27.9590
 1.5740	28.0370
 1.5750	28.1100
 1.5760	28.1830
 1.5770	28.2550
 1.5780	28.3220
 1.5790	28.3910
 1.5800	28.4620
 1.5810	28.5290
 1.5820	28.5950
 1.5830	28.6600
 1.5840	28.7220
 1.5850	28.7860
 1.5860	28.8480
 1.5870	28.9150
 1.5880	28.9830
 1.5890	29.0470
 1.5900	29.1120
 1.5910	29.1760
 1.5920	29.2400
 1.5930	29.3050
 1.5940	29.3670
 1.5950	29.4260
 1.5960	29.4830
 1.5970	29.5400
 1.5980	29.5980
 1.5990	29.6540
 1.6000	29.7040
 1.6010	29.7550
 1.6020	29.8100
 1.6030	29.8630
 1.6040	29.9200
 1.6050	29.9810
 1.6060	30.0340
 1.6070	30.0880
 1.6080	30.1440
 1.6090	30.1930
 1.6100	30.2420
 1.6110	30.2920
 1.6120	30.3370
 1.6130	30.3820
 1.6140	30.4320
 1.6150	30.4800
 1.6160	30.5300
 1.6170	30.5780
 1.6180	30.6160
 1.6190	30.6530
 1.6200	30.6900
 1.6210	30.7240
 1.6220	30.7590
 1.6230	30.7930
 1.6240	30.8210
 1.6250	30.8500
 1.6260	30.8770
 1.6270	30.9030
 1.6280	30.9310
 1.6290	30.9580
 1.6300	30.9860
 1.6310	31.0150
 1.6320	31.0430
 1.6330	31.0720
 1.6340	31.1040
 1.6350	31.1350
 1.6360	31.1670
 1.6370	31.1970
 1.6380	31.2260
 1.6390	31.2530
 1.6400	31.2780
 1.6410	31.3040
 1.6420	31.3300
 1.6430	31.3560
 1.6440	31.3860
 1.6450	31.4100
 1.6460	31.4290
 1.6470	31.4400
 1.6480	31.4460
 1.6490	31.4540
 1.6500	31.4620
 1.6510	31.4640
 1.6520	31.4630
 1.6530	31.4600
 1.6540	31.4500
 1.6550	31.4410
 1.6560	31.4340
 1.6570	31.4250
 1.6580	31.4100
 1.6590	31.3920
 1.6600	31.3750
 1.6610	31.3570
 1.6620	31.3390
 1.6630	31.3230
 1.6640	31.3050
 1.6650	31.2840
 1.6660	31.2610
 1.6670	31.2390
 1.6680	31.2170
 1.6690	31.1880
 1.6700	31.1620
 1.6710	31.1400
 1.6720	31.1100
 1.6730	31.0830
 1.6740	31.0490
 1.6750	31.0060
 1.6760	30.9680
 1.6770	30.9270
 1.6780	30.8790
 1.6790	30.8320
 1.6800	30.7820
 1.6810	30.7270
 1.6820	30.6740
 1.6830	30.6180
 1.6840	30.5550
 1.6850	30.4940
 1.6860	30.4310
 1.6870	30.3650
 1.6880	30.3000
 1.6890	30.2320
 1.6900	30.1700
 1.6910	30.1140
 1.6920	30.0570
 1.6930	30.0020
 1.6940	29.9470
 1.6950	29.8930
 1.6960	29.8400
 1.6970	29.7900
 1.6980	29.7390
 1.6990	29.6900
 1.7000	29.6390
 1.7010	29.5880
 1.7020	29.5370
 1.7030	29.4860
 1.7040	29.4340
 1.7050	29.3830
 1.7060	29.3320
 1.7070	29.2800
 1.7080	29.2280
 1.7090	29.1760
 1.7100	29.1240
 1.7110	29.0710
 1.7120	29.0180
 1.7130	28.9650
 1.7140	28.9120
 1.7150	28.8640
 1.7160	28.8180
 1.7170	28.7740
 1.7180	28.7400
 1.7190	28.6980
 1.7200	28.6610
 1.7210	28.6320
 1.7220	28.5990
 1.7230	28.5710
 1.7240	28.5460
 1.7250	28.5130
 1.7260	28.4760
 1.7270	28.4430
 1.7280	28.4140
 1.7290	28.3880
 1.7300	28.3680
 1.7310	28.3460
 1.7320	28.3230
 1.7330	28.3010
 1.7340	28.2820
 1.7350	28.2580
 1.7360	28.2300
 1.7370	28.2050
 1.7380	28.1790
 1.7390	28.1530
 1.7400	28.1340
 1.7410	28.1040
 1.7420	28.0660
 1.7430	28.0290
 1.7440	27.9900
 1.7450	27.9460
 1.7460	27.9010
 1.7470	27.8510
 1.7480	27.7900
 1.7490	27.7370
 1.7500	27.6880
 1.7510	27.6340
 1.7520	27.5780
 1.7530	27.5260
 1.7540	27.4740
 1.7550	27.4240
 1.7560	27.3730
 1.7570	27.3220
 1.7580	27.2700
 1.7590	27.2240
 1.7600	27.1780
 1.7610	27.1340
 1.7620	27.0900
 1.7630	27.0430
 1.7640	27.0040
 1.7650	26.9700
 1.7660	26.9340
 1.7670	26.9030
 1.7680	26.8710
 1.7690	26.8370
 1.7700	26.8050
 1.7710	26.7760
 1.7720	26.7490
 1.7730	26.7220
 1.7740	26.7000
 1.7750	26.6860
 1.7760	26.6680
 1.7770	26.6530
 1.7780	26.6320
 1.7790	26.6020
 1.7800	26.5860
 1.7810	26.5720
 1.7820	26.5600
 1.7830	26.5580
 1.7840	26.5510
 1.7850	26.5420
 1.7860	26.5340
 1.7870	26.5270
 1.7880	26.5210
 1.7890	26.5180
 1.7900	26.5210
 1.7910	26.5210
 1.7920	26.5190
 1.7930	26.5190
 1.7940	26.5170
 1.7950	26.5180
 1.7960	26.5190
 1.7970	26.5250
 1.7980	26.5380
 1.7990	26.5480
 1.8000	26.5590
 1.8010	26.5720
 1.8020	26.5870
 1.8030	26.5950
 1.8040	26.6030
 1.8050	26.6100
 1.8060	26.6080
 1.8070	26.6110
 1.8080	26.6180
 1.8090	26.6240
 1.8100	26.6260
 1.8110	26.6400
 1.8120	26.6500
 1.8130	26.6590
 1.8140	26.6740
 1.8150	26.6790
 1.8160	26.6900
 1.8170	26.6960
 1.8180	26.6920
 1.8190	26.6840
 1.8200	26.6840
 1.8210	26.6930
 1.8220	26.6950
 1.8230	26.7020
 1.8240	26.6990
 1.8250	26.6820
 1.8260	26.6760
 1.8270	26.7200
 1.8280	26.7630
 1.8290	26.8060
 1.8300	26.8500
 1.8310	26.8930
 1.8320	26.9360
 1.8330	26.9800
 1.8340	27.0230
 1.8350	27.0230
 1.8360	26.9780
 1.8370	26.9390
 1.8380	26.8870
 1.8390	26.8310
 1.8400	26.7690
 1.8410	26.7030
 1.8420	26.6350
 1.8430	26.5540
 1.8440	26.4690
 1.8450	26.3850
 1.8460	26.2840
 1.8470	26.1870
 1.8480	26.0880
 1.8490	25.9580
 1.8500	25.8240
 1.8510	25.6830
 1.8520	25.5320
 1.8530	25.3570
 1.8540	25.1830
 1.8550	24.9990
 1.8560	24.7920
 1.8570	24.5840
 1.8580	24.3660
 1.8590	24.1260
 1.8600	23.8690
 1.8610	23.5980
 1.8620	23.3120
 1.8630	23.0120
 1.8640	22.6970
 1.8650	22.3670
 1.8660	22.0240
 1.8670	21.6630
 1.8680	21.2830
 1.8690	20.8890
 1.8700	20.4840
 1.8710	20.0640
 1.8720	19.6320
 1.8730	19.1900
 1.8740	18.7410
 1.8750	18.2850
 1.8760	17.8080
 1.8770	17.3370
 1.8780	16.8700
 1.8790	16.3850
 1.8800	15.9150
 1.8810	15.4530
 1.8820	14.9870
 1.8830	14.5280
 1.8840	14.0910
 1.8850	13.6550
 1.8860	13.2360
 1.8870	12.8360
 1.8880	12.4480
 1.8890	12.0700
 1.8900	11.7100
 1.8910	11.3730
 1.8920	11.0540
 1.8930	10.7510
 1.8940	10.4690
 1.8950	10.2090
 1.8960	 9.9620
 1.8970	 9.7310
 1.8980	 9.5330
 1.8990	 9.3640
 1.9000	 9.1970
 1.9010	 9.0460
 1.9020	 8.9030
 1.9030	 8.7690
 1.9040	 8.6370
 1.9050	 8.5220
 1.9060	 8.4340
 1.9070	 8.3570
 1.9080	 8.2860
 1.9090	 8.2210
 1.9100	 8.1580
 1.9110	 8.1060
 1.9120	 8.0630
 1.9130	 8.0220
 1.9140	 7.9940
 1.9150	 7.9620
 1.9160	 7.9250
 1.9170	 7.8990
 1.9180	 7.8740
 1.9190	 7.8530
 1.9200	 7.8410
 1.9210	 7.8290
 1.9220	 7.8200
 1.9230	 7.8180
 1.9240	 7.8170
 1.9250	 7.8230
 1.9260	 7.8110
 1.9270	 7.8100
 1.9280	 7.8120
 1.9290	 7.8050
 1.9300	 7.8140
 1.9310	 7.8310
 1.9320	 7.8410
 1.9330	 7.8550
 1.9340	 7.8770
 1.9350	 7.8930
 1.9360	 7.9070
 1.9370	 7.9220
 1.9380	 7.9300
 1.9390	 7.9530
 1.9400	 7.9790
 1.9410	 8.0010
 1.9420	 8.0310
 1.9430	 8.0560
 1.9440	 8.0820
 1.9450	 8.1040
 1.9460	 8.1290
 1.9470	 8.1610
 1.9480	 8.1910
 1.9490	 8.2140
 1.9500	 8.2490
 1.9510	 8.2840
 1.9520	 8.3070
 1.9530	 8.3420
 1.9540	 8.3730
 1.9550	 8.4100
 1.9560	 8.4540
 1.9570	 8.4940
 1.9580	 8.5370
 1.9590	 8.5750
 1.9600	 8.6020
 1.9610	 8.6410
 1.9620	 8.6830
 1.9630	 8.7270
 1.9640	 8.7760
 1.9650	 8.8230
 1.9660	 8.8640
 1.9670	 8.9060
 1.9680	 8.9490
 1.9690	 8.9930
 1.9700	 9.0360
 1.9710	 9.0830
 1.9720	 9.1270
 1.9730	 9.1650
 1.9740	 9.2160
 1.9750	 9.2610
 1.9760	 9.2930
 1.9770	 9.3410
 1.9780	 9.3860
 1.9790	 9.4380
 1.9800	 9.5040
 1.9810	 9.5590
 1.9820	 9.6070
 1.9830	 9.6670
 1.9840	 9.7320
 1.9850	 9.7960
 1.9860	 9.8710
 1.9870	 9.9350
 1.9880	 9.9980
 1.9890	10.0580
 1.9900	10.1140
 1.9910	10.1780
 1.9920	10.2360
 1.9930	10.2870
 1.9940	10.3480
 1.9950	10.4160
 1.9960	10.4770
 1.9970	10.5420
 1.9980	10.6000
 1.9990	10.6490
 2.0000	10.6970
 2.0010	10.7510
 2.0020	10.8120
 2.0030	10.8790
 2.0040	10.9470
 2.0050	11.0070
 2.0060	11.0620
 2.0070	11.1190
 2.0080	11.1710
 2.0090	11.2280
 2.0100	11.2950
 2.0110	11.3510
 2.0120	11.4010
 2.0130	11.4500
 2.0140	11.4990
 2.0150	11.5460
 2.0160	11.6040
 2.0170	11.6670
 2.0180	11.7190
 2.0190	11.7640
 2.0200	11.8180
 2.0210	11.8690
 2.0220	11.9260
 2.0230	11.9990
 2.0240	12.0560
 2.0250	12.1060
 2.0260	12.1560
 2.0270	12.1950
 2.0280	12.2490
 2.0290	12.2960
 2.0300	12.3490
 2.0310	12.3980
 2.0320	12.4460
 2.0330	12.4960
 2.0340	12.5500
 2.0350	12.5970
 2.0360	12.6420
 2.0370	12.6840
 2.0380	12.7160
 2.0390	12.7570
 2.0400	12.8040
 2.0410	12.8450
 2.0420	12.8810
 2.0430	12.9210
 2.0440	12.9620
 2.0450	13.0020
 2.0460	13.0400
 2.0470	13.0840
 2.0480	13.1210
 2.0490	13.1500
 2.0500	13.1820
 2.0510	13.2080
 2.0520	13.2440
 2.0530	13.2850
 2.0540	13.3240
 2.0550	13.3650
 2.0560	13.4110
 2.0570	13.4590
 2.0580	13.5030
 2.0590	13.5510
 2.0600	13.6100
 2.0610	13.6560
 2.0620	13.6940
 2.0630	13.7350
 2.0640	13.7720
 2.0650	13.8120
 2.0660	13.8480
 2.0670	13.8910
 2.0680	13.9420
 2.0690	13.9880
 2.0700	14.0450
 2.0710	14.0860
 2.0720	14.1110
 2.0730	14.1360
 2.0740	14.1690
 2.0750	14.1940
 2.0760	14.2330
 2.0770	14.2860
 2.0780	14.3350
 2.0790	14.3860
 2.0800	14.4380
 2.0810	14.4980
 2.0820	14.5460
 2.0830	14.5850
 2.0840	14.6290
 2.0850	14.6710
 2.0860	14.7100
 2.0870	14.7570
 2.0880	14.7970
 2.0890	14.8270
 2.0900	14.8420
 2.0910	14.8780
 2.0920	14.9160
 2.0930	14.9530
 2.0940	15.0030
 2.0950	15.0410
 2.0960	15.0640
 2.0970	15.1010
 2.0980	15.1430
 2.0990	15.1860
 2.1000	15.2350
 2.1010	15.2810
 2.1020	15.3290
 2.1030	15.3730
 2.1040	15.4140
 2.1050	15.4540
 2.1060	15.4910
 2.1070	15.5220
 2.1080	15.5630
 2.1090	15.6080
 2.1100	15.6480
 2.1110	15.6930
 2.1120	15.7340
 2.1130	15.7720
 2.1140	15.8080
 2.1150	15.8380
 2.1160	15.8740
 2.1170	15.9060
 2.1180	15.9420
 2.1190	15.9930
 2.1200	16.0260
 2.1210	16.0420
 2.1220	16.0650
 2.1230	16.0910
 2.1240	16.1110
 2.1250	16.1360
 2.1260	16.1670
 2.1270	16.2020
 2.1280	16.2420
 2.1290	16.2710
 2.1300	16.3070
 2.1310	16.3370
 2.1320	16.3490
 2.1330	16.3720
 2.1340	16.4090
 2.1350	16.4350
 2.1360	16.4560
 2.1370	16.4800
 2.1380	16.4980
 2.1390	16.5200
 2.1400	16.5490
 2.1410	16.5710
 2.1420	16.5930
 2.1430	16.6150
 2.1440	16.6360
 2.1450	16.6500
 2.1460	16.6750
 2.1470	16.7070
 2.1480	16.7340
 2.1490	16.7650
 2.1500	16.7890
 2.1510	16.8000
 2.1520	16.8240
 2.1530	16.8580
 2.1540	16.8850
 2.1550	16.9170
 2.1560	16.9420
 2.1570	16.9530
 2.1580	16.9720
 2.1590	16.9920
 2.1600	17.0190
 2.1610	17.0400
 2.1620	17.0500
 2.1630	17.0600
 2.1640	17.0580
 2.1650	17.0690
 2.1660	17.0820
 2.1670	17.1050
 2.1680	17.1420
 2.1690	17.1670
 2.1700	17.1940
 2.1710	17.2170
 2.1720	17.2280
 2.1730	17.2510
 2.1740	17.2830
 2.1750	17.3080
 2.1760	17.3370
 2.1770	17.3610
 2.1780	17.3760
 2.1790	17.3950
 2.1800	17.4160
 2.1810	17.4330
 2.1820	17.4440
 2.1830	17.4650
 2.1840	17.4830
 2.1850	17.5000
 2.1860	17.5140
 2.1870	17.5300
 2.1880	17.5400
 2.1890	17.5360
 2.1900	17.5490
 2.1910	17.5680
 2.1920	17.5860
 2.1930	17.6080
 2.1940	17.6350
 2.1950	17.6710
 2.1960	17.6930
 2.1970	17.7230
 2.1980	17.7350
 2.1990	17.7190
 2.2000	17.7150
 2.2010	17.7080
 2.2020	17.7060
 2.2030	17.7150
 2.2040	17.7170
 2.2050	17.7130
 2.2060	17.7110
 2.2070	17.7180
 2.2080	17.7260
 2.2090	17.7360
 2.2100	17.7630
 2.2110	17.7690
 2.2120	17.7680
 2.2130	17.7610
 2.2140	17.7400
 2.2150	17.7270
 2.2160	17.7040
 2.2170	17.6980
 2.2180	17.7110
 2.2190	17.7010
 2.2200	17.6850
 2.2210	17.6710
 2.2220	17.6420
 2.2230	17.6190
 2.2240	17.6080
 2.2250	17.5870
 2.2260	17.5640
 2.2270	17.5280
 2.2280	17.4690
 2.2290	17.4260
 2.2300	17.3810
 2.2310	17.3380
 2.2320	17.3050
 2.2330	17.2740
 2.2340	17.2240
 2.2350	17.1600
 2.2360	17.0980
 2.2370	17.0280
 2.2380	16.9590
 2.2390	16.8830
 2.2400	16.8180
 2.2410	16.7520
 2.2420	16.6950
 2.2430	16.6540
 2.2440	16.5940
 2.2450	16.5350
 2.2460	16.4690
 2.2470	16.3850
 2.2480	16.3170
 2.2490	16.2470
 2.2500	16.1880
 2.2510	16.1490
 2.2520	16.0940
 2.2530	16.0420
 2.2540	15.9820
 2.2550	15.8980
 2.2560	15.8320
 2.2570	15.7770
 2.2580	15.7190
 2.2590	15.6730
 2.2600	15.6170
 2.2610	15.5520
 2.2620	15.4850
 2.2630	15.4220
 2.2640	15.3780
 2.2650	15.3330
 2.2660	15.2690
 2.2670	15.1970
 2.2680	15.1090
 2.2690	15.0260
 2.2700	14.9270
 2.2710	14.8570
 2.2720	14.7970
 2.2730	14.7370
 2.2740	14.6950
 2.2750	14.6390
 2.2760	14.5760
 2.2770	14.5190
 2.2780	14.4640
 2.2790	14.4090
 2.2800	14.3500
 2.2810	14.3020
 2.2820	14.2550
 2.2830	14.2190
 2.2840	14.2010
 2.2850	14.1720
 2.2860	14.1440
 2.2870	14.1140
 2.2880	14.0840
 2.2890	14.0480
 2.2900	14.0040
 2.2910	13.9660
 2.2920	13.9260
 2.2930	13.8820
 2.2940	13.8380
 2.2950	13.7990
 2.2960	13.7630
 2.2970	13.7170
 2.2980	13.6760
 2.2990	13.6220
 2.3000	13.5460
 2.3010	13.4940
 2.3020	13.4480
 2.3030	13.4130
 2.3040	13.3890
 2.3050	13.3670
 2.3060	13.3480
 2.3070	13.3310
 2.3080	13.3120
 2.3090	13.2790
 2.3100	13.2400
 2.3110	13.2040
 2.3120	13.1770
 2.3130	13.1540
 2.3140	13.1320
 2.3150	13.1140
 2.3160	13.1120
 2.3170	13.1190
 2.3180	13.1260
 2.3190	13.1510
 2.3200	13.1510
 2.3210	13.1430
 2.3220	13.1330
 2.3230	13.1170
 2.3240	13.1010
 2.3250	13.0750
 2.3260	13.0570
 2.3270	13.0530
 2.3280	13.0200
 2.3290	12.9740
 2.3300	12.9290
 2.3310	12.8590
 2.3320	12.8030
 2.3330	12.7530
 2.3340	12.7140
 2.3350	12.6750
 2.3360	12.6500
 2.3370	12.6580
 2.3380	12.6430
 2.3390	12.6300
 2.3400	12.6090
 2.3410	12.5790
 2.3420	12.5380
 2.3430	12.4760
 2.3440	12.4310
 2.3450	12.3680
 2.3460	12.3360
 2.3470	12.3580
 2.3480	12.3420
 2.3490	12.3090
 2.3500	12.2930
 2.3510	12.2660
 2.3520	12.2430
 2.3530	12.2380
 2.3540	12.2280
 2.3550	12.2170
 2.3560	12.1610
 2.3570	12.0930
 2.3580	12.0710
 2.3590	12.0510
 2.3600	12.0380
 2.3610	12.0420
 2.3620	12.0340
 2.3630	11.9780
 2.3640	11.9330
 2.3650	11.9410
 2.3660	11.9300
 2.3670	11.9360
 2.3680	11.9650
 2.3690	11.9560
 2.3700	11.9300
 2.3710	11.8770
 2.3720	11.7980
 2.3730	11.7100
 2.3740	11.6190
 2.3750	11.5860
 2.3760	11.5760
 2.3770	11.5450
 2.3780	11.5500
 2.3790	11.5490
 2.3800	11.5100
 2.3810	11.4990
 2.3820	11.4780
 2.3830	11.4510
 2.3840	11.4620
 2.3850	11.4270
 2.3860	11.3580
 2.3870	11.3190
 2.3880	11.2580
 2.3890	11.2210
 2.3900	11.1940
 2.3910	11.1210
 2.3920	11.0880
 2.3930	11.0450
 2.3940	11.0350
 2.3950	11.0480
 2.3960	10.9620
 2.3970	10.8840
 2.3980	10.8340
 2.3990	10.7910
 2.4000	10.7940
 2.4010	10.8160
 2.4020	10.8120
 2.4030	10.7650
 2.4040	10.6840
 2.4050	10.5920
 2.4060	10.5180
 2.4070	10.4930
 2.4080	10.5140
 2.4090	10.5050
 2.4100	10.4690
 2.4110	10.4150
 2.4120	10.3680
 2.4130	10.3590
 2.4140	10.3380
 2.4150	10.3240
 2.4160	10.3010
 2.4170	10.2590
 2.4180	10.2550
 2.4190	10.2320
 2.4200	10.1680
 2.4210	10.1410
 2.4220	10.1150
 2.4230	10.0850
 2.4240	10.0690
 2.4250	 9.9870
 2.4260	 9.8980
 2.4270	 9.8040
 2.4280	 9.7210
 2.4290	 9.7310
 2.4300	 9.6950
 2.4310	 9.6790
 2.4320	 9.6690
 2.4330	 9.5600
 2.4340	 9.5400
 2.4350	 9.5520
 2.4360	 9.5560
 2.4370	 9.5850
 2.4380	 9.5650
 2.4390	 9.5020
 2.4400	 9.3820
 2.4410	 9.3560
 2.4420	 9.3600
 2.4430	 9.3120
 2.4440	 9.3140
 2.4450	 9.2230
 2.4460	 9.0910
 2.4470	 9.0810
 2.4480	 9.0750
 2.4490	 9.0330
 2.4500	 9.0580
 2.4510	 9.0690
 2.4520	 9.0060
 2.4530	 8.9830
 2.4540	 8.9240
 2.4550	 8.7880
 2.4560	 8.6510
 2.4570	 8.5800
 2.4580	 8.6080
 2.4590	 8.5890
 2.4600	 8.5510
 2.4610	 8.5980
 2.4620	 8.5260
 2.4630	 8.4040
 2.4640	 8.4440
 2.4650	 8.4690
 2.4660	 8.4760
 2.4670	 8.4980
 2.4680	 8.4590
 2.4690	 8.2880
 2.4700	 8.2490
 2.4710	 8.3660
 2.4720	 8.3940
 2.4730	 8.4720
 2.4740	 8.4640
 2.4750	 8.3400
 2.4760	 8.2970
 2.4770	 8.2070
 2.4780	 8.1350
 2.4790	 8.0820
 2.4800	 8.1040
 2.4810	 8.2520
 2.4820	 8.3580
 2.4830	 8.3090
 2.4840	 8.1530
 2.4850	 8.0290
 2.4860	 8.0090
 2.4870	 8.1300
 2.4880	 8.2660
 2.4890	 8.2820
 2.4900	 8.1750
 2.4910	 7.9600
 2.4920	 7.8450
 2.4930	 7.8280
 2.4940	 7.7180
 2.4950	 7.6220
 2.4960	 7.5680
 2.4970	 7.5180
 2.4980	 7.5220
 2.4990	 7.6500
 2.5000	 7.7720
