Name: Umbellularia californica 2
Type: vegetation
Class: Shrub
Genus: Umbellularia
Species: californica
Sample No.: VH027
Owner: UCSB
Wavelength Range: TIR
Origin: 34.5074; -119.7632; WGS84
Collection Date: 4/1/2013
Description: Samples were collected as part of the HyspIRI Airborne Campaign. 48 individual plants were sampled in three times in 2013 - spring  summer  and fall. The name of the sample includes a 1  2  or 3 which references a different individual of the species. Samples were taken to JPL and processed within 48 hours of collection. The same leaves were processed in the Nicolet and then measured using the ASD.
Measurement: Hemispherical reflectance
First Column: X
Second Column: Y
X Units: Wavelength (micrometers)
Y Units: Reflectance (percentage)
First X Value: 2.501
Last X Value: 15.387
Number of X Values: 1737
Additional Information: vegetation.shrub.umbellularia.californica.tir.vh027.ucsb.nicolet.ancillary.txt

 2.5010	 8.1940
 2.5030	 8.2140
 2.5040	 8.1890
 2.5050	 8.0960
 2.5060	 8.1000
 2.5070	 8.0820
 2.5090	 8.1370
 2.5100	 8.1440
 2.5110	 8.0470
 2.5120	 8.0360
 2.5140	 8.0940
 2.5150	 8.0130
 2.5160	 8.0250
 2.5170	 8.0940
 2.5180	 8.1240
 2.5200	 8.0430
 2.5210	 8.0150
 2.5220	 7.9510
 2.5230	 7.9960
 2.5250	 7.9920
 2.5260	 7.9650
 2.5270	 7.9550
 2.5280	 7.9580
 2.5290	 7.7860
 2.5310	 7.8470
 2.5320	 7.9100
 2.5330	 7.8820
 2.5340	 7.9790
 2.5360	 8.0500
 2.5370	 7.9020
 2.5380	 7.8650
 2.5390	 7.9300
 2.5410	 7.9470
 2.5420	 7.9760
 2.5430	 8.0230
 2.5440	 7.9680
 2.5460	 7.9780
 2.5470	 7.9340
 2.5480	 7.9950
 2.5490	 8.0480
 2.5510	 8.0860
 2.5520	 8.0890
 2.5530	 8.0490
 2.5540	 7.9760
 2.5560	 8.0250
 2.5570	 7.9820
 2.5580	 8.0130
 2.5590	 8.1340
 2.5610	 8.2310
 2.5620	 8.2970
 2.5630	 8.3470
 2.5640	 8.3310
 2.5660	 8.2520
 2.5670	 8.1090
 2.5680	 8.0560
 2.5700	 8.1020
 2.5710	 8.1380
 2.5720	 8.1700
 2.5730	 8.2050
 2.5750	 8.2060
 2.5760	 8.2110
 2.5770	 8.1920
 2.5790	 8.2300
 2.5800	 8.1580
 2.5810	 8.1350
 2.5820	 8.1600
 2.5840	 8.1950
 2.5850	 8.1710
 2.5860	 8.1410
 2.5880	 8.0530
 2.5890	 8.0760
 2.5900	 8.0480
 2.5910	 8.0650
 2.5930	 8.0660
 2.5940	 8.1190
 2.5950	 8.1410
 2.5970	 8.1290
 2.5980	 7.9940
 2.5990	 7.8640
 2.6000	 7.8190
 2.6020	 7.9590
 2.6030	 7.9210
 2.6040	 7.9190
 2.6060	 7.9910
 2.6070	 7.9560
 2.6080	 7.8290
 2.6100	 7.7040
 2.6110	 7.7020
 2.6120	 7.7220
 2.6140	 7.6470
 2.6150	 7.5970
 2.6160	 7.4770
 2.6180	 7.4240
 2.6190	 7.4550
 2.6200	 7.5530
 2.6220	 7.3690
 2.6230	 7.3000
 2.6240	 7.2800
 2.6260	 7.2270
 2.6270	 7.2310
 2.6280	 7.2190
 2.6300	 7.1690
 2.6310	 7.2340
 2.6320	 7.1210
 2.6340	 6.9780
 2.6350	 6.9350
 2.6360	 6.9820
 2.6380	 6.9510
 2.6390	 6.7880
 2.6400	 6.7370
 2.6420	 6.8490
 2.6430	 6.8030
 2.6440	 6.7440
 2.6460	 6.6720
 2.6470	 6.6290
 2.6480	 6.5340
 2.6500	 6.5830
 2.6510	 6.5750
 2.6520	 6.5070
 2.6540	 6.3620
 2.6550	 6.3130
 2.6560	 6.3690
 2.6580	 6.3920
 2.6590	 6.2730
 2.6610	 6.2110
 2.6620	 6.1980
 2.6630	 6.3230
 2.6650	 6.4030
 2.6660	 6.3950
 2.6670	 6.3560
 2.6690	 6.3370
 2.6700	 6.2780
 2.6720	 6.1580
 2.6730	 6.0340
 2.6740	 6.0130
 2.6760	 5.9060
 2.6770	 5.8860
 2.6780	 5.9020
 2.6800	 5.8690
 2.6810	 5.7690
 2.6830	 5.7730
 2.6840	 5.7830
 2.6850	 5.7610
 2.6870	 5.6240
 2.6880	 5.5420
 2.6900	 5.5410
 2.6910	 5.5930
 2.6920	 5.6170
 2.6940	 5.6000
 2.6950	 5.4390
 2.6970	 5.4590
 2.6980	 5.4610
 2.6990	 5.4160
 2.7010	 5.3160
 2.7020	 5.3500
 2.7040	 5.2690
 2.7050	 5.3420
 2.7060	 5.3080
 2.7080	 5.2010
 2.7090	 5.1520
 2.7110	 5.2880
 2.7120	 5.2620
 2.7130	 5.1150
 2.7150	 5.0690
 2.7160	 5.0840
 2.7180	 5.0980
 2.7190	 5.1750
 2.7210	 5.1730
 2.7220	 5.1810
 2.7230	 5.1710
 2.7250	 5.2210
 2.7260	 5.1780
 2.7280	 5.1660
 2.7290	 5.0880
 2.7310	 5.0950
 2.7320	 5.1160
 2.7330	 5.0900
 2.7350	 4.9610
 2.7360	 5.0290
 2.7380	 5.0470
 2.7390	 5.0560
 2.7410	 5.0320
 2.7420	 5.0360
 2.7440	 5.0360
 2.7450	 5.1270
 2.7470	 5.0790
 2.7480	 5.0890
 2.7490	 5.1410
 2.7510	 5.2130
 2.7520	 5.0120
 2.7540	 5.0190
 2.7550	 5.1300
 2.7570	 5.0040
 2.7580	 4.9360
 2.7600	 5.0250
 2.7610	 5.0720
 2.7630	 5.0590
 2.7640	 5.0520
 2.7660	 5.1120
 2.7670	 5.0250
 2.7680	 4.8920
 2.7700	 4.8640
 2.7710	 4.9800
 2.7730	 4.9850
 2.7740	 4.9680
 2.7760	 5.0150
 2.7770	 4.9990
 2.7790	 4.8910
 2.7800	 4.9400
 2.7820	 4.8990
 2.7830	 4.8460
 2.7850	 4.7540
 2.7860	 4.8170
 2.7880	 4.8620
 2.7890	 4.9900
 2.7910	 4.9790
 2.7920	 5.0160
 2.7940	 5.0650
 2.7950	 5.0010
 2.7970	 4.8670
 2.7980	 4.8240
 2.8000	 4.8470
 2.8010	 4.9170
 2.8030	 4.8000
 2.8040	 4.8010
 2.8060	 4.8870
 2.8070	 4.9210
 2.8090	 4.9370
 2.8110	 5.0170
 2.8120	 4.9670
 2.8140	 4.9550
 2.8150	 4.9100
 2.8170	 4.8710
 2.8180	 4.8150
 2.8200	 4.8360
 2.8210	 4.8970
 2.8230	 4.9400
 2.8240	 4.8930
 2.8260	 4.7860
 2.8270	 4.7190
 2.8290	 4.9180
 2.8300	 4.8860
 2.8320	 4.9270
 2.8340	 4.9850
 2.8350	 4.9660
 2.8370	 4.9040
 2.8380	 4.9270
 2.8400	 4.8640
 2.8410	 4.8670
 2.8430	 4.7800
 2.8440	 4.7990
 2.8460	 4.8060
 2.8480	 4.8380
 2.8490	 4.7920
 2.8510	 4.8550
 2.8520	 4.9210
 2.8540	 5.0120
 2.8550	 4.9330
 2.8570	 4.8290
 2.8590	 4.7790
 2.8600	 4.8910
 2.8620	 4.9770
 2.8630	 4.9650
 2.8650	 4.8740
 2.8660	 4.9040
 2.8680	 4.9120
 2.8700	 4.9040
 2.8710	 4.9020
 2.8730	 4.9320
 2.8740	 4.8330
 2.8760	 4.8100
 2.8780	 4.7190
 2.8790	 4.8190
 2.8810	 4.8300
 2.8820	 4.7590
 2.8840	 4.7730
 2.8860	 4.9000
 2.8870	 4.8450
 2.8890	 4.7360
 2.8900	 4.7030
 2.8920	 4.8270
 2.8940	 4.8240
 2.8950	 4.8880
 2.8970	 4.9110
 2.8980	 4.8960
 2.9000	 4.8620
 2.9020	 4.8760
 2.9030	 4.9490
 2.9050	 5.0200
 2.9070	 5.0180
 2.9080	 4.9250
 2.9100	 4.7650
 2.9120	 4.7510
 2.9130	 4.7350
 2.9150	 4.9180
 2.9160	 5.0040
 2.9180	 5.0150
 2.9200	 4.9850
 2.9210	 4.9780
 2.9230	 4.9360
 2.9250	 4.9720
 2.9260	 4.9210
 2.9280	 4.9220
 2.9300	 4.8340
 2.9310	 4.8880
 2.9330	 4.8870
 2.9350	 4.8520
 2.9360	 4.8040
 2.9380	 4.8120
 2.9400	 4.7550
 2.9410	 4.8270
 2.9430	 4.8780
 2.9450	 4.9410
 2.9460	 5.0530
 2.9480	 5.1090
 2.9500	 4.8970
 2.9510	 4.7550
 2.9530	 4.8810
 2.9550	 4.9310
 2.9560	 4.7520
 2.9580	 4.9030
 2.9600	 4.8780
 2.9610	 4.9010
 2.9630	 4.9760
 2.9650	 4.8140
 2.9660	 4.4880
 2.9680	 4.7380
 2.9700	 4.7770
 2.9720	 4.9610
 2.9730	 5.1530
 2.9750	 4.8160
 2.9770	 4.5470
 2.9780	 4.7540
 2.9800	 4.8700
 2.9820	 4.9210
 2.9840	 4.7800
 2.9850	 4.9860
 2.9870	 4.9780
 2.9890	 4.9280
 2.9900	 5.0980
 2.9920	 4.7380
 2.9940	 4.4220
 2.9960	 4.6880
 2.9970	 4.6840
 2.9990	 5.1040
 3.0010	 4.9480
 3.0030	 4.7900
 3.0040	 4.9350
 3.0060	 4.9360
 3.0080	 4.6710
 3.0100	 4.6950
 3.0110	 5.0780
 3.0130	 5.1490
 3.0150	 5.0420
 3.0170	 4.9850
 3.0180	 5.0560
 3.0200	 5.3800
 3.0220	 5.1930
 3.0240	 5.0490
 3.0250	 5.0580
 3.0270	 5.0490
 3.0290	 5.2570
 3.0310	 5.1390
 3.0320	 4.8400
 3.0340	 4.6270
 3.0360	 4.7890
 3.0380	 4.7600
 3.0400	 4.8160
 3.0410	 5.0810
 3.0430	 5.1370
 3.0450	 5.0130
 3.0470	 4.4720
 3.0480	 4.6700
 3.0500	 5.6990
 3.0520	 5.9540
 3.0540	 5.4590
 3.0560	 4.7980
 3.0570	 4.6380
 3.0590	 4.5450
 3.0610	 4.9160
 3.0630	 5.3690
 3.0650	 5.2820
 3.0660	 5.2350
 3.0680	 5.0710
 3.0700	 5.0110
 3.0720	 4.9020
 3.0740	 4.7910
 3.0760	 4.8210
 3.0770	 4.9710
 3.0790	 5.0310
 3.0810	 5.0200
 3.0830	 4.9500
 3.0850	 4.9200
 3.0870	 4.7490
 3.0880	 4.9100
 3.0900	 5.2270
 3.0920	 5.1380
 3.0940	 4.7670
 3.0960	 4.7540
 3.0980	 4.6400
 3.0990	 4.7470
 3.1010	 4.9340
 3.1030	 5.0710
 3.1050	 5.0170
 3.1070	 4.8950
 3.1090	 4.8570
 3.1110	 4.9990
 3.1120	 4.9140
 3.1140	 4.8420
 3.1160	 4.9170
 3.1180	 5.0080
 3.1200	 4.9040
 3.1220	 4.8110
 3.1240	 4.8510
 3.1260	 5.0590
 3.1270	 5.1660
 3.1290	 4.9920
 3.1310	 4.7950
 3.1330	 4.8250
 3.1350	 4.9290
 3.1370	 4.7560
 3.1390	 4.6200
 3.1410	 4.6110
 3.1430	 4.8570
 3.1450	 5.0770
 3.1460	 4.8760
 3.1480	 4.8100
 3.1500	 4.8050
 3.1520	 4.8190
 3.1540	 4.6700
 3.1560	 4.7910
 3.1580	 4.9930
 3.1600	 5.0250
 3.1620	 5.0450
 3.1640	 4.9070
 3.1660	 4.6990
 3.1680	 4.7730
 3.1700	 4.8190
 3.1710	 4.8790
 3.1730	 4.9210
 3.1750	 4.8790
 3.1770	 4.8970
 3.1790	 4.8540
 3.1810	 4.8810
 3.1830	 4.9960
 3.1850	 4.7470
 3.1870	 4.6410
 3.1890	 4.8790
 3.1910	 5.0190
 3.1930	 5.0490
 3.1950	 5.0760
 3.1970	 4.9070
 3.1990	 4.8850
 3.2010	 4.9280
 3.2030	 4.8570
 3.2050	 4.7430
 3.2070	 4.7440
 3.2090	 4.8770
 3.2110	 4.9190
 3.2130	 4.7650
 3.2150	 4.7730
 3.2170	 4.7920
 3.2190	 4.6790
 3.2210	 4.7110
 3.2230	 4.8670
 3.2250	 4.8880
 3.2270	 4.9320
 3.2290	 4.8270
 3.2310	 4.8480
 3.2330	 4.8000
 3.2350	 4.6890
 3.2370	 4.6640
 3.2390	 4.6730
 3.2410	 4.6660
 3.2430	 4.6210
 3.2450	 4.7580
 3.2470	 4.8280
 3.2490	 4.8650
 3.2510	 4.9000
 3.2530	 4.6930
 3.2550	 4.7230
 3.2570	 4.7970
 3.2590	 4.8150
 3.2610	 4.7240
 3.2630	 4.6720
 3.2650	 4.7170
 3.2670	 4.7950
 3.2690	 4.7550
 3.2720	 4.7560
 3.2740	 4.7420
 3.2760	 4.7580
 3.2780	 4.7070
 3.2800	 4.7370
 3.2820	 4.7210
 3.2840	 4.6820
 3.2860	 4.6140
 3.2880	 4.6100
 3.2900	 4.5040
 3.2920	 4.5430
 3.2940	 4.5780
 3.2960	 4.6530
 3.2990	 4.6520
 3.3010	 4.6300
 3.3030	 4.6380
 3.3050	 4.6670
 3.3070	 4.6780
 3.3090	 4.6200
 3.3110	 4.5120
 3.3130	 4.5770
 3.3150	 4.5710
 3.3180	 4.5560
 3.3200	 4.5250
 3.3220	 4.5460
 3.3240	 4.5410
 3.3260	 4.5050
 3.3280	 4.4610
 3.3300	 4.5380
 3.3330	 4.5600
 3.3350	 4.5160
 3.3370	 4.4580
 3.3390	 4.4510
 3.3410	 4.4320
 3.3430	 4.4580
 3.3450	 4.5210
 3.3480	 4.4780
 3.3500	 4.3100
 3.3520	 4.3560
 3.3540	 4.3870
 3.3560	 4.3010
 3.3580	 4.2530
 3.3610	 4.2000
 3.3630	 4.1920
 3.3650	 4.2180
 3.3670	 4.1710
 3.3690	 4.1450
 3.3720	 4.1310
 3.3740	 4.1930
 3.3760	 4.2030
 3.3780	 4.2690
 3.3800	 4.3030
 3.3830	 4.3250
 3.3850	 4.3360
 3.3870	 4.3060
 3.3890	 4.2260
 3.3910	 4.2010
 3.3940	 4.0910
 3.3960	 4.0120
 3.3980	 3.9230
 3.4000	 3.9640
 3.4020	 4.1040
 3.4050	 4.2780
 3.4070	 4.3590
 3.4090	 4.4810
 3.4110	 4.7140
 3.4140	 5.1110
 3.4160	 5.5410
 3.4180	 6.1430
 3.4200	 7.0030
 3.4230	 8.1850
 3.4250	 9.5690
 3.4270	11.0470
 3.4290	11.9800
 3.4320	11.6950
 3.4340	10.5630
 3.4360	 9.4170
 3.4390	 8.4810
 3.4410	 7.8500
 3.4430	 7.4590
 3.4450	 7.1930
 3.4480	 6.9560
 3.4500	 6.9250
 3.4520	 6.9460
 3.4550	 6.8550
 3.4570	 6.6390
 3.4590	 6.5540
 3.4620	 6.5420
 3.4640	 6.4480
 3.4660	 6.2220
 3.4680	 6.1540
 3.4710	 6.0900
 3.4730	 6.0130
 3.4750	 5.8910
 3.4780	 5.7310
 3.4800	 5.6160
 3.4820	 5.5750
 3.4850	 5.4680
 3.4870	 5.3470
 3.4890	 5.2670
 3.4920	 5.2020
 3.4940	 5.1350
 3.4970	 5.2010
 3.4990	 5.2250
 3.5010	 5.3040
 3.5040	 5.7270
 3.5060	 6.9560
 3.5080	 8.9250
 3.5110	10.7590
 3.5130	10.9400
 3.5160	 9.8430
 3.5180	 8.7170
 3.5200	 7.8840
 3.5230	 7.4040
 3.5250	 7.1470
 3.5270	 6.9590
 3.5300	 6.8740
 3.5320	 6.7390
 3.5350	 6.4780
 3.5370	 6.3000
 3.5400	 6.1960
 3.5420	 6.1670
 3.5440	 6.2430
 3.5470	 6.1730
 3.5490	 6.1270
 3.5520	 6.0850
 3.5540	 6.0430
 3.5570	 6.0080
 3.5590	 5.9640
 3.5610	 5.9170
 3.5640	 5.9820
 3.5660	 5.9410
 3.5690	 5.8790
 3.5710	 5.8910
 3.5740	 6.0260
 3.5760	 5.9670
 3.5790	 5.8330
 3.5810	 5.8110
 3.5840	 5.8460
 3.5860	 5.7530
 3.5890	 5.6510
 3.5910	 5.7150
 3.5930	 5.8200
 3.5960	 5.7420
 3.5980	 5.8120
 3.6010	 5.7450
 3.6030	 5.6830
 3.6060	 5.6800
 3.6080	 5.6920
 3.6110	 5.6730
 3.6140	 5.6430
 3.6160	 5.6080
 3.6190	 5.6160
 3.6210	 5.5910
 3.6240	 5.5890
 3.6260	 5.5670
 3.6290	 5.5910
 3.6310	 5.6040
 3.6340	 5.5710
 3.6360	 5.5590
 3.6390	 5.5360
 3.6410	 5.5220
 3.6440	 5.5730
 3.6470	 5.5670
 3.6490	 5.5430
 3.6520	 5.5290
 3.6540	 5.5570
 3.6570	 5.5340
 3.6590	 5.4890
 3.6620	 5.5130
 3.6650	 5.5510
 3.6670	 5.5450
 3.6700	 5.5610
 3.6720	 5.5280
 3.6750	 5.5510
 3.6780	 5.5700
 3.6800	 5.5930
 3.6830	 5.5620
 3.6850	 5.5250
 3.6880	 5.5230
 3.6910	 5.5630
 3.6930	 5.5470
 3.6960	 5.5430
 3.6990	 5.5510
 3.7010	 5.4740
 3.7040	 5.4320
 3.7060	 5.4990
 3.7090	 5.5240
 3.7120	 5.5630
 3.7140	 5.5460
 3.7170	 5.5120
 3.7200	 5.4830
 3.7220	 5.4250
 3.7250	 5.4090
 3.7280	 5.5440
 3.7300	 5.6010
 3.7330	 5.5410
 3.7360	 5.4280
 3.7390	 5.4410
 3.7410	 5.5080
 3.7440	 5.5350
 3.7470	 5.5440
 3.7490	 5.5730
 3.7520	 5.5280
 3.7550	 5.5530
 3.7580	 5.5420
 3.7600	 5.4760
 3.7630	 5.4750
 3.7660	 5.4950
 3.7680	 5.5460
 3.7710	 5.5570
 3.7740	 5.5310
 3.7770	 5.5310
 3.7790	 5.4900
 3.7820	 5.5000
 3.7850	 5.5070
 3.7880	 5.5820
 3.7900	 5.6380
 3.7930	 5.6100
 3.7960	 5.6060
 3.7990	 5.6040
 3.8020	 5.5970
 3.8040	 5.6040
 3.8070	 5.5840
 3.8100	 5.6470
 3.8130	 5.6380
 3.8160	 5.6240
 3.8180	 5.6370
 3.8210	 5.5870
 3.8240	 5.5860
 3.8270	 5.7000
 3.8300	 5.7060
 3.8330	 5.6780
 3.8350	 5.6640
 3.8380	 5.6280
 3.8410	 5.6510
 3.8440	 5.7130
 3.8470	 5.7420
 3.8500	 5.7030
 3.8520	 5.6750
 3.8550	 5.6720
 3.8580	 5.6920
 3.8610	 5.6790
 3.8640	 5.6450
 3.8670	 5.6110
 3.8700	 5.5970
 3.8730	 5.6340
 3.8750	 5.6200
 3.8780	 5.6510
 3.8810	 5.6630
 3.8840	 5.6370
 3.8870	 5.6290
 3.8900	 5.5930
 3.8930	 5.6330
 3.8960	 5.6950
 3.8990	 5.6520
 3.9020	 5.6640
 3.9050	 5.6640
 3.9080	 5.6960
 3.9110	 5.7380
 3.9140	 5.7280
 3.9160	 5.7060
 3.9190	 5.7300
 3.9220	 5.7160
 3.9250	 5.7040
 3.9280	 5.6780
 3.9310	 5.6640
 3.9340	 5.6640
 3.9370	 5.7190
 3.9400	 5.7680
 3.9430	 5.7690
 3.9460	 5.6790
 3.9490	 5.6710
 3.9520	 5.6950
 3.9550	 5.7210
 3.9580	 5.6970
 3.9610	 5.6540
 3.9640	 5.6080
 3.9670	 5.6300
 3.9700	 5.6820
 3.9730	 5.6930
 3.9770	 5.6760
 3.9800	 5.7400
 3.9830	 5.7620
 3.9860	 5.7330
 3.9890	 5.6480
 3.9920	 5.6810
 3.9950	 5.7060
 3.9980	 5.7180
 4.0010	 5.7230
 4.0040	 5.7420
 4.0070	 5.7180
 4.0100	 5.7070
 4.0130	 5.7250
 4.0170	 5.7110
 4.0200	 5.6520
 4.0230	 5.6660
 4.0260	 5.6880
 4.0290	 5.6960
 4.0320	 5.6520
 4.0350	 5.6810
 4.0380	 5.7510
 4.0420	 5.6940
 4.0450	 5.6120
 4.0480	 5.6240
 4.0510	 5.6490
 4.0540	 5.6690
 4.0570	 5.7000
 4.0610	 5.6980
 4.0640	 5.7000
 4.0670	 5.6540
 4.0700	 5.6110
 4.0730	 5.5940
 4.0770	 5.5980
 4.0800	 5.6460
 4.0830	 5.6750
 4.0860	 5.6520
 4.0890	 5.6400
 4.0930	 5.6030
 4.0960	 5.5890
 4.0990	 5.5990
 4.1020	 5.5470
 4.1060	 5.5250
 4.1090	 5.5100
 4.1120	 5.4670
 4.1150	 5.5430
 4.1190	 5.6260
 4.1220	 5.5810
 4.1250	 5.5730
 4.1280	 5.5320
 4.1320	 5.5500
 4.1350	 5.5900
 4.1380	 5.6160
 4.1420	 5.6450
 4.1450	 5.6550
 4.1480	 5.6140
 4.1520	 5.6040
 4.1550	 5.6170
 4.1580	 5.5910
 4.1620	 5.5880
 4.1650	 5.5770
 4.1680	 5.5370
 4.1720	 5.5230
 4.1750	 5.5290
 4.1780	 5.5610
 4.1820	 5.5380
 4.1850	 5.4810
 4.1890	 5.4820
 4.1920	 5.5470
 4.1950	 5.5630
 4.1990	 5.6060
 4.2020	 5.7110
 4.2060	 5.6890
 4.2090	 5.6040
 4.2120	 5.6680
 4.2160	 5.8050
 4.2190	 5.8870
 4.2230	 5.7630
 4.2260	 5.5850
 4.2300	 5.9310
 4.2330	 6.1380
 4.2360	 5.9650
 4.2400	 6.0080
 4.2430	 6.0550
 4.2470	 5.8550
 4.2500	 5.8120
 4.2540	 5.7130
 4.2570	 5.6610
 4.2610	 5.7300
 4.2640	 5.9140
 4.2680	 6.0260
 4.2710	 5.8140
 4.2750	 5.5840
 4.2780	 5.7410
 4.2820	 5.8500
 4.2850	 5.8030
 4.2890	 5.8070
 4.2930	 5.7840
 4.2960	 5.7260
 4.3000	 5.7430
 4.3030	 5.7000
 4.3070	 5.6430
 4.3100	 5.6880
 4.3140	 5.7630
 4.3180	 5.6630
 4.3210	 5.5440
 4.3250	 5.5790
 4.3280	 5.6090
 4.3320	 5.5250
 4.3360	 5.4700
 4.3390	 5.4590
 4.3430	 5.4760
 4.3470	 5.4500
 4.3500	 5.4140
 4.3540	 5.4010
 4.3570	 5.3770
 4.3610	 5.4460
 4.3650	 5.4660
 4.3680	 5.3520
 4.3720	 5.2900
 4.3760	 5.3230
 4.3800	 5.3270
 4.3830	 5.3200
 4.3870	 5.3030
 4.3910	 5.3040
 4.3940	 5.3440
 4.3980	 5.3360
 4.4020	 5.3340
 4.4060	 5.2640
 4.4090	 5.2570
 4.4130	 5.2310
 4.4170	 5.1520
 4.4210	 5.1680
 4.4240	 5.2290
 4.4280	 5.2930
 4.4320	 5.2740
 4.4360	 5.2380
 4.4400	 5.2100
 4.4430	 5.2090
 4.4470	 5.2350
 4.4510	 5.2150
 4.4550	 5.2430
 4.4590	 5.2710
 4.4620	 5.2760
 4.4660	 5.1940
 4.4700	 5.1640
 4.4740	 5.1900
 4.4780	 5.2230
 4.4820	 5.1590
 4.4860	 5.1620
 4.4900	 5.2370
 4.4930	 5.2100
 4.4970	 5.1980
 4.5010	 5.2710
 4.5050	 5.2730
 4.5090	 5.1990
 4.5130	 5.1390
 4.5170	 5.1440
 4.5210	 5.1390
 4.5250	 5.1500
 4.5290	 5.1470
 4.5330	 5.1840
 4.5370	 5.2110
 4.5410	 5.2020
 4.5450	 5.1380
 4.5490	 5.1740
 4.5530	 5.1960
 4.5570	 5.2110
 4.5610	 5.2230
 4.5650	 5.1980
 4.5690	 5.1220
 4.5730	 5.0540
 4.5770	 5.0790
 4.5810	 5.1640
 4.5850	 5.1660
 4.5890	 5.0790
 4.5930	 5.0650
 4.5970	 5.1540
 4.6010	 5.1130
 4.6050	 5.1290
 4.6090	 5.1240
 4.6130	 5.1100
 4.6170	 5.1040
 4.6220	 5.1580
 4.6260	 5.1510
 4.6300	 5.0720
 4.6340	 5.0430
 4.6380	 5.0530
 4.6420	 5.0310
 4.6460	 5.0580
 4.6510	 5.0710
 4.6550	 5.0580
 4.6590	 5.0900
 4.6630	 5.0980
 4.6670	 5.0290
 4.6720	 4.9910
 4.6760	 4.9960
 4.6800	 5.0640
 4.6840	 5.0520
 4.6880	 5.0270
 4.6930	 5.0390
 4.6970	 5.1420
 4.7010	 5.1400
 4.7050	 5.0950
 4.7100	 5.1120
 4.7140	 5.1480
 4.7180	 5.1210
 4.7230	 5.1140
 4.7270	 5.0400
 4.7310	 5.0030
 4.7360	 5.0440
 4.7400	 5.1110
 4.7440	 5.1010
 4.7490	 5.0690
 4.7530	 5.0620
 4.7570	 5.0960
 4.7620	 5.1240
 4.7660	 5.1490
 4.7700	 5.1230
 4.7750	 5.1090
 4.7790	 5.0710
 4.7840	 5.0820
 4.7880	 5.0760
 4.7920	 5.0760
 4.7970	 5.0640
 4.8010	 4.9980
 4.8060	 5.0310
 4.8100	 5.1030
 4.8150	 5.0550
 4.8190	 5.0530
 4.8240	 5.0970
 4.8280	 5.0990
 4.8330	 5.0810
 4.8370	 5.1390
 4.8420	 5.0910
 4.8460	 5.0720
 4.8510	 5.0860
 4.8550	 5.0780
 4.8600	 5.0390
 4.8640	 5.0780
 4.8690	 5.0610
 4.8730	 5.0740
 4.8780	 5.0750
 4.8830	 5.0390
 4.8870	 5.0180
 4.8920	 5.0370
 4.8960	 5.0170
 4.9010	 5.0720
 4.9060	 5.1010
 4.9100	 5.1000
 4.9150	 5.0500
 4.9200	 5.0480
 4.9240	 5.0780
 4.9290	 5.1490
 4.9340	 5.0760
 4.9380	 5.0610
 4.9430	 5.0830
 4.9480	 5.1130
 4.9530	 5.0920
 4.9570	 5.1350
 4.9620	 5.1580
 4.9670	 5.1670
 4.9720	 5.1280
 4.9760	 5.1080
 4.9810	 5.1230
 4.9860	 5.1580
 4.9910	 5.0970
 4.9960	 5.0740
 5.0000	 5.0670
 5.0050	 5.0740
 5.0100	 5.0860
 5.0150	 5.1320
 5.0200	 5.1350
 5.0250	 5.1200
 5.0290	 5.0820
 5.0340	 5.0670
 5.0390	 5.0840
 5.0440	 5.1270
 5.0490	 5.1320
 5.0540	 5.1250
 5.0590	 5.1070
 5.0640	 5.1580
 5.0690	 5.1750
 5.0740	 5.1700
 5.0790	 5.1330
 5.0840	 5.1630
 5.0890	 5.1540
 5.0940	 5.1660
 5.0990	 5.1410
 5.1040	 5.1570
 5.1090	 5.1410
 5.1140	 5.1580
 5.1190	 5.2000
 5.1240	 5.1900
 5.1290	 5.1400
 5.1340	 5.1460
 5.1390	 5.1340
 5.1440	 5.1830
 5.1490	 5.1600
 5.1540	 5.2000
 5.1600	 5.2120
 5.1650	 5.1830
 5.1700	 5.1500
 5.1750	 5.1940
 5.1800	 5.2210
 5.1850	 5.2240
 5.1910	 5.1210
 5.1960	 5.1260
 5.2010	 5.1660
 5.2060	 5.1660
 5.2110	 5.1830
 5.2170	 5.2660
 5.2220	 5.2430
 5.2270	 5.2280
 5.2320	 5.1590
 5.2380	 5.1690
 5.2430	 5.1380
 5.2480	 5.1160
 5.2540	 5.0800
 5.2590	 5.1510
 5.2640	 5.1880
 5.2700	 5.2190
 5.2750	 5.1690
 5.2800	 5.1910
 5.2860	 5.1600
 5.2910	 5.1670
 5.2970	 5.1940
 5.3020	 5.1860
 5.3070	 5.1270
 5.3130	 5.1230
 5.3180	 5.1170
 5.3240	 5.1780
 5.3290	 5.1540
 5.3350	 5.1920
 5.3400	 5.1390
 5.3460	 5.0920
 5.3510	 5.0620
 5.3570	 5.0560
 5.3620	 5.0520
 5.3680	 5.1050
 5.3730	 5.0890
 5.3790	 5.1290
 5.3850	 5.1000
 5.3900	 5.0800
 5.3960	 5.0340
 5.4010	 5.0150
 5.4070	 4.9950
 5.4130	 5.0050
 5.4180	 4.9810
 5.4240	 5.0300
 5.4300	 4.9440
 5.4350	 4.9360
 5.4410	 4.9360
 5.4470	 4.9410
 5.4530	 4.9300
 5.4580	 5.0270
 5.4640	 4.9440
 5.4700	 4.8490
 5.4760	 4.8260
 5.4810	 4.8980
 5.4870	 4.8790
 5.4930	 4.8420
 5.4990	 4.8160
 5.5050	 4.8680
 5.5110	 4.8500
 5.5160	 4.8510
 5.5220	 4.8140
 5.5280	 4.7990
 5.5340	 4.7450
 5.5400	 4.7020
 5.5460	 4.6650
 5.5520	 4.6760
 5.5580	 4.6260
 5.5640	 4.6160
 5.5700	 4.6070
 5.5760	 4.6380
 5.5820	 4.6290
 5.5880	 4.6000
 5.5940	 4.5080
 5.6000	 4.5580
 5.6060	 4.5350
 5.6120	 4.5230
 5.6180	 4.5030
 5.6240	 4.4720
 5.6300	 4.3730
 5.6360	 4.3690
 5.6420	 4.3510
 5.6490	 4.3780
 5.6550	 4.3730
 5.6610	 4.3570
 5.6670	 4.2890
 5.6730	 4.2270
 5.6800	 4.1440
 5.6860	 4.1340
 5.6920	 4.0600
 5.6980	 4.0360
 5.7040	 3.9630
 5.7110	 3.9290
 5.7170	 3.8940
 5.7230	 3.8930
 5.7300	 3.8320
 5.7360	 3.8280
 5.7420	 3.8090
 5.7490	 3.8770
 5.7550	 3.8530
 5.7620	 3.9570
 5.7680	 4.0640
 5.7740	 4.1820
 5.7810	 4.2460
 5.7870	 4.3760
 5.7940	 4.4590
 5.8000	 4.5720
 5.8070	 4.5730
 5.8130	 4.6260
 5.8200	 4.6920
 5.8260	 4.7920
 5.8330	 4.8090
 5.8390	 4.8880
 5.8460	 4.9360
 5.8530	 5.0630
 5.8590	 5.0750
 5.8660	 5.1540
 5.8720	 5.2580
 5.8790	 5.4010
 5.8860	 5.3620
 5.8920	 5.4190
 5.8990	 5.4590
 5.9060	 5.4450
 5.9130	 5.4050
 5.9190	 5.4260
 5.9260	 5.3550
 5.9330	 5.4290
 5.9400	 5.4840
 5.9470	 5.5020
 5.9530	 5.4160
 5.9600	 5.4330
 5.9670	 5.4280
 5.9740	 5.3920
 5.9810	 5.3560
 5.9880	 5.3670
 5.9950	 5.2640
 6.0020	 5.2020
 6.0090	 5.1030
 6.0160	 5.1140
 6.0230	 5.0520
 6.0300	 5.0370
 6.0370	 4.9930
 6.0440	 5.1740
 6.0510	 5.2100
 6.0580	 5.1610
 6.0650	 5.1990
 6.0720	 5.3300
 6.0790	 5.2590
 6.0860	 5.2460
 6.0930	 5.2550
 6.1000	 5.3430
 6.1080	 5.3590
 6.1150	 5.3970
 6.1220	 5.3310
 6.1290	 5.3620
 6.1370	 5.3310
 6.1440	 5.3370
 6.1510	 5.2550
 6.1580	 5.3080
 6.1660	 5.1650
 6.1730	 5.1080
 6.1800	 5.0680
 6.1880	 5.1040
 6.1950	 5.0470
 6.2030	 5.0130
 6.2100	 5.0140
 6.2170	 5.1220
 6.2250	 5.1120
 6.2320	 5.1970
 6.2400	 5.1840
 6.2470	 5.2460
 6.2550	 5.1510
 6.2630	 5.1460
 6.2700	 5.1140
 6.2780	 5.1390
 6.2850	 5.1010
 6.2930	 5.2510
 6.3010	 5.2390
 6.3080	 5.1900
 6.3160	 5.1640
 6.3240	 5.2550
 6.3310	 5.2840
 6.3390	 5.2830
 6.3470	 5.1990
 6.3550	 5.1740
 6.3620	 5.1080
 6.3700	 5.2290
 6.3780	 5.2470
 6.3860	 5.2490
 6.3940	 5.1830
 6.4020	 5.2950
 6.4100	 5.3750
 6.4180	 5.3990
 6.4260	 5.2160
 6.4330	 5.2280
 6.4410	 5.2260
 6.4490	 5.2550
 6.4580	 5.1220
 6.4660	 5.1560
 6.4740	 5.1300
 6.4820	 5.1370
 6.4900	 5.1430
 6.4980	 5.2050
 6.5060	 5.0610
 6.5140	 5.0450
 6.5230	 5.0330
 6.5310	 5.0280
 6.5390	 4.9070
 6.5470	 4.9100
 6.5550	 4.8750
 6.5640	 4.8720
 6.5720	 4.7680
 6.5800	 4.6930
 6.5890	 4.5440
 6.5970	 4.5150
 6.6060	 4.4930
 6.6140	 4.6350
 6.6220	 4.7070
 6.6310	 4.7640
 6.6390	 4.8230
 6.6480	 4.8570
 6.6560	 4.7730
 6.6650	 4.8570
 6.6740	 4.8130
 6.6820	 4.8120
 6.6910	 4.7480
 6.6990	 4.7820
 6.7080	 4.8330
 6.7170	 4.8770
 6.7260	 4.7930
 6.7340	 4.7760
 6.7430	 4.6490
 6.7520	 4.5920
 6.7610	 4.5150
 6.7690	 4.6010
 6.7780	 4.7800
 6.7870	 5.2280
 6.7960	 5.1890
 6.8050	 4.8820
 6.8140	 4.6890
 6.8230	 4.8790
 6.8320	 5.1870
 6.8410	 5.3720
 6.8500	 5.0980
 6.8590	 5.0050
 6.8680	 4.9450
 6.8770	 4.9280
 6.8860	 4.8420
 6.8950	 4.8830
 6.9050	 4.9010
 6.9140	 4.9450
 6.9230	 4.9120
 6.9320	 4.9480
 6.9420	 4.8510
 6.9510	 4.8720
 6.9600	 5.0040
 6.9700	 5.1320
 6.9790	 4.9540
 6.9880	 4.9480
 6.9980	 4.8620
 7.0070	 4.8860
 7.0170	 4.8720
 7.0260	 4.9120
 7.0360	 4.8540
 7.0450	 4.9540
 7.0550	 4.9100
 7.0650	 4.9560
 7.0740	 4.9300
 7.0840	 5.0060
 7.0940	 4.9670
 7.1030	 4.9720
 7.1130	 4.9090
 7.1230	 4.9770
 7.1330	 4.9100
 7.1420	 4.9010
 7.1520	 4.7560
 7.1620	 4.7630
 7.1720	 4.7330
 7.1820	 4.7480
 7.1920	 4.7060
 7.2020	 4.8450
 7.2120	 4.7480
 7.2220	 4.7490
 7.2320	 4.6750
 7.2420	 4.6780
 7.2520	 4.6370
 7.2620	 4.6510
 7.2730	 4.5430
 7.2830	 4.5470
 7.2930	 4.4530
 7.3030	 4.4640
 7.3140	 4.4500
 7.3240	 4.5460
 7.3340	 4.5900
 7.3450	 4.7010
 7.3550	 4.6660
 7.3660	 4.7410
 7.3760	 4.7380
 7.3870	 4.7390
 7.3970	 4.7070
 7.4080	 4.8350
 7.4180	 4.7520
 7.4290	 4.6520
 7.4400	 4.5890
 7.4500	 4.6730
 7.4610	 4.6700
 7.4720	 4.7030
 7.4830	 4.5990
 7.4930	 4.7070
 7.5040	 4.6710
 7.5150	 4.6420
 7.5260	 4.5730
 7.5370	 4.5910
 7.5480	 4.5300
 7.5590	 4.5860
 7.5700	 4.4940
 7.5810	 4.5100
 7.5920	 4.4710
 7.6030	 4.4990
 7.6140	 4.3830
 7.6260	 4.3990
 7.6370	 4.3490
 7.6480	 4.5110
 7.6590	 4.4930
 7.6710	 4.5330
 7.6820	 4.4710
 7.6930	 4.5180
 7.7050	 4.4390
 7.7160	 4.4600
 7.7280	 4.3150
 7.7390	 4.3150
 7.7510	 4.2280
 7.7630	 4.2940
 7.7740	 4.2770
 7.7860	 4.2570
 7.7980	 4.2370
 7.8090	 4.4040
 7.8210	 4.3110
 7.8330	 4.3190
 7.8450	 4.2990
 7.8570	 4.3480
 7.8690	 4.2730
 7.8810	 4.2900
 7.8930	 4.2770
 7.9050	 4.4220
 7.9170	 4.3370
 7.9290	 4.3860
 7.9410	 4.3020
 7.9530	 4.4070
 7.9650	 4.3540
 7.9780	 4.4270
 7.9900	 4.3690
 8.0020	 4.4860
 8.0150	 4.3690
 8.0270	 4.3900
 8.0390	 4.4180
 8.0520	 4.5370
 8.0640	 4.4800
 8.0770	 4.5300
 8.0900	 4.3760
 8.1020	 4.5240
 8.1150	 4.4830
 8.1280	 4.5670
 8.1400	 4.4920
 8.1530	 4.5530
 8.1660	 4.5850
 8.1790	 4.7680
 8.1920	 4.6160
 8.2050	 4.5460
 8.2180	 4.3880
 8.2310	 4.4700
 8.2440	 4.4730
 8.2570	 4.6170
 8.2700	 4.4610
 8.2830	 4.5180
 8.2970	 4.4990
 8.3100	 4.6090
 8.3230	 4.4910
 8.3370	 4.7250
 8.3500	 4.7560
 8.3640	 4.7980
 8.3770	 4.6570
 8.3910	 4.6940
 8.4040	 4.6070
 8.4180	 4.7720
 8.4320	 4.6510
 8.4450	 4.6500
 8.4590	 4.6270
 8.4730	 4.7470
 8.4870	 4.7560
 8.5010	 5.0240
 8.5150	 4.9100
 8.5290	 5.0430
 8.5430	 5.0140
 8.5570	 5.2740
 8.5710	 5.4180
 8.5850	 5.5370
 8.5990	 5.3620
 8.6140	 5.4210
 8.6280	 5.3810
 8.6420	 5.5560
 8.6570	 5.4600
 8.6710	 5.5210
 8.6860	 5.4440
 8.7000	 5.6030
 8.7150	 5.4670
 8.7300	 5.5220
 8.7440	 5.4060
 8.7590	 5.5870
 8.7740	 5.5560
 8.7890	 5.6030
 8.8040	 5.5800
 8.8190	 5.7880
 8.8340	 5.6260
 8.8490	 5.5380
 8.8640	 5.4530
 8.8790	 5.7750
 8.8940	 5.7480
 8.9100	 5.8090
 8.9250	 5.6840
 8.9400	 5.7890
 8.9560	 5.6600
 8.9710	 5.7830
 8.9870	 5.7060
 9.0020	 5.8830
 9.0180	 5.9510
 9.0340	 6.0960
 9.0500	 5.9090
 9.0650	 5.9130
 9.0810	 5.7940
 9.0970	 5.9360
 9.1130	 5.8120
 9.1290	 5.8220
 9.1450	 5.6540
 9.1610	 5.7980
 9.1780	 5.6440
 9.1940	 5.7490
 9.2100	 5.6850
 9.2270	 5.8260
 9.2430	 5.7440
 9.2600	 5.8420
 9.2760	 5.7610
 9.2930	 5.8730
 9.3090	 5.8140
 9.3260	 6.0580
 9.3430	 6.0090
 9.3600	 6.1960
 9.3770	 6.1230
 9.3940	 6.2100
 9.4110	 6.0440
 9.4280	 6.0500
 9.4450	 5.8490
 9.4620	 5.9730
 9.4800	 5.8750
 9.4970	 6.0220
 9.5140	 5.9440
 9.5320	 6.0530
 9.5500	 5.8780
 9.5670	 5.9870
 9.5850	 5.9250
 9.6030	 6.1400
 9.6200	 6.0970
 9.6380	 6.1800
 9.6560	 6.1020
 9.6740	 6.0920
 9.6920	 5.8030
 9.7100	 6.0480
 9.7290	 5.9550
 9.7470	 5.9770
 9.7650	 5.8830
 9.7840	 5.9920
 9.8020	 5.8300
 9.8210	 6.0110
 9.8390	 5.9570
 9.8580	 5.9500
 9.8770	 5.7000
 9.8960	 5.8890
 9.9150	 5.8640
 9.9340	 5.7470
 9.9530	 5.4420
 9.9720	 5.5410
 9.9910	 5.4360
10.0100	 5.5690
10.0300	 5.5620
10.0490	 5.7280
10.0690	 5.6200
10.0880	 5.6770
10.1080	 5.3870
10.1280	 5.3830
10.1480	 5.3340
10.1670	 5.4480
10.1870	 5.3010
10.2070	 5.3660
10.2280	 5.2780
10.2480	 5.4220
10.2680	 5.2600
10.2890	 5.4220
10.3090	 5.3020
10.3300	 5.3550
10.3500	 5.2620
10.3710	 5.4750
10.3920	 5.4190
10.4120	 5.5010
10.4330	 5.4230
10.4540	 5.5190
10.4760	 5.4720
10.4970	 5.7250
10.5180	 5.5460
10.5390	 5.5920
10.5610	 5.4780
10.5820	 5.7200
10.6040	 5.6840
10.6260	 5.8620
10.6480	 5.7980
10.6700	 5.9180
10.6920	 5.7490
10.7140	 5.9840
10.7360	 5.9590
10.7580	 6.0450
10.7800	 5.8660
10.8030	 5.9380
10.8250	 5.8760
10.8480	 6.0310
10.8710	 5.8400
10.8940	 6.0260
10.9170	 5.9180
10.9400	 6.0990
10.9630	 6.0210
10.9860	 6.0840
11.0090	 5.8610
11.0330	 5.9000
11.0560	 5.6880
11.0800	 5.8940
11.1040	 5.9830
11.1270	 6.1900
11.1510	 5.9970
11.1750	 6.1730
11.2000	 6.0410
11.2240	 6.2440
11.2480	 6.2170
11.2730	 6.2400
11.2970	 6.2260
11.3220	 6.6720
11.3470	 6.3260
11.3720	 6.4060
11.3970	 6.2000
11.4220	 6.3150
11.4470	 6.1720
11.4720	 6.3090
11.4980	 6.1760
11.5230	 6.3480
11.5490	 6.2040
11.5750	 6.4050
11.6000	 6.2210
11.6260	 6.4430
11.6530	 6.3030
11.6790	 6.2620
11.7050	 6.1070
11.7320	 6.2850
11.7580	 6.1330
11.7850	 6.2780
11.8120	 6.0160
11.8390	 6.1390
11.8660	 6.0320
11.8930	 6.1570
11.9200	 5.9910
11.9480	 6.0800
11.9760	 6.0140
12.0030	 6.3090
12.0310	 6.2440
12.0590	 6.4360
12.0870	 6.2610
12.1150	 6.4220
12.1440	 6.1090
12.1720	 6.0870
12.2010	 6.0250
12.2300	 6.4450
12.2590	 6.3220
12.2880	 6.5390
12.3170	 6.3400
12.3460	 6.5860
12.3760	 6.3810
12.4050	 6.5200
12.4350	 6.3560
12.4650	 6.5240
12.4950	 6.2990
12.5250	 6.5670
12.5550	 6.2560
12.5860	 6.2890
12.6170	 6.1550
12.6470	 6.2860
12.6780	 5.8880
12.7090	 6.0290
12.7410	 5.8550
12.7720	 6.0890
12.8030	 5.9290
12.8350	 5.9700
12.8670	 5.6430
12.8990	 5.8490
12.9310	 5.6370
12.9640	 5.7250
12.9960	 5.4100
13.0290	 5.6790
13.0610	 5.4790
13.0940	 5.6330
13.1280	 5.2990
13.1610	 5.4440
13.1940	 5.1690
13.2280	 5.2680
13.2620	 4.9390
13.2960	 5.0980
13.3300	 4.9470
13.3640	 5.1610
13.3990	 4.8320
13.4340	 4.9450
13.4690	 4.6220
13.5040	 4.9360
13.5390	 4.6660
13.5740	 4.7760
13.6100	 4.4500
13.6460	 4.7930
13.6820	 4.7720
13.7180	 4.9450
13.7540	 4.3070
13.7910	 4.6830
13.8280	 4.6810
13.8650	 4.8690
13.9020	 4.6050
13.9390	 4.9170
13.9770	 4.7100
14.0150	 4.8050
14.0530	 4.4320
14.0910	 4.7110
14.1290	 4.3510
14.1680	 4.6190
14.2070	 4.2150
14.2460	 4.3950
14.2850	 4.1270
14.3240	 4.4100
14.3640	 4.0850
14.4040	 4.4020
14.4440	 3.9530
14.4840	 4.4280
14.5250	 4.0900
14.5660	 4.1600
14.6070	 3.5080
14.6480	 4.0160
14.6900	 3.6570
14.7310	 4.1450
14.7730	 3.9300
14.8150	 4.4320
14.8580	 3.7580
14.9010	 4.2430
14.9440	 3.8250
14.9870	 4.5060
15.0300	 4.2070
15.0740	 4.7450
15.1180	 3.7040
15.1620	 3.9850
15.2060	 3.7800
15.2510	 4.5880
15.2960	 3.5590
15.3410	 4.0290
15.3870	 3.9910
