Name: Pinus lambertiana 2
Type: vegetation
Class: Tree
Genus: Pinus
Species: lambertiana
Sample No.: VH259
Owner: UCSB
Wavelength Range: VSWIR
Origin: 37.0422; -119.3028; WGS84
Collection Date: 11/2/2013
Description: Samples were collected as part of the HyspIRI Airborne Campaign. 48 individual plants were sampled in three times in 2013 - spring  summer  and fall. The name of the sample includes a 1  2  or 3 which references a different individual of the species. Samples were taken to JPL and processed within 48 hours of collection. The same leaves were processed in the Nicolet and then measured using the ASD.
Measurement: Bidirectional reflectance
First Column: X
Second Column: Y
X Units: Wavelength (micrometers)
Y Units: Reflectance (percentage)
First X Value: 0.35
Last X Value: 2.5
Number of X Values: 2151
Additional Information: vegetation.tree.pinus.lambertiana.vswir.vh259.ucsb.asd.ancillary.txt

 0.3500	 7.0380
 0.3510	 6.9270
 0.3520	 6.7000
 0.3530	 6.6360
 0.3540	 6.8030
 0.3550	 6.7750
 0.3560	 6.6760
 0.3570	 6.6070
 0.3580	 6.6300
 0.3590	 6.6110
 0.3600	 6.6290
 0.3610	 6.6720
 0.3620	 6.5700
 0.3630	 6.5100
 0.3640	 6.4960
 0.3650	 6.4910
 0.3660	 6.5130
 0.3670	 6.5300
 0.3680	 6.5090
 0.3690	 6.4270
 0.3700	 6.4500
 0.3710	 6.4600
 0.3720	 6.4140
 0.3730	 6.4850
 0.3740	 6.4630
 0.3750	 6.4020
 0.3760	 6.4100
 0.3770	 6.4250
 0.3780	 6.4480
 0.3790	 6.4510
 0.3800	 6.3880
 0.3810	 6.3740
 0.3820	 6.3600
 0.3830	 6.3330
 0.3840	 6.4390
 0.3850	 6.4370
 0.3860	 6.3670
 0.3870	 6.3560
 0.3880	 6.4040
 0.3890	 6.3870
 0.3900	 6.3110
 0.3910	 6.3130
 0.3920	 6.3330
 0.3930	 6.3210
 0.3940	 6.2730
 0.3950	 6.3110
 0.3960	 6.3270
 0.3970	 6.3110
 0.3980	 6.2980
 0.3990	 6.2990
 0.4000	 6.3050
 0.4010	 6.3050
 0.4020	 6.2910
 0.4030	 6.2740
 0.4040	 6.2830
 0.4050	 6.3280
 0.4060	 6.3470
 0.4070	 6.3520
 0.4080	 6.3670
 0.4090	 6.4170
 0.4100	 6.4330
 0.4110	 6.4630
 0.4120	 6.5230
 0.4130	 6.5450
 0.4140	 6.5680
 0.4150	 6.5990
 0.4160	 6.6370
 0.4170	 6.6920
 0.4180	 6.7430
 0.4190	 6.7870
 0.4200	 6.8370
 0.4210	 6.8860
 0.4220	 6.9390
 0.4230	 6.9980
 0.4240	 7.0450
 0.4250	 7.0900
 0.4260	 7.1260
 0.4270	 7.1470
 0.4280	 7.2130
 0.4290	 7.2690
 0.4300	 7.2940
 0.4310	 7.3250
 0.4320	 7.3650
 0.4330	 7.3960
 0.4340	 7.4060
 0.4350	 7.4260
 0.4360	 7.4520
 0.4370	 7.4850
 0.4380	 7.5250
 0.4390	 7.5490
 0.4400	 7.5760
 0.4410	 7.6140
 0.4420	 7.6310
 0.4430	 7.6480
 0.4440	 7.6680
 0.4450	 7.6880
 0.4460	 7.7010
 0.4470	 7.7170
 0.4480	 7.7380
 0.4490	 7.7580
 0.4500	 7.7710
 0.4510	 7.7780
 0.4520	 7.7830
 0.4530	 7.8020
 0.4540	 7.8150
 0.4550	 7.8170
 0.4560	 7.8160
 0.4570	 7.8340
 0.4580	 7.8490
 0.4590	 7.8500
 0.4600	 7.8570
 0.4610	 7.8590
 0.4620	 7.8540
 0.4630	 7.8490
 0.4640	 7.8630
 0.4650	 7.8830
 0.4660	 7.8940
 0.4670	 7.8860
 0.4680	 7.8790
 0.4690	 7.8790
 0.4700	 7.8830
 0.4710	 7.8780
 0.4720	 7.8740
 0.4730	 7.8750
 0.4740	 7.8800
 0.4750	 7.8760
 0.4760	 7.8730
 0.4770	 7.8760
 0.4780	 7.8780
 0.4790	 7.8850
 0.4800	 7.8900
 0.4810	 7.8850
 0.4820	 7.8880
 0.4830	 7.8890
 0.4840	 7.8860
 0.4850	 7.8840
 0.4860	 7.8830
 0.4870	 7.8870
 0.4880	 7.8970
 0.4890	 7.9120
 0.4900	 7.9250
 0.4910	 7.9390
 0.4920	 7.9580
 0.4930	 7.9820
 0.4940	 8.0070
 0.4950	 8.0340
 0.4960	 8.0630
 0.4970	 8.0960
 0.4980	 8.1320
 0.4990	 8.1720
 0.5000	 8.2200
 0.5010	 8.2700
 0.5020	 8.3260
 0.5030	 8.3950
 0.5040	 8.4700
 0.5050	 8.5550
 0.5060	 8.6480
 0.5070	 8.7460
 0.5080	 8.8500
 0.5090	 8.9650
 0.5100	 9.0980
 0.5110	 9.2410
 0.5120	 9.3950
 0.5130	 9.5620
 0.5140	 9.7410
 0.5150	 9.9310
 0.5160	10.1310
 0.5170	10.3410
 0.5180	10.5650
 0.5190	10.7960
 0.5200	11.0320
 0.5210	11.2730
 0.5220	11.5140
 0.5230	11.7510
 0.5240	11.9820
 0.5250	12.2150
 0.5260	12.4390
 0.5270	12.6500
 0.5280	12.8450
 0.5290	13.0360
 0.5300	13.2150
 0.5310	13.3770
 0.5320	13.5290
 0.5330	13.6630
 0.5340	13.7850
 0.5350	13.9030
 0.5360	14.0040
 0.5370	14.0970
 0.5380	14.1800
 0.5390	14.2490
 0.5400	14.3090
 0.5410	14.3610
 0.5420	14.4090
 0.5430	14.4580
 0.5440	14.5130
 0.5450	14.5690
 0.5460	14.6190
 0.5470	14.6810
 0.5480	14.7430
 0.5490	14.7960
 0.5500	14.8330
 0.5510	14.8600
 0.5520	14.8780
 0.5530	14.8820
 0.5540	14.8710
 0.5550	14.8500
 0.5560	14.8160
 0.5570	14.7590
 0.5580	14.6900
 0.5590	14.6130
 0.5600	14.5280
 0.5610	14.4310
 0.5620	14.3300
 0.5630	14.2240
 0.5640	14.1080
 0.5650	13.9850
 0.5660	13.8510
 0.5670	13.7080
 0.5680	13.5670
 0.5690	13.4160
 0.5700	13.2600
 0.5710	13.1080
 0.5720	12.9630
 0.5730	12.8290
 0.5740	12.7080
 0.5750	12.5930
 0.5760	12.4850
 0.5770	12.3810
 0.5780	12.2810
 0.5790	12.1880
 0.5800	12.1030
 0.5810	12.0230
 0.5820	11.9430
 0.5830	11.8690
 0.5840	11.7910
 0.5850	11.7090
 0.5860	11.6300
 0.5870	11.5580
 0.5880	11.4950
 0.5890	11.4400
 0.5900	11.3900
 0.5910	11.3480
 0.5920	11.3120
 0.5930	11.2790
 0.5940	11.2520
 0.5950	11.2280
 0.5960	11.2020
 0.5970	11.1700
 0.5980	11.1360
 0.5990	11.0990
 0.6000	11.0600
 0.6010	11.0240
 0.6020	10.9860
 0.6030	10.9420
 0.6040	10.8960
 0.6050	10.8440
 0.6060	10.7860
 0.6070	10.7250
 0.6080	10.6560
 0.6090	10.5800
 0.6100	10.4970
 0.6110	10.4090
 0.6120	10.3380
 0.6130	10.2750
 0.6140	10.2130
 0.6150	10.1490
 0.6160	10.0860
 0.6170	10.0250
 0.6180	 9.9680
 0.6190	 9.9160
 0.6200	 9.8690
 0.6210	 9.8270
 0.6220	 9.7930
 0.6230	 9.7630
 0.6240	 9.7370
 0.6250	 9.7160
 0.6260	 9.7030
 0.6270	 9.6950
 0.6280	 9.6880
 0.6290	 9.6770
 0.6300	 9.6680
 0.6310	 9.6590
 0.6320	 9.6490
 0.6330	 9.6350
 0.6340	 9.6130
 0.6350	 9.5790
 0.6360	 9.5340
 0.6370	 9.4790
 0.6380	 9.4160
 0.6390	 9.3460
 0.6400	 9.2660
 0.6410	 9.1860
 0.6420	 9.1010
 0.6430	 9.0120
 0.6440	 8.9300
 0.6450	 8.8470
 0.6460	 8.7630
 0.6470	 8.6830
 0.6480	 8.6160
 0.6490	 8.5570
 0.6500	 8.5050
 0.6510	 8.4590
 0.6520	 8.4220
 0.6530	 8.3880
 0.6540	 8.3540
 0.6550	 8.3150
 0.6560	 8.2780
 0.6570	 8.2350
 0.6580	 8.1810
 0.6590	 8.1270
 0.6600	 8.0730
 0.6610	 8.0170
 0.6620	 7.9530
 0.6630	 7.8950
 0.6640	 7.8440
 0.6650	 7.7970
 0.6660	 7.7590
 0.6670	 7.7260
 0.6680	 7.6990
 0.6690	 7.6760
 0.6700	 7.6610
 0.6710	 7.6490
 0.6720	 7.6420
 0.6730	 7.6450
 0.6740	 7.6520
 0.6750	 7.6610
 0.6760	 7.6710
 0.6770	 7.6890
 0.6780	 7.7110
 0.6790	 7.7390
 0.6800	 7.7730
 0.6810	 7.8150
 0.6820	 7.8630
 0.6830	 7.9200
 0.6840	 7.9980
 0.6850	 8.0960
 0.6860	 8.2160
 0.6870	 8.3620
 0.6880	 8.5540
 0.6890	 8.7920
 0.6900	 9.0850
 0.6910	 9.4440
 0.6920	 9.8690
 0.6930	10.3590
 0.6940	10.9190
 0.6950	11.5490
 0.6960	12.2360
 0.6970	12.9770
 0.6980	13.7700
 0.6990	14.6060
 0.7000	15.4790
 0.7010	16.3830
 0.7020	17.3090
 0.7030	18.2470
 0.7040	19.2000
 0.7050	20.1650
 0.7060	21.1250
 0.7070	22.0950
 0.7080	23.0700
 0.7090	24.0420
 0.7100	25.0270
 0.7110	26.0110
 0.7120	26.9960
 0.7130	27.9920
 0.7140	28.9840
 0.7150	29.9750
 0.7160	30.9690
 0.7170	31.9560
 0.7180	32.9420
 0.7190	33.9230
 0.7200	34.8920
 0.7210	35.8630
 0.7220	36.8200
 0.7230	37.7580
 0.7240	38.6850
 0.7250	39.5860
 0.7260	40.4630
 0.7270	41.3200
 0.7280	42.1490
 0.7290	42.9420
 0.7300	43.7010
 0.7310	44.4250
 0.7320	45.1280
 0.7330	45.7940
 0.7340	46.4230
 0.7350	47.0380
 0.7360	47.6110
 0.7370	48.1570
 0.7380	48.6790
 0.7390	49.1490
 0.7400	49.5920
 0.7410	50.0150
 0.7420	50.4180
 0.7430	50.7980
 0.7440	51.1460
 0.7450	51.4610
 0.7460	51.7540
 0.7470	52.0310
 0.7480	52.2840
 0.7490	52.5100
 0.7500	52.7230
 0.7510	52.9160
 0.7520	53.0830
 0.7530	53.2300
 0.7540	53.3860
 0.7550	53.5250
 0.7560	53.6360
 0.7570	53.7270
 0.7580	53.8250
 0.7590	53.9180
 0.7600	53.9960
 0.7610	54.0630
 0.7620	54.1270
 0.7630	54.1890
 0.7640	54.2450
 0.7650	54.2810
 0.7660	54.3110
 0.7670	54.3420
 0.7680	54.3810
 0.7690	54.4140
 0.7700	54.4390
 0.7710	54.4570
 0.7720	54.4730
 0.7730	54.4840
 0.7740	54.5030
 0.7750	54.5330
 0.7760	54.5360
 0.7770	54.5470
 0.7780	54.5660
 0.7790	54.5770
 0.7800	54.5870
 0.7810	54.5950
 0.7820	54.6020
 0.7830	54.6110
 0.7840	54.6220
 0.7850	54.6370
 0.7860	54.6530
 0.7870	54.6510
 0.7880	54.6650
 0.7890	54.6840
 0.7900	54.6910
 0.7910	54.6990
 0.7920	54.7080
 0.7930	54.7170
 0.7940	54.7300
 0.7950	54.7440
 0.7960	54.7490
 0.7970	54.7500
 0.7980	54.7600
 0.7990	54.7760
 0.8000	54.7870
 0.8010	54.7900
 0.8020	54.8070
 0.8030	54.8210
 0.8040	54.8260
 0.8050	54.8270
 0.8060	54.8500
 0.8070	54.8630
 0.8080	54.8620
 0.8090	54.8690
 0.8100	54.8810
 0.8110	54.8930
 0.8120	54.9030
 0.8130	54.9240
 0.8140	54.9230
 0.8150	54.9230
 0.8160	54.9480
 0.8170	54.9700
 0.8180	54.9870
 0.8190	55.0010
 0.8200	55.0140
 0.8210	55.0220
 0.8220	55.0200
 0.8230	55.0200
 0.8240	55.0470
 0.8250	55.0630
 0.8260	55.0600
 0.8270	55.0520
 0.8280	55.0770
 0.8290	55.0980
 0.8300	55.1040
 0.8310	55.1010
 0.8320	55.1070
 0.8330	55.1230
 0.8340	55.1370
 0.8350	55.1350
 0.8360	55.1460
 0.8370	55.1630
 0.8380	55.1810
 0.8390	55.1970
 0.8400	55.2050
 0.8410	55.2190
 0.8420	55.2440
 0.8430	55.2670
 0.8440	55.2800
 0.8450	55.2960
 0.8460	55.3250
 0.8470	55.3530
 0.8480	55.3590
 0.8490	55.3660
 0.8500	55.3950
 0.8510	55.3980
 0.8520	55.4050
 0.8530	55.4230
 0.8540	55.4420
 0.8550	55.4460
 0.8560	55.4600
 0.8570	55.4840
 0.8580	55.4890
 0.8590	55.4970
 0.8600	55.5090
 0.8610	55.5250
 0.8620	55.5470
 0.8630	55.5490
 0.8640	55.5500
 0.8650	55.5660
 0.8660	55.5780
 0.8670	55.5780
 0.8680	55.5760
 0.8690	55.5800
 0.8700	55.5820
 0.8710	55.5920
 0.8720	55.6050
 0.8730	55.6050
 0.8740	55.6120
 0.8750	55.6250
 0.8760	55.6350
 0.8770	55.6240
 0.8780	55.6280
 0.8790	55.6310
 0.8800	55.6240
 0.8810	55.6110
 0.8820	55.6190
 0.8830	55.6260
 0.8840	55.6130
 0.8850	55.6070
 0.8860	55.6060
 0.8870	55.6020
 0.8880	55.5910
 0.8890	55.5910
 0.8900	55.5890
 0.8910	55.5810
 0.8920	55.5670
 0.8930	55.5440
 0.8940	55.5470
 0.8950	55.5600
 0.8960	55.5470
 0.8970	55.5360
 0.8980	55.5230
 0.8990	55.5100
 0.9000	55.4990
 0.9010	55.4850
 0.9020	55.4730
 0.9030	55.4640
 0.9040	55.4560
 0.9050	55.4410
 0.9060	55.4230
 0.9070	55.4070
 0.9080	55.3970
 0.9090	55.3840
 0.9100	55.3690
 0.9110	55.3560
 0.9120	55.3470
 0.9130	55.3240
 0.9140	55.3070
 0.9150	55.3100
 0.9160	55.2900
 0.9170	55.2600
 0.9180	55.2330
 0.9190	55.2170
 0.9200	55.2030
 0.9210	55.1830
 0.9220	55.1530
 0.9230	55.1190
 0.9240	55.0870
 0.9250	55.0550
 0.9260	55.0220
 0.9270	54.9870
 0.9280	54.9410
 0.9290	54.8890
 0.9300	54.8320
 0.9310	54.7720
 0.9320	54.7310
 0.9330	54.6930
 0.9340	54.6410
 0.9350	54.5680
 0.9360	54.5010
 0.9370	54.4400
 0.9380	54.3810
 0.9390	54.3150
 0.9400	54.2380
 0.9410	54.1600
 0.9420	54.0870
 0.9430	54.0030
 0.9440	53.9100
 0.9450	53.8250
 0.9460	53.7470
 0.9470	53.6280
 0.9480	53.5010
 0.9490	53.3830
 0.9500	53.2720
 0.9510	53.1320
 0.9520	52.9920
 0.9530	52.8430
 0.9540	52.6760
 0.9550	52.5220
 0.9560	52.3830
 0.9570	52.2520
 0.9580	52.1220
 0.9590	51.9900
 0.9600	51.8680
 0.9610	51.7750
 0.9620	51.7120
 0.9630	51.6350
 0.9640	51.5550
 0.9650	51.4940
 0.9660	51.4660
 0.9670	51.4270
 0.9680	51.3710
 0.9690	51.3270
 0.9700	51.3190
 0.9710	51.2840
 0.9720	51.2570
 0.9730	51.2420
 0.9740	51.2270
 0.9750	51.2070
 0.9760	51.2000
 0.9770	51.2040
 0.9780	51.2080
 0.9790	51.2000
 0.9800	51.1990
 0.9810	51.2140
 0.9820	51.2420
 0.9830	51.2700
 0.9840	51.2940
 0.9850	51.3230
 0.9860	51.3630
 0.9870	51.3830
 0.9880	51.4080
 0.9890	51.4510
 0.9900	51.5090
 0.9910	51.5650
 0.9920	51.6120
 0.9930	51.6520
 0.9940	51.6920
 0.9950	51.7430
 0.9960	51.8140
 0.9970	51.8750
 0.9980	51.9000
 0.9990	51.9560
 1.0000	52.1190
 1.0010	52.2790
 1.0020	52.4190
 1.0030	52.4870
 1.0040	52.5530
 1.0050	52.6150
 1.0060	52.6790
 1.0070	52.7400
 1.0080	52.8000
 1.0090	52.8560
 1.0100	52.9140
 1.0110	52.9730
 1.0120	53.0340
 1.0130	53.0980
 1.0140	53.1610
 1.0150	53.2280
 1.0160	53.2930
 1.0170	53.3540
 1.0180	53.4160
 1.0190	53.4750
 1.0200	53.5310
 1.0210	53.5940
 1.0220	53.6580
 1.0230	53.7200
 1.0240	53.7900
 1.0250	53.8480
 1.0260	53.9000
 1.0270	53.9510
 1.0280	53.9930
 1.0290	54.0430
 1.0300	54.0960
 1.0310	54.1470
 1.0320	54.1990
 1.0330	54.2510
 1.0340	54.2970
 1.0350	54.3410
 1.0360	54.3830
 1.0370	54.4300
 1.0380	54.4730
 1.0390	54.5160
 1.0400	54.5560
 1.0410	54.5940
 1.0420	54.6320
 1.0430	54.6710
 1.0440	54.7050
 1.0450	54.7360
 1.0460	54.7680
 1.0470	54.7920
 1.0480	54.8230
 1.0490	54.8640
 1.0500	54.8970
 1.0510	54.9290
 1.0520	54.9610
 1.0530	54.9890
 1.0540	55.0100
 1.0550	55.0320
 1.0560	55.0520
 1.0570	55.0740
 1.0580	55.0970
 1.0590	55.1140
 1.0600	55.1300
 1.0610	55.1480
 1.0620	55.1620
 1.0630	55.1770
 1.0640	55.1960
 1.0650	55.2120
 1.0660	55.2240
 1.0670	55.2350
 1.0680	55.2450
 1.0690	55.2550
 1.0700	55.2600
 1.0710	55.2610
 1.0720	55.2640
 1.0730	55.2670
 1.0740	55.2660
 1.0750	55.2630
 1.0760	55.2620
 1.0770	55.2590
 1.0780	55.2550
 1.0790	55.2550
 1.0800	55.2490
 1.0810	55.2390
 1.0820	55.2290
 1.0830	55.2150
 1.0840	55.2020
 1.0850	55.1830
 1.0860	55.1710
 1.0870	55.1550
 1.0880	55.1410
 1.0890	55.1220
 1.0900	55.1010
 1.0910	55.0780
 1.0920	55.0480
 1.0930	55.0240
 1.0940	55.0010
 1.0950	54.9760
 1.0960	54.9530
 1.0970	54.9250
 1.0980	54.8920
 1.0990	54.8590
 1.1000	54.8240
 1.1010	54.7900
 1.1020	54.7560
 1.1030	54.7220
 1.1040	54.6850
 1.1050	54.6450
 1.1060	54.6070
 1.1070	54.5670
 1.1080	54.5260
 1.1090	54.4860
 1.1100	54.4440
 1.1110	54.4000
 1.1120	54.3540
 1.1130	54.3090
 1.1140	54.2580
 1.1150	54.2020
 1.1160	54.1450
 1.1170	54.0870
 1.1180	54.0210
 1.1190	53.9520
 1.1200	53.8740
 1.1210	53.7870
 1.1220	53.6970
 1.1230	53.5970
 1.1240	53.4880
 1.1250	53.3670
 1.1260	53.2360
 1.1270	53.0930
 1.1280	52.9430
 1.1290	52.7770
 1.1300	52.6040
 1.1310	52.4090
 1.1320	52.1950
 1.1330	51.9690
 1.1340	51.7240
 1.1350	51.4710
 1.1360	51.2050
 1.1370	50.9280
 1.1380	50.6460
 1.1390	50.3530
 1.1400	50.0480
 1.1410	49.7430
 1.1420	49.4330
 1.1430	49.1190
 1.1440	48.8130
 1.1450	48.5070
 1.1460	48.2120
 1.1470	47.9170
 1.1480	47.6400
 1.1490	47.3700
 1.1500	47.1200
 1.1510	46.8820
 1.1520	46.6610
 1.1530	46.4540
 1.1540	46.2650
 1.1550	46.0930
 1.1560	45.9370
 1.1570	45.7990
 1.1580	45.6760
 1.1590	45.5650
 1.1600	45.4660
 1.1610	45.3770
 1.1620	45.2990
 1.1630	45.2290
 1.1640	45.1650
 1.1650	45.1080
 1.1660	45.0580
 1.1670	45.0130
 1.1680	44.9770
 1.1690	44.9420
 1.1700	44.9140
 1.1710	44.8830
 1.1720	44.8570
 1.1730	44.8270
 1.1740	44.7980
 1.1750	44.7660
 1.1760	44.7340
 1.1770	44.7040
 1.1780	44.6720
 1.1790	44.6400
 1.1800	44.6100
 1.1810	44.5770
 1.1820	44.5430
 1.1830	44.5110
 1.1840	44.4770
 1.1850	44.4440
 1.1860	44.4120
 1.1870	44.3790
 1.1880	44.3500
 1.1890	44.3230
 1.1900	44.2990
 1.1910	44.2770
 1.1920	44.2610
 1.1930	44.2500
 1.1940	44.2390
 1.1950	44.2330
 1.1960	44.2270
 1.1970	44.2220
 1.1980	44.2230
 1.1990	44.2290
 1.2000	44.2400
 1.2010	44.2540
 1.2020	44.2680
 1.2030	44.2850
 1.2040	44.3040
 1.2050	44.3270
 1.2060	44.3530
 1.2070	44.3790
 1.2080	44.4080
 1.2090	44.4420
 1.2100	44.4780
 1.2110	44.5140
 1.2120	44.5500
 1.2130	44.5900
 1.2140	44.6310
 1.2150	44.6760
 1.2160	44.7270
 1.2170	44.7800
 1.2180	44.8300
 1.2190	44.8820
 1.2200	44.9340
 1.2210	44.9880
 1.2220	45.0450
 1.2230	45.1030
 1.2240	45.1620
 1.2250	45.2200
 1.2260	45.2760
 1.2270	45.3310
 1.2280	45.3870
 1.2290	45.4450
 1.2300	45.4990
 1.2310	45.5520
 1.2320	45.6050
 1.2330	45.6530
 1.2340	45.7000
 1.2350	45.7460
 1.2360	45.7930
 1.2370	45.8370
 1.2380	45.8820
 1.2390	45.9280
 1.2400	45.9720
 1.2410	46.0140
 1.2420	46.0540
 1.2430	46.0950
 1.2440	46.1340
 1.2450	46.1700
 1.2460	46.2060
 1.2470	46.2410
 1.2480	46.2760
 1.2490	46.3100
 1.2500	46.3420
 1.2510	46.3750
 1.2520	46.4050
 1.2530	46.4340
 1.2540	46.4610
 1.2550	46.4850
 1.2560	46.5070
 1.2570	46.5260
 1.2580	46.5430
 1.2590	46.5590
 1.2600	46.5710
 1.2610	46.5830
 1.2620	46.5950
 1.2630	46.6050
 1.2640	46.6130
 1.2650	46.6190
 1.2660	46.6220
 1.2670	46.6260
 1.2680	46.6270
 1.2690	46.6270
 1.2700	46.6220
 1.2710	46.6160
 1.2720	46.6080
 1.2730	46.5980
 1.2740	46.5850
 1.2750	46.5710
 1.2760	46.5500
 1.2770	46.5280
 1.2780	46.5070
 1.2790	46.4810
 1.2800	46.4520
 1.2810	46.4220
 1.2820	46.3860
 1.2830	46.3500
 1.2840	46.3140
 1.2850	46.2740
 1.2860	46.2300
 1.2870	46.1820
 1.2880	46.1320
 1.2890	46.0780
 1.2900	46.0190
 1.2910	45.9560
 1.2920	45.8930
 1.2930	45.8240
 1.2940	45.7520
 1.2950	45.6780
 1.2960	45.5950
 1.2970	45.5080
 1.2980	45.4170
 1.2990	45.3210
 1.3000	45.2260
 1.3010	45.1250
 1.3020	45.0170
 1.3030	44.9040
 1.3040	44.7840
 1.3050	44.6620
 1.3060	44.5390
 1.3070	44.4130
 1.3080	44.2810
 1.3090	44.1390
 1.3100	43.9900
 1.3110	43.8320
 1.3120	43.6660
 1.3130	43.4980
 1.3140	43.3250
 1.3150	43.1470
 1.3160	42.9640
 1.3170	42.7810
 1.3180	42.5880
 1.3190	42.3890
 1.3200	42.1860
 1.3210	41.9770
 1.3220	41.7660
 1.3230	41.5520
 1.3240	41.3330
 1.3250	41.1120
 1.3260	40.8880
 1.3270	40.6600
 1.3280	40.4310
 1.3290	40.1950
 1.3300	39.9580
 1.3310	39.7220
 1.3320	39.4820
 1.3330	39.2460
 1.3340	39.0110
 1.3350	38.7740
 1.3360	38.5390
 1.3370	38.3030
 1.3380	38.0670
 1.3390	37.8340
 1.3400	37.6020
 1.3410	37.3770
 1.3420	37.1570
 1.3430	36.9400
 1.3440	36.7250
 1.3450	36.5140
 1.3460	36.3040
 1.3470	36.1010
 1.3480	35.9020
 1.3490	35.7070
 1.3500	35.5160
 1.3510	35.3280
 1.3520	35.1420
 1.3530	34.9570
 1.3540	34.7760
 1.3550	34.5970
 1.3560	34.4190
 1.3570	34.2380
 1.3580	34.0570
 1.3590	33.8730
 1.3600	33.6850
 1.3610	33.4920
 1.3620	33.2900
 1.3630	33.0830
 1.3640	32.8700
 1.3650	32.6460
 1.3660	32.4180
 1.3670	32.1790
 1.3680	31.9260
 1.3690	31.6630
 1.3700	31.3840
 1.3710	31.0890
 1.3720	30.7820
 1.3730	30.4570
 1.3740	30.1190
 1.3750	29.7640
 1.3760	29.3870
 1.3770	28.9920
 1.3780	28.5720
 1.3790	28.1330
 1.3800	27.6760
 1.3810	27.1950
 1.3820	26.7030
 1.3830	26.1940
 1.3840	25.6730
 1.3850	25.1350
 1.3860	24.5940
 1.3870	24.0350
 1.3880	23.4830
 1.3890	22.9280
 1.3900	22.3710
 1.3910	21.8250
 1.3920	21.2830
 1.3930	20.7490
 1.3940	20.2280
 1.3950	19.7150
 1.3960	19.2180
 1.3970	18.7380
 1.3980	18.2750
 1.3990	17.8370
 1.4000	17.4160
 1.4010	17.0130
 1.4020	16.6320
 1.4030	16.2690
 1.4040	15.9270
 1.4050	15.6080
 1.4060	15.3070
 1.4070	15.0270
 1.4080	14.7630
 1.4090	14.5170
 1.4100	14.2880
 1.4110	14.0730
 1.4120	13.8750
 1.4130	13.6910
 1.4140	13.5200
 1.4150	13.3640
 1.4160	13.2200
 1.4170	13.0840
 1.4180	12.9600
 1.4190	12.8460
 1.4200	12.7410
 1.4210	12.6460
 1.4220	12.5570
 1.4230	12.4760
 1.4240	12.4010
 1.4250	12.3320
 1.4260	12.2690
 1.4270	12.2110
 1.4280	12.1570
 1.4290	12.1080
 1.4300	12.0650
 1.4310	12.0260
 1.4320	11.9910
 1.4330	11.9590
 1.4340	11.9320
 1.4350	11.9070
 1.4360	11.8850
 1.4370	11.8670
 1.4380	11.8510
 1.4390	11.8390
 1.4400	11.8290
 1.4410	11.8210
 1.4420	11.8150
 1.4430	11.8100
 1.4440	11.8080
 1.4450	11.8080
 1.4460	11.8090
 1.4470	11.8110
 1.4480	11.8130
 1.4490	11.8170
 1.4500	11.8220
 1.4510	11.8290
 1.4520	11.8370
 1.4530	11.8450
 1.4540	11.8550
 1.4550	11.8680
 1.4560	11.8810
 1.4570	11.8950
 1.4580	11.9120
 1.4590	11.9290
 1.4600	11.9490
 1.4610	11.9740
 1.4620	12.0010
 1.4630	12.0320
 1.4640	12.0640
 1.4650	12.0980
 1.4660	12.1360
 1.4670	12.1760
 1.4680	12.2220
 1.4690	12.2700
 1.4700	12.3200
 1.4710	12.3750
 1.4720	12.4300
 1.4730	12.4880
 1.4740	12.5480
 1.4750	12.6110
 1.4760	12.6770
 1.4770	12.7450
 1.4780	12.8140
 1.4790	12.8850
 1.4800	12.9570
 1.4810	13.0310
 1.4820	13.1070
 1.4830	13.1830
 1.4840	13.2600
 1.4850	13.3380
 1.4860	13.4170
 1.4870	13.4990
 1.4880	13.5800
 1.4890	13.6620
 1.4900	13.7450
 1.4910	13.8290
 1.4920	13.9150
 1.4930	14.0040
 1.4940	14.0920
 1.4950	14.1830
 1.4960	14.2720
 1.4970	14.3600
 1.4980	14.4490
 1.4990	14.5390
 1.5000	14.6300
 1.5010	14.7220
 1.5020	14.8140
 1.5030	14.9050
 1.5040	14.9980
 1.5050	15.0910
 1.5060	15.1840
 1.5070	15.2790
 1.5080	15.3730
 1.5090	15.4680
 1.5100	15.5620
 1.5110	15.6550
 1.5120	15.7480
 1.5130	15.8400
 1.5140	15.9330
 1.5150	16.0260
 1.5160	16.1200
 1.5170	16.2140
 1.5180	16.3050
 1.5190	16.3970
 1.5200	16.4890
 1.5210	16.5780
 1.5220	16.6700
 1.5230	16.7620
 1.5240	16.8520
 1.5250	16.9440
 1.5260	17.0360
 1.5270	17.1260
 1.5280	17.2180
 1.5290	17.3060
 1.5300	17.3950
 1.5310	17.4840
 1.5320	17.5720
 1.5330	17.6620
 1.5340	17.7510
 1.5350	17.8380
 1.5360	17.9240
 1.5370	18.0100
 1.5380	18.0950
 1.5390	18.1810
 1.5400	18.2670
 1.5410	18.3520
 1.5420	18.4360
 1.5430	18.5190
 1.5440	18.6040
 1.5450	18.6860
 1.5460	18.7690
 1.5470	18.8530
 1.5480	18.9350
 1.5490	19.0170
 1.5500	19.1000
 1.5510	19.1830
 1.5520	19.2650
 1.5530	19.3460
 1.5540	19.4250
 1.5550	19.5040
 1.5560	19.5820
 1.5570	19.6610
 1.5580	19.7380
 1.5590	19.8150
 1.5600	19.8910
 1.5610	19.9670
 1.5620	20.0420
 1.5630	20.1200
 1.5640	20.1950
 1.5650	20.2700
 1.5660	20.3460
 1.5670	20.4180
 1.5680	20.4910
 1.5690	20.5630
 1.5700	20.6360
 1.5710	20.7080
 1.5720	20.7790
 1.5730	20.8510
 1.5740	20.9210
 1.5750	20.9900
 1.5760	21.0600
 1.5770	21.1290
 1.5780	21.1970
 1.5790	21.2670
 1.5800	21.3340
 1.5810	21.4010
 1.5820	21.4700
 1.5830	21.5390
 1.5840	21.6070
 1.5850	21.6750
 1.5860	21.7410
 1.5870	21.8050
 1.5880	21.8730
 1.5890	21.9410
 1.5900	22.0080
 1.5910	22.0760
 1.5920	22.1440
 1.5930	22.2100
 1.5940	22.2750
 1.5950	22.3410
 1.5960	22.4060
 1.5970	22.4720
 1.5980	22.5370
 1.5990	22.6020
 1.6000	22.6660
 1.6010	22.7280
 1.6020	22.7920
 1.6030	22.8580
 1.6040	22.9210
 1.6050	22.9850
 1.6060	23.0460
 1.6070	23.1070
 1.6080	23.1680
 1.6090	23.2260
 1.6100	23.2850
 1.6110	23.3420
 1.6120	23.3980
 1.6130	23.4550
 1.6140	23.5110
 1.6150	23.5650
 1.6160	23.6190
 1.6170	23.6700
 1.6180	23.7220
 1.6190	23.7720
 1.6200	23.8210
 1.6210	23.8690
 1.6220	23.9170
 1.6230	23.9640
 1.6240	24.0100
 1.6250	24.0540
 1.6260	24.0980
 1.6270	24.1410
 1.6280	24.1820
 1.6290	24.2240
 1.6300	24.2640
 1.6310	24.3050
 1.6320	24.3460
 1.6330	24.3860
 1.6340	24.4250
 1.6350	24.4640
 1.6360	24.5020
 1.6370	24.5390
 1.6380	24.5760
 1.6390	24.6110
 1.6400	24.6440
 1.6410	24.6760
 1.6420	24.7070
 1.6430	24.7350
 1.6440	24.7610
 1.6450	24.7830
 1.6460	24.8040
 1.6470	24.8230
 1.6480	24.8390
 1.6490	24.8540
 1.6500	24.8650
 1.6510	24.8720
 1.6520	24.8780
 1.6530	24.8820
 1.6540	24.8840
 1.6550	24.8850
 1.6560	24.8830
 1.6570	24.8800
 1.6580	24.8760
 1.6590	24.8710
 1.6600	24.8660
 1.6610	24.8590
 1.6620	24.8510
 1.6630	24.8460
 1.6640	24.8410
 1.6650	24.8390
 1.6660	24.8360
 1.6670	24.8310
 1.6680	24.8280
 1.6690	24.8230
 1.6700	24.8180
 1.6710	24.8150
 1.6720	24.8090
 1.6730	24.8040
 1.6740	24.8000
 1.6750	24.7920
 1.6760	24.7840
 1.6770	24.7750
 1.6780	24.7640
 1.6790	24.7530
 1.6800	24.7410
 1.6810	24.7270
 1.6820	24.7100
 1.6830	24.6930
 1.6840	24.6720
 1.6850	24.6490
 1.6860	24.6240
 1.6870	24.5970
 1.6880	24.5680
 1.6890	24.5370
 1.6900	24.5050
 1.6910	24.4700
 1.6920	24.4350
 1.6930	24.3980
 1.6940	24.3620
 1.6950	24.3260
 1.6960	24.2880
 1.6970	24.2510
 1.6980	24.2120
 1.6990	24.1720
 1.7000	24.1320
 1.7010	24.0930
 1.7020	24.0530
 1.7030	24.0150
 1.7040	23.9740
 1.7050	23.9350
 1.7060	23.8920
 1.7070	23.8450
 1.7080	23.8000
 1.7090	23.7530
 1.7100	23.7070
 1.7110	23.6620
 1.7120	23.6150
 1.7130	23.5680
 1.7140	23.5220
 1.7150	23.4720
 1.7160	23.4210
 1.7170	23.3710
 1.7180	23.3200
 1.7190	23.2690
 1.7200	23.2180
 1.7210	23.1660
 1.7220	23.1140
 1.7230	23.0640
 1.7240	23.0130
 1.7250	22.9620
 1.7260	22.9100
 1.7270	22.8590
 1.7280	22.8090
 1.7290	22.7590
 1.7300	22.7090
 1.7310	22.6600
 1.7320	22.6110
 1.7330	22.5630
 1.7340	22.5150
 1.7350	22.4670
 1.7360	22.4190
 1.7370	22.3710
 1.7380	22.3240
 1.7390	22.2740
 1.7400	22.2220
 1.7410	22.1680
 1.7420	22.1120
 1.7430	22.0560
 1.7440	21.9990
 1.7450	21.9420
 1.7460	21.8840
 1.7470	21.8260
 1.7480	21.7700
 1.7490	21.7110
 1.7500	21.6520
 1.7510	21.5930
 1.7520	21.5320
 1.7530	21.4730
 1.7540	21.4140
 1.7550	21.3560
 1.7560	21.2950
 1.7570	21.2350
 1.7580	21.1760
 1.7590	21.1190
 1.7600	21.0650
 1.7610	21.0100
 1.7620	20.9590
 1.7630	20.9080
 1.7640	20.8600
 1.7650	20.8140
 1.7660	20.7690
 1.7670	20.7240
 1.7680	20.6830
 1.7690	20.6450
 1.7700	20.6070
 1.7710	20.5710
 1.7720	20.5360
 1.7730	20.5020
 1.7740	20.4690
 1.7750	20.4380
 1.7760	20.4050
 1.7770	20.3690
 1.7780	20.3390
 1.7790	20.3090
 1.7800	20.2840
 1.7810	20.2630
 1.7820	20.2430
 1.7830	20.2230
 1.7840	20.2050
 1.7850	20.1870
 1.7860	20.1730
 1.7870	20.1590
 1.7880	20.1490
 1.7890	20.1410
 1.7900	20.1350
 1.7910	20.1300
 1.7920	20.1260
 1.7930	20.1230
 1.7940	20.1190
 1.7950	20.1190
 1.7960	20.1230
 1.7970	20.1250
 1.7980	20.1290
 1.7990	20.1320
 1.8000	20.1320
 1.8010	20.1350
 1.8020	20.1410
 1.8030	20.1460
 1.8040	20.1510
 1.8050	20.1560
 1.8060	20.1590
 1.8070	20.1650
 1.8080	20.1710
 1.8090	20.1780
 1.8100	20.1870
 1.8110	20.1940
 1.8120	20.2010
 1.8130	20.2050
 1.8140	20.2060
 1.8150	20.2080
 1.8160	20.2100
 1.8170	20.2110
 1.8180	20.2140
 1.8190	20.2150
 1.8200	20.2140
 1.8210	20.2140
 1.8220	20.2110
 1.8230	20.2070
 1.8240	20.2010
 1.8250	20.1930
 1.8260	20.1850
 1.8270	20.1760
 1.8280	20.1670
 1.8290	20.1590
 1.8300	20.1200
 1.8310	20.0690
 1.8320	20.0210
 1.8330	20.0000
 1.8340	19.9730
 1.8350	19.9400
 1.8360	19.9050
 1.8370	19.8680
 1.8380	19.8270
 1.8390	19.7810
 1.8400	19.7330
 1.8410	19.6770
 1.8420	19.6150
 1.8430	19.5470
 1.8440	19.4730
 1.8450	19.3900
 1.8460	19.3050
 1.8470	19.2120
 1.8480	19.1110
 1.8490	19.0050
 1.8500	18.8900
 1.8510	18.7670
 1.8520	18.6370
 1.8530	18.4970
 1.8540	18.3470
 1.8550	18.1860
 1.8560	18.0120
 1.8570	17.8270
 1.8580	17.6340
 1.8590	17.4350
 1.8600	17.2270
 1.8610	17.0080
 1.8620	16.7820
 1.8630	16.5470
 1.8640	16.2990
 1.8650	16.0450
 1.8660	15.7790
 1.8670	15.5010
 1.8680	15.2160
 1.8690	14.9160
 1.8700	14.6080
 1.8710	14.2910
 1.8720	13.9720
 1.8730	13.6420
 1.8740	13.3130
 1.8750	12.9840
 1.8760	12.6520
 1.8770	12.3240
 1.8780	11.9980
 1.8790	11.6740
 1.8800	11.3600
 1.8810	11.0520
 1.8820	10.7490
 1.8830	10.4540
 1.8840	10.1670
 1.8850	 9.8860
 1.8860	 9.6190
 1.8870	 9.3610
 1.8880	 9.1120
 1.8890	 8.8780
 1.8900	 8.6520
 1.8910	 8.4400
 1.8920	 8.2390
 1.8930	 8.0540
 1.8940	 7.8790
 1.8950	 7.7160
 1.8960	 7.5660
 1.8970	 7.4260
 1.8980	 7.3000
 1.8990	 7.1870
 1.9000	 7.0800
 1.9010	 6.9860
 1.9020	 6.8980
 1.9030	 6.8200
 1.9040	 6.7480
 1.9050	 6.6830
 1.9060	 6.6250
 1.9070	 6.5700
 1.9080	 6.5220
 1.9090	 6.4780
 1.9100	 6.4390
 1.9110	 6.4060
 1.9120	 6.3810
 1.9130	 6.3570
 1.9140	 6.3370
 1.9150	 6.3190
 1.9160	 6.3000
 1.9170	 6.2810
 1.9180	 6.2630
 1.9190	 6.2460
 1.9200	 6.2310
 1.9210	 6.2180
 1.9220	 6.2090
 1.9230	 6.2080
 1.9240	 6.2040
 1.9250	 6.2030
 1.9260	 6.2020
 1.9270	 6.2000
 1.9280	 6.1990
 1.9290	 6.1970
 1.9300	 6.2010
 1.9310	 6.2060
 1.9320	 6.2090
 1.9330	 6.2140
 1.9340	 6.2200
 1.9350	 6.2270
 1.9360	 6.2340
 1.9370	 6.2430
 1.9380	 6.2550
 1.9390	 6.2690
 1.9400	 6.2780
 1.9410	 6.2890
 1.9420	 6.3020
 1.9430	 6.3100
 1.9440	 6.3220
 1.9450	 6.3370
 1.9460	 6.3510
 1.9470	 6.3660
 1.9480	 6.3830
 1.9490	 6.4020
 1.9500	 6.4190
 1.9510	 6.4390
 1.9520	 6.4590
 1.9530	 6.4780
 1.9540	 6.4980
 1.9550	 6.5180
 1.9560	 6.5380
 1.9570	 6.5580
 1.9580	 6.5780
 1.9590	 6.5980
 1.9600	 6.6170
 1.9610	 6.6370
 1.9620	 6.6570
 1.9630	 6.6760
 1.9640	 6.6990
 1.9650	 6.7220
 1.9660	 6.7470
 1.9670	 6.7760
 1.9680	 6.8030
 1.9690	 6.8310
 1.9700	 6.8570
 1.9710	 6.8820
 1.9720	 6.9080
 1.9730	 6.9340
 1.9740	 6.9600
 1.9750	 6.9880
 1.9760	 7.0200
 1.9770	 7.0500
 1.9780	 7.0800
 1.9790	 7.1100
 1.9800	 7.1370
 1.9810	 7.1680
 1.9820	 7.2000
 1.9830	 7.2310
 1.9840	 7.2670
 1.9850	 7.2990
 1.9860	 7.3270
 1.9870	 7.3570
 1.9880	 7.3910
 1.9890	 7.4240
 1.9900	 7.4590
 1.9910	 7.4980
 1.9920	 7.5320
 1.9930	 7.5640
 1.9940	 7.5980
 1.9950	 7.6290
 1.9960	 7.6620
 1.9970	 7.6970
 1.9980	 7.7300
 1.9990	 7.7640
 2.0000	 7.7980
 2.0010	 7.8340
 2.0020	 7.8680
 2.0030	 7.9010
 2.0040	 7.9360
 2.0050	 7.9720
 2.0060	 8.0070
 2.0070	 8.0420
 2.0080	 8.0780
 2.0090	 8.1130
 2.0100	 8.1440
 2.0110	 8.1790
 2.0120	 8.2150
 2.0130	 8.2500
 2.0140	 8.2860
 2.0150	 8.3190
 2.0160	 8.3510
 2.0170	 8.3830
 2.0180	 8.4160
 2.0190	 8.4490
 2.0200	 8.4820
 2.0210	 8.5150
 2.0220	 8.5480
 2.0230	 8.5810
 2.0240	 8.6130
 2.0250	 8.6410
 2.0260	 8.6720
 2.0270	 8.7040
 2.0280	 8.7330
 2.0290	 8.7620
 2.0300	 8.7930
 2.0310	 8.8220
 2.0320	 8.8480
 2.0330	 8.8770
 2.0340	 8.9080
 2.0350	 8.9360
 2.0360	 8.9640
 2.0370	 8.9920
 2.0380	 9.0170
 2.0390	 9.0440
 2.0400	 9.0720
 2.0410	 9.0990
 2.0420	 9.1240
 2.0430	 9.1490
 2.0440	 9.1730
 2.0450	 9.1950
 2.0460	 9.2170
 2.0470	 9.2390
 2.0480	 9.2600
 2.0490	 9.2830
 2.0500	 9.3040
 2.0510	 9.3230
 2.0520	 9.3440
 2.0530	 9.3640
 2.0540	 9.3850
 2.0550	 9.4090
 2.0560	 9.4340
 2.0570	 9.4600
 2.0580	 9.4830
 2.0590	 9.5060
 2.0600	 9.5280
 2.0610	 9.5500
 2.0620	 9.5720
 2.0630	 9.5940
 2.0640	 9.6180
 2.0650	 9.6410
 2.0660	 9.6630
 2.0670	 9.6870
 2.0680	 9.7090
 2.0690	 9.7320
 2.0700	 9.7600
 2.0710	 9.7830
 2.0720	 9.8040
 2.0730	 9.8240
 2.0740	 9.8450
 2.0750	 9.8630
 2.0760	 9.8850
 2.0770	 9.9110
 2.0780	 9.9340
 2.0790	 9.9580
 2.0800	 9.9800
 2.0810	 9.9970
 2.0820	10.0180
 2.0830	10.0370
 2.0840	10.0590
 2.0850	10.0840
 2.0860	10.1080
 2.0870	10.1310
 2.0880	10.1550
 2.0890	10.1790
 2.0900	10.2020
 2.0910	10.2250
 2.0920	10.2470
 2.0930	10.2720
 2.0940	10.3010
 2.0950	10.3260
 2.0960	10.3520
 2.0970	10.3750
 2.0980	10.3870
 2.0990	10.4080
 2.1000	10.4330
 2.1010	10.4560
 2.1020	10.4820
 2.1030	10.5050
 2.1040	10.5250
 2.1050	10.5470
 2.1060	10.5700
 2.1070	10.5940
 2.1080	10.6180
 2.1090	10.6430
 2.1100	10.6670
 2.1110	10.6920
 2.1120	10.7150
 2.1130	10.7360
 2.1140	10.7570
 2.1150	10.7780
 2.1160	10.8000
 2.1170	10.8210
 2.1180	10.8440
 2.1190	10.8650
 2.1200	10.8890
 2.1210	10.9130
 2.1220	10.9390
 2.1230	10.9640
 2.1240	10.9910
 2.1250	11.0160
 2.1260	11.0390
 2.1270	11.0630
 2.1280	11.0870
 2.1290	11.1100
 2.1300	11.1360
 2.1310	11.1580
 2.1320	11.1760
 2.1330	11.1990
 2.1340	11.2220
 2.1350	11.2450
 2.1360	11.2700
 2.1370	11.2920
 2.1380	11.3090
 2.1390	11.3290
 2.1400	11.3490
 2.1410	11.3730
 2.1420	11.3950
 2.1430	11.4210
 2.1440	11.4420
 2.1450	11.4620
 2.1460	11.4820
 2.1470	11.4980
 2.1480	11.5160
 2.1490	11.5320
 2.1500	11.5510
 2.1510	11.5720
 2.1520	11.5930
 2.1530	11.6180
 2.1540	11.6390
 2.1550	11.6590
 2.1560	11.6780
 2.1570	11.6940
 2.1580	11.7110
 2.1590	11.7290
 2.1600	11.7450
 2.1610	11.7630
 2.1620	11.7800
 2.1630	11.7970
 2.1640	11.8120
 2.1650	11.8280
 2.1660	11.8410
 2.1670	11.8580
 2.1680	11.8770
 2.1690	11.8970
 2.1700	11.9230
 2.1710	11.9430
 2.1720	11.9590
 2.1730	11.9770
 2.1740	11.9930
 2.1750	12.0090
 2.1760	12.0270
 2.1770	12.0450
 2.1780	12.0650
 2.1790	12.0820
 2.1800	12.1000
 2.1810	12.1160
 2.1820	12.1280
 2.1830	12.1380
 2.1840	12.1490
 2.1850	12.1580
 2.1860	12.1720
 2.1870	12.1890
 2.1880	12.2050
 2.1890	12.2250
 2.1900	12.2400
 2.1910	12.2480
 2.1920	12.2630
 2.1930	12.2770
 2.1940	12.2920
 2.1950	12.3110
 2.1960	12.3270
 2.1970	12.3440
 2.1980	12.3580
 2.1990	12.3680
 2.2000	12.3800
 2.2010	12.3920
 2.2020	12.4040
 2.2030	12.4190
 2.2040	12.4320
 2.2050	12.4420
 2.2060	12.4520
 2.2070	12.4600
 2.2080	12.4670
 2.2090	12.4730
 2.2100	12.4760
 2.2110	12.4810
 2.2120	12.4870
 2.2130	12.4890
 2.2140	12.4910
 2.2150	12.4910
 2.2160	12.4840
 2.2170	12.4840
 2.2180	12.4890
 2.2190	12.4900
 2.2200	12.4960
 2.2210	12.4940
 2.2220	12.4830
 2.2230	12.4770
 2.2240	12.4720
 2.2250	12.4640
 2.2260	12.4570
 2.2270	12.4460
 2.2280	12.4320
 2.2290	12.4170
 2.2300	12.3980
 2.2310	12.3820
 2.2320	12.3650
 2.2330	12.3400
 2.2340	12.3170
 2.2350	12.2940
 2.2360	12.2690
 2.2370	12.2430
 2.2380	12.2160
 2.2390	12.1900
 2.2400	12.1590
 2.2410	12.1220
 2.2420	12.0900
 2.2430	12.0590
 2.2440	12.0240
 2.2450	11.9910
 2.2460	11.9560
 2.2470	11.9150
 2.2480	11.8770
 2.2490	11.8430
 2.2500	11.8070
 2.2510	11.7740
 2.2520	11.7350
 2.2530	11.6930
 2.2540	11.6500
 2.2550	11.5980
 2.2560	11.5540
 2.2570	11.5160
 2.2580	11.4740
 2.2590	11.4380
 2.2600	11.3980
 2.2610	11.3520
 2.2620	11.3070
 2.2630	11.2640
 2.2640	11.2150
 2.2650	11.1710
 2.2660	11.1320
 2.2670	11.0950
 2.2680	11.0590
 2.2690	11.0280
 2.2700	11.0000
 2.2710	10.9710
 2.2720	10.9430
 2.2730	10.9170
 2.2740	10.8920
 2.2750	10.8630
 2.2760	10.8320
 2.2770	10.8060
 2.2780	10.7750
 2.2790	10.7510
 2.2800	10.7360
 2.2810	10.7190
 2.2820	10.7040
 2.2830	10.6860
 2.2840	10.6680
 2.2850	10.6500
 2.2860	10.6300
 2.2870	10.6100
 2.2880	10.5920
 2.2890	10.5720
 2.2900	10.5500
 2.2910	10.5270
 2.2920	10.5040
 2.2930	10.4810
 2.2940	10.4640
 2.2950	10.4390
 2.2960	10.4080
 2.2970	10.3800
 2.2980	10.3520
 2.2990	10.3160
 2.3000	10.2860
 2.3010	10.2590
 2.3020	10.2250
 2.3030	10.1940
 2.3040	10.1670
 2.3050	10.1400
 2.3060	10.1160
 2.3070	10.0920
 2.3080	10.0690
 2.3090	10.0430
 2.3100	10.0180
 2.3110	 9.9960
 2.3120	 9.9790
 2.3130	 9.9680
 2.3140	 9.9560
 2.3150	 9.9490
 2.3160	 9.9380
 2.3170	 9.9240
 2.3180	 9.9120
 2.3190	 9.9010
 2.3200	 9.8860
 2.3210	 9.8710
 2.3220	 9.8500
 2.3230	 9.8210
 2.3240	 9.8010
 2.3250	 9.7810
 2.3260	 9.7610
 2.3270	 9.7470
 2.3280	 9.7250
 2.3290	 9.6940
 2.3300	 9.6700
 2.3310	 9.6430
 2.3320	 9.6220
 2.3330	 9.6100
 2.3340	 9.5920
 2.3350	 9.5760
 2.3360	 9.5550
 2.3370	 9.5300
 2.3380	 9.5060
 2.3390	 9.4830
 2.3400	 9.4550
 2.3410	 9.4170
 2.3420	 9.3910
 2.3430	 9.3680
 2.3440	 9.3460
 2.3450	 9.3370
 2.3460	 9.3180
 2.3470	 9.2880
 2.3480	 9.2660
 2.3490	 9.2410
 2.3500	 9.2220
 2.3510	 9.2130
 2.3520	 9.1990
 2.3530	 9.1870
 2.3540	 9.1720
 2.3550	 9.1480
 2.3560	 9.1270
 2.3570	 9.1100
 2.3580	 9.0910
 2.3590	 9.0750
 2.3600	 9.0630
 2.3610	 9.0420
 2.3620	 9.0220
 2.3630	 9.0050
 2.3640	 8.9870
 2.3650	 8.9730
 2.3660	 8.9570
 2.3670	 8.9360
 2.3680	 8.9090
 2.3690	 8.8770
 2.3700	 8.8500
 2.3710	 8.8370
 2.3720	 8.8160
 2.3730	 8.7970
 2.3740	 8.7810
 2.3750	 8.7480
 2.3760	 8.7270
 2.3770	 8.7120
 2.3780	 8.6900
 2.3790	 8.6780
 2.3800	 8.6560
 2.3810	 8.6360
 2.3820	 8.6170
 2.3830	 8.5860
 2.3840	 8.5680
 2.3850	 8.5440
 2.3860	 8.5090
 2.3870	 8.4870
 2.3880	 8.4650
 2.3890	 8.4470
 2.3900	 8.4420
 2.3910	 8.4320
 2.3920	 8.4170
 2.3930	 8.4080
 2.3940	 8.3920
 2.3950	 8.3720
 2.3960	 8.3470
 2.3970	 8.3150
 2.3980	 8.2850
 2.3990	 8.2550
 2.4000	 8.2260
 2.4010	 8.2180
 2.4020	 8.2040
 2.4030	 8.1850
 2.4040	 8.1940
 2.4050	 8.1830
 2.4060	 8.1590
 2.4070	 8.1390
 2.4080	 8.1000
 2.4090	 8.0720
 2.4100	 8.0580
 2.4110	 8.0470
 2.4120	 8.0390
 2.4130	 8.0100
 2.4140	 7.9710
 2.4150	 7.9490
 2.4160	 7.9140
 2.4170	 7.8860
 2.4180	 7.8700
 2.4190	 7.8470
 2.4200	 7.8300
 2.4210	 7.8100
 2.4220	 7.7910
 2.4230	 7.7660
 2.4240	 7.7300
 2.4250	 7.7040
 2.4260	 7.6800
 2.4270	 7.6570
 2.4280	 7.6430
 2.4290	 7.6290
 2.4300	 7.6070
 2.4310	 7.5770
 2.4320	 7.5490
 2.4330	 7.5240
 2.4340	 7.5010
 2.4350	 7.4850
 2.4360	 7.4700
 2.4370	 7.4610
 2.4380	 7.4450
 2.4390	 7.4030
 2.4400	 7.3610
 2.4410	 7.3180
 2.4420	 7.2780
 2.4430	 7.2600
 2.4440	 7.2380
 2.4450	 7.2140
 2.4460	 7.2010
 2.4470	 7.1980
 2.4480	 7.1990
 2.4490	 7.1810
 2.4500	 7.1560
 2.4510	 7.1160
 2.4520	 7.0880
 2.4530	 7.1020
 2.4540	 7.0960
 2.4550	 7.0780
 2.4560	 7.0640
 2.4570	 7.0340
 2.4580	 7.0090
 2.4590	 6.9970
 2.4600	 6.9880
 2.4610	 6.9600
 2.4620	 6.9370
 2.4630	 6.9380
 2.4640	 6.9350
 2.4650	 6.9270
 2.4660	 6.9120
 2.4670	 6.8930
 2.4680	 6.8640
 2.4690	 6.8180
 2.4700	 6.8030
 2.4710	 6.7780
 2.4720	 6.7640
 2.4730	 6.7910
 2.4740	 6.7850
 2.4750	 6.7680
 2.4760	 6.7640
 2.4770	 6.7590
 2.4780	 6.7420
 2.4790	 6.7210
 2.4800	 6.6850
 2.4810	 6.6150
 2.4820	 6.5940
 2.4830	 6.5750
 2.4840	 6.5630
 2.4850	 6.5780
 2.4860	 6.5670
 2.4870	 6.5580
 2.4880	 6.5820
 2.4890	 6.5840
 2.4900	 6.5820
 2.4910	 6.6020
 2.4920	 6.6080
 2.4930	 6.5890
 2.4940	 6.5660
 2.4950	 6.5400
 2.4960	 6.5350
 2.4970	 6.5280
 2.4980	 6.5220
 2.4990	 6.5130
 2.5000	 6.4170
