Name: Quercus rubra
Type: Vegetation
Class: Tree
Genus: Quercus
Species: rubra
Sample No.: QURU-3-11
Owner: UCSB
Wavelength Range: TIR
Origin: USA; Massachusetts; Harvard Forest
Collection Date: 7/8/2013
Description: Samples were collected as part of NSF Macrosystem Biology proposal titled: Collaborative Research: Thermal controls on ecosystem metabolism and function: scaling from leaves to canopies to regions. Samples were collected and overnighted to JPL facilities for processing. The same leaves were processed in the Nicolet and then measured using the ASD.
Measurement: Hemispherical reflectance
First Column: X
Second Column: Y
X Units: Wavelength (micrometers)
Y Units: Reflectance (percentage)
First X Value: 2.501
Last X Value: 15.387
Number of X Values: 1737
Additional Information: vegetation.tree.quercus.rubra.tir.quru-3-11.ucsb.nicolet.ancillary.txt

 2.5010	 6.2810
 2.5030	 6.3330
 2.5040	 6.3620
 2.5050	 6.5300
 2.5060	 6.5920
 2.5070	 6.1180
 2.5090	 6.1460
 2.5100	 6.3520
 2.5110	 6.3150
 2.5120	 6.1220
 2.5140	 6.1610
 2.5150	 6.2670
 2.5160	 6.2020
 2.5170	 6.0600
 2.5180	 6.0670
 2.5200	 5.9690
 2.5210	 5.9370
 2.5220	 6.0050
 2.5230	 6.0890
 2.5250	 6.2130
 2.5260	 6.1630
 2.5270	 6.1760
 2.5280	 6.2770
 2.5290	 6.1170
 2.5310	 5.9420
 2.5320	 5.8620
 2.5330	 6.1320
 2.5340	 6.2690
 2.5360	 6.1610
 2.5370	 6.0090
 2.5380	 6.0050
 2.5390	 6.1250
 2.5410	 6.1440
 2.5420	 6.2520
 2.5430	 6.2980
 2.5440	 6.0350
 2.5460	 5.9270
 2.5470	 5.9440
 2.5480	 6.1220
 2.5490	 6.0920
 2.5510	 6.0220
 2.5520	 5.8730
 2.5530	 5.9140
 2.5540	 5.9170
 2.5560	 5.8970
 2.5570	 5.8970
 2.5580	 6.1060
 2.5590	 6.1960
 2.5610	 6.2430
 2.5620	 6.0490
 2.5630	 5.9670
 2.5640	 6.0050
 2.5660	 6.1490
 2.5670	 6.1190
 2.5680	 6.1750
 2.5700	 6.1560
 2.5710	 6.2470
 2.5720	 6.0310
 2.5730	 5.9750
 2.5750	 6.0240
 2.5760	 6.1400
 2.5770	 5.9600
 2.5790	 5.8620
 2.5800	 6.0400
 2.5810	 6.1280
 2.5820	 6.1430
 2.5840	 6.2440
 2.5850	 5.9130
 2.5860	 5.6010
 2.5880	 5.6950
 2.5890	 5.8320
 2.5900	 5.8640
 2.5910	 6.1020
 2.5930	 6.2030
 2.5940	 6.4230
 2.5950	 6.3800
 2.5970	 6.2150
 2.5980	 6.1970
 2.5990	 6.1530
 2.6000	 5.9100
 2.6020	 5.9720
 2.6030	 5.9850
 2.6040	 5.8710
 2.6060	 5.9030
 2.6070	 6.0980
 2.6080	 6.1370
 2.6100	 5.9280
 2.6110	 5.8020
 2.6120	 5.8430
 2.6140	 5.7720
 2.6150	 5.8240
 2.6160	 5.8360
 2.6180	 5.8330
 2.6190	 5.7620
 2.6200	 5.5130
 2.6220	 5.3660
 2.6230	 5.5590
 2.6240	 5.4510
 2.6260	 5.4710
 2.6270	 5.5060
 2.6280	 5.4510
 2.6300	 5.5080
 2.6310	 5.5630
 2.6320	 5.4180
 2.6340	 5.3530
 2.6350	 5.3100
 2.6360	 5.4260
 2.6380	 5.3500
 2.6390	 5.2820
 2.6400	 5.2730
 2.6420	 5.3540
 2.6430	 5.3630
 2.6440	 5.1870
 2.6460	 5.0970
 2.6470	 5.0680
 2.6480	 4.8750
 2.6500	 4.7970
 2.6510	 4.6320
 2.6520	 4.8890
 2.6540	 5.1880
 2.6550	 5.1120
 2.6560	 4.9170
 2.6580	 5.0610
 2.6590	 5.1100
 2.6610	 5.1920
 2.6620	 5.2690
 2.6630	 5.0720
 2.6650	 4.8380
 2.6660	 4.7200
 2.6670	 4.7670
 2.6690	 4.9280
 2.6700	 5.0330
 2.6720	 5.0340
 2.6730	 4.8320
 2.6740	 4.9170
 2.6760	 4.9040
 2.6770	 4.9070
 2.6780	 4.8640
 2.6800	 5.0810
 2.6810	 5.0290
 2.6830	 4.9810
 2.6840	 4.8020
 2.6850	 4.7080
 2.6870	 4.7540
 2.6880	 4.8690
 2.6900	 4.7600
 2.6910	 4.6260
 2.6920	 4.3110
 2.6940	 4.5280
 2.6950	 5.0220
 2.6970	 4.9780
 2.6980	 4.8120
 2.6990	 4.9830
 2.7010	 5.1560
 2.7020	 4.9330
 2.7040	 4.6710
 2.7050	 4.8080
 2.7060	 4.8670
 2.7080	 4.9020
 2.7090	 4.6430
 2.7110	 4.5260
 2.7120	 4.4690
 2.7130	 4.5710
 2.7150	 4.5800
 2.7160	 4.3670
 2.7180	 4.3580
 2.7190	 4.7480
 2.7210	 4.6850
 2.7220	 4.4200
 2.7230	 4.5030
 2.7250	 4.8920
 2.7260	 4.7510
 2.7280	 4.5970
 2.7290	 4.3910
 2.7310	 4.6530
 2.7320	 4.8050
 2.7330	 4.5490
 2.7350	 4.4980
 2.7360	 4.8310
 2.7380	 4.8910
 2.7390	 4.7940
 2.7410	 4.7410
 2.7420	 4.6160
 2.7440	 4.3780
 2.7450	 4.2540
 2.7470	 4.5600
 2.7480	 4.8620
 2.7490	 4.6500
 2.7510	 4.4960
 2.7520	 4.0390
 2.7540	 4.4990
 2.7550	 4.9440
 2.7570	 4.3180
 2.7580	 4.0500
 2.7600	 4.4140
 2.7610	 4.3070
 2.7630	 4.4040
 2.7640	 4.5430
 2.7660	 4.3070
 2.7670	 4.4310
 2.7680	 4.7660
 2.7700	 4.6810
 2.7710	 4.7830
 2.7730	 4.7600
 2.7740	 4.8150
 2.7760	 4.8440
 2.7770	 4.8450
 2.7790	 4.6060
 2.7800	 4.7140
 2.7820	 4.8000
 2.7830	 4.6810
 2.7850	 4.5580
 2.7860	 4.5350
 2.7880	 4.5850
 2.7890	 4.7380
 2.7910	 4.7950
 2.7920	 4.8060
 2.7940	 4.5230
 2.7950	 4.8320
 2.7970	 5.0090
 2.7980	 4.8830
 2.8000	 4.9940
 2.8010	 4.9250
 2.8030	 4.5080
 2.8040	 4.4090
 2.8060	 4.6120
 2.8070	 4.7310
 2.8090	 4.5390
 2.8110	 4.4380
 2.8120	 4.3640
 2.8140	 4.3530
 2.8150	 4.4510
 2.8170	 4.6680
 2.8180	 4.7270
 2.8200	 4.5400
 2.8210	 4.6180
 2.8230	 4.5840
 2.8240	 4.4940
 2.8260	 4.7740
 2.8270	 4.9080
 2.8290	 4.7630
 2.8300	 4.8280
 2.8320	 4.6890
 2.8340	 4.3410
 2.8350	 4.3860
 2.8370	 4.1980
 2.8380	 4.3730
 2.8400	 4.5900
 2.8410	 4.6640
 2.8430	 4.7460
 2.8440	 4.9520
 2.8460	 4.8330
 2.8480	 4.6640
 2.8490	 4.4840
 2.8510	 4.5760
 2.8520	 4.7950
 2.8540	 4.7980
 2.8550	 4.5950
 2.8570	 4.4260
 2.8590	 4.2830
 2.8600	 4.2870
 2.8620	 4.4900
 2.8630	 4.6870
 2.8650	 4.8130
 2.8660	 4.7840
 2.8680	 4.6410
 2.8700	 4.6410
 2.8710	 4.4320
 2.8730	 4.5070
 2.8740	 4.5980
 2.8760	 4.5860
 2.8780	 4.6300
 2.8790	 4.7370
 2.8810	 4.0330
 2.8820	 3.8730
 2.8840	 4.4530
 2.8860	 4.9180
 2.8870	 4.5330
 2.8890	 4.1600
 2.8900	 4.4450
 2.8920	 4.8450
 2.8940	 4.9790
 2.8950	 4.8540
 2.8970	 4.8920
 2.8980	 4.9290
 2.9000	 4.7950
 2.9020	 4.9460
 2.9030	 4.7840
 2.9050	 4.6260
 2.9070	 4.7410
 2.9080	 4.7620
 2.9100	 4.5400
 2.9120	 4.3990
 2.9130	 4.4110
 2.9150	 4.7110
 2.9160	 4.6650
 2.9180	 4.5450
 2.9200	 4.4470
 2.9210	 4.5320
 2.9230	 4.6210
 2.9250	 4.6110
 2.9260	 4.7200
 2.9280	 4.6970
 2.9300	 4.6320
 2.9310	 4.6680
 2.9330	 4.5890
 2.9350	 4.7530
 2.9360	 4.7330
 2.9380	 4.8020
 2.9400	 5.0580
 2.9410	 4.9860
 2.9430	 4.8030
 2.9450	 4.9050
 2.9460	 4.7450
 2.9480	 4.4230
 2.9500	 4.5870
 2.9510	 4.9020
 2.9530	 4.6610
 2.9550	 4.1420
 2.9560	 4.4820
 2.9580	 4.8840
 2.9600	 3.6260
 2.9610	 3.4870
 2.9630	 4.8200
 2.9650	 6.1060
 2.9660	 5.5920
 2.9680	 4.3900
 2.9700	 4.9100
 2.9720	 3.7060
 2.9730	 3.3160
 2.9750	 7.2740
 2.9770	 7.7070
 2.9780	 5.6470
 2.9800	 4.5810
 2.9820	 4.5660
 2.9840	 4.0850
 2.9850	 3.5320
 2.9870	 4.6410
 2.9890	 6.1290
 2.9900	 7.0790
 2.9920	 7.6360
 2.9940	 5.8150
 2.9960	 4.1480
 2.9970	 4.8210
 2.9990	 5.6290
 3.0010	 4.4030
 3.0030	 3.7840
 3.0040	 3.9560
 3.0060	 5.0800
 3.0080	 5.1040
 3.0100	 4.3190
 3.0110	 4.3990
 3.0130	 4.5910
 3.0150	 4.6290
 3.0170	 5.0920
 3.0180	 2.9310
 3.0200	 2.8130
 3.0220	 4.7600
 3.0240	 5.0590
 3.0250	 4.2330
 3.0270	 4.4930
 3.0290	 4.5120
 3.0310	 4.8200
 3.0320	 5.5650
 3.0340	 5.4810
 3.0360	 4.7070
 3.0380	 4.5260
 3.0400	 5.8230
 3.0410	 5.6940
 3.0430	 5.5940
 3.0450	 7.5910
 3.0470	 7.9190
 3.0480	 8.9780
 3.0500	 7.5800
 3.0520	 5.3180
 3.0540	 4.8350
 3.0560	 6.3280
 3.0570	 7.7650
 3.0590	 6.2510
 3.0610	 4.8480
 3.0630	 5.7040
 3.0650	 4.5480
 3.0660	 3.3650
 3.0680	 3.6270
 3.0700	 3.5530
 3.0720	 4.3640
 3.0740	 5.0920
 3.0760	 4.5500
 3.0770	 4.4980
 3.0790	 4.6230
 3.0810	 4.5900
 3.0830	 4.4770
 3.0850	 4.6300
 3.0870	 4.6740
 3.0880	 4.5630
 3.0900	 4.5040
 3.0920	 4.5300
 3.0940	 4.3470
 3.0960	 4.7460
 3.0980	 4.6840
 3.0990	 4.0350
 3.1010	 3.7840
 3.1030	 4.1170
 3.1050	 4.7550
 3.1070	 4.7870
 3.1090	 4.7350
 3.1110	 5.0290
 3.1120	 4.9520
 3.1140	 4.5520
 3.1160	 4.3890
 3.1180	 4.4320
 3.1200	 4.7580
 3.1220	 5.0220
 3.1240	 4.9080
 3.1260	 4.7570
 3.1270	 4.8380
 3.1290	 5.1810
 3.1310	 5.0750
 3.1330	 5.1120
 3.1350	 4.6350
 3.1370	 5.2310
 3.1390	 5.4990
 3.1410	 6.0830
 3.1430	 6.8190
 3.1450	 6.6050
 3.1460	 5.0780
 3.1480	 3.8410
 3.1500	 3.9300
 3.1520	 4.6210
 3.1540	 4.4920
 3.1560	 4.4820
 3.1580	 4.4990
 3.1600	 3.6190
 3.1620	 3.3530
 3.1640	 4.6990
 3.1660	 4.1580
 3.1680	 4.1410
 3.1700	 6.5630
 3.1710	 7.4380
 3.1730	 5.4100
 3.1750	 4.9600
 3.1770	 5.5180
 3.1790	 4.5700
 3.1810	 2.3560
 3.1830	 3.3750
 3.1850	 4.2570
 3.1870	 4.3050
 3.1890	 4.3170
 3.1910	 4.3400
 3.1930	 4.4660
 3.1950	 4.4040
 3.1970	 4.2800
 3.1990	 4.3320
 3.2010	 4.4810
 3.2030	 4.5310
 3.2050	 4.5390
 3.2070	 4.5470
 3.2090	 4.3830
 3.2110	 4.2950
 3.2130	 4.5330
 3.2150	 4.4720
 3.2170	 4.5300
 3.2190	 4.7860
 3.2210	 4.6290
 3.2230	 4.4250
 3.2250	 4.5040
 3.2270	 4.5390
 3.2290	 4.1240
 3.2310	 4.2920
 3.2330	 4.6540
 3.2350	 4.5570
 3.2370	 4.1470
 3.2390	 4.0910
 3.2410	 4.5480
 3.2430	 4.9070
 3.2450	 4.6880
 3.2470	 4.3820
 3.2490	 4.4350
 3.2510	 4.6210
 3.2530	 4.5550
 3.2550	 4.3340
 3.2570	 4.1000
 3.2590	 4.1180
 3.2610	 4.1860
 3.2630	 4.0870
 3.2650	 4.1430
 3.2670	 4.4300
 3.2690	 4.4900
 3.2720	 4.7920
 3.2740	 4.6660
 3.2760	 4.0410
 3.2780	 4.0670
 3.2800	 4.1700
 3.2820	 4.1310
 3.2840	 4.4110
 3.2860	 4.4980
 3.2880	 4.5340
 3.2900	 4.4610
 3.2920	 4.4300
 3.2940	 4.4060
 3.2960	 4.5690
 3.2990	 4.3430
 3.3010	 4.0200
 3.3030	 3.9210
 3.3050	 4.4310
 3.3070	 4.5900
 3.3090	 4.1430
 3.3110	 3.9830
 3.3130	 4.5800
 3.3150	 4.7110
 3.3180	 4.5380
 3.3200	 4.4390
 3.3220	 4.2250
 3.3240	 3.9650
 3.3260	 4.1780
 3.3280	 4.4290
 3.3300	 4.4010
 3.3330	 4.1290
 3.3350	 4.0070
 3.3370	 4.1730
 3.3390	 4.2560
 3.3410	 4.2410
 3.3430	 4.2740
 3.3450	 4.3320
 3.3480	 4.4030
 3.3500	 4.4560
 3.3520	 4.3900
 3.3540	 4.1920
 3.3560	 3.9860
 3.3580	 3.8250
 3.3610	 3.8140
 3.3630	 3.9040
 3.3650	 4.1150
 3.3670	 4.0640
 3.3690	 4.0870
 3.3720	 4.0590
 3.3740	 3.9170
 3.3760	 3.7050
 3.3780	 3.6980
 3.3800	 3.8010
 3.3830	 3.8220
 3.3850	 3.6730
 3.3870	 3.7950
 3.3890	 3.8740
 3.3910	 3.8600
 3.3940	 3.9430
 3.3960	 3.9120
 3.3980	 3.6680
 3.4000	 3.5310
 3.4020	 3.6300
 3.4050	 3.5900
 3.4070	 3.7040
 3.4090	 3.9150
 3.4110	 3.8140
 3.4140	 3.9580
 3.4160	 4.0960
 3.4180	 4.3500
 3.4200	 4.7930
 3.4230	 5.4490
 3.4250	 6.2140
 3.4270	 7.1450
 3.4290	 7.8350
 3.4320	 7.8990
 3.4340	 7.4520
 3.4360	 7.0460
 3.4390	 6.5080
 3.4410	 6.1020
 3.4430	 5.8780
 3.4450	 5.7830
 3.4480	 5.7530
 3.4500	 5.6710
 3.4520	 5.3730
 3.4550	 5.0390
 3.4570	 5.0400
 3.4590	 5.3380
 3.4620	 5.2320
 3.4640	 5.0660
 3.4660	 5.0730
 3.4680	 5.1470
 3.4710	 5.1470
 3.4730	 5.1760
 3.4750	 5.2520
 3.4780	 5.2290
 3.4800	 5.0320
 3.4820	 4.8300
 3.4850	 4.6960
 3.4870	 4.7310
 3.4890	 4.6970
 3.4920	 4.6140
 3.4940	 4.5140
 3.4970	 4.4950
 3.4990	 4.4810
 3.5010	 4.5560
 3.5040	 4.7380
 3.5060	 5.1730
 3.5080	 6.1300
 3.5110	 7.2160
 3.5130	 7.4650
 3.5160	 7.0530
 3.5180	 6.5430
 3.5200	 6.2450
 3.5230	 6.0060
 3.5250	 5.7310
 3.5270	 5.6530
 3.5300	 5.8450
 3.5320	 5.8210
 3.5350	 5.7500
 3.5370	 5.7300
 3.5400	 5.6800
 3.5420	 5.5640
 3.5440	 5.5450
 3.5470	 5.3740
 3.5490	 5.4210
 3.5520	 5.5470
 3.5540	 5.4200
 3.5570	 5.3680
 3.5590	 5.5200
 3.5610	 5.4400
 3.5640	 5.2240
 3.5660	 5.1650
 3.5690	 5.2050
 3.5710	 5.0860
 3.5740	 5.0520
 3.5760	 5.1090
 3.5790	 4.9990
 3.5810	 5.0430
 3.5840	 5.2470
 3.5860	 5.2620
 3.5890	 5.1480
 3.5910	 5.3170
 3.5930	 5.4640
 3.5960	 5.1610
 3.5980	 5.2450
 3.6010	 5.3390
 3.6030	 5.1270
 3.6060	 4.8270
 3.6080	 4.5420
 3.6110	 4.7580
 3.6140	 5.0590
 3.6160	 5.0270
 3.6190	 4.9480
 3.6210	 4.9030
 3.6240	 4.9640
 3.6260	 4.9760
 3.6290	 5.0490
 3.6310	 5.0160
 3.6340	 5.0280
 3.6360	 5.0140
 3.6390	 4.9220
 3.6410	 4.8160
 3.6440	 4.8780
 3.6470	 4.9800
 3.6490	 4.9660
 3.6520	 4.9310
 3.6540	 4.9570
 3.6570	 4.8800
 3.6590	 4.8970
 3.6620	 4.9390
 3.6650	 5.0330
 3.6670	 5.0740
 3.6700	 4.9660
 3.6720	 4.8730
 3.6750	 4.9300
 3.6780	 4.8560
 3.6800	 4.8510
 3.6830	 4.8950
 3.6850	 4.9490
 3.6880	 4.8790
 3.6910	 5.0260
 3.6930	 5.1100
 3.6960	 5.0300
 3.6990	 4.8200
 3.7010	 4.7980
 3.7040	 4.9110
 3.7060	 4.9630
 3.7090	 4.8630
 3.7120	 4.7370
 3.7140	 4.7520
 3.7170	 4.9360
 3.7200	 4.9070
 3.7220	 4.9990
 3.7250	 4.8490
 3.7280	 4.7710
 3.7300	 4.6220
 3.7330	 4.6310
 3.7360	 4.8700
 3.7390	 4.8400
 3.7410	 4.8490
 3.7440	 4.8460
 3.7470	 4.7730
 3.7490	 4.8200
 3.7520	 4.8490
 3.7550	 4.8470
 3.7580	 4.7790
 3.7600	 4.8550
 3.7630	 4.9560
 3.7660	 4.9010
 3.7680	 4.7580
 3.7710	 4.9100
 3.7740	 4.9960
 3.7770	 4.8900
 3.7790	 4.8410
 3.7820	 4.7930
 3.7850	 4.6920
 3.7880	 4.7170
 3.7900	 4.7670
 3.7930	 4.8100
 3.7960	 4.9020
 3.7990	 4.9690
 3.8020	 4.8900
 3.8040	 4.8380
 3.8070	 4.9360
 3.8100	 5.1290
 3.8130	 4.9280
 3.8160	 4.7480
 3.8180	 4.7870
 3.8210	 4.8090
 3.8240	 4.8710
 3.8270	 4.9450
 3.8300	 4.7430
 3.8330	 4.7310
 3.8350	 4.5980
 3.8380	 4.5880
 3.8410	 4.8780
 3.8440	 5.0370
 3.8470	 4.9970
 3.8500	 4.9380
 3.8520	 4.8780
 3.8550	 4.8170
 3.8580	 4.8860
 3.8610	 4.8780
 3.8640	 4.9040
 3.8670	 4.9940
 3.8700	 4.8900
 3.8730	 4.8100
 3.8750	 4.9090
 3.8780	 4.9020
 3.8810	 4.8240
 3.8840	 4.8630
 3.8870	 4.8660
 3.8900	 4.8480
 3.8930	 4.9360
 3.8960	 5.0270
 3.8990	 5.0000
 3.9020	 4.7170
 3.9050	 4.6390
 3.9080	 4.7840
 3.9110	 4.7980
 3.9140	 4.9090
 3.9160	 4.9720
 3.9190	 4.8680
 3.9220	 4.7940
 3.9250	 4.8510
 3.9280	 4.8590
 3.9310	 4.9140
 3.9340	 4.9360
 3.9370	 4.9230
 3.9400	 4.8720
 3.9430	 4.7960
 3.9460	 4.7590
 3.9490	 4.7830
 3.9520	 4.7740
 3.9550	 4.7840
 3.9580	 4.8720
 3.9610	 4.8870
 3.9640	 4.7940
 3.9670	 4.7290
 3.9700	 4.7930
 3.9730	 4.7910
 3.9770	 4.6850
 3.9800	 4.7220
 3.9830	 4.8180
 3.9860	 4.9030
 3.9890	 4.9130
 3.9920	 4.9680
 3.9950	 4.9840
 3.9980	 4.9810
 4.0010	 5.0160
 4.0040	 4.9350
 4.0070	 4.7730
 4.0100	 4.7820
 4.0130	 4.8140
 4.0170	 4.8490
 4.0200	 4.7710
 4.0230	 4.6780
 4.0260	 4.6650
 4.0290	 4.7620
 4.0320	 4.8560
 4.0350	 4.8990
 4.0380	 4.9580
 4.0420	 5.0070
 4.0450	 4.9020
 4.0480	 4.7990
 4.0510	 4.8700
 4.0540	 4.9260
 4.0570	 4.9290
 4.0610	 4.8910
 4.0640	 4.7960
 4.0670	 4.7480
 4.0700	 4.8150
 4.0730	 4.8580
 4.0770	 4.8330
 4.0800	 4.8870
 4.0830	 4.8660
 4.0860	 4.8010
 4.0890	 4.8130
 4.0930	 4.8700
 4.0960	 4.9790
 4.0990	 5.0560
 4.1020	 4.9020
 4.1060	 4.8280
 4.1090	 4.9070
 4.1120	 4.8420
 4.1150	 4.8610
 4.1190	 4.9430
 4.1220	 4.9790
 4.1250	 4.9180
 4.1280	 4.9000
 4.1320	 4.9870
 4.1350	 4.8760
 4.1380	 4.7250
 4.1420	 4.6830
 4.1450	 4.7810
 4.1480	 4.7950
 4.1520	 4.8150
 4.1550	 4.8500
 4.1580	 4.8510
 4.1620	 4.8450
 4.1650	 4.8060
 4.1680	 4.8490
 4.1720	 4.8800
 4.1750	 4.8900
 4.1780	 4.8640
 4.1820	 4.8180
 4.1850	 4.8570
 4.1890	 4.9250
 4.1920	 4.8780
 4.1950	 4.7780
 4.1990	 4.6830
 4.2020	 4.6930
 4.2060	 4.8110
 4.2090	 4.8160
 4.2120	 4.7790
 4.2160	 4.7910
 4.2190	 4.8230
 4.2230	 4.4980
 4.2260	 4.4770
 4.2300	 4.8010
 4.2330	 4.5730
 4.2360	 4.5230
 4.2400	 4.7680
 4.2430	 4.4240
 4.2470	 4.1930
 4.2500	 4.6090
 4.2540	 4.8490
 4.2570	 4.8580
 4.2610	 4.1870
 4.2640	 3.5580
 4.2680	 4.3810
 4.2710	 4.8920
 4.2750	 4.9890
 4.2780	 4.9180
 4.2820	 4.7060
 4.2850	 4.2650
 4.2890	 4.6220
 4.2930	 4.9510
 4.2960	 4.7010
 4.3000	 4.5550
 4.3030	 4.5830
 4.3070	 4.5840
 4.3100	 4.8310
 4.3140	 4.7930
 4.3180	 4.6010
 4.3210	 4.5920
 4.3250	 4.7130
 4.3280	 4.7790
 4.3320	 4.8280
 4.3360	 4.7750
 4.3390	 4.6980
 4.3430	 4.7110
 4.3470	 4.7580
 4.3500	 4.7330
 4.3540	 4.7140
 4.3570	 4.7500
 4.3610	 4.8170
 4.3650	 4.7850
 4.3680	 4.7490
 4.3720	 4.7630
 4.3760	 4.8410
 4.3800	 4.8760
 4.3830	 4.8880
 4.3870	 4.9040
 4.3910	 4.8930
 4.3940	 4.8380
 4.3980	 4.8450
 4.4020	 4.8380
 4.4060	 4.8350
 4.4090	 4.8430
 4.4130	 4.7970
 4.4170	 4.7570
 4.4210	 4.7250
 4.4240	 4.6890
 4.4280	 4.6380
 4.4320	 4.7310
 4.4360	 4.9170
 4.4400	 4.9170
 4.4430	 4.8450
 4.4470	 4.7170
 4.4510	 4.7670
 4.4550	 4.7560
 4.4590	 4.6870
 4.4620	 4.7750
 4.4660	 4.9010
 4.4700	 4.8670
 4.4740	 4.8030
 4.4780	 4.7950
 4.4820	 4.7270
 4.4860	 4.7040
 4.4900	 4.7750
 4.4930	 4.6890
 4.4970	 4.6180
 4.5010	 4.6750
 4.5050	 4.7460
 4.5090	 4.7270
 4.5130	 4.7640
 4.5170	 4.7480
 4.5210	 4.8200
 4.5250	 4.9200
 4.5290	 4.8300
 4.5330	 4.7400
 4.5370	 4.7030
 4.5410	 4.7310
 4.5450	 4.6840
 4.5490	 4.7300
 4.5530	 4.8010
 4.5570	 4.7240
 4.5610	 4.7740
 4.5650	 4.8190
 4.5690	 4.7290
 4.5730	 4.7330
 4.5770	 4.8280
 4.5810	 4.8110
 4.5850	 4.6660
 4.5890	 4.6640
 4.5930	 4.6760
 4.5970	 4.6900
 4.6010	 4.6300
 4.6050	 4.5040
 4.6090	 4.4710
 4.6130	 4.3790
 4.6170	 4.2740
 4.6220	 4.4510
 4.6260	 4.7850
 4.6300	 4.7470
 4.6340	 4.7890
 4.6380	 4.8130
 4.6420	 4.7690
 4.6460	 4.8320
 4.6510	 4.7530
 4.6550	 4.6100
 4.6590	 4.5590
 4.6630	 4.6830
 4.6670	 4.7230
 4.6720	 4.7030
 4.6760	 4.8130
 4.6800	 4.8870
 4.6840	 4.7810
 4.6880	 4.6300
 4.6930	 4.5330
 4.6970	 4.5760
 4.7010	 4.6410
 4.7050	 4.6910
 4.7100	 4.7820
 4.7140	 4.7460
 4.7180	 4.6940
 4.7230	 4.7090
 4.7270	 4.6720
 4.7310	 4.6030
 4.7360	 4.6360
 4.7400	 4.6430
 4.7440	 4.6200
 4.7490	 4.6240
 4.7530	 4.6560
 4.7570	 4.6730
 4.7620	 4.6700
 4.7660	 4.6870
 4.7700	 4.7560
 4.7750	 4.7300
 4.7790	 4.5810
 4.7840	 4.5350
 4.7880	 4.6870
 4.7920	 4.5540
 4.7970	 4.5730
 4.8010	 4.7920
 4.8060	 4.7200
 4.8100	 4.6200
 4.8150	 4.7050
 4.8190	 4.8500
 4.8240	 4.8940
 4.8280	 4.7320
 4.8330	 4.6380
 4.8370	 4.6590
 4.8420	 4.5030
 4.8460	 4.5320
 4.8510	 4.6800
 4.8550	 4.6570
 4.8600	 4.6200
 4.8640	 4.7040
 4.8690	 4.7040
 4.8730	 4.6360
 4.8780	 4.5770
 4.8830	 4.6860
 4.8870	 4.6770
 4.8920	 4.5880
 4.8960	 4.5880
 4.9010	 4.5550
 4.9060	 4.5990
 4.9100	 4.6840
 4.9150	 4.6700
 4.9200	 4.7360
 4.9240	 4.7420
 4.9290	 4.6320
 4.9340	 4.6150
 4.9380	 4.5740
 4.9430	 4.5210
 4.9480	 4.5840
 4.9530	 4.5430
 4.9570	 4.5640
 4.9620	 4.6720
 4.9670	 4.6760
 4.9720	 4.5900
 4.9760	 4.6060
 4.9810	 4.6730
 4.9860	 4.7050
 4.9910	 4.7330
 4.9960	 4.7270
 5.0000	 4.6870
 5.0050	 4.6740
 5.0100	 4.6460
 5.0150	 4.6400
 5.0200	 4.5560
 5.0250	 4.6310
 5.0290	 4.7280
 5.0340	 4.6660
 5.0390	 4.5970
 5.0440	 4.5970
 5.0490	 4.5950
 5.0540	 4.5820
 5.0590	 4.6140
 5.0640	 4.6140
 5.0690	 4.6520
 5.0740	 4.6590
 5.0790	 4.6450
 5.0840	 4.6850
 5.0890	 4.6910
 5.0940	 4.6970
 5.0990	 4.6690
 5.1040	 4.6730
 5.1090	 4.5850
 5.1140	 4.5070
 5.1190	 4.4900
 5.1240	 4.5810
 5.1290	 4.5590
 5.1340	 4.5580
 5.1390	 4.6700
 5.1440	 4.7070
 5.1490	 4.6890
 5.1540	 4.7440
 5.1600	 4.7450
 5.1650	 4.7620
 5.1700	 4.6730
 5.1750	 4.6830
 5.1800	 4.6750
 5.1850	 4.7510
 5.1910	 4.7140
 5.1960	 4.6650
 5.2010	 4.6590
 5.2060	 4.7290
 5.2110	 4.6030
 5.2170	 4.6070
 5.2220	 4.6700
 5.2270	 4.6360
 5.2320	 4.7150
 5.2380	 4.7360
 5.2430	 4.6230
 5.2480	 4.7050
 5.2540	 4.7400
 5.2590	 4.6650
 5.2640	 4.5410
 5.2700	 4.5010
 5.2750	 4.5550
 5.2800	 4.7200
 5.2860	 4.7670
 5.2910	 4.7160
 5.2970	 4.6560
 5.3020	 4.5850
 5.3070	 4.5430
 5.3130	 4.5730
 5.3180	 4.6160
 5.3240	 4.6710
 5.3290	 4.5970
 5.3350	 4.5250
 5.3400	 4.5290
 5.3460	 4.6710
 5.3510	 4.7240
 5.3570	 4.5540
 5.3620	 4.5360
 5.3680	 4.6630
 5.3730	 4.5480
 5.3790	 4.5610
 5.3850	 4.5830
 5.3900	 4.6050
 5.3960	 4.5630
 5.4010	 4.6230
 5.4070	 4.6740
 5.4130	 4.7150
 5.4180	 4.6060
 5.4240	 4.5000
 5.4300	 4.4360
 5.4350	 4.4820
 5.4410	 4.5790
 5.4470	 4.6960
 5.4530	 4.6030
 5.4580	 4.6070
 5.4640	 4.5780
 5.4700	 4.6260
 5.4760	 4.6020
 5.4810	 4.5780
 5.4870	 4.5740
 5.4930	 4.5080
 5.4990	 4.5290
 5.5050	 4.6000
 5.5110	 4.4950
 5.5160	 4.4890
 5.5220	 4.5150
 5.5280	 4.5210
 5.5340	 4.4880
 5.5400	 4.4570
 5.5460	 4.4780
 5.5520	 4.4960
 5.5580	 4.5140
 5.5640	 4.6650
 5.5700	 4.5570
 5.5760	 4.4590
 5.5820	 4.3880
 5.5880	 4.3460
 5.5940	 4.3830
 5.6000	 4.4330
 5.6060	 4.3850
 5.6120	 4.3710
 5.6180	 4.3810
 5.6240	 4.4350
 5.6300	 4.3820
 5.6360	 4.2570
 5.6420	 4.2080
 5.6490	 4.2400
 5.6550	 4.2320
 5.6610	 4.1630
 5.6670	 4.0120
 5.6730	 4.0290
 5.6800	 4.0410
 5.6860	 4.0180
 5.6920	 3.9630
 5.6980	 3.9940
 5.7040	 3.8800
 5.7110	 3.8950
 5.7170	 3.9550
 5.7230	 3.9210
 5.7300	 3.8440
 5.7360	 3.7810
 5.7420	 3.7860
 5.7490	 3.9600
 5.7550	 4.0880
 5.7620	 4.2290
 5.7680	 4.2580
 5.7740	 4.2770
 5.7810	 4.2440
 5.7870	 4.3050
 5.7940	 4.2880
 5.8000	 4.3310
 5.8070	 4.3370
 5.8130	 4.4160
 5.8200	 4.3630
 5.8260	 4.3230
 5.8330	 4.2940
 5.8390	 4.3110
 5.8460	 4.3550
 5.8530	 4.4740
 5.8590	 4.5310
 5.8660	 4.6620
 5.8720	 4.7010
 5.8790	 4.7020
 5.8860	 4.6720
 5.8920	 4.7600
 5.8990	 4.7270
 5.9060	 4.7690
 5.9130	 4.7400
 5.9190	 4.7840
 5.9260	 4.8710
 5.9330	 4.8110
 5.9400	 4.7840
 5.9470	 4.8380
 5.9530	 4.8170
 5.9600	 4.8190
 5.9670	 4.7540
 5.9740	 4.7770
 5.9810	 4.8140
 5.9880	 4.8660
 5.9950	 4.7670
 6.0020	 4.7570
 6.0090	 4.6260
 6.0160	 4.5830
 6.0230	 4.5900
 6.0300	 4.6070
 6.0370	 4.6010
 6.0440	 4.7140
 6.0510	 4.7860
 6.0580	 4.7520
 6.0650	 4.6380
 6.0720	 4.7410
 6.0790	 4.6970
 6.0860	 4.7350
 6.0930	 4.7410
 6.1000	 4.8930
 6.1080	 4.8520
 6.1150	 4.7780
 6.1220	 4.6900
 6.1290	 4.7640
 6.1370	 4.7190
 6.1440	 4.7430
 6.1510	 4.7550
 6.1580	 4.8380
 6.1660	 4.7470
 6.1730	 4.6730
 6.1800	 4.6540
 6.1880	 4.7180
 6.1950	 4.6520
 6.2030	 4.6460
 6.2100	 4.5200
 6.2170	 4.5810
 6.2250	 4.5980
 6.2320	 4.7070
 6.2400	 4.7080
 6.2470	 4.6980
 6.2550	 4.6310
 6.2630	 4.6770
 6.2700	 4.6560
 6.2780	 4.6930
 6.2850	 4.7010
 6.2930	 4.6780
 6.3010	 4.6260
 6.3080	 4.6120
 6.3160	 4.4380
 6.3240	 4.4740
 6.3310	 4.4920
 6.3390	 4.5960
 6.3470	 4.6960
 6.3550	 4.7420
 6.3620	 4.6350
 6.3700	 4.6970
 6.3780	 4.6900
 6.3860	 4.7370
 6.3940	 4.7770
 6.4020	 4.8400
 6.4100	 4.8590
 6.4180	 5.0290
 6.4260	 4.9920
 6.4330	 4.9400
 6.4410	 4.8200
 6.4490	 4.8290
 6.4580	 4.8220
 6.4660	 4.9300
 6.4740	 4.8340
 6.4820	 4.8710
 6.4900	 4.7880
 6.4980	 4.7860
 6.5060	 4.7500
 6.5140	 4.8220
 6.5230	 4.7160
 6.5310	 4.7000
 6.5390	 4.7270
 6.5470	 4.7770
 6.5550	 4.7580
 6.5640	 4.6540
 6.5720	 4.4440
 6.5800	 4.3000
 6.5890	 4.1300
 6.5970	 4.1880
 6.6060	 4.2980
 6.6140	 4.5490
 6.6220	 4.5220
 6.6310	 4.4360
 6.6390	 4.3920
 6.6480	 4.4530
 6.6560	 4.4360
 6.6650	 4.5850
 6.6740	 4.5860
 6.6820	 4.6950
 6.6910	 4.5760
 6.6990	 4.5690
 6.7080	 4.6430
 6.7170	 4.6880
 6.7260	 4.7550
 6.7340	 4.8200
 6.7430	 4.6060
 6.7520	 4.4820
 6.7610	 4.4300
 6.7690	 4.5500
 6.7780	 4.6540
 6.7870	 5.0270
 6.7960	 5.0920
 6.8050	 4.8690
 6.8140	 4.7890
 6.8230	 5.0080
 6.8320	 5.2240
 6.8410	 5.5390
 6.8500	 5.5270
 6.8590	 5.3120
 6.8680	 4.9730
 6.8770	 5.0050
 6.8860	 4.9290
 6.8950	 4.9400
 6.9050	 5.0370
 6.9140	 5.1090
 6.9230	 4.8810
 6.9320	 4.9080
 6.9420	 5.0420
 6.9510	 5.2220
 6.9600	 5.0910
 6.9700	 5.1020
 6.9790	 5.1370
 6.9880	 5.0720
 6.9980	 4.8540
 7.0070	 4.9640
 7.0170	 5.0430
 7.0260	 5.0800
 7.0360	 4.9300
 7.0450	 4.9230
 7.0550	 4.9940
 7.0650	 4.9790
 7.0740	 4.9720
 7.0840	 5.2100
 7.0940	 5.1420
 7.1030	 5.1130
 7.1130	 4.9830
 7.1230	 4.9860
 7.1330	 4.7760
 7.1420	 4.6460
 7.1520	 4.5620
 7.1620	 4.7350
 7.1720	 4.8660
 7.1820	 4.9710
 7.1920	 4.8100
 7.2020	 4.6910
 7.2120	 4.6430
 7.2220	 4.7520
 7.2320	 4.6430
 7.2420	 4.5950
 7.2520	 4.6550
 7.2620	 4.8130
 7.2730	 4.7290
 7.2830	 4.7280
 7.2930	 4.5670
 7.3030	 4.5850
 7.3140	 4.6080
 7.3240	 4.5950
 7.3340	 4.5820
 7.3450	 4.7550
 7.3550	 4.6980
 7.3660	 4.6920
 7.3760	 4.7560
 7.3870	 4.9640
 7.3970	 4.9570
 7.4080	 4.9750
 7.4180	 4.9140
 7.4290	 4.9960
 7.4400	 5.0080
 7.4500	 5.0620
 7.4610	 5.0040
 7.4720	 5.1420
 7.4830	 5.0480
 7.4930	 4.9120
 7.5040	 4.8730
 7.5150	 4.9420
 7.5260	 4.9110
 7.5370	 4.9280
 7.5480	 4.7830
 7.5590	 4.8910
 7.5700	 4.7970
 7.5810	 4.6010
 7.5920	 4.3650
 7.6030	 4.5310
 7.6140	 4.5970
 7.6260	 4.6620
 7.6370	 4.6410
 7.6480	 4.7060
 7.6590	 4.4050
 7.6710	 4.3410
 7.6820	 4.4030
 7.6930	 4.5240
 7.7050	 4.4090
 7.7160	 4.4450
 7.7280	 4.4780
 7.7390	 4.6060
 7.7510	 4.3840
 7.7630	 4.2630
 7.7740	 4.1760
 7.7860	 4.2830
 7.7980	 4.4450
 7.8090	 4.5110
 7.8210	 4.2970
 7.8330	 4.3650
 7.8450	 4.3960
 7.8570	 4.4500
 7.8690	 4.2420
 7.8810	 4.2500
 7.8930	 4.1740
 7.9050	 4.2220
 7.9170	 4.0680
 7.9290	 4.1420
 7.9410	 4.1820
 7.9530	 4.1960
 7.9650	 4.0800
 7.9780	 4.1220
 7.9900	 3.9580
 8.0020	 4.0970
 8.0150	 4.0790
 8.0270	 4.1030
 8.0390	 4.0760
 8.0520	 4.2650
 8.0640	 4.1310
 8.0770	 4.3260
 8.0900	 4.2930
 8.1020	 4.2900
 8.1150	 4.2490
 8.1280	 4.4080
 8.1400	 4.2400
 8.1530	 4.4060
 8.1660	 4.5410
 8.1790	 4.5820
 8.1920	 4.5000
 8.2050	 4.6260
 8.2180	 4.4530
 8.2310	 4.4730
 8.2440	 4.5460
 8.2570	 4.7490
 8.2700	 4.6880
 8.2830	 4.9400
 8.2970	 4.8420
 8.3100	 4.8960
 8.3230	 5.1330
 8.3370	 5.2820
 8.3500	 5.0760
 8.3640	 5.0850
 8.3770	 4.9040
 8.3910	 4.8730
 8.4040	 4.6210
 8.4180	 4.6410
 8.4320	 4.5510
 8.4450	 4.6400
 8.4590	 4.5880
 8.4730	 4.6910
 8.4870	 4.6620
 8.5010	 4.9820
 8.5150	 4.9700
 8.5290	 5.0960
 8.5430	 5.1690
 8.5570	 5.4920
 8.5710	 5.4550
 8.5850	 5.6270
 8.5990	 5.5430
 8.6140	 5.4880
 8.6280	 5.3360
 8.6420	 5.5330
 8.6570	 5.5300
 8.6710	 5.7070
 8.6860	 5.5310
 8.7000	 5.5590
 8.7150	 5.4350
 8.7300	 5.6030
 8.7440	 5.5380
 8.7590	 5.7160
 8.7740	 5.6070
 8.7890	 5.6670
 8.8040	 5.6210
 8.8190	 5.6120
 8.8340	 5.3120
 8.8490	 5.3220
 8.8640	 5.3520
 8.8790	 5.5890
 8.8940	 5.2620
 8.9100	 5.0130
 8.9250	 4.9640
 8.9400	 5.4220
 8.9560	 5.3050
 8.9710	 5.1310
 8.9870	 4.9780
 9.0020	 5.2090
 9.0180	 5.1350
 9.0340	 5.3190
 9.0500	 5.1920
 9.0650	 5.2110
 9.0810	 5.0060
 9.0970	 5.2620
 9.1130	 5.2000
 9.1290	 5.1440
 9.1450	 5.0650
 9.1610	 5.3130
 9.1780	 5.2700
 9.1940	 5.1920
 9.2100	 5.1280
 9.2270	 5.3620
 9.2430	 5.0470
 9.2600	 5.0340
 9.2760	 5.0060
 9.2930	 5.0010
 9.3090	 4.6530
 9.3260	 4.7840
 9.3430	 4.5920
 9.3600	 4.7840
 9.3770	 4.8120
 9.3940	 4.9730
 9.4110	 4.7990
 9.4280	 4.9230
 9.4450	 4.9150
 9.4620	 5.3470
 9.4800	 5.2000
 9.4970	 5.1140
 9.5140	 5.0690
 9.5320	 5.3420
 9.5500	 5.4180
 9.5670	 5.5590
 9.5850	 5.1000
 9.6030	 5.1520
 9.6200	 5.3050
 9.6380	 5.5120
 9.6560	 5.5280
 9.6740	 5.8340
 9.6920	 5.5390
 9.7100	 5.5290
 9.7290	 5.6450
 9.7470	 5.7880
 9.7650	 5.3870
 9.7840	 5.6780
 9.8020	 5.8060
 9.8210	 6.1230
 9.8390	 6.0030
 9.8580	 5.9850
 9.8770	 5.8260
 9.8960	 5.8180
 9.9150	 5.7950
 9.9340	 6.0120
 9.9530	 5.7780
 9.9720	 5.9290
 9.9910	 5.9880
10.0100	 6.1060
10.0300	 5.9020
10.0490	 5.9340
10.0690	 5.7100
10.0880	 5.7970
10.1080	 5.7280
10.1280	 5.7590
10.1480	 5.6480
10.1670	 5.9400
10.1870	 5.8500
10.2070	 5.7720
10.2280	 5.6600
10.2480	 5.8200
10.2680	 5.6080
10.2890	 5.6100
10.3090	 5.4830
10.3300	 5.7900
10.3500	 5.7150
10.3710	 5.7930
10.3920	 5.6500
10.4120	 5.7760
10.4330	 5.6150
10.4540	 5.7890
10.4760	 5.6010
10.4970	 5.6870
10.5180	 5.5920
10.5390	 5.4970
10.5610	 5.2310
10.5820	 5.5390
10.6040	 5.6560
10.6260	 5.6510
10.6480	 5.2650
10.6700	 5.4470
10.6920	 5.2990
10.7140	 5.3630
10.7360	 5.3320
10.7580	 5.5090
10.7800	 5.3050
10.8030	 5.4550
10.8250	 5.2840
10.8480	 5.1550
10.8710	 4.9270
10.8940	 5.0670
10.9170	 4.9210
10.9400	 5.0650
10.9630	 4.7770
10.9860	 4.9350
11.0090	 5.0410
11.0330	 5.0370
11.0560	 4.7810
11.0800	 4.8930
11.1040	 4.5330
11.1270	 4.5470
11.1510	 4.4250
11.1750	 4.8630
11.2000	 4.9500
11.2240	 5.2600
11.2480	 5.0870
11.2730	 4.9260
11.2970	 4.7070
11.3220	 4.9600
11.3470	 4.5390
11.3720	 4.6470
11.3970	 4.6240
11.4220	 5.0600
11.4470	 4.6940
11.4720	 4.3010
11.4980	 4.5190
11.5230	 4.9020
11.5490	 4.4390
11.5750	 4.4860
11.6000	 4.5190
11.6260	 4.7560
11.6530	 4.1530
11.6790	 4.2010
11.7050	 4.0640
11.7320	 4.2680
11.7580	 4.1290
11.7850	 4.4490
11.8120	 4.1830
11.8390	 4.2490
11.8660	 4.0210
11.8930	 4.2780
11.9200	 4.3430
11.9480	 4.5520
11.9760	 4.4680
12.0030	 4.7940
12.0310	 4.5920
12.0590	 4.7250
12.0870	 4.5380
12.1150	 4.7920
12.1440	 4.4850
12.1720	 4.7800
12.2010	 4.5900
12.2300	 4.6530
12.2590	 4.4320
12.2880	 4.8790
12.3170	 4.9040
12.3460	 5.1660
12.3760	 5.0300
12.4050	 5.1430
12.4350	 4.6850
12.4650	 4.9540
12.4950	 4.9410
12.5250	 5.0750
12.5550	 4.8360
12.5860	 5.2870
12.6170	 4.9940
12.6470	 4.9770
12.6780	 4.7500
12.7090	 5.1630
12.7410	 5.1960
12.7720	 5.5460
12.8030	 5.1110
12.8350	 5.2730
12.8670	 5.1150
12.8990	 5.4890
12.9310	 5.2570
12.9640	 5.5220
12.9960	 5.3310
13.0290	 5.6720
13.0610	 5.3060
13.0940	 5.2940
13.1280	 5.1490
13.1610	 5.3170
13.1940	 5.1570
13.2280	 5.9010
13.2620	 5.6030
13.2960	 5.4740
13.3300	 5.2920
13.3640	 5.7400
13.3990	 5.6880
13.4340	 5.9530
13.4690	 5.5570
13.5040	 5.8330
13.5390	 5.7120
13.5740	 6.0040
13.6100	 5.7690
13.6460	 6.0120
13.6820	 5.4760
13.7180	 5.8660
13.7540	 6.0860
13.7910	 6.5440
13.8280	 6.3430
13.8650	 6.6010
13.9020	 6.1140
13.9390	 6.4600
13.9770	 6.3390
14.0150	 6.4140
14.0530	 5.8810
14.0910	 6.3670
14.1290	 6.2510
14.1680	 6.6580
14.2070	 6.4110
14.2460	 6.5720
14.2850	 6.2400
14.3240	 6.6450
14.3640	 6.3450
14.4040	 7.0760
14.4440	 7.0430
14.4840	 6.7550
14.5250	 5.8300
14.5660	 6.9090
14.6070	 7.4730
14.6480	 7.2790
14.6900	 6.1380
14.7310	 7.0450
14.7730	 6.8020
14.8150	 7.1600
14.8580	 7.0140
14.9010	 7.5240
14.9440	 6.7330
14.9870	 7.1410
15.0300	 6.4840
15.0740	 7.2330
15.1180	 6.6800
15.1620	 7.2070
15.2060	 7.2060
15.2510	 7.8100
15.2960	 7.4680
15.3410	 8.2240
15.3870	 7.2310
