Name: Salvia leucophylla 1
Type: vegetation
Class: Shrub
Genus: Salvia
Species: leucophylla
Sample No.: VH287
Owner: UCSB
Wavelength Range: TIR
Origin: 34.698; -120.0477; WGS84
Collection Date: 11/2/2013
Description: Samples were collected as part of the HyspIRI Airborne Campaign. 48 individual plants were sampled in three times in 2013 - spring  summer  and fall. The name of the sample includes a 1  2  or 3 which references a different individual of the species. Samples were taken to JPL and processed within 48 hours of collection. The same leaves were processed in the Nicolet and then measured using the ASD.
Measurement: Hemispherical reflectance
First Column: X
Second Column: Y
X Units: Wavelength (micrometers)
Y Units: Reflectance (percentage)
First X Value: 2.501
Last X Value: 15.387
Number of X Values: 1737
Additional Information: vegetation.shrub.salvia.leucophylla.tir.vh287.ucsb.nicolet.ancillary.txt

 2.5010	26.3300
 2.5030	26.3000
 2.5040	26.1550
 2.5050	26.1740
 2.5060	26.2900
 2.5070	26.2050
 2.5090	26.1630
 2.5100	26.1500
 2.5110	26.1830
 2.5120	26.1360
 2.5140	26.1380
 2.5150	26.1360
 2.5160	26.1870
 2.5170	26.2810
 2.5180	26.4610
 2.5200	26.3480
 2.5210	26.3020
 2.5220	26.2040
 2.5230	26.2160
 2.5250	26.2700
 2.5260	26.2390
 2.5270	26.1750
 2.5280	26.2410
 2.5290	26.3630
 2.5310	26.4140
 2.5320	26.3150
 2.5330	26.2940
 2.5340	26.3170
 2.5360	26.3950
 2.5370	26.2860
 2.5380	26.2680
 2.5390	26.3030
 2.5410	26.3770
 2.5420	26.2010
 2.5430	26.2560
 2.5440	26.4770
 2.5460	26.5660
 2.5470	26.4840
 2.5480	26.5420
 2.5490	26.5160
 2.5510	26.4770
 2.5520	26.3910
 2.5530	26.4740
 2.5540	26.7500
 2.5560	26.9340
 2.5570	26.9580
 2.5580	26.8930
 2.5590	26.5910
 2.5610	26.2360
 2.5620	26.1910
 2.5630	26.2960
 2.5640	26.3460
 2.5660	26.5960
 2.5670	26.8120
 2.5680	26.8320
 2.5700	26.6110
 2.5710	26.7080
 2.5720	26.7770
 2.5730	26.4540
 2.5750	26.4560
 2.5760	26.6230
 2.5770	26.5380
 2.5790	26.7320
 2.5800	26.8230
 2.5810	26.6740
 2.5820	26.5620
 2.5840	26.1730
 2.5850	26.1920
 2.5860	26.5500
 2.5880	26.4560
 2.5890	26.4800
 2.5900	26.4300
 2.5910	26.6170
 2.5930	26.6440
 2.5940	26.0670
 2.5950	25.4590
 2.5970	26.0190
 2.5980	26.5240
 2.5990	26.6510
 2.6000	26.5370
 2.6020	26.4870
 2.6030	26.3950
 2.6040	26.0730
 2.6060	25.6170
 2.6070	25.6910
 2.6080	25.9000
 2.6100	26.1400
 2.6110	26.3410
 2.6120	26.4850
 2.6140	26.3450
 2.6150	26.3370
 2.6160	25.9770
 2.6180	25.7490
 2.6190	25.8740
 2.6200	25.5960
 2.6220	25.5040
 2.6230	25.9490
 2.6240	26.1130
 2.6260	25.9040
 2.6270	25.3300
 2.6280	25.5020
 2.6300	25.4410
 2.6310	25.0920
 2.6320	25.2510
 2.6340	25.2850
 2.6350	25.2620
 2.6360	25.4270
 2.6380	25.2810
 2.6390	25.2910
 2.6400	25.2810
 2.6420	25.1640
 2.6430	24.8530
 2.6440	24.8140
 2.6460	24.7670
 2.6470	24.7160
 2.6480	24.7240
 2.6500	24.7130
 2.6510	24.5480
 2.6520	24.2970
 2.6540	24.2150
 2.6550	24.2980
 2.6560	24.2280
 2.6580	24.2660
 2.6590	23.9550
 2.6610	23.8410
 2.6620	23.8150
 2.6630	23.6970
 2.6650	23.1740
 2.6660	22.7420
 2.6670	22.6280
 2.6690	22.7940
 2.6700	22.2620
 2.6720	22.1770
 2.6730	22.7560
 2.6740	22.6420
 2.6760	22.2010
 2.6770	21.8280
 2.6780	21.8290
 2.6800	21.8260
 2.6810	21.8060
 2.6830	21.6370
 2.6840	21.2670
 2.6850	21.1670
 2.6870	21.0030
 2.6880	20.9380
 2.6900	20.8680
 2.6910	20.6830
 2.6920	20.2320
 2.6940	19.6830
 2.6950	19.3710
 2.6970	19.2580
 2.6980	19.1110
 2.6990	18.8380
 2.7010	18.1220
 2.7020	17.8530
 2.7040	17.7170
 2.7050	17.4000
 2.7060	17.2560
 2.7080	17.2290
 2.7090	16.7650
 2.7110	16.2850
 2.7120	16.1230
 2.7130	16.2350
 2.7150	15.9490
 2.7160	15.7250
 2.7180	15.5150
 2.7190	15.2480
 2.7210	14.6420
 2.7220	14.3960
 2.7230	14.1760
 2.7250	13.9470
 2.7260	13.8310
 2.7280	13.7160
 2.7290	13.4910
 2.7310	13.1650
 2.7320	12.9360
 2.7330	12.7390
 2.7350	12.4270
 2.7360	12.1950
 2.7380	11.9730
 2.7390	11.6020
 2.7410	11.0860
 2.7420	11.1120
 2.7440	11.2150
 2.7450	11.1290
 2.7470	10.9930
 2.7480	10.8120
 2.7490	10.5590
 2.7510	10.3850
 2.7520	 9.9740
 2.7540	 9.5820
 2.7550	 9.2690
 2.7570	 9.5400
 2.7580	 9.6390
 2.7600	 9.5240
 2.7610	 9.2840
 2.7630	 9.0680
 2.7640	 8.8100
 2.7660	 8.8010
 2.7670	 8.9290
 2.7680	 8.9150
 2.7700	 8.5750
 2.7710	 8.3780
 2.7730	 8.3590
 2.7740	 8.1480
 2.7760	 7.9810
 2.7770	 8.1600
 2.7790	 8.0980
 2.7800	 7.9920
 2.7820	 7.7320
 2.7830	 7.6140
 2.7850	 7.6200
 2.7860	 7.6340
 2.7880	 7.4560
 2.7890	 7.3300
 2.7910	 7.4600
 2.7920	 7.4540
 2.7940	 7.2260
 2.7950	 7.1680
 2.7970	 7.1090
 2.7980	 7.0410
 2.8000	 6.8830
 2.8010	 6.9190
 2.8030	 6.8430
 2.8040	 6.7730
 2.8060	 6.6010
 2.8070	 6.6050
 2.8090	 6.6070
 2.8110	 6.4900
 2.8120	 6.3270
 2.8140	 6.3190
 2.8150	 6.1180
 2.8170	 6.1630
 2.8180	 6.1920
 2.8200	 6.1920
 2.8210	 6.1390
 2.8230	 6.1100
 2.8240	 5.9050
 2.8260	 6.0180
 2.8270	 6.0250
 2.8290	 6.0320
 2.8300	 6.0010
 2.8320	 5.9840
 2.8340	 5.7930
 2.8350	 5.8660
 2.8370	 5.8330
 2.8380	 5.6940
 2.8400	 5.6060
 2.8410	 5.5950
 2.8430	 5.5380
 2.8440	 5.6150
 2.8460	 5.6600
 2.8480	 5.5840
 2.8490	 5.3830
 2.8510	 5.3610
 2.8520	 5.3200
 2.8540	 5.2550
 2.8550	 5.1500
 2.8570	 5.1970
 2.8590	 5.2500
 2.8600	 5.2810
 2.8620	 5.3900
 2.8630	 5.6430
 2.8650	 5.5630
 2.8660	 5.3080
 2.8680	 5.2160
 2.8700	 5.3120
 2.8710	 5.1510
 2.8730	 5.1850
 2.8740	 5.1350
 2.8760	 5.1890
 2.8780	 5.0110
 2.8790	 4.9040
 2.8810	 4.8260
 2.8820	 4.6570
 2.8840	 4.7110
 2.8860	 5.3160
 2.8870	 5.3680
 2.8890	 5.1400
 2.8900	 4.9810
 2.8920	 5.0310
 2.8940	 4.6900
 2.8950	 4.5380
 2.8970	 4.7480
 2.8980	 4.9230
 2.9000	 4.8510
 2.9020	 4.9180
 2.9030	 5.0000
 2.9050	 4.9160
 2.9070	 4.7230
 2.9080	 4.7750
 2.9100	 4.7180
 2.9120	 4.7110
 2.9130	 4.9760
 2.9150	 5.0120
 2.9160	 4.7450
 2.9180	 4.7230
 2.9200	 4.7910
 2.9210	 4.8910
 2.9230	 4.8730
 2.9250	 4.9760
 2.9260	 5.0000
 2.9280	 4.9930
 2.9300	 4.9250
 2.9310	 4.9080
 2.9330	 4.7260
 2.9350	 4.6470
 2.9360	 4.5500
 2.9380	 4.7130
 2.9400	 4.7740
 2.9410	 4.7730
 2.9430	 4.7060
 2.9450	 5.0000
 2.9460	 4.9140
 2.9480	 4.7160
 2.9500	 4.5750
 2.9510	 4.6080
 2.9530	 4.6410
 2.9550	 4.4370
 2.9560	 4.5140
 2.9580	 5.1340
 2.9600	 5.5040
 2.9610	 4.9830
 2.9630	 4.6060
 2.9650	 5.1550
 2.9660	 4.7020
 2.9680	 4.6570
 2.9700	 5.1890
 2.9720	 4.0230
 2.9730	 2.3160
 2.9750	 3.6650
 2.9770	 5.6220
 2.9780	 5.4200
 2.9800	 4.9310
 2.9820	 4.7820
 2.9840	 4.8250
 2.9850	 5.4880
 2.9870	 5.7580
 2.9890	 5.9250
 2.9900	 6.8610
 2.9920	 6.1080
 2.9940	 4.4690
 2.9960	 5.2540
 2.9970	 6.8490
 2.9990	 6.0540
 3.0010	 5.0820
 3.0030	 4.7770
 3.0040	 4.9900
 3.0060	 5.5100
 3.0080	 5.2480
 3.0100	 4.8100
 3.0110	 5.7570
 3.0130	 6.1290
 3.0150	 5.4260
 3.0170	 5.5890
 3.0180	 6.1540
 3.0200	 6.0090
 3.0220	 5.3750
 3.0240	 4.9320
 3.0250	 4.9970
 3.0270	 5.1650
 3.0290	 5.3260
 3.0310	 5.5590
 3.0320	 5.1710
 3.0340	 4.7160
 3.0360	 5.3450
 3.0380	 6.5450
 3.0400	 6.3030
 3.0410	 4.9290
 3.0430	 4.8690
 3.0450	 5.6270
 3.0470	 5.1030
 3.0480	 6.3810
 3.0500	 6.9550
 3.0520	 6.3940
 3.0540	 6.0810
 3.0560	 5.5070
 3.0570	 4.9590
 3.0590	 5.4640
 3.0610	 5.7210
 3.0630	 5.1880
 3.0650	 4.8940
 3.0660	 4.5030
 3.0680	 5.3310
 3.0700	 6.0890
 3.0720	 5.6700
 3.0740	 5.3420
 3.0760	 5.4220
 3.0770	 5.5500
 3.0790	 5.4290
 3.0810	 5.1920
 3.0830	 5.2190
 3.0850	 5.3930
 3.0870	 5.5850
 3.0880	 5.7870
 3.0900	 5.7790
 3.0920	 5.7900
 3.0940	 5.7230
 3.0960	 5.5760
 3.0980	 5.5420
 3.0990	 5.5990
 3.1010	 5.5850
 3.1030	 5.7840
 3.1050	 5.9740
 3.1070	 5.9430
 3.1090	 6.0660
 3.1110	 6.1730
 3.1120	 6.1070
 3.1140	 6.2290
 3.1160	 6.2640
 3.1180	 6.2770
 3.1200	 6.1280
 3.1220	 6.1800
 3.1240	 6.1360
 3.1260	 6.0110
 3.1270	 6.2050
 3.1290	 6.2390
 3.1310	 6.0090
 3.1330	 6.3070
 3.1350	 6.3710
 3.1370	 5.7080
 3.1390	 4.7240
 3.1410	 4.1070
 3.1430	 4.9490
 3.1450	 6.9920
 3.1460	 7.6430
 3.1480	 7.7880
 3.1500	 7.4060
 3.1520	 6.3180
 3.1540	 6.0530
 3.1560	 6.2800
 3.1580	 6.6520
 3.1600	 6.8620
 3.1620	 6.6680
 3.1640	 6.4490
 3.1660	 6.0300
 3.1680	 6.3290
 3.1700	 7.9470
 3.1710	 7.6210
 3.1730	 6.0810
 3.1750	 5.1080
 3.1770	 5.7100
 3.1790	 7.2240
 3.1810	 7.0460
 3.1830	 6.5460
 3.1850	 6.6970
 3.1870	 6.7050
 3.1890	 6.6680
 3.1910	 6.8190
 3.1930	 6.9000
 3.1950	 6.9740
 3.1970	 6.9300
 3.1990	 6.9310
 3.2010	 6.8650
 3.2030	 6.9960
 3.2050	 6.9640
 3.2070	 6.9940
 3.2090	 7.0080
 3.2110	 7.1910
 3.2130	 7.2280
 3.2150	 7.1870
 3.2170	 7.2520
 3.2190	 7.2750
 3.2210	 7.1750
 3.2230	 7.3240
 3.2250	 7.3800
 3.2270	 7.3870
 3.2290	 7.4740
 3.2310	 7.5270
 3.2330	 7.1320
 3.2350	 7.1050
 3.2370	 7.4500
 3.2390	 7.5500
 3.2410	 7.2990
 3.2430	 7.3490
 3.2450	 7.3700
 3.2470	 7.3890
 3.2490	 7.3410
 3.2510	 7.4820
 3.2530	 7.5780
 3.2550	 7.7080
 3.2570	 7.7480
 3.2590	 7.5960
 3.2610	 7.4780
 3.2630	 7.5110
 3.2650	 7.4550
 3.2670	 7.5900
 3.2690	 7.5930
 3.2720	 7.5260
 3.2740	 7.5640
 3.2760	 7.7960
 3.2780	 7.7700
 3.2800	 7.7210
 3.2820	 7.8620
 3.2840	 7.9120
 3.2860	 7.8820
 3.2880	 7.8590
 3.2900	 7.8090
 3.2920	 7.6990
 3.2940	 7.5990
 3.2960	 7.8580
 3.2990	 7.9650
 3.3010	 7.9330
 3.3030	 7.9210
 3.3050	 7.9410
 3.3070	 7.8710
 3.3090	 7.8880
 3.3110	 7.7940
 3.3130	 7.6880
 3.3150	 7.6010
 3.3180	 7.5190
 3.3200	 7.4410
 3.3220	 7.3920
 3.3240	 7.1690
 3.3260	 7.0960
 3.3280	 7.1180
 3.3300	 7.0970
 3.3330	 6.9200
 3.3350	 6.7980
 3.3370	 6.6310
 3.3390	 6.5710
 3.3410	 6.3630
 3.3430	 6.3440
 3.3450	 6.4050
 3.3480	 6.3550
 3.3500	 6.2930
 3.3520	 6.0830
 3.3540	 5.8320
 3.3560	 5.8670
 3.3580	 5.8350
 3.3610	 5.6570
 3.3630	 5.4730
 3.3650	 5.4750
 3.3670	 5.3520
 3.3690	 5.2670
 3.3720	 5.3420
 3.3740	 5.4240
 3.3760	 5.2990
 3.3780	 5.3070
 3.3800	 5.2090
 3.3830	 5.1840
 3.3850	 4.9660
 3.3870	 4.8100
 3.3890	 4.6680
 3.3910	 4.6490
 3.3940	 4.5980
 3.3960	 4.5010
 3.3980	 4.4090
 3.4000	 4.4290
 3.4020	 4.5250
 3.4050	 4.5330
 3.4070	 4.4010
 3.4090	 4.4230
 3.4110	 4.4620
 3.4140	 4.4960
 3.4160	 4.5140
 3.4180	 4.6140
 3.4200	 4.7360
 3.4230	 4.7550
 3.4250	 4.6470
 3.4270	 4.7010
 3.4290	 4.9040
 3.4320	 5.0050
 3.4340	 4.8950
 3.4360	 4.8310
 3.4390	 5.0330
 3.4410	 5.2830
 3.4430	 5.2640
 3.4450	 5.4210
 3.4480	 5.4340
 3.4500	 5.5630
 3.4520	 5.7210
 3.4550	 5.8490
 3.4570	 5.9490
 3.4590	 5.9880
 3.4620	 6.0350
 3.4640	 6.0940
 3.4660	 6.0430
 3.4680	 6.1170
 3.4710	 6.1640
 3.4730	 6.1300
 3.4750	 6.0760
 3.4780	 6.1620
 3.4800	 6.1570
 3.4820	 6.1370
 3.4850	 6.0750
 3.4870	 6.0030
 3.4890	 5.8380
 3.4920	 5.7650
 3.4940	 5.8390
 3.4970	 5.7600
 3.4990	 5.5920
 3.5010	 5.7050
 3.5040	 5.8290
 3.5060	 5.9110
 3.5080	 5.8130
 3.5110	 6.0600
 3.5130	 6.3480
 3.5160	 6.6880
 3.5180	 7.1240
 3.5200	 7.5620
 3.5230	 7.8580
 3.5250	 8.1630
 3.5270	 8.3650
 3.5300	 8.5440
 3.5320	 8.7270
 3.5350	 8.9170
 3.5370	 9.0300
 3.5400	 9.2030
 3.5420	 9.3650
 3.5440	 9.4820
 3.5470	 9.4980
 3.5490	 9.5580
 3.5520	 9.7060
 3.5540	 9.8730
 3.5570	10.0800
 3.5590	10.1380
 3.5610	10.0830
 3.5640	10.2220
 3.5660	10.3270
 3.5690	10.3940
 3.5710	10.3610
 3.5740	10.4010
 3.5760	10.5370
 3.5790	10.5540
 3.5810	10.5790
 3.5840	10.7360
 3.5860	10.7890
 3.5890	10.9420
 3.5910	11.0780
 3.5930	10.9910
 3.5960	10.9380
 3.5980	11.1930
 3.6010	11.3630
 3.6030	11.4390
 3.6060	11.4200
 3.6080	11.3780
 3.6110	11.3770
 3.6140	11.5450
 3.6160	11.6490
 3.6190	11.6420
 3.6210	11.5390
 3.6240	11.5600
 3.6260	11.5910
 3.6290	11.6500
 3.6310	11.6910
 3.6340	11.8150
 3.6360	11.8920
 3.6390	11.9110
 3.6410	11.8330
 3.6440	11.8150
 3.6470	11.8530
 3.6490	11.9570
 3.6520	11.9870
 3.6540	12.0000
 3.6570	11.9640
 3.6590	11.9860
 3.6620	12.0200
 3.6650	12.0370
 3.6670	11.9170
 3.6700	11.9240
 3.6720	12.1260
 3.6750	12.2420
 3.6780	12.1980
 3.6800	12.1850
 3.6830	12.2590
 3.6850	12.2430
 3.6880	12.2420
 3.6910	12.3720
 3.6930	12.3210
 3.6960	12.2050
 3.6990	12.1740
 3.7010	12.2350
 3.7040	12.3280
 3.7060	12.4870
 3.7090	12.4700
 3.7120	12.4620
 3.7140	12.4310
 3.7170	12.3980
 3.7200	12.4470
 3.7220	12.6160
 3.7250	12.6570
 3.7280	12.7030
 3.7300	12.5970
 3.7330	12.6280
 3.7360	12.6770
 3.7390	12.6870
 3.7410	12.7090
 3.7440	12.7270
 3.7470	12.7470
 3.7490	12.8450
 3.7520	12.8890
 3.7550	13.0010
 3.7580	12.9010
 3.7600	12.7500
 3.7630	12.8510
 3.7660	13.0250
 3.7680	13.0030
 3.7710	12.9910
 3.7740	12.9290
 3.7770	13.0200
 3.7790	13.1010
 3.7820	13.0870
 3.7850	13.1280
 3.7880	13.1700
 3.7900	13.2120
 3.7930	13.3150
 3.7960	13.3120
 3.7990	13.3040
 3.8020	13.4070
 3.8040	13.4740
 3.8070	13.4250
 3.8100	13.3850
 3.8130	13.3200
 3.8160	13.3020
 3.8180	13.3230
 3.8210	13.4820
 3.8240	13.6930
 3.8270	13.7700
 3.8300	13.6770
 3.8330	13.8140
 3.8350	13.9090
 3.8380	13.7970
 3.8410	13.8120
 3.8440	13.7660
 3.8470	13.7030
 3.8500	13.8570
 3.8520	13.9880
 3.8550	13.9800
 3.8580	13.9670
 3.8610	14.1190
 3.8640	14.1970
 3.8670	14.2280
 3.8700	14.3320
 3.8730	14.2610
 3.8750	14.0930
 3.8780	14.1370
 3.8810	14.2870
 3.8840	14.3900
 3.8870	14.3400
 3.8900	14.3440
 3.8930	14.4400
 3.8960	14.5700
 3.8990	14.5210
 3.9020	14.4620
 3.9050	14.5850
 3.9080	14.7610
 3.9110	14.7070
 3.9140	14.6860
 3.9160	14.7060
 3.9190	14.6820
 3.9220	14.7060
 3.9250	14.8470
 3.9280	14.8810
 3.9310	14.9150
 3.9340	14.9720
 3.9370	15.0120
 3.9400	14.9480
 3.9430	14.9690
 3.9460	15.0430
 3.9490	15.2390
 3.9520	15.2330
 3.9550	15.2280
 3.9580	15.2220
 3.9610	15.2830
 3.9640	15.3180
 3.9670	15.3560
 3.9700	15.3870
 3.9730	15.5010
 3.9770	15.6710
 3.9800	15.6890
 3.9830	15.6670
 3.9860	15.6560
 3.9890	15.7340
 3.9920	15.8310
 3.9950	15.8380
 3.9980	15.8750
 4.0010	15.9030
 4.0040	16.0260
 4.0070	16.1060
 4.0100	16.1880
 4.0130	16.2160
 4.0170	16.2100
 4.0200	16.2540
 4.0230	16.3390
 4.0260	16.2990
 4.0290	16.3180
 4.0320	16.4070
 4.0350	16.5250
 4.0380	16.5820
 4.0420	16.6880
 4.0450	16.7710
 4.0480	16.8720
 4.0510	16.8360
 4.0540	16.8330
 4.0570	16.8870
 4.0610	16.9580
 4.0640	16.9880
 4.0670	16.9770
 4.0700	17.0140
 4.0730	17.0420
 4.0770	17.0910
 4.0800	17.2090
 4.0830	17.2560
 4.0860	17.2190
 4.0890	17.2610
 4.0930	17.3490
 4.0960	17.3930
 4.0990	17.4150
 4.1020	17.3950
 4.1060	17.4980
 4.1090	17.5910
 4.1120	17.5490
 4.1150	17.3870
 4.1190	17.3130
 4.1220	17.4660
 4.1250	17.7070
 4.1280	17.7950
 4.1320	17.7420
 4.1350	17.6620
 4.1380	17.7030
 4.1420	17.8680
 4.1450	17.9680
 4.1480	17.9180
 4.1520	17.8370
 4.1550	17.8340
 4.1580	17.8910
 4.1620	17.9450
 4.1650	17.9650
 4.1680	17.9160
 4.1720	17.8910
 4.1750	17.8810
 4.1780	17.9860
 4.1820	18.0730
 4.1850	18.0940
 4.1890	17.9980
 4.1920	17.9710
 4.1950	17.8950
 4.1990	17.8440
 4.2020	17.7730
 4.2060	17.6360
 4.2090	17.3910
 4.2120	17.1590
 4.2160	17.0440
 4.2190	16.9980
 4.2230	16.9810
 4.2260	16.8740
 4.2300	16.6080
 4.2330	16.4300
 4.2360	16.3480
 4.2400	16.1660
 4.2430	16.1730
 4.2470	16.6460
 4.2500	16.8600
 4.2540	17.0190
 4.2570	17.2600
 4.2610	17.2360
 4.2640	16.9880
 4.2680	16.7290
 4.2710	16.7270
 4.2750	16.9060
 4.2780	17.1110
 4.2820	17.2990
 4.2850	17.1180
 4.2890	16.8980
 4.2930	17.0030
 4.2960	17.1340
 4.3000	17.2560
 4.3030	17.3680
 4.3070	17.3980
 4.3100	17.4010
 4.3140	17.4850
 4.3180	17.5890
 4.3210	17.5510
 4.3250	17.6990
 4.3280	17.7330
 4.3320	17.6840
 4.3360	17.6970
 4.3390	17.8800
 4.3430	18.0000
 4.3470	18.0530
 4.3500	18.0400
 4.3540	17.9870
 4.3570	18.0550
 4.3610	18.1170
 4.3650	18.0960
 4.3680	18.1690
 4.3720	18.2600
 4.3760	18.1960
 4.3800	18.1670
 4.3830	18.2130
 4.3870	18.2390
 4.3910	18.2470
 4.3940	18.1970
 4.3980	18.1780
 4.4020	18.1880
 4.4060	18.2110
 4.4090	18.1950
 4.4130	18.1650
 4.4170	18.0990
 4.4210	18.0550
 4.4240	18.0760
 4.4280	18.1100
 4.4320	18.0920
 4.4360	18.1000
 4.4400	18.1220
 4.4430	18.1220
 4.4470	18.0670
 4.4510	18.0520
 4.4550	18.0430
 4.4590	18.0710
 4.4620	18.1410
 4.4660	18.1350
 4.4700	18.1030
 4.4740	18.0750
 4.4780	17.9970
 4.4820	17.9920
 4.4860	17.9870
 4.4900	17.9920
 4.4930	17.9570
 4.4970	17.9180
 4.5010	17.9230
 4.5050	17.9120
 4.5090	17.8490
 4.5130	17.9300
 4.5170	17.9000
 4.5210	17.8050
 4.5250	17.7300
 4.5290	17.7550
 4.5330	17.8050
 4.5370	17.8160
 4.5410	17.8110
 4.5450	17.7930
 4.5490	17.7710
 4.5530	17.7730
 4.5570	17.7960
 4.5610	17.7700
 4.5650	17.7670
 4.5690	17.7480
 4.5730	17.6860
 4.5770	17.7230
 4.5810	17.6730
 4.5850	17.6340
 4.5890	17.6480
 4.5930	17.6970
 4.5970	17.6190
 4.6010	17.5490
 4.6050	17.5030
 4.6090	17.4780
 4.6130	17.4860
 4.6170	17.6040
 4.6220	17.5530
 4.6260	17.5020
 4.6300	17.5470
 4.6340	17.4980
 4.6380	17.4870
 4.6420	17.5240
 4.6460	17.5090
 4.6510	17.5170
 4.6550	17.4670
 4.6590	17.4430
 4.6630	17.4970
 4.6670	17.5780
 4.6720	17.6320
 4.6760	17.6470
 4.6800	17.6340
 4.6840	17.5760
 4.6880	17.5600
 4.6930	17.5700
 4.6970	17.5460
 4.7010	17.5510
 4.7050	17.5590
 4.7100	17.5940
 4.7140	17.6650
 4.7180	17.7000
 4.7230	17.6030
 4.7270	17.5400
 4.7310	17.5450
 4.7360	17.6650
 4.7400	17.6370
 4.7440	17.5810
 4.7490	17.6280
 4.7530	17.6820
 4.7570	17.7040
 4.7620	17.6850
 4.7660	17.7100
 4.7700	17.7320
 4.7750	17.6320
 4.7790	17.5650
 4.7840	17.6600
 4.7880	17.8890
 4.7920	17.8440
 4.7970	17.7100
 4.8010	17.7630
 4.8060	17.9340
 4.8100	17.9740
 4.8150	17.9130
 4.8190	17.9450
 4.8240	17.9190
 4.8280	17.9450
 4.8330	17.9700
 4.8370	17.9340
 4.8420	17.8500
 4.8460	17.8490
 4.8510	17.9290
 4.8550	18.0110
 4.8600	17.9770
 4.8640	17.9210
 4.8690	17.9390
 4.8730	18.0840
 4.8780	18.1210
 4.8830	18.0520
 4.8870	18.0020
 4.8920	18.0700
 4.8960	18.0470
 4.9010	17.9850
 4.9060	18.0210
 4.9100	18.1210
 4.9150	18.0670
 4.9200	18.0100
 4.9240	18.0320
 4.9290	18.1630
 4.9340	18.2250
 4.9380	18.2140
 4.9430	18.1500
 4.9480	18.2030
 4.9530	18.2480
 4.9570	18.2940
 4.9620	18.3090
 4.9670	18.3600
 4.9720	18.4190
 4.9760	18.4460
 4.9810	18.3930
 4.9860	18.4480
 4.9910	18.5160
 4.9960	18.4770
 5.0000	18.4450
 5.0050	18.4410
 5.0100	18.3840
 5.0150	18.4680
 5.0200	18.5530
 5.0250	18.5320
 5.0290	18.4730
 5.0340	18.5190
 5.0390	18.5540
 5.0440	18.5710
 5.0490	18.5600
 5.0540	18.5470
 5.0590	18.5820
 5.0640	18.7780
 5.0690	18.7860
 5.0740	18.7380
 5.0790	18.7060
 5.0840	18.6630
 5.0890	18.6870
 5.0940	18.7090
 5.0990	18.6770
 5.1040	18.7320
 5.1090	18.7760
 5.1140	18.7980
 5.1190	18.7580
 5.1240	18.7500
 5.1290	18.7650
 5.1340	18.7630
 5.1390	18.7890
 5.1440	18.7350
 5.1490	18.6480
 5.1540	18.7920
 5.1600	18.8660
 5.1650	18.8210
 5.1700	18.8180
 5.1750	18.8160
 5.1800	18.7580
 5.1850	18.7280
 5.1910	18.6810
 5.1960	18.6620
 5.2010	18.6440
 5.2060	18.6490
 5.2110	18.5370
 5.2170	18.4560
 5.2220	18.5370
 5.2270	18.5840
 5.2320	18.5100
 5.2380	18.4800
 5.2430	18.4480
 5.2480	18.3260
 5.2540	18.3110
 5.2590	18.3690
 5.2640	18.4000
 5.2700	18.3450
 5.2750	18.2690
 5.2800	18.2870
 5.2860	18.2610
 5.2910	18.1810
 5.2970	18.1520
 5.3020	18.2280
 5.3070	18.1770
 5.3130	18.0950
 5.3180	18.0200
 5.3240	18.0170
 5.3290	18.0020
 5.3350	17.9780
 5.3400	17.8690
 5.3460	17.7820
 5.3510	17.6830
 5.3570	17.6790
 5.3620	17.6870
 5.3680	17.7140
 5.3730	17.7430
 5.3790	17.7270
 5.3850	17.6770
 5.3900	17.7050
 5.3960	17.6440
 5.4010	17.6030
 5.4070	17.4690
 5.4130	17.3600
 5.4180	17.2190
 5.4240	17.0940
 5.4300	17.2290
 5.4350	17.2420
 5.4410	17.2220
 5.4470	17.2400
 5.4530	17.0700
 5.4580	16.8730
 5.4640	16.6070
 5.4700	16.5720
 5.4760	16.5100
 5.4810	16.4020
 5.4870	16.3500
 5.4930	16.3580
 5.4990	16.1900
 5.5050	16.0000
 5.5110	15.8900
 5.5160	15.7290
 5.5220	15.4910
 5.5280	15.3100
 5.5340	15.1140
 5.5400	14.9020
 5.5460	14.6000
 5.5520	14.2770
 5.5580	14.0190
 5.5640	13.8250
 5.5700	13.4780
 5.5760	13.0630
 5.5820	12.7220
 5.5880	12.6350
 5.5940	12.3800
 5.6000	11.9960
 5.6060	11.6670
 5.6120	11.3700
 5.6180	11.0710
 5.6240	10.8750
 5.6300	10.6380
 5.6360	10.3480
 5.6420	 9.9050
 5.6490	 9.6780
 5.6550	 9.4450
 5.6610	 9.2450
 5.6670	 8.9690
 5.6730	 8.6040
 5.6800	 8.3300
 5.6860	 8.1360
 5.6920	 7.7780
 5.6980	 7.4880
 5.7040	 7.0570
 5.7110	 6.5600
 5.7170	 6.2880
 5.7230	 6.0700
 5.7300	 5.7600
 5.7360	 5.4140
 5.7420	 5.1980
 5.7490	 5.0420
 5.7550	 4.9320
 5.7620	 4.8390
 5.7680	 4.6780
 5.7740	 4.8410
 5.7810	 5.0050
 5.7870	 5.0900
 5.7940	 5.1960
 5.8000	 5.3360
 5.8070	 5.3570
 5.8130	 5.3500
 5.8200	 5.2640
 5.8260	 5.3340
 5.8330	 5.5060
 5.8390	 5.5800
 5.8460	 5.6850
 5.8530	 5.7900
 5.8590	 5.7930
 5.8660	 5.8350
 5.8720	 5.8130
 5.8790	 5.6290
 5.8860	 5.4950
 5.8920	 5.5320
 5.8990	 5.4230
 5.9060	 5.4690
 5.9130	 5.4600
 5.9190	 5.4970
 5.9260	 5.5440
 5.9330	 5.5300
 5.9400	 5.5360
 5.9470	 5.9830
 5.9530	 6.3580
 5.9600	 6.6870
 5.9670	 6.8290
 5.9740	 6.9040
 5.9810	 6.8700
 5.9880	 6.9330
 5.9950	 7.0640
 6.0020	 7.2700
 6.0090	 7.1940
 6.0160	 7.1260
 6.0230	 7.1440
 6.0300	 7.2070
 6.0370	 7.1540
 6.0440	 6.9840
 6.0510	 6.7970
 6.0580	 6.9940
 6.0650	 7.0030
 6.0720	 6.9850
 6.0790	 7.1410
 6.0860	 7.2450
 6.0930	 7.2340
 6.1000	 7.3110
 6.1080	 7.1870
 6.1150	 7.0560
 6.1220	 7.2750
 6.1290	 7.4610
 6.1370	 7.3710
 6.1440	 7.4030
 6.1510	 7.3740
 6.1580	 7.2970
 6.1660	 7.3140
 6.1730	 7.4120
 6.1800	 7.2520
 6.1880	 7.1200
 6.1950	 7.1280
 6.2030	 7.1780
 6.2100	 7.1820
 6.2170	 7.2520
 6.2250	 7.1650
 6.2320	 7.2950
 6.2400	 7.5100
 6.2470	 7.6610
 6.2550	 7.6530
 6.2630	 7.9050
 6.2700	 8.1900
 6.2780	 8.3310
 6.2850	 8.3290
 6.2930	 8.3660
 6.3010	 8.4310
 6.3080	 8.6900
 6.3160	 8.8440
 6.3240	 8.8810
 6.3310	 8.8890
 6.3390	 8.8390
 6.3470	 8.7500
 6.3550	 8.9910
 6.3620	 8.9890
 6.3700	 8.9470
 6.3780	 9.1150
 6.3860	 9.3420
 6.3940	 9.3160
 6.4020	 9.2360
 6.4100	 8.8410
 6.4180	 8.8510
 6.4260	 9.3300
 6.4330	 9.4940
 6.4410	 9.5060
 6.4490	 9.7210
 6.4580	 9.8530
 6.4660	 9.9240
 6.4740	 9.7980
 6.4820	 9.8010
 6.4900	 9.6030
 6.4980	 9.6840
 6.5060	10.0060
 6.5140	10.1480
 6.5230	10.2350
 6.5310	10.5980
 6.5390	10.6230
 6.5470	10.6410
 6.5550	10.5950
 6.5640	10.4580
 6.5720	10.1290
 6.5800	10.2050
 6.5890	10.3070
 6.5970	10.5500
 6.6060	10.7610
 6.6140	10.7700
 6.6220	10.6400
 6.6310	10.4630
 6.6390	10.2020
 6.6480	10.6000
 6.6560	10.9470
 6.6650	10.8470
 6.6740	10.5240
 6.6820	10.3890
 6.6910	10.3590
 6.6990	10.4070
 6.7080	10.1980
 6.7170	 9.9880
 6.7260	 9.6060
 6.7340	 9.3170
 6.7430	 9.0980
 6.7520	 8.8850
 6.7610	 8.5870
 6.7690	 8.2400
 6.7780	 7.6290
 6.7870	 7.1820
 6.7960	 6.8420
 6.8050	 6.6750
 6.8140	 6.5090
 6.8230	 6.4660
 6.8320	 6.2650
 6.8410	 6.2500
 6.8500	 6.1490
 6.8590	 6.0360
 6.8680	 6.0550
 6.8770	 6.3330
 6.8860	 6.4490
 6.8950	 6.7220
 6.9050	 6.7440
 6.9140	 6.7600
 6.9230	 6.7190
 6.9320	 6.8320
 6.9420	 6.8800
 6.9510	 6.9110
 6.9600	 6.6300
 6.9700	 6.6420
 6.9790	 6.6780
 6.9880	 6.7630
 6.9980	 6.7290
 7.0070	 6.7700
 7.0170	 6.7560
 7.0260	 6.7620
 7.0360	 6.6690
 7.0450	 6.6240
 7.0550	 6.7600
 7.0650	 6.9600
 7.0740	 6.7560
 7.0840	 6.8470
 7.0940	 6.9840
 7.1030	 7.1170
 7.1130	 7.0470
 7.1230	 6.9990
 7.1330	 6.9480
 7.1420	 7.0910
 7.1520	 6.9580
 7.1620	 6.9090
 7.1720	 6.8070
 7.1820	 6.6810
 7.1920	 6.4710
 7.2020	 6.3540
 7.2120	 6.2920
 7.2220	 6.4540
 7.2320	 6.4230
 7.2420	 6.4760
 7.2520	 6.5020
 7.2620	 6.4580
 7.2730	 6.3450
 7.2830	 6.4470
 7.2930	 6.4810
 7.3030	 6.5240
 7.3140	 6.4010
 7.3240	 6.5130
 7.3340	 6.5240
 7.3450	 6.6560
 7.3550	 6.5760
 7.3660	 6.5880
 7.3760	 6.6020
 7.3870	 6.7340
 7.3970	 6.7770
 7.4080	 6.9130
 7.4180	 6.8500
 7.4290	 6.8270
 7.4400	 6.7980
 7.4500	 6.9570
 7.4610	 6.8030
 7.4720	 6.6360
 7.4830	 6.5410
 7.4930	 6.5520
 7.5040	 6.4920
 7.5150	 6.4930
 7.5260	 6.3300
 7.5370	 6.3500
 7.5480	 6.3260
 7.5590	 6.3220
 7.5700	 6.2200
 7.5810	 6.1750
 7.5920	 6.1720
 7.6030	 6.3080
 7.6140	 6.2420
 7.6260	 6.3860
 7.6370	 6.4140
 7.6480	 6.4590
 7.6590	 6.4510
 7.6710	 6.5750
 7.6820	 6.6550
 7.6930	 6.7850
 7.7050	 6.5580
 7.7160	 6.4580
 7.7280	 6.4100
 7.7390	 6.5010
 7.7510	 6.3570
 7.7630	 6.3300
 7.7740	 6.3090
 7.7860	 6.3370
 7.7980	 6.1650
 7.8090	 6.1890
 7.8210	 6.1200
 7.8330	 6.1210
 7.8450	 6.0100
 7.8570	 6.0530
 7.8690	 6.0170
 7.8810	 6.0760
 7.8930	 5.9820
 7.9050	 6.0740
 7.9170	 6.0250
 7.9290	 6.0240
 7.9410	 6.0170
 7.9530	 5.9890
 7.9650	 5.9250
 7.9780	 5.9750
 7.9900	 5.9390
 8.0020	 6.0700
 8.0150	 6.0800
 8.0270	 6.0650
 8.0390	 5.8950
 8.0520	 5.9700
 8.0640	 5.9030
 8.0770	 6.0880
 8.0900	 6.2150
 8.1020	 6.2870
 8.1150	 6.1260
 8.1280	 6.3120
 8.1400	 6.2860
 8.1530	 6.3700
 8.1660	 6.3650
 8.1790	 6.5040
 8.1920	 6.4310
 8.2050	 6.4250
 8.2180	 6.1640
 8.2310	 6.1310
 8.2440	 6.2240
 8.2570	 6.4650
 8.2700	 6.2220
 8.2830	 6.2130
 8.2970	 6.2600
 8.3100	 6.4050
 8.3230	 6.2760
 8.3370	 6.3140
 8.3500	 6.0880
 8.3640	 6.1210
 8.3770	 6.0760
 8.3910	 6.1350
 8.4040	 6.0880
 8.4180	 6.1840
 8.4320	 6.0700
 8.4450	 6.2030
 8.4590	 6.0290
 8.4730	 5.9960
 8.4870	 5.9330
 8.5010	 5.9450
 8.5150	 5.6480
 8.5290	 5.7280
 8.5430	 5.7080
 8.5570	 5.7510
 8.5710	 5.5730
 8.5850	 5.5040
 8.5990	 5.1150
 8.6140	 5.3860
 8.6280	 5.5870
 8.6420	 5.7120
 8.6570	 5.7870
 8.6710	 6.1910
 8.6860	 6.2660
 8.7000	 6.3160
 8.7150	 6.1690
 8.7300	 6.2240
 8.7440	 6.2470
 8.7590	 6.4710
 8.7740	 6.3720
 8.7890	 6.4300
 8.8040	 6.2830
 8.8190	 6.3190
 8.8340	 6.2000
 8.8490	 6.2950
 8.8640	 6.1520
 8.8790	 6.1240
 8.8940	 5.9500
 8.9100	 5.9490
 8.9250	 5.6840
 8.9400	 5.6390
 8.9560	 5.4380
 8.9710	 5.4300
 8.9870	 5.3220
 9.0020	 5.4580
 9.0180	 5.4750
 9.0340	 5.4960
 9.0500	 5.2710
 9.0650	 5.4480
 9.0810	 5.5590
 9.0970	 5.6100
 9.1130	 5.4810
 9.1290	 5.7210
 9.1450	 5.6200
 9.1610	 5.7450
 9.1780	 5.5660
 9.1940	 5.5330
 9.2100	 5.5630
 9.2270	 5.8650
 9.2430	 5.6640
 9.2600	 5.4670
 9.2760	 5.1750
 9.2930	 5.3500
 9.3090	 5.4260
 9.3260	 5.4750
 9.3430	 5.1530
 9.3600	 5.0540
 9.3770	 4.8740
 9.3940	 5.1010
 9.4110	 4.9480
 9.4280	 5.0640
 9.4450	 5.0240
 9.4620	 5.3020
 9.4800	 5.1570
 9.4970	 5.3060
 9.5140	 5.3940
 9.5320	 5.6420
 9.5500	 5.3930
 9.5670	 5.5100
 9.5850	 5.5750
 9.6030	 5.6230
 9.6200	 5.3210
 9.6380	 5.3810
 9.6560	 5.3000
 9.6740	 5.5300
 9.6920	 5.4790
 9.7100	 5.7650
 9.7290	 5.6970
 9.7470	 5.9320
 9.7650	 5.9230
 9.7840	 5.9740
 9.8020	 5.8230
 9.8210	 5.9590
 9.8390	 5.9060
 9.8580	 6.1550
 9.8770	 6.2360
 9.8960	 6.5680
 9.9150	 6.3420
 9.9340	 6.3850
 9.9530	 6.4090
 9.9720	 6.4450
 9.9910	 6.2780
10.0100	 6.4720
10.0300	 6.4340
10.0490	 6.5390
10.0690	 6.4140
10.0880	 6.6280
10.1080	 6.6130
10.1280	 6.9220
10.1480	 7.0130
10.1670	 7.3380
10.1870	 7.3060
10.2070	 7.4250
10.2280	 7.4280
10.2480	 7.6730
10.2680	 7.4780
10.2890	 7.5770
10.3090	 7.5090
10.3300	 7.6350
10.3500	 7.5820
10.3710	 7.6730
10.3920	 7.5130
10.4120	 7.6110
10.4330	 7.6860
10.4540	 7.9920
10.4760	 7.8750
10.4970	 8.0060
10.5180	 7.9210
10.5390	 8.1010
10.5610	 8.0420
10.5820	 8.2680
10.6040	 8.2950
10.6260	 8.3890
10.6480	 8.2930
10.6700	 8.5040
10.6920	 8.3740
10.7140	 8.6040
10.7360	 8.4910
10.7580	 8.7110
10.7800	 8.6500
10.8030	 8.6340
10.8250	 8.3600
10.8480	 8.4090
10.8710	 8.1520
10.8940	 8.1800
10.9170	 8.0210
10.9400	 8.1280
10.9630	 8.1160
10.9860	 8.3670
11.0090	 8.1900
11.0330	 8.0290
11.0560	 7.8850
11.0800	 8.2950
11.1040	 8.1790
11.1270	 8.2140
11.1510	 8.1580
11.1750	 8.3100
11.2000	 8.1190
11.2240	 8.2430
11.2480	 8.1660
11.2730	 8.2450
11.2970	 8.2110
11.3220	 8.4440
11.3470	 8.4030
11.3720	 8.6670
11.3970	 8.4800
11.4220	 8.5630
11.4470	 8.7940
11.4720	 9.4200
11.4980	 8.6970
11.5230	 8.5590
11.5490	 8.4130
11.5750	 8.3550
11.6000	 8.2020
11.6260	 8.4640
11.6530	 8.3050
11.6790	 8.4370
11.7050	 8.1470
11.7320	 8.1810
11.7580	 8.0900
11.7850	 8.2350
11.8120	 7.9760
11.8390	 8.1500
11.8660	 7.7630
11.8930	 7.8600
11.9200	 7.8220
11.9480	 7.8850
11.9760	 7.7630
12.0030	 7.7260
12.0310	 7.3580
12.0590	 7.5150
12.0870	 7.2970
12.1150	 7.6040
12.1440	 7.5190
12.1720	 7.6800
12.2010	 7.2880
12.2300	 7.3960
12.2590	 7.1060
12.2880	 7.1270
12.3170	 7.0380
12.3460	 7.2590
12.3760	 6.8450
12.4050	 6.7910
12.4350	 6.6940
12.4650	 6.9500
12.4950	 6.5670
12.5250	 6.8650
12.5550	 6.9450
12.5860	 6.9910
12.6170	 6.4750
12.6470	 6.4770
12.6780	 6.2290
12.7090	 6.4020
12.7410	 6.1510
12.7720	 6.4750
12.8030	 6.4030
12.8350	 6.6380
12.8670	 6.3580
12.8990	 6.7180
12.9310	 6.4340
12.9640	 6.2350
12.9960	 5.9990
13.0290	 6.2830
13.0610	 5.8850
13.0940	 5.9620
13.1280	 5.8750
13.1610	 6.4290
13.1940	 6.3460
13.2280	 6.3640
13.2620	 5.9510
13.2960	 6.3100
13.3300	 6.3290
13.3640	 6.4610
13.3990	 6.1130
13.4340	 6.0390
13.4690	 5.4280
13.5040	 5.5360
13.5390	 5.4880
13.5740	 5.9220
13.6100	 5.5200
13.6460	 5.5920
13.6820	 5.2040
13.7180	 5.5120
13.7540	 5.4750
13.7910	 5.7790
13.8280	 5.5910
13.8650	 5.8340
13.9020	 5.1360
13.9390	 5.0590
13.9770	 4.9900
14.0150	 5.8770
14.0530	 5.6980
14.0910	 5.7400
14.1290	 5.2830
14.1680	 5.6780
14.2070	 5.5230
14.2460	 5.9780
14.2850	 5.4910
14.3240	 5.7060
14.3640	 4.9500
14.4040	 5.3160
14.4440	 5.0030
14.4840	 5.1840
14.5250	 4.8530
14.5660	 5.2360
14.6070	 4.7290
14.6480	 5.1130
14.6900	 4.7460
14.7310	 5.3320
14.7730	 4.7050
14.8150	 5.1270
14.8580	 5.1200
14.9010	 5.6440
14.9440	 5.0970
14.9870	 5.7270
15.0300	 4.8730
15.0740	 5.4400
15.1180	 4.6880
15.1620	 4.9770
15.2060	 4.5650
15.2510	 5.2630
15.2960	 4.6600
15.3410	 5.1570
15.3870	 4.3370
