Name: Pyllostachys vivax
Type: vegetation
Class: Tree
Genus: Pyllostachys
Species: vivax
Sample No.: JPL192
Owner: JPL
Wavelength Range: TIR
Origin: 34.12505; -118.11546; WGS84
Collection Date: 10/3/2016
Description: Samples were collected at the Huntington Garden in San Marino California as part of a JPL Subcontract studying HyTES imagery. Samples were taken to JPL and processed within 48 hours of collection. The same leaves were processed in the Nicolet and then measured using the ASD.
Measurement: Hemispherical reflectance
First Column: X
Second Column: Y
X Units: Wavelength (micrometer)
Y Units: Reflectance (percentage)
First X Value: 2.501
Last X Value: 15.387
Number of X Values: 1737
Additional Information: vegetation.tree.pyllostachys.vivax.tir.jpl192.jpl.nicolet.ancillary.txt

 2.5010	 7.2540
 2.5030	 7.2180
 2.5040	 7.2330
 2.5050	 7.1870
 2.5060	 7.2270
 2.5070	 7.1900
 2.5090	 7.1030
 2.5100	 7.0320
 2.5110	 7.0430
 2.5120	 7.0440
 2.5140	 7.0600
 2.5150	 7.0220
 2.5160	 7.0220
 2.5170	 6.9790
 2.5180	 6.9860
 2.5200	 6.9460
 2.5210	 6.9670
 2.5220	 6.9520
 2.5230	 6.9880
 2.5250	 6.9540
 2.5260	 6.9760
 2.5270	 6.9760
 2.5280	 6.9520
 2.5300	 6.9610
 2.5310	 7.0160
 2.5320	 6.9320
 2.5330	 6.9100
 2.5340	 6.9430
 2.5360	 6.9540
 2.5370	 6.9020
 2.5380	 6.9650
 2.5390	 6.9910
 2.5410	 6.9920
 2.5420	 7.0050
 2.5430	 7.0400
 2.5440	 6.9770
 2.5460	 7.0080
 2.5470	 7.0470
 2.5480	 7.1040
 2.5490	 7.0930
 2.5510	 7.0830
 2.5520	 7.0330
 2.5530	 7.0560
 2.5540	 7.0650
 2.5560	 7.1070
 2.5570	 7.1130
 2.5580	 7.1370
 2.5590	 7.1210
 2.5610	 7.0620
 2.5620	 6.9970
 2.5630	 6.9780
 2.5650	 7.0010
 2.5660	 7.0730
 2.5670	 7.1090
 2.5680	 7.1340
 2.5700	 7.0570
 2.5710	 7.1100
 2.5720	 7.1180
 2.5730	 7.0410
 2.5750	 7.0660
 2.5760	 7.1020
 2.5770	 7.0020
 2.5790	 7.0340
 2.5800	 7.0840
 2.5810	 7.0590
 2.5820	 7.0570
 2.5840	 6.9610
 2.5850	 6.8540
 2.5860	 6.8900
 2.5880	 6.8360
 2.5890	 6.8950
 2.5900	 6.9550
 2.5910	 6.9780
 2.5930	 6.9040
 2.5940	 6.7230
 2.5950	 6.5390
 2.5970	 6.6870
 2.5980	 6.8240
 2.5990	 6.8950
 2.6010	 6.8120
 2.6020	 6.7490
 2.6030	 6.6160
 2.6040	 6.5230
 2.6060	 6.4380
 2.6070	 6.4360
 2.6080	 6.3980
 2.6100	 6.4030
 2.6110	 6.3890
 2.6120	 6.3880
 2.6140	 6.3210
 2.6150	 6.2850
 2.6160	 6.1000
 2.6180	 6.0420
 2.6190	 6.0390
 2.6200	 5.9520
 2.6220	 5.9030
 2.6230	 5.9570
 2.6240	 5.8940
 2.6260	 5.8130
 2.6270	 5.6650
 2.6280	 5.6940
 2.6300	 5.5910
 2.6310	 5.4360
 2.6320	 5.4400
 2.6340	 5.4670
 2.6350	 5.4280
 2.6360	 5.4130
 2.6380	 5.2700
 2.6390	 5.1930
 2.6400	 5.1220
 2.6420	 5.0960
 2.6430	 5.0580
 2.6440	 5.0020
 2.6460	 4.9010
 2.6470	 4.8520
 2.6480	 4.7410
 2.6500	 4.7530
 2.6510	 4.6940
 2.6520	 4.5920
 2.6540	 4.5270
 2.6550	 4.5260
 2.6570	 4.4550
 2.6580	 4.4600
 2.6590	 4.3440
 2.6610	 4.2920
 2.6620	 4.2400
 2.6630	 4.1780
 2.6650	 3.9990
 2.6660	 3.9290
 2.6670	 3.8460
 2.6690	 3.8310
 2.6700	 3.7220
 2.6720	 3.6770
 2.6730	 3.7670
 2.6740	 3.7580
 2.6760	 3.5970
 2.6770	 3.5460
 2.6780	 3.5360
 2.6800	 3.5840
 2.6810	 3.5890
 2.6830	 3.5500
 2.6840	 3.4100
 2.6850	 3.3670
 2.6870	 3.3650
 2.6880	 3.4470
 2.6900	 3.4020
 2.6910	 3.3550
 2.6920	 3.2290
 2.6940	 3.1430
 2.6950	 3.1100
 2.6970	 3.1360
 2.6980	 3.1240
 2.6990	 3.1220
 2.7010	 3.0540
 2.7020	 3.1030
 2.7040	 3.0880
 2.7050	 3.0810
 2.7060	 3.0410
 2.7080	 3.0430
 2.7090	 2.9130
 2.7110	 2.8680
 2.7120	 2.8950
 2.7130	 2.9330
 2.7150	 2.9370
 2.7160	 3.0060
 2.7180	 2.9350
 2.7190	 2.8200
 2.7210	 2.6830
 2.7220	 2.8000
 2.7230	 2.8180
 2.7250	 2.7650
 2.7260	 2.7950
 2.7280	 2.9170
 2.7290	 2.9090
 2.7310	 2.9440
 2.7320	 2.9140
 2.7340	 2.9260
 2.7350	 2.8820
 2.7360	 2.8770
 2.7380	 2.8680
 2.7390	 2.8150
 2.7410	 2.7130
 2.7420	 2.7660
 2.7440	 2.8520
 2.7450	 2.8940
 2.7470	 2.8490
 2.7480	 2.8390
 2.7490	 2.8440
 2.7510	 2.9050
 2.7520	 2.8310
 2.7540	 2.8540
 2.7550	 2.7670
 2.7570	 2.8050
 2.7580	 2.8380
 2.7600	 2.8890
 2.7610	 2.9040
 2.7630	 2.8530
 2.7640	 2.8150
 2.7660	 2.8800
 2.7670	 2.8590
 2.7690	 2.8620
 2.7700	 2.8060
 2.7720	 2.8590
 2.7730	 2.8830
 2.7740	 2.9720
 2.7760	 2.8850
 2.7770	 2.8290
 2.7790	 2.8350
 2.7800	 2.9000
 2.7820	 2.8390
 2.7830	 2.7900
 2.7850	 2.8370
 2.7860	 2.8820
 2.7880	 2.8350
 2.7890	 2.8890
 2.7910	 2.9040
 2.7920	 2.9000
 2.7940	 2.8690
 2.7950	 2.8780
 2.7970	 2.8320
 2.7980	 2.8670
 2.8000	 2.8440
 2.8010	 2.8530
 2.8030	 2.7730
 2.8040	 2.8160
 2.8060	 2.8730
 2.8080	 2.8830
 2.8090	 2.8220
 2.8110	 2.8460
 2.8120	 2.8540
 2.8140	 2.8620
 2.8150	 2.8660
 2.8170	 2.8970
 2.8180	 2.8890
 2.8200	 2.9090
 2.8210	 2.8950
 2.8230	 2.9340
 2.8240	 2.8920
 2.8260	 2.8800
 2.8270	 2.8600
 2.8290	 2.9560
 2.8310	 2.9290
 2.8320	 2.9260
 2.8340	 2.9090
 2.8350	 2.8870
 2.8370	 2.8070
 2.8380	 2.8690
 2.8400	 2.9210
 2.8410	 2.9270
 2.8430	 2.8980
 2.8440	 2.9160
 2.8460	 2.8600
 2.8480	 2.8990
 2.8490	 2.9040
 2.8510	 2.8770
 2.8520	 2.8530
 2.8540	 2.9210
 2.8550	 2.9240
 2.8570	 2.9660
 2.8590	 2.9620
 2.8600	 2.9560
 2.8620	 2.8750
 2.8630	 2.8900
 2.8650	 2.8630
 2.8660	 2.9020
 2.8680	 2.9000
 2.8700	 2.9490
 2.8710	 2.9580
 2.8730	 2.9890
 2.8740	 2.9590
 2.8760	 2.9810
 2.8780	 3.0030
 2.8790	 3.0300
 2.8810	 2.9950
 2.8820	 2.9570
 2.8840	 2.8960
 2.8860	 2.9280
 2.8870	 2.9480
 2.8890	 2.9720
 2.8900	 2.9840
 2.8920	 3.0050
 2.8940	 2.9590
 2.8950	 3.0140
 2.8970	 2.9470
 2.8990	 2.9080
 2.9000	 2.9670
 2.9020	 3.0790
 2.9030	 3.0420
 2.9050	 3.0350
 2.9070	 3.0300
 2.9080	 3.0180
 2.9100	 3.0310
 2.9120	 3.0880
 2.9130	 3.0380
 2.9150	 3.0300
 2.9160	 3.0200
 2.9180	 3.0180
 2.9200	 3.0480
 2.9210	 3.1410
 2.9230	 3.0740
 2.9250	 3.0880
 2.9260	 3.0470
 2.9280	 3.0510
 2.9300	 3.0590
 2.9310	 3.0570
 2.9330	 3.0850
 2.9350	 3.1480
 2.9360	 3.0770
 2.9380	 3.0940
 2.9400	 3.0600
 2.9410	 3.0970
 2.9430	 3.0740
 2.9450	 3.1030
 2.9460	 3.0740
 2.9480	 3.0660
 2.9500	 3.0210
 2.9510	 3.0590
 2.9530	 3.0820
 2.9550	 3.0840
 2.9560	 3.0240
 2.9580	 3.0620
 2.9600	 3.1010
 2.9610	 3.1890
 2.9630	 3.1370
 2.9650	 3.0500
 2.9670	 2.9650
 2.9680	 3.0530
 2.9700	 3.0770
 2.9720	 3.0760
 2.9730	 3.1090
 2.9750	 3.1100
 2.9770	 2.9910
 2.9780	 2.9960
 2.9800	 3.0600
 2.9820	 3.1060
 2.9840	 3.0830
 2.9850	 3.1360
 2.9870	 3.1010
 2.9890	 3.1150
 2.9900	 3.1220
 2.9920	 3.1330
 2.9940	 3.0500
 2.9960	 3.0470
 2.9970	 3.0530
 2.9990	 3.0860
 3.0010	 3.0450
 3.0030	 3.0850
 3.0040	 3.1020
 3.0060	 3.1380
 3.0080	 3.1060
 3.0100	 3.1020
 3.0110	 3.0780
 3.0130	 3.0910
 3.0150	 3.0380
 3.0170	 3.0240
 3.0180	 3.0200
 3.0200	 3.0440
 3.0220	 3.0470
 3.0240	 3.0640
 3.0250	 3.0360
 3.0270	 3.0800
 3.0290	 3.0670
 3.0310	 3.0580
 3.0320	 3.0870
 3.0340	 3.1460
 3.0360	 3.0940
 3.0380	 3.1080
 3.0400	 3.1080
 3.0410	 3.0940
 3.0430	 3.0320
 3.0450	 3.0780
 3.0470	 3.0350
 3.0480	 3.0020
 3.0500	 3.0050
 3.0520	 3.0310
 3.0540	 3.0380
 3.0560	 3.0890
 3.0570	 3.0960
 3.0590	 3.1170
 3.0610	 3.0810
 3.0630	 3.0610
 3.0650	 3.0130
 3.0670	 3.0760
 3.0680	 3.0850
 3.0700	 3.0460
 3.0720	 3.0340
 3.0740	 3.0930
 3.0760	 3.1060
 3.0770	 3.1210
 3.0790	 3.0760
 3.0810	 3.0460
 3.0830	 3.0100
 3.0850	 3.0420
 3.0870	 3.0300
 3.0880	 3.0810
 3.0900	 3.0720
 3.0920	 3.0660
 3.0940	 3.0300
 3.0960	 3.0390
 3.0980	 2.9800
 3.1000	 3.0160
 3.1010	 3.0260
 3.1030	 3.0260
 3.1050	 2.9740
 3.1070	 2.9760
 3.1090	 2.9950
 3.1110	 3.0770
 3.1130	 3.0540
 3.1140	 2.9970
 3.1160	 2.9360
 3.1180	 3.0010
 3.1200	 3.0240
 3.1220	 3.0000
 3.1240	 2.9470
 3.1260	 2.9690
 3.1280	 2.9630
 3.1290	 2.9670
 3.1310	 2.9480
 3.1330	 2.9910
 3.1350	 2.9470
 3.1370	 2.9590
 3.1390	 2.9790
 3.1410	 3.0350
 3.1430	 3.0090
 3.1450	 2.9670
 3.1470	 2.9280
 3.1480	 2.9860
 3.1500	 2.9850
 3.1520	 3.0080
 3.1540	 2.9960
 3.1560	 2.9630
 3.1580	 2.8820
 3.1600	 2.9060
 3.1620	 2.9050
 3.1640	 2.9020
 3.1660	 2.9280
 3.1680	 2.9830
 3.1700	 2.9360
 3.1720	 2.9180
 3.1730	 2.8920
 3.1750	 2.9000
 3.1770	 2.9010
 3.1790	 2.9690
 3.1810	 2.9460
 3.1830	 2.9120
 3.1850	 2.8830
 3.1870	 2.9130
 3.1890	 2.9030
 3.1910	 2.9080
 3.1930	 2.8860
 3.1950	 2.9070
 3.1970	 2.8880
 3.1990	 2.8900
 3.2010	 2.8570
 3.2030	 2.8490
 3.2050	 2.8420
 3.2070	 2.8890
 3.2090	 2.8750
 3.2110	 2.8320
 3.2130	 2.8040
 3.2150	 2.8380
 3.2170	 2.8080
 3.2190	 2.7960
 3.2210	 2.7420
 3.2230	 2.7600
 3.2250	 2.7580
 3.2270	 2.7350
 3.2290	 2.7470
 3.2310	 2.8190
 3.2330	 2.8050
 3.2350	 2.8060
 3.2370	 2.8070
 3.2390	 2.8370
 3.2410	 2.8100
 3.2430	 2.8060
 3.2450	 2.8160
 3.2470	 2.8520
 3.2490	 2.8020
 3.2510	 2.7950
 3.2530	 2.7750
 3.2550	 2.7500
 3.2570	 2.7490
 3.2590	 2.7520
 3.2610	 2.6880
 3.2630	 2.7160
 3.2650	 2.7710
 3.2670	 2.7940
 3.2700	 2.7470
 3.2720	 2.7560
 3.2740	 2.7520
 3.2760	 2.7250
 3.2780	 2.6800
 3.2800	 2.7410
 3.2820	 2.7520
 3.2840	 2.7370
 3.2860	 2.6870
 3.2880	 2.6800
 3.2900	 2.6480
 3.2920	 2.6430
 3.2940	 2.6350
 3.2970	 2.6510
 3.2990	 2.6320
 3.3010	 2.5940
 3.3030	 2.5610
 3.3050	 2.6390
 3.3070	 2.6470
 3.3090	 2.6270
 3.3110	 2.5730
 3.3130	 2.5790
 3.3160	 2.5730
 3.3180	 2.5770
 3.3200	 2.5580
 3.3220	 2.5460
 3.3240	 2.4900
 3.3260	 2.5120
 3.3280	 2.5100
 3.3300	 2.5310
 3.3330	 2.5060
 3.3350	 2.4910
 3.3370	 2.4600
 3.3390	 2.4340
 3.3410	 2.3760
 3.3430	 2.3760
 3.3450	 2.3460
 3.3480	 2.3730
 3.3500	 2.3130
 3.3520	 2.2790
 3.3540	 2.2540
 3.3560	 2.2670
 3.3580	 2.2520
 3.3610	 2.2470
 3.3630	 2.2060
 3.3650	 2.1820
 3.3670	 2.1520
 3.3690	 2.1540
 3.3720	 2.1490
 3.3740	 2.1960
 3.3760	 2.2010
 3.3780	 2.2280
 3.3800	 2.2210
 3.3830	 2.2210
 3.3850	 2.1840
 3.3870	 2.1450
 3.3890	 2.1120
 3.3910	 2.0860
 3.3940	 2.0300
 3.3960	 2.0370
 3.3980	 2.0230
 3.4000	 2.0430
 3.4030	 2.0190
 3.4050	 2.0630
 3.4070	 2.1220
 3.4090	 2.2090
 3.4110	 2.3240
 3.4140	 2.5700
 3.4160	 2.8050
 3.4180	 3.1830
 3.4200	 3.7480
 3.4230	 4.4810
 3.4250	 5.3270
 3.4270	 6.3350
 3.4300	 7.0220
 3.4320	 6.9110
 3.4340	 6.1760
 3.4360	 5.4520
 3.4390	 4.9370
 3.4410	 4.6560
 3.4430	 4.4500
 3.4450	 4.3050
 3.4480	 4.1970
 3.4500	 4.1040
 3.4520	 4.0230
 3.4550	 3.9650
 3.4570	 3.8910
 3.4590	 3.9210
 3.4620	 3.8530
 3.4640	 3.7600
 3.4660	 3.7010
 3.4690	 3.6580
 3.4710	 3.5750
 3.4730	 3.5090
 3.4760	 3.4160
 3.4780	 3.3940
 3.4800	 3.2960
 3.4830	 3.2090
 3.4850	 3.1340
 3.4870	 3.0580
 3.4900	 2.9860
 3.4920	 2.9450
 3.4940	 2.8330
 3.4970	 2.8340
 3.4990	 2.8850
 3.5010	 2.9750
 3.5040	 3.2020
 3.5060	 3.8830
 3.5080	 5.0870
 3.5110	 6.2810
 3.5130	 6.4610
 3.5160	 5.9170
 3.5180	 5.3420
 3.5200	 4.9700
 3.5230	 4.6430
 3.5250	 4.4010
 3.5280	 4.2600
 3.5300	 4.1860
 3.5320	 4.0820
 3.5350	 4.0390
 3.5370	 3.9660
 3.5400	 3.8710
 3.5420	 3.8040
 3.5440	 3.8230
 3.5470	 3.8070
 3.5490	 3.7830
 3.5520	 3.7390
 3.5540	 3.7220
 3.5570	 3.6760
 3.5590	 3.6860
 3.5610	 3.6810
 3.5640	 3.6360
 3.5660	 3.6080
 3.5690	 3.5950
 3.5710	 3.5890
 3.5740	 3.5970
 3.5760	 3.5790
 3.5790	 3.5740
 3.5810	 3.5640
 3.5840	 3.5560
 3.5860	 3.4970
 3.5890	 3.5050
 3.5910	 3.5340
 3.5940	 3.5440
 3.5960	 3.5500
 3.5990	 3.5500
 3.6010	 3.4830
 3.6040	 3.4960
 3.6060	 3.5200
 3.6090	 3.5040
 3.6110	 3.4710
 3.6140	 3.4800
 3.6160	 3.4850
 3.6190	 3.5400
 3.6210	 3.5190
 3.6240	 3.4660
 3.6260	 3.4520
 3.6290	 3.4630
 3.6310	 3.4480
 3.6340	 3.4650
 3.6360	 3.4630
 3.6390	 3.4590
 3.6410	 3.4600
 3.6440	 3.4890
 3.6470	 3.4510
 3.6490	 3.4130
 3.6520	 3.4250
 3.6540	 3.4670
 3.6570	 3.4360
 3.6590	 3.4290
 3.6620	 3.4740
 3.6650	 3.5050
 3.6670	 3.4730
 3.6700	 3.4780
 3.6720	 3.4830
 3.6750	 3.4820
 3.6780	 3.4810
 3.6800	 3.5160
 3.6830	 3.5240
 3.6850	 3.5240
 3.6880	 3.5270
 3.6910	 3.5140
 3.6930	 3.5010
 3.6960	 3.5170
 3.6990	 3.5200
 3.7010	 3.5590
 3.7040	 3.5170
 3.7070	 3.5070
 3.7090	 3.5200
 3.7120	 3.5630
 3.7150	 3.5770
 3.7170	 3.5690
 3.7200	 3.5440
 3.7230	 3.5630
 3.7250	 3.5610
 3.7280	 3.5800
 3.7310	 3.5700
 3.7330	 3.6050
 3.7360	 3.6350
 3.7390	 3.6370
 3.7410	 3.6410
 3.7440	 3.6770
 3.7470	 3.6950
 3.7490	 3.6790
 3.7520	 3.6230
 3.7550	 3.6480
 3.7580	 3.6980
 3.7600	 3.7560
 3.7630	 3.7380
 3.7660	 3.7290
 3.7690	 3.7570
 3.7710	 3.7600
 3.7740	 3.7220
 3.7770	 3.7370
 3.7790	 3.7250
 3.7820	 3.7560
 3.7850	 3.7880
 3.7880	 3.8010
 3.7910	 3.7950
 3.7930	 3.8380
 3.7960	 3.8450
 3.7990	 3.8670
 3.8020	 3.8960
 3.8040	 3.9190
 3.8070	 3.8510
 3.8100	 3.8280
 3.8130	 3.8470
 3.8160	 3.9180
 3.8180	 3.9360
 3.8210	 3.9360
 3.8240	 3.9180
 3.8270	 3.9100
 3.8300	 3.9080
 3.8330	 3.9300
 3.8350	 3.9520
 3.8380	 3.9860
 3.8410	 3.9830
 3.8440	 3.9930
 3.8470	 4.0050
 3.8500	 4.0300
 3.8520	 4.0150
 3.8550	 4.0210
 3.8580	 3.9970
 3.8610	 3.9980
 3.8640	 3.9930
 3.8670	 4.0290
 3.8700	 4.0530
 3.8730	 4.0420
 3.8760	 4.0210
 3.8780	 4.0390
 3.8810	 4.0430
 3.8840	 4.0440
 3.8870	 4.0560
 3.8900	 4.0420
 3.8930	 4.0360
 3.8960	 4.0620
 3.8990	 4.0640
 3.9020	 4.0710
 3.9050	 4.0440
 3.9080	 4.0200
 3.9110	 4.0410
 3.9140	 4.0670
 3.9170	 4.0460
 3.9190	 4.0670
 3.9220	 4.0700
 3.9250	 4.0860
 3.9280	 4.0690
 3.9310	 4.0730
 3.9340	 4.0770
 3.9370	 4.0770
 3.9400	 4.0550
 3.9430	 4.0560
 3.9460	 4.0540
 3.9490	 4.0510
 3.9520	 4.0540
 3.9550	 4.0890
 3.9580	 4.0660
 3.9610	 4.0380
 3.9640	 4.0160
 3.9670	 4.0120
 3.9700	 4.0290
 3.9740	 4.0680
 3.9770	 4.0520
 3.9800	 4.0150
 3.9830	 3.9830
 3.9860	 4.0220
 3.9890	 4.0520
 3.9920	 4.0300
 3.9950	 3.9970
 3.9980	 4.0110
 4.0010	 4.0210
 4.0040	 4.0320
 4.0070	 3.9970
 4.0100	 4.0110
 4.0140	 4.0420
 4.0170	 4.0790
 4.0200	 4.0660
 4.0230	 4.0490
 4.0260	 4.0420
 4.0290	 4.0190
 4.0320	 3.9850
 4.0350	 4.0090
 4.0390	 4.0300
 4.0420	 4.0750
 4.0450	 4.0850
 4.0480	 4.0570
 4.0510	 4.0150
 4.0540	 3.9710
 4.0570	 3.9970
 4.0610	 4.0220
 4.0640	 4.0200
 4.0670	 4.0200
 4.0700	 4.0170
 4.0730	 4.0350
 4.0770	 3.9900
 4.0800	 3.9750
 4.0830	 3.9880
 4.0860	 3.9670
 4.0890	 3.9860
 4.0930	 4.0210
 4.0960	 3.9930
 4.0990	 3.9770
 4.1020	 3.9670
 4.1060	 3.9460
 4.1090	 3.9330
 4.1120	 3.9420
 4.1150	 3.9350
 4.1190	 3.9400
 4.1220	 3.9330
 4.1250	 3.9480
 4.1290	 3.9290
 4.1320	 3.9000
 4.1350	 3.9050
 4.1380	 3.9270
 4.1420	 3.9150
 4.1450	 3.8970
 4.1480	 3.8630
 4.1520	 3.8700
 4.1550	 3.8530
 4.1580	 3.8480
 4.1620	 3.8410
 4.1650	 3.8120
 4.1680	 3.8140
 4.1720	 3.8500
 4.1750	 3.8550
 4.1780	 3.8470
 4.1820	 3.8140
 4.1850	 3.8310
 4.1890	 3.8370
 4.1920	 3.8150
 4.1950	 3.7830
 4.1990	 3.7550
 4.2020	 3.7740
 4.2060	 3.8200
 4.2090	 3.8330
 4.2120	 3.7760
 4.2160	 3.7280
 4.2190	 3.7820
 4.2230	 3.8050
 4.2260	 3.7660
 4.2300	 3.7280
 4.2330	 3.7740
 4.2360	 3.6970
 4.2400	 3.6290
 4.2430	 3.6590
 4.2470	 3.6750
 4.2500	 3.7110
 4.2540	 3.6910
 4.2570	 3.6610
 4.2610	 3.6690
 4.2640	 3.6310
 4.2680	 3.6220
 4.2710	 3.6700
 4.2750	 3.6940
 4.2780	 3.6630
 4.2820	 3.6780
 4.2850	 3.6530
 4.2890	 3.5580
 4.2930	 3.4410
 4.2960	 3.4670
 4.3000	 3.4980
 4.3030	 3.4760
 4.3070	 3.4680
 4.3100	 3.5190
 4.3140	 3.4710
 4.3180	 3.4400
 4.3210	 3.4610
 4.3250	 3.4590
 4.3280	 3.4220
 4.3320	 3.4140
 4.3360	 3.4160
 4.3390	 3.4210
 4.3430	 3.4350
 4.3470	 3.4490
 4.3500	 3.4060
 4.3540	 3.3790
 4.3580	 3.4030
 4.3610	 3.3920
 4.3650	 3.3320
 4.3690	 3.3110
 4.3720	 3.3320
 4.3760	 3.3350
 4.3800	 3.3100
 4.3830	 3.3140
 4.3870	 3.2960
 4.3910	 3.2920
 4.3940	 3.3120
 4.3980	 3.3300
 4.4020	 3.3190
 4.4060	 3.3050
 4.4090	 3.2860
 4.4130	 3.2980
 4.4170	 3.2990
 4.4210	 3.2640
 4.4240	 3.2400
 4.4280	 3.2620
 4.4320	 3.2630
 4.4360	 3.2380
 4.4400	 3.2210
 4.4430	 3.2440
 4.4470	 3.2190
 4.4510	 3.2030
 4.4550	 3.2300
 4.4590	 3.2260
 4.4630	 3.1800
 4.4660	 3.1710
 4.4700	 3.1780
 4.4740	 3.1680
 4.4780	 3.1730
 4.4820	 3.1920
 4.4860	 3.1920
 4.4900	 3.2000
 4.4930	 3.1950
 4.4970	 3.1870
 4.5010	 3.1710
 4.5050	 3.1610
 4.5090	 3.1740
 4.5130	 3.1450
 4.5170	 3.1230
 4.5210	 3.1120
 4.5250	 3.1360
 4.5290	 3.1590
 4.5330	 3.1490
 4.5370	 3.1290
 4.5410	 3.1000
 4.5450	 3.0960
 4.5490	 3.1140
 4.5530	 3.1230
 4.5570	 3.1010
 4.5610	 3.0770
 4.5650	 3.0860
 4.5690	 3.1100
 4.5730	 3.1090
 4.5770	 3.0980
 4.5810	 3.0960
 4.5850	 3.0920
 4.5890	 3.0900
 4.5930	 3.0660
 4.5970	 3.0560
 4.6010	 3.0620
 4.6050	 3.0660
 4.6090	 3.0920
 4.6130	 3.0980
 4.6170	 3.0680
 4.6220	 3.0560
 4.6260	 3.0440
 4.6300	 3.0590
 4.6340	 3.0950
 4.6380	 3.1210
 4.6420	 3.0970
 4.6460	 3.0490
 4.6510	 3.0330
 4.6550	 3.0470
 4.6590	 3.0510
 4.6630	 3.0540
 4.6670	 3.0380
 4.6720	 3.0480
 4.6760	 3.0480
 4.6800	 3.0510
 4.6840	 3.0560
 4.6880	 3.0340
 4.6930	 3.0070
 4.6970	 3.0330
 4.7010	 3.0290
 4.7050	 3.0190
 4.7100	 3.0190
 4.7140	 3.0320
 4.7180	 3.0360
 4.7230	 3.0370
 4.7270	 3.0230
 4.7310	 3.0240
 4.7360	 3.0430
 4.7400	 3.0430
 4.7440	 3.0280
 4.7490	 3.0360
 4.7530	 3.0440
 4.7570	 3.0590
 4.7620	 3.0370
 4.7660	 3.0060
 4.7700	 3.0050
 4.7750	 3.0650
 4.7790	 3.0770
 4.7840	 3.0480
 4.7880	 3.0180
 4.7920	 3.0370
 4.7970	 3.0420
 4.8010	 3.0580
 4.8060	 3.0590
 4.8100	 3.0630
 4.8150	 3.0550
 4.8190	 3.0450
 4.8240	 3.0470
 4.8280	 3.0550
 4.8330	 3.0240
 4.8370	 3.0040
 4.8420	 3.0190
 4.8460	 3.0460
 4.8510	 3.0580
 4.8550	 3.0530
 4.8600	 3.0470
 4.8640	 3.0330
 4.8690	 3.0320
 4.8740	 3.0680
 4.8780	 3.0500
 4.8830	 3.0260
 4.8870	 3.0350
 4.8920	 3.0490
 4.8970	 3.0410
 4.9010	 3.0660
 4.9060	 3.0590
 4.9100	 3.0590
 4.9150	 3.0630
 4.9200	 3.0640
 4.9240	 3.0590
 4.9290	 3.0700
 4.9340	 3.0640
 4.9390	 3.0530
 4.9430	 3.0680
 4.9480	 3.0890
 4.9530	 3.0770
 4.9570	 3.0910
 4.9620	 3.1170
 4.9670	 3.1170
 4.9720	 3.0630
 4.9760	 3.0640
 4.9810	 3.0710
 4.9860	 3.1080
 4.9910	 3.1370
 4.9960	 3.1490
 5.0000	 3.1270
 5.0050	 3.0920
 5.0100	 3.0950
 5.0150	 3.1470
 5.0200	 3.1740
 5.0250	 3.1710
 5.0300	 3.1510
 5.0340	 3.1970
 5.0390	 3.2060
 5.0440	 3.2040
 5.0490	 3.2180
 5.0540	 3.2290
 5.0590	 3.1890
 5.0640	 3.1960
 5.0690	 3.1980
 5.0740	 3.2290
 5.0790	 3.2370
 5.0840	 3.2210
 5.0890	 3.2060
 5.0940	 3.1860
 5.0990	 3.1570
 5.1040	 3.2020
 5.1090	 3.2670
 5.1140	 3.3050
 5.1190	 3.3050
 5.1240	 3.2730
 5.1290	 3.2530
 5.1340	 3.2710
 5.1390	 3.2610
 5.1440	 3.2820
 5.1490	 3.3040
 5.1550	 3.2970
 5.1600	 3.2850
 5.1650	 3.2990
 5.1700	 3.3170
 5.1750	 3.3330
 5.1800	 3.3230
 5.1850	 3.3550
 5.1910	 3.3590
 5.1960	 3.3710
 5.2010	 3.3740
 5.2060	 3.3600
 5.2110	 3.3090
 5.2170	 3.2980
 5.2220	 3.3250
 5.2270	 3.3610
 5.2330	 3.3690
 5.2380	 3.3660
 5.2430	 3.3280
 5.2480	 3.3290
 5.2540	 3.3580
 5.2590	 3.4080
 5.2640	 3.4210
 5.2700	 3.4130
 5.2750	 3.3520
 5.2800	 3.3450
 5.2860	 3.3650
 5.2910	 3.3610
 5.2970	 3.3390
 5.3020	 3.3760
 5.3080	 3.4040
 5.3130	 3.3830
 5.3180	 3.3420
 5.3240	 3.3730
 5.3290	 3.3600
 5.3350	 3.3430
 5.3400	 3.3210
 5.3460	 3.3120
 5.3510	 3.2820
 5.3570	 3.3500
 5.3620	 3.3650
 5.3680	 3.3490
 5.3740	 3.3050
 5.3790	 3.3050
 5.3850	 3.3140
 5.3900	 3.3480
 5.3960	 3.3500
 5.4010	 3.3520
 5.4070	 3.3050
 5.4130	 3.2980
 5.4180	 3.2550
 5.4240	 3.2350
 5.4300	 3.2080
 5.4350	 3.2060
 5.4410	 3.2210
 5.4470	 3.2680
 5.4530	 3.2230
 5.4580	 3.1960
 5.4640	 3.1780
 5.4700	 3.1910
 5.4760	 3.1620
 5.4810	 3.1570
 5.4870	 3.1780
 5.4930	 3.1810
 5.4990	 3.1680
 5.5050	 3.1760
 5.5110	 3.1230
 5.5160	 3.0920
 5.5220	 3.0560
 5.5280	 3.0890
 5.5340	 3.0920
 5.5400	 3.0570
 5.5460	 3.0020
 5.5520	 2.9950
 5.5580	 2.9830
 5.5640	 2.9800
 5.5700	 2.9470
 5.5760	 2.9170
 5.5820	 2.8970
 5.5880	 2.9410
 5.5940	 2.9180
 5.6000	 2.9020
 5.6060	 2.8810
 5.6120	 2.8930
 5.6180	 2.8450
 5.6240	 2.8530
 5.6300	 2.8460
 5.6360	 2.8080
 5.6420	 2.7110
 5.6490	 2.7280
 5.6550	 2.7460
 5.6610	 2.7470
 5.6670	 2.7140
 5.6730	 2.6980
 5.6800	 2.6530
 5.6860	 2.6320
 5.6920	 2.5430
 5.6980	 2.5060
 5.7050	 2.4820
 5.7110	 2.4210
 5.7170	 2.3470
 5.7230	 2.3650
 5.7300	 2.3310
 5.7360	 2.2670
 5.7420	 2.2300
 5.7490	 2.2930
 5.7550	 2.4310
 5.7620	 2.5390
 5.7680	 2.5880
 5.7740	 2.8080
 5.7810	 2.9590
 5.7870	 3.0250
 5.7940	 3.0640
 5.8000	 3.1170
 5.8070	 3.1390
 5.8130	 3.1360
 5.8200	 3.0380
 5.8260	 3.0880
 5.8330	 3.1860
 5.8390	 3.2650
 5.8460	 3.3030
 5.8530	 3.3250
 5.8590	 3.2840
 5.8660	 3.2680
 5.8730	 3.2370
 5.8790	 3.1290
 5.8860	 3.1480
 5.8930	 3.2000
 5.8990	 3.1510
 5.9060	 3.2930
 5.9130	 3.2790
 5.9190	 3.2420
 5.9260	 3.1900
 5.9330	 3.1030
 5.9400	 3.0390
 5.9470	 3.1580
 5.9530	 3.1340
 5.9600	 3.1200
 5.9670	 3.0710
 5.9740	 3.1030
 5.9810	 3.0960
 5.9880	 3.0520
 5.9950	 2.9930
 6.0020	 3.0550
 6.0090	 3.0660
 6.0160	 3.0940
 6.0230	 3.0650
 6.0300	 3.0810
 6.0370	 3.0120
 6.0440	 2.9060
 6.0510	 2.8050
 6.0580	 2.9580
 6.0650	 2.9570
 6.0720	 2.9180
 6.0790	 2.9070
 6.0860	 2.9670
 6.0930	 2.9080
 6.1010	 2.9400
 6.1080	 2.8750
 6.1150	 2.8140
 6.1220	 2.8720
 6.1290	 2.9440
 6.1370	 2.8920
 6.1440	 2.9080
 6.1510	 2.9140
 6.1580	 2.9400
 6.1660	 2.9760
 6.1730	 3.0090
 6.1800	 2.8720
 6.1880	 2.8560
 6.1950	 2.9430
 6.2030	 2.9940
 6.2100	 2.9110
 6.2180	 2.9070
 6.2250	 2.9270
 6.2320	 3.0110
 6.2400	 3.0150
 6.2480	 3.0120
 6.2550	 2.9730
 6.2630	 3.0240
 6.2700	 2.9990
 6.2780	 3.0170
 6.2850	 3.0060
 6.2930	 3.0360
 6.3010	 3.0230
 6.3080	 3.0400
 6.3160	 3.0340
 6.3240	 3.0730
 6.3310	 3.0520
 6.3390	 3.0130
 6.3470	 2.9420
 6.3550	 3.0140
 6.3620	 2.9820
 6.3700	 2.9700
 6.3780	 3.0310
 6.3860	 3.1090
 6.3940	 3.0770
 6.4020	 3.0650
 6.4100	 2.8950
 6.4180	 2.8670
 6.4260	 2.9610
 6.4340	 3.0260
 6.4420	 3.0290
 6.4500	 3.0650
 6.4580	 3.0050
 6.4660	 3.0170
 6.4740	 2.9750
 6.4820	 2.9460
 6.4900	 2.8450
 6.4980	 2.8960
 6.5060	 3.0080
 6.5140	 3.0750
 6.5230	 3.0360
 6.5310	 3.1120
 6.5390	 3.1040
 6.5470	 3.0650
 6.5560	 2.9960
 6.5640	 3.0100
 6.5720	 2.8970
 6.5800	 2.8970
 6.5890	 2.9050
 6.5970	 2.9750
 6.6060	 3.0030
 6.6140	 3.0360
 6.6230	 2.9950
 6.6310	 2.9670
 6.6390	 2.8720
 6.6480	 2.9660
 6.6570	 3.0060
 6.6650	 3.0030
 6.6740	 2.9260
 6.6820	 2.9170
 6.6910	 2.9190
 6.7000	 2.9660
 6.7080	 2.9040
 6.7170	 2.9270
 6.7260	 2.9230
 6.7340	 2.9250
 6.7430	 2.8460
 6.7520	 2.8600
 6.7610	 2.8330
 6.7690	 2.8080
 6.7780	 2.7810
 6.7870	 3.0330
 6.7960	 3.2060
 6.8050	 3.1410
 6.8140	 2.9880
 6.8230	 3.0220
 6.8320	 3.2650
 6.8410	 3.6170
 6.8500	 3.5120
 6.8590	 3.2820
 6.8680	 3.1480
 6.8770	 3.2810
 6.8860	 3.2970
 6.8960	 3.2950
 6.9050	 3.2430
 6.9140	 3.2860
 6.9230	 3.2690
 6.9320	 3.3060
 6.9420	 3.2830
 6.9510	 3.2810
 6.9600	 3.1950
 6.9700	 3.2260
 6.9790	 3.2410
 6.9880	 3.3110
 6.9980	 3.2500
 7.0070	 3.2520
 7.0170	 3.1860
 7.0260	 3.1530
 7.0360	 3.0680
 7.0450	 3.0800
 7.0550	 3.1070
 7.0650	 3.1930
 7.0740	 3.1530
 7.0840	 3.1750
 7.0940	 3.1870
 7.1030	 3.2120
 7.1130	 3.1190
 7.1230	 3.1050
 7.1330	 3.0700
 7.1420	 3.0590
 7.1520	 2.9520
 7.1620	 2.9200
 7.1720	 2.8490
 7.1820	 2.9320
 7.1920	 2.9510
 7.2020	 2.9500
 7.2120	 2.8890
 7.2220	 2.9810
 7.2320	 2.9580
 7.2420	 2.9740
 7.2520	 2.9420
 7.2620	 2.9570
 7.2730	 2.8770
 7.2830	 2.9170
 7.2930	 2.9110
 7.3030	 2.8910
 7.3140	 2.8040
 7.3240	 2.8360
 7.3340	 2.7990
 7.3450	 2.8380
 7.3550	 2.7810
 7.3660	 2.8240
 7.3760	 2.7930
 7.3870	 2.8230
 7.3970	 2.7910
 7.4080	 2.8180
 7.4180	 2.7680
 7.4290	 2.7750
 7.4400	 2.7440
 7.4500	 2.7900
 7.4610	 2.7520
 7.4720	 2.7510
 7.4830	 2.6530
 7.4930	 2.6960
 7.5040	 2.7050
 7.5150	 2.7270
 7.5260	 2.6460
 7.5370	 2.6700
 7.5480	 2.6570
 7.5590	 2.6610
 7.5700	 2.6180
 7.5810	 2.6250
 7.5920	 2.5390
 7.6030	 2.6050
 7.6140	 2.5820
 7.6260	 2.5870
 7.6370	 2.5120
 7.6480	 2.5190
 7.6590	 2.4460
 7.6710	 2.4910
 7.6820	 2.4710
 7.6940	 2.5290
 7.7050	 2.4930
 7.7160	 2.5140
 7.7280	 2.4700
 7.7390	 2.4780
 7.7510	 2.4050
 7.7630	 2.4260
 7.7740	 2.3820
 7.7860	 2.4040
 7.7980	 2.3260
 7.8090	 2.3690
 7.8210	 2.3160
 7.8330	 2.3320
 7.8450	 2.2790
 7.8570	 2.3180
 7.8690	 2.2420
 7.8810	 2.2880
 7.8930	 2.2450
 7.9050	 2.2350
 7.9170	 2.1650
 7.9290	 2.1880
 7.9410	 2.1610
 7.9530	 2.1660
 7.9650	 2.0440
 7.9780	 2.0180
 7.9900	 1.9690
 8.0020	 2.0010
 8.0150	 1.9220
 8.0270	 1.9890
 8.0390	 1.9520
 8.0520	 2.0030
 8.0640	 1.9300
 8.0770	 1.9990
 8.0900	 2.0000
 8.1020	 2.0170
 8.1150	 1.8980
 8.1280	 1.9900
 8.1400	 1.9530
 8.1530	 2.0030
 8.1660	 1.9660
 8.1790	 1.9320
 8.1920	 1.7780
 8.2050	 1.8700
 8.2180	 1.8440
 8.2310	 1.8820
 8.2440	 1.7970
 8.2570	 1.8960
 8.2700	 1.8260
 8.2830	 1.8610
 8.2970	 1.7900
 8.3100	 1.8400
 8.3230	 1.8190
 8.3370	 1.9270
 8.3500	 1.8410
 8.3640	 1.9000
 8.3770	 1.9110
 8.3910	 2.0180
 8.4040	 1.9240
 8.4180	 1.9820
 8.4320	 1.9410
 8.4450	 1.9780
 8.4590	 1.8880
 8.4730	 1.9200
 8.4870	 1.8800
 8.5010	 1.9870
 8.5150	 1.9180
 8.5290	 1.9240
 8.5430	 1.8760
 8.5570	 1.9780
 8.5710	 1.8650
 8.5850	 1.9290
 8.5990	 1.8760
 8.6140	 1.9220
 8.6280	 1.8360
 8.6420	 1.9460
 8.6570	 1.9460
 8.6710	 2.0520
 8.6860	 2.0160
 8.7000	 2.0400
 8.7150	 1.9490
 8.7300	 2.0770
 8.7440	 2.0510
 8.7590	 2.1580
 8.7740	 2.1020
 8.7890	 2.1180
 8.8040	 1.9540
 8.8190	 2.0330
 8.8340	 2.0050
 8.8490	 2.0570
 8.8640	 1.9870
 8.8790	 2.0400
 8.8940	 1.8810
 8.9100	 1.9470
 8.9250	 1.9430
 8.9400	 2.0420
 8.9560	 1.9140
 8.9710	 1.9840
 8.9870	 1.9570
 9.0020	 2.0680
 9.0180	 2.0770
 9.0340	 2.2680
 9.0500	 2.2650
 9.0650	 2.4340
 9.0810	 2.4830
 9.0970	 2.6150
 9.1130	 2.5830
 9.1290	 2.7310
 9.1450	 2.7040
 9.1620	 2.8980
 9.1780	 2.9140
 9.1940	 3.0300
 9.2100	 2.9400
 9.2270	 3.0860
 9.2430	 3.1140
 9.2600	 3.2140
 9.2760	 3.1060
 9.2930	 3.2440
 9.3100	 3.2290
 9.3260	 3.3260
 9.3430	 3.2400
 9.3600	 3.2920
 9.3770	 3.2580
 9.3940	 3.3860
 9.4110	 3.3190
 9.4280	 3.3640
 9.4450	 3.2460
 9.4620	 3.3010
 9.4800	 3.1640
 9.4970	 3.2220
 9.5150	 3.1980
 9.5320	 3.3310
 9.5500	 3.3320
 9.5670	 3.5030
 9.5850	 3.4890
 9.6030	 3.5720
 9.6200	 3.4640
 9.6380	 3.6720
 9.6560	 3.7340
 9.6740	 3.8580
 9.6920	 3.7810
 9.7110	 3.9060
 9.7290	 3.8710
 9.7470	 4.0040
 9.7650	 3.9820
 9.7840	 4.0800
 9.8020	 3.9140
 9.8210	 3.9390
 9.8390	 3.8240
 9.8580	 3.8680
 9.8770	 3.7570
 9.8960	 3.7200
 9.9150	 3.5780
 9.9340	 3.6140
 9.9530	 3.4560
 9.9720	 3.4410
 9.9910	 3.3370
10.0100	 3.3830
10.0300	 3.2420
10.0490	 3.2830
10.0690	 3.1990
10.0880	 3.2120
10.1080	 3.0650
10.1280	 3.1530
10.1480	 3.0840
10.1670	 3.1380
10.1870	 3.0160
10.2070	 3.1360
10.2280	 3.1320
10.2480	 3.2300
10.2680	 3.1720
10.2890	 3.2810
10.3090	 3.1920
10.3300	 3.2230
10.3500	 3.1860
10.3710	 3.3050
10.3920	 3.2590
10.4120	 3.4260
10.4330	 3.4140
10.4540	 3.4670
10.4760	 3.3740
10.4970	 3.4750
10.5180	 3.3900
10.5390	 3.4580
10.5610	 3.3780
10.5820	 3.4710
10.6040	 3.3590
10.6260	 3.4420
10.6480	 3.3500
10.6700	 3.3730
10.6920	 3.2440
10.7140	 3.3620
10.7360	 3.2990
10.7580	 3.3900
10.7800	 3.3240
10.8030	 3.3960
10.8250	 3.2460
10.8480	 3.2920
10.8710	 3.2120
10.8940	 3.2990
10.9170	 3.1900
10.9400	 3.2450
10.9630	 3.0530
10.9860	 3.1440
11.0090	 3.0620
11.0330	 3.0880
11.0560	 2.9130
11.0800	 2.9750
11.1040	 2.8850
11.1270	 2.9890
11.1510	 2.8840
11.1750	 2.9520
11.2000	 2.8650
11.2240	 2.9660
11.2480	 2.9030
11.2730	 3.0370
11.2970	 2.9630
11.3220	 3.0570
11.3470	 2.9330
11.3720	 3.0150
11.3970	 2.9050
11.4220	 3.0340
11.4470	 3.1010
11.4720	 3.2490
11.4980	 2.9170
11.5230	 2.8690
11.5490	 2.7540
11.5750	 2.8200
11.6000	 2.7410
11.6260	 2.9070
11.6530	 2.7630
11.6790	 2.7820
11.7050	 2.6600
11.7320	 2.7520
11.7580	 2.6460
11.7850	 2.7960
11.8120	 2.5990
11.8390	 2.5880
11.8660	 2.4660
11.8930	 2.6230
11.9200	 2.5800
11.9480	 2.6880
11.9760	 2.5430
12.0030	 2.6450
12.0310	 2.5110
12.0590	 2.6510
12.0870	 2.5550
12.1150	 2.6610
12.1440	 2.5480
12.1720	 2.6890
12.2010	 2.4940
12.2300	 2.6030
12.2590	 2.5340
12.2880	 2.6430
12.3170	 2.5350
12.3460	 2.6550
12.3760	 2.5120
12.4050	 2.7100
12.4350	 2.6090
12.4650	 2.7690
12.4950	 2.6510
12.5250	 2.8300
12.5550	 2.6990
12.5860	 2.8210
12.6170	 2.6460
12.6470	 2.7560
12.6780	 2.6030
12.7090	 2.7680
12.7410	 2.6860
12.7720	 2.8190
12.8030	 2.7250
12.8350	 2.8860
12.8670	 2.7190
12.8990	 2.8070
12.9310	 2.7490
12.9640	 2.8920
12.9960	 2.6290
13.0290	 2.7120
13.0610	 2.6300
13.0940	 2.8570
13.1280	 2.6580
13.1610	 2.7950
13.1940	 2.5920
13.2280	 2.6170
13.2620	 2.4210
13.2960	 2.6310
13.3300	 2.5340
13.3640	 2.7040
13.3990	 2.5570
13.4340	 2.6980
13.4690	 2.5100
13.5040	 2.6190
13.5390	 2.3870
13.5740	 2.6250
13.6100	 2.5610
13.6460	 2.8330
13.6820	 2.7700
13.7180	 3.0230
13.7540	 2.6050
13.7910	 2.6680
13.8280	 2.5570
13.8650	 2.7760
13.9020	 2.6360
13.9390	 2.8160
13.9770	 2.5470
14.0150	 2.7040
14.0530	 2.4590
14.0910	 2.6250
14.1290	 2.3560
14.1680	 2.5590
14.2070	 2.3400
14.2460	 2.5400
14.2850	 2.2420
14.3240	 2.4250
14.3640	 2.2650
14.4040	 2.5060
14.4440	 2.2280
14.4840	 2.4650
14.5250	 2.1520
14.5660	 2.4080
14.6070	 2.1960
14.6480	 2.4570
14.6900	 2.2480
14.7310	 2.5060
14.7730	 2.2060
14.8150	 2.5690
14.8580	 2.2440
14.9010	 2.4520
14.9440	 1.9850
14.9870	 2.3720
15.0300	 1.9500
15.0740	 2.4670
15.1180	 2.2030
15.1620	 2.3340
15.2060	 1.9450
15.2510	 2.3260
15.2960	 1.9710
15.3410	 2.4640
15.3870	 2.0450
