Name: Brachychiton discolor
Type: vegetation
Class: Tree
Genus: Brachychiton
Species: discolor
Sample No.: JPL083
Owner: JPL
Wavelength Range: VSWIR
Origin: 34.12428; - 118.11335; WGS84
Collection Date: 2/2/2016
Description: Samples were collected at the Huntington Garden in San Marino California as part of a JPL Subcontract studying HyTES imagery. Samples were taken to JPL and processed within 48 hours of collection. The same leaves were processed in the Nicolet and then measured using the ASD.
Measurement: Bidirectional reflectance
First Column: X
Second Column: Y
X Units: Wavelength (micrometer)
Y Units: Reflectance (percentage)
First X Value: 0.35
Last X Value: 2.5
Number of X Values: 2151
Additional Information: 

 0.3500	 6.1710
 0.3510	 5.1240
 0.3520	 4.8410
 0.3530	 5.5510
 0.3540	 6.6920
 0.3550	 6.5550
 0.3560	 6.3680
 0.3570	 6.1160
 0.3580	 5.2660
 0.3590	 4.9360
 0.3600	 5.1630
 0.3610	 5.5780
 0.3620	 5.4770
 0.3630	 5.7870
 0.3640	 6.0530
 0.3650	 5.8060
 0.3660	 5.8370
 0.3670	 5.4120
 0.3680	 4.7880
 0.3690	 4.8960
 0.3700	 5.4670
 0.3710	 5.9300
 0.3720	 5.9440
 0.3730	 5.4920
 0.3740	 5.3600
 0.3750	 5.5680
 0.3760	 5.8410
 0.3770	 5.9390
 0.3780	 5.9620
 0.3790	 5.9810
 0.3800	 6.0010
 0.3810	 5.6000
 0.3820	 5.0280
 0.3830	 4.6660
 0.3840	 4.9260
 0.3850	 5.0860
 0.3860	 5.1090
 0.3870	 5.1580
 0.3880	 4.8840
 0.3890	 4.9600
 0.3900	 5.3360
 0.3910	 5.1970
 0.3920	 4.8440
 0.3930	 4.7500
 0.3940	 5.1130
 0.3950	 5.3910
 0.3960	 5.4410
 0.3970	 5.2790
 0.3980	 5.0440
 0.3990	 5.0210
 0.4000	 5.0710
 0.4010	 5.1050
 0.4020	 5.1470
 0.4030	 5.4470
 0.4040	 5.6290
 0.4050	 5.3780
 0.4060	 5.0160
 0.4070	 4.9930
 0.4080	 5.1870
 0.4090	 5.1470
 0.4100	 5.2290
 0.4110	 5.2930
 0.4120	 5.2640
 0.4130	 5.2830
 0.4140	 5.3840
 0.4150	 5.3860
 0.4160	 5.1610
 0.4170	 5.1840
 0.4180	 5.2370
 0.4190	 5.2020
 0.4200	 5.0940
 0.4210	 5.0550
 0.4220	 5.1520
 0.4230	 5.3490
 0.4240	 5.4410
 0.4250	 5.3710
 0.4260	 5.2630
 0.4270	 5.2910
 0.4280	 5.2860
 0.4290	 5.2940
 0.4300	 5.3130
 0.4310	 5.2440
 0.4320	 5.2290
 0.4330	 5.3190
 0.4340	 5.4610
 0.4350	 5.3330
 0.4360	 5.2590
 0.4370	 5.3140
 0.4380	 5.3760
 0.4390	 5.3570
 0.4400	 5.3160
 0.4410	 5.2980
 0.4420	 5.2550
 0.4430	 5.2330
 0.4440	 5.2600
 0.4450	 5.3360
 0.4460	 5.3850
 0.4470	 5.3630
 0.4480	 5.3110
 0.4490	 5.3590
 0.4500	 5.3690
 0.4510	 5.3390
 0.4520	 5.3190
 0.4530	 5.4140
 0.4540	 5.4550
 0.4550	 5.4200
 0.4560	 5.3790
 0.4570	 5.3210
 0.4580	 5.3150
 0.4590	 5.3690
 0.4600	 5.3690
 0.4610	 5.4150
 0.4620	 5.4650
 0.4630	 5.4470
 0.4640	 5.3990
 0.4650	 5.3670
 0.4660	 5.3730
 0.4670	 5.4050
 0.4680	 5.3720
 0.4690	 5.3550
 0.4700	 5.3970
 0.4710	 5.3170
 0.4720	 5.3870
 0.4730	 5.4990
 0.4740	 5.3880
 0.4750	 5.3760
 0.4760	 5.4080
 0.4770	 5.4200
 0.4780	 5.4010
 0.4790	 5.4110
 0.4800	 5.4200
 0.4810	 5.3960
 0.4820	 5.4500
 0.4830	 5.4340
 0.4840	 5.3640
 0.4850	 5.3930
 0.4860	 5.4350
 0.4870	 5.4390
 0.4880	 5.4000
 0.4890	 5.4010
 0.4900	 5.4290
 0.4910	 5.4430
 0.4920	 5.4020
 0.4930	 5.3870
 0.4940	 5.4390
 0.4950	 5.5120
 0.4960	 5.4420
 0.4970	 5.4320
 0.4980	 5.4910
 0.4990	 5.5570
 0.5000	 5.5360
 0.5010	 5.5480
 0.5020	 5.5930
 0.5030	 5.5780
 0.5040	 5.5480
 0.5050	 5.5650
 0.5060	 5.6450
 0.5070	 5.6830
 0.5080	 5.7320
 0.5090	 5.7690
 0.5100	 5.7580
 0.5110	 5.8070
 0.5120	 5.8650
 0.5130	 5.9110
 0.5140	 5.9810
 0.5150	 6.0310
 0.5160	 6.1150
 0.5170	 6.2600
 0.5180	 6.3000
 0.5190	 6.3360
 0.5200	 6.4110
 0.5210	 6.5210
 0.5220	 6.6410
 0.5230	 6.7540
 0.5240	 6.8540
 0.5250	 6.9540
 0.5260	 7.0290
 0.5270	 7.0940
 0.5280	 7.1800
 0.5290	 7.3250
 0.5300	 7.4460
 0.5310	 7.5210
 0.5320	 7.6050
 0.5330	 7.6920
 0.5340	 7.7770
 0.5350	 7.8500
 0.5360	 7.8830
 0.5370	 7.9390
 0.5380	 8.0250
 0.5390	 8.1090
 0.5400	 8.1760
 0.5410	 8.2550
 0.5420	 8.3500
 0.5430	 8.4080
 0.5440	 8.4370
 0.5450	 8.4610
 0.5460	 8.4950
 0.5470	 8.4820
 0.5480	 8.4760
 0.5490	 8.4940
 0.5500	 8.4890
 0.5510	 8.4920
 0.5520	 8.4950
 0.5530	 8.4860
 0.5540	 8.4930
 0.5550	 8.4680
 0.5560	 8.4300
 0.5570	 8.4310
 0.5580	 8.3740
 0.5590	 8.3060
 0.5600	 8.2640
 0.5610	 8.2080
 0.5620	 8.1730
 0.5630	 8.1260
 0.5640	 8.0300
 0.5650	 7.9610
 0.5660	 7.9100
 0.5670	 7.8560
 0.5680	 7.7700
 0.5690	 7.6760
 0.5700	 7.5940
 0.5710	 7.5310
 0.5720	 7.4510
 0.5730	 7.3760
 0.5740	 7.3090
 0.5750	 7.2450
 0.5760	 7.1940
 0.5770	 7.1600
 0.5780	 7.1330
 0.5790	 7.0940
 0.5800	 7.0450
 0.5810	 6.9940
 0.5820	 6.9550
 0.5830	 6.9300
 0.5840	 6.9070
 0.5850	 6.8790
 0.5860	 6.8510
 0.5870	 6.8070
 0.5880	 6.7730
 0.5890	 6.7660
 0.5900	 6.7320
 0.5910	 6.7200
 0.5920	 6.7260
 0.5930	 6.7200
 0.5940	 6.7070
 0.5950	 6.6700
 0.5960	 6.6230
 0.5970	 6.6370
 0.5980	 6.6550
 0.5990	 6.6580
 0.6000	 6.6350
 0.6010	 6.5960
 0.6020	 6.5680
 0.6030	 6.5520
 0.6040	 6.5230
 0.6050	 6.5190
 0.6060	 6.5120
 0.6070	 6.4810
 0.6080	 6.4480
 0.6090	 6.4070
 0.6100	 6.3880
 0.6110	 6.4130
 0.6120	 6.3850
 0.6130	 6.3460
 0.6140	 6.3160
 0.6150	 6.2670
 0.6160	 6.2360
 0.6170	 6.2140
 0.6180	 6.1820
 0.6190	 6.1660
 0.6200	 6.1590
 0.6210	 6.1420
 0.6220	 6.0950
 0.6230	 6.0760
 0.6240	 6.0720
 0.6250	 6.0680
 0.6260	 6.0660
 0.6270	 6.0670
 0.6280	 6.0660
 0.6290	 6.0630
 0.6300	 6.0800
 0.6310	 6.0820
 0.6320	 6.0630
 0.6330	 6.0570
 0.6340	 6.0380
 0.6350	 6.0160
 0.6360	 6.0050
 0.6370	 5.9900
 0.6380	 5.9870
 0.6390	 5.9790
 0.6400	 5.9410
 0.6410	 5.9460
 0.6420	 5.9460
 0.6430	 5.9190
 0.6440	 5.8980
 0.6450	 5.8790
 0.6460	 5.8610
 0.6470	 5.8440
 0.6480	 5.8330
 0.6490	 5.8200
 0.6500	 5.8030
 0.6510	 5.7850
 0.6520	 5.7720
 0.6530	 5.7710
 0.6540	 5.7790
 0.6550	 5.7680
 0.6560	 5.7460
 0.6570	 5.7330
 0.6580	 5.7420
 0.6590	 5.7210
 0.6600	 5.6980
 0.6610	 5.6820
 0.6620	 5.6630
 0.6630	 5.6450
 0.6640	 5.6280
 0.6650	 5.6160
 0.6660	 5.6230
 0.6670	 5.6020
 0.6680	 5.5710
 0.6690	 5.5730
 0.6700	 5.5810
 0.6710	 5.5820
 0.6720	 5.5780
 0.6730	 5.5970
 0.6740	 5.6010
 0.6750	 5.6110
 0.6760	 5.6420
 0.6770	 5.6170
 0.6780	 5.6040
 0.6790	 5.6300
 0.6800	 5.6810
 0.6810	 5.7070
 0.6820	 5.7240
 0.6830	 5.7460
 0.6840	 5.7700
 0.6850	 5.7940
 0.6860	 5.8370
 0.6870	 5.9120
 0.6880	 5.9880
 0.6890	 6.0460
 0.6900	 6.1070
 0.6910	 6.2170
 0.6920	 6.3350
 0.6930	 6.4980
 0.6940	 6.7240
 0.6950	 6.9740
 0.6960	 7.2600
 0.6970	 7.5990
 0.6980	 7.9990
 0.6990	 8.4310
 0.7000	 8.9310
 0.7010	 9.5050
 0.7020	10.1320
 0.7030	10.7760
 0.7040	11.4560
 0.7050	12.1860
 0.7060	12.9400
 0.7070	13.7420
 0.7080	14.5740
 0.7090	15.4120
 0.7100	16.2690
 0.7110	17.1470
 0.7120	18.0520
 0.7130	19.0070
 0.7140	19.9520
 0.7150	20.8950
 0.7160	21.8580
 0.7170	22.8520
 0.7180	23.8670
 0.7190	24.8820
 0.7200	25.8860
 0.7210	26.9000
 0.7220	27.9170
 0.7230	28.9290
 0.7240	29.9290
 0.7250	30.9130
 0.7260	31.8780
 0.7270	32.8150
 0.7280	33.7160
 0.7290	34.6010
 0.7300	35.4720
 0.7310	36.3120
 0.7320	37.0980
 0.7330	37.8470
 0.7340	38.5760
 0.7350	39.2910
 0.7360	39.9390
 0.7370	40.5500
 0.7380	41.1480
 0.7390	41.7160
 0.7400	42.2420
 0.7410	42.7280
 0.7420	43.1830
 0.7430	43.5980
 0.7440	43.9930
 0.7450	44.3710
 0.7460	44.7160
 0.7470	45.0290
 0.7480	45.3220
 0.7490	45.6000
 0.7500	45.8440
 0.7510	46.0640
 0.7520	46.2700
 0.7530	46.4710
 0.7540	46.6370
 0.7550	46.7860
 0.7560	46.9250
 0.7570	47.0500
 0.7580	47.1700
 0.7590	47.2910
 0.7600	47.4060
 0.7610	47.4930
 0.7620	47.5580
 0.7630	47.6230
 0.7640	47.6980
 0.7650	47.7490
 0.7660	47.7910
 0.7670	47.8380
 0.7680	47.8940
 0.7690	47.9330
 0.7700	47.9660
 0.7710	47.9980
 0.7720	48.0170
 0.7730	48.0400
 0.7740	48.0640
 0.7750	48.0800
 0.7760	48.0810
 0.7770	48.1010
 0.7780	48.1300
 0.7790	48.1410
 0.7800	48.1400
 0.7810	48.1470
 0.7820	48.1580
 0.7830	48.1470
 0.7840	48.1510
 0.7850	48.1690
 0.7860	48.1920
 0.7870	48.2030
 0.7880	48.2160
 0.7890	48.2100
 0.7900	48.1780
 0.7910	48.1900
 0.7920	48.2020
 0.7930	48.2020
 0.7940	48.2030
 0.7950	48.1850
 0.7960	48.1640
 0.7970	48.1580
 0.7980	48.1780
 0.7990	48.1940
 0.8000	48.1800
 0.8010	48.1410
 0.8020	48.1520
 0.8030	48.1570
 0.8040	48.1460
 0.8050	48.1340
 0.8060	48.1260
 0.8070	48.1230
 0.8080	48.1230
 0.8090	48.1170
 0.8100	48.1060
 0.8110	48.0960
 0.8120	48.0860
 0.8130	48.0750
 0.8140	48.0550
 0.8150	48.0490
 0.8160	48.0660
 0.8170	48.0570
 0.8180	48.0460
 0.8190	48.0460
 0.8200	48.0610
 0.8210	48.0470
 0.8220	48.0400
 0.8230	48.0390
 0.8240	48.0120
 0.8250	48.0080
 0.8260	48.0080
 0.8270	48.0030
 0.8280	48.0040
 0.8290	48.0210
 0.8300	48.0340
 0.8310	48.0310
 0.8320	48.0370
 0.8330	48.0350
 0.8340	48.0200
 0.8350	48.0010
 0.8360	47.9960
 0.8370	48.0130
 0.8380	48.0430
 0.8390	48.0660
 0.8400	48.0640
 0.8410	48.0650
 0.8420	48.0770
 0.8430	48.0740
 0.8440	48.0790
 0.8450	48.0900
 0.8460	48.1010
 0.8470	48.1220
 0.8480	48.1580
 0.8490	48.1780
 0.8500	48.1560
 0.8510	48.1470
 0.8520	48.1720
 0.8530	48.2110
 0.8540	48.2240
 0.8550	48.2310
 0.8560	48.2460
 0.8570	48.2640
 0.8580	48.2680
 0.8590	48.2800
 0.8600	48.2910
 0.8610	48.2940
 0.8620	48.3010
 0.8630	48.3100
 0.8640	48.3310
 0.8650	48.3680
 0.8660	48.3910
 0.8670	48.4040
 0.8680	48.4130
 0.8690	48.4240
 0.8700	48.4340
 0.8710	48.4400
 0.8720	48.4480
 0.8730	48.4640
 0.8740	48.4810
 0.8750	48.5050
 0.8760	48.5250
 0.8770	48.5190
 0.8780	48.5500
 0.8790	48.5730
 0.8800	48.5750
 0.8810	48.6080
 0.8820	48.6100
 0.8830	48.6030
 0.8840	48.6120
 0.8850	48.6110
 0.8860	48.6470
 0.8870	48.6860
 0.8880	48.6880
 0.8890	48.6800
 0.8900	48.6840
 0.8910	48.6910
 0.8920	48.6860
 0.8930	48.6960
 0.8940	48.7180
 0.8950	48.7390
 0.8960	48.7440
 0.8970	48.7510
 0.8980	48.7310
 0.8990	48.7140
 0.9000	48.7700
 0.9010	48.7650
 0.9020	48.7670
 0.9030	48.7910
 0.9040	48.7620
 0.9050	48.7370
 0.9060	48.7450
 0.9070	48.7770
 0.9080	48.7750
 0.9090	48.7590
 0.9100	48.7520
 0.9110	48.7640
 0.9120	48.7570
 0.9130	48.7500
 0.9140	48.7720
 0.9150	48.8240
 0.9160	48.8020
 0.9170	48.7940
 0.9180	48.8090
 0.9190	48.8180
 0.9200	48.7850
 0.9210	48.7960
 0.9220	48.8240
 0.9230	48.7910
 0.9240	48.7670
 0.9250	48.7490
 0.9260	48.7330
 0.9270	48.7160
 0.9280	48.6910
 0.9290	48.6890
 0.9300	48.6990
 0.9310	48.6750
 0.9320	48.6690
 0.9330	48.6290
 0.9340	48.5820
 0.9350	48.6370
 0.9360	48.6420
 0.9370	48.5960
 0.9380	48.5470
 0.9390	48.5560
 0.9400	48.5170
 0.9410	48.4960
 0.9420	48.5140
 0.9430	48.4540
 0.9440	48.4170
 0.9450	48.3810
 0.9460	48.3350
 0.9470	48.3560
 0.9480	48.2770
 0.9490	48.2310
 0.9500	48.2890
 0.9510	48.1720
 0.9520	48.0530
 0.9530	48.0460
 0.9540	48.1350
 0.9550	47.9830
 0.9560	47.9280
 0.9570	47.9380
 0.9580	47.8900
 0.9590	47.8140
 0.9600	47.7230
 0.9610	47.6570
 0.9620	47.6410
 0.9630	47.6250
 0.9640	47.6120
 0.9650	47.6050
 0.9660	47.6000
 0.9670	47.5770
 0.9680	47.5410
 0.9690	47.5060
 0.9700	47.4880
 0.9710	47.4920
 0.9720	47.5410
 0.9730	47.5530
 0.9740	47.4650
 0.9750	47.4860
 0.9760	47.4880
 0.9770	47.4900
 0.9780	47.5460
 0.9790	47.5290
 0.9800	47.4990
 0.9810	47.4780
 0.9820	47.4710
 0.9830	47.5050
 0.9840	47.5180
 0.9850	47.5120
 0.9860	47.5310
 0.9870	47.6420
 0.9880	47.6150
 0.9890	47.5140
 0.9900	47.5110
 0.9910	47.4920
 0.9920	47.5030
 0.9930	47.5520
 0.9940	47.6110
 0.9950	47.6010
 0.9960	47.5930
 0.9970	47.6090
 0.9980	47.6430
 0.9990	47.6700
 1.0000	47.7040
 1.0010	47.6950
 1.0020	47.7160
 1.0030	47.7160
 1.0040	47.7210
 1.0050	47.7320
 1.0060	47.7530
 1.0070	47.7880
 1.0080	47.8050
 1.0090	47.8030
 1.0100	47.8220
 1.0110	47.8520
 1.0120	47.8640
 1.0130	47.8760
 1.0140	47.8950
 1.0150	47.8980
 1.0160	47.9150
 1.0170	47.9560
 1.0180	47.9940
 1.0190	48.0240
 1.0200	48.0370
 1.0210	48.0550
 1.0220	48.0840
 1.0230	48.1040
 1.0240	48.1240
 1.0250	48.1380
 1.0260	48.1440
 1.0270	48.1520
 1.0280	48.1540
 1.0290	48.1630
 1.0300	48.1520
 1.0310	48.1760
 1.0320	48.2410
 1.0330	48.2870
 1.0340	48.2820
 1.0350	48.3040
 1.0360	48.3170
 1.0370	48.3280
 1.0380	48.3420
 1.0390	48.3970
 1.0400	48.4170
 1.0410	48.3980
 1.0420	48.4040
 1.0430	48.4270
 1.0440	48.4450
 1.0450	48.4460
 1.0460	48.4730
 1.0470	48.5480
 1.0480	48.5720
 1.0490	48.5740
 1.0500	48.5880
 1.0510	48.5670
 1.0520	48.5670
 1.0530	48.5760
 1.0540	48.6230
 1.0550	48.6300
 1.0560	48.6060
 1.0570	48.6200
 1.0580	48.6440
 1.0590	48.6600
 1.0600	48.7090
 1.0610	48.7230
 1.0620	48.6970
 1.0630	48.6960
 1.0640	48.6900
 1.0650	48.6950
 1.0660	48.7190
 1.0670	48.7360
 1.0680	48.7520
 1.0690	48.7730
 1.0700	48.7860
 1.0710	48.7900
 1.0720	48.8030
 1.0730	48.8270
 1.0740	48.8220
 1.0750	48.8060
 1.0760	48.7940
 1.0770	48.7500
 1.0780	48.7420
 1.0790	48.7630
 1.0800	48.7730
 1.0810	48.7990
 1.0820	48.8110
 1.0830	48.8150
 1.0840	48.8170
 1.0850	48.8140
 1.0860	48.8110
 1.0870	48.8030
 1.0880	48.7870
 1.0890	48.7880
 1.0900	48.7930
 1.0910	48.7930
 1.0920	48.8110
 1.0930	48.8010
 1.0940	48.7670
 1.0950	48.7490
 1.0960	48.7130
 1.0970	48.7050
 1.0980	48.7280
 1.0990	48.7330
 1.1000	48.7460
 1.1010	48.7540
 1.1020	48.7570
 1.1030	48.7460
 1.1040	48.7390
 1.1050	48.7240
 1.1060	48.7100
 1.1070	48.6890
 1.1080	48.6720
 1.1090	48.6520
 1.1100	48.6390
 1.1110	48.6270
 1.1120	48.6100
 1.1130	48.5940
 1.1140	48.5820
 1.1150	48.5720
 1.1160	48.5600
 1.1170	48.5640
 1.1180	48.5480
 1.1190	48.5200
 1.1200	48.4860
 1.1210	48.4450
 1.1220	48.4200
 1.1230	48.4160
 1.1240	48.3860
 1.1250	48.3470
 1.1260	48.3080
 1.1270	48.2420
 1.1280	48.1400
 1.1290	48.0680
 1.1300	47.9890
 1.1310	47.9180
 1.1320	47.8770
 1.1330	47.7990
 1.1340	47.7010
 1.1350	47.6110
 1.1360	47.5110
 1.1370	47.4000
 1.1380	47.3120
 1.1390	47.2080
 1.1400	47.1040
 1.1410	46.9960
 1.1420	46.8650
 1.1430	46.7300
 1.1440	46.6030
 1.1450	46.4600
 1.1460	46.3430
 1.1470	46.2490
 1.1480	46.1420
 1.1490	46.0430
 1.1500	45.9340
 1.1510	45.8130
 1.1520	45.7060
 1.1530	45.5900
 1.1540	45.4960
 1.1550	45.4130
 1.1560	45.3480
 1.1570	45.3010
 1.1580	45.2460
 1.1590	45.2080
 1.1600	45.1610
 1.1610	45.1030
 1.1620	45.0680
 1.1630	45.0180
 1.1640	44.9730
 1.1650	44.9370
 1.1660	44.9080
 1.1670	44.8750
 1.1680	44.8460
 1.1690	44.8220
 1.1700	44.7970
 1.1710	44.7800
 1.1720	44.7760
 1.1730	44.7650
 1.1740	44.7550
 1.1750	44.7390
 1.1760	44.7250
 1.1770	44.7060
 1.1780	44.6810
 1.1790	44.6550
 1.1800	44.6280
 1.1810	44.5900
 1.1820	44.5600
 1.1830	44.5400
 1.1840	44.5150
 1.1850	44.5000
 1.1860	44.4840
 1.1870	44.4470
 1.1880	44.4270
 1.1890	44.4080
 1.1900	44.4050
 1.1910	44.4240
 1.1920	44.4300
 1.1930	44.4470
 1.1940	44.4440
 1.1950	44.4220
 1.1960	44.4100
 1.1970	44.4060
 1.1980	44.4060
 1.1990	44.4170
 1.2000	44.4320
 1.2010	44.4370
 1.2020	44.4320
 1.2030	44.4340
 1.2040	44.4350
 1.2050	44.4430
 1.2060	44.4720
 1.2070	44.4940
 1.2080	44.5080
 1.2090	44.5230
 1.2100	44.5300
 1.2110	44.5460
 1.2120	44.5700
 1.2130	44.5970
 1.2140	44.6350
 1.2150	44.6680
 1.2160	44.7020
 1.2170	44.7330
 1.2180	44.7600
 1.2190	44.7760
 1.2200	44.7900
 1.2210	44.8060
 1.2220	44.8370
 1.2230	44.8730
 1.2240	44.9150
 1.2250	44.9650
 1.2260	45.0090
 1.2270	45.0420
 1.2280	45.0660
 1.2290	45.0900
 1.2300	45.1110
 1.2310	45.1310
 1.2320	45.1540
 1.2330	45.1750
 1.2340	45.2030
 1.2350	45.2410
 1.2360	45.2680
 1.2370	45.2930
 1.2380	45.3170
 1.2390	45.3400
 1.2400	45.3540
 1.2410	45.3720
 1.2420	45.3920
 1.2430	45.4010
 1.2440	45.4010
 1.2450	45.4180
 1.2460	45.4370
 1.2470	45.4400
 1.2480	45.4560
 1.2490	45.4800
 1.2500	45.5040
 1.2510	45.5360
 1.2520	45.5580
 1.2530	45.5600
 1.2540	45.5650
 1.2550	45.5610
 1.2560	45.5560
 1.2570	45.5810
 1.2580	45.5940
 1.2590	45.6000
 1.2600	45.6160
 1.2610	45.6220
 1.2620	45.6110
 1.2630	45.6010
 1.2640	45.6020
 1.2650	45.6060
 1.2660	45.6110
 1.2670	45.6160
 1.2680	45.6290
 1.2690	45.6390
 1.2700	45.6380
 1.2710	45.6250
 1.2720	45.6110
 1.2730	45.5950
 1.2740	45.5750
 1.2750	45.5780
 1.2760	45.5810
 1.2770	45.5640
 1.2780	45.5490
 1.2790	45.5270
 1.2800	45.4960
 1.2810	45.4730
 1.2820	45.4570
 1.2830	45.4380
 1.2840	45.4300
 1.2850	45.4130
 1.2860	45.3900
 1.2870	45.3670
 1.2880	45.3430
 1.2890	45.3060
 1.2900	45.2760
 1.2910	45.2570
 1.2920	45.2360
 1.2930	45.2150
 1.2940	45.1930
 1.2950	45.1620
 1.2960	45.1220
 1.2970	45.0870
 1.2980	45.0570
 1.2990	45.0310
 1.3000	45.0080
 1.3010	44.9790
 1.3020	44.9430
 1.3030	44.8920
 1.3040	44.8320
 1.3050	44.7750
 1.3060	44.7130
 1.3070	44.6470
 1.3080	44.5890
 1.3090	44.5250
 1.3100	44.4600
 1.3110	44.4020
 1.3120	44.3330
 1.3130	44.2530
 1.3140	44.1790
 1.3150	44.1120
 1.3160	44.0350
 1.3170	43.9560
 1.3180	43.8750
 1.3190	43.7850
 1.3200	43.6640
 1.3210	43.5430
 1.3220	43.4310
 1.3230	43.3120
 1.3240	43.2020
 1.3250	43.1000
 1.3260	43.0000
 1.3270	42.8960
 1.3280	42.7820
 1.3290	42.6700
 1.3300	42.5520
 1.3310	42.4270
 1.3320	42.3060
 1.3330	42.1840
 1.3340	42.0690
 1.3350	41.9500
 1.3360	41.8150
 1.3370	41.6780
 1.3380	41.5380
 1.3390	41.4000
 1.3400	41.2700
 1.3410	41.1480
 1.3420	41.0250
 1.3430	40.8920
 1.3440	40.7780
 1.3450	40.6640
 1.3460	40.5530
 1.3470	40.4350
 1.3480	40.3180
 1.3490	40.2000
 1.3500	40.0750
 1.3510	39.9570
 1.3520	39.8460
 1.3530	39.7290
 1.3540	39.6090
 1.3550	39.4950
 1.3560	39.3760
 1.3570	39.2590
 1.3580	39.1510
 1.3590	39.0320
 1.3600	38.9060
 1.3610	38.7790
 1.3620	38.6450
 1.3630	38.5030
 1.3640	38.3600
 1.3650	38.2130
 1.3660	38.0600
 1.3670	37.8990
 1.3680	37.7220
 1.3690	37.5280
 1.3700	37.3270
 1.3710	37.1130
 1.3720	36.8890
 1.3730	36.6500
 1.3740	36.3880
 1.3750	36.1090
 1.3760	35.8050
 1.3770	35.4810
 1.3780	35.1330
 1.3790	34.7600
 1.3800	34.3640
 1.3810	33.9440
 1.3820	33.5050
 1.3830	33.0470
 1.3840	32.5660
 1.3850	32.0650
 1.3860	31.5430
 1.3870	30.9910
 1.3880	30.4350
 1.3890	29.8620
 1.3900	29.2820
 1.3910	28.7000
 1.3920	28.1100
 1.3930	27.5150
 1.3940	26.9270
 1.3950	26.3370
 1.3960	25.7590
 1.3970	25.1960
 1.3980	24.6330
 1.3990	24.0910
 1.4000	23.5650
 1.4010	23.0500
 1.4020	22.5550
 1.4030	22.0740
 1.4040	21.6090
 1.4050	21.1680
 1.4060	20.7500
 1.4070	20.3630
 1.4080	19.9980
 1.4090	19.6500
 1.4100	19.3250
 1.4110	19.0140
 1.4120	18.7200
 1.4130	18.4450
 1.4140	18.1860
 1.4150	17.9510
 1.4160	17.7340
 1.4170	17.5300
 1.4180	17.3380
 1.4190	17.1530
 1.4200	16.9810
 1.4210	16.8230
 1.4220	16.6810
 1.4230	16.5510
 1.4240	16.4280
 1.4250	16.3160
 1.4260	16.2160
 1.4270	16.1200
 1.4280	16.0330
 1.4290	15.9530
 1.4300	15.8810
 1.4310	15.8140
 1.4320	15.7570
 1.4330	15.7020
 1.4340	15.6490
 1.4350	15.6020
 1.4360	15.5620
 1.4370	15.5260
 1.4380	15.4910
 1.4390	15.4620
 1.4400	15.4340
 1.4410	15.4080
 1.4420	15.3910
 1.4430	15.3770
 1.4440	15.3690
 1.4450	15.3620
 1.4460	15.3510
 1.4470	15.3460
 1.4480	15.3420
 1.4490	15.3440
 1.4500	15.3540
 1.4510	15.3590
 1.4520	15.3640
 1.4530	15.3730
 1.4540	15.3860
 1.4550	15.4090
 1.4560	15.4360
 1.4570	15.4620
 1.4580	15.4840
 1.4590	15.5020
 1.4600	15.5250
 1.4610	15.5570
 1.4620	15.5970
 1.4630	15.6440
 1.4640	15.6970
 1.4650	15.7540
 1.4660	15.8150
 1.4670	15.8830
 1.4680	15.9540
 1.4690	16.0270
 1.4700	16.1100
 1.4710	16.1980
 1.4720	16.2830
 1.4730	16.3740
 1.4740	16.4670
 1.4750	16.5560
 1.4760	16.6550
 1.4770	16.7620
 1.4780	16.8680
 1.4790	16.9790
 1.4800	17.0920
 1.4810	17.2020
 1.4820	17.3170
 1.4830	17.4340
 1.4840	17.5520
 1.4850	17.6740
 1.4860	17.7920
 1.4870	17.9120
 1.4880	18.0360
 1.4890	18.1580
 1.4900	18.2810
 1.4910	18.4040
 1.4920	18.5310
 1.4930	18.6610
 1.4940	18.7900
 1.4950	18.9230
 1.4960	19.0570
 1.4970	19.1880
 1.4980	19.3200
 1.4990	19.4560
 1.5000	19.5850
 1.5010	19.7060
 1.5020	19.8340
 1.5030	19.9630
 1.5040	20.0950
 1.5050	20.2310
 1.5060	20.3660
 1.5070	20.5000
 1.5080	20.6340
 1.5090	20.7700
 1.5100	20.9050
 1.5110	21.0330
 1.5120	21.1690
 1.5130	21.2990
 1.5140	21.4270
 1.5150	21.5610
 1.5160	21.6890
 1.5170	21.8200
 1.5180	21.9550
 1.5190	22.0880
 1.5200	22.2220
 1.5210	22.3530
 1.5220	22.4840
 1.5230	22.6130
 1.5240	22.7350
 1.5250	22.8600
 1.5260	22.9860
 1.5270	23.1100
 1.5280	23.2390
 1.5290	23.3640
 1.5300	23.4810
 1.5310	23.5960
 1.5320	23.7140
 1.5330	23.8340
 1.5340	23.9550
 1.5350	24.0860
 1.5360	24.2150
 1.5370	24.3300
 1.5380	24.4430
 1.5390	24.5560
 1.5400	24.6600
 1.5410	24.7710
 1.5420	24.8860
 1.5430	24.9960
 1.5440	25.1060
 1.5450	25.2150
 1.5460	25.3290
 1.5470	25.4440
 1.5480	25.5570
 1.5490	25.6670
 1.5500	25.7780
 1.5510	25.8850
 1.5520	25.9860
 1.5530	26.0860
 1.5540	26.1820
 1.5550	26.2710
 1.5560	26.3660
 1.5570	26.4640
 1.5580	26.5600
 1.5590	26.6620
 1.5600	26.7620
 1.5610	26.8600
 1.5620	26.9560
 1.5630	27.0440
 1.5640	27.1340
 1.5650	27.2180
 1.5660	27.3020
 1.5670	27.3860
 1.5680	27.4690
 1.5690	27.5550
 1.5700	27.6400
 1.5710	27.7250
 1.5720	27.8060
 1.5730	27.8860
 1.5740	27.9700
 1.5750	28.0580
 1.5760	28.1490
 1.5770	28.2340
 1.5780	28.3170
 1.5790	28.3940
 1.5800	28.4690
 1.5810	28.5530
 1.5820	28.6370
 1.5830	28.7170
 1.5840	28.7950
 1.5850	28.8650
 1.5860	28.9320
 1.5870	29.0070
 1.5880	29.0770
 1.5890	29.1490
 1.5900	29.2230
 1.5910	29.2880
 1.5920	29.3600
 1.5930	29.4370
 1.5940	29.5110
 1.5950	29.5920
 1.5960	29.6660
 1.5970	29.7320
 1.5980	29.8010
 1.5990	29.8560
 1.6000	29.9220
 1.6010	29.9910
 1.6020	30.0520
 1.6030	30.1270
 1.6040	30.1920
 1.6050	30.2580
 1.6060	30.3200
 1.6070	30.3700
 1.6080	30.4330
 1.6090	30.4910
 1.6100	30.5540
 1.6110	30.6210
 1.6120	30.6770
 1.6130	30.7330
 1.6140	30.7830
 1.6150	30.8330
 1.6160	30.8850
 1.6170	30.9330
 1.6180	30.9870
 1.6190	31.0380
 1.6200	31.0850
 1.6210	31.1290
 1.6220	31.1640
 1.6230	31.2020
 1.6240	31.2450
 1.6250	31.2850
 1.6260	31.3390
 1.6270	31.4000
 1.6280	31.4510
 1.6290	31.4940
 1.6300	31.5200
 1.6310	31.5550
 1.6320	31.5920
 1.6330	31.6260
 1.6340	31.6670
 1.6350	31.7040
 1.6360	31.7360
 1.6370	31.7660
 1.6380	31.7940
 1.6390	31.8220
 1.6400	31.8440
 1.6410	31.8670
 1.6420	31.8910
 1.6430	31.9130
 1.6440	31.9380
 1.6450	31.9540
 1.6460	31.9670
 1.6470	31.9900
 1.6480	32.0030
 1.6490	32.0220
 1.6500	32.0470
 1.6510	32.0540
 1.6520	32.0550
 1.6530	32.0470
 1.6540	32.0340
 1.6550	32.0250
 1.6560	32.0210
 1.6570	32.0240
 1.6580	32.0280
 1.6590	32.0220
 1.6600	32.0140
 1.6610	32.0080
 1.6620	31.9960
 1.6630	31.9930
 1.6640	31.9970
 1.6650	31.9940
 1.6660	31.9980
 1.6670	31.9920
 1.6680	31.9720
 1.6690	31.9550
 1.6700	31.9340
 1.6710	31.9100
 1.6720	31.8920
 1.6730	31.8760
 1.6740	31.8470
 1.6750	31.8140
 1.6760	31.7800
 1.6770	31.7360
 1.6780	31.6980
 1.6790	31.6650
 1.6800	31.6290
 1.6810	31.5910
 1.6820	31.5380
 1.6830	31.4790
 1.6840	31.4210
 1.6850	31.3500
 1.6860	31.2890
 1.6870	31.2390
 1.6880	31.1770
 1.6890	31.1210
 1.6900	31.0600
 1.6910	30.9920
 1.6920	30.9250
 1.6930	30.8520
 1.6940	30.7910
 1.6950	30.7310
 1.6960	30.6720
 1.6970	30.6290
 1.6980	30.5720
 1.6990	30.5120
 1.7000	30.4470
 1.7010	30.3700
 1.7020	30.3000
 1.7030	30.2190
 1.7040	30.1550
 1.7050	30.1070
 1.7060	30.0490
 1.7070	30.0020
 1.7080	29.9410
 1.7090	29.8660
 1.7100	29.8010
 1.7110	29.7300
 1.7120	29.6780
 1.7130	29.6250
 1.7140	29.5560
 1.7150	29.4980
 1.7160	29.4400
 1.7170	29.3810
 1.7180	29.3380
 1.7190	29.3050
 1.7200	29.2730
 1.7210	29.2360
 1.7220	29.2120
 1.7230	29.1840
 1.7240	29.1380
 1.7250	29.1010
 1.7260	29.0600
 1.7270	29.0210
 1.7280	28.9930
 1.7290	28.9700
 1.7300	28.9540
 1.7310	28.9310
 1.7320	28.9080
 1.7330	28.8810
 1.7340	28.8410
 1.7350	28.8130
 1.7360	28.7980
 1.7370	28.7710
 1.7380	28.7480
 1.7390	28.7150
 1.7400	28.6650
 1.7410	28.6240
 1.7420	28.5910
 1.7430	28.5440
 1.7440	28.4920
 1.7450	28.4420
 1.7460	28.3830
 1.7470	28.3280
 1.7480	28.2810
 1.7490	28.2200
 1.7500	28.1460
 1.7510	28.0890
 1.7520	28.0360
 1.7530	27.9760
 1.7540	27.9220
 1.7550	27.8550
 1.7560	27.7800
 1.7570	27.7180
 1.7580	27.6650
 1.7590	27.6210
 1.7600	27.5840
 1.7610	27.5330
 1.7620	27.4850
 1.7630	27.4220
 1.7640	27.3740
 1.7650	27.3410
 1.7660	27.3050
 1.7670	27.2730
 1.7680	27.2420
 1.7690	27.2170
 1.7700	27.1840
 1.7710	27.1460
 1.7720	27.1180
 1.7730	27.0860
 1.7740	27.0630
 1.7750	27.0560
 1.7760	27.0350
 1.7770	27.0060
 1.7780	26.9810
 1.7790	26.9490
 1.7800	26.9270
 1.7810	26.9110
 1.7820	26.8980
 1.7830	26.8890
 1.7840	26.8840
 1.7850	26.8830
 1.7860	26.8890
 1.7870	26.9050
 1.7880	26.9060
 1.7890	26.9160
 1.7900	26.9170
 1.7910	26.9190
 1.7920	26.9240
 1.7930	26.9300
 1.7940	26.9330
 1.7950	26.9420
 1.7960	26.9600
 1.7970	26.9750
 1.7980	26.9910
 1.7990	27.0060
 1.8000	27.0230
 1.8010	27.0310
 1.8020	27.0290
 1.8030	27.0400
 1.8040	27.0500
 1.8050	27.0650
 1.8060	27.0940
 1.8070	27.1120
 1.8080	27.1200
 1.8090	27.1350
 1.8100	27.1530
 1.8110	27.1500
 1.8120	27.1750
 1.8130	27.2000
 1.8140	27.2070
 1.8150	27.2210
 1.8160	27.2280
 1.8170	27.2170
 1.8180	27.2160
 1.8190	27.2190
 1.8200	27.2220
 1.8210	27.2250
 1.8220	27.2300
 1.8230	27.2480
 1.8240	27.2450
 1.8250	27.2300
 1.8260	27.2200
 1.8270	27.1930
 1.8280	27.1800
 1.8290	27.1790
 1.8300	27.1690
 1.8310	27.0680
 1.8320	27.0520
 1.8330	27.0080
 1.8340	26.9790
 1.8350	26.9630
 1.8360	26.9560
 1.8370	26.9410
 1.8380	26.9160
 1.8390	26.8820
 1.8400	26.8470
 1.8410	26.7790
 1.8420	26.6870
 1.8430	26.6010
 1.8440	26.5010
 1.8450	26.4000
 1.8460	26.2960
 1.8470	26.1970
 1.8480	26.0730
 1.8490	25.9230
 1.8500	25.7800
 1.8510	25.6420
 1.8520	25.4750
 1.8530	25.2880
 1.8540	25.1120
 1.8550	24.9100
 1.8560	24.6770
 1.8570	24.4540
 1.8580	24.2140
 1.8590	23.9540
 1.8600	23.6790
 1.8610	23.4020
 1.8620	23.0760
 1.8630	22.7180
 1.8640	22.3670
 1.8650	21.9800
 1.8660	21.5870
 1.8670	21.1920
 1.8680	20.7730
 1.8690	20.3360
 1.8700	19.8740
 1.8710	19.3850
 1.8720	18.8900
 1.8730	18.3810
 1.8740	17.8510
 1.8750	17.3370
 1.8760	16.8080
 1.8770	16.2650
 1.8780	15.7360
 1.8790	15.1960
 1.8800	14.6630
 1.8810	14.1300
 1.8820	13.6110
 1.8830	13.0940
 1.8840	12.5740
 1.8850	12.0660
 1.8860	11.5820
 1.8870	11.1030
 1.8880	10.6580
 1.8890	10.2480
 1.8900	 9.8590
 1.8910	 9.4860
 1.8920	 9.1370
 1.8930	 8.8050
 1.8940	 8.5020
 1.8950	 8.1930
 1.8960	 7.9020
 1.8970	 7.6510
 1.8980	 7.4160
 1.8990	 7.2050
 1.9000	 7.0230
 1.9010	 6.8850
 1.9020	 6.7460
 1.9030	 6.6180
 1.9040	 6.5280
 1.9050	 6.4490
 1.9060	 6.3690
 1.9070	 6.3030
 1.9080	 6.2230
 1.9090	 6.1430
 1.9100	 6.0790
 1.9110	 6.0350
 1.9120	 6.0170
 1.9130	 5.9910
 1.9140	 5.9810
 1.9150	 5.9570
 1.9160	 5.9250
 1.9170	 5.8950
 1.9180	 5.8610
 1.9190	 5.8480
 1.9200	 5.8310
 1.9210	 5.7970
 1.9220	 5.7850
 1.9230	 5.7910
 1.9240	 5.7820
 1.9250	 5.7740
 1.9260	 5.7760
 1.9270	 5.7610
 1.9280	 5.7440
 1.9290	 5.7430
 1.9300	 5.7320
 1.9310	 5.7220
 1.9320	 5.7340
 1.9330	 5.7430
 1.9340	 5.7600
 1.9350	 5.7730
 1.9360	 5.7790
 1.9370	 5.7920
 1.9380	 5.8100
 1.9390	 5.8270
 1.9400	 5.8410
 1.9410	 5.8740
 1.9420	 5.8800
 1.9430	 5.8770
 1.9440	 5.8850
 1.9450	 5.8870
 1.9460	 5.8990
 1.9470	 5.9300
 1.9480	 5.9460
 1.9490	 5.9600
 1.9500	 5.9820
 1.9510	 5.9780
 1.9520	 5.9870
 1.9530	 6.0110
 1.9540	 6.0240
 1.9550	 6.0490
 1.9560	 6.0920
 1.9570	 6.1240
 1.9580	 6.1600
 1.9590	 6.1890
 1.9600	 6.2100
 1.9610	 6.2320
 1.9620	 6.2510
 1.9630	 6.2680
 1.9640	 6.2920
 1.9650	 6.3360
 1.9660	 6.3760
 1.9670	 6.4070
 1.9680	 6.4380
 1.9690	 6.4630
 1.9700	 6.4970
 1.9710	 6.5310
 1.9720	 6.5690
 1.9730	 6.6160
 1.9740	 6.6570
 1.9750	 6.6920
 1.9760	 6.7460
 1.9770	 6.7940
 1.9780	 6.8210
 1.9790	 6.8690
 1.9800	 6.9210
 1.9810	 6.9710
 1.9820	 7.0420
 1.9830	 7.0950
 1.9840	 7.1210
 1.9850	 7.1750
 1.9860	 7.2450
 1.9870	 7.2950
 1.9880	 7.3630
 1.9890	 7.4400
 1.9900	 7.4860
 1.9910	 7.5310
 1.9920	 7.5810
 1.9930	 7.6310
 1.9940	 7.6740
 1.9950	 7.7160
 1.9960	 7.7620
 1.9970	 7.8040
 1.9980	 7.8500
 1.9990	 7.9000
 2.0000	 7.9600
 2.0010	 8.0070
 2.0020	 8.0550
 2.0030	 8.1050
 2.0040	 8.1420
 2.0050	 8.1930
 2.0060	 8.2440
 2.0070	 8.3060
 2.0080	 8.3880
 2.0090	 8.4550
 2.0100	 8.5170
 2.0110	 8.5870
 2.0120	 8.6540
 2.0130	 8.7290
 2.0140	 8.8170
 2.0150	 8.8840
 2.0160	 8.9380
 2.0170	 8.9790
 2.0180	 9.0330
 2.0190	 9.0890
 2.0200	 9.1430
 2.0210	 9.2040
 2.0220	 9.2560
 2.0230	 9.2880
 2.0240	 9.3380
 2.0250	 9.4050
 2.0260	 9.4580
 2.0270	 9.5090
 2.0280	 9.5630
 2.0290	 9.5990
 2.0300	 9.6520
 2.0310	 9.7060
 2.0320	 9.7690
 2.0330	 9.8320
 2.0340	 9.9030
 2.0350	 9.9650
 2.0360	10.0360
 2.0370	10.0960
 2.0380	10.1370
 2.0390	10.1890
 2.0400	10.2450
 2.0410	10.2910
 2.0420	10.3290
 2.0430	10.3840
 2.0440	10.4190
 2.0450	10.4360
 2.0460	10.4710
 2.0470	10.5020
 2.0480	10.5440
 2.0490	10.5980
 2.0500	10.6480
 2.0510	10.7040
 2.0520	10.7560
 2.0530	10.8160
 2.0540	10.8620
 2.0550	10.8920
 2.0560	10.9340
 2.0570	10.9970
 2.0580	11.0270
 2.0590	11.0800
 2.0600	11.1520
 2.0610	11.2130
 2.0620	11.2650
 2.0630	11.3280
 2.0640	11.4020
 2.0650	11.4620
 2.0660	11.5110
 2.0670	11.5750
 2.0680	11.6470
 2.0690	11.7100
 2.0700	11.7830
 2.0710	11.8500
 2.0720	11.8900
 2.0730	11.9530
 2.0740	12.0170
 2.0750	12.0970
 2.0760	12.1530
 2.0770	12.2040
 2.0780	12.2510
 2.0790	12.2790
 2.0800	12.3190
 2.0810	12.3610
 2.0820	12.4120
 2.0830	12.4720
 2.0840	12.5250
 2.0850	12.5880
 2.0860	12.6410
 2.0870	12.6760
 2.0880	12.7190
 2.0890	12.7680
 2.0900	12.8170
 2.0910	12.8750
 2.0920	12.9480
 2.0930	13.0120
 2.0940	13.0810
 2.0950	13.1420
 2.0960	13.1910
 2.0970	13.2520
 2.0980	13.3220
 2.0990	13.3770
 2.1000	13.4280
 2.1010	13.4800
 2.1020	13.5140
 2.1030	13.5590
 2.1040	13.6140
 2.1050	13.6740
 2.1060	13.7240
 2.1070	13.7740
 2.1080	13.8180
 2.1090	13.8520
 2.1100	13.8970
 2.1110	13.9480
 2.1120	13.9910
 2.1130	14.0310
 2.1140	14.0750
 2.1150	14.1120
 2.1160	14.1560
 2.1170	14.2150
 2.1180	14.2600
 2.1190	14.2930
 2.1200	14.3340
 2.1210	14.3750
 2.1220	14.4210
 2.1230	14.4510
 2.1240	14.4780
 2.1250	14.5080
 2.1260	14.5190
 2.1270	14.5530
 2.1280	14.6040
 2.1290	14.6530
 2.1300	14.7060
 2.1310	14.7600
 2.1320	14.8330
 2.1330	14.8810
 2.1340	14.9210
 2.1350	14.9550
 2.1360	14.9760
 2.1370	14.9890
 2.1380	14.9820
 2.1390	14.9930
 2.1400	14.9960
 2.1410	15.0120
 2.1420	15.0330
 2.1430	15.0720
 2.1440	15.1030
 2.1450	15.1300
 2.1460	15.1630
 2.1470	15.2060
 2.1480	15.2380
 2.1490	15.2700
 2.1500	15.2960
 2.1510	15.3090
 2.1520	15.3320
 2.1530	15.3680
 2.1540	15.3830
 2.1550	15.3770
 2.1560	15.3940
 2.1570	15.4160
 2.1580	15.4270
 2.1590	15.4560
 2.1600	15.4760
 2.1610	15.4720
 2.1620	15.4430
 2.1630	15.4530
 2.1640	15.4760
 2.1650	15.4940
 2.1660	15.5320
 2.1670	15.5530
 2.1680	15.5600
 2.1690	15.5760
 2.1700	15.5920
 2.1710	15.6100
 2.1720	15.6290
 2.1730	15.6520
 2.1740	15.6790
 2.1750	15.7030
 2.1760	15.7190
 2.1770	15.7500
 2.1780	15.8050
 2.1790	15.8350
 2.1800	15.8480
 2.1810	15.8780
 2.1820	15.9030
 2.1830	15.9110
 2.1840	15.9450
 2.1850	16.0080
 2.1860	16.0490
 2.1870	16.0860
 2.1880	16.1180
 2.1890	16.1490
 2.1900	16.1690
 2.1910	16.1700
 2.1920	16.1890
 2.1930	16.2140
 2.1940	16.2270
 2.1950	16.2390
 2.1960	16.2510
 2.1970	16.2390
 2.1980	16.2570
 2.1990	16.3180
 2.2000	16.3430
 2.2010	16.3610
 2.2020	16.3780
 2.2030	16.3610
 2.2040	16.3630
 2.2050	16.3740
 2.2060	16.4090
 2.2070	16.4240
 2.2080	16.4420
 2.2090	16.4490
 2.2100	16.4480
 2.2110	16.4470
 2.2120	16.4460
 2.2130	16.4330
 2.2140	16.4030
 2.2150	16.3910
 2.2160	16.3790
 2.2170	16.3650
 2.2180	16.3610
 2.2190	16.3530
 2.2200	16.3350
 2.2210	16.3230
 2.2220	16.3340
 2.2230	16.3150
 2.2240	16.2710
 2.2250	16.2390
 2.2260	16.1900
 2.2270	16.1580
 2.2280	16.1550
 2.2290	16.1290
 2.2300	16.1000
 2.2310	16.0610
 2.2320	15.9910
 2.2330	15.9340
 2.2340	15.8710
 2.2350	15.8040
 2.2360	15.7240
 2.2370	15.6320
 2.2380	15.5570
 2.2390	15.4750
 2.2400	15.4120
 2.2410	15.3750
 2.2420	15.3210
 2.2430	15.2600
 2.2440	15.2080
 2.2450	15.1730
 2.2460	15.1110
 2.2470	15.0390
 2.2480	14.9740
 2.2490	14.8750
 2.2500	14.8130
 2.2510	14.7890
 2.2520	14.7450
 2.2530	14.6930
 2.2540	14.6660
 2.2550	14.6570
 2.2560	14.6350
 2.2570	14.6390
 2.2580	14.6190
 2.2590	14.5700
 2.2600	14.5200
 2.2610	14.4720
 2.2620	14.3910
 2.2630	14.3320
 2.2640	14.2630
 2.2650	14.2100
 2.2660	14.1760
 2.2670	14.1110
 2.2680	14.0330
 2.2690	13.9630
 2.2700	13.8740
 2.2710	13.8130
 2.2720	13.7710
 2.2730	13.7230
 2.2740	13.6780
 2.2750	13.6320
 2.2760	13.5830
 2.2770	13.5400
 2.2780	13.4990
 2.2790	13.4690
 2.2800	13.4550
 2.2810	13.4270
 2.2820	13.4010
 2.2830	13.3630
 2.2840	13.3050
 2.2850	13.2600
 2.2860	13.2210
 2.2870	13.1790
 2.2880	13.1440
 2.2890	13.0970
 2.2900	13.0340
 2.2910	12.9830
 2.2920	12.9420
 2.2930	12.8850
 2.2940	12.8270
 2.2950	12.7600
 2.2960	12.6730
 2.2970	12.5970
 2.2980	12.5050
 2.2990	12.4540
 2.3000	12.4060
 2.3010	12.3210
 2.3020	12.2580
 2.3030	12.2180
 2.3040	12.1920
 2.3050	12.1820
 2.3060	12.1720
 2.3070	12.1320
 2.3080	12.0780
 2.3090	12.0250
 2.3100	11.9450
 2.3110	11.9080
 2.3120	11.8880
 2.3130	11.8910
 2.3140	11.8770
 2.3150	11.8920
 2.3160	11.8700
 2.3170	11.8110
 2.3180	11.7760
 2.3190	11.7400
 2.3200	11.7100
 2.3210	11.6810
 2.3220	11.6610
 2.3230	11.6590
 2.3240	11.6310
 2.3250	11.6010
 2.3260	11.5730
 2.3270	11.5100
 2.3280	11.4960
 2.3290	11.5340
 2.3300	11.5210
 2.3310	11.5100
 2.3320	11.4850
 2.3330	11.4240
 2.3340	11.3780
 2.3350	11.3260
 2.3360	11.2970
 2.3370	11.2870
 2.3380	11.2600
 2.3390	11.2480
 2.3400	11.2270
 2.3410	11.1860
 2.3420	11.1470
 2.3430	11.1130
 2.3440	11.0850
 2.3450	11.0420
 2.3460	11.0180
 2.3470	11.0180
 2.3480	11.0030
 2.3490	11.0210
 2.3500	10.9880
 2.3510	10.9060
 2.3520	10.8360
 2.3530	10.7180
 2.3540	10.6430
 2.3550	10.6350
 2.3560	10.6530
 2.3570	10.6980
 2.3580	10.7090
 2.3590	10.6630
 2.3600	10.6040
 2.3610	10.5590
 2.3620	10.5390
 2.3630	10.5100
 2.3640	10.4950
 2.3650	10.4890
 2.3660	10.4440
 2.3670	10.4430
 2.3680	10.4660
 2.3690	10.4290
 2.3700	10.3980
 2.3710	10.3750
 2.3720	10.2940
 2.3730	10.2200
 2.3740	10.1510
 2.3750	10.0680
 2.3760	10.0310
 2.3770	10.0070
 2.3780	10.0500
 2.3790	10.0950
 2.3800	10.0690
 2.3810	10.0590
 2.3820	 9.9610
 2.3830	 9.8770
 2.3840	 9.8460
 2.3850	 9.7980
 2.3860	 9.8140
 2.3870	 9.7550
 2.3880	 9.6920
 2.3890	 9.6850
 2.3900	 9.6380
 2.3910	 9.6100
 2.3920	 9.5810
 2.3930	 9.5100
 2.3940	 9.4390
 2.3950	 9.3960
 2.3960	 9.2950
 2.3970	 9.1730
 2.3980	 9.0920
 2.3990	 9.0570
 2.4000	 9.1030
 2.4010	 9.1790
 2.4020	 9.1840
 2.4030	 9.1600
 2.4040	 9.0780
 2.4050	 8.9810
 2.4060	 8.9500
 2.4070	 8.9090
 2.4080	 8.9500
 2.4090	 8.9960
 2.4100	 8.9830
 2.4110	 8.9260
 2.4120	 8.7970
 2.4130	 8.6860
 2.4140	 8.5390
 2.4150	 8.4320
 2.4160	 8.3390
 2.4170	 8.2280
 2.4180	 8.2770
 2.4190	 8.3820
 2.4200	 8.5280
 2.4210	 8.6680
 2.4220	 8.6320
 2.4230	 8.5010
 2.4240	 8.3490
 2.4250	 8.1880
 2.4260	 8.1170
 2.4270	 8.1040
 2.4280	 8.0790
 2.4290	 8.1200
 2.4300	 8.1210
 2.4310	 8.0710
 2.4320	 8.0330
 2.4330	 7.9400
 2.4340	 7.8360
 2.4350	 7.8020
 2.4360	 7.7780
 2.4370	 7.7810
 2.4380	 7.8370
 2.4390	 7.8110
 2.4400	 7.7740
 2.4410	 7.7460
 2.4420	 7.7090
 2.4430	 7.7640
 2.4440	 7.8350
 2.4450	 7.7420
 2.4460	 7.6120
 2.4470	 7.4340
 2.4480	 7.1920
 2.4490	 7.2650
 2.4500	 7.3610
 2.4510	 7.3500
 2.4520	 7.5140
 2.4530	 7.3740
 2.4540	 7.1080
 2.4550	 7.1030
 2.4560	 7.0260
 2.4570	 7.0760
 2.4580	 7.2030
 2.4590	 7.1690
 2.4600	 7.2120
 2.4610	 7.2910
 2.4620	 7.4020
 2.4630	 7.4500
 2.4640	 7.4440
 2.4650	 7.3040
 2.4660	 7.0070
 2.4670	 6.9140
 2.4680	 6.7740
 2.4690	 6.9140
 2.4700	 6.8870
 2.4710	 6.8680
 2.4720	 6.8490
 2.4730	 6.5680
 2.4740	 6.4910
 2.4750	 6.4760
 2.4760	 6.5190
 2.4770	 6.8170
 2.4780	 6.9060
 2.4790	 6.9990
 2.4800	 7.0060
 2.4810	 6.7860
 2.4820	 6.6810
 2.4830	 6.8480
 2.4840	 7.1810
 2.4850	 7.1390
 2.4860	 7.1400
 2.4870	 7.1120
 2.4880	 6.8770
 2.4890	 6.8410
 2.4900	 6.7700
 2.4910	 6.5110
 2.4920	 6.3350
 2.4930	 6.0660
 2.4940	 5.9290
 2.4950	 6.2390
 2.4960	 6.4550
 2.4970	 6.7040
 2.4980	 6.9520
 2.4990	 6.7860
 2.5000	 6.9030
