Name: Abies concolor 1
Type: vegetation
Class: Tree
Genus: Abies
Species: concolor
Sample No.: VH150
Owner: UCSB
Wavelength Range: VSWIR
Origin: 37.044; -119.3035; WGS84
Collection Date: 6/8/2013
Description: Samples were collected as part of the HyspIRI Airborne Campaign. 48 individual plants were sampled in three times in 2013 - spring  summer  and fall. The name of the sample includes a 1  2  or 3 which references a different individual of the species. Samples were taken to JPL and processed within 48 hours of collection. The same leaves were processed in the Nicolet and then measured using the ASD.
Measurement: Bidirectional reflectance
First Column: X
Second Column: Y
X Units: Wavelength (micrometers)
Y Units: Reflectance (percentage)
First X Value: 0.35
Last X Value: 2.5
Number of X Values: 2151
Additional Information: vegetation.tree.abies.concolor.vswir.vh150.ucsb.asd.ancillary.txt

 0.3500	 4.7480
 0.3510	 4.5660
 0.3520	 4.5560
 0.3530	 4.6150
 0.3540	 4.5460
 0.3550	 4.3660
 0.3560	 4.2610
 0.3570	 4.3010
 0.3580	 4.4580
 0.3590	 4.4920
 0.3600	 4.3790
 0.3610	 4.2010
 0.3620	 4.1610
 0.3630	 4.2270
 0.3640	 4.3390
 0.3650	 4.4140
 0.3660	 4.2530
 0.3670	 4.2100
 0.3680	 4.3110
 0.3690	 4.3370
 0.3700	 4.3370
 0.3710	 4.2820
 0.3720	 4.1990
 0.3730	 4.2290
 0.3740	 4.2170
 0.3750	 4.1560
 0.3760	 4.1000
 0.3770	 4.1490
 0.3780	 4.1870
 0.3790	 4.1940
 0.3800	 4.2250
 0.3810	 4.2210
 0.3820	 4.2090
 0.3830	 4.1970
 0.3840	 4.1360
 0.3850	 4.1120
 0.3860	 4.1620
 0.3870	 4.2690
 0.3880	 4.2290
 0.3890	 4.1640
 0.3900	 4.1520
 0.3910	 4.1800
 0.3920	 4.2080
 0.3930	 4.2400
 0.3940	 4.2750
 0.3950	 4.2710
 0.3960	 4.2460
 0.3970	 4.2200
 0.3980	 4.2150
 0.3990	 4.2590
 0.4000	 4.2900
 0.4010	 4.2860
 0.4020	 4.2870
 0.4030	 4.2840
 0.4040	 4.2780
 0.4050	 4.2810
 0.4060	 4.3140
 0.4070	 4.3420
 0.4080	 4.3580
 0.4090	 4.3720
 0.4100	 4.4240
 0.4110	 4.4590
 0.4120	 4.4560
 0.4130	 4.4740
 0.4140	 4.5180
 0.4150	 4.5730
 0.4160	 4.6150
 0.4170	 4.6490
 0.4180	 4.6860
 0.4190	 4.7290
 0.4200	 4.7720
 0.4210	 4.8300
 0.4220	 4.8840
 0.4230	 4.9190
 0.4240	 4.9440
 0.4250	 4.9810
 0.4260	 5.0260
 0.4270	 5.0600
 0.4280	 5.1060
 0.4290	 5.1450
 0.4300	 5.1770
 0.4310	 5.2180
 0.4320	 5.2490
 0.4330	 5.2750
 0.4340	 5.3180
 0.4350	 5.3600
 0.4360	 5.3950
 0.4370	 5.4180
 0.4380	 5.4390
 0.4390	 5.4630
 0.4400	 5.4880
 0.4410	 5.5130
 0.4420	 5.5570
 0.4430	 5.5840
 0.4440	 5.6020
 0.4450	 5.6430
 0.4460	 5.6690
 0.4470	 5.6850
 0.4480	 5.7060
 0.4490	 5.7510
 0.4500	 5.7870
 0.4510	 5.8120
 0.4520	 5.8350
 0.4530	 5.8440
 0.4540	 5.8560
 0.4550	 5.8780
 0.4560	 5.8970
 0.4570	 5.9160
 0.4580	 5.9340
 0.4590	 5.9490
 0.4600	 5.9580
 0.4610	 5.9570
 0.4620	 5.9540
 0.4630	 5.9570
 0.4640	 5.9700
 0.4650	 5.9790
 0.4660	 5.9810
 0.4670	 5.9840
 0.4680	 5.9810
 0.4690	 5.9770
 0.4700	 5.9740
 0.4710	 5.9740
 0.4720	 5.9820
 0.4730	 5.9940
 0.4740	 5.9910
 0.4750	 5.9980
 0.4760	 6.0010
 0.4770	 6.0020
 0.4780	 6.0070
 0.4790	 6.0110
 0.4800	 6.0110
 0.4810	 6.0180
 0.4820	 6.0200
 0.4830	 6.0270
 0.4840	 6.0400
 0.4850	 6.0520
 0.4860	 6.0550
 0.4870	 6.0630
 0.4880	 6.0780
 0.4890	 6.0870
 0.4900	 6.1100
 0.4910	 6.1410
 0.4920	 6.1680
 0.4930	 6.1940
 0.4940	 6.2240
 0.4950	 6.2600
 0.4960	 6.3130
 0.4970	 6.3640
 0.4980	 6.4170
 0.4990	 6.4790
 0.5000	 6.5340
 0.5010	 6.6040
 0.5020	 6.6850
 0.5030	 6.7750
 0.5040	 6.8730
 0.5050	 6.9790
 0.5060	 7.0910
 0.5070	 7.2110
 0.5080	 7.3390
 0.5090	 7.4780
 0.5100	 7.6290
 0.5110	 7.7900
 0.5120	 7.9660
 0.5130	 8.1520
 0.5140	 8.3410
 0.5150	 8.5420
 0.5160	 8.7530
 0.5170	 8.9720
 0.5180	 9.1990
 0.5190	 9.4320
 0.5200	 9.6680
 0.5210	 9.9000
 0.5220	10.1280
 0.5230	10.3530
 0.5240	10.5790
 0.5250	10.7880
 0.5260	10.9860
 0.5270	11.1730
 0.5280	11.3470
 0.5290	11.5090
 0.5300	11.6550
 0.5310	11.7890
 0.5320	11.9170
 0.5330	12.0310
 0.5340	12.1340
 0.5350	12.2290
 0.5360	12.3070
 0.5370	12.3790
 0.5380	12.4470
 0.5390	12.5060
 0.5400	12.5640
 0.5410	12.6230
 0.5420	12.6830
 0.5430	12.7420
 0.5440	12.7950
 0.5450	12.8410
 0.5460	12.8860
 0.5470	12.9240
 0.5480	12.9600
 0.5490	12.9950
 0.5500	13.0240
 0.5510	13.0460
 0.5520	13.0600
 0.5530	13.0670
 0.5540	13.0520
 0.5550	13.0250
 0.5560	12.9860
 0.5570	12.9310
 0.5580	12.8660
 0.5590	12.7920
 0.5600	12.7080
 0.5610	12.6170
 0.5620	12.5170
 0.5630	12.4090
 0.5640	12.2960
 0.5650	12.1750
 0.5660	12.0490
 0.5670	11.9200
 0.5680	11.7860
 0.5690	11.6470
 0.5700	11.5060
 0.5710	11.3670
 0.5720	11.2300
 0.5730	11.0970
 0.5740	10.9690
 0.5750	10.8430
 0.5760	10.7250
 0.5770	10.6150
 0.5780	10.5140
 0.5790	10.4210
 0.5800	10.3390
 0.5810	10.2630
 0.5820	10.1870
 0.5830	10.1060
 0.5840	10.0320
 0.5850	 9.9660
 0.5860	 9.9120
 0.5870	 9.8570
 0.5880	 9.8060
 0.5890	 9.7570
 0.5900	 9.7130
 0.5910	 9.6680
 0.5920	 9.6280
 0.5930	 9.5920
 0.5940	 9.5640
 0.5950	 9.5410
 0.5960	 9.5150
 0.5970	 9.4940
 0.5980	 9.4690
 0.5990	 9.4430
 0.6000	 9.4180
 0.6010	 9.3870
 0.6020	 9.3500
 0.6030	 9.3100
 0.6040	 9.2660
 0.6050	 9.2130
 0.6060	 9.1530
 0.6070	 9.0890
 0.6080	 9.0220
 0.6090	 8.9540
 0.6100	 8.8830
 0.6110	 8.8160
 0.6120	 8.7380
 0.6130	 8.6570
 0.6140	 8.5810
 0.6150	 8.5040
 0.6160	 8.4300
 0.6170	 8.3610
 0.6180	 8.3020
 0.6190	 8.2480
 0.6200	 8.2010
 0.6210	 8.1590
 0.6220	 8.1190
 0.6230	 8.0870
 0.6240	 8.0630
 0.6250	 8.0410
 0.6260	 8.0210
 0.6270	 8.0030
 0.6280	 7.9910
 0.6290	 7.9830
 0.6300	 7.9790
 0.6310	 7.9720
 0.6320	 7.9550
 0.6330	 7.9370
 0.6340	 7.9110
 0.6350	 7.8770
 0.6360	 7.8380
 0.6370	 7.7920
 0.6380	 7.7330
 0.6390	 7.6670
 0.6400	 7.6010
 0.6410	 7.5280
 0.6420	 7.4500
 0.6430	 7.3660
 0.6440	 7.2860
 0.6450	 7.2000
 0.6460	 7.1160
 0.6470	 7.0330
 0.6480	 6.9630
 0.6490	 6.8990
 0.6500	 6.8400
 0.6510	 6.7900
 0.6520	 6.7450
 0.6530	 6.7050
 0.6540	 6.6600
 0.6550	 6.6140
 0.6560	 6.5660
 0.6570	 6.5090
 0.6580	 6.4470
 0.6590	 6.3750
 0.6600	 6.2990
 0.6610	 6.2230
 0.6620	 6.1460
 0.6630	 6.0690
 0.6640	 6.0000
 0.6650	 5.9360
 0.6660	 5.8750
 0.6670	 5.8280
 0.6680	 5.7890
 0.6690	 5.7520
 0.6700	 5.7260
 0.6710	 5.7060
 0.6720	 5.6890
 0.6730	 5.6840
 0.6740	 5.6820
 0.6750	 5.6870
 0.6760	 5.6930
 0.6770	 5.7040
 0.6780	 5.7190
 0.6790	 5.7430
 0.6800	 5.7760
 0.6810	 5.8170
 0.6820	 5.8740
 0.6830	 5.9470
 0.6840	 6.0290
 0.6850	 6.1410
 0.6860	 6.2850
 0.6870	 6.4600
 0.6880	 6.6710
 0.6890	 6.9340
 0.6900	 7.2470
 0.6910	 7.6090
 0.6920	 8.0300
 0.6930	 8.5040
 0.6940	 9.0360
 0.6950	 9.6180
 0.6960	10.2520
 0.6970	10.9320
 0.6980	11.6550
 0.6990	12.4080
 0.7000	13.1870
 0.7010	13.9880
 0.7020	14.7990
 0.7030	15.6230
 0.7040	16.4500
 0.7050	17.2760
 0.7060	18.1040
 0.7070	18.9310
 0.7080	19.7600
 0.7090	20.5950
 0.7100	21.4280
 0.7110	22.2700
 0.7120	23.1210
 0.7130	23.9710
 0.7140	24.8280
 0.7150	25.6930
 0.7160	26.5630
 0.7170	27.4420
 0.7180	28.3210
 0.7190	29.1990
 0.7200	30.0800
 0.7210	30.9620
 0.7220	31.8390
 0.7230	32.7070
 0.7240	33.5620
 0.7250	34.4080
 0.7260	35.2380
 0.7270	36.0460
 0.7280	36.8290
 0.7290	37.5920
 0.7300	38.3310
 0.7310	39.0390
 0.7320	39.7230
 0.7330	40.3790
 0.7340	41.0080
 0.7350	41.6100
 0.7360	42.1750
 0.7370	42.7120
 0.7380	43.2260
 0.7390	43.7090
 0.7400	44.1650
 0.7410	44.5940
 0.7420	44.9930
 0.7430	45.3680
 0.7440	45.7160
 0.7450	46.0400
 0.7460	46.3420
 0.7470	46.6160
 0.7480	46.8690
 0.7490	47.1040
 0.7500	47.3160
 0.7510	47.5140
 0.7520	47.6970
 0.7530	47.8610
 0.7540	48.0130
 0.7550	48.1490
 0.7560	48.2700
 0.7570	48.3850
 0.7580	48.4880
 0.7590	48.5820
 0.7600	48.6700
 0.7610	48.7520
 0.7620	48.8220
 0.7630	48.8840
 0.7640	48.9420
 0.7650	49.0000
 0.7660	49.0510
 0.7670	49.0940
 0.7680	49.1350
 0.7690	49.1750
 0.7700	49.2130
 0.7710	49.2480
 0.7720	49.2780
 0.7730	49.3070
 0.7740	49.3360
 0.7750	49.3630
 0.7760	49.3950
 0.7770	49.4200
 0.7780	49.4420
 0.7790	49.4690
 0.7800	49.4910
 0.7810	49.5120
 0.7820	49.5320
 0.7830	49.5530
 0.7840	49.5740
 0.7850	49.5950
 0.7860	49.6160
 0.7870	49.6370
 0.7880	49.6540
 0.7890	49.6680
 0.7900	49.6860
 0.7910	49.7100
 0.7920	49.7270
 0.7930	49.7370
 0.7940	49.7480
 0.7950	49.7640
 0.7960	49.7770
 0.7970	49.7850
 0.7980	49.8000
 0.7990	49.8150
 0.8000	49.8250
 0.8010	49.8300
 0.8020	49.8380
 0.8030	49.8480
 0.8040	49.8580
 0.8050	49.8650
 0.8060	49.8750
 0.8070	49.8820
 0.8080	49.8860
 0.8090	49.8850
 0.8100	49.8920
 0.8110	49.9000
 0.8120	49.9030
 0.8130	49.9000
 0.8140	49.9010
 0.8150	49.9050
 0.8160	49.9080
 0.8170	49.9160
 0.8180	49.9200
 0.8190	49.9210
 0.8200	49.9220
 0.8210	49.9230
 0.8220	49.9230
 0.8230	49.9210
 0.8240	49.9190
 0.8250	49.9210
 0.8260	49.9190
 0.8270	49.9110
 0.8280	49.9090
 0.8290	49.9020
 0.8300	49.8960
 0.8310	49.8950
 0.8320	49.8930
 0.8330	49.8880
 0.8340	49.8830
 0.8350	49.8810
 0.8360	49.8850
 0.8370	49.8850
 0.8380	49.8840
 0.8390	49.8930
 0.8400	49.9010
 0.8410	49.9060
 0.8420	49.9100
 0.8430	49.9160
 0.8440	49.9290
 0.8450	49.9370
 0.8460	49.9350
 0.8470	49.9410
 0.8480	49.9540
 0.8490	49.9670
 0.8500	49.9720
 0.8510	49.9730
 0.8520	49.9770
 0.8530	49.9860
 0.8540	49.9950
 0.8550	50.0040
 0.8560	50.0110
 0.8570	50.0170
 0.8580	50.0270
 0.8590	50.0320
 0.8600	50.0380
 0.8610	50.0480
 0.8620	50.0550
 0.8630	50.0600
 0.8640	50.0620
 0.8650	50.0630
 0.8660	50.0740
 0.8670	50.0840
 0.8680	50.0880
 0.8690	50.0880
 0.8700	50.0950
 0.8710	50.1020
 0.8720	50.1090
 0.8730	50.1200
 0.8740	50.1230
 0.8750	50.1230
 0.8760	50.1230
 0.8770	50.1270
 0.8780	50.1310
 0.8790	50.1300
 0.8800	50.1270
 0.8810	50.1310
 0.8820	50.1360
 0.8830	50.1360
 0.8840	50.1320
 0.8850	50.1340
 0.8860	50.1390
 0.8870	50.1400
 0.8880	50.1320
 0.8890	50.1350
 0.8900	50.1410
 0.8910	50.1380
 0.8920	50.1250
 0.8930	50.1270
 0.8940	50.1260
 0.8950	50.1190
 0.8960	50.1120
 0.8970	50.1100
 0.8980	50.1090
 0.8990	50.1030
 0.9000	50.0850
 0.9010	50.0870
 0.9020	50.0870
 0.9030	50.0750
 0.9040	50.0710
 0.9050	50.0630
 0.9060	50.0530
 0.9070	50.0470
 0.9080	50.0420
 0.9090	50.0320
 0.9100	50.0240
 0.9110	50.0210
 0.9120	50.0100
 0.9130	49.9950
 0.9140	49.9870
 0.9150	49.9870
 0.9160	49.9730
 0.9170	49.9580
 0.9180	49.9440
 0.9190	49.9320
 0.9200	49.9210
 0.9210	49.9090
 0.9220	49.8920
 0.9230	49.8640
 0.9240	49.8270
 0.9250	49.8040
 0.9260	49.7870
 0.9270	49.7500
 0.9280	49.7100
 0.9290	49.6750
 0.9300	49.6400
 0.9310	49.5890
 0.9320	49.5450
 0.9330	49.4970
 0.9340	49.4460
 0.9350	49.4030
 0.9360	49.3430
 0.9370	49.2810
 0.9380	49.2290
 0.9390	49.1730
 0.9400	49.1110
 0.9410	49.0420
 0.9420	48.9670
 0.9430	48.8900
 0.9440	48.8090
 0.9450	48.7200
 0.9460	48.6230
 0.9470	48.5320
 0.9480	48.4180
 0.9490	48.2890
 0.9500	48.1550
 0.9510	48.0170
 0.9520	47.8810
 0.9530	47.7390
 0.9540	47.5900
 0.9550	47.4440
 0.9560	47.2970
 0.9570	47.1550
 0.9580	47.0260
 0.9590	46.8980
 0.9600	46.7790
 0.9610	46.6830
 0.9620	46.6100
 0.9630	46.5200
 0.9640	46.4370
 0.9650	46.3710
 0.9660	46.3210
 0.9670	46.2720
 0.9680	46.2270
 0.9690	46.1870
 0.9700	46.1540
 0.9710	46.1240
 0.9720	46.0900
 0.9730	46.0500
 0.9740	46.0130
 0.9750	46.0020
 0.9760	45.9950
 0.9770	45.9830
 0.9780	45.9700
 0.9790	45.9680
 0.9800	45.9650
 0.9810	45.9630
 0.9820	45.9650
 0.9830	45.9790
 0.9840	45.9990
 0.9850	46.0210
 0.9860	46.0400
 0.9870	46.0640
 0.9880	46.0840
 0.9890	46.1150
 0.9900	46.1690
 0.9910	46.1880
 0.9920	46.2150
 0.9930	46.2550
 0.9940	46.2920
 0.9950	46.3380
 0.9960	46.3870
 0.9970	46.4380
 0.9980	46.4880
 0.9990	46.5190
 1.0000	46.7780
 1.0010	47.1810
 1.0020	47.4400
 1.0030	47.4940
 1.0040	47.5510
 1.0050	47.6040
 1.0060	47.6540
 1.0070	47.7130
 1.0080	47.7710
 1.0090	47.8300
 1.0100	47.8900
 1.0110	47.9550
 1.0120	48.0150
 1.0130	48.0710
 1.0140	48.1300
 1.0150	48.1920
 1.0160	48.2460
 1.0170	48.3020
 1.0180	48.3610
 1.0190	48.4170
 1.0200	48.4760
 1.0210	48.5350
 1.0220	48.5910
 1.0230	48.6500
 1.0240	48.7100
 1.0250	48.7700
 1.0260	48.8330
 1.0270	48.8890
 1.0280	48.9410
 1.0290	48.9950
 1.0300	49.0470
 1.0310	49.0990
 1.0320	49.1490
 1.0330	49.2020
 1.0340	49.2560
 1.0350	49.3030
 1.0360	49.3490
 1.0370	49.3950
 1.0380	49.4430
 1.0390	49.4920
 1.0400	49.5370
 1.0410	49.5860
 1.0420	49.6310
 1.0430	49.6710
 1.0440	49.7090
 1.0450	49.7440
 1.0460	49.7820
 1.0470	49.8180
 1.0480	49.8530
 1.0490	49.8930
 1.0500	49.9280
 1.0510	49.9550
 1.0520	49.9830
 1.0530	50.0130
 1.0540	50.0420
 1.0550	50.0700
 1.0560	50.1010
 1.0570	50.1260
 1.0580	50.1470
 1.0590	50.1670
 1.0600	50.1860
 1.0610	50.2030
 1.0620	50.2180
 1.0630	50.2320
 1.0640	50.2450
 1.0650	50.2550
 1.0660	50.2640
 1.0670	50.2730
 1.0680	50.2800
 1.0690	50.2860
 1.0700	50.2930
 1.0710	50.3010
 1.0720	50.3050
 1.0730	50.3060
 1.0740	50.3090
 1.0750	50.3130
 1.0760	50.3120
 1.0770	50.3120
 1.0780	50.3080
 1.0790	50.3000
 1.0800	50.2920
 1.0810	50.2820
 1.0820	50.2710
 1.0830	50.2560
 1.0840	50.2430
 1.0850	50.2320
 1.0860	50.2190
 1.0870	50.2030
 1.0880	50.1880
 1.0890	50.1690
 1.0900	50.1460
 1.0910	50.1240
 1.0920	50.1020
 1.0930	50.0790
 1.0940	50.0570
 1.0950	50.0320
 1.0960	50.0060
 1.0970	49.9780
 1.0980	49.9460
 1.0990	49.9170
 1.1000	49.8880
 1.1010	49.8580
 1.1020	49.8300
 1.1030	49.8000
 1.1040	49.7650
 1.1050	49.7320
 1.1060	49.6990
 1.1070	49.6640
 1.1080	49.6280
 1.1090	49.5930
 1.1100	49.5540
 1.1110	49.5130
 1.1120	49.4700
 1.1130	49.4220
 1.1140	49.3750
 1.1150	49.3270
 1.1160	49.2740
 1.1170	49.2200
 1.1180	49.1590
 1.1190	49.0910
 1.1200	49.0190
 1.1210	48.9440
 1.1220	48.8600
 1.1230	48.7640
 1.1240	48.6630
 1.1250	48.5490
 1.1260	48.4250
 1.1270	48.2870
 1.1280	48.1410
 1.1290	47.9770
 1.1300	47.7970
 1.1310	47.6040
 1.1320	47.3980
 1.1330	47.1760
 1.1340	46.9410
 1.1350	46.6890
 1.1360	46.4210
 1.1370	46.1390
 1.1380	45.8450
 1.1390	45.5450
 1.1400	45.2380
 1.1410	44.9270
 1.1420	44.6150
 1.1430	44.3010
 1.1440	43.9910
 1.1450	43.6770
 1.1460	43.3790
 1.1470	43.0840
 1.1480	42.8030
 1.1490	42.5310
 1.1500	42.2760
 1.1510	42.0310
 1.1520	41.8050
 1.1530	41.5960
 1.1540	41.4010
 1.1550	41.2200
 1.1560	41.0550
 1.1570	40.9050
 1.1580	40.7690
 1.1590	40.6470
 1.1600	40.5330
 1.1610	40.4310
 1.1620	40.3380
 1.1630	40.2520
 1.1640	40.1750
 1.1650	40.1020
 1.1660	40.0360
 1.1670	39.9740
 1.1680	39.9180
 1.1690	39.8640
 1.1700	39.8150
 1.1710	39.7640
 1.1720	39.7160
 1.1730	39.6670
 1.1740	39.6190
 1.1750	39.5690
 1.1760	39.5190
 1.1770	39.4690
 1.1780	39.4170
 1.1790	39.3660
 1.1800	39.3170
 1.1810	39.2650
 1.1820	39.2130
 1.1830	39.1620
 1.1840	39.1100
 1.1850	39.0570
 1.1860	39.0060
 1.1870	38.9560
 1.1880	38.9110
 1.1890	38.8670
 1.1900	38.8290
 1.1910	38.7950
 1.1920	38.7640
 1.1930	38.7330
 1.1940	38.7100
 1.1950	38.6910
 1.1960	38.6760
 1.1970	38.6670
 1.1980	38.6620
 1.1990	38.6590
 1.2000	38.6610
 1.2010	38.6680
 1.2020	38.6790
 1.2030	38.6930
 1.2040	38.7110
 1.2050	38.7330
 1.2060	38.7580
 1.2070	38.7880
 1.2080	38.8190
 1.2090	38.8540
 1.2100	38.8930
 1.2110	38.9360
 1.2120	38.9840
 1.2130	39.0330
 1.2140	39.0870
 1.2150	39.1420
 1.2160	39.2000
 1.2170	39.2610
 1.2180	39.3250
 1.2190	39.3910
 1.2200	39.4580
 1.2210	39.5270
 1.2220	39.5940
 1.2230	39.6630
 1.2240	39.7320
 1.2250	39.8000
 1.2260	39.8660
 1.2270	39.9340
 1.2280	39.9990
 1.2290	40.0610
 1.2300	40.1230
 1.2310	40.1830
 1.2320	40.2420
 1.2330	40.2970
 1.2340	40.3520
 1.2350	40.4050
 1.2360	40.4570
 1.2370	40.5070
 1.2380	40.5570
 1.2390	40.6060
 1.2400	40.6520
 1.2410	40.6960
 1.2420	40.7370
 1.2430	40.7760
 1.2440	40.8150
 1.2450	40.8550
 1.2460	40.8930
 1.2470	40.9310
 1.2480	40.9680
 1.2490	41.0030
 1.2500	41.0350
 1.2510	41.0670
 1.2520	41.0990
 1.2530	41.1290
 1.2540	41.1550
 1.2550	41.1770
 1.2560	41.1970
 1.2570	41.2170
 1.2580	41.2370
 1.2590	41.2550
 1.2600	41.2740
 1.2610	41.2890
 1.2620	41.3030
 1.2630	41.3140
 1.2640	41.3220
 1.2650	41.3290
 1.2660	41.3330
 1.2670	41.3340
 1.2680	41.3350
 1.2690	41.3370
 1.2700	41.3350
 1.2710	41.3330
 1.2720	41.3300
 1.2730	41.3230
 1.2740	41.3120
 1.2750	41.2990
 1.2760	41.2830
 1.2770	41.2660
 1.2780	41.2470
 1.2790	41.2240
 1.2800	41.1980
 1.2810	41.1680
 1.2820	41.1390
 1.2830	41.1090
 1.2840	41.0750
 1.2850	41.0390
 1.2860	40.9960
 1.2870	40.9490
 1.2880	40.8960
 1.2890	40.8410
 1.2900	40.7820
 1.2910	40.7220
 1.2920	40.6580
 1.2930	40.5870
 1.2940	40.5110
 1.2950	40.4280
 1.2960	40.3430
 1.2970	40.2560
 1.2980	40.1630
 1.2990	40.0670
 1.3000	39.9670
 1.3010	39.8590
 1.3020	39.7480
 1.3030	39.6320
 1.3040	39.5110
 1.3050	39.3860
 1.3060	39.2560
 1.3070	39.1200
 1.3080	38.9820
 1.3090	38.8400
 1.3100	38.6910
 1.3110	38.5390
 1.3120	38.3810
 1.3130	38.2180
 1.3140	38.0520
 1.3150	37.8830
 1.3160	37.7070
 1.3170	37.5270
 1.3180	37.3440
 1.3190	37.1550
 1.3200	36.9640
 1.3210	36.7670
 1.3220	36.5680
 1.3230	36.3630
 1.3240	36.1540
 1.3250	35.9460
 1.3260	35.7350
 1.3270	35.5210
 1.3280	35.3080
 1.3290	35.0910
 1.3300	34.8730
 1.3310	34.6540
 1.3320	34.4340
 1.3330	34.2160
 1.3340	33.9970
 1.3350	33.7800
 1.3360	33.5650
 1.3370	33.3490
 1.3380	33.1350
 1.3390	32.9220
 1.3400	32.7110
 1.3410	32.5040
 1.3420	32.3020
 1.3430	32.1030
 1.3440	31.9090
 1.3450	31.7170
 1.3460	31.5260
 1.3470	31.3410
 1.3480	31.1580
 1.3490	30.9780
 1.3500	30.8030
 1.3510	30.6290
 1.3520	30.4570
 1.3530	30.2860
 1.3540	30.1160
 1.3550	29.9480
 1.3560	29.7790
 1.3570	29.6090
 1.3580	29.4390
 1.3590	29.2670
 1.3600	29.0920
 1.3610	28.9150
 1.3620	28.7330
 1.3630	28.5460
 1.3640	28.3510
 1.3650	28.1490
 1.3660	27.9400
 1.3670	27.7220
 1.3680	27.4940
 1.3690	27.2560
 1.3700	27.0030
 1.3710	26.7370
 1.3720	26.4580
 1.3730	26.1620
 1.3740	25.8540
 1.3750	25.5300
 1.3760	25.1840
 1.3770	24.8220
 1.3780	24.4350
 1.3790	24.0300
 1.3800	23.6100
 1.3810	23.1680
 1.3820	22.7160
 1.3830	22.2490
 1.3840	21.7720
 1.3850	21.2770
 1.3860	20.7820
 1.3870	20.2730
 1.3880	19.7700
 1.3890	19.2640
 1.3900	18.7580
 1.3910	18.2610
 1.3920	17.7670
 1.3930	17.2780
 1.3940	16.8000
 1.3950	16.3280
 1.3960	15.8690
 1.3970	15.4250
 1.3980	14.9970
 1.3990	14.5910
 1.4000	14.2010
 1.4010	13.8270
 1.4020	13.4740
 1.4030	13.1350
 1.4040	12.8150
 1.4050	12.5140
 1.4060	12.2300
 1.4070	11.9650
 1.4080	11.7170
 1.4090	11.4840
 1.4100	11.2670
 1.4110	11.0620
 1.4120	10.8710
 1.4130	10.6950
 1.4140	10.5300
 1.4150	10.3810
 1.4160	10.2400
 1.4170	10.1110
 1.4180	 9.9910
 1.4190	 9.8780
 1.4200	 9.7730
 1.4210	 9.6740
 1.4220	 9.5840
 1.4230	 9.5000
 1.4240	 9.4260
 1.4250	 9.3540
 1.4260	 9.2890
 1.4270	 9.2290
 1.4280	 9.1750
 1.4290	 9.1230
 1.4300	 9.0770
 1.4310	 9.0360
 1.4320	 8.9990
 1.4330	 8.9640
 1.4340	 8.9340
 1.4350	 8.9050
 1.4360	 8.8810
 1.4370	 8.8590
 1.4380	 8.8410
 1.4390	 8.8240
 1.4400	 8.8110
 1.4410	 8.7990
 1.4420	 8.7900
 1.4430	 8.7820
 1.4440	 8.7770
 1.4450	 8.7730
 1.4460	 8.7700
 1.4470	 8.7690
 1.4480	 8.7690
 1.4490	 8.7710
 1.4500	 8.7740
 1.4510	 8.7780
 1.4520	 8.7830
 1.4530	 8.7890
 1.4540	 8.7960
 1.4550	 8.8050
 1.4560	 8.8170
 1.4570	 8.8270
 1.4580	 8.8410
 1.4590	 8.8570
 1.4600	 8.8730
 1.4610	 8.8950
 1.4620	 8.9170
 1.4630	 8.9430
 1.4640	 8.9710
 1.4650	 9.0000
 1.4660	 9.0330
 1.4670	 9.0680
 1.4680	 9.1070
 1.4690	 9.1500
 1.4700	 9.1960
 1.4710	 9.2420
 1.4720	 9.2890
 1.4730	 9.3390
 1.4740	 9.3920
 1.4750	 9.4480
 1.4760	 9.5050
 1.4770	 9.5620
 1.4780	 9.6240
 1.4790	 9.6870
 1.4800	 9.7510
 1.4810	 9.8170
 1.4820	 9.8850
 1.4830	 9.9520
 1.4840	10.0200
 1.4850	10.0910
 1.4860	10.1620
 1.4870	10.2360
 1.4880	10.3090
 1.4890	10.3830
 1.4900	10.4590
 1.4910	10.5340
 1.4920	10.6110
 1.4930	10.6880
 1.4940	10.7670
 1.4950	10.8450
 1.4960	10.9250
 1.4970	11.0030
 1.4980	11.0840
 1.4990	11.1630
 1.5000	11.2450
 1.5010	11.3280
 1.5020	11.4100
 1.5030	11.4930
 1.5040	11.5760
 1.5050	11.6580
 1.5060	11.7400
 1.5070	11.8240
 1.5080	11.9070
 1.5090	11.9910
 1.5100	12.0740
 1.5110	12.1570
 1.5120	12.2410
 1.5130	12.3230
 1.5140	12.4050
 1.5150	12.4880
 1.5160	12.5700
 1.5170	12.6530
 1.5180	12.7360
 1.5190	12.8170
 1.5200	12.8980
 1.5210	12.9790
 1.5220	13.0610
 1.5230	13.1430
 1.5240	13.2220
 1.5250	13.3020
 1.5260	13.3800
 1.5270	13.4580
 1.5280	13.5370
 1.5290	13.6150
 1.5300	13.6940
 1.5310	13.7730
 1.5320	13.8510
 1.5330	13.9280
 1.5340	14.0050
 1.5350	14.0810
 1.5360	14.1580
 1.5370	14.2330
 1.5380	14.3080
 1.5390	14.3830
 1.5400	14.4560
 1.5410	14.5300
 1.5420	14.6050
 1.5430	14.6780
 1.5440	14.7520
 1.5450	14.8250
 1.5460	14.8960
 1.5470	14.9680
 1.5480	15.0390
 1.5490	15.1100
 1.5500	15.1820
 1.5510	15.2530
 1.5520	15.3240
 1.5530	15.3920
 1.5540	15.4610
 1.5550	15.5300
 1.5560	15.5980
 1.5570	15.6670
 1.5580	15.7350
 1.5590	15.8020
 1.5600	15.8700
 1.5610	15.9360
 1.5620	16.0030
 1.5630	16.0690
 1.5640	16.1330
 1.5650	16.1970
 1.5660	16.2620
 1.5670	16.3250
 1.5680	16.3890
 1.5690	16.4530
 1.5700	16.5160
 1.5710	16.5790
 1.5720	16.6420
 1.5730	16.7050
 1.5740	16.7660
 1.5750	16.8290
 1.5760	16.8910
 1.5770	16.9520
 1.5780	17.0130
 1.5790	17.0740
 1.5800	17.1340
 1.5810	17.1950
 1.5820	17.2550
 1.5830	17.3150
 1.5840	17.3750
 1.5850	17.4340
 1.5860	17.4940
 1.5870	17.5540
 1.5880	17.6140
 1.5890	17.6750
 1.5900	17.7350
 1.5910	17.7960
 1.5920	17.8570
 1.5930	17.9170
 1.5940	17.9760
 1.5950	18.0350
 1.5960	18.0940
 1.5970	18.1540
 1.5980	18.2130
 1.5990	18.2720
 1.6000	18.3310
 1.6010	18.3900
 1.6020	18.4490
 1.6030	18.5080
 1.6040	18.5660
 1.6050	18.6230
 1.6060	18.6790
 1.6070	18.7360
 1.6080	18.7930
 1.6090	18.8480
 1.6100	18.9030
 1.6110	18.9580
 1.6120	19.0120
 1.6130	19.0670
 1.6140	19.1200
 1.6150	19.1720
 1.6160	19.2220
 1.6170	19.2700
 1.6180	19.3180
 1.6190	19.3660
 1.6200	19.4130
 1.6210	19.4590
 1.6220	19.5040
 1.6230	19.5470
 1.6240	19.5890
 1.6250	19.6300
 1.6260	19.6700
 1.6270	19.7070
 1.6280	19.7420
 1.6290	19.7770
 1.6300	19.8100
 1.6310	19.8430
 1.6320	19.8760
 1.6330	19.9080
 1.6340	19.9380
 1.6350	19.9690
 1.6360	20.0000
 1.6370	20.0310
 1.6380	20.0620
 1.6390	20.0940
 1.6400	20.1280
 1.6410	20.1600
 1.6420	20.1940
 1.6430	20.2240
 1.6440	20.2510
 1.6450	20.2790
 1.6460	20.3050
 1.6470	20.3300
 1.6480	20.3480
 1.6490	20.3640
 1.6500	20.3770
 1.6510	20.3880
 1.6520	20.3980
 1.6530	20.4060
 1.6540	20.4120
 1.6550	20.4160
 1.6560	20.4200
 1.6570	20.4210
 1.6580	20.4200
 1.6590	20.4170
 1.6600	20.4140
 1.6610	20.4120
 1.6620	20.4100
 1.6630	20.4090
 1.6640	20.4070
 1.6650	20.4040
 1.6660	20.4010
 1.6670	20.3970
 1.6680	20.3920
 1.6690	20.3850
 1.6700	20.3770
 1.6710	20.3690
 1.6720	20.3590
 1.6730	20.3490
 1.6740	20.3370
 1.6750	20.3220
 1.6760	20.3060
 1.6770	20.2870
 1.6780	20.2660
 1.6790	20.2450
 1.6800	20.2210
 1.6810	20.1970
 1.6820	20.1700
 1.6830	20.1390
 1.6840	20.1050
 1.6850	20.0690
 1.6860	20.0320
 1.6870	19.9930
 1.6880	19.9520
 1.6890	19.9090
 1.6900	19.8640
 1.6910	19.8150
 1.6920	19.7680
 1.6930	19.7200
 1.6940	19.6730
 1.6950	19.6260
 1.6960	19.5790
 1.6970	19.5320
 1.6980	19.4850
 1.6990	19.4380
 1.7000	19.3910
 1.7010	19.3450
 1.7020	19.3000
 1.7030	19.2560
 1.7040	19.2120
 1.7050	19.1670
 1.7060	19.1230
 1.7070	19.0790
 1.7080	19.0340
 1.7090	18.9890
 1.7100	18.9450
 1.7110	18.9000
 1.7120	18.8580
 1.7130	18.8150
 1.7140	18.7700
 1.7150	18.7260
 1.7160	18.6800
 1.7170	18.6330
 1.7180	18.5890
 1.7190	18.5460
 1.7200	18.5030
 1.7210	18.4580
 1.7220	18.4150
 1.7230	18.3720
 1.7240	18.3300
 1.7250	18.2890
 1.7260	18.2500
 1.7270	18.2110
 1.7280	18.1760
 1.7290	18.1420
 1.7300	18.1060
 1.7310	18.0730
 1.7320	18.0400
 1.7330	18.0070
 1.7340	17.9740
 1.7350	17.9410
 1.7360	17.9090
 1.7370	17.8740
 1.7380	17.8390
 1.7390	17.7990
 1.7400	17.7550
 1.7410	17.7100
 1.7420	17.6630
 1.7430	17.6150
 1.7440	17.5660
 1.7450	17.5140
 1.7460	17.4610
 1.7470	17.4080
 1.7480	17.3530
 1.7490	17.2990
 1.7500	17.2450
 1.7510	17.1950
 1.7520	17.1450
 1.7530	17.0960
 1.7540	17.0490
 1.7550	17.0030
 1.7560	16.9580
 1.7570	16.9170
 1.7580	16.8780
 1.7590	16.8360
 1.7600	16.7960
 1.7610	16.7550
 1.7620	16.7170
 1.7630	16.6820
 1.7640	16.6490
 1.7650	16.6170
 1.7660	16.5870
 1.7670	16.5580
 1.7680	16.5300
 1.7690	16.5020
 1.7700	16.4760
 1.7710	16.4500
 1.7720	16.4260
 1.7730	16.4030
 1.7740	16.3820
 1.7750	16.3620
 1.7760	16.3430
 1.7770	16.3240
 1.7780	16.3060
 1.7790	16.2880
 1.7800	16.2740
 1.7810	16.2620
 1.7820	16.2500
 1.7830	16.2420
 1.7840	16.2330
 1.7850	16.2230
 1.7860	16.2170
 1.7870	16.2120
 1.7880	16.2080
 1.7890	16.2080
 1.7900	16.2090
 1.7910	16.2110
 1.7920	16.2140
 1.7930	16.2170
 1.7940	16.2180
 1.7950	16.2220
 1.7960	16.2250
 1.7970	16.2300
 1.7980	16.2370
 1.7990	16.2430
 1.8000	16.2480
 1.8010	16.2560
 1.8020	16.2650
 1.8030	16.2750
 1.8040	16.2900
 1.8050	16.3000
 1.8060	16.3080
 1.8070	16.3170
 1.8080	16.3250
 1.8090	16.3320
 1.8100	16.3410
 1.8110	16.3470
 1.8120	16.3550
 1.8130	16.3630
 1.8140	16.3700
 1.8150	16.3770
 1.8160	16.3810
 1.8170	16.3830
 1.8180	16.3860
 1.8190	16.3880
 1.8200	16.3900
 1.8210	16.3920
 1.8220	16.3940
 1.8230	16.3950
 1.8240	16.3950
 1.8250	16.3950
 1.8260	16.3930
 1.8270	16.3880
 1.8280	16.3840
 1.8290	16.3800
 1.8300	16.3340
 1.8310	16.2580
 1.8320	16.2040
 1.8330	16.1860
 1.8340	16.1650
 1.8350	16.1440
 1.8360	16.1190
 1.8370	16.0900
 1.8380	16.0540
 1.8390	16.0140
 1.8400	15.9690
 1.8410	15.9220
 1.8420	15.8700
 1.8430	15.8170
 1.8440	15.7580
 1.8450	15.6920
 1.8460	15.6220
 1.8470	15.5450
 1.8480	15.4610
 1.8490	15.3700
 1.8500	15.2700
 1.8510	15.1620
 1.8520	15.0440
 1.8530	14.9160
 1.8540	14.7820
 1.8550	14.6390
 1.8560	14.4880
 1.8570	14.3310
 1.8580	14.1610
 1.8590	13.9830
 1.8600	13.7950
 1.8610	13.5960
 1.8620	13.3860
 1.8630	13.1690
 1.8640	12.9440
 1.8650	12.7090
 1.8660	12.4670
 1.8670	12.2130
 1.8680	11.9480
 1.8690	11.6730
 1.8700	11.3900
 1.8710	11.0950
 1.8720	10.7980
 1.8730	10.4970
 1.8740	10.1920
 1.8750	 9.8860
 1.8760	 9.5790
 1.8770	 9.2730
 1.8780	 8.9680
 1.8790	 8.6660
 1.8800	 8.3710
 1.8810	 8.0860
 1.8820	 7.8010
 1.8830	 7.5220
 1.8840	 7.2480
 1.8850	 6.9780
 1.8860	 6.7170
 1.8870	 6.4670
 1.8880	 6.2260
 1.8890	 5.9970
 1.8900	 5.7810
 1.8910	 5.5760
 1.8920	 5.3830
 1.8930	 5.2000
 1.8940	 5.0340
 1.8950	 4.8790
 1.8960	 4.7340
 1.8970	 4.6000
 1.8980	 4.4800
 1.8990	 4.3670
 1.9000	 4.2640
 1.9010	 4.1710
 1.9020	 4.0860
 1.9030	 4.0080
 1.9040	 3.9340
 1.9050	 3.8720
 1.9060	 3.8100
 1.9070	 3.7570
 1.9080	 3.7120
 1.9090	 3.6690
 1.9100	 3.6330
 1.9110	 3.5990
 1.9120	 3.5660
 1.9130	 3.5370
 1.9140	 3.5130
 1.9150	 3.4920
 1.9160	 3.4700
 1.9170	 3.4500
 1.9180	 3.4360
 1.9190	 3.4220
 1.9200	 3.4130
 1.9210	 3.4050
 1.9220	 3.3970
 1.9230	 3.3890
 1.9240	 3.3810
 1.9250	 3.3760
 1.9260	 3.3720
 1.9270	 3.3690
 1.9280	 3.3690
 1.9290	 3.3720
 1.9300	 3.3730
 1.9310	 3.3760
 1.9320	 3.3790
 1.9330	 3.3840
 1.9340	 3.3890
 1.9350	 3.3940
 1.9360	 3.4000
 1.9370	 3.4050
 1.9380	 3.4130
 1.9390	 3.4200
 1.9400	 3.4270
 1.9410	 3.4380
 1.9420	 3.4490
 1.9430	 3.4580
 1.9440	 3.4730
 1.9450	 3.4860
 1.9460	 3.5010
 1.9470	 3.5150
 1.9480	 3.5320
 1.9490	 3.5450
 1.9500	 3.5630
 1.9510	 3.5780
 1.9520	 3.5940
 1.9530	 3.6120
 1.9540	 3.6290
 1.9550	 3.6470
 1.9560	 3.6690
 1.9570	 3.6860
 1.9580	 3.7070
 1.9590	 3.7240
 1.9600	 3.7410
 1.9610	 3.7590
 1.9620	 3.7770
 1.9630	 3.7980
 1.9640	 3.8160
 1.9650	 3.8360
 1.9660	 3.8570
 1.9670	 3.8780
 1.9680	 3.9010
 1.9690	 3.9280
 1.9700	 3.9530
 1.9710	 3.9770
 1.9720	 4.0020
 1.9730	 4.0290
 1.9740	 4.0540
 1.9750	 4.0810
 1.9760	 4.1080
 1.9770	 4.1320
 1.9780	 4.1560
 1.9790	 4.1850
 1.9800	 4.2140
 1.9810	 4.2410
 1.9820	 4.2740
 1.9830	 4.3030
 1.9840	 4.3290
 1.9850	 4.3550
 1.9860	 4.3840
 1.9870	 4.4120
 1.9880	 4.4430
 1.9890	 4.4720
 1.9900	 4.5010
 1.9910	 4.5290
 1.9920	 4.5590
 1.9930	 4.5930
 1.9940	 4.6230
 1.9950	 4.6560
 1.9960	 4.6880
 1.9970	 4.7200
 1.9980	 4.7510
 1.9990	 4.7840
 2.0000	 4.8140
 2.0010	 4.8470
 2.0020	 4.8790
 2.0030	 4.9110
 2.0040	 4.9450
 2.0050	 4.9760
 2.0060	 5.0090
 2.0070	 5.0410
 2.0080	 5.0700
 2.0090	 5.1000
 2.0100	 5.1330
 2.0110	 5.1630
 2.0120	 5.1930
 2.0130	 5.2230
 2.0140	 5.2510
 2.0150	 5.2800
 2.0160	 5.3070
 2.0170	 5.3360
 2.0180	 5.3670
 2.0190	 5.3980
 2.0200	 5.4280
 2.0210	 5.4570
 2.0220	 5.4860
 2.0230	 5.5140
 2.0240	 5.5420
 2.0250	 5.5700
 2.0260	 5.5980
 2.0270	 5.6240
 2.0280	 5.6520
 2.0290	 5.6770
 2.0300	 5.7000
 2.0310	 5.7260
 2.0320	 5.7540
 2.0330	 5.7790
 2.0340	 5.8070
 2.0350	 5.8290
 2.0360	 5.8490
 2.0370	 5.8700
 2.0380	 5.8900
 2.0390	 5.9080
 2.0400	 5.9300
 2.0410	 5.9530
 2.0420	 5.9740
 2.0430	 5.9930
 2.0440	 6.0140
 2.0450	 6.0380
 2.0460	 6.0580
 2.0470	 6.0760
 2.0480	 6.0960
 2.0490	 6.1120
 2.0500	 6.1330
 2.0510	 6.1560
 2.0520	 6.1760
 2.0530	 6.1950
 2.0540	 6.2140
 2.0550	 6.2320
 2.0560	 6.2500
 2.0570	 6.2700
 2.0580	 6.2900
 2.0590	 6.3100
 2.0600	 6.3310
 2.0610	 6.3500
 2.0620	 6.3690
 2.0630	 6.3840
 2.0640	 6.3990
 2.0650	 6.4150
 2.0660	 6.4310
 2.0670	 6.4490
 2.0680	 6.4650
 2.0690	 6.4820
 2.0700	 6.4980
 2.0710	 6.5180
 2.0720	 6.5380
 2.0730	 6.5610
 2.0740	 6.5810
 2.0750	 6.6060
 2.0760	 6.6250
 2.0770	 6.6400
 2.0780	 6.6570
 2.0790	 6.6710
 2.0800	 6.6910
 2.0810	 6.7180
 2.0820	 6.7390
 2.0830	 6.7600
 2.0840	 6.7780
 2.0850	 6.7930
 2.0860	 6.8090
 2.0870	 6.8290
 2.0880	 6.8460
 2.0890	 6.8660
 2.0900	 6.8860
 2.0910	 6.9050
 2.0920	 6.9230
 2.0930	 6.9400
 2.0940	 6.9620
 2.0950	 6.9790
 2.0960	 6.9960
 2.0970	 7.0170
 2.0980	 7.0340
 2.0990	 7.0560
 2.1000	 7.0760
 2.1010	 7.0980
 2.1020	 7.1210
 2.1030	 7.1440
 2.1040	 7.1620
 2.1050	 7.1800
 2.1060	 7.2000
 2.1070	 7.2240
 2.1080	 7.2430
 2.1090	 7.2660
 2.1100	 7.2890
 2.1110	 7.3080
 2.1120	 7.3280
 2.1130	 7.3460
 2.1140	 7.3670
 2.1150	 7.3880
 2.1160	 7.4080
 2.1170	 7.4330
 2.1180	 7.4530
 2.1190	 7.4710
 2.1200	 7.4920
 2.1210	 7.5140
 2.1220	 7.5350
 2.1230	 7.5580
 2.1240	 7.5800
 2.1250	 7.6000
 2.1260	 7.6220
 2.1270	 7.6410
 2.1280	 7.6600
 2.1290	 7.6800
 2.1300	 7.6970
 2.1310	 7.7160
 2.1320	 7.7370
 2.1330	 7.7590
 2.1340	 7.7830
 2.1350	 7.8040
 2.1360	 7.8220
 2.1370	 7.8430
 2.1380	 7.8620
 2.1390	 7.8830
 2.1400	 7.9030
 2.1410	 7.9260
 2.1420	 7.9470
 2.1430	 7.9710
 2.1440	 7.9940
 2.1450	 8.0160
 2.1460	 8.0350
 2.1470	 8.0560
 2.1480	 8.0760
 2.1490	 8.0980
 2.1500	 8.1180
 2.1510	 8.1370
 2.1520	 8.1550
 2.1530	 8.1740
 2.1540	 8.1940
 2.1550	 8.2210
 2.1560	 8.2420
 2.1570	 8.2660
 2.1580	 8.2890
 2.1590	 8.3040
 2.1600	 8.3200
 2.1610	 8.3380
 2.1620	 8.3550
 2.1630	 8.3740
 2.1640	 8.3940
 2.1650	 8.4140
 2.1660	 8.4310
 2.1670	 8.4490
 2.1680	 8.4630
 2.1690	 8.4810
 2.1700	 8.5010
 2.1710	 8.5210
 2.1720	 8.5420
 2.1730	 8.5620
 2.1740	 8.5810
 2.1750	 8.5980
 2.1760	 8.6120
 2.1770	 8.6280
 2.1780	 8.6490
 2.1790	 8.6650
 2.1800	 8.6850
 2.1810	 8.7050
 2.1820	 8.7230
 2.1830	 8.7410
 2.1840	 8.7580
 2.1850	 8.7730
 2.1860	 8.7890
 2.1870	 8.8010
 2.1880	 8.8150
 2.1890	 8.8320
 2.1900	 8.8480
 2.1910	 8.8620
 2.1920	 8.8760
 2.1930	 8.8880
 2.1940	 8.9030
 2.1950	 8.9200
 2.1960	 8.9370
 2.1970	 8.9550
 2.1980	 8.9720
 2.1990	 8.9910
 2.2000	 9.0060
 2.2010	 9.0190
 2.2020	 9.0330
 2.2030	 9.0480
 2.2040	 9.0590
 2.2050	 9.0690
 2.2060	 9.0810
 2.2070	 9.0880
 2.2080	 9.0940
 2.2090	 9.1020
 2.2100	 9.1120
 2.2110	 9.1220
 2.2120	 9.1290
 2.2130	 9.1360
 2.2140	 9.1390
 2.2150	 9.1420
 2.2160	 9.1420
 2.2170	 9.1420
 2.2180	 9.1440
 2.2190	 9.1410
 2.2200	 9.1380
 2.2210	 9.1330
 2.2220	 9.1220
 2.2230	 9.1160
 2.2240	 9.1110
 2.2250	 9.1020
 2.2260	 9.0950
 2.2270	 9.0830
 2.2280	 9.0700
 2.2290	 9.0550
 2.2300	 9.0360
 2.2310	 9.0190
 2.2320	 9.0000
 2.2330	 8.9760
 2.2340	 8.9540
 2.2350	 8.9290
 2.2360	 8.9030
 2.2370	 8.8760
 2.2380	 8.8500
 2.2390	 8.8220
 2.2400	 8.7940
 2.2410	 8.7670
 2.2420	 8.7350
 2.2430	 8.7030
 2.2440	 8.6680
 2.2450	 8.6250
 2.2460	 8.5850
 2.2470	 8.5390
 2.2480	 8.5000
 2.2490	 8.4660
 2.2500	 8.4240
 2.2510	 8.3860
 2.2520	 8.3420
 2.2530	 8.2890
 2.2540	 8.2410
 2.2550	 8.1890
 2.2560	 8.1410
 2.2570	 8.0910
 2.2580	 8.0450
 2.2590	 8.0020
 2.2600	 7.9570
 2.2610	 7.9160
 2.2620	 7.8690
 2.2630	 7.8240
 2.2640	 7.7800
 2.2650	 7.7310
 2.2660	 7.6870
 2.2670	 7.6470
 2.2680	 7.6030
 2.2690	 7.5650
 2.2700	 7.5260
 2.2710	 7.4920
 2.2720	 7.4510
 2.2730	 7.4190
 2.2740	 7.3940
 2.2750	 7.3660
 2.2760	 7.3390
 2.2770	 7.3110
 2.2780	 7.2780
 2.2790	 7.2480
 2.2800	 7.2210
 2.2810	 7.1960
 2.2820	 7.1760
 2.2830	 7.1510
 2.2840	 7.1300
 2.2850	 7.1060
 2.2860	 7.0790
 2.2870	 7.0530
 2.2880	 7.0290
 2.2890	 7.0020
 2.2900	 6.9720
 2.2910	 6.9440
 2.2920	 6.9160
 2.2930	 6.8860
 2.2940	 6.8640
 2.2950	 6.8320
 2.2960	 6.7960
 2.2970	 6.7630
 2.2980	 6.7280
 2.2990	 6.6930
 2.3000	 6.6600
 2.3010	 6.6270
 2.3020	 6.6000
 2.3030	 6.5750
 2.3040	 6.5540
 2.3050	 6.5310
 2.3060	 6.5080
 2.3070	 6.4860
 2.3080	 6.4690
 2.3090	 6.4540
 2.3100	 6.4380
 2.3110	 6.4280
 2.3120	 6.4180
 2.3130	 6.4020
 2.3140	 6.3940
 2.3150	 6.3890
 2.3160	 6.3810
 2.3170	 6.3790
 2.3180	 6.3710
 2.3190	 6.3640
 2.3200	 6.3570
 2.3210	 6.3520
 2.3220	 6.3430
 2.3230	 6.3300
 2.3240	 6.3160
 2.3250	 6.3000
 2.3260	 6.2840
 2.3270	 6.2660
 2.3280	 6.2470
 2.3290	 6.2260
 2.3300	 6.2070
 2.3310	 6.1820
 2.3320	 6.1640
 2.3330	 6.1490
 2.3340	 6.1310
 2.3350	 6.1130
 2.3360	 6.0920
 2.3370	 6.0650
 2.3380	 6.0410
 2.3390	 6.0120
 2.3400	 5.9870
 2.3410	 5.9630
 2.3420	 5.9430
 2.3430	 5.9270
 2.3440	 5.9040
 2.3450	 5.8740
 2.3460	 5.8490
 2.3470	 5.8200
 2.3480	 5.8010
 2.3490	 5.7930
 2.3500	 5.7810
 2.3510	 5.7670
 2.3520	 5.7520
 2.3530	 5.7330
 2.3540	 5.7100
 2.3550	 5.6920
 2.3560	 5.6820
 2.3570	 5.6700
 2.3580	 5.6630
 2.3590	 5.6530
 2.3600	 5.6380
 2.3610	 5.6270
 2.3620	 5.6100
 2.3630	 5.5860
 2.3640	 5.5740
 2.3650	 5.5640
 2.3660	 5.5440
 2.3670	 5.5330
 2.3680	 5.5210
 2.3690	 5.4940
 2.3700	 5.4680
 2.3710	 5.4440
 2.3720	 5.4250
 2.3730	 5.4070
 2.3740	 5.4000
 2.3750	 5.3840
 2.3760	 5.3590
 2.3770	 5.3360
 2.3780	 5.3190
 2.3790	 5.3050
 2.3800	 5.2910
 2.3810	 5.2850
 2.3820	 5.2710
 2.3830	 5.2530
 2.3840	 5.2410
 2.3850	 5.2270
 2.3860	 5.2080
 2.3870	 5.1810
 2.3880	 5.1530
 2.3890	 5.1250
 2.3900	 5.1000
 2.3910	 5.0840
 2.3920	 5.0750
 2.3930	 5.0610
 2.3940	 5.0460
 2.3950	 5.0280
 2.3960	 5.0040
 2.3970	 4.9860
 2.3980	 4.9650
 2.3990	 4.9410
 2.4000	 4.9310
 2.4010	 4.9160
 2.4020	 4.9030
 2.4030	 4.8950
 2.4040	 4.8810
 2.4050	 4.8690
 2.4060	 4.8550
 2.4070	 4.8270
 2.4080	 4.7970
 2.4090	 4.7700
 2.4100	 4.7440
 2.4110	 4.7290
 2.4120	 4.7070
 2.4130	 4.6820
 2.4140	 4.6590
 2.4150	 4.6280
 2.4160	 4.6120
 2.4170	 4.5930
 2.4180	 4.5530
 2.4190	 4.5290
 2.4200	 4.5080
 2.4210	 4.4890
 2.4220	 4.4870
 2.4230	 4.4860
 2.4240	 4.4710
 2.4250	 4.4470
 2.4260	 4.4420
 2.4270	 4.4110
 2.4280	 4.3830
 2.4290	 4.3820
 2.4300	 4.3610
 2.4310	 4.3500
 2.4320	 4.3350
 2.4330	 4.2960
 2.4340	 4.2720
 2.4350	 4.2530
 2.4360	 4.2370
 2.4370	 4.2370
 2.4380	 4.2140
 2.4390	 4.1860
 2.4400	 4.1720
 2.4410	 4.1500
 2.4420	 4.1430
 2.4430	 4.1410
 2.4440	 4.1190
 2.4450	 4.0910
 2.4460	 4.0550
 2.4470	 4.0220
 2.4480	 3.9990
 2.4490	 3.9880
 2.4500	 3.9770
 2.4510	 3.9530
 2.4520	 3.9270
 2.4530	 3.8930
 2.4540	 3.8740
 2.4550	 3.8690
 2.4560	 3.8490
 2.4570	 3.8230
 2.4580	 3.7950
 2.4590	 3.7600
 2.4600	 3.7370
 2.4610	 3.7370
 2.4620	 3.7340
 2.4630	 3.7210
 2.4640	 3.7240
 2.4650	 3.7170
 2.4660	 3.6960
 2.4670	 3.6910
 2.4680	 3.6820
 2.4690	 3.6730
 2.4700	 3.6680
 2.4710	 3.6640
 2.4720	 3.6540
 2.4730	 3.6400
 2.4740	 3.6400
 2.4750	 3.6450
 2.4760	 3.6420
 2.4770	 3.6390
 2.4780	 3.6200
 2.4790	 3.5750
 2.4800	 3.5510
 2.4810	 3.5190
 2.4820	 3.5360
 2.4830	 3.5330
 2.4840	 3.5230
 2.4850	 3.5580
 2.4860	 3.5670
 2.4870	 3.5630
 2.4880	 3.5340
 2.4890	 3.4750
 2.4900	 3.4480
 2.4910	 3.4340
 2.4920	 3.4550
 2.4930	 3.4710
 2.4940	 3.4590
 2.4950	 3.4860
 2.4960	 3.4990
 2.4970	 3.5050
 2.4980	 3.4800
 2.4990	 3.4320
 2.5000	 3.4400
