Name: Calocedrus decrruens 3
Type: vegetation
Class: Tree
Genus: Calocedrus
Species: decurrens
Sample No.: VH155
Owner: UCSB
Wavelength Range: VSWIR
Origin: 37.0443; -119.3026; WGS84
Collection Date: 6/8/2013
Description: Samples were collected as part of the HyspIRI Airborne Campaign. 48 individual plants were sampled in three times in 2013 - spring  summer  and fall. The name of the sample includes a 1  2  or 3 which references a different individual of the species. Samples were taken to JPL and processed within 48 hours of collection. The same leaves were processed in the Nicolet and then measured using the ASD.
Measurement: Bidirectional reflectance
First Column: X
Second Column: Y
X Units: Wavelength (micrometers)
Y Units: Reflectance (percentage)
First X Value: 0.35
Last X Value: 2.5
Number of X Values: 2151
Additional Information: vegetation.tree.calocedrus.decurrens.vswir.vh155.ucsb.asd.ancillary.txt

 0.3500	 4.6220
 0.3510	 4.8020
 0.3520	 4.8780
 0.3530	 4.8590
 0.3540	 4.8150
 0.3550	 4.7350
 0.3560	 4.6340
 0.3570	 4.5290
 0.3580	 4.4550
 0.3590	 4.6350
 0.3600	 4.7020
 0.3610	 4.5490
 0.3620	 4.5210
 0.3630	 4.5510
 0.3640	 4.5800
 0.3650	 4.5550
 0.3660	 4.4740
 0.3670	 4.4990
 0.3680	 4.6120
 0.3690	 4.6540
 0.3700	 4.5840
 0.3710	 4.5160
 0.3720	 4.5130
 0.3730	 4.5140
 0.3740	 4.5500
 0.3750	 4.5630
 0.3760	 4.4980
 0.3770	 4.4410
 0.3780	 4.3950
 0.3790	 4.4040
 0.3800	 4.5260
 0.3810	 4.5550
 0.3820	 4.5110
 0.3830	 4.4630
 0.3840	 4.4540
 0.3850	 4.4520
 0.3860	 4.4560
 0.3870	 4.4670
 0.3880	 4.5170
 0.3890	 4.5600
 0.3900	 4.5610
 0.3910	 4.5070
 0.3920	 4.5340
 0.3930	 4.5890
 0.3940	 4.6050
 0.3950	 4.5740
 0.3960	 4.5480
 0.3970	 4.5660
 0.3980	 4.6440
 0.3990	 4.6780
 0.4000	 4.6620
 0.4010	 4.6430
 0.4020	 4.7110
 0.4030	 4.7730
 0.4040	 4.8090
 0.4050	 4.8270
 0.4060	 4.8920
 0.4070	 4.9370
 0.4080	 4.9590
 0.4090	 5.0000
 0.4100	 5.0650
 0.4110	 5.1290
 0.4120	 5.1810
 0.4130	 5.2110
 0.4140	 5.2540
 0.4150	 5.3100
 0.4160	 5.3710
 0.4170	 5.4200
 0.4180	 5.4610
 0.4190	 5.5060
 0.4200	 5.5690
 0.4210	 5.6090
 0.4220	 5.6420
 0.4230	 5.6920
 0.4240	 5.7490
 0.4250	 5.7980
 0.4260	 5.8370
 0.4270	 5.8780
 0.4280	 5.9250
 0.4290	 5.9650
 0.4300	 5.9920
 0.4310	 6.0060
 0.4320	 6.0440
 0.4330	 6.0810
 0.4340	 6.0920
 0.4350	 6.1330
 0.4360	 6.1650
 0.4370	 6.1830
 0.4380	 6.2120
 0.4390	 6.2430
 0.4400	 6.2720
 0.4410	 6.2990
 0.4420	 6.3210
 0.4430	 6.3490
 0.4440	 6.3820
 0.4450	 6.4180
 0.4460	 6.4460
 0.4470	 6.4820
 0.4480	 6.5260
 0.4490	 6.5560
 0.4500	 6.5880
 0.4510	 6.6190
 0.4520	 6.6410
 0.4530	 6.6480
 0.4540	 6.6810
 0.4550	 6.7240
 0.4560	 6.7280
 0.4570	 6.7490
 0.4580	 6.7680
 0.4590	 6.7800
 0.4600	 6.8010
 0.4610	 6.8110
 0.4620	 6.8160
 0.4630	 6.8290
 0.4640	 6.8400
 0.4650	 6.8470
 0.4660	 6.8520
 0.4670	 6.8620
 0.4680	 6.8700
 0.4690	 6.8780
 0.4700	 6.8850
 0.4710	 6.8850
 0.4720	 6.8990
 0.4730	 6.9150
 0.4740	 6.9120
 0.4750	 6.9180
 0.4760	 6.9290
 0.4770	 6.9440
 0.4780	 6.9400
 0.4790	 6.9460
 0.4800	 6.9580
 0.4810	 6.9710
 0.4820	 6.9850
 0.4830	 6.9990
 0.4840	 7.0100
 0.4850	 7.0100
 0.4860	 7.0180
 0.4870	 7.0330
 0.4880	 7.0560
 0.4890	 7.0790
 0.4900	 7.1060
 0.4910	 7.1330
 0.4920	 7.1570
 0.4930	 7.1970
 0.4940	 7.2360
 0.4950	 7.2740
 0.4960	 7.3100
 0.4970	 7.3610
 0.4980	 7.4240
 0.4990	 7.4950
 0.5000	 7.5620
 0.5010	 7.6340
 0.5020	 7.7230
 0.5030	 7.8200
 0.5040	 7.9200
 0.5050	 8.0310
 0.5060	 8.1560
 0.5070	 8.2880
 0.5080	 8.4360
 0.5090	 8.5930
 0.5100	 8.7530
 0.5110	 8.9250
 0.5120	 9.1150
 0.5130	 9.3170
 0.5140	 9.5230
 0.5150	 9.7390
 0.5160	 9.9650
 0.5170	10.2030
 0.5180	10.4390
 0.5190	10.6810
 0.5200	10.9260
 0.5210	11.1670
 0.5220	11.3930
 0.5230	11.6150
 0.5240	11.8420
 0.5250	12.0520
 0.5260	12.2530
 0.5270	12.4410
 0.5280	12.6070
 0.5290	12.7570
 0.5300	12.8980
 0.5310	13.0280
 0.5320	13.1400
 0.5330	13.2400
 0.5340	13.3290
 0.5350	13.4060
 0.5360	13.4790
 0.5370	13.5410
 0.5380	13.5910
 0.5390	13.6330
 0.5400	13.6750
 0.5410	13.7120
 0.5420	13.7430
 0.5430	13.7790
 0.5440	13.8160
 0.5450	13.8520
 0.5460	13.8870
 0.5470	13.9210
 0.5480	13.9540
 0.5490	13.9840
 0.5500	14.0080
 0.5510	14.0270
 0.5520	14.0350
 0.5530	14.0310
 0.5540	14.0160
 0.5550	13.9860
 0.5560	13.9400
 0.5570	13.8830
 0.5580	13.8130
 0.5590	13.7310
 0.5600	13.6390
 0.5610	13.5450
 0.5620	13.4440
 0.5630	13.3350
 0.5640	13.2180
 0.5650	13.0910
 0.5660	12.9580
 0.5670	12.8210
 0.5680	12.6820
 0.5690	12.5390
 0.5700	12.3910
 0.5710	12.2430
 0.5720	12.1010
 0.5730	11.9610
 0.5740	11.8260
 0.5750	11.7020
 0.5760	11.5870
 0.5770	11.4800
 0.5780	11.3780
 0.5790	11.2810
 0.5800	11.1900
 0.5810	11.1060
 0.5820	11.0270
 0.5830	10.9530
 0.5840	10.8840
 0.5850	10.8170
 0.5860	10.7490
 0.5870	10.6880
 0.5880	10.6350
 0.5890	10.5840
 0.5900	10.5370
 0.5910	10.4950
 0.5920	10.4590
 0.5930	10.4270
 0.5940	10.3990
 0.5950	10.3700
 0.5960	10.3410
 0.5970	10.3180
 0.5980	10.2930
 0.5990	10.2670
 0.6000	10.2430
 0.6010	10.2110
 0.6020	10.1800
 0.6030	10.1440
 0.6040	10.0990
 0.6050	10.0480
 0.6060	 9.9920
 0.6070	 9.9340
 0.6080	 9.8710
 0.6090	 9.8040
 0.6100	 9.7330
 0.6110	 9.6610
 0.6120	 9.5880
 0.6130	 9.5180
 0.6140	 9.4490
 0.6150	 9.3870
 0.6160	 9.3210
 0.6170	 9.2550
 0.6180	 9.1990
 0.6190	 9.1490
 0.6200	 9.1030
 0.6210	 9.0620
 0.6220	 9.0270
 0.6230	 8.9960
 0.6240	 8.9730
 0.6250	 8.9540
 0.6260	 8.9370
 0.6270	 8.9250
 0.6280	 8.9170
 0.6290	 8.9090
 0.6300	 8.8960
 0.6310	 8.8850
 0.6320	 8.8750
 0.6330	 8.8620
 0.6340	 8.8370
 0.6350	 8.8030
 0.6360	 8.7580
 0.6370	 8.7110
 0.6380	 8.6530
 0.6390	 8.5920
 0.6400	 8.5250
 0.6410	 8.4500
 0.6420	 8.3720
 0.6430	 8.2880
 0.6440	 8.2120
 0.6450	 8.1330
 0.6460	 8.0580
 0.6470	 7.9890
 0.6480	 7.9190
 0.6490	 7.8600
 0.6500	 7.8090
 0.6510	 7.7700
 0.6520	 7.7340
 0.6530	 7.6990
 0.6540	 7.6630
 0.6550	 7.6280
 0.6560	 7.5870
 0.6570	 7.5420
 0.6580	 7.4930
 0.6590	 7.4350
 0.6600	 7.3760
 0.6610	 7.3150
 0.6620	 7.2560
 0.6630	 7.2000
 0.6640	 7.1480
 0.6650	 7.1030
 0.6660	 7.0630
 0.6670	 7.0260
 0.6680	 6.9990
 0.6690	 6.9840
 0.6700	 6.9720
 0.6710	 6.9650
 0.6720	 6.9660
 0.6730	 6.9780
 0.6740	 6.9960
 0.6750	 7.0180
 0.6760	 7.0400
 0.6770	 7.0690
 0.6780	 7.1090
 0.6790	 7.1530
 0.6800	 7.2090
 0.6810	 7.2770
 0.6820	 7.3500
 0.6830	 7.4310
 0.6840	 7.5290
 0.6850	 7.6440
 0.6860	 7.7800
 0.6870	 7.9410
 0.6880	 8.1330
 0.6890	 8.3670
 0.6900	 8.6490
 0.6910	 8.9860
 0.6920	 9.3780
 0.6930	 9.8360
 0.6940	10.3610
 0.6950	10.9500
 0.6960	11.6000
 0.6970	12.3010
 0.6980	13.0480
 0.6990	13.8460
 0.7000	14.6870
 0.7010	15.5600
 0.7020	16.4550
 0.7030	17.3750
 0.7040	18.3150
 0.7050	19.2650
 0.7060	20.2260
 0.7070	21.2010
 0.7080	22.1860
 0.7090	23.1820
 0.7100	24.1910
 0.7110	25.2150
 0.7120	26.2490
 0.7130	27.2880
 0.7140	28.3410
 0.7150	29.4080
 0.7160	30.4820
 0.7170	31.5630
 0.7180	32.6490
 0.7190	33.7400
 0.7200	34.8310
 0.7210	35.9190
 0.7220	37.0040
 0.7230	38.0830
 0.7240	39.1480
 0.7250	40.1950
 0.7260	41.2250
 0.7270	42.2380
 0.7280	43.2230
 0.7290	44.1800
 0.7300	45.1100
 0.7310	46.0150
 0.7320	46.8840
 0.7330	47.7210
 0.7340	48.5280
 0.7350	49.3020
 0.7360	50.0420
 0.7370	50.7450
 0.7380	51.4120
 0.7390	52.0490
 0.7400	52.6460
 0.7410	53.2090
 0.7420	53.7440
 0.7430	54.2400
 0.7440	54.7020
 0.7450	55.1330
 0.7460	55.5360
 0.7470	55.9040
 0.7480	56.2390
 0.7490	56.5470
 0.7500	56.8400
 0.7510	57.1000
 0.7520	57.3340
 0.7530	57.5540
 0.7540	57.7550
 0.7550	57.9390
 0.7560	58.1040
 0.7570	58.2480
 0.7580	58.3890
 0.7590	58.5180
 0.7600	58.6290
 0.7610	58.7320
 0.7620	58.8270
 0.7630	58.9130
 0.7640	58.9910
 0.7650	59.0570
 0.7660	59.1200
 0.7670	59.1770
 0.7680	59.2250
 0.7690	59.2730
 0.7700	59.3170
 0.7710	59.3570
 0.7720	59.4030
 0.7730	59.4370
 0.7740	59.4660
 0.7750	59.5010
 0.7760	59.5310
 0.7770	59.5640
 0.7780	59.5980
 0.7790	59.6290
 0.7800	59.6600
 0.7810	59.6870
 0.7820	59.7110
 0.7830	59.7410
 0.7840	59.7690
 0.7850	59.7960
 0.7860	59.8260
 0.7870	59.8520
 0.7880	59.8790
 0.7890	59.9010
 0.7900	59.9190
 0.7910	59.9440
 0.7920	59.9730
 0.7930	60.0020
 0.7940	60.0250
 0.7950	60.0460
 0.7960	60.0680
 0.7970	60.0900
 0.7980	60.1050
 0.7990	60.1260
 0.8000	60.1470
 0.8010	60.1640
 0.8020	60.1850
 0.8030	60.2040
 0.8040	60.2200
 0.8050	60.2350
 0.8060	60.2530
 0.8070	60.2700
 0.8080	60.2840
 0.8090	60.2940
 0.8100	60.3070
 0.8110	60.3240
 0.8120	60.3390
 0.8130	60.3500
 0.8140	60.3650
 0.8150	60.3830
 0.8160	60.3960
 0.8170	60.4100
 0.8180	60.4230
 0.8190	60.4380
 0.8200	60.4540
 0.8210	60.4670
 0.8220	60.4780
 0.8230	60.4890
 0.8240	60.5040
 0.8250	60.5210
 0.8260	60.5310
 0.8270	60.5350
 0.8280	60.5460
 0.8290	60.5580
 0.8300	60.5680
 0.8310	60.5750
 0.8320	60.5880
 0.8330	60.5970
 0.8340	60.6060
 0.8350	60.6210
 0.8360	60.6350
 0.8370	60.6450
 0.8380	60.6550
 0.8390	60.6740
 0.8400	60.7000
 0.8410	60.7220
 0.8420	60.7380
 0.8430	60.7520
 0.8440	60.7700
 0.8450	60.7870
 0.8460	60.8000
 0.8470	60.8240
 0.8480	60.8470
 0.8490	60.8670
 0.8500	60.8850
 0.8510	60.9080
 0.8520	60.9300
 0.8530	60.9490
 0.8540	60.9650
 0.8550	60.9810
 0.8560	60.9960
 0.8570	61.0130
 0.8580	61.0380
 0.8590	61.0440
 0.8600	61.0550
 0.8610	61.0820
 0.8620	61.0970
 0.8630	61.1080
 0.8640	61.1220
 0.8650	61.1390
 0.8660	61.1530
 0.8670	61.1640
 0.8680	61.1760
 0.8690	61.1920
 0.8700	61.2040
 0.8710	61.2140
 0.8720	61.2260
 0.8730	61.2390
 0.8740	61.2550
 0.8750	61.2640
 0.8760	61.2690
 0.8770	61.2830
 0.8780	61.2980
 0.8790	61.3080
 0.8800	61.3140
 0.8810	61.3290
 0.8820	61.3370
 0.8830	61.3410
 0.8840	61.3470
 0.8850	61.3460
 0.8860	61.3490
 0.8870	61.3510
 0.8880	61.3460
 0.8890	61.3500
 0.8900	61.3600
 0.8910	61.3650
 0.8920	61.3610
 0.8930	61.3590
 0.8940	61.3580
 0.8950	61.3570
 0.8960	61.3580
 0.8970	61.3530
 0.8980	61.3540
 0.8990	61.3600
 0.9000	61.3570
 0.9010	61.3530
 0.9020	61.3470
 0.9030	61.3430
 0.9040	61.3470
 0.9050	61.3490
 0.9060	61.3480
 0.9070	61.3420
 0.9080	61.3360
 0.9090	61.3270
 0.9100	61.3180
 0.9110	61.3110
 0.9120	61.3100
 0.9130	61.3050
 0.9140	61.2990
 0.9150	61.2970
 0.9160	61.2900
 0.9170	61.2800
 0.9180	61.2670
 0.9190	61.2560
 0.9200	61.2470
 0.9210	61.2300
 0.9220	61.2160
 0.9230	61.2200
 0.9240	61.2010
 0.9250	61.1850
 0.9260	61.1710
 0.9270	61.1390
 0.9280	61.1160
 0.9290	61.0940
 0.9300	61.0720
 0.9310	61.0510
 0.9320	61.0240
 0.9330	60.9930
 0.9340	60.9590
 0.9350	60.9200
 0.9360	60.8850
 0.9370	60.8450
 0.9380	60.7990
 0.9390	60.7570
 0.9400	60.7130
 0.9410	60.6560
 0.9420	60.5900
 0.9430	60.5390
 0.9440	60.4830
 0.9450	60.4120
 0.9460	60.3240
 0.9470	60.2360
 0.9480	60.1400
 0.9490	60.0420
 0.9500	59.9410
 0.9510	59.8080
 0.9520	59.6810
 0.9530	59.5530
 0.9540	59.4120
 0.9550	59.2780
 0.9560	59.1540
 0.9570	59.0350
 0.9580	58.9130
 0.9590	58.7930
 0.9600	58.6930
 0.9610	58.6060
 0.9620	58.5210
 0.9630	58.4320
 0.9640	58.3530
 0.9650	58.2930
 0.9660	58.2490
 0.9670	58.1950
 0.9680	58.1530
 0.9690	58.1170
 0.9700	58.0760
 0.9710	58.0430
 0.9720	58.0210
 0.9730	58.0000
 0.9740	57.9700
 0.9750	57.9350
 0.9760	57.9220
 0.9770	57.9260
 0.9780	57.9290
 0.9790	57.9230
 0.9800	57.9120
 0.9810	57.9050
 0.9820	57.9100
 0.9830	57.9270
 0.9840	57.9500
 0.9850	57.9700
 0.9860	57.9800
 0.9870	57.9990
 0.9880	58.0200
 0.9890	58.0530
 0.9900	58.1080
 0.9910	58.1610
 0.9920	58.2000
 0.9930	58.2310
 0.9940	58.2730
 0.9950	58.3500
 0.9960	58.3960
 0.9970	58.4270
 0.9980	58.4890
 0.9990	58.5590
 1.0000	58.6130
 1.0010	58.6670
 1.0020	58.7460
 1.0030	58.8040
 1.0040	58.8660
 1.0050	58.9290
 1.0060	58.9880
 1.0070	59.0470
 1.0080	59.1100
 1.0090	59.1700
 1.0100	59.2340
 1.0110	59.3080
 1.0120	59.3760
 1.0130	59.4410
 1.0140	59.5060
 1.0150	59.5690
 1.0160	59.6340
 1.0170	59.6950
 1.0180	59.7540
 1.0190	59.8170
 1.0200	59.8790
 1.0210	59.9440
 1.0220	60.0120
 1.0230	60.0770
 1.0240	60.1420
 1.0250	60.2040
 1.0260	60.2630
 1.0270	60.3230
 1.0280	60.3810
 1.0290	60.4400
 1.0300	60.4990
 1.0310	60.5590
 1.0320	60.6210
 1.0330	60.6790
 1.0340	60.7350
 1.0350	60.7890
 1.0360	60.8400
 1.0370	60.8930
 1.0380	60.9470
 1.0390	61.0070
 1.0400	61.0590
 1.0410	61.1050
 1.0420	61.1540
 1.0430	61.2010
 1.0440	61.2490
 1.0450	61.3030
 1.0460	61.3500
 1.0470	61.3920
 1.0480	61.4350
 1.0490	61.4740
 1.0500	61.5160
 1.0510	61.5600
 1.0520	61.6020
 1.0530	61.6460
 1.0540	61.6940
 1.0550	61.7350
 1.0560	61.7770
 1.0570	61.8120
 1.0580	61.8410
 1.0590	61.8730
 1.0600	61.9030
 1.0610	61.9340
 1.0620	61.9690
 1.0630	61.9970
 1.0640	62.0200
 1.0650	62.0440
 1.0660	62.0610
 1.0670	62.0830
 1.0680	62.1060
 1.0690	62.1340
 1.0700	62.1530
 1.0710	62.1740
 1.0720	62.1880
 1.0730	62.1930
 1.0740	62.2050
 1.0750	62.2190
 1.0760	62.2290
 1.0770	62.2380
 1.0780	62.2480
 1.0790	62.2560
 1.0800	62.2650
 1.0810	62.2800
 1.0820	62.2870
 1.0830	62.2920
 1.0840	62.2930
 1.0850	62.2890
 1.0860	62.2840
 1.0870	62.2790
 1.0880	62.2730
 1.0890	62.2650
 1.0900	62.2540
 1.0910	62.2460
 1.0920	62.2360
 1.0930	62.2260
 1.0940	62.2200
 1.0950	62.2070
 1.0960	62.1890
 1.0970	62.1720
 1.0980	62.1520
 1.0990	62.1320
 1.1000	62.1100
 1.1010	62.0880
 1.1020	62.0670
 1.1030	62.0410
 1.1040	62.0150
 1.1050	61.9890
 1.1060	61.9620
 1.1070	61.9320
 1.1080	61.9020
 1.1090	61.8710
 1.1100	61.8370
 1.1110	61.8030
 1.1120	61.7660
 1.1130	61.7290
 1.1140	61.6870
 1.1150	61.6440
 1.1160	61.5940
 1.1170	61.5410
 1.1180	61.4800
 1.1190	61.4120
 1.1200	61.3430
 1.1210	61.2650
 1.1220	61.1770
 1.1230	61.0840
 1.1240	60.9780
 1.1250	60.8620
 1.1260	60.7400
 1.1270	60.6000
 1.1280	60.4520
 1.1290	60.2840
 1.1300	60.1010
 1.1310	59.9010
 1.1320	59.6830
 1.1330	59.4550
 1.1340	59.2130
 1.1350	58.9560
 1.1360	58.6850
 1.1370	58.4010
 1.1380	58.1030
 1.1390	57.7960
 1.1400	57.4840
 1.1410	57.1690
 1.1420	56.8520
 1.1430	56.5330
 1.1440	56.2170
 1.1450	55.8990
 1.1460	55.5900
 1.1470	55.2800
 1.1480	54.9860
 1.1490	54.6960
 1.1500	54.4250
 1.1510	54.1670
 1.1520	53.9220
 1.1530	53.6890
 1.1540	53.4720
 1.1550	53.2690
 1.1560	53.0800
 1.1570	52.9050
 1.1580	52.7460
 1.1590	52.5970
 1.1600	52.4580
 1.1610	52.3300
 1.1620	52.2100
 1.1630	52.1010
 1.1640	52.0010
 1.1650	51.9060
 1.1660	51.8230
 1.1670	51.7420
 1.1680	51.6680
 1.1690	51.5940
 1.1700	51.5240
 1.1710	51.4560
 1.1720	51.3920
 1.1730	51.3270
 1.1740	51.2650
 1.1750	51.2040
 1.1760	51.1370
 1.1770	51.0690
 1.1780	51.0020
 1.1790	50.9310
 1.1800	50.8640
 1.1810	50.7980
 1.1820	50.7280
 1.1830	50.6580
 1.1840	50.5890
 1.1850	50.5190
 1.1860	50.4530
 1.1870	50.3910
 1.1880	50.3300
 1.1890	50.2710
 1.1900	50.2130
 1.1910	50.1560
 1.1920	50.1040
 1.1930	50.0540
 1.1940	50.0090
 1.1950	49.9670
 1.1960	49.9280
 1.1970	49.8980
 1.1980	49.8730
 1.1990	49.8530
 1.2000	49.8410
 1.2010	49.8330
 1.2020	49.8310
 1.2030	49.8410
 1.2040	49.8610
 1.2050	49.8900
 1.2060	49.9280
 1.2070	49.9710
 1.2080	50.0190
 1.2090	50.0730
 1.2100	50.1320
 1.2110	50.2000
 1.2120	50.2760
 1.2130	50.3560
 1.2140	50.4420
 1.2150	50.5310
 1.2160	50.6260
 1.2170	50.7230
 1.2180	50.8250
 1.2190	50.9330
 1.2200	51.0420
 1.2210	51.1540
 1.2220	51.2670
 1.2230	51.3760
 1.2240	51.4850
 1.2250	51.5920
 1.2260	51.6960
 1.2270	51.7980
 1.2280	51.8990
 1.2290	52.0000
 1.2300	52.0970
 1.2310	52.1900
 1.2320	52.2810
 1.2330	52.3680
 1.2340	52.4520
 1.2350	52.5360
 1.2360	52.6160
 1.2370	52.6920
 1.2380	52.7650
 1.2390	52.8370
 1.2400	52.9080
 1.2410	52.9780
 1.2420	53.0440
 1.2430	53.1090
 1.2440	53.1710
 1.2450	53.2300
 1.2460	53.2870
 1.2470	53.3420
 1.2480	53.3940
 1.2490	53.4430
 1.2500	53.4930
 1.2510	53.5410
 1.2520	53.5890
 1.2530	53.6330
 1.2540	53.6730
 1.2550	53.7100
 1.2560	53.7440
 1.2570	53.7790
 1.2580	53.8110
 1.2590	53.8420
 1.2600	53.8730
 1.2610	53.9000
 1.2620	53.9250
 1.2630	53.9470
 1.2640	53.9690
 1.2650	53.9880
 1.2660	54.0040
 1.2670	54.0200
 1.2680	54.0330
 1.2690	54.0410
 1.2700	54.0460
 1.2710	54.0510
 1.2720	54.0550
 1.2730	54.0570
 1.2740	54.0600
 1.2750	54.0600
 1.2760	54.0560
 1.2770	54.0490
 1.2780	54.0400
 1.2790	54.0260
 1.2800	54.0090
 1.2810	53.9910
 1.2820	53.9710
 1.2830	53.9480
 1.2840	53.9230
 1.2850	53.8950
 1.2860	53.8650
 1.2870	53.8290
 1.2880	53.7890
 1.2890	53.7460
 1.2900	53.6980
 1.2910	53.6470
 1.2920	53.5930
 1.2930	53.5350
 1.2940	53.4740
 1.2950	53.4040
 1.2960	53.3290
 1.2970	53.2520
 1.2980	53.1690
 1.2990	53.0840
 1.3000	52.9960
 1.3010	52.9000
 1.3020	52.7990
 1.3030	52.6940
 1.3040	52.5810
 1.3050	52.4660
 1.3060	52.3450
 1.3070	52.2160
 1.3080	52.0850
 1.3090	51.9480
 1.3100	51.8060
 1.3110	51.6590
 1.3120	51.5020
 1.3130	51.3410
 1.3140	51.1760
 1.3150	51.0050
 1.3160	50.8310
 1.3170	50.6540
 1.3180	50.4690
 1.3190	50.2750
 1.3200	50.0790
 1.3210	49.8760
 1.3220	49.6700
 1.3230	49.4620
 1.3240	49.2460
 1.3250	49.0280
 1.3260	48.8050
 1.3270	48.5790
 1.3280	48.3530
 1.3290	48.1240
 1.3300	47.8950
 1.3310	47.6650
 1.3320	47.4320
 1.3330	47.1990
 1.3340	46.9620
 1.3350	46.7250
 1.3360	46.4900
 1.3370	46.2550
 1.3380	46.0240
 1.3390	45.7940
 1.3400	45.5640
 1.3410	45.3430
 1.3420	45.1220
 1.3430	44.9040
 1.3440	44.6900
 1.3450	44.4780
 1.3460	44.2640
 1.3470	44.0580
 1.3480	43.8580
 1.3490	43.6600
 1.3500	43.4670
 1.3510	43.2760
 1.3520	43.0860
 1.3530	42.8970
 1.3540	42.7090
 1.3550	42.5220
 1.3560	42.3340
 1.3570	42.1460
 1.3580	41.9600
 1.3590	41.7700
 1.3600	41.5760
 1.3610	41.3790
 1.3620	41.1740
 1.3630	40.9640
 1.3640	40.7510
 1.3650	40.5300
 1.3660	40.3040
 1.3670	40.0690
 1.3680	39.8220
 1.3690	39.5660
 1.3700	39.2930
 1.3710	39.0090
 1.3720	38.7110
 1.3730	38.3940
 1.3740	38.0640
 1.3750	37.7130
 1.3760	37.3400
 1.3770	36.9470
 1.3780	36.5290
 1.3790	36.0890
 1.3800	35.6290
 1.3810	35.1440
 1.3820	34.6440
 1.3830	34.1260
 1.3840	33.5930
 1.3850	33.0410
 1.3860	32.4800
 1.3870	31.8980
 1.3880	31.3190
 1.3890	30.7310
 1.3900	30.1380
 1.3910	29.5500
 1.3920	28.9600
 1.3930	28.3690
 1.3940	27.7850
 1.3950	27.2020
 1.3960	26.6300
 1.3970	26.0700
 1.3980	25.5230
 1.3990	24.9980
 1.4000	24.4870
 1.4010	23.9890
 1.4020	23.5120
 1.4030	23.0500
 1.4040	22.6060
 1.4050	22.1830
 1.4060	21.7780
 1.4070	21.3980
 1.4080	21.0370
 1.4090	20.6920
 1.4100	20.3680
 1.4110	20.0600
 1.4120	19.7690
 1.4130	19.4980
 1.4140	19.2420
 1.4150	19.0060
 1.4160	18.7840
 1.4170	18.5740
 1.4180	18.3790
 1.4190	18.1950
 1.4200	18.0230
 1.4210	17.8640
 1.4220	17.7150
 1.4230	17.5770
 1.4240	17.4490
 1.4250	17.3280
 1.4260	17.2170
 1.4270	17.1140
 1.4280	17.0200
 1.4290	16.9320
 1.4300	16.8530
 1.4310	16.7790
 1.4320	16.7120
 1.4330	16.6510
 1.4340	16.5960
 1.4350	16.5450
 1.4360	16.5010
 1.4370	16.4620
 1.4380	16.4270
 1.4390	16.3970
 1.4400	16.3720
 1.4410	16.3500
 1.4420	16.3320
 1.4430	16.3170
 1.4440	16.3060
 1.4450	16.2970
 1.4460	16.2900
 1.4470	16.2880
 1.4480	16.2870
 1.4490	16.2890
 1.4500	16.2930
 1.4510	16.2980
 1.4520	16.3050
 1.4530	16.3130
 1.4540	16.3250
 1.4550	16.3390
 1.4560	16.3560
 1.4570	16.3750
 1.4580	16.3970
 1.4590	16.4220
 1.4600	16.4490
 1.4610	16.4790
 1.4620	16.5130
 1.4630	16.5520
 1.4640	16.5960
 1.4650	16.6430
 1.4660	16.6950
 1.4670	16.7500
 1.4680	16.8090
 1.4690	16.8750
 1.4700	16.9430
 1.4710	17.0140
 1.4720	17.0890
 1.4730	17.1650
 1.4740	17.2460
 1.4750	17.3300
 1.4760	17.4180
 1.4770	17.5070
 1.4780	17.5970
 1.4790	17.6920
 1.4800	17.7880
 1.4810	17.8860
 1.4820	17.9860
 1.4830	18.0880
 1.4840	18.1910
 1.4850	18.2960
 1.4860	18.4020
 1.4870	18.5100
 1.4880	18.6170
 1.4890	18.7250
 1.4900	18.8340
 1.4910	18.9440
 1.4920	19.0550
 1.4930	19.1690
 1.4940	19.2820
 1.4950	19.3960
 1.4960	19.5100
 1.4970	19.6220
 1.4980	19.7350
 1.4990	19.8490
 1.5000	19.9630
 1.5010	20.0780
 1.5020	20.1930
 1.5030	20.3090
 1.5040	20.4230
 1.5050	20.5340
 1.5060	20.6470
 1.5070	20.7590
 1.5080	20.8720
 1.5090	20.9850
 1.5100	21.0980
 1.5110	21.2100
 1.5120	21.3230
 1.5130	21.4340
 1.5140	21.5450
 1.5150	21.6570
 1.5160	21.7660
 1.5170	21.8750
 1.5180	21.9820
 1.5190	22.0890
 1.5200	22.1960
 1.5210	22.3000
 1.5220	22.4050
 1.5230	22.5100
 1.5240	22.6130
 1.5250	22.7150
 1.5260	22.8160
 1.5270	22.9150
 1.5280	23.0140
 1.5290	23.1120
 1.5300	23.2100
 1.5310	23.3070
 1.5320	23.4020
 1.5330	23.4970
 1.5340	23.5920
 1.5350	23.6850
 1.5360	23.7800
 1.5370	23.8720
 1.5380	23.9650
 1.5390	24.0560
 1.5400	24.1460
 1.5410	24.2370
 1.5420	24.3250
 1.5430	24.4130
 1.5440	24.5030
 1.5450	24.5910
 1.5460	24.6790
 1.5470	24.7640
 1.5480	24.8480
 1.5490	24.9310
 1.5500	25.0140
 1.5510	25.0990
 1.5520	25.1830
 1.5530	25.2650
 1.5540	25.3460
 1.5550	25.4260
 1.5560	25.5060
 1.5570	25.5860
 1.5580	25.6670
 1.5590	25.7460
 1.5600	25.8240
 1.5610	25.9010
 1.5620	25.9760
 1.5630	26.0520
 1.5640	26.1270
 1.5650	26.2040
 1.5660	26.2800
 1.5670	26.3550
 1.5680	26.4290
 1.5690	26.5020
 1.5700	26.5750
 1.5710	26.6500
 1.5720	26.7250
 1.5730	26.7980
 1.5740	26.8710
 1.5750	26.9420
 1.5760	27.0130
 1.5770	27.0850
 1.5780	27.1580
 1.5790	27.2310
 1.5800	27.3040
 1.5810	27.3760
 1.5820	27.4460
 1.5830	27.5170
 1.5840	27.5890
 1.5850	27.6620
 1.5860	27.7360
 1.5870	27.8110
 1.5880	27.8830
 1.5890	27.9550
 1.5900	28.0260
 1.5910	28.0980
 1.5920	28.1690
 1.5930	28.2410
 1.5940	28.3130
 1.5950	28.3850
 1.5960	28.4580
 1.5970	28.5320
 1.5980	28.6050
 1.5990	28.6780
 1.6000	28.7510
 1.6010	28.8220
 1.6020	28.8940
 1.6030	28.9660
 1.6040	29.0390
 1.6050	29.1120
 1.6060	29.1830
 1.6070	29.2540
 1.6080	29.3260
 1.6090	29.3950
 1.6100	29.4660
 1.6110	29.5370
 1.6120	29.6050
 1.6130	29.6730
 1.6140	29.7400
 1.6150	29.8050
 1.6160	29.8710
 1.6170	29.9330
 1.6180	29.9940
 1.6190	30.0550
 1.6200	30.1140
 1.6210	30.1720
 1.6220	30.2290
 1.6230	30.2850
 1.6240	30.3400
 1.6250	30.3940
 1.6260	30.4490
 1.6270	30.5030
 1.6280	30.5570
 1.6290	30.6090
 1.6300	30.6590
 1.6310	30.7100
 1.6320	30.7620
 1.6330	30.8110
 1.6340	30.8600
 1.6350	30.9080
 1.6360	30.9550
 1.6370	31.0000
 1.6380	31.0440
 1.6390	31.0860
 1.6400	31.1260
 1.6410	31.1630
 1.6420	31.1980
 1.6430	31.2310
 1.6440	31.2610
 1.6450	31.2900
 1.6460	31.3150
 1.6470	31.3360
 1.6480	31.3550
 1.6490	31.3710
 1.6500	31.3860
 1.6510	31.4000
 1.6520	31.4100
 1.6530	31.4160
 1.6540	31.4200
 1.6550	31.4200
 1.6560	31.4170
 1.6570	31.4140
 1.6580	31.4090
 1.6590	31.4000
 1.6600	31.3900
 1.6610	31.3800
 1.6620	31.3690
 1.6630	31.3570
 1.6640	31.3460
 1.6650	31.3310
 1.6660	31.3150
 1.6670	31.2990
 1.6680	31.2820
 1.6690	31.2640
 1.6700	31.2460
 1.6710	31.2260
 1.6720	31.2050
 1.6730	31.1830
 1.6740	31.1590
 1.6750	31.1320
 1.6760	31.1010
 1.6770	31.0690
 1.6780	31.0330
 1.6790	30.9920
 1.6800	30.9460
 1.6810	30.8950
 1.6820	30.8370
 1.6830	30.7740
 1.6840	30.7090
 1.6850	30.6380
 1.6860	30.5640
 1.6870	30.4840
 1.6880	30.3990
 1.6890	30.3080
 1.6900	30.2150
 1.6910	30.1150
 1.6920	30.0170
 1.6930	29.9160
 1.6940	29.8160
 1.6950	29.7170
 1.6960	29.6180
 1.6970	29.5170
 1.6980	29.4170
 1.6990	29.3170
 1.7000	29.2160
 1.7010	29.1140
 1.7020	29.0130
 1.7030	28.9110
 1.7040	28.8090
 1.7050	28.7050
 1.7060	28.6030
 1.7070	28.5000
 1.7080	28.4010
 1.7090	28.3040
 1.7100	28.2100
 1.7110	28.1170
 1.7120	28.0310
 1.7130	27.9510
 1.7140	27.8800
 1.7150	27.8130
 1.7160	27.7530
 1.7170	27.6980
 1.7180	27.6460
 1.7190	27.6000
 1.7200	27.5570
 1.7210	27.5180
 1.7220	27.4810
 1.7230	27.4450
 1.7240	27.4110
 1.7250	27.3790
 1.7260	27.3550
 1.7270	27.3360
 1.7280	27.3210
 1.7290	27.3100
 1.7300	27.3010
 1.7310	27.2950
 1.7320	27.2940
 1.7330	27.2920
 1.7340	27.2960
 1.7350	27.2920
 1.7360	27.2880
 1.7370	27.2760
 1.7380	27.2610
 1.7390	27.2380
 1.7400	27.2110
 1.7410	27.1750
 1.7420	27.1310
 1.7430	27.0830
 1.7440	27.0290
 1.7450	26.9740
 1.7460	26.9150
 1.7470	26.8550
 1.7480	26.7940
 1.7490	26.7330
 1.7500	26.6710
 1.7510	26.6110
 1.7520	26.5510
 1.7530	26.4920
 1.7540	26.4350
 1.7550	26.3820
 1.7560	26.3320
 1.7570	26.2860
 1.7580	26.2430
 1.7590	26.2040
 1.7600	26.1670
 1.7610	26.1320
 1.7620	26.1010
 1.7630	26.0730
 1.7640	26.0470
 1.7650	26.0250
 1.7660	26.0040
 1.7670	25.9840
 1.7680	25.9640
 1.7690	25.9430
 1.7700	25.9230
 1.7710	25.9010
 1.7720	25.8820
 1.7730	25.8650
 1.7740	25.8490
 1.7750	25.8350
 1.7760	25.8220
 1.7770	25.8090
 1.7780	25.8000
 1.7790	25.7930
 1.7800	25.7900
 1.7810	25.7910
 1.7820	25.7950
 1.7830	25.8010
 1.7840	25.8110
 1.7850	25.8250
 1.7860	25.8400
 1.7870	25.8580
 1.7880	25.8770
 1.7890	25.9010
 1.7900	25.9250
 1.7910	25.9490
 1.7920	25.9730
 1.7930	25.9980
 1.7940	26.0250
 1.7950	26.0500
 1.7960	26.0740
 1.7970	26.0990
 1.7980	26.1210
 1.7990	26.1450
 1.8000	26.1690
 1.8010	26.1940
 1.8020	26.2170
 1.8030	26.2420
 1.8040	26.2690
 1.8050	26.2930
 1.8060	26.3180
 1.8070	26.3390
 1.8080	26.3560
 1.8090	26.3760
 1.8100	26.3960
 1.8110	26.4180
 1.8120	26.4410
 1.8130	26.4590
 1.8140	26.4780
 1.8150	26.4950
 1.8160	26.5100
 1.8170	26.5220
 1.8180	26.5350
 1.8190	26.5470
 1.8200	26.5600
 1.8210	26.5760
 1.8220	26.5880
 1.8230	26.5990
 1.8240	26.6080
 1.8250	26.6120
 1.8260	26.6190
 1.8270	26.6270
 1.8280	26.6320
 1.8290	26.6390
 1.8300	26.7000
 1.8310	26.8170
 1.8320	26.8670
 1.8330	26.8570
 1.8340	26.8430
 1.8350	26.8250
 1.8360	26.8000
 1.8370	26.7710
 1.8380	26.7400
 1.8390	26.7030
 1.8400	26.6610
 1.8410	26.6150
 1.8420	26.5640
 1.8430	26.5080
 1.8440	26.4480
 1.8450	26.3820
 1.8460	26.3050
 1.8470	26.2180
 1.8480	26.1220
 1.8490	26.0180
 1.8500	25.9000
 1.8510	25.7730
 1.8520	25.6320
 1.8530	25.4780
 1.8540	25.3150
 1.8550	25.1440
 1.8560	24.9610
 1.8570	24.7670
 1.8580	24.5600
 1.8590	24.3370
 1.8600	24.1000
 1.8610	23.8500
 1.8620	23.5810
 1.8630	23.2970
 1.8640	23.0000
 1.8650	22.6860
 1.8660	22.3570
 1.8670	22.0090
 1.8680	21.6450
 1.8690	21.2620
 1.8700	20.8600
 1.8710	20.4400
 1.8720	20.0070
 1.8730	19.5580
 1.8740	19.0980
 1.8750	18.6310
 1.8760	18.1570
 1.8770	17.6790
 1.8780	17.1950
 1.8790	16.7060
 1.8800	16.2200
 1.8810	15.7330
 1.8820	15.2440
 1.8830	14.7550
 1.8840	14.2700
 1.8850	13.7860
 1.8860	13.3080
 1.8870	12.8440
 1.8880	12.3880
 1.8890	11.9520
 1.8900	11.5320
 1.8910	11.1260
 1.8920	10.7320
 1.8930	10.3590
 1.8940	10.0020
 1.8950	 9.6660
 1.8960	 9.3540
 1.8970	 9.0630
 1.8980	 8.7910
 1.8990	 8.5360
 1.9000	 8.3000
 1.9010	 8.0830
 1.9020	 7.8810
 1.9030	 7.6970
 1.9040	 7.5300
 1.9050	 7.3770
 1.9060	 7.2400
 1.9070	 7.1190
 1.9080	 7.0060
 1.9090	 6.9050
 1.9100	 6.8130
 1.9110	 6.7290
 1.9120	 6.6520
 1.9130	 6.5840
 1.9140	 6.5240
 1.9150	 6.4700
 1.9160	 6.4220
 1.9170	 6.3790
 1.9180	 6.3390
 1.9190	 6.3030
 1.9200	 6.2720
 1.9210	 6.2470
 1.9220	 6.2220
 1.9230	 6.2020
 1.9240	 6.1840
 1.9250	 6.1710
 1.9260	 6.1580
 1.9270	 6.1490
 1.9280	 6.1450
 1.9290	 6.1410
 1.9300	 6.1420
 1.9310	 6.1480
 1.9320	 6.1540
 1.9330	 6.1620
 1.9340	 6.1710
 1.9350	 6.1820
 1.9360	 6.1950
 1.9370	 6.2120
 1.9380	 6.2280
 1.9390	 6.2500
 1.9400	 6.2740
 1.9410	 6.2990
 1.9420	 6.3220
 1.9430	 6.3520
 1.9440	 6.3790
 1.9450	 6.4060
 1.9460	 6.4380
 1.9470	 6.4730
 1.9480	 6.5050
 1.9490	 6.5380
 1.9500	 6.5710
 1.9510	 6.6070
 1.9520	 6.6420
 1.9530	 6.6830
 1.9540	 6.7260
 1.9550	 6.7670
 1.9560	 6.8130
 1.9570	 6.8570
 1.9580	 6.9010
 1.9590	 6.9470
 1.9600	 6.9950
 1.9610	 7.0410
 1.9620	 7.0920
 1.9630	 7.1420
 1.9640	 7.1940
 1.9650	 7.2460
 1.9660	 7.3000
 1.9670	 7.3540
 1.9680	 7.4100
 1.9690	 7.4650
 1.9700	 7.5210
 1.9710	 7.5750
 1.9720	 7.6310
 1.9730	 7.6910
 1.9740	 7.7510
 1.9750	 7.8120
 1.9760	 7.8740
 1.9770	 7.9360
 1.9780	 7.9960
 1.9790	 8.0580
 1.9800	 8.1180
 1.9810	 8.1820
 1.9820	 8.2450
 1.9830	 8.3090
 1.9840	 8.3760
 1.9850	 8.4420
 1.9860	 8.5070
 1.9870	 8.5740
 1.9880	 8.6420
 1.9890	 8.7060
 1.9900	 8.7740
 1.9910	 8.8400
 1.9920	 8.9080
 1.9930	 8.9740
 1.9940	 9.0400
 1.9950	 9.1050
 1.9960	 9.1730
 1.9970	 9.2370
 1.9980	 9.3000
 1.9990	 9.3650
 2.0000	 9.4300
 2.0010	 9.4960
 2.0020	 9.5620
 2.0030	 9.6290
 2.0040	 9.6990
 2.0050	 9.7660
 2.0060	 9.8290
 2.0070	 9.8940
 2.0080	 9.9590
 2.0090	10.0220
 2.0100	10.0840
 2.0110	10.1460
 2.0120	10.2130
 2.0130	10.2760
 2.0140	10.3410
 2.0150	10.4030
 2.0160	10.4590
 2.0170	10.5160
 2.0180	10.5740
 2.0190	10.6320
 2.0200	10.6890
 2.0210	10.7450
 2.0220	10.8000
 2.0230	10.8560
 2.0240	10.9100
 2.0250	10.9650
 2.0260	11.0180
 2.0270	11.0680
 2.0280	11.1170
 2.0290	11.1660
 2.0300	11.2130
 2.0310	11.2580
 2.0320	11.3030
 2.0330	11.3460
 2.0340	11.3870
 2.0350	11.4300
 2.0360	11.4750
 2.0370	11.5160
 2.0380	11.5570
 2.0390	11.5960
 2.0400	11.6320
 2.0410	11.6670
 2.0420	11.7020
 2.0430	11.7380
 2.0440	11.7720
 2.0450	11.8040
 2.0460	11.8370
 2.0470	11.8690
 2.0480	11.9020
 2.0490	11.9370
 2.0500	11.9700
 2.0510	12.0010
 2.0520	12.0310
 2.0530	12.0570
 2.0540	12.0850
 2.0550	12.1150
 2.0560	12.1450
 2.0570	12.1750
 2.0580	12.2060
 2.0590	12.2360
 2.0600	12.2650
 2.0610	12.2940
 2.0620	12.3230
 2.0630	12.3530
 2.0640	12.3820
 2.0650	12.4120
 2.0660	12.4410
 2.0670	12.4700
 2.0680	12.4980
 2.0690	12.5260
 2.0700	12.5560
 2.0710	12.5840
 2.0720	12.6120
 2.0730	12.6390
 2.0740	12.6690
 2.0750	12.7000
 2.0760	12.7310
 2.0770	12.7660
 2.0780	12.7970
 2.0790	12.8270
 2.0800	12.8560
 2.0810	12.8830
 2.0820	12.9120
 2.0830	12.9410
 2.0840	12.9710
 2.0850	13.0040
 2.0860	13.0350
 2.0870	13.0680
 2.0880	13.0970
 2.0890	13.1270
 2.0900	13.1580
 2.0910	13.1900
 2.0920	13.2230
 2.0930	13.2560
 2.0940	13.2910
 2.0950	13.3230
 2.0960	13.3510
 2.0970	13.3830
 2.0980	13.4160
 2.0990	13.4480
 2.1000	13.4840
 2.1010	13.5190
 2.1020	13.5510
 2.1030	13.5840
 2.1040	13.6190
 2.1050	13.6520
 2.1060	13.6860
 2.1070	13.7210
 2.1080	13.7560
 2.1090	13.7890
 2.1100	13.8260
 2.1110	13.8640
 2.1120	13.9020
 2.1130	13.9440
 2.1140	13.9800
 2.1150	14.0140
 2.1160	14.0470
 2.1170	14.0720
 2.1180	14.1040
 2.1190	14.1370
 2.1200	14.1710
 2.1210	14.2080
 2.1220	14.2490
 2.1230	14.2850
 2.1240	14.3180
 2.1250	14.3520
 2.1260	14.3830
 2.1270	14.4150
 2.1280	14.4490
 2.1290	14.4810
 2.1300	14.5110
 2.1310	14.5410
 2.1320	14.5690
 2.1330	14.6000
 2.1340	14.6340
 2.1350	14.6670
 2.1360	14.7060
 2.1370	14.7410
 2.1380	14.7710
 2.1390	14.8040
 2.1400	14.8340
 2.1410	14.8660
 2.1420	14.9000
 2.1430	14.9360
 2.1440	14.9680
 2.1450	14.9980
 2.1460	15.0280
 2.1470	15.0550
 2.1480	15.0870
 2.1490	15.1240
 2.1500	15.1570
 2.1510	15.1920
 2.1520	15.2230
 2.1530	15.2470
 2.1540	15.2760
 2.1550	15.3030
 2.1560	15.3320
 2.1570	15.3660
 2.1580	15.3970
 2.1590	15.4250
 2.1600	15.4560
 2.1610	15.4890
 2.1620	15.5210
 2.1630	15.5540
 2.1640	15.5900
 2.1650	15.6240
 2.1660	15.6570
 2.1670	15.6910
 2.1680	15.7280
 2.1690	15.7620
 2.1700	15.7940
 2.1710	15.8250
 2.1720	15.8520
 2.1730	15.8830
 2.1740	15.9180
 2.1750	15.9500
 2.1760	15.9830
 2.1770	16.0150
 2.1780	16.0430
 2.1790	16.0720
 2.1800	16.1000
 2.1810	16.1290
 2.1820	16.1590
 2.1830	16.1900
 2.1840	16.2200
 2.1850	16.2520
 2.1860	16.2800
 2.1870	16.3020
 2.1880	16.3300
 2.1890	16.3560
 2.1900	16.3850
 2.1910	16.4210
 2.1920	16.4500
 2.1930	16.4790
 2.1940	16.5050
 2.1950	16.5230
 2.1960	16.5470
 2.1970	16.5720
 2.1980	16.5980
 2.1990	16.6290
 2.2000	16.6540
 2.2010	16.6770
 2.2020	16.6970
 2.2030	16.7090
 2.2040	16.7260
 2.2050	16.7430
 2.2060	16.7600
 2.2070	16.7750
 2.2080	16.7910
 2.2090	16.8020
 2.2100	16.8060
 2.2110	16.8170
 2.2120	16.8320
 2.2130	16.8410
 2.2140	16.8530
 2.2150	16.8570
 2.2160	16.8530
 2.2170	16.8510
 2.2180	16.8470
 2.2190	16.8410
 2.2200	16.8330
 2.2210	16.8250
 2.2220	16.8160
 2.2230	16.8050
 2.2240	16.7930
 2.2250	16.7770
 2.2260	16.7580
 2.2270	16.7350
 2.2280	16.7070
 2.2290	16.6780
 2.2300	16.6490
 2.2310	16.6140
 2.2320	16.5760
 2.2330	16.5340
 2.2340	16.4880
 2.2350	16.4340
 2.2360	16.3810
 2.2370	16.3260
 2.2380	16.2700
 2.2390	16.2130
 2.2400	16.1530
 2.2410	16.0930
 2.2420	16.0240
 2.2430	15.9450
 2.2440	15.8690
 2.2450	15.7870
 2.2460	15.7080
 2.2470	15.6310
 2.2480	15.5510
 2.2490	15.4720
 2.2500	15.3860
 2.2510	15.2950
 2.2520	15.2030
 2.2530	15.1020
 2.2540	15.0040
 2.2550	14.9060
 2.2560	14.8090
 2.2570	14.7140
 2.2580	14.6170
 2.2590	14.5210
 2.2600	14.4220
 2.2610	14.3220
 2.2620	14.2190
 2.2630	14.1170
 2.2640	14.0170
 2.2650	13.9200
 2.2660	13.8270
 2.2670	13.7360
 2.2680	13.6490
 2.2690	13.5640
 2.2700	13.4790
 2.2710	13.3990
 2.2720	13.3220
 2.2730	13.2470
 2.2740	13.1750
 2.2750	13.1080
 2.2760	13.0440
 2.2770	12.9800
 2.2780	12.9190
 2.2790	12.8590
 2.2800	12.7970
 2.2810	12.7420
 2.2820	12.6930
 2.2830	12.6400
 2.2840	12.5920
 2.2850	12.5370
 2.2860	12.4760
 2.2870	12.4170
 2.2880	12.3580
 2.2890	12.2960
 2.2900	12.2320
 2.2910	12.1710
 2.2920	12.1090
 2.2930	12.0440
 2.2940	11.9810
 2.2950	11.9150
 2.2960	11.8420
 2.2970	11.7720
 2.2980	11.7000
 2.2990	11.6310
 2.3000	11.5680
 2.3010	11.5090
 2.3020	11.4590
 2.3030	11.4100
 2.3040	11.3620
 2.3050	11.3200
 2.3060	11.2810
 2.3070	11.2470
 2.3080	11.2230
 2.3090	11.2020
 2.3100	11.1870
 2.3110	11.1820
 2.3120	11.1830
 2.3130	11.1960
 2.3140	11.2040
 2.3150	11.2180
 2.3160	11.2280
 2.3170	11.2350
 2.3180	11.2440
 2.3190	11.2550
 2.3200	11.2580
 2.3210	11.2580
 2.3220	11.2590
 2.3230	11.2580
 2.3240	11.2500
 2.3250	11.2400
 2.3260	11.2230
 2.3270	11.1930
 2.3280	11.1680
 2.3290	11.1420
 2.3300	11.1140
 2.3310	11.0860
 2.3320	11.0570
 2.3330	11.0290
 2.3340	10.9960
 2.3350	10.9600
 2.3360	10.9250
 2.3370	10.8880
 2.3380	10.8510
 2.3390	10.8170
 2.3400	10.7800
 2.3410	10.7400
 2.3420	10.7010
 2.3430	10.6580
 2.3440	10.6220
 2.3450	10.5890
 2.3460	10.5540
 2.3470	10.5260
 2.3480	10.4970
 2.3490	10.4680
 2.3500	10.4440
 2.3510	10.4210
 2.3520	10.4050
 2.3530	10.3950
 2.3540	10.3820
 2.3550	10.3730
 2.3560	10.3670
 2.3570	10.3530
 2.3580	10.3390
 2.3590	10.3240
 2.3600	10.3070
 2.3610	10.2900
 2.3620	10.2740
 2.3630	10.2580
 2.3640	10.2350
 2.3650	10.2140
 2.3660	10.1910
 2.3670	10.1730
 2.3680	10.1570
 2.3690	10.1300
 2.3700	10.1050
 2.3710	10.0740
 2.3720	10.0380
 2.3730	10.0080
 2.3740	 9.9810
 2.3750	 9.9500
 2.3760	 9.9210
 2.3770	 9.8960
 2.3780	 9.8700
 2.3790	 9.8470
 2.3800	 9.8250
 2.3810	 9.8040
 2.3820	 9.7760
 2.3830	 9.7490
 2.3840	 9.7200
 2.3850	 9.6910
 2.3860	 9.6630
 2.3870	 9.6310
 2.3880	 9.6000
 2.3890	 9.5630
 2.3900	 9.5230
 2.3910	 9.4960
 2.3920	 9.4690
 2.3930	 9.4440
 2.3940	 9.4210
 2.3950	 9.3980
 2.3960	 9.3790
 2.3970	 9.3580
 2.3980	 9.3460
 2.3990	 9.3210
 2.4000	 9.2810
 2.4010	 9.2490
 2.4020	 9.2020
 2.4030	 9.1650
 2.4040	 9.1290
 2.4050	 9.0860
 2.4060	 9.0550
 2.4070	 9.0210
 2.4080	 8.9820
 2.4090	 8.9510
 2.4100	 8.9190
 2.4110	 8.8890
 2.4120	 8.8640
 2.4130	 8.8370
 2.4140	 8.8000
 2.4150	 8.7600
 2.4160	 8.7120
 2.4170	 8.6790
 2.4180	 8.6460
 2.4190	 8.6120
 2.4200	 8.5910
 2.4210	 8.5570
 2.4220	 8.5240
 2.4230	 8.4880
 2.4240	 8.4400
 2.4250	 8.3980
 2.4260	 8.3450
 2.4270	 8.2950
 2.4280	 8.2620
 2.4290	 8.2160
 2.4300	 8.1800
 2.4310	 8.1510
 2.4320	 8.1090
 2.4330	 8.0570
 2.4340	 7.9990
 2.4350	 7.9530
 2.4360	 7.9060
 2.4370	 7.8760
 2.4380	 7.8480
 2.4390	 7.8080
 2.4400	 7.7760
 2.4410	 7.7390
 2.4420	 7.7090
 2.4430	 7.6840
 2.4440	 7.6330
 2.4450	 7.5880
 2.4460	 7.5290
 2.4470	 7.4750
 2.4480	 7.4570
 2.4490	 7.4320
 2.4500	 7.4200
 2.4510	 7.4050
 2.4520	 7.3640
 2.4530	 7.3200
 2.4540	 7.2790
 2.4550	 7.2370
 2.4560	 7.1950
 2.4570	 7.1490
 2.4580	 7.0990
 2.4590	 7.0570
 2.4600	 7.0180
 2.4610	 6.9780
 2.4620	 6.9570
 2.4630	 6.9300
 2.4640	 6.8950
 2.4650	 6.8700
 2.4660	 6.8360
 2.4670	 6.7910
 2.4680	 6.7710
 2.4690	 6.7510
 2.4700	 6.7260
 2.4710	 6.6900
 2.4720	 6.6590
 2.4730	 6.6320
 2.4740	 6.6060
 2.4750	 6.5880
 2.4760	 6.5680
 2.4770	 6.5310
 2.4780	 6.5110
 2.4790	 6.5030
 2.4800	 6.4990
 2.4810	 6.5090
 2.4820	 6.5210
 2.4830	 6.5060
 2.4840	 6.4660
 2.4850	 6.4660
 2.4860	 6.4500
 2.4870	 6.4360
 2.4880	 6.4340
 2.4890	 6.3830
 2.4900	 6.3310
 2.4910	 6.3130
 2.4920	 6.3160
 2.4930	 6.3450
 2.4940	 6.3860
 2.4950	 6.3920
 2.4960	 6.3770
 2.4970	 6.3320
 2.4980	 6.2490
 2.4990	 6.1940
 2.5000	 6.2140
