Name: Phytolacca dioica
Type: vegetation
Class: Tree
Genus: Phytolacca
Species: dioica
Sample No.: JPL207
Owner: JPL
Wavelength Range: TIR
Origin: 34.12568; -118.11213; WGS84
Collection Date: 10/3/2016
Description: Samples were collected at the Huntington Garden in San Marino California as part of a JPL Subcontract studying HyTES imagery. Samples were taken to JPL and processed within 48 hours of collection. The same leaves were processed in the Nicolet and then measured using the ASD.
Measurement: Hemispherical reflectance
First Column: X
Second Column: Y
X Units: Wavelength (micrometer)
Y Units: Reflectance (percentage)
First X Value: 2.501
Last X Value: 15.387
Number of X Values: 1737
Additional Information: vegetation.tree.phytolacca.dioica.tir.jpl207.jpl.nicolet.ancillary.txt

 2.5010	 3.7090
 2.5030	 3.6410
 2.5040	 3.5720
 2.5050	 3.6120
 2.5060	 3.6630
 2.5070	 3.6160
 2.5090	 3.6400
 2.5100	 3.6140
 2.5110	 3.6140
 2.5120	 3.6180
 2.5140	 3.6200
 2.5150	 3.5840
 2.5160	 3.6100
 2.5170	 3.5940
 2.5180	 3.5500
 2.5200	 3.4970
 2.5210	 3.5250
 2.5220	 3.5160
 2.5230	 3.5240
 2.5250	 3.5490
 2.5260	 3.5830
 2.5270	 3.5470
 2.5280	 3.5140
 2.5300	 3.4500
 2.5310	 3.4540
 2.5320	 3.4730
 2.5330	 3.4990
 2.5340	 3.5320
 2.5360	 3.5520
 2.5370	 3.5540
 2.5380	 3.6220
 2.5390	 3.6160
 2.5410	 3.6150
 2.5420	 3.5730
 2.5430	 3.5240
 2.5440	 3.5080
 2.5460	 3.5820
 2.5470	 3.6090
 2.5480	 3.6250
 2.5490	 3.5520
 2.5510	 3.5720
 2.5520	 3.5610
 2.5530	 3.5390
 2.5540	 3.5730
 2.5560	 3.5790
 2.5570	 3.5350
 2.5580	 3.5750
 2.5590	 3.5680
 2.5610	 3.5700
 2.5620	 3.4940
 2.5630	 3.5280
 2.5650	 3.5480
 2.5660	 3.5190
 2.5670	 3.4920
 2.5680	 3.5530
 2.5700	 3.5490
 2.5710	 3.5490
 2.5720	 3.5890
 2.5730	 3.6140
 2.5750	 3.5810
 2.5760	 3.5600
 2.5770	 3.5160
 2.5790	 3.5420
 2.5800	 3.5460
 2.5810	 3.5940
 2.5820	 3.5660
 2.5840	 3.5600
 2.5850	 3.5630
 2.5860	 3.5590
 2.5880	 3.4740
 2.5890	 3.4640
 2.5900	 3.5000
 2.5910	 3.5790
 2.5930	 3.5050
 2.5940	 3.4390
 2.5950	 3.4180
 2.5970	 3.4120
 2.5980	 3.4150
 2.5990	 3.4690
 2.6010	 3.4490
 2.6020	 3.4350
 2.6030	 3.3670
 2.6040	 3.3880
 2.6060	 3.3930
 2.6070	 3.4260
 2.6080	 3.4030
 2.6100	 3.3860
 2.6110	 3.3300
 2.6120	 3.3490
 2.6140	 3.3290
 2.6150	 3.3560
 2.6160	 3.3270
 2.6180	 3.3230
 2.6190	 3.2970
 2.6200	 3.2950
 2.6220	 3.2510
 2.6230	 3.2750
 2.6240	 3.2470
 2.6260	 3.2670
 2.6270	 3.2520
 2.6280	 3.2900
 2.6300	 3.2790
 2.6310	 3.2920
 2.6320	 3.2680
 2.6340	 3.2590
 2.6350	 3.2570
 2.6360	 3.2760
 2.6380	 3.1810
 2.6390	 3.1720
 2.6400	 3.1820
 2.6420	 3.1860
 2.6430	 3.1720
 2.6440	 3.1850
 2.6460	 3.1300
 2.6470	 3.1550
 2.6480	 3.1360
 2.6500	 3.1090
 2.6510	 3.0820
 2.6520	 3.0510
 2.6540	 3.0510
 2.6550	 3.1310
 2.6570	 3.1210
 2.6580	 3.0810
 2.6590	 3.0570
 2.6610	 3.1370
 2.6620	 3.0770
 2.6630	 3.0500
 2.6650	 3.0490
 2.6660	 3.0650
 2.6670	 3.0090
 2.6690	 3.0050
 2.6700	 2.9940
 2.6720	 3.0370
 2.6730	 2.9990
 2.6740	 2.9760
 2.6760	 2.9020
 2.6770	 2.9400
 2.6780	 2.9660
 2.6800	 2.9990
 2.6810	 3.0280
 2.6830	 3.0110
 2.6840	 2.9240
 2.6850	 2.9370
 2.6870	 2.9730
 2.6880	 3.0910
 2.6900	 3.1020
 2.6910	 3.0790
 2.6920	 3.0070
 2.6940	 2.9900
 2.6950	 2.9740
 2.6970	 2.9970
 2.6980	 2.9690
 2.6990	 2.9640
 2.7010	 2.9810
 2.7020	 3.0310
 2.7040	 3.0340
 2.7050	 3.0890
 2.7060	 3.0810
 2.7080	 3.0330
 2.7090	 2.9160
 2.7110	 2.9150
 2.7120	 2.9560
 2.7130	 2.9900
 2.7150	 2.9450
 2.7160	 2.9370
 2.7180	 2.9150
 2.7190	 2.9380
 2.7210	 2.9060
 2.7220	 2.9730
 2.7230	 2.9600
 2.7250	 2.9280
 2.7260	 2.8860
 2.7280	 2.9350
 2.7290	 2.9130
 2.7310	 2.8950
 2.7320	 2.8570
 2.7340	 2.9120
 2.7350	 2.8700
 2.7360	 2.8740
 2.7380	 2.8760
 2.7390	 2.8610
 2.7410	 2.8420
 2.7420	 2.9150
 2.7440	 2.9350
 2.7450	 2.9430
 2.7470	 2.8860
 2.7480	 2.8740
 2.7490	 2.8470
 2.7510	 2.9010
 2.7520	 2.9320
 2.7540	 2.9770
 2.7550	 2.9200
 2.7570	 2.9490
 2.7580	 2.9610
 2.7600	 2.9470
 2.7610	 2.9150
 2.7630	 2.9140
 2.7640	 2.9000
 2.7660	 2.9510
 2.7670	 2.9150
 2.7690	 2.9050
 2.7700	 2.9130
 2.7720	 2.9240
 2.7730	 2.8680
 2.7740	 2.8890
 2.7760	 2.9140
 2.7770	 2.9240
 2.7790	 2.8810
 2.7800	 2.9620
 2.7820	 2.9390
 2.7830	 2.9520
 2.7850	 2.9340
 2.7860	 2.9470
 2.7880	 2.8460
 2.7890	 2.8480
 2.7910	 2.8850
 2.7920	 2.9190
 2.7940	 2.9190
 2.7950	 2.9840
 2.7970	 2.9620
 2.7980	 2.9720
 2.8000	 2.8930
 2.8010	 2.8660
 2.8030	 2.9010
 2.8040	 2.9430
 2.8060	 2.8740
 2.8080	 2.9250
 2.8090	 2.9310
 2.8110	 2.9180
 2.8120	 2.8790
 2.8140	 2.8940
 2.8150	 2.8940
 2.8170	 2.9160
 2.8180	 2.8850
 2.8200	 2.9640
 2.8210	 2.9400
 2.8230	 2.9430
 2.8240	 2.8970
 2.8260	 2.8850
 2.8270	 2.8980
 2.8290	 2.9210
 2.8310	 2.8720
 2.8320	 2.9050
 2.8340	 2.8420
 2.8350	 2.8940
 2.8370	 2.9220
 2.8380	 2.9060
 2.8400	 2.8390
 2.8410	 2.8570
 2.8430	 2.8900
 2.8440	 2.9530
 2.8460	 2.9060
 2.8480	 2.8480
 2.8490	 2.7880
 2.8510	 2.8690
 2.8520	 2.8860
 2.8540	 2.9390
 2.8550	 2.9070
 2.8570	 2.8570
 2.8590	 2.8450
 2.8600	 2.8930
 2.8620	 2.8990
 2.8630	 2.8960
 2.8650	 2.8220
 2.8660	 2.8380
 2.8680	 2.8560
 2.8700	 2.8720
 2.8710	 2.8770
 2.8730	 2.8780
 2.8740	 2.8030
 2.8760	 2.8440
 2.8780	 2.8670
 2.8790	 2.8810
 2.8810	 2.8640
 2.8820	 2.8890
 2.8840	 2.8690
 2.8860	 2.9080
 2.8870	 2.9370
 2.8890	 2.9820
 2.8900	 2.9260
 2.8920	 2.8890
 2.8940	 2.9050
 2.8950	 2.9460
 2.8970	 2.8950
 2.8990	 2.9180
 2.9000	 2.9220
 2.9020	 2.9430
 2.9030	 2.9050
 2.9050	 2.9020
 2.9070	 2.9010
 2.9080	 2.9840
 2.9100	 2.9630
 2.9120	 2.9910
 2.9130	 2.9310
 2.9150	 2.8800
 2.9160	 2.8680
 2.9180	 2.9480
 2.9200	 2.9240
 2.9210	 2.9360
 2.9230	 2.9630
 2.9250	 2.9800
 2.9260	 2.8820
 2.9280	 2.8770
 2.9300	 2.8480
 2.9310	 2.9130
 2.9330	 2.9470
 2.9350	 2.9750
 2.9360	 2.9820
 2.9380	 2.9520
 2.9400	 2.8330
 2.9410	 2.9070
 2.9430	 3.0080
 2.9450	 3.0020
 2.9460	 2.9610
 2.9480	 2.9670
 2.9500	 2.9490
 2.9510	 2.9720
 2.9530	 2.9390
 2.9550	 2.9320
 2.9560	 2.8930
 2.9580	 2.8660
 2.9600	 2.9240
 2.9610	 2.9840
 2.9630	 2.8830
 2.9650	 2.9330
 2.9670	 2.9420
 2.9680	 2.8940
 2.9700	 2.7940
 2.9720	 2.8220
 2.9730	 2.8740
 2.9750	 2.9670
 2.9770	 2.9990
 2.9780	 2.9980
 2.9800	 2.9480
 2.9820	 2.9780
 2.9840	 2.9650
 2.9850	 2.9420
 2.9870	 2.9010
 2.9890	 2.9120
 2.9900	 2.8730
 2.9920	 2.9120
 2.9940	 2.9900
 2.9960	 3.0120
 2.9970	 2.9700
 2.9990	 2.9950
 3.0010	 3.0000
 3.0030	 3.0350
 3.0040	 2.9850
 3.0060	 2.9820
 3.0080	 2.9060
 3.0100	 2.8890
 3.0110	 2.9300
 3.0130	 2.9280
 3.0150	 2.8940
 3.0170	 2.8950
 3.0180	 2.8700
 3.0200	 2.9360
 3.0220	 2.9430
 3.0240	 2.9890
 3.0250	 2.9700
 3.0270	 3.0250
 3.0290	 3.0030
 3.0310	 2.9650
 3.0320	 2.8880
 3.0340	 2.8650
 3.0360	 2.8730
 3.0380	 2.8840
 3.0400	 2.8350
 3.0410	 2.8860
 3.0430	 2.9380
 3.0450	 3.0000
 3.0470	 2.9490
 3.0480	 2.9660
 3.0500	 2.9530
 3.0520	 2.9490
 3.0540	 2.9280
 3.0560	 2.8990
 3.0570	 2.8430
 3.0590	 2.8870
 3.0610	 2.8970
 3.0630	 2.9430
 3.0650	 2.9070
 3.0670	 2.8830
 3.0680	 2.8340
 3.0700	 2.8400
 3.0720	 2.8210
 3.0740	 2.8620
 3.0760	 2.8160
 3.0770	 2.8520
 3.0790	 2.8720
 3.0810	 2.8970
 3.0830	 2.8710
 3.0850	 2.8860
 3.0870	 2.8910
 3.0880	 2.9330
 3.0900	 2.9340
 3.0920	 2.9460
 3.0940	 2.9060
 3.0960	 2.9180
 3.0980	 2.9050
 3.1000	 2.9280
 3.1010	 2.8790
 3.1030	 2.8790
 3.1050	 2.8920
 3.1070	 2.9580
 3.1090	 2.9020
 3.1110	 2.8720
 3.1130	 2.8250
 3.1140	 2.8920
 3.1160	 2.8860
 3.1180	 2.9210
 3.1200	 2.9020
 3.1220	 2.9170
 3.1240	 2.9280
 3.1260	 2.9630
 3.1280	 2.9090
 3.1290	 2.8740
 3.1310	 2.8470
 3.1330	 2.8780
 3.1350	 2.8470
 3.1370	 2.8160
 3.1390	 2.8600
 3.1410	 2.8930
 3.1430	 2.8590
 3.1450	 2.9170
 3.1470	 2.9170
 3.1480	 2.9350
 3.1500	 2.8920
 3.1520	 2.8690
 3.1540	 2.8800
 3.1560	 2.9500
 3.1580	 2.9100
 3.1600	 2.9290
 3.1620	 2.9110
 3.1640	 2.8960
 3.1660	 2.8420
 3.1680	 2.8400
 3.1700	 2.8550
 3.1720	 2.8800
 3.1730	 2.8900
 3.1750	 2.8680
 3.1770	 2.7710
 3.1790	 2.7620
 3.1810	 2.7700
 3.1830	 2.8140
 3.1850	 2.8360
 3.1870	 2.8700
 3.1890	 2.8440
 3.1910	 2.8300
 3.1930	 2.8220
 3.1950	 2.8620
 3.1970	 2.8490
 3.1990	 2.8790
 3.2010	 2.8730
 3.2030	 2.8650
 3.2050	 2.8310
 3.2070	 2.8340
 3.2090	 2.8020
 3.2110	 2.8150
 3.2130	 2.8130
 3.2150	 2.8210
 3.2170	 2.8120
 3.2190	 2.8710
 3.2210	 2.8850
 3.2230	 2.9030
 3.2250	 2.8540
 3.2270	 2.8550
 3.2290	 2.8340
 3.2310	 2.8310
 3.2330	 2.8370
 3.2350	 2.8490
 3.2370	 2.8060
 3.2390	 2.8030
 3.2410	 2.8030
 3.2430	 2.7850
 3.2450	 2.7510
 3.2470	 2.7620
 3.2490	 2.7430
 3.2510	 2.7840
 3.2530	 2.7860
 3.2550	 2.7950
 3.2570	 2.7710
 3.2590	 2.7960
 3.2610	 2.7950
 3.2630	 2.8060
 3.2650	 2.7920
 3.2670	 2.7550
 3.2700	 2.7570
 3.2720	 2.7900
 3.2740	 2.7680
 3.2760	 2.7640
 3.2780	 2.7510
 3.2800	 2.7610
 3.2820	 2.7420
 3.2840	 2.7380
 3.2860	 2.7450
 3.2880	 2.7770
 3.2900	 2.7330
 3.2920	 2.7570
 3.2940	 2.7800
 3.2970	 2.7910
 3.2990	 2.7690
 3.3010	 2.7420
 3.3030	 2.6810
 3.3050	 2.6890
 3.3070	 2.7040
 3.3090	 2.7550
 3.3110	 2.7220
 3.3130	 2.7190
 3.3160	 2.7370
 3.3180	 2.7450
 3.3200	 2.6930
 3.3220	 2.6520
 3.3240	 2.6100
 3.3260	 2.6140
 3.3280	 2.6660
 3.3300	 2.6890
 3.3330	 2.6300
 3.3350	 2.6460
 3.3370	 2.6450
 3.3390	 2.6240
 3.3410	 2.5560
 3.3430	 2.5340
 3.3450	 2.5280
 3.3480	 2.5560
 3.3500	 2.5140
 3.3520	 2.5030
 3.3540	 2.4850
 3.3560	 2.4600
 3.3580	 2.4170
 3.3610	 2.4460
 3.3630	 2.4240
 3.3650	 2.4230
 3.3670	 2.4160
 3.3690	 2.3980
 3.3720	 2.3940
 3.3740	 2.4170
 3.3760	 2.3490
 3.3780	 2.3760
 3.3800	 2.3580
 3.3830	 2.2840
 3.3850	 2.2620
 3.3870	 2.3040
 3.3890	 2.2680
 3.3910	 2.2480
 3.3940	 2.2420
 3.3960	 2.2260
 3.3980	 2.1690
 3.4000	 2.1790
 3.4030	 2.1710
 3.4050	 2.1820
 3.4070	 2.1830
 3.4090	 2.2400
 3.4110	 2.3420
 3.4140	 2.4990
 3.4160	 2.6370
 3.4180	 2.9080
 3.4200	 3.2670
 3.4230	 3.7970
 3.4250	 4.4900
 3.4270	 5.2640
 3.4300	 5.7800
 3.4320	 5.7920
 3.4340	 5.3750
 3.4360	 4.9510
 3.4390	 4.5940
 3.4410	 4.3730
 3.4430	 4.1710
 3.4450	 4.0690
 3.4480	 3.9900
 3.4500	 3.8810
 3.4520	 3.8160
 3.4550	 3.8110
 3.4570	 3.7730
 3.4590	 3.7340
 3.4620	 3.6540
 3.4640	 3.6120
 3.4660	 3.5910
 3.4690	 3.5460
 3.4710	 3.4920
 3.4730	 3.4400
 3.4760	 3.3480
 3.4780	 3.3340
 3.4800	 3.2660
 3.4830	 3.1910
 3.4850	 3.1280
 3.4870	 3.1190
 3.4900	 3.0540
 3.4920	 2.9620
 3.4940	 2.8550
 3.4970	 2.8600
 3.4990	 2.8770
 3.5010	 2.9440
 3.5040	 3.1310
 3.5060	 3.6450
 3.5080	 4.5640
 3.5110	 5.4070
 3.5130	 5.4780
 3.5160	 5.1010
 3.5180	 4.6870
 3.5200	 4.3600
 3.5230	 4.1480
 3.5250	 4.0460
 3.5280	 3.9520
 3.5300	 3.8550
 3.5320	 3.7500
 3.5350	 3.7640
 3.5370	 3.7200
 3.5400	 3.6690
 3.5420	 3.6090
 3.5440	 3.5660
 3.5470	 3.5400
 3.5490	 3.5590
 3.5520	 3.5320
 3.5540	 3.5370
 3.5570	 3.4820
 3.5590	 3.4590
 3.5610	 3.4470
 3.5640	 3.4650
 3.5660	 3.4320
 3.5690	 3.4000
 3.5710	 3.3710
 3.5740	 3.3920
 3.5760	 3.4210
 3.5790	 3.4220
 3.5810	 3.3950
 3.5840	 3.3810
 3.5860	 3.3190
 3.5890	 3.3550
 3.5910	 3.3770
 3.5940	 3.3640
 3.5960	 3.3090
 3.5990	 3.2930
 3.6010	 3.3110
 3.6040	 3.3340
 3.6060	 3.2910
 3.6090	 3.3130
 3.6110	 3.3350
 3.6140	 3.3170
 3.6160	 3.2830
 3.6190	 3.2940
 3.6210	 3.2720
 3.6240	 3.2870
 3.6260	 3.2880
 3.6290	 3.2900
 3.6310	 3.2700
 3.6340	 3.2820
 3.6360	 3.2320
 3.6390	 3.2100
 3.6410	 3.1890
 3.6440	 3.2200
 3.6470	 3.2510
 3.6490	 3.2620
 3.6520	 3.2460
 3.6540	 3.2540
 3.6570	 3.2430
 3.6590	 3.2300
 3.6620	 3.1890
 3.6650	 3.2070
 3.6670	 3.2180
 3.6700	 3.2060
 3.6720	 3.1990
 3.6750	 3.2540
 3.6780	 3.2400
 3.6800	 3.2270
 3.6830	 3.2260
 3.6850	 3.2170
 3.6880	 3.1800
 3.6910	 3.1830
 3.6930	 3.1900
 3.6960	 3.2000
 3.6990	 3.2080
 3.7010	 3.2360
 3.7040	 3.2350
 3.7070	 3.2430
 3.7090	 3.2600
 3.7120	 3.2380
 3.7150	 3.2100
 3.7170	 3.2060
 3.7200	 3.2130
 3.7230	 3.2240
 3.7250	 3.1790
 3.7280	 3.1730
 3.7310	 3.1850
 3.7330	 3.2010
 3.7360	 3.1780
 3.7390	 3.2010
 3.7410	 3.2130
 3.7440	 3.2310
 3.7470	 3.1820
 3.7490	 3.1870
 3.7520	 3.2150
 3.7550	 3.2150
 3.7580	 3.1860
 3.7600	 3.2310
 3.7630	 3.2490
 3.7660	 3.2540
 3.7690	 3.2440
 3.7710	 3.2590
 3.7740	 3.2430
 3.7770	 3.2490
 3.7790	 3.2380
 3.7820	 3.2470
 3.7850	 3.2800
 3.7880	 3.2850
 3.7910	 3.2660
 3.7930	 3.2480
 3.7960	 3.2200
 3.7990	 3.2170
 3.8020	 3.1790
 3.8040	 3.1990
 3.8070	 3.2290
 3.8100	 3.2460
 3.8130	 3.2430
 3.8160	 3.2450
 3.8180	 3.2330
 3.8210	 3.2360
 3.8240	 3.2120
 3.8270	 3.1990
 3.8300	 3.2180
 3.8330	 3.2570
 3.8350	 3.2450
 3.8380	 3.2180
 3.8410	 3.2060
 3.8440	 3.2300
 3.8470	 3.2440
 3.8500	 3.2230
 3.8520	 3.2210
 3.8550	 3.2660
 3.8580	 3.2720
 3.8610	 3.2630
 3.8640	 3.2300
 3.8670	 3.2270
 3.8700	 3.2140
 3.8730	 3.2300
 3.8760	 3.2180
 3.8780	 3.2240
 3.8810	 3.2260
 3.8840	 3.2340
 3.8870	 3.2150
 3.8900	 3.1990
 3.8930	 3.1920
 3.8960	 3.2110
 3.8990	 3.2220
 3.9020	 3.2560
 3.9050	 3.2470
 3.9080	 3.2330
 3.9110	 3.2180
 3.9140	 3.2000
 3.9170	 3.2050
 3.9190	 3.2170
 3.9220	 3.2180
 3.9250	 3.2470
 3.9280	 3.2530
 3.9310	 3.2170
 3.9340	 3.1810
 3.9370	 3.2050
 3.9400	 3.2340
 3.9430	 3.2450
 3.9460	 3.2320
 3.9490	 3.2310
 3.9520	 3.2120
 3.9550	 3.2020
 3.9580	 3.1770
 3.9610	 3.1680
 3.9640	 3.1600
 3.9670	 3.1790
 3.9700	 3.1920
 3.9740	 3.2080
 3.9770	 3.2080
 3.9800	 3.2160
 3.9830	 3.2100
 3.9860	 3.2220
 3.9890	 3.1980
 3.9920	 3.1940
 3.9950	 3.1810
 3.9980	 3.2210
 4.0010	 3.2530
 4.0040	 3.2620
 4.0070	 3.2080
 4.0100	 3.1870
 4.0140	 3.1720
 4.0170	 3.1650
 4.0200	 3.1790
 4.0230	 3.2110
 4.0260	 3.1880
 4.0290	 3.1790
 4.0320	 3.1620
 4.0350	 3.1540
 4.0390	 3.1750
 4.0420	 3.2120
 4.0450	 3.2000
 4.0480	 3.1860
 4.0510	 3.1560
 4.0540	 3.1630
 4.0570	 3.1730
 4.0610	 3.1740
 4.0640	 3.1740
 4.0670	 3.1680
 4.0700	 3.1510
 4.0730	 3.1440
 4.0770	 3.1300
 4.0800	 3.1460
 4.0830	 3.1480
 4.0860	 3.1600
 4.0890	 3.1950
 4.0930	 3.2120
 4.0960	 3.1970
 4.0990	 3.1950
 4.1020	 3.1560
 4.1060	 3.1310
 4.1090	 3.1470
 4.1120	 3.1890
 4.1150	 3.1620
 4.1190	 3.1460
 4.1220	 3.1560
 4.1250	 3.1520
 4.1290	 3.1540
 4.1320	 3.1650
 4.1350	 3.1460
 4.1380	 3.1490
 4.1420	 3.1610
 4.1450	 3.1620
 4.1480	 3.1010
 4.1520	 3.0960
 4.1550	 3.1550
 4.1580	 3.1710
 4.1620	 3.1520
 4.1650	 3.1560
 4.1680	 3.1180
 4.1720	 3.0950
 4.1750	 3.1310
 4.1780	 3.1280
 4.1820	 3.1240
 4.1850	 3.1660
 4.1890	 3.1600
 4.1920	 3.1740
 4.1950	 3.1870
 4.1990	 3.1880
 4.2020	 3.1680
 4.2060	 3.1640
 4.2090	 3.2080
 4.2120	 3.2440
 4.2160	 3.2320
 4.2190	 3.2620
 4.2230	 3.2150
 4.2260	 3.0970
 4.2300	 3.1630
 4.2330	 3.2840
 4.2360	 3.2610
 4.2400	 3.2010
 4.2430	 3.2380
 4.2470	 3.2550
 4.2500	 3.2090
 4.2540	 3.1300
 4.2570	 3.0830
 4.2610	 3.1080
 4.2640	 3.1390
 4.2680	 3.1300
 4.2710	 3.1110
 4.2750	 3.1770
 4.2780	 3.2040
 4.2820	 3.2100
 4.2850	 3.1830
 4.2890	 3.1980
 4.2930	 3.2000
 4.2960	 3.2060
 4.3000	 3.1250
 4.3030	 3.1090
 4.3070	 3.1470
 4.3100	 3.2070
 4.3140	 3.1670
 4.3180	 3.1060
 4.3210	 3.1050
 4.3250	 3.1160
 4.3280	 3.1600
 4.3320	 3.1460
 4.3360	 3.0680
 4.3390	 3.0690
 4.3430	 3.1180
 4.3470	 3.1260
 4.3500	 3.1050
 4.3540	 3.1040
 4.3580	 3.1150
 4.3610	 3.1090
 4.3650	 3.1100
 4.3690	 3.1070
 4.3720	 3.1090
 4.3760	 3.1040
 4.3800	 3.0930
 4.3830	 3.0860
 4.3870	 3.0620
 4.3910	 3.0620
 4.3940	 3.0600
 4.3980	 3.0490
 4.4020	 3.0750
 4.4060	 3.1180
 4.4090	 3.1000
 4.4130	 3.0680
 4.4170	 3.0600
 4.4210	 3.0620
 4.4240	 3.0690
 4.4280	 3.0800
 4.4320	 3.0670
 4.4360	 3.0760
 4.4400	 3.0770
 4.4430	 3.0650
 4.4470	 3.0460
 4.4510	 3.0410
 4.4550	 3.0420
 4.4590	 3.0360
 4.4630	 3.0220
 4.4660	 3.0350
 4.4700	 3.0330
 4.4740	 3.0390
 4.4780	 3.0600
 4.4820	 3.0750
 4.4860	 3.0630
 4.4900	 3.0670
 4.4930	 3.0620
 4.4970	 3.0310
 4.5010	 3.0040
 4.5050	 3.0130
 4.5090	 3.0120
 4.5130	 3.0430
 4.5170	 3.0790
 4.5210	 3.0810
 4.5250	 3.0360
 4.5290	 3.0230
 4.5330	 3.0250
 4.5370	 3.0170
 4.5410	 3.0160
 4.5450	 3.0230
 4.5490	 3.0230
 4.5530	 3.0080
 4.5570	 3.0230
 4.5610	 3.0400
 4.5650	 3.0410
 4.5690	 3.0160
 4.5730	 3.0020
 4.5770	 3.0170
 4.5810	 3.0280
 4.5850	 3.0180
 4.5890	 3.0260
 4.5930	 3.0280
 4.5970	 3.0400
 4.6010	 3.0210
 4.6050	 3.0050
 4.6090	 3.0120
 4.6130	 2.9930
 4.6170	 2.9690
 4.6220	 3.0010
 4.6260	 2.9940
 4.6300	 2.9890
 4.6340	 3.0070
 4.6380	 3.0090
 4.6420	 3.0010
 4.6460	 2.9850
 4.6510	 2.9960
 4.6550	 3.0210
 4.6590	 3.0090
 4.6630	 2.9800
 4.6670	 2.9920
 4.6720	 2.9980
 4.6760	 2.9840
 4.6800	 2.9550
 4.6840	 2.9390
 4.6880	 2.9560
 4.6930	 2.9530
 4.6970	 2.9470
 4.7010	 2.9460
 4.7050	 2.9510
 4.7100	 2.9480
 4.7140	 2.9390
 4.7180	 2.9240
 4.7230	 2.9150
 4.7270	 2.9190
 4.7310	 2.9690
 4.7360	 2.9620
 4.7400	 2.9480
 4.7440	 2.9450
 4.7490	 2.9390
 4.7530	 2.9220
 4.7570	 2.9100
 4.7620	 2.9160
 4.7660	 2.9510
 4.7700	 2.9550
 4.7750	 2.9370
 4.7790	 2.9140
 4.7840	 2.8960
 4.7880	 2.8900
 4.7920	 2.9060
 4.7970	 2.9020
 4.8010	 2.8730
 4.8060	 2.8660
 4.8100	 2.9020
 4.8150	 2.9100
 4.8190	 2.9060
 4.8240	 2.9040
 4.8280	 2.9080
 4.8330	 2.8850
 4.8370	 2.8730
 4.8420	 2.8830
 4.8460	 2.8880
 4.8510	 2.8910
 4.8550	 2.8910
 4.8600	 2.8510
 4.8640	 2.8600
 4.8690	 2.8860
 4.8740	 2.8640
 4.8780	 2.8420
 4.8830	 2.8680
 4.8870	 2.8870
 4.8920	 2.9130
 4.8970	 2.9290
 4.9010	 2.9050
 4.9060	 2.8660
 4.9100	 2.8720
 4.9150	 2.8630
 4.9200	 2.8780
 4.9240	 2.8670
 4.9290	 2.8470
 4.9340	 2.8580
 4.9390	 2.8600
 4.9430	 2.8340
 4.9480	 2.8120
 4.9530	 2.8150
 4.9570	 2.8690
 4.9620	 2.9100
 4.9670	 2.9030
 4.9720	 2.8730
 4.9760	 2.8510
 4.9810	 2.8220
 4.9860	 2.8310
 4.9910	 2.8410
 4.9960	 2.8490
 5.0000	 2.8240
 5.0050	 2.8200
 5.0100	 2.7930
 5.0150	 2.8250
 5.0200	 2.8570
 5.0250	 2.8920
 5.0300	 2.8570
 5.0340	 2.8370
 5.0390	 2.8270
 5.0440	 2.8140
 5.0490	 2.7930
 5.0540	 2.8150
 5.0590	 2.8100
 5.0640	 2.7830
 5.0690	 2.7800
 5.0740	 2.7970
 5.0790	 2.7980
 5.0840	 2.8070
 5.0890	 2.8080
 5.0940	 2.8110
 5.0990	 2.8040
 5.1040	 2.7940
 5.1090	 2.7700
 5.1140	 2.7630
 5.1190	 2.7570
 5.1240	 2.7790
 5.1290	 2.8070
 5.1340	 2.8490
 5.1390	 2.8270
 5.1440	 2.8090
 5.1490	 2.7850
 5.1550	 2.7690
 5.1600	 2.7830
 5.1650	 2.8130
 5.1700	 2.7940
 5.1750	 2.7950
 5.1800	 2.7930
 5.1850	 2.7700
 5.1910	 2.7320
 5.1960	 2.7760
 5.2010	 2.7750
 5.2060	 2.7500
 5.2110	 2.7460
 5.2170	 2.7810
 5.2220	 2.7840
 5.2270	 2.7910
 5.2330	 2.7630
 5.2380	 2.7820
 5.2430	 2.8050
 5.2480	 2.8030
 5.2540	 2.7780
 5.2590	 2.7850
 5.2640	 2.7510
 5.2700	 2.7540
 5.2750	 2.7380
 5.2800	 2.7670
 5.2860	 2.7670
 5.2910	 2.7550
 5.2970	 2.7020
 5.3020	 2.6950
 5.3080	 2.7150
 5.3130	 2.7490
 5.3180	 2.7400
 5.3240	 2.7670
 5.3290	 2.7570
 5.3350	 2.7450
 5.3400	 2.7450
 5.3460	 2.7480
 5.3510	 2.7230
 5.3570	 2.7320
 5.3620	 2.7600
 5.3680	 2.7670
 5.3740	 2.7150
 5.3790	 2.7000
 5.3850	 2.7000
 5.3900	 2.7120
 5.3960	 2.7120
 5.4010	 2.7170
 5.4070	 2.6800
 5.4130	 2.6730
 5.4180	 2.7000
 5.4240	 2.7220
 5.4300	 2.6870
 5.4350	 2.6780
 5.4410	 2.6770
 5.4470	 2.6890
 5.4530	 2.6860
 5.4580	 2.7100
 5.4640	 2.7050
 5.4700	 2.6950
 5.4760	 2.6600
 5.4810	 2.6480
 5.4870	 2.6440
 5.4930	 2.6620
 5.4990	 2.6720
 5.5050	 2.6900
 5.5110	 2.6810
 5.5160	 2.7100
 5.5220	 2.7030
 5.5280	 2.7010
 5.5340	 2.6550
 5.5400	 2.6470
 5.5460	 2.6350
 5.5520	 2.6570
 5.5580	 2.6340
 5.5640	 2.6300
 5.5700	 2.6230
 5.5760	 2.6180
 5.5820	 2.6180
 5.5880	 2.6300
 5.5940	 2.6170
 5.6000	 2.5980
 5.6060	 2.5810
 5.6120	 2.6100
 5.6180	 2.5660
 5.6240	 2.5650
 5.6300	 2.5800
 5.6360	 2.5710
 5.6420	 2.4840
 5.6490	 2.4830
 5.6550	 2.4900
 5.6610	 2.5230
 5.6670	 2.5080
 5.6730	 2.5020
 5.6800	 2.4350
 5.6860	 2.4030
 5.6920	 2.3330
 5.6980	 2.3230
 5.7050	 2.2650
 5.7110	 2.2270
 5.7170	 2.2030
 5.7230	 2.1770
 5.7300	 2.0980
 5.7360	 2.0740
 5.7420	 2.0320
 5.7490	 2.0600
 5.7550	 2.1040
 5.7620	 2.1900
 5.7680	 2.2640
 5.7740	 2.3820
 5.7810	 2.4530
 5.7870	 2.5820
 5.7940	 2.6410
 5.8000	 2.7330
 5.8070	 2.8150
 5.8130	 2.8800
 5.8200	 2.8890
 5.8260	 2.9590
 5.8330	 3.0070
 5.8390	 3.1100
 5.8460	 3.1900
 5.8530	 3.2490
 5.8590	 3.2590
 5.8660	 3.3090
 5.8730	 3.3040
 5.8790	 3.2860
 5.8860	 3.2730
 5.8930	 3.3430
 5.8990	 3.3710
 5.9060	 3.4180
 5.9130	 3.3960
 5.9190	 3.3830
 5.9260	 3.3470
 5.9330	 3.3770
 5.9400	 3.3830
 5.9470	 3.3880
 5.9530	 3.3700
 5.9600	 3.3590
 5.9670	 3.3150
 5.9740	 3.3400
 5.9810	 3.3070
 5.9880	 3.2950
 5.9950	 3.2540
 6.0020	 3.2820
 6.0090	 3.2140
 6.0160	 3.2010
 6.0230	 3.2310
 6.0300	 3.2550
 6.0370	 3.2280
 6.0440	 3.2130
 6.0510	 3.1240
 6.0580	 3.1520
 6.0650	 3.1760
 6.0720	 3.1800
 6.0790	 3.1130
 6.0860	 3.1530
 6.0930	 3.1750
 6.1010	 3.2530
 6.1080	 3.2340
 6.1150	 3.2600
 6.1220	 3.2940
 6.1290	 3.3520
 6.1370	 3.3160
 6.1440	 3.3120
 6.1510	 3.2850
 6.1580	 3.2680
 6.1660	 3.2120
 6.1730	 3.2350
 6.1800	 3.2290
 6.1880	 3.2530
 6.1950	 3.2140
 6.2030	 3.2570
 6.2100	 3.2910
 6.2180	 3.3660
 6.2250	 3.3390
 6.2320	 3.3500
 6.2400	 3.3460
 6.2480	 3.3480
 6.2550	 3.2870
 6.2630	 3.3030
 6.2700	 3.3140
 6.2780	 3.3430
 6.2850	 3.2780
 6.2930	 3.2860
 6.3010	 3.3040
 6.3080	 3.3840
 6.3160	 3.3500
 6.3240	 3.3200
 6.3310	 3.2700
 6.3390	 3.2270
 6.3470	 3.1570
 6.3550	 3.2300
 6.3620	 3.2090
 6.3700	 3.1990
 6.3780	 3.1590
 6.3860	 3.2120
 6.3940	 3.2030
 6.4020	 3.2000
 6.4100	 3.1340
 6.4180	 3.1080
 6.4260	 3.0690
 6.4340	 3.0700
 6.4420	 3.0500
 6.4500	 3.0810
 6.4580	 3.0810
 6.4660	 3.1110
 6.4740	 3.0470
 6.4820	 3.0320
 6.4900	 2.9790
 6.4980	 3.0080
 6.5060	 3.0020
 6.5140	 3.0330
 6.5230	 2.9710
 6.5310	 2.9770
 6.5390	 2.9770
 6.5470	 2.9650
 6.5560	 2.9040
 6.5640	 2.9070
 6.5720	 2.8000
 6.5800	 2.7710
 6.5890	 2.7910
 6.5970	 2.9010
 6.6060	 2.9630
 6.6140	 3.0180
 6.6230	 2.9550
 6.6310	 2.9540
 6.6390	 2.9260
 6.6480	 2.9880
 6.6570	 2.9880
 6.6650	 3.0230
 6.6740	 2.9750
 6.6820	 2.9410
 6.6910	 2.9030
 6.7000	 2.9570
 6.7080	 2.9020
 6.7170	 2.8810
 6.7260	 2.8270
 6.7340	 2.8630
 6.7430	 2.8330
 6.7520	 2.7900
 6.7610	 2.6760
 6.7690	 2.6840
 6.7780	 2.7220
 6.7870	 2.9120
 6.7960	 2.9510
 6.8050	 2.9400
 6.8140	 2.9010
 6.8230	 2.9990
 6.8320	 3.1520
 6.8410	 3.3240
 6.8500	 3.2100
 6.8590	 3.0920
 6.8680	 3.0520
 6.8770	 3.1630
 6.8860	 3.1750
 6.8960	 3.2060
 6.9050	 3.1790
 6.9140	 3.1710
 6.9230	 3.1510
 6.9320	 3.2200
 6.9420	 3.1550
 6.9510	 3.2070
 6.9600	 3.1980
 6.9700	 3.2270
 6.9790	 3.1890
 6.9880	 3.2160
 6.9980	 3.1890
 7.0070	 3.2510
 7.0170	 3.2120
 7.0260	 3.1940
 7.0360	 3.1360
 7.0450	 3.1850
 7.0550	 3.1790
 7.0650	 3.2010
 7.0740	 3.1670
 7.0840	 3.1980
 7.0940	 3.1670
 7.1030	 3.2060
 7.1130	 3.1780
 7.1230	 3.1900
 7.1330	 3.1050
 7.1420	 3.1120
 7.1520	 3.0710
 7.1620	 3.0600
 7.1720	 3.0190
 7.1820	 3.0460
 7.1920	 3.0230
 7.2020	 3.0600
 7.2120	 3.0400
 7.2220	 3.0860
 7.2320	 3.0440
 7.2420	 3.0390
 7.2520	 2.9990
 7.2620	 3.0240
 7.2730	 2.9420
 7.2830	 2.9330
 7.2930	 2.8960
 7.3030	 2.9880
 7.3140	 2.9680
 7.3240	 2.9600
 7.3340	 2.9110
 7.3450	 2.9500
 7.3550	 2.9250
 7.3660	 2.9650
 7.3760	 2.9170
 7.3870	 2.9610
 7.3970	 2.9420
 7.4080	 2.9610
 7.4180	 2.9210
 7.4290	 2.9900
 7.4400	 2.9610
 7.4500	 2.9980
 7.4610	 2.9520
 7.4720	 2.9410
 7.4830	 2.8820
 7.4930	 2.9150
 7.5040	 2.8740
 7.5150	 2.8920
 7.5260	 2.8470
 7.5370	 2.9140
 7.5480	 2.8790
 7.5590	 2.8970
 7.5700	 2.8450
 7.5810	 2.8720
 7.5920	 2.8270
 7.6030	 2.8790
 7.6140	 2.8240
 7.6260	 2.8590
 7.6370	 2.8020
 7.6480	 2.7750
 7.6590	 2.7500
 7.6710	 2.8140
 7.6820	 2.7810
 7.6940	 2.8220
 7.7050	 2.7810
 7.7160	 2.8600
 7.7280	 2.8350
 7.7390	 2.8290
 7.7510	 2.7470
 7.7630	 2.7620
 7.7740	 2.7840
 7.7860	 2.8120
 7.7980	 2.7350
 7.8090	 2.8010
 7.8210	 2.7820
 7.8330	 2.7950
 7.8450	 2.7400
 7.8570	 2.8140
 7.8690	 2.8130
 7.8810	 2.8520
 7.8930	 2.8050
 7.9050	 2.8660
 7.9170	 2.8310
 7.9290	 2.8370
 7.9410	 2.7760
 7.9530	 2.8080
 7.9650	 2.7500
 7.9780	 2.7970
 7.9900	 2.7970
 8.0020	 2.8480
 8.0150	 2.7970
 8.0270	 2.8570
 8.0390	 2.7790
 8.0520	 2.8460
 8.0640	 2.8270
 8.0770	 2.9060
 8.0900	 2.8850
 8.1020	 2.9280
 8.1150	 2.9190
 8.1280	 3.0120
 8.1400	 2.9310
 8.1530	 3.0000
 8.1660	 2.9840
 8.1790	 3.0540
 8.1920	 2.9760
 8.2050	 3.0110
 8.2180	 2.9630
 8.2310	 3.0410
 8.2440	 3.0000
 8.2570	 3.0430
 8.2700	 2.9910
 8.2830	 3.0750
 8.2970	 3.0110
 8.3100	 3.0680
 8.3230	 3.0630
 8.3370	 3.0940
 8.3500	 3.0150
 8.3640	 3.1130
 8.3770	 3.0790
 8.3910	 3.1590
 8.4040	 3.0840
 8.4180	 3.2170
 8.4320	 3.1840
 8.4450	 3.2310
 8.4590	 3.1680
 8.4730	 3.2220
 8.4870	 3.1440
 8.5010	 3.2870
 8.5150	 3.2710
 8.5290	 3.3520
 8.5430	 3.3260
 8.5570	 3.4140
 8.5710	 3.3760
 8.5850	 3.5550
 8.5990	 3.5320
 8.6140	 3.6060
 8.6280	 3.5830
 8.6420	 3.6590
 8.6570	 3.6040
 8.6710	 3.6770
 8.6860	 3.6110
 8.7000	 3.7650
 8.7150	 3.7180
 8.7300	 3.7000
 8.7440	 3.5860
 8.7590	 3.6170
 8.7740	 3.5610
 8.7890	 3.6230
 8.8040	 3.5700
 8.8190	 3.6570
 8.8340	 3.5270
 8.8490	 3.4990
 8.8640	 3.4050
 8.8790	 3.3950
 8.8940	 3.2880
 8.9100	 3.3650
 8.9250	 3.1850
 8.9400	 3.1920
 8.9560	 3.1710
 8.9710	 3.2220
 8.9870	 3.1280
 9.0020	 3.2050
 9.0180	 3.1430
 9.0340	 3.2560
 9.0500	 3.1880
 9.0650	 3.2910
 9.0810	 3.2460
 9.0970	 3.3190
 9.1130	 3.2150
 9.1290	 3.2710
 9.1450	 3.1980
 9.1620	 3.3510
 9.1780	 3.2860
 9.1940	 3.2120
 9.2100	 3.0540
 9.2270	 3.1970
 9.2430	 3.1030
 9.2600	 3.1280
 9.2760	 3.0080
 9.2930	 3.0650
 9.3100	 2.9650
 9.3260	 3.0350
 9.3430	 3.0120
 9.3600	 3.0370
 9.3770	 2.9460
 9.3940	 3.0840
 9.4110	 3.0160
 9.4280	 3.1230
 9.4450	 3.0550
 9.4620	 3.1360
 9.4800	 3.0410
 9.4970	 3.1030
 9.5150	 3.0350
 9.5320	 3.1350
 9.5500	 3.1080
 9.5670	 3.1850
 9.5850	 3.0430
 9.6030	 3.1580
 9.6200	 3.1110
 9.6380	 3.2030
 9.6560	 3.0950
 9.6740	 3.1480
 9.6920	 3.1550
 9.7110	 3.2870
 9.7290	 3.1610
 9.7470	 3.2590
 9.7650	 3.2140
 9.7840	 3.2810
 9.8020	 3.2090
 9.8210	 3.3840
 9.8390	 3.2730
 9.8580	 3.3280
 9.8770	 3.2980
 9.8960	 3.3290
 9.9150	 3.2550
 9.9340	 3.3820
 9.9530	 3.3160
 9.9720	 3.4160
 9.9910	 3.3530
10.0100	 3.4130
10.0300	 3.3140
10.0490	 3.4220
10.0690	 3.3690
10.0880	 3.4450
10.1080	 3.3840
10.1280	 3.4580
10.1480	 3.3730
10.1670	 3.4650
10.1870	 3.4040
10.2070	 3.4520
10.2280	 3.3400
10.2480	 3.4590
10.2680	 3.3430
10.2890	 3.3650
10.3090	 3.3050
10.3300	 3.4270
10.3500	 3.3240
10.3710	 3.3940
10.3920	 3.3410
10.4120	 3.4610
10.4330	 3.4020
10.4540	 3.4290
10.4760	 3.3240
10.4970	 3.4090
10.5180	 3.2840
10.5390	 3.3890
10.5610	 3.2910
10.5820	 3.3860
10.6040	 3.3000
10.6260	 3.3790
10.6480	 3.3340
10.6700	 3.4260
10.6920	 3.2750
10.7140	 3.3120
10.7360	 3.2370
10.7580	 3.3080
10.7800	 3.1810
10.8030	 3.2590
10.8250	 3.1960
10.8480	 3.2690
10.8710	 3.1480
10.8940	 3.2210
10.9170	 3.1280
10.9400	 3.2160
10.9630	 3.1110
10.9860	 3.1830
11.0090	 3.0470
11.0330	 3.0830
11.0560	 2.9510
11.0800	 3.0440
11.1040	 2.9550
11.1270	 3.1390
11.1510	 3.0460
11.1750	 3.0950
11.2000	 2.9880
11.2240	 3.1090
11.2480	 3.0170
11.2730	 3.0990
11.2970	 2.9780
11.3220	 3.0240
11.3470	 2.8870
11.3720	 2.9450
11.3970	 2.8270
11.4220	 2.9570
11.4470	 2.9280
11.4720	 3.1260
11.4980	 2.9240
11.5230	 2.9140
11.5490	 2.7730
11.5750	 2.8510
11.6000	 2.6990
11.6260	 2.8640
11.6530	 2.7860
11.6790	 2.8100
11.7050	 2.6470
11.7320	 2.7480
11.7580	 2.6820
11.7850	 2.8250
11.8120	 2.6840
11.8390	 2.7810
11.8660	 2.6360
11.8930	 2.7130
11.9200	 2.5930
11.9480	 2.7620
11.9760	 2.7400
12.0030	 2.9320
12.0310	 2.8300
12.0590	 2.8430
12.0870	 2.6890
12.1150	 2.8940
12.1440	 2.7990
12.1720	 2.9270
12.2010	 2.8260
12.2300	 3.0690
12.2590	 2.9170
12.2880	 3.0060
12.3170	 2.8720
12.3460	 2.9860
12.3760	 2.8840
12.4050	 3.0320
12.4350	 2.8690
12.4650	 2.9890
12.4950	 2.8940
12.5250	 3.0780
12.5550	 2.9740
12.5860	 3.0670
12.6170	 2.8990
12.6470	 3.0920
12.6780	 2.9690
12.7090	 3.0460
12.7410	 2.9700
12.7720	 3.2320
12.8030	 3.1270
12.8350	 3.2670
12.8670	 3.1300
12.8990	 3.1350
12.9310	 2.9590
12.9640	 3.1670
12.9960	 3.0370
13.0290	 3.1670
13.0610	 2.9870
13.0940	 3.2070
13.1280	 3.1160
13.1610	 3.2640
13.1940	 3.0700
13.2280	 3.1650
13.2620	 3.0140
13.2960	 3.2320
13.3300	 3.0020
13.3640	 3.1690
13.3990	 3.0750
13.4340	 3.2290
13.4690	 3.0740
13.5040	 3.2690
13.5390	 3.0870
13.5740	 3.3340
13.6100	 3.1870
13.6460	 3.3690
13.6820	 3.2500
13.7180	 3.4210
13.7540	 3.0820
13.7910	 3.2800
13.8280	 3.3050
13.8650	 3.6610
13.9020	 3.6880
13.9390	 3.8720
13.9770	 3.4930
14.0150	 3.6430
14.0530	 3.4910
14.0910	 3.7450
14.1290	 3.5470
14.1680	 3.7000
14.2070	 3.3700
14.2460	 3.6300
14.2850	 3.5080
14.3240	 3.7860
14.3640	 3.5610
14.4040	 3.8090
14.4440	 3.6080
14.4840	 3.7610
14.5250	 3.4620
14.5660	 3.8130
14.6070	 3.6050
14.6480	 3.8570
14.6900	 3.5980
14.7310	 3.8690
14.7730	 3.7910
14.8150	 4.0680
14.8580	 3.5290
14.9010	 3.7920
14.9440	 3.5150
14.9870	 3.9200
15.0300	 3.5210
15.0740	 3.7750
15.1180	 3.5120
15.1620	 3.9120
15.2060	 3.6150
15.2510	 3.9390
15.2960	 3.6960
15.3410	 4.1300
15.3870	 3.6230
