Name: Agave attenuata
Type: vegetation
Class: Shrub
Genus: Agave
Species: attenuata
Sample No.: JPL062
Owner: JPL
Wavelength Range: VSWIR
Origin: 34.12717; - 118.11108; WGS84
Collection Date: 2/2/2016
Description: Samples were collected at the Huntington Garden in San Marino California as part of a JPL Subcontract studying HyTES imagery. Samples were taken to JPL and processed within 48 hours of collection. The same leaves were processed in the Nicolet and then measured using the ASD.
Measurement: Bidirectional reflectance
First Column: X
Second Column: Y
X Units: Wavelength (micrometer)
Y Units: Reflectance (percentage)
First X Value: 0.35
Last X Value: 2.5
Number of X Values: 2151
Additional Information: 

 0.3500	12.9830
 0.3510	11.0160
 0.3520	10.2910
 0.3530	10.3590
 0.3540	10.2390
 0.3550	10.2940
 0.3560	10.4460
 0.3570	10.7010
 0.3580	11.0220
 0.3590	10.7290
 0.3600	10.5250
 0.3610	10.6060
 0.3620	10.2780
 0.3630	10.6370
 0.3640	10.6440
 0.3650	 9.6040
 0.3660	10.1450
 0.3670	10.0510
 0.3680	 9.3850
 0.3690	 9.7600
 0.3700	10.0830
 0.3710	10.1510
 0.3720	 9.9050
 0.3730	 9.2710
 0.3740	 9.0920
 0.3750	 9.5480
 0.3760	10.2670
 0.3770	 9.7490
 0.3780	 9.5690
 0.3790	 9.9410
 0.3800	 9.8500
 0.3810	 9.6970
 0.3820	 9.6390
 0.3830	 9.6680
 0.3840	 9.3870
 0.3850	 9.9200
 0.3860	10.5070
 0.3870	10.0510
 0.3880	 9.6340
 0.3890	 9.3830
 0.3900	 9.3540
 0.3910	 9.5620
 0.3920	 9.9210
 0.3930	10.0400
 0.3940	 9.7150
 0.3950	 9.2290
 0.3960	 9.5410
 0.3970	10.0450
 0.3980	 9.6380
 0.3990	 9.5120
 0.4000	 9.5820
 0.4010	 9.6260
 0.4020	 9.3990
 0.4030	 9.6530
 0.4040	 9.8580
 0.4050	 9.5500
 0.4060	 9.5450
 0.4070	 9.7230
 0.4080	 9.8020
 0.4090	 9.4970
 0.4100	 9.5730
 0.4110	 9.7100
 0.4120	 9.6400
 0.4130	 9.4170
 0.4140	 9.4090
 0.4150	 9.5620
 0.4160	 9.6700
 0.4170	 9.5990
 0.4180	 9.5170
 0.4190	 9.4820
 0.4200	 9.4420
 0.4210	 9.5770
 0.4220	 9.6720
 0.4230	 9.6040
 0.4240	 9.6350
 0.4250	 9.7590
 0.4260	 9.8280
 0.4270	 9.6860
 0.4280	 9.6530
 0.4290	 9.7350
 0.4300	 9.8400
 0.4310	 9.7910
 0.4320	 9.7110
 0.4330	 9.7010
 0.4340	 9.7830
 0.4350	 9.7410
 0.4360	 9.7330
 0.4370	 9.7880
 0.4380	 9.8350
 0.4390	 9.8770
 0.4400	 9.8750
 0.4410	 9.8270
 0.4420	 9.8060
 0.4430	 9.8320
 0.4440	 9.8790
 0.4450	 9.9010
 0.4460	 9.8500
 0.4470	 9.8460
 0.4480	 9.9110
 0.4490	 9.9410
 0.4500	 9.9180
 0.4510	 9.8610
 0.4520	 9.8200
 0.4530	 9.9190
 0.4540	 9.9530
 0.4550	 9.9260
 0.4560	 9.9720
 0.4570	 9.9960
 0.4580	 9.9760
 0.4590	 9.9430
 0.4600	10.0280
 0.4610	 9.9800
 0.4620	 9.8900
 0.4630	 9.9240
 0.4640	 9.9770
 0.4650	 9.9610
 0.4660	 9.8980
 0.4670	 9.9170
 0.4680	 9.9470
 0.4690	 9.9870
 0.4700	10.0140
 0.4710	 9.9140
 0.4720	 9.8630
 0.4730	 9.9040
 0.4740	 9.9850
 0.4750	 9.9610
 0.4760	 9.9550
 0.4770	10.0150
 0.4780	10.0330
 0.4790	10.0140
 0.4800	 9.9910
 0.4810	 9.9950
 0.4820	10.0030
 0.4830	 9.9750
 0.4840	 9.9360
 0.4850	 9.9530
 0.4860	 9.9660
 0.4870	 9.9690
 0.4880	 9.9760
 0.4890	10.0080
 0.4900	10.0450
 0.4910	10.0690
 0.4920	10.0710
 0.4930	10.1160
 0.4940	10.1680
 0.4950	10.1960
 0.4960	10.1840
 0.4970	10.2160
 0.4980	10.2690
 0.4990	10.3070
 0.5000	10.3560
 0.5010	10.4340
 0.5020	10.5280
 0.5030	10.6030
 0.5040	10.7050
 0.5050	10.8100
 0.5060	10.9070
 0.5070	11.0510
 0.5080	11.2400
 0.5090	11.4230
 0.5100	11.5510
 0.5110	11.7620
 0.5120	11.9860
 0.5130	12.1930
 0.5140	12.4360
 0.5150	12.7090
 0.5160	13.0000
 0.5170	13.2920
 0.5180	13.5590
 0.5190	13.8520
 0.5200	14.1860
 0.5210	14.5490
 0.5220	14.8970
 0.5230	15.2360
 0.5240	15.5740
 0.5250	15.8990
 0.5260	16.2180
 0.5270	16.5230
 0.5280	16.7970
 0.5290	17.0560
 0.5300	17.3160
 0.5310	17.5660
 0.5320	17.7660
 0.5330	17.9240
 0.5340	18.0730
 0.5350	18.2340
 0.5360	18.3450
 0.5370	18.4550
 0.5380	18.5590
 0.5390	18.6210
 0.5400	18.6700
 0.5410	18.7280
 0.5420	18.7920
 0.5430	18.8270
 0.5440	18.8700
 0.5450	18.9330
 0.5460	19.0080
 0.5470	19.0360
 0.5480	19.0590
 0.5490	19.1030
 0.5500	19.1580
 0.5510	19.1760
 0.5520	19.1610
 0.5530	19.1340
 0.5540	19.1250
 0.5550	19.0920
 0.5560	19.0220
 0.5570	18.9240
 0.5580	18.8410
 0.5590	18.7310
 0.5600	18.5750
 0.5610	18.4290
 0.5620	18.2670
 0.5630	18.1040
 0.5640	17.9560
 0.5650	17.7650
 0.5660	17.5580
 0.5670	17.3510
 0.5680	17.1370
 0.5690	16.9240
 0.5700	16.6990
 0.5710	16.4610
 0.5720	16.2760
 0.5730	16.0790
 0.5740	15.8670
 0.5750	15.6830
 0.5760	15.5310
 0.5770	15.3730
 0.5780	15.1980
 0.5790	15.0660
 0.5800	14.9480
 0.5810	14.8390
 0.5820	14.7360
 0.5830	14.6280
 0.5840	14.5150
 0.5850	14.4100
 0.5860	14.3350
 0.5870	14.2430
 0.5880	14.1470
 0.5890	14.0680
 0.5900	13.9990
 0.5910	13.9350
 0.5920	13.8690
 0.5930	13.7990
 0.5940	13.7760
 0.5950	13.7580
 0.5960	13.7160
 0.5970	13.6590
 0.5980	13.6010
 0.5990	13.5560
 0.6000	13.5260
 0.6010	13.4820
 0.6020	13.4320
 0.6030	13.3760
 0.6040	13.3060
 0.6050	13.2280
 0.6060	13.1500
 0.6070	13.0730
 0.6080	12.9850
 0.6090	12.8830
 0.6100	12.7570
 0.6110	12.6060
 0.6120	12.5060
 0.6130	12.4420
 0.6140	12.3810
 0.6150	12.2790
 0.6160	12.1720
 0.6170	12.0790
 0.6180	12.0080
 0.6190	11.9370
 0.6200	11.8740
 0.6210	11.8190
 0.6220	11.7750
 0.6230	11.7310
 0.6240	11.6930
 0.6250	11.6650
 0.6260	11.6510
 0.6270	11.6450
 0.6280	11.6360
 0.6290	11.6170
 0.6300	11.6160
 0.6310	11.5910
 0.6320	11.5480
 0.6330	11.5510
 0.6340	11.5210
 0.6350	11.4630
 0.6360	11.4010
 0.6370	11.3520
 0.6380	11.2720
 0.6390	11.1620
 0.6400	11.0520
 0.6410	10.9780
 0.6420	10.8870
 0.6430	10.7660
 0.6440	10.6770
 0.6450	10.5940
 0.6460	10.4990
 0.6470	10.3920
 0.6480	10.3180
 0.6490	10.2670
 0.6500	10.2210
 0.6510	10.1650
 0.6520	10.1590
 0.6530	10.1480
 0.6540	10.1020
 0.6550	10.0730
 0.6560	10.0350
 0.6570	 9.9910
 0.6580	 9.9510
 0.6590	 9.9060
 0.6600	 9.8570
 0.6610	 9.8040
 0.6620	 9.7450
 0.6630	 9.7010
 0.6640	 9.6720
 0.6650	 9.6500
 0.6660	 9.6340
 0.6670	 9.6070
 0.6680	 9.5890
 0.6690	 9.6120
 0.6700	 9.6340
 0.6710	 9.6540
 0.6720	 9.6800
 0.6730	 9.7250
 0.6740	 9.7840
 0.6750	 9.8410
 0.6760	 9.8910
 0.6770	 9.9720
 0.6780	10.0680
 0.6790	10.1660
 0.6800	10.2560
 0.6810	10.3480
 0.6820	10.4610
 0.6830	10.5950
 0.6840	10.7160
 0.6850	10.8460
 0.6860	11.0000
 0.6870	11.1880
 0.6880	11.4090
 0.6890	11.6850
 0.6900	12.0300
 0.6910	12.4480
 0.6920	12.9630
 0.6930	13.5850
 0.6940	14.3150
 0.6950	15.1440
 0.6960	16.0710
 0.6970	17.0820
 0.6980	18.1600
 0.6990	19.3140
 0.7000	20.5250
 0.7010	21.7760
 0.7020	23.0470
 0.7030	24.3420
 0.7040	25.6510
 0.7050	26.9660
 0.7060	28.3060
 0.7070	29.6440
 0.7080	30.9750
 0.7090	32.3100
 0.7100	33.6470
 0.7110	34.9920
 0.7120	36.3430
 0.7130	37.6890
 0.7140	39.0470
 0.7150	40.4020
 0.7160	41.7370
 0.7170	43.0690
 0.7180	44.4060
 0.7190	45.7280
 0.7200	47.0160
 0.7210	48.2830
 0.7220	49.5180
 0.7230	50.7110
 0.7240	51.8630
 0.7250	52.9480
 0.7260	54.0110
 0.7270	55.0720
 0.7280	56.0600
 0.7290	56.9730
 0.7300	57.8260
 0.7310	58.6350
 0.7320	59.3700
 0.7330	60.0640
 0.7340	60.7390
 0.7350	61.3960
 0.7360	61.9590
 0.7370	62.4850
 0.7380	63.0120
 0.7390	63.4630
 0.7400	63.8810
 0.7410	64.2720
 0.7420	64.6330
 0.7430	64.9530
 0.7440	65.2620
 0.7450	65.5500
 0.7460	65.7690
 0.7470	65.9530
 0.7480	66.1200
 0.7490	66.2700
 0.7500	66.3880
 0.7510	66.4940
 0.7520	66.5790
 0.7530	66.6370
 0.7540	66.7390
 0.7550	66.8040
 0.7560	66.8240
 0.7570	66.8540
 0.7580	66.9050
 0.7590	66.9410
 0.7600	66.9530
 0.7610	66.9750
 0.7620	67.0010
 0.7630	67.0020
 0.7640	66.9640
 0.7650	66.9590
 0.7660	66.9550
 0.7670	66.9400
 0.7680	66.9240
 0.7690	66.9370
 0.7700	66.9380
 0.7710	66.9110
 0.7720	66.8910
 0.7730	66.8650
 0.7740	66.8540
 0.7750	66.8650
 0.7760	66.8540
 0.7770	66.8330
 0.7780	66.8190
 0.7790	66.8260
 0.7800	66.8590
 0.7810	66.8750
 0.7820	66.8590
 0.7830	66.8290
 0.7840	66.8440
 0.7850	66.8760
 0.7860	66.8890
 0.7870	66.8540
 0.7880	66.8660
 0.7890	66.8910
 0.7900	66.8740
 0.7910	66.8840
 0.7920	66.9190
 0.7930	66.9420
 0.7940	66.9070
 0.7950	66.9140
 0.7960	66.9240
 0.7970	66.9250
 0.7980	66.9560
 0.7990	66.9620
 0.8000	66.9440
 0.8010	66.9230
 0.8020	66.9420
 0.8030	66.9420
 0.8040	66.9220
 0.8050	66.9050
 0.8060	66.9130
 0.8070	66.9220
 0.8080	66.9170
 0.8090	66.8910
 0.8100	66.8630
 0.8110	66.8450
 0.8120	66.8390
 0.8130	66.8310
 0.8140	66.7960
 0.8150	66.7590
 0.8160	66.7430
 0.8170	66.7310
 0.8180	66.7110
 0.8190	66.6760
 0.8200	66.6270
 0.8210	66.5940
 0.8220	66.5570
 0.8230	66.5070
 0.8240	66.4450
 0.8250	66.3800
 0.8260	66.3140
 0.8270	66.2360
 0.8280	66.1240
 0.8290	66.0560
 0.8300	65.9990
 0.8310	65.9120
 0.8320	65.8180
 0.8330	65.7300
 0.8340	65.6690
 0.8350	65.6480
 0.8360	65.6120
 0.8370	65.5480
 0.8380	65.4870
 0.8390	65.4890
 0.8400	65.4780
 0.8410	65.4430
 0.8420	65.4030
 0.8430	65.3960
 0.8440	65.3960
 0.8450	65.3940
 0.8460	65.3810
 0.8470	65.3360
 0.8480	65.3010
 0.8490	65.2750
 0.8500	65.2500
 0.8510	65.2650
 0.8520	65.2520
 0.8530	65.2250
 0.8540	65.2340
 0.8550	65.2220
 0.8560	65.2110
 0.8570	65.2070
 0.8580	65.1890
 0.8590	65.2140
 0.8600	65.2230
 0.8610	65.1850
 0.8620	65.1470
 0.8630	65.1590
 0.8640	65.1720
 0.8650	65.1460
 0.8660	65.1330
 0.8670	65.1140
 0.8680	65.0990
 0.8690	65.1040
 0.8700	65.1120
 0.8710	65.0810
 0.8720	65.0300
 0.8730	65.0130
 0.8740	65.0140
 0.8750	65.0160
 0.8760	65.0040
 0.8770	64.9680
 0.8780	64.9560
 0.8790	64.9260
 0.8800	64.8770
 0.8810	64.8860
 0.8820	64.8610
 0.8830	64.8180
 0.8840	64.7860
 0.8850	64.7600
 0.8860	64.7380
 0.8870	64.7160
 0.8880	64.6860
 0.8890	64.6460
 0.8900	64.6340
 0.8910	64.6180
 0.8920	64.5580
 0.8930	64.5210
 0.8940	64.5060
 0.8950	64.4830
 0.8960	64.4270
 0.8970	64.4390
 0.8980	64.4150
 0.8990	64.3550
 0.9000	64.3660
 0.9010	64.3460
 0.9020	64.3030
 0.9030	64.2550
 0.9040	64.2200
 0.9050	64.1960
 0.9060	64.1600
 0.9070	64.1030
 0.9080	64.0540
 0.9090	64.0010
 0.9100	63.9330
 0.9110	63.8550
 0.9120	63.8120
 0.9130	63.7680
 0.9140	63.7070
 0.9150	63.6220
 0.9160	63.5370
 0.9170	63.4250
 0.9180	63.2960
 0.9190	63.1810
 0.9200	63.1070
 0.9210	62.9660
 0.9220	62.7730
 0.9230	62.6070
 0.9240	62.4620
 0.9250	62.2970
 0.9260	62.0980
 0.9270	61.8760
 0.9280	61.6680
 0.9290	61.4400
 0.9300	61.1740
 0.9310	60.8880
 0.9320	60.6790
 0.9330	60.4240
 0.9340	60.1030
 0.9350	59.8520
 0.9360	59.5430
 0.9370	59.2230
 0.9380	58.9250
 0.9390	58.6210
 0.9400	58.3490
 0.9410	58.0420
 0.9420	57.6760
 0.9430	57.3340
 0.9440	56.9580
 0.9450	56.5830
 0.9460	56.2170
 0.9470	55.7780
 0.9480	55.3600
 0.9490	54.8860
 0.9500	54.3250
 0.9510	53.8730
 0.9520	53.4460
 0.9530	52.9680
 0.9540	52.4340
 0.9550	52.0560
 0.9560	51.6990
 0.9570	51.2860
 0.9580	50.8290
 0.9590	50.5560
 0.9600	50.3000
 0.9610	50.0540
 0.9620	49.8610
 0.9630	49.7010
 0.9640	49.6030
 0.9650	49.4990
 0.9660	49.3250
 0.9670	49.2020
 0.9680	49.0820
 0.9690	49.0070
 0.9700	49.0170
 0.9710	48.9670
 0.9720	48.8860
 0.9730	48.8280
 0.9740	48.8350
 0.9750	48.8580
 0.9760	48.7950
 0.9770	48.7150
 0.9780	48.7350
 0.9790	48.7770
 0.9800	48.8100
 0.9810	48.8370
 0.9820	48.8800
 0.9830	48.9240
 0.9840	48.9560
 0.9850	48.9900
 0.9860	49.0590
 0.9870	49.2440
 0.9880	49.2880
 0.9890	49.2450
 0.9900	49.3110
 0.9910	49.4810
 0.9920	49.6280
 0.9930	49.7310
 0.9940	49.8130
 0.9950	49.8110
 0.9960	49.8970
 0.9970	50.1070
 0.9980	50.3640
 0.9990	50.4730
 1.0000	50.4750
 1.0010	51.0500
 1.0020	51.2100
 1.0030	51.3630
 1.0040	51.5550
 1.0050	51.7530
 1.0060	51.8930
 1.0070	52.0540
 1.0080	52.2190
 1.0090	52.3910
 1.0100	52.5520
 1.0110	52.7150
 1.0120	52.8770
 1.0130	53.0180
 1.0140	53.1930
 1.0150	53.4010
 1.0160	53.5810
 1.0170	53.7750
 1.0180	53.9570
 1.0190	54.1390
 1.0200	54.3440
 1.0210	54.5190
 1.0220	54.6960
 1.0230	54.8880
 1.0240	55.0730
 1.0250	55.2720
 1.0260	55.5200
 1.0270	55.7050
 1.0280	55.8390
 1.0290	56.0070
 1.0300	56.1530
 1.0310	56.3330
 1.0320	56.5600
 1.0330	56.7700
 1.0340	56.9740
 1.0350	57.1480
 1.0360	57.2710
 1.0370	57.4190
 1.0380	57.5590
 1.0390	57.6790
 1.0400	57.8140
 1.0410	57.9610
 1.0420	58.1060
 1.0430	58.2570
 1.0440	58.3990
 1.0450	58.5570
 1.0460	58.6870
 1.0470	58.7790
 1.0480	58.9050
 1.0490	59.0510
 1.0500	59.1710
 1.0510	59.2870
 1.0520	59.4220
 1.0530	59.5200
 1.0540	59.5800
 1.0550	59.6600
 1.0560	59.7380
 1.0570	59.8170
 1.0580	59.8890
 1.0590	59.9730
 1.0600	60.0840
 1.0610	60.1550
 1.0620	60.2180
 1.0630	60.2680
 1.0640	60.2850
 1.0650	60.3080
 1.0660	60.3170
 1.0670	60.3460
 1.0680	60.3820
 1.0690	60.4320
 1.0700	60.4480
 1.0710	60.4710
 1.0720	60.4740
 1.0730	60.4410
 1.0740	60.4210
 1.0750	60.4150
 1.0760	60.3850
 1.0770	60.3330
 1.0780	60.2890
 1.0790	60.2450
 1.0800	60.1900
 1.0810	60.1330
 1.0820	60.0690
 1.0830	60.0040
 1.0840	59.9220
 1.0850	59.8160
 1.0860	59.7320
 1.0870	59.6360
 1.0880	59.5270
 1.0890	59.4250
 1.0900	59.3310
 1.0910	59.2250
 1.0920	59.1090
 1.0930	59.0010
 1.0940	58.8920
 1.0950	58.7870
 1.0960	58.6860
 1.0970	58.5840
 1.0980	58.4900
 1.0990	58.3840
 1.1000	58.2830
 1.1010	58.1610
 1.1020	58.0120
 1.1030	57.8750
 1.1040	57.7340
 1.1050	57.5890
 1.1060	57.4690
 1.1070	57.3770
 1.1080	57.2530
 1.1090	57.1360
 1.1100	57.0020
 1.1110	56.8460
 1.1120	56.7010
 1.1130	56.5590
 1.1140	56.4090
 1.1150	56.2540
 1.1160	56.0900
 1.1170	55.9240
 1.1180	55.7460
 1.1190	55.5540
 1.1200	55.3730
 1.1210	55.1540
 1.1220	54.9010
 1.1230	54.6190
 1.1240	54.3010
 1.1250	53.9730
 1.1260	53.6330
 1.1270	53.2530
 1.1280	52.8580
 1.1290	52.4150
 1.1300	51.9330
 1.1310	51.4220
 1.1320	50.8830
 1.1330	50.3060
 1.1340	49.6920
 1.1350	49.0510
 1.1360	48.3690
 1.1370	47.6670
 1.1380	46.9710
 1.1390	46.2780
 1.1400	45.6090
 1.1410	44.9460
 1.1420	44.2810
 1.1430	43.6330
 1.1440	43.0220
 1.1450	42.4260
 1.1460	41.8660
 1.1470	41.3390
 1.1480	40.8420
 1.1490	40.3610
 1.1500	39.9350
 1.1510	39.5540
 1.1520	39.1980
 1.1530	38.8780
 1.1540	38.5880
 1.1550	38.3300
 1.1560	38.0940
 1.1570	37.8920
 1.1580	37.7170
 1.1590	37.5460
 1.1600	37.3970
 1.1610	37.2700
 1.1620	37.1620
 1.1630	37.0740
 1.1640	37.0010
 1.1650	36.9250
 1.1660	36.8560
 1.1670	36.7900
 1.1680	36.7200
 1.1690	36.6660
 1.1700	36.6280
 1.1710	36.5810
 1.1720	36.5390
 1.1730	36.4980
 1.1740	36.4560
 1.1750	36.4120
 1.1760	36.3810
 1.1770	36.3460
 1.1780	36.3060
 1.1790	36.2700
 1.1800	36.2280
 1.1810	36.1750
 1.1820	36.1300
 1.1830	36.0880
 1.1840	36.0500
 1.1850	36.0170
 1.1860	35.9810
 1.1870	35.9440
 1.1880	35.9070
 1.1890	35.8660
 1.1900	35.8310
 1.1910	35.7960
 1.1920	35.7680
 1.1930	35.7430
 1.1940	35.7260
 1.1950	35.7150
 1.1960	35.7070
 1.1970	35.7090
 1.1980	35.7010
 1.1990	35.6960
 1.2000	35.6950
 1.2010	35.6900
 1.2020	35.7050
 1.2030	35.7320
 1.2040	35.7580
 1.2050	35.7820
 1.2060	35.7980
 1.2070	35.8170
 1.2080	35.8510
 1.2090	35.8870
 1.2100	35.9220
 1.2110	35.9560
 1.2120	35.9820
 1.2130	36.0130
 1.2140	36.0480
 1.2150	36.0860
 1.2160	36.1260
 1.2170	36.1640
 1.2180	36.2180
 1.2190	36.2590
 1.2200	36.2990
 1.2210	36.3510
 1.2220	36.3920
 1.2230	36.4370
 1.2240	36.4890
 1.2250	36.5390
 1.2260	36.5880
 1.2270	36.6330
 1.2280	36.6720
 1.2290	36.7110
 1.2300	36.7530
 1.2310	36.7950
 1.2320	36.8430
 1.2330	36.8970
 1.2340	36.9470
 1.2350	36.9960
 1.2360	37.0460
 1.2370	37.0990
 1.2380	37.1440
 1.2390	37.1840
 1.2400	37.2270
 1.2410	37.2720
 1.2420	37.3210
 1.2430	37.3790
 1.2440	37.4280
 1.2450	37.4670
 1.2460	37.5020
 1.2470	37.5360
 1.2480	37.5740
 1.2490	37.6260
 1.2500	37.6610
 1.2510	37.6860
 1.2520	37.7230
 1.2530	37.7420
 1.2540	37.7690
 1.2550	37.8070
 1.2560	37.8270
 1.2570	37.8500
 1.2580	37.8760
 1.2590	37.8980
 1.2600	37.9170
 1.2610	37.9320
 1.2620	37.9450
 1.2630	37.9500
 1.2640	37.9510
 1.2650	37.9530
 1.2660	37.9560
 1.2670	37.9500
 1.2680	37.9440
 1.2690	37.9290
 1.2700	37.9070
 1.2710	37.8950
 1.2720	37.8760
 1.2730	37.8520
 1.2740	37.8280
 1.2750	37.7930
 1.2760	37.7490
 1.2770	37.6950
 1.2780	37.6360
 1.2790	37.5760
 1.2800	37.5070
 1.2810	37.4410
 1.2820	37.3630
 1.2830	37.2690
 1.2840	37.1790
 1.2850	37.0790
 1.2860	36.9760
 1.2870	36.8750
 1.2880	36.7790
 1.2890	36.6680
 1.2900	36.5500
 1.2910	36.4350
 1.2920	36.3090
 1.2930	36.1770
 1.2940	36.0450
 1.2950	35.9040
 1.2960	35.7520
 1.2970	35.6000
 1.2980	35.4350
 1.2990	35.2590
 1.3000	35.0930
 1.3010	34.9150
 1.3020	34.7360
 1.3030	34.5510
 1.3040	34.3430
 1.3050	34.1350
 1.3060	33.9240
 1.3070	33.7080
 1.3080	33.4960
 1.3090	33.2830
 1.3100	33.0680
 1.3110	32.8530
 1.3120	32.6330
 1.3130	32.3960
 1.3140	32.1530
 1.3150	31.8980
 1.3160	31.6470
 1.3170	31.3920
 1.3180	31.1410
 1.3190	30.8870
 1.3200	30.6310
 1.3210	30.3680
 1.3220	30.1040
 1.3230	29.8450
 1.3240	29.5820
 1.3250	29.3180
 1.3260	29.0550
 1.3270	28.7990
 1.3280	28.5400
 1.3290	28.2780
 1.3300	28.0250
 1.3310	27.7630
 1.3320	27.5010
 1.3330	27.2460
 1.3340	26.9970
 1.3350	26.7530
 1.3360	26.5080
 1.3370	26.2740
 1.3380	26.0470
 1.3390	25.8210
 1.3400	25.6080
 1.3410	25.4020
 1.3420	25.1980
 1.3430	24.9970
 1.3440	24.8020
 1.3450	24.6080
 1.3460	24.4150
 1.3470	24.2320
 1.3480	24.0530
 1.3490	23.8760
 1.3500	23.7040
 1.3510	23.5380
 1.3520	23.3730
 1.3530	23.2230
 1.3540	23.0710
 1.3550	22.9160
 1.3560	22.7660
 1.3570	22.6070
 1.3580	22.4490
 1.3590	22.2910
 1.3600	22.1290
 1.3610	21.9610
 1.3620	21.7870
 1.3630	21.6130
 1.3640	21.4250
 1.3650	21.2280
 1.3660	21.0290
 1.3670	20.8140
 1.3680	20.5880
 1.3690	20.3540
 1.3700	20.1030
 1.3710	19.8460
 1.3720	19.5870
 1.3730	19.3120
 1.3740	19.0220
 1.3750	18.7230
 1.3760	18.4060
 1.3770	18.0710
 1.3780	17.7290
 1.3790	17.3770
 1.3800	17.0140
 1.3810	16.6460
 1.3820	16.2750
 1.3830	15.8980
 1.3840	15.5260
 1.3850	15.1520
 1.3860	14.7850
 1.3870	14.4170
 1.3880	14.0640
 1.3890	13.7180
 1.3900	13.3820
 1.3910	13.0650
 1.3920	12.7580
 1.3930	12.4600
 1.3940	12.1780
 1.3950	11.9090
 1.3960	11.6560
 1.3970	11.4260
 1.3980	11.2140
 1.3990	11.0230
 1.4000	10.8470
 1.4010	10.6810
 1.4020	10.5220
 1.4030	10.3730
 1.4040	10.2340
 1.4050	10.1100
 1.4060	10.0020
 1.4070	 9.9070
 1.4080	 9.8210
 1.4090	 9.7440
 1.4100	 9.6700
 1.4110	 9.5950
 1.4120	 9.5290
 1.4130	 9.4690
 1.4140	 9.4100
 1.4150	 9.3600
 1.4160	 9.3180
 1.4170	 9.2770
 1.4180	 9.2390
 1.4190	 9.2050
 1.4200	 9.1690
 1.4210	 9.1350
 1.4220	 9.1050
 1.4230	 9.0770
 1.4240	 9.0550
 1.4250	 9.0320
 1.4260	 9.0100
 1.4270	 8.9890
 1.4280	 8.9690
 1.4290	 8.9500
 1.4300	 8.9320
 1.4310	 8.9180
 1.4320	 8.9080
 1.4330	 8.8970
 1.4340	 8.8930
 1.4350	 8.8830
 1.4360	 8.8710
 1.4370	 8.8570
 1.4380	 8.8460
 1.4390	 8.8360
 1.4400	 8.8290
 1.4410	 8.8250
 1.4420	 8.8200
 1.4430	 8.8130
 1.4440	 8.8060
 1.4450	 8.8010
 1.4460	 8.7990
 1.4470	 8.7980
 1.4480	 8.8000
 1.4490	 8.7990
 1.4500	 8.7940
 1.4510	 8.7910
 1.4520	 8.7900
 1.4530	 8.7890
 1.4540	 8.7870
 1.4550	 8.7890
 1.4560	 8.7900
 1.4570	 8.7890
 1.4580	 8.7910
 1.4590	 8.7920
 1.4600	 8.7950
 1.4610	 8.7970
 1.4620	 8.8000
 1.4630	 8.8100
 1.4640	 8.8220
 1.4650	 8.8370
 1.4660	 8.8530
 1.4670	 8.8680
 1.4680	 8.8800
 1.4690	 8.8930
 1.4700	 8.9090
 1.4710	 8.9210
 1.4720	 8.9320
 1.4730	 8.9460
 1.4740	 8.9600
 1.4750	 8.9770
 1.4760	 8.9950
 1.4770	 9.0100
 1.4780	 9.0290
 1.4790	 9.0510
 1.4800	 9.0750
 1.4810	 9.1020
 1.4820	 9.1270
 1.4830	 9.1480
 1.4840	 9.1690
 1.4850	 9.1910
 1.4860	 9.2130
 1.4870	 9.2400
 1.4880	 9.2670
 1.4890	 9.2940
 1.4900	 9.3220
 1.4910	 9.3520
 1.4920	 9.3810
 1.4930	 9.4120
 1.4940	 9.4410
 1.4950	 9.4690
 1.4960	 9.4990
 1.4970	 9.5300
 1.4980	 9.5630
 1.4990	 9.6000
 1.5000	 9.6340
 1.5010	 9.6660
 1.5020	 9.7010
 1.5030	 9.7370
 1.5040	 9.7740
 1.5050	 9.8130
 1.5060	 9.8520
 1.5070	 9.8880
 1.5080	 9.9270
 1.5090	 9.9670
 1.5100	10.0060
 1.5110	10.0420
 1.5120	10.0810
 1.5130	10.1220
 1.5140	10.1650
 1.5150	10.2100
 1.5160	10.2530
 1.5170	10.2960
 1.5180	10.3370
 1.5190	10.3790
 1.5200	10.4260
 1.5210	10.4690
 1.5220	10.5080
 1.5230	10.5490
 1.5240	10.5900
 1.5250	10.6320
 1.5260	10.6800
 1.5270	10.7290
 1.5280	10.7750
 1.5290	10.8240
 1.5300	10.8710
 1.5310	10.9170
 1.5320	10.9660
 1.5330	11.0150
 1.5340	11.0630
 1.5350	11.1150
 1.5360	11.1660
 1.5370	11.2180
 1.5380	11.2740
 1.5390	11.3300
 1.5400	11.3830
 1.5410	11.4330
 1.5420	11.4820
 1.5430	11.5330
 1.5440	11.5860
 1.5450	11.6380
 1.5460	11.6900
 1.5470	11.7450
 1.5480	11.7940
 1.5490	11.8500
 1.5500	11.9070
 1.5510	11.9580
 1.5520	12.0150
 1.5530	12.0680
 1.5540	12.1180
 1.5550	12.1710
 1.5560	12.2270
 1.5570	12.2870
 1.5580	12.3430
 1.5590	12.3990
 1.5600	12.4540
 1.5610	12.5030
 1.5620	12.5530
 1.5630	12.6100
 1.5640	12.6630
 1.5650	12.7160
 1.5660	12.7730
 1.5670	12.8280
 1.5680	12.8860
 1.5690	12.9420
 1.5700	12.9960
 1.5710	13.0480
 1.5720	13.0950
 1.5730	13.1420
 1.5740	13.1900
 1.5750	13.2410
 1.5760	13.2940
 1.5770	13.3480
 1.5780	13.4010
 1.5790	13.4590
 1.5800	13.5120
 1.5810	13.5590
 1.5820	13.6080
 1.5830	13.6530
 1.5840	13.7000
 1.5850	13.7540
 1.5860	13.8060
 1.5870	13.8540
 1.5880	13.9010
 1.5890	13.9440
 1.5900	13.9900
 1.5910	14.0440
 1.5920	14.0960
 1.5930	14.1480
 1.5940	14.1990
 1.5950	14.2450
 1.5960	14.2870
 1.5970	14.3300
 1.5980	14.3700
 1.5990	14.4130
 1.6000	14.4570
 1.6010	14.5010
 1.6020	14.5510
 1.6030	14.5970
 1.6040	14.6410
 1.6050	14.6860
 1.6060	14.7260
 1.6070	14.7670
 1.6080	14.8110
 1.6090	14.8500
 1.6100	14.8890
 1.6110	14.9260
 1.6120	14.9570
 1.6130	14.9880
 1.6140	15.0220
 1.6150	15.0580
 1.6160	15.0990
 1.6170	15.1410
 1.6180	15.1830
 1.6190	15.2220
 1.6200	15.2560
 1.6210	15.2900
 1.6220	15.3200
 1.6230	15.3500
 1.6240	15.3880
 1.6250	15.4260
 1.6260	15.4610
 1.6270	15.4970
 1.6280	15.5230
 1.6290	15.5520
 1.6300	15.5800
 1.6310	15.6120
 1.6320	15.6480
 1.6330	15.6790
 1.6340	15.7090
 1.6350	15.7400
 1.6360	15.7640
 1.6370	15.7950
 1.6380	15.8300
 1.6390	15.8640
 1.6400	15.9020
 1.6410	15.9330
 1.6420	15.9670
 1.6430	15.9910
 1.6440	16.0000
 1.6450	16.0240
 1.6460	16.0420
 1.6470	16.0670
 1.6480	16.0950
 1.6490	16.1170
 1.6500	16.1360
 1.6510	16.1590
 1.6520	16.1810
 1.6530	16.1960
 1.6540	16.2170
 1.6550	16.2350
 1.6560	16.2510
 1.6570	16.2700
 1.6580	16.2920
 1.6590	16.3110
 1.6600	16.3280
 1.6610	16.3440
 1.6620	16.3500
 1.6630	16.3620
 1.6640	16.3740
 1.6650	16.3830
 1.6660	16.4010
 1.6670	16.4100
 1.6680	16.4190
 1.6690	16.4300
 1.6700	16.4340
 1.6710	16.4450
 1.6720	16.4520
 1.6730	16.4610
 1.6740	16.4730
 1.6750	16.4750
 1.6760	16.4690
 1.6770	16.4600
 1.6780	16.4480
 1.6790	16.4440
 1.6800	16.4500
 1.6810	16.4560
 1.6820	16.4600
 1.6830	16.4500
 1.6840	16.4350
 1.6850	16.4240
 1.6860	16.4100
 1.6870	16.4060
 1.6880	16.4030
 1.6890	16.3910
 1.6900	16.3820
 1.6910	16.3690
 1.6920	16.3570
 1.6930	16.3500
 1.6940	16.3360
 1.6950	16.3160
 1.6960	16.2980
 1.6970	16.2760
 1.6980	16.2550
 1.6990	16.2350
 1.7000	16.2140
 1.7010	16.1930
 1.7020	16.1710
 1.7030	16.1510
 1.7040	16.1290
 1.7050	16.1060
 1.7060	16.0820
 1.7070	16.0590
 1.7080	16.0340
 1.7090	16.0040
 1.7100	15.9800
 1.7110	15.9600
 1.7120	15.9360
 1.7130	15.9100
 1.7140	15.8610
 1.7150	15.8160
 1.7160	15.7780
 1.7170	15.7390
 1.7180	15.7110
 1.7190	15.6880
 1.7200	15.6470
 1.7210	15.6060
 1.7220	15.5700
 1.7230	15.5270
 1.7240	15.4870
 1.7250	15.4480
 1.7260	15.4010
 1.7270	15.3550
 1.7280	15.3120
 1.7290	15.2740
 1.7300	15.2390
 1.7310	15.1980
 1.7320	15.1510
 1.7330	15.1100
 1.7340	15.0730
 1.7350	15.0330
 1.7360	14.9970
 1.7370	14.9570
 1.7380	14.9110
 1.7390	14.8650
 1.7400	14.8150
 1.7410	14.7700
 1.7420	14.7270
 1.7430	14.6790
 1.7440	14.6360
 1.7450	14.5850
 1.7460	14.5200
 1.7470	14.4690
 1.7480	14.4220
 1.7490	14.3740
 1.7500	14.3350
 1.7510	14.2840
 1.7520	14.2290
 1.7530	14.1720
 1.7540	14.1110
 1.7550	14.0560
 1.7560	14.0000
 1.7570	13.9480
 1.7580	13.8990
 1.7590	13.8450
 1.7600	13.7960
 1.7610	13.7450
 1.7620	13.6960
 1.7630	13.6510
 1.7640	13.6050
 1.7650	13.5520
 1.7660	13.5130
 1.7670	13.4860
 1.7680	13.4530
 1.7690	13.4300
 1.7700	13.4000
 1.7710	13.3580
 1.7720	13.3250
 1.7730	13.2970
 1.7740	13.2680
 1.7750	13.2410
 1.7760	13.2140
 1.7770	13.1830
 1.7780	13.1600
 1.7790	13.1390
 1.7800	13.1230
 1.7810	13.1140
 1.7820	13.1000
 1.7830	13.0890
 1.7840	13.0700
 1.7850	13.0450
 1.7860	13.0280
 1.7870	13.0080
 1.7880	13.0110
 1.7890	13.0150
 1.7900	13.0220
 1.7910	13.0200
 1.7920	13.0010
 1.7930	12.9900
 1.7940	12.9750
 1.7950	12.9710
 1.7960	12.9800
 1.7970	12.9870
 1.7980	13.0040
 1.7990	13.0130
 1.8000	13.0150
 1.8010	13.0200
 1.8020	13.0220
 1.8030	13.0250
 1.8040	13.0310
 1.8050	13.0370
 1.8060	13.0450
 1.8070	13.0460
 1.8080	13.0430
 1.8090	13.0410
 1.8100	13.0370
 1.8110	13.0340
 1.8120	13.0330
 1.8130	13.0420
 1.8140	13.0430
 1.8150	13.0440
 1.8160	13.0490
 1.8170	13.0370
 1.8180	13.0210
 1.8190	13.0200
 1.8200	13.0200
 1.8210	13.0350
 1.8220	13.0340
 1.8230	13.0320
 1.8240	13.0130
 1.8250	12.9620
 1.8260	12.9440
 1.8270	12.9280
 1.8280	12.9230
 1.8290	12.9550
 1.8300	12.9540
 1.8310	13.2140
 1.8320	13.1990
 1.8330	13.1960
 1.8340	13.1740
 1.8350	13.1540
 1.8360	13.1390
 1.8370	13.1120
 1.8380	13.0870
 1.8390	13.0420
 1.8400	12.9630
 1.8410	12.9070
 1.8420	12.8500
 1.8430	12.8000
 1.8440	12.7600
 1.8450	12.7080
 1.8460	12.6270
 1.8470	12.5550
 1.8480	12.4830
 1.8490	12.4040
 1.8500	12.3310
 1.8510	12.2750
 1.8520	12.1880
 1.8530	12.0950
 1.8540	12.0210
 1.8550	11.9250
 1.8560	11.8320
 1.8570	11.7380
 1.8580	11.6230
 1.8590	11.5110
 1.8600	11.3980
 1.8610	11.2800
 1.8620	11.1610
 1.8630	11.0380
 1.8640	10.9060
 1.8650	10.7870
 1.8660	10.6420
 1.8670	10.4970
 1.8680	10.3790
 1.8690	10.2280
 1.8700	10.0980
 1.8710	 9.9880
 1.8720	 9.8900
 1.8730	 9.7510
 1.8740	 9.6310
 1.8750	 9.5040
 1.8760	 9.3710
 1.8770	 9.2710
 1.8780	 9.1820
 1.8790	 9.1030
 1.8800	 9.0230
 1.8810	 8.9480
 1.8820	 8.8730
 1.8830	 8.7990
 1.8840	 8.7210
 1.8850	 8.6580
 1.8860	 8.5970
 1.8870	 8.5470
 1.8880	 8.5090
 1.8890	 8.4620
 1.8900	 8.4050
 1.8910	 8.3590
 1.8920	 8.3140
 1.8930	 8.2700
 1.8940	 8.2430
 1.8950	 8.2270
 1.8960	 8.2070
 1.8970	 8.1910
 1.8980	 8.1530
 1.8990	 8.1240
 1.9000	 8.0970
 1.9010	 8.0590
 1.9020	 8.0350
 1.9030	 8.0250
 1.9040	 8.0140
 1.9050	 8.0100
 1.9060	 8.0120
 1.9070	 8.0120
 1.9080	 8.0090
 1.9090	 8.0100
 1.9100	 7.9990
 1.9110	 7.9880
 1.9120	 7.9730
 1.9130	 7.9640
 1.9140	 7.9470
 1.9150	 7.9510
 1.9160	 7.9690
 1.9170	 7.9630
 1.9180	 7.9550
 1.9190	 7.9410
 1.9200	 7.9170
 1.9210	 7.9050
 1.9220	 7.9020
 1.9230	 7.9140
 1.9240	 7.9220
 1.9250	 7.9390
 1.9260	 7.9510
 1.9270	 7.9480
 1.9280	 7.9360
 1.9290	 7.9210
 1.9300	 7.9140
 1.9310	 7.9170
 1.9320	 7.9230
 1.9330	 7.9210
 1.9340	 7.9100
 1.9350	 7.9040
 1.9360	 7.8960
 1.9370	 7.8950
 1.9380	 7.8980
 1.9390	 7.9060
 1.9400	 7.9190
 1.9410	 7.9270
 1.9420	 7.9260
 1.9430	 7.9320
 1.9440	 7.9380
 1.9450	 7.9420
 1.9460	 7.9440
 1.9470	 7.9460
 1.9480	 7.9530
 1.9490	 7.9570
 1.9500	 7.9640
 1.9510	 7.9830
 1.9520	 8.0040
 1.9530	 8.0070
 1.9540	 7.9970
 1.9550	 7.9920
 1.9560	 7.9690
 1.9570	 7.9690
 1.9580	 7.9900
 1.9590	 7.9950
 1.9600	 8.0010
 1.9610	 8.0040
 1.9620	 7.9900
 1.9630	 7.9930
 1.9640	 8.0030
 1.9650	 8.0170
 1.9660	 8.0340
 1.9670	 8.0350
 1.9680	 8.0340
 1.9690	 8.0200
 1.9700	 8.0220
 1.9710	 8.0210
 1.9720	 8.0280
 1.9730	 8.0510
 1.9740	 8.0650
 1.9750	 8.0610
 1.9760	 8.0850
 1.9770	 8.1120
 1.9780	 8.1230
 1.9790	 8.1300
 1.9800	 8.1360
 1.9810	 8.1390
 1.9820	 8.1280
 1.9830	 8.1250
 1.9840	 8.1240
 1.9850	 8.1290
 1.9860	 8.1320
 1.9870	 8.1460
 1.9880	 8.1580
 1.9890	 8.1780
 1.9900	 8.1870
 1.9910	 8.1890
 1.9920	 8.2010
 1.9930	 8.2200
 1.9940	 8.2250
 1.9950	 8.2270
 1.9960	 8.2290
 1.9970	 8.2140
 1.9980	 8.2160
 1.9990	 8.2310
 2.0000	 8.2480
 2.0010	 8.2620
 2.0020	 8.2680
 2.0030	 8.2750
 2.0040	 8.2830
 2.0050	 8.2900
 2.0060	 8.3030
 2.0070	 8.3130
 2.0080	 8.3080
 2.0090	 8.3210
 2.0100	 8.3510
 2.0110	 8.3730
 2.0120	 8.4050
 2.0130	 8.4310
 2.0140	 8.4410
 2.0150	 8.4230
 2.0160	 8.4170
 2.0170	 8.4180
 2.0180	 8.4220
 2.0190	 8.4460
 2.0200	 8.4490
 2.0210	 8.4370
 2.0220	 8.4370
 2.0230	 8.4370
 2.0240	 8.4360
 2.0250	 8.4380
 2.0260	 8.4440
 2.0270	 8.4520
 2.0280	 8.4520
 2.0290	 8.4700
 2.0300	 8.4980
 2.0310	 8.5200
 2.0320	 8.5480
 2.0330	 8.5670
 2.0340	 8.5850
 2.0350	 8.5920
 2.0360	 8.5860
 2.0370	 8.5820
 2.0380	 8.5600
 2.0390	 8.5550
 2.0400	 8.5490
 2.0410	 8.5550
 2.0420	 8.5690
 2.0430	 8.6040
 2.0440	 8.6290
 2.0450	 8.6670
 2.0460	 8.6850
 2.0470	 8.6900
 2.0480	 8.7000
 2.0490	 8.7000
 2.0500	 8.7090
 2.0510	 8.7290
 2.0520	 8.7400
 2.0530	 8.7440
 2.0540	 8.7560
 2.0550	 8.7690
 2.0560	 8.7820
 2.0570	 8.7850
 2.0580	 8.8040
 2.0590	 8.8160
 2.0600	 8.8210
 2.0610	 8.8270
 2.0620	 8.8450
 2.0630	 8.8440
 2.0640	 8.8180
 2.0650	 8.8190
 2.0660	 8.8240
 2.0670	 8.8300
 2.0680	 8.8520
 2.0690	 8.8690
 2.0700	 8.8820
 2.0710	 8.8960
 2.0720	 8.9140
 2.0730	 8.9320
 2.0740	 8.9460
 2.0750	 8.9510
 2.0760	 8.9660
 2.0770	 8.9850
 2.0780	 9.0010
 2.0790	 9.0250
 2.0800	 9.0390
 2.0810	 9.0420
 2.0820	 9.0530
 2.0830	 9.0650
 2.0840	 9.0720
 2.0850	 9.0720
 2.0860	 9.0830
 2.0870	 9.0930
 2.0880	 9.1200
 2.0890	 9.1280
 2.0900	 9.1430
 2.0910	 9.1480
 2.0920	 9.1270
 2.0930	 9.1340
 2.0940	 9.1580
 2.0950	 9.1740
 2.0960	 9.2020
 2.0970	 9.2190
 2.0980	 9.2270
 2.0990	 9.2370
 2.1000	 9.2380
 2.1010	 9.2490
 2.1020	 9.2700
 2.1030	 9.2830
 2.1040	 9.2960
 2.1050	 9.3120
 2.1060	 9.3250
 2.1070	 9.3350
 2.1080	 9.3430
 2.1090	 9.3500
 2.1100	 9.3630
 2.1110	 9.3720
 2.1120	 9.3870
 2.1130	 9.4140
 2.1140	 9.4360
 2.1150	 9.4490
 2.1160	 9.4810
 2.1170	 9.5420
 2.1180	 9.5720
 2.1190	 9.5980
 2.1200	 9.6190
 2.1210	 9.6140
 2.1220	 9.6140
 2.1230	 9.6220
 2.1240	 9.6450
 2.1250	 9.6500
 2.1260	 9.6480
 2.1270	 9.6490
 2.1280	 9.6390
 2.1290	 9.6440
 2.1300	 9.6610
 2.1310	 9.6680
 2.1320	 9.6790
 2.1330	 9.6860
 2.1340	 9.6850
 2.1350	 9.6930
 2.1360	 9.7080
 2.1370	 9.7190
 2.1380	 9.7270
 2.1390	 9.7440
 2.1400	 9.7650
 2.1410	 9.7890
 2.1420	 9.8120
 2.1430	 9.8510
 2.1440	 9.8570
 2.1450	 9.8420
 2.1460	 9.8400
 2.1470	 9.8230
 2.1480	 9.8200
 2.1490	 9.8220
 2.1500	 9.8370
 2.1510	 9.8690
 2.1520	 9.8830
 2.1530	 9.9070
 2.1540	 9.9190
 2.1550	 9.9140
 2.1560	 9.9070
 2.1570	 9.8880
 2.1580	 9.8830
 2.1590	 9.8800
 2.1600	 9.8710
 2.1610	 9.8740
 2.1620	 9.8850
 2.1630	 9.9000
 2.1640	 9.9140
 2.1650	 9.9340
 2.1660	 9.9690
 2.1670	 9.9930
 2.1680	10.0250
 2.1690	10.0290
 2.1700	10.0160
 2.1710	10.0060
 2.1720	 9.9590
 2.1730	 9.9520
 2.1740	 9.9900
 2.1750	 9.9860
 2.1760	 9.9750
 2.1770	 9.9670
 2.1780	 9.9220
 2.1790	 9.9060
 2.1800	 9.9240
 2.1810	 9.9280
 2.1820	 9.9250
 2.1830	 9.9360
 2.1840	 9.9490
 2.1850	 9.9610
 2.1860	 9.9750
 2.1870	10.0010
 2.1880	10.0130
 2.1890	10.0130
 2.1900	10.0240
 2.1910	10.0460
 2.1920	10.0500
 2.1930	10.0500
 2.1940	10.0460
 2.1950	10.0210
 2.1960	10.0140
 2.1970	10.0230
 2.1980	10.0180
 2.1990	10.0100
 2.2000	10.0020
 2.2010	 9.9770
 2.2020	 9.9680
 2.2030	 9.9790
 2.2040	 9.9770
 2.2050	 9.9790
 2.2060	 9.9700
 2.2070	 9.9710
 2.2080	 9.9660
 2.2090	 9.9620
 2.2100	 9.9630
 2.2110	 9.9750
 2.2120	 9.9870
 2.2130	10.0060
 2.2140	10.0530
 2.2150	10.0700
 2.2160	10.0760
 2.2170	10.0700
 2.2180	10.0490
 2.2190	10.0280
 2.2200	 9.9850
 2.2210	 9.9620
 2.2220	 9.9470
 2.2230	 9.9290
 2.2240	 9.9180
 2.2250	 9.9080
 2.2260	 9.8870
 2.2270	 9.8830
 2.2280	 9.8870
 2.2290	 9.8990
 2.2300	 9.9290
 2.2310	 9.9620
 2.2320	 9.9640
 2.2330	 9.9470
 2.2340	 9.9240
 2.2350	 9.8610
 2.2360	 9.8400
 2.2370	 9.8280
 2.2380	 9.8340
 2.2390	 9.8650
 2.2400	 9.8780
 2.2410	 9.9100
 2.2420	 9.9110
 2.2430	 9.8810
 2.2440	 9.8670
 2.2450	 9.8450
 2.2460	 9.8250
 2.2470	 9.8020
 2.2480	 9.7970
 2.2490	 9.8070
 2.2500	 9.7960
 2.2510	 9.7690
 2.2520	 9.7760
 2.2530	 9.7920
 2.2540	 9.7990
 2.2550	 9.8450
 2.2560	 9.8620
 2.2570	 9.8450
 2.2580	 9.8270
 2.2590	 9.7890
 2.2600	 9.7690
 2.2610	 9.7360
 2.2620	 9.7220
 2.2630	 9.7320
 2.2640	 9.7530
 2.2650	 9.7870
 2.2660	 9.7850
 2.2670	 9.7710
 2.2680	 9.7390
 2.2690	 9.7170
 2.2700	 9.6650
 2.2710	 9.6580
 2.2720	 9.6870
 2.2730	 9.6820
 2.2740	 9.6880
 2.2750	 9.6710
 2.2760	 9.6250
 2.2770	 9.5920
 2.2780	 9.5510
 2.2790	 9.5240
 2.2800	 9.4980
 2.2810	 9.4930
 2.2820	 9.5200
 2.2830	 9.5260
 2.2840	 9.5380
 2.2850	 9.5380
 2.2860	 9.5250
 2.2870	 9.5080
 2.2880	 9.4780
 2.2890	 9.4610
 2.2900	 9.4380
 2.2910	 9.4320
 2.2920	 9.4640
 2.2930	 9.4630
 2.2940	 9.4530
 2.2950	 9.4340
 2.2960	 9.3700
 2.2970	 9.3480
 2.2980	 9.3550
 2.2990	 9.3590
 2.3000	 9.3550
 2.3010	 9.3520
 2.3020	 9.3300
 2.3030	 9.2620
 2.3040	 9.2180
 2.3050	 9.2150
 2.3060	 9.1750
 2.3070	 9.1810
 2.3080	 9.2250
 2.3090	 9.2030
 2.3100	 9.2240
 2.3110	 9.2600
 2.3120	 9.2690
 2.3130	 9.2740
 2.3140	 9.2560
 2.3150	 9.2060
 2.3160	 9.1800
 2.3170	 9.1310
 2.3180	 9.1150
 2.3190	 9.1350
 2.3200	 9.1350
 2.3210	 9.1470
 2.3220	 9.1480
 2.3230	 9.1310
 2.3240	 9.1320
 2.3250	 9.1500
 2.3260	 9.1420
 2.3270	 9.1080
 2.3280	 9.1250
 2.3290	 9.1550
 2.3300	 9.1670
 2.3310	 9.2300
 2.3320	 9.2350
 2.3330	 9.1760
 2.3340	 9.1520
 2.3350	 9.1310
 2.3360	 9.1100
 2.3370	 9.0990
 2.3380	 9.0850
 2.3390	 9.0670
 2.3400	 9.0440
 2.3410	 9.0100
 2.3420	 8.9930
 2.3430	 8.9840
 2.3440	 8.9820
 2.3450	 9.0010
 2.3460	 9.0140
 2.3470	 9.0110
 2.3480	 9.0240
 2.3490	 9.0690
 2.3500	 9.0740
 2.3510	 9.0510
 2.3520	 9.0540
 2.3530	 9.0680
 2.3540	 9.0320
 2.3550	 9.0370
 2.3560	 9.0370
 2.3570	 8.9360
 2.3580	 8.8960
 2.3590	 8.8820
 2.3600	 8.8170
 2.3610	 8.8280
 2.3620	 8.8640
 2.3630	 8.8800
 2.3640	 8.8920
 2.3650	 8.8540
 2.3660	 8.8040
 2.3670	 8.7410
 2.3680	 8.7060
 2.3690	 8.7760
 2.3700	 8.8450
 2.3710	 8.8690
 2.3720	 8.9320
 2.3730	 8.9690
 2.3740	 8.9200
 2.3750	 8.8640
 2.3760	 8.8120
 2.3770	 8.7320
 2.3780	 8.7260
 2.3790	 8.7910
 2.3800	 8.8470
 2.3810	 8.9180
 2.3820	 8.9350
 2.3830	 8.8830
 2.3840	 8.8700
 2.3850	 8.8580
 2.3860	 8.8020
 2.3870	 8.8070
 2.3880	 8.7930
 2.3890	 8.7140
 2.3900	 8.6820
 2.3910	 8.6640
 2.3920	 8.6560
 2.3930	 8.6940
 2.3940	 8.7370
 2.3950	 8.7680
 2.3960	 8.7710
 2.3970	 8.7000
 2.3980	 8.6360
 2.3990	 8.6350
 2.4000	 8.6560
 2.4010	 8.7120
 2.4020	 8.7660
 2.4030	 8.7340
 2.4040	 8.7070
 2.4050	 8.7130
 2.4060	 8.6910
 2.4070	 8.6940
 2.4080	 8.6810
 2.4090	 8.6520
 2.4100	 8.6710
 2.4110	 8.6710
 2.4120	 8.6750
 2.4130	 8.6770
 2.4140	 8.5840
 2.4150	 8.5320
 2.4160	 8.5210
 2.4170	 8.5110
 2.4180	 8.5860
 2.4190	 8.6370
 2.4200	 8.6430
 2.4210	 8.6960
 2.4220	 8.7670
 2.4230	 8.7970
 2.4240	 8.8050
 2.4250	 8.7370
 2.4260	 8.6550
 2.4270	 8.5880
 2.4280	 8.4770
 2.4290	 8.4570
 2.4300	 8.3510
 2.4310	 8.2730
 2.4320	 8.3210
 2.4330	 8.2140
 2.4340	 8.2080
 2.4350	 8.2900
 2.4360	 8.3010
 2.4370	 8.3930
 2.4380	 8.4440
 2.4390	 8.4250
 2.4400	 8.4690
 2.4410	 8.5070
 2.4420	 8.5500
 2.4430	 8.5930
 2.4440	 8.5480
 2.4450	 8.5510
 2.4460	 8.5250
 2.4470	 8.3170
 2.4480	 8.2510
 2.4490	 8.3050
 2.4500	 8.3370
 2.4510	 8.5060
 2.4520	 8.5650
 2.4530	 8.5210
 2.4540	 8.6020
 2.4550	 8.7440
 2.4560	 8.9150
 2.4570	 9.0150
 2.4580	 8.8680
 2.4590	 8.7070
 2.4600	 8.6670
 2.4610	 8.5600
 2.4620	 8.5100
 2.4630	 8.5930
 2.4640	 8.6410
 2.4650	 8.6680
 2.4660	 8.7300
 2.4670	 8.6020
 2.4680	 8.4190
 2.4690	 8.3570
 2.4700	 8.3250
 2.4710	 8.4100
 2.4720	 8.4190
 2.4730	 8.3390
 2.4740	 8.3420
 2.4750	 8.4250
 2.4760	 8.4220
 2.4770	 8.4220
 2.4780	 8.4680
 2.4790	 8.4920
 2.4800	 8.4500
 2.4810	 8.3810
 2.4820	 8.3540
 2.4830	 8.2770
 2.4840	 8.2650
 2.4850	 8.4430
 2.4860	 8.4510
 2.4870	 8.2270
 2.4880	 8.0890
 2.4890	 8.0130
 2.4900	 8.0900
 2.4910	 8.2960
 2.4920	 8.3030
 2.4930	 8.3640
 2.4940	 8.3880
 2.4950	 8.2170
 2.4960	 8.2470
 2.4970	 8.3030
 2.4980	 8.2980
 2.4990	 8.3220
 2.5000	 8.4240
