Name: Casimiroa edulis
Type: vegetation
Class: Tree
Genus: Casimiroa
Species: edulis
Sample No.: JPL144
Owner: JPL
Wavelength Range: VSWIR
Origin: 34.12482; -118.11195; WGS84
Collection Date: 9/14/2016
Description: Samples were collected at the Huntington Garden in San Marino California as part of a JPL Subcontract studying HyTES imagery. Samples were taken to JPL and processed within 48 hours of collection. The same leaves were processed in the Nicolet and then measured using the ASD.
Measurement: Bidirectional reflectance
First Column: X
Second Column: Y
X Units: Wavelength (micrometer)
Y Units: Reflectance (percentage)
First X Value: 0.35
Last X Value: 2.5
Number of X Values: 2151
Additional Information: vegetation.tree.casimiroa.edulis.vswir.jpl144.jpl.asd.ancillary.txt

 0.3500	 3.4940
 0.3510	 3.5000
 0.3520	 3.5250
 0.3530	 3.5090
 0.3540	 3.4000
 0.3550	 3.2150
 0.3560	 3.1830
 0.3570	 3.2410
 0.3580	 3.2050
 0.3590	 3.2450
 0.3600	 3.3000
 0.3610	 3.3250
 0.3620	 3.3190
 0.3630	 3.1920
 0.3640	 3.1030
 0.3650	 3.1770
 0.3660	 3.1920
 0.3670	 3.1370
 0.3680	 3.0830
 0.3690	 3.1370
 0.3700	 3.1030
 0.3710	 3.0920
 0.3720	 3.1520
 0.3730	 3.1540
 0.3740	 3.1490
 0.3750	 3.1220
 0.3760	 3.0620
 0.3770	 3.0700
 0.3780	 3.0900
 0.3790	 3.0730
 0.3800	 2.9910
 0.3810	 3.0160
 0.3820	 3.0770
 0.3830	 3.0960
 0.3840	 3.0730
 0.3850	 3.0810
 0.3860	 3.0890
 0.3870	 3.0460
 0.3880	 3.0330
 0.3890	 3.0360
 0.3900	 3.0420
 0.3910	 3.0490
 0.3920	 3.0380
 0.3930	 3.0380
 0.3940	 3.0640
 0.3950	 3.0650
 0.3960	 3.0550
 0.3970	 3.0410
 0.3980	 3.0350
 0.3990	 3.0560
 0.4000	 3.0530
 0.4010	 3.0200
 0.4020	 3.0240
 0.4030	 3.0210
 0.4040	 3.0070
 0.4050	 2.9930
 0.4060	 3.0090
 0.4070	 3.0080
 0.4080	 2.9970
 0.4090	 3.0120
 0.4100	 3.0180
 0.4110	 3.0270
 0.4120	 3.0460
 0.4130	 3.0660
 0.4140	 3.0740
 0.4150	 3.0770
 0.4160	 3.0840
 0.4170	 3.0920
 0.4180	 3.1180
 0.4190	 3.1490
 0.4200	 3.1510
 0.4210	 3.1730
 0.4220	 3.2060
 0.4230	 3.2340
 0.4240	 3.2550
 0.4250	 3.2800
 0.4260	 3.3050
 0.4270	 3.3250
 0.4280	 3.3330
 0.4290	 3.3510
 0.4300	 3.3830
 0.4310	 3.4040
 0.4320	 3.4360
 0.4330	 3.4700
 0.4340	 3.4950
 0.4350	 3.5220
 0.4360	 3.5390
 0.4370	 3.5500
 0.4380	 3.5690
 0.4390	 3.5830
 0.4400	 3.5940
 0.4410	 3.6020
 0.4420	 3.6030
 0.4430	 3.6220
 0.4440	 3.6490
 0.4450	 3.6620
 0.4460	 3.6730
 0.4470	 3.6790
 0.4480	 3.6830
 0.4490	 3.6960
 0.4500	 3.7100
 0.4510	 3.7240
 0.4520	 3.7360
 0.4530	 3.7500
 0.4540	 3.7610
 0.4550	 3.7640
 0.4560	 3.7590
 0.4570	 3.7690
 0.4580	 3.7850
 0.4590	 3.7940
 0.4600	 3.7860
 0.4610	 3.7870
 0.4620	 3.7970
 0.4630	 3.8050
 0.4640	 3.8030
 0.4650	 3.7990
 0.4660	 3.7990
 0.4670	 3.8110
 0.4680	 3.8140
 0.4690	 3.8140
 0.4700	 3.8190
 0.4710	 3.8190
 0.4720	 3.8170
 0.4730	 3.8160
 0.4740	 3.8200
 0.4750	 3.8250
 0.4760	 3.8270
 0.4770	 3.8260
 0.4780	 3.8310
 0.4790	 3.8300
 0.4800	 3.8270
 0.4810	 3.8290
 0.4820	 3.8340
 0.4830	 3.8450
 0.4840	 3.8560
 0.4850	 3.8550
 0.4860	 3.8610
 0.4870	 3.8740
 0.4880	 3.8880
 0.4890	 3.8950
 0.4900	 3.9020
 0.4910	 3.9120
 0.4920	 3.9220
 0.4930	 3.9290
 0.4940	 3.9400
 0.4950	 3.9580
 0.4960	 3.9780
 0.4970	 4.0020
 0.4980	 4.0250
 0.4990	 4.0460
 0.5000	 4.0750
 0.5010	 4.1090
 0.5020	 4.1460
 0.5030	 4.1930
 0.5040	 4.2420
 0.5050	 4.2980
 0.5060	 4.3620
 0.5070	 4.4280
 0.5080	 4.4970
 0.5090	 4.5740
 0.5100	 4.6690
 0.5110	 4.7700
 0.5120	 4.8760
 0.5130	 4.9900
 0.5140	 5.1190
 0.5150	 5.2620
 0.5160	 5.4150
 0.5170	 5.5730
 0.5180	 5.7450
 0.5190	 5.9240
 0.5200	 6.1090
 0.5210	 6.3080
 0.5220	 6.5070
 0.5230	 6.7030
 0.5240	 6.8950
 0.5250	 7.0860
 0.5260	 7.2760
 0.5270	 7.4570
 0.5280	 7.6180
 0.5290	 7.7700
 0.5300	 7.9130
 0.5310	 8.0460
 0.5320	 8.1660
 0.5330	 8.2740
 0.5340	 8.3710
 0.5350	 8.4570
 0.5360	 8.5320
 0.5370	 8.5950
 0.5380	 8.6540
 0.5390	 8.7170
 0.5400	 8.7790
 0.5410	 8.8460
 0.5420	 8.9160
 0.5430	 8.9710
 0.5440	 9.0100
 0.5450	 9.0320
 0.5460	 9.0350
 0.5470	 9.0280
 0.5480	 9.0230
 0.5490	 9.0230
 0.5500	 9.0280
 0.5510	 9.0320
 0.5520	 9.0280
 0.5530	 9.0090
 0.5540	 8.9750
 0.5550	 8.9290
 0.5560	 8.8720
 0.5570	 8.8020
 0.5580	 8.7230
 0.5590	 8.6370
 0.5600	 8.5470
 0.5610	 8.4480
 0.5620	 8.3460
 0.5630	 8.2420
 0.5640	 8.1350
 0.5650	 8.0220
 0.5660	 7.9070
 0.5670	 7.7900
 0.5680	 7.6730
 0.5690	 7.5540
 0.5700	 7.4320
 0.5710	 7.3080
 0.5720	 7.1850
 0.5730	 7.0670
 0.5740	 6.9580
 0.5750	 6.8550
 0.5760	 6.7600
 0.5770	 6.6700
 0.5780	 6.5840
 0.5790	 6.5080
 0.5800	 6.4360
 0.5810	 6.3680
 0.5820	 6.3070
 0.5830	 6.2530
 0.5840	 6.2010
 0.5850	 6.1500
 0.5860	 6.0980
 0.5870	 6.0540
 0.5880	 6.0160
 0.5890	 5.9790
 0.5900	 5.9410
 0.5910	 5.9060
 0.5920	 5.8750
 0.5930	 5.8480
 0.5940	 5.8240
 0.5950	 5.7990
 0.5960	 5.7740
 0.5970	 5.7540
 0.5980	 5.7380
 0.5990	 5.7200
 0.6000	 5.6970
 0.6010	 5.6720
 0.6020	 5.6450
 0.6030	 5.6150
 0.6040	 5.5790
 0.6050	 5.5410
 0.6060	 5.5010
 0.6070	 5.4560
 0.6080	 5.4120
 0.6090	 5.3730
 0.6100	 5.3450
 0.6110	 5.3220
 0.6120	 5.2710
 0.6130	 5.2040
 0.6140	 5.1380
 0.6150	 5.0860
 0.6160	 5.0360
 0.6170	 4.9880
 0.6180	 4.9490
 0.6190	 4.9140
 0.6200	 4.8850
 0.6210	 4.8590
 0.6220	 4.8350
 0.6230	 4.8120
 0.6240	 4.7920
 0.6250	 4.7760
 0.6260	 4.7620
 0.6270	 4.7530
 0.6280	 4.7490
 0.6290	 4.7430
 0.6300	 4.7390
 0.6310	 4.7340
 0.6320	 4.7270
 0.6330	 4.7130
 0.6340	 4.6950
 0.6350	 4.6750
 0.6360	 4.6530
 0.6370	 4.6240
 0.6380	 4.5900
 0.6390	 4.5520
 0.6400	 4.5150
 0.6410	 4.4740
 0.6420	 4.4340
 0.6430	 4.3940
 0.6440	 4.3490
 0.6450	 4.3070
 0.6460	 4.2690
 0.6470	 4.2350
 0.6480	 4.2060
 0.6490	 4.1790
 0.6500	 4.1560
 0.6510	 4.1390
 0.6520	 4.1250
 0.6530	 4.1090
 0.6540	 4.0920
 0.6550	 4.0780
 0.6560	 4.0630
 0.6570	 4.0460
 0.6580	 4.0270
 0.6590	 4.0060
 0.6600	 3.9860
 0.6610	 3.9660
 0.6620	 3.9460
 0.6630	 3.9280
 0.6640	 3.9150
 0.6650	 3.9040
 0.6660	 3.9000
 0.6670	 3.8980
 0.6680	 3.8970
 0.6690	 3.9030
 0.6700	 3.9140
 0.6710	 3.9300
 0.6720	 3.9490
 0.6730	 3.9750
 0.6740	 4.0010
 0.6750	 4.0300
 0.6760	 4.0670
 0.6770	 4.1070
 0.6780	 4.1500
 0.6790	 4.1980
 0.6800	 4.2500
 0.6810	 4.3040
 0.6820	 4.3610
 0.6830	 4.4210
 0.6840	 4.4840
 0.6850	 4.5460
 0.6860	 4.6120
 0.6870	 4.6870
 0.6880	 4.7730
 0.6890	 4.8770
 0.6900	 5.0080
 0.6910	 5.1740
 0.6920	 5.3880
 0.6930	 5.6550
 0.6940	 5.9790
 0.6950	 6.3660
 0.6960	 6.8160
 0.6970	 7.3250
 0.6980	 7.8890
 0.6990	 8.5050
 0.7000	 9.1640
 0.7010	 9.8600
 0.7020	10.5810
 0.7030	11.3190
 0.7040	12.0710
 0.7050	12.8350
 0.7060	13.6050
 0.7070	14.3780
 0.7080	15.1530
 0.7090	15.9290
 0.7100	16.7050
 0.7110	17.4890
 0.7120	18.2770
 0.7130	19.0600
 0.7140	19.8420
 0.7150	20.6260
 0.7160	21.4100
 0.7170	22.1920
 0.7180	22.9670
 0.7190	23.7370
 0.7200	24.5000
 0.7210	25.2520
 0.7220	25.9910
 0.7230	26.7150
 0.7240	27.4200
 0.7250	28.1070
 0.7260	28.7730
 0.7270	29.4140
 0.7280	30.0330
 0.7290	30.6290
 0.7300	31.2000
 0.7310	31.7420
 0.7320	32.2580
 0.7330	32.7480
 0.7340	33.2120
 0.7350	33.6510
 0.7360	34.0640
 0.7370	34.4500
 0.7380	34.8100
 0.7390	35.1460
 0.7400	35.4590
 0.7410	35.7480
 0.7420	36.0170
 0.7430	36.2630
 0.7440	36.4860
 0.7450	36.6880
 0.7460	36.8700
 0.7470	37.0370
 0.7480	37.1870
 0.7490	37.3200
 0.7500	37.4370
 0.7510	37.5430
 0.7520	37.6370
 0.7530	37.7220
 0.7540	37.7980
 0.7550	37.8660
 0.7560	37.9260
 0.7570	37.9770
 0.7580	38.0230
 0.7590	38.0640
 0.7600	38.1010
 0.7610	38.1330
 0.7620	38.1570
 0.7630	38.1760
 0.7640	38.1940
 0.7650	38.2090
 0.7660	38.2200
 0.7670	38.2290
 0.7680	38.2370
 0.7690	38.2430
 0.7700	38.2470
 0.7710	38.2490
 0.7720	38.2500
 0.7730	38.2510
 0.7740	38.2510
 0.7750	38.2500
 0.7760	38.2510
 0.7770	38.2520
 0.7780	38.2530
 0.7790	38.2520
 0.7800	38.2520
 0.7810	38.2530
 0.7820	38.2560
 0.7830	38.2570
 0.7840	38.2570
 0.7850	38.2560
 0.7860	38.2560
 0.7870	38.2560
 0.7880	38.2550
 0.7890	38.2540
 0.7900	38.2520
 0.7910	38.2500
 0.7920	38.2480
 0.7930	38.2470
 0.7940	38.2440
 0.7950	38.2420
 0.7960	38.2390
 0.7970	38.2330
 0.7980	38.2280
 0.7990	38.2230
 0.8000	38.2160
 0.8010	38.2100
 0.8020	38.2050
 0.8030	38.2010
 0.8040	38.1970
 0.8050	38.1900
 0.8060	38.1820
 0.8070	38.1740
 0.8080	38.1680
 0.8090	38.1630
 0.8100	38.1570
 0.8110	38.1490
 0.8120	38.1390
 0.8130	38.1310
 0.8140	38.1220
 0.8150	38.1130
 0.8160	38.1040
 0.8170	38.0970
 0.8180	38.0890
 0.8190	38.0800
 0.8200	38.0690
 0.8210	38.0610
 0.8220	38.0550
 0.8230	38.0480
 0.8240	38.0380
 0.8250	38.0270
 0.8260	38.0170
 0.8270	38.0110
 0.8280	38.0020
 0.8290	37.9920
 0.8300	37.9830
 0.8310	37.9740
 0.8320	37.9680
 0.8330	37.9580
 0.8340	37.9480
 0.8350	37.9410
 0.8360	37.9360
 0.8370	37.9300
 0.8380	37.9240
 0.8390	37.9160
 0.8400	37.9130
 0.8410	37.9110
 0.8420	37.9080
 0.8430	37.9050
 0.8440	37.9020
 0.8450	37.8980
 0.8460	37.8950
 0.8470	37.8920
 0.8480	37.8910
 0.8490	37.8900
 0.8500	37.8880
 0.8510	37.8880
 0.8520	37.8880
 0.8530	37.8870
 0.8540	37.8860
 0.8550	37.8860
 0.8560	37.8860
 0.8570	37.8860
 0.8580	37.8850
 0.8590	37.8890
 0.8600	37.8950
 0.8610	37.9000
 0.8620	37.9050
 0.8630	37.9060
 0.8640	37.9080
 0.8650	37.9130
 0.8660	37.9130
 0.8670	37.9160
 0.8680	37.9210
 0.8690	37.9240
 0.8700	37.9270
 0.8710	37.9330
 0.8720	37.9420
 0.8730	37.9480
 0.8740	37.9480
 0.8750	37.9520
 0.8760	37.9600
 0.8770	37.9660
 0.8780	37.9730
 0.8790	37.9770
 0.8800	37.9770
 0.8810	37.9820
 0.8820	37.9880
 0.8830	37.9970
 0.8840	38.0060
 0.8850	38.0100
 0.8860	38.0140
 0.8870	38.0170
 0.8880	38.0200
 0.8890	38.0240
 0.8900	38.0290
 0.8910	38.0340
 0.8920	38.0380
 0.8930	38.0440
 0.8940	38.0520
 0.8950	38.0590
 0.8960	38.0630
 0.8970	38.0680
 0.8980	38.0720
 0.8990	38.0760
 0.9000	38.0810
 0.9010	38.0850
 0.9020	38.0850
 0.9030	38.0860
 0.9040	38.0980
 0.9050	38.1040
 0.9060	38.1050
 0.9070	38.1050
 0.9080	38.1030
 0.9090	38.1070
 0.9100	38.1090
 0.9110	38.1070
 0.9120	38.1100
 0.9130	38.1120
 0.9140	38.1140
 0.9150	38.1170
 0.9160	38.1190
 0.9170	38.1160
 0.9180	38.1080
 0.9190	38.1030
 0.9200	38.1050
 0.9210	38.1000
 0.9220	38.0920
 0.9230	38.0900
 0.9240	38.0840
 0.9250	38.0810
 0.9260	38.0780
 0.9270	38.0630
 0.9280	38.0500
 0.9290	38.0370
 0.9300	38.0240
 0.9310	38.0130
 0.9320	38.0040
 0.9330	37.9890
 0.9340	37.9700
 0.9350	37.9560
 0.9360	37.9420
 0.9370	37.9290
 0.9380	37.9160
 0.9390	37.8940
 0.9400	37.8740
 0.9410	37.8560
 0.9420	37.8360
 0.9430	37.8200
 0.9440	37.7910
 0.9450	37.7620
 0.9460	37.7400
 0.9470	37.7060
 0.9480	37.6680
 0.9490	37.6320
 0.9500	37.6000
 0.9510	37.5750
 0.9520	37.5380
 0.9530	37.4920
 0.9540	37.4490
 0.9550	37.4130
 0.9560	37.3720
 0.9570	37.3310
 0.9580	37.2960
 0.9590	37.2700
 0.9600	37.2420
 0.9610	37.2090
 0.9620	37.1780
 0.9630	37.1640
 0.9640	37.1400
 0.9650	37.1110
 0.9660	37.0920
 0.9670	37.0850
 0.9680	37.0670
 0.9690	37.0510
 0.9700	37.0550
 0.9710	37.0380
 0.9720	37.0210
 0.9730	37.0110
 0.9740	37.0050
 0.9750	36.9910
 0.9760	36.9830
 0.9770	36.9790
 0.9780	36.9700
 0.9790	36.9780
 0.9800	36.9730
 0.9810	36.9640
 0.9820	36.9730
 0.9830	36.9710
 0.9840	36.9640
 0.9850	36.9680
 0.9860	36.9850
 0.9870	36.9710
 0.9880	36.9650
 0.9890	36.9720
 0.9900	36.9810
 0.9910	36.9920
 0.9920	36.9950
 0.9930	36.9890
 0.9940	36.9840
 0.9950	36.9750
 0.9960	37.0030
 0.9970	37.0430
 0.9980	37.0520
 0.9990	37.0460
 1.0000	37.0360
 1.0010	36.6910
 1.0020	36.7020
 1.0030	36.7120
 1.0040	36.7230
 1.0050	36.7350
 1.0060	36.7430
 1.0070	36.7490
 1.0080	36.7590
 1.0090	36.7700
 1.0100	36.7810
 1.0110	36.7940
 1.0120	36.8070
 1.0130	36.8160
 1.0140	36.8260
 1.0150	36.8370
 1.0160	36.8480
 1.0170	36.8610
 1.0180	36.8740
 1.0190	36.8880
 1.0200	36.8990
 1.0210	36.9050
 1.0220	36.9140
 1.0230	36.9250
 1.0240	36.9350
 1.0250	36.9460
 1.0260	36.9600
 1.0270	36.9720
 1.0280	36.9820
 1.0290	36.9910
 1.0300	36.9970
 1.0310	37.0060
 1.0320	37.0150
 1.0330	37.0230
 1.0340	37.0330
 1.0350	37.0430
 1.0360	37.0480
 1.0370	37.0560
 1.0380	37.0630
 1.0390	37.0680
 1.0400	37.0750
 1.0410	37.0850
 1.0420	37.0940
 1.0430	37.1040
 1.0440	37.1120
 1.0450	37.1180
 1.0460	37.1240
 1.0470	37.1270
 1.0480	37.1330
 1.0490	37.1410
 1.0500	37.1470
 1.0510	37.1520
 1.0520	37.1580
 1.0530	37.1650
 1.0540	37.1710
 1.0550	37.1770
 1.0560	37.1860
 1.0570	37.1910
 1.0580	37.1910
 1.0590	37.1950
 1.0600	37.2030
 1.0610	37.2070
 1.0620	37.2100
 1.0630	37.2130
 1.0640	37.2120
 1.0650	37.2140
 1.0660	37.2210
 1.0670	37.2250
 1.0680	37.2290
 1.0690	37.2330
 1.0700	37.2350
 1.0710	37.2360
 1.0720	37.2360
 1.0730	37.2330
 1.0740	37.2350
 1.0750	37.2390
 1.0760	37.2420
 1.0770	37.2470
 1.0780	37.2490
 1.0790	37.2470
 1.0800	37.2470
 1.0810	37.2480
 1.0820	37.2470
 1.0830	37.2440
 1.0840	37.2430
 1.0850	37.2420
 1.0860	37.2410
 1.0870	37.2390
 1.0880	37.2370
 1.0890	37.2350
 1.0900	37.2310
 1.0910	37.2270
 1.0920	37.2240
 1.0930	37.2210
 1.0940	37.2170
 1.0950	37.2130
 1.0960	37.2100
 1.0970	37.2060
 1.0980	37.2010
 1.0990	37.1960
 1.1000	37.1890
 1.1010	37.1840
 1.1020	37.1780
 1.1030	37.1720
 1.1040	37.1680
 1.1050	37.1630
 1.1060	37.1550
 1.1070	37.1440
 1.1080	37.1360
 1.1090	37.1250
 1.1100	37.1170
 1.1110	37.1120
 1.1120	37.1040
 1.1130	37.0950
 1.1140	37.0850
 1.1150	37.0720
 1.1160	37.0600
 1.1170	37.0480
 1.1180	37.0330
 1.1190	37.0170
 1.1200	37.0020
 1.1210	36.9830
 1.1220	36.9630
 1.1230	36.9420
 1.1240	36.9170
 1.1250	36.8900
 1.1260	36.8590
 1.1270	36.8250
 1.1280	36.7890
 1.1290	36.7480
 1.1300	36.7050
 1.1310	36.6570
 1.1320	36.6040
 1.1330	36.5460
 1.1340	36.4830
 1.1350	36.4160
 1.1360	36.3460
 1.1370	36.2710
 1.1380	36.1940
 1.1390	36.1130
 1.1400	36.0300
 1.1410	35.9470
 1.1420	35.8620
 1.1430	35.7760
 1.1440	35.6870
 1.1450	35.5950
 1.1460	35.5070
 1.1470	35.4150
 1.1480	35.3310
 1.1490	35.2520
 1.1500	35.1750
 1.1510	35.1010
 1.1520	35.0310
 1.1530	34.9630
 1.1540	34.9000
 1.1550	34.8410
 1.1560	34.7870
 1.1570	34.7380
 1.1580	34.6920
 1.1590	34.6500
 1.1600	34.6120
 1.1610	34.5790
 1.1620	34.5460
 1.1630	34.5170
 1.1640	34.4890
 1.1650	34.4630
 1.1660	34.4370
 1.1670	34.4140
 1.1680	34.3940
 1.1690	34.3740
 1.1700	34.3570
 1.1710	34.3390
 1.1720	34.3200
 1.1730	34.3030
 1.1740	34.2880
 1.1750	34.2730
 1.1760	34.2570
 1.1770	34.2410
 1.1780	34.2240
 1.1790	34.2080
 1.1800	34.1930
 1.1810	34.1770
 1.1820	34.1600
 1.1830	34.1430
 1.1840	34.1270
 1.1850	34.1110
 1.1860	34.0940
 1.1870	34.0780
 1.1880	34.0630
 1.1890	34.0490
 1.1900	34.0360
 1.1910	34.0250
 1.1920	34.0150
 1.1930	34.0040
 1.1940	33.9950
 1.1950	33.9860
 1.1960	33.9790
 1.1970	33.9730
 1.1980	33.9690
 1.1990	33.9680
 1.2000	33.9670
 1.2010	33.9660
 1.2020	33.9660
 1.2030	33.9670
 1.2040	33.9700
 1.2050	33.9750
 1.2060	33.9810
 1.2070	33.9910
 1.2080	34.0000
 1.2090	34.0090
 1.2100	34.0200
 1.2110	34.0320
 1.2120	34.0450
 1.2130	34.0590
 1.2140	34.0760
 1.2150	34.0930
 1.2160	34.1110
 1.2170	34.1290
 1.2180	34.1460
 1.2190	34.1650
 1.2200	34.1840
 1.2210	34.2030
 1.2220	34.2220
 1.2230	34.2400
 1.2240	34.2570
 1.2250	34.2750
 1.2260	34.2920
 1.2270	34.3070
 1.2280	34.3230
 1.2290	34.3390
 1.2300	34.3540
 1.2310	34.3680
 1.2320	34.3820
 1.2330	34.3970
 1.2340	34.4110
 1.2350	34.4270
 1.2360	34.4410
 1.2370	34.4550
 1.2380	34.4680
 1.2390	34.4800
 1.2400	34.4920
 1.2410	34.5040
 1.2420	34.5140
 1.2430	34.5210
 1.2440	34.5290
 1.2450	34.5380
 1.2460	34.5470
 1.2470	34.5570
 1.2480	34.5650
 1.2490	34.5710
 1.2500	34.5790
 1.2510	34.5870
 1.2520	34.5940
 1.2530	34.6020
 1.2540	34.6070
 1.2550	34.6120
 1.2560	34.6170
 1.2570	34.6210
 1.2580	34.6260
 1.2590	34.6290
 1.2600	34.6330
 1.2610	34.6340
 1.2620	34.6330
 1.2630	34.6330
 1.2640	34.6320
 1.2650	34.6300
 1.2660	34.6290
 1.2670	34.6260
 1.2680	34.6250
 1.2690	34.6240
 1.2700	34.6200
 1.2710	34.6160
 1.2720	34.6090
 1.2730	34.6020
 1.2740	34.5940
 1.2750	34.5870
 1.2760	34.5790
 1.2770	34.5690
 1.2780	34.5590
 1.2790	34.5480
 1.2800	34.5360
 1.2810	34.5230
 1.2820	34.5090
 1.2830	34.4960
 1.2840	34.4820
 1.2850	34.4670
 1.2860	34.4490
 1.2870	34.4310
 1.2880	34.4110
 1.2890	34.3880
 1.2900	34.3650
 1.2910	34.3430
 1.2920	34.3190
 1.2930	34.2960
 1.2940	34.2740
 1.2950	34.2470
 1.2960	34.2200
 1.2970	34.1890
 1.2980	34.1570
 1.2990	34.1260
 1.3000	34.0930
 1.3010	34.0570
 1.3020	34.0190
 1.3030	33.9790
 1.3040	33.9370
 1.3050	33.8980
 1.3060	33.8570
 1.3070	33.8130
 1.3080	33.7670
 1.3090	33.7180
 1.3100	33.6670
 1.3110	33.6160
 1.3120	33.5620
 1.3130	33.5070
 1.3140	33.4490
 1.3150	33.3890
 1.3160	33.3260
 1.3170	33.2620
 1.3180	33.1960
 1.3190	33.1260
 1.3200	33.0540
 1.3210	32.9800
 1.3220	32.9050
 1.3230	32.8270
 1.3240	32.7480
 1.3250	32.6680
 1.3260	32.5860
 1.3270	32.5020
 1.3280	32.4170
 1.3290	32.3290
 1.3300	32.2390
 1.3310	32.1480
 1.3320	32.0550
 1.3330	31.9610
 1.3340	31.8650
 1.3350	31.7710
 1.3360	31.6760
 1.3370	31.5810
 1.3380	31.4870
 1.3390	31.3930
 1.3400	31.2980
 1.3410	31.2050
 1.3420	31.1130
 1.3430	31.0210
 1.3440	30.9290
 1.3450	30.8380
 1.3460	30.7450
 1.3470	30.6560
 1.3480	30.5660
 1.3490	30.4780
 1.3500	30.3910
 1.3510	30.3050
 1.3520	30.2190
 1.3530	30.1350
 1.3540	30.0500
 1.3550	29.9650
 1.3560	29.8790
 1.3570	29.7920
 1.3580	29.7050
 1.3590	29.6150
 1.3600	29.5230
 1.3610	29.4280
 1.3620	29.3290
 1.3630	29.2280
 1.3640	29.1190
 1.3650	29.0070
 1.3660	28.8880
 1.3670	28.7630
 1.3680	28.6310
 1.3690	28.4890
 1.3700	28.3370
 1.3710	28.1760
 1.3720	28.0030
 1.3730	27.8170
 1.3740	27.6220
 1.3750	27.4110
 1.3760	27.1840
 1.3770	26.9410
 1.3780	26.6770
 1.3790	26.3950
 1.3800	26.0940
 1.3810	25.7710
 1.3820	25.4320
 1.3830	25.0760
 1.3840	24.7030
 1.3850	24.3140
 1.3860	23.9100
 1.3870	23.4850
 1.3880	23.0560
 1.3890	22.6150
 1.3900	22.1640
 1.3910	21.7120
 1.3920	21.2540
 1.3930	20.7910
 1.3940	20.3300
 1.3950	19.8650
 1.3960	19.4050
 1.3970	18.9530
 1.3980	18.5090
 1.3990	18.0790
 1.4000	17.6620
 1.4010	17.2530
 1.4020	16.8620
 1.4030	16.4820
 1.4040	16.1190
 1.4050	15.7740
 1.4060	15.4440
 1.4070	15.1350
 1.4080	14.8410
 1.4090	14.5620
 1.4100	14.3000
 1.4110	14.0530
 1.4120	13.8210
 1.4130	13.6040
 1.4140	13.4000
 1.4150	13.2100
 1.4160	13.0330
 1.4170	12.8660
 1.4180	12.7120
 1.4190	12.5670
 1.4200	12.4320
 1.4210	12.3060
 1.4220	12.1880
 1.4230	12.0780
 1.4240	11.9770
 1.4250	11.8820
 1.4260	11.7960
 1.4270	11.7140
 1.4280	11.6380
 1.4290	11.5670
 1.4300	11.5020
 1.4310	11.4410
 1.4320	11.3880
 1.4330	11.3370
 1.4340	11.2910
 1.4350	11.2480
 1.4360	11.2100
 1.4370	11.1740
 1.4380	11.1430
 1.4390	11.1160
 1.4400	11.0930
 1.4410	11.0720
 1.4420	11.0540
 1.4430	11.0370
 1.4440	11.0220
 1.4450	11.0110
 1.4460	11.0020
 1.4470	10.9950
 1.4480	10.9900
 1.4490	10.9880
 1.4500	10.9880
 1.4510	10.9890
 1.4520	10.9910
 1.4530	10.9950
 1.4540	11.0010
 1.4550	11.0090
 1.4560	11.0200
 1.4570	11.0330
 1.4580	11.0490
 1.4590	11.0670
 1.4600	11.0890
 1.4610	11.1150
 1.4620	11.1430
 1.4630	11.1760
 1.4640	11.2120
 1.4650	11.2510
 1.4660	11.2940
 1.4670	11.3410
 1.4680	11.3930
 1.4690	11.4500
 1.4700	11.5100
 1.4710	11.5730
 1.4720	11.6390
 1.4730	11.7080
 1.4740	11.7800
 1.4750	11.8540
 1.4760	11.9310
 1.4770	12.0100
 1.4780	12.0910
 1.4790	12.1750
 1.4800	12.2600
 1.4810	12.3450
 1.4820	12.4330
 1.4830	12.5220
 1.4840	12.6140
 1.4850	12.7060
 1.4860	12.8000
 1.4870	12.8950
 1.4880	12.9900
 1.4890	13.0860
 1.4900	13.1830
 1.4910	13.2810
 1.4920	13.3790
 1.4930	13.4800
 1.4940	13.5800
 1.4950	13.6830
 1.4960	13.7850
 1.4970	13.8870
 1.4980	13.9900
 1.4990	14.0930
 1.5000	14.1960
 1.5010	14.3000
 1.5020	14.4030
 1.5030	14.5060
 1.5040	14.6090
 1.5050	14.7120
 1.5060	14.8160
 1.5070	14.9200
 1.5080	15.0240
 1.5090	15.1290
 1.5100	15.2330
 1.5110	15.3370
 1.5120	15.4420
 1.5130	15.5460
 1.5140	15.6490
 1.5150	15.7520
 1.5160	15.8540
 1.5170	15.9560
 1.5180	16.0580
 1.5190	16.1590
 1.5200	16.2600
 1.5210	16.3600
 1.5220	16.4600
 1.5230	16.5600
 1.5240	16.6590
 1.5250	16.7600
 1.5260	16.8600
 1.5270	16.9590
 1.5280	17.0550
 1.5290	17.1490
 1.5300	17.2420
 1.5310	17.3360
 1.5320	17.4290
 1.5330	17.5210
 1.5340	17.6130
 1.5350	17.7040
 1.5360	17.7940
 1.5370	17.8840
 1.5380	17.9740
 1.5390	18.0630
 1.5400	18.1500
 1.5410	18.2380
 1.5420	18.3250
 1.5430	18.4110
 1.5440	18.4970
 1.5450	18.5830
 1.5460	18.6670
 1.5470	18.7520
 1.5480	18.8350
 1.5490	18.9170
 1.5500	18.9980
 1.5510	19.0780
 1.5520	19.1580
 1.5530	19.2360
 1.5540	19.3130
 1.5550	19.3910
 1.5560	19.4680
 1.5570	19.5450
 1.5580	19.6200
 1.5590	19.6930
 1.5600	19.7650
 1.5610	19.8350
 1.5620	19.9050
 1.5630	19.9770
 1.5640	20.0460
 1.5650	20.1160
 1.5660	20.1840
 1.5670	20.2510
 1.5680	20.3170
 1.5690	20.3830
 1.5700	20.4490
 1.5710	20.5140
 1.5720	20.5780
 1.5730	20.6430
 1.5740	20.7060
 1.5750	20.7690
 1.5760	20.8310
 1.5770	20.8930
 1.5780	20.9540
 1.5790	21.0140
 1.5800	21.0720
 1.5810	21.1310
 1.5820	21.1890
 1.5830	21.2470
 1.5840	21.3060
 1.5850	21.3640
 1.5860	21.4200
 1.5870	21.4770
 1.5880	21.5310
 1.5890	21.5850
 1.5900	21.6390
 1.5910	21.6900
 1.5920	21.7430
 1.5930	21.7960
 1.5940	21.8490
 1.5950	21.9010
 1.5960	21.9520
 1.5970	22.0010
 1.5980	22.0500
 1.5990	22.1000
 1.6000	22.1480
 1.6010	22.1960
 1.6020	22.2410
 1.6030	22.2870
 1.6040	22.3340
 1.6050	22.3780
 1.6060	22.4210
 1.6070	22.4650
 1.6080	22.5090
 1.6090	22.5520
 1.6100	22.5950
 1.6110	22.6370
 1.6120	22.6760
 1.6130	22.7150
 1.6140	22.7540
 1.6150	22.7920
 1.6160	22.8300
 1.6170	22.8670
 1.6180	22.9030
 1.6190	22.9390
 1.6200	22.9740
 1.6210	23.0080
 1.6220	23.0430
 1.6230	23.0760
 1.6240	23.1080
 1.6250	23.1380
 1.6260	23.1680
 1.6270	23.1980
 1.6280	23.2280
 1.6290	23.2580
 1.6300	23.2860
 1.6310	23.3150
 1.6320	23.3440
 1.6330	23.3720
 1.6340	23.4000
 1.6350	23.4280
 1.6360	23.4550
 1.6370	23.4810
 1.6380	23.5070
 1.6390	23.5320
 1.6400	23.5560
 1.6410	23.5780
 1.6420	23.5990
 1.6430	23.6180
 1.6440	23.6360
 1.6450	23.6530
 1.6460	23.6670
 1.6470	23.6820
 1.6480	23.6950
 1.6490	23.7050
 1.6500	23.7140
 1.6510	23.7220
 1.6520	23.7270
 1.6530	23.7320
 1.6540	23.7350
 1.6550	23.7360
 1.6560	23.7370
 1.6570	23.7370
 1.6580	23.7360
 1.6590	23.7330
 1.6600	23.7290
 1.6610	23.7230
 1.6620	23.7170
 1.6630	23.7120
 1.6640	23.7060
 1.6650	23.6990
 1.6660	23.6920
 1.6670	23.6840
 1.6680	23.6750
 1.6690	23.6650
 1.6700	23.6540
 1.6710	23.6430
 1.6720	23.6330
 1.6730	23.6210
 1.6740	23.6080
 1.6750	23.5930
 1.6760	23.5750
 1.6770	23.5580
 1.6780	23.5390
 1.6790	23.5190
 1.6800	23.4980
 1.6810	23.4750
 1.6820	23.4490
 1.6830	23.4230
 1.6840	23.3950
 1.6850	23.3670
 1.6860	23.3400
 1.6870	23.3080
 1.6880	23.2750
 1.6890	23.2410
 1.6900	23.2070
 1.6910	23.1730
 1.6920	23.1390
 1.6930	23.1030
 1.6940	23.0670
 1.6950	23.0320
 1.6960	22.9950
 1.6970	22.9560
 1.6980	22.9170
 1.6990	22.8770
 1.7000	22.8360
 1.7010	22.7950
 1.7020	22.7520
 1.7030	22.7050
 1.7040	22.6610
 1.7050	22.6160
 1.7060	22.5700
 1.7070	22.5250
 1.7080	22.4790
 1.7090	22.4320
 1.7100	22.3870
 1.7110	22.3430
 1.7120	22.3000
 1.7130	22.2560
 1.7140	22.2150
 1.7150	22.1740
 1.7160	22.1340
 1.7170	22.0970
 1.7180	22.0590
 1.7190	22.0220
 1.7200	21.9880
 1.7210	21.9550
 1.7220	21.9220
 1.7230	21.8910
 1.7240	21.8610
 1.7250	21.8330
 1.7260	21.8070
 1.7270	21.7810
 1.7280	21.7570
 1.7290	21.7330
 1.7300	21.7110
 1.7310	21.6890
 1.7320	21.6660
 1.7330	21.6430
 1.7340	21.6200
 1.7350	21.5970
 1.7360	21.5760
 1.7370	21.5510
 1.7380	21.5280
 1.7390	21.4990
 1.7400	21.4640
 1.7410	21.4280
 1.7420	21.3870
 1.7430	21.3470
 1.7440	21.3050
 1.7450	21.2600
 1.7460	21.2130
 1.7470	21.1660
 1.7480	21.1170
 1.7490	21.0680
 1.7500	21.0190
 1.7510	20.9700
 1.7520	20.9180
 1.7530	20.8700
 1.7540	20.8240
 1.7550	20.7760
 1.7560	20.7300
 1.7570	20.6850
 1.7580	20.6400
 1.7590	20.6000
 1.7600	20.5630
 1.7610	20.5240
 1.7620	20.4870
 1.7630	20.4510
 1.7640	20.4160
 1.7650	20.3830
 1.7660	20.3510
 1.7670	20.3200
 1.7680	20.2900
 1.7690	20.2630
 1.7700	20.2350
 1.7710	20.2050
 1.7720	20.1780
 1.7730	20.1520
 1.7740	20.1280
 1.7750	20.1060
 1.7760	20.0850
 1.7770	20.0640
 1.7780	20.0440
 1.7790	20.0240
 1.7800	20.0070
 1.7810	19.9920
 1.7820	19.9790
 1.7830	19.9700
 1.7840	19.9610
 1.7850	19.9520
 1.7860	19.9450
 1.7870	19.9400
 1.7880	19.9350
 1.7890	19.9320
 1.7900	19.9320
 1.7910	19.9330
 1.7920	19.9380
 1.7930	19.9410
 1.7940	19.9420
 1.7950	19.9470
 1.7960	19.9540
 1.7970	19.9600
 1.7980	19.9670
 1.7990	19.9740
 1.8000	19.9790
 1.8010	19.9870
 1.8020	19.9980
 1.8030	20.0080
 1.8040	20.0190
 1.8050	20.0290
 1.8060	20.0390
 1.8070	20.0470
 1.8080	20.0530
 1.8090	20.0610
 1.8100	20.0680
 1.8110	20.0760
 1.8120	20.0850
 1.8130	20.0930
 1.8140	20.1000
 1.8150	20.1060
 1.8160	20.1090
 1.8170	20.1130
 1.8180	20.1140
 1.8190	20.1150
 1.8200	20.1180
 1.8210	20.1170
 1.8220	20.1190
 1.8230	20.1230
 1.8240	20.1230
 1.8250	20.1240
 1.8260	20.1200
 1.8270	20.1120
 1.8280	20.1050
 1.8290	20.0960
 1.8300	20.0830
 1.8310	19.9630
 1.8320	19.9440
 1.8330	19.9180
 1.8340	19.8900
 1.8350	19.8630
 1.8360	19.8350
 1.8370	19.8030
 1.8380	19.7680
 1.8390	19.7270
 1.8400	19.6800
 1.8410	19.6300
 1.8420	19.5760
 1.8430	19.5150
 1.8440	19.4480
 1.8450	19.3710
 1.8460	19.2900
 1.8470	19.2070
 1.8480	19.1170
 1.8490	19.0190
 1.8500	18.9090
 1.8510	18.7910
 1.8520	18.6610
 1.8530	18.5190
 1.8540	18.3730
 1.8550	18.2190
 1.8560	18.0530
 1.8570	17.8790
 1.8580	17.6930
 1.8590	17.4930
 1.8600	17.2790
 1.8610	17.0530
 1.8620	16.8160
 1.8630	16.5670
 1.8640	16.3060
 1.8650	16.0330
 1.8660	15.7450
 1.8670	15.4370
 1.8680	15.1140
 1.8690	14.7750
 1.8700	14.4240
 1.8710	14.0570
 1.8720	13.6850
 1.8730	13.3020
 1.8740	12.9090
 1.8750	12.5090
 1.8760	12.0990
 1.8770	11.6900
 1.8780	11.2830
 1.8790	10.8710
 1.8800	10.4650
 1.8810	10.0610
 1.8820	 9.6580
 1.8830	 9.2550
 1.8840	 8.8630
 1.8850	 8.4790
 1.8860	 8.1040
 1.8870	 7.7420
 1.8880	 7.3910
 1.8890	 7.0570
 1.8900	 6.7380
 1.8910	 6.4350
 1.8920	 6.1440
 1.8930	 5.8760
 1.8940	 5.6220
 1.8950	 5.3850
 1.8960	 5.1710
 1.8970	 4.9720
 1.8980	 4.7890
 1.8990	 4.6250
 1.9000	 4.4720
 1.9010	 4.3340
 1.9020	 4.2090
 1.9030	 4.1000
 1.9040	 3.9990
 1.9050	 3.9080
 1.9060	 3.8300
 1.9070	 3.7580
 1.9080	 3.6930
 1.9090	 3.6380
 1.9100	 3.5890
 1.9110	 3.5450
 1.9120	 3.5100
 1.9130	 3.4760
 1.9140	 3.4470
 1.9150	 3.4200
 1.9160	 3.3940
 1.9170	 3.3710
 1.9180	 3.3470
 1.9190	 3.3260
 1.9200	 3.3100
 1.9210	 3.2930
 1.9220	 3.2820
 1.9230	 3.2780
 1.9240	 3.2700
 1.9250	 3.2610
 1.9260	 3.2550
 1.9270	 3.2510
 1.9280	 3.2470
 1.9290	 3.2450
 1.9300	 3.2460
 1.9310	 3.2460
 1.9320	 3.2460
 1.9330	 3.2480
 1.9340	 3.2530
 1.9350	 3.2580
 1.9360	 3.2660
 1.9370	 3.2740
 1.9380	 3.2820
 1.9390	 3.2900
 1.9400	 3.2970
 1.9410	 3.3080
 1.9420	 3.3210
 1.9430	 3.3330
 1.9440	 3.3470
 1.9450	 3.3630
 1.9460	 3.3780
 1.9470	 3.3940
 1.9480	 3.4090
 1.9490	 3.4230
 1.9500	 3.4410
 1.9510	 3.4580
 1.9520	 3.4770
 1.9530	 3.4970
 1.9540	 3.5150
 1.9550	 3.5360
 1.9560	 3.5570
 1.9570	 3.5800
 1.9580	 3.6060
 1.9590	 3.6310
 1.9600	 3.6560
 1.9610	 3.6820
 1.9620	 3.7100
 1.9630	 3.7350
 1.9640	 3.7620
 1.9650	 3.7930
 1.9660	 3.8240
 1.9670	 3.8540
 1.9680	 3.8850
 1.9690	 3.9180
 1.9700	 3.9500
 1.9710	 3.9800
 1.9720	 4.0130
 1.9730	 4.0470
 1.9740	 4.0820
 1.9750	 4.1180
 1.9760	 4.1550
 1.9770	 4.1890
 1.9780	 4.2210
 1.9790	 4.2550
 1.9800	 4.2850
 1.9810	 4.3220
 1.9820	 4.3640
 1.9830	 4.4030
 1.9840	 4.4450
 1.9850	 4.4850
 1.9860	 4.5190
 1.9870	 4.5580
 1.9880	 4.5990
 1.9890	 4.6420
 1.9900	 4.6880
 1.9910	 4.7320
 1.9920	 4.7750
 1.9930	 4.8170
 1.9940	 4.8600
 1.9950	 4.9000
 1.9960	 4.9450
 1.9970	 4.9910
 1.9980	 5.0370
 1.9990	 5.0860
 2.0000	 5.1340
 2.0010	 5.1780
 2.0020	 5.2230
 2.0030	 5.2650
 2.0040	 5.3090
 2.0050	 5.3550
 2.0060	 5.4030
 2.0070	 5.4500
 2.0080	 5.5000
 2.0090	 5.5490
 2.0100	 5.5980
 2.0110	 5.6450
 2.0120	 5.6910
 2.0130	 5.7380
 2.0140	 5.7840
 2.0150	 5.8250
 2.0160	 5.8720
 2.0170	 5.9190
 2.0180	 5.9660
 2.0190	 6.0160
 2.0200	 6.0630
 2.0210	 6.1090
 2.0220	 6.1550
 2.0230	 6.2000
 2.0240	 6.2450
 2.0250	 6.2900
 2.0260	 6.3350
 2.0270	 6.3800
 2.0280	 6.4260
 2.0290	 6.4710
 2.0300	 6.5140
 2.0310	 6.5580
 2.0320	 6.6030
 2.0330	 6.6460
 2.0340	 6.6890
 2.0350	 6.7320
 2.0360	 6.7740
 2.0370	 6.8160
 2.0380	 6.8560
 2.0390	 6.8980
 2.0400	 6.9370
 2.0410	 6.9770
 2.0420	 7.0150
 2.0430	 7.0580
 2.0440	 7.0970
 2.0450	 7.1340
 2.0460	 7.1720
 2.0470	 7.2110
 2.0480	 7.2490
 2.0490	 7.2880
 2.0500	 7.3270
 2.0510	 7.3680
 2.0520	 7.4080
 2.0530	 7.4520
 2.0540	 7.4930
 2.0550	 7.5340
 2.0560	 7.5730
 2.0570	 7.6130
 2.0580	 7.6520
 2.0590	 7.6930
 2.0600	 7.7340
 2.0610	 7.7770
 2.0620	 7.8200
 2.0630	 7.8640
 2.0640	 7.9110
 2.0650	 7.9540
 2.0660	 7.9970
 2.0670	 8.0400
 2.0680	 8.0800
 2.0690	 8.1210
 2.0700	 8.1640
 2.0710	 8.2060
 2.0720	 8.2490
 2.0730	 8.2910
 2.0740	 8.3340
 2.0750	 8.3770
 2.0760	 8.4190
 2.0770	 8.4600
 2.0780	 8.5030
 2.0790	 8.5440
 2.0800	 8.5870
 2.0810	 8.6330
 2.0820	 8.6780
 2.0830	 8.7260
 2.0840	 8.7700
 2.0850	 8.8140
 2.0860	 8.8560
 2.0870	 8.8930
 2.0880	 8.9330
 2.0890	 8.9760
 2.0900	 9.0220
 2.0910	 9.0640
 2.0920	 9.1060
 2.0930	 9.1490
 2.0940	 9.1890
 2.0950	 9.2310
 2.0960	 9.2810
 2.0970	 9.3230
 2.0980	 9.3570
 2.0990	 9.3970
 2.1000	 9.4350
 2.1010	 9.4740
 2.1020	 9.5180
 2.1030	 9.5600
 2.1040	 9.6000
 2.1050	 9.6420
 2.1060	 9.6810
 2.1070	 9.7200
 2.1080	 9.7590
 2.1090	 9.7950
 2.1100	 9.8350
 2.1110	 9.8770
 2.1120	 9.9160
 2.1130	 9.9550
 2.1140	 9.9930
 2.1150	10.0290
 2.1160	10.0660
 2.1170	10.1030
 2.1180	10.1400
 2.1190	10.1780
 2.1200	10.2150
 2.1210	10.2490
 2.1220	10.2860
 2.1230	10.3200
 2.1240	10.3510
 2.1250	10.3850
 2.1260	10.4180
 2.1270	10.4510
 2.1280	10.4860
 2.1290	10.5180
 2.1300	10.5490
 2.1310	10.5800
 2.1320	10.6100
 2.1330	10.6410
 2.1340	10.6760
 2.1350	10.7050
 2.1360	10.7320
 2.1370	10.7590
 2.1380	10.7830
 2.1390	10.8070
 2.1400	10.8290
 2.1410	10.8550
 2.1420	10.8800
 2.1430	10.9010
 2.1440	10.9280
 2.1450	10.9580
 2.1460	10.9840
 2.1470	11.0120
 2.1480	11.0370
 2.1490	11.0580
 2.1500	11.0810
 2.1510	11.1050
 2.1520	11.1280
 2.1530	11.1540
 2.1540	11.1760
 2.1550	11.1960
 2.1560	11.2170
 2.1570	11.2380
 2.1580	11.2580
 2.1590	11.2780
 2.1600	11.3000
 2.1610	11.3170
 2.1620	11.3370
 2.1630	11.3560
 2.1640	11.3750
 2.1650	11.3940
 2.1660	11.4130
 2.1670	11.4330
 2.1680	11.4540
 2.1690	11.4720
 2.1700	11.4900
 2.1710	11.5090
 2.1720	11.5260
 2.1730	11.5450
 2.1740	11.5680
 2.1750	11.5880
 2.1760	11.6070
 2.1770	11.6260
 2.1780	11.6430
 2.1790	11.6620
 2.1800	11.6810
 2.1810	11.7020
 2.1820	11.7240
 2.1830	11.7470
 2.1840	11.7680
 2.1850	11.7880
 2.1860	11.8080
 2.1870	11.8280
 2.1880	11.8470
 2.1890	11.8690
 2.1900	11.8870
 2.1910	11.9000
 2.1920	11.9170
 2.1930	11.9360
 2.1940	11.9540
 2.1950	11.9770
 2.1960	11.9950
 2.1970	12.0100
 2.1980	12.0240
 2.1990	12.0340
 2.2000	12.0470
 2.2010	12.0570
 2.2020	12.0690
 2.2030	12.0850
 2.2040	12.0990
 2.2050	12.1150
 2.2060	12.1300
 2.2070	12.1390
 2.2080	12.1450
 2.2090	12.1520
 2.2100	12.1560
 2.2110	12.1600
 2.2120	12.1650
 2.2130	12.1690
 2.2140	12.1700
 2.2150	12.1700
 2.2160	12.1700
 2.2170	12.1690
 2.2180	12.1660
 2.2190	12.1650
 2.2200	12.1680
 2.2210	12.1670
 2.2220	12.1660
 2.2230	12.1620
 2.2240	12.1560
 2.2250	12.1460
 2.2260	12.1370
 2.2270	12.1200
 2.2280	12.0970
 2.2290	12.0730
 2.2300	12.0450
 2.2310	12.0120
 2.2320	11.9840
 2.2330	11.9540
 2.2340	11.9230
 2.2350	11.8910
 2.2360	11.8600
 2.2370	11.8270
 2.2380	11.7940
 2.2390	11.7640
 2.2400	11.7260
 2.2410	11.6840
 2.2420	11.6400
 2.2430	11.5880
 2.2440	11.5430
 2.2450	11.4970
 2.2460	11.4530
 2.2470	11.4130
 2.2480	11.3710
 2.2490	11.3270
 2.2500	11.2830
 2.2510	11.2350
 2.2520	11.1880
 2.2530	11.1410
 2.2540	11.0930
 2.2550	11.0440
 2.2560	10.9950
 2.2570	10.9440
 2.2580	10.8960
 2.2590	10.8500
 2.2600	10.8040
 2.2610	10.7600
 2.2620	10.7140
 2.2630	10.6620
 2.2640	10.6070
 2.2650	10.5570
 2.2660	10.5060
 2.2670	10.4580
 2.2680	10.4130
 2.2690	10.3660
 2.2700	10.3160
 2.2710	10.2690
 2.2720	10.2230
 2.2730	10.1800
 2.2740	10.1380
 2.2750	10.0980
 2.2760	10.0620
 2.2770	10.0240
 2.2780	 9.9860
 2.2790	 9.9480
 2.2800	 9.9100
 2.2810	 9.8700
 2.2820	 9.8330
 2.2830	 9.7900
 2.2840	 9.7400
 2.2850	 9.6960
 2.2860	 9.6520
 2.2870	 9.6050
 2.2880	 9.5570
 2.2890	 9.5140
 2.2900	 9.4720
 2.2910	 9.4290
 2.2920	 9.3950
 2.2930	 9.3530
 2.2940	 9.3010
 2.2950	 9.2530
 2.2960	 9.1990
 2.2970	 9.1510
 2.2980	 9.1100
 2.2990	 9.0640
 2.3000	 9.0270
 2.3010	 8.9910
 2.3020	 8.9450
 2.3030	 8.9060
 2.3040	 8.8660
 2.3050	 8.8260
 2.3060	 8.8000
 2.3070	 8.7820
 2.3080	 8.7680
 2.3090	 8.7560
 2.3100	 8.7370
 2.3110	 8.7180
 2.3120	 8.7000
 2.3130	 8.6800
 2.3140	 8.6620
 2.3150	 8.6440
 2.3160	 8.6310
 2.3170	 8.6200
 2.3180	 8.6070
 2.3190	 8.6000
 2.3200	 8.5830
 2.3210	 8.5590
 2.3220	 8.5360
 2.3230	 8.5100
 2.3240	 8.4840
 2.3250	 8.4590
 2.3260	 8.4300
 2.3270	 8.3980
 2.3280	 8.3660
 2.3290	 8.3300
 2.3300	 8.2950
 2.3310	 8.2590
 2.3320	 8.2250
 2.3330	 8.1920
 2.3340	 8.1550
 2.3350	 8.1140
 2.3360	 8.0760
 2.3370	 8.0330
 2.3380	 7.9950
 2.3390	 7.9670
 2.3400	 7.9290
 2.3410	 7.8840
 2.3420	 7.8460
 2.3430	 7.8040
 2.3440	 7.7690
 2.3450	 7.7440
 2.3460	 7.7160
 2.3470	 7.6880
 2.3480	 7.6580
 2.3490	 7.6250
 2.3500	 7.5970
 2.3510	 7.5700
 2.3520	 7.5440
 2.3530	 7.5200
 2.3540	 7.4980
 2.3550	 7.4680
 2.3560	 7.4460
 2.3570	 7.4340
 2.3580	 7.4090
 2.3590	 7.3920
 2.3600	 7.3700
 2.3610	 7.3280
 2.3620	 7.2910
 2.3630	 7.2590
 2.3640	 7.2270
 2.3650	 7.2130
 2.3660	 7.1950
 2.3670	 7.1580
 2.3680	 7.1270
 2.3690	 7.0940
 2.3700	 7.0570
 2.3710	 7.0280
 2.3720	 6.9930
 2.3730	 6.9540
 2.3740	 6.9220
 2.3750	 6.9010
 2.3760	 6.8830
 2.3770	 6.8600
 2.3780	 6.8340
 2.3790	 6.8060
 2.3800	 6.7700
 2.3810	 6.7390
 2.3820	 6.7060
 2.3830	 6.6660
 2.3840	 6.6370
 2.3850	 6.6090
 2.3860	 6.5850
 2.3870	 6.5700
 2.3880	 6.5460
 2.3890	 6.5170
 2.3900	 6.4830
 2.3910	 6.4430
 2.3920	 6.4080
 2.3930	 6.3790
 2.3940	 6.3500
 2.3950	 6.3080
 2.3960	 6.2690
 2.3970	 6.2350
 2.3980	 6.1980
 2.3990	 6.1820
 2.4000	 6.1570
 2.4010	 6.1270
 2.4020	 6.1030
 2.4030	 6.0630
 2.4040	 6.0330
 2.4050	 6.0040
 2.4060	 5.9680
 2.4070	 5.9480
 2.4080	 5.9170
 2.4090	 5.8690
 2.4100	 5.8430
 2.4110	 5.8070
 2.4120	 5.7730
 2.4130	 5.7540
 2.4140	 5.7120
 2.4150	 5.6660
 2.4160	 5.6230
 2.4170	 5.5860
 2.4180	 5.5600
 2.4190	 5.5450
 2.4200	 5.5360
 2.4210	 5.5080
 2.4220	 5.4790
 2.4230	 5.4480
 2.4240	 5.4060
 2.4250	 5.3770
 2.4260	 5.3570
 2.4270	 5.3170
 2.4280	 5.2830
 2.4290	 5.2570
 2.4300	 5.2190
 2.4310	 5.1890
 2.4320	 5.1590
 2.4330	 5.1250
 2.4340	 5.0870
 2.4350	 5.0420
 2.4360	 5.0020
 2.4370	 4.9690
 2.4380	 4.9470
 2.4390	 4.9240
 2.4400	 4.9060
 2.4410	 4.8960
 2.4420	 4.8590
 2.4430	 4.8160
 2.4440	 4.7950
 2.4450	 4.7690
 2.4460	 4.7460
 2.4470	 4.7330
 2.4480	 4.7160
 2.4490	 4.6780
 2.4500	 4.6310
 2.4510	 4.5940
 2.4520	 4.5530
 2.4530	 4.5110
 2.4540	 4.4910
 2.4550	 4.4800
 2.4560	 4.4440
 2.4570	 4.4210
 2.4580	 4.4020
 2.4590	 4.3630
 2.4600	 4.3510
 2.4610	 4.3320
 2.4620	 4.2870
 2.4630	 4.2530
 2.4640	 4.2330
 2.4650	 4.2340
 2.4660	 4.2400
 2.4670	 4.2340
 2.4680	 4.2200
 2.4690	 4.1730
 2.4700	 4.1410
 2.4710	 4.1160
 2.4720	 4.0930
 2.4730	 4.0730
 2.4740	 4.0430
 2.4750	 4.0060
 2.4760	 3.9870
 2.4770	 3.9770
 2.4780	 3.9670
 2.4790	 3.9830
 2.4800	 3.9810
 2.4810	 3.9450
 2.4820	 3.9570
 2.4830	 3.9790
 2.4840	 3.9980
 2.4850	 4.0030
 2.4860	 4.0030
 2.4870	 3.9450
 2.4880	 3.8720
 2.4890	 3.8460
 2.4900	 3.7810
 2.4910	 3.7060
 2.4920	 3.7000
 2.4930	 3.7030
 2.4940	 3.6690
 2.4950	 3.6910
 2.4960	 3.7210
 2.4970	 3.6970
 2.4980	 3.7940
 2.4990	 3.8930
 2.5000	 3.8370
