Name: Lagerstroemia indica
Type: vegetation
Class: Tree
Genus: Lagerstroemia
Species: indica
Sample No.: JPL149
Owner: JPL
Wavelength Range: VSWIR
Origin: 34.1242; -118.1134; WGS84
Collection Date: 9/14/2016
Description: Samples were collected at the Huntington Garden in San Marino California as part of a JPL Subcontract studying HyTES imagery. Samples were taken to JPL and processed within 48 hours of collection. The same leaves were processed in the Nicolet and then measured using the ASD.
Measurement: Bidirectional reflectance
First Column: X
Second Column: Y
X Units: Wavelength (micrometer)
Y Units: Reflectance (percentage)
First X Value: 0.35
Last X Value: 2.5
Number of X Values: 2151
Additional Information: vegetation.tree.lagerstroemia.indica.vswir.jpl149.jpl.asd.ancillary.txt

 0.3500	 4.1790
 0.3510	 4.1500
 0.3520	 4.1900
 0.3530	 4.1760
 0.3540	 4.0580
 0.3550	 4.0630
 0.3560	 4.0390
 0.3570	 3.9720
 0.3580	 3.9300
 0.3590	 4.0010
 0.3600	 4.0340
 0.3610	 3.9750
 0.3620	 3.9250
 0.3630	 3.9410
 0.3640	 3.9510
 0.3650	 3.8820
 0.3660	 3.7870
 0.3670	 3.7890
 0.3680	 3.8550
 0.3690	 3.8510
 0.3700	 3.8260
 0.3710	 3.8390
 0.3720	 3.8910
 0.3730	 3.8810
 0.3740	 3.8730
 0.3750	 3.8740
 0.3760	 3.8720
 0.3770	 3.8410
 0.3780	 3.8330
 0.3790	 3.8590
 0.3800	 3.8800
 0.3810	 3.8420
 0.3820	 3.8000
 0.3830	 3.7970
 0.3840	 3.7930
 0.3850	 3.7960
 0.3860	 3.7980
 0.3870	 3.7850
 0.3880	 3.7740
 0.3890	 3.7610
 0.3900	 3.7560
 0.3910	 3.7790
 0.3920	 3.7710
 0.3930	 3.7580
 0.3940	 3.7640
 0.3950	 3.7540
 0.3960	 3.7470
 0.3970	 3.7370
 0.3980	 3.7160
 0.3990	 3.7520
 0.4000	 3.7830
 0.4010	 3.7730
 0.4020	 3.7340
 0.4030	 3.7220
 0.4040	 3.7410
 0.4050	 3.7700
 0.4060	 3.7740
 0.4070	 3.7750
 0.4080	 3.7810
 0.4090	 3.7910
 0.4100	 3.7810
 0.4110	 3.7820
 0.4120	 3.8050
 0.4130	 3.8160
 0.4140	 3.8230
 0.4150	 3.8340
 0.4160	 3.8520
 0.4170	 3.8560
 0.4180	 3.8620
 0.4190	 3.8780
 0.4200	 3.8990
 0.4210	 3.9080
 0.4220	 3.9180
 0.4230	 3.9380
 0.4240	 3.9580
 0.4250	 3.9640
 0.4260	 3.9680
 0.4270	 3.9910
 0.4280	 3.9980
 0.4290	 3.9970
 0.4300	 4.0010
 0.4310	 4.0240
 0.4320	 4.0390
 0.4330	 4.0470
 0.4340	 4.0560
 0.4350	 4.0650
 0.4360	 4.0810
 0.4370	 4.0980
 0.4380	 4.1010
 0.4390	 4.1020
 0.4400	 4.1110
 0.4410	 4.1310
 0.4420	 4.1510
 0.4430	 4.1680
 0.4440	 4.1880
 0.4450	 4.2140
 0.4460	 4.2360
 0.4470	 4.2560
 0.4480	 4.2780
 0.4490	 4.3160
 0.4500	 4.3500
 0.4510	 4.3780
 0.4520	 4.4040
 0.4530	 4.4320
 0.4540	 4.4580
 0.4550	 4.4820
 0.4560	 4.5020
 0.4570	 4.5200
 0.4580	 4.5380
 0.4590	 4.5560
 0.4600	 4.5730
 0.4610	 4.5910
 0.4620	 4.6060
 0.4630	 4.6120
 0.4640	 4.6180
 0.4650	 4.6220
 0.4660	 4.6250
 0.4670	 4.6330
 0.4680	 4.6410
 0.4690	 4.6470
 0.4700	 4.6520
 0.4710	 4.6580
 0.4720	 4.6620
 0.4730	 4.6670
 0.4740	 4.6780
 0.4750	 4.6860
 0.4760	 4.6930
 0.4770	 4.7030
 0.4780	 4.7140
 0.4790	 4.7280
 0.4800	 4.7430
 0.4810	 4.7550
 0.4820	 4.7760
 0.4830	 4.7930
 0.4840	 4.8100
 0.4850	 4.8410
 0.4860	 4.8670
 0.4870	 4.8920
 0.4880	 4.9220
 0.4890	 4.9580
 0.4900	 4.9970
 0.4910	 5.0430
 0.4920	 5.0970
 0.4930	 5.1540
 0.4940	 5.2190
 0.4950	 5.2900
 0.4960	 5.3630
 0.4970	 5.4480
 0.4980	 5.5430
 0.4990	 5.6440
 0.5000	 5.7530
 0.5010	 5.8720
 0.5020	 6.0000
 0.5030	 6.1380
 0.5040	 6.2950
 0.5050	 6.4630
 0.5060	 6.6390
 0.5070	 6.8290
 0.5080	 7.0300
 0.5090	 7.2490
 0.5100	 7.4900
 0.5110	 7.7380
 0.5120	 7.9940
 0.5130	 8.2640
 0.5140	 8.5510
 0.5150	 8.8500
 0.5160	 9.1580
 0.5170	 9.4750
 0.5180	 9.8030
 0.5190	10.1380
 0.5200	10.4760
 0.5210	10.8090
 0.5220	11.1470
 0.5230	11.4800
 0.5240	11.7980
 0.5250	12.1010
 0.5260	12.3950
 0.5270	12.6770
 0.5280	12.9380
 0.5290	13.1870
 0.5300	13.4220
 0.5310	13.6380
 0.5320	13.8370
 0.5330	14.0200
 0.5340	14.1880
 0.5350	14.3380
 0.5360	14.4750
 0.5370	14.6030
 0.5380	14.7270
 0.5390	14.8470
 0.5400	14.9760
 0.5410	15.1120
 0.5420	15.2460
 0.5430	15.3600
 0.5440	15.4500
 0.5450	15.5140
 0.5460	15.5550
 0.5470	15.5790
 0.5480	15.6070
 0.5490	15.6470
 0.5500	15.6900
 0.5510	15.7260
 0.5520	15.7490
 0.5530	15.7550
 0.5540	15.7450
 0.5550	15.7200
 0.5560	15.6800
 0.5570	15.6290
 0.5580	15.5660
 0.5590	15.4930
 0.5600	15.4110
 0.5610	15.3190
 0.5620	15.2130
 0.5630	15.0960
 0.5640	14.9730
 0.5650	14.8420
 0.5660	14.7050
 0.5670	14.5610
 0.5680	14.4120
 0.5690	14.2560
 0.5700	14.0910
 0.5710	13.9200
 0.5720	13.7570
 0.5730	13.5960
 0.5740	13.4380
 0.5750	13.2910
 0.5760	13.1500
 0.5770	13.0150
 0.5780	12.8900
 0.5790	12.7800
 0.5800	12.6810
 0.5810	12.5860
 0.5820	12.4900
 0.5830	12.3970
 0.5840	12.3020
 0.5850	12.2060
 0.5860	12.1210
 0.5870	12.0470
 0.5880	11.9810
 0.5890	11.9180
 0.5900	11.8630
 0.5910	11.8140
 0.5920	11.7690
 0.5930	11.7270
 0.5940	11.6860
 0.5950	11.6540
 0.5960	11.6300
 0.5970	11.6060
 0.5980	11.5830
 0.5990	11.5570
 0.6000	11.5230
 0.6010	11.4790
 0.6020	11.4270
 0.6030	11.3690
 0.6040	11.3050
 0.6050	11.2320
 0.6060	11.1500
 0.6070	11.0580
 0.6080	10.9600
 0.6090	10.8670
 0.6100	10.7860
 0.6110	10.7150
 0.6120	10.6020
 0.6130	10.4610
 0.6140	10.3170
 0.6150	10.1950
 0.6160	10.0770
 0.6170	 9.9660
 0.6180	 9.8680
 0.6190	 9.7820
 0.6200	 9.7060
 0.6210	 9.6380
 0.6220	 9.5740
 0.6230	 9.5200
 0.6240	 9.4770
 0.6250	 9.4440
 0.6260	 9.4180
 0.6270	 9.4000
 0.6280	 9.3870
 0.6290	 9.3770
 0.6300	 9.3720
 0.6310	 9.3640
 0.6320	 9.3460
 0.6330	 9.3200
 0.6340	 9.2830
 0.6350	 9.2330
 0.6360	 9.1670
 0.6370	 9.0810
 0.6380	 8.9820
 0.6390	 8.8690
 0.6400	 8.7410
 0.6410	 8.6030
 0.6420	 8.4580
 0.6430	 8.3100
 0.6440	 8.1590
 0.6450	 8.0060
 0.6460	 7.8560
 0.6470	 7.7150
 0.6480	 7.5890
 0.6490	 7.4770
 0.6500	 7.3790
 0.6510	 7.2960
 0.6520	 7.2200
 0.6530	 7.1490
 0.6540	 7.0770
 0.6550	 7.0000
 0.6560	 6.9140
 0.6570	 6.8140
 0.6580	 6.7000
 0.6590	 6.5750
 0.6600	 6.4440
 0.6610	 6.3110
 0.6620	 6.1760
 0.6630	 6.0430
 0.6640	 5.9160
 0.6650	 5.8030
 0.6660	 5.7040
 0.6670	 5.6190
 0.6680	 5.5480
 0.6690	 5.4890
 0.6700	 5.4470
 0.6710	 5.4180
 0.6720	 5.4030
 0.6730	 5.3990
 0.6740	 5.4060
 0.6750	 5.4220
 0.6760	 5.4480
 0.6770	 5.4850
 0.6780	 5.5310
 0.6790	 5.5870
 0.6800	 5.6580
 0.6810	 5.7490
 0.6820	 5.8600
 0.6830	 5.9960
 0.6840	 6.1630
 0.6850	 6.3680
 0.6860	 6.6200
 0.6870	 6.9280
 0.6880	 7.2980
 0.6890	 7.7420
 0.6900	 8.2660
 0.6910	 8.8740
 0.6920	 9.5680
 0.6930	10.3420
 0.6940	11.1900
 0.6950	12.1030
 0.6960	13.0730
 0.6970	14.0900
 0.6980	15.1430
 0.6990	16.2130
 0.7000	17.2960
 0.7010	18.3800
 0.7020	19.4510
 0.7030	20.4990
 0.7040	21.5240
 0.7050	22.5230
 0.7060	23.4940
 0.7070	24.4380
 0.7080	25.3570
 0.7090	26.2520
 0.7100	27.1240
 0.7110	27.9780
 0.7120	28.8170
 0.7130	29.6390
 0.7140	30.4400
 0.7150	31.2230
 0.7160	31.9920
 0.7170	32.7490
 0.7180	33.4880
 0.7190	34.2050
 0.7200	34.9010
 0.7210	35.5770
 0.7220	36.2320
 0.7230	36.8620
 0.7240	37.4660
 0.7250	38.0480
 0.7260	38.6050
 0.7270	39.1350
 0.7280	39.6420
 0.7290	40.1230
 0.7300	40.5780
 0.7310	41.0050
 0.7320	41.4130
 0.7330	41.7960
 0.7340	42.1530
 0.7350	42.4880
 0.7360	42.8040
 0.7370	43.1000
 0.7380	43.3760
 0.7390	43.6320
 0.7400	43.8720
 0.7410	44.0960
 0.7420	44.3020
 0.7430	44.4910
 0.7440	44.6650
 0.7450	44.8240
 0.7460	44.9700
 0.7470	45.1020
 0.7480	45.2240
 0.7490	45.3340
 0.7500	45.4320
 0.7510	45.5240
 0.7520	45.6080
 0.7530	45.6850
 0.7540	45.7550
 0.7550	45.8190
 0.7560	45.8780
 0.7570	45.9340
 0.7580	45.9840
 0.7590	46.0320
 0.7600	46.0760
 0.7610	46.1140
 0.7620	46.1510
 0.7630	46.1870
 0.7640	46.2220
 0.7650	46.2500
 0.7660	46.2750
 0.7670	46.2990
 0.7680	46.3220
 0.7690	46.3460
 0.7700	46.3670
 0.7710	46.3860
 0.7720	46.4050
 0.7730	46.4250
 0.7740	46.4440
 0.7750	46.4630
 0.7760	46.4800
 0.7770	46.4970
 0.7780	46.5150
 0.7790	46.5330
 0.7800	46.5510
 0.7810	46.5690
 0.7820	46.5850
 0.7830	46.6010
 0.7840	46.6140
 0.7850	46.6270
 0.7860	46.6410
 0.7870	46.6520
 0.7880	46.6670
 0.7890	46.6810
 0.7900	46.6890
 0.7910	46.6990
 0.7920	46.7090
 0.7930	46.7180
 0.7940	46.7250
 0.7950	46.7310
 0.7960	46.7360
 0.7970	46.7400
 0.7980	46.7450
 0.7990	46.7490
 0.8000	46.7510
 0.8010	46.7510
 0.8020	46.7540
 0.8030	46.7560
 0.8040	46.7550
 0.8050	46.7520
 0.8060	46.7510
 0.8070	46.7490
 0.8080	46.7440
 0.8090	46.7400
 0.8100	46.7390
 0.8110	46.7370
 0.8120	46.7340
 0.8130	46.7270
 0.8140	46.7170
 0.8150	46.7070
 0.8160	46.6990
 0.8170	46.6920
 0.8180	46.6850
 0.8190	46.6800
 0.8200	46.6730
 0.8210	46.6640
 0.8220	46.6560
 0.8230	46.6480
 0.8240	46.6390
 0.8250	46.6330
 0.8260	46.6250
 0.8270	46.6140
 0.8280	46.6070
 0.8290	46.5960
 0.8300	46.5830
 0.8310	46.5730
 0.8320	46.5660
 0.8330	46.5590
 0.8340	46.5530
 0.8350	46.5480
 0.8360	46.5390
 0.8370	46.5340
 0.8380	46.5340
 0.8390	46.5360
 0.8400	46.5370
 0.8410	46.5360
 0.8420	46.5330
 0.8430	46.5310
 0.8440	46.5320
 0.8450	46.5350
 0.8460	46.5400
 0.8470	46.5420
 0.8480	46.5460
 0.8490	46.5490
 0.8500	46.5490
 0.8510	46.5510
 0.8520	46.5600
 0.8530	46.5700
 0.8540	46.5720
 0.8550	46.5760
 0.8560	46.5830
 0.8570	46.5910
 0.8580	46.5980
 0.8590	46.6080
 0.8600	46.6180
 0.8610	46.6260
 0.8620	46.6360
 0.8630	46.6450
 0.8640	46.6540
 0.8650	46.6650
 0.8660	46.6780
 0.8670	46.6910
 0.8680	46.7010
 0.8690	46.7090
 0.8700	46.7210
 0.8710	46.7350
 0.8720	46.7490
 0.8730	46.7600
 0.8740	46.7700
 0.8750	46.7840
 0.8760	46.8000
 0.8770	46.8090
 0.8780	46.8240
 0.8790	46.8380
 0.8800	46.8470
 0.8810	46.8600
 0.8820	46.8750
 0.8830	46.8870
 0.8840	46.8960
 0.8850	46.9100
 0.8860	46.9240
 0.8870	46.9350
 0.8880	46.9460
 0.8890	46.9610
 0.8900	46.9740
 0.8910	46.9860
 0.8920	47.0000
 0.8930	47.0100
 0.8940	47.0210
 0.8950	47.0340
 0.8960	47.0440
 0.8970	47.0550
 0.8980	47.0650
 0.8990	47.0740
 0.9000	47.0840
 0.9010	47.0990
 0.9020	47.1100
 0.9030	47.1170
 0.9040	47.1260
 0.9050	47.1350
 0.9060	47.1440
 0.9070	47.1540
 0.9080	47.1620
 0.9090	47.1660
 0.9100	47.1700
 0.9110	47.1790
 0.9120	47.1870
 0.9130	47.1900
 0.9140	47.1940
 0.9150	47.2020
 0.9160	47.2000
 0.9170	47.1990
 0.9180	47.2000
 0.9190	47.2000
 0.9200	47.2000
 0.9210	47.1930
 0.9220	47.1830
 0.9230	47.1800
 0.9240	47.1790
 0.9250	47.1720
 0.9260	47.1590
 0.9270	47.1430
 0.9280	47.1270
 0.9290	47.1110
 0.9300	47.0940
 0.9310	47.0740
 0.9320	47.0470
 0.9330	47.0170
 0.9340	46.9920
 0.9350	46.9760
 0.9360	46.9530
 0.9370	46.9230
 0.9380	46.8920
 0.9390	46.8610
 0.9400	46.8300
 0.9410	46.7990
 0.9420	46.7650
 0.9430	46.7220
 0.9440	46.6790
 0.9450	46.6360
 0.9460	46.5910
 0.9470	46.5430
 0.9480	46.4850
 0.9490	46.4280
 0.9500	46.3790
 0.9510	46.3100
 0.9520	46.2360
 0.9530	46.1630
 0.9540	46.0920
 0.9550	46.0220
 0.9560	45.9540
 0.9570	45.8900
 0.9580	45.8290
 0.9590	45.7660
 0.9600	45.7130
 0.9610	45.6670
 0.9620	45.6200
 0.9630	45.5810
 0.9640	45.5460
 0.9650	45.5130
 0.9660	45.4840
 0.9670	45.4520
 0.9680	45.4310
 0.9690	45.4120
 0.9700	45.3840
 0.9710	45.3800
 0.9720	45.3700
 0.9730	45.3560
 0.9740	45.3490
 0.9750	45.3480
 0.9760	45.3400
 0.9770	45.3280
 0.9780	45.3230
 0.9790	45.3180
 0.9800	45.3290
 0.9810	45.3390
 0.9820	45.3240
 0.9830	45.3340
 0.9840	45.3460
 0.9850	45.3540
 0.9860	45.3620
 0.9870	45.3690
 0.9880	45.3750
 0.9890	45.3890
 0.9900	45.4160
 0.9910	45.4250
 0.9920	45.4370
 0.9930	45.4550
 0.9940	45.4720
 0.9950	45.4860
 0.9960	45.5010
 0.9970	45.5210
 0.9980	45.5440
 0.9990	45.5600
 1.0000	45.5810
 1.0010	46.0880
 1.0020	46.1110
 1.0030	46.1330
 1.0040	46.1550
 1.0050	46.1760
 1.0060	46.1990
 1.0070	46.2210
 1.0080	46.2460
 1.0090	46.2730
 1.0100	46.2980
 1.0110	46.3270
 1.0120	46.3540
 1.0130	46.3780
 1.0140	46.4030
 1.0150	46.4300
 1.0160	46.4560
 1.0170	46.4810
 1.0180	46.5040
 1.0190	46.5260
 1.0200	46.5460
 1.0210	46.5630
 1.0220	46.5840
 1.0230	46.6040
 1.0240	46.6250
 1.0250	46.6470
 1.0260	46.6720
 1.0270	46.6940
 1.0280	46.7160
 1.0290	46.7390
 1.0300	46.7650
 1.0310	46.7870
 1.0320	46.8090
 1.0330	46.8290
 1.0340	46.8490
 1.0350	46.8660
 1.0360	46.8830
 1.0370	46.9030
 1.0380	46.9230
 1.0390	46.9430
 1.0400	46.9610
 1.0410	46.9810
 1.0420	47.0000
 1.0430	47.0180
 1.0440	47.0350
 1.0450	47.0540
 1.0460	47.0700
 1.0470	47.0840
 1.0480	47.0990
 1.0490	47.1140
 1.0500	47.1290
 1.0510	47.1440
 1.0520	47.1580
 1.0530	47.1700
 1.0540	47.1800
 1.0550	47.1910
 1.0560	47.2010
 1.0570	47.2120
 1.0580	47.2270
 1.0590	47.2360
 1.0600	47.2390
 1.0610	47.2460
 1.0620	47.2510
 1.0630	47.2580
 1.0640	47.2700
 1.0650	47.2770
 1.0660	47.2820
 1.0670	47.2860
 1.0680	47.2900
 1.0690	47.2910
 1.0700	47.2940
 1.0710	47.2970
 1.0720	47.2990
 1.0730	47.3010
 1.0740	47.3010
 1.0750	47.2990
 1.0760	47.2970
 1.0770	47.2910
 1.0780	47.2890
 1.0790	47.2890
 1.0800	47.2880
 1.0810	47.2890
 1.0820	47.2870
 1.0830	47.2810
 1.0840	47.2770
 1.0850	47.2710
 1.0860	47.2680
 1.0870	47.2630
 1.0880	47.2590
 1.0890	47.2530
 1.0900	47.2460
 1.0910	47.2390
 1.0920	47.2320
 1.0930	47.2240
 1.0940	47.2110
 1.0950	47.2020
 1.0960	47.1950
 1.0970	47.1850
 1.0980	47.1770
 1.0990	47.1670
 1.1000	47.1550
 1.1010	47.1430
 1.1020	47.1310
 1.1030	47.1200
 1.1040	47.1070
 1.1050	47.0960
 1.1060	47.0840
 1.1070	47.0730
 1.1080	47.0600
 1.1090	47.0460
 1.1100	47.0320
 1.1110	47.0190
 1.1120	47.0020
 1.1130	46.9830
 1.1140	46.9640
 1.1150	46.9420
 1.1160	46.9210
 1.1170	46.8990
 1.1180	46.8760
 1.1190	46.8520
 1.1200	46.8260
 1.1210	46.7960
 1.1220	46.7630
 1.1230	46.7260
 1.1240	46.6860
 1.1250	46.6400
 1.1260	46.5900
 1.1270	46.5330
 1.1280	46.4710
 1.1290	46.4010
 1.1300	46.3270
 1.1310	46.2430
 1.1320	46.1520
 1.1330	46.0520
 1.1340	45.9460
 1.1350	45.8300
 1.1360	45.7060
 1.1370	45.5720
 1.1380	45.4320
 1.1390	45.2880
 1.1400	45.1360
 1.1410	44.9830
 1.1420	44.8240
 1.1430	44.6610
 1.1440	44.5010
 1.1450	44.3360
 1.1460	44.1770
 1.1470	44.0170
 1.1480	43.8660
 1.1490	43.7180
 1.1500	43.5790
 1.1510	43.4430
 1.1520	43.3180
 1.1530	43.2010
 1.1540	43.0940
 1.1550	42.9980
 1.1560	42.9100
 1.1570	42.8280
 1.1580	42.7530
 1.1590	42.6860
 1.1600	42.6280
 1.1610	42.5780
 1.1620	42.5340
 1.1630	42.4940
 1.1640	42.4570
 1.1650	42.4250
 1.1660	42.3960
 1.1670	42.3710
 1.1680	42.3520
 1.1690	42.3340
 1.1700	42.3200
 1.1710	42.3050
 1.1720	42.2930
 1.1730	42.2790
 1.1740	42.2660
 1.1750	42.2510
 1.1760	42.2370
 1.1770	42.2230
 1.1780	42.2100
 1.1790	42.1960
 1.1800	42.1800
 1.1810	42.1640
 1.1820	42.1500
 1.1830	42.1350
 1.1840	42.1180
 1.1850	42.1030
 1.1860	42.0850
 1.1870	42.0670
 1.1880	42.0540
 1.1890	42.0430
 1.1900	42.0320
 1.1910	42.0230
 1.1920	42.0150
 1.1930	42.0070
 1.1940	42.0000
 1.1950	41.9930
 1.1960	41.9890
 1.1970	41.9900
 1.1980	41.9900
 1.1990	41.9930
 1.2000	42.0000
 1.2010	42.0080
 1.2020	42.0160
 1.2030	42.0260
 1.2040	42.0380
 1.2050	42.0500
 1.2060	42.0640
 1.2070	42.0790
 1.2080	42.0980
 1.2090	42.1180
 1.2100	42.1390
 1.2110	42.1610
 1.2120	42.1850
 1.2130	42.2080
 1.2140	42.2320
 1.2150	42.2560
 1.2160	42.2820
 1.2170	42.3070
 1.2180	42.3330
 1.2190	42.3590
 1.2200	42.3860
 1.2210	42.4140
 1.2220	42.4430
 1.2230	42.4690
 1.2240	42.4980
 1.2250	42.5260
 1.2260	42.5510
 1.2270	42.5770
 1.2280	42.6020
 1.2290	42.6260
 1.2300	42.6510
 1.2310	42.6750
 1.2320	42.6990
 1.2330	42.7200
 1.2340	42.7410
 1.2350	42.7610
 1.2360	42.7820
 1.2370	42.8030
 1.2380	42.8220
 1.2390	42.8430
 1.2400	42.8600
 1.2410	42.8740
 1.2420	42.8900
 1.2430	42.9070
 1.2440	42.9240
 1.2450	42.9420
 1.2460	42.9580
 1.2470	42.9740
 1.2480	42.9880
 1.2490	43.0010
 1.2500	43.0150
 1.2510	43.0270
 1.2520	43.0370
 1.2530	43.0470
 1.2540	43.0580
 1.2550	43.0670
 1.2560	43.0750
 1.2570	43.0810
 1.2580	43.0850
 1.2590	43.0890
 1.2600	43.0930
 1.2610	43.0960
 1.2620	43.0980
 1.2630	43.0980
 1.2640	43.0990
 1.2650	43.0980
 1.2660	43.0950
 1.2670	43.0910
 1.2680	43.0860
 1.2690	43.0810
 1.2700	43.0750
 1.2710	43.0690
 1.2720	43.0610
 1.2730	43.0520
 1.2740	43.0410
 1.2750	43.0280
 1.2760	43.0130
 1.2770	42.9970
 1.2780	42.9820
 1.2790	42.9660
 1.2800	42.9500
 1.2810	42.9300
 1.2820	42.9070
 1.2830	42.8820
 1.2840	42.8550
 1.2850	42.8270
 1.2860	42.7980
 1.2870	42.7660
 1.2880	42.7310
 1.2890	42.6940
 1.2900	42.6550
 1.2910	42.6130
 1.2920	42.5690
 1.2930	42.5230
 1.2940	42.4740
 1.2950	42.4230
 1.2960	42.3680
 1.2970	42.3110
 1.2980	42.2510
 1.2990	42.1890
 1.3000	42.1230
 1.3010	42.0560
 1.3020	41.9860
 1.3030	41.9110
 1.3040	41.8340
 1.3050	41.7560
 1.3060	41.6740
 1.3070	41.5910
 1.3080	41.5050
 1.3090	41.4160
 1.3100	41.3220
 1.3110	41.2250
 1.3120	41.1240
 1.3130	41.0220
 1.3140	40.9170
 1.3150	40.8090
 1.3160	40.6970
 1.3170	40.5810
 1.3180	40.4610
 1.3190	40.3390
 1.3200	40.2140
 1.3210	40.0860
 1.3220	39.9560
 1.3230	39.8230
 1.3240	39.6860
 1.3250	39.5490
 1.3260	39.4080
 1.3270	39.2640
 1.3280	39.1180
 1.3290	38.9690
 1.3300	38.8170
 1.3310	38.6650
 1.3320	38.5080
 1.3330	38.3540
 1.3340	38.1980
 1.3350	38.0400
 1.3360	37.8820
 1.3370	37.7230
 1.3380	37.5630
 1.3390	37.4050
 1.3400	37.2480
 1.3410	37.0930
 1.3420	36.9380
 1.3430	36.7850
 1.3440	36.6330
 1.3450	36.4830
 1.3460	36.3340
 1.3470	36.1870
 1.3480	36.0430
 1.3490	35.8980
 1.3500	35.7550
 1.3510	35.6120
 1.3520	35.4700
 1.3530	35.3280
 1.3540	35.1860
 1.3550	35.0450
 1.3560	34.9020
 1.3570	34.7570
 1.3580	34.6110
 1.3590	34.4620
 1.3600	34.3100
 1.3610	34.1540
 1.3620	33.9910
 1.3630	33.8240
 1.3640	33.6510
 1.3650	33.4680
 1.3660	33.2800
 1.3670	33.0820
 1.3680	32.8700
 1.3690	32.6460
 1.3700	32.4060
 1.3710	32.1500
 1.3720	31.8800
 1.3730	31.5900
 1.3740	31.2820
 1.3750	30.9540
 1.3760	30.6000
 1.3770	30.2220
 1.3780	29.8150
 1.3790	29.3860
 1.3800	28.9320
 1.3810	28.4490
 1.3820	27.9470
 1.3830	27.4230
 1.3840	26.8800
 1.3850	26.3140
 1.3860	25.7360
 1.3870	25.1350
 1.3880	24.5330
 1.3890	23.9200
 1.3900	23.2980
 1.3910	22.6800
 1.3920	22.0580
 1.3930	21.4340
 1.3940	20.8180
 1.3950	20.2050
 1.3960	19.6040
 1.3970	19.0190
 1.3980	18.4460
 1.3990	17.8990
 1.4000	17.3720
 1.4010	16.8610
 1.4020	16.3770
 1.4030	15.9110
 1.4040	15.4680
 1.4050	15.0520
 1.4060	14.6580
 1.4070	14.2920
 1.4080	13.9480
 1.4090	13.6250
 1.4100	13.3250
 1.4110	13.0450
 1.4120	12.7840
 1.4130	12.5440
 1.4140	12.3210
 1.4150	12.1170
 1.4160	11.9290
 1.4170	11.7560
 1.4180	11.5970
 1.4190	11.4480
 1.4200	11.3130
 1.4210	11.1890
 1.4220	11.0750
 1.4230	10.9730
 1.4240	10.8790
 1.4250	10.7920
 1.4260	10.7130
 1.4270	10.6400
 1.4280	10.5750
 1.4290	10.5150
 1.4300	10.4640
 1.4310	10.4160
 1.4320	10.3740
 1.4330	10.3350
 1.4340	10.3020
 1.4350	10.2720
 1.4360	10.2480
 1.4370	10.2260
 1.4380	10.2080
 1.4390	10.1940
 1.4400	10.1820
 1.4410	10.1740
 1.4420	10.1680
 1.4430	10.1640
 1.4440	10.1620
 1.4450	10.1620
 1.4460	10.1640
 1.4470	10.1680
 1.4480	10.1750
 1.4490	10.1820
 1.4500	10.1910
 1.4510	10.2010
 1.4520	10.2130
 1.4530	10.2270
 1.4540	10.2440
 1.4550	10.2620
 1.4560	10.2830
 1.4570	10.3050
 1.4580	10.3310
 1.4590	10.3590
 1.4600	10.3910
 1.4610	10.4280
 1.4620	10.4670
 1.4630	10.5100
 1.4640	10.5560
 1.4650	10.6060
 1.4660	10.6620
 1.4670	10.7220
 1.4680	10.7870
 1.4690	10.8560
 1.4700	10.9280
 1.4710	11.0060
 1.4720	11.0860
 1.4730	11.1710
 1.4740	11.2590
 1.4750	11.3500
 1.4760	11.4440
 1.4770	11.5410
 1.4780	11.6410
 1.4790	11.7430
 1.4800	11.8470
 1.4810	11.9530
 1.4820	12.0610
 1.4830	12.1710
 1.4840	12.2830
 1.4850	12.3970
 1.4860	12.5130
 1.4870	12.6300
 1.4880	12.7470
 1.4890	12.8640
 1.4900	12.9840
 1.4910	13.1040
 1.4920	13.2260
 1.4930	13.3500
 1.4940	13.4740
 1.4950	13.6000
 1.4960	13.7250
 1.4970	13.8490
 1.4980	13.9750
 1.4990	14.1020
 1.5000	14.2290
 1.5010	14.3580
 1.5020	14.4860
 1.5030	14.6140
 1.5040	14.7430
 1.5050	14.8710
 1.5060	15.0000
 1.5070	15.1290
 1.5080	15.2590
 1.5090	15.3900
 1.5100	15.5190
 1.5110	15.6480
 1.5120	15.7770
 1.5130	15.9040
 1.5140	16.0310
 1.5150	16.1590
 1.5160	16.2860
 1.5170	16.4140
 1.5180	16.5410
 1.5190	16.6680
 1.5200	16.7950
 1.5210	16.9200
 1.5220	17.0440
 1.5230	17.1690
 1.5240	17.2920
 1.5250	17.4160
 1.5260	17.5400
 1.5270	17.6610
 1.5280	17.7820
 1.5290	17.9010
 1.5300	18.0190
 1.5310	18.1390
 1.5320	18.2570
 1.5330	18.3740
 1.5340	18.4900
 1.5350	18.6050
 1.5360	18.7210
 1.5370	18.8350
 1.5380	18.9470
 1.5390	19.0580
 1.5400	19.1690
 1.5410	19.2800
 1.5420	19.3910
 1.5430	19.5010
 1.5440	19.6100
 1.5450	19.7160
 1.5460	19.8210
 1.5470	19.9250
 1.5480	20.0280
 1.5490	20.1330
 1.5500	20.2340
 1.5510	20.3360
 1.5520	20.4370
 1.5530	20.5360
 1.5540	20.6350
 1.5550	20.7320
 1.5560	20.8290
 1.5570	20.9250
 1.5580	21.0190
 1.5590	21.1130
 1.5600	21.2060
 1.5610	21.2970
 1.5620	21.3880
 1.5630	21.4800
 1.5640	21.5690
 1.5650	21.6580
 1.5660	21.7460
 1.5670	21.8350
 1.5680	21.9230
 1.5690	22.0090
 1.5700	22.0940
 1.5710	22.1790
 1.5720	22.2610
 1.5730	22.3440
 1.5740	22.4250
 1.5750	22.5050
 1.5760	22.5860
 1.5770	22.6660
 1.5780	22.7460
 1.5790	22.8260
 1.5800	22.9040
 1.5810	22.9820
 1.5820	23.0590
 1.5830	23.1350
 1.5840	23.2090
 1.5850	23.2820
 1.5860	23.3550
 1.5870	23.4280
 1.5880	23.5010
 1.5890	23.5730
 1.5900	23.6430
 1.5910	23.7120
 1.5920	23.7830
 1.5930	23.8520
 1.5940	23.9210
 1.5950	23.9890
 1.5960	24.0540
 1.5970	24.1200
 1.5980	24.1870
 1.5990	24.2520
 1.6000	24.3180
 1.6010	24.3830
 1.6020	24.4460
 1.6030	24.5100
 1.6040	24.5710
 1.6050	24.6330
 1.6060	24.6940
 1.6070	24.7540
 1.6080	24.8130
 1.6090	24.8710
 1.6100	24.9290
 1.6110	24.9860
 1.6120	25.0410
 1.6130	25.0980
 1.6140	25.1530
 1.6150	25.2070
 1.6160	25.2620
 1.6170	25.3130
 1.6180	25.3650
 1.6190	25.4170
 1.6200	25.4680
 1.6210	25.5190
 1.6220	25.5670
 1.6230	25.6140
 1.6240	25.6600
 1.6250	25.7070
 1.6260	25.7530
 1.6270	25.7990
 1.6280	25.8450
 1.6290	25.8890
 1.6300	25.9340
 1.6310	25.9760
 1.6320	26.0170
 1.6330	26.0580
 1.6340	26.0980
 1.6350	26.1360
 1.6360	26.1730
 1.6370	26.2080
 1.6380	26.2390
 1.6390	26.2720
 1.6400	26.3050
 1.6410	26.3350
 1.6420	26.3650
 1.6430	26.3920
 1.6440	26.4150
 1.6450	26.4390
 1.6460	26.4610
 1.6470	26.4820
 1.6480	26.5030
 1.6490	26.5200
 1.6500	26.5350
 1.6510	26.5490
 1.6520	26.5630
 1.6530	26.5730
 1.6540	26.5840
 1.6550	26.5940
 1.6560	26.6030
 1.6570	26.6110
 1.6580	26.6170
 1.6590	26.6210
 1.6600	26.6240
 1.6610	26.6300
 1.6620	26.6360
 1.6630	26.6420
 1.6640	26.6490
 1.6650	26.6530
 1.6660	26.6570
 1.6670	26.6610
 1.6680	26.6640
 1.6690	26.6660
 1.6700	26.6670
 1.6710	26.6670
 1.6720	26.6670
 1.6730	26.6650
 1.6740	26.6600
 1.6750	26.6530
 1.6760	26.6420
 1.6770	26.6310
 1.6780	26.6170
 1.6790	26.5990
 1.6800	26.5800
 1.6810	26.5580
 1.6820	26.5340
 1.6830	26.5100
 1.6840	26.4820
 1.6850	26.4520
 1.6860	26.4170
 1.6870	26.3790
 1.6880	26.3410
 1.6890	26.3040
 1.6900	26.2630
 1.6910	26.2220
 1.6920	26.1790
 1.6930	26.1320
 1.6940	26.0880
 1.6950	26.0440
 1.6960	25.9990
 1.6970	25.9550
 1.6980	25.9080
 1.6990	25.8590
 1.7000	25.8100
 1.7010	25.7590
 1.7020	25.7090
 1.7030	25.6570
 1.7040	25.6060
 1.7050	25.5540
 1.7060	25.5020
 1.7070	25.4490
 1.7080	25.3960
 1.7090	25.3410
 1.7100	25.2880
 1.7110	25.2350
 1.7120	25.1830
 1.7130	25.1330
 1.7140	25.0840
 1.7150	25.0360
 1.7160	24.9900
 1.7170	24.9460
 1.7180	24.9020
 1.7190	24.8610
 1.7200	24.8190
 1.7210	24.7760
 1.7220	24.7340
 1.7230	24.6930
 1.7240	24.6520
 1.7250	24.6130
 1.7260	24.5710
 1.7270	24.5280
 1.7280	24.4870
 1.7290	24.4450
 1.7300	24.4030
 1.7310	24.3610
 1.7320	24.3170
 1.7330	24.2730
 1.7340	24.2310
 1.7350	24.1850
 1.7360	24.1360
 1.7370	24.0870
 1.7380	24.0370
 1.7390	23.9830
 1.7400	23.9280
 1.7410	23.8710
 1.7420	23.8090
 1.7430	23.7460
 1.7440	23.6830
 1.7450	23.6160
 1.7460	23.5460
 1.7470	23.4750
 1.7480	23.4030
 1.7490	23.3300
 1.7500	23.2570
 1.7510	23.1850
 1.7520	23.1140
 1.7530	23.0420
 1.7540	22.9690
 1.7550	22.8980
 1.7560	22.8270
 1.7570	22.7560
 1.7580	22.6860
 1.7590	22.6180
 1.7600	22.5500
 1.7610	22.4880
 1.7620	22.4250
 1.7630	22.3630
 1.7640	22.3020
 1.7650	22.2400
 1.7660	22.1810
 1.7670	22.1240
 1.7680	22.0680
 1.7690	22.0140
 1.7700	21.9620
 1.7710	21.9110
 1.7720	21.8620
 1.7730	21.8150
 1.7740	21.7690
 1.7750	21.7240
 1.7760	21.6800
 1.7770	21.6370
 1.7780	21.5990
 1.7790	21.5620
 1.7800	21.5310
 1.7810	21.5060
 1.7820	21.4780
 1.7830	21.4530
 1.7840	21.4290
 1.7850	21.4060
 1.7860	21.3880
 1.7870	21.3750
 1.7880	21.3630
 1.7890	21.3540
 1.7900	21.3460
 1.7910	21.3400
 1.7920	21.3350
 1.7930	21.3310
 1.7940	21.3280
 1.7950	21.3270
 1.7960	21.3290
 1.7970	21.3310
 1.7980	21.3320
 1.7990	21.3350
 1.8000	21.3370
 1.8010	21.3420
 1.8020	21.3500
 1.8030	21.3570
 1.8040	21.3640
 1.8050	21.3710
 1.8060	21.3780
 1.8070	21.3850
 1.8080	21.3920
 1.8090	21.3980
 1.8100	21.4020
 1.8110	21.4070
 1.8120	21.4110
 1.8130	21.4160
 1.8140	21.4200
 1.8150	21.4210
 1.8160	21.4230
 1.8170	21.4230
 1.8180	21.4230
 1.8190	21.4250
 1.8200	21.4230
 1.8210	21.4170
 1.8220	21.4120
 1.8230	21.4040
 1.8240	21.3980
 1.8250	21.3950
 1.8260	21.3860
 1.8270	21.3740
 1.8280	21.3600
 1.8290	21.3420
 1.8300	21.3220
 1.8310	21.3900
 1.8320	21.3600
 1.8330	21.3260
 1.8340	21.2900
 1.8350	21.2500
 1.8360	21.2050
 1.8370	21.1550
 1.8380	21.1010
 1.8390	21.0390
 1.8400	20.9690
 1.8410	20.8960
 1.8420	20.8180
 1.8430	20.7370
 1.8440	20.6470
 1.8450	20.5520
 1.8460	20.4480
 1.8470	20.3290
 1.8480	20.2020
 1.8490	20.0640
 1.8500	19.9170
 1.8510	19.7600
 1.8520	19.5940
 1.8530	19.4170
 1.8540	19.2320
 1.8550	19.0310
 1.8560	18.8170
 1.8570	18.5860
 1.8580	18.3410
 1.8590	18.0850
 1.8600	17.8150
 1.8610	17.5280
 1.8620	17.2290
 1.8630	16.9170
 1.8640	16.5900
 1.8650	16.2510
 1.8660	15.8980
 1.8670	15.5280
 1.8680	15.1430
 1.8690	14.7420
 1.8700	14.3270
 1.8710	13.8980
 1.8720	13.4590
 1.8730	13.0110
 1.8740	12.5590
 1.8750	12.1070
 1.8760	11.6540
 1.8770	11.2050
 1.8780	10.7600
 1.8790	10.3180
 1.8800	 9.8890
 1.8810	 9.4690
 1.8820	 9.0550
 1.8830	 8.6470
 1.8840	 8.2560
 1.8850	 7.8720
 1.8860	 7.5050
 1.8870	 7.1580
 1.8880	 6.8250
 1.8890	 6.5160
 1.8900	 6.2270
 1.8910	 5.9560
 1.8920	 5.7000
 1.8930	 5.4690
 1.8940	 5.2540
 1.8950	 5.0610
 1.8960	 4.8900
 1.8970	 4.7340
 1.8980	 4.5950
 1.8990	 4.4690
 1.9000	 4.3550
 1.9010	 4.2540
 1.9020	 4.1640
 1.9030	 4.0870
 1.9040	 4.0190
 1.9050	 3.9570
 1.9060	 3.9040
 1.9070	 3.8560
 1.9080	 3.8120
 1.9090	 3.7800
 1.9100	 3.7530
 1.9110	 3.7270
 1.9120	 3.7060
 1.9130	 3.6860
 1.9140	 3.6650
 1.9150	 3.6490
 1.9160	 3.6360
 1.9170	 3.6270
 1.9180	 3.6230
 1.9190	 3.6160
 1.9200	 3.6070
 1.9210	 3.6010
 1.9220	 3.5960
 1.9230	 3.5910
 1.9240	 3.5880
 1.9250	 3.5870
 1.9260	 3.5870
 1.9270	 3.5860
 1.9280	 3.5840
 1.9290	 3.5840
 1.9300	 3.5840
 1.9310	 3.5880
 1.9320	 3.5920
 1.9330	 3.5960
 1.9340	 3.5990
 1.9350	 3.6040
 1.9360	 3.6110
 1.9370	 3.6170
 1.9380	 3.6230
 1.9390	 3.6320
 1.9400	 3.6390
 1.9410	 3.6430
 1.9420	 3.6510
 1.9430	 3.6590
 1.9440	 3.6690
 1.9450	 3.6810
 1.9460	 3.6920
 1.9470	 3.7060
 1.9480	 3.7190
 1.9490	 3.7300
 1.9500	 3.7440
 1.9510	 3.7590
 1.9520	 3.7750
 1.9530	 3.7900
 1.9540	 3.8030
 1.9550	 3.8180
 1.9560	 3.8310
 1.9570	 3.8450
 1.9580	 3.8600
 1.9590	 3.8760
 1.9600	 3.8920
 1.9610	 3.9090
 1.9620	 3.9250
 1.9630	 3.9430
 1.9640	 3.9630
 1.9650	 3.9840
 1.9660	 4.0050
 1.9670	 4.0300
 1.9680	 4.0530
 1.9690	 4.0760
 1.9700	 4.1000
 1.9710	 4.1290
 1.9720	 4.1550
 1.9730	 4.1790
 1.9740	 4.2070
 1.9750	 4.2340
 1.9760	 4.2580
 1.9770	 4.2840
 1.9780	 4.3110
 1.9790	 4.3400
 1.9800	 4.3700
 1.9810	 4.4020
 1.9820	 4.4370
 1.9830	 4.4690
 1.9840	 4.5030
 1.9850	 4.5360
 1.9860	 4.5650
 1.9870	 4.5970
 1.9880	 4.6330
 1.9890	 4.6690
 1.9900	 4.7040
 1.9910	 4.7400
 1.9920	 4.7760
 1.9930	 4.8090
 1.9940	 4.8470
 1.9950	 4.8880
 1.9960	 4.9270
 1.9970	 4.9670
 1.9980	 5.0080
 1.9990	 5.0500
 2.0000	 5.0900
 2.0010	 5.1310
 2.0020	 5.1730
 2.0030	 5.2140
 2.0040	 5.2550
 2.0050	 5.2980
 2.0060	 5.3430
 2.0070	 5.3870
 2.0080	 5.4320
 2.0090	 5.4770
 2.0100	 5.5210
 2.0110	 5.5650
 2.0120	 5.6080
 2.0130	 5.6530
 2.0140	 5.6970
 2.0150	 5.7400
 2.0160	 5.7870
 2.0170	 5.8350
 2.0180	 5.8810
 2.0190	 5.9290
 2.0200	 5.9730
 2.0210	 6.0150
 2.0220	 6.0580
 2.0230	 6.0970
 2.0240	 6.1400
 2.0250	 6.1860
 2.0260	 6.2300
 2.0270	 6.2750
 2.0280	 6.3220
 2.0290	 6.3670
 2.0300	 6.4120
 2.0310	 6.4560
 2.0320	 6.5000
 2.0330	 6.5420
 2.0340	 6.5830
 2.0350	 6.6250
 2.0360	 6.6690
 2.0370	 6.7110
 2.0380	 6.7530
 2.0390	 6.7940
 2.0400	 6.8310
 2.0410	 6.8710
 2.0420	 6.9120
 2.0430	 6.9540
 2.0440	 6.9950
 2.0450	 7.0370
 2.0460	 7.0780
 2.0470	 7.1170
 2.0480	 7.1560
 2.0490	 7.1940
 2.0500	 7.2320
 2.0510	 7.2700
 2.0520	 7.3090
 2.0530	 7.3500
 2.0540	 7.3900
 2.0550	 7.4290
 2.0560	 7.4700
 2.0570	 7.5100
 2.0580	 7.5490
 2.0590	 7.5890
 2.0600	 7.6290
 2.0610	 7.6680
 2.0620	 7.7060
 2.0630	 7.7460
 2.0640	 7.7860
 2.0650	 7.8260
 2.0660	 7.8670
 2.0670	 7.9060
 2.0680	 7.9440
 2.0690	 7.9820
 2.0700	 8.0170
 2.0710	 8.0540
 2.0720	 8.0920
 2.0730	 8.1290
 2.0740	 8.1690
 2.0750	 8.2110
 2.0760	 8.2510
 2.0770	 8.2920
 2.0780	 8.3320
 2.0790	 8.3710
 2.0800	 8.4110
 2.0810	 8.4510
 2.0820	 8.4900
 2.0830	 8.5270
 2.0840	 8.5660
 2.0850	 8.6040
 2.0860	 8.6430
 2.0870	 8.6820
 2.0880	 8.7230
 2.0890	 8.7600
 2.0900	 8.7950
 2.0910	 8.8320
 2.0920	 8.8680
 2.0930	 8.9050
 2.0940	 8.9430
 2.0950	 8.9800
 2.0960	 9.0150
 2.0970	 9.0510
 2.0980	 9.0860
 2.0990	 9.1240
 2.1000	 9.1640
 2.1010	 9.2020
 2.1020	 9.2460
 2.1030	 9.2840
 2.1040	 9.3190
 2.1050	 9.3540
 2.1060	 9.3880
 2.1070	 9.4190
 2.1080	 9.4550
 2.1090	 9.4960
 2.1100	 9.5330
 2.1110	 9.5730
 2.1120	 9.6090
 2.1130	 9.6430
 2.1140	 9.6760
 2.1150	 9.7070
 2.1160	 9.7410
 2.1170	 9.7750
 2.1180	 9.8100
 2.1190	 9.8460
 2.1200	 9.8810
 2.1210	 9.9170
 2.1220	 9.9500
 2.1230	 9.9810
 2.1240	10.0110
 2.1250	10.0400
 2.1260	10.0670
 2.1270	10.0970
 2.1280	10.1270
 2.1290	10.1580
 2.1300	10.1890
 2.1310	10.2210
 2.1320	10.2560
 2.1330	10.2880
 2.1340	10.3180
 2.1350	10.3490
 2.1360	10.3780
 2.1370	10.4060
 2.1380	10.4330
 2.1390	10.4610
 2.1400	10.4880
 2.1410	10.5160
 2.1420	10.5430
 2.1430	10.5720
 2.1440	10.5990
 2.1450	10.6210
 2.1460	10.6480
 2.1470	10.6770
 2.1480	10.7040
 2.1490	10.7330
 2.1500	10.7590
 2.1510	10.7810
 2.1520	10.8050
 2.1530	10.8300
 2.1540	10.8540
 2.1550	10.8760
 2.1560	10.9010
 2.1570	10.9290
 2.1580	10.9530
 2.1590	10.9780
 2.1600	11.0010
 2.1610	11.0210
 2.1620	11.0390
 2.1630	11.0590
 2.1640	11.0800
 2.1650	11.0990
 2.1660	11.1120
 2.1670	11.1320
 2.1680	11.1540
 2.1690	11.1740
 2.1700	11.1950
 2.1710	11.2170
 2.1720	11.2380
 2.1730	11.2600
 2.1740	11.2870
 2.1750	11.3090
 2.1760	11.3270
 2.1770	11.3470
 2.1780	11.3660
 2.1790	11.3850
 2.1800	11.4060
 2.1810	11.4250
 2.1820	11.4430
 2.1830	11.4610
 2.1840	11.4810
 2.1850	11.5020
 2.1860	11.5230
 2.1870	11.5470
 2.1880	11.5690
 2.1890	11.5920
 2.1900	11.6110
 2.1910	11.6260
 2.1920	11.6440
 2.1930	11.6570
 2.1940	11.6750
 2.1950	11.6970
 2.1960	11.7180
 2.1970	11.7430
 2.1980	11.7630
 2.1990	11.7770
 2.2000	11.7950
 2.2010	11.8120
 2.2020	11.8280
 2.2030	11.8490
 2.2040	11.8670
 2.2050	11.8810
 2.2060	11.8940
 2.2070	11.9070
 2.2080	11.9180
 2.2090	11.9310
 2.2100	11.9440
 2.2110	11.9560
 2.2120	11.9690
 2.2130	11.9800
 2.2140	11.9900
 2.2150	11.9990
 2.2160	12.0070
 2.2170	12.0140
 2.2180	12.0160
 2.2190	12.0200
 2.2200	12.0230
 2.2210	12.0270
 2.2220	12.0360
 2.2230	12.0380
 2.2240	12.0360
 2.2250	12.0330
 2.2260	12.0230
 2.2270	12.0140
 2.2280	12.0070
 2.2290	11.9950
 2.2300	11.9830
 2.2310	11.9640
 2.2320	11.9490
 2.2330	11.9300
 2.2340	11.9090
 2.2350	11.8900
 2.2360	11.8630
 2.2370	11.8290
 2.2380	11.7990
 2.2390	11.7660
 2.2400	11.7340
 2.2410	11.7030
 2.2420	11.6710
 2.2430	11.6410
 2.2440	11.6030
 2.2450	11.5620
 2.2460	11.5180
 2.2470	11.4640
 2.2480	11.4190
 2.2490	11.3780
 2.2500	11.3330
 2.2510	11.2900
 2.2520	11.2450
 2.2530	11.1960
 2.2540	11.1490
 2.2550	11.1040
 2.2560	11.0580
 2.2570	11.0140
 2.2580	10.9660
 2.2590	10.9110
 2.2600	10.8630
 2.2610	10.8150
 2.2620	10.7680
 2.2630	10.7260
 2.2640	10.6840
 2.2650	10.6380
 2.2660	10.5900
 2.2670	10.5420
 2.2680	10.4910
 2.2690	10.4450
 2.2700	10.3990
 2.2710	10.3560
 2.2720	10.3170
 2.2730	10.2760
 2.2740	10.2370
 2.2750	10.1940
 2.2760	10.1480
 2.2770	10.1050
 2.2780	10.0600
 2.2790	10.0170
 2.2800	 9.9770
 2.2810	 9.9360
 2.2820	 9.8940
 2.2830	 9.8530
 2.2840	 9.8090
 2.2850	 9.7720
 2.2860	 9.7420
 2.2870	 9.7060
 2.2880	 9.6740
 2.2890	 9.6380
 2.2900	 9.5950
 2.2910	 9.5570
 2.2920	 9.5210
 2.2930	 9.4830
 2.2940	 9.4470
 2.2950	 9.4050
 2.2960	 9.3540
 2.2970	 9.3090
 2.2980	 9.2640
 2.2990	 9.2160
 2.3000	 9.1730
 2.3010	 9.1330
 2.3020	 9.0940
 2.3030	 9.0540
 2.3040	 9.0180
 2.3050	 8.9810
 2.3060	 8.9400
 2.3070	 8.9000
 2.3080	 8.8610
 2.3090	 8.8220
 2.3100	 8.7870
 2.3110	 8.7570
 2.3120	 8.7270
 2.3130	 8.7010
 2.3140	 8.6730
 2.3150	 8.6450
 2.3160	 8.6190
 2.3170	 8.5960
 2.3180	 8.5730
 2.3190	 8.5540
 2.3200	 8.5280
 2.3210	 8.4980
 2.3220	 8.4670
 2.3230	 8.4290
 2.3240	 8.3990
 2.3250	 8.3760
 2.3260	 8.3460
 2.3270	 8.3160
 2.3280	 8.2850
 2.3290	 8.2500
 2.3300	 8.2160
 2.3310	 8.1850
 2.3320	 8.1540
 2.3330	 8.1200
 2.3340	 8.0880
 2.3350	 8.0600
 2.3360	 8.0290
 2.3370	 7.9950
 2.3380	 7.9660
 2.3390	 7.9410
 2.3400	 7.9120
 2.3410	 7.8890
 2.3420	 7.8570
 2.3430	 7.8120
 2.3440	 7.7760
 2.3450	 7.7400
 2.3460	 7.7060
 2.3470	 7.6820
 2.3480	 7.6510
 2.3490	 7.6200
 2.3500	 7.5880
 2.3510	 7.5470
 2.3520	 7.5170
 2.3530	 7.4960
 2.3540	 7.4660
 2.3550	 7.4400
 2.3560	 7.4230
 2.3570	 7.3920
 2.3580	 7.3620
 2.3590	 7.3370
 2.3600	 7.3000
 2.3610	 7.2680
 2.3620	 7.2480
 2.3630	 7.2270
 2.3640	 7.2080
 2.3650	 7.1970
 2.3660	 7.1720
 2.3670	 7.1380
 2.3680	 7.1130
 2.3690	 7.0860
 2.3700	 7.0480
 2.3710	 7.0150
 2.3720	 6.9800
 2.3730	 6.9380
 2.3740	 6.9040
 2.3750	 6.8910
 2.3760	 6.8770
 2.3770	 6.8510
 2.3780	 6.8340
 2.3790	 6.8020
 2.3800	 6.7590
 2.3810	 6.7290
 2.3820	 6.6990
 2.3830	 6.6700
 2.3840	 6.6460
 2.3850	 6.6190
 2.3860	 6.5870
 2.3870	 6.5430
 2.3880	 6.5090
 2.3890	 6.4870
 2.3900	 6.4680
 2.3910	 6.4440
 2.3920	 6.4150
 2.3930	 6.3710
 2.3940	 6.3220
 2.3950	 6.2960
 2.3960	 6.2690
 2.3970	 6.2330
 2.3980	 6.2040
 2.3990	 6.1650
 2.4000	 6.1210
 2.4010	 6.0990
 2.4020	 6.0780
 2.4030	 6.0490
 2.4040	 6.0230
 2.4050	 5.9980
 2.4060	 5.9690
 2.4070	 5.9410
 2.4080	 5.9120
 2.4090	 5.8780
 2.4100	 5.8470
 2.4110	 5.8170
 2.4120	 5.7980
 2.4130	 5.7760
 2.4140	 5.7390
 2.4150	 5.6930
 2.4160	 5.6400
 2.4170	 5.6050
 2.4180	 5.5780
 2.4190	 5.5700
 2.4200	 5.5710
 2.4210	 5.5440
 2.4220	 5.5100
 2.4230	 5.4680
 2.4240	 5.4310
 2.4250	 5.4070
 2.4260	 5.3850
 2.4270	 5.3710
 2.4280	 5.3460
 2.4290	 5.3170
 2.4300	 5.2880
 2.4310	 5.2620
 2.4320	 5.2460
 2.4330	 5.2220
 2.4340	 5.2000
 2.4350	 5.1750
 2.4360	 5.1310
 2.4370	 5.0950
 2.4380	 5.0690
 2.4390	 5.0310
 2.4400	 5.0090
 2.4410	 4.9920
 2.4420	 4.9540
 2.4430	 4.9330
 2.4440	 4.9060
 2.4450	 4.8750
 2.4460	 4.8650
 2.4470	 4.8390
 2.4480	 4.8250
 2.4490	 4.8150
 2.4500	 4.7930
 2.4510	 4.7860
 2.4520	 4.7710
 2.4530	 4.7470
 2.4540	 4.7280
 2.4550	 4.7080
 2.4560	 4.6820
 2.4570	 4.6670
 2.4580	 4.6510
 2.4590	 4.6250
 2.4600	 4.6050
 2.4610	 4.5810
 2.4620	 4.5460
 2.4630	 4.5330
 2.4640	 4.5410
 2.4650	 4.5370
 2.4660	 4.5410
 2.4670	 4.5200
 2.4680	 4.4930
 2.4690	 4.4870
 2.4700	 4.4750
 2.4710	 4.4860
 2.4720	 4.4850
 2.4730	 4.4730
 2.4740	 4.4560
 2.4750	 4.4310
 2.4760	 4.4080
 2.4770	 4.3670
 2.4780	 4.3480
 2.4790	 4.3500
 2.4800	 4.3400
 2.4810	 4.3390
 2.4820	 4.3080
 2.4830	 4.2970
 2.4840	 4.2910
 2.4850	 4.2970
 2.4860	 4.3230
 2.4870	 4.3300
 2.4880	 4.3810
 2.4890	 4.3900
 2.4900	 4.3690
 2.4910	 4.3850
 2.4920	 4.3680
 2.4930	 4.3440
 2.4940	 4.3030
 2.4950	 4.2460
 2.4960	 4.2330
 2.4970	 4.2150
 2.4980	 4.2180
 2.4990	 4.2940
 2.5000	 4.2920
