Name: Ceanothus spinosus 1
Type: vegetation
Class: Shrub
Genus: Ceanothus
Species: spinosus
Sample No.: VH008
Owner: UCSB
Wavelength Range: VSWIR
Origin: 34.4906; -119.7908; WGS84
Collection Date: 4/1/2013
Description: Samples were collected as part of the HyspIRI Airborne Campaign. 48 individual plants were sampled in three times in 2013 - spring  summer  and fall. The name of the sample includes a 1  2  or 3 which references a different individual of the species. Samples were taken to JPL and processed within 48 hours of collection. The same leaves were processed in the Nicolet and then measured using the ASD.
Measurement: Bidirectional reflectance
First Column: X
Second Column: Y
X Units: Wavelength (micrometers)
Y Units: Reflectance (percentage)
First X Value: 0.35
Last X Value: 2.5
Number of X Values: 2151
Additional Information: vegetation.shrub.ceanothus.spinosus.vswir.vh008.ucsb.asd.ancillary.txt

 0.3500	 5.1200
 0.3510	 5.1020
 0.3520	 4.9070
 0.3530	 4.7020
 0.3540	 4.6390
 0.3550	 4.6540
 0.3560	 4.6630
 0.3570	 4.6980
 0.3580	 4.8210
 0.3590	 4.8210
 0.3600	 4.7600
 0.3610	 4.7290
 0.3620	 4.8230
 0.3630	 4.8110
 0.3640	 4.7970
 0.3650	 4.8820
 0.3660	 4.8160
 0.3670	 4.7850
 0.3680	 4.7990
 0.3690	 4.7560
 0.3700	 4.7380
 0.3710	 4.7110
 0.3720	 4.6740
 0.3730	 4.7330
 0.3740	 4.7180
 0.3750	 4.6900
 0.3760	 4.7380
 0.3770	 4.7290
 0.3780	 4.7550
 0.3790	 4.7950
 0.3800	 4.7380
 0.3810	 4.8120
 0.3820	 4.8490
 0.3830	 4.7620
 0.3840	 4.7720
 0.3850	 4.7830
 0.3860	 4.7780
 0.3870	 4.7590
 0.3880	 4.7140
 0.3890	 4.6870
 0.3900	 4.6880
 0.3910	 4.6890
 0.3920	 4.7110
 0.3930	 4.7310
 0.3940	 4.7260
 0.3950	 4.6940
 0.3960	 4.7090
 0.3970	 4.7390
 0.3980	 4.7090
 0.3990	 4.6570
 0.4000	 4.6450
 0.4010	 4.6620
 0.4020	 4.5940
 0.4030	 4.6010
 0.4040	 4.6370
 0.4050	 4.6320
 0.4060	 4.6220
 0.4070	 4.6430
 0.4080	 4.6740
 0.4090	 4.6690
 0.4100	 4.6790
 0.4110	 4.6910
 0.4120	 4.6940
 0.4130	 4.6940
 0.4140	 4.7140
 0.4150	 4.7370
 0.4160	 4.7410
 0.4170	 4.7510
 0.4180	 4.7460
 0.4190	 4.7440
 0.4200	 4.7950
 0.4210	 4.8160
 0.4220	 4.8140
 0.4230	 4.8150
 0.4240	 4.8480
 0.4250	 4.8610
 0.4260	 4.8650
 0.4270	 4.8960
 0.4280	 4.9280
 0.4290	 4.9500
 0.4300	 4.9610
 0.4310	 4.9670
 0.4320	 4.9820
 0.4330	 5.0010
 0.4340	 5.0210
 0.4350	 5.0430
 0.4360	 5.0650
 0.4370	 5.0790
 0.4380	 5.0680
 0.4390	 5.0660
 0.4400	 5.0710
 0.4410	 5.0800
 0.4420	 5.0860
 0.4430	 5.1000
 0.4440	 5.1130
 0.4450	 5.1160
 0.4460	 5.1450
 0.4470	 5.1630
 0.4480	 5.1600
 0.4490	 5.1620
 0.4500	 5.1730
 0.4510	 5.1830
 0.4520	 5.1820
 0.4530	 5.1880
 0.4540	 5.2060
 0.4550	 5.2230
 0.4560	 5.2230
 0.4570	 5.2230
 0.4580	 5.2230
 0.4590	 5.2230
 0.4600	 5.2280
 0.4610	 5.2350
 0.4620	 5.2420
 0.4630	 5.2490
 0.4640	 5.2560
 0.4650	 5.2580
 0.4660	 5.2540
 0.4670	 5.2470
 0.4680	 5.2470
 0.4690	 5.2490
 0.4700	 5.2490
 0.4710	 5.2610
 0.4720	 5.2570
 0.4730	 5.2470
 0.4740	 5.2580
 0.4750	 5.2630
 0.4760	 5.2620
 0.4770	 5.2610
 0.4780	 5.2720
 0.4790	 5.2720
 0.4800	 5.2670
 0.4810	 5.2670
 0.4820	 5.2730
 0.4830	 5.2820
 0.4840	 5.2900
 0.4850	 5.2890
 0.4860	 5.2900
 0.4870	 5.2960
 0.4880	 5.3100
 0.4890	 5.3220
 0.4900	 5.3350
 0.4910	 5.3480
 0.4920	 5.3600
 0.4930	 5.3770
 0.4940	 5.3880
 0.4950	 5.3980
 0.4960	 5.4260
 0.4970	 5.4460
 0.4980	 5.4650
 0.4990	 5.4950
 0.5000	 5.5330
 0.5010	 5.5620
 0.5020	 5.5860
 0.5030	 5.6270
 0.5040	 5.6680
 0.5050	 5.7090
 0.5060	 5.7550
 0.5070	 5.8120
 0.5080	 5.8750
 0.5090	 5.9390
 0.5100	 6.0040
 0.5110	 6.0820
 0.5120	 6.1720
 0.5130	 6.2710
 0.5140	 6.3680
 0.5150	 6.4740
 0.5160	 6.5900
 0.5170	 6.7120
 0.5180	 6.8370
 0.5190	 6.9690
 0.5200	 7.1060
 0.5210	 7.2420
 0.5220	 7.3870
 0.5230	 7.5310
 0.5240	 7.6710
 0.5250	 7.8120
 0.5260	 7.9570
 0.5270	 8.0930
 0.5280	 8.2110
 0.5290	 8.3270
 0.5300	 8.4360
 0.5310	 8.5350
 0.5320	 8.6290
 0.5330	 8.7180
 0.5340	 8.7980
 0.5350	 8.8650
 0.5360	 8.9300
 0.5370	 8.9860
 0.5380	 9.0330
 0.5390	 9.0770
 0.5400	 9.1260
 0.5410	 9.1740
 0.5420	 9.2170
 0.5430	 9.2570
 0.5440	 9.2950
 0.5450	 9.3270
 0.5460	 9.3530
 0.5470	 9.3690
 0.5480	 9.3820
 0.5490	 9.3950
 0.5500	 9.4100
 0.5510	 9.4190
 0.5520	 9.4210
 0.5530	 9.4140
 0.5540	 9.4020
 0.5550	 9.3850
 0.5560	 9.3580
 0.5570	 9.3210
 0.5580	 9.2730
 0.5590	 9.2180
 0.5600	 9.1590
 0.5610	 9.0950
 0.5620	 9.0230
 0.5630	 8.9460
 0.5640	 8.8660
 0.5650	 8.7760
 0.5660	 8.6800
 0.5670	 8.5810
 0.5680	 8.4850
 0.5690	 8.3890
 0.5700	 8.2940
 0.5710	 8.2000
 0.5720	 8.1130
 0.5730	 8.0300
 0.5740	 7.9520
 0.5750	 7.8850
 0.5760	 7.8250
 0.5770	 7.7650
 0.5780	 7.7070
 0.5790	 7.6590
 0.5800	 7.6080
 0.5810	 7.5560
 0.5820	 7.5100
 0.5830	 7.4650
 0.5840	 7.4210
 0.5850	 7.3800
 0.5860	 7.3440
 0.5870	 7.3110
 0.5880	 7.2770
 0.5890	 7.2430
 0.5900	 7.2170
 0.5910	 7.1980
 0.5920	 7.1830
 0.5930	 7.1680
 0.5940	 7.1570
 0.5950	 7.1440
 0.5960	 7.1260
 0.5970	 7.1130
 0.5980	 7.0970
 0.5990	 7.0810
 0.6000	 7.0670
 0.6010	 7.0460
 0.6020	 7.0240
 0.6030	 6.9990
 0.6040	 6.9680
 0.6050	 6.9350
 0.6060	 6.9010
 0.6070	 6.8660
 0.6080	 6.8270
 0.6090	 6.7870
 0.6100	 6.7480
 0.6110	 6.7130
 0.6120	 6.6690
 0.6130	 6.6210
 0.6140	 6.5740
 0.6150	 6.5320
 0.6160	 6.4930
 0.6170	 6.4560
 0.6180	 6.4220
 0.6190	 6.3980
 0.6200	 6.3760
 0.6210	 6.3530
 0.6220	 6.3310
 0.6230	 6.3110
 0.6240	 6.2940
 0.6250	 6.2810
 0.6260	 6.2680
 0.6270	 6.2590
 0.6280	 6.2540
 0.6290	 6.2510
 0.6300	 6.2520
 0.6310	 6.2510
 0.6320	 6.2440
 0.6330	 6.2330
 0.6340	 6.2220
 0.6350	 6.2080
 0.6360	 6.1910
 0.6370	 6.1730
 0.6380	 6.1510
 0.6390	 6.1240
 0.6400	 6.0930
 0.6410	 6.0590
 0.6420	 6.0250
 0.6430	 5.9920
 0.6440	 5.9530
 0.6450	 5.9160
 0.6460	 5.8820
 0.6470	 5.8520
 0.6480	 5.8210
 0.6490	 5.7900
 0.6500	 5.7610
 0.6510	 5.7360
 0.6520	 5.7160
 0.6530	 5.6970
 0.6540	 5.6730
 0.6550	 5.6490
 0.6560	 5.6230
 0.6570	 5.5970
 0.6580	 5.5760
 0.6590	 5.5440
 0.6600	 5.5110
 0.6610	 5.4830
 0.6620	 5.4550
 0.6630	 5.4260
 0.6640	 5.4010
 0.6650	 5.3830
 0.6660	 5.3620
 0.6670	 5.3480
 0.6680	 5.3420
 0.6690	 5.3380
 0.6700	 5.3330
 0.6710	 5.3300
 0.6720	 5.3290
 0.6730	 5.3290
 0.6740	 5.3350
 0.6750	 5.3460
 0.6760	 5.3590
 0.6770	 5.3750
 0.6780	 5.3920
 0.6790	 5.4100
 0.6800	 5.4310
 0.6810	 5.4590
 0.6820	 5.4900
 0.6830	 5.5250
 0.6840	 5.5660
 0.6850	 5.6170
 0.6860	 5.6780
 0.6870	 5.7480
 0.6880	 5.8270
 0.6890	 5.9260
 0.6900	 6.0510
 0.6910	 6.2000
 0.6920	 6.3760
 0.6930	 6.5860
 0.6940	 6.8370
 0.6950	 7.1220
 0.6960	 7.4520
 0.6970	 7.8260
 0.6980	 8.2410
 0.6990	 8.6980
 0.7000	 9.1910
 0.7010	 9.7160
 0.7020	10.2740
 0.7030	10.8570
 0.7040	11.4600
 0.7050	12.0780
 0.7060	12.7070
 0.7070	13.3500
 0.7080	14.0010
 0.7090	14.6570
 0.7100	15.3140
 0.7110	15.9750
 0.7120	16.6400
 0.7130	17.3040
 0.7140	17.9630
 0.7150	18.6190
 0.7160	19.2710
 0.7170	19.9190
 0.7180	20.5560
 0.7190	21.1830
 0.7200	21.8000
 0.7210	22.4070
 0.7220	22.9990
 0.7230	23.5750
 0.7240	24.1390
 0.7250	24.6810
 0.7260	25.2030
 0.7270	25.7070
 0.7280	26.1900
 0.7290	26.6520
 0.7300	27.0940
 0.7310	27.5150
 0.7320	27.9160
 0.7330	28.2960
 0.7340	28.6540
 0.7350	28.9920
 0.7360	29.3150
 0.7370	29.6210
 0.7380	29.9070
 0.7390	30.1690
 0.7400	30.4200
 0.7410	30.6570
 0.7420	30.8770
 0.7430	31.0810
 0.7440	31.2740
 0.7450	31.4530
 0.7460	31.6140
 0.7470	31.7670
 0.7480	31.9070
 0.7490	32.0300
 0.7500	32.1430
 0.7510	32.2550
 0.7520	32.3580
 0.7530	32.4450
 0.7540	32.5250
 0.7550	32.5990
 0.7560	32.6680
 0.7570	32.7300
 0.7580	32.7870
 0.7590	32.8410
 0.7600	32.8910
 0.7610	32.9350
 0.7620	32.9730
 0.7630	33.0100
 0.7640	33.0470
 0.7650	33.0770
 0.7660	33.1000
 0.7670	33.1200
 0.7680	33.1450
 0.7690	33.1700
 0.7700	33.1880
 0.7710	33.2020
 0.7720	33.2230
 0.7730	33.2400
 0.7740	33.2560
 0.7750	33.2750
 0.7760	33.2880
 0.7770	33.3020
 0.7780	33.3150
 0.7790	33.3220
 0.7800	33.3340
 0.7810	33.3470
 0.7820	33.3590
 0.7830	33.3740
 0.7840	33.3850
 0.7850	33.3920
 0.7860	33.3980
 0.7870	33.4120
 0.7880	33.4210
 0.7890	33.4280
 0.7900	33.4390
 0.7910	33.4460
 0.7920	33.4530
 0.7930	33.4620
 0.7940	33.4680
 0.7950	33.4730
 0.7960	33.4760
 0.7970	33.4770
 0.7980	33.4840
 0.7990	33.4900
 0.8000	33.4920
 0.8010	33.4910
 0.8020	33.4940
 0.8030	33.4960
 0.8040	33.4950
 0.8050	33.4960
 0.8060	33.4960
 0.8070	33.4950
 0.8080	33.4930
 0.8090	33.4890
 0.8100	33.4850
 0.8110	33.4810
 0.8120	33.4790
 0.8130	33.4750
 0.8140	33.4690
 0.8150	33.4630
 0.8160	33.4580
 0.8170	33.4560
 0.8180	33.4480
 0.8190	33.4380
 0.8200	33.4340
 0.8210	33.4270
 0.8220	33.4180
 0.8230	33.4090
 0.8240	33.4040
 0.8250	33.3930
 0.8260	33.3820
 0.8270	33.3740
 0.8280	33.3660
 0.8290	33.3610
 0.8300	33.3540
 0.8310	33.3420
 0.8320	33.3310
 0.8330	33.3240
 0.8340	33.3180
 0.8350	33.3020
 0.8360	33.2990
 0.8370	33.2960
 0.8380	33.2880
 0.8390	33.2780
 0.8400	33.2760
 0.8410	33.2690
 0.8420	33.2570
 0.8430	33.2590
 0.8440	33.2550
 0.8450	33.2510
 0.8460	33.2510
 0.8470	33.2520
 0.8480	33.2460
 0.8490	33.2400
 0.8500	33.2400
 0.8510	33.2420
 0.8520	33.2440
 0.8530	33.2430
 0.8540	33.2380
 0.8550	33.2330
 0.8560	33.2350
 0.8570	33.2400
 0.8580	33.2390
 0.8590	33.2370
 0.8600	33.2320
 0.8610	33.2270
 0.8620	33.2360
 0.8630	33.2400
 0.8640	33.2400
 0.8650	33.2400
 0.8660	33.2450
 0.8670	33.2460
 0.8680	33.2460
 0.8690	33.2520
 0.8700	33.2550
 0.8710	33.2570
 0.8720	33.2590
 0.8730	33.2620
 0.8740	33.2720
 0.8750	33.2750
 0.8760	33.2740
 0.8770	33.2790
 0.8780	33.2880
 0.8790	33.2930
 0.8800	33.2950
 0.8810	33.3000
 0.8820	33.3040
 0.8830	33.3100
 0.8840	33.3170
 0.8850	33.3180
 0.8860	33.3220
 0.8870	33.3290
 0.8880	33.3340
 0.8890	33.3370
 0.8900	33.3420
 0.8910	33.3480
 0.8920	33.3510
 0.8930	33.3560
 0.8940	33.3660
 0.8950	33.3710
 0.8960	33.3600
 0.8970	33.3650
 0.8980	33.3690
 0.8990	33.3670
 0.9000	33.3740
 0.9010	33.3800
 0.9020	33.3870
 0.9030	33.3940
 0.9040	33.3960
 0.9050	33.3970
 0.9060	33.4010
 0.9070	33.4070
 0.9080	33.4060
 0.9090	33.4070
 0.9100	33.4150
 0.9110	33.4250
 0.9120	33.4160
 0.9130	33.4100
 0.9140	33.4150
 0.9150	33.4260
 0.9160	33.4220
 0.9170	33.4220
 0.9180	33.4270
 0.9190	33.4290
 0.9200	33.4280
 0.9210	33.4220
 0.9220	33.4160
 0.9230	33.4170
 0.9240	33.4060
 0.9250	33.3960
 0.9260	33.3900
 0.9270	33.3840
 0.9280	33.3790
 0.9290	33.3690
 0.9300	33.3550
 0.9310	33.3420
 0.9320	33.3390
 0.9330	33.3300
 0.9340	33.3060
 0.9350	33.2770
 0.9360	33.2590
 0.9370	33.2460
 0.9380	33.2300
 0.9390	33.2040
 0.9400	33.1830
 0.9410	33.1660
 0.9420	33.1450
 0.9430	33.1160
 0.9440	33.0800
 0.9450	33.0500
 0.9460	33.0280
 0.9470	33.0000
 0.9480	32.9600
 0.9490	32.9190
 0.9500	32.8840
 0.9510	32.8320
 0.9520	32.7800
 0.9530	32.7280
 0.9540	32.6740
 0.9550	32.6220
 0.9560	32.5750
 0.9570	32.5320
 0.9580	32.4880
 0.9590	32.4380
 0.9600	32.4000
 0.9610	32.3710
 0.9620	32.3410
 0.9630	32.2910
 0.9640	32.2710
 0.9650	32.2640
 0.9660	32.2360
 0.9670	32.2160
 0.9680	32.1980
 0.9690	32.1830
 0.9700	32.1680
 0.9710	32.1420
 0.9720	32.1290
 0.9730	32.1250
 0.9740	32.1170
 0.9750	32.1170
 0.9760	32.1180
 0.9770	32.1120
 0.9780	32.0960
 0.9790	32.0930
 0.9800	32.1020
 0.9810	32.1070
 0.9820	32.0930
 0.9830	32.0920
 0.9840	32.0980
 0.9850	32.1150
 0.9860	32.1410
 0.9870	32.1440
 0.9880	32.1480
 0.9890	32.1550
 0.9900	32.1600
 0.9910	32.1900
 0.9920	32.2290
 0.9930	32.2680
 0.9940	32.3070
 0.9950	32.3460
 0.9960	32.3850
 0.9970	32.4240
 0.9980	32.4620
 0.9990	32.5010
 1.0000	32.5400
 1.0010	32.5790
 1.0020	32.6180
 1.0030	32.6570
 1.0040	32.6960
 1.0050	32.7340
 1.0060	32.7730
 1.0070	32.8120
 1.0080	32.8510
 1.0090	32.8900
 1.0100	32.8900
 1.0110	32.9010
 1.0120	32.9150
 1.0130	32.9300
 1.0140	32.9420
 1.0150	32.9530
 1.0160	32.9660
 1.0170	32.9780
 1.0180	32.9930
 1.0190	33.0100
 1.0200	33.0280
 1.0210	33.0440
 1.0220	33.0590
 1.0230	33.0730
 1.0240	33.0860
 1.0250	33.0990
 1.0260	33.1120
 1.0270	33.1240
 1.0280	33.1350
 1.0290	33.1470
 1.0300	33.1590
 1.0310	33.1720
 1.0320	33.1900
 1.0330	33.2050
 1.0340	33.2140
 1.0350	33.2230
 1.0360	33.2330
 1.0370	33.2430
 1.0380	33.2550
 1.0390	33.2750
 1.0400	33.2870
 1.0410	33.2970
 1.0420	33.3080
 1.0430	33.3190
 1.0440	33.3280
 1.0450	33.3360
 1.0460	33.3440
 1.0470	33.3500
 1.0480	33.3570
 1.0490	33.3670
 1.0500	33.3750
 1.0510	33.3830
 1.0520	33.3920
 1.0530	33.3990
 1.0540	33.4050
 1.0550	33.4110
 1.0560	33.4180
 1.0570	33.4200
 1.0580	33.4190
 1.0590	33.4200
 1.0600	33.4160
 1.0610	33.4170
 1.0620	33.4220
 1.0630	33.4240
 1.0640	33.4250
 1.0650	33.4260
 1.0660	33.4250
 1.0670	33.4250
 1.0680	33.4260
 1.0690	33.4280
 1.0700	33.4270
 1.0710	33.4260
 1.0720	33.4220
 1.0730	33.4140
 1.0740	33.4080
 1.0750	33.4010
 1.0760	33.3970
 1.0770	33.3940
 1.0780	33.3910
 1.0790	33.3880
 1.0800	33.3850
 1.0810	33.3820
 1.0820	33.3770
 1.0830	33.3710
 1.0840	33.3650
 1.0850	33.3580
 1.0860	33.3490
 1.0870	33.3420
 1.0880	33.3350
 1.0890	33.3280
 1.0900	33.3210
 1.0910	33.3130
 1.0920	33.3070
 1.0930	33.2980
 1.0940	33.2880
 1.0950	33.2780
 1.0960	33.2660
 1.0970	33.2570
 1.0980	33.2480
 1.0990	33.2390
 1.1000	33.2300
 1.1010	33.2210
 1.1020	33.2110
 1.1030	33.2010
 1.1040	33.1930
 1.1050	33.1840
 1.1060	33.1750
 1.1070	33.1660
 1.1080	33.1550
 1.1090	33.1430
 1.1100	33.1320
 1.1110	33.1200
 1.1120	33.1070
 1.1130	33.0930
 1.1140	33.0780
 1.1150	33.0600
 1.1160	33.0430
 1.1170	33.0260
 1.1180	33.0070
 1.1190	32.9880
 1.1200	32.9660
 1.1210	32.9410
 1.1220	32.9150
 1.1230	32.8850
 1.1240	32.8520
 1.1250	32.8150
 1.1260	32.7730
 1.1270	32.7300
 1.1280	32.6840
 1.1290	32.6340
 1.1300	32.5820
 1.1310	32.5230
 1.1320	32.4560
 1.1330	32.3870
 1.1340	32.3140
 1.1350	32.2350
 1.1360	32.1510
 1.1370	32.0620
 1.1380	31.9670
 1.1390	31.8690
 1.1400	31.7670
 1.1410	31.6640
 1.1420	31.5590
 1.1430	31.4510
 1.1440	31.3430
 1.1450	31.2310
 1.1460	31.1250
 1.1470	31.0160
 1.1480	30.9150
 1.1490	30.8170
 1.1500	30.7250
 1.1510	30.6350
 1.1520	30.5530
 1.1530	30.4790
 1.1540	30.4080
 1.1550	30.3430
 1.1560	30.2840
 1.1570	30.2300
 1.1580	30.1820
 1.1590	30.1410
 1.1600	30.1050
 1.1610	30.0720
 1.1620	30.0450
 1.1630	30.0220
 1.1640	30.0010
 1.1650	29.9830
 1.1660	29.9690
 1.1670	29.9560
 1.1680	29.9460
 1.1690	29.9370
 1.1700	29.9300
 1.1710	29.9230
 1.1720	29.9160
 1.1730	29.9110
 1.1740	29.9070
 1.1750	29.9010
 1.1760	29.8960
 1.1770	29.8890
 1.1780	29.8820
 1.1790	29.8750
 1.1800	29.8680
 1.1810	29.8590
 1.1820	29.8510
 1.1830	29.8420
 1.1840	29.8340
 1.1850	29.8260
 1.1860	29.8190
 1.1870	29.8110
 1.1880	29.8050
 1.1890	29.7990
 1.1900	29.7940
 1.1910	29.7880
 1.1920	29.7840
 1.1930	29.7820
 1.1940	29.7800
 1.1950	29.7780
 1.1960	29.7780
 1.1970	29.7780
 1.1980	29.7810
 1.1990	29.7860
 1.2000	29.7910
 1.2010	29.7980
 1.2020	29.8040
 1.2030	29.8110
 1.2040	29.8180
 1.2050	29.8280
 1.2060	29.8380
 1.2070	29.8480
 1.2080	29.8600
 1.2090	29.8720
 1.2100	29.8840
 1.2110	29.8970
 1.2120	29.9100
 1.2130	29.9240
 1.2140	29.9370
 1.2150	29.9520
 1.2160	29.9690
 1.2170	29.9830
 1.2180	29.9980
 1.2190	30.0150
 1.2200	30.0310
 1.2210	30.0480
 1.2220	30.0650
 1.2230	30.0810
 1.2240	30.0970
 1.2250	30.1120
 1.2260	30.1250
 1.2270	30.1390
 1.2280	30.1510
 1.2290	30.1650
 1.2300	30.1790
 1.2310	30.1930
 1.2320	30.2050
 1.2330	30.2150
 1.2340	30.2260
 1.2350	30.2360
 1.2360	30.2470
 1.2370	30.2570
 1.2380	30.2690
 1.2390	30.2800
 1.2400	30.2900
 1.2410	30.3000
 1.2420	30.3090
 1.2430	30.3180
 1.2440	30.3250
 1.2450	30.3320
 1.2460	30.3400
 1.2470	30.3470
 1.2480	30.3540
 1.2490	30.3610
 1.2500	30.3650
 1.2510	30.3700
 1.2520	30.3740
 1.2530	30.3770
 1.2540	30.3810
 1.2550	30.3850
 1.2560	30.3880
 1.2570	30.3890
 1.2580	30.3910
 1.2590	30.3900
 1.2600	30.3890
 1.2610	30.3880
 1.2620	30.3850
 1.2630	30.3820
 1.2640	30.3790
 1.2650	30.3730
 1.2660	30.3680
 1.2670	30.3640
 1.2680	30.3590
 1.2690	30.3540
 1.2700	30.3480
 1.2710	30.3410
 1.2720	30.3340
 1.2730	30.3260
 1.2740	30.3190
 1.2750	30.3100
 1.2760	30.3000
 1.2770	30.2890
 1.2780	30.2780
 1.2790	30.2670
 1.2800	30.2550
 1.2810	30.2430
 1.2820	30.2290
 1.2830	30.2120
 1.2840	30.1950
 1.2850	30.1760
 1.2860	30.1550
 1.2870	30.1320
 1.2880	30.1080
 1.2890	30.0830
 1.2900	30.0570
 1.2910	30.0310
 1.2920	30.0020
 1.2930	29.9710
 1.2940	29.9380
 1.2950	29.9030
 1.2960	29.8650
 1.2970	29.8240
 1.2980	29.7800
 1.2990	29.7350
 1.3000	29.6910
 1.3010	29.6450
 1.3020	29.5980
 1.3030	29.5470
 1.3040	29.4930
 1.3050	29.4380
 1.3060	29.3820
 1.3070	29.3240
 1.3080	29.2640
 1.3090	29.2020
 1.3100	29.1380
 1.3110	29.0710
 1.3120	29.0010
 1.3130	28.9310
 1.3140	28.8590
 1.3150	28.7840
 1.3160	28.7090
 1.3170	28.6320
 1.3180	28.5530
 1.3190	28.4710
 1.3200	28.3880
 1.3210	28.3010
 1.3220	28.2120
 1.3230	28.1230
 1.3240	28.0330
 1.3250	27.9420
 1.3260	27.8500
 1.3270	27.7550
 1.3280	27.6580
 1.3290	27.5580
 1.3300	27.4560
 1.3310	27.3560
 1.3320	27.2540
 1.3330	27.1520
 1.3340	27.0510
 1.3350	26.9470
 1.3360	26.8440
 1.3370	26.7410
 1.3380	26.6370
 1.3390	26.5340
 1.3400	26.4300
 1.3410	26.3270
 1.3420	26.2250
 1.3430	26.1250
 1.3440	26.0250
 1.3450	25.9260
 1.3460	25.8270
 1.3470	25.7300
 1.3480	25.6330
 1.3490	25.5370
 1.3500	25.4440
 1.3510	25.3500
 1.3520	25.2550
 1.3530	25.1620
 1.3540	25.0680
 1.3550	24.9730
 1.3560	24.8770
 1.3570	24.7820
 1.3580	24.6860
 1.3590	24.5880
 1.3600	24.4870
 1.3610	24.3840
 1.3620	24.2760
 1.3630	24.1660
 1.3640	24.0530
 1.3650	23.9350
 1.3660	23.8110
 1.3670	23.6790
 1.3680	23.5410
 1.3690	23.3950
 1.3700	23.2410
 1.3710	23.0780
 1.3720	22.9070
 1.3730	22.7220
 1.3740	22.5270
 1.3750	22.3200
 1.3760	22.0970
 1.3770	21.8590
 1.3780	21.6060
 1.3790	21.3390
 1.3800	21.0580
 1.3810	20.7620
 1.3820	20.4550
 1.3830	20.1350
 1.3840	19.8040
 1.3850	19.4600
 1.3860	19.1080
 1.3870	18.7430
 1.3880	18.3760
 1.3890	18.0020
 1.3900	17.6230
 1.3910	17.2460
 1.3920	16.8670
 1.3930	16.4860
 1.3940	16.1080
 1.3950	15.7320
 1.3960	15.3630
 1.3970	15.0040
 1.3980	14.6530
 1.3990	14.3170
 1.4000	13.9920
 1.4010	13.6760
 1.4020	13.3760
 1.4030	13.0860
 1.4040	12.8110
 1.4050	12.5520
 1.4060	12.3050
 1.4070	12.0770
 1.4080	11.8620
 1.4090	11.6610
 1.4100	11.4750
 1.4110	11.3000
 1.4120	11.1390
 1.4130	10.9900
 1.4140	10.8530
 1.4150	10.7270
 1.4160	10.6130
 1.4170	10.5080
 1.4180	10.4120
 1.4190	10.3250
 1.4200	10.2450
 1.4210	10.1720
 1.4220	10.1060
 1.4230	10.0480
 1.4240	 9.9950
 1.4250	 9.9480
 1.4260	 9.9080
 1.4270	 9.8700
 1.4280	 9.8380
 1.4290	 9.8100
 1.4300	 9.7850
 1.4310	 9.7640
 1.4320	 9.7470
 1.4330	 9.7330
 1.4340	 9.7230
 1.4350	 9.7140
 1.4360	 9.7080
 1.4370	 9.7050
 1.4380	 9.7030
 1.4390	 9.7040
 1.4400	 9.7060
 1.4410	 9.7110
 1.4420	 9.7170
 1.4430	 9.7240
 1.4440	 9.7320
 1.4450	 9.7420
 1.4460	 9.7530
 1.4470	 9.7640
 1.4480	 9.7760
 1.4490	 9.7890
 1.4500	 9.8020
 1.4510	 9.8160
 1.4520	 9.8320
 1.4530	 9.8470
 1.4540	 9.8630
 1.4550	 9.8800
 1.4560	 9.8980
 1.4570	 9.9180
 1.4580	 9.9390
 1.4590	 9.9630
 1.4600	 9.9890
 1.4610	10.0160
 1.4620	10.0460
 1.4630	10.0770
 1.4640	10.1110
 1.4650	10.1480
 1.4660	10.1880
 1.4670	10.2300
 1.4680	10.2760
 1.4690	10.3240
 1.4700	10.3750
 1.4710	10.4290
 1.4720	10.4850
 1.4730	10.5440
 1.4740	10.6040
 1.4750	10.6650
 1.4760	10.7290
 1.4770	10.7940
 1.4780	10.8590
 1.4790	10.9280
 1.4800	10.9950
 1.4810	11.0650
 1.4820	11.1350
 1.4830	11.2040
 1.4840	11.2760
 1.4850	11.3490
 1.4860	11.4240
 1.4870	11.5000
 1.4880	11.5750
 1.4890	11.6490
 1.4900	11.7240
 1.4910	11.7980
 1.4920	11.8730
 1.4930	11.9500
 1.4940	12.0260
 1.4950	12.1030
 1.4960	12.1800
 1.4970	12.2560
 1.4980	12.3330
 1.4990	12.4110
 1.5000	12.4890
 1.5010	12.5670
 1.5020	12.6440
 1.5030	12.7190
 1.5040	12.7960
 1.5050	12.8720
 1.5060	12.9490
 1.5070	13.0270
 1.5080	13.1030
 1.5090	13.1790
 1.5100	13.2550
 1.5110	13.3300
 1.5120	13.4050
 1.5130	13.4790
 1.5140	13.5530
 1.5150	13.6270
 1.5160	13.7000
 1.5170	13.7740
 1.5180	13.8470
 1.5190	13.9200
 1.5200	13.9930
 1.5210	14.0640
 1.5220	14.1340
 1.5230	14.2050
 1.5240	14.2740
 1.5250	14.3450
 1.5260	14.4140
 1.5270	14.4830
 1.5280	14.5520
 1.5290	14.6190
 1.5300	14.6860
 1.5310	14.7520
 1.5320	14.8180
 1.5330	14.8840
 1.5340	14.9480
 1.5350	15.0120
 1.5360	15.0770
 1.5370	15.1390
 1.5380	15.2020
 1.5390	15.2650
 1.5400	15.3250
 1.5410	15.3870
 1.5420	15.4480
 1.5430	15.5080
 1.5440	15.5680
 1.5450	15.6270
 1.5460	15.6860
 1.5470	15.7440
 1.5480	15.8000
 1.5490	15.8580
 1.5500	15.9140
 1.5510	15.9710
 1.5520	16.0280
 1.5530	16.0820
 1.5540	16.1360
 1.5550	16.1910
 1.5560	16.2430
 1.5570	16.2960
 1.5580	16.3480
 1.5590	16.4000
 1.5600	16.4500
 1.5610	16.4990
 1.5620	16.5480
 1.5630	16.5970
 1.5640	16.6460
 1.5650	16.6950
 1.5660	16.7430
 1.5670	16.7910
 1.5680	16.8370
 1.5690	16.8820
 1.5700	16.9280
 1.5710	16.9740
 1.5720	17.0200
 1.5730	17.0650
 1.5740	17.1100
 1.5750	17.1540
 1.5760	17.1990
 1.5770	17.2430
 1.5780	17.2870
 1.5790	17.3300
 1.5800	17.3720
 1.5810	17.4150
 1.5820	17.4580
 1.5830	17.4980
 1.5840	17.5390
 1.5850	17.5800
 1.5860	17.6210
 1.5870	17.6640
 1.5880	17.7050
 1.5890	17.7450
 1.5900	17.7850
 1.5910	17.8240
 1.5920	17.8630
 1.5930	17.9030
 1.5940	17.9420
 1.5950	17.9810
 1.5960	18.0190
 1.5970	18.0560
 1.5980	18.0930
 1.5990	18.1300
 1.6000	18.1670
 1.6010	18.2040
 1.6020	18.2400
 1.6030	18.2730
 1.6040	18.3070
 1.6050	18.3410
 1.6060	18.3740
 1.6070	18.4080
 1.6080	18.4410
 1.6090	18.4730
 1.6100	18.5050
 1.6110	18.5380
 1.6120	18.5690
 1.6130	18.6000
 1.6140	18.6310
 1.6150	18.6610
 1.6160	18.6890
 1.6170	18.7170
 1.6180	18.7450
 1.6190	18.7720
 1.6200	18.7990
 1.6210	18.8270
 1.6220	18.8550
 1.6230	18.8810
 1.6240	18.9070
 1.6250	18.9300
 1.6260	18.9550
 1.6270	18.9790
 1.6280	19.0040
 1.6290	19.0280
 1.6300	19.0500
 1.6310	19.0720
 1.6320	19.0940
 1.6330	19.1140
 1.6340	19.1340
 1.6350	19.1530
 1.6360	19.1710
 1.6370	19.1880
 1.6380	19.2020
 1.6390	19.2160
 1.6400	19.2270
 1.6410	19.2380
 1.6420	19.2480
 1.6430	19.2570
 1.6440	19.2660
 1.6450	19.2720
 1.6460	19.2770
 1.6470	19.2790
 1.6480	19.2800
 1.6490	19.2800
 1.6500	19.2800
 1.6510	19.2790
 1.6520	19.2770
 1.6530	19.2730
 1.6540	19.2670
 1.6550	19.2600
 1.6560	19.2530
 1.6570	19.2470
 1.6580	19.2410
 1.6590	19.2360
 1.6600	19.2320
 1.6610	19.2290
 1.6620	19.2270
 1.6630	19.2250
 1.6640	19.2240
 1.6650	19.2230
 1.6660	19.2210
 1.6670	19.2200
 1.6680	19.2200
 1.6690	19.2180
 1.6700	19.2180
 1.6710	19.2190
 1.6720	19.2190
 1.6730	19.2180
 1.6740	19.2170
 1.6750	19.2140
 1.6760	19.2110
 1.6770	19.2080
 1.6780	19.2040
 1.6790	19.1970
 1.6800	19.1890
 1.6810	19.1790
 1.6820	19.1680
 1.6830	19.1540
 1.6840	19.1410
 1.6850	19.1270
 1.6860	19.1110
 1.6870	19.0950
 1.6880	19.0770
 1.6890	19.0570
 1.6900	19.0380
 1.6910	19.0180
 1.6920	18.9980
 1.6930	18.9790
 1.6940	18.9590
 1.6950	18.9380
 1.6960	18.9170
 1.6970	18.8950
 1.6980	18.8740
 1.6990	18.8520
 1.7000	18.8300
 1.7010	18.8080
 1.7020	18.7860
 1.7030	18.7620
 1.7040	18.7380
 1.7050	18.7120
 1.7060	18.6860
 1.7070	18.6600
 1.7080	18.6330
 1.7090	18.6060
 1.7100	18.5790
 1.7110	18.5510
 1.7120	18.5240
 1.7130	18.4960
 1.7140	18.4660
 1.7150	18.4370
 1.7160	18.4050
 1.7170	18.3730
 1.7180	18.3430
 1.7190	18.3100
 1.7200	18.2770
 1.7210	18.2430
 1.7220	18.2080
 1.7230	18.1720
 1.7240	18.1370
 1.7250	18.1020
 1.7260	18.0690
 1.7270	18.0350
 1.7280	18.0010
 1.7290	17.9670
 1.7300	17.9310
 1.7310	17.8970
 1.7320	17.8660
 1.7330	17.8350
 1.7340	17.8060
 1.7350	17.7750
 1.7360	17.7420
 1.7370	17.7090
 1.7380	17.6750
 1.7390	17.6410
 1.7400	17.6090
 1.7410	17.5750
 1.7420	17.5400
 1.7430	17.5050
 1.7440	17.4700
 1.7450	17.4360
 1.7460	17.4030
 1.7470	17.3680
 1.7480	17.3300
 1.7490	17.2950
 1.7500	17.2590
 1.7510	17.2240
 1.7520	17.1920
 1.7530	17.1560
 1.7540	17.1200
 1.7550	17.0860
 1.7560	17.0520
 1.7570	17.0180
 1.7580	16.9840
 1.7590	16.9510
 1.7600	16.9180
 1.7610	16.8850
 1.7620	16.8520
 1.7630	16.8160
 1.7640	16.7830
 1.7650	16.7520
 1.7660	16.7230
 1.7670	16.6960
 1.7680	16.6680
 1.7690	16.6380
 1.7700	16.6110
 1.7710	16.5850
 1.7720	16.5580
 1.7730	16.5330
 1.7740	16.5080
 1.7750	16.4810
 1.7760	16.4550
 1.7770	16.4310
 1.7780	16.4090
 1.7790	16.3870
 1.7800	16.3670
 1.7810	16.3500
 1.7820	16.3330
 1.7830	16.3160
 1.7840	16.3010
 1.7850	16.2870
 1.7860	16.2740
 1.7870	16.2630
 1.7880	16.2510
 1.7890	16.2410
 1.7900	16.2290
 1.7910	16.2200
 1.7920	16.2130
 1.7930	16.2070
 1.7940	16.2050
 1.7950	16.2020
 1.7960	16.1990
 1.7970	16.1960
 1.7980	16.1920
 1.7990	16.1900
 1.8000	16.1910
 1.8010	16.1910
 1.8020	16.1930
 1.8030	16.1930
 1.8040	16.1920
 1.8050	16.1920
 1.8060	16.1920
 1.8070	16.1930
 1.8080	16.1940
 1.8090	16.1950
 1.8100	16.1980
 1.8110	16.1990
 1.8120	16.2000
 1.8130	16.2000
 1.8140	16.1980
 1.8150	16.1980
 1.8160	16.1980
 1.8170	16.1970
 1.8180	16.1980
 1.8190	16.1950
 1.8200	16.1920
 1.8210	16.1920
 1.8220	16.1890
 1.8230	16.1850
 1.8240	16.1800
 1.8250	16.1720
 1.8260	16.1650
 1.8270	16.1660
 1.8280	16.1670
 1.8290	16.1680
 1.8300	16.1690
 1.8310	16.1700
 1.8320	16.1710
 1.8330	16.1720
 1.8340	16.1730
 1.8350	16.1730
 1.8360	16.1470
 1.8370	16.1160
 1.8380	16.0840
 1.8390	16.0470
 1.8400	16.0060
 1.8410	15.9620
 1.8420	15.9180
 1.8430	15.8680
 1.8440	15.8130
 1.8450	15.7540
 1.8460	15.6890
 1.8470	15.6190
 1.8480	15.5420
 1.8490	15.4600
 1.8500	15.3720
 1.8510	15.2780
 1.8520	15.1750
 1.8530	15.0670
 1.8540	14.9510
 1.8550	14.8210
 1.8560	14.6860
 1.8570	14.5450
 1.8580	14.3930
 1.8590	14.2360
 1.8600	14.0740
 1.8610	13.9030
 1.8620	13.7190
 1.8630	13.5270
 1.8640	13.3260
 1.8650	13.1140
 1.8660	12.8920
 1.8670	12.6590
 1.8680	12.4150
 1.8690	12.1600
 1.8700	11.8980
 1.8710	11.6270
 1.8720	11.3520
 1.8730	11.0720
 1.8740	10.7860
 1.8750	10.5000
 1.8760	10.2090
 1.8770	 9.9190
 1.8780	 9.6330
 1.8790	 9.3440
 1.8800	 9.0630
 1.8810	 8.7840
 1.8820	 8.5120
 1.8830	 8.2430
 1.8840	 7.9830
 1.8850	 7.7320
 1.8860	 7.4880
 1.8870	 7.2560
 1.8880	 7.0340
 1.8890	 6.8240
 1.8900	 6.6280
 1.8910	 6.4440
 1.8920	 6.2730
 1.8930	 6.1160
 1.8940	 5.9700
 1.8950	 5.8370
 1.8960	 5.7160
 1.8970	 5.6090
 1.8980	 5.5120
 1.8990	 5.4250
 1.9000	 5.3460
 1.9010	 5.2780
 1.9020	 5.2150
 1.9030	 5.1600
 1.9040	 5.1140
 1.9050	 5.0740
 1.9060	 5.0380
 1.9070	 5.0080
 1.9080	 4.9820
 1.9090	 4.9560
 1.9100	 4.9340
 1.9110	 4.9150
 1.9120	 4.8980
 1.9130	 4.8830
 1.9140	 4.8710
 1.9150	 4.8600
 1.9160	 4.8520
 1.9170	 4.8440
 1.9180	 4.8380
 1.9190	 4.8340
 1.9200	 4.8320
 1.9210	 4.8290
 1.9220	 4.8280
 1.9230	 4.8270
 1.9240	 4.8260
 1.9250	 4.8240
 1.9260	 4.8230
 1.9270	 4.8240
 1.9280	 4.8250
 1.9290	 4.8290
 1.9300	 4.8340
 1.9310	 4.8390
 1.9320	 4.8450
 1.9330	 4.8500
 1.9340	 4.8540
 1.9350	 4.8580
 1.9360	 4.8610
 1.9370	 4.8660
 1.9380	 4.8700
 1.9390	 4.8770
 1.9400	 4.8850
 1.9410	 4.8920
 1.9420	 4.9020
 1.9430	 4.9100
 1.9440	 4.9200
 1.9450	 4.9310
 1.9460	 4.9420
 1.9470	 4.9530
 1.9480	 4.9640
 1.9490	 4.9730
 1.9500	 4.9830
 1.9510	 4.9960
 1.9520	 5.0080
 1.9530	 5.0220
 1.9540	 5.0370
 1.9550	 5.0520
 1.9560	 5.0670
 1.9570	 5.0820
 1.9580	 5.0970
 1.9590	 5.1120
 1.9600	 5.1250
 1.9610	 5.1410
 1.9620	 5.1570
 1.9630	 5.1740
 1.9640	 5.1920
 1.9650	 5.2110
 1.9660	 5.2310
 1.9670	 5.2500
 1.9680	 5.2690
 1.9690	 5.2880
 1.9700	 5.3070
 1.9710	 5.3250
 1.9720	 5.3450
 1.9730	 5.3660
 1.9740	 5.3880
 1.9750	 5.4130
 1.9760	 5.4380
 1.9770	 5.4620
 1.9780	 5.4860
 1.9790	 5.5100
 1.9800	 5.5310
 1.9810	 5.5560
 1.9820	 5.5820
 1.9830	 5.6080
 1.9840	 5.6370
 1.9850	 5.6640
 1.9860	 5.6900
 1.9870	 5.7150
 1.9880	 5.7410
 1.9890	 5.7700
 1.9900	 5.8000
 1.9910	 5.8320
 1.9920	 5.8610
 1.9930	 5.8890
 1.9940	 5.9190
 1.9950	 5.9470
 1.9960	 5.9770
 1.9970	 6.0080
 1.9980	 6.0400
 1.9990	 6.0720
 2.0000	 6.1050
 2.0010	 6.1380
 2.0020	 6.1710
 2.0030	 6.2010
 2.0040	 6.2280
 2.0050	 6.2590
 2.0060	 6.2890
 2.0070	 6.3200
 2.0080	 6.3550
 2.0090	 6.3870
 2.0100	 6.4160
 2.0110	 6.4470
 2.0120	 6.4760
 2.0130	 6.5070
 2.0140	 6.5400
 2.0150	 6.5740
 2.0160	 6.6060
 2.0170	 6.6370
 2.0180	 6.6670
 2.0190	 6.6970
 2.0200	 6.7260
 2.0210	 6.7550
 2.0220	 6.7840
 2.0230	 6.8120
 2.0240	 6.8400
 2.0250	 6.8680
 2.0260	 6.8970
 2.0270	 6.9280
 2.0280	 6.9570
 2.0290	 6.9820
 2.0300	 7.0080
 2.0310	 7.0340
 2.0320	 7.0570
 2.0330	 7.0820
 2.0340	 7.1110
 2.0350	 7.1360
 2.0360	 7.1590
 2.0370	 7.1820
 2.0380	 7.2030
 2.0390	 7.2260
 2.0400	 7.2480
 2.0410	 7.2690
 2.0420	 7.2900
 2.0430	 7.3110
 2.0440	 7.3320
 2.0450	 7.3540
 2.0460	 7.3740
 2.0470	 7.3930
 2.0480	 7.4120
 2.0490	 7.4300
 2.0500	 7.4490
 2.0510	 7.4700
 2.0520	 7.4900
 2.0530	 7.5100
 2.0540	 7.5290
 2.0550	 7.5490
 2.0560	 7.5700
 2.0570	 7.5900
 2.0580	 7.6090
 2.0590	 7.6290
 2.0600	 7.6490
 2.0610	 7.6700
 2.0620	 7.6920
 2.0630	 7.7120
 2.0640	 7.7300
 2.0650	 7.7500
 2.0660	 7.7680
 2.0670	 7.7880
 2.0680	 7.8110
 2.0690	 7.8320
 2.0700	 7.8530
 2.0710	 7.8730
 2.0720	 7.8940
 2.0730	 7.9140
 2.0740	 7.9350
 2.0750	 7.9560
 2.0760	 7.9760
 2.0770	 7.9950
 2.0780	 8.0140
 2.0790	 8.0350
 2.0800	 8.0520
 2.0810	 8.0660
 2.0820	 8.0830
 2.0830	 8.0970
 2.0840	 8.1150
 2.0850	 8.1370
 2.0860	 8.1560
 2.0870	 8.1760
 2.0880	 8.1950
 2.0890	 8.2120
 2.0900	 8.2270
 2.0910	 8.2430
 2.0920	 8.2580
 2.0930	 8.2740
 2.0940	 8.2890
 2.0950	 8.3070
 2.0960	 8.3260
 2.0970	 8.3450
 2.0980	 8.3650
 2.0990	 8.3830
 2.1000	 8.4010
 2.1010	 8.4180
 2.1020	 8.4340
 2.1030	 8.4500
 2.1040	 8.4630
 2.1050	 8.4780
 2.1060	 8.4930
 2.1070	 8.5080
 2.1080	 8.5240
 2.1090	 8.5410
 2.1100	 8.5570
 2.1110	 8.5750
 2.1120	 8.5900
 2.1130	 8.6040
 2.1140	 8.6190
 2.1150	 8.6350
 2.1160	 8.6500
 2.1170	 8.6680
 2.1180	 8.6840
 2.1190	 8.6980
 2.1200	 8.7120
 2.1210	 8.7230
 2.1220	 8.7360
 2.1230	 8.7460
 2.1240	 8.7540
 2.1250	 8.7650
 2.1260	 8.7740
 2.1270	 8.7860
 2.1280	 8.8010
 2.1290	 8.8140
 2.1300	 8.8280
 2.1310	 8.8400
 2.1320	 8.8500
 2.1330	 8.8610
 2.1340	 8.8700
 2.1350	 8.8800
 2.1360	 8.8890
 2.1370	 8.8990
 2.1380	 8.9090
 2.1390	 8.9190
 2.1400	 8.9300
 2.1410	 8.9420
 2.1420	 8.9540
 2.1430	 8.9660
 2.1440	 8.9800
 2.1450	 8.9950
 2.1460	 9.0080
 2.1470	 9.0220
 2.1480	 9.0350
 2.1490	 9.0450
 2.1500	 9.0580
 2.1510	 9.0720
 2.1520	 9.0870
 2.1530	 9.1030
 2.1540	 9.1170
 2.1550	 9.1300
 2.1560	 9.1440
 2.1570	 9.1590
 2.1580	 9.1720
 2.1590	 9.1850
 2.1600	 9.1930
 2.1610	 9.2010
 2.1620	 9.2110
 2.1630	 9.2240
 2.1640	 9.2410
 2.1650	 9.2530
 2.1660	 9.2650
 2.1670	 9.2760
 2.1680	 9.2820
 2.1690	 9.2910
 2.1700	 9.3020
 2.1710	 9.3130
 2.1720	 9.3250
 2.1730	 9.3360
 2.1740	 9.3470
 2.1750	 9.3580
 2.1760	 9.3660
 2.1770	 9.3770
 2.1780	 9.3880
 2.1790	 9.4020
 2.1800	 9.4200
 2.1810	 9.4350
 2.1820	 9.4510
 2.1830	 9.4650
 2.1840	 9.4780
 2.1850	 9.4870
 2.1860	 9.4990
 2.1870	 9.5090
 2.1880	 9.5220
 2.1890	 9.5370
 2.1900	 9.5500
 2.1910	 9.5650
 2.1920	 9.5780
 2.1930	 9.5900
 2.1940	 9.6030
 2.1950	 9.6160
 2.1960	 9.6290
 2.1970	 9.6440
 2.1980	 9.6580
 2.1990	 9.6710
 2.2000	 9.6850
 2.2010	 9.6990
 2.2020	 9.7110
 2.2030	 9.7210
 2.2040	 9.7320
 2.2050	 9.7430
 2.2060	 9.7550
 2.2070	 9.7640
 2.2080	 9.7760
 2.2090	 9.7840
 2.2100	 9.7880
 2.2110	 9.7950
 2.2120	 9.8000
 2.2130	 9.8080
 2.2140	 9.8190
 2.2150	 9.8280
 2.2160	 9.8400
 2.2170	 9.8470
 2.2180	 9.8520
 2.2190	 9.8540
 2.2200	 9.8520
 2.2210	 9.8520
 2.2220	 9.8500
 2.2230	 9.8510
 2.2240	 9.8570
 2.2250	 9.8580
 2.2260	 9.8560
 2.2270	 9.8530
 2.2280	 9.8450
 2.2290	 9.8380
 2.2300	 9.8310
 2.2310	 9.8230
 2.2320	 9.8090
 2.2330	 9.7960
 2.2340	 9.7810
 2.2350	 9.7640
 2.2360	 9.7460
 2.2370	 9.7270
 2.2380	 9.7080
 2.2390	 9.6880
 2.2400	 9.6690
 2.2410	 9.6530
 2.2420	 9.6310
 2.2430	 9.6040
 2.2440	 9.5780
 2.2450	 9.5490
 2.2460	 9.5200
 2.2470	 9.4930
 2.2480	 9.4630
 2.2490	 9.4300
 2.2500	 9.4010
 2.2510	 9.3760
 2.2520	 9.3460
 2.2530	 9.3140
 2.2540	 9.2840
 2.2550	 9.2520
 2.2560	 9.2210
 2.2570	 9.1930
 2.2580	 9.1640
 2.2590	 9.1330
 2.2600	 9.1030
 2.2610	 9.0730
 2.2620	 9.0410
 2.2630	 9.0140
 2.2640	 8.9830
 2.2650	 8.9530
 2.2660	 8.9280
 2.2670	 8.9000
 2.2680	 8.8720
 2.2690	 8.8430
 2.2700	 8.8120
 2.2710	 8.7830
 2.2720	 8.7520
 2.2730	 8.7250
 2.2740	 8.6990
 2.2750	 8.6760
 2.2760	 8.6560
 2.2770	 8.6350
 2.2780	 8.6160
 2.2790	 8.5960
 2.2800	 8.5750
 2.2810	 8.5540
 2.2820	 8.5350
 2.2830	 8.5140
 2.2840	 8.4920
 2.2850	 8.4680
 2.2860	 8.4430
 2.2870	 8.4190
 2.2880	 8.3960
 2.2890	 8.3720
 2.2900	 8.3480
 2.2910	 8.3280
 2.2920	 8.3110
 2.2930	 8.2910
 2.2940	 8.2740
 2.2950	 8.2540
 2.2960	 8.2290
 2.2970	 8.2060
 2.2980	 8.1850
 2.2990	 8.1640
 2.3000	 8.1430
 2.3010	 8.1210
 2.3020	 8.0950
 2.3030	 8.0710
 2.3040	 8.0480
 2.3050	 8.0250
 2.3060	 8.0060
 2.3070	 7.9880
 2.3080	 7.9690
 2.3090	 7.9500
 2.3100	 7.9270
 2.3110	 7.9010
 2.3120	 7.8810
 2.3130	 7.8640
 2.3140	 7.8480
 2.3150	 7.8390
 2.3160	 7.8250
 2.3170	 7.8090
 2.3180	 7.7940
 2.3190	 7.7770
 2.3200	 7.7610
 2.3210	 7.7430
 2.3220	 7.7260
 2.3230	 7.7130
 2.3240	 7.6930
 2.3250	 7.6690
 2.3260	 7.6480
 2.3270	 7.6240
 2.3280	 7.6020
 2.3290	 7.5850
 2.3300	 7.5630
 2.3310	 7.5410
 2.3320	 7.5150
 2.3330	 7.4830
 2.3340	 7.4560
 2.3350	 7.4270
 2.3360	 7.4030
 2.3370	 7.3900
 2.3380	 7.3700
 2.3390	 7.3520
 2.3400	 7.3320
 2.3410	 7.3050
 2.3420	 7.2810
 2.3430	 7.2550
 2.3440	 7.2350
 2.3450	 7.2240
 2.3460	 7.2080
 2.3470	 7.1950
 2.3480	 7.1760
 2.3490	 7.1440
 2.3500	 7.1220
 2.3510	 7.0990
 2.3520	 7.0810
 2.3530	 7.0700
 2.3540	 7.0620
 2.3550	 7.0480
 2.3560	 7.0330
 2.3570	 7.0180
 2.3580	 6.9970
 2.3590	 6.9780
 2.3600	 6.9580
 2.3610	 6.9320
 2.3620	 6.9140
 2.3630	 6.8980
 2.3640	 6.8840
 2.3650	 6.8680
 2.3660	 6.8480
 2.3670	 6.8280
 2.3680	 6.8030
 2.3690	 6.7770
 2.3700	 6.7580
 2.3710	 6.7420
 2.3720	 6.7270
 2.3730	 6.7150
 2.3740	 6.7000
 2.3750	 6.6740
 2.3760	 6.6470
 2.3770	 6.6210
 2.3780	 6.6000
 2.3790	 6.5830
 2.3800	 6.5670
 2.3810	 6.5540
 2.3820	 6.5330
 2.3830	 6.5120
 2.3840	 6.4870
 2.3850	 6.4630
 2.3860	 6.4470
 2.3870	 6.4280
 2.3880	 6.4130
 2.3890	 6.4010
 2.3900	 6.3860
 2.3910	 6.3780
 2.3920	 6.3640
 2.3930	 6.3410
 2.3940	 6.3150
 2.3950	 6.2840
 2.3960	 6.2450
 2.3970	 6.2140
 2.3980	 6.1910
 2.3990	 6.1660
 2.4000	 6.1570
 2.4010	 6.1500
 2.4020	 6.1390
 2.4030	 6.1240
 2.4040	 6.0890
 2.4050	 6.0530
 2.4060	 6.0130
 2.4070	 5.9760
 2.4080	 5.9600
 2.4090	 5.9510
 2.4100	 5.9410
 2.4110	 5.9220
 2.4120	 5.9020
 2.4130	 5.8820
 2.4140	 5.8550
 2.4150	 5.8380
 2.4160	 5.8270
 2.4170	 5.8030
 2.4180	 5.7830
 2.4190	 5.7650
 2.4200	 5.7370
 2.4210	 5.7150
 2.4220	 5.6900
 2.4230	 5.6650
 2.4240	 5.6460
 2.4250	 5.6350
 2.4260	 5.6310
 2.4270	 5.6210
 2.4280	 5.6140
 2.4290	 5.6040
 2.4300	 5.5860
 2.4310	 5.5610
 2.4320	 5.5290
 2.4330	 5.5040
 2.4340	 5.4790
 2.4350	 5.4710
 2.4360	 5.4780
 2.4370	 5.4550
 2.4380	 5.4260
 2.4390	 5.4050
 2.4400	 5.3730
 2.4410	 5.3760
 2.4420	 5.3910
 2.4430	 5.3800
 2.4440	 5.3790
 2.4450	 5.3590
 2.4460	 5.3210
 2.4470	 5.3000
 2.4480	 5.2680
 2.4490	 5.2380
 2.4500	 5.2390
 2.4510	 5.2350
 2.4520	 5.2260
 2.4530	 5.2120
 2.4540	 5.1880
 2.4550	 5.1620
 2.4560	 5.1470
 2.4570	 5.1460
 2.4580	 5.1260
 2.4590	 5.0980
 2.4600	 5.0930
 2.4610	 5.0830
 2.4620	 5.0750
 2.4630	 5.0730
 2.4640	 5.0580
 2.4650	 5.0310
 2.4660	 5.0080
 2.4670	 5.0100
 2.4680	 4.9980
 2.4690	 4.9980
 2.4700	 4.9950
 2.4710	 4.9780
 2.4720	 4.9610
 2.4730	 4.9440
 2.4740	 4.9230
 2.4750	 4.8810
 2.4760	 4.8680
 2.4770	 4.8730
 2.4780	 4.8760
 2.4790	 4.9000
 2.4800	 4.9130
 2.4810	 4.9180
 2.4820	 4.9260
 2.4830	 4.9200
 2.4840	 4.8850
 2.4850	 4.8650
 2.4860	 4.8430
 2.4870	 4.8270
 2.4880	 4.8610
 2.4890	 4.8630
 2.4900	 4.8510
 2.4910	 4.8790
 2.4920	 4.8860
 2.4930	 4.8830
 2.4940	 4.8950
 2.4950	 4.8660
 2.4960	 4.8070
 2.4970	 4.7840
 2.4980	 4.7460
 2.4990	 4.6860
 2.5000	 4.6850
