Name: Ceanothus spinosus 2
Type: vegetation
Class: Shrub
Genus: Ceanothus
Species: spinosus
Sample No.: VH130
Owner: UCSB
Wavelength Range: VSWIR
Origin: 34.4906; -119.7908; WGS84
Collection Date: 6/3/2013
Description: Samples were collected as part of the HyspIRI Airborne Campaign. 48 individual plants were sampled in three times in 2013 - spring  summer  and fall. The name of the sample includes a 1  2  or 3 which references a different individual of the species. Samples were taken to JPL and processed within 48 hours of collection. The same leaves were processed in the Nicolet and then measured using the ASD.
Measurement: Bidirectional reflectance
First Column: X
Second Column: Y
X Units: Wavelength (micrometers)
Y Units: Reflectance (percentage)
First X Value: 0.35
Last X Value: 2.5
Number of X Values: 2151
Additional Information: vegetation.shrub.ceanothus.spinosus.vswir.vh130.ucsb.asd.ancillary.txt

 0.3500	 7.5600
 0.3510	 7.5950
 0.3520	 7.6750
 0.3530	 7.6800
 0.3540	 7.5910
 0.3550	 7.6240
 0.3560	 7.6720
 0.3570	 7.6700
 0.3580	 7.5930
 0.3590	 7.5990
 0.3600	 7.5810
 0.3610	 7.5130
 0.3620	 7.5190
 0.3630	 7.5020
 0.3640	 7.4810
 0.3650	 7.4970
 0.3660	 7.5750
 0.3670	 7.5850
 0.3680	 7.5250
 0.3690	 7.4890
 0.3700	 7.5190
 0.3710	 7.4900
 0.3720	 7.3810
 0.3730	 7.4060
 0.3740	 7.4100
 0.3750	 7.4000
 0.3760	 7.4200
 0.3770	 7.4320
 0.3780	 7.4120
 0.3790	 7.3850
 0.3800	 7.4120
 0.3810	 7.4250
 0.3820	 7.3880
 0.3830	 7.3300
 0.3840	 7.4020
 0.3850	 7.4030
 0.3860	 7.3500
 0.3870	 7.3290
 0.3880	 7.3350
 0.3890	 7.3180
 0.3900	 7.2980
 0.3910	 7.3670
 0.3920	 7.3950
 0.3930	 7.3640
 0.3940	 7.3050
 0.3950	 7.3130
 0.3960	 7.3410
 0.3970	 7.3450
 0.3980	 7.3000
 0.3990	 7.2920
 0.4000	 7.2930
 0.4010	 7.2870
 0.4020	 7.2870
 0.4030	 7.2820
 0.4040	 7.2790
 0.4050	 7.2890
 0.4060	 7.3070
 0.4070	 7.3200
 0.4080	 7.3270
 0.4090	 7.3260
 0.4100	 7.3000
 0.4110	 7.3090
 0.4120	 7.3600
 0.4130	 7.3560
 0.4140	 7.3620
 0.4150	 7.3870
 0.4160	 7.4130
 0.4170	 7.4220
 0.4180	 7.4410
 0.4190	 7.4800
 0.4200	 7.5240
 0.4210	 7.5350
 0.4220	 7.5420
 0.4230	 7.5670
 0.4240	 7.5880
 0.4250	 7.6190
 0.4260	 7.6470
 0.4270	 7.6480
 0.4280	 7.6550
 0.4290	 7.6700
 0.4300	 7.6890
 0.4310	 7.6990
 0.4320	 7.7000
 0.4330	 7.7040
 0.4340	 7.7190
 0.4350	 7.7320
 0.4360	 7.7410
 0.4370	 7.7530
 0.4380	 7.7720
 0.4390	 7.7930
 0.4400	 7.8090
 0.4410	 7.8230
 0.4420	 7.8460
 0.4430	 7.8660
 0.4440	 7.8770
 0.4450	 7.8790
 0.4460	 7.8960
 0.4470	 7.9090
 0.4480	 7.9150
 0.4490	 7.9330
 0.4500	 7.9640
 0.4510	 7.9890
 0.4520	 7.9910
 0.4530	 7.9970
 0.4540	 8.0110
 0.4550	 8.0260
 0.4560	 8.0270
 0.4570	 8.0390
 0.4580	 8.0490
 0.4590	 8.0500
 0.4600	 8.0680
 0.4610	 8.0710
 0.4620	 8.0710
 0.4630	 8.0870
 0.4640	 8.0810
 0.4650	 8.0710
 0.4660	 8.0700
 0.4670	 8.0810
 0.4680	 8.0810
 0.4690	 8.0740
 0.4700	 8.0670
 0.4710	 8.0710
 0.4720	 8.0750
 0.4730	 8.0760
 0.4740	 8.0770
 0.4750	 8.0830
 0.4760	 8.0900
 0.4770	 8.0930
 0.4780	 8.0870
 0.4790	 8.0850
 0.4800	 8.0860
 0.4810	 8.0880
 0.4820	 8.1060
 0.4830	 8.1170
 0.4840	 8.1180
 0.4850	 8.1210
 0.4860	 8.1300
 0.4870	 8.1440
 0.4880	 8.1620
 0.4890	 8.1870
 0.4900	 8.2050
 0.4910	 8.2220
 0.4920	 8.2480
 0.4930	 8.2870
 0.4940	 8.3210
 0.4950	 8.3460
 0.4960	 8.3840
 0.4970	 8.4260
 0.4980	 8.4700
 0.4990	 8.5160
 0.5000	 8.5610
 0.5010	 8.6160
 0.5020	 8.6830
 0.5030	 8.7520
 0.5040	 8.8290
 0.5050	 8.9120
 0.5060	 8.9990
 0.5070	 9.0960
 0.5080	 9.2010
 0.5090	 9.3160
 0.5100	 9.4390
 0.5110	 9.5750
 0.5120	 9.7180
 0.5130	 9.8730
 0.5140	10.0540
 0.5150	10.2350
 0.5160	10.4220
 0.5170	10.6220
 0.5180	10.8280
 0.5190	11.0450
 0.5200	11.2730
 0.5210	11.5040
 0.5220	11.7360
 0.5230	11.9690
 0.5240	12.2000
 0.5250	12.4190
 0.5260	12.6300
 0.5270	12.8340
 0.5280	13.0310
 0.5290	13.2110
 0.5300	13.3770
 0.5310	13.5300
 0.5320	13.6700
 0.5330	13.8000
 0.5340	13.9170
 0.5350	14.0160
 0.5360	14.1120
 0.5370	14.1940
 0.5380	14.2620
 0.5390	14.3270
 0.5400	14.3830
 0.5410	14.4350
 0.5420	14.4830
 0.5430	14.5300
 0.5440	14.5720
 0.5450	14.6130
 0.5460	14.6560
 0.5470	14.6970
 0.5480	14.7390
 0.5490	14.7740
 0.5500	14.7930
 0.5510	14.8070
 0.5520	14.8150
 0.5530	14.8120
 0.5540	14.7930
 0.5550	14.7610
 0.5560	14.7160
 0.5570	14.6560
 0.5580	14.5800
 0.5590	14.4930
 0.5600	14.3970
 0.5610	14.2980
 0.5620	14.1880
 0.5630	14.0680
 0.5640	13.9410
 0.5650	13.8030
 0.5660	13.6740
 0.5670	13.5520
 0.5680	13.4130
 0.5690	13.2650
 0.5700	13.1160
 0.5710	12.9740
 0.5720	12.8390
 0.5730	12.7090
 0.5740	12.5800
 0.5750	12.4490
 0.5760	12.3160
 0.5770	12.1850
 0.5780	12.0610
 0.5790	11.9480
 0.5800	11.8510
 0.5810	11.7700
 0.5820	11.7050
 0.5830	11.6460
 0.5840	11.5870
 0.5850	11.5280
 0.5860	11.4760
 0.5870	11.4320
 0.5880	11.3950
 0.5890	11.3620
 0.5900	11.3310
 0.5910	11.2960
 0.5920	11.2610
 0.5930	11.2270
 0.5940	11.1910
 0.5950	11.1640
 0.5960	11.1470
 0.5970	11.1250
 0.5980	11.1010
 0.5990	11.0740
 0.6000	11.0460
 0.6010	11.0100
 0.6020	10.9710
 0.6030	10.9290
 0.6040	10.8800
 0.6050	10.8320
 0.6060	10.7790
 0.6070	10.7190
 0.6080	10.6590
 0.6090	10.5950
 0.6100	10.5250
 0.6110	10.4540
 0.6120	10.3900
 0.6130	10.3260
 0.6140	10.2630
 0.6150	10.2040
 0.6160	10.1460
 0.6170	10.0890
 0.6180	10.0360
 0.6190	 9.9890
 0.6200	 9.9440
 0.6210	 9.9040
 0.6220	 9.8760
 0.6230	 9.8510
 0.6240	 9.8270
 0.6250	 9.8030
 0.6260	 9.7860
 0.6270	 9.7750
 0.6280	 9.7660
 0.6290	 9.7560
 0.6300	 9.7420
 0.6310	 9.7310
 0.6320	 9.7230
 0.6330	 9.7100
 0.6340	 9.6920
 0.6350	 9.6670
 0.6360	 9.6350
 0.6370	 9.5950
 0.6380	 9.5480
 0.6390	 9.4960
 0.6400	 9.4400
 0.6410	 9.3810
 0.6420	 9.3190
 0.6430	 9.2540
 0.6440	 9.1880
 0.6450	 9.1220
 0.6460	 9.0600
 0.6470	 9.0040
 0.6480	 8.9470
 0.6490	 8.8960
 0.6500	 8.8510
 0.6510	 8.8110
 0.6520	 8.7740
 0.6530	 8.7410
 0.6540	 8.7110
 0.6550	 8.6740
 0.6560	 8.6350
 0.6570	 8.5940
 0.6580	 8.5500
 0.6590	 8.5000
 0.6600	 8.4510
 0.6610	 8.4050
 0.6620	 8.3590
 0.6630	 8.3180
 0.6640	 8.2810
 0.6650	 8.2460
 0.6660	 8.2200
 0.6670	 8.1980
 0.6680	 8.1800
 0.6690	 8.1710
 0.6700	 8.1720
 0.6710	 8.1760
 0.6720	 8.1800
 0.6730	 8.1900
 0.6740	 8.2070
 0.6750	 8.2300
 0.6760	 8.2580
 0.6770	 8.2860
 0.6780	 8.3200
 0.6790	 8.3610
 0.6800	 8.4060
 0.6810	 8.4590
 0.6820	 8.5180
 0.6830	 8.5810
 0.6840	 8.6540
 0.6850	 8.7380
 0.6860	 8.8360
 0.6870	 8.9550
 0.6880	 9.1010
 0.6890	 9.2720
 0.6900	 9.4770
 0.6910	 9.7290
 0.6920	10.0330
 0.6930	10.3940
 0.6940	10.8160
 0.6950	11.2980
 0.6960	11.8430
 0.6970	12.4510
 0.6980	13.1210
 0.6990	13.8470
 0.7000	14.6240
 0.7010	15.4450
 0.7020	16.3020
 0.7030	17.1860
 0.7040	18.0890
 0.7050	19.0060
 0.7060	19.9310
 0.7070	20.8650
 0.7080	21.8010
 0.7090	22.7320
 0.7100	23.6630
 0.7110	24.5910
 0.7120	25.5140
 0.7130	26.4290
 0.7140	27.3340
 0.7150	28.2320
 0.7160	29.1210
 0.7170	29.9890
 0.7180	30.8410
 0.7190	31.6770
 0.7200	32.4970
 0.7210	33.2970
 0.7220	34.0760
 0.7230	34.8340
 0.7240	35.5670
 0.7250	36.2660
 0.7260	36.9390
 0.7270	37.5910
 0.7280	38.2140
 0.7290	38.8080
 0.7300	39.3720
 0.7310	39.9030
 0.7320	40.4140
 0.7330	40.8940
 0.7340	41.3430
 0.7350	41.7700
 0.7360	42.1780
 0.7370	42.5580
 0.7380	42.9060
 0.7390	43.2390
 0.7400	43.5480
 0.7410	43.8340
 0.7420	44.1010
 0.7430	44.3520
 0.7440	44.5790
 0.7450	44.7880
 0.7460	44.9890
 0.7470	45.1630
 0.7480	45.3200
 0.7490	45.4700
 0.7500	45.6020
 0.7510	45.7220
 0.7520	45.8330
 0.7530	45.9360
 0.7540	46.0290
 0.7550	46.1100
 0.7560	46.1830
 0.7570	46.2520
 0.7580	46.3140
 0.7590	46.3690
 0.7600	46.4190
 0.7610	46.4720
 0.7620	46.5180
 0.7630	46.5530
 0.7640	46.5800
 0.7650	46.6150
 0.7660	46.6430
 0.7670	46.6650
 0.7680	46.6950
 0.7690	46.7150
 0.7700	46.7320
 0.7710	46.7500
 0.7720	46.7670
 0.7730	46.7820
 0.7740	46.7990
 0.7750	46.8190
 0.7760	46.8360
 0.7770	46.8530
 0.7780	46.8680
 0.7790	46.8780
 0.7800	46.8940
 0.7810	46.9090
 0.7820	46.9200
 0.7830	46.9320
 0.7840	46.9460
 0.7850	46.9630
 0.7860	46.9820
 0.7870	46.9920
 0.7880	47.0010
 0.7890	47.0120
 0.7900	47.0280
 0.7910	47.0370
 0.7920	47.0440
 0.7930	47.0530
 0.7940	47.0660
 0.7950	47.0740
 0.7960	47.0820
 0.7970	47.0920
 0.7980	47.0930
 0.7990	47.0990
 0.8000	47.1050
 0.8010	47.1070
 0.8020	47.1140
 0.8030	47.1160
 0.8040	47.1150
 0.8050	47.1170
 0.8060	47.1210
 0.8070	47.1230
 0.8080	47.1200
 0.8090	47.1150
 0.8100	47.1180
 0.8110	47.1180
 0.8120	47.1130
 0.8130	47.1110
 0.8140	47.1050
 0.8150	47.0980
 0.8160	47.0920
 0.8170	47.0950
 0.8180	47.0890
 0.8190	47.0760
 0.8200	47.0720
 0.8210	47.0690
 0.8220	47.0610
 0.8230	47.0500
 0.8240	47.0450
 0.8250	47.0350
 0.8260	47.0250
 0.8270	47.0150
 0.8280	47.0000
 0.8290	46.9870
 0.8300	46.9810
 0.8310	46.9790
 0.8320	46.9620
 0.8330	46.9470
 0.8340	46.9380
 0.8350	46.9350
 0.8360	46.9260
 0.8370	46.9160
 0.8380	46.9090
 0.8390	46.9060
 0.8400	46.8990
 0.8410	46.8930
 0.8420	46.8890
 0.8430	46.8830
 0.8440	46.8790
 0.8450	46.8780
 0.8460	46.8770
 0.8470	46.8710
 0.8480	46.8690
 0.8490	46.8650
 0.8500	46.8560
 0.8510	46.8540
 0.8520	46.8510
 0.8530	46.8500
 0.8540	46.8540
 0.8550	46.8550
 0.8560	46.8570
 0.8570	46.8570
 0.8580	46.8490
 0.8590	46.8500
 0.8600	46.8580
 0.8610	46.8650
 0.8620	46.8560
 0.8630	46.8550
 0.8640	46.8590
 0.8650	46.8590
 0.8660	46.8560
 0.8670	46.8640
 0.8680	46.8730
 0.8690	46.8730
 0.8700	46.8690
 0.8710	46.8730
 0.8720	46.8820
 0.8730	46.8870
 0.8740	46.8850
 0.8750	46.8830
 0.8760	46.8870
 0.8770	46.8980
 0.8780	46.9060
 0.8790	46.9080
 0.8800	46.9050
 0.8810	46.9100
 0.8820	46.9200
 0.8830	46.9250
 0.8840	46.9240
 0.8850	46.9340
 0.8860	46.9350
 0.8870	46.9340
 0.8880	46.9420
 0.8890	46.9450
 0.8900	46.9440
 0.8910	46.9470
 0.8920	46.9600
 0.8930	46.9650
 0.8940	46.9660
 0.8950	46.9650
 0.8960	46.9640
 0.8970	46.9740
 0.8980	46.9820
 0.8990	46.9820
 0.9000	46.9850
 0.9010	46.9940
 0.9020	47.0010
 0.9030	46.9990
 0.9040	46.9950
 0.9050	46.9980
 0.9060	47.0020
 0.9070	47.0030
 0.9080	47.0090
 0.9090	47.0130
 0.9100	47.0180
 0.9110	47.0240
 0.9120	47.0180
 0.9130	47.0240
 0.9140	47.0310
 0.9150	47.0240
 0.9160	47.0160
 0.9170	47.0080
 0.9180	47.0100
 0.9190	47.0270
 0.9200	47.0230
 0.9210	47.0190
 0.9220	47.0140
 0.9230	47.0000
 0.9240	47.0080
 0.9250	47.0040
 0.9260	46.9860
 0.9270	46.9720
 0.9280	46.9580
 0.9290	46.9490
 0.9300	46.9420
 0.9310	46.9250
 0.9320	46.9050
 0.9330	46.8820
 0.9340	46.8610
 0.9350	46.8490
 0.9360	46.8250
 0.9370	46.7960
 0.9380	46.7720
 0.9390	46.7580
 0.9400	46.7270
 0.9410	46.6930
 0.9420	46.6640
 0.9430	46.6350
 0.9440	46.6040
 0.9450	46.5680
 0.9460	46.5240
 0.9470	46.4840
 0.9480	46.4350
 0.9490	46.3820
 0.9500	46.3300
 0.9510	46.2740
 0.9520	46.2110
 0.9530	46.1490
 0.9540	46.0910
 0.9550	46.0290
 0.9560	45.9740
 0.9570	45.9120
 0.9580	45.8330
 0.9590	45.7650
 0.9600	45.7150
 0.9610	45.6730
 0.9620	45.6320
 0.9630	45.6120
 0.9640	45.5660
 0.9650	45.5150
 0.9660	45.4920
 0.9670	45.4670
 0.9680	45.4420
 0.9690	45.4250
 0.9700	45.4170
 0.9710	45.3890
 0.9720	45.3560
 0.9730	45.3380
 0.9740	45.3480
 0.9750	45.3490
 0.9760	45.3330
 0.9770	45.3150
 0.9780	45.3110
 0.9790	45.3050
 0.9800	45.3040
 0.9810	45.3060
 0.9820	45.3060
 0.9830	45.3060
 0.9840	45.3080
 0.9850	45.3140
 0.9860	45.3210
 0.9870	45.3240
 0.9880	45.3260
 0.9890	45.3330
 0.9900	45.3480
 0.9910	45.3520
 0.9920	45.3740
 0.9930	45.3970
 0.9940	45.4190
 0.9950	45.4410
 0.9960	45.4640
 0.9970	45.4860
 0.9980	45.5080
 0.9990	45.5300
 1.0000	45.5530
 1.0010	45.5750
 1.0020	45.5970
 1.0030	45.6200
 1.0040	45.6420
 1.0050	45.6640
 1.0060	45.6860
 1.0070	45.7090
 1.0080	45.7310
 1.0090	45.7530
 1.0100	45.7530
 1.0110	45.7720
 1.0120	45.7920
 1.0130	45.8130
 1.0140	45.8330
 1.0150	45.8540
 1.0160	45.8720
 1.0170	45.8900
 1.0180	45.9130
 1.0190	45.9310
 1.0200	45.9490
 1.0210	45.9690
 1.0220	45.9870
 1.0230	46.0030
 1.0240	46.0200
 1.0250	46.0370
 1.0260	46.0540
 1.0270	46.0700
 1.0280	46.0890
 1.0290	46.1070
 1.0300	46.1230
 1.0310	46.1380
 1.0320	46.1530
 1.0330	46.1690
 1.0340	46.1840
 1.0350	46.1940
 1.0360	46.2060
 1.0370	46.2200
 1.0380	46.2320
 1.0390	46.2450
 1.0400	46.2550
 1.0410	46.2640
 1.0420	46.2750
 1.0430	46.2860
 1.0440	46.2970
 1.0450	46.3090
 1.0460	46.3200
 1.0470	46.3270
 1.0480	46.3380
 1.0490	46.3530
 1.0500	46.3630
 1.0510	46.3720
 1.0520	46.3790
 1.0530	46.3860
 1.0540	46.3900
 1.0550	46.3960
 1.0560	46.4040
 1.0570	46.4120
 1.0580	46.4190
 1.0590	46.4250
 1.0600	46.4310
 1.0610	46.4370
 1.0620	46.4420
 1.0630	46.4460
 1.0640	46.4470
 1.0650	46.4530
 1.0660	46.4640
 1.0670	46.4680
 1.0680	46.4710
 1.0690	46.4760
 1.0700	46.4780
 1.0710	46.4740
 1.0720	46.4750
 1.0730	46.4800
 1.0740	46.4840
 1.0750	46.4890
 1.0760	46.4900
 1.0770	46.4920
 1.0780	46.4910
 1.0790	46.4840
 1.0800	46.4820
 1.0810	46.4850
 1.0820	46.4830
 1.0830	46.4820
 1.0840	46.4810
 1.0850	46.4770
 1.0860	46.4710
 1.0870	46.4650
 1.0880	46.4580
 1.0890	46.4530
 1.0900	46.4470
 1.0910	46.4400
 1.0920	46.4350
 1.0930	46.4270
 1.0940	46.4170
 1.0950	46.4080
 1.0960	46.3980
 1.0970	46.3880
 1.0980	46.3790
 1.0990	46.3670
 1.1000	46.3540
 1.1010	46.3410
 1.1020	46.3250
 1.1030	46.3090
 1.1040	46.2990
 1.1050	46.2850
 1.1060	46.2700
 1.1070	46.2570
 1.1080	46.2410
 1.1090	46.2230
 1.1100	46.2050
 1.1110	46.1860
 1.1120	46.1670
 1.1130	46.1450
 1.1140	46.1240
 1.1150	46.1050
 1.1160	46.0810
 1.1170	46.0560
 1.1180	46.0280
 1.1190	45.9960
 1.1200	45.9600
 1.1210	45.9230
 1.1220	45.8830
 1.1230	45.8430
 1.1240	45.8010
 1.1250	45.7520
 1.1260	45.7010
 1.1270	45.6430
 1.1280	45.5780
 1.1290	45.5100
 1.1300	45.4410
 1.1310	45.3630
 1.1320	45.2810
 1.1330	45.1920
 1.1340	45.0950
 1.1350	44.9920
 1.1360	44.8810
 1.1370	44.7640
 1.1380	44.6420
 1.1390	44.5170
 1.1400	44.3900
 1.1410	44.2600
 1.1420	44.1240
 1.1430	43.9860
 1.1440	43.8490
 1.1450	43.7080
 1.1460	43.5710
 1.1470	43.4340
 1.1480	43.3020
 1.1490	43.1670
 1.1500	43.0450
 1.1510	42.9290
 1.1520	42.8210
 1.1530	42.7210
 1.1540	42.6280
 1.1550	42.5420
 1.1560	42.4640
 1.1570	42.3920
 1.1580	42.3290
 1.1590	42.2730
 1.1600	42.2220
 1.1610	42.1790
 1.1620	42.1430
 1.1630	42.1100
 1.1640	42.0810
 1.1650	42.0550
 1.1660	42.0340
 1.1670	42.0160
 1.1680	42.0030
 1.1690	41.9900
 1.1700	41.9800
 1.1710	41.9700
 1.1720	41.9610
 1.1730	41.9520
 1.1740	41.9450
 1.1750	41.9380
 1.1760	41.9290
 1.1770	41.9220
 1.1780	41.9130
 1.1790	41.9030
 1.1800	41.8930
 1.1810	41.8790
 1.1820	41.8670
 1.1830	41.8560
 1.1840	41.8430
 1.1850	41.8340
 1.1860	41.8240
 1.1870	41.8130
 1.1880	41.8040
 1.1890	41.7960
 1.1900	41.7900
 1.1910	41.7860
 1.1920	41.7840
 1.1930	41.7850
 1.1940	41.7850
 1.1950	41.7840
 1.1960	41.7840
 1.1970	41.7870
 1.1980	41.7910
 1.1990	41.7940
 1.2000	41.8010
 1.2010	41.8070
 1.2020	41.8150
 1.2030	41.8240
 1.2040	41.8360
 1.2050	41.8470
 1.2060	41.8580
 1.2070	41.8730
 1.2080	41.8890
 1.2090	41.9050
 1.2100	41.9210
 1.2110	41.9380
 1.2120	41.9540
 1.2130	41.9730
 1.2140	41.9930
 1.2150	42.0130
 1.2160	42.0340
 1.2170	42.0560
 1.2180	42.0750
 1.2190	42.0930
 1.2200	42.1130
 1.2210	42.1330
 1.2220	42.1530
 1.2230	42.1740
 1.2240	42.1950
 1.2250	42.2140
 1.2260	42.2330
 1.2270	42.2510
 1.2280	42.2690
 1.2290	42.2870
 1.2300	42.3040
 1.2310	42.3210
 1.2320	42.3380
 1.2330	42.3540
 1.2340	42.3690
 1.2350	42.3860
 1.2360	42.4020
 1.2370	42.4190
 1.2380	42.4340
 1.2390	42.4470
 1.2400	42.4600
 1.2410	42.4710
 1.2420	42.4820
 1.2430	42.4940
 1.2440	42.5050
 1.2450	42.5160
 1.2460	42.5260
 1.2470	42.5370
 1.2480	42.5460
 1.2490	42.5560
 1.2500	42.5650
 1.2510	42.5720
 1.2520	42.5800
 1.2530	42.5870
 1.2540	42.5920
 1.2550	42.5970
 1.2560	42.6000
 1.2570	42.6030
 1.2580	42.6050
 1.2590	42.6050
 1.2600	42.6050
 1.2610	42.6040
 1.2620	42.6020
 1.2630	42.6000
 1.2640	42.5980
 1.2650	42.5950
 1.2660	42.5890
 1.2670	42.5830
 1.2680	42.5770
 1.2690	42.5700
 1.2700	42.5630
 1.2710	42.5510
 1.2720	42.5380
 1.2730	42.5250
 1.2740	42.5130
 1.2750	42.4990
 1.2760	42.4840
 1.2770	42.4680
 1.2780	42.4500
 1.2790	42.4330
 1.2800	42.4170
 1.2810	42.3990
 1.2820	42.3790
 1.2830	42.3580
 1.2840	42.3360
 1.2850	42.3140
 1.2860	42.2910
 1.2870	42.2660
 1.2880	42.2380
 1.2890	42.2080
 1.2900	42.1770
 1.2910	42.1440
 1.2920	42.1090
 1.2930	42.0730
 1.2940	42.0370
 1.2950	42.0000
 1.2960	41.9610
 1.2970	41.9210
 1.2980	41.8790
 1.2990	41.8330
 1.3000	41.7870
 1.3010	41.7370
 1.3020	41.6820
 1.3030	41.6260
 1.3040	41.5680
 1.3050	41.5080
 1.3060	41.4480
 1.3070	41.3840
 1.3080	41.3180
 1.3090	41.2480
 1.3100	41.1720
 1.3110	41.0910
 1.3120	41.0080
 1.3130	40.9230
 1.3140	40.8340
 1.3150	40.7400
 1.3160	40.6450
 1.3170	40.5470
 1.3180	40.4460
 1.3190	40.3440
 1.3200	40.2380
 1.3210	40.1290
 1.3220	40.0170
 1.3230	39.8990
 1.3240	39.7780
 1.3250	39.6560
 1.3260	39.5310
 1.3270	39.4040
 1.3280	39.2760
 1.3290	39.1420
 1.3300	39.0060
 1.3310	38.8700
 1.3320	38.7290
 1.3330	38.5880
 1.3340	38.4470
 1.3350	38.3030
 1.3360	38.1590
 1.3370	38.0130
 1.3380	37.8680
 1.3390	37.7230
 1.3400	37.5770
 1.3410	37.4350
 1.3420	37.2920
 1.3430	37.1500
 1.3440	37.0080
 1.3450	36.8670
 1.3460	36.7260
 1.3470	36.5890
 1.3480	36.4530
 1.3490	36.3190
 1.3500	36.1880
 1.3510	36.0550
 1.3520	35.9220
 1.3530	35.7910
 1.3540	35.6590
 1.3550	35.5280
 1.3560	35.3980
 1.3570	35.2650
 1.3580	35.1330
 1.3590	35.0010
 1.3600	34.8650
 1.3610	34.7280
 1.3620	34.5850
 1.3630	34.4380
 1.3640	34.2850
 1.3650	34.1240
 1.3660	33.9600
 1.3670	33.7870
 1.3680	33.6060
 1.3690	33.4170
 1.3700	33.2140
 1.3710	32.9990
 1.3720	32.7720
 1.3730	32.5270
 1.3740	32.2720
 1.3750	32.0010
 1.3760	31.7080
 1.3770	31.3980
 1.3780	31.0650
 1.3790	30.7120
 1.3800	30.3410
 1.3810	29.9490
 1.3820	29.5400
 1.3830	29.1130
 1.3840	28.6690
 1.3850	28.2080
 1.3860	27.7360
 1.3870	27.2440
 1.3880	26.7520
 1.3890	26.2490
 1.3900	25.7380
 1.3910	25.2290
 1.3920	24.7130
 1.3930	24.1930
 1.3940	23.6770
 1.3950	23.1590
 1.3960	22.6500
 1.3970	22.1520
 1.3980	21.6640
 1.3990	21.1940
 1.4000	20.7380
 1.4010	20.2930
 1.4020	19.8680
 1.4030	19.4570
 1.4040	19.0660
 1.4050	18.6950
 1.4060	18.3420
 1.4070	18.0110
 1.4080	17.7000
 1.4090	17.4070
 1.4100	17.1350
 1.4110	16.8790
 1.4120	16.6410
 1.4130	16.4200
 1.4140	16.2150
 1.4150	16.0290
 1.4160	15.8570
 1.4170	15.6980
 1.4180	15.5540
 1.4190	15.4200
 1.4200	15.2980
 1.4210	15.1870
 1.4220	15.0850
 1.4230	14.9950
 1.4240	14.9130
 1.4250	14.8390
 1.4260	14.7730
 1.4270	14.7140
 1.4280	14.6630
 1.4290	14.6160
 1.4300	14.5770
 1.4310	14.5430
 1.4320	14.5140
 1.4330	14.4900
 1.4340	14.4700
 1.4350	14.4540
 1.4360	14.4420
 1.4370	14.4350
 1.4380	14.4300
 1.4390	14.4290
 1.4400	14.4300
 1.4410	14.4330
 1.4420	14.4380
 1.4430	14.4460
 1.4440	14.4550
 1.4450	14.4670
 1.4460	14.4800
 1.4470	14.4940
 1.4480	14.5090
 1.4490	14.5250
 1.4500	14.5430
 1.4510	14.5620
 1.4520	14.5810
 1.4530	14.6020
 1.4540	14.6250
 1.4550	14.6480
 1.4560	14.6730
 1.4570	14.7010
 1.4580	14.7280
 1.4590	14.7580
 1.4600	14.7930
 1.4610	14.8300
 1.4620	14.8710
 1.4630	14.9160
 1.4640	14.9620
 1.4650	15.0120
 1.4660	15.0670
 1.4670	15.1240
 1.4680	15.1880
 1.4690	15.2550
 1.4700	15.3250
 1.4710	15.4000
 1.4720	15.4760
 1.4730	15.5560
 1.4740	15.6390
 1.4750	15.7250
 1.4760	15.8140
 1.4770	15.9040
 1.4780	15.9960
 1.4790	16.0910
 1.4800	16.1870
 1.4810	16.2850
 1.4820	16.3850
 1.4830	16.4840
 1.4840	16.5840
 1.4850	16.6850
 1.4860	16.7860
 1.4870	16.8880
 1.4880	16.9910
 1.4890	17.0930
 1.4900	17.1960
 1.4910	17.3010
 1.4920	17.4050
 1.4930	17.5090
 1.4940	17.6140
 1.4950	17.7190
 1.4960	17.8230
 1.4970	17.9270
 1.4980	18.0310
 1.4990	18.1350
 1.5000	18.2400
 1.5010	18.3460
 1.5020	18.4510
 1.5030	18.5550
 1.5040	18.6590
 1.5050	18.7610
 1.5060	18.8640
 1.5070	18.9670
 1.5080	19.0700
 1.5090	19.1720
 1.5100	19.2740
 1.5110	19.3760
 1.5120	19.4760
 1.5130	19.5750
 1.5140	19.6750
 1.5150	19.7740
 1.5160	19.8730
 1.5170	19.9720
 1.5180	20.0710
 1.5190	20.1670
 1.5200	20.2640
 1.5210	20.3580
 1.5220	20.4510
 1.5230	20.5450
 1.5240	20.6370
 1.5250	20.7300
 1.5260	20.8220
 1.5270	20.9140
 1.5280	21.0050
 1.5290	21.0940
 1.5300	21.1830
 1.5310	21.2710
 1.5320	21.3570
 1.5330	21.4440
 1.5340	21.5290
 1.5350	21.6140
 1.5360	21.7000
 1.5370	21.7830
 1.5380	21.8660
 1.5390	21.9480
 1.5400	22.0280
 1.5410	22.1070
 1.5420	22.1850
 1.5430	22.2620
 1.5440	22.3410
 1.5450	22.4180
 1.5460	22.4950
 1.5470	22.5730
 1.5480	22.6480
 1.5490	22.7240
 1.5500	22.7980
 1.5510	22.8700
 1.5520	22.9430
 1.5530	23.0140
 1.5540	23.0840
 1.5550	23.1530
 1.5560	23.2200
 1.5570	23.2880
 1.5580	23.3550
 1.5590	23.4230
 1.5600	23.4900
 1.5610	23.5540
 1.5620	23.6190
 1.5630	23.6820
 1.5640	23.7440
 1.5650	23.8070
 1.5660	23.8680
 1.5670	23.9270
 1.5680	23.9870
 1.5690	24.0460
 1.5700	24.1050
 1.5710	24.1640
 1.5720	24.2220
 1.5730	24.2810
 1.5740	24.3380
 1.5750	24.3940
 1.5760	24.4500
 1.5770	24.5060
 1.5780	24.5610
 1.5790	24.6170
 1.5800	24.6720
 1.5810	24.7260
 1.5820	24.7810
 1.5830	24.8340
 1.5840	24.8870
 1.5850	24.9390
 1.5860	24.9910
 1.5870	25.0430
 1.5880	25.0950
 1.5890	25.1470
 1.5900	25.1990
 1.5910	25.2490
 1.5920	25.2990
 1.5930	25.3480
 1.5940	25.3950
 1.5950	25.4420
 1.5960	25.4890
 1.5970	25.5370
 1.5980	25.5830
 1.5990	25.6290
 1.6000	25.6760
 1.6010	25.7210
 1.6020	25.7670
 1.6030	25.8120
 1.6040	25.8550
 1.6050	25.8980
 1.6060	25.9400
 1.6070	25.9830
 1.6080	26.0260
 1.6090	26.0670
 1.6100	26.1090
 1.6110	26.1500
 1.6120	26.1880
 1.6130	26.2260
 1.6140	26.2630
 1.6150	26.2980
 1.6160	26.3340
 1.6170	26.3700
 1.6180	26.4050
 1.6190	26.4390
 1.6200	26.4730
 1.6210	26.5060
 1.6220	26.5380
 1.6230	26.5710
 1.6240	26.6040
 1.6250	26.6340
 1.6260	26.6640
 1.6270	26.6940
 1.6280	26.7230
 1.6290	26.7510
 1.6300	26.7780
 1.6310	26.8050
 1.6320	26.8310
 1.6330	26.8560
 1.6340	26.8810
 1.6350	26.9030
 1.6360	26.9240
 1.6370	26.9440
 1.6380	26.9630
 1.6390	26.9790
 1.6400	26.9920
 1.6410	27.0040
 1.6420	27.0150
 1.6430	27.0230
 1.6440	27.0300
 1.6450	27.0340
 1.6460	27.0360
 1.6470	27.0370
 1.6480	27.0350
 1.6490	27.0310
 1.6500	27.0260
 1.6510	27.0190
 1.6520	27.0100
 1.6530	26.9990
 1.6540	26.9880
 1.6550	26.9760
 1.6560	26.9640
 1.6570	26.9550
 1.6580	26.9450
 1.6590	26.9340
 1.6600	26.9250
 1.6610	26.9160
 1.6620	26.9080
 1.6630	26.9030
 1.6640	26.8990
 1.6650	26.8960
 1.6660	26.8940
 1.6670	26.8930
 1.6680	26.8910
 1.6690	26.8900
 1.6700	26.8890
 1.6710	26.8880
 1.6720	26.8870
 1.6730	26.8860
 1.6740	26.8850
 1.6750	26.8850
 1.6760	26.8830
 1.6770	26.8800
 1.6780	26.8750
 1.6790	26.8660
 1.6800	26.8550
 1.6810	26.8450
 1.6820	26.8330
 1.6830	26.8190
 1.6840	26.8030
 1.6850	26.7850
 1.6860	26.7650
 1.6870	26.7440
 1.6880	26.7210
 1.6890	26.6960
 1.6900	26.6700
 1.6910	26.6400
 1.6920	26.6140
 1.6930	26.5900
 1.6940	26.5640
 1.6950	26.5410
 1.6960	26.5150
 1.6970	26.4890
 1.6980	26.4610
 1.6990	26.4310
 1.7000	26.4010
 1.7010	26.3690
 1.7020	26.3370
 1.7030	26.3050
 1.7040	26.2730
 1.7050	26.2400
 1.7060	26.2060
 1.7070	26.1710
 1.7080	26.1350
 1.7090	26.0980
 1.7100	26.0590
 1.7110	26.0190
 1.7120	25.9780
 1.7130	25.9360
 1.7140	25.8950
 1.7150	25.8530
 1.7160	25.8110
 1.7170	25.7680
 1.7180	25.7240
 1.7190	25.6790
 1.7200	25.6330
 1.7210	25.5870
 1.7220	25.5390
 1.7230	25.4910
 1.7240	25.4420
 1.7250	25.3940
 1.7260	25.3460
 1.7270	25.2970
 1.7280	25.2510
 1.7290	25.2050
 1.7300	25.1590
 1.7310	25.1140
 1.7320	25.0670
 1.7330	25.0220
 1.7340	24.9760
 1.7350	24.9310
 1.7360	24.8860
 1.7370	24.8420
 1.7380	24.7990
 1.7390	24.7550
 1.7400	24.7100
 1.7410	24.6640
 1.7420	24.6160
 1.7430	24.5710
 1.7440	24.5270
 1.7450	24.4810
 1.7460	24.4360
 1.7470	24.3920
 1.7480	24.3480
 1.7490	24.3030
 1.7500	24.2600
 1.7510	24.2160
 1.7520	24.1700
 1.7530	24.1250
 1.7540	24.0810
 1.7550	24.0370
 1.7560	23.9910
 1.7570	23.9460
 1.7580	23.9010
 1.7590	23.8530
 1.7600	23.8090
 1.7610	23.7640
 1.7620	23.7210
 1.7630	23.6800
 1.7640	23.6390
 1.7650	23.5990
 1.7660	23.5590
 1.7670	23.5210
 1.7680	23.4830
 1.7690	23.4460
 1.7700	23.4090
 1.7710	23.3730
 1.7720	23.3370
 1.7730	23.3020
 1.7740	23.2680
 1.7750	23.2320
 1.7760	23.2000
 1.7770	23.1710
 1.7780	23.1410
 1.7790	23.1120
 1.7800	23.0840
 1.7810	23.0560
 1.7820	23.0310
 1.7830	23.0080
 1.7840	22.9860
 1.7850	22.9670
 1.7860	22.9470
 1.7870	22.9290
 1.7880	22.9120
 1.7890	22.8960
 1.7900	22.8830
 1.7910	22.8720
 1.7920	22.8620
 1.7930	22.8530
 1.7940	22.8440
 1.7950	22.8380
 1.7960	22.8340
 1.7970	22.8300
 1.7980	22.8270
 1.7990	22.8250
 1.8000	22.8210
 1.8010	22.8190
 1.8020	22.8200
 1.8030	22.8200
 1.8040	22.8220
 1.8050	22.8230
 1.8060	22.8240
 1.8070	22.8230
 1.8080	22.8210
 1.8090	22.8200
 1.8100	22.8190
 1.8110	22.8170
 1.8120	22.8160
 1.8130	22.8120
 1.8140	22.8090
 1.8150	22.8060
 1.8160	22.8010
 1.8170	22.7990
 1.8180	22.7960
 1.8190	22.7950
 1.8200	22.7900
 1.8210	22.7850
 1.8220	22.7790
 1.8230	22.7710
 1.8240	22.7610
 1.8250	22.7500
 1.8260	22.7390
 1.8270	22.7500
 1.8280	22.7610
 1.8290	22.7730
 1.8300	22.7840
 1.8310	22.7950
 1.8320	22.8060
 1.8330	22.8170
 1.8340	22.8280
 1.8350	22.8280
 1.8360	22.7940
 1.8370	22.7570
 1.8380	22.7170
 1.8390	22.6730
 1.8400	22.6260
 1.8410	22.5700
 1.8420	22.5070
 1.8430	22.4430
 1.8440	22.3740
 1.8450	22.2990
 1.8460	22.2220
 1.8470	22.1370
 1.8480	22.0420
 1.8490	21.9390
 1.8500	21.8260
 1.8510	21.7050
 1.8520	21.5740
 1.8530	21.4330
 1.8540	21.2840
 1.8550	21.1260
 1.8560	20.9550
 1.8570	20.7720
 1.8580	20.5760
 1.8590	20.3730
 1.8600	20.1590
 1.8610	19.9340
 1.8620	19.6970
 1.8630	19.4510
 1.8640	19.1880
 1.8650	18.9060
 1.8660	18.6140
 1.8670	18.3040
 1.8680	17.9760
 1.8690	17.6370
 1.8700	17.2820
 1.8710	16.9120
 1.8720	16.5320
 1.8730	16.1470
 1.8740	15.7510
 1.8750	15.3480
 1.8760	14.9390
 1.8770	14.5280
 1.8780	14.1170
 1.8790	13.7080
 1.8800	13.3080
 1.8810	12.9140
 1.8820	12.5190
 1.8830	12.1260
 1.8840	11.7410
 1.8850	11.3580
 1.8860	10.9860
 1.8870	10.6270
 1.8880	10.2800
 1.8890	 9.9510
 1.8900	 9.6390
 1.8910	 9.3430
 1.8920	 9.0630
 1.8930	 8.8020
 1.8940	 8.5580
 1.8950	 8.3330
 1.8960	 8.1270
 1.8970	 7.9370
 1.8980	 7.7650
 1.8990	 7.6070
 1.9000	 7.4600
 1.9010	 7.3290
 1.9020	 7.2080
 1.9030	 7.1000
 1.9040	 7.0040
 1.9050	 6.9230
 1.9060	 6.8490
 1.9070	 6.7850
 1.9080	 6.7270
 1.9090	 6.6750
 1.9100	 6.6310
 1.9110	 6.5910
 1.9120	 6.5610
 1.9130	 6.5310
 1.9140	 6.5060
 1.9150	 6.4840
 1.9160	 6.4640
 1.9170	 6.4470
 1.9180	 6.4330
 1.9190	 6.4210
 1.9200	 6.4140
 1.9210	 6.4090
 1.9220	 6.4040
 1.9230	 6.4040
 1.9240	 6.4010
 1.9250	 6.3980
 1.9260	 6.3960
 1.9270	 6.3960
 1.9280	 6.3950
 1.9290	 6.3980
 1.9300	 6.4030
 1.9310	 6.4090
 1.9320	 6.4180
 1.9330	 6.4260
 1.9340	 6.4350
 1.9350	 6.4460
 1.9360	 6.4560
 1.9370	 6.4680
 1.9380	 6.4810
 1.9390	 6.4940
 1.9400	 6.5080
 1.9410	 6.5230
 1.9420	 6.5390
 1.9430	 6.5560
 1.9440	 6.5750
 1.9450	 6.5970
 1.9460	 6.6180
 1.9470	 6.6400
 1.9480	 6.6620
 1.9490	 6.6850
 1.9500	 6.7050
 1.9510	 6.7270
 1.9520	 6.7510
 1.9530	 6.7760
 1.9540	 6.8020
 1.9550	 6.8280
 1.9560	 6.8540
 1.9570	 6.8800
 1.9580	 6.9050
 1.9590	 6.9330
 1.9600	 6.9630
 1.9610	 6.9930
 1.9620	 7.0250
 1.9630	 7.0570
 1.9640	 7.0900
 1.9650	 7.1220
 1.9660	 7.1530
 1.9670	 7.1870
 1.9680	 7.2210
 1.9690	 7.2540
 1.9700	 7.2890
 1.9710	 7.3250
 1.9720	 7.3630
 1.9730	 7.4010
 1.9740	 7.4420
 1.9750	 7.4830
 1.9760	 7.5240
 1.9770	 7.5660
 1.9780	 7.6060
 1.9790	 7.6470
 1.9800	 7.6880
 1.9810	 7.7300
 1.9820	 7.7720
 1.9830	 7.8150
 1.9840	 7.8600
 1.9850	 7.9060
 1.9860	 7.9520
 1.9870	 7.9980
 1.9880	 8.0450
 1.9890	 8.0890
 1.9900	 8.1340
 1.9910	 8.1830
 1.9920	 8.2320
 1.9930	 8.2840
 1.9940	 8.3330
 1.9950	 8.3840
 1.9960	 8.4330
 1.9970	 8.4800
 1.9980	 8.5290
 1.9990	 8.5780
 2.0000	 8.6270
 2.0010	 8.6790
 2.0020	 8.7320
 2.0030	 8.7830
 2.0040	 8.8330
 2.0050	 8.8840
 2.0060	 8.9350
 2.0070	 8.9850
 2.0080	 9.0360
 2.0090	 9.0860
 2.0100	 9.1350
 2.0110	 9.1840
 2.0120	 9.2330
 2.0130	 9.2810
 2.0140	 9.3290
 2.0150	 9.3780
 2.0160	 9.4260
 2.0170	 9.4740
 2.0180	 9.5230
 2.0190	 9.5720
 2.0200	 9.6190
 2.0210	 9.6640
 2.0220	 9.7100
 2.0230	 9.7530
 2.0240	 9.7970
 2.0250	 9.8420
 2.0260	 9.8840
 2.0270	 9.9240
 2.0280	 9.9640
 2.0290	10.0020
 2.0300	10.0430
 2.0310	10.0820
 2.0320	10.1210
 2.0330	10.1580
 2.0340	10.1930
 2.0350	10.2280
 2.0360	10.2620
 2.0370	10.2970
 2.0380	10.3340
 2.0390	10.3680
 2.0400	10.4000
 2.0410	10.4330
 2.0420	10.4640
 2.0430	10.4940
 2.0440	10.5260
 2.0450	10.5600
 2.0460	10.5900
 2.0470	10.6180
 2.0480	10.6460
 2.0490	10.6690
 2.0500	10.6950
 2.0510	10.7250
 2.0520	10.7510
 2.0530	10.7770
 2.0540	10.8040
 2.0550	10.8300
 2.0560	10.8550
 2.0570	10.8800
 2.0580	10.9080
 2.0590	10.9360
 2.0600	10.9640
 2.0610	10.9930
 2.0620	11.0240
 2.0630	11.0540
 2.0640	11.0830
 2.0650	11.1120
 2.0660	11.1420
 2.0670	11.1700
 2.0680	11.1970
 2.0690	11.2260
 2.0700	11.2570
 2.0710	11.2850
 2.0720	11.3120
 2.0730	11.3420
 2.0740	11.3680
 2.0750	11.3900
 2.0760	11.4150
 2.0770	11.4410
 2.0780	11.4670
 2.0790	11.4950
 2.0800	11.5200
 2.0810	11.5450
 2.0820	11.5690
 2.0830	11.5920
 2.0840	11.6170
 2.0850	11.6430
 2.0860	11.6680
 2.0870	11.6940
 2.0880	11.7210
 2.0890	11.7450
 2.0900	11.7690
 2.0910	11.7920
 2.0920	11.8140
 2.0930	11.8360
 2.0940	11.8560
 2.0950	11.8780
 2.0960	11.8990
 2.0970	11.9220
 2.0980	11.9470
 2.0990	11.9700
 2.1000	11.9920
 2.1010	12.0130
 2.1020	12.0300
 2.1030	12.0490
 2.1040	12.0680
 2.1050	12.0880
 2.1060	12.1090
 2.1070	12.1310
 2.1080	12.1520
 2.1090	12.1740
 2.1100	12.1930
 2.1110	12.2090
 2.1120	12.2280
 2.1130	12.2460
 2.1140	12.2650
 2.1150	12.2850
 2.1160	12.3030
 2.1170	12.3200
 2.1180	12.3370
 2.1190	12.3550
 2.1200	12.3720
 2.1210	12.3890
 2.1220	12.4050
 2.1230	12.4210
 2.1240	12.4360
 2.1250	12.4520
 2.1260	12.4680
 2.1270	12.4850
 2.1280	12.5020
 2.1290	12.5190
 2.1300	12.5370
 2.1310	12.5530
 2.1320	12.5690
 2.1330	12.5840
 2.1340	12.5970
 2.1350	12.6110
 2.1360	12.6260
 2.1370	12.6400
 2.1380	12.6560
 2.1390	12.6710
 2.1400	12.6880
 2.1410	12.7030
 2.1420	12.7180
 2.1430	12.7340
 2.1440	12.7500
 2.1450	12.7650
 2.1460	12.7810
 2.1470	12.7960
 2.1480	12.8120
 2.1490	12.8260
 2.1500	12.8430
 2.1510	12.8610
 2.1520	12.8790
 2.1530	12.8980
 2.1540	12.9190
 2.1550	12.9410
 2.1560	12.9620
 2.1570	12.9840
 2.1580	13.0040
 2.1590	13.0230
 2.1600	13.0400
 2.1610	13.0570
 2.1620	13.0760
 2.1630	13.0930
 2.1640	13.1090
 2.1650	13.1260
 2.1660	13.1430
 2.1670	13.1590
 2.1680	13.1750
 2.1690	13.1920
 2.1700	13.2100
 2.1710	13.2260
 2.1720	13.2420
 2.1730	13.2590
 2.1740	13.2720
 2.1750	13.2880
 2.1760	13.3060
 2.1770	13.3240
 2.1780	13.3440
 2.1790	13.3620
 2.1800	13.3790
 2.1810	13.3970
 2.1820	13.4150
 2.1830	13.4320
 2.1840	13.4530
 2.1850	13.4770
 2.1860	13.4990
 2.1870	13.5210
 2.1880	13.5430
 2.1890	13.5660
 2.1900	13.5870
 2.1910	13.6080
 2.1920	13.6260
 2.1930	13.6380
 2.1940	13.6570
 2.1950	13.6770
 2.1960	13.6980
 2.1970	13.7260
 2.1980	13.7470
 2.1990	13.7620
 2.2000	13.7780
 2.2010	13.7900
 2.2020	13.8060
 2.2030	13.8270
 2.2040	13.8460
 2.2050	13.8660
 2.2060	13.8870
 2.2070	13.9040
 2.2080	13.9180
 2.2090	13.9320
 2.2100	13.9430
 2.2110	13.9560
 2.2120	13.9720
 2.2130	13.9830
 2.2140	13.9920
 2.2150	14.0020
 2.2160	14.0070
 2.2170	14.0160
 2.2180	14.0320
 2.2190	14.0390
 2.2200	14.0450
 2.2210	14.0480
 2.2220	14.0420
 2.2230	14.0410
 2.2240	14.0380
 2.2250	14.0370
 2.2260	14.0420
 2.2270	14.0400
 2.2280	14.0380
 2.2290	14.0320
 2.2300	14.0190
 2.2310	14.0050
 2.2320	13.9880
 2.2330	13.9700
 2.2340	13.9510
 2.2350	13.9300
 2.2360	13.9090
 2.2370	13.8870
 2.2380	13.8630
 2.2390	13.8370
 2.2400	13.8090
 2.2410	13.7780
 2.2420	13.7440
 2.2430	13.7040
 2.2440	13.6670
 2.2450	13.6250
 2.2460	13.5890
 2.2470	13.5600
 2.2480	13.5230
 2.2490	13.4870
 2.2500	13.4490
 2.2510	13.4030
 2.2520	13.3620
 2.2530	13.3220
 2.2540	13.2810
 2.2550	13.2400
 2.2560	13.1980
 2.2570	13.1520
 2.2580	13.1080
 2.2590	13.0640
 2.2600	13.0200
 2.2610	12.9780
 2.2620	12.9370
 2.2630	12.8970
 2.2640	12.8560
 2.2650	12.8160
 2.2660	12.7750
 2.2670	12.7360
 2.2680	12.6980
 2.2690	12.6630
 2.2700	12.6330
 2.2710	12.5990
 2.2720	12.5650
 2.2730	12.5320
 2.2740	12.4980
 2.2750	12.4650
 2.2760	12.4350
 2.2770	12.4000
 2.2780	12.3620
 2.2790	12.3280
 2.2800	12.2940
 2.2810	12.2610
 2.2820	12.2320
 2.2830	12.2020
 2.2840	12.1750
 2.2850	12.1460
 2.2860	12.1160
 2.2870	12.0880
 2.2880	12.0580
 2.2890	12.0290
 2.2900	12.0030
 2.2910	11.9740
 2.2920	11.9450
 2.2930	11.9130
 2.2940	11.8770
 2.2950	11.8440
 2.2960	11.8090
 2.2970	11.7780
 2.2980	11.7540
 2.2990	11.7250
 2.3000	11.6950
 2.3010	11.6630
 2.3020	11.6270
 2.3030	11.5930
 2.3040	11.5610
 2.3050	11.5300
 2.3060	11.4960
 2.3070	11.4650
 2.3080	11.4370
 2.3090	11.4080
 2.3100	11.3800
 2.3110	11.3530
 2.3120	11.3270
 2.3130	11.2990
 2.3140	11.2780
 2.3150	11.2660
 2.3160	11.2440
 2.3170	11.2210
 2.3180	11.1940
 2.3190	11.1610
 2.3200	11.1310
 2.3210	11.1020
 2.3220	11.0710
 2.3230	11.0390
 2.3240	11.0090
 2.3250	10.9820
 2.3260	10.9550
 2.3270	10.9330
 2.3280	10.9020
 2.3290	10.8630
 2.3300	10.8320
 2.3310	10.8030
 2.3320	10.7730
 2.3330	10.7540
 2.3340	10.7220
 2.3350	10.6810
 2.3360	10.6450
 2.3370	10.6040
 2.3380	10.5680
 2.3390	10.5330
 2.3400	10.5020
 2.3410	10.4780
 2.3420	10.4490
 2.3430	10.4210
 2.3440	10.3920
 2.3450	10.3600
 2.3460	10.3290
 2.3470	10.3020
 2.3480	10.2740
 2.3490	10.2450
 2.3500	10.2140
 2.3510	10.1800
 2.3520	10.1530
 2.3530	10.1280
 2.3540	10.1070
 2.3550	10.0860
 2.3560	10.0590
 2.3570	10.0270
 2.3580	 9.9940
 2.3590	 9.9660
 2.3600	 9.9400
 2.3610	 9.9150
 2.3620	 9.8900
 2.3630	 9.8680
 2.3640	 9.8430
 2.3650	 9.8150
 2.3660	 9.7900
 2.3670	 9.7560
 2.3680	 9.7200
 2.3690	 9.6910
 2.3700	 9.6580
 2.3710	 9.6310
 2.3720	 9.6090
 2.3730	 9.5740
 2.3740	 9.5400
 2.3750	 9.5070
 2.3760	 9.4730
 2.3770	 9.4440
 2.3780	 9.4150
 2.3790	 9.3830
 2.3800	 9.3490
 2.3810	 9.3210
 2.3820	 9.2900
 2.3830	 9.2590
 2.3840	 9.2350
 2.3850	 9.2020
 2.3860	 9.1660
 2.3870	 9.1300
 2.3880	 9.0940
 2.3890	 9.0620
 2.3900	 9.0350
 2.3910	 9.0150
 2.3920	 8.9870
 2.3930	 8.9450
 2.3940	 8.9100
 2.3950	 8.8700
 2.3960	 8.8270
 2.3970	 8.7980
 2.3980	 8.7700
 2.3990	 8.7350
 2.4000	 8.7030
 2.4010	 8.6750
 2.4020	 8.6470
 2.4030	 8.6260
 2.4040	 8.6040
 2.4050	 8.5710
 2.4060	 8.5300
 2.4070	 8.4830
 2.4080	 8.4420
 2.4090	 8.4150
 2.4100	 8.3880
 2.4110	 8.3740
 2.4120	 8.3540
 2.4130	 8.3120
 2.4140	 8.2750
 2.4150	 8.2300
 2.4160	 8.1780
 2.4170	 8.1360
 2.4180	 8.1120
 2.4190	 8.0940
 2.4200	 8.0680
 2.4210	 8.0390
 2.4220	 8.0010
 2.4230	 7.9510
 2.4240	 7.8980
 2.4250	 7.8700
 2.4260	 7.8470
 2.4270	 7.8150
 2.4280	 7.7910
 2.4290	 7.7590
 2.4300	 7.7090
 2.4310	 7.6690
 2.4320	 7.6450
 2.4330	 7.6060
 2.4340	 7.5660
 2.4350	 7.5380
 2.4360	 7.5060
 2.4370	 7.4840
 2.4380	 7.4730
 2.4390	 7.4540
 2.4400	 7.4300
 2.4410	 7.3940
 2.4420	 7.3470
 2.4430	 7.2910
 2.4440	 7.2410
 2.4450	 7.2180
 2.4460	 7.2000
 2.4470	 7.1860
 2.4480	 7.1680
 2.4490	 7.1320
 2.4500	 7.1140
 2.4510	 7.1010
 2.4520	 7.0680
 2.4530	 7.0400
 2.4540	 7.0020
 2.4550	 6.9590
 2.4560	 6.9380
 2.4570	 6.9190
 2.4580	 6.9000
 2.4590	 6.8820
 2.4600	 6.8720
 2.4610	 6.8530
 2.4620	 6.8170
 2.4630	 6.7870
 2.4640	 6.7560
 2.4650	 6.7410
 2.4660	 6.7340
 2.4670	 6.7340
 2.4680	 6.7370
 2.4690	 6.7110
 2.4700	 6.6940
 2.4710	 6.6670
 2.4720	 6.6500
 2.4730	 6.6580
 2.4740	 6.6410
 2.4750	 6.5980
 2.4760	 6.5720
 2.4770	 6.5380
 2.4780	 6.5050
 2.4790	 6.4940
 2.4800	 6.4750
 2.4810	 6.4360
 2.4820	 6.4450
 2.4830	 6.4580
 2.4840	 6.4510
 2.4850	 6.4420
 2.4860	 6.4290
 2.4870	 6.3930
 2.4880	 6.3760
 2.4890	 6.3600
 2.4900	 6.3240
 2.4910	 6.3120
 2.4920	 6.3360
 2.4930	 6.3700
 2.4940	 6.4070
 2.4950	 6.4220
 2.4960	 6.4090
 2.4970	 6.4020
 2.4980	 6.3860
 2.4990	 6.3820
 2.5000	 6.3880
