Name: Lagerstroemia indica
Type: vegetation
Class: Tree
Genus: Lagerstroemia
Species: indica
Sample No.: JPL150
Owner: JPL
Wavelength Range: VSWIR
Origin: 34.12425; -118.11367; WGS84
Collection Date: 9/14/2016
Description: Samples were collected at the Huntington Garden in San Marino California as part of a JPL Subcontract studying HyTES imagery. Samples were taken to JPL and processed within 48 hours of collection. The same leaves were processed in the Nicolet and then measured using the ASD.
Measurement: Bidirectional reflectance
First Column: X
Second Column: Y
X Units: Wavelength (micrometer)
Y Units: Reflectance (percentage)
First X Value: 0.35
Last X Value: 2.5
Number of X Values: 2151
Additional Information: vegetation.tree.lagerstroemia.indica.vswir.jpl150.jpl.asd.ancillary.txt

 0.3500	 5.0040
 0.3510	 4.9620
 0.3520	 4.9830
 0.3530	 4.9840
 0.3540	 4.9050
 0.3550	 4.8650
 0.3560	 4.8460
 0.3570	 4.8470
 0.3580	 4.8670
 0.3590	 4.8170
 0.3600	 4.7840
 0.3610	 4.7670
 0.3620	 4.6230
 0.3630	 4.6620
 0.3640	 4.7630
 0.3650	 4.7510
 0.3660	 4.6950
 0.3670	 4.6870
 0.3680	 4.7140
 0.3690	 4.6970
 0.3700	 4.7540
 0.3710	 4.7430
 0.3720	 4.6300
 0.3730	 4.6380
 0.3740	 4.6610
 0.3750	 4.6650
 0.3760	 4.6450
 0.3770	 4.6450
 0.3780	 4.6530
 0.3790	 4.6470
 0.3800	 4.6070
 0.3810	 4.5670
 0.3820	 4.5480
 0.3830	 4.5580
 0.3840	 4.5930
 0.3850	 4.6270
 0.3860	 4.6420
 0.3870	 4.6280
 0.3880	 4.5990
 0.3890	 4.5600
 0.3900	 4.5380
 0.3910	 4.5800
 0.3920	 4.5650
 0.3930	 4.5550
 0.3940	 4.5920
 0.3950	 4.5700
 0.3960	 4.5440
 0.3970	 4.5340
 0.3980	 4.5430
 0.3990	 4.5790
 0.4000	 4.5940
 0.4010	 4.5790
 0.4020	 4.5840
 0.4030	 4.5640
 0.4040	 4.5600
 0.4050	 4.5980
 0.4060	 4.5850
 0.4070	 4.5870
 0.4080	 4.6050
 0.4090	 4.6010
 0.4100	 4.6060
 0.4110	 4.6160
 0.4120	 4.6280
 0.4130	 4.6540
 0.4140	 4.6630
 0.4150	 4.6660
 0.4160	 4.6840
 0.4170	 4.7130
 0.4180	 4.7370
 0.4190	 4.7520
 0.4200	 4.7680
 0.4210	 4.7850
 0.4220	 4.7960
 0.4230	 4.8000
 0.4240	 4.8210
 0.4250	 4.8410
 0.4260	 4.8590
 0.4270	 4.8810
 0.4280	 4.8950
 0.4290	 4.9100
 0.4300	 4.9270
 0.4310	 4.9320
 0.4320	 4.9410
 0.4330	 4.9530
 0.4340	 4.9640
 0.4350	 4.9810
 0.4360	 4.9930
 0.4370	 5.0030
 0.4380	 5.0190
 0.4390	 5.0390
 0.4400	 5.0600
 0.4410	 5.0800
 0.4420	 5.0980
 0.4430	 5.1240
 0.4440	 5.1560
 0.4450	 5.1850
 0.4460	 5.2150
 0.4470	 5.2450
 0.4480	 5.2740
 0.4490	 5.3050
 0.4500	 5.3370
 0.4510	 5.3740
 0.4520	 5.4150
 0.4530	 5.4460
 0.4540	 5.4840
 0.4550	 5.5250
 0.4560	 5.5560
 0.4570	 5.5890
 0.4580	 5.6230
 0.4590	 5.6530
 0.4600	 5.6740
 0.4610	 5.6980
 0.4620	 5.7220
 0.4630	 5.7410
 0.4640	 5.7540
 0.4650	 5.7660
 0.4660	 5.7790
 0.4670	 5.7870
 0.4680	 5.7970
 0.4690	 5.8050
 0.4700	 5.8050
 0.4710	 5.8120
 0.4720	 5.8140
 0.4730	 5.8140
 0.4740	 5.8170
 0.4750	 5.8170
 0.4760	 5.8190
 0.4770	 5.8280
 0.4780	 5.8370
 0.4790	 5.8440
 0.4800	 5.8520
 0.4810	 5.8630
 0.4820	 5.8750
 0.4830	 5.8930
 0.4840	 5.9180
 0.4850	 5.9480
 0.4860	 5.9770
 0.4870	 6.0110
 0.4880	 6.0530
 0.4890	 6.0920
 0.4900	 6.1360
 0.4910	 6.1870
 0.4920	 6.2470
 0.4930	 6.3080
 0.4940	 6.3720
 0.4950	 6.4430
 0.4960	 6.5220
 0.4970	 6.6010
 0.4980	 6.6860
 0.4990	 6.7800
 0.5000	 6.8800
 0.5010	 6.9840
 0.5020	 7.0910
 0.5030	 7.2010
 0.5040	 7.3210
 0.5050	 7.4490
 0.5060	 7.5840
 0.5070	 7.7270
 0.5080	 7.8780
 0.5090	 8.0350
 0.5100	 8.1980
 0.5110	 8.3710
 0.5120	 8.5520
 0.5130	 8.7390
 0.5140	 8.9310
 0.5150	 9.1340
 0.5160	 9.3430
 0.5170	 9.5570
 0.5180	 9.7800
 0.5190	10.0090
 0.5200	10.2420
 0.5210	10.4770
 0.5220	10.7140
 0.5230	10.9510
 0.5240	11.1820
 0.5250	11.4120
 0.5260	11.6370
 0.5270	11.8530
 0.5280	12.0560
 0.5290	12.2580
 0.5300	12.4530
 0.5310	12.6380
 0.5320	12.8080
 0.5330	12.9730
 0.5340	13.1300
 0.5350	13.2750
 0.5360	13.4120
 0.5370	13.5450
 0.5380	13.6750
 0.5390	13.7980
 0.5400	13.9240
 0.5410	14.0530
 0.5420	14.1810
 0.5430	14.2970
 0.5440	14.4020
 0.5450	14.4940
 0.5460	14.5760
 0.5470	14.6510
 0.5480	14.7240
 0.5490	14.8000
 0.5500	14.8780
 0.5510	14.9510
 0.5520	15.0170
 0.5530	15.0760
 0.5540	15.1240
 0.5550	15.1610
 0.5560	15.1890
 0.5570	15.2110
 0.5580	15.2240
 0.5590	15.2300
 0.5600	15.2290
 0.5610	15.2200
 0.5620	15.2080
 0.5630	15.1950
 0.5640	15.1840
 0.5650	15.1700
 0.5660	15.1490
 0.5670	15.1200
 0.5680	15.0810
 0.5690	15.0330
 0.5700	14.9780
 0.5710	14.9210
 0.5720	14.8650
 0.5730	14.8130
 0.5740	14.7650
 0.5750	14.7210
 0.5760	14.6850
 0.5770	14.6530
 0.5780	14.6240
 0.5790	14.6020
 0.5800	14.5860
 0.5810	14.5760
 0.5820	14.5730
 0.5830	14.5790
 0.5840	14.5850
 0.5850	14.5890
 0.5860	14.5970
 0.5870	14.6060
 0.5880	14.6120
 0.5890	14.6170
 0.5900	14.6290
 0.5910	14.6480
 0.5920	14.6730
 0.5930	14.7030
 0.5940	14.7390
 0.5950	14.7800
 0.5960	14.8260
 0.5970	14.8750
 0.5980	14.9210
 0.5990	14.9610
 0.6000	14.9920
 0.6010	15.0150
 0.6020	15.0240
 0.6030	15.0200
 0.6040	15.0020
 0.6050	14.9670
 0.6060	14.9160
 0.6070	14.8520
 0.6080	14.7770
 0.6090	14.7010
 0.6100	14.6330
 0.6110	14.5670
 0.6120	14.4620
 0.6130	14.3350
 0.6140	14.2070
 0.6150	14.0970
 0.6160	13.9920
 0.6170	13.8930
 0.6180	13.8040
 0.6190	13.7290
 0.6200	13.6630
 0.6210	13.6050
 0.6220	13.5560
 0.6230	13.5130
 0.6240	13.4810
 0.6250	13.4630
 0.6260	13.4540
 0.6270	13.4540
 0.6280	13.4600
 0.6290	13.4710
 0.6300	13.4910
 0.6310	13.5110
 0.6320	13.5240
 0.6330	13.5270
 0.6340	13.5280
 0.6350	13.5200
 0.6360	13.4960
 0.6370	13.4560
 0.6380	13.3990
 0.6390	13.3270
 0.6400	13.2410
 0.6410	13.1430
 0.6420	13.0330
 0.6430	12.9100
 0.6440	12.7720
 0.6450	12.6320
 0.6460	12.4900
 0.6470	12.3420
 0.6480	12.2010
 0.6490	12.0680
 0.6500	11.9410
 0.6510	11.8180
 0.6520	11.6970
 0.6530	11.5720
 0.6540	11.4350
 0.6550	11.2790
 0.6560	11.1010
 0.6570	10.9010
 0.6580	10.6790
 0.6590	10.4400
 0.6600	10.1840
 0.6610	 9.9190
 0.6620	 9.6560
 0.6630	 9.3960
 0.6640	 9.1460
 0.6650	 8.9120
 0.6660	 8.7000
 0.6670	 8.5100
 0.6680	 8.3430
 0.6690	 8.2030
 0.6700	 8.0870
 0.6710	 7.9920
 0.6720	 7.9170
 0.6730	 7.8630
 0.6740	 7.8230
 0.6750	 7.7980
 0.6760	 7.7870
 0.6770	 7.7900
 0.6780	 7.8080
 0.6790	 7.8420
 0.6800	 7.9010
 0.6810	 7.9890
 0.6820	 8.1150
 0.6830	 8.2860
 0.6840	 8.5070
 0.6850	 8.7930
 0.6860	 9.1510
 0.6870	 9.5860
 0.6880	10.1060
 0.6890	10.7120
 0.6900	11.4040
 0.6910	12.1840
 0.6920	13.0440
 0.6930	13.9720
 0.6940	14.9600
 0.6950	16.0010
 0.6960	17.0770
 0.6970	18.1770
 0.6980	19.2910
 0.6990	20.4060
 0.7000	21.5150
 0.7010	22.6060
 0.7020	23.6640
 0.7030	24.6870
 0.7040	25.6750
 0.7050	26.6250
 0.7060	27.5390
 0.7070	28.4160
 0.7080	29.2570
 0.7090	30.0650
 0.7100	30.8450
 0.7110	31.6000
 0.7120	32.3330
 0.7130	33.0440
 0.7140	33.7300
 0.7150	34.3960
 0.7160	35.0440
 0.7170	35.6740
 0.7180	36.2820
 0.7190	36.8700
 0.7200	37.4410
 0.7210	37.9880
 0.7220	38.5150
 0.7230	39.0210
 0.7240	39.5060
 0.7250	39.9680
 0.7260	40.4080
 0.7270	40.8270
 0.7280	41.2260
 0.7290	41.6050
 0.7300	41.9630
 0.7310	42.3000
 0.7320	42.6170
 0.7330	42.9150
 0.7340	43.1960
 0.7350	43.4580
 0.7360	43.7070
 0.7370	43.9410
 0.7380	44.1570
 0.7390	44.3610
 0.7400	44.5530
 0.7410	44.7330
 0.7420	44.8990
 0.7430	45.0540
 0.7440	45.1980
 0.7450	45.3310
 0.7460	45.4570
 0.7470	45.5720
 0.7480	45.6780
 0.7490	45.7770
 0.7500	45.8710
 0.7510	45.9580
 0.7520	46.0370
 0.7530	46.1100
 0.7540	46.1810
 0.7550	46.2470
 0.7560	46.3090
 0.7570	46.3700
 0.7580	46.4260
 0.7590	46.4790
 0.7600	46.5290
 0.7610	46.5760
 0.7620	46.6220
 0.7630	46.6660
 0.7640	46.7070
 0.7650	46.7460
 0.7660	46.7820
 0.7670	46.8160
 0.7680	46.8510
 0.7690	46.8860
 0.7700	46.9200
 0.7710	46.9540
 0.7720	46.9850
 0.7730	47.0140
 0.7740	47.0430
 0.7750	47.0730
 0.7760	47.0980
 0.7770	47.1250
 0.7780	47.1540
 0.7790	47.1830
 0.7800	47.2090
 0.7810	47.2330
 0.7820	47.2550
 0.7830	47.2780
 0.7840	47.3000
 0.7850	47.3210
 0.7860	47.3400
 0.7870	47.3610
 0.7880	47.3790
 0.7890	47.3960
 0.7900	47.4140
 0.7910	47.4350
 0.7920	47.4520
 0.7930	47.4640
 0.7940	47.4770
 0.7950	47.4910
 0.7960	47.5040
 0.7970	47.5130
 0.7980	47.5190
 0.7990	47.5270
 0.8000	47.5350
 0.8010	47.5410
 0.8020	47.5450
 0.8030	47.5520
 0.8040	47.5610
 0.8050	47.5670
 0.8060	47.5700
 0.8070	47.5720
 0.8080	47.5730
 0.8090	47.5730
 0.8100	47.5750
 0.8110	47.5760
 0.8120	47.5730
 0.8130	47.5690
 0.8140	47.5670
 0.8150	47.5640
 0.8160	47.5620
 0.8170	47.5600
 0.8180	47.5560
 0.8190	47.5520
 0.8200	47.5520
 0.8210	47.5500
 0.8220	47.5450
 0.8230	47.5390
 0.8240	47.5390
 0.8250	47.5350
 0.8260	47.5310
 0.8270	47.5270
 0.8280	47.5170
 0.8290	47.5110
 0.8300	47.5090
 0.8310	47.5080
 0.8320	47.5020
 0.8330	47.4970
 0.8340	47.4940
 0.8350	47.4950
 0.8360	47.4950
 0.8370	47.4970
 0.8380	47.5000
 0.8390	47.5020
 0.8400	47.5030
 0.8410	47.5070
 0.8420	47.5140
 0.8430	47.5150
 0.8440	47.5210
 0.8450	47.5280
 0.8460	47.5330
 0.8470	47.5390
 0.8480	47.5470
 0.8490	47.5550
 0.8500	47.5640
 0.8510	47.5730
 0.8520	47.5830
 0.8530	47.5930
 0.8540	47.6010
 0.8550	47.6140
 0.8560	47.6270
 0.8570	47.6370
 0.8580	47.6470
 0.8590	47.6630
 0.8600	47.6770
 0.8610	47.6880
 0.8620	47.7030
 0.8630	47.7200
 0.8640	47.7350
 0.8650	47.7490
 0.8660	47.7660
 0.8670	47.7810
 0.8680	47.7940
 0.8690	47.8090
 0.8700	47.8280
 0.8710	47.8430
 0.8720	47.8550
 0.8730	47.8680
 0.8740	47.8890
 0.8750	47.9090
 0.8760	47.9270
 0.8770	47.9440
 0.8780	47.9580
 0.8790	47.9740
 0.8800	47.9930
 0.8810	48.0090
 0.8820	48.0240
 0.8830	48.0400
 0.8840	48.0570
 0.8850	48.0740
 0.8860	48.0920
 0.8870	48.1050
 0.8880	48.1150
 0.8890	48.1370
 0.8900	48.1550
 0.8910	48.1680
 0.8920	48.1850
 0.8930	48.2020
 0.8940	48.2180
 0.8950	48.2340
 0.8960	48.2470
 0.8970	48.2600
 0.8980	48.2740
 0.8990	48.2870
 0.9000	48.2990
 0.9010	48.3160
 0.9020	48.3300
 0.9030	48.3400
 0.9040	48.3550
 0.9050	48.3660
 0.9060	48.3750
 0.9070	48.3870
 0.9080	48.4000
 0.9090	48.4080
 0.9100	48.4150
 0.9110	48.4250
 0.9120	48.4400
 0.9130	48.4500
 0.9140	48.4570
 0.9150	48.4620
 0.9160	48.4660
 0.9170	48.4690
 0.9180	48.4720
 0.9190	48.4760
 0.9200	48.4770
 0.9210	48.4750
 0.9220	48.4720
 0.9230	48.4720
 0.9240	48.4720
 0.9250	48.4610
 0.9260	48.4450
 0.9270	48.4370
 0.9280	48.4260
 0.9290	48.4120
 0.9300	48.3950
 0.9310	48.3800
 0.9320	48.3590
 0.9330	48.3400
 0.9340	48.3230
 0.9350	48.2970
 0.9360	48.2740
 0.9370	48.2490
 0.9380	48.2190
 0.9390	48.1900
 0.9400	48.1640
 0.9410	48.1330
 0.9420	48.0950
 0.9430	48.0580
 0.9440	48.0180
 0.9450	47.9810
 0.9460	47.9450
 0.9470	47.8930
 0.9480	47.8380
 0.9490	47.7810
 0.9500	47.7220
 0.9510	47.6580
 0.9520	47.5980
 0.9530	47.5360
 0.9540	47.4650
 0.9550	47.3940
 0.9560	47.3280
 0.9570	47.2660
 0.9580	47.2070
 0.9590	47.1580
 0.9600	47.1080
 0.9610	47.0530
 0.9620	46.9970
 0.9630	46.9640
 0.9640	46.9320
 0.9650	46.9020
 0.9660	46.8830
 0.9670	46.8650
 0.9680	46.8440
 0.9690	46.8240
 0.9700	46.8100
 0.9710	46.7870
 0.9720	46.7730
 0.9730	46.7670
 0.9740	46.7600
 0.9750	46.7620
 0.9760	46.7570
 0.9770	46.7470
 0.9780	46.7430
 0.9790	46.7340
 0.9800	46.7310
 0.9810	46.7360
 0.9820	46.7450
 0.9830	46.7670
 0.9840	46.7840
 0.9850	46.7860
 0.9860	46.7750
 0.9870	46.7930
 0.9880	46.8140
 0.9890	46.8300
 0.9900	46.8450
 0.9910	46.8570
 0.9920	46.8770
 0.9930	46.8950
 0.9940	46.9020
 0.9950	46.9170
 0.9960	46.9470
 0.9970	46.9700
 0.9980	46.9690
 0.9990	46.9940
 1.0000	47.0260
 1.0010	48.4940
 1.0020	48.5110
 1.0030	48.5290
 1.0040	48.5540
 1.0050	48.5800
 1.0060	48.6040
 1.0070	48.6310
 1.0080	48.6550
 1.0090	48.6720
 1.0100	48.6970
 1.0110	48.7270
 1.0120	48.7510
 1.0130	48.7750
 1.0140	48.7990
 1.0150	48.8200
 1.0160	48.8410
 1.0170	48.8650
 1.0180	48.8840
 1.0190	48.9050
 1.0200	48.9300
 1.0210	48.9560
 1.0220	48.9830
 1.0230	49.0070
 1.0240	49.0290
 1.0250	49.0500
 1.0260	49.0690
 1.0270	49.0890
 1.0280	49.1060
 1.0290	49.1270
 1.0300	49.1510
 1.0310	49.1720
 1.0320	49.1950
 1.0330	49.2170
 1.0340	49.2390
 1.0350	49.2570
 1.0360	49.2740
 1.0370	49.2970
 1.0380	49.3170
 1.0390	49.3360
 1.0400	49.3550
 1.0410	49.3760
 1.0420	49.3930
 1.0430	49.4040
 1.0440	49.4200
 1.0450	49.4340
 1.0460	49.4490
 1.0470	49.4720
 1.0480	49.4870
 1.0490	49.4990
 1.0500	49.5120
 1.0510	49.5250
 1.0520	49.5320
 1.0530	49.5410
 1.0540	49.5520
 1.0550	49.5630
 1.0560	49.5740
 1.0570	49.5850
 1.0580	49.5960
 1.0590	49.6070
 1.0600	49.6160
 1.0610	49.6230
 1.0620	49.6270
 1.0630	49.6330
 1.0640	49.6390
 1.0650	49.6430
 1.0660	49.6500
 1.0670	49.6540
 1.0680	49.6570
 1.0690	49.6560
 1.0700	49.6570
 1.0710	49.6570
 1.0720	49.6590
 1.0730	49.6630
 1.0740	49.6640
 1.0750	49.6660
 1.0760	49.6670
 1.0770	49.6660
 1.0780	49.6630
 1.0790	49.6600
 1.0800	49.6560
 1.0810	49.6480
 1.0820	49.6420
 1.0830	49.6370
 1.0840	49.6320
 1.0850	49.6290
 1.0860	49.6230
 1.0870	49.6180
 1.0880	49.6130
 1.0890	49.6080
 1.0900	49.6040
 1.0910	49.5950
 1.0920	49.5830
 1.0930	49.5720
 1.0940	49.5560
 1.0950	49.5460
 1.0960	49.5410
 1.0970	49.5330
 1.0980	49.5250
 1.0990	49.5150
 1.1000	49.5020
 1.1010	49.4910
 1.1020	49.4800
 1.1030	49.4690
 1.1040	49.4600
 1.1050	49.4500
 1.1060	49.4370
 1.1070	49.4230
 1.1080	49.4080
 1.1090	49.3880
 1.1100	49.3730
 1.1110	49.3600
 1.1120	49.3440
 1.1130	49.3310
 1.1140	49.3140
 1.1150	49.2920
 1.1160	49.2720
 1.1170	49.2510
 1.1180	49.2280
 1.1190	49.2050
 1.1200	49.1800
 1.1210	49.1520
 1.1220	49.1200
 1.1230	49.0810
 1.1240	49.0390
 1.1250	48.9930
 1.1260	48.9410
 1.1270	48.8850
 1.1280	48.8270
 1.1290	48.7590
 1.1300	48.6880
 1.1310	48.6060
 1.1320	48.5160
 1.1330	48.4180
 1.1340	48.3120
 1.1350	48.2000
 1.1360	48.0820
 1.1370	47.9570
 1.1380	47.8250
 1.1390	47.6860
 1.1400	47.5410
 1.1410	47.3920
 1.1420	47.2390
 1.1430	47.0840
 1.1440	46.9280
 1.1450	46.7680
 1.1460	46.6140
 1.1470	46.4590
 1.1480	46.3110
 1.1490	46.1640
 1.1500	46.0280
 1.1510	45.8970
 1.1520	45.7750
 1.1530	45.6600
 1.1540	45.5550
 1.1550	45.4560
 1.1560	45.3670
 1.1570	45.2870
 1.1580	45.2170
 1.1590	45.1540
 1.1600	45.0980
 1.1610	45.0490
 1.1620	45.0030
 1.1630	44.9620
 1.1640	44.9270
 1.1650	44.8950
 1.1660	44.8680
 1.1670	44.8450
 1.1680	44.8270
 1.1690	44.8080
 1.1700	44.7910
 1.1710	44.7750
 1.1720	44.7590
 1.1730	44.7450
 1.1740	44.7350
 1.1750	44.7240
 1.1760	44.7130
 1.1770	44.7010
 1.1780	44.6860
 1.1790	44.6710
 1.1800	44.6560
 1.1810	44.6420
 1.1820	44.6300
 1.1830	44.6160
 1.1840	44.6010
 1.1850	44.5870
 1.1860	44.5720
 1.1870	44.5580
 1.1880	44.5460
 1.1890	44.5360
 1.1900	44.5260
 1.1910	44.5180
 1.1920	44.5100
 1.1930	44.5020
 1.1940	44.4960
 1.1950	44.4920
 1.1960	44.4890
 1.1970	44.4890
 1.1980	44.4890
 1.1990	44.4920
 1.2000	44.4970
 1.2010	44.5020
 1.2020	44.5100
 1.2030	44.5200
 1.2040	44.5290
 1.2050	44.5400
 1.2060	44.5540
 1.2070	44.5700
 1.2080	44.5870
 1.2090	44.6040
 1.2100	44.6220
 1.2110	44.6400
 1.2120	44.6570
 1.2130	44.6760
 1.2140	44.6970
 1.2150	44.7180
 1.2160	44.7390
 1.2170	44.7600
 1.2180	44.7840
 1.2190	44.8080
 1.2200	44.8330
 1.2210	44.8550
 1.2220	44.8780
 1.2230	44.9010
 1.2240	44.9240
 1.2250	44.9480
 1.2260	44.9700
 1.2270	44.9930
 1.2280	45.0160
 1.2290	45.0380
 1.2300	45.0610
 1.2310	45.0800
 1.2320	45.0990
 1.2330	45.1170
 1.2340	45.1350
 1.2350	45.1540
 1.2360	45.1720
 1.2370	45.1880
 1.2380	45.2040
 1.2390	45.2190
 1.2400	45.2340
 1.2410	45.2480
 1.2420	45.2630
 1.2430	45.2780
 1.2440	45.2920
 1.2450	45.3060
 1.2460	45.3180
 1.2470	45.3300
 1.2480	45.3400
 1.2490	45.3520
 1.2500	45.3640
 1.2510	45.3740
 1.2520	45.3830
 1.2530	45.3920
 1.2540	45.4020
 1.2550	45.4090
 1.2560	45.4150
 1.2570	45.4210
 1.2580	45.4250
 1.2590	45.4290
 1.2600	45.4330
 1.2610	45.4340
 1.2620	45.4330
 1.2630	45.4300
 1.2640	45.4290
 1.2650	45.4270
 1.2660	45.4260
 1.2670	45.4230
 1.2680	45.4160
 1.2690	45.4080
 1.2700	45.4000
 1.2710	45.3920
 1.2720	45.3840
 1.2730	45.3750
 1.2740	45.3650
 1.2750	45.3530
 1.2760	45.3370
 1.2770	45.3210
 1.2780	45.3020
 1.2790	45.2820
 1.2800	45.2600
 1.2810	45.2380
 1.2820	45.2120
 1.2830	45.1840
 1.2840	45.1560
 1.2850	45.1250
 1.2860	45.0920
 1.2870	45.0570
 1.2880	45.0210
 1.2890	44.9810
 1.2900	44.9380
 1.2910	44.8940
 1.2920	44.8490
 1.2930	44.8000
 1.2940	44.7480
 1.2950	44.6940
 1.2960	44.6350
 1.2970	44.5740
 1.2980	44.5110
 1.2990	44.4460
 1.3000	44.3810
 1.3010	44.3130
 1.3020	44.2390
 1.3030	44.1660
 1.3040	44.0890
 1.3050	44.0100
 1.3060	43.9300
 1.3070	43.8460
 1.3080	43.7590
 1.3090	43.6680
 1.3100	43.5740
 1.3110	43.4780
 1.3120	43.3780
 1.3130	43.2770
 1.3140	43.1720
 1.3150	43.0640
 1.3160	42.9530
 1.3170	42.8400
 1.3180	42.7230
 1.3190	42.6020
 1.3200	42.4790
 1.3210	42.3540
 1.3220	42.2260
 1.3230	42.0950
 1.3240	41.9620
 1.3250	41.8260
 1.3260	41.6880
 1.3270	41.5480
 1.3280	41.4060
 1.3290	41.2590
 1.3300	41.1100
 1.3310	40.9590
 1.3320	40.8050
 1.3330	40.6520
 1.3340	40.5000
 1.3350	40.3480
 1.3360	40.1970
 1.3370	40.0420
 1.3380	39.8870
 1.3390	39.7340
 1.3400	39.5800
 1.3410	39.4310
 1.3420	39.2830
 1.3430	39.1350
 1.3440	38.9890
 1.3450	38.8430
 1.3460	38.6980
 1.3470	38.5550
 1.3480	38.4130
 1.3490	38.2740
 1.3500	38.1370
 1.3510	38.0010
 1.3520	37.8650
 1.3530	37.7300
 1.3540	37.5960
 1.3550	37.4600
 1.3560	37.3250
 1.3570	37.1880
 1.3580	37.0500
 1.3590	36.9110
 1.3600	36.7680
 1.3610	36.6210
 1.3620	36.4680
 1.3630	36.3090
 1.3640	36.1450
 1.3650	35.9720
 1.3660	35.7940
 1.3670	35.6060
 1.3680	35.4040
 1.3690	35.1900
 1.3700	34.9600
 1.3710	34.7150
 1.3720	34.4540
 1.3730	34.1750
 1.3740	33.8780
 1.3750	33.5600
 1.3760	33.2190
 1.3770	32.8540
 1.3780	32.4620
 1.3790	32.0470
 1.3800	31.6070
 1.3810	31.1380
 1.3820	30.6490
 1.3830	30.1380
 1.3840	29.6070
 1.3850	29.0520
 1.3860	28.4840
 1.3870	27.8930
 1.3880	27.2990
 1.3890	26.6920
 1.3900	26.0760
 1.3910	25.4610
 1.3920	24.8410
 1.3930	24.2170
 1.3940	23.5990
 1.3950	22.9810
 1.3960	22.3740
 1.3970	21.7810
 1.3980	21.2030
 1.3990	20.6460
 1.4000	20.1070
 1.4010	19.5850
 1.4020	19.0880
 1.4030	18.6100
 1.4040	18.1550
 1.4050	17.7260
 1.4060	17.3190
 1.4070	16.9380
 1.4080	16.5790
 1.4090	16.2400
 1.4100	15.9250
 1.4110	15.6300
 1.4120	15.3550
 1.4130	15.1020
 1.4140	14.8670
 1.4150	14.6510
 1.4160	14.4520
 1.4170	14.2670
 1.4180	14.0980
 1.4190	13.9410
 1.4200	13.7960
 1.4210	13.6630
 1.4220	13.5410
 1.4230	13.4310
 1.4240	13.3300
 1.4250	13.2360
 1.4260	13.1530
 1.4270	13.0750
 1.4280	13.0050
 1.4290	12.9400
 1.4300	12.8840
 1.4310	12.8320
 1.4320	12.7860
 1.4330	12.7450
 1.4340	12.7100
 1.4350	12.6780
 1.4360	12.6500
 1.4370	12.6270
 1.4380	12.6080
 1.4390	12.5910
 1.4400	12.5780
 1.4410	12.5680
 1.4420	12.5600
 1.4430	12.5540
 1.4440	12.5510
 1.4450	12.5510
 1.4460	12.5530
 1.4470	12.5580
 1.4480	12.5640
 1.4490	12.5720
 1.4500	12.5810
 1.4510	12.5920
 1.4520	12.6040
 1.4530	12.6180
 1.4540	12.6340
 1.4550	12.6530
 1.4560	12.6740
 1.4570	12.6970
 1.4580	12.7240
 1.4590	12.7530
 1.4600	12.7840
 1.4610	12.8210
 1.4620	12.8610
 1.4630	12.9070
 1.4640	12.9560
 1.4650	13.0110
 1.4660	13.0690
 1.4670	13.1310
 1.4680	13.1990
 1.4690	13.2710
 1.4700	13.3490
 1.4710	13.4320
 1.4720	13.5170
 1.4730	13.6060
 1.4740	13.6980
 1.4750	13.7920
 1.4760	13.8920
 1.4770	13.9950
 1.4780	14.0990
 1.4790	14.2070
 1.4800	14.3170
 1.4810	14.4280
 1.4820	14.5420
 1.4830	14.6580
 1.4840	14.7750
 1.4850	14.8930
 1.4860	15.0130
 1.4870	15.1340
 1.4880	15.2570
 1.4890	15.3800
 1.4900	15.5050
 1.4910	15.6300
 1.4920	15.7570
 1.4930	15.8850
 1.4940	16.0140
 1.4950	16.1440
 1.4960	16.2740
 1.4970	16.4030
 1.4980	16.5340
 1.4990	16.6640
 1.5000	16.7960
 1.5010	16.9290
 1.5020	17.0620
 1.5030	17.1950
 1.5040	17.3270
 1.5050	17.4600
 1.5060	17.5930
 1.5070	17.7270
 1.5080	17.8600
 1.5090	17.9930
 1.5100	18.1260
 1.5110	18.2580
 1.5120	18.3910
 1.5130	18.5210
 1.5140	18.6520
 1.5150	18.7830
 1.5160	18.9130
 1.5170	19.0450
 1.5180	19.1770
 1.5190	19.3080
 1.5200	19.4370
 1.5210	19.5640
 1.5220	19.6920
 1.5230	19.8190
 1.5240	19.9470
 1.5250	20.0760
 1.5260	20.2020
 1.5270	20.3280
 1.5280	20.4510
 1.5290	20.5720
 1.5300	20.6930
 1.5310	20.8140
 1.5320	20.9330
 1.5330	21.0530
 1.5340	21.1720
 1.5350	21.2890
 1.5360	21.4060
 1.5370	21.5220
 1.5380	21.6360
 1.5390	21.7510
 1.5400	21.8640
 1.5410	21.9770
 1.5420	22.0890
 1.5430	22.1990
 1.5440	22.3100
 1.5450	22.4200
 1.5460	22.5270
 1.5470	22.6350
 1.5480	22.7400
 1.5490	22.8440
 1.5500	22.9490
 1.5510	23.0520
 1.5520	23.1550
 1.5530	23.2570
 1.5540	23.3570
 1.5550	23.4570
 1.5560	23.5570
 1.5570	23.6550
 1.5580	23.7510
 1.5590	23.8470
 1.5600	23.9410
 1.5610	24.0330
 1.5620	24.1250
 1.5630	24.2160
 1.5640	24.3070
 1.5650	24.3980
 1.5660	24.4870
 1.5670	24.5750
 1.5680	24.6610
 1.5690	24.7450
 1.5700	24.8280
 1.5710	24.9130
 1.5720	24.9980
 1.5730	25.0820
 1.5740	25.1650
 1.5750	25.2470
 1.5760	25.3280
 1.5770	25.4070
 1.5780	25.4870
 1.5790	25.5660
 1.5800	25.6430
 1.5810	25.7200
 1.5820	25.7970
 1.5830	25.8730
 1.5840	25.9480
 1.5850	26.0210
 1.5860	26.0930
 1.5870	26.1640
 1.5880	26.2330
 1.5890	26.3040
 1.5900	26.3740
 1.5910	26.4430
 1.5920	26.5130
 1.5930	26.5820
 1.5940	26.6500
 1.5950	26.7170
 1.5960	26.7830
 1.5970	26.8490
 1.5980	26.9140
 1.5990	26.9790
 1.6000	27.0430
 1.6010	27.1050
 1.6020	27.1660
 1.6030	27.2250
 1.6040	27.2830
 1.6050	27.3420
 1.6060	27.4000
 1.6070	27.4590
 1.6080	27.5180
 1.6090	27.5750
 1.6100	27.6310
 1.6110	27.6850
 1.6120	27.7380
 1.6130	27.7910
 1.6140	27.8440
 1.6150	27.8970
 1.6160	27.9490
 1.6170	27.9980
 1.6180	28.0470
 1.6190	28.0960
 1.6200	28.1440
 1.6210	28.1910
 1.6220	28.2370
 1.6230	28.2820
 1.6240	28.3280
 1.6250	28.3720
 1.6260	28.4160
 1.6270	28.4590
 1.6280	28.5000
 1.6290	28.5410
 1.6300	28.5820
 1.6310	28.6220
 1.6320	28.6590
 1.6330	28.6960
 1.6340	28.7330
 1.6350	28.7680
 1.6360	28.8030
 1.6370	28.8350
 1.6380	28.8650
 1.6390	28.8960
 1.6400	28.9250
 1.6410	28.9520
 1.6420	28.9800
 1.6430	29.0050
 1.6440	29.0280
 1.6450	29.0490
 1.6460	29.0690
 1.6470	29.0880
 1.6480	29.1030
 1.6490	29.1180
 1.6500	29.1310
 1.6510	29.1430
 1.6520	29.1550
 1.6530	29.1640
 1.6540	29.1720
 1.6550	29.1780
 1.6560	29.1830
 1.6570	29.1860
 1.6580	29.1900
 1.6590	29.1950
 1.6600	29.1990
 1.6610	29.2050
 1.6620	29.2100
 1.6630	29.2150
 1.6640	29.2210
 1.6650	29.2280
 1.6660	29.2350
 1.6670	29.2410
 1.6680	29.2440
 1.6690	29.2460
 1.6700	29.2470
 1.6710	29.2490
 1.6720	29.2510
 1.6730	29.2500
 1.6740	29.2460
 1.6750	29.2400
 1.6760	29.2310
 1.6770	29.2230
 1.6780	29.2120
 1.6790	29.1990
 1.6800	29.1850
 1.6810	29.1690
 1.6820	29.1480
 1.6830	29.1270
 1.6840	29.1030
 1.6850	29.0770
 1.6860	29.0500
 1.6870	29.0220
 1.6880	28.9920
 1.6890	28.9590
 1.6900	28.9250
 1.6910	28.8870
 1.6920	28.8510
 1.6930	28.8150
 1.6940	28.7770
 1.6950	28.7410
 1.6960	28.7010
 1.6970	28.6600
 1.6980	28.6190
 1.6990	28.5770
 1.7000	28.5340
 1.7010	28.4880
 1.7020	28.4420
 1.7030	28.3940
 1.7040	28.3470
 1.7050	28.2990
 1.7060	28.2490
 1.7070	28.1970
 1.7080	28.1460
 1.7090	28.0930
 1.7100	28.0420
 1.7110	27.9910
 1.7120	27.9410
 1.7130	27.8890
 1.7140	27.8400
 1.7150	27.7910
 1.7160	27.7420
 1.7170	27.6960
 1.7180	27.6500
 1.7190	27.6030
 1.7200	27.5590
 1.7210	27.5150
 1.7220	27.4730
 1.7230	27.4310
 1.7240	27.3900
 1.7250	27.3480
 1.7260	27.3040
 1.7270	27.2610
 1.7280	27.2170
 1.7290	27.1750
 1.7300	27.1350
 1.7310	27.0940
 1.7320	27.0540
 1.7330	27.0120
 1.7340	26.9700
 1.7350	26.9270
 1.7360	26.8850
 1.7370	26.8400
 1.7380	26.7930
 1.7390	26.7430
 1.7400	26.6890
 1.7410	26.6330
 1.7420	26.5750
 1.7430	26.5150
 1.7440	26.4510
 1.7450	26.3860
 1.7460	26.3200
 1.7470	26.2530
 1.7480	26.1860
 1.7490	26.1170
 1.7500	26.0480
 1.7510	25.9790
 1.7520	25.9080
 1.7530	25.8380
 1.7540	25.7680
 1.7550	25.6960
 1.7560	25.6250
 1.7570	25.5550
 1.7580	25.4860
 1.7590	25.4190
 1.7600	25.3540
 1.7610	25.2890
 1.7620	25.2250
 1.7630	25.1600
 1.7640	25.0980
 1.7650	25.0410
 1.7660	24.9840
 1.7670	24.9290
 1.7680	24.8740
 1.7690	24.8170
 1.7700	24.7640
 1.7710	24.7120
 1.7720	24.6630
 1.7730	24.6180
 1.7740	24.5740
 1.7750	24.5310
 1.7760	24.4900
 1.7770	24.4520
 1.7780	24.4140
 1.7790	24.3750
 1.7800	24.3410
 1.7810	24.3090
 1.7820	24.2790
 1.7830	24.2540
 1.7840	24.2300
 1.7850	24.2070
 1.7860	24.1880
 1.7870	24.1720
 1.7880	24.1540
 1.7890	24.1400
 1.7900	24.1270
 1.7910	24.1170
 1.7920	24.1100
 1.7930	24.1050
 1.7940	24.1020
 1.7950	24.1000
 1.7960	24.1010
 1.7970	24.1010
 1.7980	24.1040
 1.7990	24.1040
 1.8000	24.1030
 1.8010	24.1050
 1.8020	24.1090
 1.8030	24.1140
 1.8040	24.1240
 1.8050	24.1310
 1.8060	24.1380
 1.8070	24.1450
 1.8080	24.1520
 1.8090	24.1590
 1.8100	24.1660
 1.8110	24.1720
 1.8120	24.1780
 1.8130	24.1840
 1.8140	24.1880
 1.8150	24.1900
 1.8160	24.1910
 1.8170	24.1930
 1.8180	24.1960
 1.8190	24.1970
 1.8200	24.1970
 1.8210	24.1920
 1.8220	24.1870
 1.8230	24.1830
 1.8240	24.1760
 1.8250	24.1690
 1.8260	24.1580
 1.8270	24.1460
 1.8280	24.1310
 1.8290	24.1120
 1.8300	24.0940
 1.8310	24.3470
 1.8320	24.3200
 1.8330	24.2880
 1.8340	24.2510
 1.8350	24.2130
 1.8360	24.1670
 1.8370	24.1190
 1.8380	24.0680
 1.8390	24.0110
 1.8400	23.9530
 1.8410	23.8840
 1.8420	23.8080
 1.8430	23.7260
 1.8440	23.6360
 1.8450	23.5360
 1.8460	23.4320
 1.8470	23.3180
 1.8480	23.1930
 1.8490	23.0570
 1.8500	22.9120
 1.8510	22.7550
 1.8520	22.5900
 1.8530	22.4120
 1.8540	22.2250
 1.8550	22.0280
 1.8560	21.8160
 1.8570	21.5880
 1.8580	21.3480
 1.8590	21.0930
 1.8600	20.8240
 1.8610	20.5410
 1.8620	20.2440
 1.8630	19.9350
 1.8640	19.6070
 1.8650	19.2590
 1.8660	18.8990
 1.8670	18.5190
 1.8680	18.1230
 1.8690	17.7150
 1.8700	17.2900
 1.8710	16.8470
 1.8720	16.3980
 1.8730	15.9410
 1.8740	15.4750
 1.8750	15.0100
 1.8760	14.5370
 1.8770	14.0600
 1.8780	13.5880
 1.8790	13.1170
 1.8800	12.6570
 1.8810	12.2040
 1.8820	11.7620
 1.8830	11.3240
 1.8840	10.8970
 1.8850	10.4770
 1.8860	10.0710
 1.8870	 9.6830
 1.8880	 9.3090
 1.8890	 8.9570
 1.8900	 8.6260
 1.8910	 8.3140
 1.8920	 8.0190
 1.8930	 7.7500
 1.8940	 7.5000
 1.8950	 7.2670
 1.8960	 7.0530
 1.8970	 6.8570
 1.8980	 6.6790
 1.8990	 6.5200
 1.9000	 6.3750
 1.9010	 6.2520
 1.9020	 6.1370
 1.9030	 6.0360
 1.9040	 5.9480
 1.9050	 5.8690
 1.9060	 5.7970
 1.9070	 5.7360
 1.9080	 5.6810
 1.9090	 5.6350
 1.9100	 5.5950
 1.9110	 5.5610
 1.9120	 5.5360
 1.9130	 5.5110
 1.9140	 5.4910
 1.9150	 5.4720
 1.9160	 5.4540
 1.9170	 5.4350
 1.9180	 5.4170
 1.9190	 5.4070
 1.9200	 5.4000
 1.9210	 5.3940
 1.9220	 5.3880
 1.9230	 5.3830
 1.9240	 5.3780
 1.9250	 5.3720
 1.9260	 5.3680
 1.9270	 5.3670
 1.9280	 5.3680
 1.9290	 5.3730
 1.9300	 5.3780
 1.9310	 5.3810
 1.9320	 5.3870
 1.9330	 5.3920
 1.9340	 5.3950
 1.9350	 5.4000
 1.9360	 5.4070
 1.9370	 5.4140
 1.9380	 5.4200
 1.9390	 5.4300
 1.9400	 5.4420
 1.9410	 5.4540
 1.9420	 5.4660
 1.9430	 5.4760
 1.9440	 5.4870
 1.9450	 5.4960
 1.9460	 5.5100
 1.9470	 5.5300
 1.9480	 5.5470
 1.9490	 5.5640
 1.9500	 5.5820
 1.9510	 5.6000
 1.9520	 5.6180
 1.9530	 5.6360
 1.9540	 5.6560
 1.9550	 5.6750
 1.9560	 5.6920
 1.9570	 5.7130
 1.9580	 5.7390
 1.9590	 5.7630
 1.9600	 5.7880
 1.9610	 5.8120
 1.9620	 5.8340
 1.9630	 5.8550
 1.9640	 5.8760
 1.9650	 5.9000
 1.9660	 5.9260
 1.9670	 5.9540
 1.9680	 5.9820
 1.9690	 6.0130
 1.9700	 6.0440
 1.9710	 6.0760
 1.9720	 6.1080
 1.9730	 6.1400
 1.9740	 6.1730
 1.9750	 6.2050
 1.9760	 6.2390
 1.9770	 6.2760
 1.9780	 6.3130
 1.9790	 6.3500
 1.9800	 6.3850
 1.9810	 6.4230
 1.9820	 6.4600
 1.9830	 6.4980
 1.9840	 6.5360
 1.9850	 6.5770
 1.9860	 6.6200
 1.9870	 6.6610
 1.9880	 6.7050
 1.9890	 6.7510
 1.9900	 6.7920
 1.9910	 6.8360
 1.9920	 6.8790
 1.9930	 6.9210
 1.9940	 6.9640
 1.9950	 7.0080
 1.9960	 7.0540
 1.9970	 7.1030
 1.9980	 7.1520
 1.9990	 7.2040
 2.0000	 7.2550
 2.0010	 7.3030
 2.0020	 7.3540
 2.0030	 7.4040
 2.0040	 7.4510
 2.0050	 7.5010
 2.0060	 7.5530
 2.0070	 7.6030
 2.0080	 7.6550
 2.0090	 7.7060
 2.0100	 7.7550
 2.0110	 7.8050
 2.0120	 7.8540
 2.0130	 7.9030
 2.0140	 7.9550
 2.0150	 8.0070
 2.0160	 8.0610
 2.0170	 8.1180
 2.0180	 8.1720
 2.0190	 8.2260
 2.0200	 8.2800
 2.0210	 8.3310
 2.0220	 8.3820
 2.0230	 8.4310
 2.0240	 8.4820
 2.0250	 8.5340
 2.0260	 8.5850
 2.0270	 8.6370
 2.0280	 8.6890
 2.0290	 8.7370
 2.0300	 8.7880
 2.0310	 8.8380
 2.0320	 8.8860
 2.0330	 8.9370
 2.0340	 8.9880
 2.0350	 9.0370
 2.0360	 9.0890
 2.0370	 9.1360
 2.0380	 9.1790
 2.0390	 9.2240
 2.0400	 9.2690
 2.0410	 9.3140
 2.0420	 9.3600
 2.0430	 9.4040
 2.0440	 9.4490
 2.0450	 9.4950
 2.0460	 9.5390
 2.0470	 9.5830
 2.0480	 9.6290
 2.0490	 9.6760
 2.0500	 9.7220
 2.0510	 9.7690
 2.0520	 9.8130
 2.0530	 9.8530
 2.0540	 9.8940
 2.0550	 9.9350
 2.0560	 9.9770
 2.0570	10.0210
 2.0580	10.0650
 2.0590	10.1080
 2.0600	10.1520
 2.0610	10.1970
 2.0620	10.2440
 2.0630	10.2870
 2.0640	10.3320
 2.0650	10.3750
 2.0660	10.4120
 2.0670	10.4540
 2.0680	10.4970
 2.0690	10.5410
 2.0700	10.5890
 2.0710	10.6350
 2.0720	10.6800
 2.0730	10.7280
 2.0740	10.7730
 2.0750	10.8170
 2.0760	10.8610
 2.0770	10.9060
 2.0780	10.9490
 2.0790	10.9900
 2.0800	11.0330
 2.0810	11.0750
 2.0820	11.1180
 2.0830	11.1630
 2.0840	11.2060
 2.0850	11.2470
 2.0860	11.2890
 2.0870	11.3310
 2.0880	11.3710
 2.0890	11.4120
 2.0900	11.4520
 2.0910	11.4930
 2.0920	11.5330
 2.0930	11.5720
 2.0940	11.6120
 2.0950	11.6520
 2.0960	11.6930
 2.0970	11.7340
 2.0980	11.7750
 2.0990	11.8160
 2.1000	11.8540
 2.1010	11.8940
 2.1020	11.9380
 2.1030	11.9780
 2.1040	12.0180
 2.1050	12.0560
 2.1060	12.0940
 2.1070	12.1300
 2.1080	12.1670
 2.1090	12.2040
 2.1100	12.2410
 2.1110	12.2780
 2.1120	12.3140
 2.1130	12.3500
 2.1140	12.3870
 2.1150	12.4250
 2.1160	12.4590
 2.1170	12.4900
 2.1180	12.5250
 2.1190	12.5580
 2.1200	12.5920
 2.1210	12.6290
 2.1220	12.6650
 2.1230	12.6970
 2.1240	12.7260
 2.1250	12.7550
 2.1260	12.7810
 2.1270	12.8090
 2.1280	12.8340
 2.1290	12.8640
 2.1300	12.8970
 2.1310	12.9280
 2.1320	12.9620
 2.1330	12.9940
 2.1340	13.0230
 2.1350	13.0520
 2.1360	13.0810
 2.1370	13.1080
 2.1380	13.1330
 2.1390	13.1610
 2.1400	13.1890
 2.1410	13.2170
 2.1420	13.2440
 2.1430	13.2730
 2.1440	13.3000
 2.1450	13.3250
 2.1460	13.3490
 2.1470	13.3720
 2.1480	13.3950
 2.1490	13.4160
 2.1500	13.4380
 2.1510	13.4620
 2.1520	13.4840
 2.1530	13.5070
 2.1540	13.5300
 2.1550	13.5540
 2.1560	13.5760
 2.1570	13.5960
 2.1580	13.6160
 2.1590	13.6380
 2.1600	13.6540
 2.1610	13.6750
 2.1620	13.6990
 2.1630	13.7210
 2.1640	13.7420
 2.1650	13.7630
 2.1660	13.7820
 2.1670	13.8000
 2.1680	13.8170
 2.1690	13.8340
 2.1700	13.8510
 2.1710	13.8680
 2.1720	13.8860
 2.1730	13.9040
 2.1740	13.9190
 2.1750	13.9370
 2.1760	13.9560
 2.1770	13.9750
 2.1780	13.9980
 2.1790	14.0170
 2.1800	14.0290
 2.1810	14.0470
 2.1820	14.0640
 2.1830	14.0810
 2.1840	14.1030
 2.1850	14.1290
 2.1860	14.1530
 2.1870	14.1780
 2.1880	14.2000
 2.1890	14.2240
 2.1900	14.2420
 2.1910	14.2530
 2.1920	14.2710
 2.1930	14.2900
 2.1940	14.3100
 2.1950	14.3380
 2.1960	14.3600
 2.1970	14.3770
 2.1980	14.3960
 2.1990	14.4140
 2.2000	14.4310
 2.2010	14.4470
 2.2020	14.4630
 2.2030	14.4780
 2.2040	14.4950
 2.2050	14.5140
 2.2060	14.5320
 2.2070	14.5470
 2.2080	14.5600
 2.2090	14.5720
 2.2100	14.5800
 2.2110	14.5910
 2.2120	14.6020
 2.2130	14.6170
 2.2140	14.6360
 2.2150	14.6470
 2.2160	14.6570
 2.2170	14.6650
 2.2180	14.6640
 2.2190	14.6700
 2.2200	14.6800
 2.2210	14.6860
 2.2220	14.6930
 2.2230	14.6970
 2.2240	14.7010
 2.2250	14.6990
 2.2260	14.6960
 2.2270	14.6880
 2.2280	14.6750
 2.2290	14.6610
 2.2300	14.6440
 2.2310	14.6250
 2.2320	14.6080
 2.2330	14.5870
 2.2340	14.5670
 2.2350	14.5490
 2.2360	14.5260
 2.2370	14.5030
 2.2380	14.4740
 2.2390	14.4410
 2.2400	14.4060
 2.2410	14.3670
 2.2420	14.3300
 2.2430	14.2950
 2.2440	14.2570
 2.2450	14.2190
 2.2460	14.1790
 2.2470	14.1340
 2.2480	14.0920
 2.2490	14.0530
 2.2500	14.0110
 2.2510	13.9700
 2.2520	13.9260
 2.2530	13.8750
 2.2540	13.8300
 2.2550	13.7880
 2.2560	13.7430
 2.2570	13.7010
 2.2580	13.6570
 2.2590	13.6060
 2.2600	13.5620
 2.2610	13.5230
 2.2620	13.4840
 2.2630	13.4430
 2.2640	13.4020
 2.2650	13.3600
 2.2660	13.3180
 2.2670	13.2750
 2.2680	13.2350
 2.2690	13.1920
 2.2700	13.1430
 2.2710	13.1010
 2.2720	13.0600
 2.2730	13.0210
 2.2740	12.9840
 2.2750	12.9470
 2.2760	12.9090
 2.2770	12.8720
 2.2780	12.8370
 2.2790	12.7980
 2.2800	12.7570
 2.2810	12.7180
 2.2820	12.6770
 2.2830	12.6360
 2.2840	12.5940
 2.2850	12.5540
 2.2860	12.5130
 2.2870	12.4750
 2.2880	12.4440
 2.2890	12.4060
 2.2900	12.3650
 2.2910	12.3230
 2.2920	12.2740
 2.2930	12.2270
 2.2940	12.1770
 2.2950	12.1320
 2.2960	12.0910
 2.2970	12.0490
 2.2980	12.0130
 2.2990	11.9720
 2.3000	11.9260
 2.3010	11.8870
 2.3020	11.8450
 2.3030	11.8000
 2.3040	11.7550
 2.3050	11.7120
 2.3060	11.6730
 2.3070	11.6380
 2.3080	11.6050
 2.3090	11.5650
 2.3100	11.5220
 2.3110	11.4880
 2.3120	11.4530
 2.3130	11.4170
 2.3140	11.3870
 2.3150	11.3600
 2.3160	11.3330
 2.3170	11.3100
 2.3180	11.2840
 2.3190	11.2560
 2.3200	11.2270
 2.3210	11.1960
 2.3220	11.1640
 2.3230	11.1330
 2.3240	11.1000
 2.3250	11.0660
 2.3260	11.0320
 2.3270	10.9980
 2.3280	10.9640
 2.3290	10.9290
 2.3300	10.8960
 2.3310	10.8640
 2.3320	10.8330
 2.3330	10.8060
 2.3340	10.7700
 2.3350	10.7250
 2.3360	10.6880
 2.3370	10.6470
 2.3380	10.6120
 2.3390	10.5920
 2.3400	10.5580
 2.3410	10.5160
 2.3420	10.4770
 2.3430	10.4280
 2.3440	10.3880
 2.3450	10.3560
 2.3460	10.3210
 2.3470	10.2920
 2.3480	10.2580
 2.3490	10.2190
 2.3500	10.1850
 2.3510	10.1510
 2.3520	10.1200
 2.3530	10.0970
 2.3540	10.0690
 2.3550	10.0360
 2.3560	10.0000
 2.3570	 9.9620
 2.3580	 9.9320
 2.3590	 9.9150
 2.3600	 9.8960
 2.3610	 9.8700
 2.3620	 9.8350
 2.3630	 9.7900
 2.3640	 9.7570
 2.3650	 9.7280
 2.3660	 9.6990
 2.3670	 9.6770
 2.3680	 9.6500
 2.3690	 9.6210
 2.3700	 9.5900
 2.3710	 9.5540
 2.3720	 9.5210
 2.3730	 9.4850
 2.3740	 9.4540
 2.3750	 9.4230
 2.3760	 9.3810
 2.3770	 9.3440
 2.3780	 9.3060
 2.3790	 9.2790
 2.3800	 9.2490
 2.3810	 9.2120
 2.3820	 9.1860
 2.3830	 9.1540
 2.3840	 9.1270
 2.3850	 9.0960
 2.3860	 9.0570
 2.3870	 9.0160
 2.3880	 8.9710
 2.3890	 8.9430
 2.3900	 8.9120
 2.3910	 8.8750
 2.3920	 8.8470
 2.3930	 8.8130
 2.3940	 8.7780
 2.3950	 8.7450
 2.3960	 8.7080
 2.3970	 8.6700
 2.3980	 8.6290
 2.3990	 8.6010
 2.4000	 8.5720
 2.4010	 8.5270
 2.4020	 8.4950
 2.4030	 8.4680
 2.4040	 8.4260
 2.4050	 8.3980
 2.4060	 8.3680
 2.4070	 8.3280
 2.4080	 8.3000
 2.4090	 8.2730
 2.4100	 8.2380
 2.4110	 8.2090
 2.4120	 8.1750
 2.4130	 8.1340
 2.4140	 8.0980
 2.4150	 8.0550
 2.4160	 8.0140
 2.4170	 7.9820
 2.4180	 7.9490
 2.4190	 7.9210
 2.4200	 7.8960
 2.4210	 7.8620
 2.4220	 7.8340
 2.4230	 7.8080
 2.4240	 7.7670
 2.4250	 7.7280
 2.4260	 7.6940
 2.4270	 7.6450
 2.4280	 7.6050
 2.4290	 7.5640
 2.4300	 7.5130
 2.4310	 7.4860
 2.4320	 7.4540
 2.4330	 7.4320
 2.4340	 7.4240
 2.4350	 7.3970
 2.4360	 7.3690
 2.4370	 7.3380
 2.4380	 7.3010
 2.4390	 7.2750
 2.4400	 7.2670
 2.4410	 7.2440
 2.4420	 7.2230
 2.4430	 7.2050
 2.4440	 7.1640
 2.4450	 7.1470
 2.4460	 7.1360
 2.4470	 7.1000
 2.4480	 7.0620
 2.4490	 7.0220
 2.4500	 6.9780
 2.4510	 6.9560
 2.4520	 6.9380
 2.4530	 6.9060
 2.4540	 6.8930
 2.4550	 6.8780
 2.4560	 6.8560
 2.4570	 6.8460
 2.4580	 6.8180
 2.4590	 6.7850
 2.4600	 6.7710
 2.4610	 6.7550
 2.4620	 6.7350
 2.4630	 6.7130
 2.4640	 6.6800
 2.4650	 6.6550
 2.4660	 6.6200
 2.4670	 6.5890
 2.4680	 6.5820
 2.4690	 6.5750
 2.4700	 6.5730
 2.4710	 6.5730
 2.4720	 6.5640
 2.4730	 6.5690
 2.4740	 6.5480
 2.4750	 6.4970
 2.4760	 6.4670
 2.4770	 6.4180
 2.4780	 6.4140
 2.4790	 6.4550
 2.4800	 6.4730
 2.4810	 6.5160
 2.4820	 6.4810
 2.4830	 6.4490
 2.4840	 6.4240
 2.4850	 6.4110
 2.4860	 6.4390
 2.4870	 6.4510
 2.4880	 6.4130
 2.4890	 6.3840
 2.4900	 6.3450
 2.4910	 6.3270
 2.4920	 6.3750
 2.4930	 6.4240
 2.4940	 6.4340
 2.4950	 6.4500
 2.4960	 6.4150
 2.4970	 6.3330
 2.4980	 6.2870
 2.4990	 6.2220
 2.5000	 6.1660
