Name: Jacaranda mimosifolia
Type: vegetation
Class: Tree
Genus: Jacaranda
Species: mimosifolia
Sample No.: JPL204
Owner: JPL
Wavelength Range: TIR
Origin: 34.12571; -118.11267; WGS84
Collection Date: 10/3/2016
Description: Samples were collected at the Huntington Garden in San Marino California as part of a JPL Subcontract studying HyTES imagery. Samples were taken to JPL and processed within 48 hours of collection. The same leaves were processed in the Nicolet and then measured using the ASD.
Measurement: Hemispherical reflectance
First Column: X
Second Column: Y
X Units: Wavelength (micrometer)
Y Units: Reflectance (percentage)
First X Value: 2.501
Last X Value: 15.387
Number of X Values: 1737
Additional Information: vegetation.tree.jacaranda.mimosifolia.tir.jpl204.jpl.nicolet.ancillary.txt

 2.5010	 9.0180
 2.5030	 9.0450
 2.5040	 9.0310
 2.5050	 8.9610
 2.5060	 8.8510
 2.5070	 8.8290
 2.5090	 8.8710
 2.5100	 8.8800
 2.5110	 8.8480
 2.5120	 8.8540
 2.5140	 8.8230
 2.5150	 8.7620
 2.5160	 8.7480
 2.5170	 8.7720
 2.5180	 8.8070
 2.5200	 8.8160
 2.5210	 8.8400
 2.5220	 8.8410
 2.5230	 8.7840
 2.5250	 8.7390
 2.5260	 8.7510
 2.5270	 8.7580
 2.5280	 8.7900
 2.5300	 8.7720
 2.5310	 8.7160
 2.5320	 8.5860
 2.5330	 8.5250
 2.5340	 8.5940
 2.5360	 8.4760
 2.5370	 8.5120
 2.5380	 8.7720
 2.5390	 8.8590
 2.5410	 8.8710
 2.5420	 8.6220
 2.5430	 8.3220
 2.5440	 8.4750
 2.5460	 8.7210
 2.5470	 8.6630
 2.5480	 8.4200
 2.5490	 8.5770
 2.5510	 8.5980
 2.5520	 8.4050
 2.5530	 8.3140
 2.5540	 8.6300
 2.5560	 8.9390
 2.5570	 8.9380
 2.5580	 8.9040
 2.5590	 8.6230
 2.5610	 7.9340
 2.5620	 7.4340
 2.5630	 7.4790
 2.5650	 7.6810
 2.5660	 8.2800
 2.5670	 8.7830
 2.5680	 8.5930
 2.5700	 8.0420
 2.5710	 8.2250
 2.5720	 8.5210
 2.5730	 7.8210
 2.5750	 7.9230
 2.5760	 8.1760
 2.5770	 7.8610
 2.5790	 8.3330
 2.5800	 8.6170
 2.5810	 8.0990
 2.5820	 7.9890
 2.5840	 7.4410
 2.5850	 7.4110
 2.5860	 8.0200
 2.5880	 7.6750
 2.5890	 7.7900
 2.5900	 8.1470
 2.5910	 8.4720
 2.5930	 8.1020
 2.5940	 6.8050
 2.5950	 5.7160
 2.5970	 6.7380
 2.5980	 8.0340
 2.5990	 8.5210
 2.6010	 8.3200
 2.6020	 7.8950
 2.6030	 7.6730
 2.6040	 7.2080
 2.6060	 6.7680
 2.6070	 7.0760
 2.6080	 7.5210
 2.6100	 7.6360
 2.6110	 7.8670
 2.6120	 8.0080
 2.6140	 7.8220
 2.6150	 7.8370
 2.6160	 7.0280
 2.6180	 6.5080
 2.6190	 7.1300
 2.6200	 6.8930
 2.6220	 7.0850
 2.6230	 7.9490
 2.6240	 8.0590
 2.6260	 7.6850
 2.6270	 6.9000
 2.6280	 7.1530
 2.6300	 6.9450
 2.6310	 6.2810
 2.6320	 6.8810
 2.6340	 7.1840
 2.6350	 7.2280
 2.6360	 7.6430
 2.6380	 7.7310
 2.6390	 7.6830
 2.6400	 7.5600
 2.6420	 7.4010
 2.6430	 7.3500
 2.6440	 7.3880
 2.6460	 6.9750
 2.6470	 7.0230
 2.6480	 7.3390
 2.6500	 7.4040
 2.6510	 7.1450
 2.6520	 6.6280
 2.6540	 6.6130
 2.6550	 6.7290
 2.6570	 6.6900
 2.6580	 6.9530
 2.6590	 6.5330
 2.6610	 6.2770
 2.6620	 6.3970
 2.6630	 6.4070
 2.6650	 5.6190
 2.6660	 4.9930
 2.6670	 5.0710
 2.6690	 5.5510
 2.6700	 5.0560
 2.6720	 4.9950
 2.6730	 5.9000
 2.6740	 6.0280
 2.6760	 5.5280
 2.6770	 4.9630
 2.6780	 5.0850
 2.6800	 5.3830
 2.6810	 6.0060
 2.6830	 6.1420
 2.6840	 5.8760
 2.6850	 5.9050
 2.6870	 5.8730
 2.6880	 5.9340
 2.6900	 6.0300
 2.6910	 6.1270
 2.6920	 5.8340
 2.6940	 5.1550
 2.6950	 5.0200
 2.6970	 5.4620
 2.6980	 5.8740
 2.6990	 5.9660
 2.7010	 5.6630
 2.7020	 5.5350
 2.7040	 5.9150
 2.7050	 6.0410
 2.7060	 5.9290
 2.7080	 5.7000
 2.7090	 5.1850
 2.7110	 4.7860
 2.7120	 4.9580
 2.7130	 5.5940
 2.7150	 5.7980
 2.7160	 5.7800
 2.7180	 5.5650
 2.7190	 5.1570
 2.7210	 4.3670
 2.7220	 4.6260
 2.7230	 4.9620
 2.7250	 4.6390
 2.7260	 5.0110
 2.7280	 5.6370
 2.7290	 5.8400
 2.7310	 5.7800
 2.7320	 5.6540
 2.7340	 5.4640
 2.7350	 5.0570
 2.7360	 5.2150
 2.7380	 5.2610
 2.7390	 4.5600
 2.7410	 4.2230
 2.7420	 4.5710
 2.7440	 5.2210
 2.7450	 5.5380
 2.7470	 5.5780
 2.7480	 5.5680
 2.7490	 5.5110
 2.7510	 5.4650
 2.7520	 5.3630
 2.7540	 5.1980
 2.7550	 4.4680
 2.7570	 4.5250
 2.7580	 5.2530
 2.7600	 5.5330
 2.7610	 5.3480
 2.7630	 4.9020
 2.7640	 4.8780
 2.7660	 5.1500
 2.7670	 5.0590
 2.7690	 5.0420
 2.7700	 5.0650
 2.7720	 4.9450
 2.7730	 5.1560
 2.7740	 5.4720
 2.7760	 5.4600
 2.7770	 5.3330
 2.7790	 5.2620
 2.7800	 5.2220
 2.7820	 5.1710
 2.7830	 5.2890
 2.7850	 5.3790
 2.7860	 5.0570
 2.7880	 4.7740
 2.7890	 5.1170
 2.7910	 5.4590
 2.7920	 5.4940
 2.7940	 5.4270
 2.7950	 5.4640
 2.7970	 5.4720
 2.7980	 5.4780
 2.8000	 5.4540
 2.8010	 5.2550
 2.8030	 4.8540
 2.8040	 4.7930
 2.8060	 5.0620
 2.8080	 5.3050
 2.8090	 5.4130
 2.8110	 5.5030
 2.8120	 5.5720
 2.8140	 5.4730
 2.8150	 5.2920
 2.8170	 5.3280
 2.8180	 5.3180
 2.8200	 5.2120
 2.8210	 5.2260
 2.8230	 5.4130
 2.8240	 5.5390
 2.8260	 5.5640
 2.8270	 5.5100
 2.8290	 5.4860
 2.8310	 5.5110
 2.8320	 5.5420
 2.8340	 5.4790
 2.8350	 5.4160
 2.8370	 5.4310
 2.8380	 5.4040
 2.8400	 5.4150
 2.8410	 5.5050
 2.8430	 5.5220
 2.8440	 5.5610
 2.8460	 5.5030
 2.8480	 5.4670
 2.8490	 5.4030
 2.8510	 5.4480
 2.8520	 5.5280
 2.8540	 5.4590
 2.8550	 5.3860
 2.8570	 5.5340
 2.8590	 5.5090
 2.8600	 5.4790
 2.8620	 5.5660
 2.8630	 5.6380
 2.8650	 5.5940
 2.8660	 5.6380
 2.8680	 5.6220
 2.8700	 5.5850
 2.8710	 5.5540
 2.8730	 5.5690
 2.8740	 5.6160
 2.8760	 5.6420
 2.8780	 5.5800
 2.8790	 5.5570
 2.8810	 5.5210
 2.8820	 5.5380
 2.8840	 5.5250
 2.8860	 5.5980
 2.8870	 5.6250
 2.8890	 5.5890
 2.8900	 5.5910
 2.8920	 5.6140
 2.8940	 5.6150
 2.8950	 5.6110
 2.8970	 5.6180
 2.8990	 5.5960
 2.9000	 5.4780
 2.9020	 5.4530
 2.9030	 5.5440
 2.9050	 5.5580
 2.9070	 5.5790
 2.9080	 5.6670
 2.9100	 5.6720
 2.9120	 5.6350
 2.9130	 5.6380
 2.9150	 5.6260
 2.9160	 5.6240
 2.9180	 5.6440
 2.9200	 5.6240
 2.9210	 5.6260
 2.9230	 5.6000
 2.9250	 5.6070
 2.9260	 5.6550
 2.9280	 5.7070
 2.9300	 5.7060
 2.9310	 5.7040
 2.9330	 5.6770
 2.9350	 5.6970
 2.9360	 5.7160
 2.9380	 5.7020
 2.9400	 5.6680
 2.9410	 5.6840
 2.9430	 5.6630
 2.9450	 5.7080
 2.9460	 5.7290
 2.9480	 5.7120
 2.9500	 5.7440
 2.9510	 5.7090
 2.9530	 5.6630
 2.9550	 5.7060
 2.9560	 5.7170
 2.9580	 5.7210
 2.9600	 5.7340
 2.9610	 5.7180
 2.9630	 5.6960
 2.9650	 5.7570
 2.9670	 5.7570
 2.9680	 5.6990
 2.9700	 5.6380
 2.9720	 5.6940
 2.9730	 5.7470
 2.9750	 5.7630
 2.9770	 5.7510
 2.9780	 5.7820
 2.9800	 5.7900
 2.9820	 5.8160
 2.9840	 5.8170
 2.9850	 5.7480
 2.9870	 5.6640
 2.9890	 5.6820
 2.9900	 5.7020
 2.9920	 5.7350
 2.9940	 5.7860
 2.9960	 5.7890
 2.9970	 5.7180
 2.9990	 5.7290
 3.0010	 5.7770
 3.0030	 5.8430
 3.0040	 5.7590
 3.0060	 5.6820
 3.0080	 5.6680
 3.0100	 5.6780
 3.0110	 5.7380
 3.0130	 5.7770
 3.0150	 5.7450
 3.0170	 5.7310
 3.0180	 5.7430
 3.0200	 5.7360
 3.0220	 5.7010
 3.0240	 5.7660
 3.0250	 5.8620
 3.0270	 5.8820
 3.0290	 5.8350
 3.0310	 5.8110
 3.0320	 5.7540
 3.0340	 5.7300
 3.0360	 5.7390
 3.0380	 5.7480
 3.0400	 5.7650
 3.0410	 5.7940
 3.0430	 5.8030
 3.0450	 5.8020
 3.0470	 5.7390
 3.0480	 5.7360
 3.0500	 5.7910
 3.0520	 5.8170
 3.0540	 5.7500
 3.0560	 5.7140
 3.0570	 5.7530
 3.0590	 5.8330
 3.0610	 5.8390
 3.0630	 5.8130
 3.0650	 5.7860
 3.0670	 5.7670
 3.0680	 5.7870
 3.0700	 5.8450
 3.0720	 5.7820
 3.0740	 5.7290
 3.0760	 5.6990
 3.0770	 5.7090
 3.0790	 5.7550
 3.0810	 5.7890
 3.0830	 5.7420
 3.0850	 5.7640
 3.0870	 5.7700
 3.0880	 5.7460
 3.0900	 5.7380
 3.0920	 5.7590
 3.0940	 5.8080
 3.0960	 5.8150
 3.0980	 5.7690
 3.1000	 5.7760
 3.1010	 5.7670
 3.1030	 5.7670
 3.1050	 5.7510
 3.1070	 5.7500
 3.1090	 5.7510
 3.1110	 5.7390
 3.1130	 5.7790
 3.1140	 5.8030
 3.1160	 5.8120
 3.1180	 5.8610
 3.1200	 5.8510
 3.1220	 5.8430
 3.1240	 5.8280
 3.1260	 5.7640
 3.1280	 5.7030
 3.1290	 5.7760
 3.1310	 5.8120
 3.1330	 5.8020
 3.1350	 5.7810
 3.1370	 5.7860
 3.1390	 5.8070
 3.1410	 5.8530
 3.1430	 5.8460
 3.1450	 5.8190
 3.1470	 5.7820
 3.1480	 5.7720
 3.1500	 5.7760
 3.1520	 5.8000
 3.1540	 5.8240
 3.1560	 5.8180
 3.1580	 5.8050
 3.1600	 5.7680
 3.1620	 5.7920
 3.1640	 5.8420
 3.1660	 5.8120
 3.1680	 5.7880
 3.1700	 5.7650
 3.1720	 5.7740
 3.1730	 5.7690
 3.1750	 5.7740
 3.1770	 5.7620
 3.1790	 5.7730
 3.1810	 5.7730
 3.1830	 5.7640
 3.1850	 5.7740
 3.1870	 5.7920
 3.1890	 5.8020
 3.1910	 5.7780
 3.1930	 5.7570
 3.1950	 5.8340
 3.1970	 5.8510
 3.1990	 5.8200
 3.2010	 5.7940
 3.2030	 5.7500
 3.2050	 5.7210
 3.2070	 5.7220
 3.2090	 5.7480
 3.2110	 5.8190
 3.2130	 5.8110
 3.2150	 5.7920
 3.2170	 5.7740
 3.2190	 5.7840
 3.2210	 5.7920
 3.2230	 5.7850
 3.2250	 5.8060
 3.2270	 5.8040
 3.2290	 5.7630
 3.2310	 5.7510
 3.2330	 5.7470
 3.2350	 5.7440
 3.2370	 5.7670
 3.2390	 5.7860
 3.2410	 5.7670
 3.2430	 5.7410
 3.2450	 5.6970
 3.2470	 5.6850
 3.2490	 5.7340
 3.2510	 5.8140
 3.2530	 5.8110
 3.2550	 5.7820
 3.2570	 5.7570
 3.2590	 5.7420
 3.2610	 5.7150
 3.2630	 5.7130
 3.2650	 5.7190
 3.2670	 5.7390
 3.2700	 5.7190
 3.2720	 5.7220
 3.2740	 5.7520
 3.2760	 5.7750
 3.2780	 5.7610
 3.2800	 5.7250
 3.2820	 5.7030
 3.2840	 5.7180
 3.2860	 5.6950
 3.2880	 5.7300
 3.2900	 5.7250
 3.2920	 5.7100
 3.2940	 5.7010
 3.2970	 5.7160
 3.2990	 5.6770
 3.3010	 5.6620
 3.3030	 5.7030
 3.3050	 5.7490
 3.3070	 5.7230
 3.3090	 5.6870
 3.3110	 5.6510
 3.3130	 5.6850
 3.3160	 5.7090
 3.3180	 5.7200
 3.3200	 5.7060
 3.3220	 5.6690
 3.3240	 5.6630
 3.3260	 5.6670
 3.3280	 5.6640
 3.3300	 5.6560
 3.3330	 5.6440
 3.3350	 5.6620
 3.3370	 5.6400
 3.3390	 5.6100
 3.3410	 5.6560
 3.3430	 5.6740
 3.3450	 5.6080
 3.3480	 5.5830
 3.3500	 5.6130
 3.3520	 5.6170
 3.3540	 5.6070
 3.3560	 5.6020
 3.3580	 5.6030
 3.3610	 5.6080
 3.3630	 5.5700
 3.3650	 5.5930
 3.3670	 5.6120
 3.3690	 5.5920
 3.3720	 5.5900
 3.3740	 5.5810
 3.3760	 5.5450
 3.3780	 5.5980
 3.3800	 5.6260
 3.3830	 5.5960
 3.3850	 5.6090
 3.3870	 5.6210
 3.3890	 5.5860
 3.3910	 5.5910
 3.3940	 5.5710
 3.3960	 5.5690
 3.3980	 5.5850
 3.4000	 5.6270
 3.4030	 5.6420
 3.4050	 5.6620
 3.4070	 5.7290
 3.4090	 5.8380
 3.4110	 5.9220
 3.4140	 6.0140
 3.4160	 6.1460
 3.4180	 6.3030
 3.4200	 6.4940
 3.4230	 6.7980
 3.4250	 7.1430
 3.4270	 7.4620
 3.4300	 7.5770
 3.4320	 7.3310
 3.4340	 6.9240
 3.4360	 6.6300
 3.4390	 6.4670
 3.4410	 6.3770
 3.4430	 6.2820
 3.4450	 6.2510
 3.4480	 6.2220
 3.4500	 6.2370
 3.4520	 6.2420
 3.4550	 6.1970
 3.4570	 6.1440
 3.4590	 6.1410
 3.4620	 6.1670
 3.4640	 6.1480
 3.4660	 6.0820
 3.4690	 6.0390
 3.4710	 6.0190
 3.4730	 6.0280
 3.4760	 6.0520
 3.4780	 6.0200
 3.4800	 5.9730
 3.4830	 5.9420
 3.4850	 5.9310
 3.4870	 5.9290
 3.4900	 5.9300
 3.4920	 5.9610
 3.4940	 5.9600
 3.4970	 5.9450
 3.4990	 5.9740
 3.5010	 6.0450
 3.5040	 6.1940
 3.5060	 6.4620
 3.5080	 6.8590
 3.5110	 7.2130
 3.5130	 7.1190
 3.5160	 6.7620
 3.5180	 6.5040
 3.5200	 6.4010
 3.5230	 6.3180
 3.5250	 6.2470
 3.5280	 6.1690
 3.5300	 6.1450
 3.5320	 6.1520
 3.5350	 6.1270
 3.5370	 6.1110
 3.5400	 6.1090
 3.5420	 6.1080
 3.5440	 6.1060
 3.5470	 6.0750
 3.5490	 6.0370
 3.5520	 6.0270
 3.5540	 6.0310
 3.5570	 6.0640
 3.5590	 6.1000
 3.5610	 6.0960
 3.5640	 6.0640
 3.5660	 6.0340
 3.5690	 6.0100
 3.5710	 6.0160
 3.5740	 6.0360
 3.5760	 6.0280
 3.5790	 6.0250
 3.5810	 6.0420
 3.5840	 6.0430
 3.5860	 6.0150
 3.5890	 6.0130
 3.5910	 6.0520
 3.5940	 6.0280
 3.5960	 6.0510
 3.5990	 6.0440
 3.6010	 6.0030
 3.6040	 6.0210
 3.6060	 6.0360
 3.6090	 6.0250
 3.6110	 6.0180
 3.6140	 6.0120
 3.6160	 6.0000
 3.6190	 5.9810
 3.6210	 5.9610
 3.6240	 5.9700
 3.6260	 6.0100
 3.6290	 6.0310
 3.6310	 6.0330
 3.6340	 6.0050
 3.6360	 5.9850
 3.6390	 5.9670
 3.6410	 5.9510
 3.6440	 5.9890
 3.6470	 5.9940
 3.6490	 5.9820
 3.6520	 5.9790
 3.6540	 5.9760
 3.6570	 5.9910
 3.6590	 6.0190
 3.6620	 6.0220
 3.6650	 5.9970
 3.6670	 5.9880
 3.6700	 5.9960
 3.6720	 6.0180
 3.6750	 6.0110
 3.6780	 5.9750
 3.6800	 5.9930
 3.6830	 6.0330
 3.6850	 6.0080
 3.6880	 5.9980
 3.6910	 6.0110
 3.6930	 6.0300
 3.6960	 6.0060
 3.6990	 5.9710
 3.7010	 5.9620
 3.7040	 5.9640
 3.7070	 5.9780
 3.7090	 5.9940
 3.7120	 6.0130
 3.7150	 6.0280
 3.7170	 6.0120
 3.7200	 6.0050
 3.7230	 6.0090
 3.7250	 6.0220
 3.7280	 6.0050
 3.7310	 5.9860
 3.7330	 6.0090
 3.7360	 6.0500
 3.7390	 6.0650
 3.7410	 6.0380
 3.7440	 6.0200
 3.7470	 6.0400
 3.7490	 6.0530
 3.7520	 6.0550
 3.7550	 6.0620
 3.7580	 6.0310
 3.7600	 6.0290
 3.7630	 6.0560
 3.7660	 6.0720
 3.7690	 6.0350
 3.7710	 6.0420
 3.7740	 6.0900
 3.7770	 6.0830
 3.7790	 6.0910
 3.7820	 6.1260
 3.7850	 6.1560
 3.7880	 6.1310
 3.7910	 6.1090
 3.7930	 6.1030
 3.7960	 6.1350
 3.7990	 6.1260
 3.8020	 6.0850
 3.8040	 6.0970
 3.8070	 6.1320
 3.8100	 6.1210
 3.8130	 6.1320
 3.8160	 6.1600
 3.8180	 6.1740
 3.8210	 6.1550
 3.8240	 6.1580
 3.8270	 6.1690
 3.8300	 6.1610
 3.8330	 6.1520
 3.8350	 6.1270
 3.8380	 6.1160
 3.8410	 6.1150
 3.8440	 6.1120
 3.8470	 6.1330
 3.8500	 6.2000
 3.8520	 6.2270
 3.8550	 6.1900
 3.8580	 6.1620
 3.8610	 6.1800
 3.8640	 6.2010
 3.8670	 6.1980
 3.8700	 6.2060
 3.8730	 6.2540
 3.8760	 6.2350
 3.8780	 6.1870
 3.8810	 6.1980
 3.8840	 6.2060
 3.8870	 6.2140
 3.8900	 6.2240
 3.8930	 6.2030
 3.8960	 6.2070
 3.8990	 6.2240
 3.9020	 6.2180
 3.9050	 6.2230
 3.9080	 6.2120
 3.9110	 6.2280
 3.9140	 6.2470
 3.9170	 6.2400
 3.9190	 6.2410
 3.9220	 6.2750
 3.9250	 6.2690
 3.9280	 6.2380
 3.9310	 6.2070
 3.9340	 6.2610
 3.9370	 6.2620
 3.9400	 6.2330
 3.9430	 6.2210
 3.9460	 6.2420
 3.9490	 6.2520
 3.9520	 6.2410
 3.9550	 6.2230
 3.9580	 6.2530
 3.9610	 6.2620
 3.9640	 6.2420
 3.9670	 6.2580
 3.9700	 6.2850
 3.9740	 6.2830
 3.9770	 6.2770
 3.9800	 6.2790
 3.9830	 6.2700
 3.9860	 6.2750
 3.9890	 6.2860
 3.9920	 6.2940
 3.9950	 6.3000
 3.9980	 6.2780
 4.0010	 6.2940
 4.0040	 6.2790
 4.0070	 6.2710
 4.0100	 6.2720
 4.0140	 6.2780
 4.0170	 6.2670
 4.0200	 6.2550
 4.0230	 6.2390
 4.0260	 6.2630
 4.0290	 6.3170
 4.0320	 6.3140
 4.0350	 6.3030
 4.0390	 6.3100
 4.0420	 6.2980
 4.0450	 6.3030
 4.0480	 6.3140
 4.0510	 6.3180
 4.0540	 6.3070
 4.0570	 6.2810
 4.0610	 6.2710
 4.0640	 6.3070
 4.0670	 6.3200
 4.0700	 6.3150
 4.0730	 6.2980
 4.0770	 6.3010
 4.0800	 6.3030
 4.0830	 6.2870
 4.0860	 6.2810
 4.0890	 6.2800
 4.0930	 6.2830
 4.0960	 6.2850
 4.0990	 6.2530
 4.1020	 6.2560
 4.1060	 6.2930
 4.1090	 6.3150
 4.1120	 6.2890
 4.1150	 6.2940
 4.1190	 6.3200
 4.1220	 6.3220
 4.1250	 6.2710
 4.1290	 6.2610
 4.1320	 6.3060
 4.1350	 6.3120
 4.1380	 6.2760
 4.1420	 6.2890
 4.1450	 6.2910
 4.1480	 6.2810
 4.1520	 6.2590
 4.1550	 6.2720
 4.1580	 6.2680
 4.1620	 6.2630
 4.1650	 6.2540
 4.1680	 6.2690
 4.1720	 6.2680
 4.1750	 6.2460
 4.1780	 6.2360
 4.1820	 6.2510
 4.1850	 6.2560
 4.1890	 6.2600
 4.1920	 6.2200
 4.1950	 6.1670
 4.1990	 6.1630
 4.2020	 6.1910
 4.2060	 6.1870
 4.2090	 6.1290
 4.2120	 6.0680
 4.2160	 6.0650
 4.2190	 6.0480
 4.2230	 6.0450
 4.2260	 6.0120
 4.2300	 5.9780
 4.2330	 5.9230
 4.2360	 5.8670
 4.2400	 5.9160
 4.2430	 6.0120
 4.2470	 6.0100
 4.2500	 6.0040
 4.2540	 6.0480
 4.2570	 6.0710
 4.2610	 6.0620
 4.2640	 6.0170
 4.2680	 5.9820
 4.2710	 6.0010
 4.2750	 5.9960
 4.2780	 6.0120
 4.2820	 6.0000
 4.2850	 5.9640
 4.2890	 5.8950
 4.2930	 5.8980
 4.2960	 5.9040
 4.3000	 5.8970
 4.3030	 5.8960
 4.3070	 5.9390
 4.3100	 5.9670
 4.3140	 5.9490
 4.3180	 5.9050
 4.3210	 5.9310
 4.3250	 5.9450
 4.3280	 5.9410
 4.3320	 5.9400
 4.3360	 5.9530
 4.3390	 5.8980
 4.3430	 5.8800
 4.3470	 5.8980
 4.3500	 5.9250
 4.3540	 5.9160
 4.3580	 5.9110
 4.3610	 5.9080
 4.3650	 5.9020
 4.3690	 5.8780
 4.3720	 5.8960
 4.3760	 5.8840
 4.3800	 5.8820
 4.3830	 5.8680
 4.3870	 5.8710
 4.3910	 5.8730
 4.3940	 5.8690
 4.3980	 5.8440
 4.4020	 5.8310
 4.4060	 5.8380
 4.4090	 5.8440
 4.4130	 5.8190
 4.4170	 5.8020
 4.4210	 5.8340
 4.4240	 5.8660
 4.4280	 5.8210
 4.4320	 5.7800
 4.4360	 5.7760
 4.4400	 5.7890
 4.4430	 5.7830
 4.4470	 5.8060
 4.4510	 5.8120
 4.4550	 5.7850
 4.4590	 5.7580
 4.4630	 5.7740
 4.4660	 5.8060
 4.4700	 5.8020
 4.4740	 5.7740
 4.4780	 5.7680
 4.4820	 5.7410
 4.4860	 5.7580
 4.4900	 5.7440
 4.4930	 5.7240
 4.4970	 5.7190
 4.5010	 5.7380
 4.5050	 5.7370
 4.5090	 5.7310
 4.5130	 5.7340
 4.5170	 5.7320
 4.5210	 5.7350
 4.5250	 5.7600
 4.5290	 5.7680
 4.5330	 5.7680
 4.5370	 5.7190
 4.5410	 5.6930
 4.5450	 5.7000
 4.5490	 5.7080
 4.5530	 5.6930
 4.5570	 5.7120
 4.5610	 5.7030
 4.5650	 5.6940
 4.5690	 5.6630
 4.5730	 5.6560
 4.5770	 5.6650
 4.5810	 5.6740
 4.5850	 5.6660
 4.5890	 5.6950
 4.5930	 5.6780
 4.5970	 5.6710
 4.6010	 5.6590
 4.6050	 5.6630
 4.6090	 5.6490
 4.6130	 5.6470
 4.6170	 5.6640
 4.6220	 5.7070
 4.6260	 5.6510
 4.6300	 5.6330
 4.6340	 5.6500
 4.6380	 5.6720
 4.6420	 5.6640
 4.6460	 5.6530
 4.6510	 5.6150
 4.6550	 5.6250
 4.6590	 5.6470
 4.6630	 5.6630
 4.6670	 5.6430
 4.6720	 5.6290
 4.6760	 5.6120
 4.6800	 5.6330
 4.6840	 5.6210
 4.6880	 5.6410
 4.6930	 5.6160
 4.6970	 5.6210
 4.7010	 5.6120
 4.7050	 5.6070
 4.7100	 5.6300
 4.7140	 5.6580
 4.7180	 5.6580
 4.7230	 5.6350
 4.7270	 5.5940
 4.7310	 5.6160
 4.7360	 5.6200
 4.7400	 5.6060
 4.7440	 5.5850
 4.7490	 5.5980
 4.7530	 5.5570
 4.7570	 5.5790
 4.7620	 5.5770
 4.7660	 5.5770
 4.7700	 5.6020
 4.7750	 5.6200
 4.7790	 5.5920
 4.7840	 5.5970
 4.7880	 5.5870
 4.7920	 5.5690
 4.7970	 5.5550
 4.8010	 5.5830
 4.8060	 5.5850
 4.8100	 5.5920
 4.8150	 5.5790
 4.8190	 5.5640
 4.8240	 5.5460
 4.8280	 5.5790
 4.8330	 5.5710
 4.8370	 5.5590
 4.8420	 5.5030
 4.8460	 5.5230
 4.8510	 5.5560
 4.8550	 5.6020
 4.8600	 5.6230
 4.8640	 5.6210
 4.8690	 5.5700
 4.8740	 5.5600
 4.8780	 5.5750
 4.8830	 5.6280
 4.8870	 5.5980
 4.8920	 5.5940
 4.8970	 5.5450
 4.9010	 5.5610
 4.9060	 5.5750
 4.9100	 5.5810
 4.9150	 5.5730
 4.9200	 5.5860
 4.9240	 5.5890
 4.9290	 5.6060
 4.9340	 5.5490
 4.9390	 5.5320
 4.9430	 5.5390
 4.9480	 5.5930
 4.9530	 5.5790
 4.9570	 5.5250
 4.9620	 5.5390
 4.9670	 5.5780
 4.9720	 5.5680
 4.9760	 5.6080
 4.9810	 5.6060
 4.9860	 5.6140
 4.9910	 5.5990
 4.9960	 5.6090
 5.0000	 5.5950
 5.0050	 5.6320
 5.0100	 5.6030
 5.0150	 5.5710
 5.0200	 5.4610
 5.0250	 5.4940
 5.0300	 5.5390
 5.0340	 5.6100
 5.0390	 5.6530
 5.0440	 5.6770
 5.0490	 5.6860
 5.0540	 5.6850
 5.0590	 5.6570
 5.0640	 5.6790
 5.0690	 5.6760
 5.0740	 5.6990
 5.0790	 5.6480
 5.0840	 5.5890
 5.0890	 5.6250
 5.0940	 5.7020
 5.0990	 5.6930
 5.1040	 5.6820
 5.1090	 5.6330
 5.1140	 5.6320
 5.1190	 5.6530
 5.1240	 5.6830
 5.1290	 5.6760
 5.1340	 5.6900
 5.1390	 5.6400
 5.1440	 5.5690
 5.1490	 5.4890
 5.1550	 5.6810
 5.1600	 5.7440
 5.1650	 5.7390
 5.1700	 5.7050
 5.1750	 5.7480
 5.1800	 5.7360
 5.1850	 5.7380
 5.1910	 5.7390
 5.1960	 5.6960
 5.2010	 5.5220
 5.2060	 5.5860
 5.2110	 5.4780
 5.2170	 5.4760
 5.2220	 5.6640
 5.2270	 5.7500
 5.2330	 5.6880
 5.2380	 5.6130
 5.2430	 5.6310
 5.2480	 5.7100
 5.2540	 5.7420
 5.2590	 5.7560
 5.2640	 5.7590
 5.2700	 5.7610
 5.2750	 5.6450
 5.2800	 5.6580
 5.2860	 5.6500
 5.2910	 5.4810
 5.2970	 5.5200
 5.3020	 5.6720
 5.3080	 5.6410
 5.3130	 5.6660
 5.3180	 5.6940
 5.3240	 5.7360
 5.3290	 5.7080
 5.3350	 5.7100
 5.3400	 5.6630
 5.3460	 5.4170
 5.3510	 5.0610
 5.3570	 5.2590
 5.3620	 5.5420
 5.3680	 5.6580
 5.3740	 5.6290
 5.3790	 5.6520
 5.3850	 5.6300
 5.3900	 5.6580
 5.3960	 5.6300
 5.4010	 5.6450
 5.4070	 5.5680
 5.4130	 5.4390
 5.4180	 5.0460
 5.4240	 4.8770
 5.4300	 5.3230
 5.4350	 5.5680
 5.4410	 5.4820
 5.4470	 5.4740
 5.4530	 5.5080
 5.4580	 5.3760
 5.4640	 4.9850
 5.4700	 5.0830
 5.4760	 5.1400
 5.4810	 5.1050
 5.4870	 5.3600
 5.4930	 5.4540
 5.4990	 5.3880
 5.5050	 5.3740
 5.5110	 5.4260
 5.5160	 5.3510
 5.5220	 5.1680
 5.5280	 5.2010
 5.5340	 5.3190
 5.5400	 5.3440
 5.5460	 5.1790
 5.5520	 4.9390
 5.5580	 4.9130
 5.5640	 5.0570
 5.5700	 5.0290
 5.5760	 4.6920
 5.5820	 4.4860
 5.5880	 4.9140
 5.5940	 5.1690
 5.6000	 5.0570
 5.6060	 4.9880
 5.6120	 4.9760
 5.6180	 4.8530
 5.6240	 4.9880
 5.6300	 4.9020
 5.6360	 4.5230
 5.6420	 4.0110
 5.6490	 4.2840
 5.6550	 4.5310
 5.6610	 4.7370
 5.6670	 4.8640
 5.6730	 4.5740
 5.6800	 4.5180
 5.6860	 4.6640
 5.6920	 4.4800
 5.6980	 4.6410
 5.7050	 4.5070
 5.7110	 4.0490
 5.7170	 4.0210
 5.7230	 4.2520
 5.7300	 4.4040
 5.7360	 4.4020
 5.7420	 4.3060
 5.7490	 4.2050
 5.7550	 4.4840
 5.7620	 4.1020
 5.7680	 3.5650
 5.7740	 4.2350
 5.7810	 4.6690
 5.7870	 4.9460
 5.7940	 5.1080
 5.8000	 5.0490
 5.8070	 4.9960
 5.8130	 4.7470
 5.8200	 3.9880
 5.8260	 3.9200
 5.8330	 4.4160
 5.8390	 4.9380
 5.8460	 5.1100
 5.8530	 5.0200
 5.8590	 4.6760
 5.8660	 4.5190
 5.8730	 4.5230
 5.8790	 3.7210
 5.8860	 3.6770
 5.8930	 3.9980
 5.8990	 3.9970
 5.9060	 4.8270
 5.9130	 5.0260
 5.9190	 4.9060
 5.9260	 4.7660
 5.9330	 4.0520
 5.9400	 3.6630
 5.9470	 4.5680
 5.9530	 5.0330
 5.9600	 5.1650
 5.9670	 4.6180
 5.9740	 4.6870
 5.9810	 4.8790
 5.9880	 4.5310
 5.9950	 4.6470
 6.0020	 5.2010
 6.0090	 5.0770
 6.0160	 4.8760
 6.0230	 5.1910
 6.0300	 5.4100
 6.0370	 5.1160
 6.0440	 4.0080
 6.0510	 3.2490
 6.0580	 4.3560
 6.0650	 4.6550
 6.0720	 4.1690
 6.0790	 4.5380
 6.0860	 5.2600
 6.0930	 5.3680
 6.1010	 5.2080
 6.1080	 4.5480
 6.1150	 4.0750
 6.1220	 4.7350
 6.1290	 5.3440
 6.1370	 5.1900
 6.1440	 5.0050
 6.1510	 5.0210
 6.1580	 4.7930
 6.1660	 4.9000
 6.1730	 5.2690
 6.1800	 4.7370
 6.1880	 4.4480
 6.1950	 5.0890
 6.2030	 5.4280
 6.2100	 5.3560
 6.2180	 5.3350
 6.2250	 5.3680
 6.2320	 5.4280
 6.2400	 5.3730
 6.2480	 5.3730
 6.2550	 5.3900
 6.2630	 5.4190
 6.2700	 5.3440
 6.2780	 5.3940
 6.2850	 5.4060
 6.2930	 5.4370
 6.3010	 5.4380
 6.3080	 5.4170
 6.3160	 5.3620
 6.3240	 5.3850
 6.3310	 5.2710
 6.3390	 4.6480
 6.3470	 4.2730
 6.3550	 4.9660
 6.3620	 5.0270
 6.3700	 4.4980
 6.3780	 4.7030
 6.3860	 5.0490
 6.3940	 4.9870
 6.4020	 4.7080
 6.4100	 3.4770
 6.4180	 3.1410
 6.4260	 3.9950
 6.4340	 4.4280
 6.4420	 4.7380
 6.4500	 4.8380
 6.4580	 4.8310
 6.4660	 4.8120
 6.4740	 4.2690
 6.4820	 3.8970
 6.4900	 3.3140
 6.4980	 3.4010
 6.5060	 4.3240
 6.5140	 4.5820
 6.5230	 4.2010
 6.5310	 4.6640
 6.5390	 4.7510
 6.5470	 4.4750
 6.5560	 4.2220
 6.5640	 4.0580
 6.5720	 3.6110
 6.5800	 3.9200
 6.5890	 4.0850
 6.5970	 4.2730
 6.6060	 4.6190
 6.6140	 4.6150
 6.6230	 4.3450
 6.6310	 3.6210
 6.6390	 3.2630
 6.6480	 4.2500
 6.6570	 4.8870
 6.6650	 4.7690
 6.6740	 4.3950
 6.6820	 4.2700
 6.6910	 4.6600
 6.7000	 4.8610
 6.7080	 4.3290
 6.7170	 4.2250
 6.7260	 4.4800
 6.7340	 4.8570
 6.7430	 4.9620
 6.7520	 4.9290
 6.7610	 4.9260
 6.7690	 4.6710
 6.7780	 4.3280
 6.7870	 4.0570
 6.7960	 4.1670
 6.8050	 4.8190
 6.8140	 4.8730
 6.8230	 4.5500
 6.8320	 4.6330
 6.8410	 5.1000
 6.8500	 4.6550
 6.8590	 3.8170
 6.8680	 3.7600
 6.8770	 4.6510
 6.8860	 4.9730
 6.8960	 5.0520
 6.9050	 4.8200
 6.9140	 4.9210
 6.9230	 5.0460
 6.9320	 5.1520
 6.9420	 5.1490
 6.9510	 4.9100
 6.9600	 4.3500
 6.9700	 4.6870
 6.9790	 4.9950
 6.9880	 4.9620
 6.9980	 4.9230
 7.0070	 5.1460
 7.0170	 5.0070
 7.0260	 4.9910
 7.0360	 4.8430
 7.0450	 4.3660
 7.0550	 4.5150
 7.0650	 5.0220
 7.0740	 5.1440
 7.0840	 5.1770
 7.0940	 5.1430
 7.1030	 5.2040
 7.1130	 4.9870
 7.1230	 4.9580
 7.1330	 5.0400
 7.1420	 4.8430
 7.1520	 4.6300
 7.1620	 4.6600
 7.1720	 4.5680
 7.1820	 4.9480
 7.1920	 5.0320
 7.2020	 4.8550
 7.2120	 4.7900
 7.2220	 5.1170
 7.2320	 5.1140
 7.2420	 5.1280
 7.2520	 5.0480
 7.2620	 5.0210
 7.2730	 4.7710
 7.2830	 4.8520
 7.2930	 5.0130
 7.3030	 5.0720
 7.3140	 5.0550
 7.3240	 5.0860
 7.3340	 4.7960
 7.3450	 4.8500
 7.3550	 5.0360
 7.3660	 5.1790
 7.3760	 5.1400
 7.3870	 5.1810
 7.3970	 5.1380
 7.4080	 5.1390
 7.4180	 5.0900
 7.4290	 5.1850
 7.4400	 5.1590
 7.4500	 5.0850
 7.4610	 4.7960
 7.4720	 4.8080
 7.4830	 4.9230
 7.4930	 5.0730
 7.5040	 5.0690
 7.5150	 5.1220
 7.5260	 5.0540
 7.5370	 5.1010
 7.5480	 5.0700
 7.5590	 5.0950
 7.5700	 5.0230
 7.5810	 5.0410
 7.5920	 4.9880
 7.6030	 5.0410
 7.6140	 4.9930
 7.6260	 5.0800
 7.6370	 5.0430
 7.6480	 5.0620
 7.6590	 5.0010
 7.6710	 5.0380
 7.6820	 5.0330
 7.6940	 5.1220
 7.7050	 5.0760
 7.7160	 5.0990
 7.7280	 5.0600
 7.7390	 5.1140
 7.7510	 5.0230
 7.7630	 4.9790
 7.7740	 4.9160
 7.7860	 5.0160
 7.7980	 5.0250
 7.8090	 5.0680
 7.8210	 4.9840
 7.8330	 5.0270
 7.8450	 5.0270
 7.8570	 5.0870
 7.8690	 5.0330
 7.8810	 5.0920
 7.8930	 5.0510
 7.9050	 5.1230
 7.9170	 5.0690
 7.9290	 5.0640
 7.9410	 5.0120
 7.9530	 5.0940
 7.9650	 5.0810
 7.9780	 5.1450
 7.9900	 5.1140
 8.0020	 5.1630
 8.0150	 5.1200
 8.0270	 5.2080
 8.0390	 5.1220
 8.0520	 5.2000
 8.0640	 5.1420
 8.0770	 5.1690
 8.0900	 5.1670
 8.1020	 5.2920
 8.1150	 5.2120
 8.1280	 5.2600
 8.1400	 5.1660
 8.1530	 5.2310
 8.1660	 5.2130
 8.1790	 5.3190
 8.1920	 5.2590
 8.2050	 5.3150
 8.2180	 5.2430
 8.2310	 5.3480
 8.2440	 5.3090
 8.2570	 5.3550
 8.2700	 5.2710
 8.2830	 5.3490
 8.2970	 5.2790
 8.3100	 5.3940
 8.3230	 5.3500
 8.3370	 5.4080
 8.3500	 5.3340
 8.3640	 5.3650
 8.3770	 5.2960
 8.3910	 5.4080
 8.4040	 5.3450
 8.4180	 5.3950
 8.4320	 5.3430
 8.4450	 5.4540
 8.4590	 5.4070
 8.4730	 5.4740
 8.4870	 5.4450
 8.5010	 5.5700
 8.5150	 5.5070
 8.5290	 5.5870
 8.5430	 5.5170
 8.5570	 5.6620
 8.5710	 5.6340
 8.5850	 5.6820
 8.5990	 5.6050
 8.6140	 5.6920
 8.6280	 5.6190
 8.6420	 5.6620
 8.6570	 5.6140
 8.6710	 5.6950
 8.6860	 5.6190
 8.7000	 5.6720
 8.7150	 5.6250
 8.7300	 5.7400
 8.7440	 5.6270
 8.7590	 5.7340
 8.7740	 5.7280
 8.7890	 5.8160
 8.8040	 5.7280
 8.8190	 5.8390
 8.8340	 5.7850
 8.8490	 5.8340
 8.8640	 5.7030
 8.8790	 5.7080
 8.8940	 5.6350
 8.9100	 5.7370
 8.9250	 5.6560
 8.9400	 5.7140
 8.9560	 5.6500
 8.9710	 5.7400
 8.9870	 5.6380
 9.0020	 5.7170
 9.0180	 5.5820
 9.0340	 5.6810
 9.0500	 5.6570
 9.0650	 5.7720
 9.0810	 5.7630
 9.0970	 5.9250
 9.1130	 5.7970
 9.1290	 5.7710
 9.1450	 5.6290
 9.1620	 5.7450
 9.1780	 5.6930
 9.1940	 5.7210
 9.2100	 5.6680
 9.2270	 5.8190
 9.2430	 5.7660
 9.2600	 5.8750
 9.2760	 5.7890
 9.2930	 5.8730
 9.3100	 5.8080
 9.3260	 5.8990
 9.3430	 5.7780
 9.3600	 5.8590
 9.3770	 5.7220
 9.3940	 5.8230
 9.4110	 5.8130
 9.4280	 5.8670
 9.4450	 5.7040
 9.4620	 5.7590
 9.4800	 5.6930
 9.4970	 5.8610
 9.5150	 5.8260
 9.5320	 5.9320
 9.5500	 5.8030
 9.5670	 5.8890
 9.5850	 5.8160
 9.6030	 5.9040
 9.6200	 5.8250
 9.6380	 5.8510
 9.6560	 5.7500
 9.6740	 5.9000
 9.6920	 5.8290
 9.7110	 5.8720
 9.7290	 5.7970
 9.7470	 5.9310
 9.7650	 5.8310
 9.7840	 5.9080
 9.8020	 5.7960
 9.8210	 5.8480
 9.8390	 5.7170
 9.8580	 5.8320
 9.8770	 5.7290
 9.8960	 5.7880
 9.9150	 5.6930
 9.9340	 5.7910
 9.9530	 5.7220
 9.9720	 5.7640
 9.9910	 5.6400
10.0100	 5.7270
10.0300	 5.6740
10.0490	 5.7310
10.0690	 5.6030
10.0880	 5.6940
10.1080	 5.6150
10.1280	 5.6940
10.1480	 5.6570
10.1670	 5.7600
10.1870	 5.5890
10.2070	 5.6080
10.2280	 5.4680
10.2480	 5.5630
10.2680	 5.5140
10.2890	 5.6310
10.3090	 5.5360
10.3300	 5.5680
10.3500	 5.4650
10.3710	 5.6240
10.3920	 5.5220
10.4120	 5.5370
10.4330	 5.4250
10.4540	 5.4970
10.4760	 5.4140
10.4970	 5.5140
10.5180	 5.4210
10.5390	 5.4860
10.5610	 5.4300
10.5820	 5.5390
10.6040	 5.4940
10.6260	 5.6080
10.6480	 5.4610
10.6700	 5.5170
10.6920	 5.4100
10.7140	 5.5680
10.7360	 5.4860
10.7580	 5.5780
10.7800	 5.4720
10.8030	 5.5430
10.8250	 5.4050
10.8480	 5.4650
10.8710	 5.3620
10.8940	 5.4600
10.9170	 5.3410
10.9400	 5.4520
10.9630	 5.3660
10.9860	 5.4600
11.0090	 5.3740
11.0330	 5.4440
11.0560	 5.3590
11.0800	 5.5210
11.1040	 5.4090
11.1270	 5.4770
11.1510	 5.3410
11.1750	 5.4480
11.2000	 5.3270
11.2240	 5.3780
11.2480	 5.2820
11.2730	 5.4150
11.2970	 5.3440
11.3220	 5.4840
11.3470	 5.3680
11.3720	 5.4060
11.3970	 5.2500
11.4220	 5.3980
11.4470	 5.3870
11.4720	 5.5590
11.4980	 5.2810
11.5230	 5.2640
11.5490	 5.1260
11.5750	 5.3130
11.6000	 5.1890
11.6260	 5.2720
11.6530	 5.1820
11.6790	 5.3470
11.7050	 5.2690
11.7320	 5.3520
11.7580	 5.1890
11.7850	 5.2990
11.8120	 5.1460
11.8390	 5.2410
11.8660	 5.1720
11.8930	 5.3360
11.9200	 5.1900
11.9480	 5.2920
11.9760	 5.1270
12.0030	 5.2230
12.0310	 5.0720
12.0590	 5.1870
12.0870	 5.0950
12.1150	 5.2110
12.1440	 4.9860
12.1720	 5.0940
12.2010	 5.0390
12.2300	 5.3230
12.2590	 5.2210
12.2880	 5.2490
12.3170	 5.0620
12.3460	 5.2570
12.3760	 5.1080
12.4050	 5.1540
12.4350	 5.0110
12.4650	 5.1510
12.4950	 4.9920
12.5250	 5.1620
12.5550	 5.0280
12.5860	 5.1700
12.6170	 4.9770
12.6470	 5.1530
12.6780	 5.0050
12.7090	 5.0980
12.7410	 4.9130
12.7720	 5.0270
12.8030	 4.8290
12.8350	 5.0270
12.8670	 4.9130
12.8990	 4.9810
12.9310	 4.8330
12.9640	 5.0440
12.9960	 4.9830
13.0290	 5.1230
13.0610	 4.8980
13.0940	 5.0440
13.1280	 4.8790
13.1610	 5.0410
13.1940	 4.8470
13.2280	 5.0160
13.2620	 4.8400
13.2960	 5.0040
13.3300	 4.9020
13.3640	 5.0600
13.3990	 4.7940
13.4340	 4.9890
13.4690	 4.8400
13.5040	 5.0170
13.5390	 4.8220
13.5740	 4.9640
13.6100	 4.8370
13.6460	 5.0520
13.6820	 4.8310
13.7180	 4.9630
13.7540	 4.9050
13.7910	 5.1570
13.8280	 4.9730
13.8650	 5.2130
13.9020	 4.9420
13.9390	 5.0490
13.9770	 4.8070
14.0150	 5.0430
14.0530	 4.9290
14.0910	 5.1130
14.1290	 4.9470
14.1680	 5.1680
14.2070	 4.8260
14.2460	 5.1240
14.2850	 4.9350
14.3240	 5.1550
14.3640	 4.8530
14.4040	 5.0730
14.4440	 4.8090
14.4840	 4.9990
14.5250	 4.7620
14.5660	 5.0940
14.6070	 4.8640
14.6480	 5.1800
14.6900	 4.8970
14.7310	 5.2080
14.7730	 4.8940
14.8150	 5.0570
14.8580	 4.9470
14.9010	 5.4580
14.9440	 5.3540
14.9870	 5.6510
15.0300	 4.8740
15.0740	 5.2620
15.1180	 4.9510
15.1620	 5.2640
15.2060	 4.8450
15.2510	 5.2300
15.2960	 4.7430
15.3410	 5.3320
15.3870	 5.1480
