Name: Aloe arborescens
Type: vegetation
Class: Shrub
Genus: Aloe
Species: arborescens
Sample No.: JPL076
Owner: JPL
Wavelength Range: TIR
Origin: 34.12593; - 118.10983; WGS84
Collection Date: 2/2/2016
Description: Samples were collected at the Huntington Garden in San Marino California as part of a JPL Subcontract studying HyTES imagery. Samples were taken to JPL and processed within 48 hours of collection. The same leaves were processed in the Nicolet and then measured using the ASD.
Measurement: Hemispherical reflectance
First Column: X
Second Column: Y
X Units: Wavelength (micrometer)
Y Units: Reflectance (percentage)
First X Value: 2.501
Last X Value: 15.387
Number of X Values: 1737
Additional Information: 

 2.5010	 3.0260
 2.5030	 3.0250
 2.5040	 3.1030
 2.5050	 3.1040
 2.5060	 3.0970
 2.5070	 3.0570
 2.5090	 3.1080
 2.5100	 3.0950
 2.5110	 3.0680
 2.5120	 2.9790
 2.5140	 2.9730
 2.5150	 2.9670
 2.5160	 2.9970
 2.5170	 2.9970
 2.5180	 3.0480
 2.5200	 3.0450
 2.5210	 3.0470
 2.5220	 3.0790
 2.5230	 3.0980
 2.5250	 3.0260
 2.5260	 3.0730
 2.5270	 3.0730
 2.5280	 3.0620
 2.5300	 3.0950
 2.5310	 3.1080
 2.5320	 3.0590
 2.5330	 3.0840
 2.5340	 3.0340
 2.5360	 3.0250
 2.5370	 2.9620
 2.5380	 3.0090
 2.5390	 3.0430
 2.5410	 3.0870
 2.5420	 3.0080
 2.5430	 3.0210
 2.5440	 3.0590
 2.5460	 3.0650
 2.5470	 3.0440
 2.5480	 3.1270
 2.5490	 3.0620
 2.5510	 3.0300
 2.5520	 3.0490
 2.5530	 3.1130
 2.5540	 3.1260
 2.5560	 3.1080
 2.5570	 3.0120
 2.5580	 2.9790
 2.5590	 2.9500
 2.5610	 2.9640
 2.5620	 2.9680
 2.5630	 3.0650
 2.5650	 3.0840
 2.5660	 3.0680
 2.5670	 3.0390
 2.5680	 3.1130
 2.5700	 3.1640
 2.5710	 3.1320
 2.5720	 3.1010
 2.5730	 3.0760
 2.5750	 2.9950
 2.5760	 3.0630
 2.5770	 3.1010
 2.5790	 3.1020
 2.5800	 3.0580
 2.5810	 3.0540
 2.5820	 3.0270
 2.5840	 3.0910
 2.5850	 3.0860
 2.5860	 3.0300
 2.5880	 2.9890
 2.5890	 3.0130
 2.5900	 3.0190
 2.5910	 3.0610
 2.5930	 3.0730
 2.5940	 3.1340
 2.5950	 3.1010
 2.5970	 3.0540
 2.5980	 2.9900
 2.5990	 3.0160
 2.6010	 3.0220
 2.6020	 3.0430
 2.6030	 3.0480
 2.6040	 3.0920
 2.6060	 3.1240
 2.6070	 3.1270
 2.6080	 3.0400
 2.6100	 2.9820
 2.6110	 2.9930
 2.6120	 3.0570
 2.6140	 3.0290
 2.6150	 3.0630
 2.6160	 3.0120
 2.6180	 2.9890
 2.6190	 2.9390
 2.6200	 2.9620
 2.6220	 2.9860
 2.6230	 3.0440
 2.6240	 2.9920
 2.6260	 2.9790
 2.6270	 3.0190
 2.6280	 3.0670
 2.6300	 3.0470
 2.6310	 3.0280
 2.6320	 3.0140
 2.6340	 3.0610
 2.6350	 2.9960
 2.6360	 2.9810
 2.6380	 3.0330
 2.6390	 3.0890
 2.6400	 3.0760
 2.6420	 3.0840
 2.6430	 3.0230
 2.6440	 2.9950
 2.6460	 3.0150
 2.6470	 3.0690
 2.6480	 2.9870
 2.6500	 2.9670
 2.6510	 3.0330
 2.6520	 3.0730
 2.6540	 3.0830
 2.6550	 3.1360
 2.6570	 3.0890
 2.6580	 3.0400
 2.6590	 3.0080
 2.6610	 3.0010
 2.6620	 2.9880
 2.6630	 3.0290
 2.6650	 3.0370
 2.6660	 3.0250
 2.6670	 2.9910
 2.6690	 3.0250
 2.6700	 3.0810
 2.6720	 3.0710
 2.6730	 3.0360
 2.6740	 3.0600
 2.6760	 2.9950
 2.6770	 3.0280
 2.6780	 3.0000
 2.6800	 2.9520
 2.6810	 2.9630
 2.6830	 2.9650
 2.6840	 2.9350
 2.6850	 3.0410
 2.6870	 3.0410
 2.6880	 3.0210
 2.6900	 3.0380
 2.6910	 3.0090
 2.6920	 2.9610
 2.6940	 3.0020
 2.6950	 2.9480
 2.6970	 2.9120
 2.6980	 2.9190
 2.6990	 3.0360
 2.7010	 3.0870
 2.7020	 3.1070
 2.7040	 3.0240
 2.7050	 2.9750
 2.7060	 2.9420
 2.7080	 3.0150
 2.7090	 2.9960
 2.7110	 2.9010
 2.7120	 2.8590
 2.7130	 2.9170
 2.7150	 2.9300
 2.7160	 2.9390
 2.7180	 2.8700
 2.7190	 2.8930
 2.7210	 2.8920
 2.7220	 2.9510
 2.7230	 2.9410
 2.7250	 2.8890
 2.7260	 2.8580
 2.7280	 2.8290
 2.7290	 2.8110
 2.7310	 2.8960
 2.7320	 2.9100
 2.7340	 2.9360
 2.7350	 2.8920
 2.7360	 2.8530
 2.7380	 2.8190
 2.7390	 2.8520
 2.7410	 2.7850
 2.7420	 2.8310
 2.7440	 2.8200
 2.7450	 2.7760
 2.7470	 2.7610
 2.7480	 2.7740
 2.7490	 2.7940
 2.7510	 2.8190
 2.7520	 2.7820
 2.7540	 2.8400
 2.7550	 2.8950
 2.7570	 2.9020
 2.7580	 2.8570
 2.7600	 2.8340
 2.7610	 2.7740
 2.7630	 2.8160
 2.7640	 2.7950
 2.7660	 2.8320
 2.7670	 2.7740
 2.7690	 2.7660
 2.7700	 2.7820
 2.7720	 2.8580
 2.7730	 2.8030
 2.7740	 2.7990
 2.7760	 2.8070
 2.7770	 2.8050
 2.7790	 2.7300
 2.7800	 2.7440
 2.7820	 2.7450
 2.7830	 2.8050
 2.7850	 2.7820
 2.7860	 2.8100
 2.7880	 2.7900
 2.7890	 2.7440
 2.7910	 2.7300
 2.7920	 2.8040
 2.7940	 2.8220
 2.7950	 2.8550
 2.7970	 2.7930
 2.7980	 2.7590
 2.8000	 2.8090
 2.8010	 2.8470
 2.8030	 2.8320
 2.8040	 2.8600
 2.8060	 2.8070
 2.8080	 2.7530
 2.8090	 2.7360
 2.8110	 2.7840
 2.8120	 2.7630
 2.8140	 2.8030
 2.8150	 2.8230
 2.8170	 2.8230
 2.8180	 2.7420
 2.8200	 2.7700
 2.8210	 2.7380
 2.8230	 2.7000
 2.8240	 2.6710
 2.8260	 2.6810
 2.8270	 2.7210
 2.8290	 2.8260
 2.8310	 2.8050
 2.8320	 2.7650
 2.8340	 2.7130
 2.8350	 2.7330
 2.8370	 2.7130
 2.8380	 2.7340
 2.8400	 2.7590
 2.8410	 2.7760
 2.8430	 2.7020
 2.8440	 2.7200
 2.8460	 2.7350
 2.8480	 2.7740
 2.8490	 2.7320
 2.8510	 2.6970
 2.8520	 2.7320
 2.8540	 2.8050
 2.8550	 2.7470
 2.8570	 2.7320
 2.8590	 2.7570
 2.8600	 2.7930
 2.8620	 2.7100
 2.8630	 2.6520
 2.8650	 2.6350
 2.8660	 2.7380
 2.8680	 2.7180
 2.8700	 2.6720
 2.8710	 2.6380
 2.8730	 2.7290
 2.8740	 2.7500
 2.8760	 2.7380
 2.8780	 2.7320
 2.8790	 2.7910
 2.8810	 2.7300
 2.8820	 2.6690
 2.8840	 2.5750
 2.8860	 2.6340
 2.8870	 2.6180
 2.8890	 2.6220
 2.8900	 2.6330
 2.8920	 2.6590
 2.8940	 2.6540
 2.8950	 2.7110
 2.8970	 2.7080
 2.8990	 2.7260
 2.9000	 2.7080
 2.9020	 2.6660
 2.9030	 2.6270
 2.9050	 2.6810
 2.9070	 2.6530
 2.9080	 2.6890
 2.9100	 2.6400
 2.9120	 2.6970
 2.9130	 2.7280
 2.9150	 2.7510
 2.9160	 2.6910
 2.9180	 2.7760
 2.9200	 2.7810
 2.9210	 2.7110
 2.9230	 2.7170
 2.9250	 2.7750
 2.9260	 2.7520
 2.9280	 2.7680
 2.9300	 2.6960
 2.9310	 2.6560
 2.9330	 2.6950
 2.9350	 2.8060
 2.9360	 2.7880
 2.9380	 2.7340
 2.9400	 2.7270
 2.9410	 2.6980
 2.9430	 2.6140
 2.9450	 2.6620
 2.9460	 2.6610
 2.9480	 2.6310
 2.9500	 2.5860
 2.9510	 2.6370
 2.9530	 2.6780
 2.9550	 2.6810
 2.9560	 2.7150
 2.9580	 2.7740
 2.9600	 2.6730
 2.9610	 2.6480
 2.9630	 2.6500
 2.9650	 2.7050
 2.9670	 2.6950
 2.9680	 2.7270
 2.9700	 2.6600
 2.9720	 2.6760
 2.9730	 2.6850
 2.9750	 2.6640
 2.9770	 2.6200
 2.9780	 2.6400
 2.9800	 2.6010
 2.9820	 2.6710
 2.9840	 2.7250
 2.9850	 2.7590
 2.9870	 2.7340
 2.9890	 2.7240
 2.9900	 2.6580
 2.9920	 2.6060
 2.9940	 2.6080
 2.9960	 2.6630
 2.9970	 2.6230
 2.9990	 2.6720
 3.0010	 2.6630
 3.0030	 2.6330
 3.0040	 2.6170
 3.0060	 2.6580
 3.0080	 2.6600
 3.0100	 2.7090
 3.0110	 2.6950
 3.0130	 2.6820
 3.0150	 2.6850
 3.0170	 2.6780
 3.0180	 2.6430
 3.0200	 2.7060
 3.0220	 2.7250
 3.0240	 2.7390
 3.0250	 2.7520
 3.0270	 2.7190
 3.0290	 2.6620
 3.0310	 2.7440
 3.0320	 2.7460
 3.0340	 2.7430
 3.0360	 2.6930
 3.0380	 2.6890
 3.0400	 2.6850
 3.0410	 2.6420
 3.0430	 2.6050
 3.0450	 2.6790
 3.0470	 2.7190
 3.0480	 2.7440
 3.0500	 2.6710
 3.0520	 2.6440
 3.0540	 2.6270
 3.0560	 2.6640
 3.0570	 2.6800
 3.0590	 2.6990
 3.0610	 2.6700
 3.0630	 2.7600
 3.0650	 2.7930
 3.0670	 2.7540
 3.0680	 2.6820
 3.0700	 2.6710
 3.0720	 2.6900
 3.0740	 2.7010
 3.0760	 2.6550
 3.0770	 2.6410
 3.0790	 2.6020
 3.0810	 2.6230
 3.0830	 2.6700
 3.0850	 2.7530
 3.0870	 2.6670
 3.0880	 2.6310
 3.0900	 2.6760
 3.0920	 2.7360
 3.0940	 2.6970
 3.0960	 2.6750
 3.0980	 2.6510
 3.1000	 2.7070
 3.1010	 2.7150
 3.1030	 2.7070
 3.1050	 2.6470
 3.1070	 2.5930
 3.1090	 2.5600
 3.1110	 2.6390
 3.1130	 2.6780
 3.1140	 2.6630
 3.1160	 2.6030
 3.1180	 2.6230
 3.1200	 2.6300
 3.1220	 2.6550
 3.1240	 2.6640
 3.1260	 2.6900
 3.1280	 2.6480
 3.1290	 2.6530
 3.1310	 2.6350
 3.1330	 2.6350
 3.1350	 2.5930
 3.1370	 2.6410
 3.1390	 2.6970
 3.1410	 2.6780
 3.1430	 2.6180
 3.1450	 2.6570
 3.1470	 2.6870
 3.1480	 2.7000
 3.1500	 2.6510
 3.1520	 2.6040
 3.1540	 2.5860
 3.1560	 2.6100
 3.1580	 2.5930
 3.1600	 2.6290
 3.1620	 2.6040
 3.1640	 2.5990
 3.1660	 2.5680
 3.1680	 2.5780
 3.1700	 2.6130
 3.1720	 2.6460
 3.1730	 2.5870
 3.1750	 2.5930
 3.1770	 2.5950
 3.1790	 2.6160
 3.1810	 2.5860
 3.1830	 2.5900
 3.1850	 2.6150
 3.1870	 2.5980
 3.1890	 2.5400
 3.1910	 2.5760
 3.1930	 2.5900
 3.1950	 2.5770
 3.1970	 2.5630
 3.1990	 2.5740
 3.2010	 2.5420
 3.2030	 2.5810
 3.2050	 2.5940
 3.2070	 2.5900
 3.2090	 2.5540
 3.2110	 2.5380
 3.2130	 2.5550
 3.2150	 2.6050
 3.2170	 2.6210
 3.2190	 2.6050
 3.2210	 2.5420
 3.2230	 2.5930
 3.2250	 2.6480
 3.2270	 2.6710
 3.2290	 2.6120
 3.2310	 2.5800
 3.2330	 2.5080
 3.2350	 2.4980
 3.2370	 2.5150
 3.2390	 2.5280
 3.2410	 2.5140
 3.2430	 2.5270
 3.2450	 2.5190
 3.2470	 2.5260
 3.2490	 2.5260
 3.2510	 2.5790
 3.2530	 2.5450
 3.2550	 2.4960
 3.2570	 2.5290
 3.2590	 2.5800
 3.2610	 2.5350
 3.2630	 2.5200
 3.2650	 2.4900
 3.2670	 2.4880
 3.2700	 2.5090
 3.2720	 2.5120
 3.2740	 2.4830
 3.2760	 2.5240
 3.2780	 2.5250
 3.2800	 2.5190
 3.2820	 2.4470
 3.2840	 2.4650
 3.2860	 2.4600
 3.2880	 2.4530
 3.2900	 2.4790
 3.2920	 2.5020
 3.2940	 2.4790
 3.2970	 2.4940
 3.2990	 2.4840
 3.3010	 2.5300
 3.3030	 2.5150
 3.3050	 2.4720
 3.3070	 2.4290
 3.3090	 2.4480
 3.3110	 2.4740
 3.3130	 2.4930
 3.3160	 2.4370
 3.3180	 2.4440
 3.3200	 2.4710
 3.3220	 2.4820
 3.3240	 2.5000
 3.3260	 2.4750
 3.3280	 2.4150
 3.3300	 2.3660
 3.3330	 2.3390
 3.3350	 2.3920
 3.3370	 2.3950
 3.3390	 2.4170
 3.3410	 2.3700
 3.3430	 2.3670
 3.3450	 2.3630
 3.3480	 2.3540
 3.3500	 2.3150
 3.3520	 2.3160
 3.3540	 2.2930
 3.3560	 2.2910
 3.3580	 2.2960
 3.3610	 2.3140
 3.3630	 2.2930
 3.3650	 2.2310
 3.3670	 2.1630
 3.3690	 2.2020
 3.3720	 2.2020
 3.3740	 2.2080
 3.3760	 2.2110
 3.3780	 2.2180
 3.3800	 2.2060
 3.3830	 2.2060
 3.3850	 2.1730
 3.3870	 2.2160
 3.3890	 2.1840
 3.3910	 2.1350
 3.3940	 2.0860
 3.3960	 2.0430
 3.3980	 1.9950
 3.4000	 1.9890
 3.4030	 1.9850
 3.4050	 1.9840
 3.4070	 1.9920
 3.4090	 2.0240
 3.4110	 2.0020
 3.4140	 2.0200
 3.4160	 2.1430
 3.4180	 2.2950
 3.4200	 2.4490
 3.4230	 2.7470
 3.4250	 3.0730
 3.4270	 3.4060
 3.4300	 3.6450
 3.4320	 3.7040
 3.4340	 3.5710
 3.4360	 3.3900
 3.4390	 3.2450
 3.4410	 3.1880
 3.4430	 3.1250
 3.4450	 3.1010
 3.4480	 3.0350
 3.4500	 3.0020
 3.4520	 2.9280
 3.4550	 2.9220
 3.4570	 2.9050
 3.4590	 2.8930
 3.4620	 2.8710
 3.4640	 2.8490
 3.4660	 2.8040
 3.4690	 2.8290
 3.4710	 2.8440
 3.4730	 2.8260
 3.4760	 2.7460
 3.4780	 2.6990
 3.4800	 2.6560
 3.4830	 2.6490
 3.4850	 2.6360
 3.4870	 2.5950
 3.4900	 2.5430
 3.4920	 2.5160
 3.4940	 2.4050
 3.4970	 2.3340
 3.4990	 2.2580
 3.5010	 2.2560
 3.5040	 2.3500
 3.5060	 2.5610
 3.5080	 2.9770
 3.5110	 3.4820
 3.5130	 3.7010
 3.5160	 3.6770
 3.5180	 3.5260
 3.5200	 3.4410
 3.5230	 3.3770
 3.5250	 3.2950
 3.5280	 3.2200
 3.5300	 3.1770
 3.5320	 3.1220
 3.5350	 3.0950
 3.5370	 3.0520
 3.5400	 3.0250
 3.5420	 2.9880
 3.5440	 2.9780
 3.5470	 2.9450
 3.5490	 2.9580
 3.5520	 2.9240
 3.5540	 2.9230
 3.5570	 2.9290
 3.5590	 2.9250
 3.5610	 2.8880
 3.5640	 2.8620
 3.5660	 2.8250
 3.5690	 2.8530
 3.5710	 2.8670
 3.5740	 2.8450
 3.5760	 2.7970
 3.5790	 2.8200
 3.5810	 2.8420
 3.5840	 2.8570
 3.5860	 2.8060
 3.5890	 2.8000
 3.5910	 2.7930
 3.5940	 2.7820
 3.5960	 2.8070
 3.5990	 2.8180
 3.6010	 2.7830
 3.6040	 2.7940
 3.6060	 2.7980
 3.6090	 2.8000
 3.6110	 2.8060
 3.6140	 2.8080
 3.6160	 2.7370
 3.6190	 2.7310
 3.6210	 2.7800
 3.6240	 2.8190
 3.6260	 2.7880
 3.6290	 2.7970
 3.6310	 2.7940
 3.6340	 2.7680
 3.6360	 2.7410
 3.6390	 2.7620
 3.6410	 2.7690
 3.6440	 2.7710
 3.6470	 2.7660
 3.6490	 2.7610
 3.6520	 2.7630
 3.6540	 2.7630
 3.6570	 2.7270
 3.6590	 2.7540
 3.6620	 2.7700
 3.6650	 2.7790
 3.6670	 2.7470
 3.6700	 2.7370
 3.6720	 2.7220
 3.6750	 2.7140
 3.6780	 2.6860
 3.6800	 2.6770
 3.6830	 2.6990
 3.6850	 2.7220
 3.6880	 2.6910
 3.6910	 2.6740
 3.6930	 2.6740
 3.6960	 2.7200
 3.6990	 2.7290
 3.7010	 2.7340
 3.7040	 2.7240
 3.7070	 2.6920
 3.7090	 2.6480
 3.7120	 2.6630
 3.7150	 2.7060
 3.7170	 2.7480
 3.7200	 2.7510
 3.7230	 2.7650
 3.7250	 2.7180
 3.7280	 2.7410
 3.7310	 2.7610
 3.7330	 2.7300
 3.7360	 2.6880
 3.7390	 2.6790
 3.7410	 2.6550
 3.7440	 2.6490
 3.7470	 2.6730
 3.7490	 2.7230
 3.7520	 2.7270
 3.7550	 2.7350
 3.7580	 2.7100
 3.7600	 2.6980
 3.7630	 2.7040
 3.7660	 2.7190
 3.7690	 2.6980
 3.7710	 2.6910
 3.7740	 2.6670
 3.7770	 2.6340
 3.7790	 2.6220
 3.7820	 2.6550
 3.7850	 2.6430
 3.7880	 2.6430
 3.7910	 2.6510
 3.7930	 2.6920
 3.7960	 2.6900
 3.7990	 2.6810
 3.8020	 2.6510
 3.8040	 2.6220
 3.8070	 2.6160
 3.8100	 2.6380
 3.8130	 2.6450
 3.8160	 2.6420
 3.8180	 2.6410
 3.8210	 2.6630
 3.8240	 2.6690
 3.8270	 2.6910
 3.8300	 2.7000
 3.8330	 2.6870
 3.8350	 2.6460
 3.8380	 2.6260
 3.8410	 2.6450
 3.8440	 2.6680
 3.8470	 2.6780
 3.8500	 2.6720
 3.8520	 2.6670
 3.8550	 2.6520
 3.8580	 2.6350
 3.8610	 2.6290
 3.8640	 2.6360
 3.8670	 2.6420
 3.8700	 2.6350
 3.8730	 2.6540
 3.8760	 2.6330
 3.8780	 2.6030
 3.8810	 2.5730
 3.8840	 2.5970
 3.8870	 2.6040
 3.8900	 2.6190
 3.8930	 2.6040
 3.8960	 2.6230
 3.8990	 2.6160
 3.9020	 2.6200
 3.9050	 2.6470
 3.9080	 2.6800
 3.9110	 2.6420
 3.9140	 2.6130
 3.9170	 2.6410
 3.9190	 2.6290
 3.9220	 2.6100
 3.9250	 2.6130
 3.9280	 2.6030
 3.9310	 2.6060
 3.9340	 2.5890
 3.9370	 2.5970
 3.9400	 2.6130
 3.9430	 2.6250
 3.9460	 2.6130
 3.9490	 2.5900
 3.9520	 2.5950
 3.9550	 2.6090
 3.9580	 2.6060
 3.9610	 2.6380
 3.9640	 2.6400
 3.9670	 2.6380
 3.9700	 2.6160
 3.9740	 2.5790
 3.9770	 2.5750
 3.9800	 2.6010
 3.9830	 2.6090
 3.9860	 2.6070
 3.9890	 2.5830
 3.9920	 2.5730
 3.9950	 2.6100
 3.9980	 2.6430
 4.0010	 2.6360
 4.0040	 2.6460
 4.0070	 2.6280
 4.0100	 2.6200
 4.0140	 2.5770
 4.0170	 2.5790
 4.0200	 2.6200
 4.0230	 2.6120
 4.0260	 2.5870
 4.0290	 2.5690
 4.0320	 2.5750
 4.0350	 2.6070
 4.0390	 2.5740
 4.0420	 2.5400
 4.0450	 2.5520
 4.0480	 2.5570
 4.0510	 2.5210
 4.0540	 2.5560
 4.0570	 2.5680
 4.0610	 2.5390
 4.0640	 2.5560
 4.0670	 2.5980
 4.0700	 2.6000
 4.0730	 2.5620
 4.0770	 2.5670
 4.0800	 2.6280
 4.0830	 2.6280
 4.0860	 2.6130
 4.0890	 2.5860
 4.0930	 2.5780
 4.0960	 2.5710
 4.0990	 2.5470
 4.1020	 2.5480
 4.1060	 2.5690
 4.1090	 2.5640
 4.1120	 2.5720
 4.1150	 2.5480
 4.1190	 2.5500
 4.1220	 2.5680
 4.1250	 2.5700
 4.1290	 2.5750
 4.1320	 2.5640
 4.1350	 2.5360
 4.1380	 2.5500
 4.1420	 2.5520
 4.1450	 2.5570
 4.1480	 2.5530
 4.1520	 2.5260
 4.1550	 2.5080
 4.1580	 2.5350
 4.1620	 2.5590
 4.1650	 2.5740
 4.1680	 2.5830
 4.1720	 2.5880
 4.1750	 2.5770
 4.1780	 2.5390
 4.1820	 2.5140
 4.1850	 2.5280
 4.1890	 2.5060
 4.1920	 2.5090
 4.1950	 2.5500
 4.1990	 2.5980
 4.2020	 2.6260
 4.2060	 2.6130
 4.2090	 2.6130
 4.2120	 2.6150
 4.2160	 2.6330
 4.2190	 2.6850
 4.2230	 2.7440
 4.2260	 2.8240
 4.2300	 2.7670
 4.2330	 2.7070
 4.2360	 2.7610
 4.2400	 2.7300
 4.2430	 2.6650
 4.2470	 2.6340
 4.2500	 2.6200
 4.2540	 2.6070
 4.2570	 2.5990
 4.2610	 2.5940
 4.2640	 2.5710
 4.2680	 2.6160
 4.2710	 2.7200
 4.2750	 2.7320
 4.2780	 2.7220
 4.2820	 2.7180
 4.2850	 2.6910
 4.2890	 2.6930
 4.2930	 2.6640
 4.2960	 2.5840
 4.3000	 2.6090
 4.3030	 2.6060
 4.3070	 2.6490
 4.3100	 2.6860
 4.3140	 2.6050
 4.3180	 2.5780
 4.3210	 2.5890
 4.3250	 2.5500
 4.3280	 2.5290
 4.3320	 2.5490
 4.3360	 2.5440
 4.3390	 2.5570
 4.3430	 2.5980
 4.3470	 2.5600
 4.3500	 2.5380
 4.3540	 2.5550
 4.3580	 2.5210
 4.3610	 2.4780
 4.3650	 2.4800
 4.3690	 2.5080
 4.3720	 2.4710
 4.3760	 2.4390
 4.3800	 2.4660
 4.3830	 2.5080
 4.3870	 2.5200
 4.3910	 2.5060
 4.3940	 2.5050
 4.3980	 2.5050
 4.4020	 2.5280
 4.4060	 2.5660
 4.4090	 2.5530
 4.4130	 2.5270
 4.4170	 2.5090
 4.4210	 2.4910
 4.4240	 2.4810
 4.4280	 2.4760
 4.4320	 2.4450
 4.4360	 2.4420
 4.4400	 2.4470
 4.4430	 2.4830
 4.4470	 2.4950
 4.4510	 2.4770
 4.4550	 2.4570
 4.4590	 2.4500
 4.4630	 2.4370
 4.4660	 2.4160
 4.4700	 2.4380
 4.4740	 2.4580
 4.4780	 2.4730
 4.4820	 2.4410
 4.4860	 2.4480
 4.4900	 2.4920
 4.4930	 2.5290
 4.4970	 2.5120
 4.5010	 2.4830
 4.5050	 2.4580
 4.5090	 2.4770
 4.5130	 2.4970
 4.5170	 2.4840
 4.5210	 2.4270
 4.5250	 2.3980
 4.5290	 2.4160
 4.5330	 2.4320
 4.5370	 2.4190
 4.5410	 2.4160
 4.5450	 2.4310
 4.5490	 2.4420
 4.5530	 2.4180
 4.5570	 2.4500
 4.5610	 2.4700
 4.5650	 2.4690
 4.5690	 2.4450
 4.5730	 2.4190
 4.5770	 2.4120
 4.5810	 2.4140
 4.5850	 2.4170
 4.5890	 2.4500
 4.5930	 2.4580
 4.5970	 2.4390
 4.6010	 2.4160
 4.6050	 2.4200
 4.6090	 2.4260
 4.6130	 2.4170
 4.6170	 2.4210
 4.6220	 2.4060
 4.6260	 2.3660
 4.6300	 2.3910
 4.6340	 2.4310
 4.6380	 2.4640
 4.6420	 2.4390
 4.6460	 2.4240
 4.6510	 2.4080
 4.6550	 2.4110
 4.6590	 2.4050
 4.6630	 2.4480
 4.6670	 2.4400
 4.6720	 2.3870
 4.6760	 2.3610
 4.6800	 2.3790
 4.6840	 2.3810
 4.6880	 2.3720
 4.6930	 2.3490
 4.6970	 2.4060
 4.7010	 2.4440
 4.7050	 2.4580
 4.7100	 2.4460
 4.7140	 2.4430
 4.7180	 2.4290
 4.7230	 2.4270
 4.7270	 2.4370
 4.7310	 2.3940
 4.7360	 2.3300
 4.7400	 2.3350
 4.7440	 2.3730
 4.7490	 2.3880
 4.7530	 2.3800
 4.7570	 2.4000
 4.7620	 2.4060
 4.7660	 2.3790
 4.7700	 2.3710
 4.7750	 2.3930
 4.7790	 2.4130
 4.7840	 2.4350
 4.7880	 2.4170
 4.7920	 2.4140
 4.7970	 2.3840
 4.8010	 2.3800
 4.8060	 2.3890
 4.8100	 2.4190
 4.8150	 2.4230
 4.8190	 2.3850
 4.8240	 2.3480
 4.8280	 2.3980
 4.8330	 2.4220
 4.8370	 2.4080
 4.8420	 2.3960
 4.8460	 2.3880
 4.8510	 2.3580
 4.8550	 2.3540
 4.8600	 2.3600
 4.8640	 2.3820
 4.8690	 2.3790
 4.8740	 2.3900
 4.8780	 2.3640
 4.8830	 2.3620
 4.8870	 2.3870
 4.8920	 2.4270
 4.8970	 2.3850
 4.9010	 2.3760
 4.9060	 2.3690
 4.9100	 2.3860
 4.9150	 2.4220
 4.9200	 2.4190
 4.9240	 2.3590
 4.9290	 2.3500
 4.9340	 2.3560
 4.9390	 2.3800
 4.9430	 2.3940
 4.9480	 2.3930
 4.9530	 2.3560
 4.9570	 2.3360
 4.9620	 2.3440
 4.9670	 2.3960
 4.9720	 2.3860
 4.9760	 2.3730
 4.9810	 2.3560
 4.9860	 2.3510
 4.9910	 2.3510
 4.9960	 2.4130
 5.0000	 2.3980
 5.0050	 2.3660
 5.0100	 2.3720
 5.0150	 2.3760
 5.0200	 2.3780
 5.0250	 2.3970
 5.0300	 2.3650
 5.0340	 2.3720
 5.0390	 2.3910
 5.0440	 2.4050
 5.0490	 2.4120
 5.0540	 2.4340
 5.0590	 2.3830
 5.0640	 2.3960
 5.0690	 2.3720
 5.0740	 2.3790
 5.0790	 2.3940
 5.0840	 2.3840
 5.0890	 2.3640
 5.0940	 2.4050
 5.0990	 2.4300
 5.1040	 2.4280
 5.1090	 2.3730
 5.1140	 2.3630
 5.1190	 2.3280
 5.1240	 2.3520
 5.1290	 2.3550
 5.1340	 2.3560
 5.1390	 2.3820
 5.1440	 2.4120
 5.1490	 2.3820
 5.1550	 2.3550
 5.1600	 2.3670
 5.1650	 2.4280
 5.1700	 2.4090
 5.1750	 2.4050
 5.1800	 2.3760
 5.1850	 2.3940
 5.1910	 2.3860
 5.1960	 2.3670
 5.2010	 2.3510
 5.2060	 2.3840
 5.2110	 2.3550
 5.2170	 2.3710
 5.2220	 2.3670
 5.2270	 2.3780
 5.2330	 2.3810
 5.2380	 2.4030
 5.2430	 2.3470
 5.2480	 2.3320
 5.2540	 2.3640
 5.2590	 2.3880
 5.2640	 2.3560
 5.2700	 2.3580
 5.2750	 2.3420
 5.2800	 2.3450
 5.2860	 2.3300
 5.2910	 2.3510
 5.2970	 2.3290
 5.3020	 2.3620
 5.3080	 2.3670
 5.3130	 2.3940
 5.3180	 2.3730
 5.3240	 2.3770
 5.3290	 2.3870
 5.3350	 2.4160
 5.3400	 2.3760
 5.3460	 2.3540
 5.3510	 2.3230
 5.3570	 2.3410
 5.3620	 2.3540
 5.3680	 2.3770
 5.3740	 2.3610
 5.3790	 2.4000
 5.3850	 2.4010
 5.3900	 2.3970
 5.3960	 2.3520
 5.4010	 2.3910
 5.4070	 2.3850
 5.4130	 2.3640
 5.4180	 2.3640
 5.4240	 2.3800
 5.4300	 2.3630
 5.4350	 2.3650
 5.4410	 2.3440
 5.4470	 2.3740
 5.4530	 2.3830
 5.4580	 2.3940
 5.4640	 2.3540
 5.4700	 2.3470
 5.4760	 2.3380
 5.4810	 2.3560
 5.4870	 2.3410
 5.4930	 2.3590
 5.4990	 2.3600
 5.5050	 2.3820
 5.5110	 2.3460
 5.5160	 2.3320
 5.5220	 2.3330
 5.5280	 2.3590
 5.5340	 2.3070
 5.5400	 2.3160
 5.5460	 2.3150
 5.5520	 2.3350
 5.5580	 2.3220
 5.5640	 2.3200
 5.5700	 2.2880
 5.5760	 2.3080
 5.5820	 2.3110
 5.5880	 2.3120
 5.5940	 2.2790
 5.6000	 2.2950
 5.6060	 2.2690
 5.6120	 2.2940
 5.6180	 2.3080
 5.6240	 2.3300
 5.6300	 2.3290
 5.6360	 2.3500
 5.6420	 2.2860
 5.6490	 2.2610
 5.6550	 2.2550
 5.6610	 2.2730
 5.6670	 2.2580
 5.6730	 2.3050
 5.6800	 2.3040
 5.6860	 2.2890
 5.6920	 2.2740
 5.6980	 2.2980
 5.7050	 2.2280
 5.7110	 2.2000
 5.7170	 2.1810
 5.7230	 2.1890
 5.7300	 2.1480
 5.7360	 2.1430
 5.7420	 2.1080
 5.7490	 2.1020
 5.7550	 2.0840
 5.7620	 2.1110
 5.7680	 2.0680
 5.7740	 2.0970
 5.7810	 2.1240
 5.7870	 2.1590
 5.7940	 2.1290
 5.8000	 2.1690
 5.8070	 2.1970
 5.8130	 2.2450
 5.8200	 2.2350
 5.8260	 2.2450
 5.8330	 2.2080
 5.8390	 2.2570
 5.8460	 2.3020
 5.8530	 2.3610
 5.8590	 2.3630
 5.8660	 2.3710
 5.8730	 2.3380
 5.8790	 2.4020
 5.8860	 2.3620
 5.8930	 2.3910
 5.8990	 2.4250
 5.9060	 2.4450
 5.9130	 2.4230
 5.9190	 2.4240
 5.9260	 2.3990
 5.9330	 2.4280
 5.9400	 2.4290
 5.9470	 2.4450
 5.9530	 2.3970
 5.9600	 2.4180
 5.9670	 2.4290
 5.9740	 2.4600
 5.9810	 2.4100
 5.9880	 2.4370
 5.9950	 2.4120
 6.0020	 2.4100
 6.0090	 2.3610
 6.0160	 2.3390
 6.0230	 2.3310
 6.0300	 2.4080
 6.0370	 2.3850
 6.0440	 2.4080
 6.0510	 2.3640
 6.0580	 2.4010
 6.0650	 2.4310
 6.0720	 2.4900
 6.0790	 2.4350
 6.0860	 2.4220
 6.0930	 2.4020
 6.1010	 2.4620
 6.1080	 2.4370
 6.1150	 2.4780
 6.1220	 2.4510
 6.1290	 2.4550
 6.1370	 2.4160
 6.1440	 2.4460
 6.1510	 2.4210
 6.1580	 2.4190
 6.1660	 2.4080
 6.1730	 2.4530
 6.1800	 2.4150
 6.1880	 2.4920
 6.1950	 2.4670
 6.2030	 2.4560
 6.2100	 2.4410
 6.2180	 2.5110
 6.2250	 2.5060
 6.2320	 2.5790
 6.2400	 2.6010
 6.2480	 2.5940
 6.2550	 2.5350
 6.2630	 2.5860
 6.2700	 2.5540
 6.2780	 2.5900
 6.2850	 2.5510
 6.2930	 2.5250
 6.3010	 2.4900
 6.3080	 2.5510
 6.3160	 2.5000
 6.3240	 2.5120
 6.3310	 2.5130
 6.3390	 2.5750
 6.3470	 2.5170
 6.3550	 2.5430
 6.3620	 2.5170
 6.3700	 2.5240
 6.3780	 2.4880
 6.3860	 2.5540
 6.3940	 2.5380
 6.4020	 2.5290
 6.4100	 2.5180
 6.4180	 2.5630
 6.4260	 2.4820
 6.4340	 2.4970
 6.4420	 2.4430
 6.4500	 2.4740
 6.4580	 2.4640
 6.4660	 2.4770
 6.4740	 2.4540
 6.4820	 2.5320
 6.4900	 2.5090
 6.4980	 2.4940
 6.5060	 2.4480
 6.5140	 2.4730
 6.5230	 2.4150
 6.5310	 2.4110
 6.5390	 2.4120
 6.5470	 2.4390
 6.5560	 2.3970
 6.5640	 2.4100
 6.5720	 2.3800
 6.5800	 2.3720
 6.5890	 2.3540
 6.5970	 2.4070
 6.6060	 2.4060
 6.6140	 2.4460
 6.6230	 2.4040
 6.6310	 2.4160
 6.6390	 2.3710
 6.6480	 2.4000
 6.6570	 2.3660
 6.6650	 2.3710
 6.6740	 2.3190
 6.6820	 2.3400
 6.6910	 2.3020
 6.7000	 2.3350
 6.7080	 2.3420
 6.7170	 2.3630
 6.7260	 2.2910
 6.7340	 2.2950
 6.7430	 2.2310
 6.7520	 2.2360
 6.7610	 2.1850
 6.7690	 2.1900
 6.7780	 2.1980
 6.7870	 2.4770
 6.7960	 2.5550
 6.8050	 2.4600
 6.8140	 2.3580
 6.8230	 2.4400
 6.8320	 2.6260
 6.8410	 2.8120
 6.8500	 2.7070
 6.8590	 2.6680
 6.8680	 2.5950
 6.8770	 2.5820
 6.8860	 2.4620
 6.8960	 2.4460
 6.9050	 2.4330
 6.9140	 2.5120
 6.9230	 2.4970
 6.9320	 2.5170
 6.9420	 2.4520
 6.9510	 2.5010
 6.9600	 2.5090
 6.9700	 2.5500
 6.9790	 2.5060
 6.9880	 2.5450
 6.9980	 2.4850
 7.0070	 2.4940
 7.0170	 2.4560
 7.0260	 2.4940
 7.0360	 2.4770
 7.0450	 2.5100
 7.0550	 2.4490
 7.0650	 2.4690
 7.0740	 2.4600
 7.0840	 2.5230
 7.0940	 2.5000
 7.1030	 2.5050
 7.1130	 2.4750
 7.1230	 2.5590
 7.1330	 2.5430
 7.1420	 2.5750
 7.1520	 2.4850
 7.1620	 2.5130
 7.1720	 2.5520
 7.1820	 2.5740
 7.1920	 2.4890
 7.2020	 2.5130
 7.2120	 2.4800
 7.2220	 2.4980
 7.2320	 2.4640
 7.2420	 2.5120
 7.2520	 2.4940
 7.2620	 2.5860
 7.2730	 2.5510
 7.2830	 2.5320
 7.2930	 2.4410
 7.3030	 2.5080
 7.3140	 2.5290
 7.3240	 2.5830
 7.3340	 2.5090
 7.3450	 2.4850
 7.3550	 2.4380
 7.3660	 2.5320
 7.3760	 2.5250
 7.3870	 2.5300
 7.3970	 2.4740
 7.4080	 2.5200
 7.4180	 2.4700
 7.4290	 2.5030
 7.4400	 2.4780
 7.4500	 2.5080
 7.4610	 2.4610
 7.4720	 2.5000
 7.4830	 2.4620
 7.4930	 2.4810
 7.5040	 2.4530
 7.5150	 2.5000
 7.5260	 2.4610
 7.5370	 2.5410
 7.5480	 2.4990
 7.5590	 2.4860
 7.5700	 2.4370
 7.5810	 2.5020
 7.5920	 2.4640
 7.6030	 2.4860
 7.6140	 2.4160
 7.6260	 2.4220
 7.6370	 2.3620
 7.6480	 2.4210
 7.6590	 2.4230
 7.6710	 2.4720
 7.6820	 2.4320
 7.6940	 2.4450
 7.7050	 2.3960
 7.7160	 2.4400
 7.7280	 2.4090
 7.7390	 2.4870
 7.7510	 2.4550
 7.7630	 2.4700
 7.7740	 2.4200
 7.7860	 2.4670
 7.7980	 2.3880
 7.8090	 2.4060
 7.8210	 2.3990
 7.8330	 2.4450
 7.8450	 2.3750
 7.8570	 2.4570
 7.8690	 2.4130
 7.8810	 2.4720
 7.8930	 2.4300
 7.9050	 2.4680
 7.9170	 2.4230
 7.9290	 2.4500
 7.9410	 2.4020
 7.9530	 2.4670
 7.9650	 2.4040
 7.9780	 2.4520
 7.9900	 2.3720
 8.0020	 2.3840
 8.0150	 2.3580
 8.0270	 2.4270
 8.0390	 2.3270
 8.0520	 2.4270
 8.0640	 2.4610
 8.0770	 2.5020
 8.0900	 2.3780
 8.1020	 2.4220
 8.1150	 2.3940
 8.1280	 2.4710
 8.1400	 2.4220
 8.1530	 2.4660
 8.1660	 2.4430
 8.1790	 2.5280
 8.1920	 2.4590
 8.2050	 2.5320
 8.2180	 2.4130
 8.2310	 2.5000
 8.2440	 2.4700
 8.2570	 2.5090
 8.2700	 2.4440
 8.2830	 2.5530
 8.2970	 2.5110
 8.3100	 2.4990
 8.3230	 2.4080
 8.3370	 2.4790
 8.3500	 2.3900
 8.3640	 2.4400
 8.3770	 2.3680
 8.3910	 2.4200
 8.4040	 2.3700
 8.4180	 2.4650
 8.4320	 2.4460
 8.4450	 2.5160
 8.4590	 2.4080
 8.4730	 2.4550
 8.4870	 2.3600
 8.5010	 2.4030
 8.5150	 2.3720
 8.5290	 2.5040
 8.5430	 2.4490
 8.5570	 2.5480
 8.5710	 2.4700
 8.5850	 2.5880
 8.5990	 2.5730
 8.6140	 2.6250
 8.6280	 2.5360
 8.6420	 2.6570
 8.6570	 2.5830
 8.6710	 2.6550
 8.6860	 2.5980
 8.7000	 2.6630
 8.7150	 2.5930
 8.7300	 2.7220
 8.7440	 2.6520
 8.7590	 2.6580
 8.7740	 2.5850
 8.7890	 2.7490
 8.8040	 2.6760
 8.8190	 2.7510
 8.8340	 2.7220
 8.8490	 2.7670
 8.8640	 2.6780
 8.8790	 2.7970
 8.8940	 2.7270
 8.9100	 2.7920
 8.9250	 2.6780
 8.9400	 2.7240
 8.9560	 2.6570
 8.9710	 2.7690
 8.9870	 2.6520
 9.0020	 2.7680
 9.0180	 2.7310
 9.0340	 2.8290
 9.0500	 2.7430
 9.0650	 2.7840
 9.0810	 2.6430
 9.0970	 2.7280
 9.1130	 2.6930
 9.1290	 2.7420
 9.1450	 2.6990
 9.1620	 2.8330
 9.1780	 2.6740
 9.1940	 2.7570
 9.2100	 2.6960
 9.2270	 2.8220
 9.2430	 2.7770
 9.2600	 2.8860
 9.2760	 2.7800
 9.2930	 2.8770
 9.3100	 2.7770
 9.3260	 2.8430
 9.3430	 2.7310
 9.3600	 2.7610
 9.3770	 2.6480
 9.3940	 2.7570
 9.4110	 2.7200
 9.4280	 2.7870
 9.4450	 2.6470
 9.4620	 2.7880
 9.4800	 2.7040
 9.4970	 2.7730
 9.5150	 2.7180
 9.5320	 2.8220
 9.5500	 2.7380
 9.5670	 2.8760
 9.5850	 2.7660
 9.6030	 2.8690
 9.6200	 2.7690
 9.6380	 2.8200
 9.6560	 2.7210
 9.6740	 2.7480
 9.6920	 2.6450
 9.7110	 2.7780
 9.7290	 2.6950
 9.7470	 2.7890
 9.7650	 2.7740
 9.7840	 2.9320
 9.8020	 2.8270
 9.8210	 2.9980
 9.8390	 2.9100
 9.8580	 2.8560
 9.8770	 2.6670
 9.8960	 2.7120
 9.9150	 2.6380
 9.9340	 2.8020
 9.9530	 2.7750
 9.9720	 2.8470
 9.9910	 2.7680
10.0100	 2.8550
10.0300	 2.7100
10.0490	 2.7960
10.0690	 2.7520
10.0880	 2.8410
10.1080	 2.7530
10.1280	 2.8890
10.1480	 2.8010
10.1670	 2.8620
10.1870	 2.8080
10.2070	 2.8440
10.2280	 2.7400
10.2480	 2.7860
10.2680	 2.7570
10.2890	 2.8990
10.3090	 2.7750
10.3300	 2.8750
10.3500	 2.8040
10.3710	 2.9110
10.3920	 2.8320
10.4120	 2.9220
10.4330	 2.8510
10.4540	 2.9710
10.4760	 2.8630
10.4970	 2.9240
10.5180	 2.7780
10.5390	 2.8050
10.5610	 2.6750
10.5820	 2.8240
10.6040	 2.7990
10.6260	 2.8640
10.6480	 2.7520
10.6700	 2.8940
10.6920	 2.8280
10.7140	 2.8700
10.7360	 2.7780
10.7580	 2.8570
10.7800	 2.8220
10.8030	 2.9730
10.8250	 2.8440
10.8480	 2.8890
10.8710	 2.7170
10.8940	 2.7760
10.9170	 2.7170
10.9400	 2.8310
10.9630	 2.6890
10.9860	 2.8450
11.0090	 2.8400
11.0330	 2.9500
11.0560	 2.7750
11.0800	 2.8190
11.1040	 2.7030
11.1270	 2.7800
11.1510	 2.6480
11.1750	 2.7590
11.2000	 2.7170
11.2240	 2.8560
11.2480	 2.7590
11.2730	 2.7810
11.2970	 2.6110
11.3220	 2.6670
11.3470	 2.5520
11.3720	 2.7370
11.3970	 2.6150
11.4220	 2.6810
11.4470	 2.6380
11.4720	 2.8330
11.4980	 2.7580
11.5230	 2.8080
11.5490	 2.6440
11.5750	 2.7540
11.6000	 2.6460
11.6260	 2.7610
11.6530	 2.6530
11.6790	 2.7770
11.7050	 2.6320
11.7320	 2.7580
11.7580	 2.6310
11.7850	 2.7540
11.8120	 2.6280
11.8390	 2.6190
11.8660	 2.4110
11.8930	 2.6010
11.9200	 2.5230
11.9480	 2.7210
11.9760	 2.5920
12.0030	 2.6550
12.0310	 2.5190
12.0590	 2.6700
12.0870	 2.5700
12.1150	 2.6680
12.1440	 2.5500
12.1720	 2.6730
12.2010	 2.5020
12.2300	 2.7120
12.2590	 2.6070
12.2880	 2.7160
12.3170	 2.5860
12.3460	 2.6750
12.3760	 2.5280
12.4050	 2.7560
12.4350	 2.6550
12.4650	 2.7700
12.4950	 2.6020
12.5250	 2.7440
12.5550	 2.6110
12.5860	 2.7850
12.6170	 2.6600
12.6470	 2.7090
12.6780	 2.4790
12.7090	 2.6610
12.7410	 2.6050
12.7720	 2.8080
12.8030	 2.6330
12.8350	 2.7360
12.8670	 2.6080
12.8990	 2.8070
12.9310	 2.6220
12.9640	 2.7170
12.9960	 2.5600
13.0290	 2.8000
13.0610	 2.7040
13.0940	 2.8990
13.1280	 2.7120
13.1610	 2.8160
13.1940	 2.6660
13.2280	 2.7480
13.2620	 2.5290
13.2960	 2.7200
13.3300	 2.5780
13.3640	 2.7660
13.3990	 2.6220
13.4340	 2.7780
13.4690	 2.5980
13.5040	 2.7930
13.5390	 2.5750
13.5740	 2.6630
13.6100	 2.5640
13.6460	 2.8590
13.6820	 2.8080
13.7180	 3.1020
13.7540	 3.0470
13.7910	 3.1660
13.8280	 2.7690
13.8650	 3.1160
13.9020	 3.1200
13.9390	 3.2680
13.9770	 2.9540
14.0150	 3.0840
14.0530	 2.8700
14.0910	 3.0640
14.1290	 2.8420
14.1680	 3.0690
14.2070	 2.9180
14.2460	 3.2340
14.2850	 2.9650
14.3240	 3.1780
14.3640	 2.9460
14.4040	 3.1460
14.4440	 2.8850
14.4840	 3.2470
14.5250	 3.1310
14.5660	 3.3370
14.6070	 2.9320
14.6480	 3.2870
14.6900	 2.9740
14.7310	 3.3040
14.7730	 3.0370
14.8150	 3.3390
14.8580	 3.0960
14.9010	 3.4340
14.9440	 3.1970
14.9870	 3.7930
15.0300	 3.2090
15.0740	 3.5310
15.1180	 3.3140
15.1620	 3.7860
15.2060	 3.2680
15.2510	 3.4890
15.2960	 2.9800
15.3410	 3.4160
15.3870	 0.0000
