Name: Adenostoma fasciculatum 3
Type: vegetation
Class: Shrub
Genus: Adenostoma
Species: fasciculatum
Sample No.: VH222
Owner: UCSB
Wavelength Range: VSWIR
Origin: 34.5084; -119.7686; WGS84
Collection Date: 10/13/2013
Description: Samples were collected as part of the HyspIRI Airborne Campaign. 48 individual plants were sampled in three times in 2013 - spring  summer  and fall. The name of the sample includes a 1  2  or 3 which references a different individual of the species. Samples were taken to JPL and processed within 48 hours of collection. The same leaves were processed in the Nicolet and then measured using the ASD.
Measurement: Bidirectional reflectance
First Column: X
Second Column: Y
X Units: Wavelength (micrometers)
Y Units: Reflectance (percentage)
First X Value: 0.35
Last X Value: 2.5
Number of X Values: 2151
Additional Information: vegetation.shrub.adenostoma.fasciculatum.vswir.vh222.ucsb.asd.ancillary.txt

 0.3500	 2.4640
 0.3510	 2.4110
 0.3520	 2.2430
 0.3530	 2.1430
 0.3540	 2.1890
 0.3550	 1.9920
 0.3560	 1.9220
 0.3570	 2.0090
 0.3580	 2.1020
 0.3590	 2.1890
 0.3600	 2.1610
 0.3610	 2.0200
 0.3620	 1.9250
 0.3630	 1.9290
 0.3640	 2.0160
 0.3650	 2.1040
 0.3660	 1.9880
 0.3670	 1.8910
 0.3680	 1.8820
 0.3690	 1.9130
 0.3700	 1.9730
 0.3710	 1.9610
 0.3720	 1.8980
 0.3730	 2.0580
 0.3740	 2.0940
 0.3750	 1.9900
 0.3760	 1.8660
 0.3770	 1.9120
 0.3780	 2.0120
 0.3790	 2.0860
 0.3800	 2.1000
 0.3810	 2.0810
 0.3820	 2.0780
 0.3830	 2.0810
 0.3840	 1.9380
 0.3850	 1.8580
 0.3860	 1.8920
 0.3870	 2.0030
 0.3880	 2.0930
 0.3890	 2.0490
 0.3900	 1.9350
 0.3910	 1.9750
 0.3920	 1.9450
 0.3930	 1.9350
 0.3940	 2.0150
 0.3950	 2.0600
 0.3960	 2.0540
 0.3970	 2.0080
 0.3980	 1.9650
 0.3990	 2.0320
 0.4000	 2.1110
 0.4010	 2.1300
 0.4020	 2.0710
 0.4030	 2.0500
 0.4040	 2.0860
 0.4050	 2.1500
 0.4060	 2.1610
 0.4070	 2.1270
 0.4080	 2.1160
 0.4090	 2.2100
 0.4100	 2.2350
 0.4110	 2.2550
 0.4120	 2.2930
 0.4130	 2.2500
 0.4140	 2.2330
 0.4150	 2.2570
 0.4160	 2.2970
 0.4170	 2.3170
 0.4180	 2.3330
 0.4190	 2.3560
 0.4200	 2.3830
 0.4210	 2.4090
 0.4220	 2.4220
 0.4230	 2.4260
 0.4240	 2.4620
 0.4250	 2.4880
 0.4260	 2.5010
 0.4270	 2.5220
 0.4280	 2.5660
 0.4290	 2.5840
 0.4300	 2.5730
 0.4310	 2.6020
 0.4320	 2.6410
 0.4330	 2.6790
 0.4340	 2.7090
 0.4350	 2.7220
 0.4360	 2.7440
 0.4370	 2.7660
 0.4380	 2.7580
 0.4390	 2.7560
 0.4400	 2.7730
 0.4410	 2.8060
 0.4420	 2.8300
 0.4430	 2.8410
 0.4440	 2.8470
 0.4450	 2.8650
 0.4460	 2.8900
 0.4470	 2.9090
 0.4480	 2.9180
 0.4490	 2.9250
 0.4500	 2.9350
 0.4510	 2.9510
 0.4520	 2.9710
 0.4530	 2.9950
 0.4540	 3.0210
 0.4550	 3.0420
 0.4560	 3.0540
 0.4570	 3.0730
 0.4580	 3.0830
 0.4590	 3.0780
 0.4600	 3.0940
 0.4610	 3.1270
 0.4620	 3.1450
 0.4630	 3.1250
 0.4640	 3.1540
 0.4650	 3.1710
 0.4660	 3.1650
 0.4670	 3.1760
 0.4680	 3.1870
 0.4690	 3.1930
 0.4700	 3.1980
 0.4710	 3.2140
 0.4720	 3.2410
 0.4730	 3.2620
 0.4740	 3.2560
 0.4750	 3.2550
 0.4760	 3.2610
 0.4770	 3.2740
 0.4780	 3.2850
 0.4790	 3.2990
 0.4800	 3.3070
 0.4810	 3.3070
 0.4820	 3.3350
 0.4830	 3.3490
 0.4840	 3.3450
 0.4850	 3.3520
 0.4860	 3.3630
 0.4870	 3.3780
 0.4880	 3.3920
 0.4890	 3.3950
 0.4900	 3.4200
 0.4910	 3.4520
 0.4920	 3.4590
 0.4930	 3.4860
 0.4940	 3.5190
 0.4950	 3.5510
 0.4960	 3.5880
 0.4970	 3.6250
 0.4980	 3.6610
 0.4990	 3.7000
 0.5000	 3.7360
 0.5010	 3.7760
 0.5020	 3.8220
 0.5030	 3.8780
 0.5040	 3.9390
 0.5050	 4.0050
 0.5060	 4.0750
 0.5070	 4.1500
 0.5080	 4.2270
 0.5090	 4.3080
 0.5100	 4.4000
 0.5110	 4.4940
 0.5120	 4.5970
 0.5130	 4.7070
 0.5140	 4.8060
 0.5150	 4.9290
 0.5160	 5.0630
 0.5170	 5.1880
 0.5180	 5.3200
 0.5190	 5.4590
 0.5200	 5.6010
 0.5210	 5.7410
 0.5220	 5.8810
 0.5230	 6.0270
 0.5240	 6.1770
 0.5250	 6.3020
 0.5260	 6.4290
 0.5270	 6.5630
 0.5280	 6.6970
 0.5290	 6.8210
 0.5300	 6.9360
 0.5310	 7.0430
 0.5320	 7.1430
 0.5330	 7.2340
 0.5340	 7.3220
 0.5350	 7.4080
 0.5360	 7.4900
 0.5370	 7.5680
 0.5380	 7.6410
 0.5390	 7.7060
 0.5400	 7.7660
 0.5410	 7.8320
 0.5420	 7.9070
 0.5430	 7.9620
 0.5440	 8.0220
 0.5450	 8.0820
 0.5460	 8.1300
 0.5470	 8.1740
 0.5480	 8.2160
 0.5490	 8.2550
 0.5500	 8.2940
 0.5510	 8.3270
 0.5520	 8.3570
 0.5530	 8.3860
 0.5540	 8.4040
 0.5550	 8.4090
 0.5560	 8.4070
 0.5570	 8.4060
 0.5580	 8.3920
 0.5590	 8.3700
 0.5600	 8.3450
 0.5610	 8.3140
 0.5620	 8.2730
 0.5630	 8.2240
 0.5640	 8.1730
 0.5650	 8.1200
 0.5660	 8.0600
 0.5670	 7.9910
 0.5680	 7.9160
 0.5690	 7.8440
 0.5700	 7.7710
 0.5710	 7.6930
 0.5720	 7.6080
 0.5730	 7.5300
 0.5740	 7.4620
 0.5750	 7.4010
 0.5760	 7.3340
 0.5770	 7.2730
 0.5780	 7.2220
 0.5790	 7.1610
 0.5800	 7.1100
 0.5810	 7.0630
 0.5820	 7.0100
 0.5830	 6.9690
 0.5840	 6.9340
 0.5850	 6.9040
 0.5860	 6.8890
 0.5870	 6.8680
 0.5880	 6.8400
 0.5890	 6.8090
 0.5900	 6.7740
 0.5910	 6.7410
 0.5920	 6.7160
 0.5930	 6.7010
 0.5940	 6.6840
 0.5950	 6.6710
 0.5960	 6.6630
 0.5970	 6.6550
 0.5980	 6.6490
 0.5990	 6.6410
 0.6000	 6.6240
 0.6010	 6.6070
 0.6020	 6.5880
 0.6030	 6.5660
 0.6040	 6.5430
 0.6050	 6.5160
 0.6060	 6.4850
 0.6070	 6.4510
 0.6080	 6.4120
 0.6090	 6.3710
 0.6100	 6.3340
 0.6110	 6.3040
 0.6120	 6.2600
 0.6130	 6.2130
 0.6140	 6.1660
 0.6150	 6.1180
 0.6160	 6.0720
 0.6170	 6.0320
 0.6180	 6.0010
 0.6190	 5.9740
 0.6200	 5.9440
 0.6210	 5.9170
 0.6220	 5.9030
 0.6230	 5.8900
 0.6240	 5.8780
 0.6250	 5.8700
 0.6260	 5.8650
 0.6270	 5.8620
 0.6280	 5.8600
 0.6290	 5.8620
 0.6300	 5.8650
 0.6310	 5.8660
 0.6320	 5.8640
 0.6330	 5.8570
 0.6340	 5.8460
 0.6350	 5.8270
 0.6360	 5.7990
 0.6370	 5.7700
 0.6380	 5.7330
 0.6390	 5.6850
 0.6400	 5.6290
 0.6410	 5.5710
 0.6420	 5.5150
 0.6430	 5.4560
 0.6440	 5.3890
 0.6450	 5.3240
 0.6460	 5.2650
 0.6470	 5.2070
 0.6480	 5.1480
 0.6490	 5.0990
 0.6500	 5.0600
 0.6510	 5.0210
 0.6520	 4.9930
 0.6530	 4.9690
 0.6540	 4.9390
 0.6550	 4.9120
 0.6560	 4.8770
 0.6570	 4.8360
 0.6580	 4.7930
 0.6590	 4.7460
 0.6600	 4.6930
 0.6610	 4.6380
 0.6620	 4.5860
 0.6630	 4.5310
 0.6640	 4.4800
 0.6650	 4.4370
 0.6660	 4.3930
 0.6670	 4.3540
 0.6680	 4.3230
 0.6690	 4.2970
 0.6700	 4.2750
 0.6710	 4.2610
 0.6720	 4.2540
 0.6730	 4.2510
 0.6740	 4.2510
 0.6750	 4.2550
 0.6760	 4.2630
 0.6770	 4.2700
 0.6780	 4.2860
 0.6790	 4.3130
 0.6800	 4.3460
 0.6810	 4.3820
 0.6820	 4.4270
 0.6830	 4.4830
 0.6840	 4.5560
 0.6850	 4.6570
 0.6860	 4.7810
 0.6870	 4.9230
 0.6880	 5.0970
 0.6890	 5.3070
 0.6900	 5.5560
 0.6910	 5.8440
 0.6920	 6.1740
 0.6930	 6.5490
 0.6940	 6.9720
 0.6950	 7.4500
 0.6960	 7.9700
 0.6970	 8.5270
 0.6980	 9.1170
 0.6990	 9.7460
 0.7000	10.4080
 0.7010	11.0920
 0.7020	11.7880
 0.7030	12.5060
 0.7040	13.2350
 0.7050	13.9620
 0.7060	14.6960
 0.7070	15.4350
 0.7080	16.1740
 0.7090	16.9130
 0.7100	17.6530
 0.7110	18.3890
 0.7120	19.1250
 0.7130	19.8700
 0.7140	20.6060
 0.7150	21.3370
 0.7160	22.0640
 0.7170	22.7870
 0.7180	23.5010
 0.7190	24.2040
 0.7200	24.8990
 0.7210	25.5870
 0.7220	26.2580
 0.7230	26.9110
 0.7240	27.5600
 0.7250	28.1940
 0.7260	28.7980
 0.7270	29.3690
 0.7280	29.9330
 0.7290	30.4780
 0.7300	30.9950
 0.7310	31.4790
 0.7320	31.9390
 0.7330	32.3850
 0.7340	32.8150
 0.7350	33.2180
 0.7360	33.6000
 0.7370	33.9550
 0.7380	34.2840
 0.7390	34.6020
 0.7400	34.9080
 0.7410	35.1960
 0.7420	35.4570
 0.7430	35.7060
 0.7440	35.9390
 0.7450	36.1590
 0.7460	36.3760
 0.7470	36.5630
 0.7480	36.7300
 0.7490	36.8890
 0.7500	37.0440
 0.7510	37.1800
 0.7520	37.3050
 0.7530	37.4310
 0.7540	37.5500
 0.7550	37.6590
 0.7560	37.7580
 0.7570	37.8500
 0.7580	37.9380
 0.7590	38.0180
 0.7600	38.0890
 0.7610	38.1460
 0.7620	38.2130
 0.7630	38.2810
 0.7640	38.3380
 0.7650	38.3890
 0.7660	38.4460
 0.7670	38.4980
 0.7680	38.5310
 0.7690	38.5790
 0.7700	38.6300
 0.7710	38.6720
 0.7720	38.7050
 0.7730	38.7450
 0.7740	38.7790
 0.7750	38.8030
 0.7760	38.8400
 0.7770	38.8700
 0.7780	38.8980
 0.7790	38.9390
 0.7800	38.9780
 0.7810	39.0000
 0.7820	39.0210
 0.7830	39.0750
 0.7840	39.1170
 0.7850	39.1410
 0.7860	39.1580
 0.7870	39.1960
 0.7880	39.2350
 0.7890	39.2670
 0.7900	39.2870
 0.7910	39.3090
 0.7920	39.3410
 0.7930	39.3800
 0.7940	39.4150
 0.7950	39.4320
 0.7960	39.4550
 0.7970	39.4900
 0.7980	39.5140
 0.7990	39.5540
 0.8000	39.5940
 0.8010	39.6190
 0.8020	39.6390
 0.8030	39.6760
 0.8040	39.7180
 0.8050	39.7410
 0.8060	39.7740
 0.8070	39.7960
 0.8080	39.8140
 0.8090	39.8570
 0.8100	39.9030
 0.8110	39.9400
 0.8120	39.9670
 0.8130	39.9900
 0.8140	40.0180
 0.8150	40.0460
 0.8160	40.0710
 0.8170	40.0930
 0.8180	40.1400
 0.8190	40.1950
 0.8200	40.2270
 0.8210	40.2430
 0.8220	40.2640
 0.8230	40.2940
 0.8240	40.3220
 0.8250	40.3670
 0.8260	40.4000
 0.8270	40.4140
 0.8280	40.4490
 0.8290	40.4890
 0.8300	40.5140
 0.8310	40.5200
 0.8320	40.5470
 0.8330	40.5780
 0.8340	40.6070
 0.8350	40.6340
 0.8360	40.6520
 0.8370	40.6810
 0.8380	40.7220
 0.8390	40.7580
 0.8400	40.7780
 0.8410	40.7960
 0.8420	40.8230
 0.8430	40.8580
 0.8440	40.8750
 0.8450	40.8920
 0.8460	40.9270
 0.8470	40.9590
 0.8480	40.9940
 0.8490	41.0190
 0.8500	41.0300
 0.8510	41.0670
 0.8520	41.1020
 0.8530	41.1250
 0.8540	41.1360
 0.8550	41.1600
 0.8560	41.1930
 0.8570	41.2190
 0.8580	41.2250
 0.8590	41.2290
 0.8600	41.2510
 0.8610	41.2890
 0.8620	41.3010
 0.8630	41.3000
 0.8640	41.3200
 0.8650	41.3710
 0.8660	41.3850
 0.8670	41.3890
 0.8680	41.3970
 0.8690	41.4120
 0.8700	41.4180
 0.8710	41.4330
 0.8720	41.4490
 0.8730	41.4510
 0.8740	41.4730
 0.8750	41.5010
 0.8760	41.5200
 0.8770	41.5230
 0.8780	41.5250
 0.8790	41.5360
 0.8800	41.5550
 0.8810	41.5650
 0.8820	41.5740
 0.8830	41.5760
 0.8840	41.5740
 0.8850	41.5930
 0.8860	41.5980
 0.8870	41.5950
 0.8880	41.5970
 0.8890	41.6050
 0.8900	41.6190
 0.8910	41.6320
 0.8920	41.6390
 0.8930	41.6390
 0.8940	41.6300
 0.8950	41.6180
 0.8960	41.6120
 0.8970	41.6250
 0.8980	41.6320
 0.8990	41.6270
 0.9000	41.6260
 0.9010	41.6240
 0.9020	41.6200
 0.9030	41.6220
 0.9040	41.6450
 0.9050	41.6410
 0.9060	41.6280
 0.9070	41.6250
 0.9080	41.6280
 0.9090	41.6250
 0.9100	41.6290
 0.9110	41.6420
 0.9120	41.6220
 0.9130	41.6290
 0.9140	41.6510
 0.9150	41.6560
 0.9160	41.6420
 0.9170	41.6230
 0.9180	41.6190
 0.9190	41.6400
 0.9200	41.6550
 0.9210	41.6500
 0.9220	41.6290
 0.9230	41.6070
 0.9240	41.6040
 0.9250	41.6150
 0.9260	41.6270
 0.9270	41.6250
 0.9280	41.6090
 0.9290	41.5910
 0.9300	41.5680
 0.9310	41.5260
 0.9320	41.5290
 0.9330	41.5380
 0.9340	41.5270
 0.9350	41.5090
 0.9360	41.4910
 0.9370	41.4700
 0.9380	41.4460
 0.9390	41.4240
 0.9400	41.4090
 0.9410	41.3940
 0.9420	41.3690
 0.9430	41.3190
 0.9440	41.2810
 0.9450	41.2520
 0.9460	41.2260
 0.9470	41.2120
 0.9480	41.1800
 0.9490	41.1190
 0.9500	41.0390
 0.9510	40.9830
 0.9520	40.9150
 0.9530	40.8460
 0.9540	40.7810
 0.9550	40.6750
 0.9560	40.6270
 0.9570	40.5890
 0.9580	40.5020
 0.9590	40.4600
 0.9600	40.4040
 0.9610	40.3380
 0.9620	40.2880
 0.9630	40.2640
 0.9640	40.2170
 0.9650	40.1730
 0.9660	40.1670
 0.9670	40.1290
 0.9680	40.0840
 0.9690	40.0590
 0.9700	40.0670
 0.9710	40.0560
 0.9720	40.0510
 0.9730	40.0410
 0.9740	40.0130
 0.9750	40.0470
 0.9760	40.0330
 0.9770	39.9970
 0.9780	40.0110
 0.9790	40.0330
 0.9800	40.0730
 0.9810	40.0900
 0.9820	40.0540
 0.9830	40.1060
 0.9840	40.1240
 0.9850	40.1210
 0.9860	40.1650
 0.9870	40.2180
 0.9880	40.2410
 0.9890	40.2500
 0.9900	40.2880
 0.9910	40.3520
 0.9920	40.4240
 0.9930	40.4960
 0.9940	40.5680
 0.9950	40.6400
 0.9960	40.7120
 0.9970	40.7850
 0.9980	40.8570
 0.9990	40.9290
 1.0000	41.0010
 1.0010	41.0730
 1.0020	41.1460
 1.0030	41.2180
 1.0040	41.2900
 1.0050	41.3620
 1.0060	41.4340
 1.0070	41.5070
 1.0080	41.5790
 1.0090	41.6510
 1.0100	41.6510
 1.0110	41.6950
 1.0120	41.7390
 1.0130	41.7870
 1.0140	41.8340
 1.0150	41.8880
 1.0160	41.9310
 1.0170	41.9700
 1.0180	42.0190
 1.0190	42.0660
 1.0200	42.1110
 1.0210	42.1540
 1.0220	42.1950
 1.0230	42.2390
 1.0240	42.2840
 1.0250	42.3270
 1.0260	42.3710
 1.0270	42.4150
 1.0280	42.4640
 1.0290	42.5010
 1.0300	42.5310
 1.0310	42.5660
 1.0320	42.5960
 1.0330	42.6280
 1.0340	42.6770
 1.0350	42.7280
 1.0360	42.7630
 1.0370	42.7970
 1.0380	42.8320
 1.0390	42.8610
 1.0400	42.8880
 1.0410	42.9160
 1.0420	42.9450
 1.0430	42.9690
 1.0440	42.9940
 1.0450	43.0290
 1.0460	43.0530
 1.0470	43.0620
 1.0480	43.0830
 1.0490	43.1040
 1.0500	43.1270
 1.0510	43.1510
 1.0520	43.1860
 1.0530	43.2080
 1.0540	43.2250
 1.0550	43.2460
 1.0560	43.2650
 1.0570	43.2840
 1.0580	43.3070
 1.0590	43.3240
 1.0600	43.3320
 1.0610	43.3470
 1.0620	43.3630
 1.0630	43.3790
 1.0640	43.3970
 1.0650	43.4150
 1.0660	43.4310
 1.0670	43.4470
 1.0680	43.4630
 1.0690	43.4820
 1.0700	43.4920
 1.0710	43.4980
 1.0720	43.5040
 1.0730	43.5050
 1.0740	43.5100
 1.0750	43.5170
 1.0760	43.5240
 1.0770	43.5320
 1.0780	43.5400
 1.0790	43.5490
 1.0800	43.5570
 1.0810	43.5670
 1.0820	43.5740
 1.0830	43.5810
 1.0840	43.5860
 1.0850	43.5850
 1.0860	43.5870
 1.0870	43.5880
 1.0880	43.5880
 1.0890	43.5850
 1.0900	43.5770
 1.0910	43.5750
 1.0920	43.5750
 1.0930	43.5700
 1.0940	43.5650
 1.0950	43.5590
 1.0960	43.5460
 1.0970	43.5350
 1.0980	43.5320
 1.0990	43.5190
 1.1000	43.4950
 1.1010	43.4770
 1.1020	43.4560
 1.1030	43.4360
 1.1040	43.4270
 1.1050	43.4170
 1.1060	43.4040
 1.1070	43.3930
 1.1080	43.3750
 1.1090	43.3510
 1.1100	43.3290
 1.1110	43.3030
 1.1120	43.2780
 1.1130	43.2550
 1.1140	43.2270
 1.1150	43.2010
 1.1160	43.1680
 1.1170	43.1320
 1.1180	43.0890
 1.1190	43.0400
 1.1200	42.9870
 1.1210	42.9240
 1.1220	42.8600
 1.1230	42.7950
 1.1240	42.7220
 1.1250	42.6450
 1.1260	42.5680
 1.1270	42.4810
 1.1280	42.3880
 1.1290	42.2860
 1.1300	42.1800
 1.1310	42.0620
 1.1320	41.9340
 1.1330	41.7990
 1.1340	41.6570
 1.1350	41.5080
 1.1360	41.3530
 1.1370	41.1870
 1.1380	41.0130
 1.1390	40.8370
 1.1400	40.6570
 1.1410	40.4720
 1.1420	40.2820
 1.1430	40.0900
 1.1440	39.8940
 1.1450	39.6850
 1.1460	39.4890
 1.1470	39.2910
 1.1480	39.1020
 1.1490	38.9160
 1.1500	38.7400
 1.1510	38.5690
 1.1520	38.4080
 1.1530	38.2530
 1.1540	38.1080
 1.1550	37.9730
 1.1560	37.8450
 1.1570	37.7240
 1.1580	37.6160
 1.1590	37.5130
 1.1600	37.4170
 1.1610	37.3340
 1.1620	37.2560
 1.1630	37.1850
 1.1640	37.1230
 1.1650	37.0640
 1.1660	37.0100
 1.1670	36.9620
 1.1680	36.9230
 1.1690	36.8820
 1.1700	36.8470
 1.1710	36.8100
 1.1720	36.7700
 1.1730	36.7340
 1.1740	36.7020
 1.1750	36.6710
 1.1760	36.6410
 1.1770	36.6130
 1.1780	36.5790
 1.1790	36.5440
 1.1800	36.5090
 1.1810	36.4700
 1.1820	36.4330
 1.1830	36.3980
 1.1840	36.3630
 1.1850	36.3250
 1.1860	36.2920
 1.1870	36.2630
 1.1880	36.2340
 1.1890	36.2070
 1.1900	36.1820
 1.1910	36.1600
 1.1920	36.1380
 1.1930	36.1200
 1.1940	36.1020
 1.1950	36.0850
 1.1960	36.0660
 1.1970	36.0520
 1.1980	36.0450
 1.1990	36.0480
 1.2000	36.0530
 1.2010	36.0610
 1.2020	36.0730
 1.2030	36.0880
 1.2040	36.1110
 1.2050	36.1410
 1.2060	36.1770
 1.2070	36.2130
 1.2080	36.2520
 1.2090	36.2950
 1.2100	36.3400
 1.2110	36.3900
 1.2120	36.4420
 1.2130	36.5010
 1.2140	36.5700
 1.2150	36.6350
 1.2160	36.7010
 1.2170	36.7700
 1.2180	36.8410
 1.2190	36.9060
 1.2200	36.9770
 1.2210	37.0510
 1.2220	37.1230
 1.2230	37.1960
 1.2240	37.2680
 1.2250	37.3410
 1.2260	37.4080
 1.2270	37.4730
 1.2280	37.5390
 1.2290	37.5990
 1.2300	37.6630
 1.2310	37.7290
 1.2320	37.7840
 1.2330	37.8410
 1.2340	37.8990
 1.2350	37.9540
 1.2360	38.0080
 1.2370	38.0650
 1.2380	38.1180
 1.2390	38.1630
 1.2400	38.2070
 1.2410	38.2500
 1.2420	38.2960
 1.2430	38.3420
 1.2440	38.3860
 1.2450	38.4280
 1.2460	38.4640
 1.2470	38.4970
 1.2480	38.5280
 1.2490	38.5630
 1.2500	38.5970
 1.2510	38.6310
 1.2520	38.6680
 1.2530	38.6940
 1.2540	38.7140
 1.2550	38.7390
 1.2560	38.7590
 1.2570	38.7790
 1.2580	38.8060
 1.2590	38.8310
 1.2600	38.8580
 1.2610	38.8810
 1.2620	38.9040
 1.2630	38.9240
 1.2640	38.9390
 1.2650	38.9560
 1.2660	38.9750
 1.2670	38.9820
 1.2680	38.9880
 1.2690	38.9940
 1.2700	38.9960
 1.2710	39.0050
 1.2720	39.0100
 1.2730	39.0090
 1.2740	39.0060
 1.2750	39.0010
 1.2760	38.9970
 1.2770	38.9940
 1.2780	38.9880
 1.2790	38.9770
 1.2800	38.9650
 1.2810	38.9540
 1.2820	38.9380
 1.2830	38.9230
 1.2840	38.9040
 1.2850	38.8760
 1.2860	38.8530
 1.2870	38.8270
 1.2880	38.7990
 1.2890	38.7690
 1.2900	38.7420
 1.2910	38.7040
 1.2920	38.6670
 1.2930	38.6310
 1.2940	38.5900
 1.2950	38.5510
 1.2960	38.5090
 1.2970	38.4640
 1.2980	38.4150
 1.2990	38.3600
 1.3000	38.3010
 1.3010	38.2370
 1.3020	38.1710
 1.3030	38.1050
 1.3040	38.0360
 1.3050	37.9600
 1.3060	37.8800
 1.3070	37.7950
 1.3080	37.7030
 1.3090	37.6110
 1.3100	37.5150
 1.3110	37.4120
 1.3120	37.3100
 1.3130	37.2030
 1.3140	37.0900
 1.3150	36.9730
 1.3160	36.8520
 1.3170	36.7260
 1.3180	36.5930
 1.3190	36.4550
 1.3200	36.3140
 1.3210	36.1660
 1.3220	36.0170
 1.3230	35.8690
 1.3240	35.7160
 1.3250	35.5640
 1.3260	35.4110
 1.3270	35.2480
 1.3280	35.0860
 1.3290	34.9180
 1.3300	34.7420
 1.3310	34.5680
 1.3320	34.3870
 1.3330	34.2050
 1.3340	34.0230
 1.3350	33.8410
 1.3360	33.6580
 1.3370	33.4720
 1.3380	33.2870
 1.3390	33.1010
 1.3400	32.9160
 1.3410	32.7380
 1.3420	32.5610
 1.3430	32.3860
 1.3440	32.2140
 1.3450	32.0420
 1.3460	31.8680
 1.3470	31.6990
 1.3480	31.5300
 1.3490	31.3660
 1.3500	31.2070
 1.3510	31.0490
 1.3520	30.8890
 1.3530	30.7330
 1.3540	30.5810
 1.3550	30.4280
 1.3560	30.2780
 1.3570	30.1290
 1.3580	29.9750
 1.3590	29.8170
 1.3600	29.6590
 1.3610	29.4980
 1.3620	29.3360
 1.3630	29.1740
 1.3640	29.0050
 1.3650	28.8310
 1.3660	28.6520
 1.3670	28.4640
 1.3680	28.2650
 1.3690	28.0570
 1.3700	27.8390
 1.3710	27.6110
 1.3720	27.3790
 1.3730	27.1320
 1.3740	26.8700
 1.3750	26.5940
 1.3760	26.3000
 1.3770	25.9870
 1.3780	25.6580
 1.3790	25.3150
 1.3800	24.9550
 1.3810	24.5780
 1.3820	24.1880
 1.3830	23.7820
 1.3840	23.3640
 1.3850	22.9280
 1.3860	22.4880
 1.3870	22.0340
 1.3880	21.5810
 1.3890	21.1210
 1.3900	20.6540
 1.3910	20.1900
 1.3920	19.7250
 1.3930	19.2600
 1.3940	18.8030
 1.3950	18.3480
 1.3960	17.8980
 1.3970	17.4620
 1.3980	17.0340
 1.3990	16.6230
 1.4000	16.2260
 1.4010	15.8390
 1.4020	15.4700
 1.4030	15.1110
 1.4040	14.7690
 1.4050	14.4470
 1.4060	14.1380
 1.4070	13.8510
 1.4080	13.5810
 1.4090	13.3220
 1.4100	13.0790
 1.4110	12.8490
 1.4120	12.6320
 1.4130	12.4310
 1.4140	12.2450
 1.4150	12.0750
 1.4160	11.9180
 1.4170	11.7710
 1.4180	11.6340
 1.4190	11.5080
 1.4200	11.3920
 1.4210	11.2860
 1.4220	11.1910
 1.4230	11.1030
 1.4240	11.0230
 1.4250	10.9470
 1.4260	10.8750
 1.4270	10.8100
 1.4280	10.7520
 1.4290	10.6990
 1.4300	10.6530
 1.4310	10.6110
 1.4320	10.5730
 1.4330	10.5400
 1.4340	10.5120
 1.4350	10.4860
 1.4360	10.4630
 1.4370	10.4460
 1.4380	10.4310
 1.4390	10.4180
 1.4400	10.4080
 1.4410	10.4020
 1.4420	10.3960
 1.4430	10.3940
 1.4440	10.3970
 1.4450	10.3990
 1.4460	10.4050
 1.4470	10.4110
 1.4480	10.4170
 1.4490	10.4280
 1.4500	10.4360
 1.4510	10.4430
 1.4520	10.4540
 1.4530	10.4640
 1.4540	10.4750
 1.4550	10.4890
 1.4560	10.5020
 1.4570	10.5180
 1.4580	10.5370
 1.4590	10.5590
 1.4600	10.5820
 1.4610	10.6080
 1.4620	10.6360
 1.4630	10.6670
 1.4640	10.7010
 1.4650	10.7380
 1.4660	10.7760
 1.4670	10.8190
 1.4680	10.8640
 1.4690	10.9100
 1.4700	10.9600
 1.4710	11.0120
 1.4720	11.0680
 1.4730	11.1280
 1.4740	11.1910
 1.4750	11.2540
 1.4760	11.3190
 1.4770	11.3850
 1.4780	11.4540
 1.4790	11.5250
 1.4800	11.5950
 1.4810	11.6680
 1.4820	11.7430
 1.4830	11.8160
 1.4840	11.8930
 1.4850	11.9700
 1.4860	12.0470
 1.4870	12.1270
 1.4880	12.2050
 1.4890	12.2840
 1.4900	12.3620
 1.4910	12.4390
 1.4920	12.5190
 1.4930	12.6010
 1.4940	12.6820
 1.4950	12.7640
 1.4960	12.8470
 1.4970	12.9290
 1.4980	13.0130
 1.4990	13.0990
 1.5000	13.1840
 1.5010	13.2700
 1.5020	13.3540
 1.5030	13.4380
 1.5040	13.5220
 1.5050	13.6020
 1.5060	13.6870
 1.5070	13.7740
 1.5080	13.8570
 1.5090	13.9400
 1.5100	14.0220
 1.5110	14.1010
 1.5120	14.1830
 1.5130	14.2640
 1.5140	14.3460
 1.5150	14.4290
 1.5160	14.5080
 1.5170	14.5870
 1.5180	14.6680
 1.5190	14.7460
 1.5200	14.8240
 1.5210	14.9020
 1.5220	14.9760
 1.5230	15.0530
 1.5240	15.1290
 1.5250	15.2040
 1.5260	15.2800
 1.5270	15.3550
 1.5280	15.4260
 1.5290	15.4980
 1.5300	15.5700
 1.5310	15.6400
 1.5320	15.7100
 1.5330	15.7790
 1.5340	15.8470
 1.5350	15.9160
 1.5360	15.9880
 1.5370	16.0610
 1.5380	16.1300
 1.5390	16.1990
 1.5400	16.2650
 1.5410	16.3270
 1.5420	16.3910
 1.5430	16.4570
 1.5440	16.5220
 1.5450	16.5860
 1.5460	16.6510
 1.5470	16.7140
 1.5480	16.7760
 1.5490	16.8400
 1.5500	16.8990
 1.5510	16.9600
 1.5520	17.0240
 1.5530	17.0810
 1.5540	17.1420
 1.5550	17.2030
 1.5560	17.2590
 1.5570	17.3160
 1.5580	17.3710
 1.5590	17.4250
 1.5600	17.4810
 1.5610	17.5340
 1.5620	17.5890
 1.5630	17.6450
 1.5640	17.6970
 1.5650	17.7540
 1.5660	17.8080
 1.5670	17.8600
 1.5680	17.9150
 1.5690	17.9680
 1.5700	18.0210
 1.5710	18.0770
 1.5720	18.1320
 1.5730	18.1860
 1.5740	18.2400
 1.5750	18.2940
 1.5760	18.3470
 1.5770	18.3980
 1.5780	18.4540
 1.5790	18.5080
 1.5800	18.5620
 1.5810	18.6200
 1.5820	18.6760
 1.5830	18.7320
 1.5840	18.7880
 1.5850	18.8420
 1.5860	18.8960
 1.5870	18.9480
 1.5880	19.0010
 1.5890	19.0550
 1.5900	19.1050
 1.5910	19.1590
 1.5920	19.2130
 1.5930	19.2640
 1.5940	19.3140
 1.5950	19.3670
 1.5960	19.4180
 1.5970	19.4680
 1.5980	19.5220
 1.5990	19.5740
 1.6000	19.6260
 1.6010	19.6780
 1.6020	19.7270
 1.6030	19.7760
 1.6040	19.8240
 1.6050	19.8740
 1.6060	19.9260
 1.6070	19.9760
 1.6080	20.0250
 1.6090	20.0730
 1.6100	20.1180
 1.6110	20.1640
 1.6120	20.2090
 1.6130	20.2540
 1.6140	20.2990
 1.6150	20.3450
 1.6160	20.3890
 1.6170	20.4300
 1.6180	20.4690
 1.6190	20.5060
 1.6200	20.5440
 1.6210	20.5860
 1.6220	20.6270
 1.6230	20.6670
 1.6240	20.7110
 1.6250	20.7510
 1.6260	20.7880
 1.6270	20.8310
 1.6280	20.8650
 1.6290	20.8980
 1.6300	20.9320
 1.6310	20.9610
 1.6320	20.9850
 1.6330	21.0130
 1.6340	21.0410
 1.6350	21.0680
 1.6360	21.0940
 1.6370	21.1180
 1.6380	21.1390
 1.6390	21.1610
 1.6400	21.1830
 1.6410	21.2000
 1.6420	21.2140
 1.6430	21.2240
 1.6440	21.2300
 1.6450	21.2330
 1.6460	21.2370
 1.6470	21.2400
 1.6480	21.2370
 1.6490	21.2320
 1.6500	21.2250
 1.6510	21.2180
 1.6520	21.2070
 1.6530	21.1940
 1.6540	21.1780
 1.6550	21.1560
 1.6560	21.1350
 1.6570	21.1120
 1.6580	21.0880
 1.6590	21.0630
 1.6600	21.0380
 1.6610	21.0130
 1.6620	20.9880
 1.6630	20.9620
 1.6640	20.9360
 1.6650	20.9100
 1.6660	20.8880
 1.6670	20.8710
 1.6680	20.8550
 1.6690	20.8430
 1.6700	20.8330
 1.6710	20.8240
 1.6720	20.8150
 1.6730	20.8080
 1.6740	20.7970
 1.6750	20.7790
 1.6760	20.7610
 1.6770	20.7380
 1.6780	20.7060
 1.6790	20.6750
 1.6800	20.6390
 1.6810	20.6000
 1.6820	20.5610
 1.6830	20.5120
 1.6840	20.4640
 1.6850	20.4130
 1.6860	20.3590
 1.6870	20.3070
 1.6880	20.2500
 1.6890	20.1910
 1.6900	20.1280
 1.6910	20.0590
 1.6920	19.9930
 1.6930	19.9220
 1.6940	19.8540
 1.6950	19.7850
 1.6960	19.7190
 1.6970	19.6560
 1.6980	19.5910
 1.6990	19.5280
 1.7000	19.4630
 1.7010	19.3970
 1.7020	19.3280
 1.7030	19.2600
 1.7040	19.1910
 1.7050	19.1190
 1.7060	19.0480
 1.7070	18.9780
 1.7080	18.9110
 1.7090	18.8440
 1.7100	18.7800
 1.7110	18.7170
 1.7120	18.6590
 1.7130	18.6030
 1.7140	18.5480
 1.7150	18.5050
 1.7160	18.4630
 1.7170	18.4250
 1.7180	18.3970
 1.7190	18.3660
 1.7200	18.3410
 1.7210	18.3200
 1.7220	18.3000
 1.7230	18.2860
 1.7240	18.2710
 1.7250	18.2580
 1.7260	18.2490
 1.7270	18.2400
 1.7280	18.2320
 1.7290	18.2270
 1.7300	18.2190
 1.7310	18.2150
 1.7320	18.2160
 1.7330	18.2120
 1.7340	18.2090
 1.7350	18.2020
 1.7360	18.1920
 1.7370	18.1780
 1.7380	18.1610
 1.7390	18.1410
 1.7400	18.1130
 1.7410	18.0870
 1.7420	18.0600
 1.7430	18.0280
 1.7440	17.9940
 1.7450	17.9550
 1.7460	17.9100
 1.7470	17.8670
 1.7480	17.8210
 1.7490	17.7780
 1.7500	17.7360
 1.7510	17.6950
 1.7520	17.6540
 1.7530	17.6160
 1.7540	17.5780
 1.7550	17.5440
 1.7560	17.5100
 1.7570	17.4770
 1.7580	17.4510
 1.7590	17.4300
 1.7600	17.4120
 1.7610	17.4000
 1.7620	17.3840
 1.7630	17.3650
 1.7640	17.3490
 1.7650	17.3340
 1.7660	17.3220
 1.7670	17.3180
 1.7680	17.3060
 1.7690	17.2900
 1.7700	17.2760
 1.7710	17.2570
 1.7720	17.2440
 1.7730	17.2380
 1.7740	17.2280
 1.7750	17.2170
 1.7760	17.2070
 1.7770	17.1950
 1.7780	17.1850
 1.7790	17.1760
 1.7800	17.1720
 1.7810	17.1700
 1.7820	17.1690
 1.7830	17.1690
 1.7840	17.1720
 1.7850	17.1750
 1.7860	17.1830
 1.7870	17.1960
 1.7880	17.2070
 1.7890	17.2210
 1.7900	17.2420
 1.7910	17.2550
 1.7920	17.2630
 1.7930	17.2720
 1.7940	17.2740
 1.7950	17.2820
 1.7960	17.2950
 1.7970	17.3090
 1.7980	17.3270
 1.7990	17.3400
 1.8000	17.3490
 1.8010	17.3620
 1.8020	17.3730
 1.8030	17.3870
 1.8040	17.4090
 1.8050	17.4210
 1.8060	17.4280
 1.8070	17.4370
 1.8080	17.4430
 1.8090	17.4530
 1.8100	17.4650
 1.8110	17.4810
 1.8120	17.4930
 1.8130	17.5020
 1.8140	17.5130
 1.8150	17.5170
 1.8160	17.5170
 1.8170	17.5190
 1.8180	17.5280
 1.8190	17.5370
 1.8200	17.5460
 1.8210	17.5540
 1.8220	17.5610
 1.8230	17.5670
 1.8240	17.5710
 1.8250	17.5750
 1.8260	17.5760
 1.8270	17.5960
 1.8280	17.6160
 1.8290	17.6360
 1.8300	17.6550
 1.8310	17.6750
 1.8320	17.6950
 1.8330	17.7150
 1.8340	17.7350
 1.8350	17.7350
 1.8360	17.7170
 1.8370	17.7000
 1.8380	17.6810
 1.8390	17.6500
 1.8400	17.6080
 1.8410	17.5680
 1.8420	17.5240
 1.8430	17.4720
 1.8440	17.4240
 1.8450	17.3780
 1.8460	17.3270
 1.8470	17.2730
 1.8480	17.2040
 1.8490	17.1200
 1.8500	17.0350
 1.8510	16.9410
 1.8520	16.8400
 1.8530	16.7390
 1.8540	16.6340
 1.8550	16.5080
 1.8560	16.3780
 1.8570	16.2370
 1.8580	16.0790
 1.8590	15.9190
 1.8600	15.7560
 1.8610	15.5800
 1.8620	15.3910
 1.8630	15.1970
 1.8640	14.9880
 1.8650	14.7600
 1.8660	14.5170
 1.8670	14.2590
 1.8680	13.9910
 1.8690	13.7210
 1.8700	13.4410
 1.8710	13.1530
 1.8720	12.8620
 1.8730	12.5640
 1.8740	12.2490
 1.8750	11.9300
 1.8760	11.6070
 1.8770	11.2800
 1.8780	10.9510
 1.8790	10.6180
 1.8800	10.2910
 1.8810	 9.9670
 1.8820	 9.6360
 1.8830	 9.3080
 1.8840	 8.9930
 1.8850	 8.6660
 1.8860	 8.3460
 1.8870	 8.0450
 1.8880	 7.7450
 1.8890	 7.4630
 1.8900	 7.1920
 1.8910	 6.9280
 1.8920	 6.6710
 1.8930	 6.4230
 1.8940	 6.1900
 1.8950	 5.9800
 1.8960	 5.7840
 1.8970	 5.6030
 1.8980	 5.4350
 1.8990	 5.2710
 1.9000	 5.1200
 1.9010	 4.9800
 1.9020	 4.8510
 1.9030	 4.7330
 1.9040	 4.6300
 1.9050	 4.5290
 1.9060	 4.4430
 1.9070	 4.3620
 1.9080	 4.2810
 1.9090	 4.2150
 1.9100	 4.1530
 1.9110	 4.1010
 1.9120	 4.0580
 1.9130	 4.0220
 1.9140	 3.9980
 1.9150	 3.9730
 1.9160	 3.9440
 1.9170	 3.9250
 1.9180	 3.8980
 1.9190	 3.8740
 1.9200	 3.8650
 1.9210	 3.8550
 1.9220	 3.8420
 1.9230	 3.8270
 1.9240	 3.8190
 1.9250	 3.8090
 1.9260	 3.8040
 1.9270	 3.8050
 1.9280	 3.8090
 1.9290	 3.8070
 1.9300	 3.8060
 1.9310	 3.8140
 1.9320	 3.8250
 1.9330	 3.8340
 1.9340	 3.8490
 1.9350	 3.8600
 1.9360	 3.8640
 1.9370	 3.8760
 1.9380	 3.8950
 1.9390	 3.9130
 1.9400	 3.9280
 1.9410	 3.9450
 1.9420	 3.9670
 1.9430	 3.9890
 1.9440	 4.0090
 1.9450	 4.0330
 1.9460	 4.0560
 1.9470	 4.0730
 1.9480	 4.0970
 1.9490	 4.1270
 1.9500	 4.1580
 1.9510	 4.1890
 1.9520	 4.2180
 1.9530	 4.2370
 1.9540	 4.2600
 1.9550	 4.2870
 1.9560	 4.3140
 1.9570	 4.3430
 1.9580	 4.3810
 1.9590	 4.4130
 1.9600	 4.4420
 1.9610	 4.4700
 1.9620	 4.4950
 1.9630	 4.5260
 1.9640	 4.5530
 1.9650	 4.5870
 1.9660	 4.6250
 1.9670	 4.6640
 1.9680	 4.6990
 1.9690	 4.7330
 1.9700	 4.7690
 1.9710	 4.8030
 1.9720	 4.8400
 1.9730	 4.8740
 1.9740	 4.9220
 1.9750	 4.9650
 1.9760	 5.0000
 1.9770	 5.0470
 1.9780	 5.0920
 1.9790	 5.1360
 1.9800	 5.1820
 1.9810	 5.2240
 1.9820	 5.2590
 1.9830	 5.2980
 1.9840	 5.3420
 1.9850	 5.3810
 1.9860	 5.4200
 1.9870	 5.4580
 1.9880	 5.5000
 1.9890	 5.5490
 1.9900	 5.5890
 1.9910	 5.6330
 1.9920	 5.6750
 1.9930	 5.7050
 1.9940	 5.7480
 1.9950	 5.8030
 1.9960	 5.8460
 1.9970	 5.8870
 1.9980	 5.9300
 1.9990	 5.9680
 2.0000	 6.0100
 2.0010	 6.0570
 2.0020	 6.1090
 2.0030	 6.1590
 2.0040	 6.1970
 2.0050	 6.2370
 2.0060	 6.2740
 2.0070	 6.3130
 2.0080	 6.3510
 2.0090	 6.3920
 2.0100	 6.4330
 2.0110	 6.4760
 2.0120	 6.5250
 2.0130	 6.5650
 2.0140	 6.5990
 2.0150	 6.6320
 2.0160	 6.6520
 2.0170	 6.6810
 2.0180	 6.7160
 2.0190	 6.7620
 2.0200	 6.7980
 2.0210	 6.8430
 2.0220	 6.8760
 2.0230	 6.8960
 2.0240	 6.9230
 2.0250	 6.9520
 2.0260	 6.9770
 2.0270	 6.9940
 2.0280	 7.0260
 2.0290	 7.0560
 2.0300	 7.0780
 2.0310	 7.1010
 2.0320	 7.1280
 2.0330	 7.1480
 2.0340	 7.1580
 2.0350	 7.1800
 2.0360	 7.2060
 2.0370	 7.2310
 2.0380	 7.2640
 2.0390	 7.2910
 2.0400	 7.3210
 2.0410	 7.3420
 2.0420	 7.3510
 2.0430	 7.3640
 2.0440	 7.3790
 2.0450	 7.3860
 2.0460	 7.4020
 2.0470	 7.4320
 2.0480	 7.4460
 2.0490	 7.4480
 2.0500	 7.4610
 2.0510	 7.4720
 2.0520	 7.4870
 2.0530	 7.5200
 2.0540	 7.5370
 2.0550	 7.5460
 2.0560	 7.5550
 2.0570	 7.5590
 2.0580	 7.5680
 2.0590	 7.5850
 2.0600	 7.6130
 2.0610	 7.6340
 2.0620	 7.6630
 2.0630	 7.6800
 2.0640	 7.6860
 2.0650	 7.7000
 2.0660	 7.7120
 2.0670	 7.7280
 2.0680	 7.7540
 2.0690	 7.7750
 2.0700	 7.7970
 2.0710	 7.8140
 2.0720	 7.8260
 2.0730	 7.8400
 2.0740	 7.8490
 2.0750	 7.8520
 2.0760	 7.8570
 2.0770	 7.8530
 2.0780	 7.8670
 2.0790	 7.8910
 2.0800	 7.9100
 2.0810	 7.9400
 2.0820	 7.9600
 2.0830	 7.9690
 2.0840	 7.9830
 2.0850	 8.0000
 2.0860	 8.0170
 2.0870	 8.0350
 2.0880	 8.0560
 2.0890	 8.0740
 2.0900	 8.0940
 2.0910	 8.1080
 2.0920	 8.1140
 2.0930	 8.1300
 2.0940	 8.1460
 2.0950	 8.1610
 2.0960	 8.1880
 2.0970	 8.2020
 2.0980	 8.2010
 2.0990	 8.2160
 2.1000	 8.2390
 2.1010	 8.2550
 2.1020	 8.2790
 2.1030	 8.2970
 2.1040	 8.3030
 2.1050	 8.3090
 2.1060	 8.3280
 2.1070	 8.3560
 2.1080	 8.3740
 2.1090	 8.3970
 2.1100	 8.4120
 2.1110	 8.4120
 2.1120	 8.4260
 2.1130	 8.4510
 2.1140	 8.4680
 2.1150	 8.4860
 2.1160	 8.5030
 2.1170	 8.5130
 2.1180	 8.5290
 2.1190	 8.5500
 2.1200	 8.5670
 2.1210	 8.5850
 2.1220	 8.6030
 2.1230	 8.6160
 2.1240	 8.6230
 2.1250	 8.6360
 2.1260	 8.6470
 2.1270	 8.6600
 2.1280	 8.6780
 2.1290	 8.6930
 2.1300	 8.7070
 2.1310	 8.7200
 2.1320	 8.7340
 2.1330	 8.7480
 2.1340	 8.7570
 2.1350	 8.7710
 2.1360	 8.7900
 2.1370	 8.8080
 2.1380	 8.8300
 2.1390	 8.8500
 2.1400	 8.8670
 2.1410	 8.8860
 2.1420	 8.9020
 2.1430	 8.9170
 2.1440	 8.9300
 2.1450	 8.9390
 2.1460	 8.9560
 2.1470	 8.9780
 2.1480	 8.9970
 2.1490	 9.0220
 2.1500	 9.0430
 2.1510	 9.0610
 2.1520	 9.0770
 2.1530	 9.0910
 2.1540	 9.1080
 2.1550	 9.1220
 2.1560	 9.1400
 2.1570	 9.1570
 2.1580	 9.1810
 2.1590	 9.2090
 2.1600	 9.2370
 2.1610	 9.2850
 2.1620	 9.3240
 2.1630	 9.3590
 2.1640	 9.3960
 2.1650	 9.4240
 2.1660	 9.4440
 2.1670	 9.4660
 2.1680	 9.4850
 2.1690	 9.5040
 2.1700	 9.5220
 2.1710	 9.5350
 2.1720	 9.5460
 2.1730	 9.5580
 2.1740	 9.5620
 2.1750	 9.5750
 2.1760	 9.5920
 2.1770	 9.6110
 2.1780	 9.6430
 2.1790	 9.6640
 2.1800	 9.6760
 2.1810	 9.6920
 2.1820	 9.7040
 2.1830	 9.7150
 2.1840	 9.7310
 2.1850	 9.7530
 2.1860	 9.7720
 2.1870	 9.7870
 2.1880	 9.8120
 2.1890	 9.8450
 2.1900	 9.8710
 2.1910	 9.9020
 2.1920	 9.9270
 2.1930	 9.9490
 2.1940	 9.9660
 2.1950	 9.9810
 2.1960	 9.9950
 2.1970	10.0010
 2.1980	10.0140
 2.1990	10.0280
 2.2000	10.0460
 2.2010	10.0730
 2.2020	10.0920
 2.2030	10.1100
 2.2040	10.1270
 2.2050	10.1440
 2.2060	10.1470
 2.2070	10.1600
 2.2080	10.1760
 2.2090	10.1860
 2.2100	10.1930
 2.2110	10.2080
 2.2120	10.2210
 2.2130	10.2390
 2.2140	10.2670
 2.2150	10.2830
 2.2160	10.2950
 2.2170	10.3080
 2.2180	10.3190
 2.2190	10.3270
 2.2200	10.3400
 2.2210	10.3410
 2.2220	10.3310
 2.2230	10.3200
 2.2240	10.2920
 2.2250	10.2760
 2.2260	10.2690
 2.2270	10.2510
 2.2280	10.2340
 2.2290	10.2130
 2.2300	10.1790
 2.2310	10.1450
 2.2320	10.1270
 2.2330	10.1080
 2.2340	10.0800
 2.2350	10.0530
 2.2360	10.0170
 2.2370	 9.9640
 2.2380	 9.9270
 2.2390	 9.8990
 2.2400	 9.8580
 2.2410	 9.8210
 2.2420	 9.7730
 2.2430	 9.7110
 2.2440	 9.6570
 2.2450	 9.6020
 2.2460	 9.5490
 2.2470	 9.5020
 2.2480	 9.4480
 2.2490	 9.3870
 2.2500	 9.3310
 2.2510	 9.2820
 2.2520	 9.2180
 2.2530	 9.1470
 2.2540	 9.0800
 2.2550	 9.0000
 2.2560	 8.9260
 2.2570	 8.8590
 2.2580	 8.7950
 2.2590	 8.7290
 2.2600	 8.6690
 2.2610	 8.6210
 2.2620	 8.5710
 2.2630	 8.5170
 2.2640	 8.4620
 2.2650	 8.3940
 2.2660	 8.3360
 2.2670	 8.2910
 2.2680	 8.2580
 2.2690	 8.2100
 2.2700	 8.1750
 2.2710	 8.1220
 2.2720	 8.0430
 2.2730	 7.9950
 2.2740	 7.9560
 2.2750	 7.9190
 2.2760	 7.9020
 2.2770	 7.8660
 2.2780	 7.8200
 2.2790	 7.7780
 2.2800	 7.7280
 2.2810	 7.6860
 2.2820	 7.6530
 2.2830	 7.6140
 2.2840	 7.5740
 2.2850	 7.5380
 2.2860	 7.5080
 2.2870	 7.4740
 2.2880	 7.4410
 2.2890	 7.4080
 2.2900	 7.3790
 2.2910	 7.3370
 2.2920	 7.2830
 2.2930	 7.2380
 2.2940	 7.1710
 2.2950	 7.1310
 2.2960	 7.1240
 2.2970	 7.1030
 2.2980	 7.0900
 2.2990	 7.0760
 2.3000	 7.0300
 2.3010	 6.9940
 2.3020	 6.9620
 2.3030	 6.9070
 2.3040	 6.8820
 2.3050	 6.8590
 2.3060	 6.8240
 2.3070	 6.8150
 2.3080	 6.7990
 2.3090	 6.7710
 2.3100	 6.7640
 2.3110	 6.7750
 2.3120	 6.7860
 2.3130	 6.8160
 2.3140	 6.8260
 2.3150	 6.8280
 2.3160	 6.8280
 2.3170	 6.8170
 2.3180	 6.8150
 2.3190	 6.8190
 2.3200	 6.8140
 2.3210	 6.8060
 2.3220	 6.7990
 2.3230	 6.7880
 2.3240	 6.7750
 2.3250	 6.7630
 2.3260	 6.7440
 2.3270	 6.7140
 2.3280	 6.6890
 2.3290	 6.6710
 2.3300	 6.6440
 2.3310	 6.6010
 2.3320	 6.5800
 2.3330	 6.5610
 2.3340	 6.5420
 2.3350	 6.5400
 2.3360	 6.5310
 2.3370	 6.5220
 2.3380	 6.5090
 2.3390	 6.4980
 2.3400	 6.4820
 2.3410	 6.4450
 2.3420	 6.4250
 2.3430	 6.4150
 2.3440	 6.3980
 2.3450	 6.3860
 2.3460	 6.3730
 2.3470	 6.3530
 2.3480	 6.3390
 2.3490	 6.3390
 2.3500	 6.3220
 2.3510	 6.2790
 2.3520	 6.2640
 2.3530	 6.2550
 2.3540	 6.2600
 2.3550	 6.2610
 2.3560	 6.2680
 2.3570	 6.2560
 2.3580	 6.2160
 2.3590	 6.2050
 2.3600	 6.1910
 2.3610	 6.1750
 2.3620	 6.1820
 2.3630	 6.1830
 2.3640	 6.1950
 2.3650	 6.2120
 2.3660	 6.2060
 2.3670	 6.1900
 2.3680	 6.1610
 2.3690	 6.1170
 2.3700	 6.1020
 2.3710	 6.0940
 2.3720	 6.0760
 2.3730	 6.0800
 2.3740	 6.0710
 2.3750	 6.0530
 2.3760	 6.0550
 2.3770	 6.0510
 2.3780	 6.0310
 2.3790	 6.0000
 2.3800	 5.9770
 2.3810	 5.9490
 2.3820	 5.9050
 2.3830	 5.8860
 2.3840	 5.8750
 2.3850	 5.8550
 2.3860	 5.8380
 2.3870	 5.8140
 2.3880	 5.7910
 2.3890	 5.7640
 2.3900	 5.7280
 2.3910	 5.7250
 2.3920	 5.7270
 2.3930	 5.7230
 2.3940	 5.7440
 2.3950	 5.7210
 2.3960	 5.6840
 2.3970	 5.6480
 2.3980	 5.6120
 2.3990	 5.6040
 2.4000	 5.5860
 2.4010	 5.6020
 2.4020	 5.5890
 2.4030	 5.5230
 2.4040	 5.4920
 2.4050	 5.4380
 2.4060	 5.3770
 2.4070	 5.3650
 2.4080	 5.3510
 2.4090	 5.3450
 2.4100	 5.3510
 2.4110	 5.3360
 2.4120	 5.3060
 2.4130	 5.2480
 2.4140	 5.2110
 2.4150	 5.1930
 2.4160	 5.1630
 2.4170	 5.1560
 2.4180	 5.1210
 2.4190	 5.1060
 2.4200	 5.1120
 2.4210	 5.0650
 2.4220	 5.0380
 2.4230	 5.0100
 2.4240	 4.9540
 2.4250	 4.9710
 2.4260	 5.0020
 2.4270	 4.9890
 2.4280	 5.0000
 2.4290	 4.9490
 2.4300	 4.8800
 2.4310	 4.8880
 2.4320	 4.8770
 2.4330	 4.8710
 2.4340	 4.8810
 2.4350	 4.8120
 2.4360	 4.7260
 2.4370	 4.6720
 2.4380	 4.6460
 2.4390	 4.6200
 2.4400	 4.5950
 2.4410	 4.6330
 2.4420	 4.5950
 2.4430	 4.5420
 2.4440	 4.5540
 2.4450	 4.4970
 2.4460	 4.4730
 2.4470	 4.4920
 2.4480	 4.4680
 2.4490	 4.3920
 2.4500	 4.2920
 2.4510	 4.2230
 2.4520	 4.2010
 2.4530	 4.2600
 2.4540	 4.3440
 2.4550	 4.3790
 2.4560	 4.3590
 2.4570	 4.2960
 2.4580	 4.2470
 2.4590	 4.2190
 2.4600	 4.2040
 2.4610	 4.2140
 2.4620	 4.1750
 2.4630	 4.0770
 2.4640	 4.0270
 2.4650	 4.0550
 2.4660	 4.0450
 2.4670	 4.0100
 2.4680	 4.0540
 2.4690	 3.9600
 2.4700	 3.9210
 2.4710	 3.9900
 2.4720	 4.0010
 2.4730	 3.9770
 2.4740	 3.9780
 2.4750	 4.0160
 2.4760	 3.9520
 2.4770	 3.7240
 2.4780	 3.6650
 2.4790	 3.6890
 2.4800	 3.7280
 2.4810	 3.9530
 2.4820	 4.0390
 2.4830	 3.9480
 2.4840	 3.8700
 2.4850	 3.7770
 2.4860	 3.7740
 2.4870	 3.7620
 2.4880	 3.7140
 2.4890	 3.7260
 2.4900	 3.6300
 2.4910	 3.5600
 2.4920	 3.5660
 2.4930	 3.4860
 2.4940	 3.5190
 2.4950	 3.6400
 2.4960	 3.7510
 2.4970	 3.9080
 2.4980	 3.9700
 2.4990	 3.8870
 2.5000	 3.5820
