Name: Taxodium mucronatum
Type: vegetation
Class: Tree
Genus: Taxodium
Species: mucronatum
Sample No.: JPL228
Owner: JPL
Wavelength Range: VSWIR
Origin: 34.12642; -118.11439; WGS84
Collection Date: 10/3/2016
Description: Samples were collected at the Huntington Garden in San Marino California as part of a JPL Subcontract studying HyTES imagery. Samples were taken to JPL and processed within 48 hours of collection. The same leaves were processed in the Nicolet and then measured using the ASD.
Measurement: Bidirectional reflectance
First Column: X
Second Column: Y
X Units: Wavelength (micrometer)
Y Units: Reflectance (percentage)
First X Value: 0.35
Last X Value: 2.5
Number of X Values: 2151
Additional Information: vegetation.tree.taxodium.mucronatum.vswir.jpl228.jpl.asd.ancillary.txt

 0.3500	 3.1170
 0.3510	 3.2500
 0.3520	 3.2870
 0.3530	 3.1880
 0.3540	 3.0460
 0.3550	 3.1210
 0.3560	 3.1640
 0.3570	 3.1410
 0.3580	 3.1390
 0.3590	 3.1790
 0.3600	 3.1620
 0.3610	 3.0810
 0.3620	 3.0690
 0.3630	 3.0720
 0.3640	 3.0660
 0.3650	 3.0530
 0.3660	 3.1140
 0.3670	 3.1540
 0.3680	 3.1600
 0.3690	 3.1780
 0.3700	 3.1280
 0.3710	 3.0830
 0.3720	 3.0810
 0.3730	 3.0550
 0.3740	 3.0640
 0.3750	 3.0760
 0.3760	 3.0520
 0.3770	 3.0480
 0.3780	 3.0370
 0.3790	 3.0380
 0.3800	 3.1010
 0.3810	 3.1440
 0.3820	 3.1500
 0.3830	 3.1270
 0.3840	 3.1020
 0.3850	 3.1160
 0.3860	 3.1370
 0.3870	 3.1200
 0.3880	 3.1360
 0.3890	 3.1650
 0.3900	 3.1840
 0.3910	 3.1800
 0.3920	 3.2110
 0.3930	 3.2330
 0.3940	 3.2140
 0.3950	 3.2100
 0.3960	 3.2170
 0.3970	 3.2360
 0.3980	 3.2690
 0.3990	 3.3120
 0.4000	 3.3130
 0.4010	 3.2870
 0.4020	 3.3330
 0.4030	 3.3680
 0.4040	 3.3900
 0.4050	 3.4100
 0.4060	 3.4250
 0.4070	 3.4550
 0.4080	 3.4860
 0.4090	 3.4850
 0.4100	 3.5090
 0.4110	 3.5450
 0.4120	 3.5800
 0.4130	 3.6250
 0.4140	 3.6520
 0.4150	 3.6710
 0.4160	 3.6970
 0.4170	 3.7180
 0.4180	 3.7330
 0.4190	 3.7500
 0.4200	 3.7760
 0.4210	 3.7930
 0.4220	 3.8070
 0.4230	 3.8290
 0.4240	 3.8670
 0.4250	 3.8920
 0.4260	 3.9030
 0.4270	 3.9190
 0.4280	 3.9440
 0.4290	 3.9580
 0.4300	 3.9580
 0.4310	 3.9720
 0.4320	 3.9850
 0.4330	 3.9980
 0.4340	 4.0140
 0.4350	 4.0280
 0.4360	 4.0320
 0.4370	 4.0350
 0.4380	 4.0560
 0.4390	 4.0640
 0.4400	 4.0620
 0.4410	 4.0610
 0.4420	 4.0800
 0.4430	 4.0960
 0.4440	 4.1100
 0.4450	 4.1290
 0.4460	 4.1400
 0.4470	 4.1500
 0.4480	 4.1660
 0.4490	 4.1850
 0.4500	 4.2040
 0.4510	 4.2170
 0.4520	 4.2210
 0.4530	 4.2330
 0.4540	 4.2440
 0.4550	 4.2540
 0.4560	 4.2700
 0.4570	 4.2790
 0.4580	 4.2830
 0.4590	 4.2860
 0.4600	 4.2970
 0.4610	 4.3020
 0.4620	 4.3080
 0.4630	 4.3190
 0.4640	 4.3130
 0.4650	 4.3110
 0.4660	 4.3190
 0.4670	 4.3230
 0.4680	 4.3250
 0.4690	 4.3290
 0.4700	 4.3350
 0.4710	 4.3290
 0.4720	 4.3270
 0.4730	 4.3310
 0.4740	 4.3350
 0.4750	 4.3330
 0.4760	 4.3320
 0.4770	 4.3330
 0.4780	 4.3380
 0.4790	 4.3400
 0.4800	 4.3400
 0.4810	 4.3410
 0.4820	 4.3430
 0.4830	 4.3480
 0.4840	 4.3580
 0.4850	 4.3730
 0.4860	 4.3890
 0.4870	 4.4050
 0.4880	 4.4210
 0.4890	 4.4410
 0.4900	 4.4600
 0.4910	 4.4850
 0.4920	 4.5190
 0.4930	 4.5480
 0.4940	 4.5800
 0.4950	 4.6240
 0.4960	 4.6740
 0.4970	 4.7270
 0.4980	 4.7840
 0.4990	 4.8470
 0.5000	 4.9190
 0.5010	 4.9970
 0.5020	 5.0800
 0.5030	 5.1690
 0.5040	 5.2620
 0.5050	 5.3660
 0.5060	 5.4820
 0.5070	 5.6040
 0.5080	 5.7320
 0.5090	 5.8670
 0.5100	 6.0130
 0.5110	 6.1650
 0.5120	 6.3250
 0.5130	 6.4950
 0.5140	 6.6710
 0.5150	 6.8510
 0.5160	 7.0360
 0.5170	 7.2260
 0.5180	 7.4140
 0.5190	 7.6050
 0.5200	 7.7980
 0.5210	 7.9890
 0.5220	 8.1760
 0.5230	 8.3580
 0.5240	 8.5360
 0.5250	 8.7010
 0.5260	 8.8570
 0.5270	 9.0050
 0.5280	 9.1420
 0.5290	 9.2750
 0.5300	 9.3950
 0.5310	 9.5020
 0.5320	 9.6020
 0.5330	 9.6920
 0.5340	 9.7740
 0.5350	 9.8490
 0.5360	 9.9180
 0.5370	 9.9780
 0.5380	10.0330
 0.5390	10.0920
 0.5400	10.1540
 0.5410	10.2240
 0.5420	10.2950
 0.5430	10.3520
 0.5440	10.3930
 0.5450	10.4190
 0.5460	10.4310
 0.5470	10.4330
 0.5480	10.4360
 0.5490	10.4480
 0.5500	10.4660
 0.5510	10.4810
 0.5520	10.4880
 0.5530	10.4860
 0.5540	10.4750
 0.5550	10.4570
 0.5560	10.4310
 0.5570	10.3940
 0.5580	10.3510
 0.5590	10.3030
 0.5600	10.2480
 0.5610	10.1840
 0.5620	10.1210
 0.5630	10.0530
 0.5640	 9.9770
 0.5650	 9.8990
 0.5660	 9.8160
 0.5670	 9.7260
 0.5680	 9.6340
 0.5690	 9.5380
 0.5700	 9.4410
 0.5710	 9.3430
 0.5720	 9.2450
 0.5730	 9.1540
 0.5740	 9.0690
 0.5750	 8.9910
 0.5760	 8.9170
 0.5770	 8.8430
 0.5780	 8.7700
 0.5790	 8.7070
 0.5800	 8.6480
 0.5810	 8.5920
 0.5820	 8.5390
 0.5830	 8.4860
 0.5840	 8.4350
 0.5850	 8.3850
 0.5860	 8.3400
 0.5870	 8.3010
 0.5880	 8.2620
 0.5890	 8.2210
 0.5900	 8.1850
 0.5910	 8.1560
 0.5920	 8.1300
 0.5930	 8.1010
 0.5940	 8.0720
 0.5950	 8.0470
 0.5960	 8.0300
 0.5970	 8.0160
 0.5980	 7.9990
 0.5990	 7.9790
 0.6000	 7.9610
 0.6010	 7.9370
 0.6020	 7.9110
 0.6030	 7.8820
 0.6040	 7.8460
 0.6050	 7.8080
 0.6060	 7.7660
 0.6070	 7.7200
 0.6080	 7.6710
 0.6090	 7.6260
 0.6100	 7.5900
 0.6110	 7.5610
 0.6120	 7.5070
 0.6130	 7.4360
 0.6140	 7.3620
 0.6150	 7.2990
 0.6160	 7.2420
 0.6170	 7.1890
 0.6180	 7.1380
 0.6190	 7.0950
 0.6200	 7.0570
 0.6210	 7.0240
 0.6220	 6.9950
 0.6230	 6.9700
 0.6240	 6.9490
 0.6250	 6.9300
 0.6260	 6.9160
 0.6270	 6.9080
 0.6280	 6.9030
 0.6290	 6.9010
 0.6300	 6.8950
 0.6310	 6.8870
 0.6320	 6.8770
 0.6330	 6.8600
 0.6340	 6.8340
 0.6350	 6.8010
 0.6360	 6.7600
 0.6370	 6.7080
 0.6380	 6.6440
 0.6390	 6.5710
 0.6400	 6.4930
 0.6410	 6.4100
 0.6420	 6.3220
 0.6430	 6.2320
 0.6440	 6.1410
 0.6450	 6.0480
 0.6460	 5.9560
 0.6470	 5.8710
 0.6480	 5.7920
 0.6490	 5.7210
 0.6500	 5.6590
 0.6510	 5.6070
 0.6520	 5.5630
 0.6530	 5.5240
 0.6540	 5.4870
 0.6550	 5.4480
 0.6560	 5.4090
 0.6570	 5.3670
 0.6580	 5.3210
 0.6590	 5.2700
 0.6600	 5.2150
 0.6610	 5.1570
 0.6620	 5.1010
 0.6630	 5.0440
 0.6640	 4.9890
 0.6650	 4.9360
 0.6660	 4.8880
 0.6670	 4.8460
 0.6680	 4.8110
 0.6690	 4.7840
 0.6700	 4.7630
 0.6710	 4.7490
 0.6720	 4.7420
 0.6730	 4.7440
 0.6740	 4.7530
 0.6750	 4.7680
 0.6760	 4.7870
 0.6770	 4.8170
 0.6780	 4.8520
 0.6790	 4.8920
 0.6800	 4.9460
 0.6810	 5.0110
 0.6820	 5.0910
 0.6830	 5.1910
 0.6840	 5.3100
 0.6850	 5.4530
 0.6860	 5.6250
 0.6870	 5.8300
 0.6880	 6.0750
 0.6890	 6.3600
 0.6900	 6.6890
 0.6910	 7.0630
 0.6920	 7.4810
 0.6930	 7.9360
 0.6940	 8.4220
 0.6950	 8.9380
 0.6960	 9.4770
 0.6970	10.0330
 0.6980	10.6030
 0.6990	11.1860
 0.7000	11.7740
 0.7010	12.3630
 0.7020	12.9500
 0.7030	13.5330
 0.7040	14.1120
 0.7050	14.6830
 0.7060	15.2480
 0.7070	15.8070
 0.7080	16.3590
 0.7090	16.9040
 0.7100	17.4390
 0.7110	17.9730
 0.7120	18.5050
 0.7130	19.0260
 0.7140	19.5400
 0.7150	20.0500
 0.7160	20.5540
 0.7170	21.0450
 0.7180	21.5270
 0.7190	22.0020
 0.7200	22.4650
 0.7210	22.9150
 0.7220	23.3510
 0.7230	23.7730
 0.7240	24.1790
 0.7250	24.5670
 0.7260	24.9380
 0.7270	25.2930
 0.7280	25.6290
 0.7290	25.9490
 0.7300	26.2510
 0.7310	26.5350
 0.7320	26.8020
 0.7330	27.0520
 0.7340	27.2870
 0.7350	27.5040
 0.7360	27.7090
 0.7370	27.9010
 0.7380	28.0780
 0.7390	28.2440
 0.7400	28.3980
 0.7410	28.5400
 0.7420	28.6700
 0.7430	28.7900
 0.7440	28.8990
 0.7450	28.9970
 0.7460	29.0850
 0.7470	29.1660
 0.7480	29.2390
 0.7490	29.3040
 0.7500	29.3630
 0.7510	29.4170
 0.7520	29.4650
 0.7530	29.5080
 0.7540	29.5490
 0.7550	29.5870
 0.7560	29.6210
 0.7570	29.6500
 0.7580	29.6780
 0.7590	29.7050
 0.7600	29.7290
 0.7610	29.7510
 0.7620	29.7700
 0.7630	29.7880
 0.7640	29.8050
 0.7650	29.8210
 0.7660	29.8350
 0.7670	29.8460
 0.7680	29.8570
 0.7690	29.8690
 0.7700	29.8800
 0.7710	29.8900
 0.7720	29.9000
 0.7730	29.9100
 0.7740	29.9200
 0.7750	29.9290
 0.7760	29.9410
 0.7770	29.9520
 0.7780	29.9610
 0.7790	29.9670
 0.7800	29.9770
 0.7810	29.9880
 0.7820	29.9980
 0.7830	30.0110
 0.7840	30.0190
 0.7850	30.0270
 0.7860	30.0350
 0.7870	30.0450
 0.7880	30.0510
 0.7890	30.0560
 0.7900	30.0620
 0.7910	30.0700
 0.7920	30.0770
 0.7930	30.0840
 0.7940	30.0900
 0.7950	30.0960
 0.7960	30.0990
 0.7970	30.1010
 0.7980	30.1020
 0.7990	30.1040
 0.8000	30.1060
 0.8010	30.1080
 0.8020	30.1090
 0.8030	30.1100
 0.8040	30.1120
 0.8050	30.1170
 0.8060	30.1160
 0.8070	30.1120
 0.8080	30.1090
 0.8090	30.1090
 0.8100	30.1080
 0.8110	30.1080
 0.8120	30.1070
 0.8130	30.1010
 0.8140	30.0970
 0.8150	30.0960
 0.8160	30.0950
 0.8170	30.0890
 0.8180	30.0840
 0.8190	30.0800
 0.8200	30.0770
 0.8210	30.0700
 0.8220	30.0650
 0.8230	30.0630
 0.8240	30.0590
 0.8250	30.0550
 0.8260	30.0500
 0.8270	30.0450
 0.8280	30.0410
 0.8290	30.0360
 0.8300	30.0310
 0.8310	30.0250
 0.8320	30.0210
 0.8330	30.0160
 0.8340	30.0130
 0.8350	30.0100
 0.8360	30.0060
 0.8370	30.0050
 0.8380	30.0050
 0.8390	30.0030
 0.8400	30.0020
 0.8410	30.0030
 0.8420	30.0040
 0.8430	30.0080
 0.8440	30.0080
 0.8450	30.0090
 0.8460	30.0100
 0.8470	30.0080
 0.8480	30.0090
 0.8490	30.0140
 0.8500	30.0190
 0.8510	30.0250
 0.8520	30.0300
 0.8530	30.0310
 0.8540	30.0300
 0.8550	30.0350
 0.8560	30.0410
 0.8570	30.0430
 0.8580	30.0450
 0.8590	30.0510
 0.8600	30.0580
 0.8610	30.0660
 0.8620	30.0730
 0.8630	30.0760
 0.8640	30.0780
 0.8650	30.0840
 0.8660	30.0960
 0.8670	30.1030
 0.8680	30.1070
 0.8690	30.1120
 0.8700	30.1190
 0.8710	30.1300
 0.8720	30.1410
 0.8730	30.1450
 0.8740	30.1510
 0.8750	30.1580
 0.8760	30.1650
 0.8770	30.1680
 0.8780	30.1780
 0.8790	30.1890
 0.8800	30.1970
 0.8810	30.2050
 0.8820	30.2090
 0.8830	30.2150
 0.8840	30.2240
 0.8850	30.2340
 0.8860	30.2420
 0.8870	30.2480
 0.8880	30.2550
 0.8890	30.2660
 0.8900	30.2730
 0.8910	30.2760
 0.8920	30.2810
 0.8930	30.2930
 0.8940	30.3020
 0.8950	30.3080
 0.8960	30.3110
 0.8970	30.3150
 0.8980	30.3210
 0.8990	30.3300
 0.9000	30.3380
 0.9010	30.3440
 0.9020	30.3470
 0.9030	30.3510
 0.9040	30.3620
 0.9050	30.3660
 0.9060	30.3710
 0.9070	30.3800
 0.9080	30.3840
 0.9090	30.3860
 0.9100	30.3900
 0.9110	30.3940
 0.9120	30.3960
 0.9130	30.3980
 0.9140	30.4000
 0.9150	30.4030
 0.9160	30.4050
 0.9170	30.4120
 0.9180	30.4170
 0.9190	30.4110
 0.9200	30.4090
 0.9210	30.4070
 0.9220	30.4060
 0.9230	30.4080
 0.9240	30.4010
 0.9250	30.3970
 0.9260	30.3950
 0.9270	30.3880
 0.9280	30.3720
 0.9290	30.3610
 0.9300	30.3560
 0.9310	30.3450
 0.9320	30.3320
 0.9330	30.3190
 0.9340	30.3070
 0.9350	30.2910
 0.9360	30.2750
 0.9370	30.2580
 0.9380	30.2400
 0.9390	30.2230
 0.9400	30.2080
 0.9410	30.1870
 0.9420	30.1600
 0.9430	30.1430
 0.9440	30.1180
 0.9450	30.0890
 0.9460	30.0610
 0.9470	30.0240
 0.9480	29.9940
 0.9490	29.9620
 0.9500	29.9200
 0.9510	29.8780
 0.9520	29.8390
 0.9530	29.8010
 0.9540	29.7590
 0.9550	29.7150
 0.9560	29.6660
 0.9570	29.6230
 0.9580	29.5920
 0.9590	29.5570
 0.9600	29.5270
 0.9610	29.4980
 0.9620	29.4680
 0.9630	29.4540
 0.9640	29.4320
 0.9650	29.4030
 0.9660	29.3840
 0.9670	29.3730
 0.9680	29.3650
 0.9690	29.3550
 0.9700	29.3440
 0.9710	29.3350
 0.9720	29.3320
 0.9730	29.3270
 0.9740	29.3130
 0.9750	29.3130
 0.9760	29.3140
 0.9770	29.3070
 0.9780	29.2940
 0.9790	29.2920
 0.9800	29.3010
 0.9810	29.3110
 0.9820	29.3140
 0.9830	29.3200
 0.9840	29.3330
 0.9850	29.3410
 0.9860	29.3330
 0.9870	29.3490
 0.9880	29.3590
 0.9890	29.3610
 0.9900	29.3650
 0.9910	29.3830
 0.9920	29.3960
 0.9930	29.4040
 0.9940	29.4180
 0.9950	29.4290
 0.9960	29.4450
 0.9970	29.4630
 0.9980	29.4780
 0.9990	29.4920
 1.0000	29.4990
 1.0010	30.6930
 1.0020	30.7060
 1.0030	30.7240
 1.0040	30.7400
 1.0050	30.7540
 1.0060	30.7660
 1.0070	30.7790
 1.0080	30.7930
 1.0090	30.8090
 1.0100	30.8250
 1.0110	30.8420
 1.0120	30.8580
 1.0130	30.8700
 1.0140	30.8850
 1.0150	30.8990
 1.0160	30.9150
 1.0170	30.9340
 1.0180	30.9510
 1.0190	30.9660
 1.0200	30.9790
 1.0210	30.9920
 1.0220	31.0070
 1.0230	31.0210
 1.0240	31.0360
 1.0250	31.0510
 1.0260	31.0620
 1.0270	31.0780
 1.0280	31.0980
 1.0290	31.1140
 1.0300	31.1310
 1.0310	31.1480
 1.0320	31.1640
 1.0330	31.1770
 1.0340	31.1900
 1.0350	31.2010
 1.0360	31.2130
 1.0370	31.2250
 1.0380	31.2370
 1.0390	31.2530
 1.0400	31.2640
 1.0410	31.2740
 1.0420	31.2850
 1.0430	31.2940
 1.0440	31.3050
 1.0450	31.3190
 1.0460	31.3300
 1.0470	31.3410
 1.0480	31.3520
 1.0490	31.3620
 1.0500	31.3720
 1.0510	31.3820
 1.0520	31.3920
 1.0530	31.4000
 1.0540	31.4060
 1.0550	31.4130
 1.0560	31.4220
 1.0570	31.4270
 1.0580	31.4330
 1.0590	31.4360
 1.0600	31.4340
 1.0610	31.4350
 1.0620	31.4380
 1.0630	31.4410
 1.0640	31.4470
 1.0650	31.4490
 1.0660	31.4470
 1.0670	31.4470
 1.0680	31.4460
 1.0690	31.4420
 1.0700	31.4410
 1.0710	31.4420
 1.0720	31.4390
 1.0730	31.4340
 1.0740	31.4310
 1.0750	31.4270
 1.0760	31.4240
 1.0770	31.4240
 1.0780	31.4200
 1.0790	31.4140
 1.0800	31.4100
 1.0810	31.4060
 1.0820	31.4010
 1.0830	31.3940
 1.0840	31.3880
 1.0850	31.3790
 1.0860	31.3720
 1.0870	31.3650
 1.0880	31.3580
 1.0890	31.3510
 1.0900	31.3430
 1.0910	31.3370
 1.0920	31.3330
 1.0930	31.3250
 1.0940	31.3170
 1.0950	31.3090
 1.0960	31.2980
 1.0970	31.2890
 1.0980	31.2790
 1.0990	31.2700
 1.1000	31.2610
 1.1010	31.2510
 1.1020	31.2400
 1.1030	31.2300
 1.1040	31.2230
 1.1050	31.2130
 1.1060	31.2040
 1.1070	31.1960
 1.1080	31.1870
 1.1090	31.1750
 1.1100	31.1650
 1.1110	31.1570
 1.1120	31.1460
 1.1130	31.1350
 1.1140	31.1220
 1.1150	31.1080
 1.1160	31.0930
 1.1170	31.0750
 1.1180	31.0590
 1.1190	31.0410
 1.1200	31.0240
 1.1210	31.0060
 1.1220	30.9850
 1.1230	30.9610
 1.1240	30.9340
 1.1250	30.9020
 1.1260	30.8680
 1.1270	30.8290
 1.1280	30.7850
 1.1290	30.7370
 1.1300	30.6850
 1.1310	30.6270
 1.1320	30.5640
 1.1330	30.4950
 1.1340	30.4200
 1.1350	30.3410
 1.1360	30.2550
 1.1370	30.1660
 1.1380	30.0740
 1.1390	29.9770
 1.1400	29.8760
 1.1410	29.7740
 1.1420	29.6670
 1.1430	29.5600
 1.1440	29.4560
 1.1450	29.3490
 1.1460	29.2490
 1.1470	29.1500
 1.1480	29.0550
 1.1490	28.9630
 1.1500	28.8770
 1.1510	28.7950
 1.1520	28.7180
 1.1530	28.6460
 1.1540	28.5800
 1.1550	28.5200
 1.1560	28.4640
 1.1570	28.4150
 1.1580	28.3710
 1.1590	28.3310
 1.1600	28.2950
 1.1610	28.2620
 1.1620	28.2320
 1.1630	28.2040
 1.1640	28.1790
 1.1650	28.1560
 1.1660	28.1350
 1.1670	28.1160
 1.1680	28.1000
 1.1690	28.0830
 1.1700	28.0670
 1.1710	28.0510
 1.1720	28.0360
 1.1730	28.0210
 1.1740	28.0070
 1.1750	27.9940
 1.1760	27.9800
 1.1770	27.9660
 1.1780	27.9500
 1.1790	27.9340
 1.1800	27.9190
 1.1810	27.9010
 1.1820	27.8850
 1.1830	27.8680
 1.1840	27.8500
 1.1850	27.8340
 1.1860	27.8190
 1.1870	27.8040
 1.1880	27.7910
 1.1890	27.7780
 1.1900	27.7680
 1.1910	27.7590
 1.1920	27.7500
 1.1930	27.7420
 1.1940	27.7360
 1.1950	27.7320
 1.1960	27.7280
 1.1970	27.7260
 1.1980	27.7260
 1.1990	27.7270
 1.2000	27.7280
 1.2010	27.7330
 1.2020	27.7380
 1.2030	27.7450
 1.2040	27.7550
 1.2050	27.7650
 1.2060	27.7750
 1.2070	27.7850
 1.2080	27.7960
 1.2090	27.8070
 1.2100	27.8190
 1.2110	27.8330
 1.2120	27.8490
 1.2130	27.8650
 1.2140	27.8820
 1.2150	27.8990
 1.2160	27.9160
 1.2170	27.9330
 1.2180	27.9500
 1.2190	27.9690
 1.2200	27.9870
 1.2210	28.0070
 1.2220	28.0260
 1.2230	28.0430
 1.2240	28.0620
 1.2250	28.0810
 1.2260	28.1000
 1.2270	28.1200
 1.2280	28.1380
 1.2290	28.1550
 1.2300	28.1710
 1.2310	28.1870
 1.2320	28.2020
 1.2330	28.2180
 1.2340	28.2330
 1.2350	28.2470
 1.2360	28.2610
 1.2370	28.2730
 1.2380	28.2850
 1.2390	28.2950
 1.2400	28.3060
 1.2410	28.3190
 1.2420	28.3310
 1.2430	28.3430
 1.2440	28.3540
 1.2450	28.3640
 1.2460	28.3740
 1.2470	28.3860
 1.2480	28.3970
 1.2490	28.4090
 1.2500	28.4190
 1.2510	28.4260
 1.2520	28.4330
 1.2530	28.4400
 1.2540	28.4470
 1.2550	28.4540
 1.2560	28.4590
 1.2570	28.4620
 1.2580	28.4650
 1.2590	28.4670
 1.2600	28.4690
 1.2610	28.4700
 1.2620	28.4720
 1.2630	28.4730
 1.2640	28.4750
 1.2650	28.4750
 1.2660	28.4750
 1.2670	28.4740
 1.2680	28.4710
 1.2690	28.4680
 1.2700	28.4650
 1.2710	28.4600
 1.2720	28.4540
 1.2730	28.4470
 1.2740	28.4390
 1.2750	28.4310
 1.2760	28.4210
 1.2770	28.4110
 1.2780	28.4010
 1.2790	28.3880
 1.2800	28.3750
 1.2810	28.3610
 1.2820	28.3450
 1.2830	28.3290
 1.2840	28.3110
 1.2850	28.2910
 1.2860	28.2690
 1.2870	28.2450
 1.2880	28.2210
 1.2890	28.1930
 1.2900	28.1640
 1.2910	28.1330
 1.2920	28.1000
 1.2930	28.0660
 1.2940	28.0290
 1.2950	27.9910
 1.2960	27.9510
 1.2970	27.9090
 1.2980	27.8660
 1.2990	27.8190
 1.3000	27.7700
 1.3010	27.7220
 1.3020	27.6730
 1.3030	27.6210
 1.3040	27.5670
 1.3050	27.5100
 1.3060	27.4530
 1.3070	27.3920
 1.3080	27.3310
 1.3090	27.2680
 1.3100	27.2020
 1.3110	27.1360
 1.3120	27.0680
 1.3130	26.9980
 1.3140	26.9270
 1.3150	26.8540
 1.3160	26.7790
 1.3170	26.7030
 1.3180	26.6240
 1.3190	26.5430
 1.3200	26.4620
 1.3210	26.3770
 1.3220	26.2920
 1.3230	26.2070
 1.3240	26.1200
 1.3250	26.0320
 1.3260	25.9410
 1.3270	25.8470
 1.3280	25.7540
 1.3290	25.6590
 1.3300	25.5650
 1.3310	25.4710
 1.3320	25.3740
 1.3330	25.2760
 1.3340	25.1780
 1.3350	25.0800
 1.3360	24.9830
 1.3370	24.8850
 1.3380	24.7880
 1.3390	24.6920
 1.3400	24.5950
 1.3410	24.5000
 1.3420	24.4070
 1.3430	24.3130
 1.3440	24.2220
 1.3450	24.1320
 1.3460	24.0400
 1.3470	23.9520
 1.3480	23.8650
 1.3490	23.7780
 1.3500	23.6920
 1.3510	23.6090
 1.3520	23.5230
 1.3530	23.4390
 1.3540	23.3550
 1.3550	23.2700
 1.3560	23.1840
 1.3570	23.0980
 1.3580	23.0110
 1.3590	22.9200
 1.3600	22.8270
 1.3610	22.7310
 1.3620	22.6310
 1.3630	22.5280
 1.3640	22.4230
 1.3650	22.3110
 1.3660	22.1930
 1.3670	22.0690
 1.3680	21.9380
 1.3690	21.7980
 1.3700	21.6490
 1.3710	21.4900
 1.3720	21.3210
 1.3730	21.1390
 1.3740	20.9470
 1.3750	20.7420
 1.3760	20.5210
 1.3770	20.2870
 1.3780	20.0350
 1.3790	19.7690
 1.3800	19.4870
 1.3810	19.1890
 1.3820	18.8790
 1.3830	18.5570
 1.3840	18.2230
 1.3850	17.8760
 1.3860	17.5220
 1.3870	17.1550
 1.3880	16.7900
 1.3890	16.4180
 1.3900	16.0440
 1.3910	15.6730
 1.3920	15.3010
 1.3930	14.9310
 1.3940	14.5660
 1.3950	14.2040
 1.3960	13.8500
 1.3970	13.5070
 1.3980	13.1730
 1.3990	12.8560
 1.4000	12.5500
 1.4010	12.2560
 1.4020	11.9780
 1.4030	11.7120
 1.4040	11.4590
 1.4050	11.2220
 1.4060	10.9980
 1.4070	10.7890
 1.4080	10.5930
 1.4090	10.4080
 1.4100	10.2350
 1.4110	10.0740
 1.4120	 9.9250
 1.4130	 9.7860
 1.4140	 9.6570
 1.4150	 9.5370
 1.4160	 9.4260
 1.4170	 9.3230
 1.4180	 9.2270
 1.4190	 9.1380
 1.4200	 9.0550
 1.4210	 8.9780
 1.4220	 8.9080
 1.4230	 8.8430
 1.4240	 8.7830
 1.4250	 8.7280
 1.4260	 8.6780
 1.4270	 8.6300
 1.4280	 8.5860
 1.4290	 8.5450
 1.4300	 8.5070
 1.4310	 8.4730
 1.4320	 8.4420
 1.4330	 8.4140
 1.4340	 8.3910
 1.4350	 8.3680
 1.4360	 8.3480
 1.4370	 8.3290
 1.4380	 8.3130
 1.4390	 8.2990
 1.4400	 8.2870
 1.4410	 8.2780
 1.4420	 8.2710
 1.4430	 8.2640
 1.4440	 8.2590
 1.4450	 8.2560
 1.4460	 8.2530
 1.4470	 8.2510
 1.4480	 8.2520
 1.4490	 8.2530
 1.4500	 8.2560
 1.4510	 8.2590
 1.4520	 8.2630
 1.4530	 8.2680
 1.4540	 8.2750
 1.4550	 8.2840
 1.4560	 8.2940
 1.4570	 8.3060
 1.4580	 8.3190
 1.4590	 8.3330
 1.4600	 8.3500
 1.4610	 8.3690
 1.4620	 8.3900
 1.4630	 8.4140
 1.4640	 8.4410
 1.4650	 8.4700
 1.4660	 8.5020
 1.4670	 8.5360
 1.4680	 8.5730
 1.4690	 8.6120
 1.4700	 8.6530
 1.4710	 8.6980
 1.4720	 8.7440
 1.4730	 8.7910
 1.4740	 8.8420
 1.4750	 8.8920
 1.4760	 8.9450
 1.4770	 9.0000
 1.4780	 9.0560
 1.4790	 9.1140
 1.4800	 9.1740
 1.4810	 9.2350
 1.4820	 9.2970
 1.4830	 9.3600
 1.4840	 9.4250
 1.4850	 9.4910
 1.4860	 9.5570
 1.4870	 9.6250
 1.4880	 9.6920
 1.4890	 9.7600
 1.4900	 9.8290
 1.4910	 9.9000
 1.4920	 9.9710
 1.4930	10.0440
 1.4940	10.1160
 1.4950	10.1900
 1.4960	10.2630
 1.4970	10.3360
 1.4980	10.4100
 1.4990	10.4840
 1.5000	10.5590
 1.5010	10.6340
 1.5020	10.7100
 1.5030	10.7870
 1.5040	10.8630
 1.5050	10.9390
 1.5060	11.0150
 1.5070	11.0930
 1.5080	11.1700
 1.5090	11.2490
 1.5100	11.3270
 1.5110	11.4060
 1.5120	11.4840
 1.5130	11.5620
 1.5140	11.6410
 1.5150	11.7190
 1.5160	11.7970
 1.5170	11.8740
 1.5180	11.9510
 1.5190	12.0280
 1.5200	12.1070
 1.5210	12.1850
 1.5220	12.2630
 1.5230	12.3400
 1.5240	12.4160
 1.5250	12.4940
 1.5260	12.5710
 1.5270	12.6460
 1.5280	12.7220
 1.5290	12.7970
 1.5300	12.8710
 1.5310	12.9460
 1.5320	13.0210
 1.5330	13.0960
 1.5340	13.1700
 1.5350	13.2440
 1.5360	13.3190
 1.5370	13.3920
 1.5380	13.4650
 1.5390	13.5370
 1.5400	13.6090
 1.5410	13.6800
 1.5420	13.7510
 1.5430	13.8200
 1.5440	13.8910
 1.5450	13.9610
 1.5460	14.0300
 1.5470	14.1000
 1.5480	14.1690
 1.5490	14.2380
 1.5500	14.3060
 1.5510	14.3730
 1.5520	14.4390
 1.5530	14.5050
 1.5540	14.5700
 1.5550	14.6350
 1.5560	14.6990
 1.5570	14.7640
 1.5580	14.8270
 1.5590	14.8900
 1.5600	14.9530
 1.5610	15.0150
 1.5620	15.0770
 1.5630	15.1380
 1.5640	15.1980
 1.5650	15.2580
 1.5660	15.3170
 1.5670	15.3750
 1.5680	15.4340
 1.5690	15.4900
 1.5700	15.5460
 1.5710	15.6020
 1.5720	15.6570
 1.5730	15.7120
 1.5740	15.7670
 1.5750	15.8210
 1.5760	15.8770
 1.5770	15.9310
 1.5780	15.9850
 1.5790	16.0380
 1.5800	16.0900
 1.5810	16.1410
 1.5820	16.1920
 1.5830	16.2420
 1.5840	16.2930
 1.5850	16.3440
 1.5860	16.3940
 1.5870	16.4420
 1.5880	16.4890
 1.5890	16.5380
 1.5900	16.5860
 1.5910	16.6340
 1.5920	16.6830
 1.5930	16.7300
 1.5940	16.7750
 1.5950	16.8200
 1.5960	16.8650
 1.5970	16.9090
 1.5980	16.9530
 1.5990	16.9970
 1.6000	17.0390
 1.6010	17.0810
 1.6020	17.1230
 1.6030	17.1640
 1.6040	17.2050
 1.6050	17.2460
 1.6060	17.2860
 1.6070	17.3240
 1.6080	17.3630
 1.6090	17.4000
 1.6100	17.4370
 1.6110	17.4770
 1.6120	17.5130
 1.6130	17.5490
 1.6140	17.5860
 1.6150	17.6190
 1.6160	17.6520
 1.6170	17.6850
 1.6180	17.7180
 1.6190	17.7500
 1.6200	17.7810
 1.6210	17.8120
 1.6220	17.8410
 1.6230	17.8700
 1.6240	17.8970
 1.6250	17.9230
 1.6260	17.9490
 1.6270	17.9740
 1.6280	17.9980
 1.6290	18.0230
 1.6300	18.0470
 1.6310	18.0720
 1.6320	18.0980
 1.6330	18.1230
 1.6340	18.1470
 1.6350	18.1720
 1.6360	18.1980
 1.6370	18.2230
 1.6380	18.2490
 1.6390	18.2730
 1.6400	18.2950
 1.6410	18.3170
 1.6420	18.3380
 1.6430	18.3590
 1.6440	18.3790
 1.6450	18.3970
 1.6460	18.4140
 1.6470	18.4310
 1.6480	18.4460
 1.6490	18.4610
 1.6500	18.4730
 1.6510	18.4840
 1.6520	18.4940
 1.6530	18.5020
 1.6540	18.5080
 1.6550	18.5150
 1.6560	18.5190
 1.6570	18.5230
 1.6580	18.5280
 1.6590	18.5310
 1.6600	18.5340
 1.6610	18.5360
 1.6620	18.5370
 1.6630	18.5380
 1.6640	18.5370
 1.6650	18.5350
 1.6660	18.5340
 1.6670	18.5310
 1.6680	18.5280
 1.6690	18.5260
 1.6700	18.5210
 1.6710	18.5160
 1.6720	18.5110
 1.6730	18.5030
 1.6740	18.4940
 1.6750	18.4840
 1.6760	18.4710
 1.6770	18.4570
 1.6780	18.4420
 1.6790	18.4240
 1.6800	18.4060
 1.6810	18.3880
 1.6820	18.3660
 1.6830	18.3420
 1.6840	18.3170
 1.6850	18.2900
 1.6860	18.2640
 1.6870	18.2380
 1.6880	18.2100
 1.6890	18.1830
 1.6900	18.1540
 1.6910	18.1260
 1.6920	18.0970
 1.6930	18.0670
 1.6940	18.0390
 1.6950	18.0100
 1.6960	17.9820
 1.6970	17.9550
 1.6980	17.9270
 1.6990	17.9000
 1.7000	17.8720
 1.7010	17.8440
 1.7020	17.8140
 1.7030	17.7850
 1.7040	17.7550
 1.7050	17.7250
 1.7060	17.6940
 1.7070	17.6650
 1.7080	17.6340
 1.7090	17.6020
 1.7100	17.5700
 1.7110	17.5370
 1.7120	17.5060
 1.7130	17.4740
 1.7140	17.4420
 1.7150	17.4090
 1.7160	17.3760
 1.7170	17.3430
 1.7180	17.3110
 1.7190	17.2780
 1.7200	17.2460
 1.7210	17.2150
 1.7220	17.1840
 1.7230	17.1530
 1.7240	17.1210
 1.7250	17.0880
 1.7260	17.0550
 1.7270	17.0240
 1.7280	16.9950
 1.7290	16.9670
 1.7300	16.9390
 1.7310	16.9110
 1.7320	16.8830
 1.7330	16.8560
 1.7340	16.8300
 1.7350	16.8030
 1.7360	16.7740
 1.7370	16.7440
 1.7380	16.7130
 1.7390	16.6800
 1.7400	16.6470
 1.7410	16.6130
 1.7420	16.5770
 1.7430	16.5400
 1.7440	16.5030
 1.7450	16.4630
 1.7460	16.4210
 1.7470	16.3800
 1.7480	16.3390
 1.7490	16.2970
 1.7500	16.2550
 1.7510	16.2110
 1.7520	16.1640
 1.7530	16.1210
 1.7540	16.0760
 1.7550	16.0350
 1.7560	15.9950
 1.7570	15.9530
 1.7580	15.9120
 1.7590	15.8720
 1.7600	15.8330
 1.7610	15.7950
 1.7620	15.7580
 1.7630	15.7210
 1.7640	15.6860
 1.7650	15.6520
 1.7660	15.6190
 1.7670	15.5880
 1.7680	15.5570
 1.7690	15.5260
 1.7700	15.4960
 1.7710	15.4660
 1.7720	15.4390
 1.7730	15.4140
 1.7740	15.3890
 1.7750	15.3670
 1.7760	15.3440
 1.7770	15.3200
 1.7780	15.2980
 1.7790	15.2760
 1.7800	15.2570
 1.7810	15.2420
 1.7820	15.2280
 1.7830	15.2150
 1.7840	15.2020
 1.7850	15.1900
 1.7860	15.1800
 1.7870	15.1710
 1.7880	15.1640
 1.7890	15.1590
 1.7900	15.1560
 1.7910	15.1520
 1.7920	15.1490
 1.7930	15.1470
 1.7940	15.1460
 1.7950	15.1460
 1.7960	15.1480
 1.7970	15.1510
 1.7980	15.1530
 1.7990	15.1560
 1.8000	15.1600
 1.8010	15.1630
 1.8020	15.1650
 1.8030	15.1690
 1.8040	15.1730
 1.8050	15.1780
 1.8060	15.1870
 1.8070	15.1910
 1.8080	15.1930
 1.8090	15.1960
 1.8100	15.1950
 1.8110	15.1970
 1.8120	15.2020
 1.8130	15.2050
 1.8140	15.2060
 1.8150	15.2080
 1.8160	15.2090
 1.8170	15.2110
 1.8180	15.2120
 1.8190	15.2110
 1.8200	15.2080
 1.8210	15.2020
 1.8220	15.1970
 1.8230	15.1920
 1.8240	15.1850
 1.8250	15.1800
 1.8260	15.1730
 1.8270	15.1640
 1.8280	15.1520
 1.8290	15.1350
 1.8300	15.1200
 1.8310	15.1360
 1.8320	15.1150
 1.8330	15.0930
 1.8340	15.0680
 1.8350	15.0420
 1.8360	15.0160
 1.8370	14.9870
 1.8380	14.9520
 1.8390	14.9140
 1.8400	14.8730
 1.8410	14.8260
 1.8420	14.7740
 1.8430	14.7190
 1.8440	14.6580
 1.8450	14.5910
 1.8460	14.5220
 1.8470	14.4460
 1.8480	14.3650
 1.8490	14.2800
 1.8500	14.1880
 1.8510	14.0900
 1.8520	13.9830
 1.8530	13.8740
 1.8540	13.7560
 1.8550	13.6270
 1.8560	13.4920
 1.8570	13.3490
 1.8580	13.1950
 1.8590	13.0350
 1.8600	12.8680
 1.8610	12.6920
 1.8620	12.5030
 1.8630	12.3100
 1.8640	12.1070
 1.8650	11.8920
 1.8660	11.6720
 1.8670	11.4410
 1.8680	11.2030
 1.8690	10.9580
 1.8700	10.7050
 1.8710	10.4440
 1.8720	10.1790
 1.8730	 9.9080
 1.8740	 9.6350
 1.8750	 9.3630
 1.8760	 9.0830
 1.8770	 8.8050
 1.8780	 8.5320
 1.8790	 8.2580
 1.8800	 7.9910
 1.8810	 7.7300
 1.8820	 7.4770
 1.8830	 7.2250
 1.8840	 6.9790
 1.8850	 6.7390
 1.8860	 6.5050
 1.8870	 6.2800
 1.8880	 6.0680
 1.8890	 5.8650
 1.8900	 5.6700
 1.8910	 5.4860
 1.8920	 5.3100
 1.8930	 5.1450
 1.8940	 4.9940
 1.8950	 4.8540
 1.8960	 4.7210
 1.8970	 4.5990
 1.8980	 4.4900
 1.8990	 4.3910
 1.9000	 4.2970
 1.9010	 4.2160
 1.9020	 4.1380
 1.9030	 4.0650
 1.9040	 3.9980
 1.9050	 3.9380
 1.9060	 3.8840
 1.9070	 3.8360
 1.9080	 3.7920
 1.9090	 3.7550
 1.9100	 3.7220
 1.9110	 3.6900
 1.9120	 3.6590
 1.9130	 3.6340
 1.9140	 3.6150
 1.9150	 3.5950
 1.9160	 3.5790
 1.9170	 3.5650
 1.9180	 3.5480
 1.9190	 3.5350
 1.9200	 3.5250
 1.9210	 3.5160
 1.9220	 3.5080
 1.9230	 3.5000
 1.9240	 3.4940
 1.9250	 3.4890
 1.9260	 3.4840
 1.9270	 3.4820
 1.9280	 3.4840
 1.9290	 3.4830
 1.9300	 3.4840
 1.9310	 3.4880
 1.9320	 3.4900
 1.9330	 3.4930
 1.9340	 3.4970
 1.9350	 3.5020
 1.9360	 3.5090
 1.9370	 3.5160
 1.9380	 3.5250
 1.9390	 3.5330
 1.9400	 3.5380
 1.9410	 3.5440
 1.9420	 3.5540
 1.9430	 3.5640
 1.9440	 3.5750
 1.9450	 3.5890
 1.9460	 3.6010
 1.9470	 3.6130
 1.9480	 3.6260
 1.9490	 3.6380
 1.9500	 3.6500
 1.9510	 3.6640
 1.9520	 3.6780
 1.9530	 3.6920
 1.9540	 3.7100
 1.9550	 3.7270
 1.9560	 3.7430
 1.9570	 3.7600
 1.9580	 3.7770
 1.9590	 3.7950
 1.9600	 3.8140
 1.9610	 3.8320
 1.9620	 3.8510
 1.9630	 3.8680
 1.9640	 3.8860
 1.9650	 3.9060
 1.9660	 3.9270
 1.9670	 3.9510
 1.9680	 3.9740
 1.9690	 3.9960
 1.9700	 4.0180
 1.9710	 4.0420
 1.9720	 4.0650
 1.9730	 4.0880
 1.9740	 4.1120
 1.9750	 4.1360
 1.9760	 4.1600
 1.9770	 4.1860
 1.9780	 4.2110
 1.9790	 4.2360
 1.9800	 4.2620
 1.9810	 4.2860
 1.9820	 4.3090
 1.9830	 4.3340
 1.9840	 4.3620
 1.9850	 4.3900
 1.9860	 4.4190
 1.9870	 4.4490
 1.9880	 4.4760
 1.9890	 4.5030
 1.9900	 4.5290
 1.9910	 4.5570
 1.9920	 4.5850
 1.9930	 4.6150
 1.9940	 4.6430
 1.9950	 4.6700
 1.9960	 4.6980
 1.9970	 4.7250
 1.9980	 4.7540
 1.9990	 4.7850
 2.0000	 4.8150
 2.0010	 4.8460
 2.0020	 4.8770
 2.0030	 4.9090
 2.0040	 4.9410
 2.0050	 4.9730
 2.0060	 5.0060
 2.0070	 5.0390
 2.0080	 5.0710
 2.0090	 5.1020
 2.0100	 5.1320
 2.0110	 5.1620
 2.0120	 5.1900
 2.0130	 5.2180
 2.0140	 5.2480
 2.0150	 5.2780
 2.0160	 5.3070
 2.0170	 5.3370
 2.0180	 5.3680
 2.0190	 5.3990
 2.0200	 5.4300
 2.0210	 5.4630
 2.0220	 5.4950
 2.0230	 5.5250
 2.0240	 5.5560
 2.0250	 5.5860
 2.0260	 5.6140
 2.0270	 5.6420
 2.0280	 5.6700
 2.0290	 5.6950
 2.0300	 5.7240
 2.0310	 5.7540
 2.0320	 5.7860
 2.0330	 5.8180
 2.0340	 5.8530
 2.0350	 5.8830
 2.0360	 5.9090
 2.0370	 5.9370
 2.0380	 5.9640
 2.0390	 5.9900
 2.0400	 6.0160
 2.0410	 6.0430
 2.0420	 6.0700
 2.0430	 6.0960
 2.0440	 6.1230
 2.0450	 6.1540
 2.0460	 6.1810
 2.0470	 6.2070
 2.0480	 6.2320
 2.0490	 6.2560
 2.0500	 6.2820
 2.0510	 6.3110
 2.0520	 6.3380
 2.0530	 6.3700
 2.0540	 6.3970
 2.0550	 6.4220
 2.0560	 6.4470
 2.0570	 6.4720
 2.0580	 6.4990
 2.0590	 6.5270
 2.0600	 6.5570
 2.0610	 6.5860
 2.0620	 6.6150
 2.0630	 6.6430
 2.0640	 6.6700
 2.0650	 6.6970
 2.0660	 6.7240
 2.0670	 6.7500
 2.0680	 6.7750
 2.0690	 6.8020
 2.0700	 6.8310
 2.0710	 6.8600
 2.0720	 6.8910
 2.0730	 6.9220
 2.0740	 6.9510
 2.0750	 6.9780
 2.0760	 7.0060
 2.0770	 7.0350
 2.0780	 7.0620
 2.0790	 7.0870
 2.0800	 7.1150
 2.0810	 7.1410
 2.0820	 7.1690
 2.0830	 7.1980
 2.0840	 7.2270
 2.0850	 7.2560
 2.0860	 7.2850
 2.0870	 7.3140
 2.0880	 7.3470
 2.0890	 7.3740
 2.0900	 7.3990
 2.0910	 7.4250
 2.0920	 7.4460
 2.0930	 7.4720
 2.0940	 7.5020
 2.0950	 7.5300
 2.0960	 7.5590
 2.0970	 7.5870
 2.0980	 7.6120
 2.0990	 7.6380
 2.1000	 7.6660
 2.1010	 7.6920
 2.1020	 7.7200
 2.1030	 7.7470
 2.1040	 7.7730
 2.1050	 7.8010
 2.1060	 7.8260
 2.1070	 7.8510
 2.1080	 7.8760
 2.1090	 7.9010
 2.1100	 7.9270
 2.1110	 7.9550
 2.1120	 7.9820
 2.1130	 8.0080
 2.1140	 8.0330
 2.1150	 8.0590
 2.1160	 8.0850
 2.1170	 8.1070
 2.1180	 8.1330
 2.1190	 8.1610
 2.1200	 8.1880
 2.1210	 8.2150
 2.1220	 8.2430
 2.1230	 8.2670
 2.1240	 8.2910
 2.1250	 8.3130
 2.1260	 8.3340
 2.1270	 8.3550
 2.1280	 8.3750
 2.1290	 8.3980
 2.1300	 8.4240
 2.1310	 8.4450
 2.1320	 8.4650
 2.1330	 8.4850
 2.1340	 8.5010
 2.1350	 8.5210
 2.1360	 8.5460
 2.1370	 8.5680
 2.1380	 8.5890
 2.1390	 8.6100
 2.1400	 8.6290
 2.1410	 8.6500
 2.1420	 8.6690
 2.1430	 8.6900
 2.1440	 8.7080
 2.1450	 8.7250
 2.1460	 8.7420
 2.1470	 8.7570
 2.1480	 8.7730
 2.1490	 8.7890
 2.1500	 8.8070
 2.1510	 8.8270
 2.1520	 8.8440
 2.1530	 8.8610
 2.1540	 8.8780
 2.1550	 8.8940
 2.1560	 8.9100
 2.1570	 8.9220
 2.1580	 8.9380
 2.1590	 8.9550
 2.1600	 8.9750
 2.1610	 8.9900
 2.1620	 9.0090
 2.1630	 9.0240
 2.1640	 9.0320
 2.1650	 9.0440
 2.1660	 9.0570
 2.1670	 9.0690
 2.1680	 9.0800
 2.1690	 9.0910
 2.1700	 9.1030
 2.1710	 9.1150
 2.1720	 9.1260
 2.1730	 9.1380
 2.1740	 9.1520
 2.1750	 9.1640
 2.1760	 9.1760
 2.1770	 9.1880
 2.1780	 9.1970
 2.1790	 9.2100
 2.1800	 9.2270
 2.1810	 9.2400
 2.1820	 9.2550
 2.1830	 9.2690
 2.1840	 9.2830
 2.1850	 9.2970
 2.1860	 9.3070
 2.1870	 9.3150
 2.1880	 9.3250
 2.1890	 9.3300
 2.1900	 9.3390
 2.1910	 9.3530
 2.1920	 9.3630
 2.1930	 9.3690
 2.1940	 9.3780
 2.1950	 9.3840
 2.1960	 9.3940
 2.1970	 9.4050
 2.1980	 9.4160
 2.1990	 9.4310
 2.2000	 9.4420
 2.2010	 9.4510
 2.2020	 9.4600
 2.2030	 9.4640
 2.2040	 9.4690
 2.2050	 9.4760
 2.2060	 9.4800
 2.2070	 9.4860
 2.2080	 9.4960
 2.2090	 9.5000
 2.2100	 9.5020
 2.2110	 9.5050
 2.2120	 9.5030
 2.2130	 9.5050
 2.2140	 9.5110
 2.2150	 9.5130
 2.2160	 9.5160
 2.2170	 9.5140
 2.2180	 9.5050
 2.2190	 9.5010
 2.2200	 9.4970
 2.2210	 9.4920
 2.2220	 9.4930
 2.2230	 9.4900
 2.2240	 9.4860
 2.2250	 9.4760
 2.2260	 9.4600
 2.2270	 9.4480
 2.2280	 9.4350
 2.2290	 9.4210
 2.2300	 9.4130
 2.2310	 9.4010
 2.2320	 9.3850
 2.2330	 9.3710
 2.2340	 9.3550
 2.2350	 9.3370
 2.2360	 9.3210
 2.2370	 9.3050
 2.2380	 9.2890
 2.2390	 9.2770
 2.2400	 9.2570
 2.2410	 9.2310
 2.2420	 9.2080
 2.2430	 9.1810
 2.2440	 9.1550
 2.2450	 9.1310
 2.2460	 9.1050
 2.2470	 9.0790
 2.2480	 9.0510
 2.2490	 9.0220
 2.2500	 8.9930
 2.2510	 8.9620
 2.2520	 8.9290
 2.2530	 8.8950
 2.2540	 8.8620
 2.2550	 8.8270
 2.2560	 8.7930
 2.2570	 8.7650
 2.2580	 8.7320
 2.2590	 8.6970
 2.2600	 8.6600
 2.2610	 8.6170
 2.2620	 8.5740
 2.2630	 8.5390
 2.2640	 8.5040
 2.2650	 8.4760
 2.2660	 8.4500
 2.2670	 8.4200
 2.2680	 8.3860
 2.2690	 8.3540
 2.2700	 8.3210
 2.2710	 8.2890
 2.2720	 8.2570
 2.2730	 8.2260
 2.2740	 8.1920
 2.2750	 8.1640
 2.2760	 8.1390
 2.2770	 8.1150
 2.2780	 8.0990
 2.2790	 8.0760
 2.2800	 8.0510
 2.2810	 8.0250
 2.2820	 7.9930
 2.2830	 7.9660
 2.2840	 7.9390
 2.2850	 7.9140
 2.2860	 7.8960
 2.2870	 7.8710
 2.2880	 7.8450
 2.2890	 7.8190
 2.2900	 7.7910
 2.2910	 7.7610
 2.2920	 7.7280
 2.2930	 7.6980
 2.2940	 7.6660
 2.2950	 7.6380
 2.2960	 7.6180
 2.2970	 7.5940
 2.2980	 7.5710
 2.2990	 7.5470
 2.3000	 7.5180
 2.3010	 7.4870
 2.3020	 7.4570
 2.3030	 7.4260
 2.3040	 7.3950
 2.3050	 7.3700
 2.3060	 7.3450
 2.3070	 7.3190
 2.3080	 7.2950
 2.3090	 7.2750
 2.3100	 7.2600
 2.3110	 7.2470
 2.3120	 7.2340
 2.3130	 7.2260
 2.3140	 7.2140
 2.3150	 7.1970
 2.3160	 7.1860
 2.3170	 7.1770
 2.3180	 7.1660
 2.3190	 7.1590
 2.3200	 7.1430
 2.3210	 7.1220
 2.3220	 7.1040
 2.3230	 7.0810
 2.3240	 7.0650
 2.3250	 7.0570
 2.3260	 7.0400
 2.3270	 7.0200
 2.3280	 7.0010
 2.3290	 6.9760
 2.3300	 6.9520
 2.3310	 6.9300
 2.3320	 6.9060
 2.3330	 6.8760
 2.3340	 6.8510
 2.3350	 6.8270
 2.3360	 6.8040
 2.3370	 6.7830
 2.3380	 6.7590
 2.3390	 6.7330
 2.3400	 6.7070
 2.3410	 6.6790
 2.3420	 6.6530
 2.3430	 6.6310
 2.3440	 6.6040
 2.3450	 6.5730
 2.3460	 6.5480
 2.3470	 6.5250
 2.3480	 6.5040
 2.3490	 6.4950
 2.3500	 6.4780
 2.3510	 6.4560
 2.3520	 6.4340
 2.3530	 6.4110
 2.3540	 6.3880
 2.3550	 6.3650
 2.3560	 6.3470
 2.3570	 6.3360
 2.3580	 6.3200
 2.3590	 6.3040
 2.3600	 6.2880
 2.3610	 6.2700
 2.3620	 6.2490
 2.3630	 6.2320
 2.3640	 6.2150
 2.3650	 6.1810
 2.3660	 6.1530
 2.3670	 6.1260
 2.3680	 6.0940
 2.3690	 6.0780
 2.3700	 6.0610
 2.3710	 6.0370
 2.3720	 6.0230
 2.3730	 6.0110
 2.3740	 5.9910
 2.3750	 5.9800
 2.3760	 5.9690
 2.3770	 5.9480
 2.3780	 5.9310
 2.3790	 5.9120
 2.3800	 5.8860
 2.3810	 5.8540
 2.3820	 5.8250
 2.3830	 5.7990
 2.3840	 5.7800
 2.3850	 5.7740
 2.3860	 5.7640
 2.3870	 5.7480
 2.3880	 5.7320
 2.3890	 5.7130
 2.3900	 5.6910
 2.3910	 5.6640
 2.3920	 5.6340
 2.3930	 5.5990
 2.3940	 5.5690
 2.3950	 5.5500
 2.3960	 5.5280
 2.3970	 5.5190
 2.3980	 5.5120
 2.3990	 5.5030
 2.4000	 5.4930
 2.4010	 5.4650
 2.4020	 5.4400
 2.4030	 5.4240
 2.4040	 5.3960
 2.4050	 5.3790
 2.4060	 5.3590
 2.4070	 5.3160
 2.4080	 5.2900
 2.4090	 5.2660
 2.4100	 5.2440
 2.4110	 5.2420
 2.4120	 5.2350
 2.4130	 5.2310
 2.4140	 5.2170
 2.4150	 5.1930
 2.4160	 5.1700
 2.4170	 5.1430
 2.4180	 5.1220
 2.4190	 5.1060
 2.4200	 5.0910
 2.4210	 5.0760
 2.4220	 5.0560
 2.4230	 5.0300
 2.4240	 4.9940
 2.4250	 4.9530
 2.4260	 4.9190
 2.4270	 4.8990
 2.4280	 4.8870
 2.4290	 4.8740
 2.4300	 4.8630
 2.4310	 4.8450
 2.4320	 4.8250
 2.4330	 4.8110
 2.4340	 4.7930
 2.4350	 4.7830
 2.4360	 4.7750
 2.4370	 4.7670
 2.4380	 4.7620
 2.4390	 4.7430
 2.4400	 4.7160
 2.4410	 4.6820
 2.4420	 4.6560
 2.4430	 4.6300
 2.4440	 4.5950
 2.4450	 4.5730
 2.4460	 4.5530
 2.4470	 4.5570
 2.4480	 4.5630
 2.4490	 4.5490
 2.4500	 4.5380
 2.4510	 4.4970
 2.4520	 4.4550
 2.4530	 4.4390
 2.4540	 4.4180
 2.4550	 4.4090
 2.4560	 4.4130
 2.4570	 4.4090
 2.4580	 4.3780
 2.4590	 4.3260
 2.4600	 4.2770
 2.4610	 4.2410
 2.4620	 4.2240
 2.4630	 4.2200
 2.4640	 4.2110
 2.4650	 4.1970
 2.4660	 4.1870
 2.4670	 4.1800
 2.4680	 4.2000
 2.4690	 4.2030
 2.4700	 4.1900
 2.4710	 4.1570
 2.4720	 4.1440
 2.4730	 4.1390
 2.4740	 4.1320
 2.4750	 4.1450
 2.4760	 4.1410
 2.4770	 4.1230
 2.4780	 4.0960
 2.4790	 4.0520
 2.4800	 4.0220
 2.4810	 3.9890
 2.4820	 3.9570
 2.4830	 3.9700
 2.4840	 3.9840
 2.4850	 3.9360
 2.4860	 3.9310
 2.4870	 3.9210
 2.4880	 3.8630
 2.4890	 3.8650
 2.4900	 3.8720
 2.4910	 3.8610
 2.4920	 3.9260
 2.4930	 3.9720
 2.4940	 4.0060
 2.4950	 4.0710
 2.4960	 4.0840
 2.4970	 4.0900
 2.4980	 4.0720
 2.4990	 4.0170
 2.5000	 3.9800
