Name: Agave attenuata
Type: vegetation
Class: Shrub
Genus: Agave
Species: attenuata
Sample No.: JPL063
Owner: JPL
Wavelength Range: VSWIR
Origin: 34.12717; - 118.11092; WGS84
Collection Date: 2/2/2016
Description: Samples were collected at the Huntington Garden in San Marino California as part of a JPL Subcontract studying HyTES imagery. Samples were taken to JPL and processed within 48 hours of collection. The same leaves were processed in the Nicolet and then measured using the ASD.
Measurement: Bidirectional reflectance
First Column: X
Second Column: Y
X Units: Wavelength (micrometer)
Y Units: Reflectance (percentage)
First X Value: 0.35
Last X Value: 2.5
Number of X Values: 2151
Additional Information: 

 0.3500	 7.0850
 0.3510	 6.3850
 0.3520	 6.5330
 0.3530	 6.2710
 0.3540	 5.1670
 0.3550	 6.0740
 0.3560	 6.6850
 0.3570	 6.8550
 0.3580	 7.2730
 0.3590	 6.5360
 0.3600	 6.0880
 0.3610	 6.5280
 0.3620	 6.8950
 0.3630	 6.8400
 0.3640	 6.1590
 0.3650	 5.1230
 0.3660	 5.5590
 0.3670	 6.0480
 0.3680	 6.0890
 0.3690	 5.9480
 0.3700	 6.3730
 0.3710	 6.7010
 0.3720	 6.4950
 0.3730	 6.0530
 0.3740	 6.1800
 0.3750	 6.5150
 0.3760	 6.5000
 0.3770	 6.7020
 0.3780	 6.6640
 0.3790	 6.4670
 0.3800	 6.6160
 0.3810	 6.5670
 0.3820	 6.2560
 0.3830	 5.9200
 0.3840	 6.2400
 0.3850	 6.2320
 0.3860	 6.3110
 0.3870	 7.0300
 0.3880	 6.6690
 0.3890	 6.4110
 0.3900	 6.5770
 0.3910	 6.4190
 0.3920	 6.4920
 0.3930	 6.5630
 0.3940	 6.4530
 0.3950	 6.4960
 0.3960	 6.7320
 0.3970	 6.8650
 0.3980	 6.5580
 0.3990	 6.3610
 0.4000	 6.4030
 0.4010	 6.5930
 0.4020	 6.6300
 0.4030	 6.6710
 0.4040	 6.6960
 0.4050	 6.6980
 0.4060	 6.8710
 0.4070	 7.0030
 0.4080	 7.0090
 0.4090	 6.9120
 0.4100	 6.7780
 0.4110	 6.8580
 0.4120	 7.1460
 0.4130	 7.1540
 0.4140	 7.1350
 0.4150	 7.1280
 0.4160	 7.1290
 0.4170	 7.2500
 0.4180	 7.3460
 0.4190	 7.3700
 0.4200	 7.3710
 0.4210	 7.3420
 0.4220	 7.4190
 0.4230	 7.6270
 0.4240	 7.6590
 0.4250	 7.6360
 0.4260	 7.6620
 0.4270	 7.7980
 0.4280	 7.8350
 0.4290	 7.8450
 0.4300	 7.8730
 0.4310	 7.8870
 0.4320	 7.9540
 0.4330	 7.9970
 0.4340	 7.9630
 0.4350	 8.0090
 0.4360	 8.0750
 0.4370	 8.1290
 0.4380	 8.1690
 0.4390	 8.2210
 0.4400	 8.2450
 0.4410	 8.2210
 0.4420	 8.1820
 0.4430	 8.3040
 0.4440	 8.4650
 0.4450	 8.4630
 0.4460	 8.4240
 0.4470	 8.3990
 0.4480	 8.4220
 0.4490	 8.5020
 0.4500	 8.5280
 0.4510	 8.5340
 0.4520	 8.5720
 0.4530	 8.6330
 0.4540	 8.6470
 0.4550	 8.6500
 0.4560	 8.7370
 0.4570	 8.8170
 0.4580	 8.8430
 0.4590	 8.8280
 0.4600	 8.8880
 0.4610	 8.9060
 0.4620	 8.8940
 0.4630	 8.8990
 0.4640	 8.9020
 0.4650	 8.9030
 0.4660	 8.9060
 0.4670	 8.9190
 0.4680	 8.9690
 0.4690	 8.9780
 0.4700	 8.9150
 0.4710	 8.9370
 0.4720	 8.9420
 0.4730	 8.9500
 0.4740	 9.0220
 0.4750	 8.9830
 0.4760	 8.9600
 0.4770	 9.0050
 0.4780	 9.0030
 0.4790	 9.0200
 0.4800	 9.0540
 0.4810	 9.0820
 0.4820	 9.0880
 0.4830	 9.0630
 0.4840	 9.0610
 0.4850	 9.1770
 0.4860	 9.1600
 0.4870	 9.1510
 0.4880	 9.2480
 0.4890	 9.2620
 0.4900	 9.2710
 0.4910	 9.2990
 0.4920	 9.3450
 0.4930	 9.4250
 0.4940	 9.4940
 0.4950	 9.5390
 0.4960	 9.6050
 0.4970	 9.7100
 0.4980	 9.8330
 0.4990	 9.9550
 0.5000	10.1060
 0.5010	10.2390
 0.5020	10.3570
 0.5030	10.5080
 0.5040	10.6910
 0.5050	10.8930
 0.5060	11.1060
 0.5070	11.3360
 0.5080	11.5930
 0.5090	11.8550
 0.5100	12.1010
 0.5110	12.4160
 0.5120	12.7630
 0.5130	13.1100
 0.5140	13.4590
 0.5150	13.8510
 0.5160	14.2690
 0.5170	14.6880
 0.5180	15.1290
 0.5190	15.5680
 0.5200	16.0200
 0.5210	16.5210
 0.5220	16.9830
 0.5230	17.4470
 0.5240	17.9330
 0.5250	18.3640
 0.5260	18.8030
 0.5270	19.2470
 0.5280	19.6670
 0.5290	20.0400
 0.5300	20.3960
 0.5310	20.7360
 0.5320	21.0150
 0.5330	21.3020
 0.5340	21.5720
 0.5350	21.7950
 0.5360	22.0210
 0.5370	22.2130
 0.5380	22.3750
 0.5390	22.5420
 0.5400	22.6930
 0.5410	22.8550
 0.5420	23.0320
 0.5430	23.1810
 0.5440	23.2910
 0.5450	23.3800
 0.5460	23.4750
 0.5470	23.5340
 0.5480	23.5890
 0.5490	23.6550
 0.5500	23.7280
 0.5510	23.7690
 0.5520	23.7890
 0.5530	23.8040
 0.5540	23.8020
 0.5550	23.7380
 0.5560	23.6260
 0.5570	23.5230
 0.5580	23.3860
 0.5590	23.2400
 0.5600	23.1040
 0.5610	22.9550
 0.5620	22.7840
 0.5630	22.6080
 0.5640	22.4410
 0.5650	22.2290
 0.5660	22.0190
 0.5670	21.8110
 0.5680	21.5530
 0.5690	21.2850
 0.5700	21.0200
 0.5710	20.7590
 0.5720	20.4770
 0.5730	20.2030
 0.5740	19.9460
 0.5750	19.6990
 0.5760	19.4710
 0.5770	19.2650
 0.5780	19.0750
 0.5790	18.8810
 0.5800	18.7000
 0.5810	18.5410
 0.5820	18.4040
 0.5830	18.2420
 0.5840	18.1010
 0.5850	17.9820
 0.5860	17.8300
 0.5870	17.7270
 0.5880	17.6420
 0.5890	17.5350
 0.5900	17.4270
 0.5910	17.3270
 0.5920	17.2540
 0.5930	17.2200
 0.5940	17.1690
 0.5950	17.1200
 0.5960	17.0780
 0.5970	17.0150
 0.5980	16.9770
 0.5990	16.9420
 0.6000	16.8760
 0.6010	16.7900
 0.6020	16.7130
 0.6030	16.6440
 0.6040	16.5550
 0.6050	16.4180
 0.6060	16.2640
 0.6070	16.1210
 0.6080	15.9600
 0.6090	15.7890
 0.6100	15.6280
 0.6110	15.4920
 0.6120	15.3130
 0.6130	15.1170
 0.6140	14.9270
 0.6150	14.7450
 0.6160	14.5830
 0.6170	14.4360
 0.6180	14.3010
 0.6190	14.1830
 0.6200	14.0790
 0.6210	13.9900
 0.6220	13.9130
 0.6230	13.8190
 0.6240	13.7410
 0.6250	13.6980
 0.6260	13.6560
 0.6270	13.6430
 0.6280	13.6380
 0.6290	13.6100
 0.6300	13.5890
 0.6310	13.5780
 0.6320	13.5640
 0.6330	13.5250
 0.6340	13.4950
 0.6350	13.4520
 0.6360	13.3770
 0.6370	13.2910
 0.6380	13.1930
 0.6390	13.0730
 0.6400	12.9210
 0.6410	12.7850
 0.6420	12.6400
 0.6430	12.4750
 0.6440	12.3100
 0.6450	12.1370
 0.6460	11.9690
 0.6470	11.8150
 0.6480	11.6410
 0.6490	11.4890
 0.6500	11.3680
 0.6510	11.2620
 0.6520	11.1650
 0.6530	11.0760
 0.6540	10.9810
 0.6550	10.8500
 0.6560	10.7160
 0.6570	10.5800
 0.6580	10.4330
 0.6590	10.2630
 0.6600	10.0900
 0.6610	 9.9260
 0.6620	 9.7660
 0.6630	 9.6170
 0.6640	 9.4690
 0.6650	 9.3200
 0.6660	 9.1970
 0.6670	 9.1000
 0.6680	 9.0240
 0.6690	 8.9670
 0.6700	 8.9160
 0.6710	 8.8830
 0.6720	 8.8700
 0.6730	 8.8670
 0.6740	 8.8820
 0.6750	 8.9020
 0.6760	 8.9220
 0.6770	 8.9630
 0.6780	 9.0160
 0.6790	 9.0850
 0.6800	 9.1810
 0.6810	 9.2820
 0.6820	 9.4130
 0.6830	 9.5840
 0.6840	 9.7840
 0.6850	10.0150
 0.6860	10.3130
 0.6870	10.7070
 0.6880	11.1600
 0.6890	11.7100
 0.6900	12.3730
 0.6910	13.1460
 0.6920	14.0490
 0.6930	15.0810
 0.6940	16.2280
 0.6950	17.4700
 0.6960	18.7990
 0.6970	20.2040
 0.6980	21.6710
 0.6990	23.1830
 0.7000	24.7310
 0.7010	26.2930
 0.7020	27.8430
 0.7030	29.3950
 0.7040	30.9300
 0.7050	32.4400
 0.7060	33.9440
 0.7070	35.4260
 0.7080	36.8820
 0.7090	38.3190
 0.7100	39.7270
 0.7110	41.1260
 0.7120	42.5140
 0.7130	43.8720
 0.7140	45.2260
 0.7150	46.5640
 0.7160	47.8730
 0.7170	49.1630
 0.7180	50.4280
 0.7190	51.6700
 0.7200	52.8860
 0.7210	54.0480
 0.7220	55.1890
 0.7230	56.3030
 0.7240	57.3430
 0.7250	58.3320
 0.7260	59.2760
 0.7270	60.1790
 0.7280	61.0340
 0.7290	61.8260
 0.7300	62.5630
 0.7310	63.2550
 0.7320	63.8940
 0.7330	64.4690
 0.7340	64.9930
 0.7350	65.4990
 0.7360	65.9710
 0.7370	66.4110
 0.7380	66.8230
 0.7390	67.2120
 0.7400	67.5610
 0.7410	67.8770
 0.7420	68.1720
 0.7430	68.4510
 0.7440	68.7030
 0.7450	68.9200
 0.7460	69.0970
 0.7470	69.2640
 0.7480	69.4120
 0.7490	69.5370
 0.7500	69.6570
 0.7510	69.7590
 0.7520	69.8450
 0.7530	69.9220
 0.7540	69.9780
 0.7550	70.0320
 0.7560	70.0790
 0.7570	70.1030
 0.7580	70.1420
 0.7590	70.1820
 0.7600	70.2120
 0.7610	70.2510
 0.7620	70.2600
 0.7630	70.2660
 0.7640	70.2930
 0.7650	70.2810
 0.7660	70.2890
 0.7670	70.3050
 0.7680	70.2790
 0.7690	70.3030
 0.7700	70.3130
 0.7710	70.2970
 0.7720	70.3330
 0.7730	70.3560
 0.7740	70.3530
 0.7750	70.3310
 0.7760	70.3140
 0.7770	70.3240
 0.7780	70.3370
 0.7790	70.3240
 0.7800	70.3440
 0.7810	70.3610
 0.7820	70.3720
 0.7830	70.4080
 0.7840	70.4140
 0.7850	70.4220
 0.7860	70.4480
 0.7870	70.4350
 0.7880	70.4480
 0.7890	70.4780
 0.7900	70.4920
 0.7910	70.4980
 0.7920	70.5120
 0.7930	70.5370
 0.7940	70.5620
 0.7950	70.5500
 0.7960	70.5430
 0.7970	70.5680
 0.7980	70.6180
 0.7990	70.6180
 0.8000	70.6040
 0.8010	70.6150
 0.8020	70.5970
 0.8030	70.5960
 0.8040	70.6070
 0.8050	70.6100
 0.8060	70.6220
 0.8070	70.6200
 0.8080	70.5970
 0.8090	70.5650
 0.8100	70.5640
 0.8110	70.5630
 0.8120	70.5460
 0.8130	70.5420
 0.8140	70.5210
 0.8150	70.4960
 0.8160	70.4800
 0.8170	70.4540
 0.8180	70.4170
 0.8190	70.3810
 0.8200	70.3510
 0.8210	70.3100
 0.8220	70.2410
 0.8230	70.1680
 0.8240	70.1430
 0.8250	70.0920
 0.8260	70.0100
 0.8270	69.9050
 0.8280	69.7920
 0.8290	69.7080
 0.8300	69.6050
 0.8310	69.4610
 0.8320	69.4080
 0.8330	69.3420
 0.8340	69.2590
 0.8350	69.1950
 0.8360	69.1580
 0.8370	69.1220
 0.8380	69.0850
 0.8390	69.0650
 0.8400	69.0300
 0.8410	68.9730
 0.8420	68.9160
 0.8430	68.9060
 0.8440	68.9190
 0.8450	68.9120
 0.8460	68.8680
 0.8470	68.8390
 0.8480	68.8110
 0.8490	68.7820
 0.8500	68.7530
 0.8510	68.7390
 0.8520	68.7330
 0.8530	68.7250
 0.8540	68.7030
 0.8550	68.6930
 0.8560	68.6840
 0.8570	68.6710
 0.8580	68.6520
 0.8590	68.6490
 0.8600	68.6410
 0.8610	68.6230
 0.8620	68.6310
 0.8630	68.6140
 0.8640	68.5630
 0.8650	68.5070
 0.8660	68.5410
 0.8670	68.5420
 0.8680	68.5170
 0.8690	68.5070
 0.8700	68.4650
 0.8710	68.4380
 0.8720	68.4280
 0.8730	68.4110
 0.8740	68.3890
 0.8750	68.3580
 0.8760	68.3220
 0.8770	68.2940
 0.8780	68.2540
 0.8790	68.2280
 0.8800	68.2130
 0.8810	68.1540
 0.8820	68.0880
 0.8830	68.0640
 0.8840	68.0880
 0.8850	68.0800
 0.8860	68.0170
 0.8870	67.9510
 0.8880	67.9310
 0.8890	67.9060
 0.8900	67.8480
 0.8910	67.7940
 0.8920	67.7890
 0.8930	67.7370
 0.8940	67.6950
 0.8950	67.6780
 0.8960	67.6590
 0.8970	67.5710
 0.8980	67.5240
 0.8990	67.5210
 0.9000	67.4610
 0.9010	67.4410
 0.9020	67.3990
 0.9030	67.3210
 0.9040	67.2880
 0.9050	67.2830
 0.9060	67.2690
 0.9070	67.2110
 0.9080	67.0940
 0.9090	67.0340
 0.9100	66.9970
 0.9110	66.9400
 0.9120	66.9050
 0.9130	66.7990
 0.9140	66.6760
 0.9150	66.6090
 0.9160	66.5460
 0.9170	66.4360
 0.9180	66.2990
 0.9190	66.1770
 0.9200	66.0530
 0.9210	65.9300
 0.9220	65.7900
 0.9230	65.6100
 0.9240	65.4120
 0.9250	65.2200
 0.9260	65.0330
 0.9270	64.8240
 0.9280	64.5740
 0.9290	64.3410
 0.9300	64.1080
 0.9310	63.7950
 0.9320	63.5450
 0.9330	63.2700
 0.9340	62.9410
 0.9350	62.6270
 0.9360	62.3500
 0.9370	62.0520
 0.9380	61.7180
 0.9390	61.4110
 0.9400	61.1260
 0.9410	60.7650
 0.9420	60.3310
 0.9430	60.0180
 0.9440	59.6330
 0.9450	59.2280
 0.9460	58.8490
 0.9470	58.3970
 0.9480	57.9540
 0.9490	57.4680
 0.9500	56.9250
 0.9510	56.4870
 0.9520	56.0030
 0.9530	55.5350
 0.9540	55.1180
 0.9550	54.5060
 0.9560	54.0630
 0.9570	53.7430
 0.9580	53.4000
 0.9590	53.0510
 0.9600	52.8040
 0.9610	52.5920
 0.9620	52.3320
 0.9630	52.1610
 0.9640	52.0130
 0.9650	51.8660
 0.9660	51.7270
 0.9670	51.6540
 0.9680	51.5870
 0.9690	51.4610
 0.9700	51.2770
 0.9710	51.3000
 0.9720	51.2930
 0.9730	51.2300
 0.9740	51.1800
 0.9750	51.1020
 0.9760	51.0960
 0.9770	51.1300
 0.9780	51.1200
 0.9790	51.0860
 0.9800	51.0750
 0.9810	51.1410
 0.9820	51.2840
 0.9830	51.3040
 0.9840	51.2870
 0.9850	51.3210
 0.9860	51.4330
 0.9870	51.4420
 0.9880	51.4930
 0.9890	51.5860
 0.9900	51.6500
 0.9910	51.7230
 0.9920	51.8820
 0.9930	52.0540
 0.9940	52.1310
 0.9950	52.1610
 0.9960	52.2790
 0.9970	52.4220
 0.9980	52.4830
 0.9990	52.6120
 1.0000	52.8000
 1.0010	53.0340
 1.0020	53.1380
 1.0030	53.3090
 1.0040	53.5020
 1.0050	53.6880
 1.0060	53.8640
 1.0070	54.0090
 1.0080	54.1680
 1.0090	54.3060
 1.0100	54.4680
 1.0110	54.6480
 1.0120	54.8230
 1.0130	55.0070
 1.0140	55.1770
 1.0150	55.3220
 1.0160	55.5190
 1.0170	55.7070
 1.0180	55.8790
 1.0190	56.1180
 1.0200	56.3470
 1.0210	56.5420
 1.0220	56.7600
 1.0230	56.9620
 1.0240	57.1360
 1.0250	57.3230
 1.0260	57.5310
 1.0270	57.7130
 1.0280	57.8460
 1.0290	58.0330
 1.0300	58.2620
 1.0310	58.4510
 1.0320	58.6410
 1.0330	58.8460
 1.0340	58.9860
 1.0350	59.1090
 1.0360	59.2550
 1.0370	59.4040
 1.0380	59.5670
 1.0390	59.7430
 1.0400	59.9180
 1.0410	60.1040
 1.0420	60.2850
 1.0430	60.4840
 1.0440	60.6470
 1.0450	60.8010
 1.0460	60.9420
 1.0470	61.0420
 1.0480	61.1630
 1.0490	61.2920
 1.0500	61.4070
 1.0510	61.5150
 1.0520	61.6400
 1.0530	61.7500
 1.0540	61.8510
 1.0550	61.9550
 1.0560	62.0660
 1.0570	62.1540
 1.0580	62.2250
 1.0590	62.3020
 1.0600	62.3690
 1.0610	62.4380
 1.0620	62.5120
 1.0630	62.5790
 1.0640	62.6500
 1.0650	62.6980
 1.0660	62.7400
 1.0670	62.7650
 1.0680	62.7760
 1.0690	62.7570
 1.0700	62.7600
 1.0710	62.7590
 1.0720	62.7610
 1.0730	62.7720
 1.0740	62.7700
 1.0750	62.7760
 1.0760	62.7480
 1.0770	62.7020
 1.0780	62.6500
 1.0790	62.5590
 1.0800	62.4980
 1.0810	62.4560
 1.0820	62.4010
 1.0830	62.3590
 1.0840	62.2990
 1.0850	62.2240
 1.0860	62.1440
 1.0870	62.0600
 1.0880	61.9680
 1.0890	61.8730
 1.0900	61.7710
 1.0910	61.6740
 1.0920	61.5870
 1.0930	61.4750
 1.0940	61.3560
 1.0950	61.2290
 1.0960	61.0620
 1.0970	60.9300
 1.0980	60.8130
 1.0990	60.6940
 1.1000	60.6000
 1.1010	60.4870
 1.1020	60.3550
 1.1030	60.2300
 1.1040	60.1240
 1.1050	60.0040
 1.1060	59.8790
 1.1070	59.7680
 1.1080	59.6280
 1.1090	59.4560
 1.1100	59.3080
 1.1110	59.1600
 1.1120	59.0160
 1.1130	58.8890
 1.1140	58.7420
 1.1150	58.5900
 1.1160	58.4260
 1.1170	58.2510
 1.1180	58.0650
 1.1190	57.8830
 1.1200	57.6650
 1.1210	57.4330
 1.1220	57.1920
 1.1230	56.8990
 1.1240	56.6060
 1.1250	56.2820
 1.1260	55.9360
 1.1270	55.5510
 1.1280	55.1510
 1.1290	54.6950
 1.1300	54.1920
 1.1310	53.6740
 1.1320	53.1280
 1.1330	52.5490
 1.1340	51.9430
 1.1350	51.3090
 1.1360	50.6330
 1.1370	49.9390
 1.1380	49.2490
 1.1390	48.5570
 1.1400	47.8610
 1.1410	47.1790
 1.1420	46.5010
 1.1430	45.8390
 1.1440	45.2150
 1.1450	44.6100
 1.1460	44.0450
 1.1470	43.5140
 1.1480	43.0090
 1.1490	42.5310
 1.1500	42.0890
 1.1510	41.6750
 1.1520	41.2960
 1.1530	40.9510
 1.1540	40.6380
 1.1550	40.3570
 1.1560	40.1000
 1.1570	39.8890
 1.1580	39.6990
 1.1590	39.5200
 1.1600	39.3670
 1.1610	39.2260
 1.1620	39.0980
 1.1630	38.9920
 1.1640	38.8960
 1.1650	38.8010
 1.1660	38.7080
 1.1670	38.6300
 1.1680	38.5650
 1.1690	38.5000
 1.1700	38.4460
 1.1710	38.3850
 1.1720	38.3180
 1.1730	38.2660
 1.1740	38.2210
 1.1750	38.1800
 1.1760	38.1380
 1.1770	38.0920
 1.1780	38.0330
 1.1790	37.9630
 1.1800	37.9100
 1.1810	37.8640
 1.1820	37.8120
 1.1830	37.7650
 1.1840	37.7080
 1.1850	37.6460
 1.1860	37.5920
 1.1870	37.5360
 1.1880	37.4890
 1.1890	37.4460
 1.1900	37.4100
 1.1910	37.3830
 1.1920	37.3540
 1.1930	37.3290
 1.1940	37.3070
 1.1950	37.2840
 1.1960	37.2660
 1.1970	37.2560
 1.1980	37.2360
 1.1990	37.2270
 1.2000	37.2290
 1.2010	37.2290
 1.2020	37.2410
 1.2030	37.2440
 1.2040	37.2450
 1.2050	37.2550
 1.2060	37.2690
 1.2070	37.2940
 1.2080	37.3200
 1.2090	37.3510
 1.2100	37.3890
 1.2110	37.4200
 1.2120	37.4470
 1.2130	37.4800
 1.2140	37.5120
 1.2150	37.5480
 1.2160	37.5870
 1.2170	37.6380
 1.2180	37.6940
 1.2190	37.7400
 1.2200	37.7930
 1.2210	37.8500
 1.2220	37.8970
 1.2230	37.9520
 1.2240	38.0090
 1.2250	38.0600
 1.2260	38.1150
 1.2270	38.1730
 1.2280	38.2270
 1.2290	38.2860
 1.2300	38.3470
 1.2310	38.3930
 1.2320	38.4410
 1.2330	38.4920
 1.2340	38.5420
 1.2350	38.5940
 1.2360	38.6440
 1.2370	38.6960
 1.2380	38.7350
 1.2390	38.7790
 1.2400	38.8240
 1.2410	38.8760
 1.2420	38.9360
 1.2430	38.9920
 1.2440	39.0440
 1.2450	39.0880
 1.2460	39.1330
 1.2470	39.1730
 1.2480	39.2080
 1.2490	39.2460
 1.2500	39.2810
 1.2510	39.3230
 1.2520	39.3710
 1.2530	39.4140
 1.2540	39.4580
 1.2550	39.4930
 1.2560	39.5170
 1.2570	39.5420
 1.2580	39.5570
 1.2590	39.5750
 1.2600	39.5990
 1.2610	39.6140
 1.2620	39.6220
 1.2630	39.6370
 1.2640	39.6510
 1.2650	39.6540
 1.2660	39.6730
 1.2670	39.6720
 1.2680	39.6550
 1.2690	39.6450
 1.2700	39.6190
 1.2710	39.5970
 1.2720	39.5770
 1.2730	39.5410
 1.2740	39.5050
 1.2750	39.4670
 1.2760	39.4300
 1.2770	39.3920
 1.2780	39.3490
 1.2790	39.2950
 1.2800	39.2280
 1.2810	39.1580
 1.2820	39.0810
 1.2830	39.0040
 1.2840	38.9270
 1.2850	38.8390
 1.2860	38.7490
 1.2870	38.6540
 1.2880	38.5520
 1.2890	38.4370
 1.2900	38.3300
 1.2910	38.2190
 1.2920	38.0900
 1.2930	37.9670
 1.2940	37.8310
 1.2950	37.6810
 1.2960	37.5400
 1.2970	37.3840
 1.2980	37.2240
 1.2990	37.0600
 1.3000	36.8790
 1.3010	36.7040
 1.3020	36.5180
 1.3030	36.3280
 1.3040	36.1480
 1.3050	35.9540
 1.3060	35.7490
 1.3070	35.5410
 1.3080	35.3300
 1.3090	35.1100
 1.3100	34.8870
 1.3110	34.6610
 1.3120	34.4170
 1.3130	34.1720
 1.3140	33.9270
 1.3150	33.6790
 1.3160	33.4310
 1.3170	33.1870
 1.3180	32.9330
 1.3190	32.6700
 1.3200	32.4040
 1.3210	32.1300
 1.3220	31.8540
 1.3230	31.5860
 1.3240	31.3180
 1.3250	31.0490
 1.3260	30.7850
 1.3270	30.5120
 1.3280	30.2340
 1.3290	29.9640
 1.3300	29.6950
 1.3310	29.4270
 1.3320	29.1680
 1.3330	28.9080
 1.3340	28.6410
 1.3350	28.3810
 1.3360	28.1260
 1.3370	27.8740
 1.3380	27.6290
 1.3390	27.3890
 1.3400	27.1630
 1.3410	26.9410
 1.3420	26.7260
 1.3430	26.5160
 1.3440	26.3020
 1.3450	26.0960
 1.3460	25.8940
 1.3470	25.6970
 1.3480	25.5040
 1.3490	25.3200
 1.3500	25.1390
 1.3510	24.9660
 1.3520	24.7980
 1.3530	24.6320
 1.3540	24.4690
 1.3550	24.3050
 1.3560	24.1430
 1.3570	23.9820
 1.3580	23.8170
 1.3590	23.6480
 1.3600	23.4740
 1.3610	23.2960
 1.3620	23.1110
 1.3630	22.9160
 1.3640	22.7170
 1.3650	22.5060
 1.3660	22.2830
 1.3670	22.0570
 1.3680	21.8170
 1.3690	21.5640
 1.3700	21.3040
 1.3710	21.0290
 1.3720	20.7410
 1.3730	20.4420
 1.3740	20.1240
 1.3750	19.7920
 1.3760	19.4440
 1.3770	19.0780
 1.3780	18.6980
 1.3790	18.3050
 1.3800	17.8960
 1.3810	17.4780
 1.3820	17.0560
 1.3830	16.6230
 1.3840	16.1930
 1.3850	15.7550
 1.3860	15.3260
 1.3870	14.8930
 1.3880	14.4740
 1.3890	14.0620
 1.3900	13.6620
 1.3910	13.2730
 1.3920	12.8930
 1.3930	12.5250
 1.3940	12.1720
 1.3950	11.8330
 1.3960	11.5150
 1.3970	11.2180
 1.3980	10.9360
 1.3990	10.6750
 1.4000	10.4290
 1.4010	10.1960
 1.4020	 9.9810
 1.4030	 9.7830
 1.4040	 9.5950
 1.4050	 9.4220
 1.4060	 9.2640
 1.4070	 9.1180
 1.4080	 8.9830
 1.4090	 8.8580
 1.4100	 8.7430
 1.4110	 8.6340
 1.4120	 8.5340
 1.4130	 8.4420
 1.4140	 8.3550
 1.4150	 8.2770
 1.4160	 8.2060
 1.4170	 8.1360
 1.4180	 8.0710
 1.4190	 8.0100
 1.4200	 7.9520
 1.4210	 7.9010
 1.4220	 7.8520
 1.4230	 7.8070
 1.4240	 7.7670
 1.4250	 7.7260
 1.4260	 7.6860
 1.4270	 7.6510
 1.4280	 7.6180
 1.4290	 7.5890
 1.4300	 7.5660
 1.4310	 7.5420
 1.4320	 7.5190
 1.4330	 7.4960
 1.4340	 7.4730
 1.4350	 7.4520
 1.4360	 7.4310
 1.4370	 7.4130
 1.4380	 7.3980
 1.4390	 7.3860
 1.4400	 7.3790
 1.4410	 7.3720
 1.4420	 7.3610
 1.4430	 7.3480
 1.4440	 7.3330
 1.4450	 7.3210
 1.4460	 7.3120
 1.4470	 7.3060
 1.4480	 7.3010
 1.4490	 7.2920
 1.4500	 7.2860
 1.4510	 7.2830
 1.4520	 7.2810
 1.4530	 7.2830
 1.4540	 7.2860
 1.4550	 7.2870
 1.4560	 7.2880
 1.4570	 7.2910
 1.4580	 7.2940
 1.4590	 7.2990
 1.4600	 7.3020
 1.4610	 7.3020
 1.4620	 7.3090
 1.4630	 7.3230
 1.4640	 7.3370
 1.4650	 7.3570
 1.4660	 7.3760
 1.4670	 7.3850
 1.4680	 7.4010
 1.4690	 7.4190
 1.4700	 7.4410
 1.4710	 7.4680
 1.4720	 7.4920
 1.4730	 7.5150
 1.4740	 7.5350
 1.4750	 7.5560
 1.4760	 7.5840
 1.4770	 7.6150
 1.4780	 7.6470
 1.4790	 7.6810
 1.4800	 7.7140
 1.4810	 7.7480
 1.4820	 7.7820
 1.4830	 7.8180
 1.4840	 7.8510
 1.4850	 7.8830
 1.4860	 7.9160
 1.4870	 7.9520
 1.4880	 7.9930
 1.4890	 8.0370
 1.4900	 8.0780
 1.4910	 8.1180
 1.4920	 8.1590
 1.4930	 8.1970
 1.4940	 8.2390
 1.4950	 8.2840
 1.4960	 8.3290
 1.4970	 8.3730
 1.4980	 8.4190
 1.4990	 8.4660
 1.5000	 8.5110
 1.5010	 8.5570
 1.5020	 8.6020
 1.5030	 8.6450
 1.5040	 8.6930
 1.5050	 8.7450
 1.5060	 8.7950
 1.5070	 8.8480
 1.5080	 8.8990
 1.5090	 8.9480
 1.5100	 8.9970
 1.5110	 9.0500
 1.5120	 9.1060
 1.5130	 9.1670
 1.5140	 9.2220
 1.5150	 9.2750
 1.5160	 9.3290
 1.5170	 9.3790
 1.5180	 9.4360
 1.5190	 9.4940
 1.5200	 9.5560
 1.5210	 9.6160
 1.5220	 9.6740
 1.5230	 9.7370
 1.5240	 9.7920
 1.5250	 9.8460
 1.5260	 9.9030
 1.5270	 9.9610
 1.5280	10.0220
 1.5290	10.0840
 1.5300	10.1500
 1.5310	10.2120
 1.5320	10.2720
 1.5330	10.3320
 1.5340	10.3890
 1.5350	10.4460
 1.5360	10.5050
 1.5370	10.5700
 1.5380	10.6370
 1.5390	10.7020
 1.5400	10.7670
 1.5410	10.8300
 1.5420	10.8900
 1.5430	10.9500
 1.5440	11.0110
 1.5450	11.0740
 1.5460	11.1410
 1.5470	11.2040
 1.5480	11.2660
 1.5490	11.3300
 1.5500	11.3880
 1.5510	11.4470
 1.5520	11.5140
 1.5530	11.5760
 1.5540	11.6360
 1.5550	11.7000
 1.5560	11.7580
 1.5570	11.8210
 1.5580	11.8870
 1.5590	11.9530
 1.5600	12.0180
 1.5610	12.0770
 1.5620	12.1380
 1.5630	12.1970
 1.5640	12.2550
 1.5650	12.3170
 1.5660	12.3810
 1.5670	12.4460
 1.5680	12.5160
 1.5690	12.5820
 1.5700	12.6410
 1.5710	12.6970
 1.5720	12.7480
 1.5730	12.8010
 1.5740	12.8600
 1.5750	12.9210
 1.5760	12.9840
 1.5770	13.0470
 1.5780	13.1100
 1.5790	13.1680
 1.5800	13.2250
 1.5810	13.2830
 1.5820	13.3400
 1.5830	13.3960
 1.5840	13.4530
 1.5850	13.5070
 1.5860	13.5570
 1.5870	13.6120
 1.5880	13.6630
 1.5890	13.7120
 1.5900	13.7630
 1.5910	13.8120
 1.5920	13.8600
 1.5930	13.9130
 1.5940	13.9640
 1.5950	14.0110
 1.5960	14.0600
 1.5970	14.1080
 1.5980	14.1580
 1.5990	14.2120
 1.6000	14.2660
 1.6010	14.3180
 1.6020	14.3670
 1.6030	14.4150
 1.6040	14.4590
 1.6050	14.5030
 1.6060	14.5440
 1.6070	14.5870
 1.6080	14.6380
 1.6090	14.6830
 1.6100	14.7270
 1.6110	14.7730
 1.6120	14.8150
 1.6130	14.8570
 1.6140	14.8950
 1.6150	14.9330
 1.6160	14.9710
 1.6170	15.0080
 1.6180	15.0550
 1.6190	15.0990
 1.6200	15.1360
 1.6210	15.1740
 1.6220	15.2070
 1.6230	15.2440
 1.6240	15.2830
 1.6250	15.3220
 1.6260	15.3640
 1.6270	15.3990
 1.6280	15.4230
 1.6290	15.4530
 1.6300	15.4770
 1.6310	15.5120
 1.6320	15.5540
 1.6330	15.5950
 1.6340	15.6420
 1.6350	15.6790
 1.6360	15.7120
 1.6370	15.7420
 1.6380	15.7640
 1.6390	15.7920
 1.6400	15.8200
 1.6410	15.8480
 1.6420	15.8820
 1.6430	15.9090
 1.6440	15.9300
 1.6450	15.9510
 1.6460	15.9690
 1.6470	15.9940
 1.6480	16.0240
 1.6490	16.0520
 1.6500	16.0790
 1.6510	16.0950
 1.6520	16.1100
 1.6530	16.1290
 1.6540	16.1430
 1.6550	16.1630
 1.6560	16.1830
 1.6570	16.1990
 1.6580	16.2200
 1.6590	16.2380
 1.6600	16.2540
 1.6610	16.2700
 1.6620	16.2810
 1.6630	16.2910
 1.6640	16.3050
 1.6650	16.3210
 1.6660	16.3320
 1.6670	16.3350
 1.6680	16.3390
 1.6690	16.3390
 1.6700	16.3390
 1.6710	16.3490
 1.6720	16.3590
 1.6730	16.3600
 1.6740	16.3620
 1.6750	16.3630
 1.6760	16.3530
 1.6770	16.3430
 1.6780	16.3380
 1.6790	16.3300
 1.6800	16.3220
 1.6810	16.3150
 1.6820	16.2990
 1.6830	16.2870
 1.6840	16.2790
 1.6850	16.2680
 1.6860	16.2670
 1.6870	16.2570
 1.6880	16.2400
 1.6890	16.2240
 1.6900	16.2060
 1.6910	16.1870
 1.6920	16.1650
 1.6930	16.1420
 1.6940	16.1180
 1.6950	16.0890
 1.6960	16.0640
 1.6970	16.0400
 1.6980	16.0140
 1.6990	15.9920
 1.7000	15.9640
 1.7010	15.9290
 1.7020	15.8970
 1.7030	15.8640
 1.7040	15.8290
 1.7050	15.7970
 1.7060	15.7620
 1.7070	15.7230
 1.7080	15.6840
 1.7090	15.6440
 1.7100	15.6070
 1.7110	15.5690
 1.7120	15.5390
 1.7130	15.5040
 1.7140	15.4590
 1.7150	15.4160
 1.7160	15.3740
 1.7170	15.3300
 1.7180	15.2870
 1.7190	15.2440
 1.7200	15.2050
 1.7210	15.1660
 1.7220	15.1260
 1.7230	15.0840
 1.7240	15.0290
 1.7250	14.9710
 1.7260	14.9190
 1.7270	14.8710
 1.7280	14.8270
 1.7290	14.7870
 1.7300	14.7400
 1.7310	14.7020
 1.7320	14.6670
 1.7330	14.6330
 1.7340	14.6080
 1.7350	14.5800
 1.7360	14.5520
 1.7370	14.5220
 1.7380	14.4930
 1.7390	14.4600
 1.7400	14.4220
 1.7410	14.3860
 1.7420	14.3510
 1.7430	14.3100
 1.7440	14.2660
 1.7450	14.2200
 1.7460	14.1700
 1.7470	14.1190
 1.7480	14.0640
 1.7490	14.0150
 1.7500	13.9680
 1.7510	13.9140
 1.7520	13.8660
 1.7530	13.8060
 1.7540	13.7330
 1.7550	13.6750
 1.7560	13.6190
 1.7570	13.5800
 1.7580	13.5400
 1.7590	13.4900
 1.7600	13.4400
 1.7610	13.3790
 1.7620	13.3280
 1.7630	13.2860
 1.7640	13.2430
 1.7650	13.2050
 1.7660	13.1670
 1.7670	13.1280
 1.7680	13.0930
 1.7690	13.0600
 1.7700	13.0280
 1.7710	13.0010
 1.7720	12.9730
 1.7730	12.9460
 1.7740	12.9200
 1.7750	12.8960
 1.7760	12.8730
 1.7770	12.8520
 1.7780	12.8300
 1.7790	12.8080
 1.7800	12.7890
 1.7810	12.7700
 1.7820	12.7540
 1.7830	12.7410
 1.7840	12.7320
 1.7850	12.7260
 1.7860	12.7180
 1.7870	12.7110
 1.7880	12.7020
 1.7890	12.7020
 1.7900	12.7010
 1.7910	12.7000
 1.7920	12.6990
 1.7930	12.6970
 1.7940	12.6910
 1.7950	12.6920
 1.7960	12.7010
 1.7970	12.7040
 1.7980	12.7130
 1.7990	12.7120
 1.8000	12.6930
 1.8010	12.6910
 1.8020	12.6960
 1.8030	12.7020
 1.8040	12.7210
 1.8050	12.7300
 1.8060	12.7300
 1.8070	12.7350
 1.8080	12.7390
 1.8090	12.7440
 1.8100	12.7500
 1.8110	12.7560
 1.8120	12.7650
 1.8130	12.7660
 1.8140	12.7610
 1.8150	12.7530
 1.8160	12.7380
 1.8170	12.7330
 1.8180	12.7330
 1.8190	12.7360
 1.8200	12.7330
 1.8210	12.7230
 1.8220	12.7190
 1.8230	12.7110
 1.8240	12.7120
 1.8250	12.7270
 1.8260	12.7270
 1.8270	12.7230
 1.8280	12.7120
 1.8290	12.6850
 1.8300	12.6640
 1.8310	12.7690
 1.8320	12.7520
 1.8330	12.7290
 1.8340	12.6980
 1.8350	12.6840
 1.8360	12.6590
 1.8370	12.6330
 1.8380	12.5870
 1.8390	12.5350
 1.8400	12.4740
 1.8410	12.4140
 1.8420	12.3400
 1.8430	12.2770
 1.8440	12.2230
 1.8450	12.1550
 1.8460	12.0940
 1.8470	12.0290
 1.8480	11.9440
 1.8490	11.8550
 1.8500	11.7650
 1.8510	11.6690
 1.8520	11.5670
 1.8530	11.4720
 1.8540	11.3600
 1.8550	11.2390
 1.8560	11.1160
 1.8570	10.9660
 1.8580	10.8340
 1.8590	10.7050
 1.8600	10.5780
 1.8610	10.4350
 1.8620	10.3100
 1.8630	10.1680
 1.8640	10.0040
 1.8650	 9.8490
 1.8660	 9.6830
 1.8670	 9.5060
 1.8680	 9.3300
 1.8690	 9.1390
 1.8700	 8.9580
 1.8710	 8.7770
 1.8720	 8.6130
 1.8730	 8.4380
 1.8740	 8.2760
 1.8750	 8.1220
 1.8760	 7.9570
 1.8770	 7.8090
 1.8780	 7.6660
 1.8790	 7.5210
 1.8800	 7.3700
 1.8810	 7.2170
 1.8820	 7.0540
 1.8830	 6.9040
 1.8840	 6.7670
 1.8850	 6.6410
 1.8860	 6.5270
 1.8870	 6.4230
 1.8880	 6.3200
 1.8890	 6.2160
 1.8900	 6.1230
 1.8910	 6.0290
 1.8920	 5.9340
 1.8930	 5.8420
 1.8940	 5.7730
 1.8950	 5.7120
 1.8960	 5.6530
 1.8970	 5.6090
 1.8980	 5.5620
 1.8990	 5.5060
 1.9000	 5.4620
 1.9010	 5.4250
 1.9020	 5.3870
 1.9030	 5.3470
 1.9040	 5.3250
 1.9050	 5.3010
 1.9060	 5.2840
 1.9070	 5.2640
 1.9080	 5.2350
 1.9090	 5.2060
 1.9100	 5.1650
 1.9110	 5.1430
 1.9120	 5.1420
 1.9130	 5.1320
 1.9140	 5.1230
 1.9150	 5.1240
 1.9160	 5.1200
 1.9170	 5.1070
 1.9180	 5.0960
 1.9190	 5.0910
 1.9200	 5.0840
 1.9210	 5.0750
 1.9220	 5.0660
 1.9230	 5.0560
 1.9240	 5.0500
 1.9250	 5.0470
 1.9260	 5.0390
 1.9270	 5.0260
 1.9280	 5.0310
 1.9290	 5.0370
 1.9300	 5.0430
 1.9310	 5.0600
 1.9320	 5.0650
 1.9330	 5.0630
 1.9340	 5.0410
 1.9350	 5.0360
 1.9360	 5.0360
 1.9370	 5.0360
 1.9380	 5.0400
 1.9390	 5.0510
 1.9400	 5.0630
 1.9410	 5.0670
 1.9420	 5.0780
 1.9430	 5.0800
 1.9440	 5.0770
 1.9450	 5.0610
 1.9460	 5.0560
 1.9470	 5.0450
 1.9480	 5.0500
 1.9490	 5.0660
 1.9500	 5.0850
 1.9510	 5.1110
 1.9520	 5.1290
 1.9530	 5.1510
 1.9540	 5.1720
 1.9550	 5.1820
 1.9560	 5.1830
 1.9570	 5.1880
 1.9580	 5.1780
 1.9590	 5.1810
 1.9600	 5.1940
 1.9610	 5.2030
 1.9620	 5.2150
 1.9630	 5.2230
 1.9640	 5.2270
 1.9650	 5.2350
 1.9660	 5.2490
 1.9670	 5.2640
 1.9680	 5.2680
 1.9690	 5.2650
 1.9700	 5.2690
 1.9710	 5.2560
 1.9720	 5.2610
 1.9730	 5.2810
 1.9740	 5.3040
 1.9750	 5.3170
 1.9760	 5.3320
 1.9770	 5.3360
 1.9780	 5.3280
 1.9790	 5.3370
 1.9800	 5.3490
 1.9810	 5.3690
 1.9820	 5.4060
 1.9830	 5.4280
 1.9840	 5.4510
 1.9850	 5.4680
 1.9860	 5.4760
 1.9870	 5.4890
 1.9880	 5.4980
 1.9890	 5.4970
 1.9900	 5.5030
 1.9910	 5.5100
 1.9920	 5.5190
 1.9930	 5.5330
 1.9940	 5.5500
 1.9950	 5.5690
 1.9960	 5.5850
 1.9970	 5.6110
 1.9980	 5.6270
 1.9990	 5.6330
 2.0000	 5.6390
 2.0010	 5.6490
 2.0020	 5.6610
 2.0030	 5.6820
 2.0040	 5.7050
 2.0050	 5.7230
 2.0060	 5.7410
 2.0070	 5.7530
 2.0080	 5.7530
 2.0090	 5.7660
 2.0100	 5.7840
 2.0110	 5.7990
 2.0120	 5.8160
 2.0130	 5.8380
 2.0140	 5.8540
 2.0150	 5.8620
 2.0160	 5.8730
 2.0170	 5.8780
 2.0180	 5.8890
 2.0190	 5.8990
 2.0200	 5.9120
 2.0210	 5.9250
 2.0220	 5.9480
 2.0230	 5.9840
 2.0240	 6.0080
 2.0250	 6.0360
 2.0260	 6.0570
 2.0270	 6.0700
 2.0280	 6.0760
 2.0290	 6.0800
 2.0300	 6.0960
 2.0310	 6.1130
 2.0320	 6.1340
 2.0330	 6.1510
 2.0340	 6.1730
 2.0350	 6.1920
 2.0360	 6.2060
 2.0370	 6.2190
 2.0380	 6.2300
 2.0390	 6.2460
 2.0400	 6.2600
 2.0410	 6.2770
 2.0420	 6.3060
 2.0430	 6.3230
 2.0440	 6.3330
 2.0450	 6.3330
 2.0460	 6.3420
 2.0470	 6.3460
 2.0480	 6.3530
 2.0490	 6.3600
 2.0500	 6.3770
 2.0510	 6.3980
 2.0520	 6.4150
 2.0530	 6.4410
 2.0540	 6.4620
 2.0550	 6.4710
 2.0560	 6.4830
 2.0570	 6.5220
 2.0580	 6.5490
 2.0590	 6.5710
 2.0600	 6.5970
 2.0610	 6.6130
 2.0620	 6.6140
 2.0630	 6.6240
 2.0640	 6.6340
 2.0650	 6.6510
 2.0660	 6.6740
 2.0670	 6.6910
 2.0680	 6.7110
 2.0690	 6.7290
 2.0700	 6.7350
 2.0710	 6.7500
 2.0720	 6.7750
 2.0730	 6.7960
 2.0740	 6.8130
 2.0750	 6.8330
 2.0760	 6.8440
 2.0770	 6.8410
 2.0780	 6.8560
 2.0790	 6.8730
 2.0800	 6.8950
 2.0810	 6.9310
 2.0820	 6.9580
 2.0830	 6.9830
 2.0840	 7.0070
 2.0850	 7.0320
 2.0860	 7.0520
 2.0870	 7.0620
 2.0880	 7.0770
 2.0890	 7.0940
 2.0900	 7.1070
 2.0910	 7.1260
 2.0920	 7.1560
 2.0930	 7.1720
 2.0940	 7.1790
 2.0950	 7.1940
 2.0960	 7.2050
 2.0970	 7.2220
 2.0980	 7.2460
 2.0990	 7.2700
 2.1000	 7.2980
 2.1010	 7.3210
 2.1020	 7.3490
 2.1030	 7.3710
 2.1040	 7.3840
 2.1050	 7.4030
 2.1060	 7.4180
 2.1070	 7.4300
 2.1080	 7.4470
 2.1090	 7.4630
 2.1100	 7.4790
 2.1110	 7.4950
 2.1120	 7.5150
 2.1130	 7.5350
 2.1140	 7.5580
 2.1150	 7.5880
 2.1160	 7.6140
 2.1170	 7.6350
 2.1180	 7.6620
 2.1190	 7.7000
 2.1200	 7.7240
 2.1210	 7.7400
 2.1220	 7.7610
 2.1230	 7.7800
 2.1240	 7.7890
 2.1250	 7.8080
 2.1260	 7.8390
 2.1270	 7.8600
 2.1280	 7.8770
 2.1290	 7.8910
 2.1300	 7.8920
 2.1310	 7.9150
 2.1320	 7.9490
 2.1330	 7.9740
 2.1340	 8.0140
 2.1350	 8.0390
 2.1360	 8.0450
 2.1370	 8.0580
 2.1380	 8.0700
 2.1390	 8.0830
 2.1400	 8.1010
 2.1410	 8.1150
 2.1420	 8.1250
 2.1430	 8.1360
 2.1440	 8.1450
 2.1450	 8.1520
 2.1460	 8.1550
 2.1470	 8.1470
 2.1480	 8.1620
 2.1490	 8.1870
 2.1500	 8.2020
 2.1510	 8.2290
 2.1520	 8.2520
 2.1530	 8.2710
 2.1540	 8.2790
 2.1550	 8.2820
 2.1560	 8.2920
 2.1570	 8.2770
 2.1580	 8.2850
 2.1590	 8.3250
 2.1600	 8.3560
 2.1610	 8.3610
 2.1620	 8.3730
 2.1630	 8.3800
 2.1640	 8.3690
 2.1650	 8.3690
 2.1660	 8.3780
 2.1670	 8.3820
 2.1680	 8.3690
 2.1690	 8.3850
 2.1700	 8.4250
 2.1710	 8.4430
 2.1720	 8.4750
 2.1730	 8.4820
 2.1740	 8.4520
 2.1750	 8.4460
 2.1760	 8.4350
 2.1770	 8.4380
 2.1780	 8.4650
 2.1790	 8.4790
 2.1800	 8.4920
 2.1810	 8.5050
 2.1820	 8.5170
 2.1830	 8.5200
 2.1840	 8.5240
 2.1850	 8.5250
 2.1860	 8.5350
 2.1870	 8.5460
 2.1880	 8.5550
 2.1890	 8.5720
 2.1900	 8.5820
 2.1910	 8.5880
 2.1920	 8.5870
 2.1930	 8.5820
 2.1940	 8.5820
 2.1950	 8.5740
 2.1960	 8.5730
 2.1970	 8.5770
 2.1980	 8.5870
 2.1990	 8.6160
 2.2000	 8.6200
 2.2010	 8.6130
 2.2020	 8.6150
 2.2030	 8.5970
 2.2040	 8.5920
 2.2050	 8.5990
 2.2060	 8.6230
 2.2070	 8.6290
 2.2080	 8.6300
 2.2090	 8.6340
 2.2100	 8.6390
 2.2110	 8.6350
 2.2120	 8.6230
 2.2130	 8.6220
 2.2140	 8.6190
 2.2150	 8.6190
 2.2160	 8.6330
 2.2170	 8.6360
 2.2180	 8.6290
 2.2190	 8.6250
 2.2200	 8.6150
 2.2210	 8.6130
 2.2220	 8.6180
 2.2230	 8.6170
 2.2240	 8.6280
 2.2250	 8.6240
 2.2260	 8.6090
 2.2270	 8.5930
 2.2280	 8.5690
 2.2290	 8.5450
 2.2300	 8.5120
 2.2310	 8.4870
 2.2320	 8.4710
 2.2330	 8.4740
 2.2340	 8.4680
 2.2350	 8.4710
 2.2360	 8.4720
 2.2370	 8.4710
 2.2380	 8.4640
 2.2390	 8.4610
 2.2400	 8.4560
 2.2410	 8.4370
 2.2420	 8.4290
 2.2430	 8.4320
 2.2440	 8.4300
 2.2450	 8.4320
 2.2460	 8.4260
 2.2470	 8.4100
 2.2480	 8.4050
 2.2490	 8.4010
 2.2500	 8.3910
 2.2510	 8.3920
 2.2520	 8.3790
 2.2530	 8.3490
 2.2540	 8.3250
 2.2550	 8.2900
 2.2560	 8.2710
 2.2570	 8.2700
 2.2580	 8.2530
 2.2590	 8.2470
 2.2600	 8.2270
 2.2610	 8.1830
 2.2620	 8.1490
 2.2630	 8.1110
 2.2640	 8.0710
 2.2650	 8.0440
 2.2660	 8.0330
 2.2670	 8.0110
 2.2680	 7.9970
 2.2690	 7.9750
 2.2700	 7.9310
 2.2710	 7.9250
 2.2720	 7.9510
 2.2730	 7.9410
 2.2740	 7.9310
 2.2750	 7.9170
 2.2760	 7.8830
 2.2770	 7.8440
 2.2780	 7.7990
 2.2790	 7.7740
 2.2800	 7.7340
 2.2810	 7.7160
 2.2820	 7.7410
 2.2830	 7.7330
 2.2840	 7.7230
 2.2850	 7.6910
 2.2860	 7.6250
 2.2870	 7.5870
 2.2880	 7.5430
 2.2890	 7.5110
 2.2900	 7.5080
 2.2910	 7.4900
 2.2920	 7.4630
 2.2930	 7.4360
 2.2940	 7.4040
 2.2950	 7.3830
 2.2960	 7.3720
 2.2970	 7.3490
 2.2980	 7.3320
 2.2990	 7.3020
 2.3000	 7.2630
 2.3010	 7.2290
 2.3020	 7.1850
 2.3030	 7.1610
 2.3040	 7.1420
 2.3050	 7.1310
 2.3060	 7.1340
 2.3070	 7.1210
 2.3080	 7.1000
 2.3090	 7.0810
 2.3100	 7.0660
 2.3110	 7.0490
 2.3120	 7.0380
 2.3130	 7.0320
 2.3140	 7.0310
 2.3150	 7.0360
 2.3160	 7.0420
 2.3170	 7.0460
 2.3180	 7.0630
 2.3190	 7.0920
 2.3200	 7.1050
 2.3210	 7.1230
 2.3220	 7.1350
 2.3230	 7.1320
 2.3240	 7.1280
 2.3250	 7.1330
 2.3260	 7.1290
 2.3270	 7.1130
 2.3280	 7.1000
 2.3290	 7.0850
 2.3300	 7.0710
 2.3310	 7.0530
 2.3320	 7.0380
 2.3330	 7.0310
 2.3340	 7.0130
 2.3350	 6.9960
 2.3360	 6.9710
 2.3370	 6.9350
 2.3380	 6.9050
 2.3390	 6.8610
 2.3400	 6.8360
 2.3410	 6.8200
 2.3420	 6.8090
 2.3430	 6.8290
 2.3440	 6.8140
 2.3450	 6.7870
 2.3460	 6.7580
 2.3470	 6.6970
 2.3480	 6.6590
 2.3490	 6.6200
 2.3500	 6.6140
 2.3510	 6.6600
 2.3520	 6.6670
 2.3530	 6.6900
 2.3540	 6.6740
 2.3550	 6.6440
 2.3560	 6.6010
 2.3570	 6.5980
 2.3580	 6.6040
 2.3590	 6.5710
 2.3600	 6.5550
 2.3610	 6.5400
 2.3620	 6.5370
 2.3630	 6.5770
 2.3640	 6.6270
 2.3650	 6.6270
 2.3660	 6.6310
 2.3670	 6.6180
 2.3680	 6.5660
 2.3690	 6.5590
 2.3700	 6.5480
 2.3710	 6.5240
 2.3720	 6.5020
 2.3730	 6.5080
 2.3740	 6.4980
 2.3750	 6.4810
 2.3760	 6.5200
 2.3770	 6.5120
 2.3780	 6.4570
 2.3790	 6.4150
 2.3800	 6.3840
 2.3810	 6.3650
 2.3820	 6.3740
 2.3830	 6.3910
 2.3840	 6.3680
 2.3850	 6.3320
 2.3860	 6.3070
 2.3870	 6.2920
 2.3880	 6.2720
 2.3890	 6.2230
 2.3900	 6.1880
 2.3910	 6.1530
 2.3920	 6.1180
 2.3930	 6.1450
 2.3940	 6.1820
 2.3950	 6.2180
 2.3960	 6.2560
 2.3970	 6.2280
 2.3980	 6.2010
 2.3990	 6.1950
 2.4000	 6.1660
 2.4010	 6.1770
 2.4020	 6.2080
 2.4030	 6.1640
 2.4040	 6.1410
 2.4050	 6.1520
 2.4060	 6.1370
 2.4070	 6.1770
 2.4080	 6.2200
 2.4090	 6.2550
 2.4100	 6.3020
 2.4110	 6.3200
 2.4120	 6.2700
 2.4130	 6.1510
 2.4140	 6.0360
 2.4150	 5.9870
 2.4160	 5.9690
 2.4170	 5.9330
 2.4180	 5.9530
 2.4190	 5.9700
 2.4200	 5.9800
 2.4210	 6.0380
 2.4220	 6.0680
 2.4230	 6.0270
 2.4240	 5.9490
 2.4250	 5.8810
 2.4260	 5.8720
 2.4270	 5.9070
 2.4280	 5.9340
 2.4290	 6.0420
 2.4300	 6.0780
 2.4310	 6.0130
 2.4320	 6.0570
 2.4330	 6.0500
 2.4340	 5.9620
 2.4350	 5.9200
 2.4360	 5.8540
 2.4370	 5.8110
 2.4380	 5.8590
 2.4390	 5.8940
 2.4400	 5.9140
 2.4410	 5.8880
 2.4420	 5.8530
 2.4430	 5.8740
 2.4440	 5.8720
 2.4450	 5.8380
 2.4460	 5.7720
 2.4470	 5.7600
 2.4480	 5.7370
 2.4490	 5.7020
 2.4500	 5.7650
 2.4510	 5.8000
 2.4520	 5.8130
 2.4530	 5.9040
 2.4540	 5.9850
 2.4550	 5.9070
 2.4560	 5.7780
 2.4570	 5.6780
 2.4580	 5.5740
 2.4590	 5.5840
 2.4600	 5.6480
 2.4610	 5.6820
 2.4620	 5.7370
 2.4630	 5.8020
 2.4640	 5.9200
 2.4650	 5.9220
 2.4660	 5.7480
 2.4670	 5.5880
 2.4680	 5.4670
 2.4690	 5.6120
 2.4700	 5.7160
 2.4710	 5.9150
 2.4720	 5.9480
 2.4730	 5.8860
 2.4740	 5.8850
 2.4750	 5.8210
 2.4760	 5.7950
 2.4770	 5.7790
 2.4780	 5.7510
 2.4790	 5.7360
 2.4800	 5.7140
 2.4810	 5.6340
 2.4820	 5.8240
 2.4830	 6.0030
 2.4840	 5.9880
 2.4850	 6.0760
 2.4860	 5.9490
 2.4870	 5.5680
 2.4880	 5.5480
 2.4890	 5.7600
 2.4900	 6.0230
 2.4910	 6.3590
 2.4920	 6.5760
 2.4930	 6.3420
 2.4940	 5.9900
 2.4950	 5.8480
 2.4960	 5.7280
 2.4970	 5.8520
 2.4980	 6.0090
 2.4990	 5.9950
 2.5000	 5.7330
