Name: Salvia leucophylla 2
Type: vegetation
Class: Shrub
Genus: Salvia
Species: leucophylla
Sample No.: VH189
Owner: UCSB
Wavelength Range: TIR
Origin: 34.698; -120.0477; WGS84
Collection Date: 6/9/2013
Description: Samples were collected as part of the HyspIRI Airborne Campaign. 48 individual plants were sampled in three times in 2013 - spring  summer  and fall. The name of the sample includes a 1  2  or 3 which references a different individual of the species. Samples were taken to JPL and processed within 48 hours of collection. The same leaves were processed in the Nicolet and then measured using the ASD.
Measurement: Hemispherical reflectance
First Column: X
Second Column: Y
X Units: Wavelength (micrometers)
Y Units: Reflectance (percentage)
First X Value: 2.501
Last X Value: 15.387
Number of X Values: 1737
Additional Information: vegetation.shrub.salvia.leucophylla.tir.vh189.ucsb.nicolet.ancillary.txt

 2.5010	18.4200
 2.5030	18.3360
 2.5040	18.2280
 2.5050	18.1550
 2.5060	18.2350
 2.5070	18.2860
 2.5090	18.3030
 2.5100	18.1020
 2.5110	18.1600
 2.5120	18.2040
 2.5140	18.2450
 2.5150	18.2630
 2.5160	18.2340
 2.5170	18.1520
 2.5180	18.1620
 2.5200	18.1420
 2.5210	18.1460
 2.5220	18.0820
 2.5230	18.1760
 2.5250	18.1740
 2.5260	18.1260
 2.5270	18.0790
 2.5280	18.1420
 2.5290	18.1230
 2.5310	18.1600
 2.5320	18.1900
 2.5330	18.2160
 2.5340	18.3480
 2.5360	18.4650
 2.5370	18.3010
 2.5380	18.1870
 2.5390	18.0940
 2.5410	18.1850
 2.5420	18.2290
 2.5430	18.2370
 2.5440	18.2320
 2.5460	18.3340
 2.5470	18.3260
 2.5480	18.3650
 2.5490	18.3410
 2.5510	18.3190
 2.5520	18.2670
 2.5530	18.3590
 2.5540	18.3320
 2.5560	18.4040
 2.5570	18.5710
 2.5580	18.6290
 2.5590	18.4750
 2.5610	18.5060
 2.5620	18.5590
 2.5630	18.6470
 2.5640	18.5960
 2.5660	18.4800
 2.5670	18.4400
 2.5680	18.5330
 2.5700	18.5850
 2.5710	18.6250
 2.5720	18.6220
 2.5730	18.7320
 2.5750	18.6110
 2.5760	18.5730
 2.5770	18.4880
 2.5790	18.5460
 2.5800	18.5890
 2.5810	18.5940
 2.5820	18.5030
 2.5840	18.4270
 2.5850	18.3670
 2.5860	18.5340
 2.5880	18.4300
 2.5890	18.3030
 2.5900	18.3540
 2.5910	18.5030
 2.5930	18.4840
 2.5940	18.2370
 2.5950	18.1690
 2.5970	18.3990
 2.5980	18.4470
 2.5990	18.3720
 2.6000	18.2910
 2.6020	18.2210
 2.6030	18.1140
 2.6040	18.1210
 2.6060	17.9380
 2.6070	17.9870
 2.6080	17.9770
 2.6100	17.9770
 2.6110	17.8770
 2.6120	17.9370
 2.6140	17.8690
 2.6150	17.7660
 2.6160	17.5930
 2.6180	17.4450
 2.6190	17.3310
 2.6200	17.3310
 2.6220	17.2240
 2.6230	17.3050
 2.6240	17.2900
 2.6260	17.1810
 2.6270	17.0830
 2.6280	17.0680
 2.6300	17.0450
 2.6310	17.1650
 2.6320	17.1940
 2.6340	17.0750
 2.6350	16.9530
 2.6360	16.8610
 2.6380	16.6320
 2.6390	16.6140
 2.6400	16.5340
 2.6420	16.4360
 2.6430	16.3000
 2.6440	16.2410
 2.6460	16.1620
 2.6470	16.2270
 2.6480	16.1230
 2.6500	16.0280
 2.6510	15.8020
 2.6520	15.6070
 2.6540	15.5830
 2.6550	15.6550
 2.6560	15.5500
 2.6580	15.5400
 2.6590	15.4580
 2.6610	15.2550
 2.6620	15.1470
 2.6630	15.1670
 2.6650	15.0910
 2.6660	15.0540
 2.6670	14.8650
 2.6690	14.7100
 2.6700	14.6190
 2.6720	14.5730
 2.6730	14.5050
 2.6740	14.5140
 2.6760	14.3060
 2.6770	14.0780
 2.6780	13.9060
 2.6800	13.8130
 2.6810	13.7090
 2.6830	13.6680
 2.6840	13.5410
 2.6850	13.4460
 2.6870	13.3090
 2.6880	13.1880
 2.6900	13.0510
 2.6910	12.8780
 2.6920	12.5890
 2.6940	12.4160
 2.6950	12.2310
 2.6970	12.1800
 2.6980	12.0170
 2.6990	11.8700
 2.7010	11.6190
 2.7020	11.4870
 2.7040	11.3340
 2.7050	11.2380
 2.7060	11.0670
 2.7080	10.9220
 2.7090	10.6820
 2.7110	10.5730
 2.7120	10.5250
 2.7130	10.5120
 2.7150	10.4330
 2.7160	10.3430
 2.7180	10.1490
 2.7190	10.0320
 2.7210	 9.7760
 2.7220	 9.5730
 2.7230	 9.4210
 2.7250	 9.3680
 2.7260	 9.3550
 2.7280	 9.1050
 2.7290	 8.6870
 2.7310	 8.7540
 2.7320	 8.6780
 2.7330	 8.4990
 2.7350	 8.3780
 2.7360	 8.4390
 2.7380	 8.4340
 2.7390	 8.2380
 2.7410	 7.8660
 2.7420	 7.7560
 2.7440	 7.7860
 2.7450	 7.7990
 2.7470	 7.7720
 2.7480	 7.8260
 2.7490	 7.6560
 2.7510	 7.5370
 2.7520	 7.1270
 2.7540	 6.9810
 2.7550	 7.0100
 2.7570	 6.9880
 2.7580	 6.9640
 2.7600	 6.9000
 2.7610	 6.7260
 2.7630	 6.7120
 2.7640	 6.3970
 2.7660	 6.2940
 2.7670	 6.3140
 2.7680	 6.2280
 2.7700	 6.1530
 2.7710	 6.1770
 2.7730	 6.2100
 2.7740	 6.1230
 2.7760	 5.9980
 2.7770	 5.9750
 2.7790	 5.9420
 2.7800	 6.1040
 2.7820	 5.8420
 2.7830	 5.5390
 2.7850	 5.5590
 2.7860	 5.6600
 2.7880	 5.4890
 2.7890	 5.3460
 2.7910	 5.2950
 2.7920	 5.2820
 2.7940	 5.1280
 2.7950	 5.0780
 2.7970	 5.1050
 2.7980	 5.0650
 2.8000	 4.9550
 2.8010	 4.9840
 2.8030	 4.9690
 2.8040	 4.8840
 2.8060	 4.7560
 2.8070	 4.8370
 2.8090	 4.8480
 2.8110	 4.8380
 2.8120	 4.8050
 2.8140	 4.6440
 2.8150	 4.3660
 2.8170	 4.4590
 2.8180	 4.4830
 2.8200	 4.4690
 2.8210	 4.5220
 2.8230	 4.4310
 2.8240	 4.2320
 2.8260	 4.1860
 2.8270	 4.1570
 2.8290	 4.3990
 2.8300	 4.4170
 2.8320	 4.3380
 2.8340	 4.1390
 2.8350	 3.9900
 2.8370	 4.0360
 2.8380	 4.0940
 2.8400	 3.9370
 2.8410	 3.9570
 2.8430	 3.8430
 2.8440	 3.8630
 2.8460	 3.8050
 2.8480	 3.8470
 2.8490	 3.7860
 2.8510	 3.7520
 2.8520	 3.6500
 2.8540	 3.7470
 2.8550	 3.7930
 2.8570	 3.8430
 2.8590	 3.8130
 2.8600	 3.7600
 2.8620	 3.5540
 2.8630	 3.5020
 2.8650	 3.4870
 2.8660	 3.6280
 2.8680	 3.6390
 2.8700	 3.5550
 2.8710	 3.3910
 2.8730	 3.3760
 2.8740	 3.4830
 2.8760	 3.5740
 2.8780	 3.5480
 2.8790	 3.6430
 2.8810	 3.7180
 2.8820	 3.7610
 2.8840	 3.4620
 2.8860	 3.3560
 2.8870	 3.5190
 2.8890	 3.4580
 2.8900	 3.2460
 2.8920	 3.3880
 2.8940	 3.5130
 2.8950	 3.4240
 2.8970	 3.1680
 2.8980	 3.1160
 2.9000	 3.1270
 2.9020	 3.2540
 2.9030	 3.1730
 2.9050	 3.2070
 2.9070	 3.1750
 2.9080	 3.2060
 2.9100	 3.1020
 2.9120	 3.2330
 2.9130	 3.2200
 2.9150	 3.3180
 2.9160	 3.2690
 2.9180	 3.2750
 2.9200	 3.2400
 2.9210	 3.2240
 2.9230	 3.1420
 2.9250	 3.2210
 2.9260	 3.3120
 2.9280	 3.3940
 2.9300	 3.1600
 2.9310	 3.0980
 2.9330	 2.9370
 2.9350	 3.0330
 2.9360	 3.0800
 2.9380	 3.1640
 2.9400	 3.0370
 2.9410	 2.9580
 2.9430	 2.9610
 2.9450	 3.1890
 2.9460	 3.0730
 2.9480	 3.0020
 2.9500	 3.0400
 2.9510	 3.2920
 2.9530	 2.8950
 2.9550	 2.7490
 2.9560	 2.8230
 2.9580	 2.8920
 2.9600	 2.7080
 2.9610	 2.9230
 2.9630	 3.4510
 2.9650	 3.9680
 2.9660	 3.2910
 2.9680	 2.5010
 2.9700	 2.5130
 2.9720	 2.5990
 2.9730	 2.5820
 2.9750	 3.2460
 2.9770	 3.0350
 2.9780	 3.0690
 2.9800	 4.2890
 2.9820	 3.2800
 2.9840	 2.2800
 2.9850	 2.4410
 2.9870	 2.3410
 2.9890	 2.9390
 2.9900	 1.8500
 2.9920	 2.1930
 2.9940	 2.4990
 2.9960	 2.8780
 2.9970	 2.6280
 2.9990	 3.0270
 3.0010	 4.5050
 3.0030	 4.2260
 3.0040	 3.4760
 3.0060	 3.2620
 3.0080	 3.2890
 3.0100	 3.2750
 3.0110	 3.4980
 3.0130	 3.5670
 3.0150	 3.6040
 3.0170	 3.8730
 3.0180	 3.3570
 3.0200	 2.7090
 3.0220	 2.7570
 3.0240	 3.5010
 3.0250	 3.6690
 3.0270	 3.5990
 3.0290	 3.5190
 3.0310	 3.7170
 3.0320	 3.6240
 3.0340	 2.6640
 3.0360	 2.4830
 3.0380	 3.6760
 3.0400	 3.6430
 3.0410	 2.3060
 3.0430	 1.6440
 3.0450	 2.6010
 3.0470	 2.4630
 3.0480	 1.6860
 3.0500	 2.6980
 3.0520	 2.7980
 3.0540	 2.7410
 3.0560	 2.9210
 3.0570	 2.1300
 3.0590	 2.3140
 3.0610	 3.3200
 3.0630	 2.9540
 3.0650	 3.5500
 3.0660	 4.4630
 3.0680	 4.3700
 3.0700	 4.0820
 3.0720	 3.9330
 3.0740	 4.1550
 3.0760	 4.0010
 3.0770	 3.9940
 3.0790	 3.9820
 3.0810	 4.0900
 3.0830	 4.0700
 3.0850	 4.1440
 3.0870	 4.3570
 3.0880	 4.5650
 3.0900	 4.4820
 3.0920	 4.4700
 3.0940	 4.2950
 3.0960	 4.3560
 3.0980	 4.3330
 3.0990	 4.3420
 3.1010	 4.2010
 3.1030	 4.0340
 3.1050	 4.1880
 3.1070	 4.4500
 3.1090	 4.6160
 3.1110	 4.4800
 3.1120	 4.3620
 3.1140	 4.2590
 3.1160	 4.2250
 3.1180	 4.3030
 3.1200	 3.9810
 3.1220	 3.8710
 3.1240	 4.0530
 3.1260	 4.2780
 3.1270	 4.1390
 3.1290	 4.1570
 3.1310	 4.1420
 3.1330	 4.3390
 3.1350	 4.0280
 3.1370	 3.7850
 3.1390	 4.0810
 3.1410	 3.8300
 3.1430	 3.6660
 3.1450	 4.1820
 3.1460	 4.7580
 3.1480	 5.3130
 3.1500	 5.0610
 3.1520	 4.5060
 3.1540	 4.7200
 3.1560	 5.2590
 3.1580	 4.6920
 3.1600	 4.7400
 3.1620	 5.3480
 3.1640	 5.2730
 3.1660	 5.1470
 3.1680	 5.0540
 3.1700	 4.5050
 3.1710	 3.7570
 3.1730	 3.6720
 3.1750	 5.2730
 3.1770	 5.6910
 3.1790	 3.8220
 3.1810	 3.4570
 3.1830	 4.4370
 3.1850	 4.5880
 3.1870	 4.7170
 3.1890	 5.0540
 3.1910	 5.2930
 3.1930	 5.3300
 3.1950	 5.2500
 3.1970	 5.1390
 3.1990	 5.1030
 3.2010	 5.0480
 3.2030	 5.2040
 3.2050	 5.3690
 3.2070	 5.3480
 3.2090	 5.3040
 3.2110	 5.3980
 3.2130	 5.2850
 3.2150	 5.4510
 3.2170	 5.5090
 3.2190	 5.3720
 3.2210	 5.3000
 3.2230	 5.2660
 3.2250	 5.1080
 3.2270	 5.0980
 3.2290	 5.4370
 3.2310	 5.6820
 3.2330	 5.4070
 3.2350	 5.2150
 3.2370	 5.2390
 3.2390	 5.4120
 3.2410	 5.4860
 3.2430	 5.6250
 3.2450	 5.6140
 3.2470	 5.5740
 3.2490	 5.4420
 3.2510	 5.4910
 3.2530	 5.3210
 3.2550	 5.1400
 3.2570	 5.0660
 3.2590	 5.3380
 3.2610	 5.5100
 3.2630	 5.4540
 3.2650	 5.5050
 3.2670	 5.6610
 3.2690	 5.7030
 3.2720	 5.5680
 3.2740	 5.6210
 3.2760	 5.6590
 3.2780	 5.5840
 3.2800	 5.6620
 3.2820	 5.5820
 3.2840	 5.4830
 3.2860	 5.5160
 3.2880	 5.5340
 3.2900	 5.5170
 3.2920	 5.5790
 3.2940	 5.6790
 3.2960	 5.8350
 3.2990	 5.9610
 3.3010	 5.8840
 3.3030	 5.5430
 3.3050	 5.3270
 3.3070	 5.3790
 3.3090	 5.2280
 3.3110	 5.1430
 3.3130	 5.3770
 3.3150	 5.5560
 3.3180	 5.5120
 3.3200	 5.3040
 3.3220	 5.1340
 3.3240	 5.0160
 3.3260	 5.1110
 3.3280	 5.0740
 3.3300	 4.9310
 3.3330	 4.7730
 3.3350	 4.7560
 3.3370	 4.4440
 3.3390	 4.2880
 3.3410	 4.1410
 3.3430	 4.1020
 3.3450	 4.2120
 3.3480	 4.1800
 3.3500	 3.9720
 3.3520	 3.7080
 3.3540	 3.5670
 3.3560	 3.6710
 3.3580	 3.7480
 3.3610	 3.8300
 3.3630	 3.8080
 3.3650	 3.8310
 3.3670	 3.5900
 3.3690	 3.3840
 3.3720	 3.3130
 3.3740	 3.3040
 3.3760	 3.2460
 3.3780	 3.1890
 3.3800	 3.0510
 3.3830	 3.1610
 3.3850	 3.1400
 3.3870	 2.9710
 3.3890	 2.6550
 3.3910	 2.4070
 3.3940	 2.5180
 3.3960	 2.6870
 3.3980	 2.6110
 3.4000	 2.4550
 3.4020	 2.3510
 3.4050	 2.4210
 3.4070	 2.4300
 3.4090	 2.4320
 3.4110	 2.5010
 3.4140	 2.5900
 3.4160	 2.5900
 3.4180	 2.7960
 3.4200	 2.9560
 3.4230	 3.0500
 3.4250	 3.0520
 3.4270	 3.1520
 3.4290	 3.3350
 3.4320	 3.4730
 3.4340	 3.4190
 3.4360	 3.4720
 3.4390	 3.5490
 3.4410	 3.6140
 3.4430	 3.6110
 3.4450	 3.5160
 3.4480	 3.4680
 3.4500	 3.5990
 3.4520	 3.6140
 3.4550	 3.6580
 3.4570	 3.6670
 3.4590	 3.9460
 3.4620	 4.0480
 3.4640	 4.0280
 3.4660	 3.9900
 3.4680	 4.1060
 3.4710	 4.0700
 3.4730	 4.0870
 3.4750	 4.0790
 3.4780	 4.1270
 3.4800	 4.0550
 3.4820	 4.0430
 3.4850	 4.0130
 3.4870	 3.9440
 3.4890	 3.8770
 3.4920	 3.7900
 3.4940	 3.6480
 3.4970	 3.5700
 3.4990	 3.5690
 3.5010	 3.6600
 3.5040	 3.6930
 3.5060	 3.7850
 3.5080	 3.8920
 3.5110	 4.1780
 3.5130	 4.4840
 3.5160	 4.7430
 3.5180	 4.9540
 3.5200	 5.1390
 3.5230	 5.3350
 3.5250	 5.6350
 3.5270	 5.7320
 3.5300	 5.8230
 3.5320	 5.9510
 3.5350	 6.0980
 3.5370	 6.2120
 3.5400	 6.2970
 3.5420	 6.3230
 3.5440	 6.4590
 3.5470	 6.5770
 3.5490	 6.5920
 3.5520	 6.6480
 3.5540	 6.7720
 3.5570	 6.7840
 3.5590	 6.8350
 3.5610	 6.8990
 3.5640	 6.9650
 3.5660	 7.0100
 3.5690	 7.0740
 3.5710	 7.1210
 3.5740	 7.1000
 3.5760	 7.0630
 3.5790	 7.1810
 3.5810	 7.2400
 3.5840	 7.3530
 3.5860	 7.5440
 3.5890	 7.6370
 3.5910	 7.4330
 3.5930	 7.3410
 3.5960	 7.4080
 3.5980	 7.6190
 3.6010	 7.7660
 3.6030	 7.7300
 3.6060	 7.6030
 3.6080	 7.6390
 3.6110	 7.6580
 3.6140	 7.6830
 3.6160	 7.7330
 3.6190	 7.7390
 3.6210	 7.6770
 3.6240	 7.6950
 3.6260	 7.6940
 3.6290	 7.7320
 3.6310	 7.8360
 3.6340	 7.8460
 3.6360	 7.8560
 3.6390	 7.8960
 3.6410	 7.8000
 3.6440	 7.8230
 3.6470	 7.8240
 3.6490	 7.8730
 3.6520	 7.9330
 3.6540	 7.9600
 3.6570	 7.9620
 3.6590	 7.9480
 3.6620	 7.9380
 3.6650	 8.0040
 3.6670	 7.9620
 3.6700	 7.9720
 3.6720	 8.0060
 3.6750	 8.0380
 3.6780	 7.9870
 3.6800	 7.9760
 3.6830	 8.0230
 3.6850	 8.1220
 3.6880	 8.0960
 3.6910	 8.1390
 3.6930	 8.0390
 3.6960	 7.9740
 3.6990	 7.9970
 3.7010	 8.0600
 3.7040	 8.0770
 3.7060	 8.1180
 3.7090	 8.1160
 3.7120	 8.0730
 3.7140	 8.0900
 3.7170	 8.2020
 3.7200	 8.2280
 3.7220	 8.2960
 3.7250	 8.3600
 3.7280	 8.3210
 3.7300	 8.2880
 3.7330	 8.3340
 3.7360	 8.3140
 3.7390	 8.3210
 3.7410	 8.3270
 3.7440	 8.3170
 3.7470	 8.1730
 3.7490	 8.1280
 3.7520	 8.1830
 3.7550	 8.3050
 3.7580	 8.2870
 3.7600	 8.2760
 3.7630	 8.3490
 3.7660	 8.4310
 3.7680	 8.4840
 3.7710	 8.6340
 3.7740	 8.5400
 3.7770	 8.4140
 3.7790	 8.4110
 3.7820	 8.4860
 3.7850	 8.4990
 3.7880	 8.4930
 3.7900	 8.4840
 3.7930	 8.5700
 3.7960	 8.6040
 3.7990	 8.5970
 3.8020	 8.6460
 3.8040	 8.7160
 3.8070	 8.6770
 3.8100	 8.6760
 3.8130	 8.6450
 3.8160	 8.6840
 3.8180	 8.7660
 3.8210	 8.8680
 3.8240	 8.9680
 3.8270	 9.0000
 3.8300	 8.9180
 3.8330	 8.9240
 3.8350	 8.9410
 3.8380	 8.9350
 3.8410	 8.8330
 3.8440	 8.8650
 3.8470	 8.8940
 3.8500	 9.0160
 3.8520	 9.1080
 3.8550	 9.2030
 3.8580	 9.1790
 3.8610	 9.1770
 3.8640	 9.1610
 3.8670	 9.1780
 3.8700	 9.1620
 3.8730	 9.1760
 3.8750	 9.2330
 3.8780	 9.2390
 3.8810	 9.2020
 3.8840	 9.2390
 3.8870	 9.3270
 3.8900	 9.4560
 3.8930	 9.5120
 3.8960	 9.4310
 3.8990	 9.3360
 3.9020	 9.4210
 3.9050	 9.4290
 3.9080	 9.4390
 3.9110	 9.4740
 3.9140	 9.5180
 3.9160	 9.5180
 3.9190	 9.5570
 3.9220	 9.6260
 3.9250	 9.6380
 3.9280	 9.6400
 3.9310	 9.6500
 3.9340	 9.6840
 3.9370	 9.7380
 3.9400	 9.7110
 3.9430	 9.7260
 3.9460	 9.7010
 3.9490	 9.7290
 3.9520	 9.7290
 3.9550	 9.7680
 3.9580	 9.8100
 3.9610	 9.8600
 3.9640	 9.9080
 3.9670	 9.9230
 3.9700	 9.9190
 3.9730	10.0030
 3.9770	10.0050
 3.9800	10.0530
 3.9830	10.0920
 3.9860	10.1130
 3.9890	10.1120
 3.9920	10.1690
 3.9950	10.1940
 3.9980	10.2370
 4.0010	10.2280
 4.0040	10.3170
 4.0070	10.3970
 4.0100	10.4040
 4.0130	10.4070
 4.0170	10.4850
 4.0200	10.5210
 4.0230	10.5500
 4.0260	10.5170
 4.0290	10.5480
 4.0320	10.5630
 4.0350	10.6050
 4.0380	10.6290
 4.0420	10.7110
 4.0450	10.7310
 4.0480	10.6970
 4.0510	10.7150
 4.0540	10.7400
 4.0570	10.7390
 4.0610	10.8390
 4.0640	10.8880
 4.0670	10.8730
 4.0700	10.8170
 4.0730	10.8380
 4.0770	10.9240
 4.0800	11.0020
 4.0830	10.9730
 4.0860	10.9630
 4.0890	11.0330
 4.0930	11.0650
 4.0960	11.0150
 4.0990	11.0250
 4.1020	11.0720
 4.1060	11.1380
 4.1090	11.1340
 4.1120	11.2320
 4.1150	11.2410
 4.1190	11.1500
 4.1220	11.2040
 4.1250	11.2980
 4.1280	11.2730
 4.1320	11.2510
 4.1350	11.2860
 4.1380	11.3170
 4.1420	11.3250
 4.1450	11.3300
 4.1480	11.3570
 4.1520	11.3490
 4.1550	11.3390
 4.1580	11.3130
 4.1620	11.3120
 4.1650	11.3380
 4.1680	11.3590
 4.1720	11.3920
 4.1750	11.4170
 4.1780	11.3700
 4.1820	11.2770
 4.1850	11.3490
 4.1890	11.4210
 4.1920	11.4570
 4.1950	11.4240
 4.1990	11.3420
 4.2020	11.2190
 4.2060	11.2310
 4.2090	11.2630
 4.2120	11.2940
 4.2160	11.1510
 4.2190	11.0960
 4.2230	11.3730
 4.2260	11.3220
 4.2300	10.8820
 4.2330	11.0040
 4.2360	11.1280
 4.2400	11.0700
 4.2430	11.0430
 4.2470	11.2420
 4.2500	11.3040
 4.2540	11.2120
 4.2570	11.1260
 4.2610	11.1190
 4.2640	11.0820
 4.2680	11.2450
 4.2710	11.2220
 4.2750	11.1670
 4.2780	11.2940
 4.2820	11.1830
 4.2850	11.0820
 4.2890	11.1910
 4.2930	11.2250
 4.2960	11.2740
 4.3000	11.2310
 4.3030	11.1770
 4.3070	11.2440
 4.3100	11.2950
 4.3140	11.1760
 4.3180	11.1880
 4.3210	11.2440
 4.3250	11.3000
 4.3280	11.2560
 4.3320	11.2250
 4.3360	11.2880
 4.3390	11.3350
 4.3430	11.3600
 4.3470	11.3390
 4.3500	11.2720
 4.3540	11.2960
 4.3570	11.3150
 4.3610	11.3400
 4.3650	11.3680
 4.3680	11.3640
 4.3720	11.2960
 4.3760	11.2790
 4.3800	11.2780
 4.3830	11.3030
 4.3870	11.3370
 4.3910	11.3550
 4.3940	11.3120
 4.3980	11.3240
 4.4020	11.2330
 4.4060	11.1480
 4.4090	11.2180
 4.4130	11.2660
 4.4170	11.2030
 4.4210	11.0890
 4.4240	11.1210
 4.4280	11.1890
 4.4320	11.1880
 4.4360	11.1660
 4.4400	11.1630
 4.4430	11.1590
 4.4470	11.1460
 4.4510	11.2040
 4.4550	11.2020
 4.4590	11.1410
 4.4620	11.1220
 4.4660	11.1240
 4.4700	11.0810
 4.4740	11.0770
 4.4780	11.0820
 4.4820	11.1240
 4.4860	11.1110
 4.4900	11.0310
 4.4930	11.0440
 4.4970	11.0460
 4.5010	11.0350
 4.5050	11.0070
 4.5090	10.9640
 4.5130	10.9800
 4.5170	10.9930
 4.5210	11.0000
 4.5250	11.0110
 4.5290	11.0260
 4.5330	11.0250
 4.5370	10.9890
 4.5410	10.9450
 4.5450	10.8770
 4.5490	10.8590
 4.5530	10.8510
 4.5570	10.7820
 4.5610	10.8170
 4.5650	10.8600
 4.5690	10.8880
 4.5730	10.8170
 4.5770	10.8000
 4.5810	10.8210
 4.5850	10.8010
 4.5890	10.7500
 4.5930	10.7810
 4.5970	10.8010
 4.6010	10.7920
 4.6050	10.7110
 4.6090	10.5710
 4.6130	10.5930
 4.6170	10.7180
 4.6220	10.6910
 4.6260	10.6480
 4.6300	10.5860
 4.6340	10.6160
 4.6380	10.6350
 4.6420	10.5750
 4.6460	10.6580
 4.6510	10.7310
 4.6550	10.7240
 4.6590	10.7510
 4.6630	10.8190
 4.6670	10.8700
 4.6720	10.8480
 4.6760	10.7770
 4.6800	10.7250
 4.6840	10.7480
 4.6880	10.8360
 4.6930	10.8100
 4.6970	10.7530
 4.7010	10.7240
 4.7050	10.7190
 4.7100	10.8160
 4.7140	10.8840
 4.7180	10.8030
 4.7230	10.7390
 4.7270	10.7180
 4.7310	10.7300
 4.7360	10.7370
 4.7400	10.7470
 4.7440	10.7530
 4.7490	10.7820
 4.7530	10.8220
 4.7570	10.8100
 4.7620	10.7680
 4.7660	10.7730
 4.7700	10.8740
 4.7750	10.9240
 4.7790	10.8170
 4.7840	10.6730
 4.7880	10.6580
 4.7920	10.8370
 4.7970	10.9500
 4.8010	10.9050
 4.8060	10.8310
 4.8100	10.8910
 4.8150	10.9230
 4.8190	10.9460
 4.8240	10.9930
 4.8280	10.9640
 4.8330	10.9340
 4.8370	10.9680
 4.8420	10.9980
 4.8460	10.9930
 4.8510	10.9410
 4.8550	10.9370
 4.8600	11.0030
 4.8640	11.0140
 4.8690	11.0110
 4.8730	11.0070
 4.8780	11.0040
 4.8830	10.9940
 4.8870	11.0200
 4.8920	11.0200
 4.8960	10.9740
 4.9010	11.0260
 4.9060	11.0820
 4.9100	11.1000
 4.9150	11.0280
 4.9200	11.0070
 4.9240	11.0860
 4.9290	11.1450
 4.9340	11.1520
 4.9380	11.1540
 4.9430	11.1090
 4.9480	11.1060
 4.9530	11.1910
 4.9570	11.2610
 4.9620	11.2460
 4.9670	11.2830
 4.9720	11.3430
 4.9760	11.3880
 4.9810	11.3540
 4.9860	11.3180
 4.9910	11.3180
 4.9960	11.3120
 5.0000	11.3270
 5.0050	11.3290
 5.0100	11.3070
 5.0150	11.3870
 5.0200	11.4260
 5.0250	11.4140
 5.0290	11.4540
 5.0340	11.4760
 5.0390	11.4710
 5.0440	11.4730
 5.0490	11.4360
 5.0540	11.4590
 5.0590	11.5050
 5.0640	11.5550
 5.0690	11.5540
 5.0740	11.6060
 5.0790	11.6250
 5.0840	11.6290
 5.0890	11.5820
 5.0940	11.5470
 5.0990	11.5180
 5.1040	11.5900
 5.1090	11.6570
 5.1140	11.6380
 5.1190	11.6430
 5.1240	11.6570
 5.1290	11.6020
 5.1340	11.6420
 5.1390	11.6270
 5.1440	11.6350
 5.1490	11.6380
 5.1540	11.6400
 5.1600	11.6800
 5.1650	11.6740
 5.1700	11.6620
 5.1750	11.7010
 5.1800	11.7250
 5.1850	11.7330
 5.1910	11.6900
 5.1960	11.6960
 5.2010	11.7430
 5.2060	11.7180
 5.2110	11.6320
 5.2170	11.6670
 5.2220	11.6890
 5.2270	11.6670
 5.2320	11.5950
 5.2380	11.5810
 5.2430	11.5740
 5.2480	11.5360
 5.2540	11.5110
 5.2590	11.5240
 5.2640	11.5210
 5.2700	11.5390
 5.2750	11.5700
 5.2800	11.5800
 5.2860	11.5220
 5.2910	11.4820
 5.2970	11.3930
 5.3020	11.3960
 5.3070	11.3660
 5.3130	11.3550
 5.3180	11.3580
 5.3240	11.3230
 5.3290	11.2900
 5.3350	11.3190
 5.3400	11.2790
 5.3460	11.2360
 5.3510	11.2520
 5.3570	11.2370
 5.3620	11.2040
 5.3680	11.2230
 5.3730	11.1740
 5.3790	11.1280
 5.3850	11.1350
 5.3900	11.1500
 5.3960	11.0900
 5.4010	11.0630
 5.4070	11.0680
 5.4130	11.0760
 5.4180	11.0310
 5.4240	11.0010
 5.4300	10.9080
 5.4350	10.8600
 5.4410	10.8020
 5.4470	10.8080
 5.4530	10.7910
 5.4580	10.7410
 5.4640	10.6270
 5.4700	10.5450
 5.4760	10.4440
 5.4810	10.3400
 5.4870	10.2730
 5.4930	10.2620
 5.4990	10.2100
 5.5050	10.1650
 5.5110	10.0650
 5.5160	 9.9150
 5.5220	 9.8150
 5.5280	 9.7690
 5.5340	 9.5770
 5.5400	 9.4400
 5.5460	 9.3610
 5.5520	 9.3010
 5.5580	 9.1320
 5.5640	 8.9840
 5.5700	 8.8040
 5.5760	 8.6200
 5.5820	 8.4850
 5.5880	 8.3600
 5.5940	 8.1830
 5.6000	 8.0660
 5.6060	 7.8820
 5.6120	 7.6780
 5.6180	 7.4680
 5.6240	 7.3630
 5.6300	 7.1850
 5.6360	 6.9780
 5.6420	 6.8020
 5.6490	 6.6110
 5.6550	 6.3800
 5.6610	 6.2270
 5.6670	 6.0420
 5.6730	 5.8130
 5.6800	 5.5340
 5.6860	 5.2850
 5.6920	 5.0130
 5.6980	 4.7810
 5.7040	 4.4960
 5.7110	 4.2140
 5.7170	 3.8790
 5.7230	 3.6460
 5.7300	 3.3930
 5.7360	 3.1930
 5.7420	 3.0340
 5.7490	 2.9500
 5.7550	 2.8420
 5.7620	 2.8870
 5.7680	 2.9590
 5.7740	 3.0750
 5.7810	 3.1400
 5.7870	 3.2850
 5.7940	 3.3580
 5.8000	 3.4030
 5.8070	 3.4580
 5.8130	 3.6190
 5.8200	 3.6510
 5.8260	 3.6750
 5.8330	 3.7400
 5.8390	 3.7970
 5.8460	 3.8020
 5.8530	 3.8570
 5.8590	 3.8720
 5.8660	 4.0010
 5.8720	 4.0370
 5.8790	 4.0080
 5.8860	 3.8950
 5.8920	 3.8630
 5.8990	 3.7550
 5.9060	 3.6600
 5.9130	 3.6100
 5.9190	 3.6580
 5.9260	 3.7190
 5.9330	 3.8950
 5.9400	 4.1390
 5.9470	 4.5000
 5.9530	 4.7740
 5.9600	 5.0160
 5.9670	 5.1900
 5.9740	 5.3880
 5.9810	 5.5040
 5.9880	 5.6280
 5.9950	 5.6500
 6.0020	 5.7080
 6.0090	 5.6290
 6.0160	 5.5920
 6.0230	 5.5350
 6.0300	 5.5070
 6.0370	 5.4100
 6.0440	 5.4260
 6.0510	 5.5410
 6.0580	 5.5650
 6.0650	 5.4940
 6.0720	 5.5210
 6.0790	 5.5080
 6.0860	 5.5210
 6.0930	 5.5080
 6.1000	 5.5780
 6.1080	 5.5830
 6.1150	 5.6390
 6.1220	 5.5760
 6.1290	 5.5850
 6.1370	 5.6720
 6.1440	 5.7150
 6.1510	 5.6810
 6.1580	 5.7400
 6.1660	 5.7030
 6.1730	 5.6940
 6.1800	 5.6060
 6.1880	 5.6420
 6.1950	 5.6430
 6.2030	 5.6820
 6.2100	 5.6540
 6.2170	 5.6160
 6.2250	 5.5270
 6.2320	 5.5930
 6.2400	 5.6830
 6.2470	 5.9110
 6.2550	 6.0550
 6.2630	 6.2540
 6.2700	 6.3770
 6.2780	 6.5180
 6.2850	 6.4520
 6.2930	 6.5850
 6.3010	 6.6860
 6.3080	 6.8650
 6.3160	 6.8830
 6.3240	 6.9100
 6.3310	 6.9500
 6.3390	 7.1020
 6.3470	 7.2140
 6.3550	 7.3450
 6.3620	 7.3270
 6.3700	 7.3690
 6.3780	 7.4770
 6.3860	 7.6030
 6.3940	 7.6080
 6.4020	 7.6860
 6.4100	 7.7340
 6.4180	 7.7710
 6.4260	 7.7090
 6.4330	 7.7650
 6.4410	 7.7980
 6.4490	 7.8950
 6.4580	 7.8140
 6.4660	 7.7640
 6.4740	 7.7210
 6.4820	 7.8090
 6.4900	 7.7980
 6.4980	 7.8920
 6.5060	 7.9690
 6.5140	 8.0190
 6.5230	 7.8810
 6.5310	 7.8810
 6.5390	 7.8740
 6.5470	 7.9080
 6.5550	 7.8890
 6.5640	 7.8910
 6.5720	 7.7430
 6.5800	 7.6660
 6.5890	 7.6260
 6.5970	 7.6480
 6.6060	 7.6370
 6.6140	 7.6910
 6.6220	 7.6560
 6.6310	 7.7540
 6.6390	 7.7510
 6.6480	 7.7430
 6.6560	 7.6550
 6.6650	 7.6250
 6.6740	 7.5520
 6.6820	 7.5670
 6.6910	 7.4470
 6.6990	 7.4200
 6.7080	 7.3110
 6.7170	 7.1230
 6.7260	 6.8350
 6.7340	 6.6330
 6.7430	 6.3690
 6.7520	 6.1390
 6.7610	 5.8770
 6.7690	 5.7380
 6.7780	 5.4120
 6.7870	 5.1250
 6.7960	 4.7830
 6.8050	 4.5800
 6.8140	 4.3480
 6.8230	 4.3250
 6.8320	 4.2470
 6.8410	 4.2860
 6.8500	 4.2940
 6.8590	 4.3140
 6.8680	 4.3230
 6.8770	 4.5140
 6.8860	 4.5450
 6.8950	 4.6090
 6.9050	 4.6730
 6.9140	 4.8000
 6.9230	 4.7740
 6.9320	 4.8090
 6.9420	 4.7690
 6.9510	 4.7690
 6.9600	 4.6480
 6.9700	 4.6800
 6.9790	 4.6690
 6.9880	 4.8010
 6.9980	 4.7350
 7.0070	 4.6640
 7.0170	 4.6290
 7.0260	 4.7340
 7.0360	 4.7450
 7.0450	 4.8240
 7.0550	 4.7880
 7.0650	 4.8640
 7.0740	 4.8940
 7.0840	 4.9940
 7.0940	 5.0010
 7.1030	 5.0780
 7.1130	 5.0010
 7.1230	 4.9930
 7.1330	 4.8640
 7.1420	 4.9440
 7.1520	 4.9490
 7.1620	 5.0550
 7.1720	 4.8990
 7.1820	 4.7500
 7.1920	 4.5070
 7.2020	 4.4000
 7.2120	 4.3580
 7.2220	 4.4700
 7.2320	 4.4690
 7.2420	 4.4970
 7.2520	 4.4060
 7.2620	 4.3420
 7.2730	 4.1630
 7.2830	 4.2960
 7.2930	 4.3280
 7.3030	 4.3490
 7.3140	 4.2780
 7.3240	 4.4180
 7.3340	 4.4720
 7.3450	 4.6260
 7.3550	 4.5520
 7.3660	 4.5550
 7.3760	 4.6640
 7.3870	 4.8180
 7.3970	 4.7090
 7.4080	 4.7990
 7.4180	 4.7700
 7.4290	 4.7690
 7.4400	 4.7290
 7.4500	 4.7630
 7.4610	 4.6380
 7.4720	 4.6020
 7.4830	 4.5100
 7.4930	 4.4800
 7.5040	 4.4020
 7.5150	 4.4810
 7.5260	 4.3890
 7.5370	 4.4260
 7.5480	 4.3720
 7.5590	 4.3400
 7.5700	 4.2150
 7.5810	 4.2670
 7.5920	 4.1830
 7.6030	 4.2280
 7.6140	 4.2630
 7.6260	 4.4690
 7.6370	 4.4620
 7.6480	 4.5290
 7.6590	 4.4720
 7.6710	 4.5470
 7.6820	 4.5480
 7.6930	 4.6280
 7.7050	 4.5180
 7.7160	 4.5160
 7.7280	 4.4040
 7.7390	 4.3870
 7.7510	 4.3010
 7.7630	 4.2870
 7.7740	 4.0930
 7.7860	 4.1450
 7.7980	 4.1030
 7.8090	 4.1480
 7.8210	 4.1560
 7.8330	 4.2580
 7.8450	 4.1210
 7.8570	 4.1810
 7.8690	 4.1720
 7.8810	 4.2030
 7.8930	 4.1220
 7.9050	 4.1910
 7.9170	 4.0790
 7.9290	 4.1550
 7.9410	 4.0610
 7.9530	 4.1440
 7.9650	 4.1310
 7.9780	 4.2470
 7.9900	 4.1430
 8.0020	 4.1630
 8.0150	 4.1560
 8.0270	 4.2860
 8.0390	 4.1710
 8.0520	 4.2030
 8.0640	 4.1270
 8.0770	 4.1680
 8.0900	 4.0450
 8.1020	 4.1150
 8.1150	 4.1570
 8.1280	 4.3290
 8.1400	 4.2630
 8.1530	 4.3970
 8.1660	 4.4040
 8.1790	 4.5730
 8.1920	 4.5630
 8.2050	 4.6810
 8.2180	 4.6440
 8.2310	 4.6610
 8.2440	 4.4950
 8.2570	 4.4340
 8.2700	 4.3550
 8.2830	 4.5680
 8.2970	 4.4450
 8.3100	 4.5430
 8.3230	 4.5170
 8.3370	 4.6400
 8.3500	 4.5920
 8.3640	 4.6170
 8.3770	 4.4230
 8.3910	 4.4850
 8.4040	 4.3110
 8.4180	 4.3370
 8.4320	 4.2060
 8.4450	 4.3280
 8.4590	 4.2030
 8.4730	 4.1670
 8.4870	 4.0430
 8.5010	 4.1110
 8.5150	 3.9410
 8.5290	 3.9970
 8.5430	 3.8480
 8.5570	 3.8800
 8.5710	 3.8190
 8.5850	 3.9630
 8.5990	 3.8380
 8.6140	 3.9050
 8.6280	 3.8240
 8.6420	 3.9680
 8.6570	 3.9490
 8.6710	 4.1010
 8.6860	 4.0750
 8.7000	 4.3270
 8.7150	 4.3440
 8.7300	 4.4250
 8.7440	 4.3030
 8.7590	 4.4540
 8.7740	 4.4630
 8.7890	 4.6630
 8.8040	 4.3930
 8.8190	 4.3430
 8.8340	 4.2010
 8.8490	 4.2550
 8.8640	 4.0860
 8.8790	 4.0630
 8.8940	 3.8810
 8.9100	 3.9530
 8.9250	 3.7970
 8.9400	 3.8090
 8.9560	 3.4450
 8.9710	 3.4800
 8.9870	 3.5250
 9.0020	 3.6860
 9.0180	 3.3250
 9.0340	 3.3000
 9.0500	 3.1570
 9.0650	 3.3130
 9.0810	 3.2310
 9.0970	 3.4630
 9.1130	 3.4480
 9.1290	 3.6130
 9.1450	 3.5560
 9.1610	 3.7210
 9.1780	 3.6050
 9.1940	 3.6630
 9.2100	 3.4970
 9.2270	 3.6170
 9.2430	 3.4230
 9.2600	 3.4240
 9.2760	 3.1310
 9.2930	 3.2140
 9.3090	 3.1160
 9.3260	 3.2670
 9.3430	 3.0270
 9.3600	 3.0040
 9.3770	 2.8420
 9.3940	 2.9730
 9.4110	 2.8640
 9.4280	 3.0100
 9.4450	 3.0600
 9.4620	 3.3030
 9.4800	 3.1590
 9.4970	 3.2800
 9.5140	 3.1460
 9.5320	 3.3750
 9.5500	 3.4350
 9.5670	 3.5110
 9.5850	 3.3410
 9.6030	 3.4750
 9.6200	 3.2820
 9.6380	 3.4550
 9.6560	 3.3590
 9.6740	 3.5020
 9.6920	 3.4070
 9.7100	 3.6980
 9.7290	 3.7760
 9.7470	 4.0680
 9.7650	 3.8610
 9.7840	 3.9680
 9.8020	 3.8960
 9.8210	 4.0760
 9.8390	 3.9390
 9.8580	 4.1840
 9.8770	 4.1850
 9.8960	 4.2790
 9.9150	 4.1630
 9.9340	 4.3490
 9.9530	 4.2840
 9.9720	 4.5020
 9.9910	 4.3970
10.0100	 4.5150
10.0300	 4.5560
10.0490	 4.8460
10.0690	 4.7510
10.0880	 4.9790
10.1080	 4.9730
10.1280	 5.2890
10.1480	 5.3430
10.1670	 5.6250
10.1870	 5.7220
10.2070	 5.8610
10.2280	 5.6370
10.2480	 5.7600
10.2680	 5.7160
10.2890	 5.8350
10.3090	 5.6310
10.3300	 5.7080
10.3500	 5.5780
10.3710	 5.7800
10.3920	 5.8020
10.4120	 5.9050
10.4330	 5.6990
10.4540	 5.8670
10.4760	 5.8990
10.4970	 6.0540
10.5180	 5.9330
10.5390	 6.1740
10.5610	 6.2620
10.5820	 6.4210
10.6040	 6.3820
10.6260	 6.5540
10.6480	 6.4160
10.6700	 6.6140
10.6920	 6.5970
10.7140	 6.7690
10.7360	 6.5390
10.7580	 6.5500
10.7800	 6.4820
10.8030	 6.7190
10.8250	 6.5840
10.8480	 6.6630
10.8710	 6.3290
10.8940	 6.4110
10.9170	 6.3000
10.9400	 6.3710
10.9630	 6.1760
10.9860	 6.3400
11.0090	 6.2240
11.0330	 6.4080
11.0560	 6.1660
11.0800	 6.2870
11.1040	 5.8680
11.1270	 5.8350
11.1510	 6.0340
11.1750	 6.2980
11.2000	 6.0070
11.2240	 6.1030
11.2480	 6.0220
11.2730	 6.2650
11.2970	 6.2240
11.3220	 6.3580
11.3470	 6.3500
11.3720	 6.6220
11.3970	 6.3490
11.4220	 6.3790
11.4470	 6.1970
11.4720	 6.4690
11.4980	 6.2380
11.5230	 6.3830
11.5490	 6.2260
11.5750	 6.3440
11.6000	 6.1810
11.6260	 6.2680
11.6530	 6.0670
11.6790	 6.2470
11.7050	 6.0600
11.7320	 6.3370
11.7580	 6.1740
11.7850	 6.1930
11.8120	 5.9010
11.8390	 6.0850
11.8660	 5.9010
11.8930	 5.9900
11.9200	 5.7300
11.9480	 5.8160
11.9760	 5.5800
12.0030	 5.6290
12.0310	 5.3300
12.0590	 5.4900
12.0870	 5.3080
12.1150	 5.4480
12.1440	 5.3730
12.1720	 5.5460
12.2010	 5.1750
12.2300	 5.3030
12.2590	 5.1370
12.2880	 5.4090
12.3170	 5.1090
12.3460	 5.1360
12.3760	 4.8700
12.4050	 5.0230
12.4350	 4.7510
12.4650	 4.8980
12.4950	 4.8670
12.5250	 5.1240
12.5550	 4.7790
12.5860	 4.8070
12.6170	 4.4900
12.6470	 4.7620
12.6780	 4.5310
12.7090	 4.5550
12.7410	 4.3300
12.7720	 4.5950
12.8030	 4.3830
12.8350	 4.4630
12.8670	 4.0950
12.8990	 4.3970
12.9310	 4.3930
12.9640	 4.4930
12.9960	 4.0040
13.0290	 4.1730
13.0610	 4.1120
13.0940	 4.2920
13.1280	 3.9580
13.1610	 4.3360
13.1940	 4.1400
13.2280	 4.3800
13.2620	 4.1590
13.2960	 4.3030
13.3300	 3.9280
13.3640	 4.1220
13.3990	 3.8690
13.4340	 4.1250
13.4690	 3.8770
13.5040	 4.1560
13.5390	 3.7090
13.5740	 3.9630
13.6100	 3.7010
13.6460	 3.8800
13.6820	 3.5580
13.7180	 3.9820
13.7540	 3.8900
13.7910	 3.9930
13.8280	 3.6340
13.8650	 3.8460
13.9020	 3.3940
13.9390	 3.6900
13.9770	 3.4550
14.0150	 3.7140
14.0530	 3.2790
14.0910	 3.6190
14.1290	 3.4480
14.1680	 4.0270
14.2070	 3.4930
14.2460	 3.6270
14.2850	 3.3240
14.3240	 3.6210
14.3640	 3.1150
14.4040	 3.5450
14.4440	 3.2930
14.4840	 3.7740
14.5250	 3.1440
14.5660	 3.3840
14.6070	 2.8200
14.6480	 3.0150
14.6900	 2.6430
14.7310	 3.1930
14.7730	 2.7650
14.8150	 3.2520
14.8580	 2.9860
14.9010	 3.6740
14.9440	 2.8980
14.9870	 3.5300
15.0300	 2.6330
15.0740	 3.1220
15.1180	 2.3400
15.1620	 2.8690
15.2060	 2.4300
15.2510	 3.1090
15.2960	 2.3000
15.3410	 2.7380
15.3870	 2.8570
