Name: Quercus suber
Type: vegetation
Class: Tree
Genus: Quercus
Species: suber
Sample No.: JPL249
Owner: JPL
Wavelength Range: VSWIR
Origin: 34.12831; -118.11379; WGS84
Collection Date: 10/6/2016
Description: Samples were collected at the Huntington Garden in San Marino California as part of a JPL Subcontract studying HyTES imagery. Samples were taken to JPL and processed within 48 hours of collection. The same leaves were processed in the Nicolet and then measured using the ASD.
Measurement: Bidirectional reflectance
First Column: X
Second Column: Y
X Units: Wavelength (micrometer)
Y Units: Reflectance (percentage)
First X Value: 0.35
Last X Value: 2.5
Number of X Values: 2151
Additional Information: vegetation.tree.quercus.suber.vswir.jpl249.jpl.asd.ancillary.txt

 0.3500	 6.2980
 0.3510	 6.1290
 0.3520	 5.9800
 0.3530	 5.9350
 0.3540	 5.9890
 0.3550	 5.9640
 0.3560	 5.9420
 0.3570	 5.9230
 0.3580	 5.8850
 0.3590	 5.9780
 0.3600	 6.0080
 0.3610	 5.9200
 0.3620	 5.8940
 0.3630	 5.8800
 0.3640	 5.8750
 0.3650	 5.8770
 0.3660	 5.8610
 0.3670	 5.8350
 0.3680	 5.8150
 0.3690	 5.8200
 0.3700	 5.8310
 0.3710	 5.8490
 0.3720	 5.8670
 0.3730	 5.8650
 0.3740	 5.8340
 0.3750	 5.7770
 0.3760	 5.7190
 0.3770	 5.7460
 0.3780	 5.7880
 0.3790	 5.8140
 0.3800	 5.8370
 0.3810	 5.8320
 0.3820	 5.8040
 0.3830	 5.7770
 0.3840	 5.8080
 0.3850	 5.7560
 0.3860	 5.7050
 0.3870	 5.7800
 0.3880	 5.8190
 0.3890	 5.8050
 0.3900	 5.7630
 0.3910	 5.7490
 0.3920	 5.7320
 0.3930	 5.7340
 0.3940	 5.7670
 0.3950	 5.8010
 0.3960	 5.8170
 0.3970	 5.8100
 0.3980	 5.7910
 0.3990	 5.8060
 0.4000	 5.8230
 0.4010	 5.8270
 0.4020	 5.8360
 0.4030	 5.8420
 0.4040	 5.8440
 0.4050	 5.8430
 0.4060	 5.8450
 0.4070	 5.8660
 0.4080	 5.8920
 0.4090	 5.8880
 0.4100	 5.8890
 0.4110	 5.8910
 0.4120	 5.8940
 0.4130	 5.9140
 0.4140	 5.9400
 0.4150	 5.9590
 0.4160	 5.9650
 0.4170	 5.9790
 0.4180	 5.9990
 0.4190	 6.0190
 0.4200	 6.0260
 0.4210	 6.0320
 0.4220	 6.0460
 0.4230	 6.0680
 0.4240	 6.0710
 0.4250	 6.0830
 0.4260	 6.1000
 0.4270	 6.1050
 0.4280	 6.1210
 0.4290	 6.1300
 0.4300	 6.1280
 0.4310	 6.1300
 0.4320	 6.1300
 0.4330	 6.1330
 0.4340	 6.1400
 0.4350	 6.1370
 0.4360	 6.1400
 0.4370	 6.1520
 0.4380	 6.1620
 0.4390	 6.1790
 0.4400	 6.1940
 0.4410	 6.2010
 0.4420	 6.2100
 0.4430	 6.2150
 0.4440	 6.2170
 0.4450	 6.2230
 0.4460	 6.2390
 0.4470	 6.2530
 0.4480	 6.2600
 0.4490	 6.2570
 0.4500	 6.2660
 0.4510	 6.2780
 0.4520	 6.2850
 0.4530	 6.2910
 0.4540	 6.2950
 0.4550	 6.3020
 0.4560	 6.3180
 0.4570	 6.3190
 0.4580	 6.3170
 0.4590	 6.3190
 0.4600	 6.3240
 0.4610	 6.3240
 0.4620	 6.3240
 0.4630	 6.3300
 0.4640	 6.3360
 0.4650	 6.3370
 0.4660	 6.3330
 0.4670	 6.3320
 0.4680	 6.3340
 0.4690	 6.3380
 0.4700	 6.3420
 0.4710	 6.3360
 0.4720	 6.3420
 0.4730	 6.3510
 0.4740	 6.3450
 0.4750	 6.3470
 0.4760	 6.3520
 0.4770	 6.3550
 0.4780	 6.3560
 0.4790	 6.3550
 0.4800	 6.3530
 0.4810	 6.3490
 0.4820	 6.3490
 0.4830	 6.3540
 0.4840	 6.3600
 0.4850	 6.3610
 0.4860	 6.3620
 0.4870	 6.3620
 0.4880	 6.3620
 0.4890	 6.3690
 0.4900	 6.3790
 0.4910	 6.3880
 0.4920	 6.3980
 0.4930	 6.4100
 0.4940	 6.4240
 0.4950	 6.4380
 0.4960	 6.4530
 0.4970	 6.4650
 0.4980	 6.4770
 0.4990	 6.4950
 0.5000	 6.5190
 0.5010	 6.5460
 0.5020	 6.5730
 0.5030	 6.6000
 0.5040	 6.6270
 0.5050	 6.6590
 0.5060	 6.7010
 0.5070	 6.7430
 0.5080	 6.7910
 0.5090	 6.8440
 0.5100	 6.8990
 0.5110	 6.9660
 0.5120	 7.0410
 0.5130	 7.1210
 0.5140	 7.2080
 0.5150	 7.3030
 0.5160	 7.4050
 0.5170	 7.5150
 0.5180	 7.6360
 0.5190	 7.7630
 0.5200	 7.8960
 0.5210	 8.0330
 0.5220	 8.1700
 0.5230	 8.3070
 0.5240	 8.4450
 0.5250	 8.5820
 0.5260	 8.7160
 0.5270	 8.8440
 0.5280	 8.9640
 0.5290	 9.0750
 0.5300	 9.1800
 0.5310	 9.2780
 0.5320	 9.3670
 0.5330	 9.4490
 0.5340	 9.5210
 0.5350	 9.5830
 0.5360	 9.6390
 0.5370	 9.6880
 0.5380	 9.7290
 0.5390	 9.7620
 0.5400	 9.7910
 0.5410	 9.8150
 0.5420	 9.8340
 0.5430	 9.8550
 0.5440	 9.8790
 0.5450	 9.9050
 0.5460	 9.9310
 0.5470	 9.9560
 0.5480	 9.9800
 0.5490	10.0010
 0.5500	10.0180
 0.5510	10.0270
 0.5520	10.0280
 0.5530	10.0230
 0.5540	10.0080
 0.5550	 9.9830
 0.5560	 9.9480
 0.5570	 9.9040
 0.5580	 9.8470
 0.5590	 9.7830
 0.5600	 9.7150
 0.5610	 9.6410
 0.5620	 9.5630
 0.5630	 9.4790
 0.5640	 9.3890
 0.5650	 9.3000
 0.5660	 9.2120
 0.5670	 9.1240
 0.5680	 9.0290
 0.5690	 8.9340
 0.5700	 8.8410
 0.5710	 8.7510
 0.5720	 8.6630
 0.5730	 8.5800
 0.5740	 8.5010
 0.5750	 8.4240
 0.5760	 8.3500
 0.5770	 8.2810
 0.5780	 8.2160
 0.5790	 8.1630
 0.5800	 8.1150
 0.5810	 8.0700
 0.5820	 8.0260
 0.5830	 7.9840
 0.5840	 7.9430
 0.5850	 7.9050
 0.5860	 7.8660
 0.5870	 7.8330
 0.5880	 7.8060
 0.5890	 7.7870
 0.5900	 7.7700
 0.5910	 7.7530
 0.5920	 7.7350
 0.5930	 7.7160
 0.5940	 7.7020
 0.5950	 7.6930
 0.5960	 7.6870
 0.5970	 7.6800
 0.5980	 7.6690
 0.5990	 7.6560
 0.6000	 7.6430
 0.6010	 7.6290
 0.6020	 7.6100
 0.6030	 7.5870
 0.6040	 7.5630
 0.6050	 7.5370
 0.6060	 7.5070
 0.6070	 7.4740
 0.6080	 7.4400
 0.6090	 7.4020
 0.6100	 7.3590
 0.6110	 7.3100
 0.6120	 7.2760
 0.6130	 7.2480
 0.6140	 7.2220
 0.6150	 7.1940
 0.6160	 7.1660
 0.6170	 7.1400
 0.6180	 7.1170
 0.6190	 7.0940
 0.6200	 7.0740
 0.6210	 7.0550
 0.6220	 7.0410
 0.6230	 7.0280
 0.6240	 7.0160
 0.6250	 7.0050
 0.6260	 7.0000
 0.6270	 6.9960
 0.6280	 6.9910
 0.6290	 6.9880
 0.6300	 6.9840
 0.6310	 6.9770
 0.6320	 6.9710
 0.6330	 6.9700
 0.6340	 6.9650
 0.6350	 6.9550
 0.6360	 6.9420
 0.6370	 6.9250
 0.6380	 6.9050
 0.6390	 6.8840
 0.6400	 6.8610
 0.6410	 6.8390
 0.6420	 6.8140
 0.6430	 6.7890
 0.6440	 6.7660
 0.6450	 6.7430
 0.6460	 6.7220
 0.6470	 6.7050
 0.6480	 6.6860
 0.6490	 6.6710
 0.6500	 6.6600
 0.6510	 6.6500
 0.6520	 6.6390
 0.6530	 6.6320
 0.6540	 6.6300
 0.6550	 6.6230
 0.6560	 6.6140
 0.6570	 6.6050
 0.6580	 6.5960
 0.6590	 6.5870
 0.6600	 6.5780
 0.6610	 6.5690
 0.6620	 6.5610
 0.6630	 6.5550
 0.6640	 6.5530
 0.6650	 6.5530
 0.6660	 6.5550
 0.6670	 6.5590
 0.6680	 6.5670
 0.6690	 6.5780
 0.6700	 6.5910
 0.6710	 6.6080
 0.6720	 6.6290
 0.6730	 6.6510
 0.6740	 6.6760
 0.6750	 6.7040
 0.6760	 6.7350
 0.6770	 6.7690
 0.6780	 6.8070
 0.6790	 6.8480
 0.6800	 6.8880
 0.6810	 6.9320
 0.6820	 6.9790
 0.6830	 7.0270
 0.6840	 7.0730
 0.6850	 7.1180
 0.6860	 7.1640
 0.6870	 7.2120
 0.6880	 7.2620
 0.6890	 7.3210
 0.6900	 7.3970
 0.6910	 7.4930
 0.6920	 7.6160
 0.6930	 7.7730
 0.6940	 7.9710
 0.6950	 8.2170
 0.6960	 8.5140
 0.6970	 8.8630
 0.6980	 9.2640
 0.6990	 9.7240
 0.7000	10.2320
 0.7010	10.7840
 0.7020	11.3790
 0.7030	12.0130
 0.7040	12.6790
 0.7050	13.3730
 0.7060	14.0890
 0.7070	14.8280
 0.7080	15.5850
 0.7090	16.3600
 0.7100	17.1540
 0.7110	17.9640
 0.7120	18.7900
 0.7130	19.6290
 0.7140	20.4830
 0.7150	21.3500
 0.7160	22.2270
 0.7170	23.1150
 0.7180	24.0090
 0.7190	24.9050
 0.7200	25.8030
 0.7210	26.6990
 0.7220	27.5930
 0.7230	28.4800
 0.7240	29.3540
 0.7250	30.2180
 0.7260	31.0650
 0.7270	31.8910
 0.7280	32.6940
 0.7290	33.4740
 0.7300	34.2320
 0.7310	34.9640
 0.7320	35.6670
 0.7330	36.3410
 0.7340	36.9840
 0.7350	37.5930
 0.7360	38.1740
 0.7370	38.7260
 0.7380	39.2490
 0.7390	39.7420
 0.7400	40.2060
 0.7410	40.6410
 0.7420	41.0460
 0.7430	41.4230
 0.7440	41.7720
 0.7450	42.0950
 0.7460	42.3940
 0.7470	42.6690
 0.7480	42.9180
 0.7490	43.1430
 0.7500	43.3540
 0.7510	43.5450
 0.7520	43.7160
 0.7530	43.8710
 0.7540	44.0110
 0.7550	44.1380
 0.7560	44.2530
 0.7570	44.3570
 0.7580	44.4500
 0.7590	44.5360
 0.7600	44.6150
 0.7610	44.6840
 0.7620	44.7460
 0.7630	44.8030
 0.7640	44.8510
 0.7650	44.8950
 0.7660	44.9330
 0.7670	44.9660
 0.7680	44.9950
 0.7690	45.0210
 0.7700	45.0450
 0.7710	45.0680
 0.7720	45.0890
 0.7730	45.1080
 0.7740	45.1260
 0.7750	45.1430
 0.7760	45.1570
 0.7770	45.1710
 0.7780	45.1850
 0.7790	45.1980
 0.7800	45.2110
 0.7810	45.2260
 0.7820	45.2400
 0.7830	45.2500
 0.7840	45.2600
 0.7850	45.2710
 0.7860	45.2810
 0.7870	45.2890
 0.7880	45.2980
 0.7890	45.3070
 0.7900	45.3140
 0.7910	45.3220
 0.7920	45.3310
 0.7930	45.3390
 0.7940	45.3440
 0.7950	45.3480
 0.7960	45.3520
 0.7970	45.3580
 0.7980	45.3590
 0.7990	45.3620
 0.8000	45.3650
 0.8010	45.3670
 0.8020	45.3690
 0.8030	45.3700
 0.8040	45.3700
 0.8050	45.3720
 0.8060	45.3730
 0.8070	45.3720
 0.8080	45.3700
 0.8090	45.3670
 0.8100	45.3640
 0.8110	45.3630
 0.8120	45.3630
 0.8130	45.3600
 0.8140	45.3550
 0.8150	45.3500
 0.8160	45.3440
 0.8170	45.3410
 0.8180	45.3400
 0.8190	45.3370
 0.8200	45.3330
 0.8210	45.3290
 0.8220	45.3230
 0.8230	45.3160
 0.8240	45.3120
 0.8250	45.3070
 0.8260	45.3010
 0.8270	45.2950
 0.8280	45.2920
 0.8290	45.2890
 0.8300	45.2850
 0.8310	45.2820
 0.8320	45.2790
 0.8330	45.2780
 0.8340	45.2760
 0.8350	45.2710
 0.8360	45.2690
 0.8370	45.2680
 0.8380	45.2680
 0.8390	45.2700
 0.8400	45.2690
 0.8410	45.2700
 0.8420	45.2730
 0.8430	45.2710
 0.8440	45.2710
 0.8450	45.2720
 0.8460	45.2740
 0.8470	45.2790
 0.8480	45.2810
 0.8490	45.2830
 0.8500	45.2880
 0.8510	45.2900
 0.8520	45.2930
 0.8530	45.2980
 0.8540	45.3060
 0.8550	45.3100
 0.8560	45.3120
 0.8570	45.3150
 0.8580	45.3230
 0.8590	45.3310
 0.8600	45.3380
 0.8610	45.3460
 0.8620	45.3550
 0.8630	45.3630
 0.8640	45.3730
 0.8650	45.3830
 0.8660	45.3890
 0.8670	45.3960
 0.8680	45.4040
 0.8690	45.4140
 0.8700	45.4250
 0.8710	45.4370
 0.8720	45.4470
 0.8730	45.4550
 0.8740	45.4660
 0.8750	45.4790
 0.8760	45.4910
 0.8770	45.4960
 0.8780	45.5030
 0.8790	45.5120
 0.8800	45.5230
 0.8810	45.5350
 0.8820	45.5470
 0.8830	45.5590
 0.8840	45.5700
 0.8850	45.5780
 0.8860	45.5900
 0.8870	45.6010
 0.8880	45.6090
 0.8890	45.6220
 0.8900	45.6350
 0.8910	45.6440
 0.8920	45.6500
 0.8930	45.6600
 0.8940	45.6700
 0.8950	45.6790
 0.8960	45.6860
 0.8970	45.7000
 0.8980	45.7100
 0.8990	45.7180
 0.9000	45.7330
 0.9010	45.7400
 0.9020	45.7470
 0.9030	45.7580
 0.9040	45.7700
 0.9050	45.7770
 0.9060	45.7840
 0.9070	45.7940
 0.9080	45.8050
 0.9090	45.8090
 0.9100	45.8140
 0.9110	45.8240
 0.9120	45.8300
 0.9130	45.8360
 0.9140	45.8430
 0.9150	45.8520
 0.9160	45.8610
 0.9170	45.8630
 0.9180	45.8650
 0.9190	45.8740
 0.9200	45.8820
 0.9210	45.8830
 0.9220	45.8790
 0.9230	45.8760
 0.9240	45.8810
 0.9250	45.8820
 0.9260	45.8800
 0.9270	45.8840
 0.9280	45.8810
 0.9290	45.8710
 0.9300	45.8640
 0.9310	45.8640
 0.9320	45.8630
 0.9330	45.8590
 0.9340	45.8490
 0.9350	45.8340
 0.9360	45.8270
 0.9370	45.8250
 0.9380	45.8210
 0.9390	45.8120
 0.9400	45.7930
 0.9410	45.7790
 0.9420	45.7750
 0.9430	45.7650
 0.9440	45.7530
 0.9450	45.7330
 0.9460	45.7080
 0.9470	45.6980
 0.9480	45.6830
 0.9490	45.6600
 0.9500	45.6330
 0.9510	45.6060
 0.9520	45.5750
 0.9530	45.5440
 0.9540	45.5160
 0.9550	45.4840
 0.9560	45.4600
 0.9570	45.4380
 0.9580	45.4080
 0.9590	45.3780
 0.9600	45.3510
 0.9610	45.3290
 0.9620	45.3090
 0.9630	45.2850
 0.9640	45.2730
 0.9650	45.2640
 0.9660	45.2470
 0.9670	45.2420
 0.9680	45.2290
 0.9690	45.2170
 0.9700	45.2160
 0.9710	45.2050
 0.9720	45.1970
 0.9730	45.1910
 0.9740	45.1830
 0.9750	45.1860
 0.9760	45.1840
 0.9770	45.1830
 0.9780	45.1890
 0.9790	45.1780
 0.9800	45.1720
 0.9810	45.1770
 0.9820	45.1880
 0.9830	45.1920
 0.9840	45.1910
 0.9850	45.1880
 0.9860	45.1910
 0.9870	45.1980
 0.9880	45.2110
 0.9890	45.2210
 0.9900	45.2210
 0.9910	45.2290
 0.9920	45.2380
 0.9930	45.2510
 0.9940	45.2720
 0.9950	45.2930
 0.9960	45.3050
 0.9970	45.3060
 0.9980	45.3020
 0.9990	45.3160
 1.0000	45.3280
 1.0010	47.3790
 1.0020	47.3860
 1.0030	47.3920
 1.0040	47.4010
 1.0050	47.4110
 1.0060	47.4220
 1.0070	47.4350
 1.0080	47.4470
 1.0090	47.4610
 1.0100	47.4720
 1.0110	47.4820
 1.0120	47.4910
 1.0130	47.4960
 1.0140	47.5040
 1.0150	47.5120
 1.0160	47.5190
 1.0170	47.5300
 1.0180	47.5420
 1.0190	47.5560
 1.0200	47.5690
 1.0210	47.5730
 1.0220	47.5790
 1.0230	47.5880
 1.0240	47.5970
 1.0250	47.6070
 1.0260	47.6200
 1.0270	47.6320
 1.0280	47.6420
 1.0290	47.6530
 1.0300	47.6650
 1.0310	47.6770
 1.0320	47.6890
 1.0330	47.6990
 1.0340	47.7110
 1.0350	47.7250
 1.0360	47.7360
 1.0370	47.7430
 1.0380	47.7520
 1.0390	47.7620
 1.0400	47.7720
 1.0410	47.7850
 1.0420	47.7960
 1.0430	47.8070
 1.0440	47.8160
 1.0450	47.8240
 1.0460	47.8300
 1.0470	47.8330
 1.0480	47.8390
 1.0490	47.8470
 1.0500	47.8530
 1.0510	47.8610
 1.0520	47.8690
 1.0530	47.8730
 1.0540	47.8750
 1.0550	47.8770
 1.0560	47.8770
 1.0570	47.8790
 1.0580	47.8810
 1.0590	47.8840
 1.0600	47.8880
 1.0610	47.8910
 1.0620	47.8960
 1.0630	47.8970
 1.0640	47.8970
 1.0650	47.8960
 1.0660	47.8910
 1.0670	47.8890
 1.0680	47.8870
 1.0690	47.8870
 1.0700	47.8860
 1.0710	47.8860
 1.0720	47.8850
 1.0730	47.8840
 1.0740	47.8810
 1.0750	47.8740
 1.0760	47.8700
 1.0770	47.8650
 1.0780	47.8620
 1.0790	47.8620
 1.0800	47.8590
 1.0810	47.8530
 1.0820	47.8480
 1.0830	47.8430
 1.0840	47.8380
 1.0850	47.8320
 1.0860	47.8290
 1.0870	47.8240
 1.0880	47.8170
 1.0890	47.8120
 1.0900	47.8060
 1.0910	47.8000
 1.0920	47.7970
 1.0930	47.7910
 1.0940	47.7840
 1.0950	47.7780
 1.0960	47.7690
 1.0970	47.7640
 1.0980	47.7620
 1.0990	47.7570
 1.1000	47.7500
 1.1010	47.7450
 1.1020	47.7400
 1.1030	47.7350
 1.1040	47.7300
 1.1050	47.7250
 1.1060	47.7180
 1.1070	47.7070
 1.1080	47.7010
 1.1090	47.6980
 1.1100	47.6930
 1.1110	47.6900
 1.1120	47.6840
 1.1130	47.6760
 1.1140	47.6690
 1.1150	47.6620
 1.1160	47.6530
 1.1170	47.6430
 1.1180	47.6330
 1.1190	47.6230
 1.1200	47.6100
 1.1210	47.5980
 1.1220	47.5850
 1.1230	47.5680
 1.1240	47.5500
 1.1250	47.5280
 1.1260	47.5050
 1.1270	47.4770
 1.1280	47.4460
 1.1290	47.4110
 1.1300	47.3720
 1.1310	47.3300
 1.1320	47.2860
 1.1330	47.2370
 1.1340	47.1860
 1.1350	47.1300
 1.1360	47.0700
 1.1370	47.0050
 1.1380	46.9350
 1.1390	46.8610
 1.1400	46.7850
 1.1410	46.7070
 1.1420	46.6260
 1.1430	46.5440
 1.1440	46.4620
 1.1450	46.3790
 1.1460	46.2980
 1.1470	46.2180
 1.1480	46.1400
 1.1490	46.0630
 1.1500	45.9910
 1.1510	45.9190
 1.1520	45.8530
 1.1530	45.7890
 1.1540	45.7310
 1.1550	45.6790
 1.1560	45.6280
 1.1570	45.5810
 1.1580	45.5370
 1.1590	45.4940
 1.1600	45.4570
 1.1610	45.4250
 1.1620	45.3950
 1.1630	45.3690
 1.1640	45.3460
 1.1650	45.3230
 1.1660	45.3030
 1.1670	45.2850
 1.1680	45.2690
 1.1690	45.2530
 1.1700	45.2410
 1.1710	45.2270
 1.1720	45.2130
 1.1730	45.1990
 1.1740	45.1850
 1.1750	45.1720
 1.1760	45.1580
 1.1770	45.1450
 1.1780	45.1310
 1.1790	45.1160
 1.1800	45.1010
 1.1810	45.0860
 1.1820	45.0710
 1.1830	45.0570
 1.1840	45.0410
 1.1850	45.0250
 1.1860	45.0110
 1.1870	44.9970
 1.1880	44.9840
 1.1890	44.9720
 1.1900	44.9610
 1.1910	44.9510
 1.1920	44.9420
 1.1930	44.9370
 1.1940	44.9300
 1.1950	44.9230
 1.1960	44.9160
 1.1970	44.9090
 1.1980	44.9040
 1.1990	44.9010
 1.2000	44.9010
 1.2010	44.9020
 1.2020	44.9040
 1.2030	44.9080
 1.2040	44.9130
 1.2050	44.9160
 1.2060	44.9200
 1.2070	44.9250
 1.2080	44.9280
 1.2090	44.9370
 1.2100	44.9470
 1.2110	44.9570
 1.2120	44.9700
 1.2130	44.9850
 1.2140	45.0020
 1.2150	45.0200
 1.2160	45.0400
 1.2170	45.0580
 1.2180	45.0750
 1.2190	45.0920
 1.2200	45.1100
 1.2210	45.1310
 1.2220	45.1530
 1.2230	45.1760
 1.2240	45.2020
 1.2250	45.2240
 1.2260	45.2460
 1.2270	45.2670
 1.2280	45.2860
 1.2290	45.3040
 1.2300	45.3210
 1.2310	45.3360
 1.2320	45.3520
 1.2330	45.3680
 1.2340	45.3840
 1.2350	45.3990
 1.2360	45.4140
 1.2370	45.4280
 1.2380	45.4420
 1.2390	45.4540
 1.2400	45.4650
 1.2410	45.4760
 1.2420	45.4850
 1.2430	45.4950
 1.2440	45.5050
 1.2450	45.5140
 1.2460	45.5220
 1.2470	45.5300
 1.2480	45.5390
 1.2490	45.5480
 1.2500	45.5580
 1.2510	45.5660
 1.2520	45.5720
 1.2530	45.5760
 1.2540	45.5820
 1.2550	45.5860
 1.2560	45.5890
 1.2570	45.5940
 1.2580	45.5970
 1.2590	45.5990
 1.2600	45.6010
 1.2610	45.6020
 1.2620	45.6000
 1.2630	45.5990
 1.2640	45.5980
 1.2650	45.5960
 1.2660	45.5930
 1.2670	45.5910
 1.2680	45.5910
 1.2690	45.5890
 1.2700	45.5880
 1.2710	45.5870
 1.2720	45.5830
 1.2730	45.5780
 1.2740	45.5710
 1.2750	45.5640
 1.2760	45.5570
 1.2770	45.5480
 1.2780	45.5400
 1.2790	45.5330
 1.2800	45.5250
 1.2810	45.5150
 1.2820	45.5030
 1.2830	45.4910
 1.2840	45.4750
 1.2850	45.4590
 1.2860	45.4410
 1.2870	45.4210
 1.2880	45.3980
 1.2890	45.3760
 1.2900	45.3500
 1.2910	45.3220
 1.2920	45.2950
 1.2930	45.2630
 1.2940	45.2290
 1.2950	45.1950
 1.2960	45.1570
 1.2970	45.1180
 1.2980	45.0800
 1.2990	45.0390
 1.3000	44.9960
 1.3010	44.9510
 1.3020	44.9050
 1.3030	44.8580
 1.3040	44.8100
 1.3050	44.7610
 1.3060	44.7110
 1.3070	44.6570
 1.3080	44.6040
 1.3090	44.5520
 1.3100	44.5000
 1.3110	44.4450
 1.3120	44.3890
 1.3130	44.3310
 1.3140	44.2720
 1.3150	44.2110
 1.3160	44.1490
 1.3170	44.0860
 1.3180	44.0210
 1.3190	43.9540
 1.3200	43.8850
 1.3210	43.8170
 1.3220	43.7480
 1.3230	43.6770
 1.3240	43.6070
 1.3250	43.5340
 1.3260	43.4590
 1.3270	43.3820
 1.3280	43.3020
 1.3290	43.2200
 1.3300	43.1370
 1.3310	43.0540
 1.3320	42.9700
 1.3330	42.8850
 1.3340	42.8000
 1.3350	42.7170
 1.3360	42.6310
 1.3370	42.5440
 1.3380	42.4560
 1.3390	42.3670
 1.3400	42.2780
 1.3410	42.1900
 1.3420	42.1030
 1.3430	42.0160
 1.3440	41.9290
 1.3450	41.8440
 1.3460	41.7610
 1.3470	41.6780
 1.3480	41.5960
 1.3490	41.5150
 1.3500	41.4340
 1.3510	41.3520
 1.3520	41.2710
 1.3530	41.1920
 1.3540	41.1100
 1.3550	41.0270
 1.3560	40.9440
 1.3570	40.8610
 1.3580	40.7790
 1.3590	40.6930
 1.3600	40.6050
 1.3610	40.5130
 1.3620	40.4150
 1.3630	40.3160
 1.3640	40.2100
 1.3650	40.0980
 1.3660	39.9820
 1.3670	39.8590
 1.3680	39.7250
 1.3690	39.5840
 1.3700	39.4320
 1.3710	39.2690
 1.3720	39.0950
 1.3730	38.9060
 1.3740	38.7060
 1.3750	38.4900
 1.3760	38.2550
 1.3770	38.0040
 1.3780	37.7310
 1.3790	37.4380
 1.3800	37.1250
 1.3810	36.7880
 1.3820	36.4320
 1.3830	36.0580
 1.3840	35.6620
 1.3850	35.2460
 1.3860	34.8110
 1.3870	34.3520
 1.3880	33.8820
 1.3890	33.3960
 1.3900	32.8960
 1.3910	32.3890
 1.3920	31.8730
 1.3930	31.3470
 1.3940	30.8190
 1.3950	30.2820
 1.3960	29.7480
 1.3970	29.2190
 1.3980	28.6940
 1.3990	28.1830
 1.4000	27.6800
 1.4010	27.1870
 1.4020	26.7090
 1.4030	26.2410
 1.4040	25.7890
 1.4050	25.3570
 1.4060	24.9410
 1.4070	24.5480
 1.4080	24.1740
 1.4090	23.8180
 1.4100	23.4840
 1.4110	23.1660
 1.4120	22.8680
 1.4130	22.5890
 1.4140	22.3280
 1.4150	22.0880
 1.4160	21.8640
 1.4170	21.6550
 1.4180	21.4640
 1.4190	21.2850
 1.4200	21.1180
 1.4210	20.9650
 1.4220	20.8230
 1.4230	20.6930
 1.4240	20.5750
 1.4250	20.4660
 1.4260	20.3680
 1.4270	20.2770
 1.4280	20.1980
 1.4290	20.1230
 1.4300	20.0550
 1.4310	19.9950
 1.4320	19.9410
 1.4330	19.8930
 1.4340	19.8540
 1.4350	19.8180
 1.4360	19.7870
 1.4370	19.7590
 1.4380	19.7370
 1.4390	19.7180
 1.4400	19.7040
 1.4410	19.6940
 1.4420	19.6870
 1.4430	19.6840
 1.4440	19.6820
 1.4450	19.6840
 1.4460	19.6870
 1.4470	19.6930
 1.4480	19.7010
 1.4490	19.7110
 1.4500	19.7230
 1.4510	19.7370
 1.4520	19.7520
 1.4530	19.7680
 1.4540	19.7850
 1.4550	19.8060
 1.4560	19.8280
 1.4570	19.8540
 1.4580	19.8840
 1.4590	19.9160
 1.4600	19.9550
 1.4610	19.9970
 1.4620	20.0430
 1.4630	20.0940
 1.4640	20.1490
 1.4650	20.2080
 1.4660	20.2730
 1.4670	20.3440
 1.4680	20.4200
 1.4690	20.5010
 1.4700	20.5870
 1.4710	20.6760
 1.4720	20.7700
 1.4730	20.8680
 1.4740	20.9690
 1.4750	21.0750
 1.4760	21.1840
 1.4770	21.2950
 1.4780	21.4080
 1.4790	21.5230
 1.4800	21.6400
 1.4810	21.7570
 1.4820	21.8770
 1.4830	21.9980
 1.4840	22.1210
 1.4850	22.2440
 1.4860	22.3690
 1.4870	22.4960
 1.4880	22.6210
 1.4890	22.7470
 1.4900	22.8740
 1.4910	23.0010
 1.4920	23.1290
 1.4930	23.2580
 1.4940	23.3860
 1.4950	23.5140
 1.4960	23.6420
 1.4970	23.7680
 1.4980	23.8960
 1.4990	24.0250
 1.5000	24.1540
 1.5010	24.2830
 1.5020	24.4120
 1.5030	24.5420
 1.5040	24.6700
 1.5050	24.7960
 1.5060	24.9230
 1.5070	25.0490
 1.5080	25.1740
 1.5090	25.3000
 1.5100	25.4270
 1.5110	25.5520
 1.5120	25.6770
 1.5130	25.8000
 1.5140	25.9240
 1.5150	26.0470
 1.5160	26.1680
 1.5170	26.2900
 1.5180	26.4100
 1.5190	26.5280
 1.5200	26.6460
 1.5210	26.7630
 1.5220	26.8800
 1.5230	26.9950
 1.5240	27.1100
 1.5250	27.2250
 1.5260	27.3370
 1.5270	27.4500
 1.5280	27.5600
 1.5290	27.6680
 1.5300	27.7760
 1.5310	27.8840
 1.5320	27.9900
 1.5330	28.0970
 1.5340	28.2020
 1.5350	28.3050
 1.5360	28.4070
 1.5370	28.5070
 1.5380	28.6060
 1.5390	28.7050
 1.5400	28.8040
 1.5410	28.9010
 1.5420	29.0000
 1.5430	29.0960
 1.5440	29.1920
 1.5450	29.2860
 1.5460	29.3800
 1.5470	29.4720
 1.5480	29.5640
 1.5490	29.6550
 1.5500	29.7450
 1.5510	29.8330
 1.5520	29.9220
 1.5530	30.0080
 1.5540	30.0930
 1.5550	30.1790
 1.5560	30.2610
 1.5570	30.3430
 1.5580	30.4260
 1.5590	30.5060
 1.5600	30.5840
 1.5610	30.6610
 1.5620	30.7380
 1.5630	30.8120
 1.5640	30.8850
 1.5650	30.9580
 1.5660	31.0300
 1.5670	31.1000
 1.5680	31.1710
 1.5690	31.2400
 1.5700	31.3080
 1.5710	31.3780
 1.5720	31.4480
 1.5730	31.5170
 1.5740	31.5850
 1.5750	31.6510
 1.5760	31.7170
 1.5770	31.7800
 1.5780	31.8460
 1.5790	31.9100
 1.5800	31.9730
 1.5810	32.0380
 1.5820	32.1000
 1.5830	32.1630
 1.5840	32.2260
 1.5850	32.2870
 1.5860	32.3500
 1.5870	32.4120
 1.5880	32.4730
 1.5890	32.5340
 1.5900	32.5930
 1.5910	32.6520
 1.5920	32.7110
 1.5930	32.7690
 1.5940	32.8270
 1.5950	32.8860
 1.5960	32.9430
 1.5970	33.0000
 1.5980	33.0580
 1.5990	33.1130
 1.6000	33.1670
 1.6010	33.2200
 1.6020	33.2730
 1.6030	33.3270
 1.6040	33.3810
 1.6050	33.4340
 1.6060	33.4860
 1.6070	33.5350
 1.6080	33.5840
 1.6090	33.6330
 1.6100	33.6820
 1.6110	33.7300
 1.6120	33.7770
 1.6130	33.8230
 1.6140	33.8700
 1.6150	33.9150
 1.6160	33.9580
 1.6170	33.9990
 1.6180	34.0410
 1.6190	34.0830
 1.6200	34.1240
 1.6210	34.1640
 1.6220	34.2010
 1.6230	34.2360
 1.6240	34.2720
 1.6250	34.3090
 1.6260	34.3450
 1.6270	34.3810
 1.6280	34.4140
 1.6290	34.4460
 1.6300	34.4770
 1.6310	34.5090
 1.6320	34.5420
 1.6330	34.5720
 1.6340	34.6030
 1.6350	34.6320
 1.6360	34.6590
 1.6370	34.6850
 1.6380	34.7100
 1.6390	34.7340
 1.6400	34.7580
 1.6410	34.7790
 1.6420	34.7970
 1.6430	34.8140
 1.6440	34.8290
 1.6450	34.8450
 1.6460	34.8580
 1.6470	34.8680
 1.6480	34.8760
 1.6490	34.8820
 1.6500	34.8860
 1.6510	34.8870
 1.6520	34.8870
 1.6530	34.8870
 1.6540	34.8840
 1.6550	34.8790
 1.6560	34.8730
 1.6570	34.8650
 1.6580	34.8550
 1.6590	34.8460
 1.6600	34.8380
 1.6610	34.8270
 1.6620	34.8150
 1.6630	34.8050
 1.6640	34.7940
 1.6650	34.7830
 1.6660	34.7710
 1.6670	34.7580
 1.6680	34.7460
 1.6690	34.7350
 1.6700	34.7230
 1.6710	34.7110
 1.6720	34.6970
 1.6730	34.6810
 1.6740	34.6650
 1.6750	34.6480
 1.6760	34.6290
 1.6770	34.6100
 1.6780	34.5890
 1.6790	34.5640
 1.6800	34.5360
 1.6810	34.5060
 1.6820	34.4730
 1.6830	34.4370
 1.6840	34.4010
 1.6850	34.3620
 1.6860	34.3210
 1.6870	34.2780
 1.6880	34.2360
 1.6890	34.1900
 1.6900	34.1440
 1.6910	34.0960
 1.6920	34.0490
 1.6930	34.0020
 1.6940	33.9550
 1.6950	33.9090
 1.6960	33.8610
 1.6970	33.8130
 1.6980	33.7640
 1.6990	33.7130
 1.7000	33.6640
 1.7010	33.6140
 1.7020	33.5630
 1.7030	33.5120
 1.7040	33.4610
 1.7050	33.4090
 1.7060	33.3570
 1.7070	33.3060
 1.7080	33.2530
 1.7090	33.2000
 1.7100	33.1460
 1.7110	33.0910
 1.7120	33.0380
 1.7130	32.9850
 1.7140	32.9350
 1.7150	32.8870
 1.7160	32.8390
 1.7170	32.7910
 1.7180	32.7440
 1.7190	32.6980
 1.7200	32.6560
 1.7210	32.6140
 1.7220	32.5700
 1.7230	32.5260
 1.7240	32.4840
 1.7250	32.4430
 1.7260	32.4070
 1.7270	32.3730
 1.7280	32.3420
 1.7290	32.3130
 1.7300	32.2870
 1.7310	32.2650
 1.7320	32.2500
 1.7330	32.2320
 1.7340	32.2150
 1.7350	32.1990
 1.7360	32.1840
 1.7370	32.1660
 1.7380	32.1520
 1.7390	32.1310
 1.7400	32.1050
 1.7410	32.0770
 1.7420	32.0450
 1.7430	32.0110
 1.7440	31.9760
 1.7450	31.9380
 1.7460	31.8970
 1.7470	31.8530
 1.7480	31.8060
 1.7490	31.7600
 1.7500	31.7100
 1.7510	31.6620
 1.7520	31.6160
 1.7530	31.5660
 1.7540	31.5150
 1.7550	31.4650
 1.7560	31.4140
 1.7570	31.3660
 1.7580	31.3210
 1.7590	31.2770
 1.7600	31.2350
 1.7610	31.1900
 1.7620	31.1490
 1.7630	31.1070
 1.7640	31.0700
 1.7650	31.0370
 1.7660	31.0050
 1.7670	30.9780
 1.7680	30.9510
 1.7690	30.9260
 1.7700	30.9020
 1.7710	30.8770
 1.7720	30.8540
 1.7730	30.8300
 1.7740	30.8080
 1.7750	30.7860
 1.7760	30.7630
 1.7770	30.7400
 1.7780	30.7200
 1.7790	30.7010
 1.7800	30.6840
 1.7810	30.6700
 1.7820	30.6560
 1.7830	30.6420
 1.7840	30.6300
 1.7850	30.6190
 1.7860	30.6090
 1.7870	30.6010
 1.7880	30.5950
 1.7890	30.5900
 1.7900	30.5850
 1.7910	30.5830
 1.7920	30.5800
 1.7930	30.5800
 1.7940	30.5820
 1.7950	30.5850
 1.7960	30.5900
 1.7970	30.5960
 1.7980	30.6030
 1.7990	30.6100
 1.8000	30.6170
 1.8010	30.6240
 1.8020	30.6320
 1.8030	30.6400
 1.8040	30.6470
 1.8050	30.6560
 1.8060	30.6670
 1.8070	30.6760
 1.8080	30.6860
 1.8090	30.6950
 1.8100	30.7020
 1.8110	30.7110
 1.8120	30.7190
 1.8130	30.7250
 1.8140	30.7310
 1.8150	30.7350
 1.8160	30.7390
 1.8170	30.7440
 1.8180	30.7510
 1.8190	30.7530
 1.8200	30.7550
 1.8210	30.7520
 1.8220	30.7510
 1.8230	30.7530
 1.8240	30.7520
 1.8250	30.7510
 1.8260	30.7490
 1.8270	30.7430
 1.8280	30.7370
 1.8290	30.7290
 1.8300	30.7210
 1.8310	31.2560
 1.8320	31.2400
 1.8330	31.2240
 1.8340	31.2020
 1.8350	31.1760
 1.8360	31.1480
 1.8370	31.1120
 1.8380	31.0720
 1.8390	31.0300
 1.8400	30.9870
 1.8410	30.9350
 1.8420	30.8790
 1.8430	30.8170
 1.8440	30.7450
 1.8450	30.6660
 1.8460	30.5830
 1.8470	30.4940
 1.8480	30.3950
 1.8490	30.2820
 1.8500	30.1590
 1.8510	30.0260
 1.8520	29.8820
 1.8530	29.7260
 1.8540	29.5630
 1.8550	29.3890
 1.8560	29.2000
 1.8570	28.9980
 1.8580	28.7810
 1.8590	28.5480
 1.8600	28.2990
 1.8610	28.0350
 1.8620	27.7510
 1.8630	27.4510
 1.8640	27.1370
 1.8650	26.8020
 1.8660	26.4500
 1.8670	26.0780
 1.8680	25.6810
 1.8690	25.2610
 1.8700	24.8230
 1.8710	24.3640
 1.8720	23.8910
 1.8730	23.4010
 1.8740	22.8970
 1.8750	22.3780
 1.8760	21.8400
 1.8770	21.2940
 1.8780	20.7380
 1.8790	20.1700
 1.8800	19.6060
 1.8810	19.0380
 1.8820	18.4660
 1.8830	17.8930
 1.8840	17.3260
 1.8850	16.7570
 1.8860	16.1980
 1.8870	15.6530
 1.8880	15.1170
 1.8890	14.6040
 1.8900	14.1090
 1.8910	13.6350
 1.8920	13.1760
 1.8930	12.7430
 1.8940	12.3320
 1.8950	11.9470
 1.8960	11.5910
 1.8970	11.2590
 1.8980	10.9520
 1.8990	10.6690
 1.9000	10.4070
 1.9010	10.1700
 1.9020	 9.9530
 1.9030	 9.7600
 1.9040	 9.5840
 1.9050	 9.4280
 1.9060	 9.2870
 1.9070	 9.1610
 1.9080	 9.0500
 1.9090	 8.9520
 1.9100	 8.8650
 1.9110	 8.7860
 1.9120	 8.7200
 1.9130	 8.6590
 1.9140	 8.6060
 1.9150	 8.5590
 1.9160	 8.5200
 1.9170	 8.4860
 1.9180	 8.4560
 1.9190	 8.4320
 1.9200	 8.4120
 1.9210	 8.3950
 1.9220	 8.3800
 1.9230	 8.3690
 1.9240	 8.3610
 1.9250	 8.3560
 1.9260	 8.3520
 1.9270	 8.3510
 1.9280	 8.3530
 1.9290	 8.3560
 1.9300	 8.3630
 1.9310	 8.3750
 1.9320	 8.3880
 1.9330	 8.4020
 1.9340	 8.4170
 1.9350	 8.4360
 1.9360	 8.4580
 1.9370	 8.4800
 1.9380	 8.5060
 1.9390	 8.5280
 1.9400	 8.5510
 1.9410	 8.5770
 1.9420	 8.6040
 1.9430	 8.6360
 1.9440	 8.6690
 1.9450	 8.7050
 1.9460	 8.7410
 1.9470	 8.7770
 1.9480	 8.8150
 1.9490	 8.8510
 1.9500	 8.8910
 1.9510	 8.9320
 1.9520	 8.9730
 1.9530	 9.0170
 1.9540	 9.0620
 1.9550	 9.1080
 1.9560	 9.1570
 1.9570	 9.2060
 1.9580	 9.2540
 1.9590	 9.3050
 1.9600	 9.3570
 1.9610	 9.4100
 1.9620	 9.4650
 1.9630	 9.5200
 1.9640	 9.5770
 1.9650	 9.6350
 1.9660	 9.6940
 1.9670	 9.7560
 1.9680	 9.8180
 1.9690	 9.8800
 1.9700	 9.9430
 1.9710	10.0080
 1.9720	10.0730
 1.9730	10.1380
 1.9740	10.2030
 1.9750	10.2700
 1.9760	10.3400
 1.9770	10.4100
 1.9780	10.4820
 1.9790	10.5540
 1.9800	10.6260
 1.9810	10.6990
 1.9820	10.7740
 1.9830	10.8480
 1.9840	10.9220
 1.9850	10.9980
 1.9860	11.0740
 1.9870	11.1530
 1.9880	11.2330
 1.9890	11.3140
 1.9900	11.3940
 1.9910	11.4730
 1.9920	11.5520
 1.9930	11.6300
 1.9940	11.7100
 1.9950	11.7920
 1.9960	11.8720
 1.9970	11.9550
 1.9980	12.0360
 1.9990	12.1140
 2.0000	12.1950
 2.0010	12.2760
 2.0020	12.3590
 2.0030	12.4430
 2.0040	12.5250
 2.0050	12.6070
 2.0060	12.6870
 2.0070	12.7680
 2.0080	12.8490
 2.0090	12.9300
 2.0100	13.0140
 2.0110	13.0940
 2.0120	13.1690
 2.0130	13.2460
 2.0140	13.3230
 2.0150	13.4000
 2.0160	13.4800
 2.0170	13.5600
 2.0180	13.6370
 2.0190	13.7110
 2.0200	13.7850
 2.0210	13.8580
 2.0220	13.9300
 2.0230	14.0010
 2.0240	14.0700
 2.0250	14.1380
 2.0260	14.2050
 2.0270	14.2720
 2.0280	14.3360
 2.0290	14.4020
 2.0300	14.4660
 2.0310	14.5290
 2.0320	14.5910
 2.0330	14.6530
 2.0340	14.7130
 2.0350	14.7710
 2.0360	14.8280
 2.0370	14.8840
 2.0380	14.9380
 2.0390	14.9900
 2.0400	15.0410
 2.0410	15.0920
 2.0420	15.1420
 2.0430	15.1900
 2.0440	15.2390
 2.0450	15.2890
 2.0460	15.3350
 2.0470	15.3780
 2.0480	15.4240
 2.0490	15.4720
 2.0500	15.5180
 2.0510	15.5670
 2.0520	15.6150
 2.0530	15.6590
 2.0540	15.7050
 2.0550	15.7500
 2.0560	15.8000
 2.0570	15.8500
 2.0580	15.9010
 2.0590	15.9520
 2.0600	16.0040
 2.0610	16.0560
 2.0620	16.1070
 2.0630	16.1610
 2.0640	16.2190
 2.0650	16.2720
 2.0660	16.3230
 2.0670	16.3740
 2.0680	16.4220
 2.0690	16.4730
 2.0700	16.5240
 2.0710	16.5760
 2.0720	16.6290
 2.0730	16.6800
 2.0740	16.7310
 2.0750	16.7820
 2.0760	16.8330
 2.0770	16.8820
 2.0780	16.9330
 2.0790	16.9890
 2.0800	17.0390
 2.0810	17.0870
 2.0820	17.1350
 2.0830	17.1810
 2.0840	17.2280
 2.0850	17.2780
 2.0860	17.3260
 2.0870	17.3750
 2.0880	17.4230
 2.0890	17.4700
 2.0900	17.5170
 2.0910	17.5640
 2.0920	17.6110
 2.0930	17.6550
 2.0940	17.6990
 2.0950	17.7420
 2.0960	17.7800
 2.0970	17.8230
 2.0980	17.8670
 2.0990	17.9110
 2.1000	17.9580
 2.1010	18.0000
 2.1020	18.0380
 2.1030	18.0770
 2.1040	18.1140
 2.1050	18.1520
 2.1060	18.1920
 2.1070	18.2340
 2.1080	18.2760
 2.1090	18.3200
 2.1100	18.3590
 2.1110	18.3940
 2.1120	18.4320
 2.1130	18.4680
 2.1140	18.5040
 2.1150	18.5420
 2.1160	18.5790
 2.1170	18.6140
 2.1180	18.6500
 2.1190	18.6880
 2.1200	18.7240
 2.1210	18.7580
 2.1220	18.7930
 2.1230	18.8230
 2.1240	18.8490
 2.1250	18.8780
 2.1260	18.9030
 2.1270	18.9330
 2.1280	18.9680
 2.1290	18.9970
 2.1300	19.0290
 2.1310	19.0540
 2.1320	19.0730
 2.1330	19.0950
 2.1340	19.1130
 2.1350	19.1360
 2.1360	19.1640
 2.1370	19.1900
 2.1380	19.2180
 2.1390	19.2460
 2.1400	19.2720
 2.1410	19.2980
 2.1420	19.3230
 2.1430	19.3470
 2.1440	19.3700
 2.1450	19.3910
 2.1460	19.4120
 2.1470	19.4310
 2.1480	19.4530
 2.1490	19.4740
 2.1500	19.4950
 2.1510	19.5190
 2.1520	19.5400
 2.1530	19.5600
 2.1540	19.5770
 2.1550	19.5880
 2.1560	19.6050
 2.1570	19.6220
 2.1580	19.6390
 2.1590	19.6580
 2.1600	19.6750
 2.1610	19.6940
 2.1620	19.7120
 2.1630	19.7290
 2.1640	19.7490
 2.1650	19.7660
 2.1660	19.7780
 2.1670	19.7930
 2.1680	19.8080
 2.1690	19.8250
 2.1700	19.8450
 2.1710	19.8630
 2.1720	19.8790
 2.1730	19.8990
 2.1740	19.9170
 2.1750	19.9390
 2.1760	19.9680
 2.1770	19.9920
 2.1780	20.0160
 2.1790	20.0390
 2.1800	20.0560
 2.1810	20.0780
 2.1820	20.1040
 2.1830	20.1280
 2.1840	20.1530
 2.1850	20.1800
 2.1860	20.2070
 2.1870	20.2330
 2.1880	20.2610
 2.1890	20.2920
 2.1900	20.3210
 2.1910	20.3470
 2.1920	20.3750
 2.1930	20.4060
 2.1940	20.4330
 2.1950	20.4580
 2.1960	20.4830
 2.1970	20.5060
 2.1980	20.5310
 2.1990	20.5570
 2.2000	20.5830
 2.2010	20.6110
 2.2020	20.6370
 2.2030	20.6640
 2.2040	20.6880
 2.2050	20.7100
 2.2060	20.7260
 2.2070	20.7450
 2.2080	20.7640
 2.2090	20.7800
 2.2100	20.7970
 2.2110	20.8120
 2.2120	20.8230
 2.2130	20.8360
 2.2140	20.8500
 2.2150	20.8610
 2.2160	20.8720
 2.2170	20.8790
 2.2180	20.8840
 2.2190	20.8890
 2.2200	20.8910
 2.2210	20.8920
 2.2220	20.8920
 2.2230	20.8880
 2.2240	20.8780
 2.2250	20.8690
 2.2260	20.8620
 2.2270	20.8470
 2.2280	20.8300
 2.2290	20.8100
 2.2300	20.7860
 2.2310	20.7570
 2.2320	20.7280
 2.2330	20.6930
 2.2340	20.6530
 2.2350	20.6050
 2.2360	20.5570
 2.2370	20.5040
 2.2380	20.4520
 2.2390	20.3980
 2.2400	20.3450
 2.2410	20.2940
 2.2420	20.2360
 2.2430	20.1740
 2.2440	20.1100
 2.2450	20.0390
 2.2460	19.9710
 2.2470	19.9030
 2.2480	19.8350
 2.2490	19.7670
 2.2500	19.6950
 2.2510	19.6220
 2.2520	19.5490
 2.2530	19.4720
 2.2540	19.3960
 2.2550	19.3180
 2.2560	19.2440
 2.2570	19.1730
 2.2580	19.1010
 2.2590	19.0350
 2.2600	18.9640
 2.2610	18.8900
 2.2620	18.8160
 2.2630	18.7440
 2.2640	18.6730
 2.2650	18.6070
 2.2660	18.5390
 2.2670	18.4720
 2.2680	18.4040
 2.2690	18.3440
 2.2700	18.2890
 2.2710	18.2330
 2.2720	18.1840
 2.2730	18.1330
 2.2740	18.0810
 2.2750	18.0330
 2.2760	17.9900
 2.2770	17.9440
 2.2780	17.8990
 2.2790	17.8540
 2.2800	17.8100
 2.2810	17.7650
 2.2820	17.7170
 2.2830	17.6740
 2.2840	17.6330
 2.2850	17.5860
 2.2860	17.5430
 2.2870	17.4930
 2.2880	17.4310
 2.2890	17.3780
 2.2900	17.3300
 2.2910	17.2780
 2.2920	17.2320
 2.2930	17.1780
 2.2940	17.1170
 2.2950	17.0560
 2.2960	16.9900
 2.2970	16.9270
 2.2980	16.8640
 2.2990	16.8010
 2.3000	16.7450
 2.3010	16.6870
 2.3020	16.6280
 2.3030	16.5680
 2.3040	16.5020
 2.3050	16.4420
 2.3060	16.3890
 2.3070	16.3440
 2.3080	16.3070
 2.3090	16.2670
 2.3100	16.2320
 2.3110	16.2040
 2.3120	16.1790
 2.3130	16.1610
 2.3140	16.1440
 2.3150	16.1310
 2.3160	16.1180
 2.3170	16.1090
 2.3180	16.1020
 2.3190	16.1010
 2.3200	16.0960
 2.3210	16.0960
 2.3220	16.0830
 2.3230	16.0620
 2.3240	16.0380
 2.3250	16.0100
 2.3260	15.9770
 2.3270	15.9390
 2.3280	15.9000
 2.3290	15.8530
 2.3300	15.8120
 2.3310	15.7730
 2.3320	15.7350
 2.3330	15.7040
 2.3340	15.6630
 2.3350	15.6170
 2.3360	15.5690
 2.3370	15.5110
 2.3380	15.4570
 2.3390	15.4020
 2.3400	15.3490
 2.3410	15.2970
 2.3420	15.2480
 2.3430	15.2030
 2.3440	15.1560
 2.3450	15.1050
 2.3460	15.0610
 2.3470	15.0180
 2.3480	14.9760
 2.3490	14.9410
 2.3500	14.9050
 2.3510	14.8670
 2.3520	14.8320
 2.3530	14.7950
 2.3540	14.7650
 2.3550	14.7450
 2.3560	14.7230
 2.3570	14.7040
 2.3580	14.6850
 2.3590	14.6660
 2.3600	14.6350
 2.3610	14.6050
 2.3620	14.5850
 2.3630	14.5550
 2.3640	14.5270
 2.3650	14.5020
 2.3660	14.4580
 2.3670	14.4100
 2.3680	14.3690
 2.3690	14.3290
 2.3700	14.3020
 2.3710	14.2750
 2.3720	14.2420
 2.3730	14.2030
 2.3740	14.1500
 2.3750	14.1020
 2.3760	14.0540
 2.3770	14.0020
 2.3780	13.9680
 2.3790	13.9320
 2.3800	13.8870
 2.3810	13.8550
 2.3820	13.8160
 2.3830	13.7570
 2.3840	13.7050
 2.3850	13.6570
 2.3860	13.6000
 2.3870	13.5620
 2.3880	13.5250
 2.3890	13.4780
 2.3900	13.4420
 2.3910	13.3960
 2.3920	13.3530
 2.3930	13.3180
 2.3940	13.2770
 2.3950	13.2420
 2.3960	13.2080
 2.3970	13.1630
 2.3980	13.1140
 2.3990	13.0680
 2.4000	13.0250
 2.4010	12.9850
 2.4020	12.9410
 2.4030	12.8920
 2.4040	12.8450
 2.4050	12.8060
 2.4060	12.7670
 2.4070	12.7200
 2.4080	12.6630
 2.4090	12.6020
 2.4100	12.5440
 2.4110	12.5010
 2.4120	12.4700
 2.4130	12.4330
 2.4140	12.3840
 2.4150	12.3290
 2.4160	12.2580
 2.4170	12.1990
 2.4180	12.1550
 2.4190	12.1040
 2.4200	12.0620
 2.4210	12.0130
 2.4220	11.9620
 2.4230	11.9170
 2.4240	11.8650
 2.4250	11.8250
 2.4260	11.7860
 2.4270	11.7440
 2.4280	11.7050
 2.4290	11.6460
 2.4300	11.5860
 2.4310	11.5370
 2.4320	11.4860
 2.4330	11.4380
 2.4340	11.3770
 2.4350	11.3170
 2.4360	11.2620
 2.4370	11.2170
 2.4380	11.1760
 2.4390	11.1240
 2.4400	11.0760
 2.4410	11.0340
 2.4420	10.9950
 2.4430	10.9330
 2.4440	10.8680
 2.4450	10.8210
 2.4460	10.7620
 2.4470	10.7180
 2.4480	10.6850
 2.4490	10.6300
 2.4500	10.5870
 2.4510	10.5560
 2.4520	10.5180
 2.4530	10.4640
 2.4540	10.4000
 2.4550	10.3460
 2.4560	10.2850
 2.4570	10.2430
 2.4580	10.2140
 2.4590	10.1700
 2.4600	10.1510
 2.4610	10.1340
 2.4620	10.0960
 2.4630	10.0670
 2.4640	10.0410
 2.4650	10.0150
 2.4660	 9.9980
 2.4670	 9.9730
 2.4680	 9.9250
 2.4690	 9.8650
 2.4700	 9.8170
 2.4710	 9.7770
 2.4720	 9.7380
 2.4730	 9.6960
 2.4740	 9.6600
 2.4750	 9.6350
 2.4760	 9.6020
 2.4770	 9.5640
 2.4780	 9.5250
 2.4790	 9.4710
 2.4800	 9.4450
 2.4810	 9.4430
 2.4820	 9.4570
 2.4830	 9.4570
 2.4840	 9.4300
 2.4850	 9.4100
 2.4860	 9.3750
 2.4870	 9.3260
 2.4880	 9.2960
 2.4890	 9.2820
 2.4900	 9.3100
 2.4910	 9.3350
 2.4920	 9.3420
 2.4930	 9.3260
 2.4940	 9.2690
 2.4950	 9.2250
 2.4960	 9.1400
 2.4970	 9.0700
 2.4980	 9.0760
 2.4990	 9.0360
 2.5000	 9.0600
