Name: Bromus diandrus
Type: vegetation
Class: grass
Genus: Bromus
Species: diandrus
Sample No.: VH351
Owner: UCSB
Wavelength Range: VSWIR
Origin: 34.51457; -119.79877; WGS84
Collection Date: 3/18/2015
Description: Samples were collected as part of the HyspIRI Airborne Campaign proposal titled: HyspIRI discrimination of plant species and functional types along a strong environmental temperature gradient. The same materials were processed in the Nicolet and then measured using the ASD.
Measurement: Bidirectional reflectance
First Column: X
Second Column: Y
X Units: Wavelength (micrometer)
Y Units: Reflectance (percentage)
First X Value: 0.35
Last X Value: 2.5
Number of X Values: 2151
Additional Information: 

 0.3500	 4.0300
 0.3510	 4.0330
 0.3520	 3.8760
 0.3530	 3.7140
 0.3540	 3.7150
 0.3550	 3.8410
 0.3560	 3.8150
 0.3570	 3.6650
 0.3580	 3.5750
 0.3590	 3.5870
 0.3600	 3.5650
 0.3610	 3.5140
 0.3620	 3.6730
 0.3630	 3.5810
 0.3640	 3.4850
 0.3650	 3.6520
 0.3660	 3.7590
 0.3670	 3.7180
 0.3680	 3.6120
 0.3690	 3.6290
 0.3700	 3.7420
 0.3710	 3.8580
 0.3720	 3.8980
 0.3730	 3.8140
 0.3740	 3.8450
 0.3750	 3.9200
 0.3760	 3.9050
 0.3770	 3.8710
 0.3780	 3.8800
 0.3790	 3.9740
 0.3800	 4.1570
 0.3810	 4.1930
 0.3820	 4.1580
 0.3830	 4.1480
 0.3840	 4.1830
 0.3850	 4.2120
 0.3860	 4.2510
 0.3870	 4.3270
 0.3880	 4.3790
 0.3890	 4.5390
 0.3900	 4.7310
 0.3910	 4.6750
 0.3920	 4.7130
 0.3930	 4.8410
 0.3940	 4.9780
 0.3950	 5.0370
 0.3960	 5.1100
 0.3970	 5.1880
 0.3980	 5.2310
 0.3990	 5.3740
 0.4000	 5.4900
 0.4010	 5.5410
 0.4020	 5.6330
 0.4030	 5.7360
 0.4040	 5.8480
 0.4050	 5.9630
 0.4060	 6.0470
 0.4070	 6.1440
 0.4080	 6.2660
 0.4090	 6.3980
 0.4100	 6.4870
 0.4110	 6.5630
 0.4120	 6.6530
 0.4130	 6.7520
 0.4140	 6.8210
 0.4150	 6.9110
 0.4160	 7.0590
 0.4170	 7.0810
 0.4180	 7.1340
 0.4190	 7.2430
 0.4200	 7.3060
 0.4210	 7.3710
 0.4220	 7.4440
 0.4230	 7.5130
 0.4240	 7.5310
 0.4250	 7.5680
 0.4260	 7.6160
 0.4270	 7.6350
 0.4280	 7.6510
 0.4290	 7.6810
 0.4300	 7.7280
 0.4310	 7.7810
 0.4320	 7.8030
 0.4330	 7.7990
 0.4340	 7.7880
 0.4350	 7.8060
 0.4360	 7.8480
 0.4370	 7.8860
 0.4380	 7.8840
 0.4390	 7.8890
 0.4400	 7.9100
 0.4410	 7.9400
 0.4420	 7.9530
 0.4430	 7.9740
 0.4440	 7.9970
 0.4450	 8.0120
 0.4460	 8.0570
 0.4470	 8.0860
 0.4480	 8.0900
 0.4490	 8.1160
 0.4500	 8.1540
 0.4510	 8.1800
 0.4520	 8.1830
 0.4530	 8.2180
 0.4540	 8.2520
 0.4550	 8.2690
 0.4560	 8.2730
 0.4570	 8.2930
 0.4580	 8.3100
 0.4590	 8.3140
 0.4600	 8.3210
 0.4610	 8.3310
 0.4620	 8.3310
 0.4630	 8.3170
 0.4640	 8.3360
 0.4650	 8.3380
 0.4660	 8.3230
 0.4670	 8.3460
 0.4680	 8.3450
 0.4690	 8.3350
 0.4700	 8.3370
 0.4710	 8.3440
 0.4720	 8.3510
 0.4730	 8.3570
 0.4740	 8.3580
 0.4750	 8.3680
 0.4760	 8.3750
 0.4770	 8.3770
 0.4780	 8.3850
 0.4790	 8.3850
 0.4800	 8.3930
 0.4810	 8.4200
 0.4820	 8.4230
 0.4830	 8.4380
 0.4840	 8.4680
 0.4850	 8.4860
 0.4860	 8.5110
 0.4870	 8.5380
 0.4880	 8.5640
 0.4890	 8.6020
 0.4900	 8.6430
 0.4910	 8.6870
 0.4920	 8.7340
 0.4930	 8.8030
 0.4940	 8.8650
 0.4950	 8.9210
 0.4960	 9.0160
 0.4970	 9.1000
 0.4980	 9.1870
 0.4990	 9.2960
 0.5000	 9.4070
 0.5010	 9.5400
 0.5020	 9.6910
 0.5030	 9.8360
 0.5040	10.0020
 0.5050	10.1850
 0.5060	10.3790
 0.5070	10.5850
 0.5080	10.8140
 0.5090	11.0660
 0.5100	11.3380
 0.5110	11.6140
 0.5120	11.9150
 0.5130	12.2450
 0.5140	12.5820
 0.5150	12.9420
 0.5160	13.3180
 0.5170	13.6990
 0.5180	14.0920
 0.5190	14.4930
 0.5200	14.9000
 0.5210	15.3130
 0.5220	15.7130
 0.5230	16.1120
 0.5240	16.5120
 0.5250	16.8850
 0.5260	17.2420
 0.5270	17.5800
 0.5280	17.8920
 0.5290	18.1900
 0.5300	18.4630
 0.5310	18.7090
 0.5320	18.9400
 0.5330	19.1380
 0.5340	19.3130
 0.5350	19.4780
 0.5360	19.6170
 0.5370	19.7420
 0.5380	19.8530
 0.5390	19.9460
 0.5400	20.0350
 0.5410	20.1160
 0.5420	20.1890
 0.5430	20.2610
 0.5440	20.3290
 0.5450	20.3950
 0.5460	20.4640
 0.5470	20.5200
 0.5480	20.5670
 0.5490	20.6100
 0.5500	20.6520
 0.5510	20.6790
 0.5520	20.6910
 0.5530	20.6890
 0.5540	20.6750
 0.5550	20.6370
 0.5560	20.5760
 0.5570	20.4990
 0.5580	20.4050
 0.5590	20.2940
 0.5600	20.1630
 0.5610	20.0130
 0.5620	19.8480
 0.5630	19.6720
 0.5640	19.4860
 0.5650	19.2940
 0.5660	19.0910
 0.5670	18.8790
 0.5680	18.6670
 0.5690	18.4360
 0.5700	18.1980
 0.5710	17.9660
 0.5720	17.7430
 0.5730	17.5250
 0.5740	17.3140
 0.5750	17.1100
 0.5760	16.9220
 0.5770	16.7480
 0.5780	16.5830
 0.5790	16.4270
 0.5800	16.2830
 0.5810	16.1440
 0.5820	16.0010
 0.5830	15.8700
 0.5840	15.7500
 0.5850	15.6360
 0.5860	15.5270
 0.5870	15.4290
 0.5880	15.3380
 0.5890	15.2510
 0.5900	15.1710
 0.5910	15.0940
 0.5920	15.0210
 0.5930	14.9550
 0.5940	14.8900
 0.5950	14.8310
 0.5960	14.7830
 0.5970	14.7450
 0.5980	14.7050
 0.5990	14.6570
 0.6000	14.5980
 0.6010	14.5370
 0.6020	14.4690
 0.6030	14.3940
 0.6040	14.3220
 0.6050	14.2360
 0.6060	14.1410
 0.6070	14.0430
 0.6080	13.9330
 0.6090	13.8210
 0.6100	13.7050
 0.6110	13.5780
 0.6120	13.4640
 0.6130	13.3510
 0.6140	13.2340
 0.6150	13.1240
 0.6160	13.0110
 0.6170	12.9040
 0.6180	12.8090
 0.6190	12.7190
 0.6200	12.6420
 0.6210	12.5750
 0.6220	12.5130
 0.6230	12.4600
 0.6240	12.4160
 0.6250	12.3790
 0.6260	12.3530
 0.6270	12.3320
 0.6280	12.3120
 0.6290	12.2940
 0.6300	12.2790
 0.6310	12.2620
 0.6320	12.2370
 0.6330	12.2020
 0.6340	12.1600
 0.6350	12.1050
 0.6360	12.0290
 0.6370	11.9310
 0.6380	11.8200
 0.6390	11.6990
 0.6400	11.5710
 0.6410	11.4250
 0.6420	11.2740
 0.6430	11.1260
 0.6440	10.9750
 0.6450	10.8290
 0.6460	10.6870
 0.6470	10.5480
 0.6480	10.4150
 0.6490	10.2970
 0.6500	10.1960
 0.6510	10.1110
 0.6520	10.0360
 0.6530	 9.9640
 0.6540	 9.8910
 0.6550	 9.8300
 0.6560	 9.7570
 0.6570	 9.6730
 0.6580	 9.5820
 0.6590	 9.4880
 0.6600	 9.3910
 0.6610	 9.2880
 0.6620	 9.1750
 0.6630	 9.0750
 0.6640	 8.9880
 0.6650	 8.9070
 0.6660	 8.8330
 0.6670	 8.7700
 0.6680	 8.7180
 0.6690	 8.6740
 0.6700	 8.6550
 0.6710	 8.6440
 0.6720	 8.6360
 0.6730	 8.6410
 0.6740	 8.6590
 0.6750	 8.6850
 0.6760	 8.7140
 0.6770	 8.7510
 0.6780	 8.7970
 0.6790	 8.8550
 0.6800	 8.9260
 0.6810	 9.0120
 0.6820	 9.1100
 0.6830	 9.2240
 0.6840	 9.3660
 0.6850	 9.5350
 0.6860	 9.7450
 0.6870	10.0080
 0.6880	10.3190
 0.6890	10.7030
 0.6900	11.1680
 0.6910	11.7100
 0.6920	12.3410
 0.6930	13.0600
 0.6940	13.8660
 0.6950	14.7600
 0.6960	15.7310
 0.6970	16.7690
 0.6980	17.8650
 0.6990	19.0090
 0.7000	20.1810
 0.7010	21.3700
 0.7020	22.5680
 0.7030	23.7560
 0.7040	24.9330
 0.7050	26.0940
 0.7060	27.2170
 0.7070	28.3190
 0.7080	29.3960
 0.7090	30.4450
 0.7100	31.4640
 0.7110	32.4620
 0.7120	33.4410
 0.7130	34.3890
 0.7140	35.3250
 0.7150	36.2340
 0.7160	37.1050
 0.7170	37.9670
 0.7180	38.8070
 0.7190	39.6200
 0.7200	40.4080
 0.7210	41.1690
 0.7220	41.9070
 0.7230	42.6220
 0.7240	43.3010
 0.7250	43.9580
 0.7260	44.5880
 0.7270	45.1870
 0.7280	45.7630
 0.7290	46.3070
 0.7300	46.8210
 0.7310	47.3120
 0.7320	47.7860
 0.7330	48.2200
 0.7340	48.6170
 0.7350	49.0120
 0.7360	49.3790
 0.7370	49.7230
 0.7380	50.0450
 0.7390	50.3310
 0.7400	50.5990
 0.7410	50.8530
 0.7420	51.0940
 0.7430	51.3090
 0.7440	51.5040
 0.7450	51.6830
 0.7460	51.8480
 0.7470	51.9960
 0.7480	52.1270
 0.7490	52.2440
 0.7500	52.3540
 0.7510	52.4400
 0.7520	52.5160
 0.7530	52.5970
 0.7540	52.6630
 0.7550	52.7150
 0.7560	52.7610
 0.7570	52.8090
 0.7580	52.8560
 0.7590	52.8920
 0.7600	52.9110
 0.7610	52.9240
 0.7620	52.9440
 0.7630	52.9640
 0.7640	52.9750
 0.7650	52.9770
 0.7660	52.9780
 0.7670	52.9810
 0.7680	52.9840
 0.7690	52.9860
 0.7700	52.9850
 0.7710	52.9800
 0.7720	52.9680
 0.7730	52.9580
 0.7740	52.9530
 0.7750	52.9520
 0.7760	52.9510
 0.7770	52.9420
 0.7780	52.9300
 0.7790	52.9280
 0.7800	52.9250
 0.7810	52.9190
 0.7820	52.9130
 0.7830	52.9130
 0.7840	52.9100
 0.7850	52.9010
 0.7860	52.8890
 0.7870	52.8920
 0.7880	52.8880
 0.7890	52.8850
 0.7900	52.8940
 0.7910	52.8940
 0.7920	52.8850
 0.7930	52.8750
 0.7940	52.8810
 0.7950	52.8790
 0.7960	52.8730
 0.7970	52.8720
 0.7980	52.8820
 0.7990	52.8760
 0.8000	52.8720
 0.8010	52.8840
 0.8020	52.8790
 0.8030	52.8760
 0.8040	52.8780
 0.8050	52.8830
 0.8060	52.8910
 0.8070	52.8900
 0.8080	52.8830
 0.8090	52.8920
 0.8100	52.8960
 0.8110	52.8990
 0.8120	52.9040
 0.8130	52.9050
 0.8140	52.9130
 0.8150	52.9210
 0.8160	52.9220
 0.8170	52.9240
 0.8180	52.9280
 0.8190	52.9340
 0.8200	52.9440
 0.8210	52.9470
 0.8220	52.9540
 0.8230	52.9640
 0.8240	52.9630
 0.8250	52.9700
 0.8260	52.9740
 0.8270	52.9750
 0.8280	52.9920
 0.8290	53.0110
 0.8300	53.0170
 0.8310	53.0080
 0.8320	53.0160
 0.8330	53.0280
 0.8340	53.0340
 0.8350	53.0320
 0.8360	53.0440
 0.8370	53.0510
 0.8380	53.0560
 0.8390	53.0720
 0.8400	53.0870
 0.8410	53.0990
 0.8420	53.1050
 0.8430	53.0950
 0.8440	53.1130
 0.8450	53.1390
 0.8460	53.1480
 0.8470	53.1480
 0.8480	53.1450
 0.8490	53.1490
 0.8500	53.1640
 0.8510	53.1840
 0.8520	53.1860
 0.8530	53.1790
 0.8540	53.1890
 0.8550	53.2050
 0.8560	53.2170
 0.8570	53.2220
 0.8580	53.2270
 0.8590	53.2200
 0.8600	53.2180
 0.8610	53.2290
 0.8620	53.2420
 0.8630	53.2460
 0.8640	53.2440
 0.8650	53.2430
 0.8660	53.2520
 0.8670	53.2560
 0.8680	53.2600
 0.8690	53.2680
 0.8700	53.2720
 0.8710	53.2600
 0.8720	53.2490
 0.8730	53.2610
 0.8740	53.2670
 0.8750	53.2650
 0.8760	53.2570
 0.8770	53.2530
 0.8780	53.2560
 0.8790	53.2540
 0.8800	53.2440
 0.8810	53.2490
 0.8820	53.2570
 0.8830	53.2600
 0.8840	53.2560
 0.8850	53.2470
 0.8860	53.2350
 0.8870	53.2260
 0.8880	53.2230
 0.8890	53.2240
 0.8900	53.2160
 0.8910	53.2100
 0.8920	53.2200
 0.8930	53.2070
 0.8940	53.1970
 0.8950	53.1920
 0.8960	53.1790
 0.8970	53.1710
 0.8980	53.1740
 0.8990	53.1760
 0.9000	53.1590
 0.9010	53.1480
 0.9020	53.1460
 0.9030	53.1460
 0.9040	53.1380
 0.9050	53.1270
 0.9060	53.1230
 0.9070	53.1240
 0.9080	53.1130
 0.9090	53.0980
 0.9100	53.0890
 0.9110	53.0870
 0.9120	53.0840
 0.9130	53.0750
 0.9140	53.0660
 0.9150	53.0610
 0.9160	53.0520
 0.9170	53.0360
 0.9180	53.0250
 0.9190	53.0290
 0.9200	53.0140
 0.9210	53.0030
 0.9220	52.9920
 0.9230	52.9670
 0.9240	52.9470
 0.9250	52.9440
 0.9260	52.9390
 0.9270	52.9020
 0.9280	52.8910
 0.9290	52.8820
 0.9300	52.8660
 0.9310	52.8540
 0.9320	52.8390
 0.9330	52.8210
 0.9340	52.7980
 0.9350	52.7590
 0.9360	52.7370
 0.9370	52.7290
 0.9380	52.7190
 0.9390	52.6910
 0.9400	52.6750
 0.9410	52.6450
 0.9420	52.6000
 0.9430	52.5860
 0.9440	52.5630
 0.9450	52.5390
 0.9460	52.5180
 0.9470	52.4730
 0.9480	52.4360
 0.9490	52.4050
 0.9500	52.3680
 0.9510	52.3300
 0.9520	52.2900
 0.9530	52.2400
 0.9540	52.1790
 0.9550	52.1320
 0.9560	52.0960
 0.9570	52.0580
 0.9580	52.0120
 0.9590	51.9810
 0.9600	51.9580
 0.9610	51.9320
 0.9620	51.9000
 0.9630	51.8990
 0.9640	51.8780
 0.9650	51.8540
 0.9660	51.8560
 0.9670	51.8350
 0.9680	51.8130
 0.9690	51.8120
 0.9700	51.8340
 0.9710	51.8170
 0.9720	51.8010
 0.9730	51.8060
 0.9740	51.8310
 0.9750	51.8280
 0.9760	51.8100
 0.9770	51.8080
 0.9780	51.8400
 0.9790	51.8410
 0.9800	51.8130
 0.9810	51.7970
 0.9820	51.8270
 0.9830	51.8500
 0.9840	51.8570
 0.9850	51.8590
 0.9860	51.8720
 0.9870	51.8920
 0.9880	51.9080
 0.9890	51.9230
 0.9900	51.9470
 0.9910	51.9580
 0.9920	51.9440
 0.9930	51.9350
 0.9940	51.9630
 0.9950	51.9890
 0.9960	51.9930
 0.9970	51.9930
 0.9980	52.0140
 0.9990	52.0250
 1.0000	51.8710
 1.0010	51.5320
 1.0020	51.3660
 1.0030	51.3780
 1.0040	51.4030
 1.0050	51.4300
 1.0060	51.4530
 1.0070	51.4750
 1.0080	51.4890
 1.0090	51.4930
 1.0100	51.5050
 1.0110	51.5110
 1.0120	51.5270
 1.0130	51.5560
 1.0140	51.5770
 1.0150	51.5970
 1.0160	51.6250
 1.0170	51.6460
 1.0180	51.6500
 1.0190	51.6540
 1.0200	51.6640
 1.0210	51.6780
 1.0220	51.6910
 1.0230	51.7070
 1.0240	51.7320
 1.0250	51.7450
 1.0260	51.7500
 1.0270	51.7620
 1.0280	51.7730
 1.0290	51.7840
 1.0300	51.7950
 1.0310	51.8100
 1.0320	51.8300
 1.0330	51.8440
 1.0340	51.8530
 1.0350	51.8630
 1.0360	51.8630
 1.0370	51.8590
 1.0380	51.8640
 1.0390	51.8750
 1.0400	51.8820
 1.0410	51.8940
 1.0420	51.8980
 1.0430	51.8960
 1.0440	51.8980
 1.0450	51.8970
 1.0460	51.9000
 1.0470	51.9110
 1.0480	51.9130
 1.0490	51.9120
 1.0500	51.9130
 1.0510	51.9060
 1.0520	51.9060
 1.0530	51.9120
 1.0540	51.9240
 1.0550	51.9290
 1.0560	51.9370
 1.0570	51.9420
 1.0580	51.9420
 1.0590	51.9450
 1.0600	51.9530
 1.0610	51.9550
 1.0620	51.9540
 1.0630	51.9560
 1.0640	51.9570
 1.0650	51.9600
 1.0660	51.9670
 1.0670	51.9710
 1.0680	51.9750
 1.0690	51.9790
 1.0700	51.9780
 1.0710	51.9720
 1.0720	51.9720
 1.0730	51.9710
 1.0740	51.9720
 1.0750	51.9810
 1.0760	51.9850
 1.0770	51.9890
 1.0780	51.9880
 1.0790	51.9830
 1.0800	51.9800
 1.0810	51.9720
 1.0820	51.9680
 1.0830	51.9690
 1.0840	51.9670
 1.0850	51.9670
 1.0860	51.9640
 1.0870	51.9610
 1.0880	51.9560
 1.0890	51.9500
 1.0900	51.9440
 1.0910	51.9380
 1.0920	51.9330
 1.0930	51.9270
 1.0940	51.9200
 1.0950	51.9120
 1.0960	51.8980
 1.0970	51.8900
 1.0980	51.8840
 1.0990	51.8790
 1.1000	51.8820
 1.1010	51.8770
 1.1020	51.8700
 1.1030	51.8540
 1.1040	51.8460
 1.1050	51.8310
 1.1060	51.8200
 1.1070	51.8130
 1.1080	51.8020
 1.1090	51.7900
 1.1100	51.7760
 1.1110	51.7600
 1.1120	51.7460
 1.1130	51.7340
 1.1140	51.7170
 1.1150	51.7010
 1.1160	51.6840
 1.1170	51.6630
 1.1180	51.6430
 1.1190	51.6260
 1.1200	51.6060
 1.1210	51.5820
 1.1220	51.5570
 1.1230	51.5320
 1.1240	51.5030
 1.1250	51.4700
 1.1260	51.4360
 1.1270	51.3950
 1.1280	51.3480
 1.1290	51.2980
 1.1300	51.2470
 1.1310	51.1870
 1.1320	51.1210
 1.1330	51.0520
 1.1340	50.9750
 1.1350	50.8960
 1.1360	50.8130
 1.1370	50.7300
 1.1380	50.6380
 1.1390	50.5440
 1.1400	50.4480
 1.1410	50.3460
 1.1420	50.2460
 1.1430	50.1470
 1.1440	50.0480
 1.1450	49.9470
 1.1460	49.8510
 1.1470	49.7560
 1.1480	49.6660
 1.1490	49.5770
 1.1500	49.4980
 1.1510	49.4230
 1.1520	49.3550
 1.1530	49.2960
 1.1540	49.2400
 1.1550	49.1870
 1.1560	49.1440
 1.1570	49.1110
 1.1580	49.0800
 1.1590	49.0560
 1.1600	49.0390
 1.1610	49.0200
 1.1620	49.0020
 1.1630	48.9890
 1.1640	48.9770
 1.1650	48.9700
 1.1660	48.9680
 1.1670	48.9640
 1.1680	48.9620
 1.1690	48.9600
 1.1700	48.9550
 1.1710	48.9530
 1.1720	48.9520
 1.1730	48.9510
 1.1740	48.9520
 1.1750	48.9510
 1.1760	48.9490
 1.1770	48.9520
 1.1780	48.9510
 1.1790	48.9470
 1.1800	48.9440
 1.1810	48.9410
 1.1820	48.9350
 1.1830	48.9290
 1.1840	48.9220
 1.1850	48.9150
 1.1860	48.9100
 1.1870	48.9070
 1.1880	48.9050
 1.1890	48.9070
 1.1900	48.9050
 1.1910	48.9020
 1.1920	48.9010
 1.1930	48.8980
 1.1940	48.8970
 1.1950	48.9000
 1.1960	48.9020
 1.1970	48.9040
 1.1980	48.9100
 1.1990	48.9200
 1.2000	48.9270
 1.2010	48.9370
 1.2020	48.9470
 1.2030	48.9600
 1.2040	48.9690
 1.2050	48.9760
 1.2060	48.9840
 1.2070	48.9890
 1.2080	48.9980
 1.2090	49.0100
 1.2100	49.0190
 1.2110	49.0300
 1.2120	49.0390
 1.2130	49.0500
 1.2140	49.0630
 1.2150	49.0770
 1.2160	49.0920
 1.2170	49.1050
 1.2180	49.1190
 1.2190	49.1330
 1.2200	49.1470
 1.2210	49.1640
 1.2220	49.1810
 1.2230	49.1980
 1.2240	49.2110
 1.2250	49.2250
 1.2260	49.2420
 1.2270	49.2560
 1.2280	49.2740
 1.2290	49.2930
 1.2300	49.3070
 1.2310	49.3180
 1.2320	49.3320
 1.2330	49.3440
 1.2340	49.3580
 1.2350	49.3790
 1.2360	49.3920
 1.2370	49.4010
 1.2380	49.4110
 1.2390	49.4200
 1.2400	49.4290
 1.2410	49.4430
 1.2420	49.4550
 1.2430	49.4610
 1.2440	49.4710
 1.2450	49.4870
 1.2460	49.5000
 1.2470	49.5140
 1.2480	49.5280
 1.2490	49.5330
 1.2500	49.5380
 1.2510	49.5440
 1.2520	49.5520
 1.2530	49.5560
 1.2540	49.5610
 1.2550	49.5700
 1.2560	49.5760
 1.2570	49.5830
 1.2580	49.5880
 1.2590	49.5930
 1.2600	49.5960
 1.2610	49.5970
 1.2620	49.5960
 1.2630	49.5970
 1.2640	49.5950
 1.2650	49.5910
 1.2660	49.5880
 1.2670	49.5830
 1.2680	49.5750
 1.2690	49.5620
 1.2700	49.5510
 1.2710	49.5440
 1.2720	49.5350
 1.2730	49.5270
 1.2740	49.5170
 1.2750	49.5050
 1.2760	49.4930
 1.2770	49.4810
 1.2780	49.4650
 1.2790	49.4490
 1.2800	49.4330
 1.2810	49.4170
 1.2820	49.3990
 1.2830	49.3790
 1.2840	49.3610
 1.2850	49.3410
 1.2860	49.3230
 1.2870	49.3060
 1.2880	49.2910
 1.2890	49.2740
 1.2900	49.2560
 1.2910	49.2370
 1.2920	49.2120
 1.2930	49.1870
 1.2940	49.1620
 1.2950	49.1350
 1.2960	49.1120
 1.2970	49.0880
 1.2980	49.0600
 1.2990	49.0340
 1.3000	49.0060
 1.3010	48.9720
 1.3020	48.9410
 1.3030	48.9080
 1.3040	48.8670
 1.3050	48.8280
 1.3060	48.7840
 1.3070	48.7350
 1.3080	48.6890
 1.3090	48.6340
 1.3100	48.5770
 1.3110	48.5200
 1.3120	48.4600
 1.3130	48.4040
 1.3140	48.3430
 1.3150	48.2820
 1.3160	48.2170
 1.3170	48.1500
 1.3180	48.0760
 1.3190	47.9960
 1.3200	47.9150
 1.3210	47.8290
 1.3220	47.7440
 1.3230	47.6610
 1.3240	47.5760
 1.3250	47.4860
 1.3260	47.3950
 1.3270	47.3010
 1.3280	47.2030
 1.3290	47.1020
 1.3300	46.9960
 1.3310	46.8870
 1.3320	46.7760
 1.3330	46.6660
 1.3340	46.5530
 1.3350	46.4400
 1.3360	46.3300
 1.3370	46.2190
 1.3380	46.1060
 1.3390	45.9950
 1.3400	45.8840
 1.3410	45.7710
 1.3420	45.6630
 1.3430	45.5520
 1.3440	45.4360
 1.3450	45.3230
 1.3460	45.2090
 1.3470	45.0970
 1.3480	44.9860
 1.3490	44.8790
 1.3500	44.7730
 1.3510	44.6660
 1.3520	44.5630
 1.3530	44.4560
 1.3540	44.3480
 1.3550	44.2460
 1.3560	44.1430
 1.3570	44.0350
 1.3580	43.9260
 1.3590	43.8080
 1.3600	43.6810
 1.3610	43.5520
 1.3620	43.4190
 1.3630	43.2850
 1.3640	43.1450
 1.3650	42.9970
 1.3660	42.8450
 1.3670	42.6790
 1.3680	42.5020
 1.3690	42.3140
 1.3700	42.1110
 1.3710	41.8940
 1.3720	41.6640
 1.3730	41.4190
 1.3740	41.1590
 1.3750	40.8790
 1.3760	40.5760
 1.3770	40.2530
 1.3780	39.9050
 1.3790	39.5360
 1.3800	39.1450
 1.3810	38.7260
 1.3820	38.2870
 1.3830	37.8240
 1.3840	37.3400
 1.3850	36.8320
 1.3860	36.3110
 1.3870	35.7670
 1.3880	35.2160
 1.3890	34.6530
 1.3900	34.0770
 1.3910	33.4960
 1.3920	32.9090
 1.3930	32.3190
 1.3940	31.7310
 1.3950	31.1400
 1.3960	30.5580
 1.3970	29.9850
 1.3980	29.4240
 1.3990	28.8860
 1.4000	28.3580
 1.4010	27.8470
 1.4020	27.3590
 1.4030	26.8860
 1.4040	26.4380
 1.4050	26.0140
 1.4060	25.6120
 1.4070	25.2380
 1.4080	24.8860
 1.4090	24.5570
 1.4100	24.2510
 1.4110	23.9660
 1.4120	23.7010
 1.4130	23.4580
 1.4140	23.2330
 1.4150	23.0300
 1.4160	22.8440
 1.4170	22.6730
 1.4180	22.5200
 1.4190	22.3760
 1.4200	22.2470
 1.4210	22.1300
 1.4220	22.0210
 1.4230	21.9260
 1.4240	21.8420
 1.4250	21.7660
 1.4260	21.6990
 1.4270	21.6390
 1.4280	21.5860
 1.4290	21.5400
 1.4300	21.5030
 1.4310	21.4720
 1.4320	21.4490
 1.4330	21.4300
 1.4340	21.4190
 1.4350	21.4100
 1.4360	21.4060
 1.4370	21.4070
 1.4380	21.4110
 1.4390	21.4170
 1.4400	21.4280
 1.4410	21.4400
 1.4420	21.4550
 1.4430	21.4740
 1.4440	21.4950
 1.4450	21.5180
 1.4460	21.5420
 1.4470	21.5680
 1.4480	21.5930
 1.4490	21.6200
 1.4500	21.6480
 1.4510	21.6750
 1.4520	21.7050
 1.4530	21.7380
 1.4540	21.7720
 1.4550	21.8130
 1.4560	21.8570
 1.4570	21.9020
 1.4580	21.9520
 1.4590	22.0060
 1.4600	22.0670
 1.4610	22.1310
 1.4620	22.2000
 1.4630	22.2760
 1.4640	22.3550
 1.4650	22.4380
 1.4660	22.5300
 1.4670	22.6270
 1.4680	22.7280
 1.4690	22.8360
 1.4700	22.9490
 1.4710	23.0660
 1.4720	23.1870
 1.4730	23.3140
 1.4740	23.4440
 1.4750	23.5770
 1.4760	23.7140
 1.4770	23.8510
 1.4780	23.9890
 1.4790	24.1320
 1.4800	24.2750
 1.4810	24.4200
 1.4820	24.5680
 1.4830	24.7140
 1.4840	24.8620
 1.4850	25.0100
 1.4860	25.1600
 1.4870	25.3140
 1.4880	25.4680
 1.4890	25.6230
 1.4900	25.7780
 1.4910	25.9340
 1.4920	26.0880
 1.4930	26.2430
 1.4940	26.3970
 1.4950	26.5500
 1.4960	26.7050
 1.4970	26.8600
 1.4980	27.0140
 1.4990	27.1680
 1.5000	27.3220
 1.5010	27.4770
 1.5020	27.6310
 1.5030	27.7880
 1.5040	27.9420
 1.5050	28.0920
 1.5060	28.2440
 1.5070	28.3950
 1.5080	28.5450
 1.5090	28.6960
 1.5100	28.8450
 1.5110	28.9930
 1.5120	29.1450
 1.5130	29.2950
 1.5140	29.4420
 1.5150	29.5900
 1.5160	29.7330
 1.5170	29.8750
 1.5180	30.0190
 1.5190	30.1600
 1.5200	30.3020
 1.5210	30.4420
 1.5220	30.5810
 1.5230	30.7180
 1.5240	30.8530
 1.5250	30.9900
 1.5260	31.1250
 1.5270	31.2600
 1.5280	31.3960
 1.5290	31.5270
 1.5300	31.6570
 1.5310	31.7870
 1.5320	31.9150
 1.5330	32.0400
 1.5340	32.1630
 1.5350	32.2870
 1.5360	32.4100
 1.5370	32.5320
 1.5380	32.6530
 1.5390	32.7730
 1.5400	32.8890
 1.5410	33.0040
 1.5420	33.1180
 1.5430	33.2300
 1.5440	33.3410
 1.5450	33.4500
 1.5460	33.5570
 1.5470	33.6650
 1.5480	33.7720
 1.5490	33.8790
 1.5500	33.9840
 1.5510	34.0880
 1.5520	34.1940
 1.5530	34.2950
 1.5540	34.3950
 1.5550	34.4970
 1.5560	34.5970
 1.5570	34.6950
 1.5580	34.7930
 1.5590	34.8880
 1.5600	34.9800
 1.5610	35.0710
 1.5620	35.1580
 1.5630	35.2440
 1.5640	35.3270
 1.5650	35.4130
 1.5660	35.4980
 1.5670	35.5790
 1.5680	35.6590
 1.5690	35.7380
 1.5700	35.8190
 1.5710	35.9020
 1.5720	35.9820
 1.5730	36.0620
 1.5740	36.1400
 1.5750	36.2140
 1.5760	36.2890
 1.5770	36.3600
 1.5780	36.4290
 1.5790	36.5010
 1.5800	36.5720
 1.5810	36.6460
 1.5820	36.7200
 1.5830	36.7900
 1.5840	36.8600
 1.5850	36.9280
 1.5860	36.9940
 1.5870	37.0610
 1.5880	37.1290
 1.5890	37.1970
 1.5900	37.2610
 1.5910	37.3240
 1.5920	37.3870
 1.5930	37.4490
 1.5940	37.5130
 1.5950	37.5790
 1.5960	37.6430
 1.5970	37.7070
 1.5980	37.7680
 1.5990	37.8280
 1.6000	37.8870
 1.6010	37.9440
 1.6020	38.0000
 1.6030	38.0580
 1.6040	38.1160
 1.6050	38.1740
 1.6060	38.2320
 1.6070	38.2850
 1.6080	38.3350
 1.6090	38.3850
 1.6100	38.4360
 1.6110	38.4860
 1.6120	38.5370
 1.6130	38.5880
 1.6140	38.6370
 1.6150	38.6840
 1.6160	38.7250
 1.6170	38.7650
 1.6180	38.8070
 1.6190	38.8520
 1.6200	38.8990
 1.6210	38.9460
 1.6220	38.9910
 1.6230	39.0320
 1.6240	39.0780
 1.6250	39.1210
 1.6260	39.1600
 1.6270	39.2000
 1.6280	39.2330
 1.6290	39.2670
 1.6300	39.2980
 1.6310	39.3310
 1.6320	39.3640
 1.6330	39.4000
 1.6340	39.4410
 1.6350	39.4780
 1.6360	39.5150
 1.6370	39.5490
 1.6380	39.5780
 1.6390	39.6060
 1.6400	39.6330
 1.6410	39.6570
 1.6420	39.6780
 1.6430	39.6980
 1.6440	39.7160
 1.6450	39.7360
 1.6460	39.7580
 1.6470	39.7780
 1.6480	39.8010
 1.6490	39.8200
 1.6500	39.8370
 1.6510	39.8590
 1.6520	39.8770
 1.6530	39.8920
 1.6540	39.9060
 1.6550	39.9110
 1.6560	39.9150
 1.6570	39.9210
 1.6580	39.9250
 1.6590	39.9310
 1.6600	39.9370
 1.6610	39.9410
 1.6620	39.9480
 1.6630	39.9530
 1.6640	39.9560
 1.6650	39.9600
 1.6660	39.9630
 1.6670	39.9640
 1.6680	39.9620
 1.6690	39.9590
 1.6700	39.9520
 1.6710	39.9430
 1.6720	39.9340
 1.6730	39.9240
 1.6740	39.9130
 1.6750	39.8980
 1.6760	39.8850
 1.6770	39.8690
 1.6780	39.8460
 1.6790	39.8250
 1.6800	39.8070
 1.6810	39.7850
 1.6820	39.7630
 1.6830	39.7380
 1.6840	39.7060
 1.6850	39.6760
 1.6860	39.6490
 1.6870	39.6190
 1.6880	39.5930
 1.6890	39.5620
 1.6900	39.5340
 1.6910	39.5130
 1.6920	39.4840
 1.6930	39.4550
 1.6940	39.4230
 1.6950	39.3840
 1.6960	39.3500
 1.6970	39.3180
 1.6980	39.2830
 1.6990	39.2470
 1.7000	39.2130
 1.7010	39.1790
 1.7020	39.1430
 1.7030	39.1120
 1.7040	39.0730
 1.7050	39.0250
 1.7060	38.9850
 1.7070	38.9450
 1.7080	38.9050
 1.7090	38.8680
 1.7100	38.8290
 1.7110	38.7900
 1.7120	38.7480
 1.7130	38.7050
 1.7140	38.6600
 1.7150	38.6150
 1.7160	38.5710
 1.7170	38.5260
 1.7180	38.4790
 1.7190	38.4290
 1.7200	38.3780
 1.7210	38.3280
 1.7220	38.2790
 1.7230	38.2260
 1.7240	38.1710
 1.7250	38.1160
 1.7260	38.0600
 1.7270	38.0050
 1.7280	37.9540
 1.7290	37.9060
 1.7300	37.8560
 1.7310	37.8070
 1.7320	37.7610
 1.7330	37.7130
 1.7340	37.6650
 1.7350	37.6180
 1.7360	37.5720
 1.7370	37.5220
 1.7380	37.4740
 1.7390	37.4220
 1.7400	37.3670
 1.7410	37.3100
 1.7420	37.2520
 1.7430	37.1910
 1.7440	37.1280
 1.7450	37.0600
 1.7460	36.9860
 1.7470	36.9140
 1.7480	36.8390
 1.7490	36.7640
 1.7500	36.6910
 1.7510	36.6150
 1.7520	36.5360
 1.7530	36.4600
 1.7540	36.3860
 1.7550	36.3150
 1.7560	36.2390
 1.7570	36.1590
 1.7580	36.0850
 1.7590	36.0130
 1.7600	35.9400
 1.7610	35.8680
 1.7620	35.7960
 1.7630	35.7220
 1.7640	35.6500
 1.7650	35.5790
 1.7660	35.5120
 1.7670	35.4460
 1.7680	35.3860
 1.7690	35.3370
 1.7700	35.2830
 1.7710	35.2300
 1.7720	35.1760
 1.7730	35.1200
 1.7740	35.0690
 1.7750	35.0230
 1.7760	34.9770
 1.7770	34.9350
 1.7780	34.8910
 1.7790	34.8460
 1.7800	34.8050
 1.7810	34.7650
 1.7820	34.7270
 1.7830	34.6920
 1.7840	34.6590
 1.7850	34.6250
 1.7860	34.5970
 1.7870	34.5750
 1.7880	34.5570
 1.7890	34.5350
 1.7900	34.5160
 1.7910	34.4980
 1.7920	34.4760
 1.7930	34.4600
 1.7940	34.4520
 1.7950	34.4420
 1.7960	34.4360
 1.7970	34.4280
 1.7980	34.4180
 1.7990	34.4090
 1.8000	34.4000
 1.8010	34.3930
 1.8020	34.3860
 1.8030	34.3790
 1.8040	34.3730
 1.8050	34.3690
 1.8060	34.3660
 1.8070	34.3640
 1.8080	34.3630
 1.8090	34.3630
 1.8100	34.3640
 1.8110	34.3590
 1.8120	34.3540
 1.8130	34.3450
 1.8140	34.3340
 1.8150	34.3250
 1.8160	34.3130
 1.8170	34.3040
 1.8180	34.2930
 1.8190	34.2860
 1.8200	34.2770
 1.8210	34.2650
 1.8220	34.2510
 1.8230	34.2350
 1.8240	34.2180
 1.8250	34.1990
 1.8260	34.1760
 1.8270	34.1540
 1.8280	34.1290
 1.8290	34.0990
 1.8300	33.9540
 1.8310	33.7270
 1.8320	33.5690
 1.8330	33.5220
 1.8340	33.4740
 1.8350	33.4170
 1.8360	33.3590
 1.8370	33.3030
 1.8380	33.2400
 1.8390	33.1640
 1.8400	33.0830
 1.8410	32.9940
 1.8420	32.8970
 1.8430	32.7840
 1.8440	32.6750
 1.8450	32.5590
 1.8460	32.4290
 1.8470	32.2950
 1.8480	32.1500
 1.8490	31.9930
 1.8500	31.8230
 1.8510	31.6420
 1.8520	31.4470
 1.8530	31.2430
 1.8540	31.0180
 1.8550	30.7760
 1.8560	30.5180
 1.8570	30.2360
 1.8580	29.9400
 1.8590	29.6340
 1.8600	29.3160
 1.8610	28.9780
 1.8620	28.6220
 1.8630	28.2470
 1.8640	27.8480
 1.8650	27.4280
 1.8660	26.9920
 1.8670	26.5290
 1.8680	26.0430
 1.8690	25.5350
 1.8700	25.0010
 1.8710	24.4410
 1.8720	23.8670
 1.8730	23.2740
 1.8740	22.6680
 1.8750	22.0540
 1.8760	21.4320
 1.8770	20.8090
 1.8780	20.1850
 1.8790	19.5550
 1.8800	18.9340
 1.8810	18.3170
 1.8820	17.7020
 1.8830	17.0850
 1.8840	16.4790
 1.8850	15.8830
 1.8860	15.3000
 1.8870	14.7350
 1.8880	14.1870
 1.8890	13.6560
 1.8900	13.1450
 1.8910	12.6610
 1.8920	12.1970
 1.8930	11.7640
 1.8940	11.3600
 1.8950	10.9840
 1.8960	10.6370
 1.8970	10.3140
 1.8980	10.0130
 1.8990	 9.7360
 1.9000	 9.4810
 1.9010	 9.2520
 1.9020	 9.0400
 1.9030	 8.8510
 1.9040	 8.6800
 1.9050	 8.5280
 1.9060	 8.3910
 1.9070	 8.2690
 1.9080	 8.1610
 1.9090	 8.0660
 1.9100	 7.9840
 1.9110	 7.9090
 1.9120	 7.8430
 1.9130	 7.7870
 1.9140	 7.7390
 1.9150	 7.6980
 1.9160	 7.6630
 1.9170	 7.6320
 1.9180	 7.6040
 1.9190	 7.5790
 1.9200	 7.5630
 1.9210	 7.5550
 1.9220	 7.5500
 1.9230	 7.5540
 1.9240	 7.5560
 1.9250	 7.5580
 1.9260	 7.5630
 1.9270	 7.5730
 1.9280	 7.5830
 1.9290	 7.6030
 1.9300	 7.6250
 1.9310	 7.6470
 1.9320	 7.6720
 1.9330	 7.6970
 1.9340	 7.7200
 1.9350	 7.7530
 1.9360	 7.7930
 1.9370	 7.8300
 1.9380	 7.8720
 1.9390	 7.9130
 1.9400	 7.9520
 1.9410	 7.9950
 1.9420	 8.0450
 1.9430	 8.0970
 1.9440	 8.1490
 1.9450	 8.2040
 1.9460	 8.2580
 1.9470	 8.3100
 1.9480	 8.3660
 1.9490	 8.4230
 1.9500	 8.4840
 1.9510	 8.5460
 1.9520	 8.6090
 1.9530	 8.6690
 1.9540	 8.7310
 1.9550	 8.7960
 1.9560	 8.8600
 1.9570	 8.9300
 1.9580	 9.0070
 1.9590	 9.0810
 1.9600	 9.1620
 1.9610	 9.2370
 1.9620	 9.3100
 1.9630	 9.3850
 1.9640	 9.4600
 1.9650	 9.5320
 1.9660	 9.6100
 1.9670	 9.6900
 1.9680	 9.7710
 1.9690	 9.8530
 1.9700	 9.9370
 1.9710	10.0210
 1.9720	10.1060
 1.9730	10.1920
 1.9740	10.2780
 1.9750	10.3670
 1.9760	10.4570
 1.9770	10.5460
 1.9780	10.6380
 1.9790	10.7310
 1.9800	10.8240
 1.9810	10.9190
 1.9820	11.0200
 1.9830	11.1180
 1.9840	11.2150
 1.9850	11.3120
 1.9860	11.4080
 1.9870	11.5020
 1.9880	11.6040
 1.9890	11.7020
 1.9900	11.7990
 1.9910	11.9020
 1.9920	12.0030
 1.9930	12.1010
 1.9940	12.2020
 1.9950	12.3060
 1.9960	12.4070
 1.9970	12.5070
 1.9980	12.6090
 1.9990	12.7150
 2.0000	12.8160
 2.0010	12.9150
 2.0020	13.0170
 2.0030	13.1130
 2.0040	13.2130
 2.0050	13.3140
 2.0060	13.4200
 2.0070	13.5220
 2.0080	13.6220
 2.0090	13.7230
 2.0100	13.8250
 2.0110	13.9260
 2.0120	14.0280
 2.0130	14.1270
 2.0140	14.2230
 2.0150	14.3170
 2.0160	14.4170
 2.0170	14.5150
 2.0180	14.6080
 2.0190	14.6990
 2.0200	14.7940
 2.0210	14.8870
 2.0220	14.9790
 2.0230	15.0760
 2.0240	15.1680
 2.0250	15.2540
 2.0260	15.3430
 2.0270	15.4330
 2.0280	15.5230
 2.0290	15.6160
 2.0300	15.7050
 2.0310	15.7910
 2.0320	15.8720
 2.0330	15.9540
 2.0340	16.0290
 2.0350	16.1090
 2.0360	16.1890
 2.0370	16.2700
 2.0380	16.3510
 2.0390	16.4300
 2.0400	16.5110
 2.0410	16.5890
 2.0420	16.6640
 2.0430	16.7390
 2.0440	16.8130
 2.0450	16.8840
 2.0460	16.9600
 2.0470	17.0390
 2.0480	17.1120
 2.0490	17.1830
 2.0500	17.2560
 2.0510	17.3240
 2.0520	17.3970
 2.0530	17.4770
 2.0540	17.5520
 2.0550	17.6270
 2.0560	17.7030
 2.0570	17.7780
 2.0580	17.8490
 2.0590	17.9230
 2.0600	18.0000
 2.0610	18.0730
 2.0620	18.1440
 2.0630	18.2170
 2.0640	18.2880
 2.0650	18.3610
 2.0660	18.4340
 2.0670	18.5090
 2.0680	18.5860
 2.0690	18.6610
 2.0700	18.7380
 2.0710	18.8120
 2.0720	18.8790
 2.0730	18.9510
 2.0740	19.0260
 2.0750	19.1060
 2.0760	19.1830
 2.0770	19.2670
 2.0780	19.3400
 2.0790	19.4060
 2.0800	19.4750
 2.0810	19.5410
 2.0820	19.6060
 2.0830	19.6690
 2.0840	19.7360
 2.0850	19.8070
 2.0860	19.8750
 2.0870	19.9410
 2.0880	20.0110
 2.0890	20.0790
 2.0900	20.1440
 2.0910	20.2120
 2.0920	20.2860
 2.0930	20.3530
 2.0940	20.4140
 2.0950	20.4800
 2.0960	20.5460
 2.0970	20.6150
 2.0980	20.6930
 2.0990	20.7640
 2.1000	20.8320
 2.1010	20.9030
 2.1020	20.9730
 2.1030	21.0390
 2.1040	21.1040
 2.1050	21.1700
 2.1060	21.2330
 2.1070	21.2900
 2.1080	21.3550
 2.1090	21.4240
 2.1100	21.4890
 2.1110	21.5530
 2.1120	21.6170
 2.1130	21.6800
 2.1140	21.7400
 2.1150	21.7970
 2.1160	21.8580
 2.1170	21.9140
 2.1180	21.9770
 2.1190	22.0560
 2.1200	22.1230
 2.1210	22.1890
 2.1220	22.2520
 2.1230	22.3150
 2.1240	22.3700
 2.1250	22.4290
 2.1260	22.4910
 2.1270	22.5500
 2.1280	22.6080
 2.1290	22.6610
 2.1300	22.7130
 2.1310	22.7630
 2.1320	22.8060
 2.1330	22.8530
 2.1340	22.8990
 2.1350	22.9460
 2.1360	22.9980
 2.1370	23.0420
 2.1380	23.0760
 2.1390	23.1180
 2.1400	23.1600
 2.1410	23.1970
 2.1420	23.2370
 2.1430	23.2850
 2.1440	23.3230
 2.1450	23.3550
 2.1460	23.3880
 2.1470	23.4180
 2.1480	23.4500
 2.1490	23.4810
 2.1500	23.5140
 2.1510	23.5480
 2.1520	23.5820
 2.1530	23.6220
 2.1540	23.6540
 2.1550	23.6850
 2.1560	23.7120
 2.1570	23.7270
 2.1580	23.7480
 2.1590	23.7720
 2.1600	23.7900
 2.1610	23.8060
 2.1620	23.8250
 2.1630	23.8390
 2.1640	23.8470
 2.1650	23.8590
 2.1660	23.8720
 2.1670	23.8870
 2.1680	23.9030
 2.1690	23.9180
 2.1700	23.9330
 2.1710	23.9480
 2.1720	23.9640
 2.1730	23.9780
 2.1740	23.9850
 2.1750	24.0020
 2.1760	24.0200
 2.1770	24.0390
 2.1780	24.0700
 2.1790	24.0920
 2.1800	24.1070
 2.1810	24.1210
 2.1820	24.1300
 2.1830	24.1370
 2.1840	24.1510
 2.1850	24.1660
 2.1860	24.1850
 2.1870	24.2100
 2.1880	24.2320
 2.1890	24.2550
 2.1900	24.2730
 2.1910	24.2890
 2.1920	24.3010
 2.1930	24.3050
 2.1940	24.3160
 2.1950	24.3300
 2.1960	24.3390
 2.1970	24.3510
 2.1980	24.3560
 2.1990	24.3480
 2.2000	24.3490
 2.2010	24.3550
 2.2020	24.3550
 2.2030	24.3520
 2.2040	24.3540
 2.2050	24.3560
 2.2060	24.3540
 2.2070	24.3600
 2.2080	24.3770
 2.2090	24.3820
 2.2100	24.3880
 2.2110	24.3870
 2.2120	24.3780
 2.2130	24.3720
 2.2140	24.3670
 2.2150	24.3560
 2.2160	24.3400
 2.2170	24.3320
 2.2180	24.3260
 2.2190	24.3170
 2.2200	24.3120
 2.2210	24.3050
 2.2220	24.2910
 2.2230	24.2790
 2.2240	24.2740
 2.2250	24.2630
 2.2260	24.2490
 2.2270	24.2310
 2.2280	24.2080
 2.2290	24.1840
 2.2300	24.1570
 2.2310	24.1230
 2.2320	24.1000
 2.2330	24.0760
 2.2340	24.0410
 2.2350	24.0060
 2.2360	23.9600
 2.2370	23.8980
 2.2380	23.8460
 2.2390	23.7930
 2.2400	23.7430
 2.2410	23.6980
 2.2420	23.6460
 2.2430	23.5910
 2.2440	23.5390
 2.2450	23.4840
 2.2460	23.4320
 2.2470	23.3890
 2.2480	23.3340
 2.2490	23.2730
 2.2500	23.2140
 2.2510	23.1480
 2.2520	23.0870
 2.2530	23.0300
 2.2540	22.9700
 2.2550	22.9090
 2.2560	22.8470
 2.2570	22.7850
 2.2580	22.7250
 2.2590	22.6670
 2.2600	22.6040
 2.2610	22.5420
 2.2620	22.4730
 2.2630	22.4040
 2.2640	22.3390
 2.2650	22.2660
 2.2660	22.2060
 2.2670	22.1410
 2.2680	22.0710
 2.2690	22.0120
 2.2700	21.9600
 2.2710	21.9030
 2.2720	21.8520
 2.2730	21.7930
 2.2740	21.7240
 2.2750	21.6660
 2.2760	21.6090
 2.2770	21.5550
 2.2780	21.5110
 2.2790	21.4600
 2.2800	21.4070
 2.2810	21.3590
 2.2820	21.3140
 2.2830	21.2700
 2.2840	21.2300
 2.2850	21.1880
 2.2860	21.1470
 2.2870	21.1040
 2.2880	21.0610
 2.2890	21.0150
 2.2900	20.9720
 2.2910	20.9180
 2.2920	20.8530
 2.2930	20.7940
 2.2940	20.7250
 2.2950	20.6610
 2.2960	20.6120
 2.2970	20.5470
 2.2980	20.4680
 2.2990	20.3990
 2.3000	20.3170
 2.3010	20.2380
 2.3020	20.1720
 2.3030	20.1040
 2.3040	20.0370
 2.3050	19.9630
 2.3060	19.8920
 2.3070	19.8240
 2.3080	19.7670
 2.3090	19.7180
 2.3100	19.6700
 2.3110	19.6190
 2.3120	19.5560
 2.3130	19.4790
 2.3140	19.4180
 2.3150	19.3550
 2.3160	19.3010
 2.3170	19.2580
 2.3180	19.2180
 2.3190	19.1840
 2.3200	19.1440
 2.3210	19.1090
 2.3220	19.0650
 2.3230	19.0050
 2.3240	18.9590
 2.3250	18.9200
 2.3260	18.8750
 2.3270	18.8350
 2.3280	18.7860
 2.3290	18.7240
 2.3300	18.6710
 2.3310	18.6230
 2.3320	18.5670
 2.3330	18.5130
 2.3340	18.4510
 2.3350	18.3730
 2.3360	18.3120
 2.3370	18.2660
 2.3380	18.2050
 2.3390	18.1420
 2.3400	18.0800
 2.3410	18.0090
 2.3420	17.9370
 2.3430	17.8660
 2.3440	17.7980
 2.3450	17.7180
 2.3460	17.6530
 2.3470	17.6110
 2.3480	17.5570
 2.3490	17.5060
 2.3500	17.4520
 2.3510	17.3840
 2.3520	17.3260
 2.3530	17.2730
 2.3540	17.2210
 2.3550	17.1720
 2.3560	17.1310
 2.3570	17.0760
 2.3580	17.0070
 2.3590	16.9520
 2.3600	16.8860
 2.3610	16.8210
 2.3620	16.7890
 2.3630	16.7390
 2.3640	16.6830
 2.3650	16.6330
 2.3660	16.5530
 2.3670	16.4750
 2.3680	16.4040
 2.3690	16.3340
 2.3700	16.2890
 2.3710	16.2360
 2.3720	16.1830
 2.3730	16.1350
 2.3740	16.0630
 2.3750	15.9970
 2.3760	15.9270
 2.3770	15.8520
 2.3780	15.7970
 2.3790	15.7530
 2.3800	15.7010
 2.3810	15.6500
 2.3820	15.5970
 2.3830	15.5150
 2.3840	15.4390
 2.3850	15.3720
 2.3860	15.2860
 2.3870	15.2060
 2.3880	15.1440
 2.3890	15.0950
 2.3900	15.0530
 2.3910	15.0090
 2.3920	14.9540
 2.3930	14.8790
 2.3940	14.7990
 2.3950	14.7430
 2.3960	14.6890
 2.3970	14.6170
 2.3980	14.5390
 2.3990	14.4610
 2.4000	14.3900
 2.4010	14.3300
 2.4020	14.2980
 2.4030	14.2530
 2.4040	14.1850
 2.4050	14.1230
 2.4060	14.0510
 2.4070	13.9820
 2.4080	13.9240
 2.4090	13.8440
 2.4100	13.7640
 2.4110	13.7080
 2.4120	13.6370
 2.4130	13.5830
 2.4140	13.5190
 2.4150	13.4330
 2.4160	13.3860
 2.4170	13.3380
 2.4180	13.2930
 2.4190	13.2410
 2.4200	13.1670
 2.4210	13.1050
 2.4220	13.0370
 2.4230	12.9770
 2.4240	12.9250
 2.4250	12.8440
 2.4260	12.7730
 2.4270	12.7150
 2.4280	12.6370
 2.4290	12.5440
 2.4300	12.4490
 2.4310	12.3630
 2.4320	12.2570
 2.4330	12.1680
 2.4340	12.1200
 2.4350	12.0530
 2.4360	11.9940
 2.4370	11.9600
 2.4380	11.9010
 2.4390	11.8480
 2.4400	11.8190
 2.4410	11.7830
 2.4420	11.7210
 2.4430	11.6480
 2.4440	11.5460
 2.4450	11.4390
 2.4460	11.3870
 2.4470	11.3430
 2.4480	11.3110
 2.4490	11.2690
 2.4500	11.1960
 2.4510	11.1170
 2.4520	11.0220
 2.4530	10.9240
 2.4540	10.8300
 2.4550	10.7430
 2.4560	10.6570
 2.4570	10.5960
 2.4580	10.5850
 2.4590	10.5640
 2.4600	10.5340
 2.4610	10.4970
 2.4620	10.3980
 2.4630	10.3000
 2.4640	10.2410
 2.4650	10.1810
 2.4660	10.1330
 2.4670	10.0970
 2.4680	10.0190
 2.4690	 9.9640
 2.4700	 9.9250
 2.4710	 9.8890
 2.4720	 9.8680
 2.4730	 9.8820
 2.4740	 9.8290
 2.4750	 9.7220
 2.4760	 9.6670
 2.4770	 9.5980
 2.4780	 9.5610
 2.4790	 9.6060
 2.4800	 9.5830
 2.4810	 9.5330
 2.4820	 9.4270
 2.4830	 9.3530
 2.4840	 9.3320
 2.4850	 9.2470
 2.4860	 9.2040
 2.4870	 9.1790
 2.4880	 9.1070
 2.4890	 9.1140
 2.4900	 9.1000
 2.4910	 9.0500
 2.4920	 9.0130
 2.4930	 8.9340
 2.4940	 8.9320
 2.4950	 8.9060
 2.4960	 8.8970
 2.4970	 8.9220
 2.4980	 8.9340
 2.4990	 9.0320
 2.5000	 9.0780
