Name: Ficus thonningii
Type: vegetation
Class: Tree
Genus: Ficus
Species: thonningii
Sample No.: JPL099
Owner: JPL
Wavelength Range: VSWIR
Origin: 34.12627; - 118.11182; WGS84
Collection Date: 2/2/2016
Description: Samples were collected at the Huntington Garden in San Marino California as part of a JPL Subcontract studying HyTES imagery. Samples were taken to JPL and processed within 48 hours of collection. The same leaves were processed in the Nicolet and then measured using the ASD.
Measurement: Bidirectional reflectance
First Column: X
Second Column: Y
X Units: Wavelength (micrometer)
Y Units: Reflectance (percentage)
First X Value: 0.35
Last X Value: 2.5
Number of X Values: 2151
Additional Information: 

 0.3500	12.3130
 0.3510	14.4470
 0.3520	13.5680
 0.3530	11.5480
 0.3540	10.8570
 0.3550	11.3130
 0.3560	11.7760
 0.3570	11.9760
 0.3580	12.0860
 0.3590	11.9500
 0.3600	11.6700
 0.3610	11.3880
 0.3620	11.2160
 0.3630	11.5290
 0.3640	11.9120
 0.3650	11.9400
 0.3660	11.8560
 0.3670	11.5800
 0.3680	11.4160
 0.3690	11.8490
 0.3700	12.1580
 0.3710	11.7820
 0.3720	10.9490
 0.3730	11.3980
 0.3740	11.6680
 0.3750	11.4360
 0.3760	10.9640
 0.3770	11.4100
 0.3780	11.5170
 0.3790	11.3210
 0.3800	11.9400
 0.3810	11.9070
 0.3820	11.9390
 0.3830	12.4090
 0.3840	12.1340
 0.3850	11.9490
 0.3860	11.6510
 0.3870	10.9510
 0.3880	11.2970
 0.3890	11.7620
 0.3900	11.8380
 0.3910	11.6230
 0.3920	11.7300
 0.3930	11.7770
 0.3940	11.5270
 0.3950	11.6890
 0.3960	11.6560
 0.3970	11.4680
 0.3980	11.4440
 0.3990	11.4700
 0.4000	11.6230
 0.4010	11.7660
 0.4020	11.4690
 0.4030	11.4240
 0.4040	11.4710
 0.4050	11.4160
 0.4060	11.7860
 0.4070	11.6130
 0.4080	11.1740
 0.4090	11.4670
 0.4100	11.7810
 0.4110	11.8290
 0.4120	11.5990
 0.4130	11.4250
 0.4140	11.3330
 0.4150	11.3440
 0.4160	11.4250
 0.4170	11.3870
 0.4180	11.3860
 0.4190	11.4560
 0.4200	11.5070
 0.4210	11.5080
 0.4220	11.4750
 0.4230	11.4480
 0.4240	11.4980
 0.4250	11.4750
 0.4260	11.4370
 0.4270	11.4990
 0.4280	11.4390
 0.4290	11.3740
 0.4300	11.3860
 0.4310	11.4700
 0.4320	11.3920
 0.4330	11.2190
 0.4340	11.0950
 0.4350	11.1150
 0.4360	11.1510
 0.4370	11.1600
 0.4380	11.1740
 0.4390	11.2510
 0.4400	11.3650
 0.4410	11.4610
 0.4420	11.4620
 0.4430	11.4240
 0.4440	11.3680
 0.4450	11.3180
 0.4460	11.3650
 0.4470	11.4180
 0.4480	11.4500
 0.4490	11.5190
 0.4500	11.5190
 0.4510	11.4220
 0.4520	11.2810
 0.4530	11.3350
 0.4540	11.3970
 0.4550	11.3970
 0.4560	11.3570
 0.4570	11.4010
 0.4580	11.4570
 0.4590	11.4620
 0.4600	11.4050
 0.4610	11.3700
 0.4620	11.3990
 0.4630	11.4830
 0.4640	11.4890
 0.4650	11.4660
 0.4660	11.4650
 0.4670	11.5170
 0.4680	11.5420
 0.4690	11.5520
 0.4700	11.5560
 0.4710	11.4820
 0.4720	11.4850
 0.4730	11.5310
 0.4740	11.5040
 0.4750	11.5350
 0.4760	11.5650
 0.4770	11.5530
 0.4780	11.5260
 0.4790	11.5030
 0.4800	11.4640
 0.4810	11.4010
 0.4820	11.4360
 0.4830	11.4530
 0.4840	11.4150
 0.4850	11.3700
 0.4860	11.3870
 0.4870	11.4060
 0.4880	11.3860
 0.4890	11.4010
 0.4900	11.3680
 0.4910	11.3340
 0.4920	11.3970
 0.4930	11.4870
 0.4940	11.4990
 0.4950	11.4460
 0.4960	11.4990
 0.4970	11.5200
 0.4980	11.5170
 0.4990	11.5320
 0.5000	11.5780
 0.5010	11.6270
 0.5020	11.6540
 0.5030	11.6400
 0.5040	11.6440
 0.5050	11.6810
 0.5060	11.7300
 0.5070	11.7050
 0.5080	11.7150
 0.5090	11.7660
 0.5100	11.8140
 0.5110	11.8220
 0.5120	11.8400
 0.5130	11.8970
 0.5140	11.9760
 0.5150	12.0540
 0.5160	12.0990
 0.5170	12.1140
 0.5180	12.2270
 0.5190	12.3220
 0.5200	12.3940
 0.5210	12.5290
 0.5220	12.6750
 0.5230	12.7810
 0.5240	12.8380
 0.5250	12.9310
 0.5260	13.0530
 0.5270	13.1780
 0.5280	13.2710
 0.5290	13.3740
 0.5300	13.4710
 0.5310	13.5580
 0.5320	13.6430
 0.5330	13.7080
 0.5340	13.7680
 0.5350	13.8280
 0.5360	13.8510
 0.5370	13.8800
 0.5380	13.9230
 0.5390	13.9590
 0.5400	13.9250
 0.5410	13.8290
 0.5420	13.7140
 0.5430	13.6560
 0.5440	13.6600
 0.5450	13.7120
 0.5460	13.7920
 0.5470	13.9290
 0.5480	14.0320
 0.5490	14.0700
 0.5500	14.1090
 0.5510	14.1350
 0.5520	14.1540
 0.5530	14.1740
 0.5540	14.1890
 0.5550	14.1840
 0.5560	14.1600
 0.5570	14.1330
 0.5580	14.0890
 0.5590	14.0350
 0.5600	13.9770
 0.5610	13.9180
 0.5620	13.8260
 0.5630	13.7320
 0.5640	13.6780
 0.5650	13.6090
 0.5660	13.5250
 0.5670	13.4380
 0.5680	13.3680
 0.5690	13.2840
 0.5700	13.1960
 0.5710	13.1170
 0.5720	13.0350
 0.5730	12.9560
 0.5740	12.8910
 0.5750	12.8460
 0.5760	12.7780
 0.5770	12.7180
 0.5780	12.6750
 0.5790	12.6010
 0.5800	12.5380
 0.5810	12.4970
 0.5820	12.4700
 0.5830	12.4340
 0.5840	12.4200
 0.5850	12.4190
 0.5860	12.3760
 0.5870	12.3410
 0.5880	12.3270
 0.5890	12.3280
 0.5900	12.3240
 0.5910	12.3110
 0.5920	12.2970
 0.5930	12.2920
 0.5940	12.2670
 0.5950	12.2460
 0.5960	12.2490
 0.5970	12.2820
 0.5980	12.2640
 0.5990	12.2270
 0.6000	12.2250
 0.6010	12.2150
 0.6020	12.2050
 0.6030	12.1990
 0.6040	12.1940
 0.6050	12.1910
 0.6060	12.1730
 0.6070	12.1300
 0.6080	12.0790
 0.6090	12.0060
 0.6100	11.8920
 0.6110	11.7410
 0.6120	11.7120
 0.6130	11.7620
 0.6140	11.8320
 0.6150	11.8560
 0.6160	11.8660
 0.6170	11.8640
 0.6180	11.8500
 0.6190	11.8620
 0.6200	11.8550
 0.6210	11.8230
 0.6220	11.7860
 0.6230	11.7910
 0.6240	11.8010
 0.6250	11.7950
 0.6260	11.8180
 0.6270	11.8230
 0.6280	11.8240
 0.6290	11.8490
 0.6300	11.8340
 0.6310	11.8100
 0.6320	11.8020
 0.6330	11.8210
 0.6340	11.8410
 0.6350	11.8480
 0.6360	11.8390
 0.6370	11.8230
 0.6380	11.8200
 0.6390	11.8230
 0.6400	11.8090
 0.6410	11.7970
 0.6420	11.7830
 0.6430	11.7680
 0.6440	11.7700
 0.6450	11.7590
 0.6460	11.7400
 0.6470	11.7320
 0.6480	11.7420
 0.6490	11.7550
 0.6500	11.7580
 0.6510	11.7450
 0.6520	11.7380
 0.6530	11.7360
 0.6540	11.7400
 0.6550	11.7600
 0.6560	11.7820
 0.6570	11.7920
 0.6580	11.7870
 0.6590	11.8030
 0.6600	11.8050
 0.6610	11.7910
 0.6620	11.7930
 0.6630	11.8090
 0.6640	11.8280
 0.6650	11.8400
 0.6660	11.8360
 0.6670	11.8510
 0.6680	11.8810
 0.6690	11.9040
 0.6700	11.9020
 0.6710	11.9080
 0.6720	11.9370
 0.6730	11.9810
 0.6740	11.9900
 0.6750	11.9990
 0.6760	12.0400
 0.6770	12.0650
 0.6780	12.0850
 0.6790	12.1130
 0.6800	12.1590
 0.6810	12.2160
 0.6820	12.2480
 0.6830	12.2570
 0.6840	12.3170
 0.6850	12.3680
 0.6860	12.3970
 0.6870	12.4150
 0.6880	12.4470
 0.6890	12.4860
 0.6900	12.5390
 0.6910	12.6240
 0.6920	12.7150
 0.6930	12.8170
 0.6940	12.9550
 0.6950	13.1920
 0.6960	13.4590
 0.6970	13.7670
 0.6980	14.1510
 0.6990	14.5860
 0.7000	15.0960
 0.7010	15.6830
 0.7020	16.3320
 0.7030	17.0030
 0.7040	17.7150
 0.7050	18.4820
 0.7060	19.2750
 0.7070	20.0930
 0.7080	20.9360
 0.7090	21.8100
 0.7100	22.7260
 0.7110	23.6730
 0.7120	24.6310
 0.7130	25.5860
 0.7140	26.5920
 0.7150	27.6040
 0.7160	28.5920
 0.7170	29.6170
 0.7180	30.6710
 0.7190	31.7230
 0.7200	32.7390
 0.7210	33.7860
 0.7220	34.8320
 0.7230	35.8620
 0.7240	36.8890
 0.7250	37.8690
 0.7260	38.8230
 0.7270	39.7710
 0.7280	40.7100
 0.7290	41.6090
 0.7300	42.4620
 0.7310	43.2740
 0.7320	44.0690
 0.7330	44.8380
 0.7340	45.5710
 0.7350	46.2580
 0.7360	46.9000
 0.7370	47.5060
 0.7380	48.0820
 0.7390	48.6290
 0.7400	49.1370
 0.7410	49.6070
 0.7420	50.0470
 0.7430	50.4670
 0.7440	50.8670
 0.7450	51.2270
 0.7460	51.5180
 0.7470	51.8240
 0.7480	52.1130
 0.7490	52.3560
 0.7500	52.5780
 0.7510	52.7800
 0.7520	52.9590
 0.7530	53.1190
 0.7540	53.2780
 0.7550	53.4180
 0.7560	53.5390
 0.7570	53.6590
 0.7580	53.7640
 0.7590	53.8560
 0.7600	53.9360
 0.7610	54.0000
 0.7620	54.0770
 0.7630	54.1460
 0.7640	54.1820
 0.7650	54.2190
 0.7660	54.2700
 0.7670	54.3200
 0.7680	54.3450
 0.7690	54.3600
 0.7700	54.3780
 0.7710	54.4040
 0.7720	54.4370
 0.7730	54.4500
 0.7740	54.4580
 0.7750	54.4740
 0.7760	54.4700
 0.7770	54.4810
 0.7780	54.5030
 0.7790	54.5170
 0.7800	54.5260
 0.7810	54.5250
 0.7820	54.5200
 0.7830	54.5250
 0.7840	54.5240
 0.7850	54.5250
 0.7860	54.5340
 0.7870	54.5420
 0.7880	54.5440
 0.7890	54.5420
 0.7900	54.5370
 0.7910	54.5230
 0.7920	54.5220
 0.7930	54.5340
 0.7940	54.5360
 0.7950	54.5210
 0.7960	54.5170
 0.7970	54.5230
 0.7980	54.4950
 0.7990	54.4870
 0.8000	54.4910
 0.8010	54.4880
 0.8020	54.4970
 0.8030	54.4710
 0.8040	54.4310
 0.8050	54.4190
 0.8060	54.4080
 0.8070	54.3990
 0.8080	54.3830
 0.8090	54.3550
 0.8100	54.3480
 0.8110	54.3530
 0.8120	54.3500
 0.8130	54.3120
 0.8140	54.3100
 0.8150	54.3260
 0.8160	54.3260
 0.8170	54.2860
 0.8180	54.2710
 0.8190	54.2810
 0.8200	54.2820
 0.8210	54.2480
 0.8220	54.2220
 0.8230	54.2180
 0.8240	54.2210
 0.8250	54.2240
 0.8260	54.2180
 0.8270	54.2000
 0.8280	54.1620
 0.8290	54.1570
 0.8300	54.1570
 0.8310	54.1360
 0.8320	54.1350
 0.8330	54.1360
 0.8340	54.1260
 0.8350	54.1010
 0.8360	54.0820
 0.8370	54.0950
 0.8380	54.1260
 0.8390	54.1270
 0.8400	54.1310
 0.8410	54.1270
 0.8420	54.1150
 0.8430	54.1130
 0.8440	54.1180
 0.8450	54.1230
 0.8460	54.1330
 0.8470	54.1660
 0.8480	54.1720
 0.8490	54.1630
 0.8500	54.1710
 0.8510	54.1660
 0.8520	54.1880
 0.8530	54.2220
 0.8540	54.2260
 0.8550	54.2230
 0.8560	54.2300
 0.8570	54.2410
 0.8580	54.2370
 0.8590	54.2660
 0.8600	54.2950
 0.8610	54.3020
 0.8620	54.2990
 0.8630	54.2990
 0.8640	54.3120
 0.8650	54.3340
 0.8660	54.3210
 0.8670	54.3390
 0.8680	54.3710
 0.8690	54.3820
 0.8700	54.4030
 0.8710	54.4250
 0.8720	54.4460
 0.8730	54.4660
 0.8740	54.4610
 0.8750	54.4830
 0.8760	54.5260
 0.8770	54.5270
 0.8780	54.5420
 0.8790	54.5580
 0.8800	54.5680
 0.8810	54.5890
 0.8820	54.5970
 0.8830	54.6110
 0.8840	54.6380
 0.8850	54.6320
 0.8860	54.6400
 0.8870	54.6570
 0.8880	54.6700
 0.8890	54.6730
 0.8900	54.6860
 0.8910	54.6900
 0.8920	54.6730
 0.8930	54.7440
 0.8940	54.7860
 0.8950	54.7850
 0.8960	54.7910
 0.8970	54.7710
 0.8980	54.7700
 0.8990	54.7980
 0.9000	54.8260
 0.9010	54.8450
 0.9020	54.8450
 0.9030	54.8330
 0.9040	54.8420
 0.9050	54.8630
 0.9060	54.8710
 0.9070	54.8570
 0.9080	54.8480
 0.9090	54.8870
 0.9100	54.9320
 0.9110	54.9430
 0.9120	54.9460
 0.9130	54.9360
 0.9140	54.9150
 0.9150	54.8900
 0.9160	54.8600
 0.9170	54.8740
 0.9180	54.9120
 0.9190	54.9220
 0.9200	54.8990
 0.9210	54.8830
 0.9220	54.8870
 0.9230	54.9060
 0.9240	54.9590
 0.9250	54.9060
 0.9260	54.8050
 0.9270	54.8310
 0.9280	54.8680
 0.9290	54.8440
 0.9300	54.7960
 0.9310	54.8300
 0.9320	54.7550
 0.9330	54.7060
 0.9340	54.7390
 0.9350	54.7620
 0.9360	54.7240
 0.9370	54.6960
 0.9380	54.6880
 0.9390	54.6050
 0.9400	54.5630
 0.9410	54.5710
 0.9420	54.5840
 0.9430	54.5110
 0.9440	54.4780
 0.9450	54.4510
 0.9460	54.3910
 0.9470	54.3360
 0.9480	54.3370
 0.9490	54.3350
 0.9500	54.2680
 0.9510	54.1540
 0.9520	54.1540
 0.9530	54.1690
 0.9540	54.0880
 0.9550	54.0230
 0.9560	53.9700
 0.9570	53.9100
 0.9580	53.8430
 0.9590	53.8570
 0.9600	53.8740
 0.9610	53.8550
 0.9620	53.7950
 0.9630	53.7070
 0.9640	53.7190
 0.9650	53.7410
 0.9660	53.6650
 0.9670	53.6850
 0.9680	53.7210
 0.9690	53.7060
 0.9700	53.6220
 0.9710	53.5860
 0.9720	53.5730
 0.9730	53.5460
 0.9740	53.4850
 0.9750	53.4640
 0.9760	53.4890
 0.9770	53.5590
 0.9780	53.6440
 0.9790	53.5630
 0.9800	53.5000
 0.9810	53.5400
 0.9820	53.6570
 0.9830	53.6020
 0.9840	53.6000
 0.9850	53.6490
 0.9860	53.6410
 0.9870	53.6240
 0.9880	53.6340
 0.9890	53.6890
 0.9900	53.7700
 0.9910	53.7620
 0.9920	53.7070
 0.9930	53.6430
 0.9940	53.5920
 0.9950	53.5450
 0.9960	53.5660
 0.9970	53.6410
 0.9980	53.7020
 0.9990	53.6440
 1.0000	53.6420
 1.0010	54.0430
 1.0020	54.0410
 1.0030	54.0260
 1.0040	53.9810
 1.0050	53.9870
 1.0060	54.0040
 1.0070	54.0220
 1.0080	54.0330
 1.0090	54.0300
 1.0100	54.0350
 1.0110	54.0410
 1.0120	54.0470
 1.0130	54.0720
 1.0140	54.0840
 1.0150	54.0820
 1.0160	54.0910
 1.0170	54.1010
 1.0180	54.0870
 1.0190	54.0830
 1.0200	54.1100
 1.0210	54.1720
 1.0220	54.1930
 1.0230	54.2030
 1.0240	54.2050
 1.0250	54.2110
 1.0260	54.1760
 1.0270	54.1890
 1.0280	54.2420
 1.0290	54.2760
 1.0300	54.3380
 1.0310	54.3620
 1.0320	54.3760
 1.0330	54.3500
 1.0340	54.3360
 1.0350	54.3000
 1.0360	54.3050
 1.0370	54.3720
 1.0380	54.4050
 1.0390	54.4680
 1.0400	54.4860
 1.0410	54.4660
 1.0420	54.4630
 1.0430	54.4430
 1.0440	54.4480
 1.0450	54.4690
 1.0460	54.4890
 1.0470	54.5280
 1.0480	54.5490
 1.0490	54.5690
 1.0500	54.5780
 1.0510	54.5650
 1.0520	54.5570
 1.0530	54.5660
 1.0540	54.5780
 1.0550	54.5920
 1.0560	54.6360
 1.0570	54.6410
 1.0580	54.6200
 1.0590	54.6150
 1.0600	54.5970
 1.0610	54.5950
 1.0620	54.6000
 1.0630	54.6180
 1.0640	54.6640
 1.0650	54.6830
 1.0660	54.7080
 1.0670	54.7190
 1.0680	54.7180
 1.0690	54.6910
 1.0700	54.6760
 1.0710	54.6600
 1.0720	54.6430
 1.0730	54.6100
 1.0740	54.6070
 1.0750	54.6200
 1.0760	54.6260
 1.0770	54.6440
 1.0780	54.6610
 1.0790	54.6800
 1.0800	54.6920
 1.0810	54.7180
 1.0820	54.7220
 1.0830	54.7010
 1.0840	54.6860
 1.0850	54.6540
 1.0860	54.6330
 1.0870	54.6350
 1.0880	54.6540
 1.0890	54.6620
 1.0900	54.6930
 1.0910	54.6920
 1.0920	54.6660
 1.0930	54.6510
 1.0940	54.6300
 1.0950	54.6120
 1.0960	54.5900
 1.0970	54.5810
 1.0980	54.5840
 1.0990	54.5740
 1.1000	54.5710
 1.1010	54.5600
 1.1020	54.5280
 1.1030	54.5040
 1.1040	54.5070
 1.1050	54.5250
 1.1060	54.5350
 1.1070	54.5700
 1.1080	54.5720
 1.1090	54.5540
 1.1100	54.5380
 1.1110	54.5070
 1.1120	54.4920
 1.1130	54.4780
 1.1140	54.4680
 1.1150	54.4720
 1.1160	54.4620
 1.1170	54.4380
 1.1180	54.4260
 1.1190	54.4110
 1.1200	54.4080
 1.1210	54.4020
 1.1220	54.4040
 1.1230	54.3950
 1.1240	54.3720
 1.1250	54.3440
 1.1260	54.3100
 1.1270	54.2690
 1.1280	54.2200
 1.1290	54.1660
 1.1300	54.0960
 1.1310	54.0420
 1.1320	53.9920
 1.1330	53.9370
 1.1340	53.9010
 1.1350	53.8380
 1.1360	53.7590
 1.1370	53.6710
 1.1380	53.5800
 1.1390	53.4770
 1.1400	53.3740
 1.1410	53.2720
 1.1420	53.1450
 1.1430	53.0220
 1.1440	52.9230
 1.1450	52.8290
 1.1460	52.7390
 1.1470	52.6730
 1.1480	52.5950
 1.1490	52.5090
 1.1500	52.4280
 1.1510	52.3460
 1.1520	52.2720
 1.1530	52.2010
 1.1540	52.1340
 1.1550	52.0700
 1.1560	52.0180
 1.1570	51.9690
 1.1580	51.9210
 1.1590	51.8920
 1.1600	51.8660
 1.1610	51.8420
 1.1620	51.8270
 1.1630	51.8200
 1.1640	51.8210
 1.1650	51.8120
 1.1660	51.8060
 1.1670	51.7950
 1.1680	51.7760
 1.1690	51.7560
 1.1700	51.7310
 1.1710	51.7130
 1.1720	51.6930
 1.1730	51.6820
 1.1740	51.6770
 1.1750	51.6790
 1.1760	51.6850
 1.1770	51.6730
 1.1780	51.6550
 1.1790	51.6400
 1.1800	51.6200
 1.1810	51.6100
 1.1820	51.6140
 1.1830	51.6140
 1.1840	51.6140
 1.1850	51.6000
 1.1860	51.5860
 1.1870	51.5790
 1.1880	51.5680
 1.1890	51.5580
 1.1900	51.5500
 1.1910	51.5280
 1.1920	51.5290
 1.1930	51.5520
 1.1940	51.5540
 1.1950	51.5620
 1.1960	51.5610
 1.1970	51.5330
 1.1980	51.5110
 1.1990	51.5020
 1.2000	51.5160
 1.2010	51.5430
 1.2020	51.5690
 1.2030	51.5870
 1.2040	51.5850
 1.2050	51.5950
 1.2060	51.5990
 1.2070	51.5920
 1.2080	51.6030
 1.2090	51.6080
 1.2100	51.6160
 1.2110	51.6290
 1.2120	51.6540
 1.2130	51.6740
 1.2140	51.6960
 1.2150	51.7060
 1.2160	51.7090
 1.2170	51.7130
 1.2180	51.7290
 1.2190	51.7490
 1.2200	51.7710
 1.2210	51.7920
 1.2220	51.7960
 1.2230	51.7920
 1.2240	51.8080
 1.2250	51.8240
 1.2260	51.8210
 1.2270	51.8250
 1.2280	51.8260
 1.2290	51.8290
 1.2300	51.8430
 1.2310	51.8680
 1.2320	51.9050
 1.2330	51.9180
 1.2340	51.9310
 1.2350	51.9420
 1.2360	51.9550
 1.2370	51.9570
 1.2380	51.9770
 1.2390	51.9970
 1.2400	52.0160
 1.2410	52.0240
 1.2420	52.0270
 1.2430	52.0440
 1.2440	52.0530
 1.2450	52.0620
 1.2460	52.0920
 1.2470	52.1180
 1.2480	52.1310
 1.2490	52.1450
 1.2500	52.1450
 1.2510	52.1350
 1.2520	52.1310
 1.2530	52.1320
 1.2540	52.1340
 1.2550	52.1370
 1.2560	52.1400
 1.2570	52.1510
 1.2580	52.1540
 1.2590	52.1530
 1.2600	52.1550
 1.2610	52.1560
 1.2620	52.1480
 1.2630	52.1480
 1.2640	52.1670
 1.2650	52.1660
 1.2660	52.1620
 1.2670	52.1600
 1.2680	52.1340
 1.2690	52.1150
 1.2700	52.1180
 1.2710	52.1130
 1.2720	52.1080
 1.2730	52.1130
 1.2740	52.1010
 1.2750	52.0770
 1.2760	52.0630
 1.2770	52.0550
 1.2780	52.0380
 1.2790	52.0260
 1.2800	52.0210
 1.2810	51.9920
 1.2820	51.9530
 1.2830	51.9330
 1.2840	51.9180
 1.2850	51.9030
 1.2860	51.8930
 1.2870	51.8800
 1.2880	51.8680
 1.2890	51.8370
 1.2900	51.8060
 1.2910	51.7820
 1.2920	51.7520
 1.2930	51.7160
 1.2940	51.6760
 1.2950	51.6360
 1.2960	51.6000
 1.2970	51.5510
 1.2980	51.5100
 1.2990	51.4750
 1.3000	51.4230
 1.3010	51.3850
 1.3020	51.3560
 1.3030	51.3120
 1.3040	51.2640
 1.3050	51.2040
 1.3060	51.1420
 1.3070	51.0930
 1.3080	51.0510
 1.3090	51.0060
 1.3100	50.9540
 1.3110	50.8930
 1.3120	50.8130
 1.3130	50.7340
 1.3140	50.6650
 1.3150	50.6010
 1.3160	50.5320
 1.3170	50.4680
 1.3180	50.4070
 1.3190	50.3360
 1.3200	50.2530
 1.3210	50.1710
 1.3220	50.0900
 1.3230	50.0050
 1.3240	49.9130
 1.3250	49.8270
 1.3260	49.7350
 1.3270	49.6260
 1.3280	49.5280
 1.3290	49.4290
 1.3300	49.3330
 1.3310	49.2390
 1.3320	49.1410
 1.3330	49.0560
 1.3340	48.9650
 1.3350	48.8670
 1.3360	48.7760
 1.3370	48.6740
 1.3380	48.5760
 1.3390	48.4870
 1.3400	48.3890
 1.3410	48.2840
 1.3420	48.1720
 1.3430	48.0650
 1.3440	47.9650
 1.3450	47.8660
 1.3460	47.7770
 1.3470	47.6830
 1.3480	47.5840
 1.3490	47.4920
 1.3500	47.4020
 1.3510	47.3100
 1.3520	47.2240
 1.3530	47.1310
 1.3540	47.0370
 1.3550	46.9510
 1.3560	46.8550
 1.3570	46.7650
 1.3580	46.6810
 1.3590	46.5840
 1.3600	46.4840
 1.3610	46.3780
 1.3620	46.2670
 1.3630	46.1420
 1.3640	46.0070
 1.3650	45.8710
 1.3660	45.7300
 1.3670	45.5930
 1.3680	45.4570
 1.3690	45.2950
 1.3700	45.1200
 1.3710	44.9260
 1.3720	44.7130
 1.3730	44.4980
 1.3740	44.2550
 1.3750	43.9930
 1.3760	43.7210
 1.3770	43.4240
 1.3780	43.1070
 1.3790	42.7700
 1.3800	42.4070
 1.3810	42.0200
 1.3820	41.6140
 1.3830	41.1880
 1.3840	40.7470
 1.3850	40.2870
 1.3860	39.8120
 1.3870	39.3210
 1.3880	38.8180
 1.3890	38.2960
 1.3900	37.7650
 1.3910	37.2320
 1.3920	36.6920
 1.3930	36.1460
 1.3940	35.6100
 1.3950	35.0740
 1.3960	34.5420
 1.3970	34.0190
 1.3980	33.5070
 1.3990	33.0130
 1.4000	32.5340
 1.4010	32.0740
 1.4020	31.6280
 1.4030	31.1940
 1.4040	30.7790
 1.4050	30.3860
 1.4060	30.0090
 1.4070	29.6570
 1.4080	29.3290
 1.4090	29.0200
 1.4100	28.7370
 1.4110	28.4680
 1.4120	28.2170
 1.4130	27.9850
 1.4140	27.7630
 1.4150	27.5610
 1.4160	27.3750
 1.4170	27.1950
 1.4180	27.0320
 1.4190	26.8820
 1.4200	26.7410
 1.4210	26.6110
 1.4220	26.4910
 1.4230	26.3810
 1.4240	26.2740
 1.4250	26.1780
 1.4260	26.0920
 1.4270	26.0150
 1.4280	25.9480
 1.4290	25.8830
 1.4300	25.8270
 1.4310	25.7710
 1.4320	25.7140
 1.4330	25.6690
 1.4340	25.6330
 1.4350	25.5990
 1.4360	25.5720
 1.4370	25.5470
 1.4380	25.5190
 1.4390	25.5030
 1.4400	25.4970
 1.4410	25.4940
 1.4420	25.4980
 1.4430	25.4960
 1.4440	25.4910
 1.4450	25.4890
 1.4460	25.4900
 1.4470	25.5000
 1.4480	25.5130
 1.4490	25.5240
 1.4500	25.5370
 1.4510	25.5430
 1.4520	25.5480
 1.4530	25.5610
 1.4540	25.5770
 1.4550	25.6030
 1.4560	25.6340
 1.4570	25.6640
 1.4580	25.6970
 1.4590	25.7280
 1.4600	25.7660
 1.4610	25.8170
 1.4620	25.8660
 1.4630	25.9250
 1.4640	25.9880
 1.4650	26.0480
 1.4660	26.1180
 1.4670	26.1910
 1.4680	26.2730
 1.4690	26.3620
 1.4700	26.4510
 1.4710	26.5470
 1.4720	26.6430
 1.4730	26.7390
 1.4740	26.8430
 1.4750	26.9480
 1.4760	27.0590
 1.4770	27.1770
 1.4780	27.2970
 1.4790	27.4250
 1.4800	27.5520
 1.4810	27.6760
 1.4820	27.8030
 1.4830	27.9240
 1.4840	28.0500
 1.4850	28.1790
 1.4860	28.3070
 1.4870	28.4400
 1.4880	28.5740
 1.4890	28.7050
 1.4900	28.8340
 1.4910	28.9580
 1.4920	29.0890
 1.4930	29.2210
 1.4940	29.3540
 1.4950	29.4940
 1.4960	29.6290
 1.4970	29.7560
 1.4980	29.8880
 1.4990	30.0210
 1.5000	30.1560
 1.5010	30.2970
 1.5020	30.4350
 1.5030	30.5720
 1.5040	30.7120
 1.5050	30.8540
 1.5060	30.9910
 1.5070	31.1310
 1.5080	31.2700
 1.5090	31.4050
 1.5100	31.5360
 1.5110	31.6770
 1.5120	31.8160
 1.5130	31.9480
 1.5140	32.0800
 1.5150	32.2070
 1.5160	32.3340
 1.5170	32.4660
 1.5180	32.6010
 1.5190	32.7360
 1.5200	32.8700
 1.5210	33.0030
 1.5220	33.1330
 1.5230	33.2600
 1.5240	33.3830
 1.5250	33.5100
 1.5260	33.6350
 1.5270	33.7640
 1.5280	33.8930
 1.5290	34.0180
 1.5300	34.1450
 1.5310	34.2620
 1.5320	34.3770
 1.5330	34.4920
 1.5340	34.6080
 1.5350	34.7330
 1.5360	34.8640
 1.5370	34.9880
 1.5380	35.1040
 1.5390	35.2140
 1.5400	35.3180
 1.5410	35.4290
 1.5420	35.5410
 1.5430	35.6530
 1.5440	35.7720
 1.5450	35.8790
 1.5460	35.9760
 1.5470	36.0780
 1.5480	36.1810
 1.5490	36.2800
 1.5500	36.3860
 1.5510	36.4910
 1.5520	36.5970
 1.5530	36.7050
 1.5540	36.8060
 1.5550	36.9040
 1.5560	36.9950
 1.5570	37.0890
 1.5580	37.1840
 1.5590	37.2810
 1.5600	37.3830
 1.5610	37.4740
 1.5620	37.5640
 1.5630	37.6450
 1.5640	37.7150
 1.5650	37.7940
 1.5660	37.8720
 1.5670	37.9550
 1.5680	38.0500
 1.5690	38.1450
 1.5700	38.2390
 1.5710	38.3290
 1.5720	38.4110
 1.5730	38.4870
 1.5740	38.5600
 1.5750	38.6340
 1.5760	38.7190
 1.5770	38.7950
 1.5780	38.8690
 1.5790	38.9520
 1.5800	39.0150
 1.5810	39.0780
 1.5820	39.1430
 1.5830	39.1970
 1.5840	39.2630
 1.5850	39.3320
 1.5860	39.3920
 1.5870	39.4570
 1.5880	39.5250
 1.5890	39.5920
 1.5900	39.6600
 1.5910	39.7240
 1.5920	39.7860
 1.5930	39.8470
 1.5940	39.9110
 1.5950	39.9830
 1.5960	40.0420
 1.5970	40.1020
 1.5980	40.1630
 1.5990	40.2220
 1.6000	40.2950
 1.6010	40.3600
 1.6020	40.4250
 1.6030	40.4820
 1.6040	40.5240
 1.6050	40.5720
 1.6060	40.6200
 1.6070	40.6600
 1.6080	40.7080
 1.6090	40.7550
 1.6100	40.7990
 1.6110	40.8520
 1.6120	40.9130
 1.6130	40.9660
 1.6140	41.0100
 1.6150	41.0620
 1.6160	41.1090
 1.6170	41.1470
 1.6180	41.1950
 1.6190	41.2440
 1.6200	41.2820
 1.6210	41.3280
 1.6220	41.3760
 1.6230	41.4090
 1.6240	41.4440
 1.6250	41.4830
 1.6260	41.5180
 1.6270	41.5590
 1.6280	41.5970
 1.6290	41.6330
 1.6300	41.6590
 1.6310	41.6930
 1.6320	41.7360
 1.6330	41.7700
 1.6340	41.8120
 1.6350	41.8450
 1.6360	41.8590
 1.6370	41.8910
 1.6380	41.9220
 1.6390	41.9520
 1.6400	41.9980
 1.6410	42.0300
 1.6420	42.0580
 1.6430	42.0830
 1.6440	42.0960
 1.6450	42.1280
 1.6460	42.1540
 1.6470	42.1820
 1.6480	42.2020
 1.6490	42.2200
 1.6500	42.2370
 1.6510	42.2500
 1.6520	42.2770
 1.6530	42.2980
 1.6540	42.3110
 1.6550	42.3280
 1.6560	42.3340
 1.6570	42.3340
 1.6580	42.3390
 1.6590	42.3440
 1.6600	42.3530
 1.6610	42.3660
 1.6620	42.3710
 1.6630	42.3730
 1.6640	42.3710
 1.6650	42.3740
 1.6660	42.3800
 1.6670	42.3780
 1.6680	42.3740
 1.6690	42.3590
 1.6700	42.3350
 1.6710	42.3250
 1.6720	42.3310
 1.6730	42.3350
 1.6740	42.3420
 1.6750	42.3390
 1.6760	42.3090
 1.6770	42.2840
 1.6780	42.2610
 1.6790	42.2440
 1.6800	42.2370
 1.6810	42.2220
 1.6820	42.2030
 1.6830	42.1740
 1.6840	42.1470
 1.6850	42.1240
 1.6860	42.0990
 1.6870	42.0790
 1.6880	42.0550
 1.6890	42.0360
 1.6900	42.0070
 1.6910	41.9730
 1.6920	41.9420
 1.6930	41.9050
 1.6940	41.8740
 1.6950	41.8470
 1.6960	41.8170
 1.6970	41.7910
 1.6980	41.7660
 1.6990	41.7490
 1.7000	41.7240
 1.7010	41.6910
 1.7020	41.6600
 1.7030	41.6260
 1.7040	41.5910
 1.7050	41.5650
 1.7060	41.5250
 1.7070	41.4680
 1.7080	41.4260
 1.7090	41.3850
 1.7100	41.3510
 1.7110	41.3300
 1.7120	41.3080
 1.7130	41.2780
 1.7140	41.2410
 1.7150	41.2040
 1.7160	41.1660
 1.7170	41.1200
 1.7180	41.0750
 1.7190	41.0350
 1.7200	40.9970
 1.7210	40.9470
 1.7220	40.8930
 1.7230	40.8430
 1.7240	40.7960
 1.7250	40.7560
 1.7260	40.7170
 1.7270	40.6770
 1.7280	40.6230
 1.7290	40.5760
 1.7300	40.5490
 1.7310	40.5120
 1.7320	40.4790
 1.7330	40.4360
 1.7340	40.3760
 1.7350	40.3320
 1.7360	40.3020
 1.7370	40.2570
 1.7380	40.2150
 1.7390	40.1680
 1.7400	40.1030
 1.7410	40.0530
 1.7420	40.0160
 1.7430	39.9720
 1.7440	39.9390
 1.7450	39.8840
 1.7460	39.8130
 1.7470	39.7510
 1.7480	39.6760
 1.7490	39.6180
 1.7500	39.5770
 1.7510	39.5210
 1.7520	39.4660
 1.7530	39.4010
 1.7540	39.3250
 1.7550	39.2590
 1.7560	39.1950
 1.7570	39.1400
 1.7580	39.0940
 1.7590	39.0340
 1.7600	38.9670
 1.7610	38.8910
 1.7620	38.8310
 1.7630	38.7950
 1.7640	38.7460
 1.7650	38.6970
 1.7660	38.6470
 1.7670	38.5880
 1.7680	38.5320
 1.7690	38.4760
 1.7700	38.4260
 1.7710	38.3770
 1.7720	38.3320
 1.7730	38.2930
 1.7740	38.2590
 1.7750	38.2310
 1.7760	38.1990
 1.7770	38.1720
 1.7780	38.1440
 1.7790	38.1110
 1.7800	38.0830
 1.7810	38.0590
 1.7820	38.0380
 1.7830	38.0130
 1.7840	37.9980
 1.7850	37.9910
 1.7860	37.9790
 1.7870	37.9700
 1.7880	37.9590
 1.7890	37.9370
 1.7900	37.9450
 1.7910	37.9390
 1.7920	37.9260
 1.7930	37.9220
 1.7940	37.9070
 1.7950	37.9020
 1.7960	37.9190
 1.7970	37.9240
 1.7980	37.9180
 1.7990	37.9190
 1.8000	37.9250
 1.8010	37.9250
 1.8020	37.9260
 1.8030	37.9300
 1.8040	37.9270
 1.8050	37.9310
 1.8060	37.9460
 1.8070	37.9500
 1.8080	37.9470
 1.8090	37.9530
 1.8100	37.9550
 1.8110	37.9690
 1.8120	37.9850
 1.8130	37.9750
 1.8140	37.9850
 1.8150	37.9970
 1.8160	37.9800
 1.8170	37.9730
 1.8180	37.9660
 1.8190	37.9580
 1.8200	37.9550
 1.8210	37.9620
 1.8220	37.9640
 1.8230	37.9620
 1.8240	37.9500
 1.8250	37.9390
 1.8260	37.9170
 1.8270	37.8720
 1.8280	37.8480
 1.8290	37.8300
 1.8300	37.8080
 1.8310	37.9140
 1.8320	37.8350
 1.8330	37.7600
 1.8340	37.7270
 1.8350	37.6790
 1.8360	37.6440
 1.8370	37.6300
 1.8380	37.5510
 1.8390	37.4960
 1.8400	37.4450
 1.8410	37.3890
 1.8420	37.3330
 1.8430	37.2910
 1.8440	37.2080
 1.8450	37.0690
 1.8460	36.9410
 1.8470	36.8340
 1.8480	36.7320
 1.8490	36.5890
 1.8500	36.4380
 1.8510	36.2700
 1.8520	36.0850
 1.8530	35.8720
 1.8540	35.7030
 1.8550	35.5320
 1.8560	35.3060
 1.8570	35.0820
 1.8580	34.8410
 1.8590	34.5780
 1.8600	34.2850
 1.8610	33.9960
 1.8620	33.6630
 1.8630	33.3010
 1.8640	32.9470
 1.8650	32.5780
 1.8660	32.2050
 1.8670	31.8270
 1.8680	31.4240
 1.8690	30.9820
 1.8700	30.5200
 1.8710	30.0460
 1.8720	29.5420
 1.8730	28.9950
 1.8740	28.4490
 1.8750	27.9150
 1.8760	27.3940
 1.8770	26.8620
 1.8780	26.3220
 1.8790	25.7760
 1.8800	25.2250
 1.8810	24.6600
 1.8820	24.1040
 1.8830	23.5560
 1.8840	23.0010
 1.8850	22.4410
 1.8860	21.9130
 1.8870	21.4080
 1.8880	20.9200
 1.8890	20.4690
 1.8900	20.0550
 1.8910	19.6440
 1.8920	19.2440
 1.8930	18.8620
 1.8940	18.5040
 1.8950	18.1650
 1.8960	17.8620
 1.8970	17.5710
 1.8980	17.3220
 1.8990	17.0910
 1.9000	16.8660
 1.9010	16.6640
 1.9020	16.4860
 1.9030	16.3210
 1.9040	16.1520
 1.9050	16.0340
 1.9060	15.9310
 1.9070	15.8370
 1.9080	15.7650
 1.9090	15.6930
 1.9100	15.6300
 1.9110	15.5710
 1.9120	15.5210
 1.9130	15.4670
 1.9140	15.4130
 1.9150	15.3670
 1.9160	15.3220
 1.9170	15.2900
 1.9180	15.2800
 1.9190	15.2520
 1.9200	15.2250
 1.9210	15.2140
 1.9220	15.2040
 1.9230	15.2050
 1.9240	15.2050
 1.9250	15.2130
 1.9260	15.2030
 1.9270	15.2050
 1.9280	15.2140
 1.9290	15.2120
 1.9300	15.2180
 1.9310	15.2200
 1.9320	15.2100
 1.9330	15.2140
 1.9340	15.2330
 1.9350	15.2520
 1.9360	15.2700
 1.9370	15.2960
 1.9380	15.3360
 1.9390	15.3600
 1.9400	15.3850
 1.9410	15.4300
 1.9420	15.4640
 1.9430	15.4890
 1.9440	15.5140
 1.9450	15.5290
 1.9460	15.5590
 1.9470	15.5990
 1.9480	15.6360
 1.9490	15.6830
 1.9500	15.7210
 1.9510	15.7570
 1.9520	15.7810
 1.9530	15.8220
 1.9540	15.8710
 1.9550	15.9090
 1.9560	15.9410
 1.9570	15.9860
 1.9580	16.0280
 1.9590	16.0750
 1.9600	16.1380
 1.9610	16.1970
 1.9620	16.2500
 1.9630	16.3070
 1.9640	16.3770
 1.9650	16.4360
 1.9660	16.4970
 1.9670	16.5600
 1.9680	16.6160
 1.9690	16.6620
 1.9700	16.7220
 1.9710	16.7800
 1.9720	16.8380
 1.9730	16.9110
 1.9740	16.9680
 1.9750	17.0110
 1.9760	17.0810
 1.9770	17.1230
 1.9780	17.1790
 1.9790	17.2440
 1.9800	17.3070
 1.9810	17.3760
 1.9820	17.4700
 1.9830	17.5430
 1.9840	17.5950
 1.9850	17.6720
 1.9860	17.7610
 1.9870	17.8390
 1.9880	17.9170
 1.9890	18.0260
 1.9900	18.1130
 1.9910	18.1800
 1.9920	18.2650
 1.9930	18.3580
 1.9940	18.4420
 1.9950	18.5370
 1.9960	18.6100
 1.9970	18.6590
 1.9980	18.7210
 1.9990	18.7750
 2.0000	18.8350
 2.0010	18.9070
 2.0020	19.0110
 2.0030	19.1120
 2.0040	19.2100
 2.0050	19.2970
 2.0060	19.3710
 2.0070	19.4520
 2.0080	19.5260
 2.0090	19.6040
 2.0100	19.6930
 2.0110	19.7740
 2.0120	19.8440
 2.0130	19.9230
 2.0140	19.9910
 2.0150	20.0820
 2.0160	20.1870
 2.0170	20.2720
 2.0180	20.3620
 2.0190	20.4600
 2.0200	20.5450
 2.0210	20.6220
 2.0220	20.6980
 2.0230	20.7570
 2.0240	20.8330
 2.0250	20.9140
 2.0260	20.9930
 2.0270	21.0680
 2.0280	21.1750
 2.0290	21.2580
 2.0300	21.3440
 2.0310	21.4220
 2.0320	21.4960
 2.0330	21.5700
 2.0340	21.6420
 2.0350	21.7070
 2.0360	21.7640
 2.0370	21.8320
 2.0380	21.8850
 2.0390	21.9640
 2.0400	22.0880
 2.0410	22.1790
 2.0420	22.2670
 2.0430	22.3450
 2.0440	22.4160
 2.0450	22.4600
 2.0460	22.5180
 2.0470	22.5770
 2.0480	22.6410
 2.0490	22.7010
 2.0500	22.7700
 2.0510	22.8550
 2.0520	22.9260
 2.0530	22.9900
 2.0540	23.0610
 2.0550	23.1210
 2.0560	23.2020
 2.0570	23.2810
 2.0580	23.3330
 2.0590	23.4000
 2.0600	23.4570
 2.0610	23.5340
 2.0620	23.6320
 2.0630	23.7100
 2.0640	23.7910
 2.0650	23.8610
 2.0660	23.9130
 2.0670	23.9760
 2.0680	24.0380
 2.0690	24.1020
 2.0700	24.1690
 2.0710	24.2370
 2.0720	24.2960
 2.0730	24.3740
 2.0740	24.4660
 2.0750	24.5720
 2.0760	24.6700
 2.0770	24.7930
 2.0780	24.8800
 2.0790	24.9390
 2.0800	25.0180
 2.0810	25.0920
 2.0820	25.1660
 2.0830	25.2490
 2.0840	25.3270
 2.0850	25.3960
 2.0860	25.4700
 2.0870	25.5430
 2.0880	25.6320
 2.0890	25.7110
 2.0900	25.7920
 2.0910	25.8590
 2.0920	25.9090
 2.0930	25.9820
 2.0940	26.0710
 2.0950	26.1300
 2.0960	26.1800
 2.0970	26.2480
 2.0980	26.2880
 2.0990	26.3580
 2.1000	26.4800
 2.1010	26.5700
 2.1020	26.6500
 2.1030	26.7230
 2.1040	26.7800
 2.1050	26.8350
 2.1060	26.8990
 2.1070	26.9580
 2.1080	27.0330
 2.1090	27.1250
 2.1100	27.2010
 2.1110	27.2890
 2.1120	27.3520
 2.1130	27.4020
 2.1140	27.4450
 2.1150	27.4600
 2.1160	27.5010
 2.1170	27.5350
 2.1180	27.5920
 2.1190	27.6840
 2.1200	27.7600
 2.1210	27.8380
 2.1220	27.9270
 2.1230	27.9930
 2.1240	28.0460
 2.1250	28.1030
 2.1260	28.1510
 2.1270	28.1980
 2.1280	28.2320
 2.1290	28.2930
 2.1300	28.3800
 2.1310	28.4340
 2.1320	28.4920
 2.1330	28.5450
 2.1340	28.5680
 2.1350	28.6040
 2.1360	28.6560
 2.1370	28.7020
 2.1380	28.7400
 2.1390	28.7770
 2.1400	28.8220
 2.1410	28.8600
 2.1420	28.8810
 2.1430	28.8810
 2.1440	28.9060
 2.1450	28.9140
 2.1460	28.9640
 2.1470	29.0650
 2.1480	29.1140
 2.1490	29.1810
 2.1500	29.2010
 2.1510	29.1430
 2.1520	29.1500
 2.1530	29.1640
 2.1540	29.1860
 2.1550	29.2630
 2.1560	29.3000
 2.1570	29.3250
 2.1580	29.3310
 2.1590	29.3110
 2.1600	29.2830
 2.1610	29.2670
 2.1620	29.2660
 2.1630	29.2840
 2.1640	29.3380
 2.1650	29.3690
 2.1660	29.4080
 2.1670	29.4320
 2.1680	29.4410
 2.1690	29.4580
 2.1700	29.4870
 2.1710	29.4830
 2.1720	29.4440
 2.1730	29.4490
 2.1740	29.4500
 2.1750	29.4580
 2.1760	29.4990
 2.1770	29.5400
 2.1780	29.5680
 2.1790	29.6110
 2.1800	29.7140
 2.1810	29.7620
 2.1820	29.7700
 2.1830	29.7760
 2.1840	29.7910
 2.1850	29.7750
 2.1860	29.7880
 2.1870	29.8370
 2.1880	29.8570
 2.1890	29.8550
 2.1900	29.8830
 2.1910	29.9280
 2.1920	29.9550
 2.1930	30.0010
 2.1940	30.0140
 2.1950	29.9950
 2.1960	29.9830
 2.1970	29.9430
 2.1980	29.9350
 2.1990	29.9380
 2.2000	29.9520
 2.2010	29.9990
 2.2020	30.0330
 2.2030	30.0630
 2.2040	30.1000
 2.2050	30.1520
 2.2060	30.1930
 2.2070	30.2010
 2.2080	30.1880
 2.2090	30.1910
 2.2100	30.1620
 2.2110	30.1710
 2.2120	30.2190
 2.2130	30.2400
 2.2140	30.2730
 2.2150	30.2590
 2.2160	30.1970
 2.2170	30.1830
 2.2180	30.1500
 2.2190	30.1490
 2.2200	30.2080
 2.2210	30.2390
 2.2220	30.2860
 2.2230	30.2880
 2.2240	30.2650
 2.2250	30.2400
 2.2260	30.1540
 2.2270	30.1190
 2.2280	30.1160
 2.2290	30.1100
 2.2300	30.1180
 2.2310	30.1520
 2.2320	30.1250
 2.2330	30.1380
 2.2340	30.1380
 2.2350	30.1370
 2.2360	30.1050
 2.2370	30.0630
 2.2380	30.0340
 2.2390	29.9730
 2.2400	29.9590
 2.2410	30.0000
 2.2420	29.9770
 2.2430	29.9390
 2.2440	29.8910
 2.2450	29.8100
 2.2460	29.7430
 2.2470	29.6700
 2.2480	29.6150
 2.2490	29.5740
 2.2500	29.5150
 2.2510	29.4550
 2.2520	29.3990
 2.2530	29.3130
 2.2540	29.2560
 2.2550	29.2410
 2.2560	29.1990
 2.2570	29.1530
 2.2580	29.1030
 2.2590	29.0250
 2.2600	28.9660
 2.2610	28.9020
 2.2620	28.8780
 2.2630	28.8420
 2.2640	28.8000
 2.2650	28.8120
 2.2660	28.7670
 2.2670	28.7110
 2.2680	28.6490
 2.2690	28.5930
 2.2700	28.4990
 2.2710	28.4480
 2.2720	28.4330
 2.2730	28.3900
 2.2740	28.3410
 2.2750	28.2870
 2.2760	28.2300
 2.2770	28.1700
 2.2780	28.0890
 2.2790	28.0400
 2.2800	28.0090
 2.2810	27.9740
 2.2820	27.9540
 2.2830	27.9320
 2.2840	27.9110
 2.2850	27.8750
 2.2860	27.8540
 2.2870	27.7960
 2.2880	27.6880
 2.2890	27.6050
 2.2900	27.4960
 2.2910	27.4350
 2.2920	27.4120
 2.2930	27.3840
 2.2940	27.3940
 2.2950	27.3640
 2.2960	27.3060
 2.2970	27.2600
 2.2980	27.1840
 2.2990	27.1520
 2.3000	27.1240
 2.3010	27.0920
 2.3020	27.0890
 2.3030	27.0360
 2.3040	26.9690
 2.3050	26.9130
 2.3060	26.8100
 2.3070	26.7390
 2.3080	26.6940
 2.3090	26.6030
 2.3100	26.5380
 2.3110	26.5100
 2.3120	26.4770
 2.3130	26.4490
 2.3140	26.4430
 2.3150	26.4730
 2.3160	26.4420
 2.3170	26.3890
 2.3180	26.3660
 2.3190	26.3190
 2.3200	26.3000
 2.3210	26.3450
 2.3220	26.3120
 2.3230	26.2060
 2.3240	26.1920
 2.3250	26.1800
 2.3260	26.2070
 2.3270	26.3550
 2.3280	26.3710
 2.3290	26.3390
 2.3300	26.2880
 2.3310	26.1580
 2.3320	26.0700
 2.3330	25.9670
 2.3340	25.8990
 2.3350	25.8720
 2.3360	25.8100
 2.3370	25.7630
 2.3380	25.6990
 2.3390	25.5630
 2.3400	25.5150
 2.3410	25.5510
 2.3420	25.5000
 2.3430	25.4560
 2.3440	25.3860
 2.3450	25.2140
 2.3460	25.1150
 2.3470	25.0720
 2.3480	25.0000
 2.3490	24.9010
 2.3500	24.8530
 2.3510	24.8460
 2.3520	24.8160
 2.3530	24.7820
 2.3540	24.8000
 2.3550	24.8560
 2.3560	24.8430
 2.3570	24.8700
 2.3580	24.8910
 2.3590	24.8140
 2.3600	24.7230
 2.3610	24.6490
 2.3620	24.6060
 2.3630	24.5790
 2.3640	24.6000
 2.3650	24.6230
 2.3660	24.5780
 2.3670	24.5040
 2.3680	24.4360
 2.3690	24.3500
 2.3700	24.3100
 2.3710	24.3340
 2.3720	24.2860
 2.3730	24.2920
 2.3740	24.3010
 2.3750	24.1990
 2.3760	24.1200
 2.3770	24.0210
 2.3780	23.9350
 2.3790	23.8970
 2.3800	23.8680
 2.3810	23.8700
 2.3820	23.8500
 2.3830	23.8530
 2.3840	23.8560
 2.3850	23.8070
 2.3860	23.7320
 2.3870	23.5970
 2.3880	23.4710
 2.3890	23.3610
 2.3900	23.2770
 2.3910	23.2500
 2.3920	23.2470
 2.3930	23.2550
 2.3940	23.2120
 2.3950	23.1590
 2.3960	23.0820
 2.3970	23.0000
 2.3980	22.9930
 2.3990	22.9320
 2.4000	22.8450
 2.4010	22.8410
 2.4020	22.8260
 2.4030	22.8250
 2.4040	22.9200
 2.4050	22.9250
 2.4060	22.8860
 2.4070	22.9170
 2.4080	22.8430
 2.4090	22.7680
 2.4100	22.6450
 2.4110	22.4310
 2.4120	22.3660
 2.4130	22.3480
 2.4140	22.3360
 2.4150	22.3840
 2.4160	22.3220
 2.4170	22.1660
 2.4180	22.0890
 2.4190	22.0530
 2.4200	21.9980
 2.4210	21.9830
 2.4220	21.9130
 2.4230	21.7230
 2.4240	21.6150
 2.4250	21.5790
 2.4260	21.4830
 2.4270	21.4480
 2.4280	21.4320
 2.4290	21.3490
 2.4300	21.3600
 2.4310	21.5320
 2.4320	21.5210
 2.4330	21.3970
 2.4340	21.4450
 2.4350	21.2250
 2.4360	21.2050
 2.4370	21.5150
 2.4380	21.4960
 2.4390	21.4890
 2.4400	21.3520
 2.4410	21.0050
 2.4420	20.7900
 2.4430	20.7290
 2.4440	20.7710
 2.4450	20.8710
 2.4460	20.9280
 2.4470	20.8700
 2.4480	20.8880
 2.4490	20.8430
 2.4500	20.7130
 2.4510	20.7600
 2.4520	20.7220
 2.4530	20.4740
 2.4540	20.4210
 2.4550	20.5030
 2.4560	20.4620
 2.4570	20.4550
 2.4580	20.5950
 2.4590	20.4720
 2.4600	20.1110
 2.4610	20.1260
 2.4620	19.9930
 2.4630	19.7040
 2.4640	19.8280
 2.4650	19.7980
 2.4660	19.7600
 2.4670	19.8840
 2.4680	19.8030
 2.4690	19.6520
 2.4700	19.6730
 2.4710	19.8090
 2.4720	19.8620
 2.4730	20.0970
 2.4740	20.1430
 2.4750	19.8680
 2.4760	19.8770
 2.4770	19.9900
 2.4780	20.0780
 2.4790	20.4330
 2.4800	20.3870
 2.4810	20.0430
 2.4820	19.7560
 2.4830	19.4080
 2.4840	19.3300
 2.4850	19.1930
 2.4860	19.0670
 2.4870	19.0080
 2.4880	18.7980
 2.4890	18.9250
 2.4900	19.1910
 2.4910	19.5230
 2.4920	19.7860
 2.4930	19.7250
 2.4940	19.6130
 2.4950	19.2670
 2.4960	19.0780
 2.4970	19.0130
 2.4980	19.1950
 2.4990	19.5120
 2.5000	19.9370
