Name: Quercus virginana
Type: vegetation
Class: Tree
Genus: Quercus
Species: virginana
Sample No.: JPL128
Owner: JPL
Wavelength Range: VSWIR
Origin: 34.12729; -118.11594;; WGS84
Collection Date: 9/7/2016
Description: Samples were collected at the Huntington Garden in San Marino California as part of a JPL Subcontract studying HyTES imagery. Samples were taken to JPL and processed within 48 hours of collection. The same leaves were processed in the Nicolet and then measured using the ASD.
Measurement: Bidirectional reflectance
First Column: X
Second Column: Y
X Units: Wavelength (micrometer)
Y Units: Reflectance (percentage)
First X Value: 0.35
Last X Value: 2.5
Number of X Values: 2151
Additional Information: vegetation.tree.quercus.virginana.vswir.jpl128.jpl.asd.ancillary.txt

 0.3500	 8.5330
 0.3510	 8.6620
 0.3520	 8.5860
 0.3530	 8.4920
 0.3540	 8.5470
 0.3550	 8.5040
 0.3560	 8.4570
 0.3570	 8.4490
 0.3580	 8.4730
 0.3590	 8.4120
 0.3600	 8.3570
 0.3610	 8.3580
 0.3620	 8.3750
 0.3630	 8.3790
 0.3640	 8.3740
 0.3650	 8.3660
 0.3660	 8.3100
 0.3670	 8.3230
 0.3680	 8.3600
 0.3690	 8.2830
 0.3700	 8.2380
 0.3710	 8.2320
 0.3720	 8.2510
 0.3730	 8.2920
 0.3740	 8.2870
 0.3750	 8.2650
 0.3760	 8.2690
 0.3770	 8.2420
 0.3780	 8.2290
 0.3790	 8.2580
 0.3800	 8.3280
 0.3810	 8.2820
 0.3820	 8.2410
 0.3830	 8.2800
 0.3840	 8.2820
 0.3850	 8.2850
 0.3860	 8.2880
 0.3870	 8.2820
 0.3880	 8.2820
 0.3890	 8.2900
 0.3900	 8.3000
 0.3910	 8.2970
 0.3920	 8.2990
 0.3930	 8.2950
 0.3940	 8.2900
 0.3950	 8.3450
 0.3960	 8.3250
 0.3970	 8.2820
 0.3980	 8.3340
 0.3990	 8.3410
 0.4000	 8.3380
 0.4010	 8.3480
 0.4020	 8.3620
 0.4030	 8.3740
 0.4040	 8.3800
 0.4050	 8.3770
 0.4060	 8.3820
 0.4070	 8.3910
 0.4080	 8.4000
 0.4090	 8.4080
 0.4100	 8.4080
 0.4110	 8.4230
 0.4120	 8.4500
 0.4130	 8.4340
 0.4140	 8.4350
 0.4150	 8.4470
 0.4160	 8.4430
 0.4170	 8.4350
 0.4180	 8.4330
 0.4190	 8.4340
 0.4200	 8.4250
 0.4210	 8.4160
 0.4220	 8.4120
 0.4230	 8.4120
 0.4240	 8.4080
 0.4250	 8.4080
 0.4260	 8.4070
 0.4270	 8.3970
 0.4280	 8.3980
 0.4290	 8.3940
 0.4300	 8.3780
 0.4310	 8.3580
 0.4320	 8.3480
 0.4330	 8.3330
 0.4340	 8.3030
 0.4350	 8.2930
 0.4360	 8.2940
 0.4370	 8.3030
 0.4380	 8.3180
 0.4390	 8.3300
 0.4400	 8.3490
 0.4410	 8.3770
 0.4420	 8.3930
 0.4430	 8.4000
 0.4440	 8.4000
 0.4450	 8.3950
 0.4460	 8.3970
 0.4470	 8.4020
 0.4480	 8.4060
 0.4490	 8.4130
 0.4500	 8.4160
 0.4510	 8.4170
 0.4520	 8.4180
 0.4530	 8.4240
 0.4540	 8.4240
 0.4550	 8.4190
 0.4560	 8.4140
 0.4570	 8.4240
 0.4580	 8.4340
 0.4590	 8.4330
 0.4600	 8.4240
 0.4610	 8.4270
 0.4620	 8.4360
 0.4630	 8.4360
 0.4640	 8.4340
 0.4650	 8.4350
 0.4660	 8.4400
 0.4670	 8.4450
 0.4680	 8.4430
 0.4690	 8.4400
 0.4700	 8.4390
 0.4710	 8.4390
 0.4720	 8.4390
 0.4730	 8.4380
 0.4740	 8.4360
 0.4750	 8.4420
 0.4760	 8.4460
 0.4770	 8.4460
 0.4780	 8.4510
 0.4790	 8.4530
 0.4800	 8.4530
 0.4810	 8.4520
 0.4820	 8.4510
 0.4830	 8.4440
 0.4840	 8.4330
 0.4850	 8.4280
 0.4860	 8.4230
 0.4870	 8.4210
 0.4880	 8.4220
 0.4890	 8.4210
 0.4900	 8.4290
 0.4910	 8.4440
 0.4920	 8.4560
 0.4930	 8.4640
 0.4940	 8.4730
 0.4950	 8.4840
 0.4960	 8.4940
 0.4970	 8.5100
 0.4980	 8.5270
 0.4990	 8.5400
 0.5000	 8.5550
 0.5010	 8.5750
 0.5020	 8.5980
 0.5030	 8.6170
 0.5040	 8.6480
 0.5050	 8.6770
 0.5060	 8.6990
 0.5070	 8.7340
 0.5080	 8.7710
 0.5090	 8.8120
 0.5100	 8.8640
 0.5110	 8.9150
 0.5120	 8.9730
 0.5130	 9.0420
 0.5140	 9.1230
 0.5150	 9.2070
 0.5160	 9.2980
 0.5170	 9.3990
 0.5180	 9.5060
 0.5190	 9.6220
 0.5200	 9.7440
 0.5210	 9.8690
 0.5220	10.0000
 0.5230	10.1340
 0.5240	10.2650
 0.5250	10.3940
 0.5260	10.5190
 0.5270	10.6390
 0.5280	10.7530
 0.5290	10.8570
 0.5300	10.9500
 0.5310	11.0350
 0.5320	11.1170
 0.5330	11.1900
 0.5340	11.2520
 0.5350	11.3040
 0.5360	11.3440
 0.5370	11.3780
 0.5380	11.4050
 0.5390	11.4200
 0.5400	11.4160
 0.5410	11.3960
 0.5420	11.3700
 0.5430	11.3590
 0.5440	11.3670
 0.5450	11.3930
 0.5460	11.4340
 0.5470	11.4810
 0.5480	11.5230
 0.5490	11.5500
 0.5500	11.5630
 0.5510	11.5700
 0.5520	11.5720
 0.5530	11.5700
 0.5540	11.5630
 0.5550	11.5470
 0.5560	11.5180
 0.5570	11.4770
 0.5580	11.4270
 0.5590	11.3690
 0.5600	11.3040
 0.5610	11.2340
 0.5620	11.1560
 0.5630	11.0700
 0.5640	10.9800
 0.5650	10.8830
 0.5660	10.7800
 0.5670	10.6780
 0.5680	10.5790
 0.5690	10.4780
 0.5700	10.3820
 0.5710	10.2980
 0.5720	10.2200
 0.5730	10.1450
 0.5740	10.0750
 0.5750	10.0130
 0.5760	 9.9560
 0.5770	 9.8990
 0.5780	 9.8410
 0.5790	 9.7820
 0.5800	 9.7290
 0.5810	 9.6810
 0.5820	 9.6370
 0.5830	 9.6030
 0.5840	 9.5760
 0.5850	 9.5540
 0.5860	 9.5310
 0.5870	 9.5010
 0.5880	 9.4660
 0.5890	 9.4330
 0.5900	 9.4140
 0.5910	 9.4090
 0.5920	 9.4120
 0.5930	 9.4090
 0.5940	 9.4020
 0.5950	 9.3940
 0.5960	 9.3850
 0.5970	 9.3720
 0.5980	 9.3540
 0.5990	 9.3370
 0.6000	 9.3220
 0.6010	 9.3090
 0.6020	 9.2960
 0.6030	 9.2800
 0.6040	 9.2590
 0.6050	 9.2370
 0.6060	 9.2140
 0.6070	 9.1900
 0.6080	 9.1570
 0.6090	 9.1090
 0.6100	 9.0390
 0.6110	 8.9540
 0.6120	 8.9280
 0.6130	 8.9350
 0.6140	 8.9470
 0.6150	 8.9360
 0.6160	 8.9220
 0.6170	 8.9080
 0.6180	 8.8880
 0.6190	 8.8650
 0.6200	 8.8450
 0.6210	 8.8320
 0.6220	 8.8230
 0.6230	 8.8130
 0.6240	 8.8030
 0.6250	 8.7980
 0.6260	 8.7930
 0.6270	 8.7900
 0.6280	 8.7880
 0.6290	 8.7830
 0.6300	 8.7740
 0.6310	 8.7690
 0.6320	 8.7690
 0.6330	 8.7700
 0.6340	 8.7670
 0.6350	 8.7590
 0.6360	 8.7480
 0.6370	 8.7350
 0.6380	 8.7210
 0.6390	 8.7060
 0.6400	 8.6890
 0.6410	 8.6720
 0.6420	 8.6550
 0.6430	 8.6370
 0.6440	 8.6190
 0.6450	 8.6050
 0.6460	 8.5930
 0.6470	 8.5790
 0.6480	 8.5710
 0.6490	 8.5650
 0.6500	 8.5590
 0.6510	 8.5530
 0.6520	 8.5480
 0.6530	 8.5460
 0.6540	 8.5480
 0.6550	 8.5470
 0.6560	 8.5460
 0.6570	 8.5450
 0.6580	 8.5410
 0.6590	 8.5380
 0.6600	 8.5360
 0.6610	 8.5330
 0.6620	 8.5290
 0.6630	 8.5260
 0.6640	 8.5260
 0.6650	 8.5310
 0.6660	 8.5340
 0.6670	 8.5420
 0.6680	 8.5520
 0.6690	 8.5600
 0.6700	 8.5710
 0.6710	 8.5850
 0.6720	 8.6010
 0.6730	 8.6220
 0.6740	 8.6420
 0.6750	 8.6640
 0.6760	 8.6880
 0.6770	 8.7130
 0.6780	 8.7400
 0.6790	 8.7690
 0.6800	 8.8030
 0.6810	 8.8370
 0.6820	 8.8700
 0.6830	 8.9040
 0.6840	 8.9420
 0.6850	 8.9800
 0.6860	 9.0150
 0.6870	 9.0480
 0.6880	 9.0860
 0.6890	 9.1320
 0.6900	 9.1870
 0.6910	 9.2540
 0.6920	 9.3430
 0.6930	 9.4570
 0.6940	 9.6000
 0.6950	 9.7880
 0.6960	10.0210
 0.6970	10.3000
 0.6980	10.6310
 0.6990	11.0140
 0.7000	11.4490
 0.7010	11.9330
 0.7020	12.4650
 0.7030	13.0380
 0.7040	13.6490
 0.7050	14.2920
 0.7060	14.9610
 0.7070	15.6610
 0.7080	16.3870
 0.7090	17.1370
 0.7100	17.9130
 0.7110	18.7080
 0.7120	19.5220
 0.7130	20.3560
 0.7140	21.2070
 0.7150	22.0740
 0.7160	22.9510
 0.7170	23.8380
 0.7180	24.7370
 0.7190	25.6440
 0.7200	26.5540
 0.7210	27.4620
 0.7220	28.3710
 0.7230	29.2760
 0.7240	30.1710
 0.7250	31.0500
 0.7260	31.9150
 0.7270	32.7630
 0.7280	33.5870
 0.7290	34.3880
 0.7300	35.1650
 0.7310	35.9160
 0.7320	36.6380
 0.7330	37.3320
 0.7340	37.9970
 0.7350	38.6320
 0.7360	39.2370
 0.7370	39.8120
 0.7380	40.3570
 0.7390	40.8690
 0.7400	41.3520
 0.7410	41.8070
 0.7420	42.2370
 0.7430	42.6310
 0.7440	42.9980
 0.7450	43.3420
 0.7460	43.6590
 0.7470	43.9520
 0.7480	44.2220
 0.7490	44.4670
 0.7500	44.6900
 0.7510	44.8950
 0.7520	45.0820
 0.7530	45.2570
 0.7540	45.4170
 0.7550	45.5590
 0.7560	45.6850
 0.7570	45.8000
 0.7580	45.9040
 0.7590	45.9990
 0.7600	46.0840
 0.7610	46.1610
 0.7620	46.2300
 0.7630	46.2920
 0.7640	46.3490
 0.7650	46.4000
 0.7660	46.4460
 0.7670	46.4870
 0.7680	46.5210
 0.7690	46.5520
 0.7700	46.5790
 0.7710	46.6010
 0.7720	46.6230
 0.7730	46.6430
 0.7740	46.6620
 0.7750	46.6810
 0.7760	46.6920
 0.7770	46.7060
 0.7780	46.7200
 0.7790	46.7320
 0.7800	46.7440
 0.7810	46.7550
 0.7820	46.7630
 0.7830	46.7720
 0.7840	46.7790
 0.7850	46.7860
 0.7860	46.7930
 0.7870	46.7930
 0.7880	46.7950
 0.7890	46.8000
 0.7900	46.8010
 0.7910	46.8030
 0.7920	46.8030
 0.7930	46.8010
 0.7940	46.8010
 0.7950	46.8010
 0.7960	46.7990
 0.7970	46.7950
 0.7980	46.7900
 0.7990	46.7860
 0.8000	46.7790
 0.8010	46.7700
 0.8020	46.7650
 0.8030	46.7560
 0.8040	46.7450
 0.8050	46.7390
 0.8060	46.7320
 0.8070	46.7220
 0.8080	46.7110
 0.8090	46.6980
 0.8100	46.6870
 0.8110	46.6780
 0.8120	46.6680
 0.8130	46.6560
 0.8140	46.6420
 0.8150	46.6260
 0.8160	46.6110
 0.8170	46.6020
 0.8180	46.5920
 0.8190	46.5800
 0.8200	46.5700
 0.8210	46.5560
 0.8220	46.5440
 0.8230	46.5330
 0.8240	46.5200
 0.8250	46.5050
 0.8260	46.4900
 0.8270	46.4760
 0.8280	46.4670
 0.8290	46.4560
 0.8300	46.4440
 0.8310	46.4310
 0.8320	46.4260
 0.8330	46.4160
 0.8340	46.4050
 0.8350	46.3990
 0.8360	46.3900
 0.8370	46.3800
 0.8380	46.3700
 0.8390	46.3600
 0.8400	46.3570
 0.8410	46.3540
 0.8420	46.3490
 0.8430	46.3460
 0.8440	46.3450
 0.8450	46.3410
 0.8460	46.3360
 0.8470	46.3330
 0.8480	46.3310
 0.8490	46.3290
 0.8500	46.3290
 0.8510	46.3290
 0.8520	46.3300
 0.8530	46.3300
 0.8540	46.3300
 0.8550	46.3290
 0.8560	46.3300
 0.8570	46.3330
 0.8580	46.3380
 0.8590	46.3420
 0.8600	46.3490
 0.8610	46.3590
 0.8620	46.3620
 0.8630	46.3670
 0.8640	46.3720
 0.8650	46.3740
 0.8660	46.3790
 0.8670	46.3830
 0.8680	46.3880
 0.8690	46.3970
 0.8700	46.4020
 0.8710	46.4110
 0.8720	46.4220
 0.8730	46.4300
 0.8740	46.4390
 0.8750	46.4470
 0.8760	46.4550
 0.8770	46.4650
 0.8780	46.4770
 0.8790	46.4890
 0.8800	46.4990
 0.8810	46.5110
 0.8820	46.5230
 0.8830	46.5330
 0.8840	46.5420
 0.8850	46.5550
 0.8860	46.5650
 0.8870	46.5720
 0.8880	46.5820
 0.8890	46.5950
 0.8900	46.6080
 0.8910	46.6170
 0.8920	46.6230
 0.8930	46.6350
 0.8940	46.6460
 0.8950	46.6580
 0.8960	46.6740
 0.8970	46.6830
 0.8980	46.6910
 0.8990	46.7000
 0.9000	46.7100
 0.9010	46.7180
 0.9020	46.7240
 0.9030	46.7310
 0.9040	46.7430
 0.9050	46.7540
 0.9060	46.7650
 0.9070	46.7740
 0.9080	46.7800
 0.9090	46.7850
 0.9100	46.7920
 0.9110	46.7980
 0.9120	46.8010
 0.9130	46.8090
 0.9140	46.8170
 0.9150	46.8170
 0.9160	46.8230
 0.9170	46.8240
 0.9180	46.8220
 0.9190	46.8250
 0.9200	46.8320
 0.9210	46.8310
 0.9220	46.8290
 0.9230	46.8350
 0.9240	46.8300
 0.9250	46.8210
 0.9260	46.8130
 0.9270	46.8100
 0.9280	46.8060
 0.9290	46.7980
 0.9300	46.7840
 0.9310	46.7700
 0.9320	46.7600
 0.9330	46.7550
 0.9340	46.7470
 0.9350	46.7230
 0.9360	46.7010
 0.9370	46.6870
 0.9380	46.6780
 0.9390	46.6580
 0.9400	46.6380
 0.9410	46.6210
 0.9420	46.6050
 0.9430	46.5840
 0.9440	46.5570
 0.9450	46.5320
 0.9460	46.5110
 0.9470	46.4800
 0.9480	46.4450
 0.9490	46.4070
 0.9500	46.3700
 0.9510	46.3310
 0.9520	46.2910
 0.9530	46.2520
 0.9540	46.2140
 0.9550	46.1860
 0.9560	46.1540
 0.9570	46.1180
 0.9580	46.0780
 0.9590	46.0450
 0.9600	46.0090
 0.9610	45.9770
 0.9620	45.9520
 0.9630	45.9220
 0.9640	45.9010
 0.9650	45.8830
 0.9660	45.8570
 0.9670	45.8450
 0.9680	45.8300
 0.9690	45.8150
 0.9700	45.8090
 0.9710	45.7950
 0.9720	45.7800
 0.9730	45.7670
 0.9740	45.7590
 0.9750	45.7540
 0.9760	45.7480
 0.9770	45.7400
 0.9780	45.7330
 0.9790	45.7360
 0.9800	45.7390
 0.9810	45.7410
 0.9820	45.7460
 0.9830	45.7480
 0.9840	45.7470
 0.9850	45.7520
 0.9860	45.7680
 0.9870	45.7600
 0.9880	45.7600
 0.9890	45.7680
 0.9900	45.7700
 0.9910	45.7780
 0.9920	45.7810
 0.9930	45.7810
 0.9940	45.7870
 0.9950	45.8030
 0.9960	45.8110
 0.9970	45.8080
 0.9980	45.8050
 0.9990	45.8320
 1.0000	45.8480
 1.0010	45.5380
 1.0020	45.5450
 1.0030	45.5530
 1.0040	45.5630
 1.0050	45.5770
 1.0060	45.5890
 1.0070	45.5970
 1.0080	45.6070
 1.0090	45.6180
 1.0100	45.6270
 1.0110	45.6380
 1.0120	45.6480
 1.0130	45.6570
 1.0140	45.6670
 1.0150	45.6780
 1.0160	45.6880
 1.0170	45.6950
 1.0180	45.7050
 1.0190	45.7170
 1.0200	45.7270
 1.0210	45.7390
 1.0220	45.7500
 1.0230	45.7590
 1.0240	45.7670
 1.0250	45.7750
 1.0260	45.7830
 1.0270	45.7910
 1.0280	45.7980
 1.0290	45.8070
 1.0300	45.8180
 1.0310	45.8270
 1.0320	45.8360
 1.0330	45.8440
 1.0340	45.8490
 1.0350	45.8540
 1.0360	45.8640
 1.0370	45.8720
 1.0380	45.8780
 1.0390	45.8860
 1.0400	45.8930
 1.0410	45.8940
 1.0420	45.9010
 1.0430	45.9120
 1.0440	45.9190
 1.0450	45.9230
 1.0460	45.9280
 1.0470	45.9310
 1.0480	45.9360
 1.0490	45.9440
 1.0500	45.9500
 1.0510	45.9560
 1.0520	45.9600
 1.0530	45.9630
 1.0540	45.9640
 1.0550	45.9670
 1.0560	45.9700
 1.0570	45.9740
 1.0580	45.9820
 1.0590	45.9860
 1.0600	45.9870
 1.0610	45.9900
 1.0620	45.9930
 1.0630	45.9950
 1.0640	45.9990
 1.0650	46.0010
 1.0660	46.0020
 1.0670	46.0030
 1.0680	46.0040
 1.0690	46.0040
 1.0700	46.0060
 1.0710	46.0090
 1.0720	46.0130
 1.0730	46.0180
 1.0740	46.0210
 1.0750	46.0220
 1.0760	46.0240
 1.0770	46.0270
 1.0780	46.0280
 1.0790	46.0300
 1.0800	46.0320
 1.0810	46.0310
 1.0820	46.0340
 1.0830	46.0410
 1.0840	46.0450
 1.0850	46.0480
 1.0860	46.0510
 1.0870	46.0490
 1.0880	46.0430
 1.0890	46.0420
 1.0900	46.0420
 1.0910	46.0410
 1.0920	46.0420
 1.0930	46.0410
 1.0940	46.0380
 1.0950	46.0370
 1.0960	46.0390
 1.0970	46.0380
 1.0980	46.0360
 1.0990	46.0350
 1.1000	46.0310
 1.1010	46.0280
 1.1020	46.0250
 1.1030	46.0220
 1.1040	46.0210
 1.1050	46.0190
 1.1060	46.0150
 1.1070	46.0110
 1.1080	46.0080
 1.1090	46.0030
 1.1100	45.9990
 1.1110	45.9950
 1.1120	45.9900
 1.1130	45.9830
 1.1140	45.9760
 1.1150	45.9690
 1.1160	45.9600
 1.1170	45.9490
 1.1180	45.9380
 1.1190	45.9270
 1.1200	45.9140
 1.1210	45.9000
 1.1220	45.8830
 1.1230	45.8630
 1.1240	45.8400
 1.1250	45.8150
 1.1260	45.7870
 1.1270	45.7560
 1.1280	45.7250
 1.1290	45.6870
 1.1300	45.6470
 1.1310	45.6020
 1.1320	45.5510
 1.1330	45.4970
 1.1340	45.4390
 1.1350	45.3760
 1.1360	45.3080
 1.1370	45.2360
 1.1380	45.1590
 1.1390	45.0820
 1.1400	45.0010
 1.1410	44.9180
 1.1420	44.8330
 1.1430	44.7460
 1.1440	44.6590
 1.1450	44.5700
 1.1460	44.4830
 1.1470	44.3920
 1.1480	44.3090
 1.1490	44.2270
 1.1500	44.1510
 1.1510	44.0800
 1.1520	44.0130
 1.1530	43.9480
 1.1540	43.8900
 1.1550	43.8360
 1.1560	43.7870
 1.1570	43.7420
 1.1580	43.7010
 1.1590	43.6650
 1.1600	43.6330
 1.1610	43.6050
 1.1620	43.5810
 1.1630	43.5590
 1.1640	43.5390
 1.1650	43.5220
 1.1660	43.5100
 1.1670	43.4960
 1.1680	43.4850
 1.1690	43.4750
 1.1700	43.4660
 1.1710	43.4570
 1.1720	43.4520
 1.1730	43.4430
 1.1740	43.4330
 1.1750	43.4260
 1.1760	43.4170
 1.1770	43.4070
 1.1780	43.4000
 1.1790	43.3910
 1.1800	43.3810
 1.1810	43.3700
 1.1820	43.3590
 1.1830	43.3480
 1.1840	43.3380
 1.1850	43.3280
 1.1860	43.3180
 1.1870	43.3080
 1.1880	43.2990
 1.1890	43.2900
 1.1900	43.2820
 1.1910	43.2740
 1.1920	43.2680
 1.1930	43.2630
 1.1940	43.2590
 1.1950	43.2560
 1.1960	43.2540
 1.1970	43.2540
 1.1980	43.2530
 1.1990	43.2550
 1.2000	43.2580
 1.2010	43.2610
 1.2020	43.2660
 1.2030	43.2710
 1.2040	43.2750
 1.2050	43.2800
 1.2060	43.2870
 1.2070	43.2950
 1.2080	43.3050
 1.2090	43.3140
 1.2100	43.3220
 1.2110	43.3310
 1.2120	43.3400
 1.2130	43.3510
 1.2140	43.3640
 1.2150	43.3770
 1.2160	43.3920
 1.2170	43.4060
 1.2180	43.4190
 1.2190	43.4340
 1.2200	43.4480
 1.2210	43.4630
 1.2220	43.4790
 1.2230	43.4950
 1.2240	43.5100
 1.2250	43.5240
 1.2260	43.5390
 1.2270	43.5530
 1.2280	43.5650
 1.2290	43.5780
 1.2300	43.5910
 1.2310	43.6050
 1.2320	43.6200
 1.2330	43.6320
 1.2340	43.6440
 1.2350	43.6530
 1.2360	43.6630
 1.2370	43.6720
 1.2380	43.6840
 1.2390	43.6960
 1.2400	43.7060
 1.2410	43.7150
 1.2420	43.7230
 1.2430	43.7300
 1.2440	43.7380
 1.2450	43.7470
 1.2460	43.7560
 1.2470	43.7640
 1.2480	43.7730
 1.2490	43.7790
 1.2500	43.7870
 1.2510	43.7930
 1.2520	43.7970
 1.2530	43.8030
 1.2540	43.8050
 1.2550	43.8070
 1.2560	43.8100
 1.2570	43.8130
 1.2580	43.8150
 1.2590	43.8170
 1.2600	43.8180
 1.2610	43.8180
 1.2620	43.8170
 1.2630	43.8160
 1.2640	43.8150
 1.2650	43.8110
 1.2660	43.8070
 1.2670	43.8020
 1.2680	43.7960
 1.2690	43.7900
 1.2700	43.7850
 1.2710	43.7790
 1.2720	43.7720
 1.2730	43.7640
 1.2740	43.7540
 1.2750	43.7440
 1.2760	43.7340
 1.2770	43.7220
 1.2780	43.7110
 1.2790	43.6970
 1.2800	43.6830
 1.2810	43.6690
 1.2820	43.6540
 1.2830	43.6400
 1.2840	43.6240
 1.2850	43.6040
 1.2860	43.5850
 1.2870	43.5660
 1.2880	43.5450
 1.2890	43.5250
 1.2900	43.5040
 1.2910	43.4810
 1.2920	43.4560
 1.2930	43.4290
 1.2940	43.4020
 1.2950	43.3740
 1.2960	43.3460
 1.2970	43.3150
 1.2980	43.2830
 1.2990	43.2530
 1.3000	43.2210
 1.3010	43.1890
 1.3020	43.1550
 1.3030	43.1180
 1.3040	43.0780
 1.3050	43.0380
 1.3060	42.9950
 1.3070	42.9520
 1.3080	42.9070
 1.3090	42.8610
 1.3100	42.8140
 1.3110	42.7630
 1.3120	42.7090
 1.3130	42.6540
 1.3140	42.5980
 1.3150	42.5420
 1.3160	42.4820
 1.3170	42.4220
 1.3180	42.3580
 1.3190	42.2900
 1.3200	42.2200
 1.3210	42.1480
 1.3220	42.0730
 1.3230	41.9990
 1.3240	41.9230
 1.3250	41.8470
 1.3260	41.7670
 1.3270	41.6830
 1.3280	41.5970
 1.3290	41.5090
 1.3300	41.4200
 1.3310	41.3320
 1.3320	41.2410
 1.3330	41.1480
 1.3340	41.0540
 1.3350	40.9580
 1.3360	40.8620
 1.3370	40.7670
 1.3380	40.6710
 1.3390	40.5760
 1.3400	40.4780
 1.3410	40.3800
 1.3420	40.2820
 1.3430	40.1850
 1.3440	40.0910
 1.3450	39.9960
 1.3460	39.9020
 1.3470	39.8080
 1.3480	39.7120
 1.3490	39.6190
 1.3500	39.5270
 1.3510	39.4350
 1.3520	39.3430
 1.3530	39.2520
 1.3540	39.1600
 1.3550	39.0670
 1.3560	38.9740
 1.3570	38.8790
 1.3580	38.7830
 1.3590	38.6850
 1.3600	38.5850
 1.3610	38.4830
 1.3620	38.3770
 1.3630	38.2690
 1.3640	38.1560
 1.3650	38.0370
 1.3660	37.9130
 1.3670	37.7810
 1.3680	37.6420
 1.3690	37.4960
 1.3700	37.3390
 1.3710	37.1740
 1.3720	36.9970
 1.3730	36.8060
 1.3740	36.6030
 1.3750	36.3840
 1.3760	36.1460
 1.3770	35.8920
 1.3780	35.6150
 1.3790	35.3200
 1.3800	35.0050
 1.3810	34.6660
 1.3820	34.3100
 1.3830	33.9360
 1.3840	33.5430
 1.3850	33.1330
 1.3860	32.7070
 1.3870	32.2600
 1.3880	31.8060
 1.3890	31.3380
 1.3900	30.8560
 1.3910	30.3720
 1.3920	29.8800
 1.3930	29.3790
 1.3940	28.8780
 1.3950	28.3720
 1.3960	27.8690
 1.3970	27.3730
 1.3980	26.8830
 1.3990	26.4080
 1.4000	25.9430
 1.4010	25.4890
 1.4020	25.0520
 1.4030	24.6270
 1.4040	24.2190
 1.4050	23.8330
 1.4060	23.4630
 1.4070	23.1160
 1.4080	22.7870
 1.4090	22.4730
 1.4100	22.1820
 1.4110	21.9070
 1.4120	21.6500
 1.4130	21.4130
 1.4140	21.1920
 1.4150	20.9890
 1.4160	20.8010
 1.4170	20.6280
 1.4180	20.4680
 1.4190	20.3210
 1.4200	20.1850
 1.4210	20.0610
 1.4220	19.9480
 1.4230	19.8460
 1.4240	19.7530
 1.4250	19.6690
 1.4260	19.5940
 1.4270	19.5250
 1.4280	19.4650
 1.4290	19.4090
 1.4300	19.3610
 1.4310	19.3180
 1.4320	19.2830
 1.4330	19.2510
 1.4340	19.2260
 1.4350	19.2040
 1.4360	19.1860
 1.4370	19.1720
 1.4380	19.1620
 1.4390	19.1560
 1.4400	19.1540
 1.4410	19.1540
 1.4420	19.1560
 1.4430	19.1600
 1.4440	19.1670
 1.4450	19.1750
 1.4460	19.1840
 1.4470	19.1960
 1.4480	19.2100
 1.4490	19.2240
 1.4500	19.2390
 1.4510	19.2560
 1.4520	19.2750
 1.4530	19.2950
 1.4540	19.3160
 1.4550	19.3400
 1.4560	19.3650
 1.4570	19.3940
 1.4580	19.4250
 1.4590	19.4600
 1.4600	19.4980
 1.4610	19.5390
 1.4620	19.5840
 1.4630	19.6340
 1.4640	19.6880
 1.4650	19.7460
 1.4660	19.8090
 1.4670	19.8770
 1.4680	19.9490
 1.4690	20.0250
 1.4700	20.1060
 1.4710	20.1910
 1.4720	20.2790
 1.4730	20.3710
 1.4740	20.4670
 1.4750	20.5660
 1.4760	20.6680
 1.4770	20.7720
 1.4780	20.8780
 1.4790	20.9860
 1.4800	21.0950
 1.4810	21.2050
 1.4820	21.3160
 1.4830	21.4280
 1.4840	21.5420
 1.4850	21.6560
 1.4860	21.7720
 1.4870	21.8900
 1.4880	22.0070
 1.4890	22.1240
 1.4900	22.2420
 1.4910	22.3600
 1.4920	22.4780
 1.4930	22.5980
 1.4940	22.7180
 1.4950	22.8390
 1.4960	22.9590
 1.4970	23.0780
 1.4980	23.1980
 1.4990	23.3160
 1.5000	23.4350
 1.5010	23.5550
 1.5020	23.6740
 1.5030	23.7920
 1.5040	23.9110
 1.5050	24.0290
 1.5060	24.1470
 1.5070	24.2650
 1.5080	24.3820
 1.5090	24.4990
 1.5100	24.6150
 1.5110	24.7300
 1.5120	24.8470
 1.5130	24.9610
 1.5140	25.0740
 1.5150	25.1880
 1.5160	25.3000
 1.5170	25.4130
 1.5180	25.5250
 1.5190	25.6350
 1.5200	25.7450
 1.5210	25.8520
 1.5220	25.9580
 1.5230	26.0640
 1.5240	26.1690
 1.5250	26.2730
 1.5260	26.3760
 1.5270	26.4790
 1.5280	26.5820
 1.5290	26.6820
 1.5300	26.7830
 1.5310	26.8830
 1.5320	26.9800
 1.5330	27.0780
 1.5340	27.1730
 1.5350	27.2670
 1.5360	27.3620
 1.5370	27.4550
 1.5380	27.5480
 1.5390	27.6410
 1.5400	27.7320
 1.5410	27.8220
 1.5420	27.9110
 1.5430	28.0000
 1.5440	28.0860
 1.5450	28.1720
 1.5460	28.2560
 1.5470	28.3410
 1.5480	28.4250
 1.5490	28.5070
 1.5500	28.5880
 1.5510	28.6680
 1.5520	28.7470
 1.5530	28.8250
 1.5540	28.9030
 1.5550	28.9810
 1.5560	29.0580
 1.5570	29.1350
 1.5580	29.2100
 1.5590	29.2840
 1.5600	29.3550
 1.5610	29.4250
 1.5620	29.4960
 1.5630	29.5660
 1.5640	29.6340
 1.5650	29.7020
 1.5660	29.7690
 1.5670	29.8340
 1.5680	29.8990
 1.5690	29.9650
 1.5700	30.0280
 1.5710	30.0920
 1.5720	30.1550
 1.5730	30.2180
 1.5740	30.2800
 1.5750	30.3420
 1.5760	30.4040
 1.5770	30.4640
 1.5780	30.5230
 1.5790	30.5830
 1.5800	30.6400
 1.5810	30.6960
 1.5820	30.7530
 1.5830	30.8090
 1.5840	30.8660
 1.5850	30.9230
 1.5860	30.9780
 1.5870	31.0340
 1.5880	31.0890
 1.5890	31.1430
 1.5900	31.1980
 1.5910	31.2520
 1.5920	31.3070
 1.5930	31.3620
 1.5940	31.4180
 1.5950	31.4720
 1.5960	31.5250
 1.5970	31.5770
 1.5980	31.6280
 1.5990	31.6800
 1.6000	31.7320
 1.6010	31.7840
 1.6020	31.8350
 1.6030	31.8840
 1.6040	31.9330
 1.6050	31.9820
 1.6060	32.0300
 1.6070	32.0760
 1.6080	32.1230
 1.6090	32.1680
 1.6100	32.2120
 1.6110	32.2570
 1.6120	32.3010
 1.6130	32.3440
 1.6140	32.3860
 1.6150	32.4260
 1.6160	32.4660
 1.6170	32.5060
 1.6180	32.5460
 1.6190	32.5850
 1.6200	32.6250
 1.6210	32.6640
 1.6220	32.7010
 1.6230	32.7370
 1.6240	32.7710
 1.6250	32.8040
 1.6260	32.8370
 1.6270	32.8710
 1.6280	32.9030
 1.6290	32.9350
 1.6300	32.9660
 1.6310	32.9970
 1.6320	33.0260
 1.6330	33.0550
 1.6340	33.0830
 1.6350	33.1100
 1.6360	33.1350
 1.6370	33.1600
 1.6380	33.1840
 1.6390	33.2080
 1.6400	33.2320
 1.6410	33.2530
 1.6420	33.2740
 1.6430	33.2920
 1.6440	33.3080
 1.6450	33.3220
 1.6460	33.3360
 1.6470	33.3490
 1.6480	33.3590
 1.6490	33.3690
 1.6500	33.3780
 1.6510	33.3830
 1.6520	33.3870
 1.6530	33.3900
 1.6540	33.3900
 1.6550	33.3900
 1.6560	33.3890
 1.6570	33.3870
 1.6580	33.3840
 1.6590	33.3820
 1.6600	33.3780
 1.6610	33.3730
 1.6620	33.3670
 1.6630	33.3600
 1.6640	33.3540
 1.6650	33.3470
 1.6660	33.3390
 1.6670	33.3310
 1.6680	33.3230
 1.6690	33.3160
 1.6700	33.3100
 1.6710	33.3050
 1.6720	33.2990
 1.6730	33.2890
 1.6740	33.2790
 1.6750	33.2670
 1.6760	33.2520
 1.6770	33.2380
 1.6780	33.2220
 1.6790	33.2050
 1.6800	33.1880
 1.6810	33.1670
 1.6820	33.1440
 1.6830	33.1180
 1.6840	33.0900
 1.6850	33.0630
 1.6860	33.0350
 1.6870	33.0050
 1.6880	32.9730
 1.6890	32.9370
 1.6900	32.9020
 1.6910	32.8670
 1.6920	32.8330
 1.6930	32.7990
 1.6940	32.7650
 1.6950	32.7310
 1.6960	32.6970
 1.6970	32.6650
 1.6980	32.6310
 1.6990	32.5970
 1.7000	32.5620
 1.7010	32.5250
 1.7020	32.4890
 1.7030	32.4520
 1.7040	32.4150
 1.7050	32.3780
 1.7060	32.3410
 1.7070	32.3020
 1.7080	32.2630
 1.7090	32.2230
 1.7100	32.1840
 1.7110	32.1450
 1.7120	32.1060
 1.7130	32.0670
 1.7140	32.0270
 1.7150	31.9860
 1.7160	31.9490
 1.7170	31.9110
 1.7180	31.8720
 1.7190	31.8360
 1.7200	31.7970
 1.7210	31.7600
 1.7220	31.7210
 1.7230	31.6830
 1.7240	31.6480
 1.7250	31.6120
 1.7260	31.5770
 1.7270	31.5420
 1.7280	31.5080
 1.7290	31.4730
 1.7300	31.4400
 1.7310	31.4070
 1.7320	31.3730
 1.7330	31.3390
 1.7340	31.3070
 1.7350	31.2720
 1.7360	31.2370
 1.7370	31.2000
 1.7380	31.1600
 1.7390	31.1200
 1.7400	31.0790
 1.7410	31.0360
 1.7420	30.9920
 1.7430	30.9470
 1.7440	30.9010
 1.7450	30.8550
 1.7460	30.8060
 1.7470	30.7590
 1.7480	30.7110
 1.7490	30.6620
 1.7500	30.6130
 1.7510	30.5630
 1.7520	30.5110
 1.7530	30.4600
 1.7540	30.4090
 1.7550	30.3590
 1.7560	30.3110
 1.7570	30.2630
 1.7580	30.2140
 1.7590	30.1650
 1.7600	30.1180
 1.7610	30.0720
 1.7620	30.0280
 1.7630	29.9850
 1.7640	29.9430
 1.7650	29.9040
 1.7660	29.8640
 1.7670	29.8260
 1.7680	29.7890
 1.7690	29.7520
 1.7700	29.7160
 1.7710	29.6800
 1.7720	29.6470
 1.7730	29.6160
 1.7740	29.5850
 1.7750	29.5570
 1.7760	29.5270
 1.7770	29.4950
 1.7780	29.4670
 1.7790	29.4400
 1.7800	29.4160
 1.7810	29.3950
 1.7820	29.3740
 1.7830	29.3540
 1.7840	29.3350
 1.7850	29.3170
 1.7860	29.3020
 1.7870	29.2900
 1.7880	29.2780
 1.7890	29.2670
 1.7900	29.2570
 1.7910	29.2480
 1.7920	29.2400
 1.7930	29.2350
 1.7940	29.2300
 1.7950	29.2280
 1.7960	29.2280
 1.7970	29.2280
 1.7980	29.2270
 1.7990	29.2290
 1.8000	29.2310
 1.8010	29.2350
 1.8020	29.2410
 1.8030	29.2440
 1.8040	29.2460
 1.8050	29.2500
 1.8060	29.2520
 1.8070	29.2560
 1.8080	29.2620
 1.8090	29.2680
 1.8100	29.2780
 1.8110	29.2830
 1.8120	29.2880
 1.8130	29.2920
 1.8140	29.2920
 1.8150	29.2960
 1.8160	29.2980
 1.8170	29.2980
 1.8180	29.2970
 1.8190	29.2970
 1.8200	29.2970
 1.8210	29.2980
 1.8220	29.2960
 1.8230	29.2900
 1.8240	29.2850
 1.8250	29.2800
 1.8260	29.2730
 1.8270	29.2670
 1.8280	29.2570
 1.8290	29.2440
 1.8300	29.2310
 1.8310	29.4520
 1.8320	29.4300
 1.8330	29.4020
 1.8340	29.3710
 1.8350	29.3380
 1.8360	29.3010
 1.8370	29.2640
 1.8380	29.2280
 1.8390	29.1840
 1.8400	29.1400
 1.8410	29.0860
 1.8420	29.0280
 1.8430	28.9580
 1.8440	28.8840
 1.8450	28.8050
 1.8460	28.7220
 1.8470	28.6330
 1.8480	28.5350
 1.8490	28.4260
 1.8500	28.3080
 1.8510	28.1780
 1.8520	28.0400
 1.8530	27.8910
 1.8540	27.7320
 1.8550	27.5620
 1.8560	27.3800
 1.8570	27.1860
 1.8580	26.9770
 1.8590	26.7560
 1.8600	26.5220
 1.8610	26.2760
 1.8620	26.0110
 1.8630	25.7350
 1.8640	25.4440
 1.8650	25.1300
 1.8660	24.8030
 1.8670	24.4540
 1.8680	24.0860
 1.8690	23.7020
 1.8700	23.3000
 1.8710	22.8790
 1.8720	22.4480
 1.8730	22.0040
 1.8740	21.5470
 1.8750	21.0850
 1.8760	20.6070
 1.8770	20.1230
 1.8780	19.6400
 1.8790	19.1490
 1.8800	18.6650
 1.8810	18.1830
 1.8820	17.7010
 1.8830	17.2130
 1.8840	16.7350
 1.8850	16.2610
 1.8860	15.7930
 1.8870	15.3410
 1.8880	14.9010
 1.8890	14.4780
 1.8900	14.0740
 1.8910	13.6900
 1.8920	13.3220
 1.8930	12.9780
 1.8940	12.6520
 1.8950	12.3490
 1.8960	12.0680
 1.8970	11.8070
 1.8980	11.5730
 1.8990	11.3580
 1.9000	11.1600
 1.9010	10.9850
 1.9020	10.8230
 1.9030	10.6770
 1.9040	10.5480
 1.9050	10.4340
 1.9060	10.3340
 1.9070	10.2480
 1.9080	10.1720
 1.9090	10.1040
 1.9100	10.0420
 1.9110	 9.9870
 1.9120	 9.9400
 1.9130	 9.8980
 1.9140	 9.8640
 1.9150	 9.8350
 1.9160	 9.8110
 1.9170	 9.7890
 1.9180	 9.7700
 1.9190	 9.7560
 1.9200	 9.7440
 1.9210	 9.7340
 1.9220	 9.7260
 1.9230	 9.7210
 1.9240	 9.7190
 1.9250	 9.7200
 1.9260	 9.7240
 1.9270	 9.7280
 1.9280	 9.7330
 1.9290	 9.7410
 1.9300	 9.7480
 1.9310	 9.7570
 1.9320	 9.7700
 1.9330	 9.7830
 1.9340	 9.7960
 1.9350	 9.8120
 1.9360	 9.8300
 1.9370	 9.8490
 1.9380	 9.8690
 1.9390	 9.8910
 1.9400	 9.9140
 1.9410	 9.9370
 1.9420	 9.9620
 1.9430	 9.9880
 1.9440	10.0160
 1.9450	10.0470
 1.9460	10.0780
 1.9470	10.1090
 1.9480	10.1400
 1.9490	10.1710
 1.9500	10.2020
 1.9510	10.2360
 1.9520	10.2700
 1.9530	10.3050
 1.9540	10.3420
 1.9550	10.3810
 1.9560	10.4210
 1.9570	10.4630
 1.9580	10.5080
 1.9590	10.5520
 1.9600	10.5980
 1.9610	10.6440
 1.9620	10.6900
 1.9630	10.7380
 1.9640	10.7850
 1.9650	10.8320
 1.9660	10.8790
 1.9670	10.9270
 1.9680	10.9780
 1.9690	11.0320
 1.9700	11.0860
 1.9710	11.1420
 1.9720	11.1980
 1.9730	11.2540
 1.9740	11.3090
 1.9750	11.3650
 1.9760	11.4230
 1.9770	11.4810
 1.9780	11.5390
 1.9790	11.6000
 1.9800	11.6610
 1.9810	11.7240
 1.9820	11.7890
 1.9830	11.8530
 1.9840	11.9190
 1.9850	11.9840
 1.9860	12.0500
 1.9870	12.1160
 1.9880	12.1830
 1.9890	12.2500
 1.9900	12.3180
 1.9910	12.3860
 1.9920	12.4550
 1.9930	12.5240
 1.9940	12.5940
 1.9950	12.6640
 1.9960	12.7330
 1.9970	12.8010
 1.9980	12.8700
 1.9990	12.9400
 2.0000	13.0090
 2.0010	13.0800
 2.0020	13.1520
 2.0030	13.2230
 2.0040	13.2940
 2.0050	13.3640
 2.0060	13.4340
 2.0070	13.5040
 2.0080	13.5740
 2.0090	13.6440
 2.0100	13.7120
 2.0110	13.7810
 2.0120	13.8500
 2.0130	13.9190
 2.0140	13.9880
 2.0150	14.0560
 2.0160	14.1220
 2.0170	14.1910
 2.0180	14.2580
 2.0190	14.3260
 2.0200	14.3920
 2.0210	14.4550
 2.0220	14.5180
 2.0230	14.5800
 2.0240	14.6420
 2.0250	14.7070
 2.0260	14.7680
 2.0270	14.8250
 2.0280	14.8840
 2.0290	14.9410
 2.0300	14.9950
 2.0310	15.0500
 2.0320	15.1050
 2.0330	15.1580
 2.0340	15.2080
 2.0350	15.2590
 2.0360	15.3100
 2.0370	15.3600
 2.0380	15.4120
 2.0390	15.4600
 2.0400	15.5060
 2.0410	15.5510
 2.0420	15.5930
 2.0430	15.6350
 2.0440	15.6780
 2.0450	15.7220
 2.0460	15.7660
 2.0470	15.8130
 2.0480	15.8570
 2.0490	15.8980
 2.0500	15.9400
 2.0510	15.9780
 2.0520	16.0200
 2.0530	16.0640
 2.0540	16.1070
 2.0550	16.1510
 2.0560	16.1950
 2.0570	16.2380
 2.0580	16.2800
 2.0590	16.3230
 2.0600	16.3660
 2.0610	16.4090
 2.0620	16.4540
 2.0630	16.4980
 2.0640	16.5430
 2.0650	16.5880
 2.0660	16.6310
 2.0670	16.6760
 2.0680	16.7230
 2.0690	16.7680
 2.0700	16.8160
 2.0710	16.8620
 2.0720	16.9070
 2.0730	16.9510
 2.0740	16.9970
 2.0750	17.0420
 2.0760	17.0860
 2.0770	17.1290
 2.0780	17.1740
 2.0790	17.2180
 2.0800	17.2620
 2.0810	17.3070
 2.0820	17.3500
 2.0830	17.3910
 2.0840	17.4340
 2.0850	17.4780
 2.0860	17.5210
 2.0870	17.5630
 2.0880	17.6060
 2.0890	17.6450
 2.0900	17.6810
 2.0910	17.7210
 2.0920	17.7600
 2.0930	17.8000
 2.0940	17.8420
 2.0950	17.8820
 2.0960	17.9180
 2.0970	17.9580
 2.0980	18.0000
 2.0990	18.0400
 2.1000	18.0820
 2.1010	18.1220
 2.1020	18.1610
 2.1030	18.1990
 2.1040	18.2340
 2.1050	18.2720
 2.1060	18.3100
 2.1070	18.3480
 2.1080	18.3850
 2.1090	18.4230
 2.1100	18.4600
 2.1110	18.4960
 2.1120	18.5320
 2.1130	18.5680
 2.1140	18.6040
 2.1150	18.6390
 2.1160	18.6740
 2.1170	18.7090
 2.1180	18.7460
 2.1190	18.7860
 2.1200	18.8220
 2.1210	18.8570
 2.1220	18.8950
 2.1230	18.9270
 2.1240	18.9560
 2.1250	18.9870
 2.1260	19.0190
 2.1270	19.0500
 2.1280	19.0830
 2.1290	19.1130
 2.1300	19.1400
 2.1310	19.1680
 2.1320	19.1940
 2.1330	19.2220
 2.1340	19.2540
 2.1350	19.2820
 2.1360	19.3080
 2.1370	19.3350
 2.1380	19.3580
 2.1390	19.3840
 2.1400	19.4100
 2.1410	19.4380
 2.1420	19.4630
 2.1430	19.4880
 2.1440	19.5110
 2.1450	19.5310
 2.1460	19.5530
 2.1470	19.5750
 2.1480	19.5960
 2.1490	19.6190
 2.1500	19.6400
 2.1510	19.6590
 2.1520	19.6780
 2.1530	19.6980
 2.1540	19.7170
 2.1550	19.7350
 2.1560	19.7530
 2.1570	19.7730
 2.1580	19.7900
 2.1590	19.8070
 2.1600	19.8230
 2.1610	19.8400
 2.1620	19.8560
 2.1630	19.8700
 2.1640	19.8860
 2.1650	19.9000
 2.1660	19.9100
 2.1670	19.9240
 2.1680	19.9420
 2.1690	19.9570
 2.1700	19.9730
 2.1710	19.9880
 2.1720	20.0030
 2.1730	20.0170
 2.1740	20.0320
 2.1750	20.0470
 2.1760	20.0630
 2.1770	20.0790
 2.1780	20.0960
 2.1790	20.1140
 2.1800	20.1310
 2.1810	20.1490
 2.1820	20.1650
 2.1830	20.1840
 2.1840	20.2030
 2.1850	20.2230
 2.1860	20.2460
 2.1870	20.2720
 2.1880	20.2960
 2.1890	20.3230
 2.1900	20.3440
 2.1910	20.3630
 2.1920	20.3820
 2.1930	20.4000
 2.1940	20.4170
 2.1950	20.4340
 2.1960	20.4520
 2.1970	20.4690
 2.1980	20.4880
 2.1990	20.5110
 2.2000	20.5310
 2.2010	20.5480
 2.2020	20.5660
 2.2030	20.5840
 2.2040	20.6000
 2.2050	20.6170
 2.2060	20.6320
 2.2070	20.6450
 2.2080	20.6560
 2.2090	20.6670
 2.2100	20.6760
 2.2110	20.6880
 2.2120	20.7030
 2.2130	20.7130
 2.2140	20.7250
 2.2150	20.7330
 2.2160	20.7380
 2.2170	20.7420
 2.2180	20.7450
 2.2190	20.7470
 2.2200	20.7470
 2.2210	20.7440
 2.2220	20.7390
 2.2230	20.7330
 2.2240	20.7240
 2.2250	20.7140
 2.2260	20.7060
 2.2270	20.6920
 2.2280	20.6740
 2.2290	20.6550
 2.2300	20.6350
 2.2310	20.6140
 2.2320	20.5900
 2.2330	20.5640
 2.2340	20.5340
 2.2350	20.4990
 2.2360	20.4620
 2.2370	20.4200
 2.2380	20.3800
 2.2390	20.3370
 2.2400	20.2950
 2.2410	20.2550
 2.2420	20.2110
 2.2430	20.1650
 2.2440	20.1190
 2.2450	20.0710
 2.2460	20.0220
 2.2470	19.9730
 2.2480	19.9210
 2.2490	19.8660
 2.2500	19.8110
 2.2510	19.7550
 2.2520	19.6990
 2.2530	19.6430
 2.2540	19.5880
 2.2550	19.5330
 2.2560	19.4780
 2.2570	19.4240
 2.2580	19.3690
 2.2590	19.3140
 2.2600	19.2600
 2.2610	19.2080
 2.2620	19.1560
 2.2630	19.1010
 2.2640	19.0480
 2.2650	18.9990
 2.2660	18.9490
 2.2670	18.9020
 2.2680	18.8590
 2.2690	18.8120
 2.2700	18.7630
 2.2710	18.7170
 2.2720	18.6700
 2.2730	18.6280
 2.2740	18.5910
 2.2750	18.5510
 2.2760	18.5100
 2.2770	18.4720
 2.2780	18.4330
 2.2790	18.3950
 2.2800	18.3600
 2.2810	18.3260
 2.2820	18.2930
 2.2830	18.2580
 2.2840	18.2240
 2.2850	18.1900
 2.2860	18.1540
 2.2870	18.1180
 2.2880	18.0850
 2.2890	18.0500
 2.2900	18.0100
 2.2910	17.9730
 2.2920	17.9380
 2.2930	17.9020
 2.2940	17.8690
 2.2950	17.8290
 2.2960	17.7830
 2.2970	17.7400
 2.2980	17.6960
 2.2990	17.6490
 2.3000	17.6070
 2.3010	17.5700
 2.3020	17.5310
 2.3030	17.4960
 2.3040	17.4610
 2.3050	17.4190
 2.3060	17.3780
 2.3070	17.3420
 2.3080	17.3120
 2.3090	17.2900
 2.3100	17.2640
 2.3110	17.2340
 2.3120	17.2080
 2.3130	17.1810
 2.3140	17.1530
 2.3150	17.1300
 2.3160	17.1040
 2.3170	17.0720
 2.3180	17.0450
 2.3190	17.0220
 2.3200	16.9940
 2.3210	16.9680
 2.3220	16.9380
 2.3230	16.9040
 2.3240	16.8740
 2.3250	16.8450
 2.3260	16.8130
 2.3270	16.7830
 2.3280	16.7470
 2.3290	16.7050
 2.3300	16.6650
 2.3310	16.6220
 2.3320	16.5830
 2.3330	16.5460
 2.3340	16.5080
 2.3350	16.4670
 2.3360	16.4300
 2.3370	16.3950
 2.3380	16.3590
 2.3390	16.3260
 2.3400	16.2890
 2.3410	16.2460
 2.3420	16.2050
 2.3430	16.1610
 2.3440	16.1220
 2.3450	16.0850
 2.3460	16.0500
 2.3470	16.0200
 2.3480	15.9890
 2.3490	15.9600
 2.3500	15.9280
 2.3510	15.8920
 2.3520	15.8620
 2.3530	15.8340
 2.3540	15.8080
 2.3550	15.7870
 2.3560	15.7630
 2.3570	15.7370
 2.3580	15.7030
 2.3590	15.6700
 2.3600	15.6380
 2.3610	15.6010
 2.3620	15.5690
 2.3630	15.5340
 2.3640	15.5020
 2.3650	15.4720
 2.3660	15.4420
 2.3670	15.4160
 2.3680	15.3860
 2.3690	15.3510
 2.3700	15.3160
 2.3710	15.2830
 2.3720	15.2420
 2.3730	15.2030
 2.3740	15.1720
 2.3750	15.1390
 2.3760	15.1040
 2.3770	15.0700
 2.3780	15.0340
 2.3790	14.9960
 2.3800	14.9630
 2.3810	14.9340
 2.3820	14.9000
 2.3830	14.8640
 2.3840	14.8240
 2.3850	14.7860
 2.3860	14.7480
 2.3870	14.7060
 2.3880	14.6670
 2.3890	14.6290
 2.3900	14.5950
 2.3910	14.5610
 2.3920	14.5200
 2.3930	14.4760
 2.3940	14.4220
 2.3950	14.3790
 2.3960	14.3450
 2.3970	14.3050
 2.3980	14.2720
 2.3990	14.2340
 2.4000	14.1880
 2.4010	14.1430
 2.4020	14.0980
 2.4030	14.0560
 2.4040	14.0120
 2.4050	13.9740
 2.4060	13.9410
 2.4070	13.9020
 2.4080	13.8670
 2.4090	13.8250
 2.4100	13.7740
 2.4110	13.7290
 2.4120	13.6870
 2.4130	13.6370
 2.4140	13.5990
 2.4150	13.5630
 2.4160	13.5200
 2.4170	13.4850
 2.4180	13.4510
 2.4190	13.4070
 2.4200	13.3500
 2.4210	13.2970
 2.4220	13.2450
 2.4230	13.1940
 2.4240	13.1570
 2.4250	13.1170
 2.4260	13.0750
 2.4270	13.0380
 2.4280	12.9970
 2.4290	12.9600
 2.4300	12.9230
 2.4310	12.8750
 2.4320	12.8290
 2.4330	12.7850
 2.4340	12.7350
 2.4350	12.6840
 2.4360	12.6260
 2.4370	12.5670
 2.4380	12.5230
 2.4390	12.4830
 2.4400	12.4480
 2.4410	12.4220
 2.4420	12.3780
 2.4430	12.3370
 2.4440	12.3110
 2.4450	12.2710
 2.4460	12.2330
 2.4470	12.2060
 2.4480	12.1610
 2.4490	12.1160
 2.4500	12.0770
 2.4510	12.0290
 2.4520	11.9870
 2.4530	11.9470
 2.4540	11.9030
 2.4550	11.8580
 2.4560	11.8080
 2.4570	11.7540
 2.4580	11.7220
 2.4590	11.7020
 2.4600	11.6840
 2.4610	11.6740
 2.4620	11.6540
 2.4630	11.6090
 2.4640	11.5590
 2.4650	11.5270
 2.4660	11.4840
 2.4670	11.4580
 2.4680	11.4530
 2.4690	11.4310
 2.4700	11.4050
 2.4710	11.3800
 2.4720	11.3450
 2.4730	11.2910
 2.4740	11.2680
 2.4750	11.2640
 2.4760	11.2350
 2.4770	11.2140
 2.4780	11.1860
 2.4790	11.1280
 2.4800	11.0940
 2.4810	11.0820
 2.4820	11.0410
 2.4830	11.0140
 2.4840	10.9780
 2.4850	10.9610
 2.4860	10.9700
 2.4870	10.9390
 2.4880	10.8960
 2.4890	10.8660
 2.4900	10.8410
 2.4910	10.8390
 2.4920	10.8540
 2.4930	10.8740
 2.4940	10.8700
 2.4950	10.8540
 2.4960	10.8590
 2.4970	10.8490
 2.4980	10.8430
 2.4990	10.8420
 2.5000	10.8040
