Name: Salvia leucophylla 1
Type: vegetation
Class: Shrub
Genus: Salvia
Species: leucophylla
Sample No.: VH092
Owner: UCSB
Wavelength Range: TIR
Origin: 34.698; -120.0477; WGS84
Collection Date: 4/21/2013
Description: Samples were collected as part of the HyspIRI Airborne Campaign. 48 individual plants were sampled in three times in 2013 - spring  summer  and fall. The name of the sample includes a 1  2  or 3 which references a different individual of the species. Samples were taken to JPL and processed within 48 hours of collection. The same leaves were processed in the Nicolet and then measured using the ASD.
Measurement: Hemispherical reflectance
First Column: X
Second Column: Y
X Units: Wavelength (micrometers)
Y Units: Reflectance (percentage)
First X Value: 2.501
Last X Value: 15.387
Number of X Values: 1737
Additional Information: vegetation.shrub.salvia.leucophylla.tir.vh092.ucsb.nicolet.ancillary.txt

 2.5010	23.6130
 2.5030	23.5310
 2.5040	23.5640
 2.5050	23.5960
 2.5060	23.5910
 2.5070	23.5310
 2.5090	23.5800
 2.5100	23.5990
 2.5110	23.6390
 2.5120	23.6590
 2.5140	23.7170
 2.5150	23.7500
 2.5160	23.7410
 2.5170	23.7160
 2.5180	23.7670
 2.5200	23.7210
 2.5210	23.6630
 2.5220	23.5530
 2.5230	23.5460
 2.5250	23.5650
 2.5260	23.6760
 2.5270	23.6840
 2.5280	23.6790
 2.5290	23.7020
 2.5310	23.7000
 2.5320	23.6590
 2.5330	23.7060
 2.5340	23.6850
 2.5360	23.7430
 2.5370	23.7010
 2.5380	23.8030
 2.5390	23.8800
 2.5410	23.7810
 2.5420	23.7830
 2.5430	23.8500
 2.5440	23.8110
 2.5460	23.7830
 2.5470	23.9340
 2.5480	24.1260
 2.5490	24.0740
 2.5510	23.9110
 2.5520	23.8540
 2.5530	23.9610
 2.5540	23.9750
 2.5560	23.9820
 2.5570	24.0460
 2.5580	24.0560
 2.5590	24.0500
 2.5610	24.0280
 2.5620	24.0380
 2.5630	24.0990
 2.5640	24.0910
 2.5660	24.0320
 2.5670	24.0840
 2.5680	24.2210
 2.5700	24.2620
 2.5710	24.2330
 2.5720	24.1780
 2.5730	24.1200
 2.5750	24.0890
 2.5760	24.1720
 2.5770	24.2730
 2.5790	24.2690
 2.5800	24.1650
 2.5810	24.1190
 2.5820	24.1090
 2.5840	24.1000
 2.5850	23.9870
 2.5860	23.9690
 2.5880	24.0620
 2.5890	24.1660
 2.5900	24.1190
 2.5910	24.0430
 2.5930	24.0850
 2.5940	24.2260
 2.5950	24.2050
 2.5970	24.1050
 2.5980	23.9900
 2.5990	24.0370
 2.6000	24.1090
 2.6020	24.1520
 2.6030	24.1200
 2.6040	24.0630
 2.6060	23.9770
 2.6070	23.8910
 2.6080	23.8260
 2.6100	23.9220
 2.6110	23.9830
 2.6120	23.9470
 2.6140	23.8750
 2.6150	23.8560
 2.6160	23.8510
 2.6180	23.8930
 2.6190	23.7910
 2.6200	23.6830
 2.6220	23.5730
 2.6230	23.6220
 2.6240	23.6380
 2.6260	23.5210
 2.6270	23.4100
 2.6280	23.4390
 2.6300	23.3700
 2.6310	23.2690
 2.6320	23.2900
 2.6340	23.3730
 2.6350	23.3420
 2.6360	23.2550
 2.6380	23.1480
 2.6390	23.1980
 2.6400	23.2240
 2.6420	23.1950
 2.6430	23.1200
 2.6440	23.0060
 2.6460	22.9300
 2.6470	22.8610
 2.6480	22.7580
 2.6500	22.6570
 2.6510	22.6690
 2.6520	22.7000
 2.6540	22.6930
 2.6550	22.6080
 2.6560	22.4600
 2.6580	22.4750
 2.6590	22.3880
 2.6610	22.3140
 2.6620	22.2500
 2.6630	22.2570
 2.6650	22.2870
 2.6660	22.2560
 2.6670	22.0980
 2.6690	22.0900
 2.6700	21.9410
 2.6720	21.8440
 2.6730	21.7880
 2.6740	21.7120
 2.6760	21.6530
 2.6770	21.5680
 2.6780	21.4200
 2.6800	21.3650
 2.6810	21.2710
 2.6830	21.2800
 2.6840	21.1970
 2.6850	21.0340
 2.6870	20.8720
 2.6880	20.7360
 2.6900	20.5810
 2.6910	20.4610
 2.6920	20.2070
 2.6940	19.9820
 2.6950	19.8230
 2.6970	19.6880
 2.6980	19.3860
 2.6990	19.1060
 2.7010	18.8770
 2.7020	18.6670
 2.7040	18.4200
 2.7050	18.2520
 2.7060	17.9970
 2.7080	17.7850
 2.7090	17.5000
 2.7110	17.2110
 2.7120	16.9460
 2.7130	16.6880
 2.7150	16.3530
 2.7160	16.1370
 2.7180	15.7740
 2.7190	15.5200
 2.7210	15.3720
 2.7220	15.0020
 2.7230	14.5780
 2.7250	14.2510
 2.7260	13.9890
 2.7280	13.7330
 2.7290	13.4010
 2.7310	13.1000
 2.7320	12.7720
 2.7330	12.5310
 2.7350	12.3440
 2.7360	12.1440
 2.7380	11.7830
 2.7390	11.4990
 2.7410	11.2510
 2.7420	10.9330
 2.7440	10.6880
 2.7450	10.5840
 2.7470	10.3430
 2.7480	10.1160
 2.7490	 9.7870
 2.7510	 9.5200
 2.7520	 9.3210
 2.7540	 9.2200
 2.7550	 9.0650
 2.7570	 8.9190
 2.7580	 8.7810
 2.7600	 8.6880
 2.7610	 8.3940
 2.7630	 8.2110
 2.7640	 8.2100
 2.7660	 8.2120
 2.7670	 7.9640
 2.7680	 7.8840
 2.7700	 7.8840
 2.7710	 7.7430
 2.7730	 7.4600
 2.7740	 7.2890
 2.7760	 7.2630
 2.7770	 7.2530
 2.7790	 6.9990
 2.7800	 6.8460
 2.7820	 6.8790
 2.7830	 6.7930
 2.7850	 6.4900
 2.7860	 6.3910
 2.7880	 6.3480
 2.7890	 6.3120
 2.7910	 6.2330
 2.7920	 6.1560
 2.7940	 6.1480
 2.7950	 6.1790
 2.7970	 6.0290
 2.7980	 5.8790
 2.8000	 5.7570
 2.8010	 5.6760
 2.8030	 5.5870
 2.8040	 5.5280
 2.8060	 5.4180
 2.8070	 5.3040
 2.8090	 5.2020
 2.8110	 5.1860
 2.8120	 5.1420
 2.8140	 5.1410
 2.8150	 5.0770
 2.8170	 5.1840
 2.8180	 5.1890
 2.8200	 5.0620
 2.8210	 4.9260
 2.8230	 4.9410
 2.8240	 4.9290
 2.8260	 4.8280
 2.8270	 4.7310
 2.8290	 4.7150
 2.8300	 4.5970
 2.8320	 4.6440
 2.8340	 4.7080
 2.8350	 4.6730
 2.8370	 4.5420
 2.8380	 4.4890
 2.8400	 4.4670
 2.8410	 4.4300
 2.8430	 4.2790
 2.8440	 4.2010
 2.8460	 4.1450
 2.8480	 4.2310
 2.8490	 4.2470
 2.8510	 4.2660
 2.8520	 4.2760
 2.8540	 4.2910
 2.8550	 4.1730
 2.8570	 4.0450
 2.8590	 4.0890
 2.8600	 4.0760
 2.8620	 3.9820
 2.8630	 4.0930
 2.8650	 4.1730
 2.8660	 4.1500
 2.8680	 3.9860
 2.8700	 3.9340
 2.8710	 3.8270
 2.8730	 3.7590
 2.8740	 3.6940
 2.8760	 3.7430
 2.8780	 3.8130
 2.8790	 3.8140
 2.8810	 3.7050
 2.8820	 3.6780
 2.8840	 3.6500
 2.8860	 3.6560
 2.8870	 3.6340
 2.8890	 3.7700
 2.8900	 3.7090
 2.8920	 3.6740
 2.8940	 3.6370
 2.8950	 3.6530
 2.8970	 3.6200
 2.8980	 3.5620
 2.9000	 3.5350
 2.9020	 3.6680
 2.9030	 3.6840
 2.9050	 3.5820
 2.9070	 3.4480
 2.9080	 3.5820
 2.9100	 3.6350
 2.9120	 3.5740
 2.9130	 3.4940
 2.9150	 3.5280
 2.9160	 3.5120
 2.9180	 3.5820
 2.9200	 3.5880
 2.9210	 3.5310
 2.9230	 3.4860
 2.9250	 3.5720
 2.9260	 3.5230
 2.9280	 3.4830
 2.9300	 3.3930
 2.9310	 3.3850
 2.9330	 3.3940
 2.9350	 3.5060
 2.9360	 3.4570
 2.9380	 3.4400
 2.9400	 3.3490
 2.9410	 3.3650
 2.9430	 3.5000
 2.9450	 3.6300
 2.9460	 3.6350
 2.9480	 3.5960
 2.9500	 3.5080
 2.9510	 3.5190
 2.9530	 3.5570
 2.9550	 3.6310
 2.9560	 3.6260
 2.9580	 3.5760
 2.9600	 3.5670
 2.9610	 3.8670
 2.9630	 4.0720
 2.9650	 3.7620
 2.9660	 3.3130
 2.9680	 3.5660
 2.9700	 3.6800
 2.9720	 3.2910
 2.9730	 3.4730
 2.9750	 3.7020
 2.9770	 3.7820
 2.9780	 3.6270
 2.9800	 3.3230
 2.9820	 3.1780
 2.9840	 3.4130
 2.9850	 3.4490
 2.9870	 3.3390
 2.9890	 3.4050
 2.9900	 3.3080
 2.9920	 3.4300
 2.9940	 3.6380
 2.9960	 3.5980
 2.9970	 3.9270
 2.9990	 4.1720
 3.0010	 3.7460
 3.0030	 3.6210
 3.0040	 3.8200
 3.0060	 4.0510
 3.0080	 3.8940
 3.0100	 3.8000
 3.0110	 4.1230
 3.0130	 4.1900
 3.0150	 4.0510
 3.0170	 4.2500
 3.0180	 4.1100
 3.0200	 3.9150
 3.0220	 3.9620
 3.0240	 4.0580
 3.0250	 4.0460
 3.0270	 4.0770
 3.0290	 4.0690
 3.0310	 3.9890
 3.0320	 4.0210
 3.0340	 4.0950
 3.0360	 3.9310
 3.0380	 4.1550
 3.0400	 4.2970
 3.0410	 4.0590
 3.0430	 4.2730
 3.0450	 4.4440
 3.0470	 4.2250
 3.0480	 3.8360
 3.0500	 4.1330
 3.0520	 5.0450
 3.0540	 4.6780
 3.0560	 4.3750
 3.0570	 4.2170
 3.0590	 4.4610
 3.0610	 4.4530
 3.0630	 4.1260
 3.0650	 4.1730
 3.0660	 4.3730
 3.0680	 4.3430
 3.0700	 4.4110
 3.0720	 4.3260
 3.0740	 4.4110
 3.0760	 4.4890
 3.0770	 4.4860
 3.0790	 4.4430
 3.0810	 4.6190
 3.0830	 4.7120
 3.0850	 4.7690
 3.0870	 4.7380
 3.0880	 4.7390
 3.0900	 4.7140
 3.0920	 4.7220
 3.0940	 4.7740
 3.0960	 4.8690
 3.0980	 4.8810
 3.0990	 4.9420
 3.1010	 4.7950
 3.1030	 4.7960
 3.1050	 4.7940
 3.1070	 4.8060
 3.1090	 4.8910
 3.1110	 5.0710
 3.1120	 5.1440
 3.1140	 5.1590
 3.1160	 5.1470
 3.1180	 5.2540
 3.1200	 5.2240
 3.1220	 5.3160
 3.1240	 5.3640
 3.1260	 5.4370
 3.1270	 5.3210
 3.1290	 5.2920
 3.1310	 5.3470
 3.1330	 5.3210
 3.1350	 5.2040
 3.1370	 5.3270
 3.1390	 5.4100
 3.1410	 5.4980
 3.1430	 5.5020
 3.1450	 5.6230
 3.1460	 5.6800
 3.1480	 5.7020
 3.1500	 5.6120
 3.1520	 5.5410
 3.1540	 5.5690
 3.1560	 5.7130
 3.1580	 5.7850
 3.1600	 5.7780
 3.1620	 5.6250
 3.1640	 5.6920
 3.1660	 5.6660
 3.1680	 5.7560
 3.1700	 6.0080
 3.1710	 6.0850
 3.1730	 6.0020
 3.1750	 6.1810
 3.1770	 5.9160
 3.1790	 5.8010
 3.1810	 6.2840
 3.1830	 6.1320
 3.1850	 5.9740
 3.1870	 6.0690
 3.1890	 6.3200
 3.1910	 6.3410
 3.1930	 6.2710
 3.1950	 6.3630
 3.1970	 6.3600
 3.1990	 6.3790
 3.2010	 6.4120
 3.2030	 6.4700
 3.2050	 6.5050
 3.2070	 6.5420
 3.2090	 6.4990
 3.2110	 6.5150
 3.2130	 6.5860
 3.2150	 6.6580
 3.2170	 6.6490
 3.2190	 6.6260
 3.2210	 6.6660
 3.2230	 6.7520
 3.2250	 6.8280
 3.2270	 6.8040
 3.2290	 6.6950
 3.2310	 6.7650
 3.2330	 6.8290
 3.2350	 6.8460
 3.2370	 6.7790
 3.2390	 6.8390
 3.2410	 6.8430
 3.2430	 6.8180
 3.2450	 6.8430
 3.2470	 6.9350
 3.2490	 6.9210
 3.2510	 6.8700
 3.2530	 6.9350
 3.2550	 6.9940
 3.2570	 6.9730
 3.2590	 7.1160
 3.2610	 7.0850
 3.2630	 6.9890
 3.2650	 7.0110
 3.2670	 7.0680
 3.2690	 7.0700
 3.2720	 7.1690
 3.2740	 7.2400
 3.2760	 7.2570
 3.2780	 7.1730
 3.2800	 7.1780
 3.2820	 7.1910
 3.2840	 7.2350
 3.2860	 7.2170
 3.2880	 7.2750
 3.2900	 7.2920
 3.2920	 7.3440
 3.2940	 7.2810
 3.2960	 7.1920
 3.2990	 7.1920
 3.3010	 7.2000
 3.3030	 7.1810
 3.3050	 7.2080
 3.3070	 7.2110
 3.3090	 7.1960
 3.3110	 7.1080
 3.3130	 7.0670
 3.3150	 6.9670
 3.3180	 6.8810
 3.3200	 6.7960
 3.3220	 6.7180
 3.3240	 6.5600
 3.3260	 6.5000
 3.3280	 6.3440
 3.3300	 6.1350
 3.3330	 5.9960
 3.3350	 5.9870
 3.3370	 5.8630
 3.3390	 5.6600
 3.3410	 5.4630
 3.3430	 5.3390
 3.3450	 5.2000
 3.3480	 5.1120
 3.3500	 4.8850
 3.3520	 4.7510
 3.3540	 4.7310
 3.3560	 4.7420
 3.3580	 4.6760
 3.3610	 4.6230
 3.3630	 4.4270
 3.3650	 4.2910
 3.3670	 4.1220
 3.3690	 4.0650
 3.3720	 3.9580
 3.3740	 3.8670
 3.3760	 3.8540
 3.3780	 3.8370
 3.3800	 3.7320
 3.3830	 3.6420
 3.3850	 3.5460
 3.3870	 3.4700
 3.3890	 3.3250
 3.3910	 3.2500
 3.3940	 3.0730
 3.3960	 2.9370
 3.3980	 2.8620
 3.4000	 2.9150
 3.4020	 2.8760
 3.4050	 2.8740
 3.4070	 2.8970
 3.4090	 2.9200
 3.4110	 2.9410
 3.4140	 2.9060
 3.4160	 2.7890
 3.4180	 2.8910
 3.4200	 3.0760
 3.4230	 3.2160
 3.4250	 3.2810
 3.4270	 3.3520
 3.4290	 3.3340
 3.4320	 3.4460
 3.4340	 3.6020
 3.4360	 3.6620
 3.4390	 3.7520
 3.4410	 3.8450
 3.4430	 3.7830
 3.4450	 3.8250
 3.4480	 3.9090
 3.4500	 4.0410
 3.4520	 4.2200
 3.4550	 4.4440
 3.4570	 4.5300
 3.4590	 4.6490
 3.4620	 4.8040
 3.4640	 4.8940
 3.4660	 4.8640
 3.4680	 4.9000
 3.4710	 4.9270
 3.4730	 4.9450
 3.4750	 4.8620
 3.4780	 4.7750
 3.4800	 4.7110
 3.4820	 4.6870
 3.4850	 4.5530
 3.4870	 4.4520
 3.4890	 4.4630
 3.4920	 4.3710
 3.4940	 4.2280
 3.4970	 4.1820
 3.4990	 4.0850
 3.5010	 4.1170
 3.5040	 4.1600
 3.5060	 4.2200
 3.5080	 4.3240
 3.5110	 4.4860
 3.5130	 4.8280
 3.5160	 5.3400
 3.5180	 5.7400
 3.5200	 6.1030
 3.5230	 6.4270
 3.5250	 6.7890
 3.5270	 7.0960
 3.5300	 7.3540
 3.5320	 7.5770
 3.5350	 7.8560
 3.5370	 7.9990
 3.5400	 8.1640
 3.5420	 8.2940
 3.5440	 8.4450
 3.5470	 8.6320
 3.5490	 8.7830
 3.5520	 8.9090
 3.5540	 9.0210
 3.5570	 9.1190
 3.5590	 9.2990
 3.5610	 9.4270
 3.5640	 9.5210
 3.5660	 9.5880
 3.5690	 9.6400
 3.5710	 9.7190
 3.5740	 9.7460
 3.5760	 9.7860
 3.5790	 9.9280
 3.5810	 9.9990
 3.5840	10.1140
 3.5860	10.2130
 3.5890	10.2890
 3.5910	10.3570
 3.5930	10.3370
 3.5960	10.3370
 3.5980	10.4760
 3.6010	10.5930
 3.6030	10.6780
 3.6060	10.7820
 3.6080	10.8970
 3.6110	10.9260
 3.6140	10.9320
 3.6160	10.9190
 3.6190	10.9220
 3.6210	10.9540
 3.6240	10.9640
 3.6260	11.0270
 3.6290	11.0540
 3.6310	11.0440
 3.6340	11.1000
 3.6360	11.1180
 3.6390	11.1190
 3.6410	11.1490
 3.6440	11.1530
 3.6470	11.1160
 3.6490	11.1770
 3.6520	11.2090
 3.6540	11.2390
 3.6570	11.2990
 3.6590	11.2650
 3.6620	11.2800
 3.6650	11.3690
 3.6670	11.3050
 3.6700	11.2950
 3.6720	11.3400
 3.6750	11.3610
 3.6780	11.3340
 3.6800	11.3810
 3.6830	11.4080
 3.6850	11.4040
 3.6880	11.4150
 3.6910	11.4300
 3.6930	11.4750
 3.6960	11.4840
 3.6990	11.5050
 3.7010	11.5880
 3.7040	11.6540
 3.7060	11.6800
 3.7090	11.6660
 3.7120	11.6170
 3.7140	11.6040
 3.7170	11.6600
 3.7200	11.6390
 3.7220	11.6850
 3.7250	11.7150
 3.7280	11.7460
 3.7300	11.7170
 3.7330	11.7650
 3.7360	11.8370
 3.7390	11.8620
 3.7410	11.9010
 3.7440	11.9220
 3.7470	11.9090
 3.7490	11.9500
 3.7520	11.9460
 3.7550	11.9350
 3.7580	11.9270
 3.7600	11.8970
 3.7630	11.8670
 3.7660	11.8980
 3.7680	11.9540
 3.7710	12.0300
 3.7740	11.9820
 3.7770	11.9630
 3.7790	11.9740
 3.7820	11.9860
 3.7850	12.0110
 3.7880	12.1060
 3.7900	12.1670
 3.7930	12.2040
 3.7960	12.2080
 3.7990	12.1590
 3.8020	12.2380
 3.8040	12.3790
 3.8070	12.3970
 3.8100	12.3430
 3.8130	12.3310
 3.8160	12.3750
 3.8180	12.4600
 3.8210	12.5430
 3.8240	12.5390
 3.8270	12.4850
 3.8300	12.5440
 3.8330	12.6110
 3.8350	12.6010
 3.8380	12.6730
 3.8410	12.8000
 3.8440	12.9390
 3.8470	12.8860
 3.8500	12.8590
 3.8520	12.8650
 3.8550	12.9160
 3.8580	12.9500
 3.8610	13.0050
 3.8640	13.0380
 3.8670	13.0650
 3.8700	13.1180
 3.8730	13.1590
 3.8750	13.1580
 3.8780	13.1780
 3.8810	13.1890
 3.8840	13.2610
 3.8870	13.3930
 3.8900	13.4980
 3.8930	13.5090
 3.8960	13.5230
 3.8990	13.5560
 3.9020	13.5370
 3.9050	13.5240
 3.9080	13.5910
 3.9110	13.6480
 3.9140	13.6700
 3.9160	13.6740
 3.9190	13.7370
 3.9220	13.8410
 3.9250	13.8720
 3.9280	13.8400
 3.9310	13.8430
 3.9340	13.9030
 3.9370	13.9760
 3.9400	13.9760
 3.9430	13.9770
 3.9460	13.9890
 3.9490	14.0970
 3.9520	14.1690
 3.9550	14.1820
 3.9580	14.1550
 3.9610	14.2200
 3.9640	14.3030
 3.9670	14.4120
 3.9700	14.4450
 3.9730	14.4390
 3.9770	14.5160
 3.9800	14.6210
 3.9830	14.7100
 3.9860	14.8050
 3.9890	14.8470
 3.9920	14.9280
 3.9950	14.9500
 3.9980	14.9780
 4.0010	15.1070
 4.0040	15.1770
 4.0070	15.1770
 4.0100	15.2590
 4.0130	15.3540
 4.0170	15.4610
 4.0200	15.5300
 4.0230	15.5620
 4.0260	15.5310
 4.0290	15.5300
 4.0320	15.6200
 4.0350	15.6910
 4.0380	15.7410
 4.0420	15.8450
 4.0450	15.9700
 4.0480	16.0720
 4.0510	16.0780
 4.0540	16.0890
 4.0570	16.1410
 4.0610	16.2250
 4.0640	16.2670
 4.0670	16.2930
 4.0700	16.3410
 4.0730	16.4370
 4.0770	16.4780
 4.0800	16.4940
 4.0830	16.5600
 4.0860	16.6260
 4.0890	16.6540
 4.0930	16.7030
 4.0960	16.7210
 4.0990	16.7380
 4.1020	16.7490
 4.1060	16.7710
 4.1090	16.8560
 4.1120	16.9270
 4.1150	16.9770
 4.1190	17.0280
 4.1220	17.0610
 4.1250	17.0990
 4.1280	17.0960
 4.1320	17.1700
 4.1350	17.2200
 4.1380	17.2160
 4.1420	17.2610
 4.1450	17.3270
 4.1480	17.3040
 4.1520	17.3300
 4.1550	17.3970
 4.1580	17.4410
 4.1620	17.4160
 4.1650	17.4840
 4.1680	17.5790
 4.1720	17.6040
 4.1750	17.5720
 4.1780	17.5850
 4.1820	17.6110
 4.1850	17.5600
 4.1890	17.5670
 4.1920	17.6240
 4.1950	17.7560
 4.1990	18.0430
 4.2020	18.3700
 4.2060	18.7020
 4.2090	18.9610
 4.2120	19.2820
 4.2160	19.5880
 4.2190	19.9250
 4.2230	20.3190
 4.2260	20.4940
 4.2300	20.6900
 4.2330	21.0340
 4.2360	21.1780
 4.2400	21.1950
 4.2430	20.9800
 4.2470	20.6360
 4.2500	20.3490
 4.2540	19.8450
 4.2570	19.5310
 4.2610	19.7750
 4.2640	20.2460
 4.2680	20.4670
 4.2710	20.3580
 4.2750	20.3710
 4.2780	20.4390
 4.2820	20.2730
 4.2850	20.2570
 4.2890	20.2800
 4.2930	20.1230
 4.2960	19.7960
 4.3000	19.8110
 4.3030	19.8480
 4.3070	19.6480
 4.3100	19.4520
 4.3140	19.3440
 4.3180	19.1320
 4.3210	18.9860
 4.3250	18.9300
 4.3280	18.9390
 4.3320	18.8740
 4.3360	18.7740
 4.3390	18.6710
 4.3430	18.5880
 4.3470	18.5030
 4.3500	18.3880
 4.3540	18.2940
 4.3570	18.2420
 4.3610	18.2190
 4.3650	18.2490
 4.3680	18.2430
 4.3720	18.2230
 4.3760	18.1240
 4.3800	18.0510
 4.3830	18.0480
 4.3870	18.1150
 4.3910	18.1470
 4.3940	18.1530
 4.3980	18.1450
 4.4020	18.1890
 4.4060	18.2010
 4.4090	18.1200
 4.4130	18.1380
 4.4170	18.1420
 4.4210	18.0880
 4.4240	18.0220
 4.4280	17.9920
 4.4320	18.0390
 4.4360	18.0340
 4.4400	17.9810
 4.4430	17.9500
 4.4470	17.9800
 4.4510	17.9540
 4.4550	17.9530
 4.4590	17.9690
 4.4620	17.9280
 4.4660	17.8510
 4.4700	17.8600
 4.4740	17.9110
 4.4780	17.9120
 4.4820	17.8830
 4.4860	17.8760
 4.4900	17.8100
 4.4930	17.7400
 4.4970	17.7360
 4.5010	17.7550
 4.5050	17.7390
 4.5090	17.7210
 4.5130	17.7230
 4.5170	17.7300
 4.5210	17.6890
 4.5250	17.7080
 4.5290	17.6860
 4.5330	17.6350
 4.5370	17.6200
 4.5410	17.6170
 4.5450	17.6450
 4.5490	17.6620
 4.5530	17.5780
 4.5570	17.4990
 4.5610	17.4660
 4.5650	17.4820
 4.5690	17.4920
 4.5730	17.4950
 4.5770	17.4790
 4.5810	17.4610
 4.5850	17.4730
 4.5890	17.4300
 4.5930	17.3530
 4.5970	17.3380
 4.6010	17.2990
 4.6050	17.3030
 4.6090	17.3070
 4.6130	17.3030
 4.6170	17.2610
 4.6220	17.3140
 4.6260	17.3280
 4.6300	17.2200
 4.6340	17.2010
 4.6380	17.2970
 4.6420	17.3170
 4.6460	17.2940
 4.6510	17.2450
 4.6550	17.2950
 4.6590	17.3250
 4.6630	17.3110
 4.6670	17.3500
 4.6720	17.4010
 4.6760	17.4050
 4.6800	17.4130
 4.6840	17.3980
 4.6880	17.4230
 4.6930	17.4270
 4.6970	17.3920
 4.7010	17.3660
 4.7050	17.3640
 4.7100	17.3910
 4.7140	17.4170
 4.7180	17.3770
 4.7230	17.3720
 4.7270	17.3980
 4.7310	17.4480
 4.7360	17.4160
 4.7400	17.4300
 4.7440	17.4430
 4.7490	17.4190
 4.7530	17.4210
 4.7570	17.4680
 4.7620	17.5210
 4.7660	17.5870
 4.7700	17.5780
 4.7750	17.5580
 4.7790	17.5530
 4.7840	17.6040
 4.7880	17.6170
 4.7920	17.6470
 4.7970	17.6310
 4.8010	17.6800
 4.8060	17.6940
 4.8100	17.6600
 4.8150	17.6420
 4.8190	17.6880
 4.8240	17.6890
 4.8280	17.6780
 4.8330	17.6730
 4.8370	17.7300
 4.8420	17.7250
 4.8460	17.7040
 4.8510	17.7200
 4.8550	17.7490
 4.8600	17.7410
 4.8640	17.7770
 4.8690	17.8310
 4.8730	17.8330
 4.8780	17.8090
 4.8830	17.8390
 4.8870	17.8350
 4.8920	17.8150
 4.8960	17.8360
 4.9010	17.8560
 4.9060	17.8080
 4.9100	17.8200
 4.9150	17.8570
 4.9200	17.9080
 4.9240	17.9430
 4.9290	17.9700
 4.9340	17.9290
 4.9380	17.9540
 4.9430	18.0120
 4.9480	18.0700
 4.9530	18.0740
 4.9570	18.0640
 4.9620	18.0870
 4.9670	18.1880
 4.9720	18.2200
 4.9760	18.2310
 4.9810	18.2210
 4.9860	18.2720
 4.9910	18.3130
 4.9960	18.3490
 5.0000	18.3200
 5.0050	18.2530
 5.0100	18.3240
 5.0150	18.4300
 5.0200	18.4650
 5.0250	18.5010
 5.0290	18.5070
 5.0340	18.5550
 5.0390	18.5920
 5.0440	18.6000
 5.0490	18.5570
 5.0540	18.5610
 5.0590	18.5650
 5.0640	18.6210
 5.0690	18.6030
 5.0740	18.5950
 5.0790	18.5750
 5.0840	18.5750
 5.0890	18.5850
 5.0940	18.6610
 5.0990	18.6880
 5.1040	18.7000
 5.1090	18.7010
 5.1140	18.6970
 5.1190	18.6320
 5.1240	18.6740
 5.1290	18.7330
 5.1340	18.7860
 5.1390	18.7890
 5.1440	18.7580
 5.1490	18.6760
 5.1540	18.7090
 5.1600	18.7190
 5.1650	18.7620
 5.1700	18.7800
 5.1750	18.7580
 5.1800	18.7350
 5.1850	18.7570
 5.1910	18.7290
 5.1960	18.6920
 5.2010	18.6600
 5.2060	18.6980
 5.2110	18.6560
 5.2170	18.6310
 5.2220	18.6110
 5.2270	18.6100
 5.2320	18.5790
 5.2380	18.5900
 5.2430	18.5700
 5.2480	18.5650
 5.2540	18.5260
 5.2590	18.5240
 5.2640	18.4530
 5.2700	18.4070
 5.2750	18.3820
 5.2800	18.3920
 5.2860	18.3180
 5.2910	18.3270
 5.2970	18.3110
 5.3020	18.2830
 5.3070	18.2330
 5.3130	18.2560
 5.3180	18.2600
 5.3240	18.3000
 5.3290	18.2220
 5.3350	18.2140
 5.3400	18.1830
 5.3460	18.1540
 5.3510	18.1190
 5.3570	18.0830
 5.3620	17.9840
 5.3680	17.9280
 5.3730	17.8490
 5.3790	17.8530
 5.3850	17.8080
 5.3900	17.8240
 5.3960	17.7860
 5.4010	17.7730
 5.4070	17.7540
 5.4130	17.7300
 5.4180	17.6450
 5.4240	17.6160
 5.4300	17.5770
 5.4350	17.5310
 5.4410	17.4230
 5.4470	17.3760
 5.4530	17.3670
 5.4580	17.3990
 5.4640	17.3020
 5.4700	17.2110
 5.4760	17.1410
 5.4810	17.0460
 5.4870	16.9710
 5.4930	16.9500
 5.4990	16.8540
 5.5050	16.7790
 5.5110	16.6510
 5.5160	16.5730
 5.5220	16.5150
 5.5280	16.4260
 5.5340	16.2870
 5.5400	16.1960
 5.5460	15.9770
 5.5520	15.7820
 5.5580	15.6600
 5.5640	15.5260
 5.5700	15.3210
 5.5760	15.1720
 5.5820	14.9730
 5.5880	14.7730
 5.5940	14.5510
 5.6000	14.3710
 5.6060	14.0710
 5.6120	13.8610
 5.6180	13.5990
 5.6240	13.3570
 5.6300	13.0540
 5.6360	12.8100
 5.6420	12.4560
 5.6490	11.9980
 5.6550	11.5260
 5.6610	11.1290
 5.6670	10.6280
 5.6730	10.1050
 5.6800	 9.5070
 5.6860	 8.9400
 5.6920	 8.3400
 5.6980	 7.8060
 5.7040	 7.2460
 5.7110	 6.6190
 5.7170	 5.9180
 5.7230	 5.3290
 5.7300	 4.8200
 5.7360	 4.3480
 5.7420	 3.8980
 5.7490	 3.6450
 5.7550	 3.4920
 5.7620	 3.4780
 5.7680	 3.4490
 5.7740	 3.5480
 5.7810	 3.7100
 5.7870	 3.9090
 5.7940	 4.0180
 5.8000	 4.1760
 5.8070	 4.2700
 5.8130	 4.4200
 5.8200	 4.5030
 5.8260	 4.6380
 5.8330	 4.7250
 5.8390	 4.7970
 5.8460	 4.8580
 5.8530	 5.0070
 5.8590	 5.0660
 5.8660	 5.1070
 5.8720	 5.0830
 5.8790	 4.9430
 5.8860	 4.6940
 5.8920	 4.5320
 5.8990	 4.3820
 5.9060	 4.2910
 5.9130	 4.1500
 5.9190	 4.1240
 5.9260	 4.0560
 5.9330	 4.2520
 5.9400	 4.5440
 5.9470	 4.9600
 5.9530	 5.4120
 5.9600	 5.8270
 5.9670	 6.1030
 5.9740	 6.3320
 5.9810	 6.4250
 5.9880	 6.5130
 5.9950	 6.4600
 6.0020	 6.5490
 6.0090	 6.4840
 6.0160	 6.3280
 6.0230	 6.2170
 6.0300	 6.1560
 6.0370	 6.0510
 6.0440	 6.0410
 6.0510	 5.9240
 6.0580	 6.0830
 6.0650	 6.1550
 6.0720	 6.2060
 6.0790	 6.2440
 6.0860	 6.3480
 6.0930	 6.3480
 6.1000	 6.4130
 6.1080	 6.4720
 6.1150	 6.5860
 6.1220	 6.5720
 6.1290	 6.6560
 6.1370	 6.7520
 6.1440	 6.7840
 6.1510	 6.6620
 6.1580	 6.6590
 6.1660	 6.6190
 6.1730	 6.6240
 6.1800	 6.5500
 6.1880	 6.5750
 6.1950	 6.5410
 6.2030	 6.4980
 6.2100	 6.4530
 6.2170	 6.4180
 6.2250	 6.3550
 6.2320	 6.5990
 6.2400	 6.7940
 6.2470	 7.1270
 6.2550	 7.3480
 6.2630	 7.5490
 6.2700	 7.7010
 6.2780	 7.8850
 6.2850	 7.9350
 6.2930	 8.1300
 6.3010	 8.3260
 6.3080	 8.6020
 6.3160	 8.7030
 6.3240	 8.8970
 6.3310	 9.0370
 6.3390	 9.1640
 6.3470	 9.2220
 6.3550	 9.4170
 6.3620	 9.5530
 6.3700	 9.7650
 6.3780	 9.9010
 6.3860	10.1090
 6.3940	10.2380
 6.4020	10.3610
 6.4100	10.4790
 6.4180	10.6330
 6.4260	10.6910
 6.4330	10.7870
 6.4410	10.6930
 6.4490	10.7630
 6.4580	10.8610
 6.4660	10.9360
 6.4740	10.8970
 6.4820	11.0050
 6.4900	11.0270
 6.4980	11.1650
 6.5060	11.2230
 6.5140	11.2830
 6.5230	11.2950
 6.5310	11.3520
 6.5390	11.3040
 6.5470	11.3260
 6.5550	11.2880
 6.5640	11.2310
 6.5720	10.9980
 6.5800	10.8720
 6.5890	10.7450
 6.5970	10.6930
 6.6060	10.5960
 6.6140	10.6540
 6.6220	10.6370
 6.6310	10.7270
 6.6390	10.7360
 6.6480	10.6560
 6.6560	10.5670
 6.6650	10.6480
 6.6740	10.7150
 6.6820	10.8500
 6.6910	10.8120
 6.6990	10.7710
 6.7080	10.5980
 6.7170	10.3350
 6.7260	 9.9040
 6.7340	 9.5210
 6.7430	 9.0370
 6.7520	 8.6560
 6.7610	 8.2490
 6.7690	 7.9070
 6.7780	 7.3820
 6.7870	 6.7780
 6.7960	 6.1810
 6.8050	 5.8020
 6.8140	 5.4630
 6.8230	 5.3440
 6.8320	 5.1910
 6.8410	 5.1670
 6.8500	 5.1910
 6.8590	 5.3450
 6.8680	 5.3220
 6.8770	 5.4850
 6.8860	 5.6250
 6.8950	 5.8660
 6.9050	 5.9300
 6.9140	 5.9620
 6.9230	 5.9130
 6.9320	 6.0200
 6.9420	 6.0650
 6.9510	 6.1630
 6.9600	 6.1160
 6.9700	 6.1380
 6.9790	 6.0990
 6.9880	 6.1120
 6.9980	 6.1370
 7.0070	 6.3030
 7.0170	 6.3410
 7.0260	 6.4050
 7.0360	 6.4010
 7.0450	 6.4850
 7.0550	 6.4210
 7.0650	 6.5850
 7.0740	 6.6690
 7.0840	 6.8350
 7.0940	 6.9490
 7.1030	 7.0860
 7.1130	 7.0370
 7.1230	 7.1490
 7.1330	 7.0900
 7.1420	 7.0050
 7.1520	 6.9010
 7.1620	 6.9500
 7.1720	 6.7470
 7.1820	 6.4940
 7.1920	 6.0800
 7.2020	 5.8330
 7.2120	 5.8010
 7.2220	 6.0180
 7.2320	 6.1080
 7.2420	 6.1080
 7.2520	 5.8580
 7.2620	 5.6870
 7.2730	 5.5650
 7.2830	 5.6190
 7.2930	 5.5860
 7.3030	 5.6540
 7.3140	 5.5550
 7.3240	 5.6340
 7.3340	 5.6420
 7.3450	 5.7980
 7.3550	 5.8510
 7.3660	 5.9660
 7.3760	 5.9820
 7.3870	 6.1090
 7.3970	 6.1230
 7.4080	 6.3080
 7.4180	 6.3370
 7.4290	 6.4120
 7.4400	 6.3880
 7.4500	 6.4290
 7.4610	 6.2940
 7.4720	 6.2460
 7.4830	 6.1360
 7.4930	 6.1650
 7.5040	 6.0810
 7.5150	 6.0690
 7.5260	 5.9430
 7.5370	 5.8830
 7.5480	 5.6920
 7.5590	 5.6460
 7.5700	 5.4550
 7.5810	 5.4510
 7.5920	 5.3900
 7.6030	 5.4820
 7.6140	 5.5070
 7.6260	 5.6510
 7.6370	 5.7430
 7.6480	 5.9690
 7.6590	 5.8660
 7.6710	 5.8810
 7.6820	 5.8720
 7.6930	 5.9750
 7.7050	 5.9150
 7.7160	 6.0050
 7.7280	 5.8330
 7.7390	 5.7480
 7.7510	 5.6520
 7.7630	 5.6960
 7.7740	 5.5480
 7.7860	 5.5260
 7.7980	 5.4340
 7.8090	 5.4680
 7.8210	 5.3470
 7.8330	 5.3440
 7.8450	 5.2350
 7.8570	 5.2960
 7.8690	 5.3320
 7.8810	 5.5040
 7.8930	 5.4800
 7.9050	 5.5260
 7.9170	 5.4500
 7.9290	 5.4720
 7.9410	 5.3510
 7.9530	 5.3100
 7.9650	 5.2030
 7.9780	 5.2910
 7.9900	 5.1030
 8.0020	 5.1310
 8.0150	 5.1150
 8.0270	 5.3070
 8.0390	 5.2990
 8.0520	 5.3160
 8.0640	 5.1550
 8.0770	 5.2920
 8.0900	 5.3620
 8.1020	 5.5800
 8.1150	 5.5880
 8.1280	 5.7290
 8.1400	 5.6660
 8.1530	 5.9260
 8.1660	 5.9390
 8.1790	 6.1010
 8.1920	 6.0740
 8.2050	 6.0540
 8.2180	 5.9170
 8.2310	 6.0510
 8.2440	 5.8970
 8.2570	 6.0700
 8.2700	 5.9650
 8.2830	 5.9120
 8.2970	 5.7720
 8.3100	 5.8590
 8.3230	 5.7900
 8.3370	 5.8890
 8.3500	 5.6680
 8.3640	 5.7060
 8.3770	 5.6720
 8.3910	 5.6970
 8.4040	 5.4050
 8.4180	 5.4300
 8.4320	 5.2770
 8.4450	 5.2860
 8.4590	 5.1050
 8.4730	 5.1600
 8.4870	 5.0740
 8.5010	 5.0270
 8.5150	 4.7170
 8.5290	 4.6820
 8.5430	 4.6130
 8.5570	 4.7220
 8.5710	 4.6110
 8.5850	 4.8000
 8.5990	 4.5880
 8.6140	 4.6870
 8.6280	 4.7990
 8.6420	 4.9350
 8.6570	 5.0210
 8.6710	 5.2460
 8.6860	 5.1420
 8.7000	 5.3360
 8.7150	 5.3540
 8.7300	 5.5310
 8.7440	 5.5090
 8.7590	 5.6120
 8.7740	 5.5690
 8.7890	 5.6460
 8.8040	 5.6090
 8.8190	 5.7740
 8.8340	 5.5250
 8.8490	 5.4460
 8.8640	 5.2790
 8.8790	 5.3390
 8.8940	 5.1150
 8.9100	 5.0240
 8.9250	 4.7120
 8.9400	 4.5640
 8.9560	 4.2380
 8.9710	 4.2780
 8.9870	 4.1570
 9.0020	 4.2690
 9.0180	 4.0450
 9.0340	 4.1450
 9.0500	 4.0950
 9.0650	 4.2380
 9.0810	 4.2110
 9.0970	 4.4460
 9.1130	 4.3010
 9.1290	 4.4110
 9.1450	 4.4160
 9.1610	 4.6200
 9.1780	 4.4370
 9.1940	 4.5250
 9.2100	 4.3980
 9.2270	 4.4940
 9.2430	 4.3300
 9.2600	 4.3310
 9.2760	 4.0730
 9.2930	 4.1760
 9.3090	 4.0530
 9.3260	 4.0860
 9.3430	 3.8870
 9.3600	 3.9520
 9.3770	 3.6700
 9.3940	 3.8020
 9.4110	 3.7170
 9.4280	 3.8470
 9.4450	 3.7920
 9.4620	 3.9300
 9.4800	 3.7590
 9.4970	 3.8900
 9.5140	 3.8080
 9.5320	 4.0460
 9.5500	 4.0960
 9.5670	 4.2870
 9.5850	 4.0850
 9.6030	 4.1490
 9.6200	 3.8630
 9.6380	 3.9370
 9.6560	 3.9190
 9.6740	 4.0880
 9.6920	 3.9090
 9.7100	 4.0890
 9.7290	 4.1090
 9.7470	 4.4090
 9.7650	 4.3790
 9.7840	 4.6520
 9.8020	 4.7950
 9.8210	 5.1040
 9.8390	 5.0100
 9.8580	 5.1500
 9.8770	 5.0430
 9.8960	 5.2320
 9.9150	 5.3070
 9.9340	 5.5130
 9.9530	 5.4300
 9.9720	 5.5610
 9.9910	 5.4900
10.0100	 5.6980
10.0300	 5.6940
10.0490	 5.9100
10.0690	 5.9060
10.0880	 6.2280
10.1080	 6.3380
10.1280	 6.6530
10.1480	 6.6270
10.1670	 6.9390
10.1870	 7.1100
10.2070	 7.3020
10.2280	 7.1420
10.2480	 7.1980
10.2680	 7.1530
10.2890	 7.3870
10.3090	 7.2720
10.3300	 7.3220
10.3500	 7.1920
10.3710	 7.2920
10.3920	 7.2770
10.4120	 7.5130
10.4330	 7.4040
10.4540	 7.7500
10.4760	 7.7920
10.4970	 7.9030
10.5180	 7.8430
10.5390	 8.1720
10.5610	 8.3320
10.5820	 8.7100
10.6040	 8.7960
10.6260	 8.9850
10.6480	 9.0140
10.6700	 9.2510
10.6920	 9.1850
10.7140	 9.3330
10.7360	 9.1360
10.7580	 9.2310
10.7800	 9.1080
10.8030	 9.2650
10.8250	 9.0330
10.8480	 9.0040
10.8710	 8.7250
10.8940	 8.7740
10.9170	 8.7380
10.9400	 8.8550
10.9630	 8.6200
10.9860	 8.8710
11.0090	 8.8380
11.0330	 8.9590
11.0560	 8.7280
11.0800	 8.9230
11.1040	 8.8600
11.1270	 8.7820
11.1510	 8.4310
11.1750	 8.5660
11.2000	 8.3780
11.2240	 8.5660
11.2480	 8.4050
11.2730	 8.5830
11.2970	 8.5790
11.3220	 8.6230
11.3470	 8.5970
11.3720	 8.8980
11.3970	 8.7220
11.4220	 8.7910
11.4470	 8.7430
11.4720	 8.9630
11.4980	 8.7690
11.5230	 8.8700
11.5490	 8.8430
11.5750	 8.9750
11.6000	 8.7770
11.6260	 8.8960
11.6530	 8.5900
11.6790	 8.5950
11.7050	 8.4960
11.7320	 8.5940
11.7580	 8.2550
11.7850	 8.2780
11.8120	 7.8220
11.8390	 7.8480
11.8660	 7.8180
11.8930	 7.9490
11.9200	 7.6580
11.9480	 7.7540
11.9760	 7.4970
12.0030	 7.4710
12.0310	 7.0790
12.0590	 7.2810
12.0870	 7.2310
12.1150	 7.4470
12.1440	 7.1840
12.1720	 7.3170
12.2010	 7.1110
12.2300	 7.1520
12.2590	 6.9010
12.2880	 7.0380
12.3170	 6.8340
12.3460	 7.1110
12.3760	 6.8940
12.4050	 7.0670
12.4350	 6.9140
12.4650	 6.9260
12.4950	 6.5940
12.5250	 6.8030
12.5550	 6.6460
12.5860	 6.8710
12.6170	 6.5730
12.6470	 6.6940
12.6780	 6.3560
12.7090	 6.4200
12.7410	 6.1680
12.7720	 6.2690
12.8030	 5.8370
12.8350	 5.8670
12.8670	 5.7560
12.8990	 5.9310
12.9310	 5.5430
12.9640	 5.7520
12.9960	 5.5290
13.0290	 5.7940
13.0610	 5.7090
13.0940	 5.9030
13.1280	 5.6650
13.1610	 5.8550
13.1940	 5.5360
13.2280	 5.8680
13.2620	 5.6660
13.2960	 5.7330
13.3300	 5.4530
13.3640	 5.6770
13.3990	 5.3490
13.4340	 5.6140
13.4690	 5.3080
13.5040	 5.4890
13.5390	 5.2530
13.5740	 5.4810
13.6100	 4.9260
13.6460	 5.0740
13.6820	 4.8430
13.7180	 5.2090
13.7540	 5.0040
13.7910	 5.0770
13.8280	 4.5930
13.8650	 4.9750
13.9020	 4.8150
13.9390	 5.0440
13.9770	 4.7830
14.0150	 5.0930
14.0530	 4.7400
14.0910	 5.0560
14.1290	 4.8070
14.1680	 5.1160
14.2070	 4.6100
14.2460	 4.8340
14.2850	 4.4040
14.3240	 4.5950
14.3640	 4.3300
14.4040	 4.7000
14.4440	 4.2900
14.4840	 4.5920
14.5250	 4.1970
14.5660	 4.7120
14.6070	 4.6580
14.6480	 4.6290
14.6900	 3.7940
14.7310	 4.6110
14.7730	 4.4160
14.8150	 4.7040
14.8580	 4.0190
14.9010	 4.3370
14.9440	 3.5470
14.9870	 4.2910
15.0300	 3.6410
15.0740	 4.1210
15.1180	 3.6970
15.1620	 4.3770
15.2060	 3.6940
15.2510	 4.5830
15.2960	 4.1920
15.3410	 4.6910
15.3870	 4.0520
