Name: Salvia leucophylla 3
Type: vegetation
Class: Shrub
Genus: Salvia
Species: leucophylla
Sample No.: VH192
Owner: UCSB
Wavelength Range: VSWIR
Origin: 34.698; -120.0477; WGS84
Collection Date: 6/9/2013
Description: Samples were collected as part of the HyspIRI Airborne Campaign. 48 individual plants were sampled in three times in 2013 - spring  summer  and fall. The name of the sample includes a 1  2  or 3 which references a different individual of the species. Samples were taken to JPL and processed within 48 hours of collection. The same leaves were processed in the Nicolet and then measured using the ASD.
Measurement: Bidirectional reflectance
First Column: X
Second Column: Y
X Units: Wavelength (micrometers)
Y Units: Reflectance (percentage)
First X Value: 0.35
Last X Value: 2.5
Number of X Values: 2151
Additional Information: vegetation.shrub.salvia.leucophylla.vswir.vh192.ucsb.asd.ancillary.txt

 0.3500	 5.5530
 0.3510	 5.6490
 0.3520	 5.7080
 0.3530	 5.8370
 0.3540	 6.0380
 0.3550	 5.8910
 0.3560	 5.6240
 0.3570	 5.5550
 0.3580	 5.9010
 0.3590	 5.9240
 0.3600	 5.8220
 0.3610	 5.8060
 0.3620	 5.9680
 0.3630	 6.0810
 0.3640	 6.1490
 0.3650	 6.2310
 0.3660	 6.2940
 0.3670	 6.3200
 0.3680	 6.3640
 0.3690	 6.5150
 0.3700	 6.6140
 0.3710	 6.6840
 0.3720	 6.7580
 0.3730	 6.8490
 0.3740	 6.9690
 0.3750	 7.0710
 0.3760	 7.1160
 0.3770	 7.1400
 0.3780	 7.1660
 0.3790	 7.2540
 0.3800	 7.4950
 0.3810	 7.5910
 0.3820	 7.6130
 0.3830	 7.6640
 0.3840	 7.7980
 0.3850	 7.8680
 0.3860	 7.9290
 0.3870	 8.0790
 0.3880	 8.1560
 0.3890	 8.2010
 0.3900	 8.2530
 0.3910	 8.3350
 0.3920	 8.4020
 0.3930	 8.4780
 0.3940	 8.5640
 0.3950	 8.5620
 0.3960	 8.6520
 0.3970	 8.7820
 0.3980	 8.8190
 0.3990	 8.8150
 0.4000	 8.8610
 0.4010	 8.9610
 0.4020	 9.0300
 0.4030	 9.0500
 0.4040	 9.0890
 0.4050	 9.1770
 0.4060	 9.1790
 0.4070	 9.2200
 0.4080	 9.3030
 0.4090	 9.3590
 0.4100	 9.3850
 0.4110	 9.4270
 0.4120	 9.5000
 0.4130	 9.5660
 0.4140	 9.6130
 0.4150	 9.6590
 0.4160	 9.7200
 0.4170	 9.7790
 0.4180	 9.8300
 0.4190	 9.8880
 0.4200	 9.9840
 0.4210	10.0460
 0.4220	10.0940
 0.4230	10.1550
 0.4240	10.2280
 0.4250	10.2980
 0.4260	10.3650
 0.4270	10.4390
 0.4280	10.4990
 0.4290	10.5560
 0.4300	10.6200
 0.4310	10.6840
 0.4320	10.7540
 0.4330	10.8290
 0.4340	10.9080
 0.4350	10.9820
 0.4360	11.0370
 0.4370	11.0790
 0.4380	11.1300
 0.4390	11.1700
 0.4400	11.2060
 0.4410	11.2500
 0.4420	11.3220
 0.4430	11.3830
 0.4440	11.4250
 0.4450	11.4560
 0.4460	11.5180
 0.4470	11.5690
 0.4480	11.5980
 0.4490	11.6410
 0.4500	11.6830
 0.4510	11.7260
 0.4520	11.7700
 0.4530	11.8100
 0.4540	11.8370
 0.4550	11.8610
 0.4560	11.9050
 0.4570	11.9430
 0.4580	11.9730
 0.4590	11.9990
 0.4600	12.0260
 0.4610	12.0470
 0.4620	12.0730
 0.4630	12.1110
 0.4640	12.1390
 0.4650	12.1680
 0.4660	12.1990
 0.4670	12.2220
 0.4680	12.2460
 0.4690	12.2730
 0.4700	12.3020
 0.4710	12.3210
 0.4720	12.3320
 0.4730	12.3460
 0.4740	12.3770
 0.4750	12.3990
 0.4760	12.4190
 0.4770	12.4410
 0.4780	12.4550
 0.4790	12.4690
 0.4800	12.4870
 0.4810	12.5100
 0.4820	12.5360
 0.4830	12.5650
 0.4840	12.5890
 0.4850	12.5970
 0.4860	12.6250
 0.4870	12.6580
 0.4880	12.6780
 0.4890	12.6900
 0.4900	12.7230
 0.4910	12.7670
 0.4920	12.7990
 0.4930	12.8190
 0.4940	12.8520
 0.4950	12.9020
 0.4960	12.9460
 0.4970	12.9920
 0.4980	13.0420
 0.4990	13.0940
 0.5000	13.1450
 0.5010	13.2000
 0.5020	13.2570
 0.5030	13.3110
 0.5040	13.3820
 0.5050	13.4620
 0.5060	13.5420
 0.5070	13.6130
 0.5080	13.7010
 0.5090	13.8010
 0.5100	13.8950
 0.5110	13.9960
 0.5120	14.1040
 0.5130	14.2170
 0.5140	14.3220
 0.5150	14.4450
 0.5160	14.5780
 0.5170	14.7060
 0.5180	14.8290
 0.5190	14.9550
 0.5200	15.0890
 0.5210	15.2280
 0.5220	15.3700
 0.5230	15.5060
 0.5240	15.6350
 0.5250	15.7620
 0.5260	15.8930
 0.5270	16.0280
 0.5280	16.1610
 0.5290	16.2800
 0.5300	16.3980
 0.5310	16.5190
 0.5320	16.6340
 0.5330	16.7460
 0.5340	16.8570
 0.5350	16.9670
 0.5360	17.0760
 0.5370	17.1790
 0.5380	17.2760
 0.5390	17.3740
 0.5400	17.4810
 0.5410	17.5960
 0.5420	17.7110
 0.5430	17.8100
 0.5440	17.9070
 0.5450	17.9970
 0.5460	18.0730
 0.5470	18.1320
 0.5480	18.1920
 0.5490	18.2590
 0.5500	18.3340
 0.5510	18.3940
 0.5520	18.4460
 0.5530	18.5010
 0.5540	18.5470
 0.5550	18.5890
 0.5560	18.6270
 0.5570	18.6580
 0.5580	18.6850
 0.5590	18.7150
 0.5600	18.7490
 0.5610	18.7800
 0.5620	18.8090
 0.5630	18.8380
 0.5640	18.8680
 0.5650	18.8810
 0.5660	18.8880
 0.5670	18.8920
 0.5680	18.8860
 0.5690	18.8770
 0.5700	18.8660
 0.5710	18.8560
 0.5720	18.8540
 0.5730	18.8630
 0.5740	18.8850
 0.5750	18.9180
 0.5760	18.9520
 0.5770	18.9800
 0.5780	19.0010
 0.5790	19.0250
 0.5800	19.0480
 0.5810	19.0650
 0.5820	19.0730
 0.5830	19.0720
 0.5840	19.0690
 0.5850	19.0680
 0.5860	19.0670
 0.5870	19.0650
 0.5880	19.0600
 0.5890	19.0530
 0.5900	19.0660
 0.5910	19.0990
 0.5920	19.1430
 0.5930	19.1880
 0.5940	19.2260
 0.5950	19.2580
 0.5960	19.2840
 0.5970	19.2930
 0.5980	19.3070
 0.5990	19.3260
 0.6000	19.3420
 0.6010	19.3500
 0.6020	19.3630
 0.6030	19.3800
 0.6040	19.3920
 0.6050	19.3970
 0.6060	19.3990
 0.6070	19.4030
 0.6080	19.4050
 0.6090	19.4090
 0.6100	19.4220
 0.6110	19.4420
 0.6120	19.4250
 0.6130	19.3940
 0.6140	19.3710
 0.6150	19.3590
 0.6160	19.3400
 0.6170	19.3240
 0.6180	19.3230
 0.6190	19.3230
 0.6200	19.3250
 0.6210	19.3290
 0.6220	19.3390
 0.6230	19.3410
 0.6240	19.3490
 0.6250	19.3690
 0.6260	19.3850
 0.6270	19.4090
 0.6280	19.4340
 0.6290	19.4510
 0.6300	19.4770
 0.6310	19.5000
 0.6320	19.5140
 0.6330	19.5290
 0.6340	19.5320
 0.6350	19.5300
 0.6360	19.5260
 0.6370	19.5070
 0.6380	19.4750
 0.6390	19.4360
 0.6400	19.3940
 0.6410	19.3400
 0.6420	19.2760
 0.6430	19.2090
 0.6440	19.1470
 0.6450	19.0780
 0.6460	19.0110
 0.6470	18.9520
 0.6480	18.8980
 0.6490	18.8510
 0.6500	18.8120
 0.6510	18.7800
 0.6520	18.7490
 0.6530	18.7210
 0.6540	18.6960
 0.6550	18.6680
 0.6560	18.6360
 0.6570	18.5990
 0.6580	18.5530
 0.6590	18.5040
 0.6600	18.4470
 0.6610	18.3800
 0.6620	18.3090
 0.6630	18.2370
 0.6640	18.1670
 0.6650	18.1020
 0.6660	18.0330
 0.6670	17.9760
 0.6680	17.9310
 0.6690	17.8950
 0.6700	17.8720
 0.6710	17.8590
 0.6720	17.8540
 0.6730	17.8530
 0.6740	17.8630
 0.6750	17.8830
 0.6760	17.9110
 0.6770	17.9470
 0.6780	17.9900
 0.6790	18.0430
 0.6800	18.1140
 0.6810	18.2000
 0.6820	18.3090
 0.6830	18.4480
 0.6840	18.6240
 0.6850	18.8330
 0.6860	19.0740
 0.6870	19.3550
 0.6880	19.6820
 0.6890	20.0400
 0.6900	20.4240
 0.6910	20.8370
 0.6920	21.2860
 0.6930	21.7560
 0.6940	22.2330
 0.6950	22.7200
 0.6960	23.2090
 0.6970	23.7030
 0.6980	24.2050
 0.6990	24.6930
 0.7000	25.1700
 0.7010	25.6360
 0.7020	26.0940
 0.7030	26.5380
 0.7040	26.9700
 0.7050	27.3870
 0.7060	27.7860
 0.7070	28.1650
 0.7080	28.5280
 0.7090	28.8810
 0.7100	29.2180
 0.7110	29.5360
 0.7120	29.8380
 0.7130	30.1290
 0.7140	30.4100
 0.7150	30.6800
 0.7160	30.9380
 0.7170	31.1790
 0.7180	31.4200
 0.7190	31.6520
 0.7200	31.8610
 0.7210	32.0680
 0.7220	32.2670
 0.7230	32.4550
 0.7240	32.6370
 0.7250	32.8120
 0.7260	32.9830
 0.7270	33.1510
 0.7280	33.3050
 0.7290	33.4430
 0.7300	33.5790
 0.7310	33.7290
 0.7320	33.8510
 0.7330	33.9750
 0.7340	34.1090
 0.7350	34.2270
 0.7360	34.3380
 0.7370	34.4470
 0.7380	34.5550
 0.7390	34.6560
 0.7400	34.7540
 0.7410	34.8500
 0.7420	34.9440
 0.7430	35.0370
 0.7440	35.1300
 0.7450	35.2210
 0.7460	35.3040
 0.7470	35.3890
 0.7480	35.4750
 0.7490	35.5560
 0.7500	35.6310
 0.7510	35.7100
 0.7520	35.7880
 0.7530	35.8590
 0.7540	35.9310
 0.7550	36.0110
 0.7560	36.0900
 0.7570	36.1510
 0.7580	36.2150
 0.7590	36.2870
 0.7600	36.3630
 0.7610	36.4340
 0.7620	36.5020
 0.7630	36.5680
 0.7640	36.6330
 0.7650	36.6960
 0.7660	36.7650
 0.7670	36.8370
 0.7680	36.9030
 0.7690	36.9690
 0.7700	37.0320
 0.7710	37.0910
 0.7720	37.1440
 0.7730	37.2200
 0.7740	37.2950
 0.7750	37.3520
 0.7760	37.4210
 0.7770	37.4840
 0.7780	37.5420
 0.7790	37.6040
 0.7800	37.6650
 0.7810	37.7310
 0.7820	37.8020
 0.7830	37.8650
 0.7840	37.9280
 0.7850	37.9880
 0.7860	38.0430
 0.7870	38.1030
 0.7880	38.1630
 0.7890	38.2260
 0.7900	38.2920
 0.7910	38.3460
 0.7920	38.3970
 0.7930	38.4520
 0.7940	38.5140
 0.7950	38.5680
 0.7960	38.6200
 0.7970	38.6790
 0.7980	38.7460
 0.7990	38.8050
 0.8000	38.8490
 0.8010	38.8860
 0.8020	38.9450
 0.8030	39.0010
 0.8040	39.0470
 0.8050	39.0840
 0.8060	39.1360
 0.8070	39.1810
 0.8080	39.2180
 0.8090	39.2650
 0.8100	39.3090
 0.8110	39.3570
 0.8120	39.4070
 0.8130	39.4440
 0.8140	39.4810
 0.8150	39.5170
 0.8160	39.5510
 0.8170	39.6030
 0.8180	39.6360
 0.8190	39.6610
 0.8200	39.7030
 0.8210	39.7420
 0.8220	39.7770
 0.8230	39.8090
 0.8240	39.8380
 0.8250	39.8690
 0.8260	39.8990
 0.8270	39.9280
 0.8280	39.9690
 0.8290	39.9980
 0.8300	40.0230
 0.8310	40.0530
 0.8320	40.0730
 0.8330	40.1040
 0.8340	40.1390
 0.8350	40.1650
 0.8360	40.1890
 0.8370	40.2140
 0.8380	40.2410
 0.8390	40.2700
 0.8400	40.3050
 0.8410	40.3370
 0.8420	40.3600
 0.8430	40.3730
 0.8440	40.4020
 0.8450	40.4400
 0.8460	40.4720
 0.8470	40.5030
 0.8480	40.5300
 0.8490	40.5580
 0.8500	40.5900
 0.8510	40.6150
 0.8520	40.6390
 0.8530	40.6670
 0.8540	40.7040
 0.8550	40.7370
 0.8560	40.7700
 0.8570	40.8020
 0.8580	40.8230
 0.8590	40.8640
 0.8600	40.9030
 0.8610	40.9260
 0.8620	40.9550
 0.8630	40.9850
 0.8640	41.0200
 0.8650	41.0600
 0.8660	41.0860
 0.8670	41.1120
 0.8680	41.1420
 0.8690	41.1790
 0.8700	41.2240
 0.8710	41.2560
 0.8720	41.2850
 0.8730	41.3290
 0.8740	41.3650
 0.8750	41.3920
 0.8760	41.4220
 0.8770	41.4670
 0.8780	41.5070
 0.8790	41.5390
 0.8800	41.5680
 0.8810	41.6120
 0.8820	41.6710
 0.8830	41.7100
 0.8840	41.7200
 0.8850	41.7540
 0.8860	41.7970
 0.8870	41.8440
 0.8880	41.8900
 0.8890	41.9140
 0.8900	41.9470
 0.8910	41.9910
 0.8920	42.0350
 0.8930	42.0700
 0.8940	42.0980
 0.8950	42.1300
 0.8960	42.1730
 0.8970	42.2140
 0.8980	42.2520
 0.8990	42.2930
 0.9000	42.3390
 0.9010	42.3680
 0.9020	42.3960
 0.9030	42.4330
 0.9040	42.4760
 0.9050	42.5130
 0.9060	42.5450
 0.9070	42.5760
 0.9080	42.6190
 0.9090	42.6500
 0.9100	42.6790
 0.9110	42.7170
 0.9120	42.7510
 0.9130	42.7850
 0.9140	42.8200
 0.9150	42.8560
 0.9160	42.8960
 0.9170	42.9260
 0.9180	42.9530
 0.9190	42.9900
 0.9200	43.0270
 0.9210	43.0610
 0.9220	43.1010
 0.9230	43.1590
 0.9240	43.1740
 0.9250	43.1920
 0.9260	43.2190
 0.9270	43.2310
 0.9280	43.2650
 0.9290	43.3060
 0.9300	43.3390
 0.9310	43.3640
 0.9320	43.4000
 0.9330	43.4310
 0.9340	43.4490
 0.9350	43.4580
 0.9360	43.4800
 0.9370	43.5000
 0.9380	43.5130
 0.9390	43.5450
 0.9400	43.5670
 0.9410	43.5860
 0.9420	43.6030
 0.9430	43.6070
 0.9440	43.6410
 0.9450	43.6740
 0.9460	43.6760
 0.9470	43.6710
 0.9480	43.6750
 0.9490	43.6830
 0.9500	43.6930
 0.9510	43.7310
 0.9520	43.7470
 0.9530	43.7390
 0.9540	43.7290
 0.9550	43.7450
 0.9560	43.7410
 0.9570	43.7340
 0.9580	43.7490
 0.9590	43.7600
 0.9600	43.7530
 0.9610	43.7430
 0.9620	43.7500
 0.9630	43.7570
 0.9640	43.7590
 0.9650	43.7600
 0.9660	43.7690
 0.9670	43.7820
 0.9680	43.7960
 0.9690	43.8120
 0.9700	43.8270
 0.9710	43.8410
 0.9720	43.8520
 0.9730	43.8630
 0.9740	43.8780
 0.9750	43.8890
 0.9760	43.9120
 0.9770	43.9310
 0.9780	43.9310
 0.9790	43.9570
 0.9800	43.9700
 0.9810	43.9690
 0.9820	43.9760
 0.9830	43.9760
 0.9840	43.9970
 0.9850	44.0360
 0.9860	44.0770
 0.9870	44.1000
 0.9880	44.1200
 0.9890	44.1280
 0.9900	44.1220
 0.9910	44.1580
 0.9920	44.1760
 0.9930	44.2040
 0.9940	44.2760
 0.9950	44.2470
 0.9960	44.2530
 0.9970	44.3080
 0.9980	44.3500
 0.9990	44.3260
 1.0000	44.4500
 1.0010	44.6580
 1.0020	44.7790
 1.0030	44.7980
 1.0040	44.8140
 1.0050	44.8300
 1.0060	44.8460
 1.0070	44.8610
 1.0080	44.8770
 1.0090	44.8920
 1.0100	44.9080
 1.0110	44.9240
 1.0120	44.9390
 1.0130	44.9500
 1.0140	44.9670
 1.0150	44.9870
 1.0160	45.0030
 1.0170	45.0250
 1.0180	45.0430
 1.0190	45.0540
 1.0200	45.0690
 1.0210	45.0880
 1.0220	45.1060
 1.0230	45.1210
 1.0240	45.1360
 1.0250	45.1510
 1.0260	45.1620
 1.0270	45.1760
 1.0280	45.1930
 1.0290	45.2090
 1.0300	45.2230
 1.0310	45.2390
 1.0320	45.2530
 1.0330	45.2720
 1.0340	45.2960
 1.0350	45.3140
 1.0360	45.3290
 1.0370	45.3480
 1.0380	45.3660
 1.0390	45.3800
 1.0400	45.3960
 1.0410	45.4150
 1.0420	45.4330
 1.0430	45.4500
 1.0440	45.4660
 1.0450	45.4830
 1.0460	45.4990
 1.0470	45.5140
 1.0480	45.5280
 1.0490	45.5380
 1.0500	45.5540
 1.0510	45.5710
 1.0520	45.5890
 1.0530	45.6040
 1.0540	45.6220
 1.0550	45.6360
 1.0560	45.6440
 1.0570	45.6570
 1.0580	45.6730
 1.0590	45.6850
 1.0600	45.6970
 1.0610	45.7090
 1.0620	45.7230
 1.0630	45.7340
 1.0640	45.7450
 1.0650	45.7560
 1.0660	45.7640
 1.0670	45.7730
 1.0680	45.7830
 1.0690	45.7950
 1.0700	45.8030
 1.0710	45.8080
 1.0720	45.8150
 1.0730	45.8190
 1.0740	45.8250
 1.0750	45.8320
 1.0760	45.8360
 1.0770	45.8370
 1.0780	45.8400
 1.0790	45.8430
 1.0800	45.8460
 1.0810	45.8510
 1.0820	45.8550
 1.0830	45.8560
 1.0840	45.8590
 1.0850	45.8620
 1.0860	45.8660
 1.0870	45.8700
 1.0880	45.8770
 1.0890	45.8800
 1.0900	45.8820
 1.0910	45.8840
 1.0920	45.8840
 1.0930	45.8850
 1.0940	45.8840
 1.0950	45.8860
 1.0960	45.8880
 1.0970	45.8900
 1.0980	45.8940
 1.0990	45.8980
 1.1000	45.9030
 1.1010	45.9080
 1.1020	45.9140
 1.1030	45.9210
 1.1040	45.9240
 1.1050	45.9280
 1.1060	45.9300
 1.1070	45.9300
 1.1080	45.9320
 1.1090	45.9350
 1.1100	45.9360
 1.1110	45.9370
 1.1120	45.9380
 1.1130	45.9370
 1.1140	45.9360
 1.1150	45.9350
 1.1160	45.9350
 1.1170	45.9360
 1.1180	45.9350
 1.1190	45.9330
 1.1200	45.9290
 1.1210	45.9220
 1.1220	45.9170
 1.1230	45.9130
 1.1240	45.9070
 1.1250	45.8990
 1.1260	45.8890
 1.1270	45.8770
 1.1280	45.8620
 1.1290	45.8460
 1.1300	45.8280
 1.1310	45.8070
 1.1320	45.7840
 1.1330	45.7570
 1.1340	45.7270
 1.1350	45.6930
 1.1360	45.6560
 1.1370	45.6150
 1.1380	45.5740
 1.1390	45.5280
 1.1400	45.4810
 1.1410	45.4340
 1.1420	45.3850
 1.1430	45.3330
 1.1440	45.2820
 1.1450	45.2310
 1.1460	45.1790
 1.1470	45.1250
 1.1480	45.0750
 1.1490	45.0250
 1.1500	44.9770
 1.1510	44.9290
 1.1520	44.8860
 1.1530	44.8450
 1.1540	44.8060
 1.1550	44.7710
 1.1560	44.7390
 1.1570	44.7090
 1.1580	44.6790
 1.1590	44.6520
 1.1600	44.6270
 1.1610	44.6040
 1.1620	44.5810
 1.1630	44.5600
 1.1640	44.5390
 1.1650	44.5190
 1.1660	44.4980
 1.1670	44.4800
 1.1680	44.4630
 1.1690	44.4460
 1.1700	44.4270
 1.1710	44.4100
 1.1720	44.3920
 1.1730	44.3740
 1.1740	44.3550
 1.1750	44.3380
 1.1760	44.3200
 1.1770	44.3020
 1.1780	44.2840
 1.1790	44.2650
 1.1800	44.2420
 1.1810	44.2200
 1.1820	44.2000
 1.1830	44.1820
 1.1840	44.1670
 1.1850	44.1540
 1.1860	44.1410
 1.1870	44.1280
 1.1880	44.1180
 1.1890	44.1080
 1.1900	44.1020
 1.1910	44.0980
 1.1920	44.0970
 1.1930	44.0990
 1.1940	44.1020
 1.1950	44.1080
 1.1960	44.1130
 1.1970	44.1200
 1.1980	44.1290
 1.1990	44.1380
 1.2000	44.1480
 1.2010	44.1610
 1.2020	44.1750
 1.2030	44.1890
 1.2040	44.2030
 1.2050	44.2190
 1.2060	44.2330
 1.2070	44.2510
 1.2080	44.2700
 1.2090	44.2900
 1.2100	44.3130
 1.2110	44.3370
 1.2120	44.3630
 1.2130	44.3910
 1.2140	44.4190
 1.2150	44.4480
 1.2160	44.4800
 1.2170	44.5120
 1.2180	44.5410
 1.2190	44.5730
 1.2200	44.6040
 1.2210	44.6340
 1.2220	44.6680
 1.2230	44.7020
 1.2240	44.7350
 1.2250	44.7660
 1.2260	44.7950
 1.2270	44.8240
 1.2280	44.8530
 1.2290	44.8810
 1.2300	44.9090
 1.2310	44.9360
 1.2320	44.9630
 1.2330	44.9870
 1.2340	45.0090
 1.2350	45.0300
 1.2360	45.0520
 1.2370	45.0720
 1.2380	45.0930
 1.2390	45.1140
 1.2400	45.1330
 1.2410	45.1530
 1.2420	45.1700
 1.2430	45.1880
 1.2440	45.2070
 1.2450	45.2230
 1.2460	45.2410
 1.2470	45.2580
 1.2480	45.2730
 1.2490	45.2850
 1.2500	45.2960
 1.2510	45.3050
 1.2520	45.3160
 1.2530	45.3260
 1.2540	45.3340
 1.2550	45.3440
 1.2560	45.3540
 1.2570	45.3620
 1.2580	45.3720
 1.2590	45.3810
 1.2600	45.3890
 1.2610	45.3960
 1.2620	45.4040
 1.2630	45.4110
 1.2640	45.4160
 1.2650	45.4210
 1.2660	45.4250
 1.2670	45.4290
 1.2680	45.4340
 1.2690	45.4390
 1.2700	45.4460
 1.2710	45.4500
 1.2720	45.4520
 1.2730	45.4580
 1.2740	45.4630
 1.2750	45.4690
 1.2760	45.4740
 1.2770	45.4770
 1.2780	45.4800
 1.2790	45.4830
 1.2800	45.4860
 1.2810	45.4900
 1.2820	45.4920
 1.2830	45.4900
 1.2840	45.4890
 1.2850	45.4880
 1.2860	45.4850
 1.2870	45.4820
 1.2880	45.4810
 1.2890	45.4780
 1.2900	45.4710
 1.2910	45.4630
 1.2920	45.4510
 1.2930	45.4370
 1.2940	45.4200
 1.2950	45.4030
 1.2960	45.3880
 1.2970	45.3700
 1.2980	45.3520
 1.2990	45.3350
 1.3000	45.3130
 1.3010	45.2920
 1.3020	45.2700
 1.3030	45.2450
 1.3040	45.2180
 1.3050	45.1870
 1.3060	45.1540
 1.3070	45.1210
 1.3080	45.0870
 1.3090	45.0550
 1.3100	45.0210
 1.3110	44.9850
 1.3120	44.9480
 1.3130	44.9090
 1.3140	44.8690
 1.3150	44.8270
 1.3160	44.7870
 1.3170	44.7480
 1.3180	44.7070
 1.3190	44.6640
 1.3200	44.6200
 1.3210	44.5730
 1.3220	44.5250
 1.3230	44.4780
 1.3240	44.4300
 1.3250	44.3810
 1.3260	44.3300
 1.3270	44.2780
 1.3280	44.2220
 1.3290	44.1670
 1.3300	44.1120
 1.3310	44.0560
 1.3320	44.0030
 1.3330	43.9480
 1.3340	43.8910
 1.3350	43.8340
 1.3360	43.7750
 1.3370	43.7140
 1.3380	43.6540
 1.3390	43.5940
 1.3400	43.5330
 1.3410	43.4730
 1.3420	43.4110
 1.3430	43.3480
 1.3440	43.2850
 1.3450	43.2220
 1.3460	43.1590
 1.3470	43.0960
 1.3480	43.0330
 1.3490	42.9680
 1.3500	42.9020
 1.3510	42.8360
 1.3520	42.7700
 1.3530	42.7040
 1.3540	42.6380
 1.3550	42.5720
 1.3560	42.5070
 1.3570	42.4420
 1.3580	42.3770
 1.3590	42.3110
 1.3600	42.2450
 1.3610	42.1790
 1.3620	42.1100
 1.3630	42.0390
 1.3640	41.9650
 1.3650	41.8870
 1.3660	41.8070
 1.3670	41.7250
 1.3680	41.6370
 1.3690	41.5440
 1.3700	41.4440
 1.3710	41.3380
 1.3720	41.2260
 1.3730	41.1070
 1.3740	40.9790
 1.3750	40.8430
 1.3760	40.6950
 1.3770	40.5360
 1.3780	40.3660
 1.3790	40.1840
 1.3800	39.9910
 1.3810	39.7830
 1.3820	39.5660
 1.3830	39.3390
 1.3840	39.1000
 1.3850	38.8510
 1.3860	38.5900
 1.3870	38.3170
 1.3880	38.0350
 1.3890	37.7430
 1.3900	37.4400
 1.3910	37.1340
 1.3920	36.8200
 1.3930	36.4970
 1.3940	36.1710
 1.3950	35.8390
 1.3960	35.5040
 1.3970	35.1720
 1.3980	34.8380
 1.3990	34.5100
 1.4000	34.1860
 1.4010	33.8640
 1.4020	33.5490
 1.4030	33.2390
 1.4040	32.9360
 1.4050	32.6430
 1.4060	32.3610
 1.4070	32.0910
 1.4080	31.8310
 1.4090	31.5810
 1.4100	31.3450
 1.4110	31.1190
 1.4120	30.9090
 1.4130	30.7120
 1.4140	30.5260
 1.4150	30.3530
 1.4160	30.1930
 1.4170	30.0430
 1.4180	29.9040
 1.4190	29.7750
 1.4200	29.6560
 1.4210	29.5450
 1.4220	29.4430
 1.4230	29.3520
 1.4240	29.2680
 1.4250	29.1920
 1.4260	29.1270
 1.4270	29.0650
 1.4280	29.0100
 1.4290	28.9590
 1.4300	28.9150
 1.4310	28.8760
 1.4320	28.8440
 1.4330	28.8160
 1.4340	28.7930
 1.4350	28.7750
 1.4360	28.7600
 1.4370	28.7490
 1.4380	28.7430
 1.4390	28.7400
 1.4400	28.7390
 1.4410	28.7400
 1.4420	28.7430
 1.4430	28.7490
 1.4440	28.7570
 1.4450	28.7670
 1.4460	28.7790
 1.4470	28.7940
 1.4480	28.8080
 1.4490	28.8240
 1.4500	28.8400
 1.4510	28.8570
 1.4520	28.8770
 1.4530	28.8980
 1.4540	28.9180
 1.4550	28.9400
 1.4560	28.9620
 1.4570	28.9850
 1.4580	29.0120
 1.4590	29.0420
 1.4600	29.0720
 1.4610	29.1060
 1.4620	29.1420
 1.4630	29.1820
 1.4640	29.2250
 1.4650	29.2710
 1.4660	29.3200
 1.4670	29.3720
 1.4680	29.4270
 1.4690	29.4860
 1.4700	29.5480
 1.4710	29.6150
 1.4720	29.6840
 1.4730	29.7540
 1.4740	29.8280
 1.4750	29.9030
 1.4760	29.9810
 1.4770	30.0610
 1.4780	30.1420
 1.4790	30.2270
 1.4800	30.3110
 1.4810	30.3960
 1.4820	30.4820
 1.4830	30.5670
 1.4840	30.6530
 1.4850	30.7390
 1.4860	30.8260
 1.4870	30.9150
 1.4880	31.0030
 1.4890	31.0910
 1.4900	31.1790
 1.4910	31.2660
 1.4920	31.3540
 1.4930	31.4420
 1.4940	31.5300
 1.4950	31.6180
 1.4960	31.7050
 1.4970	31.7900
 1.4980	31.8760
 1.4990	31.9610
 1.5000	32.0460
 1.5010	32.1310
 1.5020	32.2150
 1.5030	32.2990
 1.5040	32.3810
 1.5050	32.4600
 1.5060	32.5420
 1.5070	32.6230
 1.5080	32.7050
 1.5090	32.7870
 1.5100	32.8700
 1.5110	32.9510
 1.5120	33.0320
 1.5130	33.1110
 1.5140	33.1890
 1.5150	33.2670
 1.5160	33.3430
 1.5170	33.4180
 1.5180	33.4920
 1.5190	33.5630
 1.5200	33.6320
 1.5210	33.7020
 1.5220	33.7710
 1.5230	33.8400
 1.5240	33.9100
 1.5250	33.9770
 1.5260	34.0410
 1.5270	34.1070
 1.5280	34.1710
 1.5290	34.2350
 1.5300	34.2980
 1.5310	34.3600
 1.5320	34.4190
 1.5330	34.4760
 1.5340	34.5330
 1.5350	34.5890
 1.5360	34.6440
 1.5370	34.6990
 1.5380	34.7530
 1.5390	34.8080
 1.5400	34.8610
 1.5410	34.9130
 1.5420	34.9660
 1.5430	35.0180
 1.5440	35.0690
 1.5450	35.1180
 1.5460	35.1680
 1.5470	35.2160
 1.5480	35.2660
 1.5490	35.3180
 1.5500	35.3660
 1.5510	35.4140
 1.5520	35.4630
 1.5530	35.5100
 1.5540	35.5590
 1.5550	35.6080
 1.5560	35.6520
 1.5570	35.6970
 1.5580	35.7390
 1.5590	35.7800
 1.5600	35.8240
 1.5610	35.8650
 1.5620	35.9050
 1.5630	35.9450
 1.5640	35.9840
 1.5650	36.0230
 1.5660	36.0630
 1.5670	36.1030
 1.5680	36.1420
 1.5690	36.1820
 1.5700	36.2210
 1.5710	36.2600
 1.5720	36.3000
 1.5730	36.3400
 1.5740	36.3790
 1.5750	36.4200
 1.5760	36.4610
 1.5770	36.5000
 1.5780	36.5390
 1.5790	36.5770
 1.5800	36.6140
 1.5810	36.6490
 1.5820	36.6850
 1.5830	36.7200
 1.5840	36.7550
 1.5850	36.7910
 1.5860	36.8270
 1.5870	36.8630
 1.5880	36.8980
 1.5890	36.9350
 1.5900	36.9730
 1.5910	37.0080
 1.5920	37.0440
 1.5930	37.0790
 1.5940	37.1140
 1.5950	37.1480
 1.5960	37.1810
 1.5970	37.2140
 1.5980	37.2440
 1.5990	37.2740
 1.6000	37.3050
 1.6010	37.3360
 1.6020	37.3690
 1.6030	37.4030
 1.6040	37.4370
 1.6050	37.4690
 1.6060	37.5000
 1.6070	37.5290
 1.6080	37.5580
 1.6090	37.5890
 1.6100	37.6200
 1.6110	37.6490
 1.6120	37.6780
 1.6130	37.7030
 1.6140	37.7260
 1.6150	37.7480
 1.6160	37.7700
 1.6170	37.7920
 1.6180	37.8140
 1.6190	37.8350
 1.6200	37.8560
 1.6210	37.8750
 1.6220	37.8950
 1.6230	37.9140
 1.6240	37.9320
 1.6250	37.9480
 1.6260	37.9630
 1.6270	37.9760
 1.6280	37.9860
 1.6290	37.9970
 1.6300	38.0080
 1.6310	38.0180
 1.6320	38.0280
 1.6330	38.0390
 1.6340	38.0490
 1.6350	38.0620
 1.6360	38.0790
 1.6370	38.0930
 1.6380	38.1070
 1.6390	38.1190
 1.6400	38.1280
 1.6410	38.1380
 1.6420	38.1490
 1.6430	38.1570
 1.6440	38.1640
 1.6450	38.1700
 1.6460	38.1740
 1.6470	38.1750
 1.6480	38.1770
 1.6490	38.1760
 1.6500	38.1710
 1.6510	38.1630
 1.6520	38.1550
 1.6530	38.1450
 1.6540	38.1350
 1.6550	38.1250
 1.6560	38.1140
 1.6570	38.1010
 1.6580	38.0860
 1.6590	38.0690
 1.6600	38.0510
 1.6610	38.0290
 1.6620	38.0080
 1.6630	37.9870
 1.6640	37.9600
 1.6650	37.9320
 1.6660	37.9030
 1.6670	37.8690
 1.6680	37.8340
 1.6690	37.7990
 1.6700	37.7580
 1.6710	37.7150
 1.6720	37.6700
 1.6730	37.6220
 1.6740	37.5700
 1.6750	37.5160
 1.6760	37.4600
 1.6770	37.4000
 1.6780	37.3380
 1.6790	37.2740
 1.6800	37.2070
 1.6810	37.1370
 1.6820	37.0670
 1.6830	36.9950
 1.6840	36.9200
 1.6850	36.8460
 1.6860	36.7700
 1.6870	36.6900
 1.6880	36.6120
 1.6890	36.5330
 1.6900	36.4550
 1.6910	36.3780
 1.6920	36.2990
 1.6930	36.2160
 1.6940	36.1390
 1.6950	36.0630
 1.6960	35.9910
 1.6970	35.9240
 1.6980	35.8570
 1.6990	35.7910
 1.7000	35.7290
 1.7010	35.6690
 1.7020	35.6120
 1.7030	35.5570
 1.7040	35.5030
 1.7050	35.4500
 1.7060	35.3960
 1.7070	35.3440
 1.7080	35.2910
 1.7090	35.2370
 1.7100	35.1860
 1.7110	35.1350
 1.7120	35.0880
 1.7130	35.0450
 1.7140	35.0050
 1.7150	34.9670
 1.7160	34.9300
 1.7170	34.8950
 1.7180	34.8600
 1.7190	34.8280
 1.7200	34.7980
 1.7210	34.7680
 1.7220	34.7420
 1.7230	34.7170
 1.7240	34.6950
 1.7250	34.6780
 1.7260	34.6650
 1.7270	34.6550
 1.7280	34.6490
 1.7290	34.6450
 1.7300	34.6450
 1.7310	34.6500
 1.7320	34.6620
 1.7330	34.6740
 1.7340	34.6900
 1.7350	34.7020
 1.7360	34.7140
 1.7370	34.7210
 1.7380	34.7240
 1.7390	34.7250
 1.7400	34.7240
 1.7410	34.7160
 1.7420	34.7030
 1.7430	34.6880
 1.7440	34.6680
 1.7450	34.6460
 1.7460	34.6220
 1.7470	34.5990
 1.7480	34.5710
 1.7490	34.5480
 1.7500	34.5270
 1.7510	34.5050
 1.7520	34.4820
 1.7530	34.4640
 1.7540	34.4480
 1.7550	34.4330
 1.7560	34.4220
 1.7570	34.4090
 1.7580	34.3990
 1.7590	34.3930
 1.7600	34.3910
 1.7610	34.3920
 1.7620	34.3940
 1.7630	34.3980
 1.7640	34.4040
 1.7650	34.4140
 1.7660	34.4220
 1.7670	34.4300
 1.7680	34.4390
 1.7690	34.4460
 1.7700	34.4540
 1.7710	34.4640
 1.7720	34.4740
 1.7730	34.4850
 1.7740	34.4950
 1.7750	34.5030
 1.7760	34.5120
 1.7770	34.5210
 1.7780	34.5300
 1.7790	34.5390
 1.7800	34.5480
 1.7810	34.5550
 1.7820	34.5630
 1.7830	34.5700
 1.7840	34.5770
 1.7850	34.5840
 1.7860	34.5890
 1.7870	34.5940
 1.7880	34.6000
 1.7890	34.6050
 1.7900	34.6170
 1.7910	34.6260
 1.7920	34.6330
 1.7930	34.6410
 1.7940	34.6490
 1.7950	34.6590
 1.7960	34.6710
 1.7970	34.6820
 1.7980	34.6920
 1.7990	34.7030
 1.8000	34.7160
 1.8010	34.7270
 1.8020	34.7390
 1.8030	34.7480
 1.8040	34.7540
 1.8050	34.7640
 1.8060	34.7760
 1.8070	34.7870
 1.8080	34.8010
 1.8090	34.8100
 1.8100	34.8160
 1.8110	34.8240
 1.8120	34.8330
 1.8130	34.8390
 1.8140	34.8440
 1.8150	34.8480
 1.8160	34.8510
 1.8170	34.8560
 1.8180	34.8650
 1.8190	34.8710
 1.8200	34.8790
 1.8210	34.8870
 1.8220	34.8950
 1.8230	34.9060
 1.8240	34.9120
 1.8250	34.9130
 1.8260	34.9140
 1.8270	34.9100
 1.8280	34.9070
 1.8290	34.9050
 1.8300	34.8050
 1.8310	34.6100
 1.8320	34.5070
 1.8330	34.5050
 1.8340	34.5050
 1.8350	34.5020
 1.8360	34.5030
 1.8370	34.5030
 1.8380	34.4990
 1.8390	34.4910
 1.8400	34.4780
 1.8410	34.4640
 1.8420	34.4450
 1.8430	34.4220
 1.8440	34.3950
 1.8450	34.3700
 1.8460	34.3380
 1.8470	34.2940
 1.8480	34.2530
 1.8490	34.2040
 1.8500	34.1460
 1.8510	34.0800
 1.8520	34.0150
 1.8530	33.9400
 1.8540	33.8590
 1.8550	33.7760
 1.8560	33.6810
 1.8570	33.5750
 1.8580	33.4560
 1.8590	33.3270
 1.8600	33.1850
 1.8610	33.0360
 1.8620	32.8750
 1.8630	32.7040
 1.8640	32.5230
 1.8650	32.3260
 1.8660	32.1160
 1.8670	31.8910
 1.8680	31.6540
 1.8690	31.4030
 1.8700	31.1360
 1.8710	30.8530
 1.8720	30.5600
 1.8730	30.2570
 1.8740	29.9380
 1.8750	29.6080
 1.8760	29.2650
 1.8770	28.9050
 1.8780	28.5370
 1.8790	28.1630
 1.8800	27.7820
 1.8810	27.3950
 1.8820	26.9970
 1.8830	26.5890
 1.8840	26.1710
 1.8850	25.7410
 1.8860	25.3110
 1.8870	24.8860
 1.8880	24.4550
 1.8890	24.0320
 1.8900	23.6140
 1.8910	23.2010
 1.8920	22.7890
 1.8930	22.3910
 1.8940	22.0020
 1.8950	21.6260
 1.8960	21.2680
 1.8970	20.9240
 1.8980	20.5970
 1.8990	20.2870
 1.9000	19.9900
 1.9010	19.7080
 1.9020	19.4440
 1.9030	19.1970
 1.9040	18.9670
 1.9050	18.7540
 1.9060	18.5600
 1.9070	18.3840
 1.9080	18.2190
 1.9090	18.0730
 1.9100	17.9410
 1.9110	17.8200
 1.9120	17.7150
 1.9130	17.6180
 1.9140	17.5330
 1.9150	17.4570
 1.9160	17.3940
 1.9170	17.3370
 1.9180	17.2850
 1.9190	17.2400
 1.9200	17.2040
 1.9210	17.1730
 1.9220	17.1490
 1.9230	17.1340
 1.9240	17.1220
 1.9250	17.1150
 1.9260	17.1140
 1.9270	17.1190
 1.9280	17.1290
 1.9290	17.1430
 1.9300	17.1580
 1.9310	17.1750
 1.9320	17.1970
 1.9330	17.2240
 1.9340	17.2560
 1.9350	17.2890
 1.9360	17.3290
 1.9370	17.3680
 1.9380	17.4090
 1.9390	17.4510
 1.9400	17.4940
 1.9410	17.5380
 1.9420	17.5840
 1.9430	17.6320
 1.9440	17.6850
 1.9450	17.7430
 1.9460	17.8020
 1.9470	17.8640
 1.9480	17.9250
 1.9490	17.9850
 1.9500	18.0480
 1.9510	18.1150
 1.9520	18.1820
 1.9530	18.2510
 1.9540	18.3230
 1.9550	18.3950
 1.9560	18.4650
 1.9570	18.5390
 1.9580	18.6150
 1.9590	18.6910
 1.9600	18.7680
 1.9610	18.8450
 1.9620	18.9230
 1.9630	19.0000
 1.9640	19.0770
 1.9650	19.1560
 1.9660	19.2370
 1.9670	19.3170
 1.9680	19.3960
 1.9690	19.4740
 1.9700	19.5550
 1.9710	19.6350
 1.9720	19.7170
 1.9730	19.8030
 1.9740	19.8880
 1.9750	19.9690
 1.9760	20.0530
 1.9770	20.1360
 1.9780	20.2210
 1.9790	20.3060
 1.9800	20.3940
 1.9810	20.4780
 1.9820	20.5610
 1.9830	20.6450
 1.9840	20.7270
 1.9850	20.8110
 1.9860	20.8990
 1.9870	20.9840
 1.9880	21.0690
 1.9890	21.1520
 1.9900	21.2350
 1.9910	21.3190
 1.9920	21.4020
 1.9930	21.4860
 1.9940	21.5690
 1.9950	21.6490
 1.9960	21.7300
 1.9970	21.8120
 1.9980	21.8920
 1.9990	21.9710
 2.0000	22.0490
 2.0010	22.1240
 2.0020	22.1980
 2.0030	22.2730
 2.0040	22.3440
 2.0050	22.4180
 2.0060	22.4960
 2.0070	22.5700
 2.0080	22.6450
 2.0090	22.7160
 2.0100	22.7860
 2.0110	22.8520
 2.0120	22.9150
 2.0130	22.9790
 2.0140	23.0410
 2.0150	23.1010
 2.0160	23.1640
 2.0170	23.2260
 2.0180	23.2850
 2.0190	23.3440
 2.0200	23.3990
 2.0210	23.4490
 2.0220	23.5000
 2.0230	23.5510
 2.0240	23.6010
 2.0250	23.6500
 2.0260	23.6980
 2.0270	23.7440
 2.0280	23.7880
 2.0290	23.8280
 2.0300	23.8690
 2.0310	23.9070
 2.0320	23.9420
 2.0330	23.9780
 2.0340	24.0140
 2.0350	24.0480
 2.0360	24.0820
 2.0370	24.1130
 2.0380	24.1410
 2.0390	24.1690
 2.0400	24.1990
 2.0410	24.2240
 2.0420	24.2480
 2.0430	24.2710
 2.0440	24.2920
 2.0450	24.3070
 2.0460	24.3280
 2.0470	24.3500
 2.0480	24.3710
 2.0490	24.3940
 2.0500	24.4150
 2.0510	24.4370
 2.0520	24.4550
 2.0530	24.4720
 2.0540	24.4890
 2.0550	24.5030
 2.0560	24.5170
 2.0570	24.5360
 2.0580	24.5530
 2.0590	24.5730
 2.0600	24.5960
 2.0610	24.6160
 2.0620	24.6350
 2.0630	24.6550
 2.0640	24.6760
 2.0650	24.6970
 2.0660	24.7210
 2.0670	24.7430
 2.0680	24.7630
 2.0690	24.7850
 2.0700	24.8060
 2.0710	24.8290
 2.0720	24.8520
 2.0730	24.8780
 2.0740	24.9030
 2.0750	24.9290
 2.0760	24.9540
 2.0770	24.9820
 2.0780	25.0060
 2.0790	25.0270
 2.0800	25.0510
 2.0810	25.0710
 2.0820	25.0960
 2.0830	25.1250
 2.0840	25.1520
 2.0850	25.1780
 2.0860	25.2040
 2.0870	25.2280
 2.0880	25.2500
 2.0890	25.2740
 2.0900	25.2970
 2.0910	25.3220
 2.0920	25.3470
 2.0930	25.3710
 2.0940	25.3930
 2.0950	25.4180
 2.0960	25.4430
 2.0970	25.4680
 2.0980	25.4950
 2.0990	25.5210
 2.1000	25.5490
 2.1010	25.5750
 2.1020	25.6000
 2.1030	25.6250
 2.1040	25.6490
 2.1050	25.6720
 2.1060	25.6980
 2.1070	25.7280
 2.1080	25.7540
 2.1090	25.7780
 2.1100	25.8020
 2.1110	25.8220
 2.1120	25.8460
 2.1130	25.8720
 2.1140	25.8950
 2.1150	25.9160
 2.1160	25.9400
 2.1170	25.9640
 2.1180	25.9870
 2.1190	26.0120
 2.1200	26.0350
 2.1210	26.0570
 2.1220	26.0760
 2.1230	26.0970
 2.1240	26.1170
 2.1250	26.1360
 2.1260	26.1520
 2.1270	26.1730
 2.1280	26.1960
 2.1290	26.2180
 2.1300	26.2450
 2.1310	26.2670
 2.1320	26.2850
 2.1330	26.3040
 2.1340	26.3190
 2.1350	26.3380
 2.1360	26.3570
 2.1370	26.3770
 2.1380	26.4000
 2.1390	26.4220
 2.1400	26.4430
 2.1410	26.4640
 2.1420	26.4840
 2.1430	26.5040
 2.1440	26.5230
 2.1450	26.5420
 2.1460	26.5570
 2.1470	26.5690
 2.1480	26.5840
 2.1490	26.5990
 2.1500	26.6130
 2.1510	26.6300
 2.1520	26.6470
 2.1530	26.6650
 2.1540	26.6810
 2.1550	26.6970
 2.1560	26.7130
 2.1570	26.7260
 2.1580	26.7400
 2.1590	26.7570
 2.1600	26.7740
 2.1610	26.7890
 2.1620	26.8050
 2.1630	26.8190
 2.1640	26.8330
 2.1650	26.8470
 2.1660	26.8570
 2.1670	26.8710
 2.1680	26.8870
 2.1690	26.9020
 2.1700	26.9180
 2.1710	26.9340
 2.1720	26.9460
 2.1730	26.9630
 2.1740	26.9830
 2.1750	27.0000
 2.1760	27.0180
 2.1770	27.0350
 2.1780	27.0470
 2.1790	27.0620
 2.1800	27.0750
 2.1810	27.0920
 2.1820	27.1140
 2.1830	27.1340
 2.1840	27.1540
 2.1850	27.1760
 2.1860	27.1950
 2.1870	27.2080
 2.1880	27.2230
 2.1890	27.2400
 2.1900	27.2550
 2.1910	27.2660
 2.1920	27.2810
 2.1930	27.2960
 2.1940	27.3090
 2.1950	27.3210
 2.1960	27.3340
 2.1970	27.3470
 2.1980	27.3580
 2.1990	27.3710
 2.2000	27.3810
 2.2010	27.3860
 2.2020	27.3930
 2.2030	27.3980
 2.2040	27.4060
 2.2050	27.4180
 2.2060	27.4300
 2.2070	27.4390
 2.2080	27.4500
 2.2090	27.4530
 2.2100	27.4480
 2.2110	27.4460
 2.2120	27.4430
 2.2130	27.4400
 2.2140	27.4380
 2.2150	27.4360
 2.2160	27.4340
 2.2170	27.4280
 2.2180	27.4220
 2.2190	27.4120
 2.2200	27.3960
 2.2210	27.3810
 2.2220	27.3660
 2.2230	27.3460
 2.2240	27.3260
 2.2250	27.2990
 2.2260	27.2620
 2.2270	27.2290
 2.2280	27.1980
 2.2290	27.1620
 2.2300	27.1250
 2.2310	27.0880
 2.2320	27.0440
 2.2330	26.9940
 2.2340	26.9400
 2.2350	26.8830
 2.2360	26.8200
 2.2370	26.7470
 2.2380	26.6790
 2.2390	26.6080
 2.2400	26.5360
 2.2410	26.4650
 2.2420	26.3860
 2.2430	26.3020
 2.2440	26.2150
 2.2450	26.1210
 2.2460	26.0290
 2.2470	25.9350
 2.2480	25.8400
 2.2490	25.7470
 2.2500	25.6490
 2.2510	25.5480
 2.2520	25.4450
 2.2530	25.3330
 2.2540	25.2270
 2.2550	25.1210
 2.2560	25.0140
 2.2570	24.9130
 2.2580	24.8060
 2.2590	24.6940
 2.2600	24.5850
 2.2610	24.4730
 2.2620	24.3680
 2.2630	24.2690
 2.2640	24.1680
 2.2650	24.0760
 2.2660	23.9850
 2.2670	23.8950
 2.2680	23.8080
 2.2690	23.7220
 2.2700	23.6360
 2.2710	23.5530
 2.2720	23.4730
 2.2730	23.3940
 2.2740	23.3160
 2.2750	23.2400
 2.2760	23.1670
 2.2770	23.0930
 2.2780	23.0180
 2.2790	22.9480
 2.2800	22.8800
 2.2810	22.8130
 2.2820	22.7530
 2.2830	22.6860
 2.2840	22.6160
 2.2850	22.5440
 2.2860	22.4680
 2.2870	22.3910
 2.2880	22.3150
 2.2890	22.2320
 2.2900	22.1430
 2.2910	22.0550
 2.2920	21.9620
 2.2930	21.8710
 2.2940	21.7790
 2.2950	21.6900
 2.2960	21.5990
 2.2970	21.5140
 2.2980	21.4300
 2.2990	21.3550
 2.3000	21.2850
 2.3010	21.2220
 2.3020	21.1660
 2.3030	21.1240
 2.3040	21.0980
 2.3050	21.0770
 2.3060	21.0750
 2.3070	21.0800
 2.3080	21.0780
 2.3090	21.0960
 2.3100	21.1180
 2.3110	21.1390
 2.3120	21.1660
 2.3130	21.2030
 2.3140	21.2370
 2.3150	21.2690
 2.3160	21.3100
 2.3170	21.3580
 2.3180	21.4000
 2.3190	21.4520
 2.3200	21.4870
 2.3210	21.5130
 2.3220	21.5330
 2.3230	21.5450
 2.3240	21.5490
 2.3250	21.5430
 2.3260	21.5360
 2.3270	21.5190
 2.3280	21.5030
 2.3290	21.4880
 2.3300	21.4650
 2.3310	21.4350
 2.3320	21.4040
 2.3330	21.3670
 2.3340	21.3310
 2.3350	21.3000
 2.3360	21.2590
 2.3370	21.2100
 2.3380	21.1650
 2.3390	21.1110
 2.3400	21.0680
 2.3410	21.0370
 2.3420	20.9980
 2.3430	20.9520
 2.3440	20.9150
 2.3450	20.8810
 2.3460	20.8480
 2.3470	20.8230
 2.3480	20.8020
 2.3490	20.7760
 2.3500	20.7610
 2.3510	20.7630
 2.3520	20.7600
 2.3530	20.7590
 2.3540	20.7650
 2.3550	20.7630
 2.3560	20.7570
 2.3570	20.7500
 2.3580	20.7420
 2.3590	20.7390
 2.3600	20.7330
 2.3610	20.7270
 2.3620	20.7270
 2.3630	20.7280
 2.3640	20.7200
 2.3650	20.7110
 2.3660	20.7000
 2.3670	20.6820
 2.3680	20.6750
 2.3690	20.6770
 2.3700	20.6750
 2.3710	20.6660
 2.3720	20.6520
 2.3730	20.6350
 2.3740	20.6090
 2.3750	20.5790
 2.3760	20.5510
 2.3770	20.5210
 2.3780	20.4970
 2.3790	20.4780
 2.3800	20.4600
 2.3810	20.4490
 2.3820	20.4290
 2.3830	20.4070
 2.3840	20.3840
 2.3850	20.3460
 2.3860	20.3140
 2.3870	20.2890
 2.3880	20.2600
 2.3890	20.2320
 2.3900	20.2040
 2.3910	20.1750
 2.3920	20.1450
 2.3930	20.1210
 2.3940	20.0890
 2.3950	20.0540
 2.3960	20.0270
 2.3970	19.9900
 2.3980	19.9600
 2.3990	19.9260
 2.4000	19.8880
 2.4010	19.8620
 2.4020	19.8330
 2.4030	19.7990
 2.4040	19.7620
 2.4050	19.7240
 2.4060	19.6890
 2.4070	19.6680
 2.4080	19.6530
 2.4090	19.6160
 2.4100	19.5690
 2.4110	19.5100
 2.4120	19.4580
 2.4130	19.4180
 2.4140	19.3830
 2.4150	19.3740
 2.4160	19.3500
 2.4170	19.3090
 2.4180	19.2750
 2.4190	19.2250
 2.4200	19.1690
 2.4210	19.1380
 2.4220	19.1090
 2.4230	19.0740
 2.4240	19.0490
 2.4250	18.9950
 2.4260	18.9280
 2.4270	18.8690
 2.4280	18.8120
 2.4290	18.7640
 2.4300	18.7230
 2.4310	18.6770
 2.4320	18.6220
 2.4330	18.5800
 2.4340	18.5370
 2.4350	18.4980
 2.4360	18.4600
 2.4370	18.4030
 2.4380	18.3630
 2.4390	18.3270
 2.4400	18.2740
 2.4410	18.2370
 2.4420	18.1980
 2.4430	18.1440
 2.4440	18.0930
 2.4450	18.0410
 2.4460	17.9900
 2.4470	17.9480
 2.4480	17.9030
 2.4490	17.8530
 2.4500	17.8060
 2.4510	17.7300
 2.4520	17.6590
 2.4530	17.6090
 2.4540	17.5300
 2.4550	17.4800
 2.4560	17.4660
 2.4570	17.4090
 2.4580	17.3570
 2.4590	17.3060
 2.4600	17.2180
 2.4610	17.1630
 2.4620	17.1360
 2.4630	17.1010
 2.4640	17.0640
 2.4650	17.0260
 2.4660	16.9930
 2.4670	16.9480
 2.4680	16.9210
 2.4690	16.8960
 2.4700	16.8550
 2.4710	16.8290
 2.4720	16.7910
 2.4730	16.7250
 2.4740	16.6630
 2.4750	16.5900
 2.4760	16.5460
 2.4770	16.5190
 2.4780	16.4890
 2.4790	16.4820
 2.4800	16.4540
 2.4810	16.4160
 2.4820	16.3820
 2.4830	16.3520
 2.4840	16.3350
 2.4850	16.3140
 2.4860	16.3020
 2.4870	16.3010
 2.4880	16.3160
 2.4890	16.3030
 2.4900	16.2570
 2.4910	16.2230
 2.4920	16.1840
 2.4930	16.1240
 2.4940	16.0990
 2.4950	16.0760
 2.4960	16.0540
 2.4970	16.0790
 2.4980	16.0950
 2.4990	16.1330
 2.5000	16.1710
