Name: Salvia leucophylla 2
Type: vegetation
Class: Shrub
Genus: Salvia
Species: leucophylla
Sample No.: VH288
Owner: UCSB
Wavelength Range: TIR
Origin: 34.698; -120.0477; WGS84
Collection Date: 11/2/2013
Description: Samples were collected as part of the HyspIRI Airborne Campaign. 48 individual plants were sampled in three times in 2013 - spring  summer  and fall. The name of the sample includes a 1  2  or 3 which references a different individual of the species. Samples were taken to JPL and processed within 48 hours of collection. The same leaves were processed in the Nicolet and then measured using the ASD.
Measurement: Hemispherical reflectance
First Column: X
Second Column: Y
X Units: Wavelength (micrometers)
Y Units: Reflectance (percentage)
First X Value: 2.501
Last X Value: 15.387
Number of X Values: 1737
Additional Information: vegetation.shrub.salvia.leucophylla.tir.vh288.ucsb.nicolet.ancillary.txt

 2.5010	34.5080
 2.5030	34.2990
 2.5040	34.2230
 2.5050	34.3050
 2.5060	34.3850
 2.5070	34.4440
 2.5090	34.6670
 2.5100	34.6410
 2.5110	34.4100
 2.5120	34.3930
 2.5140	34.5310
 2.5150	34.5450
 2.5160	34.5730
 2.5170	34.5340
 2.5180	34.5750
 2.5200	34.5380
 2.5210	34.4120
 2.5220	34.2670
 2.5230	34.2610
 2.5250	34.4560
 2.5260	34.5070
 2.5270	34.3120
 2.5280	34.4690
 2.5290	34.6750
 2.5310	34.6880
 2.5320	34.4720
 2.5330	34.5550
 2.5340	34.5790
 2.5360	34.4250
 2.5370	34.4330
 2.5380	34.5700
 2.5390	34.6550
 2.5410	34.7240
 2.5420	34.6690
 2.5430	34.6260
 2.5440	34.6080
 2.5460	34.5940
 2.5470	34.6480
 2.5480	34.5950
 2.5490	34.6210
 2.5510	34.6260
 2.5520	34.6070
 2.5530	34.7450
 2.5540	34.8700
 2.5560	34.8350
 2.5570	34.7590
 2.5580	34.8410
 2.5590	34.7280
 2.5610	34.4010
 2.5620	34.2610
 2.5630	34.5890
 2.5640	34.8310
 2.5660	34.9800
 2.5670	35.1120
 2.5680	35.0470
 2.5700	34.7860
 2.5710	34.8130
 2.5720	34.9230
 2.5730	34.6300
 2.5750	34.6640
 2.5760	34.7900
 2.5770	34.5850
 2.5790	34.7130
 2.5800	34.8110
 2.5810	34.7060
 2.5820	34.7130
 2.5840	34.3550
 2.5850	34.3350
 2.5860	34.7490
 2.5880	34.6320
 2.5890	34.8310
 2.5900	35.0010
 2.5910	35.0910
 2.5930	34.8500
 2.5940	34.0240
 2.5950	33.2060
 2.5970	33.8130
 2.5980	34.6050
 2.5990	34.9550
 2.6000	34.9110
 2.6020	34.7560
 2.6030	34.6000
 2.6040	34.3620
 2.6060	33.9580
 2.6070	34.2770
 2.6080	34.5480
 2.6100	34.6250
 2.6110	34.7190
 2.6120	34.7490
 2.6140	34.6760
 2.6150	34.6920
 2.6160	34.2440
 2.6180	33.9040
 2.6190	34.2000
 2.6200	33.9150
 2.6220	34.0320
 2.6230	34.7110
 2.6240	34.7530
 2.6260	34.4750
 2.6270	33.9010
 2.6280	33.9730
 2.6300	33.7930
 2.6310	33.2920
 2.6320	33.5620
 2.6340	33.8750
 2.6350	33.8160
 2.6360	34.0480
 2.6380	34.1060
 2.6390	34.0290
 2.6400	33.9030
 2.6420	33.7800
 2.6430	33.7500
 2.6440	33.7160
 2.6460	33.3730
 2.6470	33.3440
 2.6480	33.4950
 2.6500	33.5530
 2.6510	33.3300
 2.6520	32.9560
 2.6540	32.8380
 2.6550	33.0010
 2.6560	33.0160
 2.6580	33.0680
 2.6590	32.7070
 2.6610	32.4710
 2.6620	32.5720
 2.6630	32.5600
 2.6650	32.0230
 2.6660	31.4940
 2.6670	31.4790
 2.6690	31.9040
 2.6700	31.3050
 2.6720	30.9270
 2.6730	31.6190
 2.6740	31.7980
 2.6760	31.4020
 2.6770	30.8310
 2.6780	30.6400
 2.6800	30.6640
 2.6810	30.8680
 2.6830	30.8590
 2.6840	30.5500
 2.6850	30.4450
 2.6870	30.2550
 2.6880	30.0250
 2.6900	29.8760
 2.6910	29.8060
 2.6920	29.3680
 2.6940	28.6430
 2.6950	28.1120
 2.6970	27.9990
 2.6980	27.9830
 2.6990	27.8590
 2.7010	27.4390
 2.7020	27.0620
 2.7040	26.6630
 2.7050	26.4380
 2.7060	26.2300
 2.7080	25.9820
 2.7090	25.6190
 2.7110	25.2740
 2.7120	25.0760
 2.7130	25.2250
 2.7150	25.1610
 2.7160	25.0670
 2.7180	24.6960
 2.7190	24.1710
 2.7210	23.4470
 2.7220	23.2820
 2.7230	22.9470
 2.7250	22.4200
 2.7260	22.5800
 2.7280	22.6720
 2.7290	22.3820
 2.7310	22.1000
 2.7320	22.1190
 2.7330	21.8460
 2.7350	21.1100
 2.7360	20.7680
 2.7380	20.7010
 2.7390	20.0770
 2.7410	19.5740
 2.7420	19.7390
 2.7440	19.9100
 2.7450	19.9100
 2.7470	19.6060
 2.7480	19.3600
 2.7490	19.1070
 2.7510	18.8080
 2.7520	18.3590
 2.7540	18.3390
 2.7550	18.0380
 2.7570	17.6730
 2.7580	17.7710
 2.7600	18.0350
 2.7610	17.8000
 2.7630	17.5220
 2.7640	17.4420
 2.7660	17.3720
 2.7670	17.1520
 2.7680	17.1520
 2.7700	17.1200
 2.7710	17.0170
 2.7730	16.9030
 2.7740	16.8700
 2.7760	16.8470
 2.7770	16.7980
 2.7790	16.4260
 2.7800	16.2610
 2.7820	16.1980
 2.7830	16.1780
 2.7850	16.1080
 2.7860	15.8610
 2.7880	15.7080
 2.7890	15.7340
 2.7910	15.8070
 2.7920	15.9400
 2.7940	15.8540
 2.7950	15.6760
 2.7970	15.4610
 2.7980	15.4130
 2.8000	15.4470
 2.8010	15.4830
 2.8030	15.0760
 2.8040	14.9440
 2.8060	15.1500
 2.8070	15.2150
 2.8090	15.1060
 2.8110	15.0540
 2.8120	15.0470
 2.8140	15.0710
 2.8150	14.9910
 2.8170	14.8410
 2.8180	14.7610
 2.8200	14.7480
 2.8210	14.7310
 2.8230	14.6720
 2.8240	14.5260
 2.8260	14.5850
 2.8270	14.7000
 2.8290	14.8380
 2.8300	14.6790
 2.8320	14.5390
 2.8340	14.2880
 2.8350	14.2960
 2.8370	14.3790
 2.8380	14.5450
 2.8400	14.4160
 2.8410	14.3800
 2.8430	14.3640
 2.8440	14.3880
 2.8460	14.3330
 2.8480	14.2570
 2.8490	14.1630
 2.8510	14.0270
 2.8520	13.9660
 2.8540	14.0550
 2.8550	14.0360
 2.8570	13.9990
 2.8590	13.8760
 2.8600	14.0000
 2.8620	14.1040
 2.8630	13.9990
 2.8650	13.8100
 2.8660	13.9200
 2.8680	13.9920
 2.8700	13.9340
 2.8710	13.6390
 2.8730	13.5860
 2.8740	13.4890
 2.8760	13.4820
 2.8780	13.6960
 2.8790	13.9220
 2.8810	13.7120
 2.8820	13.5160
 2.8840	13.6630
 2.8860	13.6990
 2.8870	13.7790
 2.8890	13.7800
 2.8900	13.5830
 2.8920	13.4310
 2.8940	13.4490
 2.8950	13.4770
 2.8970	13.3890
 2.8980	13.3800
 2.9000	13.4130
 2.9020	13.6000
 2.9030	13.3880
 2.9050	13.3840
 2.9070	13.5260
 2.9080	13.3080
 2.9100	13.2530
 2.9120	13.4730
 2.9130	13.5100
 2.9150	13.6770
 2.9160	13.7550
 2.9180	13.7290
 2.9200	13.4020
 2.9210	13.3640
 2.9230	13.2890
 2.9250	13.3260
 2.9260	13.4010
 2.9280	13.4000
 2.9300	13.5590
 2.9310	13.7760
 2.9330	13.5570
 2.9350	13.4130
 2.9360	13.4530
 2.9380	13.5090
 2.9400	13.4240
 2.9410	13.6650
 2.9430	13.6830
 2.9450	13.6090
 2.9460	13.5560
 2.9480	13.5160
 2.9500	13.5940
 2.9510	13.6330
 2.9530	13.7980
 2.9550	13.3520
 2.9560	13.1170
 2.9580	12.9960
 2.9600	12.4330
 2.9610	12.6770
 2.9630	13.0090
 2.9650	13.0020
 2.9660	12.8920
 2.9680	13.1800
 2.9700	13.0140
 2.9720	12.3730
 2.9730	12.9920
 2.9750	13.6210
 2.9770	12.4580
 2.9780	12.3320
 2.9800	13.0140
 2.9820	13.2880
 2.9840	13.5460
 2.9850	13.8030
 2.9870	13.6750
 2.9890	13.4720
 2.9900	14.5790
 2.9920	14.0010
 2.9940	12.3220
 2.9960	12.8860
 2.9970	13.4320
 2.9990	13.5540
 3.0010	14.3940
 3.0030	14.5310
 3.0040	14.0940
 3.0060	13.7710
 3.0080	13.6810
 3.0100	14.3980
 3.0110	14.4530
 3.0130	14.3710
 3.0150	14.1790
 3.0170	13.9850
 3.0180	13.9880
 3.0200	13.8730
 3.0220	13.5840
 3.0240	13.8100
 3.0250	14.2270
 3.0270	14.1950
 3.0290	13.8470
 3.0310	13.4680
 3.0320	13.6860
 3.0340	14.4750
 3.0360	15.3310
 3.0380	14.9970
 3.0400	14.2440
 3.0410	13.7840
 3.0430	13.7740
 3.0450	14.2520
 3.0470	15.9680
 3.0480	15.5780
 3.0500	12.5820
 3.0520	11.0530
 3.0540	11.9910
 3.0560	13.5750
 3.0570	13.6110
 3.0590	13.3580
 3.0610	13.7860
 3.0630	14.4360
 3.0650	14.3960
 3.0660	13.9600
 3.0680	14.2340
 3.0700	14.8490
 3.0720	14.3620
 3.0740	13.9180
 3.0760	13.8120
 3.0770	13.7860
 3.0790	13.8290
 3.0810	14.1840
 3.0830	14.2780
 3.0850	14.3340
 3.0870	14.2870
 3.0880	14.3440
 3.0900	14.4390
 3.0920	14.5630
 3.0940	14.3370
 3.0960	14.5570
 3.0980	14.7860
 3.0990	14.9040
 3.1010	14.5790
 3.1030	14.4600
 3.1050	14.6170
 3.1070	14.8130
 3.1090	14.7490
 3.1110	14.6890
 3.1120	14.6890
 3.1140	14.8380
 3.1160	14.8290
 3.1180	14.9550
 3.1200	14.9320
 3.1220	14.9080
 3.1240	14.8050
 3.1260	14.8000
 3.1270	14.6070
 3.1290	14.8270
 3.1310	14.9960
 3.1330	15.1570
 3.1350	14.6770
 3.1370	14.2790
 3.1390	14.6800
 3.1410	15.2300
 3.1430	15.6310
 3.1450	14.6380
 3.1460	14.0260
 3.1480	14.7170
 3.1500	15.4320
 3.1520	15.8480
 3.1540	15.8750
 3.1560	15.7340
 3.1580	15.6930
 3.1600	16.3990
 3.1620	16.1430
 3.1640	15.3000
 3.1660	15.5580
 3.1680	15.5400
 3.1700	14.7790
 3.1710	16.4310
 3.1730	16.1990
 3.1750	14.8400
 3.1770	15.4670
 3.1790	15.9950
 3.1810	15.7640
 3.1830	16.0600
 3.1850	15.8450
 3.1870	15.6250
 3.1890	15.6200
 3.1910	15.7200
 3.1930	15.9090
 3.1950	15.9940
 3.1970	16.0730
 3.1990	16.1760
 3.2010	16.0750
 3.2030	15.8880
 3.2050	15.9900
 3.2070	16.2010
 3.2090	16.1240
 3.2110	15.9260
 3.2130	15.9140
 3.2150	15.9610
 3.2170	16.0190
 3.2190	15.9560
 3.2210	15.9100
 3.2230	16.0730
 3.2250	16.0860
 3.2270	16.0270
 3.2290	16.1960
 3.2310	16.4690
 3.2330	16.3170
 3.2350	16.3630
 3.2370	16.4760
 3.2390	16.5090
 3.2410	16.3690
 3.2430	16.1840
 3.2450	16.0820
 3.2470	16.1550
 3.2490	16.2280
 3.2510	16.2900
 3.2530	16.3440
 3.2550	16.4540
 3.2570	16.5380
 3.2590	16.4880
 3.2610	16.3610
 3.2630	16.5200
 3.2650	16.5500
 3.2670	16.5830
 3.2690	16.6300
 3.2720	16.5350
 3.2740	16.3780
 3.2760	16.4160
 3.2780	16.5210
 3.2800	16.4530
 3.2820	16.4900
 3.2840	16.5220
 3.2860	16.4150
 3.2880	16.4070
 3.2900	16.5400
 3.2920	16.6520
 3.2940	16.4240
 3.2960	16.5080
 3.2990	16.5060
 3.3010	16.4050
 3.3030	16.3510
 3.3050	16.3150
 3.3070	16.5990
 3.3090	16.7260
 3.3110	16.4910
 3.3130	16.2700
 3.3150	16.1050
 3.3180	16.2360
 3.3200	16.3240
 3.3220	16.2430
 3.3240	16.1050
 3.3260	16.0420
 3.3280	15.8730
 3.3300	15.7910
 3.3330	15.7320
 3.3350	15.5790
 3.3370	15.4110
 3.3390	15.3980
 3.3410	15.3780
 3.3430	15.3850
 3.3450	15.2040
 3.3480	14.9550
 3.3500	14.7280
 3.3520	14.7080
 3.3540	14.6880
 3.3560	14.6920
 3.3580	14.6090
 3.3610	14.4220
 3.3630	14.1820
 3.3650	14.1960
 3.3670	14.2860
 3.3690	14.2450
 3.3720	14.1050
 3.3740	13.9590
 3.3760	13.9430
 3.3780	13.9050
 3.3800	13.7010
 3.3830	13.7400
 3.3850	13.6830
 3.3870	13.5480
 3.3890	13.3310
 3.3910	13.3140
 3.3940	13.2840
 3.3960	13.3470
 3.3980	13.3030
 3.4000	13.1620
 3.4020	13.0830
 3.4050	13.1430
 3.4070	13.1460
 3.4090	13.2110
 3.4110	13.1980
 3.4140	13.2080
 3.4160	13.2970
 3.4180	13.3760
 3.4200	13.3250
 3.4230	13.3170
 3.4250	13.2700
 3.4270	13.4080
 3.4290	13.6410
 3.4320	13.7840
 3.4340	13.7680
 3.4360	13.8970
 3.4390	13.9590
 3.4410	13.9840
 3.4430	14.0440
 3.4450	14.1370
 3.4480	14.2090
 3.4500	14.3400
 3.4520	14.3120
 3.4550	14.2890
 3.4570	14.2480
 3.4590	14.4500
 3.4620	14.7570
 3.4640	14.8160
 3.4660	14.8660
 3.4680	15.0050
 3.4710	14.9400
 3.4730	14.8520
 3.4750	14.8370
 3.4780	14.8120
 3.4800	14.6660
 3.4820	14.6600
 3.4850	14.7550
 3.4870	14.7870
 3.4890	14.6700
 3.4920	14.6080
 3.4940	14.4860
 3.4970	14.4220
 3.4990	14.5320
 3.5010	14.5180
 3.5040	14.4850
 3.5060	14.5330
 3.5080	14.5900
 3.5110	14.7470
 3.5130	15.1100
 3.5160	15.5230
 3.5180	15.8550
 3.5200	16.1020
 3.5230	16.3110
 3.5250	16.6630
 3.5270	17.0070
 3.5300	17.2600
 3.5320	17.4410
 3.5350	17.5830
 3.5370	17.6480
 3.5400	17.8770
 3.5420	18.1830
 3.5440	18.3300
 3.5470	18.3390
 3.5490	18.3480
 3.5520	18.4080
 3.5540	18.5910
 3.5570	18.7090
 3.5590	18.8400
 3.5610	18.9410
 3.5640	18.9850
 3.5660	18.9310
 3.5690	18.9540
 3.5710	19.0880
 3.5740	19.1950
 3.5760	19.3360
 3.5790	19.4730
 3.5810	19.5060
 3.5840	19.5370
 3.5860	19.6250
 3.5890	19.7520
 3.5910	19.7340
 3.5930	19.7220
 3.5960	19.7920
 3.5980	19.9510
 3.6010	19.9540
 3.6030	20.0800
 3.6060	20.1770
 3.6080	20.0800
 3.6110	20.0500
 3.6140	20.1810
 3.6160	20.2610
 3.6190	20.3470
 3.6210	20.4160
 3.6240	20.4580
 3.6260	20.4350
 3.6290	20.3470
 3.6310	20.3220
 3.6340	20.3910
 3.6360	20.4800
 3.6390	20.6000
 3.6410	20.6000
 3.6440	20.5130
 3.6470	20.4830
 3.6490	20.5430
 3.6520	20.5810
 3.6540	20.5840
 3.6570	20.4940
 3.6590	20.5380
 3.6620	20.5580
 3.6650	20.5930
 3.6670	20.5680
 3.6700	20.6650
 3.6720	20.6840
 3.6750	20.7050
 3.6780	20.7870
 3.6800	20.8560
 3.6830	20.8860
 3.6850	20.9580
 3.6880	20.9210
 3.6910	20.9070
 3.6930	20.9020
 3.6960	21.0240
 3.6990	21.0520
 3.7010	21.0960
 3.7040	21.0970
 3.7060	21.0050
 3.7090	21.0080
 3.7120	21.1080
 3.7140	21.0930
 3.7170	21.1110
 3.7200	21.2060
 3.7220	21.2270
 3.7250	21.1760
 3.7280	21.1480
 3.7300	21.1720
 3.7330	21.2370
 3.7360	21.1870
 3.7390	21.1880
 3.7410	21.1810
 3.7440	21.1680
 3.7470	21.1820
 3.7490	21.3020
 3.7520	21.2490
 3.7550	21.2070
 3.7580	21.2270
 3.7600	21.3280
 3.7630	21.3860
 3.7660	21.4700
 3.7680	21.4720
 3.7710	21.6040
 3.7740	21.7060
 3.7770	21.6300
 3.7790	21.5930
 3.7820	21.6420
 3.7850	21.6620
 3.7880	21.7230
 3.7900	21.6820
 3.7930	21.7140
 3.7960	21.7400
 3.7990	21.8030
 3.8020	21.8490
 3.8040	21.8870
 3.8070	21.9390
 3.8100	21.9810
 3.8130	21.9130
 3.8160	21.9410
 3.8180	21.9830
 3.8210	22.0020
 3.8240	22.0560
 3.8270	22.1050
 3.8300	22.0840
 3.8330	22.1480
 3.8350	22.4150
 3.8380	22.5320
 3.8410	22.4140
 3.8440	22.4090
 3.8470	22.4630
 3.8500	22.4760
 3.8520	22.5210
 3.8550	22.5590
 3.8580	22.5790
 3.8610	22.5830
 3.8640	22.5240
 3.8670	22.5800
 3.8700	22.6080
 3.8730	22.6370
 3.8750	22.6410
 3.8780	22.6560
 3.8810	22.6490
 3.8840	22.8050
 3.8870	22.8730
 3.8900	22.8930
 3.8930	22.9370
 3.8960	23.0450
 3.8990	22.9880
 3.9020	22.9470
 3.9050	23.0270
 3.9080	23.0910
 3.9110	23.1130
 3.9140	23.1890
 3.9160	23.2390
 3.9190	23.2110
 3.9220	23.1450
 3.9250	23.2450
 3.9280	23.3070
 3.9310	23.3520
 3.9340	23.3860
 3.9370	23.4280
 3.9400	23.4410
 3.9430	23.5210
 3.9460	23.5710
 3.9490	23.5860
 3.9520	23.6670
 3.9550	23.5690
 3.9580	23.4670
 3.9610	23.6030
 3.9640	23.7390
 3.9670	23.9630
 3.9700	24.0880
 3.9730	24.0130
 3.9770	24.0290
 3.9800	24.1150
 3.9830	24.0900
 3.9860	24.1840
 3.9890	24.3100
 3.9920	24.3560
 3.9950	24.3560
 3.9980	24.4040
 4.0010	24.4430
 4.0040	24.5180
 4.0070	24.5500
 4.0100	24.6000
 4.0130	24.6570
 4.0170	24.7590
 4.0200	24.7680
 4.0230	24.8520
 4.0260	24.9070
 4.0290	24.9790
 4.0320	25.0080
 4.0350	25.0640
 4.0380	25.1600
 4.0420	25.2200
 4.0450	25.2370
 4.0480	25.3210
 4.0510	25.3890
 4.0540	25.4350
 4.0570	25.4970
 4.0610	25.5040
 4.0640	25.4600
 4.0670	25.5520
 4.0700	25.6670
 4.0730	25.6700
 4.0770	25.7350
 4.0800	25.8100
 4.0830	25.7500
 4.0860	25.7980
 4.0890	25.9000
 4.0930	25.9530
 4.0960	25.9590
 4.0990	26.0500
 4.1020	26.0770
 4.1060	26.0390
 4.1090	26.0090
 4.1120	26.0270
 4.1150	26.1610
 4.1190	26.3230
 4.1220	26.2980
 4.1250	26.2270
 4.1280	26.2660
 4.1320	26.3560
 4.1350	26.3980
 4.1380	26.4380
 4.1420	26.4400
 4.1450	26.4780
 4.1480	26.4450
 4.1520	26.4960
 4.1550	26.6060
 4.1580	26.6810
 4.1620	26.6770
 4.1650	26.6050
 4.1680	26.5420
 4.1720	26.6140
 4.1750	26.6480
 4.1780	26.7060
 4.1820	26.7360
 4.1850	26.7470
 4.1890	26.7530
 4.1920	26.7130
 4.1950	26.7070
 4.1990	26.6260
 4.2020	26.5100
 4.2060	26.4320
 4.2090	26.2660
 4.2120	26.1660
 4.2160	26.0800
 4.2190	25.9020
 4.2230	25.6340
 4.2260	25.4660
 4.2300	25.2460
 4.2330	25.1060
 4.2360	25.0330
 4.2400	25.1120
 4.2430	25.4690
 4.2470	25.6920
 4.2500	25.6400
 4.2540	25.8200
 4.2570	26.0680
 4.2610	26.2760
 4.2640	26.2480
 4.2680	25.9850
 4.2710	25.9130
 4.2750	25.9880
 4.2780	25.8460
 4.2820	25.9710
 4.2850	26.2270
 4.2890	26.3190
 4.2930	26.4010
 4.2960	26.1690
 4.3000	26.0060
 4.3030	26.1370
 4.3070	26.1700
 4.3100	26.1340
 4.3140	26.2170
 4.3180	26.4110
 4.3210	26.5090
 4.3250	26.6150
 4.3280	26.5680
 4.3320	26.6540
 4.3360	26.7500
 4.3390	26.8260
 4.3430	26.7870
 4.3470	26.8540
 4.3500	26.9210
 4.3540	26.9040
 4.3570	26.8960
 4.3610	26.9010
 4.3650	26.8970
 4.3680	26.9290
 4.3720	26.9350
 4.3760	26.9980
 4.3800	27.0340
 4.3830	27.0590
 4.3870	27.0260
 4.3910	27.0870
 4.3940	27.0870
 4.3980	27.0760
 4.4020	27.0080
 4.4060	26.9390
 4.4090	26.9060
 4.4130	26.8740
 4.4170	26.9350
 4.4210	27.0320
 4.4240	27.0150
 4.4280	26.9550
 4.4320	26.9120
 4.4360	26.8940
 4.4400	26.8800
 4.4430	26.9260
 4.4470	26.8810
 4.4510	26.8070
 4.4550	26.8770
 4.4590	26.8960
 4.4620	26.8740
 4.4660	26.8210
 4.4700	26.7620
 4.4740	26.8250
 4.4780	26.8900
 4.4820	26.8710
 4.4860	26.8270
 4.4900	26.7960
 4.4930	26.7710
 4.4970	26.7590
 4.5010	26.7830
 4.5050	26.8400
 4.5090	26.7810
 4.5130	26.6510
 4.5170	26.6770
 4.5210	26.7170
 4.5250	26.6890
 4.5290	26.6770
 4.5330	26.6370
 4.5370	26.5530
 4.5410	26.4600
 4.5450	26.4610
 4.5490	26.6320
 4.5530	26.6730
 4.5570	26.5510
 4.5610	26.5020
 4.5650	26.5180
 4.5690	26.5030
 4.5730	26.4530
 4.5770	26.3980
 4.5810	26.3780
 4.5850	26.4670
 4.5890	26.5020
 4.5930	26.4040
 4.5970	26.3810
 4.6010	26.3330
 4.6050	26.2380
 4.6090	26.3570
 4.6130	26.4070
 4.6170	26.3330
 4.6220	26.3620
 4.6260	26.3020
 4.6300	26.2470
 4.6340	26.3390
 4.6380	26.3850
 4.6420	26.4010
 4.6460	26.4580
 4.6510	26.4160
 4.6550	26.2680
 4.6590	26.2220
 4.6630	26.3000
 4.6670	26.3190
 4.6720	26.2670
 4.6760	26.2650
 4.6800	26.3000
 4.6840	26.2680
 4.6880	26.3230
 4.6930	26.3280
 4.6970	26.2910
 4.7010	26.3090
 4.7050	26.2840
 4.7100	26.2730
 4.7140	26.2850
 4.7180	26.3890
 4.7230	26.3590
 4.7270	26.2750
 4.7310	26.3210
 4.7360	26.3740
 4.7400	26.3890
 4.7440	26.3440
 4.7490	26.3640
 4.7530	26.4640
 4.7570	26.4670
 4.7620	26.4520
 4.7660	26.4990
 4.7700	26.5250
 4.7750	26.5290
 4.7790	26.4820
 4.7840	26.5020
 4.7880	26.5280
 4.7920	26.5500
 4.7970	26.3990
 4.8010	26.4140
 4.8060	26.5230
 4.8100	26.6130
 4.8150	26.6930
 4.8190	26.6730
 4.8240	26.6650
 4.8280	26.6310
 4.8330	26.5860
 4.8370	26.6000
 4.8420	26.6430
 4.8460	26.6290
 4.8510	26.5430
 4.8550	26.6190
 4.8600	26.7060
 4.8640	26.7240
 4.8690	26.6600
 4.8730	26.5990
 4.8780	26.6300
 4.8830	26.6880
 4.8870	26.7090
 4.8920	26.6860
 4.8960	26.6870
 4.9010	26.6900
 4.9060	26.6540
 4.9100	26.6590
 4.9150	26.6780
 4.9200	26.7440
 4.9240	26.7560
 4.9290	26.7570
 4.9340	26.7280
 4.9380	26.6970
 4.9430	26.7620
 4.9480	26.8300
 4.9530	26.8300
 4.9570	26.8370
 4.9620	26.8840
 4.9670	26.9270
 4.9720	26.9870
 4.9760	27.0500
 4.9810	27.0330
 4.9860	27.0350
 4.9910	27.0630
 4.9960	27.1000
 5.0000	27.0920
 5.0050	27.1170
 5.0100	27.0880
 5.0150	27.1520
 5.0200	27.1220
 5.0250	27.0960
 5.0290	27.1140
 5.0340	27.1820
 5.0390	27.2210
 5.0440	27.2050
 5.0490	27.2200
 5.0540	27.2900
 5.0590	27.2890
 5.0640	27.2850
 5.0690	27.2600
 5.0740	27.3160
 5.0790	27.3570
 5.0840	27.3400
 5.0890	27.3130
 5.0940	27.3610
 5.0990	27.3860
 5.1040	27.4240
 5.1090	27.4220
 5.1140	27.3490
 5.1190	27.2660
 5.1240	27.2920
 5.1290	27.3700
 5.1340	27.4070
 5.1390	27.3770
 5.1440	27.2380
 5.1490	27.2720
 5.1540	27.5070
 5.1600	27.5830
 5.1650	27.4230
 5.1700	27.2850
 5.1750	27.2790
 5.1800	27.3110
 5.1850	27.3180
 5.1910	27.2510
 5.1960	27.1840
 5.2010	27.1830
 5.2060	27.2530
 5.2110	27.1260
 5.2170	27.0900
 5.2220	27.1750
 5.2270	27.1080
 5.2320	27.0030
 5.2380	27.0020
 5.2430	27.0750
 5.2480	27.1060
 5.2540	27.0590
 5.2590	27.0290
 5.2640	26.9610
 5.2700	26.9150
 5.2750	26.8600
 5.2800	26.8160
 5.2860	26.7820
 5.2910	26.6700
 5.2970	26.6730
 5.3020	26.6800
 5.3070	26.6500
 5.3130	26.7050
 5.3180	26.6240
 5.3240	26.5340
 5.3290	26.5700
 5.3350	26.5690
 5.3400	26.5010
 5.3460	26.3920
 5.3510	26.2640
 5.3570	26.3130
 5.3620	26.3390
 5.3680	26.3450
 5.3730	26.3200
 5.3790	26.2930
 5.3850	26.2640
 5.3900	26.3100
 5.3960	26.2640
 5.4010	26.3280
 5.4070	26.3030
 5.4130	26.1540
 5.4180	25.8260
 5.4240	25.6610
 5.4300	25.8350
 5.4350	25.9130
 5.4410	25.8450
 5.4470	25.8140
 5.4530	25.7910
 5.4580	25.6050
 5.4640	25.2620
 5.4700	25.1790
 5.4760	25.1330
 5.4810	24.9870
 5.4870	25.0200
 5.4930	25.0760
 5.4990	24.9010
 5.5050	24.6810
 5.5110	24.5690
 5.5160	24.3870
 5.5220	24.0940
 5.5280	23.8900
 5.5340	23.7020
 5.5400	23.5520
 5.5460	23.3020
 5.5520	23.0120
 5.5580	22.7800
 5.5640	22.5180
 5.5700	22.1130
 5.5760	21.6420
 5.5820	21.3160
 5.5880	21.2810
 5.5940	21.1110
 5.6000	20.7110
 5.6060	20.2520
 5.6120	19.9710
 5.6180	19.7680
 5.6240	19.5920
 5.6300	19.2500
 5.6360	18.8890
 5.6420	18.4100
 5.6490	18.2090
 5.6550	18.0130
 5.6610	17.8630
 5.6670	17.7060
 5.6730	17.2730
 5.6800	16.8560
 5.6860	16.6380
 5.6920	16.2510
 5.6980	16.0230
 5.7040	15.7130
 5.7110	15.2140
 5.7170	14.8800
 5.7230	14.6060
 5.7300	14.3620
 5.7360	14.0980
 5.7420	13.7820
 5.7490	13.5500
 5.7550	13.4870
 5.7620	13.3120
 5.7680	13.1470
 5.7740	13.4050
 5.7810	13.5510
 5.7870	13.7360
 5.7940	13.8500
 5.8000	13.8330
 5.8070	13.8390
 5.8130	13.8590
 5.8200	13.7400
 5.8260	13.7370
 5.8330	13.9380
 5.8390	14.2070
 5.8460	14.3210
 5.8530	14.3880
 5.8590	14.3040
 5.8660	14.2330
 5.8720	14.2820
 5.8790	13.9550
 5.8860	13.8240
 5.8920	14.0670
 5.8990	13.9170
 5.9060	14.0370
 5.9130	14.1540
 5.9190	14.1050
 5.9260	14.1120
 5.9330	14.0070
 5.9400	14.0570
 5.9470	14.7710
 5.9530	15.1650
 5.9600	15.4190
 5.9670	15.4900
 5.9740	15.6840
 5.9810	15.9140
 5.9880	15.8270
 5.9950	15.8850
 6.0020	16.2130
 6.0090	16.1690
 6.0160	15.9540
 6.0230	15.9750
 6.0300	16.0450
 6.0370	15.9680
 6.0440	15.6320
 6.0510	15.2320
 6.0580	15.7890
 6.0650	16.0190
 6.0720	15.8730
 6.0790	15.9700
 6.0860	16.1990
 6.0930	16.2820
 6.1000	16.3810
 6.1080	16.2000
 6.1150	15.9080
 6.1220	16.1390
 6.1290	16.4990
 6.1370	16.5630
 6.1440	16.5440
 6.1510	16.4920
 6.1580	16.4560
 6.1660	16.4680
 6.1730	16.6480
 6.1800	16.4270
 6.1880	16.2840
 6.1950	16.3930
 6.2030	16.5380
 6.2100	16.6000
 6.2170	16.6060
 6.2250	16.6130
 6.2320	16.6930
 6.2400	16.8620
 6.2470	17.0750
 6.2550	17.1540
 6.2630	17.2170
 6.2700	17.2560
 6.2780	17.4530
 6.2850	17.5530
 6.2930	17.7020
 6.3010	17.9280
 6.3080	18.1220
 6.3160	18.1450
 6.3240	18.0920
 6.3310	18.0440
 6.3390	17.9690
 6.3470	17.8750
 6.3550	18.2060
 6.3620	18.2770
 6.3700	18.1560
 6.3780	18.3160
 6.3860	18.6150
 6.3940	18.5850
 6.4020	18.5190
 6.4100	18.0620
 6.4180	17.9340
 6.4260	18.3520
 6.4330	18.6790
 6.4410	18.8740
 6.4490	19.0440
 6.4580	18.9760
 6.4660	18.9210
 6.4740	18.8460
 6.4820	18.7150
 6.4900	18.3830
 6.4980	18.5850
 6.5060	19.2480
 6.5140	19.5060
 6.5230	19.3560
 6.5310	19.5970
 6.5390	19.7700
 6.5470	19.7330
 6.5550	19.6290
 6.5640	19.5170
 6.5720	19.1360
 6.5800	19.2380
 6.5890	19.3780
 6.5970	19.5230
 6.6060	19.6780
 6.6140	19.7330
 6.6220	19.7130
 6.6310	19.3940
 6.6390	19.1020
 6.6480	19.5690
 6.6560	19.8760
 6.6650	19.8920
 6.6740	19.7170
 6.6820	19.5660
 6.6910	19.5280
 6.6990	19.4560
 6.7080	19.0420
 6.7170	18.7920
 6.7260	18.6630
 6.7340	18.5150
 6.7430	18.1320
 6.7520	17.8020
 6.7610	17.5290
 6.7690	17.1920
 6.7780	16.6130
 6.7870	16.0110
 6.7960	15.6910
 6.8050	15.7570
 6.8140	15.4560
 6.8230	15.0730
 6.8320	14.9380
 6.8410	15.1720
 6.8500	15.0940
 6.8590	14.7890
 6.8680	14.5950
 6.8770	15.1930
 6.8860	15.5130
 6.8950	15.6740
 6.9050	15.5930
 6.9140	15.6090
 6.9230	15.7040
 6.9320	15.8260
 6.9420	15.7880
 6.9510	15.7750
 6.9600	15.5800
 6.9700	15.6840
 6.9790	15.6870
 6.9880	15.6390
 6.9980	15.7290
 7.0070	15.8190
 7.0170	15.7870
 7.0260	15.8590
 7.0360	15.7360
 7.0450	15.6230
 7.0550	15.7710
 7.0650	16.0120
 7.0740	16.0640
 7.0840	16.1750
 7.0940	16.1950
 7.1030	16.1470
 7.1130	15.9730
 7.1230	16.0850
 7.1330	16.2730
 7.1420	16.2370
 7.1520	16.0320
 7.1620	16.0830
 7.1720	15.9280
 7.1820	15.8410
 7.1920	15.6710
 7.2020	15.5920
 7.2120	15.5100
 7.2220	15.5210
 7.2320	15.3530
 7.2420	15.4000
 7.2520	15.3230
 7.2620	15.2890
 7.2730	15.2050
 7.2830	15.2020
 7.2930	15.2350
 7.3030	15.3130
 7.3140	15.1810
 7.3240	15.2980
 7.3340	15.3050
 7.3450	15.3690
 7.3550	15.4850
 7.3660	15.6330
 7.3760	15.6510
 7.3870	15.7420
 7.3970	15.7430
 7.4080	15.8690
 7.4180	15.8710
 7.4290	15.8380
 7.4400	15.8210
 7.4500	15.7850
 7.4610	15.4990
 7.4720	15.4480
 7.4830	15.5300
 7.4930	15.5080
 7.5040	15.3320
 7.5150	15.3420
 7.5260	15.2040
 7.5370	15.1370
 7.5480	15.0130
 7.5590	15.0500
 7.5700	14.9480
 7.5810	14.8910
 7.5920	14.9090
 7.6030	15.1180
 7.6140	15.1510
 7.6260	15.2250
 7.6370	15.2810
 7.6480	15.4700
 7.6590	15.3770
 7.6710	15.3700
 7.6820	15.3930
 7.6930	15.5210
 7.7050	15.5030
 7.7160	15.3720
 7.7280	15.1250
 7.7390	15.1500
 7.7510	15.1360
 7.7630	15.2570
 7.7740	15.0990
 7.7860	14.9540
 7.7980	14.8030
 7.8090	14.8830
 7.8210	14.9070
 7.8330	14.9570
 7.8450	14.7850
 7.8570	14.8660
 7.8690	14.8580
 7.8810	14.8650
 7.8930	14.8700
 7.9050	14.9590
 7.9170	14.8030
 7.9290	14.9030
 7.9410	14.8390
 7.9530	14.7290
 7.9650	14.5260
 7.9780	14.5760
 7.9900	14.7320
 8.0020	14.8970
 8.0150	14.7790
 8.0270	14.9080
 8.0390	14.8480
 8.0520	14.8300
 8.0640	14.6230
 8.0770	14.6310
 8.0900	14.7200
 8.1020	14.8680
 8.1150	14.8280
 8.1280	14.9310
 8.1400	14.9160
 8.1530	15.1820
 8.1660	15.2230
 8.1790	15.3190
 8.1920	15.2980
 8.2050	15.4440
 8.2180	15.2750
 8.2310	15.2280
 8.2440	15.2110
 8.2570	15.2630
 8.2700	15.1630
 8.2830	15.2880
 8.2970	15.1520
 8.3100	15.0960
 8.3230	14.9270
 8.3370	14.9660
 8.3500	14.8940
 8.3640	14.9830
 8.3770	14.9490
 8.3910	14.9870
 8.4040	14.8280
 8.4180	14.8490
 8.4320	14.8740
 8.4450	14.8050
 8.4590	14.5580
 8.4730	14.6730
 8.4870	14.5790
 8.5010	14.5350
 8.5150	14.4180
 8.5290	14.4710
 8.5430	14.2750
 8.5570	14.3400
 8.5710	14.2870
 8.5850	14.1910
 8.5990	14.0130
 8.6140	14.1940
 8.6280	14.3380
 8.6420	14.5600
 8.6570	14.5730
 8.6710	14.7810
 8.6860	14.6370
 8.7000	14.6500
 8.7150	14.5970
 8.7300	14.8360
 8.7440	14.7890
 8.7590	14.8900
 8.7740	14.8820
 8.7890	14.9350
 8.8040	14.8650
 8.8190	15.0430
 8.8340	14.8950
 8.8490	14.9100
 8.8640	14.5670
 8.8790	14.4090
 8.8940	14.3140
 8.9100	14.4340
 8.9250	14.2320
 8.9400	14.1490
 8.9560	14.0820
 8.9710	14.1570
 8.9870	14.0780
 9.0020	14.1170
 9.0180	13.9290
 9.0340	14.0390
 9.0500	14.0320
 9.0650	14.2410
 9.0810	14.0950
 9.0970	14.0140
 9.1130	13.8010
 9.1290	13.9530
 9.1450	14.0030
 9.1610	14.0830
 9.1780	13.9970
 9.1940	14.1470
 9.2100	14.0210
 9.2270	14.0370
 9.2430	13.8000
 9.2600	13.7580
 9.2760	13.5290
 9.2930	13.6630
 9.3090	13.6870
 9.3260	13.7860
 9.3430	13.7160
 9.3600	13.7400
 9.3770	13.5560
 9.3940	13.5180
 9.4110	13.2790
 9.4280	13.3700
 9.4450	13.4880
 9.4620	13.6590
 9.4800	13.5280
 9.4970	13.7440
 9.5140	13.7660
 9.5320	13.8380
 9.5500	13.6140
 9.5670	13.6280
 9.5850	13.6790
 9.6030	13.9770
 9.6200	13.8050
 9.6380	13.7520
 9.6560	13.6340
 9.6740	13.8350
 9.6920	13.8560
 9.7100	14.1590
 9.7290	14.3170
 9.7470	14.4720
 9.7650	14.3580
 9.7840	14.5110
 9.8020	14.4560
 9.8210	14.7390
 9.8390	14.6390
 9.8580	14.5810
 9.8770	14.6200
 9.8960	14.8320
 9.9150	14.7510
 9.9340	14.9930
 9.9530	14.9440
 9.9720	14.9710
 9.9910	14.8740
10.0100	14.9380
10.0300	14.9280
10.0490	15.1560
10.0690	15.0180
10.0880	15.1330
10.1080	15.2550
10.1280	15.5050
10.1480	15.5560
10.1670	15.8640
10.1870	15.9200
10.2070	16.1010
10.2280	15.9570
10.2480	16.0780
10.2680	16.0700
10.2890	16.3200
10.3090	16.1750
10.3300	16.2260
10.3500	16.2030
10.3710	16.2300
10.3920	16.0690
10.4120	16.2090
10.4330	16.0840
10.4540	16.2940
10.4760	16.3270
10.4970	16.6560
10.5180	16.5610
10.5390	16.6300
10.5610	16.5960
10.5820	16.8240
10.6040	16.9380
10.6260	17.1180
10.6480	17.0150
10.6700	17.1230
10.6920	17.0430
10.7140	17.1510
10.7360	17.0420
10.7580	17.2020
10.7800	16.9920
10.8030	17.0080
10.8250	16.9290
10.8480	17.0180
10.8710	16.8800
10.8940	17.1130
10.9170	17.0140
10.9400	16.9330
10.9630	16.6700
10.9860	16.8090
11.0090	16.6570
11.0330	16.7760
11.0560	16.6380
11.0800	16.7070
11.1040	16.5890
11.1270	16.6710
11.1510	16.6560
11.1750	16.8810
11.2000	16.7830
11.2240	16.7680
11.2480	16.5260
11.2730	16.6640
11.2970	16.6580
11.3220	16.8900
11.3470	16.9850
11.3720	17.2490
11.3970	17.1040
11.4220	17.2600
11.4470	17.1120
11.4720	17.1330
11.4980	17.0450
11.5230	17.2520
11.5490	17.0910
11.5750	17.1620
11.6000	16.9700
11.6260	17.0120
11.6530	16.8990
11.6790	17.0550
11.7050	16.7930
11.7320	16.9240
11.7580	16.7710
11.7850	16.8450
11.8120	16.6160
11.8390	16.7300
11.8660	16.5300
11.8930	16.5650
11.9200	16.4400
11.9480	16.5200
11.9760	16.2650
12.0030	16.3450
12.0310	16.0170
12.0590	16.2070
12.0870	16.2580
12.1150	16.2240
12.1440	15.8070
12.1720	15.8820
12.2010	15.6880
12.2300	15.9500
12.2590	15.5700
12.2880	15.5710
12.3170	15.4370
12.3460	15.6970
12.3760	15.4650
12.4050	15.5520
12.4350	15.2800
12.4650	15.3380
12.4950	15.2810
12.5250	15.5320
12.5550	15.4020
12.5860	15.3700
12.6170	15.1240
12.6470	15.1410
12.6780	14.9020
12.7090	15.0340
12.7410	14.7350
12.7720	14.8800
12.8030	14.6710
12.8350	14.4490
12.8670	14.2190
12.8990	14.5690
12.9310	14.2510
12.9640	14.4290
12.9960	14.4110
13.0290	14.8430
13.0610	14.4270
13.0940	14.4120
13.1280	14.3420
13.1610	14.6560
13.1940	14.6210
13.2280	14.7240
13.2620	14.4280
13.2960	14.6520
13.3300	14.5910
13.3640	14.9690
13.3990	14.6550
13.4340	14.4650
13.4690	14.1980
13.5040	14.4290
13.5390	14.2110
13.5740	14.1510
13.6100	13.7140
13.6460	13.9340
13.6820	13.8450
13.7180	13.9760
13.7540	13.5830
13.7910	13.8730
13.8280	13.7380
13.8650	14.0120
13.9020	13.9890
13.9390	14.2840
13.9770	14.0120
14.0150	14.4430
14.0530	14.1400
14.0910	14.2040
14.1290	13.7130
14.1680	13.8520
14.2070	13.5970
14.2460	13.9340
14.2850	13.7350
14.3240	13.9350
14.3640	13.6280
14.4040	14.1550
14.4440	14.0180
14.4840	14.3470
14.5250	13.7630
14.5660	13.8990
14.6070	13.5220
14.6480	14.0510
14.6900	13.4330
14.7310	13.6430
14.7730	13.3510
14.8150	13.6460
14.8580	12.6030
14.9010	12.9080
14.9440	12.6950
14.9870	13.9990
15.0300	13.7670
15.0740	13.8690
15.1180	13.0470
15.1620	13.2170
15.2060	12.6270
15.2510	13.7450
15.2960	13.5840
15.3410	13.9900
15.3870	13.0350
