Name: Podocarpus gracilior
Type: vegetation
Class: Tree
Genus: Podocarpus
Species: gracilior
Sample No.: JPL127
Owner: JPL
Wavelength Range: VSWIR
Origin: 34.12691; -118.116;; WGS84
Collection Date: 9/7/2016
Description: Samples were collected at the Huntington Garden in San Marino California as part of a JPL Subcontract studying HyTES imagery. Samples were taken to JPL and processed within 48 hours of collection. The same leaves were processed in the Nicolet and then measured using the ASD.
Measurement: Bidirectional reflectance
First Column: X
Second Column: Y
X Units: Wavelength (micrometer)
Y Units: Reflectance (percentage)
First X Value: 0.35
Last X Value: 2.5
Number of X Values: 2151
Additional Information: vegetation.tree.podocarpus.gracilior.vswir.jpl127.jpl.asd.ancillary.txt

 0.3500	 9.6300
 0.3510	 9.6390
 0.3520	 9.6210
 0.3530	 9.5420
 0.3540	 9.4110
 0.3550	 9.3690
 0.3560	 9.3360
 0.3570	 9.3390
 0.3580	 9.4310
 0.3590	 9.4500
 0.3600	 9.3660
 0.3610	 9.2540
 0.3620	 9.3000
 0.3630	 9.3280
 0.3640	 9.3080
 0.3650	 9.2620
 0.3660	 9.2380
 0.3670	 9.2090
 0.3680	 9.1770
 0.3690	 9.1660
 0.3700	 9.2140
 0.3710	 9.2510
 0.3720	 9.2390
 0.3730	 9.2070
 0.3740	 9.1830
 0.3750	 9.1790
 0.3760	 9.1900
 0.3770	 9.1580
 0.3780	 9.1600
 0.3790	 9.1860
 0.3800	 9.1640
 0.3810	 9.1820
 0.3820	 9.1900
 0.3830	 9.1610
 0.3840	 9.1640
 0.3850	 9.1800
 0.3860	 9.1930
 0.3870	 9.1970
 0.3880	 9.2320
 0.3890	 9.2740
 0.3900	 9.2860
 0.3910	 9.2300
 0.3920	 9.2550
 0.3930	 9.2920
 0.3940	 9.2810
 0.3950	 9.3180
 0.3960	 9.3270
 0.3970	 9.3160
 0.3980	 9.3240
 0.3990	 9.3070
 0.4000	 9.3070
 0.4010	 9.3280
 0.4020	 9.3240
 0.4030	 9.3320
 0.4040	 9.3570
 0.4050	 9.3900
 0.4060	 9.4020
 0.4070	 9.4000
 0.4080	 9.3980
 0.4090	 9.4100
 0.4100	 9.4500
 0.4110	 9.4700
 0.4120	 9.4560
 0.4130	 9.4690
 0.4140	 9.4800
 0.4150	 9.4920
 0.4160	 9.5110
 0.4170	 9.5050
 0.4180	 9.4990
 0.4190	 9.5020
 0.4200	 9.5050
 0.4210	 9.5110
 0.4220	 9.5090
 0.4230	 9.4960
 0.4240	 9.4960
 0.4250	 9.5010
 0.4260	 9.5050
 0.4270	 9.5080
 0.4280	 9.4940
 0.4290	 9.4740
 0.4300	 9.4580
 0.4310	 9.4480
 0.4320	 9.4280
 0.4330	 9.4000
 0.4340	 9.3750
 0.4350	 9.3520
 0.4360	 9.3480
 0.4370	 9.3610
 0.4380	 9.3780
 0.4390	 9.4010
 0.4400	 9.4340
 0.4410	 9.4690
 0.4420	 9.4800
 0.4430	 9.4860
 0.4440	 9.4920
 0.4450	 9.4940
 0.4460	 9.4960
 0.4470	 9.5010
 0.4480	 9.5070
 0.4490	 9.5100
 0.4500	 9.5130
 0.4510	 9.5210
 0.4520	 9.5330
 0.4530	 9.5350
 0.4540	 9.5400
 0.4550	 9.5420
 0.4560	 9.5320
 0.4570	 9.5310
 0.4580	 9.5410
 0.4590	 9.5500
 0.4600	 9.5430
 0.4610	 9.5440
 0.4620	 9.5470
 0.4630	 9.5430
 0.4640	 9.5440
 0.4650	 9.5470
 0.4660	 9.5470
 0.4670	 9.5410
 0.4680	 9.5500
 0.4690	 9.5570
 0.4700	 9.5480
 0.4710	 9.5500
 0.4720	 9.5560
 0.4730	 9.5630
 0.4740	 9.5680
 0.4750	 9.5630
 0.4760	 9.5650
 0.4770	 9.5760
 0.4780	 9.5700
 0.4790	 9.5680
 0.4800	 9.5730
 0.4810	 9.5760
 0.4820	 9.5690
 0.4830	 9.5600
 0.4840	 9.5510
 0.4850	 9.5410
 0.4860	 9.5330
 0.4870	 9.5290
 0.4880	 9.5320
 0.4890	 9.5480
 0.4900	 9.5640
 0.4910	 9.5800
 0.4920	 9.5990
 0.4930	 9.6200
 0.4940	 9.6440
 0.4950	 9.6720
 0.4960	 9.7030
 0.4970	 9.7360
 0.4980	 9.7720
 0.4990	 9.8140
 0.5000	 9.8570
 0.5010	 9.9060
 0.5020	 9.9650
 0.5030	10.0400
 0.5040	10.1130
 0.5050	10.1880
 0.5060	10.2730
 0.5070	10.3800
 0.5080	10.4950
 0.5090	10.6200
 0.5100	10.7590
 0.5110	10.9090
 0.5120	11.0710
 0.5130	11.2480
 0.5140	11.4350
 0.5150	11.6370
 0.5160	11.8490
 0.5170	12.0660
 0.5180	12.2880
 0.5190	12.5190
 0.5200	12.7530
 0.5210	12.9780
 0.5220	13.2020
 0.5230	13.4180
 0.5240	13.6220
 0.5250	13.8160
 0.5260	13.9960
 0.5270	14.1610
 0.5280	14.3100
 0.5290	14.4420
 0.5300	14.5600
 0.5310	14.6650
 0.5320	14.7510
 0.5330	14.8270
 0.5340	14.8900
 0.5350	14.9410
 0.5360	14.9830
 0.5370	15.0150
 0.5380	15.0320
 0.5390	15.0360
 0.5400	15.0200
 0.5410	14.9840
 0.5420	14.9400
 0.5430	14.9130
 0.5440	14.9120
 0.5450	14.9360
 0.5460	14.9810
 0.5470	15.0400
 0.5480	15.0910
 0.5490	15.1210
 0.5500	15.1290
 0.5510	15.1320
 0.5520	15.1310
 0.5530	15.1230
 0.5540	15.1110
 0.5550	15.0850
 0.5560	15.0440
 0.5570	14.9930
 0.5580	14.9260
 0.5590	14.8430
 0.5600	14.7470
 0.5610	14.6460
 0.5620	14.5350
 0.5630	14.4140
 0.5640	14.2840
 0.5650	14.1500
 0.5660	14.0120
 0.5670	13.8680
 0.5680	13.7170
 0.5690	13.5670
 0.5700	13.4220
 0.5710	13.2860
 0.5720	13.1510
 0.5730	13.0240
 0.5740	12.9080
 0.5750	12.8030
 0.5760	12.7130
 0.5770	12.6250
 0.5780	12.5310
 0.5790	12.4340
 0.5800	12.3450
 0.5810	12.2650
 0.5820	12.1940
 0.5830	12.1270
 0.5840	12.0730
 0.5850	12.0300
 0.5860	11.9820
 0.5870	11.9210
 0.5880	11.8600
 0.5890	11.8080
 0.5900	11.7700
 0.5910	11.7390
 0.5920	11.7110
 0.5930	11.6830
 0.5940	11.6590
 0.5950	11.6370
 0.5960	11.6140
 0.5970	11.5920
 0.5980	11.5650
 0.5990	11.5380
 0.6000	11.5170
 0.6010	11.4970
 0.6020	11.4730
 0.6030	11.4420
 0.6040	11.4070
 0.6050	11.3660
 0.6060	11.3200
 0.6070	11.2730
 0.6080	11.2200
 0.6090	11.1430
 0.6100	11.0350
 0.6110	10.9120
 0.6120	10.8660
 0.6130	10.8610
 0.6140	10.8570
 0.6150	10.8270
 0.6160	10.7960
 0.6170	10.7630
 0.6180	10.7220
 0.6190	10.6810
 0.6200	10.6410
 0.6210	10.6070
 0.6220	10.5830
 0.6230	10.5650
 0.6240	10.5470
 0.6250	10.5320
 0.6260	10.5200
 0.6270	10.5100
 0.6280	10.5000
 0.6290	10.4880
 0.6300	10.4710
 0.6310	10.4570
 0.6320	10.4500
 0.6330	10.4480
 0.6340	10.4330
 0.6350	10.4080
 0.6360	10.3780
 0.6370	10.3410
 0.6380	10.2980
 0.6390	10.2530
 0.6400	10.2050
 0.6410	10.1530
 0.6420	10.1000
 0.6430	10.0510
 0.6440	10.0040
 0.6450	 9.9570
 0.6460	 9.9140
 0.6470	 9.8750
 0.6480	 9.8380
 0.6490	 9.8040
 0.6500	 9.7750
 0.6510	 9.7570
 0.6520	 9.7440
 0.6530	 9.7320
 0.6540	 9.7190
 0.6550	 9.7120
 0.6560	 9.7050
 0.6570	 9.6970
 0.6580	 9.6880
 0.6590	 9.6800
 0.6600	 9.6720
 0.6610	 9.6640
 0.6620	 9.6540
 0.6630	 9.6460
 0.6640	 9.6400
 0.6650	 9.6390
 0.6660	 9.6390
 0.6670	 9.6400
 0.6680	 9.6440
 0.6690	 9.6520
 0.6700	 9.6640
 0.6710	 9.6800
 0.6720	 9.7010
 0.6730	 9.7220
 0.6740	 9.7450
 0.6750	 9.7730
 0.6760	 9.8070
 0.6770	 9.8410
 0.6780	 9.8760
 0.6790	 9.9170
 0.6800	 9.9620
 0.6810	10.0090
 0.6820	10.0570
 0.6830	10.1100
 0.6840	10.1700
 0.6850	10.2330
 0.6860	10.3010
 0.6870	10.3790
 0.6880	10.4780
 0.6890	10.6030
 0.6900	10.7590
 0.6910	10.9570
 0.6920	11.2070
 0.6930	11.5180
 0.6940	11.8970
 0.6950	12.3490
 0.6960	12.8750
 0.6970	13.4760
 0.6980	14.1490
 0.6990	14.8880
 0.7000	15.6900
 0.7010	16.5470
 0.7020	17.4510
 0.7030	18.3930
 0.7040	19.3670
 0.7050	20.3650
 0.7060	21.3800
 0.7070	22.4110
 0.7080	23.4520
 0.7090	24.4990
 0.7100	25.5550
 0.7110	26.6110
 0.7120	27.6640
 0.7130	28.7160
 0.7140	29.7590
 0.7150	30.7940
 0.7160	31.8160
 0.7170	32.8290
 0.7180	33.8250
 0.7190	34.8030
 0.7200	35.7670
 0.7210	36.7080
 0.7220	37.6250
 0.7230	38.5190
 0.7240	39.3880
 0.7250	40.2260
 0.7260	41.0320
 0.7270	41.8060
 0.7280	42.5470
 0.7290	43.2550
 0.7300	43.9300
 0.7310	44.5720
 0.7320	45.1840
 0.7330	45.7640
 0.7340	46.3120
 0.7350	46.8330
 0.7360	47.3240
 0.7370	47.7860
 0.7380	48.2200
 0.7390	48.6290
 0.7400	49.0110
 0.7410	49.3680
 0.7420	49.7010
 0.7430	50.0080
 0.7440	50.2970
 0.7450	50.5660
 0.7460	50.8100
 0.7470	51.0390
 0.7480	51.2500
 0.7490	51.4390
 0.7500	51.6090
 0.7510	51.7670
 0.7520	51.9130
 0.7530	52.0490
 0.7540	52.1730
 0.7550	52.2850
 0.7560	52.3840
 0.7570	52.4730
 0.7580	52.5520
 0.7590	52.6260
 0.7600	52.6960
 0.7610	52.7580
 0.7620	52.8170
 0.7630	52.8690
 0.7640	52.9160
 0.7650	52.9570
 0.7660	52.9940
 0.7670	53.0270
 0.7680	53.0580
 0.7690	53.0860
 0.7700	53.1110
 0.7710	53.1330
 0.7720	53.1520
 0.7730	53.1710
 0.7740	53.1890
 0.7750	53.2060
 0.7760	53.2180
 0.7770	53.2300
 0.7780	53.2430
 0.7790	53.2580
 0.7800	53.2710
 0.7810	53.2830
 0.7820	53.2940
 0.7830	53.3010
 0.7840	53.3120
 0.7850	53.3230
 0.7860	53.3290
 0.7870	53.3310
 0.7880	53.3370
 0.7890	53.3440
 0.7900	53.3460
 0.7910	53.3480
 0.7920	53.3480
 0.7930	53.3480
 0.7940	53.3470
 0.7950	53.3450
 0.7960	53.3420
 0.7970	53.3390
 0.7980	53.3340
 0.7990	53.3260
 0.8000	53.3180
 0.8010	53.3100
 0.8020	53.3040
 0.8030	53.2940
 0.8040	53.2820
 0.8050	53.2710
 0.8060	53.2600
 0.8070	53.2460
 0.8080	53.2300
 0.8090	53.2120
 0.8100	53.2000
 0.8110	53.1880
 0.8120	53.1720
 0.8130	53.1560
 0.8140	53.1400
 0.8150	53.1220
 0.8160	53.1030
 0.8170	53.0920
 0.8180	53.0780
 0.8190	53.0610
 0.8200	53.0450
 0.8210	53.0240
 0.8220	53.0040
 0.8230	52.9870
 0.8240	52.9710
 0.8250	52.9530
 0.8260	52.9320
 0.8270	52.9130
 0.8280	52.9010
 0.8290	52.8810
 0.8300	52.8590
 0.8310	52.8440
 0.8320	52.8280
 0.8330	52.8130
 0.8340	52.7990
 0.8350	52.7840
 0.8360	52.7710
 0.8370	52.7580
 0.8380	52.7460
 0.8390	52.7330
 0.8400	52.7240
 0.8410	52.7170
 0.8420	52.7110
 0.8430	52.7120
 0.8440	52.7060
 0.8450	52.6980
 0.8460	52.6920
 0.8470	52.6840
 0.8480	52.6820
 0.8490	52.6840
 0.8500	52.6800
 0.8510	52.6760
 0.8520	52.6750
 0.8530	52.6760
 0.8540	52.6760
 0.8550	52.6780
 0.8560	52.6810
 0.8570	52.6830
 0.8580	52.6830
 0.8590	52.6930
 0.8600	52.7050
 0.8610	52.7130
 0.8620	52.7190
 0.8630	52.7210
 0.8640	52.7250
 0.8650	52.7330
 0.8660	52.7470
 0.8670	52.7520
 0.8680	52.7560
 0.8690	52.7700
 0.8700	52.7800
 0.8710	52.7910
 0.8720	52.8040
 0.8730	52.8190
 0.8740	52.8330
 0.8750	52.8460
 0.8760	52.8560
 0.8770	52.8660
 0.8780	52.8800
 0.8790	52.8960
 0.8800	52.9140
 0.8810	52.9320
 0.8820	52.9490
 0.8830	52.9630
 0.8840	52.9760
 0.8850	52.9900
 0.8860	53.0030
 0.8870	53.0150
 0.8880	53.0300
 0.8890	53.0470
 0.8900	53.0640
 0.8910	53.0800
 0.8920	53.0950
 0.8930	53.1110
 0.8940	53.1240
 0.8950	53.1370
 0.8960	53.1570
 0.8970	53.1700
 0.8980	53.1820
 0.8990	53.1980
 0.9000	53.2130
 0.9010	53.2260
 0.9020	53.2400
 0.9030	53.2550
 0.9040	53.2710
 0.9050	53.2830
 0.9060	53.2900
 0.9070	53.2930
 0.9080	53.3080
 0.9090	53.3190
 0.9100	53.3270
 0.9110	53.3340
 0.9120	53.3410
 0.9130	53.3480
 0.9140	53.3570
 0.9150	53.3640
 0.9160	53.3630
 0.9170	53.3600
 0.9180	53.3600
 0.9190	53.3660
 0.9200	53.3770
 0.9210	53.3840
 0.9220	53.3800
 0.9230	53.3670
 0.9240	53.3590
 0.9250	53.3530
 0.9260	53.3480
 0.9270	53.3410
 0.9280	53.3230
 0.9290	53.3050
 0.9300	53.2930
 0.9310	53.2820
 0.9320	53.2650
 0.9330	53.2480
 0.9340	53.2330
 0.9350	53.2100
 0.9360	53.1830
 0.9370	53.1620
 0.9380	53.1470
 0.9390	53.1190
 0.9400	53.0960
 0.9410	53.0710
 0.9420	53.0370
 0.9430	53.0030
 0.9440	52.9700
 0.9450	52.9340
 0.9460	52.8910
 0.9470	52.8480
 0.9480	52.8050
 0.9490	52.7590
 0.9500	52.7070
 0.9510	52.6500
 0.9520	52.5960
 0.9530	52.5370
 0.9540	52.4700
 0.9550	52.4200
 0.9560	52.3650
 0.9570	52.3110
 0.9580	52.2670
 0.9590	52.2150
 0.9600	52.1620
 0.9610	52.1190
 0.9620	52.0890
 0.9630	52.0550
 0.9640	52.0300
 0.9650	52.0060
 0.9660	51.9740
 0.9670	51.9630
 0.9680	51.9500
 0.9690	51.9310
 0.9700	51.9150
 0.9710	51.9030
 0.9720	51.8930
 0.9730	51.8800
 0.9740	51.8620
 0.9750	51.8460
 0.9760	51.8460
 0.9770	51.8520
 0.9780	51.8520
 0.9790	51.8530
 0.9800	51.8500
 0.9810	51.8460
 0.9820	51.8480
 0.9830	51.8430
 0.9840	51.8480
 0.9850	51.8650
 0.9860	51.8820
 0.9870	51.8880
 0.9880	51.8920
 0.9890	51.9010
 0.9900	51.9180
 0.9910	51.9260
 0.9920	51.9340
 0.9930	51.9450
 0.9940	51.9570
 0.9950	51.9720
 0.9960	51.9860
 0.9970	51.9990
 0.9980	52.0110
 0.9990	52.0230
 1.0000	52.0360
 1.0010	53.4000
 1.0020	53.4130
 1.0030	53.4310
 1.0040	53.4430
 1.0050	53.4550
 1.0060	53.4720
 1.0070	53.4870
 1.0080	53.5010
 1.0090	53.5150
 1.0100	53.5290
 1.0110	53.5380
 1.0120	53.5520
 1.0130	53.5670
 1.0140	53.5830
 1.0150	53.6000
 1.0160	53.6160
 1.0170	53.6290
 1.0180	53.6440
 1.0190	53.6560
 1.0200	53.6680
 1.0210	53.6860
 1.0220	53.7030
 1.0230	53.7180
 1.0240	53.7320
 1.0250	53.7480
 1.0260	53.7640
 1.0270	53.7780
 1.0280	53.7940
 1.0290	53.8090
 1.0300	53.8210
 1.0310	53.8340
 1.0320	53.8500
 1.0330	53.8660
 1.0340	53.8810
 1.0350	53.8980
 1.0360	53.9170
 1.0370	53.9340
 1.0380	53.9470
 1.0390	53.9580
 1.0400	53.9680
 1.0410	53.9740
 1.0420	53.9850
 1.0430	53.9980
 1.0440	54.0090
 1.0450	54.0230
 1.0460	54.0340
 1.0470	54.0420
 1.0480	54.0510
 1.0490	54.0580
 1.0500	54.0670
 1.0510	54.0780
 1.0520	54.0890
 1.0530	54.0950
 1.0540	54.1000
 1.0550	54.1050
 1.0560	54.1050
 1.0570	54.1110
 1.0580	54.1240
 1.0590	54.1290
 1.0600	54.1320
 1.0610	54.1350
 1.0620	54.1330
 1.0630	54.1330
 1.0640	54.1350
 1.0650	54.1360
 1.0660	54.1360
 1.0670	54.1350
 1.0680	54.1340
 1.0690	54.1330
 1.0700	54.1320
 1.0710	54.1290
 1.0720	54.1270
 1.0730	54.1260
 1.0740	54.1240
 1.0750	54.1220
 1.0760	54.1180
 1.0770	54.1150
 1.0780	54.1110
 1.0790	54.1050
 1.0800	54.0990
 1.0810	54.0910
 1.0820	54.0860
 1.0830	54.0830
 1.0840	54.0790
 1.0850	54.0760
 1.0860	54.0730
 1.0870	54.0680
 1.0880	54.0620
 1.0890	54.0590
 1.0900	54.0570
 1.0910	54.0530
 1.0920	54.0510
 1.0930	54.0470
 1.0940	54.0400
 1.0950	54.0340
 1.0960	54.0280
 1.0970	54.0220
 1.0980	54.0170
 1.0990	54.0110
 1.1000	54.0050
 1.1010	53.9980
 1.1020	53.9900
 1.1030	53.9830
 1.1040	53.9760
 1.1050	53.9710
 1.1060	53.9650
 1.1070	53.9620
 1.1080	53.9560
 1.1090	53.9480
 1.1100	53.9410
 1.1110	53.9350
 1.1120	53.9270
 1.1130	53.9190
 1.1140	53.9110
 1.1150	53.9020
 1.1160	53.8900
 1.1170	53.8780
 1.1180	53.8630
 1.1190	53.8450
 1.1200	53.8240
 1.1210	53.8020
 1.1220	53.7800
 1.1230	53.7520
 1.1240	53.7220
 1.1250	53.6880
 1.1260	53.6540
 1.1270	53.6120
 1.1280	53.5680
 1.1290	53.5150
 1.1300	53.4570
 1.1310	53.3910
 1.1320	53.3180
 1.1330	53.2390
 1.1340	53.1530
 1.1350	53.0620
 1.1360	52.9650
 1.1370	52.8630
 1.1380	52.7560
 1.1390	52.6450
 1.1400	52.5290
 1.1410	52.4110
 1.1420	52.2900
 1.1430	52.1670
 1.1440	52.0440
 1.1450	51.9170
 1.1460	51.7950
 1.1470	51.6710
 1.1480	51.5560
 1.1490	51.4430
 1.1500	51.3400
 1.1510	51.2430
 1.1520	51.1530
 1.1530	51.0710
 1.1540	50.9960
 1.1550	50.9280
 1.1560	50.8670
 1.1570	50.8100
 1.1580	50.7610
 1.1590	50.7210
 1.1600	50.6840
 1.1610	50.6550
 1.1620	50.6300
 1.1630	50.6040
 1.1640	50.5830
 1.1650	50.5640
 1.1660	50.5490
 1.1670	50.5340
 1.1680	50.5230
 1.1690	50.5120
 1.1700	50.5030
 1.1710	50.4940
 1.1720	50.4870
 1.1730	50.4790
 1.1740	50.4700
 1.1750	50.4600
 1.1760	50.4520
 1.1770	50.4400
 1.1780	50.4290
 1.1790	50.4170
 1.1800	50.4030
 1.1810	50.3900
 1.1820	50.3760
 1.1830	50.3620
 1.1840	50.3470
 1.1850	50.3330
 1.1860	50.3190
 1.1870	50.3060
 1.1880	50.2930
 1.1890	50.2790
 1.1900	50.2670
 1.1910	50.2540
 1.1920	50.2440
 1.1930	50.2350
 1.1940	50.2270
 1.1950	50.2210
 1.1960	50.2130
 1.1970	50.2070
 1.1980	50.2050
 1.1990	50.2030
 1.2000	50.2020
 1.2010	50.2040
 1.2020	50.2070
 1.2030	50.2120
 1.2040	50.2200
 1.2050	50.2290
 1.2060	50.2370
 1.2070	50.2480
 1.2080	50.2610
 1.2090	50.2760
 1.2100	50.2920
 1.2110	50.3080
 1.2120	50.3260
 1.2130	50.3450
 1.2140	50.3630
 1.2150	50.3840
 1.2160	50.4070
 1.2170	50.4310
 1.2180	50.4560
 1.2190	50.4820
 1.2200	50.5080
 1.2210	50.5310
 1.2220	50.5570
 1.2230	50.5840
 1.2240	50.6090
 1.2250	50.6340
 1.2260	50.6590
 1.2270	50.6810
 1.2280	50.7040
 1.2290	50.7270
 1.2300	50.7450
 1.2310	50.7640
 1.2320	50.7860
 1.2330	50.8060
 1.2340	50.8250
 1.2350	50.8450
 1.2360	50.8630
 1.2370	50.8790
 1.2380	50.8940
 1.2390	50.9120
 1.2400	50.9250
 1.2410	50.9390
 1.2420	50.9520
 1.2430	50.9630
 1.2440	50.9770
 1.2450	50.9910
 1.2460	51.0040
 1.2470	51.0140
 1.2480	51.0230
 1.2490	51.0290
 1.2500	51.0340
 1.2510	51.0420
 1.2520	51.0520
 1.2530	51.0610
 1.2540	51.0670
 1.2550	51.0710
 1.2560	51.0710
 1.2570	51.0700
 1.2580	51.0710
 1.2590	51.0710
 1.2600	51.0710
 1.2610	51.0700
 1.2620	51.0680
 1.2630	51.0650
 1.2640	51.0610
 1.2650	51.0560
 1.2660	51.0530
 1.2670	51.0490
 1.2680	51.0440
 1.2690	51.0390
 1.2700	51.0350
 1.2710	51.0270
 1.2720	51.0200
 1.2730	51.0150
 1.2740	51.0050
 1.2750	50.9960
 1.2760	50.9860
 1.2770	50.9720
 1.2780	50.9570
 1.2790	50.9410
 1.2800	50.9230
 1.2810	50.9050
 1.2820	50.8860
 1.2830	50.8650
 1.2840	50.8400
 1.2850	50.8120
 1.2860	50.7810
 1.2870	50.7500
 1.2880	50.7160
 1.2890	50.6800
 1.2900	50.6420
 1.2910	50.6010
 1.2920	50.5570
 1.2930	50.5130
 1.2940	50.4660
 1.2950	50.4150
 1.2960	50.3590
 1.2970	50.3020
 1.2980	50.2430
 1.2990	50.1820
 1.3000	50.1210
 1.3010	50.0590
 1.3020	49.9940
 1.3030	49.9290
 1.3040	49.8610
 1.3050	49.7900
 1.3060	49.7160
 1.3070	49.6400
 1.3080	49.5630
 1.3090	49.4850
 1.3100	49.4040
 1.3110	49.3220
 1.3120	49.2360
 1.3130	49.1500
 1.3140	49.0630
 1.3150	48.9730
 1.3160	48.8820
 1.3170	48.7910
 1.3180	48.6960
 1.3190	48.5980
 1.3200	48.5000
 1.3210	48.3980
 1.3220	48.2950
 1.3230	48.1910
 1.3240	48.0840
 1.3250	47.9780
 1.3260	47.8700
 1.3270	47.7600
 1.3280	47.6500
 1.3290	47.5360
 1.3300	47.4230
 1.3310	47.3060
 1.3320	47.1870
 1.3330	47.0670
 1.3340	46.9450
 1.3350	46.8240
 1.3360	46.7040
 1.3370	46.5830
 1.3380	46.4640
 1.3390	46.3450
 1.3400	46.2240
 1.3410	46.1060
 1.3420	45.9870
 1.3430	45.8690
 1.3440	45.7530
 1.3450	45.6370
 1.3460	45.5200
 1.3470	45.4060
 1.3480	45.2910
 1.3490	45.1790
 1.3500	45.0690
 1.3510	44.9590
 1.3520	44.8480
 1.3530	44.7380
 1.3540	44.6270
 1.3550	44.5150
 1.3560	44.4030
 1.3570	44.2880
 1.3580	44.1730
 1.3590	44.0540
 1.3600	43.9320
 1.3610	43.8070
 1.3620	43.6770
 1.3630	43.5440
 1.3640	43.4040
 1.3650	43.2570
 1.3660	43.1030
 1.3670	42.9400
 1.3680	42.7680
 1.3690	42.5850
 1.3700	42.3900
 1.3710	42.1840
 1.3720	41.9630
 1.3730	41.7260
 1.3740	41.4750
 1.3750	41.2080
 1.3760	40.9200
 1.3770	40.6130
 1.3780	40.2820
 1.3790	39.9290
 1.3800	39.5560
 1.3810	39.1600
 1.3820	38.7470
 1.3830	38.3150
 1.3840	37.8680
 1.3850	37.4020
 1.3860	36.9250
 1.3870	36.4290
 1.3880	35.9290
 1.3890	35.4180
 1.3900	34.8980
 1.3910	34.3800
 1.3920	33.8580
 1.3930	33.3330
 1.3940	32.8120
 1.3950	32.2900
 1.3960	31.7750
 1.3970	31.2710
 1.3980	30.7760
 1.3990	30.3010
 1.4000	29.8390
 1.4010	29.3900
 1.4020	28.9620
 1.4030	28.5480
 1.4040	28.1530
 1.4050	27.7800
 1.4060	27.4270
 1.4070	27.0960
 1.4080	26.7850
 1.4090	26.4920
 1.4100	26.2190
 1.4110	25.9640
 1.4120	25.7280
 1.4130	25.5090
 1.4140	25.3060
 1.4150	25.1220
 1.4160	24.9540
 1.4170	24.7990
 1.4180	24.6580
 1.4190	24.5280
 1.4200	24.4090
 1.4210	24.3010
 1.4220	24.2040
 1.4230	24.1180
 1.4240	24.0400
 1.4250	23.9700
 1.4260	23.9080
 1.4270	23.8530
 1.4280	23.8040
 1.4290	23.7620
 1.4300	23.7270
 1.4310	23.6960
 1.4320	23.6730
 1.4330	23.6530
 1.4340	23.6380
 1.4350	23.6280
 1.4360	23.6220
 1.4370	23.6190
 1.4380	23.6200
 1.4390	23.6240
 1.4400	23.6310
 1.4410	23.6400
 1.4420	23.6520
 1.4430	23.6670
 1.4440	23.6830
 1.4450	23.7010
 1.4460	23.7200
 1.4470	23.7410
 1.4480	23.7630
 1.4490	23.7860
 1.4500	23.8110
 1.4510	23.8370
 1.4520	23.8640
 1.4530	23.8920
 1.4540	23.9210
 1.4550	23.9530
 1.4560	23.9850
 1.4570	24.0200
 1.4580	24.0580
 1.4590	24.0990
 1.4600	24.1440
 1.4610	24.1910
 1.4620	24.2430
 1.4630	24.2980
 1.4640	24.3580
 1.4650	24.4220
 1.4660	24.4900
 1.4670	24.5620
 1.4680	24.6400
 1.4690	24.7210
 1.4700	24.8060
 1.4710	24.8950
 1.4720	24.9880
 1.4730	25.0840
 1.4740	25.1850
 1.4750	25.2880
 1.4760	25.3940
 1.4770	25.5010
 1.4780	25.6100
 1.4790	25.7210
 1.4800	25.8340
 1.4810	25.9470
 1.4820	26.0630
 1.4830	26.1790
 1.4840	26.2970
 1.4850	26.4160
 1.4860	26.5340
 1.4870	26.6550
 1.4880	26.7760
 1.4890	26.8970
 1.4900	27.0180
 1.4910	27.1410
 1.4920	27.2640
 1.4930	27.3870
 1.4940	27.5110
 1.4950	27.6360
 1.4960	27.7590
 1.4970	27.8820
 1.4980	28.0050
 1.4990	28.1260
 1.5000	28.2490
 1.5010	28.3730
 1.5020	28.4970
 1.5030	28.6210
 1.5040	28.7450
 1.5050	28.8690
 1.5060	28.9920
 1.5070	29.1150
 1.5080	29.2380
 1.5090	29.3610
 1.5100	29.4820
 1.5110	29.6040
 1.5120	29.7250
 1.5130	29.8450
 1.5140	29.9630
 1.5150	30.0810
 1.5160	30.1990
 1.5170	30.3160
 1.5180	30.4320
 1.5190	30.5470
 1.5200	30.6620
 1.5210	30.7740
 1.5220	30.8870
 1.5230	31.0010
 1.5240	31.1120
 1.5250	31.2230
 1.5260	31.3340
 1.5270	31.4440
 1.5280	31.5530
 1.5290	31.6610
 1.5300	31.7680
 1.5310	31.8750
 1.5320	31.9800
 1.5330	32.0840
 1.5340	32.1870
 1.5350	32.2890
 1.5360	32.3920
 1.5370	32.4920
 1.5380	32.5930
 1.5390	32.6930
 1.5400	32.7910
 1.5410	32.8890
 1.5420	32.9880
 1.5430	33.0850
 1.5440	33.1800
 1.5450	33.2740
 1.5460	33.3670
 1.5470	33.4600
 1.5480	33.5530
 1.5490	33.6450
 1.5500	33.7370
 1.5510	33.8270
 1.5520	33.9160
 1.5530	34.0030
 1.5540	34.0890
 1.5550	34.1750
 1.5560	34.2600
 1.5570	34.3440
 1.5580	34.4280
 1.5590	34.5080
 1.5600	34.5900
 1.5610	34.6690
 1.5620	34.7460
 1.5630	34.8230
 1.5640	34.9000
 1.5650	34.9760
 1.5660	35.0510
 1.5670	35.1260
 1.5680	35.1990
 1.5690	35.2720
 1.5700	35.3450
 1.5710	35.4180
 1.5720	35.4910
 1.5730	35.5630
 1.5740	35.6340
 1.5750	35.7050
 1.5760	35.7760
 1.5770	35.8430
 1.5780	35.9110
 1.5790	35.9780
 1.5800	36.0430
 1.5810	36.1100
 1.5820	36.1750
 1.5830	36.2400
 1.5840	36.3040
 1.5850	36.3670
 1.5860	36.4300
 1.5870	36.4920
 1.5880	36.5550
 1.5890	36.6170
 1.5900	36.6790
 1.5910	36.7400
 1.5920	36.8000
 1.5930	36.8590
 1.5940	36.9180
 1.5950	36.9790
 1.5960	37.0380
 1.5970	37.0980
 1.5980	37.1570
 1.5990	37.2160
 1.6000	37.2740
 1.6010	37.3320
 1.6020	37.3900
 1.6030	37.4470
 1.6040	37.5030
 1.6050	37.5590
 1.6060	37.6140
 1.6070	37.6680
 1.6080	37.7210
 1.6090	37.7730
 1.6100	37.8240
 1.6110	37.8740
 1.6120	37.9230
 1.6130	37.9720
 1.6140	38.0210
 1.6150	38.0690
 1.6160	38.1160
 1.6170	38.1640
 1.6180	38.2090
 1.6190	38.2550
 1.6200	38.2990
 1.6210	38.3420
 1.6220	38.3850
 1.6230	38.4270
 1.6240	38.4690
 1.6250	38.5100
 1.6260	38.5510
 1.6270	38.5910
 1.6280	38.6270
 1.6290	38.6630
 1.6300	38.6960
 1.6310	38.7310
 1.6320	38.7670
 1.6330	38.8020
 1.6340	38.8380
 1.6350	38.8720
 1.6360	38.9040
 1.6370	38.9350
 1.6380	38.9660
 1.6390	38.9950
 1.6400	39.0220
 1.6410	39.0470
 1.6420	39.0690
 1.6430	39.0910
 1.6440	39.1100
 1.6450	39.1310
 1.6460	39.1500
 1.6470	39.1680
 1.6480	39.1840
 1.6490	39.1960
 1.6500	39.2080
 1.6510	39.2180
 1.6520	39.2260
 1.6530	39.2350
 1.6540	39.2450
 1.6550	39.2520
 1.6560	39.2560
 1.6570	39.2600
 1.6580	39.2620
 1.6590	39.2620
 1.6600	39.2630
 1.6610	39.2620
 1.6620	39.2600
 1.6630	39.2560
 1.6640	39.2520
 1.6650	39.2470
 1.6660	39.2420
 1.6670	39.2360
 1.6680	39.2290
 1.6690	39.2230
 1.6700	39.2150
 1.6710	39.2060
 1.6720	39.1980
 1.6730	39.1880
 1.6740	39.1750
 1.6750	39.1620
 1.6760	39.1470
 1.6770	39.1300
 1.6780	39.1120
 1.6790	39.0930
 1.6800	39.0710
 1.6810	39.0470
 1.6820	39.0220
 1.6830	38.9940
 1.6840	38.9640
 1.6850	38.9310
 1.6860	38.8940
 1.6870	38.8560
 1.6880	38.8170
 1.6890	38.7770
 1.6900	38.7370
 1.6910	38.6960
 1.6920	38.6540
 1.6930	38.6100
 1.6940	38.5660
 1.6950	38.5200
 1.6960	38.4720
 1.6970	38.4230
 1.6980	38.3730
 1.6990	38.3210
 1.7000	38.2680
 1.7010	38.2140
 1.7020	38.1600
 1.7030	38.1040
 1.7040	38.0480
 1.7050	37.9920
 1.7060	37.9360
 1.7070	37.8790
 1.7080	37.8240
 1.7090	37.7680
 1.7100	37.7130
 1.7110	37.6580
 1.7120	37.6060
 1.7130	37.5540
 1.7140	37.5020
 1.7150	37.4510
 1.7160	37.4000
 1.7170	37.3490
 1.7180	37.2990
 1.7190	37.2490
 1.7200	37.1990
 1.7210	37.1510
 1.7220	37.1010
 1.7230	37.0510
 1.7240	37.0020
 1.7250	36.9540
 1.7260	36.9080
 1.7270	36.8650
 1.7280	36.8230
 1.7290	36.7830
 1.7300	36.7440
 1.7310	36.7070
 1.7320	36.6750
 1.7330	36.6400
 1.7340	36.6100
 1.7350	36.5750
 1.7360	36.5350
 1.7370	36.4970
 1.7380	36.4590
 1.7390	36.4160
 1.7400	36.3740
 1.7410	36.3270
 1.7420	36.2740
 1.7430	36.2200
 1.7440	36.1640
 1.7450	36.1060
 1.7460	36.0440
 1.7470	35.9840
 1.7480	35.9210
 1.7490	35.8580
 1.7500	35.7950
 1.7510	35.7330
 1.7520	35.6690
 1.7530	35.6080
 1.7540	35.5480
 1.7550	35.4860
 1.7560	35.4240
 1.7570	35.3620
 1.7580	35.3040
 1.7590	35.2500
 1.7600	35.1980
 1.7610	35.1480
 1.7620	35.0980
 1.7630	35.0470
 1.7640	34.9990
 1.7650	34.9520
 1.7660	34.9090
 1.7670	34.8680
 1.7680	34.8280
 1.7690	34.7910
 1.7700	34.7530
 1.7710	34.7150
 1.7720	34.6780
 1.7730	34.6420
 1.7740	34.6080
 1.7750	34.5760
 1.7760	34.5440
 1.7770	34.5120
 1.7780	34.4830
 1.7790	34.4550
 1.7800	34.4280
 1.7810	34.4040
 1.7820	34.3800
 1.7830	34.3560
 1.7840	34.3350
 1.7850	34.3160
 1.7860	34.2990
 1.7870	34.2830
 1.7880	34.2690
 1.7890	34.2570
 1.7900	34.2470
 1.7910	34.2380
 1.7920	34.2310
 1.7930	34.2250
 1.7940	34.2190
 1.7950	34.2160
 1.7960	34.2140
 1.7970	34.2140
 1.7980	34.2170
 1.7990	34.2180
 1.8000	34.2200
 1.8010	34.2220
 1.8020	34.2240
 1.8030	34.2270
 1.8040	34.2320
 1.8050	34.2350
 1.8060	34.2360
 1.8070	34.2390
 1.8080	34.2430
 1.8090	34.2470
 1.8100	34.2530
 1.8110	34.2540
 1.8120	34.2580
 1.8130	34.2590
 1.8140	34.2590
 1.8150	34.2600
 1.8160	34.2570
 1.8170	34.2560
 1.8180	34.2580
 1.8190	34.2550
 1.8200	34.2530
 1.8210	34.2480
 1.8220	34.2440
 1.8230	34.2410
 1.8240	34.2350
 1.8250	34.2280
 1.8260	34.2200
 1.8270	34.2090
 1.8280	34.1950
 1.8290	34.1800
 1.8300	34.1630
 1.8310	34.0980
 1.8320	34.0690
 1.8330	34.0390
 1.8340	34.0060
 1.8350	33.9690
 1.8360	33.9260
 1.8370	33.8790
 1.8380	33.8310
 1.8390	33.7770
 1.8400	33.7200
 1.8410	33.6550
 1.8420	33.5870
 1.8430	33.5110
 1.8440	33.4280
 1.8450	33.3400
 1.8460	33.2460
 1.8470	33.1430
 1.8480	33.0310
 1.8490	32.9130
 1.8500	32.7830
 1.8510	32.6430
 1.8520	32.4910
 1.8530	32.3300
 1.8540	32.1540
 1.8550	31.9690
 1.8560	31.7750
 1.8570	31.5660
 1.8580	31.3420
 1.8590	31.1070
 1.8600	30.8580
 1.8610	30.5960
 1.8620	30.3200
 1.8630	30.0350
 1.8640	29.7310
 1.8650	29.4090
 1.8660	29.0720
 1.8670	28.7140
 1.8680	28.3420
 1.8690	27.9550
 1.8700	27.5490
 1.8710	27.1240
 1.8720	26.6940
 1.8730	26.2510
 1.8740	25.7970
 1.8750	25.3400
 1.8760	24.8710
 1.8770	24.3980
 1.8780	23.9270
 1.8790	23.4520
 1.8800	22.9830
 1.8810	22.5160
 1.8820	22.0470
 1.8830	21.5770
 1.8840	21.1120
 1.8850	20.6480
 1.8860	20.1930
 1.8870	19.7490
 1.8880	19.3120
 1.8890	18.8920
 1.8900	18.4870
 1.8910	18.1000
 1.8920	17.7240
 1.8930	17.3730
 1.8940	17.0380
 1.8950	16.7210
 1.8960	16.4240
 1.8970	16.1460
 1.8980	15.8900
 1.8990	15.6520
 1.9000	15.4320
 1.9010	15.2320
 1.9020	15.0460
 1.9030	14.8760
 1.9040	14.7230
 1.9050	14.5860
 1.9060	14.4620
 1.9070	14.3530
 1.9080	14.2560
 1.9090	14.1690
 1.9100	14.0930
 1.9110	14.0230
 1.9120	13.9610
 1.9130	13.9080
 1.9140	13.8630
 1.9150	13.8250
 1.9160	13.7920
 1.9170	13.7650
 1.9180	13.7400
 1.9190	13.7210
 1.9200	13.7060
 1.9210	13.6930
 1.9220	13.6850
 1.9230	13.6810
 1.9240	13.6800
 1.9250	13.6820
 1.9260	13.6890
 1.9270	13.6980
 1.9280	13.7070
 1.9290	13.7190
 1.9300	13.7350
 1.9310	13.7520
 1.9320	13.7710
 1.9330	13.7910
 1.9340	13.8110
 1.9350	13.8350
 1.9360	13.8620
 1.9370	13.8910
 1.9380	13.9250
 1.9390	13.9590
 1.9400	13.9930
 1.9410	14.0310
 1.9420	14.0670
 1.9430	14.1050
 1.9440	14.1440
 1.9450	14.1840
 1.9460	14.2270
 1.9470	14.2720
 1.9480	14.3180
 1.9490	14.3650
 1.9500	14.4130
 1.9510	14.4610
 1.9520	14.5120
 1.9530	14.5640
 1.9540	14.6160
 1.9550	14.6700
 1.9560	14.7250
 1.9570	14.7810
 1.9580	14.8380
 1.9590	14.8960
 1.9600	14.9540
 1.9610	15.0130
 1.9620	15.0740
 1.9630	15.1350
 1.9640	15.1970
 1.9650	15.2620
 1.9660	15.3270
 1.9670	15.3910
 1.9680	15.4570
 1.9690	15.5240
 1.9700	15.5920
 1.9710	15.6580
 1.9720	15.7260
 1.9730	15.7950
 1.9740	15.8640
 1.9750	15.9330
 1.9760	16.0060
 1.9770	16.0790
 1.9780	16.1510
 1.9790	16.2240
 1.9800	16.2970
 1.9810	16.3720
 1.9820	16.4480
 1.9830	16.5230
 1.9840	16.6000
 1.9850	16.6750
 1.9860	16.7500
 1.9870	16.8250
 1.9880	16.9010
 1.9890	16.9780
 1.9900	17.0550
 1.9910	17.1300
 1.9920	17.2070
 1.9930	17.2850
 1.9940	17.3630
 1.9950	17.4400
 1.9960	17.5190
 1.9970	17.6010
 1.9980	17.6790
 1.9990	17.7570
 2.0000	17.8340
 2.0010	17.9100
 2.0020	17.9850
 2.0030	18.0600
 2.0040	18.1370
 2.0050	18.2130
 2.0060	18.2900
 2.0070	18.3660
 2.0080	18.4430
 2.0090	18.5190
 2.0100	18.5940
 2.0110	18.6680
 2.0120	18.7410
 2.0130	18.8130
 2.0140	18.8850
 2.0150	18.9550
 2.0160	19.0280
 2.0170	19.1020
 2.0180	19.1750
 2.0190	19.2490
 2.0200	19.3200
 2.0210	19.3890
 2.0220	19.4570
 2.0230	19.5220
 2.0240	19.5880
 2.0250	19.6520
 2.0260	19.7170
 2.0270	19.7830
 2.0280	19.8480
 2.0290	19.9120
 2.0300	19.9770
 2.0310	20.0360
 2.0320	20.0920
 2.0330	20.1490
 2.0340	20.2030
 2.0350	20.2580
 2.0360	20.3140
 2.0370	20.3680
 2.0380	20.4210
 2.0390	20.4720
 2.0400	20.5220
 2.0410	20.5710
 2.0420	20.6180
 2.0430	20.6660
 2.0440	20.7130
 2.0450	20.7600
 2.0460	20.8080
 2.0470	20.8560
 2.0480	20.9040
 2.0490	20.9540
 2.0500	21.0000
 2.0510	21.0450
 2.0520	21.0910
 2.0530	21.1340
 2.0540	21.1790
 2.0550	21.2270
 2.0560	21.2740
 2.0570	21.3220
 2.0580	21.3690
 2.0590	21.4150
 2.0600	21.4600
 2.0610	21.5050
 2.0620	21.5500
 2.0630	21.5960
 2.0640	21.6420
 2.0650	21.6890
 2.0660	21.7360
 2.0670	21.7840
 2.0680	21.8340
 2.0690	21.8820
 2.0700	21.9340
 2.0710	21.9810
 2.0720	22.0250
 2.0730	22.0680
 2.0740	22.1140
 2.0750	22.1590
 2.0760	22.2050
 2.0770	22.2540
 2.0780	22.3000
 2.0790	22.3450
 2.0800	22.3910
 2.0810	22.4380
 2.0820	22.4840
 2.0830	22.5310
 2.0840	22.5770
 2.0850	22.6210
 2.0860	22.6670
 2.0870	22.7130
 2.0880	22.7580
 2.0890	22.8030
 2.0900	22.8500
 2.0910	22.8930
 2.0920	22.9330
 2.0930	22.9740
 2.0940	23.0150
 2.0950	23.0550
 2.0960	23.0950
 2.0970	23.1370
 2.0980	23.1790
 2.0990	23.2220
 2.1000	23.2680
 2.1010	23.3120
 2.1020	23.3560
 2.1030	23.3990
 2.1040	23.4410
 2.1050	23.4830
 2.1060	23.5240
 2.1070	23.5640
 2.1080	23.6060
 2.1090	23.6480
 2.1100	23.6910
 2.1110	23.7370
 2.1120	23.7800
 2.1130	23.8230
 2.1140	23.8650
 2.1150	23.9060
 2.1160	23.9460
 2.1170	23.9860
 2.1180	24.0240
 2.1190	24.0600
 2.1200	24.0980
 2.1210	24.1370
 2.1220	24.1760
 2.1230	24.2130
 2.1240	24.2520
 2.1250	24.2890
 2.1260	24.3240
 2.1270	24.3600
 2.1280	24.3980
 2.1290	24.4330
 2.1300	24.4670
 2.1310	24.5000
 2.1320	24.5290
 2.1330	24.5600
 2.1340	24.5900
 2.1350	24.6190
 2.1360	24.6490
 2.1370	24.6770
 2.1380	24.7070
 2.1390	24.7330
 2.1400	24.7570
 2.1410	24.7800
 2.1420	24.8040
 2.1430	24.8260
 2.1440	24.8500
 2.1450	24.8770
 2.1460	24.9010
 2.1470	24.9260
 2.1480	24.9490
 2.1490	24.9700
 2.1500	24.9920
 2.1510	25.0110
 2.1520	25.0310
 2.1530	25.0540
 2.1540	25.0740
 2.1550	25.0940
 2.1560	25.1130
 2.1570	25.1300
 2.1580	25.1460
 2.1590	25.1590
 2.1600	25.1750
 2.1610	25.1910
 2.1620	25.2060
 2.1630	25.2210
 2.1640	25.2390
 2.1650	25.2520
 2.1660	25.2600
 2.1670	25.2720
 2.1680	25.2820
 2.1690	25.2960
 2.1700	25.3150
 2.1710	25.3300
 2.1720	25.3440
 2.1730	25.3590
 2.1740	25.3740
 2.1750	25.3880
 2.1760	25.4030
 2.1770	25.4190
 2.1780	25.4370
 2.1790	25.4520
 2.1800	25.4640
 2.1810	25.4810
 2.1820	25.4980
 2.1830	25.5140
 2.1840	25.5330
 2.1850	25.5580
 2.1860	25.5760
 2.1870	25.5920
 2.1880	25.6070
 2.1890	25.6180
 2.1900	25.6320
 2.1910	25.6440
 2.1920	25.6610
 2.1930	25.6830
 2.1940	25.7010
 2.1950	25.7200
 2.1960	25.7370
 2.1970	25.7510
 2.1980	25.7640
 2.1990	25.7760
 2.2000	25.7880
 2.2010	25.7970
 2.2020	25.8090
 2.2030	25.8250
 2.2040	25.8390
 2.2050	25.8520
 2.2060	25.8660
 2.2070	25.8770
 2.2080	25.8830
 2.2090	25.8900
 2.2100	25.8950
 2.2110	25.9020
 2.2120	25.9090
 2.2130	25.9160
 2.2140	25.9240
 2.2150	25.9290
 2.2160	25.9320
 2.2170	25.9350
 2.2180	25.9360
 2.2190	25.9340
 2.2200	25.9310
 2.2210	25.9270
 2.2220	25.9200
 2.2230	25.9130
 2.2240	25.9060
 2.2250	25.8980
 2.2260	25.8880
 2.2270	25.8750
 2.2280	25.8630
 2.2290	25.8450
 2.2300	25.8200
 2.2310	25.7990
 2.2320	25.7780
 2.2330	25.7490
 2.2340	25.7200
 2.2350	25.6910
 2.2360	25.6570
 2.2370	25.6170
 2.2380	25.5780
 2.2390	25.5350
 2.2400	25.4940
 2.2410	25.4530
 2.2420	25.4100
 2.2430	25.3670
 2.2440	25.3220
 2.2450	25.2750
 2.2460	25.2260
 2.2470	25.1760
 2.2480	25.1220
 2.2490	25.0620
 2.2500	25.0030
 2.2510	24.9400
 2.2520	24.8780
 2.2530	24.8170
 2.2540	24.7520
 2.2550	24.6820
 2.2560	24.6140
 2.2570	24.5440
 2.2580	24.4740
 2.2590	24.4050
 2.2600	24.3360
 2.2610	24.2660
 2.2620	24.1960
 2.2630	24.1310
 2.2640	24.0640
 2.2650	23.9980
 2.2660	23.9350
 2.2670	23.8710
 2.2680	23.8070
 2.2690	23.7460
 2.2700	23.6840
 2.2710	23.6280
 2.2720	23.5750
 2.2730	23.5240
 2.2740	23.4800
 2.2750	23.4330
 2.2760	23.3840
 2.2770	23.3410
 2.2780	23.3000
 2.2790	23.2600
 2.2800	23.2250
 2.2810	23.1860
 2.2820	23.1430
 2.2830	23.1020
 2.2840	23.0620
 2.2850	23.0210
 2.2860	22.9800
 2.2870	22.9390
 2.2880	22.8950
 2.2890	22.8510
 2.2900	22.8050
 2.2910	22.7570
 2.2920	22.7080
 2.2930	22.6570
 2.2940	22.6040
 2.2950	22.5500
 2.2960	22.4930
 2.2970	22.4380
 2.2980	22.3810
 2.2990	22.3290
 2.3000	22.2790
 2.3010	22.2270
 2.3020	22.1800
 2.3030	22.1360
 2.3040	22.0950
 2.3050	22.0580
 2.3060	22.0210
 2.3070	21.9830
 2.3080	21.9480
 2.3090	21.9140
 2.3100	21.8870
 2.3110	21.8670
 2.3120	21.8500
 2.3130	21.8380
 2.3140	21.8250
 2.3150	21.8190
 2.3160	21.8080
 2.3170	21.7960
 2.3180	21.7820
 2.3190	21.7680
 2.3200	21.7490
 2.3210	21.7300
 2.3220	21.7050
 2.3230	21.6750
 2.3240	21.6450
 2.3250	21.6090
 2.3260	21.5760
 2.3270	21.5430
 2.3280	21.5090
 2.3290	21.4750
 2.3300	21.4400
 2.3310	21.4080
 2.3320	21.3670
 2.3330	21.3220
 2.3340	21.2750
 2.3350	21.2170
 2.3360	21.1690
 2.3370	21.1240
 2.3380	21.0810
 2.3390	21.0430
 2.3400	21.0000
 2.3410	20.9570
 2.3420	20.9130
 2.3430	20.8670
 2.3440	20.8210
 2.3450	20.7700
 2.3460	20.7240
 2.3470	20.6770
 2.3480	20.6380
 2.3490	20.6110
 2.3500	20.5790
 2.3510	20.5470
 2.3520	20.5170
 2.3530	20.4890
 2.3540	20.4590
 2.3550	20.4360
 2.3560	20.4150
 2.3570	20.3920
 2.3580	20.3660
 2.3590	20.3410
 2.3600	20.3150
 2.3610	20.2830
 2.3620	20.2550
 2.3630	20.2280
 2.3640	20.1940
 2.3650	20.1590
 2.3660	20.1190
 2.3670	20.0740
 2.3680	20.0350
 2.3690	20.0080
 2.3700	19.9800
 2.3710	19.9500
 2.3720	19.9180
 2.3730	19.8810
 2.3740	19.8420
 2.3750	19.8010
 2.3760	19.7580
 2.3770	19.7130
 2.3780	19.6660
 2.3790	19.6210
 2.3800	19.5820
 2.3810	19.5520
 2.3820	19.5210
 2.3830	19.4910
 2.3840	19.4620
 2.3850	19.4240
 2.3860	19.3770
 2.3870	19.3290
 2.3880	19.2880
 2.3890	19.2580
 2.3900	19.2200
 2.3910	19.1820
 2.3920	19.1420
 2.3930	19.0900
 2.3940	19.0510
 2.3950	19.0240
 2.3960	18.9920
 2.3970	18.9510
 2.3980	18.9070
 2.3990	18.8600
 2.4000	18.8190
 2.4010	18.7860
 2.4020	18.7460
 2.4030	18.7020
 2.4040	18.6490
 2.4050	18.5950
 2.4060	18.5550
 2.4070	18.5220
 2.4080	18.4890
 2.4090	18.4560
 2.4100	18.4210
 2.4110	18.3830
 2.4120	18.3400
 2.4130	18.2910
 2.4140	18.2410
 2.4150	18.1870
 2.4160	18.1420
 2.4170	18.1070
 2.4180	18.0640
 2.4190	18.0240
 2.4200	17.9830
 2.4210	17.9320
 2.4220	17.8970
 2.4230	17.8640
 2.4240	17.8210
 2.4250	17.7820
 2.4260	17.7350
 2.4270	17.6840
 2.4280	17.6340
 2.4290	17.5850
 2.4300	17.5410
 2.4310	17.4910
 2.4320	17.4400
 2.4330	17.3980
 2.4340	17.3470
 2.4350	17.3060
 2.4360	17.2730
 2.4370	17.2170
 2.4380	17.1770
 2.4390	17.1370
 2.4400	17.0840
 2.4410	17.0520
 2.4420	17.0170
 2.4430	16.9740
 2.4440	16.9360
 2.4450	16.8870
 2.4460	16.8320
 2.4470	16.7830
 2.4480	16.7320
 2.4490	16.6800
 2.4500	16.6390
 2.4510	16.5940
 2.4520	16.5430
 2.4530	16.4980
 2.4540	16.4500
 2.4550	16.3990
 2.4560	16.3610
 2.4570	16.3430
 2.4580	16.3240
 2.4590	16.2920
 2.4600	16.2670
 2.4610	16.2230
 2.4620	16.1690
 2.4630	16.1400
 2.4640	16.0920
 2.4650	16.0370
 2.4660	15.9980
 2.4670	15.9660
 2.4680	15.9490
 2.4690	15.9400
 2.4700	15.9130
 2.4710	15.8640
 2.4720	15.8240
 2.4730	15.7840
 2.4740	15.7470
 2.4750	15.7100
 2.4760	15.6750
 2.4770	15.6400
 2.4780	15.6130
 2.4790	15.5980
 2.4800	15.5730
 2.4810	15.5480
 2.4820	15.5360
 2.4830	15.5030
 2.4840	15.4870
 2.4850	15.4600
 2.4860	15.4110
 2.4870	15.3970
 2.4880	15.3630
 2.4890	15.3360
 2.4900	15.3400
 2.4910	15.3050
 2.4920	15.2510
 2.4930	15.2230
 2.4940	15.2310
 2.4950	15.2220
 2.4960	15.2410
 2.4970	15.2820
 2.4980	15.2360
 2.4990	15.2140
 2.5000	15.2280
