Name: Brachychiton rupestris
Type: vegetation
Class: Tree
Genus: Brachychiton
Species: rupestris
Sample No.: JPL085
Owner: JPL
Wavelength Range: TIR
Origin: 34.12475; - 118.1142; WGS84
Collection Date: 2/2/2016
Description: Samples were collected at the Huntington Garden in San Marino California as part of a JPL Subcontract studying HyTES imagery. Samples were taken to JPL and processed within 48 hours of collection. The same leaves were processed in the Nicolet and then measured using the ASD.
Measurement: Hemispherical reflectance
First Column: X
Second Column: Y
X Units: Wavelength (micrometer)
Y Units: Reflectance (percentage)
First X Value: 2.501
Last X Value: 15.387
Number of X Values: 1737
Additional Information: 

 2.5010	 3.9740
 2.5030	 3.9950
 2.5040	 4.0280
 2.5050	 3.9260
 2.5060	 3.9460
 2.5070	 3.9820
 2.5090	 3.9720
 2.5100	 3.8810
 2.5110	 3.8840
 2.5120	 3.9150
 2.5140	 3.9090
 2.5150	 3.8380
 2.5160	 3.8870
 2.5170	 3.9170
 2.5180	 3.8960
 2.5200	 3.8940
 2.5210	 3.9410
 2.5220	 3.8640
 2.5230	 3.8150
 2.5250	 3.8480
 2.5260	 3.9470
 2.5270	 3.9130
 2.5280	 3.8540
 2.5300	 3.8550
 2.5310	 3.9000
 2.5320	 3.8710
 2.5330	 3.8960
 2.5340	 3.8280
 2.5360	 3.8330
 2.5370	 3.8660
 2.5380	 3.9290
 2.5390	 3.8820
 2.5410	 3.8970
 2.5420	 3.8380
 2.5430	 3.8230
 2.5440	 3.8220
 2.5460	 3.8770
 2.5470	 3.9150
 2.5480	 3.9670
 2.5490	 3.9610
 2.5510	 3.9570
 2.5520	 3.8990
 2.5530	 3.9120
 2.5540	 3.9110
 2.5560	 3.9230
 2.5570	 3.8960
 2.5580	 3.9050
 2.5590	 3.8330
 2.5610	 3.8870
 2.5620	 3.9300
 2.5630	 3.9570
 2.5650	 3.9080
 2.5660	 3.8900
 2.5670	 3.8910
 2.5680	 3.8870
 2.5700	 3.8610
 2.5710	 3.9520
 2.5720	 3.9350
 2.5730	 3.9600
 2.5750	 3.9490
 2.5760	 3.9600
 2.5770	 3.9560
 2.5790	 3.9440
 2.5800	 3.9060
 2.5810	 3.9020
 2.5820	 3.8220
 2.5840	 3.8390
 2.5850	 3.9000
 2.5860	 3.9370
 2.5880	 3.8980
 2.5890	 3.8980
 2.5900	 3.8460
 2.5910	 3.8520
 2.5930	 3.8470
 2.5940	 3.8520
 2.5950	 3.7910
 2.5970	 3.7590
 2.5980	 3.7270
 2.5990	 3.7270
 2.6010	 3.7050
 2.6020	 3.6890
 2.6030	 3.6640
 2.6040	 3.6750
 2.6060	 3.6840
 2.6070	 3.7330
 2.6080	 3.7220
 2.6100	 3.6700
 2.6110	 3.6630
 2.6120	 3.6900
 2.6140	 3.6200
 2.6150	 3.6350
 2.6160	 3.6500
 2.6180	 3.6170
 2.6190	 3.5680
 2.6200	 3.6750
 2.6220	 3.6280
 2.6230	 3.5550
 2.6240	 3.4960
 2.6260	 3.4730
 2.6270	 3.4530
 2.6280	 3.4890
 2.6300	 3.4500
 2.6310	 3.4300
 2.6320	 3.4190
 2.6340	 3.4600
 2.6350	 3.4110
 2.6360	 3.4000
 2.6380	 3.3930
 2.6390	 3.3830
 2.6400	 3.3880
 2.6420	 3.4040
 2.6430	 3.3300
 2.6440	 3.3170
 2.6460	 3.2950
 2.6470	 3.2960
 2.6480	 3.2300
 2.6500	 3.2110
 2.6510	 3.1900
 2.6520	 3.1730
 2.6540	 3.1130
 2.6550	 3.1390
 2.6570	 3.1630
 2.6580	 3.2130
 2.6590	 3.1900
 2.6610	 3.2140
 2.6620	 3.2090
 2.6630	 3.2360
 2.6650	 3.2160
 2.6660	 3.1450
 2.6670	 3.1010
 2.6690	 3.0650
 2.6700	 3.0010
 2.6720	 3.0140
 2.6730	 3.0320
 2.6740	 3.0620
 2.6760	 3.0280
 2.6770	 2.9990
 2.6780	 2.9510
 2.6800	 2.9960
 2.6810	 3.0030
 2.6830	 3.0430
 2.6840	 3.0330
 2.6850	 3.0390
 2.6870	 3.0540
 2.6880	 3.0170
 2.6900	 2.9300
 2.6910	 2.9570
 2.6920	 2.9530
 2.6940	 2.9600
 2.6950	 2.9580
 2.6970	 2.9760
 2.6980	 2.8760
 2.6990	 2.8670
 2.7010	 2.9000
 2.7020	 2.9770
 2.7040	 2.8980
 2.7050	 2.8520
 2.7060	 2.8560
 2.7080	 2.8860
 2.7090	 2.8610
 2.7110	 2.9300
 2.7120	 2.9340
 2.7130	 2.9160
 2.7150	 2.8570
 2.7160	 2.8910
 2.7180	 2.9000
 2.7190	 2.9050
 2.7210	 2.8640
 2.7220	 2.9040
 2.7230	 2.8930
 2.7250	 2.8700
 2.7260	 2.7840
 2.7280	 2.7600
 2.7290	 2.7630
 2.7310	 2.8810
 2.7320	 2.9300
 2.7340	 2.9020
 2.7350	 2.8240
 2.7360	 2.8610
 2.7380	 2.8760
 2.7390	 2.8620
 2.7410	 2.8340
 2.7420	 2.9290
 2.7440	 2.8810
 2.7450	 2.8400
 2.7470	 2.8270
 2.7480	 2.8470
 2.7490	 2.7880
 2.7510	 2.8490
 2.7520	 2.8560
 2.7540	 2.8690
 2.7550	 2.8320
 2.7570	 2.8450
 2.7580	 2.8570
 2.7600	 2.8500
 2.7610	 2.8230
 2.7630	 2.8360
 2.7640	 2.7680
 2.7660	 2.8090
 2.7670	 2.8660
 2.7690	 2.9130
 2.7700	 2.8990
 2.7720	 2.8720
 2.7730	 2.8100
 2.7740	 2.8300
 2.7760	 2.8560
 2.7770	 2.9580
 2.7790	 2.9310
 2.7800	 2.8750
 2.7820	 2.8220
 2.7830	 2.8350
 2.7850	 2.8270
 2.7860	 2.8000
 2.7880	 2.7690
 2.7890	 2.8570
 2.7910	 2.8970
 2.7920	 2.9150
 2.7940	 2.8610
 2.7950	 2.8050
 2.7970	 2.7630
 2.7980	 2.8930
 2.8000	 2.8810
 2.8010	 2.8710
 2.8030	 2.8430
 2.8040	 2.8990
 2.8060	 2.8380
 2.8080	 2.7920
 2.8090	 2.7850
 2.8110	 2.8540
 2.8120	 2.8840
 2.8140	 2.9020
 2.8150	 2.8200
 2.8170	 2.7830
 2.8180	 2.7890
 2.8200	 2.8880
 2.8210	 2.9450
 2.8230	 2.9540
 2.8240	 2.8840
 2.8260	 2.8510
 2.8270	 2.8080
 2.8290	 2.8440
 2.8310	 2.8290
 2.8320	 2.8180
 2.8340	 2.7390
 2.8350	 2.7660
 2.8370	 2.7780
 2.8380	 2.8560
 2.8400	 2.8530
 2.8410	 2.8960
 2.8430	 2.8500
 2.8440	 2.8400
 2.8460	 2.8170
 2.8480	 2.7950
 2.8490	 2.7630
 2.8510	 2.8020
 2.8520	 2.8300
 2.8540	 2.9250
 2.8550	 2.8810
 2.8570	 2.8390
 2.8590	 2.8850
 2.8600	 2.9150
 2.8620	 2.8030
 2.8630	 2.8230
 2.8650	 2.7980
 2.8660	 2.7850
 2.8680	 2.7860
 2.8700	 2.8310
 2.8710	 2.8280
 2.8730	 2.8710
 2.8740	 2.8600
 2.8760	 2.7860
 2.8780	 2.7490
 2.8790	 2.8300
 2.8810	 2.8410
 2.8820	 2.8420
 2.8840	 2.8110
 2.8860	 2.8540
 2.8870	 2.8430
 2.8890	 2.8770
 2.8900	 2.8660
 2.8920	 2.8900
 2.8940	 2.8410
 2.8950	 2.9050
 2.8970	 2.8780
 2.8990	 2.8420
 2.9000	 2.8060
 2.9020	 2.7980
 2.9030	 2.8240
 2.9050	 2.8380
 2.9070	 2.7470
 2.9080	 2.8190
 2.9100	 2.9080
 2.9120	 2.9300
 2.9130	 2.8970
 2.9150	 2.9680
 2.9160	 2.9050
 2.9180	 2.8780
 2.9200	 2.8680
 2.9210	 2.8200
 2.9230	 2.7720
 2.9250	 2.8700
 2.9260	 2.8220
 2.9280	 2.8350
 2.9300	 2.8910
 2.9310	 2.9300
 2.9330	 2.9470
 2.9350	 3.0040
 2.9360	 2.9490
 2.9380	 2.9290
 2.9400	 2.8600
 2.9410	 2.8720
 2.9430	 2.8270
 2.9450	 2.8030
 2.9460	 2.7870
 2.9480	 2.8630
 2.9500	 2.8370
 2.9510	 2.8870
 2.9530	 2.8670
 2.9550	 2.8230
 2.9560	 2.8060
 2.9580	 2.8690
 2.9600	 2.8780
 2.9610	 2.8830
 2.9630	 2.8310
 2.9650	 2.8440
 2.9670	 2.8360
 2.9680	 2.8610
 2.9700	 2.8200
 2.9720	 2.8870
 2.9730	 2.8680
 2.9750	 2.8650
 2.9770	 2.8640
 2.9780	 2.8960
 2.9800	 2.8910
 2.9820	 2.9250
 2.9840	 2.9030
 2.9850	 2.9790
 2.9870	 3.0080
 2.9890	 3.0130
 2.9900	 2.9270
 2.9920	 2.9440
 2.9940	 2.9400
 2.9960	 2.9440
 2.9970	 2.9560
 2.9990	 2.9690
 3.0010	 2.8570
 3.0030	 2.8300
 3.0040	 2.8110
 3.0060	 2.8140
 3.0080	 2.8310
 3.0100	 2.9580
 3.0110	 2.9550
 3.0130	 2.8980
 3.0150	 2.8500
 3.0170	 2.8820
 3.0180	 2.8830
 3.0200	 2.9410
 3.0220	 2.9230
 3.0240	 2.9070
 3.0250	 2.8580
 3.0270	 2.8940
 3.0290	 2.8680
 3.0310	 2.8320
 3.0320	 2.7870
 3.0340	 2.8310
 3.0360	 2.8290
 3.0380	 2.9060
 3.0400	 2.9180
 3.0410	 2.8920
 3.0430	 2.8400
 3.0450	 2.8640
 3.0470	 2.8520
 3.0480	 2.9420
 3.0500	 2.9570
 3.0520	 2.9320
 3.0540	 2.8700
 3.0560	 2.9020
 3.0570	 2.8840
 3.0590	 2.8870
 3.0610	 2.8680
 3.0630	 2.8890
 3.0650	 2.8560
 3.0670	 2.8670
 3.0680	 2.8510
 3.0700	 2.8450
 3.0720	 2.8150
 3.0740	 2.8650
 3.0760	 2.8920
 3.0770	 2.8780
 3.0790	 2.8110
 3.0810	 2.8130
 3.0830	 2.7820
 3.0850	 2.8240
 3.0870	 2.8650
 3.0880	 2.9500
 3.0900	 2.9180
 3.0920	 2.8810
 3.0940	 2.8180
 3.0960	 2.8580
 3.0980	 2.8790
 3.1000	 2.9360
 3.1010	 2.8920
 3.1030	 2.8520
 3.1050	 2.8200
 3.1070	 2.8620
 3.1090	 2.9050
 3.1110	 2.9190
 3.1130	 2.8540
 3.1140	 2.8490
 3.1160	 2.8460
 3.1180	 2.8430
 3.1200	 2.7740
 3.1220	 2.7570
 3.1240	 2.7530
 3.1260	 2.8290
 3.1280	 2.8340
 3.1290	 2.8280
 3.1310	 2.8050
 3.1330	 2.8180
 3.1350	 2.8100
 3.1370	 2.8290
 3.1390	 2.8360
 3.1410	 2.8360
 3.1430	 2.8200
 3.1450	 2.8400
 3.1470	 2.8310
 3.1480	 2.8720
 3.1500	 2.8750
 3.1520	 2.8550
 3.1540	 2.8030
 3.1560	 2.8110
 3.1580	 2.7600
 3.1600	 2.7370
 3.1620	 2.7540
 3.1640	 2.8200
 3.1660	 2.8420
 3.1680	 2.8430
 3.1700	 2.7890
 3.1720	 2.8070
 3.1730	 2.7820
 3.1750	 2.7820
 3.1770	 2.7170
 3.1790	 2.7090
 3.1810	 2.7520
 3.1830	 2.7570
 3.1850	 2.7380
 3.1870	 2.8060
 3.1890	 2.7760
 3.1910	 2.7440
 3.1930	 2.6810
 3.1950	 2.6870
 3.1970	 2.7100
 3.1990	 2.7750
 3.2010	 2.7530
 3.2030	 2.7100
 3.2050	 2.6980
 3.2070	 2.7590
 3.2090	 2.7290
 3.2110	 2.7030
 3.2130	 2.6540
 3.2150	 2.6780
 3.2170	 2.7000
 3.2190	 2.7010
 3.2210	 2.6880
 3.2230	 2.7310
 3.2250	 2.7290
 3.2270	 2.7610
 3.2290	 2.7300
 3.2310	 2.7000
 3.2330	 2.6860
 3.2350	 2.7270
 3.2370	 2.7130
 3.2390	 2.7120
 3.2410	 2.6660
 3.2430	 2.6750
 3.2450	 2.6920
 3.2470	 2.7120
 3.2490	 2.6770
 3.2510	 2.6660
 3.2530	 2.6050
 3.2550	 2.6440
 3.2570	 2.6330
 3.2590	 2.6320
 3.2610	 2.6150
 3.2630	 2.6490
 3.2650	 2.6530
 3.2670	 2.6740
 3.2700	 2.6140
 3.2720	 2.5940
 3.2740	 2.5820
 3.2760	 2.6210
 3.2780	 2.6270
 3.2800	 2.6120
 3.2820	 2.6130
 3.2840	 2.6060
 3.2860	 2.5500
 3.2880	 2.5650
 3.2900	 2.5480
 3.2920	 2.5510
 3.2940	 2.5210
 3.2970	 2.5410
 3.2990	 2.5490
 3.3010	 2.5210
 3.3030	 2.4670
 3.3050	 2.5060
 3.3070	 2.4920
 3.3090	 2.4880
 3.3110	 2.4560
 3.3130	 2.4890
 3.3160	 2.4870
 3.3180	 2.4890
 3.3200	 2.5050
 3.3220	 2.5310
 3.3240	 2.4430
 3.3260	 2.4080
 3.3280	 2.3920
 3.3300	 2.4140
 3.3330	 2.4270
 3.3350	 2.4340
 3.3370	 2.3780
 3.3390	 2.3600
 3.3410	 2.3400
 3.3430	 2.3550
 3.3450	 2.3150
 3.3480	 2.2830
 3.3500	 2.2730
 3.3520	 2.2940
 3.3540	 2.2540
 3.3560	 2.2250
 3.3580	 2.2400
 3.3610	 2.2570
 3.3630	 2.2050
 3.3650	 2.1810
 3.3670	 2.1280
 3.3690	 2.1080
 3.3720	 2.0140
 3.3740	 1.9500
 3.3760	 1.9800
 3.3780	 2.0180
 3.3800	 1.9880
 3.3830	 2.0400
 3.3850	 2.0620
 3.3870	 2.0570
 3.3890	 2.0040
 3.3910	 2.0160
 3.3940	 1.9370
 3.3960	 1.8340
 3.3980	 1.7870
 3.4000	 1.7590
 3.4030	 1.6740
 3.4050	 1.6510
 3.4070	 1.6210
 3.4090	 1.6360
 3.4110	 1.6890
 3.4140	 1.7880
 3.4160	 1.9630
 3.4180	 2.3760
 3.4200	 2.9890
 3.4230	 3.8410
 3.4250	 4.9090
 3.4270	 6.0700
 3.4300	 6.8140
 3.4320	 6.7920
 3.4340	 6.1430
 3.4360	 5.4840
 3.4390	 4.9770
 3.4410	 4.6150
 3.4430	 4.3590
 3.4450	 4.1910
 3.4480	 4.0490
 3.4500	 4.0170
 3.4520	 3.9390
 3.4550	 3.8680
 3.4570	 3.8120
 3.4590	 3.8250
 3.4620	 3.7700
 3.4640	 3.7070
 3.4660	 3.6550
 3.4690	 3.6120
 3.4710	 3.5340
 3.4730	 3.4770
 3.4760	 3.4060
 3.4780	 3.3690
 3.4800	 3.2450
 3.4830	 3.1490
 3.4850	 3.0490
 3.4870	 2.9700
 3.4900	 2.8600
 3.4920	 2.7820
 3.4940	 2.6590
 3.4970	 2.5780
 3.4990	 2.4240
 3.5010	 2.2870
 3.5040	 2.3440
 3.5060	 2.9550
 3.5080	 4.3650
 3.5110	 5.8880
 3.5130	 6.3780
 3.5160	 5.9970
 3.5180	 5.4220
 3.5200	 5.0180
 3.5230	 4.7020
 3.5250	 4.4680
 3.5280	 4.3240
 3.5300	 4.2350
 3.5320	 4.1300
 3.5350	 4.0500
 3.5370	 3.9440
 3.5400	 3.8970
 3.5420	 3.8680
 3.5440	 3.8220
 3.5470	 3.7330
 3.5490	 3.7520
 3.5520	 3.7510
 3.5540	 3.7420
 3.5570	 3.6720
 3.5590	 3.6290
 3.5610	 3.6150
 3.5640	 3.5960
 3.5660	 3.5490
 3.5690	 3.5560
 3.5710	 3.5150
 3.5740	 3.5150
 3.5760	 3.5010
 3.5790	 3.4740
 3.5810	 3.4430
 3.5840	 3.4510
 3.5860	 3.4240
 3.5890	 3.4170
 3.5910	 3.4060
 3.5940	 3.4090
 3.5960	 3.4030
 3.5990	 3.3960
 3.6010	 3.3540
 3.6040	 3.3750
 3.6060	 3.4180
 3.6090	 3.4140
 3.6110	 3.3420
 3.6140	 3.3390
 3.6160	 3.3130
 3.6190	 3.3160
 3.6210	 3.3310
 3.6240	 3.3430
 3.6260	 3.3500
 3.6290	 3.3470
 3.6310	 3.2940
 3.6340	 3.2760
 3.6360	 3.2550
 3.6390	 3.2610
 3.6410	 3.2380
 3.6440	 3.2520
 3.6470	 3.2430
 3.6490	 3.2570
 3.6520	 3.2550
 3.6540	 3.2700
 3.6570	 3.2550
 3.6590	 3.2540
 3.6620	 3.2200
 3.6650	 3.2200
 3.6670	 3.2290
 3.6700	 3.2550
 3.6720	 3.2450
 3.6750	 3.2760
 3.6780	 3.2620
 3.6800	 3.2650
 3.6830	 3.2560
 3.6850	 3.2530
 3.6880	 3.2180
 3.6910	 3.2210
 3.6930	 3.2300
 3.6960	 3.2410
 3.6990	 3.2180
 3.7010	 3.2210
 3.7040	 3.1760
 3.7070	 3.1570
 3.7090	 3.1750
 3.7120	 3.2330
 3.7150	 3.2430
 3.7170	 3.2030
 3.7200	 3.1450
 3.7230	 3.1520
 3.7250	 3.1780
 3.7280	 3.2100
 3.7310	 3.1730
 3.7330	 3.1790
 3.7360	 3.1500
 3.7390	 3.1640
 3.7410	 3.1800
 3.7440	 3.1830
 3.7470	 3.1930
 3.7490	 3.1960
 3.7520	 3.1790
 3.7550	 3.1720
 3.7580	 3.1360
 3.7600	 3.1470
 3.7630	 3.1500
 3.7660	 3.2030
 3.7690	 3.1870
 3.7710	 3.1760
 3.7740	 3.1750
 3.7770	 3.2080
 3.7790	 3.2080
 3.7820	 3.2000
 3.7850	 3.1340
 3.7880	 3.1240
 3.7910	 3.1260
 3.7930	 3.1720
 3.7960	 3.1930
 3.7990	 3.1800
 3.8020	 3.1280
 3.8040	 3.1760
 3.8070	 3.1650
 3.8100	 3.1200
 3.8130	 3.1240
 3.8160	 3.1600
 3.8180	 3.1430
 3.8210	 3.1490
 3.8240	 3.1670
 3.8270	 3.1860
 3.8300	 3.1510
 3.8330	 3.1410
 3.8350	 3.1590
 3.8380	 3.1850
 3.8410	 3.1730
 3.8440	 3.2050
 3.8470	 3.2020
 3.8500	 3.1730
 3.8520	 3.1380
 3.8550	 3.1280
 3.8580	 3.1450
 3.8610	 3.1530
 3.8640	 3.1660
 3.8670	 3.2070
 3.8700	 3.2090
 3.8730	 3.2080
 3.8760	 3.1580
 3.8780	 3.1410
 3.8810	 3.1410
 3.8840	 3.1690
 3.8870	 3.1560
 3.8900	 3.1670
 3.8930	 3.1630
 3.8960	 3.1630
 3.8990	 3.1510
 3.9020	 3.1460
 3.9050	 3.1230
 3.9080	 3.1450
 3.9110	 3.1530
 3.9140	 3.1690
 3.9170	 3.1520
 3.9190	 3.1160
 3.9220	 3.0890
 3.9250	 3.1090
 3.9280	 3.0990
 3.9310	 3.1190
 3.9340	 3.1390
 3.9370	 3.1300
 3.9400	 3.1310
 3.9430	 3.1380
 3.9460	 3.1100
 3.9490	 3.1470
 3.9520	 3.1720
 3.9550	 3.1790
 3.9580	 3.1480
 3.9610	 3.1420
 3.9640	 3.1430
 3.9670	 3.1380
 3.9700	 3.1350
 3.9740	 3.1260
 3.9770	 3.1070
 3.9800	 3.1390
 3.9830	 3.1310
 3.9860	 3.1260
 3.9890	 3.1080
 3.9920	 3.1010
 3.9950	 3.1180
 3.9980	 3.1330
 4.0010	 3.1010
 4.0040	 3.0860
 4.0070	 3.0540
 4.0100	 3.0710
 4.0140	 3.0870
 4.0170	 3.0950
 4.0200	 3.1070
 4.0230	 3.1390
 4.0260	 3.1390
 4.0290	 3.1260
 4.0320	 3.1100
 4.0350	 3.1230
 4.0390	 3.1220
 4.0420	 3.1190
 4.0450	 3.1170
 4.0480	 3.0950
 4.0510	 3.0860
 4.0540	 3.1200
 4.0570	 3.1170
 4.0610	 3.0930
 4.0640	 3.1000
 4.0670	 3.0990
 4.0700	 3.0820
 4.0730	 3.1230
 4.0770	 3.1350
 4.0800	 3.1200
 4.0830	 3.0880
 4.0860	 3.0930
 4.0890	 3.1130
 4.0930	 3.1310
 4.0960	 3.1010
 4.0990	 3.1030
 4.1020	 3.1030
 4.1060	 3.0940
 4.1090	 3.0750
 4.1120	 3.0780
 4.1150	 3.0890
 4.1190	 3.0850
 4.1220	 3.0770
 4.1250	 3.1240
 4.1290	 3.1430
 4.1320	 3.0720
 4.1350	 3.0270
 4.1380	 3.0620
 4.1420	 3.0840
 4.1450	 3.1150
 4.1480	 3.1140
 4.1520	 3.0780
 4.1550	 3.0570
 4.1580	 3.0760
 4.1620	 3.0800
 4.1650	 3.0840
 4.1680	 3.0630
 4.1720	 3.0500
 4.1750	 3.0720
 4.1780	 3.0980
 4.1820	 3.0310
 4.1850	 3.0070
 4.1890	 3.0360
 4.1920	 3.0470
 4.1950	 3.0710
 4.1990	 3.0630
 4.2020	 3.0560
 4.2060	 3.1010
 4.2090	 3.0840
 4.2120	 3.0540
 4.2160	 3.0370
 4.2190	 3.0930
 4.2230	 3.1550
 4.2260	 3.1800
 4.2300	 3.1120
 4.2330	 3.0680
 4.2360	 3.1080
 4.2400	 3.1020
 4.2430	 3.1020
 4.2470	 3.1630
 4.2500	 3.0720
 4.2540	 3.0390
 4.2570	 3.0600
 4.2610	 3.0980
 4.2640	 3.0430
 4.2680	 3.0480
 4.2710	 3.1100
 4.2750	 3.0650
 4.2780	 2.9850
 4.2820	 3.0590
 4.2850	 3.1170
 4.2890	 3.0830
 4.2930	 3.0530
 4.2960	 3.0850
 4.3000	 3.0810
 4.3030	 3.0640
 4.3070	 3.0510
 4.3100	 3.0530
 4.3140	 3.1060
 4.3180	 3.1210
 4.3210	 3.0820
 4.3250	 3.0710
 4.3280	 3.0440
 4.3320	 3.0180
 4.3360	 2.9670
 4.3390	 2.9730
 4.3430	 3.0410
 4.3470	 3.0720
 4.3500	 3.0250
 4.3540	 3.0260
 4.3580	 3.0180
 4.3610	 3.0050
 4.3650	 3.0030
 4.3690	 3.0130
 4.3720	 3.0120
 4.3760	 2.9890
 4.3800	 2.9590
 4.3830	 2.9730
 4.3870	 2.9960
 4.3910	 2.9860
 4.3940	 2.9620
 4.3980	 2.9800
 4.4020	 2.9670
 4.4060	 2.9340
 4.4090	 2.9450
 4.4130	 2.9350
 4.4170	 2.9360
 4.4210	 2.9640
 4.4240	 2.9670
 4.4280	 2.9880
 4.4320	 3.0070
 4.4360	 3.0040
 4.4400	 2.9730
 4.4430	 2.9610
 4.4470	 2.9650
 4.4510	 2.9630
 4.4550	 2.9610
 4.4590	 2.9820
 4.4630	 2.9680
 4.4660	 2.9480
 4.4700	 2.9430
 4.4740	 2.9830
 4.4780	 2.9930
 4.4820	 2.9630
 4.4860	 2.9370
 4.4900	 2.9510
 4.4930	 2.9830
 4.4970	 2.9820
 4.5010	 2.9480
 4.5050	 2.9050
 4.5090	 2.9190
 4.5130	 2.9480
 4.5170	 2.9300
 4.5210	 2.9190
 4.5250	 2.9280
 4.5290	 2.9210
 4.5330	 2.9220
 4.5370	 2.9220
 4.5410	 2.9110
 4.5450	 2.9330
 4.5490	 2.9570
 4.5530	 2.9270
 4.5570	 2.9160
 4.5610	 2.9660
 4.5650	 2.9990
 4.5690	 2.9620
 4.5730	 2.9280
 4.5770	 2.9290
 4.5810	 2.9310
 4.5850	 2.9150
 4.5890	 2.9250
 4.5930	 2.9450
 4.5970	 2.9410
 4.6010	 2.9600
 4.6050	 2.9870
 4.6090	 2.9870
 4.6130	 2.9750
 4.6170	 2.9720
 4.6220	 2.9740
 4.6260	 2.9530
 4.6300	 2.9340
 4.6340	 2.9340
 4.6380	 2.9120
 4.6420	 2.8840
 4.6460	 2.9030
 4.6510	 2.9270
 4.6550	 2.9420
 4.6590	 2.9200
 4.6630	 2.8900
 4.6670	 2.9240
 4.6720	 2.9560
 4.6760	 2.9220
 4.6800	 2.9160
 4.6840	 2.9130
 4.6880	 2.8830
 4.6930	 2.8890
 4.6970	 2.9450
 4.7010	 2.9480
 4.7050	 2.9290
 4.7100	 2.9100
 4.7140	 2.9280
 4.7180	 2.9370
 4.7230	 2.9380
 4.7270	 2.9560
 4.7310	 2.9630
 4.7360	 2.9530
 4.7400	 2.9200
 4.7440	 2.8940
 4.7490	 2.9080
 4.7530	 2.9080
 4.7570	 2.9010
 4.7620	 2.9030
 4.7660	 2.9290
 4.7700	 2.9290
 4.7750	 2.9180
 4.7790	 2.9030
 4.7840	 2.9140
 4.7880	 2.9420
 4.7920	 2.9300
 4.7970	 2.9000
 4.8010	 2.9410
 4.8060	 2.9620
 4.8100	 2.9280
 4.8150	 2.9210
 4.8190	 2.9280
 4.8240	 2.9210
 4.8280	 2.9400
 4.8330	 2.9330
 4.8370	 2.9260
 4.8420	 2.9220
 4.8460	 2.9430
 4.8510	 2.9470
 4.8550	 2.9180
 4.8600	 2.8840
 4.8640	 2.8920
 4.8690	 2.9020
 4.8740	 2.9260
 4.8780	 2.9170
 4.8830	 2.9060
 4.8870	 2.9340
 4.8920	 2.9480
 4.8970	 2.9340
 4.9010	 2.9030
 4.9060	 2.9030
 4.9100	 2.9100
 4.9150	 2.8630
 4.9200	 2.8900
 4.9240	 2.9320
 4.9290	 2.9250
 4.9340	 2.8840
 4.9390	 2.8900
 4.9430	 2.9050
 4.9480	 2.9360
 4.9530	 2.9180
 4.9570	 2.9240
 4.9620	 2.9400
 4.9670	 2.9390
 4.9720	 2.9410
 4.9760	 2.9560
 4.9810	 2.9450
 4.9860	 2.9150
 4.9910	 2.8950
 4.9960	 2.8860
 5.0000	 2.8720
 5.0050	 2.8860
 5.0100	 2.9050
 5.0150	 2.8980
 5.0200	 2.8910
 5.0250	 2.9400
 5.0300	 2.9100
 5.0340	 2.8700
 5.0390	 2.8910
 5.0440	 2.8960
 5.0490	 2.9080
 5.0540	 2.9380
 5.0590	 2.9160
 5.0640	 2.8740
 5.0690	 2.8800
 5.0740	 2.9290
 5.0790	 2.9280
 5.0840	 2.9320
 5.0890	 2.9370
 5.0940	 2.9240
 5.0990	 2.9200
 5.1040	 2.9390
 5.1090	 2.9420
 5.1140	 2.9440
 5.1190	 2.9480
 5.1240	 2.9520
 5.1290	 2.9380
 5.1340	 2.9420
 5.1390	 2.9180
 5.1440	 2.8930
 5.1490	 2.8830
 5.1550	 2.9320
 5.1600	 2.9250
 5.1650	 2.9380
 5.1700	 2.9360
 5.1750	 2.9170
 5.1800	 2.9250
 5.1850	 2.9340
 5.1910	 2.8780
 5.1960	 2.8680
 5.2010	 2.8910
 5.2060	 2.9020
 5.2110	 2.9000
 5.2170	 2.9430
 5.2220	 2.9810
 5.2270	 2.9640
 5.2330	 2.9070
 5.2380	 2.9230
 5.2430	 2.9460
 5.2480	 2.9380
 5.2540	 2.9110
 5.2590	 2.9240
 5.2640	 2.8990
 5.2700	 2.8760
 5.2750	 2.9060
 5.2800	 2.9450
 5.2860	 2.8930
 5.2910	 2.8990
 5.2970	 2.9440
 5.3020	 2.9570
 5.3080	 2.9140
 5.3130	 2.9250
 5.3180	 2.9340
 5.3240	 2.9600
 5.3290	 2.9620
 5.3350	 2.9650
 5.3400	 2.9200
 5.3460	 2.9140
 5.3510	 2.9090
 5.3570	 2.8720
 5.3620	 2.8460
 5.3680	 2.8820
 5.3740	 2.8820
 5.3790	 2.9190
 5.3850	 2.9280
 5.3900	 2.9330
 5.3960	 2.9090
 5.4010	 2.9080
 5.4070	 2.9270
 5.4130	 2.9580
 5.4180	 2.9160
 5.4240	 2.8920
 5.4300	 2.8640
 5.4350	 2.8830
 5.4410	 2.9160
 5.4470	 2.9570
 5.4530	 2.9140
 5.4580	 2.9050
 5.4640	 2.8760
 5.4700	 2.8610
 5.4760	 2.8570
 5.4810	 2.9110
 5.4870	 2.8910
 5.4930	 2.8730
 5.4990	 2.8660
 5.5050	 2.9130
 5.5110	 2.9480
 5.5160	 2.9500
 5.5220	 2.8910
 5.5280	 2.8970
 5.5340	 2.8660
 5.5400	 2.8480
 5.5460	 2.8730
 5.5520	 2.8900
 5.5580	 2.8610
 5.5640	 2.8770
 5.5700	 2.8520
 5.5760	 2.8830
 5.5820	 2.8720
 5.5880	 2.8890
 5.5940	 2.8880
 5.6000	 2.8600
 5.6060	 2.8230
 5.6120	 2.8520
 5.6180	 2.8410
 5.6240	 2.8400
 5.6300	 2.8380
 5.6360	 2.8340
 5.6420	 2.7890
 5.6490	 2.8080
 5.6550	 2.8270
 5.6610	 2.8310
 5.6670	 2.8210
 5.6730	 2.8290
 5.6800	 2.7870
 5.6860	 2.7840
 5.6920	 2.7650
 5.6980	 2.8060
 5.7050	 2.7940
 5.7110	 2.7660
 5.7170	 2.7570
 5.7230	 2.7630
 5.7300	 2.6980
 5.7360	 2.6790
 5.7420	 2.6160
 5.7490	 2.5690
 5.7550	 2.5640
 5.7620	 2.5630
 5.7680	 2.5170
 5.7740	 2.5430
 5.7810	 2.5440
 5.7870	 2.5940
 5.7940	 2.5930
 5.8000	 2.6230
 5.8070	 2.6880
 5.8130	 2.7510
 5.8200	 2.7160
 5.8260	 2.7250
 5.8330	 2.7160
 5.8390	 2.7630
 5.8460	 2.7820
 5.8530	 2.8110
 5.8590	 2.8230
 5.8660	 2.9260
 5.8730	 2.9460
 5.8790	 2.9340
 5.8860	 2.9190
 5.8930	 2.9480
 5.8990	 2.9130
 5.9060	 2.9880
 5.9130	 3.0080
 5.9190	 3.0190
 5.9260	 3.0080
 5.9330	 3.0350
 5.9400	 3.0200
 5.9470	 3.0370
 5.9530	 3.0360
 5.9600	 3.0670
 5.9670	 3.0000
 5.9740	 3.0250
 5.9810	 3.0210
 5.9880	 3.0290
 5.9950	 3.0390
 6.0020	 3.0710
 6.0090	 3.0430
 6.0160	 3.0380
 6.0230	 3.0130
 6.0300	 3.0630
 6.0370	 3.0430
 6.0440	 3.0530
 6.0510	 3.0170
 6.0580	 3.0500
 6.0650	 3.0390
 6.0720	 3.0600
 6.0790	 3.0250
 6.0860	 3.0160
 6.0930	 2.9840
 6.1010	 3.0320
 6.1080	 2.9940
 6.1150	 3.0140
 6.1220	 3.0170
 6.1290	 3.0120
 6.1370	 3.0170
 6.1440	 3.0430
 6.1510	 3.0030
 6.1580	 3.0590
 6.1660	 3.0420
 6.1730	 3.0270
 6.1800	 3.0280
 6.1880	 3.0560
 6.1950	 3.0030
 6.2030	 3.0040
 6.2100	 3.0230
 6.2180	 3.0360
 6.2250	 3.0050
 6.2320	 3.0670
 6.2400	 3.0580
 6.2480	 3.0930
 6.2550	 3.0980
 6.2630	 3.0960
 6.2700	 3.0400
 6.2780	 3.0760
 6.2850	 3.0170
 6.2930	 2.9940
 6.3010	 2.9880
 6.3080	 3.0120
 6.3160	 2.9750
 6.3240	 3.0350
 6.3310	 3.0100
 6.3390	 3.0260
 6.3470	 3.0070
 6.3550	 3.0120
 6.3620	 2.9590
 6.3700	 3.0060
 6.3780	 2.9720
 6.3860	 2.9530
 6.3940	 2.8890
 6.4020	 2.9220
 6.4100	 2.9000
 6.4180	 2.9150
 6.4260	 2.8830
 6.4340	 2.9060
 6.4420	 2.8920
 6.4500	 2.9310
 6.4580	 2.9220
 6.4660	 2.9400
 6.4740	 2.8870
 6.4820	 2.9410
 6.4900	 2.9080
 6.4980	 2.8960
 6.5060	 2.9010
 6.5140	 2.9400
 6.5230	 2.8620
 6.5310	 2.8700
 6.5390	 2.8830
 6.5470	 2.9240
 6.5560	 2.8590
 6.5640	 2.8640
 6.5720	 2.8240
 6.5800	 2.8410
 6.5890	 2.7760
 6.5970	 2.7730
 6.6060	 2.7210
 6.6140	 2.7410
 6.6230	 2.7520
 6.6310	 2.7650
 6.6390	 2.7210
 6.6480	 2.7820
 6.6570	 2.7690
 6.6650	 2.7670
 6.6740	 2.6850
 6.6820	 2.7070
 6.6910	 2.6650
 6.7000	 2.6870
 6.7080	 2.6390
 6.7170	 2.6150
 6.7260	 2.5730
 6.7340	 2.5620
 6.7430	 2.4680
 6.7520	 2.4850
 6.7610	 2.4280
 6.7690	 2.3840
 6.7780	 2.4930
 6.7870	 3.1350
 6.7960	 3.4880
 6.8050	 3.2920
 6.8140	 2.9800
 6.8230	 2.8790
 6.8320	 3.1420
 6.8410	 3.7100
 6.8500	 3.6850
 6.8590	 3.4240
 6.8680	 3.2810
 6.8770	 3.2530
 6.8860	 3.1550
 6.8960	 3.1650
 6.9050	 3.1390
 6.9140	 3.1330
 6.9230	 3.0500
 6.9320	 3.0550
 6.9420	 2.9840
 6.9510	 2.9760
 6.9600	 2.9760
 6.9700	 3.0520
 6.9790	 3.0340
 6.9880	 3.0610
 6.9980	 3.0050
 7.0070	 3.0080
 7.0170	 2.9560
 7.0260	 2.9730
 7.0360	 2.9480
 7.0450	 2.9900
 7.0550	 2.9720
 7.0650	 3.0110
 7.0740	 2.9850
 7.0840	 3.0650
 7.0940	 3.0620
 7.1030	 3.0230
 7.1130	 2.9350
 7.1230	 2.9820
 7.1330	 3.0050
 7.1420	 3.0460
 7.1520	 2.9890
 7.1620	 3.0100
 7.1720	 2.9760
 7.1820	 3.0030
 7.1920	 2.9790
 7.2020	 3.0050
 7.2120	 2.9470
 7.2220	 2.9360
 7.2320	 2.8640
 7.2420	 2.9200
 7.2520	 2.9260
 7.2620	 2.9800
 7.2730	 2.9620
 7.2830	 2.9640
 7.2930	 2.8880
 7.3030	 2.9140
 7.3140	 2.9020
 7.3240	 2.9370
 7.3340	 2.9000
 7.3450	 2.9800
 7.3550	 2.9450
 7.3660	 2.9650
 7.3760	 2.9220
 7.3870	 2.9240
 7.3970	 2.8790
 7.4080	 2.9210
 7.4180	 2.8950
 7.4290	 2.9000
 7.4400	 2.8630
 7.4500	 2.9070
 7.4610	 2.8850
 7.4720	 2.9100
 7.4830	 2.8470
 7.4930	 2.8470
 7.5040	 2.8110
 7.5150	 2.9100
 7.5260	 2.9040
 7.5370	 2.9100
 7.5480	 2.8570
 7.5590	 2.8600
 7.5700	 2.8120
 7.5810	 2.8770
 7.5920	 2.8890
 7.6030	 2.8910
 7.6140	 2.7800
 7.6260	 2.8230
 7.6370	 2.8250
 7.6480	 2.8880
 7.6590	 2.8360
 7.6710	 2.8460
 7.6820	 2.7870
 7.6940	 2.8150
 7.7050	 2.8190
 7.7160	 2.8470
 7.7280	 2.7800
 7.7390	 2.8270
 7.7510	 2.8430
 7.7630	 2.8940
 7.7740	 2.8300
 7.7860	 2.8220
 7.7980	 2.7880
 7.8090	 2.8740
 7.8210	 2.8020
 7.8330	 2.7700
 7.8450	 2.7220
 7.8570	 2.7610
 7.8690	 2.7100
 7.8810	 2.7540
 7.8930	 2.7420
 7.9050	 2.7970
 7.9170	 2.7470
 7.9290	 2.7640
 7.9410	 2.6680
 7.9530	 2.7490
 7.9650	 2.7600
 7.9780	 2.7960
 7.9900	 2.7130
 8.0020	 2.7280
 8.0150	 2.6540
 8.0270	 2.6880
 8.0390	 2.6360
 8.0520	 2.6970
 8.0640	 2.6950
 8.0770	 2.7590
 8.0900	 2.6360
 8.1020	 2.6730
 8.1150	 2.6030
 8.1280	 2.6970
 8.1400	 2.6890
 8.1530	 2.7230
 8.1660	 2.6890
 8.1790	 2.6710
 8.1920	 2.5230
 8.2050	 2.6220
 8.2180	 2.5830
 8.2310	 2.6690
 8.2440	 2.6480
 8.2570	 2.6880
 8.2700	 2.6470
 8.2830	 2.7810
 8.2970	 2.7220
 8.3100	 2.7190
 8.3230	 2.6060
 8.3370	 2.6620
 8.3500	 2.5920
 8.3640	 2.6310
 8.3770	 2.5910
 8.3910	 2.6630
 8.4040	 2.6330
 8.4180	 2.6830
 8.4320	 2.5880
 8.4450	 2.6270
 8.4590	 2.5580
 8.4730	 2.6800
 8.4870	 2.6130
 8.5010	 2.6300
 8.5150	 2.6050
 8.5290	 2.7270
 8.5430	 2.6680
 8.5570	 2.7770
 8.5710	 2.7670
 8.5850	 2.8380
 8.5990	 2.7370
 8.6140	 2.8040
 8.6280	 2.7090
 8.6420	 2.8040
 8.6570	 2.8390
 8.6710	 2.9330
 8.6860	 2.8690
 8.7000	 2.9930
 8.7150	 3.0170
 8.7300	 3.0700
 8.7440	 2.9080
 8.7590	 2.9410
 8.7740	 2.8920
 8.7890	 3.0000
 8.8040	 2.9500
 8.8190	 3.0170
 8.8340	 3.0060
 8.8490	 3.0570
 8.8640	 2.9780
 8.8790	 3.0330
 8.8940	 2.9740
 8.9100	 3.1080
 8.9250	 2.9820
 8.9400	 3.0070
 8.9560	 2.9570
 8.9710	 3.0480
 8.9870	 2.9510
 9.0020	 3.0070
 9.0180	 2.9340
 9.0340	 3.0340
 9.0500	 2.9590
 9.0650	 3.0300
 9.0810	 2.9360
 9.0970	 3.0790
 9.1130	 3.0870
 9.1290	 3.1150
 9.1450	 2.9930
 9.1620	 3.1170
 9.1780	 3.0800
 9.1940	 3.1640
 9.2100	 3.0460
 9.2270	 3.1310
 9.2430	 3.0950
 9.2600	 3.2440
 9.2760	 3.1200
 9.2930	 3.1730
 9.3100	 3.1110
 9.3260	 3.1190
 9.3430	 2.9750
 9.3600	 3.0480
 9.3770	 2.9540
 9.3940	 3.0760
 9.4110	 3.0090
 9.4280	 3.1330
 9.4450	 3.0350
 9.4620	 3.0790
 9.4800	 2.9690
 9.4970	 3.0610
 9.5150	 3.0570
 9.5320	 3.1240
 9.5500	 2.9620
 9.5670	 3.0620
 9.5850	 2.9780
 9.6030	 3.0760
 9.6200	 2.9940
 9.6380	 3.0820
 9.6560	 3.0080
 9.6740	 3.1180
 9.6920	 3.0760
 9.7110	 3.1290
 9.7290	 2.9580
 9.7470	 3.0650
 9.7650	 3.0530
 9.7840	 3.0440
 9.8020	 2.9060
 9.8210	 2.9890
 9.8390	 2.8980
 9.8580	 2.9600
 9.8770	 2.9040
 9.8960	 2.9570
 9.9150	 2.8200
 9.9340	 2.9270
 9.9530	 2.8050
 9.9720	 2.8640
 9.9910	 2.8850
10.0100	 3.0060
10.0300	 2.8760
10.0490	 2.9150
10.0690	 2.8170
10.0880	 2.8520
10.1080	 2.8240
10.1280	 2.9730
10.1480	 2.8730
10.1670	 2.9310
10.1870	 2.8640
10.2070	 2.9380
10.2280	 2.8870
10.2480	 2.9030
10.2680	 2.8020
10.2890	 2.8930
10.3090	 2.8390
10.3300	 2.9620
10.3500	 2.9270
10.3710	 3.0160
10.3920	 2.9140
10.4120	 2.9810
10.4330	 2.8940
10.4540	 3.0000
10.4760	 2.9220
10.4970	 2.9520
10.5180	 2.8010
10.5390	 2.9250
10.5610	 2.8640
10.5820	 2.8970
10.6040	 2.8440
10.6260	 2.9600
10.6480	 2.8320
10.6700	 2.8950
10.6920	 2.8220
10.7140	 2.9600
10.7360	 2.9330
10.7580	 2.9970
10.7800	 2.8200
10.8030	 2.8960
10.8250	 2.8330
10.8480	 2.9210
10.8710	 2.7700
10.8940	 2.8710
10.9170	 2.8840
10.9400	 2.9450
10.9630	 2.8040
10.9860	 2.8670
11.0090	 2.7680
11.0330	 2.9310
11.0560	 2.8930
11.0800	 2.9900
11.1040	 2.8750
11.1270	 2.9030
11.1510	 2.7830
11.1750	 2.8910
11.2000	 2.8380
11.2240	 2.9350
11.2480	 2.8130
11.2730	 2.8740
11.2970	 2.7640
11.3220	 2.9070
11.3470	 2.7950
11.3720	 2.8570
11.3970	 2.7910
11.4220	 2.9550
11.4470	 2.8370
11.4720	 2.8770
11.4980	 2.7940
11.5230	 2.9100
11.5490	 2.7210
11.5750	 2.8640
11.6000	 2.8420
11.6260	 2.9650
11.6530	 2.7350
11.6790	 2.7970
11.7050	 2.7770
11.7320	 2.9660
11.7580	 2.8670
11.7850	 2.9680
11.8120	 2.8610
11.8390	 3.0230
11.8660	 2.9190
11.8930	 3.0170
11.9200	 2.8570
11.9480	 2.9250
11.9760	 2.8020
12.0030	 2.9460
12.0310	 2.8100
12.0590	 2.9660
12.0870	 2.8750
12.1150	 3.0090
12.1440	 2.9300
12.1720	 3.0350
12.2010	 2.8050
12.2300	 2.9340
12.2590	 2.8690
12.2880	 3.0540
12.3170	 2.9160
12.3460	 3.0110
12.3760	 2.9080
12.4050	 3.0100
12.4350	 2.8220
12.4650	 3.0130
12.4950	 2.8950
12.5250	 3.0170
12.5550	 2.8570
12.5860	 3.0820
12.6170	 3.0100
12.6470	 3.0860
12.6780	 2.8570
12.7090	 3.0610
12.7410	 2.9420
12.7720	 3.0340
12.8030	 2.9050
12.8350	 3.1400
12.8670	 2.9920
12.8990	 3.1050
12.9310	 2.9240
12.9640	 3.0040
12.9960	 2.8230
13.0290	 3.0470
13.0610	 2.9630
13.0940	 3.0450
13.1280	 2.8540
13.1610	 3.0540
13.1940	 2.9140
13.2280	 3.0420
13.2620	 2.8150
13.2960	 2.9830
13.3300	 2.8580
13.3640	 2.9930
13.3990	 2.8210
13.4340	 2.9270
13.4690	 2.6610
13.5040	 2.8700
13.5390	 2.7150
13.5740	 2.8010
13.6100	 2.5230
13.6460	 2.8410
13.6820	 3.0540
13.7180	 3.4680
13.7540	 3.1800
13.7910	 3.1640
13.8280	 2.8650
13.8650	 3.2800
13.9020	 3.6580
13.9390	 3.9790
13.9770	 3.4030
14.0150	 3.3180
14.0530	 2.9500
14.0910	 3.2110
14.1290	 2.9290
14.1680	 3.0060
14.2070	 2.8670
14.2460	 3.1780
14.2850	 2.9310
14.3240	 3.0930
14.3640	 2.8320
14.4040	 3.1150
14.4440	 2.7380
14.4840	 2.8810
14.5250	 2.6930
14.5660	 2.9320
14.6070	 2.6610
14.6480	 2.9580
14.6900	 2.8240
14.7310	 3.1900
14.7730	 2.8320
14.8150	 2.8350
14.8580	 2.3310
14.9010	 2.7420
14.9440	 2.4210
14.9870	 2.9560
15.0300	 2.6250
15.0740	 2.7810
15.1180	 2.3470
15.1620	 2.6930
15.2060	 2.2520
15.2510	 2.6310
15.2960	 2.2690
15.3410	 2.8780
15.3870	 2.6050
