Name: Bambusa beecheyana
Type: vegetation
Class: Tree
Genus: Bambusa
Species: beecheyana
Sample No.: JPL236
Owner: JPL
Wavelength Range: VSWIR
Origin: 34.12719; -118.11127; WGS84
Collection Date: 10/6/2016
Description: Samples were collected at the Huntington Garden in San Marino California as part of a JPL Subcontract studying HyTES imagery. Samples were taken to JPL and processed within 48 hours of collection. The same leaves were processed in the Nicolet and then measured using the ASD.
Measurement: Bidirectional reflectance
First Column: X
Second Column: Y
X Units: Wavelength (micrometer)
Y Units: Reflectance (percentage)
First X Value: 0.35
Last X Value: 2.5
Number of X Values: 2151
Additional Information: vegetation.tree.bambusa.beecheyana.vswir.jpl236.jpl.asd.ancillary.txt

 0.3500	 4.9810
 0.3510	 5.0850
 0.3520	 5.0480
 0.3530	 4.9990
 0.3540	 5.0500
 0.3550	 4.9850
 0.3560	 4.9150
 0.3570	 4.9090
 0.3580	 4.9820
 0.3590	 4.9170
 0.3600	 4.8780
 0.3610	 4.9280
 0.3620	 4.9440
 0.3630	 4.9720
 0.3640	 4.9780
 0.3650	 4.9300
 0.3660	 4.8350
 0.3670	 4.8530
 0.3680	 4.9410
 0.3690	 4.9300
 0.3700	 4.8980
 0.3710	 4.8620
 0.3720	 4.8300
 0.3730	 4.8070
 0.3740	 4.8530
 0.3750	 4.8920
 0.3760	 4.8470
 0.3770	 4.8580
 0.3780	 4.8040
 0.3790	 4.7390
 0.3800	 4.8470
 0.3810	 4.8840
 0.3820	 4.8520
 0.3830	 4.8060
 0.3840	 4.8250
 0.3850	 4.8350
 0.3860	 4.8410
 0.3870	 4.8610
 0.3880	 4.8010
 0.3890	 4.7840
 0.3900	 4.8380
 0.3910	 4.8760
 0.3920	 4.8350
 0.3930	 4.8040
 0.3940	 4.8400
 0.3950	 4.8210
 0.3960	 4.8450
 0.3970	 4.8830
 0.3980	 4.8650
 0.3990	 4.8810
 0.4000	 4.8970
 0.4010	 4.9000
 0.4020	 4.9230
 0.4030	 4.9050
 0.4040	 4.8840
 0.4050	 4.9010
 0.4060	 4.9310
 0.4070	 4.9490
 0.4080	 4.9450
 0.4090	 4.9280
 0.4100	 4.9440
 0.4110	 4.9750
 0.4120	 5.0030
 0.4130	 5.0150
 0.4140	 5.0020
 0.4150	 4.9880
 0.4160	 5.0020
 0.4170	 5.0480
 0.4180	 5.0590
 0.4190	 5.0360
 0.4200	 5.0390
 0.4210	 5.0480
 0.4220	 5.0660
 0.4230	 5.0890
 0.4240	 5.0940
 0.4250	 5.0970
 0.4260	 5.0980
 0.4270	 5.0900
 0.4280	 5.0820
 0.4290	 5.0930
 0.4300	 5.1150
 0.4310	 5.0990
 0.4320	 5.1000
 0.4330	 5.1140
 0.4340	 5.1190
 0.4350	 5.1100
 0.4360	 5.1140
 0.4370	 5.1250
 0.4380	 5.1140
 0.4390	 5.1280
 0.4400	 5.1420
 0.4410	 5.1380
 0.4420	 5.1370
 0.4430	 5.1400
 0.4440	 5.1460
 0.4450	 5.1530
 0.4460	 5.1700
 0.4470	 5.1760
 0.4480	 5.1680
 0.4490	 5.1730
 0.4500	 5.1790
 0.4510	 5.1800
 0.4520	 5.1780
 0.4530	 5.1940
 0.4540	 5.2040
 0.4550	 5.2030
 0.4560	 5.2020
 0.4570	 5.2020
 0.4580	 5.2060
 0.4590	 5.2100
 0.4600	 5.2110
 0.4610	 5.2080
 0.4620	 5.2070
 0.4630	 5.2120
 0.4640	 5.1940
 0.4650	 5.1980
 0.4660	 5.2170
 0.4670	 5.1980
 0.4680	 5.1930
 0.4690	 5.1990
 0.4700	 5.2020
 0.4710	 5.1960
 0.4720	 5.1970
 0.4730	 5.2020
 0.4740	 5.2000
 0.4750	 5.1990
 0.4760	 5.1980
 0.4770	 5.1970
 0.4780	 5.2000
 0.4790	 5.2020
 0.4800	 5.2050
 0.4810	 5.2090
 0.4820	 5.2040
 0.4830	 5.1950
 0.4840	 5.1910
 0.4850	 5.2000
 0.4860	 5.2000
 0.4870	 5.2020
 0.4880	 5.2160
 0.4890	 5.2150
 0.4900	 5.2170
 0.4910	 5.2250
 0.4920	 5.2370
 0.4930	 5.2410
 0.4940	 5.2500
 0.4950	 5.2690
 0.4960	 5.2860
 0.4970	 5.3020
 0.4980	 5.3240
 0.4990	 5.3530
 0.5000	 5.3790
 0.5010	 5.4070
 0.5020	 5.4400
 0.5030	 5.4820
 0.5040	 5.5220
 0.5050	 5.5670
 0.5060	 5.6250
 0.5070	 5.6930
 0.5080	 5.7570
 0.5090	 5.8280
 0.5100	 5.9230
 0.5110	 6.0190
 0.5120	 6.1220
 0.5130	 6.2380
 0.5140	 6.3690
 0.5150	 6.5090
 0.5160	 6.6610
 0.5170	 6.8240
 0.5180	 6.9940
 0.5190	 7.1750
 0.5200	 7.3670
 0.5210	 7.5650
 0.5220	 7.7690
 0.5230	 7.9720
 0.5240	 8.1730
 0.5250	 8.3700
 0.5260	 8.5580
 0.5270	 8.7390
 0.5280	 8.9130
 0.5290	 9.0740
 0.5300	 9.2210
 0.5310	 9.3530
 0.5320	 9.4750
 0.5330	 9.5860
 0.5340	 9.6850
 0.5350	 9.7690
 0.5360	 9.8420
 0.5370	 9.9090
 0.5380	 9.9660
 0.5390	10.0070
 0.5400	10.0530
 0.5410	10.0980
 0.5420	10.1360
 0.5430	10.1670
 0.5440	10.1950
 0.5450	10.2200
 0.5460	10.2430
 0.5470	10.2600
 0.5480	10.2750
 0.5490	10.2890
 0.5500	10.2990
 0.5510	10.2980
 0.5520	10.2890
 0.5530	10.2760
 0.5540	10.2470
 0.5550	10.2030
 0.5560	10.1480
 0.5570	10.0870
 0.5580	10.0110
 0.5590	 9.9240
 0.5600	 9.8320
 0.5610	 9.7340
 0.5620	 9.6280
 0.5630	 9.5160
 0.5640	 9.3990
 0.5650	 9.2730
 0.5660	 9.1430
 0.5670	 9.0110
 0.5680	 8.8790
 0.5690	 8.7420
 0.5700	 8.6020
 0.5710	 8.4650
 0.5720	 8.3320
 0.5730	 8.2040
 0.5740	 8.0820
 0.5750	 7.9710
 0.5760	 7.8700
 0.5770	 7.7780
 0.5780	 7.6930
 0.5790	 7.6110
 0.5800	 7.5340
 0.5810	 7.4600
 0.5820	 7.3890
 0.5830	 7.3240
 0.5840	 7.2640
 0.5850	 7.2080
 0.5860	 7.1530
 0.5870	 7.1020
 0.5880	 7.0540
 0.5890	 7.0110
 0.5900	 6.9760
 0.5910	 6.9430
 0.5920	 6.9120
 0.5930	 6.8870
 0.5940	 6.8620
 0.5950	 6.8390
 0.5960	 6.8180
 0.5970	 6.8000
 0.5980	 6.7780
 0.5990	 6.7560
 0.6000	 6.7360
 0.6010	 6.7120
 0.6020	 6.6860
 0.6030	 6.6560
 0.6040	 6.6180
 0.6050	 6.5830
 0.6060	 6.5460
 0.6070	 6.5010
 0.6080	 6.4570
 0.6090	 6.4070
 0.6100	 6.3520
 0.6110	 6.2950
 0.6120	 6.2480
 0.6130	 6.2040
 0.6140	 6.1570
 0.6150	 6.1100
 0.6160	 6.0640
 0.6170	 6.0220
 0.6180	 5.9860
 0.6190	 5.9520
 0.6200	 5.9190
 0.6210	 5.8900
 0.6220	 5.8650
 0.6230	 5.8440
 0.6240	 5.8250
 0.6250	 5.8100
 0.6260	 5.7940
 0.6270	 5.7850
 0.6280	 5.7790
 0.6290	 5.7710
 0.6300	 5.7610
 0.6310	 5.7510
 0.6320	 5.7410
 0.6330	 5.7300
 0.6340	 5.7150
 0.6350	 5.6970
 0.6360	 5.6740
 0.6370	 5.6430
 0.6380	 5.6120
 0.6390	 5.5820
 0.6400	 5.5480
 0.6410	 5.5150
 0.6420	 5.4810
 0.6430	 5.4450
 0.6440	 5.4110
 0.6450	 5.3780
 0.6460	 5.3450
 0.6470	 5.3140
 0.6480	 5.2910
 0.6490	 5.2700
 0.6500	 5.2500
 0.6510	 5.2350
 0.6520	 5.2190
 0.6530	 5.2070
 0.6540	 5.2000
 0.6550	 5.1890
 0.6560	 5.1760
 0.6570	 5.1630
 0.6580	 5.1490
 0.6590	 5.1360
 0.6600	 5.1220
 0.6610	 5.1090
 0.6620	 5.0980
 0.6630	 5.0870
 0.6640	 5.0810
 0.6650	 5.0790
 0.6660	 5.0810
 0.6670	 5.0870
 0.6680	 5.0950
 0.6690	 5.1070
 0.6700	 5.1250
 0.6710	 5.1460
 0.6720	 5.1680
 0.6730	 5.1970
 0.6740	 5.2280
 0.6750	 5.2620
 0.6760	 5.3010
 0.6770	 5.3370
 0.6780	 5.3800
 0.6790	 5.4290
 0.6800	 5.4780
 0.6810	 5.5320
 0.6820	 5.5870
 0.6830	 5.6380
 0.6840	 5.6870
 0.6850	 5.7410
 0.6860	 5.7940
 0.6870	 5.8420
 0.6880	 5.9020
 0.6890	 5.9740
 0.6900	 6.0620
 0.6910	 6.1770
 0.6920	 6.3290
 0.6930	 6.5240
 0.6940	 6.7680
 0.6950	 7.0700
 0.6960	 7.4310
 0.6970	 7.8520
 0.6980	 8.3340
 0.6990	 8.8740
 0.7000	 9.4610
 0.7010	10.0880
 0.7020	10.7520
 0.7030	11.4400
 0.7040	12.1440
 0.7050	12.8590
 0.7060	13.5840
 0.7070	14.3160
 0.7080	15.0520
 0.7090	15.7930
 0.7100	16.5390
 0.7110	17.2920
 0.7120	18.0530
 0.7130	18.8170
 0.7140	19.5910
 0.7150	20.3730
 0.7160	21.1630
 0.7170	21.9580
 0.7180	22.7550
 0.7190	23.5560
 0.7200	24.3620
 0.7210	25.1720
 0.7220	25.9790
 0.7230	26.7810
 0.7240	27.5770
 0.7250	28.3670
 0.7260	29.1480
 0.7270	29.9160
 0.7280	30.6660
 0.7290	31.4030
 0.7300	32.1230
 0.7310	32.8220
 0.7320	33.5020
 0.7330	34.1590
 0.7340	34.7900
 0.7350	35.3930
 0.7360	35.9730
 0.7370	36.5280
 0.7380	37.0550
 0.7390	37.5550
 0.7400	38.0260
 0.7410	38.4690
 0.7420	38.8820
 0.7430	39.2680
 0.7440	39.6260
 0.7450	39.9560
 0.7460	40.2590
 0.7470	40.5390
 0.7480	40.7960
 0.7490	41.0290
 0.7500	41.2420
 0.7510	41.4340
 0.7520	41.6070
 0.7530	41.7640
 0.7540	41.9050
 0.7550	42.0310
 0.7560	42.1450
 0.7570	42.2500
 0.7580	42.3440
 0.7590	42.4260
 0.7600	42.4990
 0.7610	42.5660
 0.7620	42.6210
 0.7630	42.6680
 0.7640	42.7110
 0.7650	42.7470
 0.7660	42.7790
 0.7670	42.8070
 0.7680	42.8290
 0.7690	42.8470
 0.7700	42.8620
 0.7710	42.8740
 0.7720	42.8860
 0.7730	42.8930
 0.7740	42.9000
 0.7750	42.9100
 0.7760	42.9160
 0.7770	42.9200
 0.7780	42.9230
 0.7790	42.9240
 0.7800	42.9290
 0.7810	42.9320
 0.7820	42.9340
 0.7830	42.9360
 0.7840	42.9390
 0.7850	42.9410
 0.7860	42.9390
 0.7870	42.9370
 0.7880	42.9360
 0.7890	42.9360
 0.7900	42.9340
 0.7910	42.9290
 0.7920	42.9230
 0.7930	42.9170
 0.7940	42.9140
 0.7950	42.9060
 0.7960	42.8990
 0.7970	42.8940
 0.7980	42.8860
 0.7990	42.8790
 0.8000	42.8690
 0.8010	42.8560
 0.8020	42.8430
 0.8030	42.8310
 0.8040	42.8190
 0.8050	42.8030
 0.8060	42.7890
 0.8070	42.7730
 0.8080	42.7560
 0.8090	42.7410
 0.8100	42.7250
 0.8110	42.7090
 0.8120	42.6920
 0.8130	42.6750
 0.8140	42.6550
 0.8150	42.6360
 0.8160	42.6180
 0.8170	42.6000
 0.8180	42.5790
 0.8190	42.5590
 0.8200	42.5420
 0.8210	42.5180
 0.8220	42.4960
 0.8230	42.4800
 0.8240	42.4610
 0.8250	42.4420
 0.8260	42.4190
 0.8270	42.3910
 0.8280	42.3720
 0.8290	42.3510
 0.8300	42.3310
 0.8310	42.3150
 0.8320	42.2960
 0.8330	42.2750
 0.8340	42.2530
 0.8350	42.2330
 0.8360	42.2150
 0.8370	42.1980
 0.8380	42.1810
 0.8390	42.1650
 0.8400	42.1520
 0.8410	42.1360
 0.8420	42.1180
 0.8430	42.1040
 0.8440	42.0910
 0.8450	42.0770
 0.8460	42.0640
 0.8470	42.0500
 0.8480	42.0380
 0.8490	42.0270
 0.8500	42.0160
 0.8510	42.0010
 0.8520	41.9920
 0.8530	41.9870
 0.8540	41.9770
 0.8550	41.9690
 0.8560	41.9600
 0.8570	41.9490
 0.8580	41.9420
 0.8590	41.9350
 0.8600	41.9310
 0.8610	41.9300
 0.8620	41.9270
 0.8630	41.9230
 0.8640	41.9170
 0.8650	41.9120
 0.8660	41.9110
 0.8670	41.9100
 0.8680	41.9070
 0.8690	41.9000
 0.8700	41.8970
 0.8710	41.8970
 0.8720	41.8980
 0.8730	41.8980
 0.8740	41.8970
 0.8750	41.8950
 0.8760	41.8950
 0.8770	41.8930
 0.8780	41.8990
 0.8790	41.9020
 0.8800	41.8990
 0.8810	41.9010
 0.8820	41.9040
 0.8830	41.9080
 0.8840	41.9100
 0.8850	41.9140
 0.8860	41.9150
 0.8870	41.9160
 0.8880	41.9170
 0.8890	41.9220
 0.8900	41.9200
 0.8910	41.9190
 0.8920	41.9280
 0.8930	41.9320
 0.8940	41.9340
 0.8950	41.9350
 0.8960	41.9360
 0.8970	41.9380
 0.8980	41.9430
 0.8990	41.9480
 0.9000	41.9480
 0.9010	41.9540
 0.9020	41.9580
 0.9030	41.9570
 0.9040	41.9570
 0.9050	41.9610
 0.9060	41.9650
 0.9070	41.9640
 0.9080	41.9640
 0.9090	41.9630
 0.9100	41.9660
 0.9110	41.9720
 0.9120	41.9710
 0.9130	41.9660
 0.9140	41.9600
 0.9150	41.9560
 0.9160	41.9600
 0.9170	41.9640
 0.9180	41.9620
 0.9190	41.9550
 0.9200	41.9560
 0.9210	41.9570
 0.9220	41.9540
 0.9230	41.9460
 0.9240	41.9400
 0.9250	41.9350
 0.9260	41.9340
 0.9270	41.9380
 0.9280	41.9220
 0.9290	41.9030
 0.9300	41.8920
 0.9310	41.8940
 0.9320	41.8820
 0.9330	41.8720
 0.9340	41.8660
 0.9350	41.8480
 0.9360	41.8390
 0.9370	41.8250
 0.9380	41.8070
 0.9390	41.8050
 0.9400	41.7970
 0.9410	41.7820
 0.9420	41.7650
 0.9430	41.7500
 0.9440	41.7340
 0.9450	41.7130
 0.9460	41.6920
 0.9470	41.6800
 0.9480	41.6530
 0.9490	41.6270
 0.9500	41.6150
 0.9510	41.5900
 0.9520	41.5680
 0.9530	41.5380
 0.9540	41.4980
 0.9550	41.4830
 0.9560	41.4600
 0.9570	41.4350
 0.9580	41.4190
 0.9590	41.3930
 0.9600	41.3580
 0.9610	41.3330
 0.9620	41.3300
 0.9630	41.3040
 0.9640	41.2840
 0.9650	41.2720
 0.9660	41.2600
 0.9670	41.2440
 0.9680	41.2260
 0.9690	41.2120
 0.9700	41.2070
 0.9710	41.1880
 0.9720	41.1740
 0.9730	41.1670
 0.9740	41.1600
 0.9750	41.1540
 0.9760	41.1460
 0.9770	41.1290
 0.9780	41.1070
 0.9790	41.1030
 0.9800	41.1040
 0.9810	41.1000
 0.9820	41.0860
 0.9830	41.0640
 0.9840	41.0640
 0.9850	41.0710
 0.9860	41.0560
 0.9870	41.0550
 0.9880	41.0540
 0.9890	41.0490
 0.9900	41.0440
 0.9910	41.0290
 0.9920	41.0210
 0.9930	41.0180
 0.9940	41.0130
 0.9950	41.0070
 0.9960	41.0010
 0.9970	41.0070
 0.9980	41.0290
 0.9990	41.0290
 1.0000	41.0100
 1.0010	41.2380
 1.0020	41.2360
 1.0030	41.2360
 1.0040	41.2350
 1.0050	41.2330
 1.0060	41.2350
 1.0070	41.2330
 1.0080	41.2300
 1.0090	41.2230
 1.0100	41.2210
 1.0110	41.2210
 1.0120	41.2200
 1.0130	41.2230
 1.0140	41.2230
 1.0150	41.2190
 1.0160	41.2170
 1.0170	41.2170
 1.0180	41.2170
 1.0190	41.2190
 1.0200	41.2210
 1.0210	41.2230
 1.0220	41.2250
 1.0230	41.2250
 1.0240	41.2210
 1.0250	41.2210
 1.0260	41.2220
 1.0270	41.2220
 1.0280	41.2240
 1.0290	41.2250
 1.0300	41.2230
 1.0310	41.2230
 1.0320	41.2210
 1.0330	41.2240
 1.0340	41.2250
 1.0350	41.2260
 1.0360	41.2290
 1.0370	41.2290
 1.0380	41.2310
 1.0390	41.2330
 1.0400	41.2350
 1.0410	41.2370
 1.0420	41.2380
 1.0430	41.2380
 1.0440	41.2380
 1.0450	41.2390
 1.0460	41.2380
 1.0470	41.2370
 1.0480	41.2360
 1.0490	41.2350
 1.0500	41.2330
 1.0510	41.2310
 1.0520	41.2290
 1.0530	41.2300
 1.0540	41.2320
 1.0550	41.2330
 1.0560	41.2350
 1.0570	41.2350
 1.0580	41.2320
 1.0590	41.2290
 1.0600	41.2260
 1.0610	41.2220
 1.0620	41.2140
 1.0630	41.2110
 1.0640	41.2120
 1.0650	41.2110
 1.0660	41.2150
 1.0670	41.2140
 1.0680	41.2130
 1.0690	41.2070
 1.0700	41.2050
 1.0710	41.2040
 1.0720	41.2020
 1.0730	41.2020
 1.0740	41.2000
 1.0750	41.1970
 1.0760	41.1930
 1.0770	41.1890
 1.0780	41.1850
 1.0790	41.1800
 1.0800	41.1770
 1.0810	41.1780
 1.0820	41.1740
 1.0830	41.1680
 1.0840	41.1630
 1.0850	41.1580
 1.0860	41.1520
 1.0870	41.1490
 1.0880	41.1490
 1.0890	41.1460
 1.0900	41.1400
 1.0910	41.1370
 1.0920	41.1310
 1.0930	41.1280
 1.0940	41.1290
 1.0950	41.1260
 1.0960	41.1200
 1.0970	41.1150
 1.0980	41.1070
 1.0990	41.1020
 1.1000	41.1010
 1.1010	41.0970
 1.1020	41.0910
 1.1030	41.0850
 1.1040	41.0790
 1.1050	41.0710
 1.1060	41.0660
 1.1070	41.0630
 1.1080	41.0570
 1.1090	41.0480
 1.1100	41.0430
 1.1110	41.0390
 1.1120	41.0340
 1.1130	41.0300
 1.1140	41.0240
 1.1150	41.0160
 1.1160	41.0090
 1.1170	41.0020
 1.1180	40.9950
 1.1190	40.9890
 1.1200	40.9790
 1.1210	40.9690
 1.1220	40.9570
 1.1230	40.9430
 1.1240	40.9290
 1.1250	40.9140
 1.1260	40.8990
 1.1270	40.8820
 1.1280	40.8660
 1.1290	40.8450
 1.1300	40.8210
 1.1310	40.7950
 1.1320	40.7660
 1.1330	40.7350
 1.1340	40.7050
 1.1350	40.6700
 1.1360	40.6310
 1.1370	40.5900
 1.1380	40.5480
 1.1390	40.5030
 1.1400	40.4570
 1.1410	40.4120
 1.1420	40.3670
 1.1430	40.3190
 1.1440	40.2710
 1.1450	40.2250
 1.1460	40.1770
 1.1470	40.1250
 1.1480	40.0780
 1.1490	40.0300
 1.1500	39.9860
 1.1510	39.9460
 1.1520	39.9080
 1.1530	39.8730
 1.1540	39.8390
 1.1550	39.8060
 1.1560	39.7750
 1.1570	39.7490
 1.1580	39.7240
 1.1590	39.7000
 1.1600	39.6780
 1.1610	39.6580
 1.1620	39.6380
 1.1630	39.6210
 1.1640	39.6050
 1.1650	39.5900
 1.1660	39.5770
 1.1670	39.5640
 1.1680	39.5530
 1.1690	39.5420
 1.1700	39.5320
 1.1710	39.5220
 1.1720	39.5130
 1.1730	39.5030
 1.1740	39.4920
 1.1750	39.4800
 1.1760	39.4700
 1.1770	39.4590
 1.1780	39.4500
 1.1790	39.4410
 1.1800	39.4300
 1.1810	39.4200
 1.1820	39.4090
 1.1830	39.3970
 1.1840	39.3870
 1.1850	39.3760
 1.1860	39.3650
 1.1870	39.3570
 1.1880	39.3480
 1.1890	39.3400
 1.1900	39.3320
 1.1910	39.3240
 1.1920	39.3160
 1.1930	39.3060
 1.1940	39.2990
 1.1950	39.2930
 1.1960	39.2870
 1.1970	39.2820
 1.1980	39.2770
 1.1990	39.2730
 1.2000	39.2690
 1.2010	39.2640
 1.2020	39.2630
 1.2030	39.2620
 1.2040	39.2600
 1.2050	39.2600
 1.2060	39.2600
 1.2070	39.2580
 1.2080	39.2550
 1.2090	39.2570
 1.2100	39.2580
 1.2110	39.2600
 1.2120	39.2630
 1.2130	39.2660
 1.2140	39.2660
 1.2150	39.2690
 1.2160	39.2720
 1.2170	39.2760
 1.2180	39.2800
 1.2190	39.2840
 1.2200	39.2890
 1.2210	39.2940
 1.2220	39.2980
 1.2230	39.3030
 1.2240	39.3080
 1.2250	39.3120
 1.2260	39.3190
 1.2270	39.3250
 1.2280	39.3280
 1.2290	39.3320
 1.2300	39.3350
 1.2310	39.3390
 1.2320	39.3430
 1.2330	39.3470
 1.2340	39.3510
 1.2350	39.3540
 1.2360	39.3560
 1.2370	39.3590
 1.2380	39.3620
 1.2390	39.3640
 1.2400	39.3660
 1.2410	39.3680
 1.2420	39.3690
 1.2430	39.3720
 1.2440	39.3740
 1.2450	39.3750
 1.2460	39.3760
 1.2470	39.3750
 1.2480	39.3760
 1.2490	39.3770
 1.2500	39.3770
 1.2510	39.3780
 1.2520	39.3780
 1.2530	39.3780
 1.2540	39.3770
 1.2550	39.3760
 1.2560	39.3740
 1.2570	39.3700
 1.2580	39.3680
 1.2590	39.3650
 1.2600	39.3610
 1.2610	39.3580
 1.2620	39.3540
 1.2630	39.3500
 1.2640	39.3440
 1.2650	39.3390
 1.2660	39.3350
 1.2670	39.3300
 1.2680	39.3250
 1.2690	39.3190
 1.2700	39.3120
 1.2710	39.3040
 1.2720	39.2950
 1.2730	39.2900
 1.2740	39.2830
 1.2750	39.2760
 1.2760	39.2700
 1.2770	39.2620
 1.2780	39.2540
 1.2790	39.2460
 1.2800	39.2360
 1.2810	39.2270
 1.2820	39.2160
 1.2830	39.2050
 1.2840	39.1940
 1.2850	39.1830
 1.2860	39.1710
 1.2870	39.1580
 1.2880	39.1450
 1.2890	39.1300
 1.2900	39.1140
 1.2910	39.0980
 1.2920	39.0810
 1.2930	39.0640
 1.2940	39.0440
 1.2950	39.0220
 1.2960	38.9990
 1.2970	38.9780
 1.2980	38.9550
 1.2990	38.9300
 1.3000	38.9070
 1.3010	38.8800
 1.3020	38.8530
 1.3030	38.8300
 1.3040	38.8030
 1.3050	38.7770
 1.3060	38.7500
 1.3070	38.7200
 1.3080	38.6880
 1.3090	38.6560
 1.3100	38.6210
 1.3110	38.5880
 1.3120	38.5540
 1.3130	38.5180
 1.3140	38.4810
 1.3150	38.4420
 1.3160	38.4030
 1.3170	38.3630
 1.3180	38.3220
 1.3190	38.2820
 1.3200	38.2400
 1.3210	38.1960
 1.3220	38.1520
 1.3230	38.1070
 1.3240	38.0620
 1.3250	38.0160
 1.3260	37.9680
 1.3270	37.9180
 1.3280	37.8670
 1.3290	37.8160
 1.3300	37.7640
 1.3310	37.7110
 1.3320	37.6560
 1.3330	37.6010
 1.3340	37.5460
 1.3350	37.4910
 1.3360	37.4360
 1.3370	37.3800
 1.3380	37.3240
 1.3390	37.2680
 1.3400	37.2110
 1.3410	37.1550
 1.3420	37.0990
 1.3430	37.0430
 1.3440	36.9880
 1.3450	36.9320
 1.3460	36.8760
 1.3470	36.8200
 1.3480	36.7630
 1.3490	36.7070
 1.3500	36.6510
 1.3510	36.5960
 1.3520	36.5410
 1.3530	36.4860
 1.3540	36.4320
 1.3550	36.3770
 1.3560	36.3210
 1.3570	36.2640
 1.3580	36.2060
 1.3590	36.1460
 1.3600	36.0850
 1.3610	36.0230
 1.3620	35.9600
 1.3630	35.8950
 1.3640	35.8260
 1.3650	35.7540
 1.3660	35.6780
 1.3670	35.6010
 1.3680	35.5190
 1.3690	35.4310
 1.3700	35.3370
 1.3710	35.2350
 1.3720	35.1240
 1.3730	35.0050
 1.3740	34.8780
 1.3750	34.7400
 1.3760	34.5900
 1.3770	34.4290
 1.3780	34.2520
 1.3790	34.0630
 1.3800	33.8600
 1.3810	33.6400
 1.3820	33.4070
 1.3830	33.1600
 1.3840	32.8960
 1.3850	32.6180
 1.3860	32.3240
 1.3870	32.0140
 1.3880	31.6940
 1.3890	31.3590
 1.3900	31.0130
 1.3910	30.6600
 1.3920	30.2960
 1.3930	29.9240
 1.3940	29.5460
 1.3950	29.1600
 1.3960	28.7730
 1.3970	28.3880
 1.3980	28.0030
 1.3990	27.6260
 1.4000	27.2540
 1.4010	26.8840
 1.4020	26.5240
 1.4030	26.1710
 1.4040	25.8280
 1.4050	25.4990
 1.4060	25.1800
 1.4070	24.8770
 1.4080	24.5860
 1.4090	24.3070
 1.4100	24.0430
 1.4110	23.7920
 1.4120	23.5540
 1.4130	23.3310
 1.4140	23.1210
 1.4150	22.9260
 1.4160	22.7430
 1.4170	22.5720
 1.4180	22.4140
 1.4190	22.2640
 1.4200	22.1260
 1.4210	21.9960
 1.4220	21.8750
 1.4230	21.7630
 1.4240	21.6600
 1.4250	21.5640
 1.4260	21.4760
 1.4270	21.3950
 1.4280	21.3220
 1.4290	21.2550
 1.4300	21.1950
 1.4310	21.1400
 1.4320	21.0900
 1.4330	21.0460
 1.4340	21.0080
 1.4350	20.9740
 1.4360	20.9460
 1.4370	20.9220
 1.4380	20.9000
 1.4390	20.8830
 1.4400	20.8700
 1.4410	20.8590
 1.4420	20.8510
 1.4430	20.8450
 1.4440	20.8420
 1.4450	20.8400
 1.4460	20.8400
 1.4470	20.8440
 1.4480	20.8490
 1.4490	20.8560
 1.4500	20.8650
 1.4510	20.8750
 1.4520	20.8860
 1.4530	20.9010
 1.4540	20.9160
 1.4550	20.9330
 1.4560	20.9520
 1.4570	20.9730
 1.4580	20.9980
 1.4590	21.0250
 1.4600	21.0570
 1.4610	21.0930
 1.4620	21.1320
 1.4630	21.1770
 1.4640	21.2240
 1.4650	21.2760
 1.4660	21.3340
 1.4670	21.3940
 1.4680	21.4600
 1.4690	21.5300
 1.4700	21.6040
 1.4710	21.6820
 1.4720	21.7620
 1.4730	21.8450
 1.4740	21.9310
 1.4750	22.0180
 1.4760	22.1100
 1.4770	22.2030
 1.4780	22.2980
 1.4790	22.3940
 1.4800	22.4900
 1.4810	22.5870
 1.4820	22.6850
 1.4830	22.7850
 1.4840	22.8860
 1.4850	22.9880
 1.4860	23.0900
 1.4870	23.1930
 1.4880	23.2950
 1.4890	23.3970
 1.4900	23.5000
 1.4910	23.6030
 1.4920	23.7060
 1.4930	23.8110
 1.4940	23.9140
 1.4950	24.0180
 1.4960	24.1220
 1.4970	24.2240
 1.4980	24.3270
 1.4990	24.4310
 1.5000	24.5340
 1.5010	24.6360
 1.5020	24.7390
 1.5030	24.8410
 1.5040	24.9430
 1.5050	25.0440
 1.5060	25.1450
 1.5070	25.2460
 1.5080	25.3470
 1.5090	25.4480
 1.5100	25.5480
 1.5110	25.6480
 1.5120	25.7470
 1.5130	25.8430
 1.5140	25.9410
 1.5150	26.0370
 1.5160	26.1310
 1.5170	26.2270
 1.5180	26.3200
 1.5190	26.4140
 1.5200	26.5090
 1.5210	26.5990
 1.5220	26.6890
 1.5230	26.7780
 1.5240	26.8640
 1.5250	26.9520
 1.5260	27.0400
 1.5270	27.1270
 1.5280	27.2120
 1.5290	27.2940
 1.5300	27.3760
 1.5310	27.4560
 1.5320	27.5360
 1.5330	27.6160
 1.5340	27.6940
 1.5350	27.7710
 1.5360	27.8490
 1.5370	27.9240
 1.5380	27.9980
 1.5390	28.0720
 1.5400	28.1440
 1.5410	28.2160
 1.5420	28.2880
 1.5430	28.3590
 1.5440	28.4290
 1.5450	28.4980
 1.5460	28.5660
 1.5470	28.6330
 1.5480	28.6990
 1.5490	28.7640
 1.5500	28.8280
 1.5510	28.8920
 1.5520	28.9550
 1.5530	29.0180
 1.5540	29.0790
 1.5550	29.1400
 1.5560	29.2000
 1.5570	29.2600
 1.5580	29.3180
 1.5590	29.3740
 1.5600	29.4300
 1.5610	29.4830
 1.5620	29.5360
 1.5630	29.5890
 1.5640	29.6400
 1.5650	29.6890
 1.5660	29.7380
 1.5670	29.7890
 1.5680	29.8380
 1.5690	29.8860
 1.5700	29.9320
 1.5710	29.9770
 1.5720	30.0220
 1.5730	30.0670
 1.5740	30.1120
 1.5750	30.1550
 1.5760	30.1980
 1.5770	30.2400
 1.5780	30.2820
 1.5790	30.3250
 1.5800	30.3690
 1.5810	30.4130
 1.5820	30.4570
 1.5830	30.4990
 1.5840	30.5390
 1.5850	30.5790
 1.5860	30.6200
 1.5870	30.6600
 1.5880	30.7010
 1.5890	30.7410
 1.5900	30.7800
 1.5910	30.8200
 1.5920	30.8590
 1.5930	30.8980
 1.5940	30.9380
 1.5950	30.9770
 1.5960	31.0150
 1.5970	31.0530
 1.5980	31.0900
 1.5990	31.1260
 1.6000	31.1640
 1.6010	31.1990
 1.6020	31.2350
 1.6030	31.2730
 1.6040	31.3080
 1.6050	31.3440
 1.6060	31.3810
 1.6070	31.4150
 1.6080	31.4470
 1.6090	31.4780
 1.6100	31.5090
 1.6110	31.5400
 1.6120	31.5720
 1.6130	31.6040
 1.6140	31.6340
 1.6150	31.6630
 1.6160	31.6920
 1.6170	31.7200
 1.6180	31.7470
 1.6190	31.7720
 1.6200	31.7970
 1.6210	31.8210
 1.6220	31.8440
 1.6230	31.8680
 1.6240	31.8920
 1.6250	31.9150
 1.6260	31.9370
 1.6270	31.9580
 1.6280	31.9780
 1.6290	31.9990
 1.6300	32.0190
 1.6310	32.0380
 1.6320	32.0580
 1.6330	32.0760
 1.6340	32.0920
 1.6350	32.1080
 1.6360	32.1230
 1.6370	32.1370
 1.6380	32.1500
 1.6390	32.1630
 1.6400	32.1730
 1.6410	32.1840
 1.6420	32.1940
 1.6430	32.2050
 1.6440	32.2170
 1.6450	32.2280
 1.6460	32.2390
 1.6470	32.2480
 1.6480	32.2560
 1.6490	32.2620
 1.6500	32.2660
 1.6510	32.2680
 1.6520	32.2690
 1.6530	32.2690
 1.6540	32.2680
 1.6550	32.2670
 1.6560	32.2630
 1.6570	32.2580
 1.6580	32.2520
 1.6590	32.2450
 1.6600	32.2390
 1.6610	32.2340
 1.6620	32.2290
 1.6630	32.2230
 1.6640	32.2190
 1.6650	32.2140
 1.6660	32.2090
 1.6670	32.2030
 1.6680	32.1960
 1.6690	32.1870
 1.6700	32.1770
 1.6710	32.1680
 1.6720	32.1560
 1.6730	32.1430
 1.6740	32.1260
 1.6750	32.1050
 1.6760	32.0860
 1.6770	32.0650
 1.6780	32.0420
 1.6790	32.0200
 1.6800	31.9940
 1.6810	31.9670
 1.6820	31.9410
 1.6830	31.9110
 1.6840	31.8800
 1.6850	31.8490
 1.6860	31.8170
 1.6870	31.7850
 1.6880	31.7540
 1.6890	31.7230
 1.6900	31.6920
 1.6910	31.6610
 1.6920	31.6300
 1.6930	31.5990
 1.6940	31.5700
 1.6950	31.5410
 1.6960	31.5130
 1.6970	31.4850
 1.6980	31.4570
 1.6990	31.4310
 1.7000	31.4050
 1.7010	31.3790
 1.7020	31.3530
 1.7030	31.3270
 1.7040	31.3000
 1.7050	31.2700
 1.7060	31.2410
 1.7070	31.2120
 1.7080	31.1820
 1.7090	31.1490
 1.7100	31.1210
 1.7110	31.0940
 1.7120	31.0660
 1.7130	31.0380
 1.7140	31.0070
 1.7150	30.9760
 1.7160	30.9470
 1.7170	30.9200
 1.7180	30.8910
 1.7190	30.8610
 1.7200	30.8310
 1.7210	30.7980
 1.7220	30.7680
 1.7230	30.7390
 1.7240	30.7090
 1.7250	30.6790
 1.7260	30.6510
 1.7270	30.6230
 1.7280	30.5980
 1.7290	30.5720
 1.7300	30.5480
 1.7310	30.5250
 1.7320	30.5020
 1.7330	30.4800
 1.7340	30.4600
 1.7350	30.4410
 1.7360	30.4240
 1.7370	30.4040
 1.7380	30.3820
 1.7390	30.3590
 1.7400	30.3320
 1.7410	30.3050
 1.7420	30.2790
 1.7430	30.2500
 1.7440	30.2180
 1.7450	30.1860
 1.7460	30.1540
 1.7470	30.1190
 1.7480	30.0830
 1.7490	30.0460
 1.7500	30.0050
 1.7510	29.9670
 1.7520	29.9300
 1.7530	29.8910
 1.7540	29.8520
 1.7550	29.8110
 1.7560	29.7720
 1.7570	29.7340
 1.7580	29.6960
 1.7590	29.6570
 1.7600	29.6180
 1.7610	29.5780
 1.7620	29.5410
 1.7630	29.5080
 1.7640	29.4750
 1.7650	29.4420
 1.7660	29.4110
 1.7670	29.3790
 1.7680	29.3500
 1.7690	29.3230
 1.7700	29.2960
 1.7710	29.2720
 1.7720	29.2470
 1.7730	29.2220
 1.7740	29.1990
 1.7750	29.1760
 1.7760	29.1550
 1.7770	29.1360
 1.7780	29.1180
 1.7790	29.1000
 1.7800	29.0830
 1.7810	29.0650
 1.7820	29.0510
 1.7830	29.0400
 1.7840	29.0280
 1.7850	29.0190
 1.7860	29.0090
 1.7870	28.9980
 1.7880	28.9890
 1.7890	28.9830
 1.7900	28.9800
 1.7910	28.9770
 1.7920	28.9750
 1.7930	28.9720
 1.7940	28.9670
 1.7950	28.9650
 1.7960	28.9640
 1.7970	28.9650
 1.7980	28.9680
 1.7990	28.9720
 1.8000	28.9790
 1.8010	28.9820
 1.8020	28.9850
 1.8030	28.9880
 1.8040	28.9900
 1.8050	28.9930
 1.8060	29.0000
 1.8070	29.0040
 1.8080	29.0080
 1.8090	29.0110
 1.8100	29.0150
 1.8110	29.0160
 1.8120	29.0170
 1.8130	29.0190
 1.8140	29.0170
 1.8150	29.0160
 1.8160	29.0160
 1.8170	29.0150
 1.8180	29.0150
 1.8190	29.0170
 1.8200	29.0160
 1.8210	29.0110
 1.8220	29.0080
 1.8230	29.0070
 1.8240	29.0030
 1.8250	29.0000
 1.8260	28.9950
 1.8270	28.9860
 1.8280	28.9790
 1.8290	28.9740
 1.8300	28.9630
 1.8310	28.9230
 1.8320	28.9040
 1.8330	28.8830
 1.8340	28.8610
 1.8350	28.8400
 1.8360	28.8150
 1.8370	28.7870
 1.8380	28.7580
 1.8390	28.7250
 1.8400	28.6880
 1.8410	28.6490
 1.8420	28.6080
 1.8430	28.5610
 1.8440	28.5090
 1.8450	28.4530
 1.8460	28.3910
 1.8470	28.3230
 1.8480	28.2470
 1.8490	28.1670
 1.8500	28.0770
 1.8510	27.9800
 1.8520	27.8750
 1.8530	27.7620
 1.8540	27.6380
 1.8550	27.5060
 1.8560	27.3650
 1.8570	27.2130
 1.8580	27.0490
 1.8590	26.8730
 1.8600	26.6870
 1.8610	26.4860
 1.8620	26.2690
 1.8630	26.0380
 1.8640	25.7910
 1.8650	25.5270
 1.8660	25.2480
 1.8670	24.9550
 1.8680	24.6450
 1.8690	24.3110
 1.8700	23.9560
 1.8710	23.5790
 1.8720	23.1870
 1.8730	22.7740
 1.8740	22.3430
 1.8750	21.8990
 1.8760	21.4400
 1.8770	20.9650
 1.8780	20.4790
 1.8790	19.9780
 1.8800	19.4740
 1.8810	18.9610
 1.8820	18.4400
 1.8830	17.9090
 1.8840	17.3770
 1.8850	16.8380
 1.8860	16.2950
 1.8870	15.7600
 1.8880	15.2300
 1.8890	14.7120
 1.8900	14.2060
 1.8910	13.7160
 1.8920	13.2390
 1.8930	12.7820
 1.8940	12.3410
 1.8950	11.9220
 1.8960	11.5260
 1.8970	11.1520
 1.8980	10.8050
 1.8990	10.4790
 1.9000	10.1760
 1.9010	 9.9000
 1.9020	 9.6420
 1.9030	 9.4070
 1.9040	 9.1920
 1.9050	 8.9980
 1.9060	 8.8170
 1.9070	 8.6550
 1.9080	 8.5110
 1.9090	 8.3800
 1.9100	 8.2640
 1.9110	 8.1590
 1.9120	 8.0700
 1.9130	 7.9850
 1.9140	 7.9080
 1.9150	 7.8400
 1.9160	 7.7800
 1.9170	 7.7260
 1.9180	 7.6800
 1.9190	 7.6400
 1.9200	 7.6040
 1.9210	 7.5730
 1.9220	 7.5490
 1.9230	 7.5340
 1.9240	 7.5200
 1.9250	 7.5100
 1.9260	 7.5050
 1.9270	 7.5000
 1.9280	 7.4990
 1.9290	 7.5030
 1.9300	 7.5100
 1.9310	 7.5210
 1.9320	 7.5350
 1.9330	 7.5510
 1.9340	 7.5710
 1.9350	 7.5920
 1.9360	 7.6150
 1.9370	 7.6410
 1.9380	 7.6690
 1.9390	 7.6990
 1.9400	 7.7320
 1.9410	 7.7690
 1.9420	 7.8080
 1.9430	 7.8530
 1.9440	 7.8980
 1.9450	 7.9460
 1.9460	 7.9950
 1.9470	 8.0430
 1.9480	 8.0940
 1.9490	 8.1460
 1.9500	 8.2010
 1.9510	 8.2560
 1.9520	 8.3160
 1.9530	 8.3780
 1.9540	 8.4390
 1.9550	 8.5020
 1.9560	 8.5680
 1.9570	 8.6320
 1.9580	 8.6930
 1.9590	 8.7610
 1.9600	 8.8320
 1.9610	 8.9030
 1.9620	 8.9790
 1.9630	 9.0520
 1.9640	 9.1230
 1.9650	 9.1950
 1.9660	 9.2680
 1.9670	 9.3440
 1.9680	 9.4200
 1.9690	 9.4990
 1.9700	 9.5780
 1.9710	 9.6560
 1.9720	 9.7380
 1.9730	 9.8240
 1.9740	 9.9110
 1.9750	 9.9990
 1.9760	10.0860
 1.9770	10.1710
 1.9780	10.2600
 1.9790	10.3470
 1.9800	10.4320
 1.9810	10.5220
 1.9820	10.6130
 1.9830	10.7040
 1.9840	10.8000
 1.9850	10.8920
 1.9860	10.9820
 1.9870	11.0740
 1.9880	11.1660
 1.9890	11.2560
 1.9900	11.3490
 1.9910	11.4440
 1.9920	11.5380
 1.9930	11.6340
 1.9940	11.7290
 1.9950	11.8240
 1.9960	11.9170
 1.9970	12.0080
 1.9980	12.1010
 1.9990	12.1960
 2.0000	12.2880
 2.0010	12.3800
 2.0020	12.4750
 2.0030	12.5650
 2.0040	12.6550
 2.0050	12.7460
 2.0060	12.8380
 2.0070	12.9290
 2.0080	13.0170
 2.0090	13.1080
 2.0100	13.2010
 2.0110	13.2910
 2.0120	13.3800
 2.0130	13.4690
 2.0140	13.5540
 2.0150	13.6370
 2.0160	13.7230
 2.0170	13.8040
 2.0180	13.8860
 2.0190	13.9680
 2.0200	14.0470
 2.0210	14.1260
 2.0220	14.2030
 2.0230	14.2790
 2.0240	14.3530
 2.0250	14.4260
 2.0260	14.4990
 2.0270	14.5710
 2.0280	14.6440
 2.0290	14.7130
 2.0300	14.7820
 2.0310	14.8470
 2.0320	14.9060
 2.0330	14.9670
 2.0340	15.0280
 2.0350	15.0860
 2.0360	15.1420
 2.0370	15.1990
 2.0380	15.2540
 2.0390	15.3070
 2.0400	15.3610
 2.0410	15.4130
 2.0420	15.4640
 2.0430	15.5130
 2.0440	15.5610
 2.0450	15.6080
 2.0460	15.6570
 2.0470	15.7040
 2.0480	15.7530
 2.0490	15.8070
 2.0500	15.8560
 2.0510	15.9010
 2.0520	15.9490
 2.0530	15.9940
 2.0540	16.0410
 2.0550	16.0880
 2.0560	16.1370
 2.0570	16.1890
 2.0580	16.2410
 2.0590	16.2930
 2.0600	16.3480
 2.0610	16.4010
 2.0620	16.4500
 2.0630	16.5030
 2.0640	16.5570
 2.0650	16.6120
 2.0660	16.6690
 2.0670	16.7250
 2.0680	16.7810
 2.0690	16.8360
 2.0700	16.8880
 2.0710	16.9420
 2.0720	16.9970
 2.0730	17.0510
 2.0740	17.1060
 2.0750	17.1630
 2.0760	17.2200
 2.0770	17.2800
 2.0780	17.3370
 2.0790	17.3940
 2.0800	17.4490
 2.0810	17.4980
 2.0820	17.5520
 2.0830	17.6050
 2.0840	17.6580
 2.0850	17.7150
 2.0860	17.7690
 2.0870	17.8190
 2.0880	17.8710
 2.0890	17.9230
 2.0900	17.9740
 2.0910	18.0260
 2.0920	18.0840
 2.0930	18.1350
 2.0940	18.1850
 2.0950	18.2330
 2.0960	18.2760
 2.0970	18.3220
 2.0980	18.3680
 2.0990	18.4150
 2.1000	18.4650
 2.1010	18.5120
 2.1020	18.5580
 2.1030	18.6050
 2.1040	18.6510
 2.1050	18.6950
 2.1060	18.7410
 2.1070	18.7880
 2.1080	18.8330
 2.1090	18.8750
 2.1100	18.9200
 2.1110	18.9640
 2.1120	19.0080
 2.1130	19.0520
 2.1140	19.0960
 2.1150	19.1400
 2.1160	19.1840
 2.1170	19.2280
 2.1180	19.2700
 2.1190	19.3120
 2.1200	19.3530
 2.1210	19.3920
 2.1220	19.4330
 2.1230	19.4720
 2.1240	19.5100
 2.1250	19.5490
 2.1260	19.5890
 2.1270	19.6280
 2.1280	19.6670
 2.1290	19.7040
 2.1300	19.7370
 2.1310	19.7720
 2.1320	19.8080
 2.1330	19.8370
 2.1340	19.8620
 2.1350	19.8890
 2.1360	19.9110
 2.1370	19.9370
 2.1380	19.9680
 2.1390	19.9960
 2.1400	20.0250
 2.1410	20.0490
 2.1420	20.0720
 2.1430	20.0930
 2.1440	20.1140
 2.1450	20.1330
 2.1460	20.1530
 2.1470	20.1710
 2.1480	20.1910
 2.1490	20.2110
 2.1500	20.2300
 2.1510	20.2490
 2.1520	20.2660
 2.1530	20.2790
 2.1540	20.2930
 2.1550	20.3090
 2.1560	20.3200
 2.1570	20.3270
 2.1580	20.3370
 2.1590	20.3490
 2.1600	20.3550
 2.1610	20.3640
 2.1620	20.3750
 2.1630	20.3850
 2.1640	20.3920
 2.1650	20.4000
 2.1660	20.4090
 2.1670	20.4180
 2.1680	20.4250
 2.1690	20.4330
 2.1700	20.4420
 2.1710	20.4530
 2.1720	20.4630
 2.1730	20.4740
 2.1740	20.4860
 2.1750	20.4980
 2.1760	20.5090
 2.1770	20.5220
 2.1780	20.5390
 2.1790	20.5530
 2.1800	20.5680
 2.1810	20.5820
 2.1820	20.5930
 2.1830	20.6070
 2.1840	20.6230
 2.1850	20.6410
 2.1860	20.6590
 2.1870	20.6780
 2.1880	20.6960
 2.1890	20.7130
 2.1900	20.7280
 2.1910	20.7430
 2.1920	20.7560
 2.1930	20.7630
 2.1940	20.7740
 2.1950	20.7850
 2.1960	20.7960
 2.1970	20.8080
 2.1980	20.8190
 2.1990	20.8350
 2.2000	20.8430
 2.2010	20.8480
 2.2020	20.8500
 2.2030	20.8430
 2.2040	20.8390
 2.2050	20.8370
 2.2060	20.8320
 2.2070	20.8280
 2.2080	20.8240
 2.2090	20.8180
 2.2100	20.8130
 2.2110	20.8020
 2.2120	20.7870
 2.2130	20.7730
 2.2140	20.7540
 2.2150	20.7390
 2.2160	20.7280
 2.2170	20.7140
 2.2180	20.7020
 2.2190	20.6870
 2.2200	20.6700
 2.2210	20.6540
 2.2220	20.6380
 2.2230	20.6210
 2.2240	20.6060
 2.2250	20.5850
 2.2260	20.5630
 2.2270	20.5330
 2.2280	20.4960
 2.2290	20.4560
 2.2300	20.4140
 2.2310	20.3620
 2.2320	20.3100
 2.2330	20.2550
 2.2340	20.1960
 2.2350	20.1340
 2.2360	20.0640
 2.2370	19.9860
 2.2380	19.9110
 2.2390	19.8270
 2.2400	19.7540
 2.2410	19.6850
 2.2420	19.6200
 2.2430	19.5560
 2.2440	19.4990
 2.2450	19.4470
 2.2460	19.3980
 2.2470	19.3550
 2.2480	19.3130
 2.2490	19.2750
 2.2500	19.2400
 2.2510	19.2090
 2.2520	19.1810
 2.2530	19.1610
 2.2540	19.1340
 2.2550	19.1080
 2.2560	19.0790
 2.2570	19.0470
 2.2580	19.0110
 2.2590	18.9740
 2.2600	18.9320
 2.2610	18.8830
 2.2620	18.8310
 2.2630	18.7870
 2.2640	18.7460
 2.2650	18.7060
 2.2660	18.6660
 2.2670	18.6200
 2.2680	18.5650
 2.2690	18.5190
 2.2700	18.4750
 2.2710	18.4310
 2.2720	18.3890
 2.2730	18.3460
 2.2740	18.2980
 2.2750	18.2590
 2.2760	18.2270
 2.2770	18.1930
 2.2780	18.1630
 2.2790	18.1310
 2.2800	18.0960
 2.2810	18.0640
 2.2820	18.0320
 2.2830	18.0020
 2.2840	17.9780
 2.2850	17.9480
 2.2860	17.9170
 2.2870	17.8820
 2.2880	17.8380
 2.2890	17.7990
 2.2900	17.7610
 2.2910	17.7250
 2.2920	17.6930
 2.2930	17.6570
 2.2940	17.6200
 2.2950	17.5800
 2.2960	17.5370
 2.2970	17.4910
 2.2980	17.4410
 2.2990	17.3890
 2.3000	17.3330
 2.3010	17.2790
 2.3020	17.2240
 2.3030	17.1640
 2.3040	17.1030
 2.3050	17.0400
 2.3060	16.9750
 2.3070	16.9180
 2.3080	16.8690
 2.3090	16.8120
 2.3100	16.7530
 2.3110	16.7030
 2.3120	16.6610
 2.3130	16.6220
 2.3140	16.5900
 2.3150	16.5730
 2.3160	16.5490
 2.3170	16.5260
 2.3180	16.5030
 2.3190	16.4850
 2.3200	16.4600
 2.3210	16.4310
 2.3220	16.4050
 2.3230	16.3770
 2.3240	16.3550
 2.3250	16.3410
 2.3260	16.3180
 2.3270	16.2910
 2.3280	16.2640
 2.3290	16.2330
 2.3300	16.2010
 2.3310	16.1680
 2.3320	16.1350
 2.3330	16.1000
 2.3340	16.0610
 2.3350	16.0240
 2.3360	15.9810
 2.3370	15.9240
 2.3380	15.8800
 2.3390	15.8380
 2.3400	15.7990
 2.3410	15.7700
 2.3420	15.7350
 2.3430	15.6990
 2.3440	15.6580
 2.3450	15.6090
 2.3460	15.5650
 2.3470	15.5140
 2.3480	15.4740
 2.3490	15.4440
 2.3500	15.4100
 2.3510	15.3780
 2.3520	15.3470
 2.3530	15.3130
 2.3540	15.2810
 2.3550	15.2540
 2.3560	15.2310
 2.3570	15.2080
 2.3580	15.1890
 2.3590	15.1680
 2.3600	15.1370
 2.3610	15.1110
 2.3620	15.0770
 2.3630	15.0430
 2.3640	15.0180
 2.3650	14.9870
 2.3660	14.9580
 2.3670	14.9280
 2.3680	14.8930
 2.3690	14.8600
 2.3700	14.8290
 2.3710	14.7910
 2.3720	14.7510
 2.3730	14.7050
 2.3740	14.6510
 2.3750	14.6020
 2.3760	14.5560
 2.3770	14.5160
 2.3780	14.4800
 2.3790	14.4430
 2.3800	14.4030
 2.3810	14.3510
 2.3820	14.2950
 2.3830	14.2440
 2.3840	14.1930
 2.3850	14.1430
 2.3860	14.1030
 2.3870	14.0620
 2.3880	14.0100
 2.3890	13.9750
 2.3900	13.9450
 2.3910	13.8970
 2.3920	13.8560
 2.3930	13.8070
 2.3940	13.7420
 2.3950	13.6900
 2.3960	13.6410
 2.3970	13.5930
 2.3980	13.5470
 2.3990	13.4990
 2.4000	13.4520
 2.4010	13.4020
 2.4020	13.3460
 2.4030	13.2900
 2.4040	13.2400
 2.4050	13.1880
 2.4060	13.1430
 2.4070	13.1030
 2.4080	13.0550
 2.4090	13.0060
 2.4100	12.9490
 2.4110	12.9000
 2.4120	12.8600
 2.4130	12.8190
 2.4140	12.7800
 2.4150	12.7210
 2.4160	12.6560
 2.4170	12.5970
 2.4180	12.5420
 2.4190	12.4970
 2.4200	12.4530
 2.4210	12.4030
 2.4220	12.3470
 2.4230	12.2820
 2.4240	12.2200
 2.4250	12.1710
 2.4260	12.1230
 2.4270	12.0810
 2.4280	12.0300
 2.4290	11.9550
 2.4300	11.8870
 2.4310	11.8260
 2.4320	11.7720
 2.4330	11.7300
 2.4340	11.6730
 2.4350	11.6030
 2.4360	11.5300
 2.4370	11.4600
 2.4380	11.4110
 2.4390	11.3590
 2.4400	11.3160
 2.4410	11.2730
 2.4420	11.2120
 2.4430	11.1540
 2.4440	11.0890
 2.4450	11.0240
 2.4460	10.9430
 2.4470	10.8650
 2.4480	10.8120
 2.4490	10.7510
 2.4500	10.7170
 2.4510	10.6880
 2.4520	10.6300
 2.4530	10.5600
 2.4540	10.4760
 2.4550	10.4020
 2.4560	10.3500
 2.4570	10.3010
 2.4580	10.2590
 2.4590	10.2230
 2.4600	10.1700
 2.4610	10.1190
 2.4620	10.0800
 2.4630	10.0350
 2.4640	 9.9920
 2.4650	 9.9610
 2.4660	 9.9180
 2.4670	 9.8670
 2.4680	 9.8350
 2.4690	 9.7850
 2.4700	 9.7300
 2.4710	 9.6500
 2.4720	 9.5860
 2.4730	 9.5230
 2.4740	 9.4930
 2.4750	 9.5060
 2.4760	 9.4860
 2.4770	 9.4870
 2.4780	 9.4360
 2.4790	 9.3140
 2.4800	 9.2490
 2.4810	 9.1830
 2.4820	 9.1370
 2.4830	 9.1290
 2.4840	 9.1020
 2.4850	 9.0580
 2.4860	 9.0760
 2.4870	 9.0670
 2.4880	 9.0270
 2.4890	 9.0400
 2.4900	 8.9900
 2.4910	 8.9100
 2.4920	 8.8670
 2.4930	 8.8050
 2.4940	 8.7820
 2.4950	 8.7860
 2.4960	 8.7970
 2.4970	 8.8140
 2.4980	 8.7540
 2.4990	 8.7020
 2.5000	 8.7020
