Name: Quercus robur
Type: vegetation
Class: Tree
Genus: Quercus
Species: robur
Sample No.: JPL247
Owner: JPL
Wavelength Range: VSWIR
Origin: 34.12809; -118.11387; WGS84
Collection Date: 10/6/2016
Description: Samples were collected at the Huntington Garden in San Marino California as part of a JPL Subcontract studying HyTES imagery. Samples were taken to JPL and processed within 48 hours of collection. The same leaves were processed in the Nicolet and then measured using the ASD.
Measurement: Bidirectional reflectance
First Column: X
Second Column: Y
X Units: Wavelength (micrometer)
Y Units: Reflectance (percentage)
First X Value: 0.35
Last X Value: 2.5
Number of X Values: 2151
Additional Information: vegetation.tree.quercus.robur.vswir.jpl247.jpl.asd.ancillary.txt

 0.3500	 6.4450
 0.3510	 6.3190
 0.3520	 6.1770
 0.3530	 6.1150
 0.3540	 6.1550
 0.3550	 6.1310
 0.3560	 6.1320
 0.3570	 6.1490
 0.3580	 6.1320
 0.3590	 6.1300
 0.3600	 6.1320
 0.3610	 6.1140
 0.3620	 6.0430
 0.3630	 5.9930
 0.3640	 5.9850
 0.3650	 6.0120
 0.3660	 6.0140
 0.3670	 5.9760
 0.3680	 5.9460
 0.3690	 6.0000
 0.3700	 5.9800
 0.3710	 5.9680
 0.3720	 5.9970
 0.3730	 5.9510
 0.3740	 5.9030
 0.3750	 5.8750
 0.3760	 5.8750
 0.3770	 5.9350
 0.3780	 5.9530
 0.3790	 5.9270
 0.3800	 5.9360
 0.3810	 5.9720
 0.3820	 5.9720
 0.3830	 5.9190
 0.3840	 5.9170
 0.3850	 5.8650
 0.3860	 5.8230
 0.3870	 5.8810
 0.3880	 5.9360
 0.3890	 5.9370
 0.3900	 5.9000
 0.3910	 5.9030
 0.3920	 5.8940
 0.3930	 5.8840
 0.3940	 5.8940
 0.3950	 5.9330
 0.3960	 5.9530
 0.3970	 5.9610
 0.3980	 5.9870
 0.3990	 6.0140
 0.4000	 6.0240
 0.4010	 6.0220
 0.4020	 6.0480
 0.4030	 6.0710
 0.4040	 6.0850
 0.4050	 6.0910
 0.4060	 6.0990
 0.4070	 6.1180
 0.4080	 6.1460
 0.4090	 6.1730
 0.4100	 6.1870
 0.4110	 6.1990
 0.4120	 6.2160
 0.4130	 6.2430
 0.4140	 6.2740
 0.4150	 6.2960
 0.4160	 6.3000
 0.4170	 6.3300
 0.4180	 6.3660
 0.4190	 6.3950
 0.4200	 6.4140
 0.4210	 6.4180
 0.4220	 6.4250
 0.4230	 6.4420
 0.4240	 6.4510
 0.4250	 6.4690
 0.4260	 6.4890
 0.4270	 6.4970
 0.4280	 6.5040
 0.4290	 6.5120
 0.4300	 6.5210
 0.4310	 6.5330
 0.4320	 6.5340
 0.4330	 6.5350
 0.4340	 6.5450
 0.4350	 6.5480
 0.4360	 6.5520
 0.4370	 6.5570
 0.4380	 6.5570
 0.4390	 6.5700
 0.4400	 6.5810
 0.4410	 6.5800
 0.4420	 6.5850
 0.4430	 6.5870
 0.4440	 6.5880
 0.4450	 6.5890
 0.4460	 6.6010
 0.4470	 6.6140
 0.4480	 6.6200
 0.4490	 6.6130
 0.4500	 6.6130
 0.4510	 6.6180
 0.4520	 6.6220
 0.4530	 6.6230
 0.4540	 6.6230
 0.4550	 6.6260
 0.4560	 6.6390
 0.4570	 6.6420
 0.4580	 6.6360
 0.4590	 6.6280
 0.4600	 6.6310
 0.4610	 6.6330
 0.4620	 6.6330
 0.4630	 6.6320
 0.4640	 6.6310
 0.4650	 6.6270
 0.4660	 6.6200
 0.4670	 6.6190
 0.4680	 6.6210
 0.4690	 6.6240
 0.4700	 6.6250
 0.4710	 6.6190
 0.4720	 6.6180
 0.4730	 6.6190
 0.4740	 6.6120
 0.4750	 6.6090
 0.4760	 6.6110
 0.4770	 6.6140
 0.4780	 6.6100
 0.4790	 6.6060
 0.4800	 6.6010
 0.4810	 6.5960
 0.4820	 6.5960
 0.4830	 6.6010
 0.4840	 6.6040
 0.4850	 6.6030
 0.4860	 6.6010
 0.4870	 6.5980
 0.4880	 6.5950
 0.4890	 6.6040
 0.4900	 6.6080
 0.4910	 6.6090
 0.4920	 6.6140
 0.4930	 6.6160
 0.4940	 6.6190
 0.4950	 6.6260
 0.4960	 6.6370
 0.4970	 6.6420
 0.4980	 6.6440
 0.4990	 6.6500
 0.5000	 6.6620
 0.5010	 6.6740
 0.5020	 6.6860
 0.5030	 6.6970
 0.5040	 6.7070
 0.5050	 6.7220
 0.5060	 6.7430
 0.5070	 6.7640
 0.5080	 6.7860
 0.5090	 6.8100
 0.5100	 6.8360
 0.5110	 6.8700
 0.5120	 6.9070
 0.5130	 6.9440
 0.5140	 6.9840
 0.5150	 7.0330
 0.5160	 7.0890
 0.5170	 7.1500
 0.5180	 7.2180
 0.5190	 7.2900
 0.5200	 7.3670
 0.5210	 7.4480
 0.5220	 7.5270
 0.5230	 7.6110
 0.5240	 7.7020
 0.5250	 7.7900
 0.5260	 7.8780
 0.5270	 7.9640
 0.5280	 8.0460
 0.5290	 8.1240
 0.5300	 8.1940
 0.5310	 8.2570
 0.5320	 8.3190
 0.5330	 8.3770
 0.5340	 8.4280
 0.5350	 8.4720
 0.5360	 8.5090
 0.5370	 8.5430
 0.5380	 8.5730
 0.5390	 8.5980
 0.5400	 8.6180
 0.5410	 8.6370
 0.5420	 8.6580
 0.5430	 8.6760
 0.5440	 8.6910
 0.5450	 8.7020
 0.5460	 8.7120
 0.5470	 8.7200
 0.5480	 8.7290
 0.5490	 8.7390
 0.5500	 8.7490
 0.5510	 8.7550
 0.5520	 8.7550
 0.5530	 8.7470
 0.5540	 8.7360
 0.5550	 8.7150
 0.5560	 8.6870
 0.5570	 8.6560
 0.5580	 8.6150
 0.5590	 8.5690
 0.5600	 8.5170
 0.5610	 8.4590
 0.5620	 8.3970
 0.5630	 8.3330
 0.5640	 8.2640
 0.5650	 8.1950
 0.5660	 8.1270
 0.5670	 8.0590
 0.5680	 7.9880
 0.5690	 7.9170
 0.5700	 7.8500
 0.5710	 7.7890
 0.5720	 7.7310
 0.5730	 7.6760
 0.5740	 7.6240
 0.5750	 7.5740
 0.5760	 7.5310
 0.5770	 7.4920
 0.5780	 7.4560
 0.5790	 7.4280
 0.5800	 7.4030
 0.5810	 7.3780
 0.5820	 7.3510
 0.5830	 7.3240
 0.5840	 7.3010
 0.5850	 7.2800
 0.5860	 7.2620
 0.5870	 7.2400
 0.5880	 7.2190
 0.5890	 7.1990
 0.5900	 7.1770
 0.5910	 7.1550
 0.5920	 7.1360
 0.5930	 7.1220
 0.5940	 7.1130
 0.5950	 7.1090
 0.5960	 7.1070
 0.5970	 7.1050
 0.5980	 7.0990
 0.5990	 7.0920
 0.6000	 7.0890
 0.6010	 7.0830
 0.6020	 7.0730
 0.6030	 7.0590
 0.6040	 7.0430
 0.6050	 7.0250
 0.6060	 7.0050
 0.6070	 6.9840
 0.6080	 6.9600
 0.6090	 6.9380
 0.6100	 6.9150
 0.6110	 6.8880
 0.6120	 6.8670
 0.6130	 6.8480
 0.6140	 6.8300
 0.6150	 6.8150
 0.6160	 6.7980
 0.6170	 6.7800
 0.6180	 6.7630
 0.6190	 6.7530
 0.6200	 6.7430
 0.6210	 6.7310
 0.6220	 6.7200
 0.6230	 6.7130
 0.6240	 6.7070
 0.6250	 6.6990
 0.6260	 6.6940
 0.6270	 6.6890
 0.6280	 6.6850
 0.6290	 6.6830
 0.6300	 6.6780
 0.6310	 6.6740
 0.6320	 6.6710
 0.6330	 6.6700
 0.6340	 6.6650
 0.6350	 6.6590
 0.6360	 6.6520
 0.6370	 6.6400
 0.6380	 6.6290
 0.6390	 6.6180
 0.6400	 6.6060
 0.6410	 6.5950
 0.6420	 6.5830
 0.6430	 6.5690
 0.6440	 6.5570
 0.6450	 6.5470
 0.6460	 6.5380
 0.6470	 6.5300
 0.6480	 6.5210
 0.6490	 6.5150
 0.6500	 6.5120
 0.6510	 6.5080
 0.6520	 6.5020
 0.6530	 6.4990
 0.6540	 6.5010
 0.6550	 6.4990
 0.6560	 6.4960
 0.6570	 6.4930
 0.6580	 6.4910
 0.6590	 6.4880
 0.6600	 6.4850
 0.6610	 6.4830
 0.6620	 6.4810
 0.6630	 6.4820
 0.6640	 6.4840
 0.6650	 6.4890
 0.6660	 6.4960
 0.6670	 6.5020
 0.6680	 6.5110
 0.6690	 6.5250
 0.6700	 6.5410
 0.6710	 6.5600
 0.6720	 6.5820
 0.6730	 6.6050
 0.6740	 6.6310
 0.6750	 6.6600
 0.6760	 6.6910
 0.6770	 6.7260
 0.6780	 6.7640
 0.6790	 6.8040
 0.6800	 6.8430
 0.6810	 6.8860
 0.6820	 6.9320
 0.6830	 6.9770
 0.6840	 7.0180
 0.6850	 7.0560
 0.6860	 7.0900
 0.6870	 7.1240
 0.6880	 7.1540
 0.6890	 7.1840
 0.6900	 7.2200
 0.6910	 7.2640
 0.6920	 7.3240
 0.6930	 7.4050
 0.6940	 7.5120
 0.6950	 7.6540
 0.6960	 7.8370
 0.6970	 8.0650
 0.6980	 8.3430
 0.6990	 8.6740
 0.7000	 9.0570
 0.7010	 9.4930
 0.7020	 9.9770
 0.7030	10.5070
 0.7040	11.0800
 0.7050	11.6930
 0.7060	12.3400
 0.7070	13.0200
 0.7080	13.7280
 0.7090	14.4640
 0.7100	15.2260
 0.7110	16.0140
 0.7120	16.8270
 0.7130	17.6610
 0.7140	18.5170
 0.7150	19.3940
 0.7160	20.2880
 0.7170	21.2020
 0.7180	22.1290
 0.7190	23.0640
 0.7200	24.0090
 0.7210	24.9590
 0.7220	25.9120
 0.7230	26.8620
 0.7240	27.8050
 0.7250	28.7430
 0.7260	29.6670
 0.7270	30.5720
 0.7280	31.4580
 0.7290	32.3230
 0.7300	33.1660
 0.7310	33.9810
 0.7320	34.7680
 0.7330	35.5260
 0.7340	36.2530
 0.7350	36.9480
 0.7360	37.6120
 0.7370	38.2440
 0.7380	38.8430
 0.7390	39.4120
 0.7400	39.9470
 0.7410	40.4480
 0.7420	40.9200
 0.7430	41.3590
 0.7440	41.7670
 0.7450	42.1450
 0.7460	42.4940
 0.7470	42.8160
 0.7480	43.1090
 0.7490	43.3760
 0.7500	43.6240
 0.7510	43.8500
 0.7520	44.0540
 0.7530	44.2370
 0.7540	44.4050
 0.7550	44.5560
 0.7560	44.6910
 0.7570	44.8150
 0.7580	44.9260
 0.7590	45.0250
 0.7600	45.1140
 0.7610	45.1950
 0.7620	45.2690
 0.7630	45.3330
 0.7640	45.3880
 0.7650	45.4370
 0.7660	45.4810
 0.7670	45.5200
 0.7680	45.5520
 0.7690	45.5780
 0.7700	45.6030
 0.7710	45.6260
 0.7720	45.6470
 0.7730	45.6640
 0.7740	45.6800
 0.7750	45.6970
 0.7760	45.7110
 0.7770	45.7230
 0.7780	45.7330
 0.7790	45.7420
 0.7800	45.7520
 0.7810	45.7630
 0.7820	45.7760
 0.7830	45.7850
 0.7840	45.7950
 0.7850	45.8020
 0.7860	45.8060
 0.7870	45.8120
 0.7880	45.8170
 0.7890	45.8200
 0.7900	45.8230
 0.7910	45.8260
 0.7920	45.8280
 0.7930	45.8300
 0.7940	45.8310
 0.7950	45.8320
 0.7960	45.8330
 0.7970	45.8330
 0.7980	45.8310
 0.7990	45.8280
 0.8000	45.8230
 0.8010	45.8180
 0.8020	45.8180
 0.8030	45.8160
 0.8040	45.8130
 0.8050	45.8100
 0.8060	45.8040
 0.8070	45.7970
 0.8080	45.7900
 0.8090	45.7840
 0.8100	45.7780
 0.8110	45.7720
 0.8120	45.7640
 0.8130	45.7530
 0.8140	45.7420
 0.8150	45.7330
 0.8160	45.7260
 0.8170	45.7180
 0.8180	45.7110
 0.8190	45.7040
 0.8200	45.6940
 0.8210	45.6820
 0.8220	45.6730
 0.8230	45.6650
 0.8240	45.6560
 0.8250	45.6440
 0.8260	45.6350
 0.8270	45.6290
 0.8280	45.6200
 0.8290	45.6090
 0.8300	45.5990
 0.8310	45.5930
 0.8320	45.5830
 0.8330	45.5780
 0.8340	45.5740
 0.8350	45.5660
 0.8360	45.5590
 0.8370	45.5510
 0.8380	45.5440
 0.8390	45.5410
 0.8400	45.5360
 0.8410	45.5320
 0.8420	45.5290
 0.8430	45.5250
 0.8440	45.5230
 0.8450	45.5190
 0.8460	45.5160
 0.8470	45.5170
 0.8480	45.5180
 0.8490	45.5190
 0.8500	45.5170
 0.8510	45.5130
 0.8520	45.5100
 0.8530	45.5110
 0.8540	45.5130
 0.8550	45.5120
 0.8560	45.5120
 0.8570	45.5130
 0.8580	45.5160
 0.8590	45.5170
 0.8600	45.5200
 0.8610	45.5250
 0.8620	45.5290
 0.8630	45.5320
 0.8640	45.5360
 0.8650	45.5430
 0.8660	45.5430
 0.8670	45.5440
 0.8680	45.5480
 0.8690	45.5530
 0.8700	45.5590
 0.8710	45.5650
 0.8720	45.5710
 0.8730	45.5780
 0.8740	45.5830
 0.8750	45.5890
 0.8760	45.5960
 0.8770	45.6020
 0.8780	45.6060
 0.8790	45.6080
 0.8800	45.6120
 0.8810	45.6210
 0.8820	45.6290
 0.8830	45.6340
 0.8840	45.6370
 0.8850	45.6420
 0.8860	45.6490
 0.8870	45.6560
 0.8880	45.6600
 0.8890	45.6660
 0.8900	45.6740
 0.8910	45.6800
 0.8920	45.6810
 0.8930	45.6870
 0.8940	45.6930
 0.8950	45.6990
 0.8960	45.7020
 0.8970	45.7100
 0.8980	45.7150
 0.8990	45.7170
 0.9000	45.7260
 0.9010	45.7300
 0.9020	45.7340
 0.9030	45.7410
 0.9040	45.7430
 0.9050	45.7470
 0.9060	45.7520
 0.9070	45.7540
 0.9080	45.7550
 0.9090	45.7540
 0.9100	45.7570
 0.9110	45.7660
 0.9120	45.7660
 0.9130	45.7650
 0.9140	45.7650
 0.9150	45.7660
 0.9160	45.7680
 0.9170	45.7680
 0.9180	45.7670
 0.9190	45.7710
 0.9200	45.7750
 0.9210	45.7720
 0.9220	45.7660
 0.9230	45.7640
 0.9240	45.7670
 0.9250	45.7610
 0.9260	45.7490
 0.9270	45.7440
 0.9280	45.7340
 0.9290	45.7230
 0.9300	45.7140
 0.9310	45.7120
 0.9320	45.7020
 0.9330	45.6910
 0.9340	45.6820
 0.9350	45.6640
 0.9360	45.6520
 0.9370	45.6420
 0.9380	45.6300
 0.9390	45.6180
 0.9400	45.5950
 0.9410	45.5760
 0.9420	45.5660
 0.9430	45.5460
 0.9440	45.5290
 0.9450	45.5080
 0.9460	45.4810
 0.9470	45.4560
 0.9480	45.4360
 0.9490	45.4150
 0.9500	45.3880
 0.9510	45.3550
 0.9520	45.3210
 0.9530	45.2880
 0.9540	45.2550
 0.9550	45.2230
 0.9560	45.1920
 0.9570	45.1630
 0.9580	45.1340
 0.9590	45.1080
 0.9600	45.0780
 0.9610	45.0510
 0.9620	45.0310
 0.9630	45.0040
 0.9640	44.9860
 0.9650	44.9710
 0.9660	44.9470
 0.9670	44.9410
 0.9680	44.9260
 0.9690	44.9060
 0.9700	44.8940
 0.9710	44.8790
 0.9720	44.8710
 0.9730	44.8660
 0.9740	44.8570
 0.9750	44.8530
 0.9760	44.8520
 0.9770	44.8500
 0.9780	44.8450
 0.9790	44.8310
 0.9800	44.8170
 0.9810	44.8080
 0.9820	44.8090
 0.9830	44.8160
 0.9840	44.8190
 0.9850	44.8120
 0.9860	44.7960
 0.9870	44.7940
 0.9880	44.8040
 0.9890	44.8140
 0.9900	44.8140
 0.9910	44.8150
 0.9920	44.8100
 0.9930	44.8100
 0.9940	44.8260
 0.9950	44.8340
 0.9960	44.8510
 0.9970	44.8610
 0.9980	44.8430
 0.9990	44.8390
 1.0000	44.8510
 1.0010	45.6280
 1.0020	45.6320
 1.0030	45.6320
 1.0040	45.6390
 1.0050	45.6470
 1.0060	45.6520
 1.0070	45.6620
 1.0080	45.6700
 1.0090	45.6780
 1.0100	45.6840
 1.0110	45.6880
 1.0120	45.6940
 1.0130	45.6980
 1.0140	45.7030
 1.0150	45.7100
 1.0160	45.7180
 1.0170	45.7260
 1.0180	45.7310
 1.0190	45.7390
 1.0200	45.7460
 1.0210	45.7480
 1.0220	45.7520
 1.0230	45.7570
 1.0240	45.7640
 1.0250	45.7700
 1.0260	45.7780
 1.0270	45.7870
 1.0280	45.7970
 1.0290	45.8040
 1.0300	45.8070
 1.0310	45.8140
 1.0320	45.8220
 1.0330	45.8260
 1.0340	45.8370
 1.0350	45.8480
 1.0360	45.8510
 1.0370	45.8560
 1.0380	45.8610
 1.0390	45.8630
 1.0400	45.8670
 1.0410	45.8730
 1.0420	45.8780
 1.0430	45.8810
 1.0440	45.8860
 1.0450	45.8920
 1.0460	45.8960
 1.0470	45.8990
 1.0480	45.9030
 1.0490	45.9080
 1.0500	45.9120
 1.0510	45.9150
 1.0520	45.9190
 1.0530	45.9210
 1.0540	45.9190
 1.0550	45.9180
 1.0560	45.9150
 1.0570	45.9140
 1.0580	45.9140
 1.0590	45.9140
 1.0600	45.9160
 1.0610	45.9170
 1.0620	45.9200
 1.0630	45.9200
 1.0640	45.9190
 1.0650	45.9170
 1.0660	45.9120
 1.0670	45.9080
 1.0680	45.9050
 1.0690	45.9010
 1.0700	45.8990
 1.0710	45.8960
 1.0720	45.8950
 1.0730	45.8980
 1.0740	45.8950
 1.0750	45.8900
 1.0760	45.8860
 1.0770	45.8770
 1.0780	45.8720
 1.0790	45.8700
 1.0800	45.8660
 1.0810	45.8620
 1.0820	45.8580
 1.0830	45.8550
 1.0840	45.8490
 1.0850	45.8420
 1.0860	45.8380
 1.0870	45.8330
 1.0880	45.8250
 1.0890	45.8210
 1.0900	45.8180
 1.0910	45.8140
 1.0920	45.8100
 1.0930	45.8050
 1.0940	45.7980
 1.0950	45.7910
 1.0960	45.7820
 1.0970	45.7760
 1.0980	45.7730
 1.0990	45.7670
 1.1000	45.7590
 1.1010	45.7520
 1.1020	45.7420
 1.1030	45.7320
 1.1040	45.7270
 1.1050	45.7230
 1.1060	45.7150
 1.1070	45.7060
 1.1080	45.6990
 1.1090	45.6900
 1.1100	45.6820
 1.1110	45.6770
 1.1120	45.6690
 1.1130	45.6600
 1.1140	45.6510
 1.1150	45.6410
 1.1160	45.6300
 1.1170	45.6190
 1.1180	45.6080
 1.1190	45.5970
 1.1200	45.5830
 1.1210	45.5690
 1.1220	45.5550
 1.1230	45.5360
 1.1240	45.5170
 1.1250	45.4950
 1.1260	45.4700
 1.1270	45.4420
 1.1280	45.4110
 1.1290	45.3770
 1.1300	45.3400
 1.1310	45.2980
 1.1320	45.2520
 1.1330	45.2040
 1.1340	45.1540
 1.1350	45.0980
 1.1360	45.0410
 1.1370	44.9780
 1.1380	44.9100
 1.1390	44.8380
 1.1400	44.7630
 1.1410	44.6900
 1.1420	44.6140
 1.1430	44.5350
 1.1440	44.4570
 1.1450	44.3780
 1.1460	44.3010
 1.1470	44.2250
 1.1480	44.1510
 1.1490	44.0780
 1.1500	44.0090
 1.1510	43.9430
 1.1520	43.8800
 1.1530	43.8200
 1.1540	43.7640
 1.1550	43.7130
 1.1560	43.6630
 1.1570	43.6180
 1.1580	43.5750
 1.1590	43.5340
 1.1600	43.4970
 1.1610	43.4650
 1.1620	43.4350
 1.1630	43.4100
 1.1640	43.3840
 1.1650	43.3590
 1.1660	43.3350
 1.1670	43.3130
 1.1680	43.2920
 1.1690	43.2730
 1.1700	43.2560
 1.1710	43.2400
 1.1720	43.2240
 1.1730	43.2080
 1.1740	43.1920
 1.1750	43.1770
 1.1760	43.1600
 1.1770	43.1430
 1.1780	43.1240
 1.1790	43.1050
 1.1800	43.0890
 1.1810	43.0710
 1.1820	43.0550
 1.1830	43.0400
 1.1840	43.0220
 1.1850	43.0050
 1.1860	42.9880
 1.1870	42.9710
 1.1880	42.9560
 1.1890	42.9430
 1.1900	42.9310
 1.1910	42.9200
 1.1920	42.9100
 1.1930	42.9010
 1.1940	42.8930
 1.1950	42.8850
 1.1960	42.8770
 1.1970	42.8700
 1.1980	42.8650
 1.1990	42.8630
 1.2000	42.8620
 1.2010	42.8620
 1.2020	42.8610
 1.2030	42.8620
 1.2040	42.8650
 1.2050	42.8680
 1.2060	42.8700
 1.2070	42.8750
 1.2080	42.8780
 1.2090	42.8840
 1.2100	42.8930
 1.2110	42.9010
 1.2120	42.9090
 1.2130	42.9190
 1.2140	42.9300
 1.2150	42.9410
 1.2160	42.9550
 1.2170	42.9680
 1.2180	42.9840
 1.2190	42.9990
 1.2200	43.0130
 1.2210	43.0300
 1.2220	43.0450
 1.2230	43.0600
 1.2240	43.0800
 1.2250	43.0970
 1.2260	43.1130
 1.2270	43.1290
 1.2280	43.1420
 1.2290	43.1550
 1.2300	43.1680
 1.2310	43.1790
 1.2320	43.1910
 1.2330	43.2020
 1.2340	43.2140
 1.2350	43.2250
 1.2360	43.2350
 1.2370	43.2450
 1.2380	43.2540
 1.2390	43.2620
 1.2400	43.2710
 1.2410	43.2790
 1.2420	43.2870
 1.2430	43.2940
 1.2440	43.3000
 1.2450	43.3060
 1.2460	43.3090
 1.2470	43.3120
 1.2480	43.3170
 1.2490	43.3230
 1.2500	43.3300
 1.2510	43.3370
 1.2520	43.3420
 1.2530	43.3430
 1.2540	43.3450
 1.2550	43.3470
 1.2560	43.3490
 1.2570	43.3520
 1.2580	43.3500
 1.2590	43.3500
 1.2600	43.3490
 1.2610	43.3470
 1.2620	43.3440
 1.2630	43.3430
 1.2640	43.3400
 1.2650	43.3350
 1.2660	43.3310
 1.2670	43.3260
 1.2680	43.3210
 1.2690	43.3150
 1.2700	43.3110
 1.2710	43.3060
 1.2720	43.2980
 1.2730	43.2900
 1.2740	43.2800
 1.2750	43.2700
 1.2760	43.2620
 1.2770	43.2530
 1.2780	43.2440
 1.2790	43.2350
 1.2800	43.2230
 1.2810	43.2110
 1.2820	43.1990
 1.2830	43.1850
 1.2840	43.1690
 1.2850	43.1510
 1.2860	43.1330
 1.2870	43.1130
 1.2880	43.0930
 1.2890	43.0740
 1.2900	43.0510
 1.2910	43.0260
 1.2920	43.0020
 1.2930	42.9720
 1.2940	42.9410
 1.2950	42.9110
 1.2960	42.8780
 1.2970	42.8460
 1.2980	42.8150
 1.2990	42.7800
 1.3000	42.7440
 1.3010	42.7050
 1.3020	42.6640
 1.3030	42.6240
 1.3040	42.5810
 1.3050	42.5390
 1.3060	42.4970
 1.3070	42.4520
 1.3080	42.4060
 1.3090	42.3600
 1.3100	42.3110
 1.3110	42.2620
 1.3120	42.2110
 1.3130	42.1600
 1.3140	42.1060
 1.3150	42.0490
 1.3160	41.9920
 1.3170	41.9340
 1.3180	41.8730
 1.3190	41.8120
 1.3200	41.7480
 1.3210	41.6830
 1.3220	41.6170
 1.3230	41.5500
 1.3240	41.4830
 1.3250	41.4140
 1.3260	41.3430
 1.3270	41.2700
 1.3280	41.1960
 1.3290	41.1210
 1.3300	41.0450
 1.3310	40.9660
 1.3320	40.8850
 1.3330	40.8040
 1.3340	40.7230
 1.3350	40.6430
 1.3360	40.5620
 1.3370	40.4780
 1.3380	40.3960
 1.3390	40.3130
 1.3400	40.2290
 1.3410	40.1480
 1.3420	40.0660
 1.3430	39.9830
 1.3440	39.9020
 1.3450	39.8220
 1.3460	39.7420
 1.3470	39.6630
 1.3480	39.5830
 1.3490	39.5060
 1.3500	39.4280
 1.3510	39.3510
 1.3520	39.2750
 1.3530	39.2000
 1.3540	39.1220
 1.3550	39.0440
 1.3560	38.9660
 1.3570	38.8860
 1.3580	38.8070
 1.3590	38.7260
 1.3600	38.6430
 1.3610	38.5580
 1.3620	38.4680
 1.3630	38.3770
 1.3640	38.2810
 1.3650	38.1780
 1.3660	38.0710
 1.3670	37.9580
 1.3680	37.8370
 1.3690	37.7090
 1.3700	37.5740
 1.3710	37.4280
 1.3720	37.2700
 1.3730	37.1010
 1.3740	36.9180
 1.3750	36.7220
 1.3760	36.5110
 1.3770	36.2840
 1.3780	36.0390
 1.3790	35.7750
 1.3800	35.4930
 1.3810	35.1900
 1.3820	34.8710
 1.3830	34.5330
 1.3840	34.1780
 1.3850	33.8050
 1.3860	33.4160
 1.3870	33.0050
 1.3880	32.5850
 1.3890	32.1500
 1.3900	31.6990
 1.3910	31.2440
 1.3920	30.7780
 1.3930	30.3040
 1.3940	29.8280
 1.3950	29.3460
 1.3960	28.8650
 1.3970	28.3900
 1.3980	27.9170
 1.3990	27.4560
 1.4000	27.0010
 1.4010	26.5530
 1.4020	26.1200
 1.4030	25.6960
 1.4040	25.2860
 1.4050	24.8940
 1.4060	24.5170
 1.4070	24.1610
 1.4080	23.8200
 1.4090	23.4930
 1.4100	23.1860
 1.4110	22.8920
 1.4120	22.6160
 1.4130	22.3590
 1.4140	22.1150
 1.4150	21.8910
 1.4160	21.6810
 1.4170	21.4840
 1.4180	21.3020
 1.4190	21.1300
 1.4200	20.9680
 1.4210	20.8200
 1.4220	20.6810
 1.4230	20.5550
 1.4240	20.4380
 1.4250	20.3290
 1.4260	20.2300
 1.4270	20.1380
 1.4280	20.0550
 1.4290	19.9770
 1.4300	19.9060
 1.4310	19.8420
 1.4320	19.7840
 1.4330	19.7320
 1.4340	19.6870
 1.4350	19.6450
 1.4360	19.6080
 1.4370	19.5750
 1.4380	19.5480
 1.4390	19.5250
 1.4400	19.5060
 1.4410	19.4910
 1.4420	19.4790
 1.4430	19.4700
 1.4440	19.4630
 1.4450	19.4600
 1.4460	19.4590
 1.4470	19.4600
 1.4480	19.4630
 1.4490	19.4690
 1.4500	19.4770
 1.4510	19.4860
 1.4520	19.4970
 1.4530	19.5080
 1.4540	19.5200
 1.4550	19.5360
 1.4560	19.5540
 1.4570	19.5750
 1.4580	19.6010
 1.4590	19.6290
 1.4600	19.6620
 1.4610	19.6980
 1.4620	19.7370
 1.4630	19.7810
 1.4640	19.8290
 1.4650	19.8810
 1.4660	19.9400
 1.4670	20.0040
 1.4680	20.0730
 1.4690	20.1460
 1.4700	20.2210
 1.4710	20.3020
 1.4720	20.3860
 1.4730	20.4740
 1.4740	20.5650
 1.4750	20.6580
 1.4760	20.7550
 1.4770	20.8540
 1.4780	20.9550
 1.4790	21.0590
 1.4800	21.1620
 1.4810	21.2670
 1.4820	21.3740
 1.4830	21.4810
 1.4840	21.5910
 1.4850	21.7010
 1.4860	21.8120
 1.4870	21.9250
 1.4880	22.0370
 1.4890	22.1500
 1.4900	22.2630
 1.4910	22.3760
 1.4920	22.4900
 1.4930	22.6040
 1.4940	22.7180
 1.4950	22.8320
 1.4960	22.9460
 1.4970	23.0580
 1.4980	23.1720
 1.4990	23.2870
 1.5000	23.4020
 1.5010	23.5180
 1.5020	23.6330
 1.5030	23.7500
 1.5040	23.8640
 1.5050	23.9770
 1.5060	24.0910
 1.5070	24.2020
 1.5080	24.3140
 1.5090	24.4260
 1.5100	24.5390
 1.5110	24.6500
 1.5120	24.7620
 1.5130	24.8730
 1.5140	24.9830
 1.5150	25.0920
 1.5160	25.2000
 1.5170	25.3080
 1.5180	25.4140
 1.5190	25.5210
 1.5200	25.6270
 1.5210	25.7310
 1.5220	25.8360
 1.5230	25.9380
 1.5240	26.0400
 1.5250	26.1420
 1.5260	26.2420
 1.5270	26.3420
 1.5280	26.4400
 1.5290	26.5360
 1.5300	26.6320
 1.5310	26.7260
 1.5320	26.8190
 1.5330	26.9140
 1.5340	27.0060
 1.5350	27.0980
 1.5360	27.1900
 1.5370	27.2800
 1.5380	27.3680
 1.5390	27.4560
 1.5400	27.5420
 1.5410	27.6270
 1.5420	27.7120
 1.5430	27.7970
 1.5440	27.8800
 1.5450	27.9630
 1.5460	28.0450
 1.5470	28.1270
 1.5480	28.2080
 1.5490	28.2900
 1.5500	28.3680
 1.5510	28.4460
 1.5520	28.5240
 1.5530	28.5990
 1.5540	28.6720
 1.5550	28.7460
 1.5560	28.8160
 1.5570	28.8860
 1.5580	28.9570
 1.5590	29.0270
 1.5600	29.0980
 1.5610	29.1680
 1.5620	29.2360
 1.5630	29.3010
 1.5640	29.3640
 1.5650	29.4270
 1.5660	29.4890
 1.5670	29.5510
 1.5680	29.6140
 1.5690	29.6760
 1.5700	29.7350
 1.5710	29.7960
 1.5720	29.8570
 1.5730	29.9170
 1.5740	29.9770
 1.5750	30.0350
 1.5760	30.0930
 1.5770	30.1490
 1.5780	30.2060
 1.5790	30.2620
 1.5800	30.3160
 1.5810	30.3730
 1.5820	30.4280
 1.5830	30.4830
 1.5840	30.5400
 1.5850	30.5950
 1.5860	30.6480
 1.5870	30.7020
 1.5880	30.7560
 1.5890	30.8100
 1.5900	30.8620
 1.5910	30.9160
 1.5920	30.9680
 1.5930	31.0190
 1.5940	31.0710
 1.5950	31.1230
 1.5960	31.1730
 1.5970	31.2240
 1.5980	31.2730
 1.5990	31.3210
 1.6000	31.3690
 1.6010	31.4160
 1.6020	31.4620
 1.6030	31.5080
 1.6040	31.5540
 1.6050	31.5980
 1.6060	31.6420
 1.6070	31.6850
 1.6080	31.7290
 1.6090	31.7720
 1.6100	31.8140
 1.6110	31.8550
 1.6120	31.8950
 1.6130	31.9340
 1.6140	31.9740
 1.6150	32.0130
 1.6160	32.0520
 1.6170	32.0890
 1.6180	32.1250
 1.6190	32.1620
 1.6200	32.1970
 1.6210	32.2310
 1.6220	32.2640
 1.6230	32.2950
 1.6240	32.3280
 1.6250	32.3620
 1.6260	32.3940
 1.6270	32.4250
 1.6280	32.4530
 1.6290	32.4830
 1.6300	32.5150
 1.6310	32.5450
 1.6320	32.5750
 1.6330	32.6030
 1.6340	32.6280
 1.6350	32.6550
 1.6360	32.6800
 1.6370	32.7060
 1.6380	32.7330
 1.6390	32.7580
 1.6400	32.7810
 1.6410	32.8010
 1.6420	32.8190
 1.6430	32.8370
 1.6440	32.8550
 1.6450	32.8730
 1.6460	32.8900
 1.6470	32.9050
 1.6480	32.9160
 1.6490	32.9250
 1.6500	32.9320
 1.6510	32.9370
 1.6520	32.9410
 1.6530	32.9460
 1.6540	32.9470
 1.6550	32.9470
 1.6560	32.9470
 1.6570	32.9440
 1.6580	32.9400
 1.6590	32.9340
 1.6600	32.9280
 1.6610	32.9200
 1.6620	32.9130
 1.6630	32.9070
 1.6640	32.9000
 1.6650	32.8910
 1.6660	32.8810
 1.6670	32.8690
 1.6680	32.8560
 1.6690	32.8410
 1.6700	32.8270
 1.6710	32.8120
 1.6720	32.7960
 1.6730	32.7770
 1.6740	32.7560
 1.6750	32.7330
 1.6760	32.7080
 1.6770	32.6840
 1.6780	32.6570
 1.6790	32.6280
 1.6800	32.5960
 1.6810	32.5620
 1.6820	32.5250
 1.6830	32.4860
 1.6840	32.4450
 1.6850	32.4040
 1.6860	32.3610
 1.6870	32.3180
 1.6880	32.2760
 1.6890	32.2310
 1.6900	32.1870
 1.6910	32.1440
 1.6920	32.1000
 1.6930	32.0580
 1.6940	32.0140
 1.6950	31.9700
 1.6960	31.9260
 1.6970	31.8830
 1.6980	31.8390
 1.6990	31.7950
 1.7000	31.7520
 1.7010	31.7090
 1.7020	31.6650
 1.7030	31.6200
 1.7040	31.5760
 1.7050	31.5310
 1.7060	31.4880
 1.7070	31.4470
 1.7080	31.4060
 1.7090	31.3660
 1.7100	31.3250
 1.7110	31.2840
 1.7120	31.2420
 1.7130	31.2000
 1.7140	31.1590
 1.7150	31.1190
 1.7160	31.0790
 1.7170	31.0370
 1.7180	30.9960
 1.7190	30.9550
 1.7200	30.9150
 1.7210	30.8760
 1.7220	30.8340
 1.7230	30.7930
 1.7240	30.7520
 1.7250	30.7110
 1.7260	30.6730
 1.7270	30.6390
 1.7280	30.6050
 1.7290	30.5750
 1.7300	30.5470
 1.7310	30.5200
 1.7320	30.4970
 1.7330	30.4730
 1.7340	30.4500
 1.7350	30.4290
 1.7360	30.4090
 1.7370	30.3870
 1.7380	30.3670
 1.7390	30.3430
 1.7400	30.3160
 1.7410	30.2870
 1.7420	30.2560
 1.7430	30.2230
 1.7440	30.1890
 1.7450	30.1520
 1.7460	30.1140
 1.7470	30.0740
 1.7480	30.0320
 1.7490	29.9890
 1.7500	29.9450
 1.7510	29.9010
 1.7520	29.8580
 1.7530	29.8120
 1.7540	29.7670
 1.7550	29.7210
 1.7560	29.6760
 1.7570	29.6320
 1.7580	29.5920
 1.7590	29.5520
 1.7600	29.5120
 1.7610	29.4700
 1.7620	29.4320
 1.7630	29.3950
 1.7640	29.3620
 1.7650	29.3340
 1.7660	29.3070
 1.7670	29.2810
 1.7680	29.2550
 1.7690	29.2290
 1.7700	29.2050
 1.7710	29.1790
 1.7720	29.1570
 1.7730	29.1400
 1.7740	29.1190
 1.7750	29.1000
 1.7760	29.0810
 1.7770	29.0590
 1.7780	29.0420
 1.7790	29.0260
 1.7800	29.0120
 1.7810	28.9980
 1.7820	28.9860
 1.7830	28.9750
 1.7840	28.9650
 1.7850	28.9560
 1.7860	28.9490
 1.7870	28.9440
 1.7880	28.9410
 1.7890	28.9410
 1.7900	28.9380
 1.7910	28.9370
 1.7920	28.9380
 1.7930	28.9390
 1.7940	28.9420
 1.7950	28.9460
 1.7960	28.9490
 1.7970	28.9550
 1.7980	28.9650
 1.7990	28.9730
 1.8000	28.9820
 1.8010	28.9900
 1.8020	28.9970
 1.8030	29.0050
 1.8040	29.0130
 1.8050	29.0230
 1.8060	29.0320
 1.8070	29.0410
 1.8080	29.0500
 1.8090	29.0590
 1.8100	29.0650
 1.8110	29.0770
 1.8120	29.0850
 1.8130	29.0910
 1.8140	29.0970
 1.8150	29.1000
 1.8160	29.1040
 1.8170	29.1130
 1.8180	29.1210
 1.8190	29.1240
 1.8200	29.1260
 1.8210	29.1220
 1.8220	29.1210
 1.8230	29.1220
 1.8240	29.1210
 1.8250	29.1220
 1.8260	29.1220
 1.8270	29.1220
 1.8280	29.1180
 1.8290	29.1120
 1.8300	29.1040
 1.8310	28.4650
 1.8320	28.4510
 1.8330	28.4350
 1.8340	28.4170
 1.8350	28.3920
 1.8360	28.3640
 1.8370	28.3330
 1.8380	28.2930
 1.8390	28.2540
 1.8400	28.2170
 1.8410	28.1720
 1.8420	28.1230
 1.8430	28.0720
 1.8440	28.0110
 1.8450	27.9400
 1.8460	27.8620
 1.8470	27.7790
 1.8480	27.6900
 1.8490	27.5900
 1.8500	27.4820
 1.8510	27.3650
 1.8520	27.2390
 1.8530	27.1010
 1.8540	26.9560
 1.8550	26.8050
 1.8560	26.6400
 1.8570	26.4630
 1.8580	26.2740
 1.8590	26.0710
 1.8600	25.8550
 1.8610	25.6230
 1.8620	25.3760
 1.8630	25.1130
 1.8640	24.8350
 1.8650	24.5400
 1.8660	24.2290
 1.8670	23.8970
 1.8680	23.5460
 1.8690	23.1780
 1.8700	22.7910
 1.8710	22.3840
 1.8720	21.9670
 1.8730	21.5330
 1.8740	21.0810
 1.8750	20.6160
 1.8760	20.1330
 1.8770	19.6410
 1.8780	19.1430
 1.8790	18.6340
 1.8800	18.1270
 1.8810	17.6160
 1.8820	17.1030
 1.8830	16.5870
 1.8840	16.0730
 1.8850	15.5570
 1.8860	15.0450
 1.8870	14.5420
 1.8880	14.0480
 1.8890	13.5700
 1.8900	13.1100
 1.8910	12.6690
 1.8920	12.2450
 1.8930	11.8430
 1.8940	11.4600
 1.8950	11.0990
 1.8960	10.7600
 1.8970	10.4440
 1.8980	10.1530
 1.8990	 9.8830
 1.9000	 9.6330
 1.9010	 9.4060
 1.9020	 9.1960
 1.9030	 9.0060
 1.9040	 8.8330
 1.9050	 8.6760
 1.9060	 8.5360
 1.9070	 8.4110
 1.9080	 8.2980
 1.9090	 8.1990
 1.9100	 8.1080
 1.9110	 8.0270
 1.9120	 7.9570
 1.9130	 7.8930
 1.9140	 7.8380
 1.9150	 7.7900
 1.9160	 7.7430
 1.9170	 7.7010
 1.9180	 7.6660
 1.9190	 7.6360
 1.9200	 7.6120
 1.9210	 7.5920
 1.9220	 7.5740
 1.9230	 7.5560
 1.9240	 7.5420
 1.9250	 7.5330
 1.9260	 7.5250
 1.9270	 7.5190
 1.9280	 7.5180
 1.9290	 7.5170
 1.9300	 7.5190
 1.9310	 7.5230
 1.9320	 7.5270
 1.9330	 7.5360
 1.9340	 7.5470
 1.9350	 7.5600
 1.9360	 7.5790
 1.9370	 7.5980
 1.9380	 7.6180
 1.9390	 7.6400
 1.9400	 7.6620
 1.9410	 7.6860
 1.9420	 7.7130
 1.9430	 7.7400
 1.9440	 7.7680
 1.9450	 7.7980
 1.9460	 7.8290
 1.9470	 7.8590
 1.9480	 7.8930
 1.9490	 7.9290
 1.9500	 7.9690
 1.9510	 8.0080
 1.9520	 8.0490
 1.9530	 8.0890
 1.9540	 8.1300
 1.9550	 8.1730
 1.9560	 8.2170
 1.9570	 8.2630
 1.9580	 8.3120
 1.9590	 8.3600
 1.9600	 8.4090
 1.9610	 8.4600
 1.9620	 8.5110
 1.9630	 8.5650
 1.9640	 8.6210
 1.9650	 8.6760
 1.9660	 8.7300
 1.9670	 8.7840
 1.9680	 8.8380
 1.9690	 8.8920
 1.9700	 8.9480
 1.9710	 9.0060
 1.9720	 9.0660
 1.9730	 9.1280
 1.9740	 9.1930
 1.9750	 9.2580
 1.9760	 9.3210
 1.9770	 9.3840
 1.9780	 9.4510
 1.9790	 9.5180
 1.9800	 9.5860
 1.9810	 9.6550
 1.9820	 9.7240
 1.9830	 9.7940
 1.9840	 9.8680
 1.9850	 9.9400
 1.9860	10.0120
 1.9870	10.0850
 1.9880	10.1580
 1.9890	10.2280
 1.9900	10.2990
 1.9910	10.3730
 1.9920	10.4460
 1.9930	10.5170
 1.9940	10.5890
 1.9950	10.6640
 1.9960	10.7370
 1.9970	10.8090
 1.9980	10.8830
 1.9990	10.9590
 2.0000	11.0320
 2.0010	11.1090
 2.0020	11.1880
 2.0030	11.2620
 2.0040	11.3370
 2.0050	11.4120
 2.0060	11.4850
 2.0070	11.5600
 2.0080	11.6360
 2.0090	11.7090
 2.0100	11.7790
 2.0110	11.8510
 2.0120	11.9220
 2.0130	11.9920
 2.0140	12.0670
 2.0150	12.1380
 2.0160	12.2080
 2.0170	12.2780
 2.0180	12.3480
 2.0190	12.4170
 2.0200	12.4850
 2.0210	12.5540
 2.0220	12.6200
 2.0230	12.6830
 2.0240	12.7450
 2.0250	12.8040
 2.0260	12.8640
 2.0270	12.9240
 2.0280	12.9830
 2.0290	13.0450
 2.0300	13.1010
 2.0310	13.1580
 2.0320	13.2150
 2.0330	13.2700
 2.0340	13.3230
 2.0350	13.3750
 2.0360	13.4230
 2.0370	13.4730
 2.0380	13.5230
 2.0390	13.5710
 2.0400	13.6210
 2.0410	13.6680
 2.0420	13.7090
 2.0430	13.7490
 2.0440	13.7910
 2.0450	13.8300
 2.0460	13.8720
 2.0470	13.9150
 2.0480	13.9580
 2.0490	14.0030
 2.0500	14.0440
 2.0510	14.0820
 2.0520	14.1240
 2.0530	14.1640
 2.0540	14.2070
 2.0550	14.2530
 2.0560	14.3010
 2.0570	14.3510
 2.0580	14.4010
 2.0590	14.4480
 2.0600	14.4950
 2.0610	14.5420
 2.0620	14.5830
 2.0630	14.6320
 2.0640	14.6890
 2.0650	14.7400
 2.0660	14.7920
 2.0670	14.8440
 2.0680	14.8940
 2.0690	14.9460
 2.0700	15.0000
 2.0710	15.0530
 2.0720	15.1050
 2.0730	15.1570
 2.0740	15.2080
 2.0750	15.2580
 2.0760	15.3090
 2.0770	15.3620
 2.0780	15.4130
 2.0790	15.4640
 2.0800	15.5140
 2.0810	15.5610
 2.0820	15.6090
 2.0830	15.6590
 2.0840	15.7050
 2.0850	15.7500
 2.0860	15.7950
 2.0870	15.8380
 2.0880	15.8810
 2.0890	15.9250
 2.0900	15.9710
 2.0910	16.0160
 2.0920	16.0630
 2.0930	16.1100
 2.0940	16.1590
 2.0950	16.2070
 2.0960	16.2560
 2.0970	16.3020
 2.0980	16.3430
 2.0990	16.3860
 2.1000	16.4240
 2.1010	16.4650
 2.1020	16.5070
 2.1030	16.5500
 2.1040	16.5940
 2.1050	16.6390
 2.1060	16.6800
 2.1070	16.7210
 2.1080	16.7600
 2.1090	16.7950
 2.1100	16.8340
 2.1110	16.8730
 2.1120	16.9130
 2.1130	16.9550
 2.1140	16.9940
 2.1150	17.0310
 2.1160	17.0690
 2.1170	17.1080
 2.1180	17.1470
 2.1190	17.1890
 2.1200	17.2280
 2.1210	17.2680
 2.1220	17.3040
 2.1230	17.3390
 2.1240	17.3710
 2.1250	17.4020
 2.1260	17.4290
 2.1270	17.4610
 2.1280	17.4960
 2.1290	17.5250
 2.1300	17.5540
 2.1310	17.5810
 2.1320	17.6000
 2.1330	17.6230
 2.1340	17.6490
 2.1350	17.6720
 2.1360	17.6950
 2.1370	17.7180
 2.1380	17.7420
 2.1390	17.7640
 2.1400	17.7870
 2.1410	17.8110
 2.1420	17.8330
 2.1430	17.8530
 2.1440	17.8740
 2.1450	17.8950
 2.1460	17.9150
 2.1470	17.9350
 2.1480	17.9560
 2.1490	17.9770
 2.1500	17.9960
 2.1510	18.0150
 2.1520	18.0300
 2.1530	18.0410
 2.1540	18.0540
 2.1550	18.0630
 2.1560	18.0750
 2.1570	18.0900
 2.1580	18.1060
 2.1590	18.1240
 2.1600	18.1410
 2.1610	18.1550
 2.1620	18.1670
 2.1630	18.1780
 2.1640	18.1860
 2.1650	18.1960
 2.1660	18.2050
 2.1670	18.2160
 2.1680	18.2250
 2.1690	18.2400
 2.1700	18.2610
 2.1710	18.2790
 2.1720	18.2990
 2.1730	18.3190
 2.1740	18.3370
 2.1750	18.3560
 2.1760	18.3780
 2.1770	18.3980
 2.1780	18.4140
 2.1790	18.4350
 2.1800	18.4580
 2.1810	18.4810
 2.1820	18.5080
 2.1830	18.5330
 2.1840	18.5600
 2.1850	18.5880
 2.1860	18.6140
 2.1870	18.6410
 2.1880	18.6670
 2.1890	18.6910
 2.1900	18.7150
 2.1910	18.7410
 2.1920	18.7650
 2.1930	18.7870
 2.1940	18.8100
 2.1950	18.8310
 2.1960	18.8550
 2.1970	18.8790
 2.1980	18.9030
 2.1990	18.9300
 2.2000	18.9560
 2.2010	18.9810
 2.2020	19.0050
 2.2030	19.0280
 2.2040	19.0490
 2.2050	19.0690
 2.2060	19.0880
 2.2070	19.1060
 2.2080	19.1240
 2.2090	19.1400
 2.2100	19.1540
 2.2110	19.1690
 2.2120	19.1830
 2.2130	19.1980
 2.2140	19.2160
 2.2150	19.2310
 2.2160	19.2460
 2.2170	19.2560
 2.2180	19.2620
 2.2190	19.2690
 2.2200	19.2760
 2.2210	19.2790
 2.2220	19.2790
 2.2230	19.2790
 2.2240	19.2770
 2.2250	19.2720
 2.2260	19.2700
 2.2270	19.2610
 2.2280	19.2500
 2.2290	19.2340
 2.2300	19.2120
 2.2310	19.1910
 2.2320	19.1700
 2.2330	19.1470
 2.2340	19.1200
 2.2350	19.0920
 2.2360	19.0590
 2.2370	19.0190
 2.2380	18.9770
 2.2390	18.9320
 2.2400	18.8860
 2.2410	18.8360
 2.2420	18.7840
 2.2430	18.7330
 2.2440	18.6770
 2.2450	18.6170
 2.2460	18.5560
 2.2470	18.4940
 2.2480	18.4280
 2.2490	18.3560
 2.2500	18.2850
 2.2510	18.2070
 2.2520	18.1340
 2.2530	18.0640
 2.2540	17.9930
 2.2550	17.9250
 2.2560	17.8550
 2.2570	17.7800
 2.2580	17.7120
 2.2590	17.6490
 2.2600	17.5820
 2.2610	17.5130
 2.2620	17.4480
 2.2630	17.3790
 2.2640	17.3080
 2.2650	17.2450
 2.2660	17.1790
 2.2670	17.1140
 2.2680	17.0480
 2.2690	16.9860
 2.2700	16.9260
 2.2710	16.8680
 2.2720	16.8130
 2.2730	16.7610
 2.2740	16.7120
 2.2750	16.6630
 2.2760	16.6190
 2.2770	16.5740
 2.2780	16.5290
 2.2790	16.4860
 2.2800	16.4470
 2.2810	16.4030
 2.2820	16.3560
 2.2830	16.3110
 2.2840	16.2640
 2.2850	16.2180
 2.2860	16.1730
 2.2870	16.1290
 2.2880	16.0810
 2.2890	16.0360
 2.2900	15.9980
 2.2910	15.9540
 2.2920	15.9110
 2.2930	15.8650
 2.2940	15.8140
 2.2950	15.7620
 2.2960	15.7030
 2.2970	15.6490
 2.2980	15.5930
 2.2990	15.5370
 2.3000	15.4920
 2.3010	15.4430
 2.3020	15.3890
 2.3030	15.3420
 2.3040	15.2910
 2.3050	15.2390
 2.3060	15.1930
 2.3070	15.1480
 2.3080	15.1080
 2.3090	15.0680
 2.3100	15.0280
 2.3110	14.9970
 2.3120	14.9720
 2.3130	14.9520
 2.3140	14.9370
 2.3150	14.9320
 2.3160	14.9230
 2.3170	14.9160
 2.3180	14.9100
 2.3190	14.9090
 2.3200	14.9020
 2.3210	14.8940
 2.3220	14.8850
 2.3230	14.8750
 2.3240	14.8580
 2.3250	14.8400
 2.3260	14.8150
 2.3270	14.7780
 2.3280	14.7460
 2.3290	14.7110
 2.3300	14.6790
 2.3310	14.6540
 2.3320	14.6190
 2.3330	14.5810
 2.3340	14.5400
 2.3350	14.4890
 2.3360	14.4460
 2.3370	14.4090
 2.3380	14.3670
 2.3390	14.3250
 2.3400	14.2840
 2.3410	14.2400
 2.3420	14.2000
 2.3430	14.1670
 2.3440	14.1260
 2.3450	14.0810
 2.3460	14.0340
 2.3470	13.9740
 2.3480	13.9270
 2.3490	13.8830
 2.3500	13.8470
 2.3510	13.8270
 2.3520	13.8010
 2.3530	13.7750
 2.3540	13.7580
 2.3550	13.7390
 2.3560	13.7180
 2.3570	13.7040
 2.3580	13.6800
 2.3590	13.6560
 2.3600	13.6310
 2.3610	13.6010
 2.3620	13.5760
 2.3630	13.5430
 2.3640	13.5130
 2.3650	13.4860
 2.3660	13.4480
 2.3670	13.4140
 2.3680	13.3780
 2.3690	13.3420
 2.3700	13.3140
 2.3710	13.2800
 2.3720	13.2470
 2.3730	13.2110
 2.3740	13.1610
 2.3750	13.1170
 2.3760	13.0850
 2.3770	13.0550
 2.3780	13.0340
 2.3790	13.0050
 2.3800	12.9560
 2.3810	12.9030
 2.3820	12.8530
 2.3830	12.8010
 2.3840	12.7600
 2.3850	12.7270
 2.3860	12.6820
 2.3870	12.6410
 2.3880	12.6090
 2.3890	12.5710
 2.3900	12.5350
 2.3910	12.5000
 2.3920	12.4540
 2.3930	12.4130
 2.3940	12.3710
 2.3950	12.3220
 2.3960	12.2830
 2.3970	12.2400
 2.3980	12.1960
 2.3990	12.1590
 2.4000	12.1140
 2.4010	12.0720
 2.4020	12.0260
 2.4030	11.9720
 2.4040	11.9220
 2.4050	11.8640
 2.4060	11.8120
 2.4070	11.7720
 2.4080	11.7340
 2.4090	11.6920
 2.4100	11.6500
 2.4110	11.6100
 2.4120	11.5640
 2.4130	11.5190
 2.4140	11.4820
 2.4150	11.4390
 2.4160	11.3870
 2.4170	11.3450
 2.4180	11.2970
 2.4190	11.2410
 2.4200	11.2040
 2.4210	11.1570
 2.4220	11.0990
 2.4230	11.0530
 2.4240	10.9930
 2.4250	10.9460
 2.4260	10.9090
 2.4270	10.8690
 2.4280	10.8370
 2.4290	10.7920
 2.4300	10.7410
 2.4310	10.6930
 2.4320	10.6450
 2.4330	10.6030
 2.4340	10.5550
 2.4350	10.5010
 2.4360	10.4440
 2.4370	10.3720
 2.4380	10.3080
 2.4390	10.2560
 2.4400	10.2000
 2.4410	10.1490
 2.4420	10.1060
 2.4430	10.0690
 2.4440	10.0220
 2.4450	 9.9710
 2.4460	 9.9210
 2.4470	 9.8720
 2.4480	 9.8280
 2.4490	 9.8040
 2.4500	 9.7810
 2.4510	 9.7330
 2.4520	 9.6860
 2.4530	 9.6380
 2.4540	 9.5940
 2.4550	 9.5510
 2.4560	 9.5050
 2.4570	 9.4660
 2.4580	 9.4040
 2.4590	 9.3610
 2.4600	 9.3330
 2.4610	 9.2740
 2.4620	 9.2430
 2.4630	 9.2060
 2.4640	 9.1520
 2.4650	 9.1120
 2.4660	 9.0730
 2.4670	 9.0440
 2.4680	 9.0100
 2.4690	 9.0180
 2.4700	 8.9950
 2.4710	 8.9650
 2.4720	 8.9350
 2.4730	 8.8740
 2.4740	 8.8380
 2.4750	 8.8070
 2.4760	 8.7900
 2.4770	 8.8040
 2.4780	 8.7960
 2.4790	 8.7950
 2.4800	 8.7770
 2.4810	 8.7290
 2.4820	 8.6720
 2.4830	 8.6240
 2.4840	 8.5810
 2.4850	 8.5400
 2.4860	 8.5100
 2.4870	 8.5110
 2.4880	 8.5060
 2.4890	 8.5090
 2.4900	 8.5220
 2.4910	 8.4850
 2.4920	 8.4290
 2.4930	 8.3920
 2.4940	 8.3830
 2.4950	 8.3840
 2.4960	 8.3930
 2.4970	 8.4260
 2.4980	 8.4320
 2.4990	 8.4720
 2.5000	 8.5120
