Name: Bambusa tuldoides
Type: vegetation
Class: Tree
Genus: Bambusa
Species: tuldoides
Sample No.: JPL216
Owner: JPL
Wavelength Range: TIR
Origin: 34.125377; -118.111364; WGS84
Collection Date: 10/3/2016
Description: Samples were collected at the Huntington Garden in San Marino California as part of a JPL Subcontract studying HyTES imagery. Samples were taken to JPL and processed within 48 hours of collection. The same leaves were processed in the Nicolet and then measured using the ASD.
Measurement: Hemispherical reflectance
First Column: X
Second Column: Y
X Units: Wavelength (micrometer)
Y Units: Reflectance (percentage)
First X Value: 2.501
Last X Value: 15.387
Number of X Values: 1737
Additional Information: vegetation.tree.bambusa.tuldoides.tir.jpl216.jpl.nicolet.ancillary.txt

 2.5010	 7.2140
 2.5030	 7.1470
 2.5040	 7.1540
 2.5050	 7.1230
 2.5060	 7.1420
 2.5070	 7.1140
 2.5090	 7.0950
 2.5100	 7.0620
 2.5110	 7.0420
 2.5120	 6.9900
 2.5140	 7.0300
 2.5150	 6.9950
 2.5160	 6.9840
 2.5170	 6.9140
 2.5180	 6.8840
 2.5200	 6.8820
 2.5210	 6.9790
 2.5220	 7.0310
 2.5230	 7.0290
 2.5250	 6.9680
 2.5260	 7.0090
 2.5270	 6.9580
 2.5280	 6.9070
 2.5300	 6.8940
 2.5310	 6.9220
 2.5320	 6.8360
 2.5330	 6.8190
 2.5340	 6.8410
 2.5360	 6.8630
 2.5370	 6.8620
 2.5380	 6.9320
 2.5390	 6.9120
 2.5410	 6.9440
 2.5420	 6.8520
 2.5430	 6.7450
 2.5440	 6.7740
 2.5460	 6.9410
 2.5470	 6.9510
 2.5480	 6.8690
 2.5490	 6.8180
 2.5510	 6.8880
 2.5520	 6.8420
 2.5530	 6.8740
 2.5540	 6.9890
 2.5560	 7.0440
 2.5570	 7.0170
 2.5580	 7.0320
 2.5590	 6.9480
 2.5610	 6.7970
 2.5620	 6.5680
 2.5630	 6.5610
 2.5650	 6.6500
 2.5660	 6.9340
 2.5670	 7.0640
 2.5680	 7.0180
 2.5700	 6.7850
 2.5710	 6.8310
 2.5720	 6.9040
 2.5730	 6.6080
 2.5750	 6.6870
 2.5760	 6.8490
 2.5770	 6.6400
 2.5790	 6.7850
 2.5800	 6.9200
 2.5810	 6.8120
 2.5820	 6.7330
 2.5840	 6.4650
 2.5850	 6.4560
 2.5860	 6.7540
 2.5880	 6.5330
 2.5890	 6.5730
 2.5900	 6.7440
 2.5910	 6.8320
 2.5930	 6.6470
 2.5940	 6.0940
 2.5950	 5.6130
 2.5970	 6.1060
 2.5980	 6.6150
 2.5990	 6.7280
 2.6010	 6.5790
 2.6020	 6.4720
 2.6030	 6.3910
 2.6040	 6.1740
 2.6060	 5.8570
 2.6070	 5.9830
 2.6080	 6.1300
 2.6100	 6.1650
 2.6110	 6.1740
 2.6120	 6.2160
 2.6140	 6.1420
 2.6150	 6.1740
 2.6160	 5.8480
 2.6180	 5.6450
 2.6190	 5.7620
 2.6200	 5.6020
 2.6220	 5.5880
 2.6230	 5.8700
 2.6240	 5.8610
 2.6260	 5.7170
 2.6270	 5.4480
 2.6280	 5.5310
 2.6300	 5.3780
 2.6310	 5.0750
 2.6320	 5.2210
 2.6340	 5.3260
 2.6350	 5.2660
 2.6360	 5.3790
 2.6380	 5.3220
 2.6390	 5.2700
 2.6400	 5.2170
 2.6420	 5.2640
 2.6430	 5.1990
 2.6440	 5.0800
 2.6460	 4.9070
 2.6470	 4.9430
 2.6480	 4.9650
 2.6500	 4.9380
 2.6510	 4.8150
 2.6520	 4.6520
 2.6540	 4.5850
 2.6550	 4.6280
 2.6570	 4.5500
 2.6580	 4.5420
 2.6590	 4.3790
 2.6610	 4.3570
 2.6620	 4.2910
 2.6630	 4.2270
 2.6650	 3.9320
 2.6660	 3.7340
 2.6670	 3.7200
 2.6690	 3.8850
 2.6700	 3.6250
 2.6720	 3.6010
 2.6730	 3.8680
 2.6740	 3.8880
 2.6760	 3.6990
 2.6770	 3.5400
 2.6780	 3.5200
 2.6800	 3.5480
 2.6810	 3.6820
 2.6830	 3.7210
 2.6840	 3.5590
 2.6850	 3.5590
 2.6870	 3.5580
 2.6880	 3.6020
 2.6900	 3.5700
 2.6910	 3.5830
 2.6920	 3.4510
 2.6940	 3.2860
 2.6950	 3.2230
 2.6970	 3.3040
 2.6980	 3.3330
 2.6990	 3.3950
 2.7010	 3.3420
 2.7020	 3.3340
 2.7040	 3.3510
 2.7050	 3.4010
 2.7060	 3.3680
 2.7080	 3.3330
 2.7090	 3.2050
 2.7110	 3.0420
 2.7120	 3.0250
 2.7130	 3.2630
 2.7150	 3.2910
 2.7160	 3.3250
 2.7180	 3.2810
 2.7190	 3.1330
 2.7210	 2.8810
 2.7220	 2.9960
 2.7230	 3.0230
 2.7250	 2.9660
 2.7260	 3.0850
 2.7280	 3.2640
 2.7290	 3.2490
 2.7310	 3.2600
 2.7320	 3.2570
 2.7340	 3.2440
 2.7350	 3.1030
 2.7360	 3.1580
 2.7380	 3.1300
 2.7390	 2.9040
 2.7410	 2.8480
 2.7420	 3.0490
 2.7440	 3.1490
 2.7450	 3.1920
 2.7470	 3.1920
 2.7480	 3.2180
 2.7490	 3.2360
 2.7510	 3.2280
 2.7520	 3.2070
 2.7540	 3.1920
 2.7550	 2.8780
 2.7570	 2.9000
 2.7580	 3.0820
 2.7600	 3.1610
 2.7610	 3.1360
 2.7630	 3.0370
 2.7640	 3.0000
 2.7660	 3.1460
 2.7670	 3.1290
 2.7690	 3.1100
 2.7700	 3.0360
 2.7720	 3.0270
 2.7730	 3.0710
 2.7740	 3.1480
 2.7760	 3.1430
 2.7770	 3.1960
 2.7790	 3.1520
 2.7800	 3.0960
 2.7820	 3.0940
 2.7830	 3.1610
 2.7850	 3.1430
 2.7860	 3.0490
 2.7880	 2.9630
 2.7890	 3.0840
 2.7910	 3.1110
 2.7920	 3.0860
 2.7940	 3.0060
 2.7950	 3.0810
 2.7970	 3.0770
 2.7980	 3.1120
 2.8000	 3.1380
 2.8010	 3.1070
 2.8030	 2.9720
 2.8040	 2.9840
 2.8060	 2.9880
 2.8080	 3.0490
 2.8090	 3.0870
 2.8110	 3.1260
 2.8120	 3.0240
 2.8140	 3.0420
 2.8150	 3.0700
 2.8170	 3.1090
 2.8180	 3.1010
 2.8200	 3.0650
 2.8210	 3.0130
 2.8230	 3.0940
 2.8240	 3.0790
 2.8260	 3.0600
 2.8270	 3.0100
 2.8290	 3.0240
 2.8310	 3.0590
 2.8320	 3.0780
 2.8340	 3.0110
 2.8350	 2.9740
 2.8370	 2.8830
 2.8380	 2.9030
 2.8400	 2.8970
 2.8410	 2.9820
 2.8430	 3.0050
 2.8440	 3.0420
 2.8460	 3.0270
 2.8480	 3.0390
 2.8490	 2.9580
 2.8510	 2.9550
 2.8520	 2.9670
 2.8540	 3.0030
 2.8550	 2.9620
 2.8570	 2.9750
 2.8590	 2.9490
 2.8600	 2.9870
 2.8620	 3.0090
 2.8630	 3.0200
 2.8650	 2.9460
 2.8660	 2.9290
 2.8680	 2.9610
 2.8700	 3.0600
 2.8710	 2.9990
 2.8730	 3.0090
 2.8740	 2.9440
 2.8760	 2.9590
 2.8780	 2.9720
 2.8790	 2.9290
 2.8810	 2.8630
 2.8820	 2.8830
 2.8840	 2.8430
 2.8860	 2.8590
 2.8870	 2.8380
 2.8890	 2.8880
 2.8900	 2.8540
 2.8920	 2.8470
 2.8940	 2.8420
 2.8950	 2.8400
 2.8970	 2.7880
 2.8990	 2.8290
 2.9000	 2.7810
 2.9020	 2.8460
 2.9030	 2.8410
 2.9050	 2.8600
 2.9070	 2.8450
 2.9080	 2.8380
 2.9100	 2.7930
 2.9120	 2.8530
 2.9130	 2.8570
 2.9150	 2.8820
 2.9160	 2.8600
 2.9180	 2.8450
 2.9200	 2.7640
 2.9210	 2.7570
 2.9230	 2.7580
 2.9250	 2.7720
 2.9260	 2.7480
 2.9280	 2.7790
 2.9300	 2.7680
 2.9310	 2.7630
 2.9330	 2.7360
 2.9350	 2.7070
 2.9360	 2.6050
 2.9380	 2.6880
 2.9400	 2.7690
 2.9410	 2.7990
 2.9430	 2.7270
 2.9450	 2.7390
 2.9460	 2.7290
 2.9480	 2.7360
 2.9500	 2.6920
 2.9510	 2.7270
 2.9530	 2.7190
 2.9550	 2.7390
 2.9560	 2.7090
 2.9580	 2.7610
 2.9600	 2.7280
 2.9610	 2.7070
 2.9630	 2.6420
 2.9650	 2.6660
 2.9670	 2.6750
 2.9680	 2.7020
 2.9700	 2.6340
 2.9720	 2.6720
 2.9730	 2.6830
 2.9750	 2.7480
 2.9770	 2.6720
 2.9780	 2.6460
 2.9800	 2.6480
 2.9820	 2.7330
 2.9840	 2.6910
 2.9850	 2.6980
 2.9870	 2.6640
 2.9890	 2.6740
 2.9900	 2.6590
 2.9920	 2.6700
 2.9940	 2.6260
 2.9960	 2.6170
 2.9970	 2.6300
 2.9990	 2.7040
 3.0010	 2.6750
 3.0030	 2.6680
 3.0040	 2.6380
 3.0060	 2.6380
 3.0080	 2.6630
 3.0100	 2.6770
 3.0110	 2.6090
 3.0130	 2.6400
 3.0150	 2.5810
 3.0170	 2.6310
 3.0180	 2.6390
 3.0200	 2.6230
 3.0220	 2.5720
 3.0240	 2.6220
 3.0250	 2.6210
 3.0270	 2.6200
 3.0290	 2.5690
 3.0310	 2.6090
 3.0320	 2.5900
 3.0340	 2.5740
 3.0360	 2.5520
 3.0380	 2.5660
 3.0400	 2.5550
 3.0410	 2.5810
 3.0430	 2.5340
 3.0450	 2.5470
 3.0470	 2.5540
 3.0480	 2.5670
 3.0500	 2.5220
 3.0520	 2.5700
 3.0540	 2.5910
 3.0560	 2.6450
 3.0570	 2.6230
 3.0590	 2.6000
 3.0610	 2.5740
 3.0630	 2.5790
 3.0650	 2.5360
 3.0670	 2.5700
 3.0680	 2.5400
 3.0700	 2.5460
 3.0720	 2.4780
 3.0740	 2.5090
 3.0760	 2.5470
 3.0770	 2.5710
 3.0790	 2.5310
 3.0810	 2.5680
 3.0830	 2.5410
 3.0850	 2.5370
 3.0870	 2.5200
 3.0880	 2.5730
 3.0900	 2.5600
 3.0920	 2.5860
 3.0940	 2.5820
 3.0960	 2.5850
 3.0980	 2.5560
 3.1000	 2.5850
 3.1010	 2.5590
 3.1030	 2.5330
 3.1050	 2.4800
 3.1070	 2.5510
 3.1090	 2.5510
 3.1110	 2.5670
 3.1130	 2.5520
 3.1140	 2.5640
 3.1160	 2.5250
 3.1180	 2.5380
 3.1200	 2.5580
 3.1220	 2.6150
 3.1240	 2.6260
 3.1260	 2.6230
 3.1280	 2.5260
 3.1290	 2.5290
 3.1310	 2.5340
 3.1330	 2.5980
 3.1350	 2.5950
 3.1370	 2.5900
 3.1390	 2.5550
 3.1410	 2.5790
 3.1430	 2.5610
 3.1450	 2.5670
 3.1470	 2.5270
 3.1480	 2.5670
 3.1500	 2.5630
 3.1520	 2.5940
 3.1540	 2.5560
 3.1560	 2.5450
 3.1580	 2.5170
 3.1600	 2.5660
 3.1620	 2.5370
 3.1640	 2.5170
 3.1660	 2.5110
 3.1680	 2.5750
 3.1700	 2.5720
 3.1720	 2.5850
 3.1730	 2.5350
 3.1750	 2.5370
 3.1770	 2.5140
 3.1790	 2.5180
 3.1810	 2.5190
 3.1830	 2.5380
 3.1850	 2.5280
 3.1870	 2.5520
 3.1890	 2.5330
 3.1910	 2.5560
 3.1930	 2.5470
 3.1950	 2.5470
 3.1970	 2.4990
 3.1990	 2.5100
 3.2010	 2.5260
 3.2030	 2.5850
 3.2050	 2.6050
 3.2070	 2.6070
 3.2090	 2.5310
 3.2110	 2.5610
 3.2130	 2.5620
 3.2150	 2.5620
 3.2170	 2.5060
 3.2190	 2.4840
 3.2210	 2.4830
 3.2230	 2.5410
 3.2250	 2.5350
 3.2270	 2.5780
 3.2290	 2.5490
 3.2310	 2.5240
 3.2330	 2.4970
 3.2350	 2.5560
 3.2370	 2.5610
 3.2390	 2.5630
 3.2410	 2.5650
 3.2430	 2.6190
 3.2450	 2.5620
 3.2470	 2.5310
 3.2490	 2.5110
 3.2510	 2.5440
 3.2530	 2.5400
 3.2550	 2.5540
 3.2570	 2.5200
 3.2590	 2.5620
 3.2610	 2.5340
 3.2630	 2.5070
 3.2650	 2.4750
 3.2670	 2.5140
 3.2700	 2.5200
 3.2720	 2.5220
 3.2740	 2.4660
 3.2760	 2.4860
 3.2780	 2.4890
 3.2800	 2.5100
 3.2820	 2.4810
 3.2840	 2.4900
 3.2860	 2.4750
 3.2880	 2.5010
 3.2900	 2.5000
 3.2920	 2.5620
 3.2940	 2.5560
 3.2970	 2.5360
 3.2990	 2.4940
 3.3010	 2.4750
 3.3030	 2.4520
 3.3050	 2.4620
 3.3070	 2.4350
 3.3090	 2.4670
 3.3110	 2.4530
 3.3130	 2.4700
 3.3160	 2.4830
 3.3180	 2.4960
 3.3200	 2.4380
 3.3220	 2.4600
 3.3240	 2.4500
 3.3260	 2.4390
 3.3280	 2.4520
 3.3300	 2.4720
 3.3330	 2.3920
 3.3350	 2.3860
 3.3370	 2.4010
 3.3390	 2.4220
 3.3410	 2.3900
 3.3430	 2.4000
 3.3450	 2.3770
 3.3480	 2.3710
 3.3500	 2.3550
 3.3520	 2.3640
 3.3540	 2.3400
 3.3560	 2.3750
 3.3580	 2.3380
 3.3610	 2.3560
 3.3630	 2.3590
 3.3650	 2.3350
 3.3670	 2.2590
 3.3690	 2.2800
 3.3720	 2.3110
 3.3740	 2.4050
 3.3760	 2.4100
 3.3780	 2.4010
 3.3800	 2.3580
 3.3830	 2.4010
 3.3850	 2.4070
 3.3870	 2.4270
 3.3890	 2.4300
 3.3910	 2.4340
 3.3940	 2.3800
 3.3960	 2.4110
 3.3980	 2.4590
 3.4000	 2.5300
 3.4030	 2.5370
 3.4050	 2.6150
 3.4070	 2.7060
 3.4090	 2.8550
 3.4110	 3.0030
 3.4140	 3.2100
 3.4160	 3.4260
 3.4180	 3.7780
 3.4200	 4.2320
 3.4230	 4.8630
 3.4250	 5.6290
 3.4270	 6.4370
 3.4300	 6.9300
 3.4320	 6.7610
 3.4340	 6.0380
 3.4360	 5.3950
 3.4390	 4.9000
 3.4410	 4.5880
 3.4430	 4.3480
 3.4450	 4.2090
 3.4480	 4.1170
 3.4500	 4.0760
 3.4520	 3.9950
 3.4550	 3.9420
 3.4570	 3.8590
 3.4590	 3.7790
 3.4620	 3.7230
 3.4640	 3.7380
 3.4660	 3.6580
 3.4690	 3.5940
 3.4710	 3.5090
 3.4730	 3.4640
 3.4760	 3.4030
 3.4780	 3.3480
 3.4800	 3.2590
 3.4830	 3.2400
 3.4850	 3.1690
 3.4870	 3.1540
 3.4900	 3.1170
 3.4920	 3.1130
 3.4940	 3.1140
 3.4970	 3.1370
 3.4990	 3.1390
 3.5010	 3.2850
 3.5040	 3.5360
 3.5060	 4.1380
 3.5080	 5.2280
 3.5110	 6.2590
 3.5130	 6.3200
 3.5160	 5.6940
 3.5180	 5.0700
 3.5200	 4.6530
 3.5230	 4.3620
 3.5250	 4.2050
 3.5280	 4.0430
 3.5300	 3.9550
 3.5320	 3.8610
 3.5350	 3.8050
 3.5370	 3.7540
 3.5400	 3.7080
 3.5420	 3.6540
 3.5440	 3.6460
 3.5470	 3.6030
 3.5490	 3.5760
 3.5520	 3.5200
 3.5540	 3.4790
 3.5570	 3.4630
 3.5590	 3.4830
 3.5610	 3.4590
 3.5640	 3.4360
 3.5660	 3.4100
 3.5690	 3.4290
 3.5710	 3.4510
 3.5740	 3.4680
 3.5760	 3.4200
 3.5790	 3.4200
 3.5810	 3.4090
 3.5840	 3.4350
 3.5860	 3.4280
 3.5890	 3.4210
 3.5910	 3.3660
 3.5940	 3.3370
 3.5960	 3.3120
 3.5990	 3.3350
 3.6010	 3.3730
 3.6040	 3.4140
 3.6060	 3.3920
 3.6090	 3.4020
 3.6110	 3.3580
 3.6140	 3.3210
 3.6160	 3.3150
 3.6190	 3.3650
 3.6210	 3.3520
 3.6240	 3.3600
 3.6260	 3.3150
 3.6290	 3.3130
 3.6310	 3.3020
 3.6340	 3.2830
 3.6360	 3.2990
 3.6390	 3.3430
 3.6410	 3.3180
 3.6440	 3.3260
 3.6470	 3.3340
 3.6490	 3.3510
 3.6520	 3.3410
 3.6540	 3.3520
 3.6570	 3.3570
 3.6590	 3.3590
 3.6620	 3.3460
 3.6650	 3.3670
 3.6670	 3.3470
 3.6700	 3.3500
 3.6720	 3.3390
 3.6750	 3.3290
 3.6780	 3.3080
 3.6800	 3.3350
 3.6830	 3.3380
 3.6850	 3.3590
 3.6880	 3.3690
 3.6910	 3.3630
 3.6930	 3.3380
 3.6960	 3.3910
 3.6990	 3.4170
 3.7010	 3.4290
 3.7040	 3.4010
 3.7070	 3.3940
 3.7090	 3.4220
 3.7120	 3.4600
 3.7150	 3.4160
 3.7170	 3.4270
 3.7200	 3.4400
 3.7230	 3.4720
 3.7250	 3.4720
 3.7280	 3.5080
 3.7310	 3.4680
 3.7330	 3.4410
 3.7360	 3.4400
 3.7390	 3.4910
 3.7410	 3.5100
 3.7440	 3.5260
 3.7470	 3.5370
 3.7490	 3.5600
 3.7520	 3.5340
 3.7550	 3.5140
 3.7580	 3.5220
 3.7600	 3.5470
 3.7630	 3.5410
 3.7660	 3.5910
 3.7690	 3.6170
 3.7710	 3.6120
 3.7740	 3.6090
 3.7770	 3.6470
 3.7790	 3.6350
 3.7820	 3.6350
 3.7850	 3.6130
 3.7880	 3.6150
 3.7910	 3.6370
 3.7930	 3.6730
 3.7960	 3.6860
 3.7990	 3.7310
 3.8020	 3.7500
 3.8040	 3.7680
 3.8070	 3.7420
 3.8100	 3.7400
 3.8130	 3.7520
 3.8160	 3.7660
 3.8180	 3.7520
 3.8210	 3.7630
 3.8240	 3.7570
 3.8270	 3.7640
 3.8300	 3.7530
 3.8330	 3.7970
 3.8350	 3.7840
 3.8380	 3.7600
 3.8410	 3.7560
 3.8440	 3.7880
 3.8470	 3.8080
 3.8500	 3.8650
 3.8520	 3.8570
 3.8550	 3.8360
 3.8580	 3.8280
 3.8610	 3.8720
 3.8640	 3.8690
 3.8670	 3.8440
 3.8700	 3.8160
 3.8730	 3.8480
 3.8760	 3.8820
 3.8780	 3.8930
 3.8810	 3.8480
 3.8840	 3.8320
 3.8870	 3.8440
 3.8900	 3.8830
 3.8930	 3.8910
 3.8960	 3.8820
 3.8990	 3.8480
 3.9020	 3.8350
 3.9050	 3.8430
 3.9080	 3.8880
 3.9110	 3.8940
 3.9140	 3.8690
 3.9170	 3.8720
 3.9190	 3.9190
 3.9220	 3.8810
 3.9250	 3.8740
 3.9280	 3.8580
 3.9310	 3.8500
 3.9340	 3.8350
 3.9370	 3.8370
 3.9400	 3.8560
 3.9430	 3.8530
 3.9460	 3.8460
 3.9490	 3.8400
 3.9520	 3.7670
 3.9550	 3.7420
 3.9580	 3.7590
 3.9610	 3.8080
 3.9640	 3.7690
 3.9670	 3.7430
 3.9700	 3.7330
 3.9740	 3.7240
 3.9770	 3.7320
 3.9800	 3.7450
 3.9830	 3.7420
 3.9860	 3.7640
 3.9890	 3.7060
 3.9920	 3.7070
 3.9950	 3.7400
 3.9980	 3.7920
 4.0010	 3.7780
 4.0040	 3.7660
 4.0070	 3.7860
 4.0100	 3.8090
 4.0140	 3.7840
 4.0170	 3.7630
 4.0200	 3.7490
 4.0230	 3.7920
 4.0260	 3.8010
 4.0290	 3.8160
 4.0320	 3.7750
 4.0350	 3.7650
 4.0390	 3.7840
 4.0420	 3.8200
 4.0450	 3.8250
 4.0480	 3.8140
 4.0510	 3.7830
 4.0540	 3.8060
 4.0570	 3.8090
 4.0610	 3.7930
 4.0640	 3.8040
 4.0670	 3.8010
 4.0700	 3.7330
 4.0730	 3.7480
 4.0770	 3.7800
 4.0800	 3.7590
 4.0830	 3.6990
 4.0860	 3.7020
 4.0890	 3.7100
 4.0930	 3.7430
 4.0960	 3.7540
 4.0990	 3.7760
 4.1020	 3.7460
 4.1060	 3.7070
 4.1090	 3.6730
 4.1120	 3.6860
 4.1150	 3.6970
 4.1190	 3.7000
 4.1220	 3.6820
 4.1250	 3.6750
 4.1290	 3.6670
 4.1320	 3.6830
 4.1350	 3.6420
 4.1380	 3.6160
 4.1420	 3.5840
 4.1450	 3.6200
 4.1480	 3.6280
 4.1520	 3.6280
 4.1550	 3.6160
 4.1580	 3.6070
 4.1620	 3.5970
 4.1650	 3.5660
 4.1680	 3.5250
 4.1720	 3.5320
 4.1750	 3.5760
 4.1780	 3.5890
 4.1820	 3.5670
 4.1850	 3.5760
 4.1890	 3.5370
 4.1920	 3.5030
 4.1950	 3.4670
 4.1990	 3.4640
 4.2020	 3.4960
 4.2060	 3.4900
 4.2090	 3.4550
 4.2120	 3.4710
 4.2160	 3.4350
 4.2190	 3.4060
 4.2230	 3.3740
 4.2260	 3.3490
 4.2300	 3.4130
 4.2330	 3.5000
 4.2360	 3.3730
 4.2400	 3.3430
 4.2430	 3.4010
 4.2470	 3.3610
 4.2500	 3.2960
 4.2540	 3.3200
 4.2570	 3.2860
 4.2610	 3.2840
 4.2640	 3.2920
 4.2680	 3.3250
 4.2710	 3.3410
 4.2750	 3.3340
 4.2780	 3.3070
 4.2820	 3.3450
 4.2850	 3.3510
 4.2890	 3.3380
 4.2930	 3.2690
 4.2960	 3.2050
 4.3000	 3.1800
 4.3030	 3.1840
 4.3070	 3.2310
 4.3100	 3.2620
 4.3140	 3.2100
 4.3180	 3.1920
 4.3210	 3.2000
 4.3250	 3.1870
 4.3280	 3.1980
 4.3320	 3.2100
 4.3360	 3.1910
 4.3390	 3.1880
 4.3430	 3.1660
 4.3470	 3.1600
 4.3500	 3.1650
 4.3540	 3.1660
 4.3580	 3.1540
 4.3610	 3.1650
 4.3650	 3.1440
 4.3690	 3.0800
 4.3720	 3.0480
 4.3760	 3.0890
 4.3800	 3.1200
 4.3830	 3.1260
 4.3870	 3.1170
 4.3910	 3.0860
 4.3940	 3.0690
 4.3980	 3.0980
 4.4020	 3.0850
 4.4060	 3.0880
 4.4090	 3.0840
 4.4130	 3.0780
 4.4170	 3.0750
 4.4210	 3.0540
 4.4240	 3.0390
 4.4280	 3.0380
 4.4320	 3.0570
 4.4360	 3.0340
 4.4400	 2.9930
 4.4430	 2.9820
 4.4470	 2.9860
 4.4510	 2.9900
 4.4550	 2.9560
 4.4590	 2.9890
 4.4630	 3.0160
 4.4660	 3.0110
 4.4700	 3.0100
 4.4740	 3.0140
 4.4780	 2.9870
 4.4820	 2.9900
 4.4860	 2.9840
 4.4900	 2.9680
 4.4930	 2.9560
 4.4970	 2.9580
 4.5010	 2.9610
 4.5050	 2.9800
 4.5090	 3.0050
 4.5130	 2.9820
 4.5170	 2.9340
 4.5210	 2.9320
 4.5250	 2.9540
 4.5290	 2.9520
 4.5330	 2.9300
 4.5370	 2.9370
 4.5410	 2.9700
 4.5450	 2.9580
 4.5490	 2.9240
 4.5530	 2.8950
 4.5570	 2.8920
 4.5610	 2.9200
 4.5650	 2.9080
 4.5690	 2.9080
 4.5730	 2.9300
 4.5770	 2.9390
 4.5810	 2.9230
 4.5850	 2.9080
 4.5890	 2.8980
 4.5930	 2.8870
 4.5970	 2.8710
 4.6010	 2.8800
 4.6050	 2.8980
 4.6090	 2.9080
 4.6130	 2.8960
 4.6170	 2.8470
 4.6220	 2.8330
 4.6260	 2.8750
 4.6300	 2.9010
 4.6340	 2.9130
 4.6380	 2.8840
 4.6420	 2.8610
 4.6460	 2.8630
 4.6510	 2.8520
 4.6550	 2.8530
 4.6590	 2.8580
 4.6630	 2.8570
 4.6670	 2.8630
 4.6720	 2.8720
 4.6760	 2.8910
 4.6800	 2.9030
 4.6840	 2.8820
 4.6880	 2.8490
 4.6930	 2.8370
 4.6970	 2.8390
 4.7010	 2.8300
 4.7050	 2.8260
 4.7100	 2.8430
 4.7140	 2.8310
 4.7180	 2.8250
 4.7230	 2.8540
 4.7270	 2.8490
 4.7310	 2.8410
 4.7360	 2.8550
 4.7400	 2.8760
 4.7440	 2.8910
 4.7490	 2.8740
 4.7530	 2.8800
 4.7570	 2.8810
 4.7620	 2.8510
 4.7660	 2.8690
 4.7700	 2.8770
 4.7750	 2.8720
 4.7790	 2.8910
 4.7840	 2.8790
 4.7880	 2.8630
 4.7920	 2.8560
 4.7970	 2.8500
 4.8010	 2.8450
 4.8060	 2.8420
 4.8100	 2.8570
 4.8150	 2.8670
 4.8190	 2.8870
 4.8240	 2.8830
 4.8280	 2.8530
 4.8330	 2.8540
 4.8370	 2.8790
 4.8420	 2.8760
 4.8460	 2.8750
 4.8510	 2.8790
 4.8550	 2.9030
 4.8600	 2.8790
 4.8640	 2.8420
 4.8690	 2.8640
 4.8740	 2.9020
 4.8780	 2.9000
 4.8830	 2.8600
 4.8870	 2.8540
 4.8920	 2.8960
 4.8970	 2.9170
 4.9010	 2.8950
 4.9060	 2.8860
 4.9100	 2.9000
 4.9150	 2.9130
 4.9200	 2.9120
 4.9240	 2.8970
 4.9290	 2.8910
 4.9340	 2.9030
 4.9390	 2.9210
 4.9430	 2.9230
 4.9480	 2.9380
 4.9530	 2.8950
 4.9570	 2.8580
 4.9620	 2.8930
 4.9670	 2.9320
 4.9720	 2.9360
 4.9760	 2.9670
 4.9810	 2.9630
 4.9860	 2.9430
 4.9910	 2.9460
 4.9960	 2.9410
 5.0000	 2.9080
 5.0050	 2.9040
 5.0100	 2.9270
 5.0150	 2.9380
 5.0200	 2.9330
 5.0250	 2.9630
 5.0300	 2.9770
 5.0340	 3.0090
 5.0390	 3.0070
 5.0440	 3.0050
 5.0490	 2.9940
 5.0540	 2.9800
 5.0590	 3.0010
 5.0640	 3.0240
 5.0690	 3.0340
 5.0740	 3.0280
 5.0790	 3.0160
 5.0840	 3.0290
 5.0890	 3.0160
 5.0940	 3.0340
 5.0990	 3.0660
 5.1040	 3.0900
 5.1090	 3.0950
 5.1140	 3.1040
 5.1190	 3.1030
 5.1240	 3.1020
 5.1290	 3.0880
 5.1340	 3.0790
 5.1390	 3.0560
 5.1440	 3.0470
 5.1490	 3.0660
 5.1550	 3.1180
 5.1600	 3.1320
 5.1650	 3.1660
 5.1700	 3.1550
 5.1750	 3.1610
 5.1800	 3.1520
 5.1850	 3.1650
 5.1910	 3.1800
 5.1960	 3.1880
 5.2010	 3.1540
 5.2060	 3.1490
 5.2110	 3.1150
 5.2170	 3.1160
 5.2220	 3.1570
 5.2270	 3.1860
 5.2330	 3.1720
 5.2380	 3.1690
 5.2430	 3.1580
 5.2480	 3.1370
 5.2540	 3.1230
 5.2590	 3.1840
 5.2640	 3.1890
 5.2700	 3.1810
 5.2750	 3.1620
 5.2800	 3.1720
 5.2860	 3.1760
 5.2910	 3.1310
 5.2970	 3.1400
 5.3020	 3.1840
 5.3080	 3.1580
 5.3130	 3.1640
 5.3180	 3.1570
 5.3240	 3.1660
 5.3290	 3.1680
 5.3350	 3.1600
 5.3400	 3.1230
 5.3460	 3.0900
 5.3510	 3.0290
 5.3570	 3.0420
 5.3620	 3.0790
 5.3680	 3.1150
 5.3740	 3.1090
 5.3790	 3.0790
 5.3850	 3.0970
 5.3900	 3.1560
 5.3960	 3.1200
 5.4010	 3.1020
 5.4070	 3.0860
 5.4130	 3.0570
 5.4180	 2.9320
 5.4240	 2.8810
 5.4300	 2.9950
 5.4350	 3.0670
 5.4410	 3.0510
 5.4470	 3.0120
 5.4530	 2.9310
 5.4580	 2.8970
 5.4640	 2.8200
 5.4700	 2.8730
 5.4760	 2.8820
 5.4810	 2.8410
 5.4870	 2.9100
 5.4930	 2.9290
 5.4990	 2.8900
 5.5050	 2.8810
 5.5110	 2.8740
 5.5160	 2.8400
 5.5220	 2.7860
 5.5280	 2.7900
 5.5340	 2.7550
 5.5400	 2.7640
 5.5460	 2.7540
 5.5520	 2.7040
 5.5580	 2.6770
 5.5640	 2.6740
 5.5700	 2.6090
 5.5760	 2.5200
 5.5820	 2.4910
 5.5880	 2.5930
 5.5940	 2.6300
 5.6000	 2.6060
 5.6060	 2.5890
 5.6120	 2.5690
 5.6180	 2.5310
 5.6240	 2.5480
 5.6300	 2.5030
 5.6360	 2.4250
 5.6420	 2.2820
 5.6490	 2.3260
 5.6550	 2.3650
 5.6610	 2.4200
 5.6670	 2.3930
 5.6730	 2.2700
 5.6800	 2.2640
 5.6860	 2.3470
 5.6920	 2.2720
 5.6980	 2.2730
 5.7050	 2.1980
 5.7110	 2.1150
 5.7170	 2.1020
 5.7230	 2.1400
 5.7300	 2.1360
 5.7360	 2.1240
 5.7420	 2.1120
 5.7490	 2.1490
 5.7550	 2.2890
 5.7620	 2.2600
 5.7680	 2.1360
 5.7740	 2.3260
 5.7810	 2.4360
 5.7870	 2.5280
 5.7940	 2.5400
 5.8000	 2.5350
 5.8070	 2.5190
 5.8130	 2.4430
 5.8200	 2.2360
 5.8260	 2.2470
 5.8330	 2.3860
 5.8390	 2.5180
 5.8460	 2.5690
 5.8530	 2.5900
 5.8590	 2.5350
 5.8660	 2.5030
 5.8730	 2.4470
 5.8790	 2.1810
 5.8860	 2.1410
 5.8930	 2.2230
 5.8990	 2.1940
 5.9060	 2.3990
 5.9130	 2.4190
 5.9190	 2.3790
 5.9260	 2.3050
 5.9330	 2.1410
 5.9400	 2.0020
 5.9470	 2.1960
 5.9530	 2.2620
 5.9600	 2.2680
 5.9670	 2.1430
 5.9740	 2.1610
 5.9810	 2.1540
 5.9880	 2.0840
 5.9950	 2.0480
 6.0020	 2.1530
 6.0090	 2.1320
 6.0160	 2.1090
 6.0230	 2.1140
 6.0300	 2.1400
 6.0370	 2.0560
 6.0440	 1.8320
 6.0510	 1.6200
 6.0580	 1.8600
 6.0650	 1.9120
 6.0720	 1.8260
 6.0790	 1.8910
 6.0860	 2.0480
 6.0930	 2.0510
 6.1010	 2.0580
 6.1080	 1.9670
 6.1150	 1.9130
 6.1220	 2.0090
 6.1290	 2.1510
 6.1370	 2.1140
 6.1440	 2.1280
 6.1510	 2.1080
 6.1580	 2.0640
 6.1660	 2.0580
 6.1730	 2.1200
 6.1800	 2.0010
 6.1880	 1.9600
 6.1950	 2.1050
 6.2030	 2.2310
 6.2100	 2.2420
 6.2180	 2.2610
 6.2250	 2.2080
 6.2320	 2.2320
 6.2400	 2.2500
 6.2480	 2.3250
 6.2550	 2.3300
 6.2630	 2.2880
 6.2700	 2.1940
 6.2780	 2.2580
 6.2850	 2.2920
 6.2930	 2.3000
 6.3010	 2.2320
 6.3080	 2.2760
 6.3160	 2.3060
 6.3240	 2.3510
 6.3310	 2.3060
 6.3390	 2.2020
 6.3470	 2.1200
 6.3550	 2.2740
 6.3620	 2.2580
 6.3700	 2.1920
 6.3780	 2.2440
 6.3860	 2.3590
 6.3940	 2.3570
 6.4020	 2.3100
 6.4100	 2.0140
 6.4180	 1.9990
 6.4260	 2.2330
 6.4340	 2.3660
 6.4420	 2.4740
 6.4500	 2.5780
 6.4580	 2.6050
 6.4660	 2.6480
 6.4740	 2.5580
 6.4820	 2.4750
 6.4900	 2.2330
 6.4980	 2.2780
 6.5060	 2.6170
 6.5140	 2.7120
 6.5230	 2.5510
 6.5310	 2.6810
 6.5390	 2.7130
 6.5470	 2.6710
 6.5560	 2.5800
 6.5640	 2.5400
 6.5720	 2.3820
 6.5800	 2.5050
 6.5890	 2.5560
 6.5970	 2.6270
 6.6060	 2.7000
 6.6140	 2.7070
 6.6230	 2.6150
 6.6310	 2.4280
 6.6390	 2.3010
 6.6480	 2.6170
 6.6570	 2.7680
 6.6650	 2.7390
 6.6740	 2.6120
 6.6820	 2.5550
 6.6910	 2.6630
 6.7000	 2.7770
 6.7080	 2.6130
 6.7170	 2.5890
 6.7260	 2.6370
 6.7340	 2.7310
 6.7430	 2.7030
 6.7520	 2.6780
 6.7610	 2.6700
 6.7690	 2.6590
 6.7780	 2.6070
 6.7870	 2.7050
 6.7960	 2.7670
 6.8050	 2.8580
 6.8140	 2.8000
 6.8230	 2.7830
 6.8320	 2.9450
 6.8410	 3.2120
 6.8500	 2.9760
 6.8590	 2.6180
 6.8680	 2.5420
 6.8770	 2.8600
 6.8860	 2.8870
 6.8960	 2.8640
 6.9050	 2.7890
 6.9140	 2.8300
 6.9230	 2.8440
 6.9320	 2.8940
 6.9420	 2.8490
 6.9510	 2.7640
 6.9600	 2.5660
 6.9700	 2.7140
 6.9790	 2.7950
 6.9880	 2.7680
 6.9980	 2.7050
 7.0070	 2.7660
 7.0170	 2.6940
 7.0260	 2.7320
 7.0360	 2.6990
 7.0450	 2.6010
 7.0550	 2.6360
 7.0650	 2.7880
 7.0740	 2.8100
 7.0840	 2.8670
 7.0940	 2.8320
 7.1030	 2.8310
 7.1130	 2.7480
 7.1230	 2.7580
 7.1330	 2.6940
 7.1420	 2.6120
 7.1520	 2.5270
 7.1620	 2.5360
 7.1720	 2.4520
 7.1820	 2.4590
 7.1920	 2.4380
 7.2020	 2.4710
 7.2120	 2.4330
 7.2220	 2.5120
 7.2320	 2.4680
 7.2420	 2.4540
 7.2520	 2.3490
 7.2620	 2.3510
 7.2730	 2.2820
 7.2830	 2.3120
 7.2930	 2.3210
 7.3030	 2.3410
 7.3140	 2.2760
 7.3240	 2.3330
 7.3340	 2.2850
 7.3450	 2.3140
 7.3550	 2.3210
 7.3660	 2.3650
 7.3760	 2.3300
 7.3870	 2.3620
 7.3970	 2.3270
 7.4080	 2.3710
 7.4180	 2.3360
 7.4290	 2.3520
 7.4400	 2.3200
 7.4500	 2.3870
 7.4610	 2.3240
 7.4720	 2.3120
 7.4830	 2.2390
 7.4930	 2.2400
 7.5040	 2.2430
 7.5150	 2.2980
 7.5260	 2.1960
 7.5370	 2.2000
 7.5480	 2.1650
 7.5590	 2.2060
 7.5700	 2.1390
 7.5810	 2.1440
 7.5920	 2.1050
 7.6030	 2.1390
 7.6140	 2.1290
 7.6260	 2.1850
 7.6370	 2.1370
 7.6480	 2.1380
 7.6590	 2.0830
 7.6710	 2.1470
 7.6820	 2.1520
 7.6940	 2.2000
 7.7050	 2.1450
 7.7160	 2.1780
 7.7280	 2.1500
 7.7390	 2.1660
 7.7510	 2.0990
 7.7630	 2.1580
 7.7740	 2.1390
 7.7860	 2.1320
 7.7980	 2.0410
 7.8090	 2.0610
 7.8210	 2.0060
 7.8330	 2.0630
 7.8450	 2.0520
 7.8570	 2.1020
 7.8690	 2.0190
 7.8810	 2.0550
 7.8930	 2.0100
 7.9050	 1.9920
 7.9170	 1.9270
 7.9290	 2.0250
 7.9410	 1.9830
 7.9530	 1.9920
 7.9650	 1.9540
 7.9780	 1.9970
 7.9900	 1.9270
 8.0020	 1.9870
 8.0150	 1.9400
 8.0270	 2.0070
 8.0390	 1.8980
 8.0520	 1.9420
 8.0640	 1.8980
 8.0770	 1.9250
 8.0900	 1.8780
 8.1020	 1.9580
 8.1150	 1.9190
 8.1280	 1.9680
 8.1400	 1.8380
 8.1530	 1.8730
 8.1660	 1.8200
 8.1790	 1.8600
 8.1920	 1.8120
 8.2050	 1.9050
 8.2180	 1.8450
 8.2310	 1.9210
 8.2440	 1.8230
 8.2570	 1.8860
 8.2700	 1.8210
 8.2830	 1.8800
 8.2970	 1.7910
 8.3100	 1.8440
 8.3230	 1.8160
 8.3370	 1.8140
 8.3500	 1.7280
 8.3640	 1.8090
 8.3770	 1.7170
 8.3910	 1.8030
 8.4040	 1.7740
 8.4180	 1.8170
 8.4320	 1.7020
 8.4450	 1.7820
 8.4590	 1.7120
 8.4730	 1.7460
 8.4870	 1.7220
 8.5010	 1.7830
 8.5150	 1.6540
 8.5290	 1.8170
 8.5430	 1.8150
 8.5570	 1.9060
 8.5710	 1.9270
 8.5850	 2.0340
 8.5990	 1.9890
 8.6140	 2.1250
 8.6280	 2.1230
 8.6420	 2.2240
 8.6570	 2.1490
 8.6710	 2.2610
 8.6860	 2.2230
 8.7000	 2.3100
 8.7150	 2.2760
 8.7300	 2.3540
 8.7440	 2.2420
 8.7590	 2.3190
 8.7740	 2.2590
 8.7890	 2.3700
 8.8040	 2.3790
 8.8190	 2.5150
 8.8340	 2.4430
 8.8490	 2.5490
 8.8640	 2.5500
 8.8790	 2.7600
 8.8940	 2.8250
 8.9100	 3.0790
 8.9250	 3.2010
 8.9400	 3.4680
 8.9560	 3.4880
 8.9710	 3.6870
 8.9870	 3.7630
 9.0020	 4.0490
 9.0180	 4.2230
 9.0340	 4.5580
 9.0500	 4.6330
 9.0650	 4.8140
 9.0810	 4.8240
 9.0970	 4.9630
 9.1130	 5.0050
 9.1290	 5.2100
 9.1450	 5.1770
 9.1620	 5.3350
 9.1780	 5.3760
 9.1940	 5.4520
 9.2100	 5.3790
 9.2270	 5.4140
 9.2430	 5.2860
 9.2600	 5.3940
 9.2760	 5.3050
 9.2930	 5.3720
 9.3100	 5.2670
 9.3260	 5.3530
 9.3430	 5.2850
 9.3600	 5.3690
 9.3770	 5.2140
 9.3940	 5.2260
 9.4110	 5.1090
 9.4280	 5.1440
 9.4450	 5.0510
 9.4620	 5.0960
 9.4800	 5.0240
 9.4970	 5.1970
 9.5150	 5.1590
 9.5320	 5.2180
 9.5500	 5.1010
 9.5670	 5.1840
 9.5850	 5.1230
 9.6030	 5.2660
 9.6200	 5.2290
 9.6380	 5.2100
 9.6560	 4.9830
 9.6740	 4.9530
 9.6920	 4.8570
 9.7110	 4.9050
 9.7290	 4.6770
 9.7470	 4.6950
 9.7650	 4.5260
 9.7840	 4.4570
 9.8020	 4.1940
 9.8210	 4.1200
 9.8390	 3.9050
 9.8580	 3.9180
 9.8770	 3.7160
 9.8960	 3.7250
 9.9150	 3.5770
 9.9340	 3.5800
 9.9530	 3.4280
 9.9720	 3.5050
 9.9910	 3.4230
10.0100	 3.4230
10.0300	 3.2830
10.0490	 3.3870
10.0690	 3.3090
10.0880	 3.3810
10.1080	 3.2900
10.1280	 3.4380
10.1480	 3.4250
10.1670	 3.5240
10.1870	 3.4490
10.2070	 3.5590
10.2280	 3.4460
10.2480	 3.5290
10.2680	 3.5080
10.2890	 3.5880
10.3090	 3.5150
10.3300	 3.6640
10.3500	 3.6220
10.3710	 3.7000
10.3920	 3.6030
10.4120	 3.7310
10.4330	 3.6680
10.4540	 3.7230
10.4760	 3.6430
10.4970	 3.7840
10.5180	 3.7250
10.5390	 3.8010
10.5610	 3.6840
10.5820	 3.7590
10.6040	 3.6820
10.6260	 3.7800
10.6480	 3.6360
10.6700	 3.6790
10.6920	 3.6090
10.7140	 3.7400
10.7360	 3.6590
10.7580	 3.7560
10.7800	 3.7000
10.8030	 3.8000
10.8250	 3.6730
10.8480	 3.7490
10.8710	 3.6660
10.8940	 3.7930
10.9170	 3.6360
10.9400	 3.6360
10.9630	 3.5710
10.9860	 3.7280
11.0090	 3.5810
11.0330	 3.6130
11.0560	 3.4570
11.0800	 3.5690
11.1040	 3.5020
11.1270	 3.6560
11.1510	 3.5830
11.1750	 3.7240
11.2000	 3.6630
11.2240	 3.7820
11.2480	 3.7240
11.2730	 3.9800
11.2970	 3.9010
11.3220	 3.9750
11.3470	 3.8610
11.3720	 3.9750
11.3970	 3.9490
11.4220	 4.0940
11.4470	 3.9720
11.4720	 4.1530
11.4980	 4.0750
11.5230	 4.1030
11.5490	 3.8490
11.5750	 3.9170
11.6000	 3.7390
11.6260	 3.7890
11.6530	 3.6760
11.6790	 3.8410
11.7050	 3.6940
11.7320	 3.7050
11.7580	 3.5200
11.7850	 3.6980
11.8120	 3.5890
11.8390	 3.6840
11.8660	 3.5920
11.8930	 3.7000
11.9200	 3.5320
11.9480	 3.6700
11.9760	 3.5400
12.0030	 3.6780
12.0310	 3.5350
12.0590	 3.6330
12.0870	 3.4790
12.1150	 3.5990
12.1440	 3.4770
12.1720	 3.6290
12.2010	 3.4280
12.2300	 3.4150
12.2590	 3.3780
12.2880	 3.6040
12.3170	 3.4390
12.3460	 3.5150
12.3760	 3.3840
12.4050	 3.5620
12.4350	 3.4110
12.4650	 3.5340
12.4950	 3.4690
12.5250	 3.6900
12.5550	 3.4430
12.5860	 3.5430
12.6170	 3.4930
12.6470	 3.6910
12.6780	 3.5390
12.7090	 3.6540
12.7410	 3.4840
12.7720	 3.6360
12.8030	 3.4850
12.8350	 3.6600
12.8670	 3.4530
12.8990	 3.6410
12.9310	 3.5710
12.9640	 3.7670
12.9960	 3.5860
13.0290	 3.6170
13.0610	 3.4050
13.0940	 3.5560
13.1280	 3.3820
13.1610	 3.4610
13.1940	 3.1970
13.2280	 3.3110
13.2620	 3.0990
13.2960	 3.2680
13.3300	 3.1530
13.3640	 3.2780
13.3990	 3.1740
13.4340	 3.4140
13.4690	 3.0860
13.5040	 3.2140
13.5390	 3.0370
13.5740	 3.1960
13.6100	 3.0740
13.6460	 3.3390
13.6820	 3.1770
13.7180	 3.3260
13.7540	 2.9400
13.7910	 3.0360
13.8280	 2.9440
13.8650	 3.1730
13.9020	 2.9920
13.9390	 3.1910
13.9770	 2.9210
14.0150	 3.0610
14.0530	 2.8240
14.0910	 3.0420
14.1290	 2.8710
14.1680	 3.1250
14.2070	 2.8280
14.2460	 2.8930
14.2850	 2.5540
14.3240	 2.9480
14.3640	 2.8210
14.4040	 3.0680
14.4440	 2.5860
14.4840	 2.6820
14.5250	 2.3850
14.5660	 2.6630
14.6070	 2.5130
14.6480	 2.7960
14.6900	 2.3740
14.7310	 2.7810
14.7730	 2.4640
14.8150	 2.7020
14.8580	 2.3280
14.9010	 2.5500
14.9440	 2.2510
14.9870	 2.5830
15.0300	 2.1540
15.0740	 2.7030
15.1180	 2.3380
15.1620	 2.7590
15.2060	 2.3530
15.2510	 2.6520
15.2960	 2.3180
15.3410	 2.8430
15.3870	 2.4270
