Name: Ceanothus megacarpus 3
Type: vegetation
Class: Shrub
Genus: Ceanothus
Species: megacarpus
Sample No.: VH024
Owner: UCSB
Wavelength Range: TIR
Origin: 34.4909; -119.7914; WGS84
Collection Date: 4/1/2013
Description: Samples were collected as part of the HyspIRI Airborne Campaign. 48 individual plants were sampled in three times in 2013 - spring  summer  and fall. The name of the sample includes a 1  2  or 3 which references a different individual of the species. Samples were taken to JPL and processed within 48 hours of collection. The same leaves were processed in the Nicolet and then measured using the ASD.
Measurement: Hemispherical reflectance
First Column: X
Second Column: Y
X Units: Wavelength (micrometers)
Y Units: Reflectance (percentage)
First X Value: 2.501
Last X Value: 15.387
Number of X Values: 1737
Additional Information: vegetation.shrub.ceanothus.megacarpus.tir.vh024.ucsb.nicolet.ancillary.txt

 2.5010	14.7500
 2.5030	14.5860
 2.5040	14.5310
 2.5050	14.5300
 2.5060	14.5180
 2.5070	14.4210
 2.5090	14.4730
 2.5100	14.4260
 2.5110	14.4970
 2.5120	14.5280
 2.5140	14.6460
 2.5150	14.7640
 2.5160	14.7920
 2.5170	14.6620
 2.5180	14.6700
 2.5200	14.6080
 2.5210	14.6010
 2.5220	14.5280
 2.5230	14.4920
 2.5250	14.3580
 2.5260	14.3390
 2.5270	14.5520
 2.5280	14.6510
 2.5290	14.4840
 2.5310	14.5060
 2.5320	14.4930
 2.5330	14.4700
 2.5340	14.4560
 2.5360	14.5570
 2.5370	14.6070
 2.5380	14.5860
 2.5390	14.5130
 2.5410	14.5950
 2.5420	14.5940
 2.5430	14.5210
 2.5440	14.4220
 2.5460	14.4160
 2.5470	14.4440
 2.5480	14.5650
 2.5490	14.6140
 2.5510	14.7620
 2.5520	14.6600
 2.5530	14.6440
 2.5540	14.5260
 2.5560	14.4850
 2.5570	14.4320
 2.5580	14.5570
 2.5590	14.6370
 2.5610	14.5270
 2.5620	14.4550
 2.5630	14.4820
 2.5640	14.5120
 2.5660	14.5930
 2.5670	14.6300
 2.5680	14.6230
 2.5700	14.5690
 2.5710	14.5330
 2.5720	14.4430
 2.5730	14.4530
 2.5750	14.5460
 2.5760	14.5320
 2.5770	14.4240
 2.5790	14.3870
 2.5800	14.3920
 2.5810	14.6890
 2.5820	14.7410
 2.5840	14.7250
 2.5850	14.6470
 2.5860	14.5600
 2.5880	14.5770
 2.5890	14.7070
 2.5900	14.7010
 2.5910	14.5600
 2.5930	14.5240
 2.5940	14.5580
 2.5950	14.5090
 2.5970	14.4920
 2.5980	14.5200
 2.5990	14.6060
 2.6000	14.5660
 2.6020	14.5360
 2.6030	14.4360
 2.6040	14.6190
 2.6060	14.8020
 2.6070	14.6440
 2.6080	14.3370
 2.6100	14.4450
 2.6110	14.6390
 2.6120	14.5940
 2.6140	14.5410
 2.6150	14.7230
 2.6160	14.6780
 2.6180	14.5800
 2.6190	14.6520
 2.6200	14.6800
 2.6220	14.4460
 2.6230	14.4700
 2.6240	14.5250
 2.6260	14.6480
 2.6270	14.6600
 2.6280	14.6770
 2.6300	14.5760
 2.6310	14.4510
 2.6320	14.3350
 2.6340	14.5200
 2.6350	14.5180
 2.6360	14.4150
 2.6380	14.4850
 2.6390	14.6000
 2.6400	14.6530
 2.6420	14.5010
 2.6430	14.3890
 2.6440	14.5820
 2.6460	14.5000
 2.6470	14.3490
 2.6480	14.3320
 2.6500	14.4250
 2.6510	14.4480
 2.6520	14.5630
 2.6540	14.5450
 2.6550	14.5570
 2.6560	14.4290
 2.6580	14.4650
 2.6590	14.6050
 2.6610	14.5480
 2.6620	14.3660
 2.6630	14.4930
 2.6650	14.6070
 2.6660	14.8340
 2.6670	14.8880
 2.6690	14.8350
 2.6700	14.7970
 2.6720	14.7750
 2.6730	14.6840
 2.6740	14.7370
 2.6760	14.7650
 2.6770	14.7460
 2.6780	14.7380
 2.6800	14.7440
 2.6810	14.7300
 2.6830	14.7510
 2.6840	14.5690
 2.6850	14.5480
 2.6870	14.5310
 2.6880	14.5820
 2.6900	14.7030
 2.6910	14.8050
 2.6920	14.7450
 2.6940	14.7570
 2.6950	14.7960
 2.6970	14.8610
 2.6980	14.8450
 2.6990	14.9470
 2.7010	14.8560
 2.7020	14.5530
 2.7040	14.4510
 2.7050	14.7550
 2.7060	14.9510
 2.7080	15.1010
 2.7090	15.0330
 2.7110	14.8790
 2.7120	14.6760
 2.7130	14.6760
 2.7150	14.7240
 2.7160	14.8310
 2.7180	14.8560
 2.7190	14.9820
 2.7210	14.8470
 2.7220	14.8800
 2.7230	15.0100
 2.7250	15.0080
 2.7260	14.9900
 2.7280	15.0130
 2.7290	14.8920
 2.7310	14.8110
 2.7320	14.7680
 2.7330	14.8880
 2.7350	14.9190
 2.7360	14.9070
 2.7380	14.8360
 2.7390	15.0530
 2.7410	15.0740
 2.7420	14.9940
 2.7440	15.0810
 2.7450	14.9530
 2.7470	14.8010
 2.7480	14.8820
 2.7490	14.8870
 2.7510	14.9450
 2.7520	14.9840
 2.7540	14.8110
 2.7550	14.6860
 2.7570	14.9120
 2.7580	15.1070
 2.7600	15.0900
 2.7610	14.9280
 2.7630	14.9570
 2.7640	14.8290
 2.7660	14.7300
 2.7670	14.8070
 2.7680	14.8780
 2.7700	14.9890
 2.7710	15.0990
 2.7730	15.1710
 2.7740	15.2760
 2.7760	15.1770
 2.7770	15.2810
 2.7790	15.1560
 2.7800	15.0120
 2.7820	14.9880
 2.7830	14.9780
 2.7850	14.8960
 2.7860	14.8810
 2.7880	14.8860
 2.7890	15.0410
 2.7910	15.1310
 2.7920	15.1180
 2.7940	14.7970
 2.7950	14.8030
 2.7970	14.9130
 2.7980	15.0480
 2.8000	14.9680
 2.8010	14.9400
 2.8030	14.9590
 2.8040	15.0490
 2.8060	15.0510
 2.8070	15.0400
 2.8090	14.9520
 2.8110	14.9100
 2.8120	14.8300
 2.8140	15.0570
 2.8150	15.1050
 2.8170	15.0900
 2.8180	14.9790
 2.8200	15.0180
 2.8210	14.8930
 2.8230	14.8210
 2.8240	15.0260
 2.8260	15.2300
 2.8270	15.0160
 2.8290	14.8930
 2.8300	14.9320
 2.8320	15.0450
 2.8340	15.0560
 2.8350	15.0300
 2.8370	15.0400
 2.8380	15.1170
 2.8400	15.0900
 2.8410	15.0880
 2.8430	15.0080
 2.8440	15.1150
 2.8460	15.1270
 2.8480	15.0750
 2.8490	15.0000
 2.8510	14.9820
 2.8520	14.9790
 2.8540	15.0240
 2.8550	14.8640
 2.8570	14.9250
 2.8590	15.0370
 2.8600	15.1060
 2.8620	15.0950
 2.8630	15.1320
 2.8650	15.2020
 2.8660	15.1710
 2.8680	15.0030
 2.8700	14.9780
 2.8710	14.9040
 2.8730	15.0990
 2.8740	15.1600
 2.8760	15.2200
 2.8780	15.0850
 2.8790	15.0990
 2.8810	15.2140
 2.8820	15.0920
 2.8840	14.8740
 2.8860	14.9170
 2.8870	15.2130
 2.8890	15.3690
 2.8900	15.1260
 2.8920	15.1030
 2.8940	15.0580
 2.8950	14.8700
 2.8970	14.8580
 2.8980	15.0240
 2.9000	14.9310
 2.9020	14.9560
 2.9030	14.8340
 2.9050	14.9700
 2.9070	15.1980
 2.9080	15.3350
 2.9100	15.2870
 2.9120	15.2390
 2.9130	15.1760
 2.9150	15.0830
 2.9160	14.9300
 2.9180	15.1280
 2.9200	15.1480
 2.9210	15.0150
 2.9230	15.1160
 2.9250	15.2750
 2.9260	15.2600
 2.9280	15.2430
 2.9300	15.2930
 2.9310	15.3000
 2.9330	15.2220
 2.9350	15.1860
 2.9360	15.1040
 2.9380	15.0240
 2.9400	14.9860
 2.9410	15.0220
 2.9430	14.9540
 2.9450	15.0160
 2.9460	15.0100
 2.9480	15.2320
 2.9500	15.3160
 2.9510	15.2820
 2.9530	15.3300
 2.9550	15.1150
 2.9560	14.7160
 2.9580	14.9660
 2.9600	15.2160
 2.9610	15.4240
 2.9630	15.3130
 2.9650	15.0800
 2.9660	15.1880
 2.9680	15.6180
 2.9700	15.1930
 2.9720	15.0940
 2.9730	15.5660
 2.9750	15.2670
 2.9770	14.9710
 2.9780	14.6240
 2.9800	14.6170
 2.9820	15.0410
 2.9840	15.1570
 2.9850	15.4050
 2.9870	15.6560
 2.9890	15.5470
 2.9900	15.3700
 2.9920	15.0560
 2.9940	14.3740
 2.9960	14.2560
 2.9970	14.2720
 2.9990	14.2850
 3.0010	14.4630
 3.0030	14.5590
 3.0040	14.8020
 3.0060	15.0950
 3.0080	15.0750
 3.0100	15.1320
 3.0110	15.1430
 3.0130	15.3670
 3.0150	15.4010
 3.0170	15.5630
 3.0180	15.5310
 3.0200	15.1450
 3.0220	15.0560
 3.0240	14.8630
 3.0250	14.4430
 3.0270	15.3610
 3.0290	14.9450
 3.0310	14.9540
 3.0320	15.4450
 3.0340	14.8220
 3.0360	13.9520
 3.0380	14.5530
 3.0400	14.4650
 3.0410	14.5880
 3.0430	15.0950
 3.0450	15.1180
 3.0470	14.8910
 3.0480	15.0470
 3.0500	15.6690
 3.0520	15.7590
 3.0540	15.1230
 3.0560	14.7970
 3.0570	14.6330
 3.0590	15.1850
 3.0610	15.1730
 3.0630	14.8210
 3.0650	14.6000
 3.0660	14.5560
 3.0680	14.9960
 3.0700	15.2020
 3.0720	14.6410
 3.0740	14.5300
 3.0760	14.8570
 3.0770	14.8930
 3.0790	14.8830
 3.0810	14.9580
 3.0830	14.8860
 3.0850	14.7580
 3.0870	14.7990
 3.0880	14.9830
 3.0900	14.8000
 3.0920	14.9370
 3.0940	15.1570
 3.0960	15.3400
 3.0980	15.1610
 3.0990	15.2040
 3.1010	15.2410
 3.1030	14.9960
 3.1050	15.0090
 3.1070	14.9280
 3.1090	14.7950
 3.1110	15.0710
 3.1120	15.0590
 3.1140	15.0080
 3.1160	14.9740
 3.1180	15.0530
 3.1200	14.8840
 3.1220	14.8540
 3.1240	14.8510
 3.1260	15.0020
 3.1270	14.8440
 3.1290	14.5710
 3.1310	14.3030
 3.1330	14.6910
 3.1350	15.4960
 3.1370	15.4070
 3.1390	14.9590
 3.1410	15.2950
 3.1430	15.1200
 3.1450	14.8810
 3.1460	14.5000
 3.1480	14.5570
 3.1500	14.9250
 3.1520	14.7550
 3.1540	14.3000
 3.1560	15.6540
 3.1580	16.0010
 3.1600	14.9680
 3.1620	13.4820
 3.1640	13.7170
 3.1660	14.4000
 3.1680	15.4090
 3.1700	15.7560
 3.1710	14.6540
 3.1730	14.7320
 3.1750	15.7590
 3.1770	16.3450
 3.1790	15.6420
 3.1810	13.4610
 3.1830	13.4670
 3.1850	15.3970
 3.1870	15.5500
 3.1890	14.7420
 3.1910	14.6130
 3.1930	14.9030
 3.1950	14.5790
 3.1970	14.4860
 3.1990	14.5640
 3.2010	14.6060
 3.2030	14.6490
 3.2050	14.6010
 3.2070	14.6950
 3.2090	14.8950
 3.2110	14.7220
 3.2130	14.7110
 3.2150	14.9000
 3.2170	14.8600
 3.2190	14.7610
 3.2210	14.7240
 3.2230	14.6530
 3.2250	14.6720
 3.2270	14.6930
 3.2290	14.5720
 3.2310	14.5880
 3.2330	14.7120
 3.2350	14.7630
 3.2370	14.6770
 3.2390	14.5710
 3.2410	14.5150
 3.2430	14.5040
 3.2450	14.4570
 3.2470	14.4920
 3.2490	14.7800
 3.2510	14.7830
 3.2530	14.5470
 3.2550	14.7140
 3.2570	14.7130
 3.2590	14.8100
 3.2610	14.7420
 3.2630	14.6640
 3.2650	14.6180
 3.2670	14.6610
 3.2690	14.6580
 3.2720	14.6870
 3.2740	14.7260
 3.2760	14.7080
 3.2780	14.5930
 3.2800	14.6460
 3.2820	14.6760
 3.2840	14.6220
 3.2860	14.4610
 3.2880	14.4800
 3.2900	14.6370
 3.2920	14.7010
 3.2940	14.6640
 3.2960	14.6430
 3.2990	14.4430
 3.3010	14.2850
 3.3030	14.3070
 3.3050	14.3680
 3.3070	14.3520
 3.3090	14.3530
 3.3110	14.4360
 3.3130	14.5770
 3.3150	14.5000
 3.3180	14.4990
 3.3200	14.5450
 3.3220	14.5710
 3.3240	14.3960
 3.3260	14.4170
 3.3280	14.5050
 3.3300	14.5490
 3.3330	14.5140
 3.3350	14.4030
 3.3370	14.2130
 3.3390	14.4190
 3.3410	14.4820
 3.3430	14.3900
 3.3450	14.4610
 3.3480	14.4070
 3.3500	14.3000
 3.3520	14.3220
 3.3540	14.3870
 3.3560	14.5300
 3.3580	14.4730
 3.3610	14.3550
 3.3630	14.3020
 3.3650	14.3040
 3.3670	14.2190
 3.3690	14.2870
 3.3720	14.4390
 3.3740	14.4110
 3.3760	14.4350
 3.3780	14.4610
 3.3800	14.3740
 3.3830	14.4070
 3.3850	14.3220
 3.3870	14.3320
 3.3890	14.3160
 3.3910	14.2600
 3.3940	14.3310
 3.3960	14.5240
 3.3980	14.6050
 3.4000	14.6120
 3.4020	14.4850
 3.4050	14.5790
 3.4070	14.7950
 3.4090	14.9480
 3.4110	15.0910
 3.4140	15.3580
 3.4160	15.6170
 3.4180	15.9480
 3.4200	16.2870
 3.4230	16.7630
 3.4250	17.3930
 3.4270	17.9920
 3.4290	18.1270
 3.4320	17.7260
 3.4340	17.0230
 3.4360	16.3470
 3.4390	15.9770
 3.4410	15.8770
 3.4430	15.6210
 3.4450	15.5120
 3.4480	15.6790
 3.4500	15.8570
 3.4520	15.7760
 3.4550	15.6870
 3.4570	15.6430
 3.4590	15.5440
 3.4620	15.3730
 3.4640	15.2890
 3.4660	15.3090
 3.4680	15.3900
 3.4710	15.2790
 3.4730	15.1320
 3.4750	15.1000
 3.4780	15.0920
 3.4800	15.0100
 3.4820	14.9730
 3.4850	14.9090
 3.4870	14.9740
 3.4890	15.1030
 3.4920	15.2050
 3.4940	15.1400
 3.4970	15.1230
 3.4990	15.2160
 3.5010	15.4780
 3.5040	15.6240
 3.5060	16.0770
 3.5080	16.9210
 3.5110	17.4600
 3.5130	17.0930
 3.5160	16.4220
 3.5180	15.9890
 3.5200	15.7460
 3.5230	15.6060
 3.5250	15.5450
 3.5270	15.4580
 3.5300	15.3150
 3.5320	15.2300
 3.5350	15.3130
 3.5370	15.1740
 3.5400	15.1530
 3.5420	15.2520
 3.5440	15.2750
 3.5470	15.2450
 3.5490	15.2480
 3.5520	15.2070
 3.5540	15.1340
 3.5570	14.9660
 3.5590	15.0180
 3.5610	15.0740
 3.5640	15.1310
 3.5660	15.3280
 3.5690	15.2900
 3.5710	15.1980
 3.5740	15.2550
 3.5760	15.2850
 3.5790	15.2160
 3.5810	15.1520
 3.5840	15.2250
 3.5860	15.0420
 3.5890	14.8400
 3.5910	14.7250
 3.5930	14.7060
 3.5960	14.9070
 3.5980	14.9020
 3.6010	14.8190
 3.6030	14.8520
 3.6060	14.8000
 3.6080	14.8380
 3.6110	14.9850
 3.6140	15.0130
 3.6160	14.9420
 3.6190	15.0370
 3.6210	15.0250
 3.6240	15.0390
 3.6260	14.9590
 3.6290	14.8810
 3.6310	14.7370
 3.6340	14.8260
 3.6360	15.0400
 3.6390	14.9980
 3.6410	14.8200
 3.6440	14.7830
 3.6470	14.8310
 3.6490	14.9360
 3.6520	14.9140
 3.6540	14.9020
 3.6570	14.9220
 3.6590	14.9450
 3.6620	14.9970
 3.6650	14.9390
 3.6670	14.9380
 3.6700	15.0700
 3.6720	15.0450
 3.6750	15.0310
 3.6780	15.0270
 3.6800	14.9330
 3.6830	14.9210
 3.6850	14.9930
 3.6880	14.9030
 3.6910	14.8710
 3.6930	14.9040
 3.6960	14.9110
 3.6990	14.8880
 3.7010	14.8670
 3.7040	14.8310
 3.7060	14.9670
 3.7090	15.0200
 3.7120	14.9990
 3.7140	14.9400
 3.7170	14.9190
 3.7200	14.9180
 3.7220	14.8590
 3.7250	14.7110
 3.7280	14.7780
 3.7300	14.9310
 3.7330	14.9050
 3.7360	14.8370
 3.7390	14.8890
 3.7410	14.8630
 3.7440	14.9560
 3.7470	14.9980
 3.7490	14.9240
 3.7520	14.9050
 3.7550	14.8890
 3.7580	14.7840
 3.7600	14.7570
 3.7630	14.8450
 3.7660	14.9510
 3.7680	14.9560
 3.7710	14.8770
 3.7740	14.8240
 3.7770	14.8590
 3.7790	14.8680
 3.7820	14.9260
 3.7850	14.8980
 3.7880	14.8500
 3.7900	14.8300
 3.7930	14.9430
 3.7960	14.8930
 3.7990	14.8730
 3.8020	14.9440
 3.8040	14.9440
 3.8070	14.9250
 3.8100	14.9280
 3.8130	14.8650
 3.8160	14.8550
 3.8180	14.8900
 3.8210	14.9140
 3.8240	14.9430
 3.8270	14.9220
 3.8300	14.8170
 3.8330	14.7610
 3.8350	14.7790
 3.8380	14.8950
 3.8410	14.9120
 3.8440	14.8740
 3.8470	14.8930
 3.8500	14.8970
 3.8520	14.8520
 3.8550	14.8610
 3.8580	14.8610
 3.8610	14.8530
 3.8640	14.8500
 3.8670	14.8850
 3.8700	14.8280
 3.8730	14.8580
 3.8750	14.8980
 3.8780	14.8600
 3.8810	14.7830
 3.8840	14.8790
 3.8870	14.9280
 3.8900	14.8910
 3.8930	14.8980
 3.8960	14.9710
 3.8990	15.0010
 3.9020	14.9630
 3.9050	14.9030
 3.9080	14.8990
 3.9110	14.8760
 3.9140	14.9670
 3.9160	15.0150
 3.9190	14.9310
 3.9220	14.9000
 3.9250	14.9260
 3.9280	14.8710
 3.9310	14.8510
 3.9340	14.8580
 3.9370	14.8360
 3.9400	14.8080
 3.9430	14.8410
 3.9460	14.8720
 3.9490	14.9180
 3.9520	14.8910
 3.9550	14.8430
 3.9580	14.8090
 3.9610	14.8770
 3.9640	14.8910
 3.9670	14.8930
 3.9700	14.9410
 3.9730	14.9690
 3.9770	14.9440
 3.9800	14.8710
 3.9830	14.7960
 3.9860	14.8320
 3.9890	14.8880
 3.9920	14.9240
 3.9950	14.8890
 3.9980	14.8860
 4.0010	14.8730
 4.0040	14.8940
 4.0070	14.9170
 4.0100	14.9530
 4.0130	14.9060
 4.0170	14.8550
 4.0200	14.8460
 4.0230	14.9370
 4.0260	14.9680
 4.0290	14.9850
 4.0320	14.9770
 4.0350	14.9150
 4.0380	14.8830
 4.0420	14.9080
 4.0450	14.9190
 4.0480	14.9200
 4.0510	14.8690
 4.0540	14.8570
 4.0570	14.8400
 4.0610	14.7670
 4.0640	14.7370
 4.0670	14.8480
 4.0700	14.9060
 4.0730	14.9480
 4.0770	14.8660
 4.0800	14.7590
 4.0830	14.8180
 4.0860	14.8970
 4.0890	14.9080
 4.0930	14.9700
 4.0960	14.9410
 4.0990	14.9560
 4.1020	15.0880
 4.1060	15.0370
 4.1090	14.9550
 4.1120	14.9420
 4.1150	14.9140
 4.1190	14.9210
 4.1220	14.9610
 4.1250	14.9940
 4.1280	14.9240
 4.1320	14.9260
 4.1350	14.9450
 4.1380	14.9440
 4.1420	14.9310
 4.1450	14.9240
 4.1480	14.9090
 4.1520	14.9110
 4.1550	14.9440
 4.1580	14.9800
 4.1620	14.9250
 4.1650	14.9470
 4.1680	14.9440
 4.1720	14.9330
 4.1750	14.9280
 4.1780	14.8820
 4.1820	14.8910
 4.1850	15.0110
 4.1890	15.0100
 4.1920	14.9490
 4.1950	14.9330
 4.1990	15.0260
 4.2020	15.1560
 4.2060	15.1600
 4.2090	15.1960
 4.2120	15.4660
 4.2160	15.7490
 4.2190	15.8210
 4.2230	15.8090
 4.2260	15.8330
 4.2300	15.7170
 4.2330	15.7550
 4.2360	16.0380
 4.2400	16.0020
 4.2430	15.6940
 4.2470	15.3500
 4.2500	15.3010
 4.2540	15.4840
 4.2570	15.4490
 4.2610	15.3460
 4.2640	15.2920
 4.2680	15.2190
 4.2710	15.1280
 4.2750	15.2910
 4.2780	15.4860
 4.2820	15.7340
 4.2850	15.8290
 4.2890	15.9140
 4.2930	15.7600
 4.2960	15.5760
 4.3000	15.4590
 4.3030	15.2540
 4.3070	15.1880
 4.3100	15.3350
 4.3140	15.4390
 4.3180	15.2520
 4.3210	15.2110
 4.3250	15.2800
 4.3280	15.2580
 4.3320	15.2810
 4.3360	15.1900
 4.3390	15.0790
 4.3430	15.0750
 4.3470	15.0740
 4.3500	15.1720
 4.3540	15.2330
 4.3570	15.1070
 4.3610	15.1260
 4.3650	15.1560
 4.3680	15.1200
 4.3720	15.0210
 4.3760	14.9530
 4.3800	15.0390
 4.3830	15.0670
 4.3870	15.0170
 4.3910	15.0160
 4.3940	15.0620
 4.3980	15.0740
 4.4020	15.0210
 4.4060	15.0560
 4.4090	15.0960
 4.4130	15.0760
 4.4170	15.0730
 4.4210	15.1240
 4.4240	15.0900
 4.4280	15.0640
 4.4320	15.0810
 4.4360	15.0370
 4.4400	15.0530
 4.4430	15.1320
 4.4470	15.0920
 4.4510	15.0680
 4.4550	15.1380
 4.4590	15.1000
 4.4620	15.0640
 4.4660	15.0570
 4.4700	15.0490
 4.4740	15.0310
 4.4780	15.0420
 4.4820	15.0520
 4.4860	15.0770
 4.4900	15.0840
 4.4930	15.0620
 4.4970	15.0980
 4.5010	15.1330
 4.5050	15.1390
 4.5090	15.1710
 4.5130	15.1970
 4.5170	15.1390
 4.5210	15.1080
 4.5250	15.1000
 4.5290	15.0390
 4.5330	15.0500
 4.5370	15.0640
 4.5410	15.0130
 4.5450	14.9400
 4.5490	14.9840
 4.5530	14.9910
 4.5570	14.9380
 4.5610	14.9150
 4.5650	14.9250
 4.5690	14.9490
 4.5730	15.0040
 4.5770	15.0510
 4.5810	15.0720
 4.5850	15.0400
 4.5890	14.9920
 4.5930	14.9550
 4.5970	15.0320
 4.6010	15.0570
 4.6050	14.9920
 4.6090	14.9790
 4.6130	15.0270
 4.6170	15.0200
 4.6220	14.9510
 4.6260	15.0000
 4.6300	15.0910
 4.6340	15.1020
 4.6380	15.1010
 4.6420	15.0900
 4.6460	15.1450
 4.6510	15.1350
 4.6550	15.0910
 4.6590	15.0480
 4.6630	15.0790
 4.6670	15.0170
 4.6720	14.9650
 4.6760	14.9670
 4.6800	15.0080
 4.6840	15.0400
 4.6880	15.0410
 4.6930	15.0630
 4.6970	15.1240
 4.7010	15.0810
 4.7050	15.0390
 4.7100	15.0700
 4.7140	15.0150
 4.7180	14.9190
 4.7230	14.9370
 4.7270	14.9910
 4.7310	15.0330
 4.7360	15.0510
 4.7400	15.0590
 4.7440	15.0590
 4.7490	14.9810
 4.7530	14.9760
 4.7570	15.1180
 4.7620	15.1260
 4.7660	15.0880
 4.7700	15.0420
 4.7750	15.0400
 4.7790	15.0760
 4.7840	15.0910
 4.7880	15.0640
 4.7920	15.0330
 4.7970	14.9850
 4.8010	15.0240
 4.8060	15.0270
 4.8100	14.9930
 4.8150	15.0920
 4.8190	15.0790
 4.8240	15.0100
 4.8280	15.0340
 4.8330	15.0520
 4.8370	15.0840
 4.8420	15.0690
 4.8460	15.0340
 4.8510	15.0340
 4.8550	14.9790
 4.8600	14.9660
 4.8640	15.0470
 4.8690	15.1210
 4.8730	15.0540
 4.8780	14.9990
 4.8830	15.0380
 4.8870	15.0410
 4.8920	15.0230
 4.8960	15.0250
 4.9010	15.0640
 4.9060	15.0680
 4.9100	15.1190
 4.9150	15.1210
 4.9200	15.1660
 4.9240	15.1630
 4.9290	15.0600
 4.9340	15.0080
 4.9380	15.0350
 4.9430	15.0690
 4.9480	15.1050
 4.9530	15.0670
 4.9570	15.0800
 4.9620	15.0960
 4.9670	15.0890
 4.9720	15.0860
 4.9760	15.1770
 4.9810	15.1500
 4.9860	15.0970
 4.9910	15.1210
 4.9960	15.1250
 5.0000	15.1160
 5.0050	15.1140
 5.0100	15.0790
 5.0150	15.0190
 5.0200	14.9950
 5.0250	15.0620
 5.0290	15.1090
 5.0340	15.1620
 5.0390	15.1390
 5.0440	15.1400
 5.0490	15.0990
 5.0540	15.0920
 5.0590	15.0880
 5.0640	15.1930
 5.0690	15.1380
 5.0740	14.9920
 5.0790	14.9820
 5.0840	15.0830
 5.0890	15.1090
 5.0940	15.1150
 5.0990	15.1010
 5.1040	15.0560
 5.1090	15.0340
 5.1140	15.0580
 5.1190	15.0810
 5.1240	15.0460
 5.1290	15.0020
 5.1340	15.0370
 5.1390	15.0160
 5.1440	15.0450
 5.1490	15.0880
 5.1540	15.0590
 5.1600	15.0710
 5.1650	15.0890
 5.1700	15.0060
 5.1750	15.0230
 5.1800	15.0720
 5.1850	15.0410
 5.1910	14.9710
 5.1960	14.9860
 5.2010	15.0780
 5.2060	15.1310
 5.2110	15.1590
 5.2170	15.0960
 5.2220	14.9470
 5.2270	15.0100
 5.2320	15.1000
 5.2380	15.1180
 5.2430	15.0580
 5.2480	14.9880
 5.2540	14.9220
 5.2590	15.0250
 5.2640	15.0860
 5.2700	15.0750
 5.2750	15.0590
 5.2800	15.0600
 5.2860	14.9970
 5.2910	15.0520
 5.2970	15.1520
 5.3020	15.0540
 5.3070	14.9540
 5.3130	15.0110
 5.3180	15.0320
 5.3240	15.0980
 5.3290	15.1430
 5.3350	15.1500
 5.3400	15.1080
 5.3460	15.0290
 5.3510	14.9790
 5.3570	15.0630
 5.3620	15.0320
 5.3680	15.0270
 5.3730	14.9810
 5.3790	14.9900
 5.3850	15.0400
 5.3900	15.0620
 5.3960	14.9670
 5.4010	14.9570
 5.4070	15.0450
 5.4130	15.0500
 5.4180	14.9400
 5.4240	14.9900
 5.4300	14.9890
 5.4350	14.9360
 5.4410	14.8610
 5.4470	14.9170
 5.4530	14.9910
 5.4580	14.9860
 5.4640	14.9310
 5.4700	14.9320
 5.4760	14.9240
 5.4810	14.9620
 5.4870	14.9150
 5.4930	14.9380
 5.4990	14.9500
 5.5050	14.9250
 5.5110	14.8930
 5.5160	14.9330
 5.5220	14.9560
 5.5280	14.9410
 5.5340	14.9340
 5.5400	14.9630
 5.5460	14.9360
 5.5520	14.9130
 5.5580	14.8820
 5.5640	14.8810
 5.5700	14.8590
 5.5760	14.9100
 5.5820	14.8900
 5.5880	14.8680
 5.5940	14.7630
 5.6000	14.8060
 5.6060	14.7760
 5.6120	14.8510
 5.6180	14.9000
 5.6240	14.8080
 5.6300	14.7920
 5.6360	14.8820
 5.6420	14.8810
 5.6490	14.7330
 5.6550	14.6810
 5.6610	14.7270
 5.6670	14.6780
 5.6730	14.6960
 5.6800	14.6570
 5.6860	14.6080
 5.6920	14.4980
 5.6980	14.4970
 5.7040	14.4590
 5.7110	14.4810
 5.7170	14.4150
 5.7230	14.4150
 5.7300	14.3310
 5.7360	14.3090
 5.7420	14.3090
 5.7490	14.3280
 5.7550	14.3990
 5.7620	14.6850
 5.7680	14.8690
 5.7740	14.7990
 5.7810	14.8150
 5.7870	14.9660
 5.7940	14.9510
 5.8000	14.9580
 5.8070	14.9870
 5.8130	15.0840
 5.8200	15.1870
 5.8260	15.3180
 5.8330	15.3250
 5.8390	15.3360
 5.8460	15.2800
 5.8530	15.2660
 5.8590	15.2990
 5.8660	15.3840
 5.8720	15.4550
 5.8790	15.6120
 5.8860	15.5880
 5.8920	15.5710
 5.8990	15.5360
 5.9060	15.5860
 5.9130	15.6310
 5.9190	15.7330
 5.9260	15.8580
 5.9330	16.1730
 5.9400	16.2090
 5.9470	16.1440
 5.9530	16.2170
 5.9600	16.2530
 5.9670	16.2150
 5.9740	16.1860
 5.9810	16.0440
 5.9880	16.0790
 5.9950	16.0840
 6.0020	16.1030
 6.0090	16.0190
 6.0160	16.0450
 6.0230	16.0290
 6.0300	16.1300
 6.0370	16.1340
 6.0440	16.2640
 6.0510	16.2350
 6.0580	16.2110
 6.0650	16.1920
 6.0720	16.1650
 6.0790	16.0120
 6.0860	15.9490
 6.0930	15.9030
 6.1000	15.9780
 6.1080	16.0310
 6.1150	16.0750
 6.1220	16.0860
 6.1290	16.1010
 6.1370	15.9760
 6.1440	16.0510
 6.1510	16.0790
 6.1580	16.0890
 6.1660	15.9110
 6.1730	15.8820
 6.1800	15.8450
 6.1880	15.9350
 6.1950	15.8800
 6.2030	15.9090
 6.2100	15.8710
 6.2170	15.8830
 6.2250	15.8470
 6.2320	15.8870
 6.2400	15.9440
 6.2470	16.0330
 6.2550	15.9930
 6.2630	15.9680
 6.2700	15.8880
 6.2780	15.9270
 6.2850	15.9310
 6.2930	15.8290
 6.3010	15.6990
 6.3080	15.7920
 6.3160	15.7610
 6.3240	15.8110
 6.3310	15.8450
 6.3390	15.8690
 6.3470	15.7800
 6.3550	15.8020
 6.3620	15.8150
 6.3700	15.8040
 6.3780	15.7080
 6.3860	15.7100
 6.3940	15.5760
 6.4020	15.5280
 6.4100	15.5800
 6.4180	15.6660
 6.4260	15.6630
 6.4330	15.5930
 6.4410	15.4780
 6.4490	15.5920
 6.4580	15.5700
 6.4660	15.5640
 6.4740	15.4920
 6.4820	15.5210
 6.4900	15.5240
 6.4980	15.5460
 6.5060	15.4200
 6.5140	15.4860
 6.5230	15.5110
 6.5310	15.4750
 6.5390	15.3710
 6.5470	15.3320
 6.5550	15.3240
 6.5640	15.4590
 6.5720	15.4240
 6.5800	15.3630
 6.5890	15.2980
 6.5970	15.4220
 6.6060	15.4240
 6.6140	15.4610
 6.6220	15.5160
 6.6310	15.6000
 6.6390	15.5670
 6.6480	15.5510
 6.6560	15.3770
 6.6650	15.3430
 6.6740	15.3390
 6.6820	15.3680
 6.6910	15.3100
 6.6990	15.3680
 6.7080	15.3760
 6.7170	15.3780
 6.7260	15.3500
 6.7340	15.3020
 6.7430	15.1590
 6.7520	15.2070
 6.7610	15.2450
 6.7690	15.3420
 6.7780	15.3610
 6.7870	15.4560
 6.7960	15.2930
 6.8050	15.2230
 6.8140	15.3030
 6.8230	15.4300
 6.8320	15.5330
 6.8410	15.7080
 6.8500	15.6580
 6.8590	15.6950
 6.8680	15.6020
 6.8770	15.6080
 6.8860	15.5890
 6.8950	15.6470
 6.9050	15.5840
 6.9140	15.6290
 6.9230	15.6100
 6.9320	15.7130
 6.9420	15.6990
 6.9510	15.6540
 6.9600	15.6520
 6.9700	15.7280
 6.9790	15.6690
 6.9880	15.6140
 6.9980	15.6990
 7.0070	15.8010
 7.0170	15.6420
 7.0260	15.5470
 7.0360	15.5630
 7.0450	15.6280
 7.0550	15.5520
 7.0650	15.6810
 7.0740	15.7050
 7.0840	15.7420
 7.0940	15.6120
 7.1030	15.6260
 7.1130	15.6070
 7.1230	15.6410
 7.1330	15.5070
 7.1420	15.5300
 7.1520	15.4150
 7.1620	15.3800
 7.1720	15.3330
 7.1820	15.3680
 7.1920	15.2930
 7.2020	15.4040
 7.2120	15.4040
 7.2220	15.4630
 7.2320	15.4330
 7.2420	15.5050
 7.2520	15.4960
 7.2620	15.5740
 7.2730	15.5100
 7.2830	15.5370
 7.2930	15.5190
 7.3030	15.5210
 7.3140	15.4410
 7.3240	15.5360
 7.3340	15.5420
 7.3450	15.5930
 7.3550	15.5080
 7.3660	15.5470
 7.3760	15.4760
 7.3870	15.5000
 7.3970	15.5270
 7.4080	15.6110
 7.4180	15.5100
 7.4290	15.5660
 7.4400	15.5440
 7.4500	15.5300
 7.4610	15.3960
 7.4720	15.4170
 7.4830	15.4270
 7.4930	15.4340
 7.5040	15.3260
 7.5150	15.4750
 7.5260	15.5270
 7.5370	15.5120
 7.5480	15.3100
 7.5590	15.3800
 7.5700	15.5050
 7.5810	15.5110
 7.5920	15.3850
 7.6030	15.4680
 7.6140	15.3710
 7.6260	15.3840
 7.6370	15.3450
 7.6480	15.4630
 7.6590	15.4300
 7.6710	15.4040
 7.6820	15.2870
 7.6930	15.3270
 7.7050	15.2460
 7.7160	15.3320
 7.7280	15.3160
 7.7390	15.4120
 7.7510	15.2780
 7.7630	15.2040
 7.7740	15.1750
 7.7860	15.2360
 7.7980	15.1520
 7.8090	15.2570
 7.8210	15.2800
 7.8330	15.3630
 7.8450	15.3510
 7.8570	15.3860
 7.8690	15.2440
 7.8810	15.4000
 7.8930	15.4540
 7.9050	15.4850
 7.9170	15.4290
 7.9290	15.5040
 7.9410	15.4530
 7.9530	15.4940
 7.9650	15.4400
 7.9780	15.4070
 7.9900	15.2870
 8.0020	15.3120
 8.0150	15.2380
 8.0270	15.4300
 8.0390	15.4730
 8.0520	15.6100
 8.0640	15.5470
 8.0770	15.6350
 8.0900	15.5090
 8.1020	15.5150
 8.1150	15.4720
 8.1280	15.6020
 8.1400	15.5890
 8.1530	15.8070
 8.1660	15.6820
 8.1790	15.4870
 8.1920	15.4380
 8.2050	15.5650
 8.2180	15.3950
 8.2310	15.5770
 8.2440	15.6220
 8.2570	15.7460
 8.2700	15.6810
 8.2830	15.7090
 8.2970	15.5390
 8.3100	15.7120
 8.3230	15.6600
 8.3370	15.7720
 8.3500	15.6270
 8.3640	15.6340
 8.3770	15.6920
 8.3910	15.7950
 8.4040	15.7120
 8.4180	15.8880
 8.4320	15.8150
 8.4450	15.8630
 8.4590	15.9030
 8.4730	16.1090
 8.4870	16.0220
 8.5010	16.1140
 8.5150	16.0870
 8.5290	16.1600
 8.5430	16.1470
 8.5570	16.2830
 8.5710	16.1170
 8.5850	16.3130
 8.5990	16.3580
 8.6140	16.4550
 8.6280	16.4410
 8.6420	16.5590
 8.6570	16.3000
 8.6710	16.3020
 8.6860	16.3520
 8.7000	16.5600
 8.7150	16.4010
 8.7300	16.4130
 8.7440	16.2350
 8.7590	16.2960
 8.7740	16.2910
 8.7890	16.3740
 8.8040	16.1550
 8.8190	16.1920
 8.8340	16.2590
 8.8490	16.3020
 8.8640	16.0360
 8.8790	16.0450
 8.8940	15.9220
 8.9100	15.9660
 8.9250	15.7810
 8.9400	15.9740
 8.9560	15.8030
 8.9710	15.8260
 8.9870	15.7590
 9.0020	15.7080
 9.0180	15.6140
 9.0340	15.8650
 9.0500	15.7450
 9.0650	15.8880
 9.0810	15.9290
 9.0970	16.1140
 9.1130	15.9700
 9.1290	15.9090
 9.1450	15.6110
 9.1610	15.6860
 9.1780	15.6250
 9.1940	15.7280
 9.2100	15.7740
 9.2270	15.8900
 9.2430	15.6430
 9.2600	15.6070
 9.2760	15.4810
 9.2930	15.5410
 9.3090	15.3710
 9.3260	15.6630
 9.3430	15.6390
 9.3600	15.6710
 9.3770	15.3180
 9.3940	15.2000
 9.4110	15.1370
 9.4280	15.4510
 9.4450	15.4630
 9.4620	15.5620
 9.4800	15.4880
 9.4970	15.4670
 9.5140	15.2640
 9.5320	15.5210
 9.5500	15.5130
 9.5670	15.5110
 9.5850	15.3590
 9.6030	15.3610
 9.6200	15.1750
 9.6380	15.4050
 9.6560	15.4700
 9.6740	15.6870
 9.6920	15.6330
 9.7100	15.8580
 9.7290	15.7210
 9.7470	15.6650
 9.7650	15.4390
 9.7840	15.4690
 9.8020	15.5180
 9.8210	15.8530
 9.8390	15.7660
 9.8580	15.7730
 9.8770	15.5430
 9.8960	15.5840
 9.9150	15.6110
 9.9340	15.7360
 9.9530	15.5860
 9.9720	15.6980
 9.9910	15.6150
10.0100	15.6400
10.0300	15.4860
10.0490	15.5980
10.0690	15.5790
10.0880	15.7360
10.1080	15.6260
10.1280	15.7570
10.1480	15.7360
10.1670	15.8930
10.1870	15.8120
10.2070	15.7980
10.2280	15.6430
10.2480	15.6990
10.2680	15.5150
10.2890	15.6290
10.3090	15.6210
10.3300	15.7070
10.3500	15.4670
10.3710	15.4880
10.3920	15.4420
10.4120	15.6270
10.4330	15.4640
10.4540	15.5510
10.4760	15.4000
10.4970	15.6060
10.5180	15.6870
10.5390	15.7320
10.5610	15.4630
10.5820	15.4760
10.6040	15.4060
10.6260	15.6130
10.6480	15.6210
10.6700	15.6170
10.6920	15.4380
10.7140	15.4620
10.7360	15.0850
10.7580	15.1490
10.7800	15.1350
10.8030	15.3360
10.8250	15.1480
10.8480	15.1520
10.8710	15.2230
10.8940	15.3970
10.9170	15.0790
10.9400	15.2190
10.9630	15.1310
10.9860	15.2500
11.0090	15.0630
11.0330	15.1320
11.0560	14.9610
11.0800	15.0410
11.1040	15.0980
11.1270	15.4160
11.1510	14.8770
11.1750	14.7920
11.2000	14.7910
11.2240	15.0520
11.2480	14.9370
11.2730	15.3920
11.2970	15.8130
11.3220	15.3670
11.3470	14.7320
11.3720	14.8550
11.3970	14.7850
11.4220	15.0970
11.4470	15.0660
11.4720	15.1050
11.4980	14.7910
11.5230	14.9070
11.5490	14.6100
11.5750	14.5260
11.6000	14.4180
11.6260	14.7660
11.6530	14.6580
11.6790	14.8060
11.7050	14.7660
11.7320	14.8420
11.7580	14.6190
11.7850	14.9800
11.8120	14.9540
11.8390	14.7900
11.8660	14.4510
11.8930	14.6940
11.9200	14.5510
11.9480	14.8320
11.9760	14.6340
12.0030	14.7360
12.0310	14.7100
12.0590	15.0570
12.0870	15.0620
12.1150	14.9650
12.1440	14.8190
12.1720	15.1910
12.2010	14.9690
12.2300	15.1690
12.2590	14.9430
12.2880	14.9790
12.3170	14.8470
12.3460	15.1440
12.3760	15.0860
12.4050	15.2730
12.4350	15.1780
12.4650	15.3810
12.4950	15.3070
12.5250	15.3880
12.5550	15.1840
12.5860	15.3180
12.6170	15.1620
12.6470	15.5320
12.6780	15.2920
12.7090	15.3990
12.7410	15.2640
12.7720	15.6030
12.8030	15.4270
12.8350	15.5600
12.8670	15.4880
12.8990	15.7190
12.9310	15.3840
12.9640	15.5460
12.9960	15.5160
13.0290	15.8130
13.0610	15.6990
13.0940	15.9290
13.1280	15.6940
13.1610	15.8140
13.1940	15.6140
13.2280	16.1100
13.2620	15.9880
13.2960	16.3410
13.3300	16.1340
13.3640	16.1740
13.3990	15.8980
13.4340	16.1240
13.4690	15.9400
13.5040	16.0670
13.5390	15.8470
13.5740	16.2430
13.6100	16.0870
13.6460	16.3220
13.6820	16.0690
13.7180	16.4680
13.7540	16.2750
13.7910	16.1940
13.8280	16.0420
13.8650	16.6160
13.9020	16.3030
13.9390	16.4050
13.9770	16.2240
14.0150	16.6780
14.0530	16.5110
14.0910	16.7940
14.1290	16.6920
14.1680	17.0980
14.2070	16.8480
14.2460	17.0700
14.2850	16.5640
14.3240	16.4960
14.3640	16.2360
14.4040	16.8940
14.4440	16.7340
14.4840	17.4840
14.5250	16.9810
14.5660	17.3040
14.6070	16.8690
14.6480	17.1560
14.6900	16.6800
14.7310	17.2570
14.7730	17.3220
14.8150	17.7350
14.8580	17.4960
14.9010	17.6080
14.9440	16.4570
14.9870	17.0950
15.0300	16.6150
15.0740	17.3970
15.1180	17.2990
15.1620	17.8850
15.2060	17.3680
15.2510	17.2790
15.2960	16.6220
15.3410	17.6910
15.3870	17.1430
