Name: Quercus rubra
Type: Vegetation
Class: Tree
Genus: Quercus
Species: rubra
Sample No.: QURU-1-3
Owner: UCSB
Wavelength Range: VSWIR
Origin: USA; Massachusetts; Harvard Forest
Collection Date: 7/8/2013
Description: Samples were collected as part of NSF Macrosystem Biology proposal titled: Collaborative Research: Thermal controls on ecosystem metabolism and function: scaling from leaves to canopies to regions. Samples were collected and overnighted to JPL facilities for processing. The same leaves were processed in the Nicolet and then measured using the ASD.
Measurement: Bidirectional reflectance
First Column: X
Second Column: Y
X Units: Wavelength (micrometers)
Y Units: Reflectance (percentage)
First X Value: 0.35
Last X Value: 2.5
Number of X Values: 2151
Additional Information: vegetation.tree.quercus.rubra.vswir.quru-1-3.ucsb.asd.ancillary.txt

 0.3500	 7.7320
 0.3510	 7.4910
 0.3520	 7.5250
 0.3530	 7.6790
 0.3540	 7.7790
 0.3550	 8.0100
 0.3560	 8.0420
 0.3570	 7.8970
 0.3580	 7.7720
 0.3590	 7.6050
 0.3600	 7.6250
 0.3610	 7.8020
 0.3620	 7.7290
 0.3630	 7.6120
 0.3640	 7.5380
 0.3650	 7.5460
 0.3660	 7.6300
 0.3670	 7.7090
 0.3680	 7.7070
 0.3690	 7.5780
 0.3700	 7.5700
 0.3710	 7.5870
 0.3720	 7.5590
 0.3730	 7.5670
 0.3740	 7.4560
 0.3750	 7.3860
 0.3760	 7.5180
 0.3770	 7.5330
 0.3780	 7.5810
 0.3790	 7.7130
 0.3800	 7.8670
 0.3810	 7.6740
 0.3820	 7.4240
 0.3830	 7.3680
 0.3840	 7.4360
 0.3850	 7.5200
 0.3860	 7.5680
 0.3870	 7.5720
 0.3880	 7.5950
 0.3890	 7.6450
 0.3900	 7.6910
 0.3910	 7.6710
 0.3920	 7.6690
 0.3930	 7.6600
 0.3940	 7.6240
 0.3950	 7.6240
 0.3960	 7.5790
 0.3970	 7.5490
 0.3980	 7.6260
 0.3990	 7.5950
 0.4000	 7.5840
 0.4010	 7.6310
 0.4020	 7.6080
 0.4030	 7.6250
 0.4040	 7.6340
 0.4050	 7.5940
 0.4060	 7.6190
 0.4070	 7.6050
 0.4080	 7.5800
 0.4090	 7.6400
 0.4100	 7.6510
 0.4110	 7.6380
 0.4120	 7.6350
 0.4130	 7.6670
 0.4140	 7.6970
 0.4150	 7.7110
 0.4160	 7.7090
 0.4170	 7.7040
 0.4180	 7.6990
 0.4190	 7.6940
 0.4200	 7.6860
 0.4210	 7.7190
 0.4220	 7.7570
 0.4230	 7.7630
 0.4240	 7.7440
 0.4250	 7.7460
 0.4260	 7.7700
 0.4270	 7.7920
 0.4280	 7.7950
 0.4290	 7.7820
 0.4300	 7.7670
 0.4310	 7.7840
 0.4320	 7.7770
 0.4330	 7.7650
 0.4340	 7.7720
 0.4350	 7.7730
 0.4360	 7.7770
 0.4370	 7.7850
 0.4380	 7.7880
 0.4390	 7.8150
 0.4400	 7.8260
 0.4410	 7.8060
 0.4420	 7.8060
 0.4430	 7.8060
 0.4440	 7.8170
 0.4450	 7.8450
 0.4460	 7.8350
 0.4470	 7.8320
 0.4480	 7.8480
 0.4490	 7.8440
 0.4500	 7.8630
 0.4510	 7.8890
 0.4520	 7.8950
 0.4530	 7.8670
 0.4540	 7.8660
 0.4550	 7.8920
 0.4560	 7.9070
 0.4570	 7.9040
 0.4580	 7.9040
 0.4590	 7.9140
 0.4600	 7.9110
 0.4610	 7.9140
 0.4620	 7.9260
 0.4630	 7.9360
 0.4640	 7.9190
 0.4650	 7.9040
 0.4660	 7.8990
 0.4670	 7.8940
 0.4680	 7.9010
 0.4690	 7.9060
 0.4700	 7.9020
 0.4710	 7.9050
 0.4720	 7.9030
 0.4730	 7.8970
 0.4740	 7.8970
 0.4750	 7.9030
 0.4760	 7.9080
 0.4770	 7.9100
 0.4780	 7.9050
 0.4790	 7.9080
 0.4800	 7.9140
 0.4810	 7.9120
 0.4820	 7.9010
 0.4830	 7.8990
 0.4840	 7.9050
 0.4850	 7.9090
 0.4860	 7.9130
 0.4870	 7.9150
 0.4880	 7.9180
 0.4890	 7.9410
 0.4900	 7.9550
 0.4910	 7.9570
 0.4920	 7.9560
 0.4930	 7.9790
 0.4940	 8.0030
 0.4950	 8.0150
 0.4960	 8.0170
 0.4970	 8.0310
 0.4980	 8.0560
 0.4990	 8.0860
 0.5000	 8.1060
 0.5010	 8.1330
 0.5020	 8.1650
 0.5030	 8.1910
 0.5040	 8.2250
 0.5050	 8.2680
 0.5060	 8.3160
 0.5070	 8.3720
 0.5080	 8.4260
 0.5090	 8.4830
 0.5100	 8.5540
 0.5110	 8.6330
 0.5120	 8.7250
 0.5130	 8.8290
 0.5140	 8.9290
 0.5150	 9.0530
 0.5160	 9.1980
 0.5170	 9.3510
 0.5180	 9.5000
 0.5190	 9.6640
 0.5200	 9.8410
 0.5210	10.0150
 0.5220	10.1980
 0.5230	10.3830
 0.5240	10.5640
 0.5250	10.7390
 0.5260	10.9180
 0.5270	11.0890
 0.5280	11.2380
 0.5290	11.3800
 0.5300	11.5120
 0.5310	11.6310
 0.5320	11.7360
 0.5330	11.8350
 0.5340	11.9240
 0.5350	11.9970
 0.5360	12.0630
 0.5370	12.1120
 0.5380	12.1490
 0.5390	12.1900
 0.5400	12.2210
 0.5410	12.2410
 0.5420	12.2570
 0.5430	12.2800
 0.5440	12.3100
 0.5450	12.3440
 0.5460	12.3780
 0.5470	12.4180
 0.5480	12.4520
 0.5490	12.4750
 0.5500	12.4910
 0.5510	12.4990
 0.5520	12.5030
 0.5530	12.5060
 0.5540	12.4840
 0.5550	12.4460
 0.5560	12.3970
 0.5570	12.3390
 0.5580	12.2680
 0.5590	12.1860
 0.5600	12.0920
 0.5610	11.9880
 0.5620	11.8810
 0.5630	11.7700
 0.5640	11.6520
 0.5650	11.5280
 0.5660	11.4030
 0.5670	11.2770
 0.5680	11.1430
 0.5690	11.0040
 0.5700	10.8660
 0.5710	10.7350
 0.5720	10.6080
 0.5730	10.4940
 0.5740	10.3950
 0.5750	10.3050
 0.5760	10.2100
 0.5770	10.1260
 0.5780	10.0590
 0.5790	 9.9900
 0.5800	 9.9170
 0.5810	 9.8490
 0.5820	 9.7960
 0.5830	 9.7440
 0.5840	 9.6960
 0.5850	 9.6520
 0.5860	 9.6030
 0.5870	 9.5560
 0.5880	 9.5140
 0.5890	 9.4790
 0.5900	 9.4490
 0.5910	 9.4250
 0.5920	 9.4070
 0.5930	 9.3940
 0.5940	 9.3740
 0.5950	 9.3580
 0.5960	 9.3470
 0.5970	 9.3310
 0.5980	 9.3120
 0.5990	 9.2920
 0.6000	 9.2740
 0.6010	 9.2590
 0.6020	 9.2400
 0.6030	 9.2130
 0.6040	 9.1850
 0.6050	 9.1560
 0.6060	 9.1250
 0.6070	 9.0900
 0.6080	 9.0540
 0.6090	 9.0090
 0.6100	 8.9530
 0.6110	 8.8910
 0.6120	 8.8550
 0.6130	 8.8330
 0.6140	 8.8110
 0.6150	 8.7840
 0.6160	 8.7560
 0.6170	 8.7290
 0.6180	 8.7050
 0.6190	 8.6750
 0.6200	 8.6510
 0.6210	 8.6350
 0.6220	 8.6210
 0.6230	 8.6050
 0.6240	 8.5880
 0.6250	 8.5720
 0.6260	 8.5660
 0.6270	 8.5620
 0.6280	 8.5570
 0.6290	 8.5510
 0.6300	 8.5460
 0.6310	 8.5380
 0.6320	 8.5290
 0.6330	 8.5280
 0.6340	 8.5170
 0.6350	 8.5000
 0.6360	 8.4810
 0.6370	 8.4630
 0.6380	 8.4400
 0.6390	 8.4140
 0.6400	 8.3850
 0.6410	 8.3520
 0.6420	 8.3200
 0.6430	 8.2920
 0.6440	 8.2650
 0.6450	 8.2360
 0.6460	 8.2100
 0.6470	 8.1890
 0.6480	 8.1740
 0.6490	 8.1580
 0.6500	 8.1400
 0.6510	 8.1260
 0.6520	 8.1200
 0.6530	 8.1170
 0.6540	 8.1120
 0.6550	 8.1000
 0.6560	 8.0910
 0.6570	 8.0840
 0.6580	 8.0740
 0.6590	 8.0650
 0.6600	 8.0550
 0.6610	 8.0440
 0.6620	 8.0300
 0.6630	 8.0250
 0.6640	 8.0260
 0.6650	 8.0260
 0.6660	 8.0220
 0.6670	 8.0260
 0.6680	 8.0350
 0.6690	 8.0420
 0.6700	 8.0560
 0.6710	 8.0750
 0.6720	 8.0950
 0.6730	 8.1170
 0.6740	 8.1440
 0.6750	 8.1730
 0.6760	 8.2050
 0.6770	 8.2360
 0.6780	 8.2720
 0.6790	 8.3150
 0.6800	 8.3620
 0.6810	 8.4110
 0.6820	 8.4620
 0.6830	 8.5140
 0.6840	 8.5650
 0.6850	 8.6220
 0.6860	 8.6800
 0.6870	 8.7360
 0.6880	 8.8040
 0.6890	 8.8820
 0.6900	 8.9760
 0.6910	 9.0890
 0.6920	 9.2400
 0.6930	 9.4360
 0.6940	 9.6830
 0.6950	 9.9920
 0.6960	10.3640
 0.6970	10.8080
 0.6980	11.3320
 0.6990	11.9260
 0.7000	12.5910
 0.7010	13.3200
 0.7020	14.1020
 0.7030	14.9320
 0.7040	15.8020
 0.7050	16.6980
 0.7060	17.6150
 0.7070	18.5560
 0.7080	19.5160
 0.7090	20.4860
 0.7100	21.4620
 0.7110	22.4470
 0.7120	23.4380
 0.7130	24.4240
 0.7140	25.4130
 0.7150	26.4010
 0.7160	27.3810
 0.7170	28.3520
 0.7180	29.3140
 0.7190	30.2690
 0.7200	31.2140
 0.7210	32.1330
 0.7220	33.0330
 0.7230	33.9170
 0.7240	34.7740
 0.7250	35.6000
 0.7260	36.4020
 0.7270	37.1810
 0.7280	37.9240
 0.7290	38.6390
 0.7300	39.3210
 0.7310	39.9620
 0.7320	40.5930
 0.7330	41.1800
 0.7340	41.7250
 0.7350	42.2640
 0.7360	42.7650
 0.7370	43.2330
 0.7380	43.6730
 0.7390	44.0840
 0.7400	44.4620
 0.7410	44.8130
 0.7420	45.1440
 0.7430	45.4400
 0.7440	45.7210
 0.7450	45.9910
 0.7460	46.2310
 0.7470	46.4450
 0.7480	46.6320
 0.7490	46.8000
 0.7500	46.9690
 0.7510	47.1090
 0.7520	47.2250
 0.7530	47.3360
 0.7540	47.4530
 0.7550	47.5480
 0.7560	47.6200
 0.7570	47.6910
 0.7580	47.7610
 0.7590	47.8250
 0.7600	47.8780
 0.7610	47.9250
 0.7620	47.9610
 0.7630	47.9910
 0.7640	48.0190
 0.7650	48.0280
 0.7660	48.0540
 0.7670	48.0920
 0.7680	48.1100
 0.7690	48.1120
 0.7700	48.1170
 0.7710	48.1300
 0.7720	48.1340
 0.7730	48.1410
 0.7740	48.1440
 0.7750	48.1410
 0.7760	48.1620
 0.7770	48.1820
 0.7780	48.1890
 0.7790	48.1800
 0.7800	48.1710
 0.7810	48.1760
 0.7820	48.1940
 0.7830	48.2070
 0.7840	48.2170
 0.7850	48.2170
 0.7860	48.2100
 0.7870	48.2320
 0.7880	48.2310
 0.7890	48.2190
 0.7900	48.2220
 0.7910	48.2200
 0.7920	48.2240
 0.7930	48.2310
 0.7940	48.2340
 0.7950	48.2430
 0.7960	48.2430
 0.7970	48.2360
 0.7980	48.2530
 0.7990	48.2570
 0.8000	48.2540
 0.8010	48.2530
 0.8020	48.2470
 0.8030	48.2420
 0.8040	48.2390
 0.8050	48.2380
 0.8060	48.2300
 0.8070	48.2170
 0.8080	48.2100
 0.8090	48.2230
 0.8100	48.2050
 0.8110	48.1960
 0.8120	48.2100
 0.8130	48.1900
 0.8140	48.1770
 0.8150	48.1710
 0.8160	48.1640
 0.8170	48.1520
 0.8180	48.1440
 0.8190	48.1390
 0.8200	48.1300
 0.8210	48.1230
 0.8220	48.1190
 0.8230	48.1090
 0.8240	48.0830
 0.8250	48.0900
 0.8260	48.0920
 0.8270	48.0640
 0.8280	48.0280
 0.8290	48.0240
 0.8300	48.0370
 0.8310	48.0430
 0.8320	48.0250
 0.8330	48.0020
 0.8340	47.9890
 0.8350	47.9920
 0.8360	47.9850
 0.8370	47.9720
 0.8380	47.9600
 0.8390	47.9590
 0.8400	47.9540
 0.8410	47.9490
 0.8420	47.9460
 0.8430	47.9430
 0.8440	47.9330
 0.8450	47.9160
 0.8460	47.9010
 0.8470	47.9180
 0.8480	47.9240
 0.8490	47.9130
 0.8500	47.8970
 0.8510	47.9050
 0.8520	47.9080
 0.8530	47.9000
 0.8540	47.8910
 0.8550	47.8760
 0.8560	47.8670
 0.8570	47.8690
 0.8580	47.8820
 0.8590	47.9070
 0.8600	47.9090
 0.8610	47.8840
 0.8620	47.8690
 0.8630	47.8790
 0.8640	47.8900
 0.8650	47.8870
 0.8660	47.8970
 0.8670	47.9080
 0.8680	47.9050
 0.8690	47.8840
 0.8700	47.8950
 0.8710	47.8980
 0.8720	47.8910
 0.8730	47.8910
 0.8740	47.9020
 0.8750	47.9040
 0.8760	47.9010
 0.8770	47.9140
 0.8780	47.9150
 0.8790	47.9080
 0.8800	47.9020
 0.8810	47.8990
 0.8820	47.9220
 0.8830	47.9350
 0.8840	47.9160
 0.8850	47.9100
 0.8860	47.9160
 0.8870	47.9270
 0.8880	47.9350
 0.8890	47.9380
 0.8900	47.9350
 0.8910	47.9400
 0.8920	47.9600
 0.8930	47.9500
 0.8940	47.9480
 0.8950	47.9600
 0.8960	47.9670
 0.8970	47.9600
 0.8980	47.9530
 0.8990	47.9530
 0.9000	47.9640
 0.9010	47.9730
 0.9020	47.9750
 0.9030	47.9730
 0.9040	47.9710
 0.9050	47.9740
 0.9060	47.9830
 0.9070	47.9890
 0.9080	47.9720
 0.9090	47.9880
 0.9100	48.0060
 0.9110	47.9960
 0.9120	48.0000
 0.9130	48.0080
 0.9140	48.0120
 0.9150	48.0070
 0.9160	48.0050
 0.9170	47.9950
 0.9180	47.9940
 0.9190	48.0150
 0.9200	47.9970
 0.9210	47.9760
 0.9220	47.9720
 0.9230	47.9860
 0.9240	47.9730
 0.9250	47.9690
 0.9260	47.9820
 0.9270	47.9940
 0.9280	47.9850
 0.9290	47.9660
 0.9300	47.9580
 0.9310	47.9760
 0.9320	47.9740
 0.9330	47.9440
 0.9340	47.8970
 0.9350	47.8620
 0.9360	47.8460
 0.9370	47.8550
 0.9380	47.8710
 0.9390	47.8540
 0.9400	47.8370
 0.9410	47.8310
 0.9420	47.8280
 0.9430	47.7990
 0.9440	47.7590
 0.9450	47.7320
 0.9460	47.7270
 0.9470	47.7100
 0.9480	47.7150
 0.9490	47.6870
 0.9500	47.6030
 0.9510	47.5780
 0.9520	47.5410
 0.9530	47.5110
 0.9540	47.5080
 0.9550	47.4750
 0.9560	47.4220
 0.9570	47.3780
 0.9580	47.3620
 0.9590	47.3400
 0.9600	47.3160
 0.9610	47.2790
 0.9620	47.2270
 0.9630	47.2100
 0.9640	47.1970
 0.9650	47.1830
 0.9660	47.1710
 0.9670	47.1630
 0.9680	47.1520
 0.9690	47.1350
 0.9700	47.1170
 0.9710	47.1070
 0.9720	47.1250
 0.9730	47.1380
 0.9740	47.1110
 0.9750	47.1000
 0.9760	47.0840
 0.9770	47.0780
 0.9780	47.0940
 0.9790	47.0470
 0.9800	47.0320
 0.9810	47.0510
 0.9820	47.0590
 0.9830	47.0660
 0.9840	47.0690
 0.9850	47.0710
 0.9860	47.0760
 0.9870	47.0780
 0.9880	47.0900
 0.9890	47.1000
 0.9900	47.0900
 0.9910	47.0720
 0.9920	47.0750
 0.9930	47.0790
 0.9940	47.0830
 0.9950	47.0870
 0.9960	47.0910
 0.9970	47.0950
 0.9980	47.0980
 0.9990	47.1020
 1.0000	47.1060
 1.0010	47.1100
 1.0020	47.1140
 1.0030	47.1170
 1.0040	47.1210
 1.0050	47.1250
 1.0060	47.1290
 1.0070	47.1330
 1.0080	47.1370
 1.0090	47.1400
 1.0100	47.1400
 1.0110	47.1350
 1.0120	47.1420
 1.0130	47.1530
 1.0140	47.1630
 1.0150	47.1780
 1.0160	47.1890
 1.0170	47.1970
 1.0180	47.2060
 1.0190	47.2100
 1.0200	47.2210
 1.0210	47.2280
 1.0220	47.2270
 1.0230	47.2290
 1.0240	47.2290
 1.0250	47.2340
 1.0260	47.2430
 1.0270	47.2500
 1.0280	47.2610
 1.0290	47.2680
 1.0300	47.2740
 1.0310	47.2780
 1.0320	47.2800
 1.0330	47.2820
 1.0340	47.2770
 1.0350	47.2720
 1.0360	47.2870
 1.0370	47.3000
 1.0380	47.3070
 1.0390	47.3250
 1.0400	47.3250
 1.0410	47.3020
 1.0420	47.2980
 1.0430	47.2960
 1.0440	47.2980
 1.0450	47.3110
 1.0460	47.3190
 1.0470	47.3310
 1.0480	47.3400
 1.0490	47.3470
 1.0500	47.3540
 1.0510	47.3600
 1.0520	47.3630
 1.0530	47.3640
 1.0540	47.3610
 1.0550	47.3650
 1.0560	47.3710
 1.0570	47.3750
 1.0580	47.3850
 1.0590	47.3880
 1.0600	47.3800
 1.0610	47.3830
 1.0620	47.3970
 1.0630	47.4010
 1.0640	47.4040
 1.0650	47.4120
 1.0660	47.4170
 1.0670	47.4210
 1.0680	47.4280
 1.0690	47.4420
 1.0700	47.4470
 1.0710	47.4460
 1.0720	47.4480
 1.0730	47.4510
 1.0740	47.4540
 1.0750	47.4580
 1.0760	47.4590
 1.0770	47.4560
 1.0780	47.4560
 1.0790	47.4500
 1.0800	47.4520
 1.0810	47.4670
 1.0820	47.4700
 1.0830	47.4730
 1.0840	47.4730
 1.0850	47.4680
 1.0860	47.4590
 1.0870	47.4560
 1.0880	47.4560
 1.0890	47.4510
 1.0900	47.4430
 1.0910	47.4370
 1.0920	47.4280
 1.0930	47.4220
 1.0940	47.4170
 1.0950	47.4110
 1.0960	47.4020
 1.0970	47.3960
 1.0980	47.3930
 1.0990	47.3870
 1.1000	47.3800
 1.1010	47.3730
 1.1020	47.3650
 1.1030	47.3550
 1.1040	47.3460
 1.1050	47.3340
 1.1060	47.3210
 1.1070	47.3040
 1.1080	47.2900
 1.1090	47.2760
 1.1100	47.2620
 1.1110	47.2500
 1.1120	47.2350
 1.1130	47.2180
 1.1140	47.2020
 1.1150	47.1840
 1.1160	47.1690
 1.1170	47.1570
 1.1180	47.1430
 1.1190	47.1320
 1.1200	47.1190
 1.1210	47.0980
 1.1220	47.0780
 1.1230	47.0510
 1.1240	47.0250
 1.1250	46.9980
 1.1260	46.9710
 1.1270	46.9400
 1.1280	46.9090
 1.1290	46.8700
 1.1300	46.8270
 1.1310	46.7820
 1.1320	46.7320
 1.1330	46.6800
 1.1340	46.6300
 1.1350	46.5720
 1.1360	46.5070
 1.1370	46.4450
 1.1380	46.3810
 1.1390	46.3090
 1.1400	46.2360
 1.1410	46.1660
 1.1420	46.0920
 1.1430	46.0120
 1.1440	45.9360
 1.1450	45.8580
 1.1460	45.7870
 1.1470	45.7190
 1.1480	45.6510
 1.1490	45.5870
 1.1500	45.5230
 1.1510	45.4570
 1.1520	45.3980
 1.1530	45.3420
 1.1540	45.2920
 1.1550	45.2460
 1.1560	45.2030
 1.1570	45.1670
 1.1580	45.1330
 1.1590	45.1050
 1.1600	45.0810
 1.1610	45.0560
 1.1620	45.0370
 1.1630	45.0180
 1.1640	45.0000
 1.1650	44.9860
 1.1660	44.9750
 1.1670	44.9660
 1.1680	44.9620
 1.1690	44.9560
 1.1700	44.9500
 1.1710	44.9440
 1.1720	44.9360
 1.1730	44.9280
 1.1740	44.9200
 1.1750	44.9110
 1.1760	44.9050
 1.1770	44.8990
 1.1780	44.8930
 1.1790	44.8920
 1.1800	44.8860
 1.1810	44.8760
 1.1820	44.8650
 1.1830	44.8520
 1.1840	44.8390
 1.1850	44.8310
 1.1860	44.8240
 1.1870	44.8160
 1.1880	44.8100
 1.1890	44.8050
 1.1900	44.8010
 1.1910	44.8010
 1.1920	44.7990
 1.1930	44.7980
 1.1940	44.7960
 1.1950	44.7920
 1.1960	44.7890
 1.1970	44.7890
 1.1980	44.7890
 1.1990	44.7890
 1.2000	44.7870
 1.2010	44.7920
 1.2020	44.7950
 1.2030	44.7970
 1.2040	44.8020
 1.2050	44.8010
 1.2060	44.8030
 1.2070	44.8100
 1.2080	44.8170
 1.2090	44.8270
 1.2100	44.8310
 1.2110	44.8350
 1.2120	44.8360
 1.2130	44.8420
 1.2140	44.8480
 1.2150	44.8560
 1.2160	44.8700
 1.2170	44.8800
 1.2180	44.8920
 1.2190	44.9080
 1.2200	44.9220
 1.2210	44.9380
 1.2220	44.9490
 1.2230	44.9620
 1.2240	44.9780
 1.2250	44.9920
 1.2260	45.0050
 1.2270	45.0190
 1.2280	45.0300
 1.2290	45.0410
 1.2300	45.0560
 1.2310	45.0680
 1.2320	45.0740
 1.2330	45.0790
 1.2340	45.0860
 1.2350	45.0880
 1.2360	45.0950
 1.2370	45.1040
 1.2380	45.1180
 1.2390	45.1280
 1.2400	45.1360
 1.2410	45.1460
 1.2420	45.1540
 1.2430	45.1590
 1.2440	45.1680
 1.2450	45.1790
 1.2460	45.1870
 1.2470	45.1940
 1.2480	45.2010
 1.2490	45.2060
 1.2500	45.2070
 1.2510	45.2110
 1.2520	45.2140
 1.2530	45.2130
 1.2540	45.2140
 1.2550	45.2130
 1.2560	45.2120
 1.2570	45.2130
 1.2580	45.2120
 1.2590	45.2120
 1.2600	45.2150
 1.2610	45.2180
 1.2620	45.2210
 1.2630	45.2220
 1.2640	45.2240
 1.2650	45.2230
 1.2660	45.2170
 1.2670	45.2100
 1.2680	45.2060
 1.2690	45.2010
 1.2700	45.1930
 1.2710	45.1890
 1.2720	45.1850
 1.2730	45.1770
 1.2740	45.1700
 1.2750	45.1620
 1.2760	45.1510
 1.2770	45.1420
 1.2780	45.1310
 1.2790	45.1220
 1.2800	45.1150
 1.2810	45.1020
 1.2820	45.0880
 1.2830	45.0780
 1.2840	45.0660
 1.2850	45.0550
 1.2860	45.0450
 1.2870	45.0320
 1.2880	45.0170
 1.2890	45.0010
 1.2900	44.9870
 1.2910	44.9740
 1.2920	44.9600
 1.2930	44.9460
 1.2940	44.9280
 1.2950	44.9080
 1.2960	44.8920
 1.2970	44.8740
 1.2980	44.8520
 1.2990	44.8320
 1.3000	44.8080
 1.3010	44.7810
 1.3020	44.7540
 1.3030	44.7230
 1.3040	44.6930
 1.3050	44.6630
 1.3060	44.6360
 1.3070	44.6090
 1.3080	44.5790
 1.3090	44.5440
 1.3100	44.5020
 1.3110	44.4600
 1.3120	44.4140
 1.3130	44.3620
 1.3140	44.3100
 1.3150	44.2590
 1.3160	44.2010
 1.3170	44.1390
 1.3180	44.0790
 1.3190	44.0130
 1.3200	43.9480
 1.3210	43.8820
 1.3220	43.8080
 1.3230	43.7340
 1.3240	43.6590
 1.3250	43.5830
 1.3260	43.5090
 1.3270	43.4310
 1.3280	43.3520
 1.3290	43.2680
 1.3300	43.1800
 1.3310	43.0950
 1.3320	43.0040
 1.3330	42.9120
 1.3340	42.8250
 1.3350	42.7340
 1.3360	42.6420
 1.3370	42.5540
 1.3380	42.4620
 1.3390	42.3710
 1.3400	42.2810
 1.3410	42.1880
 1.3420	42.0980
 1.3430	42.0040
 1.3440	41.9080
 1.3450	41.8160
 1.3460	41.7240
 1.3470	41.6350
 1.3480	41.5510
 1.3490	41.4650
 1.3500	41.3790
 1.3510	41.2910
 1.3520	41.2020
 1.3530	41.1130
 1.3540	41.0240
 1.3550	40.9360
 1.3560	40.8500
 1.3570	40.7610
 1.3580	40.6720
 1.3590	40.5810
 1.3600	40.4820
 1.3610	40.3830
 1.3620	40.2840
 1.3630	40.1820
 1.3640	40.0780
 1.3650	39.9680
 1.3660	39.8520
 1.3670	39.7280
 1.3680	39.5940
 1.3690	39.4550
 1.3700	39.3060
 1.3710	39.1490
 1.3720	38.9850
 1.3730	38.8070
 1.3740	38.6150
 1.3750	38.4100
 1.3760	38.1870
 1.3770	37.9490
 1.3780	37.6900
 1.3790	37.4130
 1.3800	37.1180
 1.3810	36.8030
 1.3820	36.4720
 1.3830	36.1230
 1.3840	35.7580
 1.3850	35.3750
 1.3860	34.9770
 1.3870	34.5610
 1.3880	34.1370
 1.3890	33.7000
 1.3900	33.2490
 1.3910	32.7940
 1.3920	32.3270
 1.3930	31.8510
 1.3940	31.3770
 1.3950	30.8960
 1.3960	30.4170
 1.3970	29.9430
 1.3980	29.4690
 1.3990	29.0090
 1.4000	28.5590
 1.4010	28.1170
 1.4020	27.6930
 1.4030	27.2800
 1.4040	26.8830
 1.4050	26.5020
 1.4060	26.1350
 1.4070	25.7910
 1.4080	25.4630
 1.4090	25.1510
 1.4100	24.8610
 1.4110	24.5880
 1.4120	24.3340
 1.4130	24.0990
 1.4140	23.8780
 1.4150	23.6740
 1.4160	23.4850
 1.4170	23.3120
 1.4180	23.1560
 1.4190	23.0110
 1.4200	22.8790
 1.4210	22.7580
 1.4220	22.6460
 1.4230	22.5470
 1.4240	22.4560
 1.4250	22.3750
 1.4260	22.3040
 1.4270	22.2390
 1.4280	22.1840
 1.4290	22.1330
 1.4300	22.0900
 1.4310	22.0520
 1.4320	22.0220
 1.4330	21.9960
 1.4340	21.9770
 1.4350	21.9600
 1.4360	21.9460
 1.4370	21.9360
 1.4380	21.9310
 1.4390	21.9290
 1.4400	21.9320
 1.4410	21.9370
 1.4420	21.9420
 1.4430	21.9510
 1.4440	21.9630
 1.4450	21.9750
 1.4460	21.9920
 1.4470	22.0080
 1.4480	22.0270
 1.4490	22.0470
 1.4500	22.0680
 1.4510	22.0900
 1.4520	22.1140
 1.4530	22.1400
 1.4540	22.1680
 1.4550	22.1990
 1.4560	22.2320
 1.4570	22.2680
 1.4580	22.3070
 1.4590	22.3500
 1.4600	22.3960
 1.4610	22.4470
 1.4620	22.5010
 1.4630	22.5610
 1.4640	22.6260
 1.4650	22.6920
 1.4660	22.7660
 1.4670	22.8440
 1.4680	22.9290
 1.4690	23.0220
 1.4700	23.1170
 1.4710	23.2140
 1.4720	23.3160
 1.4730	23.4200
 1.4740	23.5280
 1.4750	23.6400
 1.4760	23.7530
 1.4770	23.8670
 1.4780	23.9830
 1.4790	24.1020
 1.4800	24.2230
 1.4810	24.3460
 1.4820	24.4690
 1.4830	24.5920
 1.4840	24.7160
 1.4850	24.8420
 1.4860	24.9670
 1.4870	25.0920
 1.4880	25.2150
 1.4890	25.3370
 1.4900	25.4600
 1.4910	25.5840
 1.4920	25.7080
 1.4930	25.8330
 1.4940	25.9570
 1.4950	26.0830
 1.4960	26.2080
 1.4970	26.3340
 1.4980	26.4580
 1.4990	26.5800
 1.5000	26.7040
 1.5010	26.8290
 1.5020	26.9530
 1.5030	27.0780
 1.5040	27.1990
 1.5050	27.3180
 1.5060	27.4370
 1.5070	27.5560
 1.5080	27.6730
 1.5090	27.7890
 1.5100	27.9050
 1.5110	28.0190
 1.5120	28.1350
 1.5130	28.2500
 1.5140	28.3670
 1.5150	28.4860
 1.5160	28.6010
 1.5170	28.7170
 1.5180	28.8290
 1.5190	28.9390
 1.5200	29.0490
 1.5210	29.1540
 1.5220	29.2590
 1.5230	29.3630
 1.5240	29.4640
 1.5250	29.5670
 1.5260	29.6700
 1.5270	29.7690
 1.5280	29.8680
 1.5290	29.9630
 1.5300	30.0600
 1.5310	30.1570
 1.5320	30.2530
 1.5330	30.3500
 1.5340	30.4430
 1.5350	30.5340
 1.5360	30.6260
 1.5370	30.7160
 1.5380	30.8070
 1.5390	30.8980
 1.5400	30.9880
 1.5410	31.0760
 1.5420	31.1620
 1.5430	31.2450
 1.5440	31.3240
 1.5450	31.4010
 1.5460	31.4780
 1.5470	31.5550
 1.5480	31.6320
 1.5490	31.7110
 1.5500	31.7890
 1.5510	31.8670
 1.5520	31.9440
 1.5530	32.0170
 1.5540	32.0910
 1.5550	32.1610
 1.5560	32.2310
 1.5570	32.3020
 1.5580	32.3700
 1.5590	32.4410
 1.5600	32.5140
 1.5610	32.5820
 1.5620	32.6490
 1.5630	32.7160
 1.5640	32.7790
 1.5650	32.8440
 1.5660	32.9100
 1.5670	32.9740
 1.5680	33.0330
 1.5690	33.0900
 1.5700	33.1460
 1.5710	33.2010
 1.5720	33.2610
 1.5730	33.3230
 1.5740	33.3800
 1.5750	33.4380
 1.5760	33.4930
 1.5770	33.5470
 1.5780	33.6050
 1.5790	33.6600
 1.5800	33.7140
 1.5810	33.7700
 1.5820	33.8210
 1.5830	33.8740
 1.5840	33.9280
 1.5850	33.9790
 1.5860	34.0300
 1.5870	34.0800
 1.5880	34.1250
 1.5890	34.1700
 1.5900	34.2170
 1.5910	34.2660
 1.5920	34.3170
 1.5930	34.3650
 1.5940	34.4090
 1.5950	34.4540
 1.5960	34.4960
 1.5970	34.5400
 1.5980	34.5850
 1.5990	34.6270
 1.6000	34.6680
 1.6010	34.7090
 1.6020	34.7490
 1.6030	34.7910
 1.6040	34.8330
 1.6050	34.8730
 1.6060	34.9120
 1.6070	34.9520
 1.6080	34.9890
 1.6090	35.0270
 1.6100	35.0650
 1.6110	35.1000
 1.6120	35.1350
 1.6130	35.1700
 1.6140	35.2030
 1.6150	35.2350
 1.6160	35.2700
 1.6170	35.3020
 1.6180	35.3350
 1.6190	35.3690
 1.6200	35.3970
 1.6210	35.4250
 1.6220	35.4560
 1.6230	35.4830
 1.6240	35.5120
 1.6250	35.5450
 1.6260	35.5740
 1.6270	35.6010
 1.6280	35.6300
 1.6290	35.6570
 1.6300	35.6820
 1.6310	35.7080
 1.6320	35.7370
 1.6330	35.7590
 1.6340	35.7810
 1.6350	35.7980
 1.6360	35.8090
 1.6370	35.8230
 1.6380	35.8360
 1.6390	35.8510
 1.6400	35.8690
 1.6410	35.8820
 1.6420	35.8930
 1.6430	35.9030
 1.6440	35.9100
 1.6450	35.9180
 1.6460	35.9240
 1.6470	35.9290
 1.6480	35.9350
 1.6490	35.9360
 1.6500	35.9330
 1.6510	35.9290
 1.6520	35.9240
 1.6530	35.9170
 1.6540	35.9140
 1.6550	35.9130
 1.6560	35.9080
 1.6570	35.9040
 1.6580	35.9060
 1.6590	35.9030
 1.6600	35.8980
 1.6610	35.8930
 1.6620	35.8870
 1.6630	35.8850
 1.6640	35.8870
 1.6650	35.8910
 1.6660	35.8880
 1.6670	35.8810
 1.6680	35.8760
 1.6690	35.8670
 1.6700	35.8610
 1.6710	35.8580
 1.6720	35.8460
 1.6730	35.8370
 1.6740	35.8270
 1.6750	35.8070
 1.6760	35.7910
 1.6770	35.7760
 1.6780	35.7580
 1.6790	35.7430
 1.6800	35.7230
 1.6810	35.6960
 1.6820	35.6720
 1.6830	35.6440
 1.6840	35.6180
 1.6850	35.5950
 1.6860	35.5690
 1.6870	35.5430
 1.6880	35.5170
 1.6890	35.4870
 1.6900	35.4570
 1.6910	35.4250
 1.6920	35.3920
 1.6930	35.3580
 1.6940	35.3250
 1.6950	35.2910
 1.6960	35.2570
 1.6970	35.2240
 1.6980	35.1890
 1.6990	35.1560
 1.7000	35.1190
 1.7010	35.0790
 1.7020	35.0380
 1.7030	34.9890
 1.7040	34.9480
 1.7050	34.9110
 1.7060	34.8710
 1.7070	34.8320
 1.7080	34.7940
 1.7090	34.7500
 1.7100	34.7130
 1.7110	34.6810
 1.7120	34.6430
 1.7130	34.6050
 1.7140	34.5630
 1.7150	34.5200
 1.7160	34.4770
 1.7170	34.4320
 1.7180	34.3870
 1.7190	34.3420
 1.7200	34.2960
 1.7210	34.2540
 1.7220	34.2130
 1.7230	34.1710
 1.7240	34.1310
 1.7250	34.0890
 1.7260	34.0480
 1.7270	34.0090
 1.7280	33.9700
 1.7290	33.9320
 1.7300	33.8930
 1.7310	33.8580
 1.7320	33.8240
 1.7330	33.7920
 1.7340	33.7640
 1.7350	33.7340
 1.7360	33.7020
 1.7370	33.6720
 1.7380	33.6430
 1.7390	33.6120
 1.7400	33.5820
 1.7410	33.5500
 1.7420	33.5130
 1.7430	33.4770
 1.7440	33.4410
 1.7450	33.4040
 1.7460	33.3670
 1.7470	33.3240
 1.7480	33.2740
 1.7490	33.2290
 1.7500	33.1820
 1.7510	33.1330
 1.7520	33.0860
 1.7530	33.0340
 1.7540	32.9750
 1.7550	32.9260
 1.7560	32.8800
 1.7570	32.8300
 1.7580	32.7810
 1.7590	32.7300
 1.7600	32.6780
 1.7610	32.6290
 1.7620	32.5810
 1.7630	32.5280
 1.7640	32.4810
 1.7650	32.4360
 1.7660	32.3950
 1.7670	32.3600
 1.7680	32.3240
 1.7690	32.2930
 1.7700	32.2610
 1.7710	32.2310
 1.7720	32.1990
 1.7730	32.1670
 1.7740	32.1370
 1.7750	32.1070
 1.7760	32.0780
 1.7770	32.0510
 1.7780	32.0230
 1.7790	31.9940
 1.7800	31.9680
 1.7810	31.9440
 1.7820	31.9210
 1.7830	31.9000
 1.7840	31.8790
 1.7850	31.8580
 1.7860	31.8410
 1.7870	31.8270
 1.7880	31.8180
 1.7890	31.8070
 1.7900	31.7930
 1.7910	31.7810
 1.7920	31.7670
 1.7930	31.7560
 1.7940	31.7480
 1.7950	31.7400
 1.7960	31.7340
 1.7970	31.7290
 1.7980	31.7270
 1.7990	31.7230
 1.8000	31.7170
 1.8010	31.7160
 1.8020	31.7190
 1.8030	31.7190
 1.8040	31.7220
 1.8050	31.7230
 1.8060	31.7200
 1.8070	31.7170
 1.8080	31.7140
 1.8090	31.7130
 1.8100	31.7100
 1.8110	31.7130
 1.8120	31.7220
 1.8130	31.7210
 1.8140	31.7200
 1.8150	31.7160
 1.8160	31.7080
 1.8170	31.7050
 1.8180	31.7000
 1.8190	31.6890
 1.8200	31.6830
 1.8210	31.6770
 1.8220	31.6730
 1.8230	31.6770
 1.8240	31.6720
 1.8250	31.6660
 1.8260	31.6540
 1.8270	31.6280
 1.8280	31.6030
 1.8290	31.5770
 1.8300	31.5520
 1.8310	31.5270
 1.8320	31.5010
 1.8330	31.4760
 1.8340	31.4500
 1.8350	31.4500
 1.8360	31.4180
 1.8370	31.3800
 1.8380	31.3360
 1.8390	31.2890
 1.8400	31.2390
 1.8410	31.1820
 1.8420	31.1190
 1.8430	31.0530
 1.8440	30.9810
 1.8450	30.8970
 1.8460	30.8010
 1.8470	30.7010
 1.8480	30.5970
 1.8490	30.4800
 1.8500	30.3580
 1.8510	30.2310
 1.8520	30.0920
 1.8530	29.9390
 1.8540	29.7780
 1.8550	29.5970
 1.8560	29.4000
 1.8570	29.1940
 1.8580	28.9710
 1.8590	28.7400
 1.8600	28.4980
 1.8610	28.2470
 1.8620	27.9800
 1.8630	27.6960
 1.8640	27.3890
 1.8650	27.0660
 1.8660	26.7270
 1.8670	26.3590
 1.8680	25.9750
 1.8690	25.5690
 1.8700	25.1380
 1.8710	24.6820
 1.8720	24.2180
 1.8730	23.7390
 1.8740	23.2410
 1.8750	22.7340
 1.8760	22.2070
 1.8770	21.6720
 1.8780	21.1290
 1.8790	20.5760
 1.8800	20.0300
 1.8810	19.4840
 1.8820	18.9310
 1.8830	18.3730
 1.8840	17.8220
 1.8850	17.2690
 1.8860	16.7230
 1.8870	16.1910
 1.8880	15.6660
 1.8890	15.1560
 1.8900	14.6650
 1.8910	14.1970
 1.8920	13.7440
 1.8930	13.3220
 1.8940	12.9250
 1.8950	12.5460
 1.8960	12.1930
 1.8970	11.8650
 1.8980	11.5580
 1.8990	11.2810
 1.9000	11.0240
 1.9010	10.7960
 1.9020	10.5830
 1.9030	10.3920
 1.9040	10.2200
 1.9050	10.0670
 1.9060	 9.9310
 1.9070	 9.8090
 1.9080	 9.6980
 1.9090	 9.6000
 1.9100	 9.5170
 1.9110	 9.4420
 1.9120	 9.3860
 1.9130	 9.3290
 1.9140	 9.2790
 1.9150	 9.2360
 1.9160	 9.1990
 1.9170	 9.1690
 1.9180	 9.1430
 1.9190	 9.1190
 1.9200	 9.1000
 1.9210	 9.0850
 1.9220	 9.0750
 1.9230	 9.0720
 1.9240	 9.0710
 1.9250	 9.0720
 1.9260	 9.0790
 1.9270	 9.0840
 1.9280	 9.0940
 1.9290	 9.1100
 1.9300	 9.1220
 1.9310	 9.1340
 1.9320	 9.1530
 1.9330	 9.1760
 1.9340	 9.2020
 1.9350	 9.2310
 1.9360	 9.2680
 1.9370	 9.3000
 1.9380	 9.3320
 1.9390	 9.3600
 1.9400	 9.3900
 1.9410	 9.4290
 1.9420	 9.4660
 1.9430	 9.5060
 1.9440	 9.5500
 1.9450	 9.5970
 1.9460	 9.6440
 1.9470	 9.6970
 1.9480	 9.7480
 1.9490	 9.7950
 1.9500	 9.8490
 1.9510	 9.9000
 1.9520	 9.9530
 1.9530	10.0120
 1.9540	10.0670
 1.9550	10.1260
 1.9560	10.1900
 1.9570	10.2490
 1.9580	10.3020
 1.9590	10.3630
 1.9600	10.4280
 1.9610	10.4930
 1.9620	10.5610
 1.9630	10.6330
 1.9640	10.7020
 1.9650	10.7660
 1.9660	10.8320
 1.9670	10.9000
 1.9680	10.9710
 1.9690	11.0420
 1.9700	11.1180
 1.9710	11.2010
 1.9720	11.2810
 1.9730	11.3630
 1.9740	11.4450
 1.9750	11.5220
 1.9760	11.6020
 1.9770	11.6790
 1.9780	11.7590
 1.9790	11.8440
 1.9800	11.9350
 1.9810	12.0240
 1.9820	12.1200
 1.9830	12.2110
 1.9840	12.2980
 1.9850	12.3870
 1.9860	12.4740
 1.9870	12.5590
 1.9880	12.6500
 1.9890	12.7460
 1.9900	12.8430
 1.9910	12.9390
 1.9920	13.0290
 1.9930	13.1140
 1.9940	13.2040
 1.9950	13.2900
 1.9960	13.3810
 1.9970	13.4780
 1.9980	13.5720
 1.9990	13.6680
 2.0000	13.7650
 2.0010	13.8570
 2.0020	13.9530
 2.0030	14.0460
 2.0040	14.1330
 2.0050	14.2240
 2.0060	14.3130
 2.0070	14.4040
 2.0080	14.4980
 2.0090	14.5890
 2.0100	14.6830
 2.0110	14.7710
 2.0120	14.8560
 2.0130	14.9370
 2.0140	15.0180
 2.0150	15.0960
 2.0160	15.1790
 2.0170	15.2650
 2.0180	15.3480
 2.0190	15.4350
 2.0200	15.5160
 2.0210	15.5920
 2.0220	15.6700
 2.0230	15.7480
 2.0240	15.8250
 2.0250	15.9040
 2.0260	15.9810
 2.0270	16.0580
 2.0280	16.1340
 2.0290	16.2060
 2.0300	16.2810
 2.0310	16.3500
 2.0320	16.4120
 2.0330	16.4780
 2.0340	16.5390
 2.0350	16.6050
 2.0360	16.6730
 2.0370	16.7390
 2.0380	16.8050
 2.0390	16.8700
 2.0400	16.9330
 2.0410	16.9950
 2.0420	17.0580
 2.0430	17.1170
 2.0440	17.1710
 2.0450	17.2200
 2.0460	17.2730
 2.0470	17.3240
 2.0480	17.3760
 2.0490	17.4310
 2.0500	17.4840
 2.0510	17.5330
 2.0520	17.5870
 2.0530	17.6460
 2.0540	17.7030
 2.0550	17.7620
 2.0560	17.8200
 2.0570	17.8740
 2.0580	17.9290
 2.0590	17.9830
 2.0600	18.0370
 2.0610	18.0910
 2.0620	18.1460
 2.0630	18.1990
 2.0640	18.2470
 2.0650	18.3040
 2.0660	18.3680
 2.0670	18.4300
 2.0680	18.4970
 2.0690	18.5620
 2.0700	18.6280
 2.0710	18.6860
 2.0720	18.7360
 2.0730	18.7930
 2.0740	18.8440
 2.0750	18.8860
 2.0760	18.9410
 2.0770	19.0020
 2.0780	19.0590
 2.0790	19.1230
 2.0800	19.1790
 2.0810	19.2310
 2.0820	19.2820
 2.0830	19.3260
 2.0840	19.3740
 2.0850	19.4200
 2.0860	19.4690
 2.0870	19.5230
 2.0880	19.5740
 2.0890	19.6270
 2.0900	19.6810
 2.0910	19.7340
 2.0920	19.7900
 2.0930	19.8390
 2.0940	19.8850
 2.0950	19.9290
 2.0960	19.9620
 2.0970	20.0060
 2.0980	20.0550
 2.0990	20.1030
 2.1000	20.1580
 2.1010	20.2090
 2.1020	20.2570
 2.1030	20.3040
 2.1040	20.3490
 2.1050	20.3940
 2.1060	20.4380
 2.1070	20.4800
 2.1080	20.5190
 2.1090	20.5560
 2.1100	20.5960
 2.1110	20.6330
 2.1120	20.6750
 2.1130	20.7270
 2.1140	20.7690
 2.1150	20.8090
 2.1160	20.8440
 2.1170	20.8650
 2.1180	20.8960
 2.1190	20.9320
 2.1200	20.9660
 2.1210	21.0040
 2.1220	21.0440
 2.1230	21.0830
 2.1240	21.1200
 2.1250	21.1560
 2.1260	21.1930
 2.1270	21.2270
 2.1280	21.2590
 2.1290	21.2920
 2.1300	21.3270
 2.1310	21.3570
 2.1320	21.3830
 2.1330	21.4080
 2.1340	21.4250
 2.1350	21.4490
 2.1360	21.4730
 2.1370	21.5010
 2.1380	21.5380
 2.1390	21.5670
 2.1400	21.5930
 2.1410	21.6180
 2.1420	21.6410
 2.1430	21.6570
 2.1440	21.6760
 2.1450	21.6970
 2.1460	21.7130
 2.1470	21.7220
 2.1480	21.7400
 2.1490	21.7550
 2.1500	21.7790
 2.1510	21.8170
 2.1520	21.8430
 2.1530	21.8720
 2.1540	21.8930
 2.1550	21.8970
 2.1560	21.9120
 2.1570	21.9310
 2.1580	21.9450
 2.1590	21.9590
 2.1600	21.9770
 2.1610	21.9900
 2.1620	22.0020
 2.1630	22.0160
 2.1640	22.0380
 2.1650	22.0490
 2.1660	22.0550
 2.1670	22.0620
 2.1680	22.0600
 2.1690	22.0720
 2.1700	22.0960
 2.1710	22.1110
 2.1720	22.1280
 2.1730	22.1430
 2.1740	22.1470
 2.1750	22.1610
 2.1760	22.1810
 2.1770	22.2010
 2.1780	22.2250
 2.1790	22.2450
 2.1800	22.2580
 2.1810	22.2780
 2.1820	22.3010
 2.1830	22.3240
 2.1840	22.3450
 2.1850	22.3700
 2.1860	22.3920
 2.1870	22.4080
 2.1880	22.4310
 2.1890	22.4630
 2.1900	22.4820
 2.1910	22.4970
 2.1920	22.5110
 2.1930	22.5120
 2.1940	22.5240
 2.1950	22.5430
 2.1960	22.5600
 2.1970	22.5810
 2.1980	22.5980
 2.1990	22.6110
 2.2000	22.6260
 2.2010	22.6350
 2.2020	22.6500
 2.2030	22.6740
 2.2040	22.6900
 2.2050	22.7020
 2.2060	22.7160
 2.2070	22.7250
 2.2080	22.7230
 2.2090	22.7330
 2.2100	22.7470
 2.2110	22.7590
 2.2120	22.7740
 2.2130	22.7860
 2.2140	22.7950
 2.2150	22.8040
 2.2160	22.8150
 2.2170	22.8200
 2.2180	22.8240
 2.2190	22.8220
 2.2200	22.8100
 2.2210	22.8040
 2.2220	22.7960
 2.2230	22.7920
 2.2240	22.7980
 2.2250	22.7930
 2.2260	22.7810
 2.2270	22.7700
 2.2280	22.7580
 2.2290	22.7420
 2.2300	22.7280
 2.2310	22.7120
 2.2320	22.6890
 2.2330	22.6560
 2.2340	22.6240
 2.2350	22.5880
 2.2360	22.5500
 2.2370	22.5060
 2.2380	22.4650
 2.2390	22.4230
 2.2400	22.3790
 2.2410	22.3390
 2.2420	22.2870
 2.2430	22.2240
 2.2440	22.1680
 2.2450	22.1040
 2.2460	22.0480
 2.2470	22.0020
 2.2480	21.9500
 2.2490	21.8970
 2.2500	21.8420
 2.2510	21.7810
 2.2520	21.7260
 2.2530	21.6790
 2.2540	21.6220
 2.2550	21.5620
 2.2560	21.5040
 2.2570	21.4410
 2.2580	21.3790
 2.2590	21.3210
 2.2600	21.2640
 2.2610	21.2030
 2.2620	21.1480
 2.2630	21.0910
 2.2640	21.0310
 2.2650	20.9700
 2.2660	20.9070
 2.2670	20.8510
 2.2680	20.8020
 2.2690	20.7500
 2.2700	20.7000
 2.2710	20.6480
 2.2720	20.5990
 2.2730	20.5390
 2.2740	20.4730
 2.2750	20.4160
 2.2760	20.3560
 2.2770	20.3010
 2.2780	20.2560
 2.2790	20.2060
 2.2800	20.1530
 2.2810	20.0990
 2.2820	20.0420
 2.2830	19.9930
 2.2840	19.9390
 2.2850	19.8970
 2.2860	19.8760
 2.2870	19.8360
 2.2880	19.7960
 2.2890	19.7450
 2.2900	19.6760
 2.2910	19.6140
 2.2920	19.5480
 2.2930	19.4910
 2.2940	19.4410
 2.2950	19.3850
 2.2960	19.3250
 2.2970	19.2710
 2.2980	19.2170
 2.2990	19.1650
 2.3000	19.1160
 2.3010	19.0640
 2.3020	19.0040
 2.3030	18.9440
 2.3040	18.8800
 2.3050	18.8130
 2.3060	18.7450
 2.3070	18.6870
 2.3080	18.6420
 2.3090	18.6050
 2.3100	18.5710
 2.3110	18.5370
 2.3120	18.5070
 2.3130	18.4760
 2.3140	18.4500
 2.3150	18.4340
 2.3160	18.4150
 2.3170	18.3950
 2.3180	18.3810
 2.3190	18.3710
 2.3200	18.3490
 2.3210	18.3230
 2.3220	18.3000
 2.3230	18.2670
 2.3240	18.2420
 2.3250	18.2300
 2.3260	18.2040
 2.3270	18.1750
 2.3280	18.1370
 2.3290	18.0860
 2.3300	18.0470
 2.3310	18.0100
 2.3320	17.9680
 2.3330	17.9290
 2.3340	17.8820
 2.3350	17.8220
 2.3360	17.7710
 2.3370	17.7240
 2.3380	17.6740
 2.3390	17.6230
 2.3400	17.5730
 2.3410	17.5220
 2.3420	17.4710
 2.3430	17.4190
 2.3440	17.3660
 2.3450	17.3110
 2.3460	17.2660
 2.3470	17.2240
 2.3480	17.1850
 2.3490	17.1600
 2.3500	17.1220
 2.3510	17.0720
 2.3520	17.0330
 2.3530	16.9970
 2.3540	16.9490
 2.3550	16.9170
 2.3560	16.8980
 2.3570	16.8670
 2.3580	16.8380
 2.3590	16.8050
 2.3600	16.7690
 2.3610	16.7350
 2.3620	16.7050
 2.3630	16.6650
 2.3640	16.6290
 2.3650	16.5930
 2.3660	16.5480
 2.3670	16.5170
 2.3680	16.4740
 2.3690	16.4250
 2.3700	16.3790
 2.3710	16.3330
 2.3720	16.2970
 2.3730	16.2570
 2.3740	16.2220
 2.3750	16.1660
 2.3760	16.0950
 2.3770	16.0340
 2.3780	15.9750
 2.3790	15.9300
 2.3800	15.8990
 2.3810	15.8590
 2.3820	15.8070
 2.3830	15.7530
 2.3840	15.7010
 2.3850	15.6590
 2.3860	15.6080
 2.3870	15.5500
 2.3880	15.4910
 2.3890	15.4360
 2.3900	15.3960
 2.3910	15.3510
 2.3920	15.3040
 2.3930	15.2680
 2.3940	15.2310
 2.3950	15.1810
 2.3960	15.1330
 2.3970	15.0690
 2.3980	14.9930
 2.3990	14.9490
 2.4000	14.9120
 2.4010	14.8790
 2.4020	14.8350
 2.4030	14.7710
 2.4040	14.7050
 2.4050	14.6160
 2.4060	14.5310
 2.4070	14.4630
 2.4080	14.4070
 2.4090	14.3660
 2.4100	14.3310
 2.4110	14.2810
 2.4120	14.2330
 2.4130	14.1960
 2.4140	14.1450
 2.4150	14.0900
 2.4160	14.0210
 2.4170	13.9620
 2.4180	13.9090
 2.4190	13.8540
 2.4200	13.8070
 2.4210	13.7360
 2.4220	13.6520
 2.4230	13.5680
 2.4240	13.5000
 2.4250	13.4350
 2.4260	13.3630
 2.4270	13.3090
 2.4280	13.2530
 2.4290	13.2000
 2.4300	13.1590
 2.4310	13.1120
 2.4320	13.0760
 2.4330	13.0320
 2.4340	12.9710
 2.4350	12.9100
 2.4360	12.8310
 2.4370	12.7500
 2.4380	12.6850
 2.4390	12.6230
 2.4400	12.5630
 2.4410	12.5280
 2.4420	12.5150
 2.4430	12.4740
 2.4440	12.4230
 2.4450	12.3470
 2.4460	12.2370
 2.4470	12.1850
 2.4480	12.1400
 2.4490	12.0820
 2.4500	12.0360
 2.4510	11.9650
 2.4520	11.9120
 2.4530	11.8630
 2.4540	11.8230
 2.4550	11.7840
 2.4560	11.7150
 2.4570	11.6800
 2.4580	11.6510
 2.4590	11.6020
 2.4600	11.5410
 2.4610	11.4680
 2.4620	11.3670
 2.4630	11.2730
 2.4640	11.2540
 2.4650	11.2110
 2.4660	11.1940
 2.4670	11.2140
 2.4680	11.1490
 2.4690	11.0970
 2.4700	11.0670
 2.4710	11.0150
 2.4720	10.9810
 2.4730	11.0240
 2.4740	10.9810
 2.4750	10.8400
 2.4760	10.8130
 2.4770	10.8040
 2.4780	10.7650
 2.4790	10.8080
 2.4800	10.7940
 2.4810	10.6970
 2.4820	10.7080
 2.4830	10.6660
 2.4840	10.5690
 2.4850	10.5050
 2.4860	10.4560
 2.4870	10.4390
 2.4880	10.4460
 2.4890	10.4440
 2.4900	10.3720
 2.4910	10.3230
 2.4920	10.3680
 2.4930	10.3520
 2.4940	10.3990
 2.4950	10.4850
 2.4960	10.4780
 2.4970	10.5130
 2.4980	10.4450
 2.4990	10.3110
 2.5000	10.2350
