Name: Salvia leucophylla 2
Type: vegetation
Class: Shrub
Genus: Salvia
Species: leucophylla
Sample No.: VH093
Owner: UCSB
Wavelength Range: TIR
Origin: 34.698; -120.0477; WGS84
Collection Date: 4/21/2013
Description: Samples were collected as part of the HyspIRI Airborne Campaign. 48 individual plants were sampled in three times in 2013 - spring  summer  and fall. The name of the sample includes a 1  2  or 3 which references a different individual of the species. Samples were taken to JPL and processed within 48 hours of collection. The same leaves were processed in the Nicolet and then measured using the ASD.
Measurement: Hemispherical reflectance
First Column: X
Second Column: Y
X Units: Wavelength (micrometers)
Y Units: Reflectance (percentage)
First X Value: 2.501
Last X Value: 15.387
Number of X Values: 1737
Additional Information: vegetation.shrub.salvia.leucophylla.tir.vh093.ucsb.nicolet.ancillary.txt

 2.5010	15.1130
 2.5030	15.0580
 2.5040	15.0400
 2.5050	15.0250
 2.5060	15.1130
 2.5070	15.0730
 2.5090	15.0000
 2.5100	14.9180
 2.5110	14.9390
 2.5120	14.9980
 2.5140	15.0130
 2.5150	15.0940
 2.5160	15.1200
 2.5170	15.0580
 2.5180	15.0230
 2.5200	14.8580
 2.5210	14.9860
 2.5220	15.0050
 2.5230	14.9290
 2.5250	14.8990
 2.5260	14.9240
 2.5270	14.9490
 2.5280	14.9930
 2.5290	14.9030
 2.5310	14.8370
 2.5320	14.8210
 2.5330	14.9880
 2.5340	14.9900
 2.5360	15.0810
 2.5370	15.0830
 2.5380	15.0360
 2.5390	14.9780
 2.5410	14.9730
 2.5420	14.9530
 2.5430	15.0470
 2.5440	15.0200
 2.5460	15.0440
 2.5470	15.0150
 2.5480	14.9970
 2.5490	14.9650
 2.5510	14.9470
 2.5520	14.9420
 2.5530	15.1220
 2.5540	15.1260
 2.5560	15.0680
 2.5570	15.0090
 2.5580	15.1250
 2.5590	15.0480
 2.5610	15.0830
 2.5620	15.0710
 2.5630	15.1130
 2.5640	15.0780
 2.5660	15.0290
 2.5670	15.0130
 2.5680	15.0620
 2.5700	15.0140
 2.5710	15.0310
 2.5720	15.0130
 2.5730	15.0610
 2.5750	15.0640
 2.5760	15.0580
 2.5770	14.9280
 2.5790	14.8160
 2.5800	14.8890
 2.5810	15.0820
 2.5820	15.0300
 2.5840	14.9370
 2.5850	14.8950
 2.5860	14.9330
 2.5880	15.0030
 2.5890	15.0580
 2.5900	14.9030
 2.5910	14.8490
 2.5930	14.8480
 2.5940	14.8420
 2.5950	14.7620
 2.5970	14.7660
 2.5980	14.6870
 2.5990	14.6940
 2.6000	14.6540
 2.6020	14.6460
 2.6030	14.5440
 2.6040	14.5110
 2.6060	14.5080
 2.6070	14.4990
 2.6080	14.3900
 2.6100	14.4140
 2.6110	14.4040
 2.6120	14.4260
 2.6140	14.3170
 2.6150	14.2860
 2.6160	14.2810
 2.6180	14.3050
 2.6190	14.1100
 2.6200	13.9250
 2.6220	13.8690
 2.6230	13.9490
 2.6240	13.8690
 2.6260	13.8560
 2.6270	13.8060
 2.6280	13.8630
 2.6300	13.8230
 2.6310	13.7990
 2.6320	13.6940
 2.6340	13.6410
 2.6350	13.6740
 2.6360	13.6710
 2.6380	13.5380
 2.6390	13.4410
 2.6400	13.3560
 2.6420	13.2670
 2.6430	13.1290
 2.6440	13.2100
 2.6460	13.1910
 2.6470	13.1390
 2.6480	13.0380
 2.6500	13.0430
 2.6510	13.0650
 2.6520	13.0430
 2.6540	12.9360
 2.6550	12.8710
 2.6560	12.7870
 2.6580	12.7810
 2.6590	12.7430
 2.6610	12.6350
 2.6620	12.4720
 2.6630	12.5110
 2.6650	12.5430
 2.6660	12.5180
 2.6670	12.3690
 2.6690	12.3380
 2.6700	12.2390
 2.6720	12.2430
 2.6730	12.2210
 2.6740	12.1690
 2.6760	12.1240
 2.6770	12.1150
 2.6780	12.0310
 2.6800	12.0420
 2.6810	11.9690
 2.6830	11.9150
 2.6840	11.8450
 2.6850	11.7650
 2.6870	11.6240
 2.6880	11.5320
 2.6900	11.4400
 2.6910	11.4050
 2.6920	11.3540
 2.6940	11.3160
 2.6950	11.1300
 2.6970	11.1490
 2.6980	11.0190
 2.6990	11.0230
 2.7010	11.0390
 2.7020	10.9760
 2.7040	10.8070
 2.7050	10.8040
 2.7060	10.6840
 2.7080	10.5830
 2.7090	10.5000
 2.7110	10.4840
 2.7120	10.4900
 2.7130	10.4130
 2.7150	10.0890
 2.7160	 9.9530
 2.7180	 9.8980
 2.7190	 9.8390
 2.7210	 9.7960
 2.7220	 9.7350
 2.7230	 9.6150
 2.7250	 9.5640
 2.7260	 9.4750
 2.7280	 9.4020
 2.7290	 9.1960
 2.7310	 9.1440
 2.7320	 9.1110
 2.7330	 9.1050
 2.7350	 8.9710
 2.7360	 8.9830
 2.7380	 8.9370
 2.7390	 8.8950
 2.7410	 8.8260
 2.7420	 8.7310
 2.7440	 8.5670
 2.7450	 8.5560
 2.7470	 8.4270
 2.7480	 8.4440
 2.7490	 8.4140
 2.7510	 8.3560
 2.7520	 8.2860
 2.7540	 8.2760
 2.7550	 8.1780
 2.7570	 8.1320
 2.7580	 8.0530
 2.7600	 8.0570
 2.7610	 8.0630
 2.7630	 8.0750
 2.7640	 7.9160
 2.7660	 7.8540
 2.7670	 7.7980
 2.7680	 7.7410
 2.7700	 7.5440
 2.7710	 7.5020
 2.7730	 7.4320
 2.7740	 7.5370
 2.7760	 7.4380
 2.7770	 7.3300
 2.7790	 7.4590
 2.7800	 7.5110
 2.7820	 7.2680
 2.7830	 7.2450
 2.7850	 7.2490
 2.7860	 7.2160
 2.7880	 7.1000
 2.7890	 7.1230
 2.7910	 7.0460
 2.7920	 7.0980
 2.7940	 7.0910
 2.7950	 7.1170
 2.7970	 7.0140
 2.7980	 7.0040
 2.8000	 6.8510
 2.8010	 6.6950
 2.8030	 6.6160
 2.8040	 6.7090
 2.8060	 6.6520
 2.8070	 6.7750
 2.8090	 6.7120
 2.8110	 6.5180
 2.8120	 6.4340
 2.8140	 6.5540
 2.8150	 6.6610
 2.8170	 6.5720
 2.8180	 6.3700
 2.8200	 6.4120
 2.8210	 6.3650
 2.8230	 6.3600
 2.8240	 6.2710
 2.8260	 6.2950
 2.8270	 6.2100
 2.8290	 6.1910
 2.8300	 6.2260
 2.8320	 6.2810
 2.8340	 6.2260
 2.8350	 6.3010
 2.8370	 6.1150
 2.8380	 5.9700
 2.8400	 6.0350
 2.8410	 6.1880
 2.8430	 6.2050
 2.8440	 6.2230
 2.8460	 6.0620
 2.8480	 6.0420
 2.8490	 6.0730
 2.8510	 6.1320
 2.8520	 5.9960
 2.8540	 5.9020
 2.8550	 5.8630
 2.8570	 6.0060
 2.8590	 6.0200
 2.8600	 5.9590
 2.8620	 5.8500
 2.8630	 5.9560
 2.8650	 5.9690
 2.8660	 5.9860
 2.8680	 5.9810
 2.8700	 5.9600
 2.8710	 5.8580
 2.8730	 5.8880
 2.8740	 5.8160
 2.8760	 5.8440
 2.8780	 5.8510
 2.8790	 5.7320
 2.8810	 5.6220
 2.8820	 5.6040
 2.8840	 5.5570
 2.8860	 5.6390
 2.8870	 5.7480
 2.8890	 5.8580
 2.8900	 5.7010
 2.8920	 5.6610
 2.8940	 5.6390
 2.8950	 5.7560
 2.8970	 5.6550
 2.8980	 5.6500
 2.9000	 5.6850
 2.9020	 5.7130
 2.9030	 5.6170
 2.9050	 5.6830
 2.9070	 5.7490
 2.9080	 5.7940
 2.9100	 5.5690
 2.9120	 5.5600
 2.9130	 5.6710
 2.9150	 5.7780
 2.9160	 5.6560
 2.9180	 5.6870
 2.9200	 5.6590
 2.9210	 5.6670
 2.9230	 5.5710
 2.9250	 5.5800
 2.9260	 5.5540
 2.9280	 5.6950
 2.9300	 5.6200
 2.9310	 5.5790
 2.9330	 5.4970
 2.9350	 5.5650
 2.9360	 5.5890
 2.9380	 5.6160
 2.9400	 5.5880
 2.9410	 5.6010
 2.9430	 5.6010
 2.9450	 5.5850
 2.9460	 5.4220
 2.9480	 5.4870
 2.9500	 5.6340
 2.9510	 5.7700
 2.9530	 5.7450
 2.9550	 5.7220
 2.9560	 5.6160
 2.9580	 5.7270
 2.9600	 5.9360
 2.9610	 5.8600
 2.9630	 5.5980
 2.9650	 5.6250
 2.9660	 5.5550
 2.9680	 5.8030
 2.9700	 5.5790
 2.9720	 5.3230
 2.9730	 5.6590
 2.9750	 5.9760
 2.9770	 6.3220
 2.9780	 6.7630
 2.9800	 6.2810
 2.9820	 5.8230
 2.9840	 5.7020
 2.9850	 5.6120
 2.9870	 5.2680
 2.9890	 5.1690
 2.9900	 5.2270
 2.9920	 5.4050
 2.9940	 5.7090
 2.9960	 6.3310
 2.9970	 6.2490
 2.9990	 5.8160
 3.0010	 5.6160
 3.0030	 5.6990
 3.0040	 5.7410
 3.0060	 5.8110
 3.0080	 5.7230
 3.0100	 5.8280
 3.0110	 6.0220
 3.0130	 6.1660
 3.0150	 6.1910
 3.0170	 6.1070
 3.0180	 5.9860
 3.0200	 6.0040
 3.0220	 5.7950
 3.0240	 5.7300
 3.0250	 5.8080
 3.0270	 6.0590
 3.0290	 6.1030
 3.0310	 6.1830
 3.0320	 6.2210
 3.0340	 6.3790
 3.0360	 5.9290
 3.0380	 5.7140
 3.0400	 5.7920
 3.0410	 5.8700
 3.0430	 5.3360
 3.0450	 5.1830
 3.0470	 5.5060
 3.0480	 5.9820
 3.0500	 6.5070
 3.0520	 6.4080
 3.0540	 6.1920
 3.0560	 6.0240
 3.0570	 5.6640
 3.0590	 5.8410
 3.0610	 5.9990
 3.0630	 6.2810
 3.0650	 6.1470
 3.0660	 5.8840
 3.0680	 5.8740
 3.0700	 6.0560
 3.0720	 6.2220
 3.0740	 6.2060
 3.0760	 6.0940
 3.0770	 6.1260
 3.0790	 6.2340
 3.0810	 6.3020
 3.0830	 6.2970
 3.0850	 6.3710
 3.0870	 6.2650
 3.0880	 6.3270
 3.0900	 6.3450
 3.0920	 6.4170
 3.0940	 6.3040
 3.0960	 6.3080
 3.0980	 6.3270
 3.0990	 6.4180
 3.1010	 6.4600
 3.1030	 6.3520
 3.1050	 6.2240
 3.1070	 6.3620
 3.1090	 6.4790
 3.1110	 6.5510
 3.1120	 6.4620
 3.1140	 6.3730
 3.1160	 6.3130
 3.1180	 6.4620
 3.1200	 6.4980
 3.1220	 6.5510
 3.1240	 6.5840
 3.1260	 6.6140
 3.1270	 6.5060
 3.1290	 6.4990
 3.1310	 6.5090
 3.1330	 6.5250
 3.1350	 6.6150
 3.1370	 6.5570
 3.1390	 6.5110
 3.1410	 6.6550
 3.1430	 6.7450
 3.1450	 6.7190
 3.1460	 6.7090
 3.1480	 6.8520
 3.1500	 6.8000
 3.1520	 6.8590
 3.1540	 6.9600
 3.1560	 6.8620
 3.1580	 6.6640
 3.1600	 6.6840
 3.1620	 7.0900
 3.1640	 7.4240
 3.1660	 7.1410
 3.1680	 6.8220
 3.1700	 6.6120
 3.1710	 6.4850
 3.1730	 6.8060
 3.1750	 7.1290
 3.1770	 6.5530
 3.1790	 6.6570
 3.1810	 6.7700
 3.1830	 6.9760
 3.1850	 7.3860
 3.1870	 7.1610
 3.1890	 6.8470
 3.1910	 6.9530
 3.1930	 7.0040
 3.1950	 6.8570
 3.1970	 6.8010
 3.1990	 6.9560
 3.2010	 7.0430
 3.2030	 7.0090
 3.2050	 6.9720
 3.2070	 6.9740
 3.2090	 6.9270
 3.2110	 6.9610
 3.2130	 6.9680
 3.2150	 6.9370
 3.2170	 6.9170
 3.2190	 7.0290
 3.2210	 7.0790
 3.2230	 7.0970
 3.2250	 6.9840
 3.2270	 6.9600
 3.2290	 6.9800
 3.2310	 7.1520
 3.2330	 7.1290
 3.2350	 7.0890
 3.2370	 7.1010
 3.2390	 7.1410
 3.2410	 7.0270
 3.2430	 7.0470
 3.2450	 7.0730
 3.2470	 7.0390
 3.2490	 7.0170
 3.2510	 7.1760
 3.2530	 7.1840
 3.2550	 7.1440
 3.2570	 7.1570
 3.2590	 7.1370
 3.2610	 7.0270
 3.2630	 7.0140
 3.2650	 6.9440
 3.2670	 7.0050
 3.2690	 7.1560
 3.2720	 7.2570
 3.2740	 7.1690
 3.2760	 7.0890
 3.2780	 7.0070
 3.2800	 7.0750
 3.2820	 7.1060
 3.2840	 7.1100
 3.2860	 7.1070
 3.2880	 7.1300
 3.2900	 7.1280
 3.2920	 7.1600
 3.2940	 7.1610
 3.2960	 7.2170
 3.2990	 7.2280
 3.3010	 7.3020
 3.3030	 7.1760
 3.3050	 7.1180
 3.3070	 7.0740
 3.3090	 7.0410
 3.3110	 7.0130
 3.3130	 7.0090
 3.3150	 6.9300
 3.3180	 6.8550
 3.3200	 6.7880
 3.3220	 6.7820
 3.3240	 6.7710
 3.3260	 6.7060
 3.3280	 6.6360
 3.3300	 6.6260
 3.3330	 6.5700
 3.3350	 6.5230
 3.3370	 6.4330
 3.3390	 6.4230
 3.3410	 6.3220
 3.3430	 6.3310
 3.3450	 6.2600
 3.3480	 6.1030
 3.3500	 5.9730
 3.3520	 5.9610
 3.3540	 5.9900
 3.3560	 6.0460
 3.3580	 5.8730
 3.3610	 5.7000
 3.3630	 5.6000
 3.3650	 5.6960
 3.3670	 5.6810
 3.3690	 5.6940
 3.3720	 5.6190
 3.3740	 5.5180
 3.3760	 5.4720
 3.3780	 5.4540
 3.3800	 5.3850
 3.3830	 5.4030
 3.3850	 5.4470
 3.3870	 5.3850
 3.3890	 5.2910
 3.3910	 5.2810
 3.3940	 5.0980
 3.3960	 4.9300
 3.3980	 4.8660
 3.4000	 4.9210
 3.4020	 4.8470
 3.4050	 4.9050
 3.4070	 5.0060
 3.4090	 5.0790
 3.4110	 5.0480
 3.4140	 5.1270
 3.4160	 5.1090
 3.4180	 5.1600
 3.4200	 5.3080
 3.4230	 5.4200
 3.4250	 5.5330
 3.4270	 5.7640
 3.4290	 5.8150
 3.4320	 5.8270
 3.4340	 5.7590
 3.4360	 5.7280
 3.4390	 5.7150
 3.4410	 5.7830
 3.4430	 5.7050
 3.4450	 5.7160
 3.4480	 5.7330
 3.4500	 5.8790
 3.4520	 5.9970
 3.4550	 6.0800
 3.4570	 5.9510
 3.4590	 5.9660
 3.4620	 6.1200
 3.4640	 6.2170
 3.4660	 6.1960
 3.4680	 6.2170
 3.4710	 6.2120
 3.4730	 6.2160
 3.4750	 6.1550
 3.4780	 6.1900
 3.4800	 6.1670
 3.4820	 6.1440
 3.4850	 6.0980
 3.4870	 5.9770
 3.4890	 5.8590
 3.4920	 5.8970
 3.4940	 5.7330
 3.4970	 5.6490
 3.4990	 5.6400
 3.5010	 5.6410
 3.5040	 5.7750
 3.5060	 5.9840
 3.5080	 6.0980
 3.5110	 6.3310
 3.5130	 6.4120
 3.5160	 6.5800
 3.5180	 6.7480
 3.5200	 6.8560
 3.5230	 7.0120
 3.5250	 7.1900
 3.5270	 7.2970
 3.5300	 7.4270
 3.5320	 7.4580
 3.5350	 7.5220
 3.5370	 7.6210
 3.5400	 7.7100
 3.5420	 7.7520
 3.5440	 7.8010
 3.5470	 7.8220
 3.5490	 7.8840
 3.5520	 7.8890
 3.5540	 7.9990
 3.5570	 8.0560
 3.5590	 8.1400
 3.5610	 8.1960
 3.5640	 8.2300
 3.5660	 8.2440
 3.5690	 8.2820
 3.5710	 8.2770
 3.5740	 8.3410
 3.5760	 8.4000
 3.5790	 8.4520
 3.5810	 8.4120
 3.5840	 8.4380
 3.5860	 8.4490
 3.5890	 8.4380
 3.5910	 8.4520
 3.5930	 8.5420
 3.5960	 8.5420
 3.5980	 8.5470
 3.6010	 8.5620
 3.6030	 8.5650
 3.6060	 8.6130
 3.6080	 8.6830
 3.6110	 8.6160
 3.6140	 8.6350
 3.6160	 8.6230
 3.6190	 8.6570
 3.6210	 8.6700
 3.6240	 8.6510
 3.6260	 8.6730
 3.6290	 8.7540
 3.6310	 8.7630
 3.6340	 8.7960
 3.6360	 8.8040
 3.6390	 8.7800
 3.6410	 8.7660
 3.6440	 8.8280
 3.6470	 8.8210
 3.6490	 8.8250
 3.6520	 8.8190
 3.6540	 8.8530
 3.6570	 8.8270
 3.6590	 8.8240
 3.6620	 8.8080
 3.6650	 8.7940
 3.6670	 8.7780
 3.6700	 8.8120
 3.6720	 8.8230
 3.6750	 8.8680
 3.6780	 8.8840
 3.6800	 8.9180
 3.6830	 8.8790
 3.6850	 8.8350
 3.6880	 8.8430
 3.6910	 8.9040
 3.6930	 8.9300
 3.6960	 8.9470
 3.6990	 8.9530
 3.7010	 8.9910
 3.7040	 8.9840
 3.7060	 8.9710
 3.7090	 8.9590
 3.7120	 9.0560
 3.7140	 9.0550
 3.7170	 9.0230
 3.7200	 9.0070
 3.7220	 9.0760
 3.7250	 9.0620
 3.7280	 9.1030
 3.7300	 9.0760
 3.7330	 9.1120
 3.7360	 9.1460
 3.7390	 9.0810
 3.7410	 9.0290
 3.7440	 9.0760
 3.7470	 9.0790
 3.7490	 9.1180
 3.7520	 9.2030
 3.7550	 9.2850
 3.7580	 9.1900
 3.7600	 9.1280
 3.7630	 9.1330
 3.7660	 9.1560
 3.7680	 9.2050
 3.7710	 9.2210
 3.7740	 9.1770
 3.7770	 9.2050
 3.7790	 9.2230
 3.7820	 9.2520
 3.7850	 9.2860
 3.7880	 9.2690
 3.7900	 9.2250
 3.7930	 9.3060
 3.7960	 9.3860
 3.7990	 9.3900
 3.8020	 9.3240
 3.8040	 9.3490
 3.8070	 9.3430
 3.8100	 9.3940
 3.8130	 9.4290
 3.8160	 9.4030
 3.8180	 9.3490
 3.8210	 9.4800
 3.8240	 9.4880
 3.8270	 9.4360
 3.8300	 9.4940
 3.8330	 9.5400
 3.8350	 9.4570
 3.8380	 9.4850
 3.8410	 9.5400
 3.8440	 9.5550
 3.8470	 9.4870
 3.8500	 9.4970
 3.8520	 9.5620
 3.8550	 9.6570
 3.8580	 9.6560
 3.8610	 9.6230
 3.8640	 9.5740
 3.8670	 9.6280
 3.8700	 9.6610
 3.8730	 9.6620
 3.8750	 9.6280
 3.8780	 9.6830
 3.8810	 9.7240
 3.8840	 9.6960
 3.8870	 9.7020
 3.8900	 9.8050
 3.8930	 9.8070
 3.8960	 9.8200
 3.8990	 9.8300
 3.9020	 9.8630
 3.9050	 9.8610
 3.9080	 9.8590
 3.9110	 9.8880
 3.9140	 9.9600
 3.9160	 9.9690
 3.9190	 9.9900
 3.9220	 9.9220
 3.9250	 9.9070
 3.9280	 9.9130
 3.9310	 9.9420
 3.9340	 9.9570
 3.9370	10.0020
 3.9400	 9.9700
 3.9430	 9.9880
 3.9460	10.0300
 3.9490	10.0590
 3.9520	10.0370
 3.9550	10.0700
 3.9580	10.0930
 3.9610	10.0920
 3.9640	10.1090
 3.9670	10.2080
 3.9700	10.1560
 3.9730	10.1590
 3.9770	10.2280
 3.9800	10.2360
 3.9830	10.2320
 3.9860	10.3150
 3.9890	10.3370
 3.9920	10.3350
 3.9950	10.3320
 3.9980	10.3470
 4.0010	10.3370
 4.0040	10.3620
 4.0070	10.3990
 4.0100	10.3750
 4.0130	10.3610
 4.0170	10.4530
 4.0200	10.4670
 4.0230	10.4810
 4.0260	10.4720
 4.0290	10.4840
 4.0320	10.5260
 4.0350	10.5440
 4.0380	10.5260
 4.0420	10.5420
 4.0450	10.5350
 4.0480	10.5530
 4.0510	10.5720
 4.0540	10.5860
 4.0570	10.5710
 4.0610	10.6010
 4.0640	10.6480
 4.0670	10.6860
 4.0700	10.6720
 4.0730	10.6950
 4.0770	10.7060
 4.0800	10.7260
 4.0830	10.7390
 4.0860	10.7670
 4.0890	10.7720
 4.0930	10.8150
 4.0960	10.8140
 4.0990	10.7970
 4.1020	10.7880
 4.1060	10.8380
 4.1090	10.7950
 4.1120	10.7700
 4.1150	10.8610
 4.1190	10.9290
 4.1220	10.8130
 4.1250	10.8060
 4.1280	10.8080
 4.1320	10.8380
 4.1350	10.8460
 4.1380	10.8170
 4.1420	10.8450
 4.1450	10.9020
 4.1480	10.8930
 4.1520	10.9030
 4.1550	10.8590
 4.1580	10.8570
 4.1620	10.8730
 4.1650	10.9240
 4.1680	10.9300
 4.1720	10.9090
 4.1750	10.8680
 4.1780	10.8700
 4.1820	10.8730
 4.1850	10.9720
 4.1890	10.9770
 4.1920	11.0080
 4.1950	11.0850
 4.1990	11.1460
 4.2020	11.2540
 4.2060	11.4830
 4.2090	11.6300
 4.2120	11.8880
 4.2160	12.1070
 4.2190	12.3660
 4.2230	12.4070
 4.2260	12.4980
 4.2300	12.6940
 4.2330	12.8640
 4.2360	12.9570
 4.2400	12.9230
 4.2430	12.6470
 4.2470	12.4960
 4.2500	12.4960
 4.2540	12.1860
 4.2570	11.8950
 4.2610	12.0790
 4.2640	12.3570
 4.2680	12.5830
 4.2710	12.4410
 4.2750	12.3590
 4.2780	12.4490
 4.2820	12.2330
 4.2850	11.9850
 4.2890	12.1640
 4.2930	12.2060
 4.2960	12.1840
 4.3000	12.0480
 4.3030	11.9680
 4.3070	12.0210
 4.3100	11.9460
 4.3140	11.7720
 4.3180	11.6630
 4.3210	11.5290
 4.3250	11.4670
 4.3280	11.4290
 4.3320	11.3360
 4.3360	11.2240
 4.3390	11.2060
 4.3430	11.1810
 4.3470	11.1230
 4.3500	11.0420
 4.3540	11.0150
 4.3570	10.9810
 4.3610	11.0160
 4.3650	11.0740
 4.3680	11.0140
 4.3720	10.9440
 4.3760	10.9500
 4.3800	10.9350
 4.3830	10.8980
 4.3870	10.8720
 4.3910	10.8840
 4.3940	10.8610
 4.3980	10.8550
 4.4020	10.8750
 4.4060	10.9050
 4.4090	10.8830
 4.4130	10.8150
 4.4170	10.8450
 4.4210	10.8560
 4.4240	10.7980
 4.4280	10.8250
 4.4320	10.8580
 4.4360	10.8590
 4.4400	10.8480
 4.4430	10.8430
 4.4470	10.8050
 4.4510	10.8100
 4.4550	10.8660
 4.4590	10.8300
 4.4620	10.7300
 4.4660	10.7180
 4.4700	10.6970
 4.4740	10.6690
 4.4780	10.7170
 4.4820	10.7960
 4.4860	10.7760
 4.4900	10.7270
 4.4930	10.6510
 4.4970	10.6400
 4.5010	10.6780
 4.5050	10.7050
 4.5090	10.6900
 4.5130	10.6740
 4.5170	10.6670
 4.5210	10.6570
 4.5250	10.6330
 4.5290	10.6100
 4.5330	10.6270
 4.5370	10.6730
 4.5410	10.6480
 4.5450	10.5910
 4.5490	10.6020
 4.5530	10.6020
 4.5570	10.5650
 4.5610	10.5520
 4.5650	10.5620
 4.5690	10.6070
 4.5730	10.5670
 4.5770	10.5840
 4.5810	10.5570
 4.5850	10.5300
 4.5890	10.5490
 4.5930	10.5020
 4.5970	10.4870
 4.6010	10.5050
 4.6050	10.6110
 4.6090	10.6060
 4.6130	10.5190
 4.6170	10.5630
 4.6220	10.6250
 4.6260	10.5840
 4.6300	10.4720
 4.6340	10.4740
 4.6380	10.4900
 4.6420	10.5000
 4.6460	10.5220
 4.6510	10.4960
 4.6550	10.5180
 4.6590	10.5570
 4.6630	10.5310
 4.6670	10.4810
 4.6720	10.4820
 4.6760	10.4860
 4.6800	10.5270
 4.6840	10.5900
 4.6880	10.6040
 4.6930	10.5510
 4.6970	10.5840
 4.7010	10.6210
 4.7050	10.5160
 4.7100	10.4470
 4.7140	10.4930
 4.7180	10.5350
 4.7230	10.5180
 4.7270	10.5540
 4.7310	10.6170
 4.7360	10.6010
 4.7400	10.5160
 4.7440	10.4730
 4.7490	10.5020
 4.7530	10.5780
 4.7570	10.5980
 4.7620	10.6040
 4.7660	10.5910
 4.7700	10.6090
 4.7750	10.6320
 4.7790	10.6130
 4.7840	10.5460
 4.7880	10.5030
 4.7920	10.5280
 4.7970	10.6150
 4.8010	10.6400
 4.8060	10.6510
 4.8100	10.6780
 4.8150	10.6920
 4.8190	10.6910
 4.8240	10.6260
 4.8280	10.6090
 4.8330	10.6340
 4.8370	10.6260
 4.8420	10.6200
 4.8460	10.6130
 4.8510	10.6450
 4.8550	10.7190
 4.8600	10.7150
 4.8640	10.7000
 4.8690	10.7450
 4.8730	10.7480
 4.8780	10.7010
 4.8830	10.7030
 4.8870	10.7590
 4.8920	10.8060
 4.8960	10.7410
 4.9010	10.7020
 4.9060	10.7230
 4.9100	10.7760
 4.9150	10.7720
 4.9200	10.7560
 4.9240	10.7300
 4.9290	10.7640
 4.9340	10.7980
 4.9380	10.7660
 4.9430	10.7470
 4.9480	10.8220
 4.9530	10.8270
 4.9570	10.8390
 4.9620	10.8850
 4.9670	10.9360
 4.9720	10.9500
 4.9760	10.9150
 4.9810	10.9170
 4.9860	10.9850
 4.9910	10.9950
 4.9960	10.9720
 5.0000	11.0190
 5.0050	11.0530
 5.0100	11.0400
 5.0150	11.0600
 5.0200	11.0190
 5.0250	10.9860
 5.0290	11.0020
 5.0340	11.0620
 5.0390	11.0540
 5.0440	11.0460
 5.0490	11.0580
 5.0540	11.0780
 5.0590	11.1180
 5.0640	11.1360
 5.0690	11.1010
 5.0740	11.0940
 5.0790	11.0580
 5.0840	11.0720
 5.0890	11.1120
 5.0940	11.0960
 5.0990	11.0470
 5.1040	11.0860
 5.1090	11.1220
 5.1140	11.1690
 5.1190	11.1720
 5.1240	11.1500
 5.1290	11.1440
 5.1340	11.0970
 5.1390	11.0840
 5.1440	11.1230
 5.1490	11.1870
 5.1540	11.1780
 5.1600	11.0860
 5.1650	11.1510
 5.1700	11.2090
 5.1750	11.2050
 5.1800	11.1090
 5.1850	11.0640
 5.1910	11.1150
 5.1960	11.1250
 5.2010	11.1080
 5.2060	11.1630
 5.2110	11.1770
 5.2170	11.2000
 5.2220	11.1870
 5.2270	11.1470
 5.2320	11.0580
 5.2380	11.0340
 5.2430	11.0480
 5.2480	11.0760
 5.2540	11.0900
 5.2590	11.1970
 5.2640	11.2000
 5.2700	11.1080
 5.2750	11.0290
 5.2800	11.0900
 5.2860	11.1250
 5.2910	11.1390
 5.2970	11.1150
 5.3020	11.1000
 5.3070	11.0990
 5.3130	11.1190
 5.3180	11.0710
 5.3240	11.0510
 5.3290	11.0700
 5.3350	11.1120
 5.3400	11.0770
 5.3460	11.0070
 5.3510	10.9700
 5.3570	10.9910
 5.3620	11.0370
 5.3680	11.0110
 5.3730	10.8670
 5.3790	10.8820
 5.3850	10.9620
 5.3900	10.9780
 5.3960	10.9100
 5.4010	10.8850
 5.4070	10.8380
 5.4130	10.8210
 5.4180	10.7860
 5.4240	10.7720
 5.4300	10.7510
 5.4350	10.7750
 5.4410	10.7570
 5.4470	10.7800
 5.4530	10.7900
 5.4580	10.6350
 5.4640	10.4880
 5.4700	10.4980
 5.4760	10.5290
 5.4810	10.5360
 5.4870	10.5440
 5.4930	10.5240
 5.4990	10.4460
 5.5050	10.4080
 5.5110	10.3740
 5.5160	10.3740
 5.5220	10.3280
 5.5280	10.3000
 5.5340	10.1790
 5.5400	10.0990
 5.5460	10.0670
 5.5520	10.0060
 5.5580	 9.9080
 5.5640	 9.8350
 5.5700	 9.8040
 5.5760	 9.8180
 5.5820	 9.6720
 5.5880	 9.5250
 5.5940	 9.3920
 5.6000	 9.3570
 5.6060	 9.3330
 5.6120	 9.2680
 5.6180	 9.1630
 5.6240	 9.0410
 5.6300	 8.8910
 5.6360	 8.8060
 5.6420	 8.6480
 5.6490	 8.5460
 5.6550	 8.4190
 5.6610	 8.2550
 5.6670	 8.0890
 5.6730	 7.9580
 5.6800	 7.6670
 5.6860	 7.4310
 5.6920	 7.2740
 5.6980	 7.0620
 5.7040	 6.8010
 5.7110	 6.6280
 5.7170	 6.4120
 5.7230	 6.1840
 5.7300	 5.8790
 5.7360	 5.6440
 5.7420	 5.5310
 5.7490	 5.4970
 5.7550	 5.4030
 5.7620	 5.3800
 5.7680	 5.4240
 5.7740	 5.5910
 5.7810	 5.7000
 5.7870	 5.8530
 5.7940	 5.9440
 5.8000	 6.0290
 5.8070	 6.0650
 5.8130	 6.1060
 5.8200	 6.1460
 5.8260	 6.2580
 5.8330	 6.2920
 5.8390	 6.4110
 5.8460	 6.4610
 5.8530	 6.4680
 5.8590	 6.4920
 5.8660	 6.5640
 5.8720	 6.5180
 5.8790	 6.4100
 5.8860	 6.3890
 5.8920	 6.3240
 5.8990	 6.2180
 5.9060	 6.2640
 5.9130	 6.2380
 5.9190	 6.3140
 5.9260	 6.3710
 5.9330	 6.4690
 5.9400	 6.6470
 5.9470	 6.8990
 5.9530	 7.0500
 5.9600	 7.2550
 5.9670	 7.4380
 5.9740	 7.5450
 5.9810	 7.5950
 5.9880	 7.6680
 5.9950	 7.6410
 6.0020	 7.6670
 6.0090	 7.6600
 6.0160	 7.6150
 6.0230	 7.6080
 6.0300	 7.6520
 6.0370	 7.5670
 6.0440	 7.5890
 6.0510	 7.6000
 6.0580	 7.6380
 6.0650	 7.6230
 6.0720	 7.7130
 6.0790	 7.6750
 6.0860	 7.6320
 6.0930	 7.5730
 6.1000	 7.5620
 6.1080	 7.5750
 6.1150	 7.7330
 6.1220	 7.7680
 6.1290	 7.7530
 6.1370	 7.6730
 6.1440	 7.6930
 6.1510	 7.6790
 6.1580	 7.7770
 6.1660	 7.8450
 6.1730	 7.8450
 6.1800	 7.6820
 6.1880	 7.6510
 6.1950	 7.6540
 6.2030	 7.6500
 6.2100	 7.5380
 6.2170	 7.5080
 6.2250	 7.4990
 6.2320	 7.6950
 6.2400	 7.8150
 6.2470	 7.9070
 6.2550	 7.9110
 6.2630	 7.9980
 6.2700	 8.0740
 6.2780	 8.2110
 6.2850	 8.2840
 6.2930	 8.4100
 6.3010	 8.3610
 6.3080	 8.4350
 6.3160	 8.5160
 6.3240	 8.5920
 6.3310	 8.5780
 6.3390	 8.7250
 6.3470	 8.8010
 6.3550	 8.8420
 6.3620	 8.8260
 6.3700	 8.9570
 6.3780	 8.9660
 6.3860	 9.0040
 6.3940	 9.0510
 6.4020	 9.1540
 6.4100	 9.0680
 6.4180	 8.9900
 6.4260	 8.9930
 6.4330	 9.0980
 6.4410	 9.0870
 6.4490	 9.1390
 6.4580	 9.1240
 6.4660	 9.1100
 6.4740	 9.1220
 6.4820	 9.2320
 6.4900	 9.1330
 6.4980	 9.1100
 6.5060	 9.1040
 6.5140	 9.1950
 6.5230	 9.2080
 6.5310	 9.2260
 6.5390	 9.1510
 6.5470	 9.1230
 6.5550	 9.0390
 6.5640	 8.9550
 6.5720	 8.8770
 6.5800	 8.9350
 6.5890	 8.9120
 6.5970	 8.8380
 6.6060	 8.7480
 6.6140	 8.8110
 6.6220	 8.8550
 6.6310	 8.9470
 6.6390	 8.9300
 6.6480	 8.9280
 6.6560	 8.8450
 6.6650	 8.9060
 6.6740	 8.9200
 6.6820	 8.9100
 6.6910	 8.8200
 6.6990	 8.7710
 6.7080	 8.6520
 6.7170	 8.5850
 6.7260	 8.5010
 6.7340	 8.3750
 6.7430	 8.0870
 6.7520	 7.9520
 6.7610	 7.8400
 6.7690	 7.8070
 6.7780	 7.5160
 6.7870	 7.1990
 6.7960	 6.9340
 6.8050	 6.8000
 6.8140	 6.6180
 6.8230	 6.6120
 6.8320	 6.6110
 6.8410	 6.6550
 6.8500	 6.6520
 6.8590	 6.7070
 6.8680	 6.6680
 6.8770	 6.7840
 6.8860	 6.8280
 6.8950	 6.9950
 6.9050	 7.0100
 6.9140	 7.0560
 6.9230	 6.9680
 6.9320	 6.9480
 6.9420	 6.9360
 6.9510	 7.0620
 6.9600	 7.0640
 6.9700	 7.0550
 6.9790	 7.0240
 6.9880	 7.1280
 6.9980	 7.0070
 7.0070	 7.0500
 7.0170	 7.1160
 7.0260	 7.1460
 7.0360	 7.0450
 7.0450	 7.0360
 7.0550	 7.0340
 7.0650	 7.1920
 7.0740	 7.2430
 7.0840	 7.2690
 7.0940	 7.1790
 7.1030	 7.2820
 7.1130	 7.2420
 7.1230	 7.2910
 7.1330	 7.3400
 7.1420	 7.3810
 7.1520	 7.2600
 7.1620	 7.2240
 7.1720	 7.0710
 7.1820	 7.0070
 7.1920	 6.9060
 7.2020	 6.8760
 7.2120	 6.8140
 7.2220	 6.9100
 7.2320	 6.9030
 7.2420	 6.9630
 7.2520	 6.8310
 7.2620	 6.7610
 7.2730	 6.7320
 7.2830	 6.7800
 7.2930	 6.6870
 7.3030	 6.7350
 7.3140	 6.6720
 7.3240	 6.7300
 7.3340	 6.7750
 7.3450	 6.8670
 7.3550	 6.8140
 7.3660	 6.8630
 7.3760	 6.8560
 7.3870	 6.9680
 7.3970	 6.9680
 7.4080	 7.0140
 7.4180	 7.0170
 7.4290	 7.0690
 7.4400	 6.9470
 7.4500	 6.9300
 7.4610	 6.8660
 7.4720	 6.8900
 7.4830	 6.8030
 7.4930	 6.7390
 7.5040	 6.6690
 7.5150	 6.7280
 7.5260	 6.6950
 7.5370	 6.7580
 7.5480	 6.7070
 7.5590	 6.7510
 7.5700	 6.7220
 7.5810	 6.6890
 7.5920	 6.5130
 7.6030	 6.5300
 7.6140	 6.5560
 7.6260	 6.6660
 7.6370	 6.6080
 7.6480	 6.6600
 7.6590	 6.6940
 7.6710	 6.7770
 7.6820	 6.7340
 7.6930	 6.8160
 7.7050	 6.7770
 7.7160	 6.7250
 7.7280	 6.6500
 7.7390	 6.7230
 7.7510	 6.6390
 7.7630	 6.6520
 7.7740	 6.5780
 7.7860	 6.6170
 7.7980	 6.5760
 7.8090	 6.6270
 7.8210	 6.4960
 7.8330	 6.5640
 7.8450	 6.6070
 7.8570	 6.5730
 7.8690	 6.4480
 7.8810	 6.5400
 7.8930	 6.5000
 7.9050	 6.5980
 7.9170	 6.5470
 7.9290	 6.5480
 7.9410	 6.4140
 7.9530	 6.5090
 7.9650	 6.4820
 7.9780	 6.4700
 7.9900	 6.3660
 8.0020	 6.4250
 8.0150	 6.4080
 8.0270	 6.5500
 8.0390	 6.5450
 8.0520	 6.5660
 8.0640	 6.4680
 8.0770	 6.5720
 8.0900	 6.4940
 8.1020	 6.5460
 8.1150	 6.6060
 8.1280	 6.7480
 8.1400	 6.7150
 8.1530	 6.8080
 8.1660	 6.7700
 8.1790	 6.8400
 8.1920	 6.6990
 8.2050	 6.7820
 8.2180	 6.8150
 8.2310	 6.9460
 8.2440	 6.8980
 8.2570	 6.9050
 8.2700	 6.7830
 8.2830	 6.9260
 8.2970	 6.7950
 8.3100	 6.8640
 8.3230	 6.7450
 8.3370	 6.7310
 8.3500	 6.6500
 8.3640	 6.8660
 8.3770	 6.7550
 8.3910	 6.7220
 8.4040	 6.6490
 8.4180	 6.7640
 8.4320	 6.6060
 8.4450	 6.6490
 8.4590	 6.5780
 8.4730	 6.6620
 8.4870	 6.6520
 8.5010	 6.7450
 8.5150	 6.5360
 8.5290	 6.4750
 8.5430	 6.2980
 8.5570	 6.3600
 8.5710	 6.2390
 8.5850	 6.3730
 8.5990	 6.3350
 8.6140	 6.4730
 8.6280	 6.5100
 8.6420	 6.5540
 8.6570	 6.3980
 8.6710	 6.6100
 8.6860	 6.6000
 8.7000	 6.8110
 8.7150	 6.8240
 8.7300	 6.8920
 8.7440	 6.7360
 8.7590	 6.7410
 8.7740	 6.6690
 8.7890	 6.7740
 8.8040	 6.6750
 8.8190	 6.9080
 8.8340	 6.8240
 8.8490	 6.7820
 8.8640	 6.7520
 8.8790	 6.8370
 8.8940	 6.4870
 8.9100	 6.4180
 8.9250	 6.3060
 8.9400	 6.4220
 8.9560	 6.2480
 8.9710	 6.2230
 8.9870	 5.9930
 9.0020	 5.9660
 9.0180	 5.7890
 9.0340	 5.9780
 9.0500	 5.9400
 9.0650	 5.9540
 9.0810	 5.9100
 9.0970	 6.0980
 9.1130	 6.0290
 9.1290	 6.1500
 9.1450	 6.1280
 9.1610	 6.1940
 9.1780	 5.8960
 9.1940	 6.0920
 9.2100	 6.1300
 9.2270	 6.2200
 9.2430	 5.9530
 9.2600	 5.9580
 9.2760	 5.8030
 9.2930	 5.8290
 9.3090	 5.6280
 9.3260	 5.7380
 9.3430	 5.6310
 9.3600	 5.8590
 9.3770	 5.7680
 9.3940	 5.7370
 9.4110	 5.6220
 9.4280	 5.7260
 9.4450	 5.7220
 9.4620	 5.8600
 9.4800	 5.6970
 9.4970	 5.8690
 9.5140	 5.8010
 9.5320	 5.9290
 9.5500	 5.7730
 9.5670	 5.9080
 9.5850	 5.7730
 9.6030	 6.0140
 9.6200	 6.0100
 9.6380	 5.9790
 9.6560	 5.7830
 9.6740	 5.9470
 9.6920	 5.8730
 9.7100	 6.0240
 9.7290	 5.9030
 9.7470	 6.2320
 9.7650	 6.3320
 9.7840	 6.4530
 9.8020	 6.3360
 9.8210	 6.5380
 9.8390	 6.4610
 9.8580	 6.4870
 9.8770	 6.4360
 9.8960	 6.6460
 9.9150	 6.4830
 9.9340	 6.6180
 9.9530	 6.6320
 9.9720	 6.8000
 9.9910	 6.6450
10.0100	 6.7010
10.0300	 6.6590
10.0490	 6.9590
10.0690	 7.0460
10.0880	 7.2380
10.1080	 7.1710
10.1280	 7.4170
10.1480	 7.3120
10.1670	 7.4470
10.1870	 7.4110
10.2070	 7.5070
10.2280	 7.3940
10.2480	 7.5450
10.2680	 7.4400
10.2890	 7.6230
10.3090	 7.5390
10.3300	 7.5820
10.3500	 7.3830
10.3710	 7.5380
10.3920	 7.3110
10.4120	 7.3500
10.4330	 7.4090
10.4540	 7.6170
10.4760	 7.4760
10.4970	 7.6720
10.5180	 7.5930
10.5390	 7.7470
10.5610	 7.7600
10.5820	 8.0650
10.6040	 8.0510
10.6260	 8.2180
10.6480	 8.0990
10.6700	 8.3230
10.6920	 8.1360
10.7140	 8.1440
10.7360	 8.0580
10.7580	 8.2400
10.7800	 8.0870
10.8030	 8.1480
10.8250	 7.9310
10.8480	 8.0620
10.8710	 7.9720
10.8940	 8.0600
10.9170	 7.8140
10.9400	 7.8200
10.9630	 7.6560
10.9860	 7.8990
11.0090	 7.7570
11.0330	 7.7740
11.0560	 7.5760
11.0800	 7.7650
11.1040	 7.7110
11.1270	 7.8570
11.1510	 7.6070
11.1750	 7.6470
11.2000	 7.5390
11.2240	 7.7430
11.2480	 7.6190
11.2730	 8.0220
11.2970	 8.3260
11.3220	 8.2010
11.3470	 7.7390
11.3720	 7.9430
11.3970	 7.7890
11.4220	 7.8800
11.4470	 7.7630
11.4720	 7.9070
11.4980	 7.6940
11.5230	 7.7330
11.5490	 7.5030
11.5750	 7.7330
11.6000	 7.5870
11.6260	 7.6190
11.6530	 7.4490
11.6790	 7.7290
11.7050	 7.4690
11.7320	 7.5320
11.7580	 7.3070
11.7850	 7.3350
11.8120	 7.1940
11.8390	 7.3660
11.8660	 7.1330
11.8930	 7.3320
11.9200	 7.1250
11.9480	 7.2330
11.9760	 7.0160
12.0030	 7.1280
12.0310	 6.9790
12.0590	 7.3250
12.0870	 7.2230
12.1150	 7.3410
12.1440	 7.0430
12.1720	 7.2810
12.2010	 7.0780
12.2300	 7.0970
12.2590	 6.6770
12.2880	 6.8510
12.3170	 6.7330
12.3460	 7.0650
12.3760	 6.8580
12.4050	 7.0440
12.4350	 6.8800
12.4650	 7.0170
12.4950	 6.7390
12.5250	 6.9260
12.5550	 6.8080
12.5860	 6.9700
12.6170	 6.6170
12.6470	 6.5260
12.6780	 6.3160
12.7090	 6.5200
12.7410	 6.3510
12.7720	 6.6170
12.8030	 6.2760
12.8350	 6.3160
12.8670	 5.9440
12.8990	 6.2430
12.9310	 6.1560
12.9640	 6.3480
12.9960	 6.0850
13.0290	 6.2990
13.0610	 6.1360
13.0940	 6.3780
13.1280	 6.2820
13.1610	 6.4840
13.1940	 5.9940
13.2280	 5.8620
13.2620	 5.8260
13.2960	 6.3620
13.3300	 6.0640
13.3640	 6.1900
13.3990	 6.0270
13.4340	 6.3110
13.4690	 5.9760
13.5040	 6.2550
13.5390	 6.0290
13.5740	 6.0970
13.6100	 5.7520
13.6460	 6.1340
13.6820	 5.7630
13.7180	 5.7970
13.7540	 5.6070
13.7910	 5.9670
13.8280	 5.7700
13.8650	 5.9430
13.9020	 5.4960
13.9390	 5.7890
13.9770	 5.7500
14.0150	 6.1710
14.0530	 5.6050
14.0910	 5.7180
14.1290	 5.6200
14.1680	 6.1060
14.2070	 5.6780
14.2460	 5.8570
14.2850	 5.6600
14.3240	 6.0640
14.3640	 5.6790
14.4040	 6.0240
14.4440	 5.8150
14.4840	 6.2810
14.5250	 5.9650
14.5660	 6.2730
14.6070	 5.8770
14.6480	 6.2060
14.6900	 5.6840
14.7310	 5.9560
14.7730	 5.5800
14.8150	 5.9870
14.8580	 5.3530
14.9010	 5.7920
14.9440	 5.3340
14.9870	 5.9490
15.0300	 5.2920
15.0740	 5.5830
15.1180	 4.9210
15.1620	 5.7430
15.2060	 5.4600
15.2510	 5.8940
15.2960	 5.0600
15.3410	 5.8030
15.3870	 5.3270
