Name: Acer rubrum
Type: Vegetation
Class: Tree
Genus: Acer
Species: rubrum
Sample No.: ACRU-3-23
Owner: UCSB
Wavelength Range: VSWIR
Origin: USA; Massachusetts; Harvard Forest
Collection Date: 7/8/2013
Description: Samples were collected as part of NSF Macrosystem Biology proposal titled: Collaborative Research: Thermal controls on ecosystem metabolism and function: scaling from leaves to canopies to regions. Samples were collected and overnighted to JPL facilities for processing. The same leaves were processed in the Nicolet and then measured using the ASD.
Measurement: Bidirectional reflectance
First Column: X
Second Column: Y
X Units: Wavelength (micrometers)
Y Units: Reflectance (percentage)
First X Value: 0.35
Last X Value: 2.5
Number of X Values: 2151
Additional Information: vegetation.tree.acer.rubrum.vswir.acru-3-23.ucsb.asd.ancillary.txt

 0.3500	 7.9660
 0.3510	 8.0280
 0.3520	 7.9260
 0.3530	 7.7170
 0.3540	 7.5420
 0.3550	 7.6520
 0.3560	 7.5360
 0.3570	 7.4040
 0.3580	 7.7120
 0.3590	 7.5480
 0.3600	 7.4910
 0.3610	 7.6970
 0.3620	 7.5380
 0.3630	 7.4730
 0.3640	 7.5060
 0.3650	 7.5350
 0.3660	 7.5200
 0.3670	 7.5460
 0.3680	 7.5830
 0.3690	 7.5370
 0.3700	 7.5160
 0.3710	 7.5550
 0.3720	 7.6200
 0.3730	 7.5760
 0.3740	 7.4720
 0.3750	 7.4670
 0.3760	 7.6460
 0.3770	 7.5890
 0.3780	 7.4930
 0.3790	 7.4660
 0.3800	 7.5040
 0.3810	 7.4870
 0.3820	 7.3960
 0.3830	 7.3030
 0.3840	 7.4650
 0.3850	 7.4840
 0.3860	 7.4180
 0.3870	 7.4450
 0.3880	 7.3810
 0.3890	 7.3860
 0.3900	 7.4660
 0.3910	 7.4630
 0.3920	 7.4630
 0.3930	 7.4800
 0.3940	 7.5030
 0.3950	 7.5050
 0.3960	 7.4640
 0.3970	 7.4620
 0.3980	 7.5870
 0.3990	 7.6020
 0.4000	 7.5740
 0.4010	 7.5480
 0.4020	 7.4930
 0.4030	 7.4930
 0.4040	 7.5390
 0.4050	 7.5820
 0.4060	 7.5300
 0.4070	 7.5190
 0.4080	 7.5630
 0.4090	 7.5910
 0.4100	 7.5810
 0.4110	 7.5930
 0.4120	 7.6440
 0.4130	 7.6520
 0.4140	 7.6390
 0.4150	 7.6510
 0.4160	 7.7150
 0.4170	 7.7180
 0.4180	 7.7090
 0.4190	 7.7090
 0.4200	 7.7090
 0.4210	 7.7410
 0.4220	 7.7660
 0.4230	 7.7610
 0.4240	 7.7670
 0.4250	 7.7780
 0.4260	 7.7910
 0.4270	 7.8050
 0.4280	 7.7990
 0.4290	 7.8030
 0.4300	 7.8250
 0.4310	 7.8320
 0.4320	 7.8290
 0.4330	 7.8250
 0.4340	 7.8200
 0.4350	 7.7990
 0.4360	 7.7910
 0.4370	 7.8000
 0.4380	 7.8140
 0.4390	 7.8140
 0.4400	 7.8200
 0.4410	 7.8390
 0.4420	 7.8460
 0.4430	 7.8430
 0.4440	 7.8430
 0.4450	 7.8520
 0.4460	 7.8420
 0.4470	 7.8380
 0.4480	 7.8530
 0.4490	 7.8830
 0.4500	 7.8870
 0.4510	 7.8850
 0.4520	 7.8980
 0.4530	 7.8920
 0.4540	 7.8840
 0.4550	 7.8890
 0.4560	 7.9100
 0.4570	 7.9050
 0.4580	 7.9070
 0.4590	 7.9290
 0.4600	 7.9150
 0.4610	 7.9090
 0.4620	 7.9150
 0.4630	 7.9200
 0.4640	 7.9150
 0.4650	 7.9090
 0.4660	 7.9070
 0.4670	 7.9060
 0.4680	 7.9020
 0.4690	 7.9020
 0.4700	 7.9070
 0.4710	 7.9160
 0.4720	 7.9140
 0.4730	 7.9050
 0.4740	 7.9010
 0.4750	 7.8900
 0.4760	 7.8910
 0.4770	 7.9060
 0.4780	 7.9040
 0.4790	 7.9090
 0.4800	 7.9120
 0.4810	 7.9040
 0.4820	 7.9010
 0.4830	 7.9050
 0.4840	 7.9140
 0.4850	 7.9280
 0.4860	 7.9260
 0.4870	 7.9250
 0.4880	 7.9370
 0.4890	 7.9390
 0.4900	 7.9480
 0.4910	 7.9590
 0.4920	 7.9630
 0.4930	 7.9890
 0.4940	 8.0140
 0.4950	 8.0310
 0.4960	 8.0540
 0.4970	 8.0630
 0.4980	 8.0750
 0.4990	 8.1090
 0.5000	 8.1450
 0.5010	 8.1790
 0.5020	 8.2100
 0.5030	 8.2430
 0.5040	 8.2740
 0.5050	 8.3190
 0.5060	 8.3830
 0.5070	 8.4370
 0.5080	 8.4980
 0.5090	 8.5700
 0.5100	 8.6520
 0.5110	 8.7340
 0.5120	 8.8240
 0.5130	 8.9300
 0.5140	 9.0600
 0.5150	 9.1880
 0.5160	 9.3240
 0.5170	 9.4800
 0.5180	 9.6400
 0.5190	 9.8180
 0.5200	10.0090
 0.5210	10.1960
 0.5220	10.3920
 0.5230	10.5950
 0.5240	10.7980
 0.5250	10.9900
 0.5260	11.1820
 0.5270	11.3710
 0.5280	11.5440
 0.5290	11.7050
 0.5300	11.8520
 0.5310	11.9880
 0.5320	12.1190
 0.5330	12.2330
 0.5340	12.3360
 0.5350	12.4310
 0.5360	12.5000
 0.5370	12.5710
 0.5380	12.6380
 0.5390	12.6760
 0.5400	12.7080
 0.5410	12.7390
 0.5420	12.7710
 0.5430	12.8040
 0.5440	12.8380
 0.5450	12.8740
 0.5460	12.9140
 0.5470	12.9570
 0.5480	12.9910
 0.5490	13.0130
 0.5500	13.0330
 0.5510	13.0440
 0.5520	13.0430
 0.5530	13.0300
 0.5540	13.0150
 0.5550	12.9830
 0.5560	12.9300
 0.5570	12.8650
 0.5580	12.7880
 0.5590	12.6970
 0.5600	12.5960
 0.5610	12.4900
 0.5620	12.3780
 0.5630	12.2570
 0.5640	12.1220
 0.5650	11.9880
 0.5660	11.8510
 0.5670	11.7100
 0.5680	11.5700
 0.5690	11.4220
 0.5700	11.2750
 0.5710	11.1400
 0.5720	11.0070
 0.5730	10.8770
 0.5740	10.7550
 0.5750	10.6450
 0.5760	10.5460
 0.5770	10.4570
 0.5780	10.3790
 0.5790	10.3070
 0.5800	10.2380
 0.5810	10.1710
 0.5820	10.1020
 0.5830	10.0410
 0.5840	 9.9790
 0.5850	 9.9160
 0.5860	 9.8590
 0.5870	 9.8140
 0.5880	 9.7750
 0.5890	 9.7350
 0.5900	 9.7000
 0.5910	 9.6680
 0.5920	 9.6370
 0.5930	 9.6030
 0.5940	 9.5800
 0.5950	 9.5610
 0.5960	 9.5410
 0.5970	 9.5220
 0.5980	 9.5040
 0.5990	 9.4850
 0.6000	 9.4650
 0.6010	 9.4430
 0.6020	 9.4160
 0.6030	 9.3870
 0.6040	 9.3580
 0.6050	 9.3250
 0.6060	 9.2870
 0.6070	 9.2440
 0.6080	 9.2050
 0.6090	 9.1560
 0.6100	 9.0960
 0.6110	 9.0350
 0.6120	 8.9980
 0.6130	 8.9660
 0.6140	 8.9270
 0.6150	 8.8920
 0.6160	 8.8560
 0.6170	 8.8250
 0.6180	 8.8000
 0.6190	 8.7640
 0.6200	 8.7330
 0.6210	 8.7090
 0.6220	 8.6860
 0.6230	 8.6710
 0.6240	 8.6590
 0.6250	 8.6460
 0.6260	 8.6340
 0.6270	 8.6250
 0.6280	 8.6180
 0.6290	 8.6120
 0.6300	 8.5990
 0.6310	 8.5890
 0.6320	 8.5830
 0.6330	 8.5760
 0.6340	 8.5590
 0.6350	 8.5350
 0.6360	 8.5110
 0.6370	 8.4910
 0.6380	 8.4630
 0.6390	 8.4260
 0.6400	 8.3860
 0.6410	 8.3510
 0.6420	 8.3150
 0.6430	 8.2770
 0.6440	 8.2430
 0.6450	 8.2110
 0.6460	 8.1790
 0.6470	 8.1490
 0.6480	 8.1270
 0.6490	 8.1080
 0.6500	 8.0870
 0.6510	 8.0670
 0.6520	 8.0540
 0.6530	 8.0470
 0.6540	 8.0400
 0.6550	 8.0250
 0.6560	 8.0110
 0.6570	 7.9990
 0.6580	 7.9850
 0.6590	 7.9710
 0.6600	 7.9540
 0.6610	 7.9380
 0.6620	 7.9270
 0.6630	 7.9130
 0.6640	 7.9000
 0.6650	 7.8910
 0.6660	 7.8830
 0.6670	 7.8800
 0.6680	 7.8850
 0.6690	 7.8970
 0.6700	 7.8990
 0.6710	 7.9050
 0.6720	 7.9200
 0.6730	 7.9340
 0.6740	 7.9510
 0.6750	 7.9710
 0.6760	 7.9970
 0.6770	 8.0290
 0.6780	 8.0590
 0.6790	 8.0900
 0.6800	 8.1250
 0.6810	 8.1620
 0.6820	 8.2010
 0.6830	 8.2470
 0.6840	 8.3000
 0.6850	 8.3520
 0.6860	 8.4050
 0.6870	 8.4650
 0.6880	 8.5420
 0.6890	 8.6320
 0.6900	 8.7410
 0.6910	 8.8780
 0.6920	 9.0520
 0.6930	 9.2690
 0.6940	 9.5370
 0.6950	 9.8730
 0.6960	10.2710
 0.6970	10.7440
 0.6980	11.3020
 0.6990	11.9340
 0.7000	12.6350
 0.7010	13.3990
 0.7020	14.2230
 0.7030	15.0850
 0.7040	15.9900
 0.7050	16.9350
 0.7060	17.8790
 0.7070	18.8440
 0.7080	19.8260
 0.7090	20.8140
 0.7100	21.7990
 0.7110	22.7900
 0.7120	23.7900
 0.7130	24.7840
 0.7140	25.7840
 0.7150	26.7770
 0.7160	27.7510
 0.7170	28.7240
 0.7180	29.6930
 0.7190	30.6490
 0.7200	31.5850
 0.7210	32.5120
 0.7220	33.4250
 0.7230	34.3190
 0.7240	35.1910
 0.7250	36.0320
 0.7260	36.8480
 0.7270	37.6400
 0.7280	38.3950
 0.7290	39.1310
 0.7300	39.8430
 0.7310	40.5150
 0.7320	41.1510
 0.7330	41.7660
 0.7340	42.3550
 0.7350	42.8920
 0.7360	43.4060
 0.7370	43.8960
 0.7380	44.3580
 0.7390	44.8070
 0.7400	45.2130
 0.7410	45.5820
 0.7420	45.9310
 0.7430	46.2530
 0.7440	46.5590
 0.7450	46.8500
 0.7460	47.1160
 0.7470	47.3340
 0.7480	47.5380
 0.7490	47.7440
 0.7500	47.9040
 0.7510	48.0460
 0.7520	48.1890
 0.7530	48.3380
 0.7540	48.4550
 0.7550	48.5630
 0.7560	48.6610
 0.7570	48.7300
 0.7580	48.8070
 0.7590	48.8780
 0.7600	48.9300
 0.7610	48.9750
 0.7620	49.0240
 0.7630	49.0690
 0.7640	49.1020
 0.7650	49.1350
 0.7660	49.1610
 0.7670	49.1840
 0.7680	49.2130
 0.7690	49.2150
 0.7700	49.2120
 0.7710	49.2250
 0.7720	49.2640
 0.7730	49.2690
 0.7740	49.2570
 0.7750	49.2570
 0.7760	49.2640
 0.7770	49.2840
 0.7780	49.3050
 0.7790	49.3070
 0.7800	49.3040
 0.7810	49.2990
 0.7820	49.3000
 0.7830	49.3160
 0.7840	49.3160
 0.7850	49.3210
 0.7860	49.3390
 0.7870	49.3240
 0.7880	49.3100
 0.7890	49.3120
 0.7900	49.3340
 0.7910	49.3400
 0.7920	49.3380
 0.7930	49.3400
 0.7940	49.3510
 0.7950	49.3440
 0.7960	49.3380
 0.7970	49.3380
 0.7980	49.3270
 0.7990	49.3250
 0.8000	49.3210
 0.8010	49.3090
 0.8020	49.3070
 0.8030	49.3160
 0.8040	49.3250
 0.8050	49.3260
 0.8060	49.3180
 0.8070	49.3100
 0.8080	49.3020
 0.8090	49.2900
 0.8100	49.2810
 0.8110	49.2710
 0.8120	49.2620
 0.8130	49.2560
 0.8140	49.2500
 0.8150	49.2420
 0.8160	49.2310
 0.8170	49.2280
 0.8180	49.2230
 0.8190	49.2160
 0.8200	49.2040
 0.8210	49.1870
 0.8220	49.1720
 0.8230	49.1660
 0.8240	49.1700
 0.8250	49.1630
 0.8260	49.1520
 0.8270	49.1410
 0.8280	49.1190
 0.8290	49.1170
 0.8300	49.1140
 0.8310	49.0940
 0.8320	49.0870
 0.8330	49.0760
 0.8340	49.0610
 0.8350	49.0500
 0.8360	49.0610
 0.8370	49.0740
 0.8380	49.0700
 0.8390	49.0410
 0.8400	49.0420
 0.8410	49.0360
 0.8420	49.0140
 0.8430	49.0280
 0.8440	49.0300
 0.8450	49.0090
 0.8460	48.9800
 0.8470	49.0010
 0.8480	49.0050
 0.8490	48.9990
 0.8500	49.0030
 0.8510	49.0010
 0.8520	48.9920
 0.8530	48.9750
 0.8540	48.9480
 0.8550	48.9540
 0.8560	48.9580
 0.8570	48.9530
 0.8580	48.9640
 0.8590	48.9650
 0.8600	48.9730
 0.8610	48.9890
 0.8620	48.9760
 0.8630	48.9630
 0.8640	48.9610
 0.8650	48.9660
 0.8660	48.9550
 0.8670	48.9420
 0.8680	48.9440
 0.8690	48.9640
 0.8700	48.9590
 0.8710	48.9460
 0.8720	48.9420
 0.8730	48.9500
 0.8740	48.9550
 0.8750	48.9570
 0.8760	48.9560
 0.8770	48.9500
 0.8780	48.9490
 0.8790	48.9540
 0.8800	48.9580
 0.8810	48.9440
 0.8820	48.9350
 0.8830	48.9490
 0.8840	48.9720
 0.8850	48.9390
 0.8860	48.9330
 0.8870	48.9390
 0.8880	48.9320
 0.8890	48.9580
 0.8900	48.9600
 0.8910	48.9470
 0.8920	48.9510
 0.8930	48.9650
 0.8940	48.9710
 0.8950	48.9630
 0.8960	48.9490
 0.8970	48.9440
 0.8980	48.9330
 0.8990	48.9210
 0.9000	48.9330
 0.9010	48.9590
 0.9020	48.9660
 0.9030	48.9520
 0.9040	48.9620
 0.9050	48.9630
 0.9060	48.9500
 0.9070	48.9330
 0.9080	48.9380
 0.9090	48.9490
 0.9100	48.9600
 0.9110	48.9630
 0.9120	48.9430
 0.9130	48.9180
 0.9140	48.9110
 0.9150	48.9310
 0.9160	48.9210
 0.9170	48.9130
 0.9180	48.9160
 0.9190	48.9280
 0.9200	48.9290
 0.9210	48.9190
 0.9220	48.9080
 0.9230	48.9090
 0.9240	48.9160
 0.9250	48.9320
 0.9260	48.9340
 0.9270	48.8920
 0.9280	48.8760
 0.9290	48.8670
 0.9300	48.8480
 0.9310	48.8230
 0.9320	48.8480
 0.9330	48.8470
 0.9340	48.7970
 0.9350	48.7620
 0.9360	48.7680
 0.9370	48.7600
 0.9380	48.7220
 0.9390	48.7120
 0.9400	48.7150
 0.9410	48.7080
 0.9420	48.6820
 0.9430	48.6460
 0.9440	48.6330
 0.9450	48.6310
 0.9460	48.6210
 0.9470	48.6080
 0.9480	48.5640
 0.9490	48.5140
 0.9500	48.4850
 0.9510	48.4760
 0.9520	48.4380
 0.9530	48.3940
 0.9540	48.3690
 0.9550	48.3310
 0.9560	48.2920
 0.9570	48.2560
 0.9580	48.2220
 0.9590	48.1810
 0.9600	48.1510
 0.9610	48.1260
 0.9620	48.0970
 0.9630	48.0670
 0.9640	48.0750
 0.9650	48.0780
 0.9660	48.0250
 0.9670	47.9960
 0.9680	47.9740
 0.9690	47.9630
 0.9700	47.9720
 0.9710	47.9620
 0.9720	47.9480
 0.9730	47.9430
 0.9740	47.9540
 0.9750	47.9420
 0.9760	47.9290
 0.9770	47.9230
 0.9780	47.9220
 0.9790	47.9300
 0.9800	47.9120
 0.9810	47.8820
 0.9820	47.8750
 0.9830	47.8780
 0.9840	47.8570
 0.9850	47.8520
 0.9860	47.9020
 0.9870	47.8690
 0.9880	47.8540
 0.9890	47.8860
 0.9900	47.9360
 0.9910	47.9160
 0.9920	47.9650
 0.9930	48.0140
 0.9940	48.0630
 0.9950	48.1110
 0.9960	48.1600
 0.9970	48.2090
 0.9980	48.2580
 0.9990	48.3060
 1.0000	48.3550
 1.0010	48.4040
 1.0020	48.4530
 1.0030	48.5010
 1.0040	48.5500
 1.0050	48.5990
 1.0060	48.6480
 1.0070	48.6960
 1.0080	48.7450
 1.0090	48.7940
 1.0100	48.7940
 1.0110	48.7920
 1.0120	48.7930
 1.0130	48.7980
 1.0140	48.8050
 1.0150	48.8090
 1.0160	48.8200
 1.0170	48.8290
 1.0180	48.8290
 1.0190	48.8270
 1.0200	48.8200
 1.0210	48.8170
 1.0220	48.8260
 1.0230	48.8340
 1.0240	48.8480
 1.0250	48.8550
 1.0260	48.8590
 1.0270	48.8660
 1.0280	48.8720
 1.0290	48.8750
 1.0300	48.8790
 1.0310	48.8840
 1.0320	48.8860
 1.0330	48.8860
 1.0340	48.8860
 1.0350	48.8860
 1.0360	48.8900
 1.0370	48.8920
 1.0380	48.8930
 1.0390	48.8980
 1.0400	48.9000
 1.0410	48.8960
 1.0420	48.8980
 1.0430	48.9090
 1.0440	48.9110
 1.0450	48.9090
 1.0460	48.9110
 1.0470	48.9090
 1.0480	48.9120
 1.0490	48.9260
 1.0500	48.9290
 1.0510	48.9270
 1.0520	48.9240
 1.0530	48.9260
 1.0540	48.9250
 1.0550	48.9280
 1.0560	48.9400
 1.0570	48.9400
 1.0580	48.9300
 1.0590	48.9310
 1.0600	48.9350
 1.0610	48.9360
 1.0620	48.9410
 1.0630	48.9410
 1.0640	48.9300
 1.0650	48.9270
 1.0660	48.9310
 1.0670	48.9290
 1.0680	48.9250
 1.0690	48.9180
 1.0700	48.9170
 1.0710	48.9160
 1.0720	48.9150
 1.0730	48.9230
 1.0740	48.9180
 1.0750	48.9020
 1.0760	48.8960
 1.0770	48.8900
 1.0780	48.8850
 1.0790	48.8870
 1.0800	48.8820
 1.0810	48.8730
 1.0820	48.8650
 1.0830	48.8570
 1.0840	48.8500
 1.0850	48.8480
 1.0860	48.8410
 1.0870	48.8330
 1.0880	48.8240
 1.0890	48.8170
 1.0900	48.8090
 1.0910	48.8000
 1.0920	48.7910
 1.0930	48.7820
 1.0940	48.7720
 1.0950	48.7620
 1.0960	48.7560
 1.0970	48.7470
 1.0980	48.7370
 1.0990	48.7260
 1.1000	48.7130
 1.1010	48.7000
 1.1020	48.6830
 1.1030	48.6710
 1.1040	48.6610
 1.1050	48.6480
 1.1060	48.6370
 1.1070	48.6290
 1.1080	48.6160
 1.1090	48.6010
 1.1100	48.5860
 1.1110	48.5710
 1.1120	48.5540
 1.1130	48.5360
 1.1140	48.5200
 1.1150	48.5070
 1.1160	48.4910
 1.1170	48.4770
 1.1180	48.4590
 1.1190	48.4360
 1.1200	48.4140
 1.1210	48.3910
 1.1220	48.3670
 1.1230	48.3450
 1.1240	48.3190
 1.1250	48.2910
 1.1260	48.2650
 1.1270	48.2310
 1.1280	48.1910
 1.1290	48.1530
 1.1300	48.1140
 1.1310	48.0720
 1.1320	48.0320
 1.1330	47.9830
 1.1340	47.9260
 1.1350	47.8710
 1.1360	47.8130
 1.1370	47.7530
 1.1380	47.6930
 1.1390	47.6270
 1.1400	47.5590
 1.1410	47.4880
 1.1420	47.4150
 1.1430	47.3410
 1.1440	47.2680
 1.1450	47.1940
 1.1460	47.1180
 1.1470	47.0390
 1.1480	46.9670
 1.1490	46.8920
 1.1500	46.8260
 1.1510	46.7680
 1.1520	46.7110
 1.1530	46.6560
 1.1540	46.6060
 1.1550	46.5610
 1.1560	46.5190
 1.1570	46.4830
 1.1580	46.4490
 1.1590	46.4160
 1.1600	46.3900
 1.1610	46.3650
 1.1620	46.3430
 1.1630	46.3250
 1.1640	46.3080
 1.1650	46.2910
 1.1660	46.2750
 1.1670	46.2630
 1.1680	46.2540
 1.1690	46.2450
 1.1700	46.2410
 1.1710	46.2350
 1.1720	46.2260
 1.1730	46.2190
 1.1740	46.2140
 1.1750	46.2100
 1.1760	46.2030
 1.1770	46.1970
 1.1780	46.1920
 1.1790	46.1880
 1.1800	46.1840
 1.1810	46.1740
 1.1820	46.1610
 1.1830	46.1520
 1.1840	46.1410
 1.1850	46.1330
 1.1860	46.1280
 1.1870	46.1200
 1.1880	46.1140
 1.1890	46.1100
 1.1900	46.1050
 1.1910	46.1010
 1.1920	46.0950
 1.1930	46.0850
 1.1940	46.0770
 1.1950	46.0700
 1.1960	46.0630
 1.1970	46.0550
 1.1980	46.0510
 1.1990	46.0510
 1.2000	46.0510
 1.2010	46.0510
 1.2020	46.0530
 1.2030	46.0550
 1.2040	46.0580
 1.2050	46.0590
 1.2060	46.0610
 1.2070	46.0640
 1.2080	46.0680
 1.2090	46.0740
 1.2100	46.0810
 1.2110	46.0890
 1.2120	46.0980
 1.2130	46.1050
 1.2140	46.1130
 1.2150	46.1210
 1.2160	46.1290
 1.2170	46.1330
 1.2180	46.1380
 1.2190	46.1400
 1.2200	46.1450
 1.2210	46.1550
 1.2220	46.1660
 1.2230	46.1800
 1.2240	46.1890
 1.2250	46.1970
 1.2260	46.2040
 1.2270	46.2100
 1.2280	46.2170
 1.2290	46.2230
 1.2300	46.2280
 1.2310	46.2370
 1.2320	46.2480
 1.2330	46.2580
 1.2340	46.2630
 1.2350	46.2670
 1.2360	46.2690
 1.2370	46.2680
 1.2380	46.2680
 1.2390	46.2710
 1.2400	46.2750
 1.2410	46.2750
 1.2420	46.2800
 1.2430	46.2850
 1.2440	46.2880
 1.2450	46.2940
 1.2460	46.2990
 1.2470	46.3020
 1.2480	46.3040
 1.2490	46.3060
 1.2500	46.3100
 1.2510	46.3120
 1.2520	46.3120
 1.2530	46.3090
 1.2540	46.3060
 1.2550	46.3050
 1.2560	46.3050
 1.2570	46.3060
 1.2580	46.3030
 1.2590	46.2990
 1.2600	46.2910
 1.2610	46.2820
 1.2620	46.2710
 1.2630	46.2680
 1.2640	46.2650
 1.2650	46.2580
 1.2660	46.2520
 1.2670	46.2450
 1.2680	46.2350
 1.2690	46.2300
 1.2700	46.2310
 1.2710	46.2240
 1.2720	46.2120
 1.2730	46.2050
 1.2740	46.1960
 1.2750	46.1910
 1.2760	46.1860
 1.2770	46.1750
 1.2780	46.1640
 1.2790	46.1500
 1.2800	46.1380
 1.2810	46.1280
 1.2820	46.1150
 1.2830	46.0990
 1.2840	46.0830
 1.2850	46.0660
 1.2860	46.0510
 1.2870	46.0350
 1.2880	46.0200
 1.2890	46.0050
 1.2900	45.9860
 1.2910	45.9670
 1.2920	45.9510
 1.2930	45.9280
 1.2940	45.9010
 1.2950	45.8780
 1.2960	45.8490
 1.2970	45.8190
 1.2980	45.7910
 1.2990	45.7570
 1.3000	45.7240
 1.3010	45.6900
 1.3020	45.6560
 1.3030	45.6250
 1.3040	45.5880
 1.3050	45.5460
 1.3060	45.5060
 1.3070	45.4630
 1.3080	45.4180
 1.3090	45.3690
 1.3100	45.3170
 1.3110	45.2630
 1.3120	45.2090
 1.3130	45.1570
 1.3140	45.1020
 1.3150	45.0500
 1.3160	44.9890
 1.3170	44.9230
 1.3180	44.8560
 1.3190	44.7900
 1.3200	44.7200
 1.3210	44.6510
 1.3220	44.5810
 1.3230	44.5030
 1.3240	44.4220
 1.3250	44.3450
 1.3260	44.2690
 1.3270	44.1910
 1.3280	44.1130
 1.3290	44.0290
 1.3300	43.9430
 1.3310	43.8570
 1.3320	43.7710
 1.3330	43.6870
 1.3340	43.5970
 1.3350	43.5040
 1.3360	43.4120
 1.3370	43.3190
 1.3380	43.2290
 1.3390	43.1440
 1.3400	43.0580
 1.3410	42.9700
 1.3420	42.8820
 1.3430	42.7910
 1.3440	42.7000
 1.3450	42.6090
 1.3460	42.5180
 1.3470	42.4280
 1.3480	42.3380
 1.3490	42.2490
 1.3500	42.1610
 1.3510	42.0740
 1.3520	41.9860
 1.3530	41.8980
 1.3540	41.8080
 1.3550	41.7170
 1.3560	41.6270
 1.3570	41.5360
 1.3580	41.4480
 1.3590	41.3560
 1.3600	41.2620
 1.3610	41.1640
 1.3620	41.0630
 1.3630	40.9580
 1.3640	40.8490
 1.3650	40.7350
 1.3660	40.6140
 1.3670	40.4890
 1.3680	40.3560
 1.3690	40.2150
 1.3700	40.0660
 1.3710	39.9050
 1.3720	39.7350
 1.3730	39.5530
 1.3740	39.3590
 1.3750	39.1520
 1.3760	38.9250
 1.3770	38.6790
 1.3780	38.4120
 1.3790	38.1280
 1.3800	37.8240
 1.3810	37.4990
 1.3820	37.1550
 1.3830	36.7920
 1.3840	36.4110
 1.3850	36.0120
 1.3860	35.5960
 1.3870	35.1600
 1.3880	34.7130
 1.3890	34.2510
 1.3900	33.7740
 1.3910	33.2900
 1.3920	32.7970
 1.3930	32.2920
 1.3940	31.7840
 1.3950	31.2710
 1.3960	30.7590
 1.3970	30.2530
 1.3980	29.7500
 1.3990	29.2590
 1.4000	28.7770
 1.4010	28.3060
 1.4020	27.8500
 1.4030	27.4040
 1.4040	26.9750
 1.4050	26.5630
 1.4060	26.1690
 1.4070	25.8010
 1.4080	25.4530
 1.4090	25.1210
 1.4100	24.8120
 1.4110	24.5230
 1.4120	24.2510
 1.4130	24.0000
 1.4140	23.7680
 1.4150	23.5560
 1.4160	23.3630
 1.4170	23.1850
 1.4180	23.0230
 1.4190	22.8750
 1.4200	22.7400
 1.4210	22.6200
 1.4220	22.5110
 1.4230	22.4140
 1.4240	22.3250
 1.4250	22.2450
 1.4260	22.1770
 1.4270	22.1140
 1.4280	22.0610
 1.4290	22.0130
 1.4300	21.9720
 1.4310	21.9370
 1.4320	21.9080
 1.4330	21.8850
 1.4340	21.8680
 1.4350	21.8540
 1.4360	21.8450
 1.4370	21.8400
 1.4380	21.8390
 1.4390	21.8420
 1.4400	21.8490
 1.4410	21.8590
 1.4420	21.8700
 1.4430	21.8820
 1.4440	21.8970
 1.4450	21.9150
 1.4460	21.9350
 1.4470	21.9580
 1.4480	21.9850
 1.4490	22.0120
 1.4500	22.0370
 1.4510	22.0640
 1.4520	22.0910
 1.4530	22.1200
 1.4540	22.1520
 1.4550	22.1880
 1.4560	22.2240
 1.4570	22.2640
 1.4580	22.3080
 1.4590	22.3530
 1.4600	22.4040
 1.4610	22.4600
 1.4620	22.5190
 1.4630	22.5860
 1.4640	22.6570
 1.4650	22.7310
 1.4660	22.8120
 1.4670	22.8980
 1.4680	22.9880
 1.4690	23.0850
 1.4700	23.1840
 1.4710	23.2900
 1.4720	23.4010
 1.4730	23.5150
 1.4740	23.6340
 1.4750	23.7550
 1.4760	23.8800
 1.4770	24.0050
 1.4780	24.1320
 1.4790	24.2620
 1.4800	24.3910
 1.4810	24.5210
 1.4820	24.6520
 1.4830	24.7820
 1.4840	24.9130
 1.4850	25.0480
 1.4860	25.1810
 1.4870	25.3150
 1.4880	25.4490
 1.4890	25.5810
 1.4900	25.7140
 1.4910	25.8490
 1.4920	25.9840
 1.4930	26.1210
 1.4940	26.2550
 1.4950	26.3880
 1.4960	26.5200
 1.4970	26.6490
 1.4980	26.7790
 1.4990	26.9100
 1.5000	27.0410
 1.5010	27.1720
 1.5020	27.3020
 1.5030	27.4310
 1.5040	27.5600
 1.5050	27.6870
 1.5060	27.8130
 1.5070	27.9380
 1.5080	28.0610
 1.5090	28.1830
 1.5100	28.3030
 1.5110	28.4250
 1.5120	28.5460
 1.5130	28.6630
 1.5140	28.7830
 1.5150	28.9000
 1.5160	29.0170
 1.5170	29.1350
 1.5180	29.2490
 1.5190	29.3600
 1.5200	29.4730
 1.5210	29.5860
 1.5220	29.6980
 1.5230	29.8100
 1.5240	29.9180
 1.5250	30.0230
 1.5260	30.1270
 1.5270	30.2270
 1.5280	30.3260
 1.5290	30.4230
 1.5300	30.5180
 1.5310	30.6180
 1.5320	30.7170
 1.5330	30.8130
 1.5340	30.9110
 1.5350	31.0070
 1.5360	31.1000
 1.5370	31.1940
 1.5380	31.2880
 1.5390	31.3790
 1.5400	31.4680
 1.5410	31.5570
 1.5420	31.6430
 1.5430	31.7280
 1.5440	31.8150
 1.5450	31.8980
 1.5460	31.9770
 1.5470	32.0560
 1.5480	32.1340
 1.5490	32.2140
 1.5500	32.2930
 1.5510	32.3690
 1.5520	32.4460
 1.5530	32.5170
 1.5540	32.5870
 1.5550	32.6590
 1.5560	32.7260
 1.5570	32.7940
 1.5580	32.8610
 1.5590	32.9260
 1.5600	32.9940
 1.5610	33.0620
 1.5620	33.1310
 1.5630	33.1970
 1.5640	33.2590
 1.5650	33.3190
 1.5660	33.3750
 1.5670	33.4320
 1.5680	33.4950
 1.5690	33.5540
 1.5700	33.6170
 1.5710	33.6830
 1.5720	33.7420
 1.5730	33.8000
 1.5740	33.8560
 1.5750	33.9080
 1.5760	33.9630
 1.5770	34.0210
 1.5780	34.0770
 1.5790	34.1330
 1.5800	34.1870
 1.5810	34.2380
 1.5820	34.2880
 1.5830	34.3360
 1.5840	34.3830
 1.5850	34.4320
 1.5860	34.4800
 1.5870	34.5300
 1.5880	34.5790
 1.5890	34.6260
 1.5900	34.6720
 1.5910	34.7150
 1.5920	34.7560
 1.5930	34.7960
 1.5940	34.8360
 1.5950	34.8750
 1.5960	34.9120
 1.5970	34.9500
 1.5980	34.9870
 1.5990	35.0240
 1.6000	35.0650
 1.6010	35.1060
 1.6020	35.1420
 1.6030	35.1780
 1.6040	35.2160
 1.6050	35.2490
 1.6060	35.2840
 1.6070	35.3210
 1.6080	35.3540
 1.6090	35.3860
 1.6100	35.4220
 1.6110	35.4580
 1.6120	35.4930
 1.6130	35.5280
 1.6140	35.5610
 1.6150	35.5920
 1.6160	35.6250
 1.6170	35.6570
 1.6180	35.6860
 1.6190	35.7150
 1.6200	35.7410
 1.6210	35.7630
 1.6220	35.7840
 1.6230	35.8030
 1.6240	35.8210
 1.6250	35.8430
 1.6260	35.8680
 1.6270	35.8910
 1.6280	35.9120
 1.6290	35.9310
 1.6300	35.9450
 1.6310	35.9590
 1.6320	35.9740
 1.6330	35.9850
 1.6340	35.9950
 1.6350	36.0030
 1.6360	36.0070
 1.6370	36.0100
 1.6380	36.0120
 1.6390	36.0100
 1.6400	36.0060
 1.6410	36.0030
 1.6420	35.9990
 1.6430	35.9950
 1.6440	35.9940
 1.6450	35.9840
 1.6460	35.9700
 1.6470	35.9540
 1.6480	35.9360
 1.6490	35.9180
 1.6500	35.9000
 1.6510	35.8860
 1.6520	35.8700
 1.6530	35.8570
 1.6540	35.8530
 1.6550	35.8480
 1.6560	35.8450
 1.6570	35.8450
 1.6580	35.8440
 1.6590	35.8450
 1.6600	35.8500
 1.6610	35.8590
 1.6620	35.8700
 1.6630	35.8860
 1.6640	35.9020
 1.6650	35.9180
 1.6660	35.9380
 1.6670	35.9520
 1.6680	35.9640
 1.6690	35.9730
 1.6700	35.9760
 1.6710	35.9750
 1.6720	35.9740
 1.6730	35.9710
 1.6740	35.9680
 1.6750	35.9650
 1.6760	35.9620
 1.6770	35.9560
 1.6780	35.9480
 1.6790	35.9370
 1.6800	35.9230
 1.6810	35.9090
 1.6820	35.8920
 1.6830	35.8730
 1.6840	35.8520
 1.6850	35.8250
 1.6860	35.7960
 1.6870	35.7680
 1.6880	35.7400
 1.6890	35.7120
 1.6900	35.6850
 1.6910	35.6550
 1.6920	35.6250
 1.6930	35.5950
 1.6940	35.5650
 1.6950	35.5340
 1.6960	35.5020
 1.6970	35.4710
 1.6980	35.4400
 1.6990	35.4080
 1.7000	35.3750
 1.7010	35.3440
 1.7020	35.3080
 1.7030	35.2680
 1.7040	35.2300
 1.7050	35.1890
 1.7060	35.1490
 1.7070	35.1100
 1.7080	35.0680
 1.7090	35.0250
 1.7100	34.9820
 1.7110	34.9380
 1.7120	34.9010
 1.7130	34.8590
 1.7140	34.8220
 1.7150	34.7860
 1.7160	34.7430
 1.7170	34.7050
 1.7180	34.6640
 1.7190	34.6250
 1.7200	34.5920
 1.7210	34.5590
 1.7220	34.5300
 1.7230	34.4960
 1.7240	34.4510
 1.7250	34.4090
 1.7260	34.3640
 1.7270	34.3230
 1.7280	34.2930
 1.7290	34.2570
 1.7300	34.2200
 1.7310	34.1860
 1.7320	34.1530
 1.7330	34.1220
 1.7340	34.0960
 1.7350	34.0670
 1.7360	34.0390
 1.7370	34.0090
 1.7380	33.9780
 1.7390	33.9440
 1.7400	33.9070
 1.7410	33.8690
 1.7420	33.8300
 1.7430	33.7890
 1.7440	33.7470
 1.7450	33.7010
 1.7460	33.6500
 1.7470	33.6000
 1.7480	33.5480
 1.7490	33.4960
 1.7500	33.4450
 1.7510	33.3960
 1.7520	33.3460
 1.7530	33.2970
 1.7540	33.2520
 1.7550	33.2020
 1.7560	33.1520
 1.7570	33.0960
 1.7580	33.0340
 1.7590	32.9770
 1.7600	32.9230
 1.7610	32.8770
 1.7620	32.8270
 1.7630	32.7700
 1.7640	32.7190
 1.7650	32.6680
 1.7660	32.6210
 1.7670	32.5830
 1.7680	32.5390
 1.7690	32.4920
 1.7700	32.4470
 1.7710	32.3980
 1.7720	32.3560
 1.7730	32.3220
 1.7740	32.2860
 1.7750	32.2550
 1.7760	32.2210
 1.7770	32.1830
 1.7780	32.1520
 1.7790	32.1240
 1.7800	32.0950
 1.7810	32.0700
 1.7820	32.0440
 1.7830	32.0160
 1.7840	31.9920
 1.7850	31.9740
 1.7860	31.9500
 1.7870	31.9230
 1.7880	31.8980
 1.7890	31.8770
 1.7900	31.8670
 1.7910	31.8530
 1.7920	31.8390
 1.7930	31.8260
 1.7940	31.8090
 1.7950	31.8000
 1.7960	31.8020
 1.7970	31.7980
 1.7980	31.7980
 1.7990	31.7940
 1.8000	31.7860
 1.8010	31.7810
 1.8020	31.7760
 1.8030	31.7700
 1.8040	31.7630
 1.8050	31.7590
 1.8060	31.7570
 1.8070	31.7510
 1.8080	31.7450
 1.8090	31.7380
 1.8100	31.7270
 1.8110	31.7230
 1.8120	31.7230
 1.8130	31.7210
 1.8140	31.7210
 1.8150	31.7200
 1.8160	31.7130
 1.8170	31.7100
 1.8180	31.7080
 1.8190	31.7070
 1.8200	31.7020
 1.8210	31.6930
 1.8220	31.6820
 1.8230	31.6650
 1.8240	31.6490
 1.8250	31.6280
 1.8260	31.6140
 1.8270	31.5510
 1.8280	31.4880
 1.8290	31.4260
 1.8300	31.3630
 1.8310	31.3000
 1.8320	31.2370
 1.8330	31.1750
 1.8340	31.1120
 1.8350	31.1120
 1.8360	31.0710
 1.8370	31.0250
 1.8380	30.9790
 1.8390	30.9260
 1.8400	30.8740
 1.8410	30.8080
 1.8420	30.7320
 1.8430	30.6490
 1.8440	30.5590
 1.8450	30.4580
 1.8460	30.3600
 1.8470	30.2570
 1.8480	30.1430
 1.8490	30.0290
 1.8500	29.9060
 1.8510	29.7750
 1.8520	29.6390
 1.8530	29.4910
 1.8540	29.3230
 1.8550	29.1400
 1.8560	28.9460
 1.8570	28.7450
 1.8580	28.5410
 1.8590	28.3170
 1.8600	28.0840
 1.8610	27.8320
 1.8620	27.5580
 1.8630	27.2600
 1.8640	26.9440
 1.8650	26.6060
 1.8660	26.2480
 1.8670	25.8720
 1.8680	25.4710
 1.8690	25.0490
 1.8700	24.6090
 1.8710	24.1490
 1.8720	23.6750
 1.8730	23.1890
 1.8740	22.6830
 1.8750	22.1620
 1.8760	21.6210
 1.8770	21.0670
 1.8780	20.5130
 1.8790	19.9490
 1.8800	19.3900
 1.8810	18.8300
 1.8820	18.2660
 1.8830	17.6960
 1.8840	17.1290
 1.8850	16.5610
 1.8860	16.0070
 1.8870	15.4660
 1.8880	14.9380
 1.8890	14.4280
 1.8900	13.9350
 1.8910	13.4640
 1.8920	13.0110
 1.8930	12.5820
 1.8940	12.1740
 1.8950	11.7960
 1.8960	11.4430
 1.8970	11.1140
 1.8980	10.8210
 1.8990	10.5470
 1.9000	10.2930
 1.9010	10.0650
 1.9020	 9.8570
 1.9030	 9.6700
 1.9040	 9.5050
 1.9050	 9.3600
 1.9060	 9.2300
 1.9070	 9.1170
 1.9080	 9.0200
 1.9090	 8.9330
 1.9100	 8.8560
 1.9110	 8.7890
 1.9120	 8.7350
 1.9130	 8.6840
 1.9140	 8.6400
 1.9150	 8.6070
 1.9160	 8.5750
 1.9170	 8.5490
 1.9180	 8.5250
 1.9190	 8.5050
 1.9200	 8.4940
 1.9210	 8.4850
 1.9220	 8.4770
 1.9230	 8.4720
 1.9240	 8.4730
 1.9250	 8.4760
 1.9260	 8.4860
 1.9270	 8.5040
 1.9280	 8.5250
 1.9290	 8.5430
 1.9300	 8.5560
 1.9310	 8.5670
 1.9320	 8.5860
 1.9330	 8.6080
 1.9340	 8.6360
 1.9350	 8.6650
 1.9360	 8.6970
 1.9370	 8.7300
 1.9380	 8.7650
 1.9390	 8.8020
 1.9400	 8.8360
 1.9410	 8.8720
 1.9420	 8.9090
 1.9430	 8.9510
 1.9440	 8.9940
 1.9450	 9.0430
 1.9460	 9.0910
 1.9470	 9.1360
 1.9480	 9.1860
 1.9490	 9.2380
 1.9500	 9.2930
 1.9510	 9.3420
 1.9520	 9.3950
 1.9530	 9.4480
 1.9540	 9.4990
 1.9550	 9.5580
 1.9560	 9.6260
 1.9570	 9.6870
 1.9580	 9.7510
 1.9590	 9.8150
 1.9600	 9.8720
 1.9610	 9.9380
 1.9620	10.0110
 1.9630	10.0840
 1.9640	10.1570
 1.9650	10.2300
 1.9660	10.3010
 1.9670	10.3720
 1.9680	10.4450
 1.9690	10.5200
 1.9700	10.5960
 1.9710	10.6700
 1.9720	10.7480
 1.9730	10.8280
 1.9740	10.9100
 1.9750	10.9980
 1.9760	11.0870
 1.9770	11.1700
 1.9780	11.2520
 1.9790	11.3350
 1.9800	11.4120
 1.9810	11.4990
 1.9820	11.5940
 1.9830	11.6840
 1.9840	11.7760
 1.9850	11.8680
 1.9860	11.9590
 1.9870	12.0500
 1.9880	12.1460
 1.9890	12.2420
 1.9900	12.3360
 1.9910	12.4330
 1.9920	12.5290
 1.9930	12.6260
 1.9940	12.7230
 1.9950	12.8210
 1.9960	12.9150
 1.9970	13.0060
 1.9980	13.1000
 1.9990	13.1910
 2.0000	13.2850
 2.0010	13.3800
 2.0020	13.4770
 2.0030	13.5770
 2.0040	13.6750
 2.0050	13.7700
 2.0060	13.8650
 2.0070	13.9570
 2.0080	14.0440
 2.0090	14.1340
 2.0100	14.2250
 2.0110	14.3150
 2.0120	14.4020
 2.0130	14.4920
 2.0140	14.5810
 2.0150	14.6700
 2.0160	14.7610
 2.0170	14.8480
 2.0180	14.9340
 2.0190	15.0190
 2.0200	15.1030
 2.0210	15.1860
 2.0220	15.2680
 2.0230	15.3470
 2.0240	15.4280
 2.0250	15.5120
 2.0260	15.5920
 2.0270	15.6720
 2.0280	15.7530
 2.0290	15.8270
 2.0300	15.8990
 2.0310	15.9690
 2.0320	16.0370
 2.0330	16.1030
 2.0340	16.1650
 2.0350	16.2290
 2.0360	16.2900
 2.0370	16.3530
 2.0380	16.4200
 2.0390	16.4830
 2.0400	16.5460
 2.0410	16.6060
 2.0420	16.6610
 2.0430	16.7160
 2.0440	16.7720
 2.0450	16.8270
 2.0460	16.8820
 2.0470	16.9400
 2.0480	16.9980
 2.0490	17.0580
 2.0500	17.1130
 2.0510	17.1650
 2.0520	17.2190
 2.0530	17.2700
 2.0540	17.3230
 2.0550	17.3770
 2.0560	17.4350
 2.0570	17.4910
 2.0580	17.5420
 2.0590	17.5970
 2.0600	17.6540
 2.0610	17.7100
 2.0620	17.7660
 2.0630	17.8250
 2.0640	17.8850
 2.0650	17.9450
 2.0660	18.0100
 2.0670	18.0700
 2.0680	18.1260
 2.0690	18.1830
 2.0700	18.2380
 2.0710	18.2950
 2.0720	18.3540
 2.0730	18.4110
 2.0740	18.4670
 2.0750	18.5240
 2.0760	18.5750
 2.0770	18.6180
 2.0780	18.6700
 2.0790	18.7270
 2.0800	18.7770
 2.0810	18.8310
 2.0820	18.8800
 2.0830	18.9150
 2.0840	18.9610
 2.0850	19.0150
 2.0860	19.0630
 2.0870	19.1140
 2.0880	19.1600
 2.0890	19.2060
 2.0900	19.2460
 2.0910	19.2930
 2.0920	19.3450
 2.0930	19.3910
 2.0940	19.4380
 2.0950	19.4820
 2.0960	19.5200
 2.0970	19.5590
 2.0980	19.5980
 2.0990	19.6330
 2.1000	19.6580
 2.1010	19.6950
 2.1020	19.7370
 2.1030	19.7750
 2.1040	19.8190
 2.1050	19.8610
 2.1060	19.8990
 2.1070	19.9290
 2.1080	19.9630
 2.1090	19.9950
 2.1100	20.0300
 2.1110	20.0660
 2.1120	20.0990
 2.1130	20.1320
 2.1140	20.1630
 2.1150	20.1920
 2.1160	20.2150
 2.1170	20.2300
 2.1180	20.2490
 2.1190	20.2610
 2.1200	20.2780
 2.1210	20.3010
 2.1220	20.3270
 2.1230	20.3550
 2.1240	20.3860
 2.1250	20.4140
 2.1260	20.4460
 2.1270	20.4770
 2.1280	20.5040
 2.1290	20.5350
 2.1300	20.5720
 2.1310	20.6030
 2.1320	20.6350
 2.1330	20.6620
 2.1340	20.6800
 2.1350	20.7050
 2.1360	20.7310
 2.1370	20.7570
 2.1380	20.7890
 2.1390	20.8160
 2.1400	20.8350
 2.1410	20.8590
 2.1420	20.8820
 2.1430	20.9010
 2.1440	20.9260
 2.1450	20.9560
 2.1460	20.9820
 2.1470	21.0100
 2.1480	21.0360
 2.1490	21.0580
 2.1500	21.0830
 2.1510	21.1110
 2.1520	21.1380
 2.1530	21.1670
 2.1540	21.1930
 2.1550	21.2190
 2.1560	21.2430
 2.1570	21.2700
 2.1580	21.2890
 2.1590	21.3000
 2.1600	21.3130
 2.1610	21.3270
 2.1620	21.3420
 2.1630	21.3580
 2.1640	21.3810
 2.1650	21.3950
 2.1660	21.3970
 2.1670	21.4120
 2.1680	21.4290
 2.1690	21.4480
 2.1700	21.4790
 2.1710	21.4990
 2.1720	21.5140
 2.1730	21.5310
 2.1740	21.5440
 2.1750	21.5610
 2.1760	21.5850
 2.1770	21.6010
 2.1780	21.6120
 2.1790	21.6290
 2.1800	21.6430
 2.1810	21.6610
 2.1820	21.6870
 2.1830	21.7160
 2.1840	21.7410
 2.1850	21.7650
 2.1860	21.7900
 2.1870	21.8140
 2.1880	21.8410
 2.1890	21.8750
 2.1900	21.8980
 2.1910	21.9160
 2.1920	21.9370
 2.1930	21.9530
 2.1940	21.9720
 2.1950	21.9930
 2.1960	22.0160
 2.1970	22.0390
 2.1980	22.0610
 2.1990	22.0890
 2.2000	22.1080
 2.2010	22.1130
 2.2020	22.1280
 2.2030	22.1400
 2.2040	22.1570
 2.2050	22.1820
 2.2060	22.2090
 2.2070	22.2280
 2.2080	22.2440
 2.2090	22.2560
 2.2100	22.2590
 2.2110	22.2700
 2.2120	22.2790
 2.2130	22.2970
 2.2140	22.3240
 2.2150	22.3450
 2.2160	22.3700
 2.2170	22.3880
 2.2180	22.4000
 2.2190	22.4140
 2.2200	22.4310
 2.2210	22.4400
 2.2220	22.4490
 2.2230	22.4490
 2.2240	22.4390
 2.2250	22.4280
 2.2260	22.4120
 2.2270	22.3960
 2.2280	22.3770
 2.2290	22.3590
 2.2300	22.3440
 2.2310	22.3260
 2.2320	22.3080
 2.2330	22.2810
 2.2340	22.2560
 2.2350	22.2270
 2.2360	22.1980
 2.2370	22.1740
 2.2380	22.1380
 2.2390	22.0940
 2.2400	22.0540
 2.2410	22.0110
 2.2420	21.9650
 2.2430	21.9210
 2.2440	21.8700
 2.2450	21.8120
 2.2460	21.7580
 2.2470	21.7030
 2.2480	21.6500
 2.2490	21.5960
 2.2500	21.5480
 2.2510	21.5100
 2.2520	21.4650
 2.2530	21.4230
 2.2540	21.3800
 2.2550	21.3330
 2.2560	21.2850
 2.2570	21.2390
 2.2580	21.1910
 2.2590	21.1330
 2.2600	21.0840
 2.2610	21.0420
 2.2620	20.9930
 2.2630	20.9560
 2.2640	20.9210
 2.2650	20.8800
 2.2660	20.8490
 2.2670	20.8080
 2.2680	20.7600
 2.2690	20.7210
 2.2700	20.6800
 2.2710	20.6420
 2.2720	20.6100
 2.2730	20.5770
 2.2740	20.5440
 2.2750	20.5090
 2.2760	20.4760
 2.2770	20.4390
 2.2780	20.4000
 2.2790	20.3580
 2.2800	20.3100
 2.2810	20.2720
 2.2820	20.2400
 2.2830	20.2030
 2.2840	20.1750
 2.2850	20.1350
 2.2860	20.0780
 2.2870	20.0310
 2.2880	19.9890
 2.2890	19.9380
 2.2900	19.8840
 2.2910	19.8310
 2.2920	19.7680
 2.2930	19.7130
 2.2940	19.6690
 2.2950	19.6180
 2.2960	19.5660
 2.2970	19.5140
 2.2980	19.4600
 2.2990	19.4010
 2.3000	19.3610
 2.3010	19.3040
 2.3020	19.2480
 2.3030	19.1970
 2.3040	19.1230
 2.3050	19.0670
 2.3060	19.0190
 2.3070	18.9690
 2.3080	18.9270
 2.3090	18.8820
 2.3100	18.8250
 2.3110	18.7740
 2.3120	18.7310
 2.3130	18.6920
 2.3140	18.6600
 2.3150	18.6400
 2.3160	18.6200
 2.3170	18.6040
 2.3180	18.5840
 2.3190	18.5670
 2.3200	18.5530
 2.3210	18.5430
 2.3220	18.5250
 2.3230	18.5100
 2.3240	18.4810
 2.3250	18.4340
 2.3260	18.3960
 2.3270	18.3580
 2.3280	18.3180
 2.3290	18.2870
 2.3300	18.2360
 2.3310	18.1620
 2.3320	18.1080
 2.3330	18.0510
 2.3340	17.9970
 2.3350	17.9580
 2.3360	17.9160
 2.3370	17.8670
 2.3380	17.8220
 2.3390	17.7860
 2.3400	17.7470
 2.3410	17.7020
 2.3420	17.6650
 2.3430	17.6340
 2.3440	17.5980
 2.3450	17.5690
 2.3460	17.5260
 2.3470	17.4640
 2.3480	17.4150
 2.3490	17.3620
 2.3500	17.3160
 2.3510	17.2800
 2.3520	17.2490
 2.3530	17.2290
 2.3540	17.1990
 2.3550	17.1710
 2.3560	17.1540
 2.3570	17.1090
 2.3580	17.0760
 2.3590	17.0650
 2.3600	17.0230
 2.3610	16.9860
 2.3620	16.9660
 2.3630	16.9170
 2.3640	16.8720
 2.3650	16.8360
 2.3660	16.7760
 2.3670	16.7300
 2.3680	16.6820
 2.3690	16.6340
 2.3700	16.6100
 2.3710	16.5690
 2.3720	16.5390
 2.3730	16.5060
 2.3740	16.4450
 2.3750	16.3880
 2.3760	16.3360
 2.3770	16.2740
 2.3780	16.2080
 2.3790	16.1620
 2.3800	16.1060
 2.3810	16.0540
 2.3820	16.0400
 2.3830	15.9990
 2.3840	15.9310
 2.3850	15.8780
 2.3860	15.8010
 2.3870	15.7160
 2.3880	15.6720
 2.3890	15.6160
 2.3900	15.5570
 2.3910	15.5320
 2.3920	15.4900
 2.3930	15.4370
 2.3940	15.3960
 2.3950	15.3370
 2.3960	15.2740
 2.3970	15.2320
 2.3980	15.1970
 2.3990	15.1460
 2.4000	15.1020
 2.4010	15.0550
 2.4020	14.9720
 2.4030	14.9140
 2.4040	14.8750
 2.4050	14.8380
 2.4060	14.8160
 2.4070	14.7540
 2.4080	14.6810
 2.4090	14.6080
 2.4100	14.5230
 2.4110	14.4660
 2.4120	14.4090
 2.4130	14.3460
 2.4140	14.3000
 2.4150	14.2610
 2.4160	14.2160
 2.4170	14.1600
 2.4180	14.1070
 2.4190	14.0320
 2.4200	13.9570
 2.4210	13.8800
 2.4220	13.7960
 2.4230	13.7570
 2.4240	13.7320
 2.4250	13.7020
 2.4260	13.6520
 2.4270	13.5820
 2.4280	13.4980
 2.4290	13.4230
 2.4300	13.3770
 2.4310	13.3040
 2.4320	13.2400
 2.4330	13.1740
 2.4340	13.1110
 2.4350	13.0680
 2.4360	12.9950
 2.4370	12.9570
 2.4380	12.9360
 2.4390	12.8910
 2.4400	12.8590
 2.4410	12.8120
 2.4420	12.7090
 2.4430	12.6050
 2.4440	12.5510
 2.4450	12.5030
 2.4460	12.4520
 2.4470	12.4210
 2.4480	12.3780
 2.4490	12.3110
 2.4500	12.2540
 2.4510	12.2120
 2.4520	12.1610
 2.4530	12.0820
 2.4540	12.0180
 2.4550	11.9550
 2.4560	11.8790
 2.4570	11.8530
 2.4580	11.8400
 2.4590	11.7720
 2.4600	11.7150
 2.4610	11.6780
 2.4620	11.6260
 2.4630	11.6480
 2.4640	11.6230
 2.4650	11.5580
 2.4660	11.5340
 2.4670	11.4610
 2.4680	11.4360
 2.4690	11.4340
 2.4700	11.3690
 2.4710	11.2600
 2.4720	11.2090
 2.4730	11.1360
 2.4740	11.0780
 2.4750	11.0850
 2.4760	11.0510
 2.4770	10.9910
 2.4780	10.9760
 2.4790	10.9940
 2.4800	10.9650
 2.4810	10.9300
 2.4820	10.8940
 2.4830	10.7960
 2.4840	10.7610
 2.4850	10.7370
 2.4860	10.6460
 2.4870	10.6490
 2.4880	10.6740
 2.4890	10.7070
 2.4900	10.8140
 2.4910	10.8570
 2.4920	10.8310
 2.4930	10.7130
 2.4940	10.5840
 2.4950	10.5760
 2.4960	10.5640
 2.4970	10.5410
 2.4980	10.5670
 2.4990	10.4980
 2.5000	10.4400
