Name: Ceanothus spinosus 2
Type: vegetation
Class: Shrub
Genus: Ceanothus
Species: spinosus
Sample No.: VH129
Owner: UCSB
Wavelength Range: TIR
Origin: 34.4906; -119.7908; WGS84
Collection Date: 6/3/2013
Description: Samples were collected as part of the HyspIRI Airborne Campaign. 48 individual plants were sampled in three times in 2013 - spring  summer  and fall. The name of the sample includes a 1  2  or 3 which references a different individual of the species. Samples were taken to JPL and processed within 48 hours of collection. The same leaves were processed in the Nicolet and then measured using the ASD.
Measurement: Hemispherical reflectance
First Column: X
Second Column: Y
X Units: Wavelength (micrometers)
Y Units: Reflectance (percentage)
First X Value: 2.501
Last X Value: 15.387
Number of X Values: 1737
Additional Information: vegetation.shrub.ceanothus.spinosus.tir.vh129.ucsb.nicolet.ancillary.txt

 2.5010	 8.1600
 2.5030	 8.1660
 2.5040	 8.2140
 2.5050	 8.1690
 2.5060	 8.0110
 2.5070	 7.8260
 2.5090	 8.0250
 2.5100	 8.0860
 2.5110	 7.9990
 2.5120	 7.8940
 2.5140	 7.9100
 2.5150	 7.9430
 2.5160	 8.0080
 2.5170	 7.9720
 2.5180	 8.0150
 2.5200	 8.0340
 2.5210	 8.0770
 2.5220	 8.0470
 2.5230	 8.0990
 2.5250	 8.0770
 2.5260	 8.0060
 2.5270	 7.9800
 2.5280	 8.0910
 2.5290	 8.0460
 2.5310	 7.9280
 2.5320	 7.8800
 2.5330	 7.9640
 2.5340	 7.8850
 2.5360	 7.8310
 2.5370	 7.7800
 2.5380	 7.7650
 2.5390	 7.7740
 2.5410	 7.7990
 2.5420	 7.8290
 2.5430	 7.7670
 2.5440	 7.7140
 2.5460	 7.8660
 2.5470	 7.8670
 2.5480	 7.9800
 2.5490	 8.0150
 2.5510	 7.9760
 2.5520	 7.7430
 2.5530	 7.8630
 2.5540	 8.0230
 2.5560	 8.0920
 2.5570	 7.9610
 2.5580	 8.0240
 2.5590	 8.0310
 2.5610	 8.1390
 2.5620	 8.1080
 2.5630	 8.0730
 2.5640	 8.0180
 2.5660	 8.0360
 2.5670	 7.9220
 2.5680	 7.8770
 2.5700	 7.9390
 2.5710	 7.8920
 2.5720	 7.8060
 2.5730	 7.8960
 2.5750	 7.7850
 2.5760	 7.8000
 2.5770	 7.8820
 2.5790	 7.9710
 2.5800	 8.0080
 2.5810	 7.9950
 2.5820	 8.0110
 2.5840	 7.9970
 2.5850	 7.8330
 2.5860	 7.8350
 2.5880	 7.8940
 2.5890	 7.9560
 2.5900	 7.9560
 2.5910	 7.8350
 2.5930	 7.7980
 2.5940	 7.9060
 2.5950	 7.9440
 2.5970	 7.8510
 2.5980	 7.7990
 2.5990	 7.9800
 2.6000	 7.9230
 2.6020	 7.8520
 2.6030	 7.8170
 2.6040	 7.7850
 2.6060	 7.7360
 2.6070	 7.7050
 2.6080	 7.6480
 2.6100	 7.6930
 2.6110	 7.7230
 2.6120	 7.8400
 2.6140	 7.7700
 2.6150	 7.7320
 2.6160	 7.6170
 2.6180	 7.6670
 2.6190	 7.7710
 2.6200	 7.8200
 2.6220	 7.7440
 2.6230	 7.6480
 2.6240	 7.5290
 2.6260	 7.6420
 2.6270	 7.6980
 2.6280	 7.7210
 2.6300	 7.6170
 2.6310	 7.5320
 2.6320	 7.5880
 2.6340	 7.6400
 2.6350	 7.5770
 2.6360	 7.7210
 2.6380	 7.7820
 2.6390	 7.6390
 2.6400	 7.4550
 2.6420	 7.4780
 2.6430	 7.4460
 2.6440	 7.5090
 2.6460	 7.4220
 2.6470	 7.4220
 2.6480	 7.4630
 2.6500	 7.4530
 2.6510	 7.4430
 2.6520	 7.5180
 2.6540	 7.5430
 2.6550	 7.4710
 2.6560	 7.4060
 2.6580	 7.4040
 2.6590	 7.3770
 2.6610	 7.3980
 2.6620	 7.3640
 2.6630	 7.4510
 2.6650	 7.4710
 2.6660	 7.4280
 2.6670	 7.4370
 2.6690	 7.5070
 2.6700	 7.4790
 2.6720	 7.3430
 2.6730	 7.2270
 2.6740	 7.3080
 2.6760	 7.3420
 2.6770	 7.3040
 2.6780	 7.2540
 2.6800	 7.3180
 2.6810	 7.2670
 2.6830	 7.2510
 2.6840	 7.2330
 2.6850	 7.3650
 2.6870	 7.3440
 2.6880	 7.2220
 2.6900	 7.0440
 2.6910	 7.0690
 2.6920	 7.2020
 2.6940	 7.3590
 2.6950	 7.2390
 2.6970	 7.1440
 2.6980	 7.1600
 2.6990	 7.1770
 2.7010	 7.0800
 2.7020	 7.1430
 2.7040	 7.2930
 2.7050	 7.4110
 2.7060	 7.4130
 2.7080	 7.3820
 2.7090	 7.2440
 2.7110	 7.2730
 2.7120	 7.1900
 2.7130	 7.2750
 2.7150	 7.3170
 2.7160	 7.2330
 2.7180	 7.2100
 2.7190	 7.3530
 2.7210	 7.2880
 2.7220	 7.2760
 2.7230	 7.2830
 2.7250	 7.1990
 2.7260	 7.1040
 2.7280	 7.1460
 2.7290	 7.1620
 2.7310	 7.1560
 2.7320	 7.1430
 2.7330	 7.1500
 2.7350	 7.1470
 2.7360	 7.2560
 2.7380	 7.2270
 2.7390	 7.2090
 2.7410	 7.2240
 2.7420	 7.2660
 2.7440	 7.1350
 2.7450	 7.1410
 2.7470	 7.1060
 2.7480	 7.1110
 2.7490	 7.0660
 2.7510	 7.1640
 2.7520	 7.3000
 2.7540	 7.4360
 2.7550	 7.3830
 2.7570	 7.3280
 2.7580	 7.3180
 2.7600	 7.3530
 2.7610	 7.3740
 2.7630	 7.3830
 2.7640	 7.3240
 2.7660	 7.2500
 2.7670	 7.1720
 2.7680	 7.4080
 2.7700	 7.3660
 2.7710	 7.3560
 2.7730	 7.4350
 2.7740	 7.4890
 2.7760	 7.3710
 2.7770	 7.3540
 2.7790	 7.2740
 2.7800	 7.3680
 2.7820	 7.3710
 2.7830	 7.3780
 2.7850	 7.3580
 2.7860	 7.3970
 2.7880	 7.3870
 2.7890	 7.3230
 2.7910	 7.2500
 2.7920	 7.4110
 2.7940	 7.2980
 2.7950	 7.3590
 2.7970	 7.5970
 2.7980	 7.6830
 2.8000	 7.5610
 2.8010	 7.5790
 2.8030	 7.5270
 2.8040	 7.5230
 2.8060	 7.4410
 2.8070	 7.4190
 2.8090	 7.3300
 2.8110	 7.3160
 2.8120	 7.3440
 2.8140	 7.6670
 2.8150	 7.6710
 2.8170	 7.5980
 2.8180	 7.5910
 2.8200	 7.5650
 2.8210	 7.4770
 2.8230	 7.4660
 2.8240	 7.4390
 2.8260	 7.6350
 2.8270	 7.7880
 2.8290	 7.6970
 2.8300	 7.5730
 2.8320	 7.4970
 2.8340	 7.4610
 2.8350	 7.5850
 2.8370	 7.5990
 2.8380	 7.6030
 2.8400	 7.5720
 2.8410	 7.4850
 2.8430	 7.4520
 2.8440	 7.6420
 2.8460	 7.6650
 2.8480	 7.7500
 2.8490	 7.8220
 2.8510	 7.7620
 2.8520	 7.7370
 2.8540	 7.9650
 2.8550	 7.9050
 2.8570	 7.8190
 2.8590	 7.6550
 2.8600	 7.7320
 2.8620	 7.8740
 2.8630	 8.0030
 2.8650	 7.9600
 2.8660	 7.8480
 2.8680	 7.7300
 2.8700	 7.7810
 2.8710	 7.7870
 2.8730	 7.7870
 2.8740	 7.7660
 2.8760	 7.7970
 2.8780	 7.7170
 2.8790	 7.8070
 2.8810	 7.8460
 2.8820	 7.9020
 2.8840	 7.8280
 2.8860	 7.7590
 2.8870	 7.7750
 2.8890	 7.8320
 2.8900	 7.7160
 2.8920	 7.7100
 2.8940	 7.7500
 2.8950	 7.8640
 2.8970	 7.8920
 2.8980	 7.8970
 2.9000	 7.9170
 2.9020	 7.9990
 2.9030	 7.9430
 2.9050	 8.0170
 2.9070	 7.9570
 2.9080	 8.0520
 2.9100	 8.1390
 2.9120	 8.2530
 2.9130	 8.1560
 2.9150	 8.1650
 2.9160	 8.1320
 2.9180	 8.0470
 2.9200	 7.9060
 2.9210	 7.9520
 2.9230	 7.9620
 2.9250	 8.0460
 2.9260	 8.0170
 2.9280	 8.2050
 2.9300	 8.1990
 2.9310	 8.0140
 2.9330	 7.8310
 2.9350	 7.8620
 2.9360	 8.0810
 2.9380	 8.3130
 2.9400	 8.2810
 2.9410	 8.1480
 2.9430	 8.0570
 2.9450	 8.0890
 2.9460	 8.0270
 2.9480	 8.0940
 2.9500	 8.1240
 2.9510	 8.1960
 2.9530	 8.1660
 2.9550	 8.2120
 2.9560	 8.0930
 2.9580	 7.9760
 2.9600	 8.0670
 2.9610	 8.2150
 2.9630	 8.2770
 2.9650	 8.2860
 2.9660	 8.1470
 2.9680	 8.1850
 2.9700	 8.1230
 2.9720	 8.0400
 2.9730	 8.0300
 2.9750	 8.1110
 2.9770	 8.0600
 2.9780	 8.1200
 2.9800	 8.0680
 2.9820	 8.1730
 2.9840	 8.1060
 2.9850	 8.0080
 2.9870	 7.9990
 2.9890	 8.0230
 2.9900	 7.9570
 2.9920	 8.0220
 2.9940	 8.0210
 2.9960	 8.1520
 2.9970	 8.1270
 2.9990	 8.2050
 3.0010	 8.2210
 3.0030	 8.2970
 3.0040	 8.3010
 3.0060	 8.2390
 3.0080	 8.0630
 3.0100	 8.1400
 3.0110	 8.1300
 3.0130	 8.0750
 3.0150	 8.0230
 3.0170	 8.1110
 3.0180	 8.0860
 3.0200	 8.0760
 3.0220	 8.0400
 3.0240	 8.0080
 3.0250	 7.9960
 3.0270	 8.1930
 3.0290	 8.2600
 3.0310	 8.2080
 3.0320	 8.0550
 3.0340	 8.2240
 3.0360	 8.2560
 3.0380	 8.1110
 3.0400	 8.0030
 3.0410	 8.0270
 3.0430	 7.9940
 3.0450	 8.0360
 3.0470	 8.1190
 3.0480	 8.2700
 3.0500	 8.1930
 3.0520	 8.0920
 3.0540	 8.0120
 3.0560	 8.1490
 3.0570	 8.0880
 3.0590	 7.9170
 3.0610	 7.9660
 3.0630	 8.1200
 3.0650	 8.0430
 3.0660	 8.0360
 3.0680	 8.0560
 3.0700	 8.1240
 3.0720	 8.0340
 3.0740	 7.9550
 3.0760	 8.0000
 3.0770	 8.1260
 3.0790	 7.9850
 3.0810	 8.0050
 3.0830	 8.0180
 3.0850	 7.9980
 3.0870	 7.8330
 3.0880	 7.7860
 3.0900	 7.8990
 3.0920	 7.9750
 3.0940	 7.9160
 3.0960	 8.0370
 3.0980	 7.9680
 3.0990	 7.8780
 3.1010	 7.8690
 3.1030	 7.7980
 3.1050	 7.7440
 3.1070	 7.7820
 3.1090	 7.7440
 3.1110	 7.8600
 3.1120	 7.8500
 3.1140	 7.9330
 3.1160	 7.9020
 3.1180	 7.8280
 3.1200	 7.8350
 3.1220	 7.8170
 3.1240	 7.7900
 3.1260	 7.8860
 3.1270	 7.9110
 3.1290	 7.9450
 3.1310	 7.8590
 3.1330	 7.8140
 3.1350	 7.8330
 3.1370	 7.8660
 3.1390	 7.8110
 3.1410	 7.8620
 3.1430	 7.8780
 3.1450	 7.9280
 3.1460	 7.9080
 3.1480	 7.8650
 3.1500	 7.8550
 3.1520	 7.8530
 3.1540	 7.6940
 3.1560	 7.6690
 3.1580	 7.6550
 3.1600	 7.7100
 3.1620	 7.6320
 3.1640	 7.6320
 3.1660	 7.7180
 3.1680	 7.8440
 3.1700	 7.8110
 3.1710	 7.7440
 3.1730	 7.6200
 3.1750	 7.7050
 3.1770	 7.6830
 3.1790	 7.6050
 3.1810	 7.6150
 3.1830	 7.6380
 3.1850	 7.5820
 3.1870	 7.6860
 3.1890	 7.6600
 3.1910	 7.6120
 3.1930	 7.5610
 3.1950	 7.6420
 3.1970	 7.6620
 3.1990	 7.5980
 3.2010	 7.5360
 3.2030	 7.6930
 3.2050	 7.6610
 3.2070	 7.5140
 3.2090	 7.4510
 3.2110	 7.5330
 3.2130	 7.5570
 3.2150	 7.5490
 3.2170	 7.4580
 3.2190	 7.4950
 3.2210	 7.4610
 3.2230	 7.4310
 3.2250	 7.4580
 3.2270	 7.5150
 3.2290	 7.4110
 3.2310	 7.4640
 3.2330	 7.4910
 3.2350	 7.5390
 3.2370	 7.4920
 3.2390	 7.4730
 3.2410	 7.4310
 3.2430	 7.4550
 3.2450	 7.4430
 3.2470	 7.4020
 3.2490	 7.4080
 3.2510	 7.5690
 3.2530	 7.4940
 3.2550	 7.3450
 3.2570	 7.2860
 3.2590	 7.3290
 3.2610	 7.3610
 3.2630	 7.2940
 3.2650	 7.2840
 3.2670	 7.3530
 3.2690	 7.3790
 3.2720	 7.4330
 3.2740	 7.3470
 3.2760	 7.3760
 3.2780	 7.4050
 3.2800	 7.4040
 3.2820	 7.3570
 3.2840	 7.2960
 3.2860	 7.2780
 3.2880	 7.3380
 3.2900	 7.2680
 3.2920	 7.2620
 3.2940	 7.2230
 3.2960	 7.2030
 3.2990	 7.1590
 3.3010	 7.1470
 3.3030	 7.0780
 3.3050	 7.1650
 3.3070	 7.1680
 3.3090	 7.2680
 3.3110	 7.2830
 3.3130	 7.2810
 3.3150	 7.2090
 3.3180	 7.1410
 3.3200	 7.1080
 3.3220	 7.1690
 3.3240	 7.1640
 3.3260	 7.1640
 3.3280	 7.1960
 3.3300	 7.2400
 3.3330	 7.1430
 3.3350	 7.1080
 3.3370	 7.1040
 3.3390	 7.1360
 3.3410	 7.0790
 3.3430	 7.0480
 3.3450	 6.9730
 3.3480	 7.0140
 3.3500	 6.9310
 3.3520	 6.8640
 3.3540	 6.9720
 3.3560	 7.0830
 3.3580	 6.9950
 3.3610	 6.8810
 3.3630	 6.7670
 3.3650	 6.7820
 3.3670	 6.8880
 3.3690	 6.8990
 3.3720	 6.8350
 3.3740	 6.9540
 3.3760	 6.8760
 3.3780	 6.7990
 3.3800	 6.7320
 3.3830	 6.7270
 3.3850	 6.7180
 3.3870	 6.7460
 3.3890	 6.6840
 3.3910	 6.6840
 3.3940	 6.6690
 3.3960	 6.7290
 3.3980	 6.7010
 3.4000	 6.6460
 3.4020	 6.6620
 3.4050	 6.8860
 3.4070	 7.0630
 3.4090	 7.2180
 3.4110	 7.3640
 3.4140	 7.6060
 3.4160	 7.7940
 3.4180	 8.0890
 3.4200	 8.4710
 3.4230	 9.0940
 3.4250	 9.8460
 3.4270	10.4350
 3.4290	10.6130
 3.4320	10.4170
 3.4340	 9.8540
 3.4360	 9.3150
 3.4390	 8.9830
 3.4410	 8.7590
 3.4430	 8.5790
 3.4450	 8.4650
 3.4480	 8.3490
 3.4500	 8.3460
 3.4520	 8.3170
 3.4550	 8.3220
 3.4570	 8.3040
 3.4590	 8.2590
 3.4620	 8.1490
 3.4640	 8.1200
 3.4660	 8.0320
 3.4680	 8.0100
 3.4710	 8.0570
 3.4730	 8.0830
 3.4750	 7.9580
 3.4780	 7.8130
 3.4800	 7.7090
 3.4820	 7.7290
 3.4850	 7.7290
 3.4870	 7.7130
 3.4890	 7.6390
 3.4920	 7.6010
 3.4940	 7.5850
 3.4970	 7.6370
 3.4990	 7.7090
 3.5010	 7.9250
 3.5040	 8.1940
 3.5060	 8.7870
 3.5080	 9.7390
 3.5110	10.3690
 3.5130	10.2500
 3.5160	 9.7060
 3.5180	 9.1680
 3.5200	 8.8710
 3.5230	 8.6810
 3.5250	 8.5240
 3.5270	 8.3160
 3.5300	 8.2910
 3.5320	 8.2060
 3.5350	 8.1650
 3.5370	 8.1390
 3.5400	 8.1100
 3.5420	 8.0530
 3.5440	 8.0480
 3.5470	 7.9160
 3.5490	 7.9260
 3.5520	 8.0370
 3.5540	 8.0770
 3.5570	 8.0470
 3.5590	 8.1020
 3.5610	 8.0310
 3.5640	 7.9670
 3.5660	 7.9670
 3.5690	 7.9690
 3.5710	 7.9040
 3.5740	 7.9220
 3.5760	 7.9010
 3.5790	 7.8900
 3.5810	 7.8580
 3.5840	 7.9530
 3.5860	 7.8980
 3.5890	 7.8030
 3.5910	 7.8000
 3.5930	 7.8070
 3.5960	 7.8290
 3.5980	 7.9150
 3.6010	 7.8530
 3.6030	 7.8290
 3.6060	 7.8170
 3.6080	 7.8570
 3.6110	 7.8720
 3.6140	 7.8710
 3.6160	 7.7570
 3.6190	 7.7270
 3.6210	 7.7500
 3.6240	 7.8520
 3.6260	 7.8060
 3.6290	 7.8470
 3.6310	 7.8190
 3.6340	 7.7300
 3.6360	 7.7210
 3.6390	 7.8350
 3.6410	 7.7570
 3.6440	 7.7410
 3.6470	 7.7900
 3.6490	 7.7580
 3.6520	 7.6800
 3.6540	 7.7440
 3.6570	 7.7930
 3.6590	 7.8230
 3.6620	 7.7980
 3.6650	 7.7730
 3.6670	 7.7190
 3.6700	 7.6930
 3.6720	 7.7500
 3.6750	 7.7920
 3.6780	 7.7150
 3.6800	 7.7260
 3.6830	 7.7210
 3.6850	 7.7170
 3.6880	 7.6630
 3.6910	 7.5990
 3.6930	 7.7040
 3.6960	 7.7820
 3.6990	 7.7240
 3.7010	 7.6510
 3.7040	 7.5930
 3.7060	 7.6760
 3.7090	 7.6690
 3.7120	 7.7410
 3.7140	 7.6990
 3.7170	 7.7030
 3.7200	 7.8110
 3.7220	 7.8630
 3.7250	 7.7860
 3.7280	 7.6780
 3.7300	 7.7010
 3.7330	 7.8410
 3.7360	 7.7920
 3.7390	 7.7730
 3.7410	 7.8130
 3.7440	 7.7070
 3.7470	 7.6830
 3.7490	 7.7750
 3.7520	 7.7490
 3.7550	 7.7350
 3.7580	 7.7140
 3.7600	 7.7170
 3.7630	 7.7190
 3.7660	 7.6960
 3.7680	 7.7280
 3.7710	 7.8580
 3.7740	 7.7700
 3.7770	 7.7230
 3.7790	 7.7850
 3.7820	 7.8290
 3.7850	 7.7900
 3.7880	 7.7120
 3.7900	 7.6880
 3.7930	 7.7030
 3.7960	 7.6710
 3.7990	 7.6730
 3.8020	 7.7030
 3.8040	 7.7120
 3.8070	 7.7580
 3.8100	 7.7560
 3.8130	 7.6360
 3.8160	 7.6520
 3.8180	 7.7160
 3.8210	 7.7340
 3.8240	 7.6820
 3.8270	 7.6960
 3.8300	 7.6840
 3.8330	 7.7270
 3.8350	 7.8060
 3.8380	 7.8770
 3.8410	 7.8480
 3.8440	 7.8130
 3.8470	 7.7920
 3.8500	 7.8030
 3.8520	 7.8640
 3.8550	 7.8450
 3.8580	 7.7060
 3.8610	 7.7140
 3.8640	 7.6650
 3.8670	 7.5860
 3.8700	 7.6460
 3.8730	 7.7060
 3.8750	 7.6830
 3.8780	 7.7680
 3.8810	 7.7820
 3.8840	 7.7530
 3.8870	 7.6680
 3.8900	 7.6820
 3.8930	 7.7480
 3.8960	 7.7920
 3.8990	 7.7820
 3.9020	 7.7740
 3.9050	 7.7760
 3.9080	 7.7330
 3.9110	 7.7180
 3.9140	 7.7430
 3.9160	 7.7540
 3.9190	 7.7470
 3.9220	 7.6900
 3.9250	 7.6810
 3.9280	 7.6810
 3.9310	 7.7230
 3.9340	 7.7540
 3.9370	 7.7870
 3.9400	 7.7440
 3.9430	 7.7640
 3.9460	 7.8150
 3.9490	 7.7580
 3.9520	 7.7010
 3.9550	 7.6890
 3.9580	 7.6880
 3.9610	 7.7330
 3.9640	 7.6580
 3.9670	 7.6500
 3.9700	 7.7700
 3.9730	 7.8100
 3.9770	 7.7740
 3.9800	 7.7960
 3.9830	 7.8070
 3.9860	 7.8670
 3.9890	 7.8540
 3.9920	 7.8110
 3.9950	 7.6770
 3.9980	 7.7120
 4.0010	 7.9280
 4.0040	 7.9600
 4.0070	 7.8590
 4.0100	 7.8180
 4.0130	 7.8000
 4.0170	 7.7570
 4.0200	 7.7210
 4.0230	 7.7690
 4.0260	 7.7060
 4.0290	 7.6810
 4.0320	 7.7590
 4.0350	 7.8100
 4.0380	 7.8430
 4.0420	 7.8610
 4.0450	 7.8210
 4.0480	 7.8200
 4.0510	 7.7990
 4.0540	 7.8190
 4.0570	 7.7980
 4.0610	 7.7840
 4.0640	 7.7320
 4.0670	 7.7250
 4.0700	 7.7390
 4.0730	 7.7740
 4.0770	 7.8170
 4.0800	 7.8050
 4.0830	 7.7930
 4.0860	 7.8380
 4.0890	 7.8130
 4.0930	 7.8010
 4.0960	 7.7600
 4.0990	 7.7740
 4.1020	 7.7350
 4.1060	 7.7360
 4.1090	 7.7220
 4.1120	 7.7350
 4.1150	 7.8010
 4.1190	 7.8040
 4.1220	 7.8270
 4.1250	 7.8230
 4.1280	 7.7400
 4.1320	 7.6820
 4.1350	 7.7240
 4.1380	 7.8410
 4.1420	 7.8260
 4.1450	 7.8560
 4.1480	 7.8450
 4.1520	 7.8500
 4.1550	 7.8370
 4.1580	 7.8880
 4.1620	 7.8210
 4.1650	 7.7390
 4.1680	 7.7440
 4.1720	 7.7500
 4.1750	 7.7670
 4.1780	 7.8750
 4.1820	 7.8500
 4.1850	 7.7750
 4.1890	 7.7710
 4.1920	 7.8580
 4.1950	 7.8680
 4.1990	 7.8710
 4.2020	 7.8290
 4.2060	 7.8330
 4.2090	 7.8450
 4.2120	 7.8900
 4.2160	 7.8760
 4.2190	 7.7550
 4.2230	 7.9130
 4.2260	 8.0040
 4.2300	 7.9290
 4.2330	 7.8650
 4.2360	 7.7460
 4.2400	 7.6880
 4.2430	 7.7750
 4.2470	 7.8440
 4.2500	 7.7980
 4.2540	 7.9390
 4.2570	 7.9040
 4.2610	 7.8400
 4.2640	 7.7590
 4.2680	 7.7760
 4.2710	 7.9820
 4.2750	 8.0700
 4.2780	 7.9430
 4.2820	 7.9050
 4.2850	 7.9600
 4.2890	 7.8990
 4.2930	 7.7960
 4.2960	 7.8640
 4.3000	 7.9900
 4.3030	 7.9570
 4.3070	 7.8980
 4.3100	 7.8140
 4.3140	 7.7410
 4.3180	 7.8030
 4.3210	 7.8260
 4.3250	 7.7930
 4.3280	 7.7330
 4.3320	 7.7480
 4.3360	 7.8380
 4.3390	 7.8280
 4.3430	 7.8300
 4.3470	 7.8880
 4.3500	 7.9470
 4.3540	 7.9550
 4.3570	 7.9070
 4.3610	 7.8860
 4.3650	 7.9030
 4.3680	 7.8540
 4.3720	 7.7770
 4.3760	 7.8600
 4.3800	 7.8900
 4.3830	 7.8760
 4.3870	 7.7950
 4.3910	 7.7980
 4.3940	 7.8670
 4.3980	 7.9010
 4.4020	 7.8540
 4.4060	 7.8420
 4.4090	 7.8460
 4.4130	 7.8100
 4.4170	 7.7640
 4.4210	 7.7730
 4.4240	 7.8190
 4.4280	 7.8220
 4.4320	 7.8350
 4.4360	 7.8920
 4.4400	 7.8140
 4.4430	 7.7590
 4.4470	 7.7290
 4.4510	 7.7920
 4.4550	 7.8490
 4.4590	 7.7680
 4.4620	 7.6850
 4.4660	 7.7510
 4.4700	 7.8560
 4.4740	 7.9090
 4.4780	 7.9250
 4.4820	 7.8730
 4.4860	 7.7940
 4.4900	 7.6890
 4.4930	 7.7020
 4.4970	 7.7930
 4.5010	 7.8240
 4.5050	 7.7870
 4.5090	 7.7970
 4.5130	 7.7690
 4.5170	 7.7520
 4.5210	 7.8140
 4.5250	 7.8540
 4.5290	 7.8070
 4.5330	 7.7670
 4.5370	 7.7900
 4.5410	 7.7750
 4.5450	 7.7310
 4.5490	 7.7140
 4.5530	 7.7250
 4.5570	 7.7240
 4.5610	 7.7400
 4.5650	 7.7900
 4.5690	 7.7690
 4.5730	 7.6860
 4.5770	 7.6860
 4.5810	 7.7360
 4.5850	 7.7690
 4.5890	 7.7710
 4.5930	 7.7690
 4.5970	 7.8200
 4.6010	 7.8230
 4.6050	 7.7560
 4.6090	 7.7900
 4.6130	 7.8460
 4.6170	 7.8090
 4.6220	 7.7890
 4.6260	 7.8510
 4.6300	 7.8730
 4.6340	 7.8260
 4.6380	 7.7680
 4.6420	 7.7240
 4.6460	 7.7380
 4.6510	 7.7670
 4.6550	 7.8210
 4.6590	 7.8030
 4.6630	 7.7780
 4.6670	 7.7900
 4.6720	 7.7790
 4.6760	 7.7500
 4.6800	 7.7050
 4.6840	 7.7160
 4.6880	 7.7730
 4.6930	 7.7230
 4.6970	 7.6840
 4.7010	 7.7170
 4.7050	 7.7690
 4.7100	 7.7710
 4.7140	 7.7910
 4.7180	 7.7760
 4.7230	 7.8180
 4.7270	 7.8720
 4.7310	 7.8160
 4.7360	 7.8070
 4.7400	 7.7990
 4.7440	 7.7830
 4.7490	 7.8130
 4.7530	 7.7160
 4.7570	 7.6880
 4.7620	 7.7080
 4.7660	 7.6910
 4.7700	 7.6960
 4.7750	 7.7510
 4.7790	 7.7500
 4.7840	 7.7910
 4.7880	 7.7630
 4.7920	 7.7340
 4.7970	 7.7290
 4.8010	 7.7650
 4.8060	 7.8270
 4.8100	 7.8460
 4.8150	 7.8900
 4.8190	 7.8270
 4.8240	 7.7850
 4.8280	 7.8390
 4.8330	 7.7770
 4.8370	 7.7710
 4.8420	 7.7720
 4.8460	 7.7800
 4.8510	 7.7980
 4.8550	 7.7960
 4.8600	 7.7680
 4.8640	 7.7590
 4.8690	 7.8180
 4.8730	 7.8480
 4.8780	 7.8750
 4.8830	 7.8890
 4.8870	 7.8640
 4.8920	 7.8490
 4.8960	 7.8030
 4.9010	 7.8070
 4.9060	 7.8140
 4.9100	 7.8100
 4.9150	 7.9020
 4.9200	 8.0420
 4.9240	 7.9050
 4.9290	 7.7680
 4.9340	 7.8060
 4.9380	 7.8520
 4.9430	 7.8280
 4.9480	 7.8110
 4.9530	 7.7490
 4.9570	 7.7610
 4.9620	 7.7780
 4.9670	 7.7810
 4.9720	 7.8120
 4.9760	 7.8770
 4.9810	 7.8850
 4.9860	 7.8870
 4.9910	 7.8000
 4.9960	 7.7480
 5.0000	 7.7650
 5.0050	 7.8410
 5.0100	 7.8790
 5.0150	 7.9370
 5.0200	 7.8490
 5.0250	 7.7890
 5.0290	 7.7810
 5.0340	 7.8270
 5.0390	 7.7930
 5.0440	 7.8800
 5.0490	 7.9440
 5.0540	 7.8920
 5.0590	 7.8780
 5.0640	 7.9080
 5.0690	 7.8010
 5.0740	 7.7730
 5.0790	 7.8540
 5.0840	 7.9110
 5.0890	 7.9350
 5.0940	 7.8910
 5.0990	 7.8880
 5.1040	 7.9370
 5.1090	 7.9710
 5.1140	 7.9480
 5.1190	 7.8790
 5.1240	 7.8670
 5.1290	 7.8540
 5.1340	 7.8710
 5.1390	 7.8470
 5.1440	 7.8690
 5.1490	 7.8910
 5.1540	 7.8620
 5.1600	 7.8470
 5.1650	 7.8470
 5.1700	 7.8690
 5.1750	 7.8980
 5.1800	 7.8890
 5.1850	 7.8760
 5.1910	 7.8850
 5.1960	 7.9730
 5.2010	 7.9150
 5.2060	 7.8180
 5.2110	 7.8140
 5.2170	 7.9060
 5.2220	 7.9070
 5.2270	 7.9010
 5.2320	 7.8680
 5.2380	 7.7800
 5.2430	 7.7350
 5.2480	 7.8540
 5.2540	 7.9680
 5.2590	 7.9720
 5.2640	 7.8600
 5.2700	 7.8530
 5.2750	 7.8650
 5.2800	 7.8840
 5.2860	 7.8780
 5.2910	 7.8950
 5.2970	 7.8340
 5.3020	 7.8150
 5.3070	 7.8560
 5.3130	 7.8540
 5.3180	 7.8380
 5.3240	 7.9170
 5.3290	 7.9100
 5.3350	 7.9280
 5.3400	 7.8850
 5.3460	 7.8590
 5.3510	 7.7740
 5.3570	 7.8000
 5.3620	 7.8680
 5.3680	 7.8900
 5.3730	 7.8590
 5.3790	 7.8980
 5.3850	 7.8220
 5.3900	 7.7730
 5.3960	 7.7480
 5.4010	 7.8450
 5.4070	 7.8430
 5.4130	 7.7930
 5.4180	 7.7620
 5.4240	 7.7460
 5.4300	 7.7510
 5.4350	 7.7980
 5.4410	 7.7340
 5.4470	 7.7530
 5.4530	 7.8330
 5.4580	 7.8340
 5.4640	 7.8150
 5.4700	 7.8220
 5.4760	 7.7830
 5.4810	 7.8320
 5.4870	 7.8130
 5.4930	 7.7810
 5.4990	 7.8090
 5.5050	 7.8130
 5.5110	 7.7020
 5.5160	 7.6690
 5.5220	 7.6450
 5.5280	 7.6460
 5.5340	 7.6090
 5.5400	 7.6660
 5.5460	 7.7060
 5.5520	 7.7320
 5.5580	 7.6670
 5.5640	 7.6790
 5.5700	 7.6690
 5.5760	 7.6540
 5.5820	 7.6080
 5.5880	 7.6080
 5.5940	 7.5780
 5.6000	 7.5490
 5.6060	 7.5340
 5.6120	 7.5390
 5.6180	 7.5520
 5.6240	 7.5610
 5.6300	 7.4690
 5.6360	 7.4370
 5.6420	 7.4200
 5.6490	 7.4260
 5.6550	 7.3820
 5.6610	 7.4110
 5.6670	 7.3890
 5.6730	 7.3570
 5.6800	 7.2880
 5.6860	 7.2060
 5.6920	 7.1910
 5.6980	 7.2390
 5.7040	 7.0590
 5.7110	 6.9820
 5.7170	 6.9500
 5.7230	 7.0560
 5.7300	 7.0590
 5.7360	 6.9540
 5.7420	 6.8850
 5.7490	 7.0270
 5.7550	 7.2530
 5.7620	 7.5200
 5.7680	 7.6430
 5.7740	 7.8300
 5.7810	 8.0600
 5.7870	 8.2550
 5.7940	 8.2620
 5.8000	 8.3360
 5.8070	 8.4340
 5.8130	 8.4890
 5.8200	 8.4040
 5.8260	 8.4510
 5.8330	 8.5750
 5.8390	 8.6350
 5.8460	 8.6680
 5.8530	 8.7340
 5.8590	 8.8100
 5.8660	 8.8810
 5.8720	 8.8400
 5.8790	 8.8500
 5.8860	 8.7840
 5.8920	 8.7550
 5.8990	 8.7280
 5.9060	 8.8020
 5.9130	 8.8100
 5.9190	 8.8170
 5.9260	 8.7020
 5.9330	 8.7230
 5.9400	 8.6620
 5.9470	 8.6980
 5.9530	 8.6700
 5.9600	 8.5610
 5.9670	 8.4510
 5.9740	 8.4610
 5.9810	 8.4150
 5.9880	 8.5610
 5.9950	 8.4810
 6.0020	 8.4080
 6.0090	 8.3680
 6.0160	 8.2850
 6.0230	 8.3650
 6.0300	 8.4490
 6.0370	 8.3360
 6.0440	 8.3820
 6.0510	 8.3140
 6.0580	 8.2480
 6.0650	 8.2110
 6.0720	 8.2770
 6.0790	 8.1770
 6.0860	 8.1570
 6.0930	 8.2410
 6.1000	 8.3060
 6.1080	 8.1940
 6.1150	 8.1700
 6.1220	 8.1320
 6.1290	 8.2570
 6.1370	 8.2910
 6.1440	 8.2180
 6.1510	 8.1400
 6.1580	 8.0930
 6.1660	 8.0380
 6.1730	 8.0990
 6.1800	 8.1030
 6.1880	 8.1420
 6.1950	 8.0890
 6.2030	 8.0700
 6.2100	 8.0420
 6.2170	 8.1690
 6.2250	 8.1040
 6.2320	 8.0500
 6.2400	 7.9610
 6.2470	 8.0650
 6.2550	 8.1140
 6.2630	 8.0960
 6.2700	 8.0310
 6.2780	 8.0980
 6.2850	 8.1440
 6.2930	 8.1850
 6.3010	 8.0290
 6.3080	 8.0580
 6.3160	 7.9870
 6.3240	 7.9350
 6.3310	 7.9710
 6.3390	 7.9790
 6.3470	 8.0000
 6.3550	 8.0020
 6.3620	 7.8880
 6.3700	 7.9150
 6.3780	 7.8830
 6.3860	 7.8910
 6.3940	 7.9270
 6.4020	 8.0630
 6.4100	 8.0240
 6.4180	 7.8760
 6.4260	 7.8520
 6.4330	 7.9740
 6.4410	 7.8740
 6.4490	 7.8720
 6.4580	 7.9500
 6.4660	 7.9070
 6.4740	 7.8050
 6.4820	 7.9330
 6.4900	 7.9210
 6.4980	 7.8960
 6.5060	 7.8660
 6.5140	 7.9170
 6.5230	 7.8440
 6.5310	 7.8370
 6.5390	 7.8230
 6.5470	 7.7770
 6.5550	 7.6700
 6.5640	 7.7520
 6.5720	 7.7920
 6.5800	 7.7750
 6.5890	 7.7880
 6.5970	 7.8640
 6.6060	 7.8120
 6.6140	 7.7830
 6.6220	 7.7240
 6.6310	 7.7820
 6.6390	 7.7090
 6.6480	 7.7360
 6.6560	 7.6980
 6.6650	 7.7480
 6.6740	 7.7030
 6.6820	 7.5990
 6.6910	 7.5720
 6.6990	 7.7380
 6.7080	 7.7060
 6.7170	 7.7150
 6.7260	 7.6310
 6.7340	 7.6160
 6.7430	 7.5220
 6.7520	 7.5510
 6.7610	 7.5230
 6.7690	 7.5980
 6.7780	 7.5890
 6.7870	 7.7510
 6.7960	 7.7510
 6.8050	 7.6670
 6.8140	 7.7040
 6.8230	 7.9030
 6.8320	 8.0160
 6.8410	 8.2360
 6.8500	 8.1590
 6.8590	 8.1690
 6.8680	 8.1650
 6.8770	 8.2120
 6.8860	 8.1010
 6.8950	 8.0910
 6.9050	 8.1090
 6.9140	 8.2300
 6.9230	 8.0540
 6.9320	 8.0190
 6.9420	 7.9300
 6.9510	 7.9600
 6.9600	 7.9550
 6.9700	 8.0850
 6.9790	 8.0200
 6.9880	 8.0150
 6.9980	 8.0020
 7.0070	 7.9650
 7.0170	 7.7450
 7.0260	 7.7710
 7.0360	 7.8040
 7.0450	 7.8650
 7.0550	 7.8160
 7.0650	 7.8980
 7.0740	 7.8160
 7.0840	 7.8080
 7.0940	 7.8670
 7.1030	 7.9610
 7.1130	 7.8260
 7.1230	 7.7880
 7.1330	 7.7770
 7.1420	 7.8530
 7.1520	 7.7600
 7.1620	 7.7520
 7.1720	 7.6840
 7.1820	 7.6960
 7.1920	 7.7260
 7.2020	 7.8350
 7.2120	 7.7770
 7.2220	 7.8800
 7.2320	 7.8670
 7.2420	 7.7740
 7.2520	 7.6450
 7.2620	 7.7900
 7.2730	 7.8290
 7.2830	 7.8540
 7.2930	 7.7910
 7.3030	 7.9010
 7.3140	 7.8370
 7.3240	 7.8640
 7.3340	 7.8700
 7.3450	 7.8600
 7.3550	 7.7880
 7.3660	 7.9170
 7.3760	 7.9750
 7.3870	 7.8860
 7.3970	 7.7020
 7.4080	 7.7590
 7.4180	 7.7400
 7.4290	 7.7140
 7.4400	 7.6670
 7.4500	 7.7880
 7.4610	 7.7200
 7.4720	 7.7170
 7.4830	 7.5880
 7.4930	 7.6270
 7.5040	 7.6220
 7.5150	 7.7100
 7.5260	 7.6510
 7.5370	 7.7150
 7.5480	 7.6700
 7.5590	 7.7430
 7.5700	 7.7880
 7.5810	 7.7320
 7.5920	 7.5890
 7.6030	 7.6860
 7.6140	 7.6310
 7.6260	 7.6640
 7.6370	 7.5330
 7.6480	 7.6340
 7.6590	 7.5900
 7.6710	 7.6620
 7.6820	 7.6660
 7.6930	 7.6780
 7.7050	 7.5160
 7.7160	 7.4720
 7.7280	 7.4520
 7.7390	 7.5340
 7.7510	 7.5470
 7.7630	 7.5670
 7.7740	 7.4430
 7.7860	 7.5060
 7.7980	 7.5110
 7.8090	 7.6850
 7.8210	 7.5980
 7.8330	 7.5710
 7.8450	 7.5670
 7.8570	 7.6500
 7.8690	 7.5540
 7.8810	 7.7010
 7.8930	 7.6720
 7.9050	 7.8440
 7.9170	 7.8690
 7.9290	 7.8060
 7.9410	 7.6490
 7.9530	 7.7610
 7.9650	 7.7330
 7.9780	 7.8140
 7.9900	 7.8780
 8.0020	 7.8630
 8.0150	 7.7380
 8.0270	 7.7840
 8.0390	 7.7090
 8.0520	 7.7790
 8.0640	 7.8000
 8.0770	 7.9750
 8.0900	 7.8410
 8.1020	 7.8050
 8.1150	 7.7520
 8.1280	 7.7530
 8.1400	 7.5080
 8.1530	 7.6050
 8.1660	 7.6990
 8.1790	 7.9630
 8.1920	 7.8500
 8.2050	 7.8720
 8.2180	 7.7770
 8.2310	 7.9160
 8.2440	 8.0080
 8.2570	 8.1330
 8.2700	 8.0690
 8.2830	 8.1830
 8.2970	 7.9340
 8.3100	 8.0180
 8.3230	 8.0220
 8.3370	 8.2940
 8.3500	 8.3010
 8.3640	 8.2040
 8.3770	 8.2070
 8.3910	 8.4270
 8.4040	 8.2970
 8.4180	 8.4280
 8.4320	 8.3720
 8.4450	 8.5810
 8.4590	 8.5410
 8.4730	 8.6620
 8.4870	 8.6260
 8.5010	 8.7350
 8.5150	 8.9430
 8.5290	 9.2250
 8.5430	 9.1400
 8.5570	 9.3130
 8.5710	 9.1730
 8.5850	 9.1070
 8.5990	 9.0380
 8.6140	 9.1560
 8.6280	 8.8410
 8.6420	 8.7670
 8.6570	 8.7440
 8.6710	 8.7880
 8.6860	 8.4470
 8.7000	 8.4350
 8.7150	 8.3670
 8.7300	 8.6150
 8.7440	 8.6410
 8.7590	 8.6810
 8.7740	 8.6460
 8.7890	 8.7370
 8.8040	 8.6180
 8.8190	 8.8400
 8.8340	 8.7760
 8.8490	 8.9220
 8.8640	 8.9520
 8.8790	 8.9310
 8.8940	 8.6280
 8.9100	 8.7480
 8.9250	 8.5190
 8.9400	 8.4330
 8.9560	 8.3100
 8.9710	 8.4060
 8.9870	 8.4790
 9.0020	 8.6630
 9.0180	 8.4400
 9.0340	 8.4920
 9.0500	 8.2870
 9.0650	 8.2730
 9.0810	 8.1180
 9.0970	 8.3190
 9.1130	 8.2820
 9.1290	 8.3380
 9.1450	 8.1550
 9.1610	 8.3830
 9.1780	 8.2980
 9.1940	 8.2270
 9.2100	 8.2250
 9.2270	 8.5220
 9.2430	 8.4180
 9.2600	 8.4620
 9.2760	 8.3820
 9.2930	 8.3420
 9.3090	 8.1130
 9.3260	 8.1760
 9.3430	 8.0040
 9.3600	 8.0760
 9.3770	 7.9240
 9.3940	 7.9630
 9.4110	 7.8620
 9.4280	 7.8990
 9.4450	 7.7460
 9.4620	 7.9310
 9.4800	 7.7650
 9.4970	 7.8350
 9.5140	 7.7260
 9.5320	 7.7450
 9.5500	 7.6040
 9.5670	 7.8130
 9.5850	 7.7540
 9.6030	 7.7930
 9.6200	 7.6940
 9.6380	 7.6830
 9.6560	 7.5740
 9.6740	 7.7920
 9.6920	 7.7160
 9.7100	 7.8380
 9.7290	 7.7320
 9.7470	 7.8800
 9.7650	 7.6590
 9.7840	 7.6880
 9.8020	 7.5330
 9.8210	 7.6040
 9.8390	 7.5830
 9.8580	 7.7470
 9.8770	 7.6900
 9.8960	 7.8580
 9.9150	 7.7180
 9.9340	 7.7670
 9.9530	 7.6350
 9.9720	 7.9470
 9.9910	 7.8220
10.0100	 7.7860
10.0300	 7.6580
10.0490	 7.7690
10.0690	 7.6860
10.0880	 7.9160
10.1080	 7.7440
10.1280	 7.7030
10.1480	 7.6040
10.1670	 7.7970
10.1870	 7.6270
10.2070	 7.7830
10.2280	 7.7870
10.2480	 7.8010
10.2680	 7.6260
10.2890	 7.8380
10.3090	 7.6910
10.3300	 7.6760
10.3500	 7.5840
10.3710	 7.6940
10.3920	 7.6090
10.4120	 7.8360
10.4330	 7.6160
10.4540	 7.6610
10.4760	 7.5170
10.4970	 7.5800
10.5180	 7.4310
10.5390	 7.6270
10.5610	 7.6580
10.5820	 7.7760
10.6040	 7.6060
10.6260	 7.7210
10.6480	 7.5920
10.6700	 7.7960
10.6920	 7.6640
10.7140	 7.6340
10.7360	 7.3650
10.7580	 7.5650
10.7800	 7.5380
10.8030	 7.6920
10.8250	 7.6120
10.8480	 7.7820
10.8710	 7.5110
10.8940	 7.4880
10.9170	 7.4130
10.9400	 7.5840
10.9630	 7.4710
10.9860	 7.6610
11.0090	 7.5600
11.0330	 7.6380
11.0560	 7.4790
11.0800	 7.5690
11.1040	 7.4780
11.1270	 7.6360
11.1510	 7.3250
11.1750	 7.3410
11.2000	 7.1810
11.2240	 7.4530
11.2480	 7.4590
11.2730	 7.5700
11.2970	 7.4400
11.3220	 7.5560
11.3470	 7.2920
11.3720	 7.3490
11.3970	 7.3830
11.4220	 7.6460
11.4470	 7.3630
11.4720	 7.4270
11.4980	 7.2190
11.5230	 7.4010
11.5490	 7.2350
11.5750	 7.2960
11.6000	 7.0680
11.6260	 7.1610
11.6530	 7.0000
11.6790	 7.0840
11.7050	 6.8720
11.7320	 6.9260
11.7580	 6.7870
11.7850	 7.0870
11.8120	 6.9260
11.8390	 7.1410
11.8660	 7.0460
11.8930	 7.1180
11.9200	 6.9540
11.9480	 6.9140
11.9760	 6.6980
12.0030	 7.0200
12.0310	 6.7640
12.0590	 6.9740
12.0870	 6.8830
12.1150	 6.9920
12.1440	 6.7640
12.1720	 7.0090
12.2010	 6.8180
12.2300	 7.1310
12.2590	 6.8970
12.2880	 6.9440
12.3170	 6.8500
12.3460	 7.0160
12.3760	 6.5920
12.4050	 6.7600
12.4350	 6.5920
12.4650	 6.8140
12.4950	 6.5220
12.5250	 6.5920
12.5550	 6.3160
12.5860	 6.5040
12.6170	 6.4400
12.6470	 6.7780
12.6780	 6.5990
12.7090	 6.7390
12.7410	 6.4120
12.7720	 6.4980
12.8030	 6.3050
12.8350	 6.6390
12.8670	 6.4550
12.8990	 6.6010
12.9310	 6.3820
12.9640	 6.4870
12.9960	 6.0060
13.0290	 6.0040
13.0610	 6.0050
13.0940	 6.6170
13.1280	 6.2540
13.1610	 6.1070
13.1940	 5.9300
13.2280	 5.7330
13.2620	 5.4730
13.2960	 6.1290
13.3300	 6.0250
13.3640	 6.2100
13.3990	 5.9400
13.4340	 6.3180
13.4690	 6.0460
13.5040	 6.2780
13.5390	 6.2400
13.5740	 6.4400
13.6100	 5.8280
13.6460	 5.9250
13.6820	 5.8220
13.7180	 6.3240
13.7540	 6.1920
13.7910	 6.2640
13.8280	 5.6700
13.8650	 5.9220
13.9020	 5.6500
13.9390	 6.3610
13.9770	 6.3070
14.0150	 6.3120
14.0530	 5.6550
14.0910	 5.9820
14.1290	 5.9700
14.1680	 6.0150
14.2070	 5.3690
14.2460	 6.1400
14.2850	 6.0750
14.3240	 6.0860
14.3640	 5.5070
14.4040	 5.8930
14.4440	 5.3850
14.4840	 6.0840
14.5250	 5.8130
14.5660	 6.0580
14.6070	 5.5010
14.6480	 6.3050
14.6900	 5.9010
14.7310	 6.0640
14.7730	 5.7330
14.8150	 6.1910
14.8580	 5.7240
14.9010	 6.0250
14.9440	 5.7810
14.9870	 6.4860
15.0300	 5.5760
15.0740	 5.8770
15.1180	 5.2290
15.1620	 5.7090
15.2060	 5.4340
15.2510	 6.3050
15.2960	 5.7650
15.3410	 6.0770
15.3870	 5.5410
