Name: Arctostaphylos glandulosa 3
Type: vegetation
Class: Shrub
Genus: Arctostaphylos
Species: glandulosa
Sample No.: VH040
Owner: UCSB
Wavelength Range: VSWIR
Origin: 34.5085; -119.7682; WGS84
Collection Date: 4/1/2013
Description: Samples were collected as part of the HyspIRI Airborne Campaign. 48 individual plants were sampled in three times in 2013 - spring  summer  and fall. The name of the sample includes a 1  2  or 3 which references a different individual of the species. Samples were taken to JPL and processed within 48 hours of collection. The same leaves were processed in the Nicolet and then measured using the ASD.
Measurement: Bidirectional reflectance
First Column: X
Second Column: Y
X Units: Wavelength (micrometers)
Y Units: Reflectance (percentage)
First X Value: 0.35
Last X Value: 2.5
Number of X Values: 2151
Additional Information: vegetation.shrub.arctostaphylos.glandulosa.vswir.vh040.ucsb.asd.ancillary.txt

 0.3500	 5.8900
 0.3510	 5.9610
 0.3520	 5.9630
 0.3530	 5.9880
 0.3540	 6.0570
 0.3550	 5.9570
 0.3560	 5.8770
 0.3570	 5.8580
 0.3580	 5.8510
 0.3590	 5.8180
 0.3600	 5.9030
 0.3610	 6.0740
 0.3620	 6.0300
 0.3630	 6.0460
 0.3640	 6.0610
 0.3650	 6.0000
 0.3660	 6.0690
 0.3670	 6.1160
 0.3680	 6.0730
 0.3690	 5.9630
 0.3700	 6.0380
 0.3710	 6.1110
 0.3720	 6.0770
 0.3730	 6.0980
 0.3740	 6.0530
 0.3750	 6.0280
 0.3760	 6.1150
 0.3770	 6.1020
 0.3780	 6.0730
 0.3790	 6.1170
 0.3800	 6.2940
 0.3810	 6.2760
 0.3820	 6.1630
 0.3830	 6.0920
 0.3840	 6.1030
 0.3850	 6.1840
 0.3860	 6.2480
 0.3870	 6.2080
 0.3880	 6.1320
 0.3890	 6.0980
 0.3900	 6.1280
 0.3910	 6.1840
 0.3920	 6.2010
 0.3930	 6.1950
 0.3940	 6.1880
 0.3950	 6.1510
 0.3960	 6.1730
 0.3970	 6.2020
 0.3980	 6.1490
 0.3990	 6.1760
 0.4000	 6.2020
 0.4010	 6.2030
 0.4020	 6.2640
 0.4030	 6.2020
 0.4040	 6.1240
 0.4050	 6.1470
 0.4060	 6.1870
 0.4070	 6.2120
 0.4080	 6.2130
 0.4090	 6.1920
 0.4100	 6.1940
 0.4110	 6.1880
 0.4120	 6.1640
 0.4130	 6.1870
 0.4140	 6.1670
 0.4150	 6.1400
 0.4160	 6.1610
 0.4170	 6.1920
 0.4180	 6.1940
 0.4190	 6.1820
 0.4200	 6.2190
 0.4210	 6.2310
 0.4220	 6.2320
 0.4230	 6.2430
 0.4240	 6.2600
 0.4250	 6.2800
 0.4260	 6.3020
 0.4270	 6.3300
 0.4280	 6.3860
 0.4290	 6.4130
 0.4300	 6.4120
 0.4310	 6.4690
 0.4320	 6.5430
 0.4330	 6.6080
 0.4340	 6.6560
 0.4350	 6.7140
 0.4360	 6.7650
 0.4370	 6.8230
 0.4380	 6.9210
 0.4390	 6.9970
 0.4400	 7.0690
 0.4410	 7.1550
 0.4420	 7.2540
 0.4430	 7.3290
 0.4440	 7.3980
 0.4450	 7.4920
 0.4460	 7.5940
 0.4470	 7.6900
 0.4480	 7.7780
 0.4490	 7.8610
 0.4500	 7.9540
 0.4510	 8.0290
 0.4520	 8.0760
 0.4530	 8.1770
 0.4540	 8.2530
 0.4550	 8.2950
 0.4560	 8.3470
 0.4570	 8.4140
 0.4580	 8.4640
 0.4590	 8.4900
 0.4600	 8.5410
 0.4610	 8.5830
 0.4620	 8.6190
 0.4630	 8.6590
 0.4640	 8.6850
 0.4650	 8.7100
 0.4660	 8.7390
 0.4670	 8.7630
 0.4680	 8.7850
 0.4690	 8.8060
 0.4700	 8.8240
 0.4710	 8.8350
 0.4720	 8.8480
 0.4730	 8.8640
 0.4740	 8.8780
 0.4750	 8.8940
 0.4760	 8.9040
 0.4770	 8.9090
 0.4780	 8.9200
 0.4790	 8.9280
 0.4800	 8.9380
 0.4810	 8.9530
 0.4820	 8.9630
 0.4830	 8.9660
 0.4840	 8.9700
 0.4850	 8.9880
 0.4860	 9.0000
 0.4870	 9.0110
 0.4880	 9.0290
 0.4890	 9.0610
 0.4900	 9.0880
 0.4910	 9.1120
 0.4920	 9.1400
 0.4930	 9.1680
 0.4940	 9.2010
 0.4950	 9.2400
 0.4960	 9.2790
 0.4970	 9.3280
 0.4980	 9.3810
 0.4990	 9.4340
 0.5000	 9.4970
 0.5010	 9.5550
 0.5020	 9.6130
 0.5030	 9.6970
 0.5040	 9.7790
 0.5050	 9.8640
 0.5060	 9.9560
 0.5070	10.0600
 0.5080	10.1780
 0.5090	10.3030
 0.5100	10.4240
 0.5110	10.5670
 0.5120	10.7180
 0.5130	10.8710
 0.5140	11.0420
 0.5150	11.2180
 0.5160	11.4010
 0.5170	11.5930
 0.5180	11.8000
 0.5190	12.0100
 0.5200	12.2230
 0.5210	12.4430
 0.5220	12.6740
 0.5230	12.9010
 0.5240	13.1150
 0.5250	13.3380
 0.5260	13.5540
 0.5270	13.7610
 0.5280	13.9610
 0.5290	14.1540
 0.5300	14.3400
 0.5310	14.5160
 0.5320	14.6770
 0.5330	14.8350
 0.5340	14.9860
 0.5350	15.1240
 0.5360	15.2500
 0.5370	15.3680
 0.5380	15.4800
 0.5390	15.5830
 0.5400	15.6820
 0.5410	15.7830
 0.5420	15.8860
 0.5430	15.9790
 0.5440	16.0660
 0.5450	16.1500
 0.5460	16.2330
 0.5470	16.2900
 0.5480	16.3430
 0.5490	16.3990
 0.5500	16.4410
 0.5510	16.4800
 0.5520	16.5090
 0.5530	16.5220
 0.5540	16.5190
 0.5550	16.5120
 0.5560	16.4990
 0.5570	16.4690
 0.5580	16.4320
 0.5590	16.3850
 0.5600	16.3240
 0.5610	16.2490
 0.5620	16.1660
 0.5630	16.0750
 0.5640	15.9740
 0.5650	15.8660
 0.5660	15.7540
 0.5670	15.6410
 0.5680	15.5240
 0.5690	15.3930
 0.5700	15.2610
 0.5710	15.1380
 0.5720	15.0180
 0.5730	14.8980
 0.5740	14.7860
 0.5750	14.7000
 0.5760	14.6300
 0.5770	14.5670
 0.5780	14.5020
 0.5790	14.4360
 0.5800	14.3590
 0.5810	14.2790
 0.5820	14.2120
 0.5830	14.1470
 0.5840	14.0800
 0.5850	14.0080
 0.5860	13.9340
 0.5870	13.8590
 0.5880	13.7820
 0.5890	13.7070
 0.5900	13.6420
 0.5910	13.6010
 0.5920	13.5780
 0.5930	13.5530
 0.5940	13.5390
 0.5950	13.5260
 0.5960	13.5080
 0.5970	13.4880
 0.5980	13.4660
 0.5990	13.4450
 0.6000	13.4210
 0.6010	13.3840
 0.6020	13.3430
 0.6030	13.3000
 0.6040	13.2480
 0.6050	13.1910
 0.6060	13.1260
 0.6070	13.0510
 0.6080	12.9720
 0.6090	12.8910
 0.6100	12.8090
 0.6110	12.7310
 0.6120	12.6470
 0.6130	12.5640
 0.6140	12.4850
 0.6150	12.4060
 0.6160	12.3340
 0.6170	12.2690
 0.6180	12.2090
 0.6190	12.1540
 0.6200	12.1030
 0.6210	12.0560
 0.6220	12.0180
 0.6230	11.9830
 0.6240	11.9550
 0.6250	11.9340
 0.6260	11.9060
 0.6270	11.8900
 0.6280	11.8820
 0.6290	11.8740
 0.6300	11.8650
 0.6310	11.8540
 0.6320	11.8410
 0.6330	11.8260
 0.6340	11.8050
 0.6350	11.7770
 0.6360	11.7420
 0.6370	11.6920
 0.6380	11.6350
 0.6390	11.5710
 0.6400	11.4990
 0.6410	11.4250
 0.6420	11.3410
 0.6430	11.2500
 0.6440	11.1570
 0.6450	11.0620
 0.6460	10.9670
 0.6470	10.8780
 0.6480	10.7960
 0.6490	10.7180
 0.6500	10.6430
 0.6510	10.5760
 0.6520	10.5150
 0.6530	10.4550
 0.6540	10.3920
 0.6550	10.3310
 0.6560	10.2590
 0.6570	10.1760
 0.6580	10.0930
 0.6590	10.0090
 0.6600	 9.9210
 0.6610	 9.8280
 0.6620	 9.7350
 0.6630	 9.6460
 0.6640	 9.5640
 0.6650	 9.4880
 0.6660	 9.4190
 0.6670	 9.3600
 0.6680	 9.3110
 0.6690	 9.2690
 0.6700	 9.2350
 0.6710	 9.2080
 0.6720	 9.1910
 0.6730	 9.1780
 0.6740	 9.1770
 0.6750	 9.1810
 0.6760	 9.1840
 0.6770	 9.1960
 0.6780	 9.2140
 0.6790	 9.2400
 0.6800	 9.2810
 0.6810	 9.3300
 0.6820	 9.3970
 0.6830	 9.4880
 0.6840	 9.5920
 0.6850	 9.7290
 0.6860	 9.8970
 0.6870	10.0950
 0.6880	10.3380
 0.6890	10.6290
 0.6900	10.9640
 0.6910	11.3460
 0.6920	11.7870
 0.6930	12.2830
 0.6940	12.8290
 0.6950	13.4270
 0.6960	14.0790
 0.6970	14.7830
 0.6980	15.5330
 0.6990	16.3290
 0.7000	17.1580
 0.7010	18.0110
 0.7020	18.8840
 0.7030	19.7760
 0.7040	20.6770
 0.7050	21.5760
 0.7060	22.4630
 0.7070	23.3400
 0.7080	24.2040
 0.7090	25.0550
 0.7100	25.8850
 0.7110	26.6910
 0.7120	27.4760
 0.7130	28.2410
 0.7140	28.9830
 0.7150	29.6980
 0.7160	30.3830
 0.7170	31.0500
 0.7180	31.6870
 0.7190	32.2940
 0.7200	32.8780
 0.7210	33.4370
 0.7220	33.9640
 0.7230	34.4620
 0.7240	34.9460
 0.7250	35.3970
 0.7260	35.8200
 0.7270	36.2220
 0.7280	36.6070
 0.7290	36.9580
 0.7300	37.2840
 0.7310	37.5980
 0.7320	37.8910
 0.7330	38.1620
 0.7340	38.4120
 0.7350	38.6470
 0.7360	38.8700
 0.7370	39.0790
 0.7380	39.2690
 0.7390	39.4440
 0.7400	39.6110
 0.7410	39.7740
 0.7420	39.9270
 0.7430	40.0570
 0.7440	40.1860
 0.7450	40.3140
 0.7460	40.4220
 0.7470	40.5160
 0.7480	40.6040
 0.7490	40.6910
 0.7500	40.7720
 0.7510	40.8490
 0.7520	40.9200
 0.7530	40.9880
 0.7540	41.0440
 0.7550	41.0970
 0.7560	41.1510
 0.7570	41.2040
 0.7580	41.2520
 0.7590	41.2930
 0.7600	41.3280
 0.7610	41.3640
 0.7620	41.4010
 0.7630	41.4340
 0.7640	41.4590
 0.7650	41.4900
 0.7660	41.5230
 0.7670	41.5540
 0.7680	41.5830
 0.7690	41.6100
 0.7700	41.6370
 0.7710	41.6650
 0.7720	41.6910
 0.7730	41.7160
 0.7740	41.7360
 0.7750	41.7510
 0.7760	41.7810
 0.7770	41.8130
 0.7780	41.8400
 0.7790	41.8600
 0.7800	41.8750
 0.7810	41.8990
 0.7820	41.9320
 0.7830	41.9560
 0.7840	41.9850
 0.7850	42.0070
 0.7860	42.0200
 0.7870	42.0430
 0.7880	42.0690
 0.7890	42.0920
 0.7900	42.1090
 0.7910	42.1300
 0.7920	42.1570
 0.7930	42.1810
 0.7940	42.1840
 0.7950	42.2070
 0.7960	42.2310
 0.7970	42.2460
 0.7980	42.2690
 0.7990	42.2890
 0.8000	42.2990
 0.8010	42.3030
 0.8020	42.3200
 0.8030	42.3350
 0.8040	42.3450
 0.8050	42.3530
 0.8060	42.3610
 0.8070	42.3710
 0.8080	42.3800
 0.8090	42.3830
 0.8100	42.3910
 0.8110	42.4010
 0.8120	42.4080
 0.8130	42.4000
 0.8140	42.3990
 0.8150	42.3970
 0.8160	42.3890
 0.8170	42.3900
 0.8180	42.3970
 0.8190	42.4010
 0.8200	42.3960
 0.8210	42.3790
 0.8220	42.3700
 0.8230	42.3680
 0.8240	42.3590
 0.8250	42.3480
 0.8260	42.3440
 0.8270	42.3450
 0.8280	42.3240
 0.8290	42.3070
 0.8300	42.2880
 0.8310	42.2610
 0.8320	42.2440
 0.8330	42.2370
 0.8340	42.2270
 0.8350	42.2040
 0.8360	42.1890
 0.8370	42.1760
 0.8380	42.1600
 0.8390	42.1400
 0.8400	42.1350
 0.8410	42.1300
 0.8420	42.1190
 0.8430	42.1110
 0.8440	42.1050
 0.8450	42.0920
 0.8460	42.0710
 0.8470	42.0760
 0.8480	42.0640
 0.8490	42.0420
 0.8500	42.0280
 0.8510	42.0170
 0.8520	42.0140
 0.8530	42.0140
 0.8540	42.0070
 0.8550	41.9880
 0.8560	41.9810
 0.8570	41.9870
 0.8580	41.9800
 0.8590	41.9620
 0.8600	41.9460
 0.8610	41.9370
 0.8620	41.9280
 0.8630	41.9260
 0.8640	41.9200
 0.8650	41.9040
 0.8660	41.8900
 0.8670	41.8800
 0.8680	41.8750
 0.8690	41.8750
 0.8700	41.8790
 0.8710	41.8760
 0.8720	41.8700
 0.8730	41.8670
 0.8740	41.8630
 0.8750	41.8670
 0.8760	41.8750
 0.8770	41.8740
 0.8780	41.8680
 0.8790	41.8700
 0.8800	41.8780
 0.8810	41.8670
 0.8820	41.8640
 0.8830	41.8590
 0.8840	41.8460
 0.8850	41.8450
 0.8860	41.8480
 0.8870	41.8530
 0.8880	41.8530
 0.8890	41.8440
 0.8900	41.8370
 0.8910	41.8350
 0.8920	41.8380
 0.8930	41.8420
 0.8940	41.8400
 0.8950	41.8290
 0.8960	41.8150
 0.8970	41.8120
 0.8980	41.8220
 0.8990	41.8320
 0.9000	41.8150
 0.9010	41.8000
 0.9020	41.7970
 0.9030	41.8020
 0.9040	41.7950
 0.9050	41.7970
 0.9060	41.8020
 0.9070	41.8020
 0.9080	41.7990
 0.9090	41.7990
 0.9100	41.8050
 0.9110	41.8130
 0.9120	41.8030
 0.9130	41.7920
 0.9140	41.7840
 0.9150	41.7810
 0.9160	41.7850
 0.9170	41.7860
 0.9180	41.7830
 0.9190	41.7770
 0.9200	41.7700
 0.9210	41.7620
 0.9220	41.7580
 0.9230	41.7590
 0.9240	41.7410
 0.9250	41.7200
 0.9260	41.7110
 0.9270	41.7190
 0.9280	41.7070
 0.9290	41.6880
 0.9300	41.6700
 0.9310	41.6470
 0.9320	41.6250
 0.9330	41.6050
 0.9340	41.5850
 0.9350	41.5680
 0.9360	41.5570
 0.9370	41.5270
 0.9380	41.4830
 0.9390	41.4720
 0.9400	41.4470
 0.9410	41.4190
 0.9420	41.3960
 0.9430	41.3510
 0.9440	41.3180
 0.9450	41.2770
 0.9460	41.2210
 0.9470	41.1880
 0.9480	41.1460
 0.9490	41.0820
 0.9500	41.0020
 0.9510	40.9360
 0.9520	40.8760
 0.9530	40.8010
 0.9540	40.7040
 0.9550	40.6400
 0.9560	40.5550
 0.9570	40.4600
 0.9580	40.3780
 0.9590	40.2970
 0.9600	40.2430
 0.9610	40.1960
 0.9620	40.1340
 0.9630	40.0910
 0.9640	40.0300
 0.9650	39.9770
 0.9660	39.9630
 0.9670	39.9310
 0.9680	39.9050
 0.9690	39.8800
 0.9700	39.8470
 0.9710	39.8350
 0.9720	39.8190
 0.9730	39.7990
 0.9740	39.7880
 0.9750	39.7980
 0.9760	39.7940
 0.9770	39.7860
 0.9780	39.7940
 0.9790	39.7860
 0.9800	39.7890
 0.9810	39.8040
 0.9820	39.8200
 0.9830	39.8240
 0.9840	39.8500
 0.9850	39.8760
 0.9860	39.8690
 0.9870	39.8860
 0.9880	39.9070
 0.9890	39.9390
 0.9900	39.9870
 0.9910	39.9830
 0.9920	40.2980
 0.9930	40.6130
 0.9940	40.9280
 0.9950	41.2420
 0.9960	41.5570
 0.9970	41.8720
 0.9980	42.1870
 0.9990	42.5010
 1.0000	42.8160
 1.0010	43.1310
 1.0020	43.4460
 1.0030	43.7600
 1.0040	44.0750
 1.0050	44.3900
 1.0060	44.7050
 1.0070	45.0190
 1.0080	45.3340
 1.0090	45.6490
 1.0100	45.6490
 1.0110	45.6830
 1.0120	45.7160
 1.0130	45.7480
 1.0140	45.7780
 1.0150	45.8090
 1.0160	45.8360
 1.0170	45.8640
 1.0180	45.8890
 1.0190	45.9180
 1.0200	45.9520
 1.0210	45.9830
 1.0220	46.0110
 1.0230	46.0420
 1.0240	46.0750
 1.0250	46.1070
 1.0260	46.1390
 1.0270	46.1720
 1.0280	46.2030
 1.0290	46.2330
 1.0300	46.2670
 1.0310	46.2960
 1.0320	46.3210
 1.0330	46.3450
 1.0340	46.3720
 1.0350	46.4000
 1.0360	46.4290
 1.0370	46.4580
 1.0380	46.4870
 1.0390	46.5160
 1.0400	46.5440
 1.0410	46.5740
 1.0420	46.6000
 1.0430	46.6200
 1.0440	46.6430
 1.0450	46.6650
 1.0460	46.6880
 1.0470	46.7130
 1.0480	46.7340
 1.0490	46.7540
 1.0500	46.7740
 1.0510	46.7920
 1.0520	46.8070
 1.0530	46.8220
 1.0540	46.8350
 1.0550	46.8480
 1.0560	46.8620
 1.0570	46.8700
 1.0580	46.8760
 1.0590	46.8810
 1.0600	46.8780
 1.0610	46.8790
 1.0620	46.8800
 1.0630	46.8800
 1.0640	46.8790
 1.0650	46.8780
 1.0660	46.8770
 1.0670	46.8740
 1.0680	46.8690
 1.0690	46.8630
 1.0700	46.8570
 1.0710	46.8480
 1.0720	46.8390
 1.0730	46.8290
 1.0740	46.8190
 1.0750	46.8080
 1.0760	46.7990
 1.0770	46.7920
 1.0780	46.7810
 1.0790	46.7700
 1.0800	46.7560
 1.0810	46.7350
 1.0820	46.7190
 1.0830	46.7040
 1.0840	46.6890
 1.0850	46.6760
 1.0860	46.6610
 1.0870	46.6450
 1.0880	46.6260
 1.0890	46.6100
 1.0900	46.5950
 1.0910	46.5770
 1.0920	46.5570
 1.0930	46.5380
 1.0940	46.5180
 1.0950	46.4960
 1.0960	46.4730
 1.0970	46.4520
 1.0980	46.4310
 1.0990	46.4100
 1.1000	46.3920
 1.1010	46.3710
 1.1020	46.3500
 1.1030	46.3270
 1.1040	46.3000
 1.1050	46.2760
 1.1060	46.2500
 1.1070	46.2230
 1.1080	46.1970
 1.1090	46.1750
 1.1100	46.1460
 1.1110	46.1160
 1.1120	46.0820
 1.1130	46.0440
 1.1140	46.0070
 1.1150	45.9700
 1.1160	45.9290
 1.1170	45.8880
 1.1180	45.8410
 1.1190	45.7910
 1.1200	45.7370
 1.1210	45.6790
 1.1220	45.6170
 1.1230	45.5500
 1.1240	45.4790
 1.1250	45.4040
 1.1260	45.3260
 1.1270	45.2400
 1.1280	45.1500
 1.1290	45.0520
 1.1300	44.9480
 1.1310	44.8350
 1.1320	44.7150
 1.1330	44.5880
 1.1340	44.4540
 1.1350	44.3100
 1.1360	44.1590
 1.1370	43.9970
 1.1380	43.8270
 1.1390	43.6510
 1.1400	43.4640
 1.1410	43.2730
 1.1420	43.0760
 1.1430	42.8740
 1.1440	42.6710
 1.1450	42.4650
 1.1460	42.2620
 1.1470	42.0560
 1.1480	41.8590
 1.1490	41.6640
 1.1500	41.4800
 1.1510	41.3000
 1.1520	41.1340
 1.1530	40.9760
 1.1540	40.8320
 1.1550	40.7000
 1.1560	40.5800
 1.1570	40.4720
 1.1580	40.3760
 1.1590	40.2910
 1.1600	40.2150
 1.1610	40.1480
 1.1620	40.0900
 1.1630	40.0390
 1.1640	39.9940
 1.1650	39.9550
 1.1660	39.9270
 1.1670	39.8990
 1.1680	39.8770
 1.1690	39.8550
 1.1700	39.8370
 1.1710	39.8170
 1.1720	39.8000
 1.1730	39.7810
 1.1740	39.7600
 1.1750	39.7390
 1.1760	39.7160
 1.1770	39.6930
 1.1780	39.6670
 1.1790	39.6370
 1.1800	39.6050
 1.1810	39.5730
 1.1820	39.5420
 1.1830	39.5130
 1.1840	39.4820
 1.1850	39.4520
 1.1860	39.4220
 1.1870	39.3920
 1.1880	39.3630
 1.1890	39.3320
 1.1900	39.3050
 1.1910	39.2800
 1.1920	39.2560
 1.1930	39.2340
 1.1940	39.2140
 1.1950	39.1970
 1.1960	39.1790
 1.1970	39.1660
 1.1980	39.1550
 1.1990	39.1450
 1.2000	39.1410
 1.2010	39.1400
 1.2020	39.1420
 1.2030	39.1480
 1.2040	39.1560
 1.2050	39.1680
 1.2060	39.1800
 1.2070	39.1990
 1.2080	39.2240
 1.2090	39.2530
 1.2100	39.2870
 1.2110	39.3250
 1.2120	39.3660
 1.2130	39.4110
 1.2140	39.4630
 1.2150	39.5160
 1.2160	39.5720
 1.2170	39.6310
 1.2180	39.6930
 1.2190	39.7550
 1.2200	39.8180
 1.2210	39.8850
 1.2220	39.9510
 1.2230	40.0150
 1.2240	40.0810
 1.2250	40.1460
 1.2260	40.2080
 1.2270	40.2710
 1.2280	40.3300
 1.2290	40.3880
 1.2300	40.4440
 1.2310	40.4980
 1.2320	40.5490
 1.2330	40.5970
 1.2340	40.6440
 1.2350	40.6860
 1.2360	40.7280
 1.2370	40.7690
 1.2380	40.8080
 1.2390	40.8460
 1.2400	40.8850
 1.2410	40.9220
 1.2420	40.9570
 1.2430	40.9910
 1.2440	41.0220
 1.2450	41.0530
 1.2460	41.0830
 1.2470	41.1110
 1.2480	41.1370
 1.2490	41.1610
 1.2500	41.1820
 1.2510	41.2020
 1.2520	41.2220
 1.2530	41.2400
 1.2540	41.2580
 1.2550	41.2740
 1.2560	41.2900
 1.2570	41.3050
 1.2580	41.3160
 1.2590	41.3250
 1.2600	41.3340
 1.2610	41.3410
 1.2620	41.3460
 1.2630	41.3510
 1.2640	41.3580
 1.2650	41.3640
 1.2660	41.3670
 1.2670	41.3720
 1.2680	41.3760
 1.2690	41.3770
 1.2700	41.3800
 1.2710	41.3830
 1.2720	41.3830
 1.2730	41.3820
 1.2740	41.3800
 1.2750	41.3760
 1.2760	41.3700
 1.2770	41.3630
 1.2780	41.3540
 1.2790	41.3420
 1.2800	41.3310
 1.2810	41.3170
 1.2820	41.2990
 1.2830	41.2780
 1.2840	41.2520
 1.2850	41.2230
 1.2860	41.1900
 1.2870	41.1530
 1.2880	41.1110
 1.2890	41.0670
 1.2900	41.0170
 1.2910	40.9630
 1.2920	40.9070
 1.2930	40.8440
 1.2940	40.7770
 1.2950	40.7060
 1.2960	40.6280
 1.2970	40.5460
 1.2980	40.4610
 1.2990	40.3720
 1.3000	40.2810
 1.3010	40.1880
 1.3020	40.0920
 1.3030	39.9900
 1.3040	39.8850
 1.3050	39.7760
 1.3060	39.6660
 1.3070	39.5520
 1.3080	39.4360
 1.3090	39.3190
 1.3100	39.1970
 1.3110	39.0720
 1.3120	38.9420
 1.3130	38.8080
 1.3140	38.6710
 1.3150	38.5310
 1.3160	38.3890
 1.3170	38.2460
 1.3180	38.1010
 1.3190	37.9520
 1.3200	37.8000
 1.3210	37.6450
 1.3220	37.4870
 1.3230	37.3260
 1.3240	37.1610
 1.3250	36.9950
 1.3260	36.8270
 1.3270	36.6570
 1.3280	36.4860
 1.3290	36.3100
 1.3300	36.1320
 1.3310	35.9530
 1.3320	35.7720
 1.3330	35.5920
 1.3340	35.4100
 1.3350	35.2280
 1.3360	35.0460
 1.3370	34.8630
 1.3380	34.6810
 1.3390	34.5000
 1.3400	34.3200
 1.3410	34.1430
 1.3420	33.9660
 1.3430	33.7900
 1.3440	33.6160
 1.3450	33.4440
 1.3460	33.2730
 1.3470	33.1050
 1.3480	32.9410
 1.3490	32.7770
 1.3500	32.6150
 1.3510	32.4530
 1.3520	32.2900
 1.3530	32.1290
 1.3540	31.9670
 1.3550	31.8070
 1.3560	31.6480
 1.3570	31.4870
 1.3580	31.3280
 1.3590	31.1660
 1.3600	31.0020
 1.3610	30.8370
 1.3620	30.6680
 1.3630	30.4960
 1.3640	30.3170
 1.3650	30.1300
 1.3660	29.9380
 1.3670	29.7380
 1.3680	29.5280
 1.3690	29.3090
 1.3700	29.0750
 1.3710	28.8290
 1.3720	28.5700
 1.3730	28.2940
 1.3740	28.0050
 1.3750	27.7000
 1.3760	27.3760
 1.3770	27.0350
 1.3780	26.6730
 1.3790	26.2920
 1.3800	25.8960
 1.3810	25.4790
 1.3820	25.0530
 1.3830	24.6130
 1.3840	24.1630
 1.3850	23.7010
 1.3860	23.2330
 1.3870	22.7500
 1.3880	22.2710
 1.3890	21.7870
 1.3900	21.3010
 1.3910	20.8240
 1.3920	20.3480
 1.3930	19.8740
 1.3940	19.4110
 1.3950	18.9520
 1.3960	18.5050
 1.3970	18.0720
 1.3980	17.6520
 1.3990	17.2520
 1.4000	16.8660
 1.4010	16.4960
 1.4020	16.1470
 1.4030	15.8110
 1.4040	15.4940
 1.4050	15.1980
 1.4060	14.9180
 1.4070	14.6600
 1.4080	14.4190
 1.4090	14.1950
 1.4100	13.9890
 1.4110	13.7980
 1.4120	13.6230
 1.4130	13.4620
 1.4140	13.3150
 1.4150	13.1820
 1.4160	13.0610
 1.4170	12.9510
 1.4180	12.8530
 1.4190	12.7630
 1.4200	12.6820
 1.4210	12.6110
 1.4220	12.5450
 1.4230	12.4880
 1.4240	12.4380
 1.4250	12.3920
 1.4260	12.3530
 1.4270	12.3180
 1.4280	12.2880
 1.4290	12.2620
 1.4300	12.2410
 1.4310	12.2240
 1.4320	12.2110
 1.4330	12.2000
 1.4340	12.1920
 1.4350	12.1870
 1.4360	12.1850
 1.4370	12.1860
 1.4380	12.1880
 1.4390	12.1920
 1.4400	12.1970
 1.4410	12.2030
 1.4420	12.2110
 1.4430	12.2200
 1.4440	12.2310
 1.4450	12.2420
 1.4460	12.2540
 1.4470	12.2690
 1.4480	12.2840
 1.4490	12.3000
 1.4500	12.3160
 1.4510	12.3330
 1.4520	12.3500
 1.4530	12.3670
 1.4540	12.3840
 1.4550	12.4030
 1.4560	12.4210
 1.4570	12.4410
 1.4580	12.4620
 1.4590	12.4850
 1.4600	12.5090
 1.4610	12.5360
 1.4620	12.5650
 1.4630	12.5960
 1.4640	12.6310
 1.4650	12.6680
 1.4660	12.7070
 1.4670	12.7500
 1.4680	12.7950
 1.4690	12.8420
 1.4700	12.8920
 1.4710	12.9460
 1.4720	13.0020
 1.4730	13.0610
 1.4740	13.1230
 1.4750	13.1850
 1.4760	13.2510
 1.4770	13.3170
 1.4780	13.3850
 1.4790	13.4560
 1.4800	13.5280
 1.4810	13.6010
 1.4820	13.6750
 1.4830	13.7490
 1.4840	13.8240
 1.4850	13.8990
 1.4860	13.9760
 1.4870	14.0540
 1.4880	14.1330
 1.4890	14.2130
 1.4900	14.2930
 1.4910	14.3720
 1.4920	14.4530
 1.4930	14.5330
 1.4940	14.6140
 1.4950	14.6950
 1.4960	14.7770
 1.4970	14.8580
 1.4980	14.9400
 1.4990	15.0240
 1.5000	15.1070
 1.5010	15.1910
 1.5020	15.2730
 1.5030	15.3550
 1.5040	15.4370
 1.5050	15.5190
 1.5060	15.6020
 1.5070	15.6850
 1.5080	15.7670
 1.5090	15.8500
 1.5100	15.9320
 1.5110	16.0150
 1.5120	16.0970
 1.5130	16.1780
 1.5140	16.2590
 1.5150	16.3380
 1.5160	16.4180
 1.5170	16.4970
 1.5180	16.5760
 1.5190	16.6550
 1.5200	16.7340
 1.5210	16.8110
 1.5220	16.8870
 1.5230	16.9640
 1.5240	17.0390
 1.5250	17.1140
 1.5260	17.1880
 1.5270	17.2610
 1.5280	17.3340
 1.5290	17.4070
 1.5300	17.4790
 1.5310	17.5510
 1.5320	17.6220
 1.5330	17.6920
 1.5340	17.7610
 1.5350	17.8310
 1.5360	17.9000
 1.5370	17.9680
 1.5380	18.0360
 1.5390	18.1030
 1.5400	18.1700
 1.5410	18.2380
 1.5420	18.3040
 1.5430	18.3700
 1.5440	18.4360
 1.5450	18.5000
 1.5460	18.5650
 1.5470	18.6300
 1.5480	18.6930
 1.5490	18.7570
 1.5500	18.8200
 1.5510	18.8820
 1.5520	18.9450
 1.5530	19.0080
 1.5540	19.0690
 1.5550	19.1300
 1.5560	19.1910
 1.5570	19.2500
 1.5580	19.3090
 1.5590	19.3670
 1.5600	19.4230
 1.5610	19.4800
 1.5620	19.5360
 1.5630	19.5930
 1.5640	19.6490
 1.5650	19.7060
 1.5660	19.7630
 1.5670	19.8200
 1.5680	19.8760
 1.5690	19.9320
 1.5700	19.9870
 1.5710	20.0410
 1.5720	20.0950
 1.5730	20.1500
 1.5740	20.2040
 1.5750	20.2570
 1.5760	20.3100
 1.5770	20.3630
 1.5780	20.4160
 1.5790	20.4700
 1.5800	20.5230
 1.5810	20.5750
 1.5820	20.6280
 1.5830	20.6820
 1.5840	20.7360
 1.5850	20.7900
 1.5860	20.8430
 1.5870	20.8950
 1.5880	20.9460
 1.5890	20.9980
 1.5900	21.0500
 1.5910	21.1030
 1.5920	21.1550
 1.5930	21.2070
 1.5940	21.2580
 1.5950	21.3080
 1.5960	21.3580
 1.5970	21.4090
 1.5980	21.4600
 1.5990	21.5120
 1.6000	21.5640
 1.6010	21.6150
 1.6020	21.6660
 1.6030	21.7160
 1.6040	21.7660
 1.6050	21.8170
 1.6060	21.8650
 1.6070	21.9120
 1.6080	21.9600
 1.6090	22.0060
 1.6100	22.0510
 1.6110	22.0960
 1.6120	22.1390
 1.6130	22.1810
 1.6140	22.2250
 1.6150	22.2670
 1.6160	22.3080
 1.6170	22.3500
 1.6180	22.3900
 1.6190	22.4310
 1.6200	22.4710
 1.6210	22.5110
 1.6220	22.5480
 1.6230	22.5840
 1.6240	22.6190
 1.6250	22.6510
 1.6260	22.6840
 1.6270	22.7150
 1.6280	22.7440
 1.6290	22.7730
 1.6300	22.8000
 1.6310	22.8270
 1.6320	22.8550
 1.6330	22.8790
 1.6340	22.9010
 1.6350	22.9200
 1.6360	22.9350
 1.6370	22.9480
 1.6380	22.9610
 1.6390	22.9690
 1.6400	22.9760
 1.6410	22.9780
 1.6420	22.9760
 1.6430	22.9710
 1.6440	22.9630
 1.6450	22.9520
 1.6460	22.9390
 1.6470	22.9210
 1.6480	22.9000
 1.6490	22.8760
 1.6500	22.8470
 1.6510	22.8170
 1.6520	22.7880
 1.6530	22.7560
 1.6540	22.7260
 1.6550	22.6960
 1.6560	22.6660
 1.6570	22.6390
 1.6580	22.6140
 1.6590	22.5910
 1.6600	22.5720
 1.6610	22.5570
 1.6620	22.5460
 1.6630	22.5400
 1.6640	22.5390
 1.6650	22.5440
 1.6660	22.5540
 1.6670	22.5670
 1.6680	22.5820
 1.6690	22.5980
 1.6700	22.6160
 1.6710	22.6360
 1.6720	22.6540
 1.6730	22.6690
 1.6740	22.6800
 1.6750	22.6860
 1.6760	22.6890
 1.6770	22.6870
 1.6780	22.6800
 1.6790	22.6700
 1.6800	22.6540
 1.6810	22.6330
 1.6820	22.6110
 1.6830	22.5800
 1.6840	22.5440
 1.6850	22.5060
 1.6860	22.4610
 1.6870	22.4150
 1.6880	22.3670
 1.6890	22.3170
 1.6900	22.2640
 1.6910	22.2060
 1.6920	22.1480
 1.6930	22.0870
 1.6940	22.0250
 1.6950	21.9600
 1.6960	21.8950
 1.6970	21.8290
 1.6980	21.7620
 1.6990	21.6940
 1.7000	21.6280
 1.7010	21.5620
 1.7020	21.4950
 1.7030	21.4280
 1.7040	21.3610
 1.7050	21.2920
 1.7060	21.2240
 1.7070	21.1570
 1.7080	21.0900
 1.7090	21.0230
 1.7100	20.9600
 1.7110	20.8990
 1.7120	20.8410
 1.7130	20.7850
 1.7140	20.7300
 1.7150	20.6770
 1.7160	20.6250
 1.7170	20.5750
 1.7180	20.5260
 1.7190	20.4800
 1.7200	20.4370
 1.7210	20.3940
 1.7220	20.3510
 1.7230	20.3110
 1.7240	20.2710
 1.7250	20.2330
 1.7260	20.1990
 1.7270	20.1700
 1.7280	20.1470
 1.7290	20.1290
 1.7300	20.1140
 1.7310	20.1010
 1.7320	20.0920
 1.7330	20.0850
 1.7340	20.0850
 1.7350	20.0800
 1.7360	20.0760
 1.7370	20.0660
 1.7380	20.0530
 1.7390	20.0360
 1.7400	20.0150
 1.7410	19.9890
 1.7420	19.9560
 1.7430	19.9210
 1.7440	19.8800
 1.7450	19.8380
 1.7460	19.7950
 1.7470	19.7490
 1.7480	19.7000
 1.7490	19.6510
 1.7500	19.5990
 1.7510	19.5490
 1.7520	19.4980
 1.7530	19.4470
 1.7540	19.3960
 1.7550	19.3470
 1.7560	19.2990
 1.7570	19.2550
 1.7580	19.2120
 1.7590	19.1700
 1.7600	19.1310
 1.7610	19.0930
 1.7620	19.0590
 1.7630	19.0280
 1.7640	19.0000
 1.7650	18.9750
 1.7660	18.9530
 1.7670	18.9340
 1.7680	18.9150
 1.7690	18.8990
 1.7700	18.8820
 1.7710	18.8630
 1.7720	18.8470
 1.7730	18.8310
 1.7740	18.8160
 1.7750	18.8040
 1.7760	18.7900
 1.7770	18.7750
 1.7780	18.7600
 1.7790	18.7440
 1.7800	18.7290
 1.7810	18.7150
 1.7820	18.7030
 1.7830	18.6930
 1.7840	18.6820
 1.7850	18.6720
 1.7860	18.6650
 1.7870	18.6570
 1.7880	18.6520
 1.7890	18.6490
 1.7900	18.6440
 1.7910	18.6390
 1.7920	18.6350
 1.7930	18.6330
 1.7940	18.6310
 1.7950	18.6290
 1.7960	18.6290
 1.7970	18.6300
 1.7980	18.6310
 1.7990	18.6330
 1.8000	18.6370
 1.8010	18.6400
 1.8020	18.6420
 1.8030	18.6470
 1.8040	18.6530
 1.8050	18.6590
 1.8060	18.6670
 1.8070	18.6710
 1.8080	18.6730
 1.8090	18.6770
 1.8100	18.6800
 1.8110	18.6840
 1.8120	18.6860
 1.8130	18.6890
 1.8140	18.6900
 1.8150	18.6900
 1.8160	18.6940
 1.8170	18.6950
 1.8180	18.6970
 1.8190	18.7000
 1.8200	18.7020
 1.8210	18.7040
 1.8220	18.7050
 1.8230	18.7040
 1.8240	18.7020
 1.8250	18.6990
 1.8260	18.6970
 1.8270	18.6090
 1.8280	18.5220
 1.8290	18.4350
 1.8300	18.3470
 1.8310	18.2600
 1.8320	18.1730
 1.8330	18.0860
 1.8340	17.9980
 1.8350	17.9980
 1.8360	17.9750
 1.8370	17.9530
 1.8380	17.9250
 1.8390	17.8940
 1.8400	17.8610
 1.8410	17.8230
 1.8420	17.7800
 1.8430	17.7360
 1.8440	17.6850
 1.8450	17.6290
 1.8460	17.5690
 1.8470	17.5040
 1.8480	17.4360
 1.8490	17.3590
 1.8500	17.2750
 1.8510	17.1870
 1.8520	17.0900
 1.8530	16.9800
 1.8540	16.8690
 1.8550	16.7460
 1.8560	16.6140
 1.8570	16.4790
 1.8580	16.3360
 1.8590	16.1830
 1.8600	16.0220
 1.8610	15.8540
 1.8620	15.6750
 1.8630	15.4850
 1.8640	15.2880
 1.8650	15.0790
 1.8660	14.8620
 1.8670	14.6380
 1.8680	14.4030
 1.8690	14.1620
 1.8700	13.9150
 1.8710	13.6610
 1.8720	13.4040
 1.8730	13.1440
 1.8740	12.8820
 1.8750	12.6190
 1.8760	12.3540
 1.8770	12.0900
 1.8780	11.8280
 1.8790	11.5660
 1.8800	11.3110
 1.8810	11.0600
 1.8820	10.8140
 1.8830	10.5740
 1.8840	10.3430
 1.8850	10.1180
 1.8860	 9.8970
 1.8870	 9.6870
 1.8880	 9.4830
 1.8890	 9.2910
 1.8900	 9.1120
 1.8910	 8.9420
 1.8920	 8.7810
 1.8930	 8.6310
 1.8940	 8.4890
 1.8950	 8.3570
 1.8960	 8.2370
 1.8970	 8.1260
 1.8980	 8.0250
 1.8990	 7.9330
 1.9000	 7.8480
 1.9010	 7.7720
 1.9020	 7.7000
 1.9030	 7.6370
 1.9040	 7.5790
 1.9050	 7.5280
 1.9060	 7.4850
 1.9070	 7.4500
 1.9080	 7.4170
 1.9090	 7.3860
 1.9100	 7.3570
 1.9110	 7.3320
 1.9120	 7.3080
 1.9130	 7.2880
 1.9140	 7.2710
 1.9150	 7.2580
 1.9160	 7.2470
 1.9170	 7.2390
 1.9180	 7.2330
 1.9190	 7.2280
 1.9200	 7.2240
 1.9210	 7.2190
 1.9220	 7.2160
 1.9230	 7.2130
 1.9240	 7.2130
 1.9250	 7.2130
 1.9260	 7.2170
 1.9270	 7.2230
 1.9280	 7.2290
 1.9290	 7.2360
 1.9300	 7.2420
 1.9310	 7.2480
 1.9320	 7.2570
 1.9330	 7.2640
 1.9340	 7.2740
 1.9350	 7.2820
 1.9360	 7.2880
 1.9370	 7.2970
 1.9380	 7.3060
 1.9390	 7.3180
 1.9400	 7.3300
 1.9410	 7.3460
 1.9420	 7.3610
 1.9430	 7.3740
 1.9440	 7.3890
 1.9450	 7.4030
 1.9460	 7.4180
 1.9470	 7.4320
 1.9480	 7.4480
 1.9490	 7.4650
 1.9500	 7.4820
 1.9510	 7.4990
 1.9520	 7.5130
 1.9530	 7.5280
 1.9540	 7.5450
 1.9550	 7.5620
 1.9560	 7.5790
 1.9570	 7.5970
 1.9580	 7.6150
 1.9590	 7.6340
 1.9600	 7.6540
 1.9610	 7.6740
 1.9620	 7.6960
 1.9630	 7.7160
 1.9640	 7.7380
 1.9650	 7.7580
 1.9660	 7.7810
 1.9670	 7.8050
 1.9680	 7.8290
 1.9690	 7.8530
 1.9700	 7.8780
 1.9710	 7.9010
 1.9720	 7.9240
 1.9730	 7.9490
 1.9740	 7.9720
 1.9750	 7.9950
 1.9760	 8.0180
 1.9770	 8.0440
 1.9780	 8.0690
 1.9790	 8.0960
 1.9800	 8.1260
 1.9810	 8.1540
 1.9820	 8.1820
 1.9830	 8.2090
 1.9840	 8.2340
 1.9850	 8.2600
 1.9860	 8.2860
 1.9870	 8.3130
 1.9880	 8.3410
 1.9890	 8.3710
 1.9900	 8.4020
 1.9910	 8.4320
 1.9920	 8.4610
 1.9930	 8.4910
 1.9940	 8.5190
 1.9950	 8.5440
 1.9960	 8.5730
 1.9970	 8.6020
 1.9980	 8.6320
 1.9990	 8.6630
 2.0000	 8.6940
 2.0010	 8.7230
 2.0020	 8.7540
 2.0030	 8.7830
 2.0040	 8.8130
 2.0050	 8.8420
 2.0060	 8.8700
 2.0070	 8.8980
 2.0080	 8.9260
 2.0090	 8.9520
 2.0100	 8.9750
 2.0110	 9.0000
 2.0120	 9.0260
 2.0130	 9.0520
 2.0140	 9.0810
 2.0150	 9.1090
 2.0160	 9.1350
 2.0170	 9.1610
 2.0180	 9.1870
 2.0190	 9.2120
 2.0200	 9.2360
 2.0210	 9.2600
 2.0220	 9.2840
 2.0230	 9.3080
 2.0240	 9.3310
 2.0250	 9.3520
 2.0260	 9.3730
 2.0270	 9.3930
 2.0280	 9.4120
 2.0290	 9.4310
 2.0300	 9.4510
 2.0310	 9.4700
 2.0320	 9.4910
 2.0330	 9.5080
 2.0340	 9.5250
 2.0350	 9.5400
 2.0360	 9.5520
 2.0370	 9.5670
 2.0380	 9.5820
 2.0390	 9.5980
 2.0400	 9.6130
 2.0410	 9.6290
 2.0420	 9.6460
 2.0430	 9.6600
 2.0440	 9.6720
 2.0450	 9.6830
 2.0460	 9.6930
 2.0470	 9.6990
 2.0480	 9.7090
 2.0490	 9.7230
 2.0500	 9.7350
 2.0510	 9.7500
 2.0520	 9.7610
 2.0530	 9.7660
 2.0540	 9.7750
 2.0550	 9.7840
 2.0560	 9.7930
 2.0570	 9.8020
 2.0580	 9.8120
 2.0590	 9.8220
 2.0600	 9.8290
 2.0610	 9.8390
 2.0620	 9.8520
 2.0630	 9.8630
 2.0640	 9.8740
 2.0650	 9.8840
 2.0660	 9.8940
 2.0670	 9.9030
 2.0680	 9.9130
 2.0690	 9.9220
 2.0700	 9.9320
 2.0710	 9.9420
 2.0720	 9.9510
 2.0730	 9.9600
 2.0740	 9.9690
 2.0750	 9.9770
 2.0760	 9.9830
 2.0770	 9.9880
 2.0780	 9.9950
 2.0790	10.0030
 2.0800	10.0120
 2.0810	10.0250
 2.0820	10.0360
 2.0830	10.0490
 2.0840	10.0600
 2.0850	10.0690
 2.0860	10.0790
 2.0870	10.0880
 2.0880	10.0940
 2.0890	10.1030
 2.0900	10.1130
 2.0910	10.1230
 2.0920	10.1340
 2.0930	10.1450
 2.0940	10.1560
 2.0950	10.1650
 2.0960	10.1690
 2.0970	10.1770
 2.0980	10.1860
 2.0990	10.1960
 2.1000	10.2070
 2.1010	10.2180
 2.1020	10.2280
 2.1030	10.2390
 2.1040	10.2510
 2.1050	10.2640
 2.1060	10.2740
 2.1070	10.2830
 2.1080	10.2910
 2.1090	10.2970
 2.1100	10.3050
 2.1110	10.3140
 2.1120	10.3240
 2.1130	10.3360
 2.1140	10.3460
 2.1150	10.3550
 2.1160	10.3640
 2.1170	10.3710
 2.1180	10.3780
 2.1190	10.3880
 2.1200	10.3950
 2.1210	10.4010
 2.1220	10.4060
 2.1230	10.4110
 2.1240	10.4130
 2.1250	10.4190
 2.1260	10.4300
 2.1270	10.4370
 2.1280	10.4450
 2.1290	10.4520
 2.1300	10.4590
 2.1310	10.4660
 2.1320	10.4750
 2.1330	10.4840
 2.1340	10.4930
 2.1350	10.5030
 2.1360	10.5160
 2.1370	10.5280
 2.1380	10.5400
 2.1390	10.5520
 2.1400	10.5640
 2.1410	10.5760
 2.1420	10.5880
 2.1430	10.5970
 2.1440	10.6100
 2.1450	10.6230
 2.1460	10.6380
 2.1470	10.6560
 2.1480	10.6710
 2.1490	10.6840
 2.1500	10.6980
 2.1510	10.7090
 2.1520	10.7220
 2.1530	10.7370
 2.1540	10.7510
 2.1550	10.7670
 2.1560	10.7810
 2.1570	10.7960
 2.1580	10.8100
 2.1590	10.8240
 2.1600	10.8370
 2.1610	10.8500
 2.1620	10.8630
 2.1630	10.8760
 2.1640	10.8900
 2.1650	10.9010
 2.1660	10.9120
 2.1670	10.9220
 2.1680	10.9300
 2.1690	10.9410
 2.1700	10.9530
 2.1710	10.9640
 2.1720	10.9730
 2.1730	10.9840
 2.1740	10.9950
 2.1750	11.0070
 2.1760	11.0210
 2.1770	11.0340
 2.1780	11.0470
 2.1790	11.0590
 2.1800	11.0710
 2.1810	11.0830
 2.1820	11.0940
 2.1830	11.1060
 2.1840	11.1170
 2.1850	11.1280
 2.1860	11.1370
 2.1870	11.1450
 2.1880	11.1550
 2.1890	11.1640
 2.1900	11.1760
 2.1910	11.1930
 2.1920	11.2050
 2.1930	11.2150
 2.1940	11.2280
 2.1950	11.2400
 2.1960	11.2510
 2.1970	11.2630
 2.1980	11.2750
 2.1990	11.2830
 2.2000	11.2920
 2.2010	11.3020
 2.2020	11.3110
 2.2030	11.3190
 2.2040	11.3280
 2.2050	11.3380
 2.2060	11.3490
 2.2070	11.3560
 2.2080	11.3620
 2.2090	11.3660
 2.2100	11.3670
 2.2110	11.3710
 2.2120	11.3760
 2.2130	11.3840
 2.2140	11.3960
 2.2150	11.4030
 2.2160	11.4120
 2.2170	11.4170
 2.2180	11.4210
 2.2190	11.4210
 2.2200	11.4170
 2.2210	11.4130
 2.2220	11.4060
 2.2230	11.4000
 2.2240	11.3960
 2.2250	11.3920
 2.2260	11.3910
 2.2270	11.3850
 2.2280	11.3770
 2.2290	11.3660
 2.2300	11.3510
 2.2310	11.3330
 2.2320	11.3170
 2.2330	11.3010
 2.2340	11.2830
 2.2350	11.2620
 2.2360	11.2430
 2.2370	11.2210
 2.2380	11.1990
 2.2390	11.1800
 2.2400	11.1520
 2.2410	11.1210
 2.2420	11.0870
 2.2430	11.0460
 2.2440	11.0110
 2.2450	10.9770
 2.2460	10.9410
 2.2470	10.9080
 2.2480	10.8700
 2.2490	10.8280
 2.2500	10.7870
 2.2510	10.7440
 2.2520	10.7020
 2.2530	10.6580
 2.2540	10.6160
 2.2550	10.5760
 2.2560	10.5340
 2.2570	10.4890
 2.2580	10.4470
 2.2590	10.4030
 2.2600	10.3600
 2.2610	10.3180
 2.2620	10.2790
 2.2630	10.2440
 2.2640	10.2070
 2.2650	10.1680
 2.2660	10.1340
 2.2670	10.0960
 2.2680	10.0550
 2.2690	10.0200
 2.2700	 9.9870
 2.2710	 9.9540
 2.2720	 9.9220
 2.2730	 9.8910
 2.2740	 9.8590
 2.2750	 9.8290
 2.2760	 9.8020
 2.2770	 9.7730
 2.2780	 9.7420
 2.2790	 9.7150
 2.2800	 9.6880
 2.2810	 9.6620
 2.2820	 9.6420
 2.2830	 9.6150
 2.2840	 9.5850
 2.2850	 9.5550
 2.2860	 9.5200
 2.2870	 9.4880
 2.2880	 9.4560
 2.2890	 9.4250
 2.2900	 9.3950
 2.2910	 9.3650
 2.2920	 9.3400
 2.2930	 9.3090
 2.2940	 9.2740
 2.2950	 9.2390
 2.2960	 9.1960
 2.2970	 9.1600
 2.2980	 9.1270
 2.2990	 9.0930
 2.3000	 9.0620
 2.3010	 9.0330
 2.3020	 9.0040
 2.3030	 8.9730
 2.3040	 8.9440
 2.3050	 8.9190
 2.3060	 8.8970
 2.3070	 8.8800
 2.3080	 8.8660
 2.3090	 8.8540
 2.3100	 8.8470
 2.3110	 8.8460
 2.3120	 8.8470
 2.3130	 8.8560
 2.3140	 8.8620
 2.3150	 8.8690
 2.3160	 8.8800
 2.3170	 8.8960
 2.3180	 8.9080
 2.3190	 8.9220
 2.3200	 8.9290
 2.3210	 8.9310
 2.3220	 8.9350
 2.3230	 8.9390
 2.3240	 8.9400
 2.3250	 8.9390
 2.3260	 8.9340
 2.3270	 8.9230
 2.3280	 8.9120
 2.3290	 8.8990
 2.3300	 8.8870
 2.3310	 8.8730
 2.3320	 8.8600
 2.3330	 8.8470
 2.3340	 8.8330
 2.3350	 8.8210
 2.3360	 8.8070
 2.3370	 8.7900
 2.3380	 8.7750
 2.3390	 8.7620
 2.3400	 8.7420
 2.3410	 8.7130
 2.3420	 8.6940
 2.3430	 8.6710
 2.3440	 8.6520
 2.3450	 8.6440
 2.3460	 8.6320
 2.3470	 8.6160
 2.3480	 8.6070
 2.3490	 8.6050
 2.3500	 8.5990
 2.3510	 8.5940
 2.3520	 8.5900
 2.3530	 8.5840
 2.3540	 8.5800
 2.3550	 8.5820
 2.3560	 8.5830
 2.3570	 8.5770
 2.3580	 8.5760
 2.3590	 8.5740
 2.3600	 8.5640
 2.3610	 8.5610
 2.3620	 8.5550
 2.3630	 8.5460
 2.3640	 8.5440
 2.3650	 8.5430
 2.3660	 8.5350
 2.3670	 8.5260
 2.3680	 8.5120
 2.3690	 8.4980
 2.3700	 8.4910
 2.3710	 8.4770
 2.3720	 8.4690
 2.3730	 8.4580
 2.3740	 8.4350
 2.3750	 8.4250
 2.3760	 8.4120
 2.3770	 8.3950
 2.3780	 8.3900
 2.3790	 8.3870
 2.3800	 8.3850
 2.3810	 8.3810
 2.3820	 8.3730
 2.3830	 8.3590
 2.3840	 8.3440
 2.3850	 8.3240
 2.3860	 8.3050
 2.3870	 8.2930
 2.3880	 8.2810
 2.3890	 8.2750
 2.3900	 8.2730
 2.3910	 8.2600
 2.3920	 8.2490
 2.3930	 8.2440
 2.3940	 8.2350
 2.3950	 8.2180
 2.3960	 8.1920
 2.3970	 8.1660
 2.3980	 8.1400
 2.3990	 8.1320
 2.4000	 8.1310
 2.4010	 8.1180
 2.4020	 8.1080
 2.4030	 8.0870
 2.4040	 8.0720
 2.4050	 8.0640
 2.4060	 8.0450
 2.4070	 8.0300
 2.4080	 8.0150
 2.4090	 8.0120
 2.4100	 8.0110
 2.4110	 8.0010
 2.4120	 7.9930
 2.4130	 7.9760
 2.4140	 7.9560
 2.4150	 7.9440
 2.4160	 7.9280
 2.4170	 7.9100
 2.4180	 7.9000
 2.4190	 7.8960
 2.4200	 7.8870
 2.4210	 7.8790
 2.4220	 7.8720
 2.4230	 7.8500
 2.4240	 7.8320
 2.4250	 7.8160
 2.4260	 7.8030
 2.4270	 7.8010
 2.4280	 7.8020
 2.4290	 7.8060
 2.4300	 7.7980
 2.4310	 7.7710
 2.4320	 7.7350
 2.4330	 7.7170
 2.4340	 7.7050
 2.4350	 7.6820
 2.4360	 7.6810
 2.4370	 7.6700
 2.4380	 7.6500
 2.4390	 7.6520
 2.4400	 7.6420
 2.4410	 7.6200
 2.4420	 7.6020
 2.4430	 7.5830
 2.4440	 7.5750
 2.4450	 7.5670
 2.4460	 7.5330
 2.4470	 7.5060
 2.4480	 7.4880
 2.4490	 7.4730
 2.4500	 7.4780
 2.4510	 7.4760
 2.4520	 7.4690
 2.4530	 7.4610
 2.4540	 7.4360
 2.4550	 7.4190
 2.4560	 7.4050
 2.4570	 7.3870
 2.4580	 7.3870
 2.4590	 7.3780
 2.4600	 7.3650
 2.4610	 7.3670
 2.4620	 7.3620
 2.4630	 7.3530
 2.4640	 7.3440
 2.4650	 7.3350
 2.4660	 7.3240
 2.4670	 7.3270
 2.4680	 7.3240
 2.4690	 7.3010
 2.4700	 7.2850
 2.4710	 7.2700
 2.4720	 7.2550
 2.4730	 7.2350
 2.4740	 7.2150
 2.4750	 7.1950
 2.4760	 7.1750
 2.4770	 7.1610
 2.4780	 7.1500
 2.4790	 7.1360
 2.4800	 7.1170
 2.4810	 7.0870
 2.4820	 7.0860
 2.4830	 7.1130
 2.4840	 7.1410
 2.4850	 7.1550
 2.4860	 7.1790
 2.4870	 7.1810
 2.4880	 7.1630
 2.4890	 7.1530
 2.4900	 7.1180
 2.4910	 7.0710
 2.4920	 7.0330
 2.4930	 7.0080
 2.4940	 7.0020
 2.4950	 7.0120
 2.4960	 7.0310
 2.4970	 7.0560
 2.4980	 7.0780
 2.4990	 7.0910
 2.5000	 7.0920
