Name: Aloe bainesii
Type: vegetation
Class: Tree
Genus: Aloe
Species: bainesii
Sample No.: JPL058
Owner: JPL
Wavelength Range: VSWIR
Origin: 34.12733; - 118.111; WGS84
Collection Date: 2/2/2016
Description: Samples were collected at the Huntington Garden in San Marino California as part of a JPL Subcontract studying HyTES imagery. Samples were taken to JPL and processed within 48 hours of collection. The same leaves were processed in the Nicolet and then measured using the ASD.
Measurement: Bidirectional reflectance
First Column: X
Second Column: Y
X Units: Wavelength (micrometer)
Y Units: Reflectance (percentage)
First X Value: 0.35
Last X Value: 2.5
Number of X Values: 2151
Additional Information: 

 0.3500	10.8820
 0.3510	13.7450
 0.3520	15.7680
 0.3530	14.2990
 0.3540	 9.1950
 0.3550	 6.7520
 0.3560	 9.0890
 0.3570	12.2420
 0.3580	10.9360
 0.3590	 7.4280
 0.3600	 6.3630
 0.3610	 8.4930
 0.3620	 9.8350
 0.3630	 9.4930
 0.3640	 8.8180
 0.3650	 9.3000
 0.3660	 9.6950
 0.3670	 9.5720
 0.3680	 8.8420
 0.3690	 7.9670
 0.3700	 9.5830
 0.3710	10.5960
 0.3720	 9.6040
 0.3730	 9.0560
 0.3740	 8.0920
 0.3750	 8.0900
 0.3760	10.1700
 0.3770	11.0540
 0.3780	11.0080
 0.3790	10.5360
 0.3800	10.1910
 0.3810	 9.3820
 0.3820	 8.6440
 0.3830	 8.5540
 0.3840	 9.0780
 0.3850	 9.6950
 0.3860	 8.9810
 0.3870	 6.4820
 0.3880	 9.4490
 0.3890	11.3390
 0.3900	10.0640
 0.3910	 8.2010
 0.3920	 9.1730
 0.3930	10.4150
 0.3940	 9.6730
 0.3950	 9.1070
 0.3960	 9.6240
 0.3970	10.4690
 0.3980	10.3430
 0.3990	10.5680
 0.4000	10.4020
 0.4010	 9.7910
 0.4020	 9.7940
 0.4030	 9.9920
 0.4040	10.0090
 0.4050	 9.7120
 0.4060	 9.7390
 0.4070	 9.7070
 0.4080	 9.6740
 0.4090	 9.9400
 0.4100	10.0280
 0.4110	10.2720
 0.4120	10.6300
 0.4130	10.0990
 0.4140	10.4570
 0.4150	11.1040
 0.4160	10.9610
 0.4170	10.4880
 0.4180	10.2960
 0.4190	10.4040
 0.4200	10.3000
 0.4210	10.4940
 0.4220	10.6890
 0.4230	10.6370
 0.4240	10.5280
 0.4250	10.5290
 0.4260	10.6760
 0.4270	10.8960
 0.4280	10.9120
 0.4290	10.7780
 0.4300	10.7120
 0.4310	11.1220
 0.4320	11.2240
 0.4330	11.1130
 0.4340	11.0580
 0.4350	11.0350
 0.4360	11.1450
 0.4370	11.3290
 0.4380	11.4080
 0.4390	11.4010
 0.4400	11.4650
 0.4410	11.6290
 0.4420	11.5630
 0.4430	11.6680
 0.4440	11.8640
 0.4450	11.9180
 0.4460	11.9550
 0.4470	12.0310
 0.4480	12.1200
 0.4490	12.1170
 0.4500	12.2360
 0.4510	12.3400
 0.4520	12.3300
 0.4530	12.5040
 0.4540	12.6220
 0.4550	12.5670
 0.4560	12.3630
 0.4570	12.5600
 0.4580	12.8130
 0.4590	12.8540
 0.4600	12.7740
 0.4610	12.6770
 0.4620	12.6710
 0.4630	12.8100
 0.4640	12.9160
 0.4650	12.9570
 0.4660	12.9650
 0.4670	13.0270
 0.4680	13.1330
 0.4690	13.1440
 0.4700	13.0520
 0.4710	13.3200
 0.4720	13.3930
 0.4730	13.3220
 0.4740	13.4300
 0.4750	13.3310
 0.4760	13.2180
 0.4770	13.2400
 0.4780	13.3910
 0.4790	13.4690
 0.4800	13.5100
 0.4810	13.5900
 0.4820	13.5960
 0.4830	13.5060
 0.4840	13.4440
 0.4850	13.6270
 0.4860	13.6530
 0.4870	13.6180
 0.4880	13.6520
 0.4890	13.7620
 0.4900	13.7910
 0.4910	13.7770
 0.4920	13.8370
 0.4930	13.8590
 0.4940	13.9310
 0.4950	14.0960
 0.4960	14.3160
 0.4970	14.4170
 0.4980	14.4530
 0.4990	14.5040
 0.5000	14.4040
 0.5010	14.5500
 0.5020	14.8670
 0.5030	14.9270
 0.5040	15.1710
 0.5050	15.3520
 0.5060	15.3460
 0.5070	15.5790
 0.5080	15.8080
 0.5090	15.9850
 0.5100	16.1620
 0.5110	16.4540
 0.5120	16.6990
 0.5130	16.8760
 0.5140	17.1820
 0.5150	17.4300
 0.5160	17.6880
 0.5170	18.0500
 0.5180	18.4550
 0.5190	18.7450
 0.5200	18.9390
 0.5210	19.1960
 0.5220	19.5980
 0.5230	20.0220
 0.5240	20.3660
 0.5250	20.6380
 0.5260	20.9930
 0.5270	21.3640
 0.5280	21.6190
 0.5290	21.9090
 0.5300	22.2060
 0.5310	22.4790
 0.5320	22.7040
 0.5330	22.9300
 0.5340	23.2160
 0.5350	23.5600
 0.5360	23.7600
 0.5370	23.9530
 0.5380	24.1820
 0.5390	24.4190
 0.5400	24.6470
 0.5410	24.9270
 0.5420	25.2710
 0.5430	25.6080
 0.5440	25.7860
 0.5450	25.8420
 0.5460	25.8860
 0.5470	25.9460
 0.5480	26.0090
 0.5490	26.0960
 0.5500	26.2830
 0.5510	26.3780
 0.5520	26.4290
 0.5530	26.5100
 0.5540	26.5510
 0.5550	26.5690
 0.5560	26.5690
 0.5570	26.5460
 0.5580	26.5340
 0.5590	26.4920
 0.5600	26.4300
 0.5610	26.5020
 0.5620	26.4780
 0.5630	26.4010
 0.5640	26.4020
 0.5650	26.4330
 0.5660	26.4180
 0.5670	26.3410
 0.5680	26.2570
 0.5690	26.1490
 0.5700	26.0050
 0.5710	25.8430
 0.5720	25.7760
 0.5730	25.6750
 0.5740	25.5370
 0.5750	25.4410
 0.5760	25.3690
 0.5770	25.3060
 0.5780	25.2460
 0.5790	25.2000
 0.5800	25.1470
 0.5810	25.0950
 0.5820	25.0570
 0.5830	25.0270
 0.5840	24.9400
 0.5850	24.8190
 0.5860	24.7830
 0.5870	24.7210
 0.5880	24.7000
 0.5890	24.7540
 0.5900	24.7020
 0.5910	24.6140
 0.5920	24.5430
 0.5930	24.5290
 0.5940	24.5540
 0.5950	24.5640
 0.5960	24.5320
 0.5970	24.4850
 0.5980	24.4190
 0.5990	24.3730
 0.6000	24.3840
 0.6010	24.4550
 0.6020	24.4050
 0.6030	24.2470
 0.6040	24.1810
 0.6050	24.1480
 0.6060	24.0840
 0.6070	23.9580
 0.6080	23.8240
 0.6090	23.7020
 0.6100	23.6140
 0.6110	23.5670
 0.6120	23.4970
 0.6130	23.3300
 0.6140	23.0740
 0.6150	22.8570
 0.6160	22.6140
 0.6170	22.4110
 0.6180	22.3080
 0.6190	22.2170
 0.6200	22.1340
 0.6210	22.0510
 0.6220	21.9540
 0.6230	21.8550
 0.6240	21.7640
 0.6250	21.7020
 0.6260	21.7280
 0.6270	21.6700
 0.6280	21.5760
 0.6290	21.5690
 0.6300	21.6530
 0.6310	21.6800
 0.6320	21.6120
 0.6330	21.5460
 0.6340	21.4790
 0.6350	21.4200
 0.6360	21.3560
 0.6370	21.2350
 0.6380	21.1150
 0.6390	20.9810
 0.6400	20.7890
 0.6410	20.6640
 0.6420	20.5170
 0.6430	20.3090
 0.6440	20.1200
 0.6450	19.9160
 0.6460	19.7090
 0.6470	19.5180
 0.6480	19.3700
 0.6490	19.1810
 0.6500	18.9800
 0.6510	18.8860
 0.6520	18.7820
 0.6530	18.6820
 0.6540	18.5930
 0.6550	18.4730
 0.6560	18.3380
 0.6570	18.1710
 0.6580	17.9530
 0.6590	17.7440
 0.6600	17.5580
 0.6610	17.3690
 0.6620	17.1130
 0.6630	16.8280
 0.6640	16.5900
 0.6650	16.4310
 0.6660	16.2580
 0.6670	16.0890
 0.6680	15.9280
 0.6690	15.7800
 0.6700	15.6740
 0.6710	15.6010
 0.6720	15.5500
 0.6730	15.5190
 0.6740	15.4900
 0.6750	15.4740
 0.6760	15.4850
 0.6770	15.5250
 0.6780	15.5430
 0.6790	15.5580
 0.6800	15.6300
 0.6810	15.7650
 0.6820	15.9140
 0.6830	16.0790
 0.6840	16.3610
 0.6850	16.7060
 0.6860	17.1300
 0.6870	17.6610
 0.6880	18.2750
 0.6890	18.9720
 0.6900	19.7900
 0.6910	20.7840
 0.6920	21.8430
 0.6930	22.9690
 0.6940	24.1830
 0.6950	25.5060
 0.6960	26.9260
 0.6970	28.3990
 0.6980	29.8820
 0.6990	31.4420
 0.7000	32.9880
 0.7010	34.4950
 0.7020	36.0140
 0.7030	37.5910
 0.7040	39.1310
 0.7050	40.5750
 0.7060	42.0200
 0.7070	43.4280
 0.7080	44.8140
 0.7090	46.2050
 0.7100	47.5560
 0.7110	48.8840
 0.7120	50.1980
 0.7130	51.4990
 0.7140	52.7840
 0.7150	54.0690
 0.7160	55.3600
 0.7170	56.6300
 0.7180	57.8620
 0.7190	59.0630
 0.7200	60.2570
 0.7210	61.4500
 0.7220	62.6330
 0.7230	63.7790
 0.7240	64.8650
 0.7250	65.9210
 0.7260	66.9180
 0.7270	67.8550
 0.7280	68.8290
 0.7290	69.7310
 0.7300	70.5510
 0.7310	71.3230
 0.7320	72.0850
 0.7330	72.8050
 0.7340	73.4650
 0.7350	74.0790
 0.7360	74.6760
 0.7370	75.2550
 0.7380	75.7900
 0.7390	76.2170
 0.7400	76.6670
 0.7410	77.1210
 0.7420	77.5150
 0.7430	77.9010
 0.7440	78.2650
 0.7450	78.5990
 0.7460	78.9010
 0.7470	79.1400
 0.7480	79.3790
 0.7490	79.6450
 0.7500	79.8370
 0.7510	80.0060
 0.7520	80.1610
 0.7530	80.3000
 0.7540	80.4570
 0.7550	80.6050
 0.7560	80.7310
 0.7570	80.8320
 0.7580	80.9210
 0.7590	80.9830
 0.7600	81.0280
 0.7610	81.1220
 0.7620	81.2070
 0.7630	81.2760
 0.7640	81.3310
 0.7650	81.3630
 0.7660	81.4410
 0.7670	81.5200
 0.7680	81.5020
 0.7690	81.5060
 0.7700	81.5620
 0.7710	81.6520
 0.7720	81.7150
 0.7730	81.7350
 0.7740	81.7620
 0.7750	81.8250
 0.7760	81.8210
 0.7770	81.8370
 0.7780	81.8850
 0.7790	81.9300
 0.7800	81.9180
 0.7810	81.9180
 0.7820	81.9440
 0.7830	81.9510
 0.7840	82.0350
 0.7850	82.1010
 0.7860	82.0970
 0.7870	82.1460
 0.7880	82.1210
 0.7890	82.0840
 0.7900	82.1270
 0.7910	82.1720
 0.7920	82.2660
 0.7930	82.3370
 0.7940	82.2690
 0.7950	82.2730
 0.7960	82.3130
 0.7970	82.3430
 0.7980	82.3530
 0.7990	82.3690
 0.8000	82.3810
 0.8010	82.3780
 0.8020	82.3580
 0.8030	82.3940
 0.8040	82.4470
 0.8050	82.4570
 0.8060	82.5340
 0.8070	82.5750
 0.8080	82.5460
 0.8090	82.5020
 0.8100	82.5820
 0.8110	82.6810
 0.8120	82.7120
 0.8130	82.6800
 0.8140	82.6330
 0.8150	82.6350
 0.8160	82.6940
 0.8170	82.6610
 0.8180	82.6490
 0.8190	82.6470
 0.8200	82.6070
 0.8210	82.6520
 0.8220	82.6810
 0.8230	82.6520
 0.8240	82.5940
 0.8250	82.5600
 0.8260	82.5650
 0.8270	82.5790
 0.8280	82.5170
 0.8290	82.3820
 0.8300	82.2730
 0.8310	82.2650
 0.8320	82.3040
 0.8330	82.2890
 0.8340	82.2310
 0.8350	82.1830
 0.8360	82.1190
 0.8370	82.1370
 0.8380	82.1800
 0.8390	82.0910
 0.8400	82.0770
 0.8410	82.1110
 0.8420	82.1440
 0.8430	82.1480
 0.8440	82.1510
 0.8450	82.1350
 0.8460	82.0970
 0.8470	82.0930
 0.8480	82.1000
 0.8490	82.1400
 0.8500	82.2120
 0.8510	82.1600
 0.8520	82.0880
 0.8530	82.0580
 0.8540	82.0840
 0.8550	82.0690
 0.8560	82.0700
 0.8570	82.0860
 0.8580	82.0560
 0.8590	82.0680
 0.8600	82.1040
 0.8610	82.1110
 0.8620	82.0170
 0.8630	81.9710
 0.8640	81.9830
 0.8650	82.0060
 0.8660	81.9320
 0.8670	81.9280
 0.8680	81.8980
 0.8690	81.7410
 0.8700	81.7660
 0.8710	81.8340
 0.8720	81.8360
 0.8730	81.7290
 0.8740	81.6980
 0.8750	81.7180
 0.8760	81.7100
 0.8770	81.5850
 0.8780	81.4900
 0.8790	81.4160
 0.8800	81.3700
 0.8810	81.4100
 0.8820	81.3530
 0.8830	81.3120
 0.8840	81.3430
 0.8850	81.2470
 0.8860	81.0440
 0.8870	80.9470
 0.8880	81.0620
 0.8890	80.9460
 0.8900	80.8910
 0.8910	80.8950
 0.8920	80.8470
 0.8930	80.7810
 0.8940	80.6500
 0.8950	80.5560
 0.8960	80.6390
 0.8970	80.6740
 0.8980	80.5890
 0.8990	80.4280
 0.9000	80.3210
 0.9010	80.3310
 0.9020	80.3470
 0.9030	80.2720
 0.9040	80.0870
 0.9050	80.0140
 0.9060	79.9410
 0.9070	79.8110
 0.9080	79.7870
 0.9090	79.8030
 0.9100	79.8020
 0.9110	79.7160
 0.9120	79.4420
 0.9130	79.4070
 0.9140	79.4290
 0.9150	79.2620
 0.9160	79.2140
 0.9170	79.0540
 0.9180	78.8380
 0.9190	78.7070
 0.9200	78.5420
 0.9210	78.4290
 0.9220	78.2810
 0.9230	77.9850
 0.9240	77.8950
 0.9250	77.8320
 0.9260	77.6420
 0.9270	77.2670
 0.9280	76.9550
 0.9290	76.8340
 0.9300	76.7560
 0.9310	76.3810
 0.9320	76.0100
 0.9330	75.6860
 0.9340	75.4260
 0.9350	75.2310
 0.9360	74.9550
 0.9370	74.6700
 0.9380	74.3780
 0.9390	73.9290
 0.9400	73.6860
 0.9410	73.3920
 0.9420	72.9210
 0.9430	72.5720
 0.9440	72.2390
 0.9450	71.8340
 0.9460	71.3170
 0.9470	70.7380
 0.9480	70.1680
 0.9490	69.7870
 0.9500	69.5670
 0.9510	68.9340
 0.9520	68.4070
 0.9530	67.9170
 0.9540	67.3100
 0.9550	66.7230
 0.9560	66.2920
 0.9570	65.9210
 0.9580	65.4820
 0.9590	64.9980
 0.9600	64.6670
 0.9610	64.4210
 0.9620	64.1260
 0.9630	63.8150
 0.9640	63.5120
 0.9650	63.4500
 0.9660	63.7160
 0.9670	63.5600
 0.9680	63.2870
 0.9690	63.1090
 0.9700	63.0840
 0.9710	62.8960
 0.9720	62.8320
 0.9730	62.9580
 0.9740	63.1550
 0.9750	63.0650
 0.9760	62.8860
 0.9770	62.7630
 0.9780	62.7500
 0.9790	62.7550
 0.9800	62.6320
 0.9810	62.5730
 0.9820	62.8160
 0.9830	63.0060
 0.9840	62.9820
 0.9850	62.9220
 0.9860	63.0660
 0.9870	63.0260
 0.9880	63.1190
 0.9890	63.1610
 0.9900	62.9300
 0.9910	63.2850
 0.9920	63.4360
 0.9930	63.4430
 0.9940	63.7070
 0.9950	63.9420
 0.9960	64.0880
 0.9970	64.2320
 0.9980	64.4640
 0.9990	64.5720
 1.0000	64.6910
 1.0010	62.4590
 1.0020	62.6540
 1.0030	62.8150
 1.0040	63.0600
 1.0050	63.2600
 1.0060	63.3500
 1.0070	63.5620
 1.0080	63.7640
 1.0090	63.9580
 1.0100	64.1680
 1.0110	64.4660
 1.0120	64.6660
 1.0130	64.8210
 1.0140	64.9840
 1.0150	65.1290
 1.0160	65.2290
 1.0170	65.3330
 1.0180	65.4470
 1.0190	65.6040
 1.0200	65.7840
 1.0210	65.9950
 1.0220	66.2900
 1.0230	66.5350
 1.0240	66.7980
 1.0250	67.0080
 1.0260	67.2020
 1.0270	67.3630
 1.0280	67.4340
 1.0290	67.5880
 1.0300	67.7490
 1.0310	67.9310
 1.0320	68.1600
 1.0330	68.4290
 1.0340	68.5700
 1.0350	68.7340
 1.0360	68.8660
 1.0370	69.0060
 1.0380	69.1730
 1.0390	69.4330
 1.0400	69.5310
 1.0410	69.5390
 1.0420	69.6010
 1.0430	69.5320
 1.0440	69.6360
 1.0450	69.8950
 1.0460	70.0870
 1.0470	70.3760
 1.0480	70.5560
 1.0490	70.6490
 1.0500	70.7510
 1.0510	70.8250
 1.0520	70.8510
 1.0530	70.9180
 1.0540	70.9960
 1.0550	71.0650
 1.0560	71.1230
 1.0570	71.2060
 1.0580	71.3140
 1.0590	71.3910
 1.0600	71.4990
 1.0610	71.5430
 1.0620	71.4870
 1.0630	71.5160
 1.0640	71.5500
 1.0650	71.6030
 1.0660	71.7830
 1.0670	71.8480
 1.0680	71.8670
 1.0690	71.8280
 1.0700	71.8270
 1.0710	71.7680
 1.0720	71.7650
 1.0730	71.7950
 1.0740	71.8370
 1.0750	71.9100
 1.0760	71.9350
 1.0770	71.9780
 1.0780	71.9900
 1.0790	71.9840
 1.0800	71.9240
 1.0810	71.8320
 1.0820	71.7360
 1.0830	71.5300
 1.0840	71.4160
 1.0850	71.3990
 1.0860	71.3200
 1.0870	71.2420
 1.0880	71.1760
 1.0890	71.1140
 1.0900	71.0260
 1.0910	70.9530
 1.0920	70.9380
 1.0930	70.8460
 1.0940	70.7160
 1.0950	70.5760
 1.0960	70.3490
 1.0970	70.2240
 1.0980	70.1600
 1.0990	70.0540
 1.1000	70.0220
 1.1010	69.9190
 1.1020	69.7700
 1.1030	69.5570
 1.1040	69.3570
 1.1050	69.1470
 1.1060	68.9900
 1.1070	68.8520
 1.1080	68.7280
 1.1090	68.6670
 1.1100	68.5460
 1.1110	68.4120
 1.1120	68.2600
 1.1130	68.0490
 1.1140	67.8890
 1.1150	67.7810
 1.1160	67.6070
 1.1170	67.4500
 1.1180	67.2470
 1.1190	66.9750
 1.1200	66.6900
 1.1210	66.4540
 1.1220	66.1620
 1.1230	65.8760
 1.1240	65.5620
 1.1250	65.1900
 1.1260	64.7590
 1.1270	64.3240
 1.1280	63.8560
 1.1290	63.3780
 1.1300	62.9030
 1.1310	62.3690
 1.1320	61.8220
 1.1330	61.2040
 1.1340	60.5040
 1.1350	59.8190
 1.1360	59.1130
 1.1370	58.3540
 1.1380	57.6280
 1.1390	56.8930
 1.1400	56.1150
 1.1410	55.3460
 1.1420	54.6160
 1.1430	53.8890
 1.1440	53.2030
 1.1450	52.5570
 1.1460	51.9540
 1.1470	51.3640
 1.1480	50.8270
 1.1490	50.3510
 1.1500	49.8770
 1.1510	49.4220
 1.1520	49.0060
 1.1530	48.6020
 1.1540	48.2510
 1.1550	47.9420
 1.1560	47.6670
 1.1570	47.4170
 1.1580	47.2000
 1.1590	46.9880
 1.1600	46.8040
 1.1610	46.6270
 1.1620	46.4550
 1.1630	46.3130
 1.1640	46.1750
 1.1650	46.0670
 1.1660	46.0050
 1.1670	45.9090
 1.1680	45.8090
 1.1690	45.7280
 1.1700	45.6420
 1.1710	45.5740
 1.1720	45.5480
 1.1730	45.4850
 1.1740	45.4020
 1.1750	45.3250
 1.1760	45.2540
 1.1770	45.1840
 1.1780	45.1580
 1.1790	45.1190
 1.1800	45.0390
 1.1810	44.9640
 1.1820	44.8630
 1.1830	44.7440
 1.1840	44.6650
 1.1850	44.6180
 1.1860	44.5760
 1.1870	44.5240
 1.1880	44.4650
 1.1890	44.3860
 1.1900	44.3260
 1.1910	44.2670
 1.1920	44.2210
 1.1930	44.1950
 1.1940	44.1620
 1.1950	44.1270
 1.1960	44.0960
 1.1970	44.0900
 1.1980	44.0500
 1.1990	44.0300
 1.2000	44.0440
 1.2010	44.0070
 1.2020	44.0020
 1.2030	44.0270
 1.2040	44.0100
 1.2050	44.0190
 1.2060	44.0490
 1.2070	44.0550
 1.2080	44.0600
 1.2090	44.0820
 1.2100	44.1190
 1.2110	44.1490
 1.2120	44.1770
 1.2130	44.2170
 1.2140	44.2520
 1.2150	44.3020
 1.2160	44.3620
 1.2170	44.4490
 1.2180	44.5290
 1.2190	44.5780
 1.2200	44.6430
 1.2210	44.7160
 1.2220	44.7960
 1.2230	44.9190
 1.2240	45.0320
 1.2250	45.1350
 1.2260	45.2570
 1.2270	45.3520
 1.2280	45.4490
 1.2290	45.5380
 1.2300	45.5920
 1.2310	45.6620
 1.2320	45.7340
 1.2330	45.8090
 1.2340	45.8810
 1.2350	45.9610
 1.2360	46.0340
 1.2370	46.1010
 1.2380	46.1550
 1.2390	46.2320
 1.2400	46.2710
 1.2410	46.3270
 1.2420	46.3800
 1.2430	46.4140
 1.2440	46.4860
 1.2450	46.5210
 1.2460	46.5840
 1.2470	46.6880
 1.2480	46.7430
 1.2490	46.8030
 1.2500	46.8490
 1.2510	46.8650
 1.2520	46.8930
 1.2530	46.9270
 1.2540	46.9920
 1.2550	47.0490
 1.2560	47.0870
 1.2570	47.1510
 1.2580	47.1870
 1.2590	47.2020
 1.2600	47.1930
 1.2610	47.2040
 1.2620	47.2020
 1.2630	47.1990
 1.2640	47.2380
 1.2650	47.2730
 1.2660	47.2820
 1.2670	47.2780
 1.2680	47.2500
 1.2690	47.2020
 1.2700	47.1570
 1.2710	47.1410
 1.2720	47.1180
 1.2730	47.1020
 1.2740	47.0880
 1.2750	47.0090
 1.2760	46.9350
 1.2770	46.9030
 1.2780	46.8430
 1.2790	46.7990
 1.2800	46.7700
 1.2810	46.6860
 1.2820	46.6030
 1.2830	46.5100
 1.2840	46.3910
 1.2850	46.2820
 1.2860	46.1630
 1.2870	46.0630
 1.2880	45.9790
 1.2890	45.9170
 1.2900	45.8310
 1.2910	45.7350
 1.2920	45.6240
 1.2930	45.4700
 1.2940	45.3450
 1.2950	45.2160
 1.2960	45.0480
 1.2970	44.9140
 1.2980	44.7740
 1.2990	44.6300
 1.3000	44.5170
 1.3010	44.3580
 1.3020	44.1630
 1.3030	43.9630
 1.3040	43.7540
 1.3050	43.5780
 1.3060	43.3800
 1.3070	43.1410
 1.3080	42.9240
 1.3090	42.7100
 1.3100	42.4960
 1.3110	42.3000
 1.3120	42.0800
 1.3130	41.8200
 1.3140	41.5690
 1.3150	41.3130
 1.3160	41.0510
 1.3170	40.7880
 1.3180	40.5410
 1.3190	40.2680
 1.3200	39.9890
 1.3210	39.6890
 1.3220	39.3810
 1.3230	39.0830
 1.3240	38.7860
 1.3250	38.4940
 1.3260	38.1930
 1.3270	37.9060
 1.3280	37.6230
 1.3290	37.3440
 1.3300	37.0590
 1.3310	36.7560
 1.3320	36.4520
 1.3330	36.1530
 1.3340	35.8730
 1.3350	35.6060
 1.3360	35.3420
 1.3370	35.0720
 1.3380	34.7930
 1.3390	34.5320
 1.3400	34.2630
 1.3410	33.9980
 1.3420	33.7550
 1.3430	33.4960
 1.3440	33.2510
 1.3450	33.0150
 1.3460	32.7850
 1.3470	32.5600
 1.3480	32.3400
 1.3490	32.1320
 1.3500	31.9310
 1.3510	31.7440
 1.3520	31.5670
 1.3530	31.3780
 1.3540	31.1790
 1.3550	30.9870
 1.3560	30.7900
 1.3570	30.6030
 1.3580	30.4250
 1.3590	30.2450
 1.3600	30.0590
 1.3610	29.8520
 1.3620	29.6260
 1.3630	29.3930
 1.3640	29.1720
 1.3650	28.9580
 1.3660	28.7390
 1.3670	28.5190
 1.3680	28.2640
 1.3690	27.9780
 1.3700	27.6940
 1.3710	27.3950
 1.3720	27.0930
 1.3730	26.7950
 1.3740	26.4650
 1.3750	26.1140
 1.3760	25.7510
 1.3770	25.3580
 1.3780	24.9560
 1.3790	24.5640
 1.3800	24.1390
 1.3810	23.7020
 1.3820	23.2610
 1.3830	22.8040
 1.3840	22.3450
 1.3850	21.8850
 1.3860	21.4240
 1.3870	20.9510
 1.3880	20.4960
 1.3890	20.0460
 1.3900	19.5980
 1.3910	19.1720
 1.3920	18.7410
 1.3930	18.3250
 1.3940	17.9290
 1.3950	17.5400
 1.3960	17.1860
 1.3970	16.8360
 1.3980	16.5040
 1.3990	16.2040
 1.4000	15.8950
 1.4010	15.6210
 1.4020	15.3660
 1.4030	15.1070
 1.4040	14.8790
 1.4050	14.6710
 1.4060	14.4720
 1.4070	14.3080
 1.4080	14.1680
 1.4090	14.0240
 1.4100	13.8860
 1.4110	13.7520
 1.4120	13.6150
 1.4130	13.4920
 1.4140	13.3900
 1.4150	13.2920
 1.4160	13.2000
 1.4170	13.1150
 1.4180	13.0270
 1.4190	12.9490
 1.4200	12.8870
 1.4210	12.8290
 1.4220	12.7710
 1.4230	12.7180
 1.4240	12.6640
 1.4250	12.6110
 1.4260	12.5600
 1.4270	12.5140
 1.4280	12.4630
 1.4290	12.4220
 1.4300	12.3920
 1.4310	12.3600
 1.4320	12.3340
 1.4330	12.3080
 1.4340	12.2760
 1.4350	12.2540
 1.4360	12.2400
 1.4370	12.2240
 1.4380	12.2070
 1.4390	12.2000
 1.4400	12.1860
 1.4410	12.1770
 1.4420	12.1750
 1.4430	12.1560
 1.4440	12.1470
 1.4450	12.1350
 1.4460	12.1130
 1.4470	12.1080
 1.4480	12.0960
 1.4490	12.0860
 1.4500	12.1040
 1.4510	12.1110
 1.4520	12.1150
 1.4530	12.1240
 1.4540	12.1200
 1.4550	12.1250
 1.4560	12.1370
 1.4570	12.1390
 1.4580	12.1440
 1.4590	12.1470
 1.4600	12.1400
 1.4610	12.1330
 1.4620	12.1300
 1.4630	12.1330
 1.4640	12.1490
 1.4650	12.1790
 1.4660	12.2100
 1.4670	12.2440
 1.4680	12.2810
 1.4690	12.3170
 1.4700	12.3510
 1.4710	12.3810
 1.4720	12.4070
 1.4730	12.4400
 1.4740	12.4700
 1.4750	12.4940
 1.4760	12.5280
 1.4770	12.5520
 1.4780	12.5900
 1.4790	12.6310
 1.4800	12.6600
 1.4810	12.7170
 1.4820	12.7650
 1.4830	12.8010
 1.4840	12.8490
 1.4850	12.8890
 1.4860	12.9280
 1.4870	12.9830
 1.4880	13.0340
 1.4890	13.0790
 1.4900	13.1270
 1.4910	13.1770
 1.4920	13.2180
 1.4930	13.2550
 1.4940	13.2990
 1.4950	13.3360
 1.4960	13.3950
 1.4970	13.4790
 1.4980	13.5440
 1.4990	13.6030
 1.5000	13.6590
 1.5010	13.7050
 1.5020	13.7550
 1.5030	13.8040
 1.5040	13.8670
 1.5050	13.9310
 1.5060	13.9980
 1.5070	14.0870
 1.5080	14.1530
 1.5090	14.2120
 1.5100	14.2640
 1.5110	14.2980
 1.5120	14.3420
 1.5130	14.3960
 1.5140	14.4470
 1.5150	14.5230
 1.5160	14.6040
 1.5170	14.6730
 1.5180	14.7370
 1.5190	14.7970
 1.5200	14.8490
 1.5210	14.9080
 1.5220	14.9830
 1.5230	15.0620
 1.5240	15.1320
 1.5250	15.1920
 1.5260	15.2640
 1.5270	15.3340
 1.5280	15.4150
 1.5290	15.5040
 1.5300	15.5610
 1.5310	15.6140
 1.5320	15.6560
 1.5330	15.6920
 1.5340	15.7590
 1.5350	15.8250
 1.5360	15.8960
 1.5370	15.9790
 1.5380	16.0570
 1.5390	16.1430
 1.5400	16.2180
 1.5410	16.2800
 1.5420	16.3360
 1.5430	16.3890
 1.5440	16.4500
 1.5450	16.5100
 1.5460	16.5830
 1.5470	16.6570
 1.5480	16.7130
 1.5490	16.7900
 1.5500	16.8610
 1.5510	16.9270
 1.5520	17.0190
 1.5530	17.0900
 1.5540	17.1580
 1.5550	17.2150
 1.5560	17.2590
 1.5570	17.3110
 1.5580	17.3550
 1.5590	17.4260
 1.5600	17.4970
 1.5610	17.5610
 1.5620	17.6370
 1.5630	17.6840
 1.5640	17.7310
 1.5650	17.7860
 1.5660	17.8480
 1.5670	17.9430
 1.5680	18.0260
 1.5690	18.0970
 1.5700	18.1700
 1.5710	18.2260
 1.5720	18.2770
 1.5730	18.3280
 1.5740	18.3730
 1.5750	18.4200
 1.5760	18.4650
 1.5770	18.5250
 1.5780	18.5970
 1.5790	18.6480
 1.5800	18.7230
 1.5810	18.7880
 1.5820	18.8320
 1.5830	18.8920
 1.5840	18.9410
 1.5850	19.0100
 1.5860	19.0770
 1.5870	19.1350
 1.5880	19.1910
 1.5890	19.2310
 1.5900	19.2850
 1.5910	19.3300
 1.5920	19.3770
 1.5930	19.4290
 1.5940	19.4720
 1.5950	19.5420
 1.5960	19.6030
 1.5970	19.6410
 1.5980	19.6860
 1.5990	19.7190
 1.6000	19.7470
 1.6010	19.7940
 1.6020	19.8440
 1.6030	19.9020
 1.6040	19.9700
 1.6050	20.0310
 1.6060	20.0850
 1.6070	20.1360
 1.6080	20.1760
 1.6090	20.2200
 1.6100	20.2580
 1.6110	20.2800
 1.6120	20.3050
 1.6130	20.3310
 1.6140	20.3740
 1.6150	20.4160
 1.6160	20.4600
 1.6170	20.5080
 1.6180	20.5340
 1.6190	20.5640
 1.6200	20.6110
 1.6210	20.6580
 1.6220	20.7140
 1.6230	20.7760
 1.6240	20.8180
 1.6250	20.8550
 1.6260	20.8910
 1.6270	20.9140
 1.6280	20.9320
 1.6290	20.9560
 1.6300	20.9820
 1.6310	21.0030
 1.6320	21.0240
 1.6330	21.0490
 1.6340	21.0680
 1.6350	21.0960
 1.6360	21.1420
 1.6370	21.1740
 1.6380	21.1940
 1.6390	21.2450
 1.6400	21.3100
 1.6410	21.3590
 1.6420	21.4350
 1.6430	21.4600
 1.6440	21.4390
 1.6450	21.4330
 1.6460	21.4230
 1.6470	21.4350
 1.6480	21.4720
 1.6490	21.4940
 1.6500	21.5150
 1.6510	21.5300
 1.6520	21.5370
 1.6530	21.5530
 1.6540	21.5640
 1.6550	21.5800
 1.6560	21.6070
 1.6570	21.6070
 1.6580	21.6060
 1.6590	21.6260
 1.6600	21.6190
 1.6610	21.6210
 1.6620	21.6420
 1.6630	21.6390
 1.6640	21.6320
 1.6650	21.6420
 1.6660	21.6560
 1.6670	21.6610
 1.6680	21.6660
 1.6690	21.6770
 1.6700	21.6790
 1.6710	21.6690
 1.6720	21.6540
 1.6730	21.6230
 1.6740	21.5940
 1.6750	21.5820
 1.6760	21.5840
 1.6770	21.5950
 1.6780	21.5950
 1.6790	21.5900
 1.6800	21.5810
 1.6810	21.5660
 1.6820	21.5300
 1.6830	21.4660
 1.6840	21.4220
 1.6850	21.3860
 1.6860	21.3570
 1.6870	21.3520
 1.6880	21.3340
 1.6890	21.2800
 1.6900	21.2340
 1.6910	21.1790
 1.6920	21.1240
 1.6930	21.0700
 1.6940	21.0230
 1.6950	20.9790
 1.6960	20.9500
 1.6970	20.9460
 1.6980	20.9090
 1.6990	20.8640
 1.7000	20.8050
 1.7010	20.7150
 1.7020	20.6380
 1.7030	20.5600
 1.7040	20.4910
 1.7050	20.4180
 1.7060	20.3470
 1.7070	20.2890
 1.7080	20.2210
 1.7090	20.1500
 1.7100	20.0900
 1.7110	20.0360
 1.7120	19.9640
 1.7130	19.8910
 1.7140	19.8270
 1.7150	19.7400
 1.7160	19.6840
 1.7170	19.6380
 1.7180	19.5680
 1.7190	19.5220
 1.7200	19.4820
 1.7210	19.4280
 1.7220	19.3650
 1.7230	19.2980
 1.7240	19.2310
 1.7250	19.1660
 1.7260	19.1270
 1.7270	19.0950
 1.7280	19.0500
 1.7290	19.0130
 1.7300	18.9600
 1.7310	18.9190
 1.7320	18.8660
 1.7330	18.8450
 1.7340	18.8710
 1.7350	18.8670
 1.7360	18.8580
 1.7370	18.8610
 1.7380	18.8570
 1.7390	18.8480
 1.7400	18.8520
 1.7410	18.8570
 1.7420	18.8550
 1.7430	18.8360
 1.7440	18.8390
 1.7450	18.7990
 1.7460	18.7080
 1.7470	18.6460
 1.7480	18.5720
 1.7490	18.5260
 1.7500	18.5060
 1.7510	18.4630
 1.7520	18.4280
 1.7530	18.3770
 1.7540	18.3080
 1.7550	18.2400
 1.7560	18.1600
 1.7570	18.0860
 1.7580	18.0260
 1.7590	17.9830
 1.7600	17.9560
 1.7610	17.8720
 1.7620	17.8250
 1.7630	17.7840
 1.7640	17.7560
 1.7650	17.7750
 1.7660	17.7770
 1.7670	17.7850
 1.7680	17.7650
 1.7690	17.7140
 1.7700	17.6930
 1.7710	17.6670
 1.7720	17.6490
 1.7730	17.6710
 1.7740	17.6580
 1.7750	17.6180
 1.7760	17.5940
 1.7770	17.5640
 1.7780	17.5480
 1.7790	17.5540
 1.7800	17.5270
 1.7810	17.4870
 1.7820	17.4600
 1.7830	17.4110
 1.7840	17.3930
 1.7850	17.4020
 1.7860	17.3970
 1.7870	17.3870
 1.7880	17.4070
 1.7890	17.4270
 1.7900	17.4560
 1.7910	17.4540
 1.7920	17.3960
 1.7930	17.3720
 1.7940	17.3430
 1.7950	17.3340
 1.7960	17.3610
 1.7970	17.3780
 1.7980	17.4120
 1.7990	17.4190
 1.8000	17.4010
 1.8010	17.4010
 1.8020	17.3890
 1.8030	17.3920
 1.8040	17.4170
 1.8050	17.4360
 1.8060	17.4570
 1.8070	17.4620
 1.8080	17.4630
 1.8090	17.4640
 1.8100	17.4330
 1.8110	17.4810
 1.8120	17.5300
 1.8130	17.5520
 1.8140	17.5980
 1.8150	17.6100
 1.8160	17.5670
 1.8170	17.5400
 1.8180	17.5400
 1.8190	17.5220
 1.8200	17.5040
 1.8210	17.4720
 1.8220	17.4700
 1.8230	17.4880
 1.8240	17.4970
 1.8250	17.5560
 1.8260	17.5570
 1.8270	17.4850
 1.8280	17.4810
 1.8290	17.5020
 1.8300	17.4920
 1.8310	17.2880
 1.8320	17.2410
 1.8330	17.2530
 1.8340	17.2700
 1.8350	17.2360
 1.8360	17.2290
 1.8370	17.1780
 1.8380	17.0540
 1.8390	16.9780
 1.8400	16.8920
 1.8410	16.8350
 1.8420	16.7900
 1.8430	16.8090
 1.8440	16.8190
 1.8450	16.7630
 1.8460	16.6730
 1.8470	16.6100
 1.8480	16.4910
 1.8490	16.3800
 1.8500	16.2930
 1.8510	16.2340
 1.8520	16.1190
 1.8530	16.0490
 1.8540	16.0080
 1.8550	15.9470
 1.8560	15.8140
 1.8570	15.6320
 1.8580	15.4660
 1.8590	15.2960
 1.8600	15.0890
 1.8610	14.9350
 1.8620	14.8090
 1.8630	14.6360
 1.8640	14.4580
 1.8650	14.2820
 1.8660	14.0830
 1.8670	13.8880
 1.8680	13.7200
 1.8690	13.5510
 1.8700	13.3790
 1.8710	13.2290
 1.8720	13.0600
 1.8730	12.8710
 1.8740	12.6730
 1.8750	12.4330
 1.8760	12.2380
 1.8770	12.0080
 1.8780	11.7900
 1.8790	11.6650
 1.8800	11.5270
 1.8810	11.3960
 1.8820	11.3080
 1.8830	11.2030
 1.8840	11.0550
 1.8850	10.9180
 1.8860	10.7350
 1.8870	10.5760
 1.8880	10.4680
 1.8890	10.3440
 1.8900	10.2660
 1.8910	10.1670
 1.8920	10.0880
 1.8930	 9.9370
 1.8940	 9.7910
 1.8950	 9.6940
 1.8960	 9.5950
 1.8970	 9.5310
 1.8980	 9.5120
 1.8990	 9.4480
 1.9000	 9.4130
 1.9010	 9.3930
 1.9020	 9.3850
 1.9030	 9.3820
 1.9040	 9.4090
 1.9050	 9.4600
 1.9060	 9.4650
 1.9070	 9.4430
 1.9080	 9.4130
 1.9090	 9.3200
 1.9100	 9.2320
 1.9110	 9.2040
 1.9120	 9.2240
 1.9130	 9.2230
 1.9140	 9.2650
 1.9150	 9.2740
 1.9160	 9.2360
 1.9170	 9.2450
 1.9180	 9.2230
 1.9190	 9.2590
 1.9200	 9.3120
 1.9210	 9.2920
 1.9220	 9.2690
 1.9230	 9.2040
 1.9240	 9.1680
 1.9250	 9.1110
 1.9260	 9.0960
 1.9270	 9.1210
 1.9280	 9.1160
 1.9290	 9.0920
 1.9300	 9.0850
 1.9310	 9.0270
 1.9320	 8.9800
 1.9330	 8.9750
 1.9340	 8.9910
 1.9350	 9.0080
 1.9360	 9.0830
 1.9370	 9.1230
 1.9380	 9.1520
 1.9390	 9.1770
 1.9400	 9.1690
 1.9410	 9.1490
 1.9420	 9.1840
 1.9430	 9.2220
 1.9440	 9.2510
 1.9450	 9.3240
 1.9460	 9.3310
 1.9470	 9.2750
 1.9480	 9.2550
 1.9490	 9.2170
 1.9500	 9.2250
 1.9510	 9.1940
 1.9520	 9.2010
 1.9530	 9.1820
 1.9540	 9.1460
 1.9550	 9.1600
 1.9560	 9.2150
 1.9570	 9.2340
 1.9580	 9.2790
 1.9590	 9.2990
 1.9600	 9.2790
 1.9610	 9.2850
 1.9620	 9.3020
 1.9630	 9.3150
 1.9640	 9.3140
 1.9650	 9.3310
 1.9660	 9.3290
 1.9670	 9.3120
 1.9680	 9.3110
 1.9690	 9.3130
 1.9700	 9.3130
 1.9710	 9.3130
 1.9720	 9.3220
 1.9730	 9.3140
 1.9740	 9.3590
 1.9750	 9.4000
 1.9760	 9.4580
 1.9770	 9.5470
 1.9780	 9.5940
 1.9790	 9.6140
 1.9800	 9.6030
 1.9810	 9.6190
 1.9820	 9.6250
 1.9830	 9.6230
 1.9840	 9.6210
 1.9850	 9.6220
 1.9860	 9.5940
 1.9870	 9.5910
 1.9880	 9.6120
 1.9890	 9.6750
 1.9900	 9.7370
 1.9910	 9.7240
 1.9920	 9.7180
 1.9930	 9.6860
 1.9940	 9.6800
 1.9950	 9.6610
 1.9960	 9.6640
 1.9970	 9.6780
 1.9980	 9.6900
 1.9990	 9.7110
 2.0000	 9.7360
 2.0010	 9.7390
 2.0020	 9.7990
 2.0030	 9.8160
 2.0040	 9.8060
 2.0050	 9.8440
 2.0060	 9.9080
 2.0070	 9.9380
 2.0080	10.0160
 2.0090	10.0280
 2.0100	 9.9500
 2.0110	 9.9300
 2.0120	 9.9280
 2.0130	 9.8850
 2.0140	 9.8680
 2.0150	 9.8930
 2.0160	 9.9510
 2.0170	 9.9990
 2.0180	10.0470
 2.0190	10.1560
 2.0200	10.1790
 2.0210	10.1190
 2.0220	10.1270
 2.0230	10.1280
 2.0240	10.1350
 2.0250	10.1870
 2.0260	10.2160
 2.0270	10.2210
 2.0280	10.2450
 2.0290	10.2630
 2.0300	10.2490
 2.0310	10.2370
 2.0320	10.1920
 2.0330	10.1950
 2.0340	10.2020
 2.0350	10.2380
 2.0360	10.3300
 2.0370	10.3700
 2.0380	10.4130
 2.0390	10.4360
 2.0400	10.4420
 2.0410	10.4360
 2.0420	10.3980
 2.0430	10.3720
 2.0440	10.3630
 2.0450	10.3380
 2.0460	10.3370
 2.0470	10.3750
 2.0480	10.3850
 2.0490	10.3790
 2.0500	10.3920
 2.0510	10.3990
 2.0520	10.4370
 2.0530	10.5220
 2.0540	10.5710
 2.0550	10.6250
 2.0560	10.6680
 2.0570	10.6910
 2.0580	10.7000
 2.0590	10.6960
 2.0600	10.6710
 2.0610	10.6800
 2.0620	10.6630
 2.0630	10.6940
 2.0640	10.7930
 2.0650	10.8390
 2.0660	10.8850
 2.0670	10.9200
 2.0680	10.9310
 2.0690	10.9490
 2.0700	10.9660
 2.0710	10.9860
 2.0720	11.0210
 2.0730	11.0160
 2.0740	11.0370
 2.0750	11.0710
 2.0760	11.0830
 2.0770	11.0940
 2.0780	11.0930
 2.0790	11.0620
 2.0800	11.0650
 2.0810	11.1000
 2.0820	11.0930
 2.0830	11.0640
 2.0840	11.0590
 2.0850	11.0350
 2.0860	11.0260
 2.0870	11.0460
 2.0880	11.0760
 2.0890	11.0990
 2.0900	11.1090
 2.0910	11.1330
 2.0920	11.1870
 2.0930	11.1980
 2.0940	11.1910
 2.0950	11.1900
 2.0960	11.1530
 2.0970	11.1580
 2.0980	11.2010
 2.0990	11.2180
 2.1000	11.2310
 2.1010	11.2610
 2.1020	11.2820
 2.1030	11.3110
 2.1040	11.3640
 2.1050	11.4230
 2.1060	11.4450
 2.1070	11.4440
 2.1080	11.4580
 2.1090	11.4490
 2.1100	11.4650
 2.1110	11.4960
 2.1120	11.5300
 2.1130	11.5690
 2.1140	11.6160
 2.1150	11.6950
 2.1160	11.7340
 2.1170	11.7540
 2.1180	11.7780
 2.1190	11.7770
 2.1200	11.7830
 2.1210	11.7920
 2.1220	11.8140
 2.1230	11.8240
 2.1240	11.8290
 2.1250	11.8290
 2.1260	11.8250
 2.1270	11.8190
 2.1280	11.7890
 2.1290	11.8040
 2.1300	11.8420
 2.1310	11.8760
 2.1320	11.9670
 2.1330	11.9830
 2.1340	11.9390
 2.1350	11.9310
 2.1360	11.8880
 2.1370	11.8760
 2.1380	11.8970
 2.1390	11.9300
 2.1400	11.9690
 2.1410	12.0310
 2.1420	12.0810
 2.1430	12.1630
 2.1440	12.1870
 2.1450	12.1830
 2.1460	12.1760
 2.1470	12.1330
 2.1480	12.1190
 2.1490	12.1120
 2.1500	12.1010
 2.1510	12.1030
 2.1520	12.0910
 2.1530	12.0390
 2.1540	12.0440
 2.1550	12.0630
 2.1560	12.1060
 2.1570	12.2290
 2.1580	12.3000
 2.1590	12.3700
 2.1600	12.4130
 2.1610	12.4160
 2.1620	12.4240
 2.1630	12.4350
 2.1640	12.4480
 2.1650	12.4420
 2.1660	12.4460
 2.1670	12.4080
 2.1680	12.3230
 2.1690	12.2680
 2.1700	12.1720
 2.1710	12.1480
 2.1720	12.1780
 2.1730	12.1940
 2.1740	12.2380
 2.1750	12.2840
 2.1760	12.3440
 2.1770	12.3830
 2.1780	12.4360
 2.1790	12.4660
 2.1800	12.4200
 2.1810	12.4390
 2.1820	12.4790
 2.1830	12.5690
 2.1840	12.6040
 2.1850	12.6570
 2.1860	12.7020
 2.1870	12.7110
 2.1880	12.7220
 2.1890	12.7680
 2.1900	12.7600
 2.1910	12.6870
 2.1920	12.6550
 2.1930	12.6470
 2.1940	12.5940
 2.1950	12.4850
 2.1960	12.4530
 2.1970	12.4210
 2.1980	12.4150
 2.1990	12.5080
 2.2000	12.5410
 2.2010	12.5170
 2.2020	12.5370
 2.2030	12.5780
 2.2040	12.6110
 2.2050	12.6530
 2.2060	12.7130
 2.2070	12.7710
 2.2080	12.8390
 2.2090	12.8490
 2.2100	12.8460
 2.2110	12.8420
 2.2120	12.7820
 2.2130	12.7570
 2.2140	12.7670
 2.2150	12.7510
 2.2160	12.7130
 2.2170	12.6780
 2.2180	12.6090
 2.2190	12.6160
 2.2200	12.6860
 2.2210	12.7030
 2.2220	12.7560
 2.2230	12.7760
 2.2240	12.7260
 2.2250	12.7050
 2.2260	12.6980
 2.2270	12.6990
 2.2280	12.7180
 2.2290	12.7000
 2.2300	12.6820
 2.2310	12.6400
 2.2320	12.5620
 2.2330	12.5340
 2.2340	12.5240
 2.2350	12.5620
 2.2360	12.5520
 2.2370	12.5510
 2.2380	12.5150
 2.2390	12.4390
 2.2400	12.3830
 2.2410	12.3000
 2.2420	12.2810
 2.2430	12.3040
 2.2440	12.2990
 2.2450	12.3290
 2.2460	12.3280
 2.2470	12.2660
 2.2480	12.2720
 2.2490	12.3290
 2.2500	12.3590
 2.2510	12.4400
 2.2520	12.4530
 2.2530	12.3940
 2.2540	12.3640
 2.2550	12.3250
 2.2560	12.2670
 2.2570	12.2040
 2.2580	12.1530
 2.2590	12.0760
 2.2600	12.0200
 2.2610	11.9750
 2.2620	11.9710
 2.2630	11.9140
 2.2640	11.8780
 2.2650	11.8760
 2.2660	11.8310
 2.2670	11.8360
 2.2680	11.8800
 2.2690	11.8800
 2.2700	11.9080
 2.2710	11.8610
 2.2720	11.7750
 2.2730	11.6860
 2.2740	11.5090
 2.2750	11.4270
 2.2760	11.3520
 2.2770	11.3450
 2.2780	11.4430
 2.2790	11.4700
 2.2800	11.5430
 2.2810	11.5330
 2.2820	11.4060
 2.2830	11.3850
 2.2840	11.4000
 2.2850	11.3820
 2.2860	11.4160
 2.2870	11.4010
 2.2880	11.3310
 2.2890	11.2520
 2.2900	11.1350
 2.2910	11.0710
 2.2920	10.9890
 2.2930	10.9420
 2.2940	10.9900
 2.2950	10.9710
 2.2960	10.9180
 2.2970	10.8800
 2.2980	10.8200
 2.2990	10.7790
 2.3000	10.6810
 2.3010	10.5900
 2.3020	10.5410
 2.3030	10.3650
 2.3040	10.3630
 2.3050	10.4090
 2.3060	10.4270
 2.3070	10.6400
 2.3080	10.7840
 2.3090	10.8750
 2.3100	10.8800
 2.3110	10.8040
 2.3120	10.7960
 2.3130	10.7240
 2.3140	10.7350
 2.3150	10.8570
 2.3160	10.8840
 2.3170	10.8830
 2.3180	10.8980
 2.3190	10.8790
 2.3200	10.9030
 2.3210	10.9490
 2.3220	11.0040
 2.3230	11.1370
 2.3240	11.1310
 2.3250	11.0690
 2.3260	10.9880
 2.3270	10.7930
 2.3280	10.6650
 2.3290	10.5660
 2.3300	10.4730
 2.3310	10.3510
 2.3320	10.2980
 2.3330	10.2750
 2.3340	10.2830
 2.3350	10.3470
 2.3360	10.4380
 2.3370	10.6180
 2.3380	10.7130
 2.3390	10.8620
 2.3400	10.8610
 2.3410	10.6580
 2.3420	10.5830
 2.3430	10.4830
 2.3440	10.3990
 2.3450	10.4000
 2.3460	10.3750
 2.3470	10.3370
 2.3480	10.2900
 2.3490	10.2260
 2.3500	10.2120
 2.3510	10.1770
 2.3520	10.1800
 2.3530	10.2440
 2.3540	10.3130
 2.3550	10.4030
 2.3560	10.5540
 2.3570	10.6570
 2.3580	10.7060
 2.3590	10.6750
 2.3600	10.5620
 2.3610	10.4840
 2.3620	10.4440
 2.3630	10.3560
 2.3640	10.2180
 2.3650	10.1200
 2.3660	10.0320
 2.3670	10.0670
 2.3680	10.2000
 2.3690	10.3040
 2.3700	10.3990
 2.3710	10.4630
 2.3720	10.5080
 2.3730	10.4340
 2.3740	10.4230
 2.3750	10.3060
 2.3760	10.1310
 2.3770	10.1650
 2.3780	10.1610
 2.3790	10.3880
 2.3800	10.6400
 2.3810	10.6990
 2.3820	10.6870
 2.3830	10.5050
 2.3840	10.3000
 2.3850	10.1800
 2.3860	10.2550
 2.3870	10.4030
 2.3880	10.4370
 2.3890	10.3100
 2.3900	10.1720
 2.3910	10.1630
 2.3920	10.1880
 2.3930	10.4220
 2.3940	10.5970
 2.3950	10.5960
 2.3960	10.6460
 2.3970	10.6030
 2.3980	10.5810
 2.3990	10.3760
 2.4000	10.0450
 2.4010	 9.8470
 2.4020	 9.7510
 2.4030	 9.9180
 2.4040	 9.9810
 2.4050	 9.9280
 2.4060	 9.8700
 2.4070	 9.6520
 2.4080	 9.7300
 2.4090	 9.9730
 2.4100	10.1040
 2.4110	10.1430
 2.4120	10.0130
 2.4130	 9.9210
 2.4140	 9.7900
 2.4150	 9.7050
 2.4160	 9.8590
 2.4170	10.1310
 2.4180	10.4210
 2.4190	10.6220
 2.4200	10.6780
 2.4210	10.5790
 2.4220	10.3680
 2.4230	10.3490
 2.4240	10.4860
 2.4250	10.5380
 2.4260	10.5900
 2.4270	10.5370
 2.4280	10.3990
 2.4290	10.0790
 2.4300	 9.8270
 2.4310	 9.8780
 2.4320	 9.8360
 2.4330	10.0040
 2.4340	10.2410
 2.4350	10.2730
 2.4360	10.3380
 2.4370	10.0980
 2.4380	 9.5720
 2.4390	 8.9750
 2.4400	 8.4450
 2.4410	 8.1000
 2.4420	 7.9280
 2.4430	 7.9850
 2.4440	 8.1550
 2.4450	 8.4550
 2.4460	 8.7970
 2.4470	 8.9840
 2.4480	 9.0790
 2.4490	 9.1040
 2.4500	 9.1490
 2.4510	 9.3620
 2.4520	 9.3770
 2.4530	 9.2320
 2.4540	 9.1670
 2.4550	 8.9930
 2.4560	 9.0210
 2.4570	 9.2310
 2.4580	 9.2360
 2.4590	 9.1020
 2.4600	 9.2110
 2.4610	 9.1800
 2.4620	 9.3850
 2.4630	10.0510
 2.4640	10.0560
 2.4650	10.1980
 2.4660	10.6180
 2.4670	10.3480
 2.4680	 9.6580
 2.4690	 8.5750
 2.4700	 8.0310
 2.4710	 8.0650
 2.4720	 8.1960
 2.4730	 8.5390
 2.4740	 8.7850
 2.4750	 9.1460
 2.4760	 9.0520
 2.4770	 8.6900
 2.4780	 8.5120
 2.4790	 8.1250
 2.4800	 8.2520
 2.4810	 8.8190
 2.4820	 9.6950
 2.4830	 9.4630
 2.4840	 9.2260
 2.4850	 9.3410
 2.4860	 9.1930
 2.4870	 9.2470
 2.4880	 8.9380
 2.4890	 9.0170
 2.4900	 9.3920
 2.4910	 9.9120
 2.4920	11.3160
 2.4930	11.9630
 2.4940	11.6420
 2.4950	11.4050
 2.4960	10.9670
 2.4970	10.1130
 2.4980	 9.5110
 2.4990	 9.5200
 2.5000	 8.9560
