Name: Heteromeles arbutifolia 3
Type: vegetation
Class: Shrub
Genus: Heteromeles
Species: arbutifolia
Sample No.: VH209
Owner: UCSB
Wavelength Range: VSWIR
Origin: 34.4908; -119.7912; WGS84
Collection Date: 10/13/2013
Description: Samples were collected as part of the HyspIRI Airborne Campaign. 48 individual plants were sampled in three times in 2013 - spring  summer  and fall. The name of the sample includes a 1  2  or 3 which references a different individual of the species. Samples were taken to JPL and processed within 48 hours of collection. The same leaves were processed in the Nicolet and then measured using the ASD.
Measurement: Bidirectional reflectance
First Column: X
Second Column: Y
X Units: Wavelength (micrometers)
Y Units: Reflectance (percentage)
First X Value: 0.35
Last X Value: 2.5
Number of X Values: 2151
Additional Information: vegetation.shrub.heteromeles.arbutifolia.vswir.vh209.ucsb.asd.ancillary.txt

 0.3500	 8.1030
 0.3510	 7.6960
 0.3520	 7.8320
 0.3530	 7.9930
 0.3540	 7.7460
 0.3550	 7.8370
 0.3560	 7.7890
 0.3570	 7.6990
 0.3580	 7.8910
 0.3590	 7.8300
 0.3600	 7.7460
 0.3610	 7.7520
 0.3620	 7.6960
 0.3630	 7.6530
 0.3640	 7.6280
 0.3650	 7.6160
 0.3660	 7.6450
 0.3670	 7.6630
 0.3680	 7.6480
 0.3690	 7.6080
 0.3700	 7.6760
 0.3710	 7.5490
 0.3720	 7.2350
 0.3730	 7.4060
 0.3740	 7.5810
 0.3750	 7.6540
 0.3760	 7.6360
 0.3770	 7.5030
 0.3780	 7.4250
 0.3790	 7.4370
 0.3800	 7.4400
 0.3810	 7.3420
 0.3820	 7.2920
 0.3830	 7.3740
 0.3840	 7.4570
 0.3850	 7.4190
 0.3860	 7.3330
 0.3870	 7.3380
 0.3880	 7.4580
 0.3890	 7.4580
 0.3900	 7.3450
 0.3910	 7.3750
 0.3920	 7.4260
 0.3930	 7.4310
 0.3940	 7.3790
 0.3950	 7.3670
 0.3960	 7.3170
 0.3970	 7.2830
 0.3980	 7.3520
 0.3990	 7.3860
 0.4000	 7.3740
 0.4010	 7.3530
 0.4020	 7.4100
 0.4030	 7.4030
 0.4040	 7.3650
 0.4050	 7.3560
 0.4060	 7.3890
 0.4070	 7.3960
 0.4080	 7.3770
 0.4090	 7.3760
 0.4100	 7.4010
 0.4110	 7.4320
 0.4120	 7.4430
 0.4130	 7.4050
 0.4140	 7.4400
 0.4150	 7.5080
 0.4160	 7.5270
 0.4170	 7.5100
 0.4180	 7.5190
 0.4190	 7.5640
 0.4200	 7.6010
 0.4210	 7.6310
 0.4220	 7.6590
 0.4230	 7.6850
 0.4240	 7.6980
 0.4250	 7.7000
 0.4260	 7.7170
 0.4270	 7.7770
 0.4280	 7.8140
 0.4290	 7.8340
 0.4300	 7.8440
 0.4310	 7.8400
 0.4320	 7.8400
 0.4330	 7.8500
 0.4340	 7.8700
 0.4350	 7.8710
 0.4360	 7.8990
 0.4370	 7.9360
 0.4380	 7.9250
 0.4390	 7.9250
 0.4400	 7.9450
 0.4410	 7.9770
 0.4420	 7.9940
 0.4430	 7.9970
 0.4440	 8.0040
 0.4450	 8.0330
 0.4460	 8.0390
 0.4470	 8.0420
 0.4480	 8.0560
 0.4490	 8.0830
 0.4500	 8.0790
 0.4510	 8.0760
 0.4520	 8.1040
 0.4530	 8.1230
 0.4540	 8.1300
 0.4550	 8.1300
 0.4560	 8.1290
 0.4570	 8.1430
 0.4580	 8.1480
 0.4590	 8.1300
 0.4600	 8.1140
 0.4610	 8.1260
 0.4620	 8.1470
 0.4630	 8.1470
 0.4640	 8.1680
 0.4650	 8.1630
 0.4660	 8.1380
 0.4670	 8.1470
 0.4680	 8.1510
 0.4690	 8.1570
 0.4700	 8.1630
 0.4710	 8.1310
 0.4720	 8.1340
 0.4730	 8.1590
 0.4740	 8.1550
 0.4750	 8.1490
 0.4760	 8.1510
 0.4770	 8.1590
 0.4780	 8.1630
 0.4790	 8.1650
 0.4800	 8.1640
 0.4810	 8.1670
 0.4820	 8.1850
 0.4830	 8.1780
 0.4840	 8.1560
 0.4850	 8.1780
 0.4860	 8.1930
 0.4870	 8.1950
 0.4880	 8.1910
 0.4890	 8.2060
 0.4900	 8.2260
 0.4910	 8.2440
 0.4920	 8.2560
 0.4930	 8.2760
 0.4940	 8.2940
 0.4950	 8.3120
 0.4960	 8.3430
 0.4970	 8.3720
 0.4980	 8.4010
 0.4990	 8.4370
 0.5000	 8.4680
 0.5010	 8.5170
 0.5020	 8.5750
 0.5030	 8.6120
 0.5040	 8.6700
 0.5050	 8.7400
 0.5060	 8.8130
 0.5070	 8.8880
 0.5080	 8.9700
 0.5090	 9.0640
 0.5100	 9.1730
 0.5110	 9.2880
 0.5120	 9.4130
 0.5130	 9.5490
 0.5140	 9.6930
 0.5150	 9.8600
 0.5160	10.0400
 0.5170	10.2260
 0.5180	10.4350
 0.5190	10.6450
 0.5200	10.8570
 0.5210	11.0880
 0.5220	11.3210
 0.5230	11.5570
 0.5240	11.7960
 0.5250	12.0230
 0.5260	12.2490
 0.5270	12.4720
 0.5280	12.6820
 0.5290	12.8730
 0.5300	13.0550
 0.5310	13.2310
 0.5320	13.3920
 0.5330	13.5330
 0.5340	13.6580
 0.5350	13.7730
 0.5360	13.8760
 0.5370	13.9670
 0.5380	14.0480
 0.5390	14.1200
 0.5400	14.1820
 0.5410	14.2360
 0.5420	14.2850
 0.5430	14.3330
 0.5440	14.3890
 0.5450	14.4450
 0.5460	14.4960
 0.5470	14.5610
 0.5480	14.6210
 0.5490	14.6650
 0.5500	14.6950
 0.5510	14.7210
 0.5520	14.7360
 0.5530	14.7370
 0.5540	14.7260
 0.5550	14.6960
 0.5560	14.6480
 0.5570	14.5840
 0.5580	14.5010
 0.5590	14.4080
 0.5600	14.3100
 0.5610	14.1930
 0.5620	14.0700
 0.5630	13.9380
 0.5640	13.7870
 0.5650	13.6290
 0.5660	13.4680
 0.5670	13.3060
 0.5680	13.1450
 0.5690	12.9780
 0.5700	12.8090
 0.5710	12.6440
 0.5720	12.4810
 0.5730	12.3320
 0.5740	12.1950
 0.5750	12.0610
 0.5760	11.9310
 0.5770	11.8140
 0.5780	11.7110
 0.5790	11.6080
 0.5800	11.5180
 0.5810	11.4330
 0.5820	11.3420
 0.5830	11.2630
 0.5840	11.1950
 0.5850	11.1320
 0.5860	11.0730
 0.5870	11.0170
 0.5880	10.9640
 0.5890	10.9140
 0.5900	10.8640
 0.5910	10.8160
 0.5920	10.7740
 0.5930	10.7350
 0.5940	10.7030
 0.5950	10.6820
 0.5960	10.6660
 0.5970	10.6390
 0.5980	10.6150
 0.5990	10.5970
 0.6000	10.5790
 0.6010	10.5470
 0.6020	10.5120
 0.6030	10.4770
 0.6040	10.4330
 0.6050	10.3870
 0.6060	10.3370
 0.6070	10.2820
 0.6080	10.2210
 0.6090	10.1530
 0.6100	10.0760
 0.6110	 9.9960
 0.6120	 9.9350
 0.6130	 9.8890
 0.6140	 9.8460
 0.6150	 9.7940
 0.6160	 9.7420
 0.6170	 9.6980
 0.6180	 9.6650
 0.6190	 9.6220
 0.6200	 9.5800
 0.6210	 9.5450
 0.6220	 9.5200
 0.6230	 9.5020
 0.6240	 9.4840
 0.6250	 9.4660
 0.6260	 9.4560
 0.6270	 9.4480
 0.6280	 9.4410
 0.6290	 9.4370
 0.6300	 9.4260
 0.6310	 9.4150
 0.6320	 9.4100
 0.6330	 9.4080
 0.6340	 9.3920
 0.6350	 9.3630
 0.6360	 9.3290
 0.6370	 9.3010
 0.6380	 9.2610
 0.6390	 9.2120
 0.6400	 9.1650
 0.6410	 9.1170
 0.6420	 9.0660
 0.6430	 9.0110
 0.6440	 8.9580
 0.6450	 8.9070
 0.6460	 8.8580
 0.6470	 8.8110
 0.6480	 8.7690
 0.6490	 8.7300
 0.6500	 8.6950
 0.6510	 8.6660
 0.6520	 8.6430
 0.6530	 8.6230
 0.6540	 8.6040
 0.6550	 8.5760
 0.6560	 8.5510
 0.6570	 8.5270
 0.6580	 8.4960
 0.6590	 8.4650
 0.6600	 8.4280
 0.6610	 8.3880
 0.6620	 8.3570
 0.6630	 8.3320
 0.6640	 8.3100
 0.6650	 8.2880
 0.6660	 8.2690
 0.6670	 8.2510
 0.6680	 8.2350
 0.6690	 8.2240
 0.6700	 8.2290
 0.6710	 8.2320
 0.6720	 8.2310
 0.6730	 8.2470
 0.6740	 8.2590
 0.6750	 8.2710
 0.6760	 8.2910
 0.6770	 8.3160
 0.6780	 8.3410
 0.6790	 8.3710
 0.6800	 8.4130
 0.6810	 8.4530
 0.6820	 8.4970
 0.6830	 8.5490
 0.6840	 8.6070
 0.6850	 8.6710
 0.6860	 8.7470
 0.6870	 8.8400
 0.6880	 8.9510
 0.6890	 9.0850
 0.6900	 9.2480
 0.6910	 9.4470
 0.6920	 9.7020
 0.6930	10.0130
 0.6940	10.3820
 0.6950	10.8280
 0.6960	11.3570
 0.6970	11.9710
 0.6980	12.6650
 0.6990	13.4490
 0.7000	14.3120
 0.7010	15.2460
 0.7020	16.2460
 0.7030	17.3030
 0.7040	18.4050
 0.7050	19.5410
 0.7060	20.7140
 0.7070	21.9150
 0.7080	23.1390
 0.7090	24.3850
 0.7100	25.6460
 0.7110	26.9270
 0.7120	28.2210
 0.7130	29.5130
 0.7140	30.8160
 0.7150	32.1310
 0.7160	33.4460
 0.7170	34.7450
 0.7180	36.0460
 0.7190	37.3430
 0.7200	38.6160
 0.7210	39.8720
 0.7220	41.1050
 0.7230	42.3140
 0.7240	43.5000
 0.7250	44.6440
 0.7260	45.7490
 0.7270	46.8190
 0.7280	47.8430
 0.7290	48.8370
 0.7300	49.7880
 0.7310	50.6720
 0.7320	51.5200
 0.7330	52.3280
 0.7340	53.0960
 0.7350	53.8340
 0.7360	54.5070
 0.7370	55.1440
 0.7380	55.7630
 0.7390	56.3110
 0.7400	56.8280
 0.7410	57.3190
 0.7420	57.7780
 0.7430	58.2080
 0.7440	58.5990
 0.7450	58.9580
 0.7460	59.3010
 0.7470	59.6040
 0.7480	59.8750
 0.7490	60.1250
 0.7500	60.3550
 0.7510	60.5800
 0.7520	60.7780
 0.7530	60.9270
 0.7540	61.0810
 0.7550	61.2340
 0.7560	61.3720
 0.7570	61.4790
 0.7580	61.5850
 0.7590	61.6830
 0.7600	61.7680
 0.7610	61.8420
 0.7620	61.9110
 0.7630	61.9720
 0.7640	62.0190
 0.7650	62.0670
 0.7660	62.0950
 0.7670	62.1170
 0.7680	62.1640
 0.7690	62.2030
 0.7700	62.2310
 0.7710	62.2510
 0.7720	62.2650
 0.7730	62.2800
 0.7740	62.2920
 0.7750	62.2970
 0.7760	62.3140
 0.7770	62.3250
 0.7780	62.3440
 0.7790	62.3860
 0.7800	62.3810
 0.7810	62.3680
 0.7820	62.3730
 0.7830	62.3960
 0.7840	62.3880
 0.7850	62.3920
 0.7860	62.4330
 0.7870	62.4640
 0.7880	62.4430
 0.7890	62.4210
 0.7900	62.4500
 0.7910	62.4560
 0.7920	62.4740
 0.7930	62.4940
 0.7940	62.4800
 0.7950	62.4920
 0.7960	62.4980
 0.7970	62.4910
 0.7980	62.5150
 0.7990	62.5260
 0.8000	62.5310
 0.8010	62.5430
 0.8020	62.5480
 0.8030	62.5640
 0.8040	62.5820
 0.8050	62.5860
 0.8060	62.5880
 0.8070	62.5980
 0.8080	62.6200
 0.8090	62.6470
 0.8100	62.6330
 0.8110	62.6190
 0.8120	62.6330
 0.8130	62.6600
 0.8140	62.6780
 0.8150	62.6900
 0.8160	62.7040
 0.8170	62.7180
 0.8180	62.7310
 0.8190	62.7380
 0.8200	62.7380
 0.8210	62.7590
 0.8220	62.7850
 0.8230	62.8130
 0.8240	62.8480
 0.8250	62.8440
 0.8260	62.8350
 0.8270	62.8400
 0.8280	62.8200
 0.8290	62.8590
 0.8300	62.9180
 0.8310	62.9380
 0.8320	62.9120
 0.8330	62.9110
 0.8340	62.9300
 0.8350	62.9330
 0.8360	62.9670
 0.8370	63.0020
 0.8380	63.0210
 0.8390	63.0240
 0.8400	63.0290
 0.8410	63.0450
 0.8420	63.0710
 0.8430	63.0970
 0.8440	63.1110
 0.8450	63.1190
 0.8460	63.1300
 0.8470	63.1450
 0.8480	63.1820
 0.8490	63.2140
 0.8500	63.2130
 0.8510	63.2020
 0.8520	63.2020
 0.8530	63.2130
 0.8540	63.2260
 0.8550	63.2500
 0.8560	63.2820
 0.8570	63.3010
 0.8580	63.2790
 0.8590	63.3040
 0.8600	63.3210
 0.8610	63.3090
 0.8620	63.3310
 0.8630	63.3580
 0.8640	63.3630
 0.8650	63.3390
 0.8660	63.3450
 0.8670	63.3620
 0.8680	63.3780
 0.8690	63.3850
 0.8700	63.3780
 0.8710	63.3990
 0.8720	63.4290
 0.8730	63.4190
 0.8740	63.4140
 0.8750	63.4030
 0.8760	63.3940
 0.8770	63.4160
 0.8780	63.4300
 0.8790	63.4330
 0.8800	63.4340
 0.8810	63.4570
 0.8820	63.4440
 0.8830	63.4350
 0.8840	63.4560
 0.8850	63.4430
 0.8860	63.4180
 0.8870	63.4010
 0.8880	63.4050
 0.8890	63.4180
 0.8900	63.4260
 0.8910	63.4260
 0.8920	63.4180
 0.8930	63.3950
 0.8940	63.3970
 0.8950	63.4250
 0.8960	63.4460
 0.8970	63.4080
 0.8980	63.3710
 0.8990	63.3700
 0.9000	63.3990
 0.9010	63.3880
 0.9020	63.3740
 0.9030	63.3770
 0.9040	63.3770
 0.9050	63.3780
 0.9060	63.3700
 0.9070	63.3520
 0.9080	63.3340
 0.9090	63.3270
 0.9100	63.3350
 0.9110	63.3450
 0.9120	63.3070
 0.9130	63.3040
 0.9140	63.3140
 0.9150	63.3040
 0.9160	63.3260
 0.9170	63.3400
 0.9180	63.3170
 0.9190	63.2580
 0.9200	63.2570
 0.9210	63.2300
 0.9220	63.1950
 0.9230	63.2120
 0.9240	63.2140
 0.9250	63.2010
 0.9260	63.1800
 0.9270	63.1640
 0.9280	63.1660
 0.9290	63.1630
 0.9300	63.1420
 0.9310	63.1020
 0.9320	63.0580
 0.9330	63.0400
 0.9340	63.0370
 0.9350	63.0010
 0.9360	62.9690
 0.9370	62.9360
 0.9380	62.8960
 0.9390	62.8560
 0.9400	62.8440
 0.9410	62.8290
 0.9420	62.7900
 0.9430	62.7500
 0.9440	62.7200
 0.9450	62.6820
 0.9460	62.6190
 0.9470	62.5300
 0.9480	62.4670
 0.9490	62.4210
 0.9500	62.3730
 0.9510	62.3180
 0.9520	62.2430
 0.9530	62.1600
 0.9540	62.0830
 0.9550	62.0110
 0.9560	61.9330
 0.9570	61.8530
 0.9580	61.7780
 0.9590	61.6980
 0.9600	61.6450
 0.9610	61.5970
 0.9620	61.5340
 0.9630	61.5050
 0.9640	61.4770
 0.9650	61.4380
 0.9660	61.3910
 0.9670	61.3500
 0.9680	61.3210
 0.9690	61.3150
 0.9700	61.3320
 0.9710	61.2880
 0.9720	61.2770
 0.9730	61.2730
 0.9740	61.2220
 0.9750	61.2060
 0.9760	61.2190
 0.9770	61.2560
 0.9780	61.3000
 0.9790	61.2800
 0.9800	61.2410
 0.9810	61.2110
 0.9820	61.2100
 0.9830	61.2870
 0.9840	61.3090
 0.9850	61.2970
 0.9860	61.3270
 0.9870	61.3260
 0.9880	61.3240
 0.9890	61.3390
 0.9900	61.3760
 0.9910	61.4230
 0.9920	61.4720
 0.9930	61.5210
 0.9940	61.5690
 0.9950	61.6180
 0.9960	61.6670
 0.9970	61.7160
 0.9980	61.7640
 0.9990	61.8130
 1.0000	61.8620
 1.0010	61.9110
 1.0020	61.9590
 1.0030	62.0080
 1.0040	62.0570
 1.0050	62.1060
 1.0060	62.1540
 1.0070	62.2030
 1.0080	62.2520
 1.0090	62.3010
 1.0100	62.3010
 1.0110	62.3350
 1.0120	62.3690
 1.0130	62.3870
 1.0140	62.4150
 1.0150	62.4400
 1.0160	62.4920
 1.0170	62.5370
 1.0180	62.5750
 1.0190	62.6250
 1.0200	62.6560
 1.0210	62.6740
 1.0220	62.6990
 1.0230	62.7260
 1.0240	62.7540
 1.0250	62.7720
 1.0260	62.7900
 1.0270	62.8070
 1.0280	62.7990
 1.0290	62.8240
 1.0300	62.8760
 1.0310	62.9150
 1.0320	62.9560
 1.0330	63.0090
 1.0340	63.0480
 1.0350	63.0700
 1.0360	63.0930
 1.0370	63.1140
 1.0380	63.1330
 1.0390	63.1420
 1.0400	63.1570
 1.0410	63.1780
 1.0420	63.1940
 1.0430	63.2040
 1.0440	63.2210
 1.0450	63.2370
 1.0460	63.2540
 1.0470	63.2810
 1.0480	63.2960
 1.0490	63.2990
 1.0500	63.3080
 1.0510	63.3170
 1.0520	63.3190
 1.0530	63.3290
 1.0540	63.3500
 1.0550	63.3600
 1.0560	63.3590
 1.0570	63.3750
 1.0580	63.4030
 1.0590	63.4160
 1.0600	63.4410
 1.0610	63.4500
 1.0620	63.4330
 1.0630	63.4300
 1.0640	63.4260
 1.0650	63.4290
 1.0660	63.4440
 1.0670	63.4530
 1.0680	63.4610
 1.0690	63.4740
 1.0700	63.4820
 1.0710	63.4880
 1.0720	63.4870
 1.0730	63.4820
 1.0740	63.4780
 1.0750	63.4660
 1.0760	63.4610
 1.0770	63.4670
 1.0780	63.4610
 1.0790	63.4480
 1.0800	63.4360
 1.0810	63.4130
 1.0820	63.4020
 1.0830	63.4000
 1.0840	63.3950
 1.0850	63.3960
 1.0860	63.3940
 1.0870	63.3860
 1.0880	63.3710
 1.0890	63.3610
 1.0900	63.3480
 1.0910	63.3390
 1.0920	63.3350
 1.0930	63.3260
 1.0940	63.3180
 1.0950	63.3080
 1.0960	63.2970
 1.0970	63.2830
 1.0980	63.2710
 1.0990	63.2530
 1.1000	63.2260
 1.1010	63.2050
 1.1020	63.1890
 1.1030	63.1620
 1.1040	63.1280
 1.1050	63.1040
 1.1060	63.0800
 1.1070	63.0510
 1.1080	63.0300
 1.1090	63.0230
 1.1100	63.0030
 1.1110	62.9810
 1.1120	62.9520
 1.1130	62.9130
 1.1140	62.8810
 1.1150	62.8480
 1.1160	62.8140
 1.1170	62.7880
 1.1180	62.7510
 1.1190	62.7080
 1.1200	62.6650
 1.1210	62.6120
 1.1220	62.5580
 1.1230	62.5060
 1.1240	62.4430
 1.1250	62.3730
 1.1260	62.3010
 1.1270	62.2150
 1.1280	62.1120
 1.1290	62.0160
 1.1300	61.9190
 1.1310	61.8120
 1.1320	61.7050
 1.1330	61.5850
 1.1340	61.4560
 1.1350	61.3170
 1.1360	61.1670
 1.1370	61.0120
 1.1380	60.8530
 1.1390	60.6790
 1.1400	60.5060
 1.1410	60.3350
 1.1420	60.1490
 1.1430	59.9690
 1.1440	59.7860
 1.1450	59.5910
 1.1460	59.4110
 1.1470	59.2390
 1.1480	59.0640
 1.1490	58.8900
 1.1500	58.7270
 1.1510	58.5600
 1.1520	58.4080
 1.1530	58.2710
 1.1540	58.1420
 1.1550	58.0180
 1.1560	57.9110
 1.1570	57.8200
 1.1580	57.7330
 1.1590	57.6580
 1.1600	57.5840
 1.1610	57.5090
 1.1620	57.4430
 1.1630	57.3860
 1.1640	57.3360
 1.1650	57.2890
 1.1660	57.2460
 1.1670	57.2090
 1.1680	57.1750
 1.1690	57.1450
 1.1700	57.1250
 1.1710	57.1010
 1.1720	57.0760
 1.1730	57.0510
 1.1740	57.0250
 1.1750	56.9970
 1.1760	56.9730
 1.1770	56.9450
 1.1780	56.9130
 1.1790	56.8800
 1.1800	56.8460
 1.1810	56.8170
 1.1820	56.7950
 1.1830	56.7760
 1.1840	56.7510
 1.1850	56.7230
 1.1860	56.6940
 1.1870	56.6630
 1.1880	56.6380
 1.1890	56.6170
 1.1900	56.5940
 1.1910	56.5710
 1.1920	56.5550
 1.1930	56.5400
 1.1940	56.5310
 1.1950	56.5320
 1.1960	56.5290
 1.1970	56.5270
 1.1980	56.5300
 1.1990	56.5340
 1.2000	56.5430
 1.2010	56.5540
 1.2020	56.5670
 1.2030	56.5840
 1.2040	56.6030
 1.2050	56.6240
 1.2060	56.6470
 1.2070	56.6730
 1.2080	56.7010
 1.2090	56.7290
 1.2100	56.7570
 1.2110	56.7900
 1.2120	56.8220
 1.2130	56.8580
 1.2140	56.8980
 1.2150	56.9400
 1.2160	56.9820
 1.2170	57.0280
 1.2180	57.0730
 1.2190	57.1250
 1.2200	57.1780
 1.2210	57.2280
 1.2220	57.2730
 1.2230	57.3160
 1.2240	57.3600
 1.2250	57.4040
 1.2260	57.4500
 1.2270	57.5010
 1.2280	57.5530
 1.2290	57.5960
 1.2300	57.6360
 1.2310	57.6770
 1.2320	57.7100
 1.2330	57.7470
 1.2340	57.7860
 1.2350	57.8310
 1.2360	57.8700
 1.2370	57.9090
 1.2380	57.9420
 1.2390	57.9730
 1.2400	58.0050
 1.2410	58.0370
 1.2420	58.0700
 1.2430	58.1080
 1.2440	58.1430
 1.2450	58.1740
 1.2460	58.2050
 1.2470	58.2310
 1.2480	58.2480
 1.2490	58.2650
 1.2500	58.2750
 1.2510	58.2880
 1.2520	58.3030
 1.2530	58.3150
 1.2540	58.3320
 1.2550	58.3430
 1.2560	58.3510
 1.2570	58.3650
 1.2580	58.3800
 1.2590	58.3930
 1.2600	58.4080
 1.2610	58.4200
 1.2620	58.4310
 1.2630	58.4390
 1.2640	58.4450
 1.2650	58.4510
 1.2660	58.4560
 1.2670	58.4610
 1.2680	58.4610
 1.2690	58.4580
 1.2700	58.4530
 1.2710	58.4430
 1.2720	58.4340
 1.2730	58.4260
 1.2740	58.4150
 1.2750	58.4030
 1.2760	58.3910
 1.2770	58.3770
 1.2780	58.3710
 1.2790	58.3640
 1.2800	58.3430
 1.2810	58.3240
 1.2820	58.3060
 1.2830	58.2830
 1.2840	58.2660
 1.2850	58.2510
 1.2860	58.2330
 1.2870	58.2090
 1.2880	58.1820
 1.2890	58.1490
 1.2900	58.1070
 1.2910	58.0600
 1.2920	58.0130
 1.2930	57.9610
 1.2940	57.9100
 1.2950	57.8550
 1.2960	57.7920
 1.2970	57.7300
 1.2980	57.6670
 1.2990	57.6040
 1.3000	57.5420
 1.3010	57.4750
 1.3020	57.4050
 1.3030	57.3350
 1.3040	57.2540
 1.3050	57.1690
 1.3060	57.0890
 1.3070	56.9990
 1.3080	56.9020
 1.3090	56.8060
 1.3100	56.7020
 1.3110	56.5900
 1.3120	56.4780
 1.3130	56.3640
 1.3140	56.2410
 1.3150	56.1100
 1.3160	55.9800
 1.3170	55.8460
 1.3180	55.7050
 1.3190	55.5650
 1.3200	55.4210
 1.3210	55.2690
 1.3220	55.1150
 1.3230	54.9620
 1.3240	54.8030
 1.3250	54.6400
 1.3260	54.4730
 1.3270	54.2950
 1.3280	54.1150
 1.3290	53.9330
 1.3300	53.7460
 1.3310	53.5610
 1.3320	53.3740
 1.3330	53.1850
 1.3340	52.9990
 1.3350	52.8120
 1.3360	52.6160
 1.3370	52.4190
 1.3380	52.2260
 1.3390	52.0270
 1.3400	51.8340
 1.3410	51.6430
 1.3420	51.4470
 1.3430	51.2590
 1.3440	51.0710
 1.3450	50.8870
 1.3460	50.7080
 1.3470	50.5310
 1.3480	50.3550
 1.3490	50.1800
 1.3500	50.0090
 1.3510	49.8320
 1.3520	49.6530
 1.3530	49.4790
 1.3540	49.3060
 1.3550	49.1340
 1.3560	48.9630
 1.3570	48.7920
 1.3580	48.6160
 1.3590	48.4330
 1.3600	48.2460
 1.3610	48.0570
 1.3620	47.8620
 1.3630	47.6610
 1.3640	47.4550
 1.3650	47.2380
 1.3660	47.0150
 1.3670	46.7840
 1.3680	46.5370
 1.3690	46.2780
 1.3700	45.9990
 1.3710	45.7010
 1.3720	45.3890
 1.3730	45.0560
 1.3740	44.7070
 1.3750	44.3390
 1.3760	43.9450
 1.3770	43.5240
 1.3780	43.0740
 1.3790	42.5920
 1.3800	42.0820
 1.3810	41.5430
 1.3820	40.9790
 1.3830	40.3910
 1.3840	39.7760
 1.3850	39.1330
 1.3860	38.4740
 1.3870	37.7860
 1.3880	37.0950
 1.3890	36.3900
 1.3900	35.6720
 1.3910	34.9510
 1.3920	34.2220
 1.3930	33.4900
 1.3940	32.7620
 1.3950	32.0360
 1.3960	31.3220
 1.3970	30.6190
 1.3980	29.9320
 1.3990	29.2700
 1.4000	28.6240
 1.4010	27.9950
 1.4020	27.3930
 1.4030	26.8100
 1.4040	26.2520
 1.4050	25.7220
 1.4060	25.2160
 1.4070	24.7410
 1.4080	24.2930
 1.4090	23.8720
 1.4100	23.4790
 1.4110	23.1070
 1.4120	22.7610
 1.4130	22.4420
 1.4140	22.1420
 1.4150	21.8710
 1.4160	21.6210
 1.4170	21.3850
 1.4180	21.1690
 1.4190	20.9690
 1.4200	20.7860
 1.4210	20.6190
 1.4220	20.4650
 1.4230	20.3250
 1.4240	20.1960
 1.4250	20.0790
 1.4260	19.9760
 1.4270	19.8790
 1.4280	19.7920
 1.4290	19.7120
 1.4300	19.6430
 1.4310	19.5790
 1.4320	19.5250
 1.4330	19.4780
 1.4340	19.4380
 1.4350	19.4040
 1.4360	19.3790
 1.4370	19.3590
 1.4380	19.3440
 1.4390	19.3340
 1.4400	19.3300
 1.4410	19.3310
 1.4420	19.3350
 1.4430	19.3430
 1.4440	19.3530
 1.4450	19.3640
 1.4460	19.3770
 1.4470	19.3940
 1.4480	19.4120
 1.4490	19.4310
 1.4500	19.4530
 1.4510	19.4750
 1.4520	19.4970
 1.4530	19.5200
 1.4540	19.5410
 1.4550	19.5700
 1.4560	19.6010
 1.4570	19.6350
 1.4580	19.6760
 1.4590	19.7160
 1.4600	19.7610
 1.4610	19.8120
 1.4620	19.8640
 1.4630	19.9230
 1.4640	19.9860
 1.4650	20.0550
 1.4660	20.1320
 1.4670	20.2110
 1.4680	20.2940
 1.4690	20.3840
 1.4700	20.4780
 1.4710	20.5790
 1.4720	20.6860
 1.4730	20.7960
 1.4740	20.9090
 1.4750	21.0240
 1.4760	21.1460
 1.4770	21.2710
 1.4780	21.4000
 1.4790	21.5340
 1.4800	21.6700
 1.4810	21.8090
 1.4820	21.9490
 1.4830	22.0900
 1.4840	22.2340
 1.4850	22.3760
 1.4860	22.5180
 1.4870	22.6630
 1.4880	22.8080
 1.4890	22.9530
 1.4900	23.1000
 1.4910	23.2490
 1.4920	23.3970
 1.4930	23.5480
 1.4940	23.6970
 1.4950	23.8420
 1.4960	23.9910
 1.4970	24.1390
 1.4980	24.2890
 1.4990	24.4410
 1.5000	24.5930
 1.5010	24.7430
 1.5020	24.8930
 1.5030	25.0430
 1.5040	25.1920
 1.5050	25.3410
 1.5060	25.4890
 1.5070	25.6360
 1.5080	25.7830
 1.5090	25.9290
 1.5100	26.0760
 1.5110	26.2250
 1.5120	26.3730
 1.5130	26.5180
 1.5140	26.6630
 1.5150	26.8090
 1.5160	26.9520
 1.5170	27.0920
 1.5180	27.2340
 1.5190	27.3720
 1.5200	27.5100
 1.5210	27.6510
 1.5220	27.7900
 1.5230	27.9270
 1.5240	28.0630
 1.5250	28.1950
 1.5260	28.3260
 1.5270	28.4610
 1.5280	28.5950
 1.5290	28.7270
 1.5300	28.8590
 1.5310	28.9860
 1.5320	29.1110
 1.5330	29.2400
 1.5340	29.3640
 1.5350	29.4910
 1.5360	29.6190
 1.5370	29.7420
 1.5380	29.8630
 1.5390	29.9840
 1.5400	30.0980
 1.5410	30.2110
 1.5420	30.3260
 1.5430	30.4370
 1.5440	30.5480
 1.5450	30.6570
 1.5460	30.7670
 1.5470	30.8790
 1.5480	30.9900
 1.5490	31.1030
 1.5500	31.2130
 1.5510	31.3200
 1.5520	31.4270
 1.5530	31.5300
 1.5540	31.6350
 1.5550	31.7400
 1.5560	31.8470
 1.5570	31.9530
 1.5580	32.0590
 1.5590	32.1600
 1.5600	32.2570
 1.5610	32.3490
 1.5620	32.4380
 1.5630	32.5280
 1.5640	32.6220
 1.5650	32.7190
 1.5660	32.8140
 1.5670	32.9070
 1.5680	32.9960
 1.5690	33.0840
 1.5700	33.1760
 1.5710	33.2710
 1.5720	33.3670
 1.5730	33.4600
 1.5740	33.5480
 1.5750	33.6350
 1.5760	33.7210
 1.5770	33.8050
 1.5780	33.8950
 1.5790	33.9850
 1.5800	34.0710
 1.5810	34.1620
 1.5820	34.2490
 1.5830	34.3360
 1.5840	34.4280
 1.5850	34.5160
 1.5860	34.6050
 1.5870	34.6880
 1.5880	34.7650
 1.5890	34.8440
 1.5900	34.9200
 1.5910	34.9960
 1.5920	35.0790
 1.5930	35.1600
 1.5940	35.2400
 1.5950	35.3220
 1.5960	35.4040
 1.5970	35.4870
 1.5980	35.5730
 1.5990	35.6550
 1.6000	35.7420
 1.6010	35.8250
 1.6020	35.9020
 1.6030	35.9810
 1.6040	36.0560
 1.6050	36.1290
 1.6060	36.2010
 1.6070	36.2690
 1.6080	36.3350
 1.6090	36.4030
 1.6100	36.4700
 1.6110	36.5400
 1.6120	36.6070
 1.6130	36.6700
 1.6140	36.7400
 1.6150	36.8110
 1.6160	36.8820
 1.6170	36.9540
 1.6180	37.0210
 1.6190	37.0840
 1.6200	37.1470
 1.6210	37.2080
 1.6220	37.2640
 1.6230	37.3200
 1.6240	37.3770
 1.6250	37.4290
 1.6260	37.4820
 1.6270	37.5330
 1.6280	37.5780
 1.6290	37.6310
 1.6300	37.6890
 1.6310	37.7420
 1.6320	37.8000
 1.6330	37.8450
 1.6340	37.8810
 1.6350	37.9170
 1.6360	37.9460
 1.6370	37.9820
 1.6380	38.0230
 1.6390	38.0600
 1.6400	38.0990
 1.6410	38.1300
 1.6420	38.1580
 1.6430	38.1850
 1.6440	38.2080
 1.6450	38.2310
 1.6460	38.2480
 1.6470	38.2630
 1.6480	38.2760
 1.6490	38.2860
 1.6500	38.2940
 1.6510	38.2960
 1.6520	38.2910
 1.6530	38.2790
 1.6540	38.2610
 1.6550	38.2410
 1.6560	38.2150
 1.6570	38.1940
 1.6580	38.1730
 1.6590	38.1470
 1.6600	38.1190
 1.6610	38.0900
 1.6620	38.0560
 1.6630	38.0230
 1.6640	37.9990
 1.6650	37.9810
 1.6660	37.9640
 1.6670	37.9490
 1.6680	37.9350
 1.6690	37.9200
 1.6700	37.9020
 1.6710	37.8860
 1.6720	37.8690
 1.6730	37.8460
 1.6740	37.8300
 1.6750	37.8160
 1.6760	37.7960
 1.6770	37.7730
 1.6780	37.7450
 1.6790	37.7170
 1.6800	37.6930
 1.6810	37.6710
 1.6820	37.6450
 1.6830	37.6100
 1.6840	37.5660
 1.6850	37.5160
 1.6860	37.4680
 1.6870	37.4180
 1.6880	37.3640
 1.6890	37.3110
 1.6900	37.2550
 1.6910	37.1970
 1.6920	37.1380
 1.6930	37.0770
 1.6940	37.0160
 1.6950	36.9520
 1.6960	36.8910
 1.6970	36.8340
 1.6980	36.7700
 1.6990	36.7050
 1.7000	36.6410
 1.7010	36.5740
 1.7020	36.5060
 1.7030	36.4400
 1.7040	36.3680
 1.7050	36.2890
 1.7060	36.2140
 1.7070	36.1370
 1.7080	36.0630
 1.7090	35.9910
 1.7100	35.9190
 1.7110	35.8470
 1.7120	35.7700
 1.7130	35.6940
 1.7140	35.6210
 1.7150	35.5510
 1.7160	35.4830
 1.7170	35.4190
 1.7180	35.3570
 1.7190	35.2970
 1.7200	35.2340
 1.7210	35.1720
 1.7220	35.1130
 1.7230	35.0520
 1.7240	34.9940
 1.7250	34.9360
 1.7260	34.8720
 1.7270	34.8110
 1.7280	34.7610
 1.7290	34.7140
 1.7300	34.6800
 1.7310	34.6410
 1.7320	34.6010
 1.7330	34.5620
 1.7340	34.5220
 1.7350	34.4790
 1.7360	34.4370
 1.7370	34.3920
 1.7380	34.3420
 1.7390	34.2940
 1.7400	34.2510
 1.7410	34.1970
 1.7420	34.1400
 1.7430	34.0770
 1.7440	34.0000
 1.7450	33.9350
 1.7460	33.8700
 1.7470	33.8100
 1.7480	33.7600
 1.7490	33.7000
 1.7500	33.6400
 1.7510	33.5760
 1.7520	33.5050
 1.7530	33.4380
 1.7540	33.3700
 1.7550	33.3030
 1.7560	33.2410
 1.7570	33.1860
 1.7580	33.1330
 1.7590	33.0790
 1.7600	33.0260
 1.7610	32.9750
 1.7620	32.9270
 1.7630	32.8850
 1.7640	32.8460
 1.7650	32.8110
 1.7660	32.7750
 1.7670	32.7460
 1.7680	32.7120
 1.7690	32.6690
 1.7700	32.6330
 1.7710	32.5970
 1.7720	32.5640
 1.7730	32.5370
 1.7740	32.5070
 1.7750	32.4780
 1.7760	32.4480
 1.7770	32.4180
 1.7780	32.3870
 1.7790	32.3540
 1.7800	32.3230
 1.7810	32.2930
 1.7820	32.2630
 1.7830	32.2320
 1.7840	32.2090
 1.7850	32.1870
 1.7860	32.1730
 1.7870	32.1660
 1.7880	32.1650
 1.7890	32.1660
 1.7900	32.1740
 1.7910	32.1790
 1.7920	32.1800
 1.7930	32.1840
 1.7940	32.1860
 1.7950	32.1880
 1.7960	32.1930
 1.7970	32.1970
 1.7980	32.2000
 1.7990	32.2060
 1.8000	32.2160
 1.8010	32.2250
 1.8020	32.2370
 1.8030	32.2490
 1.8040	32.2590
 1.8050	32.2730
 1.8060	32.2880
 1.8070	32.3040
 1.8080	32.3220
 1.8090	32.3390
 1.8100	32.3590
 1.8110	32.3690
 1.8120	32.3800
 1.8130	32.3880
 1.8140	32.3870
 1.8150	32.3970
 1.8160	32.4060
 1.8170	32.4120
 1.8180	32.4220
 1.8190	32.4230
 1.8200	32.4280
 1.8210	32.4390
 1.8220	32.4450
 1.8230	32.4520
 1.8240	32.4530
 1.8250	32.4490
 1.8260	32.4420
 1.8270	32.4650
 1.8280	32.4880
 1.8290	32.5110
 1.8300	32.5340
 1.8310	32.5580
 1.8320	32.5810
 1.8330	32.6040
 1.8340	32.6270
 1.8350	32.6270
 1.8360	32.5880
 1.8370	32.5520
 1.8380	32.5050
 1.8390	32.4520
 1.8400	32.3960
 1.8410	32.3310
 1.8420	32.2570
 1.8430	32.1760
 1.8440	32.0810
 1.8450	31.9910
 1.8460	31.8960
 1.8470	31.7800
 1.8480	31.6590
 1.8490	31.5200
 1.8500	31.3670
 1.8510	31.1970
 1.8520	31.0160
 1.8530	30.8210
 1.8540	30.6230
 1.8550	30.4030
 1.8560	30.1650
 1.8570	29.9210
 1.8580	29.6580
 1.8590	29.3810
 1.8600	29.0930
 1.8610	28.7910
 1.8620	28.4600
 1.8630	28.1020
 1.8640	27.7240
 1.8650	27.3270
 1.8660	26.9170
 1.8670	26.4940
 1.8680	26.0520
 1.8690	25.5840
 1.8700	25.0940
 1.8710	24.5820
 1.8720	24.0510
 1.8730	23.5030
 1.8740	22.9510
 1.8750	22.3940
 1.8760	21.8240
 1.8770	21.2540
 1.8780	20.6830
 1.8790	20.1090
 1.8800	19.5490
 1.8810	18.9960
 1.8820	18.4460
 1.8830	17.9020
 1.8840	17.3670
 1.8850	16.8330
 1.8860	16.3110
 1.8870	15.8060
 1.8880	15.3260
 1.8890	14.8740
 1.8900	14.4470
 1.8910	14.0380
 1.8920	13.6500
 1.8930	13.2790
 1.8940	12.9320
 1.8950	12.6110
 1.8960	12.3210
 1.8970	12.0590
 1.8980	11.8130
 1.8990	11.5860
 1.9000	11.3830
 1.9010	11.2020
 1.9020	11.0340
 1.9030	10.8900
 1.9040	10.7620
 1.9050	10.6350
 1.9060	10.5240
 1.9070	10.4320
 1.9080	10.3420
 1.9090	10.2680
 1.9100	10.2000
 1.9110	10.1400
 1.9120	10.0920
 1.9130	10.0490
 1.9140	10.0150
 1.9150	 9.9870
 1.9160	 9.9640
 1.9170	 9.9430
 1.9180	 9.9250
 1.9190	 9.9140
 1.9200	 9.8990
 1.9210	 9.8790
 1.9220	 9.8690
 1.9230	 9.8650
 1.9240	 9.8600
 1.9250	 9.8610
 1.9260	 9.8620
 1.9270	 9.8640
 1.9280	 9.8630
 1.9290	 9.8580
 1.9300	 9.8630
 1.9310	 9.8730
 1.9320	 9.8850
 1.9330	 9.8990
 1.9340	 9.9240
 1.9350	 9.9420
 1.9360	 9.9510
 1.9370	 9.9700
 1.9380	 9.9940
 1.9390	10.0170
 1.9400	10.0400
 1.9410	10.0720
 1.9420	10.1060
 1.9430	10.1380
 1.9440	10.1650
 1.9450	10.1920
 1.9460	10.2190
 1.9470	10.2330
 1.9480	10.2600
 1.9490	10.2930
 1.9500	10.3330
 1.9510	10.3620
 1.9520	10.3950
 1.9530	10.4370
 1.9540	10.4720
 1.9550	10.5120
 1.9560	10.5600
 1.9570	10.6030
 1.9580	10.6390
 1.9590	10.6860
 1.9600	10.7450
 1.9610	10.7950
 1.9620	10.8450
 1.9630	10.8940
 1.9640	10.9370
 1.9650	10.9840
 1.9660	11.0260
 1.9670	11.0700
 1.9680	11.1180
 1.9690	11.1600
 1.9700	11.2090
 1.9710	11.2710
 1.9720	11.3270
 1.9730	11.3790
 1.9740	11.4370
 1.9750	11.4890
 1.9760	11.5450
 1.9770	11.6070
 1.9780	11.6630
 1.9790	11.7190
 1.9800	11.7700
 1.9810	11.8290
 1.9820	11.8930
 1.9830	11.9550
 1.9840	12.0230
 1.9850	12.0890
 1.9860	12.1500
 1.9870	12.2100
 1.9880	12.2770
 1.9890	12.3490
 1.9900	12.4260
 1.9910	12.5050
 1.9920	12.5780
 1.9930	12.6520
 1.9940	12.7230
 1.9950	12.7840
 1.9960	12.8520
 1.9970	12.9190
 1.9980	12.9890
 1.9990	13.0640
 2.0000	13.1390
 2.0010	13.2080
 2.0020	13.2760
 2.0030	13.3390
 2.0040	13.4020
 2.0050	13.4690
 2.0060	13.5370
 2.0070	13.6080
 2.0080	13.6850
 2.0090	13.7580
 2.0100	13.8380
 2.0110	13.9070
 2.0120	13.9690
 2.0130	14.0270
 2.0140	14.0810
 2.0150	14.1410
 2.0160	14.2080
 2.0170	14.2700
 2.0180	14.3320
 2.0190	14.3940
 2.0200	14.4510
 2.0210	14.5070
 2.0220	14.5610
 2.0230	14.6080
 2.0240	14.6620
 2.0250	14.7210
 2.0260	14.7780
 2.0270	14.8340
 2.0280	14.8990
 2.0290	14.9600
 2.0300	15.0140
 2.0310	15.0630
 2.0320	15.1050
 2.0330	15.1530
 2.0340	15.1960
 2.0350	15.2410
 2.0360	15.2900
 2.0370	15.3390
 2.0380	15.3850
 2.0390	15.4310
 2.0400	15.4800
 2.0410	15.5270
 2.0420	15.5750
 2.0430	15.6180
 2.0440	15.6530
 2.0450	15.6830
 2.0460	15.7150
 2.0470	15.7380
 2.0480	15.7680
 2.0490	15.8060
 2.0500	15.8380
 2.0510	15.8680
 2.0520	15.8970
 2.0530	15.9190
 2.0540	15.9500
 2.0550	15.9820
 2.0560	16.0190
 2.0570	16.0610
 2.0580	16.1030
 2.0590	16.1430
 2.0600	16.1800
 2.0610	16.2190
 2.0620	16.2590
 2.0630	16.2980
 2.0640	16.3370
 2.0650	16.3730
 2.0660	16.4050
 2.0670	16.4390
 2.0680	16.4700
 2.0690	16.5070
 2.0700	16.5530
 2.0710	16.5950
 2.0720	16.6440
 2.0730	16.6880
 2.0740	16.7210
 2.0750	16.7440
 2.0760	16.7730
 2.0770	16.7940
 2.0780	16.8240
 2.0790	16.8620
 2.0800	16.8980
 2.0810	16.9340
 2.0820	16.9720
 2.0830	17.0130
 2.0840	17.0520
 2.0850	17.0910
 2.0860	17.1310
 2.0870	17.1710
 2.0880	17.2090
 2.0890	17.2530
 2.0900	17.3010
 2.0910	17.3430
 2.0920	17.3870
 2.0930	17.4250
 2.0940	17.4570
 2.0950	17.4910
 2.0960	17.5270
 2.0970	17.5590
 2.0980	17.5860
 2.0990	17.6140
 2.1000	17.6370
 2.1010	17.6650
 2.1020	17.6880
 2.1030	17.7230
 2.1040	17.7720
 2.1050	17.8150
 2.1060	17.8560
 2.1070	17.9040
 2.1080	17.9410
 2.1090	17.9680
 2.1100	17.9990
 2.1110	18.0290
 2.1120	18.0650
 2.1130	18.1050
 2.1140	18.1440
 2.1150	18.1910
 2.1160	18.2320
 2.1170	18.2720
 2.1180	18.3070
 2.1190	18.3370
 2.1200	18.3690
 2.1210	18.3930
 2.1220	18.4260
 2.1230	18.4610
 2.1240	18.5030
 2.1250	18.5400
 2.1260	18.5790
 2.1270	18.6140
 2.1280	18.6480
 2.1290	18.6780
 2.1300	18.7020
 2.1310	18.7340
 2.1320	18.7650
 2.1330	18.7970
 2.1340	18.8390
 2.1350	18.8710
 2.1360	18.8960
 2.1370	18.9250
 2.1380	18.9540
 2.1390	18.9830
 2.1400	19.0140
 2.1410	19.0450
 2.1420	19.0730
 2.1430	19.0970
 2.1440	19.1270
 2.1450	19.1560
 2.1460	19.1930
 2.1470	19.2420
 2.1480	19.2790
 2.1490	19.3150
 2.1500	19.3500
 2.1510	19.3790
 2.1520	19.4110
 2.1530	19.4480
 2.1540	19.4810
 2.1550	19.5100
 2.1560	19.5380
 2.1570	19.5690
 2.1580	19.5940
 2.1590	19.6090
 2.1600	19.6320
 2.1610	19.6560
 2.1620	19.6770
 2.1630	19.7060
 2.1640	19.7430
 2.1650	19.7780
 2.1660	19.8130
 2.1670	19.8540
 2.1680	19.9050
 2.1690	19.9450
 2.1700	19.9850
 2.1710	20.0230
 2.1720	20.0480
 2.1730	20.0850
 2.1740	20.1340
 2.1750	20.1710
 2.1760	20.2080
 2.1770	20.2410
 2.1780	20.2610
 2.1790	20.2870
 2.1800	20.3150
 2.1810	20.3440
 2.1820	20.3740
 2.1830	20.4040
 2.1840	20.4390
 2.1850	20.4800
 2.1860	20.5130
 2.1870	20.5440
 2.1880	20.5830
 2.1890	20.6220
 2.1900	20.6610
 2.1910	20.7160
 2.1920	20.7520
 2.1930	20.7720
 2.1940	20.8010
 2.1950	20.8230
 2.1960	20.8510
 2.1970	20.8950
 2.1980	20.9230
 2.1990	20.9370
 2.2000	20.9630
 2.2010	20.9880
 2.2020	21.0160
 2.2030	21.0610
 2.2040	21.0960
 2.2050	21.1240
 2.2060	21.1520
 2.2070	21.1770
 2.2080	21.2020
 2.2090	21.2220
 2.2100	21.2370
 2.2110	21.2540
 2.2120	21.2660
 2.2130	21.2830
 2.2140	21.3080
 2.2150	21.3180
 2.2160	21.3200
 2.2170	21.3220
 2.2180	21.3090
 2.2190	21.3090
 2.2200	21.3250
 2.2210	21.3250
 2.2220	21.3240
 2.2230	21.3170
 2.2240	21.2940
 2.2250	21.2810
 2.2260	21.2730
 2.2270	21.2600
 2.2280	21.2440
 2.2290	21.2280
 2.2300	21.2070
 2.2310	21.1860
 2.2320	21.1720
 2.2330	21.1670
 2.2340	21.1420
 2.2350	21.1130
 2.2360	21.0760
 2.2370	21.0190
 2.2380	20.9740
 2.2390	20.9330
 2.2400	20.8820
 2.2410	20.8260
 2.2420	20.7720
 2.2430	20.7120
 2.2440	20.6510
 2.2450	20.5960
 2.2460	20.5240
 2.2470	20.4360
 2.2480	20.3580
 2.2490	20.2770
 2.2500	20.1910
 2.2510	20.1000
 2.2520	20.0220
 2.2530	19.9480
 2.2540	19.8740
 2.2550	19.8200
 2.2560	19.7490
 2.2570	19.6650
 2.2580	19.5830
 2.2590	19.4920
 2.2600	19.4090
 2.2610	19.3300
 2.2620	19.2510
 2.2630	19.1730
 2.2640	19.0980
 2.2650	19.0180
 2.2660	18.9410
 2.2670	18.8580
 2.2680	18.7730
 2.2690	18.6900
 2.2700	18.5990
 2.2710	18.5200
 2.2720	18.4510
 2.2730	18.3790
 2.2740	18.3090
 2.2750	18.2440
 2.2760	18.1820
 2.2770	18.1210
 2.2780	18.0620
 2.2790	18.0050
 2.2800	17.9480
 2.2810	17.8950
 2.2820	17.8500
 2.2830	17.8010
 2.2840	17.7540
 2.2850	17.6990
 2.2860	17.6400
 2.2870	17.5800
 2.2880	17.5010
 2.2890	17.4470
 2.2900	17.4160
 2.2910	17.3710
 2.2920	17.3350
 2.2930	17.2920
 2.2940	17.2330
 2.2950	17.1750
 2.2960	17.1060
 2.2970	17.0590
 2.2980	17.0250
 2.2990	16.9900
 2.3000	16.9540
 2.3010	16.9200
 2.3020	16.8640
 2.3030	16.8050
 2.3040	16.7730
 2.3050	16.7440
 2.3060	16.7200
 2.3070	16.7060
 2.3080	16.6890
 2.3090	16.6780
 2.3100	16.6710
 2.3110	16.6670
 2.3120	16.6610
 2.3130	16.6560
 2.3140	16.6490
 2.3150	16.6410
 2.3160	16.6330
 2.3170	16.6340
 2.3180	16.6110
 2.3190	16.5760
 2.3200	16.5430
 2.3210	16.4910
 2.3220	16.4530
 2.3230	16.4210
 2.3240	16.3910
 2.3250	16.3660
 2.3260	16.3340
 2.3270	16.2990
 2.3280	16.2730
 2.3290	16.2510
 2.3300	16.2200
 2.3310	16.1930
 2.3320	16.1590
 2.3330	16.1130
 2.3340	16.0690
 2.3350	16.0330
 2.3360	15.9890
 2.3370	15.9290
 2.3380	15.8830
 2.3390	15.8390
 2.3400	15.8030
 2.3410	15.7770
 2.3420	15.7480
 2.3430	15.7350
 2.3440	15.7040
 2.3450	15.6610
 2.3460	15.6260
 2.3470	15.5730
 2.3480	15.5400
 2.3490	15.5370
 2.3500	15.5120
 2.3510	15.4850
 2.3520	15.4570
 2.3530	15.4060
 2.3540	15.3740
 2.3550	15.3500
 2.3560	15.3440
 2.3570	15.3340
 2.3580	15.3070
 2.3590	15.2970
 2.3600	15.2770
 2.3610	15.2530
 2.3620	15.2320
 2.3630	15.1970
 2.3640	15.1540
 2.3650	15.1310
 2.3660	15.1050
 2.3670	15.0700
 2.3680	15.0500
 2.3690	15.0000
 2.3700	14.9620
 2.3710	14.9380
 2.3720	14.8900
 2.3730	14.8630
 2.3740	14.8300
 2.3750	14.8000
 2.3760	14.7760
 2.3770	14.7530
 2.3780	14.7430
 2.3790	14.6760
 2.3800	14.6100
 2.3810	14.5750
 2.3820	14.5530
 2.3830	14.5680
 2.3840	14.5770
 2.3850	14.5640
 2.3860	14.5030
 2.3870	14.4420
 2.3880	14.4210
 2.3890	14.3760
 2.3900	14.3410
 2.3910	14.3100
 2.3920	14.2490
 2.3930	14.1900
 2.3940	14.1310
 2.3950	14.0580
 2.3960	13.9950
 2.3970	13.9530
 2.3980	13.9090
 2.3990	13.8860
 2.4000	13.8670
 2.4010	13.8070
 2.4020	13.7890
 2.4030	13.7760
 2.4040	13.7390
 2.4050	13.7750
 2.4060	13.7410
 2.4070	13.6340
 2.4080	13.5890
 2.4090	13.5450
 2.4100	13.5070
 2.4110	13.5170
 2.4120	13.5080
 2.4130	13.4370
 2.4140	13.3660
 2.4150	13.2950
 2.4160	13.2400
 2.4170	13.1930
 2.4180	13.1370
 2.4190	13.1180
 2.4200	13.0790
 2.4210	13.0400
 2.4220	13.0300
 2.4230	12.9950
 2.4240	12.9800
 2.4250	12.9760
 2.4260	12.9540
 2.4270	12.9370
 2.4280	12.8990
 2.4290	12.8560
 2.4300	12.8190
 2.4310	12.7900
 2.4320	12.7200
 2.4330	12.5860
 2.4340	12.4770
 2.4350	12.4090
 2.4360	12.3750
 2.4370	12.3690
 2.4380	12.3940
 2.4390	12.4220
 2.4400	12.4260
 2.4410	12.4500
 2.4420	12.4060
 2.4430	12.3010
 2.4440	12.2140
 2.4450	12.0950
 2.4460	12.0540
 2.4470	12.0680
 2.4480	12.0540
 2.4490	12.0910
 2.4500	12.0940
 2.4510	12.0380
 2.4520	11.9680
 2.4530	11.8900
 2.4540	11.8570
 2.4550	11.8750
 2.4560	11.8860
 2.4570	11.8640
 2.4580	11.8400
 2.4590	11.7770
 2.4600	11.6950
 2.4610	11.6590
 2.4620	11.6510
 2.4630	11.6430
 2.4640	11.6340
 2.4650	11.6420
 2.4660	11.6030
 2.4670	11.5370
 2.4680	11.5070
 2.4690	11.4640
 2.4700	11.4580
 2.4710	11.5150
 2.4720	11.5130
 2.4730	11.4860
 2.4740	11.4860
 2.4750	11.4710
 2.4760	11.4400
 2.4770	11.4620
 2.4780	11.4330
 2.4790	11.3010
 2.4800	11.2640
 2.4810	11.2730
 2.4820	11.2160
 2.4830	11.2320
 2.4840	11.2940
 2.4850	11.3180
 2.4860	11.3790
 2.4870	11.4740
 2.4880	11.4460
 2.4890	11.2600
 2.4900	11.1720
 2.4910	11.1230
 2.4920	11.0170
 2.4930	11.0620
 2.4940	11.1170
 2.4950	11.0760
 2.4960	11.0180
 2.4970	11.0490
 2.4980	11.2060
 2.4990	11.3090
 2.5000	11.4810
