Name: Arctostaphylos glandulosa 1
Type: vegetation
Class: Shrub
Genus: Arctostaphylos
Species: glandulosa
Sample No.: VH050
Owner: UCSB
Wavelength Range: TIR
Origin: 37.0432; -119.304; WGS84
Collection Date: 4/20/2013
Description: Samples were collected as part of the HyspIRI Airborne Campaign. 48 individual plants were sampled in three times in 2013 - spring  summer  and fall. The name of the sample includes a 1  2  or 3 which references a different individual of the species. Samples were taken to JPL and processed within 48 hours of collection. The same leaves were processed in the Nicolet and then measured using the ASD.
Measurement: Hemispherical reflectance
First Column: X
Second Column: Y
X Units: Wavelength (micrometers)
Y Units: Reflectance (percentage)
First X Value: 2.501
Last X Value: 15.387
Number of X Values: 1737
Additional Information: vegetation.shrub.arctostaphylos.glandulosa.tir.vh050.ucsb.nicolet.ancillary.txt

 2.5010	 6.0000
 2.5030	 5.9430
 2.5040	 5.8510
 2.5050	 5.8920
 2.5060	 6.0060
 2.5070	 5.9370
 2.5090	 5.8010
 2.5100	 5.7390
 2.5110	 5.7210
 2.5120	 5.7090
 2.5140	 5.7700
 2.5150	 5.7970
 2.5160	 5.8530
 2.5170	 5.8720
 2.5180	 5.8140
 2.5200	 5.6990
 2.5210	 5.6920
 2.5220	 5.7260
 2.5230	 5.7260
 2.5250	 5.7010
 2.5260	 5.6940
 2.5270	 5.7050
 2.5280	 5.7000
 2.5290	 5.7730
 2.5310	 5.8800
 2.5320	 5.8270
 2.5330	 5.7530
 2.5340	 5.7140
 2.5360	 5.8300
 2.5370	 5.8220
 2.5380	 5.7470
 2.5390	 5.8180
 2.5410	 5.8780
 2.5420	 5.8310
 2.5430	 5.8250
 2.5440	 5.8140
 2.5460	 5.8120
 2.5470	 5.8660
 2.5480	 5.8890
 2.5490	 5.8160
 2.5510	 5.8840
 2.5520	 5.9110
 2.5530	 5.9810
 2.5540	 6.0660
 2.5560	 6.0400
 2.5570	 6.0090
 2.5580	 6.0400
 2.5590	 6.0360
 2.5610	 6.0480
 2.5620	 6.0150
 2.5630	 5.9900
 2.5640	 5.9320
 2.5660	 5.8860
 2.5670	 5.9540
 2.5680	 6.0460
 2.5700	 6.0170
 2.5710	 5.8960
 2.5720	 5.8400
 2.5730	 5.9830
 2.5750	 6.0630
 2.5760	 6.1300
 2.5770	 6.0790
 2.5790	 6.0260
 2.5800	 5.9890
 2.5810	 5.9910
 2.5820	 6.0060
 2.5840	 5.9330
 2.5850	 5.7890
 2.5860	 5.8150
 2.5880	 5.8040
 2.5890	 5.8200
 2.5900	 5.8710
 2.5910	 5.9200
 2.5930	 5.9510
 2.5940	 6.0150
 2.5950	 6.0050
 2.5970	 5.9690
 2.5980	 5.8890
 2.5990	 5.8090
 2.6000	 5.8230
 2.6020	 5.8590
 2.6030	 5.8190
 2.6040	 5.6870
 2.6060	 5.6410
 2.6070	 5.6760
 2.6080	 5.6270
 2.6100	 5.6490
 2.6110	 5.5570
 2.6120	 5.5050
 2.6140	 5.5460
 2.6150	 5.5940
 2.6160	 5.5380
 2.6180	 5.5100
 2.6190	 5.4720
 2.6200	 5.4240
 2.6220	 5.3600
 2.6230	 5.3410
 2.6240	 5.3740
 2.6260	 5.4250
 2.6270	 5.4060
 2.6280	 5.2630
 2.6300	 5.2790
 2.6310	 5.4090
 2.6320	 5.3740
 2.6340	 5.2440
 2.6350	 5.1410
 2.6360	 5.2310
 2.6380	 5.1660
 2.6390	 5.0540
 2.6400	 5.0610
 2.6420	 5.0940
 2.6430	 5.0130
 2.6440	 4.9940
 2.6460	 5.0480
 2.6470	 4.9600
 2.6480	 4.7780
 2.6500	 4.7240
 2.6510	 4.6890
 2.6520	 4.6020
 2.6540	 4.6070
 2.6550	 4.7120
 2.6560	 4.7110
 2.6580	 4.7320
 2.6590	 4.7040
 2.6610	 4.6330
 2.6620	 4.5630
 2.6630	 4.4460
 2.6650	 4.3800
 2.6660	 4.3820
 2.6670	 4.4310
 2.6690	 4.5310
 2.6700	 4.4640
 2.6720	 4.3900
 2.6730	 4.2720
 2.6740	 4.3300
 2.6760	 4.3580
 2.6770	 4.3250
 2.6780	 4.3360
 2.6800	 4.3850
 2.6810	 4.2500
 2.6830	 4.1970
 2.6840	 4.2310
 2.6850	 4.1940
 2.6870	 4.0790
 2.6880	 4.0190
 2.6900	 4.0660
 2.6910	 4.0880
 2.6920	 4.0290
 2.6940	 4.0870
 2.6950	 4.0560
 2.6970	 3.9690
 2.6980	 3.9100
 2.6990	 3.8950
 2.7010	 3.9290
 2.7020	 3.8530
 2.7040	 3.7310
 2.7050	 3.6910
 2.7060	 3.7210
 2.7080	 3.7340
 2.7090	 3.6720
 2.7110	 3.6690
 2.7120	 3.6200
 2.7130	 3.6250
 2.7150	 3.5170
 2.7160	 3.4740
 2.7180	 3.5170
 2.7190	 3.5260
 2.7210	 3.5070
 2.7220	 3.5470
 2.7230	 3.5000
 2.7250	 3.5150
 2.7260	 3.5130
 2.7280	 3.4690
 2.7290	 3.5010
 2.7310	 3.4950
 2.7320	 3.3800
 2.7330	 3.4530
 2.7350	 3.4720
 2.7360	 3.4160
 2.7380	 3.3360
 2.7390	 3.3470
 2.7410	 3.3270
 2.7420	 3.3900
 2.7440	 3.3680
 2.7450	 3.3690
 2.7470	 3.3710
 2.7480	 3.4330
 2.7490	 3.4150
 2.7510	 3.4200
 2.7520	 3.4730
 2.7540	 3.4800
 2.7550	 3.4620
 2.7570	 3.4550
 2.7580	 3.4530
 2.7600	 3.5040
 2.7610	 3.4600
 2.7630	 3.3650
 2.7640	 3.3770
 2.7660	 3.4480
 2.7670	 3.4070
 2.7680	 3.3980
 2.7700	 3.3890
 2.7710	 3.4630
 2.7730	 3.4690
 2.7740	 3.4180
 2.7760	 3.3690
 2.7770	 3.3580
 2.7790	 3.4150
 2.7800	 3.3850
 2.7820	 3.3350
 2.7830	 3.3770
 2.7850	 3.3320
 2.7860	 3.2790
 2.7880	 3.3260
 2.7890	 3.4330
 2.7910	 3.3500
 2.7920	 3.3350
 2.7940	 3.3630
 2.7950	 3.4730
 2.7970	 3.4160
 2.7980	 3.4340
 2.8000	 3.4840
 2.8010	 3.4410
 2.8030	 3.3420
 2.8040	 3.2890
 2.8060	 3.2870
 2.8070	 3.4010
 2.8090	 3.3960
 2.8110	 3.2990
 2.8120	 3.1760
 2.8140	 3.2780
 2.8150	 3.4920
 2.8170	 3.5040
 2.8180	 3.3090
 2.8200	 3.2960
 2.8210	 3.3350
 2.8230	 3.4040
 2.8240	 3.3270
 2.8260	 3.2220
 2.8270	 3.2900
 2.8290	 3.3980
 2.8300	 3.2940
 2.8320	 3.3000
 2.8340	 3.3880
 2.8350	 3.3790
 2.8370	 3.3760
 2.8380	 3.4570
 2.8400	 3.4060
 2.8410	 3.3530
 2.8430	 3.3140
 2.8440	 3.3200
 2.8460	 3.3090
 2.8480	 3.3260
 2.8490	 3.3200
 2.8510	 3.3600
 2.8520	 3.3610
 2.8540	 3.3470
 2.8550	 3.2840
 2.8570	 3.3850
 2.8590	 3.5760
 2.8600	 3.6210
 2.8620	 3.5110
 2.8630	 3.3870
 2.8650	 3.2740
 2.8660	 3.3130
 2.8680	 3.3210
 2.8700	 3.2680
 2.8710	 3.3140
 2.8730	 3.3700
 2.8740	 3.3640
 2.8760	 3.3490
 2.8780	 3.2170
 2.8790	 3.3110
 2.8810	 3.4950
 2.8820	 3.3750
 2.8840	 3.3280
 2.8860	 3.4920
 2.8870	 3.5020
 2.8890	 3.2040
 2.8900	 3.1030
 2.8920	 3.3740
 2.8940	 3.4040
 2.8950	 3.4700
 2.8970	 3.4740
 2.8980	 3.3490
 2.9000	 3.2610
 2.9020	 3.4110
 2.9030	 3.5030
 2.9050	 3.4550
 2.9070	 3.4730
 2.9080	 3.5890
 2.9100	 3.5930
 2.9120	 3.4840
 2.9130	 3.4360
 2.9150	 3.4910
 2.9160	 3.4950
 2.9180	 3.4820
 2.9200	 3.5170
 2.9210	 3.6040
 2.9230	 3.5280
 2.9250	 3.4960
 2.9260	 3.4050
 2.9280	 3.4450
 2.9300	 3.3790
 2.9310	 3.3410
 2.9330	 3.4550
 2.9350	 3.5350
 2.9360	 3.4370
 2.9380	 3.3100
 2.9400	 3.2510
 2.9410	 3.4480
 2.9430	 3.5540
 2.9450	 3.4980
 2.9460	 3.5160
 2.9480	 3.4230
 2.9500	 3.4260
 2.9510	 3.4060
 2.9530	 3.3050
 2.9550	 3.3760
 2.9560	 3.5010
 2.9580	 3.4810
 2.9600	 3.6480
 2.9610	 3.8160
 2.9630	 3.8130
 2.9650	 3.6370
 2.9660	 3.3070
 2.9680	 3.0700
 2.9700	 3.2790
 2.9720	 3.3040
 2.9730	 3.2450
 2.9750	 3.2790
 2.9770	 3.4450
 2.9780	 3.4820
 2.9800	 3.2630
 2.9820	 3.4010
 2.9840	 3.0910
 2.9850	 3.2470
 2.9870	 3.4470
 2.9890	 3.3900
 2.9900	 3.4140
 2.9920	 3.2130
 2.9940	 3.2330
 2.9960	 3.6510
 2.9970	 3.5410
 2.9990	 3.2530
 3.0010	 3.2430
 3.0030	 3.4940
 3.0040	 3.4130
 3.0060	 3.2900
 3.0080	 3.3080
 3.0100	 3.3950
 3.0110	 3.5450
 3.0130	 3.5600
 3.0150	 3.2950
 3.0170	 3.3120
 3.0180	 3.6560
 3.0200	 3.6910
 3.0220	 3.7260
 3.0240	 3.6530
 3.0250	 3.3510
 3.0270	 3.3690
 3.0290	 3.3950
 3.0310	 3.5070
 3.0320	 3.5530
 3.0340	 3.7120
 3.0360	 3.4060
 3.0380	 3.0500
 3.0400	 3.4760
 3.0410	 3.7610
 3.0430	 3.6690
 3.0450	 3.8980
 3.0470	 4.3100
 3.0480	 3.9840
 3.0500	 3.2460
 3.0520	 3.1970
 3.0540	 3.5110
 3.0560	 3.7050
 3.0570	 3.6180
 3.0590	 3.4310
 3.0610	 3.0680
 3.0630	 3.3050
 3.0650	 3.4650
 3.0660	 3.3940
 3.0680	 3.4470
 3.0700	 3.5490
 3.0720	 3.5380
 3.0740	 3.3340
 3.0760	 3.1640
 3.0770	 3.2850
 3.0790	 3.3600
 3.0810	 3.3850
 3.0830	 3.5040
 3.0850	 3.5740
 3.0870	 3.5100
 3.0880	 3.4820
 3.0900	 3.4150
 3.0920	 3.4340
 3.0940	 3.3480
 3.0960	 3.4030
 3.0980	 3.5540
 3.0990	 3.4070
 3.1010	 3.3640
 3.1030	 3.5270
 3.1050	 3.5380
 3.1070	 3.4090
 3.1090	 3.3440
 3.1110	 3.3020
 3.1120	 3.2990
 3.1140	 3.4560
 3.1160	 3.4510
 3.1180	 3.4420
 3.1200	 3.3640
 3.1220	 3.3420
 3.1240	 3.3620
 3.1260	 3.4000
 3.1270	 3.3320
 3.1290	 3.3320
 3.1310	 3.3670
 3.1330	 3.4540
 3.1350	 3.4250
 3.1370	 3.2460
 3.1390	 3.0700
 3.1410	 3.2260
 3.1430	 3.3490
 3.1450	 3.4180
 3.1460	 3.4260
 3.1480	 3.2710
 3.1500	 3.2960
 3.1520	 3.3510
 3.1540	 3.3190
 3.1560	 3.4030
 3.1580	 3.4690
 3.1600	 3.6250
 3.1620	 3.6580
 3.1640	 3.5550
 3.1660	 3.4540
 3.1680	 3.5690
 3.1700	 3.0510
 3.1710	 2.6620
 3.1730	 2.8930
 3.1750	 3.0790
 3.1770	 3.1390
 3.1790	 3.5230
 3.1810	 3.7710
 3.1830	 3.6310
 3.1850	 3.2990
 3.1870	 3.4540
 3.1890	 3.5060
 3.1910	 3.2140
 3.1930	 3.2230
 3.1950	 3.2570
 3.1970	 3.2310
 3.1990	 3.3080
 3.2010	 3.3050
 3.2030	 3.2320
 3.2050	 3.2470
 3.2070	 3.3000
 3.2090	 3.2630
 3.2110	 3.2960
 3.2130	 3.3810
 3.2150	 3.4080
 3.2170	 3.3650
 3.2190	 3.3610
 3.2210	 3.2960
 3.2230	 3.2930
 3.2250	 3.3150
 3.2270	 3.3630
 3.2290	 3.3840
 3.2310	 3.3780
 3.2330	 3.3540
 3.2350	 3.3250
 3.2370	 3.1990
 3.2390	 3.2390
 3.2410	 3.3350
 3.2430	 3.3900
 3.2450	 3.3030
 3.2470	 3.2420
 3.2490	 3.2750
 3.2510	 3.2560
 3.2530	 3.2980
 3.2550	 3.3110
 3.2570	 3.3210
 3.2590	 3.3570
 3.2610	 3.2560
 3.2630	 3.1810
 3.2650	 3.2070
 3.2670	 3.1400
 3.2690	 3.2440
 3.2720	 3.3280
 3.2740	 3.2950
 3.2760	 3.2440
 3.2780	 3.2610
 3.2800	 3.2950
 3.2820	 3.2570
 3.2840	 3.2750
 3.2860	 3.2920
 3.2880	 3.2740
 3.2900	 3.2330
 3.2920	 3.2840
 3.2940	 3.3930
 3.2960	 3.3520
 3.2990	 3.2500
 3.3010	 3.2580
 3.3030	 3.2400
 3.3050	 3.2140
 3.3070	 3.1690
 3.3090	 3.1590
 3.3110	 3.1280
 3.3130	 3.2090
 3.3150	 3.2780
 3.3180	 3.2830
 3.3200	 3.2570
 3.3220	 3.1360
 3.3240	 3.0940
 3.3260	 3.1150
 3.3280	 3.0630
 3.3300	 3.0470
 3.3330	 3.0890
 3.3350	 3.1140
 3.3370	 3.1070
 3.3390	 3.0400
 3.3410	 3.0140
 3.3430	 3.0020
 3.3450	 3.0710
 3.3480	 3.0800
 3.3500	 2.9990
 3.3520	 3.0460
 3.3540	 3.0870
 3.3560	 3.0230
 3.3580	 2.9890
 3.3610	 2.9650
 3.3630	 2.9210
 3.3650	 2.8590
 3.3670	 2.7950
 3.3690	 2.7700
 3.3720	 2.7740
 3.3740	 2.7570
 3.3760	 2.7920
 3.3780	 2.8630
 3.3800	 2.7690
 3.3830	 2.8000
 3.3850	 2.8940
 3.3870	 2.9040
 3.3890	 2.7220
 3.3910	 2.5720
 3.3940	 2.5730
 3.3960	 2.7390
 3.3980	 2.8250
 3.4000	 2.7690
 3.4020	 2.7810
 3.4050	 2.8760
 3.4070	 2.9640
 3.4090	 3.0090
 3.4110	 3.0990
 3.4140	 3.2580
 3.4160	 3.4010
 3.4180	 3.6800
 3.4200	 4.0220
 3.4230	 4.3960
 3.4250	 4.7910
 3.4270	 5.2680
 3.4290	 5.5990
 3.4320	 5.5280
 3.4340	 5.1440
 3.4360	 4.8160
 3.4390	 4.6170
 3.4410	 4.5400
 3.4430	 4.4060
 3.4450	 4.2550
 3.4480	 4.2050
 3.4500	 4.2020
 3.4520	 4.0560
 3.4550	 4.0860
 3.4570	 4.1900
 3.4590	 4.0680
 3.4620	 4.0950
 3.4640	 4.1460
 3.4660	 4.0900
 3.4680	 4.0190
 3.4710	 3.8650
 3.4730	 3.7930
 3.4750	 3.7430
 3.4780	 3.7050
 3.4800	 3.6810
 3.4820	 3.5740
 3.4850	 3.5300
 3.4870	 3.4980
 3.4890	 3.4440
 3.4920	 3.4230
 3.4940	 3.4420
 3.4970	 3.5100
 3.4990	 3.4920
 3.5010	 3.5620
 3.5040	 3.7270
 3.5060	 4.1620
 3.5080	 4.9500
 3.5110	 5.5780
 3.5130	 5.5520
 3.5160	 5.2250
 3.5180	 5.0090
 3.5200	 4.8390
 3.5230	 4.6070
 3.5250	 4.4930
 3.5270	 4.3730
 3.5300	 4.3260
 3.5320	 4.3080
 3.5350	 4.2350
 3.5370	 4.1720
 3.5400	 4.1910
 3.5420	 4.1780
 3.5440	 4.1730
 3.5470	 4.1250
 3.5490	 4.0520
 3.5520	 3.9670
 3.5540	 3.9510
 3.5570	 3.9650
 3.5590	 3.9550
 3.5610	 3.9230
 3.5640	 3.9400
 3.5660	 3.9680
 3.5690	 3.9490
 3.5710	 3.9320
 3.5740	 3.9060
 3.5760	 3.8730
 3.5790	 3.8940
 3.5810	 3.9250
 3.5840	 3.8870
 3.5860	 3.8440
 3.5890	 3.8730
 3.5910	 3.8190
 3.5930	 3.7890
 3.5960	 3.9340
 3.5980	 4.0410
 3.6010	 4.0390
 3.6030	 3.9700
 3.6060	 3.8810
 3.6080	 3.8850
 3.6110	 3.9230
 3.6140	 3.8860
 3.6160	 3.8080
 3.6190	 3.7720
 3.6210	 3.8330
 3.6240	 3.8770
 3.6260	 3.8730
 3.6290	 3.9030
 3.6310	 3.9090
 3.6340	 3.8570
 3.6360	 3.8440
 3.6390	 3.8140
 3.6410	 3.7690
 3.6440	 3.8000
 3.6470	 3.8140
 3.6490	 3.8060
 3.6520	 3.8010
 3.6540	 3.7840
 3.6570	 3.8570
 3.6590	 3.8220
 3.6620	 3.7630
 3.6650	 3.7640
 3.6670	 3.8140
 3.6700	 3.8420
 3.6720	 3.8270
 3.6750	 3.7860
 3.6780	 3.7470
 3.6800	 3.7580
 3.6830	 3.8110
 3.6850	 3.8200
 3.6880	 3.7890
 3.6910	 3.7820
 3.6930	 3.7830
 3.6960	 3.8400
 3.6990	 3.8790
 3.7010	 3.8500
 3.7040	 3.7590
 3.7060	 3.7790
 3.7090	 3.8330
 3.7120	 3.8210
 3.7140	 3.7870
 3.7170	 3.8070
 3.7200	 3.8310
 3.7220	 3.8230
 3.7250	 3.8790
 3.7280	 3.8810
 3.7300	 3.8400
 3.7330	 3.9150
 3.7360	 3.9290
 3.7390	 3.9060
 3.7410	 3.8940
 3.7440	 3.7810
 3.7470	 3.7080
 3.7490	 3.7910
 3.7520	 3.8650
 3.7550	 3.8290
 3.7580	 3.8480
 3.7600	 3.8620
 3.7630	 3.8240
 3.7660	 3.8150
 3.7680	 3.9020
 3.7710	 4.0000
 3.7740	 3.9910
 3.7770	 3.8930
 3.7790	 3.8770
 3.7820	 3.8830
 3.7850	 3.8740
 3.7880	 3.8500
 3.7900	 3.8520
 3.7930	 3.9130
 3.7960	 3.9990
 3.7990	 4.0090
 3.8020	 3.8790
 3.8040	 3.8870
 3.8070	 3.9230
 3.8100	 3.8790
 3.8130	 3.8910
 3.8160	 3.8820
 3.8180	 3.8640
 3.8210	 3.8530
 3.8240	 3.8720
 3.8270	 3.8490
 3.8300	 3.8970
 3.8330	 3.9290
 3.8350	 3.9030
 3.8380	 3.8650
 3.8410	 3.9480
 3.8440	 4.0450
 3.8470	 4.0370
 3.8500	 3.9080
 3.8520	 3.8360
 3.8550	 3.9020
 3.8580	 3.9870
 3.8610	 4.0310
 3.8640	 4.0610
 3.8670	 4.0430
 3.8700	 3.9950
 3.8730	 3.9900
 3.8750	 3.9990
 3.8780	 4.0070
 3.8810	 4.0100
 3.8840	 3.9720
 3.8870	 4.0180
 3.8900	 4.0610
 3.8930	 3.9990
 3.8960	 3.9300
 3.8990	 3.9310
 3.9020	 3.9440
 3.9050	 3.9380
 3.9080	 3.9950
 3.9110	 3.9940
 3.9140	 3.9720
 3.9160	 4.0610
 3.9190	 4.0840
 3.9220	 3.9960
 3.9250	 4.0010
 3.9280	 4.0350
 3.9310	 4.0570
 3.9340	 4.0630
 3.9370	 4.0240
 3.9400	 4.0550
 3.9430	 4.0780
 3.9460	 4.0680
 3.9490	 4.0900
 3.9520	 4.1060
 3.9550	 4.0840
 3.9580	 4.1000
 3.9610	 4.1020
 3.9640	 4.0840
 3.9670	 3.9850
 3.9700	 4.0130
 3.9730	 4.1330
 3.9770	 4.0890
 3.9800	 4.0180
 3.9830	 4.0680
 3.9860	 4.1270
 3.9890	 4.0980
 3.9920	 4.0710
 3.9950	 4.0970
 3.9980	 4.1210
 4.0010	 4.1000
 4.0040	 4.0910
 4.0070	 4.0830
 4.0100	 4.0310
 4.0130	 4.0460
 4.0170	 4.0560
 4.0200	 4.0600
 4.0230	 4.0690
 4.0260	 4.1230
 4.0290	 4.1130
 4.0320	 4.0610
 4.0350	 4.0640
 4.0380	 4.0900
 4.0420	 4.1010
 4.0450	 4.1410
 4.0480	 4.1360
 4.0510	 4.0990
 4.0540	 4.0590
 4.0570	 4.1080
 4.0610	 4.1360
 4.0640	 4.1610
 4.0670	 4.1630
 4.0700	 4.1080
 4.0730	 4.0580
 4.0770	 4.0590
 4.0800	 4.0650
 4.0830	 4.1220
 4.0860	 4.1480
 4.0890	 4.0990
 4.0930	 4.0550
 4.0960	 4.0330
 4.0990	 4.0730
 4.1020	 4.1270
 4.1060	 4.1310
 4.1090	 4.1210
 4.1120	 4.0980
 4.1150	 4.1330
 4.1190	 4.1140
 4.1220	 4.0630
 4.1250	 4.0790
 4.1280	 4.1510
 4.1320	 4.1080
 4.1350	 4.0440
 4.1380	 4.0770
 4.1420	 4.0370
 4.1450	 3.9940
 4.1480	 4.0230
 4.1520	 4.0470
 4.1550	 4.0630
 4.1580	 4.0880
 4.1620	 4.0960
 4.1650	 4.0420
 4.1680	 4.0240
 4.1720	 4.0300
 4.1750	 4.0110
 4.1780	 3.9370
 4.1820	 3.9650
 4.1850	 4.0280
 4.1890	 4.0690
 4.1920	 4.0630
 4.1950	 4.0330
 4.1990	 4.0210
 4.2020	 4.1160
 4.2060	 4.1740
 4.2090	 4.1530
 4.2120	 4.1190
 4.2160	 4.2630
 4.2190	 4.2720
 4.2230	 4.2270
 4.2260	 4.2930
 4.2300	 4.5830
 4.2330	 4.7230
 4.2360	 4.5500
 4.2400	 4.4960
 4.2430	 4.4820
 4.2470	 4.2720
 4.2500	 4.3270
 4.2540	 4.2470
 4.2570	 4.2080
 4.2610	 4.1300
 4.2640	 3.9160
 4.2680	 3.8250
 4.2710	 3.9280
 4.2750	 4.1080
 4.2780	 4.2770
 4.2820	 4.1880
 4.2850	 4.2060
 4.2890	 4.2920
 4.2930	 4.2870
 4.2960	 4.2900
 4.3000	 4.3880
 4.3030	 4.2890
 4.3070	 4.3140
 4.3100	 4.2360
 4.3140	 4.2130
 4.3180	 4.1470
 4.3210	 4.0660
 4.3250	 3.9900
 4.3280	 4.0030
 4.3320	 3.9970
 4.3360	 3.9750
 4.3390	 3.8970
 4.3430	 3.8290
 4.3470	 3.8610
 4.3500	 3.9130
 4.3540	 3.9280
 4.3570	 3.9030
 4.3610	 3.9020
 4.3650	 3.9640
 4.3680	 3.8720
 4.3720	 3.7540
 4.3760	 3.7260
 4.3800	 3.7730
 4.3830	 3.8010
 4.3870	 3.8090
 4.3910	 3.7320
 4.3940	 3.7450
 4.3980	 3.7890
 4.4020	 3.7840
 4.4060	 3.7600
 4.4090	 3.7660
 4.4130	 3.6970
 4.4170	 3.7510
 4.4210	 3.8010
 4.4240	 3.7930
 4.4280	 3.7450
 4.4320	 3.6990
 4.4360	 3.6460
 4.4400	 3.6480
 4.4430	 3.6580
 4.4470	 3.7180
 4.4510	 3.7400
 4.4550	 3.6930
 4.4590	 3.7000
 4.4620	 3.7360
 4.4660	 3.7060
 4.4700	 3.7400
 4.4740	 3.7060
 4.4780	 3.6510
 4.4820	 3.6580
 4.4860	 3.6700
 4.4900	 3.6810
 4.4930	 3.7200
 4.4970	 3.6650
 4.5010	 3.6530
 4.5050	 3.6470
 4.5090	 3.6580
 4.5130	 3.6180
 4.5170	 3.6290
 4.5210	 3.6340
 4.5250	 3.6620
 4.5290	 3.6440
 4.5330	 3.6860
 4.5370	 3.6900
 4.5410	 3.6610
 4.5450	 3.6140
 4.5490	 3.5560
 4.5530	 3.5360
 4.5570	 3.5810
 4.5610	 3.6050
 4.5650	 3.6090
 4.5690	 3.5700
 4.5730	 3.5700
 4.5770	 3.5910
 4.5810	 3.5830
 4.5850	 3.5970
 4.5890	 3.6130
 4.5930	 3.5420
 4.5970	 3.5860
 4.6010	 3.6040
 4.6050	 3.6260
 4.6090	 3.5730
 4.6130	 3.5610
 4.6170	 3.5940
 4.6220	 3.6140
 4.6260	 3.5810
 4.6300	 3.6320
 4.6340	 3.6140
 4.6380	 3.5490
 4.6420	 3.4740
 4.6460	 3.5040
 4.6510	 3.5410
 4.6550	 3.5210
 4.6590	 3.5180
 4.6630	 3.5510
 4.6670	 3.4900
 4.6720	 3.5420
 4.6760	 3.5530
 4.6800	 3.5410
 4.6840	 3.5580
 4.6880	 3.6330
 4.6930	 3.6090
 4.6970	 3.5860
 4.7010	 3.6020
 4.7050	 3.6630
 4.7100	 3.6300
 4.7140	 3.5570
 4.7180	 3.4900
 4.7230	 3.5300
 4.7270	 3.5540
 4.7310	 3.6360
 4.7360	 3.6200
 4.7400	 3.5560
 4.7440	 3.5100
 4.7490	 3.5490
 4.7530	 3.5130
 4.7570	 3.5050
 4.7620	 3.5230
 4.7660	 3.5260
 4.7700	 3.4790
 4.7750	 3.5650
 4.7790	 3.5980
 4.7840	 3.5640
 4.7880	 3.4510
 4.7920	 3.4000
 4.7970	 3.4060
 4.8010	 3.4780
 4.8060	 3.4790
 4.8100	 3.5110
 4.8150	 3.5170
 4.8190	 3.5660
 4.8240	 3.5530
 4.8280	 3.5770
 4.8330	 3.5450
 4.8370	 3.5180
 4.8420	 3.5430
 4.8460	 3.5990
 4.8510	 3.5600
 4.8550	 3.6160
 4.8600	 3.6100
 4.8640	 3.5900
 4.8690	 3.5380
 4.8730	 3.5510
 4.8780	 3.5760
 4.8830	 3.5710
 4.8870	 3.5100
 4.8920	 3.5360
 4.8960	 3.5370
 4.9010	 3.5590
 4.9060	 3.5780
 4.9100	 3.6330
 4.9150	 3.6030
 4.9200	 3.5820
 4.9240	 3.5460
 4.9290	 3.5620
 4.9340	 3.5200
 4.9380	 3.5500
 4.9430	 3.5710
 4.9480	 3.6130
 4.9530	 3.5790
 4.9570	 3.6200
 4.9620	 3.5980
 4.9670	 3.5890
 4.9720	 3.5420
 4.9760	 3.5420
 4.9810	 3.5440
 4.9860	 3.5350
 4.9910	 3.4940
 4.9960	 3.5520
 5.0000	 3.6000
 5.0050	 3.6190
 5.0100	 3.5580
 5.0150	 3.6380
 5.0200	 3.6230
 5.0250	 3.5980
 5.0290	 3.6260
 5.0340	 3.6650
 5.0390	 3.5900
 5.0440	 3.5830
 5.0490	 3.5720
 5.0540	 3.6030
 5.0590	 3.6430
 5.0640	 3.6510
 5.0690	 3.6010
 5.0740	 3.6770
 5.0790	 3.6850
 5.0840	 3.6410
 5.0890	 3.6490
 5.0940	 3.7210
 5.0990	 3.7310
 5.1040	 3.7170
 5.1090	 3.6320
 5.1140	 3.6510
 5.1190	 3.6360
 5.1240	 3.7130
 5.1290	 3.6900
 5.1340	 3.6920
 5.1390	 3.7040
 5.1440	 3.7180
 5.1490	 3.6740
 5.1540	 3.7610
 5.1600	 3.7880
 5.1650	 3.7730
 5.1700	 3.7370
 5.1750	 3.7560
 5.1800	 3.7250
 5.1850	 3.7490
 5.1910	 3.6790
 5.1960	 3.6940
 5.2010	 3.6890
 5.2060	 3.7680
 5.2110	 3.8440
 5.2170	 3.8530
 5.2220	 3.7710
 5.2270	 3.7660
 5.2320	 3.7090
 5.2380	 3.6830
 5.2430	 3.6100
 5.2480	 3.5920
 5.2540	 3.6090
 5.2590	 3.6610
 5.2640	 3.6390
 5.2700	 3.6450
 5.2750	 3.6580
 5.2800	 3.6860
 5.2860	 3.6520
 5.2910	 3.7260
 5.2970	 3.7250
 5.3020	 3.7320
 5.3070	 3.6510
 5.3130	 3.6140
 5.3180	 3.5730
 5.3240	 3.6530
 5.3290	 3.6630
 5.3350	 3.6580
 5.3400	 3.5850
 5.3460	 3.6110
 5.3510	 3.6280
 5.3570	 3.6530
 5.3620	 3.5730
 5.3680	 3.6080
 5.3730	 3.6470
 5.3790	 3.6500
 5.3850	 3.6070
 5.3900	 3.6400
 5.3960	 3.6260
 5.4010	 3.6040
 5.4070	 3.6030
 5.4130	 3.6470
 5.4180	 3.6180
 5.4240	 3.6420
 5.4300	 3.5650
 5.4350	 3.5780
 5.4410	 3.5840
 5.4470	 3.6190
 5.4530	 3.5670
 5.4580	 3.6190
 5.4640	 3.6160
 5.4700	 3.6130
 5.4760	 3.5120
 5.4810	 3.4970
 5.4870	 3.5000
 5.4930	 3.5260
 5.4990	 3.4510
 5.5050	 3.4460
 5.5110	 3.3550
 5.5160	 3.3540
 5.5220	 3.3490
 5.5280	 3.3950
 5.5340	 3.3540
 5.5400	 3.3870
 5.5460	 3.3720
 5.5520	 3.3270
 5.5580	 3.2600
 5.5640	 3.2460
 5.5700	 3.2220
 5.5760	 3.2790
 5.5820	 3.2620
 5.5880	 3.2670
 5.5940	 3.2410
 5.6000	 3.2210
 5.6060	 3.1170
 5.6120	 3.1520
 5.6180	 3.1450
 5.6240	 3.1100
 5.6300	 3.0230
 5.6360	 3.0520
 5.6420	 3.0110
 5.6490	 2.9920
 5.6550	 2.9500
 5.6610	 2.9710
 5.6670	 2.8520
 5.6730	 2.8180
 5.6800	 2.6870
 5.6860	 2.6630
 5.6920	 2.5920
 5.6980	 2.5990
 5.7040	 2.5340
 5.7110	 2.4880
 5.7170	 2.3490
 5.7230	 2.2210
 5.7300	 2.0990
 5.7360	 2.0700
 5.7420	 2.0120
 5.7490	 2.2370
 5.7550	 2.6810
 5.7620	 3.2760
 5.7680	 3.8660
 5.7740	 4.3590
 5.7810	 4.5780
 5.7870	 4.6990
 5.7940	 4.5570
 5.8000	 4.4260
 5.8070	 4.2380
 5.8130	 4.1760
 5.8200	 4.1270
 5.8260	 4.1960
 5.8330	 4.1470
 5.8390	 4.1480
 5.8460	 4.1010
 5.8530	 4.1310
 5.8590	 4.1060
 5.8660	 4.1280
 5.8720	 4.1120
 5.8790	 4.1370
 5.8860	 4.0340
 5.8920	 4.0600
 5.8990	 4.0870
 5.9060	 4.1360
 5.9130	 4.1320
 5.9190	 4.1570
 5.9260	 4.0300
 5.9330	 4.1170
 5.9400	 4.1410
 5.9470	 4.1730
 5.9530	 4.1390
 5.9600	 4.2030
 5.9670	 4.1880
 5.9740	 4.2100
 5.9810	 4.1490
 5.9880	 4.1850
 5.9950	 4.0900
 6.0020	 4.0790
 6.0090	 4.0150
 6.0160	 4.0620
 6.0230	 4.0540
 6.0300	 4.1480
 6.0370	 4.1160
 6.0440	 4.1250
 6.0510	 4.0500
 6.0580	 4.0850
 6.0650	 4.1280
 6.0720	 4.3350
 6.0790	 4.2700
 6.0860	 4.2570
 6.0930	 4.2720
 6.1000	 4.3870
 6.1080	 4.4490
 6.1150	 4.5900
 6.1220	 4.5250
 6.1290	 4.5990
 6.1370	 4.6790
 6.1440	 4.8080
 6.1510	 4.7980
 6.1580	 4.9400
 6.1660	 5.0120
 6.1730	 5.0780
 6.1800	 4.9630
 6.1880	 4.8860
 6.1950	 4.8050
 6.2030	 4.7670
 6.2100	 4.6120
 6.2170	 4.6070
 6.2250	 4.4860
 6.2320	 4.5260
 6.2400	 4.4830
 6.2470	 4.4460
 6.2550	 4.3390
 6.2630	 4.3440
 6.2700	 4.2470
 6.2780	 4.2230
 6.2850	 4.1230
 6.2930	 4.1450
 6.3010	 4.0420
 6.3080	 4.0980
 6.3160	 4.0790
 6.3240	 4.0850
 6.3310	 3.9320
 6.3390	 3.9540
 6.3470	 3.9230
 6.3550	 4.0040
 6.3620	 3.9560
 6.3700	 3.9370
 6.3780	 3.8720
 6.3860	 3.9670
 6.3940	 3.8920
 6.4020	 3.8520
 6.4100	 3.8890
 6.4180	 3.9870
 6.4260	 3.8770
 6.4330	 3.9290
 6.4410	 3.8860
 6.4490	 3.8590
 6.4580	 3.8040
 6.4660	 3.8090
 6.4740	 3.7330
 6.4820	 3.8150
 6.4900	 3.8040
 6.4980	 3.8030
 6.5060	 3.7010
 6.5140	 3.6970
 6.5230	 3.5900
 6.5310	 3.6520
 6.5390	 3.6130
 6.5470	 3.6660
 6.5550	 3.5460
 6.5640	 3.5340
 6.5720	 3.4980
 6.5800	 3.5960
 6.5890	 3.5440
 6.5970	 3.5310
 6.6060	 3.4660
 6.6140	 3.5460
 6.6220	 3.4870
 6.6310	 3.5200
 6.6390	 3.4080
 6.6480	 3.4020
 6.6560	 3.4130
 6.6650	 3.5330
 6.6740	 3.4050
 6.6820	 3.3640
 6.6910	 3.3640
 6.6990	 3.4010
 6.7080	 3.2610
 6.7170	 3.3170
 6.7260	 3.3340
 6.7340	 3.3340
 6.7430	 3.1810
 6.7520	 3.1260
 6.7610	 3.0520
 6.7690	 3.1310
 6.7780	 3.2470
 6.7870	 3.5410
 6.7960	 3.6100
 6.8050	 3.6470
 6.8140	 3.5920
 6.8230	 3.6950
 6.8320	 3.7730
 6.8410	 3.9750
 6.8500	 3.8830
 6.8590	 3.8690
 6.8680	 3.8460
 6.8770	 3.8480
 6.8860	 3.7130
 6.8950	 3.7380
 6.9050	 3.6930
 6.9140	 3.6870
 6.9230	 3.5330
 6.9320	 3.5650
 6.9420	 3.4970
 6.9510	 3.6110
 6.9600	 3.5620
 6.9700	 3.5520
 6.9790	 3.5260
 6.9880	 3.5880
 6.9980	 3.4360
 7.0070	 3.4980
 7.0170	 3.4540
 7.0260	 3.4420
 7.0360	 3.3870
 7.0450	 3.5050
 7.0550	 3.5560
 7.0650	 3.6340
 7.0740	 3.5640
 7.0840	 3.6810
 7.0940	 3.6820
 7.1030	 3.7160
 7.1130	 3.6020
 7.1230	 3.6460
 7.1330	 3.6550
 7.1420	 3.7220
 7.1520	 3.5990
 7.1620	 3.6130
 7.1720	 3.5580
 7.1820	 3.6180
 7.1920	 3.5290
 7.2020	 3.6050
 7.2120	 3.5200
 7.2220	 3.5450
 7.2320	 3.5410
 7.2420	 3.6410
 7.2520	 3.5740
 7.2620	 3.6460
 7.2730	 3.6360
 7.2830	 3.6960
 7.2930	 3.5050
 7.3030	 3.5130
 7.3140	 3.4670
 7.3240	 3.5330
 7.3340	 3.4490
 7.3450	 3.5430
 7.3550	 3.4570
 7.3660	 3.4280
 7.3760	 3.3870
 7.3870	 3.4870
 7.3970	 3.3760
 7.4080	 3.3820
 7.4180	 3.3220
 7.4290	 3.4250
 7.4400	 3.3950
 7.4500	 3.4250
 7.4610	 3.4080
 7.4720	 3.5350
 7.4830	 3.5000
 7.4930	 3.5780
 7.5040	 3.4870
 7.5150	 3.6010
 7.5260	 3.6670
 7.5370	 3.8140
 7.5480	 3.7570
 7.5590	 3.9170
 7.5700	 3.9930
 7.5810	 4.1960
 7.5920	 4.2510
 7.6030	 4.4030
 7.6140	 4.3020
 7.6260	 4.2050
 7.6370	 3.9460
 7.6480	 3.8380
 7.6590	 3.6940
 7.6710	 3.7900
 7.6820	 3.6390
 7.6930	 3.6260
 7.7050	 3.6330
 7.7160	 3.6640
 7.7280	 3.5290
 7.7390	 3.5310
 7.7510	 3.4700
 7.7630	 3.5800
 7.7740	 3.4950
 7.7860	 3.5690
 7.7980	 3.5190
 7.8090	 3.5560
 7.8210	 3.4600
 7.8330	 3.5130
 7.8450	 3.4220
 7.8570	 3.5000
 7.8690	 3.4930
 7.8810	 3.5430
 7.8930	 3.4200
 7.9050	 3.5060
 7.9170	 3.4670
 7.9290	 3.5520
 7.9410	 3.4250
 7.9530	 3.4760
 7.9650	 3.4110
 7.9780	 3.4760
 7.9900	 3.3230
 8.0020	 3.3760
 8.0150	 3.3610
 8.0270	 3.4390
 8.0390	 3.3260
 8.0520	 3.4220
 8.0640	 3.3830
 8.0770	 3.5380
 8.0900	 3.3780
 8.1020	 3.3960
 8.1150	 3.3130
 8.1280	 3.4710
 8.1400	 3.3590
 8.1530	 3.5240
 8.1660	 3.5080
 8.1790	 3.4550
 8.1920	 3.2970
 8.2050	 3.4600
 8.2180	 3.3630
 8.2310	 3.4610
 8.2440	 3.4030
 8.2570	 3.5190
 8.2700	 3.3950
 8.2830	 3.4260
 8.2970	 3.2650
 8.3100	 3.4730
 8.3230	 3.5030
 8.3370	 3.5880
 8.3500	 3.4790
 8.3640	 3.5370
 8.3770	 3.3840
 8.3910	 3.4800
 8.4040	 3.3290
 8.4180	 3.3950
 8.4320	 3.2910
 8.4450	 3.4090
 8.4590	 3.4300
 8.4730	 3.6530
 8.4870	 3.4830
 8.5010	 3.5660
 8.5150	 3.4940
 8.5290	 3.5930
 8.5430	 3.4460
 8.5570	 3.5630
 8.5710	 3.5180
 8.5850	 3.6440
 8.5990	 3.5850
 8.6140	 3.6380
 8.6280	 3.4000
 8.6420	 3.5070
 8.6570	 3.4030
 8.6710	 3.5690
 8.6860	 3.5320
 8.7000	 3.6440
 8.7150	 3.4680
 8.7300	 3.5640
 8.7440	 3.4410
 8.7590	 3.4990
 8.7740	 3.3530
 8.7890	 3.4370
 8.8040	 3.4010
 8.8190	 3.6250
 8.8340	 3.4880
 8.8490	 3.6670
 8.8640	 3.6150
 8.8790	 3.6990
 8.8940	 3.5270
 8.9100	 3.6080
 8.9250	 3.4840
 8.9400	 3.4850
 8.9560	 3.3420
 8.9710	 3.5690
 8.9870	 3.4760
 9.0020	 3.4800
 9.0180	 3.4770
 9.0340	 3.6860
 9.0500	 3.5540
 9.0650	 3.6490
 9.0810	 3.5110
 9.0970	 3.6300
 9.1130	 3.4800
 9.1290	 3.6370
 9.1450	 3.5010
 9.1610	 3.4900
 9.1780	 3.2750
 9.1940	 3.6110
 9.2100	 3.5770
 9.2270	 3.7040
 9.2430	 3.5390
 9.2600	 3.5910
 9.2760	 3.3970
 9.2930	 3.7180
 9.3090	 3.6160
 9.3260	 3.5490
 9.3430	 3.3630
 9.3600	 3.6190
 9.3770	 3.5830
 9.3940	 3.7560
 9.4110	 3.7200
 9.4280	 3.8520
 9.4450	 3.5770
 9.4620	 3.5480
 9.4800	 3.3940
 9.4970	 3.6230
 9.5140	 3.5710
 9.5320	 3.8030
 9.5500	 3.5850
 9.5670	 3.6540
 9.5850	 3.5720
 9.6030	 3.7860
 9.6200	 3.5910
 9.6380	 3.6820
 9.6560	 3.6530
 9.6740	 3.7930
 9.6920	 3.6370
 9.7100	 3.8600
 9.7290	 3.6860
 9.7470	 3.6780
 9.7650	 3.4710
 9.7840	 3.5820
 9.8020	 3.4130
 9.8210	 3.5590
 9.8390	 3.5000
 9.8580	 3.6500
 9.8770	 3.4790
 9.8960	 3.6130
 9.9150	 3.6060
 9.9340	 3.8720
 9.9530	 3.6860
 9.9720	 3.7080
 9.9910	 3.6220
10.0100	 3.7620
10.0300	 3.5660
10.0490	 3.6410
10.0690	 3.4630
10.0880	 3.6040
10.1080	 3.6330
10.1280	 3.7940
10.1480	 3.5310
10.1670	 3.6000
10.1870	 3.4460
10.2070	 3.5850
10.2280	 3.4700
10.2480	 3.5780
10.2680	 3.4400
10.2890	 3.5180
10.3090	 3.2340
10.3300	 3.3370
10.3500	 3.3030
10.3710	 3.5390
10.3920	 3.4670
10.4120	 3.6680
10.4330	 3.4260
10.4540	 3.5690
10.4760	 3.4870
10.4970	 3.5230
10.5180	 3.3910
10.5390	 3.5790
10.5610	 3.4810
10.5820	 3.6600
10.6040	 3.4700
10.6260	 3.5260
10.6480	 3.3560
10.6700	 3.5220
10.6920	 3.3500
10.7140	 3.4200
10.7360	 3.3200
10.7580	 3.5200
10.7800	 3.3490
10.8030	 3.4980
10.8250	 3.3900
10.8480	 3.6210
10.8710	 3.5420
10.8940	 3.7430
10.9170	 3.5970
10.9400	 3.8020
10.9630	 3.6420
10.9860	 3.5890
11.0090	 3.3550
11.0330	 3.5980
11.0560	 3.5250
11.0800	 3.5040
11.1040	 2.9360
11.1270	 3.1370
11.1510	 3.3350
11.1750	 3.5430
11.2000	 3.4760
11.2240	 3.6810
11.2480	 3.4710
11.2730	 3.4030
11.2970	 3.0440
11.3220	 3.2960
11.3470	 3.2950
11.3720	 3.5050
11.3970	 3.3540
11.4220	 3.6200
11.4470	 3.4350
11.4720	 3.5150
11.4980	 3.3130
11.5230	 3.3850
11.5490	 3.2190
11.5750	 3.5020
11.6000	 3.4160
11.6260	 3.5880
11.6530	 3.4290
11.6790	 3.5420
11.7050	 3.3050
11.7320	 3.5060
11.7580	 3.3320
11.7850	 3.5250
11.8120	 3.2440
11.8390	 3.3190
11.8660	 3.2830
11.8930	 3.4790
11.9200	 3.1550
11.9480	 3.3740
11.9760	 3.2710
12.0030	 3.4770
12.0310	 3.2910
12.0590	 3.6000
12.0870	 3.4970
12.1150	 3.6120
12.1440	 3.3020
12.1720	 3.3750
12.2010	 3.2360
12.2300	 3.6280
12.2590	 3.4360
12.2880	 3.4760
12.3170	 3.2230
12.3460	 3.4920
12.3760	 3.4520
12.4050	 3.8620
12.4350	 3.6620
12.4650	 3.9410
12.4950	 3.6730
12.5250	 3.7690
12.5550	 3.5090
12.5860	 3.7750
12.6170	 3.5310
12.6470	 3.8080
12.6780	 3.6950
12.7090	 4.0230
12.7410	 3.9840
12.7720	 4.2040
12.8030	 3.7760
12.8350	 3.7230
12.8670	 3.3710
12.8990	 3.3120
12.9310	 3.0540
12.9640	 3.4430
12.9960	 3.1190
13.0290	 3.1730
13.0610	 2.9750
13.0940	 3.2760
13.1280	 2.9230
13.1610	 3.2250
13.1940	 3.0970
13.2280	 3.1020
13.2620	 2.8280
13.2960	 3.2940
13.3300	 2.9900
13.3640	 3.1500
13.3990	 2.8710
13.4340	 2.9620
13.4690	 2.7330
13.5040	 3.1040
13.5390	 2.9510
13.5740	 3.3320
13.6100	 3.0590
13.6460	 3.2000
13.6820	 3.1390
13.7180	 3.8540
13.7540	 3.8880
13.7910	 3.9220
13.8280	 3.4140
13.8650	 3.9330
13.9020	 3.7120
13.9390	 3.9410
13.9770	 3.5880
14.0150	 3.8930
14.0530	 3.5650
14.0910	 3.9420
14.1290	 3.6700
14.1680	 4.0540
14.2070	 3.6700
14.2460	 4.0480
14.2850	 3.7680
14.3240	 3.8730
14.3640	 3.2680
14.4040	 3.8490
14.4440	 3.7890
14.4840	 4.2720
14.5250	 3.5080
14.5660	 3.6230
14.6070	 3.1340
14.6480	 3.7110
14.6900	 3.3960
14.7310	 3.8250
14.7730	 3.3930
14.8150	 3.7150
14.8580	 3.0870
14.9010	 3.8850
14.9440	 3.7040
14.9870	 4.4310
15.0300	 3.1490
15.0740	 3.7670
15.1180	 3.4680
15.1620	 3.9150
15.2060	 3.2220
15.2510	 3.9030
15.2960	 3.0820
15.3410	 3.4090
15.3870	 2.3820
