Name: Umbellularia californica 2
Type: vegetation
Class: Shrub
Genus: Umbellularia
Species: californica
Sample No.: VH105
Owner: UCSB
Wavelength Range: TIR
Origin: 34.5074; -119.7632; WGS84
Collection Date: 6/3/2013
Description: Samples were collected as part of the HyspIRI Airborne Campaign. 48 individual plants were sampled in three times in 2013 - spring  summer  and fall. The name of the sample includes a 1  2  or 3 which references a different individual of the species. Samples were taken to JPL and processed within 48 hours of collection. The same leaves were processed in the Nicolet and then measured using the ASD.
Measurement: Hemispherical reflectance
First Column: X
Second Column: Y
X Units: Wavelength (micrometers)
Y Units: Reflectance (percentage)
First X Value: 2.501
Last X Value: 15.387
Number of X Values: 1737
Additional Information: vegetation.shrub.umbellularia.californica.tir.vh105.ucsb.nicolet.ancillary.txt

 2.5010	 3.7300
 2.5030	 3.7530
 2.5040	 3.8020
 2.5050	 3.8110
 2.5060	 3.8000
 2.5070	 3.8010
 2.5090	 3.8610
 2.5100	 3.8480
 2.5110	 3.8180
 2.5120	 3.7750
 2.5140	 3.7940
 2.5150	 3.8140
 2.5160	 3.8120
 2.5170	 3.7710
 2.5180	 3.7970
 2.5200	 3.8070
 2.5210	 3.8170
 2.5220	 3.8220
 2.5230	 3.8430
 2.5250	 3.8160
 2.5260	 3.8330
 2.5270	 3.8360
 2.5280	 3.8330
 2.5290	 3.8250
 2.5310	 3.8600
 2.5320	 3.8330
 2.5330	 3.8680
 2.5340	 3.8580
 2.5360	 3.8560
 2.5370	 3.8320
 2.5380	 3.8640
 2.5390	 3.9030
 2.5410	 3.9420
 2.5420	 3.9680
 2.5430	 3.9800
 2.5440	 3.9010
 2.5460	 3.8790
 2.5470	 3.8840
 2.5480	 3.9290
 2.5490	 3.9250
 2.5510	 3.9030
 2.5520	 3.8890
 2.5530	 3.9450
 2.5540	 4.0120
 2.5560	 4.0350
 2.5570	 3.9870
 2.5580	 3.9940
 2.5590	 3.9830
 2.5610	 4.0270
 2.5620	 4.0500
 2.5630	 4.0670
 2.5640	 4.0850
 2.5660	 4.1090
 2.5670	 4.0700
 2.5680	 4.0880
 2.5700	 4.0230
 2.5710	 3.9920
 2.5720	 4.0340
 2.5730	 4.0690
 2.5750	 4.0480
 2.5760	 4.0510
 2.5770	 4.0590
 2.5790	 4.0770
 2.5800	 4.1140
 2.5810	 4.1390
 2.5820	 4.0840
 2.5840	 4.1000
 2.5850	 4.1010
 2.5860	 4.1170
 2.5880	 4.1360
 2.5890	 4.1650
 2.5900	 4.1480
 2.5910	 4.1510
 2.5930	 4.1580
 2.5940	 4.1840
 2.5950	 4.1240
 2.5970	 4.1290
 2.5980	 4.1470
 2.5990	 4.1610
 2.6000	 4.1480
 2.6020	 4.1380
 2.6030	 4.0870
 2.6040	 4.0820
 2.6060	 4.0830
 2.6070	 4.1070
 2.6080	 4.0910
 2.6100	 4.1090
 2.6110	 4.0750
 2.6120	 4.1000
 2.6140	 4.1090
 2.6150	 4.1160
 2.6160	 4.0580
 2.6180	 4.0630
 2.6190	 4.0840
 2.6200	 4.0900
 2.6220	 4.0600
 2.6230	 4.0810
 2.6240	 4.0450
 2.6260	 4.0930
 2.6270	 4.0540
 2.6280	 4.0040
 2.6300	 4.0010
 2.6310	 4.0010
 2.6320	 3.9460
 2.6340	 3.9370
 2.6350	 3.9450
 2.6360	 3.9720
 2.6380	 4.0120
 2.6390	 4.0140
 2.6400	 3.9400
 2.6420	 3.9160
 2.6430	 3.8910
 2.6440	 3.8850
 2.6460	 3.8610
 2.6470	 3.9070
 2.6480	 3.8550
 2.6500	 3.8200
 2.6510	 3.8390
 2.6520	 3.8380
 2.6540	 3.7630
 2.6550	 3.7870
 2.6560	 3.8320
 2.6580	 3.8460
 2.6590	 3.7770
 2.6610	 3.7410
 2.6620	 3.7300
 2.6630	 3.7880
 2.6650	 3.7340
 2.6660	 3.6550
 2.6670	 3.6160
 2.6690	 3.6460
 2.6700	 3.5880
 2.6720	 3.5910
 2.6730	 3.5690
 2.6740	 3.5310
 2.6760	 3.4930
 2.6770	 3.4800
 2.6780	 3.4150
 2.6800	 3.4410
 2.6810	 3.4280
 2.6830	 3.4060
 2.6840	 3.3550
 2.6850	 3.3490
 2.6870	 3.3390
 2.6880	 3.3970
 2.6900	 3.4210
 2.6910	 3.4030
 2.6920	 3.3570
 2.6940	 3.3630
 2.6950	 3.3080
 2.6970	 3.2090
 2.6980	 3.2100
 2.6990	 3.2880
 2.7010	 3.2510
 2.7020	 3.2140
 2.7040	 3.1770
 2.7050	 3.1820
 2.7060	 3.1740
 2.7080	 3.1590
 2.7090	 3.1250
 2.7110	 3.1520
 2.7120	 3.1500
 2.7130	 3.1900
 2.7150	 3.1940
 2.7160	 3.1710
 2.7180	 3.1090
 2.7190	 3.1120
 2.7210	 3.0670
 2.7220	 3.0560
 2.7230	 3.0670
 2.7250	 3.0750
 2.7260	 3.0820
 2.7280	 3.1090
 2.7290	 3.0580
 2.7310	 3.0740
 2.7320	 3.0600
 2.7330	 3.0430
 2.7350	 3.0140
 2.7360	 3.0380
 2.7380	 2.9760
 2.7390	 2.9520
 2.7410	 2.9420
 2.7420	 2.9790
 2.7440	 2.9700
 2.7450	 2.9510
 2.7470	 2.9600
 2.7480	 2.9950
 2.7490	 2.9350
 2.7510	 2.9380
 2.7520	 2.9400
 2.7540	 2.9310
 2.7550	 2.8660
 2.7570	 2.8600
 2.7580	 2.8310
 2.7600	 2.8800
 2.7610	 2.8790
 2.7630	 2.9370
 2.7640	 2.9160
 2.7660	 2.9500
 2.7670	 2.9530
 2.7680	 2.9660
 2.7700	 2.9430
 2.7710	 2.9370
 2.7730	 2.9120
 2.7740	 2.9080
 2.7760	 2.9230
 2.7770	 2.9000
 2.7790	 2.8830
 2.7800	 2.8930
 2.7820	 2.8260
 2.7830	 2.8170
 2.7850	 2.8030
 2.7860	 2.7760
 2.7880	 2.8210
 2.7890	 2.9640
 2.7910	 2.9250
 2.7920	 2.8780
 2.7940	 2.8420
 2.7950	 2.8490
 2.7970	 2.8280
 2.7980	 2.8840
 2.8000	 2.8930
 2.8010	 2.8900
 2.8030	 2.8560
 2.8040	 2.8460
 2.8060	 2.8200
 2.8070	 2.8270
 2.8090	 2.8270
 2.8110	 2.8740
 2.8120	 2.8480
 2.8140	 2.8420
 2.8150	 2.8030
 2.8170	 2.8190
 2.8180	 2.8090
 2.8200	 2.8320
 2.8210	 2.8130
 2.8230	 2.8150
 2.8240	 2.8300
 2.8260	 2.8550
 2.8270	 2.8420
 2.8290	 2.8470
 2.8300	 2.7660
 2.8320	 2.7840
 2.8340	 2.8330
 2.8350	 2.8280
 2.8370	 2.8140
 2.8380	 2.8350
 2.8400	 2.8010
 2.8410	 2.8080
 2.8430	 2.8220
 2.8440	 2.8080
 2.8460	 2.7550
 2.8480	 2.7800
 2.8490	 2.7640
 2.8510	 2.7970
 2.8520	 2.8040
 2.8540	 2.7740
 2.8550	 2.7540
 2.8570	 2.7980
 2.8590	 2.8200
 2.8600	 2.8420
 2.8620	 2.7670
 2.8630	 2.7320
 2.8650	 2.7370
 2.8660	 2.7570
 2.8680	 2.7380
 2.8700	 2.7480
 2.8710	 2.7380
 2.8730	 2.7820
 2.8740	 2.8140
 2.8760	 2.8230
 2.8780	 2.7290
 2.8790	 2.7250
 2.8810	 2.7690
 2.8820	 2.8240
 2.8840	 2.8250
 2.8860	 2.7920
 2.8870	 2.7430
 2.8890	 2.7830
 2.8900	 2.7200
 2.8920	 2.7360
 2.8940	 2.7370
 2.8950	 2.7520
 2.8970	 2.7680
 2.8980	 2.7970
 2.9000	 2.7640
 2.9020	 2.7740
 2.9030	 2.7760
 2.9050	 2.7880
 2.9070	 2.7790
 2.9080	 2.8100
 2.9100	 2.7700
 2.9120	 2.7850
 2.9130	 2.8080
 2.9150	 2.8510
 2.9160	 2.8570
 2.9180	 2.9030
 2.9200	 2.8550
 2.9210	 2.8130
 2.9230	 2.7780
 2.9250	 2.8060
 2.9260	 2.7910
 2.9280	 2.8260
 2.9300	 2.8030
 2.9310	 2.7860
 2.9330	 2.8080
 2.9350	 2.8740
 2.9360	 2.8270
 2.9380	 2.8060
 2.9400	 2.8450
 2.9410	 2.9230
 2.9430	 2.8980
 2.9450	 2.8670
 2.9460	 2.8630
 2.9480	 2.8450
 2.9500	 2.8090
 2.9510	 2.8870
 2.9530	 2.9020
 2.9550	 2.8990
 2.9560	 2.8550
 2.9580	 2.8980
 2.9600	 2.9060
 2.9610	 2.9580
 2.9630	 2.9430
 2.9650	 2.9290
 2.9660	 2.9540
 2.9680	 2.9770
 2.9700	 2.9260
 2.9720	 2.9430
 2.9730	 2.9170
 2.9750	 2.9180
 2.9770	 2.9360
 2.9780	 3.0050
 2.9800	 3.0450
 2.9820	 3.0530
 2.9840	 3.0020
 2.9850	 3.0130
 2.9870	 2.9980
 2.9890	 3.0170
 2.9900	 3.0440
 2.9920	 3.0750
 2.9940	 3.0470
 2.9960	 3.0530
 2.9970	 3.0410
 2.9990	 3.0480
 3.0010	 3.0270
 3.0030	 3.0820
 3.0040	 3.0960
 3.0060	 3.0690
 3.0080	 3.0580
 3.0100	 3.1030
 3.0110	 3.0810
 3.0130	 3.1310
 3.0150	 3.1380
 3.0170	 3.1290
 3.0180	 3.1260
 3.0200	 3.1580
 3.0220	 3.1290
 3.0240	 3.1200
 3.0250	 3.0780
 3.0270	 3.1270
 3.0290	 3.1700
 3.0310	 3.1780
 3.0320	 3.1360
 3.0340	 3.1960
 3.0360	 3.1780
 3.0380	 3.2210
 3.0400	 3.2460
 3.0410	 3.2800
 3.0430	 3.2690
 3.0450	 3.2550
 3.0470	 3.2310
 3.0480	 3.2570
 3.0500	 3.2400
 3.0520	 3.2230
 3.0540	 3.2270
 3.0560	 3.2540
 3.0570	 3.2420
 3.0590	 3.2550
 3.0610	 3.2730
 3.0630	 3.3350
 3.0650	 3.3470
 3.0660	 3.3320
 3.0680	 3.2970
 3.0700	 3.3470
 3.0720	 3.3310
 3.0740	 3.3610
 3.0760	 3.3630
 3.0770	 3.3420
 3.0790	 3.3300
 3.0810	 3.3510
 3.0830	 3.3240
 3.0850	 3.3740
 3.0870	 3.4050
 3.0880	 3.4290
 3.0900	 3.4060
 3.0920	 3.4290
 3.0940	 3.3950
 3.0960	 3.4040
 3.0980	 3.3600
 3.0990	 3.3640
 3.1010	 3.3690
 3.1030	 3.3980
 3.1050	 3.4070
 3.1070	 3.4350
 3.1090	 3.4300
 3.1110	 3.4220
 3.1120	 3.3880
 3.1140	 3.4280
 3.1160	 3.4730
 3.1180	 3.5050
 3.1200	 3.4950
 3.1220	 3.5010
 3.1240	 3.4830
 3.1260	 3.4540
 3.1270	 3.4200
 3.1290	 3.4810
 3.1310	 3.5530
 3.1330	 3.5980
 3.1350	 3.5490
 3.1370	 3.5590
 3.1390	 3.5460
 3.1410	 3.5500
 3.1430	 3.5670
 3.1450	 3.6000
 3.1460	 3.5630
 3.1480	 3.5290
 3.1500	 3.5110
 3.1520	 3.5540
 3.1540	 3.5680
 3.1560	 3.5740
 3.1580	 3.5740
 3.1600	 3.6020
 3.1620	 3.5600
 3.1640	 3.5830
 3.1660	 3.6040
 3.1680	 3.6590
 3.1700	 3.6420
 3.1710	 3.6840
 3.1730	 3.7110
 3.1750	 3.7180
 3.1770	 3.6720
 3.1790	 3.6640
 3.1810	 3.6430
 3.1830	 3.6550
 3.1850	 3.6520
 3.1870	 3.6620
 3.1890	 3.6150
 3.1910	 3.6820
 3.1930	 3.7120
 3.1950	 3.7020
 3.1970	 3.6800
 3.1990	 3.7250
 3.2010	 3.7040
 3.2030	 3.7130
 3.2050	 3.7160
 3.2070	 3.7680
 3.2090	 3.7810
 3.2110	 3.7730
 3.2130	 3.6890
 3.2150	 3.7320
 3.2170	 3.7860
 3.2190	 3.8030
 3.2210	 3.7570
 3.2230	 3.7440
 3.2250	 3.7660
 3.2270	 3.7950
 3.2290	 3.7820
 3.2310	 3.7750
 3.2330	 3.7760
 3.2350	 3.8040
 3.2370	 3.7450
 3.2390	 3.6900
 3.2410	 3.7190
 3.2430	 3.8460
 3.2450	 3.8620
 3.2470	 3.8550
 3.2490	 3.8420
 3.2510	 3.8480
 3.2530	 3.8290
 3.2550	 3.8510
 3.2570	 3.8420
 3.2590	 3.8650
 3.2610	 3.8500
 3.2630	 3.8660
 3.2650	 3.8430
 3.2670	 3.8760
 3.2690	 3.9050
 3.2720	 3.9110
 3.2740	 3.8620
 3.2760	 3.8480
 3.2780	 3.8800
 3.2800	 3.9340
 3.2820	 3.9170
 3.2840	 3.9090
 3.2860	 3.8540
 3.2880	 3.8820
 3.2900	 3.9360
 3.2920	 3.9160
 3.2940	 3.8930
 3.2960	 3.9410
 3.2990	 3.9240
 3.3010	 3.9080
 3.3030	 3.8900
 3.3050	 3.9160
 3.3070	 3.9360
 3.3090	 3.9760
 3.3110	 3.9480
 3.3130	 3.9180
 3.3150	 3.8920
 3.3180	 3.9200
 3.3200	 3.9180
 3.3220	 3.9090
 3.3240	 3.8740
 3.3260	 3.8870
 3.3280	 3.9000
 3.3300	 3.9310
 3.3330	 3.9340
 3.3350	 3.9470
 3.3370	 3.9390
 3.3390	 3.9310
 3.3410	 3.8730
 3.3430	 3.8850
 3.3450	 3.8490
 3.3480	 3.8720
 3.3500	 3.8460
 3.3520	 3.8050
 3.3540	 3.7980
 3.3560	 3.8220
 3.3580	 3.7710
 3.3610	 3.7520
 3.3630	 3.7100
 3.3650	 3.7250
 3.3670	 3.6630
 3.3690	 3.6060
 3.3720	 3.5960
 3.3740	 3.6100
 3.3760	 3.5690
 3.3780	 3.5980
 3.3800	 3.6120
 3.3830	 3.6500
 3.3850	 3.6620
 3.3870	 3.6420
 3.3890	 3.6290
 3.3910	 3.5800
 3.3940	 3.5790
 3.3960	 3.6490
 3.3980	 3.5590
 3.4000	 3.5160
 3.4020	 3.5570
 3.4050	 3.6250
 3.4070	 3.6680
 3.4090	 3.7270
 3.4110	 3.7630
 3.4140	 3.8860
 3.4160	 4.0290
 3.4180	 4.2610
 3.4200	 4.5640
 3.4230	 5.0460
 3.4250	 5.6510
 3.4270	 6.3040
 3.4290	 6.7370
 3.4320	 6.7170
 3.4340	 6.3620
 3.4360	 6.0200
 3.4390	 5.6940
 3.4410	 5.4610
 3.4430	 5.3160
 3.4450	 5.2460
 3.4480	 5.1530
 3.4500	 5.0970
 3.4520	 5.0160
 3.4550	 5.0020
 3.4570	 4.9860
 3.4590	 4.9700
 3.4620	 4.9600
 3.4640	 4.9540
 3.4660	 4.8670
 3.4680	 4.7980
 3.4710	 4.7500
 3.4730	 4.7370
 3.4750	 4.6850
 3.4780	 4.6680
 3.4800	 4.6210
 3.4820	 4.5480
 3.4850	 4.4620
 3.4870	 4.4250
 3.4890	 4.3550
 3.4920	 4.3550
 3.4940	 4.3590
 3.4970	 4.3200
 3.4990	 4.2850
 3.5010	 4.3890
 3.5040	 4.5810
 3.5060	 5.0370
 3.5080	 5.8390
 3.5110	 6.6850
 3.5130	 6.9010
 3.5160	 6.6090
 3.5180	 6.2240
 3.5200	 5.9840
 3.5230	 5.7960
 3.5250	 5.6640
 3.5270	 5.5470
 3.5300	 5.5040
 3.5320	 5.4280
 3.5350	 5.3510
 3.5370	 5.2850
 3.5400	 5.2970
 3.5420	 5.2890
 3.5440	 5.2640
 3.5470	 5.2080
 3.5490	 5.2030
 3.5520	 5.1850
 3.5540	 5.2020
 3.5570	 5.1880
 3.5590	 5.1410
 3.5610	 5.1150
 3.5640	 5.2010
 3.5660	 5.2010
 3.5690	 5.1870
 3.5710	 5.0970
 3.5740	 5.0850
 3.5760	 5.0810
 3.5790	 5.1310
 3.5810	 5.1060
 3.5840	 5.0890
 3.5860	 5.1210
 3.5890	 5.1340
 3.5910	 5.0620
 3.5930	 5.0790
 3.5960	 5.0690
 3.5980	 5.0920
 3.6010	 5.0920
 3.6030	 5.1450
 3.6060	 5.1130
 3.6080	 5.0540
 3.6110	 5.0360
 3.6140	 5.0690
 3.6160	 5.0990
 3.6190	 5.1060
 3.6210	 5.0740
 3.6240	 5.1040
 3.6260	 5.1270
 3.6290	 5.1530
 3.6310	 5.1280
 3.6340	 5.1420
 3.6360	 5.1180
 3.6390	 5.0940
 3.6410	 5.0240
 3.6440	 5.0390
 3.6470	 5.1090
 3.6490	 5.1230
 3.6520	 5.0460
 3.6540	 5.0620
 3.6570	 5.0970
 3.6590	 5.0770
 3.6620	 5.0680
 3.6650	 5.1240
 3.6670	 5.0810
 3.6700	 5.1120
 3.6720	 5.1240
 3.6750	 5.1180
 3.6780	 5.0870
 3.6800	 5.0980
 3.6830	 5.1300
 3.6850	 5.1610
 3.6880	 5.1530
 3.6910	 5.1310
 3.6930	 5.0990
 3.6960	 5.1360
 3.6990	 5.1260
 3.7010	 5.1610
 3.7040	 5.1720
 3.7060	 5.1850
 3.7090	 5.1710
 3.7120	 5.1870
 3.7140	 5.1920
 3.7170	 5.1740
 3.7200	 5.1430
 3.7220	 5.2020
 3.7250	 5.2130
 3.7280	 5.1960
 3.7300	 5.1270
 3.7330	 5.1180
 3.7360	 5.1100
 3.7390	 5.1520
 3.7410	 5.1940
 3.7440	 5.2130
 3.7470	 5.2040
 3.7490	 5.2420
 3.7520	 5.2310
 3.7550	 5.2260
 3.7580	 5.2140
 3.7600	 5.2080
 3.7630	 5.2210
 3.7660	 5.2800
 3.7680	 5.3090
 3.7710	 5.2840
 3.7740	 5.2650
 3.7770	 5.2850
 3.7790	 5.2480
 3.7820	 5.2840
 3.7850	 5.2950
 3.7880	 5.2860
 3.7900	 5.3000
 3.7930	 5.2820
 3.7960	 5.2300
 3.7990	 5.2860
 3.8020	 5.3240
 3.8040	 5.3480
 3.8070	 5.3140
 3.8100	 5.3190
 3.8130	 5.3440
 3.8160	 5.3910
 3.8180	 5.3930
 3.8210	 5.4130
 3.8240	 5.4090
 3.8270	 5.3920
 3.8300	 5.4030
 3.8330	 5.4390
 3.8350	 5.3980
 3.8380	 5.4030
 3.8410	 5.4170
 3.8440	 5.4430
 3.8470	 5.4150
 3.8500	 5.3820
 3.8520	 5.4040
 3.8550	 5.4450
 3.8580	 5.4160
 3.8610	 5.4230
 3.8640	 5.4160
 3.8670	 5.4240
 3.8700	 5.4140
 3.8730	 5.4300
 3.8750	 5.4310
 3.8780	 5.4630
 3.8810	 5.4960
 3.8840	 5.5130
 3.8870	 5.4740
 3.8900	 5.4980
 3.8930	 5.4910
 3.8960	 5.5020
 3.8990	 5.4850
 3.9020	 5.4320
 3.9050	 5.4680
 3.9080	 5.5770
 3.9110	 5.5890
 3.9140	 5.5520
 3.9160	 5.4950
 3.9190	 5.4830
 3.9220	 5.5350
 3.9250	 5.5740
 3.9280	 5.5160
 3.9310	 5.5200
 3.9340	 5.5120
 3.9370	 5.5240
 3.9400	 5.5160
 3.9430	 5.5390
 3.9460	 5.5620
 3.9490	 5.5850
 3.9520	 5.5660
 3.9550	 5.5960
 3.9580	 5.6060
 3.9610	 5.5580
 3.9640	 5.5540
 3.9670	 5.6610
 3.9700	 5.6490
 3.9730	 5.6050
 3.9770	 5.5800
 3.9800	 5.5960
 3.9830	 5.6240
 3.9860	 5.6000
 3.9890	 5.5710
 3.9920	 5.5690
 3.9950	 5.5580
 3.9980	 5.5640
 4.0010	 5.5960
 4.0040	 5.6490
 4.0070	 5.6140
 4.0100	 5.6080
 4.0130	 5.6370
 4.0170	 5.6450
 4.0200	 5.6030
 4.0230	 5.5980
 4.0260	 5.6300
 4.0290	 5.6670
 4.0320	 5.6240
 4.0350	 5.6240
 4.0380	 5.6400
 4.0420	 5.6320
 4.0450	 5.6030
 4.0480	 5.6320
 4.0510	 5.6650
 4.0540	 5.6680
 4.0570	 5.6560
 4.0610	 5.6340
 4.0640	 5.6720
 4.0670	 5.7330
 4.0700	 5.6960
 4.0730	 5.7030
 4.0770	 5.6580
 4.0800	 5.6610
 4.0830	 5.7160
 4.0860	 5.7540
 4.0890	 5.7340
 4.0930	 5.7220
 4.0960	 5.6640
 4.0990	 5.6700
 4.1020	 5.6610
 4.1060	 5.6280
 4.1090	 5.6540
 4.1120	 5.6980
 4.1150	 5.6630
 4.1190	 5.6590
 4.1220	 5.6630
 4.1250	 5.6930
 4.1280	 5.7300
 4.1320	 5.7530
 4.1350	 5.7440
 4.1380	 5.7380
 4.1420	 5.7260
 4.1450	 5.7040
 4.1480	 5.6800
 4.1520	 5.6910
 4.1550	 5.7380
 4.1580	 5.7760
 4.1620	 5.7480
 4.1650	 5.7070
 4.1680	 5.6460
 4.1720	 5.6970
 4.1750	 5.7480
 4.1780	 5.7180
 4.1820	 5.6950
 4.1850	 5.7050
 4.1890	 5.6910
 4.1920	 5.6420
 4.1950	 5.5020
 4.1990	 5.3200
 4.2020	 5.0690
 4.2060	 4.7660
 4.2090	 4.4100
 4.2120	 4.0540
 4.2160	 3.7120
 4.2190	 3.4560
 4.2230	 3.2370
 4.2260	 3.0320
 4.2300	 2.8360
 4.2330	 2.7170
 4.2360	 2.7120
 4.2400	 2.7770
 4.2430	 2.8500
 4.2470	 3.0910
 4.2500	 3.4730
 4.2540	 3.9670
 4.2570	 4.2940
 4.2610	 3.9800
 4.2640	 3.4990
 4.2680	 3.3510
 4.2710	 3.2810
 4.2750	 3.2530
 4.2780	 3.2570
 4.2820	 3.2900
 4.2850	 3.3070
 4.2890	 3.3530
 4.2930	 3.4480
 4.2960	 3.5470
 4.3000	 3.6620
 4.3030	 3.7640
 4.3070	 3.8400
 4.3100	 3.9720
 4.3140	 4.1940
 4.3180	 4.4180
 4.3210	 4.5340
 4.3250	 4.6400
 4.3280	 4.7560
 4.3320	 4.8890
 4.3360	 5.0200
 4.3390	 5.1460
 4.3430	 5.1890
 4.3470	 5.2480
 4.3500	 5.2830
 4.3540	 5.3050
 4.3570	 5.3390
 4.3610	 5.3700
 4.3650	 5.4090
 4.3680	 5.4210
 4.3720	 5.4690
 4.3760	 5.5410
 4.3800	 5.5510
 4.3830	 5.5350
 4.3870	 5.4610
 4.3910	 5.4240
 4.3940	 5.4220
 4.3980	 5.4470
 4.4020	 5.4430
 4.4060	 5.4250
 4.4090	 5.3890
 4.4130	 5.4140
 4.4170	 5.4620
 4.4210	 5.4920
 4.4240	 5.4700
 4.4280	 5.4500
 4.4320	 5.4200
 4.4360	 5.4280
 4.4400	 5.4540
 4.4430	 5.4800
 4.4470	 5.4490
 4.4510	 5.4540
 4.4550	 5.4930
 4.4590	 5.5020
 4.4620	 5.4700
 4.4660	 5.4500
 4.4700	 5.4380
 4.4740	 5.4460
 4.4780	 5.4460
 4.4820	 5.4310
 4.4860	 5.4500
 4.4900	 5.4810
 4.4930	 5.5030
 4.4970	 5.4970
 4.5010	 5.4800
 4.5050	 5.4650
 4.5090	 5.4200
 4.5130	 5.4300
 4.5170	 5.4850
 4.5210	 5.4680
 4.5250	 5.4420
 4.5290	 5.4520
 4.5330	 5.4840
 4.5370	 5.4700
 4.5410	 5.4810
 4.5450	 5.4990
 4.5490	 5.4780
 4.5530	 5.4820
 4.5570	 5.4930
 4.5610	 5.4960
 4.5650	 5.4760
 4.5690	 5.4630
 4.5730	 5.5070
 4.5770	 5.5490
 4.5810	 5.5620
 4.5850	 5.5600
 4.5890	 5.5300
 4.5930	 5.5180
 4.5970	 5.4980
 4.6010	 5.4820
 4.6050	 5.4940
 4.6090	 5.4920
 4.6130	 5.4800
 4.6170	 5.4750
 4.6220	 5.4780
 4.6260	 5.4760
 4.6300	 5.4710
 4.6340	 5.4430
 4.6380	 5.4330
 4.6420	 5.4760
 4.6460	 5.5010
 4.6510	 5.4960
 4.6550	 5.4700
 4.6590	 5.4750
 4.6630	 5.4680
 4.6670	 5.4490
 4.6720	 5.4870
 4.6760	 5.4950
 4.6800	 5.4930
 4.6840	 5.4690
 4.6880	 5.4210
 4.6930	 5.4500
 4.6970	 5.4660
 4.7010	 5.4410
 4.7050	 5.4300
 4.7100	 5.4560
 4.7140	 5.5070
 4.7180	 5.4610
 4.7230	 5.4330
 4.7270	 5.4480
 4.7310	 5.4730
 4.7360	 5.4290
 4.7400	 5.4420
 4.7440	 5.5220
 4.7490	 5.5200
 4.7530	 5.4640
 4.7570	 5.4520
 4.7620	 5.4400
 4.7660	 5.4140
 4.7700	 5.4060
 4.7750	 5.4640
 4.7790	 5.4660
 4.7840	 5.4310
 4.7880	 5.4190
 4.7920	 5.4260
 4.7970	 5.4100
 4.8010	 5.4380
 4.8060	 5.4770
 4.8100	 5.4600
 4.8150	 5.3850
 4.8190	 5.3950
 4.8240	 5.4340
 4.8280	 5.4190
 4.8330	 5.4330
 4.8370	 5.4580
 4.8420	 5.4180
 4.8460	 5.4050
 4.8510	 5.3950
 4.8550	 5.4110
 4.8600	 5.4340
 4.8640	 5.4440
 4.8690	 5.4100
 4.8730	 5.3730
 4.8780	 5.3420
 4.8830	 5.3130
 4.8870	 5.3260
 4.8920	 5.3570
 4.8960	 5.3700
 4.9010	 5.3880
 4.9060	 5.3700
 4.9100	 5.3770
 4.9150	 5.3750
 4.9200	 5.4010
 4.9240	 5.3670
 4.9290	 5.3600
 4.9340	 5.3640
 4.9380	 5.3640
 4.9430	 5.3540
 4.9480	 5.3230
 4.9530	 5.3210
 4.9570	 5.3520
 4.9620	 5.3380
 4.9670	 5.3770
 4.9720	 5.3550
 4.9760	 5.3360
 4.9810	 5.3270
 4.9860	 5.3200
 4.9910	 5.3160
 4.9960	 5.3200
 5.0000	 5.3530
 5.0050	 5.4010
 5.0100	 5.4380
 5.0150	 5.4600
 5.0200	 5.4070
 5.0250	 5.3850
 5.0290	 5.3760
 5.0340	 5.3570
 5.0390	 5.3780
 5.0440	 5.3990
 5.0490	 5.3690
 5.0540	 5.3660
 5.0590	 5.3650
 5.0640	 5.3760
 5.0690	 5.3890
 5.0740	 5.4540
 5.0790	 5.4380
 5.0840	 5.3910
 5.0890	 5.3810
 5.0940	 5.3920
 5.0990	 5.3760
 5.1040	 5.4060
 5.1090	 5.3700
 5.1140	 5.3870
 5.1190	 5.4210
 5.1240	 5.4100
 5.1290	 5.4250
 5.1340	 5.4490
 5.1390	 5.4330
 5.1440	 5.4420
 5.1490	 5.4370
 5.1540	 5.4280
 5.1600	 5.4020
 5.1650	 5.3810
 5.1700	 5.3790
 5.1750	 5.4000
 5.1800	 5.4460
 5.1850	 5.4660
 5.1910	 5.4690
 5.1960	 5.4510
 5.2010	 5.4190
 5.2060	 5.4400
 5.2110	 5.4020
 5.2170	 5.3670
 5.2220	 5.3900
 5.2270	 5.4420
 5.2320	 5.4460
 5.2380	 5.4200
 5.2430	 5.4130
 5.2480	 5.4270
 5.2540	 5.4000
 5.2590	 5.4020
 5.2640	 5.4370
 5.2700	 5.4200
 5.2750	 5.3870
 5.2800	 5.4130
 5.2860	 5.4200
 5.2910	 5.3970
 5.2970	 5.4040
 5.3020	 5.3790
 5.3070	 5.3490
 5.3130	 5.3630
 5.3180	 5.3390
 5.3240	 5.3980
 5.3290	 5.4060
 5.3350	 5.3970
 5.3400	 5.4380
 5.3460	 5.4470
 5.3510	 5.3920
 5.3570	 5.4170
 5.3620	 5.4140
 5.3680	 5.4440
 5.3730	 5.4250
 5.3790	 5.3530
 5.3850	 5.3390
 5.3900	 5.4040
 5.3960	 5.4190
 5.4010	 5.4370
 5.4070	 5.4010
 5.4130	 5.3540
 5.4180	 5.3370
 5.4240	 5.3730
 5.4300	 5.3550
 5.4350	 5.3740
 5.4410	 5.3480
 5.4470	 5.3330
 5.4530	 5.3030
 5.4580	 5.3070
 5.4640	 5.2680
 5.4700	 5.2580
 5.4760	 5.2750
 5.4810	 5.3200
 5.4870	 5.2800
 5.4930	 5.2480
 5.4990	 5.2620
 5.5050	 5.3400
 5.5110	 5.3200
 5.5160	 5.2380
 5.5220	 5.1790
 5.5280	 5.1720
 5.5340	 5.1830
 5.5400	 5.2150
 5.5460	 5.1550
 5.5520	 5.1000
 5.5580	 5.0590
 5.5640	 5.1000
 5.5700	 5.1240
 5.5760	 5.1190
 5.5820	 5.0120
 5.5880	 5.0250
 5.5940	 5.0640
 5.6000	 5.0650
 5.6060	 4.9930
 5.6120	 4.9750
 5.6180	 4.9350
 5.6240	 4.9120
 5.6300	 4.8680
 5.6360	 4.8790
 5.6420	 4.8670
 5.6490	 4.8970
 5.6550	 4.8470
 5.6610	 4.8040
 5.6670	 4.7380
 5.6730	 4.7550
 5.6800	 4.7170
 5.6860	 4.6460
 5.6920	 4.5560
 5.6980	 4.5650
 5.7040	 4.4930
 5.7110	 4.4330
 5.7170	 4.4140
 5.7230	 4.4270
 5.7300	 4.3280
 5.7360	 4.2930
 5.7420	 4.2720
 5.7490	 4.2840
 5.7550	 4.3000
 5.7620	 4.3430
 5.7680	 4.3080
 5.7740	 4.3380
 5.7810	 4.3150
 5.7870	 4.3690
 5.7940	 4.3940
 5.8000	 4.4810
 5.8070	 4.5380
 5.8130	 4.5680
 5.8200	 4.5460
 5.8260	 4.5740
 5.8330	 4.5990
 5.8390	 4.6470
 5.8460	 4.6400
 5.8530	 4.6850
 5.8590	 4.7590
 5.8660	 4.8530
 5.8720	 4.8750
 5.8790	 4.8660
 5.8860	 4.7580
 5.8920	 4.7290
 5.8990	 4.7630
 5.9060	 4.8120
 5.9130	 4.7900
 5.9190	 4.7840
 5.9260	 4.7480
 5.9330	 4.6880
 5.9400	 4.6320
 5.9470	 4.6370
 5.9530	 4.5950
 5.9600	 4.6100
 5.9670	 4.5910
 5.9740	 4.6090
 5.9810	 4.5430
 5.9880	 4.4820
 5.9950	 4.4170
 6.0020	 4.4020
 6.0090	 4.4030
 6.0160	 4.3960
 6.0230	 4.3600
 6.0300	 4.3750
 6.0370	 4.3100
 6.0440	 4.2400
 6.0510	 4.1990
 6.0580	 4.2680
 6.0650	 4.2790
 6.0720	 4.3050
 6.0790	 4.2480
 6.0860	 4.2430
 6.0930	 4.2460
 6.1000	 4.3090
 6.1080	 4.3320
 6.1150	 4.3500
 6.1220	 4.3100
 6.1290	 4.3170
 6.1370	 4.2760
 6.1440	 4.2960
 6.1510	 4.2810
 6.1580	 4.3040
 6.1660	 4.2650
 6.1730	 4.2840
 6.1800	 4.2640
 6.1880	 4.2490
 6.1950	 4.2530
 6.2030	 4.3330
 6.2100	 4.3120
 6.2170	 4.3410
 6.2250	 4.3070
 6.2320	 4.3080
 6.2400	 4.3210
 6.2470	 4.3790
 6.2550	 4.3490
 6.2630	 4.3990
 6.2700	 4.4070
 6.2780	 4.4050
 6.2850	 4.3670
 6.2930	 4.3840
 6.3010	 4.3770
 6.3080	 4.3960
 6.3160	 4.3650
 6.3240	 4.4290
 6.3310	 4.4280
 6.3390	 4.4200
 6.3470	 4.4350
 6.3550	 4.5110
 6.3620	 4.4870
 6.3700	 4.5330
 6.3780	 4.5420
 6.3860	 4.5830
 6.3940	 4.6060
 6.4020	 4.6340
 6.4100	 4.5170
 6.4180	 4.5350
 6.4260	 4.5580
 6.4330	 4.6070
 6.4410	 4.6210
 6.4490	 4.6680
 6.4580	 4.6270
 6.4660	 4.6630
 6.4740	 4.6620
 6.4820	 4.7090
 6.4900	 4.6710
 6.4980	 4.6920
 6.5060	 4.7030
 6.5140	 4.7380
 6.5230	 4.6970
 6.5310	 4.7240
 6.5390	 4.6890
 6.5470	 4.6720
 6.5550	 4.6200
 6.5640	 4.6610
 6.5720	 4.5930
 6.5800	 4.5750
 6.5890	 4.5450
 6.5970	 4.5590
 6.6060	 4.5430
 6.6140	 4.5530
 6.6220	 4.5240
 6.6310	 4.5360
 6.6390	 4.4930
 6.6480	 4.5160
 6.6560	 4.5380
 6.6650	 4.5840
 6.6740	 4.5150
 6.6820	 4.5210
 6.6910	 4.5380
 6.6990	 4.5680
 6.7080	 4.5490
 6.7170	 4.6030
 6.7260	 4.5490
 6.7340	 4.5130
 6.7430	 4.4550
 6.7520	 4.4440
 6.7610	 4.3860
 6.7690	 4.3930
 6.7780	 4.4260
 6.7870	 4.6250
 6.7960	 4.6200
 6.8050	 4.5050
 6.8140	 4.3560
 6.8230	 4.4050
 6.8320	 4.5690
 6.8410	 4.6570
 6.8500	 4.4660
 6.8590	 4.3210
 6.8680	 4.2670
 6.8770	 4.3740
 6.8860	 4.3180
 6.8950	 4.3250
 6.9050	 4.3240
 6.9140	 4.3490
 6.9230	 4.3160
 6.9320	 4.3370
 6.9420	 4.3080
 6.9510	 4.3510
 6.9600	 4.3020
 6.9700	 4.3510
 6.9790	 4.3220
 6.9880	 4.3010
 6.9980	 4.2390
 7.0070	 4.3090
 7.0170	 4.2760
 7.0260	 4.2860
 7.0360	 4.2350
 7.0450	 4.2200
 7.0550	 4.1900
 7.0650	 4.2620
 7.0740	 4.2320
 7.0840	 4.2450
 7.0940	 4.1870
 7.1030	 4.1980
 7.1130	 4.1990
 7.1230	 4.2360
 7.1330	 4.1610
 7.1420	 4.1930
 7.1520	 4.1790
 7.1620	 4.1870
 7.1720	 4.1230
 7.1820	 4.1450
 7.1920	 4.1160
 7.2020	 4.1820
 7.2120	 4.1400
 7.2220	 4.1660
 7.2320	 4.1620
 7.2420	 4.2410
 7.2520	 4.2070
 7.2620	 4.2040
 7.2730	 4.1420
 7.2830	 4.1410
 7.2930	 4.1530
 7.3030	 4.1950
 7.3140	 4.0500
 7.3240	 4.0470
 7.3340	 4.0840
 7.3450	 4.1480
 7.3550	 4.1120
 7.3660	 4.1430
 7.3760	 4.1530
 7.3870	 4.2150
 7.3970	 4.1610
 7.4080	 4.1990
 7.4180	 4.1790
 7.4290	 4.2470
 7.4400	 4.2200
 7.4500	 4.2530
 7.4610	 4.2050
 7.4720	 4.1980
 7.4830	 4.1620
 7.4930	 4.2140
 7.5040	 4.1900
 7.5150	 4.2020
 7.5260	 4.1470
 7.5370	 4.2390
 7.5480	 4.1860
 7.5590	 4.1480
 7.5700	 4.0970
 7.5810	 4.1720
 7.5920	 4.1380
 7.6030	 4.1300
 7.6140	 4.0780
 7.6260	 4.1250
 7.6370	 4.0600
 7.6480	 4.0660
 7.6590	 4.0170
 7.6710	 4.0810
 7.6820	 4.0460
 7.6930	 4.0430
 7.7050	 4.0070
 7.7160	 4.0760
 7.7280	 4.0540
 7.7390	 4.0540
 7.7510	 3.9780
 7.7630	 4.0020
 7.7740	 3.9530
 7.7860	 3.9880
 7.7980	 3.9910
 7.8090	 4.0100
 7.8210	 3.9450
 7.8330	 3.9710
 7.8450	 3.9070
 7.8570	 3.8960
 7.8690	 3.8290
 7.8810	 3.8190
 7.8930	 3.7060
 7.9050	 3.6690
 7.9170	 3.5700
 7.9290	 3.6110
 7.9410	 3.6190
 7.9530	 3.6950
 7.9650	 3.6720
 7.9780	 3.6690
 7.9900	 3.5410
 8.0020	 3.5200
 8.0150	 3.4530
 8.0270	 3.4470
 8.0390	 3.3230
 8.0520	 3.2890
 8.0640	 3.2290
 8.0770	 3.2030
 8.0900	 3.0750
 8.1020	 3.0950
 8.1150	 3.0510
 8.1280	 3.0710
 8.1400	 3.0230
 8.1530	 3.0300
 8.1660	 2.9840
 8.1790	 3.0530
 8.1920	 2.9970
 8.2050	 2.9700
 8.2180	 2.8910
 8.2310	 2.9520
 8.2440	 2.9750
 8.2570	 3.0000
 8.2700	 2.9280
 8.2830	 3.0060
 8.2970	 2.9610
 8.3100	 2.9780
 8.3230	 2.9690
 8.3370	 3.0000
 8.3500	 2.9530
 8.3640	 3.0380
 8.3770	 3.0070
 8.3910	 3.0780
 8.4040	 3.0520
 8.4180	 3.0460
 8.4320	 2.9640
 8.4450	 3.0140
 8.4590	 2.9490
 8.4730	 3.0190
 8.4870	 3.0150
 8.5010	 3.0860
 8.5150	 3.0960
 8.5290	 3.1710
 8.5430	 3.1610
 8.5570	 3.2690
 8.5710	 3.2650
 8.5850	 3.2830
 8.5990	 3.2020
 8.6140	 3.2200
 8.6280	 3.1960
 8.6420	 3.2720
 8.6570	 3.2100
 8.6710	 3.2440
 8.6860	 3.1600
 8.7000	 3.1770
 8.7150	 3.1620
 8.7300	 3.2600
 8.7440	 3.1860
 8.7590	 3.1760
 8.7740	 3.1420
 8.7890	 3.2140
 8.8040	 3.1380
 8.8190	 3.1820
 8.8340	 3.1250
 8.8490	 3.1130
 8.8640	 3.0840
 8.8790	 3.1090
 8.8940	 3.0380
 8.9100	 3.1010
 8.9250	 3.0060
 8.9400	 3.0030
 8.9560	 2.9520
 8.9710	 3.0180
 8.9870	 3.0030
 9.0020	 3.0670
 9.0180	 3.0160
 9.0340	 3.0530
 9.0500	 2.9910
 9.0650	 3.0480
 9.0810	 2.9950
 9.0970	 3.0060
 9.1130	 2.9430
 9.1290	 3.0030
 9.1450	 3.0050
 9.1610	 3.0640
 9.1780	 2.9740
 9.1940	 3.0060
 9.2100	 2.9390
 9.2270	 3.0120
 9.2430	 2.9520
 9.2600	 2.9650
 9.2760	 2.8900
 9.2930	 2.9690
 9.3090	 3.0110
 9.3260	 3.0700
 9.3430	 2.9900
 9.3600	 3.0020
 9.3770	 2.9600
 9.3940	 3.0700
 9.4110	 3.0700
 9.4280	 3.0900
 9.4450	 2.9870
 9.4620	 3.0650
 9.4800	 3.0210
 9.4970	 3.0820
 9.5140	 3.0850
 9.5320	 3.1770
 9.5500	 3.0680
 9.5670	 3.1070
 9.5850	 3.0640
 9.6030	 3.1620
 9.6200	 3.1750
 9.6380	 3.2260
 9.6560	 3.1410
 9.6740	 3.2150
 9.6920	 3.2180
 9.7100	 3.3160
 9.7290	 3.2690
 9.7470	 3.3040
 9.7650	 3.2830
 9.7840	 3.3690
 9.8020	 3.3040
 9.8210	 3.4260
 9.8390	 3.4140
 9.8580	 3.4300
 9.8770	 3.3160
 9.8960	 3.3440
 9.9150	 3.3260
 9.9340	 3.3870
 9.9530	 3.3660
 9.9720	 3.4630
 9.9910	 3.3890
10.0100	 3.4040
10.0300	 3.3770
10.0490	 3.4800
10.0690	 3.3760
10.0880	 3.4050
10.1080	 3.3290
10.1280	 3.3530
10.1480	 3.3060
10.1670	 3.3570
10.1870	 3.2960
10.2070	 3.3620
10.2280	 3.2830
10.2480	 3.2790
10.2680	 3.2050
10.2890	 3.2570
10.3090	 3.2030
10.3300	 3.3190
10.3500	 3.2820
10.3710	 3.3590
10.3920	 3.3150
10.4120	 3.3220
10.4330	 3.2280
10.4540	 3.2890
10.4760	 3.2510
10.4970	 3.3170
10.5180	 3.2150
10.5390	 3.2390
10.5610	 3.1560
10.5820	 3.1910
10.6040	 3.1540
10.6260	 3.2290
10.6480	 3.1410
10.6700	 3.2000
10.6920	 3.1500
10.7140	 3.1850
10.7360	 3.1360
10.7580	 3.2000
10.7800	 3.0860
10.8030	 3.0510
10.8250	 2.9750
10.8480	 3.1050
10.8710	 3.0610
10.8940	 3.1110
10.9170	 2.9870
10.9400	 3.0080
10.9630	 2.9760
10.9860	 3.0320
11.0090	 2.9300
11.0330	 2.9580
11.0560	 2.8940
11.0800	 2.9830
11.1040	 2.9530
11.1270	 3.0070
11.1510	 2.9250
11.1750	 3.0040
11.2000	 2.9160
11.2240	 2.9430
11.2480	 2.8990
11.2730	 2.9590
11.2970	 2.8830
11.3220	 2.9440
11.3470	 2.8970
11.3720	 2.9740
11.3970	 2.8590
11.4220	 2.8910
11.4470	 2.8000
11.4720	 2.8770
11.4980	 2.8530
11.5230	 2.9240
11.5490	 2.8700
11.5750	 2.9640
11.6000	 2.8860
11.6260	 2.9110
11.6530	 2.8250
11.6790	 2.9280
11.7050	 2.8590
11.7320	 2.8870
11.7580	 2.7900
11.7850	 2.8390
11.8120	 2.7360
11.8390	 2.8000
11.8660	 2.7680
11.8930	 2.8380
11.9200	 2.7380
11.9480	 2.7550
11.9760	 2.6520
12.0030	 2.7170
12.0310	 2.6500
12.0590	 2.7410
12.0870	 2.6870
12.1150	 2.7470
12.1440	 2.6480
12.1720	 2.6970
12.2010	 2.6640
12.2300	 2.8100
12.2590	 2.7250
12.2880	 2.7320
12.3170	 2.5900
12.3460	 2.6620
12.3760	 2.6310
12.4050	 2.6920
12.4350	 2.6190
12.4650	 2.7340
12.4950	 2.7020
12.5250	 2.7380
12.5550	 2.6790
12.5860	 2.7690
12.6170	 2.6990
12.6470	 2.7970
12.6780	 2.7380
12.7090	 2.7720
12.7410	 2.6590
12.7720	 2.7350
12.8030	 2.6750
12.8350	 2.7740
12.8670	 2.6690
12.8990	 2.7520
12.9310	 2.6880
12.9640	 2.7140
12.9960	 2.6290
13.0290	 2.7180
13.0610	 2.6160
13.0940	 2.6650
13.1280	 2.5560
13.1610	 2.6010
13.1940	 2.5280
13.2280	 2.6340
13.2620	 2.4820
13.2960	 2.4660
13.3300	 2.3860
13.3640	 2.4910
13.3990	 2.3990
13.4340	 2.4350
13.4690	 2.3000
13.5040	 2.3010
13.5390	 2.1610
13.5740	 2.2350
13.6100	 2.1290
13.6460	 2.2210
13.6820	 2.1870
13.7180	 2.2420
13.7540	 2.0530
13.7910	 2.1340
13.8280	 2.0920
13.8650	 2.1590
13.9020	 2.0760
13.9390	 2.1310
13.9770	 1.9920
14.0150	 2.0120
14.0530	 1.9150
14.0910	 2.0440
14.1290	 1.9420
14.1680	 1.9370
14.2070	 1.7800
14.2460	 1.8670
14.2850	 1.7680
14.3240	 1.7950
14.3640	 1.6740
14.4040	 1.6860
14.4440	 1.5690
14.4840	 1.6610
14.5250	 1.5470
14.5660	 1.5620
14.6070	 1.4660
14.6480	 1.5260
14.6900	 1.3920
14.7310	 1.4590
14.7730	 1.3020
14.8150	 1.3280
14.8580	 1.2380
14.9010	 1.3260
14.9440	 0.9390
14.9870	 0.9510
15.0300	 1.1670
15.0740	 1.3110
15.1180	 1.1050
15.1620	 1.1240
15.2060	 1.0120
15.2510	 1.0980
15.2960	 1.0380
15.3410	 1.1150
15.3870	 0.9550
