Name: Chorisia speciosa
Type: vegetation
Class: Tree
Genus: Chorisia
Species: speciosa
Sample No.: JPL239
Owner: JPL
Wavelength Range: VSWIR
Origin: 34.1274; -118.11023; WGS84
Collection Date: 10/6/2016
Description: Samples were collected at the Huntington Garden in San Marino California as part of a JPL Subcontract studying HyTES imagery. Samples were taken to JPL and processed within 48 hours of collection. The same leaves were processed in the Nicolet and then measured using the ASD.
Measurement: Bidirectional reflectance
First Column: X
Second Column: Y
X Units: Wavelength (micrometer)
Y Units: Reflectance (percentage)
First X Value: 0.35
Last X Value: 2.5
Number of X Values: 2151
Additional Information: vegetation.tree.chorisia.speciosa.vswir.jpl239.jpl.asd.ancillary.txt

 0.3500	 6.5330
 0.3510	 6.4010
 0.3520	 6.4100
 0.3530	 6.4430
 0.3540	 6.4020
 0.3550	 6.4340
 0.3560	 6.4690
 0.3570	 6.4460
 0.3580	 6.3390
 0.3590	 6.3170
 0.3600	 6.3610
 0.3610	 6.4070
 0.3620	 6.3560
 0.3630	 6.3230
 0.3640	 6.3210
 0.3650	 6.3230
 0.3660	 6.2510
 0.3670	 6.2420
 0.3680	 6.2970
 0.3690	 6.3220
 0.3700	 6.3560
 0.3710	 6.3490
 0.3720	 6.2980
 0.3730	 6.3010
 0.3740	 6.3100
 0.3750	 6.3280
 0.3760	 6.3530
 0.3770	 6.3080
 0.3780	 6.2920
 0.3790	 6.3310
 0.3800	 6.3730
 0.3810	 6.3360
 0.3820	 6.2960
 0.3830	 6.3110
 0.3840	 6.3320
 0.3850	 6.3500
 0.3860	 6.3610
 0.3870	 6.3680
 0.3880	 6.3800
 0.3890	 6.3740
 0.3900	 6.3700
 0.3910	 6.4370
 0.3920	 6.4500
 0.3930	 6.4390
 0.3940	 6.4490
 0.3950	 6.4730
 0.3960	 6.4760
 0.3970	 6.4880
 0.3980	 6.5510
 0.3990	 6.5530
 0.4000	 6.5420
 0.4010	 6.5490
 0.4020	 6.5710
 0.4030	 6.5730
 0.4040	 6.5800
 0.4050	 6.6070
 0.4060	 6.6000
 0.4070	 6.6010
 0.4080	 6.6160
 0.4090	 6.6300
 0.4100	 6.6490
 0.4110	 6.6620
 0.4120	 6.6650
 0.4130	 6.6660
 0.4140	 6.6600
 0.4150	 6.6570
 0.4160	 6.6660
 0.4170	 6.6690
 0.4180	 6.6740
 0.4190	 6.6820
 0.4200	 6.6920
 0.4210	 6.6870
 0.4220	 6.6830
 0.4230	 6.6940
 0.4240	 6.7000
 0.4250	 6.7020
 0.4260	 6.6960
 0.4270	 6.6850
 0.4280	 6.6780
 0.4290	 6.6730
 0.4300	 6.6670
 0.4310	 6.6580
 0.4320	 6.6510
 0.4330	 6.6460
 0.4340	 6.6430
 0.4350	 6.6290
 0.4360	 6.6260
 0.4370	 6.6340
 0.4380	 6.6440
 0.4390	 6.6530
 0.4400	 6.6590
 0.4410	 6.6650
 0.4420	 6.6880
 0.4430	 6.6980
 0.4440	 6.6970
 0.4450	 6.7000
 0.4460	 6.7110
 0.4470	 6.7160
 0.4480	 6.7170
 0.4490	 6.7290
 0.4500	 6.7420
 0.4510	 6.7510
 0.4520	 6.7570
 0.4530	 6.7640
 0.4540	 6.7700
 0.4550	 6.7720
 0.4560	 6.7680
 0.4570	 6.7800
 0.4580	 6.7880
 0.4590	 6.7840
 0.4600	 6.7890
 0.4610	 6.7920
 0.4620	 6.7940
 0.4630	 6.7980
 0.4640	 6.7960
 0.4650	 6.7920
 0.4660	 6.7900
 0.4670	 6.7930
 0.4680	 6.7920
 0.4690	 6.7910
 0.4700	 6.7910
 0.4710	 6.7910
 0.4720	 6.7920
 0.4730	 6.7910
 0.4740	 6.7880
 0.4750	 6.7960
 0.4760	 6.7990
 0.4770	 6.7920
 0.4780	 6.7940
 0.4790	 6.8020
 0.4800	 6.8050
 0.4810	 6.7990
 0.4820	 6.7980
 0.4830	 6.7990
 0.4840	 6.7990
 0.4850	 6.8000
 0.4860	 6.7980
 0.4870	 6.8010
 0.4880	 6.8150
 0.4890	 6.8250
 0.4900	 6.8320
 0.4910	 6.8400
 0.4920	 6.8590
 0.4930	 6.8800
 0.4940	 6.8980
 0.4950	 6.9140
 0.4960	 6.9320
 0.4970	 6.9530
 0.4980	 6.9760
 0.4990	 7.0040
 0.5000	 7.0330
 0.5010	 7.0620
 0.5020	 7.0950
 0.5030	 7.1360
 0.5040	 7.1740
 0.5050	 7.2080
 0.5060	 7.2450
 0.5070	 7.2970
 0.5080	 7.3520
 0.5090	 7.4090
 0.5100	 7.4710
 0.5110	 7.5350
 0.5120	 7.6060
 0.5130	 7.6830
 0.5140	 7.7690
 0.5150	 7.8580
 0.5160	 7.9540
 0.5170	 8.0630
 0.5180	 8.1760
 0.5190	 8.2950
 0.5200	 8.4180
 0.5210	 8.5440
 0.5220	 8.6790
 0.5230	 8.8170
 0.5240	 8.9530
 0.5250	 9.0900
 0.5260	 9.2210
 0.5270	 9.3480
 0.5280	 9.4760
 0.5290	 9.5990
 0.5300	 9.7120
 0.5310	 9.8140
 0.5320	 9.9110
 0.5330	10.0000
 0.5340	10.0830
 0.5350	10.1610
 0.5360	10.2250
 0.5370	10.2810
 0.5380	10.3310
 0.5390	10.3740
 0.5400	10.4070
 0.5410	10.4320
 0.5420	10.4530
 0.5430	10.4720
 0.5440	10.4940
 0.5450	10.5230
 0.5460	10.5600
 0.5470	10.5960
 0.5480	10.6280
 0.5490	10.6560
 0.5500	10.6720
 0.5510	10.6860
 0.5520	10.6930
 0.5530	10.6910
 0.5540	10.6830
 0.5550	10.6650
 0.5560	10.6350
 0.5570	10.5980
 0.5580	10.5490
 0.5590	10.4900
 0.5600	10.4220
 0.5610	10.3470
 0.5620	10.2640
 0.5630	10.1740
 0.5640	10.0810
 0.5650	 9.9870
 0.5660	 9.8910
 0.5670	 9.7920
 0.5680	 9.6950
 0.5690	 9.6000
 0.5700	 9.5070
 0.5710	 9.4140
 0.5720	 9.3260
 0.5730	 9.2440
 0.5740	 9.1660
 0.5750	 9.0910
 0.5760	 9.0210
 0.5770	 8.9590
 0.5780	 8.9010
 0.5790	 8.8460
 0.5800	 8.7960
 0.5810	 8.7480
 0.5820	 8.6990
 0.5830	 8.6520
 0.5840	 8.6080
 0.5850	 8.5680
 0.5860	 8.5310
 0.5870	 8.4960
 0.5880	 8.4650
 0.5890	 8.4380
 0.5900	 8.4150
 0.5910	 8.3930
 0.5920	 8.3690
 0.5930	 8.3410
 0.5940	 8.3190
 0.5950	 8.3030
 0.5960	 8.2890
 0.5970	 8.2720
 0.5980	 8.2590
 0.5990	 8.2450
 0.6000	 8.2260
 0.6010	 8.2080
 0.6020	 8.1890
 0.6030	 8.1680
 0.6040	 8.1450
 0.6050	 8.1210
 0.6060	 8.0940
 0.6070	 8.0660
 0.6080	 8.0340
 0.6090	 7.9970
 0.6100	 7.9510
 0.6110	 7.8970
 0.6120	 7.8670
 0.6130	 7.8500
 0.6140	 7.8360
 0.6150	 7.8110
 0.6160	 7.7870
 0.6170	 7.7640
 0.6180	 7.7390
 0.6190	 7.7140
 0.6200	 7.6920
 0.6210	 7.6730
 0.6220	 7.6570
 0.6230	 7.6430
 0.6240	 7.6320
 0.6250	 7.6240
 0.6260	 7.6180
 0.6270	 7.6140
 0.6280	 7.6090
 0.6290	 7.6020
 0.6300	 7.5930
 0.6310	 7.5850
 0.6320	 7.5800
 0.6330	 7.5730
 0.6340	 7.5580
 0.6350	 7.5370
 0.6360	 7.5100
 0.6370	 7.4800
 0.6380	 7.4460
 0.6390	 7.4090
 0.6400	 7.3700
 0.6410	 7.3310
 0.6420	 7.2910
 0.6430	 7.2530
 0.6440	 7.2170
 0.6450	 7.1830
 0.6460	 7.1520
 0.6470	 7.1230
 0.6480	 7.1000
 0.6490	 7.0800
 0.6500	 7.0630
 0.6510	 7.0510
 0.6520	 7.0440
 0.6530	 7.0390
 0.6540	 7.0350
 0.6550	 7.0300
 0.6560	 7.0280
 0.6570	 7.0250
 0.6580	 7.0170
 0.6590	 7.0110
 0.6600	 7.0020
 0.6610	 6.9900
 0.6620	 6.9820
 0.6630	 6.9740
 0.6640	 6.9680
 0.6650	 6.9630
 0.6660	 6.9610
 0.6670	 6.9620
 0.6680	 6.9660
 0.6690	 6.9740
 0.6700	 6.9870
 0.6710	 7.0040
 0.6720	 7.0240
 0.6730	 7.0450
 0.6740	 7.0720
 0.6750	 7.1040
 0.6760	 7.1360
 0.6770	 7.1760
 0.6780	 7.2190
 0.6790	 7.2650
 0.6800	 7.3140
 0.6810	 7.3680
 0.6820	 7.4260
 0.6830	 7.4890
 0.6840	 7.5550
 0.6850	 7.6220
 0.6860	 7.6940
 0.6870	 7.7770
 0.6880	 7.8700
 0.6890	 7.9770
 0.6900	 8.1040
 0.6910	 8.2580
 0.6920	 8.4460
 0.6930	 8.6720
 0.6940	 8.9440
 0.6950	 9.2710
 0.6960	 9.6530
 0.6970	10.0900
 0.6980	10.5820
 0.6990	11.1290
 0.7000	11.7240
 0.7010	12.3630
 0.7020	13.0430
 0.7030	13.7540
 0.7040	14.4890
 0.7050	15.2420
 0.7060	16.0100
 0.7070	16.7920
 0.7080	17.5840
 0.7090	18.3830
 0.7100	19.1940
 0.7110	20.0110
 0.7120	20.8310
 0.7130	21.6580
 0.7140	22.4880
 0.7150	23.3200
 0.7160	24.1510
 0.7170	24.9810
 0.7180	25.8090
 0.7190	26.6320
 0.7200	27.4440
 0.7210	28.2480
 0.7220	29.0390
 0.7230	29.8150
 0.7240	30.5740
 0.7250	31.3120
 0.7260	32.0270
 0.7270	32.7160
 0.7280	33.3850
 0.7290	34.0270
 0.7300	34.6420
 0.7310	35.2270
 0.7320	35.7870
 0.7330	36.3180
 0.7340	36.8200
 0.7350	37.2950
 0.7360	37.7420
 0.7370	38.1630
 0.7380	38.5600
 0.7390	38.9300
 0.7400	39.2750
 0.7410	39.5960
 0.7420	39.8940
 0.7430	40.1710
 0.7440	40.4230
 0.7450	40.6520
 0.7460	40.8630
 0.7470	41.0520
 0.7480	41.2240
 0.7490	41.3800
 0.7500	41.5220
 0.7510	41.6490
 0.7520	41.7620
 0.7530	41.8660
 0.7540	41.9570
 0.7550	42.0400
 0.7560	42.1130
 0.7570	42.1770
 0.7580	42.2340
 0.7590	42.2850
 0.7600	42.3300
 0.7610	42.3740
 0.7620	42.4080
 0.7630	42.4360
 0.7640	42.4620
 0.7650	42.4850
 0.7660	42.5030
 0.7670	42.5180
 0.7680	42.5300
 0.7690	42.5410
 0.7700	42.5520
 0.7710	42.5620
 0.7720	42.5660
 0.7730	42.5720
 0.7740	42.5780
 0.7750	42.5830
 0.7760	42.5870
 0.7770	42.5900
 0.7780	42.5920
 0.7790	42.5970
 0.7800	42.6000
 0.7810	42.6020
 0.7820	42.6050
 0.7830	42.6110
 0.7840	42.6140
 0.7850	42.6150
 0.7860	42.6150
 0.7870	42.6140
 0.7880	42.6140
 0.7890	42.6130
 0.7900	42.6130
 0.7910	42.6080
 0.7920	42.6060
 0.7930	42.6050
 0.7940	42.6030
 0.7950	42.6000
 0.7960	42.5960
 0.7970	42.5920
 0.7980	42.5840
 0.7990	42.5760
 0.8000	42.5690
 0.8010	42.5610
 0.8020	42.5520
 0.8030	42.5460
 0.8040	42.5390
 0.8050	42.5300
 0.8060	42.5210
 0.8070	42.5100
 0.8080	42.4980
 0.8090	42.4850
 0.8100	42.4740
 0.8110	42.4630
 0.8120	42.4510
 0.8130	42.4370
 0.8140	42.4250
 0.8150	42.4110
 0.8160	42.3950
 0.8170	42.3820
 0.8180	42.3700
 0.8190	42.3580
 0.8200	42.3460
 0.8210	42.3330
 0.8220	42.3200
 0.8230	42.3050
 0.8240	42.2930
 0.8250	42.2770
 0.8260	42.2630
 0.8270	42.2520
 0.8280	42.2400
 0.8290	42.2280
 0.8300	42.2150
 0.8310	42.2020
 0.8320	42.1890
 0.8330	42.1800
 0.8340	42.1730
 0.8350	42.1640
 0.8360	42.1550
 0.8370	42.1460
 0.8380	42.1380
 0.8390	42.1320
 0.8400	42.1280
 0.8410	42.1250
 0.8420	42.1210
 0.8430	42.1120
 0.8440	42.1070
 0.8450	42.1050
 0.8460	42.1020
 0.8470	42.0980
 0.8480	42.0960
 0.8490	42.0960
 0.8500	42.0940
 0.8510	42.0900
 0.8520	42.0900
 0.8530	42.0910
 0.8540	42.0890
 0.8550	42.0890
 0.8560	42.0900
 0.8570	42.0910
 0.8580	42.0940
 0.8590	42.0980
 0.8600	42.1010
 0.8610	42.1020
 0.8620	42.1070
 0.8630	42.1110
 0.8640	42.1150
 0.8650	42.1200
 0.8660	42.1250
 0.8670	42.1290
 0.8680	42.1340
 0.8690	42.1430
 0.8700	42.1490
 0.8710	42.1540
 0.8720	42.1600
 0.8730	42.1710
 0.8740	42.1770
 0.8750	42.1820
 0.8760	42.1870
 0.8770	42.1930
 0.8780	42.2010
 0.8790	42.2100
 0.8800	42.2180
 0.8810	42.2260
 0.8820	42.2310
 0.8830	42.2370
 0.8840	42.2480
 0.8850	42.2570
 0.8860	42.2650
 0.8870	42.2720
 0.8880	42.2800
 0.8890	42.2870
 0.8900	42.2950
 0.8910	42.3030
 0.8920	42.3080
 0.8930	42.3140
 0.8940	42.3250
 0.8950	42.3370
 0.8960	42.3410
 0.8970	42.3480
 0.8980	42.3550
 0.8990	42.3640
 0.9000	42.3740
 0.9010	42.3780
 0.9020	42.3840
 0.9030	42.3930
 0.9040	42.4010
 0.9050	42.4110
 0.9060	42.4200
 0.9070	42.4280
 0.9080	42.4300
 0.9090	42.4300
 0.9100	42.4340
 0.9110	42.4430
 0.9120	42.4480
 0.9130	42.4530
 0.9140	42.4580
 0.9150	42.4620
 0.9160	42.4620
 0.9170	42.4630
 0.9180	42.4640
 0.9190	42.4660
 0.9200	42.4720
 0.9210	42.4700
 0.9220	42.4630
 0.9230	42.4560
 0.9240	42.4570
 0.9250	42.4540
 0.9260	42.4450
 0.9270	42.4370
 0.9280	42.4310
 0.9290	42.4200
 0.9300	42.4070
 0.9310	42.3970
 0.9320	42.3860
 0.9330	42.3750
 0.9340	42.3630
 0.9350	42.3500
 0.9360	42.3310
 0.9370	42.3130
 0.9380	42.2990
 0.9390	42.2880
 0.9400	42.2740
 0.9410	42.2570
 0.9420	42.2370
 0.9430	42.2140
 0.9440	42.1880
 0.9450	42.1650
 0.9460	42.1470
 0.9470	42.1220
 0.9480	42.0960
 0.9490	42.0650
 0.9500	42.0280
 0.9510	41.9860
 0.9520	41.9520
 0.9530	41.9160
 0.9540	41.8730
 0.9550	41.8390
 0.9560	41.8050
 0.9570	41.7690
 0.9580	41.7370
 0.9590	41.7130
 0.9600	41.6820
 0.9610	41.6510
 0.9620	41.6280
 0.9630	41.6090
 0.9640	41.5890
 0.9650	41.5690
 0.9660	41.5560
 0.9670	41.5480
 0.9680	41.5320
 0.9690	41.5170
 0.9700	41.5130
 0.9710	41.5060
 0.9720	41.5010
 0.9730	41.4960
 0.9740	41.4880
 0.9750	41.4920
 0.9760	41.4940
 0.9770	41.4880
 0.9780	41.4750
 0.9790	41.4700
 0.9800	41.4760
 0.9810	41.4810
 0.9820	41.4730
 0.9830	41.4760
 0.9840	41.4780
 0.9850	41.4830
 0.9860	41.5000
 0.9870	41.5040
 0.9880	41.4940
 0.9890	41.4860
 0.9900	41.4970
 0.9910	41.5090
 0.9920	41.5150
 0.9930	41.5160
 0.9940	41.5200
 0.9950	41.5330
 0.9960	41.5490
 0.9970	41.5580
 0.9980	41.5590
 0.9990	41.5730
 1.0000	41.5730
 1.0010	42.7020
 1.0020	42.7090
 1.0030	42.7130
 1.0040	42.7190
 1.0050	42.7230
 1.0060	42.7300
 1.0070	42.7410
 1.0080	42.7490
 1.0090	42.7600
 1.0100	42.7670
 1.0110	42.7720
 1.0120	42.7790
 1.0130	42.7850
 1.0140	42.7930
 1.0150	42.8040
 1.0160	42.8130
 1.0170	42.8180
 1.0180	42.8270
 1.0190	42.8340
 1.0200	42.8370
 1.0210	42.8440
 1.0220	42.8540
 1.0230	42.8630
 1.0240	42.8750
 1.0250	42.8840
 1.0260	42.8910
 1.0270	42.8990
 1.0280	42.9040
 1.0290	42.9130
 1.0300	42.9230
 1.0310	42.9330
 1.0320	42.9450
 1.0330	42.9570
 1.0340	42.9650
 1.0350	42.9710
 1.0360	42.9770
 1.0370	42.9830
 1.0380	42.9910
 1.0390	43.0000
 1.0400	43.0090
 1.0410	43.0180
 1.0420	43.0240
 1.0430	43.0280
 1.0440	43.0340
 1.0450	43.0360
 1.0460	43.0420
 1.0470	43.0500
 1.0480	43.0560
 1.0490	43.0640
 1.0500	43.0690
 1.0510	43.0710
 1.0520	43.0730
 1.0530	43.0740
 1.0540	43.0710
 1.0550	43.0720
 1.0560	43.0740
 1.0570	43.0750
 1.0580	43.0770
 1.0590	43.0790
 1.0600	43.0800
 1.0610	43.0820
 1.0620	43.0890
 1.0630	43.0900
 1.0640	43.0850
 1.0650	43.0830
 1.0660	43.0800
 1.0670	43.0750
 1.0680	43.0710
 1.0690	43.0680
 1.0700	43.0630
 1.0710	43.0540
 1.0720	43.0500
 1.0730	43.0480
 1.0740	43.0440
 1.0750	43.0400
 1.0760	43.0360
 1.0770	43.0320
 1.0780	43.0280
 1.0790	43.0270
 1.0800	43.0230
 1.0810	43.0170
 1.0820	43.0120
 1.0830	43.0100
 1.0840	43.0050
 1.0850	42.9980
 1.0860	42.9930
 1.0870	42.9880
 1.0880	42.9810
 1.0890	42.9740
 1.0900	42.9690
 1.0910	42.9620
 1.0920	42.9520
 1.0930	42.9440
 1.0940	42.9380
 1.0950	42.9310
 1.0960	42.9250
 1.0970	42.9190
 1.0980	42.9150
 1.0990	42.9090
 1.1000	42.9020
 1.1010	42.8960
 1.1020	42.8890
 1.1030	42.8810
 1.1040	42.8740
 1.1050	42.8680
 1.1060	42.8600
 1.1070	42.8500
 1.1080	42.8430
 1.1090	42.8380
 1.1100	42.8300
 1.1110	42.8240
 1.1120	42.8160
 1.1130	42.8050
 1.1140	42.7960
 1.1150	42.7900
 1.1160	42.7810
 1.1170	42.7720
 1.1180	42.7600
 1.1190	42.7460
 1.1200	42.7310
 1.1210	42.7180
 1.1220	42.7010
 1.1230	42.6810
 1.1240	42.6610
 1.1250	42.6370
 1.1260	42.6100
 1.1270	42.5800
 1.1280	42.5480
 1.1290	42.5110
 1.1300	42.4710
 1.1310	42.4260
 1.1320	42.3780
 1.1330	42.3250
 1.1340	42.2660
 1.1350	42.2040
 1.1360	42.1380
 1.1370	42.0670
 1.1380	41.9920
 1.1390	41.9130
 1.1400	41.8290
 1.1410	41.7460
 1.1420	41.6630
 1.1430	41.5800
 1.1440	41.4960
 1.1450	41.4110
 1.1460	41.3290
 1.1470	41.2430
 1.1480	41.1650
 1.1490	41.0900
 1.1500	41.0180
 1.1510	40.9480
 1.1520	40.8850
 1.1530	40.8260
 1.1540	40.7720
 1.1550	40.7230
 1.1560	40.6810
 1.1570	40.6410
 1.1580	40.6060
 1.1590	40.5740
 1.1600	40.5440
 1.1610	40.5190
 1.1620	40.4980
 1.1630	40.4810
 1.1640	40.4670
 1.1650	40.4540
 1.1660	40.4430
 1.1670	40.4310
 1.1680	40.4190
 1.1690	40.4090
 1.1700	40.3990
 1.1710	40.3890
 1.1720	40.3810
 1.1730	40.3720
 1.1740	40.3640
 1.1750	40.3550
 1.1760	40.3480
 1.1770	40.3430
 1.1780	40.3350
 1.1790	40.3280
 1.1800	40.3200
 1.1810	40.3090
 1.1820	40.2980
 1.1830	40.2880
 1.1840	40.2780
 1.1850	40.2680
 1.1860	40.2590
 1.1870	40.2510
 1.1880	40.2420
 1.1890	40.2310
 1.1900	40.2230
 1.1910	40.2160
 1.1920	40.2100
 1.1930	40.2060
 1.1940	40.2000
 1.1950	40.1920
 1.1960	40.1870
 1.1970	40.1840
 1.1980	40.1820
 1.1990	40.1810
 1.2000	40.1820
 1.2010	40.1830
 1.2020	40.1860
 1.2030	40.1900
 1.2040	40.1950
 1.2050	40.2010
 1.2060	40.2050
 1.2070	40.2120
 1.2080	40.2190
 1.2090	40.2240
 1.2100	40.2340
 1.2110	40.2420
 1.2120	40.2490
 1.2130	40.2580
 1.2140	40.2690
 1.2150	40.2800
 1.2160	40.2920
 1.2170	40.3050
 1.2180	40.3170
 1.2190	40.3280
 1.2200	40.3390
 1.2210	40.3510
 1.2220	40.3640
 1.2230	40.3770
 1.2240	40.3890
 1.2250	40.4020
 1.2260	40.4140
 1.2270	40.4260
 1.2280	40.4370
 1.2290	40.4460
 1.2300	40.4560
 1.2310	40.4670
 1.2320	40.4790
 1.2330	40.4910
 1.2340	40.5010
 1.2350	40.5100
 1.2360	40.5190
 1.2370	40.5260
 1.2380	40.5340
 1.2390	40.5420
 1.2400	40.5500
 1.2410	40.5570
 1.2420	40.5620
 1.2430	40.5700
 1.2440	40.5770
 1.2450	40.5810
 1.2460	40.5870
 1.2470	40.5920
 1.2480	40.5960
 1.2490	40.6010
 1.2500	40.6070
 1.2510	40.6110
 1.2520	40.6150
 1.2530	40.6170
 1.2540	40.6160
 1.2550	40.6170
 1.2560	40.6170
 1.2570	40.6170
 1.2580	40.6170
 1.2590	40.6170
 1.2600	40.6150
 1.2610	40.6120
 1.2620	40.6090
 1.2630	40.6060
 1.2640	40.6030
 1.2650	40.6010
 1.2660	40.5990
 1.2670	40.5940
 1.2680	40.5880
 1.2690	40.5820
 1.2700	40.5770
 1.2710	40.5730
 1.2720	40.5670
 1.2730	40.5590
 1.2740	40.5510
 1.2750	40.5410
 1.2760	40.5330
 1.2770	40.5220
 1.2780	40.5090
 1.2790	40.4950
 1.2800	40.4790
 1.2810	40.4620
 1.2820	40.4480
 1.2830	40.4310
 1.2840	40.4120
 1.2850	40.3930
 1.2860	40.3710
 1.2870	40.3480
 1.2880	40.3230
 1.2890	40.2960
 1.2900	40.2670
 1.2910	40.2360
 1.2920	40.2040
 1.2930	40.1710
 1.2940	40.1360
 1.2950	40.1000
 1.2960	40.0650
 1.2970	40.0250
 1.2980	39.9840
 1.2990	39.9400
 1.3000	39.8940
 1.3010	39.8480
 1.3020	39.8010
 1.3030	39.7540
 1.3040	39.7070
 1.3050	39.6580
 1.3060	39.6060
 1.3070	39.5510
 1.3080	39.4950
 1.3090	39.4390
 1.3100	39.3820
 1.3110	39.3250
 1.3120	39.2670
 1.3130	39.2060
 1.3140	39.1440
 1.3150	39.0810
 1.3160	39.0170
 1.3170	38.9520
 1.3180	38.8840
 1.3190	38.8150
 1.3200	38.7460
 1.3210	38.6750
 1.3220	38.6030
 1.3230	38.5310
 1.3240	38.4570
 1.3250	38.3800
 1.3260	38.3020
 1.3270	38.2220
 1.3280	38.1400
 1.3290	38.0570
 1.3300	37.9730
 1.3310	37.8890
 1.3320	37.8030
 1.3330	37.7180
 1.3340	37.6330
 1.3350	37.5460
 1.3360	37.4590
 1.3370	37.3730
 1.3380	37.2880
 1.3390	37.2030
 1.3400	37.1160
 1.3410	37.0310
 1.3420	36.9450
 1.3430	36.8600
 1.3440	36.7770
 1.3450	36.6930
 1.3460	36.6090
 1.3470	36.5260
 1.3480	36.4430
 1.3490	36.3620
 1.3500	36.2820
 1.3510	36.2020
 1.3520	36.1200
 1.3530	36.0370
 1.3540	35.9540
 1.3550	35.8700
 1.3560	35.7860
 1.3570	35.7030
 1.3580	35.6180
 1.3590	35.5300
 1.3600	35.4400
 1.3610	35.3470
 1.3620	35.2490
 1.3630	35.1470
 1.3640	35.0390
 1.3650	34.9250
 1.3660	34.8080
 1.3670	34.6820
 1.3680	34.5470
 1.3690	34.4050
 1.3700	34.2500
 1.3710	34.0820
 1.3720	33.9010
 1.3730	33.7050
 1.3740	33.4950
 1.3750	33.2700
 1.3760	33.0260
 1.3770	32.7650
 1.3780	32.4830
 1.3790	32.1830
 1.3800	31.8640
 1.3810	31.5230
 1.3820	31.1650
 1.3830	30.7900
 1.3840	30.3950
 1.3850	29.9810
 1.3860	29.5530
 1.3870	29.1030
 1.3880	28.6470
 1.3890	28.1780
 1.3900	27.6980
 1.3910	27.2170
 1.3920	26.7290
 1.3930	26.2370
 1.3940	25.7470
 1.3950	25.2550
 1.3960	24.7700
 1.3970	24.2940
 1.3980	23.8260
 1.3990	23.3750
 1.4000	22.9350
 1.4010	22.5090
 1.4020	22.1000
 1.4030	21.7040
 1.4040	21.3260
 1.4050	20.9680
 1.4060	20.6270
 1.4070	20.3080
 1.4080	20.0090
 1.4090	19.7260
 1.4100	19.4630
 1.4110	19.2160
 1.4120	18.9860
 1.4130	18.7720
 1.4140	18.5730
 1.4150	18.3910
 1.4160	18.2230
 1.4170	18.0670
 1.4180	17.9240
 1.4190	17.7910
 1.4200	17.6680
 1.4210	17.5560
 1.4220	17.4530
 1.4230	17.3610
 1.4240	17.2760
 1.4250	17.1980
 1.4260	17.1270
 1.4270	17.0620
 1.4280	17.0040
 1.4290	16.9510
 1.4300	16.9050
 1.4310	16.8630
 1.4320	16.8260
 1.4330	16.7940
 1.4340	16.7660
 1.4350	16.7430
 1.4360	16.7240
 1.4370	16.7090
 1.4380	16.6980
 1.4390	16.6890
 1.4400	16.6830
 1.4410	16.6800
 1.4420	16.6790
 1.4430	16.6800
 1.4440	16.6850
 1.4450	16.6910
 1.4460	16.6980
 1.4470	16.7090
 1.4480	16.7200
 1.4490	16.7320
 1.4500	16.7470
 1.4510	16.7630
 1.4520	16.7800
 1.4530	16.8000
 1.4540	16.8220
 1.4550	16.8450
 1.4560	16.8730
 1.4570	16.9020
 1.4580	16.9330
 1.4590	16.9700
 1.4600	17.0090
 1.4610	17.0510
 1.4620	17.0990
 1.4630	17.1500
 1.4640	17.2050
 1.4650	17.2650
 1.4660	17.3300
 1.4670	17.3980
 1.4680	17.4720
 1.4690	17.5510
 1.4700	17.6320
 1.4710	17.7190
 1.4720	17.8080
 1.4730	17.9000
 1.4740	17.9960
 1.4750	18.0950
 1.4760	18.1980
 1.4770	18.3030
 1.4780	18.4090
 1.4790	18.5180
 1.4800	18.6270
 1.4810	18.7370
 1.4820	18.8500
 1.4830	18.9620
 1.4840	19.0770
 1.4850	19.1930
 1.4860	19.3100
 1.4870	19.4290
 1.4880	19.5480
 1.4890	19.6670
 1.4900	19.7870
 1.4910	19.9070
 1.4920	20.0280
 1.4930	20.1520
 1.4940	20.2750
 1.4950	20.4000
 1.4960	20.5230
 1.4970	20.6450
 1.4980	20.7690
 1.4990	20.8930
 1.5000	21.0180
 1.5010	21.1430
 1.5020	21.2680
 1.5030	21.3930
 1.5040	21.5170
 1.5050	21.6410
 1.5060	21.7650
 1.5070	21.8890
 1.5080	22.0120
 1.5090	22.1340
 1.5100	22.2570
 1.5110	22.3790
 1.5120	22.5000
 1.5130	22.6200
 1.5140	22.7410
 1.5150	22.8620
 1.5160	22.9810
 1.5170	23.1010
 1.5180	23.2200
 1.5190	23.3370
 1.5200	23.4550
 1.5210	23.5710
 1.5220	23.6860
 1.5230	23.8010
 1.5240	23.9150
 1.5250	24.0290
 1.5260	24.1430
 1.5270	24.2570
 1.5280	24.3680
 1.5290	24.4770
 1.5300	24.5860
 1.5310	24.6940
 1.5320	24.8010
 1.5330	24.9090
 1.5340	25.0150
 1.5350	25.1190
 1.5360	25.2240
 1.5370	25.3270
 1.5380	25.4300
 1.5390	25.5310
 1.5400	25.6300
 1.5410	25.7280
 1.5420	25.8250
 1.5430	25.9220
 1.5440	26.0190
 1.5450	26.1140
 1.5460	26.2080
 1.5470	26.3020
 1.5480	26.3960
 1.5490	26.4890
 1.5500	26.5800
 1.5510	26.6690
 1.5520	26.7570
 1.5530	26.8420
 1.5540	26.9280
 1.5550	27.0140
 1.5560	27.0980
 1.5570	27.1830
 1.5580	27.2670
 1.5590	27.3480
 1.5600	27.4290
 1.5610	27.5060
 1.5620	27.5830
 1.5630	27.6600
 1.5640	27.7370
 1.5650	27.8130
 1.5660	27.8880
 1.5670	27.9610
 1.5680	28.0320
 1.5690	28.1020
 1.5700	28.1730
 1.5710	28.2420
 1.5720	28.3110
 1.5730	28.3810
 1.5740	28.4490
 1.5750	28.5150
 1.5760	28.5820
 1.5770	28.6450
 1.5780	28.7070
 1.5790	28.7720
 1.5800	28.8350
 1.5810	28.8990
 1.5820	28.9630
 1.5830	29.0240
 1.5840	29.0840
 1.5850	29.1400
 1.5860	29.1970
 1.5870	29.2550
 1.5880	29.3110
 1.5890	29.3680
 1.5900	29.4250
 1.5910	29.4800
 1.5920	29.5340
 1.5930	29.5900
 1.5940	29.6430
 1.5950	29.6960
 1.5960	29.7490
 1.5970	29.8020
 1.5980	29.8530
 1.5990	29.9040
 1.6000	29.9560
 1.6010	30.0020
 1.6020	30.0500
 1.6030	30.0960
 1.6040	30.1390
 1.6050	30.1860
 1.6060	30.2310
 1.6070	30.2730
 1.6080	30.3170
 1.6090	30.3610
 1.6100	30.4040
 1.6110	30.4490
 1.6120	30.4920
 1.6130	30.5340
 1.6140	30.5740
 1.6150	30.6130
 1.6160	30.6530
 1.6170	30.6920
 1.6180	30.7300
 1.6190	30.7680
 1.6200	30.8030
 1.6210	30.8360
 1.6220	30.8680
 1.6230	30.9010
 1.6240	30.9350
 1.6250	30.9680
 1.6260	30.9990
 1.6270	31.0310
 1.6280	31.0610
 1.6290	31.0910
 1.6300	31.1230
 1.6310	31.1510
 1.6320	31.1790
 1.6330	31.2050
 1.6340	31.2300
 1.6350	31.2550
 1.6360	31.2810
 1.6370	31.3050
 1.6380	31.3290
 1.6390	31.3530
 1.6400	31.3740
 1.6410	31.3950
 1.6420	31.4180
 1.6430	31.4380
 1.6440	31.4570
 1.6450	31.4740
 1.6460	31.4900
 1.6470	31.5060
 1.6480	31.5220
 1.6490	31.5350
 1.6500	31.5470
 1.6510	31.5590
 1.6520	31.5680
 1.6530	31.5760
 1.6540	31.5860
 1.6550	31.5940
 1.6560	31.6010
 1.6570	31.6070
 1.6580	31.6110
 1.6590	31.6150
 1.6600	31.6190
 1.6610	31.6210
 1.6620	31.6220
 1.6630	31.6210
 1.6640	31.6200
 1.6650	31.6200
 1.6660	31.6210
 1.6670	31.6220
 1.6680	31.6200
 1.6690	31.6160
 1.6700	31.6120
 1.6710	31.6050
 1.6720	31.5980
 1.6730	31.5870
 1.6740	31.5750
 1.6750	31.5610
 1.6760	31.5470
 1.6770	31.5320
 1.6780	31.5180
 1.6790	31.5000
 1.6800	31.4810
 1.6810	31.4590
 1.6820	31.4350
 1.6830	31.4110
 1.6840	31.3860
 1.6850	31.3610
 1.6860	31.3360
 1.6870	31.3080
 1.6880	31.2800
 1.6890	31.2500
 1.6900	31.2190
 1.6910	31.1860
 1.6920	31.1540
 1.6930	31.1220
 1.6940	31.0890
 1.6950	31.0570
 1.6960	31.0230
 1.6970	30.9890
 1.6980	30.9540
 1.6990	30.9180
 1.7000	30.8810
 1.7010	30.8420
 1.7020	30.8030
 1.7030	30.7640
 1.7040	30.7240
 1.7050	30.6850
 1.7060	30.6440
 1.7070	30.5980
 1.7080	30.5560
 1.7090	30.5140
 1.7100	30.4720
 1.7110	30.4320
 1.7120	30.3920
 1.7130	30.3500
 1.7140	30.3090
 1.7150	30.2690
 1.7160	30.2290
 1.7170	30.1890
 1.7180	30.1500
 1.7190	30.1130
 1.7200	30.0740
 1.7210	30.0350
 1.7220	29.9950
 1.7230	29.9550
 1.7240	29.9170
 1.7250	29.8790
 1.7260	29.8410
 1.7270	29.8050
 1.7280	29.7690
 1.7290	29.7340
 1.7300	29.7010
 1.7310	29.6700
 1.7320	29.6390
 1.7330	29.6100
 1.7340	29.5840
 1.7350	29.5570
 1.7360	29.5300
 1.7370	29.5000
 1.7380	29.4690
 1.7390	29.4350
 1.7400	29.3970
 1.7410	29.3580
 1.7420	29.3170
 1.7430	29.2740
 1.7440	29.2290
 1.7450	29.1800
 1.7460	29.1270
 1.7470	29.0750
 1.7480	29.0200
 1.7490	28.9650
 1.7500	28.9090
 1.7510	28.8530
 1.7520	28.7980
 1.7530	28.7410
 1.7540	28.6830
 1.7550	28.6260
 1.7560	28.5680
 1.7570	28.5120
 1.7580	28.4580
 1.7590	28.4030
 1.7600	28.3470
 1.7610	28.2910
 1.7620	28.2390
 1.7630	28.1890
 1.7640	28.1400
 1.7650	28.0940
 1.7660	28.0500
 1.7670	28.0080
 1.7680	27.9670
 1.7690	27.9310
 1.7700	27.8940
 1.7710	27.8570
 1.7720	27.8210
 1.7730	27.7850
 1.7740	27.7520
 1.7750	27.7220
 1.7760	27.6910
 1.7770	27.6600
 1.7780	27.6310
 1.7790	27.5990
 1.7800	27.5750
 1.7810	27.5570
 1.7820	27.5380
 1.7830	27.5220
 1.7840	27.5030
 1.7850	27.4810
 1.7860	27.4650
 1.7870	27.4500
 1.7880	27.4400
 1.7890	27.4300
 1.7900	27.4220
 1.7910	27.4150
 1.7920	27.4090
 1.7930	27.4040
 1.7940	27.4010
 1.7950	27.3980
 1.7960	27.3990
 1.7970	27.3990
 1.7980	27.4010
 1.7990	27.4020
 1.8000	27.4030
 1.8010	27.4050
 1.8020	27.4080
 1.8030	27.4110
 1.8040	27.4150
 1.8050	27.4180
 1.8060	27.4210
 1.8070	27.4240
 1.8080	27.4280
 1.8090	27.4320
 1.8100	27.4370
 1.8110	27.4400
 1.8120	27.4420
 1.8130	27.4430
 1.8140	27.4430
 1.8150	27.4440
 1.8160	27.4430
 1.8170	27.4390
 1.8180	27.4360
 1.8190	27.4310
 1.8200	27.4250
 1.8210	27.4170
 1.8220	27.4100
 1.8230	27.4020
 1.8240	27.3930
 1.8250	27.3860
 1.8260	27.3740
 1.8270	27.3580
 1.8280	27.3420
 1.8290	27.3240
 1.8300	27.3050
 1.8310	26.9860
 1.8320	26.9540
 1.8330	26.9250
 1.8340	26.8880
 1.8350	26.8490
 1.8360	26.8100
 1.8370	26.7630
 1.8380	26.7140
 1.8390	26.6610
 1.8400	26.6020
 1.8410	26.5390
 1.8420	26.4720
 1.8430	26.4010
 1.8440	26.3240
 1.8450	26.2390
 1.8460	26.1430
 1.8470	26.0420
 1.8480	25.9330
 1.8490	25.8120
 1.8500	25.6820
 1.8510	25.5470
 1.8520	25.3950
 1.8530	25.2320
 1.8540	25.0650
 1.8550	24.8830
 1.8560	24.6930
 1.8570	24.4910
 1.8580	24.2680
 1.8590	24.0350
 1.8600	23.7880
 1.8610	23.5260
 1.8620	23.2510
 1.8630	22.9650
 1.8640	22.6570
 1.8650	22.3310
 1.8660	21.9900
 1.8670	21.6280
 1.8680	21.2530
 1.8690	20.8660
 1.8700	20.4630
 1.8710	20.0440
 1.8720	19.6160
 1.8730	19.1730
 1.8740	18.7170
 1.8750	18.2560
 1.8760	17.7850
 1.8770	17.3110
 1.8780	16.8390
 1.8790	16.3640
 1.8800	15.8950
 1.8810	15.4280
 1.8820	14.9650
 1.8830	14.5090
 1.8840	14.0610
 1.8850	13.6170
 1.8860	13.1900
 1.8870	12.7770
 1.8880	12.3750
 1.8890	11.9950
 1.8900	11.6340
 1.8910	11.2940
 1.8920	10.9690
 1.8930	10.6700
 1.8940	10.3910
 1.8950	10.1310
 1.8960	 9.8930
 1.8970	 9.6760
 1.8980	 9.4820
 1.8990	 9.3090
 1.9000	 9.1480
 1.9010	 9.0060
 1.9020	 8.8770
 1.9030	 8.7650
 1.9040	 8.6620
 1.9050	 8.5740
 1.9060	 8.4970
 1.9070	 8.4270
 1.9080	 8.3670
 1.9090	 8.3170
 1.9100	 8.2710
 1.9110	 8.2300
 1.9120	 8.1950
 1.9130	 8.1630
 1.9140	 8.1350
 1.9150	 8.1140
 1.9160	 8.0950
 1.9170	 8.0790
 1.9180	 8.0650
 1.9190	 8.0510
 1.9200	 8.0400
 1.9210	 8.0300
 1.9220	 8.0220
 1.9230	 8.0150
 1.9240	 8.0110
 1.9250	 8.0110
 1.9260	 8.0130
 1.9270	 8.0160
 1.9280	 8.0210
 1.9290	 8.0240
 1.9300	 8.0240
 1.9310	 8.0290
 1.9320	 8.0360
 1.9330	 8.0430
 1.9340	 8.0540
 1.9350	 8.0650
 1.9360	 8.0780
 1.9370	 8.0910
 1.9380	 8.1060
 1.9390	 8.1230
 1.9400	 8.1360
 1.9410	 8.1510
 1.9420	 8.1670
 1.9430	 8.1850
 1.9440	 8.2040
 1.9450	 8.2250
 1.9460	 8.2460
 1.9470	 8.2670
 1.9480	 8.2890
 1.9490	 8.3100
 1.9500	 8.3350
 1.9510	 8.3600
 1.9520	 8.3860
 1.9530	 8.4150
 1.9540	 8.4440
 1.9550	 8.4730
 1.9560	 8.5050
 1.9570	 8.5360
 1.9580	 8.5660
 1.9590	 8.5980
 1.9600	 8.6300
 1.9610	 8.6640
 1.9620	 8.6990
 1.9630	 8.7360
 1.9640	 8.7740
 1.9650	 8.8120
 1.9660	 8.8500
 1.9670	 8.8890
 1.9680	 8.9280
 1.9690	 8.9690
 1.9700	 9.0100
 1.9710	 9.0500
 1.9720	 9.0940
 1.9730	 9.1390
 1.9740	 9.1860
 1.9750	 9.2310
 1.9760	 9.2790
 1.9770	 9.3260
 1.9780	 9.3720
 1.9790	 9.4200
 1.9800	 9.4690
 1.9810	 9.5200
 1.9820	 9.5720
 1.9830	 9.6250
 1.9840	 9.6800
 1.9850	 9.7350
 1.9860	 9.7890
 1.9870	 9.8430
 1.9880	 9.9010
 1.9890	 9.9580
 1.9900	10.0160
 1.9910	10.0750
 1.9920	10.1320
 1.9930	10.1880
 1.9940	10.2450
 1.9950	10.3030
 1.9960	10.3620
 1.9970	10.4230
 1.9980	10.4830
 1.9990	10.5440
 2.0000	10.6050
 2.0010	10.6690
 2.0020	10.7330
 2.0030	10.8000
 2.0040	10.8670
 2.0050	10.9310
 2.0060	10.9910
 2.0070	11.0540
 2.0080	11.1170
 2.0090	11.1820
 2.0100	11.2510
 2.0110	11.3170
 2.0120	11.3800
 2.0130	11.4420
 2.0140	11.5060
 2.0150	11.5690
 2.0160	11.6370
 2.0170	11.7030
 2.0180	11.7690
 2.0190	11.8360
 2.0200	11.9010
 2.0210	11.9640
 2.0220	12.0290
 2.0230	12.0940
 2.0240	12.1570
 2.0250	12.2200
 2.0260	12.2830
 2.0270	12.3460
 2.0280	12.4110
 2.0290	12.4760
 2.0300	12.5410
 2.0310	12.6030
 2.0320	12.6630
 2.0330	12.7230
 2.0340	12.7840
 2.0350	12.8430
 2.0360	12.9000
 2.0370	12.9590
 2.0380	13.0160
 2.0390	13.0740
 2.0400	13.1320
 2.0410	13.1910
 2.0420	13.2500
 2.0430	13.3080
 2.0440	13.3640
 2.0450	13.4210
 2.0460	13.4780
 2.0470	13.5350
 2.0480	13.5910
 2.0490	13.6480
 2.0500	13.7040
 2.0510	13.7540
 2.0520	13.8090
 2.0530	13.8670
 2.0540	13.9230
 2.0550	13.9800
 2.0560	14.0380
 2.0570	14.0950
 2.0580	14.1510
 2.0590	14.2100
 2.0600	14.2700
 2.0610	14.3290
 2.0620	14.3900
 2.0630	14.4500
 2.0640	14.5080
 2.0650	14.5680
 2.0660	14.6290
 2.0670	14.6880
 2.0680	14.7490
 2.0690	14.8080
 2.0700	14.8630
 2.0710	14.9220
 2.0720	14.9840
 2.0730	15.0460
 2.0740	15.1080
 2.0750	15.1720
 2.0760	15.2340
 2.0770	15.2960
 2.0780	15.3550
 2.0790	15.4130
 2.0800	15.4720
 2.0810	15.5280
 2.0820	15.5870
 2.0830	15.6470
 2.0840	15.7070
 2.0850	15.7680
 2.0860	15.8270
 2.0870	15.8860
 2.0880	15.9450
 2.0890	16.0010
 2.0900	16.0540
 2.0910	16.1080
 2.0920	16.1600
 2.0930	16.2150
 2.0940	16.2710
 2.0950	16.3270
 2.0960	16.3860
 2.0970	16.4420
 2.0980	16.4960
 2.0990	16.5510
 2.1000	16.6060
 2.1010	16.6600
 2.1020	16.7130
 2.1030	16.7670
 2.1040	16.8220
 2.1050	16.8760
 2.1060	16.9290
 2.1070	16.9830
 2.1080	17.0380
 2.1090	17.0940
 2.1100	17.1480
 2.1110	17.2060
 2.1120	17.2580
 2.1130	17.3030
 2.1140	17.3530
 2.1150	17.4050
 2.1160	17.4550
 2.1170	17.5080
 2.1180	17.5590
 2.1190	17.6050
 2.1200	17.6530
 2.1210	17.7010
 2.1220	17.7500
 2.1230	17.7970
 2.1240	17.8470
 2.1250	17.8910
 2.1260	17.9310
 2.1270	17.9740
 2.1280	18.0130
 2.1290	18.0560
 2.1300	18.1040
 2.1310	18.1450
 2.1320	18.1840
 2.1330	18.2220
 2.1340	18.2540
 2.1350	18.2900
 2.1360	18.3280
 2.1370	18.3620
 2.1380	18.3980
 2.1390	18.4310
 2.1400	18.4630
 2.1410	18.4910
 2.1420	18.5210
 2.1430	18.5520
 2.1440	18.5820
 2.1450	18.6110
 2.1460	18.6380
 2.1470	18.6640
 2.1480	18.6900
 2.1490	18.7160
 2.1500	18.7410
 2.1510	18.7660
 2.1520	18.7890
 2.1530	18.8100
 2.1540	18.8290
 2.1550	18.8440
 2.1560	18.8620
 2.1570	18.8820
 2.1580	18.9000
 2.1590	18.9190
 2.1600	18.9370
 2.1610	18.9540
 2.1620	18.9700
 2.1630	18.9860
 2.1640	19.0030
 2.1650	19.0160
 2.1660	19.0250
 2.1670	19.0390
 2.1680	19.0560
 2.1690	19.0690
 2.1700	19.0860
 2.1710	19.0990
 2.1720	19.1070
 2.1730	19.1190
 2.1740	19.1340
 2.1750	19.1480
 2.1760	19.1630
 2.1770	19.1780
 2.1780	19.1930
 2.1790	19.2070
 2.1800	19.2200
 2.1810	19.2340
 2.1820	19.2500
 2.1830	19.2630
 2.1840	19.2790
 2.1850	19.2990
 2.1860	19.3160
 2.1870	19.3340
 2.1880	19.3520
 2.1890	19.3690
 2.1900	19.3850
 2.1910	19.3990
 2.1920	19.4130
 2.1930	19.4270
 2.1940	19.4370
 2.1950	19.4440
 2.1960	19.4530
 2.1970	19.4590
 2.1980	19.4670
 2.1990	19.4800
 2.2000	19.4880
 2.2010	19.4910
 2.2020	19.4960
 2.2030	19.5000
 2.2040	19.5050
 2.2050	19.5120
 2.2060	19.5170
 2.2070	19.5210
 2.2080	19.5250
 2.2090	19.5240
 2.2100	19.5220
 2.2110	19.5200
 2.2120	19.5150
 2.2130	19.5110
 2.2140	19.5100
 2.2150	19.5030
 2.2160	19.4920
 2.2170	19.4830
 2.2180	19.4730
 2.2190	19.4640
 2.2200	19.4580
 2.2210	19.4490
 2.2220	19.4370
 2.2230	19.4260
 2.2240	19.4190
 2.2250	19.4040
 2.2260	19.3860
 2.2270	19.3680
 2.2280	19.3460
 2.2290	19.3200
 2.2300	19.2940
 2.2310	19.2660
 2.2320	19.2320
 2.2330	19.1940
 2.2340	19.1560
 2.2350	19.1180
 2.2360	19.0750
 2.2370	19.0280
 2.2380	18.9840
 2.2390	18.9390
 2.2400	18.8930
 2.2410	18.8460
 2.2420	18.8000
 2.2430	18.7480
 2.2440	18.7040
 2.2450	18.6680
 2.2460	18.6290
 2.2470	18.5920
 2.2480	18.5570
 2.2490	18.5210
 2.2500	18.4870
 2.2510	18.4590
 2.2520	18.4280
 2.2530	18.3990
 2.2540	18.3670
 2.2550	18.3310
 2.2560	18.2970
 2.2570	18.2640
 2.2580	18.2250
 2.2590	18.1850
 2.2600	18.1430
 2.2610	18.0960
 2.2620	18.0470
 2.2630	18.0060
 2.2640	17.9620
 2.2650	17.9140
 2.2660	17.8660
 2.2670	17.8180
 2.2680	17.7670
 2.2690	17.7200
 2.2700	17.6770
 2.2710	17.6340
 2.2720	17.5950
 2.2730	17.5480
 2.2740	17.4950
 2.2750	17.4490
 2.2760	17.3990
 2.2770	17.3530
 2.2780	17.3140
 2.2790	17.2700
 2.2800	17.2220
 2.2810	17.1750
 2.2820	17.1290
 2.2830	17.0830
 2.2840	17.0380
 2.2850	16.9940
 2.2860	16.9530
 2.2870	16.9090
 2.2880	16.8630
 2.2890	16.8170
 2.2900	16.7680
 2.2910	16.7200
 2.2920	16.6740
 2.2930	16.6230
 2.2940	16.5690
 2.2950	16.5170
 2.2960	16.4600
 2.2970	16.4060
 2.2980	16.3550
 2.2990	16.3050
 2.3000	16.2560
 2.3010	16.2030
 2.3020	16.1460
 2.3030	16.0900
 2.3040	16.0320
 2.3050	15.9760
 2.3060	15.9250
 2.3070	15.8740
 2.3080	15.8270
 2.3090	15.7840
 2.3100	15.7430
 2.3110	15.7040
 2.3120	15.6700
 2.3130	15.6420
 2.3140	15.6140
 2.3150	15.5900
 2.3160	15.5690
 2.3170	15.5520
 2.3180	15.5340
 2.3190	15.5230
 2.3200	15.5020
 2.3210	15.4760
 2.3220	15.4530
 2.3230	15.4280
 2.3240	15.4000
 2.3250	15.3720
 2.3260	15.3440
 2.3270	15.3130
 2.3280	15.2810
 2.3290	15.2530
 2.3300	15.2170
 2.3310	15.1720
 2.3320	15.1320
 2.3330	15.0910
 2.3340	15.0500
 2.3350	15.0090
 2.3360	14.9670
 2.3370	14.9210
 2.3380	14.8790
 2.3390	14.8410
 2.3400	14.7950
 2.3410	14.7440
 2.3420	14.6970
 2.3430	14.6480
 2.3440	14.6010
 2.3450	14.5590
 2.3460	14.5150
 2.3470	14.4710
 2.3480	14.4270
 2.3490	14.3780
 2.3500	14.3370
 2.3510	14.2980
 2.3520	14.2610
 2.3530	14.2320
 2.3540	14.2020
 2.3550	14.1640
 2.3560	14.1370
 2.3570	14.1120
 2.3580	14.0830
 2.3590	14.0560
 2.3600	14.0240
 2.3610	13.9820
 2.3620	13.9420
 2.3630	13.9080
 2.3640	13.8710
 2.3650	13.8350
 2.3660	13.8040
 2.3670	13.7700
 2.3680	13.7370
 2.3690	13.7120
 2.3700	13.6840
 2.3710	13.6380
 2.3720	13.5910
 2.3730	13.5420
 2.3740	13.4870
 2.3750	13.4490
 2.3760	13.4110
 2.3770	13.3670
 2.3780	13.3340
 2.3790	13.2970
 2.3800	13.2540
 2.3810	13.2190
 2.3820	13.1780
 2.3830	13.1390
 2.3840	13.1070
 2.3850	13.0670
 2.3860	13.0290
 2.3870	12.9950
 2.3880	12.9580
 2.3890	12.9200
 2.3900	12.8870
 2.3910	12.8500
 2.3920	12.8100
 2.3930	12.7710
 2.3940	12.7230
 2.3950	12.6890
 2.3960	12.6500
 2.3970	12.6140
 2.3980	12.5850
 2.3990	12.5430
 2.4000	12.5060
 2.4010	12.4660
 2.4020	12.4290
 2.4030	12.4010
 2.4040	12.3610
 2.4050	12.3260
 2.4060	12.2910
 2.4070	12.2390
 2.4080	12.1880
 2.4090	12.1450
 2.4100	12.1040
 2.4110	12.0590
 2.4120	12.0310
 2.4130	12.0080
 2.4140	11.9690
 2.4150	11.9410
 2.4160	11.9090
 2.4170	11.8600
 2.4180	11.8170
 2.4190	11.7720
 2.4200	11.7310
 2.4210	11.6870
 2.4220	11.6390
 2.4230	11.6060
 2.4240	11.5630
 2.4250	11.5280
 2.4260	11.5110
 2.4270	11.4820
 2.4280	11.4530
 2.4290	11.4160
 2.4300	11.3740
 2.4310	11.3360
 2.4320	11.2960
 2.4330	11.2580
 2.4340	11.2160
 2.4350	11.1780
 2.4360	11.1480
 2.4370	11.1340
 2.4380	11.1130
 2.4390	11.0570
 2.4400	11.0050
 2.4410	10.9550
 2.4420	10.8900
 2.4430	10.8550
 2.4440	10.8350
 2.4450	10.7930
 2.4460	10.7670
 2.4470	10.7640
 2.4480	10.7340
 2.4490	10.7050
 2.4500	10.6960
 2.4510	10.6670
 2.4520	10.6300
 2.4530	10.5950
 2.4540	10.5460
 2.4550	10.4820
 2.4560	10.4400
 2.4570	10.4210
 2.4580	10.3900
 2.4590	10.3660
 2.4600	10.3460
 2.4610	10.3050
 2.4620	10.2720
 2.4630	10.2490
 2.4640	10.2190
 2.4650	10.1990
 2.4660	10.1860
 2.4670	10.1810
 2.4680	10.1650
 2.4690	10.1380
 2.4700	10.1090
 2.4710	10.0710
 2.4720	10.0500
 2.4730	10.0430
 2.4740	10.0120
 2.4750	 9.9650
 2.4760	 9.9420
 2.4770	 9.9120
 2.4780	 9.8950
 2.4790	 9.9170
 2.4800	 9.8950
 2.4810	 9.8530
 2.4820	 9.8180
 2.4830	 9.7770
 2.4840	 9.7480
 2.4850	 9.7130
 2.4860	 9.6900
 2.4870	 9.6780
 2.4880	 9.6910
 2.4890	 9.7070
 2.4900	 9.7090
 2.4910	 9.7180
 2.4920	 9.7140
 2.4930	 9.7120
 2.4940	 9.7050
 2.4950	 9.6890
 2.4960	 9.7030
 2.4970	 9.6620
 2.4980	 9.6190
 2.4990	 9.6330
 2.5000	 9.6020
