Name: Ceanothus megacarpus 1
Type: vegetation
Class: Shrub
Genus: Ceanothus
Species: megacarpus
Sample No.: VH139
Owner: UCSB
Wavelength Range: TIR
Origin: 34.4908; -119.7914; WGS84
Collection Date: 6/3/2013
Description: Samples were collected as part of the HyspIRI Airborne Campaign. 48 individual plants were sampled in three times in 2013 - spring  summer  and fall. The name of the sample includes a 1  2  or 3 which references a different individual of the species. Samples were taken to JPL and processed within 48 hours of collection. The same leaves were processed in the Nicolet and then measured using the ASD.
Measurement: Hemispherical reflectance
First Column: X
Second Column: Y
X Units: Wavelength (micrometers)
Y Units: Reflectance (percentage)
First X Value: 2.501
Last X Value: 15.387
Number of X Values: 1737
Additional Information: vegetation.shrub.ceanothus.megacarpus.tir.vh139.ucsb.nicolet.ancillary.txt

 2.5010	 2.0040
 2.5030	 1.9710
 2.5040	 1.9940
 2.5050	 2.0080
 2.5060	 1.9950
 2.5070	 2.0250
 2.5090	 2.1040
 2.5100	 2.0410
 2.5110	 2.0010
 2.5120	 1.9640
 2.5140	 1.9590
 2.5150	 2.0190
 2.5160	 2.1220
 2.5170	 2.0520
 2.5180	 2.0280
 2.5200	 2.0080
 2.5210	 2.0160
 2.5220	 2.0400
 2.5230	 2.0810
 2.5250	 2.0640
 2.5260	 2.0480
 2.5270	 2.0060
 2.5280	 2.0690
 2.5290	 2.0600
 2.5310	 2.0020
 2.5320	 1.9900
 2.5330	 2.0830
 2.5340	 2.1210
 2.5360	 2.0620
 2.5370	 2.0020
 2.5380	 2.0430
 2.5390	 2.0570
 2.5410	 2.0490
 2.5420	 2.0430
 2.5430	 2.0740
 2.5440	 2.0560
 2.5460	 2.0970
 2.5470	 2.1000
 2.5480	 2.1180
 2.5490	 2.0990
 2.5510	 2.0990
 2.5520	 2.0970
 2.5530	 2.1260
 2.5540	 2.1340
 2.5560	 2.1370
 2.5570	 2.0730
 2.5580	 2.1290
 2.5590	 2.1490
 2.5610	 2.1400
 2.5620	 2.1240
 2.5630	 2.1720
 2.5640	 2.1870
 2.5660	 2.1980
 2.5670	 2.1480
 2.5680	 2.0940
 2.5700	 2.1440
 2.5710	 2.2000
 2.5720	 2.1650
 2.5730	 2.1670
 2.5750	 2.1450
 2.5760	 2.1520
 2.5770	 2.1750
 2.5790	 2.1820
 2.5800	 2.1500
 2.5810	 2.1340
 2.5820	 2.1190
 2.5840	 2.1770
 2.5850	 2.1300
 2.5860	 2.0880
 2.5880	 2.0860
 2.5890	 2.1940
 2.5900	 2.2080
 2.5910	 2.1520
 2.5930	 2.1080
 2.5940	 2.1290
 2.5950	 2.1520
 2.5970	 2.2190
 2.5980	 2.2140
 2.5990	 2.2260
 2.6000	 2.2070
 2.6020	 2.1770
 2.6030	 2.1150
 2.6040	 2.1630
 2.6060	 2.1810
 2.6070	 2.1970
 2.6080	 2.1820
 2.6100	 2.1780
 2.6110	 2.1500
 2.6120	 2.1770
 2.6140	 2.1940
 2.6150	 2.2150
 2.6160	 2.1740
 2.6180	 2.1780
 2.6190	 2.1760
 2.6200	 2.2140
 2.6220	 2.1880
 2.6230	 2.1710
 2.6240	 2.1190
 2.6260	 2.1540
 2.6270	 2.1550
 2.6280	 2.1780
 2.6300	 2.1330
 2.6310	 2.1530
 2.6320	 2.1790
 2.6340	 2.1840
 2.6350	 2.1410
 2.6360	 2.1520
 2.6380	 2.1860
 2.6390	 2.2320
 2.6400	 2.1860
 2.6420	 2.1820
 2.6430	 2.1870
 2.6440	 2.2090
 2.6460	 2.1800
 2.6470	 2.2040
 2.6480	 2.2180
 2.6500	 2.1990
 2.6510	 2.1320
 2.6520	 2.1190
 2.6540	 2.1430
 2.6550	 2.1640
 2.6560	 2.1590
 2.6580	 2.2050
 2.6590	 2.2040
 2.6610	 2.2190
 2.6620	 2.1650
 2.6630	 2.1500
 2.6650	 2.1470
 2.6660	 2.1570
 2.6670	 2.1500
 2.6690	 2.1470
 2.6700	 2.1050
 2.6720	 2.1040
 2.6730	 2.0760
 2.6740	 2.0910
 2.6760	 2.0320
 2.6770	 2.0080
 2.6780	 2.0240
 2.6800	 2.0800
 2.6810	 2.0800
 2.6830	 2.0840
 2.6840	 2.0200
 2.6850	 2.0410
 2.6870	 2.0520
 2.6880	 2.0630
 2.6900	 2.0550
 2.6910	 2.1150
 2.6920	 2.0930
 2.6940	 2.0360
 2.6950	 1.9910
 2.6970	 2.0140
 2.6980	 2.0160
 2.6990	 2.0410
 2.7010	 1.9970
 2.7020	 2.0190
 2.7040	 2.0140
 2.7050	 2.0040
 2.7060	 2.0000
 2.7080	 2.0330
 2.7090	 2.0080
 2.7110	 2.0340
 2.7120	 2.0020
 2.7130	 2.0030
 2.7150	 1.9930
 2.7160	 2.0460
 2.7180	 1.9920
 2.7190	 1.9340
 2.7210	 1.9220
 2.7220	 1.9940
 2.7230	 1.9810
 2.7250	 1.9880
 2.7260	 1.9790
 2.7280	 1.9730
 2.7290	 1.9210
 2.7310	 1.9190
 2.7320	 1.9180
 2.7330	 1.9320
 2.7350	 1.9390
 2.7360	 1.9670
 2.7380	 1.9250
 2.7390	 1.9250
 2.7410	 1.8910
 2.7420	 1.8960
 2.7440	 1.9190
 2.7450	 1.9750
 2.7470	 1.9640
 2.7480	 1.9870
 2.7490	 1.9260
 2.7510	 1.9310
 2.7520	 1.9410
 2.7540	 1.8790
 2.7550	 1.8050
 2.7570	 1.8630
 2.7580	 1.8660
 2.7600	 1.8380
 2.7610	 1.8200
 2.7630	 1.8680
 2.7640	 1.8280
 2.7660	 1.8260
 2.7670	 1.8220
 2.7680	 1.8350
 2.7700	 1.8260
 2.7710	 1.8410
 2.7730	 1.8330
 2.7740	 1.8420
 2.7760	 1.8080
 2.7770	 1.8640
 2.7790	 1.8730
 2.7800	 1.8770
 2.7820	 1.8330
 2.7830	 1.8230
 2.7850	 1.8210
 2.7860	 1.8210
 2.7880	 1.7720
 2.7890	 1.7890
 2.7910	 1.8250
 2.7920	 1.8250
 2.7940	 1.7550
 2.7950	 1.7970
 2.7970	 1.7850
 2.7980	 1.8000
 2.8000	 1.8320
 2.8010	 1.8620
 2.8030	 1.7870
 2.8040	 1.7900
 2.8060	 1.8250
 2.8070	 1.8170
 2.8090	 1.7300
 2.8110	 1.7330
 2.8120	 1.7320
 2.8140	 1.7930
 2.8150	 1.7940
 2.8170	 1.8060
 2.8180	 1.7530
 2.8200	 1.7410
 2.8210	 1.7550
 2.8230	 1.7660
 2.8240	 1.7620
 2.8260	 1.7960
 2.8270	 1.7930
 2.8290	 1.8320
 2.8300	 1.8040
 2.8320	 1.7860
 2.8340	 1.7750
 2.8350	 1.7920
 2.8370	 1.7640
 2.8380	 1.7520
 2.8400	 1.7280
 2.8410	 1.7680
 2.8430	 1.7630
 2.8440	 1.7640
 2.8460	 1.7560
 2.8480	 1.7050
 2.8490	 1.6850
 2.8510	 1.7640
 2.8520	 1.7460
 2.8540	 1.7110
 2.8550	 1.6970
 2.8570	 1.7330
 2.8590	 1.7500
 2.8600	 1.7910
 2.8620	 1.7870
 2.8630	 1.7720
 2.8650	 1.7600
 2.8660	 1.8110
 2.8680	 1.7580
 2.8700	 1.7150
 2.8710	 1.7270
 2.8730	 1.7700
 2.8740	 1.7580
 2.8760	 1.7850
 2.8780	 1.7510
 2.8790	 1.7700
 2.8810	 1.7510
 2.8820	 1.7520
 2.8840	 1.7460
 2.8860	 1.7380
 2.8870	 1.7050
 2.8890	 1.6970
 2.8900	 1.7010
 2.8920	 1.7310
 2.8940	 1.7250
 2.8950	 1.7180
 2.8970	 1.6820
 2.8980	 1.7210
 2.9000	 1.7560
 2.9020	 1.7670
 2.9030	 1.7270
 2.9050	 1.7650
 2.9070	 1.8400
 2.9080	 1.8590
 2.9100	 1.8070
 2.9120	 1.8210
 2.9130	 1.7560
 2.9150	 1.7640
 2.9160	 1.7400
 2.9180	 1.7310
 2.9200	 1.7170
 2.9210	 1.7550
 2.9230	 1.7600
 2.9250	 1.7890
 2.9260	 1.7700
 2.9280	 1.8120
 2.9300	 1.8090
 2.9310	 1.8230
 2.9330	 1.8130
 2.9350	 1.7960
 2.9360	 1.7480
 2.9380	 1.7930
 2.9400	 1.8180
 2.9410	 1.8530
 2.9430	 1.8380
 2.9450	 1.8310
 2.9460	 1.8440
 2.9480	 1.8980
 2.9500	 1.8440
 2.9510	 1.8140
 2.9530	 1.8360
 2.9550	 1.8670
 2.9560	 1.8630
 2.9580	 1.9020
 2.9600	 1.8890
 2.9610	 1.9020
 2.9630	 1.8970
 2.9650	 1.8800
 2.9660	 1.8600
 2.9680	 1.8900
 2.9700	 1.9020
 2.9720	 1.9340
 2.9730	 1.9030
 2.9750	 1.8910
 2.9770	 1.8770
 2.9780	 1.9270
 2.9800	 1.9230
 2.9820	 1.9300
 2.9840	 1.9030
 2.9850	 1.9020
 2.9870	 1.8940
 2.9890	 1.9410
 2.9900	 1.9350
 2.9920	 1.9230
 2.9940	 1.8980
 2.9960	 1.8980
 2.9970	 1.8790
 2.9990	 1.9200
 3.0010	 1.9260
 3.0030	 1.9220
 3.0040	 1.9150
 3.0060	 1.9900
 3.0080	 2.0180
 3.0100	 2.0240
 3.0110	 2.0040
 3.0130	 1.9570
 3.0150	 1.9180
 3.0170	 1.9550
 3.0180	 1.9720
 3.0200	 1.9720
 3.0220	 1.9520
 3.0240	 1.9690
 3.0250	 1.9760
 3.0270	 2.0260
 3.0290	 2.0750
 3.0310	 2.0810
 3.0320	 2.0450
 3.0340	 2.1030
 3.0360	 2.0600
 3.0380	 2.0430
 3.0400	 2.0320
 3.0410	 2.0580
 3.0430	 2.0490
 3.0450	 2.0700
 3.0470	 2.0740
 3.0480	 2.0960
 3.0500	 2.0880
 3.0520	 2.1130
 3.0540	 2.0630
 3.0560	 2.0760
 3.0570	 2.0970
 3.0590	 2.1280
 3.0610	 2.1280
 3.0630	 2.1140
 3.0650	 2.0670
 3.0660	 2.1100
 3.0680	 2.1310
 3.0700	 2.1180
 3.0720	 2.0590
 3.0740	 2.1300
 3.0760	 2.1590
 3.0770	 2.1460
 3.0790	 2.1410
 3.0810	 2.1250
 3.0830	 2.0930
 3.0850	 2.1130
 3.0870	 2.1010
 3.0880	 2.1580
 3.0900	 2.1970
 3.0920	 2.1900
 3.0940	 2.1710
 3.0960	 2.2240
 3.0980	 2.1770
 3.0990	 2.1820
 3.1010	 2.1870
 3.1030	 2.1760
 3.1050	 2.1860
 3.1070	 2.2540
 3.1090	 2.2110
 3.1110	 2.1700
 3.1120	 2.1610
 3.1140	 2.2420
 3.1160	 2.2720
 3.1180	 2.2850
 3.1200	 2.2400
 3.1220	 2.2300
 3.1240	 2.2180
 3.1260	 2.2650
 3.1270	 2.2580
 3.1290	 2.2650
 3.1310	 2.1830
 3.1330	 2.1950
 3.1350	 2.2180
 3.1370	 2.2490
 3.1390	 2.2720
 3.1410	 2.3310
 3.1430	 2.2990
 3.1450	 2.2800
 3.1460	 2.2900
 3.1480	 2.3020
 3.1500	 2.2290
 3.1520	 2.2570
 3.1540	 2.3230
 3.1560	 2.3320
 3.1580	 2.2620
 3.1600	 2.2740
 3.1620	 2.3150
 3.1640	 2.3200
 3.1660	 2.2830
 3.1680	 2.2940
 3.1700	 2.3120
 3.1710	 2.3420
 3.1730	 2.3230
 3.1750	 2.3290
 3.1770	 2.3330
 3.1790	 2.3820
 3.1810	 2.3940
 3.1830	 2.4150
 3.1850	 2.3560
 3.1870	 2.3730
 3.1890	 2.4260
 3.1910	 2.4350
 3.1930	 2.3590
 3.1950	 2.3170
 3.1970	 2.3600
 3.1990	 2.4410
 3.2010	 2.4140
 3.2030	 2.4120
 3.2050	 2.3770
 3.2070	 2.3860
 3.2090	 2.4270
 3.2110	 2.4800
 3.2130	 2.4620
 3.2150	 2.4400
 3.2170	 2.4100
 3.2190	 2.4260
 3.2210	 2.4000
 3.2230	 2.3880
 3.2250	 2.3730
 3.2270	 2.3910
 3.2290	 2.3840
 3.2310	 2.4080
 3.2330	 2.3980
 3.2350	 2.4090
 3.2370	 2.4240
 3.2390	 2.4440
 3.2410	 2.4480
 3.2430	 2.4770
 3.2450	 2.4630
 3.2470	 2.4550
 3.2490	 2.4250
 3.2510	 2.4760
 3.2530	 2.4870
 3.2550	 2.4920
 3.2570	 2.4630
 3.2590	 2.4570
 3.2610	 2.4350
 3.2630	 2.4630
 3.2650	 2.4490
 3.2670	 2.4310
 3.2690	 2.4090
 3.2720	 2.4080
 3.2740	 2.4030
 3.2760	 2.4670
 3.2780	 2.5100
 3.2800	 2.5100
 3.2820	 2.4700
 3.2840	 2.4860
 3.2860	 2.4910
 3.2880	 2.5040
 3.2900	 2.4420
 3.2920	 2.4920
 3.2940	 2.4940
 3.2960	 2.4810
 3.2990	 2.5340
 3.3010	 2.5300
 3.3030	 2.4310
 3.3050	 2.4560
 3.3070	 2.4800
 3.3090	 2.4760
 3.3110	 2.4390
 3.3130	 2.4530
 3.3150	 2.4420
 3.3180	 2.4250
 3.3200	 2.4290
 3.3220	 2.4820
 3.3240	 2.4380
 3.3260	 2.4400
 3.3280	 2.4120
 3.3300	 2.3950
 3.3330	 2.3710
 3.3350	 2.4040
 3.3370	 2.4020
 3.3390	 2.3880
 3.3410	 2.3270
 3.3430	 2.3300
 3.3450	 2.3030
 3.3480	 2.2970
 3.3500	 2.2600
 3.3520	 2.2800
 3.3540	 2.2490
 3.3560	 2.2330
 3.3580	 2.2360
 3.3610	 2.2190
 3.3630	 2.1990
 3.3650	 2.2300
 3.3670	 2.2070
 3.3690	 2.1750
 3.3720	 2.1510
 3.3740	 2.1800
 3.3760	 2.1700
 3.3780	 2.1920
 3.3800	 2.1960
 3.3830	 2.2450
 3.3850	 2.2480
 3.3870	 2.2550
 3.3890	 2.1910
 3.3910	 2.1720
 3.3940	 2.1670
 3.3960	 2.1920
 3.3980	 2.1460
 3.4000	 2.1720
 3.4020	 2.2130
 3.4050	 2.3190
 3.4070	 2.4360
 3.4090	 2.5660
 3.4110	 2.6500
 3.4140	 2.8080
 3.4160	 3.0450
 3.4180	 3.4020
 3.4200	 3.8060
 3.4230	 4.2990
 3.4250	 4.8880
 3.4270	 5.5770
 3.4290	 5.9750
 3.4320	 5.7700
 3.4340	 5.0830
 3.4360	 4.5230
 3.4390	 4.1570
 3.4410	 3.9170
 3.4430	 3.7470
 3.4450	 3.7130
 3.4480	 3.6740
 3.4500	 3.6150
 3.4520	 3.5580
 3.4550	 3.5200
 3.4570	 3.4710
 3.4590	 3.4800
 3.4620	 3.4350
 3.4640	 3.4090
 3.4660	 3.3430
 3.4680	 3.2720
 3.4710	 3.2340
 3.4730	 3.1800
 3.4750	 3.1060
 3.4780	 3.0700
 3.4800	 3.0370
 3.4820	 3.0460
 3.4850	 3.0030
 3.4870	 2.9820
 3.4890	 2.8980
 3.4920	 2.8800
 3.4940	 2.8940
 3.4970	 2.9740
 3.4990	 3.0220
 3.5010	 3.1260
 3.5040	 3.3690
 3.5060	 3.9890
 3.5080	 4.9210
 3.5110	 5.7160
 3.5130	 5.7390
 3.5160	 5.1410
 3.5180	 4.5660
 3.5200	 4.2330
 3.5230	 4.0000
 3.5250	 3.8730
 3.5270	 3.7480
 3.5300	 3.6560
 3.5320	 3.5820
 3.5350	 3.5940
 3.5370	 3.5960
 3.5400	 3.5820
 3.5420	 3.5260
 3.5440	 3.5320
 3.5470	 3.5110
 3.5490	 3.5120
 3.5520	 3.5150
 3.5540	 3.4990
 3.5570	 3.4920
 3.5590	 3.5240
 3.5610	 3.4560
 3.5640	 3.4360
 3.5660	 3.4320
 3.5690	 3.4580
 3.5710	 3.4170
 3.5740	 3.4070
 3.5760	 3.3830
 3.5790	 3.3960
 3.5810	 3.3740
 3.5840	 3.3630
 3.5860	 3.3400
 3.5890	 3.4140
 3.5910	 3.4310
 3.5930	 3.4140
 3.5960	 3.3500
 3.5980	 3.3170
 3.6010	 3.3320
 3.6030	 3.3310
 3.6060	 3.3290
 3.6080	 3.3500
 3.6110	 3.3460
 3.6140	 3.3660
 3.6160	 3.3480
 3.6190	 3.3330
 3.6210	 3.3040
 3.6240	 3.3380
 3.6260	 3.3800
 3.6290	 3.3960
 3.6310	 3.3640
 3.6340	 3.3300
 3.6360	 3.3260
 3.6390	 3.3910
 3.6410	 3.3720
 3.6440	 3.3370
 3.6470	 3.2810
 3.6490	 3.3000
 3.6520	 3.2870
 3.6540	 3.2650
 3.6570	 3.3340
 3.6590	 3.4210
 3.6620	 3.3720
 3.6650	 3.3750
 3.6670	 3.3520
 3.6700	 3.3330
 3.6720	 3.3490
 3.6750	 3.3930
 3.6780	 3.3660
 3.6800	 3.3850
 3.6830	 3.3470
 3.6850	 3.3480
 3.6880	 3.3370
 3.6910	 3.3650
 3.6930	 3.3770
 3.6960	 3.3730
 3.6990	 3.2830
 3.7010	 3.3270
 3.7040	 3.3670
 3.7060	 3.3540
 3.7090	 3.3670
 3.7120	 3.3890
 3.7140	 3.3530
 3.7170	 3.3540
 3.7200	 3.3800
 3.7220	 3.3840
 3.7250	 3.3400
 3.7280	 3.3240
 3.7300	 3.3010
 3.7330	 3.3670
 3.7360	 3.4130
 3.7390	 3.4050
 3.7410	 3.3790
 3.7440	 3.3760
 3.7470	 3.3550
 3.7490	 3.4090
 3.7520	 3.4210
 3.7550	 3.4470
 3.7580	 3.4310
 3.7600	 3.4410
 3.7630	 3.4320
 3.7660	 3.4170
 3.7680	 3.4100
 3.7710	 3.4310
 3.7740	 3.4000
 3.7770	 3.4180
 3.7790	 3.4020
 3.7820	 3.4000
 3.7850	 3.4110
 3.7880	 3.4390
 3.7900	 3.4090
 3.7930	 3.4340
 3.7960	 3.4520
 3.7990	 3.4640
 3.8020	 3.4150
 3.8040	 3.4160
 3.8070	 3.4310
 3.8100	 3.4780
 3.8130	 3.4650
 3.8160	 3.4140
 3.8180	 3.3700
 3.8210	 3.4590
 3.8240	 3.4470
 3.8270	 3.4090
 3.8300	 3.4600
 3.8330	 3.4790
 3.8350	 3.4550
 3.8380	 3.5070
 3.8410	 3.5260
 3.8440	 3.4970
 3.8470	 3.4600
 3.8500	 3.4350
 3.8520	 3.4090
 3.8550	 3.4540
 3.8580	 3.4690
 3.8610	 3.4750
 3.8640	 3.4730
 3.8670	 3.4830
 3.8700	 3.4610
 3.8730	 3.4530
 3.8750	 3.4590
 3.8780	 3.4550
 3.8810	 3.4610
 3.8840	 3.5210
 3.8870	 3.5330
 3.8900	 3.5280
 3.8930	 3.5180
 3.8960	 3.5100
 3.8990	 3.5010
 3.9020	 3.5320
 3.9050	 3.5160
 3.9080	 3.5300
 3.9110	 3.5100
 3.9140	 3.5480
 3.9160	 3.5680
 3.9190	 3.5440
 3.9220	 3.5430
 3.9250	 3.5670
 3.9280	 3.5290
 3.9310	 3.5450
 3.9340	 3.5140
 3.9370	 3.5110
 3.9400	 3.5150
 3.9430	 3.5240
 3.9460	 3.5070
 3.9490	 3.5120
 3.9520	 3.5150
 3.9550	 3.5440
 3.9580	 3.5390
 3.9610	 3.5550
 3.9640	 3.5540
 3.9670	 3.5590
 3.9700	 3.5590
 3.9730	 3.5940
 3.9770	 3.5920
 3.9800	 3.5480
 3.9830	 3.5090
 3.9860	 3.5380
 3.9890	 3.5440
 3.9920	 3.5590
 3.9950	 3.5450
 3.9980	 3.5520
 4.0010	 3.5480
 4.0040	 3.5950
 4.0070	 3.6130
 4.0100	 3.6330
 4.0130	 3.5930
 4.0170	 3.5880
 4.0200	 3.5840
 4.0230	 3.5680
 4.0260	 3.5680
 4.0290	 3.6200
 4.0320	 3.6050
 4.0350	 3.6170
 4.0380	 3.6480
 4.0420	 3.6720
 4.0450	 3.6370
 4.0480	 3.6290
 4.0510	 3.6220
 4.0540	 3.6010
 4.0570	 3.5540
 4.0610	 3.5560
 4.0640	 3.6040
 4.0670	 3.6530
 4.0700	 3.6320
 4.0730	 3.6020
 4.0770	 3.5940
 4.0800	 3.6200
 4.0830	 3.6390
 4.0860	 3.6360
 4.0890	 3.6640
 4.0930	 3.6870
 4.0960	 3.6420
 4.0990	 3.6200
 4.1020	 3.6000
 4.1060	 3.5990
 4.1090	 3.6060
 4.1120	 3.6160
 4.1150	 3.6200
 4.1190	 3.6170
 4.1220	 3.6020
 4.1250	 3.5870
 4.1280	 3.5690
 4.1320	 3.6220
 4.1350	 3.6580
 4.1380	 3.6190
 4.1420	 3.5550
 4.1450	 3.5600
 4.1480	 3.5860
 4.1520	 3.6540
 4.1550	 3.6800
 4.1580	 3.6510
 4.1620	 3.6390
 4.1650	 3.5930
 4.1680	 3.5870
 4.1720	 3.6280
 4.1750	 3.6650
 4.1780	 3.6910
 4.1820	 3.6820
 4.1850	 3.6230
 4.1890	 3.5660
 4.1920	 3.5560
 4.1950	 3.5130
 4.1990	 3.3930
 4.2020	 3.2400
 4.2060	 3.0510
 4.2090	 2.7820
 4.2120	 2.5450
 4.2160	 2.3260
 4.2190	 2.1720
 4.2230	 1.9920
 4.2260	 1.8610
 4.2300	 1.7810
 4.2330	 1.7210
 4.2360	 1.7410
 4.2400	 1.7720
 4.2430	 1.8530
 4.2470	 2.0120
 4.2500	 2.1870
 4.2540	 2.5390
 4.2570	 2.7990
 4.2610	 2.5960
 4.2640	 2.2720
 4.2680	 2.1470
 4.2710	 2.1190
 4.2750	 2.0940
 4.2780	 2.0930
 4.2820	 2.1380
 4.2850	 2.1580
 4.2890	 2.1630
 4.2930	 2.1810
 4.2960	 2.2580
 4.3000	 2.3570
 4.3030	 2.4160
 4.3070	 2.4300
 4.3100	 2.5400
 4.3140	 2.7140
 4.3180	 2.8230
 4.3210	 2.8730
 4.3250	 2.9460
 4.3280	 3.0620
 4.3320	 3.1970
 4.3360	 3.2970
 4.3390	 3.3150
 4.3430	 3.3170
 4.3470	 3.3650
 4.3500	 3.4200
 4.3540	 3.4440
 4.3570	 3.4530
 4.3610	 3.4830
 4.3650	 3.4710
 4.3680	 3.4860
 4.3720	 3.5320
 4.3760	 3.5220
 4.3800	 3.5090
 4.3830	 3.5340
 4.3870	 3.5110
 4.3910	 3.5140
 4.3940	 3.5350
 4.3980	 3.5330
 4.4020	 3.5070
 4.4060	 3.5430
 4.4090	 3.5500
 4.4130	 3.5150
 4.4170	 3.4560
 4.4210	 3.4610
 4.4240	 3.4550
 4.4280	 3.4530
 4.4320	 3.4900
 4.4360	 3.5340
 4.4400	 3.5360
 4.4430	 3.5480
 4.4470	 3.5380
 4.4510	 3.5030
 4.4550	 3.5160
 4.4590	 3.5390
 4.4620	 3.5490
 4.4660	 3.5350
 4.4700	 3.4960
 4.4740	 3.5140
 4.4780	 3.5510
 4.4820	 3.5590
 4.4860	 3.5410
 4.4900	 3.5150
 4.4930	 3.4730
 4.4970	 3.4840
 4.5010	 3.5410
 4.5050	 3.5430
 4.5090	 3.5630
 4.5130	 3.5770
 4.5170	 3.5810
 4.5210	 3.5740
 4.5250	 3.5300
 4.5290	 3.5270
 4.5330	 3.5550
 4.5370	 3.5320
 4.5410	 3.5340
 4.5450	 3.5630
 4.5490	 3.5830
 4.5530	 3.5720
 4.5570	 3.5630
 4.5610	 3.5820
 4.5650	 3.6020
 4.5690	 3.5470
 4.5730	 3.5300
 4.5770	 3.5860
 4.5810	 3.5890
 4.5850	 3.5230
 4.5890	 3.5240
 4.5930	 3.6010
 4.5970	 3.6350
 4.6010	 3.5990
 4.6050	 3.5680
 4.6090	 3.5350
 4.6130	 3.5420
 4.6170	 3.5590
 4.6220	 3.5470
 4.6260	 3.5230
 4.6300	 3.5300
 4.6340	 3.5430
 4.6380	 3.5360
 4.6420	 3.5250
 4.6460	 3.5140
 4.6510	 3.5170
 4.6550	 3.5800
 4.6590	 3.5910
 4.6630	 3.5600
 4.6670	 3.5700
 4.6720	 3.5510
 4.6760	 3.5310
 4.6800	 3.5140
 4.6840	 3.4590
 4.6880	 3.4420
 4.6930	 3.5040
 4.6970	 3.5510
 4.7010	 3.5540
 4.7050	 3.5440
 4.7100	 3.5350
 4.7140	 3.5590
 4.7180	 3.5480
 4.7230	 3.5540
 4.7270	 3.5440
 4.7310	 3.5150
 4.7360	 3.5070
 4.7400	 3.5200
 4.7440	 3.5500
 4.7490	 3.5550
 4.7530	 3.5200
 4.7570	 3.5040
 4.7620	 3.4740
 4.7660	 3.5260
 4.7700	 3.5730
 4.7750	 3.5730
 4.7790	 3.5750
 4.7840	 3.5250
 4.7880	 3.4810
 4.7920	 3.4990
 4.7970	 3.5160
 4.8010	 3.4880
 4.8060	 3.4610
 4.8100	 3.4770
 4.8150	 3.5050
 4.8190	 3.4860
 4.8240	 3.4570
 4.8280	 3.4750
 4.8330	 3.5240
 4.8370	 3.4940
 4.8420	 3.4270
 4.8460	 3.4340
 4.8510	 3.4520
 4.8550	 3.4370
 4.8600	 3.4460
 4.8640	 3.4620
 4.8690	 3.4280
 4.8730	 3.4600
 4.8780	 3.4690
 4.8830	 3.4460
 4.8870	 3.4290
 4.8920	 3.4200
 4.8960	 3.4130
 4.9010	 3.4440
 4.9060	 3.4260
 4.9100	 3.3630
 4.9150	 3.3190
 4.9200	 3.3640
 4.9240	 3.4000
 4.9290	 3.4190
 4.9340	 3.4520
 4.9380	 3.4260
 4.9430	 3.3880
 4.9480	 3.3930
 4.9530	 3.3940
 4.9570	 3.4210
 4.9620	 3.3990
 4.9670	 3.4200
 4.9720	 3.4100
 4.9760	 3.3930
 4.9810	 3.4080
 4.9860	 3.3820
 4.9910	 3.3630
 4.9960	 3.3710
 5.0000	 3.3370
 5.0050	 3.3550
 5.0100	 3.3740
 5.0150	 3.3780
 5.0200	 3.4060
 5.0250	 3.4200
 5.0290	 3.4420
 5.0340	 3.4360
 5.0390	 3.4210
 5.0440	 3.4220
 5.0490	 3.3510
 5.0540	 3.3110
 5.0590	 3.3370
 5.0640	 3.3820
 5.0690	 3.3880
 5.0740	 3.3460
 5.0790	 3.3170
 5.0840	 3.3800
 5.0890	 3.4180
 5.0940	 3.4260
 5.0990	 3.3960
 5.1040	 3.3690
 5.1090	 3.3660
 5.1140	 3.3920
 5.1190	 3.3790
 5.1240	 3.3470
 5.1290	 3.3360
 5.1340	 3.3740
 5.1390	 3.3690
 5.1440	 3.3750
 5.1490	 3.3660
 5.1540	 3.3620
 5.1600	 3.3870
 5.1650	 3.4400
 5.1700	 3.4110
 5.1750	 3.3800
 5.1800	 3.3550
 5.1850	 3.3560
 5.1910	 3.3380
 5.1960	 3.3740
 5.2010	 3.3880
 5.2060	 3.3730
 5.2110	 3.3570
 5.2170	 3.3780
 5.2220	 3.3820
 5.2270	 3.4130
 5.2320	 3.3950
 5.2380	 3.3970
 5.2430	 3.3510
 5.2480	 3.2990
 5.2540	 3.2990
 5.2590	 3.3250
 5.2640	 3.3350
 5.2700	 3.3350
 5.2750	 3.2920
 5.2800	 3.3060
 5.2860	 3.3100
 5.2910	 3.3070
 5.2970	 3.2810
 5.3020	 3.2870
 5.3070	 3.3050
 5.3130	 3.3460
 5.3180	 3.2960
 5.3240	 3.2860
 5.3290	 3.3290
 5.3350	 3.3510
 5.3400	 3.3470
 5.3460	 3.3650
 5.3510	 3.3550
 5.3570	 3.3180
 5.3620	 3.2870
 5.3680	 3.2960
 5.3730	 3.2970
 5.3790	 3.3290
 5.3850	 3.3050
 5.3900	 3.3230
 5.3960	 3.3470
 5.4010	 3.3520
 5.4070	 3.3170
 5.4130	 3.2660
 5.4180	 3.2440
 5.4240	 3.2860
 5.4300	 3.3120
 5.4350	 3.2990
 5.4410	 3.2640
 5.4470	 3.2680
 5.4530	 3.2450
 5.4580	 3.2850
 5.4640	 3.2780
 5.4700	 3.2810
 5.4760	 3.2950
 5.4810	 3.2790
 5.4870	 3.2320
 5.4930	 3.2550
 5.4990	 3.2370
 5.5050	 3.2410
 5.5110	 3.2250
 5.5160	 3.2630
 5.5220	 3.2230
 5.5280	 3.2140
 5.5340	 3.1870
 5.5400	 3.1960
 5.5460	 3.1810
 5.5520	 3.1850
 5.5580	 3.1500
 5.5640	 3.1320
 5.5700	 3.1110
 5.5760	 3.1420
 5.5820	 3.0820
 5.5880	 3.0560
 5.5940	 3.0540
 5.6000	 3.1390
 5.6060	 3.1160
 5.6120	 3.0420
 5.6180	 3.0460
 5.6240	 3.0730
 5.6300	 3.0080
 5.6360	 2.9840
 5.6420	 2.9200
 5.6490	 2.9140
 5.6550	 2.9130
 5.6610	 2.9250
 5.6670	 2.8860
 5.6730	 2.8660
 5.6800	 2.8430
 5.6860	 2.8180
 5.6920	 2.7710
 5.6980	 2.7680
 5.7040	 2.7140
 5.7110	 2.7070
 5.7170	 2.6720
 5.7230	 2.6440
 5.7300	 2.5610
 5.7360	 2.5020
 5.7420	 2.4440
 5.7490	 2.4570
 5.7550	 2.4730
 5.7620	 2.5260
 5.7680	 2.5420
 5.7740	 2.6060
 5.7810	 2.6620
 5.7870	 2.7600
 5.7940	 2.7920
 5.8000	 2.8140
 5.8070	 2.8140
 5.8130	 2.8540
 5.8200	 2.8730
 5.8260	 2.9050
 5.8330	 2.9200
 5.8390	 2.9400
 5.8460	 2.9310
 5.8530	 2.9500
 5.8590	 2.9520
 5.8660	 2.9530
 5.8720	 2.8990
 5.8790	 2.8750
 5.8860	 2.8490
 5.8920	 2.8670
 5.8990	 2.8490
 5.9060	 2.8880
 5.9130	 2.9220
 5.9190	 2.9860
 5.9260	 3.0480
 5.9330	 3.1230
 5.9400	 3.1150
 5.9470	 3.1500
 5.9530	 3.1570
 5.9600	 3.1820
 5.9670	 3.1240
 5.9740	 3.1490
 5.9810	 3.1780
 5.9880	 3.1730
 5.9950	 3.1230
 6.0020	 3.1140
 6.0090	 3.0390
 6.0160	 3.0130
 6.0230	 2.9980
 6.0300	 3.0140
 6.0370	 2.9710
 6.0440	 2.9780
 6.0510	 2.9430
 6.0580	 2.9730
 6.0650	 2.9260
 6.0720	 2.9070
 6.0790	 2.8840
 6.0860	 2.9180
 6.0930	 2.8790
 6.1000	 2.8740
 6.1080	 2.8800
 6.1150	 2.9180
 6.1220	 2.8960
 6.1290	 2.9140
 6.1370	 2.8910
 6.1440	 2.9290
 6.1510	 2.9090
 6.1580	 2.9120
 6.1660	 2.8600
 6.1730	 2.8350
 6.1800	 2.8090
 6.1880	 2.8630
 6.1950	 2.8860
 6.2030	 2.8790
 6.2100	 2.8760
 6.2170	 2.9480
 6.2250	 2.8830
 6.2320	 2.9280
 6.2400	 2.9720
 6.2470	 2.9960
 6.2550	 2.9400
 6.2630	 2.9280
 6.2700	 2.8970
 6.2780	 2.9270
 6.2850	 2.8850
 6.2930	 2.8900
 6.3010	 2.8720
 6.3080	 2.9210
 6.3160	 2.9060
 6.3240	 2.9120
 6.3310	 2.8640
 6.3390	 2.8890
 6.3470	 2.8690
 6.3550	 2.9210
 6.3620	 2.9260
 6.3700	 2.9580
 6.3780	 2.9250
 6.3860	 2.9160
 6.3940	 2.8850
 6.4020	 2.9090
 6.4100	 2.8780
 6.4180	 2.8810
 6.4260	 2.8410
 6.4330	 2.8940
 6.4410	 2.9320
 6.4490	 2.9780
 6.4580	 2.9420
 6.4660	 2.9530
 6.4740	 2.9030
 6.4820	 2.9500
 6.4900	 2.9500
 6.4980	 2.9740
 6.5060	 2.9250
 6.5140	 2.9460
 6.5230	 2.9990
 6.5310	 3.0570
 6.5390	 3.0000
 6.5470	 3.0030
 6.5550	 2.9650
 6.5640	 2.9890
 6.5720	 2.9320
 6.5800	 2.9340
 6.5890	 2.8710
 6.5970	 2.9100
 6.6060	 2.9160
 6.6140	 3.0000
 6.6220	 2.9780
 6.6310	 2.9510
 6.6390	 2.9080
 6.6480	 2.9670
 6.6560	 2.9400
 6.6650	 2.9170
 6.6740	 2.8970
 6.6820	 2.8950
 6.6910	 2.8120
 6.6990	 2.8450
 6.7080	 2.8300
 6.7170	 2.8140
 6.7260	 2.7480
 6.7340	 2.7690
 6.7430	 2.7700
 6.7520	 2.7680
 6.7610	 2.6910
 6.7690	 2.6900
 6.7780	 2.7630
 6.7870	 2.9960
 6.7960	 2.9810
 6.8050	 2.7980
 6.8140	 2.6310
 6.8230	 2.7280
 6.8320	 2.9060
 6.8410	 3.0620
 6.8500	 2.8830
 6.8590	 2.7500
 6.8680	 2.7380
 6.8770	 2.8450
 6.8860	 2.8260
 6.8950	 2.8000
 6.9050	 2.7700
 6.9140	 2.8290
 6.9230	 2.8240
 6.9320	 2.8750
 6.9420	 2.8410
 6.9510	 2.8510
 6.9600	 2.7800
 6.9700	 2.8250
 6.9790	 2.8210
 6.9880	 2.8710
 6.9980	 2.8730
 7.0070	 2.8730
 7.0170	 2.7750
 7.0260	 2.7490
 7.0360	 2.7160
 7.0450	 2.7730
 7.0550	 2.7480
 7.0650	 2.7170
 7.0740	 2.6780
 7.0840	 2.7120
 7.0940	 2.6840
 7.1030	 2.7230
 7.1130	 2.6500
 7.1230	 2.6520
 7.1330	 2.6290
 7.1420	 2.6360
 7.1520	 2.6350
 7.1620	 2.6740
 7.1720	 2.5960
 7.1820	 2.6440
 7.1920	 2.6350
 7.2020	 2.6420
 7.2120	 2.5880
 7.2220	 2.6380
 7.2320	 2.6970
 7.2420	 2.7210
 7.2520	 2.6800
 7.2620	 2.7480
 7.2730	 2.7250
 7.2830	 2.7220
 7.2930	 2.6540
 7.3030	 2.7270
 7.3140	 2.6620
 7.3240	 2.6650
 7.3340	 2.6920
 7.3450	 2.7930
 7.3550	 2.7380
 7.3660	 2.7340
 7.3760	 2.7180
 7.3870	 2.7490
 7.3970	 2.7300
 7.4080	 2.7610
 7.4180	 2.7090
 7.4290	 2.7490
 7.4400	 2.7160
 7.4500	 2.7350
 7.4610	 2.6720
 7.4720	 2.7330
 7.4830	 2.7600
 7.4930	 2.7900
 7.5040	 2.6780
 7.5150	 2.7030
 7.5260	 2.6810
 7.5370	 2.6700
 7.5480	 2.6140
 7.5590	 2.6480
 7.5700	 2.6350
 7.5810	 2.6950
 7.5920	 2.6470
 7.6030	 2.6540
 7.6140	 2.5870
 7.6260	 2.6550
 7.6370	 2.6650
 7.6480	 2.6430
 7.6590	 2.5390
 7.6710	 2.5840
 7.6820	 2.6100
 7.6930	 2.7030
 7.7050	 2.6290
 7.7160	 2.6360
 7.7280	 2.5980
 7.7390	 2.6300
 7.7510	 2.5830
 7.7630	 2.5640
 7.7740	 2.5000
 7.7860	 2.5690
 7.7980	 2.5370
 7.8090	 2.5370
 7.8210	 2.4700
 7.8330	 2.5870
 7.8450	 2.5830
 7.8570	 2.5530
 7.8690	 2.4640
 7.8810	 2.4750
 7.8930	 2.4350
 7.9050	 2.4640
 7.9170	 2.4040
 7.9290	 2.4210
 7.9410	 2.3710
 7.9530	 2.4090
 7.9650	 2.3910
 7.9780	 2.4550
 7.9900	 2.3800
 8.0020	 2.3610
 8.0150	 2.2740
 8.0270	 2.2760
 8.0390	 2.1820
 8.0520	 2.1550
 8.0640	 2.1230
 8.0770	 2.1680
 8.0900	 2.1200
 8.1020	 2.1280
 8.1150	 2.0670
 8.1280	 2.0830
 8.1400	 2.0180
 8.1530	 2.0160
 8.1660	 1.9560
 8.1790	 1.9760
 8.1920	 1.9210
 8.2050	 1.9970
 8.2180	 2.0020
 8.2310	 2.0380
 8.2440	 1.9690
 8.2570	 1.9890
 8.2700	 1.9560
 8.2830	 2.0080
 8.2970	 2.0570
 8.3100	 2.1170
 8.3230	 2.0520
 8.3370	 2.0830
 8.3500	 1.9890
 8.3640	 1.9850
 8.3770	 1.9940
 8.3910	 2.0940
 8.4040	 2.0640
 8.4180	 2.0630
 8.4320	 2.0490
 8.4450	 2.1280
 8.4590	 2.0560
 8.4730	 2.1090
 8.4870	 2.1200
 8.5010	 2.2120
 8.5150	 2.1690
 8.5290	 2.2030
 8.5430	 2.2040
 8.5570	 2.2920
 8.5710	 2.2740
 8.5850	 2.3470
 8.5990	 2.3520
 8.6140	 2.3730
 8.6280	 2.2430
 8.6420	 2.2780
 8.6570	 2.2440
 8.6710	 2.3270
 8.6860	 2.2800
 8.7000	 2.2780
 8.7150	 2.2320
 8.7300	 2.2870
 8.7440	 2.2180
 8.7590	 2.2360
 8.7740	 2.1980
 8.7890	 2.1990
 8.8040	 2.1230
 8.8190	 2.1940
 8.8340	 2.1430
 8.8490	 2.1330
 8.8640	 2.1280
 8.8790	 2.2640
 8.8940	 2.1780
 8.9100	 2.1230
 8.9250	 2.0580
 8.9400	 2.1710
 8.9560	 2.1310
 8.9710	 2.1180
 8.9870	 2.0550
 9.0020	 2.0840
 9.0180	 1.9840
 9.0340	 2.0140
 9.0500	 2.0230
 9.0650	 2.0820
 9.0810	 1.9980
 9.0970	 2.0380
 9.1130	 2.0230
 9.1290	 2.0830
 9.1450	 1.9840
 9.1610	 2.0250
 9.1780	 1.9900
 9.1940	 2.0770
 9.2100	 2.0160
 9.2270	 1.9960
 9.2430	 1.9350
 9.2600	 2.0590
 9.2760	 2.0200
 9.2930	 2.0200
 9.3090	 1.9880
 9.3260	 2.0550
 9.3430	 1.9860
 9.3600	 2.0280
 9.3770	 1.9090
 9.3940	 1.9320
 9.4110	 1.9440
 9.4280	 2.0210
 9.4450	 1.9390
 9.4620	 1.9610
 9.4800	 1.9240
 9.4970	 1.9900
 9.5140	 1.9850
 9.5320	 2.0880
 9.5500	 1.9980
 9.5670	 2.0770
 9.5850	 2.0800
 9.6030	 2.1350
 9.6200	 2.0700
 9.6380	 2.1220
 9.6560	 2.0820
 9.6740	 2.1400
 9.6920	 2.1460
 9.7100	 2.2390
 9.7290	 2.1250
 9.7470	 2.1530
 9.7650	 2.1430
 9.7840	 2.2270
 9.8020	 2.1800
 9.8210	 2.2630
 9.8390	 2.2040
 9.8580	 2.2350
 9.8770	 2.2090
 9.8960	 2.2730
 9.9150	 2.2060
 9.9340	 2.2170
 9.9530	 2.1450
 9.9720	 2.2560
 9.9910	 2.2380
10.0100	 2.2840
10.0300	 2.2370
10.0490	 2.2820
10.0690	 2.2010
10.0880	 2.2680
10.1080	 2.2720
10.1280	 2.3830
10.1480	 2.2820
10.1670	 2.3040
10.1870	 2.2580
10.2070	 2.2900
10.2280	 2.2400
10.2480	 2.2910
10.2680	 2.2040
10.2890	 2.2270
10.3090	 2.1990
10.3300	 2.2960
10.3500	 2.2170
10.3710	 2.2150
10.3920	 2.1430
10.4120	 2.2200
10.4330	 2.1280
10.4540	 2.1890
10.4760	 2.2040
10.4970	 2.2860
10.5180	 2.2330
10.5390	 2.2890
10.5610	 2.1850
10.5820	 2.1860
10.6040	 2.1110
10.6260	 2.1580
10.6480	 2.1140
10.6700	 2.1680
10.6920	 2.0810
10.7140	 2.1750
10.7360	 2.1030
10.7580	 2.1360
10.7800	 2.1050
10.8030	 2.1620
10.8250	 2.0300
10.8480	 2.0900
10.8710	 2.0470
10.8940	 2.1270
10.9170	 2.0320
10.9400	 2.0660
10.9630	 1.9910
10.9860	 2.0430
11.0090	 2.0250
11.0330	 2.1000
11.0560	 1.9800
11.0800	 2.0450
11.1040	 2.0070
11.1270	 2.0390
11.1510	 1.9440
11.1750	 1.9830
11.2000	 1.9260
11.2240	 1.9720
11.2480	 1.9330
11.2730	 2.0270
11.2970	 1.9070
11.3220	 1.9170
11.3470	 1.8400
11.3720	 1.8960
11.3970	 1.8420
11.4220	 1.9630
11.4470	 1.9330
11.4720	 1.9870
11.4980	 1.8120
11.5230	 1.7960
11.5490	 1.7410
11.5750	 1.8450
11.6000	 1.8200
11.6260	 1.8870
11.6530	 1.7720
11.6790	 1.8260
11.7050	 1.7790
11.7320	 1.8630
11.7580	 1.7810
11.7850	 1.8640
11.8120	 1.8010
11.8390	 1.8250
11.8660	 1.7120
11.8930	 1.7660
11.9200	 1.6820
11.9480	 1.7790
11.9760	 1.7010
12.0030	 1.7220
12.0310	 1.6940
12.0590	 1.7940
12.0870	 1.6890
12.1150	 1.7260
12.1440	 1.6350
12.1720	 1.6740
12.2010	 1.5620
12.2300	 1.6260
12.2590	 1.5910
12.2880	 1.6310
12.3170	 1.5340
12.3460	 1.6370
12.3760	 1.5700
12.4050	 1.6460
12.4350	 1.5780
12.4650	 1.6130
12.4950	 1.5370
12.5250	 1.6490
12.5550	 1.5520
12.5860	 1.6310
12.6170	 1.5900
12.6470	 1.6670
12.6780	 1.5320
12.7090	 1.5700
12.7410	 1.5540
12.7720	 1.6820
12.8030	 1.5370
12.8350	 1.5870
12.8670	 1.5490
12.8990	 1.6340
12.9310	 1.5550
12.9640	 1.6100
12.9960	 1.5060
13.0290	 1.5390
13.0610	 1.4760
13.0940	 1.6130
13.1280	 1.5100
13.1610	 1.5100
13.1940	 1.4990
13.2280	 1.8010
13.2620	 1.6370
13.2960	 1.5390
13.3300	 1.4320
13.3640	 1.5250
13.3990	 1.4340
13.4340	 1.4480
13.4690	 1.3950
13.5040	 1.4800
13.5390	 1.3680
13.5740	 1.4570
13.6100	 1.3340
13.6460	 1.3980
13.6820	 1.3800
13.7180	 1.4500
13.7540	 1.3170
13.7910	 1.3830
13.8280	 1.3120
13.8650	 1.4270
13.9020	 1.4210
13.9390	 1.4420
13.9770	 1.2620
14.0150	 1.2740
14.0530	 1.1980
14.0910	 1.2960
14.1290	 1.1870
14.1680	 1.2380
14.2070	 1.1520
14.2460	 1.2640
14.2850	 1.1500
14.3240	 1.2140
14.3640	 1.1110
14.4040	 1.2230
14.4440	 1.1120
14.4840	 1.1010
14.5250	 0.9570
14.5660	 1.0070
14.6070	 0.8950
14.6480	 0.9650
14.6900	 0.8780
14.7310	 0.9810
14.7730	 0.9040
14.8150	 0.9630
14.8580	 0.8760
14.9010	 0.9660
14.9440	 0.6710
14.9870	 0.6750
15.0300	 0.7620
15.0740	 0.9090
15.1180	 0.7650
15.1620	 0.7740
15.2060	 0.7090
15.2510	 0.8740
15.2960	 0.7920
15.3410	 0.8020
15.3870	 0.6620
