Name: Ceanothus megacarpus 3
Type: vegetation
Class: Shrub
Genus: Ceanothus
Species: megacarpus
Sample No.: VH024
Owner: UCSB
Wavelength Range: VSWIR
Origin: 34.4909; -119.7914; WGS84
Collection Date: 4/1/2013
Description: Samples were collected as part of the HyspIRI Airborne Campaign. 48 individual plants were sampled in three times in 2013 - spring  summer  and fall. The name of the sample includes a 1  2  or 3 which references a different individual of the species. Samples were taken to JPL and processed within 48 hours of collection. The same leaves were processed in the Nicolet and then measured using the ASD.
Measurement: Bidirectional reflectance
First Column: X
Second Column: Y
X Units: Wavelength (micrometers)
Y Units: Reflectance (percentage)
First X Value: 0.35
Last X Value: 2.5
Number of X Values: 2151
Additional Information: vegetation.shrub.ceanothus.megacarpus.vswir.vh024.ucsb.asd.ancillary.txt

 0.3500	 6.3920
 0.3510	 6.6440
 0.3520	 6.4660
 0.3530	 6.2570
 0.3540	 6.3600
 0.3550	 6.4460
 0.3560	 6.3590
 0.3570	 6.1970
 0.3580	 6.1640
 0.3590	 6.2050
 0.3600	 6.2900
 0.3610	 6.3480
 0.3620	 6.2390
 0.3630	 6.2230
 0.3640	 6.2300
 0.3650	 6.1540
 0.3660	 6.1030
 0.3670	 6.0840
 0.3680	 6.0760
 0.3690	 6.0520
 0.3700	 6.0810
 0.3710	 6.0920
 0.3720	 6.0740
 0.3730	 6.1620
 0.3740	 6.1630
 0.3750	 6.0950
 0.3760	 6.0380
 0.3770	 6.0070
 0.3780	 6.0390
 0.3790	 6.1110
 0.3800	 6.1470
 0.3810	 6.0900
 0.3820	 6.0690
 0.3830	 6.1280
 0.3840	 6.0670
 0.3850	 6.0210
 0.3860	 5.9930
 0.3870	 5.9630
 0.3880	 6.0480
 0.3890	 6.0910
 0.3900	 6.0380
 0.3910	 5.9570
 0.3920	 5.9700
 0.3930	 5.9930
 0.3940	 5.9550
 0.3950	 5.9160
 0.3960	 5.9280
 0.3970	 5.9790
 0.3980	 6.0210
 0.3990	 6.0260
 0.4000	 5.9980
 0.4010	 5.9590
 0.4020	 5.9530
 0.4030	 5.9440
 0.4040	 5.9340
 0.4050	 5.9300
 0.4060	 5.9300
 0.4070	 5.9120
 0.4080	 5.8880
 0.4090	 5.8940
 0.4100	 5.9280
 0.4110	 5.9470
 0.4120	 5.9360
 0.4130	 5.9310
 0.4140	 5.9340
 0.4150	 5.9460
 0.4160	 5.9580
 0.4170	 5.9480
 0.4180	 5.9530
 0.4190	 5.9720
 0.4200	 5.9690
 0.4210	 5.9890
 0.4220	 6.0110
 0.4230	 6.0180
 0.4240	 6.0340
 0.4250	 6.0460
 0.4260	 6.0610
 0.4270	 6.0900
 0.4280	 6.0910
 0.4290	 6.1000
 0.4300	 6.1260
 0.4310	 6.1340
 0.4320	 6.1370
 0.4330	 6.1410
 0.4340	 6.1490
 0.4350	 6.1580
 0.4360	 6.1670
 0.4370	 6.1770
 0.4380	 6.1840
 0.4390	 6.1920
 0.4400	 6.2030
 0.4410	 6.2180
 0.4420	 6.2290
 0.4430	 6.2390
 0.4440	 6.2510
 0.4450	 6.2630
 0.4460	 6.2610
 0.4470	 6.2650
 0.4480	 6.2800
 0.4490	 6.2860
 0.4500	 6.2820
 0.4510	 6.2860
 0.4520	 6.3110
 0.4530	 6.3330
 0.4540	 6.3430
 0.4550	 6.3430
 0.4560	 6.3400
 0.4570	 6.3420
 0.4580	 6.3530
 0.4590	 6.3640
 0.4600	 6.3480
 0.4610	 6.3370
 0.4620	 6.3400
 0.4630	 6.3530
 0.4640	 6.3490
 0.4650	 6.3400
 0.4660	 6.3410
 0.4670	 6.3640
 0.4680	 6.3570
 0.4690	 6.3450
 0.4700	 6.3480
 0.4710	 6.3420
 0.4720	 6.3470
 0.4730	 6.3550
 0.4740	 6.3480
 0.4750	 6.3370
 0.4760	 6.3330
 0.4770	 6.3350
 0.4780	 6.3270
 0.4790	 6.3350
 0.4800	 6.3420
 0.4810	 6.3310
 0.4820	 6.3370
 0.4830	 6.3400
 0.4840	 6.3380
 0.4850	 6.3400
 0.4860	 6.3480
 0.4870	 6.3540
 0.4880	 6.3550
 0.4890	 6.3660
 0.4900	 6.3710
 0.4910	 6.3740
 0.4920	 6.3850
 0.4930	 6.4040
 0.4940	 6.4180
 0.4950	 6.4230
 0.4960	 6.4350
 0.4970	 6.4530
 0.4980	 6.4720
 0.4990	 6.4910
 0.5000	 6.5190
 0.5010	 6.5500
 0.5020	 6.5820
 0.5030	 6.6100
 0.5040	 6.6480
 0.5050	 6.6870
 0.5060	 6.7270
 0.5070	 6.7750
 0.5080	 6.8270
 0.5090	 6.8860
 0.5100	 6.9560
 0.5110	 7.0220
 0.5120	 7.0980
 0.5130	 7.1890
 0.5140	 7.2880
 0.5150	 7.3950
 0.5160	 7.5100
 0.5170	 7.6340
 0.5180	 7.7680
 0.5190	 7.9060
 0.5200	 8.0510
 0.5210	 8.2070
 0.5220	 8.3660
 0.5230	 8.5300
 0.5240	 8.6960
 0.5250	 8.8500
 0.5260	 8.9990
 0.5270	 9.1470
 0.5280	 9.2930
 0.5290	 9.4290
 0.5300	 9.5510
 0.5310	 9.6620
 0.5320	 9.7730
 0.5330	 9.8740
 0.5340	 9.9640
 0.5350	10.0420
 0.5360	10.1110
 0.5370	10.1760
 0.5380	10.2350
 0.5390	10.2850
 0.5400	10.3320
 0.5410	10.3730
 0.5420	10.4090
 0.5430	10.4540
 0.5440	10.4930
 0.5450	10.5260
 0.5460	10.5630
 0.5470	10.5970
 0.5480	10.6250
 0.5490	10.6470
 0.5500	10.6600
 0.5510	10.6750
 0.5520	10.6830
 0.5530	10.6770
 0.5540	10.6580
 0.5550	10.6280
 0.5560	10.5890
 0.5570	10.5360
 0.5580	10.4740
 0.5590	10.4040
 0.5600	10.3280
 0.5610	10.2480
 0.5620	10.1580
 0.5630	10.0630
 0.5640	 9.9660
 0.5650	 9.8700
 0.5660	 9.7700
 0.5670	 9.6660
 0.5680	 9.5580
 0.5690	 9.4460
 0.5700	 9.3350
 0.5710	 9.2290
 0.5720	 9.1350
 0.5730	 9.0410
 0.5740	 8.9430
 0.5750	 8.8460
 0.5760	 8.7480
 0.5770	 8.6530
 0.5780	 8.5610
 0.5790	 8.4700
 0.5800	 8.3960
 0.5810	 8.3380
 0.5820	 8.2930
 0.5830	 8.2540
 0.5840	 8.2220
 0.5850	 8.1950
 0.5860	 8.1660
 0.5870	 8.1410
 0.5880	 8.1140
 0.5890	 8.0800
 0.5900	 8.0410
 0.5910	 8.0100
 0.5920	 7.9910
 0.5930	 7.9770
 0.5940	 7.9700
 0.5950	 7.9610
 0.5960	 7.9480
 0.5970	 7.9360
 0.5980	 7.9190
 0.5990	 7.9000
 0.6000	 7.8840
 0.6010	 7.8640
 0.6020	 7.8390
 0.6030	 7.8090
 0.6040	 7.7790
 0.6050	 7.7460
 0.6060	 7.7090
 0.6070	 7.6680
 0.6080	 7.6260
 0.6090	 7.5800
 0.6100	 7.5320
 0.6110	 7.4880
 0.6120	 7.4450
 0.6130	 7.4030
 0.6140	 7.3610
 0.6150	 7.3210
 0.6160	 7.2800
 0.6170	 7.2430
 0.6180	 7.2140
 0.6190	 7.1860
 0.6200	 7.1580
 0.6210	 7.1340
 0.6220	 7.1150
 0.6230	 7.0960
 0.6240	 7.0790
 0.6250	 7.0660
 0.6260	 7.0520
 0.6270	 7.0430
 0.6280	 7.0380
 0.6290	 7.0310
 0.6300	 7.0250
 0.6310	 7.0210
 0.6320	 7.0180
 0.6330	 7.0080
 0.6340	 7.0000
 0.6350	 6.9890
 0.6360	 6.9740
 0.6370	 6.9530
 0.6380	 6.9320
 0.6390	 6.9120
 0.6400	 6.8870
 0.6410	 6.8610
 0.6420	 6.8330
 0.6430	 6.8030
 0.6440	 6.7710
 0.6450	 6.7400
 0.6460	 6.7100
 0.6470	 6.6800
 0.6480	 6.6540
 0.6490	 6.6300
 0.6500	 6.6060
 0.6510	 6.5840
 0.6520	 6.5620
 0.6530	 6.5430
 0.6540	 6.5250
 0.6550	 6.5030
 0.6560	 6.4800
 0.6570	 6.4570
 0.6580	 6.4320
 0.6590	 6.4050
 0.6600	 6.3800
 0.6610	 6.3580
 0.6620	 6.3320
 0.6630	 6.3090
 0.6640	 6.2900
 0.6650	 6.2750
 0.6660	 6.2570
 0.6670	 6.2440
 0.6680	 6.2370
 0.6690	 6.2330
 0.6700	 6.2300
 0.6710	 6.2300
 0.6720	 6.2330
 0.6730	 6.2390
 0.6740	 6.2430
 0.6750	 6.2490
 0.6760	 6.2590
 0.6770	 6.2700
 0.6780	 6.2810
 0.6790	 6.2940
 0.6800	 6.3150
 0.6810	 6.3340
 0.6820	 6.3560
 0.6830	 6.3850
 0.6840	 6.4190
 0.6850	 6.4550
 0.6860	 6.4960
 0.6870	 6.5480
 0.6880	 6.6130
 0.6890	 6.6940
 0.6900	 6.7940
 0.6910	 6.9180
 0.6920	 7.0750
 0.6930	 7.2690
 0.6940	 7.5030
 0.6950	 7.7810
 0.6960	 8.1060
 0.6970	 8.4790
 0.6980	 8.9000
 0.6990	 9.3690
 0.7000	 9.8850
 0.7010	10.4460
 0.7020	11.0450
 0.7030	11.6790
 0.7040	12.3460
 0.7050	13.0440
 0.7060	13.7670
 0.7070	14.5190
 0.7080	15.2950
 0.7090	16.0890
 0.7100	16.9050
 0.7110	17.7480
 0.7120	18.6120
 0.7130	19.4880
 0.7140	20.3860
 0.7150	21.3040
 0.7160	22.2370
 0.7170	23.1810
 0.7180	24.1370
 0.7190	25.1030
 0.7200	26.0760
 0.7210	27.0540
 0.7220	28.0310
 0.7230	29.0070
 0.7240	29.9790
 0.7250	30.9380
 0.7260	31.8800
 0.7270	32.8050
 0.7280	33.7130
 0.7290	34.5970
 0.7300	35.4550
 0.7310	36.2830
 0.7320	37.0830
 0.7330	37.8530
 0.7340	38.5930
 0.7350	39.3020
 0.7360	39.9820
 0.7370	40.6300
 0.7380	41.2440
 0.7390	41.8270
 0.7400	42.3710
 0.7410	42.8850
 0.7420	43.3800
 0.7430	43.8360
 0.7440	44.2660
 0.7450	44.6700
 0.7460	45.0410
 0.7470	45.3890
 0.7480	45.7120
 0.7490	46.0090
 0.7500	46.2840
 0.7510	46.5380
 0.7520	46.7750
 0.7530	46.9940
 0.7540	47.1880
 0.7550	47.3680
 0.7560	47.5350
 0.7570	47.6820
 0.7580	47.8200
 0.7590	47.9470
 0.7600	48.0620
 0.7610	48.1690
 0.7620	48.2660
 0.7630	48.3540
 0.7640	48.4340
 0.7650	48.5120
 0.7660	48.5810
 0.7670	48.6420
 0.7680	48.6980
 0.7690	48.7520
 0.7700	48.8010
 0.7710	48.8460
 0.7720	48.8920
 0.7730	48.9280
 0.7740	48.9620
 0.7750	49.0000
 0.7760	49.0320
 0.7770	49.0670
 0.7780	49.1000
 0.7790	49.1250
 0.7800	49.1510
 0.7810	49.1770
 0.7820	49.2040
 0.7830	49.2320
 0.7840	49.2520
 0.7850	49.2700
 0.7860	49.2920
 0.7870	49.3120
 0.7880	49.3300
 0.7890	49.3500
 0.7900	49.3740
 0.7910	49.3840
 0.7920	49.3960
 0.7930	49.4110
 0.7940	49.4250
 0.7950	49.4360
 0.7960	49.4470
 0.7970	49.4570
 0.7980	49.4690
 0.7990	49.4780
 0.8000	49.4840
 0.8010	49.4890
 0.8020	49.4960
 0.8030	49.5000
 0.8040	49.4980
 0.8050	49.4930
 0.8060	49.5020
 0.8070	49.5030
 0.8080	49.4940
 0.8090	49.4950
 0.8100	49.4960
 0.8110	49.4960
 0.8120	49.4950
 0.8130	49.4900
 0.8140	49.4810
 0.8150	49.4720
 0.8160	49.4650
 0.8170	49.4630
 0.8180	49.4570
 0.8190	49.4450
 0.8200	49.4350
 0.8210	49.4290
 0.8220	49.4210
 0.8230	49.4080
 0.8240	49.3930
 0.8250	49.3850
 0.8260	49.3750
 0.8270	49.3570
 0.8280	49.3420
 0.8290	49.3250
 0.8300	49.3060
 0.8310	49.2870
 0.8320	49.2750
 0.8330	49.2650
 0.8340	49.2520
 0.8350	49.2390
 0.8360	49.2300
 0.8370	49.2220
 0.8380	49.2150
 0.8390	49.2060
 0.8400	49.2030
 0.8410	49.1980
 0.8420	49.1920
 0.8430	49.1920
 0.8440	49.1920
 0.8450	49.1920
 0.8460	49.1920
 0.8470	49.1870
 0.8480	49.1870
 0.8490	49.1850
 0.8500	49.1770
 0.8510	49.1770
 0.8520	49.1820
 0.8530	49.1880
 0.8540	49.1900
 0.8550	49.1870
 0.8560	49.1890
 0.8570	49.1970
 0.8580	49.1990
 0.8590	49.1940
 0.8600	49.1940
 0.8610	49.2010
 0.8620	49.2070
 0.8630	49.2080
 0.8640	49.2130
 0.8650	49.2250
 0.8660	49.2280
 0.8670	49.2340
 0.8680	49.2440
 0.8690	49.2510
 0.8700	49.2590
 0.8710	49.2650
 0.8720	49.2690
 0.8730	49.2720
 0.8740	49.2720
 0.8750	49.2810
 0.8760	49.2960
 0.8770	49.3060
 0.8780	49.3140
 0.8790	49.3250
 0.8800	49.3340
 0.8810	49.3320
 0.8820	49.3390
 0.8830	49.3490
 0.8840	49.3530
 0.8850	49.3570
 0.8860	49.3630
 0.8870	49.3710
 0.8880	49.3790
 0.8890	49.3870
 0.8900	49.3940
 0.8910	49.3990
 0.8920	49.4020
 0.8930	49.4060
 0.8940	49.4090
 0.8950	49.4120
 0.8960	49.4190
 0.8970	49.4220
 0.8980	49.4280
 0.8990	49.4360
 0.9000	49.4340
 0.9010	49.4300
 0.9020	49.4340
 0.9030	49.4450
 0.9040	49.4470
 0.9050	49.4560
 0.9060	49.4650
 0.9070	49.4660
 0.9080	49.4570
 0.9090	49.4570
 0.9100	49.4640
 0.9110	49.4710
 0.9120	49.4760
 0.9130	49.4760
 0.9140	49.4730
 0.9150	49.4720
 0.9160	49.4710
 0.9170	49.4670
 0.9180	49.4620
 0.9190	49.4590
 0.9200	49.4520
 0.9210	49.4390
 0.9220	49.4260
 0.9230	49.4180
 0.9240	49.4000
 0.9250	49.3750
 0.9260	49.3470
 0.9270	49.3170
 0.9280	49.2880
 0.9290	49.2590
 0.9300	49.2270
 0.9310	49.1910
 0.9320	49.1550
 0.9330	49.1130
 0.9340	49.0670
 0.9350	49.0220
 0.9360	48.9760
 0.9370	48.9210
 0.9380	48.8600
 0.9390	48.8100
 0.9400	48.7580
 0.9410	48.6940
 0.9420	48.6240
 0.9430	48.5690
 0.9440	48.5040
 0.9450	48.4310
 0.9460	48.3490
 0.9470	48.2480
 0.9480	48.1570
 0.9490	48.0580
 0.9500	47.9360
 0.9510	47.8300
 0.9520	47.7140
 0.9530	47.5870
 0.9540	47.4570
 0.9550	47.3280
 0.9560	47.2090
 0.9570	47.0950
 0.9580	46.9830
 0.9590	46.8690
 0.9600	46.7690
 0.9610	46.6880
 0.9620	46.6210
 0.9630	46.5500
 0.9640	46.4850
 0.9650	46.4310
 0.9660	46.3910
 0.9670	46.3570
 0.9680	46.3200
 0.9690	46.2860
 0.9700	46.2640
 0.9710	46.2460
 0.9720	46.2230
 0.9730	46.2020
 0.9740	46.1940
 0.9750	46.1880
 0.9760	46.1800
 0.9770	46.1750
 0.9780	46.1760
 0.9790	46.1780
 0.9800	46.1820
 0.9810	46.1870
 0.9820	46.1920
 0.9830	46.2080
 0.9840	46.2340
 0.9850	46.2580
 0.9860	46.2750
 0.9870	46.3110
 0.9880	46.3470
 0.9890	46.3790
 0.9900	46.4100
 0.9910	46.4270
 0.9920	46.4840
 0.9930	46.5420
 0.9940	46.5990
 0.9950	46.6560
 0.9960	46.7140
 0.9970	46.7710
 0.9980	46.8290
 0.9990	46.8860
 1.0000	46.9440
 1.0010	47.0010
 1.0020	47.0580
 1.0030	47.1160
 1.0040	47.1730
 1.0050	47.2310
 1.0060	47.2880
 1.0070	47.3450
 1.0080	47.4030
 1.0090	47.4600
 1.0100	47.4600
 1.0110	47.5010
 1.0120	47.5440
 1.0130	47.5880
 1.0140	47.6310
 1.0150	47.6720
 1.0160	47.7140
 1.0170	47.7560
 1.0180	47.7990
 1.0190	47.8470
 1.0200	47.8960
 1.0210	47.9400
 1.0220	47.9790
 1.0230	48.0160
 1.0240	48.0480
 1.0250	48.0850
 1.0260	48.1220
 1.0270	48.1620
 1.0280	48.2100
 1.0290	48.2500
 1.0300	48.2860
 1.0310	48.3220
 1.0320	48.3560
 1.0330	48.3830
 1.0340	48.4080
 1.0350	48.4410
 1.0360	48.4760
 1.0370	48.5050
 1.0380	48.5380
 1.0390	48.5750
 1.0400	48.6070
 1.0410	48.6360
 1.0420	48.6640
 1.0430	48.6910
 1.0440	48.7160
 1.0450	48.7360
 1.0460	48.7580
 1.0470	48.7770
 1.0480	48.7990
 1.0490	48.8250
 1.0500	48.8460
 1.0510	48.8660
 1.0520	48.8860
 1.0530	48.9030
 1.0540	48.9160
 1.0550	48.9330
 1.0560	48.9520
 1.0570	48.9680
 1.0580	48.9810
 1.0590	48.9950
 1.0600	49.0090
 1.0610	49.0210
 1.0620	49.0330
 1.0630	49.0440
 1.0640	49.0540
 1.0650	49.0610
 1.0660	49.0680
 1.0670	49.0750
 1.0680	49.0800
 1.0690	49.0810
 1.0700	49.0860
 1.0710	49.0920
 1.0720	49.0950
 1.0730	49.0980
 1.0740	49.0990
 1.0750	49.0990
 1.0760	49.0970
 1.0770	49.0930
 1.0780	49.0880
 1.0790	49.0810
 1.0800	49.0750
 1.0810	49.0730
 1.0820	49.0650
 1.0830	49.0560
 1.0840	49.0450
 1.0850	49.0280
 1.0860	49.0120
 1.0870	48.9990
 1.0880	48.9870
 1.0890	48.9740
 1.0900	48.9630
 1.0910	48.9480
 1.0920	48.9300
 1.0930	48.9110
 1.0940	48.8910
 1.0950	48.8700
 1.0960	48.8480
 1.0970	48.8260
 1.0980	48.8050
 1.0990	48.7830
 1.1000	48.7610
 1.1010	48.7370
 1.1020	48.7100
 1.1030	48.6840
 1.1040	48.6580
 1.1050	48.6300
 1.1060	48.6030
 1.1070	48.5770
 1.1080	48.5470
 1.1090	48.5160
 1.1100	48.4830
 1.1110	48.4490
 1.1120	48.4120
 1.1130	48.3730
 1.1140	48.3320
 1.1150	48.2910
 1.1160	48.2460
 1.1170	48.2000
 1.1180	48.1480
 1.1190	48.0950
 1.1200	48.0340
 1.1210	47.9690
 1.1220	47.8980
 1.1230	47.8190
 1.1240	47.7350
 1.1250	47.6410
 1.1260	47.5420
 1.1270	47.4300
 1.1280	47.3100
 1.1290	47.1780
 1.1300	47.0370
 1.1310	46.8830
 1.1320	46.7200
 1.1330	46.5430
 1.1340	46.3510
 1.1350	46.1500
 1.1360	45.9370
 1.1370	45.7110
 1.1380	45.4780
 1.1390	45.2380
 1.1400	44.9880
 1.1410	44.7360
 1.1420	44.4780
 1.1430	44.2160
 1.1440	43.9590
 1.1450	43.6970
 1.1460	43.4470
 1.1470	43.1980
 1.1480	42.9640
 1.1490	42.7360
 1.1500	42.5240
 1.1510	42.3220
 1.1520	42.1350
 1.1530	41.9590
 1.1540	41.7990
 1.1550	41.6540
 1.1560	41.5250
 1.1570	41.4090
 1.1580	41.3080
 1.1590	41.2170
 1.1600	41.1380
 1.1610	41.0730
 1.1620	41.0150
 1.1630	40.9660
 1.1640	40.9230
 1.1650	40.8860
 1.1660	40.8540
 1.1670	40.8280
 1.1680	40.8100
 1.1690	40.7900
 1.1700	40.7730
 1.1710	40.7570
 1.1720	40.7430
 1.1730	40.7280
 1.1740	40.7170
 1.1750	40.7040
 1.1760	40.6900
 1.1770	40.6770
 1.1780	40.6620
 1.1790	40.6480
 1.1800	40.6320
 1.1810	40.6150
 1.1820	40.5980
 1.1830	40.5790
 1.1840	40.5600
 1.1850	40.5420
 1.1860	40.5260
 1.1870	40.5120
 1.1880	40.4980
 1.1890	40.4860
 1.1900	40.4750
 1.1910	40.4660
 1.1920	40.4590
 1.1930	40.4530
 1.1940	40.4510
 1.1950	40.4520
 1.1960	40.4550
 1.1970	40.4610
 1.1980	40.4690
 1.1990	40.4780
 1.2000	40.4870
 1.2010	40.5010
 1.2020	40.5170
 1.2030	40.5390
 1.2040	40.5630
 1.2050	40.5860
 1.2060	40.6100
 1.2070	40.6340
 1.2080	40.6630
 1.2090	40.6930
 1.2100	40.7240
 1.2110	40.7560
 1.2120	40.7890
 1.2130	40.8230
 1.2140	40.8600
 1.2150	40.8970
 1.2160	40.9350
 1.2170	40.9730
 1.2180	41.0110
 1.2190	41.0500
 1.2200	41.0900
 1.2210	41.1310
 1.2220	41.1700
 1.2230	41.2090
 1.2240	41.2470
 1.2250	41.2850
 1.2260	41.3250
 1.2270	41.3630
 1.2280	41.4010
 1.2290	41.4380
 1.2300	41.4720
 1.2310	41.5090
 1.2320	41.5430
 1.2330	41.5750
 1.2340	41.6080
 1.2350	41.6420
 1.2360	41.6730
 1.2370	41.7040
 1.2380	41.7350
 1.2390	41.7630
 1.2400	41.7910
 1.2410	41.8180
 1.2420	41.8440
 1.2430	41.8680
 1.2440	41.8930
 1.2450	41.9160
 1.2460	41.9400
 1.2470	41.9640
 1.2480	41.9860
 1.2490	42.0070
 1.2500	42.0260
 1.2510	42.0420
 1.2520	42.0570
 1.2530	42.0730
 1.2540	42.0900
 1.2550	42.1040
 1.2560	42.1150
 1.2570	42.1260
 1.2580	42.1330
 1.2590	42.1390
 1.2600	42.1430
 1.2610	42.1460
 1.2620	42.1470
 1.2630	42.1470
 1.2640	42.1470
 1.2650	42.1460
 1.2660	42.1420
 1.2670	42.1350
 1.2680	42.1270
 1.2690	42.1140
 1.2700	42.0990
 1.2710	42.0840
 1.2720	42.0680
 1.2730	42.0500
 1.2740	42.0320
 1.2750	42.0110
 1.2760	41.9870
 1.2770	41.9620
 1.2780	41.9370
 1.2790	41.9100
 1.2800	41.8810
 1.2810	41.8490
 1.2820	41.8130
 1.2830	41.7750
 1.2840	41.7320
 1.2850	41.6870
 1.2860	41.6390
 1.2870	41.5880
 1.2880	41.5350
 1.2890	41.4820
 1.2900	41.4260
 1.2910	41.3670
 1.2920	41.3090
 1.2930	41.2440
 1.2940	41.1730
 1.2950	41.0980
 1.2960	41.0200
 1.2970	40.9380
 1.2980	40.8530
 1.2990	40.7640
 1.3000	40.6710
 1.3010	40.5730
 1.3020	40.4730
 1.3030	40.3690
 1.3040	40.2610
 1.3050	40.1490
 1.3060	40.0310
 1.3070	39.9080
 1.3080	39.7800
 1.3090	39.6480
 1.3100	39.5100
 1.3110	39.3690
 1.3120	39.2230
 1.3130	39.0720
 1.3140	38.9170
 1.3150	38.7560
 1.3160	38.5920
 1.3170	38.4250
 1.3180	38.2520
 1.3190	38.0760
 1.3200	37.8960
 1.3210	37.7080
 1.3220	37.5150
 1.3230	37.3190
 1.3240	37.1180
 1.3250	36.9180
 1.3260	36.7150
 1.3270	36.5070
 1.3280	36.2990
 1.3290	36.0860
 1.3300	35.8730
 1.3310	35.6560
 1.3320	35.4380
 1.3330	35.2220
 1.3340	35.0050
 1.3350	34.7890
 1.3360	34.5760
 1.3370	34.3580
 1.3380	34.1430
 1.3390	33.9300
 1.3400	33.7180
 1.3410	33.5120
 1.3420	33.3080
 1.3430	33.1050
 1.3440	32.9070
 1.3450	32.7100
 1.3460	32.5130
 1.3470	32.3210
 1.3480	32.1330
 1.3490	31.9470
 1.3500	31.7650
 1.3510	31.5860
 1.3520	31.4060
 1.3530	31.2260
 1.3540	31.0470
 1.3550	30.8680
 1.3560	30.6900
 1.3570	30.5100
 1.3580	30.3310
 1.3590	30.1500
 1.3600	29.9660
 1.3610	29.7780
 1.3620	29.5820
 1.3630	29.3780
 1.3640	29.1660
 1.3650	28.9440
 1.3660	28.7170
 1.3670	28.4780
 1.3680	28.2280
 1.3690	27.9640
 1.3700	27.6810
 1.3710	27.3840
 1.3720	27.0720
 1.3730	26.7390
 1.3740	26.3920
 1.3750	26.0230
 1.3760	25.6330
 1.3770	25.2230
 1.3780	24.7870
 1.3790	24.3300
 1.3800	23.8540
 1.3810	23.3530
 1.3820	22.8420
 1.3830	22.3150
 1.3840	21.7770
 1.3850	21.2240
 1.3860	20.6690
 1.3870	20.0990
 1.3880	19.5370
 1.3890	18.9720
 1.3900	18.4090
 1.3910	17.8580
 1.3920	17.3120
 1.3930	16.7750
 1.3940	16.2530
 1.3950	15.7390
 1.3960	15.2440
 1.3970	14.7680
 1.3980	14.3110
 1.3990	13.8810
 1.4000	13.4710
 1.4010	13.0800
 1.4020	12.7160
 1.4030	12.3730
 1.4040	12.0500
 1.4050	11.7510
 1.4060	11.4710
 1.4070	11.2130
 1.4080	10.9740
 1.4090	10.7530
 1.4100	10.5520
 1.4110	10.3640
 1.4120	10.1930
 1.4130	10.0360
 1.4140	 9.8920
 1.4150	 9.7610
 1.4160	 9.6430
 1.4170	 9.5340
 1.4180	 9.4350
 1.4190	 9.3450
 1.4200	 9.2630
 1.4210	 9.1880
 1.4220	 9.1210
 1.4230	 9.0600
 1.4240	 9.0050
 1.4250	 8.9540
 1.4260	 8.9110
 1.4270	 8.8700
 1.4280	 8.8340
 1.4290	 8.8020
 1.4300	 8.7740
 1.4310	 8.7490
 1.4320	 8.7280
 1.4330	 8.7090
 1.4340	 8.6930
 1.4350	 8.6800
 1.4360	 8.6700
 1.4370	 8.6620
 1.4380	 8.6560
 1.4390	 8.6530
 1.4400	 8.6510
 1.4410	 8.6490
 1.4420	 8.6510
 1.4430	 8.6530
 1.4440	 8.6570
 1.4450	 8.6620
 1.4460	 8.6670
 1.4470	 8.6740
 1.4480	 8.6810
 1.4490	 8.6890
 1.4500	 8.6980
 1.4510	 8.7070
 1.4520	 8.7170
 1.4530	 8.7290
 1.4540	 8.7420
 1.4550	 8.7570
 1.4560	 8.7740
 1.4570	 8.7920
 1.4580	 8.8110
 1.4590	 8.8310
 1.4600	 8.8530
 1.4610	 8.8770
 1.4620	 8.9040
 1.4630	 8.9350
 1.4640	 8.9670
 1.4650	 9.0030
 1.4660	 9.0420
 1.4670	 9.0820
 1.4680	 9.1260
 1.4690	 9.1730
 1.4700	 9.2230
 1.4710	 9.2760
 1.4720	 9.3300
 1.4730	 9.3860
 1.4740	 9.4450
 1.4750	 9.5060
 1.4760	 9.5700
 1.4770	 9.6360
 1.4780	 9.7040
 1.4790	 9.7740
 1.4800	 9.8450
 1.4810	 9.9170
 1.4820	 9.9900
 1.4830	10.0650
 1.4840	10.1430
 1.4850	10.2210
 1.4860	10.2990
 1.4870	10.3800
 1.4880	10.4600
 1.4890	10.5410
 1.4900	10.6230
 1.4910	10.7060
 1.4920	10.7900
 1.4930	10.8760
 1.4940	10.9620
 1.4950	11.0500
 1.4960	11.1380
 1.4970	11.2260
 1.4980	11.3150
 1.4990	11.4060
 1.5000	11.4960
 1.5010	11.5880
 1.5020	11.6790
 1.5030	11.7700
 1.5040	11.8630
 1.5050	11.9550
 1.5060	12.0480
 1.5070	12.1420
 1.5080	12.2360
 1.5090	12.3310
 1.5100	12.4250
 1.5110	12.5200
 1.5120	12.6150
 1.5130	12.7100
 1.5140	12.8050
 1.5150	12.8990
 1.5160	12.9940
 1.5170	13.0890
 1.5180	13.1830
 1.5190	13.2790
 1.5200	13.3750
 1.5210	13.4700
 1.5220	13.5660
 1.5230	13.6610
 1.5240	13.7550
 1.5250	13.8510
 1.5260	13.9460
 1.5270	14.0410
 1.5280	14.1370
 1.5290	14.2310
 1.5300	14.3240
 1.5310	14.4180
 1.5320	14.5110
 1.5330	14.6050
 1.5340	14.6970
 1.5350	14.7900
 1.5360	14.8840
 1.5370	14.9750
 1.5380	15.0660
 1.5390	15.1570
 1.5400	15.2470
 1.5410	15.3380
 1.5420	15.4290
 1.5430	15.5180
 1.5440	15.6080
 1.5450	15.6960
 1.5460	15.7840
 1.5470	15.8720
 1.5480	15.9600
 1.5490	16.0470
 1.5500	16.1340
 1.5510	16.2200
 1.5520	16.3050
 1.5530	16.3890
 1.5540	16.4730
 1.5550	16.5570
 1.5560	16.6400
 1.5570	16.7230
 1.5580	16.8050
 1.5590	16.8860
 1.5600	16.9670
 1.5610	17.0480
 1.5620	17.1270
 1.5630	17.2070
 1.5640	17.2840
 1.5650	17.3620
 1.5660	17.4390
 1.5670	17.5150
 1.5680	17.5910
 1.5690	17.6650
 1.5700	17.7400
 1.5710	17.8140
 1.5720	17.8880
 1.5730	17.9600
 1.5740	18.0320
 1.5750	18.1020
 1.5760	18.1730
 1.5770	18.2440
 1.5780	18.3140
 1.5790	18.3850
 1.5800	18.4540
 1.5810	18.5230
 1.5820	18.5910
 1.5830	18.6590
 1.5840	18.7260
 1.5850	18.7920
 1.5860	18.8590
 1.5870	18.9270
 1.5880	18.9930
 1.5890	19.0590
 1.5900	19.1250
 1.5910	19.1890
 1.5920	19.2530
 1.5930	19.3170
 1.5940	19.3800
 1.5950	19.4420
 1.5960	19.5050
 1.5970	19.5660
 1.5980	19.6280
 1.5990	19.6890
 1.6000	19.7490
 1.6010	19.8090
 1.6020	19.8680
 1.6030	19.9260
 1.6040	19.9840
 1.6050	20.0410
 1.6060	20.0970
 1.6070	20.1510
 1.6080	20.2050
 1.6090	20.2570
 1.6100	20.3090
 1.6110	20.3630
 1.6120	20.4150
 1.6130	20.4670
 1.6140	20.5190
 1.6150	20.5680
 1.6160	20.6180
 1.6170	20.6670
 1.6180	20.7130
 1.6190	20.7590
 1.6200	20.8060
 1.6210	20.8510
 1.6220	20.8970
 1.6230	20.9430
 1.6240	20.9860
 1.6250	21.0270
 1.6260	21.0680
 1.6270	21.1080
 1.6280	21.1460
 1.6290	21.1850
 1.6300	21.2230
 1.6310	21.2590
 1.6320	21.2970
 1.6330	21.3310
 1.6340	21.3630
 1.6350	21.3940
 1.6360	21.4260
 1.6370	21.4550
 1.6380	21.4820
 1.6390	21.5070
 1.6400	21.5280
 1.6410	21.5480
 1.6420	21.5670
 1.6430	21.5820
 1.6440	21.5950
 1.6450	21.6080
 1.6460	21.6150
 1.6470	21.6200
 1.6480	21.6240
 1.6490	21.6260
 1.6500	21.6260
 1.6510	21.6270
 1.6520	21.6240
 1.6530	21.6200
 1.6540	21.6140
 1.6550	21.6060
 1.6560	21.5980
 1.6570	21.5900
 1.6580	21.5840
 1.6590	21.5770
 1.6600	21.5710
 1.6610	21.5680
 1.6620	21.5650
 1.6630	21.5660
 1.6640	21.5690
 1.6650	21.5730
 1.6660	21.5790
 1.6670	21.5850
 1.6680	21.5940
 1.6690	21.6030
 1.6700	21.6130
 1.6710	21.6240
 1.6720	21.6320
 1.6730	21.6380
 1.6740	21.6430
 1.6750	21.6480
 1.6760	21.6520
 1.6770	21.6560
 1.6780	21.6570
 1.6790	21.6520
 1.6800	21.6450
 1.6810	21.6350
 1.6820	21.6230
 1.6830	21.6090
 1.6840	21.5930
 1.6850	21.5750
 1.6860	21.5550
 1.6870	21.5350
 1.6880	21.5130
 1.6890	21.4870
 1.6900	21.4620
 1.6910	21.4350
 1.6920	21.4070
 1.6930	21.3810
 1.6940	21.3520
 1.6950	21.3230
 1.6960	21.2910
 1.6970	21.2560
 1.6980	21.2210
 1.6990	21.1840
 1.7000	21.1480
 1.7010	21.1130
 1.7020	21.0760
 1.7030	21.0380
 1.7040	20.9980
 1.7050	20.9560
 1.7060	20.9130
 1.7070	20.8690
 1.7080	20.8240
 1.7090	20.7790
 1.7100	20.7330
 1.7110	20.6860
 1.7120	20.6380
 1.7130	20.5900
 1.7140	20.5410
 1.7150	20.4890
 1.7160	20.4360
 1.7170	20.3820
 1.7180	20.3280
 1.7190	20.2740
 1.7200	20.2220
 1.7210	20.1700
 1.7220	20.1150
 1.7230	20.0600
 1.7240	20.0060
 1.7250	19.9510
 1.7260	19.8970
 1.7270	19.8440
 1.7280	19.7910
 1.7290	19.7370
 1.7300	19.6860
 1.7310	19.6360
 1.7320	19.5850
 1.7330	19.5340
 1.7340	19.4850
 1.7350	19.4350
 1.7360	19.3850
 1.7370	19.3340
 1.7380	19.2820
 1.7390	19.2300
 1.7400	19.1790
 1.7410	19.1250
 1.7420	19.0700
 1.7430	19.0160
 1.7440	18.9600
 1.7450	18.9040
 1.7460	18.8470
 1.7470	18.7910
 1.7480	18.7350
 1.7490	18.6780
 1.7500	18.6230
 1.7510	18.5650
 1.7520	18.5050
 1.7530	18.4470
 1.7540	18.3870
 1.7550	18.3290
 1.7560	18.2730
 1.7570	18.2170
 1.7580	18.1600
 1.7590	18.1020
 1.7600	18.0460
 1.7610	17.9910
 1.7620	17.9370
 1.7630	17.8860
 1.7640	17.8350
 1.7650	17.7840
 1.7660	17.7340
 1.7670	17.6850
 1.7680	17.6390
 1.7690	17.5950
 1.7700	17.5510
 1.7710	17.5090
 1.7720	17.4680
 1.7730	17.4280
 1.7740	17.3890
 1.7750	17.3530
 1.7760	17.3160
 1.7770	17.2800
 1.7780	17.2460
 1.7790	17.2130
 1.7800	17.1810
 1.7810	17.1500
 1.7820	17.1230
 1.7830	17.0980
 1.7840	17.0750
 1.7850	17.0550
 1.7860	17.0340
 1.7870	17.0140
 1.7880	16.9960
 1.7890	16.9820
 1.7900	16.9700
 1.7910	16.9580
 1.7920	16.9480
 1.7930	16.9400
 1.7940	16.9320
 1.7950	16.9260
 1.7960	16.9250
 1.7970	16.9220
 1.7980	16.9190
 1.7990	16.9180
 1.8000	16.9160
 1.8010	16.9150
 1.8020	16.9140
 1.8030	16.9140
 1.8040	16.9140
 1.8050	16.9160
 1.8060	16.9200
 1.8070	16.9220
 1.8080	16.9230
 1.8090	16.9270
 1.8100	16.9300
 1.8110	16.9340
 1.8120	16.9380
 1.8130	16.9350
 1.8140	16.9330
 1.8150	16.9330
 1.8160	16.9290
 1.8170	16.9270
 1.8180	16.9240
 1.8190	16.9190
 1.8200	16.9140
 1.8210	16.9100
 1.8220	16.9030
 1.8230	16.8950
 1.8240	16.8850
 1.8250	16.8720
 1.8260	16.8590
 1.8270	16.8370
 1.8280	16.8150
 1.8290	16.7930
 1.8300	16.7710
 1.8310	16.7490
 1.8320	16.7270
 1.8330	16.7050
 1.8340	16.6830
 1.8350	16.6830
 1.8360	16.6430
 1.8370	16.5990
 1.8380	16.5490
 1.8390	16.4950
 1.8400	16.4400
 1.8410	16.3770
 1.8420	16.3090
 1.8430	16.2360
 1.8440	16.1560
 1.8450	16.0690
 1.8460	15.9760
 1.8470	15.8780
 1.8480	15.7730
 1.8490	15.6590
 1.8500	15.5340
 1.8510	15.4000
 1.8520	15.2590
 1.8530	15.1070
 1.8540	14.9490
 1.8550	14.7840
 1.8560	14.6060
 1.8570	14.4180
 1.8580	14.2200
 1.8590	14.0150
 1.8600	13.8010
 1.8610	13.5800
 1.8620	13.3470
 1.8630	13.1050
 1.8640	12.8550
 1.8650	12.5930
 1.8660	12.3250
 1.8670	12.0480
 1.8680	11.7620
 1.8690	11.4700
 1.8700	11.1730
 1.8710	10.8710
 1.8720	10.5670
 1.8730	10.2630
 1.8740	 9.9610
 1.8750	 9.6620
 1.8760	 9.3650
 1.8770	 9.0760
 1.8780	 8.7930
 1.8790	 8.5170
 1.8800	 8.2560
 1.8810	 8.0070
 1.8820	 7.7670
 1.8830	 7.5370
 1.8840	 7.3200
 1.8850	 7.1110
 1.8860	 6.9180
 1.8870	 6.7380
 1.8880	 6.5710
 1.8890	 6.4180
 1.8900	 6.2760
 1.8910	 6.1470
 1.8920	 6.0300
 1.8930	 5.9260
 1.8940	 5.8340
 1.8950	 5.7530
 1.8960	 5.6820
 1.8970	 5.6180
 1.8980	 5.5620
 1.8990	 5.5110
 1.9000	 5.4670
 1.9010	 5.4290
 1.9020	 5.3960
 1.9030	 5.3690
 1.9040	 5.3470
 1.9050	 5.3280
 1.9060	 5.3120
 1.9070	 5.2970
 1.9080	 5.2830
 1.9090	 5.2720
 1.9100	 5.2620
 1.9110	 5.2540
 1.9120	 5.2470
 1.9130	 5.2420
 1.9140	 5.2400
 1.9150	 5.2360
 1.9160	 5.2330
 1.9170	 5.2300
 1.9180	 5.2280
 1.9190	 5.2280
 1.9200	 5.2250
 1.9210	 5.2210
 1.9220	 5.2180
 1.9230	 5.2120
 1.9240	 5.2090
 1.9250	 5.2060
 1.9260	 5.2080
 1.9270	 5.2100
 1.9280	 5.2130
 1.9290	 5.2160
 1.9300	 5.2180
 1.9310	 5.2190
 1.9320	 5.2200
 1.9330	 5.2210
 1.9340	 5.2220
 1.9350	 5.2230
 1.9360	 5.2250
 1.9370	 5.2270
 1.9380	 5.2290
 1.9390	 5.2310
 1.9400	 5.2320
 1.9410	 5.2330
 1.9420	 5.2360
 1.9430	 5.2410
 1.9440	 5.2470
 1.9450	 5.2550
 1.9460	 5.2610
 1.9470	 5.2660
 1.9480	 5.2700
 1.9490	 5.2740
 1.9500	 5.2780
 1.9510	 5.2810
 1.9520	 5.2880
 1.9530	 5.2930
 1.9540	 5.2980
 1.9550	 5.3040
 1.9560	 5.3110
 1.9570	 5.3170
 1.9580	 5.3210
 1.9590	 5.3280
 1.9600	 5.3370
 1.9610	 5.3460
 1.9620	 5.3560
 1.9630	 5.3670
 1.9640	 5.3750
 1.9650	 5.3830
 1.9660	 5.3900
 1.9670	 5.3980
 1.9680	 5.4070
 1.9690	 5.4170
 1.9700	 5.4270
 1.9710	 5.4360
 1.9720	 5.4460
 1.9730	 5.4550
 1.9740	 5.4640
 1.9750	 5.4770
 1.9760	 5.4900
 1.9770	 5.5030
 1.9780	 5.5160
 1.9790	 5.5300
 1.9800	 5.5440
 1.9810	 5.5570
 1.9820	 5.5710
 1.9830	 5.5850
 1.9840	 5.5970
 1.9850	 5.6100
 1.9860	 5.6250
 1.9870	 5.6390
 1.9880	 5.6530
 1.9890	 5.6680
 1.9900	 5.6820
 1.9910	 5.6970
 1.9920	 5.7120
 1.9930	 5.7270
 1.9940	 5.7450
 1.9950	 5.7650
 1.9960	 5.7860
 1.9970	 5.8090
 1.9980	 5.8300
 1.9990	 5.8490
 2.0000	 5.8700
 2.0010	 5.8890
 2.0020	 5.9080
 2.0030	 5.9300
 2.0040	 5.9490
 2.0050	 5.9690
 2.0060	 5.9900
 2.0070	 6.0090
 2.0080	 6.0270
 2.0090	 6.0470
 2.0100	 6.0660
 2.0110	 6.0870
 2.0120	 6.1100
 2.0130	 6.1320
 2.0140	 6.1550
 2.0150	 6.1770
 2.0160	 6.1970
 2.0170	 6.2170
 2.0180	 6.2380
 2.0190	 6.2570
 2.0200	 6.2780
 2.0210	 6.2980
 2.0220	 6.3210
 2.0230	 6.3450
 2.0240	 6.3690
 2.0250	 6.3950
 2.0260	 6.4190
 2.0270	 6.4420
 2.0280	 6.4650
 2.0290	 6.4850
 2.0300	 6.5060
 2.0310	 6.5270
 2.0320	 6.5480
 2.0330	 6.5680
 2.0340	 6.5880
 2.0350	 6.6070
 2.0360	 6.6230
 2.0370	 6.6420
 2.0380	 6.6610
 2.0390	 6.6800
 2.0400	 6.7030
 2.0410	 6.7230
 2.0420	 6.7440
 2.0430	 6.7620
 2.0440	 6.7820
 2.0450	 6.7990
 2.0460	 6.8190
 2.0470	 6.8390
 2.0480	 6.8590
 2.0490	 6.8780
 2.0500	 6.8970
 2.0510	 6.9160
 2.0520	 6.9350
 2.0530	 6.9530
 2.0540	 6.9730
 2.0550	 6.9940
 2.0560	 7.0150
 2.0570	 7.0390
 2.0580	 7.0600
 2.0590	 7.0810
 2.0600	 7.0990
 2.0610	 7.1190
 2.0620	 7.1360
 2.0630	 7.1570
 2.0640	 7.1800
 2.0650	 7.2030
 2.0660	 7.2280
 2.0670	 7.2510
 2.0680	 7.2720
 2.0690	 7.2940
 2.0700	 7.3140
 2.0710	 7.3360
 2.0720	 7.3570
 2.0730	 7.3780
 2.0740	 7.4010
 2.0750	 7.4250
 2.0760	 7.4460
 2.0770	 7.4650
 2.0780	 7.4870
 2.0790	 7.5070
 2.0800	 7.5300
 2.0810	 7.5560
 2.0820	 7.5790
 2.0830	 7.6010
 2.0840	 7.6220
 2.0850	 7.6440
 2.0860	 7.6630
 2.0870	 7.6810
 2.0880	 7.6990
 2.0890	 7.7190
 2.0900	 7.7390
 2.0910	 7.7600
 2.0920	 7.7840
 2.0930	 7.8060
 2.0940	 7.8260
 2.0950	 7.8470
 2.0960	 7.8680
 2.0970	 7.8890
 2.0980	 7.9110
 2.0990	 7.9320
 2.1000	 7.9510
 2.1010	 7.9710
 2.1020	 7.9890
 2.1030	 8.0090
 2.1040	 8.0270
 2.1050	 8.0480
 2.1060	 8.0680
 2.1070	 8.0890
 2.1080	 8.1100
 2.1090	 8.1310
 2.1100	 8.1500
 2.1110	 8.1690
 2.1120	 8.1870
 2.1130	 8.2030
 2.1140	 8.2210
 2.1150	 8.2370
 2.1160	 8.2540
 2.1170	 8.2710
 2.1180	 8.2890
 2.1190	 8.3080
 2.1200	 8.3260
 2.1210	 8.3440
 2.1220	 8.3630
 2.1230	 8.3790
 2.1240	 8.3950
 2.1250	 8.4110
 2.1260	 8.4260
 2.1270	 8.4420
 2.1280	 8.4570
 2.1290	 8.4720
 2.1300	 8.4850
 2.1310	 8.4990
 2.1320	 8.5120
 2.1330	 8.5260
 2.1340	 8.5410
 2.1350	 8.5560
 2.1360	 8.5710
 2.1370	 8.5850
 2.1380	 8.6010
 2.1390	 8.6140
 2.1400	 8.6270
 2.1410	 8.6380
 2.1420	 8.6510
 2.1430	 8.6620
 2.1440	 8.6760
 2.1450	 8.6930
 2.1460	 8.7080
 2.1470	 8.7230
 2.1480	 8.7380
 2.1490	 8.7520
 2.1500	 8.7670
 2.1510	 8.7810
 2.1520	 8.7960
 2.1530	 8.8090
 2.1540	 8.8250
 2.1550	 8.8410
 2.1560	 8.8570
 2.1570	 8.8760
 2.1580	 8.8920
 2.1590	 8.9050
 2.1600	 8.9190
 2.1610	 8.9330
 2.1620	 8.9430
 2.1630	 8.9540
 2.1640	 8.9660
 2.1650	 8.9770
 2.1660	 8.9870
 2.1670	 9.0000
 2.1680	 9.0140
 2.1690	 9.0270
 2.1700	 9.0420
 2.1710	 9.0550
 2.1720	 9.0660
 2.1730	 9.0780
 2.1740	 9.0890
 2.1750	 9.1010
 2.1760	 9.1160
 2.1770	 9.1290
 2.1780	 9.1450
 2.1790	 9.1580
 2.1800	 9.1680
 2.1810	 9.1790
 2.1820	 9.1880
 2.1830	 9.1980
 2.1840	 9.2100
 2.1850	 9.2220
 2.1860	 9.2350
 2.1870	 9.2480
 2.1880	 9.2630
 2.1890	 9.2800
 2.1900	 9.2950
 2.1910	 9.3120
 2.1920	 9.3270
 2.1930	 9.3400
 2.1940	 9.3540
 2.1950	 9.3710
 2.1960	 9.3830
 2.1970	 9.3920
 2.1980	 9.4040
 2.1990	 9.4170
 2.2000	 9.4290
 2.2010	 9.4450
 2.2020	 9.4570
 2.2030	 9.4660
 2.2040	 9.4750
 2.2050	 9.4820
 2.2060	 9.4900
 2.2070	 9.4970
 2.2080	 9.5020
 2.2090	 9.5100
 2.2100	 9.5180
 2.2110	 9.5270
 2.2120	 9.5370
 2.2130	 9.5470
 2.2140	 9.5590
 2.2150	 9.5680
 2.2160	 9.5800
 2.2170	 9.5870
 2.2180	 9.5900
 2.2190	 9.5940
 2.2200	 9.5980
 2.2210	 9.6000
 2.2220	 9.6000
 2.2230	 9.5980
 2.2240	 9.5920
 2.2250	 9.5870
 2.2260	 9.5820
 2.2270	 9.5760
 2.2280	 9.5720
 2.2290	 9.5660
 2.2300	 9.5560
 2.2310	 9.5470
 2.2320	 9.5380
 2.2330	 9.5250
 2.2340	 9.5120
 2.2350	 9.4980
 2.2360	 9.4860
 2.2370	 9.4740
 2.2380	 9.4580
 2.2390	 9.4420
 2.2400	 9.4230
 2.2410	 9.3990
 2.2420	 9.3760
 2.2430	 9.3510
 2.2440	 9.3280
 2.2450	 9.3050
 2.2460	 9.2820
 2.2470	 9.2630
 2.2480	 9.2390
 2.2490	 9.2120
 2.2500	 9.1850
 2.2510	 9.1560
 2.2520	 9.1300
 2.2530	 9.1070
 2.2540	 9.0810
 2.2550	 9.0560
 2.2560	 9.0280
 2.2570	 8.9940
 2.2580	 8.9640
 2.2590	 8.9340
 2.2600	 8.9040
 2.2610	 8.8730
 2.2620	 8.8450
 2.2630	 8.8150
 2.2640	 8.7850
 2.2650	 8.7630
 2.2660	 8.7360
 2.2670	 8.7100
 2.2680	 8.6840
 2.2690	 8.6570
 2.2700	 8.6240
 2.2710	 8.5960
 2.2720	 8.5700
 2.2730	 8.5460
 2.2740	 8.5250
 2.2750	 8.5040
 2.2760	 8.4890
 2.2770	 8.4680
 2.2780	 8.4450
 2.2790	 8.4240
 2.2800	 8.4030
 2.2810	 8.3800
 2.2820	 8.3580
 2.2830	 8.3330
 2.2840	 8.2990
 2.2850	 8.2730
 2.2860	 8.2500
 2.2870	 8.2290
 2.2880	 8.2150
 2.2890	 8.1970
 2.2900	 8.1810
 2.2910	 8.1620
 2.2920	 8.1370
 2.2930	 8.1150
 2.2940	 8.0900
 2.2950	 8.0670
 2.2960	 8.0490
 2.2970	 8.0270
 2.2980	 8.0040
 2.2990	 7.9830
 2.3000	 7.9640
 2.3010	 7.9390
 2.3020	 7.9170
 2.3030	 7.8980
 2.3040	 7.8760
 2.3050	 7.8530
 2.3060	 7.8340
 2.3070	 7.8110
 2.3080	 7.7900
 2.3090	 7.7740
 2.3100	 7.7590
 2.3110	 7.7470
 2.3120	 7.7320
 2.3130	 7.7170
 2.3140	 7.7010
 2.3150	 7.6860
 2.3160	 7.6660
 2.3170	 7.6460
 2.3180	 7.6250
 2.3190	 7.6000
 2.3200	 7.5790
 2.3210	 7.5610
 2.3220	 7.5400
 2.3230	 7.5150
 2.3240	 7.4960
 2.3250	 7.4810
 2.3260	 7.4660
 2.3270	 7.4560
 2.3280	 7.4410
 2.3290	 7.4210
 2.3300	 7.4020
 2.3310	 7.3840
 2.3320	 7.3640
 2.3330	 7.3420
 2.3340	 7.3210
 2.3350	 7.3010
 2.3360	 7.2780
 2.3370	 7.2530
 2.3380	 7.2310
 2.3390	 7.2070
 2.3400	 7.1870
 2.3410	 7.1720
 2.3420	 7.1580
 2.3430	 7.1470
 2.3440	 7.1350
 2.3450	 7.1290
 2.3460	 7.1140
 2.3470	 7.0900
 2.3480	 7.0740
 2.3490	 7.0580
 2.3500	 7.0400
 2.3510	 7.0280
 2.3520	 7.0080
 2.3530	 6.9800
 2.3540	 6.9520
 2.3550	 6.9250
 2.3560	 6.9080
 2.3570	 6.9020
 2.3580	 6.8940
 2.3590	 6.8850
 2.3600	 6.8730
 2.3610	 6.8630
 2.3620	 6.8550
 2.3630	 6.8380
 2.3640	 6.8230
 2.3650	 6.7980
 2.3660	 6.7650
 2.3670	 6.7480
 2.3680	 6.7340
 2.3690	 6.7240
 2.3700	 6.7170
 2.3710	 6.7010
 2.3720	 6.6890
 2.3730	 6.6720
 2.3740	 6.6500
 2.3750	 6.6330
 2.3760	 6.6150
 2.3770	 6.5960
 2.3780	 6.5840
 2.3790	 6.5740
 2.3800	 6.5570
 2.3810	 6.5400
 2.3820	 6.5260
 2.3830	 6.5160
 2.3840	 6.5110
 2.3850	 6.4970
 2.3860	 6.4800
 2.3870	 6.4590
 2.3880	 6.4390
 2.3890	 6.4260
 2.3900	 6.4140
 2.3910	 6.4010
 2.3920	 6.3870
 2.3930	 6.3740
 2.3940	 6.3680
 2.3950	 6.3620
 2.3960	 6.3380
 2.3970	 6.3100
 2.3980	 6.2880
 2.3990	 6.2720
 2.4000	 6.2700
 2.4010	 6.2690
 2.4020	 6.2560
 2.4030	 6.2380
 2.4040	 6.2170
 2.4050	 6.2110
 2.4060	 6.2070
 2.4070	 6.1920
 2.4080	 6.1740
 2.4090	 6.1470
 2.4100	 6.1200
 2.4110	 6.1000
 2.4120	 6.0880
 2.4130	 6.0790
 2.4140	 6.0660
 2.4150	 6.0550
 2.4160	 6.0340
 2.4170	 6.0150
 2.4180	 5.9950
 2.4190	 5.9780
 2.4200	 5.9690
 2.4210	 5.9500
 2.4220	 5.9280
 2.4230	 5.9150
 2.4240	 5.9050
 2.4250	 5.8940
 2.4260	 5.8930
 2.4270	 5.8920
 2.4280	 5.8790
 2.4290	 5.8660
 2.4300	 5.8510
 2.4310	 5.8440
 2.4320	 5.8450
 2.4330	 5.8440
 2.4340	 5.8530
 2.4350	 5.8510
 2.4360	 5.8330
 2.4370	 5.8210
 2.4380	 5.8000
 2.4390	 5.7720
 2.4400	 5.7510
 2.4410	 5.7300
 2.4420	 5.7090
 2.4430	 5.7040
 2.4440	 5.7000
 2.4450	 5.6930
 2.4460	 5.6840
 2.4470	 5.6670
 2.4480	 5.6600
 2.4490	 5.6490
 2.4500	 5.6590
 2.4510	 5.6680
 2.4520	 5.6440
 2.4530	 5.6370
 2.4540	 5.6220
 2.4550	 5.6000
 2.4560	 5.6000
 2.4570	 5.5940
 2.4580	 5.5780
 2.4590	 5.5610
 2.4600	 5.5430
 2.4610	 5.5260
 2.4620	 5.5140
 2.4630	 5.5200
 2.4640	 5.5280
 2.4650	 5.5270
 2.4660	 5.5370
 2.4670	 5.5280
 2.4680	 5.4960
 2.4690	 5.4790
 2.4700	 5.4670
 2.4710	 5.4720
 2.4720	 5.4800
 2.4730	 5.4910
 2.4740	 5.4970
 2.4750	 5.5080
 2.4760	 5.5070
 2.4770	 5.4970
 2.4780	 5.4820
 2.4790	 5.4550
 2.4800	 5.4380
 2.4810	 5.4110
 2.4820	 5.3930
 2.4830	 5.4120
 2.4840	 5.4230
 2.4850	 5.4400
 2.4860	 5.4590
 2.4870	 5.4320
 2.4880	 5.3990
 2.4890	 5.4040
 2.4900	 5.3800
 2.4910	 5.3660
 2.4920	 5.3800
 2.4930	 5.3950
 2.4940	 5.4360
 2.4950	 5.4390
 2.4960	 5.4540
 2.4970	 5.4510
 2.4980	 5.3890
 2.4990	 5.4140
 2.5000	 5.4230
