Name: Betula lenta
Type: Vegetation
Class: Tree
Genus: Betula
Species: lenta
Sample No.: BELE-2-59
Owner: UCSB
Wavelength Range: VSWIR
Origin: USA; Massachusetts; Harvard Forest
Collection Date: 7/8/2013
Description: Samples were collected as part of NSF Macrosystem Biology proposal titled: Collaborative Research: Thermal controls on ecosystem metabolism and function: scaling from leaves to canopies to regions. Samples were collected and overnighted to JPL facilities for processing. The same leaves were processed in the Nicolet and then measured using the ASD.
Measurement: Bidirectional reflectance
First Column: X
Second Column: Y
X Units: Wavelength (micrometers)
Y Units: Reflectance (percentage)
First X Value: 0.35
Last X Value: 2.5
Number of X Values: 2151
Additional Information: vegetation.tree.betula.lenta.vswir.bele-2-59.ucsb.asd.ancillary.txt

 0.3500	 8.8950
 0.3510	 8.6530
 0.3520	 8.4450
 0.3530	 8.4970
 0.3540	 8.7800
 0.3550	 8.6380
 0.3560	 8.4710
 0.3570	 8.4080
 0.3580	 8.4300
 0.3590	 8.5730
 0.3600	 8.5240
 0.3610	 8.2810
 0.3620	 8.2980
 0.3630	 8.3430
 0.3640	 8.3520
 0.3650	 8.3260
 0.3660	 8.3370
 0.3670	 8.3200
 0.3680	 8.2790
 0.3690	 8.2650
 0.3700	 8.2670
 0.3710	 8.2700
 0.3720	 8.2780
 0.3730	 8.3410
 0.3740	 8.3170
 0.3750	 8.2940
 0.3760	 8.3570
 0.3770	 8.1820
 0.3780	 8.1540
 0.3790	 8.2970
 0.3800	 8.3220
 0.3810	 8.3660
 0.3820	 8.3310
 0.3830	 8.2210
 0.3840	 8.3610
 0.3850	 8.4190
 0.3860	 8.3250
 0.3870	 8.1610
 0.3880	 8.2190
 0.3890	 8.2960
 0.3900	 8.3030
 0.3910	 8.3020
 0.3920	 8.2990
 0.3930	 8.2960
 0.3940	 8.2950
 0.3950	 8.3010
 0.3960	 8.2820
 0.3970	 8.2450
 0.3980	 8.2260
 0.3990	 8.3150
 0.4000	 8.3200
 0.4010	 8.2310
 0.4020	 8.2960
 0.4030	 8.3290
 0.4040	 8.3240
 0.4050	 8.3170
 0.4060	 8.3400
 0.4070	 8.3360
 0.4080	 8.3060
 0.4090	 8.2880
 0.4100	 8.3030
 0.4110	 8.3080
 0.4120	 8.2900
 0.4130	 8.3180
 0.4140	 8.3200
 0.4150	 8.3110
 0.4160	 8.3170
 0.4170	 8.2800
 0.4180	 8.2990
 0.4190	 8.3550
 0.4200	 8.3270
 0.4210	 8.3340
 0.4220	 8.3460
 0.4230	 8.3320
 0.4240	 8.3290
 0.4250	 8.3430
 0.4260	 8.3610
 0.4270	 8.3650
 0.4280	 8.3200
 0.4290	 8.3170
 0.4300	 8.3640
 0.4310	 8.3430
 0.4320	 8.3360
 0.4330	 8.3200
 0.4340	 8.2690
 0.4350	 8.2710
 0.4360	 8.2750
 0.4370	 8.2710
 0.4380	 8.2790
 0.4390	 8.2960
 0.4400	 8.3010
 0.4410	 8.2890
 0.4420	 8.2810
 0.4430	 8.2900
 0.4440	 8.3020
 0.4450	 8.3040
 0.4460	 8.3230
 0.4470	 8.3370
 0.4480	 8.3380
 0.4490	 8.3430
 0.4500	 8.3350
 0.4510	 8.3310
 0.4520	 8.3450
 0.4530	 8.3510
 0.4540	 8.3590
 0.4550	 8.3670
 0.4560	 8.3680
 0.4570	 8.3640
 0.4580	 8.3660
 0.4590	 8.3750
 0.4600	 8.3670
 0.4610	 8.3640
 0.4620	 8.3710
 0.4630	 8.3840
 0.4640	 8.3740
 0.4650	 8.3740
 0.4660	 8.3870
 0.4670	 8.3780
 0.4680	 8.3910
 0.4690	 8.3910
 0.4700	 8.3600
 0.4710	 8.3800
 0.4720	 8.3780
 0.4730	 8.3620
 0.4740	 8.3750
 0.4750	 8.3670
 0.4760	 8.3700
 0.4770	 8.3900
 0.4780	 8.3750
 0.4790	 8.3730
 0.4800	 8.3820
 0.4810	 8.3870
 0.4820	 8.3990
 0.4830	 8.3980
 0.4840	 8.3870
 0.4850	 8.3960
 0.4860	 8.4120
 0.4870	 8.4210
 0.4880	 8.4170
 0.4890	 8.4220
 0.4900	 8.4320
 0.4910	 8.4450
 0.4920	 8.4620
 0.4930	 8.4740
 0.4940	 8.4920
 0.4950	 8.5210
 0.4960	 8.5430
 0.4970	 8.5580
 0.4980	 8.5760
 0.4990	 8.6100
 0.5000	 8.6440
 0.5010	 8.6820
 0.5020	 8.7260
 0.5030	 8.7710
 0.5040	 8.8200
 0.5050	 8.8760
 0.5060	 8.9440
 0.5070	 9.0140
 0.5080	 9.0890
 0.5090	 9.1780
 0.5100	 9.2890
 0.5110	 9.4060
 0.5120	 9.5330
 0.5130	 9.6750
 0.5140	 9.8350
 0.5150	10.0090
 0.5160	10.2030
 0.5170	10.4190
 0.5180	10.6440
 0.5190	10.8720
 0.5200	11.1090
 0.5210	11.3680
 0.5220	11.6240
 0.5230	11.8780
 0.5240	12.1300
 0.5250	12.3730
 0.5260	12.6130
 0.5270	12.8430
 0.5280	13.0570
 0.5290	13.2580
 0.5300	13.4400
 0.5310	13.6060
 0.5320	13.7720
 0.5330	13.9060
 0.5340	14.0180
 0.5350	14.1230
 0.5360	14.2140
 0.5370	14.2960
 0.5380	14.3700
 0.5390	14.4300
 0.5400	14.4850
 0.5410	14.5260
 0.5420	14.5550
 0.5430	14.6010
 0.5440	14.6440
 0.5450	14.6860
 0.5460	14.7370
 0.5470	14.7910
 0.5480	14.8380
 0.5490	14.8730
 0.5500	14.8930
 0.5510	14.9130
 0.5520	14.9250
 0.5530	14.9210
 0.5540	14.9090
 0.5550	14.8780
 0.5560	14.8260
 0.5570	14.7590
 0.5580	14.6820
 0.5590	14.5890
 0.5600	14.4750
 0.5610	14.3480
 0.5620	14.2140
 0.5630	14.0680
 0.5640	13.9000
 0.5650	13.7290
 0.5660	13.5610
 0.5670	13.3900
 0.5680	13.2060
 0.5690	13.0250
 0.5700	12.8480
 0.5710	12.6730
 0.5720	12.5070
 0.5730	12.3480
 0.5740	12.1950
 0.5750	12.0510
 0.5760	11.9060
 0.5770	11.7790
 0.5780	11.6750
 0.5790	11.5710
 0.5800	11.4720
 0.5810	11.3730
 0.5820	11.2740
 0.5830	11.1930
 0.5840	11.1280
 0.5850	11.0690
 0.5860	11.0090
 0.5870	10.9470
 0.5880	10.8870
 0.5890	10.8290
 0.5900	10.7800
 0.5910	10.7320
 0.5920	10.6860
 0.5930	10.6490
 0.5940	10.6160
 0.5950	10.5900
 0.5960	10.5700
 0.5970	10.5420
 0.5980	10.5180
 0.5990	10.4960
 0.6000	10.4720
 0.6010	10.4420
 0.6020	10.4090
 0.6030	10.3720
 0.6040	10.3240
 0.6050	10.2810
 0.6060	10.2360
 0.6070	10.1810
 0.6080	10.1160
 0.6090	10.0420
 0.6100	 9.9630
 0.6110	 9.8850
 0.6120	 9.8260
 0.6130	 9.7820
 0.6140	 9.7420
 0.6150	 9.6850
 0.6160	 9.6360
 0.6170	 9.5950
 0.6180	 9.5550
 0.6190	 9.5040
 0.6200	 9.4680
 0.6210	 9.4440
 0.6220	 9.4130
 0.6230	 9.3890
 0.6240	 9.3680
 0.6250	 9.3480
 0.6260	 9.3430
 0.6270	 9.3350
 0.6280	 9.3260
 0.6290	 9.3190
 0.6300	 9.3010
 0.6310	 9.2880
 0.6320	 9.2840
 0.6330	 9.2740
 0.6340	 9.2550
 0.6350	 9.2290
 0.6360	 9.1980
 0.6370	 9.1620
 0.6380	 9.1200
 0.6390	 9.0740
 0.6400	 9.0270
 0.6410	 8.9730
 0.6420	 8.9200
 0.6430	 8.8710
 0.6440	 8.8230
 0.6450	 8.7780
 0.6460	 8.7340
 0.6470	 8.6940
 0.6480	 8.6670
 0.6490	 8.6400
 0.6500	 8.6130
 0.6510	 8.5920
 0.6520	 8.5780
 0.6530	 8.5620
 0.6540	 8.5430
 0.6550	 8.5350
 0.6560	 8.5220
 0.6570	 8.5060
 0.6580	 8.4940
 0.6590	 8.4800
 0.6600	 8.4610
 0.6610	 8.4390
 0.6620	 8.4210
 0.6630	 8.4100
 0.6640	 8.4030
 0.6650	 8.3990
 0.6660	 8.3990
 0.6670	 8.4020
 0.6680	 8.4050
 0.6690	 8.4100
 0.6700	 8.4190
 0.6710	 8.4350
 0.6720	 8.4570
 0.6730	 8.4780
 0.6740	 8.4920
 0.6750	 8.5100
 0.6760	 8.5400
 0.6770	 8.5680
 0.6780	 8.5960
 0.6790	 8.6280
 0.6800	 8.6640
 0.6810	 8.7040
 0.6820	 8.7460
 0.6830	 8.7880
 0.6840	 8.8360
 0.6850	 8.8900
 0.6860	 8.9540
 0.6870	 9.0280
 0.6880	 9.1100
 0.6890	 9.2210
 0.6900	 9.3710
 0.6910	 9.5580
 0.6920	 9.8000
 0.6930	10.1050
 0.6940	10.4860
 0.6950	10.9570
 0.6960	11.5100
 0.6970	12.1510
 0.6980	12.8810
 0.6990	13.6900
 0.7000	14.5720
 0.7010	15.5160
 0.7020	16.5130
 0.7030	17.5380
 0.7040	18.5860
 0.7050	19.6510
 0.7060	20.7230
 0.7070	21.7890
 0.7080	22.8510
 0.7090	23.9110
 0.7100	24.9360
 0.7110	25.9640
 0.7120	26.9900
 0.7130	27.9680
 0.7140	28.9290
 0.7150	29.8730
 0.7160	30.7960
 0.7170	31.6850
 0.7180	32.5520
 0.7190	33.3880
 0.7200	34.1840
 0.7210	34.9610
 0.7220	35.7050
 0.7230	36.4110
 0.7240	37.0850
 0.7250	37.7350
 0.7260	38.3580
 0.7270	38.9440
 0.7280	39.4890
 0.7290	40.0090
 0.7300	40.5020
 0.7310	40.9600
 0.7320	41.3900
 0.7330	41.7940
 0.7340	42.1750
 0.7350	42.5410
 0.7360	42.8720
 0.7370	43.1680
 0.7380	43.4410
 0.7390	43.7240
 0.7400	43.9790
 0.7410	44.2070
 0.7420	44.4240
 0.7430	44.6140
 0.7440	44.8000
 0.7450	44.9800
 0.7460	45.1230
 0.7470	45.2310
 0.7480	45.3430
 0.7490	45.4720
 0.7500	45.5800
 0.7510	45.6780
 0.7520	45.7640
 0.7530	45.8330
 0.7540	45.8960
 0.7550	45.9560
 0.7560	46.0150
 0.7570	46.0690
 0.7580	46.1260
 0.7590	46.1680
 0.7600	46.1940
 0.7610	46.2280
 0.7620	46.2550
 0.7630	46.2710
 0.7640	46.2800
 0.7650	46.3170
 0.7660	46.3360
 0.7670	46.3410
 0.7680	46.3630
 0.7690	46.3770
 0.7700	46.3950
 0.7710	46.4160
 0.7720	46.4250
 0.7730	46.4200
 0.7740	46.4230
 0.7750	46.4440
 0.7760	46.4520
 0.7770	46.4570
 0.7780	46.4660
 0.7790	46.4800
 0.7800	46.4820
 0.7810	46.4840
 0.7820	46.4890
 0.7830	46.4890
 0.7840	46.4990
 0.7850	46.5110
 0.7860	46.5190
 0.7870	46.5280
 0.7880	46.5440
 0.7890	46.5550
 0.7900	46.5500
 0.7910	46.5500
 0.7920	46.5540
 0.7930	46.5520
 0.7940	46.5380
 0.7950	46.5540
 0.7960	46.5660
 0.7970	46.5630
 0.7980	46.5680
 0.7990	46.5680
 0.8000	46.5770
 0.8010	46.5940
 0.8020	46.5660
 0.8030	46.5480
 0.8040	46.5530
 0.8050	46.5680
 0.8060	46.5500
 0.8070	46.5440
 0.8080	46.5500
 0.8090	46.5280
 0.8100	46.5140
 0.8110	46.5100
 0.8120	46.5100
 0.8130	46.5020
 0.8140	46.4880
 0.8150	46.4810
 0.8160	46.4850
 0.8170	46.4680
 0.8180	46.4500
 0.8190	46.4470
 0.8200	46.4640
 0.8210	46.4580
 0.8220	46.4360
 0.8230	46.4060
 0.8240	46.3800
 0.8250	46.3790
 0.8260	46.3820
 0.8270	46.3730
 0.8280	46.3580
 0.8290	46.3560
 0.8300	46.3480
 0.8310	46.3230
 0.8320	46.3210
 0.8330	46.3210
 0.8340	46.3110
 0.8350	46.2890
 0.8360	46.2820
 0.8370	46.2960
 0.8380	46.3080
 0.8390	46.2780
 0.8400	46.2670
 0.8410	46.2560
 0.8420	46.2390
 0.8430	46.2440
 0.8440	46.2590
 0.8450	46.2500
 0.8460	46.2110
 0.8470	46.2150
 0.8480	46.2210
 0.8490	46.2300
 0.8500	46.2450
 0.8510	46.2220
 0.8520	46.2050
 0.8530	46.2070
 0.8540	46.2180
 0.8550	46.2110
 0.8560	46.2040
 0.8570	46.2030
 0.8580	46.1910
 0.8590	46.1940
 0.8600	46.2030
 0.8610	46.2040
 0.8620	46.2000
 0.8630	46.2040
 0.8640	46.2070
 0.8650	46.1980
 0.8660	46.1740
 0.8670	46.1780
 0.8680	46.1970
 0.8690	46.1990
 0.8700	46.2020
 0.8710	46.2010
 0.8720	46.1990
 0.8730	46.2030
 0.8740	46.2070
 0.8750	46.2070
 0.8760	46.2030
 0.8770	46.1970
 0.8780	46.2190
 0.8790	46.2240
 0.8800	46.2000
 0.8810	46.1930
 0.8820	46.2200
 0.8830	46.2390
 0.8840	46.2260
 0.8850	46.2250
 0.8860	46.2240
 0.8870	46.2330
 0.8880	46.2590
 0.8890	46.2820
 0.8900	46.2650
 0.8910	46.2390
 0.8920	46.2510
 0.8930	46.2690
 0.8940	46.2750
 0.8950	46.2740
 0.8960	46.2840
 0.8970	46.2940
 0.8980	46.2940
 0.8990	46.2870
 0.9000	46.2860
 0.9010	46.3000
 0.9020	46.3100
 0.9030	46.3040
 0.9040	46.2920
 0.9050	46.2960
 0.9060	46.3060
 0.9070	46.3090
 0.9080	46.3100
 0.9090	46.3220
 0.9100	46.3360
 0.9110	46.3440
 0.9120	46.3540
 0.9130	46.3630
 0.9140	46.3670
 0.9150	46.3650
 0.9160	46.3730
 0.9170	46.3770
 0.9180	46.3790
 0.9190	46.3880
 0.9200	46.3780
 0.9210	46.3760
 0.9220	46.3840
 0.9230	46.3840
 0.9240	46.3750
 0.9250	46.3880
 0.9260	46.4070
 0.9270	46.3910
 0.9280	46.3840
 0.9290	46.3630
 0.9300	46.3420
 0.9310	46.3670
 0.9320	46.3940
 0.9330	46.3810
 0.9340	46.3440
 0.9350	46.3600
 0.9360	46.3630
 0.9370	46.3620
 0.9380	46.3560
 0.9390	46.3180
 0.9400	46.3000
 0.9410	46.3030
 0.9420	46.3100
 0.9430	46.2970
 0.9440	46.2910
 0.9450	46.2780
 0.9460	46.2550
 0.9470	46.2580
 0.9480	46.2430
 0.9490	46.2290
 0.9500	46.2330
 0.9510	46.2260
 0.9520	46.2090
 0.9530	46.1800
 0.9540	46.1420
 0.9550	46.1290
 0.9560	46.1160
 0.9570	46.1000
 0.9580	46.0780
 0.9590	46.0290
 0.9600	45.9950
 0.9610	45.9850
 0.9620	45.9930
 0.9630	45.9960
 0.9640	45.9650
 0.9650	45.9330
 0.9660	45.9420
 0.9670	45.9820
 0.9680	45.9810
 0.9690	45.9350
 0.9700	45.8860
 0.9710	45.8920
 0.9720	45.9080
 0.9730	45.9210
 0.9740	45.9320
 0.9750	45.9270
 0.9760	45.9080
 0.9770	45.8930
 0.9780	45.8960
 0.9790	45.8820
 0.9800	45.9130
 0.9810	45.9480
 0.9820	45.9190
 0.9830	45.8870
 0.9840	45.8600
 0.9850	45.8660
 0.9860	45.9160
 0.9870	45.9010
 0.9880	45.8890
 0.9890	45.8900
 0.9900	45.8860
 0.9910	45.8860
 0.9920	45.9680
 0.9930	46.0490
 0.9940	46.1310
 0.9950	46.2130
 0.9960	46.2940
 0.9970	46.3760
 0.9980	46.4570
 0.9990	46.5390
 1.0000	46.6210
 1.0010	46.7020
 1.0020	46.7840
 1.0030	46.8650
 1.0040	46.9470
 1.0050	47.0280
 1.0060	47.1100
 1.0070	47.1920
 1.0080	47.2730
 1.0090	47.3550
 1.0100	47.3550
 1.0110	47.3600
 1.0120	47.3670
 1.0130	47.3750
 1.0140	47.3820
 1.0150	47.3930
 1.0160	47.3990
 1.0170	47.4000
 1.0180	47.4080
 1.0190	47.4060
 1.0200	47.4050
 1.0210	47.4090
 1.0220	47.4140
 1.0230	47.4210
 1.0240	47.4380
 1.0250	47.4460
 1.0260	47.4480
 1.0270	47.4540
 1.0280	47.4600
 1.0290	47.4620
 1.0300	47.4620
 1.0310	47.4670
 1.0320	47.4710
 1.0330	47.4760
 1.0340	47.4810
 1.0350	47.4950
 1.0360	47.5040
 1.0370	47.5070
 1.0380	47.5090
 1.0390	47.5090
 1.0400	47.5120
 1.0410	47.5100
 1.0420	47.5170
 1.0430	47.5380
 1.0440	47.5470
 1.0450	47.5560
 1.0460	47.5630
 1.0470	47.5600
 1.0480	47.5640
 1.0490	47.5760
 1.0500	47.5830
 1.0510	47.5850
 1.0520	47.5920
 1.0530	47.6000
 1.0540	47.6060
 1.0550	47.6130
 1.0560	47.6280
 1.0570	47.6340
 1.0580	47.6370
 1.0590	47.6400
 1.0600	47.6380
 1.0610	47.6410
 1.0620	47.6480
 1.0630	47.6510
 1.0640	47.6540
 1.0650	47.6580
 1.0660	47.6610
 1.0670	47.6650
 1.0680	47.6690
 1.0690	47.6760
 1.0700	47.6820
 1.0710	47.6870
 1.0720	47.6910
 1.0730	47.6960
 1.0740	47.6990
 1.0750	47.6980
 1.0760	47.6990
 1.0770	47.6990
 1.0780	47.7010
 1.0790	47.7080
 1.0800	47.7080
 1.0810	47.7070
 1.0820	47.7070
 1.0830	47.7060
 1.0840	47.7030
 1.0850	47.7020
 1.0860	47.6970
 1.0870	47.6940
 1.0880	47.6880
 1.0890	47.6850
 1.0900	47.6860
 1.0910	47.6840
 1.0920	47.6840
 1.0930	47.6800
 1.0940	47.6720
 1.0950	47.6700
 1.0960	47.6680
 1.0970	47.6670
 1.0980	47.6670
 1.0990	47.6690
 1.1000	47.6750
 1.1010	47.6760
 1.1020	47.6780
 1.1030	47.6730
 1.1040	47.6670
 1.1050	47.6660
 1.1060	47.6610
 1.1070	47.6590
 1.1080	47.6550
 1.1090	47.6460
 1.1100	47.6400
 1.1110	47.6350
 1.1120	47.6340
 1.1130	47.6370
 1.1140	47.6350
 1.1150	47.6350
 1.1160	47.6310
 1.1170	47.6170
 1.1180	47.6090
 1.1190	47.6030
 1.1200	47.5970
 1.1210	47.5910
 1.1220	47.5850
 1.1230	47.5750
 1.1240	47.5630
 1.1250	47.5480
 1.1260	47.5290
 1.1270	47.5120
 1.1280	47.4920
 1.1290	47.4760
 1.1300	47.4660
 1.1310	47.4480
 1.1320	47.4300
 1.1330	47.4050
 1.1340	47.3730
 1.1350	47.3420
 1.1360	47.3080
 1.1370	47.2760
 1.1380	47.2370
 1.1390	47.1970
 1.1400	47.1540
 1.1410	47.1080
 1.1420	47.0680
 1.1430	47.0300
 1.1440	46.9880
 1.1450	46.9430
 1.1460	46.9010
 1.1470	46.8580
 1.1480	46.8160
 1.1490	46.7750
 1.1500	46.7370
 1.1510	46.6940
 1.1520	46.6620
 1.1530	46.6390
 1.1540	46.6150
 1.1550	46.5940
 1.1560	46.5760
 1.1570	46.5570
 1.1580	46.5370
 1.1590	46.5240
 1.1600	46.5150
 1.1610	46.5070
 1.1620	46.5000
 1.1630	46.4970
 1.1640	46.4930
 1.1650	46.4880
 1.1660	46.4830
 1.1670	46.4800
 1.1680	46.4760
 1.1690	46.4730
 1.1700	46.4740
 1.1710	46.4720
 1.1720	46.4660
 1.1730	46.4630
 1.1740	46.4630
 1.1750	46.4580
 1.1760	46.4560
 1.1770	46.4570
 1.1780	46.4570
 1.1790	46.4610
 1.1800	46.4610
 1.1810	46.4590
 1.1820	46.4590
 1.1830	46.4520
 1.1840	46.4460
 1.1850	46.4450
 1.1860	46.4380
 1.1870	46.4340
 1.1880	46.4320
 1.1890	46.4300
 1.1900	46.4300
 1.1910	46.4340
 1.1920	46.4350
 1.1930	46.4350
 1.1940	46.4370
 1.1950	46.4370
 1.1960	46.4360
 1.1970	46.4400
 1.1980	46.4450
 1.1990	46.4510
 1.2000	46.4550
 1.2010	46.4560
 1.2020	46.4590
 1.2030	46.4630
 1.2040	46.4650
 1.2050	46.4680
 1.2060	46.4730
 1.2070	46.4740
 1.2080	46.4770
 1.2090	46.4870
 1.2100	46.4960
 1.2110	46.5060
 1.2120	46.5210
 1.2130	46.5310
 1.2140	46.5390
 1.2150	46.5460
 1.2160	46.5530
 1.2170	46.5560
 1.2180	46.5630
 1.2190	46.5700
 1.2200	46.5780
 1.2210	46.5910
 1.2220	46.5990
 1.2230	46.6100
 1.2240	46.6220
 1.2250	46.6310
 1.2260	46.6440
 1.2270	46.6570
 1.2280	46.6710
 1.2290	46.6830
 1.2300	46.6910
 1.2310	46.7020
 1.2320	46.7100
 1.2330	46.7140
 1.2340	46.7210
 1.2350	46.7280
 1.2360	46.7350
 1.2370	46.7420
 1.2380	46.7490
 1.2390	46.7600
 1.2400	46.7710
 1.2410	46.7790
 1.2420	46.7870
 1.2430	46.7930
 1.2440	46.7980
 1.2450	46.7990
 1.2460	46.7980
 1.2470	46.7970
 1.2480	46.7950
 1.2490	46.7980
 1.2500	46.8070
 1.2510	46.8160
 1.2520	46.8200
 1.2530	46.8210
 1.2540	46.8230
 1.2550	46.8250
 1.2560	46.8280
 1.2570	46.8360
 1.2580	46.8340
 1.2590	46.8350
 1.2600	46.8370
 1.2610	46.8370
 1.2620	46.8350
 1.2630	46.8400
 1.2640	46.8410
 1.2650	46.8380
 1.2660	46.8440
 1.2670	46.8490
 1.2680	46.8530
 1.2690	46.8600
 1.2700	46.8590
 1.2710	46.8560
 1.2720	46.8560
 1.2730	46.8550
 1.2740	46.8580
 1.2750	46.8590
 1.2760	46.8590
 1.2770	46.8600
 1.2780	46.8580
 1.2790	46.8590
 1.2800	46.8610
 1.2810	46.8580
 1.2820	46.8570
 1.2830	46.8500
 1.2840	46.8430
 1.2850	46.8390
 1.2860	46.8340
 1.2870	46.8270
 1.2880	46.8190
 1.2890	46.8070
 1.2900	46.7950
 1.2910	46.7840
 1.2920	46.7750
 1.2930	46.7670
 1.2940	46.7550
 1.2950	46.7400
 1.2960	46.7250
 1.2970	46.7120
 1.2980	46.6990
 1.2990	46.6790
 1.3000	46.6550
 1.3010	46.6320
 1.3020	46.6120
 1.3030	46.5880
 1.3040	46.5640
 1.3050	46.5370
 1.3060	46.5110
 1.3070	46.4850
 1.3080	46.4540
 1.3090	46.4250
 1.3100	46.3940
 1.3110	46.3570
 1.3120	46.3210
 1.3130	46.2880
 1.3140	46.2500
 1.3150	46.2100
 1.3160	46.1690
 1.3170	46.1280
 1.3180	46.0800
 1.3190	46.0300
 1.3200	45.9850
 1.3210	45.9390
 1.3220	45.8950
 1.3230	45.8490
 1.3240	45.8010
 1.3250	45.7510
 1.3260	45.6980
 1.3270	45.6450
 1.3280	45.5890
 1.3290	45.5360
 1.3300	45.4820
 1.3310	45.4280
 1.3320	45.3730
 1.3330	45.3150
 1.3340	45.2550
 1.3350	45.1990
 1.3360	45.1410
 1.3370	45.0790
 1.3380	45.0190
 1.3390	44.9580
 1.3400	44.8990
 1.3410	44.8470
 1.3420	44.7920
 1.3430	44.7350
 1.3440	44.6800
 1.3450	44.6210
 1.3460	44.5580
 1.3470	44.4990
 1.3480	44.4430
 1.3490	44.3830
 1.3500	44.3220
 1.3510	44.2630
 1.3520	44.2030
 1.3530	44.1420
 1.3540	44.0860
 1.3550	44.0290
 1.3560	43.9700
 1.3570	43.9130
 1.3580	43.8540
 1.3590	43.7970
 1.3600	43.7350
 1.3610	43.6690
 1.3620	43.5990
 1.3630	43.5260
 1.3640	43.4530
 1.3650	43.3790
 1.3660	43.3020
 1.3670	43.2180
 1.3680	43.1270
 1.3690	43.0290
 1.3700	42.9220
 1.3710	42.8120
 1.3720	42.6930
 1.3730	42.5630
 1.3740	42.4280
 1.3750	42.2810
 1.3760	42.1210
 1.3770	41.9510
 1.3780	41.7610
 1.3790	41.5580
 1.3800	41.3400
 1.3810	41.1010
 1.3820	40.8500
 1.3830	40.5860
 1.3840	40.3060
 1.3850	40.0120
 1.3860	39.7030
 1.3870	39.3780
 1.3880	39.0430
 1.3890	38.6950
 1.3900	38.3300
 1.3910	37.9640
 1.3920	37.5870
 1.3930	37.2000
 1.3940	36.8140
 1.3950	36.4200
 1.3960	36.0240
 1.3970	35.6300
 1.3980	35.2360
 1.3990	34.8490
 1.4000	34.4690
 1.4010	34.0940
 1.4020	33.7280
 1.4030	33.3700
 1.4040	33.0220
 1.4050	32.6900
 1.4060	32.3740
 1.4070	32.0750
 1.4080	31.7900
 1.4090	31.5190
 1.4100	31.2640
 1.4110	31.0220
 1.4120	30.7950
 1.4130	30.5860
 1.4140	30.3910
 1.4150	30.2120
 1.4160	30.0470
 1.4170	29.8920
 1.4180	29.7520
 1.4190	29.6220
 1.4200	29.5030
 1.4210	29.3940
 1.4220	29.2930
 1.4230	29.2040
 1.4240	29.1250
 1.4250	29.0540
 1.4260	28.9960
 1.4270	28.9430
 1.4280	28.8960
 1.4290	28.8560
 1.4300	28.8220
 1.4310	28.7930
 1.4320	28.7700
 1.4330	28.7520
 1.4340	28.7390
 1.4350	28.7310
 1.4360	28.7270
 1.4370	28.7290
 1.4380	28.7350
 1.4390	28.7420
 1.4400	28.7520
 1.4410	28.7630
 1.4420	28.7770
 1.4430	28.7940
 1.4440	28.8130
 1.4450	28.8340
 1.4460	28.8560
 1.4470	28.8790
 1.4480	28.9020
 1.4490	28.9270
 1.4500	28.9540
 1.4510	28.9820
 1.4520	29.0120
 1.4530	29.0430
 1.4540	29.0750
 1.4550	29.1090
 1.4560	29.1450
 1.4570	29.1840
 1.4580	29.2250
 1.4590	29.2710
 1.4600	29.3220
 1.4610	29.3750
 1.4620	29.4330
 1.4630	29.4970
 1.4640	29.5640
 1.4650	29.6360
 1.4660	29.7150
 1.4670	29.7990
 1.4680	29.8850
 1.4690	29.9760
 1.4700	30.0670
 1.4710	30.1580
 1.4720	30.2570
 1.4730	30.3600
 1.4740	30.4650
 1.4750	30.5720
 1.4760	30.6810
 1.4770	30.7890
 1.4780	30.9000
 1.4790	31.0180
 1.4800	31.1340
 1.4810	31.2510
 1.4820	31.3700
 1.4830	31.4860
 1.4840	31.6050
 1.4850	31.7220
 1.4860	31.8380
 1.4870	31.9560
 1.4880	32.0700
 1.4890	32.1850
 1.4900	32.2990
 1.4910	32.4120
 1.4920	32.5280
 1.4930	32.6470
 1.4940	32.7630
 1.4950	32.8830
 1.4960	32.9990
 1.4970	33.1080
 1.4980	33.2210
 1.4990	33.3330
 1.5000	33.4440
 1.5010	33.5570
 1.5020	33.6660
 1.5030	33.7750
 1.5040	33.8820
 1.5050	33.9860
 1.5060	34.0930
 1.5070	34.2000
 1.5080	34.3050
 1.5090	34.4100
 1.5100	34.5130
 1.5110	34.6150
 1.5120	34.7150
 1.5130	34.8140
 1.5140	34.9150
 1.5150	35.0140
 1.5160	35.1100
 1.5170	35.2060
 1.5180	35.2970
 1.5190	35.3900
 1.5200	35.4820
 1.5210	35.5710
 1.5220	35.6610
 1.5230	35.7500
 1.5240	35.8350
 1.5250	35.9230
 1.5260	36.0100
 1.5270	36.0950
 1.5280	36.1770
 1.5290	36.2570
 1.5300	36.3370
 1.5310	36.4120
 1.5320	36.4880
 1.5330	36.5670
 1.5340	36.6420
 1.5350	36.7170
 1.5360	36.7930
 1.5370	36.8630
 1.5380	36.9330
 1.5390	37.0040
 1.5400	37.0750
 1.5410	37.1470
 1.5420	37.2190
 1.5430	37.2900
 1.5440	37.3580
 1.5450	37.4250
 1.5460	37.4910
 1.5470	37.5590
 1.5480	37.6250
 1.5490	37.6910
 1.5500	37.7560
 1.5510	37.8170
 1.5520	37.8770
 1.5530	37.9380
 1.5540	37.9980
 1.5550	38.0560
 1.5560	38.1150
 1.5570	38.1710
 1.5580	38.2260
 1.5590	38.2830
 1.5600	38.3350
 1.5610	38.3870
 1.5620	38.4360
 1.5630	38.4840
 1.5640	38.5360
 1.5650	38.5880
 1.5660	38.6380
 1.5670	38.6870
 1.5680	38.7320
 1.5690	38.7730
 1.5700	38.8180
 1.5710	38.8620
 1.5720	38.9040
 1.5730	38.9490
 1.5740	38.9940
 1.5750	39.0370
 1.5760	39.0780
 1.5770	39.1190
 1.5780	39.1610
 1.5790	39.2020
 1.5800	39.2460
 1.5810	39.2910
 1.5820	39.3330
 1.5830	39.3720
 1.5840	39.4140
 1.5850	39.4560
 1.5860	39.4940
 1.5870	39.5360
 1.5880	39.5780
 1.5890	39.6160
 1.5900	39.6570
 1.5910	39.6960
 1.5920	39.7310
 1.5930	39.7620
 1.5940	39.7930
 1.5950	39.8230
 1.5960	39.8550
 1.5970	39.8860
 1.5980	39.9160
 1.5990	39.9490
 1.6000	39.9820
 1.6010	40.0160
 1.6020	40.0500
 1.6030	40.0840
 1.6040	40.1150
 1.6050	40.1450
 1.6060	40.1740
 1.6070	40.2020
 1.6080	40.2300
 1.6090	40.2560
 1.6100	40.2820
 1.6110	40.3090
 1.6120	40.3360
 1.6130	40.3590
 1.6140	40.3820
 1.6150	40.4050
 1.6160	40.4260
 1.6170	40.4500
 1.6180	40.4750
 1.6190	40.4990
 1.6200	40.5190
 1.6210	40.5380
 1.6220	40.5590
 1.6230	40.5800
 1.6240	40.5990
 1.6250	40.6230
 1.6260	40.6480
 1.6270	40.6680
 1.6280	40.6920
 1.6290	40.7130
 1.6300	40.7330
 1.6310	40.7490
 1.6320	40.7600
 1.6330	40.7730
 1.6340	40.7830
 1.6350	40.7920
 1.6360	40.8030
 1.6370	40.8150
 1.6380	40.8220
 1.6390	40.8360
 1.6400	40.8550
 1.6410	40.8690
 1.6420	40.8840
 1.6430	40.8950
 1.6440	40.9000
 1.6450	40.9100
 1.6460	40.9170
 1.6470	40.9280
 1.6480	40.9380
 1.6490	40.9410
 1.6500	40.9460
 1.6510	40.9440
 1.6520	40.9420
 1.6530	40.9440
 1.6540	40.9420
 1.6550	40.9390
 1.6560	40.9370
 1.6570	40.9320
 1.6580	40.9250
 1.6590	40.9170
 1.6600	40.9120
 1.6610	40.9060
 1.6620	40.9020
 1.6630	40.9030
 1.6640	40.9010
 1.6650	40.9000
 1.6660	40.8980
 1.6670	40.8900
 1.6680	40.8850
 1.6690	40.8770
 1.6700	40.8700
 1.6710	40.8680
 1.6720	40.8610
 1.6730	40.8490
 1.6740	40.8340
 1.6750	40.8220
 1.6760	40.8110
 1.6770	40.7990
 1.6780	40.7860
 1.6790	40.7670
 1.6800	40.7450
 1.6810	40.7260
 1.6820	40.7100
 1.6830	40.6930
 1.6840	40.6690
 1.6850	40.6460
 1.6860	40.6210
 1.6870	40.5910
 1.6880	40.5660
 1.6890	40.5450
 1.6900	40.5220
 1.6910	40.5030
 1.6920	40.4820
 1.6930	40.4580
 1.6940	40.4360
 1.6950	40.4140
 1.6960	40.3920
 1.6970	40.3730
 1.6980	40.3480
 1.6990	40.3200
 1.7000	40.2930
 1.7010	40.2620
 1.7020	40.2350
 1.7030	40.2120
 1.7040	40.1830
 1.7050	40.1520
 1.7060	40.1200
 1.7070	40.0850
 1.7080	40.0540
 1.7090	40.0250
 1.7100	39.9940
 1.7110	39.9650
 1.7120	39.9320
 1.7130	39.9050
 1.7140	39.8760
 1.7150	39.8480
 1.7160	39.8230
 1.7170	39.7910
 1.7180	39.7590
 1.7190	39.7300
 1.7200	39.6920
 1.7210	39.6570
 1.7220	39.6250
 1.7230	39.5880
 1.7240	39.5580
 1.7250	39.5310
 1.7260	39.4980
 1.7270	39.4660
 1.7280	39.4340
 1.7290	39.4030
 1.7300	39.3750
 1.7310	39.3450
 1.7320	39.3120
 1.7330	39.2810
 1.7340	39.2480
 1.7350	39.2180
 1.7360	39.1890
 1.7370	39.1580
 1.7380	39.1280
 1.7390	39.0990
 1.7400	39.0680
 1.7410	39.0360
 1.7420	39.0030
 1.7430	38.9730
 1.7440	38.9470
 1.7450	38.9140
 1.7460	38.8820
 1.7470	38.8450
 1.7480	38.8010
 1.7490	38.7590
 1.7500	38.7180
 1.7510	38.6750
 1.7520	38.6290
 1.7530	38.5850
 1.7540	38.5410
 1.7550	38.4990
 1.7560	38.4520
 1.7570	38.4020
 1.7580	38.3540
 1.7590	38.3050
 1.7600	38.2570
 1.7610	38.2150
 1.7620	38.1700
 1.7630	38.1210
 1.7640	38.0780
 1.7650	38.0360
 1.7660	37.9980
 1.7670	37.9670
 1.7680	37.9370
 1.7690	37.9140
 1.7700	37.8880
 1.7710	37.8630
 1.7720	37.8390
 1.7730	37.8140
 1.7740	37.7890
 1.7750	37.7660
 1.7760	37.7410
 1.7770	37.7130
 1.7780	37.6870
 1.7790	37.6630
 1.7800	37.6360
 1.7810	37.6040
 1.7820	37.5830
 1.7830	37.5630
 1.7840	37.5470
 1.7850	37.5390
 1.7860	37.5260
 1.7870	37.5100
 1.7880	37.4960
 1.7890	37.4830
 1.7900	37.4770
 1.7910	37.4670
 1.7920	37.4560
 1.7930	37.4450
 1.7940	37.4290
 1.7950	37.4180
 1.7960	37.4140
 1.7970	37.4080
 1.7980	37.4040
 1.7990	37.4000
 1.8000	37.3960
 1.8010	37.3960
 1.8020	37.4000
 1.8030	37.4020
 1.8040	37.4070
 1.8050	37.4070
 1.8060	37.4040
 1.8070	37.4010
 1.8080	37.3970
 1.8090	37.3950
 1.8100	37.3920
 1.8110	37.3950
 1.8120	37.3990
 1.8130	37.3930
 1.8140	37.3840
 1.8150	37.3780
 1.8160	37.3660
 1.8170	37.3560
 1.8180	37.3540
 1.8190	37.3420
 1.8200	37.3330
 1.8210	37.3280
 1.8220	37.3230
 1.8230	37.3230
 1.8240	37.3160
 1.8250	37.3080
 1.8260	37.3000
 1.8270	37.2450
 1.8280	37.1910
 1.8290	37.1360
 1.8300	37.0810
 1.8310	37.0260
 1.8320	36.9710
 1.8330	36.9170
 1.8340	36.8620
 1.8350	36.8620
 1.8360	36.8320
 1.8370	36.7880
 1.8380	36.7470
 1.8390	36.7020
 1.8400	36.6580
 1.8410	36.6030
 1.8420	36.5440
 1.8430	36.4780
 1.8440	36.4080
 1.8450	36.3300
 1.8460	36.2480
 1.8470	36.1710
 1.8480	36.0850
 1.8490	35.9870
 1.8500	35.8820
 1.8510	35.7740
 1.8520	35.6510
 1.8530	35.5170
 1.8540	35.3770
 1.8550	35.2210
 1.8560	35.0540
 1.8570	34.8740
 1.8580	34.6800
 1.8590	34.4760
 1.8600	34.2600
 1.8610	34.0340
 1.8620	33.7920
 1.8630	33.5340
 1.8640	33.2580
 1.8650	32.9560
 1.8660	32.6300
 1.8670	32.2850
 1.8680	31.9210
 1.8690	31.5370
 1.8700	31.1270
 1.8710	30.6950
 1.8720	30.2460
 1.8730	29.7790
 1.8740	29.2860
 1.8750	28.7740
 1.8760	28.2410
 1.8770	27.6980
 1.8780	27.1500
 1.8790	26.5930
 1.8800	26.0280
 1.8810	25.4580
 1.8820	24.8680
 1.8830	24.2690
 1.8840	23.6650
 1.8850	23.0560
 1.8860	22.4520
 1.8870	21.8510
 1.8880	21.2540
 1.8890	20.6750
 1.8900	20.1010
 1.8910	19.5470
 1.8920	19.0010
 1.8930	18.4840
 1.8940	17.9820
 1.8950	17.5110
 1.8960	17.0720
 1.8970	16.6500
 1.8980	16.2590
 1.8990	15.8940
 1.9000	15.5500
 1.9010	15.2300
 1.9020	14.9370
 1.9030	14.6700
 1.9040	14.4280
 1.9050	14.2140
 1.9060	14.0210
 1.9070	13.8500
 1.9080	13.6950
 1.9090	13.5570
 1.9100	13.4330
 1.9110	13.3200
 1.9120	13.2190
 1.9130	13.1300
 1.9140	13.0530
 1.9150	12.9880
 1.9160	12.9360
 1.9170	12.8930
 1.9180	12.8540
 1.9190	12.8220
 1.9200	12.8000
 1.9210	12.7820
 1.9220	12.7690
 1.9230	12.7630
 1.9240	12.7630
 1.9250	12.7680
 1.9260	12.7780
 1.9270	12.7940
 1.9280	12.8130
 1.9290	12.8290
 1.9300	12.8460
 1.9310	12.8740
 1.9320	12.9070
 1.9330	12.9400
 1.9340	12.9770
 1.9350	13.0210
 1.9360	13.0630
 1.9370	13.1110
 1.9380	13.1670
 1.9390	13.2270
 1.9400	13.2830
 1.9410	13.3450
 1.9420	13.4110
 1.9430	13.4780
 1.9440	13.5460
 1.9450	13.6160
 1.9460	13.6880
 1.9470	13.7600
 1.9480	13.8350
 1.9490	13.9120
 1.9500	13.9950
 1.9510	14.0770
 1.9520	14.1590
 1.9530	14.2480
 1.9540	14.3350
 1.9550	14.4240
 1.9560	14.5190
 1.9570	14.6110
 1.9580	14.7020
 1.9590	14.7970
 1.9600	14.8920
 1.9610	14.9890
 1.9620	15.0890
 1.9630	15.1880
 1.9640	15.2910
 1.9650	15.3950
 1.9660	15.4990
 1.9670	15.6020
 1.9680	15.7060
 1.9690	15.8050
 1.9700	15.9090
 1.9710	16.0130
 1.9720	16.1190
 1.9730	16.2250
 1.9740	16.3330
 1.9750	16.4430
 1.9760	16.5510
 1.9770	16.6620
 1.9780	16.7750
 1.9790	16.8870
 1.9800	16.9980
 1.9810	17.1120
 1.9820	17.2270
 1.9830	17.3420
 1.9840	17.4560
 1.9850	17.5730
 1.9860	17.6900
 1.9870	17.8120
 1.9880	17.9330
 1.9890	18.0550
 1.9900	18.1730
 1.9910	18.2860
 1.9920	18.4030
 1.9930	18.5200
 1.9940	18.6380
 1.9950	18.7570
 1.9960	18.8780
 1.9970	19.0000
 1.9980	19.1190
 1.9990	19.2410
 2.0000	19.3580
 2.0010	19.4690
 2.0020	19.5890
 2.0030	19.7050
 2.0040	19.8190
 2.0050	19.9300
 2.0060	20.0380
 2.0070	20.1470
 2.0080	20.2530
 2.0090	20.3620
 2.0100	20.4730
 2.0110	20.5810
 2.0120	20.6900
 2.0130	20.7930
 2.0140	20.8930
 2.0150	20.9910
 2.0160	21.0880
 2.0170	21.1880
 2.0180	21.2860
 2.0190	21.3860
 2.0200	21.4800
 2.0210	21.5720
 2.0220	21.6610
 2.0230	21.7430
 2.0240	21.8310
 2.0250	21.9190
 2.0260	22.0060
 2.0270	22.0970
 2.0280	22.1850
 2.0290	22.2710
 2.0300	22.3550
 2.0310	22.4380
 2.0320	22.5230
 2.0330	22.6010
 2.0340	22.6740
 2.0350	22.7470
 2.0360	22.8160
 2.0370	22.8850
 2.0380	22.9550
 2.0390	23.0250
 2.0400	23.0950
 2.0410	23.1610
 2.0420	23.2270
 2.0430	23.2900
 2.0440	23.3560
 2.0450	23.4200
 2.0460	23.4850
 2.0470	23.5550
 2.0480	23.6200
 2.0490	23.6820
 2.0500	23.7420
 2.0510	23.7990
 2.0520	23.8590
 2.0530	23.9190
 2.0540	23.9810
 2.0550	24.0480
 2.0560	24.1130
 2.0570	24.1830
 2.0580	24.2410
 2.0590	24.3030
 2.0600	24.3610
 2.0610	24.4240
 2.0620	24.4880
 2.0630	24.5530
 2.0640	24.6220
 2.0650	24.6850
 2.0660	24.7400
 2.0670	24.8020
 2.0680	24.8640
 2.0690	24.9290
 2.0700	25.0020
 2.0710	25.0710
 2.0720	25.1400
 2.0730	25.2020
 2.0740	25.2680
 2.0750	25.3370
 2.0760	25.3970
 2.0770	25.4550
 2.0780	25.5130
 2.0790	25.5620
 2.0800	25.6160
 2.0810	25.6750
 2.0820	25.7330
 2.0830	25.7950
 2.0840	25.8510
 2.0850	25.9060
 2.0860	25.9600
 2.0870	26.0080
 2.0880	26.0560
 2.0890	26.1080
 2.0900	26.1620
 2.0910	26.2140
 2.0920	26.2670
 2.0930	26.3190
 2.0940	26.3700
 2.0950	26.4220
 2.0960	26.4740
 2.0970	26.5270
 2.0980	26.5810
 2.0990	26.6330
 2.1000	26.6840
 2.1010	26.7360
 2.1020	26.7900
 2.1030	26.8420
 2.1040	26.8910
 2.1050	26.9450
 2.1060	26.9950
 2.1070	27.0430
 2.1080	27.0910
 2.1090	27.1400
 2.1100	27.1920
 2.1110	27.2470
 2.1120	27.2980
 2.1130	27.3500
 2.1140	27.4020
 2.1150	27.4480
 2.1160	27.4970
 2.1170	27.5540
 2.1180	27.6020
 2.1190	27.6430
 2.1200	27.6860
 2.1210	27.7270
 2.1220	27.7620
 2.1230	27.8020
 2.1240	27.8450
 2.1250	27.8840
 2.1260	27.9260
 2.1270	27.9580
 2.1280	27.9830
 2.1290	28.0130
 2.1300	28.0420
 2.1310	28.0720
 2.1320	28.1080
 2.1330	28.1370
 2.1340	28.1640
 2.1350	28.1890
 2.1360	28.2150
 2.1370	28.2360
 2.1380	28.2450
 2.1390	28.2650
 2.1400	28.2870
 2.1410	28.3090
 2.1420	28.3360
 2.1430	28.3760
 2.1440	28.4000
 2.1450	28.4170
 2.1460	28.4380
 2.1470	28.4530
 2.1480	28.4740
 2.1490	28.5010
 2.1500	28.5230
 2.1510	28.5490
 2.1520	28.5660
 2.1530	28.5750
 2.1540	28.5910
 2.1550	28.6070
 2.1560	28.6200
 2.1570	28.6340
 2.1580	28.6480
 2.1590	28.6560
 2.1600	28.6700
 2.1610	28.6850
 2.1620	28.6960
 2.1630	28.6990
 2.1640	28.6910
 2.1650	28.6970
 2.1660	28.7060
 2.1670	28.7110
 2.1680	28.7240
 2.1690	28.7310
 2.1700	28.7240
 2.1710	28.7360
 2.1720	28.7620
 2.1730	28.7790
 2.1740	28.7990
 2.1750	28.8180
 2.1760	28.8290
 2.1770	28.8450
 2.1780	28.8680
 2.1790	28.8880
 2.1800	28.9070
 2.1810	28.9240
 2.1820	28.9370
 2.1830	28.9530
 2.1840	28.9690
 2.1850	28.9850
 2.1860	28.9960
 2.1870	29.0100
 2.1880	29.0160
 2.1890	29.0140
 2.1900	29.0200
 2.1910	29.0230
 2.1920	29.0320
 2.1930	29.0460
 2.1940	29.0590
 2.1950	29.0760
 2.1960	29.0890
 2.1970	29.1010
 2.1980	29.1110
 2.1990	29.1140
 2.2000	29.1230
 2.2010	29.1330
 2.2020	29.1470
 2.2030	29.1730
 2.2040	29.1910
 2.2050	29.2120
 2.2060	29.2260
 2.2070	29.2380
 2.2080	29.2430
 2.2090	29.2520
 2.2100	29.2640
 2.2110	29.2660
 2.2120	29.2630
 2.2130	29.2640
 2.2140	29.2620
 2.2150	29.2590
 2.2160	29.2600
 2.2170	29.2570
 2.2180	29.2420
 2.2190	29.2410
 2.2200	29.2510
 2.2210	29.2510
 2.2220	29.2570
 2.2230	29.2550
 2.2240	29.2410
 2.2250	29.2300
 2.2260	29.2220
 2.2270	29.2080
 2.2280	29.1930
 2.2290	29.1730
 2.2300	29.1420
 2.2310	29.1150
 2.2320	29.0900
 2.2330	29.0680
 2.2340	29.0420
 2.2350	29.0210
 2.2360	28.9890
 2.2370	28.9500
 2.2380	28.9080
 2.2390	28.8590
 2.2400	28.8170
 2.2410	28.7740
 2.2420	28.7330
 2.2430	28.7000
 2.2440	28.6570
 2.2450	28.6120
 2.2460	28.5580
 2.2470	28.4910
 2.2480	28.4320
 2.2490	28.3680
 2.2500	28.3080
 2.2510	28.2600
 2.2520	28.1990
 2.2530	28.1290
 2.2540	28.0640
 2.2550	27.9910
 2.2560	27.9230
 2.2570	27.8590
 2.2580	27.8000
 2.2590	27.7480
 2.2600	27.6910
 2.2610	27.6340
 2.2620	27.5770
 2.2630	27.5070
 2.2640	27.4330
 2.2650	27.3670
 2.2660	27.3030
 2.2670	27.2410
 2.2680	27.1860
 2.2690	27.1260
 2.2700	27.0610
 2.2710	26.9990
 2.2720	26.9370
 2.2730	26.8750
 2.2740	26.8130
 2.2750	26.7530
 2.2760	26.6910
 2.2770	26.6360
 2.2780	26.5820
 2.2790	26.5350
 2.2800	26.4990
 2.2810	26.4570
 2.2820	26.4210
 2.2830	26.3780
 2.2840	26.3310
 2.2850	26.2800
 2.2860	26.2210
 2.2870	26.1680
 2.2880	26.1150
 2.2890	26.0610
 2.2900	26.0070
 2.2910	25.9600
 2.2920	25.9220
 2.2930	25.8710
 2.2940	25.8200
 2.2950	25.7650
 2.2960	25.6940
 2.2970	25.6300
 2.2980	25.5670
 2.2990	25.5130
 2.3000	25.4430
 2.3010	25.3740
 2.3020	25.3110
 2.3030	25.2590
 2.3040	25.2260
 2.3050	25.1880
 2.3060	25.1410
 2.3070	25.0880
 2.3080	25.0420
 2.3090	24.9980
 2.3100	24.9600
 2.3110	24.9310
 2.3120	24.8990
 2.3130	24.8670
 2.3140	24.8340
 2.3150	24.7980
 2.3160	24.7760
 2.3170	24.7620
 2.3180	24.7390
 2.3190	24.7230
 2.3200	24.7040
 2.3210	24.6790
 2.3220	24.6510
 2.3230	24.6300
 2.3240	24.6040
 2.3250	24.5670
 2.3260	24.5280
 2.3270	24.4940
 2.3280	24.4430
 2.3290	24.3730
 2.3300	24.3140
 2.3310	24.2450
 2.3320	24.1930
 2.3330	24.1570
 2.3340	24.1140
 2.3350	24.0830
 2.3360	24.0290
 2.3370	23.9490
 2.3380	23.8910
 2.3390	23.8350
 2.3400	23.7790
 2.3410	23.7430
 2.3420	23.6870
 2.3430	23.6050
 2.3440	23.5440
 2.3450	23.4900
 2.3460	23.4370
 2.3470	23.3950
 2.3480	23.3500
 2.3490	23.3070
 2.3500	23.2560
 2.3510	23.2000
 2.3520	23.1530
 2.3530	23.1000
 2.3540	23.0600
 2.3550	23.0290
 2.3560	22.9890
 2.3570	22.9510
 2.3580	22.9020
 2.3590	22.8560
 2.3600	22.8220
 2.3610	22.7830
 2.3620	22.7420
 2.3630	22.6800
 2.3640	22.6170
 2.3650	22.5690
 2.3660	22.5070
 2.3670	22.4660
 2.3680	22.4160
 2.3690	22.3410
 2.3700	22.2810
 2.3710	22.2240
 2.3720	22.1840
 2.3730	22.1640
 2.3740	22.1260
 2.3750	22.0860
 2.3760	22.0400
 2.3770	21.9610
 2.3780	21.8960
 2.3790	21.8220
 2.3800	21.7360
 2.3810	21.6990
 2.3820	21.6490
 2.3830	21.6020
 2.3840	21.5740
 2.3850	21.5070
 2.3860	21.4440
 2.3870	21.3990
 2.3880	21.3450
 2.3890	21.2740
 2.3900	21.2220
 2.3910	21.1750
 2.3920	21.0890
 2.3930	21.0370
 2.3940	20.9870
 2.3950	20.8780
 2.3960	20.8130
 2.3970	20.7540
 2.3980	20.6530
 2.3990	20.6010
 2.4000	20.5450
 2.4010	20.4860
 2.4020	20.4620
 2.4030	20.4000
 2.4040	20.3390
 2.4050	20.2780
 2.4060	20.1840
 2.4070	20.1160
 2.4080	20.0520
 2.4090	19.9600
 2.4100	19.8900
 2.4110	19.8260
 2.4120	19.7610
 2.4130	19.7240
 2.4140	19.6640
 2.4150	19.6020
 2.4160	19.5220
 2.4170	19.4260
 2.4180	19.3640
 2.4190	19.2750
 2.4200	19.1900
 2.4210	19.1170
 2.4220	19.0160
 2.4230	18.9410
 2.4240	18.8960
 2.4250	18.8140
 2.4260	18.7390
 2.4270	18.6780
 2.4280	18.5950
 2.4290	18.5530
 2.4300	18.5250
 2.4310	18.4530
 2.4320	18.3590
 2.4330	18.2600
 2.4340	18.1590
 2.4350	18.0680
 2.4360	17.9760
 2.4370	17.9080
 2.4380	17.8340
 2.4390	17.7570
 2.4400	17.7260
 2.4410	17.6360
 2.4420	17.5470
 2.4430	17.5150
 2.4440	17.4280
 2.4450	17.3540
 2.4460	17.2930
 2.4470	17.1730
 2.4480	17.0710
 2.4490	16.9980
 2.4500	16.9270
 2.4510	16.8550
 2.4520	16.7940
 2.4530	16.7450
 2.4540	16.6760
 2.4550	16.6090
 2.4560	16.5420
 2.4570	16.4400
 2.4580	16.3590
 2.4590	16.2930
 2.4600	16.2010
 2.4610	16.1520
 2.4620	16.0990
 2.4630	16.0280
 2.4640	15.9720
 2.4650	15.9110
 2.4660	15.8550
 2.4670	15.7460
 2.4680	15.6800
 2.4690	15.5470
 2.4700	15.4820
 2.4710	15.5200
 2.4720	15.4870
 2.4730	15.4730
 2.4740	15.4530
 2.4750	15.3780
 2.4760	15.3130
 2.4770	15.2600
 2.4780	15.2140
 2.4790	15.1580
 2.4800	15.0980
 2.4810	15.0420
 2.4820	14.9770
 2.4830	14.9270
 2.4840	14.9240
 2.4850	14.8780
 2.4860	14.8450
 2.4870	14.8450
 2.4880	14.7820
 2.4890	14.7560
 2.4900	14.6890
 2.4910	14.5940
 2.4920	14.6190
 2.4930	14.6130
 2.4940	14.6120
 2.4950	14.6550
 2.4960	14.6240
 2.4970	14.6690
 2.4980	14.7790
 2.4990	14.7760
 2.5000	14.8040
