Name: Quercus suber
Type: vegetation
Class: Tree
Genus: Quercus
Species: suber
Sample No.: JPL248
Owner: JPL
Wavelength Range: VSWIR
Origin: 34.12798; -118.11368; WGS84
Collection Date: 10/6/2016
Description: Samples were collected at the Huntington Garden in San Marino California as part of a JPL Subcontract studying HyTES imagery. Samples were taken to JPL and processed within 48 hours of collection. The same leaves were processed in the Nicolet and then measured using the ASD.
Measurement: Bidirectional reflectance
First Column: X
Second Column: Y
X Units: Wavelength (micrometer)
Y Units: Reflectance (percentage)
First X Value: 0.35
Last X Value: 2.5
Number of X Values: 2151
Additional Information: vegetation.tree.quercus.suber.vswir.jpl248.jpl.asd.ancillary.txt

 0.3500	 7.6170
 0.3510	 7.4260
 0.3520	 7.2650
 0.3530	 7.2080
 0.3540	 7.2470
 0.3550	 7.2100
 0.3560	 7.1920
 0.3570	 7.2070
 0.3580	 7.2200
 0.3590	 7.2490
 0.3600	 7.2390
 0.3610	 7.1810
 0.3620	 7.1330
 0.3630	 7.1210
 0.3640	 7.1310
 0.3650	 7.1380
 0.3660	 7.1470
 0.3670	 7.0910
 0.3680	 7.0360
 0.3690	 7.1120
 0.3700	 7.1080
 0.3710	 7.0730
 0.3720	 7.0590
 0.3730	 7.0570
 0.3740	 7.0390
 0.3750	 7.0000
 0.3760	 6.9550
 0.3770	 6.9900
 0.3780	 6.9930
 0.3790	 6.9800
 0.3800	 7.0630
 0.3810	 7.0820
 0.3820	 7.0450
 0.3830	 6.9970
 0.3840	 7.0100
 0.3850	 6.9580
 0.3860	 6.9170
 0.3870	 6.9970
 0.3880	 7.0360
 0.3890	 7.0280
 0.3900	 6.9930
 0.3910	 6.9640
 0.3920	 6.9430
 0.3930	 6.9450
 0.3940	 6.9720
 0.3950	 7.0090
 0.3960	 7.0160
 0.3970	 6.9980
 0.3980	 6.9870
 0.3990	 7.0160
 0.4000	 7.0360
 0.4010	 7.0320
 0.4020	 7.0360
 0.4030	 7.0490
 0.4040	 7.0610
 0.4050	 7.0700
 0.4060	 7.0870
 0.4070	 7.1040
 0.4080	 7.1160
 0.4090	 7.1210
 0.4100	 7.1330
 0.4110	 7.1490
 0.4120	 7.1680
 0.4130	 7.1860
 0.4140	 7.2040
 0.4150	 7.2230
 0.4160	 7.2430
 0.4170	 7.2640
 0.4180	 7.2820
 0.4190	 7.2990
 0.4200	 7.3180
 0.4210	 7.3230
 0.4220	 7.3290
 0.4230	 7.3440
 0.4240	 7.3500
 0.4250	 7.3630
 0.4260	 7.3760
 0.4270	 7.3750
 0.4280	 7.3890
 0.4290	 7.3990
 0.4300	 7.3970
 0.4310	 7.3970
 0.4320	 7.3870
 0.4330	 7.3810
 0.4340	 7.3910
 0.4350	 7.3890
 0.4360	 7.3890
 0.4370	 7.3950
 0.4380	 7.4030
 0.4390	 7.4210
 0.4400	 7.4410
 0.4410	 7.4560
 0.4420	 7.4710
 0.4430	 7.4750
 0.4440	 7.4740
 0.4450	 7.4810
 0.4460	 7.4940
 0.4470	 7.5070
 0.4480	 7.5140
 0.4490	 7.5150
 0.4500	 7.5220
 0.4510	 7.5330
 0.4520	 7.5410
 0.4530	 7.5480
 0.4540	 7.5500
 0.4550	 7.5540
 0.4560	 7.5700
 0.4570	 7.5770
 0.4580	 7.5780
 0.4590	 7.5750
 0.4600	 7.5780
 0.4610	 7.5790
 0.4620	 7.5790
 0.4630	 7.5810
 0.4640	 7.5870
 0.4650	 7.5870
 0.4660	 7.5820
 0.4670	 7.5840
 0.4680	 7.5850
 0.4690	 7.5850
 0.4700	 7.5830
 0.4710	 7.5840
 0.4720	 7.5910
 0.4730	 7.5960
 0.4740	 7.5900
 0.4750	 7.5920
 0.4760	 7.6000
 0.4770	 7.6060
 0.4780	 7.6030
 0.4790	 7.6000
 0.4800	 7.6000
 0.4810	 7.5980
 0.4820	 7.5970
 0.4830	 7.6020
 0.4840	 7.6070
 0.4850	 7.5990
 0.4860	 7.5980
 0.4870	 7.6010
 0.4880	 7.6040
 0.4890	 7.6100
 0.4900	 7.6170
 0.4910	 7.6260
 0.4920	 7.6390
 0.4930	 7.6520
 0.4940	 7.6660
 0.4950	 7.6820
 0.4960	 7.7040
 0.4970	 7.7190
 0.4980	 7.7340
 0.4990	 7.7550
 0.5000	 7.7790
 0.5010	 7.8090
 0.5020	 7.8440
 0.5030	 7.8790
 0.5040	 7.9120
 0.5050	 7.9500
 0.5060	 7.9960
 0.5070	 8.0450
 0.5080	 8.1010
 0.5090	 8.1640
 0.5100	 8.2320
 0.5110	 8.3100
 0.5120	 8.3950
 0.5130	 8.4880
 0.5140	 8.5900
 0.5150	 8.7010
 0.5160	 8.8220
 0.5170	 8.9520
 0.5180	 9.0910
 0.5190	 9.2370
 0.5200	 9.3910
 0.5210	 9.5540
 0.5220	 9.7190
 0.5230	 9.8860
 0.5240	10.0540
 0.5250	10.2170
 0.5260	10.3780
 0.5270	10.5340
 0.5280	10.6810
 0.5290	10.8200
 0.5300	10.9490
 0.5310	11.0660
 0.5320	11.1740
 0.5330	11.2740
 0.5340	11.3640
 0.5350	11.4410
 0.5360	11.5070
 0.5370	11.5640
 0.5380	11.6110
 0.5390	11.6500
 0.5400	11.6790
 0.5410	11.6990
 0.5420	11.7160
 0.5430	11.7390
 0.5440	11.7650
 0.5450	11.7960
 0.5460	11.8340
 0.5470	11.8710
 0.5480	11.9070
 0.5490	11.9400
 0.5500	11.9670
 0.5510	11.9850
 0.5520	11.9920
 0.5530	11.9890
 0.5540	11.9760
 0.5550	11.9480
 0.5560	11.9070
 0.5570	11.8530
 0.5580	11.7860
 0.5590	11.7090
 0.5600	11.6240
 0.5610	11.5310
 0.5620	11.4320
 0.5630	11.3280
 0.5640	11.2220
 0.5650	11.1170
 0.5660	11.0130
 0.5670	10.9080
 0.5680	10.7960
 0.5690	10.6810
 0.5700	10.5680
 0.5710	10.4580
 0.5720	10.3540
 0.5730	10.2530
 0.5740	10.1560
 0.5750	10.0630
 0.5760	 9.9730
 0.5770	 9.8890
 0.5780	 9.8130
 0.5790	 9.7440
 0.5800	 9.6810
 0.5810	 9.6210
 0.5820	 9.5650
 0.5830	 9.5140
 0.5840	 9.4680
 0.5850	 9.4260
 0.5860	 9.3870
 0.5870	 9.3530
 0.5880	 9.3220
 0.5890	 9.2910
 0.5900	 9.2590
 0.5910	 9.2260
 0.5920	 9.1970
 0.5930	 9.1750
 0.5940	 9.1610
 0.5950	 9.1510
 0.5960	 9.1410
 0.5970	 9.1290
 0.5980	 9.1140
 0.5990	 9.0980
 0.6000	 9.0810
 0.6010	 9.0660
 0.6020	 9.0480
 0.6030	 9.0230
 0.6040	 8.9950
 0.6050	 8.9610
 0.6060	 8.9250
 0.6070	 8.8890
 0.6080	 8.8460
 0.6090	 8.7960
 0.6100	 8.7360
 0.6110	 8.6660
 0.6120	 8.6260
 0.6130	 8.5980
 0.6140	 8.5700
 0.6150	 8.5370
 0.6160	 8.5050
 0.6170	 8.4740
 0.6180	 8.4440
 0.6190	 8.4150
 0.6200	 8.3890
 0.6210	 8.3670
 0.6220	 8.3490
 0.6230	 8.3340
 0.6240	 8.3200
 0.6250	 8.3070
 0.6260	 8.3010
 0.6270	 8.2940
 0.6280	 8.2880
 0.6290	 8.2840
 0.6300	 8.2770
 0.6310	 8.2690
 0.6320	 8.2650
 0.6330	 8.2650
 0.6340	 8.2570
 0.6350	 8.2430
 0.6360	 8.2260
 0.6370	 8.2040
 0.6380	 8.1790
 0.6390	 8.1510
 0.6400	 8.1220
 0.6410	 8.0930
 0.6420	 8.0620
 0.6430	 8.0300
 0.6440	 8.0000
 0.6450	 7.9710
 0.6460	 7.9450
 0.6470	 7.9220
 0.6480	 7.8980
 0.6490	 7.8790
 0.6500	 7.8650
 0.6510	 7.8530
 0.6520	 7.8400
 0.6530	 7.8310
 0.6540	 7.8270
 0.6550	 7.8190
 0.6560	 7.8090
 0.6570	 7.7970
 0.6580	 7.7840
 0.6590	 7.7730
 0.6600	 7.7600
 0.6610	 7.7450
 0.6620	 7.7330
 0.6630	 7.7220
 0.6640	 7.7160
 0.6650	 7.7150
 0.6660	 7.7140
 0.6670	 7.7160
 0.6680	 7.7220
 0.6690	 7.7310
 0.6700	 7.7450
 0.6710	 7.7620
 0.6720	 7.7830
 0.6730	 7.8050
 0.6740	 7.8320
 0.6750	 7.8610
 0.6760	 7.8940
 0.6770	 7.9290
 0.6780	 7.9690
 0.6790	 8.0130
 0.6800	 8.0560
 0.6810	 8.1030
 0.6820	 8.1540
 0.6830	 8.2050
 0.6840	 8.2570
 0.6850	 8.3080
 0.6860	 8.3610
 0.6870	 8.4180
 0.6880	 8.4810
 0.6890	 8.5550
 0.6900	 8.6480
 0.6910	 8.7690
 0.6920	 8.9250
 0.6930	 9.1230
 0.6940	 9.3670
 0.6950	 9.6670
 0.6960	10.0240
 0.6970	10.4390
 0.6980	10.9130
 0.6990	11.4390
 0.7000	12.0160
 0.7010	12.6380
 0.7020	13.2970
 0.7030	13.9880
 0.7040	14.7060
 0.7050	15.4430
 0.7060	16.1970
 0.7070	16.9670
 0.7080	17.7530
 0.7090	18.5540
 0.7100	19.3700
 0.7110	20.2020
 0.7120	21.0480
 0.7130	21.9060
 0.7140	22.7760
 0.7150	23.6590
 0.7160	24.5540
 0.7170	25.4590
 0.7180	26.3700
 0.7190	27.2830
 0.7200	28.1950
 0.7210	29.1080
 0.7220	30.0150
 0.7230	30.9140
 0.7240	31.8050
 0.7250	32.6820
 0.7260	33.5410
 0.7270	34.3800
 0.7280	35.1970
 0.7290	35.9910
 0.7300	36.7610
 0.7310	37.5010
 0.7320	38.2120
 0.7330	38.8940
 0.7340	39.5450
 0.7350	40.1650
 0.7360	40.7540
 0.7370	41.3110
 0.7380	41.8360
 0.7390	42.3330
 0.7400	42.7960
 0.7410	43.2290
 0.7420	43.6340
 0.7430	44.0080
 0.7440	44.3530
 0.7450	44.6700
 0.7460	44.9630
 0.7470	45.2280
 0.7480	45.4670
 0.7490	45.6830
 0.7500	45.8850
 0.7510	46.0690
 0.7520	46.2330
 0.7530	46.3810
 0.7540	46.5140
 0.7550	46.6330
 0.7560	46.7390
 0.7570	46.8370
 0.7580	46.9250
 0.7590	47.0040
 0.7600	47.0740
 0.7610	47.1370
 0.7620	47.1950
 0.7630	47.2460
 0.7640	47.2900
 0.7650	47.3300
 0.7660	47.3630
 0.7670	47.3910
 0.7680	47.4160
 0.7690	47.4360
 0.7700	47.4540
 0.7710	47.4730
 0.7720	47.4920
 0.7730	47.5090
 0.7740	47.5260
 0.7750	47.5400
 0.7760	47.5500
 0.7770	47.5610
 0.7780	47.5720
 0.7790	47.5830
 0.7800	47.5940
 0.7810	47.6060
 0.7820	47.6190
 0.7830	47.6300
 0.7840	47.6410
 0.7850	47.6500
 0.7860	47.6580
 0.7870	47.6660
 0.7880	47.6730
 0.7890	47.6780
 0.7900	47.6850
 0.7910	47.6910
 0.7920	47.6960
 0.7930	47.7000
 0.7940	47.7030
 0.7950	47.7080
 0.7960	47.7140
 0.7970	47.7170
 0.7980	47.7140
 0.7990	47.7130
 0.8000	47.7130
 0.8010	47.7130
 0.8020	47.7150
 0.8030	47.7140
 0.8040	47.7110
 0.8050	47.7110
 0.8060	47.7050
 0.8070	47.7010
 0.8080	47.7000
 0.8090	47.6980
 0.8100	47.6910
 0.8110	47.6840
 0.8120	47.6780
 0.8130	47.6710
 0.8140	47.6650
 0.8150	47.6600
 0.8160	47.6540
 0.8170	47.6460
 0.8180	47.6390
 0.8190	47.6340
 0.8200	47.6270
 0.8210	47.6190
 0.8220	47.6110
 0.8230	47.6030
 0.8240	47.5940
 0.8250	47.5850
 0.8260	47.5780
 0.8270	47.5720
 0.8280	47.5640
 0.8290	47.5550
 0.8300	47.5480
 0.8310	47.5410
 0.8320	47.5310
 0.8330	47.5260
 0.8340	47.5230
 0.8350	47.5180
 0.8360	47.5150
 0.8370	47.5120
 0.8380	47.5080
 0.8390	47.5040
 0.8400	47.5000
 0.8410	47.4970
 0.8420	47.4980
 0.8430	47.4990
 0.8440	47.4990
 0.8450	47.4990
 0.8460	47.4980
 0.8470	47.5010
 0.8480	47.5030
 0.8490	47.5050
 0.8500	47.5060
 0.8510	47.5070
 0.8520	47.5080
 0.8530	47.5120
 0.8540	47.5190
 0.8550	47.5200
 0.8560	47.5210
 0.8570	47.5230
 0.8580	47.5270
 0.8590	47.5330
 0.8600	47.5420
 0.8610	47.5520
 0.8620	47.5560
 0.8630	47.5650
 0.8640	47.5750
 0.8650	47.5820
 0.8660	47.5870
 0.8670	47.5940
 0.8680	47.6030
 0.8690	47.6130
 0.8700	47.6230
 0.8710	47.6320
 0.8720	47.6400
 0.8730	47.6470
 0.8740	47.6590
 0.8750	47.6700
 0.8760	47.6800
 0.8770	47.6890
 0.8780	47.6950
 0.8790	47.7010
 0.8800	47.7100
 0.8810	47.7220
 0.8820	47.7350
 0.8830	47.7450
 0.8840	47.7530
 0.8850	47.7590
 0.8860	47.7680
 0.8870	47.7790
 0.8880	47.7910
 0.8890	47.7980
 0.8900	47.8070
 0.8910	47.8160
 0.8920	47.8250
 0.8930	47.8300
 0.8940	47.8400
 0.8950	47.8510
 0.8960	47.8580
 0.8970	47.8680
 0.8980	47.8770
 0.8990	47.8850
 0.9000	47.8950
 0.9010	47.9010
 0.9020	47.9070
 0.9030	47.9150
 0.9040	47.9260
 0.9050	47.9340
 0.9060	47.9400
 0.9070	47.9440
 0.9080	47.9490
 0.9090	47.9560
 0.9100	47.9630
 0.9110	47.9660
 0.9120	47.9720
 0.9130	47.9780
 0.9140	47.9820
 0.9150	47.9840
 0.9160	47.9850
 0.9170	47.9850
 0.9180	47.9880
 0.9190	47.9950
 0.9200	47.9970
 0.9210	47.9950
 0.9220	47.9920
 0.9230	47.9920
 0.9240	47.9890
 0.9250	47.9820
 0.9260	47.9760
 0.9270	47.9740
 0.9280	47.9640
 0.9290	47.9500
 0.9300	47.9390
 0.9310	47.9350
 0.9320	47.9290
 0.9330	47.9170
 0.9340	47.9020
 0.9350	47.8850
 0.9360	47.8680
 0.9370	47.8540
 0.9380	47.8400
 0.9390	47.8220
 0.9400	47.8000
 0.9410	47.7820
 0.9420	47.7670
 0.9430	47.7390
 0.9440	47.7150
 0.9450	47.6890
 0.9460	47.6570
 0.9470	47.6310
 0.9480	47.6050
 0.9490	47.5730
 0.9500	47.5310
 0.9510	47.4890
 0.9520	47.4420
 0.9530	47.3940
 0.9540	47.3510
 0.9550	47.3060
 0.9560	47.2630
 0.9570	47.2200
 0.9580	47.1780
 0.9590	47.1430
 0.9600	47.1050
 0.9610	47.0670
 0.9620	47.0370
 0.9630	47.0070
 0.9640	46.9910
 0.9650	46.9710
 0.9660	46.9330
 0.9670	46.9200
 0.9680	46.9020
 0.9690	46.8860
 0.9700	46.8820
 0.9710	46.8550
 0.9720	46.8390
 0.9730	46.8360
 0.9740	46.8290
 0.9750	46.8190
 0.9760	46.8180
 0.9770	46.8190
 0.9780	46.8090
 0.9790	46.7990
 0.9800	46.7880
 0.9810	46.7800
 0.9820	46.7840
 0.9830	46.7900
 0.9840	46.7940
 0.9850	46.7900
 0.9860	46.7740
 0.9870	46.7860
 0.9880	46.8010
 0.9890	46.8140
 0.9900	46.8260
 0.9910	46.8270
 0.9920	46.8240
 0.9930	46.8320
 0.9940	46.8610
 0.9950	46.8830
 0.9960	46.8970
 0.9970	46.9040
 0.9980	46.9080
 0.9990	46.9100
 1.0000	46.9320
 1.0010	47.0990
 1.0020	47.1100
 1.0030	47.1190
 1.0040	47.1350
 1.0050	47.1500
 1.0060	47.1680
 1.0070	47.1880
 1.0080	47.2070
 1.0090	47.2280
 1.0100	47.2440
 1.0110	47.2590
 1.0120	47.2740
 1.0130	47.2870
 1.0140	47.3010
 1.0150	47.3160
 1.0160	47.3300
 1.0170	47.3460
 1.0180	47.3620
 1.0190	47.3820
 1.0200	47.3990
 1.0210	47.4120
 1.0220	47.4250
 1.0230	47.4410
 1.0240	47.4550
 1.0250	47.4710
 1.0260	47.4890
 1.0270	47.5050
 1.0280	47.5220
 1.0290	47.5370
 1.0300	47.5510
 1.0310	47.5660
 1.0320	47.5820
 1.0330	47.5950
 1.0340	47.6140
 1.0350	47.6320
 1.0360	47.6430
 1.0370	47.6570
 1.0380	47.6680
 1.0390	47.6750
 1.0400	47.6860
 1.0410	47.6990
 1.0420	47.7110
 1.0430	47.7210
 1.0440	47.7330
 1.0450	47.7450
 1.0460	47.7550
 1.0470	47.7630
 1.0480	47.7730
 1.0490	47.7830
 1.0500	47.7930
 1.0510	47.8030
 1.0520	47.8140
 1.0530	47.8230
 1.0540	47.8310
 1.0550	47.8360
 1.0560	47.8390
 1.0570	47.8460
 1.0580	47.8510
 1.0590	47.8580
 1.0600	47.8710
 1.0610	47.8790
 1.0620	47.8860
 1.0630	47.8920
 1.0640	47.8980
 1.0650	47.9030
 1.0660	47.9070
 1.0670	47.9120
 1.0680	47.9180
 1.0690	47.9240
 1.0700	47.9310
 1.0710	47.9390
 1.0720	47.9460
 1.0730	47.9550
 1.0740	47.9590
 1.0750	47.9590
 1.0760	47.9630
 1.0770	47.9650
 1.0780	47.9680
 1.0790	47.9770
 1.0800	47.9810
 1.0810	47.9830
 1.0820	47.9860
 1.0830	47.9860
 1.0840	47.9860
 1.0850	47.9850
 1.0860	47.9860
 1.0870	47.9870
 1.0880	47.9880
 1.0890	47.9880
 1.0900	47.9890
 1.0910	47.9900
 1.0920	47.9910
 1.0930	47.9900
 1.0940	47.9880
 1.0950	47.9860
 1.0960	47.9800
 1.0970	47.9780
 1.0980	47.9800
 1.0990	47.9760
 1.1000	47.9680
 1.1010	47.9630
 1.1020	47.9570
 1.1030	47.9520
 1.1040	47.9500
 1.1050	47.9490
 1.1060	47.9430
 1.1070	47.9340
 1.1080	47.9270
 1.1090	47.9190
 1.1100	47.9110
 1.1110	47.9030
 1.1120	47.8940
 1.1130	47.8850
 1.1140	47.8730
 1.1150	47.8610
 1.1160	47.8470
 1.1170	47.8310
 1.1180	47.8150
 1.1190	47.8000
 1.1200	47.7820
 1.1210	47.7640
 1.1220	47.7440
 1.1230	47.7170
 1.1240	47.6890
 1.1250	47.6580
 1.1260	47.6230
 1.1270	47.5830
 1.1280	47.5410
 1.1290	47.4940
 1.1300	47.4410
 1.1310	47.3830
 1.1320	47.3220
 1.1330	47.2550
 1.1340	47.1840
 1.1350	47.1060
 1.1360	47.0230
 1.1370	46.9350
 1.1380	46.8400
 1.1390	46.7420
 1.1400	46.6380
 1.1410	46.5310
 1.1420	46.4230
 1.1430	46.3100
 1.1440	46.1990
 1.1450	46.0860
 1.1460	45.9760
 1.1470	45.8650
 1.1480	45.7580
 1.1490	45.6520
 1.1500	45.5530
 1.1510	45.4570
 1.1520	45.3650
 1.1530	45.2790
 1.1540	45.1970
 1.1550	45.1210
 1.1560	45.0480
 1.1570	44.9810
 1.1580	44.9210
 1.1590	44.8630
 1.1600	44.8120
 1.1610	44.7670
 1.1620	44.7250
 1.1630	44.6880
 1.1640	44.6520
 1.1650	44.6190
 1.1660	44.5890
 1.1670	44.5620
 1.1680	44.5380
 1.1690	44.5150
 1.1700	44.4940
 1.1710	44.4740
 1.1720	44.4530
 1.1730	44.4330
 1.1740	44.4150
 1.1750	44.3970
 1.1760	44.3770
 1.1770	44.3580
 1.1780	44.3380
 1.1790	44.3170
 1.1800	44.2990
 1.1810	44.2800
 1.1820	44.2590
 1.1830	44.2400
 1.1840	44.2180
 1.1850	44.1970
 1.1860	44.1790
 1.1870	44.1610
 1.1880	44.1450
 1.1890	44.1300
 1.1900	44.1150
 1.1910	44.1010
 1.1920	44.0890
 1.1930	44.0790
 1.1940	44.0690
 1.1950	44.0610
 1.1960	44.0520
 1.1970	44.0440
 1.1980	44.0380
 1.1990	44.0350
 1.2000	44.0340
 1.2010	44.0330
 1.2020	44.0330
 1.2030	44.0340
 1.2040	44.0370
 1.2050	44.0400
 1.2060	44.0430
 1.2070	44.0500
 1.2080	44.0560
 1.2090	44.0670
 1.2100	44.0800
 1.2110	44.0930
 1.2120	44.1070
 1.2130	44.1250
 1.2140	44.1470
 1.2150	44.1680
 1.2160	44.1930
 1.2170	44.2170
 1.2180	44.2430
 1.2190	44.2690
 1.2200	44.2970
 1.2210	44.3290
 1.2220	44.3610
 1.2230	44.3950
 1.2240	44.4310
 1.2250	44.4650
 1.2260	44.4950
 1.2270	44.5270
 1.2280	44.5560
 1.2290	44.5850
 1.2300	44.6130
 1.2310	44.6390
 1.2320	44.6650
 1.2330	44.6900
 1.2340	44.7150
 1.2350	44.7410
 1.2360	44.7640
 1.2370	44.7870
 1.2380	44.8090
 1.2390	44.8300
 1.2400	44.8500
 1.2410	44.8710
 1.2420	44.8890
 1.2430	44.9060
 1.2440	44.9240
 1.2450	44.9390
 1.2460	44.9540
 1.2470	44.9690
 1.2480	44.9830
 1.2490	44.9980
 1.2500	45.0140
 1.2510	45.0280
 1.2520	45.0420
 1.2530	45.0520
 1.2540	45.0610
 1.2550	45.0710
 1.2560	45.0790
 1.2570	45.0890
 1.2580	45.0980
 1.2590	45.1060
 1.2600	45.1150
 1.2610	45.1200
 1.2620	45.1220
 1.2630	45.1240
 1.2640	45.1240
 1.2650	45.1240
 1.2660	45.1250
 1.2670	45.1250
 1.2680	45.1250
 1.2690	45.1240
 1.2700	45.1240
 1.2710	45.1210
 1.2720	45.1160
 1.2730	45.1100
 1.2740	45.1020
 1.2750	45.0940
 1.2760	45.0880
 1.2770	45.0790
 1.2780	45.0690
 1.2790	45.0570
 1.2800	45.0430
 1.2810	45.0290
 1.2820	45.0150
 1.2830	45.0010
 1.2840	44.9850
 1.2850	44.9680
 1.2860	44.9470
 1.2870	44.9270
 1.2880	44.9040
 1.2890	44.8820
 1.2900	44.8570
 1.2910	44.8320
 1.2920	44.8060
 1.2930	44.7750
 1.2940	44.7420
 1.2950	44.7100
 1.2960	44.6750
 1.2970	44.6390
 1.2980	44.6030
 1.2990	44.5650
 1.3000	44.5250
 1.3010	44.4820
 1.3020	44.4370
 1.3030	44.3910
 1.3040	44.3410
 1.3050	44.2900
 1.3060	44.2370
 1.3070	44.1840
 1.3080	44.1290
 1.3090	44.0720
 1.3100	44.0120
 1.3110	43.9480
 1.3120	43.8800
 1.3130	43.8090
 1.3140	43.7380
 1.3150	43.6680
 1.3160	43.5920
 1.3170	43.5140
 1.3180	43.4320
 1.3190	43.3460
 1.3200	43.2570
 1.3210	43.1650
 1.3220	43.0730
 1.3230	42.9800
 1.3240	42.8850
 1.3250	42.7870
 1.3260	42.6850
 1.3270	42.5790
 1.3280	42.4720
 1.3290	42.3630
 1.3300	42.2520
 1.3310	42.1390
 1.3320	42.0230
 1.3330	41.9060
 1.3340	41.7880
 1.3350	41.6700
 1.3360	41.5510
 1.3370	41.4310
 1.3380	41.3110
 1.3390	41.1910
 1.3400	41.0700
 1.3410	40.9520
 1.3420	40.8330
 1.3430	40.7160
 1.3440	40.5990
 1.3450	40.4830
 1.3460	40.3690
 1.3470	40.2560
 1.3480	40.1430
 1.3490	40.0320
 1.3500	39.9230
 1.3510	39.8130
 1.3520	39.7050
 1.3530	39.5990
 1.3540	39.4910
 1.3550	39.3830
 1.3560	39.2750
 1.3570	39.1660
 1.3580	39.0560
 1.3590	38.9450
 1.3600	38.8300
 1.3610	38.7130
 1.3620	38.5900
 1.3630	38.4640
 1.3640	38.3320
 1.3650	38.1920
 1.3660	38.0480
 1.3670	37.8960
 1.3680	37.7340
 1.3690	37.5640
 1.3700	37.3810
 1.3710	37.1860
 1.3720	36.9790
 1.3730	36.7560
 1.3740	36.5180
 1.3750	36.2620
 1.3760	35.9860
 1.3770	35.6920
 1.3780	35.3750
 1.3790	35.0380
 1.3800	34.6790
 1.3810	34.2930
 1.3820	33.8890
 1.3830	33.4640
 1.3840	33.0180
 1.3850	32.5520
 1.3860	32.0690
 1.3870	31.5610
 1.3880	31.0470
 1.3890	30.5170
 1.3900	29.9740
 1.3910	29.4290
 1.3920	28.8770
 1.3930	28.3190
 1.3940	27.7640
 1.3950	27.2050
 1.3960	26.6540
 1.3970	26.1120
 1.3980	25.5780
 1.3990	25.0620
 1.4000	24.5590
 1.4010	24.0670
 1.4020	23.5930
 1.4030	23.1330
 1.4040	22.6910
 1.4050	22.2710
 1.4060	21.8700
 1.4070	21.4920
 1.4080	21.1330
 1.4090	20.7920
 1.4100	20.4720
 1.4110	20.1680
 1.4120	19.8840
 1.4130	19.6190
 1.4140	19.3710
 1.4150	19.1420
 1.4160	18.9310
 1.4170	18.7310
 1.4180	18.5470
 1.4190	18.3730
 1.4200	18.2100
 1.4210	18.0610
 1.4220	17.9210
 1.4230	17.7920
 1.4240	17.6750
 1.4250	17.5650
 1.4260	17.4640
 1.4270	17.3700
 1.4280	17.2850
 1.4290	17.2060
 1.4300	17.1330
 1.4310	17.0660
 1.4320	17.0060
 1.4330	16.9500
 1.4340	16.9000
 1.4350	16.8550
 1.4360	16.8160
 1.4370	16.7800
 1.4380	16.7480
 1.4390	16.7210
 1.4400	16.6980
 1.4410	16.6780
 1.4420	16.6610
 1.4430	16.6470
 1.4440	16.6350
 1.4450	16.6260
 1.4460	16.6200
 1.4470	16.6170
 1.4480	16.6160
 1.4490	16.6160
 1.4500	16.6190
 1.4510	16.6240
 1.4520	16.6300
 1.4530	16.6380
 1.4540	16.6470
 1.4550	16.6580
 1.4560	16.6710
 1.4570	16.6870
 1.4580	16.7070
 1.4590	16.7290
 1.4600	16.7560
 1.4610	16.7850
 1.4620	16.8180
 1.4630	16.8560
 1.4640	16.8960
 1.4650	16.9420
 1.4660	16.9930
 1.4670	17.0490
 1.4680	17.1090
 1.4690	17.1720
 1.4700	17.2390
 1.4710	17.3110
 1.4720	17.3860
 1.4730	17.4650
 1.4740	17.5470
 1.4750	17.6320
 1.4760	17.7200
 1.4770	17.8120
 1.4780	17.9060
 1.4790	18.0040
 1.4800	18.1020
 1.4810	18.2020
 1.4820	18.3030
 1.4830	18.4040
 1.4840	18.5090
 1.4850	18.6150
 1.4860	18.7220
 1.4870	18.8310
 1.4880	18.9390
 1.4890	19.0490
 1.4900	19.1590
 1.4910	19.2700
 1.4920	19.3820
 1.4930	19.4960
 1.4940	19.6100
 1.4950	19.7250
 1.4960	19.8400
 1.4970	19.9540
 1.4980	20.0690
 1.4990	20.1850
 1.5000	20.3010
 1.5010	20.4190
 1.5020	20.5360
 1.5030	20.6560
 1.5040	20.7730
 1.5050	20.8880
 1.5060	21.0050
 1.5070	21.1220
 1.5080	21.2390
 1.5090	21.3560
 1.5100	21.4750
 1.5110	21.5920
 1.5120	21.7090
 1.5130	21.8240
 1.5140	21.9400
 1.5150	22.0550
 1.5160	22.1690
 1.5170	22.2830
 1.5180	22.3960
 1.5190	22.5100
 1.5200	22.6230
 1.5210	22.7340
 1.5220	22.8450
 1.5230	22.9560
 1.5240	23.0660
 1.5250	23.1770
 1.5260	23.2870
 1.5270	23.3950
 1.5280	23.5010
 1.5290	23.6040
 1.5300	23.7070
 1.5310	23.8110
 1.5320	23.9140
 1.5330	24.0180
 1.5340	24.1200
 1.5350	24.2210
 1.5360	24.3220
 1.5370	24.4200
 1.5380	24.5170
 1.5390	24.6160
 1.5400	24.7130
 1.5410	24.8100
 1.5420	24.9070
 1.5430	25.0030
 1.5440	25.0970
 1.5450	25.1900
 1.5460	25.2830
 1.5470	25.3750
 1.5480	25.4670
 1.5490	25.5580
 1.5500	25.6470
 1.5510	25.7350
 1.5520	25.8240
 1.5530	25.9110
 1.5540	25.9980
 1.5550	26.0850
 1.5560	26.1690
 1.5570	26.2520
 1.5580	26.3340
 1.5590	26.4150
 1.5600	26.4970
 1.5610	26.5770
 1.5620	26.6570
 1.5630	26.7350
 1.5640	26.8100
 1.5650	26.8870
 1.5660	26.9620
 1.5670	27.0370
 1.5680	27.1110
 1.5690	27.1830
 1.5700	27.2540
 1.5710	27.3270
 1.5720	27.3990
 1.5730	27.4710
 1.5740	27.5430
 1.5750	27.6120
 1.5760	27.6820
 1.5770	27.7490
 1.5780	27.8170
 1.5790	27.8860
 1.5800	27.9530
 1.5810	28.0200
 1.5820	28.0870
 1.5830	28.1530
 1.5840	28.2190
 1.5850	28.2840
 1.5860	28.3500
 1.5870	28.4170
 1.5880	28.4820
 1.5890	28.5480
 1.5900	28.6130
 1.5910	28.6780
 1.5920	28.7420
 1.5930	28.8060
 1.5940	28.8700
 1.5950	28.9340
 1.5960	28.9970
 1.5970	29.0600
 1.5980	29.1220
 1.5990	29.1820
 1.6000	29.2420
 1.6010	29.3020
 1.6020	29.3610
 1.6030	29.4200
 1.6040	29.4790
 1.6050	29.5370
 1.6060	29.5940
 1.6070	29.6500
 1.6080	29.7050
 1.6090	29.7580
 1.6100	29.8130
 1.6110	29.8670
 1.6120	29.9200
 1.6130	29.9720
 1.6140	30.0230
 1.6150	30.0730
 1.6160	30.1220
 1.6170	30.1690
 1.6180	30.2180
 1.6190	30.2650
 1.6200	30.3100
 1.6210	30.3560
 1.6220	30.4000
 1.6230	30.4410
 1.6240	30.4820
 1.6250	30.5220
 1.6260	30.5610
 1.6270	30.6000
 1.6280	30.6370
 1.6290	30.6730
 1.6300	30.7090
 1.6310	30.7440
 1.6320	30.7790
 1.6330	30.8110
 1.6340	30.8410
 1.6350	30.8710
 1.6360	30.8990
 1.6370	30.9270
 1.6380	30.9550
 1.6390	30.9780
 1.6400	31.0010
 1.6410	31.0190
 1.6420	31.0310
 1.6430	31.0460
 1.6440	31.0570
 1.6450	31.0720
 1.6460	31.0840
 1.6470	31.0940
 1.6480	31.1010
 1.6490	31.1050
 1.6500	31.1050
 1.6510	31.1020
 1.6520	31.1000
 1.6530	31.0970
 1.6540	31.0940
 1.6550	31.0910
 1.6560	31.0860
 1.6570	31.0790
 1.6580	31.0720
 1.6590	31.0650
 1.6600	31.0590
 1.6610	31.0530
 1.6620	31.0490
 1.6630	31.0470
 1.6640	31.0430
 1.6650	31.0390
 1.6660	31.0350
 1.6670	31.0300
 1.6680	31.0260
 1.6690	31.0210
 1.6700	31.0140
 1.6710	31.0070
 1.6720	30.9980
 1.6730	30.9870
 1.6740	30.9750
 1.6750	30.9620
 1.6760	30.9440
 1.6770	30.9270
 1.6780	30.9070
 1.6790	30.8830
 1.6800	30.8580
 1.6810	30.8300
 1.6820	30.7990
 1.6830	30.7660
 1.6840	30.7300
 1.6850	30.6920
 1.6860	30.6530
 1.6870	30.6140
 1.6880	30.5730
 1.6890	30.5280
 1.6900	30.4830
 1.6910	30.4370
 1.6920	30.3910
 1.6930	30.3470
 1.6940	30.3010
 1.6950	30.2550
 1.6960	30.2090
 1.6970	30.1630
 1.6980	30.1160
 1.6990	30.0690
 1.7000	30.0200
 1.7010	29.9700
 1.7020	29.9180
 1.7030	29.8640
 1.7040	29.8110
 1.7050	29.7590
 1.7060	29.7060
 1.7070	29.6550
 1.7080	29.5990
 1.7090	29.5400
 1.7100	29.4820
 1.7110	29.4240
 1.7120	29.3660
 1.7130	29.3080
 1.7140	29.2510
 1.7150	29.1940
 1.7160	29.1380
 1.7170	29.0840
 1.7180	29.0300
 1.7190	28.9760
 1.7200	28.9220
 1.7210	28.8670
 1.7220	28.8130
 1.7230	28.7600
 1.7240	28.7080
 1.7250	28.6590
 1.7260	28.6130
 1.7270	28.5690
 1.7280	28.5300
 1.7290	28.4950
 1.7300	28.4660
 1.7310	28.4420
 1.7320	28.4260
 1.7330	28.4090
 1.7340	28.3950
 1.7350	28.3820
 1.7360	28.3710
 1.7370	28.3580
 1.7380	28.3470
 1.7390	28.3300
 1.7400	28.3100
 1.7410	28.2860
 1.7420	28.2570
 1.7430	28.2250
 1.7440	28.1890
 1.7450	28.1510
 1.7460	28.1100
 1.7470	28.0660
 1.7480	28.0200
 1.7490	27.9720
 1.7500	27.9210
 1.7510	27.8710
 1.7520	27.8200
 1.7530	27.7670
 1.7540	27.7120
 1.7550	27.6570
 1.7560	27.6010
 1.7570	27.5460
 1.7580	27.4930
 1.7590	27.4400
 1.7600	27.3900
 1.7610	27.3420
 1.7620	27.2960
 1.7630	27.2500
 1.7640	27.2090
 1.7650	27.1720
 1.7660	27.1370
 1.7670	27.1060
 1.7680	27.0780
 1.7690	27.0530
 1.7700	27.0280
 1.7710	27.0060
 1.7720	26.9830
 1.7730	26.9610
 1.7740	26.9390
 1.7750	26.9190
 1.7760	26.8990
 1.7770	26.8790
 1.7780	26.8610
 1.7790	26.8430
 1.7800	26.8280
 1.7810	26.8150
 1.7820	26.8020
 1.7830	26.7920
 1.7840	26.7800
 1.7850	26.7670
 1.7860	26.7590
 1.7870	26.7540
 1.7880	26.7470
 1.7890	26.7450
 1.7900	26.7400
 1.7910	26.7380
 1.7920	26.7370
 1.7930	26.7380
 1.7940	26.7430
 1.7950	26.7470
 1.7960	26.7520
 1.7970	26.7580
 1.7980	26.7640
 1.7990	26.7700
 1.8000	26.7790
 1.8010	26.7890
 1.8020	26.8010
 1.8030	26.8110
 1.8040	26.8210
 1.8050	26.8310
 1.8060	26.8400
 1.8070	26.8500
 1.8080	26.8620
 1.8090	26.8730
 1.8100	26.8850
 1.8110	26.8950
 1.8120	26.9050
 1.8130	26.9140
 1.8140	26.9210
 1.8150	26.9270
 1.8160	26.9340
 1.8170	26.9400
 1.8180	26.9460
 1.8190	26.9520
 1.8200	26.9570
 1.8210	26.9600
 1.8220	26.9620
 1.8230	26.9620
 1.8240	26.9630
 1.8250	26.9650
 1.8260	26.9650
 1.8270	26.9650
 1.8280	26.9620
 1.8290	26.9580
 1.8300	26.9510
 1.8310	26.2210
 1.8320	26.2070
 1.8330	26.1930
 1.8340	26.1700
 1.8350	26.1450
 1.8360	26.1200
 1.8370	26.0850
 1.8380	26.0460
 1.8390	26.0070
 1.8400	25.9660
 1.8410	25.9150
 1.8420	25.8610
 1.8430	25.8040
 1.8440	25.7360
 1.8450	25.6570
 1.8460	25.5760
 1.8470	25.4880
 1.8480	25.3920
 1.8490	25.2900
 1.8500	25.1770
 1.8510	25.0570
 1.8520	24.9250
 1.8530	24.7760
 1.8540	24.6180
 1.8550	24.4500
 1.8560	24.2650
 1.8570	24.0740
 1.8580	23.8720
 1.8590	23.6540
 1.8600	23.4220
 1.8610	23.1780
 1.8620	22.9170
 1.8630	22.6430
 1.8640	22.3560
 1.8650	22.0510
 1.8660	21.7330
 1.8670	21.3980
 1.8680	21.0460
 1.8690	20.6810
 1.8700	20.2970
 1.8710	19.8950
 1.8720	19.4810
 1.8730	19.0560
 1.8740	18.6180
 1.8750	18.1750
 1.8760	17.7240
 1.8770	17.2670
 1.8780	16.8110
 1.8790	16.3520
 1.8800	15.8970
 1.8810	15.4450
 1.8820	14.9920
 1.8830	14.5400
 1.8840	14.1000
 1.8850	13.6630
 1.8860	13.2390
 1.8870	12.8330
 1.8880	12.4360
 1.8890	12.0590
 1.8900	11.7010
 1.8910	11.3610
 1.8920	11.0360
 1.8930	10.7350
 1.8940	10.4530
 1.8950	10.1910
 1.8960	 9.9500
 1.8970	 9.7270
 1.8980	 9.5240
 1.8990	 9.3380
 1.9000	 9.1670
 1.9010	 9.0140
 1.9020	 8.8750
 1.9030	 8.7530
 1.9040	 8.6460
 1.9050	 8.5500
 1.9060	 8.4640
 1.9070	 8.3880
 1.9080	 8.3150
 1.9090	 8.2520
 1.9100	 8.1980
 1.9110	 8.1480
 1.9120	 8.1060
 1.9130	 8.0680
 1.9140	 8.0340
 1.9150	 8.0050
 1.9160	 7.9790
 1.9170	 7.9560
 1.9180	 7.9370
 1.9190	 7.9200
 1.9200	 7.9050
 1.9210	 7.8920
 1.9220	 7.8800
 1.9230	 7.8700
 1.9240	 7.8620
 1.9250	 7.8560
 1.9260	 7.8520
 1.9270	 7.8500
 1.9280	 7.8490
 1.9290	 7.8480
 1.9300	 7.8490
 1.9310	 7.8510
 1.9320	 7.8540
 1.9330	 7.8600
 1.9340	 7.8680
 1.9350	 7.8760
 1.9360	 7.8860
 1.9370	 7.8960
 1.9380	 7.9050
 1.9390	 7.9160
 1.9400	 7.9300
 1.9410	 7.9450
 1.9420	 7.9620
 1.9430	 7.9800
 1.9440	 7.9960
 1.9450	 8.0090
 1.9460	 8.0260
 1.9470	 8.0450
 1.9480	 8.0650
 1.9490	 8.0880
 1.9500	 8.1130
 1.9510	 8.1360
 1.9520	 8.1580
 1.9530	 8.1840
 1.9540	 8.2080
 1.9550	 8.2330
 1.9560	 8.2600
 1.9570	 8.2880
 1.9580	 8.3140
 1.9590	 8.3430
 1.9600	 8.3740
 1.9610	 8.4040
 1.9620	 8.4340
 1.9630	 8.4620
 1.9640	 8.4930
 1.9650	 8.5250
 1.9660	 8.5570
 1.9670	 8.5940
 1.9680	 8.6310
 1.9690	 8.6680
 1.9700	 8.7040
 1.9710	 8.7410
 1.9720	 8.7780
 1.9730	 8.8130
 1.9740	 8.8510
 1.9750	 8.8900
 1.9760	 8.9280
 1.9770	 8.9690
 1.9780	 9.0100
 1.9790	 9.0540
 1.9800	 9.1010
 1.9810	 9.1470
 1.9820	 9.1940
 1.9830	 9.2390
 1.9840	 9.2810
 1.9850	 9.3260
 1.9860	 9.3720
 1.9870	 9.4180
 1.9880	 9.4660
 1.9890	 9.5170
 1.9900	 9.5640
 1.9910	 9.6090
 1.9920	 9.6560
 1.9930	 9.7030
 1.9940	 9.7520
 1.9950	 9.8030
 1.9960	 9.8530
 1.9970	 9.9030
 1.9980	 9.9540
 1.9990	10.0070
 2.0000	10.0610
 2.0010	10.1140
 2.0020	10.1670
 2.0030	10.2200
 2.0040	10.2710
 2.0050	10.3230
 2.0060	10.3740
 2.0070	10.4250
 2.0080	10.4750
 2.0090	10.5260
 2.0100	10.5790
 2.0110	10.6320
 2.0120	10.6860
 2.0130	10.7380
 2.0140	10.7910
 2.0150	10.8420
 2.0160	10.8920
 2.0170	10.9430
 2.0180	10.9950
 2.0190	11.0470
 2.0200	11.0980
 2.0210	11.1480
 2.0220	11.1990
 2.0230	11.2490
 2.0240	11.2970
 2.0250	11.3460
 2.0260	11.3930
 2.0270	11.4370
 2.0280	11.4830
 2.0290	11.5300
 2.0300	11.5740
 2.0310	11.6190
 2.0320	11.6650
 2.0330	11.7090
 2.0340	11.7490
 2.0350	11.7910
 2.0360	11.8320
 2.0370	11.8730
 2.0380	11.9160
 2.0390	11.9550
 2.0400	11.9880
 2.0410	12.0240
 2.0420	12.0570
 2.0430	12.0900
 2.0440	12.1260
 2.0450	12.1660
 2.0460	12.2010
 2.0470	12.2330
 2.0480	12.2670
 2.0490	12.3010
 2.0500	12.3350
 2.0510	12.3720
 2.0520	12.4070
 2.0530	12.4400
 2.0540	12.4730
 2.0550	12.5080
 2.0560	12.5410
 2.0570	12.5750
 2.0580	12.6110
 2.0590	12.6470
 2.0600	12.6840
 2.0610	12.7200
 2.0620	12.7570
 2.0630	12.7920
 2.0640	12.8260
 2.0650	12.8610
 2.0660	12.8950
 2.0670	12.9310
 2.0680	12.9700
 2.0690	13.0090
 2.0700	13.0510
 2.0710	13.0910
 2.0720	13.1310
 2.0730	13.1680
 2.0740	13.2040
 2.0750	13.2360
 2.0760	13.2720
 2.0770	13.3070
 2.0780	13.3430
 2.0790	13.3830
 2.0800	13.4200
 2.0810	13.4550
 2.0820	13.4920
 2.0830	13.5290
 2.0840	13.5660
 2.0850	13.6050
 2.0860	13.6410
 2.0870	13.6740
 2.0880	13.7090
 2.0890	13.7450
 2.0900	13.7790
 2.0910	13.8140
 2.0920	13.8500
 2.0930	13.8860
 2.0940	13.9230
 2.0950	13.9590
 2.0960	13.9970
 2.0970	14.0320
 2.0980	14.0640
 2.0990	14.0970
 2.1000	14.1300
 2.1010	14.1610
 2.1020	14.1900
 2.1030	14.2220
 2.1040	14.2540
 2.1050	14.2860
 2.1060	14.3190
 2.1070	14.3550
 2.1080	14.3890
 2.1090	14.4220
 2.1100	14.4540
 2.1110	14.4870
 2.1120	14.5190
 2.1130	14.5500
 2.1140	14.5810
 2.1150	14.6140
 2.1160	14.6450
 2.1170	14.6730
 2.1180	14.7030
 2.1190	14.7310
 2.1200	14.7600
 2.1210	14.7910
 2.1220	14.8210
 2.1230	14.8500
 2.1240	14.8810
 2.1250	14.9080
 2.1260	14.9310
 2.1270	14.9580
 2.1280	14.9840
 2.1290	15.0100
 2.1300	15.0370
 2.1310	15.0640
 2.1320	15.0900
 2.1330	15.1170
 2.1340	15.1450
 2.1350	15.1720
 2.1360	15.1980
 2.1370	15.2240
 2.1380	15.2490
 2.1390	15.2750
 2.1400	15.3000
 2.1410	15.3260
 2.1420	15.3520
 2.1430	15.3790
 2.1440	15.4040
 2.1450	15.4290
 2.1460	15.4550
 2.1470	15.4810
 2.1480	15.5070
 2.1490	15.5340
 2.1500	15.5590
 2.1510	15.5840
 2.1520	15.6100
 2.1530	15.6380
 2.1540	15.6630
 2.1550	15.6880
 2.1560	15.7120
 2.1570	15.7340
 2.1580	15.7540
 2.1590	15.7710
 2.1600	15.7890
 2.1610	15.8060
 2.1620	15.8200
 2.1630	15.8340
 2.1640	15.8480
 2.1650	15.8650
 2.1660	15.8830
 2.1670	15.9010
 2.1680	15.9240
 2.1690	15.9440
 2.1700	15.9610
 2.1710	15.9800
 2.1720	16.0010
 2.1730	16.0210
 2.1740	16.0400
 2.1750	16.0590
 2.1760	16.0780
 2.1770	16.0960
 2.1780	16.1130
 2.1790	16.1330
 2.1800	16.1550
 2.1810	16.1780
 2.1820	16.2020
 2.1830	16.2310
 2.1840	16.2560
 2.1850	16.2800
 2.1860	16.3020
 2.1870	16.3220
 2.1880	16.3450
 2.1890	16.3700
 2.1900	16.3930
 2.1910	16.4170
 2.1920	16.4400
 2.1930	16.4600
 2.1940	16.4820
 2.1950	16.5060
 2.1960	16.5260
 2.1970	16.5440
 2.1980	16.5630
 2.1990	16.5790
 2.2000	16.5990
 2.2010	16.6260
 2.2020	16.6470
 2.2030	16.6650
 2.2040	16.6840
 2.2050	16.6960
 2.2060	16.7110
 2.2070	16.7280
 2.2080	16.7470
 2.2090	16.7620
 2.2100	16.7780
 2.2110	16.7910
 2.2120	16.8020
 2.2130	16.8110
 2.2140	16.8180
 2.2150	16.8230
 2.2160	16.8260
 2.2170	16.8290
 2.2180	16.8290
 2.2190	16.8310
 2.2200	16.8320
 2.2210	16.8320
 2.2220	16.8340
 2.2230	16.8300
 2.2240	16.8210
 2.2250	16.8100
 2.2260	16.7980
 2.2270	16.7810
 2.2280	16.7590
 2.2290	16.7350
 2.2300	16.7070
 2.2310	16.6730
 2.2320	16.6430
 2.2330	16.6090
 2.2340	16.5710
 2.2350	16.5310
 2.2360	16.4890
 2.2370	16.4420
 2.2380	16.3960
 2.2390	16.3480
 2.2400	16.2990
 2.2410	16.2480
 2.2420	16.1940
 2.2430	16.1360
 2.2440	16.0800
 2.2450	16.0210
 2.2460	15.9620
 2.2470	15.9030
 2.2480	15.8420
 2.2490	15.7760
 2.2500	15.7140
 2.2510	15.6530
 2.2520	15.5940
 2.2530	15.5370
 2.2540	15.4820
 2.2550	15.4290
 2.2560	15.3740
 2.2570	15.3210
 2.2580	15.2670
 2.2590	15.2120
 2.2600	15.1580
 2.2610	15.1040
 2.2620	15.0510
 2.2630	14.9980
 2.2640	14.9430
 2.2650	14.8930
 2.2660	14.8410
 2.2670	14.7900
 2.2680	14.7400
 2.2690	14.6930
 2.2700	14.6460
 2.2710	14.6040
 2.2720	14.5680
 2.2730	14.5300
 2.2740	14.4950
 2.2750	14.4570
 2.2760	14.4180
 2.2770	14.3810
 2.2780	14.3400
 2.2790	14.3060
 2.2800	14.2800
 2.2810	14.2490
 2.2820	14.2210
 2.2830	14.1900
 2.2840	14.1530
 2.2850	14.1200
 2.2860	14.0900
 2.2870	14.0560
 2.2880	14.0210
 2.2890	13.9830
 2.2900	13.9420
 2.2910	13.9000
 2.2920	13.8570
 2.2930	13.8110
 2.2940	13.7600
 2.2950	13.7120
 2.2960	13.6610
 2.2970	13.6130
 2.2980	13.5690
 2.2990	13.5250
 2.3000	13.4810
 2.3010	13.4360
 2.3020	13.3840
 2.3030	13.3360
 2.3040	13.2840
 2.3050	13.2280
 2.3060	13.1820
 2.3070	13.1400
 2.3080	13.1010
 2.3090	13.0700
 2.3100	13.0420
 2.3110	13.0170
 2.3120	12.9970
 2.3130	12.9820
 2.3140	12.9740
 2.3150	12.9750
 2.3160	12.9720
 2.3170	12.9770
 2.3180	12.9760
 2.3190	12.9720
 2.3200	12.9710
 2.3210	12.9750
 2.3220	12.9700
 2.3230	12.9610
 2.3240	12.9520
 2.3250	12.9390
 2.3260	12.9230
 2.3270	12.9030
 2.3280	12.8840
 2.3290	12.8600
 2.3300	12.8360
 2.3310	12.8130
 2.3320	12.7860
 2.3330	12.7510
 2.3340	12.7190
 2.3350	12.6860
 2.3360	12.6560
 2.3370	12.6270
 2.3380	12.5950
 2.3390	12.5590
 2.3400	12.5270
 2.3410	12.4930
 2.3420	12.4600
 2.3430	12.4290
 2.3440	12.3960
 2.3450	12.3590
 2.3460	12.3270
 2.3470	12.2970
 2.3480	12.2680
 2.3490	12.2410
 2.3500	12.2150
 2.3510	12.1920
 2.3520	12.1680
 2.3530	12.1380
 2.3540	12.1210
 2.3550	12.1020
 2.3560	12.0750
 2.3570	12.0650
 2.3580	12.0570
 2.3590	12.0490
 2.3600	12.0440
 2.3610	12.0280
 2.3620	12.0050
 2.3630	11.9800
 2.3640	11.9610
 2.3650	11.9470
 2.3660	11.9250
 2.3670	11.9070
 2.3680	11.8810
 2.3690	11.8460
 2.3700	11.8170
 2.3710	11.7820
 2.3720	11.7520
 2.3730	11.7250
 2.3740	11.6950
 2.3750	11.6720
 2.3760	11.6470
 2.3770	11.6270
 2.3780	11.6080
 2.3790	11.5780
 2.3800	11.5550
 2.3810	11.5350
 2.3820	11.5080
 2.3830	11.4820
 2.3840	11.4430
 2.3850	11.4020
 2.3860	11.3730
 2.3870	11.3470
 2.3880	11.3330
 2.3890	11.3020
 2.3900	11.2640
 2.3910	11.2370
 2.3920	11.1970
 2.3930	11.1700
 2.3940	11.1490
 2.3950	11.1200
 2.3960	11.0960
 2.3970	11.0750
 2.3980	11.0570
 2.3990	11.0270
 2.4000	10.9920
 2.4010	10.9680
 2.4020	10.9440
 2.4030	10.9210
 2.4040	10.9170
 2.4050	10.9000
 2.4060	10.8610
 2.4070	10.8280
 2.4080	10.7800
 2.4090	10.7360
 2.4100	10.7050
 2.4110	10.6670
 2.4120	10.6470
 2.4130	10.6330
 2.4140	10.6060
 2.4150	10.5740
 2.4160	10.5370
 2.4170	10.4990
 2.4180	10.4540
 2.4190	10.4210
 2.4200	10.3960
 2.4210	10.3650
 2.4220	10.3420
 2.4230	10.3190
 2.4240	10.2900
 2.4250	10.2560
 2.4260	10.2180
 2.4270	10.1890
 2.4280	10.1630
 2.4290	10.1400
 2.4300	10.1190
 2.4310	10.0850
 2.4320	10.0570
 2.4330	10.0240
 2.4340	 9.9940
 2.4350	 9.9680
 2.4360	 9.9300
 2.4370	 9.8890
 2.4380	 9.8450
 2.4390	 9.8050
 2.4400	 9.7800
 2.4410	 9.7570
 2.4420	 9.7290
 2.4430	 9.7070
 2.4440	 9.6830
 2.4450	 9.6620
 2.4460	 9.6500
 2.4470	 9.6280
 2.4480	 9.6000
 2.4490	 9.5730
 2.4500	 9.5380
 2.4510	 9.5070
 2.4520	 9.4870
 2.4530	 9.4630
 2.4540	 9.4360
 2.4550	 9.4120
 2.4560	 9.3770
 2.4570	 9.3490
 2.4580	 9.3330
 2.4590	 9.3150
 2.4600	 9.3070
 2.4610	 9.3070
 2.4620	 9.2930
 2.4630	 9.2680
 2.4640	 9.2480
 2.4650	 9.2350
 2.4660	 9.2190
 2.4670	 9.2180
 2.4680	 9.2070
 2.4690	 9.1440
 2.4700	 9.1070
 2.4710	 9.0750
 2.4720	 9.0490
 2.4730	 9.0350
 2.4740	 9.0260
 2.4750	 9.0130
 2.4760	 8.9840
 2.4770	 8.9540
 2.4780	 8.9270
 2.4790	 8.8900
 2.4800	 8.8820
 2.4810	 8.9040
 2.4820	 8.8980
 2.4830	 8.8920
 2.4840	 8.8850
 2.4850	 8.8910
 2.4860	 8.9160
 2.4870	 8.9290
 2.4880	 8.9140
 2.4890	 8.8760
 2.4900	 8.8420
 2.4910	 8.8370
 2.4920	 8.8120
 2.4930	 8.7920
 2.4940	 8.7900
 2.4950	 8.7580
 2.4960	 8.8260
 2.4970	 8.9080
 2.4980	 8.8990
 2.4990	 8.9120
 2.5000	 8.8650
