Name: Quercus rubra
Type: Vegetation
Class: Tree
Genus: Quercus
Species: rubra
Sample No.: QURU-2-5
Owner: UCSB
Wavelength Range: VSWIR
Origin: USA; Massachusetts; Harvard Forest
Collection Date: 7/8/2013
Description: Samples were collected as part of NSF Macrosystem Biology proposal titled: Collaborative Research: Thermal controls on ecosystem metabolism and function: scaling from leaves to canopies to regions. Samples were collected and overnighted to JPL facilities for processing. The same leaves were processed in the Nicolet and then measured using the ASD.
Measurement: Bidirectional reflectance
First Column: X
Second Column: Y
X Units: Wavelength (micrometers)
Y Units: Reflectance (percentage)
First X Value: 0.35
Last X Value: 2.5
Number of X Values: 2151
Additional Information: vegetation.tree.quercus.rubra.vswir.quru-2-5.ucsb.asd.ancillary.txt

 0.3500	 6.6500
 0.3510	 6.6780
 0.3520	 6.8370
 0.3530	 6.9080
 0.3540	 6.7600
 0.3550	 6.6600
 0.3560	 6.5910
 0.3570	 6.5590
 0.3580	 6.5710
 0.3590	 6.5970
 0.3600	 6.6060
 0.3610	 6.5800
 0.3620	 6.4990
 0.3630	 6.4950
 0.3640	 6.5880
 0.3650	 6.7290
 0.3660	 6.7690
 0.3670	 6.6970
 0.3680	 6.6020
 0.3690	 6.6260
 0.3700	 6.6280
 0.3710	 6.6940
 0.3720	 6.8070
 0.3730	 6.6840
 0.3740	 6.7200
 0.3750	 6.7740
 0.3760	 6.6540
 0.3770	 6.7760
 0.3780	 6.8250
 0.3790	 6.7590
 0.3800	 6.7820
 0.3810	 6.7680
 0.3820	 6.7600
 0.3830	 6.7730
 0.3840	 6.6790
 0.3850	 6.8070
 0.3860	 6.9690
 0.3870	 6.8790
 0.3880	 6.8820
 0.3890	 6.8630
 0.3900	 6.8150
 0.3910	 6.8550
 0.3920	 6.9200
 0.3930	 6.9840
 0.3940	 7.0310
 0.3950	 7.0410
 0.3960	 7.0310
 0.3970	 7.0150
 0.3980	 7.0060
 0.3990	 7.0110
 0.4000	 7.0150
 0.4010	 7.0200
 0.4020	 7.0520
 0.4030	 7.1160
 0.4040	 7.1350
 0.4050	 7.0710
 0.4060	 7.0750
 0.4070	 7.1000
 0.4080	 7.1290
 0.4090	 7.1600
 0.4100	 7.1290
 0.4110	 7.1160
 0.4120	 7.1550
 0.4130	 7.1680
 0.4140	 7.2130
 0.4150	 7.2580
 0.4160	 7.2580
 0.4170	 7.2700
 0.4180	 7.2690
 0.4190	 7.2620
 0.4200	 7.2900
 0.4210	 7.3280
 0.4220	 7.3390
 0.4230	 7.3210
 0.4240	 7.3600
 0.4250	 7.3830
 0.4260	 7.3840
 0.4270	 7.3870
 0.4280	 7.3980
 0.4290	 7.4210
 0.4300	 7.4440
 0.4310	 7.4300
 0.4320	 7.4440
 0.4330	 7.4580
 0.4340	 7.4420
 0.4350	 7.4460
 0.4360	 7.4640
 0.4370	 7.4840
 0.4380	 7.4910
 0.4390	 7.5070
 0.4400	 7.5260
 0.4410	 7.5410
 0.4420	 7.5400
 0.4430	 7.5620
 0.4440	 7.5890
 0.4450	 7.5880
 0.4460	 7.6030
 0.4470	 7.6140
 0.4480	 7.6220
 0.4490	 7.6590
 0.4500	 7.7070
 0.4510	 7.7320
 0.4520	 7.7200
 0.4530	 7.7340
 0.4540	 7.7520
 0.4550	 7.7620
 0.4560	 7.7600
 0.4570	 7.7700
 0.4580	 7.7760
 0.4590	 7.7750
 0.4600	 7.8010
 0.4610	 7.8180
 0.4620	 7.8220
 0.4630	 7.8240
 0.4640	 7.8300
 0.4650	 7.8270
 0.4660	 7.8220
 0.4670	 7.8450
 0.4680	 7.8360
 0.4690	 7.8150
 0.4700	 7.8120
 0.4710	 7.8210
 0.4720	 7.8310
 0.4730	 7.8390
 0.4740	 7.8480
 0.4750	 7.8490
 0.4760	 7.8550
 0.4770	 7.8660
 0.4780	 7.8560
 0.4790	 7.8590
 0.4800	 7.8670
 0.4810	 7.8630
 0.4820	 7.8670
 0.4830	 7.8760
 0.4840	 7.8850
 0.4850	 7.8880
 0.4860	 7.8980
 0.4870	 7.9100
 0.4880	 7.9250
 0.4890	 7.9560
 0.4900	 7.9760
 0.4910	 7.9940
 0.4920	 8.0270
 0.4930	 8.0470
 0.4940	 8.0750
 0.4950	 8.1180
 0.4960	 8.1500
 0.4970	 8.1880
 0.4980	 8.2360
 0.4990	 8.2890
 0.5000	 8.3300
 0.5010	 8.3810
 0.5020	 8.4450
 0.5030	 8.5040
 0.5040	 8.5680
 0.5050	 8.6390
 0.5060	 8.7160
 0.5070	 8.7930
 0.5080	 8.8870
 0.5090	 8.9940
 0.5100	 9.1010
 0.5110	 9.2240
 0.5120	 9.3510
 0.5130	 9.4810
 0.5140	 9.6270
 0.5150	 9.7850
 0.5160	 9.9550
 0.5170	10.1360
 0.5180	10.3200
 0.5190	10.5070
 0.5200	10.7030
 0.5210	10.9170
 0.5220	11.1320
 0.5230	11.3380
 0.5240	11.5330
 0.5250	11.7350
 0.5260	11.9290
 0.5270	12.1110
 0.5280	12.2830
 0.5290	12.4370
 0.5300	12.5820
 0.5310	12.7190
 0.5320	12.8350
 0.5330	12.9390
 0.5340	13.0360
 0.5350	13.1260
 0.5360	13.1990
 0.5370	13.2600
 0.5380	13.3140
 0.5390	13.3690
 0.5400	13.4100
 0.5410	13.4420
 0.5420	13.4710
 0.5430	13.4990
 0.5440	13.5440
 0.5450	13.6000
 0.5460	13.6520
 0.5470	13.6890
 0.5480	13.7150
 0.5490	13.7370
 0.5500	13.7570
 0.5510	13.7740
 0.5520	13.7840
 0.5530	13.7800
 0.5540	13.7590
 0.5550	13.7290
 0.5560	13.6860
 0.5570	13.6220
 0.5580	13.5510
 0.5590	13.4710
 0.5600	13.3780
 0.5610	13.2750
 0.5620	13.1670
 0.5630	13.0510
 0.5640	12.9270
 0.5650	12.8020
 0.5660	12.6730
 0.5670	12.5370
 0.5680	12.3980
 0.5690	12.2570
 0.5700	12.1150
 0.5710	11.9720
 0.5720	11.8400
 0.5730	11.7190
 0.5740	11.6040
 0.5750	11.4930
 0.5760	11.3960
 0.5770	11.3030
 0.5780	11.2070
 0.5790	11.1170
 0.5800	11.0350
 0.5810	10.9620
 0.5820	10.8960
 0.5830	10.8310
 0.5840	10.7720
 0.5850	10.7220
 0.5860	10.6760
 0.5870	10.6280
 0.5880	10.5810
 0.5890	10.5400
 0.5900	10.4970
 0.5910	10.4640
 0.5920	10.4410
 0.5930	10.4190
 0.5940	10.4050
 0.5950	10.3870
 0.5960	10.3630
 0.5970	10.3460
 0.5980	10.3280
 0.5990	10.3090
 0.6000	10.2890
 0.6010	10.2650
 0.6020	10.2370
 0.6030	10.2050
 0.6040	10.1710
 0.6050	10.1300
 0.6060	10.0840
 0.6070	10.0350
 0.6080	 9.9810
 0.6090	 9.9200
 0.6100	 9.8490
 0.6110	 9.7730
 0.6120	 9.7260
 0.6130	 9.6880
 0.6140	 9.6450
 0.6150	 9.5990
 0.6160	 9.5610
 0.6170	 9.5250
 0.6180	 9.4870
 0.6190	 9.4520
 0.6200	 9.4180
 0.6210	 9.3840
 0.6220	 9.3580
 0.6230	 9.3410
 0.6240	 9.3270
 0.6250	 9.3130
 0.6260	 9.2940
 0.6270	 9.2870
 0.6280	 9.2860
 0.6290	 9.2800
 0.6300	 9.2660
 0.6310	 9.2540
 0.6320	 9.2480
 0.6330	 9.2390
 0.6340	 9.2290
 0.6350	 9.2090
 0.6360	 9.1750
 0.6370	 9.1440
 0.6380	 9.1070
 0.6390	 9.0650
 0.6400	 9.0180
 0.6410	 8.9660
 0.6420	 8.9150
 0.6430	 8.8660
 0.6440	 8.8130
 0.6450	 8.7600
 0.6460	 8.7100
 0.6470	 8.6660
 0.6480	 8.6240
 0.6490	 8.5810
 0.6500	 8.5400
 0.6510	 8.5110
 0.6520	 8.4900
 0.6530	 8.4670
 0.6540	 8.4380
 0.6550	 8.4170
 0.6560	 8.3900
 0.6570	 8.3570
 0.6580	 8.3270
 0.6590	 8.2930
 0.6600	 8.2600
 0.6610	 8.2250
 0.6620	 8.1800
 0.6630	 8.1450
 0.6640	 8.1180
 0.6650	 8.0900
 0.6660	 8.0650
 0.6670	 8.0430
 0.6680	 8.0270
 0.6690	 8.0190
 0.6700	 8.0110
 0.6710	 8.0090
 0.6720	 8.0170
 0.6730	 8.0330
 0.6740	 8.0440
 0.6750	 8.0590
 0.6760	 8.0840
 0.6770	 8.1080
 0.6780	 8.1360
 0.6790	 8.1720
 0.6800	 8.2180
 0.6810	 8.2650
 0.6820	 8.3180
 0.6830	 8.3810
 0.6840	 8.4590
 0.6850	 8.5410
 0.6860	 8.6360
 0.6870	 8.7510
 0.6880	 8.8770
 0.6890	 9.0270
 0.6900	 9.2040
 0.6910	 9.4000
 0.6920	 9.6400
 0.6930	 9.9270
 0.6940	10.2600
 0.6950	10.6470
 0.6960	11.0960
 0.6970	11.6110
 0.6980	12.1890
 0.6990	12.8260
 0.7000	13.5240
 0.7010	14.2770
 0.7020	15.0700
 0.7030	15.8990
 0.7040	16.7570
 0.7050	17.6350
 0.7060	18.5330
 0.7070	19.4370
 0.7080	20.3460
 0.7090	21.2650
 0.7100	22.1850
 0.7110	23.1000
 0.7120	24.0090
 0.7130	24.9100
 0.7140	25.8130
 0.7150	26.7100
 0.7160	27.5900
 0.7170	28.4530
 0.7180	29.3040
 0.7190	30.1420
 0.7200	30.9610
 0.7210	31.7590
 0.7220	32.5410
 0.7230	33.3030
 0.7240	34.0330
 0.7250	34.7380
 0.7260	35.4190
 0.7270	36.0730
 0.7280	36.7020
 0.7290	37.3010
 0.7300	37.8720
 0.7310	38.4170
 0.7320	38.9390
 0.7330	39.4290
 0.7340	39.8860
 0.7350	40.3100
 0.7360	40.7240
 0.7370	41.1230
 0.7380	41.4980
 0.7390	41.8400
 0.7400	42.1600
 0.7410	42.4580
 0.7420	42.7340
 0.7430	42.9910
 0.7440	43.2330
 0.7450	43.4590
 0.7460	43.6640
 0.7470	43.8490
 0.7480	44.0220
 0.7490	44.1850
 0.7500	44.3300
 0.7510	44.4620
 0.7520	44.5790
 0.7530	44.6810
 0.7540	44.7800
 0.7550	44.8690
 0.7560	44.9470
 0.7570	45.0180
 0.7580	45.0780
 0.7590	45.1350
 0.7600	45.1950
 0.7610	45.2520
 0.7620	45.2930
 0.7630	45.3270
 0.7640	45.3650
 0.7650	45.3920
 0.7660	45.4240
 0.7670	45.4560
 0.7680	45.4770
 0.7690	45.4960
 0.7700	45.5130
 0.7710	45.5310
 0.7720	45.5600
 0.7730	45.5660
 0.7740	45.5690
 0.7750	45.5900
 0.7760	45.6110
 0.7770	45.6240
 0.7780	45.6320
 0.7790	45.6410
 0.7800	45.6490
 0.7810	45.6540
 0.7820	45.6620
 0.7830	45.6890
 0.7840	45.7030
 0.7850	45.7140
 0.7860	45.7280
 0.7870	45.7310
 0.7880	45.7390
 0.7890	45.7490
 0.7900	45.7540
 0.7910	45.7620
 0.7920	45.7760
 0.7930	45.7870
 0.7940	45.7850
 0.7950	45.7980
 0.7960	45.8100
 0.7970	45.8120
 0.7980	45.8060
 0.7990	45.7920
 0.8000	45.7930
 0.8010	45.8170
 0.8020	45.8210
 0.8030	45.8190
 0.8040	45.8140
 0.8050	45.8100
 0.8060	45.8210
 0.8070	45.8190
 0.8080	45.8080
 0.8090	45.8190
 0.8100	45.8230
 0.8110	45.8120
 0.8120	45.7960
 0.8130	45.7990
 0.8140	45.8040
 0.8150	45.8020
 0.8160	45.7900
 0.8170	45.7820
 0.8180	45.7740
 0.8190	45.7690
 0.8200	45.7680
 0.8210	45.7600
 0.8220	45.7620
 0.8230	45.7680
 0.8240	45.7520
 0.8250	45.7320
 0.8260	45.7250
 0.8270	45.7340
 0.8280	45.7360
 0.8290	45.7370
 0.8300	45.7280
 0.8310	45.7080
 0.8320	45.7060
 0.8330	45.7140
 0.8340	45.7160
 0.8350	45.7020
 0.8360	45.6960
 0.8370	45.6960
 0.8380	45.6940
 0.8390	45.6810
 0.8400	45.6820
 0.8410	45.6820
 0.8420	45.6810
 0.8430	45.6930
 0.8440	45.6930
 0.8450	45.6920
 0.8460	45.7000
 0.8470	45.6950
 0.8480	45.6700
 0.8490	45.6520
 0.8500	45.6680
 0.8510	45.6780
 0.8520	45.6920
 0.8530	45.7000
 0.8540	45.6870
 0.8550	45.6910
 0.8560	45.6940
 0.8570	45.6930
 0.8580	45.7080
 0.8590	45.7220
 0.8600	45.7250
 0.8610	45.7200
 0.8620	45.7220
 0.8630	45.7200
 0.8640	45.7280
 0.8650	45.7520
 0.8660	45.7430
 0.8670	45.7410
 0.8680	45.7490
 0.8690	45.7540
 0.8700	45.7460
 0.8710	45.7480
 0.8720	45.7590
 0.8730	45.7660
 0.8740	45.7790
 0.8750	45.7890
 0.8760	45.7920
 0.8770	45.7910
 0.8780	45.7990
 0.8790	45.8060
 0.8800	45.8110
 0.8810	45.8300
 0.8820	45.8260
 0.8830	45.8250
 0.8840	45.8430
 0.8850	45.8430
 0.8860	45.8390
 0.8870	45.8400
 0.8880	45.8500
 0.8890	45.8500
 0.8900	45.8670
 0.8910	45.8870
 0.8920	45.8860
 0.8930	45.8770
 0.8940	45.8750
 0.8950	45.8840
 0.8960	45.8940
 0.8970	45.9130
 0.8980	45.9210
 0.8990	45.9220
 0.9000	45.9410
 0.9010	45.9330
 0.9020	45.9300
 0.9030	45.9450
 0.9040	45.9550
 0.9050	45.9560
 0.9060	45.9640
 0.9070	45.9820
 0.9080	45.9880
 0.9090	45.9830
 0.9100	45.9900
 0.9110	46.0140
 0.9120	45.9930
 0.9130	45.9980
 0.9140	46.0140
 0.9150	46.0130
 0.9160	46.0230
 0.9170	46.0240
 0.9180	46.0230
 0.9190	46.0310
 0.9200	46.0240
 0.9210	46.0130
 0.9220	46.0100
 0.9230	46.0210
 0.9240	46.0240
 0.9250	46.0290
 0.9260	46.0360
 0.9270	46.0400
 0.9280	46.0420
 0.9290	46.0270
 0.9300	46.0040
 0.9310	46.0050
 0.9320	46.0120
 0.9330	46.0200
 0.9340	46.0170
 0.9350	45.9850
 0.9360	45.9740
 0.9370	45.9800
 0.9380	45.9790
 0.9390	45.9420
 0.9400	45.9390
 0.9410	45.9490
 0.9420	45.9410
 0.9430	45.8970
 0.9440	45.8780
 0.9450	45.8700
 0.9460	45.8530
 0.9470	45.8230
 0.9480	45.7930
 0.9490	45.7720
 0.9500	45.7620
 0.9510	45.7560
 0.9520	45.7230
 0.9530	45.6750
 0.9540	45.6360
 0.9550	45.6100
 0.9560	45.5790
 0.9570	45.5450
 0.9580	45.5140
 0.9590	45.4900
 0.9600	45.4630
 0.9610	45.4390
 0.9620	45.4260
 0.9630	45.4260
 0.9640	45.4020
 0.9650	45.3750
 0.9660	45.3700
 0.9670	45.3480
 0.9680	45.3330
 0.9690	45.3280
 0.9700	45.3280
 0.9710	45.3230
 0.9720	45.3090
 0.9730	45.2920
 0.9740	45.2840
 0.9750	45.2890
 0.9760	45.2980
 0.9770	45.3060
 0.9780	45.3080
 0.9790	45.2920
 0.9800	45.2730
 0.9810	45.2640
 0.9820	45.2700
 0.9830	45.2720
 0.9840	45.2940
 0.9850	45.3060
 0.9860	45.2800
 0.9870	45.3160
 0.9880	45.3320
 0.9890	45.3180
 0.9900	45.3080
 0.9910	45.3260
 0.9920	45.3710
 0.9930	45.4170
 0.9940	45.4630
 0.9950	45.5080
 0.9960	45.5540
 0.9970	45.6000
 0.9980	45.6450
 0.9990	45.6910
 1.0000	45.7370
 1.0010	45.7820
 1.0020	45.8280
 1.0030	45.8740
 1.0040	45.9190
 1.0050	45.9650
 1.0060	46.0110
 1.0070	46.0560
 1.0080	46.1020
 1.0090	46.1480
 1.0100	46.1480
 1.0110	46.1600
 1.0120	46.1710
 1.0130	46.1860
 1.0140	46.1950
 1.0150	46.1970
 1.0160	46.2040
 1.0170	46.2100
 1.0180	46.2140
 1.0190	46.2210
 1.0200	46.2240
 1.0210	46.2330
 1.0220	46.2500
 1.0230	46.2600
 1.0240	46.2730
 1.0250	46.2860
 1.0260	46.2940
 1.0270	46.3010
 1.0280	46.3120
 1.0290	46.3190
 1.0300	46.3180
 1.0310	46.3250
 1.0320	46.3350
 1.0330	46.3460
 1.0340	46.3600
 1.0350	46.3710
 1.0360	46.3780
 1.0370	46.3870
 1.0380	46.3960
 1.0390	46.4050
 1.0400	46.4130
 1.0410	46.4250
 1.0420	46.4330
 1.0430	46.4370
 1.0440	46.4410
 1.0450	46.4400
 1.0460	46.4450
 1.0470	46.4500
 1.0480	46.4570
 1.0490	46.4710
 1.0500	46.4800
 1.0510	46.4840
 1.0520	46.4930
 1.0530	46.4980
 1.0540	46.4960
 1.0550	46.5030
 1.0560	46.5150
 1.0570	46.5220
 1.0580	46.5300
 1.0590	46.5380
 1.0600	46.5420
 1.0610	46.5470
 1.0620	46.5570
 1.0630	46.5610
 1.0640	46.5560
 1.0650	46.5570
 1.0660	46.5590
 1.0670	46.5610
 1.0680	46.5650
 1.0690	46.5740
 1.0700	46.5770
 1.0710	46.5770
 1.0720	46.5780
 1.0730	46.5760
 1.0740	46.5780
 1.0750	46.5820
 1.0760	46.5830
 1.0770	46.5870
 1.0780	46.5870
 1.0790	46.5810
 1.0800	46.5800
 1.0810	46.5840
 1.0820	46.5820
 1.0830	46.5790
 1.0840	46.5770
 1.0850	46.5750
 1.0860	46.5690
 1.0870	46.5660
 1.0880	46.5660
 1.0890	46.5640
 1.0900	46.5590
 1.0910	46.5560
 1.0920	46.5540
 1.0930	46.5510
 1.0940	46.5500
 1.0950	46.5460
 1.0960	46.5400
 1.0970	46.5340
 1.0980	46.5240
 1.0990	46.5170
 1.1000	46.5100
 1.1010	46.5040
 1.1020	46.4960
 1.1030	46.4920
 1.1040	46.4840
 1.1050	46.4730
 1.1060	46.4640
 1.1070	46.4550
 1.1080	46.4450
 1.1090	46.4370
 1.1100	46.4270
 1.1110	46.4140
 1.1120	46.4020
 1.1130	46.3920
 1.1140	46.3800
 1.1150	46.3680
 1.1160	46.3530
 1.1170	46.3370
 1.1180	46.3210
 1.1190	46.3030
 1.1200	46.2860
 1.1210	46.2680
 1.1220	46.2450
 1.1230	46.2190
 1.1240	46.1890
 1.1250	46.1610
 1.1260	46.1320
 1.1270	46.1000
 1.1280	46.0690
 1.1290	46.0330
 1.1300	45.9930
 1.1310	45.9480
 1.1320	45.9010
 1.1330	45.8490
 1.1340	45.7910
 1.1350	45.7310
 1.1360	45.6670
 1.1370	45.6000
 1.1380	45.5330
 1.1390	45.4620
 1.1400	45.3850
 1.1410	45.3090
 1.1420	45.2340
 1.1430	45.1560
 1.1440	45.0780
 1.1450	45.0000
 1.1460	44.9240
 1.1470	44.8430
 1.1480	44.7700
 1.1490	44.7010
 1.1500	44.6340
 1.1510	44.5700
 1.1520	44.5120
 1.1530	44.4580
 1.1540	44.4070
 1.1550	44.3610
 1.1560	44.3170
 1.1570	44.2770
 1.1580	44.2430
 1.1590	44.2140
 1.1600	44.1860
 1.1610	44.1590
 1.1620	44.1350
 1.1630	44.1130
 1.1640	44.0970
 1.1650	44.0840
 1.1660	44.0760
 1.1670	44.0670
 1.1680	44.0620
 1.1690	44.0530
 1.1700	44.0420
 1.1710	44.0330
 1.1720	44.0200
 1.1730	44.0120
 1.1740	44.0090
 1.1750	44.0010
 1.1760	43.9940
 1.1770	43.9920
 1.1780	43.9870
 1.1790	43.9820
 1.1800	43.9780
 1.1810	43.9680
 1.1820	43.9590
 1.1830	43.9490
 1.1840	43.9360
 1.1850	43.9270
 1.1860	43.9200
 1.1870	43.9110
 1.1880	43.9030
 1.1890	43.8980
 1.1900	43.8910
 1.1910	43.8810
 1.1920	43.8770
 1.1930	43.8770
 1.1940	43.8760
 1.1950	43.8790
 1.1960	43.8790
 1.1970	43.8770
 1.1980	43.8770
 1.1990	43.8780
 1.2000	43.8810
 1.2010	43.8850
 1.2020	43.8860
 1.2030	43.8860
 1.2040	43.8880
 1.2050	43.8890
 1.2060	43.8940
 1.2070	43.9030
 1.2080	43.9100
 1.2090	43.9200
 1.2100	43.9340
 1.2110	43.9450
 1.2120	43.9540
 1.2130	43.9660
 1.2140	43.9790
 1.2150	43.9930
 1.2160	44.0100
 1.2170	44.0260
 1.2180	44.0370
 1.2190	44.0490
 1.2200	44.0650
 1.2210	44.0820
 1.2220	44.1040
 1.2230	44.1250
 1.2240	44.1440
 1.2250	44.1600
 1.2260	44.1760
 1.2270	44.1930
 1.2280	44.2070
 1.2290	44.2240
 1.2300	44.2410
 1.2310	44.2580
 1.2320	44.2780
 1.2330	44.2940
 1.2340	44.3090
 1.2350	44.3230
 1.2360	44.3350
 1.2370	44.3440
 1.2380	44.3540
 1.2390	44.3660
 1.2400	44.3750
 1.2410	44.3850
 1.2420	44.3920
 1.2430	44.3980
 1.2440	44.4050
 1.2450	44.4110
 1.2460	44.4180
 1.2470	44.4260
 1.2480	44.4370
 1.2490	44.4460
 1.2500	44.4510
 1.2510	44.4610
 1.2520	44.4680
 1.2530	44.4720
 1.2540	44.4800
 1.2550	44.4820
 1.2560	44.4840
 1.2570	44.4890
 1.2580	44.4890
 1.2590	44.4920
 1.2600	44.4960
 1.2610	44.4980
 1.2620	44.5000
 1.2630	44.5030
 1.2640	44.5010
 1.2650	44.4950
 1.2660	44.4880
 1.2670	44.4850
 1.2680	44.4840
 1.2690	44.4810
 1.2700	44.4790
 1.2710	44.4740
 1.2720	44.4670
 1.2730	44.4680
 1.2740	44.4650
 1.2750	44.4570
 1.2760	44.4520
 1.2770	44.4470
 1.2780	44.4380
 1.2790	44.4310
 1.2800	44.4260
 1.2810	44.4140
 1.2820	44.4040
 1.2830	44.3970
 1.2840	44.3870
 1.2850	44.3790
 1.2860	44.3660
 1.2870	44.3520
 1.2880	44.3370
 1.2890	44.3220
 1.2900	44.3010
 1.2910	44.2840
 1.2920	44.2690
 1.2930	44.2460
 1.2940	44.2250
 1.2950	44.2040
 1.2960	44.1800
 1.2970	44.1560
 1.2980	44.1330
 1.2990	44.1090
 1.3000	44.0800
 1.3010	44.0480
 1.3020	44.0130
 1.3030	43.9760
 1.3040	43.9390
 1.3050	43.9000
 1.3060	43.8620
 1.3070	43.8230
 1.3080	43.7800
 1.3090	43.7340
 1.3100	43.6810
 1.3110	43.6250
 1.3120	43.5720
 1.3130	43.5160
 1.3140	43.4590
 1.3150	43.4050
 1.3160	43.3430
 1.3170	43.2770
 1.3180	43.2110
 1.3190	43.1410
 1.3200	43.0640
 1.3210	42.9900
 1.3220	42.9140
 1.3230	42.8370
 1.3240	42.7570
 1.3250	42.6720
 1.3260	42.5860
 1.3270	42.4990
 1.3280	42.4110
 1.3290	42.3250
 1.3300	42.2400
 1.3310	42.1560
 1.3320	42.0680
 1.3330	41.9790
 1.3340	41.8870
 1.3350	41.7890
 1.3360	41.6910
 1.3370	41.5940
 1.3380	41.4930
 1.3390	41.3940
 1.3400	41.2930
 1.3410	41.1900
 1.3420	41.0880
 1.3430	40.9870
 1.3440	40.8900
 1.3450	40.7890
 1.3460	40.6860
 1.3470	40.5840
 1.3480	40.4780
 1.3490	40.3750
 1.3500	40.2730
 1.3510	40.1740
 1.3520	40.0690
 1.3530	39.9630
 1.3540	39.8580
 1.3550	39.7490
 1.3560	39.6460
 1.3570	39.5460
 1.3580	39.4440
 1.3590	39.3440
 1.3600	39.2430
 1.3610	39.1380
 1.3620	39.0300
 1.3630	38.9210
 1.3640	38.8090
 1.3650	38.6930
 1.3660	38.5710
 1.3670	38.4450
 1.3680	38.3120
 1.3690	38.1700
 1.3700	38.0210
 1.3710	37.8590
 1.3720	37.6850
 1.3730	37.4970
 1.3740	37.2960
 1.3750	37.0790
 1.3760	36.8440
 1.3770	36.5910
 1.3780	36.3170
 1.3790	36.0260
 1.3800	35.7190
 1.3810	35.3860
 1.3820	35.0370
 1.3830	34.6700
 1.3840	34.2880
 1.3850	33.8900
 1.3860	33.4770
 1.3870	33.0500
 1.3880	32.6110
 1.3890	32.1560
 1.3900	31.6900
 1.3910	31.2220
 1.3920	30.7410
 1.3930	30.2510
 1.3940	29.7610
 1.3950	29.2630
 1.3960	28.7680
 1.3970	28.2790
 1.3980	27.7950
 1.3990	27.3270
 1.4000	26.8690
 1.4010	26.4220
 1.4020	25.9890
 1.4030	25.5660
 1.4040	25.1620
 1.4050	24.7760
 1.4060	24.4070
 1.4070	24.0610
 1.4080	23.7330
 1.4090	23.4200
 1.4100	23.1280
 1.4110	22.8520
 1.4120	22.5960
 1.4130	22.3580
 1.4140	22.1390
 1.4150	21.9390
 1.4160	21.7530
 1.4170	21.5790
 1.4180	21.4220
 1.4190	21.2790
 1.4200	21.1480
 1.4210	21.0300
 1.4220	20.9230
 1.4230	20.8270
 1.4240	20.7420
 1.4250	20.6650
 1.4260	20.5980
 1.4270	20.5370
 1.4280	20.4850
 1.4290	20.4390
 1.4300	20.4000
 1.4310	20.3670
 1.4320	20.3430
 1.4330	20.3220
 1.4340	20.3070
 1.4350	20.2960
 1.4360	20.2900
 1.4370	20.2870
 1.4380	20.2880
 1.4390	20.2920
 1.4400	20.2980
 1.4410	20.3090
 1.4420	20.3220
 1.4430	20.3380
 1.4440	20.3560
 1.4450	20.3750
 1.4460	20.3970
 1.4470	20.4210
 1.4480	20.4460
 1.4490	20.4710
 1.4500	20.4970
 1.4510	20.5220
 1.4520	20.5520
 1.4530	20.5830
 1.4540	20.6150
 1.4550	20.6490
 1.4560	20.6850
 1.4570	20.7230
 1.4580	20.7640
 1.4590	20.8100
 1.4600	20.8590
 1.4610	20.9120
 1.4620	20.9700
 1.4630	21.0320
 1.4640	21.0980
 1.4650	21.1690
 1.4660	21.2430
 1.4670	21.3220
 1.4680	21.4060
 1.4690	21.4940
 1.4700	21.5860
 1.4710	21.6810
 1.4720	21.7790
 1.4730	21.8800
 1.4740	21.9880
 1.4750	22.0980
 1.4760	22.2110
 1.4770	22.3270
 1.4780	22.4430
 1.4790	22.5640
 1.4800	22.6870
 1.4810	22.8100
 1.4820	22.9360
 1.4830	23.0600
 1.4840	23.1850
 1.4850	23.3070
 1.4860	23.4280
 1.4870	23.5520
 1.4880	23.6770
 1.4890	23.8020
 1.4900	23.9260
 1.4910	24.0510
 1.4920	24.1740
 1.4930	24.2940
 1.4940	24.4170
 1.4950	24.5420
 1.4960	24.6660
 1.4970	24.7900
 1.4980	24.9140
 1.4990	25.0360
 1.5000	25.1590
 1.5010	25.2840
 1.5020	25.4070
 1.5030	25.5300
 1.5040	25.6510
 1.5050	25.7690
 1.5060	25.8880
 1.5070	26.0090
 1.5080	26.1270
 1.5090	26.2440
 1.5100	26.3600
 1.5110	26.4750
 1.5120	26.5890
 1.5130	26.7020
 1.5140	26.8150
 1.5150	26.9270
 1.5160	27.0390
 1.5170	27.1520
 1.5180	27.2630
 1.5190	27.3720
 1.5200	27.4800
 1.5210	27.5850
 1.5220	27.6930
 1.5230	27.8010
 1.5240	27.9070
 1.5250	28.0100
 1.5260	28.1120
 1.5270	28.2110
 1.5280	28.3080
 1.5290	28.4050
 1.5300	28.5000
 1.5310	28.5920
 1.5320	28.6860
 1.5330	28.7790
 1.5340	28.8710
 1.5350	28.9630
 1.5360	29.0530
 1.5370	29.1410
 1.5380	29.2290
 1.5390	29.3180
 1.5400	29.4060
 1.5410	29.4940
 1.5420	29.5770
 1.5430	29.6580
 1.5440	29.7410
 1.5450	29.8220
 1.5460	29.9020
 1.5470	29.9840
 1.5480	30.0630
 1.5490	30.1420
 1.5500	30.2200
 1.5510	30.2970
 1.5520	30.3740
 1.5530	30.4510
 1.5540	30.5270
 1.5550	30.6000
 1.5560	30.6700
 1.5570	30.7370
 1.5580	30.8060
 1.5590	30.8780
 1.5600	30.9490
 1.5610	31.0180
 1.5620	31.0830
 1.5630	31.1470
 1.5640	31.2100
 1.5650	31.2740
 1.5660	31.3390
 1.5670	31.4010
 1.5680	31.4640
 1.5690	31.5260
 1.5700	31.5860
 1.5710	31.6450
 1.5720	31.7030
 1.5730	31.7620
 1.5740	31.8170
 1.5750	31.8750
 1.5760	31.9360
 1.5770	31.9940
 1.5780	32.0520
 1.5790	32.1080
 1.5800	32.1610
 1.5810	32.2150
 1.5820	32.2700
 1.5830	32.3260
 1.5840	32.3790
 1.5850	32.4290
 1.5860	32.4800
 1.5870	32.5310
 1.5880	32.5820
 1.5890	32.6340
 1.5900	32.6840
 1.5910	32.7310
 1.5920	32.7790
 1.5930	32.8270
 1.5940	32.8740
 1.5950	32.9220
 1.5960	32.9700
 1.5970	33.0170
 1.5980	33.0610
 1.5990	33.1090
 1.6000	33.1570
 1.6010	33.2030
 1.6020	33.2530
 1.6030	33.3010
 1.6040	33.3450
 1.6050	33.3900
 1.6060	33.4340
 1.6070	33.4760
 1.6080	33.5200
 1.6090	33.5630
 1.6100	33.6040
 1.6110	33.6430
 1.6120	33.6780
 1.6130	33.7140
 1.6140	33.7470
 1.6150	33.7790
 1.6160	33.8140
 1.6170	33.8460
 1.6180	33.8760
 1.6190	33.9080
 1.6200	33.9360
 1.6210	33.9650
 1.6220	33.9980
 1.6230	34.0310
 1.6240	34.0640
 1.6250	34.0960
 1.6260	34.1250
 1.6270	34.1560
 1.6280	34.1890
 1.6290	34.2190
 1.6300	34.2480
 1.6310	34.2760
 1.6320	34.3030
 1.6330	34.3280
 1.6340	34.3530
 1.6350	34.3750
 1.6360	34.3930
 1.6370	34.4120
 1.6380	34.4350
 1.6390	34.4520
 1.6400	34.4680
 1.6410	34.4800
 1.6420	34.4880
 1.6430	34.4980
 1.6440	34.5070
 1.6450	34.5140
 1.6460	34.5180
 1.6470	34.5150
 1.6480	34.5140
 1.6490	34.5150
 1.6500	34.5140
 1.6510	34.5140
 1.6520	34.5120
 1.6530	34.5010
 1.6540	34.4900
 1.6550	34.4770
 1.6560	34.4620
 1.6570	34.4510
 1.6580	34.4400
 1.6590	34.4260
 1.6600	34.4110
 1.6610	34.3970
 1.6620	34.3810
 1.6630	34.3630
 1.6640	34.3490
 1.6650	34.3310
 1.6660	34.3150
 1.6670	34.3020
 1.6680	34.2870
 1.6690	34.2730
 1.6700	34.2590
 1.6710	34.2440
 1.6720	34.2300
 1.6730	34.2160
 1.6740	34.2020
 1.6750	34.1860
 1.6760	34.1710
 1.6770	34.1590
 1.6780	34.1440
 1.6790	34.1290
 1.6800	34.1150
 1.6810	34.1000
 1.6820	34.0860
 1.6830	34.0690
 1.6840	34.0490
 1.6850	34.0230
 1.6860	33.9910
 1.6870	33.9620
 1.6880	33.9320
 1.6890	33.8950
 1.6900	33.8590
 1.6910	33.8190
 1.6920	33.7820
 1.6930	33.7440
 1.6940	33.7090
 1.6950	33.6770
 1.6960	33.6400
 1.6970	33.6050
 1.6980	33.5660
 1.6990	33.5190
 1.7000	33.4770
 1.7010	33.4370
 1.7020	33.3920
 1.7030	33.3470
 1.7040	33.3000
 1.7050	33.2480
 1.7060	33.2000
 1.7070	33.1580
 1.7080	33.1100
 1.7090	33.0620
 1.7100	33.0100
 1.7110	32.9530
 1.7120	32.8970
 1.7130	32.8450
 1.7140	32.7940
 1.7150	32.7460
 1.7160	32.6960
 1.7170	32.6450
 1.7180	32.5990
 1.7190	32.5500
 1.7200	32.5020
 1.7210	32.4600
 1.7220	32.4160
 1.7230	32.3700
 1.7240	32.3280
 1.7250	32.2850
 1.7260	32.2400
 1.7270	32.1980
 1.7280	32.1610
 1.7290	32.1250
 1.7300	32.0930
 1.7310	32.0600
 1.7320	32.0220
 1.7330	31.9920
 1.7340	31.9670
 1.7350	31.9400
 1.7360	31.9190
 1.7370	31.8920
 1.7380	31.8620
 1.7390	31.8340
 1.7400	31.8030
 1.7410	31.7750
 1.7420	31.7510
 1.7430	31.7190
 1.7440	31.6860
 1.7450	31.6480
 1.7460	31.6030
 1.7470	31.5590
 1.7480	31.5140
 1.7490	31.4670
 1.7500	31.4180
 1.7510	31.3670
 1.7520	31.3130
 1.7530	31.2600
 1.7540	31.2060
 1.7550	31.1520
 1.7560	31.0940
 1.7570	31.0400
 1.7580	30.9890
 1.7590	30.9390
 1.7600	30.8960
 1.7610	30.8490
 1.7620	30.8020
 1.7630	30.7520
 1.7640	30.7080
 1.7650	30.6650
 1.7660	30.6260
 1.7670	30.5930
 1.7680	30.5610
 1.7690	30.5320
 1.7700	30.5030
 1.7710	30.4770
 1.7720	30.4510
 1.7730	30.4250
 1.7740	30.3990
 1.7750	30.3750
 1.7760	30.3480
 1.7770	30.3200
 1.7780	30.2940
 1.7790	30.2640
 1.7800	30.2430
 1.7810	30.2260
 1.7820	30.2080
 1.7830	30.1930
 1.7840	30.1740
 1.7850	30.1520
 1.7860	30.1350
 1.7870	30.1180
 1.7880	30.1030
 1.7890	30.0880
 1.7900	30.0720
 1.7910	30.0570
 1.7920	30.0400
 1.7930	30.0300
 1.7940	30.0230
 1.7950	30.0160
 1.7960	30.0150
 1.7970	30.0100
 1.7980	30.0040
 1.7990	29.9970
 1.8000	29.9900
 1.8010	29.9850
 1.8020	29.9820
 1.8030	29.9790
 1.8040	29.9770
 1.8050	29.9760
 1.8060	29.9760
 1.8070	29.9750
 1.8080	29.9770
 1.8090	29.9770
 1.8100	29.9740
 1.8110	29.9760
 1.8120	29.9750
 1.8130	29.9710
 1.8140	29.9660
 1.8150	29.9560
 1.8160	29.9420
 1.8170	29.9310
 1.8180	29.9210
 1.8190	29.9120
 1.8200	29.9060
 1.8210	29.9010
 1.8220	29.8950
 1.8230	29.8930
 1.8240	29.8840
 1.8250	29.8700
 1.8260	29.8550
 1.8270	29.8620
 1.8280	29.8680
 1.8290	29.8740
 1.8300	29.8810
 1.8310	29.8870
 1.8320	29.8930
 1.8330	29.8990
 1.8340	29.9060
 1.8350	29.9060
 1.8360	29.8580
 1.8370	29.8120
 1.8380	29.7730
 1.8390	29.7280
 1.8400	29.6890
 1.8410	29.6330
 1.8420	29.5710
 1.8430	29.4970
 1.8440	29.4120
 1.8450	29.3270
 1.8460	29.2420
 1.8470	29.1470
 1.8480	29.0420
 1.8490	28.9270
 1.8500	28.8040
 1.8510	28.6720
 1.8520	28.5280
 1.8530	28.3740
 1.8540	28.2140
 1.8550	28.0380
 1.8560	27.8510
 1.8570	27.6510
 1.8580	27.4380
 1.8590	27.2130
 1.8600	26.9760
 1.8610	26.7230
 1.8620	26.4580
 1.8630	26.1760
 1.8640	25.8710
 1.8650	25.5500
 1.8660	25.2070
 1.8670	24.8400
 1.8680	24.4600
 1.8690	24.0610
 1.8700	23.6400
 1.8710	23.2000
 1.8720	22.7540
 1.8730	22.2840
 1.8740	21.7940
 1.8750	21.3060
 1.8760	20.7990
 1.8770	20.2870
 1.8780	19.7760
 1.8790	19.2500
 1.8800	18.7290
 1.8810	18.2050
 1.8820	17.6790
 1.8830	17.1540
 1.8840	16.6370
 1.8850	16.1190
 1.8860	15.6060
 1.8870	15.1020
 1.8880	14.6000
 1.8890	14.1220
 1.8900	13.6670
 1.8910	13.2330
 1.8920	12.8140
 1.8930	12.4300
 1.8940	12.0630
 1.8950	11.7170
 1.8960	11.3970
 1.8970	11.0930
 1.8980	10.8150
 1.8990	10.5650
 1.9000	10.3350
 1.9010	10.1300
 1.9020	 9.9420
 1.9030	 9.7790
 1.9040	 9.6240
 1.9050	 9.4810
 1.9060	 9.3590
 1.9070	 9.2490
 1.9080	 9.1560
 1.9090	 9.0770
 1.9100	 9.0050
 1.9110	 8.9390
 1.9120	 8.8780
 1.9130	 8.8290
 1.9140	 8.7890
 1.9150	 8.7570
 1.9160	 8.7260
 1.9170	 8.7010
 1.9180	 8.6780
 1.9190	 8.6560
 1.9200	 8.6440
 1.9210	 8.6390
 1.9220	 8.6320
 1.9230	 8.6250
 1.9240	 8.6240
 1.9250	 8.6250
 1.9260	 8.6290
 1.9270	 8.6400
 1.9280	 8.6560
 1.9290	 8.6710
 1.9300	 8.6860
 1.9310	 8.7020
 1.9320	 8.7230
 1.9330	 8.7430
 1.9340	 8.7640
 1.9350	 8.7890
 1.9360	 8.8130
 1.9370	 8.8430
 1.9380	 8.8760
 1.9390	 8.9170
 1.9400	 8.9560
 1.9410	 8.9930
 1.9420	 9.0260
 1.9430	 9.0580
 1.9440	 9.0950
 1.9450	 9.1320
 1.9460	 9.1730
 1.9470	 9.2230
 1.9480	 9.2680
 1.9490	 9.3110
 1.9500	 9.3580
 1.9510	 9.4100
 1.9520	 9.4610
 1.9530	 9.5180
 1.9540	 9.5760
 1.9550	 9.6290
 1.9560	 9.6760
 1.9570	 9.7280
 1.9580	 9.7790
 1.9590	 9.8340
 1.9600	 9.8940
 1.9610	 9.9550
 1.9620	10.0160
 1.9630	10.0800
 1.9640	10.1460
 1.9650	10.2100
 1.9660	10.2750
 1.9670	10.3360
 1.9680	10.3990
 1.9690	10.4590
 1.9700	10.5270
 1.9710	10.6020
 1.9720	10.6740
 1.9730	10.7520
 1.9740	10.8250
 1.9750	10.8980
 1.9760	10.9720
 1.9770	11.0440
 1.9780	11.1200
 1.9790	11.1980
 1.9800	11.2740
 1.9810	11.3560
 1.9820	11.4440
 1.9830	11.5280
 1.9840	11.6140
 1.9850	11.6970
 1.9860	11.7770
 1.9870	11.8540
 1.9880	11.9340
 1.9890	12.0200
 1.9900	12.1030
 1.9910	12.1860
 1.9920	12.2660
 1.9930	12.3410
 1.9940	12.4240
 1.9950	12.5100
 1.9960	12.5960
 1.9970	12.6890
 1.9980	12.7770
 1.9990	12.8650
 2.0000	12.9500
 2.0010	13.0300
 2.0020	13.1140
 2.0030	13.1970
 2.0040	13.2750
 2.0050	13.3560
 2.0060	13.4400
 2.0070	13.5210
 2.0080	13.6000
 2.0090	13.6820
 2.0100	13.7640
 2.0110	13.8440
 2.0120	13.9240
 2.0130	14.0040
 2.0140	14.0790
 2.0150	14.1590
 2.0160	14.2410
 2.0170	14.3200
 2.0180	14.3960
 2.0190	14.4710
 2.0200	14.5440
 2.0210	14.6140
 2.0220	14.6830
 2.0230	14.7480
 2.0240	14.8160
 2.0250	14.8820
 2.0260	14.9470
 2.0270	15.0150
 2.0280	15.0760
 2.0290	15.1330
 2.0300	15.1910
 2.0310	15.2480
 2.0320	15.3020
 2.0330	15.3570
 2.0340	15.4110
 2.0350	15.4660
 2.0360	15.5230
 2.0370	15.5770
 2.0380	15.6300
 2.0390	15.6830
 2.0400	15.7350
 2.0410	15.7850
 2.0420	15.8360
 2.0430	15.8850
 2.0440	15.9280
 2.0450	15.9640
 2.0460	16.0050
 2.0470	16.0420
 2.0480	16.0840
 2.0490	16.1310
 2.0500	16.1760
 2.0510	16.2250
 2.0520	16.2700
 2.0530	16.3120
 2.0540	16.3590
 2.0550	16.4040
 2.0560	16.4530
 2.0570	16.5080
 2.0580	16.5590
 2.0590	16.6050
 2.0600	16.6470
 2.0610	16.6920
 2.0620	16.7310
 2.0630	16.7760
 2.0640	16.8250
 2.0650	16.8730
 2.0660	16.9250
 2.0670	16.9710
 2.0680	17.0110
 2.0690	17.0560
 2.0700	17.1000
 2.0710	17.1430
 2.0720	17.1870
 2.0730	17.2340
 2.0740	17.2790
 2.0750	17.3200
 2.0760	17.3650
 2.0770	17.4120
 2.0780	17.4580
 2.0790	17.5040
 2.0800	17.5510
 2.0810	17.6020
 2.0820	17.6490
 2.0830	17.6940
 2.0840	17.7390
 2.0850	17.7810
 2.0860	17.8240
 2.0870	17.8680
 2.0880	17.9110
 2.0890	17.9510
 2.0900	17.9890
 2.0910	18.0280
 2.0920	18.0620
 2.0930	18.1010
 2.0940	18.1420
 2.0950	18.1820
 2.0960	18.2260
 2.0970	18.2630
 2.0980	18.2940
 2.0990	18.3290
 2.1000	18.3610
 2.1010	18.3950
 2.1020	18.4320
 2.1030	18.4720
 2.1040	18.5180
 2.1050	18.5570
 2.1060	18.5950
 2.1070	18.6330
 2.1080	18.6710
 2.1090	18.7040
 2.1100	18.7400
 2.1110	18.7770
 2.1120	18.8140
 2.1130	18.8490
 2.1140	18.8840
 2.1150	18.9210
 2.1160	18.9570
 2.1170	18.9900
 2.1180	19.0240
 2.1190	19.0590
 2.1200	19.0910
 2.1210	19.1230
 2.1220	19.1490
 2.1230	19.1740
 2.1240	19.1960
 2.1250	19.2180
 2.1260	19.2360
 2.1270	19.2560
 2.1280	19.2750
 2.1290	19.2990
 2.1300	19.3260
 2.1310	19.3520
 2.1320	19.3850
 2.1330	19.4100
 2.1340	19.4270
 2.1350	19.4490
 2.1360	19.4700
 2.1370	19.4900
 2.1380	19.5130
 2.1390	19.5360
 2.1400	19.5540
 2.1410	19.5750
 2.1420	19.5970
 2.1430	19.6210
 2.1440	19.6440
 2.1450	19.6680
 2.1460	19.6910
 2.1470	19.7130
 2.1480	19.7350
 2.1490	19.7580
 2.1500	19.7780
 2.1510	19.7970
 2.1520	19.8160
 2.1530	19.8340
 2.1540	19.8500
 2.1550	19.8660
 2.1560	19.8800
 2.1570	19.8870
 2.1580	19.8980
 2.1590	19.9060
 2.1600	19.9190
 2.1610	19.9460
 2.1620	19.9730
 2.1630	19.9930
 2.1640	20.0190
 2.1650	20.0360
 2.1660	20.0430
 2.1670	20.0570
 2.1680	20.0730
 2.1690	20.0860
 2.1700	20.0930
 2.1710	20.1080
 2.1720	20.1270
 2.1730	20.1430
 2.1740	20.1600
 2.1750	20.1780
 2.1760	20.1900
 2.1770	20.2090
 2.1780	20.2380
 2.1790	20.2620
 2.1800	20.2850
 2.1810	20.3100
 2.1820	20.3400
 2.1830	20.3640
 2.1840	20.3860
 2.1850	20.4100
 2.1860	20.4290
 2.1870	20.4340
 2.1880	20.4560
 2.1890	20.4830
 2.1900	20.5090
 2.1910	20.5460
 2.1920	20.5740
 2.1930	20.5990
 2.1940	20.6230
 2.1950	20.6440
 2.1960	20.6630
 2.1970	20.6760
 2.1980	20.6940
 2.1990	20.7120
 2.2000	20.7290
 2.2010	20.7490
 2.2020	20.7680
 2.2030	20.7850
 2.2040	20.8030
 2.2050	20.8220
 2.2060	20.8410
 2.2070	20.8570
 2.2080	20.8700
 2.2090	20.8830
 2.2100	20.8930
 2.2110	20.9040
 2.2120	20.9120
 2.2130	20.9230
 2.2140	20.9370
 2.2150	20.9450
 2.2160	20.9560
 2.2170	20.9600
 2.2180	20.9560
 2.2190	20.9550
 2.2200	20.9530
 2.2210	20.9490
 2.2220	20.9460
 2.2230	20.9390
 2.2240	20.9300
 2.2250	20.9180
 2.2260	20.9020
 2.2270	20.8880
 2.2280	20.8800
 2.2290	20.8610
 2.2300	20.8360
 2.2310	20.8090
 2.2320	20.7830
 2.2330	20.7530
 2.2340	20.7230
 2.2350	20.7000
 2.2360	20.6610
 2.2370	20.6070
 2.2380	20.5610
 2.2390	20.5130
 2.2400	20.4650
 2.2410	20.4220
 2.2420	20.3680
 2.2430	20.3040
 2.2440	20.2460
 2.2450	20.1890
 2.2460	20.1270
 2.2470	20.0640
 2.2480	20.0030
 2.2490	19.9390
 2.2500	19.8740
 2.2510	19.8110
 2.2520	19.7490
 2.2530	19.6800
 2.2540	19.6190
 2.2550	19.5660
 2.2560	19.5110
 2.2570	19.4630
 2.2580	19.4040
 2.2590	19.3350
 2.2600	19.2710
 2.2610	19.2020
 2.2620	19.1380
 2.2630	19.0750
 2.2640	19.0190
 2.2650	18.9620
 2.2660	18.9170
 2.2670	18.8650
 2.2680	18.8210
 2.2690	18.7620
 2.2700	18.6910
 2.2710	18.6290
 2.2720	18.5610
 2.2730	18.5050
 2.2740	18.4620
 2.2750	18.4080
 2.2760	18.3540
 2.2770	18.2990
 2.2780	18.2370
 2.2790	18.1860
 2.2800	18.1420
 2.2810	18.1010
 2.2820	18.0720
 2.2830	18.0310
 2.2840	17.9900
 2.2850	17.9460
 2.2860	17.8950
 2.2870	17.8430
 2.2880	17.7900
 2.2890	17.7380
 2.2900	17.6820
 2.2910	17.6290
 2.2920	17.5800
 2.2930	17.5290
 2.2940	17.4800
 2.2950	17.4250
 2.2960	17.3620
 2.2970	17.3040
 2.2980	17.2430
 2.2990	17.1810
 2.3000	17.1230
 2.3010	17.0650
 2.3020	17.0100
 2.3030	16.9580
 2.3040	16.9080
 2.3050	16.8610
 2.3060	16.8090
 2.3070	16.7580
 2.3080	16.7170
 2.3090	16.6780
 2.3100	16.6440
 2.3110	16.6250
 2.3120	16.6050
 2.3130	16.5910
 2.3140	16.5740
 2.3150	16.5590
 2.3160	16.5450
 2.3170	16.5340
 2.3180	16.5190
 2.3190	16.5040
 2.3200	16.4870
 2.3210	16.4660
 2.3220	16.4430
 2.3230	16.4230
 2.3240	16.3990
 2.3250	16.3690
 2.3260	16.3440
 2.3270	16.3260
 2.3280	16.2980
 2.3290	16.2630
 2.3300	16.2300
 2.3310	16.1960
 2.3320	16.1590
 2.3330	16.1270
 2.3340	16.0840
 2.3350	16.0300
 2.3360	15.9760
 2.3370	15.9180
 2.3380	15.8630
 2.3390	15.8030
 2.3400	15.7500
 2.3410	15.7010
 2.3420	15.6510
 2.3430	15.6090
 2.3440	15.5630
 2.3450	15.5140
 2.3460	15.4680
 2.3470	15.4130
 2.3480	15.3670
 2.3490	15.3330
 2.3500	15.2910
 2.3510	15.2470
 2.3520	15.2160
 2.3530	15.1890
 2.3540	15.1580
 2.3550	15.1490
 2.3560	15.1290
 2.3570	15.1010
 2.3580	15.0780
 2.3590	15.0500
 2.3600	15.0300
 2.3610	15.0130
 2.3620	14.9870
 2.3630	14.9520
 2.3640	14.9220
 2.3650	14.8940
 2.3660	14.8510
 2.3670	14.7990
 2.3680	14.7500
 2.3690	14.7110
 2.3700	14.6690
 2.3710	14.6320
 2.3720	14.6090
 2.3730	14.5550
 2.3740	14.5000
 2.3750	14.4560
 2.3760	14.4020
 2.3770	14.3610
 2.3780	14.3250
 2.3790	14.2880
 2.3800	14.2390
 2.3810	14.1800
 2.3820	14.1390
 2.3830	14.0980
 2.3840	14.0670
 2.3850	14.0520
 2.3860	14.0110
 2.3870	13.9580
 2.3880	13.9010
 2.3890	13.8490
 2.3900	13.8050
 2.3910	13.7620
 2.3920	13.7310
 2.3930	13.6740
 2.3940	13.6130
 2.3950	13.5770
 2.3960	13.5300
 2.3970	13.4730
 2.3980	13.4210
 2.3990	13.3680
 2.4000	13.3330
 2.4010	13.3180
 2.4020	13.2840
 2.4030	13.2430
 2.4040	13.1970
 2.4050	13.1360
 2.4060	13.0970
 2.4070	13.0620
 2.4080	13.0150
 2.4090	12.9710
 2.4100	12.9290
 2.4110	12.8650
 2.4120	12.8060
 2.4130	12.7470
 2.4140	12.6720
 2.4150	12.6260
 2.4160	12.5840
 2.4170	12.5370
 2.4180	12.5030
 2.4190	12.4760
 2.4200	12.4390
 2.4210	12.3900
 2.4220	12.3500
 2.4230	12.2760
 2.4240	12.1870
 2.4250	12.1210
 2.4260	12.0490
 2.4270	11.9740
 2.4280	11.9180
 2.4290	11.8550
 2.4300	11.7940
 2.4310	11.7830
 2.4320	11.7560
 2.4330	11.7200
 2.4340	11.6680
 2.4350	11.5810
 2.4360	11.5230
 2.4370	11.4740
 2.4380	11.4390
 2.4390	11.4280
 2.4400	11.3990
 2.4410	11.3650
 2.4420	11.3450
 2.4430	11.3070
 2.4440	11.2490
 2.4450	11.1790
 2.4460	11.1290
 2.4470	11.0790
 2.4480	11.0170
 2.4490	10.9780
 2.4500	10.8960
 2.4510	10.8180
 2.4520	10.7720
 2.4530	10.7000
 2.4540	10.6570
 2.4550	10.6350
 2.4560	10.5970
 2.4570	10.5870
 2.4580	10.5810
 2.4590	10.5240
 2.4600	10.4790
 2.4610	10.4360
 2.4620	10.3680
 2.4630	10.3330
 2.4640	10.2860
 2.4650	10.2050
 2.4660	10.1390
 2.4670	10.0790
 2.4680	10.0160
 2.4690	10.0060
 2.4700	 9.9850
 2.4710	 9.9460
 2.4720	 9.9250
 2.4730	 9.9300
 2.4740	 9.9020
 2.4750	 9.8680
 2.4760	 9.8540
 2.4770	 9.8030
 2.4780	 9.7690
 2.4790	 9.7960
 2.4800	 9.7730
 2.4810	 9.7260
 2.4820	 9.7160
 2.4830	 9.6430
 2.4840	 9.6170
 2.4850	 9.6320
 2.4860	 9.6410
 2.4870	 9.6510
 2.4880	 9.5850
 2.4890	 9.5480
 2.4900	 9.5800
 2.4910	 9.5860
 2.4920	 9.6210
 2.4930	 9.6260
 2.4940	 9.5850
 2.4950	 9.5190
 2.4960	 9.4890
 2.4970	 9.4800
 2.4980	 9.4160
 2.4990	 9.4680
 2.5000	 9.4890
