Name: Salvia leucophylla 1
Type: vegetation
Class: Shrub
Genus: Salvia
Species: leucophylla
Sample No.: VH187
Owner: UCSB
Wavelength Range: TIR
Origin: 34.698; -120.0477; WGS84
Collection Date: 6/9/2013
Description: Samples were collected as part of the HyspIRI Airborne Campaign. 48 individual plants were sampled in three times in 2013 - spring  summer  and fall. The name of the sample includes a 1  2  or 3 which references a different individual of the species. Samples were taken to JPL and processed within 48 hours of collection. The same leaves were processed in the Nicolet and then measured using the ASD.
Measurement: Hemispherical reflectance
First Column: X
Second Column: Y
X Units: Wavelength (micrometers)
Y Units: Reflectance (percentage)
First X Value: 2.501
Last X Value: 15.387
Number of X Values: 1737
Additional Information: vegetation.shrub.salvia.leucophylla.tir.vh187.ucsb.nicolet.ancillary.txt

 2.5010	18.3250
 2.5030	18.1410
 2.5040	18.0950
 2.5050	18.1040
 2.5060	18.2690
 2.5070	18.2690
 2.5090	18.3780
 2.5100	18.4990
 2.5110	18.4600
 2.5120	18.3020
 2.5140	18.3610
 2.5150	18.3330
 2.5160	18.3880
 2.5170	18.2900
 2.5180	18.2900
 2.5200	18.3640
 2.5210	18.4170
 2.5220	18.4010
 2.5230	18.2880
 2.5250	18.1430
 2.5260	18.3330
 2.5270	18.2530
 2.5280	18.2170
 2.5290	18.4490
 2.5310	18.4510
 2.5320	18.2800
 2.5330	18.3240
 2.5340	18.3900
 2.5360	18.4920
 2.5370	18.4680
 2.5380	18.4630
 2.5390	18.4500
 2.5410	18.3780
 2.5420	18.2680
 2.5430	18.3480
 2.5440	18.5490
 2.5460	18.5390
 2.5470	18.4210
 2.5480	18.5430
 2.5490	18.6760
 2.5510	18.7120
 2.5520	18.5910
 2.5530	18.5160
 2.5540	18.4610
 2.5560	18.5620
 2.5570	18.6130
 2.5580	18.6170
 2.5590	18.5140
 2.5610	18.4800
 2.5620	18.4900
 2.5630	18.5610
 2.5640	18.5260
 2.5660	18.5620
 2.5670	18.3820
 2.5680	18.3480
 2.5700	18.4800
 2.5710	18.7670
 2.5720	18.7400
 2.5730	18.5530
 2.5750	18.6800
 2.5760	18.8300
 2.5770	18.6600
 2.5790	18.5580
 2.5800	18.6000
 2.5810	18.6320
 2.5820	18.6680
 2.5840	18.8710
 2.5850	18.7820
 2.5860	18.6740
 2.5880	18.5730
 2.5890	18.7110
 2.5900	18.6830
 2.5910	18.4940
 2.5930	18.4100
 2.5940	18.4240
 2.5950	18.3260
 2.5970	18.2240
 2.5980	18.2540
 2.5990	18.2980
 2.6000	18.2260
 2.6020	18.2470
 2.6030	18.3050
 2.6040	18.4190
 2.6060	18.3560
 2.6070	18.2600
 2.6080	18.2680
 2.6100	18.3420
 2.6110	18.1630
 2.6120	18.0060
 2.6140	17.9820
 2.6150	18.0160
 2.6160	17.8330
 2.6180	17.6720
 2.6190	17.6280
 2.6200	17.8110
 2.6220	17.7630
 2.6230	17.6850
 2.6240	17.6220
 2.6260	17.6200
 2.6270	17.5500
 2.6280	17.6380
 2.6300	17.6220
 2.6310	17.4310
 2.6320	17.2440
 2.6340	17.2500
 2.6350	17.3020
 2.6360	17.4310
 2.6380	17.2410
 2.6390	16.9360
 2.6400	16.7350
 2.6420	16.7410
 2.6430	16.7780
 2.6440	16.7230
 2.6460	16.5820
 2.6470	16.5060
 2.6480	16.3130
 2.6500	16.1950
 2.6510	16.2350
 2.6520	16.1650
 2.6540	16.1610
 2.6550	16.1810
 2.6560	16.1750
 2.6580	16.2480
 2.6590	16.0290
 2.6610	15.7960
 2.6620	15.7930
 2.6630	15.7550
 2.6650	15.5560
 2.6660	15.5620
 2.6670	15.5160
 2.6690	15.5210
 2.6700	15.3970
 2.6720	15.2070
 2.6730	15.1210
 2.6740	15.1000
 2.6760	14.9640
 2.6770	14.9140
 2.6780	14.9160
 2.6800	14.8390
 2.6810	14.5430
 2.6830	14.4930
 2.6840	14.4700
 2.6850	14.4280
 2.6870	14.2780
 2.6880	14.1370
 2.6900	13.9650
 2.6910	13.8290
 2.6920	13.6240
 2.6940	13.3870
 2.6950	13.1330
 2.6970	13.1150
 2.6980	13.0620
 2.6990	12.9670
 2.7010	12.7660
 2.7020	12.6870
 2.7040	12.4420
 2.7050	12.3470
 2.7060	12.2090
 2.7080	11.8860
 2.7090	11.6150
 2.7110	11.7100
 2.7120	11.5500
 2.7130	11.3160
 2.7150	11.2810
 2.7160	11.2150
 2.7180	10.9390
 2.7190	10.7200
 2.7210	10.8020
 2.7220	10.5980
 2.7230	10.2760
 2.7250	10.1770
 2.7260	10.2360
 2.7280	 9.9620
 2.7290	 9.5500
 2.7310	 9.5490
 2.7320	 9.4200
 2.7330	 9.3380
 2.7350	 9.1440
 2.7360	 9.1860
 2.7380	 8.9170
 2.7390	 8.5790
 2.7410	 8.5390
 2.7420	 8.6070
 2.7440	 8.5010
 2.7450	 8.5680
 2.7470	 8.7070
 2.7480	 8.5410
 2.7490	 8.1440
 2.7510	 8.1400
 2.7520	 8.0310
 2.7540	 7.8340
 2.7550	 7.4160
 2.7570	 7.2300
 2.7580	 7.2990
 2.7600	 7.4140
 2.7610	 7.3250
 2.7630	 7.2270
 2.7640	 7.1800
 2.7660	 7.1960
 2.7670	 6.9950
 2.7680	 6.9530
 2.7700	 6.8380
 2.7710	 6.8480
 2.7730	 6.8840
 2.7740	 6.5990
 2.7760	 6.5510
 2.7770	 6.7820
 2.7790	 6.6300
 2.7800	 6.4150
 2.7820	 6.2950
 2.7830	 6.1440
 2.7850	 5.8840
 2.7860	 5.9790
 2.7880	 6.0320
 2.7890	 5.8390
 2.7910	 5.6400
 2.7920	 5.8090
 2.7940	 5.7730
 2.7950	 5.7390
 2.7970	 5.6320
 2.7980	 5.5630
 2.8000	 5.5070
 2.8010	 5.4490
 2.8030	 5.3110
 2.8040	 5.3070
 2.8060	 5.4870
 2.8070	 5.4170
 2.8090	 5.2860
 2.8110	 5.2550
 2.8120	 5.0310
 2.8140	 4.9560
 2.8150	 4.8920
 2.8170	 4.7820
 2.8180	 4.6950
 2.8200	 4.8260
 2.8210	 4.7710
 2.8230	 4.5880
 2.8240	 4.6410
 2.8260	 4.6160
 2.8270	 4.6380
 2.8290	 5.0290
 2.8300	 4.9110
 2.8320	 4.5620
 2.8340	 4.2600
 2.8350	 4.4880
 2.8370	 4.5860
 2.8380	 4.5580
 2.8400	 4.4130
 2.8410	 4.3720
 2.8430	 4.2210
 2.8440	 4.3130
 2.8460	 4.4550
 2.8480	 4.6030
 2.8490	 4.3850
 2.8510	 4.2800
 2.8520	 4.2850
 2.8540	 4.2910
 2.8550	 4.1160
 2.8570	 4.2040
 2.8590	 4.2880
 2.8600	 4.1830
 2.8620	 4.1190
 2.8630	 3.8430
 2.8650	 3.5270
 2.8660	 3.7250
 2.8680	 3.8320
 2.8700	 3.9740
 2.8710	 3.9740
 2.8730	 4.0350
 2.8740	 4.1340
 2.8760	 4.0040
 2.8780	 3.7840
 2.8790	 3.7750
 2.8810	 4.2120
 2.8820	 4.2150
 2.8840	 3.8290
 2.8860	 3.9230
 2.8870	 3.8910
 2.8890	 3.6220
 2.8900	 3.6320
 2.8920	 4.1390
 2.8940	 3.9910
 2.8950	 3.7890
 2.8970	 3.7680
 2.8980	 3.7380
 2.9000	 3.7190
 2.9020	 3.7260
 2.9030	 3.6680
 2.9050	 3.8780
 2.9070	 3.7960
 2.9080	 3.6620
 2.9100	 3.3790
 2.9120	 3.3390
 2.9130	 3.4530
 2.9150	 3.3890
 2.9160	 3.3760
 2.9180	 3.4970
 2.9200	 3.5460
 2.9210	 3.4980
 2.9230	 3.4380
 2.9250	 3.5030
 2.9260	 3.4080
 2.9280	 3.3640
 2.9300	 3.4230
 2.9310	 3.5720
 2.9330	 3.5110
 2.9350	 3.3890
 2.9360	 3.2170
 2.9380	 3.2180
 2.9400	 3.3560
 2.9410	 3.4020
 2.9430	 3.2070
 2.9450	 3.1830
 2.9460	 3.6800
 2.9480	 3.2970
 2.9500	 3.1050
 2.9510	 3.6220
 2.9530	 3.7790
 2.9550	 3.9840
 2.9560	 3.6790
 2.9580	 3.0110
 2.9600	 3.1720
 2.9610	 4.0850
 2.9630	 3.9690
 2.9650	 3.5750
 2.9660	 4.9970
 2.9680	 4.8050
 2.9700	 3.1300
 2.9720	 3.6640
 2.9730	 4.2180
 2.9750	 4.5010
 2.9770	 4.9880
 2.9780	 3.9670
 2.9800	 2.6750
 2.9820	 2.0510
 2.9840	 2.4670
 2.9850	 3.2060
 2.9870	 2.1810
 2.9890	 2.9800
 2.9900	 5.2400
 2.9920	 4.0140
 2.9940	 1.4380
 2.9960	 2.3660
 2.9970	 4.1680
 2.9990	 3.9150
 3.0010	 3.6250
 3.0030	 3.5010
 3.0040	 3.8960
 3.0060	 4.4170
 3.0080	 4.6570
 3.0100	 4.1700
 3.0110	 4.2460
 3.0130	 4.6960
 3.0150	 3.6820
 3.0170	 3.5550
 3.0180	 3.9060
 3.0200	 3.6260
 3.0220	 3.9630
 3.0240	 4.2310
 3.0250	 4.0910
 3.0270	 4.2040
 3.0290	 4.0420
 3.0310	 4.8330
 3.0320	 5.7800
 3.0340	 4.7340
 3.0360	 3.7170
 3.0380	 3.3750
 3.0400	 3.5670
 3.0410	 3.9830
 3.0430	 5.6030
 3.0450	 5.7650
 3.0470	 5.4140
 3.0480	 5.9320
 3.0500	 4.4460
 3.0520	 3.7960
 3.0540	 3.6460
 3.0560	 3.0430
 3.0570	 3.5170
 3.0590	 3.5010
 3.0610	 3.5220
 3.0630	 3.6730
 3.0650	 2.7390
 3.0660	 2.0690
 3.0680	 2.9570
 3.0700	 4.8380
 3.0720	 5.1130
 3.0740	 4.8980
 3.0760	 4.6640
 3.0770	 4.7330
 3.0790	 4.6750
 3.0810	 4.5770
 3.0830	 4.4570
 3.0850	 4.6590
 3.0870	 4.7680
 3.0880	 4.7460
 3.0900	 4.6120
 3.0920	 4.6500
 3.0940	 4.5220
 3.0960	 4.5440
 3.0980	 4.6770
 3.0990	 4.5980
 3.1010	 4.4910
 3.1030	 4.2860
 3.1050	 3.9830
 3.1070	 4.4730
 3.1090	 4.8670
 3.1110	 5.3020
 3.1120	 5.0550
 3.1140	 4.6760
 3.1160	 4.9270
 3.1180	 5.2020
 3.1200	 5.2630
 3.1220	 5.3530
 3.1240	 5.1810
 3.1260	 5.3580
 3.1270	 5.2580
 3.1290	 5.2110
 3.1310	 4.8660
 3.1330	 4.3810
 3.1350	 4.5960
 3.1370	 5.0170
 3.1390	 4.8690
 3.1410	 5.9600
 3.1430	 6.6160
 3.1450	 5.6210
 3.1460	 5.5770
 3.1480	 5.7550
 3.1500	 5.1660
 3.1520	 5.3090
 3.1540	 5.4910
 3.1560	 5.7800
 3.1580	 6.3190
 3.1600	 6.4650
 3.1620	 5.0930
 3.1640	 5.1540
 3.1660	 5.6880
 3.1680	 5.8840
 3.1700	 5.7260
 3.1710	 5.8290
 3.1730	 5.5850
 3.1750	 4.3420
 3.1770	 4.8160
 3.1790	 5.7690
 3.1810	 5.5350
 3.1830	 5.2030
 3.1850	 4.8880
 3.1870	 5.1390
 3.1890	 5.3750
 3.1910	 5.5100
 3.1930	 5.6520
 3.1950	 5.8860
 3.1970	 5.9430
 3.1990	 5.9690
 3.2010	 6.0200
 3.2030	 6.0580
 3.2050	 6.0070
 3.2070	 6.0780
 3.2090	 5.8150
 3.2110	 5.7540
 3.2130	 5.7080
 3.2150	 5.8510
 3.2170	 6.0660
 3.2190	 6.0020
 3.2210	 5.9550
 3.2230	 6.2160
 3.2250	 6.2230
 3.2270	 6.0830
 3.2290	 5.9190
 3.2310	 5.9740
 3.2330	 5.7890
 3.2350	 5.9700
 3.2370	 6.0200
 3.2390	 5.9980
 3.2410	 6.0410
 3.2430	 6.1580
 3.2450	 5.9760
 3.2470	 5.8960
 3.2490	 6.0750
 3.2510	 6.2520
 3.2530	 5.9040
 3.2550	 5.8830
 3.2570	 5.8560
 3.2590	 5.9670
 3.2610	 6.0340
 3.2630	 6.2910
 3.2650	 6.7690
 3.2670	 6.9000
 3.2690	 6.5360
 3.2720	 6.5480
 3.2740	 6.9540
 3.2760	 6.9150
 3.2780	 6.4580
 3.2800	 6.4600
 3.2820	 6.4950
 3.2840	 6.5530
 3.2860	 6.4990
 3.2880	 6.2140
 3.2900	 5.9310
 3.2920	 6.1810
 3.2940	 6.4140
 3.2960	 6.4370
 3.2990	 6.1260
 3.3010	 6.0160
 3.3030	 5.9120
 3.3050	 6.0850
 3.3070	 6.4590
 3.3090	 6.5620
 3.3110	 6.0980
 3.3130	 5.9640
 3.3150	 6.1460
 3.3180	 5.9880
 3.3200	 5.7490
 3.3220	 5.7460
 3.3240	 5.6120
 3.3260	 5.6230
 3.3280	 5.7460
 3.3300	 5.5820
 3.3330	 5.3390
 3.3350	 5.3260
 3.3370	 5.0900
 3.3390	 4.9460
 3.3410	 4.9480
 3.3430	 5.0290
 3.3450	 4.9340
 3.3480	 4.7370
 3.3500	 4.6590
 3.3520	 4.6360
 3.3540	 4.4600
 3.3560	 4.3850
 3.3580	 4.4730
 3.3610	 4.6860
 3.3630	 4.3400
 3.3650	 4.0080
 3.3670	 3.8950
 3.3690	 4.0300
 3.3720	 3.9450
 3.3740	 3.7980
 3.3760	 3.7310
 3.3780	 3.7810
 3.3800	 3.9480
 3.3830	 3.9490
 3.3850	 3.5050
 3.3870	 3.1910
 3.3890	 3.1130
 3.3910	 3.1310
 3.3940	 3.0350
 3.3960	 3.1000
 3.3980	 3.0130
 3.4000	 2.9090
 3.4020	 3.0220
 3.4050	 2.8870
 3.4070	 2.7560
 3.4090	 3.0210
 3.4110	 3.0770
 3.4140	 3.1520
 3.4160	 3.1740
 3.4180	 3.1700
 3.4200	 3.2470
 3.4230	 3.4400
 3.4250	 3.5460
 3.4270	 3.6570
 3.4290	 3.7470
 3.4320	 3.8320
 3.4340	 3.8510
 3.4360	 4.0270
 3.4390	 4.1080
 3.4410	 4.1490
 3.4430	 4.1420
 3.4450	 4.0800
 3.4480	 3.6550
 3.4500	 3.7060
 3.4520	 4.1570
 3.4550	 4.4610
 3.4570	 4.6390
 3.4590	 4.6070
 3.4620	 4.4650
 3.4640	 4.7060
 3.4660	 4.8010
 3.4680	 4.6500
 3.4710	 4.6650
 3.4730	 4.7320
 3.4750	 4.6790
 3.4780	 4.7000
 3.4800	 4.6450
 3.4820	 4.6190
 3.4850	 4.5120
 3.4870	 4.4110
 3.4890	 4.2410
 3.4920	 4.1610
 3.4940	 4.1030
 3.4970	 4.1290
 3.4990	 4.0340
 3.5010	 4.0900
 3.5040	 4.2500
 3.5060	 4.3240
 3.5080	 4.4470
 3.5110	 4.7130
 3.5130	 4.8680
 3.5160	 5.1990
 3.5180	 5.5150
 3.5200	 5.7320
 3.5230	 5.8710
 3.5250	 6.2320
 3.5270	 6.6220
 3.5300	 6.8020
 3.5320	 6.7180
 3.5350	 6.7750
 3.5370	 6.7870
 3.5400	 6.8900
 3.5420	 7.0910
 3.5440	 7.3380
 3.5470	 7.4990
 3.5490	 7.7050
 3.5520	 7.7590
 3.5540	 7.7000
 3.5570	 7.5650
 3.5590	 7.5900
 3.5610	 7.8720
 3.5640	 8.0540
 3.5660	 7.9860
 3.5690	 7.9000
 3.5710	 8.0490
 3.5740	 8.2740
 3.5760	 8.2400
 3.5790	 8.1320
 3.5810	 8.0080
 3.5840	 8.0900
 3.5860	 8.2140
 3.5890	 8.4820
 3.5910	 8.3040
 3.5930	 8.0800
 3.5960	 8.2000
 3.5980	 8.4560
 3.6010	 8.7140
 3.6030	 8.9440
 3.6060	 8.7570
 3.6080	 8.5610
 3.6110	 8.5290
 3.6140	 8.5640
 3.6160	 8.6300
 3.6190	 8.7050
 3.6210	 8.5530
 3.6240	 8.5670
 3.6260	 8.7250
 3.6290	 8.9430
 3.6310	 9.1000
 3.6340	 9.0650
 3.6360	 8.6920
 3.6390	 8.6180
 3.6410	 8.8250
 3.6440	 8.9320
 3.6470	 8.8860
 3.6490	 8.8450
 3.6520	 8.8650
 3.6540	 8.9380
 3.6570	 8.9750
 3.6590	 8.9460
 3.6620	 8.8000
 3.6650	 8.8500
 3.6670	 8.9770
 3.6700	 9.0440
 3.6720	 8.9910
 3.6750	 8.9380
 3.6780	 8.9650
 3.6800	 9.0040
 3.6830	 8.9800
 3.6850	 8.9990
 3.6880	 9.0660
 3.6910	 9.0590
 3.6930	 9.0180
 3.6960	 9.0790
 3.6990	 9.0550
 3.7010	 9.0580
 3.7040	 9.0470
 3.7060	 9.0800
 3.7090	 9.0980
 3.7120	 9.1710
 3.7140	 9.1520
 3.7170	 9.1010
 3.7200	 9.0780
 3.7220	 9.0490
 3.7250	 9.0010
 3.7280	 9.1470
 3.7300	 9.1610
 3.7330	 9.1090
 3.7360	 9.1910
 3.7390	 9.3070
 3.7410	 9.2400
 3.7440	 9.2410
 3.7470	 9.3720
 3.7490	 9.3750
 3.7520	 9.3220
 3.7550	 9.2380
 3.7580	 9.2540
 3.7600	 9.3730
 3.7630	 9.4490
 3.7660	 9.4070
 3.7680	 9.3380
 3.7710	 9.4510
 3.7740	 9.4670
 3.7770	 9.4420
 3.7790	 9.4350
 3.7820	 9.4110
 3.7850	 9.4140
 3.7880	 9.4220
 3.7900	 9.4110
 3.7930	 9.4450
 3.7960	 9.4970
 3.7990	 9.6500
 3.8020	 9.6570
 3.8040	 9.5560
 3.8070	 9.4630
 3.8100	 9.5190
 3.8130	 9.5760
 3.8160	 9.6110
 3.8180	 9.5640
 3.8210	 9.5690
 3.8240	 9.6380
 3.8270	 9.6510
 3.8300	 9.5700
 3.8330	 9.6860
 3.8350	 9.7700
 3.8380	 9.7830
 3.8410	 9.7180
 3.8440	 9.8880
 3.8470	 9.9960
 3.8500	 9.8370
 3.8520	 9.8320
 3.8550	 9.8840
 3.8580	 9.8360
 3.8610	 9.8970
 3.8640	 9.9440
 3.8670	 9.9400
 3.8700	10.0300
 3.8730	10.0800
 3.8750	10.0130
 3.8780	10.0280
 3.8810	10.0380
 3.8840	10.1430
 3.8870	10.2600
 3.8900	10.2650
 3.8930	10.1860
 3.8960	10.1980
 3.8990	10.1780
 3.9020	10.3270
 3.9050	10.3690
 3.9080	10.3200
 3.9110	10.3020
 3.9140	10.3790
 3.9160	10.3810
 3.9190	10.3740
 3.9220	10.4150
 3.9250	10.4790
 3.9280	10.5140
 3.9310	10.5710
 3.9340	10.6350
 3.9370	10.6920
 3.9400	10.6690
 3.9430	10.7150
 3.9460	10.6570
 3.9490	10.5850
 3.9520	10.6000
 3.9550	10.7130
 3.9580	10.6800
 3.9610	10.7050
 3.9640	10.7920
 3.9670	10.8410
 3.9700	10.8170
 3.9730	10.8370
 3.9770	10.8790
 3.9800	10.8780
 3.9830	10.8680
 3.9860	10.9670
 3.9890	10.9450
 3.9920	10.9530
 3.9950	11.0780
 3.9980	11.2490
 4.0010	11.2910
 4.0040	11.3540
 4.0070	11.3760
 4.0100	11.4300
 4.0130	11.3570
 4.0170	11.3220
 4.0200	11.3580
 4.0230	11.4250
 4.0260	11.5280
 4.0290	11.5250
 4.0320	11.4620
 4.0350	11.6000
 4.0380	11.6720
 4.0420	11.6290
 4.0450	11.5910
 4.0480	11.7120
 4.0510	11.7600
 4.0540	11.6360
 4.0570	11.6510
 4.0610	11.8460
 4.0640	11.8850
 4.0670	11.8020
 4.0700	11.7810
 4.0730	11.8330
 4.0770	11.9130
 4.0800	11.8630
 4.0830	11.8590
 4.0860	12.0090
 4.0890	12.1210
 4.0930	12.0530
 4.0960	12.0090
 4.0990	12.0240
 4.1020	12.0110
 4.1060	12.0010
 4.1090	12.0080
 4.1120	12.1450
 4.1150	12.2260
 4.1190	12.2860
 4.1220	12.3160
 4.1250	12.3730
 4.1280	12.3800
 4.1320	12.3230
 4.1350	12.3160
 4.1380	12.3390
 4.1420	12.2680
 4.1450	12.2810
 4.1480	12.2960
 4.1520	12.3690
 4.1550	12.3930
 4.1580	12.3980
 4.1620	12.4210
 4.1650	12.4550
 4.1680	12.4820
 4.1720	12.5250
 4.1750	12.5210
 4.1780	12.5540
 4.1820	12.5160
 4.1850	12.4790
 4.1890	12.4930
 4.1920	12.5550
 4.1950	12.6320
 4.1990	12.7010
 4.2020	12.7140
 4.2060	12.8040
 4.2090	12.8760
 4.2120	12.8440
 4.2160	12.7540
 4.2190	12.9250
 4.2230	13.3690
 4.2260	13.6110
 4.2300	13.4220
 4.2330	13.2860
 4.2360	13.1460
 4.2400	13.4460
 4.2430	13.3500
 4.2470	13.1250
 4.2500	12.9260
 4.2540	12.9950
 4.2570	13.1790
 4.2610	13.2850
 4.2640	13.0670
 4.2680	13.1420
 4.2710	13.0360
 4.2750	12.8890
 4.2780	12.9320
 4.2820	13.1010
 4.2850	13.3440
 4.2890	13.3160
 4.2930	13.1380
 4.2960	12.9790
 4.3000	12.7910
 4.3030	12.9030
 4.3070	12.9130
 4.3100	12.8750
 4.3140	12.7720
 4.3180	12.6970
 4.3210	12.7570
 4.3250	12.8060
 4.3280	12.8620
 4.3320	12.8810
 4.3360	12.6880
 4.3390	12.6200
 4.3430	12.6130
 4.3470	12.5870
 4.3500	12.6430
 4.3540	12.6760
 4.3570	12.5860
 4.3610	12.5730
 4.3650	12.5650
 4.3680	12.5880
 4.3720	12.6000
 4.3760	12.5480
 4.3800	12.5950
 4.3830	12.6360
 4.3870	12.5740
 4.3910	12.5250
 4.3940	12.5190
 4.3980	12.5220
 4.4020	12.4370
 4.4060	12.4700
 4.4090	12.4760
 4.4130	12.4630
 4.4170	12.4530
 4.4210	12.4070
 4.4240	12.4080
 4.4280	12.4970
 4.4320	12.4800
 4.4360	12.3610
 4.4400	12.3300
 4.4430	12.3960
 4.4470	12.3400
 4.4510	12.3130
 4.4550	12.3490
 4.4590	12.3050
 4.4620	12.2860
 4.4660	12.3070
 4.4700	12.2130
 4.4740	12.1980
 4.4780	12.2740
 4.4820	12.3690
 4.4860	12.3970
 4.4900	12.4190
 4.4930	12.3140
 4.4970	12.2200
 4.5010	12.1980
 4.5050	12.1920
 4.5090	12.1930
 4.5130	12.1910
 4.5170	12.2110
 4.5210	12.2250
 4.5250	12.2060
 4.5290	12.1840
 4.5330	12.1530
 4.5370	12.1430
 4.5410	12.1830
 4.5450	12.1720
 4.5490	12.1030
 4.5530	12.1310
 4.5570	12.0890
 4.5610	12.1020
 4.5650	12.1390
 4.5690	12.0620
 4.5730	12.0040
 4.5770	12.0600
 4.5810	12.0720
 4.5850	11.9920
 4.5890	11.9930
 4.5930	12.1160
 4.5970	12.2050
 4.6010	12.2620
 4.6050	12.3610
 4.6090	12.3170
 4.6130	12.0420
 4.6170	11.9140
 4.6220	11.8130
 4.6260	11.7510
 4.6300	11.9700
 4.6340	11.9730
 4.6380	11.8910
 4.6420	11.8820
 4.6460	11.8410
 4.6510	11.8980
 4.6550	11.9580
 4.6590	12.0010
 4.6630	12.0350
 4.6670	12.1010
 4.6720	11.9700
 4.6760	11.8270
 4.6800	11.8920
 4.6840	11.9760
 4.6880	11.9980
 4.6930	12.0140
 4.6970	12.0650
 4.7010	12.1120
 4.7050	12.0700
 4.7100	11.9600
 4.7140	11.9790
 4.7180	12.0130
 4.7230	11.9940
 4.7270	11.9750
 4.7310	11.9770
 4.7360	12.0400
 4.7400	12.0120
 4.7440	12.0030
 4.7490	12.0570
 4.7530	11.9930
 4.7570	11.9590
 4.7620	12.0510
 4.7660	12.0940
 4.7700	12.1180
 4.7750	12.1490
 4.7790	12.1220
 4.7840	12.2510
 4.7880	12.1940
 4.7920	11.8870
 4.7970	11.9710
 4.8010	12.2030
 4.8060	12.0170
 4.8100	11.9700
 4.8150	12.0150
 4.8190	11.9310
 4.8240	11.9320
 4.8280	12.1150
 4.8330	12.1780
 4.8370	12.1420
 4.8420	12.1140
 4.8460	12.1540
 4.8510	12.2190
 4.8550	12.1610
 4.8600	12.1670
 4.8640	12.1940
 4.8690	12.1790
 4.8730	12.1680
 4.8780	12.2140
 4.8830	12.2480
 4.8870	12.2130
 4.8920	12.2360
 4.8960	12.2240
 4.9010	12.1440
 4.9060	12.1480
 4.9100	12.2720
 4.9150	12.3040
 4.9200	12.2680
 4.9240	12.2790
 4.9290	12.2740
 4.9340	12.3320
 4.9380	12.3580
 4.9430	12.3210
 4.9480	12.3520
 4.9530	12.3090
 4.9570	12.2440
 4.9620	12.2550
 4.9670	12.3710
 4.9720	12.3500
 4.9760	12.3150
 4.9810	12.3350
 4.9860	12.4090
 4.9910	12.3940
 4.9960	12.3670
 5.0000	12.3740
 5.0050	12.3670
 5.0100	12.3490
 5.0150	12.3790
 5.0200	12.4340
 5.0250	12.5490
 5.0290	12.6030
 5.0340	12.5860
 5.0390	12.5630
 5.0440	12.5640
 5.0490	12.5440
 5.0540	12.5230
 5.0590	12.5820
 5.0640	12.6120
 5.0690	12.6000
 5.0740	12.6500
 5.0790	12.6750
 5.0840	12.6380
 5.0890	12.6150
 5.0940	12.6930
 5.0990	12.8210
 5.1040	12.8000
 5.1090	12.7000
 5.1140	12.6120
 5.1190	12.6810
 5.1240	12.8450
 5.1290	12.8430
 5.1340	12.7700
 5.1390	12.7980
 5.1440	12.7740
 5.1490	12.7500
 5.1540	12.8220
 5.1600	12.9110
 5.1650	12.8600
 5.1700	12.7310
 5.1750	12.6670
 5.1800	12.6770
 5.1850	12.7020
 5.1910	12.6690
 5.1960	12.7140
 5.2010	12.7790
 5.2060	12.7110
 5.2110	12.6020
 5.2170	12.6510
 5.2220	12.7230
 5.2270	12.7430
 5.2320	12.7020
 5.2380	12.6780
 5.2430	12.6700
 5.2480	12.6390
 5.2540	12.6890
 5.2590	12.7300
 5.2640	12.5730
 5.2700	12.4770
 5.2750	12.4080
 5.2800	12.4240
 5.2860	12.3940
 5.2910	12.4060
 5.2970	12.4340
 5.3020	12.4770
 5.3070	12.4050
 5.3130	12.3870
 5.3180	12.4650
 5.3240	12.5300
 5.3290	12.4700
 5.3350	12.4190
 5.3400	12.3760
 5.3460	12.3900
 5.3510	12.3560
 5.3570	12.2650
 5.3620	12.1990
 5.3680	12.1980
 5.3730	12.1340
 5.3790	12.1690
 5.3850	12.2330
 5.3900	12.2270
 5.3960	12.1830
 5.4010	12.0840
 5.4070	11.9430
 5.4130	11.9400
 5.4180	11.9970
 5.4240	11.9880
 5.4300	11.9700
 5.4350	11.9610
 5.4410	11.9620
 5.4470	11.9140
 5.4530	11.7940
 5.4580	11.8310
 5.4640	11.8370
 5.4700	11.6350
 5.4760	11.4380
 5.4810	11.5110
 5.4870	11.5350
 5.4930	11.4240
 5.4990	11.3150
 5.5050	11.2470
 5.5110	11.1440
 5.5160	11.0790
 5.5220	11.0390
 5.5280	11.0110
 5.5340	10.8480
 5.5400	10.6540
 5.5460	10.4950
 5.5520	10.3630
 5.5580	10.2960
 5.5640	10.2810
 5.5700	10.1190
 5.5760	 9.9300
 5.5820	 9.7130
 5.5880	 9.5140
 5.5940	 9.3240
 5.6000	 9.2140
 5.6060	 9.0190
 5.6120	 8.9160
 5.6180	 8.7210
 5.6240	 8.5290
 5.6300	 8.4000
 5.6360	 8.3170
 5.6420	 8.0650
 5.6490	 7.7440
 5.6550	 7.4640
 5.6610	 7.3120
 5.6670	 7.0720
 5.6730	 6.9120
 5.6800	 6.6400
 5.6860	 6.3440
 5.6920	 5.9540
 5.6980	 5.7060
 5.7040	 5.4400
 5.7110	 5.1450
 5.7170	 4.8380
 5.7230	 4.5250
 5.7300	 4.2300
 5.7360	 3.9570
 5.7420	 3.6860
 5.7490	 3.4910
 5.7550	 3.3970
 5.7620	 3.4580
 5.7680	 3.4640
 5.7740	 3.4550
 5.7810	 3.4700
 5.7870	 3.6900
 5.7940	 3.8270
 5.8000	 3.8630
 5.8070	 3.9800
 5.8130	 4.1320
 5.8200	 4.2090
 5.8260	 4.3510
 5.8330	 4.4120
 5.8390	 4.4280
 5.8460	 4.3810
 5.8530	 4.5140
 5.8590	 4.5660
 5.8660	 4.6310
 5.8720	 4.6250
 5.8790	 4.5520
 5.8860	 4.4090
 5.8920	 4.4350
 5.8990	 4.3330
 5.9060	 4.3060
 5.9130	 4.2130
 5.9190	 4.2020
 5.9260	 4.2770
 5.9330	 4.5160
 5.9400	 4.7890
 5.9470	 5.0820
 5.9530	 5.4470
 5.9600	 5.7450
 5.9670	 5.8850
 5.9740	 6.0830
 5.9810	 6.1300
 5.9880	 6.1180
 5.9950	 6.0750
 6.0020	 6.2550
 6.0090	 6.2610
 6.0160	 6.2090
 6.0230	 6.1840
 6.0300	 6.2330
 6.0370	 6.2440
 6.0440	 6.2220
 6.0510	 6.0530
 6.0580	 6.0840
 6.0650	 6.1780
 6.0720	 6.2060
 6.0790	 6.2250
 6.0860	 6.3340
 6.0930	 6.4080
 6.1000	 6.3910
 6.1080	 6.3000
 6.1150	 6.3460
 6.1220	 6.4640
 6.1290	 6.5630
 6.1370	 6.5350
 6.1440	 6.5770
 6.1510	 6.5010
 6.1580	 6.5270
 6.1660	 6.5210
 6.1730	 6.4890
 6.1800	 6.4540
 6.1880	 6.5400
 6.1950	 6.5500
 6.2030	 6.6260
 6.2100	 6.6490
 6.2170	 6.7180
 6.2250	 6.6300
 6.2320	 6.5850
 6.2400	 6.7190
 6.2470	 6.9380
 6.2550	 6.9990
 6.2630	 7.1370
 6.2700	 7.2800
 6.2780	 7.4770
 6.2850	 7.6030
 6.2930	 7.7990
 6.3010	 7.8830
 6.3080	 8.0170
 6.3160	 8.0350
 6.3240	 8.0700
 6.3310	 8.1290
 6.3390	 8.2970
 6.3470	 8.4460
 6.3550	 8.5900
 6.3620	 8.6530
 6.3700	 8.6660
 6.3780	 8.6600
 6.3860	 8.7750
 6.3940	 8.7030
 6.4020	 8.7990
 6.4100	 8.8660
 6.4180	 8.8400
 6.4260	 8.8540
 6.4330	 8.9720
 6.4410	 8.9470
 6.4490	 9.0420
 6.4580	 9.0290
 6.4660	 8.9700
 6.4740	 8.8100
 6.4820	 8.8640
 6.4900	 8.9210
 6.4980	 9.0290
 6.5060	 9.1120
 6.5140	 9.2300
 6.5230	 9.1310
 6.5310	 9.0400
 6.5390	 8.9250
 6.5470	 8.9440
 6.5550	 8.8930
 6.5640	 8.8520
 6.5720	 8.7420
 6.5800	 8.7650
 6.5890	 8.7480
 6.5970	 8.7490
 6.6060	 8.7190
 6.6140	 8.7850
 6.6220	 8.8450
 6.6310	 8.9340
 6.6390	 8.7650
 6.6480	 8.6340
 6.6560	 8.6380
 6.6650	 8.7140
 6.6740	 8.6780
 6.6820	 8.8170
 6.6910	 8.7600
 6.6990	 8.5660
 6.7080	 8.2390
 6.7170	 8.0490
 6.7260	 7.9110
 6.7340	 7.6490
 6.7430	 7.3060
 6.7520	 7.1460
 6.7610	 6.8230
 6.7690	 6.5290
 6.7780	 6.1870
 6.7870	 5.9530
 6.7960	 5.5520
 6.8050	 5.2280
 6.8140	 4.9980
 6.8230	 5.0180
 6.8320	 4.9570
 6.8410	 4.9910
 6.8500	 4.9340
 6.8590	 4.9890
 6.8680	 5.1460
 6.8770	 5.3800
 6.8860	 5.3980
 6.8950	 5.4530
 6.9050	 5.4660
 6.9140	 5.4580
 6.9230	 5.4020
 6.9320	 5.5480
 6.9420	 5.5610
 6.9510	 5.6410
 6.9600	 5.6200
 6.9700	 5.5700
 6.9790	 5.5240
 6.9880	 5.5800
 6.9980	 5.5310
 7.0070	 5.6450
 7.0170	 5.6950
 7.0260	 5.7590
 7.0360	 5.6750
 7.0450	 5.6780
 7.0550	 5.6530
 7.0650	 5.7470
 7.0740	 5.8490
 7.0840	 5.9370
 7.0940	 5.8650
 7.1030	 6.0200
 7.1130	 6.0030
 7.1230	 5.9940
 7.1330	 5.9000
 7.1420	 5.8190
 7.1520	 5.6810
 7.1620	 5.8180
 7.1720	 5.6850
 7.1820	 5.5480
 7.1920	 5.3470
 7.2020	 5.1760
 7.2120	 5.1410
 7.2220	 5.3290
 7.2320	 5.3510
 7.2420	 5.4490
 7.2520	 5.2480
 7.2620	 5.1590
 7.2730	 5.1280
 7.2830	 5.1630
 7.2930	 5.0730
 7.3030	 5.1220
 7.3140	 5.1000
 7.3240	 5.2770
 7.3340	 5.3800
 7.3450	 5.4770
 7.3550	 5.3390
 7.3660	 5.3480
 7.3760	 5.3050
 7.3870	 5.4740
 7.3970	 5.5750
 7.4080	 5.6050
 7.4180	 5.4910
 7.4290	 5.6200
 7.4400	 5.6210
 7.4500	 5.5140
 7.4610	 5.2970
 7.4720	 5.2850
 7.4830	 5.3640
 7.4930	 5.3900
 7.5040	 5.2600
 7.5150	 5.3950
 7.5260	 5.2970
 7.5370	 5.1260
 7.5480	 4.9800
 7.5590	 5.1140
 7.5700	 5.0540
 7.5810	 5.0670
 7.5920	 4.9950
 7.6030	 5.0940
 7.6140	 5.1350
 7.6260	 5.2570
 7.6370	 5.1740
 7.6480	 5.1560
 7.6590	 5.1410
 7.6710	 5.2760
 7.6820	 5.2650
 7.6930	 5.3700
 7.7050	 5.2900
 7.7160	 5.3200
 7.7280	 5.2410
 7.7390	 5.2380
 7.7510	 5.1510
 7.7630	 5.0900
 7.7740	 4.9290
 7.7860	 4.9250
 7.7980	 4.8330
 7.8090	 4.9330
 7.8210	 4.8950
 7.8330	 4.9110
 7.8450	 4.8590
 7.8570	 4.9940
 7.8690	 5.0350
 7.8810	 5.0760
 7.8930	 5.0380
 7.9050	 5.2020
 7.9170	 5.0920
 7.9290	 4.9860
 7.9410	 4.8070
 7.9530	 4.7910
 7.9650	 4.6920
 7.9780	 4.7620
 7.9900	 4.7450
 8.0020	 4.8570
 8.0150	 4.8090
 8.0270	 4.9170
 8.0390	 4.8320
 8.0520	 4.8920
 8.0640	 4.8990
 8.0770	 4.9810
 8.0900	 4.8970
 8.1020	 5.0020
 8.1150	 5.0980
 8.1280	 5.2860
 8.1400	 5.0990
 8.1530	 5.1540
 8.1660	 5.1190
 8.1790	 5.3950
 8.1920	 5.4270
 8.2050	 5.5540
 8.2180	 5.4200
 8.2310	 5.4340
 8.2440	 5.2710
 8.2570	 5.2800
 8.2700	 5.2100
 8.2830	 5.3850
 8.2970	 5.3100
 8.3100	 5.4010
 8.3230	 5.2080
 8.3370	 5.2770
 8.3500	 5.2060
 8.3640	 5.0930
 8.3770	 4.8110
 8.3910	 4.8930
 8.4040	 4.9310
 8.4180	 5.1150
 8.4320	 4.9920
 8.4450	 5.1080
 8.4590	 4.8940
 8.4730	 4.8070
 8.4870	 4.5760
 8.5010	 4.6710
 8.5150	 4.5680
 8.5290	 4.5480
 8.5430	 4.4770
 8.5570	 4.5770
 8.5710	 4.5990
 8.5850	 4.7110
 8.5990	 4.5710
 8.6140	 4.6860
 8.6280	 4.7180
 8.6420	 4.9060
 8.6570	 4.8850
 8.6710	 5.0380
 8.6860	 5.0510
 8.7000	 5.3200
 8.7150	 5.2120
 8.7300	 5.2960
 8.7440	 5.3600
 8.7590	 5.5950
 8.7740	 5.4770
 8.7890	 5.5590
 8.8040	 5.2940
 8.8190	 5.2420
 8.8340	 5.2420
 8.8490	 5.2940
 8.8640	 4.9730
 8.8790	 4.8040
 8.8940	 4.6980
 8.9100	 4.9700
 8.9250	 4.7590
 8.9400	 4.6390
 8.9560	 4.4060
 8.9710	 4.4230
 8.9870	 4.2870
 9.0020	 4.3900
 9.0180	 4.2490
 9.0340	 4.3360
 9.0500	 4.1360
 9.0650	 4.2100
 9.0810	 4.0510
 9.0970	 4.1680
 9.1130	 4.2000
 9.1290	 4.3330
 9.1450	 4.3280
 9.1610	 4.7670
 9.1780	 4.7130
 9.1940	 4.6350
 9.2100	 4.4730
 9.2270	 4.6320
 9.2430	 4.4570
 9.2600	 4.5470
 9.2760	 4.2960
 9.2930	 4.1830
 9.3090	 3.8950
 9.3260	 3.8790
 9.3430	 3.7560
 9.3600	 4.0350
 9.3770	 3.9220
 9.3940	 3.9360
 9.4110	 3.7950
 9.4280	 3.9220
 9.4450	 3.8000
 9.4620	 3.9200
 9.4800	 3.7000
 9.4970	 4.0840
 9.5140	 4.1620
 9.5320	 4.0490
 9.5500	 3.8500
 9.5670	 4.2150
 9.5850	 4.1920
 9.6030	 4.2490
 9.6200	 4.1480
 9.6380	 4.2930
 9.6560	 4.1610
 9.6740	 4.3110
 9.6920	 4.3480
 9.7100	 4.5890
 9.7290	 4.3730
 9.7470	 4.5910
 9.7650	 4.5720
 9.7840	 4.7150
 9.8020	 4.5170
 9.8210	 4.8410
 9.8390	 4.8740
 9.8580	 5.0960
 9.8770	 5.0160
 9.8960	 5.1950
 9.9150	 5.1080
 9.9340	 5.1650
 9.9530	 5.0410
 9.9720	 5.2430
 9.9910	 5.0200
10.0100	 5.2210
10.0300	 5.2810
10.0490	 5.5150
10.0690	 5.5310
10.0880	 5.8300
10.1080	 5.7710
10.1280	 6.0470
10.1480	 6.0700
10.1670	 6.3550
10.1870	 6.3060
10.2070	 6.2850
10.2280	 6.1070
10.2480	 6.3320
10.2680	 6.1780
10.2890	 6.3510
10.3090	 6.3970
10.3300	 6.5740
10.3500	 6.4130
10.3710	 6.5920
10.3920	 6.4150
10.4120	 6.4810
10.4330	 6.3990
10.4540	 6.5370
10.4760	 6.5130
10.4970	 6.6800
10.5180	 6.5240
10.5390	 6.9140
10.5610	 7.0410
10.5820	 7.2070
10.6040	 7.1890
10.6260	 7.4010
10.6480	 7.2000
10.6700	 7.3020
10.6920	 7.2940
10.7140	 7.4110
10.7360	 7.2830
10.7580	 7.5600
10.7800	 7.3000
10.8030	 7.3780
10.8250	 7.1950
10.8480	 7.0980
10.8710	 6.8600
10.8940	 7.2580
10.9170	 7.0180
10.9400	 7.1160
10.9630	 7.1380
10.9860	 7.3160
11.0090	 7.1030
11.0330	 7.3680
11.0560	 7.1040
11.0800	 6.9440
11.1040	 5.2980
11.1270	 4.9080
11.1510	 6.1850
11.1750	 6.9020
11.2000	 6.8780
11.2240	 7.0270
11.2480	 6.9480
11.2730	 8.0420
11.2970	 8.8710
11.3220	 7.7210
11.3470	 7.1000
11.3720	 7.4470
11.3970	 7.1530
11.4220	 7.2220
11.4470	 7.2180
11.4720	 7.4990
11.4980	 7.2830
11.5230	 7.2550
11.5490	 6.9540
11.5750	 7.0360
11.6000	 6.9590
11.6260	 7.1600
11.6530	 6.9360
11.6790	 7.1320
11.7050	 6.9230
11.7320	 6.8880
11.7580	 6.7810
11.7850	 6.7260
11.8120	 6.4190
11.8390	 6.6200
11.8660	 6.5320
11.8930	 6.7630
11.9200	 6.4090
11.9480	 6.1800
11.9760	 5.8830
12.0030	 6.2430
12.0310	 6.1100
12.0590	 6.2390
12.0870	 6.0320
12.1150	 6.1670
12.1440	 5.8510
12.1720	 6.1180
12.2010	 5.9770
12.2300	 6.0770
12.2590	 5.6700
12.2880	 5.7510
12.3170	 5.6650
12.3460	 5.8420
12.3760	 5.5210
12.4050	 5.8010
12.4350	 5.3310
12.4650	 5.6000
12.4950	 5.4750
12.5250	 5.6970
12.5550	 5.4220
12.5860	 5.6740
12.6170	 5.5180
12.6470	 5.5740
12.6780	 5.2850
12.7090	 5.4110
12.7410	 5.1910
12.7720	 5.2560
12.8030	 5.0740
12.8350	 5.2860
12.8670	 5.0400
12.8990	 5.2010
12.9310	 5.0050
12.9640	 5.1360
12.9960	 4.8480
13.0290	 5.0220
13.0610	 4.8580
13.0940	 5.0790
13.1280	 4.7330
13.1610	 5.0540
13.1940	 4.7710
13.2280	 4.7140
13.2620	 4.4060
13.2960	 4.7390
13.3300	 4.6490
13.3640	 4.8830
13.3990	 4.4020
13.4340	 4.6200
13.4690	 4.3490
13.5040	 4.5820
13.5390	 4.3190
13.5740	 4.6320
13.6100	 4.3270
13.6460	 4.3640
13.6820	 4.0140
13.7180	 4.3710
13.7540	 3.9500
13.7910	 4.2160
13.8280	 4.2740
13.8650	 4.7340
13.9020	 4.2970
13.9390	 4.4150
13.9770	 4.0370
14.0150	 4.3360
14.0530	 3.7120
14.0910	 4.0190
14.1290	 4.1920
14.1680	 4.5380
14.2070	 3.7820
14.2460	 3.9700
14.2850	 3.7080
14.3240	 4.1250
14.3640	 3.7320
14.4040	 4.0700
14.4440	 3.4470
14.4840	 4.2860
14.5250	 3.9940
14.5660	 4.1030
14.6070	 3.9070
14.6480	 4.6150
14.6900	 3.9630
14.7310	 4.4020
14.7730	 3.8850
14.8150	 4.0350
14.8580	 3.4570
14.9010	 4.1560
14.9440	 3.5200
14.9870	 3.9570
15.0300	 3.3770
15.0740	 4.0240
15.1180	 2.8660
15.1620	 3.3440
15.2060	 3.2620
15.2510	 4.2020
15.2960	 3.5350
15.3410	 4.1850
15.3870	 3.8470
