Name: Chorisia speciosa
Type: vegetation
Class: Tree
Genus: Chorisia
Species: speciosa
Sample No.: JPL242
Owner: JPL
Wavelength Range: VSWIR
Origin: 34.12641; -118.10985; WGS84
Collection Date: 10/6/2016
Description: Samples were collected at the Huntington Garden in San Marino California as part of a JPL Subcontract studying HyTES imagery. Samples were taken to JPL and processed within 48 hours of collection. The same leaves were processed in the Nicolet and then measured using the ASD.
Measurement: Bidirectional reflectance
First Column: X
Second Column: Y
X Units: Wavelength (micrometer)
Y Units: Reflectance (percentage)
First X Value: 0.35
Last X Value: 2.5
Number of X Values: 2151
Additional Information: vegetation.tree.chorisia.speciosa.vswir.jpl242.jpl.asd.ancillary.txt

 0.3500	 6.1380
 0.3510	 6.2120
 0.3520	 6.2030
 0.3530	 6.1260
 0.3540	 6.0650
 0.3550	 6.1260
 0.3560	 6.2070
 0.3570	 6.1900
 0.3580	 6.0080
 0.3590	 6.0310
 0.3600	 6.0500
 0.3610	 5.9780
 0.3620	 5.9720
 0.3630	 5.9980
 0.3640	 6.0190
 0.3650	 6.0020
 0.3660	 5.9560
 0.3670	 5.9570
 0.3680	 5.9820
 0.3690	 5.9480
 0.3700	 5.9100
 0.3710	 5.8990
 0.3720	 5.9160
 0.3730	 5.9050
 0.3740	 5.8830
 0.3750	 5.8780
 0.3760	 5.9040
 0.3770	 5.8780
 0.3780	 5.8390
 0.3790	 5.8200
 0.3800	 5.8410
 0.3810	 5.8630
 0.3820	 5.8710
 0.3830	 5.8660
 0.3840	 5.8790
 0.3850	 5.8800
 0.3860	 5.8630
 0.3870	 5.8360
 0.3880	 5.8440
 0.3890	 5.8680
 0.3900	 5.8900
 0.3910	 5.8940
 0.3920	 5.9010
 0.3930	 5.9130
 0.3940	 5.9220
 0.3950	 5.9140
 0.3960	 5.9360
 0.3970	 5.9610
 0.3980	 5.9390
 0.3990	 5.9380
 0.4000	 5.9620
 0.4010	 5.9990
 0.4020	 6.0360
 0.4030	 6.0180
 0.4040	 6.0060
 0.4050	 6.0510
 0.4060	 6.0540
 0.4070	 6.0620
 0.4080	 6.0880
 0.4090	 6.1190
 0.4100	 6.1460
 0.4110	 6.1570
 0.4120	 6.1560
 0.4130	 6.1780
 0.4140	 6.2080
 0.4150	 6.2330
 0.4160	 6.2480
 0.4170	 6.2600
 0.4180	 6.2820
 0.4190	 6.3120
 0.4200	 6.3290
 0.4210	 6.3230
 0.4220	 6.3230
 0.4230	 6.3460
 0.4240	 6.3600
 0.4250	 6.3740
 0.4260	 6.3810
 0.4270	 6.3720
 0.4280	 6.3770
 0.4290	 6.3840
 0.4300	 6.3870
 0.4310	 6.3870
 0.4320	 6.3870
 0.4330	 6.3850
 0.4340	 6.3810
 0.4350	 6.3730
 0.4360	 6.3720
 0.4370	 6.3850
 0.4380	 6.4100
 0.4390	 6.4420
 0.4400	 6.4720
 0.4410	 6.4960
 0.4420	 6.5150
 0.4430	 6.5290
 0.4440	 6.5490
 0.4450	 6.5830
 0.4460	 6.6090
 0.4470	 6.6350
 0.4480	 6.6640
 0.4490	 6.6940
 0.4500	 6.7210
 0.4510	 6.7490
 0.4520	 6.7810
 0.4530	 6.8110
 0.4540	 6.8370
 0.4550	 6.8610
 0.4560	 6.8850
 0.4570	 6.9110
 0.4580	 6.9330
 0.4590	 6.9500
 0.4600	 6.9740
 0.4610	 6.9900
 0.4620	 7.0020
 0.4630	 7.0170
 0.4640	 7.0310
 0.4650	 7.0390
 0.4660	 7.0420
 0.4670	 7.0460
 0.4680	 7.0540
 0.4690	 7.0590
 0.4700	 7.0560
 0.4710	 7.0570
 0.4720	 7.0600
 0.4730	 7.0640
 0.4740	 7.0690
 0.4750	 7.0730
 0.4760	 7.0750
 0.4770	 7.0770
 0.4780	 7.0840
 0.4790	 7.0940
 0.4800	 7.1070
 0.4810	 7.1210
 0.4820	 7.1370
 0.4830	 7.1510
 0.4840	 7.1660
 0.4850	 7.1930
 0.4860	 7.2200
 0.4870	 7.2550
 0.4880	 7.3070
 0.4890	 7.3600
 0.4900	 7.4210
 0.4910	 7.4920
 0.4920	 7.5720
 0.4930	 7.6620
 0.4940	 7.7600
 0.4950	 7.8650
 0.4960	 7.9760
 0.4970	 8.1010
 0.4980	 8.2370
 0.4990	 8.3800
 0.5000	 8.5390
 0.5010	 8.7090
 0.5020	 8.8880
 0.5030	 9.0790
 0.5040	 9.2890
 0.5050	 9.5110
 0.5060	 9.7410
 0.5070	 9.9900
 0.5080	10.2510
 0.5090	10.5240
 0.5100	10.8110
 0.5110	11.1180
 0.5120	11.4390
 0.5130	11.7710
 0.5140	12.1170
 0.5150	12.4700
 0.5160	12.8330
 0.5170	13.2070
 0.5180	13.5880
 0.5190	13.9710
 0.5200	14.3550
 0.5210	14.7410
 0.5220	15.1210
 0.5230	15.4940
 0.5240	15.8600
 0.5250	16.2100
 0.5260	16.5450
 0.5270	16.8680
 0.5280	17.1750
 0.5290	17.4620
 0.5300	17.7310
 0.5310	17.9840
 0.5320	18.2200
 0.5330	18.4380
 0.5340	18.6390
 0.5350	18.8220
 0.5360	18.9890
 0.5370	19.1450
 0.5380	19.2900
 0.5390	19.4210
 0.5400	19.5450
 0.5410	19.6600
 0.5420	19.7680
 0.5430	19.8680
 0.5440	19.9620
 0.5450	20.0500
 0.5460	20.1280
 0.5470	20.2010
 0.5480	20.2690
 0.5490	20.3310
 0.5500	20.3820
 0.5510	20.4180
 0.5520	20.4430
 0.5530	20.4590
 0.5540	20.4550
 0.5550	20.4340
 0.5560	20.3950
 0.5570	20.3360
 0.5580	20.2630
 0.5590	20.1780
 0.5600	20.0790
 0.5610	19.9650
 0.5620	19.8380
 0.5630	19.6980
 0.5640	19.5490
 0.5650	19.3940
 0.5660	19.2370
 0.5670	19.0790
 0.5680	18.9160
 0.5690	18.7460
 0.5700	18.5690
 0.5710	18.3880
 0.5720	18.2090
 0.5730	18.0340
 0.5740	17.8650
 0.5750	17.7060
 0.5760	17.5520
 0.5770	17.4070
 0.5780	17.2700
 0.5790	17.1410
 0.5800	17.0170
 0.5810	16.8970
 0.5820	16.7780
 0.5830	16.6590
 0.5840	16.5450
 0.5850	16.4370
 0.5860	16.3360
 0.5870	16.2430
 0.5880	16.1590
 0.5890	16.0860
 0.5900	16.0190
 0.5910	15.9590
 0.5920	15.9020
 0.5930	15.8440
 0.5940	15.7910
 0.5950	15.7440
 0.5960	15.7020
 0.5970	15.6610
 0.5980	15.6130
 0.5990	15.5610
 0.6000	15.5110
 0.6010	15.4530
 0.6020	15.3870
 0.6030	15.3150
 0.6040	15.2390
 0.6050	15.1540
 0.6060	15.0630
 0.6070	14.9660
 0.6080	14.8590
 0.6090	14.7450
 0.6100	14.6250
 0.6110	14.5000
 0.6120	14.3870
 0.6130	14.2750
 0.6140	14.1590
 0.6150	14.0440
 0.6160	13.9290
 0.6170	13.8180
 0.6180	13.7150
 0.6190	13.6210
 0.6200	13.5340
 0.6210	13.4550
 0.6220	13.3830
 0.6230	13.3250
 0.6240	13.2810
 0.6250	13.2460
 0.6260	13.2150
 0.6270	13.1930
 0.6280	13.1760
 0.6290	13.1600
 0.6300	13.1420
 0.6310	13.1230
 0.6320	13.0980
 0.6330	13.0560
 0.6340	12.9960
 0.6350	12.9150
 0.6360	12.8120
 0.6370	12.6880
 0.6380	12.5400
 0.6390	12.3720
 0.6400	12.1910
 0.6410	11.9990
 0.6420	11.7990
 0.6430	11.5950
 0.6440	11.3860
 0.6450	11.1770
 0.6460	10.9720
 0.6470	10.7790
 0.6480	10.5980
 0.6490	10.4370
 0.6500	10.3020
 0.6510	10.1930
 0.6520	10.1040
 0.6530	10.0280
 0.6540	 9.9580
 0.6550	 9.8860
 0.6560	 9.8060
 0.6570	 9.7140
 0.6580	 9.6070
 0.6590	 9.4820
 0.6600	 9.3430
 0.6610	 9.1960
 0.6620	 9.0490
 0.6630	 8.8980
 0.6640	 8.7490
 0.6650	 8.6110
 0.6660	 8.4860
 0.6670	 8.3750
 0.6680	 8.2770
 0.6690	 8.1940
 0.6700	 8.1300
 0.6710	 8.0800
 0.6720	 8.0400
 0.6730	 8.0190
 0.6740	 8.0090
 0.6750	 8.0110
 0.6760	 8.0250
 0.6770	 8.0490
 0.6780	 8.0850
 0.6790	 8.1360
 0.6800	 8.2040
 0.6810	 8.3040
 0.6820	 8.4400
 0.6830	 8.6180
 0.6840	 8.8440
 0.6850	 9.1320
 0.6860	 9.4920
 0.6870	 9.9320
 0.6880	10.4620
 0.6890	11.0880
 0.6900	11.8080
 0.6910	12.6190
 0.6920	13.5140
 0.6930	14.4760
 0.6940	15.4900
 0.6950	16.5430
 0.6960	17.6210
 0.6970	18.7070
 0.6980	19.7880
 0.6990	20.8530
 0.7000	21.8940
 0.7010	22.9030
 0.7020	23.8720
 0.7030	24.7990
 0.7040	25.6810
 0.7050	26.5140
 0.7060	27.3040
 0.7070	28.0510
 0.7080	28.7560
 0.7090	29.4230
 0.7100	30.0530
 0.7110	30.6560
 0.7120	31.2330
 0.7130	31.7770
 0.7140	32.2910
 0.7150	32.7820
 0.7160	33.2520
 0.7170	33.6950
 0.7180	34.1190
 0.7190	34.5250
 0.7200	34.9090
 0.7210	35.2730
 0.7220	35.6190
 0.7230	35.9470
 0.7240	36.2540
 0.7250	36.5420
 0.7260	36.8140
 0.7270	37.0730
 0.7280	37.3160
 0.7290	37.5400
 0.7300	37.7490
 0.7310	37.9470
 0.7320	38.1320
 0.7330	38.3050
 0.7340	38.4650
 0.7350	38.6120
 0.7360	38.7500
 0.7370	38.8800
 0.7380	39.0000
 0.7390	39.1130
 0.7400	39.2190
 0.7410	39.3170
 0.7420	39.4050
 0.7430	39.4880
 0.7440	39.5620
 0.7450	39.6290
 0.7460	39.6930
 0.7470	39.7510
 0.7480	39.8030
 0.7490	39.8500
 0.7500	39.8920
 0.7510	39.9300
 0.7520	39.9650
 0.7530	39.9960
 0.7540	40.0270
 0.7550	40.0550
 0.7560	40.0800
 0.7570	40.1020
 0.7580	40.1220
 0.7590	40.1430
 0.7600	40.1630
 0.7610	40.1790
 0.7620	40.1950
 0.7630	40.2090
 0.7640	40.2210
 0.7650	40.2350
 0.7660	40.2460
 0.7670	40.2560
 0.7680	40.2680
 0.7690	40.2770
 0.7700	40.2850
 0.7710	40.2930
 0.7720	40.3030
 0.7730	40.3140
 0.7740	40.3230
 0.7750	40.3300
 0.7760	40.3360
 0.7770	40.3440
 0.7780	40.3510
 0.7790	40.3550
 0.7800	40.3610
 0.7810	40.3680
 0.7820	40.3770
 0.7830	40.3850
 0.7840	40.3890
 0.7850	40.3910
 0.7860	40.3950
 0.7870	40.4010
 0.7880	40.4020
 0.7890	40.4010
 0.7900	40.4040
 0.7910	40.4040
 0.7920	40.4060
 0.7930	40.4090
 0.7940	40.4070
 0.7950	40.4040
 0.7960	40.4020
 0.7970	40.4020
 0.7980	40.3930
 0.7990	40.3880
 0.8000	40.3860
 0.8010	40.3790
 0.8020	40.3730
 0.8030	40.3650
 0.8040	40.3570
 0.8050	40.3490
 0.8060	40.3410
 0.8070	40.3320
 0.8080	40.3220
 0.8090	40.3150
 0.8100	40.3050
 0.8110	40.2920
 0.8120	40.2780
 0.8130	40.2660
 0.8140	40.2530
 0.8150	40.2400
 0.8160	40.2260
 0.8170	40.2140
 0.8180	40.2000
 0.8190	40.1880
 0.8200	40.1770
 0.8210	40.1640
 0.8220	40.1480
 0.8230	40.1310
 0.8240	40.1180
 0.8250	40.1030
 0.8260	40.0890
 0.8270	40.0750
 0.8280	40.0610
 0.8290	40.0460
 0.8300	40.0310
 0.8310	40.0170
 0.8320	40.0060
 0.8330	39.9920
 0.8340	39.9790
 0.8350	39.9670
 0.8360	39.9570
 0.8370	39.9480
 0.8380	39.9400
 0.8390	39.9310
 0.8400	39.9250
 0.8410	39.9190
 0.8420	39.9110
 0.8430	39.9030
 0.8440	39.8970
 0.8450	39.8940
 0.8460	39.8930
 0.8470	39.8870
 0.8480	39.8800
 0.8490	39.8750
 0.8500	39.8760
 0.8510	39.8740
 0.8520	39.8720
 0.8530	39.8710
 0.8540	39.8710
 0.8550	39.8690
 0.8560	39.8710
 0.8570	39.8750
 0.8580	39.8770
 0.8590	39.8770
 0.8600	39.8770
 0.8610	39.8810
 0.8620	39.8840
 0.8630	39.8890
 0.8640	39.8940
 0.8650	39.8990
 0.8660	39.9060
 0.8670	39.9120
 0.8680	39.9170
 0.8690	39.9210
 0.8700	39.9300
 0.8710	39.9400
 0.8720	39.9470
 0.8730	39.9520
 0.8740	39.9600
 0.8750	39.9670
 0.8760	39.9750
 0.8770	39.9880
 0.8780	39.9980
 0.8790	40.0020
 0.8800	40.0050
 0.8810	40.0140
 0.8820	40.0260
 0.8830	40.0380
 0.8840	40.0470
 0.8850	40.0520
 0.8860	40.0620
 0.8870	40.0730
 0.8880	40.0800
 0.8890	40.0900
 0.8900	40.1030
 0.8910	40.1170
 0.8920	40.1280
 0.8930	40.1350
 0.8940	40.1380
 0.8950	40.1430
 0.8960	40.1550
 0.8970	40.1640
 0.8980	40.1730
 0.8990	40.1810
 0.9000	40.1860
 0.9010	40.1980
 0.9020	40.2080
 0.9030	40.2140
 0.9040	40.2240
 0.9050	40.2310
 0.9060	40.2360
 0.9070	40.2420
 0.9080	40.2510
 0.9090	40.2610
 0.9100	40.2680
 0.9110	40.2720
 0.9120	40.2750
 0.9130	40.2780
 0.9140	40.2830
 0.9150	40.2900
 0.9160	40.2910
 0.9170	40.2940
 0.9180	40.2950
 0.9190	40.2900
 0.9200	40.2900
 0.9210	40.2850
 0.9220	40.2790
 0.9230	40.2800
 0.9240	40.2760
 0.9250	40.2730
 0.9260	40.2680
 0.9270	40.2570
 0.9280	40.2470
 0.9290	40.2340
 0.9300	40.2190
 0.9310	40.2070
 0.9320	40.1990
 0.9330	40.1890
 0.9340	40.1720
 0.9350	40.1510
 0.9360	40.1370
 0.9370	40.1220
 0.9380	40.1000
 0.9390	40.0780
 0.9400	40.0600
 0.9410	40.0430
 0.9420	40.0230
 0.9430	40.0070
 0.9440	39.9790
 0.9450	39.9440
 0.9460	39.9110
 0.9470	39.8890
 0.9480	39.8600
 0.9490	39.8250
 0.9500	39.7870
 0.9510	39.7420
 0.9520	39.7010
 0.9530	39.6580
 0.9540	39.6130
 0.9550	39.5810
 0.9560	39.5400
 0.9570	39.4940
 0.9580	39.4530
 0.9590	39.4150
 0.9600	39.3870
 0.9610	39.3600
 0.9620	39.3290
 0.9630	39.3200
 0.9640	39.2990
 0.9650	39.2730
 0.9660	39.2610
 0.9670	39.2450
 0.9680	39.2350
 0.9690	39.2270
 0.9700	39.2140
 0.9710	39.2020
 0.9720	39.1920
 0.9730	39.1870
 0.9740	39.1900
 0.9750	39.1770
 0.9760	39.1700
 0.9770	39.1740
 0.9780	39.1780
 0.9790	39.1720
 0.9800	39.1710
 0.9810	39.1700
 0.9820	39.1630
 0.9830	39.1580
 0.9840	39.1660
 0.9850	39.1740
 0.9860	39.1670
 0.9870	39.1770
 0.9880	39.2010
 0.9890	39.2150
 0.9900	39.2030
 0.9910	39.2100
 0.9920	39.2130
 0.9930	39.2200
 0.9940	39.2460
 0.9950	39.2610
 0.9960	39.2740
 0.9970	39.2820
 0.9980	39.2790
 0.9990	39.2830
 1.0000	39.3010
 1.0010	40.5490
 1.0020	40.5540
 1.0030	40.5610
 1.0040	40.5730
 1.0050	40.5820
 1.0060	40.5950
 1.0070	40.6110
 1.0080	40.6230
 1.0090	40.6360
 1.0100	40.6460
 1.0110	40.6500
 1.0120	40.6580
 1.0130	40.6650
 1.0140	40.6720
 1.0150	40.6790
 1.0160	40.6860
 1.0170	40.6930
 1.0180	40.7030
 1.0190	40.7150
 1.0200	40.7240
 1.0210	40.7320
 1.0220	40.7380
 1.0230	40.7460
 1.0240	40.7550
 1.0250	40.7640
 1.0260	40.7760
 1.0270	40.7850
 1.0280	40.7890
 1.0290	40.7990
 1.0300	40.8110
 1.0310	40.8220
 1.0320	40.8350
 1.0330	40.8480
 1.0340	40.8580
 1.0350	40.8650
 1.0360	40.8670
 1.0370	40.8700
 1.0380	40.8740
 1.0390	40.8720
 1.0400	40.8780
 1.0410	40.8920
 1.0420	40.8990
 1.0430	40.9080
 1.0440	40.9150
 1.0450	40.9150
 1.0460	40.9190
 1.0470	40.9240
 1.0480	40.9300
 1.0490	40.9370
 1.0500	40.9420
 1.0510	40.9470
 1.0520	40.9510
 1.0530	40.9520
 1.0540	40.9490
 1.0550	40.9500
 1.0560	40.9480
 1.0570	40.9510
 1.0580	40.9580
 1.0590	40.9600
 1.0600	40.9620
 1.0610	40.9640
 1.0620	40.9630
 1.0630	40.9630
 1.0640	40.9620
 1.0650	40.9610
 1.0660	40.9590
 1.0670	40.9560
 1.0680	40.9530
 1.0690	40.9500
 1.0700	40.9440
 1.0710	40.9360
 1.0720	40.9310
 1.0730	40.9260
 1.0740	40.9210
 1.0750	40.9190
 1.0760	40.9150
 1.0770	40.9100
 1.0780	40.9060
 1.0790	40.9020
 1.0800	40.8980
 1.0810	40.8940
 1.0820	40.8900
 1.0830	40.8850
 1.0840	40.8790
 1.0850	40.8710
 1.0860	40.8630
 1.0870	40.8560
 1.0880	40.8480
 1.0890	40.8410
 1.0900	40.8350
 1.0910	40.8290
 1.0920	40.8240
 1.0930	40.8180
 1.0940	40.8110
 1.0950	40.8030
 1.0960	40.7930
 1.0970	40.7860
 1.0980	40.7810
 1.0990	40.7740
 1.1000	40.7650
 1.1010	40.7590
 1.1020	40.7520
 1.1030	40.7450
 1.1040	40.7390
 1.1050	40.7320
 1.1060	40.7240
 1.1070	40.7120
 1.1080	40.7050
 1.1090	40.7000
 1.1100	40.6910
 1.1110	40.6820
 1.1120	40.6730
 1.1130	40.6620
 1.1140	40.6520
 1.1150	40.6440
 1.1160	40.6330
 1.1170	40.6200
 1.1180	40.6070
 1.1190	40.5930
 1.1200	40.5760
 1.1210	40.5560
 1.1220	40.5350
 1.1230	40.5110
 1.1240	40.4850
 1.1250	40.4570
 1.1260	40.4290
 1.1270	40.3950
 1.1280	40.3580
 1.1290	40.3170
 1.1300	40.2720
 1.1310	40.2220
 1.1320	40.1680
 1.1330	40.1100
 1.1340	40.0480
 1.1350	39.9810
 1.1360	39.9090
 1.1370	39.8300
 1.1380	39.7490
 1.1390	39.6640
 1.1400	39.5760
 1.1410	39.4870
 1.1420	39.3960
 1.1430	39.3030
 1.1440	39.2110
 1.1450	39.1170
 1.1460	39.0260
 1.1470	38.9330
 1.1480	38.8480
 1.1490	38.7650
 1.1500	38.6890
 1.1510	38.6190
 1.1520	38.5520
 1.1530	38.4890
 1.1540	38.4330
 1.1550	38.3810
 1.1560	38.3340
 1.1570	38.2930
 1.1580	38.2590
 1.1590	38.2290
 1.1600	38.2030
 1.1610	38.1790
 1.1620	38.1580
 1.1630	38.1410
 1.1640	38.1270
 1.1650	38.1140
 1.1660	38.1050
 1.1670	38.0950
 1.1680	38.0850
 1.1690	38.0770
 1.1700	38.0680
 1.1710	38.0630
 1.1720	38.0610
 1.1730	38.0560
 1.1740	38.0520
 1.1750	38.0460
 1.1760	38.0380
 1.1770	38.0310
 1.1780	38.0250
 1.1790	38.0190
 1.1800	38.0120
 1.1810	38.0050
 1.1820	37.9980
 1.1830	37.9910
 1.1840	37.9830
 1.1850	37.9740
 1.1860	37.9660
 1.1870	37.9570
 1.1880	37.9500
 1.1890	37.9470
 1.1900	37.9410
 1.1910	37.9360
 1.1920	37.9310
 1.1930	37.9260
 1.1940	37.9210
 1.1950	37.9180
 1.1960	37.9160
 1.1970	37.9140
 1.1980	37.9110
 1.1990	37.9090
 1.2000	37.9060
 1.2010	37.9060
 1.2020	37.9070
 1.2030	37.9090
 1.2040	37.9120
 1.2050	37.9170
 1.2060	37.9220
 1.2070	37.9290
 1.2080	37.9370
 1.2090	37.9430
 1.2100	37.9490
 1.2110	37.9560
 1.2120	37.9630
 1.2130	37.9710
 1.2140	37.9810
 1.2150	37.9900
 1.2160	38.0000
 1.2170	38.0110
 1.2180	38.0210
 1.2190	38.0300
 1.2200	38.0410
 1.2210	38.0510
 1.2220	38.0640
 1.2230	38.0760
 1.2240	38.0880
 1.2250	38.0960
 1.2260	38.1060
 1.2270	38.1180
 1.2280	38.1290
 1.2290	38.1410
 1.2300	38.1530
 1.2310	38.1620
 1.2320	38.1700
 1.2330	38.1790
 1.2340	38.1870
 1.2350	38.1930
 1.2360	38.1990
 1.2370	38.2040
 1.2380	38.2100
 1.2390	38.2160
 1.2400	38.2220
 1.2410	38.2280
 1.2420	38.2340
 1.2430	38.2380
 1.2440	38.2430
 1.2450	38.2470
 1.2460	38.2500
 1.2470	38.2530
 1.2480	38.2550
 1.2490	38.2590
 1.2500	38.2610
 1.2510	38.2620
 1.2520	38.2630
 1.2530	38.2630
 1.2540	38.2650
 1.2550	38.2680
 1.2560	38.2670
 1.2570	38.2680
 1.2580	38.2670
 1.2590	38.2640
 1.2600	38.2610
 1.2610	38.2570
 1.2620	38.2520
 1.2630	38.2450
 1.2640	38.2400
 1.2650	38.2340
 1.2660	38.2290
 1.2670	38.2240
 1.2680	38.2180
 1.2690	38.2120
 1.2700	38.2030
 1.2710	38.1950
 1.2720	38.1860
 1.2730	38.1750
 1.2740	38.1630
 1.2750	38.1490
 1.2760	38.1360
 1.2770	38.1230
 1.2780	38.1080
 1.2790	38.0930
 1.2800	38.0750
 1.2810	38.0560
 1.2820	38.0370
 1.2830	38.0150
 1.2840	37.9920
 1.2850	37.9680
 1.2860	37.9430
 1.2870	37.9170
 1.2880	37.8880
 1.2890	37.8580
 1.2900	37.8270
 1.2910	37.7940
 1.2920	37.7590
 1.2930	37.7230
 1.2940	37.6850
 1.2950	37.6450
 1.2960	37.6040
 1.2970	37.5630
 1.2980	37.5190
 1.2990	37.4740
 1.3000	37.4270
 1.3010	37.3790
 1.3020	37.3300
 1.3030	37.2800
 1.3040	37.2270
 1.3050	37.1750
 1.3060	37.1180
 1.3070	37.0610
 1.3080	37.0060
 1.3090	36.9480
 1.3100	36.8880
 1.3110	36.8260
 1.3120	36.7620
 1.3130	36.6970
 1.3140	36.6310
 1.3150	36.5650
 1.3160	36.4960
 1.3170	36.4250
 1.3180	36.3530
 1.3190	36.2780
 1.3200	36.2030
 1.3210	36.1280
 1.3220	36.0510
 1.3230	35.9730
 1.3240	35.8940
 1.3250	35.8120
 1.3260	35.7280
 1.3270	35.6460
 1.3280	35.5600
 1.3290	35.4720
 1.3300	35.3850
 1.3310	35.2960
 1.3320	35.2050
 1.3330	35.1150
 1.3340	35.0240
 1.3350	34.9320
 1.3360	34.8400
 1.3370	34.7480
 1.3380	34.6570
 1.3390	34.5650
 1.3400	34.4740
 1.3410	34.3830
 1.3420	34.2920
 1.3430	34.2030
 1.3440	34.1160
 1.3450	34.0270
 1.3460	33.9380
 1.3470	33.8520
 1.3480	33.7650
 1.3490	33.6800
 1.3500	33.5960
 1.3510	33.5120
 1.3520	33.4260
 1.3530	33.3420
 1.3540	33.2570
 1.3550	33.1710
 1.3560	33.0870
 1.3570	33.0000
 1.3580	32.9120
 1.3590	32.8210
 1.3600	32.7270
 1.3610	32.6300
 1.3620	32.5270
 1.3630	32.4200
 1.3640	32.3080
 1.3650	32.1890
 1.3660	32.0660
 1.3670	31.9360
 1.3680	31.7970
 1.3690	31.6480
 1.3700	31.4870
 1.3710	31.3150
 1.3720	31.1300
 1.3730	30.9310
 1.3740	30.7200
 1.3750	30.4910
 1.3760	30.2440
 1.3770	29.9790
 1.3780	29.6950
 1.3790	29.3930
 1.3800	29.0730
 1.3810	28.7330
 1.3820	28.3770
 1.3830	28.0040
 1.3840	27.6130
 1.3850	27.2040
 1.3860	26.7830
 1.3870	26.3420
 1.3880	25.8970
 1.3890	25.4390
 1.3900	24.9730
 1.3910	24.5070
 1.3920	24.0350
 1.3930	23.5600
 1.3940	23.0900
 1.3950	22.6180
 1.3960	22.1520
 1.3970	21.6960
 1.3980	21.2490
 1.3990	20.8190
 1.4000	20.4040
 1.4010	20.0010
 1.4020	19.6150
 1.4030	19.2430
 1.4040	18.8890
 1.4050	18.5540
 1.4060	18.2370
 1.4070	17.9420
 1.4080	17.6650
 1.4090	17.4030
 1.4100	17.1610
 1.4110	16.9340
 1.4120	16.7230
 1.4130	16.5290
 1.4140	16.3500
 1.4150	16.1860
 1.4160	16.0360
 1.4170	15.8980
 1.4180	15.7730
 1.4190	15.6560
 1.4200	15.5490
 1.4210	15.4520
 1.4220	15.3640
 1.4230	15.2850
 1.4240	15.2150
 1.4250	15.1510
 1.4260	15.0940
 1.4270	15.0420
 1.4280	14.9960
 1.4290	14.9550
 1.4300	14.9190
 1.4310	14.8890
 1.4320	14.8640
 1.4330	14.8430
 1.4340	14.8260
 1.4350	14.8110
 1.4360	14.8000
 1.4370	14.7920
 1.4380	14.7870
 1.4390	14.7850
 1.4400	14.7860
 1.4410	14.7900
 1.4420	14.7960
 1.4430	14.8030
 1.4440	14.8120
 1.4450	14.8220
 1.4460	14.8340
 1.4470	14.8480
 1.4480	14.8630
 1.4490	14.8790
 1.4500	14.8950
 1.4510	14.9130
 1.4520	14.9330
 1.4530	14.9540
 1.4540	14.9760
 1.4550	15.0000
 1.4560	15.0250
 1.4570	15.0520
 1.4580	15.0830
 1.4590	15.1170
 1.4600	15.1560
 1.4610	15.1970
 1.4620	15.2420
 1.4630	15.2910
 1.4640	15.3430
 1.4650	15.3990
 1.4660	15.4600
 1.4670	15.5250
 1.4680	15.5950
 1.4690	15.6680
 1.4700	15.7450
 1.4710	15.8260
 1.4720	15.9090
 1.4730	15.9940
 1.4740	16.0840
 1.4750	16.1760
 1.4760	16.2730
 1.4770	16.3720
 1.4780	16.4710
 1.4790	16.5720
 1.4800	16.6740
 1.4810	16.7770
 1.4820	16.8820
 1.4830	16.9890
 1.4840	17.0980
 1.4850	17.2070
 1.4860	17.3160
 1.4870	17.4270
 1.4880	17.5370
 1.4890	17.6480
 1.4900	17.7600
 1.4910	17.8740
 1.4920	17.9870
 1.4930	18.1020
 1.4940	18.2160
 1.4950	18.3310
 1.4960	18.4460
 1.4970	18.5610
 1.4980	18.6760
 1.4990	18.7910
 1.5000	18.9070
 1.5010	19.0230
 1.5020	19.1380
 1.5030	19.2520
 1.5040	19.3670
 1.5050	19.4810
 1.5060	19.5950
 1.5070	19.7090
 1.5080	19.8230
 1.5090	19.9380
 1.5100	20.0500
 1.5110	20.1630
 1.5120	20.2770
 1.5130	20.3880
 1.5140	20.5000
 1.5150	20.6110
 1.5160	20.7200
 1.5170	20.8310
 1.5180	20.9410
 1.5190	21.0500
 1.5200	21.1600
 1.5210	21.2660
 1.5220	21.3730
 1.5230	21.4800
 1.5240	21.5850
 1.5250	21.6890
 1.5260	21.7930
 1.5270	21.8940
 1.5280	21.9950
 1.5290	22.0960
 1.5300	22.1970
 1.5310	22.2970
 1.5320	22.3960
 1.5330	22.4940
 1.5340	22.5920
 1.5350	22.6880
 1.5360	22.7850
 1.5370	22.8800
 1.5380	22.9730
 1.5390	23.0680
 1.5400	23.1600
 1.5410	23.2520
 1.5420	23.3430
 1.5430	23.4330
 1.5440	23.5220
 1.5450	23.6100
 1.5460	23.6990
 1.5470	23.7860
 1.5480	23.8710
 1.5490	23.9560
 1.5500	24.0370
 1.5510	24.1190
 1.5520	24.2020
 1.5530	24.2830
 1.5540	24.3640
 1.5550	24.4440
 1.5560	24.5200
 1.5570	24.5970
 1.5580	24.6730
 1.5590	24.7480
 1.5600	24.8230
 1.5610	24.8960
 1.5620	24.9680
 1.5630	25.0390
 1.5640	25.1100
 1.5650	25.1800
 1.5660	25.2490
 1.5670	25.3180
 1.5680	25.3870
 1.5690	25.4540
 1.5700	25.5190
 1.5710	25.5840
 1.5720	25.6480
 1.5730	25.7110
 1.5740	25.7750
 1.5750	25.8350
 1.5760	25.8960
 1.5770	25.9560
 1.5780	26.0150
 1.5790	26.0730
 1.5800	26.1320
 1.5810	26.1910
 1.5820	26.2490
 1.5830	26.3060
 1.5840	26.3630
 1.5850	26.4180
 1.5860	26.4720
 1.5870	26.5260
 1.5880	26.5790
 1.5890	26.6310
 1.5900	26.6820
 1.5910	26.7330
 1.5920	26.7830
 1.5930	26.8330
 1.5940	26.8840
 1.5950	26.9340
 1.5960	26.9830
 1.5970	27.0300
 1.5980	27.0760
 1.5990	27.1210
 1.6000	27.1670
 1.6010	27.2110
 1.6020	27.2540
 1.6030	27.2980
 1.6040	27.3390
 1.6050	27.3790
 1.6060	27.4210
 1.6070	27.4620
 1.6080	27.5020
 1.6090	27.5420
 1.6100	27.5810
 1.6110	27.6210
 1.6120	27.6580
 1.6130	27.6960
 1.6140	27.7330
 1.6150	27.7670
 1.6160	27.8010
 1.6170	27.8350
 1.6180	27.8690
 1.6190	27.9030
 1.6200	27.9360
 1.6210	27.9690
 1.6220	28.0000
 1.6230	28.0300
 1.6240	28.0610
 1.6250	28.0910
 1.6260	28.1190
 1.6270	28.1490
 1.6280	28.1750
 1.6290	28.2020
 1.6300	28.2280
 1.6310	28.2530
 1.6320	28.2770
 1.6330	28.3000
 1.6340	28.3240
 1.6350	28.3460
 1.6360	28.3680
 1.6370	28.3880
 1.6380	28.4060
 1.6390	28.4250
 1.6400	28.4430
 1.6410	28.4610
 1.6420	28.4780
 1.6430	28.4930
 1.6440	28.5050
 1.6450	28.5180
 1.6460	28.5280
 1.6470	28.5380
 1.6480	28.5460
 1.6490	28.5540
 1.6500	28.5630
 1.6510	28.5700
 1.6520	28.5760
 1.6530	28.5790
 1.6540	28.5810
 1.6550	28.5820
 1.6560	28.5830
 1.6570	28.5820
 1.6580	28.5810
 1.6590	28.5810
 1.6600	28.5780
 1.6610	28.5770
 1.6620	28.5770
 1.6630	28.5750
 1.6640	28.5740
 1.6650	28.5720
 1.6660	28.5690
 1.6670	28.5680
 1.6680	28.5670
 1.6690	28.5650
 1.6700	28.5620
 1.6710	28.5580
 1.6720	28.5520
 1.6730	28.5470
 1.6740	28.5420
 1.6750	28.5370
 1.6760	28.5330
 1.6770	28.5270
 1.6780	28.5210
 1.6790	28.5120
 1.6800	28.5020
 1.6810	28.4910
 1.6820	28.4800
 1.6830	28.4660
 1.6840	28.4520
 1.6850	28.4370
 1.6860	28.4200
 1.6870	28.4040
 1.6880	28.3870
 1.6890	28.3680
 1.6900	28.3470
 1.6910	28.3250
 1.6920	28.3020
 1.6930	28.2800
 1.6940	28.2570
 1.6950	28.2340
 1.6960	28.2090
 1.6970	28.1820
 1.6980	28.1550
 1.6990	28.1270
 1.7000	28.0980
 1.7010	28.0680
 1.7020	28.0360
 1.7030	28.0020
 1.7040	27.9670
 1.7050	27.9300
 1.7060	27.8920
 1.7070	27.8530
 1.7080	27.8150
 1.7090	27.7780
 1.7100	27.7380
 1.7110	27.6980
 1.7120	27.6550
 1.7130	27.6110
 1.7140	27.5670
 1.7150	27.5230
 1.7160	27.4820
 1.7170	27.4390
 1.7180	27.3970
 1.7190	27.3570
 1.7200	27.3140
 1.7210	27.2690
 1.7220	27.2260
 1.7230	27.1820
 1.7240	27.1360
 1.7250	27.0930
 1.7260	27.0500
 1.7270	27.0070
 1.7280	26.9660
 1.7290	26.9270
 1.7300	26.8880
 1.7310	26.8500
 1.7320	26.8120
 1.7330	26.7760
 1.7340	26.7430
 1.7350	26.7090
 1.7360	26.6770
 1.7370	26.6420
 1.7380	26.6080
 1.7390	26.5710
 1.7400	26.5300
 1.7410	26.4890
 1.7420	26.4470
 1.7430	26.4030
 1.7440	26.3580
 1.7450	26.3110
 1.7460	26.2610
 1.7470	26.2100
 1.7480	26.1590
 1.7490	26.1060
 1.7500	26.0510
 1.7510	25.9960
 1.7520	25.9400
 1.7530	25.8850
 1.7540	25.8290
 1.7550	25.7740
 1.7560	25.7190
 1.7570	25.6630
 1.7580	25.6080
 1.7590	25.5550
 1.7600	25.5020
 1.7610	25.4500
 1.7620	25.4000
 1.7630	25.3490
 1.7640	25.3000
 1.7650	25.2520
 1.7660	25.2070
 1.7670	25.1640
 1.7680	25.1220
 1.7690	25.0840
 1.7700	25.0440
 1.7710	25.0060
 1.7720	24.9670
 1.7730	24.9280
 1.7740	24.8920
 1.7750	24.8590
 1.7760	24.8250
 1.7770	24.7940
 1.7780	24.7630
 1.7790	24.7320
 1.7800	24.7030
 1.7810	24.6770
 1.7820	24.6540
 1.7830	24.6350
 1.7840	24.6160
 1.7850	24.5990
 1.7860	24.5820
 1.7870	24.5640
 1.7880	24.5510
 1.7890	24.5390
 1.7900	24.5260
 1.7910	24.5150
 1.7920	24.5040
 1.7930	24.4940
 1.7940	24.4870
 1.7950	24.4800
 1.7960	24.4740
 1.7970	24.4700
 1.7980	24.4690
 1.7990	24.4670
 1.8000	24.4660
 1.8010	24.4650
 1.8020	24.4620
 1.8030	24.4600
 1.8040	24.4590
 1.8050	24.4580
 1.8060	24.4600
 1.8070	24.4590
 1.8080	24.4580
 1.8090	24.4580
 1.8100	24.4570
 1.8110	24.4590
 1.8120	24.4600
 1.8130	24.4560
 1.8140	24.4550
 1.8150	24.4510
 1.8160	24.4450
 1.8170	24.4420
 1.8180	24.4370
 1.8190	24.4280
 1.8200	24.4210
 1.8210	24.4120
 1.8220	24.4030
 1.8230	24.3950
 1.8240	24.3860
 1.8250	24.3740
 1.8260	24.3600
 1.8270	24.3460
 1.8280	24.3280
 1.8290	24.3060
 1.8300	24.2840
 1.8310	24.3570
 1.8320	24.3320
 1.8330	24.3010
 1.8340	24.2620
 1.8350	24.2250
 1.8360	24.1840
 1.8370	24.1390
 1.8380	24.0900
 1.8390	24.0360
 1.8400	23.9790
 1.8410	23.9150
 1.8420	23.8460
 1.8430	23.7750
 1.8440	23.6960
 1.8450	23.6130
 1.8460	23.5270
 1.8470	23.4300
 1.8480	23.3260
 1.8490	23.2120
 1.8500	23.0890
 1.8510	22.9540
 1.8520	22.8130
 1.8530	22.6590
 1.8540	22.4990
 1.8550	22.3310
 1.8560	22.1470
 1.8570	21.9550
 1.8580	21.7490
 1.8590	21.5300
 1.8600	21.2980
 1.8610	21.0560
 1.8620	20.7950
 1.8630	20.5250
 1.8640	20.2370
 1.8650	19.9340
 1.8660	19.6200
 1.8670	19.2900
 1.8680	18.9500
 1.8690	18.5970
 1.8700	18.2270
 1.8710	17.8420
 1.8720	17.4490
 1.8730	17.0450
 1.8740	16.6340
 1.8750	16.2200
 1.8760	15.7980
 1.8770	15.3720
 1.8780	14.9440
 1.8790	14.5120
 1.8800	14.0910
 1.8810	13.6730
 1.8820	13.2590
 1.8830	12.8500
 1.8840	12.4540
 1.8850	12.0640
 1.8860	11.6870
 1.8870	11.3250
 1.8880	10.9740
 1.8890	10.6430
 1.8900	10.3290
 1.8910	10.0320
 1.8920	 9.7490
 1.8930	 9.4930
 1.8940	 9.2550
 1.8950	 9.0350
 1.8960	 8.8350
 1.8970	 8.6520
 1.8980	 8.4890
 1.8990	 8.3400
 1.9000	 8.2050
 1.9010	 8.0880
 1.9020	 7.9790
 1.9030	 7.8810
 1.9040	 7.7940
 1.9050	 7.7190
 1.9060	 7.6520
 1.9070	 7.5940
 1.9080	 7.5450
 1.9090	 7.5000
 1.9100	 7.4620
 1.9110	 7.4280
 1.9120	 7.4020
 1.9130	 7.3770
 1.9140	 7.3570
 1.9150	 7.3390
 1.9160	 7.3250
 1.9170	 7.3110
 1.9180	 7.3000
 1.9190	 7.2940
 1.9200	 7.2880
 1.9210	 7.2830
 1.9220	 7.2800
 1.9230	 7.2790
 1.9240	 7.2780
 1.9250	 7.2780
 1.9260	 7.2790
 1.9270	 7.2790
 1.9280	 7.2810
 1.9290	 7.2860
 1.9300	 7.2960
 1.9310	 7.3040
 1.9320	 7.3140
 1.9330	 7.3240
 1.9340	 7.3330
 1.9350	 7.3420
 1.9360	 7.3520
 1.9370	 7.3640
 1.9380	 7.3750
 1.9390	 7.3880
 1.9400	 7.4010
 1.9410	 7.4160
 1.9420	 7.4310
 1.9430	 7.4480
 1.9440	 7.4670
 1.9450	 7.4900
 1.9460	 7.5100
 1.9470	 7.5280
 1.9480	 7.5490
 1.9490	 7.5690
 1.9500	 7.5910
 1.9510	 7.6140
 1.9520	 7.6400
 1.9530	 7.6640
 1.9540	 7.6900
 1.9550	 7.7160
 1.9560	 7.7420
 1.9570	 7.7690
 1.9580	 7.7960
 1.9590	 7.8250
 1.9600	 7.8570
 1.9610	 7.8870
 1.9620	 7.9190
 1.9630	 7.9500
 1.9640	 7.9800
 1.9650	 8.0130
 1.9660	 8.0500
 1.9670	 8.0850
 1.9680	 8.1210
 1.9690	 8.1550
 1.9700	 8.1910
 1.9710	 8.2260
 1.9720	 8.2640
 1.9730	 8.3080
 1.9740	 8.3500
 1.9750	 8.3910
 1.9760	 8.4330
 1.9770	 8.4750
 1.9780	 8.5160
 1.9790	 8.5580
 1.9800	 8.6020
 1.9810	 8.6470
 1.9820	 8.6910
 1.9830	 8.7380
 1.9840	 8.7870
 1.9850	 8.8360
 1.9860	 8.8860
 1.9870	 8.9350
 1.9880	 8.9830
 1.9890	 9.0340
 1.9900	 9.0850
 1.9910	 9.1370
 1.9920	 9.1890
 1.9930	 9.2420
 1.9940	 9.2960
 1.9950	 9.3520
 1.9960	 9.4050
 1.9970	 9.4580
 1.9980	 9.5100
 1.9990	 9.5610
 2.0000	 9.6140
 2.0010	 9.6680
 2.0020	 9.7230
 2.0030	 9.7790
 2.0040	 9.8350
 2.0050	 9.8910
 2.0060	 9.9480
 2.0070	10.0040
 2.0080	10.0610
 2.0090	10.1190
 2.0100	10.1770
 2.0110	10.2370
 2.0120	10.2980
 2.0130	10.3590
 2.0140	10.4190
 2.0150	10.4770
 2.0160	10.5320
 2.0170	10.5880
 2.0180	10.6450
 2.0190	10.7010
 2.0200	10.7590
 2.0210	10.8190
 2.0220	10.8780
 2.0230	10.9380
 2.0240	10.9960
 2.0250	11.0540
 2.0260	11.1110
 2.0270	11.1660
 2.0280	11.2210
 2.0290	11.2730
 2.0300	11.3260
 2.0310	11.3820
 2.0320	11.4380
 2.0330	11.4940
 2.0340	11.5560
 2.0350	11.6120
 2.0360	11.6660
 2.0370	11.7190
 2.0380	11.7680
 2.0390	11.8200
 2.0400	11.8710
 2.0410	11.9220
 2.0420	11.9740
 2.0430	12.0240
 2.0440	12.0750
 2.0450	12.1250
 2.0460	12.1750
 2.0470	12.2270
 2.0480	12.2770
 2.0490	12.3280
 2.0500	12.3780
 2.0510	12.4280
 2.0520	12.4780
 2.0530	12.5260
 2.0540	12.5750
 2.0550	12.6250
 2.0560	12.6760
 2.0570	12.7290
 2.0580	12.7810
 2.0590	12.8330
 2.0600	12.8830
 2.0610	12.9350
 2.0620	12.9890
 2.0630	13.0410
 2.0640	13.0930
 2.0650	13.1440
 2.0660	13.1910
 2.0670	13.2400
 2.0680	13.2890
 2.0690	13.3380
 2.0700	13.3860
 2.0710	13.4360
 2.0720	13.4860
 2.0730	13.5360
 2.0740	13.5880
 2.0750	13.6420
 2.0760	13.6930
 2.0770	13.7450
 2.0780	13.7950
 2.0790	13.8430
 2.0800	13.8900
 2.0810	13.9350
 2.0820	13.9830
 2.0830	14.0330
 2.0840	14.0820
 2.0850	14.1330
 2.0860	14.1830
 2.0870	14.2290
 2.0880	14.2770
 2.0890	14.3250
 2.0900	14.3730
 2.0910	14.4220
 2.0920	14.4710
 2.0930	14.5200
 2.0940	14.5690
 2.0950	14.6160
 2.0960	14.6620
 2.0970	14.7090
 2.0980	14.7540
 2.0990	14.8000
 2.1000	14.8470
 2.1010	14.8930
 2.1020	14.9360
 2.1030	14.9810
 2.1040	15.0270
 2.1050	15.0710
 2.1060	15.1160
 2.1070	15.1630
 2.1080	15.2080
 2.1090	15.2520
 2.1100	15.2970
 2.1110	15.3410
 2.1120	15.3850
 2.1130	15.4310
 2.1140	15.4750
 2.1150	15.5170
 2.1160	15.5590
 2.1170	15.5980
 2.1180	15.6380
 2.1190	15.6780
 2.1200	15.7190
 2.1210	15.7600
 2.1220	15.8020
 2.1230	15.8400
 2.1240	15.8780
 2.1250	15.9160
 2.1260	15.9510
 2.1270	15.9880
 2.1280	16.0280
 2.1290	16.0630
 2.1300	16.0960
 2.1310	16.1270
 2.1320	16.1530
 2.1330	16.1820
 2.1340	16.2110
 2.1350	16.2410
 2.1360	16.2740
 2.1370	16.3040
 2.1380	16.3320
 2.1390	16.3600
 2.1400	16.3890
 2.1410	16.4160
 2.1420	16.4440
 2.1430	16.4740
 2.1440	16.5020
 2.1450	16.5300
 2.1460	16.5570
 2.1470	16.5850
 2.1480	16.6100
 2.1490	16.6320
 2.1500	16.6570
 2.1510	16.6800
 2.1520	16.7040
 2.1530	16.7340
 2.1540	16.7590
 2.1550	16.7820
 2.1560	16.8030
 2.1570	16.8190
 2.1580	16.8360
 2.1590	16.8510
 2.1600	16.8660
 2.1610	16.8860
 2.1620	16.9050
 2.1630	16.9240
 2.1640	16.9460
 2.1650	16.9640
 2.1660	16.9780
 2.1670	16.9940
 2.1680	17.0070
 2.1690	17.0210
 2.1700	17.0340
 2.1710	17.0510
 2.1720	17.0710
 2.1730	17.0880
 2.1740	17.1070
 2.1750	17.1230
 2.1760	17.1330
 2.1770	17.1440
 2.1780	17.1530
 2.1790	17.1650
 2.1800	17.1790
 2.1810	17.1920
 2.1820	17.2030
 2.1830	17.2210
 2.1840	17.2350
 2.1850	17.2480
 2.1860	17.2630
 2.1870	17.2810
 2.1880	17.2930
 2.1890	17.3040
 2.1900	17.3160
 2.1910	17.3260
 2.1920	17.3370
 2.1930	17.3470
 2.1940	17.3600
 2.1950	17.3730
 2.1960	17.3840
 2.1970	17.3980
 2.1980	17.4080
 2.1990	17.4100
 2.2000	17.4180
 2.2010	17.4310
 2.2020	17.4370
 2.2030	17.4420
 2.2040	17.4460
 2.2050	17.4430
 2.2060	17.4410
 2.2070	17.4410
 2.2080	17.4440
 2.2090	17.4470
 2.2100	17.4530
 2.2110	17.4540
 2.2120	17.4560
 2.2130	17.4550
 2.2140	17.4480
 2.2150	17.4460
 2.2160	17.4460
 2.2170	17.4420
 2.2180	17.4370
 2.2190	17.4320
 2.2200	17.4240
 2.2210	17.4170
 2.2220	17.4140
 2.2230	17.4060
 2.2240	17.3920
 2.2250	17.3810
 2.2260	17.3690
 2.2270	17.3560
 2.2280	17.3500
 2.2290	17.3350
 2.2300	17.3150
 2.2310	17.2910
 2.2320	17.2590
 2.2330	17.2310
 2.2340	17.2050
 2.2350	17.1800
 2.2360	17.1510
 2.2370	17.1240
 2.2380	17.0920
 2.2390	17.0530
 2.2400	17.0170
 2.2410	16.9800
 2.2420	16.9440
 2.2430	16.9090
 2.2440	16.8750
 2.2450	16.8430
 2.2460	16.8090
 2.2470	16.7730
 2.2480	16.7410
 2.2490	16.7110
 2.2500	16.6810
 2.2510	16.6550
 2.2520	16.6260
 2.2530	16.5960
 2.2540	16.5640
 2.2550	16.5290
 2.2560	16.4950
 2.2570	16.4610
 2.2580	16.4250
 2.2590	16.3860
 2.2600	16.3510
 2.2610	16.3150
 2.2620	16.2780
 2.2630	16.2440
 2.2640	16.2110
 2.2650	16.1720
 2.2660	16.1310
 2.2670	16.0880
 2.2680	16.0410
 2.2690	15.9980
 2.2700	15.9560
 2.2710	15.9150
 2.2720	15.8760
 2.2730	15.8340
 2.2740	15.7880
 2.2750	15.7460
 2.2760	15.7040
 2.2770	15.6620
 2.2780	15.6250
 2.2790	15.5830
 2.2800	15.5370
 2.2810	15.4970
 2.2820	15.4580
 2.2830	15.4190
 2.2840	15.3840
 2.2850	15.3450
 2.2860	15.3030
 2.2870	15.2620
 2.2880	15.2180
 2.2890	15.1740
 2.2900	15.1280
 2.2910	15.0820
 2.2920	15.0330
 2.2930	14.9860
 2.2940	14.9430
 2.2950	14.8960
 2.2960	14.8470
 2.2970	14.8000
 2.2980	14.7500
 2.2990	14.7020
 2.3000	14.6620
 2.3010	14.6180
 2.3020	14.5710
 2.3030	14.5270
 2.3040	14.4780
 2.3050	14.4290
 2.3060	14.3810
 2.3070	14.3340
 2.3080	14.2850
 2.3090	14.2430
 2.3100	14.2150
 2.3110	14.1830
 2.3120	14.1550
 2.3130	14.1370
 2.3140	14.1100
 2.3150	14.0780
 2.3160	14.0550
 2.3170	14.0340
 2.3180	14.0140
 2.3190	14.0010
 2.3200	13.9820
 2.3210	13.9600
 2.3220	13.9410
 2.3230	13.9270
 2.3240	13.9020
 2.3250	13.8720
 2.3260	13.8400
 2.3270	13.7980
 2.3280	13.7610
 2.3290	13.7270
 2.3300	13.6900
 2.3310	13.6490
 2.3320	13.6100
 2.3330	13.5700
 2.3340	13.5330
 2.3350	13.5040
 2.3360	13.4660
 2.3370	13.4250
 2.3380	13.3860
 2.3390	13.3390
 2.3400	13.2970
 2.3410	13.2620
 2.3420	13.2220
 2.3430	13.1760
 2.3440	13.1350
 2.3450	13.0940
 2.3460	13.0510
 2.3470	13.0070
 2.3480	12.9650
 2.3490	12.9240
 2.3500	12.8810
 2.3510	12.8380
 2.3520	12.8020
 2.3530	12.7680
 2.3540	12.7340
 2.3550	12.7040
 2.3560	12.6800
 2.3570	12.6540
 2.3580	12.6220
 2.3590	12.5900
 2.3600	12.5540
 2.3610	12.5190
 2.3620	12.4840
 2.3630	12.4510
 2.3640	12.4220
 2.3650	12.3860
 2.3660	12.3460
 2.3670	12.3130
 2.3680	12.2760
 2.3690	12.2330
 2.3700	12.1990
 2.3710	12.1580
 2.3720	12.1130
 2.3730	12.0830
 2.3740	12.0490
 2.3750	12.0180
 2.3760	11.9950
 2.3770	11.9570
 2.3780	11.9120
 2.3790	11.8750
 2.3800	11.8380
 2.3810	11.7990
 2.3820	11.7650
 2.3830	11.7270
 2.3840	11.6890
 2.3850	11.6440
 2.3860	11.6030
 2.3870	11.5630
 2.3880	11.5180
 2.3890	11.4820
 2.3900	11.4480
 2.3910	11.4150
 2.3920	11.3830
 2.3930	11.3380
 2.3940	11.3040
 2.3950	11.2660
 2.3960	11.2210
 2.3970	11.1960
 2.3980	11.1660
 2.3990	11.1300
 2.4000	11.1030
 2.4010	11.0720
 2.4020	11.0420
 2.4030	11.0060
 2.4040	10.9670
 2.4050	10.9190
 2.4060	10.8700
 2.4070	10.8450
 2.4080	10.8170
 2.4090	10.7900
 2.4100	10.7680
 2.4110	10.7290
 2.4120	10.6880
 2.4130	10.6540
 2.4140	10.6170
 2.4150	10.5790
 2.4160	10.5520
 2.4170	10.5180
 2.4180	10.4840
 2.4190	10.4600
 2.4200	10.4260
 2.4210	10.3930
 2.4220	10.3660
 2.4230	10.3390
 2.4240	10.3040
 2.4250	10.2660
 2.4260	10.2270
 2.4270	10.1810
 2.4280	10.1410
 2.4290	10.1010
 2.4300	10.0630
 2.4310	10.0420
 2.4320	10.0080
 2.4330	 9.9750
 2.4340	 9.9430
 2.4350	 9.9070
 2.4360	 9.8900
 2.4370	 9.8650
 2.4380	 9.8360
 2.4390	 9.8030
 2.4400	 9.7490
 2.4410	 9.7190
 2.4420	 9.6920
 2.4430	 9.6590
 2.4440	 9.6490
 2.4450	 9.6160
 2.4460	 9.5810
 2.4470	 9.5650
 2.4480	 9.5320
 2.4490	 9.5010
 2.4500	 9.4840
 2.4510	 9.4530
 2.4520	 9.4070
 2.4530	 9.3780
 2.4540	 9.3560
 2.4550	 9.3290
 2.4560	 9.3130
 2.4570	 9.2940
 2.4580	 9.2600
 2.4590	 9.2440
 2.4600	 9.2400
 2.4610	 9.2150
 2.4620	 9.1870
 2.4630	 9.1370
 2.4640	 9.0740
 2.4650	 9.0450
 2.4660	 9.0190
 2.4670	 9.0160
 2.4680	 9.0180
 2.4690	 8.9970
 2.4700	 8.9830
 2.4710	 8.9580
 2.4720	 8.9310
 2.4730	 8.8940
 2.4740	 8.8710
 2.4750	 8.8590
 2.4760	 8.8500
 2.4770	 8.8670
 2.4780	 8.8570
 2.4790	 8.8330
 2.4800	 8.8080
 2.4810	 8.7500
 2.4820	 8.7250
 2.4830	 8.7450
 2.4840	 8.7390
 2.4850	 8.7560
 2.4860	 8.7860
 2.4870	 8.7590
 2.4880	 8.7330
 2.4890	 8.7100
 2.4900	 8.6850
 2.4910	 8.6630
 2.4920	 8.6560
 2.4930	 8.6690
 2.4940	 8.6590
 2.4950	 8.6600
 2.4960	 8.6670
 2.4970	 8.6750
 2.4980	 8.6690
 2.4990	 8.6090
 2.5000	 8.5840
