Name: Acer rubrum
Type: Vegetation
Class: Tree
Genus: Acer
Species: rubrum
Sample No.: ACRU-1-15
Owner: UCSB
Wavelength Range: VSWIR
Origin: USA; Massachusetts; Harvard Forest
Collection Date: 7/8/2013
Description: Samples were collected as part of NSF Macrosystem Biology proposal titled: Collaborative Research: Thermal controls on ecosystem metabolism and function: scaling from leaves to canopies to regions. Samples were collected and overnighted to JPL facilities for processing. The same leaves were processed in the Nicolet and then measured using the ASD.
Measurement: Bidirectional reflectance
First Column: X
Second Column: Y
X Units: Wavelength (micrometers)
Y Units: Reflectance (percentage)
First X Value: 0.35
Last X Value: 2.5
Number of X Values: 2151
Additional Information: vegetation.tree.acer.rubrum.vswir.acru-1-15.ucsb.asd.ancillary.txt

 0.3500	 7.3560
 0.3510	 7.6360
 0.3520	 7.5870
 0.3530	 7.7070
 0.3540	 8.2850
 0.3550	 8.0540
 0.3560	 7.6690
 0.3570	 7.4770
 0.3580	 7.5900
 0.3590	 7.6210
 0.3600	 7.6450
 0.3610	 7.6410
 0.3620	 7.3600
 0.3630	 7.4390
 0.3640	 7.5840
 0.3650	 7.4560
 0.3660	 7.4970
 0.3670	 7.5200
 0.3680	 7.4900
 0.3690	 7.4850
 0.3700	 7.4650
 0.3710	 7.4540
 0.3720	 7.4540
 0.3730	 7.4110
 0.3740	 7.3790
 0.3750	 7.4010
 0.3760	 7.4600
 0.3770	 7.3080
 0.3780	 7.2790
 0.3790	 7.3700
 0.3800	 7.2980
 0.3810	 7.3640
 0.3820	 7.3880
 0.3830	 7.2680
 0.3840	 7.2220
 0.3850	 7.3450
 0.3860	 7.4350
 0.3870	 7.2830
 0.3880	 7.3210
 0.3890	 7.2900
 0.3900	 7.1830
 0.3910	 7.2800
 0.3920	 7.2840
 0.3930	 7.2740
 0.3940	 7.3370
 0.3950	 7.4020
 0.3960	 7.4250
 0.3970	 7.3870
 0.3980	 7.3030
 0.3990	 7.3570
 0.4000	 7.4080
 0.4010	 7.3900
 0.4020	 7.3760
 0.4030	 7.3750
 0.4040	 7.3830
 0.4050	 7.3880
 0.4060	 7.3720
 0.4070	 7.3380
 0.4080	 7.3260
 0.4090	 7.3810
 0.4100	 7.3950
 0.4110	 7.3690
 0.4120	 7.3330
 0.4130	 7.3390
 0.4140	 7.3740
 0.4150	 7.3920
 0.4160	 7.3650
 0.4170	 7.3980
 0.4180	 7.4050
 0.4190	 7.3750
 0.4200	 7.3770
 0.4210	 7.3660
 0.4220	 7.3580
 0.4230	 7.3720
 0.4240	 7.4160
 0.4250	 7.4120
 0.4260	 7.3840
 0.4270	 7.3940
 0.4280	 7.4140
 0.4290	 7.4080
 0.4300	 7.3820
 0.4310	 7.3890
 0.4320	 7.4030
 0.4330	 7.4120
 0.4340	 7.4130
 0.4350	 7.4190
 0.4360	 7.4140
 0.4370	 7.4010
 0.4380	 7.3980
 0.4390	 7.3900
 0.4400	 7.3780
 0.4410	 7.3670
 0.4420	 7.3610
 0.4430	 7.3770
 0.4440	 7.3920
 0.4450	 7.3770
 0.4460	 7.3730
 0.4470	 7.3660
 0.4480	 7.3580
 0.4490	 7.3690
 0.4500	 7.3870
 0.4510	 7.3940
 0.4520	 7.3850
 0.4530	 7.3940
 0.4540	 7.4000
 0.4550	 7.3970
 0.4560	 7.3890
 0.4570	 7.3880
 0.4580	 7.3930
 0.4590	 7.3980
 0.4600	 7.3960
 0.4610	 7.3930
 0.4620	 7.3940
 0.4630	 7.3980
 0.4640	 7.3920
 0.4650	 7.3830
 0.4660	 7.3790
 0.4670	 7.3850
 0.4680	 7.3810
 0.4690	 7.3750
 0.4700	 7.3780
 0.4710	 7.3840
 0.4720	 7.3660
 0.4730	 7.3470
 0.4740	 7.3700
 0.4750	 7.3690
 0.4760	 7.3690
 0.4770	 7.3800
 0.4780	 7.3740
 0.4790	 7.3640
 0.4800	 7.3570
 0.4810	 7.3570
 0.4820	 7.3650
 0.4830	 7.3730
 0.4840	 7.3740
 0.4850	 7.3660
 0.4860	 7.3680
 0.4870	 7.3750
 0.4880	 7.3820
 0.4890	 7.3940
 0.4900	 7.4010
 0.4910	 7.4040
 0.4920	 7.4070
 0.4930	 7.4140
 0.4940	 7.4160
 0.4950	 7.4190
 0.4960	 7.4460
 0.4970	 7.4680
 0.4980	 7.4820
 0.4990	 7.4960
 0.5000	 7.5190
 0.5010	 7.5420
 0.5020	 7.5640
 0.5030	 7.5930
 0.5040	 7.6250
 0.5050	 7.6580
 0.5060	 7.6910
 0.5070	 7.7380
 0.5080	 7.7870
 0.5090	 7.8430
 0.5100	 7.9150
 0.5110	 8.0050
 0.5120	 8.0970
 0.5130	 8.1940
 0.5140	 8.3260
 0.5150	 8.4490
 0.5160	 8.5760
 0.5170	 8.7290
 0.5180	 8.8850
 0.5190	 9.0670
 0.5200	 9.2690
 0.5210	 9.4680
 0.5220	 9.6720
 0.5230	 9.8780
 0.5240	10.0860
 0.5250	10.2920
 0.5260	10.4920
 0.5270	10.6850
 0.5280	10.8690
 0.5290	11.0370
 0.5300	11.1940
 0.5310	11.3390
 0.5320	11.4730
 0.5330	11.5950
 0.5340	11.7010
 0.5350	11.7920
 0.5360	11.8770
 0.5370	11.9460
 0.5380	12.0000
 0.5390	12.0540
 0.5400	12.1060
 0.5410	12.1460
 0.5420	12.1750
 0.5430	12.2180
 0.5440	12.2710
 0.5450	12.3230
 0.5460	12.3640
 0.5470	12.3960
 0.5480	12.4230
 0.5490	12.4450
 0.5500	12.4590
 0.5510	12.4680
 0.5520	12.4720
 0.5530	12.4660
 0.5540	12.4440
 0.5550	12.4070
 0.5560	12.3510
 0.5570	12.2760
 0.5580	12.1960
 0.5590	12.1110
 0.5600	12.0150
 0.5610	11.9060
 0.5620	11.7860
 0.5630	11.6610
 0.5640	11.5310
 0.5650	11.3900
 0.5660	11.2450
 0.5670	11.0970
 0.5680	10.9330
 0.5690	10.7810
 0.5700	10.6380
 0.5710	10.4930
 0.5720	10.3480
 0.5730	10.2140
 0.5740	10.0960
 0.5750	 9.9970
 0.5760	 9.9000
 0.5770	 9.8050
 0.5780	 9.7120
 0.5790	 9.6250
 0.5800	 9.5450
 0.5810	 9.4690
 0.5820	 9.3980
 0.5830	 9.3300
 0.5840	 9.2690
 0.5850	 9.2130
 0.5860	 9.1570
 0.5870	 9.1140
 0.5880	 9.0800
 0.5890	 9.0490
 0.5900	 9.0240
 0.5910	 8.9970
 0.5920	 8.9680
 0.5930	 8.9400
 0.5940	 8.9190
 0.5950	 8.8990
 0.5960	 8.8800
 0.5970	 8.8640
 0.5980	 8.8400
 0.5990	 8.8100
 0.6000	 8.7820
 0.6010	 8.7610
 0.6020	 8.7320
 0.6030	 8.6950
 0.6040	 8.6590
 0.6050	 8.6320
 0.6060	 8.6020
 0.6070	 8.5610
 0.6080	 8.5240
 0.6090	 8.4810
 0.6100	 8.4280
 0.6110	 8.3710
 0.6120	 8.3330
 0.6130	 8.3000
 0.6140	 8.2650
 0.6150	 8.2270
 0.6160	 8.1870
 0.6170	 8.1500
 0.6180	 8.1240
 0.6190	 8.1000
 0.6200	 8.0730
 0.6210	 8.0440
 0.6220	 8.0170
 0.6230	 8.0010
 0.6240	 7.9890
 0.6250	 7.9770
 0.6260	 7.9720
 0.6270	 7.9630
 0.6280	 7.9530
 0.6290	 7.9510
 0.6300	 7.9420
 0.6310	 7.9310
 0.6320	 7.9230
 0.6330	 7.9170
 0.6340	 7.9040
 0.6350	 7.8850
 0.6360	 7.8640
 0.6370	 7.8380
 0.6380	 7.8160
 0.6390	 7.7920
 0.6400	 7.7560
 0.6410	 7.7190
 0.6420	 7.6870
 0.6430	 7.6620
 0.6440	 7.6280
 0.6450	 7.5950
 0.6460	 7.5660
 0.6470	 7.5420
 0.6480	 7.5200
 0.6490	 7.5010
 0.6500	 7.4860
 0.6510	 7.4760
 0.6520	 7.4660
 0.6530	 7.4540
 0.6540	 7.4430
 0.6550	 7.4350
 0.6560	 7.4310
 0.6570	 7.4250
 0.6580	 7.4090
 0.6590	 7.3940
 0.6600	 7.3800
 0.6610	 7.3700
 0.6620	 7.3700
 0.6630	 7.3600
 0.6640	 7.3510
 0.6650	 7.3500
 0.6660	 7.3490
 0.6670	 7.3500
 0.6680	 7.3530
 0.6690	 7.3580
 0.6700	 7.3610
 0.6710	 7.3700
 0.6720	 7.3850
 0.6730	 7.3960
 0.6740	 7.4120
 0.6750	 7.4290
 0.6760	 7.4450
 0.6770	 7.4710
 0.6780	 7.4930
 0.6790	 7.5140
 0.6800	 7.5430
 0.6810	 7.5710
 0.6820	 7.6010
 0.6830	 7.6340
 0.6840	 7.6640
 0.6850	 7.6980
 0.6860	 7.7390
 0.6870	 7.7870
 0.6880	 7.8460
 0.6890	 7.9150
 0.6900	 8.0010
 0.6910	 8.1150
 0.6920	 8.2730
 0.6930	 8.4740
 0.6940	 8.7210
 0.6950	 9.0400
 0.6960	 9.4330
 0.6970	 9.9050
 0.6980	10.4590
 0.6990	11.0890
 0.7000	11.7950
 0.7010	12.5730
 0.7020	13.4120
 0.7030	14.2920
 0.7040	15.2120
 0.7050	16.1650
 0.7060	17.1350
 0.7070	18.1230
 0.7080	19.1240
 0.7090	20.1330
 0.7100	21.1400
 0.7110	22.1530
 0.7120	23.1720
 0.7130	24.1860
 0.7140	25.1960
 0.7150	26.2040
 0.7160	27.2120
 0.7170	28.2040
 0.7180	29.1810
 0.7190	30.1470
 0.7200	31.1050
 0.7210	32.0440
 0.7220	32.9620
 0.7230	33.8640
 0.7240	34.7550
 0.7250	35.6310
 0.7260	36.4790
 0.7270	37.2890
 0.7280	38.0560
 0.7290	38.8000
 0.7300	39.5290
 0.7310	40.2400
 0.7320	40.8970
 0.7330	41.5250
 0.7340	42.1350
 0.7350	42.7170
 0.7360	43.2590
 0.7370	43.7650
 0.7380	44.2420
 0.7390	44.7070
 0.7400	45.1340
 0.7410	45.5390
 0.7420	45.9400
 0.7430	46.2780
 0.7440	46.5960
 0.7450	46.9080
 0.7460	47.1950
 0.7470	47.4360
 0.7480	47.6560
 0.7490	47.8760
 0.7500	48.0890
 0.7510	48.2680
 0.7520	48.4230
 0.7530	48.5750
 0.7540	48.7110
 0.7550	48.8320
 0.7560	48.9360
 0.7570	49.0260
 0.7580	49.1160
 0.7590	49.2000
 0.7600	49.2710
 0.7610	49.3300
 0.7620	49.3950
 0.7630	49.4530
 0.7640	49.4880
 0.7650	49.5220
 0.7660	49.5440
 0.7670	49.5700
 0.7680	49.6230
 0.7690	49.6490
 0.7700	49.6510
 0.7710	49.6490
 0.7720	49.6780
 0.7730	49.6980
 0.7740	49.7060
 0.7750	49.7120
 0.7760	49.7210
 0.7770	49.7370
 0.7780	49.7520
 0.7790	49.7580
 0.7800	49.7490
 0.7810	49.7520
 0.7820	49.7700
 0.7830	49.7780
 0.7840	49.7740
 0.7850	49.7730
 0.7860	49.7840
 0.7870	49.7960
 0.7880	49.7950
 0.7890	49.7900
 0.7900	49.7970
 0.7910	49.8120
 0.7920	49.8080
 0.7930	49.8000
 0.7940	49.8210
 0.7950	49.8160
 0.7960	49.8010
 0.7970	49.7900
 0.7980	49.7810
 0.7990	49.7880
 0.8000	49.8000
 0.8010	49.7970
 0.8020	49.7700
 0.8030	49.7540
 0.8040	49.7560
 0.8050	49.7660
 0.8060	49.7620
 0.8070	49.7470
 0.8080	49.7340
 0.8090	49.7430
 0.8100	49.7370
 0.8110	49.7240
 0.8120	49.7110
 0.8130	49.6970
 0.8140	49.7010
 0.8150	49.6990
 0.8160	49.6740
 0.8170	49.6520
 0.8180	49.6350
 0.8190	49.6230
 0.8200	49.6140
 0.8210	49.6180
 0.8220	49.6190
 0.8230	49.6090
 0.8240	49.5970
 0.8250	49.5820
 0.8260	49.5760
 0.8270	49.5780
 0.8280	49.5720
 0.8290	49.5530
 0.8300	49.5380
 0.8310	49.5370
 0.8320	49.5140
 0.8330	49.4990
 0.8340	49.4940
 0.8350	49.4930
 0.8360	49.4950
 0.8370	49.4880
 0.8380	49.4780
 0.8390	49.4880
 0.8400	49.4880
 0.8410	49.4800
 0.8420	49.4670
 0.8430	49.4540
 0.8440	49.4480
 0.8450	49.4400
 0.8460	49.4310
 0.8470	49.4620
 0.8480	49.4660
 0.8490	49.4490
 0.8500	49.4390
 0.8510	49.4360
 0.8520	49.4400
 0.8530	49.4500
 0.8540	49.4650
 0.8550	49.4600
 0.8560	49.4550
 0.8570	49.4550
 0.8580	49.4560
 0.8590	49.4460
 0.8600	49.4440
 0.8610	49.4530
 0.8620	49.4450
 0.8630	49.4580
 0.8640	49.4650
 0.8650	49.4480
 0.8660	49.4690
 0.8670	49.4660
 0.8680	49.4560
 0.8690	49.4680
 0.8700	49.4600
 0.8710	49.4450
 0.8720	49.4450
 0.8730	49.4720
 0.8740	49.4870
 0.8750	49.4910
 0.8760	49.4910
 0.8770	49.4930
 0.8780	49.4840
 0.8790	49.4860
 0.8800	49.5020
 0.8810	49.5050
 0.8820	49.4940
 0.8830	49.4830
 0.8840	49.4830
 0.8850	49.4970
 0.8860	49.5190
 0.8870	49.5320
 0.8880	49.5250
 0.8890	49.5180
 0.8900	49.5100
 0.8910	49.5060
 0.8920	49.5090
 0.8930	49.5180
 0.8940	49.5190
 0.8950	49.5120
 0.8960	49.5030
 0.8970	49.5280
 0.8980	49.5520
 0.8990	49.5580
 0.9000	49.5500
 0.9010	49.5040
 0.9020	49.4960
 0.9030	49.5430
 0.9040	49.5710
 0.9050	49.5780
 0.9060	49.5630
 0.9070	49.5420
 0.9080	49.5520
 0.9090	49.5640
 0.9100	49.5750
 0.9110	49.5810
 0.9120	49.5550
 0.9130	49.5430
 0.9140	49.5520
 0.9150	49.5700
 0.9160	49.5810
 0.9170	49.5740
 0.9180	49.5570
 0.9190	49.5470
 0.9200	49.5590
 0.9210	49.5620
 0.9220	49.5580
 0.9230	49.5640
 0.9240	49.5510
 0.9250	49.5360
 0.9260	49.5300
 0.9270	49.5280
 0.9280	49.5160
 0.9290	49.5050
 0.9300	49.4980
 0.9310	49.4880
 0.9320	49.4640
 0.9330	49.4510
 0.9340	49.4510
 0.9350	49.4340
 0.9360	49.4110
 0.9370	49.3850
 0.9380	49.3690
 0.9390	49.3910
 0.9400	49.3980
 0.9410	49.3720
 0.9420	49.3240
 0.9430	49.2890
 0.9440	49.2690
 0.9450	49.2630
 0.9460	49.2530
 0.9470	49.1930
 0.9480	49.1690
 0.9490	49.1540
 0.9500	49.1170
 0.9510	49.0960
 0.9520	49.0590
 0.9530	49.0150
 0.9540	48.9780
 0.9550	48.9320
 0.9560	48.8910
 0.9570	48.8590
 0.9580	48.8320
 0.9590	48.7960
 0.9600	48.7540
 0.9610	48.7180
 0.9620	48.6970
 0.9630	48.6600
 0.9640	48.6470
 0.9650	48.6390
 0.9660	48.6090
 0.9670	48.5970
 0.9680	48.5680
 0.9690	48.5390
 0.9700	48.5400
 0.9710	48.5400
 0.9720	48.5280
 0.9730	48.5110
 0.9740	48.5010
 0.9750	48.5060
 0.9760	48.5040
 0.9770	48.4930
 0.9780	48.4850
 0.9790	48.4810
 0.9800	48.4420
 0.9810	48.4170
 0.9820	48.4610
 0.9830	48.4580
 0.9840	48.4430
 0.9850	48.4580
 0.9860	48.5150
 0.9870	48.4920
 0.9880	48.4780
 0.9890	48.4760
 0.9900	48.4580
 0.9910	48.4630
 0.9920	48.4550
 0.9930	48.4470
 0.9940	48.4380
 0.9950	48.4300
 0.9960	48.4220
 0.9970	48.4140
 0.9980	48.4060
 0.9990	48.3980
 1.0000	48.3890
 1.0010	48.3810
 1.0020	48.3730
 1.0030	48.3650
 1.0040	48.3570
 1.0050	48.3490
 1.0060	48.3400
 1.0070	48.3320
 1.0080	48.3240
 1.0090	48.3160
 1.0100	48.3160
 1.0110	48.3160
 1.0120	48.3250
 1.0130	48.3350
 1.0140	48.3460
 1.0150	48.3640
 1.0160	48.3840
 1.0170	48.3900
 1.0180	48.3880
 1.0190	48.3930
 1.0200	48.3970
 1.0210	48.3950
 1.0220	48.4010
 1.0230	48.4060
 1.0240	48.4080
 1.0250	48.4100
 1.0260	48.4150
 1.0270	48.4220
 1.0280	48.4260
 1.0290	48.4290
 1.0300	48.4340
 1.0310	48.4400
 1.0320	48.4430
 1.0330	48.4450
 1.0340	48.4520
 1.0350	48.4630
 1.0360	48.4670
 1.0370	48.4580
 1.0380	48.4580
 1.0390	48.4540
 1.0400	48.4590
 1.0410	48.4710
 1.0420	48.4770
 1.0430	48.4840
 1.0440	48.4850
 1.0450	48.4770
 1.0460	48.4770
 1.0470	48.4770
 1.0480	48.4820
 1.0490	48.5030
 1.0500	48.5080
 1.0510	48.5010
 1.0520	48.4970
 1.0530	48.4960
 1.0540	48.4880
 1.0550	48.4860
 1.0560	48.4940
 1.0570	48.4950
 1.0580	48.4880
 1.0590	48.4900
 1.0600	48.5000
 1.0610	48.5030
 1.0620	48.5040
 1.0630	48.5090
 1.0640	48.5150
 1.0650	48.5180
 1.0660	48.5240
 1.0670	48.5290
 1.0680	48.5330
 1.0690	48.5330
 1.0700	48.5350
 1.0710	48.5420
 1.0720	48.5400
 1.0730	48.5340
 1.0740	48.5300
 1.0750	48.5200
 1.0760	48.5180
 1.0770	48.5220
 1.0780	48.5240
 1.0790	48.5330
 1.0800	48.5340
 1.0810	48.5260
 1.0820	48.5230
 1.0830	48.5200
 1.0840	48.5130
 1.0850	48.5010
 1.0860	48.4940
 1.0870	48.4870
 1.0880	48.4760
 1.0890	48.4700
 1.0900	48.4720
 1.0910	48.4680
 1.0920	48.4660
 1.0930	48.4590
 1.0940	48.4470
 1.0950	48.4400
 1.0960	48.4310
 1.0970	48.4230
 1.0980	48.4220
 1.0990	48.4150
 1.1000	48.4040
 1.1010	48.3950
 1.1020	48.3870
 1.1030	48.3800
 1.1040	48.3690
 1.1050	48.3560
 1.1060	48.3470
 1.1070	48.3380
 1.1080	48.3230
 1.1090	48.3080
 1.1100	48.2940
 1.1110	48.2740
 1.1120	48.2560
 1.1130	48.2440
 1.1140	48.2230
 1.1150	48.1910
 1.1160	48.1680
 1.1170	48.1440
 1.1180	48.1230
 1.1190	48.1060
 1.1200	48.0900
 1.1210	48.0690
 1.1220	48.0430
 1.1230	48.0150
 1.1240	47.9840
 1.1250	47.9580
 1.1260	47.9360
 1.1270	47.9040
 1.1280	47.8710
 1.1290	47.8330
 1.1300	47.7840
 1.1310	47.7400
 1.1320	47.6980
 1.1330	47.6500
 1.1340	47.6020
 1.1350	47.5440
 1.1360	47.4770
 1.1370	47.4120
 1.1380	47.3400
 1.1390	47.2640
 1.1400	47.1910
 1.1410	47.1120
 1.1420	47.0250
 1.1430	46.9390
 1.1440	46.8520
 1.1450	46.7590
 1.1460	46.6730
 1.1470	46.5900
 1.1480	46.5110
 1.1490	46.4320
 1.1500	46.3630
 1.1510	46.2970
 1.1520	46.2350
 1.1530	46.1800
 1.1540	46.1280
 1.1550	46.0760
 1.1560	46.0330
 1.1570	45.9970
 1.1580	45.9600
 1.1590	45.9270
 1.1600	45.8970
 1.1610	45.8710
 1.1620	45.8510
 1.1630	45.8360
 1.1640	45.8270
 1.1650	45.8190
 1.1660	45.8180
 1.1670	45.8110
 1.1680	45.8030
 1.1690	45.7960
 1.1700	45.7860
 1.1710	45.7800
 1.1720	45.7780
 1.1730	45.7740
 1.1740	45.7710
 1.1750	45.7690
 1.1760	45.7650
 1.1770	45.7580
 1.1780	45.7550
 1.1790	45.7490
 1.1800	45.7440
 1.1810	45.7420
 1.1820	45.7330
 1.1830	45.7290
 1.1840	45.7300
 1.1850	45.7190
 1.1860	45.7150
 1.1870	45.7140
 1.1880	45.7080
 1.1890	45.6990
 1.1900	45.6950
 1.1910	45.6900
 1.1920	45.6860
 1.1930	45.6880
 1.1940	45.6860
 1.1950	45.6830
 1.1960	45.6780
 1.1970	45.6730
 1.1980	45.6690
 1.1990	45.6690
 1.2000	45.6680
 1.2010	45.6690
 1.2020	45.6750
 1.2030	45.6780
 1.2040	45.6800
 1.2050	45.6820
 1.2060	45.6800
 1.2070	45.6820
 1.2080	45.6880
 1.2090	45.6930
 1.2100	45.7000
 1.2110	45.7080
 1.2120	45.7150
 1.2130	45.7270
 1.2140	45.7430
 1.2150	45.7550
 1.2160	45.7680
 1.2170	45.7770
 1.2180	45.7860
 1.2190	45.7930
 1.2200	45.8030
 1.2210	45.8170
 1.2220	45.8290
 1.2230	45.8430
 1.2240	45.8590
 1.2250	45.8680
 1.2260	45.8750
 1.2270	45.8850
 1.2280	45.8900
 1.2290	45.9000
 1.2300	45.9170
 1.2310	45.9280
 1.2320	45.9380
 1.2330	45.9460
 1.2340	45.9500
 1.2350	45.9440
 1.2360	45.9480
 1.2370	45.9540
 1.2380	45.9570
 1.2390	45.9660
 1.2400	45.9700
 1.2410	45.9720
 1.2420	45.9770
 1.2430	45.9820
 1.2440	45.9910
 1.2450	45.9990
 1.2460	46.0050
 1.2470	46.0110
 1.2480	46.0140
 1.2490	46.0150
 1.2500	46.0150
 1.2510	46.0140
 1.2520	46.0140
 1.2530	46.0140
 1.2540	46.0130
 1.2550	46.0120
 1.2560	46.0160
 1.2570	46.0160
 1.2580	46.0150
 1.2590	46.0170
 1.2600	46.0220
 1.2610	46.0190
 1.2620	46.0140
 1.2630	46.0140
 1.2640	46.0060
 1.2650	45.9950
 1.2660	45.9900
 1.2670	45.9820
 1.2680	45.9700
 1.2690	45.9600
 1.2700	45.9480
 1.2710	45.9340
 1.2720	45.9210
 1.2730	45.9100
 1.2740	45.9050
 1.2750	45.8940
 1.2760	45.8770
 1.2770	45.8660
 1.2780	45.8510
 1.2790	45.8390
 1.2800	45.8320
 1.2810	45.8150
 1.2820	45.7940
 1.2830	45.7740
 1.2840	45.7560
 1.2850	45.7390
 1.2860	45.7240
 1.2870	45.7090
 1.2880	45.6920
 1.2890	45.6730
 1.2900	45.6540
 1.2910	45.6390
 1.2920	45.6220
 1.2930	45.6060
 1.2940	45.5880
 1.2950	45.5640
 1.2960	45.5420
 1.2970	45.5160
 1.2980	45.4850
 1.2990	45.4550
 1.3000	45.4240
 1.3010	45.3920
 1.3020	45.3630
 1.3030	45.3380
 1.3040	45.3090
 1.3050	45.2790
 1.3060	45.2460
 1.3070	45.2060
 1.3080	45.1630
 1.3090	45.1210
 1.3100	45.0770
 1.3110	45.0280
 1.3120	44.9760
 1.3130	44.9260
 1.3140	44.8720
 1.3150	44.8170
 1.3160	44.7580
 1.3170	44.7010
 1.3180	44.6320
 1.3190	44.5610
 1.3200	44.4900
 1.3210	44.4170
 1.3220	44.3440
 1.3230	44.2690
 1.3240	44.1910
 1.3250	44.1120
 1.3260	44.0280
 1.3270	43.9410
 1.3280	43.8530
 1.3290	43.7620
 1.3300	43.6710
 1.3310	43.5780
 1.3320	43.4820
 1.3330	43.3850
 1.3340	43.2850
 1.3350	43.1860
 1.3360	43.0890
 1.3370	42.9880
 1.3380	42.8880
 1.3390	42.7920
 1.3400	42.6930
 1.3410	42.5980
 1.3420	42.5040
 1.3430	42.4060
 1.3440	42.3040
 1.3450	42.2040
 1.3460	42.1030
 1.3470	42.0050
 1.3480	41.9080
 1.3490	41.8140
 1.3500	41.7210
 1.3510	41.6250
 1.3520	41.5290
 1.3530	41.4320
 1.3540	41.3340
 1.3550	41.2370
 1.3560	41.1390
 1.3570	41.0400
 1.3580	40.9410
 1.3590	40.8430
 1.3600	40.7380
 1.3610	40.6300
 1.3620	40.5200
 1.3630	40.4020
 1.3640	40.2820
 1.3650	40.1610
 1.3660	40.0340
 1.3670	39.9030
 1.3680	39.7640
 1.3690	39.6130
 1.3700	39.4500
 1.3710	39.2790
 1.3720	39.0960
 1.3730	38.9030
 1.3740	38.6960
 1.3750	38.4690
 1.3760	38.2260
 1.3770	37.9650
 1.3780	37.6810
 1.3790	37.3800
 1.3800	37.0600
 1.3810	36.7160
 1.3820	36.3590
 1.3830	35.9890
 1.3840	35.5960
 1.3850	35.1870
 1.3860	34.7590
 1.3870	34.3070
 1.3880	33.8480
 1.3890	33.3730
 1.3900	32.8830
 1.3910	32.3860
 1.3920	31.8800
 1.3930	31.3630
 1.3940	30.8440
 1.3950	30.3180
 1.3960	29.7920
 1.3970	29.2700
 1.3980	28.7540
 1.3990	28.2530
 1.4000	27.7610
 1.4010	27.2780
 1.4020	26.8100
 1.4030	26.3530
 1.4040	25.9140
 1.4050	25.4970
 1.4060	25.0970
 1.4070	24.7210
 1.4080	24.3650
 1.4090	24.0270
 1.4100	23.7130
 1.4110	23.4160
 1.4120	23.1410
 1.4130	22.8870
 1.4140	22.6530
 1.4150	22.4410
 1.4160	22.2460
 1.4170	22.0690
 1.4180	21.9110
 1.4190	21.7660
 1.4200	21.6380
 1.4210	21.5220
 1.4220	21.4170
 1.4230	21.3240
 1.4240	21.2440
 1.4250	21.1730
 1.4260	21.1140
 1.4270	21.0610
 1.4280	21.0160
 1.4290	20.9780
 1.4300	20.9480
 1.4310	20.9230
 1.4320	20.9070
 1.4330	20.8920
 1.4340	20.8810
 1.4350	20.8750
 1.4360	20.8750
 1.4370	20.8750
 1.4380	20.8790
 1.4390	20.8870
 1.4400	20.8940
 1.4410	20.9060
 1.4420	20.9230
 1.4430	20.9420
 1.4440	20.9650
 1.4450	20.9870
 1.4460	21.0090
 1.4470	21.0360
 1.4480	21.0600
 1.4490	21.0900
 1.4500	21.1230
 1.4510	21.1530
 1.4520	21.1860
 1.4530	21.2180
 1.4540	21.2510
 1.4550	21.2870
 1.4560	21.3270
 1.4570	21.3700
 1.4580	21.4140
 1.4590	21.4620
 1.4600	21.5130
 1.4610	21.5670
 1.4620	21.6280
 1.4630	21.6950
 1.4640	21.7660
 1.4650	21.8420
 1.4660	21.9220
 1.4670	22.0060
 1.4680	22.0980
 1.4690	22.1960
 1.4700	22.3010
 1.4710	22.4120
 1.4720	22.5240
 1.4730	22.6370
 1.4740	22.7550
 1.4750	22.8750
 1.4760	23.0000
 1.4770	23.1290
 1.4780	23.2560
 1.4790	23.3860
 1.4800	23.5150
 1.4810	23.6420
 1.4820	23.7720
 1.4830	23.9050
 1.4840	24.0400
 1.4850	24.1740
 1.4860	24.3090
 1.4870	24.4430
 1.4880	24.5750
 1.4890	24.7080
 1.4900	24.8420
 1.4910	24.9740
 1.4920	25.1080
 1.4930	25.2450
 1.4940	25.3790
 1.4950	25.5120
 1.4960	25.6420
 1.4970	25.7670
 1.4980	25.8950
 1.4990	26.0220
 1.5000	26.1500
 1.5010	26.2800
 1.5020	26.4080
 1.5030	26.5370
 1.5040	26.6630
 1.5050	26.7850
 1.5060	26.9080
 1.5070	27.0290
 1.5080	27.1490
 1.5090	27.2670
 1.5100	27.3890
 1.5110	27.5060
 1.5120	27.6210
 1.5130	27.7390
 1.5140	27.8530
 1.5150	27.9650
 1.5160	28.0780
 1.5170	28.1870
 1.5180	28.2950
 1.5190	28.4030
 1.5200	28.5120
 1.5210	28.6190
 1.5220	28.7270
 1.5230	28.8360
 1.5240	28.9400
 1.5250	29.0440
 1.5260	29.1460
 1.5270	29.2450
 1.5280	29.3450
 1.5290	29.4410
 1.5300	29.5350
 1.5310	29.6310
 1.5320	29.7220
 1.5330	29.8120
 1.5340	29.9050
 1.5350	29.9930
 1.5360	30.0850
 1.5370	30.1740
 1.5380	30.2610
 1.5390	30.3490
 1.5400	30.4330
 1.5410	30.5170
 1.5420	30.5980
 1.5430	30.6800
 1.5440	30.7640
 1.5450	30.8460
 1.5460	30.9310
 1.5470	31.0150
 1.5480	31.0950
 1.5490	31.1720
 1.5500	31.2490
 1.5510	31.3240
 1.5520	31.4000
 1.5530	31.4740
 1.5540	31.5460
 1.5550	31.6130
 1.5560	31.6740
 1.5570	31.7370
 1.5580	31.8000
 1.5590	31.8630
 1.5600	31.9300
 1.5610	31.9950
 1.5620	32.0580
 1.5630	32.1180
 1.5640	32.1740
 1.5650	32.2310
 1.5660	32.2870
 1.5670	32.3430
 1.5680	32.4010
 1.5690	32.4530
 1.5700	32.5070
 1.5710	32.5660
 1.5720	32.6230
 1.5730	32.6810
 1.5740	32.7380
 1.5750	32.7900
 1.5760	32.8440
 1.5770	32.9020
 1.5780	32.9550
 1.5790	33.0040
 1.5800	33.0510
 1.5810	33.0980
 1.5820	33.1450
 1.5830	33.1940
 1.5840	33.2450
 1.5850	33.2880
 1.5860	33.3300
 1.5870	33.3760
 1.5880	33.4190
 1.5890	33.4650
 1.5900	33.5130
 1.5910	33.5590
 1.5920	33.6050
 1.5930	33.6470
 1.5940	33.6870
 1.5950	33.7270
 1.5960	33.7670
 1.5970	33.8070
 1.5980	33.8510
 1.5990	33.8940
 1.6000	33.9310
 1.6010	33.9680
 1.6020	34.0050
 1.6030	34.0400
 1.6040	34.0760
 1.6050	34.1150
 1.6060	34.1490
 1.6070	34.1800
 1.6080	34.2170
 1.6090	34.2490
 1.6100	34.2830
 1.6110	34.3190
 1.6120	34.3500
 1.6130	34.3810
 1.6140	34.4080
 1.6150	34.4320
 1.6160	34.4590
 1.6170	34.4870
 1.6180	34.5130
 1.6190	34.5410
 1.6200	34.5670
 1.6210	34.5890
 1.6220	34.6130
 1.6230	34.6380
 1.6240	34.6580
 1.6250	34.6780
 1.6260	34.6960
 1.6270	34.7130
 1.6280	34.7320
 1.6290	34.7480
 1.6300	34.7630
 1.6310	34.7760
 1.6320	34.7860
 1.6330	34.7950
 1.6340	34.8050
 1.6350	34.8080
 1.6360	34.8050
 1.6370	34.8050
 1.6380	34.8040
 1.6390	34.7990
 1.6400	34.7960
 1.6410	34.7860
 1.6420	34.7700
 1.6430	34.7500
 1.6440	34.7240
 1.6450	34.6980
 1.6460	34.6690
 1.6470	34.6440
 1.6480	34.6210
 1.6490	34.5950
 1.6500	34.5680
 1.6510	34.5420
 1.6520	34.5180
 1.6530	34.4980
 1.6540	34.4820
 1.6550	34.4740
 1.6560	34.4660
 1.6570	34.4620
 1.6580	34.4670
 1.6590	34.4700
 1.6600	34.4780
 1.6610	34.4960
 1.6620	34.5110
 1.6630	34.5290
 1.6640	34.5510
 1.6650	34.5720
 1.6660	34.5970
 1.6670	34.6190
 1.6680	34.6390
 1.6690	34.6560
 1.6700	34.6680
 1.6710	34.6810
 1.6720	34.6930
 1.6730	34.7020
 1.6740	34.7130
 1.6750	34.7180
 1.6760	34.7220
 1.6770	34.7250
 1.6780	34.7200
 1.6790	34.7120
 1.6800	34.7020
 1.6810	34.6850
 1.6820	34.6690
 1.6830	34.6490
 1.6840	34.6270
 1.6850	34.6050
 1.6860	34.5760
 1.6870	34.5480
 1.6880	34.5170
 1.6890	34.4820
 1.6900	34.4500
 1.6910	34.4180
 1.6920	34.3860
 1.6930	34.3540
 1.6940	34.3220
 1.6950	34.2910
 1.6960	34.2590
 1.6970	34.2260
 1.6980	34.1950
 1.6990	34.1660
 1.7000	34.1340
 1.7010	34.1030
 1.7020	34.0700
 1.7030	34.0340
 1.7040	33.9970
 1.7050	33.9600
 1.7060	33.9210
 1.7070	33.8800
 1.7080	33.8400
 1.7090	33.8000
 1.7100	33.7600
 1.7110	33.7200
 1.7120	33.6790
 1.7130	33.6370
 1.7140	33.5950
 1.7150	33.5540
 1.7160	33.5140
 1.7170	33.4740
 1.7180	33.4350
 1.7190	33.3970
 1.7200	33.3550
 1.7210	33.3150
 1.7220	33.2740
 1.7230	33.2290
 1.7240	33.1910
 1.7250	33.1560
 1.7260	33.1220
 1.7270	33.0930
 1.7280	33.0620
 1.7290	33.0310
 1.7300	33.0070
 1.7310	32.9800
 1.7320	32.9540
 1.7330	32.9250
 1.7340	32.8910
 1.7350	32.8600
 1.7360	32.8300
 1.7370	32.7990
 1.7380	32.7730
 1.7390	32.7380
 1.7400	32.6960
 1.7410	32.6570
 1.7420	32.6140
 1.7430	32.5710
 1.7440	32.5330
 1.7450	32.4890
 1.7460	32.4400
 1.7470	32.3920
 1.7480	32.3440
 1.7490	32.2930
 1.7500	32.2400
 1.7510	32.1860
 1.7520	32.1280
 1.7530	32.0730
 1.7540	32.0190
 1.7550	31.9650
 1.7560	31.9110
 1.7570	31.8560
 1.7580	31.8000
 1.7590	31.7450
 1.7600	31.6930
 1.7610	31.6410
 1.7620	31.5920
 1.7630	31.5460
 1.7640	31.4990
 1.7650	31.4530
 1.7660	31.4090
 1.7670	31.3680
 1.7680	31.3250
 1.7690	31.2820
 1.7700	31.2430
 1.7710	31.2040
 1.7720	31.1660
 1.7730	31.1320
 1.7740	31.0980
 1.7750	31.0640
 1.7760	31.0310
 1.7770	31.0010
 1.7780	30.9680
 1.7790	30.9300
 1.7800	30.8980
 1.7810	30.8670
 1.7820	30.8380
 1.7830	30.8140
 1.7840	30.7860
 1.7850	30.7580
 1.7860	30.7320
 1.7870	30.7040
 1.7880	30.6830
 1.7890	30.6660
 1.7900	30.6560
 1.7910	30.6440
 1.7920	30.6350
 1.7930	30.6210
 1.7940	30.5990
 1.7950	30.5860
 1.7960	30.5770
 1.7970	30.5670
 1.7980	30.5630
 1.7990	30.5560
 1.8000	30.5420
 1.8010	30.5340
 1.8020	30.5310
 1.8030	30.5260
 1.8040	30.5220
 1.8050	30.5190
 1.8060	30.5150
 1.8070	30.5120
 1.8080	30.5090
 1.8090	30.5060
 1.8100	30.5030
 1.8110	30.4980
 1.8120	30.5000
 1.8130	30.5030
 1.8140	30.5000
 1.8150	30.5010
 1.8160	30.5010
 1.8170	30.4950
 1.8180	30.4930
 1.8190	30.4790
 1.8200	30.4680
 1.8210	30.4530
 1.8220	30.4420
 1.8230	30.4360
 1.8240	30.4270
 1.8250	30.4180
 1.8260	30.4050
 1.8270	30.3710
 1.8280	30.3380
 1.8290	30.3050
 1.8300	30.2720
 1.8310	30.2390
 1.8320	30.2050
 1.8330	30.1720
 1.8340	30.1390
 1.8350	30.1390
 1.8360	30.0970
 1.8370	30.0510
 1.8380	30.0000
 1.8390	29.9470
 1.8400	29.8960
 1.8410	29.8320
 1.8420	29.7620
 1.8430	29.6900
 1.8440	29.6050
 1.8450	29.5070
 1.8460	29.4110
 1.8470	29.3090
 1.8480	29.1990
 1.8490	29.0860
 1.8500	28.9630
 1.8510	28.8340
 1.8520	28.6960
 1.8530	28.5450
 1.8540	28.3840
 1.8550	28.2150
 1.8560	28.0260
 1.8570	27.8300
 1.8580	27.6140
 1.8590	27.3800
 1.8600	27.1250
 1.8610	26.8590
 1.8620	26.5690
 1.8630	26.2680
 1.8640	25.9620
 1.8650	25.6330
 1.8660	25.2830
 1.8670	24.9110
 1.8680	24.5090
 1.8690	24.0860
 1.8700	23.6460
 1.8710	23.1890
 1.8720	22.7140
 1.8730	22.2270
 1.8740	21.7240
 1.8750	21.2030
 1.8760	20.6720
 1.8770	20.1300
 1.8780	19.5740
 1.8790	19.0160
 1.8800	18.4600
 1.8810	17.9030
 1.8820	17.3360
 1.8830	16.7720
 1.8840	16.2030
 1.8850	15.6270
 1.8860	15.0690
 1.8870	14.5230
 1.8880	13.9830
 1.8890	13.4670
 1.8900	12.9730
 1.8910	12.4970
 1.8920	12.0370
 1.8930	11.6070
 1.8940	11.2000
 1.8950	10.8100
 1.8960	10.4500
 1.8970	10.1230
 1.8980	 9.8200
 1.8990	 9.5410
 1.9000	 9.2840
 1.9010	 9.0560
 1.9020	 8.8430
 1.9030	 8.6520
 1.9040	 8.4790
 1.9050	 8.3260
 1.9060	 8.1840
 1.9070	 8.0610
 1.9080	 7.9590
 1.9090	 7.8680
 1.9100	 7.7890
 1.9110	 7.7190
 1.9120	 7.6610
 1.9130	 7.6090
 1.9140	 7.5680
 1.9150	 7.5350
 1.9160	 7.5080
 1.9170	 7.4810
 1.9180	 7.4580
 1.9190	 7.4430
 1.9200	 7.4310
 1.9210	 7.4260
 1.9220	 7.4200
 1.9230	 7.4150
 1.9240	 7.4150
 1.9250	 7.4150
 1.9260	 7.4220
 1.9270	 7.4410
 1.9280	 7.4610
 1.9290	 7.4810
 1.9300	 7.5030
 1.9310	 7.5180
 1.9320	 7.5350
 1.9330	 7.5580
 1.9340	 7.5820
 1.9350	 7.6100
 1.9360	 7.6430
 1.9370	 7.6750
 1.9380	 7.7070
 1.9390	 7.7470
 1.9400	 7.7850
 1.9410	 7.8260
 1.9420	 7.8710
 1.9430	 7.9170
 1.9440	 7.9640
 1.9450	 8.0130
 1.9460	 8.0620
 1.9470	 8.1130
 1.9480	 8.1620
 1.9490	 8.2090
 1.9500	 8.2640
 1.9510	 8.3200
 1.9520	 8.3740
 1.9530	 8.4350
 1.9540	 8.4920
 1.9550	 8.5500
 1.9560	 8.6090
 1.9570	 8.6700
 1.9580	 8.7330
 1.9590	 8.7960
 1.9600	 8.8600
 1.9610	 8.9270
 1.9620	 8.9940
 1.9630	 9.0650
 1.9640	 9.1420
 1.9650	 9.2190
 1.9660	 9.2900
 1.9670	 9.3620
 1.9680	 9.4350
 1.9690	 9.5020
 1.9700	 9.5790
 1.9710	 9.6620
 1.9720	 9.7450
 1.9730	 9.8340
 1.9740	 9.9140
 1.9750	 9.9980
 1.9760	10.0840
 1.9770	10.1620
 1.9780	10.2510
 1.9790	10.3340
 1.9800	10.4120
 1.9810	10.4980
 1.9820	10.5880
 1.9830	10.6770
 1.9840	10.7720
 1.9850	10.8640
 1.9860	10.9540
 1.9870	11.0440
 1.9880	11.1350
 1.9890	11.2260
 1.9900	11.3180
 1.9910	11.4100
 1.9920	11.5040
 1.9930	11.6000
 1.9940	11.6950
 1.9950	11.7920
 1.9960	11.8850
 1.9970	11.9760
 1.9980	12.0690
 1.9990	12.1600
 2.0000	12.2530
 2.0010	12.3500
 2.0020	12.4480
 2.0030	12.5470
 2.0040	12.6410
 2.0050	12.7350
 2.0060	12.8290
 2.0070	12.9180
 2.0080	13.0060
 2.0090	13.0920
 2.0100	13.1740
 2.0110	13.2570
 2.0120	13.3370
 2.0130	13.4230
 2.0140	13.5080
 2.0150	13.5960
 2.0160	13.6840
 2.0170	13.7670
 2.0180	13.8490
 2.0190	13.9280
 2.0200	14.0050
 2.0210	14.0820
 2.0220	14.1580
 2.0230	14.2290
 2.0240	14.3010
 2.0250	14.3710
 2.0260	14.4410
 2.0270	14.5120
 2.0280	14.5810
 2.0290	14.6440
 2.0300	14.7040
 2.0310	14.7650
 2.0320	14.8220
 2.0330	14.8790
 2.0340	14.9370
 2.0350	14.9920
 2.0360	15.0410
 2.0370	15.0930
 2.0380	15.1480
 2.0390	15.1980
 2.0400	15.2450
 2.0410	15.2940
 2.0420	15.3480
 2.0430	15.3910
 2.0440	15.4350
 2.0450	15.4810
 2.0460	15.5220
 2.0470	15.5570
 2.0480	15.5930
 2.0490	15.6260
 2.0500	15.6630
 2.0510	15.6960
 2.0520	15.7380
 2.0530	15.7930
 2.0540	15.8410
 2.0550	15.8910
 2.0560	15.9420
 2.0570	15.9840
 2.0580	16.0230
 2.0590	16.0650
 2.0600	16.1040
 2.0610	16.1490
 2.0620	16.1990
 2.0630	16.2460
 2.0640	16.2970
 2.0650	16.3410
 2.0660	16.3760
 2.0670	16.4180
 2.0680	16.4620
 2.0690	16.5030
 2.0700	16.5440
 2.0710	16.5860
 2.0720	16.6270
 2.0730	16.6650
 2.0740	16.7040
 2.0750	16.7470
 2.0760	16.7830
 2.0770	16.8130
 2.0780	16.8450
 2.0790	16.8720
 2.0800	16.9040
 2.0810	16.9370
 2.0820	16.9730
 2.0830	17.0140
 2.0840	17.0520
 2.0850	17.0930
 2.0860	17.1310
 2.0870	17.1670
 2.0880	17.2020
 2.0890	17.2370
 2.0900	17.2700
 2.0910	17.3050
 2.0920	17.3420
 2.0930	17.3760
 2.0940	17.4100
 2.0950	17.4410
 2.0960	17.4700
 2.0970	17.4960
 2.0980	17.5170
 2.0990	17.5390
 2.1000	17.5550
 2.1010	17.5770
 2.1020	17.6080
 2.1030	17.6330
 2.1040	17.6550
 2.1050	17.6880
 2.1060	17.7070
 2.1070	17.7180
 2.1080	17.7330
 2.1090	17.7450
 2.1100	17.7580
 2.1110	17.7740
 2.1120	17.7870
 2.1130	17.7990
 2.1140	17.8110
 2.1150	17.8190
 2.1160	17.8300
 2.1170	17.8450
 2.1180	17.8550
 2.1190	17.8620
 2.1200	17.8710
 2.1210	17.8760
 2.1220	17.8790
 2.1230	17.8880
 2.1240	17.9040
 2.1250	17.9140
 2.1260	17.9250
 2.1270	17.9350
 2.1280	17.9440
 2.1290	17.9540
 2.1300	17.9650
 2.1310	17.9750
 2.1320	17.9840
 2.1330	17.9960
 2.1340	18.0100
 2.1350	18.0270
 2.1360	18.0480
 2.1370	18.0690
 2.1380	18.0910
 2.1390	18.1140
 2.1400	18.1370
 2.1410	18.1620
 2.1420	18.1850
 2.1430	18.2060
 2.1440	18.2290
 2.1450	18.2520
 2.1460	18.2760
 2.1470	18.3010
 2.1480	18.3270
 2.1490	18.3550
 2.1500	18.3820
 2.1510	18.4120
 2.1520	18.4400
 2.1530	18.4700
 2.1540	18.4940
 2.1550	18.5130
 2.1560	18.5330
 2.1570	18.5520
 2.1580	18.5660
 2.1590	18.5800
 2.1600	18.5900
 2.1610	18.5940
 2.1620	18.5950
 2.1630	18.6060
 2.1640	18.6240
 2.1650	18.6370
 2.1660	18.6530
 2.1670	18.6710
 2.1680	18.6890
 2.1690	18.7060
 2.1700	18.7260
 2.1710	18.7450
 2.1720	18.7610
 2.1730	18.7770
 2.1740	18.7960
 2.1750	18.8140
 2.1760	18.8280
 2.1770	18.8450
 2.1780	18.8700
 2.1790	18.8880
 2.1800	18.8980
 2.1810	18.9140
 2.1820	18.9260
 2.1830	18.9400
 2.1840	18.9610
 2.1850	18.9900
 2.1860	19.0130
 2.1870	19.0380
 2.1880	19.0590
 2.1890	19.0770
 2.1900	19.0960
 2.1910	19.1080
 2.1920	19.1310
 2.1930	19.1600
 2.1940	19.1850
 2.1950	19.2180
 2.1960	19.2420
 2.1970	19.2570
 2.1980	19.2740
 2.1990	19.2830
 2.2000	19.3030
 2.2010	19.3320
 2.2020	19.3540
 2.2030	19.3810
 2.2040	19.4020
 2.2050	19.4200
 2.2060	19.4280
 2.2070	19.4380
 2.2080	19.4440
 2.2090	19.4600
 2.2100	19.4750
 2.2110	19.4950
 2.2120	19.5280
 2.2130	19.5530
 2.2140	19.5800
 2.2150	19.6020
 2.2160	19.6210
 2.2170	19.6410
 2.2180	19.6630
 2.2190	19.6760
 2.2200	19.6840
 2.2210	19.6930
 2.2220	19.6940
 2.2230	19.6960
 2.2240	19.7070
 2.2250	19.7060
 2.2260	19.6920
 2.2270	19.6830
 2.2280	19.6730
 2.2290	19.6590
 2.2300	19.6500
 2.2310	19.6310
 2.2320	19.6090
 2.2330	19.5760
 2.2340	19.5460
 2.2350	19.5100
 2.2360	19.4810
 2.2370	19.4600
 2.2380	19.4210
 2.2390	19.3750
 2.2400	19.3290
 2.2410	19.2690
 2.2420	19.2180
 2.2430	19.1740
 2.2440	19.1250
 2.2450	19.0710
 2.2460	19.0180
 2.2470	18.9660
 2.2480	18.9140
 2.2490	18.8620
 2.2500	18.8080
 2.2510	18.7520
 2.2520	18.7030
 2.2530	18.6580
 2.2540	18.6130
 2.2550	18.5750
 2.2560	18.5320
 2.2570	18.4830
 2.2580	18.4380
 2.2590	18.3970
 2.2600	18.3560
 2.2610	18.3180
 2.2620	18.2800
 2.2630	18.2430
 2.2640	18.1990
 2.2650	18.1520
 2.2660	18.1150
 2.2670	18.0740
 2.2680	18.0330
 2.2690	17.9950
 2.2700	17.9610
 2.2710	17.9220
 2.2720	17.8830
 2.2730	17.8470
 2.2740	17.8100
 2.2750	17.7760
 2.2760	17.7510
 2.2770	17.7140
 2.2780	17.6670
 2.2790	17.6290
 2.2800	17.5930
 2.2810	17.5540
 2.2820	17.5210
 2.2830	17.4840
 2.2840	17.4380
 2.2850	17.3930
 2.2860	17.3500
 2.2870	17.3050
 2.2880	17.2560
 2.2890	17.2120
 2.2900	17.1790
 2.2910	17.1370
 2.2920	17.1010
 2.2930	17.0530
 2.2940	16.9830
 2.2950	16.9250
 2.2960	16.8690
 2.2970	16.8120
 2.2980	16.7600
 2.2990	16.7080
 2.3000	16.6540
 2.3010	16.5920
 2.3020	16.5340
 2.3030	16.4820
 2.3040	16.4240
 2.3050	16.3720
 2.3060	16.3240
 2.3070	16.2810
 2.3080	16.2490
 2.3090	16.2040
 2.3100	16.1570
 2.3110	16.1150
 2.3120	16.0640
 2.3130	16.0010
 2.3140	15.9560
 2.3150	15.9080
 2.3160	15.8790
 2.3170	15.8740
 2.3180	15.8460
 2.3190	15.8170
 2.3200	15.7890
 2.3210	15.7450
 2.3220	15.7200
 2.3230	15.7220
 2.3240	15.6920
 2.3250	15.6500
 2.3260	15.6110
 2.3270	15.5510
 2.3280	15.5110
 2.3290	15.4920
 2.3300	15.4590
 2.3310	15.4230
 2.3320	15.3840
 2.3330	15.3340
 2.3340	15.2850
 2.3350	15.2300
 2.3360	15.1870
 2.3370	15.1520
 2.3380	15.1100
 2.3390	15.0750
 2.3400	15.0320
 2.3410	14.9640
 2.3420	14.9220
 2.3430	14.9010
 2.3440	14.8690
 2.3450	14.8530
 2.3460	14.8220
 2.3470	14.7750
 2.3480	14.7330
 2.3490	14.6840
 2.3500	14.6440
 2.3510	14.6010
 2.3520	14.5670
 2.3530	14.5410
 2.3540	14.5260
 2.3550	14.5050
 2.3560	14.4740
 2.3570	14.4400
 2.3580	14.4160
 2.3590	14.3910
 2.3600	14.3580
 2.3610	14.3110
 2.3620	14.2630
 2.3630	14.2230
 2.3640	14.2110
 2.3650	14.2150
 2.3660	14.1930
 2.3670	14.1600
 2.3680	14.1180
 2.3690	14.0630
 2.3700	14.0190
 2.3710	13.9840
 2.3720	13.9410
 2.3730	13.8740
 2.3740	13.8100
 2.3750	13.7540
 2.3760	13.6960
 2.3770	13.6620
 2.3780	13.6290
 2.3790	13.5780
 2.3800	13.5280
 2.3810	13.4860
 2.3820	13.4320
 2.3830	13.3670
 2.3840	13.3050
 2.3850	13.2260
 2.3860	13.1450
 2.3870	13.0740
 2.3880	12.9920
 2.3890	12.9510
 2.3900	12.9170
 2.3910	12.8590
 2.3920	12.8290
 2.3930	12.7700
 2.3940	12.7060
 2.3950	12.6830
 2.3960	12.6310
 2.3970	12.5920
 2.3980	12.5760
 2.3990	12.5210
 2.4000	12.4660
 2.4010	12.4040
 2.4020	12.3110
 2.4030	12.2310
 2.4040	12.1780
 2.4050	12.1330
 2.4060	12.0780
 2.4070	12.0390
 2.4080	12.0080
 2.4090	11.9460
 2.4100	11.8730
 2.4110	11.8240
 2.4120	11.7710
 2.4130	11.7140
 2.4140	11.6720
 2.4150	11.5990
 2.4160	11.5250
 2.4170	11.4770
 2.4180	11.4240
 2.4190	11.3770
 2.4200	11.3290
 2.4210	11.2760
 2.4220	11.2210
 2.4230	11.1750
 2.4240	11.1190
 2.4250	11.0400
 2.4260	10.9730
 2.4270	10.9080
 2.4280	10.8320
 2.4290	10.7780
 2.4300	10.7360
 2.4310	10.6840
 2.4320	10.6250
 2.4330	10.5610
 2.4340	10.5040
 2.4350	10.4460
 2.4360	10.3970
 2.4370	10.3560
 2.4380	10.2910
 2.4390	10.2400
 2.4400	10.1910
 2.4410	10.1210
 2.4420	10.0710
 2.4430	 9.9900
 2.4440	 9.9010
 2.4450	 9.8250
 2.4460	 9.7460
 2.4470	 9.6890
 2.4480	 9.6400
 2.4490	 9.6050
 2.4500	 9.5870
 2.4510	 9.5550
 2.4520	 9.5020
 2.4530	 9.4500
 2.4540	 9.3790
 2.4550	 9.3190
 2.4560	 9.3060
 2.4570	 9.2910
 2.4580	 9.2570
 2.4590	 9.2070
 2.4600	 9.1450
 2.4610	 9.0990
 2.4620	 9.0500
 2.4630	 8.9850
 2.4640	 8.9540
 2.4650	 8.9110
 2.4660	 8.8340
 2.4670	 8.7990
 2.4680	 8.7500
 2.4690	 8.6880
 2.4700	 8.6770
 2.4710	 8.7010
 2.4720	 8.6760
 2.4730	 8.6440
 2.4740	 8.6110
 2.4750	 8.5540
 2.4760	 8.5050
 2.4770	 8.4730
 2.4780	 8.4350
 2.4790	 8.3590
 2.4800	 8.3120
 2.4810	 8.3080
 2.4820	 8.2730
 2.4830	 8.2440
 2.4840	 8.2570
 2.4850	 8.2510
 2.4860	 8.1410
 2.4870	 8.0230
 2.4880	 7.9860
 2.4890	 8.0110
 2.4900	 8.0650
 2.4910	 8.1550
 2.4920	 8.1880
 2.4930	 8.0920
 2.4940	 8.0750
 2.4950	 8.0460
 2.4960	 7.9100
 2.4970	 7.8020
 2.4980	 7.7290
 2.4990	 7.7110
 2.5000	 7.7120
