Name: Ceanothus spinosus 3
Type: vegetation
Class: Shrub
Genus: Ceanothus
Species: spinosus
Sample No.: VH132
Owner: UCSB
Wavelength Range: TIR
Origin: 34.4906; -119.7908; WGS84
Collection Date: 6/3/2013
Description: Samples were collected as part of the HyspIRI Airborne Campaign. 48 individual plants were sampled in three times in 2013 - spring  summer  and fall. The name of the sample includes a 1  2  or 3 which references a different individual of the species. Samples were taken to JPL and processed within 48 hours of collection. The same leaves were processed in the Nicolet and then measured using the ASD.
Measurement: Hemispherical reflectance
First Column: X
Second Column: Y
X Units: Wavelength (micrometers)
Y Units: Reflectance (percentage)
First X Value: 2.501
Last X Value: 15.387
Number of X Values: 1737
Additional Information: vegetation.shrub.ceanothus.spinosus.tir.vh132.ucsb.nicolet.ancillary.txt

 2.5010	 7.7530
 2.5030	 7.6100
 2.5040	 7.6850
 2.5050	 7.6970
 2.5060	 7.8940
 2.5070	 7.9580
 2.5090	 7.7510
 2.5100	 7.6770
 2.5110	 7.7230
 2.5120	 7.5610
 2.5140	 7.5820
 2.5150	 7.6440
 2.5160	 7.7080
 2.5170	 7.5560
 2.5180	 7.4910
 2.5200	 7.4630
 2.5210	 7.5120
 2.5220	 7.5210
 2.5230	 7.6360
 2.5250	 7.6370
 2.5260	 7.6660
 2.5270	 7.6520
 2.5280	 7.5650
 2.5290	 7.4690
 2.5310	 7.4790
 2.5320	 7.5260
 2.5330	 7.5960
 2.5340	 7.4990
 2.5360	 7.4730
 2.5370	 7.4860
 2.5380	 7.5790
 2.5390	 7.4390
 2.5410	 7.5060
 2.5420	 7.5610
 2.5430	 7.5210
 2.5440	 7.4500
 2.5460	 7.5820
 2.5470	 7.5290
 2.5480	 7.5530
 2.5490	 7.5300
 2.5510	 7.4590
 2.5520	 7.4850
 2.5530	 7.6100
 2.5540	 7.5960
 2.5560	 7.6260
 2.5570	 7.5750
 2.5580	 7.6430
 2.5590	 7.5230
 2.5610	 7.5430
 2.5620	 7.5140
 2.5630	 7.5390
 2.5640	 7.5560
 2.5660	 7.6080
 2.5670	 7.5960
 2.5680	 7.6310
 2.5700	 7.5740
 2.5710	 7.5760
 2.5720	 7.5950
 2.5730	 7.5950
 2.5750	 7.4840
 2.5760	 7.4840
 2.5770	 7.5460
 2.5790	 7.5830
 2.5800	 7.4160
 2.5810	 7.5000
 2.5820	 7.5950
 2.5840	 7.5930
 2.5850	 7.5200
 2.5860	 7.5370
 2.5880	 7.4850
 2.5890	 7.4610
 2.5900	 7.4060
 2.5910	 7.4310
 2.5930	 7.3840
 2.5940	 7.3080
 2.5950	 7.2730
 2.5970	 7.2400
 2.5980	 7.2560
 2.5990	 7.3960
 2.6000	 7.3620
 2.6020	 7.2870
 2.6030	 7.1600
 2.6040	 7.1790
 2.6060	 7.1140
 2.6070	 7.0860
 2.6080	 7.0610
 2.6100	 7.1650
 2.6110	 7.0960
 2.6120	 7.0620
 2.6140	 7.0470
 2.6150	 7.1150
 2.6160	 7.0930
 2.6180	 7.0330
 2.6190	 6.9340
 2.6200	 6.9980
 2.6220	 7.0290
 2.6230	 6.9990
 2.6240	 6.8320
 2.6260	 6.8940
 2.6270	 6.8140
 2.6280	 6.7700
 2.6300	 6.6800
 2.6310	 6.6540
 2.6320	 6.7000
 2.6340	 6.7780
 2.6350	 6.7270
 2.6360	 6.7340
 2.6380	 6.6390
 2.6390	 6.5950
 2.6400	 6.5270
 2.6420	 6.4240
 2.6430	 6.3300
 2.6440	 6.4850
 2.6460	 6.5170
 2.6470	 6.4240
 2.6480	 6.3180
 2.6500	 6.2490
 2.6510	 6.1410
 2.6520	 6.2010
 2.6540	 6.2560
 2.6550	 6.2900
 2.6560	 6.2350
 2.6580	 6.2060
 2.6590	 6.0840
 2.6610	 6.1610
 2.6620	 6.1710
 2.6630	 6.1160
 2.6650	 6.0450
 2.6660	 5.9870
 2.6670	 5.9810
 2.6690	 6.1580
 2.6700	 6.0940
 2.6720	 6.0250
 2.6730	 5.9850
 2.6740	 6.0360
 2.6760	 5.9730
 2.6770	 5.8460
 2.6780	 5.7270
 2.6800	 5.8450
 2.6810	 5.8860
 2.6830	 5.9440
 2.6840	 5.7670
 2.6850	 5.7350
 2.6870	 5.7440
 2.6880	 5.7630
 2.6900	 5.7450
 2.6910	 5.7750
 2.6920	 5.7620
 2.6940	 5.7560
 2.6950	 5.6750
 2.6970	 5.6630
 2.6980	 5.7240
 2.6990	 5.7790
 2.7010	 5.6830
 2.7020	 5.7070
 2.7040	 5.7370
 2.7050	 5.6540
 2.7060	 5.6350
 2.7080	 5.7960
 2.7090	 5.7370
 2.7110	 5.6490
 2.7120	 5.6060
 2.7130	 5.7300
 2.7150	 5.7350
 2.7160	 5.7150
 2.7180	 5.7420
 2.7190	 5.8710
 2.7210	 5.8120
 2.7220	 5.7610
 2.7230	 5.6780
 2.7250	 5.7090
 2.7260	 5.6870
 2.7280	 5.7860
 2.7290	 5.7360
 2.7310	 5.7290
 2.7320	 5.7710
 2.7330	 5.9950
 2.7350	 6.0360
 2.7360	 6.0080
 2.7380	 5.9040
 2.7390	 5.8490
 2.7410	 5.8460
 2.7420	 5.9000
 2.7440	 5.8470
 2.7450	 5.8790
 2.7470	 5.9630
 2.7480	 6.1110
 2.7490	 5.9710
 2.7510	 5.8720
 2.7520	 5.9310
 2.7540	 5.9920
 2.7550	 5.7710
 2.7570	 5.7750
 2.7580	 5.8710
 2.7600	 5.9990
 2.7610	 5.9510
 2.7630	 5.9430
 2.7640	 5.9540
 2.7660	 6.1500
 2.7670	 6.1430
 2.7680	 6.0510
 2.7700	 5.9290
 2.7710	 5.9960
 2.7730	 6.0840
 2.7740	 6.2010
 2.7760	 6.0950
 2.7770	 6.0940
 2.7790	 6.0330
 2.7800	 6.1070
 2.7820	 6.0860
 2.7830	 6.1410
 2.7850	 6.1730
 2.7860	 6.2160
 2.7880	 6.0950
 2.7890	 6.1150
 2.7910	 6.0770
 2.7920	 6.0780
 2.7940	 6.0520
 2.7950	 6.2360
 2.7970	 6.2240
 2.7980	 6.2760
 2.8000	 6.2080
 2.8010	 6.1410
 2.8030	 6.1800
 2.8040	 6.2720
 2.8060	 6.2370
 2.8070	 6.2660
 2.8090	 6.1510
 2.8110	 6.1390
 2.8120	 6.2310
 2.8140	 6.2420
 2.8150	 6.1380
 2.8170	 6.2040
 2.8180	 6.2030
 2.8200	 6.2940
 2.8210	 6.3110
 2.8230	 6.2540
 2.8240	 6.2150
 2.8260	 6.2740
 2.8270	 6.2990
 2.8290	 6.3430
 2.8300	 6.3700
 2.8320	 6.4230
 2.8340	 6.3520
 2.8350	 6.4150
 2.8370	 6.5070
 2.8380	 6.5000
 2.8400	 6.3980
 2.8410	 6.3980
 2.8430	 6.2260
 2.8440	 6.2950
 2.8460	 6.3570
 2.8480	 6.4440
 2.8490	 6.4260
 2.8510	 6.4820
 2.8520	 6.5170
 2.8540	 6.5090
 2.8550	 6.4430
 2.8570	 6.5650
 2.8590	 6.4910
 2.8600	 6.4460
 2.8620	 6.3750
 2.8630	 6.3580
 2.8650	 6.3630
 2.8660	 6.4210
 2.8680	 6.4410
 2.8700	 6.5480
 2.8710	 6.5090
 2.8730	 6.6680
 2.8740	 6.6130
 2.8760	 6.5430
 2.8780	 6.5380
 2.8790	 6.6900
 2.8810	 6.6810
 2.8820	 6.6160
 2.8840	 6.4340
 2.8860	 6.4850
 2.8870	 6.5360
 2.8890	 6.7050
 2.8900	 6.7460
 2.8920	 6.6820
 2.8940	 6.5900
 2.8950	 6.6380
 2.8970	 6.6650
 2.8980	 6.7130
 2.9000	 6.7070
 2.9020	 6.7770
 2.9030	 6.6850
 2.9050	 6.7580
 2.9070	 6.6370
 2.9080	 6.5770
 2.9100	 6.5640
 2.9120	 6.6330
 2.9130	 6.6240
 2.9150	 6.6710
 2.9160	 6.7500
 2.9180	 6.6920
 2.9200	 6.4880
 2.9210	 6.5640
 2.9230	 6.6300
 2.9250	 6.6010
 2.9260	 6.5410
 2.9280	 6.7990
 2.9300	 6.8470
 2.9310	 6.7190
 2.9330	 6.5870
 2.9350	 6.6100
 2.9360	 6.5950
 2.9380	 6.7220
 2.9400	 6.7330
 2.9410	 6.7620
 2.9430	 6.7840
 2.9450	 6.8450
 2.9460	 6.6500
 2.9480	 6.6150
 2.9500	 6.6930
 2.9510	 6.7710
 2.9530	 6.7800
 2.9550	 6.8390
 2.9560	 6.7510
 2.9580	 6.6950
 2.9600	 6.7330
 2.9610	 6.7190
 2.9630	 6.5340
 2.9650	 6.5120
 2.9660	 6.5710
 2.9680	 6.7580
 2.9700	 6.8230
 2.9720	 6.8310
 2.9730	 6.6390
 2.9750	 6.5830
 2.9770	 6.5780
 2.9780	 6.7310
 2.9800	 6.6210
 2.9820	 6.5250
 2.9840	 6.5970
 2.9850	 6.6910
 2.9870	 6.5760
 2.9890	 6.5740
 2.9900	 6.5470
 2.9920	 6.7030
 2.9940	 6.6490
 2.9960	 6.5480
 2.9970	 6.4350
 2.9990	 6.4800
 3.0010	 6.4810
 3.0030	 6.4620
 3.0040	 6.3850
 3.0060	 6.4400
 3.0080	 6.4850
 3.0100	 6.4940
 3.0110	 6.4150
 3.0130	 6.3790
 3.0150	 6.3510
 3.0170	 6.4830
 3.0180	 6.4040
 3.0200	 6.3660
 3.0220	 6.3710
 3.0240	 6.4160
 3.0250	 6.4190
 3.0270	 6.4650
 3.0290	 6.3770
 3.0310	 6.4330
 3.0320	 6.4120
 3.0340	 6.4390
 3.0360	 6.3990
 3.0380	 6.3780
 3.0400	 6.3490
 3.0410	 6.4950
 3.0430	 6.4050
 3.0450	 6.3630
 3.0470	 6.3300
 3.0480	 6.3390
 3.0500	 6.3640
 3.0520	 6.4570
 3.0540	 6.2840
 3.0560	 6.2610
 3.0570	 6.3450
 3.0590	 6.4670
 3.0610	 6.3980
 3.0630	 6.4000
 3.0650	 6.3940
 3.0660	 6.3710
 3.0680	 6.2540
 3.0700	 6.2090
 3.0720	 6.2490
 3.0740	 6.3310
 3.0760	 6.3260
 3.0770	 6.4170
 3.0790	 6.3790
 3.0810	 6.3600
 3.0830	 6.2180
 3.0850	 6.1710
 3.0870	 6.2400
 3.0880	 6.3910
 3.0900	 6.3710
 3.0920	 6.2930
 3.0940	 6.1710
 3.0960	 6.1720
 3.0980	 6.1230
 3.0990	 6.2110
 3.1010	 6.2070
 3.1030	 6.1600
 3.1050	 6.1220
 3.1070	 6.1270
 3.1090	 6.0360
 3.1110	 6.0930
 3.1120	 6.1460
 3.1140	 6.1450
 3.1160	 6.0760
 3.1180	 6.0480
 3.1200	 5.8690
 3.1220	 5.9160
 3.1240	 6.0120
 3.1260	 6.0870
 3.1270	 6.0840
 3.1290	 6.1410
 3.1310	 6.0540
 3.1330	 6.0700
 3.1350	 6.0680
 3.1370	 6.0730
 3.1390	 6.0350
 3.1410	 6.1280
 3.1430	 6.1080
 3.1450	 5.9890
 3.1460	 5.8920
 3.1480	 5.9530
 3.1500	 5.9290
 3.1520	 5.9430
 3.1540	 5.8490
 3.1560	 5.8720
 3.1580	 5.8330
 3.1600	 5.7900
 3.1620	 5.8100
 3.1640	 5.9140
 3.1660	 5.9200
 3.1680	 5.9200
 3.1700	 5.8190
 3.1710	 5.9310
 3.1730	 5.9480
 3.1750	 5.8680
 3.1770	 5.7600
 3.1790	 5.7550
 3.1810	 5.7340
 3.1830	 5.7610
 3.1850	 5.7520
 3.1870	 5.8740
 3.1890	 5.8560
 3.1910	 5.7750
 3.1930	 5.7490
 3.1950	 5.8910
 3.1970	 5.8960
 3.1990	 5.8990
 3.2010	 5.7570
 3.2030	 5.6970
 3.2050	 5.6840
 3.2070	 5.6870
 3.2090	 5.6150
 3.2110	 5.6590
 3.2130	 5.6810
 3.2150	 5.7720
 3.2170	 5.7010
 3.2190	 5.6630
 3.2210	 5.6540
 3.2230	 5.7140
 3.2250	 5.6850
 3.2270	 5.7260
 3.2290	 5.6910
 3.2310	 5.6760
 3.2330	 5.6980
 3.2350	 5.7060
 3.2370	 5.6160
 3.2390	 5.6170
 3.2410	 5.6000
 3.2430	 5.5400
 3.2450	 5.4940
 3.2470	 5.6090
 3.2490	 5.6080
 3.2510	 5.5840
 3.2530	 5.6600
 3.2550	 5.6510
 3.2570	 5.4410
 3.2590	 5.4380
 3.2610	 5.4350
 3.2630	 5.4720
 3.2650	 5.4790
 3.2670	 5.5190
 3.2690	 5.4710
 3.2720	 5.4170
 3.2740	 5.3920
 3.2760	 5.4750
 3.2780	 5.4350
 3.2800	 5.4040
 3.2820	 5.3790
 3.2840	 5.4470
 3.2860	 5.4750
 3.2880	 5.5180
 3.2900	 5.4210
 3.2920	 5.3790
 3.2940	 5.3550
 3.2960	 5.3260
 3.2990	 5.2230
 3.3010	 5.2880
 3.3030	 5.3230
 3.3050	 5.2750
 3.3070	 5.2010
 3.3090	 5.2570
 3.3110	 5.2190
 3.3130	 5.2040
 3.3150	 5.1720
 3.3180	 5.1830
 3.3200	 5.1350
 3.3220	 5.1750
 3.3240	 5.1280
 3.3260	 5.1730
 3.3280	 5.1650
 3.3300	 5.1730
 3.3330	 5.1490
 3.3350	 5.1400
 3.3370	 5.0610
 3.3390	 5.0440
 3.3410	 5.0710
 3.3430	 5.0840
 3.3450	 4.9830
 3.3480	 4.9640
 3.3500	 4.8900
 3.3520	 4.9160
 3.3540	 4.8310
 3.3560	 4.8390
 3.3580	 4.9220
 3.3610	 4.9580
 3.3630	 4.8790
 3.3650	 4.8750
 3.3670	 4.7960
 3.3690	 4.6880
 3.3720	 4.6130
 3.3740	 4.7550
 3.3760	 4.8260
 3.3780	 4.8110
 3.3800	 4.8000
 3.3830	 4.8510
 3.3850	 4.7720
 3.3870	 4.7650
 3.3890	 4.6950
 3.3910	 4.6230
 3.3940	 4.5410
 3.3960	 4.6210
 3.3980	 4.6050
 3.4000	 4.6340
 3.4020	 4.6780
 3.4050	 4.8330
 3.4070	 4.9750
 3.4090	 5.2400
 3.4110	 5.4690
 3.4140	 5.8040
 3.4160	 6.1620
 3.4180	 6.7480
 3.4200	 7.4410
 3.4230	 8.2750
 3.4250	 9.2290
 3.4270	10.2180
 3.4290	10.7450
 3.4320	10.4030
 3.4340	 9.4350
 3.4360	 8.6970
 3.4390	 8.1550
 3.4410	 7.7480
 3.4430	 7.4640
 3.4450	 7.3710
 3.4480	 7.2870
 3.4500	 7.2400
 3.4520	 7.0890
 3.4550	 7.0730
 3.4570	 7.0490
 3.4590	 6.9490
 3.4620	 6.8620
 3.4640	 6.8980
 3.4660	 6.8420
 3.4680	 6.7840
 3.4710	 6.6520
 3.4730	 6.5320
 3.4750	 6.4040
 3.4780	 6.3600
 3.4800	 6.2360
 3.4820	 6.1850
 3.4850	 6.1070
 3.4870	 6.0040
 3.4890	 5.8500
 3.4920	 5.8520
 3.4940	 5.8000
 3.4970	 5.8660
 3.4990	 6.0650
 3.5010	 6.3260
 3.5040	 6.6530
 3.5060	 7.5680
 3.5080	 8.9650
 3.5110	 9.9600
 3.5130	 9.8100
 3.5160	 9.0040
 3.5180	 8.3110
 3.5200	 7.9320
 3.5230	 7.6400
 3.5250	 7.4050
 3.5270	 7.2540
 3.5300	 7.1490
 3.5320	 7.0250
 3.5350	 7.0130
 3.5370	 6.9160
 3.5400	 6.8250
 3.5420	 6.7310
 3.5440	 6.7520
 3.5470	 6.7210
 3.5490	 6.7300
 3.5520	 6.6920
 3.5540	 6.6530
 3.5570	 6.5430
 3.5590	 6.5000
 3.5610	 6.4820
 3.5640	 6.5160
 3.5660	 6.5510
 3.5690	 6.5020
 3.5710	 6.4440
 3.5740	 6.4630
 3.5760	 6.4240
 3.5790	 6.4430
 3.5810	 6.3800
 3.5840	 6.3090
 3.5860	 6.3170
 3.5890	 6.3940
 3.5910	 6.3510
 3.5930	 6.3670
 3.5960	 6.3980
 3.5980	 6.3970
 3.6010	 6.3030
 3.6030	 6.2900
 3.6060	 6.2750
 3.6080	 6.2820
 3.6110	 6.3230
 3.6140	 6.3650
 3.6160	 6.2610
 3.6190	 6.1910
 3.6210	 6.1880
 3.6240	 6.2420
 3.6260	 6.2030
 3.6290	 6.1980
 3.6310	 6.1800
 3.6340	 6.1420
 3.6360	 6.1360
 3.6390	 6.2440
 3.6410	 6.2620
 3.6440	 6.1720
 3.6470	 6.1220
 3.6490	 6.1690
 3.6520	 6.1760
 3.6540	 6.2060
 3.6570	 6.1650
 3.6590	 6.1120
 3.6620	 6.0510
 3.6650	 6.1190
 3.6670	 6.1250
 3.6700	 6.1180
 3.6720	 6.0630
 3.6750	 6.0730
 3.6780	 6.1140
 3.6800	 6.1150
 3.6830	 5.9960
 3.6850	 5.9860
 3.6880	 6.0310
 3.6910	 6.0610
 3.6930	 6.0020
 3.6960	 6.0320
 3.6990	 6.1040
 3.7010	 6.1300
 3.7040	 6.0820
 3.7060	 6.1030
 3.7090	 6.0900
 3.7120	 6.1130
 3.7140	 6.0720
 3.7170	 6.0790
 3.7200	 6.0540
 3.7220	 5.9810
 3.7250	 5.9630
 3.7280	 6.0430
 3.7300	 6.0410
 3.7330	 6.1430
 3.7360	 6.1520
 3.7390	 6.1540
 3.7410	 6.0760
 3.7440	 5.9750
 3.7470	 6.0150
 3.7490	 6.1150
 3.7520	 6.0660
 3.7550	 6.0890
 3.7580	 6.0610
 3.7600	 6.0040
 3.7630	 5.9590
 3.7660	 6.0440
 3.7680	 6.0770
 3.7710	 6.0420
 3.7740	 6.0130
 3.7770	 6.0170
 3.7790	 5.9760
 3.7820	 5.9690
 3.7850	 5.9140
 3.7880	 5.9990
 3.7900	 6.0470
 3.7930	 6.0120
 3.7960	 6.0110
 3.7990	 6.0590
 3.8020	 6.0560
 3.8040	 6.0760
 3.8070	 6.0620
 3.8100	 6.0300
 3.8130	 5.9930
 3.8160	 6.0430
 3.8180	 6.0580
 3.8210	 6.1100
 3.8240	 6.0300
 3.8270	 5.9990
 3.8300	 6.0220
 3.8330	 6.0340
 3.8350	 5.9880
 3.8380	 6.0130
 3.8410	 5.9840
 3.8440	 5.9680
 3.8470	 5.9590
 3.8500	 6.0050
 3.8520	 6.0110
 3.8550	 6.0140
 3.8580	 6.0370
 3.8610	 6.0730
 3.8640	 5.9660
 3.8670	 5.9470
 3.8700	 6.0260
 3.8730	 6.0670
 3.8750	 5.9800
 3.8780	 5.9230
 3.8810	 5.9720
 3.8840	 6.0000
 3.8870	 6.0340
 3.8900	 6.0870
 3.8930	 6.0920
 3.8960	 6.1350
 3.8990	 6.1360
 3.9020	 6.0490
 3.9050	 5.9430
 3.9080	 6.0050
 3.9110	 6.0550
 3.9140	 6.0720
 3.9160	 6.0810
 3.9190	 6.0760
 3.9220	 5.9930
 3.9250	 5.9420
 3.9280	 5.9740
 3.9310	 6.0240
 3.9340	 6.0540
 3.9370	 6.1580
 3.9400	 6.1230
 3.9430	 6.1130
 3.9460	 6.0800
 3.9490	 6.1260
 3.9520	 6.2070
 3.9550	 6.2210
 3.9580	 6.1370
 3.9610	 6.0890
 3.9640	 6.0760
 3.9670	 6.1040
 3.9700	 6.1270
 3.9730	 6.1160
 3.9770	 6.0560
 3.9800	 6.0470
 3.9830	 6.0500
 3.9860	 6.1090
 3.9890	 6.1540
 3.9920	 6.1610
 3.9950	 6.0780
 3.9980	 6.0620
 4.0010	 6.0490
 4.0040	 6.0540
 4.0070	 6.0980
 4.0100	 6.1790
 4.0130	 6.1470
 4.0170	 6.0480
 4.0200	 5.9910
 4.0230	 6.0370
 4.0260	 6.1070
 4.0290	 6.1970
 4.0320	 6.1170
 4.0350	 6.0880
 4.0380	 6.1390
 4.0420	 6.1140
 4.0450	 6.0420
 4.0480	 6.0950
 4.0510	 6.1010
 4.0540	 6.1290
 4.0570	 6.1280
 4.0610	 6.1030
 4.0640	 6.1270
 4.0670	 6.1340
 4.0700	 6.0900
 4.0730	 6.1020
 4.0770	 6.0260
 4.0800	 6.0740
 4.0830	 6.1290
 4.0860	 6.1760
 4.0890	 6.1490
 4.0930	 6.1490
 4.0960	 6.1840
 4.0990	 6.1650
 4.1020	 6.1040
 4.1060	 6.1260
 4.1090	 6.1140
 4.1120	 6.1410
 4.1150	 6.1720
 4.1190	 6.1360
 4.1220	 6.0920
 4.1250	 6.1350
 4.1280	 6.1460
 4.1320	 6.1680
 4.1350	 6.1730
 4.1380	 6.1210
 4.1420	 6.1170
 4.1450	 6.1430
 4.1480	 6.1800
 4.1520	 6.1170
 4.1550	 6.0750
 4.1580	 6.1120
 4.1620	 6.1330
 4.1650	 6.1070
 4.1680	 6.0560
 4.1720	 6.0640
 4.1750	 6.1240
 4.1780	 6.1080
 4.1820	 6.0720
 4.1850	 6.1220
 4.1890	 6.1320
 4.1920	 6.1330
 4.1950	 6.0800
 4.1990	 6.0840
 4.2020	 6.0600
 4.2060	 6.0770
 4.2090	 6.1100
 4.2120	 6.2080
 4.2160	 6.2410
 4.2190	 6.2430
 4.2230	 6.2890
 4.2260	 6.2260
 4.2300	 6.1640
 4.2330	 6.2890
 4.2360	 6.2170
 4.2400	 6.0190
 4.2430	 5.9020
 4.2470	 6.0480
 4.2500	 6.1300
 4.2540	 6.1440
 4.2570	 6.1110
 4.2610	 6.0760
 4.2640	 6.0650
 4.2680	 6.1100
 4.2710	 6.0830
 4.2750	 6.0640
 4.2780	 6.0590
 4.2820	 6.1150
 4.2850	 6.1660
 4.2890	 6.1050
 4.2930	 6.0940
 4.2960	 6.1100
 4.3000	 6.1130
 4.3030	 6.1150
 4.3070	 6.0120
 4.3100	 6.0970
 4.3140	 6.1840
 4.3180	 6.1770
 4.3210	 6.0860
 4.3250	 6.0530
 4.3280	 6.0450
 4.3320	 6.1080
 4.3360	 6.1040
 4.3390	 6.0980
 4.3430	 6.1260
 4.3470	 6.1150
 4.3500	 6.0740
 4.3540	 6.0730
 4.3570	 6.0510
 4.3610	 6.0430
 4.3650	 6.0270
 4.3680	 6.0330
 4.3720	 6.0490
 4.3760	 6.0250
 4.3800	 6.0100
 4.3830	 6.0220
 4.3870	 6.0150
 4.3910	 6.0380
 4.3940	 5.9970
 4.3980	 5.9590
 4.4020	 6.0040
 4.4060	 6.0350
 4.4090	 6.0430
 4.4130	 5.9940
 4.4170	 5.9740
 4.4210	 6.0060
 4.4240	 5.9790
 4.4280	 6.0200
 4.4320	 6.0150
 4.4360	 5.9360
 4.4400	 5.9120
 4.4430	 5.9720
 4.4470	 6.0160
 4.4510	 6.0230
 4.4550	 5.9800
 4.4590	 5.9950
 4.4620	 5.9540
 4.4660	 5.9230
 4.4700	 5.9300
 4.4740	 5.9340
 4.4780	 5.9030
 4.4820	 5.8660
 4.4860	 5.8810
 4.4900	 5.8840
 4.4930	 5.9120
 4.4970	 5.9350
 4.5010	 5.9100
 4.5050	 5.9130
 4.5090	 5.9020
 4.5130	 5.8880
 4.5170	 5.8800
 4.5210	 5.8980
 4.5250	 5.9080
 4.5290	 5.8690
 4.5330	 5.8910
 4.5370	 5.9230
 4.5410	 5.9140
 4.5450	 5.9070
 4.5490	 5.8920
 4.5530	 5.9090
 4.5570	 5.9410
 4.5610	 5.9550
 4.5650	 5.9320
 4.5690	 5.9200
 4.5730	 5.9110
 4.5770	 5.9280
 4.5810	 5.8810
 4.5850	 5.7910
 4.5890	 5.7810
 4.5930	 5.8040
 4.5970	 5.8580
 4.6010	 5.9080
 4.6050	 5.8820
 4.6090	 5.9130
 4.6130	 5.9110
 4.6170	 5.8690
 4.6220	 5.8710
 4.6260	 5.8960
 4.6300	 5.8990
 4.6340	 5.8830
 4.6380	 5.9350
 4.6420	 5.9260
 4.6460	 5.9150
 4.6510	 5.9150
 4.6550	 5.9070
 4.6590	 5.9200
 4.6630	 5.9120
 4.6670	 5.8540
 4.6720	 5.8430
 4.6760	 5.8740
 4.6800	 5.8720
 4.6840	 5.7900
 4.6880	 5.7800
 4.6930	 5.8340
 4.6970	 5.8510
 4.7010	 5.8850
 4.7050	 5.9530
 4.7100	 5.9890
 4.7140	 5.9580
 4.7180	 5.9090
 4.7230	 5.8980
 4.7270	 5.9030
 4.7310	 5.9100
 4.7360	 5.9070
 4.7400	 5.8670
 4.7440	 5.8490
 4.7490	 5.8800
 4.7530	 5.8830
 4.7570	 5.8490
 4.7620	 5.8520
 4.7660	 5.8950
 4.7700	 5.8950
 4.7750	 5.8590
 4.7790	 5.7890
 4.7840	 5.7840
 4.7880	 5.7990
 4.7920	 5.8180
 4.7970	 5.8000
 4.8010	 5.8240
 4.8060	 5.8170
 4.8100	 5.8440
 4.8150	 5.8270
 4.8190	 5.7800
 4.8240	 5.7260
 4.8280	 5.8290
 4.8330	 5.9440
 4.8370	 5.8890
 4.8420	 5.7660
 4.8460	 5.7690
 4.8510	 5.8230
 4.8550	 5.8000
 4.8600	 5.8220
 4.8640	 5.8950
 4.8690	 5.8870
 4.8730	 5.8380
 4.8780	 5.7810
 4.8830	 5.8010
 4.8870	 5.8240
 4.8920	 5.7990
 4.8960	 5.8380
 4.9010	 5.8510
 4.9060	 5.7930
 4.9100	 5.7480
 4.9150	 5.7880
 4.9200	 5.8320
 4.9240	 5.8230
 4.9290	 5.8020
 4.9340	 5.7720
 4.9380	 5.8150
 4.9430	 5.8330
 4.9480	 5.8530
 4.9530	 5.8230
 4.9570	 5.8410
 4.9620	 5.8560
 4.9670	 5.8300
 4.9720	 5.8140
 4.9760	 5.8800
 4.9810	 5.8860
 4.9860	 5.9080
 4.9910	 5.8830
 4.9960	 5.8780
 5.0000	 5.8320
 5.0050	 5.7900
 5.0100	 5.7900
 5.0150	 5.8480
 5.0200	 5.8740
 5.0250	 5.8820
 5.0290	 5.9000
 5.0340	 5.9360
 5.0390	 5.9200
 5.0440	 5.9730
 5.0490	 5.9730
 5.0540	 5.9880
 5.0590	 5.9810
 5.0640	 5.8850
 5.0690	 5.8540
 5.0740	 5.8450
 5.0790	 5.8210
 5.0840	 5.8860
 5.0890	 5.8610
 5.0940	 5.8730
 5.0990	 5.9090
 5.1040	 5.9710
 5.1090	 5.9630
 5.1140	 5.9630
 5.1190	 5.9320
 5.1240	 5.8670
 5.1290	 5.8650
 5.1340	 5.9460
 5.1390	 5.9420
 5.1440	 5.9110
 5.1490	 5.8840
 5.1540	 5.9240
 5.1600	 5.8900
 5.1650	 5.8800
 5.1700	 5.8760
 5.1750	 5.9510
 5.1800	 5.9790
 5.1850	 5.9410
 5.1910	 5.8570
 5.1960	 5.8870
 5.2010	 5.9590
 5.2060	 5.9760
 5.2110	 5.9120
 5.2170	 5.9100
 5.2220	 5.9590
 5.2270	 5.9170
 5.2320	 5.8150
 5.2380	 5.8830
 5.2430	 5.9400
 5.2480	 5.8810
 5.2540	 5.8330
 5.2590	 5.8780
 5.2640	 5.9150
 5.2700	 5.9230
 5.2750	 5.8650
 5.2800	 5.9390
 5.2860	 5.9100
 5.2910	 5.8360
 5.2970	 5.8850
 5.3020	 5.9140
 5.3070	 5.8960
 5.3130	 5.9080
 5.3180	 5.8870
 5.3240	 5.9270
 5.3290	 5.9100
 5.3350	 5.9100
 5.3400	 5.9160
 5.3460	 5.9440
 5.3510	 5.8860
 5.3570	 5.8760
 5.3620	 5.8460
 5.3680	 5.8270
 5.3730	 5.8340
 5.3790	 5.8410
 5.3850	 5.7830
 5.3900	 5.8410
 5.3960	 5.8320
 5.4010	 5.8400
 5.4070	 5.7900
 5.4130	 5.7720
 5.4180	 5.7210
 5.4240	 5.7400
 5.4300	 5.7460
 5.4350	 5.8090
 5.4410	 5.8260
 5.4470	 5.7550
 5.4530	 5.6910
 5.4580	 5.6890
 5.4640	 5.6800
 5.4700	 5.6990
 5.4760	 5.6860
 5.4810	 5.6990
 5.4870	 5.6950
 5.4930	 5.7540
 5.4990	 5.8220
 5.5050	 5.8310
 5.5110	 5.7370
 5.5160	 5.7010
 5.5220	 5.6700
 5.5280	 5.6850
 5.5340	 5.6920
 5.5400	 5.6730
 5.5460	 5.5560
 5.5520	 5.5350
 5.5580	 5.5420
 5.5640	 5.5570
 5.5700	 5.5010
 5.5760	 5.5380
 5.5820	 5.5190
 5.5880	 5.5080
 5.5940	 5.4500
 5.6000	 5.4470
 5.6060	 5.4340
 5.6120	 5.4300
 5.6180	 5.3680
 5.6240	 5.3860
 5.6300	 5.3790
 5.6360	 5.3400
 5.6420	 5.2910
 5.6490	 5.2800
 5.6550	 5.2030
 5.6610	 5.1160
 5.6670	 5.0240
 5.6730	 5.0990
 5.6800	 5.0780
 5.6860	 4.9580
 5.6920	 4.8690
 5.6980	 4.8160
 5.7040	 4.7070
 5.7110	 4.6440
 5.7170	 4.5610
 5.7230	 4.5500
 5.7300	 4.4280
 5.7360	 4.3920
 5.7420	 4.4690
 5.7490	 4.6670
 5.7550	 4.9570
 5.7620	 5.3090
 5.7680	 5.6040
 5.7740	 5.9240
 5.7810	 6.2220
 5.7870	 6.5000
 5.7940	 6.6360
 5.8000	 6.7060
 5.8070	 6.7240
 5.8130	 6.8000
 5.8200	 6.8730
 5.8260	 6.9680
 5.8330	 7.0190
 5.8390	 7.1200
 5.8460	 7.1430
 5.8530	 7.1560
 5.8590	 7.0750
 5.8660	 7.1380
 5.8720	 7.2200
 5.8790	 7.2070
 5.8860	 7.1380
 5.8920	 7.1480
 5.8990	 7.0450
 5.9060	 7.0320
 5.9130	 6.9480
 5.9190	 6.9280
 5.9260	 6.8880
 5.9330	 6.8590
 5.9400	 6.8450
 5.9470	 6.8340
 5.9530	 6.7180
 5.9600	 6.7330
 5.9670	 6.6730
 5.9740	 6.6840
 5.9810	 6.6220
 5.9880	 6.6370
 5.9950	 6.5810
 6.0020	 6.5380
 6.0090	 6.3840
 6.0160	 6.2780
 6.0230	 6.2160
 6.0300	 6.3130
 6.0370	 6.3190
 6.0440	 6.3400
 6.0510	 6.2910
 6.0580	 6.2380
 6.0650	 6.0340
 6.0720	 6.0420
 6.0790	 6.0900
 6.0860	 6.0850
 6.0930	 5.9270
 6.1000	 5.9730
 6.1080	 6.0570
 6.1150	 6.0370
 6.1220	 5.8650
 6.1290	 5.9350
 6.1370	 6.0120
 6.1440	 6.0600
 6.1510	 5.9740
 6.1580	 6.0040
 6.1660	 5.9760
 6.1730	 5.9860
 6.1800	 5.9360
 6.1880	 5.9880
 6.1950	 5.9930
 6.2030	 6.0500
 6.2100	 5.9770
 6.2170	 5.9710
 6.2250	 5.9190
 6.2320	 5.9040
 6.2400	 5.7970
 6.2470	 5.8120
 6.2550	 5.7980
 6.2630	 5.8520
 6.2700	 5.7680
 6.2780	 5.7150
 6.2850	 5.6390
 6.2930	 5.8010
 6.3010	 5.7780
 6.3080	 5.8500
 6.3160	 5.8920
 6.3240	 5.8820
 6.3310	 5.7380
 6.3390	 5.7700
 6.3470	 5.7600
 6.3550	 5.8160
 6.3620	 5.7640
 6.3700	 5.7980
 6.3780	 5.7240
 6.3860	 5.7590
 6.3940	 5.6920
 6.4020	 5.7350
 6.4100	 5.7040
 6.4180	 5.7170
 6.4260	 5.6390
 6.4330	 5.6230
 6.4410	 5.6290
 6.4490	 5.7040
 6.4580	 5.6900
 6.4660	 5.6680
 6.4740	 5.5240
 6.4820	 5.6360
 6.4900	 5.6360
 6.4980	 5.6810
 6.5060	 5.6020
 6.5140	 5.6430
 6.5230	 5.6200
 6.5310	 5.6490
 6.5390	 5.5910
 6.5470	 5.6490
 6.5550	 5.5110
 6.5640	 5.4840
 6.5720	 5.5500
 6.5800	 5.6400
 6.5890	 5.6000
 6.5970	 5.7260
 6.6060	 5.7910
 6.6140	 5.8550
 6.6220	 5.7790
 6.6310	 5.8000
 6.6390	 5.7660
 6.6480	 5.8060
 6.6560	 5.7710
 6.6650	 5.8260
 6.6740	 5.7630
 6.6820	 5.7520
 6.6910	 5.6630
 6.6990	 5.6700
 6.7080	 5.5520
 6.7170	 5.5570
 6.7260	 5.5000
 6.7340	 5.5040
 6.7430	 5.3880
 6.7520	 5.3820
 6.7610	 5.3550
 6.7690	 5.3440
 6.7780	 5.3970
 6.7870	 5.6890
 6.7960	 5.7740
 6.8050	 5.7250
 6.8140	 5.6590
 6.8230	 5.8500
 6.8320	 6.0920
 6.8410	 6.3030
 6.8500	 6.1230
 6.8590	 6.0900
 6.8680	 6.1550
 6.8770	 6.2800
 6.8860	 6.2480
 6.8950	 6.2320
 6.9050	 6.0940
 6.9140	 6.0760
 6.9230	 5.9740
 6.9320	 5.9510
 6.9420	 5.9110
 6.9510	 6.0560
 6.9600	 5.9560
 6.9700	 5.9000
 6.9790	 5.8320
 6.9880	 5.9920
 6.9980	 5.9300
 7.0070	 5.8660
 7.0170	 5.7970
 7.0260	 5.7630
 7.0360	 5.7290
 7.0450	 5.8710
 7.0550	 5.8000
 7.0650	 5.8010
 7.0740	 5.7750
 7.0840	 5.8390
 7.0940	 5.7540
 7.1030	 5.8300
 7.1130	 5.8350
 7.1230	 5.8270
 7.1330	 5.6700
 7.1420	 5.6360
 7.1520	 5.5140
 7.1620	 5.6090
 7.1720	 5.6210
 7.1820	 5.7030
 7.1920	 5.6570
 7.2020	 5.7170
 7.2120	 5.6810
 7.2220	 5.7530
 7.2320	 5.7200
 7.2420	 5.8010
 7.2520	 5.7320
 7.2620	 5.7860
 7.2730	 5.7380
 7.2830	 5.6850
 7.2930	 5.5210
 7.3030	 5.6450
 7.3140	 5.6870
 7.3240	 5.7990
 7.3340	 5.6910
 7.3450	 5.6700
 7.3550	 5.6670
 7.3660	 5.7300
 7.3760	 5.6720
 7.3870	 5.6960
 7.3970	 5.6020
 7.4080	 5.7150
 7.4180	 5.6990
 7.4290	 5.7220
 7.4400	 5.5560
 7.4500	 5.5900
 7.4610	 5.5570
 7.4720	 5.6400
 7.4830	 5.5870
 7.4930	 5.6280
 7.5040	 5.5240
 7.5150	 5.5330
 7.5260	 5.4730
 7.5370	 5.5090
 7.5480	 5.4090
 7.5590	 5.4950
 7.5700	 5.5180
 7.5810	 5.5500
 7.5920	 5.4630
 7.6030	 5.4760
 7.6140	 5.3980
 7.6260	 5.5160
 7.6370	 5.4610
 7.6480	 5.4740
 7.6590	 5.3700
 7.6710	 5.4820
 7.6820	 5.5510
 7.6930	 5.6210
 7.7050	 5.4360
 7.7160	 5.3970
 7.7280	 5.3760
 7.7390	 5.5060
 7.7510	 5.4900
 7.7630	 5.5750
 7.7740	 5.4610
 7.7860	 5.4140
 7.7980	 5.3630
 7.8090	 5.5360
 7.8210	 5.5210
 7.8330	 5.5780
 7.8450	 5.5460
 7.8570	 5.6210
 7.8690	 5.5900
 7.8810	 5.6890
 7.8930	 5.5670
 7.9050	 5.6190
 7.9170	 5.5740
 7.9290	 5.6660
 7.9410	 5.5920
 7.9530	 5.6810
 7.9650	 5.5940
 7.9780	 5.7310
 7.9900	 5.8510
 8.0020	 5.9470
 8.0150	 5.7180
 8.0270	 5.7910
 8.0390	 5.9030
 8.0520	 6.0820
 8.0640	 5.9730
 8.0770	 6.0190
 8.0900	 6.0340
 8.1020	 6.1950
 8.1150	 6.0800
 8.1280	 6.1590
 8.1400	 6.0960
 8.1530	 6.2250
 8.1660	 6.0890
 8.1790	 6.1100
 8.1920	 6.0820
 8.2050	 6.2770
 8.2180	 6.0740
 8.2310	 6.2240
 8.2440	 6.1980
 8.2570	 6.2780
 8.2700	 6.2660
 8.2830	 6.3250
 8.2970	 6.1670
 8.3100	 6.4620
 8.3230	 6.4060
 8.3370	 6.4940
 8.3500	 6.4960
 8.3640	 6.6910
 8.3770	 6.6220
 8.3910	 6.7050
 8.4040	 6.6400
 8.4180	 6.7780
 8.4320	 6.8260
 8.4450	 7.0340
 8.4590	 6.9610
 8.4730	 7.3000
 8.4870	 7.3890
 8.5010	 7.5310
 8.5150	 7.4030
 8.5290	 7.5620
 8.5430	 7.5820
 8.5570	 7.6560
 8.5710	 7.3750
 8.5850	 7.4610
 8.5990	 7.3220
 8.6140	 7.2960
 8.6280	 7.0750
 8.6420	 7.0840
 8.6570	 6.9750
 8.6710	 6.9470
 8.6860	 6.7680
 8.7000	 6.9820
 8.7150	 6.9230
 8.7300	 7.0250
 8.7440	 6.8890
 8.7590	 6.9860
 8.7740	 6.8640
 8.7890	 6.9360
 8.8040	 6.7810
 8.8190	 6.7820
 8.8340	 6.7450
 8.8490	 6.9370
 8.8640	 6.8110
 8.8790	 6.8590
 8.8940	 6.6320
 8.9100	 6.6210
 8.9250	 6.4270
 8.9400	 6.4070
 8.9560	 6.0930
 8.9710	 6.2780
 8.9870	 6.1420
 9.0020	 6.1710
 9.0180	 5.9990
 9.0340	 6.0120
 9.0500	 5.8590
 9.0650	 6.0590
 9.0810	 5.9080
 9.0970	 5.8790
 9.1130	 5.7160
 9.1290	 5.9600
 9.1450	 5.8920
 9.1610	 6.0040
 9.1780	 5.8750
 9.1940	 6.0290
 9.2100	 5.9270
 9.2270	 6.1210
 9.2430	 5.8160
 9.2600	 5.8630
 9.2760	 5.7070
 9.2930	 5.5470
 9.3090	 5.2820
 9.3260	 5.5470
 9.3430	 5.3440
 9.3600	 5.3590
 9.3770	 5.0890
 9.3940	 5.2180
 9.4110	 5.1200
 9.4280	 5.3180
 9.4450	 5.2380
 9.4620	 5.3390
 9.4800	 4.9980
 9.4970	 5.0670
 9.5140	 5.0660
 9.5320	 5.3610
 9.5500	 5.3310
 9.5670	 5.5350
 9.5850	 5.3270
 9.6030	 5.3990
 9.6200	 5.3670
 9.6380	 5.4440
 9.6560	 5.0780
 9.6740	 5.0540
 9.6920	 4.9120
 9.7100	 5.2210
 9.7290	 5.1820
 9.7470	 5.3380
 9.7650	 5.0370
 9.7840	 5.0650
 9.8020	 4.9950
 9.8210	 5.1600
 9.8390	 5.0110
 9.8580	 5.1600
 9.8770	 5.0180
 9.8960	 5.1540
 9.9150	 5.0270
 9.9340	 5.2670
 9.9530	 5.0940
 9.9720	 5.2500
 9.9910	 5.2670
10.0100	 5.4350
10.0300	 5.3600
10.0490	 5.4810
10.0690	 5.2840
10.0880	 5.4420
10.1080	 5.3720
10.1280	 5.6430
10.1480	 5.5610
10.1670	 5.6950
10.1870	 5.4980
10.2070	 5.6340
10.2280	 5.5850
10.2480	 5.6830
10.2680	 5.3830
10.2890	 5.4940
10.3090	 5.3970
10.3300	 5.4620
10.3500	 5.3500
10.3710	 5.3980
10.3920	 5.1600
10.4120	 5.2500
10.4330	 5.1460
10.4540	 5.3810
10.4760	 5.3070
10.4970	 5.4280
10.5180	 5.2230
10.5390	 5.3870
10.5610	 5.4380
10.5820	 5.6660
10.6040	 5.4500
10.6260	 5.5800
10.6480	 5.4000
10.6700	 5.4880
10.6920	 5.4760
10.7140	 5.5560
10.7360	 5.3490
10.7580	 5.6490
10.7800	 5.5640
10.8030	 5.6530
10.8250	 5.4220
10.8480	 5.4890
10.8710	 5.2270
10.8940	 5.5120
10.9170	 5.2490
10.9400	 5.2790
10.9630	 5.1410
10.9860	 5.2330
11.0090	 5.1000
11.0330	 5.3080
11.0560	 5.1600
11.0800	 5.3770
11.1040	 5.0970
11.1270	 5.0870
11.1510	 4.8920
11.1750	 5.1250
11.2000	 4.8880
11.2240	 5.0770
11.2480	 4.9850
11.2730	 5.1690
11.2970	 4.9680
11.3220	 5.0800
11.3470	 4.8970
11.3720	 5.0820
11.3970	 4.8340
11.4220	 4.9970
11.4470	 4.8800
11.4720	 5.0270
11.4980	 4.5950
11.5230	 4.7260
11.5490	 4.7390
11.5750	 4.9820
11.6000	 4.5660
11.6260	 4.6340
11.6530	 4.4070
11.6790	 4.6080
11.7050	 4.5170
11.7320	 4.7330
11.7580	 4.4780
11.7850	 4.4990
11.8120	 4.2960
11.8390	 4.5950
11.8660	 4.2650
11.8930	 4.3340
11.9200	 4.2720
11.9480	 4.6020
11.9760	 4.2900
12.0030	 4.3590
12.0310	 4.1710
12.0590	 4.5270
12.0870	 4.3440
12.1150	 4.3280
12.1440	 4.0780
12.1720	 4.4510
12.2010	 4.2570
12.2300	 4.2700
12.2590	 3.9990
12.2880	 4.3350
12.3170	 4.0200
12.3460	 4.1180
12.3760	 4.0190
12.4050	 4.3120
12.4350	 4.0560
12.4650	 4.3590
12.4950	 3.8930
12.5250	 3.9590
12.5550	 3.5860
12.5860	 3.9430
12.6170	 3.8920
12.6470	 4.0140
12.6780	 3.6630
12.7090	 3.9130
12.7410	 3.5620
12.7720	 3.7470
12.8030	 3.5820
12.8350	 3.7590
12.8670	 3.4850
12.8990	 3.7310
12.9310	 3.5640
12.9640	 3.7450
12.9960	 3.3640
13.0290	 3.6180
13.0610	 3.3090
13.0940	 3.5470
13.1280	 3.3580
13.1610	 3.5350
13.1940	 3.4380
13.2280	 3.9660
13.2620	 3.3500
13.2960	 3.3600
13.3300	 3.3590
13.3640	 3.7490
13.3990	 3.3040
13.4340	 3.4720
13.4690	 3.1520
13.5040	 3.4420
13.5390	 3.0370
13.5740	 3.3510
13.6100	 3.1180
13.6460	 3.4700
13.6820	 3.2460
13.7180	 3.5210
13.7540	 3.0190
13.7910	 3.5040
13.8280	 3.5180
13.8650	 3.9150
13.9020	 3.4860
13.9390	 3.7610
13.9770	 3.2760
14.0150	 3.5610
14.0530	 3.3900
14.0910	 3.6620
14.1290	 3.2360
14.1680	 3.5850
14.2070	 3.2290
14.2460	 3.5470
14.2850	 3.1450
14.3240	 3.3510
14.3640	 2.7160
14.4040	 3.2030
14.4440	 2.9180
14.4840	 3.4030
14.5250	 3.0690
14.5660	 3.3560
14.6070	 2.8230
14.6480	 3.2090
14.6900	 2.6060
14.7310	 3.1480
14.7730	 2.8970
14.8150	 3.5070
14.8580	 3.0590
14.9010	 3.6030
14.9440	 2.9320
14.9870	 3.7620
15.0300	 3.0760
15.0740	 3.6790
15.1180	 2.7690
15.1620	 3.4120
15.2060	 3.3020
15.2510	 3.8350
15.2960	 3.1280
15.3410	 3.5820
15.3870	 2.8560
