Name: Betula papyrifera
Type: Vegetation
Class: Tree
Genus: Betula
Species: papyrifera
Sample No.: BEPA-2-37
Owner: UCSB
Wavelength Range: TIR
Origin: USA; Massachusetts; Harvard Forest
Collection Date: 7/8/2013
Description: Samples were collected as part of NSF Macrosystem Biology proposal titled: Collaborative Research: Thermal controls on ecosystem metabolism and function: scaling from leaves to canopies to regions. Samples were collected and overnighted to JPL facilities for processing. The same leaves were processed in the Nicolet and then measured using the ASD.
Measurement: Hemispherical reflectance
First Column: X
Second Column: Y
X Units: Wavelength (micrometers)
Y Units: Reflectance (percentage)
First X Value: 2.501
Last X Value: 15.387
Number of X Values: 1737
Additional Information: vegetation.tree.betula.papyrifera.tir.bepa-2-37.ucsb.nicolet.ancillary.txt

 2.5010	19.5260
 2.5030	19.5160
 2.5040	19.5530
 2.5050	19.5720
 2.5060	19.6270
 2.5070	19.3990
 2.5090	19.0740
 2.5100	19.1960
 2.5110	19.2930
 2.5120	19.2710
 2.5140	19.2480
 2.5150	19.0940
 2.5160	19.0400
 2.5170	19.0010
 2.5180	19.1580
 2.5200	19.2990
 2.5210	19.4600
 2.5220	19.3820
 2.5230	19.2300
 2.5250	19.0460
 2.5260	19.0440
 2.5270	19.1720
 2.5280	19.2780
 2.5290	19.3160
 2.5310	19.4130
 2.5320	19.2010
 2.5330	19.0630
 2.5340	18.9070
 2.5360	18.8830
 2.5370	19.1100
 2.5380	19.2390
 2.5390	19.2270
 2.5410	19.3290
 2.5420	19.1290
 2.5430	19.0730
 2.5440	19.2530
 2.5460	19.3750
 2.5470	19.2240
 2.5480	19.1550
 2.5490	19.1010
 2.5510	19.0220
 2.5520	19.0880
 2.5530	19.3280
 2.5540	19.3380
 2.5560	19.2730
 2.5570	19.2190
 2.5580	19.2030
 2.5590	19.2600
 2.5610	19.3900
 2.5620	19.2280
 2.5630	19.2440
 2.5640	19.1000
 2.5660	19.1720
 2.5670	19.3290
 2.5680	19.2530
 2.5700	19.0750
 2.5710	19.0360
 2.5720	18.9310
 2.5730	19.1520
 2.5750	19.2420
 2.5760	19.1250
 2.5770	19.1140
 2.5790	19.4910
 2.5800	19.2380
 2.5810	19.2000
 2.5820	19.4010
 2.5840	19.2750
 2.5850	19.0440
 2.5860	18.9040
 2.5880	18.9200
 2.5890	18.8080
 2.5900	18.7880
 2.5910	18.7490
 2.5930	18.7770
 2.5940	18.9360
 2.5950	18.7630
 2.5970	18.7530
 2.5980	18.7250
 2.5990	18.8240
 2.6000	18.8810
 2.6020	18.9770
 2.6030	18.9440
 2.6040	18.6210
 2.6060	18.4250
 2.6070	18.5430
 2.6080	18.4450
 2.6100	18.3910
 2.6110	18.3180
 2.6120	18.4210
 2.6140	18.5390
 2.6150	18.3620
 2.6160	18.0270
 2.6180	17.9950
 2.6190	18.0370
 2.6200	18.1830
 2.6220	18.0560
 2.6230	17.8520
 2.6240	17.7530
 2.6260	17.7550
 2.6270	17.6100
 2.6280	17.4170
 2.6300	17.3710
 2.6310	17.4100
 2.6320	17.4510
 2.6340	17.2990
 2.6350	17.2010
 2.6360	17.2840
 2.6380	17.1600
 2.6390	17.0750
 2.6400	17.0920
 2.6420	16.9920
 2.6430	16.9530
 2.6440	16.9890
 2.6460	16.9540
 2.6470	17.0120
 2.6480	16.9420
 2.6500	16.6870
 2.6510	16.3930
 2.6520	16.4330
 2.6540	16.6890
 2.6550	16.8480
 2.6560	16.7900
 2.6580	16.7250
 2.6590	16.6210
 2.6610	16.3250
 2.6620	15.9160
 2.6630	16.1930
 2.6650	16.3510
 2.6660	16.0290
 2.6670	15.9460
 2.6690	16.2380
 2.6700	16.0840
 2.6720	15.8180
 2.6730	15.6590
 2.6740	15.8620
 2.6760	16.0750
 2.6770	16.1720
 2.6780	15.9070
 2.6800	15.7390
 2.6810	15.5410
 2.6830	15.5570
 2.6840	15.7000
 2.6850	15.6780
 2.6870	15.6750
 2.6880	15.7480
 2.6900	15.6730
 2.6910	15.7120
 2.6920	15.6360
 2.6940	15.5540
 2.6950	15.3060
 2.6970	15.0850
 2.6980	15.1430
 2.6990	15.4940
 2.7010	15.6450
 2.7020	15.4870
 2.7040	15.4180
 2.7050	15.3750
 2.7060	15.3730
 2.7080	15.3700
 2.7090	15.3680
 2.7110	15.5740
 2.7120	15.6160
 2.7130	15.5970
 2.7150	15.5730
 2.7160	15.4420
 2.7180	15.4990
 2.7190	15.6680
 2.7210	15.9100
 2.7220	15.6400
 2.7230	15.4660
 2.7250	15.7000
 2.7260	15.5340
 2.7280	15.4360
 2.7290	15.5500
 2.7310	15.4180
 2.7320	15.2230
 2.7330	15.5250
 2.7350	15.6450
 2.7360	15.6860
 2.7380	15.7490
 2.7390	15.9120
 2.7410	15.9010
 2.7420	15.6120
 2.7440	15.1740
 2.7450	15.1080
 2.7470	14.9870
 2.7480	15.1890
 2.7490	15.6540
 2.7510	15.7900
 2.7520	15.2250
 2.7540	15.3560
 2.7550	15.3230
 2.7570	15.0400
 2.7580	14.9600
 2.7600	15.3050
 2.7610	15.6690
 2.7630	15.4720
 2.7640	15.4370
 2.7660	15.6490
 2.7670	15.4480
 2.7680	15.6760
 2.7700	15.9960
 2.7710	16.0210
 2.7730	16.2470
 2.7740	16.2190
 2.7760	15.8250
 2.7770	15.6030
 2.7790	15.6000
 2.7800	16.1600
 2.7820	16.2050
 2.7830	15.8700
 2.7850	15.9290
 2.7860	16.1860
 2.7880	15.8280
 2.7890	15.7390
 2.7910	15.7100
 2.7920	15.7550
 2.7940	15.7690
 2.7950	15.7870
 2.7970	15.6070
 2.7980	15.7640
 2.8000	15.8980
 2.8010	16.0540
 2.8030	15.9510
 2.8040	15.7830
 2.8060	15.6750
 2.8070	15.6830
 2.8090	15.8650
 2.8110	15.9830
 2.8120	15.9500
 2.8140	16.0450
 2.8150	16.1840
 2.8170	16.1530
 2.8180	16.1360
 2.8200	16.2400
 2.8210	16.2190
 2.8230	16.3210
 2.8240	16.2470
 2.8260	16.2830
 2.8270	15.9750
 2.8290	15.9790
 2.8300	16.1200
 2.8320	16.1200
 2.8340	16.1010
 2.8350	16.0140
 2.8370	15.9690
 2.8380	16.0850
 2.8400	16.0390
 2.8410	16.1990
 2.8430	16.0650
 2.8440	15.9520
 2.8460	15.9030
 2.8480	16.0010
 2.8490	16.0910
 2.8510	16.1300
 2.8520	16.0360
 2.8540	16.1850
 2.8550	15.9970
 2.8570	15.7980
 2.8590	15.7870
 2.8600	15.9460
 2.8620	15.9780
 2.8630	16.0300
 2.8650	15.9590
 2.8660	16.0820
 2.8680	15.7420
 2.8700	15.5990
 2.8710	15.8360
 2.8730	15.9840
 2.8740	16.3060
 2.8760	16.1920
 2.8780	16.2950
 2.8790	16.5300
 2.8810	15.8680
 2.8820	15.6810
 2.8840	15.6140
 2.8860	15.9760
 2.8870	16.2240
 2.8890	16.3220
 2.8900	16.0300
 2.8920	15.9940
 2.8940	16.0640
 2.8950	15.8640
 2.8970	15.8790
 2.8980	15.8700
 2.9000	15.8520
 2.9020	16.2030
 2.9030	16.1750
 2.9050	16.0230
 2.9070	16.2110
 2.9080	16.3770
 2.9100	16.0700
 2.9120	15.7010
 2.9130	15.5900
 2.9150	15.7070
 2.9160	15.6610
 2.9180	15.8130
 2.9200	15.8770
 2.9210	16.1050
 2.9230	16.1840
 2.9250	16.0920
 2.9260	15.9970
 2.9280	16.1650
 2.9300	16.0310
 2.9310	15.9960
 2.9330	15.7980
 2.9350	15.8370
 2.9360	15.9070
 2.9380	16.0150
 2.9400	16.3280
 2.9410	16.5520
 2.9430	16.3750
 2.9450	16.1770
 2.9460	16.4940
 2.9480	16.6070
 2.9500	16.2550
 2.9510	15.8070
 2.9530	15.8860
 2.9550	16.4320
 2.9560	16.4480
 2.9580	16.5930
 2.9600	16.3150
 2.9610	15.8700
 2.9630	15.7030
 2.9650	16.8500
 2.9660	17.9900
 2.9680	17.1680
 2.9700	16.2320
 2.9720	16.9640
 2.9730	17.8960
 2.9750	16.8990
 2.9770	15.3550
 2.9780	14.7530
 2.9800	15.0130
 2.9820	15.0610
 2.9840	15.8140
 2.9850	16.6590
 2.9870	16.5280
 2.9890	16.8060
 2.9900	17.9080
 2.9920	17.2130
 2.9940	15.1760
 2.9960	13.9800
 2.9970	15.8390
 2.9990	18.9040
 3.0010	17.8890
 3.0030	16.9570
 3.0040	16.6280
 3.0060	16.1360
 3.0080	16.1580
 3.0100	15.9530
 3.0110	15.7620
 3.0130	16.6980
 3.0150	16.4850
 3.0170	15.9940
 3.0180	15.8460
 3.0200	15.6990
 3.0220	15.6480
 3.0240	15.2980
 3.0250	15.2250
 3.0270	15.4430
 3.0290	15.9570
 3.0310	16.0230
 3.0320	16.0470
 3.0340	15.4410
 3.0360	15.3710
 3.0380	16.8260
 3.0400	16.9180
 3.0410	15.3480
 3.0430	15.1690
 3.0450	14.7430
 3.0470	14.9890
 3.0480	16.4170
 3.0500	14.4140
 3.0520	11.3850
 3.0540	12.2420
 3.0560	13.3390
 3.0570	14.4640
 3.0590	13.8840
 3.0610	14.2690
 3.0630	13.3990
 3.0650	11.3440
 3.0660	12.7440
 3.0680	15.7800
 3.0700	17.0770
 3.0720	16.4080
 3.0740	16.0320
 3.0760	15.7310
 3.0770	15.6970
 3.0790	15.3100
 3.0810	15.4300
 3.0830	15.6460
 3.0850	15.8130
 3.0870	15.8620
 3.0880	15.9630
 3.0900	15.6290
 3.0920	15.7990
 3.0940	15.8130
 3.0960	15.8660
 3.0980	15.6370
 3.0990	15.6670
 3.1010	15.5520
 3.1030	15.2480
 3.1050	15.3550
 3.1070	15.5680
 3.1090	15.4140
 3.1110	15.4820
 3.1120	14.7640
 3.1140	14.8400
 3.1160	15.3990
 3.1180	15.9060
 3.1200	15.3610
 3.1220	14.5340
 3.1240	14.9600
 3.1260	15.4660
 3.1270	15.5730
 3.1290	15.5430
 3.1310	15.5340
 3.1330	15.9240
 3.1350	15.5600
 3.1370	15.0330
 3.1390	14.4010
 3.1410	14.4440
 3.1430	14.7880
 3.1450	14.7640
 3.1460	14.1510
 3.1480	15.7400
 3.1500	15.5990
 3.1520	14.0520
 3.1540	13.3970
 3.1560	14.7890
 3.1580	15.8180
 3.1600	15.7910
 3.1620	15.2290
 3.1640	13.7910
 3.1660	14.3080
 3.1680	14.2850
 3.1700	13.5860
 3.1710	13.7630
 3.1730	16.5970
 3.1750	18.1980
 3.1770	17.8320
 3.1790	15.5490
 3.1810	13.0120
 3.1830	15.1810
 3.1850	17.0800
 3.1870	16.2330
 3.1890	15.9010
 3.1910	15.3040
 3.1930	14.9550
 3.1950	15.4160
 3.1970	16.0510
 3.1990	15.8390
 3.2010	15.3860
 3.2030	15.1490
 3.2050	15.1770
 3.2070	15.0880
 3.2090	15.0360
 3.2110	14.9950
 3.2130	15.3230
 3.2150	15.4160
 3.2170	15.4110
 3.2190	15.4400
 3.2210	15.3940
 3.2230	15.2440
 3.2250	15.2730
 3.2270	15.3820
 3.2290	15.5040
 3.2310	15.5190
 3.2330	15.2870
 3.2350	15.3770
 3.2370	15.4170
 3.2390	15.2680
 3.2410	14.9390
 3.2430	14.8230
 3.2450	14.8250
 3.2470	15.0540
 3.2490	15.3470
 3.2510	15.4140
 3.2530	15.2800
 3.2550	15.2380
 3.2570	15.1880
 3.2590	15.2230
 3.2610	15.2240
 3.2630	15.1750
 3.2650	15.2120
 3.2670	15.0920
 3.2690	15.1260
 3.2720	15.2280
 3.2740	15.2540
 3.2760	15.2090
 3.2780	15.1160
 3.2800	14.9080
 3.2820	14.8460
 3.2840	15.0400
 3.2860	15.0370
 3.2880	14.9760
 3.2900	15.2950
 3.2920	15.4070
 3.2940	15.0670
 3.2960	14.9850
 3.2990	15.1210
 3.3010	15.2570
 3.3030	15.1970
 3.3050	15.0840
 3.3070	15.0400
 3.3090	14.8520
 3.3110	14.8160
 3.3130	14.7930
 3.3150	14.9090
 3.3180	15.0580
 3.3200	14.9990
 3.3220	15.0310
 3.3240	15.1040
 3.3260	15.0760
 3.3280	15.1490
 3.3300	15.2660
 3.3330	15.0680
 3.3350	14.9530
 3.3370	14.8600
 3.3390	14.8660
 3.3410	14.8530
 3.3430	14.7650
 3.3450	14.7980
 3.3480	15.1080
 3.3500	15.2600
 3.3520	15.1170
 3.3540	15.0690
 3.3560	15.1450
 3.3580	15.1800
 3.3610	15.1660
 3.3630	14.9990
 3.3650	14.9090
 3.3670	14.7680
 3.3690	14.6200
 3.3720	14.6080
 3.3740	14.7270
 3.3760	14.7710
 3.3780	14.8240
 3.3800	14.8590
 3.3830	14.9900
 3.3850	15.0520
 3.3870	15.0990
 3.3890	15.0950
 3.3910	15.1490
 3.3940	14.8910
 3.3960	14.6980
 3.3980	14.6690
 3.4000	14.7780
 3.4020	14.7710
 3.4050	14.8380
 3.4070	14.7420
 3.4090	14.6980
 3.4110	14.6970
 3.4140	14.6650
 3.4160	14.7460
 3.4180	14.8840
 3.4200	15.2810
 3.4230	15.8480
 3.4250	16.3960
 3.4270	17.1690
 3.4290	17.5460
 3.4320	17.5520
 3.4340	17.3250
 3.4360	17.0380
 3.4390	16.7590
 3.4410	16.3970
 3.4430	16.3140
 3.4450	16.5350
 3.4480	16.6100
 3.4500	16.5410
 3.4520	16.4840
 3.4550	16.4380
 3.4570	16.0220
 3.4590	15.8790
 3.4620	15.9960
 3.4640	16.1130
 3.4660	16.2920
 3.4680	16.3760
 3.4710	16.2310
 3.4730	16.0890
 3.4750	15.9860
 3.4780	15.8620
 3.4800	15.8010
 3.4820	15.7480
 3.4850	15.5380
 3.4870	15.5190
 3.4890	15.5520
 3.4920	15.5530
 3.4940	15.5480
 3.4970	15.4440
 3.4990	15.4250
 3.5010	15.3920
 3.5040	15.2580
 3.5060	15.5580
 3.5080	16.2430
 3.5110	17.0660
 3.5130	17.4590
 3.5160	17.3510
 3.5180	17.1560
 3.5200	16.9800
 3.5230	16.7140
 3.5250	16.5260
 3.5270	16.6390
 3.5300	16.6370
 3.5320	16.3510
 3.5350	16.1520
 3.5370	16.1680
 3.5400	16.1950
 3.5420	16.1660
 3.5440	16.1620
 3.5470	16.0820
 3.5490	15.9980
 3.5520	16.0320
 3.5540	15.9130
 3.5570	15.8650
 3.5590	16.1020
 3.5610	16.0500
 3.5640	15.9380
 3.5660	16.0610
 3.5690	16.0770
 3.5710	16.0020
 3.5740	16.0040
 3.5760	16.0730
 3.5790	15.9670
 3.5810	15.7360
 3.5840	15.8790
 3.5860	15.9680
 3.5890	15.7220
 3.5910	15.5420
 3.5930	15.6880
 3.5960	15.8640
 3.5980	15.8960
 3.6010	16.0810
 3.6030	16.0310
 3.6060	15.7170
 3.6080	15.7770
 3.6110	15.8390
 3.6140	15.9340
 3.6160	15.8580
 3.6190	15.7460
 3.6210	15.7220
 3.6240	15.7620
 3.6260	15.8040
 3.6290	15.7030
 3.6310	15.4630
 3.6340	15.4290
 3.6360	15.6780
 3.6390	15.8190
 3.6410	15.8140
 3.6440	15.9080
 3.6470	15.8440
 3.6490	15.7700
 3.6520	15.8870
 3.6540	15.8050
 3.6570	15.7020
 3.6590	15.7170
 3.6620	15.6810
 3.6650	15.7090
 3.6670	15.9010
 3.6700	15.9560
 3.6720	15.7940
 3.6750	15.7120
 3.6780	15.7510
 3.6800	15.8150
 3.6830	15.7730
 3.6850	15.8700
 3.6880	15.8180
 3.6910	15.7560
 3.6930	15.8280
 3.6960	15.8080
 3.6990	15.8360
 3.7010	15.8580
 3.7040	15.7760
 3.7060	15.7010
 3.7090	15.7650
 3.7120	15.8540
 3.7140	15.7710
 3.7170	15.6480
 3.7200	15.6710
 3.7220	15.8070
 3.7250	16.0580
 3.7280	16.1180
 3.7300	15.9410
 3.7330	15.8120
 3.7360	15.9040
 3.7390	16.0470
 3.7410	15.8580
 3.7440	15.7010
 3.7470	15.9000
 3.7490	15.9550
 3.7520	15.9120
 3.7550	16.1420
 3.7580	16.1200
 3.7600	16.0250
 3.7630	15.9540
 3.7660	15.9580
 3.7680	15.9350
 3.7710	15.8890
 3.7740	15.8730
 3.7770	15.9140
 3.7790	16.0260
 3.7820	16.0290
 3.7850	16.0370
 3.7880	16.1350
 3.7900	15.9960
 3.7930	16.0180
 3.7960	16.0780
 3.7990	16.0270
 3.8020	16.0140
 3.8040	16.0950
 3.8070	15.9630
 3.8100	15.8820
 3.8130	16.0980
 3.8160	16.1510
 3.8180	15.9230
 3.8210	15.7790
 3.8240	15.9970
 3.8270	16.1570
 3.8300	16.2370
 3.8330	16.2410
 3.8350	16.1210
 3.8380	15.9960
 3.8410	15.8620
 3.8440	15.8810
 3.8470	16.0220
 3.8500	16.0360
 3.8520	16.1440
 3.8550	16.2500
 3.8580	16.1610
 3.8610	16.2350
 3.8640	16.3200
 3.8670	16.3520
 3.8700	16.2460
 3.8730	16.0720
 3.8750	16.0680
 3.8780	16.0800
 3.8810	16.0690
 3.8840	16.0860
 3.8870	16.0650
 3.8900	16.0760
 3.8930	16.0100
 3.8960	15.9330
 3.8990	16.0600
 3.9020	16.2040
 3.9050	16.1330
 3.9080	16.1300
 3.9110	16.2320
 3.9140	16.2920
 3.9160	16.2050
 3.9190	16.2240
 3.9220	16.2960
 3.9250	16.2780
 3.9280	16.1970
 3.9310	16.1570
 3.9340	16.2070
 3.9370	16.2360
 3.9400	16.2790
 3.9430	16.3850
 3.9460	16.3580
 3.9490	16.3120
 3.9520	16.2900
 3.9550	16.2620
 3.9580	16.1720
 3.9610	16.2290
 3.9640	16.2610
 3.9670	16.2540
 3.9700	16.2780
 3.9730	16.3670
 3.9770	16.3540
 3.9800	16.2690
 3.9830	16.2300
 3.9860	16.3210
 3.9890	16.3750
 3.9920	16.4140
 3.9950	16.4120
 3.9980	16.3200
 4.0010	16.2240
 4.0040	16.2640
 4.0070	16.4060
 4.0100	16.4300
 4.0130	16.2660
 4.0170	16.1460
 4.0200	16.1740
 4.0230	16.2640
 4.0260	16.3280
 4.0290	16.3000
 4.0320	16.1730
 4.0350	16.1450
 4.0380	16.1280
 4.0420	16.1640
 4.0450	16.2000
 4.0480	16.1440
 4.0510	16.1470
 4.0540	16.1490
 4.0570	16.0110
 4.0610	15.9040
 4.0640	15.9610
 4.0670	16.0340
 4.0700	16.0200
 4.0730	16.0950
 4.0770	16.2500
 4.0800	16.3200
 4.0830	16.1470
 4.0860	16.0460
 4.0890	16.0800
 4.0930	16.1480
 4.0960	16.1290
 4.0990	16.0630
 4.1020	16.0130
 4.1060	16.0520
 4.1090	16.3090
 4.1120	16.3280
 4.1150	16.1450
 4.1190	16.0840
 4.1220	16.0490
 4.1250	16.1470
 4.1280	16.1990
 4.1320	16.1210
 4.1350	16.0620
 4.1380	15.9900
 4.1420	15.8960
 4.1450	15.9510
 4.1480	16.0070
 4.1520	16.0830
 4.1550	16.1300
 4.1580	16.1470
 4.1620	15.9890
 4.1650	16.0100
 4.1680	16.1630
 4.1720	16.1420
 4.1750	16.0240
 4.1780	15.9760
 4.1820	16.0190
 4.1850	16.1190
 4.1890	16.0020
 4.1920	16.0150
 4.1950	16.1410
 4.1990	16.2620
 4.2020	16.3230
 4.2060	16.4980
 4.2090	16.6670
 4.2120	16.6650
 4.2160	16.7950
 4.2190	17.0520
 4.2230	17.2790
 4.2260	17.5300
 4.2300	17.4240
 4.2330	17.4150
 4.2360	17.3270
 4.2400	17.5400
 4.2430	17.7750
 4.2470	17.4290
 4.2500	17.0420
 4.2540	16.7240
 4.2570	16.5870
 4.2610	16.8680
 4.2640	17.1530
 4.2680	17.0760
 4.2710	17.0340
 4.2750	17.1500
 4.2780	17.1360
 4.2820	17.0900
 4.2850	16.8950
 4.2890	16.7970
 4.2930	16.7150
 4.2960	16.7040
 4.3000	16.7560
 4.3030	16.9870
 4.3070	16.9280
 4.3100	16.6460
 4.3140	16.4050
 4.3180	16.3560
 4.3210	16.3970
 4.3250	16.2910
 4.3280	16.1860
 4.3320	16.1690
 4.3360	16.1780
 4.3390	16.0940
 4.3430	15.9960
 4.3470	16.0380
 4.3500	16.0520
 4.3540	16.0310
 4.3570	15.9200
 4.3610	15.8430
 4.3650	15.8520
 4.3680	15.8870
 4.3720	15.8050
 4.3760	15.7690
 4.3800	15.8730
 4.3830	15.8620
 4.3870	15.8020
 4.3910	15.7380
 4.3940	15.6900
 4.3980	15.7750
 4.4020	15.8350
 4.4060	15.7640
 4.4090	15.7200
 4.4130	15.7860
 4.4170	15.8970
 4.4210	15.7990
 4.4240	15.7130
 4.4280	15.7200
 4.4320	15.6920
 4.4360	15.7550
 4.4400	15.7290
 4.4430	15.5810
 4.4470	15.6660
 4.4510	15.7660
 4.4550	15.7380
 4.4590	15.7470
 4.4620	15.8140
 4.4660	15.7440
 4.4700	15.6850
 4.4740	15.6330
 4.4780	15.5680
 4.4820	15.5810
 4.4860	15.6960
 4.4900	15.6690
 4.4930	15.6330
 4.4970	15.6260
 4.5010	15.5510
 4.5050	15.5220
 4.5090	15.5470
 4.5130	15.4470
 4.5170	15.5330
 4.5210	15.6680
 4.5250	15.6500
 4.5290	15.6410
 4.5330	15.5770
 4.5370	15.5010
 4.5410	15.5660
 4.5450	15.6200
 4.5490	15.6230
 4.5530	15.5020
 4.5570	15.4680
 4.5610	15.5850
 4.5650	15.6900
 4.5690	15.6290
 4.5730	15.6120
 4.5770	15.6400
 4.5810	15.5600
 4.5850	15.5220
 4.5890	15.6200
 4.5930	15.6270
 4.5970	15.5330
 4.6010	15.5340
 4.6050	15.5660
 4.6090	15.6040
 4.6130	15.5870
 4.6170	15.6480
 4.6220	15.4690
 4.6260	15.0660
 4.6300	15.1100
 4.6340	15.4970
 4.6380	15.6350
 4.6420	15.5260
 4.6460	15.5220
 4.6510	15.4630
 4.6550	15.5150
 4.6590	15.5470
 4.6630	15.5970
 4.6670	15.5870
 4.6720	15.5460
 4.6760	15.5090
 4.6800	15.4930
 4.6840	15.6100
 4.6880	15.6190
 4.6930	15.5040
 4.6970	15.5090
 4.7010	15.5990
 4.7050	15.6290
 4.7100	15.5230
 4.7140	15.5110
 4.7180	15.5480
 4.7230	15.5150
 4.7270	15.4820
 4.7310	15.5530
 4.7360	15.5520
 4.7400	15.5830
 4.7440	15.6250
 4.7490	15.5690
 4.7530	15.4250
 4.7570	15.4140
 4.7620	15.5310
 4.7660	15.6870
 4.7700	15.6660
 4.7750	15.6060
 4.7790	15.5970
 4.7840	15.6420
 4.7880	15.5360
 4.7920	15.6550
 4.7970	15.6740
 4.8010	15.5990
 4.8060	15.5250
 4.8100	15.5810
 4.8150	15.5100
 4.8190	15.4680
 4.8240	15.5110
 4.8280	15.5930
 4.8330	15.6770
 4.8370	15.6660
 4.8420	15.6320
 4.8460	15.6830
 4.8510	15.6880
 4.8550	15.7310
 4.8600	15.7810
 4.8640	15.7830
 4.8690	15.7460
 4.8730	15.7120
 4.8780	15.6390
 4.8830	15.6390
 4.8870	15.7580
 4.8920	15.7070
 4.8960	15.5440
 4.9010	15.5530
 4.9060	15.6460
 4.9100	15.6870
 4.9150	15.6150
 4.9200	15.7000
 4.9240	15.7140
 4.9290	15.6490
 4.9340	15.6350
 4.9380	15.6530
 4.9430	15.6680
 4.9480	15.6850
 4.9530	15.6650
 4.9570	15.6130
 4.9620	15.6260
 4.9670	15.7030
 4.9720	15.7320
 4.9760	15.7360
 4.9810	15.7220
 4.9860	15.7570
 4.9910	15.7540
 4.9960	15.8540
 5.0000	15.8450
 5.0050	15.8040
 5.0100	15.8530
 5.0150	15.8770
 5.0200	15.8130
 5.0250	15.8320
 5.0290	15.8500
 5.0340	15.8250
 5.0390	15.7870
 5.0440	15.9350
 5.0490	16.0140
 5.0540	15.9850
 5.0590	15.9510
 5.0640	15.9080
 5.0690	15.8800
 5.0740	15.9280
 5.0790	15.9310
 5.0840	15.8770
 5.0890	15.8510
 5.0940	15.8660
 5.0990	15.8810
 5.1040	15.9150
 5.1090	15.9010
 5.1140	15.9630
 5.1190	15.9510
 5.1240	15.9360
 5.1290	15.9580
 5.1340	15.9670
 5.1390	15.9860
 5.1440	15.9840
 5.1490	15.9450
 5.1540	15.9800
 5.1600	15.9040
 5.1650	15.9820
 5.1700	16.0530
 5.1750	16.0490
 5.1800	16.0430
 5.1850	16.0900
 5.1910	16.0070
 5.1960	15.9240
 5.2010	15.9910
 5.2060	16.0970
 5.2110	16.1570
 5.2170	16.1620
 5.2220	16.0140
 5.2270	15.9860
 5.2320	16.0780
 5.2380	16.1480
 5.2430	16.0840
 5.2480	16.1310
 5.2540	16.0810
 5.2590	15.9740
 5.2640	15.9670
 5.2700	15.9940
 5.2750	15.8770
 5.2800	15.9280
 5.2860	16.0590
 5.2910	16.1100
 5.2970	16.1620
 5.3020	16.1440
 5.3070	16.0530
 5.3130	16.1040
 5.3180	16.1170
 5.3240	16.0990
 5.3290	16.0020
 5.3350	15.8920
 5.3400	15.9370
 5.3460	16.1100
 5.3510	16.2160
 5.3570	16.1790
 5.3620	16.0830
 5.3680	16.0780
 5.3730	16.0040
 5.3790	15.9520
 5.3850	15.9710
 5.3900	16.0410
 5.3960	16.0060
 5.4010	16.0130
 5.4070	16.0120
 5.4130	16.0330
 5.4180	15.9830
 5.4240	15.9980
 5.4300	15.9900
 5.4350	16.0120
 5.4410	15.9280
 5.4470	15.9170
 5.4530	15.9340
 5.4580	15.9610
 5.4640	15.9940
 5.4700	16.0120
 5.4760	16.0760
 5.4810	16.1690
 5.4870	16.0250
 5.4930	16.0090
 5.4990	16.0290
 5.5050	15.9820
 5.5110	15.8470
 5.5160	15.8020
 5.5220	15.8600
 5.5280	15.9270
 5.5340	15.8500
 5.5400	15.7990
 5.5460	15.7340
 5.5520	15.7280
 5.5580	15.7630
 5.5640	15.8440
 5.5700	15.7600
 5.5760	15.6850
 5.5820	15.6340
 5.5880	15.6930
 5.5940	15.7280
 5.6000	15.7120
 5.6060	15.6790
 5.6120	15.7520
 5.6180	15.8080
 5.6240	15.7730
 5.6300	15.6590
 5.6360	15.5840
 5.6420	15.5460
 5.6490	15.6160
 5.6550	15.7080
 5.6610	15.7420
 5.6670	15.5350
 5.6730	15.5470
 5.6800	15.6630
 5.6860	15.6580
 5.6920	15.5340
 5.6980	15.5430
 5.7040	15.5620
 5.7110	15.5800
 5.7170	15.6000
 5.7230	15.6660
 5.7300	15.5740
 5.7360	15.4580
 5.7420	15.2380
 5.7490	15.2930
 5.7550	15.4140
 5.7620	15.5640
 5.7680	15.6220
 5.7740	15.7190
 5.7810	15.7270
 5.7870	15.7590
 5.7940	15.6940
 5.8000	15.6430
 5.8070	15.6920
 5.8130	15.7820
 5.8200	15.7730
 5.8260	15.8340
 5.8330	15.8430
 5.8390	15.9520
 5.8460	16.1030
 5.8530	16.2000
 5.8590	16.1710
 5.8660	16.1320
 5.8720	16.1390
 5.8790	16.3430
 5.8860	16.3740
 5.8920	16.5150
 5.8990	16.6730
 5.9060	16.6610
 5.9130	16.6620
 5.9190	16.8180
 5.9260	16.8850
 5.9330	16.9720
 5.9400	16.9580
 5.9470	17.0610
 5.9530	17.0660
 5.9600	17.0320
 5.9670	17.1010
 5.9740	17.2530
 5.9810	17.2310
 5.9880	17.2620
 5.9950	17.2760
 6.0020	17.4200
 6.0090	17.3690
 6.0160	17.4050
 6.0230	17.4910
 6.0300	17.4570
 6.0370	17.3090
 6.0440	17.4750
 6.0510	17.6210
 6.0580	17.7660
 6.0650	17.8140
 6.0720	17.9540
 6.0790	18.0710
 6.0860	18.1820
 6.0930	18.1050
 6.1000	18.2180
 6.1080	18.3050
 6.1150	18.4080
 6.1220	18.5940
 6.1290	18.6960
 6.1370	18.6490
 6.1440	18.8290
 6.1510	19.0570
 6.1580	19.0800
 6.1660	19.2240
 6.1730	19.7350
 6.1800	20.1250
 6.1880	20.2750
 6.1950	20.0030
 6.2030	19.6160
 6.2100	19.2650
 6.2170	19.0340
 6.2250	18.7750
 6.2320	18.2940
 6.2400	17.5850
 6.2470	17.3140
 6.2550	17.4170
 6.2630	17.2260
 6.2700	16.7530
 6.2780	16.6820
 6.2850	16.8260
 6.2930	16.8520
 6.3010	16.7590
 6.3080	16.7540
 6.3160	16.6210
 6.3240	16.6440
 6.3310	16.7330
 6.3390	16.8380
 6.3470	16.6340
 6.3550	16.5720
 6.3620	16.5430
 6.3700	16.6280
 6.3780	16.4610
 6.3860	16.4050
 6.3940	16.4540
 6.4020	16.5270
 6.4100	16.5630
 6.4180	16.5830
 6.4260	16.4630
 6.4330	16.4180
 6.4410	16.3440
 6.4490	16.4380
 6.4580	16.4300
 6.4660	16.5080
 6.4740	16.4250
 6.4820	16.2810
 6.4900	16.2260
 6.4980	16.2220
 6.5060	16.1750
 6.5140	16.2430
 6.5230	16.1740
 6.5310	16.2610
 6.5390	16.2870
 6.5470	16.2930
 6.5550	16.1560
 6.5640	16.1200
 6.5720	16.0580
 6.5800	16.0300
 6.5890	16.0350
 6.5970	16.1840
 6.6060	16.1570
 6.6140	16.1540
 6.6220	16.1330
 6.6310	16.2620
 6.6390	16.2460
 6.6480	16.2690
 6.6560	16.2040
 6.6650	16.2330
 6.6740	16.1480
 6.6820	16.1570
 6.6910	16.1660
 6.6990	16.1710
 6.7080	16.1970
 6.7170	16.1860
 6.7260	16.0590
 6.7340	16.1100
 6.7430	16.2110
 6.7520	16.1710
 6.7610	16.0350
 6.7690	16.1180
 6.7780	16.1750
 6.7870	16.5100
 6.7960	16.6300
 6.8050	16.4960
 6.8140	16.3460
 6.8230	16.5020
 6.8320	16.8210
 6.8410	17.0610
 6.8500	17.0360
 6.8590	17.0780
 6.8680	17.0350
 6.8770	16.9470
 6.8860	16.8190
 6.8950	16.9490
 6.9050	16.9760
 6.9140	17.0010
 6.9230	16.9230
 6.9320	16.9610
 6.9420	16.8740
 6.9510	16.8580
 6.9600	16.9350
 6.9700	16.9910
 6.9790	16.8830
 6.9880	16.9240
 6.9980	16.9820
 7.0070	17.0280
 7.0170	16.9560
 7.0260	17.0270
 7.0360	17.0560
 7.0450	17.1080
 7.0550	17.0920
 7.0650	17.1070
 7.0740	17.0870
 7.0840	17.2820
 7.0940	17.1960
 7.1030	17.1090
 7.1130	17.0330
 7.1230	17.0410
 7.1330	17.0480
 7.1420	17.2080
 7.1520	17.1700
 7.1620	17.0690
 7.1720	16.9660
 7.1820	17.1240
 7.1920	17.1230
 7.2020	17.1570
 7.2120	17.0880
 7.2220	17.1440
 7.2320	17.0910
 7.2420	17.0750
 7.2520	16.9630
 7.2620	16.9710
 7.2730	17.0140
 7.2830	17.0140
 7.2930	16.9590
 7.3030	17.0010
 7.3140	16.9190
 7.3240	16.9800
 7.3340	16.9270
 7.3450	16.9380
 7.3550	16.8730
 7.3660	16.9900
 7.3760	16.9050
 7.3870	16.8790
 7.3970	16.9700
 7.4080	17.0660
 7.4180	17.0270
 7.4290	17.1330
 7.4400	17.0510
 7.4500	17.1350
 7.4610	17.1630
 7.4720	17.1490
 7.4830	17.1270
 7.4930	17.2330
 7.5040	17.1540
 7.5150	17.0400
 7.5260	16.9950
 7.5370	17.1390
 7.5480	17.0530
 7.5590	17.0740
 7.5700	16.9330
 7.5810	16.8030
 7.5920	16.6220
 7.6030	16.4090
 7.6140	15.9510
 7.6260	15.8090
 7.6370	15.7370
 7.6480	15.9290
 7.6590	15.9580
 7.6710	16.0610
 7.6820	16.2070
 7.6930	16.3200
 7.7050	16.1870
 7.7160	16.1700
 7.7280	16.1030
 7.7390	16.2330
 7.7510	16.2090
 7.7630	16.2670
 7.7740	16.2470
 7.7860	16.2750
 7.7980	16.1520
 7.8090	16.2030
 7.8210	16.2920
 7.8330	16.3600
 7.8450	16.1730
 7.8570	16.2350
 7.8690	16.2660
 7.8810	16.3670
 7.8930	16.3320
 7.9050	16.4150
 7.9170	16.3240
 7.9290	16.4140
 7.9410	16.3870
 7.9530	16.5100
 7.9650	16.5180
 7.9780	16.5990
 7.9900	16.5320
 8.0020	16.4780
 8.0150	16.3450
 8.0270	16.5320
 8.0390	16.5540
 8.0520	16.5910
 8.0640	16.4620
 8.0770	16.5290
 8.0900	16.4340
 8.1020	16.5850
 8.1150	16.6260
 8.1280	16.7560
 8.1400	16.6560
 8.1530	16.7110
 8.1660	16.7500
 8.1790	16.8590
 8.1920	16.7180
 8.2050	16.6270
 8.2180	16.3850
 8.2310	16.5290
 8.2440	16.6780
 8.2570	16.8160
 8.2700	16.6750
 8.2830	16.8370
 8.2970	16.8140
 8.3100	16.8910
 8.3230	16.9410
 8.3370	17.0710
 8.3500	17.0660
 8.3640	17.1960
 8.3770	17.0530
 8.3910	17.0040
 8.4040	17.0460
 8.4180	17.4330
 8.4320	17.2410
 8.4450	17.2020
 8.4590	17.3380
 8.4730	17.7390
 8.4870	17.6750
 8.5010	17.6250
 8.5150	17.7000
 8.5290	17.9150
 8.5430	17.7250
 8.5570	17.8320
 8.5710	18.0760
 8.5850	18.2080
 8.5990	17.9600
 8.6140	17.9880
 8.6280	17.7830
 8.6420	17.9210
 8.6570	18.0680
 8.6710	17.8790
 8.6860	17.6740
 8.7000	17.8070
 8.7150	17.8100
 8.7300	18.1140
 8.7440	18.0770
 8.7590	18.1300
 8.7740	18.0670
 8.7890	18.2040
 8.8040	18.1940
 8.8190	18.3670
 8.8340	18.3580
 8.8490	18.4940
 8.8640	18.4810
 8.8790	18.5110
 8.8940	18.2270
 8.9100	18.1610
 8.9250	18.1050
 8.9400	18.2250
 8.9560	18.0890
 8.9710	18.3360
 8.9870	18.2120
 9.0020	18.0950
 9.0180	18.0160
 9.0340	18.0900
 9.0500	17.9880
 9.0650	18.1020
 9.0810	18.0320
 9.0970	18.1610
 9.1130	18.0120
 9.1290	18.0020
 9.1450	17.9050
 9.1610	18.1590
 9.1780	18.2040
 9.1940	18.3290
 9.2100	18.1310
 9.2270	18.1720
 9.2430	17.8570
 9.2600	18.0910
 9.2760	18.2460
 9.2930	18.2900
 9.3090	18.0990
 9.3260	18.1120
 9.3430	17.7850
 9.3600	17.7760
 9.3770	17.7450
 9.3940	17.9380
 9.4110	17.6640
 9.4280	17.6710
 9.4450	17.5630
 9.4620	17.4700
 9.4800	17.3410
 9.4970	17.6650
 9.5140	17.4910
 9.5320	17.4580
 9.5500	17.3450
 9.5670	17.6650
 9.5850	17.6790
 9.6030	17.8280
 9.6200	17.7070
 9.6380	17.7620
 9.6560	17.5870
 9.6740	17.4340
 9.6920	17.0820
 9.7100	17.1140
 9.7290	17.0710
 9.7470	17.2270
 9.7650	17.0300
 9.7840	16.9510
 9.8020	16.8800
 9.8210	17.0390
 9.8390	16.9190
 9.8580	17.1700
 9.8770	17.1380
 9.8960	17.1860
 9.9150	16.9590
 9.9340	16.9660
 9.9530	16.7590
 9.9720	16.9450
 9.9910	16.7930
10.0100	16.9570
10.0300	17.1080
10.0490	17.3730
10.0690	17.2390
10.0880	17.3280
10.1080	17.3600
10.1280	17.6650
10.1480	17.5080
10.1670	17.6110
10.1870	17.4830
10.2070	17.3020
10.2280	17.0360
10.2480	17.2010
10.2680	17.2290
10.2890	17.5120
10.3090	17.5710
10.3300	17.6130
10.3500	17.5380
10.3710	17.6560
10.3920	17.5050
10.4120	17.5810
10.4330	17.6550
10.4540	17.8800
10.4760	17.5520
10.4970	17.5560
10.5180	17.4870
10.5390	17.7930
10.5610	17.7860
10.5820	17.8560
10.6040	17.7210
10.6260	17.8260
10.6480	17.7970
10.6700	18.0530
10.6920	18.0450
10.7140	18.3100
10.7360	18.1550
10.7580	18.0320
10.7800	18.0900
10.8030	18.3190
10.8250	18.0080
10.8480	18.2590
10.8710	18.3310
10.8940	18.4620
10.9170	18.1640
10.9400	18.1880
10.9630	18.0950
10.9860	18.3130
11.0090	18.1980
11.0330	18.2470
11.0560	17.9970
11.0800	18.1910
11.1040	18.0440
11.1270	18.1860
11.1510	18.0080
11.1750	18.1660
11.2000	18.1910
11.2240	18.3580
11.2480	18.3310
11.2730	18.6220
11.2970	18.2880
11.3220	18.2410
11.3470	18.1030
11.3720	18.1920
11.3970	18.1910
11.4220	18.2220
11.4470	18.0710
11.4720	18.3780
11.4980	18.2440
11.5230	18.1090
11.5490	18.0310
11.5750	18.5110
11.6000	18.4690
11.6260	18.3310
11.6530	18.0070
11.6790	17.9820
11.7050	17.8550
11.7320	18.2900
11.7580	18.3000
11.7850	18.4390
11.8120	17.9640
11.8390	17.9900
11.8660	17.8780
11.8930	17.7760
11.9200	17.9250
11.9480	18.3180
11.9760	17.9320
12.0030	17.8410
12.0310	17.5390
12.0590	17.9130
12.0870	18.0350
12.1150	18.2760
12.1440	18.2500
12.1720	18.3430
12.2010	17.9790
12.2300	18.1710
12.2590	18.0080
12.2880	17.9350
12.3170	17.7030
12.3460	18.0200
12.3760	17.8350
12.4050	17.9050
12.4350	17.8150
12.4650	17.9450
12.4950	17.6720
12.5250	17.8350
12.5550	17.5190
12.5860	17.6220
12.6170	17.4370
12.6470	17.6110
12.6780	17.4590
12.7090	17.4980
12.7410	17.0660
12.7720	17.1150
12.8030	16.7700
12.8350	17.1090
12.8670	17.0990
12.8990	17.1980
12.9310	16.9800
12.9640	17.0780
12.9960	16.6800
13.0290	16.8260
13.0610	16.8420
13.0940	17.2760
13.1280	17.0520
13.1610	17.1850
13.1940	16.9010
13.2280	16.9310
13.2620	16.4430
13.2960	16.4240
13.3300	16.1950
13.3640	16.4430
13.3990	16.2760
13.4340	16.6320
13.4690	16.2560
13.5040	16.0950
13.5390	15.9080
13.5740	16.1540
13.6100	15.8590
13.6460	16.2420
13.6820	15.9210
13.7180	16.1530
13.7540	16.0000
13.7910	16.2740
13.8280	15.7560
13.8650	16.3470
13.9020	16.5810
13.9390	16.8450
13.9770	16.5970
14.0150	16.6900
14.0530	16.1510
14.0910	16.1750
14.1290	15.9850
14.1680	16.5700
14.2070	16.4620
14.2460	16.6590
14.2850	16.2510
14.3240	16.2580
14.3640	15.7740
14.4040	16.3210
14.4440	15.6970
14.4840	15.8150
14.5250	15.7200
14.5660	16.7270
14.6070	15.8450
14.6480	15.6230
14.6900	15.1730
14.7310	16.0870
14.7730	15.6830
14.8150	15.6810
14.8580	15.0730
14.9010	15.2170
14.9440	12.1790
14.9870	12.4740
15.0300	14.8750
15.0740	15.9280
15.1180	15.1190
15.1620	15.7140
15.2060	15.1320
15.2510	15.3810
15.2960	14.6440
15.3410	15.0100
15.3870	14.6320
