Name: Quercus douglasii 3
Type: vegetation
Class: Tree
Genus: Quercus
Species: douglasii
Sample No.: VH178
Owner: UCSB
Wavelength Range: VSWIR
Origin: 34.7165; -120.0605; WGS84
Collection Date: 6/9/2013
Description: Samples were collected as part of the HyspIRI Airborne Campaign. 48 individual plants were sampled in three times in 2013 - spring  summer  and fall. The name of the sample includes a 1  2  or 3 which references a different individual of the species. Samples were taken to JPL and processed within 48 hours of collection. The same leaves were processed in the Nicolet and then measured using the ASD.
Measurement: Bidirectional reflectance
First Column: X
Second Column: Y
X Units: Wavelength (micrometers)
Y Units: Reflectance (percentage)
First X Value: 0.35
Last X Value: 2.5
Number of X Values: 2151
Additional Information: vegetation.tree.quercus.douglasii.vswir.vh178.ucsb.asd.ancillary.txt

 0.3500	 4.4420
 0.3510	 4.6610
 0.3520	 4.6300
 0.3530	 4.4390
 0.3540	 4.3120
 0.3550	 4.4330
 0.3560	 4.5090
 0.3570	 4.4830
 0.3580	 4.4320
 0.3590	 4.4140
 0.3600	 4.3770
 0.3610	 4.3280
 0.3620	 4.3460
 0.3630	 4.3640
 0.3640	 4.3430
 0.3650	 4.2860
 0.3660	 4.2640
 0.3670	 4.3240
 0.3680	 4.4000
 0.3690	 4.3730
 0.3700	 4.2980
 0.3710	 4.2660
 0.3720	 4.3210
 0.3730	 4.4210
 0.3740	 4.4080
 0.3750	 4.3760
 0.3760	 4.4370
 0.3770	 4.4150
 0.3780	 4.4210
 0.3790	 4.4530
 0.3800	 4.4140
 0.3810	 4.4280
 0.3820	 4.4330
 0.3830	 4.4020
 0.3840	 4.4600
 0.3850	 4.5160
 0.3860	 4.5280
 0.3870	 4.4940
 0.3880	 4.4650
 0.3890	 4.5150
 0.3900	 4.6110
 0.3910	 4.6100
 0.3920	 4.6490
 0.3930	 4.6840
 0.3940	 4.6740
 0.3950	 4.6590
 0.3960	 4.7260
 0.3970	 4.8120
 0.3980	 4.8090
 0.3990	 4.8120
 0.4000	 4.8380
 0.4010	 4.8870
 0.4020	 4.9380
 0.4030	 4.9960
 0.4040	 5.0480
 0.4050	 5.0850
 0.4060	 5.1540
 0.4070	 5.1940
 0.4080	 5.2110
 0.4090	 5.2410
 0.4100	 5.2760
 0.4110	 5.3200
 0.4120	 5.3740
 0.4130	 5.4260
 0.4140	 5.4890
 0.4150	 5.5460
 0.4160	 5.5820
 0.4170	 5.6480
 0.4180	 5.7040
 0.4190	 5.7400
 0.4200	 5.7760
 0.4210	 5.8150
 0.4220	 5.8530
 0.4230	 5.8980
 0.4240	 5.9450
 0.4250	 6.0020
 0.4260	 6.0630
 0.4270	 6.1050
 0.4280	 6.1410
 0.4290	 6.1670
 0.4300	 6.1950
 0.4310	 6.2390
 0.4320	 6.2790
 0.4330	 6.3240
 0.4340	 6.3800
 0.4350	 6.4170
 0.4360	 6.4400
 0.4370	 6.4570
 0.4380	 6.4790
 0.4390	 6.5070
 0.4400	 6.5280
 0.4410	 6.5390
 0.4420	 6.5550
 0.4430	 6.5810
 0.4440	 6.6130
 0.4450	 6.6360
 0.4460	 6.6570
 0.4470	 6.6770
 0.4480	 6.6930
 0.4490	 6.7080
 0.4500	 6.7290
 0.4510	 6.7470
 0.4520	 6.7560
 0.4530	 6.7690
 0.4540	 6.7890
 0.4550	 6.8150
 0.4560	 6.8220
 0.4570	 6.8300
 0.4580	 6.8400
 0.4590	 6.8500
 0.4600	 6.8430
 0.4610	 6.8470
 0.4620	 6.8590
 0.4630	 6.8640
 0.4640	 6.8780
 0.4650	 6.8940
 0.4660	 6.9030
 0.4670	 6.8990
 0.4680	 6.9030
 0.4690	 6.9080
 0.4700	 6.9080
 0.4710	 6.9200
 0.4720	 6.9250
 0.4730	 6.9190
 0.4740	 6.9320
 0.4750	 6.9350
 0.4760	 6.9390
 0.4770	 6.9440
 0.4780	 6.9530
 0.4790	 6.9520
 0.4800	 6.9500
 0.4810	 6.9620
 0.4820	 6.9690
 0.4830	 6.9750
 0.4840	 6.9810
 0.4850	 6.9800
 0.4860	 6.9880
 0.4870	 6.9990
 0.4880	 7.0070
 0.4890	 7.0120
 0.4900	 7.0190
 0.4910	 7.0300
 0.4920	 7.0450
 0.4930	 7.0560
 0.4940	 7.0650
 0.4950	 7.0720
 0.4960	 7.0830
 0.4970	 7.0950
 0.4980	 7.1120
 0.4990	 7.1370
 0.5000	 7.1650
 0.5010	 7.1910
 0.5020	 7.2140
 0.5030	 7.2300
 0.5040	 7.2620
 0.5050	 7.3020
 0.5060	 7.3450
 0.5070	 7.3900
 0.5080	 7.4380
 0.5090	 7.4880
 0.5100	 7.5540
 0.5110	 7.6320
 0.5120	 7.7170
 0.5130	 7.8080
 0.5140	 7.9120
 0.5150	 8.0210
 0.5160	 8.1420
 0.5170	 8.2810
 0.5180	 8.4150
 0.5190	 8.5610
 0.5200	 8.7250
 0.5210	 8.8980
 0.5220	 9.0710
 0.5230	 9.2450
 0.5240	 9.4220
 0.5250	 9.6090
 0.5260	 9.7840
 0.5270	 9.9480
 0.5280	10.1090
 0.5290	10.2630
 0.5300	10.4110
 0.5310	10.5520
 0.5320	10.6800
 0.5330	10.8030
 0.5340	10.9200
 0.5350	11.0280
 0.5360	11.1280
 0.5370	11.2210
 0.5380	11.3060
 0.5390	11.3880
 0.5400	11.4690
 0.5410	11.5500
 0.5420	11.6310
 0.5430	11.7110
 0.5440	11.7840
 0.5450	11.8500
 0.5460	11.9110
 0.5470	11.9580
 0.5480	12.0030
 0.5490	12.0490
 0.5500	12.0880
 0.5510	12.1210
 0.5520	12.1440
 0.5530	12.1560
 0.5540	12.1500
 0.5550	12.1320
 0.5560	12.1030
 0.5570	12.0620
 0.5580	12.0070
 0.5590	11.9400
 0.5600	11.8630
 0.5610	11.7760
 0.5620	11.6860
 0.5630	11.5920
 0.5640	11.4910
 0.5650	11.3840
 0.5660	11.2740
 0.5670	11.1630
 0.5680	11.0490
 0.5690	10.9250
 0.5700	10.7980
 0.5710	10.6740
 0.5720	10.5570
 0.5730	10.4400
 0.5740	10.3260
 0.5750	10.2240
 0.5760	10.1330
 0.5770	10.0500
 0.5780	 9.9690
 0.5790	 9.8980
 0.5800	 9.8290
 0.5810	 9.7590
 0.5820	 9.6900
 0.5830	 9.6320
 0.5840	 9.5780
 0.5850	 9.5260
 0.5860	 9.4780
 0.5870	 9.4310
 0.5880	 9.3850
 0.5890	 9.3410
 0.5900	 9.3040
 0.5910	 9.2730
 0.5920	 9.2510
 0.5930	 9.2360
 0.5940	 9.2250
 0.5950	 9.2110
 0.5960	 9.1970
 0.5970	 9.1780
 0.5980	 9.1620
 0.5990	 9.1470
 0.6000	 9.1220
 0.6010	 9.1040
 0.6020	 9.0760
 0.6030	 9.0390
 0.6040	 9.0000
 0.6050	 8.9610
 0.6060	 8.9110
 0.6070	 8.8560
 0.6080	 8.7960
 0.6090	 8.7420
 0.6100	 8.6980
 0.6110	 8.6540
 0.6120	 8.5940
 0.6130	 8.5230
 0.6140	 8.4580
 0.6150	 8.3990
 0.6160	 8.3500
 0.6170	 8.3030
 0.6180	 8.2580
 0.6190	 8.2250
 0.6200	 8.1940
 0.6210	 8.1620
 0.6220	 8.1390
 0.6230	 8.1180
 0.6240	 8.0970
 0.6250	 8.0810
 0.6260	 8.0690
 0.6270	 8.0580
 0.6280	 8.0480
 0.6290	 8.0400
 0.6300	 8.0380
 0.6310	 8.0360
 0.6320	 8.0300
 0.6330	 8.0210
 0.6340	 8.0140
 0.6350	 8.0010
 0.6360	 7.9810
 0.6370	 7.9640
 0.6380	 7.9420
 0.6390	 7.9110
 0.6400	 7.8780
 0.6410	 7.8430
 0.6420	 7.8110
 0.6430	 7.7760
 0.6440	 7.7380
 0.6450	 7.6950
 0.6460	 7.6590
 0.6470	 7.6260
 0.6480	 7.5910
 0.6490	 7.5580
 0.6500	 7.5280
 0.6510	 7.5000
 0.6520	 7.4720
 0.6530	 7.4470
 0.6540	 7.4260
 0.6550	 7.3950
 0.6560	 7.3640
 0.6570	 7.3350
 0.6580	 7.3040
 0.6590	 7.2710
 0.6600	 7.2440
 0.6610	 7.2150
 0.6620	 7.1880
 0.6630	 7.1660
 0.6640	 7.1450
 0.6650	 7.1260
 0.6660	 7.1090
 0.6670	 7.0980
 0.6680	 7.0890
 0.6690	 7.0810
 0.6700	 7.0820
 0.6710	 7.0830
 0.6720	 7.0840
 0.6730	 7.0880
 0.6740	 7.0940
 0.6750	 7.1060
 0.6760	 7.1110
 0.6770	 7.1290
 0.6780	 7.1440
 0.6790	 7.1590
 0.6800	 7.1740
 0.6810	 7.1930
 0.6820	 7.2170
 0.6830	 7.2460
 0.6840	 7.2810
 0.6850	 7.3180
 0.6860	 7.3630
 0.6870	 7.4190
 0.6880	 7.4870
 0.6890	 7.5760
 0.6900	 7.6960
 0.6910	 7.8500
 0.6920	 8.0460
 0.6930	 8.2930
 0.6940	 8.5920
 0.6950	 8.9620
 0.6960	 9.3960
 0.6970	 9.8950
 0.6980	10.4600
 0.6990	11.0950
 0.7000	11.7890
 0.7010	12.5330
 0.7020	13.3210
 0.7030	14.1490
 0.7040	15.0110
 0.7050	15.9000
 0.7060	16.8030
 0.7070	17.7230
 0.7080	18.6530
 0.7090	19.5870
 0.7100	20.5370
 0.7110	21.4940
 0.7120	22.4540
 0.7130	23.4120
 0.7140	24.3720
 0.7150	25.3350
 0.7160	26.2970
 0.7170	27.2510
 0.7180	28.2020
 0.7190	29.1470
 0.7200	30.0800
 0.7210	31.0020
 0.7220	31.9120
 0.7230	32.8060
 0.7240	33.6830
 0.7250	34.5370
 0.7260	35.3690
 0.7270	36.1780
 0.7280	36.9660
 0.7290	37.7220
 0.7300	38.4460
 0.7310	39.1440
 0.7320	39.8200
 0.7330	40.4690
 0.7340	41.0850
 0.7350	41.6690
 0.7360	42.2300
 0.7370	42.7660
 0.7380	43.2730
 0.7390	43.7520
 0.7400	44.2060
 0.7410	44.6360
 0.7420	45.0430
 0.7430	45.4210
 0.7440	45.7810
 0.7450	46.1210
 0.7460	46.4340
 0.7470	46.7270
 0.7480	47.0010
 0.7490	47.2560
 0.7500	47.5010
 0.7510	47.7210
 0.7520	47.9250
 0.7530	48.1240
 0.7540	48.3010
 0.7550	48.4640
 0.7560	48.6160
 0.7570	48.7560
 0.7580	48.8830
 0.7590	49.0070
 0.7600	49.1290
 0.7610	49.2300
 0.7620	49.3240
 0.7630	49.4160
 0.7640	49.5040
 0.7650	49.5830
 0.7660	49.6570
 0.7670	49.7280
 0.7680	49.7910
 0.7690	49.8540
 0.7700	49.9110
 0.7710	49.9620
 0.7720	50.0160
 0.7730	50.0670
 0.7740	50.1110
 0.7750	50.1510
 0.7760	50.1980
 0.7770	50.2460
 0.7780	50.2920
 0.7790	50.3300
 0.7800	50.3660
 0.7810	50.4040
 0.7820	50.4410
 0.7830	50.4770
 0.7840	50.5070
 0.7850	50.5390
 0.7860	50.5750
 0.7870	50.6120
 0.7880	50.6420
 0.7890	50.6690
 0.7900	50.6990
 0.7910	50.7220
 0.7920	50.7490
 0.7930	50.7780
 0.7940	50.7980
 0.7950	50.8230
 0.7960	50.8490
 0.7970	50.8720
 0.7980	50.8920
 0.7990	50.9180
 0.8000	50.9420
 0.8010	50.9590
 0.8020	50.9760
 0.8030	50.9920
 0.8040	51.0070
 0.8050	51.0240
 0.8060	51.0460
 0.8070	51.0610
 0.8080	51.0710
 0.8090	51.0860
 0.8100	51.0980
 0.8110	51.1110
 0.8120	51.1250
 0.8130	51.1330
 0.8140	51.1420
 0.8150	51.1550
 0.8160	51.1680
 0.8170	51.1720
 0.8180	51.1820
 0.8190	51.1990
 0.8200	51.2100
 0.8210	51.2120
 0.8220	51.2180
 0.8230	51.2300
 0.8240	51.2380
 0.8250	51.2420
 0.8260	51.2490
 0.8270	51.2580
 0.8280	51.2640
 0.8290	51.2630
 0.8300	51.2640
 0.8310	51.2700
 0.8320	51.2780
 0.8330	51.2850
 0.8340	51.2920
 0.8350	51.2990
 0.8360	51.3030
 0.8370	51.3100
 0.8380	51.3200
 0.8390	51.3270
 0.8400	51.3380
 0.8410	51.3510
 0.8420	51.3620
 0.8430	51.3700
 0.8440	51.3780
 0.8450	51.3880
 0.8460	51.4000
 0.8470	51.4100
 0.8480	51.4300
 0.8490	51.4500
 0.8500	51.4590
 0.8510	51.4650
 0.8520	51.4740
 0.8530	51.4880
 0.8540	51.5030
 0.8550	51.5240
 0.8560	51.5350
 0.8570	51.5390
 0.8580	51.5510
 0.8590	51.5640
 0.8600	51.5780
 0.8610	51.5920
 0.8620	51.6080
 0.8630	51.6230
 0.8640	51.6360
 0.8650	51.6480
 0.8660	51.6670
 0.8670	51.6780
 0.8680	51.6860
 0.8690	51.7030
 0.8700	51.7270
 0.8710	51.7400
 0.8720	51.7500
 0.8730	51.7730
 0.8740	51.7840
 0.8750	51.7910
 0.8760	51.8000
 0.8770	51.8160
 0.8780	51.8330
 0.8790	51.8490
 0.8800	51.8630
 0.8810	51.8750
 0.8820	51.8920
 0.8830	51.9040
 0.8840	51.9090
 0.8850	51.9270
 0.8860	51.9460
 0.8870	51.9600
 0.8880	51.9690
 0.8890	51.9830
 0.8900	51.9950
 0.8910	52.0070
 0.8920	52.0220
 0.8930	52.0270
 0.8940	52.0380
 0.8950	52.0560
 0.8960	52.0700
 0.8970	52.0780
 0.8980	52.0860
 0.8990	52.0960
 0.9000	52.1100
 0.9010	52.1220
 0.9020	52.1290
 0.9030	52.1330
 0.9040	52.1450
 0.9050	52.1580
 0.9060	52.1680
 0.9070	52.1730
 0.9080	52.1750
 0.9090	52.1880
 0.9100	52.2020
 0.9110	52.2110
 0.9120	52.2240
 0.9130	52.2380
 0.9140	52.2480
 0.9150	52.2530
 0.9160	52.2670
 0.9170	52.2740
 0.9180	52.2750
 0.9190	52.2830
 0.9200	52.2940
 0.9210	52.2980
 0.9220	52.2970
 0.9230	52.2990
 0.9240	52.2910
 0.9250	52.2910
 0.9260	52.2960
 0.9270	52.2920
 0.9280	52.2810
 0.9290	52.2720
 0.9300	52.2630
 0.9310	52.2480
 0.9320	52.2430
 0.9330	52.2280
 0.9340	52.2030
 0.9350	52.1950
 0.9360	52.1790
 0.9370	52.1540
 0.9380	52.1240
 0.9390	52.0980
 0.9400	52.0870
 0.9410	52.0730
 0.9420	52.0470
 0.9430	52.0240
 0.9440	51.9920
 0.9450	51.9510
 0.9460	51.9060
 0.9470	51.8630
 0.9480	51.8180
 0.9490	51.7720
 0.9500	51.7240
 0.9510	51.6620
 0.9520	51.6060
 0.9530	51.5460
 0.9540	51.4710
 0.9550	51.4060
 0.9560	51.3490
 0.9570	51.2880
 0.9580	51.2130
 0.9590	51.1540
 0.9600	51.0970
 0.9610	51.0460
 0.9620	51.0070
 0.9630	50.9680
 0.9640	50.9370
 0.9650	50.9130
 0.9660	50.8910
 0.9670	50.8780
 0.9680	50.8640
 0.9690	50.8420
 0.9700	50.8150
 0.9710	50.8150
 0.9720	50.8000
 0.9730	50.7780
 0.9740	50.7760
 0.9750	50.7830
 0.9760	50.7860
 0.9770	50.7820
 0.9780	50.7790
 0.9790	50.7760
 0.9800	50.7820
 0.9810	50.8000
 0.9820	50.8210
 0.9830	50.8210
 0.9840	50.8340
 0.9850	50.8620
 0.9860	50.8850
 0.9870	50.8850
 0.9880	50.8990
 0.9890	50.9220
 0.9900	50.9350
 0.9910	50.9580
 0.9920	50.9890
 0.9930	51.0240
 0.9940	51.0560
 0.9950	51.0700
 0.9960	51.0740
 0.9970	51.0950
 0.9980	51.1450
 0.9990	51.1700
 1.0000	51.6620
 1.0010	52.6080
 1.0020	53.1080
 1.0030	53.1340
 1.0040	53.1660
 1.0050	53.1990
 1.0060	53.2260
 1.0070	53.2540
 1.0080	53.2840
 1.0090	53.3150
 1.0100	53.3450
 1.0110	53.3820
 1.0120	53.4100
 1.0130	53.4270
 1.0140	53.4540
 1.0150	53.4790
 1.0160	53.5120
 1.0170	53.5470
 1.0180	53.5800
 1.0190	53.6100
 1.0200	53.6310
 1.0210	53.6540
 1.0220	53.6810
 1.0230	53.7060
 1.0240	53.7290
 1.0250	53.7560
 1.0260	53.7850
 1.0270	53.8100
 1.0280	53.8340
 1.0290	53.8610
 1.0300	53.8850
 1.0310	53.9110
 1.0320	53.9390
 1.0330	53.9720
 1.0340	53.9970
 1.0350	54.0190
 1.0360	54.0450
 1.0370	54.0680
 1.0380	54.0920
 1.0390	54.1210
 1.0400	54.1430
 1.0410	54.1600
 1.0420	54.1790
 1.0430	54.1950
 1.0440	54.2130
 1.0450	54.2340
 1.0460	54.2540
 1.0470	54.2760
 1.0480	54.2940
 1.0490	54.3120
 1.0500	54.3270
 1.0510	54.3360
 1.0520	54.3480
 1.0530	54.3600
 1.0540	54.3730
 1.0550	54.3850
 1.0560	54.3980
 1.0570	54.4100
 1.0580	54.4180
 1.0590	54.4300
 1.0600	54.4470
 1.0610	54.4570
 1.0620	54.4670
 1.0630	54.4750
 1.0640	54.4780
 1.0650	54.4820
 1.0660	54.4880
 1.0670	54.4900
 1.0680	54.4900
 1.0690	54.4870
 1.0700	54.4850
 1.0710	54.4790
 1.0720	54.4770
 1.0730	54.4790
 1.0740	54.4760
 1.0750	54.4720
 1.0760	54.4680
 1.0770	54.4620
 1.0780	54.4570
 1.0790	54.4580
 1.0800	54.4530
 1.0810	54.4430
 1.0820	54.4350
 1.0830	54.4250
 1.0840	54.4170
 1.0850	54.4100
 1.0860	54.4060
 1.0870	54.3990
 1.0880	54.3920
 1.0890	54.3830
 1.0900	54.3710
 1.0910	54.3620
 1.0920	54.3520
 1.0930	54.3430
 1.0940	54.3370
 1.0950	54.3260
 1.0960	54.3110
 1.0970	54.2980
 1.0980	54.2810
 1.0990	54.2670
 1.1000	54.2580
 1.1010	54.2440
 1.1020	54.2260
 1.1030	54.2100
 1.1040	54.1970
 1.1050	54.1830
 1.1060	54.1690
 1.1070	54.1600
 1.1080	54.1450
 1.1090	54.1250
 1.1100	54.1090
 1.1110	54.0950
 1.1120	54.0780
 1.1130	54.0620
 1.1140	54.0430
 1.1150	54.0210
 1.1160	53.9980
 1.1170	53.9720
 1.1180	53.9460
 1.1190	53.9160
 1.1200	53.8860
 1.1210	53.8560
 1.1220	53.8220
 1.1230	53.7810
 1.1240	53.7330
 1.1250	53.6800
 1.1260	53.6200
 1.1270	53.5560
 1.1280	53.4900
 1.1290	53.4130
 1.1300	53.3300
 1.1310	53.2380
 1.1320	53.1390
 1.1330	53.0310
 1.1340	52.9180
 1.1350	52.7930
 1.1360	52.6570
 1.1370	52.5150
 1.1380	52.3650
 1.1390	52.2070
 1.1400	52.0440
 1.1410	51.8770
 1.1420	51.7060
 1.1430	51.5350
 1.1440	51.3620
 1.1450	51.1860
 1.1460	51.0150
 1.1470	50.8410
 1.1480	50.6790
 1.1490	50.5220
 1.1500	50.3730
 1.1510	50.2290
 1.1520	50.0950
 1.1530	49.9690
 1.1540	49.8520
 1.1550	49.7450
 1.1560	49.6510
 1.1570	49.5640
 1.1580	49.4860
 1.1590	49.4200
 1.1600	49.3590
 1.1610	49.3050
 1.1620	49.2610
 1.1630	49.2230
 1.1640	49.1890
 1.1650	49.1610
 1.1660	49.1400
 1.1670	49.1190
 1.1680	49.1040
 1.1690	49.0860
 1.1700	49.0660
 1.1710	49.0520
 1.1720	49.0400
 1.1730	49.0270
 1.1740	49.0190
 1.1750	49.0080
 1.1760	48.9940
 1.1770	48.9800
 1.1780	48.9650
 1.1790	48.9480
 1.1800	48.9340
 1.1810	48.9200
 1.1820	48.9070
 1.1830	48.8940
 1.1840	48.8800
 1.1850	48.8640
 1.1860	48.8480
 1.1870	48.8340
 1.1880	48.8220
 1.1890	48.8120
 1.1900	48.8050
 1.1910	48.7980
 1.1920	48.7940
 1.1930	48.7910
 1.1940	48.7910
 1.1950	48.7920
 1.1960	48.7960
 1.1970	48.8020
 1.1980	48.8090
 1.1990	48.8170
 1.2000	48.8260
 1.2010	48.8360
 1.2020	48.8480
 1.2030	48.8600
 1.2040	48.8740
 1.2050	48.8880
 1.2060	48.9060
 1.2070	48.9260
 1.2080	48.9480
 1.2090	48.9710
 1.2100	48.9950
 1.2110	49.0200
 1.2120	49.0450
 1.2130	49.0720
 1.2140	49.1000
 1.2150	49.1300
 1.2160	49.1640
 1.2170	49.1970
 1.2180	49.2320
 1.2190	49.2680
 1.2200	49.3000
 1.2210	49.3330
 1.2220	49.3670
 1.2230	49.4020
 1.2240	49.4380
 1.2250	49.4720
 1.2260	49.5050
 1.2270	49.5360
 1.2280	49.5650
 1.2290	49.5970
 1.2300	49.6290
 1.2310	49.6610
 1.2320	49.6930
 1.2330	49.7190
 1.2340	49.7450
 1.2350	49.7700
 1.2360	49.7950
 1.2370	49.8210
 1.2380	49.8460
 1.2390	49.8690
 1.2400	49.8910
 1.2410	49.9110
 1.2420	49.9300
 1.2430	49.9520
 1.2440	49.9740
 1.2450	49.9960
 1.2460	50.0180
 1.2470	50.0380
 1.2480	50.0550
 1.2490	50.0720
 1.2500	50.0870
 1.2510	50.1030
 1.2520	50.1160
 1.2530	50.1270
 1.2540	50.1370
 1.2550	50.1470
 1.2560	50.1580
 1.2570	50.1690
 1.2580	50.1770
 1.2590	50.1830
 1.2600	50.1880
 1.2610	50.1920
 1.2620	50.1930
 1.2630	50.1940
 1.2640	50.1930
 1.2650	50.1900
 1.2660	50.1860
 1.2670	50.1840
 1.2680	50.1820
 1.2690	50.1780
 1.2700	50.1760
 1.2710	50.1720
 1.2720	50.1640
 1.2730	50.1580
 1.2740	50.1490
 1.2750	50.1390
 1.2760	50.1320
 1.2770	50.1230
 1.2780	50.1120
 1.2790	50.0990
 1.2800	50.0830
 1.2810	50.0640
 1.2820	50.0450
 1.2830	50.0250
 1.2840	50.0030
 1.2850	49.9780
 1.2860	49.9490
 1.2870	49.9160
 1.2880	49.8800
 1.2890	49.8430
 1.2900	49.8030
 1.2910	49.7620
 1.2920	49.7160
 1.2930	49.6650
 1.2940	49.6110
 1.2950	49.5520
 1.2960	49.4910
 1.2970	49.4300
 1.2980	49.3650
 1.2990	49.2980
 1.3000	49.2290
 1.3010	49.1570
 1.3020	49.0760
 1.3030	48.9940
 1.3040	48.9100
 1.3050	48.8180
 1.3060	48.7280
 1.3070	48.6340
 1.3080	48.5340
 1.3090	48.4330
 1.3100	48.3300
 1.3110	48.2240
 1.3120	48.1120
 1.3130	47.9980
 1.3140	47.8810
 1.3150	47.7580
 1.3160	47.6350
 1.3170	47.5100
 1.3180	47.3840
 1.3190	47.2520
 1.3200	47.1190
 1.3210	46.9800
 1.3220	46.8380
 1.3230	46.6940
 1.3240	46.5460
 1.3250	46.3960
 1.3260	46.2420
 1.3270	46.0830
 1.3280	45.9230
 1.3290	45.7600
 1.3300	45.5950
 1.3310	45.4300
 1.3320	45.2600
 1.3330	45.0880
 1.3340	44.9170
 1.3350	44.7450
 1.3360	44.5730
 1.3370	44.4000
 1.3380	44.2270
 1.3390	44.0550
 1.3400	43.8810
 1.3410	43.7110
 1.3420	43.5420
 1.3430	43.3730
 1.3440	43.2050
 1.3450	43.0390
 1.3460	42.8720
 1.3470	42.7080
 1.3480	42.5460
 1.3490	42.3850
 1.3500	42.2280
 1.3510	42.0710
 1.3520	41.9140
 1.3530	41.7580
 1.3540	41.6000
 1.3550	41.4420
 1.3560	41.2850
 1.3570	41.1260
 1.3580	40.9680
 1.3590	40.8050
 1.3600	40.6380
 1.3610	40.4680
 1.3620	40.2920
 1.3630	40.1130
 1.3640	39.9250
 1.3650	39.7300
 1.3660	39.5280
 1.3670	39.3130
 1.3680	39.0870
 1.3690	38.8510
 1.3700	38.5960
 1.3710	38.3280
 1.3720	38.0450
 1.3730	37.7390
 1.3740	37.4190
 1.3750	37.0780
 1.3760	36.7090
 1.3770	36.3170
 1.3780	35.8960
 1.3790	35.4500
 1.3800	34.9800
 1.3810	34.4820
 1.3820	33.9660
 1.3830	33.4270
 1.3840	32.8690
 1.3850	32.2890
 1.3860	31.6950
 1.3870	31.0780
 1.3880	30.4580
 1.3890	29.8260
 1.3900	29.1830
 1.3910	28.5430
 1.3920	27.8990
 1.3930	27.2510
 1.3940	26.6110
 1.3950	25.9700
 1.3960	25.3400
 1.3970	24.7240
 1.3980	24.1210
 1.3990	23.5430
 1.4000	22.9830
 1.4010	22.4380
 1.4020	21.9190
 1.4030	21.4190
 1.4040	20.9410
 1.4050	20.4920
 1.4060	20.0650
 1.4070	19.6660
 1.4080	19.2920
 1.4090	18.9380
 1.4100	18.6110
 1.4110	18.3060
 1.4120	18.0210
 1.4130	17.7610
 1.4140	17.5190
 1.4150	17.3000
 1.4160	17.0980
 1.4170	16.9130
 1.4180	16.7440
 1.4190	16.5890
 1.4200	16.4470
 1.4210	16.3190
 1.4220	16.2030
 1.4230	16.1000
 1.4240	16.0080
 1.4250	15.9240
 1.4260	15.8500
 1.4270	15.7840
 1.4280	15.7260
 1.4290	15.6740
 1.4300	15.6300
 1.4310	15.5910
 1.4320	15.5610
 1.4330	15.5330
 1.4340	15.5120
 1.4350	15.4940
 1.4360	15.4810
 1.4370	15.4720
 1.4380	15.4670
 1.4390	15.4660
 1.4400	15.4670
 1.4410	15.4710
 1.4420	15.4780
 1.4430	15.4850
 1.4440	15.4950
 1.4450	15.5070
 1.4460	15.5210
 1.4470	15.5360
 1.4480	15.5530
 1.4490	15.5720
 1.4500	15.5900
 1.4510	15.6090
 1.4520	15.6300
 1.4530	15.6530
 1.4540	15.6770
 1.4550	15.7040
 1.4560	15.7320
 1.4570	15.7620
 1.4580	15.7960
 1.4590	15.8330
 1.4600	15.8730
 1.4610	15.9160
 1.4620	15.9630
 1.4630	16.0150
 1.4640	16.0710
 1.4650	16.1320
 1.4660	16.1980
 1.4670	16.2700
 1.4680	16.3480
 1.4690	16.4300
 1.4700	16.5160
 1.4710	16.6070
 1.4720	16.7010
 1.4730	16.7990
 1.4740	16.9010
 1.4750	17.0050
 1.4760	17.1150
 1.4770	17.2280
 1.4780	17.3420
 1.4790	17.4600
 1.4800	17.5780
 1.4810	17.6970
 1.4820	17.8180
 1.4830	17.9390
 1.4840	18.0620
 1.4850	18.1870
 1.4860	18.3120
 1.4870	18.4390
 1.4880	18.5650
 1.4890	18.6910
 1.4900	18.8190
 1.4910	18.9480
 1.4920	19.0770
 1.4930	19.2080
 1.4940	19.3380
 1.4950	19.4680
 1.4960	19.5980
 1.4970	19.7270
 1.4980	19.8570
 1.4990	19.9880
 1.5000	20.1200
 1.5010	20.2530
 1.5020	20.3840
 1.5030	20.5160
 1.5040	20.6460
 1.5050	20.7770
 1.5060	20.9070
 1.5070	21.0370
 1.5080	21.1660
 1.5090	21.2950
 1.5100	21.4220
 1.5110	21.5510
 1.5120	21.6800
 1.5130	21.8060
 1.5140	21.9320
 1.5150	22.0580
 1.5160	22.1810
 1.5170	22.3060
 1.5180	22.4310
 1.5190	22.5550
 1.5200	22.6780
 1.5210	22.8000
 1.5220	22.9200
 1.5230	23.0400
 1.5240	23.1570
 1.5250	23.2740
 1.5260	23.3900
 1.5270	23.5040
 1.5280	23.6190
 1.5290	23.7310
 1.5300	23.8430
 1.5310	23.9560
 1.5320	24.0670
 1.5330	24.1770
 1.5340	24.2850
 1.5350	24.3930
 1.5360	24.5010
 1.5370	24.6080
 1.5380	24.7150
 1.5390	24.8200
 1.5400	24.9230
 1.5410	25.0270
 1.5420	25.1290
 1.5430	25.2320
 1.5440	25.3340
 1.5450	25.4340
 1.5460	25.5340
 1.5470	25.6310
 1.5480	25.7280
 1.5490	25.8250
 1.5500	25.9220
 1.5510	26.0160
 1.5520	26.1100
 1.5530	26.2030
 1.5540	26.2950
 1.5550	26.3870
 1.5560	26.4770
 1.5570	26.5660
 1.5580	26.6530
 1.5590	26.7390
 1.5600	26.8250
 1.5610	26.9090
 1.5620	26.9920
 1.5630	27.0760
 1.5640	27.1580
 1.5650	27.2390
 1.5660	27.3220
 1.5670	27.4020
 1.5680	27.4810
 1.5690	27.5600
 1.5700	27.6370
 1.5710	27.7160
 1.5720	27.7930
 1.5730	27.8720
 1.5740	27.9500
 1.5750	28.0260
 1.5760	28.1020
 1.5770	28.1770
 1.5780	28.2510
 1.5790	28.3260
 1.5800	28.4020
 1.5810	28.4770
 1.5820	28.5520
 1.5830	28.6250
 1.5840	28.6990
 1.5850	28.7710
 1.5860	28.8430
 1.5870	28.9140
 1.5880	28.9850
 1.5890	29.0560
 1.5900	29.1280
 1.5910	29.2010
 1.5920	29.2740
 1.5930	29.3430
 1.5940	29.4120
 1.5950	29.4810
 1.5960	29.5470
 1.5970	29.6150
 1.5980	29.6810
 1.5990	29.7460
 1.6000	29.8130
 1.6010	29.8770
 1.6020	29.9420
 1.6030	30.0060
 1.6040	30.0670
 1.6050	30.1280
 1.6060	30.1900
 1.6070	30.2510
 1.6080	30.3130
 1.6090	30.3720
 1.6100	30.4300
 1.6110	30.4880
 1.6120	30.5440
 1.6130	30.6000
 1.6140	30.6560
 1.6150	30.7100
 1.6160	30.7630
 1.6170	30.8140
 1.6180	30.8640
 1.6190	30.9140
 1.6200	30.9620
 1.6210	31.0100
 1.6220	31.0560
 1.6230	31.1020
 1.6240	31.1490
 1.6250	31.1950
 1.6260	31.2410
 1.6270	31.2850
 1.6280	31.3270
 1.6290	31.3680
 1.6300	31.4080
 1.6310	31.4470
 1.6320	31.4860
 1.6330	31.5220
 1.6340	31.5560
 1.6350	31.5900
 1.6360	31.6230
 1.6370	31.6540
 1.6380	31.6840
 1.6390	31.7110
 1.6400	31.7360
 1.6410	31.7600
 1.6420	31.7820
 1.6430	31.8010
 1.6440	31.8200
 1.6450	31.8340
 1.6460	31.8450
 1.6470	31.8550
 1.6480	31.8620
 1.6490	31.8680
 1.6500	31.8740
 1.6510	31.8770
 1.6520	31.8760
 1.6530	31.8720
 1.6540	31.8640
 1.6550	31.8560
 1.6560	31.8490
 1.6570	31.8400
 1.6580	31.8320
 1.6590	31.8230
 1.6600	31.8100
 1.6610	31.7980
 1.6620	31.7870
 1.6630	31.7770
 1.6640	31.7680
 1.6650	31.7620
 1.6660	31.7560
 1.6670	31.7470
 1.6680	31.7420
 1.6690	31.7370
 1.6700	31.7300
 1.6710	31.7230
 1.6720	31.7150
 1.6730	31.7060
 1.6740	31.6940
 1.6750	31.6810
 1.6760	31.6640
 1.6770	31.6410
 1.6780	31.6170
 1.6790	31.5900
 1.6800	31.5590
 1.6810	31.5250
 1.6820	31.4890
 1.6830	31.4490
 1.6840	31.4050
 1.6850	31.3610
 1.6860	31.3140
 1.6870	31.2660
 1.6880	31.2170
 1.6890	31.1660
 1.6900	31.1150
 1.6910	31.0620
 1.6920	31.0110
 1.6930	30.9610
 1.6940	30.9130
 1.6950	30.8670
 1.6960	30.8180
 1.6970	30.7700
 1.6980	30.7210
 1.6990	30.6680
 1.7000	30.6170
 1.7010	30.5660
 1.7020	30.5150
 1.7030	30.4640
 1.7040	30.4120
 1.7050	30.3600
 1.7060	30.3060
 1.7070	30.2530
 1.7080	30.1970
 1.7090	30.1380
 1.7100	30.0800
 1.7110	30.0190
 1.7120	29.9640
 1.7130	29.9100
 1.7140	29.8560
 1.7150	29.8030
 1.7160	29.7480
 1.7170	29.6920
 1.7180	29.6370
 1.7190	29.5840
 1.7200	29.5290
 1.7210	29.4760
 1.7220	29.4220
 1.7230	29.3680
 1.7240	29.3160
 1.7250	29.2630
 1.7260	29.2130
 1.7270	29.1630
 1.7280	29.1140
 1.7290	29.0640
 1.7300	29.0110
 1.7310	28.9610
 1.7320	28.9120
 1.7330	28.8650
 1.7340	28.8240
 1.7350	28.7790
 1.7360	28.7340
 1.7370	28.6880
 1.7380	28.6400
 1.7390	28.5900
 1.7400	28.5380
 1.7410	28.4860
 1.7420	28.4330
 1.7430	28.3790
 1.7440	28.3260
 1.7450	28.2700
 1.7460	28.2110
 1.7470	28.1530
 1.7480	28.0940
 1.7490	28.0350
 1.7500	27.9740
 1.7510	27.9140
 1.7520	27.8550
 1.7530	27.7930
 1.7540	27.7310
 1.7550	27.6660
 1.7560	27.6020
 1.7570	27.5400
 1.7580	27.4790
 1.7590	27.4180
 1.7600	27.3590
 1.7610	27.2980
 1.7620	27.2400
 1.7630	27.1850
 1.7640	27.1310
 1.7650	27.0820
 1.7660	27.0310
 1.7670	26.9790
 1.7680	26.9310
 1.7690	26.8830
 1.7700	26.8380
 1.7710	26.7960
 1.7720	26.7540
 1.7730	26.7140
 1.7740	26.6750
 1.7750	26.6400
 1.7760	26.6030
 1.7770	26.5640
 1.7780	26.5300
 1.7790	26.4950
 1.7800	26.4640
 1.7810	26.4370
 1.7820	26.4100
 1.7830	26.3840
 1.7840	26.3600
 1.7850	26.3360
 1.7860	26.3150
 1.7870	26.2960
 1.7880	26.2800
 1.7890	26.2640
 1.7900	26.2510
 1.7910	26.2390
 1.7920	26.2290
 1.7930	26.2200
 1.7940	26.2130
 1.7950	26.2080
 1.7960	26.2060
 1.7970	26.2060
 1.7980	26.2080
 1.7990	26.2100
 1.8000	26.2120
 1.8010	26.2140
 1.8020	26.2140
 1.8030	26.2160
 1.8040	26.2180
 1.8050	26.2220
 1.8060	26.2290
 1.8070	26.2330
 1.8080	26.2340
 1.8090	26.2390
 1.8100	26.2440
 1.8110	26.2500
 1.8120	26.2560
 1.8130	26.2580
 1.8140	26.2580
 1.8150	26.2590
 1.8160	26.2620
 1.8170	26.2630
 1.8180	26.2630
 1.8190	26.2640
 1.8200	26.2640
 1.8210	26.2630
 1.8220	26.2610
 1.8230	26.2560
 1.8240	26.2500
 1.8250	26.2400
 1.8260	26.2320
 1.8270	26.2240
 1.8280	26.2120
 1.8290	26.1960
 1.8300	26.0930
 1.8310	25.9140
 1.8320	25.7950
 1.8330	25.7650
 1.8340	25.7350
 1.8350	25.7000
 1.8360	25.6580
 1.8370	25.6140
 1.8380	25.5640
 1.8390	25.5070
 1.8400	25.4450
 1.8410	25.3780
 1.8420	25.3070
 1.8430	25.2310
 1.8440	25.1450
 1.8450	25.0490
 1.8460	24.9460
 1.8470	24.8320
 1.8480	24.7090
 1.8490	24.5750
 1.8500	24.4320
 1.8510	24.2780
 1.8520	24.1140
 1.8530	23.9370
 1.8540	23.7500
 1.8550	23.5500
 1.8560	23.3330
 1.8570	23.1050
 1.8580	22.8610
 1.8590	22.6040
 1.8600	22.3320
 1.8610	22.0480
 1.8620	21.7470
 1.8630	21.4340
 1.8640	21.1040
 1.8650	20.7570
 1.8660	20.3930
 1.8670	20.0080
 1.8680	19.6090
 1.8690	19.1930
 1.8700	18.7590
 1.8710	18.3080
 1.8720	17.8490
 1.8730	17.3780
 1.8740	16.8960
 1.8750	16.4100
 1.8760	15.9160
 1.8770	15.4240
 1.8780	14.9350
 1.8790	14.4450
 1.8800	13.9660
 1.8810	13.4950
 1.8820	13.0260
 1.8830	12.5620
 1.8840	12.1070
 1.8850	11.6570
 1.8860	11.2190
 1.8870	10.7970
 1.8880	10.3910
 1.8890	10.0060
 1.8900	 9.6420
 1.8910	 9.2980
 1.8920	 8.9720
 1.8930	 8.6700
 1.8940	 8.3890
 1.8950	 8.1280
 1.8960	 7.8860
 1.8970	 7.6630
 1.8980	 7.4640
 1.8990	 7.2790
 1.9000	 7.1140
 1.9010	 6.9710
 1.9020	 6.8340
 1.9030	 6.7120
 1.9040	 6.6050
 1.9050	 6.5100
 1.9060	 6.4240
 1.9070	 6.3490
 1.9080	 6.2830
 1.9090	 6.2270
 1.9100	 6.1770
 1.9110	 6.1330
 1.9120	 6.0960
 1.9130	 6.0630
 1.9140	 6.0350
 1.9150	 6.0120
 1.9160	 5.9940
 1.9170	 5.9770
 1.9180	 5.9630
 1.9190	 5.9490
 1.9200	 5.9400
 1.9210	 5.9300
 1.9220	 5.9250
 1.9230	 5.9240
 1.9240	 5.9250
 1.9250	 5.9260
 1.9260	 5.9310
 1.9270	 5.9340
 1.9280	 5.9380
 1.9290	 5.9430
 1.9300	 5.9510
 1.9310	 5.9600
 1.9320	 5.9680
 1.9330	 5.9800
 1.9340	 5.9930
 1.9350	 6.0060
 1.9360	 6.0200
 1.9370	 6.0370
 1.9380	 6.0510
 1.9390	 6.0670
 1.9400	 6.0860
 1.9410	 6.1110
 1.9420	 6.1330
 1.9430	 6.1560
 1.9440	 6.1760
 1.9450	 6.1970
 1.9460	 6.2190
 1.9470	 6.2450
 1.9480	 6.2700
 1.9490	 6.2950
 1.9500	 6.3200
 1.9510	 6.3500
 1.9520	 6.3800
 1.9530	 6.4130
 1.9540	 6.4470
 1.9550	 6.4790
 1.9560	 6.5110
 1.9570	 6.5440
 1.9580	 6.5760
 1.9590	 6.6100
 1.9600	 6.6440
 1.9610	 6.6780
 1.9620	 6.7150
 1.9630	 6.7500
 1.9640	 6.7890
 1.9650	 6.8280
 1.9660	 6.8690
 1.9670	 6.9110
 1.9680	 6.9510
 1.9690	 6.9890
 1.9700	 7.0320
 1.9710	 7.0810
 1.9720	 7.1250
 1.9730	 7.1750
 1.9740	 7.2210
 1.9750	 7.2640
 1.9760	 7.3090
 1.9770	 7.3550
 1.9780	 7.4050
 1.9790	 7.4550
 1.9800	 7.5070
 1.9810	 7.5590
 1.9820	 7.6090
 1.9830	 7.6620
 1.9840	 7.7170
 1.9850	 7.7710
 1.9860	 7.8240
 1.9870	 7.8800
 1.9880	 7.9360
 1.9890	 7.9920
 1.9900	 8.0480
 1.9910	 8.1050
 1.9920	 8.1620
 1.9930	 8.2210
 1.9940	 8.2790
 1.9950	 8.3320
 1.9960	 8.3890
 1.9970	 8.4460
 1.9980	 8.5020
 1.9990	 8.5610
 2.0000	 8.6230
 2.0010	 8.6820
 2.0020	 8.7400
 2.0030	 8.7980
 2.0040	 8.8570
 2.0050	 8.9130
 2.0060	 8.9720
 2.0070	 9.0310
 2.0080	 9.0890
 2.0090	 9.1450
 2.0100	 9.2030
 2.0110	 9.2590
 2.0120	 9.3160
 2.0130	 9.3700
 2.0140	 9.4240
 2.0150	 9.4760
 2.0160	 9.5330
 2.0170	 9.5900
 2.0180	 9.6450
 2.0190	 9.7010
 2.0200	 9.7530
 2.0210	 9.8010
 2.0220	 9.8520
 2.0230	 9.9060
 2.0240	 9.9540
 2.0250	10.0030
 2.0260	10.0510
 2.0270	10.0940
 2.0280	10.1390
 2.0290	10.1800
 2.0300	10.2200
 2.0310	10.2620
 2.0320	10.3040
 2.0330	10.3430
 2.0340	10.3810
 2.0350	10.4180
 2.0360	10.4520
 2.0370	10.4880
 2.0380	10.5250
 2.0390	10.5590
 2.0400	10.5910
 2.0410	10.6240
 2.0420	10.6550
 2.0430	10.6860
 2.0440	10.7180
 2.0450	10.7500
 2.0460	10.7820
 2.0470	10.8120
 2.0480	10.8420
 2.0490	10.8730
 2.0500	10.9020
 2.0510	10.9300
 2.0520	10.9580
 2.0530	10.9840
 2.0540	11.0120
 2.0550	11.0420
 2.0560	11.0720
 2.0570	11.1020
 2.0580	11.1320
 2.0590	11.1620
 2.0600	11.1910
 2.0610	11.2230
 2.0620	11.2550
 2.0630	11.2870
 2.0640	11.3220
 2.0650	11.3540
 2.0660	11.3830
 2.0670	11.4150
 2.0680	11.4500
 2.0690	11.4820
 2.0700	11.5150
 2.0710	11.5480
 2.0720	11.5770
 2.0730	11.6080
 2.0740	11.6400
 2.0750	11.6740
 2.0760	11.7050
 2.0770	11.7380
 2.0780	11.7680
 2.0790	11.7940
 2.0800	11.8230
 2.0810	11.8520
 2.0820	11.8820
 2.0830	11.9160
 2.0840	11.9460
 2.0850	11.9730
 2.0860	12.0010
 2.0870	12.0290
 2.0880	12.0560
 2.0890	12.0840
 2.0900	12.1130
 2.0910	12.1410
 2.0920	12.1670
 2.0930	12.1960
 2.0940	12.2270
 2.0950	12.2560
 2.0960	12.2870
 2.0970	12.3140
 2.0980	12.3390
 2.0990	12.3650
 2.1000	12.3890
 2.1010	12.4150
 2.1020	12.4400
 2.1030	12.4660
 2.1040	12.4920
 2.1050	12.5200
 2.1060	12.5460
 2.1070	12.5720
 2.1080	12.5970
 2.1090	12.6200
 2.1100	12.6460
 2.1110	12.6740
 2.1120	12.7000
 2.1130	12.7280
 2.1140	12.7530
 2.1150	12.7750
 2.1160	12.7960
 2.1170	12.8150
 2.1180	12.8370
 2.1190	12.8620
 2.1200	12.8860
 2.1210	12.9120
 2.1220	12.9370
 2.1230	12.9580
 2.1240	12.9740
 2.1250	12.9950
 2.1260	13.0150
 2.1270	13.0350
 2.1280	13.0590
 2.1290	13.0780
 2.1300	13.0950
 2.1310	13.1130
 2.1320	13.1280
 2.1330	13.1460
 2.1340	13.1660
 2.1350	13.1840
 2.1360	13.2030
 2.1370	13.2200
 2.1380	13.2310
 2.1390	13.2460
 2.1400	13.2620
 2.1410	13.2810
 2.1420	13.3000
 2.1430	13.3210
 2.1440	13.3390
 2.1450	13.3540
 2.1460	13.3700
 2.1470	13.3860
 2.1480	13.4020
 2.1490	13.4190
 2.1500	13.4370
 2.1510	13.4560
 2.1520	13.4740
 2.1530	13.4950
 2.1540	13.5120
 2.1550	13.5280
 2.1560	13.5430
 2.1570	13.5580
 2.1580	13.5730
 2.1590	13.5900
 2.1600	13.6030
 2.1610	13.6190
 2.1620	13.6360
 2.1630	13.6510
 2.1640	13.6660
 2.1650	13.6800
 2.1660	13.6910
 2.1670	13.7060
 2.1680	13.7240
 2.1690	13.7400
 2.1700	13.7550
 2.1710	13.7710
 2.1720	13.7840
 2.1730	13.8000
 2.1740	13.8190
 2.1750	13.8370
 2.1760	13.8570
 2.1770	13.8760
 2.1780	13.8950
 2.1790	13.9150
 2.1800	13.9360
 2.1810	13.9570
 2.1820	13.9790
 2.1830	14.0010
 2.1840	14.0240
 2.1850	14.0470
 2.1860	14.0710
 2.1870	14.0980
 2.1880	14.1230
 2.1890	14.1480
 2.1900	14.1730
 2.1910	14.1960
 2.1920	14.2170
 2.1930	14.2350
 2.1940	14.2560
 2.1950	14.2750
 2.1960	14.2980
 2.1970	14.3260
 2.1980	14.3510
 2.1990	14.3780
 2.2000	14.4020
 2.2010	14.4210
 2.2020	14.4430
 2.2030	14.4660
 2.2040	14.4880
 2.2050	14.5100
 2.2060	14.5340
 2.2070	14.5530
 2.2080	14.5680
 2.2090	14.5840
 2.2100	14.5960
 2.2110	14.6120
 2.2120	14.6280
 2.2130	14.6430
 2.2140	14.6620
 2.2150	14.6750
 2.2160	14.6830
 2.2170	14.6950
 2.2180	14.7080
 2.2190	14.7160
 2.2200	14.7260
 2.2210	14.7320
 2.2220	14.7310
 2.2230	14.7340
 2.2240	14.7420
 2.2250	14.7430
 2.2260	14.7440
 2.2270	14.7390
 2.2280	14.7270
 2.2290	14.7130
 2.2300	14.6940
 2.2310	14.6740
 2.2320	14.6500
 2.2330	14.6260
 2.2340	14.5990
 2.2350	14.5700
 2.2360	14.5380
 2.2370	14.5040
 2.2380	14.4680
 2.2390	14.4280
 2.2400	14.3890
 2.2410	14.3490
 2.2420	14.3050
 2.2430	14.2620
 2.2440	14.2140
 2.2450	14.1600
 2.2460	14.1080
 2.2470	14.0550
 2.2480	14.0010
 2.2490	13.9470
 2.2500	13.8940
 2.2510	13.8400
 2.2520	13.7870
 2.2530	13.7330
 2.2540	13.6810
 2.2550	13.6300
 2.2560	13.5780
 2.2570	13.5250
 2.2580	13.4730
 2.2590	13.4200
 2.2600	13.3680
 2.2610	13.3180
 2.2620	13.2680
 2.2630	13.2150
 2.2640	13.1620
 2.2650	13.1120
 2.2660	13.0610
 2.2670	13.0170
 2.2680	12.9790
 2.2690	12.9360
 2.2700	12.8940
 2.2710	12.8500
 2.2720	12.8040
 2.2730	12.7570
 2.2740	12.7070
 2.2750	12.6600
 2.2760	12.6120
 2.2770	12.5680
 2.2780	12.5280
 2.2790	12.4910
 2.2800	12.4610
 2.2810	12.4240
 2.2820	12.3880
 2.2830	12.3500
 2.2840	12.3070
 2.2850	12.2680
 2.2860	12.2310
 2.2870	12.1950
 2.2880	12.1640
 2.2890	12.1300
 2.2900	12.0960
 2.2910	12.0600
 2.2920	12.0170
 2.2930	11.9770
 2.2940	11.9380
 2.2950	11.8980
 2.2960	11.8590
 2.2970	11.8190
 2.2980	11.7780
 2.2990	11.7370
 2.3000	11.6960
 2.3010	11.6610
 2.3020	11.6240
 2.3030	11.5870
 2.3040	11.5460
 2.3050	11.5080
 2.3060	11.4710
 2.3070	11.4310
 2.3080	11.3970
 2.3090	11.3600
 2.3100	11.3290
 2.3110	11.3070
 2.3120	11.2830
 2.3130	11.2640
 2.3140	11.2420
 2.3150	11.2210
 2.3160	11.2000
 2.3170	11.1790
 2.3180	11.1610
 2.3190	11.1430
 2.3200	11.1260
 2.3210	11.1130
 2.3220	11.0960
 2.3230	11.0770
 2.3240	11.0550
 2.3250	11.0320
 2.3260	11.0060
 2.3270	10.9790
 2.3280	10.9490
 2.3290	10.9150
 2.3300	10.8820
 2.3310	10.8450
 2.3320	10.8120
 2.3330	10.7820
 2.3340	10.7510
 2.3350	10.7230
 2.3360	10.6890
 2.3370	10.6490
 2.3380	10.6120
 2.3390	10.5740
 2.3400	10.5380
 2.3410	10.5050
 2.3420	10.4720
 2.3430	10.4410
 2.3440	10.4080
 2.3450	10.3750
 2.3460	10.3420
 2.3470	10.3050
 2.3480	10.2750
 2.3490	10.2500
 2.3500	10.2250
 2.3510	10.2050
 2.3520	10.1820
 2.3530	10.1650
 2.3540	10.1400
 2.3550	10.1150
 2.3560	10.1000
 2.3570	10.0790
 2.3580	10.0570
 2.3590	10.0390
 2.3600	10.0180
 2.3610	10.0000
 2.3620	 9.9830
 2.3630	 9.9660
 2.3640	 9.9400
 2.3650	 9.9080
 2.3660	 9.8740
 2.3670	 9.8370
 2.3680	 9.8050
 2.3690	 9.7780
 2.3700	 9.7550
 2.3710	 9.7360
 2.3720	 9.7130
 2.3730	 9.6790
 2.3740	 9.6460
 2.3750	 9.6100
 2.3760	 9.5720
 2.3770	 9.5470
 2.3780	 9.5210
 2.3790	 9.4870
 2.3800	 9.4590
 2.3810	 9.4160
 2.3820	 9.3790
 2.3830	 9.3510
 2.3840	 9.3110
 2.3850	 9.2690
 2.3860	 9.2340
 2.3870	 9.1860
 2.3880	 9.1480
 2.3890	 9.1250
 2.3900	 9.0970
 2.3910	 9.0630
 2.3920	 9.0300
 2.3930	 8.9900
 2.3940	 8.9470
 2.3950	 8.9150
 2.3960	 8.8900
 2.3970	 8.8530
 2.3980	 8.8160
 2.3990	 8.7810
 2.4000	 8.7410
 2.4010	 8.7120
 2.4020	 8.6890
 2.4030	 8.6530
 2.4040	 8.6170
 2.4050	 8.5730
 2.4060	 8.5180
 2.4070	 8.4790
 2.4080	 8.4480
 2.4090	 8.4100
 2.4100	 8.3840
 2.4110	 8.3470
 2.4120	 8.3040
 2.4130	 8.2730
 2.4140	 8.2440
 2.4150	 8.2140
 2.4160	 8.1790
 2.4170	 8.1290
 2.4180	 8.0740
 2.4190	 8.0320
 2.4200	 8.0000
 2.4210	 7.9740
 2.4220	 7.9550
 2.4230	 7.9190
 2.4240	 7.8710
 2.4250	 7.8160
 2.4260	 7.7680
 2.4270	 7.7260
 2.4280	 7.6840
 2.4290	 7.6480
 2.4300	 7.6060
 2.4310	 7.5740
 2.4320	 7.5440
 2.4330	 7.5070
 2.4340	 7.4730
 2.4350	 7.4240
 2.4360	 7.3890
 2.4370	 7.3740
 2.4380	 7.3540
 2.4390	 7.3380
 2.4400	 7.2960
 2.4410	 7.2410
 2.4420	 7.2100
 2.4430	 7.1660
 2.4440	 7.1190
 2.4450	 7.0860
 2.4460	 7.0380
 2.4470	 6.9960
 2.4480	 6.9840
 2.4490	 6.9470
 2.4500	 6.9250
 2.4510	 6.9090
 2.4520	 6.8740
 2.4530	 6.8540
 2.4540	 6.8180
 2.4550	 6.7690
 2.4560	 6.7410
 2.4570	 6.7150
 2.4580	 6.6930
 2.4590	 6.6660
 2.4600	 6.6270
 2.4610	 6.5770
 2.4620	 6.5440
 2.4630	 6.5210
 2.4640	 6.4930
 2.4650	 6.4890
 2.4660	 6.4870
 2.4670	 6.4610
 2.4680	 6.4450
 2.4690	 6.4150
 2.4700	 6.4010
 2.4710	 6.4110
 2.4720	 6.3930
 2.4730	 6.3720
 2.4740	 6.3470
 2.4750	 6.2990
 2.4760	 6.2580
 2.4770	 6.2170
 2.4780	 6.1800
 2.4790	 6.1250
 2.4800	 6.1100
 2.4810	 6.1360
 2.4820	 6.1460
 2.4830	 6.1520
 2.4840	 6.1350
 2.4850	 6.1220
 2.4860	 6.1170
 2.4870	 6.1100
 2.4880	 6.1370
 2.4890	 6.1580
 2.4900	 6.1560
 2.4910	 6.1190
 2.4920	 6.0530
 2.4930	 6.0030
 2.4940	 5.9470
 2.4950	 5.9460
 2.4960	 6.0260
 2.4970	 6.0470
 2.4980	 6.0570
 2.4990	 6.0750
 2.5000	 6.0080
