Name: Ficus macrophylla f. columnaris
Type: vegetation
Class: Tree
Genus: Ficus
Species: macrophylla_columnaris
Sample No.: JPL095
Owner: JPL
Wavelength Range: VSWIR
Origin: 34.12573; - 118.11237; WGS84
Collection Date: 2/2/2016
Description: Samples were collected at the Huntington Garden in San Marino California as part of a JPL Subcontract studying HyTES imagery. Samples were taken to JPL and processed within 48 hours of collection. The same leaves were processed in the Nicolet and then measured using the ASD.
Measurement: Bidirectional reflectance
First Column: X
Second Column: Y
X Units: Wavelength (micrometer)
Y Units: Reflectance (percentage)
First X Value: 0.35
Last X Value: 2.5
Number of X Values: 2151
Additional Information: 

 0.3500	10.3440
 0.3510	10.1120
 0.3520	10.0940
 0.3530	 9.4840
 0.3540	 8.3440
 0.3550	 9.8390
 0.3560	 9.7050
 0.3570	 8.6750
 0.3580	 9.5070
 0.3590	 9.1550
 0.3600	 8.7930
 0.3610	 8.9950
 0.3620	 8.9860
 0.3630	 8.9460
 0.3640	 8.7150
 0.3650	 8.3830
 0.3660	 9.4270
 0.3670	 9.5400
 0.3680	 8.7630
 0.3690	 8.7220
 0.3700	 8.5460
 0.3710	 8.4500
 0.3720	 8.5180
 0.3730	 8.3100
 0.3740	 8.9360
 0.3750	 9.6190
 0.3760	 9.3540
 0.3770	 9.0020
 0.3780	 8.9070
 0.3790	 8.9610
 0.3800	 8.7210
 0.3810	 8.6180
 0.3820	 8.3220
 0.3830	 7.8900
 0.3840	 8.4990
 0.3850	 9.3070
 0.3860	 9.6600
 0.3870	 9.1930
 0.3880	 8.6650
 0.3890	 8.4860
 0.3900	 8.6450
 0.3910	 8.7490
 0.3920	 8.5930
 0.3930	 8.5170
 0.3940	 8.7680
 0.3950	 9.1050
 0.3960	 8.9860
 0.3970	 8.7320
 0.3980	 8.9340
 0.3990	 8.8070
 0.4000	 8.7440
 0.4010	 8.8280
 0.4020	 8.5970
 0.4030	 8.4900
 0.4040	 8.5380
 0.4050	 8.6680
 0.4060	 8.8920
 0.4070	 8.7690
 0.4080	 8.5130
 0.4090	 8.6960
 0.4100	 8.7850
 0.4110	 8.6950
 0.4120	 8.5180
 0.4130	 8.5250
 0.4140	 8.7450
 0.4150	 8.9230
 0.4160	 8.8140
 0.4170	 8.6180
 0.4180	 8.7000
 0.4190	 8.9080
 0.4200	 8.6600
 0.4210	 8.7860
 0.4220	 8.9640
 0.4230	 8.8950
 0.4240	 8.8620
 0.4250	 8.8580
 0.4260	 8.8620
 0.4270	 8.8420
 0.4280	 8.8080
 0.4290	 8.7850
 0.4300	 8.7810
 0.4310	 8.7680
 0.4320	 8.7770
 0.4330	 8.7720
 0.4340	 8.7270
 0.4350	 8.7060
 0.4360	 8.7770
 0.4370	 8.8390
 0.4380	 8.7050
 0.4390	 8.7640
 0.4400	 8.8590
 0.4410	 8.8550
 0.4420	 8.8580
 0.4430	 8.8420
 0.4440	 8.7980
 0.4450	 8.7500
 0.4460	 8.8550
 0.4470	 8.9080
 0.4480	 8.8520
 0.4490	 8.8360
 0.4500	 8.8890
 0.4510	 8.8960
 0.4520	 8.7930
 0.4530	 8.8020
 0.4540	 8.8720
 0.4550	 8.8930
 0.4560	 8.7600
 0.4570	 8.7780
 0.4580	 8.7980
 0.4590	 8.7350
 0.4600	 8.7270
 0.4610	 8.7730
 0.4620	 8.8460
 0.4630	 8.8930
 0.4640	 8.8070
 0.4650	 8.7730
 0.4660	 8.8300
 0.4670	 8.8580
 0.4680	 8.8100
 0.4690	 8.8100
 0.4700	 8.8960
 0.4710	 8.7350
 0.4720	 8.7210
 0.4730	 8.8540
 0.4740	 8.9190
 0.4750	 8.8870
 0.4760	 8.7870
 0.4770	 8.7010
 0.4780	 8.7860
 0.4790	 8.8020
 0.4800	 8.7860
 0.4810	 8.8220
 0.4820	 8.8150
 0.4830	 8.7570
 0.4840	 8.7180
 0.4850	 8.8130
 0.4860	 8.7890
 0.4870	 8.7650
 0.4880	 8.8250
 0.4890	 8.7930
 0.4900	 8.7700
 0.4910	 8.7700
 0.4920	 8.7740
 0.4930	 8.7850
 0.4940	 8.8220
 0.4950	 8.8620
 0.4960	 8.8120
 0.4970	 8.8150
 0.4980	 8.8310
 0.4990	 8.8000
 0.5000	 8.7920
 0.5010	 8.8060
 0.5020	 8.8370
 0.5030	 8.8830
 0.5040	 8.9160
 0.5050	 8.9570
 0.5060	 9.0050
 0.5070	 9.0070
 0.5080	 8.9950
 0.5090	 9.0210
 0.5100	 9.1150
 0.5110	 9.1360
 0.5120	 9.1970
 0.5130	 9.3170
 0.5140	 9.3560
 0.5150	 9.4430
 0.5160	 9.5700
 0.5170	 9.6980
 0.5180	 9.8090
 0.5190	 9.9470
 0.5200	10.1100
 0.5210	10.2610
 0.5220	10.4030
 0.5230	10.5460
 0.5240	10.7020
 0.5250	10.8980
 0.5260	11.0870
 0.5270	11.2610
 0.5280	11.4290
 0.5290	11.5700
 0.5300	11.6840
 0.5310	11.7970
 0.5320	11.9730
 0.5330	12.0750
 0.5340	12.1300
 0.5350	12.1900
 0.5360	12.2440
 0.5370	12.3180
 0.5380	12.3910
 0.5390	12.4160
 0.5400	12.4560
 0.5410	12.4620
 0.5420	12.4220
 0.5430	12.4310
 0.5440	12.4490
 0.5450	12.4710
 0.5460	12.5010
 0.5470	12.5680
 0.5480	12.6280
 0.5490	12.6600
 0.5500	12.6740
 0.5510	12.7100
 0.5520	12.7340
 0.5530	12.7120
 0.5540	12.6900
 0.5550	12.6640
 0.5560	12.6130
 0.5570	12.5180
 0.5580	12.4820
 0.5590	12.4270
 0.5600	12.3060
 0.5610	12.1960
 0.5620	12.1070
 0.5630	12.0170
 0.5640	11.8980
 0.5650	11.7820
 0.5660	11.6690
 0.5670	11.5510
 0.5680	11.4110
 0.5690	11.2920
 0.5700	11.1820
 0.5710	11.0610
 0.5720	10.9300
 0.5730	10.8190
 0.5740	10.7300
 0.5750	10.6440
 0.5760	10.5650
 0.5770	10.4850
 0.5780	10.4050
 0.5790	10.3360
 0.5800	10.2680
 0.5810	10.2180
 0.5820	10.1960
 0.5830	10.1170
 0.5840	10.0510
 0.5850	10.0180
 0.5860	 9.9740
 0.5870	 9.9290
 0.5880	 9.9040
 0.5890	 9.9000
 0.5900	 9.8650
 0.5910	 9.8320
 0.5920	 9.8130
 0.5930	 9.8060
 0.5940	 9.7800
 0.5950	 9.7610
 0.5960	 9.7560
 0.5970	 9.7260
 0.5980	 9.7310
 0.5990	 9.7370
 0.6000	 9.7010
 0.6010	 9.6720
 0.6020	 9.6550
 0.6030	 9.6300
 0.6040	 9.5660
 0.6050	 9.5400
 0.6060	 9.5340
 0.6070	 9.5190
 0.6080	 9.4950
 0.6090	 9.4470
 0.6100	 9.3660
 0.6110	 9.2610
 0.6120	 9.2340
 0.6130	 9.2410
 0.6140	 9.2410
 0.6150	 9.2120
 0.6160	 9.1790
 0.6170	 9.1630
 0.6180	 9.1700
 0.6190	 9.1560
 0.6200	 9.1280
 0.6210	 9.1100
 0.6220	 9.1300
 0.6230	 9.1200
 0.6240	 9.0860
 0.6250	 9.0540
 0.6260	 9.0630
 0.6270	 9.0670
 0.6280	 9.0620
 0.6290	 9.0610
 0.6300	 9.0630
 0.6310	 9.0590
 0.6320	 9.0470
 0.6330	 9.0370
 0.6340	 9.0540
 0.6350	 9.0600
 0.6360	 9.0310
 0.6370	 9.0160
 0.6380	 8.9850
 0.6390	 8.9570
 0.6400	 8.9700
 0.6410	 8.9590
 0.6420	 8.9220
 0.6430	 8.8800
 0.6440	 8.8730
 0.6450	 8.8850
 0.6460	 8.8790
 0.6470	 8.8410
 0.6480	 8.8520
 0.6490	 8.8410
 0.6500	 8.8160
 0.6510	 8.8460
 0.6520	 8.8600
 0.6530	 8.8530
 0.6540	 8.8380
 0.6550	 8.8590
 0.6560	 8.8670
 0.6570	 8.8630
 0.6580	 8.8630
 0.6590	 8.8690
 0.6600	 8.8800
 0.6610	 8.8910
 0.6620	 8.8950
 0.6630	 8.8960
 0.6640	 8.8990
 0.6650	 8.9100
 0.6660	 8.9240
 0.6670	 8.9290
 0.6680	 8.9420
 0.6690	 8.9820
 0.6700	 8.9870
 0.6710	 9.0000
 0.6720	 9.0410
 0.6730	 9.0850
 0.6740	 9.0950
 0.6750	 9.1090
 0.6760	 9.1590
 0.6770	 9.1960
 0.6780	 9.2290
 0.6790	 9.2660
 0.6800	 9.3140
 0.6810	 9.3670
 0.6820	 9.4110
 0.6830	 9.4440
 0.6840	 9.4890
 0.6850	 9.5290
 0.6860	 9.5580
 0.6870	 9.5760
 0.6880	 9.5970
 0.6890	 9.6370
 0.6900	 9.6930
 0.6910	 9.7470
 0.6920	 9.8620
 0.6930	10.0360
 0.6940	10.2610
 0.6950	10.5370
 0.6960	10.8960
 0.6970	11.3260
 0.6980	11.8120
 0.6990	12.3820
 0.7000	13.0290
 0.7010	13.7460
 0.7020	14.5280
 0.7030	15.3320
 0.7040	16.1740
 0.7050	17.0630
 0.7060	17.9780
 0.7070	18.9380
 0.7080	19.9270
 0.7090	20.9240
 0.7100	21.9360
 0.7110	22.9920
 0.7120	24.0790
 0.7130	25.1430
 0.7140	26.2640
 0.7150	27.4220
 0.7160	28.5810
 0.7170	29.7210
 0.7180	30.8880
 0.7190	32.0760
 0.7200	33.2610
 0.7210	34.4290
 0.7220	35.6010
 0.7230	36.7760
 0.7240	37.9230
 0.7250	39.0400
 0.7260	40.1320
 0.7270	41.2050
 0.7280	42.2610
 0.7290	43.2790
 0.7300	44.2430
 0.7310	45.1510
 0.7320	46.0440
 0.7330	46.9130
 0.7340	47.7320
 0.7350	48.4660
 0.7360	49.1860
 0.7370	49.8850
 0.7380	50.5390
 0.7390	51.1420
 0.7400	51.7030
 0.7410	52.2300
 0.7420	52.7240
 0.7430	53.1650
 0.7440	53.5720
 0.7450	53.9480
 0.7460	54.2810
 0.7470	54.6030
 0.7480	54.8950
 0.7490	55.1470
 0.7500	55.3890
 0.7510	55.6030
 0.7520	55.7950
 0.7530	55.9770
 0.7540	56.1400
 0.7550	56.2700
 0.7560	56.3750
 0.7570	56.4770
 0.7580	56.5740
 0.7590	56.6760
 0.7600	56.7740
 0.7610	56.8250
 0.7620	56.8810
 0.7630	56.9310
 0.7640	56.9600
 0.7650	57.0080
 0.7660	57.0450
 0.7670	57.0650
 0.7680	57.0820
 0.7690	57.1000
 0.7700	57.1240
 0.7710	57.1450
 0.7720	57.1490
 0.7730	57.1430
 0.7740	57.1370
 0.7750	57.1420
 0.7760	57.1620
 0.7770	57.1630
 0.7780	57.1590
 0.7790	57.1770
 0.7800	57.1680
 0.7810	57.1670
 0.7820	57.1750
 0.7830	57.1580
 0.7840	57.1650
 0.7850	57.1650
 0.7860	57.1450
 0.7870	57.1680
 0.7880	57.1620
 0.7890	57.1400
 0.7900	57.1340
 0.7910	57.1390
 0.7920	57.1280
 0.7930	57.1110
 0.7940	57.1170
 0.7950	57.0990
 0.7960	57.0930
 0.7970	57.1020
 0.7980	57.0720
 0.7990	57.0510
 0.8000	57.0460
 0.8010	57.0450
 0.8020	57.0300
 0.8030	57.0290
 0.8040	57.0260
 0.8050	56.9970
 0.8060	56.9840
 0.8070	56.9840
 0.8080	56.9810
 0.8090	56.9540
 0.8100	56.9450
 0.8110	56.9410
 0.8120	56.9330
 0.8130	56.9340
 0.8140	56.9140
 0.8150	56.8860
 0.8160	56.8700
 0.8170	56.8560
 0.8180	56.8420
 0.8190	56.8350
 0.8200	56.8390
 0.8210	56.8280
 0.8220	56.8210
 0.8230	56.8130
 0.8240	56.7840
 0.8250	56.7640
 0.8260	56.7620
 0.8270	56.7660
 0.8280	56.7350
 0.8290	56.7360
 0.8300	56.7300
 0.8310	56.6860
 0.8320	56.6740
 0.8330	56.6810
 0.8340	56.6840
 0.8350	56.6680
 0.8360	56.6880
 0.8370	56.6950
 0.8380	56.6760
 0.8390	56.6590
 0.8400	56.6940
 0.8410	56.7070
 0.8420	56.6810
 0.8430	56.6930
 0.8440	56.6810
 0.8450	56.6780
 0.8460	56.7050
 0.8470	56.6960
 0.8480	56.7150
 0.8490	56.7280
 0.8500	56.7010
 0.8510	56.7280
 0.8520	56.7480
 0.8530	56.7440
 0.8540	56.7350
 0.8550	56.7570
 0.8560	56.7690
 0.8570	56.7660
 0.8580	56.7800
 0.8590	56.8020
 0.8600	56.8080
 0.8610	56.8030
 0.8620	56.8360
 0.8630	56.8260
 0.8640	56.8180
 0.8650	56.8590
 0.8660	56.9020
 0.8670	56.8900
 0.8680	56.8660
 0.8690	56.8880
 0.8700	56.8840
 0.8710	56.9020
 0.8720	56.9230
 0.8730	56.9020
 0.8740	56.9080
 0.8750	56.9150
 0.8760	56.9310
 0.8770	56.9890
 0.8780	56.9960
 0.8790	56.9930
 0.8800	57.0030
 0.8810	57.0050
 0.8820	57.0020
 0.8830	57.0020
 0.8840	57.0100
 0.8850	57.0220
 0.8860	57.0200
 0.8870	57.0380
 0.8880	57.0830
 0.8890	57.0290
 0.8900	57.0370
 0.8910	57.0780
 0.8920	57.0640
 0.8930	57.0770
 0.8940	57.0860
 0.8950	57.0770
 0.8960	57.0570
 0.8970	57.1020
 0.8980	57.1140
 0.8990	57.0800
 0.9000	57.0790
 0.9010	57.1070
 0.9020	57.1140
 0.9030	57.0930
 0.9040	57.1020
 0.9050	57.1160
 0.9060	57.1200
 0.9070	57.1070
 0.9080	57.0790
 0.9090	57.1020
 0.9100	57.1270
 0.9110	57.1110
 0.9120	57.1230
 0.9130	57.0900
 0.9140	57.0590
 0.9150	57.0830
 0.9160	57.1080
 0.9170	57.0470
 0.9180	56.9860
 0.9190	57.0320
 0.9200	56.9970
 0.9210	56.9680
 0.9220	56.9530
 0.9230	56.9230
 0.9240	56.9620
 0.9250	56.9800
 0.9260	56.9410
 0.9270	56.8670
 0.9280	56.8390
 0.9290	56.7970
 0.9300	56.7180
 0.9310	56.6380
 0.9320	56.6910
 0.9330	56.7150
 0.9340	56.6450
 0.9350	56.5890
 0.9360	56.5580
 0.9370	56.5120
 0.9380	56.4490
 0.9390	56.4240
 0.9400	56.3630
 0.9410	56.3250
 0.9420	56.3430
 0.9430	56.3670
 0.9440	56.2620
 0.9450	56.1690
 0.9460	56.1680
 0.9470	56.0790
 0.9480	55.9710
 0.9490	55.9050
 0.9500	55.8930
 0.9510	55.8360
 0.9520	55.6900
 0.9530	55.5610
 0.9540	55.5260
 0.9550	55.4440
 0.9560	55.2930
 0.9570	55.1570
 0.9580	55.1180
 0.9590	55.1260
 0.9600	55.0440
 0.9610	54.9630
 0.9620	54.9830
 0.9630	54.8840
 0.9640	54.8400
 0.9650	54.8080
 0.9660	54.7110
 0.9670	54.7270
 0.9680	54.7960
 0.9690	54.7960
 0.9700	54.6630
 0.9710	54.6870
 0.9720	54.7380
 0.9730	54.7280
 0.9740	54.6300
 0.9750	54.5420
 0.9760	54.5730
 0.9770	54.6250
 0.9780	54.5650
 0.9790	54.6080
 0.9800	54.7240
 0.9810	54.7890
 0.9820	54.7010
 0.9830	54.6520
 0.9840	54.6620
 0.9850	54.6670
 0.9860	54.6150
 0.9870	54.7010
 0.9880	54.7330
 0.9890	54.6960
 0.9900	54.6840
 0.9910	54.7630
 0.9920	54.7500
 0.9930	54.7050
 0.9940	54.7620
 0.9950	54.7820
 0.9960	54.7920
 0.9970	54.8220
 0.9980	54.8660
 0.9990	54.7890
 1.0000	54.7850
 1.0010	54.9260
 1.0020	54.9220
 1.0030	54.9210
 1.0040	54.9650
 1.0050	54.9650
 1.0060	55.0130
 1.0070	55.1060
 1.0080	55.1420
 1.0090	55.1590
 1.0100	55.1910
 1.0110	55.2040
 1.0120	55.2240
 1.0130	55.2760
 1.0140	55.3000
 1.0150	55.3180
 1.0160	55.2880
 1.0170	55.2620
 1.0180	55.2770
 1.0190	55.2990
 1.0200	55.3420
 1.0210	55.3840
 1.0220	55.4520
 1.0230	55.5090
 1.0240	55.5640
 1.0250	55.6070
 1.0260	55.6620
 1.0270	55.6890
 1.0280	55.6980
 1.0290	55.7070
 1.0300	55.6880
 1.0310	55.6910
 1.0320	55.7200
 1.0330	55.6990
 1.0340	55.6990
 1.0350	55.7290
 1.0360	55.7450
 1.0370	55.8030
 1.0380	55.8420
 1.0390	55.8950
 1.0400	55.9290
 1.0410	55.9540
 1.0420	55.9800
 1.0430	55.9990
 1.0440	56.0260
 1.0450	56.0520
 1.0460	56.0760
 1.0470	56.1160
 1.0480	56.1370
 1.0490	56.1290
 1.0500	56.1420
 1.0510	56.1670
 1.0520	56.1770
 1.0530	56.1830
 1.0540	56.1940
 1.0550	56.2070
 1.0560	56.2040
 1.0570	56.2150
 1.0580	56.2440
 1.0590	56.2660
 1.0600	56.2990
 1.0610	56.3010
 1.0620	56.2740
 1.0630	56.2800
 1.0640	56.2750
 1.0650	56.2810
 1.0660	56.3370
 1.0670	56.3610
 1.0680	56.3720
 1.0690	56.3660
 1.0700	56.3580
 1.0710	56.3200
 1.0720	56.3330
 1.0730	56.3640
 1.0740	56.3850
 1.0750	56.4380
 1.0760	56.4620
 1.0770	56.4670
 1.0780	56.4650
 1.0790	56.4520
 1.0800	56.4450
 1.0810	56.4250
 1.0820	56.4140
 1.0830	56.4140
 1.0840	56.4160
 1.0850	56.4240
 1.0860	56.4240
 1.0870	56.4220
 1.0880	56.4260
 1.0890	56.4170
 1.0900	56.3910
 1.0910	56.3820
 1.0920	56.3730
 1.0930	56.3680
 1.0940	56.3810
 1.0950	56.3720
 1.0960	56.3470
 1.0970	56.3290
 1.0980	56.3000
 1.0990	56.2800
 1.1000	56.2740
 1.1010	56.2610
 1.1020	56.2500
 1.1030	56.2320
 1.1040	56.2150
 1.1050	56.1870
 1.1060	56.1570
 1.1070	56.1070
 1.1080	56.0920
 1.1090	56.0940
 1.1100	56.0740
 1.1110	56.0600
 1.1120	56.0460
 1.1130	56.0160
 1.1140	55.9920
 1.1150	55.9890
 1.1160	55.9630
 1.1170	55.9250
 1.1180	55.8760
 1.1190	55.8010
 1.1200	55.7450
 1.1210	55.7150
 1.1220	55.6770
 1.1230	55.6480
 1.1240	55.6070
 1.1250	55.5460
 1.1260	55.4420
 1.1270	55.3700
 1.1280	55.3150
 1.1290	55.2340
 1.1300	55.1590
 1.1310	55.0610
 1.1320	54.9430
 1.1330	54.8120
 1.1340	54.6590
 1.1350	54.5090
 1.1360	54.3400
 1.1370	54.1780
 1.1380	54.0260
 1.1390	53.8630
 1.1400	53.6880
 1.1410	53.5190
 1.1420	53.3510
 1.1430	53.1810
 1.1440	53.0000
 1.1450	52.8120
 1.1460	52.6310
 1.1470	52.4330
 1.1480	52.2590
 1.1490	52.0990
 1.1500	51.9450
 1.1510	51.7990
 1.1520	51.6570
 1.1530	51.5160
 1.1540	51.3920
 1.1550	51.2680
 1.1560	51.1740
 1.1570	51.1010
 1.1580	51.0220
 1.1590	50.9540
 1.1600	50.8890
 1.1610	50.8250
 1.1620	50.7760
 1.1630	50.7310
 1.1640	50.6840
 1.1650	50.6440
 1.1660	50.6050
 1.1670	50.5700
 1.1680	50.5410
 1.1690	50.5140
 1.1700	50.4840
 1.1710	50.4620
 1.1720	50.4430
 1.1730	50.4310
 1.1740	50.4280
 1.1750	50.4270
 1.1760	50.4170
 1.1770	50.4010
 1.1780	50.3650
 1.1790	50.3220
 1.1800	50.2910
 1.1810	50.2640
 1.1820	50.2420
 1.1830	50.2230
 1.1840	50.2050
 1.1850	50.1850
 1.1860	50.1620
 1.1870	50.1380
 1.1880	50.1130
 1.1890	50.0720
 1.1900	50.0550
 1.1910	50.0510
 1.1920	50.0410
 1.1930	50.0400
 1.1940	50.0320
 1.1950	50.0100
 1.1960	50.0070
 1.1970	49.9980
 1.1980	50.0010
 1.1990	50.0120
 1.2000	50.0050
 1.2010	50.0040
 1.2020	50.0100
 1.2030	50.0080
 1.2040	50.0080
 1.2050	50.0090
 1.2060	50.0080
 1.2070	50.0200
 1.2080	50.0460
 1.2090	50.0810
 1.2100	50.1080
 1.2110	50.1230
 1.2120	50.1150
 1.2130	50.1260
 1.2140	50.1340
 1.2150	50.1600
 1.2160	50.2030
 1.2170	50.2460
 1.2180	50.2910
 1.2190	50.3220
 1.2200	50.3520
 1.2210	50.3930
 1.2220	50.4320
 1.2230	50.4710
 1.2240	50.5180
 1.2250	50.5640
 1.2260	50.6070
 1.2270	50.6450
 1.2280	50.6770
 1.2290	50.7060
 1.2300	50.7320
 1.2310	50.7590
 1.2320	50.7930
 1.2330	50.8250
 1.2340	50.8560
 1.2350	50.8890
 1.2360	50.9230
 1.2370	50.9590
 1.2380	50.9810
 1.2390	51.0110
 1.2400	51.0470
 1.2410	51.0540
 1.2420	51.0700
 1.2430	51.0880
 1.2440	51.0870
 1.2450	51.0930
 1.2460	51.1170
 1.2470	51.1470
 1.2480	51.1760
 1.2490	51.2140
 1.2500	51.2310
 1.2510	51.2350
 1.2520	51.2420
 1.2530	51.2490
 1.2540	51.2790
 1.2550	51.3090
 1.2560	51.3390
 1.2570	51.3650
 1.2580	51.3690
 1.2590	51.3860
 1.2600	51.4160
 1.2610	51.4250
 1.2620	51.4260
 1.2630	51.4300
 1.2640	51.4170
 1.2650	51.3970
 1.2660	51.4020
 1.2670	51.4070
 1.2680	51.4070
 1.2690	51.4120
 1.2700	51.4100
 1.2710	51.3960
 1.2720	51.3770
 1.2730	51.3610
 1.2740	51.3290
 1.2750	51.3020
 1.2760	51.2950
 1.2770	51.2830
 1.2780	51.2620
 1.2790	51.2460
 1.2800	51.2240
 1.2810	51.1900
 1.2820	51.1600
 1.2830	51.1280
 1.2840	51.1010
 1.2850	51.0760
 1.2860	51.0430
 1.2870	51.0090
 1.2880	50.9790
 1.2890	50.9290
 1.2900	50.8720
 1.2910	50.8360
 1.2920	50.7920
 1.2930	50.7470
 1.2940	50.7180
 1.2950	50.6730
 1.2960	50.6210
 1.2970	50.5630
 1.2980	50.5030
 1.2990	50.4470
 1.3000	50.3830
 1.3010	50.3170
 1.3020	50.2510
 1.3030	50.1700
 1.3040	50.0830
 1.3050	50.0060
 1.3060	49.9160
 1.3070	49.8110
 1.3080	49.7080
 1.3090	49.5950
 1.3100	49.4910
 1.3110	49.3900
 1.3120	49.2800
 1.3130	49.1680
 1.3140	49.0530
 1.3150	48.9280
 1.3160	48.8040
 1.3170	48.6790
 1.3180	48.5610
 1.3190	48.4370
 1.3200	48.3010
 1.3210	48.1590
 1.3220	48.0090
 1.3230	47.8490
 1.3240	47.6950
 1.3250	47.5370
 1.3260	47.3510
 1.3270	47.1690
 1.3280	46.9880
 1.3290	46.8100
 1.3300	46.6600
 1.3310	46.5030
 1.3320	46.3360
 1.3330	46.1680
 1.3340	45.9920
 1.3350	45.8170
 1.3360	45.6350
 1.3370	45.4600
 1.3380	45.2850
 1.3390	45.1110
 1.3400	44.9440
 1.3410	44.7720
 1.3420	44.5990
 1.3430	44.4230
 1.3440	44.2490
 1.3450	44.0850
 1.3460	43.9230
 1.3470	43.7680
 1.3480	43.6290
 1.3490	43.4790
 1.3500	43.3270
 1.3510	43.1780
 1.3520	43.0220
 1.3530	42.8630
 1.3540	42.7140
 1.3550	42.5640
 1.3560	42.4130
 1.3570	42.2620
 1.3580	42.1050
 1.3590	41.9330
 1.3600	41.7580
 1.3610	41.5880
 1.3620	41.4120
 1.3630	41.2400
 1.3640	41.0580
 1.3650	40.8580
 1.3660	40.6530
 1.3670	40.4280
 1.3680	40.1910
 1.3690	39.9460
 1.3700	39.6780
 1.3710	39.3960
 1.3720	39.0910
 1.3730	38.7660
 1.3740	38.4280
 1.3750	38.0640
 1.3760	37.6790
 1.3770	37.2710
 1.3780	36.8240
 1.3790	36.3540
 1.3800	35.8570
 1.3810	35.3290
 1.3820	34.7840
 1.3830	34.2190
 1.3840	33.6310
 1.3850	33.0190
 1.3860	32.3960
 1.3870	31.7440
 1.3880	31.0990
 1.3890	30.4460
 1.3900	29.7850
 1.3910	29.1290
 1.3920	28.4720
 1.3930	27.8160
 1.3940	27.1730
 1.3950	26.5400
 1.3960	25.9210
 1.3970	25.3210
 1.3980	24.7340
 1.3990	24.1660
 1.4000	23.6240
 1.4010	23.1070
 1.4020	22.6150
 1.4030	22.1490
 1.4040	21.7040
 1.4050	21.2800
 1.4060	20.8810
 1.4070	20.5150
 1.4080	20.1670
 1.4090	19.8420
 1.4100	19.5370
 1.4110	19.2520
 1.4120	18.9870
 1.4130	18.7420
 1.4140	18.5220
 1.4150	18.3140
 1.4160	18.1200
 1.4170	17.9400
 1.4180	17.7680
 1.4190	17.6110
 1.4200	17.4660
 1.4210	17.3280
 1.4220	17.2030
 1.4230	17.0860
 1.4240	16.9780
 1.4250	16.8800
 1.4260	16.7960
 1.4270	16.7110
 1.4280	16.6330
 1.4290	16.5600
 1.4300	16.4910
 1.4310	16.4320
 1.4320	16.3850
 1.4330	16.3360
 1.4340	16.2910
 1.4350	16.2520
 1.4360	16.2150
 1.4370	16.1820
 1.4380	16.1580
 1.4390	16.1360
 1.4400	16.1110
 1.4410	16.0930
 1.4420	16.0790
 1.4430	16.0640
 1.4440	16.0580
 1.4450	16.0540
 1.4460	16.0520
 1.4470	16.0540
 1.4480	16.0510
 1.4490	16.0500
 1.4500	16.0490
 1.4510	16.0510
 1.4520	16.0610
 1.4530	16.0750
 1.4540	16.0910
 1.4550	16.1100
 1.4560	16.1290
 1.4570	16.1520
 1.4580	16.1770
 1.4590	16.2020
 1.4600	16.2320
 1.4610	16.2630
 1.4620	16.3040
 1.4630	16.3500
 1.4640	16.3960
 1.4650	16.4540
 1.4660	16.5120
 1.4670	16.5690
 1.4680	16.6370
 1.4690	16.7050
 1.4700	16.7760
 1.4710	16.8570
 1.4720	16.9380
 1.4730	17.0180
 1.4740	17.1040
 1.4750	17.1900
 1.4760	17.2790
 1.4770	17.3760
 1.4780	17.4740
 1.4790	17.5760
 1.4800	17.6760
 1.4810	17.7790
 1.4820	17.8890
 1.4830	17.9970
 1.4840	18.1110
 1.4850	18.2230
 1.4860	18.3310
 1.4870	18.4480
 1.4880	18.5670
 1.4890	18.6920
 1.4900	18.8190
 1.4910	18.9510
 1.4920	19.0780
 1.4930	19.2030
 1.4940	19.3270
 1.4950	19.4490
 1.4960	19.5780
 1.4970	19.7110
 1.4980	19.8410
 1.4990	19.9730
 1.5000	20.1030
 1.5010	20.2260
 1.5020	20.3570
 1.5030	20.4960
 1.5040	20.6310
 1.5050	20.7700
 1.5060	20.9070
 1.5070	21.0390
 1.5080	21.1740
 1.5090	21.3100
 1.5100	21.4450
 1.5110	21.5840
 1.5120	21.7230
 1.5130	21.8570
 1.5140	21.9910
 1.5150	22.1280
 1.5160	22.2660
 1.5170	22.4030
 1.5180	22.5430
 1.5190	22.6780
 1.5200	22.8130
 1.5210	22.9510
 1.5220	23.0910
 1.5230	23.2290
 1.5240	23.3620
 1.5250	23.4920
 1.5260	23.6220
 1.5270	23.7540
 1.5280	23.8850
 1.5290	24.0170
 1.5300	24.1470
 1.5310	24.2760
 1.5320	24.4080
 1.5330	24.5370
 1.5340	24.6650
 1.5350	24.7930
 1.5360	24.9250
 1.5370	25.0580
 1.5380	25.1870
 1.5390	25.3100
 1.5400	25.4270
 1.5410	25.5420
 1.5420	25.6590
 1.5430	25.7830
 1.5440	25.9150
 1.5450	26.0440
 1.5460	26.1700
 1.5470	26.2990
 1.5480	26.4180
 1.5490	26.5310
 1.5500	26.6490
 1.5510	26.7650
 1.5520	26.8800
 1.5530	26.9960
 1.5540	27.1120
 1.5550	27.2210
 1.5560	27.3310
 1.5570	27.4430
 1.5580	27.5510
 1.5590	27.6670
 1.5600	27.7790
 1.5610	27.8850
 1.5620	27.9920
 1.5630	28.0910
 1.5640	28.1870
 1.5650	28.2890
 1.5660	28.3940
 1.5670	28.4930
 1.5680	28.5950
 1.5690	28.6970
 1.5700	28.7970
 1.5710	28.8980
 1.5720	29.0020
 1.5730	29.1050
 1.5740	29.2000
 1.5750	29.2960
 1.5760	29.3880
 1.5770	29.4750
 1.5780	29.5660
 1.5790	29.6530
 1.5800	29.7430
 1.5810	29.8270
 1.5820	29.9070
 1.5830	29.9920
 1.5840	30.0830
 1.5850	30.1800
 1.5860	30.2830
 1.5870	30.3850
 1.5880	30.4700
 1.5890	30.5440
 1.5900	30.6170
 1.5910	30.6950
 1.5920	30.7780
 1.5930	30.8640
 1.5940	30.9500
 1.5950	31.0320
 1.5960	31.1030
 1.5970	31.1780
 1.5980	31.2580
 1.5990	31.3270
 1.6000	31.4090
 1.6010	31.4940
 1.6020	31.5670
 1.6030	31.6350
 1.6040	31.6960
 1.6050	31.7600
 1.6060	31.8260
 1.6070	31.9010
 1.6080	31.9820
 1.6090	32.0490
 1.6100	32.1180
 1.6110	32.1840
 1.6120	32.2460
 1.6130	32.3070
 1.6140	32.3620
 1.6150	32.4160
 1.6160	32.4710
 1.6170	32.5340
 1.6180	32.6020
 1.6190	32.6660
 1.6200	32.7280
 1.6210	32.7880
 1.6220	32.8410
 1.6230	32.8990
 1.6240	32.9650
 1.6250	33.0190
 1.6260	33.0700
 1.6270	33.1150
 1.6280	33.1460
 1.6290	33.1920
 1.6300	33.2430
 1.6310	33.2930
 1.6320	33.3500
 1.6330	33.4010
 1.6340	33.4530
 1.6350	33.5000
 1.6360	33.5420
 1.6370	33.5830
 1.6380	33.6150
 1.6390	33.6560
 1.6400	33.7010
 1.6410	33.7440
 1.6420	33.7960
 1.6430	33.8330
 1.6440	33.8590
 1.6450	33.8850
 1.6460	33.9010
 1.6470	33.9370
 1.6480	33.9700
 1.6490	33.9990
 1.6500	34.0350
 1.6510	34.0520
 1.6520	34.0690
 1.6530	34.0900
 1.6540	34.1040
 1.6550	34.1130
 1.6560	34.1240
 1.6570	34.1380
 1.6580	34.1520
 1.6590	34.1670
 1.6600	34.1800
 1.6610	34.1820
 1.6620	34.1870
 1.6630	34.1940
 1.6640	34.1940
 1.6650	34.2000
 1.6660	34.2010
 1.6670	34.1940
 1.6680	34.1990
 1.6690	34.2000
 1.6700	34.1950
 1.6710	34.1990
 1.6720	34.1940
 1.6730	34.1850
 1.6740	34.1810
 1.6750	34.1700
 1.6760	34.1590
 1.6770	34.1530
 1.6780	34.1440
 1.6790	34.1250
 1.6800	34.1070
 1.6810	34.0810
 1.6820	34.0490
 1.6830	34.0230
 1.6840	33.9950
 1.6850	33.9700
 1.6860	33.9450
 1.6870	33.9130
 1.6880	33.8790
 1.6890	33.8280
 1.6900	33.7870
 1.6910	33.7520
 1.6920	33.7130
 1.6930	33.6770
 1.6940	33.6380
 1.6950	33.5960
 1.6960	33.5550
 1.6970	33.5180
 1.6980	33.4760
 1.6990	33.4280
 1.7000	33.3810
 1.7010	33.3300
 1.7020	33.2820
 1.7030	33.2410
 1.7040	33.1880
 1.7050	33.1300
 1.7060	33.0700
 1.7070	32.9980
 1.7080	32.9340
 1.7090	32.8740
 1.7100	32.8090
 1.7110	32.7460
 1.7120	32.6930
 1.7130	32.6310
 1.7140	32.5790
 1.7150	32.5210
 1.7160	32.4530
 1.7170	32.3930
 1.7180	32.3380
 1.7190	32.2810
 1.7200	32.2280
 1.7210	32.1660
 1.7220	32.0860
 1.7230	32.0040
 1.7240	31.9170
 1.7250	31.8340
 1.7260	31.7690
 1.7270	31.7020
 1.7280	31.6310
 1.7290	31.5720
 1.7300	31.5060
 1.7310	31.4500
 1.7320	31.4020
 1.7330	31.3590
 1.7340	31.3250
 1.7350	31.2940
 1.7360	31.2800
 1.7370	31.2490
 1.7380	31.2130
 1.7390	31.1720
 1.7400	31.1120
 1.7410	31.0630
 1.7420	31.0230
 1.7430	30.9690
 1.7440	30.9120
 1.7450	30.8500
 1.7460	30.7720
 1.7470	30.7020
 1.7480	30.6320
 1.7490	30.5590
 1.7500	30.4820
 1.7510	30.4070
 1.7520	30.3330
 1.7530	30.2510
 1.7540	30.1630
 1.7550	30.0890
 1.7560	30.0070
 1.7570	29.9530
 1.7580	29.8950
 1.7590	29.8160
 1.7600	29.7470
 1.7610	29.6710
 1.7620	29.5970
 1.7630	29.5320
 1.7640	29.4630
 1.7650	29.3830
 1.7660	29.3170
 1.7670	29.2610
 1.7680	29.2070
 1.7690	29.1600
 1.7700	29.1170
 1.7710	29.0780
 1.7720	29.0390
 1.7730	29.0050
 1.7740	28.9670
 1.7750	28.9220
 1.7760	28.8860
 1.7770	28.8560
 1.7780	28.8210
 1.7790	28.7850
 1.7800	28.7540
 1.7810	28.7180
 1.7820	28.6980
 1.7830	28.6920
 1.7840	28.6760
 1.7850	28.6640
 1.7860	28.6440
 1.7870	28.6150
 1.7880	28.5920
 1.7890	28.5790
 1.7900	28.5690
 1.7910	28.5570
 1.7920	28.5440
 1.7930	28.5350
 1.7940	28.5280
 1.7950	28.5230
 1.7960	28.5200
 1.7970	28.5220
 1.7980	28.5230
 1.7990	28.5330
 1.8000	28.5550
 1.8010	28.5730
 1.8020	28.6040
 1.8030	28.6180
 1.8040	28.6250
 1.8050	28.6290
 1.8060	28.6210
 1.8070	28.6230
 1.8080	28.6290
 1.8090	28.6370
 1.8100	28.6520
 1.8110	28.6580
 1.8120	28.6680
 1.8130	28.6880
 1.8140	28.7000
 1.8150	28.7010
 1.8160	28.6960
 1.8170	28.6860
 1.8180	28.6810
 1.8190	28.6870
 1.8200	28.6930
 1.8210	28.7010
 1.8220	28.6940
 1.8230	28.6770
 1.8240	28.6640
 1.8250	28.6320
 1.8260	28.6200
 1.8270	28.6360
 1.8280	28.6280
 1.8290	28.6200
 1.8300	28.5930
 1.8310	28.4640
 1.8320	28.4670
 1.8330	28.4100
 1.8340	28.3610
 1.8350	28.2780
 1.8360	28.2030
 1.8370	28.1800
 1.8380	28.1100
 1.8390	28.0280
 1.8400	27.9340
 1.8410	27.8400
 1.8420	27.7200
 1.8430	27.6080
 1.8440	27.5250
 1.8450	27.4100
 1.8460	27.3100
 1.8470	27.2160
 1.8480	27.0710
 1.8490	26.9330
 1.8500	26.7810
 1.8510	26.6050
 1.8520	26.4180
 1.8530	26.2380
 1.8540	26.0240
 1.8550	25.7960
 1.8560	25.5530
 1.8570	25.3240
 1.8580	25.0810
 1.8590	24.8070
 1.8600	24.5160
 1.8610	24.2030
 1.8620	23.8610
 1.8630	23.5130
 1.8640	23.1550
 1.8650	22.7970
 1.8660	22.3990
 1.8670	21.9870
 1.8680	21.5930
 1.8690	21.1680
 1.8700	20.7290
 1.8710	20.2870
 1.8720	19.8300
 1.8730	19.3460
 1.8740	18.8690
 1.8750	18.3850
 1.8760	17.9060
 1.8770	17.4440
 1.8780	16.9610
 1.8790	16.4930
 1.8800	16.0420
 1.8810	15.6100
 1.8820	15.1610
 1.8830	14.7360
 1.8840	14.3260
 1.8850	13.9210
 1.8860	13.5480
 1.8870	13.2040
 1.8880	12.8760
 1.8890	12.5580
 1.8900	12.2600
 1.8910	11.9790
 1.8920	11.7070
 1.8930	11.4590
 1.8940	11.2490
 1.8950	11.0560
 1.8960	10.8920
 1.8970	10.7490
 1.8980	10.6160
 1.8990	10.5120
 1.9000	10.4070
 1.9010	10.3070
 1.9020	10.2250
 1.9030	10.1590
 1.9040	10.0980
 1.9050	10.0580
 1.9060	10.0180
 1.9070	 9.9840
 1.9080	 9.9490
 1.9090	 9.8830
 1.9100	 9.8460
 1.9110	 9.8210
 1.9120	 9.7910
 1.9130	 9.7810
 1.9140	 9.8020
 1.9150	 9.8170
 1.9160	 9.8170
 1.9170	 9.8380
 1.9180	 9.8420
 1.9190	 9.8250
 1.9200	 9.8050
 1.9210	 9.7790
 1.9220	 9.7680
 1.9230	 9.7620
 1.9240	 9.7620
 1.9250	 9.7780
 1.9260	 9.7900
 1.9270	 9.7900
 1.9280	 9.7770
 1.9290	 9.7680
 1.9300	 9.7720
 1.9310	 9.7740
 1.9320	 9.7920
 1.9330	 9.8060
 1.9340	 9.8180
 1.9350	 9.8290
 1.9360	 9.8530
 1.9370	 9.8600
 1.9380	 9.8520
 1.9390	 9.8550
 1.9400	 9.8540
 1.9410	 9.8490
 1.9420	 9.8470
 1.9430	 9.8540
 1.9440	 9.8630
 1.9450	 9.8730
 1.9460	 9.8830
 1.9470	 9.9000
 1.9480	 9.9100
 1.9490	 9.9150
 1.9500	 9.9160
 1.9510	 9.9190
 1.9520	 9.9360
 1.9530	 9.9530
 1.9540	 9.9660
 1.9550	 9.9860
 1.9560	10.0160
 1.9570	10.0340
 1.9580	10.0560
 1.9590	10.0680
 1.9600	10.0680
 1.9610	10.0730
 1.9620	10.0700
 1.9630	10.0680
 1.9640	10.0980
 1.9650	10.1070
 1.9660	10.1200
 1.9670	10.1620
 1.9680	10.1880
 1.9690	10.2070
 1.9700	10.2300
 1.9710	10.2600
 1.9720	10.2830
 1.9730	10.2980
 1.9740	10.3180
 1.9750	10.3490
 1.9760	10.3720
 1.9770	10.3990
 1.9780	10.4400
 1.9790	10.4610
 1.9800	10.4650
 1.9810	10.4850
 1.9820	10.4970
 1.9830	10.5240
 1.9840	10.5740
 1.9850	10.6100
 1.9860	10.6430
 1.9870	10.6790
 1.9880	10.6990
 1.9890	10.7320
 1.9900	10.7690
 1.9910	10.8060
 1.9920	10.8440
 1.9930	10.8930
 1.9940	10.9210
 1.9950	10.9300
 1.9960	10.9590
 1.9970	10.9790
 1.9980	11.0150
 1.9990	11.0730
 2.0000	11.1300
 2.0010	11.1690
 2.0020	11.2140
 2.0030	11.2560
 2.0040	11.2910
 2.0050	11.3290
 2.0060	11.3670
 2.0070	11.4100
 2.0080	11.4460
 2.0090	11.4940
 2.0100	11.5550
 2.0110	11.6100
 2.0120	11.6680
 2.0130	11.7310
 2.0140	11.7710
 2.0150	11.8200
 2.0160	11.8580
 2.0170	11.9090
 2.0180	11.9560
 2.0190	12.0080
 2.0200	12.0550
 2.0210	12.0940
 2.0220	12.1430
 2.0230	12.1990
 2.0240	12.2550
 2.0250	12.3260
 2.0260	12.3800
 2.0270	12.4170
 2.0280	12.4690
 2.0290	12.5170
 2.0300	12.5390
 2.0310	12.5760
 2.0320	12.6180
 2.0330	12.6550
 2.0340	12.6910
 2.0350	12.7320
 2.0360	12.7770
 2.0370	12.8230
 2.0380	12.8740
 2.0390	12.9200
 2.0400	12.9540
 2.0410	13.0030
 2.0420	13.0610
 2.0430	13.1210
 2.0440	13.1710
 2.0450	13.2360
 2.0460	13.2790
 2.0470	13.2950
 2.0480	13.3320
 2.0490	13.3730
 2.0500	13.4090
 2.0510	13.4380
 2.0520	13.4860
 2.0530	13.5430
 2.0540	13.5960
 2.0550	13.6620
 2.0560	13.7270
 2.0570	13.7770
 2.0580	13.8170
 2.0590	13.8630
 2.0600	13.9110
 2.0610	13.9550
 2.0620	13.9970
 2.0630	14.0390
 2.0640	14.0730
 2.0650	14.1210
 2.0660	14.1790
 2.0670	14.2320
 2.0680	14.2970
 2.0690	14.3470
 2.0700	14.3760
 2.0710	14.4200
 2.0720	14.4640
 2.0730	14.5130
 2.0740	14.5560
 2.0750	14.6000
 2.0760	14.6480
 2.0770	14.6910
 2.0780	14.7380
 2.0790	14.7970
 2.0800	14.8500
 2.0810	14.8940
 2.0820	14.9430
 2.0830	15.0010
 2.0840	15.0470
 2.0850	15.0780
 2.0860	15.1190
 2.0870	15.1530
 2.0880	15.1940
 2.0890	15.2460
 2.0900	15.3090
 2.0910	15.3760
 2.0920	15.4560
 2.0930	15.5240
 2.0940	15.5960
 2.0950	15.6580
 2.0960	15.7140
 2.0970	15.7610
 2.0980	15.7950
 2.0990	15.8340
 2.1000	15.8660
 2.1010	15.9010
 2.1020	15.9390
 2.1030	15.9790
 2.1040	16.0130
 2.1050	16.0480
 2.1060	16.0940
 2.1070	16.1480
 2.1080	16.1980
 2.1090	16.2580
 2.1100	16.3050
 2.1110	16.3390
 2.1120	16.3910
 2.1130	16.4410
 2.1140	16.5010
 2.1150	16.5750
 2.1160	16.6460
 2.1170	16.7370
 2.1180	16.7980
 2.1190	16.8460
 2.1200	16.8920
 2.1210	16.9170
 2.1220	16.9390
 2.1230	16.9730
 2.1240	17.0120
 2.1250	17.0510
 2.1260	17.0950
 2.1270	17.1290
 2.1280	17.1580
 2.1290	17.1950
 2.1300	17.2230
 2.1310	17.2600
 2.1320	17.3120
 2.1330	17.3540
 2.1340	17.3950
 2.1350	17.4360
 2.1360	17.4780
 2.1370	17.5160
 2.1380	17.5490
 2.1390	17.5810
 2.1400	17.5940
 2.1410	17.6330
 2.1420	17.6780
 2.1430	17.7350
 2.1440	17.7830
 2.1450	17.8550
 2.1460	17.8810
 2.1470	17.8780
 2.1480	17.8810
 2.1490	17.8480
 2.1500	17.8540
 2.1510	17.8720
 2.1520	17.9010
 2.1530	17.9600
 2.1540	18.0050
 2.1550	18.0510
 2.1560	18.0990
 2.1570	18.1630
 2.1580	18.2020
 2.1590	18.2270
 2.1600	18.2520
 2.1610	18.2740
 2.1620	18.2720
 2.1630	18.2890
 2.1640	18.3220
 2.1650	18.3400
 2.1660	18.3500
 2.1670	18.3670
 2.1680	18.3830
 2.1690	18.4040
 2.1700	18.4290
 2.1710	18.4540
 2.1720	18.4810
 2.1730	18.5050
 2.1740	18.5200
 2.1750	18.5490
 2.1760	18.6000
 2.1770	18.6250
 2.1780	18.6380
 2.1790	18.6600
 2.1800	18.6660
 2.1810	18.6780
 2.1820	18.7180
 2.1830	18.7280
 2.1840	18.7500
 2.1850	18.7590
 2.1860	18.7870
 2.1870	18.8330
 2.1880	18.8600
 2.1890	18.8820
 2.1900	18.9080
 2.1910	18.9200
 2.1920	18.9450
 2.1930	18.9820
 2.1940	19.0140
 2.1950	19.0510
 2.1960	19.0760
 2.1970	19.0960
 2.1980	19.1160
 2.1990	19.1290
 2.2000	19.1390
 2.2010	19.1610
 2.2020	19.1610
 2.2030	19.1160
 2.2040	19.1100
 2.2050	19.1060
 2.2060	19.1110
 2.2070	19.1410
 2.2080	19.2260
 2.2090	19.2470
 2.2100	19.2500
 2.2110	19.2590
 2.2120	19.2430
 2.2130	19.2480
 2.2140	19.2700
 2.2150	19.2860
 2.2160	19.3130
 2.2170	19.3110
 2.2180	19.2900
 2.2190	19.2850
 2.2200	19.2640
 2.2210	19.2520
 2.2220	19.2630
 2.2230	19.2620
 2.2240	19.2420
 2.2250	19.2400
 2.2260	19.2540
 2.2270	19.2580
 2.2280	19.2600
 2.2290	19.2670
 2.2300	19.2880
 2.2310	19.2900
 2.2320	19.2590
 2.2330	19.2510
 2.2340	19.2150
 2.2350	19.1370
 2.2360	19.1000
 2.2370	19.0780
 2.2380	19.0510
 2.2390	19.0370
 2.2400	19.0080
 2.2410	18.9760
 2.2420	18.9370
 2.2430	18.8870
 2.2440	18.8400
 2.2450	18.7870
 2.2460	18.7390
 2.2470	18.6910
 2.2480	18.6440
 2.2490	18.5890
 2.2500	18.5520
 2.2510	18.5390
 2.2520	18.5020
 2.2530	18.4760
 2.2540	18.4260
 2.2550	18.3210
 2.2560	18.2570
 2.2570	18.1970
 2.2580	18.1540
 2.2590	18.1570
 2.2600	18.1330
 2.2610	18.1190
 2.2620	18.0770
 2.2630	17.9770
 2.2640	17.8790
 2.2650	17.7790
 2.2660	17.6840
 2.2670	17.6100
 2.2680	17.5640
 2.2690	17.5210
 2.2700	17.4950
 2.2710	17.4420
 2.2720	17.3960
 2.2730	17.3400
 2.2740	17.2510
 2.2750	17.1930
 2.2760	17.1450
 2.2770	17.1130
 2.2780	17.1010
 2.2790	17.0760
 2.2800	17.0710
 2.2810	17.0390
 2.2820	16.9830
 2.2830	16.9370
 2.2840	16.8850
 2.2850	16.8420
 2.2860	16.8080
 2.2870	16.7640
 2.2880	16.7230
 2.2890	16.6690
 2.2900	16.5870
 2.2910	16.5300
 2.2920	16.4740
 2.2930	16.4270
 2.2940	16.4100
 2.2950	16.3720
 2.2960	16.3290
 2.2970	16.2780
 2.2980	16.2190
 2.2990	16.1440
 2.3000	16.0610
 2.3010	16.0050
 2.3020	15.9530
 2.3030	15.8950
 2.3040	15.8500
 2.3050	15.8120
 2.3060	15.7790
 2.3070	15.7680
 2.3080	15.7640
 2.3090	15.7160
 2.3100	15.6520
 2.3110	15.6010
 2.3120	15.5480
 2.3130	15.4790
 2.3140	15.4520
 2.3150	15.4430
 2.3160	15.4410
 2.3170	15.4840
 2.3180	15.4760
 2.3190	15.4430
 2.3200	15.4220
 2.3210	15.3770
 2.3220	15.3570
 2.3230	15.3720
 2.3240	15.3570
 2.3250	15.3260
 2.3260	15.3120
 2.3270	15.2820
 2.3280	15.2690
 2.3290	15.3040
 2.3300	15.2880
 2.3310	15.2550
 2.3320	15.2110
 2.3330	15.1280
 2.3340	15.0430
 2.3350	14.9300
 2.3360	14.8660
 2.3370	14.8120
 2.3380	14.7790
 2.3390	14.7950
 2.3400	14.7880
 2.3410	14.7840
 2.3420	14.7660
 2.3430	14.7410
 2.3440	14.7220
 2.3450	14.7120
 2.3460	14.6800
 2.3470	14.6350
 2.3480	14.5980
 2.3490	14.5590
 2.3500	14.5000
 2.3510	14.4190
 2.3520	14.3640
 2.3530	14.3150
 2.3540	14.2530
 2.3550	14.1610
 2.3560	14.0920
 2.3570	14.0530
 2.3580	14.0050
 2.3590	14.0760
 2.3600	14.1590
 2.3610	14.1220
 2.3620	14.1120
 2.3630	14.0780
 2.3640	14.0110
 2.3650	13.9810
 2.3660	13.9320
 2.3670	13.8680
 2.3680	13.8230
 2.3690	13.7810
 2.3700	13.7330
 2.3710	13.6810
 2.3720	13.6670
 2.3730	13.7280
 2.3740	13.8120
 2.3750	13.9040
 2.3760	13.9580
 2.3770	13.8790
 2.3780	13.8060
 2.3790	13.6700
 2.3800	13.4730
 2.3810	13.4570
 2.3820	13.3850
 2.3830	13.3030
 2.3840	13.3780
 2.3850	13.3280
 2.3860	13.2500
 2.3870	13.2780
 2.3880	13.2290
 2.3890	13.1680
 2.3900	13.1600
 2.3910	13.1450
 2.3920	13.1370
 2.3930	13.1190
 2.3940	13.1080
 2.3950	13.0590
 2.3960	13.0100
 2.3970	13.0470
 2.3980	13.0880
 2.3990	13.1270
 2.4000	13.1400
 2.4010	13.0930
 2.4020	13.0280
 2.4030	12.9450
 2.4040	12.8760
 2.4050	12.7900
 2.4060	12.7390
 2.4070	12.7340
 2.4080	12.6910
 2.4090	12.6740
 2.4100	12.6460
 2.4110	12.6210
 2.4120	12.6390
 2.4130	12.6600
 2.4140	12.6960
 2.4150	12.6820
 2.4160	12.6130
 2.4170	12.5620
 2.4180	12.4290
 2.4190	12.3490
 2.4200	12.3850
 2.4210	12.3660
 2.4220	12.3830
 2.4230	12.3330
 2.4240	12.2350
 2.4250	12.2230
 2.4260	12.2790
 2.4270	12.2950
 2.4280	12.2050
 2.4290	12.1250
 2.4300	12.0010
 2.4310	12.0100
 2.4320	12.1050
 2.4330	12.1400
 2.4340	12.2580
 2.4350	12.2640
 2.4360	12.2900
 2.4370	12.3610
 2.4380	12.2830
 2.4390	12.1650
 2.4400	12.0630
 2.4410	11.9310
 2.4420	11.7510
 2.4430	11.6460
 2.4440	11.5650
 2.4450	11.5190
 2.4460	11.5740
 2.4470	11.6860
 2.4480	11.8030
 2.4490	11.9220
 2.4500	12.0050
 2.4510	12.0190
 2.4520	12.0690
 2.4530	12.0170
 2.4540	11.8750
 2.4550	11.8520
 2.4560	11.7500
 2.4570	11.6690
 2.4580	11.6500
 2.4590	11.5520
 2.4600	11.5740
 2.4610	11.4980
 2.4620	11.5480
 2.4630	11.7140
 2.4640	11.6860
 2.4650	11.8460
 2.4660	11.9610
 2.4670	11.9300
 2.4680	11.9470
 2.4690	11.8240
 2.4700	11.7750
 2.4710	11.7050
 2.4720	11.6880
 2.4730	11.7440
 2.4740	11.7530
 2.4750	11.7870
 2.4760	11.7620
 2.4770	11.6840
 2.4780	11.6920
 2.4790	11.7080
 2.4800	11.7300
 2.4810	11.8330
 2.4820	11.9950
 2.4830	11.8960
 2.4840	11.7660
 2.4850	11.7280
 2.4860	11.5940
 2.4870	11.5800
 2.4880	11.6260
 2.4890	11.3030
 2.4900	11.0400
 2.4910	11.0530
 2.4920	11.0570
 2.4930	11.2290
 2.4940	11.4480
 2.4950	11.6630
 2.4960	11.8830
 2.4970	12.0060
 2.4980	11.7780
 2.4990	11.4110
 2.5000	11.4620
