Name: Abies concolor 1
Type: vegetation
Class: Tree
Genus: Abies
Species: concolor
Sample No.: VH245
Owner: UCSB
Wavelength Range: VSWIR
Origin: 37.044; -119.3035; WGS84
Collection Date: 11/2/2013
Description: Samples were collected as part of the HyspIRI Airborne Campaign. 48 individual plants were sampled in three times in 2013 - spring  summer  and fall. The name of the sample includes a 1  2  or 3 which references a different individual of the species. Samples were taken to JPL and processed within 48 hours of collection. The same leaves were processed in the Nicolet and then measured using the ASD.
Measurement: Bidirectional reflectance
First Column: X
Second Column: Y
X Units: Wavelength (micrometers)
Y Units: Reflectance (percentage)
First X Value: 0.35
Last X Value: 2.5
Number of X Values: 2151
Additional Information: vegetation.tree.abies.concolor.vswir.vh245.ucsb.asd.ancillary.txt

 0.3500	 8.2340
 0.3510	 8.1170
 0.3520	 8.0980
 0.3530	 8.0640
 0.3540	 7.9500
 0.3550	 8.0050
 0.3560	 8.0840
 0.3570	 8.1090
 0.3580	 8.0580
 0.3590	 7.9850
 0.3600	 8.0250
 0.3610	 8.1340
 0.3620	 8.0230
 0.3630	 7.8960
 0.3640	 7.8770
 0.3650	 7.9780
 0.3660	 7.9100
 0.3670	 7.8580
 0.3680	 7.8530
 0.3690	 7.8210
 0.3700	 7.8450
 0.3710	 7.8760
 0.3720	 7.8820
 0.3730	 7.8980
 0.3740	 7.9060
 0.3750	 7.8950
 0.3760	 7.8620
 0.3770	 7.8390
 0.3780	 7.8630
 0.3790	 7.9030
 0.3800	 7.8750
 0.3810	 7.8610
 0.3820	 7.8820
 0.3830	 7.9200
 0.3840	 7.8990
 0.3850	 7.8820
 0.3860	 7.8860
 0.3870	 7.9020
 0.3880	 7.8780
 0.3890	 7.8420
 0.3900	 7.8280
 0.3910	 7.8700
 0.3920	 7.9210
 0.3930	 7.9320
 0.3940	 7.9050
 0.3950	 7.9860
 0.3960	 7.9950
 0.3970	 7.9570
 0.3980	 7.9820
 0.3990	 8.0840
 0.4000	 8.1300
 0.4010	 8.1000
 0.4020	 8.1270
 0.4030	 8.1700
 0.4040	 8.2130
 0.4050	 8.2500
 0.4060	 8.2820
 0.4070	 8.3210
 0.4080	 8.3720
 0.4090	 8.4310
 0.4100	 8.4980
 0.4110	 8.5470
 0.4120	 8.5790
 0.4130	 8.6400
 0.4140	 8.7120
 0.4150	 8.7890
 0.4160	 8.8610
 0.4170	 8.9000
 0.4180	 8.9480
 0.4190	 9.0130
 0.4200	 9.0650
 0.4210	 9.1190
 0.4220	 9.1770
 0.4230	 9.2360
 0.4240	 9.2800
 0.4250	 9.3280
 0.4260	 9.3870
 0.4270	 9.4500
 0.4280	 9.4850
 0.4290	 9.5190
 0.4300	 9.5640
 0.4310	 9.6000
 0.4320	 9.6260
 0.4330	 9.6540
 0.4340	 9.6910
 0.4350	 9.7230
 0.4360	 9.7580
 0.4370	 9.7970
 0.4380	 9.8330
 0.4390	 9.8710
 0.4400	 9.9120
 0.4410	 9.9510
 0.4420	 9.9730
 0.4430	10.0000
 0.4440	10.0360
 0.4450	10.0730
 0.4460	10.1070
 0.4470	10.1330
 0.4480	10.1540
 0.4490	10.1770
 0.4500	10.2070
 0.4510	10.2420
 0.4520	10.2780
 0.4530	10.3000
 0.4540	10.3210
 0.4550	10.3410
 0.4560	10.3510
 0.4570	10.3730
 0.4580	10.3920
 0.4590	10.3970
 0.4600	10.4010
 0.4610	10.4100
 0.4620	10.4160
 0.4630	10.4130
 0.4640	10.4240
 0.4650	10.4300
 0.4660	10.4280
 0.4670	10.4320
 0.4680	10.4390
 0.4690	10.4340
 0.4700	10.4170
 0.4710	10.4250
 0.4720	10.4410
 0.4730	10.4530
 0.4740	10.4550
 0.4750	10.4540
 0.4760	10.4570
 0.4770	10.4650
 0.4780	10.4750
 0.4790	10.4850
 0.4800	10.4960
 0.4810	10.5040
 0.4820	10.5010
 0.4830	10.5040
 0.4840	10.5160
 0.4850	10.5210
 0.4860	10.5290
 0.4870	10.5420
 0.4880	10.5630
 0.4890	10.5890
 0.4900	10.6190
 0.4910	10.6510
 0.4920	10.6830
 0.4930	10.7070
 0.4940	10.7420
 0.4950	10.7940
 0.4960	10.8480
 0.4970	10.9070
 0.4980	10.9690
 0.4990	11.0340
 0.5000	11.1130
 0.5010	11.1990
 0.5020	11.2890
 0.5030	11.3850
 0.5040	11.4970
 0.5050	11.6160
 0.5060	11.7350
 0.5070	11.8710
 0.5080	12.0190
 0.5090	12.1770
 0.5100	12.3440
 0.5110	12.5260
 0.5120	12.7200
 0.5130	12.9190
 0.5140	13.1190
 0.5150	13.3420
 0.5160	13.5790
 0.5170	13.8180
 0.5180	14.0620
 0.5190	14.3050
 0.5200	14.5460
 0.5210	14.7890
 0.5220	15.0290
 0.5230	15.2670
 0.5240	15.5020
 0.5250	15.7180
 0.5260	15.9200
 0.5270	16.1100
 0.5280	16.2890
 0.5290	16.4500
 0.5300	16.5990
 0.5310	16.7390
 0.5320	16.8710
 0.5330	16.9870
 0.5340	17.0890
 0.5350	17.1840
 0.5360	17.2710
 0.5370	17.3480
 0.5380	17.4150
 0.5390	17.4750
 0.5400	17.5260
 0.5410	17.5740
 0.5420	17.6190
 0.5430	17.6570
 0.5440	17.7080
 0.5450	17.7650
 0.5460	17.8120
 0.5470	17.8670
 0.5480	17.9250
 0.5490	17.9800
 0.5500	18.0250
 0.5510	18.0550
 0.5520	18.0750
 0.5530	18.0880
 0.5540	18.0910
 0.5550	18.0750
 0.5560	18.0440
 0.5570	18.0040
 0.5580	17.9460
 0.5590	17.8730
 0.5600	17.7890
 0.5610	17.6890
 0.5620	17.5870
 0.5630	17.4780
 0.5640	17.3520
 0.5650	17.2260
 0.5660	17.0980
 0.5670	16.9630
 0.5680	16.8220
 0.5690	16.6760
 0.5700	16.5290
 0.5710	16.3860
 0.5720	16.2510
 0.5730	16.1170
 0.5740	15.9880
 0.5750	15.8710
 0.5760	15.7520
 0.5770	15.6350
 0.5780	15.5270
 0.5790	15.4260
 0.5800	15.3340
 0.5810	15.2530
 0.5820	15.1780
 0.5830	15.1060
 0.5840	15.0380
 0.5850	14.9720
 0.5860	14.9010
 0.5870	14.8280
 0.5880	14.7600
 0.5890	14.7000
 0.5900	14.6490
 0.5910	14.6050
 0.5920	14.5660
 0.5930	14.5240
 0.5940	14.4860
 0.5950	14.4500
 0.5960	14.4180
 0.5970	14.3900
 0.5980	14.3590
 0.5990	14.3250
 0.6000	14.2900
 0.6010	14.2580
 0.6020	14.2180
 0.6030	14.1680
 0.6040	14.1190
 0.6050	14.0600
 0.6060	13.9940
 0.6070	13.9260
 0.6080	13.8560
 0.6090	13.7790
 0.6100	13.6910
 0.6110	13.5990
 0.6120	13.5210
 0.6130	13.4510
 0.6140	13.3810
 0.6150	13.3100
 0.6160	13.2460
 0.6170	13.1850
 0.6180	13.1220
 0.6190	13.0660
 0.6200	13.0150
 0.6210	12.9680
 0.6220	12.9270
 0.6230	12.8920
 0.6240	12.8670
 0.6250	12.8490
 0.6260	12.8280
 0.6270	12.8160
 0.6280	12.8080
 0.6290	12.7970
 0.6300	12.7810
 0.6310	12.7690
 0.6320	12.7580
 0.6330	12.7370
 0.6340	12.7100
 0.6350	12.6720
 0.6360	12.6160
 0.6370	12.5470
 0.6380	12.4680
 0.6390	12.3800
 0.6400	12.2810
 0.6410	12.1800
 0.6420	12.0760
 0.6430	11.9700
 0.6440	11.8640
 0.6450	11.7550
 0.6460	11.6490
 0.6470	11.5550
 0.6480	11.4680
 0.6490	11.3880
 0.6500	11.3200
 0.6510	11.2640
 0.6520	11.2150
 0.6530	11.1670
 0.6540	11.1210
 0.6550	11.0800
 0.6560	11.0320
 0.6570	10.9770
 0.6580	10.9170
 0.6590	10.8450
 0.6600	10.7670
 0.6610	10.6890
 0.6620	10.6110
 0.6630	10.5310
 0.6640	10.4560
 0.6650	10.3870
 0.6660	10.3260
 0.6670	10.2720
 0.6680	10.2250
 0.6690	10.1890
 0.6700	10.1590
 0.6710	10.1360
 0.6720	10.1240
 0.6730	10.1180
 0.6740	10.1150
 0.6750	10.1160
 0.6760	10.1240
 0.6770	10.1370
 0.6780	10.1550
 0.6790	10.1820
 0.6800	10.2230
 0.6810	10.2680
 0.6820	10.3280
 0.6830	10.4110
 0.6840	10.5150
 0.6850	10.6460
 0.6860	10.8100
 0.6870	11.0150
 0.6880	11.2630
 0.6890	11.5650
 0.6900	11.9270
 0.6910	12.3540
 0.6920	12.8530
 0.6930	13.4200
 0.6940	14.0540
 0.6950	14.7660
 0.6960	15.5430
 0.6970	16.3770
 0.6980	17.2650
 0.6990	18.2020
 0.7000	19.1820
 0.7010	20.1960
 0.7020	21.2320
 0.7030	22.2860
 0.7040	23.3510
 0.7050	24.4220
 0.7060	25.5010
 0.7070	26.5750
 0.7080	27.6420
 0.7090	28.7110
 0.7100	29.7910
 0.7110	30.8630
 0.7120	31.9270
 0.7130	33.0000
 0.7140	34.0650
 0.7150	35.1220
 0.7160	36.1700
 0.7170	37.2070
 0.7180	38.2390
 0.7190	39.2600
 0.7200	40.2610
 0.7210	41.2520
 0.7220	42.2230
 0.7230	43.1720
 0.7240	44.1120
 0.7250	45.0140
 0.7260	45.8840
 0.7270	46.7280
 0.7280	47.5310
 0.7290	48.3140
 0.7300	49.0650
 0.7310	49.7660
 0.7320	50.4410
 0.7330	51.0850
 0.7340	51.6990
 0.7350	52.2820
 0.7360	52.8310
 0.7370	53.3460
 0.7380	53.8320
 0.7390	54.2990
 0.7400	54.7380
 0.7410	55.1470
 0.7420	55.5290
 0.7430	55.8950
 0.7440	56.2240
 0.7450	56.5230
 0.7460	56.8220
 0.7470	57.0850
 0.7480	57.3250
 0.7490	57.5560
 0.7500	57.7860
 0.7510	57.9800
 0.7520	58.1400
 0.7530	58.2840
 0.7540	58.4400
 0.7550	58.5820
 0.7560	58.7030
 0.7570	58.8080
 0.7580	58.9120
 0.7590	59.0130
 0.7600	59.1020
 0.7610	59.1670
 0.7620	59.2360
 0.7630	59.3070
 0.7640	59.3700
 0.7650	59.4260
 0.7660	59.4750
 0.7670	59.5160
 0.7680	59.5480
 0.7690	59.5800
 0.7700	59.6180
 0.7710	59.6570
 0.7720	59.6790
 0.7730	59.7030
 0.7740	59.7280
 0.7750	59.7510
 0.7760	59.7830
 0.7770	59.8060
 0.7780	59.8270
 0.7790	59.8550
 0.7800	59.8840
 0.7810	59.9000
 0.7820	59.9080
 0.7830	59.9260
 0.7840	59.9570
 0.7850	59.9770
 0.7860	59.9760
 0.7870	59.9850
 0.7880	60.0010
 0.7890	60.0210
 0.7900	60.0410
 0.7910	60.0670
 0.7920	60.0810
 0.7930	60.0910
 0.7940	60.1210
 0.7950	60.1490
 0.7960	60.1680
 0.7970	60.1760
 0.7980	60.1690
 0.7990	60.1850
 0.8000	60.2090
 0.8010	60.2220
 0.8020	60.2400
 0.8030	60.2500
 0.8040	60.2610
 0.8050	60.2860
 0.8060	60.3010
 0.8070	60.3090
 0.8080	60.3150
 0.8090	60.3210
 0.8100	60.3380
 0.8110	60.3590
 0.8120	60.3770
 0.8130	60.3840
 0.8140	60.4080
 0.8150	60.4360
 0.8160	60.4470
 0.8170	60.4490
 0.8180	60.4610
 0.8190	60.4810
 0.8200	60.4970
 0.8210	60.5030
 0.8220	60.5100
 0.8230	60.5240
 0.8240	60.5510
 0.8250	60.5710
 0.8260	60.5700
 0.8270	60.5580
 0.8280	60.5740
 0.8290	60.5800
 0.8300	60.5830
 0.8310	60.5950
 0.8320	60.6090
 0.8330	60.6290
 0.8340	60.6380
 0.8350	60.6270
 0.8360	60.6500
 0.8370	60.6760
 0.8380	60.6960
 0.8390	60.7180
 0.8400	60.7070
 0.8410	60.7090
 0.8420	60.7430
 0.8430	60.7770
 0.8440	60.8080
 0.8450	60.8300
 0.8460	60.8420
 0.8470	60.8550
 0.8480	60.8720
 0.8490	60.8950
 0.8500	60.9210
 0.8510	60.9260
 0.8520	60.9380
 0.8530	60.9670
 0.8540	61.0020
 0.8550	60.9860
 0.8560	60.9790
 0.8570	61.0060
 0.8580	61.0460
 0.8590	61.0650
 0.8600	61.0720
 0.8610	61.0810
 0.8620	61.0940
 0.8630	61.1130
 0.8640	61.1250
 0.8650	61.1250
 0.8660	61.1360
 0.8670	61.1600
 0.8680	61.1750
 0.8690	61.1640
 0.8700	61.1670
 0.8710	61.1840
 0.8720	61.2050
 0.8730	61.2160
 0.8740	61.2230
 0.8750	61.2290
 0.8760	61.2350
 0.8770	61.2400
 0.8780	61.2370
 0.8790	61.2240
 0.8800	61.2150
 0.8810	61.2480
 0.8820	61.2670
 0.8830	61.2720
 0.8840	61.2740
 0.8850	61.2780
 0.8860	61.2700
 0.8870	61.2690
 0.8880	61.2840
 0.8890	61.2770
 0.8900	61.2690
 0.8910	61.2590
 0.8920	61.2460
 0.8930	61.2610
 0.8940	61.2600
 0.8950	61.2490
 0.8960	61.2560
 0.8970	61.2330
 0.8980	61.2170
 0.8990	61.2310
 0.9000	61.2670
 0.9010	61.2530
 0.9020	61.2290
 0.9030	61.2220
 0.9040	61.2160
 0.9050	61.2020
 0.9060	61.1900
 0.9070	61.1810
 0.9080	61.1510
 0.9090	61.1380
 0.9100	61.1470
 0.9110	61.1640
 0.9120	61.1490
 0.9130	61.1230
 0.9140	61.0990
 0.9150	61.0890
 0.9160	61.0990
 0.9170	61.0870
 0.9180	61.0680
 0.9190	61.0690
 0.9200	61.0560
 0.9210	61.0270
 0.9220	60.9930
 0.9230	60.9710
 0.9240	60.9650
 0.9250	60.9410
 0.9260	60.9010
 0.9270	60.8750
 0.9280	60.8490
 0.9290	60.8090
 0.9300	60.7580
 0.9310	60.7170
 0.9320	60.6680
 0.9330	60.6100
 0.9340	60.5450
 0.9350	60.4830
 0.9360	60.4460
 0.9370	60.3950
 0.9380	60.3190
 0.9390	60.2540
 0.9400	60.1810
 0.9410	60.1100
 0.9420	60.0430
 0.9430	59.9710
 0.9440	59.9020
 0.9450	59.8340
 0.9460	59.7490
 0.9470	59.6190
 0.9480	59.5090
 0.9490	59.4070
 0.9500	59.2900
 0.9510	59.1560
 0.9520	59.0120
 0.9530	58.8590
 0.9540	58.7000
 0.9550	58.5290
 0.9560	58.3990
 0.9570	58.2840
 0.9580	58.1480
 0.9590	58.0220
 0.9600	57.9060
 0.9610	57.8040
 0.9620	57.7190
 0.9630	57.6470
 0.9640	57.5950
 0.9650	57.5500
 0.9660	57.5000
 0.9670	57.4680
 0.9680	57.4440
 0.9690	57.4230
 0.9700	57.4060
 0.9710	57.4060
 0.9720	57.3750
 0.9730	57.3380
 0.9740	57.3410
 0.9750	57.3340
 0.9760	57.3370
 0.9770	57.3520
 0.9780	57.3710
 0.9790	57.3840
 0.9800	57.4080
 0.9810	57.4250
 0.9820	57.4160
 0.9830	57.4420
 0.9840	57.4940
 0.9850	57.5590
 0.9860	57.6230
 0.9870	57.6660
 0.9880	57.7220
 0.9890	57.7790
 0.9900	57.8150
 0.9910	57.8580
 0.9920	57.9150
 0.9930	57.9840
 0.9940	58.0550
 0.9950	58.1250
 0.9960	58.1650
 0.9970	58.2140
 0.9980	58.3110
 0.9990	58.3900
 1.0000	58.6630
 1.0010	59.0410
 1.0020	59.2910
 1.0030	59.3520
 1.0040	59.4150
 1.0050	59.4830
 1.0060	59.5540
 1.0070	59.6260
 1.0080	59.6940
 1.0090	59.7550
 1.0100	59.8200
 1.0110	59.8870
 1.0120	59.9530
 1.0130	60.0190
 1.0140	60.0850
 1.0150	60.1530
 1.0160	60.2160
 1.0170	60.2830
 1.0180	60.3480
 1.0190	60.4130
 1.0200	60.4790
 1.0210	60.5410
 1.0220	60.6020
 1.0230	60.6610
 1.0240	60.7170
 1.0250	60.7740
 1.0260	60.8300
 1.0270	60.8870
 1.0280	60.9440
 1.0290	61.0010
 1.0300	61.0590
 1.0310	61.1140
 1.0320	61.1620
 1.0330	61.2140
 1.0340	61.2680
 1.0350	61.3200
 1.0360	61.3750
 1.0370	61.4250
 1.0380	61.4730
 1.0390	61.5140
 1.0400	61.5610
 1.0410	61.6120
 1.0420	61.6600
 1.0430	61.7110
 1.0440	61.7530
 1.0450	61.7890
 1.0460	61.8250
 1.0470	61.8580
 1.0480	61.8920
 1.0490	61.9280
 1.0500	61.9620
 1.0510	61.9960
 1.0520	62.0280
 1.0530	62.0540
 1.0540	62.0750
 1.0550	62.0970
 1.0560	62.1140
 1.0570	62.1330
 1.0580	62.1520
 1.0590	62.1720
 1.0600	62.1930
 1.0610	62.2110
 1.0620	62.2310
 1.0630	62.2440
 1.0640	62.2470
 1.0650	62.2560
 1.0660	62.2650
 1.0670	62.2730
 1.0680	62.2820
 1.0690	62.2930
 1.0700	62.2990
 1.0710	62.2990
 1.0720	62.3010
 1.0730	62.3030
 1.0740	62.3010
 1.0750	62.2970
 1.0760	62.2930
 1.0770	62.2870
 1.0780	62.2790
 1.0790	62.2680
 1.0800	62.2590
 1.0810	62.2490
 1.0820	62.2360
 1.0830	62.2230
 1.0840	62.2080
 1.0850	62.1870
 1.0860	62.1670
 1.0870	62.1490
 1.0880	62.1330
 1.0890	62.1140
 1.0900	62.0960
 1.0910	62.0740
 1.0920	62.0520
 1.0930	62.0260
 1.0940	61.9970
 1.0950	61.9650
 1.0960	61.9270
 1.0970	61.8930
 1.0980	61.8570
 1.0990	61.8240
 1.1000	61.7950
 1.1010	61.7640
 1.1020	61.7350
 1.1030	61.7010
 1.1040	61.6640
 1.1050	61.6290
 1.1060	61.5920
 1.1070	61.5500
 1.1080	61.5110
 1.1090	61.4750
 1.1100	61.4330
 1.1110	61.3890
 1.1120	61.3430
 1.1130	61.2920
 1.1140	61.2400
 1.1150	61.1900
 1.1160	61.1320
 1.1170	61.0710
 1.1180	61.0030
 1.1190	60.9290
 1.1200	60.8510
 1.1210	60.7670
 1.1220	60.6740
 1.1230	60.5750
 1.1240	60.4680
 1.1250	60.3480
 1.1260	60.2230
 1.1270	60.0770
 1.1280	59.9170
 1.1290	59.7430
 1.1300	59.5590
 1.1310	59.3550
 1.1320	59.1380
 1.1330	58.9030
 1.1340	58.6460
 1.1350	58.3770
 1.1360	58.0940
 1.1370	57.7950
 1.1380	57.4860
 1.1390	57.1680
 1.1400	56.8390
 1.1410	56.5100
 1.1420	56.1770
 1.1430	55.8400
 1.1440	55.5090
 1.1450	55.1750
 1.1460	54.8550
 1.1470	54.5340
 1.1480	54.2350
 1.1490	53.9470
 1.1500	53.6800
 1.1510	53.4270
 1.1520	53.1940
 1.1530	52.9780
 1.1540	52.7790
 1.1550	52.5960
 1.1560	52.4310
 1.1570	52.2820
 1.1580	52.1500
 1.1590	52.0340
 1.1600	51.9320
 1.1610	51.8420
 1.1620	51.7650
 1.1630	51.6960
 1.1640	51.6350
 1.1650	51.5810
 1.1660	51.5390
 1.1670	51.4990
 1.1680	51.4680
 1.1690	51.4350
 1.1700	51.4070
 1.1710	51.3780
 1.1720	51.3520
 1.1730	51.3250
 1.1740	51.2980
 1.1750	51.2680
 1.1760	51.2360
 1.1770	51.2030
 1.1780	51.1680
 1.1790	51.1320
 1.1800	51.0970
 1.1810	51.0600
 1.1820	51.0220
 1.1830	50.9840
 1.1840	50.9460
 1.1850	50.9090
 1.1860	50.8720
 1.1870	50.8380
 1.1880	50.8080
 1.1890	50.7780
 1.1900	50.7530
 1.1910	50.7320
 1.1920	50.7150
 1.1930	50.7000
 1.1940	50.6900
 1.1950	50.6850
 1.1960	50.6830
 1.1970	50.6860
 1.1980	50.6920
 1.1990	50.7040
 1.2000	50.7190
 1.2010	50.7370
 1.2020	50.7610
 1.2030	50.7860
 1.2040	50.8160
 1.2050	50.8540
 1.2060	50.8970
 1.2070	50.9430
 1.2080	50.9910
 1.2090	51.0410
 1.2100	51.0920
 1.2110	51.1470
 1.2120	51.2050
 1.2130	51.2660
 1.2140	51.3300
 1.2150	51.3960
 1.2160	51.4650
 1.2170	51.5340
 1.2180	51.6080
 1.2190	51.6810
 1.2200	51.7530
 1.2210	51.8300
 1.2220	51.9050
 1.2230	51.9800
 1.2240	52.0550
 1.2250	52.1280
 1.2260	52.1980
 1.2270	52.2690
 1.2280	52.3370
 1.2290	52.4020
 1.2300	52.4660
 1.2310	52.5280
 1.2320	52.5920
 1.2330	52.6550
 1.2340	52.7150
 1.2350	52.7750
 1.2360	52.8320
 1.2370	52.8860
 1.2380	52.9370
 1.2390	52.9920
 1.2400	53.0430
 1.2410	53.0930
 1.2420	53.1440
 1.2430	53.1940
 1.2440	53.2420
 1.2450	53.2870
 1.2460	53.3270
 1.2470	53.3670
 1.2480	53.4040
 1.2490	53.4400
 1.2500	53.4760
 1.2510	53.5100
 1.2520	53.5420
 1.2530	53.5750
 1.2540	53.6050
 1.2550	53.6310
 1.2560	53.6570
 1.2570	53.6800
 1.2580	53.7010
 1.2590	53.7200
 1.2600	53.7380
 1.2610	53.7530
 1.2620	53.7640
 1.2630	53.7720
 1.2640	53.7800
 1.2650	53.7880
 1.2660	53.7940
 1.2670	53.7980
 1.2680	53.8000
 1.2690	53.7970
 1.2700	53.7900
 1.2710	53.7870
 1.2720	53.7820
 1.2730	53.7720
 1.2740	53.7620
 1.2750	53.7460
 1.2760	53.7270
 1.2770	53.7080
 1.2780	53.6840
 1.2790	53.6590
 1.2800	53.6330
 1.2810	53.6020
 1.2820	53.5700
 1.2830	53.5340
 1.2840	53.4930
 1.2850	53.4470
 1.2860	53.3960
 1.2870	53.3410
 1.2880	53.2800
 1.2890	53.2130
 1.2900	53.1470
 1.2910	53.0750
 1.2920	52.9970
 1.2930	52.9170
 1.2940	52.8310
 1.2950	52.7400
 1.2960	52.6450
 1.2970	52.5450
 1.2980	52.4410
 1.2990	52.3290
 1.3000	52.2150
 1.3010	52.0950
 1.3020	51.9670
 1.3030	51.8370
 1.3040	51.7020
 1.3050	51.5590
 1.3060	51.4090
 1.3070	51.2550
 1.3080	51.0940
 1.3090	50.9300
 1.3100	50.7620
 1.3110	50.5850
 1.3120	50.4030
 1.3130	50.2210
 1.3140	50.0330
 1.3150	49.8420
 1.3160	49.6450
 1.3170	49.4470
 1.3180	49.2380
 1.3190	49.0230
 1.3200	48.8040
 1.3210	48.5770
 1.3220	48.3460
 1.3230	48.1130
 1.3240	47.8760
 1.3250	47.6360
 1.3260	47.3910
 1.3270	47.1400
 1.3280	46.8870
 1.3290	46.6310
 1.3300	46.3750
 1.3310	46.1200
 1.3320	45.8620
 1.3330	45.6060
 1.3340	45.3490
 1.3350	45.0910
 1.3360	44.8350
 1.3370	44.5780
 1.3380	44.3240
 1.3390	44.0720
 1.3400	43.8180
 1.3410	43.5730
 1.3420	43.3310
 1.3430	43.0900
 1.3440	42.8560
 1.3450	42.6230
 1.3460	42.3910
 1.3470	42.1660
 1.3480	41.9430
 1.3490	41.7250
 1.3500	41.5120
 1.3510	41.3030
 1.3520	41.0950
 1.3530	40.8900
 1.3540	40.6860
 1.3550	40.4810
 1.3560	40.2750
 1.3570	40.0670
 1.3580	39.8600
 1.3590	39.6480
 1.3600	39.4340
 1.3610	39.2170
 1.3620	38.9910
 1.3630	38.7580
 1.3640	38.5150
 1.3650	38.2610
 1.3660	37.9990
 1.3670	37.7250
 1.3680	37.4390
 1.3690	37.1400
 1.3700	36.8220
 1.3710	36.4890
 1.3720	36.1390
 1.3730	35.7680
 1.3740	35.3820
 1.3750	34.9760
 1.3760	34.5450
 1.3770	34.0940
 1.3780	33.6160
 1.3790	33.1150
 1.3800	32.5940
 1.3810	32.0450
 1.3820	31.4820
 1.3830	30.8990
 1.3840	30.3050
 1.3850	29.6920
 1.3860	29.0760
 1.3870	28.4440
 1.3880	27.8180
 1.3890	27.1880
 1.3900	26.5570
 1.3910	25.9370
 1.3920	25.3210
 1.3930	24.7120
 1.3940	24.1160
 1.3950	23.5280
 1.3960	22.9560
 1.3970	22.4040
 1.3980	21.8690
 1.3990	21.3620
 1.4000	20.8760
 1.4010	20.4090
 1.4020	19.9680
 1.4030	19.5460
 1.4040	19.1470
 1.4050	18.7750
 1.4060	18.4240
 1.4070	18.1000
 1.4080	17.7950
 1.4090	17.5100
 1.4100	17.2460
 1.4110	16.9990
 1.4120	16.7710
 1.4130	16.5610
 1.4140	16.3670
 1.4150	16.1900
 1.4160	16.0270
 1.4170	15.8770
 1.4180	15.7390
 1.4190	15.6130
 1.4200	15.4970
 1.4210	15.3910
 1.4220	15.2950
 1.4230	15.2080
 1.4240	15.1300
 1.4250	15.0570
 1.4260	14.9920
 1.4270	14.9330
 1.4280	14.8800
 1.4290	14.8330
 1.4300	14.7940
 1.4310	14.7580
 1.4320	14.7270
 1.4330	14.7000
 1.4340	14.6760
 1.4350	14.6560
 1.4360	14.6410
 1.4370	14.6300
 1.4380	14.6220
 1.4390	14.6170
 1.4400	14.6140
 1.4410	14.6140
 1.4420	14.6140
 1.4430	14.6160
 1.4440	14.6210
 1.4450	14.6260
 1.4460	14.6340
 1.4470	14.6430
 1.4480	14.6530
 1.4490	14.6650
 1.4500	14.6790
 1.4510	14.6930
 1.4520	14.7080
 1.4530	14.7250
 1.4540	14.7420
 1.4550	14.7620
 1.4560	14.7830
 1.4570	14.8060
 1.4580	14.8300
 1.4590	14.8580
 1.4600	14.8880
 1.4610	14.9220
 1.4620	14.9580
 1.4630	14.9980
 1.4640	15.0410
 1.4650	15.0880
 1.4660	15.1390
 1.4670	15.1940
 1.4680	15.2540
 1.4690	15.3180
 1.4700	15.3840
 1.4710	15.4540
 1.4720	15.5250
 1.4730	15.5990
 1.4740	15.6770
 1.4750	15.7560
 1.4760	15.8390
 1.4770	15.9240
 1.4780	16.0110
 1.4790	16.1020
 1.4800	16.1930
 1.4810	16.2860
 1.4820	16.3820
 1.4830	16.4790
 1.4840	16.5780
 1.4850	16.6790
 1.4860	16.7790
 1.4870	16.8810
 1.4880	16.9840
 1.4890	17.0880
 1.4900	17.1930
 1.4910	17.2990
 1.4920	17.4060
 1.4930	17.5160
 1.4940	17.6250
 1.4950	17.7360
 1.4960	17.8460
 1.4970	17.9530
 1.4980	18.0620
 1.4990	18.1720
 1.5000	18.2830
 1.5010	18.3960
 1.5020	18.5080
 1.5030	18.6210
 1.5040	18.7330
 1.5050	18.8430
 1.5060	18.9550
 1.5070	19.0670
 1.5080	19.1800
 1.5090	19.2950
 1.5100	19.4090
 1.5110	19.5220
 1.5120	19.6350
 1.5130	19.7460
 1.5140	19.8570
 1.5150	19.9690
 1.5160	20.0800
 1.5170	20.1910
 1.5180	20.3020
 1.5190	20.4120
 1.5200	20.5240
 1.5210	20.6330
 1.5220	20.7410
 1.5230	20.8490
 1.5240	20.9540
 1.5250	21.0590
 1.5260	21.1650
 1.5270	21.2700
 1.5280	21.3780
 1.5290	21.4840
 1.5300	21.5900
 1.5310	21.6950
 1.5320	21.7990
 1.5330	21.9030
 1.5340	22.0050
 1.5350	22.1070
 1.5360	22.2090
 1.5370	22.3090
 1.5380	22.4100
 1.5390	22.5100
 1.5400	22.6090
 1.5410	22.7090
 1.5420	22.8090
 1.5430	22.9080
 1.5440	23.0090
 1.5450	23.1080
 1.5460	23.2070
 1.5470	23.3060
 1.5480	23.4030
 1.5490	23.4990
 1.5500	23.5930
 1.5510	23.6850
 1.5520	23.7780
 1.5530	23.8700
 1.5540	23.9620
 1.5550	24.0530
 1.5560	24.1430
 1.5570	24.2320
 1.5580	24.3200
 1.5590	24.4080
 1.5600	24.4970
 1.5610	24.5830
 1.5620	24.6690
 1.5630	24.7550
 1.5640	24.8390
 1.5650	24.9250
 1.5660	25.0100
 1.5670	25.0940
 1.5680	25.1800
 1.5690	25.2630
 1.5700	25.3440
 1.5710	25.4260
 1.5720	25.5060
 1.5730	25.5860
 1.5740	25.6670
 1.5750	25.7480
 1.5760	25.8300
 1.5770	25.9090
 1.5780	25.9870
 1.5790	26.0650
 1.5800	26.1430
 1.5810	26.2220
 1.5820	26.3010
 1.5830	26.3790
 1.5840	26.4560
 1.5850	26.5330
 1.5860	26.6120
 1.5870	26.6890
 1.5880	26.7650
 1.5890	26.8400
 1.5900	26.9140
 1.5910	26.9870
 1.5920	27.0610
 1.5930	27.1350
 1.5940	27.2090
 1.5950	27.2830
 1.5960	27.3550
 1.5970	27.4270
 1.5980	27.4990
 1.5990	27.5700
 1.6000	27.6410
 1.6010	27.7110
 1.6020	27.7810
 1.6030	27.8510
 1.6040	27.9200
 1.6050	27.9900
 1.6060	28.0570
 1.6070	28.1230
 1.6080	28.1870
 1.6090	28.2500
 1.6100	28.3140
 1.6110	28.3790
 1.6120	28.4420
 1.6130	28.5050
 1.6140	28.5650
 1.6150	28.6230
 1.6160	28.6800
 1.6170	28.7360
 1.6180	28.7910
 1.6190	28.8460
 1.6200	28.9000
 1.6210	28.9520
 1.6220	29.0020
 1.6230	29.0510
 1.6240	29.0960
 1.6250	29.1390
 1.6260	29.1810
 1.6270	29.2220
 1.6280	29.2620
 1.6290	29.3010
 1.6300	29.3370
 1.6310	29.3730
 1.6320	29.4070
 1.6330	29.4400
 1.6340	29.4710
 1.6350	29.5040
 1.6360	29.5360
 1.6370	29.5700
 1.6380	29.6060
 1.6390	29.6400
 1.6400	29.6740
 1.6410	29.7060
 1.6420	29.7370
 1.6430	29.7670
 1.6440	29.7960
 1.6450	29.8240
 1.6460	29.8490
 1.6470	29.8690
 1.6480	29.8860
 1.6490	29.8980
 1.6500	29.9060
 1.6510	29.9110
 1.6520	29.9130
 1.6530	29.9130
 1.6540	29.9120
 1.6550	29.9070
 1.6560	29.9020
 1.6570	29.8940
 1.6580	29.8830
 1.6590	29.8700
 1.6600	29.8580
 1.6610	29.8450
 1.6620	29.8330
 1.6630	29.8210
 1.6640	29.8080
 1.6650	29.7940
 1.6660	29.7810
 1.6670	29.7660
 1.6680	29.7520
 1.6690	29.7350
 1.6700	29.7160
 1.6710	29.7000
 1.6720	29.6820
 1.6730	29.6620
 1.6740	29.6430
 1.6750	29.6200
 1.6760	29.5940
 1.6770	29.5690
 1.6780	29.5420
 1.6790	29.5110
 1.6800	29.4780
 1.6810	29.4420
 1.6820	29.4010
 1.6830	29.3560
 1.6840	29.3090
 1.6850	29.2580
 1.6860	29.2060
 1.6870	29.1540
 1.6880	29.1000
 1.6890	29.0460
 1.6900	28.9880
 1.6910	28.9270
 1.6920	28.8650
 1.6930	28.8000
 1.6940	28.7360
 1.6950	28.6700
 1.6960	28.6070
 1.6970	28.5460
 1.6980	28.4850
 1.6990	28.4250
 1.7000	28.3630
 1.7010	28.2990
 1.7020	28.2350
 1.7030	28.1710
 1.7040	28.1070
 1.7050	28.0430
 1.7060	27.9780
 1.7070	27.9140
 1.7080	27.8490
 1.7090	27.7810
 1.7100	27.7160
 1.7110	27.6510
 1.7120	27.5880
 1.7130	27.5260
 1.7140	27.4630
 1.7150	27.4020
 1.7160	27.3450
 1.7170	27.2900
 1.7180	27.2360
 1.7190	27.1830
 1.7200	27.1330
 1.7210	27.0820
 1.7220	27.0320
 1.7230	26.9860
 1.7240	26.9390
 1.7250	26.8940
 1.7260	26.8520
 1.7270	26.8110
 1.7280	26.7690
 1.7290	26.7290
 1.7300	26.6910
 1.7310	26.6530
 1.7320	26.6170
 1.7330	26.5780
 1.7340	26.5390
 1.7350	26.4990
 1.7360	26.4590
 1.7370	26.4140
 1.7380	26.3680
 1.7390	26.3170
 1.7400	26.2610
 1.7410	26.2030
 1.7420	26.1410
 1.7430	26.0790
 1.7440	26.0140
 1.7450	25.9470
 1.7460	25.8780
 1.7470	25.8090
 1.7480	25.7370
 1.7490	25.6660
 1.7500	25.5950
 1.7510	25.5250
 1.7520	25.4560
 1.7530	25.3910
 1.7540	25.3280
 1.7550	25.2650
 1.7560	25.2050
 1.7570	25.1460
 1.7580	25.0900
 1.7590	25.0380
 1.7600	24.9880
 1.7610	24.9380
 1.7620	24.8910
 1.7630	24.8470
 1.7640	24.8040
 1.7650	24.7640
 1.7660	24.7250
 1.7670	24.6880
 1.7680	24.6510
 1.7690	24.6130
 1.7700	24.5780
 1.7710	24.5410
 1.7720	24.5070
 1.7730	24.4770
 1.7740	24.4450
 1.7750	24.4130
 1.7760	24.3830
 1.7770	24.3540
 1.7780	24.3270
 1.7790	24.3000
 1.7800	24.2780
 1.7810	24.2570
 1.7820	24.2400
 1.7830	24.2280
 1.7840	24.2160
 1.7850	24.2060
 1.7860	24.1970
 1.7870	24.1890
 1.7880	24.1830
 1.7890	24.1790
 1.7900	24.1740
 1.7910	24.1720
 1.7920	24.1690
 1.7930	24.1690
 1.7940	24.1730
 1.7950	24.1750
 1.7960	24.1780
 1.7970	24.1830
 1.7980	24.1870
 1.7990	24.1930
 1.8000	24.2010
 1.8010	24.2080
 1.8020	24.2150
 1.8030	24.2220
 1.8040	24.2300
 1.8050	24.2340
 1.8060	24.2340
 1.8070	24.2380
 1.8080	24.2390
 1.8090	24.2430
 1.8100	24.2510
 1.8110	24.2530
 1.8120	24.2560
 1.8130	24.2570
 1.8140	24.2580
 1.8150	24.2610
 1.8160	24.2620
 1.8170	24.2600
 1.8180	24.2580
 1.8190	24.2550
 1.8200	24.2530
 1.8210	24.2550
 1.8220	24.2520
 1.8230	24.2440
 1.8240	24.2360
 1.8250	24.2260
 1.8260	24.2150
 1.8270	24.2020
 1.8280	24.1880
 1.8290	24.1690
 1.8300	24.2510
 1.8310	24.4520
 1.8320	24.5300
 1.8330	24.5040
 1.8340	24.4760
 1.8350	24.4410
 1.8360	24.4020
 1.8370	24.3610
 1.8380	24.3140
 1.8390	24.2610
 1.8400	24.2060
 1.8410	24.1430
 1.8420	24.0740
 1.8430	24.0000
 1.8440	23.9190
 1.8450	23.8280
 1.8460	23.7300
 1.8470	23.6270
 1.8480	23.5170
 1.8490	23.3950
 1.8500	23.2620
 1.8510	23.1220
 1.8520	22.9670
 1.8530	22.7970
 1.8540	22.6230
 1.8550	22.4410
 1.8560	22.2460
 1.8570	22.0440
 1.8580	21.8290
 1.8590	21.6010
 1.8600	21.3580
 1.8610	21.1060
 1.8620	20.8390
 1.8630	20.5600
 1.8640	20.2690
 1.8650	19.9640
 1.8660	19.6470
 1.8670	19.3130
 1.8680	18.9700
 1.8690	18.6150
 1.8700	18.2480
 1.8710	17.8680
 1.8720	17.4890
 1.8730	17.1030
 1.8740	16.7110
 1.8750	16.3190
 1.8760	15.9210
 1.8770	15.5220
 1.8780	15.1280
 1.8790	14.7350
 1.8800	14.3510
 1.8810	13.9730
 1.8820	13.6020
 1.8830	13.2360
 1.8840	12.8810
 1.8850	12.5370
 1.8860	12.2040
 1.8870	11.8830
 1.8880	11.5740
 1.8890	11.2820
 1.8900	11.0050
 1.8910	10.7430
 1.8920	10.4950
 1.8930	10.2650
 1.8940	10.0470
 1.8950	 9.8450
 1.8960	 9.6580
 1.8970	 9.4850
 1.8980	 9.3270
 1.8990	 9.1830
 1.9000	 9.0500
 1.9010	 8.9320
 1.9020	 8.8230
 1.9030	 8.7260
 1.9040	 8.6360
 1.9050	 8.5560
 1.9060	 8.4840
 1.9070	 8.4150
 1.9080	 8.3550
 1.9090	 8.3040
 1.9100	 8.2540
 1.9110	 8.2120
 1.9120	 8.1780
 1.9130	 8.1460
 1.9140	 8.1180
 1.9150	 8.0930
 1.9160	 8.0730
 1.9170	 8.0530
 1.9180	 8.0350
 1.9190	 8.0200
 1.9200	 8.0070
 1.9210	 7.9960
 1.9220	 7.9880
 1.9230	 7.9840
 1.9240	 7.9800
 1.9250	 7.9790
 1.9260	 7.9790
 1.9270	 7.9790
 1.9280	 7.9820
 1.9290	 7.9880
 1.9300	 7.9950
 1.9310	 8.0020
 1.9320	 8.0100
 1.9330	 8.0190
 1.9340	 8.0280
 1.9350	 8.0380
 1.9360	 8.0500
 1.9370	 8.0630
 1.9380	 8.0750
 1.9390	 8.0900
 1.9400	 8.1040
 1.9410	 8.1200
 1.9420	 8.1400
 1.9430	 8.1570
 1.9440	 8.1760
 1.9450	 8.1980
 1.9460	 8.2180
 1.9470	 8.2370
 1.9480	 8.2600
 1.9490	 8.2820
 1.9500	 8.3080
 1.9510	 8.3350
 1.9520	 8.3610
 1.9530	 8.3900
 1.9540	 8.4190
 1.9550	 8.4480
 1.9560	 8.4790
 1.9570	 8.5090
 1.9580	 8.5370
 1.9590	 8.5660
 1.9600	 8.5930
 1.9610	 8.6210
 1.9620	 8.6500
 1.9630	 8.6800
 1.9640	 8.7120
 1.9650	 8.7460
 1.9660	 8.7820
 1.9670	 8.8190
 1.9680	 8.8560
 1.9690	 8.8930
 1.9700	 8.9300
 1.9710	 8.9670
 1.9720	 9.0020
 1.9730	 9.0360
 1.9740	 9.0720
 1.9750	 9.1090
 1.9760	 9.1460
 1.9770	 9.1870
 1.9780	 9.2290
 1.9790	 9.2690
 1.9800	 9.3090
 1.9810	 9.3490
 1.9820	 9.3870
 1.9830	 9.4280
 1.9840	 9.4720
 1.9850	 9.5140
 1.9860	 9.5580
 1.9870	 9.6010
 1.9880	 9.6430
 1.9890	 9.6850
 1.9900	 9.7290
 1.9910	 9.7720
 1.9920	 9.8160
 1.9930	 9.8590
 1.9940	 9.9030
 1.9950	 9.9440
 1.9960	 9.9890
 1.9970	10.0350
 1.9980	10.0820
 1.9990	10.1310
 2.0000	10.1810
 2.0010	10.2290
 2.0020	10.2750
 2.0030	10.3220
 2.0040	10.3670
 2.0050	10.4130
 2.0060	10.4570
 2.0070	10.5030
 2.0080	10.5490
 2.0090	10.5950
 2.0100	10.6420
 2.0110	10.6870
 2.0120	10.7300
 2.0130	10.7740
 2.0140	10.8190
 2.0150	10.8630
 2.0160	10.9050
 2.0170	10.9480
 2.0180	10.9900
 2.0190	11.0300
 2.0200	11.0720
 2.0210	11.1160
 2.0220	11.1560
 2.0230	11.1940
 2.0240	11.2340
 2.0250	11.2740
 2.0260	11.3130
 2.0270	11.3550
 2.0280	11.3960
 2.0290	11.4350
 2.0300	11.4700
 2.0310	11.5050
 2.0320	11.5370
 2.0330	11.5730
 2.0340	11.6110
 2.0350	11.6470
 2.0360	11.6860
 2.0370	11.7220
 2.0380	11.7520
 2.0390	11.7860
 2.0400	11.8190
 2.0410	11.8520
 2.0420	11.8850
 2.0430	11.9180
 2.0440	11.9480
 2.0450	11.9770
 2.0460	12.0050
 2.0470	12.0330
 2.0480	12.0610
 2.0490	12.0890
 2.0500	12.1170
 2.0510	12.1440
 2.0520	12.1720
 2.0530	12.2000
 2.0540	12.2280
 2.0550	12.2600
 2.0560	12.2880
 2.0570	12.3170
 2.0580	12.3460
 2.0590	12.3750
 2.0600	12.4050
 2.0610	12.4310
 2.0620	12.4550
 2.0630	12.4800
 2.0640	12.5010
 2.0650	12.5260
 2.0660	12.5580
 2.0670	12.5850
 2.0680	12.6100
 2.0690	12.6350
 2.0700	12.6580
 2.0710	12.6830
 2.0720	12.7090
 2.0730	12.7350
 2.0740	12.7630
 2.0750	12.7940
 2.0760	12.8210
 2.0770	12.8470
 2.0780	12.8740
 2.0790	12.8980
 2.0800	12.9260
 2.0810	12.9570
 2.0820	12.9850
 2.0830	13.0120
 2.0840	13.0390
 2.0850	13.0660
 2.0860	13.0930
 2.0870	13.1200
 2.0880	13.1480
 2.0890	13.1750
 2.0900	13.2030
 2.0910	13.2290
 2.0920	13.2540
 2.0930	13.2810
 2.0940	13.3070
 2.0950	13.3350
 2.0960	13.3660
 2.0970	13.3940
 2.0980	13.4180
 2.0990	13.4450
 2.1000	13.4700
 2.1010	13.4970
 2.1020	13.5270
 2.1030	13.5550
 2.1040	13.5840
 2.1050	13.6110
 2.1060	13.6370
 2.1070	13.6620
 2.1080	13.6880
 2.1090	13.7150
 2.1100	13.7410
 2.1110	13.7680
 2.1120	13.7950
 2.1130	13.8220
 2.1140	13.8470
 2.1150	13.8720
 2.1160	13.8970
 2.1170	13.9190
 2.1180	13.9430
 2.1190	13.9710
 2.1200	13.9970
 2.1210	14.0260
 2.1220	14.0540
 2.1230	14.0810
 2.1240	14.1070
 2.1250	14.1320
 2.1260	14.1550
 2.1270	14.1800
 2.1280	14.2060
 2.1290	14.2310
 2.1300	14.2570
 2.1310	14.2800
 2.1320	14.2990
 2.1330	14.3220
 2.1340	14.3460
 2.1350	14.3690
 2.1360	14.3920
 2.1370	14.4160
 2.1380	14.4400
 2.1390	14.4630
 2.1400	14.4870
 2.1410	14.5120
 2.1420	14.5360
 2.1430	14.5600
 2.1440	14.5830
 2.1450	14.6070
 2.1460	14.6310
 2.1470	14.6530
 2.1480	14.6770
 2.1490	14.7010
 2.1500	14.7250
 2.1510	14.7500
 2.1520	14.7730
 2.1530	14.7940
 2.1540	14.8160
 2.1550	14.8400
 2.1560	14.8620
 2.1570	14.8850
 2.1580	14.9070
 2.1590	14.9270
 2.1600	14.9460
 2.1610	14.9690
 2.1620	14.9920
 2.1630	15.0120
 2.1640	15.0320
 2.1650	15.0520
 2.1660	15.0710
 2.1670	15.0890
 2.1680	15.1050
 2.1690	15.1220
 2.1700	15.1370
 2.1710	15.1530
 2.1720	15.1700
 2.1730	15.1860
 2.1740	15.1980
 2.1750	15.2130
 2.1760	15.2290
 2.1770	15.2450
 2.1780	15.2610
 2.1790	15.2790
 2.1800	15.3010
 2.1810	15.3190
 2.1820	15.3360
 2.1830	15.3540
 2.1840	15.3720
 2.1850	15.3860
 2.1860	15.4050
 2.1870	15.4270
 2.1880	15.4470
 2.1890	15.4670
 2.1900	15.4860
 2.1910	15.5070
 2.1920	15.5230
 2.1930	15.5370
 2.1940	15.5500
 2.1950	15.5590
 2.1960	15.5720
 2.1970	15.5860
 2.1980	15.6000
 2.1990	15.6130
 2.2000	15.6270
 2.2010	15.6430
 2.2020	15.6560
 2.2030	15.6670
 2.2040	15.6790
 2.2050	15.6920
 2.2060	15.6990
 2.2070	15.7080
 2.2080	15.7160
 2.2090	15.7250
 2.2100	15.7310
 2.2110	15.7390
 2.2120	15.7500
 2.2130	15.7550
 2.2140	15.7590
 2.2150	15.7610
 2.2160	15.7620
 2.2170	15.7620
 2.2180	15.7620
 2.2190	15.7590
 2.2200	15.7540
 2.2210	15.7470
 2.2220	15.7370
 2.2230	15.7270
 2.2240	15.7160
 2.2250	15.7010
 2.2260	15.6850
 2.2270	15.6660
 2.2280	15.6420
 2.2290	15.6200
 2.2300	15.5960
 2.2310	15.5730
 2.2320	15.5460
 2.2330	15.5190
 2.2340	15.4890
 2.2350	15.4550
 2.2360	15.4180
 2.2370	15.3760
 2.2380	15.3350
 2.2390	15.2880
 2.2400	15.2450
 2.2410	15.2030
 2.2420	15.1590
 2.2430	15.1180
 2.2440	15.0710
 2.2450	15.0210
 2.2460	14.9700
 2.2470	14.9150
 2.2480	14.8600
 2.2490	14.8050
 2.2500	14.7510
 2.2510	14.6960
 2.2520	14.6390
 2.2530	14.5820
 2.2540	14.5220
 2.2550	14.4560
 2.2560	14.3930
 2.2570	14.3280
 2.2580	14.2660
 2.2590	14.2080
 2.2600	14.1490
 2.2610	14.0890
 2.2620	14.0300
 2.2630	13.9730
 2.2640	13.9130
 2.2650	13.8570
 2.2660	13.8050
 2.2670	13.7560
 2.2680	13.7100
 2.2690	13.6630
 2.2700	13.6200
 2.2710	13.5770
 2.2720	13.5330
 2.2730	13.4940
 2.2740	13.4590
 2.2750	13.4240
 2.2760	13.3930
 2.2770	13.3610
 2.2780	13.3310
 2.2790	13.3000
 2.2800	13.2700
 2.2810	13.2380
 2.2820	13.2020
 2.2830	13.1710
 2.2840	13.1430
 2.2850	13.1100
 2.2860	13.0800
 2.2870	13.0450
 2.2880	13.0030
 2.2890	12.9620
 2.2900	12.9220
 2.2910	12.8810
 2.2920	12.8400
 2.2930	12.7990
 2.2940	12.7550
 2.2950	12.7120
 2.2960	12.6670
 2.2970	12.6250
 2.2980	12.5850
 2.2990	12.5440
 2.3000	12.5030
 2.3010	12.4700
 2.3020	12.4340
 2.3030	12.3980
 2.3040	12.3690
 2.3050	12.3380
 2.3060	12.3080
 2.3070	12.2880
 2.3080	12.2660
 2.3090	12.2430
 2.3100	12.2290
 2.3110	12.2160
 2.3120	12.2060
 2.3130	12.2020
 2.3140	12.1970
 2.3150	12.1950
 2.3160	12.1910
 2.3170	12.1850
 2.3180	12.1800
 2.3190	12.1770
 2.3200	12.1720
 2.3210	12.1700
 2.3220	12.1600
 2.3230	12.1440
 2.3240	12.1250
 2.3250	12.0970
 2.3260	12.0720
 2.3270	12.0470
 2.3280	12.0180
 2.3290	11.9850
 2.3300	11.9540
 2.3310	11.9180
 2.3320	11.8870
 2.3330	11.8610
 2.3340	11.8340
 2.3350	11.8110
 2.3360	11.7840
 2.3370	11.7550
 2.3380	11.7270
 2.3390	11.6940
 2.3400	11.6650
 2.3410	11.6390
 2.3420	11.6100
 2.3430	11.5790
 2.3440	11.5500
 2.3450	11.5170
 2.3460	11.4890
 2.3470	11.4680
 2.3480	11.4440
 2.3490	11.4190
 2.3500	11.3990
 2.3510	11.3810
 2.3520	11.3620
 2.3530	11.3480
 2.3540	11.3360
 2.3550	11.3110
 2.3560	11.2880
 2.3570	11.2630
 2.3580	11.2320
 2.3590	11.2120
 2.3600	11.1970
 2.3610	11.1770
 2.3620	11.1610
 2.3630	11.1450
 2.3640	11.1220
 2.3650	11.0970
 2.3660	11.0760
 2.3670	11.0560
 2.3680	11.0340
 2.3690	11.0110
 2.3700	10.9900
 2.3710	10.9670
 2.3720	10.9450
 2.3730	10.9310
 2.3740	10.9150
 2.3750	10.8900
 2.3760	10.8660
 2.3770	10.8420
 2.3780	10.8240
 2.3790	10.8070
 2.3800	10.7880
 2.3810	10.7690
 2.3820	10.7490
 2.3830	10.7290
 2.3840	10.7090
 2.3850	10.6870
 2.3860	10.6600
 2.3870	10.6340
 2.3880	10.6020
 2.3890	10.5680
 2.3900	10.5450
 2.3910	10.5220
 2.3920	10.4950
 2.3930	10.4700
 2.3940	10.4490
 2.3950	10.4290
 2.3960	10.4110
 2.3970	10.3910
 2.3980	10.3610
 2.3990	10.3300
 2.4000	10.3070
 2.4010	10.2830
 2.4020	10.2620
 2.4030	10.2450
 2.4040	10.2230
 2.4050	10.2020
 2.4060	10.1770
 2.4070	10.1490
 2.4080	10.1220
 2.4090	10.1010
 2.4100	10.0800
 2.4110	10.0430
 2.4120	10.0030
 2.4130	 9.9700
 2.4140	 9.9380
 2.4150	 9.9210
 2.4160	 9.9090
 2.4170	 9.8790
 2.4180	 9.8510
 2.4190	 9.8270
 2.4200	 9.8070
 2.4210	 9.7930
 2.4220	 9.7780
 2.4230	 9.7600
 2.4240	 9.7310
 2.4250	 9.6880
 2.4260	 9.6570
 2.4270	 9.6350
 2.4280	 9.5970
 2.4290	 9.5820
 2.4300	 9.5710
 2.4310	 9.5340
 2.4320	 9.5100
 2.4330	 9.4780
 2.4340	 9.4390
 2.4350	 9.4190
 2.4360	 9.3990
 2.4370	 9.3660
 2.4380	 9.3370
 2.4390	 9.3130
 2.4400	 9.2820
 2.4410	 9.2630
 2.4420	 9.2360
 2.4430	 9.1810
 2.4440	 9.1440
 2.4450	 9.1270
 2.4460	 9.1080
 2.4470	 9.1010
 2.4480	 9.0900
 2.4490	 9.0640
 2.4500	 9.0330
 2.4510	 8.9960
 2.4520	 8.9520
 2.4530	 8.9080
 2.4540	 8.8730
 2.4550	 8.8420
 2.4560	 8.8180
 2.4570	 8.7980
 2.4580	 8.7850
 2.4590	 8.7840
 2.4600	 8.7700
 2.4610	 8.7470
 2.4620	 8.7220
 2.4630	 8.6910
 2.4640	 8.6680
 2.4650	 8.6390
 2.4660	 8.5880
 2.4670	 8.5440
 2.4680	 8.5190
 2.4690	 8.5290
 2.4700	 8.5260
 2.4710	 8.5240
 2.4720	 8.5100
 2.4730	 8.4750
 2.4740	 8.4500
 2.4750	 8.4190
 2.4760	 8.3990
 2.4770	 8.4020
 2.4780	 8.3890
 2.4790	 8.3740
 2.4800	 8.3690
 2.4810	 8.3590
 2.4820	 8.3390
 2.4830	 8.3250
 2.4840	 8.3140
 2.4850	 8.2970
 2.4860	 8.2740
 2.4870	 8.2510
 2.4880	 8.2370
 2.4890	 8.2410
 2.4900	 8.2280
 2.4910	 8.2290
 2.4920	 8.2380
 2.4930	 8.2340
 2.4940	 8.2660
 2.4950	 8.2770
 2.4960	 8.2410
 2.4970	 8.1880
 2.4980	 8.1610
 2.4990	 8.1670
 2.5000	 8.1250
