Name: Abies concolor 3
Type: vegetation
Class: Tree
Genus: Abies
Species: concolor
Sample No.: VH072
Owner: UCSB
Wavelength Range: VSWIR
Origin: 37.0439; -119.3058; WGS84
Collection Date: 4/20/2013
Description: Samples were collected as part of the HyspIRI Airborne Campaign. 48 individual plants were sampled in three times in 2013 - spring  summer  and fall. The name of the sample includes a 1  2  or 3 which references a different individual of the species. Samples were taken to JPL and processed within 48 hours of collection. The same leaves were processed in the Nicolet and then measured using the ASD.
Measurement: Bidirectional reflectance
First Column: X
Second Column: Y
X Units: Wavelength (micrometers)
Y Units: Reflectance (percentage)
First X Value: 0.35
Last X Value: 2.5
Number of X Values: 2151
Additional Information: vegetation.tree.abies.concolor.vswir.vh072.ucsb.asd.ancillary.txt

 0.3500	 5.8790
 0.3510	 5.6580
 0.3520	 5.5740
 0.3530	 5.5970
 0.3540	 5.6290
 0.3550	 5.6330
 0.3560	 5.5640
 0.3570	 5.4520
 0.3580	 5.3750
 0.3590	 5.4690
 0.3600	 5.6370
 0.3610	 5.7000
 0.3620	 5.3870
 0.3630	 5.3030
 0.3640	 5.3830
 0.3650	 5.4320
 0.3660	 5.4810
 0.3670	 5.4180
 0.3680	 5.3020
 0.3690	 5.3000
 0.3700	 5.3760
 0.3710	 5.3920
 0.3720	 5.2990
 0.3730	 5.2210
 0.3740	 5.2290
 0.3750	 5.2380
 0.3760	 5.1750
 0.3770	 5.2990
 0.3780	 5.3440
 0.3790	 5.2750
 0.3800	 5.2720
 0.3810	 5.2600
 0.3820	 5.2300
 0.3830	 5.1990
 0.3840	 5.2180
 0.3850	 5.1940
 0.3860	 5.1520
 0.3870	 5.1590
 0.3880	 5.2500
 0.3890	 5.2550
 0.3900	 5.1570
 0.3910	 5.1100
 0.3920	 5.1140
 0.3930	 5.1390
 0.3940	 5.1580
 0.3950	 5.1680
 0.3960	 5.1610
 0.3970	 5.1620
 0.3980	 5.2030
 0.3990	 5.2340
 0.4000	 5.2390
 0.4010	 5.2210
 0.4020	 5.2000
 0.4030	 5.2170
 0.4040	 5.2570
 0.4050	 5.2900
 0.4060	 5.2860
 0.4070	 5.3170
 0.4080	 5.3710
 0.4090	 5.3900
 0.4100	 5.4070
 0.4110	 5.4410
 0.4120	 5.4900
 0.4130	 5.5230
 0.4140	 5.5300
 0.4150	 5.5480
 0.4160	 5.6080
 0.4170	 5.6510
 0.4180	 5.6770
 0.4190	 5.7070
 0.4200	 5.7760
 0.4210	 5.8270
 0.4220	 5.8670
 0.4230	 5.9100
 0.4240	 5.9430
 0.4250	 5.9960
 0.4260	 6.0670
 0.4270	 6.1340
 0.4280	 6.1590
 0.4290	 6.1870
 0.4300	 6.2380
 0.4310	 6.2880
 0.4320	 6.3320
 0.4330	 6.3740
 0.4340	 6.4190
 0.4350	 6.4730
 0.4360	 6.5090
 0.4370	 6.5340
 0.4380	 6.5770
 0.4390	 6.6090
 0.4400	 6.6400
 0.4410	 6.6790
 0.4420	 6.7170
 0.4430	 6.7500
 0.4440	 6.7790
 0.4450	 6.8090
 0.4460	 6.8360
 0.4470	 6.8650
 0.4480	 6.8990
 0.4490	 6.9390
 0.4500	 6.9820
 0.4510	 7.0170
 0.4520	 7.0350
 0.4530	 7.0330
 0.4540	 7.0390
 0.4550	 7.0610
 0.4560	 7.0870
 0.4570	 7.1030
 0.4580	 7.1120
 0.4590	 7.1190
 0.4600	 7.1310
 0.4610	 7.1260
 0.4620	 7.1200
 0.4630	 7.1340
 0.4640	 7.1390
 0.4650	 7.1370
 0.4660	 7.1340
 0.4670	 7.1360
 0.4680	 7.1350
 0.4690	 7.1320
 0.4700	 7.1310
 0.4710	 7.1300
 0.4720	 7.1330
 0.4730	 7.1390
 0.4740	 7.1460
 0.4750	 7.1360
 0.4760	 7.1310
 0.4770	 7.1420
 0.4780	 7.1520
 0.4790	 7.1500
 0.4800	 7.1470
 0.4810	 7.1520
 0.4820	 7.1470
 0.4830	 7.1380
 0.4840	 7.1340
 0.4850	 7.1380
 0.4860	 7.1530
 0.4870	 7.1660
 0.4880	 7.1720
 0.4890	 7.1820
 0.4900	 7.1990
 0.4910	 7.2200
 0.4920	 7.2390
 0.4930	 7.2600
 0.4940	 7.2920
 0.4950	 7.3310
 0.4960	 7.3660
 0.4970	 7.3990
 0.4980	 7.4400
 0.4990	 7.4980
 0.5000	 7.5640
 0.5010	 7.6290
 0.5020	 7.6920
 0.5030	 7.7630
 0.5040	 7.8490
 0.5050	 7.9480
 0.5060	 8.0550
 0.5070	 8.1700
 0.5080	 8.2890
 0.5090	 8.4170
 0.5100	 8.5610
 0.5110	 8.7130
 0.5120	 8.8780
 0.5130	 9.0550
 0.5140	 9.2400
 0.5150	 9.4350
 0.5160	 9.6420
 0.5170	 9.8570
 0.5180	10.0730
 0.5190	10.2940
 0.5200	10.5220
 0.5210	10.7540
 0.5220	10.9830
 0.5230	11.2070
 0.5240	11.4260
 0.5250	11.6390
 0.5260	11.8430
 0.5270	12.0320
 0.5280	12.2020
 0.5290	12.3620
 0.5300	12.5120
 0.5310	12.6480
 0.5320	12.7720
 0.5330	12.8840
 0.5340	12.9880
 0.5350	13.0870
 0.5360	13.1750
 0.5370	13.2480
 0.5380	13.3130
 0.5390	13.3800
 0.5400	13.4430
 0.5410	13.5050
 0.5420	13.5660
 0.5430	13.6270
 0.5440	13.6830
 0.5450	13.7330
 0.5460	13.7770
 0.5470	13.8040
 0.5480	13.8250
 0.5490	13.8480
 0.5500	13.8790
 0.5510	13.9040
 0.5520	13.9180
 0.5530	13.9190
 0.5540	13.9040
 0.5550	13.8730
 0.5560	13.8290
 0.5570	13.7740
 0.5580	13.7110
 0.5590	13.6340
 0.5600	13.5430
 0.5610	13.4460
 0.5620	13.3430
 0.5630	13.2310
 0.5640	13.1100
 0.5650	12.9870
 0.5660	12.8590
 0.5670	12.7250
 0.5680	12.5890
 0.5690	12.4510
 0.5700	12.3110
 0.5710	12.1690
 0.5720	12.0310
 0.5730	11.8930
 0.5740	11.7570
 0.5750	11.6340
 0.5760	11.5190
 0.5770	11.4090
 0.5780	11.3020
 0.5790	11.2080
 0.5800	11.1200
 0.5810	11.0350
 0.5820	10.9520
 0.5830	10.8670
 0.5840	10.7870
 0.5850	10.7160
 0.5860	10.6540
 0.5870	10.6000
 0.5880	10.5490
 0.5890	10.4980
 0.5900	10.4440
 0.5910	10.3930
 0.5920	10.3460
 0.5930	10.3030
 0.5940	10.2670
 0.5950	10.2360
 0.5960	10.2070
 0.5970	10.1810
 0.5980	10.1610
 0.5990	10.1380
 0.6000	10.1060
 0.6010	10.0680
 0.6020	10.0250
 0.6030	 9.9810
 0.6040	 9.9400
 0.6050	 9.8830
 0.6060	 9.8190
 0.6070	 9.7590
 0.6080	 9.6930
 0.6090	 9.6260
 0.6100	 9.5640
 0.6110	 9.5090
 0.6120	 9.4350
 0.6130	 9.3500
 0.6140	 9.2650
 0.6150	 9.1890
 0.6160	 9.1150
 0.6170	 9.0450
 0.6180	 8.9830
 0.6190	 8.9270
 0.6200	 8.8800
 0.6210	 8.8380
 0.6220	 8.7940
 0.6230	 8.7570
 0.6240	 8.7280
 0.6250	 8.7050
 0.6260	 8.6860
 0.6270	 8.6710
 0.6280	 8.6590
 0.6290	 8.6510
 0.6300	 8.6430
 0.6310	 8.6310
 0.6320	 8.6140
 0.6330	 8.5930
 0.6340	 8.5640
 0.6350	 8.5270
 0.6360	 8.4830
 0.6370	 8.4260
 0.6380	 8.3630
 0.6390	 8.2960
 0.6400	 8.2210
 0.6410	 8.1360
 0.6420	 8.0480
 0.6430	 7.9600
 0.6440	 7.8720
 0.6450	 7.7850
 0.6460	 7.6980
 0.6470	 7.6140
 0.6480	 7.5410
 0.6490	 7.4760
 0.6500	 7.4170
 0.6510	 7.3660
 0.6520	 7.3190
 0.6530	 7.2770
 0.6540	 7.2370
 0.6550	 7.1950
 0.6560	 7.1450
 0.6570	 7.0870
 0.6580	 7.0260
 0.6590	 6.9580
 0.6600	 6.8850
 0.6610	 6.8090
 0.6620	 6.7340
 0.6630	 6.6600
 0.6640	 6.5860
 0.6650	 6.5140
 0.6660	 6.4550
 0.6670	 6.4040
 0.6680	 6.3580
 0.6690	 6.3170
 0.6700	 6.2820
 0.6710	 6.2560
 0.6720	 6.2400
 0.6730	 6.2270
 0.6740	 6.2160
 0.6750	 6.2090
 0.6760	 6.2080
 0.6770	 6.2140
 0.6780	 6.2230
 0.6790	 6.2350
 0.6800	 6.2600
 0.6810	 6.2950
 0.6820	 6.3430
 0.6830	 6.4060
 0.6840	 6.4960
 0.6850	 6.6080
 0.6860	 6.7460
 0.6870	 6.9190
 0.6880	 7.1300
 0.6890	 7.3870
 0.6900	 7.6970
 0.6910	 8.0610
 0.6920	 8.4850
 0.6930	 8.9680
 0.6940	 9.5070
 0.6950	10.0950
 0.6960	10.7360
 0.6970	11.4260
 0.6980	12.1550
 0.6990	12.9150
 0.7000	13.6980
 0.7010	14.4990
 0.7020	15.3190
 0.7030	16.1390
 0.7040	16.9620
 0.7050	17.7900
 0.7060	18.6150
 0.7070	19.4370
 0.7080	20.2580
 0.7090	21.0870
 0.7100	21.9180
 0.7110	22.7530
 0.7120	23.5940
 0.7130	24.4430
 0.7140	25.2970
 0.7150	26.1550
 0.7160	27.0190
 0.7170	27.8940
 0.7180	28.7760
 0.7190	29.6600
 0.7200	30.5430
 0.7210	31.4320
 0.7220	32.3230
 0.7230	33.2090
 0.7240	34.0870
 0.7250	34.9590
 0.7260	35.8140
 0.7270	36.6470
 0.7280	37.4780
 0.7290	38.2920
 0.7300	39.0810
 0.7310	39.8420
 0.7320	40.5840
 0.7330	41.3000
 0.7340	41.9900
 0.7350	42.6630
 0.7360	43.3060
 0.7370	43.9200
 0.7380	44.5070
 0.7390	45.0750
 0.7400	45.6100
 0.7410	46.1120
 0.7420	46.5870
 0.7430	47.0370
 0.7440	47.4660
 0.7450	47.8680
 0.7460	48.2340
 0.7470	48.5780
 0.7480	48.9020
 0.7490	49.2060
 0.7500	49.4910
 0.7510	49.7430
 0.7520	49.9710
 0.7530	50.1900
 0.7540	50.3910
 0.7550	50.5810
 0.7560	50.7530
 0.7570	50.8960
 0.7580	51.0330
 0.7590	51.1650
 0.7600	51.2860
 0.7610	51.3880
 0.7620	51.4840
 0.7630	51.5700
 0.7640	51.6470
 0.7650	51.7250
 0.7660	51.7950
 0.7670	51.8560
 0.7680	51.9120
 0.7690	51.9680
 0.7700	52.0120
 0.7710	52.0470
 0.7720	52.1020
 0.7730	52.1430
 0.7740	52.1740
 0.7750	52.2050
 0.7760	52.2440
 0.7770	52.2670
 0.7780	52.2860
 0.7790	52.3200
 0.7800	52.3470
 0.7810	52.3690
 0.7820	52.3910
 0.7830	52.4140
 0.7840	52.4360
 0.7850	52.4590
 0.7860	52.4800
 0.7870	52.4930
 0.7880	52.5080
 0.7890	52.5300
 0.7900	52.5560
 0.7910	52.5660
 0.7920	52.5780
 0.7930	52.5940
 0.7940	52.6050
 0.7950	52.6220
 0.7960	52.6370
 0.7970	52.6470
 0.7980	52.6530
 0.7990	52.6640
 0.8000	52.6760
 0.8010	52.6840
 0.8020	52.6980
 0.8030	52.7090
 0.8040	52.7150
 0.8050	52.7150
 0.8060	52.7280
 0.8070	52.7370
 0.8080	52.7400
 0.8090	52.7450
 0.8100	52.7470
 0.8110	52.7540
 0.8120	52.7650
 0.8130	52.7660
 0.8140	52.7720
 0.8150	52.7780
 0.8160	52.7770
 0.8170	52.7900
 0.8180	52.8090
 0.8190	52.8140
 0.8200	52.7930
 0.8210	52.8030
 0.8220	52.8230
 0.8230	52.8310
 0.8240	52.8190
 0.8250	52.8190
 0.8260	52.8260
 0.8270	52.8290
 0.8280	52.8200
 0.8290	52.8150
 0.8300	52.8150
 0.8310	52.8160
 0.8320	52.8190
 0.8330	52.8190
 0.8340	52.8190
 0.8350	52.8230
 0.8360	52.8220
 0.8370	52.8260
 0.8380	52.8370
 0.8390	52.8470
 0.8400	52.8600
 0.8410	52.8690
 0.8420	52.8760
 0.8430	52.8910
 0.8440	52.9080
 0.8450	52.9200
 0.8460	52.9260
 0.8470	52.9410
 0.8480	52.9630
 0.8490	52.9830
 0.8500	52.9940
 0.8510	53.0040
 0.8520	53.0130
 0.8530	53.0240
 0.8540	53.0420
 0.8550	53.0520
 0.8560	53.0560
 0.8570	53.0600
 0.8580	53.0760
 0.8590	53.0910
 0.8600	53.1040
 0.8610	53.1150
 0.8620	53.1280
 0.8630	53.1380
 0.8640	53.1430
 0.8650	53.1450
 0.8660	53.1590
 0.8670	53.1630
 0.8680	53.1650
 0.8690	53.1770
 0.8700	53.1870
 0.8710	53.1930
 0.8720	53.1970
 0.8730	53.2050
 0.8740	53.2150
 0.8750	53.2170
 0.8760	53.2120
 0.8770	53.2190
 0.8780	53.2230
 0.8790	53.2280
 0.8800	53.2350
 0.8810	53.2280
 0.8820	53.2250
 0.8830	53.2240
 0.8840	53.2240
 0.8850	53.2360
 0.8860	53.2280
 0.8870	53.2150
 0.8880	53.2180
 0.8890	53.2110
 0.8900	53.1950
 0.8910	53.1850
 0.8920	53.1900
 0.8930	53.1820
 0.8940	53.1670
 0.8950	53.1550
 0.8960	53.1570
 0.8970	53.1420
 0.8980	53.1320
 0.8990	53.1290
 0.9000	53.1100
 0.9010	53.1100
 0.9020	53.1070
 0.9030	53.0900
 0.9040	53.0690
 0.9050	53.0600
 0.9060	53.0520
 0.9070	53.0350
 0.9080	53.0070
 0.9090	52.9870
 0.9100	52.9810
 0.9110	52.9810
 0.9120	52.9580
 0.9130	52.9340
 0.9140	52.9200
 0.9150	52.9150
 0.9160	52.8890
 0.9170	52.8610
 0.9180	52.8360
 0.9190	52.8080
 0.9200	52.7830
 0.9210	52.7620
 0.9220	52.7330
 0.9230	52.6860
 0.9240	52.6600
 0.9250	52.6270
 0.9260	52.5780
 0.9270	52.5220
 0.9280	52.4780
 0.9290	52.4300
 0.9300	52.3740
 0.9310	52.3200
 0.9320	52.2650
 0.9330	52.1950
 0.9340	52.1150
 0.9350	52.0550
 0.9360	51.9870
 0.9370	51.9130
 0.9380	51.8330
 0.9390	51.7410
 0.9400	51.6620
 0.9410	51.5900
 0.9420	51.5070
 0.9430	51.3930
 0.9440	51.2740
 0.9450	51.1580
 0.9460	51.0420
 0.9470	50.9210
 0.9480	50.7640
 0.9490	50.6010
 0.9500	50.4550
 0.9510	50.2890
 0.9520	50.1170
 0.9530	49.9360
 0.9540	49.7490
 0.9550	49.5860
 0.9560	49.4090
 0.9570	49.2270
 0.9580	49.0610
 0.9590	48.9240
 0.9600	48.7890
 0.9610	48.6640
 0.9620	48.5590
 0.9630	48.4510
 0.9640	48.3590
 0.9650	48.2810
 0.9660	48.2100
 0.9670	48.1510
 0.9680	48.0940
 0.9690	48.0390
 0.9700	47.9950
 0.9710	47.9800
 0.9720	47.9330
 0.9730	47.8750
 0.9740	47.8490
 0.9750	47.8160
 0.9760	47.8080
 0.9770	47.8120
 0.9780	47.7960
 0.9790	47.7770
 0.9800	47.7780
 0.9810	47.7860
 0.9820	47.7760
 0.9830	47.7700
 0.9840	47.7960
 0.9850	47.8350
 0.9860	47.8560
 0.9870	47.8960
 0.9880	47.9400
 0.9890	47.9760
 0.9900	48.0030
 0.9910	48.0420
 0.9920	48.0930
 0.9930	48.1440
 0.9940	48.1950
 0.9950	48.2450
 0.9960	48.2960
 0.9970	48.3470
 0.9980	48.3980
 0.9990	48.4490
 1.0000	48.5000
 1.0010	48.5500
 1.0020	48.6010
 1.0030	48.6520
 1.0040	48.7030
 1.0050	48.7540
 1.0060	48.8050
 1.0070	48.8560
 1.0080	48.9060
 1.0090	48.9570
 1.0100	48.9570
 1.0110	49.0310
 1.0120	49.1050
 1.0130	49.1790
 1.0140	49.2540
 1.0150	49.3310
 1.0160	49.4070
 1.0170	49.4770
 1.0180	49.5410
 1.0190	49.6040
 1.0200	49.6720
 1.0210	49.7450
 1.0220	49.8200
 1.0230	49.8920
 1.0240	49.9660
 1.0250	50.0350
 1.0260	50.0970
 1.0270	50.1640
 1.0280	50.2330
 1.0290	50.2980
 1.0300	50.3660
 1.0310	50.4320
 1.0320	50.4980
 1.0330	50.5580
 1.0340	50.6220
 1.0350	50.6800
 1.0360	50.7350
 1.0370	50.7900
 1.0380	50.8440
 1.0390	50.8970
 1.0400	50.9500
 1.0410	50.9990
 1.0420	51.0520
 1.0430	51.1070
 1.0440	51.1590
 1.0450	51.2100
 1.0460	51.2600
 1.0470	51.3090
 1.0480	51.3560
 1.0490	51.4050
 1.0500	51.4480
 1.0510	51.4840
 1.0520	51.5210
 1.0530	51.5570
 1.0540	51.5900
 1.0550	51.6240
 1.0560	51.6580
 1.0570	51.6910
 1.0580	51.7260
 1.0590	51.7570
 1.0600	51.7860
 1.0610	51.8130
 1.0620	51.8340
 1.0630	51.8570
 1.0640	51.8810
 1.0650	51.9010
 1.0660	51.9180
 1.0670	51.9330
 1.0680	51.9470
 1.0690	51.9560
 1.0700	51.9670
 1.0710	51.9790
 1.0720	51.9890
 1.0730	51.9980
 1.0740	52.0060
 1.0750	52.0150
 1.0760	52.0180
 1.0770	52.0170
 1.0780	52.0140
 1.0790	52.0040
 1.0800	51.9950
 1.0810	51.9820
 1.0820	51.9740
 1.0830	51.9680
 1.0840	51.9580
 1.0850	51.9520
 1.0860	51.9420
 1.0870	51.9260
 1.0880	51.9040
 1.0890	51.8830
 1.0900	51.8570
 1.0910	51.8340
 1.0920	51.8110
 1.0930	51.7850
 1.0940	51.7570
 1.0950	51.7290
 1.0960	51.6980
 1.0970	51.6670
 1.0980	51.6370
 1.0990	51.6030
 1.1000	51.5660
 1.1010	51.5280
 1.1020	51.4890
 1.1030	51.4490
 1.1040	51.4130
 1.1050	51.3750
 1.1060	51.3330
 1.1070	51.2900
 1.1080	51.2430
 1.1090	51.1910
 1.1100	51.1410
 1.1110	51.0910
 1.1120	51.0380
 1.1130	50.9890
 1.1140	50.9310
 1.1150	50.8670
 1.1160	50.8020
 1.1170	50.7350
 1.1180	50.6580
 1.1190	50.5780
 1.1200	50.4930
 1.1210	50.3960
 1.1220	50.2890
 1.1230	50.1750
 1.1240	50.0500
 1.1250	49.9100
 1.1260	49.7620
 1.1270	49.5950
 1.1280	49.4130
 1.1290	49.2170
 1.1300	49.0090
 1.1310	48.7800
 1.1320	48.5370
 1.1330	48.2770
 1.1340	47.9960
 1.1350	47.7050
 1.1360	47.3980
 1.1370	47.0810
 1.1380	46.7530
 1.1390	46.4180
 1.1400	46.0740
 1.1410	45.7300
 1.1420	45.3850
 1.1430	45.0380
 1.1440	44.6980
 1.1450	44.3580
 1.1460	44.0310
 1.1470	43.7040
 1.1480	43.3990
 1.1490	43.1060
 1.1500	42.8310
 1.1510	42.5710
 1.1520	42.3290
 1.1530	42.1040
 1.1540	41.8950
 1.1550	41.7040
 1.1560	41.5270
 1.1570	41.3630
 1.1580	41.2160
 1.1590	41.0830
 1.1600	40.9610
 1.1610	40.8520
 1.1620	40.7530
 1.1630	40.6620
 1.1640	40.5810
 1.1650	40.5040
 1.1660	40.4360
 1.1670	40.3700
 1.1680	40.3090
 1.1690	40.2510
 1.1700	40.1970
 1.1710	40.1470
 1.1720	40.1030
 1.1730	40.0550
 1.1740	40.0090
 1.1750	39.9600
 1.1760	39.9080
 1.1770	39.8570
 1.1780	39.8070
 1.1790	39.7540
 1.1800	39.7000
 1.1810	39.6450
 1.1820	39.5870
 1.1830	39.5320
 1.1840	39.4790
 1.1850	39.4280
 1.1860	39.3780
 1.1870	39.3300
 1.1880	39.2840
 1.1890	39.2380
 1.1900	39.1970
 1.1910	39.1600
 1.1920	39.1260
 1.1930	39.0950
 1.1940	39.0680
 1.1950	39.0440
 1.1960	39.0240
 1.1970	39.0080
 1.1980	38.9980
 1.1990	38.9930
 1.2000	38.9910
 1.2010	38.9920
 1.2020	38.9980
 1.2030	39.0070
 1.2040	39.0220
 1.2050	39.0420
 1.2060	39.0650
 1.2070	39.0910
 1.2080	39.1190
 1.2090	39.1510
 1.2100	39.1880
 1.2110	39.2300
 1.2120	39.2780
 1.2130	39.3270
 1.2140	39.3800
 1.2150	39.4370
 1.2160	39.4960
 1.2170	39.5590
 1.2180	39.6260
 1.2190	39.6940
 1.2200	39.7630
 1.2210	39.8340
 1.2220	39.9060
 1.2230	39.9790
 1.2240	40.0540
 1.2250	40.1270
 1.2260	40.1980
 1.2270	40.2700
 1.2280	40.3400
 1.2290	40.4090
 1.2300	40.4770
 1.2310	40.5400
 1.2320	40.6040
 1.2330	40.6650
 1.2340	40.7250
 1.2350	40.7820
 1.2360	40.8390
 1.2370	40.8950
 1.2380	40.9500
 1.2390	41.0010
 1.2400	41.0520
 1.2410	41.1020
 1.2420	41.1460
 1.2430	41.1920
 1.2440	41.2380
 1.2450	41.2790
 1.2460	41.3220
 1.2470	41.3660
 1.2480	41.4080
 1.2490	41.4490
 1.2500	41.4860
 1.2510	41.5200
 1.2520	41.5550
 1.2530	41.5870
 1.2540	41.6170
 1.2550	41.6470
 1.2560	41.6740
 1.2570	41.6990
 1.2580	41.7250
 1.2590	41.7470
 1.2600	41.7670
 1.2610	41.7860
 1.2620	41.8020
 1.2630	41.8150
 1.2640	41.8260
 1.2650	41.8380
 1.2660	41.8460
 1.2670	41.8510
 1.2680	41.8550
 1.2690	41.8550
 1.2700	41.8530
 1.2710	41.8490
 1.2720	41.8440
 1.2730	41.8380
 1.2740	41.8290
 1.2750	41.8180
 1.2760	41.8030
 1.2770	41.7850
 1.2780	41.7670
 1.2790	41.7450
 1.2800	41.7200
 1.2810	41.6930
 1.2820	41.6620
 1.2830	41.6270
 1.2840	41.5900
 1.2850	41.5520
 1.2860	41.5110
 1.2870	41.4650
 1.2880	41.4180
 1.2890	41.3650
 1.2900	41.3070
 1.2910	41.2480
 1.2920	41.1830
 1.2930	41.1150
 1.2940	41.0430
 1.2950	40.9630
 1.2960	40.8790
 1.2970	40.7930
 1.2980	40.7020
 1.2990	40.6080
 1.3000	40.5110
 1.3010	40.4090
 1.3020	40.2990
 1.3030	40.1860
 1.3040	40.0650
 1.3050	39.9420
 1.3060	39.8150
 1.3070	39.6790
 1.3080	39.5420
 1.3090	39.3980
 1.3100	39.2450
 1.3110	39.0920
 1.3120	38.9330
 1.3130	38.7680
 1.3140	38.6010
 1.3150	38.4300
 1.3160	38.2530
 1.3170	38.0730
 1.3180	37.8890
 1.3190	37.6980
 1.3200	37.5010
 1.3210	37.3000
 1.3220	37.0940
 1.3230	36.8850
 1.3240	36.6740
 1.3250	36.4630
 1.3260	36.2470
 1.3270	36.0280
 1.3280	35.8080
 1.3290	35.5840
 1.3300	35.3600
 1.3310	35.1380
 1.3320	34.9120
 1.3330	34.6900
 1.3340	34.4680
 1.3350	34.2460
 1.3360	34.0270
 1.3370	33.8070
 1.3380	33.5900
 1.3390	33.3760
 1.3400	33.1640
 1.3410	32.9570
 1.3420	32.7520
 1.3430	32.5520
 1.3440	32.3560
 1.3450	32.1610
 1.3460	31.9680
 1.3470	31.7820
 1.3480	31.5970
 1.3490	31.4180
 1.3500	31.2440
 1.3510	31.0720
 1.3520	30.9000
 1.3530	30.7310
 1.3540	30.5630
 1.3550	30.3940
 1.3560	30.2250
 1.3570	30.0550
 1.3580	29.8870
 1.3590	29.7160
 1.3600	29.5420
 1.3610	29.3660
 1.3620	29.1830
 1.3630	28.9960
 1.3640	28.8020
 1.3650	28.5980
 1.3660	28.3890
 1.3670	28.1710
 1.3680	27.9450
 1.3690	27.7100
 1.3700	27.4590
 1.3710	27.1960
 1.3720	26.9190
 1.3730	26.6250
 1.3740	26.3180
 1.3750	25.9940
 1.3760	25.6500
 1.3770	25.2880
 1.3780	24.9040
 1.3790	24.5040
 1.3800	24.0840
 1.3810	23.6430
 1.3820	23.1910
 1.3830	22.7220
 1.3840	22.2430
 1.3850	21.7500
 1.3860	21.2530
 1.3870	20.7420
 1.3880	20.2350
 1.3890	19.7250
 1.3900	19.2140
 1.3910	18.7110
 1.3920	18.2120
 1.3930	17.7160
 1.3940	17.2320
 1.3950	16.7540
 1.3960	16.2890
 1.3970	15.8400
 1.3980	15.4040
 1.3990	14.9900
 1.4000	14.5900
 1.4010	14.2060
 1.4020	13.8440
 1.4030	13.4960
 1.4040	13.1650
 1.4050	12.8550
 1.4060	12.5600
 1.4070	12.2850
 1.4080	12.0270
 1.4090	11.7830
 1.4100	11.5560
 1.4110	11.3430
 1.4120	11.1440
 1.4130	10.9580
 1.4140	10.7840
 1.4150	10.6240
 1.4160	10.4750
 1.4170	10.3370
 1.4180	10.2090
 1.4190	10.0880
 1.4200	 9.9760
 1.4210	 9.8720
 1.4220	 9.7760
 1.4230	 9.6880
 1.4240	 9.6060
 1.4250	 9.5290
 1.4260	 9.4590
 1.4270	 9.3930
 1.4280	 9.3330
 1.4290	 9.2780
 1.4300	 9.2290
 1.4310	 9.1830
 1.4320	 9.1410
 1.4330	 9.1030
 1.4340	 9.0680
 1.4350	 9.0370
 1.4360	 9.0090
 1.4370	 8.9860
 1.4380	 8.9650
 1.4390	 8.9470
 1.4400	 8.9320
 1.4410	 8.9200
 1.4420	 8.9100
 1.4430	 8.9010
 1.4440	 8.8940
 1.4450	 8.8880
 1.4460	 8.8840
 1.4470	 8.8830
 1.4480	 8.8830
 1.4490	 8.8840
 1.4500	 8.8880
 1.4510	 8.8920
 1.4520	 8.8970
 1.4530	 8.9030
 1.4540	 8.9100
 1.4550	 8.9200
 1.4560	 8.9300
 1.4570	 8.9420
 1.4580	 8.9560
 1.4590	 8.9710
 1.4600	 8.9890
 1.4610	 9.0090
 1.4620	 9.0320
 1.4630	 9.0590
 1.4640	 9.0870
 1.4650	 9.1180
 1.4660	 9.1510
 1.4670	 9.1870
 1.4680	 9.2280
 1.4690	 9.2710
 1.4700	 9.3160
 1.4710	 9.3650
 1.4720	 9.4150
 1.4730	 9.4670
 1.4740	 9.5220
 1.4750	 9.5790
 1.4760	 9.6380
 1.4770	 9.7000
 1.4780	 9.7620
 1.4790	 9.8260
 1.4800	 9.8920
 1.4810	 9.9600
 1.4820	10.0300
 1.4830	10.1000
 1.4840	10.1720
 1.4850	10.2450
 1.4860	10.3190
 1.4870	10.3940
 1.4880	10.4700
 1.4890	10.5460
 1.4900	10.6240
 1.4910	10.7020
 1.4920	10.7820
 1.4930	10.8630
 1.4940	10.9440
 1.4950	11.0250
 1.4960	11.1070
 1.4970	11.1870
 1.4980	11.2700
 1.4990	11.3520
 1.5000	11.4360
 1.5010	11.5200
 1.5020	11.6040
 1.5030	11.6890
 1.5040	11.7740
 1.5050	11.8580
 1.5060	11.9430
 1.5070	12.0290
 1.5080	12.1150
 1.5090	12.2010
 1.5100	12.2870
 1.5110	12.3720
 1.5120	12.4570
 1.5130	12.5410
 1.5140	12.6270
 1.5150	12.7120
 1.5160	12.7960
 1.5170	12.8810
 1.5180	12.9650
 1.5190	13.0490
 1.5200	13.1340
 1.5210	13.2160
 1.5220	13.2980
 1.5230	13.3800
 1.5240	13.4620
 1.5250	13.5460
 1.5260	13.6280
 1.5270	13.7100
 1.5280	13.7900
 1.5290	13.8690
 1.5300	13.9480
 1.5310	14.0270
 1.5320	14.1050
 1.5330	14.1830
 1.5340	14.2610
 1.5350	14.3380
 1.5360	14.4150
 1.5370	14.4900
 1.5380	14.5660
 1.5390	14.6420
 1.5400	14.7180
 1.5410	14.7950
 1.5420	14.8710
 1.5430	14.9450
 1.5440	15.0190
 1.5450	15.0900
 1.5460	15.1620
 1.5470	15.2340
 1.5480	15.3060
 1.5490	15.3790
 1.5500	15.4500
 1.5510	15.5210
 1.5520	15.5940
 1.5530	15.6640
 1.5540	15.7350
 1.5550	15.8060
 1.5560	15.8740
 1.5570	15.9430
 1.5580	16.0110
 1.5590	16.0780
 1.5600	16.1470
 1.5610	16.2150
 1.5620	16.2830
 1.5630	16.3500
 1.5640	16.4170
 1.5650	16.4830
 1.5660	16.5480
 1.5670	16.6140
 1.5680	16.6790
 1.5690	16.7420
 1.5700	16.8070
 1.5710	16.8710
 1.5720	16.9350
 1.5730	17.0000
 1.5740	17.0630
 1.5750	17.1240
 1.5760	17.1870
 1.5770	17.2490
 1.5780	17.3100
 1.5790	17.3730
 1.5800	17.4350
 1.5810	17.4950
 1.5820	17.5560
 1.5830	17.6160
 1.5840	17.6760
 1.5850	17.7360
 1.5860	17.7950
 1.5870	17.8550
 1.5880	17.9140
 1.5890	17.9750
 1.5900	18.0370
 1.5910	18.0990
 1.5920	18.1620
 1.5930	18.2230
 1.5940	18.2840
 1.5950	18.3460
 1.5960	18.4060
 1.5970	18.4680
 1.5980	18.5290
 1.5990	18.5890
 1.6000	18.6500
 1.6010	18.7090
 1.6020	18.7690
 1.6030	18.8290
 1.6040	18.8880
 1.6050	18.9480
 1.6060	19.0070
 1.6070	19.0650
 1.6080	19.1210
 1.6090	19.1760
 1.6100	19.2320
 1.6110	19.2880
 1.6120	19.3430
 1.6130	19.3980
 1.6140	19.4520
 1.6150	19.5050
 1.6160	19.5560
 1.6170	19.6060
 1.6180	19.6560
 1.6190	19.7040
 1.6200	19.7530
 1.6210	19.8010
 1.6220	19.8470
 1.6230	19.8930
 1.6240	19.9400
 1.6250	19.9840
 1.6260	20.0250
 1.6270	20.0660
 1.6280	20.1050
 1.6290	20.1430
 1.6300	20.1810
 1.6310	20.2170
 1.6320	20.2510
 1.6330	20.2850
 1.6340	20.3170
 1.6350	20.3510
 1.6360	20.3870
 1.6370	20.4210
 1.6380	20.4560
 1.6390	20.4880
 1.6400	20.5190
 1.6410	20.5490
 1.6420	20.5790
 1.6430	20.6060
 1.6440	20.6330
 1.6450	20.6560
 1.6460	20.6780
 1.6470	20.6980
 1.6480	20.7140
 1.6490	20.7270
 1.6500	20.7390
 1.6510	20.7470
 1.6520	20.7540
 1.6530	20.7590
 1.6540	20.7640
 1.6550	20.7670
 1.6560	20.7700
 1.6570	20.7700
 1.6580	20.7660
 1.6590	20.7620
 1.6600	20.7590
 1.6610	20.7550
 1.6620	20.7520
 1.6630	20.7500
 1.6640	20.7450
 1.6650	20.7400
 1.6660	20.7350
 1.6670	20.7280
 1.6680	20.7210
 1.6690	20.7150
 1.6700	20.7070
 1.6710	20.6990
 1.6720	20.6910
 1.6730	20.6800
 1.6740	20.6690
 1.6750	20.6570
 1.6760	20.6450
 1.6770	20.6310
 1.6780	20.6150
 1.6790	20.5970
 1.6800	20.5780
 1.6810	20.5570
 1.6820	20.5350
 1.6830	20.5110
 1.6840	20.4840
 1.6850	20.4540
 1.6860	20.4200
 1.6870	20.3850
 1.6880	20.3490
 1.6890	20.3110
 1.6900	20.2710
 1.6910	20.2290
 1.6920	20.1850
 1.6930	20.1380
 1.6940	20.0910
 1.6950	20.0420
 1.6960	19.9930
 1.6970	19.9460
 1.6980	19.8960
 1.6990	19.8450
 1.7000	19.7940
 1.7010	19.7410
 1.7020	19.6880
 1.7030	19.6350
 1.7040	19.5840
 1.7050	19.5320
 1.7060	19.4810
 1.7070	19.4330
 1.7080	19.3820
 1.7090	19.3300
 1.7100	19.2800
 1.7110	19.2320
 1.7120	19.1840
 1.7130	19.1370
 1.7140	19.0890
 1.7150	19.0380
 1.7160	18.9890
 1.7170	18.9400
 1.7180	18.8900
 1.7190	18.8420
 1.7200	18.7930
 1.7210	18.7450
 1.7220	18.6970
 1.7230	18.6510
 1.7240	18.6050
 1.7250	18.5610
 1.7260	18.5200
 1.7270	18.4790
 1.7280	18.4410
 1.7290	18.4050
 1.7300	18.3720
 1.7310	18.3410
 1.7320	18.3130
 1.7330	18.2850
 1.7340	18.2580
 1.7350	18.2300
 1.7360	18.2020
 1.7370	18.1720
 1.7380	18.1430
 1.7390	18.1080
 1.7400	18.0690
 1.7410	18.0270
 1.7420	17.9790
 1.7430	17.9320
 1.7440	17.8850
 1.7450	17.8350
 1.7460	17.7830
 1.7470	17.7300
 1.7480	17.6750
 1.7490	17.6210
 1.7500	17.5660
 1.7510	17.5130
 1.7520	17.4610
 1.7530	17.4090
 1.7540	17.3580
 1.7550	17.3090
 1.7560	17.2600
 1.7570	17.2120
 1.7580	17.1680
 1.7590	17.1250
 1.7600	17.0820
 1.7610	17.0440
 1.7620	17.0060
 1.7630	16.9700
 1.7640	16.9340
 1.7650	16.9000
 1.7660	16.8680
 1.7670	16.8380
 1.7680	16.8090
 1.7690	16.7830
 1.7700	16.7570
 1.7710	16.7320
 1.7720	16.7090
 1.7730	16.6860
 1.7740	16.6650
 1.7750	16.6450
 1.7760	16.6250
 1.7770	16.6060
 1.7780	16.5890
 1.7790	16.5730
 1.7800	16.5580
 1.7810	16.5440
 1.7820	16.5330
 1.7830	16.5230
 1.7840	16.5150
 1.7850	16.5120
 1.7860	16.5070
 1.7870	16.5020
 1.7880	16.4970
 1.7890	16.4940
 1.7900	16.4920
 1.7910	16.4920
 1.7920	16.4920
 1.7930	16.4930
 1.7940	16.4960
 1.7950	16.5000
 1.7960	16.5060
 1.7970	16.5120
 1.7980	16.5200
 1.7990	16.5260
 1.8000	16.5310
 1.8010	16.5380
 1.8020	16.5440
 1.8030	16.5530
 1.8040	16.5670
 1.8050	16.5760
 1.8060	16.5840
 1.8070	16.5920
 1.8080	16.5990
 1.8090	16.6070
 1.8100	16.6180
 1.8110	16.6250
 1.8120	16.6320
 1.8130	16.6400
 1.8140	16.6490
 1.8150	16.6560
 1.8160	16.6600
 1.8170	16.6620
 1.8180	16.6640
 1.8190	16.6690
 1.8200	16.6740
 1.8210	16.6840
 1.8220	16.6880
 1.8230	16.6900
 1.8240	16.6900
 1.8250	16.6840
 1.8260	16.6800
 1.8270	16.6640
 1.8280	16.6470
 1.8290	16.6300
 1.8300	16.6130
 1.8310	16.5960
 1.8320	16.5800
 1.8330	16.5630
 1.8340	16.5460
 1.8350	16.5460
 1.8360	16.5210
 1.8370	16.4900
 1.8380	16.4540
 1.8390	16.4170
 1.8400	16.3810
 1.8410	16.3340
 1.8420	16.2850
 1.8430	16.2300
 1.8440	16.1650
 1.8450	16.0930
 1.8460	16.0160
 1.8470	15.9350
 1.8480	15.8480
 1.8490	15.7560
 1.8500	15.6530
 1.8510	15.5440
 1.8520	15.4250
 1.8530	15.2970
 1.8540	15.1590
 1.8550	15.0140
 1.8560	14.8600
 1.8570	14.6980
 1.8580	14.5260
 1.8590	14.3440
 1.8600	14.1520
 1.8610	13.9520
 1.8620	13.7390
 1.8630	13.5220
 1.8640	13.2950
 1.8650	13.0530
 1.8660	12.8030
 1.8670	12.5360
 1.8680	12.2590
 1.8690	11.9760
 1.8700	11.6830
 1.8710	11.3810
 1.8720	11.0730
 1.8730	10.7590
 1.8740	10.4420
 1.8750	10.1230
 1.8760	 9.8010
 1.8770	 9.4810
 1.8780	 9.1600
 1.8790	 8.8390
 1.8800	 8.5260
 1.8810	 8.2170
 1.8820	 7.9150
 1.8830	 7.6160
 1.8840	 7.3250
 1.8850	 7.0390
 1.8860	 6.7580
 1.8870	 6.4860
 1.8880	 6.2250
 1.8890	 5.9770
 1.8900	 5.7410
 1.8910	 5.5190
 1.8920	 5.3100
 1.8930	 5.1160
 1.8940	 4.9320
 1.8950	 4.7590
 1.8960	 4.5970
 1.8970	 4.4460
 1.8980	 4.3060
 1.8990	 4.1780
 1.9000	 4.0600
 1.9010	 3.9540
 1.9020	 3.8550
 1.9030	 3.7660
 1.9040	 3.6870
 1.9050	 3.6140
 1.9060	 3.5460
 1.9070	 3.4850
 1.9080	 3.4310
 1.9090	 3.3810
 1.9100	 3.3340
 1.9110	 3.2940
 1.9120	 3.2620
 1.9130	 3.2280
 1.9140	 3.1970
 1.9150	 3.1730
 1.9160	 3.1510
 1.9170	 3.1270
 1.9180	 3.1080
 1.9190	 3.0910
 1.9200	 3.0740
 1.9210	 3.0590
 1.9220	 3.0470
 1.9230	 3.0420
 1.9240	 3.0350
 1.9250	 3.0290
 1.9260	 3.0240
 1.9270	 3.0210
 1.9280	 3.0170
 1.9290	 3.0170
 1.9300	 3.0180
 1.9310	 3.0210
 1.9320	 3.0250
 1.9330	 3.0300
 1.9340	 3.0360
 1.9350	 3.0430
 1.9360	 3.0490
 1.9370	 3.0570
 1.9380	 3.0650
 1.9390	 3.0730
 1.9400	 3.0830
 1.9410	 3.0960
 1.9420	 3.1080
 1.9430	 3.1230
 1.9440	 3.1380
 1.9450	 3.1540
 1.9460	 3.1690
 1.9470	 3.1840
 1.9480	 3.2000
 1.9490	 3.2140
 1.9500	 3.2330
 1.9510	 3.2530
 1.9520	 3.2720
 1.9530	 3.2920
 1.9540	 3.3110
 1.9550	 3.3310
 1.9560	 3.3520
 1.9570	 3.3730
 1.9580	 3.3950
 1.9590	 3.4170
 1.9600	 3.4380
 1.9610	 3.4600
 1.9620	 3.4850
 1.9630	 3.5070
 1.9640	 3.5340
 1.9650	 3.5630
 1.9660	 3.5880
 1.9670	 3.6170
 1.9680	 3.6430
 1.9690	 3.6650
 1.9700	 3.6900
 1.9710	 3.7160
 1.9720	 3.7440
 1.9730	 3.7720
 1.9740	 3.8010
 1.9750	 3.8310
 1.9760	 3.8620
 1.9770	 3.8950
 1.9780	 3.9280
 1.9790	 3.9580
 1.9800	 3.9870
 1.9810	 4.0180
 1.9820	 4.0490
 1.9830	 4.0800
 1.9840	 4.1160
 1.9850	 4.1480
 1.9860	 4.1770
 1.9870	 4.2080
 1.9880	 4.2410
 1.9890	 4.2700
 1.9900	 4.3040
 1.9910	 4.3410
 1.9920	 4.3760
 1.9930	 4.4120
 1.9940	 4.4470
 1.9950	 4.4810
 1.9960	 4.5160
 1.9970	 4.5500
 1.9980	 4.5840
 1.9990	 4.6170
 2.0000	 4.6500
 2.0010	 4.6850
 2.0020	 4.7200
 2.0030	 4.7540
 2.0040	 4.7900
 2.0050	 4.8240
 2.0060	 4.8540
 2.0070	 4.8880
 2.0080	 4.9240
 2.0090	 4.9590
 2.0100	 4.9950
 2.0110	 5.0300
 2.0120	 5.0620
 2.0130	 5.0940
 2.0140	 5.1250
 2.0150	 5.1590
 2.0160	 5.1920
 2.0170	 5.2240
 2.0180	 5.2560
 2.0190	 5.2870
 2.0200	 5.3190
 2.0210	 5.3500
 2.0220	 5.3810
 2.0230	 5.4090
 2.0240	 5.4390
 2.0250	 5.4700
 2.0260	 5.4980
 2.0270	 5.5270
 2.0280	 5.5560
 2.0290	 5.5810
 2.0300	 5.6060
 2.0310	 5.6320
 2.0320	 5.6590
 2.0330	 5.6850
 2.0340	 5.7130
 2.0350	 5.7380
 2.0360	 5.7620
 2.0370	 5.7870
 2.0380	 5.8120
 2.0390	 5.8360
 2.0400	 5.8600
 2.0410	 5.8820
 2.0420	 5.9030
 2.0430	 5.9220
 2.0440	 5.9420
 2.0450	 5.9620
 2.0460	 5.9820
 2.0470	 6.0030
 2.0480	 6.0220
 2.0490	 6.0410
 2.0500	 6.0600
 2.0510	 6.0760
 2.0520	 6.0940
 2.0530	 6.1140
 2.0540	 6.1330
 2.0550	 6.1530
 2.0560	 6.1710
 2.0570	 6.1910
 2.0580	 6.2090
 2.0590	 6.2280
 2.0600	 6.2480
 2.0610	 6.2680
 2.0620	 6.2880
 2.0630	 6.3070
 2.0640	 6.3250
 2.0650	 6.3430
 2.0660	 6.3600
 2.0670	 6.3780
 2.0680	 6.3980
 2.0690	 6.4170
 2.0700	 6.4370
 2.0710	 6.4550
 2.0720	 6.4710
 2.0730	 6.4890
 2.0740	 6.5080
 2.0750	 6.5260
 2.0760	 6.5450
 2.0770	 6.5670
 2.0780	 6.5860
 2.0790	 6.6030
 2.0800	 6.6230
 2.0810	 6.6430
 2.0820	 6.6630
 2.0830	 6.6840
 2.0840	 6.7040
 2.0850	 6.7230
 2.0860	 6.7430
 2.0870	 6.7640
 2.0880	 6.7850
 2.0890	 6.8050
 2.0900	 6.8230
 2.0910	 6.8430
 2.0920	 6.8620
 2.0930	 6.8830
 2.0940	 6.9060
 2.0950	 6.9270
 2.0960	 6.9460
 2.0970	 6.9660
 2.0980	 6.9860
 2.0990	 7.0070
 2.1000	 7.0290
 2.1010	 7.0500
 2.1020	 7.0710
 2.1030	 7.0920
 2.1040	 7.1140
 2.1050	 7.1350
 2.1060	 7.1560
 2.1070	 7.1770
 2.1080	 7.1980
 2.1090	 7.2180
 2.1100	 7.2400
 2.1110	 7.2640
 2.1120	 7.2870
 2.1130	 7.3100
 2.1140	 7.3330
 2.1150	 7.3540
 2.1160	 7.3760
 2.1170	 7.3960
 2.1180	 7.4190
 2.1190	 7.4430
 2.1200	 7.4660
 2.1210	 7.4890
 2.1220	 7.5140
 2.1230	 7.5360
 2.1240	 7.5560
 2.1250	 7.5770
 2.1260	 7.5950
 2.1270	 7.6170
 2.1280	 7.6380
 2.1290	 7.6600
 2.1300	 7.6860
 2.1310	 7.7090
 2.1320	 7.7300
 2.1330	 7.7520
 2.1340	 7.7740
 2.1350	 7.7960
 2.1360	 7.8180
 2.1370	 7.8400
 2.1380	 7.8610
 2.1390	 7.8820
 2.1400	 7.9010
 2.1410	 7.9230
 2.1420	 7.9460
 2.1430	 7.9700
 2.1440	 7.9930
 2.1450	 8.0180
 2.1460	 8.0410
 2.1470	 8.0640
 2.1480	 8.0870
 2.1490	 8.1100
 2.1500	 8.1320
 2.1510	 8.1520
 2.1520	 8.1740
 2.1530	 8.1950
 2.1540	 8.2170
 2.1550	 8.2420
 2.1560	 8.2640
 2.1570	 8.2820
 2.1580	 8.3030
 2.1590	 8.3230
 2.1600	 8.3450
 2.1610	 8.3690
 2.1620	 8.3930
 2.1630	 8.4160
 2.1640	 8.4410
 2.1650	 8.4620
 2.1660	 8.4820
 2.1670	 8.5010
 2.1680	 8.5160
 2.1690	 8.5350
 2.1700	 8.5580
 2.1710	 8.5780
 2.1720	 8.5970
 2.1730	 8.6180
 2.1740	 8.6380
 2.1750	 8.6590
 2.1760	 8.6830
 2.1770	 8.7030
 2.1780	 8.7210
 2.1790	 8.7400
 2.1800	 8.7540
 2.1810	 8.7720
 2.1820	 8.7930
 2.1830	 8.8130
 2.1840	 8.8300
 2.1850	 8.8480
 2.1860	 8.8650
 2.1870	 8.8780
 2.1880	 8.8970
 2.1890	 8.9230
 2.1900	 8.9410
 2.1910	 8.9580
 2.1920	 8.9730
 2.1930	 8.9820
 2.1940	 8.9960
 2.1950	 9.0140
 2.1960	 9.0290
 2.1970	 9.0430
 2.1980	 9.0570
 2.1990	 9.0710
 2.2000	 9.0860
 2.2010	 9.1060
 2.2020	 9.1220
 2.2030	 9.1370
 2.2040	 9.1510
 2.2050	 9.1610
 2.2060	 9.1730
 2.2070	 9.1830
 2.2080	 9.1920
 2.2090	 9.2010
 2.2100	 9.2080
 2.2110	 9.2140
 2.2120	 9.2200
 2.2130	 9.2240
 2.2140	 9.2260
 2.2150	 9.2290
 2.2160	 9.2340
 2.2170	 9.2340
 2.2180	 9.2310
 2.2190	 9.2290
 2.2200	 9.2240
 2.2210	 9.2190
 2.2220	 9.2180
 2.2230	 9.2100
 2.2240	 9.1920
 2.2250	 9.1790
 2.2260	 9.1610
 2.2270	 9.1440
 2.2280	 9.1320
 2.2290	 9.1150
 2.2300	 9.0930
 2.2310	 9.0740
 2.2320	 9.0480
 2.2330	 9.0190
 2.2340	 8.9920
 2.2350	 8.9650
 2.2360	 8.9340
 2.2370	 8.9030
 2.2380	 8.8700
 2.2390	 8.8300
 2.2400	 8.7950
 2.2410	 8.7620
 2.2420	 8.7260
 2.2430	 8.6910
 2.2440	 8.6520
 2.2450	 8.6110
 2.2460	 8.5680
 2.2470	 8.5220
 2.2480	 8.4790
 2.2490	 8.4350
 2.2500	 8.3910
 2.2510	 8.3500
 2.2520	 8.3050
 2.2530	 8.2550
 2.2540	 8.2060
 2.2550	 8.1550
 2.2560	 8.1040
 2.2570	 8.0500
 2.2580	 7.9980
 2.2590	 7.9450
 2.2600	 7.8940
 2.2610	 7.8470
 2.2620	 7.7990
 2.2630	 7.7500
 2.2640	 7.7020
 2.2650	 7.6450
 2.2660	 7.5910
 2.2670	 7.5420
 2.2680	 7.4900
 2.2690	 7.4480
 2.2700	 7.4140
 2.2710	 7.3820
 2.2720	 7.3570
 2.2730	 7.3260
 2.2740	 7.2970
 2.2750	 7.2700
 2.2760	 7.2400
 2.2770	 7.2130
 2.2780	 7.1880
 2.2790	 7.1630
 2.2800	 7.1360
 2.2810	 7.1120
 2.2820	 7.0930
 2.2830	 7.0700
 2.2840	 7.0480
 2.2850	 7.0210
 2.2860	 6.9900
 2.2870	 6.9610
 2.2880	 6.9300
 2.2890	 6.9010
 2.2900	 6.8730
 2.2910	 6.8420
 2.2920	 6.8070
 2.2930	 6.7740
 2.2940	 6.7410
 2.2950	 6.7070
 2.2960	 6.6740
 2.2970	 6.6390
 2.2980	 6.6030
 2.2990	 6.5650
 2.3000	 6.5310
 2.3010	 6.4940
 2.3020	 6.4520
 2.3030	 6.4190
 2.3040	 6.3890
 2.3050	 6.3620
 2.3060	 6.3430
 2.3070	 6.3190
 2.3080	 6.2960
 2.3090	 6.2780
 2.3100	 6.2610
 2.3110	 6.2490
 2.3120	 6.2370
 2.3130	 6.2280
 2.3140	 6.2190
 2.3150	 6.2140
 2.3160	 6.2070
 2.3170	 6.2010
 2.3180	 6.1960
 2.3190	 6.1910
 2.3200	 6.1850
 2.3210	 6.1830
 2.3220	 6.1750
 2.3230	 6.1640
 2.3240	 6.1520
 2.3250	 6.1360
 2.3260	 6.1200
 2.3270	 6.1030
 2.3280	 6.0830
 2.3290	 6.0600
 2.3300	 6.0360
 2.3310	 6.0060
 2.3320	 5.9810
 2.3330	 5.9540
 2.3340	 5.9290
 2.3350	 5.9100
 2.3360	 5.8870
 2.3370	 5.8640
 2.3380	 5.8380
 2.3390	 5.8070
 2.3400	 5.7800
 2.3410	 5.7530
 2.3420	 5.7270
 2.3430	 5.7050
 2.3440	 5.6820
 2.3450	 5.6540
 2.3460	 5.6310
 2.3470	 5.6140
 2.3480	 5.5920
 2.3490	 5.5700
 2.3500	 5.5490
 2.3510	 5.5220
 2.3520	 5.5030
 2.3530	 5.4910
 2.3540	 5.4800
 2.3550	 5.4670
 2.3560	 5.4550
 2.3570	 5.4440
 2.3580	 5.4330
 2.3590	 5.4160
 2.3600	 5.4050
 2.3610	 5.3890
 2.3620	 5.3670
 2.3630	 5.3520
 2.3640	 5.3310
 2.3650	 5.3070
 2.3660	 5.2920
 2.3670	 5.2750
 2.3680	 5.2630
 2.3690	 5.2500
 2.3700	 5.2280
 2.3710	 5.2100
 2.3720	 5.1930
 2.3730	 5.1720
 2.3740	 5.1530
 2.3750	 5.1330
 2.3760	 5.1140
 2.3770	 5.0990
 2.3780	 5.0850
 2.3790	 5.0640
 2.3800	 5.0420
 2.3810	 5.0180
 2.3820	 4.9880
 2.3830	 4.9730
 2.3840	 4.9670
 2.3850	 4.9560
 2.3860	 4.9480
 2.3870	 4.9320
 2.3880	 4.9050
 2.3890	 4.8810
 2.3900	 4.8560
 2.3910	 4.8290
 2.3920	 4.8050
 2.3930	 4.7870
 2.3940	 4.7760
 2.3950	 4.7620
 2.3960	 4.7510
 2.3970	 4.7350
 2.3980	 4.7040
 2.3990	 4.6840
 2.4000	 4.6560
 2.4010	 4.6320
 2.4020	 4.6290
 2.4030	 4.6130
 2.4040	 4.5940
 2.4050	 4.5720
 2.4060	 4.5430
 2.4070	 4.5160
 2.4080	 4.5010
 2.4090	 4.4930
 2.4100	 4.4760
 2.4110	 4.4550
 2.4120	 4.4340
 2.4130	 4.4160
 2.4140	 4.3930
 2.4150	 4.3700
 2.4160	 4.3540
 2.4170	 4.3400
 2.4180	 4.3240
 2.4190	 4.3080
 2.4200	 4.2940
 2.4210	 4.2570
 2.4220	 4.2120
 2.4230	 4.1840
 2.4240	 4.1500
 2.4250	 4.1330
 2.4260	 4.1280
 2.4270	 4.0990
 2.4280	 4.0660
 2.4290	 4.0360
 2.4300	 4.0090
 2.4310	 3.9950
 2.4320	 3.9870
 2.4330	 3.9650
 2.4340	 3.9330
 2.4350	 3.9010
 2.4360	 3.8690
 2.4370	 3.8560
 2.4380	 3.8380
 2.4390	 3.8230
 2.4400	 3.8100
 2.4410	 3.7740
 2.4420	 3.7570
 2.4430	 3.7500
 2.4440	 3.7450
 2.4450	 3.7440
 2.4460	 3.7220
 2.4470	 3.6910
 2.4480	 3.6520
 2.4490	 3.6030
 2.4500	 3.5630
 2.4510	 3.5130
 2.4520	 3.4750
 2.4530	 3.4690
 2.4540	 3.4620
 2.4550	 3.4740
 2.4560	 3.4790
 2.4570	 3.4650
 2.4580	 3.4500
 2.4590	 3.4060
 2.4600	 3.3640
 2.4610	 3.3440
 2.4620	 3.3230
 2.4630	 3.3120
 2.4640	 3.3090
 2.4650	 3.3000
 2.4660	 3.2910
 2.4670	 3.2930
 2.4680	 3.3000
 2.4690	 3.2950
 2.4700	 3.2710
 2.4710	 3.2090
 2.4720	 3.1790
 2.4730	 3.1600
 2.4740	 3.1340
 2.4750	 3.1250
 2.4760	 3.1280
 2.4770	 3.1180
 2.4780	 3.1070
 2.4790	 3.1210
 2.4800	 3.1100
 2.4810	 3.0670
 2.4820	 3.0870
 2.4830	 3.0960
 2.4840	 3.1060
 2.4850	 3.1130
 2.4860	 3.1010
 2.4870	 3.0540
 2.4880	 3.0010
 2.4890	 2.9830
 2.4900	 2.9730
 2.4910	 2.9750
 2.4920	 3.0170
 2.4930	 3.0240
 2.4940	 2.9960
 2.4950	 3.0280
 2.4960	 3.0620
 2.4970	 3.0600
 2.4980	 3.0670
 2.4990	 3.0100
 2.5000	 2.9150
