Name: Quercus virginana
Type: vegetation
Class: Tree
Genus: Quercus
Species: virginana
Sample No.: JPL234
Owner: JPL
Wavelength Range: VSWIR
Origin: 34.13189; -118.11205; WGS84
Collection Date: 10/6/2016
Description: Samples were collected at the Huntington Garden in San Marino California as part of a JPL Subcontract studying HyTES imagery. Samples were taken to JPL and processed within 48 hours of collection. The same leaves were processed in the Nicolet and then measured using the ASD.
Measurement: Bidirectional reflectance
First Column: X
Second Column: Y
X Units: Wavelength (micrometer)
Y Units: Reflectance (percentage)
First X Value: 0.35
Last X Value: 2.5
Number of X Values: 2151
Additional Information: vegetation.tree.quercus.virginana.vswir.jpl234.jpl.asd.ancillary.txt

 0.3500	 9.3250
 0.3510	 9.2260
 0.3520	 9.2670
 0.3530	 9.2590
 0.3540	 9.0970
 0.3550	 9.1050
 0.3560	 9.1590
 0.3570	 9.1680
 0.3580	 9.0850
 0.3590	 9.0080
 0.3600	 9.0070
 0.3610	 9.0700
 0.3620	 9.0770
 0.3630	 9.0440
 0.3640	 8.9950
 0.3650	 8.9480
 0.3660	 8.8960
 0.3670	 8.9000
 0.3680	 8.9410
 0.3690	 8.9500
 0.3700	 8.9470
 0.3710	 8.9280
 0.3720	 8.8970
 0.3730	 8.8750
 0.3740	 8.8900
 0.3750	 8.9090
 0.3760	 8.8940
 0.3770	 8.8760
 0.3780	 8.8730
 0.3790	 8.8790
 0.3800	 8.8690
 0.3810	 8.8450
 0.3820	 8.8160
 0.3830	 8.7950
 0.3840	 8.7990
 0.3850	 8.8390
 0.3860	 8.8670
 0.3870	 8.8310
 0.3880	 8.7960
 0.3890	 8.7840
 0.3900	 8.8050
 0.3910	 8.8540
 0.3920	 8.8430
 0.3930	 8.8000
 0.3940	 8.7730
 0.3950	 8.8040
 0.3960	 8.8090
 0.3970	 8.8050
 0.3980	 8.8410
 0.3990	 8.8340
 0.4000	 8.8220
 0.4010	 8.8210
 0.4020	 8.8140
 0.4030	 8.8020
 0.4040	 8.7960
 0.4050	 8.8050
 0.4060	 8.8230
 0.4070	 8.8410
 0.4080	 8.8540
 0.4090	 8.8650
 0.4100	 8.8720
 0.4110	 8.8890
 0.4120	 8.9130
 0.4130	 8.9120
 0.4140	 8.9050
 0.4150	 8.9040
 0.4160	 8.9130
 0.4170	 8.9140
 0.4180	 8.9190
 0.4190	 8.9290
 0.4200	 8.9340
 0.4210	 8.9290
 0.4220	 8.9290
 0.4230	 8.9420
 0.4240	 8.9560
 0.4250	 8.9510
 0.4260	 8.9370
 0.4270	 8.9350
 0.4280	 8.9380
 0.4290	 8.9330
 0.4300	 8.9120
 0.4310	 8.8810
 0.4320	 8.8650
 0.4330	 8.8500
 0.4340	 8.8220
 0.4350	 8.7990
 0.4360	 8.7910
 0.4370	 8.8020
 0.4380	 8.8260
 0.4390	 8.8510
 0.4400	 8.8710
 0.4410	 8.8880
 0.4420	 8.9110
 0.4430	 8.9210
 0.4440	 8.9220
 0.4450	 8.9250
 0.4460	 8.9300
 0.4470	 8.9310
 0.4480	 8.9300
 0.4490	 8.9440
 0.4500	 8.9510
 0.4510	 8.9570
 0.4520	 8.9660
 0.4530	 8.9590
 0.4540	 8.9620
 0.4550	 8.9720
 0.4560	 8.9670
 0.4570	 8.9820
 0.4580	 8.9890
 0.4590	 8.9780
 0.4600	 8.9750
 0.4610	 8.9790
 0.4620	 8.9850
 0.4630	 8.9870
 0.4640	 8.9880
 0.4650	 8.9870
 0.4660	 8.9850
 0.4670	 8.9890
 0.4680	 8.9870
 0.4690	 8.9840
 0.4700	 8.9880
 0.4710	 8.9890
 0.4720	 8.9900
 0.4730	 8.9900
 0.4740	 8.9910
 0.4750	 8.9970
 0.4760	 8.9960
 0.4770	 8.9870
 0.4780	 8.9900
 0.4790	 8.9950
 0.4800	 8.9940
 0.4810	 8.9850
 0.4820	 8.9780
 0.4830	 8.9730
 0.4840	 8.9670
 0.4850	 8.9550
 0.4860	 8.9440
 0.4870	 8.9390
 0.4880	 8.9430
 0.4890	 8.9480
 0.4900	 8.9550
 0.4910	 8.9660
 0.4920	 8.9840
 0.4930	 9.0030
 0.4940	 9.0200
 0.4950	 9.0360
 0.4960	 9.0520
 0.4970	 9.0730
 0.4980	 9.0940
 0.4990	 9.1120
 0.5000	 9.1390
 0.5010	 9.1670
 0.5020	 9.1950
 0.5030	 9.2260
 0.5040	 9.2580
 0.5050	 9.2890
 0.5060	 9.3250
 0.5070	 9.3720
 0.5080	 9.4200
 0.5090	 9.4710
 0.5100	 9.5320
 0.5110	 9.5950
 0.5120	 9.6660
 0.5130	 9.7470
 0.5140	 9.8320
 0.5150	 9.9220
 0.5160	10.0230
 0.5170	10.1360
 0.5180	10.2470
 0.5190	10.3670
 0.5200	10.4960
 0.5210	10.6290
 0.5220	10.7650
 0.5230	10.9020
 0.5240	11.0390
 0.5250	11.1790
 0.5260	11.3110
 0.5270	11.4330
 0.5280	11.5510
 0.5290	11.6650
 0.5300	11.7710
 0.5310	11.8660
 0.5320	11.9500
 0.5330	12.0290
 0.5340	12.1020
 0.5350	12.1680
 0.5360	12.2160
 0.5370	12.2540
 0.5380	12.2820
 0.5390	12.2980
 0.5400	12.2910
 0.5410	12.2650
 0.5420	12.2320
 0.5430	12.2100
 0.5440	12.2110
 0.5450	12.2390
 0.5460	12.2940
 0.5470	12.3620
 0.5480	12.4230
 0.5490	12.4640
 0.5500	12.4850
 0.5510	12.5000
 0.5520	12.5100
 0.5530	12.5130
 0.5540	12.5110
 0.5550	12.4960
 0.5560	12.4670
 0.5570	12.4260
 0.5580	12.3730
 0.5590	12.3130
 0.5600	12.2500
 0.5610	12.1770
 0.5620	12.0980
 0.5630	12.0110
 0.5640	11.9170
 0.5650	11.8230
 0.5660	11.7300
 0.5670	11.6390
 0.5680	11.5500
 0.5690	11.4620
 0.5700	11.3770
 0.5710	11.2910
 0.5720	11.2080
 0.5730	11.1300
 0.5740	11.0530
 0.5750	10.9720
 0.5760	10.8890
 0.5770	10.8090
 0.5780	10.7360
 0.5790	10.6740
 0.5800	10.6210
 0.5810	10.5730
 0.5820	10.5230
 0.5830	10.4700
 0.5840	10.4240
 0.5850	10.3880
 0.5860	10.3610
 0.5870	10.3390
 0.5880	10.3230
 0.5890	10.3140
 0.5900	10.3060
 0.5910	10.2910
 0.5920	10.2660
 0.5930	10.2360
 0.5940	10.2190
 0.5950	10.2120
 0.5960	10.2110
 0.5970	10.2050
 0.5980	10.1980
 0.5990	10.1850
 0.6000	10.1660
 0.6010	10.1490
 0.6020	10.1320
 0.6030	10.1110
 0.6040	10.0850
 0.6050	10.0600
 0.6060	10.0350
 0.6070	10.0050
 0.6080	 9.9700
 0.6090	 9.9150
 0.6100	 9.8300
 0.6110	 9.7240
 0.6120	 9.6900
 0.6130	 9.6990
 0.6140	 9.7160
 0.6150	 9.7040
 0.6160	 9.6880
 0.6170	 9.6710
 0.6180	 9.6500
 0.6190	 9.6240
 0.6200	 9.5990
 0.6210	 9.5790
 0.6220	 9.5660
 0.6230	 9.5570
 0.6240	 9.5490
 0.6250	 9.5430
 0.6260	 9.5390
 0.6270	 9.5350
 0.6280	 9.5310
 0.6290	 9.5240
 0.6300	 9.5130
 0.6310	 9.5050
 0.6320	 9.5050
 0.6330	 9.5090
 0.6340	 9.5040
 0.6350	 9.4930
 0.6360	 9.4770
 0.6370	 9.4590
 0.6380	 9.4380
 0.6390	 9.4130
 0.6400	 9.3860
 0.6410	 9.3560
 0.6420	 9.3280
 0.6430	 9.3020
 0.6440	 9.2750
 0.6450	 9.2520
 0.6460	 9.2310
 0.6470	 9.2120
 0.6480	 9.1950
 0.6490	 9.1790
 0.6500	 9.1650
 0.6510	 9.1570
 0.6520	 9.1530
 0.6530	 9.1510
 0.6540	 9.1460
 0.6550	 9.1430
 0.6560	 9.1400
 0.6570	 9.1360
 0.6580	 9.1270
 0.6590	 9.1220
 0.6600	 9.1160
 0.6610	 9.1090
 0.6620	 9.1020
 0.6630	 9.0980
 0.6640	 9.0980
 0.6650	 9.1000
 0.6660	 9.1040
 0.6670	 9.1100
 0.6680	 9.1200
 0.6690	 9.1320
 0.6700	 9.1510
 0.6710	 9.1730
 0.6720	 9.1960
 0.6730	 9.2200
 0.6740	 9.2510
 0.6750	 9.2870
 0.6760	 9.3230
 0.6770	 9.3620
 0.6780	 9.4040
 0.6790	 9.4490
 0.6800	 9.4990
 0.6810	 9.5500
 0.6820	 9.6030
 0.6830	 9.6560
 0.6840	 9.7100
 0.6850	 9.7610
 0.6860	 9.8120
 0.6870	 9.8660
 0.6880	 9.9280
 0.6890	10.0000
 0.6900	10.0880
 0.6910	10.1990
 0.6920	10.3400
 0.6930	10.5190
 0.6940	10.7430
 0.6950	11.0180
 0.6960	11.3480
 0.6970	11.7350
 0.6980	12.1760
 0.6990	12.6740
 0.7000	13.2240
 0.7010	13.8230
 0.7020	14.4660
 0.7030	15.1450
 0.7040	15.8550
 0.7050	16.5890
 0.7060	17.3450
 0.7070	18.1220
 0.7080	18.9180
 0.7090	19.7350
 0.7100	20.5750
 0.7110	21.4320
 0.7120	22.3020
 0.7130	23.1900
 0.7140	24.0940
 0.7150	25.0120
 0.7160	25.9410
 0.7170	26.8780
 0.7180	27.8240
 0.7190	28.7760
 0.7200	29.7310
 0.7210	30.6840
 0.7220	31.6340
 0.7230	32.5780
 0.7240	33.5090
 0.7250	34.4260
 0.7260	35.3250
 0.7270	36.2030
 0.7280	37.0590
 0.7290	37.8880
 0.7300	38.6890
 0.7310	39.4640
 0.7320	40.2080
 0.7330	40.9210
 0.7340	41.6000
 0.7350	42.2450
 0.7360	42.8590
 0.7370	43.4430
 0.7380	43.9920
 0.7390	44.5060
 0.7400	44.9900
 0.7410	45.4440
 0.7420	45.8660
 0.7430	46.2570
 0.7440	46.6200
 0.7450	46.9540
 0.7460	47.2570
 0.7470	47.5370
 0.7480	47.7910
 0.7490	48.0190
 0.7500	48.2300
 0.7510	48.4200
 0.7520	48.5900
 0.7530	48.7440
 0.7540	48.8840
 0.7550	49.0100
 0.7560	49.1230
 0.7570	49.2200
 0.7580	49.3080
 0.7590	49.3890
 0.7600	49.4630
 0.7610	49.5300
 0.7620	49.5880
 0.7630	49.6380
 0.7640	49.6820
 0.7650	49.7190
 0.7660	49.7520
 0.7670	49.7810
 0.7680	49.8060
 0.7690	49.8250
 0.7700	49.8430
 0.7710	49.8630
 0.7720	49.8760
 0.7730	49.8890
 0.7740	49.9010
 0.7750	49.9130
 0.7760	49.9240
 0.7770	49.9330
 0.7780	49.9420
 0.7790	49.9520
 0.7800	49.9610
 0.7810	49.9690
 0.7820	49.9780
 0.7830	49.9860
 0.7840	49.9950
 0.7850	50.0030
 0.7860	50.0090
 0.7870	50.0110
 0.7880	50.0130
 0.7890	50.0160
 0.7900	50.0210
 0.7910	50.0220
 0.7920	50.0250
 0.7930	50.0300
 0.7940	50.0310
 0.7950	50.0330
 0.7960	50.0320
 0.7970	50.0290
 0.7980	50.0270
 0.7990	50.0240
 0.8000	50.0210
 0.8010	50.0170
 0.8020	50.0120
 0.8030	50.0080
 0.8040	50.0030
 0.8050	49.9980
 0.8060	49.9940
 0.8070	49.9870
 0.8080	49.9780
 0.8090	49.9690
 0.8100	49.9630
 0.8110	49.9560
 0.8120	49.9480
 0.8130	49.9380
 0.8140	49.9300
 0.8150	49.9210
 0.8160	49.9080
 0.8170	49.9020
 0.8180	49.8930
 0.8190	49.8810
 0.8200	49.8720
 0.8210	49.8670
 0.8220	49.8570
 0.8230	49.8460
 0.8240	49.8380
 0.8250	49.8300
 0.8260	49.8210
 0.8270	49.8130
 0.8280	49.8070
 0.8290	49.7970
 0.8300	49.7870
 0.8310	49.7790
 0.8320	49.7710
 0.8330	49.7650
 0.8340	49.7610
 0.8350	49.7570
 0.8360	49.7530
 0.8370	49.7500
 0.8380	49.7480
 0.8390	49.7440
 0.8400	49.7400
 0.8410	49.7410
 0.8420	49.7440
 0.8430	49.7390
 0.8440	49.7400
 0.8450	49.7420
 0.8460	49.7400
 0.8470	49.7410
 0.8480	49.7470
 0.8490	49.7530
 0.8500	49.7530
 0.8510	49.7540
 0.8520	49.7590
 0.8530	49.7650
 0.8540	49.7670
 0.8550	49.7720
 0.8560	49.7750
 0.8570	49.7780
 0.8580	49.7860
 0.8590	49.7950
 0.8600	49.8020
 0.8610	49.8080
 0.8620	49.8150
 0.8630	49.8220
 0.8640	49.8280
 0.8650	49.8360
 0.8660	49.8460
 0.8670	49.8530
 0.8680	49.8610
 0.8690	49.8700
 0.8700	49.8800
 0.8710	49.8910
 0.8720	49.9030
 0.8730	49.9120
 0.8740	49.9160
 0.8750	49.9240
 0.8760	49.9350
 0.8770	49.9440
 0.8780	49.9550
 0.8790	49.9670
 0.8800	49.9780
 0.8810	49.9850
 0.8820	49.9910
 0.8830	50.0000
 0.8840	50.0110
 0.8850	50.0220
 0.8860	50.0320
 0.8870	50.0390
 0.8880	50.0470
 0.8890	50.0540
 0.8900	50.0620
 0.8910	50.0700
 0.8920	50.0790
 0.8930	50.0920
 0.8940	50.1030
 0.8950	50.1100
 0.8960	50.1180
 0.8970	50.1250
 0.8980	50.1300
 0.8990	50.1370
 0.9000	50.1490
 0.9010	50.1560
 0.9020	50.1620
 0.9030	50.1710
 0.9040	50.1750
 0.9050	50.1800
 0.9060	50.1880
 0.9070	50.1990
 0.9080	50.2060
 0.9090	50.2090
 0.9100	50.2120
 0.9110	50.2210
 0.9120	50.2270
 0.9130	50.2330
 0.9140	50.2370
 0.9150	50.2420
 0.9160	50.2450
 0.9170	50.2430
 0.9180	50.2390
 0.9190	50.2420
 0.9200	50.2480
 0.9210	50.2480
 0.9220	50.2390
 0.9230	50.2320
 0.9240	50.2350
 0.9250	50.2330
 0.9260	50.2210
 0.9270	50.2100
 0.9280	50.2030
 0.9290	50.1970
 0.9300	50.1860
 0.9310	50.1730
 0.9320	50.1640
 0.9330	50.1500
 0.9340	50.1300
 0.9350	50.1160
 0.9360	50.1060
 0.9370	50.0920
 0.9380	50.0710
 0.9390	50.0570
 0.9400	50.0360
 0.9410	50.0140
 0.9420	49.9950
 0.9430	49.9660
 0.9440	49.9350
 0.9450	49.9090
 0.9460	49.8880
 0.9470	49.8630
 0.9480	49.8350
 0.9490	49.7970
 0.9500	49.7500
 0.9510	49.7080
 0.9520	49.6680
 0.9530	49.6250
 0.9540	49.5760
 0.9550	49.5380
 0.9560	49.4960
 0.9570	49.4470
 0.9580	49.3970
 0.9590	49.3600
 0.9600	49.3280
 0.9610	49.2980
 0.9620	49.2670
 0.9630	49.2360
 0.9640	49.2030
 0.9650	49.1760
 0.9660	49.1610
 0.9670	49.1470
 0.9680	49.1240
 0.9690	49.0970
 0.9700	49.0780
 0.9710	49.0730
 0.9720	49.0610
 0.9730	49.0470
 0.9740	49.0420
 0.9750	49.0370
 0.9760	49.0320
 0.9770	49.0220
 0.9780	49.0030
 0.9790	48.9940
 0.9800	48.9940
 0.9810	48.9960
 0.9820	48.9930
 0.9830	49.0100
 0.9840	49.0060
 0.9850	48.9960
 0.9860	49.0080
 0.9870	49.0150
 0.9880	49.0070
 0.9890	49.0020
 0.9900	49.0210
 0.9910	49.0210
 0.9920	49.0300
 0.9930	49.0430
 0.9940	49.0490
 0.9950	49.0580
 0.9960	49.0740
 0.9970	49.0880
 0.9980	49.0900
 0.9990	49.1050
 1.0000	49.1090
 1.0010	49.3220
 1.0020	49.3370
 1.0030	49.3530
 1.0040	49.3640
 1.0050	49.3720
 1.0060	49.3850
 1.0070	49.3980
 1.0080	49.4100
 1.0090	49.4240
 1.0100	49.4350
 1.0110	49.4410
 1.0120	49.4520
 1.0130	49.4660
 1.0140	49.4780
 1.0150	49.4880
 1.0160	49.5010
 1.0170	49.5170
 1.0180	49.5330
 1.0190	49.5490
 1.0200	49.5620
 1.0210	49.5710
 1.0220	49.5820
 1.0230	49.5950
 1.0240	49.6110
 1.0250	49.6250
 1.0260	49.6380
 1.0270	49.6500
 1.0280	49.6610
 1.0290	49.6740
 1.0300	49.6860
 1.0310	49.6980
 1.0320	49.7120
 1.0330	49.7250
 1.0340	49.7370
 1.0350	49.7480
 1.0360	49.7590
 1.0370	49.7710
 1.0380	49.7810
 1.0390	49.7900
 1.0400	49.8020
 1.0410	49.8150
 1.0420	49.8230
 1.0430	49.8320
 1.0440	49.8390
 1.0450	49.8400
 1.0460	49.8460
 1.0470	49.8560
 1.0480	49.8640
 1.0490	49.8760
 1.0500	49.8840
 1.0510	49.8890
 1.0520	49.8940
 1.0530	49.8980
 1.0540	49.8990
 1.0550	49.9030
 1.0560	49.9070
 1.0570	49.9110
 1.0580	49.9160
 1.0590	49.9200
 1.0600	49.9230
 1.0610	49.9280
 1.0620	49.9340
 1.0630	49.9380
 1.0640	49.9410
 1.0650	49.9430
 1.0660	49.9440
 1.0670	49.9440
 1.0680	49.9430
 1.0690	49.9430
 1.0700	49.9410
 1.0710	49.9370
 1.0720	49.9350
 1.0730	49.9330
 1.0740	49.9330
 1.0750	49.9340
 1.0760	49.9360
 1.0770	49.9410
 1.0780	49.9410
 1.0790	49.9390
 1.0800	49.9370
 1.0810	49.9320
 1.0820	49.9310
 1.0830	49.9360
 1.0840	49.9360
 1.0850	49.9340
 1.0860	49.9320
 1.0870	49.9290
 1.0880	49.9220
 1.0890	49.9180
 1.0900	49.9180
 1.0910	49.9140
 1.0920	49.9080
 1.0930	49.9030
 1.0940	49.8980
 1.0950	49.8940
 1.0960	49.8900
 1.0970	49.8860
 1.0980	49.8820
 1.0990	49.8780
 1.1000	49.8760
 1.1010	49.8710
 1.1020	49.8660
 1.1030	49.8590
 1.1040	49.8530
 1.1050	49.8450
 1.1060	49.8390
 1.1070	49.8340
 1.1080	49.8280
 1.1090	49.8230
 1.1100	49.8150
 1.1110	49.8040
 1.1120	49.7950
 1.1130	49.7870
 1.1140	49.7760
 1.1150	49.7670
 1.1160	49.7560
 1.1170	49.7430
 1.1180	49.7280
 1.1190	49.7130
 1.1200	49.6950
 1.1210	49.6760
 1.1220	49.6560
 1.1230	49.6310
 1.1240	49.6030
 1.1250	49.5740
 1.1260	49.5420
 1.1270	49.5040
 1.1280	49.4660
 1.1290	49.4220
 1.1300	49.3710
 1.1310	49.3170
 1.1320	49.2600
 1.1330	49.1960
 1.1340	49.1260
 1.1350	49.0520
 1.1360	48.9710
 1.1370	48.8880
 1.1380	48.8010
 1.1390	48.7080
 1.1400	48.6100
 1.1410	48.5120
 1.1420	48.4110
 1.1430	48.3080
 1.1440	48.2050
 1.1450	48.1010
 1.1460	47.9970
 1.1470	47.8890
 1.1480	47.7880
 1.1490	47.6890
 1.1500	47.5940
 1.1510	47.5000
 1.1520	47.4150
 1.1530	47.3350
 1.1540	47.2590
 1.1550	47.1890
 1.1560	47.1270
 1.1570	47.0670
 1.1580	47.0120
 1.1590	46.9630
 1.1600	46.9170
 1.1610	46.8750
 1.1620	46.8380
 1.1630	46.8070
 1.1640	46.7780
 1.1650	46.7520
 1.1660	46.7300
 1.1670	46.7070
 1.1680	46.6850
 1.1690	46.6660
 1.1700	46.6480
 1.1710	46.6300
 1.1720	46.6120
 1.1730	46.5950
 1.1740	46.5780
 1.1750	46.5610
 1.1760	46.5460
 1.1770	46.5330
 1.1780	46.5180
 1.1790	46.5010
 1.1800	46.4840
 1.1810	46.4640
 1.1820	46.4440
 1.1830	46.4260
 1.1840	46.4090
 1.1850	46.3910
 1.1860	46.3750
 1.1870	46.3610
 1.1880	46.3460
 1.1890	46.3310
 1.1900	46.3180
 1.1910	46.3050
 1.1920	46.2930
 1.1930	46.2840
 1.1940	46.2750
 1.1950	46.2670
 1.1960	46.2620
 1.1970	46.2590
 1.1980	46.2560
 1.1990	46.2550
 1.2000	46.2560
 1.2010	46.2580
 1.2020	46.2630
 1.2030	46.2680
 1.2040	46.2760
 1.2050	46.2840
 1.2060	46.2910
 1.2070	46.3010
 1.2080	46.3110
 1.2090	46.3210
 1.2100	46.3340
 1.2110	46.3460
 1.2120	46.3570
 1.2130	46.3710
 1.2140	46.3840
 1.2150	46.3990
 1.2160	46.4180
 1.2170	46.4360
 1.2180	46.4550
 1.2190	46.4740
 1.2200	46.4920
 1.2210	46.5130
 1.2220	46.5330
 1.2230	46.5520
 1.2240	46.5730
 1.2250	46.5920
 1.2260	46.6110
 1.2270	46.6290
 1.2280	46.6450
 1.2290	46.6610
 1.2300	46.6780
 1.2310	46.6950
 1.2320	46.7130
 1.2330	46.7310
 1.2340	46.7470
 1.2350	46.7610
 1.2360	46.7760
 1.2370	46.7900
 1.2380	46.8030
 1.2390	46.8170
 1.2400	46.8300
 1.2410	46.8430
 1.2420	46.8530
 1.2430	46.8650
 1.2440	46.8760
 1.2450	46.8860
 1.2460	46.8980
 1.2470	46.9080
 1.2480	46.9160
 1.2490	46.9260
 1.2500	46.9350
 1.2510	46.9440
 1.2520	46.9510
 1.2530	46.9580
 1.2540	46.9630
 1.2550	46.9680
 1.2560	46.9730
 1.2570	46.9760
 1.2580	46.9780
 1.2590	46.9810
 1.2600	46.9820
 1.2610	46.9830
 1.2620	46.9830
 1.2630	46.9830
 1.2640	46.9820
 1.2650	46.9790
 1.2660	46.9760
 1.2670	46.9730
 1.2680	46.9690
 1.2690	46.9650
 1.2700	46.9600
 1.2710	46.9560
 1.2720	46.9500
 1.2730	46.9430
 1.2740	46.9360
 1.2750	46.9260
 1.2760	46.9160
 1.2770	46.9050
 1.2780	46.8920
 1.2790	46.8790
 1.2800	46.8640
 1.2810	46.8460
 1.2820	46.8290
 1.2830	46.8120
 1.2840	46.7930
 1.2850	46.7750
 1.2860	46.7550
 1.2870	46.7330
 1.2880	46.7070
 1.2890	46.6810
 1.2900	46.6540
 1.2910	46.6230
 1.2920	46.5910
 1.2930	46.5590
 1.2940	46.5240
 1.2950	46.4890
 1.2960	46.4550
 1.2970	46.4170
 1.2980	46.3760
 1.2990	46.3340
 1.3000	46.2900
 1.3010	46.2430
 1.3020	46.1960
 1.3030	46.1480
 1.3040	46.0990
 1.3050	46.0490
 1.3060	45.9960
 1.3070	45.9370
 1.3080	45.8790
 1.3090	45.8190
 1.3100	45.7570
 1.3110	45.6970
 1.3120	45.6330
 1.3130	45.5650
 1.3140	45.4950
 1.3150	45.4230
 1.3160	45.3500
 1.3170	45.2750
 1.3180	45.1970
 1.3190	45.1180
 1.3200	45.0360
 1.3210	44.9510
 1.3220	44.8660
 1.3230	44.7790
 1.3240	44.6890
 1.3250	44.5960
 1.3260	44.4990
 1.3270	44.4000
 1.3280	44.2990
 1.3290	44.1950
 1.3300	44.0890
 1.3310	43.9840
 1.3320	43.8750
 1.3330	43.7680
 1.3340	43.6600
 1.3350	43.5490
 1.3360	43.4390
 1.3370	43.3280
 1.3380	43.2160
 1.3390	43.1050
 1.3400	42.9920
 1.3410	42.8820
 1.3420	42.7710
 1.3430	42.6600
 1.3440	42.5500
 1.3450	42.4410
 1.3460	42.3290
 1.3470	42.2220
 1.3480	42.1170
 1.3490	42.0130
 1.3500	41.9110
 1.3510	41.8090
 1.3520	41.7040
 1.3530	41.5990
 1.3540	41.4930
 1.3550	41.3870
 1.3560	41.2830
 1.3570	41.1780
 1.3580	41.0740
 1.3590	40.9670
 1.3600	40.8580
 1.3610	40.7450
 1.3620	40.6250
 1.3630	40.5020
 1.3640	40.3740
 1.3650	40.2410
 1.3660	40.1050
 1.3670	39.9590
 1.3680	39.8030
 1.3690	39.6380
 1.3700	39.4600
 1.3710	39.2710
 1.3720	39.0700
 1.3730	38.8520
 1.3740	38.6200
 1.3750	38.3720
 1.3760	38.1030
 1.3770	37.8140
 1.3780	37.5030
 1.3790	37.1700
 1.3800	36.8150
 1.3810	36.4340
 1.3820	36.0340
 1.3830	35.6140
 1.3840	35.1710
 1.3850	34.7060
 1.3860	34.2240
 1.3870	33.7180
 1.3880	33.2030
 1.3890	32.6730
 1.3900	32.1290
 1.3910	31.5820
 1.3920	31.0240
 1.3930	30.4600
 1.3940	29.8970
 1.3950	29.3260
 1.3960	28.7600
 1.3970	28.2030
 1.3980	27.6520
 1.3990	27.1190
 1.4000	26.5970
 1.4010	26.0860
 1.4020	25.5950
 1.4030	25.1160
 1.4040	24.6570
 1.4050	24.2210
 1.4060	23.8010
 1.4070	23.4060
 1.4080	23.0320
 1.4090	22.6750
 1.4100	22.3410
 1.4110	22.0250
 1.4120	21.7280
 1.4130	21.4500
 1.4140	21.1890
 1.4150	20.9480
 1.4160	20.7250
 1.4170	20.5160
 1.4180	20.3230
 1.4190	20.1430
 1.4200	19.9750
 1.4210	19.8200
 1.4220	19.6760
 1.4230	19.5440
 1.4240	19.4240
 1.4250	19.3110
 1.4260	19.2090
 1.4270	19.1130
 1.4280	19.0260
 1.4290	18.9470
 1.4300	18.8760
 1.4310	18.8100
 1.4320	18.7530
 1.4330	18.7000
 1.4340	18.6520
 1.4350	18.6090
 1.4360	18.5720
 1.4370	18.5400
 1.4380	18.5140
 1.4390	18.4910
 1.4400	18.4720
 1.4410	18.4560
 1.4420	18.4430
 1.4430	18.4330
 1.4440	18.4270
 1.4450	18.4230
 1.4460	18.4220
 1.4470	18.4240
 1.4480	18.4280
 1.4490	18.4330
 1.4500	18.4400
 1.4510	18.4480
 1.4520	18.4580
 1.4530	18.4710
 1.4540	18.4840
 1.4550	18.5000
 1.4560	18.5180
 1.4570	18.5380
 1.4580	18.5630
 1.4590	18.5910
 1.4600	18.6220
 1.4610	18.6560
 1.4620	18.6960
 1.4630	18.7410
 1.4640	18.7890
 1.4650	18.8430
 1.4660	18.9010
 1.4670	18.9620
 1.4680	19.0300
 1.4690	19.1030
 1.4700	19.1800
 1.4710	19.2610
 1.4720	19.3440
 1.4730	19.4310
 1.4740	19.5230
 1.4750	19.6170
 1.4760	19.7170
 1.4770	19.8180
 1.4780	19.9210
 1.4790	20.0280
 1.4800	20.1350
 1.4810	20.2450
 1.4820	20.3570
 1.4830	20.4700
 1.4840	20.5850
 1.4850	20.7010
 1.4860	20.8180
 1.4870	20.9350
 1.4880	21.0510
 1.4890	21.1690
 1.4900	21.2890
 1.4910	21.4100
 1.4920	21.5320
 1.4930	21.6570
 1.4940	21.7800
 1.4950	21.9050
 1.4960	22.0290
 1.4970	22.1510
 1.4980	22.2740
 1.4990	22.3980
 1.5000	22.5230
 1.5010	22.6490
 1.5020	22.7740
 1.5030	22.8990
 1.5040	23.0250
 1.5050	23.1500
 1.5060	23.2750
 1.5070	23.3990
 1.5080	23.5220
 1.5090	23.6460
 1.5100	23.7690
 1.5110	23.8910
 1.5120	24.0140
 1.5130	24.1360
 1.5140	24.2570
 1.5150	24.3790
 1.5160	24.4990
 1.5170	24.6190
 1.5180	24.7380
 1.5190	24.8560
 1.5200	24.9730
 1.5210	25.0880
 1.5220	25.2020
 1.5230	25.3170
 1.5240	25.4300
 1.5250	25.5450
 1.5260	25.6590
 1.5270	25.7700
 1.5280	25.8810
 1.5290	25.9900
 1.5300	26.0970
 1.5310	26.2050
 1.5320	26.3100
 1.5330	26.4180
 1.5340	26.5230
 1.5350	26.6270
 1.5360	26.7310
 1.5370	26.8310
 1.5380	26.9320
 1.5390	27.0320
 1.5400	27.1290
 1.5410	27.2270
 1.5420	27.3240
 1.5430	27.4200
 1.5440	27.5180
 1.5450	27.6140
 1.5460	27.7090
 1.5470	27.8040
 1.5480	27.8960
 1.5490	27.9880
 1.5500	28.0780
 1.5510	28.1660
 1.5520	28.2550
 1.5530	28.3410
 1.5540	28.4270
 1.5550	28.5130
 1.5560	28.5970
 1.5570	28.6820
 1.5580	28.7660
 1.5590	28.8480
 1.5600	28.9280
 1.5610	29.0040
 1.5620	29.0810
 1.5630	29.1610
 1.5640	29.2390
 1.5650	29.3170
 1.5660	29.3930
 1.5670	29.4660
 1.5680	29.5390
 1.5690	29.6110
 1.5700	29.6840
 1.5710	29.7570
 1.5720	29.8290
 1.5730	29.9010
 1.5740	29.9720
 1.5750	30.0420
 1.5760	30.1120
 1.5770	30.1790
 1.5780	30.2460
 1.5790	30.3120
 1.5800	30.3790
 1.5810	30.4470
 1.5820	30.5150
 1.5830	30.5820
 1.5840	30.6480
 1.5850	30.7120
 1.5860	30.7770
 1.5870	30.8420
 1.5880	30.9060
 1.5890	30.9700
 1.5900	31.0330
 1.5910	31.0940
 1.5920	31.1570
 1.5930	31.2200
 1.5940	31.2830
 1.5950	31.3470
 1.5960	31.4090
 1.5970	31.4710
 1.5980	31.5330
 1.5990	31.5950
 1.6000	31.6550
 1.6010	31.7130
 1.6020	31.7700
 1.6030	31.8270
 1.6040	31.8820
 1.6050	31.9400
 1.6060	31.9960
 1.6070	32.0500
 1.6080	32.1060
 1.6090	32.1590
 1.6100	32.2110
 1.6110	32.2660
 1.6120	32.3170
 1.6130	32.3680
 1.6140	32.4190
 1.6150	32.4660
 1.6160	32.5150
 1.6170	32.5650
 1.6180	32.6140
 1.6190	32.6610
 1.6200	32.7070
 1.6210	32.7500
 1.6220	32.7920
 1.6230	32.8340
 1.6240	32.8750
 1.6250	32.9170
 1.6260	32.9560
 1.6270	32.9960
 1.6280	33.0360
 1.6290	33.0740
 1.6300	33.1140
 1.6310	33.1510
 1.6320	33.1860
 1.6330	33.2210
 1.6340	33.2550
 1.6350	33.2880
 1.6360	33.3220
 1.6370	33.3530
 1.6380	33.3820
 1.6390	33.4110
 1.6400	33.4370
 1.6410	33.4630
 1.6420	33.4890
 1.6430	33.5120
 1.6440	33.5320
 1.6450	33.5510
 1.6460	33.5680
 1.6470	33.5820
 1.6480	33.5940
 1.6490	33.6040
 1.6500	33.6130
 1.6510	33.6190
 1.6520	33.6240
 1.6530	33.6270
 1.6540	33.6290
 1.6550	33.6290
 1.6560	33.6270
 1.6570	33.6250
 1.6580	33.6190
 1.6590	33.6150
 1.6600	33.6100
 1.6610	33.6020
 1.6620	33.5940
 1.6630	33.5870
 1.6640	33.5790
 1.6650	33.5730
 1.6660	33.5680
 1.6670	33.5610
 1.6680	33.5540
 1.6690	33.5480
 1.6700	33.5430
 1.6710	33.5360
 1.6720	33.5280
 1.6730	33.5200
 1.6740	33.5110
 1.6750	33.5020
 1.6760	33.4910
 1.6770	33.4780
 1.6780	33.4620
 1.6790	33.4400
 1.6800	33.4170
 1.6810	33.3910
 1.6820	33.3610
 1.6830	33.3330
 1.6840	33.3060
 1.6850	33.2750
 1.6860	33.2420
 1.6870	33.2060
 1.6880	33.1690
 1.6890	33.1320
 1.6900	33.0940
 1.6910	33.0540
 1.6920	33.0160
 1.6930	32.9790
 1.6940	32.9420
 1.6950	32.9080
 1.6960	32.8710
 1.6970	32.8340
 1.6980	32.7970
 1.6990	32.7580
 1.7000	32.7200
 1.7010	32.6810
 1.7020	32.6410
 1.7030	32.6010
 1.7040	32.5600
 1.7050	32.5180
 1.7060	32.4750
 1.7070	32.4320
 1.7080	32.3890
 1.7090	32.3460
 1.7100	32.3020
 1.7110	32.2550
 1.7120	32.2110
 1.7130	32.1680
 1.7140	32.1240
 1.7150	32.0800
 1.7160	32.0360
 1.7170	31.9910
 1.7180	31.9480
 1.7190	31.9070
 1.7200	31.8640
 1.7210	31.8230
 1.7220	31.7820
 1.7230	31.7430
 1.7240	31.7060
 1.7250	31.6690
 1.7260	31.6320
 1.7270	31.5960
 1.7280	31.5590
 1.7290	31.5240
 1.7300	31.4870
 1.7310	31.4520
 1.7320	31.4180
 1.7330	31.3840
 1.7340	31.3520
 1.7350	31.3170
 1.7360	31.2810
 1.7370	31.2440
 1.7380	31.2070
 1.7390	31.1650
 1.7400	31.1210
 1.7410	31.0750
 1.7420	31.0260
 1.7430	30.9770
 1.7440	30.9260
 1.7450	30.8750
 1.7460	30.8230
 1.7470	30.7710
 1.7480	30.7200
 1.7490	30.6660
 1.7500	30.6100
 1.7510	30.5570
 1.7520	30.5040
 1.7530	30.4500
 1.7540	30.3970
 1.7550	30.3440
 1.7560	30.2910
 1.7570	30.2390
 1.7580	30.1880
 1.7590	30.1360
 1.7600	30.0860
 1.7610	30.0380
 1.7620	29.9910
 1.7630	29.9420
 1.7640	29.8970
 1.7650	29.8530
 1.7660	29.8110
 1.7670	29.7700
 1.7680	29.7310
 1.7690	29.6930
 1.7700	29.6570
 1.7710	29.6230
 1.7720	29.5910
 1.7730	29.5600
 1.7740	29.5310
 1.7750	29.5050
 1.7760	29.4770
 1.7770	29.4510
 1.7780	29.4230
 1.7790	29.3930
 1.7800	29.3700
 1.7810	29.3490
 1.7820	29.3310
 1.7830	29.3190
 1.7840	29.3030
 1.7850	29.2850
 1.7860	29.2720
 1.7870	29.2600
 1.7880	29.2530
 1.7890	29.2480
 1.7900	29.2440
 1.7910	29.2410
 1.7920	29.2390
 1.7930	29.2400
 1.7940	29.2430
 1.7950	29.2470
 1.7960	29.2540
 1.7970	29.2610
 1.7980	29.2680
 1.7990	29.2760
 1.8000	29.2850
 1.8010	29.2930
 1.8020	29.3010
 1.8030	29.3080
 1.8040	29.3150
 1.8050	29.3230
 1.8060	29.3320
 1.8070	29.3410
 1.8080	29.3530
 1.8090	29.3620
 1.8100	29.3710
 1.8110	29.3800
 1.8120	29.3880
 1.8130	29.3950
 1.8140	29.4040
 1.8150	29.4140
 1.8160	29.4220
 1.8170	29.4280
 1.8180	29.4320
 1.8190	29.4310
 1.8200	29.4310
 1.8210	29.4310
 1.8220	29.4310
 1.8230	29.4320
 1.8240	29.4310
 1.8250	29.4290
 1.8260	29.4270
 1.8270	29.4230
 1.8280	29.4180
 1.8290	29.4130
 1.8300	29.4050
 1.8310	29.6150
 1.8320	29.5970
 1.8330	29.5800
 1.8340	29.5560
 1.8350	29.5230
 1.8360	29.4920
 1.8370	29.4590
 1.8380	29.4180
 1.8390	29.3730
 1.8400	29.3270
 1.8410	29.2740
 1.8420	29.2180
 1.8430	29.1560
 1.8440	29.0870
 1.8450	29.0080
 1.8460	28.9170
 1.8470	28.8170
 1.8480	28.7120
 1.8490	28.5950
 1.8500	28.4690
 1.8510	28.3350
 1.8520	28.1920
 1.8530	28.0360
 1.8540	27.8730
 1.8550	27.6980
 1.8560	27.5080
 1.8570	27.3040
 1.8580	27.0830
 1.8590	26.8490
 1.8600	26.6010
 1.8610	26.3370
 1.8620	26.0580
 1.8630	25.7660
 1.8640	25.4570
 1.8650	25.1310
 1.8660	24.7890
 1.8670	24.4240
 1.8680	24.0410
 1.8690	23.6410
 1.8700	23.2230
 1.8710	22.7860
 1.8720	22.3390
 1.8730	21.8790
 1.8740	21.4060
 1.8750	20.9250
 1.8760	20.4320
 1.8770	19.9310
 1.8780	19.4260
 1.8790	18.9170
 1.8800	18.4150
 1.8810	17.9160
 1.8820	17.4200
 1.8830	16.9260
 1.8840	16.4410
 1.8850	15.9580
 1.8860	15.4880
 1.8870	15.0350
 1.8880	14.5940
 1.8890	14.1740
 1.8900	13.7710
 1.8910	13.3900
 1.8920	13.0260
 1.8930	12.6890
 1.8940	12.3740
 1.8950	12.0840
 1.8960	11.8160
 1.8970	11.5710
 1.8980	11.3490
 1.8990	11.1430
 1.9000	10.9560
 1.9010	10.7910
 1.9020	10.6380
 1.9030	10.5010
 1.9040	10.3810
 1.9050	10.2760
 1.9060	10.1810
 1.9070	10.0980
 1.9080	10.0250
 1.9090	 9.9610
 1.9100	 9.9040
 1.9110	 9.8530
 1.9120	 9.8100
 1.9130	 9.7710
 1.9140	 9.7390
 1.9150	 9.7110
 1.9160	 9.6870
 1.9170	 9.6670
 1.9180	 9.6480
 1.9190	 9.6320
 1.9200	 9.6160
 1.9210	 9.6030
 1.9220	 9.5920
 1.9230	 9.5840
 1.9240	 9.5780
 1.9250	 9.5760
 1.9260	 9.5750
 1.9270	 9.5760
 1.9280	 9.5780
 1.9290	 9.5810
 1.9300	 9.5840
 1.9310	 9.5890
 1.9320	 9.5960
 1.9330	 9.6030
 1.9340	 9.6110
 1.9350	 9.6220
 1.9360	 9.6340
 1.9370	 9.6470
 1.9380	 9.6640
 1.9390	 9.6800
 1.9400	 9.6920
 1.9410	 9.7100
 1.9420	 9.7260
 1.9430	 9.7410
 1.9440	 9.7600
 1.9450	 9.7810
 1.9460	 9.8020
 1.9470	 9.8250
 1.9480	 9.8480
 1.9490	 9.8710
 1.9500	 9.8960
 1.9510	 9.9210
 1.9520	 9.9460
 1.9530	 9.9740
 1.9540	10.0020
 1.9550	10.0310
 1.9560	10.0630
 1.9570	10.0940
 1.9580	10.1250
 1.9590	10.1570
 1.9600	10.1880
 1.9610	10.2220
 1.9620	10.2570
 1.9630	10.2920
 1.9640	10.3260
 1.9650	10.3620
 1.9660	10.3980
 1.9670	10.4330
 1.9680	10.4720
 1.9690	10.5150
 1.9700	10.5570
 1.9710	10.6000
 1.9720	10.6440
 1.9730	10.6890
 1.9740	10.7340
 1.9750	10.7820
 1.9760	10.8270
 1.9770	10.8730
 1.9780	10.9220
 1.9790	10.9710
 1.9800	11.0230
 1.9810	11.0740
 1.9820	11.1260
 1.9830	11.1780
 1.9840	11.2300
 1.9850	11.2830
 1.9860	11.3370
 1.9870	11.3900
 1.9880	11.4450
 1.9890	11.5020
 1.9900	11.5600
 1.9910	11.6160
 1.9920	11.6730
 1.9930	11.7300
 1.9940	11.7880
 1.9950	11.8450
 1.9960	11.9050
 1.9970	11.9660
 1.9980	12.0270
 1.9990	12.0860
 2.0000	12.1470
 2.0010	12.2070
 2.0020	12.2650
 2.0030	12.3260
 2.0040	12.3860
 2.0050	12.4470
 2.0060	12.5100
 2.0070	12.5710
 2.0080	12.6300
 2.0090	12.6920
 2.0100	12.7540
 2.0110	12.8150
 2.0120	12.8780
 2.0130	12.9400
 2.0140	13.0020
 2.0150	13.0620
 2.0160	13.1210
 2.0170	13.1800
 2.0180	13.2380
 2.0190	13.2960
 2.0200	13.3520
 2.0210	13.4070
 2.0220	13.4630
 2.0230	13.5180
 2.0240	13.5730
 2.0250	13.6310
 2.0260	13.6860
 2.0270	13.7390
 2.0280	13.7910
 2.0290	13.8400
 2.0300	13.8890
 2.0310	13.9380
 2.0320	13.9880
 2.0330	14.0360
 2.0340	14.0860
 2.0350	14.1340
 2.0360	14.1810
 2.0370	14.2280
 2.0380	14.2750
 2.0390	14.3200
 2.0400	14.3630
 2.0410	14.4070
 2.0420	14.4510
 2.0430	14.4940
 2.0440	14.5360
 2.0450	14.5790
 2.0460	14.6200
 2.0470	14.6580
 2.0480	14.6980
 2.0490	14.7350
 2.0500	14.7750
 2.0510	14.8160
 2.0520	14.8550
 2.0530	14.8940
 2.0540	14.9320
 2.0550	14.9680
 2.0560	15.0030
 2.0570	15.0430
 2.0580	15.0830
 2.0590	15.1230
 2.0600	15.1630
 2.0610	15.2040
 2.0620	15.2440
 2.0630	15.2840
 2.0640	15.3260
 2.0650	15.3670
 2.0660	15.4060
 2.0670	15.4470
 2.0680	15.4920
 2.0690	15.5340
 2.0700	15.5760
 2.0710	15.6180
 2.0720	15.6580
 2.0730	15.6990
 2.0740	15.7410
 2.0750	15.7830
 2.0760	15.8250
 2.0770	15.8650
 2.0780	15.9060
 2.0790	15.9460
 2.0800	15.9880
 2.0810	16.0300
 2.0820	16.0710
 2.0830	16.1120
 2.0840	16.1520
 2.0850	16.1930
 2.0860	16.2320
 2.0870	16.2680
 2.0880	16.3060
 2.0890	16.3460
 2.0900	16.3840
 2.0910	16.4230
 2.0920	16.4660
 2.0930	16.5050
 2.0940	16.5410
 2.0950	16.5790
 2.0960	16.6170
 2.0970	16.6560
 2.0980	16.6970
 2.0990	16.7360
 2.1000	16.7760
 2.1010	16.8140
 2.1020	16.8520
 2.1030	16.8890
 2.1040	16.9260
 2.1050	16.9630
 2.1060	17.0000
 2.1070	17.0360
 2.1080	17.0740
 2.1090	17.1120
 2.1100	17.1500
 2.1110	17.1900
 2.1120	17.2280
 2.1130	17.2650
 2.1140	17.3010
 2.1150	17.3350
 2.1160	17.3700
 2.1170	17.4040
 2.1180	17.4390
 2.1190	17.4770
 2.1200	17.5130
 2.1210	17.5480
 2.1220	17.5840
 2.1230	17.6150
 2.1240	17.6440
 2.1250	17.6740
 2.1260	17.7010
 2.1270	17.7300
 2.1280	17.7610
 2.1290	17.7900
 2.1300	17.8180
 2.1310	17.8470
 2.1320	17.8780
 2.1330	17.9060
 2.1340	17.9330
 2.1350	17.9610
 2.1360	17.9900
 2.1370	18.0170
 2.1380	18.0450
 2.1390	18.0730
 2.1400	18.1010
 2.1410	18.1260
 2.1420	18.1520
 2.1430	18.1780
 2.1440	18.2050
 2.1450	18.2320
 2.1460	18.2570
 2.1470	18.2830
 2.1480	18.3090
 2.1490	18.3310
 2.1500	18.3570
 2.1510	18.3870
 2.1520	18.4120
 2.1530	18.4350
 2.1540	18.4580
 2.1550	18.4760
 2.1560	18.4980
 2.1570	18.5240
 2.1580	18.5480
 2.1590	18.5740
 2.1600	18.5960
 2.1610	18.6100
 2.1620	18.6240
 2.1630	18.6440
 2.1640	18.6630
 2.1650	18.6840
 2.1660	18.7120
 2.1670	18.7330
 2.1680	18.7500
 2.1690	18.7690
 2.1700	18.7880
 2.1710	18.8080
 2.1720	18.8300
 2.1730	18.8490
 2.1740	18.8670
 2.1750	18.8860
 2.1760	18.9060
 2.1770	18.9260
 2.1780	18.9480
 2.1790	18.9710
 2.1800	18.9970
 2.1810	19.0200
 2.1820	19.0430
 2.1830	19.0650
 2.1840	19.0870
 2.1850	19.1050
 2.1860	19.1300
 2.1870	19.1580
 2.1880	19.1860
 2.1890	19.2200
 2.1900	19.2470
 2.1910	19.2730
 2.1920	19.2970
 2.1930	19.3160
 2.1940	19.3380
 2.1950	19.3600
 2.1960	19.3830
 2.1970	19.4070
 2.1980	19.4310
 2.1990	19.4550
 2.2000	19.4780
 2.2010	19.4990
 2.2020	19.5200
 2.2030	19.5390
 2.2040	19.5580
 2.2050	19.5810
 2.2060	19.6000
 2.2070	19.6170
 2.2080	19.6340
 2.2090	19.6510
 2.2100	19.6680
 2.2110	19.6810
 2.2120	19.6930
 2.2130	19.7050
 2.2140	19.7130
 2.2150	19.7220
 2.2160	19.7340
 2.2170	19.7420
 2.2180	19.7460
 2.2190	19.7500
 2.2200	19.7510
 2.2210	19.7510
 2.2220	19.7510
 2.2230	19.7470
 2.2240	19.7390
 2.2250	19.7310
 2.2260	19.7210
 2.2270	19.7100
 2.2280	19.7000
 2.2290	19.6870
 2.2300	19.6710
 2.2310	19.6510
 2.2320	19.6280
 2.2330	19.6020
 2.2340	19.5720
 2.2350	19.5370
 2.2360	19.5020
 2.2370	19.4630
 2.2380	19.4240
 2.2390	19.3850
 2.2400	19.3420
 2.2410	19.2970
 2.2420	19.2510
 2.2430	19.2020
 2.2440	19.1500
 2.2450	19.0950
 2.2460	19.0390
 2.2470	18.9790
 2.2480	18.9190
 2.2490	18.8580
 2.2500	18.7990
 2.2510	18.7390
 2.2520	18.6790
 2.2530	18.6200
 2.2540	18.5600
 2.2550	18.4950
 2.2560	18.4340
 2.2570	18.3790
 2.2580	18.3200
 2.2590	18.2630
 2.2600	18.2060
 2.2610	18.1480
 2.2620	18.0890
 2.2630	18.0350
 2.2640	17.9810
 2.2650	17.9260
 2.2660	17.8760
 2.2670	17.8220
 2.2680	17.7670
 2.2690	17.7170
 2.2700	17.6650
 2.2710	17.6210
 2.2720	17.5840
 2.2730	17.5440
 2.2740	17.5030
 2.2750	17.4670
 2.2760	17.4310
 2.2770	17.3970
 2.2780	17.3660
 2.2790	17.3330
 2.2800	17.3020
 2.2810	17.2700
 2.2820	17.2410
 2.2830	17.2070
 2.2840	17.1690
 2.2850	17.1320
 2.2860	17.0910
 2.2870	17.0540
 2.2880	17.0190
 2.2890	16.9840
 2.2900	16.9550
 2.2910	16.9200
 2.2920	16.8840
 2.2930	16.8450
 2.2940	16.7990
 2.2950	16.7540
 2.2960	16.7060
 2.2970	16.6620
 2.2980	16.6210
 2.2990	16.5800
 2.3000	16.5420
 2.3010	16.5050
 2.3020	16.4620
 2.3030	16.4190
 2.3040	16.3770
 2.3050	16.3350
 2.3060	16.2940
 2.3070	16.2560
 2.3080	16.2200
 2.3090	16.1910
 2.3100	16.1680
 2.3110	16.1400
 2.3120	16.1140
 2.3130	16.0890
 2.3140	16.0620
 2.3150	16.0370
 2.3160	16.0110
 2.3170	15.9810
 2.3180	15.9570
 2.3190	15.9390
 2.3200	15.9140
 2.3210	15.8910
 2.3220	15.8640
 2.3230	15.8290
 2.3240	15.7990
 2.3250	15.7740
 2.3260	15.7430
 2.3270	15.7110
 2.3280	15.6800
 2.3290	15.6470
 2.3300	15.6170
 2.3310	15.5960
 2.3320	15.5630
 2.3330	15.5240
 2.3340	15.4810
 2.3350	15.4270
 2.3360	15.3820
 2.3370	15.3410
 2.3380	15.3010
 2.3390	15.2670
 2.3400	15.2270
 2.3410	15.1830
 2.3420	15.1460
 2.3430	15.1090
 2.3440	15.0750
 2.3450	15.0500
 2.3460	15.0220
 2.3470	14.9970
 2.3480	14.9660
 2.3490	14.9280
 2.3500	14.8950
 2.3510	14.8590
 2.3520	14.8280
 2.3530	14.8040
 2.3540	14.7820
 2.3550	14.7550
 2.3560	14.7260
 2.3570	14.6950
 2.3580	14.6700
 2.3590	14.6490
 2.3600	14.6280
 2.3610	14.6070
 2.3620	14.5780
 2.3630	14.5550
 2.3640	14.5310
 2.3650	14.5000
 2.3660	14.4720
 2.3670	14.4450
 2.3680	14.4200
 2.3690	14.3940
 2.3700	14.3670
 2.3710	14.3320
 2.3720	14.2830
 2.3730	14.2400
 2.3740	14.2060
 2.3750	14.1710
 2.3760	14.1380
 2.3770	14.1170
 2.3780	14.0860
 2.3790	14.0520
 2.3800	14.0270
 2.3810	13.9860
 2.3820	13.9500
 2.3830	13.9220
 2.3840	13.8810
 2.3850	13.8400
 2.3860	13.8050
 2.3870	13.7620
 2.3880	13.7170
 2.3890	13.6800
 2.3900	13.6430
 2.3910	13.6000
 2.3920	13.5630
 2.3930	13.5290
 2.3940	13.4970
 2.3950	13.4830
 2.3960	13.4610
 2.3970	13.4270
 2.3980	13.3860
 2.3990	13.3350
 2.4000	13.2900
 2.4010	13.2450
 2.4020	13.2070
 2.4030	13.1760
 2.4040	13.1460
 2.4050	13.1160
 2.4060	13.0840
 2.4070	13.0490
 2.4080	13.0030
 2.4090	12.9600
 2.4100	12.9180
 2.4110	12.8780
 2.4120	12.8390
 2.4130	12.8030
 2.4140	12.7760
 2.4150	12.7420
 2.4160	12.7020
 2.4170	12.6640
 2.4180	12.6230
 2.4190	12.5770
 2.4200	12.5430
 2.4210	12.5180
 2.4220	12.4910
 2.4230	12.4560
 2.4240	12.4200
 2.4250	12.3800
 2.4260	12.3310
 2.4270	12.2940
 2.4280	12.2560
 2.4290	12.2090
 2.4300	12.1760
 2.4310	12.1430
 2.4320	12.1020
 2.4330	12.0700
 2.4340	12.0350
 2.4350	12.0070
 2.4360	11.9870
 2.4370	11.9540
 2.4380	11.9210
 2.4390	11.8830
 2.4400	11.8330
 2.4410	11.7890
 2.4420	11.7390
 2.4430	11.6730
 2.4440	11.6260
 2.4450	11.5980
 2.4460	11.5600
 2.4470	11.5380
 2.4480	11.5180
 2.4490	11.4700
 2.4500	11.4460
 2.4510	11.4210
 2.4520	11.3700
 2.4530	11.3320
 2.4540	11.2910
 2.4550	11.2460
 2.4560	11.2230
 2.4570	11.2210
 2.4580	11.2040
 2.4590	11.1950
 2.4600	11.1810
 2.4610	11.1300
 2.4620	11.0790
 2.4630	11.0200
 2.4640	10.9700
 2.4650	10.9540
 2.4660	10.9500
 2.4670	10.9440
 2.4680	10.9390
 2.4690	10.9180
 2.4700	10.9020
 2.4710	10.8890
 2.4720	10.8660
 2.4730	10.8330
 2.4740	10.8080
 2.4750	10.7810
 2.4760	10.7640
 2.4770	10.7600
 2.4780	10.7640
 2.4790	10.7900
 2.4800	10.7840
 2.4810	10.7590
 2.4820	10.7430
 2.4830	10.7080
 2.4840	10.6430
 2.4850	10.6190
 2.4860	10.5800
 2.4870	10.5280
 2.4880	10.5520
 2.4890	10.5900
 2.4900	10.6220
 2.4910	10.6790
 2.4920	10.6630
 2.4930	10.6220
 2.4940	10.6100
 2.4950	10.5520
 2.4960	10.5540
 2.4970	10.5510
 2.4980	10.4910
 2.4990	10.5030
 2.5000	10.4970
