Name: Ceanothus megacarpus 2
Type: vegetation
Class: Shrub
Genus: Ceanothus
Species: megacarpus
Sample No.: VH142
Owner: UCSB
Wavelength Range: VSWIR
Origin: 34.4909; -119.7914; WGS84
Collection Date: 6/3/2013
Description: Samples were collected as part of the HyspIRI Airborne Campaign. 48 individual plants were sampled in three times in 2013 - spring  summer  and fall. The name of the sample includes a 1  2  or 3 which references a different individual of the species. Samples were taken to JPL and processed within 48 hours of collection. The same leaves were processed in the Nicolet and then measured using the ASD.
Measurement: Bidirectional reflectance
First Column: X
Second Column: Y
X Units: Wavelength (micrometers)
Y Units: Reflectance (percentage)
First X Value: 0.35
Last X Value: 2.5
Number of X Values: 2151
Additional Information: vegetation.shrub.ceanothus.megacarpus.vswir.vh142.ucsb.asd.ancillary.txt

 0.3500	 4.2100
 0.3510	 4.3010
 0.3520	 4.2910
 0.3530	 4.1320
 0.3540	 3.9310
 0.3550	 4.1440
 0.3560	 4.2820
 0.3570	 4.2230
 0.3580	 4.0890
 0.3590	 4.2630
 0.3600	 4.4090
 0.3610	 4.3500
 0.3620	 4.2220
 0.3630	 4.1800
 0.3640	 4.2030
 0.3650	 4.2210
 0.3660	 4.2090
 0.3670	 4.2580
 0.3680	 4.3340
 0.3690	 4.3240
 0.3700	 4.2580
 0.3710	 4.2200
 0.3720	 4.2580
 0.3730	 4.3530
 0.3740	 4.3740
 0.3750	 4.3080
 0.3760	 4.2120
 0.3770	 4.2190
 0.3780	 4.1690
 0.3790	 4.0750
 0.3800	 4.1010
 0.3810	 4.1800
 0.3820	 4.2630
 0.3830	 4.3010
 0.3840	 4.2360
 0.3850	 4.2350
 0.3860	 4.2910
 0.3870	 4.3200
 0.3880	 4.2350
 0.3890	 4.1820
 0.3900	 4.2160
 0.3910	 4.2830
 0.3920	 4.2410
 0.3930	 4.1890
 0.3940	 4.2200
 0.3950	 4.2700
 0.3960	 4.2610
 0.3970	 4.2020
 0.3980	 4.1530
 0.3990	 4.1670
 0.4000	 4.1920
 0.4010	 4.1990
 0.4020	 4.1970
 0.4030	 4.1990
 0.4040	 4.2010
 0.4050	 4.1940
 0.4060	 4.1610
 0.4070	 4.1620
 0.4080	 4.1980
 0.4090	 4.2310
 0.4100	 4.2210
 0.4110	 4.2030
 0.4120	 4.2090
 0.4130	 4.2480
 0.4140	 4.2590
 0.4150	 4.2560
 0.4160	 4.2700
 0.4170	 4.2740
 0.4180	 4.2850
 0.4190	 4.3030
 0.4200	 4.3170
 0.4210	 4.3490
 0.4220	 4.3790
 0.4230	 4.3920
 0.4240	 4.4040
 0.4250	 4.4180
 0.4260	 4.4360
 0.4270	 4.4630
 0.4280	 4.4940
 0.4290	 4.5150
 0.4300	 4.5320
 0.4310	 4.5780
 0.4320	 4.5970
 0.4330	 4.6050
 0.4340	 4.6270
 0.4350	 4.6540
 0.4360	 4.6770
 0.4370	 4.6940
 0.4380	 4.7060
 0.4390	 4.7160
 0.4400	 4.7240
 0.4410	 4.7340
 0.4420	 4.7640
 0.4430	 4.7890
 0.4440	 4.8010
 0.4450	 4.8030
 0.4460	 4.8170
 0.4470	 4.8380
 0.4480	 4.8590
 0.4490	 4.8670
 0.4500	 4.8890
 0.4510	 4.9050
 0.4520	 4.9030
 0.4530	 4.9190
 0.4540	 4.9380
 0.4550	 4.9530
 0.4560	 4.9620
 0.4570	 4.9720
 0.4580	 4.9730
 0.4590	 4.9670
 0.4600	 4.9750
 0.4610	 4.9860
 0.4620	 4.9960
 0.4630	 5.0030
 0.4640	 5.0130
 0.4650	 5.0210
 0.4660	 5.0230
 0.4670	 5.0210
 0.4680	 5.0260
 0.4690	 5.0280
 0.4700	 5.0250
 0.4710	 5.0300
 0.4720	 5.0380
 0.4730	 5.0440
 0.4740	 5.0410
 0.4750	 5.0440
 0.4760	 5.0410
 0.4770	 5.0310
 0.4780	 5.0440
 0.4790	 5.0470
 0.4800	 5.0390
 0.4810	 5.0340
 0.4820	 5.0470
 0.4830	 5.0610
 0.4840	 5.0690
 0.4850	 5.0770
 0.4860	 5.0800
 0.4870	 5.0850
 0.4880	 5.0960
 0.4890	 5.1100
 0.4900	 5.1290
 0.4910	 5.1460
 0.4920	 5.1560
 0.4930	 5.1750
 0.4940	 5.2010
 0.4950	 5.2270
 0.4960	 5.2480
 0.4970	 5.2740
 0.4980	 5.3030
 0.4990	 5.3320
 0.5000	 5.3680
 0.5010	 5.4070
 0.5020	 5.4500
 0.5030	 5.5020
 0.5040	 5.5460
 0.5050	 5.5950
 0.5060	 5.6590
 0.5070	 5.7280
 0.5080	 5.8040
 0.5090	 5.8850
 0.5100	 5.9670
 0.5110	 6.0560
 0.5120	 6.1510
 0.5130	 6.2540
 0.5140	 6.3660
 0.5150	 6.4860
 0.5160	 6.6110
 0.5170	 6.7410
 0.5180	 6.8810
 0.5190	 7.0260
 0.5200	 7.1760
 0.5210	 7.3300
 0.5220	 7.4860
 0.5230	 7.6390
 0.5240	 7.7890
 0.5250	 7.9430
 0.5260	 8.0940
 0.5270	 8.2370
 0.5280	 8.3670
 0.5290	 8.4970
 0.5300	 8.6200
 0.5310	 8.7340
 0.5320	 8.8380
 0.5330	 8.9330
 0.5340	 9.0210
 0.5350	 9.1020
 0.5360	 9.1750
 0.5370	 9.2410
 0.5380	 9.3040
 0.5390	 9.3620
 0.5400	 9.4190
 0.5410	 9.4720
 0.5420	 9.5210
 0.5430	 9.5730
 0.5440	 9.6210
 0.5450	 9.6630
 0.5460	 9.6950
 0.5470	 9.7150
 0.5480	 9.7330
 0.5490	 9.7560
 0.5500	 9.7770
 0.5510	 9.7860
 0.5520	 9.7850
 0.5530	 9.7780
 0.5540	 9.7570
 0.5550	 9.7300
 0.5560	 9.6970
 0.5570	 9.6530
 0.5580	 9.6020
 0.5590	 9.5470
 0.5600	 9.4880
 0.5610	 9.4230
 0.5620	 9.3550
 0.5630	 9.2810
 0.5640	 9.2040
 0.5650	 9.1250
 0.5660	 9.0440
 0.5670	 8.9620
 0.5680	 8.8760
 0.5690	 8.7840
 0.5700	 8.6910
 0.5710	 8.5980
 0.5720	 8.5140
 0.5730	 8.4300
 0.5740	 8.3460
 0.5750	 8.2690
 0.5760	 8.1970
 0.5770	 8.1300
 0.5780	 8.0700
 0.5790	 8.0160
 0.5800	 7.9710
 0.5810	 7.9300
 0.5820	 7.8860
 0.5830	 7.8360
 0.5840	 7.7850
 0.5850	 7.7360
 0.5860	 7.6960
 0.5870	 7.6650
 0.5880	 7.6340
 0.5890	 7.5960
 0.5900	 7.5550
 0.5910	 7.5200
 0.5920	 7.4960
 0.5930	 7.4800
 0.5940	 7.4710
 0.5950	 7.4660
 0.5960	 7.4600
 0.5970	 7.4460
 0.5980	 7.4330
 0.5990	 7.4180
 0.6000	 7.3960
 0.6010	 7.3700
 0.6020	 7.3430
 0.6030	 7.3150
 0.6040	 7.2820
 0.6050	 7.2490
 0.6060	 7.2120
 0.6070	 7.1700
 0.6080	 7.1240
 0.6090	 7.0800
 0.6100	 7.0380
 0.6110	 6.9990
 0.6120	 6.9520
 0.6130	 6.9000
 0.6140	 6.8460
 0.6150	 6.7950
 0.6160	 6.7470
 0.6170	 6.7040
 0.6180	 6.6670
 0.6190	 6.6370
 0.6200	 6.6070
 0.6210	 6.5780
 0.6220	 6.5540
 0.6230	 6.5370
 0.6240	 6.5230
 0.6250	 6.5090
 0.6260	 6.4960
 0.6270	 6.4870
 0.6280	 6.4790
 0.6290	 6.4700
 0.6300	 6.4700
 0.6310	 6.4670
 0.6320	 6.4600
 0.6330	 6.4510
 0.6340	 6.4370
 0.6350	 6.4180
 0.6360	 6.3950
 0.6370	 6.3700
 0.6380	 6.3380
 0.6390	 6.2980
 0.6400	 6.2570
 0.6410	 6.2120
 0.6420	 6.1640
 0.6430	 6.1150
 0.6440	 6.0660
 0.6450	 6.0180
 0.6460	 5.9700
 0.6470	 5.9220
 0.6480	 5.8810
 0.6490	 5.8430
 0.6500	 5.8070
 0.6510	 5.7770
 0.6520	 5.7500
 0.6530	 5.7240
 0.6540	 5.6970
 0.6550	 5.6680
 0.6560	 5.6380
 0.6570	 5.6060
 0.6580	 5.5690
 0.6590	 5.5330
 0.6600	 5.4950
 0.6610	 5.4560
 0.6620	 5.4200
 0.6630	 5.3830
 0.6640	 5.3460
 0.6650	 5.3110
 0.6660	 5.2850
 0.6670	 5.2640
 0.6680	 5.2470
 0.6690	 5.2320
 0.6700	 5.2220
 0.6710	 5.2170
 0.6720	 5.2160
 0.6730	 5.2170
 0.6740	 5.2210
 0.6750	 5.2280
 0.6760	 5.2400
 0.6770	 5.2520
 0.6780	 5.2680
 0.6790	 5.2890
 0.6800	 5.3090
 0.6810	 5.3360
 0.6820	 5.3690
 0.6830	 5.4110
 0.6840	 5.4680
 0.6850	 5.5310
 0.6860	 5.6060
 0.6870	 5.7000
 0.6880	 5.8150
 0.6890	 5.9570
 0.6900	 6.1310
 0.6910	 6.3360
 0.6920	 6.5850
 0.6930	 6.8760
 0.6940	 7.2090
 0.6950	 7.5850
 0.6960	 8.0070
 0.6970	 8.4680
 0.6980	 8.9630
 0.6990	 9.4920
 0.7000	10.0560
 0.7010	10.6480
 0.7020	11.2580
 0.7030	11.8800
 0.7040	12.5140
 0.7050	13.1600
 0.7060	13.8100
 0.7070	14.4650
 0.7080	15.1210
 0.7090	15.7800
 0.7100	16.4360
 0.7110	17.0950
 0.7120	17.7560
 0.7130	18.4090
 0.7140	19.0580
 0.7150	19.7040
 0.7160	20.3460
 0.7170	20.9780
 0.7180	21.6060
 0.7190	22.2280
 0.7200	22.8360
 0.7210	23.4300
 0.7220	24.0110
 0.7230	24.5800
 0.7240	25.1340
 0.7250	25.6650
 0.7260	26.1800
 0.7270	26.6810
 0.7280	27.1530
 0.7290	27.6060
 0.7300	28.0400
 0.7310	28.4510
 0.7320	28.8380
 0.7330	29.2070
 0.7340	29.5580
 0.7350	29.8880
 0.7360	30.2000
 0.7370	30.4940
 0.7380	30.7710
 0.7390	31.0280
 0.7400	31.2650
 0.7410	31.4900
 0.7420	31.7090
 0.7430	31.9040
 0.7440	32.0830
 0.7450	32.2490
 0.7460	32.3980
 0.7470	32.5360
 0.7480	32.6650
 0.7490	32.7840
 0.7500	32.8930
 0.7510	32.9930
 0.7520	33.0850
 0.7530	33.1670
 0.7540	33.2440
 0.7550	33.3160
 0.7560	33.3790
 0.7570	33.4300
 0.7580	33.4830
 0.7590	33.5310
 0.7600	33.5720
 0.7610	33.6140
 0.7620	33.6510
 0.7630	33.6850
 0.7640	33.7170
 0.7650	33.7500
 0.7660	33.7760
 0.7670	33.7980
 0.7680	33.8270
 0.7690	33.8460
 0.7700	33.8620
 0.7710	33.8790
 0.7720	33.8960
 0.7730	33.9120
 0.7740	33.9280
 0.7750	33.9450
 0.7760	33.9610
 0.7770	33.9740
 0.7780	33.9850
 0.7790	34.0000
 0.7800	34.0130
 0.7810	34.0280
 0.7820	34.0460
 0.7830	34.0580
 0.7840	34.0680
 0.7850	34.0800
 0.7860	34.0950
 0.7870	34.1000
 0.7880	34.1080
 0.7890	34.1190
 0.7900	34.1310
 0.7910	34.1410
 0.7920	34.1490
 0.7930	34.1580
 0.7940	34.1670
 0.7950	34.1750
 0.7960	34.1800
 0.7970	34.1830
 0.7980	34.1930
 0.7990	34.2010
 0.8000	34.2030
 0.8010	34.1990
 0.8020	34.2060
 0.8030	34.2150
 0.8040	34.2160
 0.8050	34.2040
 0.8060	34.2100
 0.8070	34.2150
 0.8080	34.2130
 0.8090	34.2090
 0.8100	34.2060
 0.8110	34.2060
 0.8120	34.2100
 0.8130	34.2100
 0.8140	34.2000
 0.8150	34.1890
 0.8160	34.1870
 0.8170	34.1850
 0.8180	34.1780
 0.8190	34.1720
 0.8200	34.1700
 0.8210	34.1610
 0.8220	34.1550
 0.8230	34.1510
 0.8240	34.1380
 0.8250	34.1310
 0.8260	34.1220
 0.8270	34.1080
 0.8280	34.0990
 0.8290	34.0890
 0.8300	34.0780
 0.8310	34.0700
 0.8320	34.0600
 0.8330	34.0480
 0.8340	34.0370
 0.8350	34.0300
 0.8360	34.0170
 0.8370	34.0090
 0.8380	34.0050
 0.8390	33.9950
 0.8400	33.9880
 0.8410	33.9860
 0.8420	33.9830
 0.8430	33.9750
 0.8440	33.9660
 0.8450	33.9620
 0.8460	33.9640
 0.8470	33.9620
 0.8480	33.9580
 0.8490	33.9530
 0.8500	33.9490
 0.8510	33.9500
 0.8520	33.9500
 0.8530	33.9430
 0.8540	33.9330
 0.8550	33.9300
 0.8560	33.9340
 0.8570	33.9390
 0.8580	33.9380
 0.8590	33.9330
 0.8600	33.9250
 0.8610	33.9200
 0.8620	33.9260
 0.8630	33.9260
 0.8640	33.9230
 0.8650	33.9250
 0.8660	33.9250
 0.8670	33.9270
 0.8680	33.9280
 0.8690	33.9280
 0.8700	33.9300
 0.8710	33.9360
 0.8720	33.9400
 0.8730	33.9420
 0.8740	33.9420
 0.8750	33.9410
 0.8760	33.9420
 0.8770	33.9540
 0.8780	33.9530
 0.8790	33.9550
 0.8800	33.9660
 0.8810	33.9660
 0.8820	33.9600
 0.8830	33.9580
 0.8840	33.9640
 0.8850	33.9670
 0.8860	33.9700
 0.8870	33.9740
 0.8880	33.9790
 0.8890	33.9750
 0.8900	33.9740
 0.8910	33.9760
 0.8920	33.9780
 0.8930	33.9830
 0.8940	33.9820
 0.8950	33.9790
 0.8960	33.9860
 0.8970	33.9780
 0.8980	33.9740
 0.8990	33.9810
 0.9000	33.9840
 0.9010	33.9810
 0.9020	33.9780
 0.9030	33.9780
 0.9040	33.9830
 0.9050	33.9900
 0.9060	33.9920
 0.9070	33.9880
 0.9080	33.9870
 0.9090	33.9870
 0.9100	33.9860
 0.9110	33.9850
 0.9120	33.9900
 0.9130	33.9900
 0.9140	33.9860
 0.9150	33.9830
 0.9160	33.9710
 0.9170	33.9760
 0.9180	33.9830
 0.9190	33.9690
 0.9200	33.9600
 0.9210	33.9590
 0.9220	33.9570
 0.9230	33.9450
 0.9240	33.9460
 0.9250	33.9350
 0.9260	33.9160
 0.9270	33.9060
 0.9280	33.8930
 0.9290	33.8820
 0.9300	33.8700
 0.9310	33.8480
 0.9320	33.8310
 0.9330	33.8120
 0.9340	33.7880
 0.9350	33.7600
 0.9360	33.7470
 0.9370	33.7250
 0.9380	33.6910
 0.9390	33.6740
 0.9400	33.6480
 0.9410	33.6140
 0.9420	33.5800
 0.9430	33.5470
 0.9440	33.5110
 0.9450	33.4760
 0.9460	33.4420
 0.9470	33.3960
 0.9480	33.3460
 0.9490	33.3010
 0.9500	33.2610
 0.9510	33.2090
 0.9520	33.1440
 0.9530	33.0760
 0.9540	33.0130
 0.9550	32.9340
 0.9560	32.8700
 0.9570	32.8200
 0.9580	32.7680
 0.9590	32.7120
 0.9600	32.6600
 0.9610	32.6030
 0.9620	32.5360
 0.9630	32.4880
 0.9640	32.4510
 0.9650	32.4230
 0.9660	32.4030
 0.9670	32.3830
 0.9680	32.3520
 0.9690	32.3170
 0.9700	32.2910
 0.9710	32.2830
 0.9720	32.2680
 0.9730	32.2470
 0.9740	32.2320
 0.9750	32.2210
 0.9760	32.2160
 0.9770	32.2160
 0.9780	32.2120
 0.9790	32.1970
 0.9800	32.1820
 0.9810	32.1710
 0.9820	32.1680
 0.9830	32.1910
 0.9840	32.2110
 0.9850	32.2200
 0.9860	32.2210
 0.9870	32.2280
 0.9880	32.2180
 0.9890	32.2190
 0.9900	32.2650
 0.9910	32.2740
 0.9920	32.3230
 0.9930	32.3720
 0.9940	32.4210
 0.9950	32.4700
 0.9960	32.5190
 0.9970	32.5680
 0.9980	32.6170
 0.9990	32.6660
 1.0000	32.7150
 1.0010	32.7640
 1.0020	32.8130
 1.0030	32.8620
 1.0040	32.9110
 1.0050	32.9600
 1.0060	33.0090
 1.0070	33.0590
 1.0080	33.1080
 1.0090	33.1570
 1.0100	33.1570
 1.0110	33.1810
 1.0120	33.2060
 1.0130	33.2310
 1.0140	33.2540
 1.0150	33.2760
 1.0160	33.3000
 1.0170	33.3180
 1.0180	33.3370
 1.0190	33.3580
 1.0200	33.3790
 1.0210	33.4000
 1.0220	33.4220
 1.0230	33.4430
 1.0240	33.4630
 1.0250	33.4850
 1.0260	33.5090
 1.0270	33.5290
 1.0280	33.5460
 1.0290	33.5650
 1.0300	33.5850
 1.0310	33.6040
 1.0320	33.6240
 1.0330	33.6440
 1.0340	33.6660
 1.0350	33.6790
 1.0360	33.6950
 1.0370	33.7160
 1.0380	33.7330
 1.0390	33.7490
 1.0400	33.7650
 1.0410	33.7810
 1.0420	33.7970
 1.0430	33.8120
 1.0440	33.8270
 1.0450	33.8400
 1.0460	33.8560
 1.0470	33.8770
 1.0480	33.8920
 1.0490	33.9040
 1.0500	33.9170
 1.0510	33.9300
 1.0520	33.9380
 1.0530	33.9510
 1.0540	33.9690
 1.0550	33.9810
 1.0560	33.9910
 1.0570	34.0010
 1.0580	34.0090
 1.0590	34.0180
 1.0600	34.0270
 1.0610	34.0370
 1.0620	34.0490
 1.0630	34.0590
 1.0640	34.0710
 1.0650	34.0780
 1.0660	34.0810
 1.0670	34.0850
 1.0680	34.0870
 1.0690	34.0860
 1.0700	34.0890
 1.0710	34.0950
 1.0720	34.0980
 1.0730	34.1010
 1.0740	34.1030
 1.0750	34.1060
 1.0760	34.1060
 1.0770	34.1030
 1.0780	34.1010
 1.0790	34.0980
 1.0800	34.0950
 1.0810	34.0940
 1.0820	34.0920
 1.0830	34.0880
 1.0840	34.0830
 1.0850	34.0780
 1.0860	34.0720
 1.0870	34.0660
 1.0880	34.0580
 1.0890	34.0520
 1.0900	34.0470
 1.0910	34.0410
 1.0920	34.0340
 1.0930	34.0260
 1.0940	34.0150
 1.0950	34.0070
 1.0960	34.0010
 1.0970	33.9900
 1.0980	33.9770
 1.0990	33.9650
 1.1000	33.9530
 1.1010	33.9390
 1.1020	33.9240
 1.1030	33.9100
 1.1040	33.8950
 1.1050	33.8800
 1.1060	33.8660
 1.1070	33.8570
 1.1080	33.8420
 1.1090	33.8220
 1.1100	33.8050
 1.1110	33.7860
 1.1120	33.7670
 1.1130	33.7470
 1.1140	33.7260
 1.1150	33.7050
 1.1160	33.6790
 1.1170	33.6530
 1.1180	33.6230
 1.1190	33.5890
 1.1200	33.5520
 1.1210	33.5160
 1.1220	33.4770
 1.1230	33.4350
 1.1240	33.3890
 1.1250	33.3400
 1.1260	33.2880
 1.1270	33.2300
 1.1280	33.1690
 1.1290	33.1050
 1.1300	33.0360
 1.1310	32.9620
 1.1320	32.8860
 1.1330	32.8040
 1.1340	32.7160
 1.1350	32.6210
 1.1360	32.5220
 1.1370	32.4170
 1.1380	32.3040
 1.1390	32.1890
 1.1400	32.0700
 1.1410	31.9470
 1.1420	31.8240
 1.1430	31.6970
 1.1440	31.5680
 1.1450	31.4350
 1.1460	31.3060
 1.1470	31.1740
 1.1480	31.0480
 1.1490	30.9230
 1.1500	30.8060
 1.1510	30.6910
 1.1520	30.5840
 1.1530	30.4790
 1.1540	30.3840
 1.1550	30.2960
 1.1560	30.2140
 1.1570	30.1410
 1.1580	30.0760
 1.1590	30.0180
 1.1600	29.9660
 1.1610	29.9200
 1.1620	29.8790
 1.1630	29.8420
 1.1640	29.8120
 1.1650	29.7850
 1.1660	29.7660
 1.1670	29.7460
 1.1680	29.7300
 1.1690	29.7140
 1.1700	29.7000
 1.1710	29.6870
 1.1720	29.6750
 1.1730	29.6640
 1.1740	29.6540
 1.1750	29.6440
 1.1760	29.6340
 1.1770	29.6240
 1.1780	29.6110
 1.1790	29.5990
 1.1800	29.5860
 1.1810	29.5720
 1.1820	29.5610
 1.1830	29.5490
 1.1840	29.5340
 1.1850	29.5220
 1.1860	29.5080
 1.1870	29.4950
 1.1880	29.4840
 1.1890	29.4730
 1.1900	29.4640
 1.1910	29.4570
 1.1920	29.4510
 1.1930	29.4450
 1.1940	29.4410
 1.1950	29.4380
 1.1960	29.4360
 1.1970	29.4350
 1.1980	29.4340
 1.1990	29.4360
 1.2000	29.4390
 1.2010	29.4470
 1.2020	29.4550
 1.2030	29.4640
 1.2040	29.4730
 1.2050	29.4840
 1.2060	29.4980
 1.2070	29.5120
 1.2080	29.5280
 1.2090	29.5450
 1.2100	29.5640
 1.2110	29.5850
 1.2120	29.6100
 1.2130	29.6330
 1.2140	29.6570
 1.2150	29.6830
 1.2160	29.7090
 1.2170	29.7370
 1.2180	29.7670
 1.2190	29.7970
 1.2200	29.8260
 1.2210	29.8550
 1.2220	29.8830
 1.2230	29.9110
 1.2240	29.9400
 1.2250	29.9690
 1.2260	29.9980
 1.2270	30.0280
 1.2280	30.0570
 1.2290	30.0840
 1.2300	30.1100
 1.2310	30.1340
 1.2320	30.1580
 1.2330	30.1810
 1.2340	30.2030
 1.2350	30.2260
 1.2360	30.2490
 1.2370	30.2700
 1.2380	30.2910
 1.2390	30.3120
 1.2400	30.3310
 1.2410	30.3500
 1.2420	30.3700
 1.2430	30.3890
 1.2440	30.4090
 1.2450	30.4280
 1.2460	30.4460
 1.2470	30.4620
 1.2480	30.4770
 1.2490	30.4930
 1.2500	30.5060
 1.2510	30.5190
 1.2520	30.5310
 1.2530	30.5420
 1.2540	30.5540
 1.2550	30.5650
 1.2560	30.5740
 1.2570	30.5810
 1.2580	30.5870
 1.2590	30.5920
 1.2600	30.5960
 1.2610	30.6010
 1.2620	30.6050
 1.2630	30.6090
 1.2640	30.6140
 1.2650	30.6170
 1.2660	30.6180
 1.2670	30.6200
 1.2680	30.6210
 1.2690	30.6200
 1.2700	30.6170
 1.2710	30.6150
 1.2720	30.6090
 1.2730	30.6030
 1.2740	30.6000
 1.2750	30.5930
 1.2760	30.5870
 1.2770	30.5800
 1.2780	30.5710
 1.2790	30.5620
 1.2800	30.5510
 1.2810	30.5390
 1.2820	30.5270
 1.2830	30.5130
 1.2840	30.4970
 1.2850	30.4810
 1.2860	30.4650
 1.2870	30.4460
 1.2880	30.4270
 1.2890	30.4050
 1.2900	30.3820
 1.2910	30.3540
 1.2920	30.3240
 1.2930	30.2940
 1.2940	30.2630
 1.2950	30.2270
 1.2960	30.1880
 1.2970	30.1490
 1.2980	30.1060
 1.2990	30.0600
 1.3000	30.0140
 1.3010	29.9640
 1.3020	29.9090
 1.3030	29.8540
 1.3040	29.7950
 1.3050	29.7320
 1.3060	29.6680
 1.3070	29.5990
 1.3080	29.5270
 1.3090	29.4530
 1.3100	29.3770
 1.3110	29.2980
 1.3120	29.2140
 1.3130	29.1310
 1.3140	29.0440
 1.3150	28.9550
 1.3160	28.8630
 1.3170	28.7710
 1.3180	28.6730
 1.3190	28.5710
 1.3200	28.4680
 1.3210	28.3610
 1.3220	28.2510
 1.3230	28.1390
 1.3240	28.0240
 1.3250	27.9070
 1.3260	27.7880
 1.3270	27.6660
 1.3280	27.5420
 1.3290	27.4160
 1.3300	27.2880
 1.3310	27.1610
 1.3320	27.0320
 1.3330	26.9040
 1.3340	26.7760
 1.3350	26.6470
 1.3360	26.5180
 1.3370	26.3890
 1.3380	26.2590
 1.3390	26.1300
 1.3400	26.0020
 1.3410	25.8760
 1.3420	25.7490
 1.3430	25.6240
 1.3440	25.5020
 1.3450	25.3800
 1.3460	25.2590
 1.3470	25.1400
 1.3480	25.0240
 1.3490	24.9070
 1.3500	24.7920
 1.3510	24.6800
 1.3520	24.5660
 1.3530	24.4530
 1.3540	24.3410
 1.3550	24.2300
 1.3560	24.1200
 1.3570	24.0090
 1.3580	23.8970
 1.3590	23.7830
 1.3600	23.6670
 1.3610	23.5490
 1.3620	23.4260
 1.3630	23.3000
 1.3640	23.1690
 1.3650	23.0330
 1.3660	22.8950
 1.3670	22.7500
 1.3680	22.5990
 1.3690	22.4380
 1.3700	22.2670
 1.3710	22.0860
 1.3720	21.8940
 1.3730	21.6900
 1.3740	21.4770
 1.3750	21.2500
 1.3760	21.0070
 1.3770	20.7490
 1.3780	20.4730
 1.3790	20.1810
 1.3800	19.8770
 1.3810	19.5560
 1.3820	19.2230
 1.3830	18.8770
 1.3840	18.5200
 1.3850	18.1500
 1.3860	17.7740
 1.3870	17.3860
 1.3880	16.9970
 1.3890	16.6020
 1.3900	16.2040
 1.3910	15.8090
 1.3920	15.4130
 1.3930	15.0180
 1.3940	14.6290
 1.3950	14.2400
 1.3960	13.8600
 1.3970	13.4910
 1.3980	13.1320
 1.3990	12.7890
 1.4000	12.4590
 1.4010	12.1390
 1.4020	11.8350
 1.4030	11.5440
 1.4040	11.2690
 1.4050	11.0100
 1.4060	10.7660
 1.4070	10.5380
 1.4080	10.3250
 1.4090	10.1240
 1.4100	 9.9390
 1.4110	 9.7650
 1.4120	 9.6050
 1.4130	 9.4580
 1.4140	 9.3210
 1.4150	 9.1970
 1.4160	 9.0830
 1.4170	 8.9770
 1.4180	 8.8820
 1.4190	 8.7930
 1.4200	 8.7110
 1.4210	 8.6360
 1.4220	 8.5680
 1.4230	 8.5070
 1.4240	 8.4530
 1.4250	 8.4030
 1.4260	 8.3600
 1.4270	 8.3190
 1.4280	 8.2830
 1.4290	 8.2500
 1.4300	 8.2210
 1.4310	 8.1960
 1.4320	 8.1760
 1.4330	 8.1570
 1.4340	 8.1410
 1.4350	 8.1280
 1.4360	 8.1160
 1.4370	 8.1070
 1.4380	 8.1000
 1.4390	 8.0950
 1.4400	 8.0930
 1.4410	 8.0920
 1.4420	 8.0930
 1.4430	 8.0950
 1.4440	 8.0970
 1.4450	 8.1020
 1.4460	 8.1070
 1.4470	 8.1120
 1.4480	 8.1200
 1.4490	 8.1270
 1.4500	 8.1360
 1.4510	 8.1450
 1.4520	 8.1550
 1.4530	 8.1650
 1.4540	 8.1760
 1.4550	 8.1880
 1.4560	 8.2010
 1.4570	 8.2150
 1.4580	 8.2290
 1.4590	 8.2450
 1.4600	 8.2630
 1.4610	 8.2820
 1.4620	 8.3040
 1.4630	 8.3260
 1.4640	 8.3500
 1.4650	 8.3780
 1.4660	 8.4080
 1.4670	 8.4400
 1.4680	 8.4740
 1.4690	 8.5100
 1.4700	 8.5480
 1.4710	 8.5890
 1.4720	 8.6310
 1.4730	 8.6760
 1.4740	 8.7230
 1.4750	 8.7710
 1.4760	 8.8220
 1.4770	 8.8730
 1.4780	 8.9250
 1.4790	 8.9800
 1.4800	 9.0350
 1.4810	 9.0920
 1.4820	 9.1500
 1.4830	 9.2090
 1.4840	 9.2700
 1.4850	 9.3300
 1.4860	 9.3910
 1.4870	 9.4530
 1.4880	 9.5150
 1.4890	 9.5770
 1.4900	 9.6400
 1.4910	 9.7040
 1.4920	 9.7670
 1.4930	 9.8320
 1.4940	 9.8960
 1.4950	 9.9610
 1.4960	10.0270
 1.4970	10.0920
 1.4980	10.1580
 1.4990	10.2250
 1.5000	10.2920
 1.5010	10.3570
 1.5020	10.4240
 1.5030	10.4900
 1.5040	10.5570
 1.5050	10.6230
 1.5060	10.6900
 1.5070	10.7570
 1.5080	10.8250
 1.5090	10.8930
 1.5100	10.9600
 1.5110	11.0260
 1.5120	11.0920
 1.5130	11.1580
 1.5140	11.2240
 1.5150	11.2910
 1.5160	11.3570
 1.5170	11.4220
 1.5180	11.4870
 1.5190	11.5510
 1.5200	11.6150
 1.5210	11.6790
 1.5220	11.7430
 1.5230	11.8080
 1.5240	11.8720
 1.5250	11.9360
 1.5260	11.9990
 1.5270	12.0610
 1.5280	12.1230
 1.5290	12.1840
 1.5300	12.2460
 1.5310	12.3070
 1.5320	12.3670
 1.5330	12.4280
 1.5340	12.4870
 1.5350	12.5460
 1.5360	12.6060
 1.5370	12.6650
 1.5380	12.7240
 1.5390	12.7810
 1.5400	12.8370
 1.5410	12.8940
 1.5420	12.9500
 1.5430	13.0060
 1.5440	13.0620
 1.5450	13.1170
 1.5460	13.1720
 1.5470	13.2270
 1.5480	13.2810
 1.5490	13.3350
 1.5500	13.3880
 1.5510	13.4410
 1.5520	13.4940
 1.5530	13.5470
 1.5540	13.6000
 1.5550	13.6520
 1.5560	13.7030
 1.5570	13.7550
 1.5580	13.8060
 1.5590	13.8570
 1.5600	13.9060
 1.5610	13.9550
 1.5620	14.0030
 1.5630	14.0510
 1.5640	14.0980
 1.5650	14.1450
 1.5660	14.1920
 1.5670	14.2380
 1.5680	14.2850
 1.5690	14.3300
 1.5700	14.3760
 1.5710	14.4210
 1.5720	14.4650
 1.5730	14.5110
 1.5740	14.5560
 1.5750	14.6000
 1.5760	14.6450
 1.5770	14.6880
 1.5780	14.7300
 1.5790	14.7740
 1.5800	14.8180
 1.5810	14.8620
 1.5820	14.9070
 1.5830	14.9490
 1.5840	14.9920
 1.5850	15.0340
 1.5860	15.0760
 1.5870	15.1190
 1.5880	15.1610
 1.5890	15.2040
 1.5900	15.2470
 1.5910	15.2880
 1.5920	15.3300
 1.5930	15.3700
 1.5940	15.4110
 1.5950	15.4510
 1.5960	15.4900
 1.5970	15.5300
 1.5980	15.5690
 1.5990	15.6090
 1.6000	15.6500
 1.6010	15.6890
 1.6020	15.7280
 1.6030	15.7670
 1.6040	15.8040
 1.6050	15.8410
 1.6060	15.8780
 1.6070	15.9130
 1.6080	15.9500
 1.6090	15.9860
 1.6100	16.0210
 1.6110	16.0580
 1.6120	16.0920
 1.6130	16.1260
 1.6140	16.1600
 1.6150	16.1920
 1.6160	16.2250
 1.6170	16.2580
 1.6180	16.2890
 1.6190	16.3210
 1.6200	16.3510
 1.6210	16.3810
 1.6220	16.4110
 1.6230	16.4410
 1.6240	16.4690
 1.6250	16.4970
 1.6260	16.5240
 1.6270	16.5490
 1.6280	16.5750
 1.6290	16.6000
 1.6300	16.6240
 1.6310	16.6470
 1.6320	16.6700
 1.6330	16.6900
 1.6340	16.7090
 1.6350	16.7270
 1.6360	16.7430
 1.6370	16.7580
 1.6380	16.7720
 1.6390	16.7840
 1.6400	16.7940
 1.6410	16.8000
 1.6420	16.8020
 1.6430	16.8040
 1.6440	16.8030
 1.6450	16.8000
 1.6460	16.7980
 1.6470	16.7930
 1.6480	16.7860
 1.6490	16.7770
 1.6500	16.7650
 1.6510	16.7490
 1.6520	16.7320
 1.6530	16.7130
 1.6540	16.6930
 1.6550	16.6730
 1.6560	16.6530
 1.6570	16.6350
 1.6580	16.6170
 1.6590	16.6000
 1.6600	16.5850
 1.6610	16.5730
 1.6620	16.5630
 1.6630	16.5560
 1.6640	16.5520
 1.6650	16.5510
 1.6660	16.5520
 1.6670	16.5570
 1.6680	16.5630
 1.6690	16.5700
 1.6700	16.5790
 1.6710	16.5910
 1.6720	16.6030
 1.6730	16.6160
 1.6740	16.6310
 1.6750	16.6430
 1.6760	16.6530
 1.6770	16.6620
 1.6780	16.6690
 1.6790	16.6750
 1.6800	16.6800
 1.6810	16.6830
 1.6820	16.6830
 1.6830	16.6800
 1.6840	16.6750
 1.6850	16.6700
 1.6860	16.6620
 1.6870	16.6510
 1.6880	16.6410
 1.6890	16.6270
 1.6900	16.6130
 1.6910	16.5960
 1.6920	16.5790
 1.6930	16.5610
 1.6940	16.5400
 1.6950	16.5170
 1.6960	16.4950
 1.6970	16.4690
 1.6980	16.4440
 1.6990	16.4200
 1.7000	16.3940
 1.7010	16.3670
 1.7020	16.3390
 1.7030	16.3100
 1.7040	16.2790
 1.7050	16.2470
 1.7060	16.2140
 1.7070	16.1780
 1.7080	16.1420
 1.7090	16.1050
 1.7100	16.0700
 1.7110	16.0340
 1.7120	15.9980
 1.7130	15.9630
 1.7140	15.9260
 1.7150	15.8900
 1.7160	15.8530
 1.7170	15.8160
 1.7180	15.7770
 1.7190	15.7400
 1.7200	15.7050
 1.7210	15.6690
 1.7220	15.6350
 1.7230	15.6000
 1.7240	15.5640
 1.7250	15.5310
 1.7260	15.5000
 1.7270	15.4700
 1.7280	15.4420
 1.7290	15.4140
 1.7300	15.3840
 1.7310	15.3570
 1.7320	15.3310
 1.7330	15.3060
 1.7340	15.2830
 1.7350	15.2590
 1.7360	15.2340
 1.7370	15.2090
 1.7380	15.1850
 1.7390	15.1580
 1.7400	15.1300
 1.7410	15.1030
 1.7420	15.0730
 1.7430	15.0430
 1.7440	15.0140
 1.7450	14.9820
 1.7460	14.9480
 1.7470	14.9140
 1.7480	14.8800
 1.7490	14.8460
 1.7500	14.8120
 1.7510	14.7790
 1.7520	14.7450
 1.7530	14.7120
 1.7540	14.6790
 1.7550	14.6460
 1.7560	14.6150
 1.7570	14.5830
 1.7580	14.5510
 1.7590	14.5210
 1.7600	14.4910
 1.7610	14.4620
 1.7620	14.4330
 1.7630	14.4040
 1.7640	14.3760
 1.7650	14.3480
 1.7660	14.3230
 1.7670	14.2990
 1.7680	14.2750
 1.7690	14.2520
 1.7700	14.2290
 1.7710	14.2060
 1.7720	14.1840
 1.7730	14.1630
 1.7740	14.1430
 1.7750	14.1230
 1.7760	14.1040
 1.7770	14.0870
 1.7780	14.0690
 1.7790	14.0510
 1.7800	14.0340
 1.7810	14.0170
 1.7820	14.0020
 1.7830	13.9880
 1.7840	13.9760
 1.7850	13.9640
 1.7860	13.9550
 1.7870	13.9470
 1.7880	13.9380
 1.7890	13.9310
 1.7900	13.9260
 1.7910	13.9200
 1.7920	13.9150
 1.7930	13.9110
 1.7940	13.9060
 1.7950	13.9040
 1.7960	13.9050
 1.7970	13.9050
 1.7980	13.9070
 1.7990	13.9080
 1.8000	13.9100
 1.8010	13.9120
 1.8020	13.9160
 1.8030	13.9200
 1.8040	13.9240
 1.8050	13.9290
 1.8060	13.9350
 1.8070	13.9400
 1.8080	13.9450
 1.8090	13.9500
 1.8100	13.9550
 1.8110	13.9590
 1.8120	13.9630
 1.8130	13.9670
 1.8140	13.9720
 1.8150	13.9770
 1.8160	13.9800
 1.8170	13.9800
 1.8180	13.9800
 1.8190	13.9810
 1.8200	13.9820
 1.8210	13.9840
 1.8220	13.9850
 1.8230	13.9870
 1.8240	13.9860
 1.8250	13.9840
 1.8260	13.9820
 1.8270	13.9090
 1.8280	13.8360
 1.8290	13.7630
 1.8300	13.6900
 1.8310	13.6170
 1.8320	13.5440
 1.8330	13.4710
 1.8340	13.3980
 1.8350	13.3980
 1.8360	13.3780
 1.8370	13.3530
 1.8380	13.3280
 1.8390	13.3020
 1.8400	13.2760
 1.8410	13.2450
 1.8420	13.2130
 1.8430	13.1750
 1.8440	13.1310
 1.8450	13.0850
 1.8460	13.0330
 1.8470	12.9790
 1.8480	12.9220
 1.8490	12.8600
 1.8500	12.7910
 1.8510	12.7160
 1.8520	12.6340
 1.8530	12.5420
 1.8540	12.4470
 1.8550	12.3470
 1.8560	12.2400
 1.8570	12.1250
 1.8580	12.0030
 1.8590	11.8740
 1.8600	11.7380
 1.8610	11.5960
 1.8620	11.4450
 1.8630	11.2900
 1.8640	11.1270
 1.8650	10.9540
 1.8660	10.7730
 1.8670	10.5810
 1.8680	10.3800
 1.8690	10.1740
 1.8700	 9.9620
 1.8710	 9.7450
 1.8720	 9.5250
 1.8730	 9.3010
 1.8740	 9.0720
 1.8750	 8.8430
 1.8760	 8.6140
 1.8770	 8.3840
 1.8780	 8.1560
 1.8790	 7.9330
 1.8800	 7.7160
 1.8810	 7.5030
 1.8820	 7.2960
 1.8830	 7.0940
 1.8840	 6.8980
 1.8850	 6.7050
 1.8860	 6.5210
 1.8870	 6.3490
 1.8880	 6.1850
 1.8890	 6.0290
 1.8900	 5.8830
 1.8910	 5.7480
 1.8920	 5.6210
 1.8930	 5.5040
 1.8940	 5.4010
 1.8950	 5.3070
 1.8960	 5.2180
 1.8970	 5.1380
 1.8980	 5.0650
 1.8990	 4.9980
 1.9000	 4.9400
 1.9010	 4.8920
 1.9020	 4.8460
 1.9030	 4.8070
 1.9040	 4.7730
 1.9050	 4.7410
 1.9060	 4.7130
 1.9070	 4.6890
 1.9080	 4.6670
 1.9090	 4.6490
 1.9100	 4.6340
 1.9110	 4.6210
 1.9120	 4.6110
 1.9130	 4.6010
 1.9140	 4.5930
 1.9150	 4.5870
 1.9160	 4.5780
 1.9170	 4.5710
 1.9180	 4.5640
 1.9190	 4.5570
 1.9200	 4.5530
 1.9210	 4.5500
 1.9220	 4.5470
 1.9230	 4.5450
 1.9240	 4.5440
 1.9250	 4.5430
 1.9260	 4.5450
 1.9270	 4.5460
 1.9280	 4.5460
 1.9290	 4.5480
 1.9300	 4.5480
 1.9310	 4.5500
 1.9320	 4.5540
 1.9330	 4.5560
 1.9340	 4.5580
 1.9350	 4.5610
 1.9360	 4.5610
 1.9370	 4.5640
 1.9380	 4.5680
 1.9390	 4.5720
 1.9400	 4.5760
 1.9410	 4.5800
 1.9420	 4.5840
 1.9430	 4.5890
 1.9440	 4.5950
 1.9450	 4.6030
 1.9460	 4.6090
 1.9470	 4.6160
 1.9480	 4.6220
 1.9490	 4.6240
 1.9500	 4.6310
 1.9510	 4.6380
 1.9520	 4.6480
 1.9530	 4.6610
 1.9540	 4.6700
 1.9550	 4.6790
 1.9560	 4.6840
 1.9570	 4.6910
 1.9580	 4.6960
 1.9590	 4.7040
 1.9600	 4.7170
 1.9610	 4.7260
 1.9620	 4.7350
 1.9630	 4.7440
 1.9640	 4.7520
 1.9650	 4.7600
 1.9660	 4.7730
 1.9670	 4.7880
 1.9680	 4.8010
 1.9690	 4.8130
 1.9700	 4.8250
 1.9710	 4.8330
 1.9720	 4.8450
 1.9730	 4.8570
 1.9740	 4.8730
 1.9750	 4.8890
 1.9760	 4.9030
 1.9770	 4.9140
 1.9780	 4.9250
 1.9790	 4.9400
 1.9800	 4.9540
 1.9810	 4.9700
 1.9820	 4.9890
 1.9830	 5.0060
 1.9840	 5.0210
 1.9850	 5.0360
 1.9860	 5.0500
 1.9870	 5.0660
 1.9880	 5.0810
 1.9890	 5.0980
 1.9900	 5.1170
 1.9910	 5.1350
 1.9920	 5.1530
 1.9930	 5.1690
 1.9940	 5.1870
 1.9950	 5.2040
 1.9960	 5.2230
 1.9970	 5.2440
 1.9980	 5.2630
 1.9990	 5.2810
 2.0000	 5.2990
 2.0010	 5.3180
 2.0020	 5.3380
 2.0030	 5.3590
 2.0040	 5.3820
 2.0050	 5.4020
 2.0060	 5.4220
 2.0070	 5.4430
 2.0080	 5.4660
 2.0090	 5.4860
 2.0100	 5.5070
 2.0110	 5.5260
 2.0120	 5.5450
 2.0130	 5.5590
 2.0140	 5.5770
 2.0150	 5.5960
 2.0160	 5.6150
 2.0170	 5.6340
 2.0180	 5.6510
 2.0190	 5.6680
 2.0200	 5.6850
 2.0210	 5.7000
 2.0220	 5.7180
 2.0230	 5.7370
 2.0240	 5.7550
 2.0250	 5.7770
 2.0260	 5.7950
 2.0270	 5.8090
 2.0280	 5.8270
 2.0290	 5.8440
 2.0300	 5.8590
 2.0310	 5.8760
 2.0320	 5.8960
 2.0330	 5.9120
 2.0340	 5.9260
 2.0350	 5.9410
 2.0360	 5.9550
 2.0370	 5.9690
 2.0380	 5.9860
 2.0390	 6.0000
 2.0400	 6.0110
 2.0410	 6.0230
 2.0420	 6.0350
 2.0430	 6.0460
 2.0440	 6.0560
 2.0450	 6.0650
 2.0460	 6.0750
 2.0470	 6.0820
 2.0480	 6.0930
 2.0490	 6.1080
 2.0500	 6.1200
 2.0510	 6.1350
 2.0520	 6.1470
 2.0530	 6.1590
 2.0540	 6.1700
 2.0550	 6.1800
 2.0560	 6.1900
 2.0570	 6.2020
 2.0580	 6.2110
 2.0590	 6.2210
 2.0600	 6.2300
 2.0610	 6.2410
 2.0620	 6.2540
 2.0630	 6.2650
 2.0640	 6.2780
 2.0650	 6.2880
 2.0660	 6.2930
 2.0670	 6.3010
 2.0680	 6.3120
 2.0690	 6.3200
 2.0700	 6.3290
 2.0710	 6.3380
 2.0720	 6.3460
 2.0730	 6.3570
 2.0740	 6.3670
 2.0750	 6.3790
 2.0760	 6.3900
 2.0770	 6.4000
 2.0780	 6.4100
 2.0790	 6.4200
 2.0800	 6.4290
 2.0810	 6.4370
 2.0820	 6.4460
 2.0830	 6.4540
 2.0840	 6.4630
 2.0850	 6.4760
 2.0860	 6.4860
 2.0870	 6.4950
 2.0880	 6.5050
 2.0890	 6.5150
 2.0900	 6.5230
 2.0910	 6.5330
 2.0920	 6.5460
 2.0930	 6.5570
 2.0940	 6.5710
 2.0950	 6.5800
 2.0960	 6.5880
 2.0970	 6.5960
 2.0980	 6.6010
 2.0990	 6.6080
 2.1000	 6.6170
 2.1010	 6.6260
 2.1020	 6.6370
 2.1030	 6.6460
 2.1040	 6.6560
 2.1050	 6.6660
 2.1060	 6.6750
 2.1070	 6.6830
 2.1080	 6.6930
 2.1090	 6.7030
 2.1100	 6.7110
 2.1110	 6.7190
 2.1120	 6.7250
 2.1130	 6.7280
 2.1140	 6.7340
 2.1150	 6.7400
 2.1160	 6.7470
 2.1170	 6.7550
 2.1180	 6.7630
 2.1190	 6.7720
 2.1200	 6.7800
 2.1210	 6.7890
 2.1220	 6.7960
 2.1230	 6.8020
 2.1240	 6.8070
 2.1250	 6.8130
 2.1260	 6.8170
 2.1270	 6.8230
 2.1280	 6.8280
 2.1290	 6.8350
 2.1300	 6.8430
 2.1310	 6.8510
 2.1320	 6.8610
 2.1330	 6.8690
 2.1340	 6.8760
 2.1350	 6.8850
 2.1360	 6.8930
 2.1370	 6.9030
 2.1380	 6.9160
 2.1390	 6.9270
 2.1400	 6.9370
 2.1410	 6.9470
 2.1420	 6.9570
 2.1430	 6.9660
 2.1440	 6.9740
 2.1450	 6.9810
 2.1460	 6.9890
 2.1470	 6.9960
 2.1480	 7.0060
 2.1490	 7.0200
 2.1500	 7.0330
 2.1510	 7.0490
 2.1520	 7.0620
 2.1530	 7.0740
 2.1540	 7.0860
 2.1550	 7.0980
 2.1560	 7.1110
 2.1570	 7.1240
 2.1580	 7.1370
 2.1590	 7.1530
 2.1600	 7.1630
 2.1610	 7.1750
 2.1620	 7.1870
 2.1630	 7.2000
 2.1640	 7.2130
 2.1650	 7.2230
 2.1660	 7.2340
 2.1670	 7.2440
 2.1680	 7.2500
 2.1690	 7.2600
 2.1700	 7.2710
 2.1710	 7.2820
 2.1720	 7.2930
 2.1730	 7.3040
 2.1740	 7.3160
 2.1750	 7.3280
 2.1760	 7.3400
 2.1770	 7.3510
 2.1780	 7.3590
 2.1790	 7.3690
 2.1800	 7.3750
 2.1810	 7.3850
 2.1820	 7.3980
 2.1830	 7.4110
 2.1840	 7.4240
 2.1850	 7.4400
 2.1860	 7.4520
 2.1870	 7.4610
 2.1880	 7.4720
 2.1890	 7.4810
 2.1900	 7.4930
 2.1910	 7.5070
 2.1920	 7.5200
 2.1930	 7.5340
 2.1940	 7.5450
 2.1950	 7.5540
 2.1960	 7.5660
 2.1970	 7.5800
 2.1980	 7.5920
 2.1990	 7.6050
 2.2000	 7.6180
 2.2010	 7.6290
 2.2020	 7.6400
 2.2030	 7.6500
 2.2040	 7.6620
 2.2050	 7.6730
 2.2060	 7.6860
 2.2070	 7.6960
 2.2080	 7.7070
 2.2090	 7.7150
 2.2100	 7.7170
 2.2110	 7.7260
 2.2120	 7.7370
 2.2130	 7.7460
 2.2140	 7.7590
 2.2150	 7.7670
 2.2160	 7.7720
 2.2170	 7.7770
 2.2180	 7.7820
 2.2190	 7.7840
 2.2200	 7.7850
 2.2210	 7.7860
 2.2220	 7.7860
 2.2230	 7.7860
 2.2240	 7.7910
 2.2250	 7.7910
 2.2260	 7.7890
 2.2270	 7.7850
 2.2280	 7.7780
 2.2290	 7.7700
 2.2300	 7.7630
 2.2310	 7.7520
 2.2320	 7.7400
 2.2330	 7.7300
 2.2340	 7.7210
 2.2350	 7.7130
 2.2360	 7.7010
 2.2370	 7.6900
 2.2380	 7.6750
 2.2390	 7.6540
 2.2400	 7.6360
 2.2410	 7.6180
 2.2420	 7.5990
 2.2430	 7.5780
 2.2440	 7.5570
 2.2450	 7.5330
 2.2460	 7.5140
 2.2470	 7.4970
 2.2480	 7.4790
 2.2490	 7.4630
 2.2500	 7.4430
 2.2510	 7.4190
 2.2520	 7.3950
 2.2530	 7.3690
 2.2540	 7.3430
 2.2550	 7.3150
 2.2560	 7.2890
 2.2570	 7.2620
 2.2580	 7.2380
 2.2590	 7.2180
 2.2600	 7.1940
 2.2610	 7.1700
 2.2620	 7.1460
 2.2630	 7.1180
 2.2640	 7.0950
 2.2650	 7.0760
 2.2660	 7.0570
 2.2670	 7.0380
 2.2680	 7.0200
 2.2690	 7.0020
 2.2700	 6.9840
 2.2710	 6.9650
 2.2720	 6.9460
 2.2730	 6.9280
 2.2740	 6.9120
 2.2750	 6.8950
 2.2760	 6.8830
 2.2770	 6.8650
 2.2780	 6.8430
 2.2790	 6.8240
 2.2800	 6.8040
 2.2810	 6.7860
 2.2820	 6.7720
 2.2830	 6.7570
 2.2840	 6.7430
 2.2850	 6.7290
 2.2860	 6.7170
 2.2870	 6.7040
 2.2880	 6.6920
 2.2890	 6.6790
 2.2900	 6.6650
 2.2910	 6.6500
 2.2920	 6.6350
 2.2930	 6.6170
 2.2940	 6.5960
 2.2950	 6.5760
 2.2960	 6.5540
 2.2970	 6.5340
 2.2980	 6.5160
 2.2990	 6.4950
 2.3000	 6.4770
 2.3010	 6.4560
 2.3020	 6.4330
 2.3030	 6.4190
 2.3040	 6.4020
 2.3050	 6.3870
 2.3060	 6.3740
 2.3070	 6.3560
 2.3080	 6.3390
 2.3090	 6.3280
 2.3100	 6.3200
 2.3110	 6.3140
 2.3120	 6.3090
 2.3130	 6.3080
 2.3140	 6.3020
 2.3150	 6.2960
 2.3160	 6.2870
 2.3170	 6.2740
 2.3180	 6.2610
 2.3190	 6.2450
 2.3200	 6.2320
 2.3210	 6.2200
 2.3220	 6.2080
 2.3230	 6.1960
 2.3240	 6.1880
 2.3250	 6.1840
 2.3260	 6.1750
 2.3270	 6.1640
 2.3280	 6.1530
 2.3290	 6.1380
 2.3300	 6.1250
 2.3310	 6.1150
 2.3320	 6.1010
 2.3330	 6.0770
 2.3340	 6.0630
 2.3350	 6.0520
 2.3360	 6.0420
 2.3370	 6.0380
 2.3380	 6.0300
 2.3390	 6.0200
 2.3400	 6.0070
 2.3410	 5.9900
 2.3420	 5.9740
 2.3430	 5.9540
 2.3440	 5.9370
 2.3450	 5.9200
 2.3460	 5.9070
 2.3470	 5.8960
 2.3480	 5.8880
 2.3490	 5.8860
 2.3500	 5.8820
 2.3510	 5.8840
 2.3520	 5.8790
 2.3530	 5.8700
 2.3540	 5.8610
 2.3550	 5.8490
 2.3560	 5.8320
 2.3570	 5.8210
 2.3580	 5.8150
 2.3590	 5.8110
 2.3600	 5.8080
 2.3610	 5.8040
 2.3620	 5.7950
 2.3630	 5.7780
 2.3640	 5.7650
 2.3650	 5.7510
 2.3660	 5.7330
 2.3670	 5.7220
 2.3680	 5.7190
 2.3690	 5.7170
 2.3700	 5.7160
 2.3710	 5.7100
 2.3720	 5.7010
 2.3730	 5.6890
 2.3740	 5.6710
 2.3750	 5.6610
 2.3760	 5.6500
 2.3770	 5.6400
 2.3780	 5.6380
 2.3790	 5.6320
 2.3800	 5.6170
 2.3810	 5.6110
 2.3820	 5.6010
 2.3830	 5.5860
 2.3840	 5.5860
 2.3850	 5.5760
 2.3860	 5.5600
 2.3870	 5.5480
 2.3880	 5.5330
 2.3890	 5.5160
 2.3900	 5.5040
 2.3910	 5.4940
 2.3920	 5.4830
 2.3930	 5.4740
 2.3940	 5.4660
 2.3950	 5.4570
 2.3960	 5.4450
 2.3970	 5.4280
 2.3980	 5.4130
 2.3990	 5.3930
 2.4000	 5.3820
 2.4010	 5.3820
 2.4020	 5.3760
 2.4030	 5.3760
 2.4040	 5.3720
 2.4050	 5.3640
 2.4060	 5.3560
 2.4070	 5.3380
 2.4080	 5.3160
 2.4090	 5.2890
 2.4100	 5.2600
 2.4110	 5.2410
 2.4120	 5.2280
 2.4130	 5.2190
 2.4140	 5.2130
 2.4150	 5.2020
 2.4160	 5.1930
 2.4170	 5.1850
 2.4180	 5.1730
 2.4190	 5.1720
 2.4200	 5.1710
 2.4210	 5.1500
 2.4220	 5.1290
 2.4230	 5.1060
 2.4240	 5.0790
 2.4250	 5.0780
 2.4260	 5.0820
 2.4270	 5.0900
 2.4280	 5.1000
 2.4290	 5.0810
 2.4300	 5.0710
 2.4310	 5.0700
 2.4320	 5.0470
 2.4330	 5.0330
 2.4340	 5.0190
 2.4350	 4.9950
 2.4360	 4.9910
 2.4370	 4.9870
 2.4380	 4.9770
 2.4390	 4.9640
 2.4400	 4.9340
 2.4410	 4.9080
 2.4420	 4.8950
 2.4430	 4.8800
 2.4440	 4.8660
 2.4450	 4.8670
 2.4460	 4.8720
 2.4470	 4.8770
 2.4480	 4.8770
 2.4490	 4.8780
 2.4500	 4.8730
 2.4510	 4.8580
 2.4520	 4.8490
 2.4530	 4.8370
 2.4540	 4.8220
 2.4550	 4.8180
 2.4560	 4.8140
 2.4570	 4.7920
 2.4580	 4.7750
 2.4590	 4.7590
 2.4600	 4.7490
 2.4610	 4.7760
 2.4620	 4.7960
 2.4630	 4.7860
 2.4640	 4.7660
 2.4650	 4.7380
 2.4660	 4.7060
 2.4670	 4.6930
 2.4680	 4.7040
 2.4690	 4.6870
 2.4700	 4.6870
 2.4710	 4.7000
 2.4720	 4.7000
 2.4730	 4.7190
 2.4740	 4.7290
 2.4750	 4.7200
 2.4760	 4.7110
 2.4770	 4.6900
 2.4780	 4.6680
 2.4790	 4.6450
 2.4800	 4.6310
 2.4810	 4.6290
 2.4820	 4.6230
 2.4830	 4.6050
 2.4840	 4.6260
 2.4850	 4.6260
 2.4860	 4.6000
 2.4870	 4.5940
 2.4880	 4.5790
 2.4890	 4.5750
 2.4900	 4.5830
 2.4910	 4.5990
 2.4920	 4.6300
 2.4930	 4.5970
 2.4940	 4.5890
 2.4950	 4.6210
 2.4960	 4.5990
 2.4970	 4.6250
 2.4980	 4.6850
 2.4990	 4.7260
 2.5000	 4.7570
