Name: Abies concolor 3
Type: vegetation
Class: Tree
Genus: Abies
Species: concolor
Sample No.: VH168
Owner: UCSB
Wavelength Range: VSWIR
Origin: 37.0439; -119.3058; WGS84
Collection Date: 6/8/2013
Description: Samples were collected as part of the HyspIRI Airborne Campaign. 48 individual plants were sampled in three times in 2013 - spring  summer  and fall. The name of the sample includes a 1  2  or 3 which references a different individual of the species. Samples were taken to JPL and processed within 48 hours of collection. The same leaves were processed in the Nicolet and then measured using the ASD.
Measurement: Bidirectional reflectance
First Column: X
Second Column: Y
X Units: Wavelength (micrometers)
Y Units: Reflectance (percentage)
First X Value: 0.35
Last X Value: 2.5
Number of X Values: 2151
Additional Information: vegetation.tree.abies.concolor.vswir.vh168.ucsb.asd.ancillary.txt

 0.3500	 5.1560
 0.3510	 4.9840
 0.3520	 4.9360
 0.3530	 4.8930
 0.3540	 4.8030
 0.3550	 5.0340
 0.3560	 5.1330
 0.3570	 5.0030
 0.3580	 4.7940
 0.3590	 4.8690
 0.3600	 4.9220
 0.3610	 4.8380
 0.3620	 4.8730
 0.3630	 4.9280
 0.3640	 4.8650
 0.3650	 4.6630
 0.3660	 4.7650
 0.3670	 4.8720
 0.3680	 4.8840
 0.3690	 4.8540
 0.3700	 4.7590
 0.3710	 4.7430
 0.3720	 4.8450
 0.3730	 4.8340
 0.3740	 4.7820
 0.3750	 4.7400
 0.3760	 4.7330
 0.3770	 4.6860
 0.3780	 4.6760
 0.3790	 4.7070
 0.3800	 4.7050
 0.3810	 4.7360
 0.3820	 4.7670
 0.3830	 4.7760
 0.3840	 4.7600
 0.3850	 4.7460
 0.3860	 4.7470
 0.3870	 4.7730
 0.3880	 4.7910
 0.3890	 4.8110
 0.3900	 4.8200
 0.3910	 4.7670
 0.3920	 4.7810
 0.3930	 4.7980
 0.3940	 4.7610
 0.3950	 4.7280
 0.3960	 4.7220
 0.3970	 4.7440
 0.3980	 4.7730
 0.3990	 4.8170
 0.4000	 4.8120
 0.4010	 4.7670
 0.4020	 4.7780
 0.4030	 4.8240
 0.4040	 4.8740
 0.4050	 4.9010
 0.4060	 4.8790
 0.4070	 4.8650
 0.4080	 4.8900
 0.4090	 4.9590
 0.4100	 5.0020
 0.4110	 5.0210
 0.4120	 5.0410
 0.4130	 5.1040
 0.4140	 5.1550
 0.4150	 5.1980
 0.4160	 5.2520
 0.4170	 5.2660
 0.4180	 5.2910
 0.4190	 5.3370
 0.4200	 5.3800
 0.4210	 5.4420
 0.4220	 5.4980
 0.4230	 5.5310
 0.4240	 5.5730
 0.4250	 5.6260
 0.4260	 5.6810
 0.4270	 5.7200
 0.4280	 5.7660
 0.4290	 5.8070
 0.4300	 5.8470
 0.4310	 5.8970
 0.4320	 5.9500
 0.4330	 6.0000
 0.4340	 6.0440
 0.4350	 6.0800
 0.4360	 6.1090
 0.4370	 6.1400
 0.4380	 6.1860
 0.4390	 6.2200
 0.4400	 6.2460
 0.4410	 6.2760
 0.4420	 6.3170
 0.4430	 6.3440
 0.4440	 6.3700
 0.4450	 6.4100
 0.4460	 6.4260
 0.4470	 6.4550
 0.4480	 6.5020
 0.4490	 6.5260
 0.4500	 6.5460
 0.4510	 6.5660
 0.4520	 6.5900
 0.4530	 6.6130
 0.4540	 6.6330
 0.4550	 6.6450
 0.4560	 6.6550
 0.4570	 6.6750
 0.4580	 6.6940
 0.4590	 6.7050
 0.4600	 6.7000
 0.4610	 6.7100
 0.4620	 6.7240
 0.4630	 6.7150
 0.4640	 6.7230
 0.4650	 6.7330
 0.4660	 6.7430
 0.4670	 6.7470
 0.4680	 6.7430
 0.4690	 6.7410
 0.4700	 6.7490
 0.4710	 6.7460
 0.4720	 6.7430
 0.4730	 6.7440
 0.4740	 6.7550
 0.4750	 6.7600
 0.4760	 6.7660
 0.4770	 6.7710
 0.4780	 6.7640
 0.4790	 6.7620
 0.4800	 6.7620
 0.4810	 6.7640
 0.4820	 6.7610
 0.4830	 6.7680
 0.4840	 6.7790
 0.4850	 6.7800
 0.4860	 6.7910
 0.4870	 6.8070
 0.4880	 6.8220
 0.4890	 6.8260
 0.4900	 6.8360
 0.4910	 6.8550
 0.4920	 6.8810
 0.4930	 6.9050
 0.4940	 6.9320
 0.4950	 6.9590
 0.4960	 6.9940
 0.4970	 7.0360
 0.4980	 7.0830
 0.4990	 7.1310
 0.5000	 7.1870
 0.5010	 7.2440
 0.5020	 7.3070
 0.5030	 7.3840
 0.5040	 7.4650
 0.5050	 7.5550
 0.5060	 7.6570
 0.5070	 7.7650
 0.5080	 7.8750
 0.5090	 7.9920
 0.5100	 8.1310
 0.5110	 8.2830
 0.5120	 8.4410
 0.5130	 8.6090
 0.5140	 8.7880
 0.5150	 8.9820
 0.5160	 9.1890
 0.5170	 9.4050
 0.5180	 9.6190
 0.5190	 9.8410
 0.5200	10.0680
 0.5210	10.3000
 0.5220	10.5300
 0.5230	10.7570
 0.5240	10.9790
 0.5250	11.1820
 0.5260	11.3810
 0.5270	11.5730
 0.5280	11.7490
 0.5290	11.9110
 0.5300	12.0550
 0.5310	12.1840
 0.5320	12.3050
 0.5330	12.4130
 0.5340	12.5120
 0.5350	12.6050
 0.5360	12.6820
 0.5370	12.7470
 0.5380	12.8050
 0.5390	12.8610
 0.5400	12.9130
 0.5410	12.9590
 0.5420	13.0010
 0.5430	13.0500
 0.5440	13.0940
 0.5450	13.1380
 0.5460	13.1880
 0.5470	13.2320
 0.5480	13.2710
 0.5490	13.3050
 0.5500	13.3330
 0.5510	13.3540
 0.5520	13.3670
 0.5530	13.3680
 0.5540	13.3510
 0.5550	13.3200
 0.5560	13.2770
 0.5570	13.2220
 0.5580	13.1460
 0.5590	13.0560
 0.5600	12.9590
 0.5610	12.8580
 0.5620	12.7530
 0.5630	12.6410
 0.5640	12.5200
 0.5650	12.3930
 0.5660	12.2620
 0.5670	12.1300
 0.5680	11.9910
 0.5690	11.8440
 0.5700	11.6980
 0.5710	11.5560
 0.5720	11.4120
 0.5730	11.2750
 0.5740	11.1510
 0.5750	11.0370
 0.5760	10.9310
 0.5770	10.8290
 0.5780	10.7340
 0.5790	10.6400
 0.5800	10.5470
 0.5810	10.4640
 0.5820	10.3880
 0.5830	10.3180
 0.5840	10.2480
 0.5850	10.1770
 0.5860	10.1130
 0.5870	10.0540
 0.5880	 9.9970
 0.5890	 9.9390
 0.5900	 9.8880
 0.5910	 9.8510
 0.5920	 9.8260
 0.5930	 9.7980
 0.5940	 9.7720
 0.5950	 9.7430
 0.5960	 9.7110
 0.5970	 9.6860
 0.5980	 9.6610
 0.5990	 9.6330
 0.6000	 9.6040
 0.6010	 9.5700
 0.6020	 9.5340
 0.6030	 9.4960
 0.6040	 9.4560
 0.6050	 9.4040
 0.6060	 9.3470
 0.6070	 9.2850
 0.6080	 9.2140
 0.6090	 9.1450
 0.6100	 9.0770
 0.6110	 9.0080
 0.6120	 8.9360
 0.6130	 8.8620
 0.6140	 8.7880
 0.6150	 8.7220
 0.6160	 8.6570
 0.6170	 8.5960
 0.6180	 8.5410
 0.6190	 8.4920
 0.6200	 8.4440
 0.6210	 8.4020
 0.6220	 8.3710
 0.6230	 8.3410
 0.6240	 8.3180
 0.6250	 8.2940
 0.6260	 8.2760
 0.6270	 8.2640
 0.6280	 8.2540
 0.6290	 8.2430
 0.6300	 8.2330
 0.6310	 8.2240
 0.6320	 8.2140
 0.6330	 8.1940
 0.6340	 8.1720
 0.6350	 8.1440
 0.6360	 8.1030
 0.6370	 8.0520
 0.6380	 7.9990
 0.6390	 7.9440
 0.6400	 7.8840
 0.6410	 7.8130
 0.6420	 7.7430
 0.6430	 7.6730
 0.6440	 7.5980
 0.6450	 7.5240
 0.6460	 7.4520
 0.6470	 7.3860
 0.6480	 7.3180
 0.6490	 7.2610
 0.6500	 7.2170
 0.6510	 7.1730
 0.6520	 7.1350
 0.6530	 7.0990
 0.6540	 7.0620
 0.6550	 7.0240
 0.6560	 6.9800
 0.6570	 6.9310
 0.6580	 6.8810
 0.6590	 6.8220
 0.6600	 6.7610
 0.6610	 6.6960
 0.6620	 6.6310
 0.6630	 6.5730
 0.6640	 6.5180
 0.6650	 6.4660
 0.6660	 6.4170
 0.6670	 6.3790
 0.6680	 6.3500
 0.6690	 6.3210
 0.6700	 6.2990
 0.6710	 6.2840
 0.6720	 6.2770
 0.6730	 6.2680
 0.6740	 6.2690
 0.6750	 6.2760
 0.6760	 6.2790
 0.6770	 6.2880
 0.6780	 6.3040
 0.6790	 6.3270
 0.6800	 6.3590
 0.6810	 6.3950
 0.6820	 6.4420
 0.6830	 6.5040
 0.6840	 6.5780
 0.6850	 6.6690
 0.6860	 6.7850
 0.6870	 6.9290
 0.6880	 7.1090
 0.6890	 7.3230
 0.6900	 7.5820
 0.6910	 7.8960
 0.6920	 8.2640
 0.6930	 8.6900
 0.6940	 9.1740
 0.6950	 9.7140
 0.6960	10.3150
 0.6970	10.9720
 0.6980	11.6780
 0.6990	12.4290
 0.7000	13.2140
 0.7010	14.0280
 0.7020	14.8660
 0.7030	15.7180
 0.7040	16.5840
 0.7050	17.4620
 0.7060	18.3480
 0.7070	19.2420
 0.7080	20.1420
 0.7090	21.0500
 0.7100	21.9700
 0.7110	22.9030
 0.7120	23.8480
 0.7130	24.8040
 0.7140	25.7730
 0.7150	26.7550
 0.7160	27.7450
 0.7170	28.7490
 0.7180	29.7640
 0.7190	30.7880
 0.7200	31.8160
 0.7210	32.8510
 0.7220	33.8920
 0.7230	34.9330
 0.7240	35.9650
 0.7250	36.9900
 0.7260	38.0080
 0.7270	39.0140
 0.7280	40.0000
 0.7290	40.9680
 0.7300	41.9180
 0.7310	42.8420
 0.7320	43.7400
 0.7330	44.6100
 0.7340	45.4530
 0.7350	46.2710
 0.7360	47.0590
 0.7370	47.8140
 0.7380	48.5340
 0.7390	49.2230
 0.7400	49.8840
 0.7410	50.5130
 0.7420	51.1070
 0.7430	51.6690
 0.7440	52.2010
 0.7450	52.7020
 0.7460	53.1670
 0.7470	53.6010
 0.7480	54.0060
 0.7490	54.3840
 0.7500	54.7330
 0.7510	55.0580
 0.7520	55.3570
 0.7530	55.6320
 0.7540	55.8840
 0.7550	56.1110
 0.7560	56.3190
 0.7570	56.5140
 0.7580	56.6900
 0.7590	56.8530
 0.7600	57.0040
 0.7610	57.1420
 0.7620	57.2650
 0.7630	57.3750
 0.7640	57.4730
 0.7650	57.5710
 0.7660	57.6610
 0.7670	57.7410
 0.7680	57.8110
 0.7690	57.8800
 0.7700	57.9450
 0.7710	58.0050
 0.7720	58.0570
 0.7730	58.1050
 0.7740	58.1500
 0.7750	58.1950
 0.7760	58.2380
 0.7770	58.2800
 0.7780	58.3190
 0.7790	58.3540
 0.7800	58.3860
 0.7810	58.4180
 0.7820	58.4520
 0.7830	58.4820
 0.7840	58.5160
 0.7850	58.5480
 0.7860	58.5740
 0.7870	58.5960
 0.7880	58.6230
 0.7890	58.6540
 0.7900	58.6820
 0.7910	58.7010
 0.7920	58.7210
 0.7930	58.7420
 0.7940	58.7600
 0.7950	58.7860
 0.7960	58.8110
 0.7970	58.8280
 0.7980	58.8410
 0.7990	58.8560
 0.8000	58.8750
 0.8010	58.8940
 0.8020	58.9090
 0.8030	58.9200
 0.8040	58.9300
 0.8050	58.9420
 0.8060	58.9570
 0.8070	58.9730
 0.8080	58.9860
 0.8090	58.9890
 0.8100	58.9970
 0.8110	59.0100
 0.8120	59.0220
 0.8130	59.0300
 0.8140	59.0410
 0.8150	59.0500
 0.8160	59.0530
 0.8170	59.0660
 0.8180	59.0800
 0.8190	59.0900
 0.8200	59.0970
 0.8210	59.1070
 0.8220	59.1150
 0.8230	59.1180
 0.8240	59.1200
 0.8250	59.1270
 0.8260	59.1360
 0.8270	59.1400
 0.8280	59.1350
 0.8290	59.1330
 0.8300	59.1330
 0.8310	59.1300
 0.8320	59.1320
 0.8330	59.1380
 0.8340	59.1420
 0.8350	59.1460
 0.8360	59.1550
 0.8370	59.1670
 0.8380	59.1820
 0.8390	59.1950
 0.8400	59.2080
 0.8410	59.2190
 0.8420	59.2320
 0.8430	59.2610
 0.8440	59.2830
 0.8450	59.2990
 0.8460	59.3160
 0.8470	59.3350
 0.8480	59.3560
 0.8490	59.3750
 0.8500	59.3890
 0.8510	59.4040
 0.8520	59.4210
 0.8530	59.4410
 0.8540	59.4620
 0.8550	59.4810
 0.8560	59.4960
 0.8570	59.5070
 0.8580	59.5180
 0.8590	59.5360
 0.8600	59.5550
 0.8610	59.5710
 0.8620	59.5830
 0.8630	59.5930
 0.8640	59.6060
 0.8650	59.6230
 0.8660	59.6340
 0.8670	59.6440
 0.8680	59.6540
 0.8690	59.6640
 0.8700	59.6750
 0.8710	59.6790
 0.8720	59.6810
 0.8730	59.6970
 0.8740	59.7100
 0.8750	59.7150
 0.8760	59.7190
 0.8770	59.7330
 0.8780	59.7350
 0.8790	59.7360
 0.8800	59.7450
 0.8810	59.7570
 0.8820	59.7550
 0.8830	59.7510
 0.8840	59.7530
 0.8850	59.7500
 0.8860	59.7490
 0.8870	59.7500
 0.8880	59.7460
 0.8890	59.7430
 0.8900	59.7330
 0.8910	59.7260
 0.8920	59.7330
 0.8930	59.7280
 0.8940	59.7130
 0.8950	59.6980
 0.8960	59.6920
 0.8970	59.6960
 0.8980	59.6890
 0.8990	59.6740
 0.9000	59.6730
 0.9010	59.6570
 0.9020	59.6410
 0.9030	59.6340
 0.9040	59.6250
 0.9050	59.6120
 0.9060	59.5950
 0.9070	59.5780
 0.9080	59.5680
 0.9090	59.5510
 0.9100	59.5340
 0.9110	59.5230
 0.9120	59.5050
 0.9130	59.4870
 0.9140	59.4730
 0.9150	59.4600
 0.9160	59.4390
 0.9170	59.4100
 0.9180	59.3820
 0.9190	59.3650
 0.9200	59.3480
 0.9210	59.3110
 0.9220	59.2650
 0.9230	59.2330
 0.9240	59.2000
 0.9250	59.1530
 0.9260	59.0920
 0.9270	59.0310
 0.9280	58.9690
 0.9290	58.9080
 0.9300	58.8460
 0.9310	58.7770
 0.9320	58.6970
 0.9330	58.6140
 0.9340	58.5330
 0.9350	58.4480
 0.9360	58.3540
 0.9370	58.2610
 0.9380	58.1710
 0.9390	58.0710
 0.9400	57.9700
 0.9410	57.8610
 0.9420	57.7380
 0.9430	57.6080
 0.9440	57.4790
 0.9450	57.3430
 0.9460	57.1950
 0.9470	57.0250
 0.9480	56.8640
 0.9490	56.6880
 0.9500	56.4800
 0.9510	56.2760
 0.9520	56.0620
 0.9530	55.8350
 0.9540	55.5990
 0.9550	55.3820
 0.9560	55.1800
 0.9570	54.9840
 0.9580	54.7880
 0.9590	54.6020
 0.9600	54.4430
 0.9610	54.3070
 0.9620	54.1790
 0.9630	54.0630
 0.9640	53.9510
 0.9650	53.8630
 0.9660	53.8090
 0.9670	53.7490
 0.9680	53.6900
 0.9690	53.6310
 0.9700	53.5720
 0.9710	53.5260
 0.9720	53.4900
 0.9730	53.4640
 0.9740	53.4440
 0.9750	53.4110
 0.9760	53.3910
 0.9770	53.3820
 0.9780	53.3760
 0.9790	53.3880
 0.9800	53.3840
 0.9810	53.3850
 0.9820	53.4240
 0.9830	53.4350
 0.9840	53.4630
 0.9850	53.5070
 0.9860	53.5490
 0.9870	53.5940
 0.9880	53.6390
 0.9890	53.6820
 0.9900	53.7230
 0.9910	53.7870
 0.9920	53.8540
 0.9930	53.9180
 0.9940	53.9830
 0.9950	54.0540
 0.9960	54.1290
 0.9970	54.2100
 0.9980	54.2970
 0.9990	54.3580
 1.0000	54.5810
 1.0010	54.8950
 1.0020	55.1320
 1.0030	55.2160
 1.0040	55.3000
 1.0050	55.3860
 1.0060	55.4770
 1.0070	55.5700
 1.0080	55.6590
 1.0090	55.7490
 1.0100	55.8380
 1.0110	55.9240
 1.0120	56.0130
 1.0130	56.1060
 1.0140	56.1950
 1.0150	56.2830
 1.0160	56.3730
 1.0170	56.4610
 1.0180	56.5500
 1.0190	56.6420
 1.0200	56.7360
 1.0210	56.8290
 1.0220	56.9190
 1.0230	57.0090
 1.0240	57.0980
 1.0250	57.1860
 1.0260	57.2750
 1.0270	57.3610
 1.0280	57.4450
 1.0290	57.5250
 1.0300	57.5990
 1.0310	57.6780
 1.0320	57.7580
 1.0330	57.8380
 1.0340	57.9120
 1.0350	57.9850
 1.0360	58.0570
 1.0370	58.1290
 1.0380	58.2000
 1.0390	58.2770
 1.0400	58.3450
 1.0410	58.4060
 1.0420	58.4670
 1.0430	58.5240
 1.0440	58.5830
 1.0450	58.6420
 1.0460	58.7000
 1.0470	58.7610
 1.0480	58.8170
 1.0490	58.8690
 1.0500	58.9220
 1.0510	58.9760
 1.0520	59.0270
 1.0530	59.0730
 1.0540	59.1180
 1.0550	59.1570
 1.0560	59.1870
 1.0570	59.2210
 1.0580	59.2510
 1.0590	59.2850
 1.0600	59.3210
 1.0610	59.3520
 1.0620	59.3800
 1.0630	59.4100
 1.0640	59.4400
 1.0650	59.4640
 1.0660	59.4890
 1.0670	59.5090
 1.0680	59.5250
 1.0690	59.5320
 1.0700	59.5450
 1.0710	59.5580
 1.0720	59.5660
 1.0730	59.5750
 1.0740	59.5790
 1.0750	59.5770
 1.0760	59.5770
 1.0770	59.5750
 1.0780	59.5730
 1.0790	59.5730
 1.0800	59.5670
 1.0810	59.5590
 1.0820	59.5480
 1.0830	59.5310
 1.0840	59.5130
 1.0850	59.4950
 1.0860	59.4730
 1.0870	59.4510
 1.0880	59.4290
 1.0890	59.4030
 1.0900	59.3750
 1.0910	59.3460
 1.0920	59.3150
 1.0930	59.2810
 1.0940	59.2440
 1.0950	59.2060
 1.0960	59.1650
 1.0970	59.1240
 1.0980	59.0840
 1.0990	59.0410
 1.1000	58.9950
 1.1010	58.9500
 1.1020	58.9060
 1.1030	58.8570
 1.1040	58.8020
 1.1050	58.7510
 1.1060	58.6980
 1.1070	58.6440
 1.1080	58.5890
 1.1090	58.5360
 1.1100	58.4760
 1.1110	58.4090
 1.1120	58.3420
 1.1130	58.2730
 1.1140	58.1990
 1.1150	58.1240
 1.1160	58.0410
 1.1170	57.9550
 1.1180	57.8590
 1.1190	57.7550
 1.1200	57.6440
 1.1210	57.5240
 1.1220	57.3950
 1.1230	57.2540
 1.1240	57.0980
 1.1250	56.9250
 1.1260	56.7390
 1.1270	56.5320
 1.1280	56.3080
 1.1290	56.0660
 1.1300	55.8090
 1.1310	55.5250
 1.1320	55.2190
 1.1330	54.8950
 1.1340	54.5450
 1.1350	54.1820
 1.1360	53.8020
 1.1370	53.4070
 1.1380	52.9950
 1.1390	52.5740
 1.1400	52.1420
 1.1410	51.7110
 1.1420	51.2790
 1.1430	50.8490
 1.1440	50.4280
 1.1450	50.0070
 1.1460	49.6050
 1.1470	49.2080
 1.1480	48.8350
 1.1490	48.4750
 1.1500	48.1410
 1.1510	47.8240
 1.1520	47.5320
 1.1530	47.2640
 1.1540	47.0160
 1.1550	46.7880
 1.1560	46.5810
 1.1570	46.3920
 1.1580	46.2230
 1.1590	46.0710
 1.1600	45.9340
 1.1610	45.8130
 1.1620	45.7040
 1.1630	45.6060
 1.1640	45.5200
 1.1650	45.4400
 1.1660	45.3690
 1.1670	45.3020
 1.1680	45.2420
 1.1690	45.1840
 1.1700	45.1360
 1.1710	45.0850
 1.1720	45.0370
 1.1730	44.9880
 1.1740	44.9410
 1.1750	44.8920
 1.1760	44.8430
 1.1770	44.7940
 1.1780	44.7420
 1.1790	44.6890
 1.1800	44.6320
 1.1810	44.5730
 1.1820	44.5120
 1.1830	44.4520
 1.1840	44.3960
 1.1850	44.3430
 1.1860	44.2920
 1.1870	44.2420
 1.1880	44.1940
 1.1890	44.1460
 1.1900	44.1040
 1.1910	44.0630
 1.1920	44.0290
 1.1930	43.9970
 1.1940	43.9720
 1.1950	43.9530
 1.1960	43.9370
 1.1970	43.9250
 1.1980	43.9200
 1.1990	43.9190
 1.2000	43.9210
 1.2010	43.9290
 1.2020	43.9420
 1.2030	43.9570
 1.2040	43.9780
 1.2050	44.0050
 1.2060	44.0340
 1.2070	44.0710
 1.2080	44.1120
 1.2090	44.1540
 1.2100	44.2010
 1.2110	44.2530
 1.2120	44.3080
 1.2130	44.3690
 1.2140	44.4360
 1.2150	44.5060
 1.2160	44.5790
 1.2170	44.6540
 1.2180	44.7320
 1.2190	44.8120
 1.2200	44.8930
 1.2210	44.9770
 1.2220	45.0620
 1.2230	45.1460
 1.2240	45.2300
 1.2250	45.3150
 1.2260	45.4000
 1.2270	45.4860
 1.2280	45.5690
 1.2290	45.6510
 1.2300	45.7270
 1.2310	45.8010
 1.2320	45.8730
 1.2330	45.9440
 1.2340	46.0140
 1.2350	46.0840
 1.2360	46.1510
 1.2370	46.2180
 1.2380	46.2820
 1.2390	46.3440
 1.2400	46.4030
 1.2410	46.4620
 1.2420	46.5200
 1.2430	46.5750
 1.2440	46.6310
 1.2450	46.6860
 1.2460	46.7350
 1.2470	46.7820
 1.2480	46.8280
 1.2490	46.8730
 1.2500	46.9160
 1.2510	46.9580
 1.2520	46.9960
 1.2530	47.0320
 1.2540	47.0670
 1.2550	47.1010
 1.2560	47.1340
 1.2570	47.1640
 1.2580	47.1910
 1.2590	47.2160
 1.2600	47.2390
 1.2610	47.2600
 1.2620	47.2780
 1.2630	47.2960
 1.2640	47.3080
 1.2650	47.3170
 1.2660	47.3260
 1.2670	47.3290
 1.2680	47.3320
 1.2690	47.3320
 1.2700	47.3250
 1.2710	47.3200
 1.2720	47.3120
 1.2730	47.3000
 1.2740	47.2890
 1.2750	47.2710
 1.2760	47.2490
 1.2770	47.2240
 1.2780	47.1970
 1.2790	47.1670
 1.2800	47.1330
 1.2810	47.1000
 1.2820	47.0620
 1.2830	47.0160
 1.2840	46.9690
 1.2850	46.9160
 1.2860	46.8590
 1.2870	46.7980
 1.2880	46.7340
 1.2890	46.6660
 1.2900	46.5930
 1.2910	46.5140
 1.2920	46.4310
 1.2930	46.3430
 1.2940	46.2480
 1.2950	46.1460
 1.2960	46.0400
 1.2970	45.9290
 1.2980	45.8120
 1.2990	45.6900
 1.3000	45.5650
 1.3010	45.4330
 1.3020	45.2950
 1.3030	45.1540
 1.3040	45.0050
 1.3050	44.8490
 1.3060	44.6890
 1.3070	44.5190
 1.3080	44.3470
 1.3090	44.1680
 1.3100	43.9810
 1.3110	43.7910
 1.3120	43.5920
 1.3130	43.3880
 1.3140	43.1790
 1.3150	42.9660
 1.3160	42.7470
 1.3170	42.5240
 1.3180	42.2980
 1.3190	42.0650
 1.3200	41.8250
 1.3210	41.5790
 1.3220	41.3280
 1.3230	41.0730
 1.3240	40.8150
 1.3250	40.5560
 1.3260	40.2950
 1.3270	40.0300
 1.3280	39.7640
 1.3290	39.4940
 1.3300	39.2230
 1.3310	38.9530
 1.3320	38.6800
 1.3330	38.4100
 1.3340	38.1430
 1.3350	37.8730
 1.3360	37.6080
 1.3370	37.3420
 1.3380	37.0770
 1.3390	36.8180
 1.3400	36.5600
 1.3410	36.3110
 1.3420	36.0670
 1.3430	35.8260
 1.3440	35.5910
 1.3450	35.3590
 1.3460	35.1280
 1.3470	34.9050
 1.3480	34.6850
 1.3490	34.4700
 1.3500	34.2610
 1.3510	34.0540
 1.3520	33.8490
 1.3530	33.6480
 1.3540	33.4460
 1.3550	33.2470
 1.3560	33.0490
 1.3570	32.8510
 1.3580	32.6510
 1.3590	32.4500
 1.3600	32.2430
 1.3610	32.0350
 1.3620	31.8210
 1.3630	31.5990
 1.3640	31.3700
 1.3650	31.1300
 1.3660	30.8820
 1.3670	30.6250
 1.3680	30.3540
 1.3690	30.0720
 1.3700	29.7730
 1.3710	29.4600
 1.3720	29.1330
 1.3730	28.7860
 1.3740	28.4260
 1.3750	28.0460
 1.3760	27.6440
 1.3770	27.2220
 1.3780	26.7740
 1.3790	26.3050
 1.3800	25.8200
 1.3810	25.3100
 1.3820	24.7890
 1.3830	24.2520
 1.3840	23.7040
 1.3850	23.1390
 1.3860	22.5730
 1.3870	21.9910
 1.3880	21.4180
 1.3890	20.8430
 1.3900	20.2680
 1.3910	19.7060
 1.3920	19.1490
 1.3930	18.5980
 1.3940	18.0620
 1.3950	17.5330
 1.3960	17.0210
 1.3970	16.5290
 1.3980	16.0540
 1.3990	15.6050
 1.4000	15.1750
 1.4010	14.7640
 1.4020	14.3760
 1.4030	14.0050
 1.4040	13.6550
 1.4050	13.3270
 1.4060	13.0180
 1.4070	12.7320
 1.4080	12.4640
 1.4090	12.2130
 1.4100	11.9800
 1.4110	11.7630
 1.4120	11.5610
 1.4130	11.3730
 1.4140	11.1990
 1.4150	11.0390
 1.4160	10.8920
 1.4170	10.7550
 1.4180	10.6300
 1.4190	10.5110
 1.4200	10.4020
 1.4210	10.3020
 1.4220	10.2080
 1.4230	10.1240
 1.4240	10.0440
 1.4250	 9.9720
 1.4260	 9.9070
 1.4270	 9.8460
 1.4280	 9.7880
 1.4290	 9.7370
 1.4300	 9.6900
 1.4310	 9.6470
 1.4320	 9.6120
 1.4330	 9.5780
 1.4340	 9.5470
 1.4350	 9.5210
 1.4360	 9.4960
 1.4370	 9.4760
 1.4380	 9.4580
 1.4390	 9.4440
 1.4400	 9.4310
 1.4410	 9.4220
 1.4420	 9.4140
 1.4430	 9.4080
 1.4440	 9.4050
 1.4450	 9.4020
 1.4460	 9.4010
 1.4470	 9.4020
 1.4480	 9.4060
 1.4490	 9.4100
 1.4500	 9.4150
 1.4510	 9.4220
 1.4520	 9.4290
 1.4530	 9.4360
 1.4540	 9.4440
 1.4550	 9.4560
 1.4560	 9.4660
 1.4570	 9.4810
 1.4580	 9.4980
 1.4590	 9.5160
 1.4600	 9.5360
 1.4610	 9.5600
 1.4620	 9.5870
 1.4630	 9.6160
 1.4640	 9.6460
 1.4650	 9.6800
 1.4660	 9.7150
 1.4670	 9.7540
 1.4680	 9.7990
 1.4690	 9.8460
 1.4700	 9.8950
 1.4710	 9.9480
 1.4720	10.0030
 1.4730	10.0600
 1.4740	10.1210
 1.4750	10.1840
 1.4760	10.2460
 1.4770	10.3120
 1.4780	10.3790
 1.4790	10.4500
 1.4800	10.5210
 1.4810	10.5960
 1.4820	10.6700
 1.4830	10.7470
 1.4840	10.8260
 1.4850	10.9050
 1.4860	10.9850
 1.4870	11.0660
 1.4880	11.1480
 1.4890	11.2310
 1.4900	11.3140
 1.4910	11.3990
 1.4920	11.4850
 1.4930	11.5740
 1.4940	11.6600
 1.4950	11.7500
 1.4960	11.8390
 1.4970	11.9270
 1.4980	12.0170
 1.4990	12.1070
 1.5000	12.1990
 1.5010	12.2920
 1.5020	12.3840
 1.5030	12.4780
 1.5040	12.5710
 1.5050	12.6640
 1.5060	12.7580
 1.5070	12.8530
 1.5080	12.9470
 1.5090	13.0410
 1.5100	13.1360
 1.5110	13.2300
 1.5120	13.3260
 1.5130	13.4220
 1.5140	13.5180
 1.5150	13.6140
 1.5160	13.7070
 1.5170	13.8000
 1.5180	13.8940
 1.5190	13.9860
 1.5200	14.0810
 1.5210	14.1760
 1.5220	14.2690
 1.5230	14.3630
 1.5240	14.4550
 1.5250	14.5460
 1.5260	14.6380
 1.5270	14.7300
 1.5280	14.8200
 1.5290	14.9110
 1.5300	15.0020
 1.5310	15.0920
 1.5320	15.1820
 1.5330	15.2710
 1.5340	15.3600
 1.5350	15.4480
 1.5360	15.5370
 1.5370	15.6240
 1.5380	15.7110
 1.5390	15.7980
 1.5400	15.8840
 1.5410	15.9710
 1.5420	16.0570
 1.5430	16.1420
 1.5440	16.2280
 1.5450	16.3120
 1.5460	16.3960
 1.5470	16.4810
 1.5480	16.5640
 1.5490	16.6490
 1.5500	16.7330
 1.5510	16.8160
 1.5520	16.8980
 1.5530	16.9800
 1.5540	17.0610
 1.5550	17.1420
 1.5560	17.2220
 1.5570	17.3020
 1.5580	17.3810
 1.5590	17.4600
 1.5600	17.5400
 1.5610	17.6180
 1.5620	17.6960
 1.5630	17.7740
 1.5640	17.8500
 1.5650	17.9270
 1.5660	18.0030
 1.5670	18.0780
 1.5680	18.1540
 1.5690	18.2280
 1.5700	18.3020
 1.5710	18.3750
 1.5720	18.4490
 1.5730	18.5230
 1.5740	18.5940
 1.5750	18.6670
 1.5760	18.7390
 1.5770	18.8090
 1.5780	18.8810
 1.5790	18.9530
 1.5800	19.0240
 1.5810	19.0960
 1.5820	19.1660
 1.5830	19.2360
 1.5840	19.3060
 1.5850	19.3760
 1.5860	19.4460
 1.5870	19.5160
 1.5880	19.5850
 1.5890	19.6550
 1.5900	19.7270
 1.5910	19.7970
 1.5920	19.8670
 1.5930	19.9360
 1.5940	20.0030
 1.5950	20.0730
 1.5960	20.1420
 1.5970	20.2120
 1.5980	20.2820
 1.5990	20.3500
 1.6000	20.4170
 1.6010	20.4840
 1.6020	20.5520
 1.6030	20.6200
 1.6040	20.6880
 1.6050	20.7560
 1.6060	20.8230
 1.6070	20.8900
 1.6080	20.9560
 1.6090	21.0200
 1.6100	21.0850
 1.6110	21.1490
 1.6120	21.2120
 1.6130	21.2750
 1.6140	21.3350
 1.6150	21.3940
 1.6160	21.4530
 1.6170	21.5090
 1.6180	21.5650
 1.6190	21.6210
 1.6200	21.6760
 1.6210	21.7320
 1.6220	21.7840
 1.6230	21.8350
 1.6240	21.8860
 1.6250	21.9330
 1.6260	21.9810
 1.6270	22.0260
 1.6280	22.0680
 1.6290	22.1090
 1.6300	22.1470
 1.6310	22.1870
 1.6320	22.2250
 1.6330	22.2650
 1.6340	22.3070
 1.6350	22.3460
 1.6360	22.3850
 1.6370	22.4230
 1.6380	22.4610
 1.6390	22.4990
 1.6400	22.5370
 1.6410	22.5720
 1.6420	22.6050
 1.6430	22.6360
 1.6440	22.6660
 1.6450	22.6930
 1.6460	22.7170
 1.6470	22.7380
 1.6480	22.7580
 1.6490	22.7740
 1.6500	22.7870
 1.6510	22.7990
 1.6520	22.8080
 1.6530	22.8150
 1.6540	22.8200
 1.6550	22.8220
 1.6560	22.8230
 1.6570	22.8230
 1.6580	22.8230
 1.6590	22.8220
 1.6600	22.8180
 1.6610	22.8150
 1.6620	22.8110
 1.6630	22.8050
 1.6640	22.7990
 1.6650	22.7940
 1.6660	22.7880
 1.6670	22.7820
 1.6680	22.7770
 1.6690	22.7690
 1.6700	22.7580
 1.6710	22.7480
 1.6720	22.7370
 1.6730	22.7260
 1.6740	22.7150
 1.6750	22.6990
 1.6760	22.6830
 1.6770	22.6660
 1.6780	22.6460
 1.6790	22.6280
 1.6800	22.6060
 1.6810	22.5830
 1.6820	22.5580
 1.6830	22.5290
 1.6840	22.4980
 1.6850	22.4650
 1.6860	22.4290
 1.6870	22.3910
 1.6880	22.3530
 1.6890	22.3140
 1.6900	22.2710
 1.6910	22.2240
 1.6920	22.1760
 1.6930	22.1260
 1.6940	22.0750
 1.6950	22.0240
 1.6960	21.9720
 1.6970	21.9190
 1.6980	21.8650
 1.6990	21.8110
 1.7000	21.7570
 1.7010	21.7010
 1.7020	21.6470
 1.7030	21.5930
 1.7040	21.5390
 1.7050	21.4860
 1.7060	21.4320
 1.7070	21.3780
 1.7080	21.3260
 1.7090	21.2750
 1.7100	21.2220
 1.7110	21.1700
 1.7120	21.1180
 1.7130	21.0650
 1.7140	21.0120
 1.7150	20.9590
 1.7160	20.9060
 1.7170	20.8530
 1.7180	20.8000
 1.7190	20.7480
 1.7200	20.6950
 1.7210	20.6410
 1.7220	20.5890
 1.7230	20.5360
 1.7240	20.4840
 1.7250	20.4350
 1.7260	20.3840
 1.7270	20.3380
 1.7280	20.2950
 1.7290	20.2510
 1.7300	20.2100
 1.7310	20.1700
 1.7320	20.1300
 1.7330	20.0900
 1.7340	20.0520
 1.7350	20.0130
 1.7360	19.9740
 1.7370	19.9320
 1.7380	19.8890
 1.7390	19.8420
 1.7400	19.7900
 1.7410	19.7380
 1.7420	19.6830
 1.7430	19.6280
 1.7440	19.5730
 1.7450	19.5140
 1.7460	19.4510
 1.7470	19.3880
 1.7480	19.3230
 1.7490	19.2600
 1.7500	19.2000
 1.7510	19.1400
 1.7520	19.0800
 1.7530	19.0200
 1.7540	18.9580
 1.7550	18.9000
 1.7560	18.8430
 1.7570	18.7900
 1.7580	18.7380
 1.7590	18.6850
 1.7600	18.6340
 1.7610	18.5840
 1.7620	18.5360
 1.7630	18.4900
 1.7640	18.4460
 1.7650	18.4050
 1.7660	18.3640
 1.7670	18.3240
 1.7680	18.2870
 1.7690	18.2510
 1.7700	18.2160
 1.7710	18.1840
 1.7720	18.1530
 1.7730	18.1240
 1.7740	18.0950
 1.7750	18.0690
 1.7760	18.0440
 1.7770	18.0200
 1.7780	17.9980
 1.7790	17.9810
 1.7800	17.9610
 1.7810	17.9430
 1.7820	17.9260
 1.7830	17.9080
 1.7840	17.8940
 1.7850	17.8830
 1.7860	17.8730
 1.7870	17.8650
 1.7880	17.8590
 1.7890	17.8530
 1.7900	17.8490
 1.7910	17.8470
 1.7920	17.8470
 1.7930	17.8470
 1.7940	17.8480
 1.7950	17.8510
 1.7960	17.8550
 1.7970	17.8600
 1.7980	17.8680
 1.7990	17.8740
 1.8000	17.8790
 1.8010	17.8860
 1.8020	17.8940
 1.8030	17.9010
 1.8040	17.9110
 1.8050	17.9180
 1.8060	17.9250
 1.8070	17.9320
 1.8080	17.9390
 1.8090	17.9470
 1.8100	17.9550
 1.8110	17.9600
 1.8120	17.9680
 1.8130	17.9760
 1.8140	17.9820
 1.8150	17.9880
 1.8160	17.9930
 1.8170	17.9940
 1.8180	17.9960
 1.8190	18.0000
 1.8200	18.0030
 1.8210	18.0060
 1.8220	18.0100
 1.8230	18.0160
 1.8240	18.0150
 1.8250	18.0120
 1.8260	18.0080
 1.8270	17.9970
 1.8280	17.9870
 1.8290	17.9770
 1.8300	17.9240
 1.8310	17.8410
 1.8320	17.7800
 1.8330	17.7590
 1.8340	17.7350
 1.8350	17.7060
 1.8360	17.6730
 1.8370	17.6360
 1.8380	17.5940
 1.8390	17.5460
 1.8400	17.4950
 1.8410	17.4380
 1.8420	17.3760
 1.8430	17.3070
 1.8440	17.2360
 1.8450	17.1580
 1.8460	17.0720
 1.8470	16.9820
 1.8480	16.8860
 1.8490	16.7790
 1.8500	16.6620
 1.8510	16.5360
 1.8520	16.4030
 1.8530	16.2560
 1.8540	16.1020
 1.8550	15.9420
 1.8560	15.7700
 1.8570	15.5870
 1.8580	15.3940
 1.8590	15.1920
 1.8600	14.9780
 1.8610	14.7540
 1.8620	14.5200
 1.8630	14.2800
 1.8640	14.0290
 1.8650	13.7670
 1.8660	13.4980
 1.8670	13.2130
 1.8680	12.9170
 1.8690	12.6150
 1.8700	12.3030
 1.8710	11.9820
 1.8720	11.6590
 1.8730	11.3340
 1.8740	11.0040
 1.8750	10.6720
 1.8760	10.3410
 1.8770	10.0100
 1.8780	 9.6800
 1.8790	 9.3590
 1.8800	 9.0460
 1.8810	 8.7410
 1.8820	 8.4430
 1.8830	 8.1500
 1.8840	 7.8680
 1.8850	 7.5910
 1.8860	 7.3230
 1.8870	 7.0670
 1.8880	 6.8240
 1.8890	 6.5950
 1.8900	 6.3790
 1.8910	 6.1750
 1.8920	 5.9820
 1.8930	 5.8040
 1.8940	 5.6380
 1.8950	 5.4840
 1.8960	 5.3430
 1.8970	 5.2120
 1.8980	 5.0940
 1.8990	 4.9810
 1.9000	 4.8810
 1.9010	 4.7930
 1.9020	 4.7130
 1.9030	 4.6380
 1.9040	 4.5740
 1.9050	 4.5100
 1.9060	 4.4530
 1.9070	 4.4030
 1.9080	 4.3580
 1.9090	 4.3200
 1.9100	 4.2850
 1.9110	 4.2520
 1.9120	 4.2210
 1.9130	 4.1930
 1.9140	 4.1660
 1.9150	 4.1440
 1.9160	 4.1250
 1.9170	 4.1110
 1.9180	 4.0960
 1.9190	 4.0830
 1.9200	 4.0710
 1.9210	 4.0620
 1.9220	 4.0550
 1.9230	 4.0480
 1.9240	 4.0420
 1.9250	 4.0380
 1.9260	 4.0350
 1.9270	 4.0290
 1.9280	 4.0310
 1.9290	 4.0290
 1.9300	 4.0300
 1.9310	 4.0330
 1.9320	 4.0370
 1.9330	 4.0410
 1.9340	 4.0470
 1.9350	 4.0520
 1.9360	 4.0530
 1.9370	 4.0610
 1.9380	 4.0640
 1.9390	 4.0700
 1.9400	 4.0820
 1.9410	 4.0950
 1.9420	 4.1060
 1.9430	 4.1180
 1.9440	 4.1320
 1.9450	 4.1430
 1.9460	 4.1570
 1.9470	 4.1700
 1.9480	 4.1840
 1.9490	 4.1990
 1.9500	 4.2170
 1.9510	 4.2340
 1.9520	 4.2510
 1.9530	 4.2670
 1.9540	 4.2840
 1.9550	 4.2990
 1.9560	 4.3160
 1.9570	 4.3330
 1.9580	 4.3500
 1.9590	 4.3680
 1.9600	 4.3880
 1.9610	 4.4060
 1.9620	 4.4270
 1.9630	 4.4470
 1.9640	 4.4660
 1.9650	 4.4860
 1.9660	 4.5070
 1.9670	 4.5290
 1.9680	 4.5540
 1.9690	 4.5780
 1.9700	 4.6000
 1.9710	 4.6230
 1.9720	 4.6460
 1.9730	 4.6690
 1.9740	 4.6930
 1.9750	 4.7180
 1.9760	 4.7470
 1.9770	 4.7760
 1.9780	 4.8050
 1.9790	 4.8320
 1.9800	 4.8590
 1.9810	 4.8850
 1.9820	 4.9080
 1.9830	 4.9350
 1.9840	 4.9610
 1.9850	 4.9880
 1.9860	 5.0140
 1.9870	 5.0450
 1.9880	 5.0730
 1.9890	 5.1030
 1.9900	 5.1360
 1.9910	 5.1640
 1.9920	 5.1970
 1.9930	 5.2290
 1.9940	 5.2590
 1.9950	 5.2900
 1.9960	 5.3180
 1.9970	 5.3460
 1.9980	 5.3770
 1.9990	 5.4050
 2.0000	 5.4370
 2.0010	 5.4700
 2.0020	 5.5030
 2.0030	 5.5360
 2.0040	 5.5660
 2.0050	 5.5980
 2.0060	 5.6310
 2.0070	 5.6620
 2.0080	 5.6940
 2.0090	 5.7250
 2.0100	 5.7590
 2.0110	 5.7900
 2.0120	 5.8210
 2.0130	 5.8500
 2.0140	 5.8800
 2.0150	 5.9110
 2.0160	 5.9420
 2.0170	 5.9760
 2.0180	 6.0080
 2.0190	 6.0390
 2.0200	 6.0700
 2.0210	 6.0960
 2.0220	 6.1240
 2.0230	 6.1530
 2.0240	 6.1820
 2.0250	 6.2120
 2.0260	 6.2400
 2.0270	 6.2670
 2.0280	 6.2930
 2.0290	 6.3190
 2.0300	 6.3440
 2.0310	 6.3710
 2.0320	 6.3970
 2.0330	 6.4210
 2.0340	 6.4440
 2.0350	 6.4670
 2.0360	 6.4910
 2.0370	 6.5150
 2.0380	 6.5380
 2.0390	 6.5610
 2.0400	 6.5900
 2.0410	 6.6140
 2.0420	 6.6350
 2.0430	 6.6570
 2.0440	 6.6800
 2.0450	 6.6960
 2.0460	 6.7160
 2.0470	 6.7390
 2.0480	 6.7600
 2.0490	 6.7800
 2.0500	 6.7990
 2.0510	 6.8190
 2.0520	 6.8390
 2.0530	 6.8580
 2.0540	 6.8770
 2.0550	 6.8960
 2.0560	 6.9190
 2.0570	 6.9370
 2.0580	 6.9590
 2.0590	 6.9790
 2.0600	 7.0010
 2.0610	 7.0190
 2.0620	 7.0340
 2.0630	 7.0530
 2.0640	 7.0720
 2.0650	 7.0910
 2.0660	 7.1100
 2.0670	 7.1300
 2.0680	 7.1520
 2.0690	 7.1720
 2.0700	 7.1950
 2.0710	 7.2130
 2.0720	 7.2340
 2.0730	 7.2530
 2.0740	 7.2710
 2.0750	 7.2890
 2.0760	 7.3070
 2.0770	 7.3240
 2.0780	 7.3440
 2.0790	 7.3690
 2.0800	 7.3890
 2.0810	 7.4100
 2.0820	 7.4290
 2.0830	 7.4430
 2.0840	 7.4620
 2.0850	 7.4870
 2.0860	 7.5090
 2.0870	 7.5300
 2.0880	 7.5540
 2.0890	 7.5770
 2.0900	 7.5990
 2.0910	 7.6190
 2.0920	 7.6420
 2.0930	 7.6640
 2.0940	 7.6790
 2.0950	 7.7000
 2.0960	 7.7230
 2.0970	 7.7440
 2.0980	 7.7700
 2.0990	 7.7920
 2.1000	 7.8170
 2.1010	 7.8390
 2.1020	 7.8610
 2.1030	 7.8810
 2.1040	 7.9020
 2.1050	 7.9230
 2.1060	 7.9430
 2.1070	 7.9660
 2.1080	 7.9880
 2.1090	 8.0100
 2.1100	 8.0340
 2.1110	 8.0550
 2.1120	 8.0780
 2.1130	 8.0990
 2.1140	 8.1220
 2.1150	 8.1420
 2.1160	 8.1670
 2.1170	 8.1910
 2.1180	 8.2140
 2.1190	 8.2420
 2.1200	 8.2660
 2.1210	 8.2880
 2.1220	 8.3100
 2.1230	 8.3330
 2.1240	 8.3550
 2.1250	 8.3750
 2.1260	 8.4020
 2.1270	 8.4260
 2.1280	 8.4460
 2.1290	 8.4680
 2.1300	 8.4910
 2.1310	 8.5110
 2.1320	 8.5350
 2.1330	 8.5560
 2.1340	 8.5770
 2.1350	 8.5970
 2.1360	 8.6160
 2.1370	 8.6350
 2.1380	 8.6580
 2.1390	 8.6790
 2.1400	 8.7010
 2.1410	 8.7210
 2.1420	 8.7420
 2.1430	 8.7630
 2.1440	 8.7830
 2.1450	 8.8070
 2.1460	 8.8300
 2.1470	 8.8510
 2.1480	 8.8750
 2.1490	 8.8960
 2.1500	 8.9200
 2.1510	 8.9440
 2.1520	 8.9670
 2.1530	 8.9920
 2.1540	 9.0150
 2.1550	 9.0360
 2.1560	 9.0580
 2.1570	 9.0790
 2.1580	 9.1010
 2.1590	 9.1220
 2.1600	 9.1430
 2.1610	 9.1660
 2.1620	 9.1890
 2.1630	 9.2100
 2.1640	 9.2280
 2.1650	 9.2450
 2.1660	 9.2620
 2.1670	 9.2780
 2.1680	 9.2970
 2.1690	 9.3130
 2.1700	 9.3280
 2.1710	 9.3470
 2.1720	 9.3680
 2.1730	 9.3880
 2.1740	 9.4110
 2.1750	 9.4330
 2.1760	 9.4500
 2.1770	 9.4670
 2.1780	 9.4830
 2.1790	 9.4980
 2.1800	 9.5140
 2.1810	 9.5310
 2.1820	 9.5470
 2.1830	 9.5680
 2.1840	 9.5900
 2.1850	 9.6160
 2.1860	 9.6350
 2.1870	 9.6550
 2.1880	 9.6730
 2.1890	 9.6890
 2.1900	 9.7040
 2.1910	 9.7230
 2.1920	 9.7360
 2.1930	 9.7470
 2.1940	 9.7610
 2.1950	 9.7740
 2.1960	 9.7890
 2.1970	 9.8070
 2.1980	 9.8210
 2.1990	 9.8340
 2.2000	 9.8500
 2.2010	 9.8630
 2.2020	 9.8750
 2.2030	 9.8890
 2.2040	 9.9020
 2.2050	 9.9110
 2.2060	 9.9230
 2.2070	 9.9330
 2.2080	 9.9400
 2.2090	 9.9480
 2.2100	 9.9550
 2.2110	 9.9630
 2.2120	 9.9720
 2.2130	 9.9770
 2.2140	 9.9790
 2.2150	 9.9800
 2.2160	 9.9760
 2.2170	 9.9740
 2.2180	 9.9750
 2.2190	 9.9730
 2.2200	 9.9700
 2.2210	 9.9660
 2.2220	 9.9590
 2.2230	 9.9540
 2.2240	 9.9470
 2.2250	 9.9360
 2.2260	 9.9230
 2.2270	 9.9090
 2.2280	 9.8940
 2.2290	 9.8760
 2.2300	 9.8550
 2.2310	 9.8350
 2.2320	 9.8140
 2.2330	 9.7880
 2.2340	 9.7630
 2.2350	 9.7380
 2.2360	 9.7100
 2.2370	 9.6780
 2.2380	 9.6500
 2.2390	 9.6210
 2.2400	 9.5880
 2.2410	 9.5520
 2.2420	 9.5150
 2.2430	 9.4750
 2.2440	 9.4350
 2.2450	 9.3970
 2.2460	 9.3560
 2.2470	 9.3120
 2.2480	 9.2650
 2.2490	 9.2190
 2.2500	 9.1760
 2.2510	 9.1400
 2.2520	 9.0960
 2.2530	 9.0520
 2.2540	 9.0070
 2.2550	 8.9560
 2.2560	 8.9070
 2.2570	 8.8570
 2.2580	 8.8090
 2.2590	 8.7580
 2.2600	 8.7070
 2.2610	 8.6620
 2.2620	 8.6160
 2.2630	 8.5680
 2.2640	 8.5270
 2.2650	 8.4780
 2.2660	 8.4330
 2.2670	 8.3900
 2.2680	 8.3520
 2.2690	 8.3100
 2.2700	 8.2690
 2.2710	 8.2310
 2.2720	 8.1850
 2.2730	 8.1500
 2.2740	 8.1250
 2.2750	 8.0920
 2.2760	 8.0650
 2.2770	 8.0390
 2.2780	 8.0070
 2.2790	 7.9800
 2.2800	 7.9540
 2.2810	 7.9280
 2.2820	 7.9040
 2.2830	 7.8790
 2.2840	 7.8540
 2.2850	 7.8310
 2.2860	 7.8080
 2.2870	 7.7840
 2.2880	 7.7650
 2.2890	 7.7400
 2.2900	 7.7090
 2.2910	 7.6790
 2.2920	 7.6450
 2.2930	 7.6110
 2.2940	 7.5780
 2.2950	 7.5440
 2.2960	 7.5100
 2.2970	 7.4760
 2.2980	 7.4430
 2.2990	 7.4100
 2.3000	 7.3820
 2.3010	 7.3500
 2.3020	 7.3140
 2.3030	 7.2850
 2.3040	 7.2520
 2.3050	 7.2200
 2.3060	 7.1930
 2.3070	 7.1660
 2.3080	 7.1470
 2.3090	 7.1270
 2.3100	 7.1080
 2.3110	 7.0970
 2.3120	 7.0870
 2.3130	 7.0770
 2.3140	 7.0690
 2.3150	 7.0640
 2.3160	 7.0580
 2.3170	 7.0510
 2.3180	 7.0460
 2.3190	 7.0440
 2.3200	 7.0340
 2.3210	 7.0240
 2.3220	 7.0110
 2.3230	 6.9970
 2.3240	 6.9800
 2.3250	 6.9590
 2.3260	 6.9410
 2.3270	 6.9210
 2.3280	 6.9020
 2.3290	 6.8840
 2.3300	 6.8660
 2.3310	 6.8460
 2.3320	 6.8270
 2.3330	 6.8090
 2.3340	 6.7840
 2.3350	 6.7550
 2.3360	 6.7310
 2.3370	 6.7050
 2.3380	 6.6780
 2.3390	 6.6610
 2.3400	 6.6380
 2.3410	 6.6050
 2.3420	 6.5790
 2.3430	 6.5460
 2.3440	 6.5200
 2.3450	 6.4940
 2.3460	 6.4740
 2.3470	 6.4580
 2.3480	 6.4380
 2.3490	 6.4220
 2.3500	 6.4030
 2.3510	 6.3800
 2.3520	 6.3650
 2.3530	 6.3530
 2.3540	 6.3380
 2.3550	 6.3310
 2.3560	 6.3210
 2.3570	 6.3000
 2.3580	 6.2820
 2.3590	 6.2640
 2.3600	 6.2480
 2.3610	 6.2350
 2.3620	 6.2200
 2.3630	 6.2020
 2.3640	 6.1740
 2.3650	 6.1490
 2.3660	 6.1340
 2.3670	 6.1170
 2.3680	 6.1040
 2.3690	 6.0900
 2.3700	 6.0700
 2.3710	 6.0540
 2.3720	 6.0290
 2.3730	 6.0040
 2.3740	 5.9820
 2.3750	 5.9600
 2.3760	 5.9480
 2.3770	 5.9300
 2.3780	 5.9200
 2.3790	 5.9010
 2.3800	 5.8820
 2.3810	 5.8680
 2.3820	 5.8470
 2.3830	 5.8260
 2.3840	 5.8110
 2.3850	 5.7870
 2.3860	 5.7750
 2.3870	 5.7580
 2.3880	 5.7400
 2.3890	 5.7320
 2.3900	 5.7180
 2.3910	 5.7010
 2.3920	 5.6740
 2.3930	 5.6490
 2.3940	 5.6200
 2.3950	 5.6070
 2.3960	 5.5990
 2.3970	 5.5810
 2.3980	 5.5630
 2.3990	 5.5450
 2.4000	 5.5230
 2.4010	 5.5070
 2.4020	 5.4960
 2.4030	 5.4740
 2.4040	 5.4560
 2.4050	 5.4460
 2.4060	 5.4210
 2.4070	 5.3930
 2.4080	 5.3690
 2.4090	 5.3400
 2.4100	 5.3190
 2.4110	 5.2980
 2.4120	 5.2800
 2.4130	 5.2640
 2.4140	 5.2430
 2.4150	 5.2150
 2.4160	 5.1990
 2.4170	 5.1790
 2.4180	 5.1530
 2.4190	 5.1490
 2.4200	 5.1370
 2.4210	 5.1090
 2.4220	 5.0970
 2.4230	 5.0800
 2.4240	 5.0540
 2.4250	 5.0490
 2.4260	 5.0290
 2.4270	 5.0060
 2.4280	 4.9860
 2.4290	 4.9500
 2.4300	 4.9190
 2.4310	 4.9110
 2.4320	 4.8970
 2.4330	 4.8710
 2.4340	 4.8510
 2.4350	 4.8190
 2.4360	 4.7840
 2.4370	 4.7700
 2.4380	 4.7660
 2.4390	 4.7620
 2.4400	 4.7430
 2.4410	 4.7180
 2.4420	 4.6940
 2.4430	 4.6660
 2.4440	 4.6620
 2.4450	 4.6640
 2.4460	 4.6490
 2.4470	 4.6360
 2.4480	 4.5940
 2.4490	 4.5520
 2.4500	 4.5320
 2.4510	 4.5080
 2.4520	 4.4930
 2.4530	 4.4750
 2.4540	 4.4420
 2.4550	 4.4150
 2.4560	 4.3940
 2.4570	 4.3920
 2.4580	 4.3700
 2.4590	 4.3280
 2.4600	 4.3050
 2.4610	 4.2980
 2.4620	 4.2970
 2.4630	 4.3050
 2.4640	 4.3090
 2.4650	 4.2800
 2.4660	 4.2590
 2.4670	 4.2660
 2.4680	 4.2440
 2.4690	 4.2430
 2.4700	 4.2350
 2.4710	 4.2220
 2.4720	 4.2060
 2.4730	 4.1860
 2.4740	 4.1660
 2.4750	 4.1470
 2.4760	 4.1320
 2.4770	 4.1270
 2.4780	 4.1200
 2.4790	 4.1120
 2.4800	 4.1070
 2.4810	 4.1110
 2.4820	 4.0990
 2.4830	 4.1080
 2.4840	 4.1230
 2.4850	 4.1440
 2.4860	 4.1710
 2.4870	 4.1590
 2.4880	 4.1170
 2.4890	 4.1010
 2.4900	 4.0940
 2.4910	 4.1050
 2.4920	 4.1270
 2.4930	 4.0990
 2.4940	 4.0450
 2.4950	 4.0060
 2.4960	 3.9840
 2.4970	 3.9600
 2.4980	 3.9320
 2.4990	 3.9460
 2.5000	 3.9860
