Name: Bambusa tuldoides
Type: vegetation
Class: Tree
Genus: Bambusa
Species: tuldoides
Sample No.: JPL147
Owner: JPL
Wavelength Range: VSWIR
Origin: 34.12526; -118.1174; WGS84
Collection Date: 9/14/2016
Description: Samples were collected at the Huntington Garden in San Marino California as part of a JPL Subcontract studying HyTES imagery. Samples were taken to JPL and processed within 48 hours of collection. The same leaves were processed in the Nicolet and then measured using the ASD.
Measurement: Bidirectional reflectance
First Column: X
Second Column: Y
X Units: Wavelength (micrometer)
Y Units: Reflectance (percentage)
First X Value: 0.35
Last X Value: 2.5
Number of X Values: 2151
Additional Information: vegetation.tree.bambusa.tuldoides.vswir.jpl147.jpl.asd.ancillary.txt

 0.3500	 5.2590
 0.3510	 5.3540
 0.3520	 5.3120
 0.3530	 5.2260
 0.3540	 5.2140
 0.3550	 5.2430
 0.3560	 5.2070
 0.3570	 5.1190
 0.3580	 5.0530
 0.3590	 5.0250
 0.3600	 5.0390
 0.3610	 5.0810
 0.3620	 5.1250
 0.3630	 5.1300
 0.3640	 5.0840
 0.3650	 5.0160
 0.3660	 5.0550
 0.3670	 5.0880
 0.3680	 5.0800
 0.3690	 5.0480
 0.3700	 4.9700
 0.3710	 4.9620
 0.3720	 5.0480
 0.3730	 5.0590
 0.3740	 5.0150
 0.3750	 4.9630
 0.3760	 4.9530
 0.3770	 4.9850
 0.3780	 4.9830
 0.3790	 4.9320
 0.3800	 4.8760
 0.3810	 4.9190
 0.3820	 4.9780
 0.3830	 4.9750
 0.3840	 4.8900
 0.3850	 4.8500
 0.3860	 4.8780
 0.3870	 4.9390
 0.3880	 4.9610
 0.3890	 4.9260
 0.3900	 4.8820
 0.3910	 4.9400
 0.3920	 4.9440
 0.3930	 4.9140
 0.3940	 4.8960
 0.3950	 4.9110
 0.3960	 4.9520
 0.3970	 4.9720
 0.3980	 4.9220
 0.3990	 4.9050
 0.4000	 4.9150
 0.4010	 4.9350
 0.4020	 4.9420
 0.4030	 4.9560
 0.4040	 4.9490
 0.4050	 4.9090
 0.4060	 4.9110
 0.4070	 4.9480
 0.4080	 4.9780
 0.4090	 4.9480
 0.4100	 4.9430
 0.4110	 4.9620
 0.4120	 4.9830
 0.4130	 4.9790
 0.4140	 4.9900
 0.4150	 4.9970
 0.4160	 4.9770
 0.4170	 4.9890
 0.4180	 5.0050
 0.4190	 5.0140
 0.4200	 5.0240
 0.4210	 5.0270
 0.4220	 5.0300
 0.4230	 5.0430
 0.4240	 5.0670
 0.4250	 5.0690
 0.4260	 5.0570
 0.4270	 5.0590
 0.4280	 5.0610
 0.4290	 5.0640
 0.4300	 5.0660
 0.4310	 5.0590
 0.4320	 5.0650
 0.4330	 5.0710
 0.4340	 5.0670
 0.4350	 5.0650
 0.4360	 5.0720
 0.4370	 5.0820
 0.4380	 5.0820
 0.4390	 5.0910
 0.4400	 5.1020
 0.4410	 5.1080
 0.4420	 5.1160
 0.4430	 5.1220
 0.4440	 5.1270
 0.4450	 5.1340
 0.4460	 5.1400
 0.4470	 5.1460
 0.4480	 5.1530
 0.4490	 5.1600
 0.4500	 5.1670
 0.4510	 5.1700
 0.4520	 5.1710
 0.4530	 5.1840
 0.4540	 5.1890
 0.4550	 5.1880
 0.4560	 5.1930
 0.4570	 5.2010
 0.4580	 5.2070
 0.4590	 5.2080
 0.4600	 5.2080
 0.4610	 5.2020
 0.4620	 5.2040
 0.4630	 5.2240
 0.4640	 5.2260
 0.4650	 5.2230
 0.4660	 5.2240
 0.4670	 5.2300
 0.4680	 5.2260
 0.4690	 5.2250
 0.4700	 5.2330
 0.4710	 5.2380
 0.4720	 5.2380
 0.4730	 5.2370
 0.4740	 5.2400
 0.4750	 5.2410
 0.4760	 5.2400
 0.4770	 5.2390
 0.4780	 5.2430
 0.4790	 5.2490
 0.4800	 5.2520
 0.4810	 5.2520
 0.4820	 5.2460
 0.4830	 5.2440
 0.4840	 5.2480
 0.4850	 5.2560
 0.4860	 5.2640
 0.4870	 5.2680
 0.4880	 5.2700
 0.4890	 5.2890
 0.4900	 5.3040
 0.4910	 5.3140
 0.4920	 5.3320
 0.4930	 5.3450
 0.4940	 5.3650
 0.4950	 5.3950
 0.4960	 5.4270
 0.4970	 5.4540
 0.4980	 5.4840
 0.4990	 5.5230
 0.5000	 5.5620
 0.5010	 5.6070
 0.5020	 5.6590
 0.5030	 5.7140
 0.5040	 5.7790
 0.5050	 5.8480
 0.5060	 5.9220
 0.5070	 6.0050
 0.5080	 6.1030
 0.5090	 6.2110
 0.5100	 6.3230
 0.5110	 6.4430
 0.5120	 6.5770
 0.5130	 6.7250
 0.5140	 6.8800
 0.5150	 7.0410
 0.5160	 7.2170
 0.5170	 7.4110
 0.5180	 7.6140
 0.5190	 7.8200
 0.5200	 8.0310
 0.5210	 8.2510
 0.5220	 8.4740
 0.5230	 8.6970
 0.5240	 8.9180
 0.5250	 9.1340
 0.5260	 9.3420
 0.5270	 9.5430
 0.5280	 9.7350
 0.5290	 9.9140
 0.5300	10.0810
 0.5310	10.2360
 0.5320	10.3810
 0.5330	10.5140
 0.5340	10.6340
 0.5350	10.7440
 0.5360	10.8400
 0.5370	10.9230
 0.5380	10.9960
 0.5390	11.0680
 0.5400	11.1350
 0.5410	11.1990
 0.5420	11.2610
 0.5430	11.3170
 0.5440	11.3630
 0.5450	11.4010
 0.5460	11.4340
 0.5470	11.4610
 0.5480	11.4890
 0.5490	11.5180
 0.5500	11.5410
 0.5510	11.5600
 0.5520	11.5700
 0.5530	11.5700
 0.5540	11.5570
 0.5550	11.5280
 0.5560	11.4870
 0.5570	11.4390
 0.5580	11.3770
 0.5590	11.3000
 0.5600	11.2070
 0.5610	11.1060
 0.5620	10.9940
 0.5630	10.8750
 0.5640	10.7530
 0.5650	10.6240
 0.5660	10.4950
 0.5670	10.3650
 0.5680	10.2320
 0.5690	10.1010
 0.5700	 9.9720
 0.5710	 9.8430
 0.5720	 9.7170
 0.5730	 9.5910
 0.5740	 9.4670
 0.5750	 9.3500
 0.5760	 9.2460
 0.5770	 9.1500
 0.5780	 9.0540
 0.5790	 8.9650
 0.5800	 8.8820
 0.5810	 8.8080
 0.5820	 8.7420
 0.5830	 8.6820
 0.5840	 8.6290
 0.5850	 8.5800
 0.5860	 8.5250
 0.5870	 8.4690
 0.5880	 8.4150
 0.5890	 8.3640
 0.5900	 8.3180
 0.5910	 8.2730
 0.5920	 8.2300
 0.5930	 8.1950
 0.5940	 8.1630
 0.5950	 8.1370
 0.5960	 8.1180
 0.5970	 8.1010
 0.5980	 8.0840
 0.5990	 8.0640
 0.6000	 8.0400
 0.6010	 8.0160
 0.6020	 7.9880
 0.6030	 7.9550
 0.6040	 7.9120
 0.6050	 7.8650
 0.6060	 7.8150
 0.6070	 7.7600
 0.6080	 7.7010
 0.6090	 7.6370
 0.6100	 7.5700
 0.6110	 7.5030
 0.6120	 7.4400
 0.6130	 7.3810
 0.6140	 7.3250
 0.6150	 7.2710
 0.6160	 7.2190
 0.6170	 7.1670
 0.6180	 7.1140
 0.6190	 7.0690
 0.6200	 7.0300
 0.6210	 6.9930
 0.6220	 6.9590
 0.6230	 6.9310
 0.6240	 6.9090
 0.6250	 6.8920
 0.6260	 6.8760
 0.6270	 6.8640
 0.6280	 6.8530
 0.6290	 6.8420
 0.6300	 6.8320
 0.6310	 6.8220
 0.6320	 6.8090
 0.6330	 6.7900
 0.6340	 6.7660
 0.6350	 6.7360
 0.6360	 6.7000
 0.6370	 6.6550
 0.6380	 6.6030
 0.6390	 6.5450
 0.6400	 6.4860
 0.6410	 6.4280
 0.6420	 6.3690
 0.6430	 6.3090
 0.6440	 6.2490
 0.6450	 6.1880
 0.6460	 6.1280
 0.6470	 6.0740
 0.6480	 6.0270
 0.6490	 5.9860
 0.6500	 5.9490
 0.6510	 5.9170
 0.6520	 5.8940
 0.6530	 5.8760
 0.6540	 5.8580
 0.6550	 5.8390
 0.6560	 5.8180
 0.6570	 5.7930
 0.6580	 5.7630
 0.6590	 5.7310
 0.6600	 5.6950
 0.6610	 5.6600
 0.6620	 5.6270
 0.6630	 5.5970
 0.6640	 5.5700
 0.6650	 5.5460
 0.6660	 5.5220
 0.6670	 5.5060
 0.6680	 5.4960
 0.6690	 5.4890
 0.6700	 5.4850
 0.6710	 5.4860
 0.6720	 5.4930
 0.6730	 5.5050
 0.6740	 5.5180
 0.6750	 5.5350
 0.6760	 5.5570
 0.6770	 5.5790
 0.6780	 5.6060
 0.6790	 5.6390
 0.6800	 5.6740
 0.6810	 5.7190
 0.6820	 5.7690
 0.6830	 5.8240
 0.6840	 5.8930
 0.6850	 5.9680
 0.6860	 6.0580
 0.6870	 6.1710
 0.6880	 6.3050
 0.6890	 6.4670
 0.6900	 6.6670
 0.6910	 6.9090
 0.6920	 7.2000
 0.6930	 7.5450
 0.6940	 7.9460
 0.6950	 8.4060
 0.6960	 8.9240
 0.6970	 9.4970
 0.6980	10.1190
 0.6990	10.7890
 0.7000	11.4940
 0.7010	12.2270
 0.7020	12.9820
 0.7030	13.7430
 0.7040	14.5090
 0.7050	15.2760
 0.7060	16.0370
 0.7070	16.7900
 0.7080	17.5340
 0.7090	18.2730
 0.7100	19.0060
 0.7110	19.7340
 0.7120	20.4560
 0.7130	21.1720
 0.7140	21.8810
 0.7150	22.5860
 0.7160	23.2910
 0.7170	23.9890
 0.7180	24.6810
 0.7190	25.3650
 0.7200	26.0410
 0.7210	26.7140
 0.7220	27.3770
 0.7230	28.0260
 0.7240	28.6630
 0.7250	29.2860
 0.7260	29.8940
 0.7270	30.4860
 0.7280	31.0580
 0.7290	31.6120
 0.7300	32.1480
 0.7310	32.6660
 0.7320	33.1620
 0.7330	33.6390
 0.7340	34.0950
 0.7350	34.5300
 0.7360	34.9420
 0.7370	35.3330
 0.7380	35.7040
 0.7390	36.0560
 0.7400	36.3870
 0.7410	36.6980
 0.7420	36.9880
 0.7430	37.2610
 0.7440	37.5130
 0.7450	37.7450
 0.7460	37.9620
 0.7470	38.1620
 0.7480	38.3460
 0.7490	38.5130
 0.7500	38.6640
 0.7510	38.8060
 0.7520	38.9360
 0.7530	39.0520
 0.7540	39.1590
 0.7550	39.2580
 0.7560	39.3470
 0.7570	39.4260
 0.7580	39.4990
 0.7590	39.5680
 0.7600	39.6290
 0.7610	39.6800
 0.7620	39.7290
 0.7630	39.7750
 0.7640	39.8150
 0.7650	39.8480
 0.7660	39.8770
 0.7670	39.9040
 0.7680	39.9300
 0.7690	39.9530
 0.7700	39.9730
 0.7710	39.9910
 0.7720	40.0050
 0.7730	40.0170
 0.7740	40.0280
 0.7750	40.0420
 0.7760	40.0510
 0.7770	40.0590
 0.7780	40.0670
 0.7790	40.0730
 0.7800	40.0790
 0.7810	40.0870
 0.7820	40.0940
 0.7830	40.0970
 0.7840	40.1020
 0.7850	40.1040
 0.7860	40.1040
 0.7870	40.1040
 0.7880	40.1050
 0.7890	40.1030
 0.7900	40.0980
 0.7910	40.0930
 0.7920	40.0910
 0.7930	40.0910
 0.7940	40.0870
 0.7950	40.0800
 0.7960	40.0710
 0.7970	40.0620
 0.7980	40.0570
 0.7990	40.0490
 0.8000	40.0380
 0.8010	40.0280
 0.8020	40.0190
 0.8030	40.0080
 0.8040	39.9970
 0.8050	39.9860
 0.8060	39.9730
 0.8070	39.9600
 0.8080	39.9470
 0.8090	39.9330
 0.8100	39.9210
 0.8110	39.9090
 0.8120	39.8920
 0.8130	39.8720
 0.8140	39.8550
 0.8150	39.8400
 0.8160	39.8280
 0.8170	39.8130
 0.8180	39.7950
 0.8190	39.7780
 0.8200	39.7650
 0.8210	39.7490
 0.8220	39.7310
 0.8230	39.7130
 0.8240	39.7000
 0.8250	39.6870
 0.8260	39.6740
 0.8270	39.6600
 0.8280	39.6430
 0.8290	39.6250
 0.8300	39.6090
 0.8310	39.5950
 0.8320	39.5810
 0.8330	39.5660
 0.8340	39.5500
 0.8350	39.5390
 0.8360	39.5290
 0.8370	39.5180
 0.8380	39.5060
 0.8390	39.4950
 0.8400	39.4860
 0.8410	39.4760
 0.8420	39.4660
 0.8430	39.4540
 0.8440	39.4470
 0.8450	39.4410
 0.8460	39.4340
 0.8470	39.4260
 0.8480	39.4180
 0.8490	39.4150
 0.8500	39.4150
 0.8510	39.4100
 0.8520	39.4080
 0.8530	39.4070
 0.8540	39.4030
 0.8550	39.3970
 0.8560	39.3930
 0.8570	39.3950
 0.8580	39.3980
 0.8590	39.3990
 0.8600	39.4010
 0.8610	39.4040
 0.8620	39.4010
 0.8630	39.4020
 0.8640	39.4090
 0.8650	39.4200
 0.8660	39.4260
 0.8670	39.4270
 0.8680	39.4300
 0.8690	39.4360
 0.8700	39.4390
 0.8710	39.4460
 0.8720	39.4560
 0.8730	39.4630
 0.8740	39.4720
 0.8750	39.4810
 0.8760	39.4900
 0.8770	39.5000
 0.8780	39.5020
 0.8790	39.5080
 0.8800	39.5200
 0.8810	39.5260
 0.8820	39.5360
 0.8830	39.5500
 0.8840	39.5620
 0.8850	39.5730
 0.8860	39.5790
 0.8870	39.5860
 0.8880	39.5970
 0.8890	39.6070
 0.8900	39.6170
 0.8910	39.6250
 0.8920	39.6300
 0.8930	39.6440
 0.8940	39.6560
 0.8950	39.6650
 0.8960	39.6730
 0.8970	39.6820
 0.8980	39.6910
 0.8990	39.6980
 0.9000	39.7060
 0.9010	39.7220
 0.9020	39.7340
 0.9030	39.7390
 0.9040	39.7440
 0.9050	39.7510
 0.9060	39.7550
 0.9070	39.7560
 0.9080	39.7640
 0.9090	39.7740
 0.9100	39.7810
 0.9110	39.7830
 0.9120	39.7840
 0.9130	39.7890
 0.9140	39.7950
 0.9150	39.7950
 0.9160	39.7990
 0.9170	39.8010
 0.9180	39.8010
 0.9190	39.8050
 0.9200	39.8060
 0.9210	39.8050
 0.9220	39.8050
 0.9230	39.8070
 0.9240	39.8060
 0.9250	39.8020
 0.9260	39.7970
 0.9270	39.7930
 0.9280	39.7810
 0.9290	39.7680
 0.9300	39.7630
 0.9310	39.7690
 0.9320	39.7650
 0.9330	39.7530
 0.9340	39.7370
 0.9350	39.7250
 0.9360	39.7100
 0.9370	39.7020
 0.9380	39.7010
 0.9390	39.6890
 0.9400	39.6720
 0.9410	39.6530
 0.9420	39.6410
 0.9430	39.6450
 0.9440	39.6330
 0.9450	39.6080
 0.9460	39.5820
 0.9470	39.5650
 0.9480	39.5500
 0.9490	39.5320
 0.9500	39.5100
 0.9510	39.4840
 0.9520	39.4550
 0.9530	39.4300
 0.9540	39.4090
 0.9550	39.3850
 0.9560	39.3580
 0.9570	39.3360
 0.9580	39.3220
 0.9590	39.3030
 0.9600	39.2740
 0.9610	39.2490
 0.9620	39.2400
 0.9630	39.2260
 0.9640	39.2130
 0.9650	39.1980
 0.9660	39.1760
 0.9670	39.1630
 0.9680	39.1570
 0.9690	39.1490
 0.9700	39.1350
 0.9710	39.1210
 0.9720	39.1050
 0.9730	39.0910
 0.9740	39.0840
 0.9750	39.0820
 0.9760	39.0740
 0.9770	39.0640
 0.9780	39.0610
 0.9790	39.0580
 0.9800	39.0500
 0.9810	39.0370
 0.9820	39.0300
 0.9830	39.0400
 0.9840	39.0370
 0.9850	39.0200
 0.9860	39.0080
 0.9870	39.0120
 0.9880	39.0220
 0.9890	39.0220
 0.9900	39.0080
 0.9910	38.9980
 0.9920	39.0020
 0.9930	39.0070
 0.9940	38.9960
 0.9950	38.9760
 0.9960	38.9850
 0.9970	39.0080
 0.9980	39.0130
 0.9990	39.0110
 1.0000	39.0060
 1.0010	39.7950
 1.0020	39.7930
 1.0030	39.7930
 1.0040	39.7890
 1.0050	39.7850
 1.0060	39.7900
 1.0070	39.7930
 1.0080	39.7930
 1.0090	39.7900
 1.0100	39.7900
 1.0110	39.7880
 1.0120	39.7860
 1.0130	39.7890
 1.0140	39.7870
 1.0150	39.7810
 1.0160	39.7800
 1.0170	39.7830
 1.0180	39.7820
 1.0190	39.7850
 1.0200	39.7880
 1.0210	39.7860
 1.0220	39.7860
 1.0230	39.7850
 1.0240	39.7820
 1.0250	39.7830
 1.0260	39.7890
 1.0270	39.7880
 1.0280	39.7840
 1.0290	39.7840
 1.0300	39.7840
 1.0310	39.7830
 1.0320	39.7830
 1.0330	39.7880
 1.0340	39.7920
 1.0350	39.7900
 1.0360	39.7890
 1.0370	39.7890
 1.0380	39.7900
 1.0390	39.7880
 1.0400	39.7880
 1.0410	39.7900
 1.0420	39.7900
 1.0430	39.7880
 1.0440	39.7890
 1.0450	39.7940
 1.0460	39.7960
 1.0470	39.7980
 1.0480	39.7990
 1.0490	39.8000
 1.0500	39.8000
 1.0510	39.7980
 1.0520	39.7970
 1.0530	39.7960
 1.0540	39.7930
 1.0550	39.7950
 1.0560	39.8020
 1.0570	39.8020
 1.0580	39.8030
 1.0590	39.8020
 1.0600	39.7940
 1.0610	39.7910
 1.0620	39.7930
 1.0630	39.7910
 1.0640	39.7900
 1.0650	39.7880
 1.0660	39.7860
 1.0670	39.7840
 1.0680	39.7810
 1.0690	39.7790
 1.0700	39.7780
 1.0710	39.7770
 1.0720	39.7760
 1.0730	39.7790
 1.0740	39.7780
 1.0750	39.7750
 1.0760	39.7730
 1.0770	39.7690
 1.0780	39.7670
 1.0790	39.7660
 1.0800	39.7650
 1.0810	39.7630
 1.0820	39.7630
 1.0830	39.7630
 1.0840	39.7620
 1.0850	39.7610
 1.0860	39.7610
 1.0870	39.7600
 1.0880	39.7580
 1.0890	39.7550
 1.0900	39.7500
 1.0910	39.7470
 1.0920	39.7420
 1.0930	39.7380
 1.0940	39.7360
 1.0950	39.7330
 1.0960	39.7320
 1.0970	39.7290
 1.0980	39.7250
 1.0990	39.7220
 1.1000	39.7190
 1.1010	39.7150
 1.1020	39.7130
 1.1030	39.7110
 1.1040	39.7060
 1.1050	39.7000
 1.1060	39.6960
 1.1070	39.6920
 1.1080	39.6890
 1.1090	39.6880
 1.1100	39.6830
 1.1110	39.6760
 1.1120	39.6700
 1.1130	39.6640
 1.1140	39.6570
 1.1150	39.6510
 1.1160	39.6430
 1.1170	39.6350
 1.1180	39.6260
 1.1190	39.6180
 1.1200	39.6060
 1.1210	39.5950
 1.1220	39.5840
 1.1230	39.5720
 1.1240	39.5580
 1.1250	39.5420
 1.1260	39.5230
 1.1270	39.5030
 1.1280	39.4820
 1.1290	39.4580
 1.1300	39.4330
 1.1310	39.4050
 1.1320	39.3730
 1.1330	39.3410
 1.1340	39.3080
 1.1350	39.2710
 1.1360	39.2310
 1.1370	39.1900
 1.1380	39.1450
 1.1390	39.0960
 1.1400	39.0480
 1.1410	38.9990
 1.1420	38.9480
 1.1430	38.8990
 1.1440	38.8480
 1.1450	38.7950
 1.1460	38.7440
 1.1470	38.6910
 1.1480	38.6420
 1.1490	38.5940
 1.1500	38.5490
 1.1510	38.5070
 1.1520	38.4650
 1.1530	38.4230
 1.1540	38.3860
 1.1550	38.3500
 1.1560	38.3190
 1.1570	38.2890
 1.1580	38.2620
 1.1590	38.2360
 1.1600	38.2110
 1.1610	38.1880
 1.1620	38.1690
 1.1630	38.1500
 1.1640	38.1340
 1.1650	38.1200
 1.1660	38.1100
 1.1670	38.0970
 1.1680	38.0860
 1.1690	38.0740
 1.1700	38.0630
 1.1710	38.0520
 1.1720	38.0440
 1.1730	38.0340
 1.1740	38.0250
 1.1750	38.0150
 1.1760	38.0040
 1.1770	37.9930
 1.1780	37.9830
 1.1790	37.9720
 1.1800	37.9620
 1.1810	37.9510
 1.1820	37.9390
 1.1830	37.9260
 1.1840	37.9140
 1.1850	37.9030
 1.1860	37.8900
 1.1870	37.8800
 1.1880	37.8700
 1.1890	37.8580
 1.1900	37.8480
 1.1910	37.8410
 1.1920	37.8320
 1.1930	37.8240
 1.1940	37.8160
 1.1950	37.8090
 1.1960	37.8020
 1.1970	37.7960
 1.1980	37.7900
 1.1990	37.7840
 1.2000	37.7810
 1.2010	37.7780
 1.2020	37.7750
 1.2030	37.7730
 1.2040	37.7710
 1.2050	37.7700
 1.2060	37.7710
 1.2070	37.7710
 1.2080	37.7730
 1.2090	37.7740
 1.2100	37.7750
 1.2110	37.7760
 1.2120	37.7760
 1.2130	37.7780
 1.2140	37.7810
 1.2150	37.7840
 1.2160	37.7890
 1.2170	37.7940
 1.2180	37.7960
 1.2190	37.7980
 1.2200	37.8020
 1.2210	37.8070
 1.2220	37.8120
 1.2230	37.8190
 1.2240	37.8250
 1.2250	37.8310
 1.2260	37.8370
 1.2270	37.8430
 1.2280	37.8470
 1.2290	37.8510
 1.2300	37.8560
 1.2310	37.8610
 1.2320	37.8670
 1.2330	37.8730
 1.2340	37.8780
 1.2350	37.8820
 1.2360	37.8850
 1.2370	37.8870
 1.2380	37.8890
 1.2390	37.8920
 1.2400	37.8940
 1.2410	37.8960
 1.2420	37.8970
 1.2430	37.8970
 1.2440	37.8980
 1.2450	37.8990
 1.2460	37.9020
 1.2470	37.9030
 1.2480	37.9030
 1.2490	37.9040
 1.2500	37.9040
 1.2510	37.9050
 1.2520	37.9050
 1.2530	37.9030
 1.2540	37.9010
 1.2550	37.8990
 1.2560	37.8970
 1.2570	37.8940
 1.2580	37.8920
 1.2590	37.8890
 1.2600	37.8850
 1.2610	37.8820
 1.2620	37.8790
 1.2630	37.8750
 1.2640	37.8700
 1.2650	37.8650
 1.2660	37.8590
 1.2670	37.8540
 1.2680	37.8470
 1.2690	37.8400
 1.2700	37.8320
 1.2710	37.8240
 1.2720	37.8170
 1.2730	37.8100
 1.2740	37.8030
 1.2750	37.7950
 1.2760	37.7860
 1.2770	37.7760
 1.2780	37.7650
 1.2790	37.7540
 1.2800	37.7420
 1.2810	37.7310
 1.2820	37.7200
 1.2830	37.7090
 1.2840	37.6960
 1.2850	37.6830
 1.2860	37.6680
 1.2870	37.6530
 1.2880	37.6360
 1.2890	37.6190
 1.2900	37.6010
 1.2910	37.5810
 1.2920	37.5610
 1.2930	37.5400
 1.2940	37.5200
 1.2950	37.4980
 1.2960	37.4770
 1.2970	37.4560
 1.2980	37.4320
 1.2990	37.4070
 1.3000	37.3830
 1.3010	37.3580
 1.3020	37.3330
 1.3030	37.3090
 1.3040	37.2820
 1.3050	37.2530
 1.3060	37.2220
 1.3070	37.1910
 1.3080	37.1620
 1.3090	37.1320
 1.3100	37.1010
 1.3110	37.0670
 1.3120	37.0310
 1.3130	36.9950
 1.3140	36.9590
 1.3150	36.9230
 1.3160	36.8840
 1.3170	36.8450
 1.3180	36.8050
 1.3190	36.7630
 1.3200	36.7220
 1.3210	36.6800
 1.3220	36.6360
 1.3230	36.5900
 1.3240	36.5430
 1.3250	36.4940
 1.3260	36.4460
 1.3270	36.3990
 1.3280	36.3490
 1.3290	36.2990
 1.3300	36.2460
 1.3310	36.1910
 1.3320	36.1340
 1.3330	36.0780
 1.3340	36.0210
 1.3350	35.9630
 1.3360	35.9060
 1.3370	35.8500
 1.3380	35.7930
 1.3390	35.7380
 1.3400	35.6810
 1.3410	35.6240
 1.3420	35.5660
 1.3430	35.5080
 1.3440	35.4510
 1.3450	35.3930
 1.3460	35.3350
 1.3470	35.2790
 1.3480	35.2220
 1.3490	35.1660
 1.3500	35.1120
 1.3510	35.0570
 1.3520	34.9990
 1.3530	34.9420
 1.3540	34.8850
 1.3550	34.8260
 1.3560	34.7680
 1.3570	34.7090
 1.3580	34.6490
 1.3590	34.5870
 1.3600	34.5240
 1.3610	34.4600
 1.3620	34.3950
 1.3630	34.3280
 1.3640	34.2580
 1.3650	34.1840
 1.3660	34.1080
 1.3670	34.0270
 1.3680	33.9410
 1.3690	33.8510
 1.3700	33.7520
 1.3710	33.6470
 1.3720	33.5350
 1.3730	33.4130
 1.3740	33.2840
 1.3750	33.1440
 1.3760	32.9920
 1.3770	32.8260
 1.3780	32.6430
 1.3790	32.4480
 1.3800	32.2390
 1.3810	32.0140
 1.3820	31.7740
 1.3830	31.5210
 1.3840	31.2520
 1.3850	30.9700
 1.3860	30.6730
 1.3870	30.3610
 1.3880	30.0390
 1.3890	29.7040
 1.3900	29.3580
 1.3910	29.0050
 1.3920	28.6420
 1.3930	28.2710
 1.3940	27.8960
 1.3950	27.5120
 1.3960	27.1290
 1.3970	26.7480
 1.3980	26.3670
 1.3990	25.9950
 1.4000	25.6280
 1.4010	25.2650
 1.4020	24.9120
 1.4030	24.5670
 1.4040	24.2350
 1.4050	23.9160
 1.4060	23.6060
 1.4070	23.3140
 1.4080	23.0340
 1.4090	22.7670
 1.4100	22.5170
 1.4110	22.2780
 1.4120	22.0530
 1.4130	21.8430
 1.4140	21.6440
 1.4150	21.4600
 1.4160	21.2900
 1.4170	21.1300
 1.4180	20.9810
 1.4190	20.8430
 1.4200	20.7150
 1.4210	20.5960
 1.4220	20.4850
 1.4230	20.3840
 1.4240	20.2910
 1.4250	20.2040
 1.4260	20.1260
 1.4270	20.0540
 1.4280	19.9900
 1.4290	19.9310
 1.4300	19.8800
 1.4310	19.8320
 1.4320	19.7900
 1.4330	19.7520
 1.4340	19.7190
 1.4350	19.6900
 1.4360	19.6660
 1.4370	19.6450
 1.4380	19.6280
 1.4390	19.6150
 1.4400	19.6030
 1.4410	19.5950
 1.4420	19.5900
 1.4430	19.5880
 1.4440	19.5870
 1.4450	19.5890
 1.4460	19.5910
 1.4470	19.5950
 1.4480	19.6000
 1.4490	19.6080
 1.4500	19.6170
 1.4510	19.6280
 1.4520	19.6410
 1.4530	19.6520
 1.4540	19.6660
 1.4550	19.6830
 1.4560	19.7020
 1.4570	19.7250
 1.4580	19.7490
 1.4590	19.7750
 1.4600	19.8060
 1.4610	19.8400
 1.4620	19.8780
 1.4630	19.9210
 1.4640	19.9660
 1.4650	20.0150
 1.4660	20.0690
 1.4670	20.1270
 1.4680	20.1890
 1.4690	20.2540
 1.4700	20.3210
 1.4710	20.3910
 1.4720	20.4650
 1.4730	20.5430
 1.4740	20.6260
 1.4750	20.7110
 1.4760	20.7980
 1.4770	20.8850
 1.4780	20.9740
 1.4790	21.0650
 1.4800	21.1560
 1.4810	21.2490
 1.4820	21.3450
 1.4830	21.4390
 1.4840	21.5360
 1.4850	21.6330
 1.4860	21.7290
 1.4870	21.8260
 1.4880	21.9240
 1.4890	22.0200
 1.4900	22.1180
 1.4910	22.2170
 1.4920	22.3160
 1.4930	22.4160
 1.4940	22.5150
 1.4950	22.6140
 1.4960	22.7140
 1.4970	22.8120
 1.4980	22.9120
 1.4990	23.0120
 1.5000	23.1110
 1.5010	23.2090
 1.5020	23.3070
 1.5030	23.4020
 1.5040	23.4990
 1.5050	23.5950
 1.5060	23.6910
 1.5070	23.7870
 1.5080	23.8830
 1.5090	23.9790
 1.5100	24.0740
 1.5110	24.1680
 1.5120	24.2630
 1.5130	24.3560
 1.5140	24.4490
 1.5150	24.5410
 1.5160	24.6320
 1.5170	24.7220
 1.5180	24.8120
 1.5190	24.9010
 1.5200	24.9890
 1.5210	25.0760
 1.5220	25.1610
 1.5230	25.2460
 1.5240	25.3310
 1.5250	25.4160
 1.5260	25.5000
 1.5270	25.5820
 1.5280	25.6640
 1.5290	25.7420
 1.5300	25.8200
 1.5310	25.8980
 1.5320	25.9730
 1.5330	26.0470
 1.5340	26.1220
 1.5350	26.1950
 1.5360	26.2670
 1.5370	26.3380
 1.5380	26.4080
 1.5390	26.4790
 1.5400	26.5500
 1.5410	26.6200
 1.5420	26.6880
 1.5430	26.7560
 1.5440	26.8220
 1.5450	26.8870
 1.5460	26.9520
 1.5470	27.0160
 1.5480	27.0790
 1.5490	27.1410
 1.5500	27.2030
 1.5510	27.2630
 1.5520	27.3220
 1.5530	27.3800
 1.5540	27.4380
 1.5550	27.4950
 1.5560	27.5520
 1.5570	27.6070
 1.5580	27.6620
 1.5590	27.7170
 1.5600	27.7710
 1.5610	27.8230
 1.5620	27.8730
 1.5630	27.9230
 1.5640	27.9720
 1.5650	28.0200
 1.5660	28.0680
 1.5670	28.1140
 1.5680	28.1600
 1.5690	28.2050
 1.5700	28.2500
 1.5710	28.2960
 1.5720	28.3410
 1.5730	28.3840
 1.5740	28.4260
 1.5750	28.4690
 1.5760	28.5120
 1.5770	28.5540
 1.5780	28.5960
 1.5790	28.6380
 1.5800	28.6780
 1.5810	28.7180
 1.5820	28.7580
 1.5830	28.7980
 1.5840	28.8390
 1.5850	28.8790
 1.5860	28.9200
 1.5870	28.9610
 1.5880	29.0000
 1.5890	29.0380
 1.5900	29.0770
 1.5910	29.1150
 1.5920	29.1540
 1.5930	29.1920
 1.5940	29.2300
 1.5950	29.2690
 1.5960	29.3070
 1.5970	29.3450
 1.5980	29.3840
 1.5990	29.4210
 1.6000	29.4570
 1.6010	29.4920
 1.6020	29.5250
 1.6030	29.5570
 1.6040	29.5900
 1.6050	29.6240
 1.6060	29.6570
 1.6070	29.6910
 1.6080	29.7240
 1.6090	29.7550
 1.6100	29.7870
 1.6110	29.8170
 1.6120	29.8470
 1.6130	29.8780
 1.6140	29.9080
 1.6150	29.9360
 1.6160	29.9650
 1.6170	29.9900
 1.6180	30.0160
 1.6190	30.0430
 1.6200	30.0670
 1.6210	30.0940
 1.6220	30.1190
 1.6230	30.1410
 1.6240	30.1640
 1.6250	30.1870
 1.6260	30.2080
 1.6270	30.2310
 1.6280	30.2540
 1.6290	30.2760
 1.6300	30.2990
 1.6310	30.3190
 1.6320	30.3360
 1.6330	30.3540
 1.6340	30.3710
 1.6350	30.3890
 1.6360	30.4080
 1.6370	30.4250
 1.6380	30.4410
 1.6390	30.4560
 1.6400	30.4690
 1.6410	30.4820
 1.6420	30.4940
 1.6430	30.5050
 1.6440	30.5160
 1.6450	30.5260
 1.6460	30.5330
 1.6470	30.5420
 1.6480	30.5500
 1.6490	30.5550
 1.6500	30.5620
 1.6510	30.5660
 1.6520	30.5660
 1.6530	30.5690
 1.6540	30.5690
 1.6550	30.5650
 1.6560	30.5640
 1.6570	30.5610
 1.6580	30.5560
 1.6590	30.5530
 1.6600	30.5460
 1.6610	30.5390
 1.6620	30.5320
 1.6630	30.5240
 1.6640	30.5160
 1.6650	30.5070
 1.6660	30.5000
 1.6670	30.4930
 1.6680	30.4840
 1.6690	30.4740
 1.6700	30.4610
 1.6710	30.4470
 1.6720	30.4340
 1.6730	30.4190
 1.6740	30.4010
 1.6750	30.3830
 1.6760	30.3610
 1.6770	30.3380
 1.6780	30.3140
 1.6790	30.2890
 1.6800	30.2630
 1.6810	30.2350
 1.6820	30.2080
 1.6830	30.1800
 1.6840	30.1480
 1.6850	30.1170
 1.6860	30.0850
 1.6870	30.0510
 1.6880	30.0190
 1.6890	29.9860
 1.6900	29.9540
 1.6910	29.9220
 1.6920	29.8910
 1.6930	29.8600
 1.6940	29.8300
 1.6950	29.8010
 1.6960	29.7710
 1.6970	29.7420
 1.6980	29.7120
 1.6990	29.6820
 1.7000	29.6520
 1.7010	29.6240
 1.7020	29.5920
 1.7030	29.5600
 1.7040	29.5290
 1.7050	29.4960
 1.7060	29.4650
 1.7070	29.4350
 1.7080	29.4040
 1.7090	29.3730
 1.7100	29.3400
 1.7110	29.3060
 1.7120	29.2740
 1.7130	29.2420
 1.7140	29.2120
 1.7150	29.1840
 1.7160	29.1530
 1.7170	29.1210
 1.7180	29.0920
 1.7190	29.0630
 1.7200	29.0340
 1.7210	29.0060
 1.7220	28.9770
 1.7230	28.9480
 1.7240	28.9220
 1.7250	28.8960
 1.7260	28.8690
 1.7270	28.8430
 1.7280	28.8180
 1.7290	28.7940
 1.7300	28.7730
 1.7310	28.7520
 1.7320	28.7330
 1.7330	28.7150
 1.7340	28.7000
 1.7350	28.6840
 1.7360	28.6700
 1.7370	28.6530
 1.7380	28.6360
 1.7390	28.6160
 1.7400	28.5950
 1.7410	28.5700
 1.7420	28.5410
 1.7430	28.5120
 1.7440	28.4810
 1.7450	28.4500
 1.7460	28.4170
 1.7470	28.3840
 1.7480	28.3490
 1.7490	28.3140
 1.7500	28.2780
 1.7510	28.2410
 1.7520	28.2020
 1.7530	28.1630
 1.7540	28.1240
 1.7550	28.0840
 1.7560	28.0440
 1.7570	28.0080
 1.7580	27.9700
 1.7590	27.9320
 1.7600	27.8950
 1.7610	27.8600
 1.7620	27.8270
 1.7630	27.7970
 1.7640	27.7680
 1.7650	27.7410
 1.7660	27.7130
 1.7670	27.6830
 1.7680	27.6580
 1.7690	27.6370
 1.7700	27.6140
 1.7710	27.5930
 1.7720	27.5720
 1.7730	27.5480
 1.7740	27.5270
 1.7750	27.5070
 1.7760	27.4870
 1.7770	27.4660
 1.7780	27.4470
 1.7790	27.4290
 1.7800	27.4130
 1.7810	27.4000
 1.7820	27.3870
 1.7830	27.3780
 1.7840	27.3680
 1.7850	27.3570
 1.7860	27.3500
 1.7870	27.3460
 1.7880	27.3410
 1.7890	27.3410
 1.7900	27.3360
 1.7910	27.3330
 1.7920	27.3310
 1.7930	27.3300
 1.7940	27.3310
 1.7950	27.3320
 1.7960	27.3340
 1.7970	27.3370
 1.7980	27.3420
 1.7990	27.3450
 1.8000	27.3460
 1.8010	27.3500
 1.8020	27.3550
 1.8030	27.3600
 1.8040	27.3670
 1.8050	27.3720
 1.8060	27.3750
 1.8070	27.3780
 1.8080	27.3810
 1.8090	27.3830
 1.8100	27.3840
 1.8110	27.3850
 1.8120	27.3850
 1.8130	27.3870
 1.8140	27.3900
 1.8150	27.3940
 1.8160	27.3950
 1.8170	27.3920
 1.8180	27.3880
 1.8190	27.3880
 1.8200	27.3870
 1.8210	27.3890
 1.8220	27.3870
 1.8230	27.3830
 1.8240	27.3780
 1.8250	27.3730
 1.8260	27.3660
 1.8270	27.3580
 1.8280	27.3500
 1.8290	27.3420
 1.8300	27.3320
 1.8310	27.2790
 1.8320	27.2640
 1.8330	27.2440
 1.8340	27.2250
 1.8350	27.2000
 1.8360	27.1700
 1.8370	27.1410
 1.8380	27.1090
 1.8390	27.0750
 1.8400	27.0390
 1.8410	27.0000
 1.8420	26.9570
 1.8430	26.9130
 1.8440	26.8610
 1.8450	26.8060
 1.8460	26.7450
 1.8470	26.6800
 1.8480	26.6080
 1.8490	26.5270
 1.8500	26.4390
 1.8510	26.3450
 1.8520	26.2380
 1.8530	26.1220
 1.8540	26.0040
 1.8550	25.8710
 1.8560	25.7260
 1.8570	25.5770
 1.8580	25.4140
 1.8590	25.2400
 1.8600	25.0560
 1.8610	24.8640
 1.8620	24.6500
 1.8630	24.4240
 1.8640	24.1880
 1.8650	23.9320
 1.8660	23.6620
 1.8670	23.3770
 1.8680	23.0720
 1.8690	22.7480
 1.8700	22.4060
 1.8710	22.0470
 1.8720	21.6720
 1.8730	21.2800
 1.8740	20.8740
 1.8750	20.4550
 1.8760	20.0220
 1.8770	19.5800
 1.8780	19.1310
 1.8790	18.6700
 1.8800	18.2080
 1.8810	17.7400
 1.8820	17.2650
 1.8830	16.7840
 1.8840	16.3030
 1.8850	15.8150
 1.8860	15.3280
 1.8870	14.8490
 1.8880	14.3730
 1.8890	13.9110
 1.8900	13.4610
 1.8910	13.0300
 1.8920	12.6110
 1.8930	12.2160
 1.8940	11.8340
 1.8950	11.4730
 1.8960	11.1300
 1.8970	10.8050
 1.8980	10.5070
 1.8990	10.2330
 1.9000	 9.9760
 1.9010	 9.7430
 1.9020	 9.5240
 1.9030	 9.3250
 1.9040	 9.1390
 1.9050	 8.9740
 1.9060	 8.8280
 1.9070	 8.6960
 1.9080	 8.5780
 1.9090	 8.4710
 1.9100	 8.3730
 1.9110	 8.2850
 1.9120	 8.2090
 1.9130	 8.1420
 1.9140	 8.0870
 1.9150	 8.0380
 1.9160	 7.9920
 1.9170	 7.9500
 1.9180	 7.9130
 1.9190	 7.8800
 1.9200	 7.8540
 1.9210	 7.8390
 1.9220	 7.8230
 1.9230	 7.8120
 1.9240	 7.8040
 1.9250	 7.8010
 1.9260	 7.7960
 1.9270	 7.7930
 1.9280	 7.7930
 1.9290	 7.7940
 1.9300	 7.7990
 1.9310	 7.8090
 1.9320	 7.8240
 1.9330	 7.8410
 1.9340	 7.8610
 1.9350	 7.8820
 1.9360	 7.9060
 1.9370	 7.9310
 1.9380	 7.9580
 1.9390	 7.9890
 1.9400	 8.0210
 1.9410	 8.0540
 1.9420	 8.0890
 1.9430	 8.1230
 1.9440	 8.1610
 1.9450	 8.2000
 1.9460	 8.2410
 1.9470	 8.2860
 1.9480	 8.3300
 1.9490	 8.3760
 1.9500	 8.4210
 1.9510	 8.4670
 1.9520	 8.5150
 1.9530	 8.5650
 1.9540	 8.6190
 1.9550	 8.6740
 1.9560	 8.7320
 1.9570	 8.7900
 1.9580	 8.8510
 1.9590	 8.9100
 1.9600	 8.9680
 1.9610	 9.0280
 1.9620	 9.0880
 1.9630	 9.1470
 1.9640	 9.2100
 1.9650	 9.2760
 1.9660	 9.3400
 1.9670	 9.4060
 1.9680	 9.4730
 1.9690	 9.5400
 1.9700	 9.6080
 1.9710	 9.6760
 1.9720	 9.7470
 1.9730	 9.8190
 1.9740	 9.8940
 1.9750	 9.9650
 1.9760	10.0400
 1.9770	10.1130
 1.9780	10.1840
 1.9790	10.2620
 1.9800	10.3470
 1.9810	10.4270
 1.9820	10.5100
 1.9830	10.5890
 1.9840	10.6610
 1.9850	10.7370
 1.9860	10.8140
 1.9870	10.8920
 1.9880	10.9740
 1.9890	11.0550
 1.9900	11.1360
 1.9910	11.2180
 1.9920	11.3000
 1.9930	11.3830
 1.9940	11.4660
 1.9950	11.5500
 1.9960	11.6340
 1.9970	11.7170
 1.9980	11.8010
 1.9990	11.8840
 2.0000	11.9700
 2.0010	12.0520
 2.0020	12.1360
 2.0030	12.2210
 2.0040	12.3010
 2.0050	12.3810
 2.0060	12.4610
 2.0070	12.5390
 2.0080	12.6150
 2.0090	12.6930
 2.0100	12.7720
 2.0110	12.8500
 2.0120	12.9290
 2.0130	13.0080
 2.0140	13.0850
 2.0150	13.1580
 2.0160	13.2340
 2.0170	13.3080
 2.0180	13.3810
 2.0190	13.4540
 2.0200	13.5240
 2.0210	13.5910
 2.0220	13.6600
 2.0230	13.7300
 2.0240	13.7960
 2.0250	13.8620
 2.0260	13.9260
 2.0270	13.9860
 2.0280	14.0480
 2.0290	14.1070
 2.0300	14.1660
 2.0310	14.2240
 2.0320	14.2820
 2.0330	14.3390
 2.0340	14.3950
 2.0350	14.4510
 2.0360	14.5080
 2.0370	14.5600
 2.0380	14.6090
 2.0390	14.6590
 2.0400	14.7060
 2.0410	14.7530
 2.0420	14.8010
 2.0430	14.8490
 2.0440	14.8940
 2.0450	14.9360
 2.0460	14.9810
 2.0470	15.0260
 2.0480	15.0700
 2.0490	15.1130
 2.0500	15.1550
 2.0510	15.1950
 2.0520	15.2370
 2.0530	15.2800
 2.0540	15.3230
 2.0550	15.3670
 2.0560	15.4110
 2.0570	15.4560
 2.0580	15.5000
 2.0590	15.5450
 2.0600	15.5910
 2.0610	15.6380
 2.0620	15.6860
 2.0630	15.7340
 2.0640	15.7830
 2.0650	15.8320
 2.0660	15.8810
 2.0670	15.9300
 2.0680	15.9820
 2.0690	16.0310
 2.0700	16.0790
 2.0710	16.1260
 2.0720	16.1710
 2.0730	16.2150
 2.0740	16.2600
 2.0750	16.3030
 2.0760	16.3510
 2.0770	16.4020
 2.0780	16.4510
 2.0790	16.5060
 2.0800	16.5550
 2.0810	16.6000
 2.0820	16.6490
 2.0830	16.6980
 2.0840	16.7450
 2.0850	16.7940
 2.0860	16.8420
 2.0870	16.8860
 2.0880	16.9340
 2.0890	16.9790
 2.0900	17.0220
 2.0910	17.0660
 2.0920	17.1090
 2.0930	17.1530
 2.0940	17.1970
 2.0950	17.2410
 2.0960	17.2840
 2.0970	17.3260
 2.0980	17.3710
 2.0990	17.4130
 2.1000	17.4510
 2.1010	17.4930
 2.1020	17.5370
 2.1030	17.5800
 2.1040	17.6230
 2.1050	17.6650
 2.1060	17.7050
 2.1070	17.7420
 2.1080	17.7820
 2.1090	17.8220
 2.1100	17.8630
 2.1110	17.9060
 2.1120	17.9480
 2.1130	17.9900
 2.1140	18.0310
 2.1150	18.0730
 2.1160	18.1130
 2.1170	18.1510
 2.1180	18.1880
 2.1190	18.2230
 2.1200	18.2600
 2.1210	18.2980
 2.1220	18.3370
 2.1230	18.3750
 2.1240	18.4140
 2.1250	18.4500
 2.1260	18.4830
 2.1270	18.5170
 2.1280	18.5500
 2.1290	18.5830
 2.1300	18.6160
 2.1310	18.6480
 2.1320	18.6780
 2.1330	18.7080
 2.1340	18.7390
 2.1350	18.7690
 2.1360	18.8000
 2.1370	18.8270
 2.1380	18.8490
 2.1390	18.8740
 2.1400	18.8980
 2.1410	18.9220
 2.1420	18.9460
 2.1430	18.9740
 2.1440	18.9960
 2.1450	19.0150
 2.1460	19.0360
 2.1470	19.0580
 2.1480	19.0770
 2.1490	19.0970
 2.1500	19.1140
 2.1510	19.1270
 2.1520	19.1430
 2.1530	19.1600
 2.1540	19.1760
 2.1550	19.1950
 2.1560	19.2110
 2.1570	19.2280
 2.1580	19.2410
 2.1590	19.2490
 2.1600	19.2570
 2.1610	19.2660
 2.1620	19.2730
 2.1630	19.2820
 2.1640	19.2920
 2.1650	19.3030
 2.1660	19.3160
 2.1670	19.3260
 2.1680	19.3380
 2.1690	19.3490
 2.1700	19.3530
 2.1710	19.3630
 2.1720	19.3780
 2.1730	19.3910
 2.1740	19.4070
 2.1750	19.4210
 2.1760	19.4360
 2.1770	19.4490
 2.1780	19.4600
 2.1790	19.4730
 2.1800	19.4900
 2.1810	19.5030
 2.1820	19.5120
 2.1830	19.5270
 2.1840	19.5420
 2.1850	19.5560
 2.1860	19.5700
 2.1870	19.5890
 2.1880	19.6020
 2.1890	19.6080
 2.1900	19.6220
 2.1910	19.6410
 2.1920	19.6560
 2.1930	19.6760
 2.1940	19.6890
 2.1950	19.6970
 2.1960	19.7040
 2.1970	19.7060
 2.1980	19.7130
 2.1990	19.7210
 2.2000	19.7290
 2.2010	19.7410
 2.2020	19.7480
 2.2030	19.7490
 2.2040	19.7510
 2.2050	19.7530
 2.2060	19.7490
 2.2070	19.7480
 2.2080	19.7460
 2.2090	19.7440
 2.2100	19.7420
 2.2110	19.7370
 2.2120	19.7320
 2.2130	19.7260
 2.2140	19.7190
 2.2150	19.7120
 2.2160	19.7080
 2.2170	19.6990
 2.2180	19.6850
 2.2190	19.6740
 2.2200	19.6620
 2.2210	19.6490
 2.2220	19.6350
 2.2230	19.6200
 2.2240	19.6030
 2.2250	19.5830
 2.2260	19.5630
 2.2270	19.5380
 2.2280	19.5070
 2.2290	19.4740
 2.2300	19.4380
 2.2310	19.4010
 2.2320	19.3620
 2.2330	19.3150
 2.2340	19.2660
 2.2350	19.2120
 2.2360	19.1560
 2.2370	19.0940
 2.2380	19.0350
 2.2390	18.9720
 2.2400	18.9110
 2.2410	18.8500
 2.2420	18.7920
 2.2430	18.7340
 2.2440	18.6780
 2.2450	18.6230
 2.2460	18.5710
 2.2470	18.5200
 2.2480	18.4720
 2.2490	18.4280
 2.2500	18.3840
 2.2510	18.3410
 2.2520	18.2970
 2.2530	18.2550
 2.2540	18.2100
 2.2550	18.1610
 2.2560	18.1160
 2.2570	18.0720
 2.2580	18.0260
 2.2590	17.9830
 2.2600	17.9360
 2.2610	17.8840
 2.2620	17.8330
 2.2630	17.7770
 2.2640	17.7180
 2.2650	17.6680
 2.2660	17.6180
 2.2670	17.5700
 2.2680	17.5300
 2.2690	17.4820
 2.2700	17.4300
 2.2710	17.3820
 2.2720	17.3340
 2.2730	17.2870
 2.2740	17.2420
 2.2750	17.1990
 2.2760	17.1580
 2.2770	17.1200
 2.2780	17.0850
 2.2790	17.0500
 2.2800	17.0130
 2.2810	16.9830
 2.2820	16.9590
 2.2830	16.9290
 2.2840	16.8990
 2.2850	16.8670
 2.2860	16.8260
 2.2870	16.7920
 2.2880	16.7630
 2.2890	16.7300
 2.2900	16.7030
 2.2910	16.6670
 2.2920	16.6250
 2.2930	16.5830
 2.2940	16.5360
 2.2950	16.4900
 2.2960	16.4460
 2.2970	16.4000
 2.2980	16.3540
 2.2990	16.3050
 2.3000	16.2560
 2.3010	16.2080
 2.3020	16.1580
 2.3030	16.1050
 2.3040	16.0510
 2.3050	15.9990
 2.3060	15.9430
 2.3070	15.8880
 2.3080	15.8380
 2.3090	15.7900
 2.3100	15.7500
 2.3110	15.7190
 2.3120	15.6880
 2.3130	15.6640
 2.3140	15.6360
 2.3150	15.6080
 2.3160	15.5820
 2.3170	15.5520
 2.3180	15.5310
 2.3190	15.5210
 2.3200	15.5010
 2.3210	15.4790
 2.3220	15.4600
 2.3230	15.4390
 2.3240	15.4160
 2.3250	15.3970
 2.3260	15.3730
 2.3270	15.3390
 2.3280	15.3130
 2.3290	15.2930
 2.3300	15.2650
 2.3310	15.2370
 2.3320	15.2060
 2.3330	15.1650
 2.3340	15.1260
 2.3350	15.0850
 2.3360	15.0460
 2.3370	15.0080
 2.3380	14.9710
 2.3390	14.9390
 2.3400	14.8990
 2.3410	14.8520
 2.3420	14.8090
 2.3430	14.7630
 2.3440	14.7250
 2.3450	14.6910
 2.3460	14.6600
 2.3470	14.6370
 2.3480	14.6080
 2.3490	14.5790
 2.3500	14.5500
 2.3510	14.5130
 2.3520	14.4820
 2.3530	14.4540
 2.3540	14.4250
 2.3550	14.3920
 2.3560	14.3700
 2.3570	14.3550
 2.3580	14.3360
 2.3590	14.3250
 2.3600	14.3070
 2.3610	14.2770
 2.3620	14.2450
 2.3630	14.2070
 2.3640	14.1780
 2.3650	14.1490
 2.3660	14.1130
 2.3670	14.0810
 2.3680	14.0520
 2.3690	14.0200
 2.3700	13.9950
 2.3710	13.9760
 2.3720	13.9380
 2.3730	13.8940
 2.3740	13.8560
 2.3750	13.8100
 2.3760	13.7620
 2.3770	13.7230
 2.3780	13.6900
 2.3790	13.6520
 2.3800	13.6150
 2.3810	13.5670
 2.3820	13.5160
 2.3830	13.4780
 2.3840	13.4340
 2.3850	13.3980
 2.3860	13.3600
 2.3870	13.3110
 2.3880	13.2800
 2.3890	13.2480
 2.3900	13.2090
 2.3910	13.1770
 2.3920	13.1270
 2.3930	13.0760
 2.3940	13.0440
 2.3950	13.0060
 2.3960	12.9680
 2.3970	12.9260
 2.3980	12.8750
 2.3990	12.8320
 2.4000	12.7810
 2.4010	12.7300
 2.4020	12.6900
 2.4030	12.6530
 2.4040	12.6240
 2.4050	12.5830
 2.4060	12.5330
 2.4070	12.4820
 2.4080	12.4110
 2.4090	12.3490
 2.4100	12.3190
 2.4110	12.2800
 2.4120	12.2450
 2.4130	12.2330
 2.4140	12.2000
 2.4150	12.1520
 2.4160	12.1060
 2.4170	12.0310
 2.4180	11.9610
 2.4190	11.9170
 2.4200	11.8770
 2.4210	11.8470
 2.4220	11.8040
 2.4230	11.7580
 2.4240	11.7090
 2.4250	11.6480
 2.4260	11.6100
 2.4270	11.5550
 2.4280	11.4770
 2.4290	11.4320
 2.4300	11.3840
 2.4310	11.3250
 2.4320	11.2820
 2.4330	11.2260
 2.4340	11.1640
 2.4350	11.1190
 2.4360	11.0810
 2.4370	11.0290
 2.4380	10.9720
 2.4390	10.9230
 2.4400	10.8770
 2.4410	10.8290
 2.4420	10.7990
 2.4430	10.7610
 2.4440	10.6890
 2.4450	10.6300
 2.4460	10.5690
 2.4470	10.5000
 2.4480	10.4550
 2.4490	10.4190
 2.4500	10.3830
 2.4510	10.3360
 2.4520	10.2970
 2.4530	10.2550
 2.4540	10.2240
 2.4550	10.1990
 2.4560	10.1560
 2.4570	10.1150
 2.4580	10.0490
 2.4590	 9.9910
 2.4600	 9.9600
 2.4610	 9.8990
 2.4620	 9.8510
 2.4630	 9.8190
 2.4640	 9.7720
 2.4650	 9.7510
 2.4660	 9.7200
 2.4670	 9.6640
 2.4680	 9.6130
 2.4690	 9.5490
 2.4700	 9.5090
 2.4710	 9.4820
 2.4720	 9.4370
 2.4730	 9.3900
 2.4740	 9.3480
 2.4750	 9.3070
 2.4760	 9.2780
 2.4770	 9.2650
 2.4780	 9.2490
 2.4790	 9.2360
 2.4800	 9.1950
 2.4810	 9.1360
 2.4820	 9.0700
 2.4830	 9.0390
 2.4840	 9.0650
 2.4850	 9.0830
 2.4860	 9.1180
 2.4870	 9.1260
 2.4880	 9.0670
 2.4890	 9.0140
 2.4900	 8.9690
 2.4910	 8.9550
 2.4920	 8.9920
 2.4930	 9.0090
 2.4940	 9.0000
 2.4950	 8.9600
 2.4960	 8.8920
 2.4970	 8.8120
 2.4980	 8.7420
 2.4990	 8.7250
 2.5000	 8.6760
