Name: Heteromeles arbutifolia 2
Type: vegetation
Class: Shrub
Genus: Heteromeles
Species: arbutifolia
Sample No.: VH207
Owner: UCSB
Wavelength Range: TIR
Origin: 34.4907; -119.7912; WGS84
Collection Date: 10/13/2013
Description: Samples were collected as part of the HyspIRI Airborne Campaign. 48 individual plants were sampled in three times in 2013 - spring  summer  and fall. The name of the sample includes a 1  2  or 3 which references a different individual of the species. Samples were taken to JPL and processed within 48 hours of collection. The same leaves were processed in the Nicolet and then measured using the ASD.
Measurement: Hemispherical reflectance
First Column: X
Second Column: Y
X Units: Wavelength (micrometers)
Y Units: Reflectance (percentage)
First X Value: 2.501
Last X Value: 15.387
Number of X Values: 1737
Additional Information: vegetation.shrub.heteromeles.arbutifolia.tir.vh207.ucsb.nicolet.ancillary.txt

 2.5010	 6.1420
 2.5030	 6.1630
 2.5040	 6.0550
 2.5050	 5.9990
 2.5060	 6.1420
 2.5070	 6.3070
 2.5090	 6.1720
 2.5100	 6.0720
 2.5110	 6.1420
 2.5120	 6.0840
 2.5140	 6.1800
 2.5150	 6.2320
 2.5160	 6.3430
 2.5170	 6.3400
 2.5180	 6.2150
 2.5200	 6.0960
 2.5210	 6.1100
 2.5220	 6.0750
 2.5230	 6.0920
 2.5250	 6.1530
 2.5260	 6.2970
 2.5270	 6.2740
 2.5280	 5.9370
 2.5290	 5.7710
 2.5310	 5.9140
 2.5320	 5.8420
 2.5330	 5.8890
 2.5340	 5.9680
 2.5360	 6.0440
 2.5370	 6.0270
 2.5380	 6.0420
 2.5390	 6.1460
 2.5410	 6.2300
 2.5420	 5.9950
 2.5430	 5.9000
 2.5440	 5.9960
 2.5460	 5.8690
 2.5470	 5.7180
 2.5480	 5.9890
 2.5490	 6.1220
 2.5510	 6.1120
 2.5520	 5.9070
 2.5530	 5.9640
 2.5540	 5.8490
 2.5560	 5.8530
 2.5570	 5.9540
 2.5580	 6.0860
 2.5590	 6.1850
 2.5610	 6.2790
 2.5620	 6.3030
 2.5630	 6.2360
 2.5640	 6.0490
 2.5660	 6.0390
 2.5670	 6.0990
 2.5680	 6.1060
 2.5700	 6.0240
 2.5710	 6.2210
 2.5720	 6.2640
 2.5730	 6.1600
 2.5750	 6.1190
 2.5760	 6.2080
 2.5770	 6.2350
 2.5790	 6.1580
 2.5800	 6.1220
 2.5810	 6.1270
 2.5820	 6.2750
 2.5840	 6.1270
 2.5850	 5.8140
 2.5860	 5.9520
 2.5880	 6.1570
 2.5890	 6.0690
 2.5900	 5.8210
 2.5910	 5.9770
 2.5930	 6.1960
 2.5940	 6.3520
 2.5950	 6.2960
 2.5970	 6.1030
 2.5980	 5.9430
 2.5990	 5.9480
 2.6000	 5.8560
 2.6020	 6.0060
 2.6030	 5.9460
 2.6040	 5.9000
 2.6060	 5.9930
 2.6070	 5.9230
 2.6080	 5.8930
 2.6100	 5.8630
 2.6110	 5.8190
 2.6120	 5.8150
 2.6140	 5.6540
 2.6150	 5.7050
 2.6160	 5.7930
 2.6180	 5.8090
 2.6190	 5.6940
 2.6200	 5.6390
 2.6220	 5.5390
 2.6230	 5.6320
 2.6240	 5.5970
 2.6260	 5.6310
 2.6270	 5.7730
 2.6280	 5.7880
 2.6300	 5.7090
 2.6310	 5.6830
 2.6320	 5.5580
 2.6340	 5.4920
 2.6350	 5.3920
 2.6360	 5.4340
 2.6380	 5.2920
 2.6390	 5.1800
 2.6400	 5.1790
 2.6420	 5.2260
 2.6430	 5.2090
 2.6440	 5.3680
 2.6460	 5.3900
 2.6470	 5.3950
 2.6480	 5.2380
 2.6500	 5.0130
 2.6510	 5.0140
 2.6520	 5.2710
 2.6540	 5.2740
 2.6550	 5.4580
 2.6560	 5.4640
 2.6580	 5.1320
 2.6590	 5.0440
 2.6610	 5.2550
 2.6620	 5.2020
 2.6630	 5.0340
 2.6650	 4.7880
 2.6660	 4.9150
 2.6670	 5.0400
 2.6690	 4.9670
 2.6700	 4.8210
 2.6720	 4.7700
 2.6730	 4.8620
 2.6740	 4.9970
 2.6760	 4.8790
 2.6770	 4.9170
 2.6780	 5.0150
 2.6800	 5.0650
 2.6810	 5.0700
 2.6830	 5.0170
 2.6840	 4.9300
 2.6850	 4.9680
 2.6870	 4.8990
 2.6880	 4.8280
 2.6900	 4.7830
 2.6910	 4.9770
 2.6920	 4.9740
 2.6940	 4.9560
 2.6950	 4.9430
 2.6970	 4.9910
 2.6980	 4.9370
 2.6990	 4.9970
 2.7010	 4.7450
 2.7020	 4.7660
 2.7040	 4.8100
 2.7050	 4.8020
 2.7060	 4.6370
 2.7080	 4.7120
 2.7090	 4.7690
 2.7110	 4.8920
 2.7120	 4.7600
 2.7130	 4.8440
 2.7150	 4.8550
 2.7160	 4.8270
 2.7180	 4.6400
 2.7190	 4.6220
 2.7210	 4.6580
 2.7220	 4.7700
 2.7230	 4.6250
 2.7250	 4.6560
 2.7260	 4.6760
 2.7280	 4.7400
 2.7290	 4.4870
 2.7310	 4.4790
 2.7320	 4.6730
 2.7330	 4.7960
 2.7350	 4.7610
 2.7360	 4.5980
 2.7380	 4.7710
 2.7390	 5.0850
 2.7410	 4.8210
 2.7420	 4.5850
 2.7440	 4.6650
 2.7450	 4.9840
 2.7470	 5.0540
 2.7480	 5.3770
 2.7490	 5.3120
 2.7510	 5.1190
 2.7520	 4.9190
 2.7540	 4.2840
 2.7550	 4.2670
 2.7570	 4.8170
 2.7580	 4.9000
 2.7600	 4.6720
 2.7610	 4.9100
 2.7630	 5.2200
 2.7640	 5.3980
 2.7660	 5.3170
 2.7670	 4.8190
 2.7680	 4.6790
 2.7700	 4.6900
 2.7710	 4.6790
 2.7730	 4.8070
 2.7740	 5.0770
 2.7760	 4.8740
 2.7770	 4.3640
 2.7790	 4.0770
 2.7800	 4.4730
 2.7820	 4.5820
 2.7830	 4.8340
 2.7850	 4.8260
 2.7860	 4.8270
 2.7880	 4.8740
 2.7890	 4.6260
 2.7910	 4.4960
 2.7920	 4.6220
 2.7940	 4.6750
 2.7950	 4.7010
 2.7970	 4.6370
 2.7980	 4.6740
 2.8000	 4.5940
 2.8010	 4.5620
 2.8030	 4.7270
 2.8040	 4.8070
 2.8060	 4.6140
 2.8070	 4.4870
 2.8090	 4.5290
 2.8110	 4.7380
 2.8120	 4.7890
 2.8140	 4.6570
 2.8150	 4.7720
 2.8170	 4.9920
 2.8180	 4.8930
 2.8200	 4.6840
 2.8210	 4.4020
 2.8230	 4.4780
 2.8240	 4.4750
 2.8260	 4.4600
 2.8270	 4.5600
 2.8290	 4.6550
 2.8300	 4.5790
 2.8320	 4.5390
 2.8340	 4.5930
 2.8350	 4.4800
 2.8370	 4.5380
 2.8380	 4.7070
 2.8400	 4.6360
 2.8410	 4.5880
 2.8430	 4.5020
 2.8440	 4.6090
 2.8460	 4.7900
 2.8480	 4.9620
 2.8490	 4.8790
 2.8510	 4.6410
 2.8520	 4.6250
 2.8540	 4.6070
 2.8550	 4.5830
 2.8570	 4.7160
 2.8590	 4.6430
 2.8600	 4.4730
 2.8620	 4.5180
 2.8630	 4.6350
 2.8650	 4.5300
 2.8660	 4.5420
 2.8680	 4.8800
 2.8700	 4.8710
 2.8710	 4.4680
 2.8730	 4.6980
 2.8740	 5.0420
 2.8760	 4.7890
 2.8780	 4.8230
 2.8790	 5.3170
 2.8810	 5.5280
 2.8820	 5.1260
 2.8840	 4.6560
 2.8860	 4.3040
 2.8870	 4.0240
 2.8890	 4.0940
 2.8900	 4.2700
 2.8920	 4.4370
 2.8940	 4.5150
 2.8950	 4.5310
 2.8970	 4.3790
 2.8980	 4.4780
 2.9000	 4.5900
 2.9020	 4.6830
 2.9030	 4.3740
 2.9050	 4.7440
 2.9070	 5.2940
 2.9080	 5.4990
 2.9100	 5.0080
 2.9120	 4.4510
 2.9130	 4.4980
 2.9150	 4.6880
 2.9160	 4.6720
 2.9180	 4.6170
 2.9200	 4.6080
 2.9210	 4.6490
 2.9230	 4.7540
 2.9250	 4.7560
 2.9260	 4.5700
 2.9280	 4.7030
 2.9300	 4.7360
 2.9310	 4.6650
 2.9330	 4.6830
 2.9350	 4.6580
 2.9360	 4.4810
 2.9380	 4.7280
 2.9400	 4.6950
 2.9410	 4.2880
 2.9430	 4.4540
 2.9450	 4.8180
 2.9460	 4.7610
 2.9480	 5.0000
 2.9500	 4.9510
 2.9510	 4.7650
 2.9530	 4.2700
 2.9550	 4.2330
 2.9560	 4.4490
 2.9580	 4.8420
 2.9600	 4.8860
 2.9610	 4.7580
 2.9630	 4.6860
 2.9650	 4.9920
 2.9660	 4.7800
 2.9680	 4.4650
 2.9700	 3.6710
 2.9720	 3.8450
 2.9730	 3.3400
 2.9750	 3.8720
 2.9770	 4.7090
 2.9780	 4.6840
 2.9800	 4.5630
 2.9820	 4.6920
 2.9840	 5.1270
 2.9850	 6.4880
 2.9870	 6.4200
 2.9890	 4.2400
 2.9900	 3.0470
 2.9920	 3.8220
 2.9940	 4.1060
 2.9960	 4.4990
 2.9970	 7.3380
 2.9990	 7.9360
 3.0010	 5.2730
 3.0030	 3.0370
 3.0040	 1.9820
 3.0060	 2.6620
 3.0080	 5.1170
 3.0100	 5.5840
 3.0110	 5.0650
 3.0130	 4.3600
 3.0150	 4.7460
 3.0170	 6.4090
 3.0180	 7.1560
 3.0200	 6.3060
 3.0220	 4.9820
 3.0240	 4.8970
 3.0250	 4.9150
 3.0270	 4.4070
 3.0290	 4.9450
 3.0310	 4.7620
 3.0320	 2.9650
 3.0340	 3.7800
 3.0360	 4.8640
 3.0380	 4.2990
 3.0400	 3.7580
 3.0410	 5.6700
 3.0430	 7.2460
 3.0450	 5.6300
 3.0470	 3.9150
 3.0480	 3.5200
 3.0500	 4.2860
 3.0520	 4.7320
 3.0540	 4.8630
 3.0560	 4.6010
 3.0570	 6.9960
 3.0590	 8.0160
 3.0610	 6.9620
 3.0630	 6.4130
 3.0650	 4.7120
 3.0660	 6.0390
 3.0680	 5.7330
 3.0700	 4.4630
 3.0720	 3.6780
 3.0740	 3.9380
 3.0760	 4.7330
 3.0770	 4.7100
 3.0790	 4.6280
 3.0810	 5.0200
 3.0830	 4.8540
 3.0850	 4.7800
 3.0870	 4.7080
 3.0880	 4.7000
 3.0900	 4.5960
 3.0920	 4.5480
 3.0940	 4.7730
 3.0960	 5.0250
 3.0980	 4.9470
 3.0990	 4.9900
 3.1010	 5.0640
 3.1030	 4.8520
 3.1050	 4.5730
 3.1070	 4.5580
 3.1090	 4.5310
 3.1110	 4.7860
 3.1120	 4.8190
 3.1140	 4.6550
 3.1160	 4.8080
 3.1180	 4.9880
 3.1200	 4.8330
 3.1220	 4.3940
 3.1240	 4.4610
 3.1260	 5.0020
 3.1270	 5.1180
 3.1290	 4.7680
 3.1310	 4.7690
 3.1330	 5.2770
 3.1350	 4.9220
 3.1370	 4.9800
 3.1390	 5.0510
 3.1410	 4.2430
 3.1430	 4.8050
 3.1450	 5.5830
 3.1460	 4.6820
 3.1480	 4.3350
 3.1500	 4.9840
 3.1520	 4.9100
 3.1540	 4.5790
 3.1560	 4.7470
 3.1580	 3.6140
 3.1600	 3.2410
 3.1620	 4.9640
 3.1640	 4.4760
 3.1660	 3.9830
 3.1680	 4.8900
 3.1700	 3.3490
 3.1710	 4.5060
 3.1730	 7.1450
 3.1750	 5.2160
 3.1770	 4.6140
 3.1790	 6.0520
 3.1810	 5.5400
 3.1830	 4.9810
 3.1850	 4.8900
 3.1870	 5.0180
 3.1890	 4.7090
 3.1910	 4.7370
 3.1930	 4.9830
 3.1950	 5.1080
 3.1970	 5.0070
 3.1990	 5.1900
 3.2010	 4.9460
 3.2030	 4.3410
 3.2050	 4.2690
 3.2070	 4.8250
 3.2090	 4.9040
 3.2110	 4.7950
 3.2130	 4.4250
 3.2150	 4.3390
 3.2170	 4.4230
 3.2190	 4.5530
 3.2210	 4.6510
 3.2230	 4.3740
 3.2250	 4.3320
 3.2270	 4.7270
 3.2290	 4.8640
 3.2310	 4.7640
 3.2330	 4.5520
 3.2350	 4.5800
 3.2370	 4.4670
 3.2390	 4.6930
 3.2410	 4.9110
 3.2430	 4.7840
 3.2450	 4.2640
 3.2470	 4.0840
 3.2490	 4.2570
 3.2510	 4.6280
 3.2530	 4.5060
 3.2550	 4.4920
 3.2570	 4.1830
 3.2590	 4.3590
 3.2610	 5.0110
 3.2630	 4.7510
 3.2650	 4.6210
 3.2670	 4.9170
 3.2690	 4.8360
 3.2720	 4.6300
 3.2740	 4.4500
 3.2760	 4.6220
 3.2780	 4.5290
 3.2800	 4.3630
 3.2820	 4.2050
 3.2840	 4.3250
 3.2860	 4.2890
 3.2880	 4.2950
 3.2900	 4.3450
 3.2920	 4.3870
 3.2940	 4.3910
 3.2960	 4.5420
 3.2990	 4.5120
 3.3010	 4.3750
 3.3030	 4.4590
 3.3050	 4.7470
 3.3070	 4.2580
 3.3090	 3.8560
 3.3110	 4.1820
 3.3130	 4.3920
 3.3150	 4.3800
 3.3180	 4.3500
 3.3200	 4.2690
 3.3220	 4.3910
 3.3240	 4.4720
 3.3260	 4.4540
 3.3280	 4.1150
 3.3300	 3.9400
 3.3330	 4.1970
 3.3350	 4.4130
 3.3370	 4.3620
 3.3390	 4.2550
 3.3410	 4.0330
 3.3430	 3.9110
 3.3450	 3.9420
 3.3480	 4.1280
 3.3500	 4.1650
 3.3520	 4.1290
 3.3540	 4.0360
 3.3560	 4.0480
 3.3580	 4.1010
 3.3610	 4.0840
 3.3630	 3.9740
 3.3650	 4.2660
 3.3670	 4.3430
 3.3690	 4.1500
 3.3720	 4.0130
 3.3740	 4.1770
 3.3760	 4.3560
 3.3780	 4.3870
 3.3800	 4.2740
 3.3830	 4.1800
 3.3850	 4.1290
 3.3870	 4.0760
 3.3890	 4.1000
 3.3910	 4.0540
 3.3940	 3.9380
 3.3960	 3.9650
 3.3980	 4.0460
 3.4000	 4.1890
 3.4020	 4.2310
 3.4050	 4.4280
 3.4070	 4.5350
 3.4090	 4.7680
 3.4110	 5.0110
 3.4140	 5.2970
 3.4160	 5.6100
 3.4180	 6.1140
 3.4200	 6.6290
 3.4230	 7.3630
 3.4250	 8.1200
 3.4270	 8.9350
 3.4290	 9.4800
 3.4320	 9.2720
 3.4340	 8.4990
 3.4360	 7.8090
 3.4390	 6.9740
 3.4410	 6.4700
 3.4430	 6.1920
 3.4450	 6.1820
 3.4480	 6.1020
 3.4500	 5.9920
 3.4520	 5.7120
 3.4550	 5.4650
 3.4570	 5.7220
 3.4590	 5.8660
 3.4620	 5.7600
 3.4640	 5.5820
 3.4660	 5.3840
 3.4680	 5.4180
 3.4710	 5.3220
 3.4730	 5.2780
 3.4750	 5.2190
 3.4780	 5.3550
 3.4800	 5.4120
 3.4820	 5.2630
 3.4850	 5.0100
 3.4870	 5.0210
 3.4890	 5.0420
 3.4920	 5.0900
 3.4940	 5.0340
 3.4970	 5.0930
 3.4990	 5.2690
 3.5010	 5.4920
 3.5040	 5.6990
 3.5060	 6.4540
 3.5080	 7.7720
 3.5110	 8.6990
 3.5130	 8.3900
 3.5160	 7.4770
 3.5180	 6.8440
 3.5200	 6.5210
 3.5230	 6.2430
 3.5250	 6.0940
 3.5270	 5.9270
 3.5300	 5.8450
 3.5320	 5.6880
 3.5350	 5.6500
 3.5370	 5.6800
 3.5400	 5.7100
 3.5420	 5.6300
 3.5440	 5.6260
 3.5470	 5.7100
 3.5490	 5.5910
 3.5520	 5.3230
 3.5540	 5.3260
 3.5570	 5.3090
 3.5590	 5.3570
 3.5610	 5.3560
 3.5640	 5.4740
 3.5660	 5.3630
 3.5690	 5.2140
 3.5710	 5.0870
 3.5740	 5.0940
 3.5760	 5.0990
 3.5790	 5.0250
 3.5810	 5.0870
 3.5840	 5.3470
 3.5860	 5.3560
 3.5890	 5.3510
 3.5910	 5.3250
 3.5930	 5.4790
 3.5960	 5.4340
 3.5980	 5.2630
 3.6010	 5.0630
 3.6030	 5.0490
 3.6060	 5.0980
 3.6080	 5.0650
 3.6110	 5.1210
 3.6140	 5.0880
 3.6160	 5.0830
 3.6190	 5.2950
 3.6210	 5.3200
 3.6240	 5.1320
 3.6260	 5.0460
 3.6290	 5.1070
 3.6310	 5.1540
 3.6340	 5.1330
 3.6360	 5.0990
 3.6390	 5.1050
 3.6410	 5.0620
 3.6440	 5.0410
 3.6470	 5.0490
 3.6490	 5.0690
 3.6520	 5.1720
 3.6540	 5.1960
 3.6570	 5.0760
 3.6590	 4.9920
 3.6620	 4.8790
 3.6650	 4.8570
 3.6670	 4.9730
 3.6700	 5.0810
 3.6720	 4.9910
 3.6750	 4.9190
 3.6780	 4.9770
 3.6800	 4.9760
 3.6830	 5.0250
 3.6850	 5.1160
 3.6880	 5.0420
 3.6910	 4.9810
 3.6930	 4.9730
 3.6960	 5.0190
 3.6990	 5.0040
 3.7010	 4.9650
 3.7040	 4.9880
 3.7060	 5.1100
 3.7090	 5.0820
 3.7120	 5.0430
 3.7140	 5.0330
 3.7170	 5.0160
 3.7200	 4.9890
 3.7220	 5.0250
 3.7250	 4.9970
 3.7280	 5.0100
 3.7300	 5.1020
 3.7330	 4.9770
 3.7360	 4.8490
 3.7390	 4.9010
 3.7410	 4.9410
 3.7440	 5.0350
 3.7470	 5.0770
 3.7490	 5.0620
 3.7520	 5.1360
 3.7550	 5.1580
 3.7580	 5.1240
 3.7600	 5.1910
 3.7630	 5.0240
 3.7660	 4.9650
 3.7680	 5.0160
 3.7710	 5.0110
 3.7740	 5.0360
 3.7770	 5.0910
 3.7790	 5.0320
 3.7820	 5.0140
 3.7850	 4.8830
 3.7880	 4.9500
 3.7900	 5.1240
 3.7930	 5.0640
 3.7960	 4.8770
 3.7990	 4.9080
 3.8020	 4.9400
 3.8040	 5.0240
 3.8070	 5.0700
 3.8100	 5.0590
 3.8130	 4.9620
 3.8160	 4.9730
 3.8180	 5.1430
 3.8210	 5.2530
 3.8240	 5.0540
 3.8270	 5.0380
 3.8300	 5.1000
 3.8330	 5.0530
 3.8350	 4.9180
 3.8380	 4.8690
 3.8410	 4.9990
 3.8440	 5.1460
 3.8470	 5.0280
 3.8500	 4.9300
 3.8520	 4.9950
 3.8550	 5.0580
 3.8580	 5.0450
 3.8610	 5.0630
 3.8640	 5.0850
 3.8670	 5.0400
 3.8700	 5.0290
 3.8730	 4.9620
 3.8750	 4.9630
 3.8780	 5.0690
 3.8810	 5.1590
 3.8840	 5.0310
 3.8870	 4.9230
 3.8900	 4.9630
 3.8930	 4.9670
 3.8960	 4.9540
 3.8990	 4.9960
 3.9020	 5.0340
 3.9050	 5.1320
 3.9080	 5.1680
 3.9110	 5.0580
 3.9140	 4.9790
 3.9160	 5.0070
 3.9190	 5.0690
 3.9220	 5.1830
 3.9250	 5.2910
 3.9280	 5.1440
 3.9310	 5.0600
 3.9340	 5.0530
 3.9370	 5.0620
 3.9400	 5.0120
 3.9430	 5.0500
 3.9460	 5.0610
 3.9490	 5.0760
 3.9520	 5.1190
 3.9550	 5.1260
 3.9580	 5.1360
 3.9610	 5.0880
 3.9640	 5.0120
 3.9670	 4.9730
 3.9700	 5.0650
 3.9730	 5.1330
 3.9770	 5.0420
 3.9800	 5.0380
 3.9830	 5.0260
 3.9860	 4.9210
 3.9890	 4.9470
 3.9920	 4.9510
 3.9950	 4.9040
 3.9980	 4.8960
 4.0010	 4.9410
 4.0040	 4.9610
 4.0070	 5.0560
 4.0100	 5.1070
 4.0130	 5.0710
 4.0170	 5.0950
 4.0200	 5.0610
 4.0230	 5.0090
 4.0260	 4.9790
 4.0290	 4.9490
 4.0320	 4.9180
 4.0350	 4.9890
 4.0380	 5.0810
 4.0420	 5.0810
 4.0450	 5.0510
 4.0480	 5.0650
 4.0510	 5.0500
 4.0540	 5.0590
 4.0570	 5.1700
 4.0610	 5.1420
 4.0640	 5.1260
 4.0670	 5.1690
 4.0700	 5.0150
 4.0730	 4.9420
 4.0770	 4.9010
 4.0800	 4.9030
 4.0830	 4.7730
 4.0860	 4.7730
 4.0890	 4.9340
 4.0930	 5.1010
 4.0960	 4.9500
 4.0990	 4.9560
 4.1020	 5.1810
 4.1060	 5.2640
 4.1090	 5.1560
 4.1120	 5.0470
 4.1150	 4.8060
 4.1190	 4.7240
 4.1220	 4.8090
 4.1250	 4.8810
 4.1280	 4.9420
 4.1320	 5.0080
 4.1350	 4.9910
 4.1380	 4.9840
 4.1420	 5.0050
 4.1450	 5.0970
 4.1480	 5.0170
 4.1520	 4.9380
 4.1550	 4.9320
 4.1580	 4.9740
 4.1620	 5.0010
 4.1650	 4.9730
 4.1680	 4.9690
 4.1720	 5.0140
 4.1750	 4.9420
 4.1780	 4.8700
 4.1820	 4.9550
 4.1850	 4.9940
 4.1890	 4.9880
 4.1920	 4.9240
 4.1950	 4.8650
 4.1990	 4.8970
 4.2020	 4.9260
 4.2060	 5.1730
 4.2090	 5.3520
 4.2120	 5.2490
 4.2160	 5.1820
 4.2190	 5.3670
 4.2230	 5.5120
 4.2260	 5.6230
 4.2300	 5.6280
 4.2330	 5.8580
 4.2360	 5.9120
 4.2400	 5.1810
 4.2430	 5.1120
 4.2470	 5.1730
 4.2500	 5.3660
 4.2540	 5.3410
 4.2570	 5.2530
 4.2610	 5.2470
 4.2640	 5.3030
 4.2680	 5.4940
 4.2710	 5.6660
 4.2750	 5.5900
 4.2780	 5.2680
 4.2820	 5.3950
 4.2850	 5.5930
 4.2890	 5.4850
 4.2930	 5.2710
 4.2960	 5.2510
 4.3000	 5.2680
 4.3030	 5.2090
 4.3070	 5.1170
 4.3100	 4.9360
 4.3140	 4.7420
 4.3180	 4.7660
 4.3210	 4.7970
 4.3250	 4.9100
 4.3280	 5.0510
 4.3320	 5.0640
 4.3360	 4.9300
 4.3390	 4.8730
 4.3430	 4.9470
 4.3470	 4.9740
 4.3500	 4.9390
 4.3540	 4.8580
 4.3570	 4.9120
 4.3610	 5.0320
 4.3650	 5.0580
 4.3680	 4.9340
 4.3720	 4.8380
 4.3760	 4.7730
 4.3800	 4.7380
 4.3830	 4.7990
 4.3870	 4.8240
 4.3910	 4.8030
 4.3940	 4.8070
 4.3980	 4.8970
 4.4020	 4.9210
 4.4060	 4.8780
 4.4090	 4.8470
 4.4130	 4.8560
 4.4170	 4.7600
 4.4210	 4.7510
 4.4240	 4.7850
 4.4280	 4.7520
 4.4320	 4.6830
 4.4360	 4.7680
 4.4400	 4.7830
 4.4430	 4.7990
 4.4470	 4.8520
 4.4510	 4.8890
 4.4550	 4.8340
 4.4590	 4.7690
 4.4620	 4.7800
 4.4660	 4.8040
 4.4700	 4.8200
 4.4740	 4.8140
 4.4780	 4.8680
 4.4820	 4.8580
 4.4860	 4.8700
 4.4900	 4.8830
 4.4930	 4.8110
 4.4970	 4.7700
 4.5010	 4.7800
 4.5050	 4.8360
 4.5090	 4.9080
 4.5130	 4.9010
 4.5170	 4.9040
 4.5210	 4.8600
 4.5250	 4.8200
 4.5290	 4.8080
 4.5330	 4.7250
 4.5370	 4.6930
 4.5410	 4.7240
 4.5450	 4.7000
 4.5490	 4.7300
 4.5530	 4.8110
 4.5570	 4.7630
 4.5610	 4.6990
 4.5650	 4.7890
 4.5690	 4.8120
 4.5730	 4.7690
 4.5770	 4.7410
 4.5810	 4.7110
 4.5850	 4.7420
 4.5890	 4.7860
 4.5930	 4.8190
 4.5970	 4.8660
 4.6010	 4.8490
 4.6050	 4.8150
 4.6090	 4.9470
 4.6130	 5.0470
 4.6170	 4.9400
 4.6220	 4.7750
 4.6260	 4.8840
 4.6300	 4.8740
 4.6340	 4.7720
 4.6380	 4.7650
 4.6420	 4.8170
 4.6460	 4.8450
 4.6510	 4.8190
 4.6550	 4.7230
 4.6590	 4.7210
 4.6630	 4.7470
 4.6670	 4.6360
 4.6720	 4.7260
 4.6760	 4.8030
 4.6800	 4.7760
 4.6840	 4.7630
 4.6880	 4.7920
 4.6930	 4.7810
 4.6970	 4.7730
 4.7010	 4.7110
 4.7050	 4.7140
 4.7100	 4.6420
 4.7140	 4.6420
 4.7180	 4.6450
 4.7230	 4.7890
 4.7270	 4.8460
 4.7310	 4.7230
 4.7360	 4.6580
 4.7400	 4.6770
 4.7440	 4.6740
 4.7490	 4.6980
 4.7530	 4.8290
 4.7570	 4.8240
 4.7620	 4.7830
 4.7660	 4.7890
 4.7700	 4.7010
 4.7750	 4.7480
 4.7790	 4.7260
 4.7840	 4.5210
 4.7880	 4.4810
 4.7920	 4.6110
 4.7970	 4.6390
 4.8010	 4.8060
 4.8060	 4.8340
 4.8100	 4.7850
 4.8150	 4.6840
 4.8190	 4.6540
 4.8240	 4.7600
 4.8280	 4.9280
 4.8330	 4.8740
 4.8370	 4.7830
 4.8420	 4.6620
 4.8460	 4.5650
 4.8510	 4.5420
 4.8550	 4.6280
 4.8600	 4.6620
 4.8640	 4.7050
 4.8690	 4.6720
 4.8730	 4.6530
 4.8780	 4.6790
 4.8830	 4.7380
 4.8870	 4.6870
 4.8920	 4.5980
 4.8960	 4.5620
 4.9010	 4.6620
 4.9060	 4.6760
 4.9100	 4.7230
 4.9150	 4.6920
 4.9200	 4.6330
 4.9240	 4.6580
 4.9290	 4.7510
 4.9340	 4.7470
 4.9380	 4.6630
 4.9430	 4.7110
 4.9480	 4.7930
 4.9530	 4.7220
 4.9570	 4.6950
 4.9620	 4.7140
 4.9670	 4.7390
 4.9720	 4.7470
 4.9760	 4.6990
 4.9810	 4.6210
 4.9860	 4.5900
 4.9910	 4.5700
 4.9960	 4.6480
 5.0000	 4.6950
 5.0050	 4.7160
 5.0100	 4.7200
 5.0150	 4.8340
 5.0200	 4.8580
 5.0250	 4.8170
 5.0290	 4.7650
 5.0340	 4.7480
 5.0390	 4.6680
 5.0440	 4.6750
 5.0490	 4.6680
 5.0540	 4.6590
 5.0590	 4.6360
 5.0640	 4.5890
 5.0690	 4.6330
 5.0740	 4.6840
 5.0790	 4.7030
 5.0840	 4.6850
 5.0890	 4.7290
 5.0940	 4.7700
 5.0990	 4.7130
 5.1040	 4.7390
 5.1090	 4.7170
 5.1140	 4.7660
 5.1190	 4.7230
 5.1240	 4.6870
 5.1290	 4.7180
 5.1340	 4.6710
 5.1390	 4.7060
 5.1440	 4.6960
 5.1490	 4.6830
 5.1540	 4.7480
 5.1600	 4.6720
 5.1650	 4.6360
 5.1700	 4.7070
 5.1750	 4.6860
 5.1800	 4.6230
 5.1850	 4.7000
 5.1910	 4.7180
 5.1960	 4.7430
 5.2010	 4.6680
 5.2060	 4.6310
 5.2110	 4.7040
 5.2170	 4.7390
 5.2220	 4.7510
 5.2270	 4.7630
 5.2320	 4.6900
 5.2380	 4.6930
 5.2430	 4.6100
 5.2480	 4.5790
 5.2540	 4.6250
 5.2590	 4.7500
 5.2640	 4.7570
 5.2700	 4.7250
 5.2750	 4.7310
 5.2800	 4.6640
 5.2860	 4.5960
 5.2910	 4.7230
 5.2970	 4.7280
 5.3020	 4.6730
 5.3070	 4.6450
 5.3130	 4.6250
 5.3180	 4.5910
 5.3240	 4.6130
 5.3290	 4.6020
 5.3350	 4.6210
 5.3400	 4.6020
 5.3460	 4.6390
 5.3510	 4.6310
 5.3570	 4.6050
 5.3620	 4.5100
 5.3680	 4.5330
 5.3730	 4.6230
 5.3790	 4.6640
 5.3850	 4.5590
 5.3900	 4.5030
 5.3960	 4.5220
 5.4010	 4.5920
 5.4070	 4.5830
 5.4130	 4.5290
 5.4180	 4.5500
 5.4240	 4.6030
 5.4300	 4.5690
 5.4350	 4.5790
 5.4410	 4.5560
 5.4470	 4.5700
 5.4530	 4.5660
 5.4580	 4.5710
 5.4640	 4.5390
 5.4700	 4.4850
 5.4760	 4.4650
 5.4810	 4.4950
 5.4870	 4.4320
 5.4930	 4.5010
 5.4990	 4.5340
 5.5050	 4.5290
 5.5110	 4.4870
 5.5160	 4.4750
 5.5220	 4.3940
 5.5280	 4.3840
 5.5340	 4.4240
 5.5400	 4.4630
 5.5460	 4.4220
 5.5520	 4.4370
 5.5580	 4.4010
 5.5640	 4.4830
 5.5700	 4.5000
 5.5760	 4.4710
 5.5820	 4.3000
 5.5880	 4.3080
 5.5940	 4.3440
 5.6000	 4.3490
 5.6060	 4.3520
 5.6120	 4.3910
 5.6180	 4.3510
 5.6240	 4.3430
 5.6300	 4.2580
 5.6360	 4.2190
 5.6420	 4.2550
 5.6490	 4.2920
 5.6550	 4.2370
 5.6610	 4.1710
 5.6670	 4.0090
 5.6730	 4.0230
 5.6800	 4.0770
 5.6860	 4.1920
 5.6920	 4.1800
 5.6980	 4.1280
 5.7040	 3.9860
 5.7110	 3.9740
 5.7170	 3.9400
 5.7230	 3.9040
 5.7300	 3.8270
 5.7360	 3.8290
 5.7420	 3.9120
 5.7490	 3.9110
 5.7550	 3.9040
 5.7620	 4.1140
 5.7680	 4.1750
 5.7740	 4.1910
 5.7810	 4.1780
 5.7870	 4.3210
 5.7940	 4.4230
 5.8000	 4.5090
 5.8070	 4.4960
 5.8130	 4.6080
 5.8200	 4.6780
 5.8260	 4.7260
 5.8330	 4.7440
 5.8390	 4.8120
 5.8460	 4.7440
 5.8530	 4.7660
 5.8590	 4.8170
 5.8660	 4.9120
 5.8720	 4.9310
 5.8790	 5.0180
 5.8860	 4.9680
 5.8920	 4.9640
 5.8990	 4.8690
 5.9060	 4.8330
 5.9130	 4.7900
 5.9190	 4.8590
 5.9260	 4.9160
 5.9330	 5.1080
 5.9400	 5.1690
 5.9470	 5.1910
 5.9530	 5.1510
 5.9600	 5.1000
 5.9670	 5.0380
 5.9740	 5.1750
 5.9810	 5.1410
 5.9880	 5.1130
 5.9950	 5.0880
 6.0020	 5.0560
 6.0090	 5.0610
 6.0160	 5.1660
 6.0230	 5.1450
 6.0300	 5.1400
 6.0370	 5.0620
 6.0440	 5.1040
 6.0510	 5.1110
 6.0580	 5.0800
 6.0650	 4.9320
 6.0720	 4.8510
 6.0790	 4.8170
 6.0860	 4.9710
 6.0930	 5.0880
 6.1000	 5.0960
 6.1080	 5.0830
 6.1150	 5.2030
 6.1220	 5.1200
 6.1290	 5.0990
 6.1370	 5.0320
 6.1440	 5.0440
 6.1510	 4.9920
 6.1580	 5.0440
 6.1660	 5.0720
 6.1730	 5.0700
 6.1800	 5.0480
 6.1880	 5.0560
 6.1950	 5.0300
 6.2030	 5.0060
 6.2100	 4.9440
 6.2170	 5.0150
 6.2250	 4.9650
 6.2320	 5.0210
 6.2400	 4.9790
 6.2470	 5.0480
 6.2550	 5.0430
 6.2630	 5.0490
 6.2700	 4.9200
 6.2780	 4.9910
 6.2850	 4.9310
 6.2930	 4.9160
 6.3010	 4.9200
 6.3080	 5.0560
 6.3160	 4.9670
 6.3240	 4.8940
 6.3310	 4.7930
 6.3390	 4.9070
 6.3470	 5.0100
 6.3550	 5.0900
 6.3620	 4.9250
 6.3700	 4.8240
 6.3780	 4.8850
 6.3860	 4.9450
 6.3940	 4.7820
 6.4020	 4.6390
 6.4100	 4.6450
 6.4180	 4.8310
 6.4260	 4.7950
 6.4330	 4.7400
 6.4410	 4.6440
 6.4490	 4.6640
 6.4580	 4.6600
 6.4660	 4.8180
 6.4740	 4.7970
 6.4820	 4.7320
 6.4900	 4.6620
 6.4980	 4.7540
 6.5060	 4.6930
 6.5140	 4.7140
 6.5230	 4.5960
 6.5310	 4.5450
 6.5390	 4.5540
 6.5470	 4.6060
 6.5550	 4.5820
 6.5640	 4.6340
 6.5720	 4.4740
 6.5800	 4.4190
 6.5890	 4.4830
 6.5970	 4.5950
 6.6060	 4.4920
 6.6140	 4.4730
 6.6220	 4.5060
 6.6310	 4.6890
 6.6390	 4.6710
 6.6480	 4.6170
 6.6560	 4.5700
 6.6650	 4.6480
 6.6740	 4.5760
 6.6820	 4.5980
 6.6910	 4.4700
 6.6990	 4.4760
 6.7080	 4.4750
 6.7170	 4.5250
 6.7260	 4.4370
 6.7340	 4.4230
 6.7430	 4.3620
 6.7520	 4.3510
 6.7610	 4.3600
 6.7690	 4.4070
 6.7780	 4.4590
 6.7870	 4.7120
 6.7960	 4.7010
 6.8050	 4.5370
 6.8140	 4.4180
 6.8230	 4.5600
 6.8320	 4.7360
 6.8410	 4.8560
 6.8500	 4.6760
 6.8590	 4.7090
 6.8680	 4.7050
 6.8770	 4.6670
 6.8860	 4.5850
 6.8950	 4.6310
 6.9050	 4.6530
 6.9140	 4.7650
 6.9230	 4.7650
 6.9320	 4.7920
 6.9420	 4.7610
 6.9510	 4.7810
 6.9600	 4.7090
 6.9700	 4.8600
 6.9790	 4.9240
 6.9880	 4.9660
 6.9980	 4.8030
 7.0070	 4.7950
 7.0170	 4.7880
 7.0260	 4.7790
 7.0360	 4.7140
 7.0450	 4.7740
 7.0550	 4.7590
 7.0650	 4.7660
 7.0740	 4.6760
 7.0840	 4.7610
 7.0940	 4.7180
 7.1030	 4.7530
 7.1130	 4.7280
 7.1230	 4.7310
 7.1330	 4.4860
 7.1420	 4.6020
 7.1520	 4.6330
 7.1620	 4.7140
 7.1720	 4.6080
 7.1820	 4.5920
 7.1920	 4.5400
 7.2020	 4.5840
 7.2120	 4.6080
 7.2220	 4.6870
 7.2320	 4.5420
 7.2420	 4.5670
 7.2520	 4.5370
 7.2620	 4.6500
 7.2730	 4.6710
 7.2830	 4.7350
 7.2930	 4.7960
 7.3030	 4.9150
 7.3140	 4.7440
 7.3240	 4.7150
 7.3340	 4.6960
 7.3450	 4.8070
 7.3550	 4.7700
 7.3660	 4.7290
 7.3760	 4.6560
 7.3870	 4.7720
 7.3970	 4.7660
 7.4080	 4.7960
 7.4180	 4.6590
 7.4290	 4.7220
 7.4400	 4.6500
 7.4500	 4.7560
 7.4610	 4.7150
 7.4720	 4.7150
 7.4830	 4.6460
 7.4930	 4.7430
 7.5040	 4.7780
 7.5150	 4.8210
 7.5260	 4.6820
 7.5370	 4.6420
 7.5480	 4.4880
 7.5590	 4.5910
 7.5700	 4.5080
 7.5810	 4.5490
 7.5920	 4.5320
 7.6030	 4.5820
 7.6140	 4.4060
 7.6260	 4.5250
 7.6370	 4.6080
 7.6480	 4.5730
 7.6590	 4.4720
 7.6710	 4.5610
 7.6820	 4.5400
 7.6930	 4.4790
 7.7050	 4.3670
 7.7160	 4.4930
 7.7280	 4.4270
 7.7390	 4.4080
 7.7510	 4.3520
 7.7630	 4.4610
 7.7740	 4.4050
 7.7860	 4.5010
 7.7980	 4.4420
 7.8090	 4.4720
 7.8210	 4.4550
 7.8330	 4.5090
 7.8450	 4.4460
 7.8570	 4.5050
 7.8690	 4.4210
 7.8810	 4.4820
 7.8930	 4.5220
 7.9050	 4.5930
 7.9170	 4.5110
 7.9290	 4.6640
 7.9410	 4.5650
 7.9530	 4.6150
 7.9650	 4.6850
 7.9780	 4.6830
 7.9900	 4.4410
 8.0020	 4.5580
 8.0150	 4.5970
 8.0270	 4.6920
 8.0390	 4.6150
 8.0520	 4.7710
 8.0640	 4.6060
 8.0770	 4.5410
 8.0900	 4.5200
 8.1020	 4.7480
 8.1150	 4.7320
 8.1280	 4.8250
 8.1400	 4.7420
 8.1530	 4.7910
 8.1660	 4.6550
 8.1790	 4.8230
 8.1920	 4.8990
 8.2050	 5.1120
 8.2180	 4.9290
 8.2310	 4.9330
 8.2440	 4.8730
 8.2570	 4.9610
 8.2700	 4.8840
 8.2830	 4.8950
 8.2970	 4.7490
 8.3100	 4.8300
 8.3230	 4.6550
 8.3370	 4.8000
 8.3500	 4.8770
 8.3640	 5.0990
 8.3770	 4.8400
 8.3910	 4.8690
 8.4040	 4.8620
 8.4180	 4.9650
 8.4320	 4.9410
 8.4450	 5.1180
 8.4590	 4.9830
 8.4730	 5.1160
 8.4870	 4.9010
 8.5010	 4.9880
 8.5150	 5.0010
 8.5290	 5.0460
 8.5430	 4.8530
 8.5570	 4.9880
 8.5710	 5.0220
 8.5850	 5.4490
 8.5990	 5.5050
 8.6140	 5.5910
 8.6280	 5.4600
 8.6420	 5.5250
 8.6570	 5.4220
 8.6710	 5.5350
 8.6860	 5.3490
 8.7000	 5.4560
 8.7150	 5.3900
 8.7300	 5.4340
 8.7440	 5.3220
 8.7590	 5.5100
 8.7740	 5.3290
 8.7890	 5.3630
 8.8040	 5.1430
 8.8190	 5.3300
 8.8340	 5.3470
 8.8490	 5.4310
 8.8640	 5.2620
 8.8790	 5.4580
 8.8940	 5.3300
 8.9100	 5.3200
 8.9250	 5.2760
 8.9400	 5.4500
 8.9560	 5.2230
 8.9710	 5.3880
 8.9870	 5.4080
 9.0020	 5.4800
 9.0180	 5.2820
 9.0340	 5.4760
 9.0500	 5.2920
 9.0650	 5.4270
 9.0810	 5.3330
 9.0970	 5.4030
 9.1130	 5.4170
 9.1290	 5.4980
 9.1450	 5.1870
 9.1610	 5.2330
 9.1780	 5.2260
 9.1940	 5.5080
 9.2100	 5.4300
 9.2270	 5.5180
 9.2430	 5.4010
 9.2600	 5.6350
 9.2760	 5.3340
 9.2930	 5.2900
 9.3090	 5.2640
 9.3260	 5.4870
 9.3430	 5.3060
 9.3600	 5.3910
 9.3770	 5.2650
 9.3940	 5.3150
 9.4110	 5.1870
 9.4280	 5.3310
 9.4450	 5.2360
 9.4620	 5.2970
 9.4800	 5.3040
 9.4970	 5.5260
 9.5140	 5.2950
 9.5320	 5.4230
 9.5500	 5.3150
 9.5670	 5.3810
 9.5850	 5.2400
 9.6030	 5.3820
 9.6200	 5.4120
 9.6380	 5.7030
 9.6560	 5.6240
 9.6740	 5.6890
 9.6920	 5.4550
 9.7100	 5.4890
 9.7290	 5.3890
 9.7470	 5.6320
 9.7650	 5.4930
 9.7840	 5.5440
 9.8020	 5.3310
 9.8210	 5.4430
 9.8390	 5.3820
 9.8580	 5.6600
 9.8770	 5.4080
 9.8960	 5.3270
 9.9150	 5.4120
 9.9340	 5.6520
 9.9530	 5.4320
 9.9720	 5.3790
 9.9910	 5.1460
10.0100	 5.3650
10.0300	 5.3760
10.0490	 5.4980
10.0690	 5.3440
10.0880	 5.6420
10.1080	 5.5090
10.1280	 5.4620
10.1480	 5.4190
10.1670	 5.6560
10.1870	 5.4950
10.2070	 5.6770
10.2280	 5.5230
10.2480	 5.5140
10.2680	 5.3460
10.2890	 5.3860
10.3090	 5.2530
10.3300	 5.5550
10.3500	 5.5180
10.3710	 5.5020
10.3920	 5.2950
10.4120	 5.5680
10.4330	 5.3700
10.4540	 5.4360
10.4760	 5.4380
10.4970	 5.4270
10.5180	 5.2760
10.5390	 5.5620
10.5610	 5.5270
10.5820	 5.5960
10.6040	 5.4590
10.6260	 5.6270
10.6480	 5.4270
10.6700	 5.5200
10.6920	 5.3600
10.7140	 5.4620
10.7360	 5.3900
10.7580	 5.5100
10.7800	 5.4130
10.8030	 5.7060
10.8250	 5.6460
10.8480	 5.7620
10.8710	 5.4130
10.8940	 5.4100
10.9170	 5.3060
10.9400	 5.4840
10.9630	 5.3230
10.9860	 5.6210
11.0090	 5.4440
11.0330	 5.4170
11.0560	 5.4010
11.0800	 5.5140
11.1040	 5.1230
11.1270	 5.3860
11.1510	 5.3650
11.1750	 5.3610
11.2000	 5.2210
11.2240	 5.3470
11.2480	 4.9590
11.2730	 5.3030
11.2970	 5.2880
11.3220	 5.2800
11.3470	 5.0680
11.3720	 5.2040
11.3970	 4.8720
11.4220	 5.2380
11.4470	 5.1140
11.4720	 5.0960
11.4980	 5.0250
11.5230	 5.2800
11.5490	 5.0420
11.5750	 5.0430
11.6000	 4.7300
11.6260	 5.0340
11.6530	 4.9930
11.6790	 5.2220
11.7050	 4.9510
11.7320	 4.9640
11.7580	 4.6890
11.7850	 5.0100
11.8120	 4.9770
11.8390	 5.1440
11.8660	 4.7950
11.8930	 4.8090
11.9200	 4.8590
11.9480	 5.0800
11.9760	 5.0040
12.0030	 5.1420
12.0310	 4.7620
12.0590	 4.7970
12.0870	 4.4710
12.1150	 4.7950
12.1440	 4.7990
12.1720	 5.0050
12.2010	 4.7980
12.2300	 5.0220
12.2590	 4.7690
12.2880	 4.8910
12.3170	 4.8050
12.3460	 5.1670
12.3760	 4.9630
12.4050	 5.1900
12.4350	 4.9860
12.4650	 5.1070
12.4950	 4.8770
12.5250	 5.0930
12.5550	 4.7120
12.5860	 4.8370
12.6170	 4.5490
12.6470	 5.0250
12.6780	 4.9360
12.7090	 4.9460
12.7410	 4.6750
12.7720	 5.0860
12.8030	 4.9960
12.8350	 5.1260
12.8670	 4.9120
12.8990	 5.3420
12.9310	 4.8290
12.9640	 4.8570
12.9960	 4.9170
13.0290	 5.0740
13.0610	 4.6910
13.0940	 5.3760
13.1280	 5.3010
13.1610	 5.3070
13.1940	 5.1810
13.2280	 5.7690
13.2620	 5.3500
13.2960	 5.3200
13.3300	 5.1100
13.3640	 5.3040
13.3990	 4.9160
13.4340	 5.1940
13.4690	 5.1350
13.5040	 5.2020
13.5390	 4.7840
13.5740	 5.0700
13.6100	 4.8240
13.6460	 4.9890
13.6820	 4.8050
13.7180	 5.3790
13.7540	 5.2430
13.7910	 5.5110
13.8280	 5.4210
13.8650	 5.8490
13.9020	 5.5120
13.9390	 5.7100
13.9770	 5.3300
14.0150	 5.4830
14.0530	 5.1640
14.0910	 5.2910
14.1290	 4.9440
14.1680	 5.4450
14.2070	 5.2270
14.2460	 5.2770
14.2850	 4.8540
14.3240	 5.5130
14.3640	 5.4560
14.4040	 5.9120
14.4440	 5.5090
14.4840	 5.9100
14.5250	 5.6690
14.5660	 5.5420
14.6070	 4.7460
14.6480	 5.6490
14.6900	 5.3670
14.7310	 5.4320
14.7730	 5.1130
14.8150	 5.7220
14.8580	 5.2270
14.9010	 5.8910
14.9440	 5.2420
14.9870	 6.0460
15.0300	 5.3890
15.0740	 5.5030
15.1180	 4.5280
15.1620	 4.9580
15.2060	 4.4870
15.2510	 5.7860
15.2960	 5.4560
15.3410	 5.5400
15.3870	 5.1920
