Name: Taxodium mucronatum
Type: vegetation
Class: Tree
Genus: Taxodium
Species: mucronatum
Sample No.: JPL229
Owner: JPL
Wavelength Range: TIR
Origin: 34.12628; -118.11407; WGS84
Collection Date: 10/3/2016
Description: Samples were collected at the Huntington Garden in San Marino California as part of a JPL Subcontract studying HyTES imagery. Samples were taken to JPL and processed within 48 hours of collection. The same leaves were processed in the Nicolet and then measured using the ASD.
Measurement: Hemispherical reflectance
First Column: X
Second Column: Y
X Units: Wavelength (micrometer)
Y Units: Reflectance (percentage)
First X Value: 2.501
Last X Value: 15.387
Number of X Values: 1737
Additional Information: vegetation.tree.taxodium.mucronatum.tir.jpl229.jpl.nicolet.ancillary.txt

 2.5010	 8.1860
 2.5030	 8.0590
 2.5040	 7.9760
 2.5050	 7.9510
 2.5060	 7.9990
 2.5070	 7.9770
 2.5090	 7.9690
 2.5100	 7.9390
 2.5110	 7.9610
 2.5120	 7.9530
 2.5140	 7.9410
 2.5150	 7.9250
 2.5160	 7.9540
 2.5170	 7.9000
 2.5180	 7.9370
 2.5200	 7.9550
 2.5210	 7.9400
 2.5220	 7.9190
 2.5230	 7.9390
 2.5250	 7.8440
 2.5260	 7.8430
 2.5270	 7.8830
 2.5280	 7.9450
 2.5300	 7.8440
 2.5310	 7.7550
 2.5320	 7.7520
 2.5330	 7.8470
 2.5340	 7.8400
 2.5360	 7.8120
 2.5370	 7.7950
 2.5380	 7.9000
 2.5390	 7.8780
 2.5410	 7.9020
 2.5420	 7.8610
 2.5430	 7.7590
 2.5440	 7.7670
 2.5460	 7.8290
 2.5470	 7.8810
 2.5480	 7.8900
 2.5490	 7.7960
 2.5510	 7.7200
 2.5520	 7.6930
 2.5530	 7.7470
 2.5540	 7.8170
 2.5560	 7.9090
 2.5570	 7.9040
 2.5580	 7.9800
 2.5590	 7.9110
 2.5610	 7.6670
 2.5620	 7.4500
 2.5630	 7.4550
 2.5650	 7.4680
 2.5660	 7.6730
 2.5670	 7.8740
 2.5680	 7.8700
 2.5700	 7.6430
 2.5710	 7.7110
 2.5720	 7.8070
 2.5730	 7.5580
 2.5750	 7.5700
 2.5760	 7.6770
 2.5770	 7.5000
 2.5790	 7.6390
 2.5800	 7.7410
 2.5810	 7.6050
 2.5820	 7.4830
 2.5840	 7.2740
 2.5850	 7.3030
 2.5860	 7.5890
 2.5880	 7.4930
 2.5890	 7.5640
 2.5900	 7.6360
 2.5910	 7.7200
 2.5930	 7.5820
 2.5940	 6.9910
 2.5950	 6.4610
 2.5970	 6.9590
 2.5980	 7.5010
 2.5990	 7.7140
 2.6010	 7.6300
 2.6020	 7.4950
 2.6030	 7.3580
 2.6040	 7.2050
 2.6060	 6.9820
 2.6070	 7.1150
 2.6080	 7.2970
 2.6100	 7.3980
 2.6110	 7.4410
 2.6120	 7.5250
 2.6140	 7.4790
 2.6150	 7.4590
 2.6160	 7.1090
 2.6180	 6.9320
 2.6190	 7.1290
 2.6200	 6.9870
 2.6220	 7.0570
 2.6230	 7.4900
 2.6240	 7.4710
 2.6260	 7.2790
 2.6270	 7.0140
 2.6280	 7.1700
 2.6300	 7.0380
 2.6310	 6.6720
 2.6320	 6.8610
 2.6340	 7.0560
 2.6350	 7.0630
 2.6360	 7.2060
 2.6380	 7.2240
 2.6390	 7.2230
 2.6400	 7.0970
 2.6420	 7.0430
 2.6430	 7.0660
 2.6440	 7.0640
 2.6460	 6.8380
 2.6470	 6.8830
 2.6480	 6.9870
 2.6500	 6.9970
 2.6510	 6.8870
 2.6520	 6.7290
 2.6540	 6.7170
 2.6550	 6.8440
 2.6570	 6.7930
 2.6580	 6.8660
 2.6590	 6.6580
 2.6610	 6.5860
 2.6620	 6.5280
 2.6630	 6.5000
 2.6650	 6.1420
 2.6660	 5.9190
 2.6670	 5.9230
 2.6690	 6.1520
 2.6700	 5.8250
 2.6720	 5.7680
 2.6730	 6.3030
 2.6740	 6.4300
 2.6760	 6.1990
 2.6770	 5.9800
 2.6780	 5.9820
 2.6800	 6.0620
 2.6810	 6.2510
 2.6830	 6.3200
 2.6840	 6.1910
 2.6850	 6.2130
 2.6870	 6.1780
 2.6880	 6.2540
 2.6900	 6.2590
 2.6910	 6.2520
 2.6920	 6.1020
 2.6940	 5.7780
 2.6950	 5.6870
 2.6970	 5.9310
 2.6980	 6.0590
 2.6990	 6.0350
 2.7010	 5.9220
 2.7020	 5.8910
 2.7040	 5.9830
 2.7050	 6.0440
 2.7060	 5.9860
 2.7080	 5.8670
 2.7090	 5.6620
 2.7110	 5.4150
 2.7120	 5.3920
 2.7130	 5.7660
 2.7150	 5.8380
 2.7160	 5.8130
 2.7180	 5.7070
 2.7190	 5.6080
 2.7210	 5.2510
 2.7220	 5.3450
 2.7230	 5.4640
 2.7250	 5.3010
 2.7260	 5.4510
 2.7280	 5.6820
 2.7290	 5.6860
 2.7310	 5.6420
 2.7320	 5.5990
 2.7340	 5.5900
 2.7350	 5.4400
 2.7360	 5.5100
 2.7380	 5.5200
 2.7390	 5.2740
 2.7410	 5.0880
 2.7420	 5.2480
 2.7440	 5.5370
 2.7450	 5.7360
 2.7470	 5.6840
 2.7480	 5.5940
 2.7490	 5.5090
 2.7510	 5.4810
 2.7520	 5.4490
 2.7540	 5.4330
 2.7550	 5.1400
 2.7570	 5.1850
 2.7580	 5.4850
 2.7600	 5.5910
 2.7610	 5.5140
 2.7630	 5.3820
 2.7640	 5.3110
 2.7660	 5.3990
 2.7670	 5.4080
 2.7690	 5.3840
 2.7700	 5.3360
 2.7720	 5.3240
 2.7730	 5.4070
 2.7740	 5.5820
 2.7760	 5.5580
 2.7770	 5.5480
 2.7790	 5.5970
 2.7800	 5.5600
 2.7820	 5.4630
 2.7830	 5.5210
 2.7850	 5.5820
 2.7860	 5.4700
 2.7880	 5.2860
 2.7890	 5.3900
 2.7910	 5.5190
 2.7920	 5.5310
 2.7940	 5.4780
 2.7950	 5.4780
 2.7970	 5.4310
 2.7980	 5.4800
 2.8000	 5.5260
 2.8010	 5.4620
 2.8030	 5.2750
 2.8040	 5.3190
 2.8060	 5.4350
 2.8080	 5.5250
 2.8090	 5.5550
 2.8110	 5.5750
 2.8120	 5.5560
 2.8140	 5.6220
 2.8150	 5.5680
 2.8170	 5.5430
 2.8180	 5.5100
 2.8200	 5.5060
 2.8210	 5.4950
 2.8230	 5.5160
 2.8240	 5.4980
 2.8260	 5.5440
 2.8270	 5.5720
 2.8290	 5.5830
 2.8310	 5.5580
 2.8320	 5.5880
 2.8340	 5.5690
 2.8350	 5.6150
 2.8370	 5.5930
 2.8380	 5.6160
 2.8400	 5.6050
 2.8410	 5.6280
 2.8430	 5.6000
 2.8440	 5.6220
 2.8460	 5.5730
 2.8480	 5.5650
 2.8490	 5.5480
 2.8510	 5.6020
 2.8520	 5.5620
 2.8540	 5.5340
 2.8550	 5.5020
 2.8570	 5.5420
 2.8590	 5.5310
 2.8600	 5.5810
 2.8620	 5.5370
 2.8630	 5.5780
 2.8650	 5.6270
 2.8660	 5.6190
 2.8680	 5.6110
 2.8700	 5.6610
 2.8710	 5.6110
 2.8730	 5.5990
 2.8740	 5.5410
 2.8760	 5.5900
 2.8780	 5.5900
 2.8790	 5.6160
 2.8810	 5.5980
 2.8820	 5.6290
 2.8840	 5.6460
 2.8860	 5.6680
 2.8870	 5.6370
 2.8890	 5.6560
 2.8900	 5.5750
 2.8920	 5.5440
 2.8940	 5.5280
 2.8950	 5.6220
 2.8970	 5.6760
 2.8990	 5.6420
 2.9000	 5.5820
 2.9020	 5.6410
 2.9030	 5.5770
 2.9050	 5.5690
 2.9070	 5.5640
 2.9080	 5.5810
 2.9100	 5.5900
 2.9120	 5.6550
 2.9130	 5.5990
 2.9150	 5.6360
 2.9160	 5.7160
 2.9180	 5.7140
 2.9200	 5.6640
 2.9210	 5.6820
 2.9230	 5.6230
 2.9250	 5.6570
 2.9260	 5.6280
 2.9280	 5.5990
 2.9300	 5.5920
 2.9310	 5.7230
 2.9330	 5.7380
 2.9350	 5.7150
 2.9360	 5.6480
 2.9380	 5.6240
 2.9400	 5.5720
 2.9410	 5.6780
 2.9430	 5.6030
 2.9450	 5.5800
 2.9460	 5.5990
 2.9480	 5.6580
 2.9500	 5.6440
 2.9510	 5.6890
 2.9530	 5.6220
 2.9550	 5.6190
 2.9560	 5.6020
 2.9580	 5.6160
 2.9600	 5.5580
 2.9610	 5.5970
 2.9630	 5.6100
 2.9650	 5.6510
 2.9670	 5.7010
 2.9680	 5.7190
 2.9700	 5.6980
 2.9720	 5.6610
 2.9730	 5.5420
 2.9750	 5.5610
 2.9770	 5.5760
 2.9780	 5.6370
 2.9800	 5.6350
 2.9820	 5.6690
 2.9840	 5.6230
 2.9850	 5.6110
 2.9870	 5.6180
 2.9890	 5.6450
 2.9900	 5.6280
 2.9920	 5.6760
 2.9940	 5.6240
 2.9960	 5.5940
 2.9970	 5.5610
 2.9990	 5.6550
 3.0010	 5.6350
 3.0030	 5.6070
 3.0040	 5.6170
 3.0060	 5.6660
 3.0080	 5.5960
 3.0100	 5.6330
 3.0110	 5.6510
 3.0130	 5.6310
 3.0150	 5.6280
 3.0170	 5.6540
 3.0180	 5.6410
 3.0200	 5.6710
 3.0220	 5.6610
 3.0240	 5.6700
 3.0250	 5.6320
 3.0270	 5.6950
 3.0290	 5.6780
 3.0310	 5.6680
 3.0320	 5.6320
 3.0340	 5.6290
 3.0360	 5.5690
 3.0380	 5.6110
 3.0400	 5.6200
 3.0410	 5.6300
 3.0430	 5.5920
 3.0450	 5.5700
 3.0470	 5.5820
 3.0480	 5.6370
 3.0500	 5.5790
 3.0520	 5.6290
 3.0540	 5.6230
 3.0560	 5.6140
 3.0570	 5.6160
 3.0590	 5.6800
 3.0610	 5.6660
 3.0630	 5.7090
 3.0650	 5.6440
 3.0670	 5.6280
 3.0680	 5.6170
 3.0700	 5.6270
 3.0720	 5.6520
 3.0740	 5.7300
 3.0760	 5.6870
 3.0770	 5.6620
 3.0790	 5.6450
 3.0810	 5.6990
 3.0830	 5.7070
 3.0850	 5.7150
 3.0870	 5.6940
 3.0880	 5.6870
 3.0900	 5.6050
 3.0920	 5.6030
 3.0940	 5.6200
 3.0960	 5.6270
 3.0980	 5.6190
 3.1000	 5.6850
 3.1010	 5.6680
 3.1030	 5.6450
 3.1050	 5.6080
 3.1070	 5.6560
 3.1090	 5.6510
 3.1110	 5.6900
 3.1130	 5.6600
 3.1140	 5.6290
 3.1160	 5.6130
 3.1180	 5.6560
 3.1200	 5.6590
 3.1220	 5.6910
 3.1240	 5.6790
 3.1260	 5.7080
 3.1280	 5.7130
 3.1290	 5.6900
 3.1310	 5.6060
 3.1330	 5.6180
 3.1350	 5.5990
 3.1370	 5.6610
 3.1390	 5.6420
 3.1410	 5.6450
 3.1430	 5.6280
 3.1450	 5.6570
 3.1470	 5.6790
 3.1480	 5.7480
 3.1500	 5.7300
 3.1520	 5.6870
 3.1540	 5.6700
 3.1560	 5.6850
 3.1580	 5.6140
 3.1600	 5.6390
 3.1620	 5.6700
 3.1640	 5.6620
 3.1660	 5.6310
 3.1680	 5.6430
 3.1700	 5.6320
 3.1720	 5.6520
 3.1730	 5.6320
 3.1750	 5.6540
 3.1770	 5.6060
 3.1790	 5.5980
 3.1810	 5.6000
 3.1830	 5.6460
 3.1850	 5.6620
 3.1870	 5.6710
 3.1890	 5.6530
 3.1910	 5.6700
 3.1930	 5.6070
 3.1950	 5.5860
 3.1970	 5.5900
 3.1990	 5.6100
 3.2010	 5.5830
 3.2030	 5.6190
 3.2050	 5.6960
 3.2070	 5.6920
 3.2090	 5.5680
 3.2110	 5.5980
 3.2130	 5.5950
 3.2150	 5.5870
 3.2170	 5.5940
 3.2190	 5.6220
 3.2210	 5.5980
 3.2230	 5.6040
 3.2250	 5.6330
 3.2270	 5.6770
 3.2290	 5.6700
 3.2310	 5.6830
 3.2330	 5.6520
 3.2350	 5.6270
 3.2370	 5.6180
 3.2390	 5.6430
 3.2410	 5.6070
 3.2430	 5.6140
 3.2450	 5.5910
 3.2470	 5.5630
 3.2490	 5.5540
 3.2510	 5.6370
 3.2530	 5.6320
 3.2550	 5.6460
 3.2570	 5.6350
 3.2590	 5.6260
 3.2610	 5.5740
 3.2630	 5.6030
 3.2650	 5.6090
 3.2670	 5.6250
 3.2700	 5.6060
 3.2720	 5.6180
 3.2740	 5.6060
 3.2760	 5.6510
 3.2780	 5.5950
 3.2800	 5.6070
 3.2820	 5.5860
 3.2840	 5.5960
 3.2860	 5.5850
 3.2880	 5.5640
 3.2900	 5.5660
 3.2920	 5.5990
 3.2940	 5.5850
 3.2970	 5.5950
 3.2990	 5.5560
 3.3010	 5.5740
 3.3030	 5.5660
 3.3050	 5.5750
 3.3070	 5.5760
 3.3090	 5.5570
 3.3110	 5.5280
 3.3130	 5.5810
 3.3160	 5.5740
 3.3180	 5.6150
 3.3200	 5.5810
 3.3220	 5.5400
 3.3240	 5.5310
 3.3260	 5.5860
 3.3280	 5.5440
 3.3300	 5.5150
 3.3330	 5.5280
 3.3350	 5.5610
 3.3370	 5.5530
 3.3390	 5.5270
 3.3410	 5.5180
 3.3430	 5.5270
 3.3450	 5.4380
 3.3480	 5.4340
 3.3500	 5.4850
 3.3520	 5.5140
 3.3540	 5.4420
 3.3560	 5.4160
 3.3580	 5.4370
 3.3610	 5.4940
 3.3630	 5.4570
 3.3650	 5.4360
 3.3670	 5.4100
 3.3690	 5.4070
 3.3720	 5.3940
 3.3740	 5.3920
 3.3760	 5.3330
 3.3780	 5.3440
 3.3800	 5.3610
 3.3830	 5.3820
 3.3850	 5.4110
 3.3870	 5.3990
 3.3890	 5.3120
 3.3910	 5.3120
 3.3940	 5.3030
 3.3960	 5.2970
 3.3980	 5.2480
 3.4000	 5.2270
 3.4030	 5.1650
 3.4050	 5.1700
 3.4070	 5.1800
 3.4090	 5.2850
 3.4110	 5.3530
 3.4140	 5.4180
 3.4160	 5.4820
 3.4180	 5.5970
 3.4200	 5.7110
 3.4230	 5.9680
 3.4250	 6.2600
 3.4270	 6.5320
 3.4300	 6.7100
 3.4320	 6.8120
 3.4340	 6.7530
 3.4360	 6.6150
 3.4390	 6.4320
 3.4410	 6.3360
 3.4430	 6.2410
 3.4450	 6.1850
 3.4480	 6.1270
 3.4500	 6.0840
 3.4520	 6.0330
 3.4550	 6.0890
 3.4570	 6.0840
 3.4590	 6.0760
 3.4620	 6.0460
 3.4640	 6.0410
 3.4660	 5.9980
 3.4690	 5.9500
 3.4710	 5.9220
 3.4730	 5.9330
 3.4760	 5.8920
 3.4780	 5.8770
 3.4800	 5.8390
 3.4830	 5.8500
 3.4850	 5.8210
 3.4870	 5.7490
 3.4900	 5.6900
 3.4920	 5.6920
 3.4940	 5.6560
 3.4970	 5.6100
 3.4990	 5.5540
 3.5010	 5.5980
 3.5040	 5.7010
 3.5060	 5.9360
 3.5080	 6.2950
 3.5110	 6.6690
 3.5130	 6.7810
 3.5160	 6.7270
 3.5180	 6.6000
 3.5200	 6.4650
 3.5230	 6.3850
 3.5250	 6.3560
 3.5280	 6.2790
 3.5300	 6.2910
 3.5320	 6.2480
 3.5350	 6.2000
 3.5370	 6.1530
 3.5400	 6.1300
 3.5420	 6.1270
 3.5440	 6.1670
 3.5470	 6.1810
 3.5490	 6.1710
 3.5520	 6.0960
 3.5540	 6.0710
 3.5570	 6.0720
 3.5590	 6.1200
 3.5610	 6.1180
 3.5640	 6.1180
 3.5660	 6.0780
 3.5690	 6.1060
 3.5710	 6.1500
 3.5740	 6.1550
 3.5760	 6.0850
 3.5790	 6.0620
 3.5810	 6.0750
 3.5840	 6.1000
 3.5860	 6.0760
 3.5890	 6.0850
 3.5910	 6.0940
 3.5940	 6.0920
 3.5960	 6.0480
 3.5990	 6.0490
 3.6010	 6.0370
 3.6040	 6.0510
 3.6060	 6.0480
 3.6090	 6.0910
 3.6110	 6.1090
 3.6140	 6.1070
 3.6160	 6.0790
 3.6190	 6.0680
 3.6210	 6.0910
 3.6240	 6.0890
 3.6260	 6.0490
 3.6290	 6.0470
 3.6310	 6.0680
 3.6340	 6.1150
 3.6360	 6.1250
 3.6390	 6.1090
 3.6410	 6.1010
 3.6440	 6.1120
 3.6470	 6.0730
 3.6490	 6.0910
 3.6520	 6.0810
 3.6540	 6.0820
 3.6570	 6.0720
 3.6590	 6.0560
 3.6620	 6.0400
 3.6650	 6.1150
 3.6670	 6.1500
 3.6700	 6.1460
 3.6720	 6.1080
 3.6750	 6.0900
 3.6780	 6.0730
 3.6800	 6.0930
 3.6830	 6.0840
 3.6850	 6.0960
 3.6880	 6.0870
 3.6910	 6.1180
 3.6930	 6.1570
 3.6960	 6.1540
 3.6990	 6.0800
 3.7010	 6.0740
 3.7040	 6.1060
 3.7070	 6.1550
 3.7090	 6.1470
 3.7120	 6.1550
 3.7150	 6.1490
 3.7170	 6.1610
 3.7200	 6.1660
 3.7230	 6.1770
 3.7250	 6.1530
 3.7280	 6.1510
 3.7310	 6.1370
 3.7330	 6.1560
 3.7360	 6.1880
 3.7390	 6.2240
 3.7410	 6.2020
 3.7440	 6.1760
 3.7470	 6.1790
 3.7490	 6.2270
 3.7520	 6.2170
 3.7550	 6.1820
 3.7580	 6.1830
 3.7600	 6.2100
 3.7630	 6.1960
 3.7660	 6.2050
 3.7690	 6.2260
 3.7710	 6.2630
 3.7740	 6.2790
 3.7770	 6.3060
 3.7790	 6.2560
 3.7820	 6.2070
 3.7850	 6.1800
 3.7880	 6.2130
 3.7910	 6.2200
 3.7930	 6.2560
 3.7960	 6.2670
 3.7990	 6.2900
 3.8020	 6.3150
 3.8040	 6.3350
 3.8070	 6.3030
 3.8100	 6.2820
 3.8130	 6.3010
 3.8160	 6.3100
 3.8180	 6.2920
 3.8210	 6.2910
 3.8240	 6.2710
 3.8270	 6.2970
 3.8300	 6.3080
 3.8330	 6.3160
 3.8350	 6.2830
 3.8380	 6.3100
 3.8410	 6.3480
 3.8440	 6.3860
 3.8470	 6.3440
 3.8500	 6.3080
 3.8520	 6.3000
 3.8550	 6.3090
 3.8580	 6.3220
 3.8610	 6.3590
 3.8640	 6.3560
 3.8670	 6.3640
 3.8700	 6.3740
 3.8730	 6.3870
 3.8760	 6.3530
 3.8780	 6.3470
 3.8810	 6.3520
 3.8840	 6.3650
 3.8870	 6.3400
 3.8900	 6.3240
 3.8930	 6.3210
 3.8960	 6.3470
 3.8990	 6.3380
 3.9020	 6.3460
 3.9050	 6.3460
 3.9080	 6.3840
 3.9110	 6.3940
 3.9140	 6.4010
 3.9170	 6.3870
 3.9190	 6.3930
 3.9220	 6.3840
 3.9250	 6.4010
 3.9280	 6.4170
 3.9310	 6.4080
 3.9340	 6.3890
 3.9370	 6.4120
 3.9400	 6.3690
 3.9430	 6.3540
 3.9460	 6.3570
 3.9490	 6.3680
 3.9520	 6.3730
 3.9550	 6.4020
 3.9580	 6.3990
 3.9610	 6.4050
 3.9640	 6.4090
 3.9670	 6.4230
 3.9700	 6.4250
 3.9740	 6.4110
 3.9770	 6.4050
 3.9800	 6.4120
 3.9830	 6.4110
 3.9860	 6.4170
 3.9890	 6.4030
 3.9920	 6.3990
 3.9950	 6.4010
 3.9980	 6.4280
 4.0010	 6.4060
 4.0040	 6.3880
 4.0070	 6.3870
 4.0100	 6.3960
 4.0140	 6.3860
 4.0170	 6.3880
 4.0200	 6.3910
 4.0230	 6.3960
 4.0260	 6.3880
 4.0290	 6.3670
 4.0320	 6.3780
 4.0350	 6.4010
 4.0390	 6.3870
 4.0420	 6.3880
 4.0450	 6.3790
 4.0480	 6.4010
 4.0510	 6.4060
 4.0540	 6.4030
 4.0570	 6.3720
 4.0610	 6.3770
 4.0640	 6.3950
 4.0670	 6.3990
 4.0700	 6.3970
 4.0730	 6.4140
 4.0770	 6.4120
 4.0800	 6.4280
 4.0830	 6.4260
 4.0860	 6.3890
 4.0890	 6.3230
 4.0930	 6.3350
 4.0960	 6.3540
 4.0990	 6.3930
 4.1020	 6.3860
 4.1060	 6.3670
 4.1090	 6.3660
 4.1120	 6.3820
 4.1150	 6.4010
 4.1190	 6.4150
 4.1220	 6.3810
 4.1250	 6.3260
 4.1290	 6.3310
 4.1320	 6.3490
 4.1350	 6.3290
 4.1380	 6.3610
 4.1420	 6.3880
 4.1450	 6.3890
 4.1480	 6.3960
 4.1520	 6.3980
 4.1550	 6.3850
 4.1580	 6.4020
 4.1620	 6.3870
 4.1650	 6.3880
 4.1680	 6.3910
 4.1720	 6.3540
 4.1750	 6.3250
 4.1780	 6.3380
 4.1820	 6.3390
 4.1850	 6.3620
 4.1890	 6.3590
 4.1920	 6.3400
 4.1950	 6.3380
 4.1990	 6.3450
 4.2020	 6.3560
 4.2060	 6.3540
 4.2090	 6.4060
 4.2120	 6.4840
 4.2160	 6.4800
 4.2190	 6.4810
 4.2230	 6.4470
 4.2260	 6.3780
 4.2300	 6.4060
 4.2330	 6.4170
 4.2360	 6.4250
 4.2400	 6.4050
 4.2430	 6.3920
 4.2470	 6.3770
 4.2500	 6.3290
 4.2540	 6.3190
 4.2570	 6.3210
 4.2610	 6.4020
 4.2640	 6.4860
 4.2680	 6.4470
 4.2710	 6.4080
 4.2750	 6.3860
 4.2780	 6.3440
 4.2820	 6.3760
 4.2850	 6.3790
 4.2890	 6.3290
 4.2930	 6.2770
 4.2960	 6.2940
 4.3000	 6.2840
 4.3030	 6.2790
 4.3070	 6.2590
 4.3100	 6.2530
 4.3140	 6.2470
 4.3180	 6.2530
 4.3210	 6.2140
 4.3250	 6.1860
 4.3280	 6.1950
 4.3320	 6.2340
 4.3360	 6.2460
 4.3390	 6.2180
 4.3430	 6.1690
 4.3470	 6.1440
 4.3500	 6.1670
 4.3540	 6.1630
 4.3580	 6.1780
 4.3610	 6.1750
 4.3650	 6.1420
 4.3690	 6.1730
 4.3720	 6.1910
 4.3760	 6.1570
 4.3800	 6.1440
 4.3830	 6.1360
 4.3870	 6.1220
 4.3910	 6.1250
 4.3940	 6.1260
 4.3980	 6.1130
 4.4020	 6.1330
 4.4060	 6.1360
 4.4090	 6.1220
 4.4130	 6.1280
 4.4170	 6.1330
 4.4210	 6.1200
 4.4240	 6.1090
 4.4280	 6.1240
 4.4320	 6.1370
 4.4360	 6.1400
 4.4400	 6.1030
 4.4430	 6.0650
 4.4470	 6.0770
 4.4510	 6.0930
 4.4550	 6.0910
 4.4590	 6.0680
 4.4630	 6.0660
 4.4660	 6.0620
 4.4700	 6.0590
 4.4740	 6.0680
 4.4780	 6.0620
 4.4820	 6.0380
 4.4860	 6.0460
 4.4900	 6.0680
 4.4930	 6.0520
 4.4970	 6.0240
 4.5010	 6.0280
 4.5050	 6.0480
 4.5090	 6.0370
 4.5130	 6.0140
 4.5170	 6.0160
 4.5210	 6.0460
 4.5250	 6.0270
 4.5290	 6.0020
 4.5330	 5.9850
 4.5370	 5.9670
 4.5410	 5.9830
 4.5450	 6.0310
 4.5490	 6.0210
 4.5530	 5.9790
 4.5570	 5.9990
 4.5610	 6.0040
 4.5650	 6.0030
 4.5690	 6.0190
 4.5730	 6.0350
 4.5770	 6.0290
 4.5810	 6.0140
 4.5850	 5.9990
 4.5890	 6.0020
 4.5930	 6.0130
 4.5970	 6.0030
 4.6010	 5.9610
 4.6050	 5.9350
 4.6090	 5.9690
 4.6130	 6.0300
 4.6170	 6.0110
 4.6220	 5.9880
 4.6260	 5.9820
 4.6300	 5.9740
 4.6340	 5.9810
 4.6380	 5.9950
 4.6420	 5.9770
 4.6460	 5.9700
 4.6510	 5.9790
 4.6550	 5.9760
 4.6590	 5.9410
 4.6630	 5.9330
 4.6670	 5.9470
 4.6720	 5.9710
 4.6760	 5.9950
 4.6800	 6.0010
 4.6840	 5.9940
 4.6880	 5.9880
 4.6930	 5.9800
 4.6970	 5.9620
 4.7010	 5.9580
 4.7050	 5.9990
 4.7100	 5.9890
 4.7140	 5.9690
 4.7180	 5.9520
 4.7230	 5.9750
 4.7270	 5.9710
 4.7310	 5.9760
 4.7360	 5.9850
 4.7400	 6.0110
 4.7440	 6.0120
 4.7490	 5.9900
 4.7530	 5.9540
 4.7570	 5.9440
 4.7620	 5.9530
 4.7660	 5.9740
 4.7700	 5.9720
 4.7750	 5.9680
 4.7790	 5.9630
 4.7840	 5.9590
 4.7880	 5.9880
 4.7920	 6.0250
 4.7970	 5.9960
 4.8010	 5.9960
 4.8060	 6.0200
 4.8100	 6.0070
 4.8150	 6.0010
 4.8190	 6.0100
 4.8240	 5.9990
 4.8280	 5.9910
 4.8330	 5.9710
 4.8370	 5.9820
 4.8420	 5.9900
 4.8460	 6.0060
 4.8510	 6.0090
 4.8550	 6.0110
 4.8600	 6.0160
 4.8640	 6.0220
 4.8690	 5.9930
 4.8740	 5.9990
 4.8780	 6.0240
 4.8830	 6.0260
 4.8870	 6.0230
 4.8920	 6.0730
 4.8970	 6.0570
 4.9010	 6.0110
 4.9060	 5.9970
 4.9100	 6.0150
 4.9150	 6.0190
 4.9200	 6.0160
 4.9240	 6.0200
 4.9290	 6.0520
 4.9340	 6.0390
 4.9390	 6.0210
 4.9430	 6.0140
 4.9480	 6.0510
 4.9530	 6.0580
 4.9570	 6.0590
 4.9620	 6.0970
 4.9670	 6.0970
 4.9720	 6.0760
 4.9760	 6.0800
 4.9810	 6.0660
 4.9860	 6.0570
 4.9910	 6.0740
 4.9960	 6.0980
 5.0000	 6.0910
 5.0050	 6.0990
 5.0100	 6.0910
 5.0150	 6.0930
 5.0200	 6.0480
 5.0250	 6.0780
 5.0300	 6.1320
 5.0340	 6.1580
 5.0390	 6.1240
 5.0440	 6.1280
 5.0490	 6.1660
 5.0540	 6.1830
 5.0590	 6.1250
 5.0640	 6.1170
 5.0690	 6.1460
 5.0740	 6.1700
 5.0790	 6.1550
 5.0840	 6.1330
 5.0890	 6.1270
 5.0940	 6.1350
 5.0990	 6.1290
 5.1040	 6.1480
 5.1090	 6.1350
 5.1140	 6.1330
 5.1190	 6.1600
 5.1240	 6.1930
 5.1290	 6.1980
 5.1340	 6.1980
 5.1390	 6.1600
 5.1440	 6.1450
 5.1490	 6.1020
 5.1550	 6.1550
 5.1600	 6.1830
 5.1650	 6.1850
 5.1700	 6.1730
 5.1750	 6.2140
 5.1800	 6.2100
 5.1850	 6.2280
 5.1910	 6.2110
 5.1960	 6.1610
 5.2010	 6.1080
 5.2060	 6.1540
 5.2110	 6.1120
 5.2170	 6.1020
 5.2220	 6.1970
 5.2270	 6.2460
 5.2330	 6.2150
 5.2380	 6.1900
 5.2430	 6.1760
 5.2480	 6.1780
 5.2540	 6.1590
 5.2590	 6.1530
 5.2640	 6.1580
 5.2700	 6.1890
 5.2750	 6.1670
 5.2800	 6.1870
 5.2860	 6.1620
 5.2910	 6.0920
 5.2970	 6.1180
 5.3020	 6.1820
 5.3080	 6.1770
 5.3130	 6.2100
 5.3180	 6.1960
 5.3240	 6.1990
 5.3290	 6.1810
 5.3350	 6.1680
 5.3400	 6.1530
 5.3460	 6.0640
 5.3510	 5.9170
 5.3570	 6.0210
 5.3620	 6.1220
 5.3680	 6.1510
 5.3740	 6.1430
 5.3790	 6.1480
 5.3850	 6.1550
 5.3900	 6.1860
 5.3960	 6.1780
 5.4010	 6.1760
 5.4070	 6.1240
 5.4130	 6.0620
 5.4180	 5.8600
 5.4240	 5.7830
 5.4300	 5.9740
 5.4350	 6.0830
 5.4410	 6.0520
 5.4470	 6.0490
 5.4530	 6.0500
 5.4580	 5.9970
 5.4640	 5.8200
 5.4700	 5.8620
 5.4760	 5.8990
 5.4810	 5.8910
 5.4870	 6.0080
 5.4930	 6.0690
 5.4990	 6.0110
 5.5050	 5.9570
 5.5110	 5.9710
 5.5160	 5.9710
 5.5220	 5.9030
 5.5280	 5.9100
 5.5340	 5.9010
 5.5400	 5.9060
 5.5460	 5.8450
 5.5520	 5.7630
 5.5580	 5.7510
 5.5640	 5.7840
 5.5700	 5.7940
 5.5760	 5.6290
 5.5820	 5.5070
 5.5880	 5.7180
 5.5940	 5.8310
 5.6000	 5.7580
 5.6060	 5.7060
 5.6120	 5.7270
 5.6180	 5.6460
 5.6240	 5.7080
 5.6300	 5.6960
 5.6360	 5.5170
 5.6420	 5.2570
 5.6490	 5.3740
 5.6550	 5.4610
 5.6610	 5.5660
 5.6670	 5.6330
 5.6730	 5.4590
 5.6800	 5.3970
 5.6860	 5.5010
 5.6920	 5.4320
 5.6980	 5.5100
 5.7050	 5.4450
 5.7110	 5.2090
 5.7170	 5.2040
 5.7230	 5.2920
 5.7300	 5.2810
 5.7360	 5.2260
 5.7420	 5.1090
 5.7490	 5.0170
 5.7550	 5.0810
 5.7620	 4.8470
 5.7680	 4.5210
 5.7740	 4.7910
 5.7810	 5.0110
 5.7870	 5.1710
 5.7940	 5.2330
 5.8000	 5.2390
 5.8070	 5.2890
 5.8130	 5.2210
 5.8200	 4.9010
 5.8260	 4.9180
 5.8330	 5.1900
 5.8390	 5.4500
 5.8460	 5.5500
 5.8530	 5.5550
 5.8590	 5.4770
 5.8660	 5.4780
 5.8730	 5.5130
 5.8790	 5.1060
 5.8860	 5.1180
 5.8930	 5.3130
 5.8990	 5.2570
 5.9060	 5.7260
 5.9130	 5.8840
 5.9190	 5.8580
 5.9260	 5.7670
 5.9330	 5.3610
 5.9400	 5.1480
 5.9470	 5.6390
 5.9530	 5.8080
 5.9600	 5.8670
 5.9670	 5.6250
 5.9740	 5.6590
 5.9810	 5.7240
 5.9880	 5.5900
 5.9950	 5.6580
 6.0020	 5.9720
 6.0090	 5.9040
 6.0160	 5.7610
 6.0230	 5.8830
 6.0300	 5.9850
 6.0370	 5.8330
 6.0440	 5.2340
 6.0510	 4.7930
 6.0580	 5.5280
 6.0650	 5.8360
 6.0720	 5.6300
 6.0790	 5.7840
 6.0860	 6.1720
 6.0930	 6.2690
 6.1010	 6.2900
 6.1080	 6.0550
 6.1150	 5.8960
 6.1220	 6.3520
 6.1290	 6.8000
 6.1370	 6.8200
 6.1440	 6.7920
 6.1510	 6.7400
 6.1580	 6.6030
 6.1660	 6.5950
 6.1730	 6.6510
 6.1800	 6.1880
 6.1880	 5.8610
 6.1950	 6.0620
 6.2030	 6.1210
 6.2100	 5.9910
 6.2180	 5.9910
 6.2250	 6.0500
 6.2320	 6.1480
 6.2400	 6.1310
 6.2480	 6.1640
 6.2550	 6.1430
 6.2630	 6.1400
 6.2700	 6.0800
 6.2780	 6.1100
 6.2850	 6.1090
 6.2930	 6.0830
 6.3010	 6.0320
 6.3080	 6.0670
 6.3160	 6.0260
 6.3240	 6.0260
 6.3310	 5.9570
 6.3390	 5.6020
 6.3470	 5.3860
 6.3550	 5.8070
 6.3620	 5.8490
 6.3700	 5.6250
 6.3780	 5.7290
 6.3860	 5.9360
 6.3940	 5.8640
 6.4020	 5.6870
 6.4100	 5.0080
 6.4180	 4.8100
 6.4260	 5.3090
 6.4340	 5.6040
 6.4420	 5.7540
 6.4500	 5.8210
 6.4580	 5.8260
 6.4660	 5.8200
 6.4740	 5.5640
 6.4820	 5.3530
 6.4900	 4.9670
 6.4980	 5.0150
 6.5060	 5.5050
 6.5140	 5.6540
 6.5230	 5.4900
 6.5310	 5.6980
 6.5390	 5.7310
 6.5470	 5.6050
 6.5560	 5.4360
 6.5640	 5.3870
 6.5720	 5.1200
 6.5800	 5.2720
 6.5890	 5.3570
 6.5970	 5.4170
 6.6060	 5.5440
 6.6140	 5.5830
 6.6230	 5.5100
 6.6310	 5.1030
 6.6390	 4.7850
 6.6480	 5.2830
 6.6570	 5.6410
 6.6650	 5.5970
 6.6740	 5.3810
 6.6820	 5.3070
 6.6910	 5.4760
 6.7000	 5.6420
 6.7080	 5.4470
 6.7170	 5.4280
 6.7260	 5.4740
 6.7340	 5.6130
 6.7430	 5.6590
 6.7520	 5.6640
 6.7610	 5.6360
 6.7690	 5.5530
 6.7780	 5.3780
 6.7870	 5.3280
 6.7960	 5.4560
 6.8050	 5.7180
 6.8140	 5.6340
 6.8230	 5.5050
 6.8320	 5.6130
 6.8410	 5.8830
 6.8500	 5.6740
 6.8590	 5.2410
 6.8680	 5.1450
 6.8770	 5.6150
 6.8860	 5.7240
 6.8960	 5.7460
 6.9050	 5.6540
 6.9140	 5.6950
 6.9230	 5.6660
 6.9320	 5.7230
 6.9420	 5.7270
 6.9510	 5.6070
 6.9600	 5.3340
 6.9700	 5.5720
 6.9790	 5.7280
 6.9880	 5.7200
 6.9980	 5.6760
 7.0070	 5.7620
 7.0170	 5.6990
 7.0260	 5.7040
 7.0360	 5.6280
 7.0450	 5.4580
 7.0550	 5.5430
 7.0650	 5.8040
 7.0740	 5.8370
 7.0840	 5.8430
 7.0940	 5.8110
 7.1030	 5.8680
 7.1130	 5.7570
 7.1230	 5.7690
 7.1330	 5.7680
 7.1420	 5.6970
 7.1520	 5.6080
 7.1620	 5.6220
 7.1720	 5.5010
 7.1820	 5.6180
 7.1920	 5.6340
 7.2020	 5.5610
 7.2120	 5.4820
 7.2220	 5.6400
 7.2320	 5.6300
 7.2420	 5.6410
 7.2520	 5.5750
 7.2620	 5.5980
 7.2730	 5.4850
 7.2830	 5.5020
 7.2930	 5.5190
 7.3030	 5.5690
 7.3140	 5.5360
 7.3240	 5.5900
 7.3340	 5.4860
 7.3450	 5.5080
 7.3550	 5.5830
 7.3660	 5.6890
 7.3760	 5.6230
 7.3870	 5.6360
 7.3970	 5.6210
 7.4080	 5.6610
 7.4180	 5.6250
 7.4290	 5.6950
 7.4400	 5.7030
 7.4500	 5.7680
 7.4610	 5.6800
 7.4720	 5.6940
 7.4830	 5.7470
 7.4930	 5.8830
 7.5040	 5.8900
 7.5150	 5.9400
 7.5260	 5.9560
 7.5370	 6.0440
 7.5480	 5.9740
 7.5590	 5.9580
 7.5700	 5.9090
 7.5810	 5.9920
 7.5920	 6.0680
 7.6030	 6.1880
 7.6140	 6.1270
 7.6260	 6.1170
 7.6370	 6.0170
 7.6480	 5.9730
 7.6590	 5.9020
 7.6710	 5.9400
 7.6820	 5.8190
 7.6940	 5.7760
 7.7050	 5.7300
 7.7160	 5.7870
 7.7280	 5.7250
 7.7390	 5.7150
 7.7510	 5.6030
 7.7630	 5.6050
 7.7740	 5.6130
 7.7860	 5.7030
 7.7980	 5.6890
 7.8090	 5.7000
 7.8210	 5.5850
 7.8330	 5.5820
 7.8450	 5.5280
 7.8570	 5.5370
 7.8690	 5.4780
 7.8810	 5.5050
 7.8930	 5.4530
 7.9050	 5.5110
 7.9170	 5.4910
 7.9290	 5.5200
 7.9410	 5.4550
 7.9530	 5.4930
 7.9650	 5.4410
 7.9780	 5.5180
 7.9900	 5.4410
 8.0020	 5.4400
 8.0150	 5.4010
 8.0270	 5.5140
 8.0390	 5.4730
 8.0520	 5.5250
 8.0640	 5.5050
 8.0770	 5.5410
 8.0900	 5.4350
 8.1020	 5.5690
 8.1150	 5.6080
 8.1280	 5.6640
 8.1400	 5.6220
 8.1530	 5.6990
 8.1660	 5.6790
 8.1790	 5.8460
 8.1920	 5.7820
 8.2050	 5.7980
 8.2180	 5.7480
 8.2310	 5.8190
 8.2440	 5.7460
 8.2570	 5.7900
 8.2700	 5.6750
 8.2830	 5.7280
 8.2970	 5.6690
 8.3100	 5.7730
 8.3230	 5.7480
 8.3370	 5.8280
 8.3500	 5.7540
 8.3640	 5.8320
 8.3770	 5.6740
 8.3910	 5.7430
 8.4040	 5.7360
 8.4180	 5.8030
 8.4320	 5.7850
 8.4450	 5.8650
 8.4590	 5.7310
 8.4730	 5.7760
 8.4870	 5.7190
 8.5010	 5.8420
 8.5150	 5.8000
 8.5290	 5.8670
 8.5430	 5.7910
 8.5570	 5.9350
 8.5710	 5.9610
 8.5850	 6.1250
 8.5990	 6.1220
 8.6140	 6.2780
 8.6280	 6.2870
 8.6420	 6.3050
 8.6570	 6.2200
 8.6710	 6.3450
 8.6860	 6.2790
 8.7000	 6.3320
 8.7150	 6.3110
 8.7300	 6.4350
 8.7440	 6.3680
 8.7590	 6.4350
 8.7740	 6.3690
 8.7890	 6.4280
 8.8040	 6.3580
 8.8190	 6.4640
 8.8340	 6.4100
 8.8490	 6.4450
 8.8640	 6.3080
 8.8790	 6.4040
 8.8940	 6.4350
 8.9100	 6.5320
 8.9250	 6.4240
 8.9400	 6.5030
 8.9560	 6.4400
 8.9710	 6.5370
 8.9870	 6.4950
 9.0020	 6.6020
 9.0180	 6.5530
 9.0340	 6.6630
 9.0500	 6.6260
 9.0650	 6.6960
 9.0810	 6.6280
 9.0970	 6.7230
 9.1130	 6.6410
 9.1290	 6.7360
 9.1450	 6.6720
 9.1620	 6.7550
 9.1780	 6.6820
 9.1940	 6.8170
 9.2100	 6.7660
 9.2270	 6.8690
 9.2430	 6.8050
 9.2600	 6.8900
 9.2760	 6.8430
 9.2930	 6.9180
 9.3100	 6.8370
 9.3260	 6.9390
 9.3430	 6.8860
 9.3600	 6.9950
 9.3770	 6.8840
 9.3940	 6.9730
 9.4110	 6.8870
 9.4280	 6.9720
 9.4450	 6.8510
 9.4620	 6.8940
 9.4800	 6.8130
 9.4970	 6.9080
 9.5150	 6.8030
 9.5320	 6.8840
 9.5500	 6.7500
 9.5670	 6.7360
 9.5850	 6.6910
 9.6030	 6.9150
 9.6200	 6.8120
 9.6380	 6.8470
 9.6560	 6.7720
 9.6740	 6.8820
 9.6920	 6.7880
 9.7110	 6.8450
 9.7290	 6.7510
 9.7470	 6.8880
 9.7650	 6.8220
 9.7840	 6.8920
 9.8020	 6.7820
 9.8210	 6.8390
 9.8390	 6.7810
 9.8580	 6.8140
 9.8770	 6.6540
 9.8960	 6.7230
 9.9150	 6.6530
 9.9340	 6.7340
 9.9530	 6.5990
 9.9720	 6.6120
 9.9910	 6.4830
10.0100	 6.5780
10.0300	 6.5290
10.0490	 6.5590
10.0690	 6.4120
10.0880	 6.4670
10.1080	 6.3770
10.1280	 6.4620
10.1480	 6.4230
10.1670	 6.4510
10.1870	 6.3310
10.2070	 6.4510
10.2280	 6.3460
10.2480	 6.3740
10.2680	 6.2300
10.2890	 6.3340
10.3090	 6.3050
10.3300	 6.3760
10.3500	 6.2680
10.3710	 6.3370
10.3920	 6.2200
10.4120	 6.2610
10.4330	 6.1870
10.4540	 6.3020
10.4760	 6.1880
10.4970	 6.2290
10.5180	 6.1460
10.5390	 6.2200
10.5610	 6.0850
10.5820	 6.1810
10.6040	 6.0370
10.6260	 6.1120
10.6480	 6.0510
10.6700	 6.1970
10.6920	 6.1240
10.7140	 6.1630
10.7360	 6.0550
10.7580	 6.1430
10.7800	 6.0460
10.8030	 6.1340
10.8250	 6.0550
10.8480	 6.1380
10.8710	 6.0150
10.8940	 6.1100
10.9170	 5.9860
10.9400	 6.0360
10.9630	 5.9260
10.9860	 5.9980
11.0090	 5.8820
11.0330	 5.9680
11.0560	 5.9180
11.0800	 6.0490
11.1040	 5.9200
11.1270	 5.9450
11.1510	 5.8460
11.1750	 5.9910
11.2000	 5.9420
11.2240	 6.0460
11.2480	 5.8570
11.2730	 5.9210
11.2970	 5.8450
11.3220	 5.9230
11.3470	 5.7950
11.3720	 5.8980
11.3970	 5.8110
11.4220	 5.9970
11.4470	 5.9280
11.4720	 6.0620
11.4980	 5.8240
11.5230	 5.8560
11.5490	 5.7930
11.5750	 5.9090
11.6000	 5.7860
11.6260	 5.9900
11.6530	 5.9100
11.6790	 5.9820
11.7050	 5.8430
11.7320	 5.8980
11.7580	 5.6690
11.7850	 5.7930
11.8120	 5.6930
11.8390	 5.8590
11.8660	 5.8320
11.8930	 5.9420
11.9200	 5.7920
11.9480	 5.9150
11.9760	 5.8270
12.0030	 6.0360
12.0310	 5.9130
12.0590	 6.0750
12.0870	 6.0060
12.1150	 6.1100
12.1440	 5.9440
12.1720	 6.1320
12.2010	 5.9940
12.2300	 6.0610
12.2590	 5.9660
12.2880	 6.2060
12.3170	 6.0540
12.3460	 6.2010
12.3760	 6.0140
12.4050	 6.1300
12.4350	 6.0420
12.4650	 6.1960
12.4950	 6.0630
12.5250	 6.3140
12.5550	 6.2510
12.5860	 6.3700
12.6170	 6.1310
12.6470	 6.2090
12.6780	 6.0290
12.7090	 5.9970
12.7410	 5.6230
12.7720	 5.8020
12.8030	 5.7260
12.8350	 5.8160
12.8670	 5.5930
12.8990	 5.7510
12.9310	 5.7170
12.9640	 5.8970
12.9960	 5.8020
13.0290	 5.9670
13.0610	 5.7830
13.0940	 5.9770
13.1280	 5.8720
13.1610	 6.0560
13.1940	 5.8880
13.2280	 6.0320
13.2620	 5.8470
13.2960	 6.0490
13.3300	 5.9230
13.3640	 6.0060
13.3990	 5.8230
13.4340	 6.0150
13.4690	 5.8350
13.5040	 6.0680
13.5390	 5.9830
13.5740	 6.0420
13.6100	 5.7810
13.6460	 6.0300
13.6820	 5.8740
13.7180	 6.0680
13.7540	 5.9700
13.7910	 6.1640
13.8280	 5.9550
13.8650	 6.2000
13.9020	 6.0640
13.9390	 6.3350
13.9770	 6.2000
14.0150	 6.2700
14.0530	 5.9880
14.0910	 6.1650
14.1290	 5.8900
14.1680	 6.0790
14.2070	 5.8970
14.2460	 6.1510
14.2850	 5.9450
14.3240	 6.1800
14.3640	 5.8130
14.4040	 6.0220
14.4440	 5.8450
14.4840	 6.0820
14.5250	 5.7240
14.5660	 5.9630
14.6070	 5.5410
14.6480	 5.7490
14.6900	 5.4810
14.7310	 5.7970
14.7730	 5.3420
14.8150	 5.5900
14.8580	 5.3780
14.9010	 5.7900
14.9440	 5.1320
14.9870	 5.3600
15.0300	 5.2630
15.0740	 5.7850
15.1180	 5.5480
15.1620	 5.8920
15.2060	 5.5830
15.2510	 5.8800
15.2960	 5.4140
15.3410	 5.9320
15.3870	 5.6050
