Name: Pinus lambertiana 2
Type: vegetation
Class: Tree
Genus: Pinus
Species: lambertiana
Sample No.: VH065
Owner: UCSB
Wavelength Range: VSWIR
Origin: 37.0422; -119.3028; WGS84
Collection Date: 4/20/2013
Description: Samples were collected as part of the HyspIRI Airborne Campaign. 48 individual plants were sampled in three times in 2013 - spring  summer  and fall. The name of the sample includes a 1  2  or 3 which references a different individual of the species. Samples were taken to JPL and processed within 48 hours of collection. The same leaves were processed in the Nicolet and then measured using the ASD.
Measurement: Bidirectional reflectance
First Column: X
Second Column: Y
X Units: Wavelength (micrometers)
Y Units: Reflectance (percentage)
First X Value: 0.35
Last X Value: 2.5
Number of X Values: 2151
Additional Information: vegetation.tree.pinus.lambertiana.vswir.vh065.ucsb.asd.ancillary.txt

 0.3500	 3.4460
 0.3510	 3.5350
 0.3520	 3.6390
 0.3530	 3.5630
 0.3540	 3.3140
 0.3550	 3.3270
 0.3560	 3.4180
 0.3570	 3.4400
 0.3580	 3.3220
 0.3590	 3.4640
 0.3600	 3.4880
 0.3610	 3.2990
 0.3620	 3.2850
 0.3630	 3.2690
 0.3640	 3.2600
 0.3650	 3.2930
 0.3660	 3.3390
 0.3670	 3.3640
 0.3680	 3.3580
 0.3690	 3.3300
 0.3700	 3.2560
 0.3710	 3.2400
 0.3720	 3.3010
 0.3730	 3.2800
 0.3740	 3.3230
 0.3750	 3.3720
 0.3760	 3.3360
 0.3770	 3.2700
 0.3780	 3.2430
 0.3790	 3.2600
 0.3800	 3.2700
 0.3810	 3.2660
 0.3820	 3.2530
 0.3830	 3.2400
 0.3840	 3.2480
 0.3850	 3.2190
 0.3860	 3.1620
 0.3870	 3.1210
 0.3880	 3.1870
 0.3890	 3.1890
 0.3900	 3.1380
 0.3910	 3.2260
 0.3920	 3.2360
 0.3930	 3.1980
 0.3940	 3.1710
 0.3950	 3.1390
 0.3960	 3.1640
 0.3970	 3.2110
 0.3980	 3.2110
 0.3990	 3.2100
 0.4000	 3.2340
 0.4010	 3.2630
 0.4020	 3.2250
 0.4030	 3.2240
 0.4040	 3.2590
 0.4050	 3.2900
 0.4060	 3.2610
 0.4070	 3.2720
 0.4080	 3.3230
 0.4090	 3.3480
 0.4100	 3.3840
 0.4110	 3.4170
 0.4120	 3.4430
 0.4130	 3.4840
 0.4140	 3.5300
 0.4150	 3.5750
 0.4160	 3.6160
 0.4170	 3.6580
 0.4180	 3.6910
 0.4190	 3.7290
 0.4200	 3.8090
 0.4210	 3.8640
 0.4220	 3.9010
 0.4230	 3.9400
 0.4240	 3.9900
 0.4250	 4.0330
 0.4260	 4.0720
 0.4270	 4.1150
 0.4280	 4.1540
 0.4290	 4.1970
 0.4300	 4.2380
 0.4310	 4.2500
 0.4320	 4.2860
 0.4330	 4.3260
 0.4340	 4.3450
 0.4350	 4.3720
 0.4360	 4.4020
 0.4370	 4.4320
 0.4380	 4.4680
 0.4390	 4.4880
 0.4400	 4.5040
 0.4410	 4.5260
 0.4420	 4.5390
 0.4430	 4.5750
 0.4440	 4.6160
 0.4450	 4.6310
 0.4460	 4.6510
 0.4470	 4.6660
 0.4480	 4.6760
 0.4490	 4.6980
 0.4500	 4.7280
 0.4510	 4.7500
 0.4520	 4.7520
 0.4530	 4.7720
 0.4540	 4.7950
 0.4550	 4.8110
 0.4560	 4.8170
 0.4570	 4.8250
 0.4580	 4.8340
 0.4590	 4.8440
 0.4600	 4.8560
 0.4610	 4.8730
 0.4620	 4.8870
 0.4630	 4.8900
 0.4640	 4.8920
 0.4650	 4.8960
 0.4660	 4.9010
 0.4670	 4.9060
 0.4680	 4.9100
 0.4690	 4.9140
 0.4700	 4.9220
 0.4710	 4.9370
 0.4720	 4.9410
 0.4730	 4.9370
 0.4740	 4.9400
 0.4750	 4.9440
 0.4760	 4.9440
 0.4770	 4.9430
 0.4780	 4.9580
 0.4790	 4.9660
 0.4800	 4.9680
 0.4810	 4.9690
 0.4820	 4.9750
 0.4830	 4.9790
 0.4840	 4.9810
 0.4850	 4.9860
 0.4860	 4.9850
 0.4870	 4.9960
 0.4880	 5.0270
 0.4890	 5.0430
 0.4900	 5.0550
 0.4910	 5.0690
 0.4920	 5.0890
 0.4930	 5.1090
 0.4940	 5.1350
 0.4950	 5.1700
 0.4960	 5.2090
 0.4970	 5.2450
 0.4980	 5.2810
 0.4990	 5.3220
 0.5000	 5.3750
 0.5010	 5.4400
 0.5020	 5.5120
 0.5030	 5.5860
 0.5040	 5.6700
 0.5050	 5.7540
 0.5060	 5.8380
 0.5070	 5.9490
 0.5080	 6.0700
 0.5090	 6.1950
 0.5100	 6.3280
 0.5110	 6.4800
 0.5120	 6.6390
 0.5130	 6.8060
 0.5140	 7.0010
 0.5150	 7.2000
 0.5160	 7.4040
 0.5170	 7.6200
 0.5180	 7.8470
 0.5190	 8.0780
 0.5200	 8.3130
 0.5210	 8.5570
 0.5220	 8.8010
 0.5230	 9.0420
 0.5240	 9.2800
 0.5250	 9.5110
 0.5260	 9.7360
 0.5270	 9.9520
 0.5280	10.1550
 0.5290	10.3420
 0.5300	10.5200
 0.5310	10.6890
 0.5320	10.8440
 0.5330	10.9870
 0.5340	11.1190
 0.5350	11.2390
 0.5360	11.3550
 0.5370	11.4580
 0.5380	11.5490
 0.5390	11.6320
 0.5400	11.7070
 0.5410	11.7790
 0.5420	11.8490
 0.5430	11.9100
 0.5440	11.9760
 0.5450	12.0440
 0.5460	12.1130
 0.5470	12.1820
 0.5480	12.2480
 0.5490	12.3070
 0.5500	12.3610
 0.5510	12.3990
 0.5520	12.4240
 0.5530	12.4420
 0.5540	12.4480
 0.5550	12.4370
 0.5560	12.4100
 0.5570	12.3700
 0.5580	12.3220
 0.5590	12.2620
 0.5600	12.1870
 0.5610	12.1040
 0.5620	12.0120
 0.5630	11.9140
 0.5640	11.8100
 0.5650	11.7000
 0.5660	11.5860
 0.5670	11.4650
 0.5680	11.3280
 0.5690	11.1880
 0.5700	11.0490
 0.5710	10.9110
 0.5720	10.7710
 0.5730	10.6290
 0.5740	10.4890
 0.5750	10.3620
 0.5760	10.2440
 0.5770	10.1330
 0.5780	10.0260
 0.5790	 9.9280
 0.5800	 9.8340
 0.5810	 9.7480
 0.5820	 9.6770
 0.5830	 9.6040
 0.5840	 9.5350
 0.5850	 9.4720
 0.5860	 9.4120
 0.5870	 9.3550
 0.5880	 9.2970
 0.5890	 9.2380
 0.5900	 9.1890
 0.5910	 9.1460
 0.5920	 9.1100
 0.5930	 9.0800
 0.5940	 9.0510
 0.5950	 9.0230
 0.5960	 8.9980
 0.5970	 8.9800
 0.5980	 8.9530
 0.5990	 8.9230
 0.6000	 8.9000
 0.6010	 8.8750
 0.6020	 8.8410
 0.6030	 8.7990
 0.6040	 8.7500
 0.6050	 8.6950
 0.6060	 8.6350
 0.6070	 8.5680
 0.6080	 8.4970
 0.6090	 8.4200
 0.6100	 8.3380
 0.6110	 8.2540
 0.6120	 8.1770
 0.6130	 8.1050
 0.6140	 8.0350
 0.6150	 7.9640
 0.6160	 7.8960
 0.6170	 7.8310
 0.6180	 7.7690
 0.6190	 7.7140
 0.6200	 7.6640
 0.6210	 7.6210
 0.6220	 7.5860
 0.6230	 7.5580
 0.6240	 7.5330
 0.6250	 7.5110
 0.6260	 7.4970
 0.6270	 7.4820
 0.6280	 7.4730
 0.6290	 7.4740
 0.6300	 7.4720
 0.6310	 7.4650
 0.6320	 7.4560
 0.6330	 7.4430
 0.6340	 7.4190
 0.6350	 7.3840
 0.6360	 7.3410
 0.6370	 7.2860
 0.6380	 7.2170
 0.6390	 7.1390
 0.6400	 7.0620
 0.6410	 6.9760
 0.6420	 6.8850
 0.6430	 6.7910
 0.6440	 6.6910
 0.6450	 6.6010
 0.6460	 6.5150
 0.6470	 6.4280
 0.6480	 6.3490
 0.6490	 6.2810
 0.6500	 6.2260
 0.6510	 6.1820
 0.6520	 6.1390
 0.6530	 6.0980
 0.6540	 6.0600
 0.6550	 6.0170
 0.6560	 5.9710
 0.6570	 5.9180
 0.6580	 5.8570
 0.6590	 5.7940
 0.6600	 5.7290
 0.6610	 5.6600
 0.6620	 5.5890
 0.6630	 5.5260
 0.6640	 5.4670
 0.6650	 5.4070
 0.6660	 5.3570
 0.6670	 5.3170
 0.6680	 5.2850
 0.6690	 5.2580
 0.6700	 5.2400
 0.6710	 5.2260
 0.6720	 5.2150
 0.6730	 5.2120
 0.6740	 5.2120
 0.6750	 5.2170
 0.6760	 5.2300
 0.6770	 5.2460
 0.6780	 5.2650
 0.6790	 5.2890
 0.6800	 5.3230
 0.6810	 5.3650
 0.6820	 5.4210
 0.6830	 5.4910
 0.6840	 5.5740
 0.6850	 5.6810
 0.6860	 5.8180
 0.6870	 5.9920
 0.6880	 6.2140
 0.6890	 6.4940
 0.6900	 6.8370
 0.6910	 7.2430
 0.6920	 7.7250
 0.6930	 8.2820
 0.6940	 8.9080
 0.6950	 9.5940
 0.6960	10.3400
 0.6970	11.1390
 0.6980	11.9810
 0.6990	12.8580
 0.7000	13.7660
 0.7010	14.6970
 0.7020	15.6460
 0.7030	16.6060
 0.7040	17.5740
 0.7050	18.5420
 0.7060	19.5060
 0.7070	20.4700
 0.7080	21.4390
 0.7090	22.4160
 0.7100	23.3930
 0.7110	24.3720
 0.7120	25.3580
 0.7130	26.3550
 0.7140	27.3490
 0.7150	28.3440
 0.7160	29.3460
 0.7170	30.3580
 0.7180	31.3690
 0.7190	32.3760
 0.7200	33.3820
 0.7210	34.3850
 0.7220	35.3820
 0.7230	36.3720
 0.7240	37.3510
 0.7250	38.3110
 0.7260	39.2550
 0.7270	40.1810
 0.7280	41.0690
 0.7290	41.9370
 0.7300	42.7870
 0.7310	43.6110
 0.7320	44.3920
 0.7330	45.1430
 0.7340	45.8700
 0.7350	46.5640
 0.7360	47.2230
 0.7370	47.8520
 0.7380	48.4550
 0.7390	49.0280
 0.7400	49.5630
 0.7410	50.0670
 0.7420	50.5490
 0.7430	50.9990
 0.7440	51.4190
 0.7450	51.8110
 0.7460	52.1770
 0.7470	52.5230
 0.7480	52.8410
 0.7490	53.1270
 0.7500	53.3890
 0.7510	53.6370
 0.7520	53.8680
 0.7530	54.0790
 0.7540	54.2800
 0.7550	54.4580
 0.7560	54.6160
 0.7570	54.7730
 0.7580	54.9130
 0.7590	55.0410
 0.7600	55.1600
 0.7610	55.2690
 0.7620	55.3720
 0.7630	55.4680
 0.7640	55.5550
 0.7650	55.6330
 0.7660	55.7070
 0.7670	55.7800
 0.7680	55.8490
 0.7690	55.9140
 0.7700	55.9760
 0.7710	56.0330
 0.7720	56.0730
 0.7730	56.1270
 0.7740	56.1820
 0.7750	56.2250
 0.7760	56.2740
 0.7770	56.3210
 0.7780	56.3640
 0.7790	56.4010
 0.7800	56.4460
 0.7810	56.4920
 0.7820	56.5300
 0.7830	56.5580
 0.7840	56.5950
 0.7850	56.6380
 0.7860	56.6830
 0.7870	56.7240
 0.7880	56.7580
 0.7890	56.7850
 0.7900	56.8090
 0.7910	56.8460
 0.7920	56.8850
 0.7930	56.9240
 0.7940	56.9600
 0.7950	56.9790
 0.7960	57.0040
 0.7970	57.0440
 0.7980	57.0780
 0.7990	57.1090
 0.8000	57.1350
 0.8010	57.1580
 0.8020	57.1770
 0.8030	57.2050
 0.8040	57.2390
 0.8050	57.2680
 0.8060	57.2950
 0.8070	57.3230
 0.8080	57.3500
 0.8090	57.3740
 0.8100	57.4020
 0.8110	57.4310
 0.8120	57.4550
 0.8130	57.4680
 0.8140	57.4920
 0.8150	57.5230
 0.8160	57.5520
 0.8170	57.5780
 0.8180	57.6050
 0.8190	57.6320
 0.8200	57.6560
 0.8210	57.6740
 0.8220	57.6920
 0.8230	57.7160
 0.8240	57.7480
 0.8250	57.7740
 0.8260	57.7930
 0.8270	57.8060
 0.8280	57.8280
 0.8290	57.8430
 0.8300	57.8630
 0.8310	57.8940
 0.8320	57.9120
 0.8330	57.9270
 0.8340	57.9430
 0.8350	57.9640
 0.8360	57.9930
 0.8370	58.0190
 0.8380	58.0440
 0.8390	58.0760
 0.8400	58.1110
 0.8410	58.1430
 0.8420	58.1680
 0.8430	58.1930
 0.8440	58.2150
 0.8450	58.2430
 0.8460	58.2780
 0.8470	58.3000
 0.8480	58.3300
 0.8490	58.3620
 0.8500	58.3860
 0.8510	58.4090
 0.8520	58.4380
 0.8530	58.4700
 0.8540	58.4980
 0.8550	58.5290
 0.8560	58.5530
 0.8570	58.5680
 0.8580	58.5890
 0.8590	58.6120
 0.8600	58.6380
 0.8610	58.6650
 0.8620	58.6860
 0.8630	58.7070
 0.8640	58.7280
 0.8650	58.7460
 0.8660	58.7690
 0.8670	58.7910
 0.8680	58.8150
 0.8690	58.8410
 0.8700	58.8600
 0.8710	58.8740
 0.8720	58.8900
 0.8730	58.9120
 0.8740	58.9200
 0.8750	58.9340
 0.8760	58.9590
 0.8770	58.9760
 0.8780	58.9860
 0.8790	58.9970
 0.8800	59.0120
 0.8810	59.0240
 0.8820	59.0430
 0.8830	59.0560
 0.8840	59.0580
 0.8850	59.0670
 0.8860	59.0790
 0.8870	59.0850
 0.8880	59.0850
 0.8890	59.0910
 0.8900	59.0890
 0.8910	59.0860
 0.8920	59.0920
 0.8930	59.0990
 0.8940	59.0980
 0.8950	59.0950
 0.8960	59.1050
 0.8970	59.1060
 0.8980	59.1060
 0.8990	59.1070
 0.9000	59.1000
 0.9010	59.1030
 0.9020	59.1110
 0.9030	59.1190
 0.9040	59.1230
 0.9050	59.1120
 0.9060	59.1090
 0.9070	59.1170
 0.9080	59.0980
 0.9090	59.0780
 0.9100	59.0720
 0.9110	59.0840
 0.9120	59.0870
 0.9130	59.0830
 0.9140	59.0750
 0.9150	59.0650
 0.9160	59.0700
 0.9170	59.0750
 0.9180	59.0740
 0.9190	59.0730
 0.9200	59.0730
 0.9210	59.0690
 0.9220	59.0520
 0.9230	59.0180
 0.9240	59.0070
 0.9250	58.9950
 0.9260	58.9670
 0.9270	58.9240
 0.9280	58.9110
 0.9290	58.8860
 0.9300	58.8400
 0.9310	58.8030
 0.9320	58.7640
 0.9330	58.7240
 0.9340	58.6820
 0.9350	58.6380
 0.9360	58.5760
 0.9370	58.5260
 0.9380	58.4890
 0.9390	58.4140
 0.9400	58.3470
 0.9410	58.2830
 0.9420	58.2110
 0.9430	58.1330
 0.9440	58.0540
 0.9450	57.9730
 0.9460	57.8820
 0.9470	57.7620
 0.9480	57.6380
 0.9490	57.5270
 0.9500	57.4200
 0.9510	57.2490
 0.9520	57.0860
 0.9530	56.9450
 0.9540	56.8110
 0.9550	56.6380
 0.9560	56.4680
 0.9570	56.3110
 0.9580	56.1680
 0.9590	56.0310
 0.9600	55.9070
 0.9610	55.7930
 0.9620	55.6830
 0.9630	55.5860
 0.9640	55.5030
 0.9650	55.4350
 0.9660	55.3740
 0.9670	55.3180
 0.9680	55.2520
 0.9690	55.1950
 0.9700	55.1650
 0.9710	55.1140
 0.9720	55.0680
 0.9730	55.0340
 0.9740	55.0030
 0.9750	54.9690
 0.9760	54.9530
 0.9770	54.9460
 0.9780	54.9260
 0.9790	54.9210
 0.9800	54.9220
 0.9810	54.9230
 0.9820	54.9260
 0.9830	54.9410
 0.9840	54.9530
 0.9850	54.9730
 0.9860	55.0180
 0.9870	55.0580
 0.9880	55.0900
 0.9890	55.1190
 0.9900	55.1530
 0.9910	55.1970
 0.9920	55.2980
 0.9930	55.3990
 0.9940	55.5010
 0.9950	55.6020
 0.9960	55.7030
 0.9970	55.8050
 0.9980	55.9060
 0.9990	56.0070
 1.0000	56.1090
 1.0010	56.2100
 1.0020	56.3110
 1.0030	56.4120
 1.0040	56.5140
 1.0050	56.6150
 1.0060	56.7160
 1.0070	56.8180
 1.0080	56.9190
 1.0090	57.0200
 1.0100	57.0200
 1.0110	57.0970
 1.0120	57.1780
 1.0130	57.2680
 1.0140	57.3510
 1.0150	57.4330
 1.0160	57.5120
 1.0170	57.5950
 1.0180	57.6720
 1.0190	57.7540
 1.0200	57.8420
 1.0210	57.9220
 1.0220	58.0000
 1.0230	58.0800
 1.0240	58.1580
 1.0250	58.2370
 1.0260	58.3190
 1.0270	58.4010
 1.0280	58.4860
 1.0290	58.5640
 1.0300	58.6380
 1.0310	58.7130
 1.0320	58.7830
 1.0330	58.8530
 1.0340	58.9280
 1.0350	59.0020
 1.0360	59.0760
 1.0370	59.1480
 1.0380	59.2190
 1.0390	59.2880
 1.0400	59.3550
 1.0410	59.4220
 1.0420	59.4850
 1.0430	59.5440
 1.0440	59.6040
 1.0450	59.6640
 1.0460	59.7200
 1.0470	59.7720
 1.0480	59.8250
 1.0490	59.8750
 1.0500	59.9260
 1.0510	59.9800
 1.0520	60.0340
 1.0530	60.0840
 1.0540	60.1300
 1.0550	60.1750
 1.0560	60.2180
 1.0570	60.2600
 1.0580	60.2990
 1.0590	60.3380
 1.0600	60.3760
 1.0610	60.4110
 1.0620	60.4430
 1.0630	60.4760
 1.0640	60.5070
 1.0650	60.5360
 1.0660	60.5620
 1.0670	60.5910
 1.0680	60.6190
 1.0690	60.6450
 1.0700	60.6710
 1.0710	60.7010
 1.0720	60.7240
 1.0730	60.7430
 1.0740	60.7600
 1.0750	60.7740
 1.0760	60.7870
 1.0770	60.7980
 1.0780	60.8070
 1.0790	60.8140
 1.0800	60.8190
 1.0810	60.8210
 1.0820	60.8240
 1.0830	60.8250
 1.0840	60.8250
 1.0850	60.8270
 1.0860	60.8260
 1.0870	60.8210
 1.0880	60.8120
 1.0890	60.8040
 1.0900	60.7950
 1.0910	60.7810
 1.0920	60.7650
 1.0930	60.7490
 1.0940	60.7310
 1.0950	60.7120
 1.0960	60.6910
 1.0970	60.6710
 1.0980	60.6480
 1.0990	60.6240
 1.1000	60.6020
 1.1010	60.5760
 1.1020	60.5470
 1.1030	60.5170
 1.1040	60.4910
 1.1050	60.4650
 1.1060	60.4310
 1.1070	60.3950
 1.1080	60.3530
 1.1090	60.3010
 1.1100	60.2550
 1.1110	60.2110
 1.1120	60.1640
 1.1130	60.1180
 1.1140	60.0650
 1.1150	60.0120
 1.1160	59.9490
 1.1170	59.8830
 1.1180	59.8090
 1.1190	59.7290
 1.1200	59.6380
 1.1210	59.5420
 1.1220	59.4360
 1.1230	59.3180
 1.1240	59.1920
 1.1250	59.0530
 1.1260	58.9070
 1.1270	58.7400
 1.1280	58.5600
 1.1290	58.3620
 1.1300	58.1490
 1.1310	57.9160
 1.1320	57.6650
 1.1330	57.4010
 1.1340	57.1230
 1.1350	56.8250
 1.1360	56.5120
 1.1370	56.1830
 1.1380	55.8410
 1.1390	55.4880
 1.1400	55.1280
 1.1410	54.7670
 1.1420	54.3970
 1.1430	54.0210
 1.1440	53.6530
 1.1450	53.2810
 1.1460	52.9220
 1.1470	52.5680
 1.1480	52.2260
 1.1490	51.8890
 1.1500	51.5730
 1.1510	51.2630
 1.1520	50.9760
 1.1530	50.7070
 1.1540	50.4550
 1.1550	50.2220
 1.1560	50.0030
 1.1570	49.8000
 1.1580	49.6150
 1.1590	49.4430
 1.1600	49.2850
 1.1610	49.1440
 1.1620	49.0150
 1.1630	48.8970
 1.1640	48.7900
 1.1650	48.6890
 1.1660	48.5970
 1.1670	48.5130
 1.1680	48.4370
 1.1690	48.3650
 1.1700	48.3040
 1.1710	48.2380
 1.1720	48.1740
 1.1730	48.1110
 1.1740	48.0490
 1.1750	47.9880
 1.1760	47.9270
 1.1770	47.8680
 1.1780	47.8070
 1.1790	47.7420
 1.1800	47.6770
 1.1810	47.6140
 1.1820	47.5500
 1.1830	47.4840
 1.1840	47.4220
 1.1850	47.3610
 1.1860	47.3000
 1.1870	47.2440
 1.1880	47.1910
 1.1890	47.1380
 1.1900	47.0920
 1.1910	47.0490
 1.1920	47.0120
 1.1930	46.9790
 1.1940	46.9510
 1.1950	46.9280
 1.1960	46.9100
 1.1970	46.8970
 1.1980	46.8870
 1.1990	46.8810
 1.2000	46.8810
 1.2010	46.8880
 1.2020	46.9010
 1.2030	46.9190
 1.2040	46.9430
 1.2050	46.9720
 1.2060	47.0020
 1.2070	47.0380
 1.2080	47.0780
 1.2090	47.1200
 1.2100	47.1670
 1.2110	47.2220
 1.2120	47.2840
 1.2130	47.3480
 1.2140	47.4200
 1.2150	47.4930
 1.2160	47.5680
 1.2170	47.6450
 1.2180	47.7270
 1.2190	47.8130
 1.2200	47.9000
 1.2210	47.9870
 1.2220	48.0780
 1.2230	48.1660
 1.2240	48.2570
 1.2250	48.3460
 1.2260	48.4320
 1.2270	48.5220
 1.2280	48.6120
 1.2290	48.7000
 1.2300	48.7890
 1.2310	48.8730
 1.2320	48.9550
 1.2330	49.0340
 1.2340	49.1120
 1.2350	49.1880
 1.2360	49.2610
 1.2370	49.3320
 1.2380	49.3990
 1.2390	49.4650
 1.2400	49.5300
 1.2410	49.5940
 1.2420	49.6590
 1.2430	49.7220
 1.2440	49.7850
 1.2450	49.8430
 1.2460	49.9010
 1.2470	49.9560
 1.2480	50.0040
 1.2490	50.0540
 1.2500	50.1040
 1.2510	50.1530
 1.2520	50.2030
 1.2530	50.2470
 1.2540	50.2860
 1.2550	50.3230
 1.2560	50.3590
 1.2570	50.3960
 1.2580	50.4280
 1.2590	50.4580
 1.2600	50.4860
 1.2610	50.5120
 1.2620	50.5330
 1.2630	50.5550
 1.2640	50.5790
 1.2650	50.5990
 1.2660	50.6180
 1.2670	50.6320
 1.2680	50.6430
 1.2690	50.6530
 1.2700	50.6600
 1.2710	50.6660
 1.2720	50.6700
 1.2730	50.6700
 1.2740	50.6700
 1.2750	50.6650
 1.2760	50.6570
 1.2770	50.6480
 1.2780	50.6330
 1.2790	50.6160
 1.2800	50.5980
 1.2810	50.5740
 1.2820	50.5480
 1.2830	50.5200
 1.2840	50.4890
 1.2850	50.4530
 1.2860	50.4110
 1.2870	50.3670
 1.2880	50.3180
 1.2890	50.2650
 1.2900	50.2070
 1.2910	50.1450
 1.2920	50.0760
 1.2930	50.0000
 1.2940	49.9220
 1.2950	49.8390
 1.2960	49.7520
 1.2970	49.6590
 1.2980	49.5610
 1.2990	49.4540
 1.3000	49.3410
 1.3010	49.2250
 1.3020	49.1020
 1.3030	48.9750
 1.3040	48.8410
 1.3050	48.6960
 1.3060	48.5480
 1.3070	48.3960
 1.3080	48.2360
 1.3090	48.0760
 1.3100	47.9080
 1.3110	47.7300
 1.3120	47.5460
 1.3130	47.3530
 1.3140	47.1540
 1.3150	46.9520
 1.3160	46.7430
 1.3170	46.5280
 1.3180	46.3100
 1.3190	46.0860
 1.3200	45.8540
 1.3210	45.6190
 1.3220	45.3800
 1.3230	45.1330
 1.3240	44.8810
 1.3250	44.6260
 1.3260	44.3660
 1.3270	44.1010
 1.3280	43.8350
 1.3290	43.5640
 1.3300	43.2930
 1.3310	43.0230
 1.3320	42.7500
 1.3330	42.4800
 1.3340	42.2070
 1.3350	41.9320
 1.3360	41.6600
 1.3370	41.3880
 1.3380	41.1190
 1.3390	40.8530
 1.3400	40.5880
 1.3410	40.3280
 1.3420	40.0720
 1.3430	39.8200
 1.3440	39.5740
 1.3450	39.3310
 1.3460	39.0900
 1.3470	38.8550
 1.3480	38.6230
 1.3490	38.3970
 1.3500	38.1790
 1.3510	37.9640
 1.3520	37.7510
 1.3530	37.5410
 1.3540	37.3310
 1.3550	37.1220
 1.3560	36.9170
 1.3570	36.7100
 1.3580	36.5030
 1.3590	36.2960
 1.3600	36.0840
 1.3610	35.8700
 1.3620	35.6520
 1.3630	35.4280
 1.3640	35.1990
 1.3650	34.9610
 1.3660	34.7170
 1.3670	34.4630
 1.3680	34.1970
 1.3690	33.9200
 1.3700	33.6250
 1.3710	33.3180
 1.3720	32.9960
 1.3730	32.6540
 1.3740	32.3000
 1.3750	31.9240
 1.3760	31.5250
 1.3770	31.1050
 1.3780	30.6600
 1.3790	30.1930
 1.3800	29.7040
 1.3810	29.1910
 1.3820	28.6620
 1.3830	28.1120
 1.3840	27.5490
 1.3850	26.9710
 1.3860	26.3850
 1.3870	25.7790
 1.3880	25.1790
 1.3890	24.5710
 1.3900	23.9600
 1.3910	23.3590
 1.3920	22.7600
 1.3930	22.1630
 1.3940	21.5790
 1.3950	20.9970
 1.3960	20.4320
 1.3970	19.8840
 1.3980	19.3530
 1.3990	18.8480
 1.4000	18.3600
 1.4010	17.8890
 1.4020	17.4410
 1.4030	17.0100
 1.4040	16.6010
 1.4050	16.2160
 1.4060	15.8480
 1.4070	15.5040
 1.4080	15.1780
 1.4090	14.8700
 1.4100	14.5840
 1.4110	14.3130
 1.4120	14.0600
 1.4130	13.8240
 1.4140	13.6020
 1.4150	13.3980
 1.4160	13.2080
 1.4170	13.0300
 1.4180	12.8640
 1.4190	12.7090
 1.4200	12.5640
 1.4210	12.4310
 1.4220	12.3070
 1.4230	12.1920
 1.4240	12.0850
 1.4250	11.9860
 1.4260	11.8950
 1.4270	11.8100
 1.4280	11.7320
 1.4290	11.6590
 1.4300	11.5930
 1.4310	11.5330
 1.4320	11.4810
 1.4330	11.4310
 1.4340	11.3870
 1.4350	11.3460
 1.4360	11.3080
 1.4370	11.2740
 1.4380	11.2450
 1.4390	11.2200
 1.4400	11.1990
 1.4410	11.1820
 1.4420	11.1660
 1.4430	11.1530
 1.4440	11.1410
 1.4450	11.1330
 1.4460	11.1270
 1.4470	11.1240
 1.4480	11.1210
 1.4490	11.1210
 1.4500	11.1220
 1.4510	11.1240
 1.4520	11.1300
 1.4530	11.1360
 1.4540	11.1440
 1.4550	11.1520
 1.4560	11.1620
 1.4570	11.1740
 1.4580	11.1880
 1.4590	11.2050
 1.4600	11.2240
 1.4610	11.2460
 1.4620	11.2720
 1.4630	11.3010
 1.4640	11.3330
 1.4650	11.3680
 1.4660	11.4060
 1.4670	11.4460
 1.4680	11.4910
 1.4690	11.5380
 1.4700	11.5890
 1.4710	11.6430
 1.4720	11.7000
 1.4730	11.7590
 1.4740	11.8220
 1.4750	11.8870
 1.4760	11.9530
 1.4770	12.0220
 1.4780	12.0920
 1.4790	12.1660
 1.4800	12.2400
 1.4810	12.3160
 1.4820	12.3950
 1.4830	12.4750
 1.4840	12.5560
 1.4850	12.6410
 1.4860	12.7240
 1.4870	12.8100
 1.4880	12.8960
 1.4890	12.9830
 1.4900	13.0710
 1.4910	13.1590
 1.4920	13.2480
 1.4930	13.3380
 1.4940	13.4290
 1.4950	13.5210
 1.4960	13.6130
 1.4970	13.7040
 1.4980	13.7970
 1.4990	13.8900
 1.5000	13.9830
 1.5010	14.0790
 1.5020	14.1740
 1.5030	14.2690
 1.5040	14.3640
 1.5050	14.4570
 1.5060	14.5510
 1.5070	14.6450
 1.5080	14.7390
 1.5090	14.8350
 1.5100	14.9300
 1.5110	15.0240
 1.5120	15.1190
 1.5130	15.2120
 1.5140	15.3040
 1.5150	15.3970
 1.5160	15.4910
 1.5170	15.5850
 1.5180	15.6760
 1.5190	15.7650
 1.5200	15.8560
 1.5210	15.9450
 1.5220	16.0350
 1.5230	16.1260
 1.5240	16.2150
 1.5250	16.3050
 1.5260	16.3920
 1.5270	16.4780
 1.5280	16.5640
 1.5290	16.6490
 1.5300	16.7350
 1.5310	16.8220
 1.5320	16.9060
 1.5330	16.9890
 1.5340	17.0720
 1.5350	17.1540
 1.5360	17.2380
 1.5370	17.3200
 1.5380	17.4020
 1.5390	17.4840
 1.5400	17.5620
 1.5410	17.6420
 1.5420	17.7210
 1.5430	17.8000
 1.5440	17.8800
 1.5450	17.9560
 1.5460	18.0320
 1.5470	18.1100
 1.5480	18.1840
 1.5490	18.2610
 1.5500	18.3380
 1.5510	18.4140
 1.5520	18.4910
 1.5530	18.5660
 1.5540	18.6390
 1.5550	18.7120
 1.5560	18.7830
 1.5570	18.8560
 1.5580	18.9280
 1.5590	19.0000
 1.5600	19.0710
 1.5610	19.1420
 1.5620	19.2130
 1.5630	19.2830
 1.5640	19.3520
 1.5650	19.4220
 1.5660	19.4910
 1.5670	19.5600
 1.5680	19.6300
 1.5690	19.6990
 1.5700	19.7670
 1.5710	19.8340
 1.5720	19.9000
 1.5730	19.9660
 1.5740	20.0320
 1.5750	20.1000
 1.5760	20.1670
 1.5770	20.2340
 1.5780	20.3010
 1.5790	20.3680
 1.5800	20.4330
 1.5810	20.4990
 1.5820	20.5630
 1.5830	20.6270
 1.5840	20.6930
 1.5850	20.7590
 1.5860	20.8260
 1.5870	20.8940
 1.5880	20.9620
 1.5890	21.0300
 1.5900	21.0970
 1.5910	21.1640
 1.5920	21.2320
 1.5930	21.2980
 1.5940	21.3670
 1.5950	21.4360
 1.5960	21.5030
 1.5970	21.5710
 1.5980	21.6400
 1.5990	21.7080
 1.6000	21.7770
 1.6010	21.8450
 1.6020	21.9130
 1.6030	21.9800
 1.6040	22.0470
 1.6050	22.1150
 1.6060	22.1820
 1.6070	22.2470
 1.6080	22.3120
 1.6090	22.3740
 1.6100	22.4390
 1.6110	22.5030
 1.6120	22.5660
 1.6130	22.6310
 1.6140	22.6930
 1.6150	22.7540
 1.6160	22.8150
 1.6170	22.8730
 1.6180	22.9310
 1.6190	22.9880
 1.6200	23.0420
 1.6210	23.0980
 1.6220	23.1520
 1.6230	23.2070
 1.6240	23.2610
 1.6250	23.3100
 1.6260	23.3580
 1.6270	23.4050
 1.6280	23.4510
 1.6290	23.4980
 1.6300	23.5470
 1.6310	23.5930
 1.6320	23.6370
 1.6330	23.6810
 1.6340	23.7240
 1.6350	23.7660
 1.6360	23.8070
 1.6370	23.8480
 1.6380	23.8890
 1.6390	23.9280
 1.6400	23.9670
 1.6410	24.0030
 1.6420	24.0360
 1.6430	24.0660
 1.6440	24.0940
 1.6450	24.1180
 1.6460	24.1390
 1.6470	24.1570
 1.6480	24.1730
 1.6490	24.1850
 1.6500	24.1940
 1.6510	24.2000
 1.6520	24.2030
 1.6530	24.2030
 1.6540	24.2030
 1.6550	24.2020
 1.6560	24.1980
 1.6570	24.1950
 1.6580	24.1900
 1.6590	24.1820
 1.6600	24.1770
 1.6610	24.1700
 1.6620	24.1610
 1.6630	24.1550
 1.6640	24.1500
 1.6650	24.1450
 1.6660	24.1410
 1.6670	24.1360
 1.6680	24.1310
 1.6690	24.1270
 1.6700	24.1230
 1.6710	24.1190
 1.6720	24.1150
 1.6730	24.1090
 1.6740	24.1020
 1.6750	24.0960
 1.6760	24.0880
 1.6770	24.0790
 1.6780	24.0690
 1.6790	24.0550
 1.6800	24.0380
 1.6810	24.0170
 1.6820	23.9930
 1.6830	23.9650
 1.6840	23.9320
 1.6850	23.8950
 1.6860	23.8530
 1.6870	23.8080
 1.6880	23.7630
 1.6890	23.7160
 1.6900	23.6680
 1.6910	23.6170
 1.6920	23.5660
 1.6930	23.5120
 1.6940	23.4600
 1.6950	23.4060
 1.6960	23.3550
 1.6970	23.3050
 1.6980	23.2540
 1.6990	23.2040
 1.7000	23.1530
 1.7010	23.1030
 1.7020	23.0520
 1.7030	23.0010
 1.7040	22.9500
 1.7050	22.8980
 1.7060	22.8470
 1.7070	22.7980
 1.7080	22.7490
 1.7090	22.7010
 1.7100	22.6520
 1.7110	22.6030
 1.7120	22.5560
 1.7130	22.5100
 1.7140	22.4620
 1.7150	22.4150
 1.7160	22.3690
 1.7170	22.3210
 1.7180	22.2750
 1.7190	22.2310
 1.7200	22.1840
 1.7210	22.1390
 1.7220	22.0940
 1.7230	22.0460
 1.7240	21.9990
 1.7250	21.9510
 1.7260	21.9040
 1.7270	21.8600
 1.7280	21.8180
 1.7290	21.7770
 1.7300	21.7370
 1.7310	21.6980
 1.7320	21.6620
 1.7330	21.6250
 1.7340	21.5890
 1.7350	21.5520
 1.7360	21.5150
 1.7370	21.4750
 1.7380	21.4340
 1.7390	21.3910
 1.7400	21.3450
 1.7410	21.2990
 1.7420	21.2500
 1.7430	21.2000
 1.7440	21.1510
 1.7450	21.0980
 1.7460	21.0440
 1.7470	20.9900
 1.7480	20.9340
 1.7490	20.8790
 1.7500	20.8250
 1.7510	20.7720
 1.7520	20.7180
 1.7530	20.6670
 1.7540	20.6180
 1.7550	20.5670
 1.7560	20.5160
 1.7570	20.4650
 1.7580	20.4150
 1.7590	20.3680
 1.7600	20.3210
 1.7610	20.2780
 1.7620	20.2350
 1.7630	20.1940
 1.7640	20.1550
 1.7650	20.1160
 1.7660	20.0800
 1.7670	20.0470
 1.7680	20.0140
 1.7690	19.9830
 1.7700	19.9520
 1.7710	19.9200
 1.7720	19.8910
 1.7730	19.8630
 1.7740	19.8370
 1.7750	19.8140
 1.7760	19.7900
 1.7770	19.7670
 1.7780	19.7470
 1.7790	19.7270
 1.7800	19.7120
 1.7810	19.7000
 1.7820	19.6900
 1.7830	19.6820
 1.7840	19.6770
 1.7850	19.6750
 1.7860	19.6730
 1.7870	19.6720
 1.7880	19.6740
 1.7890	19.6800
 1.7900	19.6900
 1.7910	19.6980
 1.7920	19.7040
 1.7930	19.7130
 1.7940	19.7230
 1.7950	19.7340
 1.7960	19.7470
 1.7970	19.7590
 1.7980	19.7690
 1.7990	19.7820
 1.8000	19.7970
 1.8010	19.8120
 1.8020	19.8290
 1.8030	19.8450
 1.8040	19.8600
 1.8050	19.8750
 1.8060	19.8900
 1.8070	19.9040
 1.8080	19.9190
 1.8090	19.9310
 1.8100	19.9410
 1.8110	19.9530
 1.8120	19.9650
 1.8130	19.9800
 1.8140	19.9930
 1.8150	20.0020
 1.8160	20.0120
 1.8170	20.0220
 1.8180	20.0280
 1.8190	20.0350
 1.8200	20.0430
 1.8210	20.0500
 1.8220	20.0560
 1.8230	20.0630
 1.8240	20.0680
 1.8250	20.0710
 1.8260	20.0730
 1.8270	20.0790
 1.8280	20.0850
 1.8290	20.0900
 1.8300	20.0960
 1.8310	20.1020
 1.8320	20.1080
 1.8330	20.1140
 1.8340	20.1200
 1.8350	20.1200
 1.8360	20.0960
 1.8370	20.0680
 1.8380	20.0410
 1.8390	20.0070
 1.8400	19.9710
 1.8410	19.9270
 1.8420	19.8780
 1.8430	19.8180
 1.8440	19.7510
 1.8450	19.6840
 1.8460	19.6060
 1.8470	19.5200
 1.8480	19.4290
 1.8490	19.3310
 1.8500	19.2220
 1.8510	19.1070
 1.8520	18.9830
 1.8530	18.8450
 1.8540	18.6950
 1.8550	18.5350
 1.8560	18.3650
 1.8570	18.1850
 1.8580	17.9940
 1.8590	17.7910
 1.8600	17.5760
 1.8610	17.3490
 1.8620	17.1120
 1.8630	16.8660
 1.8640	16.6090
 1.8650	16.3410
 1.8660	16.0600
 1.8670	15.7600
 1.8680	15.4470
 1.8690	15.1200
 1.8700	14.7820
 1.8710	14.4320
 1.8720	14.0770
 1.8730	13.7120
 1.8740	13.3380
 1.8750	12.9590
 1.8760	12.5760
 1.8770	12.1920
 1.8780	11.8120
 1.8790	11.4330
 1.8800	11.0570
 1.8810	10.6850
 1.8820	10.3130
 1.8830	 9.9440
 1.8840	 9.5780
 1.8850	 9.2190
 1.8860	 8.8720
 1.8870	 8.5380
 1.8880	 8.2120
 1.8890	 7.9020
 1.8900	 7.6030
 1.8910	 7.3170
 1.8920	 7.0410
 1.8930	 6.7850
 1.8940	 6.5410
 1.8950	 6.3110
 1.8960	 6.0960
 1.8970	 5.8920
 1.8980	 5.7060
 1.8990	 5.5340
 1.9000	 5.3750
 1.9010	 5.2330
 1.9020	 5.1000
 1.9030	 4.9790
 1.9040	 4.8700
 1.9050	 4.7700
 1.9060	 4.6780
 1.9070	 4.5960
 1.9080	 4.5230
 1.9090	 4.4580
 1.9100	 4.4000
 1.9110	 4.3460
 1.9120	 4.2990
 1.9130	 4.2540
 1.9140	 4.2150
 1.9150	 4.1800
 1.9160	 4.1470
 1.9170	 4.1170
 1.9180	 4.0930
 1.9190	 4.0710
 1.9200	 4.0530
 1.9210	 4.0390
 1.9220	 4.0240
 1.9230	 4.0100
 1.9240	 4.0000
 1.9250	 3.9920
 1.9260	 3.9830
 1.9270	 3.9790
 1.9280	 3.9770
 1.9290	 3.9770
 1.9300	 3.9770
 1.9310	 3.9810
 1.9320	 3.9860
 1.9330	 3.9910
 1.9340	 3.9990
 1.9350	 4.0070
 1.9360	 4.0140
 1.9370	 4.0250
 1.9380	 4.0360
 1.9390	 4.0480
 1.9400	 4.0650
 1.9410	 4.0810
 1.9420	 4.0980
 1.9430	 4.1140
 1.9440	 4.1330
 1.9450	 4.1540
 1.9460	 4.1730
 1.9470	 4.1920
 1.9480	 4.2120
 1.9490	 4.2300
 1.9500	 4.2490
 1.9510	 4.2700
 1.9520	 4.2950
 1.9530	 4.3220
 1.9540	 4.3470
 1.9550	 4.3730
 1.9560	 4.3990
 1.9570	 4.4250
 1.9580	 4.4500
 1.9590	 4.4770
 1.9600	 4.5060
 1.9610	 4.5360
 1.9620	 4.5690
 1.9630	 4.6010
 1.9640	 4.6330
 1.9650	 4.6650
 1.9660	 4.6990
 1.9670	 4.7350
 1.9680	 4.7700
 1.9690	 4.8040
 1.9700	 4.8390
 1.9710	 4.8750
 1.9720	 4.9100
 1.9730	 4.9450
 1.9740	 4.9820
 1.9750	 5.0180
 1.9760	 5.0540
 1.9770	 5.0900
 1.9780	 5.1260
 1.9790	 5.1660
 1.9800	 5.2070
 1.9810	 5.2470
 1.9820	 5.2900
 1.9830	 5.3310
 1.9840	 5.3680
 1.9850	 5.4090
 1.9860	 5.4530
 1.9870	 5.4970
 1.9880	 5.5430
 1.9890	 5.5870
 1.9900	 5.6290
 1.9910	 5.6710
 1.9920	 5.7130
 1.9930	 5.7570
 1.9940	 5.8000
 1.9950	 5.8440
 1.9960	 5.8860
 1.9970	 5.9260
 1.9980	 5.9680
 1.9990	 6.0100
 2.0000	 6.0540
 2.0010	 6.1000
 2.0020	 6.1430
 2.0030	 6.1860
 2.0040	 6.2300
 2.0050	 6.2740
 2.0060	 6.3180
 2.0070	 6.3610
 2.0080	 6.4030
 2.0090	 6.4450
 2.0100	 6.4850
 2.0110	 6.5260
 2.0120	 6.5670
 2.0130	 6.6070
 2.0140	 6.6490
 2.0150	 6.6890
 2.0160	 6.7280
 2.0170	 6.7670
 2.0180	 6.8050
 2.0190	 6.8430
 2.0200	 6.8810
 2.0210	 6.9200
 2.0220	 6.9580
 2.0230	 6.9960
 2.0240	 7.0310
 2.0250	 7.0640
 2.0260	 7.0970
 2.0270	 7.1280
 2.0280	 7.1600
 2.0290	 7.1930
 2.0300	 7.2260
 2.0310	 7.2580
 2.0320	 7.2910
 2.0330	 7.3210
 2.0340	 7.3500
 2.0350	 7.3770
 2.0360	 7.4020
 2.0370	 7.4280
 2.0380	 7.4550
 2.0390	 7.4810
 2.0400	 7.5090
 2.0410	 7.5330
 2.0420	 7.5560
 2.0430	 7.5790
 2.0440	 7.5990
 2.0450	 7.6170
 2.0460	 7.6370
 2.0470	 7.6570
 2.0480	 7.6770
 2.0490	 7.6990
 2.0500	 7.7210
 2.0510	 7.7430
 2.0520	 7.7630
 2.0530	 7.7850
 2.0540	 7.8050
 2.0550	 7.8230
 2.0560	 7.8390
 2.0570	 7.8530
 2.0580	 7.8670
 2.0590	 7.8840
 2.0600	 7.9020
 2.0610	 7.9210
 2.0620	 7.9450
 2.0630	 7.9640
 2.0640	 7.9830
 2.0650	 8.0010
 2.0660	 8.0190
 2.0670	 8.0370
 2.0680	 8.0540
 2.0690	 8.0720
 2.0700	 8.0910
 2.0710	 8.1090
 2.0720	 8.1270
 2.0730	 8.1470
 2.0740	 8.1650
 2.0750	 8.1810
 2.0760	 8.1970
 2.0770	 8.2110
 2.0780	 8.2290
 2.0790	 8.2470
 2.0800	 8.2670
 2.0810	 8.2900
 2.0820	 8.3110
 2.0830	 8.3300
 2.0840	 8.3490
 2.0850	 8.3660
 2.0860	 8.3840
 2.0870	 8.4040
 2.0880	 8.4240
 2.0890	 8.4430
 2.0900	 8.4630
 2.0910	 8.4810
 2.0920	 8.4970
 2.0930	 8.5170
 2.0940	 8.5380
 2.0950	 8.5580
 2.0960	 8.5790
 2.0970	 8.5990
 2.0980	 8.6170
 2.0990	 8.6370
 2.1000	 8.6580
 2.1010	 8.6780
 2.1020	 8.6990
 2.1030	 8.7180
 2.1040	 8.7340
 2.1050	 8.7510
 2.1060	 8.7700
 2.1070	 8.7880
 2.1080	 8.8070
 2.1090	 8.8280
 2.1100	 8.8500
 2.1110	 8.8720
 2.1120	 8.8940
 2.1130	 8.9170
 2.1140	 8.9400
 2.1150	 8.9630
 2.1160	 8.9880
 2.1170	 9.0160
 2.1180	 9.0410
 2.1190	 9.0640
 2.1200	 9.0880
 2.1210	 9.1110
 2.1220	 9.1330
 2.1230	 9.1550
 2.1240	 9.1770
 2.1250	 9.1990
 2.1260	 9.2200
 2.1270	 9.2390
 2.1280	 9.2570
 2.1290	 9.2770
 2.1300	 9.2960
 2.1310	 9.3170
 2.1320	 9.3440
 2.1330	 9.3670
 2.1340	 9.3900
 2.1350	 9.4120
 2.1360	 9.4320
 2.1370	 9.4540
 2.1380	 9.4750
 2.1390	 9.4970
 2.1400	 9.5230
 2.1410	 9.5450
 2.1420	 9.5700
 2.1430	 9.5980
 2.1440	 9.6220
 2.1450	 9.6450
 2.1460	 9.6690
 2.1470	 9.6900
 2.1480	 9.7140
 2.1490	 9.7390
 2.1500	 9.7640
 2.1510	 9.7910
 2.1520	 9.8190
 2.1530	 9.8490
 2.1540	 9.8770
 2.1550	 9.9050
 2.1560	 9.9320
 2.1570	 9.9590
 2.1580	 9.9840
 2.1590	10.0090
 2.1600	10.0340
 2.1610	10.0600
 2.1620	10.0840
 2.1630	10.1090
 2.1640	10.1370
 2.1650	10.1610
 2.1660	10.1860
 2.1670	10.2090
 2.1680	10.2280
 2.1690	10.2520
 2.1700	10.2760
 2.1710	10.3000
 2.1720	10.3290
 2.1730	10.3540
 2.1740	10.3790
 2.1750	10.4040
 2.1760	10.4310
 2.1770	10.4550
 2.1780	10.4740
 2.1790	10.4970
 2.1800	10.5200
 2.1810	10.5430
 2.1820	10.5650
 2.1830	10.5900
 2.1840	10.6160
 2.1850	10.6400
 2.1860	10.6650
 2.1870	10.6950
 2.1880	10.7190
 2.1890	10.7390
 2.1900	10.7600
 2.1910	10.7790
 2.1920	10.8000
 2.1930	10.8220
 2.1940	10.8440
 2.1950	10.8660
 2.1960	10.8870
 2.1970	10.9060
 2.1980	10.9260
 2.1990	10.9500
 2.2000	10.9700
 2.2010	10.9900
 2.2020	11.0110
 2.2030	11.0320
 2.2040	11.0510
 2.2050	11.0680
 2.2060	11.0870
 2.2070	11.1030
 2.2080	11.1140
 2.2090	11.1320
 2.2100	11.1540
 2.2110	11.1700
 2.2120	11.1860
 2.2130	11.1950
 2.2140	11.1970
 2.2150	11.2020
 2.2160	11.2040
 2.2170	11.2080
 2.2180	11.2170
 2.2190	11.2220
 2.2200	11.2280
 2.2210	11.2300
 2.2220	11.2280
 2.2230	11.2250
 2.2240	11.2210
 2.2250	11.2130
 2.2260	11.2000
 2.2270	11.1880
 2.2280	11.1720
 2.2290	11.1560
 2.2300	11.1430
 2.2310	11.1230
 2.2320	11.1000
 2.2330	11.0750
 2.2340	11.0490
 2.2350	11.0220
 2.2360	10.9890
 2.2370	10.9540
 2.2380	10.9150
 2.2390	10.8680
 2.2400	10.8270
 2.2410	10.7860
 2.2420	10.7430
 2.2430	10.7010
 2.2440	10.6560
 2.2450	10.6090
 2.2460	10.5600
 2.2470	10.5100
 2.2480	10.4600
 2.2490	10.4090
 2.2500	10.3540
 2.2510	10.2980
 2.2520	10.2390
 2.2530	10.1740
 2.2540	10.1130
 2.2550	10.0540
 2.2560	 9.9930
 2.2570	 9.9300
 2.2580	 9.8680
 2.2590	 9.8020
 2.2600	 9.7400
 2.2610	 9.6770
 2.2620	 9.6200
 2.2630	 9.5620
 2.2640	 9.5060
 2.2650	 9.4520
 2.2660	 9.3980
 2.2670	 9.3460
 2.2680	 9.2960
 2.2690	 9.2470
 2.2700	 9.1990
 2.2710	 9.1550
 2.2720	 9.1130
 2.2730	 9.0750
 2.2740	 9.0440
 2.2750	 9.0100
 2.2760	 8.9770
 2.2770	 8.9450
 2.2780	 8.9110
 2.2790	 8.8830
 2.2800	 8.8590
 2.2810	 8.8350
 2.2820	 8.8160
 2.2830	 8.7920
 2.2840	 8.7670
 2.2850	 8.7440
 2.2860	 8.7210
 2.2870	 8.6990
 2.2880	 8.6780
 2.2890	 8.6570
 2.2900	 8.6390
 2.2910	 8.6180
 2.2920	 8.6020
 2.2930	 8.5770
 2.2940	 8.5430
 2.2950	 8.5130
 2.2960	 8.4780
 2.2970	 8.4440
 2.2980	 8.4140
 2.2990	 8.3820
 2.3000	 8.3450
 2.3010	 8.3140
 2.3020	 8.2820
 2.3030	 8.2430
 2.3040	 8.2080
 2.3050	 8.1690
 2.3060	 8.1330
 2.3070	 8.1030
 2.3080	 8.0730
 2.3090	 8.0500
 2.3100	 8.0230
 2.3110	 8.0010
 2.3120	 7.9820
 2.3130	 7.9650
 2.3140	 7.9510
 2.3150	 7.9480
 2.3160	 7.9340
 2.3170	 7.9190
 2.3180	 7.9040
 2.3190	 7.8820
 2.3200	 7.8700
 2.3210	 7.8660
 2.3220	 7.8540
 2.3230	 7.8400
 2.3240	 7.8290
 2.3250	 7.8140
 2.3260	 7.7950
 2.3270	 7.7780
 2.3280	 7.7570
 2.3290	 7.7240
 2.3300	 7.7020
 2.3310	 7.6830
 2.3320	 7.6670
 2.3330	 7.6620
 2.3340	 7.6460
 2.3350	 7.6310
 2.3360	 7.6080
 2.3370	 7.5680
 2.3380	 7.5410
 2.3390	 7.5150
 2.3400	 7.4890
 2.3410	 7.4700
 2.3420	 7.4460
 2.3430	 7.4180
 2.3440	 7.3940
 2.3450	 7.3750
 2.3460	 7.3520
 2.3470	 7.3280
 2.3480	 7.3060
 2.3490	 7.2840
 2.3500	 7.2640
 2.3510	 7.2470
 2.3520	 7.2310
 2.3530	 7.2170
 2.3540	 7.2020
 2.3550	 7.1850
 2.3560	 7.1740
 2.3570	 7.1560
 2.3580	 7.1360
 2.3590	 7.1250
 2.3600	 7.1070
 2.3610	 7.0870
 2.3620	 7.0760
 2.3630	 7.0560
 2.3640	 7.0350
 2.3650	 7.0150
 2.3660	 6.9900
 2.3670	 6.9680
 2.3680	 6.9480
 2.3690	 6.9290
 2.3700	 6.9130
 2.3710	 6.8910
 2.3720	 6.8660
 2.3730	 6.8340
 2.3740	 6.8000
 2.3750	 6.7820
 2.3760	 6.7620
 2.3770	 6.7420
 2.3780	 6.7320
 2.3790	 6.7020
 2.3800	 6.6740
 2.3810	 6.6540
 2.3820	 6.6270
 2.3830	 6.5980
 2.3840	 6.5750
 2.3850	 6.5550
 2.3860	 6.5290
 2.3870	 6.5130
 2.3880	 6.4920
 2.3890	 6.4620
 2.3900	 6.4410
 2.3910	 6.4200
 2.3920	 6.4040
 2.3930	 6.3910
 2.3940	 6.3760
 2.3950	 6.3500
 2.3960	 6.3230
 2.3970	 6.3010
 2.3980	 6.2550
 2.3990	 6.2180
 2.4000	 6.2000
 2.4010	 6.1850
 2.4020	 6.1830
 2.4030	 6.1820
 2.4040	 6.1680
 2.4050	 6.1340
 2.4060	 6.0900
 2.4070	 6.0490
 2.4080	 6.0080
 2.4090	 5.9680
 2.4100	 5.9380
 2.4110	 5.9130
 2.4120	 5.8860
 2.4130	 5.8690
 2.4140	 5.8540
 2.4150	 5.8340
 2.4160	 5.8010
 2.4170	 5.7650
 2.4180	 5.7360
 2.4190	 5.7050
 2.4200	 5.6780
 2.4210	 5.6530
 2.4220	 5.6200
 2.4230	 5.5830
 2.4240	 5.5570
 2.4250	 5.5410
 2.4260	 5.5290
 2.4270	 5.5100
 2.4280	 5.4810
 2.4290	 5.4520
 2.4300	 5.4040
 2.4310	 5.3540
 2.4320	 5.3210
 2.4330	 5.2780
 2.4340	 5.2350
 2.4350	 5.2220
 2.4360	 5.2080
 2.4370	 5.1700
 2.4380	 5.1470
 2.4390	 5.1160
 2.4400	 5.0600
 2.4410	 5.0300
 2.4420	 5.0000
 2.4430	 4.9680
 2.4440	 4.9570
 2.4450	 4.9230
 2.4460	 4.8810
 2.4470	 4.8460
 2.4480	 4.8170
 2.4490	 4.8220
 2.4500	 4.8320
 2.4510	 4.8140
 2.4520	 4.7780
 2.4530	 4.7370
 2.4540	 4.7070
 2.4550	 4.6980
 2.4560	 4.6960
 2.4570	 4.6780
 2.4580	 4.6470
 2.4590	 4.6010
 2.4600	 4.5590
 2.4610	 4.5310
 2.4620	 4.5090
 2.4630	 4.4930
 2.4640	 4.4850
 2.4650	 4.4770
 2.4660	 4.4660
 2.4670	 4.4400
 2.4680	 4.4030
 2.4690	 4.3830
 2.4700	 4.3500
 2.4710	 4.3270
 2.4720	 4.3130
 2.4730	 4.2830
 2.4740	 4.2730
 2.4750	 4.2960
 2.4760	 4.2950
 2.4770	 4.2850
 2.4780	 4.2570
 2.4790	 4.2200
 2.4800	 4.1800
 2.4810	 4.1060
 2.4820	 4.0880
 2.4830	 4.0500
 2.4840	 4.0400
 2.4850	 4.0740
 2.4860	 4.0580
 2.4870	 4.0740
 2.4880	 4.0910
 2.4890	 4.0700
 2.4900	 4.0910
 2.4910	 4.0890
 2.4920	 4.0570
 2.4930	 4.0360
 2.4940	 4.0110
 2.4950	 3.9710
 2.4960	 3.9940
 2.4970	 4.0600
 2.4980	 4.0800
 2.4990	 4.0840
 2.5000	 4.0720
