Name: Baccharis pilularis 3
Type: vegetation
Class: Shrub
Genus: Baccharis
Species: pilularis
Sample No.: VH234
Owner: UCSB
Wavelength Range: VSWIR
Origin: 34.5088; -119.7683; WGS84
Collection Date: 10/13/2013
Description: Samples were collected as part of the HyspIRI Airborne Campaign. 48 individual plants were sampled in three times in 2013 - spring  summer  and fall. The name of the sample includes a 1  2  or 3 which references a different individual of the species. Samples were taken to JPL and processed within 48 hours of collection. The same leaves were processed in the Nicolet and then measured using the ASD.
Measurement: Bidirectional reflectance
First Column: X
Second Column: Y
X Units: Wavelength (micrometers)
Y Units: Reflectance (percentage)
First X Value: 0.35
Last X Value: 2.5
Number of X Values: 2151
Additional Information: vegetation.shrub.baccharis.pilularis.vswir.vh234.ucsb.asd.ancillary.txt

 0.3500	 5.1690
 0.3510	 5.0880
 0.3520	 4.7660
 0.3530	 4.6410
 0.3540	 4.8870
 0.3550	 4.5860
 0.3560	 4.7090
 0.3570	 5.0460
 0.3580	 4.8810
 0.3590	 4.8710
 0.3600	 4.9010
 0.3610	 4.8780
 0.3620	 4.8360
 0.3630	 4.7740
 0.3640	 4.7130
 0.3650	 4.6810
 0.3660	 4.7340
 0.3670	 4.7300
 0.3680	 4.6360
 0.3690	 4.5230
 0.3700	 4.6420
 0.3710	 4.8000
 0.3720	 4.8320
 0.3730	 4.7190
 0.3740	 4.7390
 0.3750	 4.7800
 0.3760	 4.6840
 0.3770	 4.7410
 0.3780	 4.8270
 0.3790	 4.8190
 0.3800	 4.6410
 0.3810	 4.6210
 0.3820	 4.6570
 0.3830	 4.6460
 0.3840	 4.6470
 0.3850	 4.6410
 0.3860	 4.6690
 0.3870	 4.7530
 0.3880	 4.6780
 0.3890	 4.6550
 0.3900	 4.7160
 0.3910	 4.6950
 0.3920	 4.7080
 0.3930	 4.7100
 0.3940	 4.6650
 0.3950	 4.6090
 0.3960	 4.6210
 0.3970	 4.6660
 0.3980	 4.6590
 0.3990	 4.6380
 0.4000	 4.6370
 0.4010	 4.6630
 0.4020	 4.6920
 0.4030	 4.7190
 0.4040	 4.7230
 0.4050	 4.6890
 0.4060	 4.6400
 0.4070	 4.6120
 0.4080	 4.6150
 0.4090	 4.6420
 0.4100	 4.6560
 0.4110	 4.6630
 0.4120	 4.6630
 0.4130	 4.6320
 0.4140	 4.6600
 0.4150	 4.6970
 0.4160	 4.6710
 0.4170	 4.6430
 0.4180	 4.6760
 0.4190	 4.7320
 0.4200	 4.6970
 0.4210	 4.6930
 0.4220	 4.6820
 0.4230	 4.6440
 0.4240	 4.6880
 0.4250	 4.7230
 0.4260	 4.7350
 0.4270	 4.7410
 0.4280	 4.7310
 0.4290	 4.7280
 0.4300	 4.7510
 0.4310	 4.8240
 0.4320	 4.8140
 0.4330	 4.7830
 0.4340	 4.8120
 0.4350	 4.8440
 0.4360	 4.8580
 0.4370	 4.8450
 0.4380	 4.8120
 0.4390	 4.8280
 0.4400	 4.8570
 0.4410	 4.8680
 0.4420	 4.8880
 0.4430	 4.8910
 0.4440	 4.8900
 0.4450	 4.9070
 0.4460	 4.9220
 0.4470	 4.9280
 0.4480	 4.9280
 0.4490	 4.9430
 0.4500	 4.9440
 0.4510	 4.9510
 0.4520	 4.9770
 0.4530	 4.9830
 0.4540	 4.9960
 0.4550	 5.0160
 0.4560	 5.0300
 0.4570	 5.0400
 0.4580	 5.0460
 0.4590	 5.0490
 0.4600	 5.0510
 0.4610	 5.0760
 0.4620	 5.1020
 0.4630	 5.1040
 0.4640	 5.1040
 0.4650	 5.1100
 0.4660	 5.1210
 0.4670	 5.1230
 0.4680	 5.1220
 0.4690	 5.1320
 0.4700	 5.1570
 0.4710	 5.1740
 0.4720	 5.1650
 0.4730	 5.1540
 0.4740	 5.1760
 0.4750	 5.1700
 0.4760	 5.1700
 0.4770	 5.1890
 0.4780	 5.1970
 0.4790	 5.1980
 0.4800	 5.1940
 0.4810	 5.1930
 0.4820	 5.2100
 0.4830	 5.2150
 0.4840	 5.2120
 0.4850	 5.2360
 0.4860	 5.2510
 0.4870	 5.2590
 0.4880	 5.2660
 0.4890	 5.2830
 0.4900	 5.2900
 0.4910	 5.2940
 0.4920	 5.3150
 0.4930	 5.3410
 0.4940	 5.3640
 0.4950	 5.3820
 0.4960	 5.4060
 0.4970	 5.4330
 0.4980	 5.4590
 0.4990	 5.4890
 0.5000	 5.5410
 0.5010	 5.5890
 0.5020	 5.6280
 0.5030	 5.6720
 0.5040	 5.7320
 0.5050	 5.7990
 0.5060	 5.8700
 0.5070	 5.9510
 0.5080	 6.0350
 0.5090	 6.1310
 0.5100	 6.2510
 0.5110	 6.3730
 0.5120	 6.4940
 0.5130	 6.6230
 0.5140	 6.7750
 0.5150	 6.9440
 0.5160	 7.1210
 0.5170	 7.3000
 0.5180	 7.5040
 0.5190	 7.7100
 0.5200	 7.9190
 0.5210	 8.1460
 0.5220	 8.3770
 0.5230	 8.6030
 0.5240	 8.8240
 0.5250	 9.0520
 0.5260	 9.2800
 0.5270	 9.4990
 0.5280	 9.7030
 0.5290	 9.9060
 0.5300	10.1050
 0.5310	10.2960
 0.5320	10.4680
 0.5330	10.6370
 0.5340	10.7990
 0.5350	10.9480
 0.5360	11.0880
 0.5370	11.2250
 0.5380	11.3580
 0.5390	11.4760
 0.5400	11.5860
 0.5410	11.6980
 0.5420	11.8110
 0.5430	11.9090
 0.5440	12.0170
 0.5450	12.1260
 0.5460	12.2190
 0.5470	12.3100
 0.5480	12.3890
 0.5490	12.4560
 0.5500	12.5240
 0.5510	12.5830
 0.5520	12.6290
 0.5530	12.6630
 0.5540	12.6870
 0.5550	12.6890
 0.5560	12.6690
 0.5570	12.6400
 0.5580	12.5940
 0.5590	12.5340
 0.5600	12.4660
 0.5610	12.3870
 0.5620	12.2890
 0.5630	12.1780
 0.5640	12.0640
 0.5650	11.9450
 0.5660	11.8280
 0.5670	11.7090
 0.5680	11.5780
 0.5690	11.4500
 0.5700	11.3180
 0.5710	11.1760
 0.5720	11.0320
 0.5730	10.8970
 0.5740	10.7700
 0.5750	10.6420
 0.5760	10.5200
 0.5770	10.4020
 0.5780	10.2870
 0.5790	10.1800
 0.5800	10.0800
 0.5810	 9.9860
 0.5820	 9.8960
 0.5830	 9.8190
 0.5840	 9.7510
 0.5850	 9.6890
 0.5860	 9.6360
 0.5870	 9.5890
 0.5880	 9.5460
 0.5890	 9.5040
 0.5900	 9.4530
 0.5910	 9.4050
 0.5920	 9.3670
 0.5930	 9.3380
 0.5940	 9.3110
 0.5950	 9.2870
 0.5960	 9.2640
 0.5970	 9.2440
 0.5980	 9.2140
 0.5990	 9.1810
 0.6000	 9.1510
 0.6010	 9.1110
 0.6020	 9.0580
 0.6030	 8.9940
 0.6040	 8.9300
 0.6050	 8.8600
 0.6060	 8.7840
 0.6070	 8.7040
 0.6080	 8.6190
 0.6090	 8.5330
 0.6100	 8.4480
 0.6110	 8.3610
 0.6120	 8.2710
 0.6130	 8.1840
 0.6140	 8.1050
 0.6150	 8.0290
 0.6160	 7.9610
 0.6170	 7.8950
 0.6180	 7.8270
 0.6190	 7.7720
 0.6200	 7.7240
 0.6210	 7.6820
 0.6220	 7.6470
 0.6230	 7.6150
 0.6240	 7.5930
 0.6250	 7.5800
 0.6260	 7.5590
 0.6270	 7.5480
 0.6280	 7.5450
 0.6290	 7.5420
 0.6300	 7.5390
 0.6310	 7.5350
 0.6320	 7.5310
 0.6330	 7.5300
 0.6340	 7.5160
 0.6350	 7.4930
 0.6360	 7.4660
 0.6370	 7.4350
 0.6380	 7.3860
 0.6390	 7.3230
 0.6400	 7.2550
 0.6410	 7.1800
 0.6420	 7.0980
 0.6430	 7.0120
 0.6440	 6.9280
 0.6450	 6.8370
 0.6460	 6.7430
 0.6470	 6.6550
 0.6480	 6.5760
 0.6490	 6.5030
 0.6500	 6.4370
 0.6510	 6.3770
 0.6520	 6.3170
 0.6530	 6.2590
 0.6540	 6.2080
 0.6550	 6.1580
 0.6560	 6.1050
 0.6570	 6.0470
 0.6580	 5.9810
 0.6590	 5.9180
 0.6600	 5.8600
 0.6610	 5.8070
 0.6620	 5.7520
 0.6630	 5.7090
 0.6640	 5.6710
 0.6650	 5.6320
 0.6660	 5.6020
 0.6670	 5.5790
 0.6680	 5.5640
 0.6690	 5.5530
 0.6700	 5.5480
 0.6710	 5.5470
 0.6720	 5.5490
 0.6730	 5.5600
 0.6740	 5.5700
 0.6750	 5.5830
 0.6760	 5.6020
 0.6770	 5.6230
 0.6780	 5.6490
 0.6790	 5.6800
 0.6800	 5.7180
 0.6810	 5.7590
 0.6820	 5.8090
 0.6830	 5.8750
 0.6840	 5.9520
 0.6850	 6.0460
 0.6860	 6.1660
 0.6870	 6.3170
 0.6880	 6.5000
 0.6890	 6.7320
 0.6900	 7.0280
 0.6910	 7.3980
 0.6920	 7.8410
 0.6930	 8.3740
 0.6940	 9.0070
 0.6950	 9.7300
 0.6960	10.5570
 0.6970	11.4850
 0.6980	12.5080
 0.6990	13.6130
 0.7000	14.7930
 0.7010	16.0370
 0.7020	17.3320
 0.7030	18.6680
 0.7040	20.0310
 0.7050	21.4030
 0.7060	22.7720
 0.7070	24.1430
 0.7080	25.5040
 0.7090	26.8420
 0.7100	28.1580
 0.7110	29.4520
 0.7120	30.7210
 0.7130	31.9540
 0.7140	33.1650
 0.7150	34.3390
 0.7160	35.4670
 0.7170	36.5710
 0.7180	37.6380
 0.7190	38.6650
 0.7200	39.6500
 0.7210	40.5900
 0.7220	41.4930
 0.7230	42.3610
 0.7240	43.1970
 0.7250	43.9840
 0.7260	44.7210
 0.7270	45.4120
 0.7280	46.0880
 0.7290	46.7340
 0.7300	47.3390
 0.7310	47.8920
 0.7320	48.4080
 0.7330	48.9010
 0.7340	49.3700
 0.7350	49.8020
 0.7360	50.2140
 0.7370	50.6040
 0.7380	50.9700
 0.7390	51.3170
 0.7400	51.6240
 0.7410	51.9110
 0.7420	52.2020
 0.7430	52.4520
 0.7440	52.6860
 0.7450	52.9090
 0.7460	53.1090
 0.7470	53.2990
 0.7480	53.4840
 0.7490	53.6590
 0.7500	53.8010
 0.7510	53.9390
 0.7520	54.0740
 0.7530	54.1940
 0.7540	54.2800
 0.7550	54.3830
 0.7560	54.4960
 0.7570	54.5690
 0.7580	54.6380
 0.7590	54.7130
 0.7600	54.7900
 0.7610	54.8430
 0.7620	54.8850
 0.7630	54.9300
 0.7640	54.9830
 0.7650	55.0290
 0.7660	55.0650
 0.7670	55.1020
 0.7680	55.1540
 0.7690	55.1820
 0.7700	55.2040
 0.7710	55.2310
 0.7720	55.2540
 0.7730	55.2860
 0.7740	55.3110
 0.7750	55.3170
 0.7760	55.3420
 0.7770	55.3620
 0.7780	55.3790
 0.7790	55.4060
 0.7800	55.4310
 0.7810	55.4510
 0.7820	55.4630
 0.7830	55.4690
 0.7840	55.4900
 0.7850	55.5210
 0.7860	55.5500
 0.7870	55.5540
 0.7880	55.5720
 0.7890	55.5950
 0.7900	55.6060
 0.7910	55.6250
 0.7920	55.6420
 0.7930	55.6580
 0.7940	55.6760
 0.7950	55.6910
 0.7960	55.7000
 0.7970	55.7070
 0.7980	55.7310
 0.7990	55.7510
 0.8000	55.7790
 0.8010	55.8170
 0.8020	55.8170
 0.8030	55.8240
 0.8040	55.8480
 0.8050	55.8780
 0.8060	55.9010
 0.8070	55.9240
 0.8080	55.9440
 0.8090	55.9530
 0.8100	55.9880
 0.8110	56.0150
 0.8120	56.0210
 0.8130	56.0400
 0.8140	56.0650
 0.8150	56.0900
 0.8160	56.1080
 0.8170	56.1180
 0.8180	56.1460
 0.8190	56.1850
 0.8200	56.2110
 0.8210	56.2150
 0.8220	56.2310
 0.8230	56.2650
 0.8240	56.2990
 0.8250	56.3130
 0.8260	56.3240
 0.8270	56.3450
 0.8280	56.3700
 0.8290	56.4020
 0.8300	56.4230
 0.8310	56.4230
 0.8320	56.4340
 0.8330	56.4570
 0.8340	56.4810
 0.8350	56.4950
 0.8360	56.5190
 0.8370	56.5420
 0.8380	56.5570
 0.8390	56.5650
 0.8400	56.6160
 0.8410	56.6360
 0.8420	56.6170
 0.8430	56.6570
 0.8440	56.7010
 0.8450	56.7120
 0.8460	56.6930
 0.8470	56.7420
 0.8480	56.7690
 0.8490	56.7740
 0.8500	56.7850
 0.8510	56.8180
 0.8520	56.8500
 0.8530	56.8690
 0.8540	56.8720
 0.8550	56.8840
 0.8560	56.8950
 0.8570	56.9030
 0.8580	56.9140
 0.8590	56.9280
 0.8600	56.9390
 0.8610	56.9530
 0.8620	56.9860
 0.8630	56.9740
 0.8640	56.9670
 0.8650	57.0010
 0.8660	57.0050
 0.8670	57.0140
 0.8680	57.0280
 0.8690	57.0340
 0.8700	57.0310
 0.8710	57.0270
 0.8720	57.0220
 0.8730	57.0140
 0.8740	57.0510
 0.8750	57.0670
 0.8760	57.0510
 0.8770	57.0550
 0.8780	57.0720
 0.8790	57.0780
 0.8800	57.0730
 0.8810	57.0880
 0.8820	57.0890
 0.8830	57.0870
 0.8840	57.0890
 0.8850	57.0570
 0.8860	57.0480
 0.8870	57.0530
 0.8880	57.0510
 0.8890	57.0540
 0.8900	57.0680
 0.8910	57.0680
 0.8920	57.0350
 0.8930	57.0460
 0.8940	57.0380
 0.8950	57.0140
 0.8960	57.0100
 0.8970	57.0050
 0.8980	56.9910
 0.8990	56.9820
 0.9000	57.0020
 0.9010	56.9850
 0.9020	56.9570
 0.9030	56.9430
 0.9040	56.9420
 0.9050	56.9250
 0.9060	56.9040
 0.9070	56.8930
 0.9080	56.8850
 0.9090	56.8700
 0.9100	56.8580
 0.9110	56.8530
 0.9120	56.8440
 0.9130	56.8190
 0.9140	56.8050
 0.9150	56.8190
 0.9160	56.8090
 0.9170	56.8170
 0.9180	56.8180
 0.9190	56.7790
 0.9200	56.7660
 0.9210	56.7560
 0.9220	56.7330
 0.9230	56.6940
 0.9240	56.6820
 0.9250	56.6730
 0.9260	56.6550
 0.9270	56.6330
 0.9280	56.5970
 0.9290	56.5670
 0.9300	56.5520
 0.9310	56.5530
 0.9320	56.5390
 0.9330	56.4990
 0.9340	56.4520
 0.9350	56.4460
 0.9360	56.4000
 0.9370	56.3610
 0.9380	56.3500
 0.9390	56.3260
 0.9400	56.2810
 0.9410	56.2370
 0.9420	56.2010
 0.9430	56.1420
 0.9440	56.0990
 0.9450	56.0600
 0.9460	56.0140
 0.9470	55.9840
 0.9480	55.9120
 0.9490	55.8290
 0.9500	55.7670
 0.9510	55.6950
 0.9520	55.5850
 0.9530	55.4810
 0.9540	55.4150
 0.9550	55.3180
 0.9560	55.2320
 0.9570	55.1390
 0.9580	55.0300
 0.9590	54.9870
 0.9600	54.9450
 0.9610	54.8660
 0.9620	54.7500
 0.9630	54.6970
 0.9640	54.6690
 0.9650	54.6370
 0.9660	54.5890
 0.9670	54.5580
 0.9680	54.5080
 0.9690	54.4630
 0.9700	54.4570
 0.9710	54.4400
 0.9720	54.4030
 0.9730	54.3800
 0.9740	54.3990
 0.9750	54.3740
 0.9760	54.3600
 0.9770	54.3610
 0.9780	54.3570
 0.9790	54.3320
 0.9800	54.3490
 0.9810	54.4020
 0.9820	54.4440
 0.9830	54.4380
 0.9840	54.4320
 0.9850	54.4370
 0.9860	54.4460
 0.9870	54.4930
 0.9880	54.5440
 0.9890	54.5720
 0.9900	54.5740
 0.9910	54.6110
 0.9920	54.6520
 0.9930	54.6940
 0.9940	54.7350
 0.9950	54.7760
 0.9960	54.8170
 0.9970	54.8580
 0.9980	54.8990
 0.9990	54.9400
 1.0000	54.9810
 1.0010	55.0230
 1.0020	55.0640
 1.0030	55.1050
 1.0040	55.1460
 1.0050	55.1870
 1.0060	55.2280
 1.0070	55.2690
 1.0080	55.3100
 1.0090	55.3520
 1.0100	55.3520
 1.0110	55.4130
 1.0120	55.4590
 1.0130	55.4960
 1.0140	55.5370
 1.0150	55.5720
 1.0160	55.6130
 1.0170	55.6570
 1.0180	55.6970
 1.0190	55.7260
 1.0200	55.7570
 1.0210	55.7920
 1.0220	55.8300
 1.0230	55.8680
 1.0240	55.9080
 1.0250	55.9450
 1.0260	55.9840
 1.0270	56.0190
 1.0280	56.0510
 1.0290	56.0850
 1.0300	56.1110
 1.0310	56.1460
 1.0320	56.1920
 1.0330	56.2290
 1.0340	56.2640
 1.0350	56.3020
 1.0360	56.3340
 1.0370	56.3600
 1.0380	56.3840
 1.0390	56.4060
 1.0400	56.4290
 1.0410	56.4460
 1.0420	56.4660
 1.0430	56.4910
 1.0440	56.5100
 1.0450	56.5230
 1.0460	56.5410
 1.0470	56.5570
 1.0480	56.5780
 1.0490	56.6110
 1.0500	56.6310
 1.0510	56.6470
 1.0520	56.6640
 1.0530	56.6790
 1.0540	56.6820
 1.0550	56.6990
 1.0560	56.7240
 1.0570	56.7430
 1.0580	56.7610
 1.0590	56.7800
 1.0600	56.7980
 1.0610	56.8150
 1.0620	56.8410
 1.0630	56.8520
 1.0640	56.8420
 1.0650	56.8490
 1.0660	56.8550
 1.0670	56.8620
 1.0680	56.8730
 1.0690	56.9030
 1.0700	56.9050
 1.0710	56.8910
 1.0720	56.8910
 1.0730	56.8850
 1.0740	56.8850
 1.0750	56.8930
 1.0760	56.8990
 1.0770	56.9110
 1.0780	56.9120
 1.0790	56.9110
 1.0800	56.9080
 1.0810	56.8920
 1.0820	56.8840
 1.0830	56.8830
 1.0840	56.8800
 1.0850	56.8760
 1.0860	56.8760
 1.0870	56.8660
 1.0880	56.8530
 1.0890	56.8400
 1.0900	56.8190
 1.0910	56.8030
 1.0920	56.7900
 1.0930	56.7740
 1.0940	56.7570
 1.0950	56.7430
 1.0960	56.7340
 1.0970	56.7180
 1.0980	56.6990
 1.0990	56.6830
 1.1000	56.6640
 1.1010	56.6450
 1.1020	56.6290
 1.1030	56.6080
 1.1040	56.5880
 1.1050	56.5660
 1.1060	56.5410
 1.1070	56.5170
 1.1080	56.4910
 1.1090	56.4620
 1.1100	56.4310
 1.1110	56.3980
 1.1120	56.3650
 1.1130	56.3290
 1.1140	56.2920
 1.1150	56.2590
 1.1160	56.2200
 1.1170	56.1830
 1.1180	56.1360
 1.1190	56.0840
 1.1200	56.0250
 1.1210	55.9510
 1.1220	55.8740
 1.1230	55.8000
 1.1240	55.7210
 1.1250	55.6330
 1.1260	55.5440
 1.1270	55.4430
 1.1280	55.3310
 1.1290	55.2120
 1.1300	55.0880
 1.1310	54.9520
 1.1320	54.8040
 1.1330	54.6480
 1.1340	54.4800
 1.1350	54.3100
 1.1360	54.1340
 1.1370	53.9480
 1.1380	53.7560
 1.1390	53.5570
 1.1400	53.3500
 1.1410	53.1380
 1.1420	52.9220
 1.1430	52.7050
 1.1440	52.4910
 1.1450	52.2760
 1.1460	52.0630
 1.1470	51.8500
 1.1480	51.6480
 1.1490	51.4440
 1.1500	51.2540
 1.1510	51.0730
 1.1520	50.9030
 1.1530	50.7390
 1.1540	50.5900
 1.1550	50.4560
 1.1560	50.3290
 1.1570	50.2110
 1.1580	50.1040
 1.1590	50.0010
 1.1600	49.9090
 1.1610	49.8280
 1.1620	49.7560
 1.1630	49.6950
 1.1640	49.6420
 1.1650	49.5980
 1.1660	49.5670
 1.1670	49.5310
 1.1680	49.4990
 1.1690	49.4670
 1.1700	49.4370
 1.1710	49.4040
 1.1720	49.3700
 1.1730	49.3420
 1.1740	49.3150
 1.1750	49.2880
 1.1760	49.2650
 1.1770	49.2340
 1.1780	49.1970
 1.1790	49.1570
 1.1800	49.1170
 1.1810	49.0840
 1.1820	49.0540
 1.1830	49.0200
 1.1840	48.9870
 1.1850	48.9500
 1.1860	48.9100
 1.1870	48.8770
 1.1880	48.8460
 1.1890	48.8200
 1.1900	48.7930
 1.1910	48.7660
 1.1920	48.7430
 1.1930	48.7190
 1.1940	48.7030
 1.1950	48.6930
 1.1960	48.6860
 1.1970	48.6840
 1.1980	48.6830
 1.1990	48.6860
 1.2000	48.6890
 1.2010	48.6910
 1.2020	48.7060
 1.2030	48.7260
 1.2040	48.7460
 1.2050	48.7780
 1.2060	48.8140
 1.2070	48.8490
 1.2080	48.8910
 1.2090	48.9390
 1.2100	48.9860
 1.2110	49.0400
 1.2120	49.1030
 1.2130	49.1650
 1.2140	49.2290
 1.2150	49.2940
 1.2160	49.3590
 1.2170	49.4220
 1.2180	49.4920
 1.2190	49.5680
 1.2200	49.6410
 1.2210	49.7170
 1.2220	49.7870
 1.2230	49.8510
 1.2240	49.9170
 1.2250	49.9860
 1.2260	50.0520
 1.2270	50.1160
 1.2280	50.1810
 1.2290	50.2440
 1.2300	50.3060
 1.2310	50.3690
 1.2320	50.4310
 1.2330	50.4930
 1.2340	50.5510
 1.2350	50.6080
 1.2360	50.6600
 1.2370	50.7090
 1.2380	50.7510
 1.2390	50.7900
 1.2400	50.8330
 1.2410	50.8760
 1.2420	50.9170
 1.2430	50.9620
 1.2440	51.0020
 1.2450	51.0380
 1.2460	51.0710
 1.2470	51.1010
 1.2480	51.1290
 1.2490	51.1560
 1.2500	51.1870
 1.2510	51.2180
 1.2520	51.2450
 1.2530	51.2670
 1.2540	51.2820
 1.2550	51.2980
 1.2560	51.3160
 1.2570	51.3300
 1.2580	51.3460
 1.2590	51.3640
 1.2600	51.3790
 1.2610	51.3940
 1.2620	51.4110
 1.2630	51.4280
 1.2640	51.4380
 1.2650	51.4470
 1.2660	51.4560
 1.2670	51.4540
 1.2680	51.4510
 1.2690	51.4480
 1.2700	51.4460
 1.2710	51.4470
 1.2720	51.4440
 1.2730	51.4390
 1.2740	51.4300
 1.2750	51.4160
 1.2760	51.4090
 1.2770	51.3990
 1.2780	51.3840
 1.2790	51.3710
 1.2800	51.3510
 1.2810	51.3330
 1.2820	51.3180
 1.2830	51.2960
 1.2840	51.2820
 1.2850	51.2660
 1.2860	51.2430
 1.2870	51.2160
 1.2880	51.1870
 1.2890	51.1470
 1.2900	51.1010
 1.2910	51.0570
 1.2920	51.0170
 1.2930	50.9760
 1.2940	50.9380
 1.2950	50.8930
 1.2960	50.8370
 1.2970	50.7830
 1.2980	50.7230
 1.2990	50.6550
 1.3000	50.5880
 1.3010	50.5160
 1.3020	50.4340
 1.3030	50.3520
 1.3040	50.2700
 1.3050	50.1800
 1.3060	50.0860
 1.3070	49.9850
 1.3080	49.8810
 1.3090	49.7710
 1.3100	49.6570
 1.3110	49.5390
 1.3120	49.4130
 1.3130	49.2850
 1.3140	49.1520
 1.3150	49.0150
 1.3160	48.8740
 1.3170	48.7300
 1.3180	48.5760
 1.3190	48.4180
 1.3200	48.2570
 1.3210	48.0900
 1.3220	47.9210
 1.3230	47.7500
 1.3240	47.5740
 1.3250	47.3890
 1.3260	47.1980
 1.3270	47.0030
 1.3280	46.8060
 1.3290	46.6090
 1.3300	46.4070
 1.3310	46.2000
 1.3320	45.9880
 1.3330	45.7710
 1.3340	45.5560
 1.3350	45.3380
 1.3360	45.1180
 1.3370	44.8940
 1.3380	44.6680
 1.3390	44.4420
 1.3400	44.2170
 1.3410	43.9940
 1.3420	43.7730
 1.3430	43.5560
 1.3440	43.3400
 1.3450	43.1250
 1.3460	42.9120
 1.3470	42.7010
 1.3480	42.4890
 1.3490	42.2810
 1.3500	42.0780
 1.3510	41.8730
 1.3520	41.6720
 1.3530	41.4740
 1.3540	41.2780
 1.3550	41.0830
 1.3560	40.8860
 1.3570	40.6850
 1.3580	40.4830
 1.3590	40.2790
 1.3600	40.0720
 1.3610	39.8630
 1.3620	39.6480
 1.3630	39.4260
 1.3640	39.1970
 1.3650	38.9580
 1.3660	38.7110
 1.3670	38.4580
 1.3680	38.1950
 1.3690	37.9190
 1.3700	37.6270
 1.3710	37.3190
 1.3720	36.9940
 1.3730	36.6510
 1.3740	36.2930
 1.3750	35.9180
 1.3760	35.5180
 1.3770	35.0930
 1.3780	34.6420
 1.3790	34.1660
 1.3800	33.6660
 1.3810	33.1400
 1.3820	32.5970
 1.3830	32.0330
 1.3840	31.4510
 1.3850	30.8490
 1.3860	30.2310
 1.3870	29.5860
 1.3880	28.9410
 1.3890	28.2820
 1.3900	27.6180
 1.3910	26.9560
 1.3920	26.2930
 1.3930	25.6270
 1.3940	24.9640
 1.3950	24.3020
 1.3960	23.6520
 1.3970	23.0160
 1.3980	22.3950
 1.3990	21.7970
 1.4000	21.2170
 1.4010	20.6570
 1.4020	20.1200
 1.4030	19.6010
 1.4040	19.1060
 1.4050	18.6330
 1.4060	18.1860
 1.4070	17.7680
 1.4080	17.3770
 1.4090	17.0130
 1.4100	16.6710
 1.4110	16.3520
 1.4120	16.0560
 1.4130	15.7800
 1.4140	15.5270
 1.4150	15.2960
 1.4160	15.0820
 1.4170	14.8880
 1.4180	14.7130
 1.4190	14.5490
 1.4200	14.4000
 1.4210	14.2660
 1.4220	14.1450
 1.4230	14.0390
 1.4240	13.9470
 1.4250	13.8630
 1.4260	13.7920
 1.4270	13.7260
 1.4280	13.6680
 1.4290	13.6160
 1.4300	13.5720
 1.4310	13.5350
 1.4320	13.5080
 1.4330	13.4840
 1.4340	13.4670
 1.4350	13.4540
 1.4360	13.4450
 1.4370	13.4400
 1.4380	13.4400
 1.4390	13.4450
 1.4400	13.4540
 1.4410	13.4650
 1.4420	13.4790
 1.4430	13.4950
 1.4440	13.5130
 1.4450	13.5350
 1.4460	13.5580
 1.4470	13.5810
 1.4480	13.6030
 1.4490	13.6290
 1.4500	13.6550
 1.4510	13.6820
 1.4520	13.7110
 1.4530	13.7380
 1.4540	13.7690
 1.4550	13.8010
 1.4560	13.8330
 1.4570	13.8680
 1.4580	13.9030
 1.4590	13.9380
 1.4600	13.9800
 1.4610	14.0230
 1.4620	14.0680
 1.4630	14.1170
 1.4640	14.1700
 1.4650	14.2290
 1.4660	14.2930
 1.4670	14.3630
 1.4680	14.4370
 1.4690	14.5140
 1.4700	14.5930
 1.4710	14.6750
 1.4720	14.7630
 1.4730	14.8530
 1.4740	14.9490
 1.4750	15.0480
 1.4760	15.1480
 1.4770	15.2500
 1.4780	15.3560
 1.4790	15.4660
 1.4800	15.5760
 1.4810	15.6880
 1.4820	15.8020
 1.4830	15.9130
 1.4840	16.0270
 1.4850	16.1430
 1.4860	16.2590
 1.4870	16.3780
 1.4880	16.4970
 1.4890	16.6180
 1.4900	16.7380
 1.4910	16.8570
 1.4920	16.9770
 1.4930	17.0950
 1.4940	17.2150
 1.4950	17.3360
 1.4960	17.4580
 1.4970	17.5800
 1.4980	17.7040
 1.4990	17.8290
 1.5000	17.9520
 1.5010	18.0760
 1.5020	18.1970
 1.5030	18.3170
 1.5040	18.4370
 1.5050	18.5560
 1.5060	18.6750
 1.5070	18.7940
 1.5080	18.9130
 1.5090	19.0320
 1.5100	19.1480
 1.5110	19.2660
 1.5120	19.3820
 1.5130	19.5000
 1.5140	19.6190
 1.5150	19.7360
 1.5160	19.8530
 1.5170	19.9670
 1.5180	20.0780
 1.5190	20.1900
 1.5200	20.3020
 1.5210	20.4120
 1.5220	20.5230
 1.5230	20.6330
 1.5240	20.7420
 1.5250	20.8520
 1.5260	20.9600
 1.5270	21.0640
 1.5280	21.1660
 1.5290	21.2670
 1.5300	21.3660
 1.5310	21.4650
 1.5320	21.5650
 1.5330	21.6650
 1.5340	21.7610
 1.5350	21.8560
 1.5360	21.9530
 1.5370	22.0470
 1.5380	22.1410
 1.5390	22.2380
 1.5400	22.3320
 1.5410	22.4270
 1.5420	22.5210
 1.5430	22.6110
 1.5440	22.7010
 1.5450	22.7890
 1.5460	22.8780
 1.5470	22.9640
 1.5480	23.0510
 1.5490	23.1370
 1.5500	23.2190
 1.5510	23.3040
 1.5520	23.3900
 1.5530	23.4730
 1.5540	23.5560
 1.5550	23.6350
 1.5560	23.7130
 1.5570	23.7940
 1.5580	23.8760
 1.5590	23.9570
 1.5600	24.0360
 1.5610	24.1120
 1.5620	24.1870
 1.5630	24.2620
 1.5640	24.3340
 1.5650	24.4090
 1.5660	24.4850
 1.5670	24.5580
 1.5680	24.6350
 1.5690	24.7100
 1.5700	24.7780
 1.5710	24.8510
 1.5720	24.9220
 1.5730	24.9910
 1.5740	25.0640
 1.5750	25.1370
 1.5760	25.2070
 1.5770	25.2760
 1.5780	25.3430
 1.5790	25.4100
 1.5800	25.4820
 1.5810	25.5520
 1.5820	25.6210
 1.5830	25.6870
 1.5840	25.7520
 1.5850	25.8180
 1.5860	25.8890
 1.5870	25.9620
 1.5880	26.0360
 1.5890	26.1070
 1.5900	26.1770
 1.5910	26.2440
 1.5920	26.3100
 1.5930	26.3760
 1.5940	26.4430
 1.5950	26.5090
 1.5960	26.5760
 1.5970	26.6480
 1.5980	26.7140
 1.5990	26.7800
 1.6000	26.8520
 1.6010	26.9190
 1.6020	26.9860
 1.6030	27.0520
 1.6040	27.1140
 1.6050	27.1720
 1.6060	27.2320
 1.6070	27.2950
 1.6080	27.3520
 1.6090	27.4070
 1.6100	27.4610
 1.6110	27.5140
 1.6120	27.5700
 1.6130	27.6290
 1.6140	27.6900
 1.6150	27.7500
 1.6160	27.8080
 1.6170	27.8630
 1.6180	27.9130
 1.6190	27.9620
 1.6200	28.0100
 1.6210	28.0560
 1.6220	28.1020
 1.6230	28.1470
 1.6240	28.1910
 1.6250	28.2360
 1.6260	28.2820
 1.6270	28.3240
 1.6280	28.3600
 1.6290	28.3950
 1.6300	28.4230
 1.6310	28.4560
 1.6320	28.4960
 1.6330	28.5290
 1.6340	28.5650
 1.6350	28.5930
 1.6360	28.6120
 1.6370	28.6360
 1.6380	28.6610
 1.6390	28.6840
 1.6400	28.7100
 1.6410	28.7270
 1.6420	28.7390
 1.6430	28.7450
 1.6440	28.7460
 1.6450	28.7420
 1.6460	28.7350
 1.6470	28.7270
 1.6480	28.7130
 1.6490	28.6960
 1.6500	28.6780
 1.6510	28.6500
 1.6520	28.6140
 1.6530	28.5730
 1.6540	28.5260
 1.6550	28.4810
 1.6560	28.4350
 1.6570	28.3860
 1.6580	28.3320
 1.6590	28.2720
 1.6600	28.2130
 1.6610	28.1620
 1.6620	28.1100
 1.6630	28.0600
 1.6640	28.0100
 1.6650	27.9570
 1.6660	27.9130
 1.6670	27.8690
 1.6680	27.8280
 1.6690	27.7930
 1.6700	27.7550
 1.6710	27.7230
 1.6720	27.6930
 1.6730	27.6620
 1.6740	27.6350
 1.6750	27.6040
 1.6760	27.5730
 1.6770	27.5460
 1.6780	27.5150
 1.6790	27.4830
 1.6800	27.4520
 1.6810	27.4180
 1.6820	27.3820
 1.6830	27.3470
 1.6840	27.3100
 1.6850	27.2700
 1.6860	27.2270
 1.6870	27.1820
 1.6880	27.1370
 1.6890	27.0940
 1.6900	27.0470
 1.6910	27.0020
 1.6920	26.9490
 1.6930	26.8890
 1.6940	26.8290
 1.6950	26.7660
 1.6960	26.7020
 1.6970	26.6400
 1.6980	26.5730
 1.6990	26.5040
 1.7000	26.4310
 1.7010	26.3530
 1.7020	26.2800
 1.7030	26.2090
 1.7040	26.1350
 1.7050	26.0630
 1.7060	25.9860
 1.7070	25.8990
 1.7080	25.8190
 1.7090	25.7390
 1.7100	25.6620
 1.7110	25.5860
 1.7120	25.5170
 1.7130	25.4480
 1.7140	25.3790
 1.7150	25.3180
 1.7160	25.2580
 1.7170	25.2010
 1.7180	25.1500
 1.7190	25.0990
 1.7200	25.0390
 1.7210	24.9820
 1.7220	24.9280
 1.7230	24.8780
 1.7240	24.8380
 1.7250	24.8050
 1.7260	24.7780
 1.7270	24.7500
 1.7280	24.7220
 1.7290	24.6970
 1.7300	24.6720
 1.7310	24.6470
 1.7320	24.6290
 1.7330	24.6060
 1.7340	24.5830
 1.7350	24.5580
 1.7360	24.5330
 1.7370	24.5000
 1.7380	24.4620
 1.7390	24.4170
 1.7400	24.3590
 1.7410	24.3100
 1.7420	24.2640
 1.7430	24.2140
 1.7440	24.1690
 1.7450	24.1140
 1.7460	24.0460
 1.7470	23.9880
 1.7480	23.9310
 1.7490	23.8750
 1.7500	23.8240
 1.7510	23.7710
 1.7520	23.7150
 1.7530	23.6640
 1.7540	23.6140
 1.7550	23.5730
 1.7560	23.5320
 1.7570	23.4930
 1.7580	23.4610
 1.7590	23.4240
 1.7600	23.3850
 1.7610	23.3500
 1.7620	23.3190
 1.7630	23.2910
 1.7640	23.2660
 1.7650	23.2450
 1.7660	23.2240
 1.7670	23.2080
 1.7680	23.1880
 1.7690	23.1680
 1.7700	23.1480
 1.7710	23.1250
 1.7720	23.1070
 1.7730	23.0960
 1.7740	23.0800
 1.7750	23.0680
 1.7760	23.0470
 1.7770	23.0140
 1.7780	22.9930
 1.7790	22.9720
 1.7800	22.9530
 1.7810	22.9390
 1.7820	22.9280
 1.7830	22.9160
 1.7840	22.9100
 1.7850	22.9140
 1.7860	22.9080
 1.7870	22.8950
 1.7880	22.8920
 1.7890	22.8890
 1.7900	22.8980
 1.7910	22.9000
 1.7920	22.8950
 1.7930	22.8940
 1.7940	22.8890
 1.7950	22.8910
 1.7960	22.9000
 1.7970	22.9060
 1.7980	22.9160
 1.7990	22.9240
 1.8000	22.9280
 1.8010	22.9350
 1.8020	22.9400
 1.8030	22.9490
 1.8040	22.9580
 1.8050	22.9720
 1.8060	22.9930
 1.8070	23.0050
 1.8080	23.0160
 1.8090	23.0250
 1.8100	23.0250
 1.8110	23.0310
 1.8120	23.0390
 1.8130	23.0490
 1.8140	23.0580
 1.8150	23.0660
 1.8160	23.0710
 1.8170	23.0730
 1.8180	23.0730
 1.8190	23.0710
 1.8200	23.0720
 1.8210	23.0750
 1.8220	23.0790
 1.8230	23.0910
 1.8240	23.0940
 1.8250	23.0890
 1.8260	23.0890
 1.8270	23.0540
 1.8280	23.0190
 1.8290	22.9840
 1.8300	22.9490
 1.8310	22.9140
 1.8320	22.8790
 1.8330	22.8450
 1.8340	22.8100
 1.8350	22.8100
 1.8360	22.7870
 1.8370	22.7640
 1.8380	22.7300
 1.8390	22.6910
 1.8400	22.6440
 1.8410	22.5970
 1.8420	22.5470
 1.8430	22.4940
 1.8440	22.4340
 1.8450	22.3690
 1.8460	22.2850
 1.8470	22.1870
 1.8480	22.0830
 1.8490	21.9670
 1.8500	21.8450
 1.8510	21.7200
 1.8520	21.5810
 1.8530	21.4260
 1.8540	21.2730
 1.8550	21.0930
 1.8560	20.8990
 1.8570	20.7110
 1.8580	20.5010
 1.8590	20.2750
 1.8600	20.0360
 1.8610	19.7910
 1.8620	19.5260
 1.8630	19.2450
 1.8640	18.9600
 1.8650	18.6640
 1.8660	18.3400
 1.8670	17.9940
 1.8680	17.6410
 1.8690	17.2680
 1.8700	16.8820
 1.8710	16.4830
 1.8720	16.0820
 1.8730	15.6650
 1.8740	15.2380
 1.8750	14.8060
 1.8760	14.3690
 1.8770	13.9310
 1.8780	13.4870
 1.8790	13.0440
 1.8800	12.6060
 1.8810	12.1680
 1.8820	11.7370
 1.8830	11.3150
 1.8840	10.9050
 1.8850	10.5020
 1.8860	10.1080
 1.8870	 9.7310
 1.8880	 9.3640
 1.8890	 9.0200
 1.8900	 8.6980
 1.8910	 8.3890
 1.8920	 8.0920
 1.8930	 7.8210
 1.8940	 7.5680
 1.8950	 7.3300
 1.8960	 7.1120
 1.8970	 6.9190
 1.8980	 6.7500
 1.8990	 6.5910
 1.9000	 6.4460
 1.9010	 6.3230
 1.9020	 6.2060
 1.9030	 6.0950
 1.9040	 6.0040
 1.9050	 5.9220
 1.9060	 5.8520
 1.9070	 5.7890
 1.9080	 5.7290
 1.9090	 5.6850
 1.9100	 5.6440
 1.9110	 5.6060
 1.9120	 5.5760
 1.9130	 5.5480
 1.9140	 5.5220
 1.9150	 5.5000
 1.9160	 5.4810
 1.9170	 5.4670
 1.9180	 5.4570
 1.9190	 5.4470
 1.9200	 5.4460
 1.9210	 5.4480
 1.9220	 5.4470
 1.9230	 5.4490
 1.9240	 5.4500
 1.9250	 5.4510
 1.9260	 5.4520
 1.9270	 5.4570
 1.9280	 5.4600
 1.9290	 5.4700
 1.9300	 5.4840
 1.9310	 5.4950
 1.9320	 5.5080
 1.9330	 5.5200
 1.9340	 5.5270
 1.9350	 5.5390
 1.9360	 5.5540
 1.9370	 5.5690
 1.9380	 5.5850
 1.9390	 5.6040
 1.9400	 5.6220
 1.9410	 5.6380
 1.9420	 5.6560
 1.9430	 5.6800
 1.9440	 5.6990
 1.9450	 5.7140
 1.9460	 5.7360
 1.9470	 5.7600
 1.9480	 5.7840
 1.9490	 5.8120
 1.9500	 5.8440
 1.9510	 5.8670
 1.9520	 5.8890
 1.9530	 5.9180
 1.9540	 5.9490
 1.9550	 5.9770
 1.9560	 6.0080
 1.9570	 6.0380
 1.9580	 6.0630
 1.9590	 6.0950
 1.9600	 6.1320
 1.9610	 6.1650
 1.9620	 6.2010
 1.9630	 6.2360
 1.9640	 6.2660
 1.9650	 6.3000
 1.9660	 6.3340
 1.9670	 6.3700
 1.9680	 6.4060
 1.9690	 6.4460
 1.9700	 6.4850
 1.9710	 6.5260
 1.9720	 6.5650
 1.9730	 6.6010
 1.9740	 6.6400
 1.9750	 6.6870
 1.9760	 6.7320
 1.9770	 6.7840
 1.9780	 6.8360
 1.9790	 6.8800
 1.9800	 6.9190
 1.9810	 6.9610
 1.9820	 6.9980
 1.9830	 7.0410
 1.9840	 7.0870
 1.9850	 7.1350
 1.9860	 7.1900
 1.9870	 7.2420
 1.9880	 7.2910
 1.9890	 7.3400
 1.9900	 7.3900
 1.9910	 7.4390
 1.9920	 7.4900
 1.9930	 7.5470
 1.9940	 7.5970
 1.9950	 7.6410
 1.9960	 7.6900
 1.9970	 7.7370
 1.9980	 7.7880
 1.9990	 7.8480
 2.0000	 7.8990
 2.0010	 7.9500
 2.0020	 8.0030
 2.0030	 8.0520
 2.0040	 8.1040
 2.0050	 8.1540
 2.0060	 8.2030
 2.0070	 8.2530
 2.0080	 8.3020
 2.0090	 8.3510
 2.0100	 8.4040
 2.0110	 8.4540
 2.0120	 8.5020
 2.0130	 8.5480
 2.0140	 8.5930
 2.0150	 8.6370
 2.0160	 8.6830
 2.0170	 8.7280
 2.0180	 8.7690
 2.0190	 8.8100
 2.0200	 8.8490
 2.0210	 8.8820
 2.0220	 8.9190
 2.0230	 8.9580
 2.0240	 8.9970
 2.0250	 9.0380
 2.0260	 9.0780
 2.0270	 9.1190
 2.0280	 9.1570
 2.0290	 9.1890
 2.0300	 9.2260
 2.0310	 9.2560
 2.0320	 9.2790
 2.0330	 9.3040
 2.0340	 9.3320
 2.0350	 9.3520
 2.0360	 9.3670
 2.0370	 9.3830
 2.0380	 9.3930
 2.0390	 9.4080
 2.0400	 9.4280
 2.0410	 9.4460
 2.0420	 9.4660
 2.0430	 9.4810
 2.0440	 9.4980
 2.0450	 9.5120
 2.0460	 9.5290
 2.0470	 9.5460
 2.0480	 9.5650
 2.0490	 9.5850
 2.0500	 9.6030
 2.0510	 9.6240
 2.0520	 9.6410
 2.0530	 9.6510
 2.0540	 9.6650
 2.0550	 9.6820
 2.0560	 9.6930
 2.0570	 9.7150
 2.0580	 9.7400
 2.0590	 9.7630
 2.0600	 9.7930
 2.0610	 9.8150
 2.0620	 9.8340
 2.0630	 9.8500
 2.0640	 9.8590
 2.0650	 9.8720
 2.0660	 9.8830
 2.0670	 9.8970
 2.0680	 9.9130
 2.0690	 9.9280
 2.0700	 9.9470
 2.0710	 9.9610
 2.0720	 9.9750
 2.0730	 9.9860
 2.0740	 9.9960
 2.0750	10.0020
 2.0760	10.0130
 2.0770	10.0240
 2.0780	10.0370
 2.0790	10.0540
 2.0800	10.0680
 2.0810	10.0810
 2.0820	10.0960
 2.0830	10.1130
 2.0840	10.1290
 2.0850	10.1480
 2.0860	10.1660
 2.0870	10.1850
 2.0880	10.2010
 2.0890	10.2180
 2.0900	10.2350
 2.0910	10.2510
 2.0920	10.2670
 2.0930	10.2800
 2.0940	10.2900
 2.0950	10.3040
 2.0960	10.3170
 2.0970	10.3310
 2.0980	10.3500
 2.0990	10.3660
 2.1000	10.3790
 2.1010	10.3940
 2.1020	10.4100
 2.1030	10.4240
 2.1040	10.4320
 2.1050	10.4490
 2.1060	10.4650
 2.1070	10.4790
 2.1080	10.5000
 2.1090	10.5290
 2.1100	10.5490
 2.1110	10.5700
 2.1120	10.5850
 2.1130	10.5950
 2.1140	10.6050
 2.1150	10.6120
 2.1160	10.6190
 2.1170	10.6240
 2.1180	10.6310
 2.1190	10.6370
 2.1200	10.6490
 2.1210	10.6730
 2.1220	10.6870
 2.1230	10.7020
 2.1240	10.7210
 2.1250	10.7300
 2.1260	10.7290
 2.1270	10.7360
 2.1280	10.7380
 2.1290	10.7490
 2.1300	10.7680
 2.1310	10.7800
 2.1320	10.7970
 2.1330	10.8060
 2.1340	10.8050
 2.1350	10.8110
 2.1360	10.8160
 2.1370	10.8260
 2.1380	10.8460
 2.1390	10.8600
 2.1400	10.8740
 2.1410	10.8850
 2.1420	10.9030
 2.1430	10.9190
 2.1440	10.9380
 2.1450	10.9680
 2.1460	10.9810
 2.1470	10.9820
 2.1480	10.9950
 2.1490	11.0050
 2.1500	11.0240
 2.1510	11.0570
 2.1520	11.0810
 2.1530	11.1040
 2.1540	11.1270
 2.1550	11.1440
 2.1560	11.1670
 2.1570	11.1920
 2.1580	11.2180
 2.1590	11.2490
 2.1600	11.2830
 2.1610	11.3110
 2.1620	11.3410
 2.1630	11.3670
 2.1640	11.3870
 2.1650	11.4160
 2.1660	11.4480
 2.1670	11.4790
 2.1680	11.5230
 2.1690	11.5480
 2.1700	11.5600
 2.1710	11.5830
 2.1720	11.6020
 2.1730	11.6250
 2.1740	11.6630
 2.1750	11.6890
 2.1760	11.7050
 2.1770	11.7280
 2.1780	11.7550
 2.1790	11.7760
 2.1800	11.7950
 2.1810	11.8160
 2.1820	11.8320
 2.1830	11.8470
 2.1840	11.8620
 2.1850	11.8780
 2.1860	11.8970
 2.1870	11.9090
 2.1880	11.9370
 2.1890	11.9850
 2.1900	12.0140
 2.1910	12.0410
 2.1920	12.0680
 2.1930	12.0810
 2.1940	12.1040
 2.1950	12.1360
 2.1960	12.1600
 2.1970	12.1750
 2.1980	12.1990
 2.1990	12.2280
 2.2000	12.2530
 2.2010	12.2880
 2.2020	12.3130
 2.2030	12.3280
 2.2040	12.3440
 2.2050	12.3520
 2.2060	12.3630
 2.2070	12.3820
 2.2080	12.4040
 2.2090	12.4280
 2.2100	12.4620
 2.2110	12.4840
 2.2120	12.5030
 2.2130	12.5180
 2.2140	12.5260
 2.2150	12.5370
 2.2160	12.5440
 2.2170	12.5530
 2.2180	12.5670
 2.2190	12.5710
 2.2200	12.5700
 2.2210	12.5670
 2.2220	12.5510
 2.2230	12.5440
 2.2240	12.5450
 2.2250	12.5390
 2.2260	12.5310
 2.2270	12.5240
 2.2280	12.5210
 2.2290	12.5060
 2.2300	12.4810
 2.2310	12.4670
 2.2320	12.4350
 2.2330	12.4080
 2.2340	12.3820
 2.2350	12.3620
 2.2360	12.3330
 2.2370	12.3040
 2.2380	12.2600
 2.2390	12.2060
 2.2400	12.1590
 2.2410	12.1070
 2.2420	12.0510
 2.2430	11.9990
 2.2440	11.9430
 2.2450	11.8740
 2.2460	11.8150
 2.2470	11.7670
 2.2480	11.7130
 2.2490	11.6620
 2.2500	11.6050
 2.2510	11.5440
 2.2520	11.4840
 2.2530	11.4210
 2.2540	11.3580
 2.2550	11.2880
 2.2560	11.2270
 2.2570	11.1790
 2.2580	11.1190
 2.2590	11.0570
 2.2600	10.9970
 2.2610	10.9370
 2.2620	10.8570
 2.2630	10.7870
 2.2640	10.7300
 2.2650	10.6740
 2.2660	10.6230
 2.2670	10.5750
 2.2680	10.5390
 2.2690	10.4990
 2.2700	10.4570
 2.2710	10.4160
 2.2720	10.3770
 2.2730	10.3370
 2.2740	10.2940
 2.2750	10.2590
 2.2760	10.2310
 2.2770	10.1980
 2.2780	10.1720
 2.2790	10.1360
 2.2800	10.0920
 2.2810	10.0500
 2.2820	10.0030
 2.2830	 9.9580
 2.2840	 9.9120
 2.2850	 9.8680
 2.2860	 9.8260
 2.2870	 9.7830
 2.2880	 9.7380
 2.2890	 9.6990
 2.2900	 9.6590
 2.2910	 9.6230
 2.2920	 9.6000
 2.2930	 9.5660
 2.2940	 9.5220
 2.2950	 9.4880
 2.2960	 9.4510
 2.2970	 9.4170
 2.2980	 9.3930
 2.2990	 9.3650
 2.3000	 9.3260
 2.3010	 9.3030
 2.3020	 9.2740
 2.3030	 9.2460
 2.3040	 9.2220
 2.3050	 9.1870
 2.3060	 9.1700
 2.3070	 9.1450
 2.3080	 9.1180
 2.3090	 9.1130
 2.3100	 9.1030
 2.3110	 9.1080
 2.3120	 9.1020
 2.3130	 9.1000
 2.3140	 9.0940
 2.3150	 9.0740
 2.3160	 9.0740
 2.3170	 9.0890
 2.3180	 9.0980
 2.3190	 9.1180
 2.3200	 9.1250
 2.3210	 9.1320
 2.3220	 9.1270
 2.3230	 9.1180
 2.3240	 9.0920
 2.3250	 9.0440
 2.3260	 9.0090
 2.3270	 8.9590
 2.3280	 8.9280
 2.3290	 8.9140
 2.3300	 8.8950
 2.3310	 8.8830
 2.3320	 8.8670
 2.3330	 8.8530
 2.3340	 8.8340
 2.3350	 8.8070
 2.3360	 8.7870
 2.3370	 8.7690
 2.3380	 8.7440
 2.3390	 8.7100
 2.3400	 8.6870
 2.3410	 8.6720
 2.3420	 8.6480
 2.3430	 8.6310
 2.3440	 8.6120
 2.3450	 8.5790
 2.3460	 8.5560
 2.3470	 8.5470
 2.3480	 8.5310
 2.3490	 8.5130
 2.3500	 8.4910
 2.3510	 8.4550
 2.3520	 8.4390
 2.3530	 8.4320
 2.3540	 8.4250
 2.3550	 8.4450
 2.3560	 8.4500
 2.3570	 8.4320
 2.3580	 8.4350
 2.3590	 8.4220
 2.3600	 8.4000
 2.3610	 8.3890
 2.3620	 8.3660
 2.3630	 8.3400
 2.3640	 8.2960
 2.3650	 8.2580
 2.3660	 8.2540
 2.3670	 8.2550
 2.3680	 8.2710
 2.3690	 8.2770
 2.3700	 8.2410
 2.3710	 8.1940
 2.3720	 8.1840
 2.3730	 8.1770
 2.3740	 8.1550
 2.3750	 8.1380
 2.3760	 8.0960
 2.3770	 8.0680
 2.3780	 8.0690
 2.3790	 8.0480
 2.3800	 8.0400
 2.3810	 8.0390
 2.3820	 8.0260
 2.3830	 8.0210
 2.3840	 7.9970
 2.3850	 7.9580
 2.3860	 7.9090
 2.3870	 7.8820
 2.3880	 7.8800
 2.3890	 7.8690
 2.3900	 7.8530
 2.3910	 7.8110
 2.3920	 7.7570
 2.3930	 7.7070
 2.3940	 7.6790
 2.3950	 7.7010
 2.3960	 7.7170
 2.3970	 7.7080
 2.3980	 7.6870
 2.3990	 7.6190
 2.4000	 7.5690
 2.4010	 7.5450
 2.4020	 7.5180
 2.4030	 7.5180
 2.4040	 7.4940
 2.4050	 7.4760
 2.4060	 7.4690
 2.4070	 7.4510
 2.4080	 7.4340
 2.4090	 7.4070
 2.4100	 7.3890
 2.4110	 7.3580
 2.4120	 7.3420
 2.4130	 7.3530
 2.4140	 7.3190
 2.4150	 7.2930
 2.4160	 7.2800
 2.4170	 7.2220
 2.4180	 7.1920
 2.4190	 7.1830
 2.4200	 7.1420
 2.4210	 7.0980
 2.4220	 7.0800
 2.4230	 7.0610
 2.4240	 7.0430
 2.4250	 7.0610
 2.4260	 7.0400
 2.4270	 6.9730
 2.4280	 6.9280
 2.4290	 6.8720
 2.4300	 6.8320
 2.4310	 6.8310
 2.4320	 6.8160
 2.4330	 6.7960
 2.4340	 6.7620
 2.4350	 6.7310
 2.4360	 6.7150
 2.4370	 6.6930
 2.4380	 6.6820
 2.4390	 6.6610
 2.4400	 6.6260
 2.4410	 6.6030
 2.4420	 6.5630
 2.4430	 6.5460
 2.4440	 6.5430
 2.4450	 6.5030
 2.4460	 6.4610
 2.4470	 6.3650
 2.4480	 6.2530
 2.4490	 6.2140
 2.4500	 6.2270
 2.4510	 6.2980
 2.4520	 6.3320
 2.4530	 6.3190
 2.4540	 6.2870
 2.4550	 6.2240
 2.4560	 6.2060
 2.4570	 6.1960
 2.4580	 6.1600
 2.4590	 6.1440
 2.4600	 6.1370
 2.4610	 6.1470
 2.4620	 6.1890
 2.4630	 6.2160
 2.4640	 6.2570
 2.4650	 6.2390
 2.4660	 6.1710
 2.4670	 6.1020
 2.4680	 6.0120
 2.4690	 6.0400
 2.4700	 6.0420
 2.4710	 6.1150
 2.4720	 6.0980
 2.4730	 5.9990
 2.4740	 5.9730
 2.4750	 5.9170
 2.4760	 5.9030
 2.4770	 5.9490
 2.4780	 5.9710
 2.4790	 5.9970
 2.4800	 5.9810
 2.4810	 5.9860
 2.4820	 5.9280
 2.4830	 5.8540
 2.4840	 5.8750
 2.4850	 5.8310
 2.4860	 5.8090
 2.4870	 5.8600
 2.4880	 5.8750
 2.4890	 5.8520
 2.4900	 5.8200
 2.4910	 5.8530
 2.4920	 5.9220
 2.4930	 6.0050
 2.4940	 6.0190
 2.4950	 5.9540
 2.4960	 5.9930
 2.4970	 6.0400
 2.4980	 6.0130
 2.4990	 6.1040
 2.5000	 6.0910
