Name: Pinus lambertiana 1
Type: vegetation
Class: Tree
Genus: Pinus
Species: lambertiana
Sample No.: VH243
Owner: UCSB
Wavelength Range: TIR
Origin: 37.043; -119.3043; WGS84
Collection Date: 11/2/2013
Description: Samples were collected as part of the HyspIRI Airborne Campaign. 48 individual plants were sampled in three times in 2013 - spring  summer  and fall. The name of the sample includes a 1  2  or 3 which references a different individual of the species. Samples were taken to JPL and processed within 48 hours of collection. The same leaves were processed in the Nicolet and then measured using the ASD.
Measurement: Hemispherical reflectance
First Column: X
Second Column: Y
X Units: Wavelength (micrometers)
Y Units: Reflectance (percentage)
First X Value: 2.501
Last X Value: 15.387
Number of X Values: 1737
Additional Information: vegetation.tree.pinus.lambertiana.tir.vh243.ucsb.nicolet.ancillary.txt

 2.5010	 5.7340
 2.5030	 5.7320
 2.5040	 5.7420
 2.5050	 5.7390
 2.5060	 5.7280
 2.5070	 5.7310
 2.5090	 5.7390
 2.5100	 5.7380
 2.5110	 5.7270
 2.5120	 5.7300
 2.5140	 5.7260
 2.5150	 5.7220
 2.5160	 5.7330
 2.5170	 5.7240
 2.5180	 5.7210
 2.5200	 5.7250
 2.5210	 5.7280
 2.5220	 5.7250
 2.5230	 5.7350
 2.5250	 5.7410
 2.5260	 5.7340
 2.5270	 5.7300
 2.5280	 5.7270
 2.5290	 5.7210
 2.5310	 5.7260
 2.5320	 5.7270
 2.5330	 5.7110
 2.5340	 5.7130
 2.5360	 5.7390
 2.5370	 5.7470
 2.5380	 5.7380
 2.5390	 5.7190
 2.5410	 5.7110
 2.5420	 5.7210
 2.5430	 5.7260
 2.5440	 5.7160
 2.5460	 5.7170
 2.5470	 5.7240
 2.5480	 5.7250
 2.5490	 5.7210
 2.5510	 5.7330
 2.5520	 5.7380
 2.5530	 5.7240
 2.5540	 5.7290
 2.5560	 5.7370
 2.5570	 5.7360
 2.5580	 5.7350
 2.5590	 5.7260
 2.5610	 5.7040
 2.5620	 5.6770
 2.5630	 5.6840
 2.5640	 5.7010
 2.5660	 5.7250
 2.5670	 5.7290
 2.5680	 5.7180
 2.5700	 5.7040
 2.5710	 5.7120
 2.5720	 5.7180
 2.5730	 5.6860
 2.5750	 5.6910
 2.5760	 5.7000
 2.5770	 5.6830
 2.5790	 5.7060
 2.5800	 5.7340
 2.5810	 5.7250
 2.5820	 5.6930
 2.5840	 5.6680
 2.5850	 5.6890
 2.5860	 5.7030
 2.5880	 5.6900
 2.5890	 5.7090
 2.5900	 5.7150
 2.5910	 5.7230
 2.5930	 5.6980
 2.5940	 5.6290
 2.5950	 5.5900
 2.5970	 5.6500
 2.5980	 5.7030
 2.5990	 5.7160
 2.6000	 5.7140
 2.6020	 5.7100
 2.6030	 5.6930
 2.6040	 5.6590
 2.6060	 5.6440
 2.6070	 5.6790
 2.6080	 5.7080
 2.6100	 5.6980
 2.6110	 5.6900
 2.6120	 5.6980
 2.6140	 5.7000
 2.6150	 5.7050
 2.6160	 5.6800
 2.6180	 5.6650
 2.6190	 5.6840
 2.6200	 5.6660
 2.6220	 5.6800
 2.6230	 5.7160
 2.6240	 5.7130
 2.6260	 5.7060
 2.6270	 5.6850
 2.6280	 5.6990
 2.6300	 5.6790
 2.6310	 5.6430
 2.6320	 5.6780
 2.6340	 5.6940
 2.6350	 5.6770
 2.6360	 5.6830
 2.6380	 5.6940
 2.6390	 5.7020
 2.6400	 5.6940
 2.6420	 5.6960
 2.6430	 5.6980
 2.6440	 5.6940
 2.6460	 5.6790
 2.6470	 5.6770
 2.6480	 5.6950
 2.6500	 5.7000
 2.6510	 5.6870
 2.6520	 5.6660
 2.6540	 5.6650
 2.6550	 5.6770
 2.6560	 5.6720
 2.6580	 5.6900
 2.6590	 5.6890
 2.6610	 5.6770
 2.6620	 5.6660
 2.6630	 5.6650
 2.6650	 5.6270
 2.6660	 5.5910
 2.6670	 5.5980
 2.6690	 5.6270
 2.6700	 5.5840
 2.6720	 5.5760
 2.6730	 5.6330
 2.6740	 5.6460
 2.6760	 5.6190
 2.6770	 5.5900
 2.6780	 5.5970
 2.6800	 5.6010
 2.6810	 5.6190
 2.6830	 5.6240
 2.6840	 5.6260
 2.6850	 5.6400
 2.6870	 5.6500
 2.6880	 5.6650
 2.6900	 5.6610
 2.6910	 5.6540
 2.6920	 5.6440
 2.6940	 5.6210
 2.6950	 5.6090
 2.6970	 5.6300
 2.6980	 5.6540
 2.6990	 5.6680
 2.7010	 5.6500
 2.7020	 5.6460
 2.7040	 5.6530
 2.7050	 5.6670
 2.7060	 5.6750
 2.7080	 5.6620
 2.7090	 5.6370
 2.7110	 5.6160
 2.7120	 5.6190
 2.7130	 5.6610
 2.7150	 5.6790
 2.7160	 5.6860
 2.7180	 5.6840
 2.7190	 5.6640
 2.7210	 5.6200
 2.7220	 5.6360
 2.7230	 5.6330
 2.7250	 5.6210
 2.7260	 5.6520
 2.7280	 5.6770
 2.7290	 5.6900
 2.7310	 5.6980
 2.7320	 5.7000
 2.7330	 5.7080
 2.7350	 5.6900
 2.7360	 5.6930
 2.7380	 5.6750
 2.7390	 5.6390
 2.7410	 5.6290
 2.7420	 5.6720
 2.7440	 5.7170
 2.7450	 5.7240
 2.7470	 5.7130
 2.7480	 5.7010
 2.7490	 5.6920
 2.7510	 5.7010
 2.7520	 5.7270
 2.7540	 5.7360
 2.7550	 5.6880
 2.7570	 5.6980
 2.7580	 5.7310
 2.7600	 5.7300
 2.7610	 5.7160
 2.7630	 5.7010
 2.7640	 5.7020
 2.7660	 5.7210
 2.7670	 5.7360
 2.7680	 5.7330
 2.7700	 5.6960
 2.7710	 5.6960
 2.7730	 5.7330
 2.7740	 5.7630
 2.7760	 5.7760
 2.7770	 5.7710
 2.7790	 5.7790
 2.7800	 5.7660
 2.7820	 5.7610
 2.7830	 5.7730
 2.7850	 5.7810
 2.7860	 5.7590
 2.7880	 5.7440
 2.7890	 5.7680
 2.7910	 5.7670
 2.7920	 5.7630
 2.7940	 5.7730
 2.7950	 5.7900
 2.7970	 5.7890
 2.7980	 5.7960
 2.8000	 5.7810
 2.8010	 5.7640
 2.8030	 5.7550
 2.8040	 5.7590
 2.8060	 5.7790
 2.8070	 5.7930
 2.8090	 5.7910
 2.8110	 5.7990
 2.8120	 5.7990
 2.8140	 5.8010
 2.8150	 5.8030
 2.8170	 5.8020
 2.8180	 5.8000
 2.8200	 5.7980
 2.8210	 5.7980
 2.8230	 5.8110
 2.8240	 5.8250
 2.8260	 5.8170
 2.8270	 5.8160
 2.8290	 5.8270
 2.8300	 5.8190
 2.8320	 5.8000
 2.8340	 5.7880
 2.8350	 5.7970
 2.8370	 5.8040
 2.8380	 5.8170
 2.8400	 5.8190
 2.8410	 5.8230
 2.8430	 5.8350
 2.8440	 5.8380
 2.8460	 5.8330
 2.8480	 5.8230
 2.8490	 5.8170
 2.8510	 5.8300
 2.8520	 5.8440
 2.8540	 5.8460
 2.8550	 5.8360
 2.8570	 5.8340
 2.8590	 5.8360
 2.8600	 5.8600
 2.8620	 5.8590
 2.8630	 5.8370
 2.8650	 5.8400
 2.8660	 5.8490
 2.8680	 5.8360
 2.8700	 5.8470
 2.8710	 5.8690
 2.8730	 5.8730
 2.8740	 5.8520
 2.8760	 5.8560
 2.8780	 5.8610
 2.8790	 5.8550
 2.8810	 5.8670
 2.8820	 5.8900
 2.8840	 5.8960
 2.8860	 5.8850
 2.8870	 5.8810
 2.8890	 5.8770
 2.8900	 5.8590
 2.8920	 5.8560
 2.8940	 5.8600
 2.8950	 5.8750
 2.8970	 5.8850
 2.8980	 5.8790
 2.9000	 5.8620
 2.9020	 5.8520
 2.9030	 5.8520
 2.9050	 5.8670
 2.9070	 5.8790
 2.9080	 5.8720
 2.9100	 5.8520
 2.9120	 5.8530
 2.9130	 5.8780
 2.9150	 5.9000
 2.9160	 5.8910
 2.9180	 5.8770
 2.9200	 5.8770
 2.9210	 5.8920
 2.9230	 5.9010
 2.9250	 5.8980
 2.9260	 5.8930
 2.9280	 5.8920
 2.9300	 5.8930
 2.9310	 5.9110
 2.9330	 5.9090
 2.9350	 5.8990
 2.9360	 5.8990
 2.9380	 5.9040
 2.9400	 5.8840
 2.9410	 5.8860
 2.9430	 5.8870
 2.9450	 5.8790
 2.9460	 5.8970
 2.9480	 5.9120
 2.9500	 5.9160
 2.9510	 5.9150
 2.9530	 5.8930
 2.9550	 5.8720
 2.9560	 5.9040
 2.9580	 5.9230
 2.9600	 5.9010
 2.9610	 5.8900
 2.9630	 5.8700
 2.9650	 5.8640
 2.9660	 5.9350
 2.9680	 6.0170
 2.9700	 5.9470
 2.9720	 5.9300
 2.9730	 5.9490
 2.9750	 5.9400
 2.9770	 5.9060
 2.9780	 5.8520
 2.9800	 5.8720
 2.9820	 5.8990
 2.9840	 5.9290
 2.9850	 5.9370
 2.9870	 5.9450
 2.9890	 6.0500
 2.9900	 6.0920
 2.9920	 6.0000
 2.9940	 5.8400
 2.9960	 5.7130
 2.9970	 5.7600
 2.9990	 5.7360
 3.0010	 5.8230
 3.0030	 5.8860
 3.0040	 5.8750
 3.0060	 5.8480
 3.0080	 5.8800
 3.0100	 5.9450
 3.0110	 5.9430
 3.0130	 5.8890
 3.0150	 5.8750
 3.0170	 5.8760
 3.0180	 5.9130
 3.0200	 5.9410
 3.0220	 5.9330
 3.0240	 5.9240
 3.0250	 5.9100
 3.0270	 5.9010
 3.0290	 5.8880
 3.0310	 5.8600
 3.0320	 5.8660
 3.0340	 5.8700
 3.0360	 5.8490
 3.0380	 5.8550
 3.0400	 5.8640
 3.0410	 5.8060
 3.0430	 5.8730
 3.0450	 5.9240
 3.0470	 5.7680
 3.0480	 5.7850
 3.0500	 5.8110
 3.0520	 5.7780
 3.0540	 5.8430
 3.0560	 5.8730
 3.0570	 5.8900
 3.0590	 5.9060
 3.0610	 5.8700
 3.0630	 5.8250
 3.0650	 5.8410
 3.0660	 5.8510
 3.0680	 5.8760
 3.0700	 5.8990
 3.0720	 5.8820
 3.0740	 5.9020
 3.0760	 5.9240
 3.0770	 5.8970
 3.0790	 5.8580
 3.0810	 5.8460
 3.0830	 5.8660
 3.0850	 5.8730
 3.0870	 5.8680
 3.0880	 5.8750
 3.0900	 5.8690
 3.0920	 5.8650
 3.0940	 5.8760
 3.0960	 5.8870
 3.0980	 5.8870
 3.0990	 5.8820
 3.1010	 5.8570
 3.1030	 5.8300
 3.1050	 5.8420
 3.1070	 5.8820
 3.1090	 5.8960
 3.1110	 5.8830
 3.1120	 5.8640
 3.1140	 5.8560
 3.1160	 5.8540
 3.1180	 5.8580
 3.1200	 5.8590
 3.1220	 5.8580
 3.1240	 5.8550
 3.1260	 5.8590
 3.1270	 5.8630
 3.1290	 5.8640
 3.1310	 5.8510
 3.1330	 5.8620
 3.1350	 5.8890
 3.1370	 5.8690
 3.1390	 5.8650
 3.1410	 5.8770
 3.1430	 5.8310
 3.1450	 5.8250
 3.1460	 5.8400
 3.1480	 5.8620
 3.1500	 5.8340
 3.1520	 5.8510
 3.1540	 5.8350
 3.1560	 5.8290
 3.1580	 5.8590
 3.1600	 5.8670
 3.1620	 5.8450
 3.1640	 5.8310
 3.1660	 5.8490
 3.1680	 5.8450
 3.1700	 5.8010
 3.1710	 5.7880
 3.1730	 5.6820
 3.1750	 5.7250
 3.1770	 5.7870
 3.1790	 5.8000
 3.1810	 5.8500
 3.1830	 5.8950
 3.1850	 5.8910
 3.1870	 5.8700
 3.1890	 5.8390
 3.1910	 5.8280
 3.1930	 5.8130
 3.1950	 5.8050
 3.1970	 5.8100
 3.1990	 5.8090
 3.2010	 5.8140
 3.2030	 5.8190
 3.2050	 5.8180
 3.2070	 5.8220
 3.2090	 5.8170
 3.2110	 5.8230
 3.2130	 5.8370
 3.2150	 5.8240
 3.2170	 5.8090
 3.2190	 5.8090
 3.2210	 5.8180
 3.2230	 5.8270
 3.2250	 5.8230
 3.2270	 5.8150
 3.2290	 5.8120
 3.2310	 5.8220
 3.2330	 5.8200
 3.2350	 5.8240
 3.2370	 5.8240
 3.2390	 5.8150
 3.2410	 5.8140
 3.2430	 5.8140
 3.2450	 5.8140
 3.2470	 5.8080
 3.2490	 5.7910
 3.2510	 5.7720
 3.2530	 5.7780
 3.2550	 5.7890
 3.2570	 5.7960
 3.2590	 5.8030
 3.2610	 5.8120
 3.2630	 5.8230
 3.2650	 5.8150
 3.2670	 5.7920
 3.2690	 5.7910
 3.2720	 5.8060
 3.2740	 5.8030
 3.2760	 5.8000
 3.2780	 5.8080
 3.2800	 5.7940
 3.2820	 5.7830
 3.2840	 5.7950
 3.2860	 5.7960
 3.2880	 5.7910
 3.2900	 5.7920
 3.2920	 5.7890
 3.2940	 5.7870
 3.2960	 5.8020
 3.2990	 5.8080
 3.3010	 5.7950
 3.3030	 5.7750
 3.3050	 5.7760
 3.3070	 5.7930
 3.3090	 5.7860
 3.3110	 5.7750
 3.3130	 5.7950
 3.3150	 5.7840
 3.3180	 5.7640
 3.3200	 5.7750
 3.3220	 5.7830
 3.3240	 5.7940
 3.3260	 5.7960
 3.3280	 5.7910
 3.3300	 5.7980
 3.3330	 5.7990
 3.3350	 5.7770
 3.3370	 5.7670
 3.3390	 5.7770
 3.3410	 5.7830
 3.3430	 5.7850
 3.3450	 5.7760
 3.3480	 5.7790
 3.3500	 5.7890
 3.3520	 5.7910
 3.3540	 5.7860
 3.3560	 5.7810
 3.3580	 5.7860
 3.3610	 5.7940
 3.3630	 5.8020
 3.3650	 5.7990
 3.3670	 5.7890
 3.3690	 5.7830
 3.3720	 5.7890
 3.3740	 5.8030
 3.3760	 5.8000
 3.3780	 5.7970
 3.3800	 5.8010
 3.3830	 5.8040
 3.3850	 5.8040
 3.3870	 5.8090
 3.3890	 5.8040
 3.3910	 5.7910
 3.3940	 5.7890
 3.3960	 5.8020
 3.3980	 5.8160
 3.4000	 5.8180
 3.4020	 5.8140
 3.4050	 5.8140
 3.4070	 5.8180
 3.4090	 5.8260
 3.4110	 5.8200
 3.4140	 5.8150
 3.4160	 5.8210
 3.4180	 5.8340
 3.4200	 5.8480
 3.4230	 5.8580
 3.4250	 5.8670
 3.4270	 5.8820
 3.4290	 5.8820
 3.4320	 5.8820
 3.4340	 5.8850
 3.4360	 5.8750
 3.4390	 5.8740
 3.4410	 5.8630
 3.4430	 5.8400
 3.4450	 5.8360
 3.4480	 5.8370
 3.4500	 5.8360
 3.4520	 5.8290
 3.4550	 5.8270
 3.4570	 5.8190
 3.4590	 5.8190
 3.4620	 5.8180
 3.4640	 5.8130
 3.4660	 5.8160
 3.4680	 5.8110
 3.4710	 5.8100
 3.4730	 5.8170
 3.4750	 5.8210
 3.4780	 5.8090
 3.4800	 5.7960
 3.4820	 5.7910
 3.4850	 5.7950
 3.4870	 5.7970
 3.4890	 5.7860
 3.4920	 5.7810
 3.4940	 5.7840
 3.4970	 5.7870
 3.4990	 5.7800
 3.5010	 5.7780
 3.5040	 5.7950
 3.5060	 5.8220
 3.5080	 5.8390
 3.5110	 5.8560
 3.5130	 5.8610
 3.5160	 5.8540
 3.5180	 5.8360
 3.5200	 5.8110
 3.5230	 5.7990
 3.5250	 5.8040
 3.5270	 5.7930
 3.5300	 5.7790
 3.5320	 5.7750
 3.5350	 5.7760
 3.5370	 5.7820
 3.5400	 5.7760
 3.5420	 5.7650
 3.5440	 5.7600
 3.5470	 5.7570
 3.5490	 5.7580
 3.5520	 5.7640
 3.5540	 5.7590
 3.5570	 5.7560
 3.5590	 5.7730
 3.5610	 5.7730
 3.5640	 5.7660
 3.5660	 5.7590
 3.5690	 5.7550
 3.5710	 5.7540
 3.5740	 5.7540
 3.5760	 5.7480
 3.5790	 5.7450
 3.5810	 5.7470
 3.5840	 5.7570
 3.5860	 5.7620
 3.5890	 5.7540
 3.5910	 5.7470
 3.5930	 5.7570
 3.5960	 5.7620
 3.5980	 5.7640
 3.6010	 5.7680
 3.6030	 5.7620
 3.6060	 5.7540
 3.6080	 5.7430
 3.6110	 5.7360
 3.6140	 5.7370
 3.6160	 5.7430
 3.6190	 5.7550
 3.6210	 5.7520
 3.6240	 5.7410
 3.6260	 5.7380
 3.6290	 5.7450
 3.6310	 5.7460
 3.6340	 5.7440
 3.6360	 5.7420
 3.6390	 5.7300
 3.6410	 5.7320
 3.6440	 5.7420
 3.6470	 5.7440
 3.6490	 5.7450
 3.6520	 5.7330
 3.6540	 5.7300
 3.6570	 5.7330
 3.6590	 5.7300
 3.6620	 5.7320
 3.6650	 5.7400
 3.6670	 5.7340
 3.6700	 5.7340
 3.6720	 5.7330
 3.6750	 5.7370
 3.6780	 5.7400
 3.6800	 5.7370
 3.6830	 5.7330
 3.6850	 5.7260
 3.6880	 5.7230
 3.6910	 5.7270
 3.6930	 5.7290
 3.6960	 5.7330
 3.6990	 5.7250
 3.7010	 5.7170
 3.7040	 5.7170
 3.7060	 5.7200
 3.7090	 5.7230
 3.7120	 5.7230
 3.7140	 5.7180
 3.7170	 5.7190
 3.7200	 5.7220
 3.7220	 5.7220
 3.7250	 5.7240
 3.7280	 5.7280
 3.7300	 5.7310
 3.7330	 5.7300
 3.7360	 5.7250
 3.7390	 5.7220
 3.7410	 5.7300
 3.7440	 5.7310
 3.7470	 5.7290
 3.7490	 5.7280
 3.7520	 5.7170
 3.7550	 5.7140
 3.7580	 5.7200
 3.7600	 5.7240
 3.7630	 5.7270
 3.7660	 5.7240
 3.7680	 5.7180
 3.7710	 5.7200
 3.7740	 5.7200
 3.7770	 5.7210
 3.7790	 5.7240
 3.7820	 5.7210
 3.7850	 5.7150
 3.7880	 5.7170
 3.7900	 5.7180
 3.7930	 5.7220
 3.7960	 5.7210
 3.7990	 5.7170
 3.8020	 5.7210
 3.8040	 5.7220
 3.8070	 5.7180
 3.8100	 5.7210
 3.8130	 5.7160
 3.8160	 5.7130
 3.8180	 5.7160
 3.8210	 5.7170
 3.8240	 5.7140
 3.8270	 5.7150
 3.8300	 5.7080
 3.8330	 5.7030
 3.8350	 5.7170
 3.8380	 5.7290
 3.8410	 5.7270
 3.8440	 5.7190
 3.8470	 5.7160
 3.8500	 5.7180
 3.8520	 5.7180
 3.8550	 5.7200
 3.8580	 5.7140
 3.8610	 5.7130
 3.8640	 5.7090
 3.8670	 5.7120
 3.8700	 5.7170
 3.8730	 5.7150
 3.8750	 5.7140
 3.8780	 5.7190
 3.8810	 5.7220
 3.8840	 5.7240
 3.8870	 5.7180
 3.8900	 5.7110
 3.8930	 5.7080
 3.8960	 5.7160
 3.8990	 5.7280
 3.9020	 5.7250
 3.9050	 5.7180
 3.9080	 5.7190
 3.9110	 5.7180
 3.9140	 5.7130
 3.9160	 5.7150
 3.9190	 5.7160
 3.9220	 5.7110
 3.9250	 5.7130
 3.9280	 5.7130
 3.9310	 5.7120
 3.9340	 5.7170
 3.9370	 5.7180
 3.9400	 5.7200
 3.9430	 5.7200
 3.9460	 5.7140
 3.9490	 5.7130
 3.9520	 5.7190
 3.9550	 5.7280
 3.9580	 5.7270
 3.9610	 5.7200
 3.9640	 5.7240
 3.9670	 5.7260
 3.9700	 5.7230
 3.9730	 5.7310
 3.9770	 5.7370
 3.9800	 5.7370
 3.9830	 5.7320
 3.9860	 5.7230
 3.9890	 5.7200
 3.9920	 5.7240
 3.9950	 5.7210
 3.9980	 5.7220
 4.0010	 5.7190
 4.0040	 5.7170
 4.0070	 5.7090
 4.0100	 5.7090
 4.0130	 5.7100
 4.0170	 5.7100
 4.0200	 5.7150
 4.0230	 5.7150
 4.0260	 5.7030
 4.0290	 5.6990
 4.0320	 5.7050
 4.0350	 5.7090
 4.0380	 5.7070
 4.0420	 5.7020
 4.0450	 5.7010
 4.0480	 5.7040
 4.0510	 5.7050
 4.0540	 5.7070
 4.0570	 5.6990
 4.0610	 5.6950
 4.0640	 5.7010
 4.0670	 5.7090
 4.0700	 5.7120
 4.0730	 5.7090
 4.0770	 5.7030
 4.0800	 5.7020
 4.0830	 5.7080
 4.0860	 5.7100
 4.0890	 5.7040
 4.0930	 5.7000
 4.0960	 5.7040
 4.0990	 5.7050
 4.1020	 5.7000
 4.1060	 5.7020
 4.1090	 5.6980
 4.1120	 5.6940
 4.1150	 5.6920
 4.1190	 5.6950
 4.1220	 5.6910
 4.1250	 5.6900
 4.1280	 5.7010
 4.1320	 5.7080
 4.1350	 5.7050
 4.1380	 5.6970
 4.1420	 5.6970
 4.1450	 5.7020
 4.1480	 5.7040
 4.1520	 5.7060
 4.1550	 5.6970
 4.1580	 5.6960
 4.1620	 5.7000
 4.1650	 5.6990
 4.1680	 5.6970
 4.1720	 5.6970
 4.1750	 5.6940
 4.1780	 5.6940
 4.1820	 5.6900
 4.1850	 5.6900
 4.1890	 5.6930
 4.1920	 5.6850
 4.1950	 5.6660
 4.1990	 5.6470
 4.2020	 5.6190
 4.2060	 5.5940
 4.2090	 5.5700
 4.2120	 5.5410
 4.2160	 5.5040
 4.2190	 5.4650
 4.2230	 5.4220
 4.2260	 5.4040
 4.2300	 5.3740
 4.2330	 5.3530
 4.2360	 5.3690
 4.2400	 5.3840
 4.2430	 5.4010
 4.2470	 5.4180
 4.2500	 5.4390
 4.2540	 5.4730
 4.2570	 5.5190
 4.2610	 5.5200
 4.2640	 5.4730
 4.2680	 5.4560
 4.2710	 5.4380
 4.2750	 5.4510
 4.2780	 5.4830
 4.2820	 5.4700
 4.2850	 5.4560
 4.2890	 5.4630
 4.2930	 5.4730
 4.2960	 5.4900
 4.3000	 5.4980
 4.3030	 5.4960
 4.3070	 5.5010
 4.3100	 5.5150
 4.3140	 5.5400
 4.3180	 5.5590
 4.3210	 5.5720
 4.3250	 5.5810
 4.3280	 5.5920
 4.3320	 5.6070
 4.3360	 5.6170
 4.3390	 5.6240
 4.3430	 5.6250
 4.3470	 5.6310
 4.3500	 5.6400
 4.3540	 5.6530
 4.3570	 5.6560
 4.3610	 5.6560
 4.3650	 5.6560
 4.3680	 5.6580
 4.3720	 5.6670
 4.3760	 5.6740
 4.3800	 5.6720
 4.3830	 5.6810
 4.3870	 5.6910
 4.3910	 5.6870
 4.3940	 5.6830
 4.3980	 5.6780
 4.4020	 5.6750
 4.4060	 5.6720
 4.4090	 5.6760
 4.4130	 5.6820
 4.4170	 5.6830
 4.4210	 5.6790
 4.4240	 5.6770
 4.4280	 5.6800
 4.4320	 5.6790
 4.4360	 5.6780
 4.4400	 5.6800
 4.4430	 5.6850
 4.4470	 5.6790
 4.4510	 5.6740
 4.4550	 5.6780
 4.4590	 5.6780
 4.4620	 5.6810
 4.4660	 5.6880
 4.4700	 5.6950
 4.4740	 5.6950
 4.4780	 5.6880
 4.4820	 5.6810
 4.4860	 5.6790
 4.4900	 5.6820
 4.4930	 5.6860
 4.4970	 5.6850
 4.5010	 5.6850
 4.5050	 5.6800
 4.5090	 5.6780
 4.5130	 5.6810
 4.5170	 5.6820
 4.5210	 5.6810
 4.5250	 5.6810
 4.5290	 5.6840
 4.5330	 5.6820
 4.5370	 5.6840
 4.5410	 5.6800
 4.5450	 5.6780
 4.5490	 5.6780
 4.5530	 5.6760
 4.5570	 5.6810
 4.5610	 5.6830
 4.5650	 5.6770
 4.5690	 5.6800
 4.5730	 5.6840
 4.5770	 5.6840
 4.5810	 5.6830
 4.5850	 5.6770
 4.5890	 5.6730
 4.5930	 5.6780
 4.5970	 5.6810
 4.6010	 5.6740
 4.6050	 5.6810
 4.6090	 5.6910
 4.6130	 5.6860
 4.6170	 5.6910
 4.6220	 5.6900
 4.6260	 5.6730
 4.6300	 5.6620
 4.6340	 5.6680
 4.6380	 5.6710
 4.6420	 5.6650
 4.6460	 5.6660
 4.6510	 5.6750
 4.6550	 5.6730
 4.6590	 5.6710
 4.6630	 5.6780
 4.6670	 5.6790
 4.6720	 5.6790
 4.6760	 5.6770
 4.6800	 5.6730
 4.6840	 5.6790
 4.6880	 5.6780
 4.6930	 5.6710
 4.6970	 5.6700
 4.7010	 5.6780
 4.7050	 5.6790
 4.7100	 5.6730
 4.7140	 5.6770
 4.7180	 5.6850
 4.7230	 5.6820
 4.7270	 5.6760
 4.7310	 5.6700
 4.7360	 5.6730
 4.7400	 5.6750
 4.7440	 5.6710
 4.7490	 5.6720
 4.7530	 5.6700
 4.7570	 5.6650
 4.7620	 5.6670
 4.7660	 5.6710
 4.7700	 5.6710
 4.7750	 5.6740
 4.7790	 5.6760
 4.7840	 5.6710
 4.7880	 5.6770
 4.7920	 5.6770
 4.7970	 5.6690
 4.8010	 5.6750
 4.8060	 5.6780
 4.8100	 5.6760
 4.8150	 5.6810
 4.8190	 5.6760
 4.8240	 5.6680
 4.8280	 5.6700
 4.8330	 5.6720
 4.8370	 5.6740
 4.8420	 5.6800
 4.8460	 5.6810
 4.8510	 5.6810
 4.8550	 5.6790
 4.8600	 5.6780
 4.8640	 5.6750
 4.8690	 5.6720
 4.8730	 5.6740
 4.8780	 5.6690
 4.8830	 5.6700
 4.8870	 5.6750
 4.8920	 5.6700
 4.8960	 5.6720
 4.9010	 5.6750
 4.9060	 5.6800
 4.9100	 5.6830
 4.9150	 5.6750
 4.9200	 5.6710
 4.9240	 5.6670
 4.9290	 5.6660
 4.9340	 5.6700
 4.9380	 5.6720
 4.9430	 5.6740
 4.9480	 5.6770
 4.9530	 5.6760
 4.9570	 5.6750
 4.9620	 5.6840
 4.9670	 5.6860
 4.9720	 5.6820
 4.9760	 5.6800
 4.9810	 5.6770
 4.9860	 5.6710
 4.9910	 5.6700
 4.9960	 5.6740
 5.0000	 5.6770
 5.0050	 5.6830
 5.0100	 5.6860
 5.0150	 5.6740
 5.0200	 5.6620
 5.0250	 5.6620
 5.0290	 5.6700
 5.0340	 5.6770
 5.0390	 5.6760
 5.0440	 5.6740
 5.0490	 5.6750
 5.0540	 5.6750
 5.0590	 5.6820
 5.0640	 5.6800
 5.0690	 5.6780
 5.0740	 5.6780
 5.0790	 5.6740
 5.0840	 5.6690
 5.0890	 5.6720
 5.0940	 5.6740
 5.0990	 5.6750
 5.1040	 5.6810
 5.1090	 5.6810
 5.1140	 5.6710
 5.1190	 5.6720
 5.1240	 5.6820
 5.1290	 5.6770
 5.1340	 5.6670
 5.1390	 5.6660
 5.1440	 5.6690
 5.1490	 5.6680
 5.1540	 5.6690
 5.1600	 5.6680
 5.1650	 5.6690
 5.1700	 5.6720
 5.1750	 5.6750
 5.1800	 5.6730
 5.1850	 5.6740
 5.1910	 5.6780
 5.1960	 5.6690
 5.2010	 5.6600
 5.2060	 5.6660
 5.2110	 5.6610
 5.2170	 5.6640
 5.2220	 5.6770
 5.2270	 5.6800
 5.2320	 5.6770
 5.2380	 5.6680
 5.2430	 5.6670
 5.2480	 5.6660
 5.2540	 5.6680
 5.2590	 5.6720
 5.2640	 5.6690
 5.2700	 5.6690
 5.2750	 5.6760
 5.2800	 5.6740
 5.2860	 5.6700
 5.2910	 5.6600
 5.2970	 5.6590
 5.3020	 5.6680
 5.3070	 5.6770
 5.3130	 5.6760
 5.3180	 5.6740
 5.3240	 5.6760
 5.3290	 5.6750
 5.3350	 5.6720
 5.3400	 5.6700
 5.3460	 5.6600
 5.3510	 5.6510
 5.3570	 5.6560
 5.3620	 5.6610
 5.3680	 5.6650
 5.3730	 5.6720
 5.3790	 5.6780
 5.3850	 5.6690
 5.3900	 5.6650
 5.3960	 5.6670
 5.4010	 5.6670
 5.4070	 5.6630
 5.4130	 5.6570
 5.4180	 5.6420
 5.4240	 5.6380
 5.4300	 5.6530
 5.4350	 5.6600
 5.4410	 5.6600
 5.4470	 5.6680
 5.4530	 5.6680
 5.4580	 5.6540
 5.4640	 5.6380
 5.4700	 5.6490
 5.4760	 5.6460
 5.4810	 5.6470
 5.4870	 5.6610
 5.4930	 5.6630
 5.4990	 5.6670
 5.5050	 5.6730
 5.5110	 5.6680
 5.5160	 5.6590
 5.5220	 5.6560
 5.5280	 5.6660
 5.5340	 5.6720
 5.5400	 5.6710
 5.5460	 5.6680
 5.5520	 5.6590
 5.5580	 5.6700
 5.5640	 5.6860
 5.5700	 5.6850
 5.5760	 5.6560
 5.5820	 5.6430
 5.5880	 5.6630
 5.5940	 5.6650
 5.6000	 5.6590
 5.6060	 5.6640
 5.6120	 5.6690
 5.6180	 5.6590
 5.6240	 5.6570
 5.6300	 5.6600
 5.6360	 5.6420
 5.6420	 5.6070
 5.6490	 5.6220
 5.6550	 5.6420
 5.6610	 5.6600
 5.6670	 5.6680
 5.6730	 5.6420
 5.6800	 5.6380
 5.6860	 5.6520
 5.6920	 5.6410
 5.6980	 5.6410
 5.7040	 5.6430
 5.7110	 5.6260
 5.7170	 5.6330
 5.7230	 5.6510
 5.7300	 5.6630
 5.7360	 5.6660
 5.7420	 5.6720
 5.7490	 5.6770
 5.7550	 5.7090
 5.7620	 5.6920
 5.7680	 5.6700
 5.7740	 5.7370
 5.7810	 5.7610
 5.7870	 5.7640
 5.7940	 5.7730
 5.8000	 5.7680
 5.8070	 5.7670
 5.8130	 5.7490
 5.8200	 5.6900
 5.8260	 5.6840
 5.8330	 5.7300
 5.8390	 5.7630
 5.8460	 5.7790
 5.8530	 5.7750
 5.8590	 5.7630
 5.8660	 5.7620
 5.8720	 5.7630
 5.8790	 5.6950
 5.8860	 5.7030
 5.8920	 5.7400
 5.8990	 5.7470
 5.9060	 5.8140
 5.9130	 5.8320
 5.9190	 5.8310
 5.9260	 5.8240
 5.9330	 5.7700
 5.9400	 5.7550
 5.9470	 5.8260
 5.9530	 5.8490
 5.9600	 5.8550
 5.9670	 5.8260
 5.9740	 5.8330
 5.9810	 5.8500
 5.9880	 5.8350
 5.9950	 5.8500
 6.0020	 5.8860
 6.0090	 5.8790
 6.0160	 5.8610
 6.0230	 5.8750
 6.0300	 5.8910
 6.0370	 5.8890
 6.0440	 5.8100
 6.0510	 5.7350
 6.0580	 5.8350
 6.0650	 5.8740
 6.0720	 5.8420
 6.0790	 5.8690
 6.0860	 5.9210
 6.0930	 5.9250
 6.1000	 5.9210
 6.1080	 5.8870
 6.1150	 5.8620
 6.1220	 5.9150
 6.1290	 5.9480
 6.1370	 5.9330
 6.1440	 5.9240
 6.1510	 5.9240
 6.1580	 5.9190
 6.1660	 5.9300
 6.1730	 5.9440
 6.1800	 5.9050
 6.1880	 5.8910
 6.1950	 5.9410
 6.2030	 5.9560
 6.2100	 5.9470
 6.2170	 5.9460
 6.2250	 5.9440
 6.2320	 5.9370
 6.2400	 5.9320
 6.2470	 5.9380
 6.2550	 5.9310
 6.2630	 5.9310
 6.2700	 5.9490
 6.2780	 5.9530
 6.2850	 5.9400
 6.2930	 5.9280
 6.3010	 5.9190
 6.3080	 5.9230
 6.3160	 5.9230
 6.3240	 5.9140
 6.3310	 5.9060
 6.3390	 5.8580
 6.3470	 5.8220
 6.3550	 5.8650
 6.3620	 5.8710
 6.3700	 5.8470
 6.3780	 5.8550
 6.3860	 5.8670
 6.3940	 5.8530
 6.4020	 5.8240
 6.4100	 5.7280
 6.4180	 5.7050
 6.4260	 5.7820
 6.4330	 5.8030
 6.4410	 5.8140
 6.4490	 5.8230
 6.4580	 5.8270
 6.4660	 5.8240
 6.4740	 5.7870
 6.4820	 5.7510
 6.4900	 5.6930
 6.4980	 5.6990
 6.5060	 5.7750
 6.5140	 5.7880
 6.5230	 5.7620
 6.5310	 5.7860
 6.5390	 5.7880
 6.5470	 5.7730
 6.5550	 5.7560
 6.5640	 5.7490
 6.5720	 5.7140
 6.5800	 5.7310
 6.5890	 5.7490
 6.5970	 5.7560
 6.6060	 5.7740
 6.6140	 5.7720
 6.6220	 5.7510
 6.6310	 5.6910
 6.6390	 5.6450
 6.6480	 5.7130
 6.6560	 5.7770
 6.6650	 5.7740
 6.6740	 5.7450
 6.6820	 5.7360
 6.6910	 5.7690
 6.6990	 5.7820
 6.7080	 5.7540
 6.7170	 5.7540
 6.7260	 5.7690
 6.7340	 5.7830
 6.7430	 5.7920
 6.7520	 5.7950
 6.7610	 5.7980
 6.7690	 5.7980
 6.7780	 5.7820
 6.7870	 5.7510
 6.7960	 5.7710
 6.8050	 5.8220
 6.8140	 5.8310
 6.8230	 5.8120
 6.8320	 5.8230
 6.8410	 5.8530
 6.8500	 5.8410
 6.8590	 5.7800
 6.8680	 5.7650
 6.8770	 5.8260
 6.8860	 5.8500
 6.8950	 5.8590
 6.9050	 5.8460
 6.9140	 5.8480
 6.9230	 5.8640
 6.9320	 5.8740
 6.9420	 5.8630
 6.9510	 5.8470
 6.9600	 5.8190
 6.9700	 5.8430
 6.9790	 5.8630
 6.9880	 5.8590
 6.9980	 5.8670
 7.0070	 5.8840
 7.0170	 5.8790
 7.0260	 5.8820
 7.0360	 5.8650
 7.0450	 5.8240
 7.0550	 5.8460
 7.0650	 5.8840
 7.0740	 5.8880
 7.0840	 5.8900
 7.0940	 5.8910
 7.1030	 5.8900
 7.1130	 5.8780
 7.1230	 5.8790
 7.1330	 5.8870
 7.1420	 5.8740
 7.1520	 5.8550
 7.1620	 5.8460
 7.1720	 5.8340
 7.1820	 5.8620
 7.1920	 5.8730
 7.2020	 5.8520
 7.2120	 5.8440
 7.2220	 5.8540
 7.2320	 5.8480
 7.2420	 5.8530
 7.2520	 5.8480
 7.2620	 5.8380
 7.2730	 5.8240
 7.2830	 5.8300
 7.2930	 5.8320
 7.3030	 5.8320
 7.3140	 5.8380
 7.3240	 5.8450
 7.3340	 5.8210
 7.3450	 5.8080
 7.3550	 5.8120
 7.3660	 5.8160
 7.3760	 5.8140
 7.3870	 5.8110
 7.3970	 5.8070
 7.4080	 5.8120
 7.4180	 5.8030
 7.4290	 5.8010
 7.4400	 5.8010
 7.4500	 5.7970
 7.4610	 5.7880
 7.4720	 5.7950
 7.4830	 5.7920
 7.4930	 5.7910
 7.5040	 5.7910
 7.5150	 5.7980
 7.5260	 5.8040
 7.5370	 5.8100
 7.5480	 5.8080
 7.5590	 5.8060
 7.5700	 5.8020
 7.5810	 5.8040
 7.5920	 5.7970
 7.6030	 5.7960
 7.6140	 5.7910
 7.6260	 5.7900
 7.6370	 5.7780
 7.6480	 5.7810
 7.6590	 5.7810
 7.6710	 5.7800
 7.6820	 5.7740
 7.6930	 5.7650
 7.7050	 5.7630
 7.7160	 5.7720
 7.7280	 5.7720
 7.7390	 5.7660
 7.7510	 5.7590
 7.7630	 5.7600
 7.7740	 5.7510
 7.7860	 5.7500
 7.7980	 5.7390
 7.8090	 5.7350
 7.8210	 5.7380
 7.8330	 5.7400
 7.8450	 5.7280
 7.8570	 5.7300
 7.8690	 5.7370
 7.8810	 5.7460
 7.8930	 5.7380
 7.9050	 5.7440
 7.9170	 5.7460
 7.9290	 5.7410
 7.9410	 5.7300
 7.9530	 5.7290
 7.9650	 5.7340
 7.9780	 5.7290
 7.9900	 5.7150
 8.0020	 5.7230
 8.0150	 5.7160
 8.0270	 5.7230
 8.0390	 5.7270
 8.0520	 5.7380
 8.0640	 5.7300
 8.0770	 5.7180
 8.0900	 5.7130
 8.1020	 5.7190
 8.1150	 5.7210
 8.1280	 5.7280
 8.1400	 5.7150
 8.1530	 5.7120
 8.1660	 5.7150
 8.1790	 5.7280
 8.1920	 5.7480
 8.2050	 5.7510
 8.2180	 5.7390
 8.2310	 5.7480
 8.2440	 5.7480
 8.2570	 5.7540
 8.2700	 5.7490
 8.2830	 5.7530
 8.2970	 5.7480
 8.3100	 5.7560
 8.3230	 5.7530
 8.3370	 5.7660
 8.3500	 5.7850
 8.3640	 5.7890
 8.3770	 5.7830
 8.3910	 5.7910
 8.4040	 5.7840
 8.4180	 5.7870
 8.4320	 5.7850
 8.4450	 5.8020
 8.4590	 5.8070
 8.4730	 5.8110
 8.4870	 5.8110
 8.5010	 5.8060
 8.5150	 5.7970
 8.5290	 5.8090
 8.5430	 5.8110
 8.5570	 5.8200
 8.5710	 5.8260
 8.5850	 5.8350
 8.5990	 5.8120
 8.6140	 5.8250
 8.6280	 5.8460
 8.6420	 5.8350
 8.6570	 5.8280
 8.6710	 5.8430
 8.6860	 5.8470
 8.7000	 5.8540
 8.7150	 5.8490
 8.7300	 5.8440
 8.7440	 5.8300
 8.7590	 5.8370
 8.7740	 5.8470
 8.7890	 5.8520
 8.8040	 5.8510
 8.8190	 5.8670
 8.8340	 5.8620
 8.8490	 5.8620
 8.8640	 5.8590
 8.8790	 5.8650
 8.8940	 5.8700
 8.9100	 5.8720
 8.9250	 5.8690
 8.9400	 5.8760
 8.9560	 5.8640
 8.9710	 5.8610
 8.9870	 5.8540
 9.0020	 5.8510
 9.0180	 5.8530
 9.0340	 5.8740
 9.0500	 5.8700
 9.0650	 5.8700
 9.0810	 5.8650
 9.0970	 5.8610
 9.1130	 5.8570
 9.1290	 5.8730
 9.1450	 5.8720
 9.1610	 5.8670
 9.1780	 5.8610
 9.1940	 5.8640
 9.2100	 5.8620
 9.2270	 5.8620
 9.2430	 5.8590
 9.2600	 5.8680
 9.2760	 5.8500
 9.2930	 5.8410
 9.3090	 5.8350
 9.3260	 5.8440
 9.3430	 5.8660
 9.3600	 5.8780
 9.3770	 5.8640
 9.3940	 5.8630
 9.4110	 5.8630
 9.4280	 5.8740
 9.4450	 5.8650
 9.4620	 5.8510
 9.4800	 5.8410
 9.4970	 5.8600
 9.5140	 5.8640
 9.5320	 5.8690
 9.5500	 5.8610
 9.5670	 5.8750
 9.5850	 5.8730
 9.6030	 5.8640
 9.6200	 5.8580
 9.6380	 5.8580
 9.6560	 5.8580
 9.6740	 5.8520
 9.6920	 5.8450
 9.7100	 5.8590
 9.7290	 5.8520
 9.7470	 5.8500
 9.7650	 5.8370
 9.7840	 5.8420
 9.8020	 5.8480
 9.8210	 5.8420
 9.8390	 5.8260
 9.8580	 5.8350
 9.8770	 5.8280
 9.8960	 5.8310
 9.9150	 5.8320
 9.9340	 5.8360
 9.9530	 5.8330
 9.9720	 5.8330
 9.9910	 5.8240
10.0100	 5.8110
10.0300	 5.7950
10.0490	 5.8010
10.0690	 5.7950
10.0880	 5.7980
10.1080	 5.7930
10.1280	 5.7990
10.1480	 5.7920
10.1670	 5.7790
10.1870	 5.7590
10.2070	 5.7630
10.2280	 5.7620
10.2480	 5.7570
10.2680	 5.7510
10.2890	 5.7560
10.3090	 5.7520
10.3300	 5.7520
10.3500	 5.7390
10.3710	 5.7360
10.3920	 5.7190
10.4120	 5.7190
10.4330	 5.7160
10.4540	 5.7250
10.4760	 5.7230
10.4970	 5.7300
10.5180	 5.7270
10.5390	 5.7240
10.5610	 5.7160
10.5820	 5.7290
10.6040	 5.7190
10.6260	 5.7160
10.6480	 5.7180
10.6700	 5.7180
10.6920	 5.7060
10.7140	 5.7080
10.7360	 5.7020
10.7580	 5.6980
10.7800	 5.7070
10.8030	 5.7220
10.8250	 5.7110
10.8480	 5.7110
10.8710	 5.7130
10.8940	 5.7160
10.9170	 5.7010
10.9400	 5.7030
10.9630	 5.6860
10.9860	 5.6810
11.0090	 5.6680
11.0330	 5.6770
11.0560	 5.6830
11.0800	 5.6650
11.1040	 5.6420
11.1270	 5.6490
11.1510	 5.6480
11.1750	 5.6570
11.2000	 5.6500
11.2240	 5.6480
11.2480	 5.6420
11.2730	 5.6590
11.2970	 5.6690
11.3220	 5.6800
11.3470	 5.6720
11.3720	 5.6850
11.3970	 5.6880
11.4220	 5.6940
11.4470	 5.6990
11.4720	 5.7360
11.4980	 5.6940
11.5230	 5.6710
11.5490	 5.6580
11.5750	 5.6570
11.6000	 5.6420
11.6260	 5.6460
11.6530	 5.6460
11.6790	 5.6450
11.7050	 5.6180
11.7320	 5.6280
11.7580	 5.6340
11.7850	 5.6450
11.8120	 5.6470
11.8390	 5.6460
11.8660	 5.6170
11.8930	 5.6080
11.9200	 5.6140
11.9480	 5.6210
11.9760	 5.6100
12.0030	 5.6250
12.0310	 5.6270
12.0590	 5.6280
12.0870	 5.6210
12.1150	 5.6320
12.1440	 5.6150
12.1720	 5.6140
12.2010	 5.6130
12.2300	 5.6300
12.2590	 5.6250
12.2880	 5.6330
12.3170	 5.6220
12.3460	 5.6390
12.3760	 5.6450
12.4050	 5.6570
12.4350	 5.6450
12.4650	 5.6510
12.4950	 5.6500
12.5250	 5.6530
12.5550	 5.6460
12.5860	 5.6520
12.6170	 5.6390
12.6470	 5.6440
12.6780	 5.6300
12.7090	 5.6430
12.7410	 5.6610
12.7720	 5.6730
12.8030	 5.6530
12.8350	 5.6540
12.8670	 5.6540
12.8990	 5.6460
12.9310	 5.6240
12.9640	 5.6300
12.9960	 5.6090
13.0290	 5.6260
13.0610	 5.6380
13.0940	 5.6320
13.1280	 5.6030
13.1610	 5.6150
13.1940	 5.6080
13.2280	 5.6190
13.2620	 5.6250
13.2960	 5.6370
13.3300	 5.6020
13.3640	 5.5960
13.3990	 5.5860
13.4340	 5.5960
13.4690	 5.5840
13.5040	 5.6100
13.5390	 5.6020
13.5740	 5.5840
13.6100	 5.5580
13.6460	 5.5860
13.6820	 5.5930
13.7180	 5.6190
13.7540	 5.5970
13.7910	 5.6130
13.8280	 5.6160
13.8650	 5.6100
13.9020	 5.5880
13.9390	 5.6230
13.9770	 5.6190
14.0150	 5.6410
14.0530	 5.6350
14.0910	 5.6280
14.1290	 5.5960
14.1680	 5.5980
14.2070	 5.5840
14.2460	 5.5930
14.2850	 5.5910
14.3240	 5.6050
14.3640	 5.5730
14.4040	 5.5760
14.4440	 5.5550
14.4840	 5.5610
14.5250	 5.5540
14.5660	 5.5870
14.6070	 5.5570
14.6480	 5.5710
14.6900	 5.5420
14.7310	 5.5310
14.7730	 5.4970
14.8150	 5.4950
14.8580	 5.5000
14.9010	 5.5340
14.9440	 5.4970
14.9870	 5.5610
15.0300	 5.5290
15.0740	 5.5350
15.1180	 5.5170
15.1620	 5.5440
15.2060	 5.5260
15.2510	 5.5500
15.2960	 5.5130
15.3410	 5.5150
15.3870	 5.5000
