Name: Salvia leucophylla 3
Type: vegetation
Class: Shrub
Genus: Salvia
Species: leucophylla
Sample No.: VH095
Owner: UCSB
Wavelength Range: VSWIR
Origin: 34.698; -120.0477; WGS84
Collection Date: 4/21/2013
Description: Samples were collected as part of the HyspIRI Airborne Campaign. 48 individual plants were sampled in three times in 2013 - spring  summer  and fall. The name of the sample includes a 1  2  or 3 which references a different individual of the species. Samples were taken to JPL and processed within 48 hours of collection. The same leaves were processed in the Nicolet and then measured using the ASD.
Measurement: Bidirectional reflectance
First Column: X
Second Column: Y
X Units: Wavelength (micrometers)
Y Units: Reflectance (percentage)
First X Value: 0.35
Last X Value: 2.5
Number of X Values: 2151
Additional Information: vegetation.shrub.salvia.leucophylla.vswir.vh095.ucsb.asd.ancillary.txt

 0.3500	 3.6570
 0.3510	 3.4940
 0.3520	 3.5240
 0.3530	 3.5500
 0.3540	 3.4340
 0.3550	 3.7500
 0.3560	 3.6970
 0.3570	 3.4520
 0.3580	 3.6070
 0.3590	 3.6160
 0.3600	 3.5980
 0.3610	 3.6520
 0.3620	 3.7530
 0.3630	 3.8210
 0.3640	 3.8090
 0.3650	 3.7260
 0.3660	 3.7190
 0.3670	 3.7880
 0.3680	 3.8530
 0.3690	 3.8090
 0.3700	 3.9130
 0.3710	 4.1040
 0.3720	 4.2460
 0.3730	 4.1340
 0.3740	 4.1260
 0.3750	 4.2050
 0.3760	 4.2480
 0.3770	 4.2650
 0.3780	 4.3780
 0.3790	 4.5360
 0.3800	 4.5590
 0.3810	 4.6120
 0.3820	 4.7060
 0.3830	 4.8130
 0.3840	 4.8870
 0.3850	 4.8960
 0.3860	 4.9450
 0.3870	 5.1330
 0.3880	 5.2450
 0.3890	 5.2600
 0.3900	 5.2600
 0.3910	 5.4080
 0.3920	 5.4790
 0.3930	 5.5320
 0.3940	 5.6280
 0.3950	 5.6870
 0.3960	 5.7370
 0.3970	 5.8060
 0.3980	 5.9080
 0.3990	 5.9470
 0.4000	 5.9920
 0.4010	 6.0650
 0.4020	 6.1080
 0.4030	 6.1790
 0.4040	 6.2380
 0.4050	 6.2500
 0.4060	 6.2950
 0.4070	 6.3870
 0.4080	 6.4700
 0.4090	 6.4630
 0.4100	 6.5250
 0.4110	 6.5890
 0.4120	 6.6140
 0.4130	 6.6570
 0.4140	 6.7030
 0.4150	 6.7560
 0.4160	 6.8180
 0.4170	 6.8780
 0.4180	 6.9590
 0.4190	 7.0470
 0.4200	 7.0970
 0.4210	 7.1600
 0.4220	 7.2370
 0.4230	 7.3140
 0.4240	 7.3780
 0.4250	 7.4500
 0.4260	 7.5240
 0.4270	 7.5840
 0.4280	 7.6590
 0.4290	 7.7320
 0.4300	 7.7940
 0.4310	 7.8460
 0.4320	 7.9280
 0.4330	 8.0090
 0.4340	 8.0600
 0.4350	 8.1290
 0.4360	 8.2010
 0.4370	 8.2650
 0.4380	 8.3230
 0.4390	 8.3690
 0.4400	 8.4220
 0.4410	 8.4830
 0.4420	 8.4930
 0.4430	 8.5350
 0.4440	 8.6020
 0.4450	 8.6570
 0.4460	 8.6900
 0.4470	 8.7270
 0.4480	 8.7740
 0.4490	 8.8190
 0.4500	 8.8520
 0.4510	 8.8850
 0.4520	 8.9270
 0.4530	 8.9540
 0.4540	 8.9880
 0.4550	 9.0240
 0.4560	 9.0440
 0.4570	 9.0830
 0.4580	 9.1200
 0.4590	 9.1390
 0.4600	 9.1470
 0.4610	 9.1640
 0.4620	 9.1870
 0.4630	 9.2060
 0.4640	 9.2230
 0.4650	 9.2480
 0.4660	 9.2750
 0.4670	 9.2810
 0.4680	 9.3050
 0.4690	 9.3240
 0.4700	 9.3200
 0.4710	 9.3360
 0.4720	 9.3530
 0.4730	 9.3680
 0.4740	 9.3820
 0.4750	 9.3820
 0.4760	 9.3790
 0.4770	 9.3870
 0.4780	 9.4170
 0.4790	 9.4370
 0.4800	 9.4410
 0.4810	 9.4360
 0.4820	 9.4560
 0.4830	 9.4770
 0.4840	 9.4900
 0.4850	 9.5020
 0.4860	 9.5200
 0.4870	 9.5400
 0.4880	 9.5590
 0.4890	 9.5790
 0.4900	 9.5950
 0.4910	 9.6100
 0.4920	 9.6320
 0.4930	 9.6630
 0.4940	 9.6990
 0.4950	 9.7290
 0.4960	 9.7460
 0.4970	 9.7790
 0.4980	 9.8190
 0.4990	 9.8530
 0.5000	 9.9120
 0.5010	 9.9680
 0.5020	10.0160
 0.5030	10.0710
 0.5040	10.1390
 0.5050	10.2150
 0.5060	10.2950
 0.5070	10.3820
 0.5080	10.4680
 0.5090	10.5620
 0.5100	10.6760
 0.5110	10.8010
 0.5120	10.9330
 0.5130	11.0690
 0.5140	11.2150
 0.5150	11.3660
 0.5160	11.5340
 0.5170	11.7230
 0.5180	11.9030
 0.5190	12.0890
 0.5200	12.2860
 0.5210	12.4910
 0.5220	12.7000
 0.5230	12.9080
 0.5240	13.1150
 0.5250	13.3250
 0.5260	13.5290
 0.5270	13.7250
 0.5280	13.9160
 0.5290	14.0970
 0.5300	14.2730
 0.5310	14.4430
 0.5320	14.6020
 0.5330	14.7530
 0.5340	14.8990
 0.5350	15.0380
 0.5360	15.1630
 0.5370	15.2820
 0.5380	15.3970
 0.5390	15.5100
 0.5400	15.6230
 0.5410	15.7350
 0.5420	15.8450
 0.5430	15.9490
 0.5440	16.0450
 0.5450	16.1330
 0.5460	16.2090
 0.5470	16.2670
 0.5480	16.3180
 0.5490	16.3720
 0.5500	16.4290
 0.5510	16.4780
 0.5520	16.5190
 0.5530	16.5520
 0.5540	16.5700
 0.5550	16.5790
 0.5560	16.5770
 0.5570	16.5650
 0.5580	16.5380
 0.5590	16.5030
 0.5600	16.4650
 0.5610	16.4180
 0.5620	16.3660
 0.5630	16.3100
 0.5640	16.2480
 0.5650	16.1800
 0.5660	16.1090
 0.5670	16.0330
 0.5680	15.9500
 0.5690	15.8630
 0.5700	15.7710
 0.5710	15.6760
 0.5720	15.5780
 0.5730	15.4840
 0.5740	15.3960
 0.5750	15.3080
 0.5760	15.2240
 0.5770	15.1440
 0.5780	15.0680
 0.5790	15.0030
 0.5800	14.9390
 0.5810	14.8780
 0.5820	14.8240
 0.5830	14.7730
 0.5840	14.7260
 0.5850	14.6820
 0.5860	14.6480
 0.5870	14.6110
 0.5880	14.5730
 0.5890	14.5400
 0.5900	14.5150
 0.5910	14.4950
 0.5920	14.4800
 0.5930	14.4720
 0.5940	14.4610
 0.5950	14.4510
 0.5960	14.4470
 0.5970	14.4470
 0.5980	14.4450
 0.5990	14.4390
 0.6000	14.4270
 0.6010	14.4050
 0.6020	14.3770
 0.6030	14.3440
 0.6040	14.3080
 0.6050	14.2610
 0.6060	14.2090
 0.6070	14.1530
 0.6080	14.0870
 0.6090	14.0250
 0.6100	13.9710
 0.6110	13.9220
 0.6120	13.8500
 0.6130	13.7590
 0.6140	13.6630
 0.6150	13.5880
 0.6160	13.5160
 0.6170	13.4500
 0.6180	13.3920
 0.6190	13.3390
 0.6200	13.2940
 0.6210	13.2560
 0.6220	13.2220
 0.6230	13.1900
 0.6240	13.1640
 0.6250	13.1450
 0.6260	13.1360
 0.6270	13.1270
 0.6280	13.1170
 0.6290	13.1120
 0.6300	13.1140
 0.6310	13.1160
 0.6320	13.1110
 0.6330	13.0970
 0.6340	13.0850
 0.6350	13.0690
 0.6360	13.0450
 0.6370	13.0100
 0.6380	12.9690
 0.6390	12.9210
 0.6400	12.8650
 0.6410	12.8070
 0.6420	12.7420
 0.6430	12.6690
 0.6440	12.5950
 0.6450	12.5190
 0.6460	12.4430
 0.6470	12.3660
 0.6480	12.2860
 0.6490	12.2110
 0.6500	12.1420
 0.6510	12.0760
 0.6520	12.0100
 0.6530	11.9430
 0.6540	11.8750
 0.6550	11.7970
 0.6560	11.7170
 0.6570	11.6320
 0.6580	11.5390
 0.6590	11.4400
 0.6600	11.3380
 0.6610	11.2370
 0.6620	11.1390
 0.6630	11.0410
 0.6640	10.9500
 0.6650	10.8720
 0.6660	10.8000
 0.6670	10.7380
 0.6680	10.6870
 0.6690	10.6460
 0.6700	10.6130
 0.6710	10.5860
 0.6720	10.5690
 0.6730	10.5630
 0.6740	10.5590
 0.6750	10.5590
 0.6760	10.5630
 0.6770	10.5760
 0.6780	10.5940
 0.6790	10.6170
 0.6800	10.6510
 0.6810	10.6910
 0.6820	10.7450
 0.6830	10.8180
 0.6840	10.9120
 0.6850	11.0250
 0.6860	11.1700
 0.6870	11.3570
 0.6880	11.5830
 0.6890	11.8580
 0.6900	12.1880
 0.6910	12.5710
 0.6920	13.0160
 0.6930	13.5260
 0.6940	14.1000
 0.6950	14.7260
 0.6960	15.4100
 0.6970	16.1470
 0.6980	16.9260
 0.6990	17.7430
 0.7000	18.5910
 0.7010	19.4630
 0.7020	20.3540
 0.7030	21.2530
 0.7040	22.1560
 0.7050	23.0580
 0.7060	23.9510
 0.7070	24.8380
 0.7080	25.7140
 0.7090	26.5790
 0.7100	27.4340
 0.7110	28.2800
 0.7120	29.1160
 0.7130	29.9420
 0.7140	30.7490
 0.7150	31.5420
 0.7160	32.3250
 0.7170	33.0970
 0.7180	33.8450
 0.7190	34.5720
 0.7200	35.2850
 0.7210	35.9810
 0.7220	36.6590
 0.7230	37.3140
 0.7240	37.9420
 0.7250	38.5470
 0.7260	39.1330
 0.7270	39.6960
 0.7280	40.2300
 0.7290	40.7370
 0.7300	41.2170
 0.7310	41.6710
 0.7320	42.1050
 0.7330	42.5190
 0.7340	42.9150
 0.7350	43.2940
 0.7360	43.6480
 0.7370	43.9780
 0.7380	44.2920
 0.7390	44.5900
 0.7400	44.8680
 0.7410	45.1310
 0.7420	45.3840
 0.7430	45.6120
 0.7440	45.8320
 0.7450	46.0440
 0.7460	46.2350
 0.7470	46.4200
 0.7480	46.5960
 0.7490	46.7570
 0.7500	46.9070
 0.7510	47.0560
 0.7520	47.1950
 0.7530	47.3130
 0.7540	47.4280
 0.7550	47.5420
 0.7560	47.6510
 0.7570	47.7490
 0.7580	47.8460
 0.7590	47.9380
 0.7600	48.0230
 0.7610	48.1100
 0.7620	48.1920
 0.7630	48.2690
 0.7640	48.3450
 0.7650	48.4120
 0.7660	48.4870
 0.7670	48.5620
 0.7680	48.6150
 0.7690	48.6760
 0.7700	48.7420
 0.7710	48.8090
 0.7720	48.8660
 0.7730	48.9270
 0.7740	48.9840
 0.7750	49.0330
 0.7760	49.0940
 0.7770	49.1500
 0.7780	49.2020
 0.7790	49.2590
 0.7800	49.3150
 0.7810	49.3680
 0.7820	49.4180
 0.7830	49.4710
 0.7840	49.5330
 0.7850	49.5880
 0.7860	49.6300
 0.7870	49.6780
 0.7880	49.7310
 0.7890	49.7840
 0.7900	49.8280
 0.7910	49.8770
 0.7920	49.9280
 0.7930	49.9750
 0.7940	50.0140
 0.7950	50.0590
 0.7960	50.1020
 0.7970	50.1440
 0.7980	50.1920
 0.7990	50.2320
 0.8000	50.2650
 0.8010	50.2990
 0.8020	50.3390
 0.8030	50.3800
 0.8040	50.4180
 0.8050	50.4540
 0.8060	50.4850
 0.8070	50.5190
 0.8080	50.5540
 0.8090	50.5840
 0.8100	50.6070
 0.8110	50.6320
 0.8120	50.6610
 0.8130	50.6920
 0.8140	50.7120
 0.8150	50.7340
 0.8160	50.7650
 0.8170	50.7940
 0.8180	50.8200
 0.8190	50.8390
 0.8200	50.8510
 0.8210	50.8720
 0.8220	50.8950
 0.8230	50.9120
 0.8240	50.9230
 0.8250	50.9480
 0.8260	50.9650
 0.8270	50.9720
 0.8280	50.9940
 0.8290	51.0120
 0.8300	51.0230
 0.8310	51.0340
 0.8320	51.0420
 0.8330	51.0560
 0.8340	51.0740
 0.8350	51.0910
 0.8360	51.1100
 0.8370	51.1270
 0.8380	51.1440
 0.8390	51.1630
 0.8400	51.1760
 0.8410	51.1960
 0.8420	51.2220
 0.8430	51.2320
 0.8440	51.2490
 0.8450	51.2740
 0.8460	51.2980
 0.8470	51.3150
 0.8480	51.3400
 0.8490	51.3680
 0.8500	51.3870
 0.8510	51.3960
 0.8520	51.4180
 0.8530	51.4490
 0.8540	51.4700
 0.8550	51.4990
 0.8560	51.5250
 0.8570	51.5460
 0.8580	51.5680
 0.8590	51.5970
 0.8600	51.6250
 0.8610	51.6510
 0.8620	51.6860
 0.8630	51.7200
 0.8640	51.7530
 0.8650	51.7830
 0.8660	51.8040
 0.8670	51.8390
 0.8680	51.8780
 0.8690	51.9050
 0.8700	51.9320
 0.8710	51.9670
 0.8720	52.0060
 0.8730	52.0400
 0.8740	52.0840
 0.8750	52.1230
 0.8760	52.1550
 0.8770	52.1920
 0.8780	52.2370
 0.8790	52.2870
 0.8800	52.3330
 0.8810	52.3700
 0.8820	52.3980
 0.8830	52.4410
 0.8840	52.5040
 0.8850	52.5460
 0.8860	52.5880
 0.8870	52.6330
 0.8880	52.6750
 0.8890	52.7310
 0.8900	52.7730
 0.8910	52.8090
 0.8920	52.8560
 0.8930	52.8920
 0.8940	52.9360
 0.8950	52.9890
 0.8960	53.0380
 0.8970	53.0800
 0.8980	53.1220
 0.8990	53.1680
 0.9000	53.2220
 0.9010	53.2660
 0.9020	53.3010
 0.9030	53.3380
 0.9040	53.4010
 0.9050	53.4450
 0.9060	53.4820
 0.9070	53.5230
 0.9080	53.5590
 0.9090	53.6140
 0.9100	53.6590
 0.9110	53.6790
 0.9120	53.7260
 0.9130	53.7850
 0.9140	53.8340
 0.9150	53.8590
 0.9160	53.8960
 0.9170	53.9320
 0.9180	53.9700
 0.9190	54.0160
 0.9200	54.0570
 0.9210	54.0900
 0.9220	54.1180
 0.9230	54.1490
 0.9240	54.1790
 0.9250	54.2070
 0.9260	54.2260
 0.9270	54.2340
 0.9280	54.2640
 0.9290	54.2920
 0.9300	54.3060
 0.9310	54.3100
 0.9320	54.3050
 0.9330	54.3180
 0.9340	54.3410
 0.9350	54.3290
 0.9360	54.3260
 0.9370	54.3300
 0.9380	54.3340
 0.9390	54.3400
 0.9400	54.3420
 0.9410	54.3430
 0.9420	54.3360
 0.9430	54.3070
 0.9440	54.2830
 0.9450	54.2720
 0.9460	54.2620
 0.9470	54.2150
 0.9480	54.1770
 0.9490	54.1420
 0.9500	54.0940
 0.9510	54.0260
 0.9520	53.9810
 0.9530	53.9330
 0.9540	53.8600
 0.9550	53.8100
 0.9560	53.7640
 0.9570	53.7110
 0.9580	53.6490
 0.9590	53.5970
 0.9600	53.5630
 0.9610	53.5340
 0.9620	53.4970
 0.9630	53.4690
 0.9640	53.4550
 0.9650	53.4440
 0.9660	53.4250
 0.9670	53.4120
 0.9680	53.4150
 0.9690	53.4220
 0.9700	53.4140
 0.9710	53.4020
 0.9720	53.3940
 0.9730	53.3970
 0.9740	53.4100
 0.9750	53.4010
 0.9760	53.4090
 0.9770	53.4320
 0.9780	53.4490
 0.9790	53.4700
 0.9800	53.4770
 0.9810	53.4780
 0.9820	53.4890
 0.9830	53.5010
 0.9840	53.5260
 0.9850	53.5550
 0.9860	53.5760
 0.9870	53.6230
 0.9880	53.6330
 0.9890	53.6240
 0.9900	53.6470
 0.9910	53.7040
 0.9920	53.7850
 0.9930	53.8650
 0.9940	53.9460
 0.9950	54.0270
 0.9960	54.1070
 0.9970	54.1880
 0.9980	54.2680
 0.9990	54.3490
 1.0000	54.4290
 1.0010	54.5100
 1.0020	54.5910
 1.0030	54.6710
 1.0040	54.7520
 1.0050	54.8320
 1.0060	54.9130
 1.0070	54.9940
 1.0080	55.0740
 1.0090	55.1550
 1.0100	55.1550
 1.0110	55.1880
 1.0120	55.2220
 1.0130	55.2540
 1.0140	55.2860
 1.0150	55.3180
 1.0160	55.3500
 1.0170	55.3800
 1.0180	55.4130
 1.0190	55.4490
 1.0200	55.4820
 1.0210	55.5140
 1.0220	55.5460
 1.0230	55.5770
 1.0240	55.6050
 1.0250	55.6370
 1.0260	55.6690
 1.0270	55.7000
 1.0280	55.7320
 1.0290	55.7660
 1.0300	55.8030
 1.0310	55.8360
 1.0320	55.8680
 1.0330	55.8970
 1.0340	55.9280
 1.0350	55.9530
 1.0360	55.9740
 1.0370	55.9980
 1.0380	56.0210
 1.0390	56.0370
 1.0400	56.0590
 1.0410	56.0880
 1.0420	56.1110
 1.0430	56.1250
 1.0440	56.1490
 1.0450	56.1750
 1.0460	56.1990
 1.0470	56.2300
 1.0480	56.2540
 1.0490	56.2720
 1.0500	56.2910
 1.0510	56.3070
 1.0520	56.3280
 1.0530	56.3440
 1.0540	56.3570
 1.0550	56.3740
 1.0560	56.3910
 1.0570	56.4070
 1.0580	56.4280
 1.0590	56.4420
 1.0600	56.4500
 1.0610	56.4600
 1.0620	56.4690
 1.0630	56.4790
 1.0640	56.4910
 1.0650	56.5010
 1.0660	56.5090
 1.0670	56.5180
 1.0680	56.5250
 1.0690	56.5310
 1.0700	56.5370
 1.0710	56.5420
 1.0720	56.5480
 1.0730	56.5560
 1.0740	56.5610
 1.0750	56.5680
 1.0760	56.5730
 1.0770	56.5770
 1.0780	56.5790
 1.0790	56.5790
 1.0800	56.5800
 1.0810	56.5820
 1.0820	56.5810
 1.0830	56.5790
 1.0840	56.5770
 1.0850	56.5700
 1.0860	56.5650
 1.0870	56.5620
 1.0880	56.5630
 1.0890	56.5590
 1.0900	56.5540
 1.0910	56.5490
 1.0920	56.5430
 1.0930	56.5340
 1.0940	56.5250
 1.0950	56.5160
 1.0960	56.5050
 1.0970	56.4950
 1.0980	56.4900
 1.0990	56.4810
 1.1000	56.4710
 1.1010	56.4600
 1.1020	56.4460
 1.1030	56.4340
 1.1040	56.4220
 1.1050	56.4090
 1.1060	56.3960
 1.1070	56.3850
 1.1080	56.3720
 1.1090	56.3600
 1.1100	56.3450
 1.1110	56.3300
 1.1120	56.3110
 1.1130	56.2880
 1.1140	56.2670
 1.1150	56.2450
 1.1160	56.2210
 1.1170	56.1990
 1.1180	56.1720
 1.1190	56.1420
 1.1200	56.1090
 1.1210	56.0730
 1.1220	56.0330
 1.1230	55.9860
 1.1240	55.9340
 1.1250	55.8770
 1.1260	55.8150
 1.1270	55.7440
 1.1280	55.6680
 1.1290	55.5820
 1.1300	55.4910
 1.1310	55.3860
 1.1320	55.2740
 1.1330	55.1510
 1.1340	55.0170
 1.1350	54.8740
 1.1360	54.7230
 1.1370	54.5630
 1.1380	54.3940
 1.1390	54.2170
 1.1400	54.0350
 1.1410	53.8530
 1.1420	53.6660
 1.1430	53.4760
 1.1440	53.2900
 1.1450	53.0990
 1.1460	52.9180
 1.1470	52.7380
 1.1480	52.5690
 1.1490	52.4050
 1.1500	52.2540
 1.1510	52.1110
 1.1520	51.9780
 1.1530	51.8550
 1.1540	51.7420
 1.1550	51.6390
 1.1560	51.5420
 1.1570	51.4540
 1.1580	51.3770
 1.1590	51.3060
 1.1600	51.2450
 1.1610	51.1910
 1.1620	51.1410
 1.1630	51.0930
 1.1640	51.0490
 1.1650	51.0080
 1.1660	50.9690
 1.1670	50.9350
 1.1680	50.9050
 1.1690	50.8740
 1.1700	50.8490
 1.1710	50.8200
 1.1720	50.7890
 1.1730	50.7600
 1.1740	50.7320
 1.1750	50.7010
 1.1760	50.6690
 1.1770	50.6360
 1.1780	50.6010
 1.1790	50.5660
 1.1800	50.5320
 1.1810	50.4990
 1.1820	50.4660
 1.1830	50.4340
 1.1840	50.4020
 1.1850	50.3750
 1.1860	50.3510
 1.1870	50.3310
 1.1880	50.3160
 1.1890	50.3070
 1.1900	50.2990
 1.1910	50.2940
 1.1920	50.2930
 1.1930	50.2930
 1.1940	50.2990
 1.1950	50.3090
 1.1960	50.3240
 1.1970	50.3400
 1.1980	50.3580
 1.1990	50.3780
 1.2000	50.3970
 1.2010	50.4190
 1.2020	50.4450
 1.2030	50.4730
 1.2040	50.5040
 1.2050	50.5370
 1.2060	50.5700
 1.2070	50.6070
 1.2080	50.6420
 1.2090	50.6780
 1.2100	50.7190
 1.2110	50.7610
 1.2120	50.8060
 1.2130	50.8520
 1.2140	50.9010
 1.2150	50.9500
 1.2160	51.0000
 1.2170	51.0480
 1.2180	51.0950
 1.2190	51.1460
 1.2200	51.1930
 1.2210	51.2420
 1.2220	51.2950
 1.2230	51.3470
 1.2240	51.3990
 1.2250	51.4500
 1.2260	51.4990
 1.2270	51.5470
 1.2280	51.5930
 1.2290	51.6380
 1.2300	51.6800
 1.2310	51.7200
 1.2320	51.7600
 1.2330	51.7960
 1.2340	51.8330
 1.2350	51.8710
 1.2360	51.9060
 1.2370	51.9400
 1.2380	51.9750
 1.2390	52.0060
 1.2400	52.0380
 1.2410	52.0680
 1.2420	52.0950
 1.2430	52.1250
 1.2440	52.1530
 1.2450	52.1790
 1.2460	52.2080
 1.2470	52.2350
 1.2480	52.2610
 1.2490	52.2870
 1.2500	52.3100
 1.2510	52.3320
 1.2520	52.3520
 1.2530	52.3710
 1.2540	52.3880
 1.2550	52.4020
 1.2560	52.4160
 1.2570	52.4300
 1.2580	52.4410
 1.2590	52.4510
 1.2600	52.4610
 1.2610	52.4690
 1.2620	52.4750
 1.2630	52.4790
 1.2640	52.4840
 1.2650	52.4870
 1.2660	52.4860
 1.2670	52.4850
 1.2680	52.4840
 1.2690	52.4820
 1.2700	52.4790
 1.2710	52.4740
 1.2720	52.4660
 1.2730	52.4580
 1.2740	52.4470
 1.2750	52.4360
 1.2760	52.4260
 1.2770	52.4130
 1.2780	52.3990
 1.2790	52.3860
 1.2800	52.3680
 1.2810	52.3490
 1.2820	52.3270
 1.2830	52.3040
 1.2840	52.2780
 1.2850	52.2520
 1.2860	52.2240
 1.2870	52.1920
 1.2880	52.1550
 1.2890	52.1160
 1.2900	52.0760
 1.2910	52.0310
 1.2920	51.9860
 1.2930	51.9390
 1.2940	51.8890
 1.2950	51.8370
 1.2960	51.7810
 1.2970	51.7220
 1.2980	51.6590
 1.2990	51.5890
 1.3000	51.5150
 1.3010	51.4400
 1.3020	51.3620
 1.3030	51.2830
 1.3040	51.2010
 1.3050	51.1150
 1.3060	51.0240
 1.3070	50.9300
 1.3080	50.8330
 1.3090	50.7360
 1.3100	50.6340
 1.3110	50.5270
 1.3120	50.4190
 1.3130	50.3040
 1.3140	50.1850
 1.3150	50.0620
 1.3160	49.9360
 1.3170	49.8060
 1.3180	49.6730
 1.3190	49.5370
 1.3200	49.3950
 1.3210	49.2500
 1.3220	49.1030
 1.3230	48.9530
 1.3240	48.8000
 1.3250	48.6470
 1.3260	48.4870
 1.3270	48.3250
 1.3280	48.1640
 1.3290	47.9950
 1.3300	47.8260
 1.3310	47.6570
 1.3320	47.4850
 1.3330	47.3140
 1.3340	47.1430
 1.3350	46.9700
 1.3360	46.7960
 1.3370	46.6220
 1.3380	46.4490
 1.3390	46.2760
 1.3400	46.1020
 1.3410	45.9300
 1.3420	45.7580
 1.3430	45.5870
 1.3440	45.4180
 1.3450	45.2500
 1.3460	45.0830
 1.3470	44.9180
 1.3480	44.7540
 1.3490	44.5920
 1.3500	44.4300
 1.3510	44.2680
 1.3520	44.1070
 1.3530	43.9450
 1.3540	43.7820
 1.3550	43.6190
 1.3560	43.4550
 1.3570	43.2900
 1.3580	43.1250
 1.3590	42.9560
 1.3600	42.7850
 1.3610	42.6090
 1.3620	42.4290
 1.3630	42.2460
 1.3640	42.0540
 1.3650	41.8500
 1.3660	41.6390
 1.3670	41.4170
 1.3680	41.1850
 1.3690	40.9420
 1.3700	40.6810
 1.3710	40.4050
 1.3720	40.1090
 1.3730	39.7920
 1.3740	39.4610
 1.3750	39.1070
 1.3760	38.7300
 1.3770	38.3300
 1.3780	37.9030
 1.3790	37.4540
 1.3800	36.9810
 1.3810	36.4800
 1.3820	35.9630
 1.3830	35.4250
 1.3840	34.8700
 1.3850	34.2970
 1.3860	33.7110
 1.3870	33.1030
 1.3880	32.4960
 1.3890	31.8790
 1.3900	31.2540
 1.3910	30.6350
 1.3920	30.0150
 1.3930	29.3950
 1.3940	28.7850
 1.3950	28.1770
 1.3960	27.5820
 1.3970	27.0020
 1.3980	26.4370
 1.3990	25.8950
 1.4000	25.3720
 1.4010	24.8670
 1.4020	24.3870
 1.4030	23.9250
 1.4040	23.4880
 1.4050	23.0750
 1.4060	22.6830
 1.4070	22.3190
 1.4080	21.9770
 1.4090	21.6540
 1.4100	21.3550
 1.4110	21.0770
 1.4120	20.8180
 1.4130	20.5800
 1.4140	20.3600
 1.4150	20.1590
 1.4160	19.9740
 1.4170	19.8030
 1.4180	19.6470
 1.4190	19.5030
 1.4200	19.3710
 1.4210	19.2500
 1.4220	19.1390
 1.4230	19.0390
 1.4240	18.9490
 1.4250	18.8670
 1.4260	18.7940
 1.4270	18.7270
 1.4280	18.6670
 1.4290	18.6130
 1.4300	18.5660
 1.4310	18.5250
 1.4320	18.4910
 1.4330	18.4600
 1.4340	18.4350
 1.4350	18.4140
 1.4360	18.3980
 1.4370	18.3840
 1.4380	18.3750
 1.4390	18.3680
 1.4400	18.3640
 1.4410	18.3640
 1.4420	18.3670
 1.4430	18.3720
 1.4440	18.3790
 1.4450	18.3860
 1.4460	18.3960
 1.4470	18.4080
 1.4480	18.4220
 1.4490	18.4380
 1.4500	18.4550
 1.4510	18.4720
 1.4520	18.4920
 1.4530	18.5130
 1.4540	18.5360
 1.4550	18.5620
 1.4560	18.5900
 1.4570	18.6200
 1.4580	18.6530
 1.4590	18.6890
 1.4600	18.7280
 1.4610	18.7730
 1.4620	18.8210
 1.4630	18.8760
 1.4640	18.9360
 1.4650	19.0010
 1.4660	19.0700
 1.4670	19.1440
 1.4680	19.2220
 1.4690	19.3040
 1.4700	19.3900
 1.4710	19.4810
 1.4720	19.5750
 1.4730	19.6740
 1.4740	19.7770
 1.4750	19.8830
 1.4760	19.9920
 1.4770	20.1030
 1.4780	20.2160
 1.4790	20.3330
 1.4800	20.4510
 1.4810	20.5710
 1.4820	20.6920
 1.4830	20.8140
 1.4840	20.9390
 1.4850	21.0650
 1.4860	21.1920
 1.4870	21.3210
 1.4880	21.4480
 1.4890	21.5760
 1.4900	21.7060
 1.4910	21.8350
 1.4920	21.9670
 1.4930	22.1010
 1.4940	22.2350
 1.4950	22.3700
 1.4960	22.5050
 1.4970	22.6360
 1.4980	22.7710
 1.4990	22.9060
 1.5000	23.0410
 1.5010	23.1800
 1.5020	23.3170
 1.5030	23.4540
 1.5040	23.5900
 1.5050	23.7230
 1.5060	23.8580
 1.5070	23.9920
 1.5080	24.1270
 1.5090	24.2640
 1.5100	24.4010
 1.5110	24.5370
 1.5120	24.6730
 1.5130	24.8070
 1.5140	24.9390
 1.5150	25.0720
 1.5160	25.2020
 1.5170	25.3330
 1.5180	25.4640
 1.5190	25.5930
 1.5200	25.7230
 1.5210	25.8520
 1.5220	25.9800
 1.5230	26.1080
 1.5240	26.2350
 1.5250	26.3630
 1.5260	26.4890
 1.5270	26.6130
 1.5280	26.7390
 1.5290	26.8620
 1.5300	26.9860
 1.5310	27.1070
 1.5320	27.2270
 1.5330	27.3470
 1.5340	27.4650
 1.5350	27.5830
 1.5360	27.7020
 1.5370	27.8170
 1.5380	27.9320
 1.5390	28.0460
 1.5400	28.1570
 1.5410	28.2700
 1.5420	28.3820
 1.5430	28.4930
 1.5440	28.6030
 1.5450	28.7110
 1.5460	28.8180
 1.5470	28.9260
 1.5480	29.0320
 1.5490	29.1370
 1.5500	29.2420
 1.5510	29.3450
 1.5520	29.4490
 1.5530	29.5500
 1.5540	29.6520
 1.5550	29.7540
 1.5560	29.8530
 1.5570	29.9520
 1.5580	30.0500
 1.5590	30.1470
 1.5600	30.2430
 1.5610	30.3370
 1.5620	30.4300
 1.5630	30.5220
 1.5640	30.6130
 1.5650	30.7050
 1.5660	30.7950
 1.5670	30.8850
 1.5680	30.9730
 1.5690	31.0610
 1.5700	31.1460
 1.5710	31.2320
 1.5720	31.3160
 1.5730	31.3990
 1.5740	31.4830
 1.5750	31.5660
 1.5760	31.6500
 1.5770	31.7330
 1.5780	31.8140
 1.5790	31.8960
 1.5800	31.9760
 1.5810	32.0540
 1.5820	32.1340
 1.5830	32.2130
 1.5840	32.2910
 1.5850	32.3690
 1.5860	32.4470
 1.5870	32.5220
 1.5880	32.5980
 1.5890	32.6740
 1.5900	32.7480
 1.5910	32.8210
 1.5920	32.8940
 1.5930	32.9640
 1.5940	33.0350
 1.5950	33.1060
 1.5960	33.1770
 1.5970	33.2480
 1.5980	33.3190
 1.5990	33.3890
 1.6000	33.4580
 1.6010	33.5260
 1.6020	33.5910
 1.6030	33.6560
 1.6040	33.7190
 1.6050	33.7800
 1.6060	33.8420
 1.6070	33.9030
 1.6080	33.9620
 1.6090	34.0210
 1.6100	34.0790
 1.6110	34.1340
 1.6120	34.1900
 1.6130	34.2460
 1.6140	34.3010
 1.6150	34.3540
 1.6160	34.4070
 1.6170	34.4580
 1.6180	34.5060
 1.6190	34.5550
 1.6200	34.6020
 1.6210	34.6470
 1.6220	34.6920
 1.6230	34.7380
 1.6240	34.7810
 1.6250	34.8210
 1.6260	34.8600
 1.6270	34.8980
 1.6280	34.9350
 1.6290	34.9710
 1.6300	35.0050
 1.6310	35.0400
 1.6320	35.0740
 1.6330	35.1070
 1.6340	35.1390
 1.6350	35.1700
 1.6360	35.2000
 1.6370	35.2300
 1.6380	35.2600
 1.6390	35.2880
 1.6400	35.3160
 1.6410	35.3400
 1.6420	35.3620
 1.6430	35.3830
 1.6440	35.4020
 1.6450	35.4200
 1.6460	35.4380
 1.6470	35.4520
 1.6480	35.4650
 1.6490	35.4770
 1.6500	35.4840
 1.6510	35.4880
 1.6520	35.4890
 1.6530	35.4890
 1.6540	35.4880
 1.6550	35.4820
 1.6560	35.4740
 1.6570	35.4630
 1.6580	35.4500
 1.6590	35.4390
 1.6600	35.4260
 1.6610	35.4110
 1.6620	35.3940
 1.6630	35.3740
 1.6640	35.3520
 1.6650	35.3290
 1.6660	35.3030
 1.6670	35.2760
 1.6680	35.2450
 1.6690	35.2090
 1.6700	35.1690
 1.6710	35.1250
 1.6720	35.0780
 1.6730	35.0270
 1.6740	34.9750
 1.6750	34.9180
 1.6760	34.8560
 1.6770	34.7900
 1.6780	34.7170
 1.6790	34.6390
 1.6800	34.5570
 1.6810	34.4730
 1.6820	34.3890
 1.6830	34.3030
 1.6840	34.2160
 1.6850	34.1260
 1.6860	34.0340
 1.6870	33.9430
 1.6880	33.8510
 1.6890	33.7580
 1.6900	33.6660
 1.6910	33.5730
 1.6920	33.4820
 1.6930	33.3910
 1.6940	33.3050
 1.6950	33.2180
 1.6960	33.1370
 1.6970	33.0610
 1.6980	32.9850
 1.6990	32.9110
 1.7000	32.8400
 1.7010	32.7730
 1.7020	32.7060
 1.7030	32.6430
 1.7040	32.5800
 1.7050	32.5180
 1.7060	32.4540
 1.7070	32.3900
 1.7080	32.3270
 1.7090	32.2610
 1.7100	32.1980
 1.7110	32.1370
 1.7120	32.0770
 1.7130	32.0170
 1.7140	31.9590
 1.7150	31.9020
 1.7160	31.8480
 1.7170	31.7960
 1.7180	31.7470
 1.7190	31.7020
 1.7200	31.6560
 1.7210	31.6120
 1.7220	31.5690
 1.7230	31.5270
 1.7240	31.4860
 1.7250	31.4440
 1.7260	31.4050
 1.7270	31.3680
 1.7280	31.3320
 1.7290	31.3000
 1.7300	31.2700
 1.7310	31.2410
 1.7320	31.2150
 1.7330	31.1880
 1.7340	31.1630
 1.7350	31.1350
 1.7360	31.1080
 1.7370	31.0780
 1.7380	31.0480
 1.7390	31.0120
 1.7400	30.9750
 1.7410	30.9320
 1.7420	30.8840
 1.7430	30.8340
 1.7440	30.7790
 1.7450	30.7240
 1.7460	30.6640
 1.7470	30.6060
 1.7480	30.5470
 1.7490	30.4860
 1.7500	30.4230
 1.7510	30.3640
 1.7520	30.3050
 1.7530	30.2500
 1.7540	30.1980
 1.7550	30.1470
 1.7560	30.0970
 1.7570	30.0460
 1.7580	29.9970
 1.7590	29.9520
 1.7600	29.9070
 1.7610	29.8650
 1.7620	29.8250
 1.7630	29.7840
 1.7640	29.7470
 1.7650	29.7140
 1.7660	29.6830
 1.7670	29.6550
 1.7680	29.6280
 1.7690	29.6030
 1.7700	29.5760
 1.7710	29.5490
 1.7720	29.5230
 1.7730	29.4970
 1.7740	29.4720
 1.7750	29.4480
 1.7760	29.4250
 1.7770	29.4020
 1.7780	29.3810
 1.7790	29.3610
 1.7800	29.3430
 1.7810	29.3250
 1.7820	29.3120
 1.7830	29.3030
 1.7840	29.2940
 1.7850	29.2880
 1.7860	29.2810
 1.7870	29.2740
 1.7880	29.2710
 1.7890	29.2700
 1.7900	29.2730
 1.7910	29.2740
 1.7920	29.2780
 1.7930	29.2800
 1.7940	29.2820
 1.7950	29.2850
 1.7960	29.2880
 1.7970	29.2940
 1.7980	29.3020
 1.7990	29.3100
 1.8000	29.3190
 1.8010	29.3290
 1.8020	29.3400
 1.8030	29.3490
 1.8040	29.3590
 1.8050	29.3670
 1.8060	29.3740
 1.8070	29.3810
 1.8080	29.3880
 1.8090	29.3950
 1.8100	29.4010
 1.8110	29.4060
 1.8120	29.4130
 1.8130	29.4190
 1.8140	29.4240
 1.8150	29.4320
 1.8160	29.4350
 1.8170	29.4370
 1.8180	29.4390
 1.8190	29.4400
 1.8200	29.4380
 1.8210	29.4330
 1.8220	29.4290
 1.8230	29.4200
 1.8240	29.4130
 1.8250	29.4100
 1.8260	29.4000
 1.8270	29.3500
 1.8280	29.2990
 1.8290	29.2480
 1.8300	29.1970
 1.8310	29.1460
 1.8320	29.0960
 1.8330	29.0450
 1.8340	28.9940
 1.8350	28.9940
 1.8360	28.9500
 1.8370	28.8990
 1.8380	28.8460
 1.8390	28.7850
 1.8400	28.7190
 1.8410	28.6440
 1.8420	28.5630
 1.8430	28.4730
 1.8440	28.3720
 1.8450	28.2650
 1.8460	28.1530
 1.8470	28.0370
 1.8480	27.9130
 1.8490	27.7760
 1.8500	27.6270
 1.8510	27.4660
 1.8520	27.2910
 1.8530	27.1010
 1.8540	26.9030
 1.8550	26.6960
 1.8560	26.4710
 1.8570	26.2330
 1.8580	25.9810
 1.8590	25.7150
 1.8600	25.4290
 1.8610	25.1310
 1.8620	24.8220
 1.8630	24.4980
 1.8640	24.1560
 1.8650	23.7970
 1.8660	23.4190
 1.8670	23.0210
 1.8680	22.6070
 1.8690	22.1770
 1.8700	21.7340
 1.8710	21.2760
 1.8720	20.8120
 1.8730	20.3370
 1.8740	19.8540
 1.8750	19.3680
 1.8760	18.8720
 1.8770	18.3750
 1.8780	17.8800
 1.8790	17.3840
 1.8800	16.8980
 1.8810	16.4190
 1.8820	15.9420
 1.8830	15.4700
 1.8840	15.0110
 1.8850	14.5570
 1.8860	14.1160
 1.8870	13.6890
 1.8880	13.2750
 1.8890	12.8810
 1.8900	12.5040
 1.8910	12.1470
 1.8920	11.8080
 1.8930	11.4910
 1.8940	11.1900
 1.8950	10.9120
 1.8960	10.6540
 1.8970	10.4140
 1.8980	10.1980
 1.8990	 9.9990
 1.9000	 9.8140
 1.9010	 9.6480
 1.9020	 9.4940
 1.9030	 9.3550
 1.9040	 9.2310
 1.9050	 9.1210
 1.9060	 9.0220
 1.9070	 8.9330
 1.9080	 8.8510
 1.9090	 8.7790
 1.9100	 8.7160
 1.9110	 8.6590
 1.9120	 8.6120
 1.9130	 8.5680
 1.9140	 8.5300
 1.9150	 8.4950
 1.9160	 8.4620
 1.9170	 8.4340
 1.9180	 8.4070
 1.9190	 8.3840
 1.9200	 8.3670
 1.9210	 8.3560
 1.9220	 8.3460
 1.9230	 8.3410
 1.9240	 8.3370
 1.9250	 8.3340
 1.9260	 8.3310
 1.9270	 8.3310
 1.9280	 8.3340
 1.9290	 8.3390
 1.9300	 8.3450
 1.9310	 8.3540
 1.9320	 8.3670
 1.9330	 8.3790
 1.9340	 8.3910
 1.9350	 8.4060
 1.9360	 8.4240
 1.9370	 8.4410
 1.9380	 8.4610
 1.9390	 8.4810
 1.9400	 8.5020
 1.9410	 8.5250
 1.9420	 8.5500
 1.9430	 8.5780
 1.9440	 8.6060
 1.9450	 8.6360
 1.9460	 8.6670
 1.9470	 8.7000
 1.9480	 8.7330
 1.9490	 8.7680
 1.9500	 8.8010
 1.9510	 8.8340
 1.9520	 8.8690
 1.9530	 8.9010
 1.9540	 8.9360
 1.9550	 8.9720
 1.9560	 9.0080
 1.9570	 9.0460
 1.9580	 9.0880
 1.9590	 9.1300
 1.9600	 9.1730
 1.9610	 9.2180
 1.9620	 9.2640
 1.9630	 9.3100
 1.9640	 9.3570
 1.9650	 9.4020
 1.9660	 9.4490
 1.9670	 9.4970
 1.9680	 9.5440
 1.9690	 9.5920
 1.9700	 9.6400
 1.9710	 9.6870
 1.9720	 9.7380
 1.9730	 9.7900
 1.9740	 9.8450
 1.9750	 9.8990
 1.9760	 9.9540
 1.9770	10.0080
 1.9780	10.0630
 1.9790	10.1180
 1.9800	10.1760
 1.9810	10.2330
 1.9820	10.2900
 1.9830	10.3480
 1.9840	10.4060
 1.9850	10.4670
 1.9860	10.5300
 1.9870	10.5930
 1.9880	10.6560
 1.9890	10.7180
 1.9900	10.7790
 1.9910	10.8400
 1.9920	10.9020
 1.9930	10.9640
 1.9940	11.0270
 1.9950	11.0920
 1.9960	11.1560
 1.9970	11.2200
 1.9980	11.2840
 1.9990	11.3490
 2.0000	11.4130
 2.0010	11.4760
 2.0020	11.5420
 2.0030	11.6060
 2.0040	11.6700
 2.0050	11.7340
 2.0060	11.7980
 2.0070	11.8630
 2.0080	11.9290
 2.0090	11.9920
 2.0100	12.0540
 2.0110	12.1160
 2.0120	12.1760
 2.0130	12.2360
 2.0140	12.2980
 2.0150	12.3610
 2.0160	12.4250
 2.0170	12.4890
 2.0180	12.5500
 2.0190	12.6130
 2.0200	12.6720
 2.0210	12.7270
 2.0220	12.7840
 2.0230	12.8390
 2.0240	12.8950
 2.0250	12.9520
 2.0260	13.0080
 2.0270	13.0630
 2.0280	13.1200
 2.0290	13.1740
 2.0300	13.2280
 2.0310	13.2790
 2.0320	13.3270
 2.0330	13.3770
 2.0340	13.4260
 2.0350	13.4750
 2.0360	13.5230
 2.0370	13.5700
 2.0380	13.6140
 2.0390	13.6590
 2.0400	13.7060
 2.0410	13.7510
 2.0420	13.7960
 2.0430	13.8400
 2.0440	13.8830
 2.0450	13.9240
 2.0460	13.9670
 2.0470	14.0110
 2.0480	14.0530
 2.0490	14.0930
 2.0500	14.1340
 2.0510	14.1710
 2.0520	14.2130
 2.0530	14.2590
 2.0540	14.3030
 2.0550	14.3460
 2.0560	14.3880
 2.0570	14.4320
 2.0580	14.4740
 2.0590	14.5190
 2.0600	14.5660
 2.0610	14.6120
 2.0620	14.6570
 2.0630	14.7030
 2.0640	14.7480
 2.0650	14.7950
 2.0660	14.8440
 2.0670	14.8910
 2.0680	14.9380
 2.0690	14.9850
 2.0700	15.0300
 2.0710	15.0760
 2.0720	15.1230
 2.0730	15.1700
 2.0740	15.2170
 2.0750	15.2660
 2.0760	15.3130
 2.0770	15.3620
 2.0780	15.4090
 2.0790	15.4560
 2.0800	15.5020
 2.0810	15.5460
 2.0820	15.5910
 2.0830	15.6380
 2.0840	15.6840
 2.0850	15.7310
 2.0860	15.7760
 2.0870	15.8190
 2.0880	15.8610
 2.0890	15.9050
 2.0900	15.9490
 2.0910	15.9940
 2.0920	16.0420
 2.0930	16.0860
 2.0940	16.1270
 2.0950	16.1700
 2.0960	16.2150
 2.0970	16.2580
 2.0980	16.3040
 2.0990	16.3480
 2.1000	16.3860
 2.1010	16.4270
 2.1020	16.4700
 2.1030	16.5120
 2.1040	16.5550
 2.1050	16.5980
 2.1060	16.6380
 2.1070	16.6750
 2.1080	16.7160
 2.1090	16.7560
 2.1100	16.7980
 2.1110	16.8440
 2.1120	16.8860
 2.1130	16.9240
 2.1140	16.9650
 2.1150	17.0070
 2.1160	17.0470
 2.1170	17.0860
 2.1180	17.1260
 2.1190	17.1650
 2.1200	17.2010
 2.1210	17.2370
 2.1220	17.2730
 2.1230	17.3070
 2.1240	17.3380
 2.1250	17.3710
 2.1260	17.4070
 2.1270	17.4400
 2.1280	17.4720
 2.1290	17.5030
 2.1300	17.5340
 2.1310	17.5640
 2.1320	17.5960
 2.1330	17.6250
 2.1340	17.6540
 2.1350	17.6820
 2.1360	17.7120
 2.1370	17.7380
 2.1380	17.7610
 2.1390	17.7850
 2.1400	17.8060
 2.1410	17.8270
 2.1420	17.8520
 2.1430	17.8810
 2.1440	17.9070
 2.1450	17.9360
 2.1460	17.9610
 2.1470	17.9830
 2.1480	18.0080
 2.1490	18.0310
 2.1500	18.0540
 2.1510	18.0780
 2.1520	18.1010
 2.1530	18.1230
 2.1540	18.1440
 2.1550	18.1650
 2.1560	18.1850
 2.1570	18.2030
 2.1580	18.2210
 2.1590	18.2380
 2.1600	18.2590
 2.1610	18.2820
 2.1620	18.3050
 2.1630	18.3270
 2.1640	18.3520
 2.1650	18.3720
 2.1660	18.3880
 2.1670	18.4070
 2.1680	18.4230
 2.1690	18.4420
 2.1700	18.4620
 2.1710	18.4810
 2.1720	18.5020
 2.1730	18.5230
 2.1740	18.5420
 2.1750	18.5630
 2.1760	18.5840
 2.1770	18.6060
 2.1780	18.6310
 2.1790	18.6540
 2.1800	18.6780
 2.1810	18.7000
 2.1820	18.7200
 2.1830	18.7390
 2.1840	18.7600
 2.1850	18.7810
 2.1860	18.8000
 2.1870	18.8180
 2.1880	18.8370
 2.1890	18.8530
 2.1900	18.8730
 2.1910	18.8990
 2.1920	18.9220
 2.1930	18.9470
 2.1940	18.9680
 2.1950	18.9870
 2.1960	19.0040
 2.1970	19.0160
 2.1980	19.0310
 2.1990	19.0450
 2.2000	19.0590
 2.2010	19.0740
 2.2020	19.0870
 2.2030	19.0970
 2.2040	19.1090
 2.2050	19.1200
 2.2060	19.1320
 2.2070	19.1420
 2.2080	19.1510
 2.2090	19.1580
 2.2100	19.1600
 2.2110	19.1650
 2.2120	19.1710
 2.2130	19.1720
 2.2140	19.1720
 2.2150	19.1700
 2.2160	19.1630
 2.2170	19.1590
 2.2180	19.1570
 2.2190	19.1510
 2.2200	19.1430
 2.2210	19.1320
 2.2220	19.1160
 2.2230	19.0990
 2.2240	19.0760
 2.2250	19.0570
 2.2260	19.0420
 2.2270	19.0210
 2.2280	19.0020
 2.2290	18.9760
 2.2300	18.9430
 2.2310	18.9060
 2.2320	18.8660
 2.2330	18.8250
 2.2340	18.7800
 2.2350	18.7330
 2.2360	18.6850
 2.2370	18.6330
 2.2380	18.5820
 2.2390	18.5310
 2.2400	18.4770
 2.2410	18.4220
 2.2420	18.3620
 2.2430	18.2960
 2.2440	18.2300
 2.2450	18.1590
 2.2460	18.0910
 2.2470	18.0250
 2.2480	17.9530
 2.2490	17.8810
 2.2500	17.8020
 2.2510	17.7160
 2.2520	17.6310
 2.2530	17.5380
 2.2540	17.4530
 2.2550	17.3760
 2.2560	17.2940
 2.2570	17.2150
 2.2580	17.1330
 2.2590	17.0450
 2.2600	16.9610
 2.2610	16.8750
 2.2620	16.7950
 2.2630	16.7190
 2.2640	16.6400
 2.2650	16.5640
 2.2660	16.4880
 2.2670	16.4090
 2.2680	16.3240
 2.2690	16.2500
 2.2700	16.1780
 2.2710	16.1090
 2.2720	16.0470
 2.2730	15.9830
 2.2740	15.9200
 2.2750	15.8590
 2.2760	15.8000
 2.2770	15.7400
 2.2780	15.6810
 2.2790	15.6220
 2.2800	15.5620
 2.2810	15.5030
 2.2820	15.4470
 2.2830	15.3860
 2.2840	15.3190
 2.2850	15.2560
 2.2860	15.1890
 2.2870	15.1250
 2.2880	15.0650
 2.2890	15.0010
 2.2900	14.9340
 2.2910	14.8660
 2.2920	14.7950
 2.2930	14.7250
 2.2940	14.6550
 2.2950	14.5860
 2.2960	14.5170
 2.2970	14.4520
 2.2980	14.3900
 2.2990	14.3300
 2.3000	14.2660
 2.3010	14.2110
 2.3020	14.1600
 2.3030	14.1090
 2.3040	14.0750
 2.3050	14.0440
 2.3060	14.0130
 2.3070	13.9910
 2.3080	13.9680
 2.3090	13.9500
 2.3100	13.9350
 2.3110	13.9250
 2.3120	13.9230
 2.3130	13.9270
 2.3140	13.9340
 2.3150	13.9500
 2.3160	13.9600
 2.3170	13.9720
 2.3180	13.9750
 2.3190	13.9750
 2.3200	13.9710
 2.3210	13.9610
 2.3220	13.9500
 2.3230	13.9370
 2.3240	13.9200
 2.3250	13.8990
 2.3260	13.8750
 2.3270	13.8490
 2.3280	13.8190
 2.3290	13.7830
 2.3300	13.7500
 2.3310	13.7130
 2.3320	13.6800
 2.3330	13.6540
 2.3340	13.6210
 2.3350	13.5870
 2.3360	13.5490
 2.3370	13.5080
 2.3380	13.4640
 2.3390	13.4150
 2.3400	13.3680
 2.3410	13.3160
 2.3420	13.2720
 2.3430	13.2350
 2.3440	13.1980
 2.3450	13.1630
 2.3460	13.1310
 2.3470	13.1000
 2.3480	13.0670
 2.3490	13.0380
 2.3500	13.0100
 2.3510	12.9800
 2.3520	12.9520
 2.3530	12.9240
 2.3540	12.8990
 2.3550	12.8700
 2.3560	12.8430
 2.3570	12.8230
 2.3580	12.7990
 2.3590	12.7820
 2.3600	12.7650
 2.3610	12.7480
 2.3620	12.7330
 2.3630	12.7120
 2.3640	12.6880
 2.3650	12.6520
 2.3660	12.6110
 2.3670	12.5790
 2.3680	12.5550
 2.3690	12.5420
 2.3700	12.5290
 2.3710	12.5080
 2.3720	12.4820
 2.3730	12.4510
 2.3740	12.4220
 2.3750	12.3950
 2.3760	12.3630
 2.3770	12.3280
 2.3780	12.2920
 2.3790	12.2680
 2.3800	12.2360
 2.3810	12.2020
 2.3820	12.1760
 2.3830	12.1440
 2.3840	12.1090
 2.3850	12.0690
 2.3860	12.0280
 2.3870	11.9880
 2.3880	11.9510
 2.3890	11.9340
 2.3900	11.9150
 2.3910	11.8770
 2.3920	11.8430
 2.3930	11.8000
 2.3940	11.7380
 2.3950	11.6880
 2.3960	11.6390
 2.3970	11.6020
 2.3980	11.5750
 2.3990	11.5590
 2.4000	11.5460
 2.4010	11.5090
 2.4020	11.4780
 2.4030	11.4410
 2.4040	11.4070
 2.4050	11.3970
 2.4060	11.3770
 2.4070	11.3430
 2.4080	11.2930
 2.4090	11.2400
 2.4100	11.1910
 2.4110	11.1560
 2.4120	11.1400
 2.4130	11.1160
 2.4140	11.0770
 2.4150	11.0360
 2.4160	10.9940
 2.4170	10.9520
 2.4180	10.9150
 2.4190	10.8640
 2.4200	10.8190
 2.4210	10.7890
 2.4220	10.7550
 2.4230	10.7280
 2.4240	10.6990
 2.4250	10.6580
 2.4260	10.6180
 2.4270	10.5780
 2.4280	10.5380
 2.4290	10.4990
 2.4300	10.4550
 2.4310	10.4240
 2.4320	10.3850
 2.4330	10.3340
 2.4340	10.3010
 2.4350	10.2710
 2.4360	10.2450
 2.4370	10.2110
 2.4380	10.1570
 2.4390	10.1080
 2.4400	10.0540
 2.4410	10.0040
 2.4420	 9.9910
 2.4430	 9.9510
 2.4440	 9.9000
 2.4450	 9.8760
 2.4460	 9.8110
 2.4470	 9.7660
 2.4480	 9.7460
 2.4490	 9.7010
 2.4500	 9.6760
 2.4510	 9.6380
 2.4520	 9.5950
 2.4530	 9.5860
 2.4540	 9.5600
 2.4550	 9.5210
 2.4560	 9.4800
 2.4570	 9.4290
 2.4580	 9.3830
 2.4590	 9.3370
 2.4600	 9.3080
 2.4610	 9.2630
 2.4620	 9.2350
 2.4630	 9.2360
 2.4640	 9.2050
 2.4650	 9.1850
 2.4660	 9.1540
 2.4670	 9.1160
 2.4680	 9.0930
 2.4690	 9.0670
 2.4700	 9.0490
 2.4710	 9.0350
 2.4720	 9.0080
 2.4730	 8.9800
 2.4740	 8.9530
 2.4750	 8.9140
 2.4760	 8.8730
 2.4770	 8.8400
 2.4780	 8.8030
 2.4790	 8.7320
 2.4800	 8.7150
 2.4810	 8.7350
 2.4820	 8.7440
 2.4830	 8.7840
 2.4840	 8.7630
 2.4850	 8.7470
 2.4860	 8.7200
 2.4870	 8.6680
 2.4880	 8.6830
 2.4890	 8.6740
 2.4900	 8.6600
 2.4910	 8.6750
 2.4920	 8.6330
 2.4930	 8.5930
 2.4940	 8.5930
 2.4950	 8.5400
 2.4960	 8.4970
 2.4970	 8.5090
 2.4980	 8.4700
 2.4990	 8.4630
 2.5000	 8.4790
